-2.00,+1.00,+0.00,-1.00,-1.00,-2.00,-1.00,-2.00,-1.00,-2.00,-2.00,-3.00,-1.00,-3.00,-1.00,-1.00
-1.00,+0.00,-1.00,-2.00,-1.00,+0.00,-1.00,+0.00,+0.00,-1.00,-1.00,+0.00,-1.00,-1.00,-1.00,-2.00
+0.00,+1.00,-1.00,+0.00,-1.00,+0.00,-1.00,-1.00,-1.00,-2.00,-1.00,-2.00,+0.00,-1.00,+1.00,+0.00
+0.00,-1.00,-3.00,-1.00,-1.00,-2.00,-1.00,+0.00,-1.00,-2.00,-2.00,-1.00,-1.00,-1.00,-1.00,-2.00
+0.00,-2.00,+0.00,+0.00,+0.00,+0.00,-1.00,-2.00,-1.00,+0.00,-1.00,-3.00,+0.00,-1.00,-1.00,-1.00
-1.00,+0.00,-1.00,+0.00,-1.00,-2.00,-1.00,+0.00,-2.00,-1.00,-2.00,-1.00,-1.00,-1.00,+0.00,-2.00
-1.00,-1.00,+0.00,+0.00,-1.00,-2.00,+0.00,+0.00,-1.00,-1.00,-1.00,+1.00,+0.00,-1.00,-2.00,+0.00
-1.00,+0.00,+0.00,-1.00,+0.00,-1.00,-2.00,-3.00,+0.00,+3.00,-2.00,-2.00,+0.00,-1.00,+2.00,+1.00
-2.00,-1.00,-6.00,-3.00,-1.00,-1.00,-2.00,+1.00,-1.00,+2.00,+2.00,-1.00,+0.00,-1.00,-1.00,-1.00
-1.00,-2.00,+0.00,-3.00,+0.00,-1.00,+0.00,+0.00,-3.00,-9.00,-3.00,-2.00,-1.00,-1.00,-2.00,-1.00
+3.00,-2.00,+0.00,+0.00,-3.00,-2.00,+2.00,+2.00,+0.00,-5.00,+0.00,-1.00,-1.00,-1.00,-1.00,-1.00
-3.00,-27.00,-2.00,+0.00,+0.00,-1.00,-2.00,-1.00,-2.00,-6.00,+1.00,+0.00,+0.00,-2.00,-1.00,-1.00
-1.00,+15.00,+3.00,+1.00,-1.00,-1.00,-1.00,-2.00,-1.00,+4.00,+0.00,-3.00,-1.00,-1.00,-2.00,+0.00
-2.00,-1.00,-2.00,+0.00,+0.00,-1.00,-2.00,-2.00,+10.00,-4.00,-6.00,-3.00,-2.00,-2.00,-2.00,+2.00
-10.00,-10.00,-9.00,-6.00,-4.00,-3.00,-5.00,-7.00,-5.00,+2.00,-23.00,-8.00,+0.00,-2.00,-3.00,-4.00
-6.00,-36.00,-33.00,-9.00,-7.00,-3.00,-2.00,-5.00,-38.00,+37.00,+46.00,+17.00,+35.00,+1.00,-4.00,-12.00
+29.00,+86.00,+62.00,+13.00,+8.00,+19.00,+4.00,+12.00,+5.00,+17.00,+12.00,-4.00,-51.00,-2.00,+1.00,+3.00
-2.00,-70.00,-7.00,+4.00,+5.00,-12.00,+0.00,+0.00,-18.00,+6.00,+2.00,-2.00,-3.00,-1.00,+1.00,-1.00
+2.00,+13.00,+3.00,-2.00,+1.00,-1.00,-2.00,-2.00,+45.00,+62.00,+9.00,-2.00,-8.00,-2.00,+0.00,+2.00
-8.00,-37.00,-5.00,+0.00,+2.00,-2.00,+0.00,-4.00,-1.00,-24.00,-20.00,-3.00,+4.00,-1.00,+0.00,+3.00
-13.00,-25.00,-21.00,-7.00,-5.00,-11.00,-3.00,-6.00,-7.00,-86.00,-28.00,-5.00,+17.00,-3.00,-4.00,-2.00
-12.00,-26.00,-19.00,-9.00,-6.00,+3.00,-5.00,-7.00,+12.00,+89.00,-12.00,-3.00,+8.00,+1.00,-3.00,-2.00
-9.00,-15.00,-18.00,-8.00,-15.00,-4.00,-3.00,-5.00,-49.00,-23.00,+18.00,+7.00,+18.00,+1.00,-3.00,-17.00
+20.00,-23.00,+1.00,+5.00,+10.00,+16.00,+4.00,+8.00,+26.00,+91.00,-10.00,-3.00,-29.00,-1.00,+5.00,+16.00
+2.00,+68.00,+9.00,+8.00,-1.00,-5.00,+1.00,+3.00,-25.00,-29.00,+39.00,+17.00,+0.00,+3.00,+6.00,+1.00
+20.00,+107.00,+73.00,+18.00,+30.00,+27.00,+6.00,+11.00,+15.00,-23.00,-14.00,-14.00,-79.00,-11.00,-3.00,+2.00
-19.00,-66.00,-24.00,-7.00,-18.00,-35.00,-3.00,-7.00,+9.00,-24.00,-5.00,+3.00,+33.00,+0.00,+1.00,+1.00
+7.00,+41.00,+0.00,-5.00,-1.00,-4.00,-2.00,+1.00,+4.00,-1.00,-5.00,-9.00,-5.00,-4.00,-6.00,-7.00
-8.00,-52.00,-24.00,-7.00,-2.00,-3.00,-1.00,-3.00,+1.00,-1.00,-22.00,-10.00,+11.00,-3.00,-3.00,+0.00
-10.00,-24.00,-26.00,-7.00,-8.00,-8.00,-4.00,-4.00,-6.00,-62.00,+0.00,+6.00,+26.00,+2.00,+2.00,+2.00
-3.00,+26.00,+12.00,+2.00,+6.00,+10.00,-1.00,-1.00,-8.00,+31.00,+2.00,+0.00,-15.00,-1.00,-2.00,-3.00
+1.00,+17.00,+11.00,-1.00,-2.00,+1.00,+2.00,+1.00,+3.00,-59.00,-8.00,-5.00,-10.00,-3.00,+0.00,+1.00
-4.00,-39.00,-6.00,-2.00,-2.00,+5.00,-1.00,-3.00,+11.00,+11.00,-6.00,+0.00,+8.00,+3.00,-1.00,-1.00
-3.00,+0.00,-11.00,-5.00,-8.00,-4.00,-2.00,+0.00,-14.00,-4.00,-4.00,-3.00,+7.00,-3.00,-5.00,-5.00
-5.00,-28.00,-20.00,-8.00,+0.00,+1.00,-4.00,-6.00,-22.00,-101.00,-24.00,-10.00,-16.00,-7.00,-5.00,-9.00
-6.00,+1.00,+15.00,-2.00,-8.00,-11.00,-4.00,-5.00,+22.00,+88.00,+48.00,+17.00,+15.00,+4.00,+1.00,-2.00
+14.00,-82.00,+24.00,+9.00,+13.00,+5.00,+4.00,+11.00,+11.00,+23.00,+6.00,+2.00,+4.00,-1.00,+0.00,+5.00
+11.00,-12.00,+12.00,+5.00,-6.00,+1.00,+2.00,+4.00,+1.00,+15.00,+12.00,+4.00,+7.00,+0.00,+2.00,-1.00
+4.00,-16.00,+6.00,+5.00,+6.00,+2.00,+2.00,+4.00,+10.00,-25.00,+0.00,-4.00,-13.00,-3.00,-1.00,+4.00
-17.00,-12.00,-23.00,-6.00,-2.00,+0.00,-4.00,-6.00,-16.00,-49.00,-27.00,-10.00,-5.00,-3.00,-4.00,-2.00
-17.00,+8.00,-19.00,-10.00,-8.00,-9.00,-6.00,-9.00,-8.00,+7.00,-5.00,+0.00,+4.00,-1.00,-4.00,-5.00
-1.00,-7.00,-11.00,-5.00,+7.00,+6.00,+0.00,-2.00,-13.00,-64.00,+5.00,+6.00,+30.00,-12.00,-9.00,-5.00
+4.00,+39.00,-10.00,-4.00,-18.00,-14.00,+5.00,+2.00,+34.00,+75.00,-12.00,-4.00,-30.00,+25.00,-2.00,+7.00
+9.00,+6.00,+40.00,+16.00,+7.00,+4.00,+0.00,+9.00,-61.00,-100.00,-15.00,-1.00,-19.00,-4.00,+40.00,+1.00
-8.00,+46.00,+17.00,+1.00,+6.00,+22.00,-2.00,-7.00,+79.00,+127.00,+40.00,+3.00,-1.00,+0.00,-1.00,+4.00
+12.00,-14.00,+0.00,+4.00,-8.00,-24.00,+0.00,+3.00,-7.00,-37.00,-5.00,-1.00,-10.00,+4.00,+2.00,+3.00
+5.00,+14.00,-2.00,+2.00,+10.00,+17.00,+1.00,+3.00,-6.00,-35.00,-1.00,+3.00,+23.00,-8.00,+3.00,+0.00
-6.00,+2.00,-8.00,-5.00,+7.00,-16.00,-1.00,-5.00,-3.00,+60.00,-1.00,+4.00,+20.00,+11.00,-13.00,-6.00
-1.00,+22.00,-40.00,-12.00,-33.00,-19.00,-14.00,-3.00,-29.00,-42.00,-9.00,-13.00,-15.00,-15.00,+4.00,-13.00
-7.00,-4.00,-7.00,-8.00,+10.00,+14.00,+2.00,-3.00,-9.00,+20.00,+13.00,+12.00,+28.00,+4.00,-4.00,+0.00
+25.00,+45.00,+76.00,+23.00,+33.00,+6.00,+15.00,+12.00,-25.00,+0.00,-4.00,-27.00,-82.00,-24.00,-23.00,-13.00
-1.00,-19.00,-10.00,-3.00,-16.00,-17.00,-4.00,-3.00,+40.00,+32.00,-11.00,-12.00,-19.00,-2.00,-8.00,+5.00
-13.00,-113.00,-18.00,-3.00,-4.00,-18.00,-3.00,-3.00,-21.00,-128.00,-54.00,-16.00,+0.00,-21.00,-2.00,+0.00
-32.00,-50.00,-51.00,-24.00,-12.00,-7.00,-15.00,-22.00,+39.00,+127.00,+52.00,+10.00,+38.00,+31.00,-13.00,-7.00
+12.00,-44.00,-36.00,-7.00,-27.00,-8.00,-42.00,+6.00,-37.00,-95.00,+15.00,+27.00,+43.00,-5.00,+9.00,+15.00
+16.00,-18.00,+56.00,+28.00,+16.00,+38.00,+66.00,+13.00,+35.00,-84.00,-29.00,-12.00,-36.00,-10.00,-5.00,-8.00
-7.00,+4.00,+0.00,+1.00,+17.00,+1.00,+3.00,-15.00,-14.00,+62.00,+13.00,+5.00,+12.00,+3.00,+5.00,+2.00
+13.00,+65.00,-8.00,+1.00,-9.00,-1.00,-4.00,+17.00,+31.00,-77.00,-23.00,-14.00,-33.00,-12.00,-11.00,-2.00
-29.00,-66.00,+10.00,-9.00,+2.00,-4.00,-5.00,-7.00,+2.00,+49.00,+10.00,+7.00,+22.00,+12.00,+20.00,-2.00
+13.00,+1.00,-63.00,-15.00,-13.00,-7.00,-9.00,+2.00,+5.00,-4.00,+0.00,+5.00,+16.00,+0.00,+3.00,+4.00
+10.00,+19.00,+40.00,+10.00,-7.00,-4.00,+11.00,+3.00,-23.00,-83.00,-30.00,+7.00,+51.00,-29.00,-66.00,-9.00
+0.00,+20.00,+38.00,+7.00,-1.00,-33.00,-28.00,-15.00,-10.00,+54.00,+12.00,-8.00,-47.00,+59.00,+89.00,+5.00
-11.00,-22.00,-11.00,+7.00,+10.00,+27.00,-19.00,-16.00,+0.00,+47.00,+23.00,-3.00,-33.00,-13.00,-31.00,-11.00
-4.00,-8.00,+11.00,-4.00,+2.00,+1.00,-20.00,+9.00,+7.00,-17.00,+0.00,-4.00,+8.00,-1.00,-1.00,+7.00
-7.00,+6.00,-14.00,-4.00,+0.00,-7.00,+7.00,-3.00,-4.00,+29.00,-5.00,-4.00,-20.00,+5.00,-8.00,-16.00
+0.00,-4.00,-6.00,-4.00,+0.00,-4.00,+5.00,+5.00,-42.00,-103.00,-21.00,+0.00,+15.00,-22.00,-14.00,+1.00
+4.00,+32.00,-12.00,-4.00,-5.00,-5.00,+12.00,+13.00,+20.00,+85.00,-15.00,-4.00,+14.00,+2.00,+17.00,+26.00
-14.00,-17.00,-2.00,-4.00,-9.00,-7.00,-16.00,+6.00,-2.00,-19.00,+18.00,+1.00,-1.00,+0.00,-3.00,+7.00
-9.00,+65.00,+0.00,-6.00,+9.00,+5.00,-11.00,-5.00,-4.00,+38.00,+9.00,+6.00,+10.00,+9.00,+3.00,-8.00
+27.00,+66.00,+69.00,+18.00,+2.00,+13.00,+8.00,+5.00,-9.00,-14.00,+16.00,+6.00,+5.00,-8.00,-7.00,-5.00
+1.00,-56.00,-7.00,+6.00,-2.00,+34.00,+4.00,+0.00,-39.00,-3.00,-7.00,-7.00,+14.00,+5.00,+0.00,-15.00
-2.00,+11.00,-18.00,-10.00,+1.00,-39.00,+1.00,-14.00,+16.00,-30.00,-10.00,+1.00,+15.00,-13.00,-18.00,-1.00
-4.00,-40.00,-14.00,-5.00,-5.00,-12.00,-41.00,-7.00,+7.00,+6.00,+6.00,+0.00,-15.00,+9.00,+15.00,-5.00
-32.00,-48.00,-23.00,-7.00,-6.00,+4.00,+20.00,+13.00,+12.00,+2.00,-13.00,-3.00,+14.00,+2.00,+0.00,+6.00
+2.00,+36.00,+3.00,-4.00,+0.00,-7.00,+8.00,-6.00,+0.00,+32.00,+5.00,+0.00,-4.00,-4.00,-43.00,-1.00
+7.00,+14.00,+7.00,+1.00,+1.00,+13.00,+16.00,-3.00,-6.00,-37.00,-10.00,+1.00,-5.00,-1.00,+54.00,-8.00
+5.00,+26.00,+34.00,+6.00,-4.00,-3.00,-19.00,+12.00,-4.00,+12.00,+7.00,-8.00,-38.00,-6.00,-19.00,-1.00
+1.00,-5.00,-12.00,+1.00,+2.00,+3.00,-25.00,-20.00,-12.00,+16.00,-5.00,+1.00,-5.00,-9.00,-10.00,+3.00
+5.00,+3.00,-6.00,-1.00,+6.00,+1.00,+39.00,+11.00,+12.00,-80.00,-22.00,+0.00,+10.00,-3.00,-4.00,-1.00
-11.00,+8.00,+5.00,-1.00,+18.00,+13.00,-42.00,-10.00,-15.00,+7.00,+26.00,+4.00,+30.00,+1.00,-10.00,+0.00
+5.00,+3.00,-21.00,-3.00,-16.00,+11.00,+19.00,+0.00,+8.00,-3.00,-19.00,+1.00,+44.00,+29.00,+29.00,+14.00
+1.00,-24.00,-8.00,-6.00,-3.00,-17.00,-36.00,-11.00,+0.00,+62.00,+19.00,-8.00,-47.00,-28.00,-44.00,-1.00
+2.00,+4.00,+2.00,+3.00,+1.00,-13.00,+46.00,+14.00,+24.00,-38.00,-2.00,-1.00,-3.00,+8.00,+11.00,-12.00
-9.00,+20.00,+20.00,+3.00,+1.00,-9.00,-7.00,-9.00,-33.00,+14.00,+18.00,+4.00,-3.00,+18.00,-13.00,-12.00
+24.00,+55.00,+51.00,+4.00,+7.00,+12.00,+22.00,+12.00,-2.00,-34.00,-1.00,+2.00,+23.00,+5.00,+3.00,+10.00
-11.00,-9.00,-8.00,-2.00,-5.00,+17.00,+7.00,-4.00,+5.00,+13.00,-7.00,-1.00,-18.00,-14.00,-2.00,+2.00
-2.00,+0.00,-9.00,-3.00,+6.00,-14.00,-18.00,-15.00,+5.00,+53.00,-7.00,-4.00,+6.00,-2.00,+13.00,-6.00
+5.00,+2.00,+10.00,-6.00,-13.00,+0.00,+7.00,+3.00,-6.00,-7.00,-18.00,-8.00,-15.00,+5.00,-16.00,-1.00
-4.00,-63.00,-30.00,-2.00,+6.00,-1.00,-1.00,+5.00,-15.00,-64.00,-11.00,-3.00,-16.00,-14.00,-38.00,-4.00
-18.00,-19.00,-35.00,-10.00,-7.00,+4.00,+6.00,-1.00,+10.00,+81.00,+57.00,+9.00,+18.00,-2.00,+15.00,-6.00
+12.00,+6.00,+27.00,+7.00,-1.00,-8.00,-9.00,+3.00,-12.00,-46.00,+0.00,+0.00,-10.00,+2.00,+3.00,+0.00
-7.00,-2.00,-9.00,-2.00,-3.00,+12.00,+13.00,-3.00,+15.00,-23.00,-18.00,+0.00,+8.00,-6.00,-2.00,-9.00
-3.00,-22.00,-11.00,-2.00,-2.00,-7.00,-8.00,+0.00,-6.00,-28.00,+1.00,-2.00,-14.00,+0.00,+2.00,+10.00
+2.00,-52.00,-35.00,-1.00,+5.00,-4.00,+30.00,-3.00,+31.00,+24.00,-28.00,-6.00,+1.00,-4.00,+0.00,+2.00
-1.00,-12.00,+38.00,+0.00,-1.00,+10.00,-9.00,-8.00,-2.00,+1.00,+7.00,+3.00,+19.00,+5.00,+2.00,-1.00
+6.00,+12.00,-8.00,+0.00,+16.00,+11.00,-10.00,+11.00,-14.00,-35.00,-15.00,-7.00,+2.00,-7.00,-4.00,+5.00
-10.00,-30.00,-8.00,-4.00,-19.00,-30.00,+0.00,-7.00,+16.00,+98.00,+26.00,+1.00,-6.00,-4.00,+8.00,-2.00
+0.00,-2.00,+13.00,-1.00,-3.00,-4.00,+9.00,+3.00,-2.00,-31.00,-3.00,+1.00,+24.00,+6.00,+2.00,+4.00
-4.00,+16.00,-22.00,-3.00,-5.00,-6.00,-11.00,-7.00,+1.00,-33.00,+3.00,+5.00,-1.00,-6.00,+7.00,+0.00
+6.00,+16.00,+1.00,+2.00,-3.00,-7.00,-6.00,-6.00,+3.00,-15.00,-8.00,-3.00,-12.00,+5.00,-1.00,+4.00
-4.00,-19.00,-1.00,-3.00,+12.00,+39.00,+14.00,+4.00,+3.00,+40.00,+6.00,+0.00,-34.00,-24.00,+5.00,-7.00
+8.00,-11.00,+0.00,+2.00,-25.00,-14.00,-16.00,+11.00,-17.00,-60.00,-22.00,-10.00,+3.00,+21.00,+11.00,-3.00
-5.00,+3.00,-3.00,-4.00,+24.00,-14.00,-18.00,-6.00,+9.00,+21.00,+3.00,+2.00,-4.00,-2.00,-9.00,+8.00
-7.00,+0.00,-6.00,-3.00,-11.00,-8.00,+14.00,+1.00,+0.00,+4.00,-21.00,-9.00,+3.00,-5.00,-6.00,-3.00
-1.00,-8.00,-38.00,-6.00,+2.00,-2.00,+7.00,-2.00,-2.00,+24.00,+27.00,+7.00,+1.00,+9.00,+9.00,-2.00
+4.00,+21.00,+29.00,+5.00,+5.00,+6.00,+4.00,+0.00,-17.00,-28.00,-9.00,+7.00,+28.00,+1.00,-13.00,-5.00
+3.00,+11.00,-3.00,+0.00,-7.00,-2.00,-10.00,-1.00,-5.00,+1.00,-1.00,-5.00,-17.00,-21.00,+4.00,-7.00
-7.00,-45.00,-36.00,-4.00,-12.00,-1.00,-14.00,-9.00,+6.00,-13.00,-22.00,-4.00,-11.00,+1.00,-7.00,-3.00
+3.00,+0.00,+11.00,+0.00,+0.00,-4.00,+1.00,+2.00,-21.00,-39.00,-17.00,-2.00,+7.00,+5.00,+13.00,+7.00
+1.00,+9.00,-11.00,-1.00,+4.00,+6.00,-1.00,-2.00,+6.00,+53.00,+11.00,-1.00,-9.00,-7.00,-9.00,-8.00
-2.00,-20.00,-1.00,-1.00,-3.00,+5.00,+5.00,+3.00,+17.00,+69.00,+6.00,+1.00,+11.00,+7.00,+3.00,+8.00
-2.00,+11.00,-3.00,+2.00,+7.00,+5.00,+2.00,-3.00,-8.00,+62.00,+15.00,+2.00,-10.00,-10.00,-3.00,-5.00
-6.00,-33.00,-7.00,-2.00,-3.00,-3.00,+9.00,-2.00,+14.00,-82.00,-30.00,-6.00,+6.00,+3.00,-6.00,+0.00
+0.00,+53.00,-4.00,-1.00,+4.00,+4.00,-3.00,+0.00,-18.00,-40.00,-9.00,-6.00,-4.00,-4.00,+2.00,-8.00
+2.00,-20.00,+0.00,+0.00,-2.00,+1.00,+11.00,+3.00,+3.00,-29.00,-14.00,-5.00,-6.00,-3.00,-15.00,+0.00
-6.00,-5.00,-7.00,-6.00,-10.00,-2.00,-9.00,-11.00,+1.00,-41.00,-1.00,+3.00,+23.00,-3.00,-5.00,-3.00
-1.00,+11.00,-3.00,+2.00,+0.00,-2.00,-14.00,-7.00,-10.00,+31.00,+31.00,+6.00,-34.00,+14.00,+8.00,-4.00
+5.00,-3.00,+18.00,+4.00,+7.00,-3.00,+10.00,+2.00,+5.00,-14.00,-24.00,-8.00,-34.00,-14.00,-1.00,+14.00
-9.00,-1.00,-9.00,-6.00,-4.00,+15.00,-17.00,-7.00,+0.00,-10.00,+19.00,+1.00,-10.00,-8.00,+9.00,+0.00
+4.00,-3.00,-1.00,+0.00,-1.00,-4.00,+1.00,-4.00,-5.00,-48.00,-16.00,+1.00,+6.00,+31.00,-5.00,+1.00
+4.00,+31.00,+6.00,-1.00,+27.00,+57.00,-1.00,+19.00,-5.00,+12.00,+4.00,-3.00,+1.00,-4.00,+29.00,-6.00
-1.00,+17.00,+2.00,-3.00,-17.00,-59.00,-6.00,-6.00,+11.00,+5.00,+1.00,-2.00,-26.00,+5.00,+8.00,+8.00
+2.00,+2.00,-1.00,+1.00,-8.00,-17.00,+6.00,-1.00,-7.00,-20.00,-18.00,+2.00,+27.00,-8.00,-2.00,+4.00
-4.00,-21.00,+11.00,+0.00,-3.00,+0.00,+11.00,+1.00,+1.00,+57.00,+24.00,-1.00,-16.00,-18.00,+5.00,+4.00
-7.00,-7.00,-4.00,-1.00,+3.00,-4.00,-36.00,-23.00,+8.00,-45.00,-36.00,-7.00,+8.00,+1.00,-13.00,-4.00
-6.00,-20.00,-14.00,-5.00,-3.00,+12.00,+6.00,+9.00,-24.00,-23.00,+32.00,+7.00,+6.00,-2.00,-7.00,-9.00
+10.00,+22.00,+36.00,+4.00,+5.00,+12.00,+1.00,+5.00,-14.00,+10.00,+14.00,+3.00,+3.00,+4.00,+4.00,-7.00
-2.00,+15.00,-5.00,-2.00,+2.00,-4.00,+2.00,+0.00,+2.00,-5.00,-4.00,+0.00,-2.00,+0.00,-7.00,+3.00
+0.00,-3.00,+28.00,+3.00,-8.00,-15.00,+10.00,-6.00,-4.00,+25.00,+20.00,+2.00,+3.00,-2.00,-2.00,-5.00
+4.00,-9.00,+3.00,+0.00,+6.00,+16.00,-5.00,-2.00,+19.00,-23.00,-19.00,+0.00,+22.00,-4.00,+0.00,+6.00
-6.00,-1.00,+2.00,-1.00,-7.00,-15.00,+1.00,-5.00,-17.00,-41.00,-9.00,-6.00,-30.00,+6.00,-3.00,+4.00
+6.00,+35.00,+2.00,+1.00,+5.00,+9.00,-3.00,-2.00,+1.00,+61.00,+27.00,+5.00,-4.00,-6.00,+3.00,-1.00
-5.00,-16.00,-29.00,-4.00,-4.00,-11.00,+6.00,+20.00,+13.00,-1.00,+2.00,-1.00,+0.00,+2.00,-3.00,+4.00
+1.00,+27.00,+33.00,+2.00,+3.00,+6.00,+0.00,-2.00,-11.00,-79.00,-37.00,-10.00,-4.00,-4.00,-3.00,-14.00
-2.00,-63.00,-25.00,-8.00,-3.00,+4.00,+6.00,+3.00,+34.00,+21.00,+12.00,+6.00,+7.00,+6.00,+6.00,+5.00
+17.00,+77.00,+22.00,+7.00,+1.00,+2.00,-3.00,+9.00,-11.00,+61.00,+36.00,+4.00,-5.00,-3.00,-2.00,-6.00
-4.00,-15.00,-5.00,+0.00,+0.00,-7.00,-1.00,-11.00,+0.00,-3.00,-17.00,-5.00,-3.00,-4.00,-1.00,-1.00
-6.00,-31.00,-16.00,-3.00,+3.00,+2.00,+8.00,-7.00,-10.00,-32.00,-7.00,+0.00,+8.00,+0.00,-8.00,-3.00
+0.00,+45.00,+13.00,-1.00,-6.00,-3.00,-3.00,+0.00,+5.00,+0.00,-14.00,-2.00,+0.00,+1.00,+2.00,-8.00
-2.00,-30.00,+17.00,+1.00,+1.00,+1.00,-3.00,+2.00,+0.00,+30.00,+6.00,-1.00,-5.00,-5.00,+1.00,+3.00
+5.00,+14.00,-4.00,-1.00,-5.00,-15.00,+6.00,-4.00,+1.00,-8.00,+7.00,+3.00,+20.00,+10.00,-2.00,-1.00
-3.00,+1.00,+3.00,+2.00,+10.00,+22.00,+2.00,-6.00,-2.00,+33.00,+11.00,+8.00,-11.00,-16.00,-2.00,-6.00
+12.00,+3.00,-19.00,-1.00,+2.00,+15.00,-8.00,+4.00,-10.00,-23.00,-16.00,-8.00,-6.00,+4.00,-19.00,+1.00
-5.00,-31.00,-10.00,-3.00,-5.00,-4.00,-2.00,+18.00,+4.00,-16.00,-10.00,-5.00,-6.00,+15.00,+58.00,+3.00
+2.00,+15.00,+15.00,+0.00,+0.00,-3.00,+3.00,+1.00,-9.00,-5.00,+1.00,-6.00,-10.00,-11.00,-23.00,-2.00
+2.00,-5.00,-5.00,-2.00,-1.00,-4.00,-4.00,-8.00,+14.00,+38.00,-23.00,-2.00,+19.00,+12.00,+4.00,+5.00
-16.00,-8.00,-12.00,-2.00,-2.00,-1.00,-5.00,-10.00,-8.00,+29.00,+16.00,+1.00,+3.00,-4.00,+6.00,-13.00
+1.00,+2.00,-15.00,-6.00,-3.00,+2.00,+1.00,-2.00,+13.00,-2.00,+15.00,+2.00,-4.00,-8.00,-22.00,-9.00
-1.00,-47.00,-16.00,+3.00,+1.00,-2.00,+3.00,-17.00,-2.00,-70.00,-20.00,-2.00,+9.00,+6.00,+4.00,+1.00
+2.00,-6.00,+8.00,+2.00,+1.00,+6.00,+5.00,+27.00,-4.00,-36.00,+1.00,-3.00,-4.00,-5.00,+2.00,+2.00
+1.00,-3.00,+6.00,-3.00,-3.00,-3.00,+1.00,-1.00,+11.00,+7.00,-10.00,-2.00,-4.00,-1.00,-4.00,+8.00
-9.00,+21.00,-7.00,-2.00,-2.00,-2.00,-6.00,-9.00,-7.00,-23.00,-12.00,-4.00,+3.00,-3.00,-10.00,-5.00
-5.00,+6.00,-8.00,-4.00,-2.00,-4.00,+1.00,-7.00,-5.00,+46.00,+6.00,+1.00,-5.00,-3.00,+1.00,+0.00
-2.00,-27.00,+2.00,+0.00,-2.00,-2.00,-3.00,-2.00,-2.00,+4.00,-12.00,-6.00,-5.00,-6.00,-10.00,-2.00
-3.00,+15.00,-1.00,-1.00,-1.00,-3.00,-1.00,-8.00,-8.00,-73.00,-16.00,-7.00,-7.00,-1.00,+4.00,-2.00
-7.00,-24.00,+3.00,-3.00,-3.00,-7.00,+0.00,+5.00,+16.00,+84.00,+34.00,+9.00,+5.00,+0.00,-7.00,+2.00
+4.00,-10.00,-7.00,+1.00,-1.00,+1.00,+0.00,+0.00,-7.00,+8.00,+0.00,+1.00,-3.00,-3.00,+8.00,-3.00
+6.00,+19.00,+2.00,+1.00,+0.00,+0.00,-1.00,-2.00,-1.00,+2.00,-1.00,-5.00,-5.00,+0.00,+2.00,-1.00
-3.00,+10.00,-7.00,-4.00,-3.00,-4.00,+1.00,+5.00,+6.00,+3.00,+4.00,+2.00,+4.00,+3.00,+3.00,+7.00
-6.00,-4.00,-12.00,-1.00,+0.00,+0.00,-3.00,-11.00,-12.00,-27.00,-7.00,-4.00,-2.00,-7.00,-8.00,-4.00
+7.00,+7.00,+8.00,+1.00,-2.00,+1.00,+3.00,+7.00,+12.00,+6.00,-14.00,-2.00,-5.00,-2.00,-8.00,+0.00
-6.00,-4.00,+0.00,+0.00,-2.00,-1.00,-1.00,-4.00,-9.00,-21.00,+2.00,+2.00,+2.00,+3.00,+0.00,-3.00
-2.00,-32.00,+2.00,+0.00,+3.00,+0.00,-3.00,-2.00,-11.00,+64.00,+6.00,+1.00,+0.00,+0.00,+4.00,+2.00
+0.00,+21.00,+8.00,-1.00,-3.00,-2.00,+1.00,-4.00,-12.00,-13.00,+0.00,+1.00,+0.00,-3.00,-9.00,+1.00
+2.00,+15.00,-12.00,-1.00,-4.00,+0.00,+0.00,+5.00,+11.00,+35.00,+5.00,+3.00,+5.00,-2.00,+6.00,-2.00
-8.00,-10.00,+0.00,-4.00,+0.00,+0.00,-3.00,-4.00,+5.00,-35.00,-3.00,-3.00,-3.00,+1.00,+0.00,+1.00
+4.00,-24.00,-14.00,-4.00,-1.00,+0.00,+2.00,-1.00,-8.00,+58.00,+21.00,+7.00,+3.00,+0.00,+3.00,+2.00
+13.00,+69.00,+37.00,+4.00,+4.00,+3.00,+2.00,+3.00,+17.00,+10.00,-6.00,-3.00,-4.00,-2.00,-3.00,+2.00
+0.00,-42.00,-9.00,+1.00,+0.00,-2.00,-1.00,+8.00,-22.00,-38.00,-7.00,+1.00,+5.00,+11.00,+4.00,-1.00
+3.00,+24.00,+11.00,+2.00,-2.00,+0.00,+8.00,-3.00,+12.00,+1.00,-7.00,+0.00,+1.00,-14.00,-3.00,+5.00
-17.00,-12.00,-14.00,-4.00,-3.00,+0.00,-19.00,-4.00,-5.00,-60.00,-25.00,-7.00,-3.00,-3.00,-8.00,-7.00
-3.00,-45.00,-21.00,-3.00,-2.00,-4.00,-7.00,-4.00,-27.00,-66.00,+8.00,-1.00,+2.00,-1.00,-3.00,-11.00
+13.00,+44.00,+15.00,-2.00,-3.00,+1.00,+3.00,+4.00,+14.00,+61.00,-4.00,-2.00,-6.00,-3.00,+3.00,+6.00
-1.00,+24.00,-4.00,+1.00,-1.00,-5.00,+0.00,-3.00,-10.00,-19.00,-30.00,-7.00,-4.00,+3.00,-2.00,+1.00
-11.00,-50.00,-33.00,-3.00,-3.00,-3.00,+2.00,-3.00,-9.00,+14.00,+48.00,+8.00,+1.00,+0.00,-1.00,-11.00
+5.00,-3.00,+14.00,+9.00,+3.00,+1.00,+3.00,+5.00,-17.00,-97.00,-27.00,-3.00,-1.00,-2.00,-3.00,+0.00
-4.00,+37.00,+11.00,+0.00,-1.00,-1.00,-4.00,-6.00,+43.00,+24.00,-6.00,-3.00,-3.00,+1.00,+4.00,+12.00
-4.00,-87.00,-9.00,+0.00,+0.00,+1.00,-2.00,+0.00,-15.00,+31.00,+39.00,+5.00,-2.00,-1.00,-4.00,-7.00
+5.00,+54.00,-9.00,-2.00,-2.00,-4.00,+3.00,+1.00,+7.00,-2.00,-38.00,-11.00,-3.00,-6.00,-3.00,-3.00
-18.00,-92.00,-39.00,-13.00,-8.00,-4.00,-10.00,-12.00,+1.00,+57.00,+11.00,+2.00,+1.00,+2.00,-1.00,+5.00
+3.00,+14.00,+24.00,+1.00,+2.00,-2.00,+2.00,-4.00,-21.00,-79.00,-24.00,-6.00,-6.00,-3.00,-7.00,-9.00
+5.00,+21.00,+26.00,+5.00,+0.00,-1.00,-8.00,+17.00,-9.00,+68.00,+51.00,+10.00,+4.00,-1.00,+0.00,+0.00
+9.00,+40.00,+20.00,+4.00,+5.00,+4.00,+11.00,+4.00,-8.00,-50.00,-18.00,-5.00,-7.00,+3.00,-1.00,-2.00
-8.00,-16.00,-15.00,-4.00,-5.00,+0.00,+0.00,-3.00,+29.00,+23.00,-15.00,-8.00,-3.00,-6.00,-3.00,+0.00
-22.00,-50.00,-43.00,-9.00,-9.00,-11.00,-7.00,-11.00,-44.00,-36.00,+21.00,+2.00,-4.00,-5.00,-3.00,-1.00
-5.00,-36.00,+7.00,-8.00,-4.00,-4.00,-8.00,-11.00,+36.00,-9.00,-39.00,-9.00,+1.00,+2.00,+4.00,+0.00
+5.00,+86.00,+21.00,+3.00,-2.00,-2.00,+0.00,-2.00,-8.00,-24.00,+25.00,+3.00,+5.00,+2.00,-3.00,-7.00
+9.00,-69.00,-25.00,+5.00,+1.00,+4.00,+3.00,+5.00,-14.00,+55.00,-27.00,-5.00,-4.00,+0.00,+0.00,-5.00
+12.00,+94.00,+58.00,+12.00,+5.00,-1.00,+12.00,+28.00,+13.00,+37.00,+30.00,+13.00,+29.00,+1.00,-4.00,+5.00
-9.00,-37.00,-28.00,-6.00,-11.00,+8.00,+11.00,-10.00,-6.00,-3.00,-17.00,-9.00,-29.00,+6.00,+2.00,-10.00
+2.00,-19.00,-9.00,-3.00,+5.00,-9.00,-8.00,+2.00,+3.00,-28.00,-3.00,-3.00,-5.00,+2.00,+4.00,+6.00
-12.00,+15.00,-19.00,-6.00,-2.00,-8.00,+1.00,-3.00,-5.00,-69.00,-12.00,-2.00,+6.00,-7.00,-4.00,-5.00
+11.00,+9.00,+6.00,-1.00,-1.00,-1.00,-6.00,-5.00,+6.00,+46.00,-5.00,-7.00,-2.00,+2.00,+0.00,+0.00
-28.00,-67.00,-80.00,-14.00,-6.00,-9.00,+0.00,-12.00,+40.00,-83.00,-12.00,+5.00,+14.00,+2.00,-3.00,+2.00
+14.00,-11.00,+72.00,+15.00,+5.00,+7.00,+6.00,+9.00,+1.00,+97.00,+23.00,+6.00,+2.00,-5.00,+0.00,+0.00
+15.00,+88.00,+28.00,-1.00,+1.00,+0.00,-12.00,+2.00,-2.00,-31.00,-1.00,+2.00,-3.00,-2.00,-17.00,+1.00
+2.00,+4.00,-14.00,-1.00,+0.00,+2.00,+14.00,+0.00,+3.00,-2.00,-9.00,+1.00,+0.00,+3.00,+41.00,+0.00
+3.00,+24.00,-18.00,-1.00,+5.00,+7.00,+1.00,+3.00,-27.00,-61.00,-8.00,-5.00,-4.00,-8.00,-12.00,-13.00
-25.00,-91.00,-54.00,-15.00,-10.00,-8.00,-14.00,-15.00,+8.00,+15.00,+12.00,-2.00,-6.00,+4.00,+7.00,+14.00
-10.00,+62.00,+1.00,-4.00,-3.00,-4.00,+1.00,-4.00,+53.00,+75.00,+3.00,+0.00,+0.00,-5.00,-6.00,+5.00
-24.00,-126.00,-17.00,-2.00,-1.00,+0.00,-5.00,-8.00,-62.00,-66.00,+11.00,+11.00,+2.00,+3.00,-7.00,-3.00
+48.00,+127.00,+98.00,+28.00,+11.00,+8.00,+11.00,+20.00,-14.00,-29.00,-9.00,+4.00,+42.00,+2.00,-3.00,-5.00
+1.00,-17.00,+20.00,+6.00,+6.00,+0.00,+3.00,+2.00,+28.00,-20.00,-10.00,-11.00,-71.00,+10.00,+16.00,+7.00
-14.00,-128.00,-32.00,+0.00,-8.00,-5.00,+11.00,+1.00,-12.00,+35.00,+35.00,+4.00,+1.00,-12.00,-14.00,-12.00
-18.00,-23.00,-33.00,-15.00,-1.00,-3.00,-25.00,-14.00,+50.00,+127.00,-1.00,-17.00,-30.00,-27.00,-23.00,-3.00
-38.00,-76.00,-75.00,-26.00,-11.00,+1.00,+7.00,-19.00,-51.00,-116.00,-19.00,+11.00,+30.00,+17.00,+17.00,+0.00
+30.00,+38.00,+80.00,+21.00,-13.00,-9.00,+3.00,+14.00,-13.00,+32.00,+3.00,+13.00,+52.00,+3.00,-5.00,+2.00
+13.00,+13.00,+34.00,+9.00,+28.00,+14.00,+9.00,+8.00,-12.00,-3.00,-13.00,-7.00,-33.00,+2.00,+6.00,-8.00
-1.00,-25.00,-22.00,-1.00,-5.00,-25.00,+8.00,-10.00,-1.00,-43.00,-26.00,-12.00,-14.00,-5.00,-8.00,-2.00
-14.00,-58.00,-32.00,-10.00,-7.00,-12.00,-3.00,+5.00,-6.00,+77.00,+57.00,+1.00,-11.00,-9.00,-2.00,+2.00
+1.00,+72.00,+56.00,-8.00,-4.00,-4.00,+0.00,-2.00,+42.00,+37.00,-19.00,-3.00,+25.00,-4.00,-5.00,-5.00
-12.00,-77.00,+0.00,-6.00,-12.00,+8.00,-3.00,-9.00,-1.00,-29.00,-12.00,-6.00,-9.00,+10.00,+7.00,+1.00
+14.00,-61.00,-43.00,+1.00,+4.00,+9.00,-8.00,+9.00,-46.00,-48.00,+3.00,+6.00,+8.00,+5.00,+1.00,-2.00
+15.00,+58.00,+52.00,+13.00,+13.00,+1.00,+2.00,+3.00,+19.00,+99.00,-9.00,-3.00,-12.00,-4.00,-12.00,-6.00
-12.00,-84.00,-33.00,-5.00,-2.00,+6.00,-2.00,-5.00,+4.00,+56.00,-15.00,-2.00,+2.00,-2.00,-4.00,-5.00
+3.00,-28.00,-6.00,+0.00,+1.00,-4.00,-4.00,+0.00,-7.00,+17.00,+16.00,+3.00,+21.00,+10.00,-23.00,+0.00
+0.00,+56.00,-1.00,-5.00,-7.00,-10.00,+10.00,-2.00,+2.00,-63.00,-11.00,-6.00,-28.00,-16.00,+52.00,+1.00
+0.00,+16.00,-16.00,-7.00,-6.00,-8.00,-18.00,-11.00,+25.00,-52.00,-15.00,-8.00,-19.00,-4.00,+0.00,+12.00
-31.00,-7.00,-41.00,-17.00,-4.00,-1.00,-8.00,-14.00,-25.00,+35.00,-28.00,-7.00,-5.00,-6.00,+0.00,-11.00
+20.00,-42.00,+34.00,+23.00,+7.00,+5.00,+2.00,+11.00,-23.00,-24.00,+34.00,+13.00,+8.00,+9.00,-1.00,-11.00
+2.00,+60.00,-30.00,-9.00,+2.00,+22.00,-10.00,+4.00,+40.00,+2.00,+1.00,+2.00,+31.00,-40.00,-23.00,+19.00
+9.00,+18.00,+53.00,+16.00,-8.00,-40.00,+1.00,-5.00,-18.00,-55.00,-1.00,+12.00,-20.00,+45.00,+14.00,-11.00
+22.00,+38.00,+14.00,+12.00,+2.00,-11.00,+13.00,+14.00,-17.00,-52.00,-13.00,-22.00,-44.00,-6.00,+0.00,-2.00
-23.00,+29.00,-23.00,-15.00,+10.00,-1.00,-14.00,+5.00,+2.00,-3.00,+3.00,-6.00,-4.00,+3.00,+2.00,+1.00
-19.00,-122.00,-43.00,-15.00,-9.00,-2.00,-2.00,-8.00,+63.00,+97.00,-45.00,-23.00,-5.00,+3.00,-11.00,+0.00
+3.00,-36.00,+41.00,+13.00,+3.00,+8.00,-13.00,+7.00,-68.00,+45.00,+66.00,+7.00,+6.00,-4.00,+0.00,-26.00
+5.00,+9.00,-20.00,-2.00,+8.00,+13.00,+35.00,-3.00,-12.00,-116.00,+9.00,+16.00,+24.00,-15.00,-20.00,-2.00
+27.00,+96.00,+81.00,+13.00,-10.00,-13.00,-79.00,-3.00,+19.00,+49.00,-14.00,-2.00,+13.00,+2.00,+9.00,+9.00
+6.00,-8.00,+35.00,+14.00,+4.00,+4.00,+3.00,+25.00,-29.00,-95.00,+11.00,+1.00,-23.00,-1.00,-10.00,-5.00
-12.00,+35.00,-29.00,-13.00,-8.00,+1.00,-12.00,-10.00,+21.00,+10.00,-19.00,-9.00,-9.00,-16.00,-33.00,+7.00
-16.00,-33.00,-74.00,-13.00,-5.00,-3.00,-10.00,-9.00,+36.00,-38.00,+32.00,+2.00,-3.00,+10.00,+27.00,+4.00
-16.00,-74.00,-28.00,-12.00,-3.00,+6.00,+29.00,-2.00,-41.00,-74.00,-47.00,-3.00,+11.00,-4.00,-5.00,+4.00
+3.00,+55.00,+72.00,+15.00,+4.00,+1.00,-3.00,-7.00,-23.00,+122.00,+47.00,+10.00,-9.00,+7.00,-6.00,-13.00
+25.00,-68.00,+53.00,+2.00,+7.00,+0.00,+6.00,+9.00,+19.00,-10.00,+0.00,+1.00,+4.00,-5.00,-10.00,+4.00
+3.00,-14.00,+14.00,+9.00,+16.00,+18.00,+4.00,+8.00,-16.00,-8.00,-6.00,+2.00,-1.00,+0.00,-8.00,-2.00
-8.00,-2.00,-14.00,-5.00,-4.00,+3.00,+16.00,-6.00,+12.00,-68.00,+5.00,-8.00,-26.00,-6.00,+9.00,+3.00
-16.00,+4.00,-21.00,-14.00,+3.00,-10.00,-17.00,-17.00,-40.00,-85.00,-42.00,-8.00,+8.00,+13.00,-8.00,-2.00
-12.00,-128.00,+0.00,-1.00,-11.00,-12.00,+14.00,+1.00,-31.00,-102.00,-57.00,-11.00,-2.00,-1.00,+10.00,+1.00
-1.00,+127.00,-63.00,-15.00,-5.00,-6.00,-17.00,-10.00,-39.00,+46.00,+92.00,+20.00,+15.00,-8.00,-12.00,-13.00
-26.00,-5.00,-36.00,-3.00,-5.00,-3.00,+1.00,-17.00,-29.00,-99.00,-45.00,+5.00,+15.00,+2.00,+20.00,+7.00
+75.00,+101.00,+71.00,+48.00,+21.00,+18.00,+25.00,+39.00,-7.00,-69.00,-3.00,+2.00,+5.00,+17.00,+0.00,+3.00
-8.00,-46.00,-25.00,-5.00,+6.00,+14.00,-1.00,+1.00,+44.00,+127.00,-8.00,-10.00,-1.00,-14.00,+1.00,+5.00
-7.00,-37.00,-21.00,-11.00,-13.00,+19.00,-18.00,-12.00,-69.00,-128.00,-38.00,-3.00,+12.00,-37.00,-14.00,-14.00
+5.00,+65.00,+14.00,-8.00,+1.00,-52.00,+7.00,+0.00,+14.00,+64.00,+11.00,-2.00,-10.00,+27.00,+10.00,+8.00
-33.00,-44.00,-20.00,-22.00,-9.00,-18.00,-13.00,-17.00,+12.00,+17.00,-1.00,-9.00,-13.00,+2.00,-8.00,-13.00
-1.00,+5.00,-11.00,+4.00,+9.00,+2.00,-3.00,-2.00,-32.00,+36.00,+65.00,+11.00,-10.00,+4.00,+13.00,+12.00
+24.00,+3.00,+86.00,+18.00,+8.00,+4.00,+2.00,+9.00,+23.00,-57.00,-79.00,-16.00,-1.00,+11.00,+4.00,+12.00
+28.00,+74.00,+55.00,+10.00,-5.00,+10.00,+17.00,+11.00,-11.00,-11.00,+20.00,+5.00,-1.00,-21.00,-9.00,-13.00
-8.00,-2.00,-9.00,-7.00,-9.00,+11.00,-5.00,-4.00,-8.00,-67.00,+26.00,+17.00,+32.00,+10.00,-1.00,-6.00
+15.00,+62.00,+24.00,-2.00,+8.00,+19.00,-11.00,+7.00,+6.00,+34.00,-6.00,-7.00,-6.00,-6.00,-14.00,-1.00
-24.00,-95.00,-40.00,-15.00,-31.00,-18.00,+6.00,-8.00,+10.00,+71.00,-5.00,-20.00,-83.00,-8.00,+4.00,+2.00
-12.00,+75.00,-23.00,-20.00,+8.00,-19.00,-12.00,-14.00,-36.00,-128.00,-82.00,-24.00,-29.00,-6.00,-9.00,+14.00
+11.00,+36.00,+66.00,+21.00,+11.00,-2.00,+14.00,+1.00,+13.00,-34.00,+51.00,+19.00,+7.00,+12.00,+6.00,-12.00
+32.00,+20.00,+6.00,+25.00,+17.00,+12.00,-1.00,+14.00,-16.00,+79.00,-10.00,+1.00,+6.00,-7.00,-15.00,-6.00
+5.00,+20.00,-21.00,+0.00,+1.00,+15.00,+1.00,+3.00,-25.00,-128.00,+8.00,+10.00,+32.00,+11.00,-3.00,-2.00
+33.00,+12.00,+60.00,+20.00,-1.00,+16.00,+18.00,+17.00,+46.00,+106.00,-14.00,-5.00,+11.00,+5.00,+10.00,-3.00
-20.00,-100.00,-87.00,-21.00,-13.00,-1.00,-1.00,-11.00,-9.00,-60.00,-15.00,-5.00,-19.00,-27.00,-18.00,+16.00
-25.00,-24.00,-28.00,-12.00,-8.00,+30.00,-7.00,-9.00,+56.00,+90.00,-24.00,-10.00,+13.00,-8.00,+2.00,-1.00
-44.00,-56.00,-8.00,-19.00,-13.00,-46.00,-22.00,-23.00,-37.00,-52.00,-39.00,-8.00,+6.00,+4.00,+3.00,-7.00
+23.00,-81.00,-80.00,+10.00,+1.00,+5.00,+4.00,+13.00,+35.00,-10.00,+39.00,+2.00,+2.00,-4.00,+5.00,+8.00
-4.00,-17.00,+0.00,-8.00,-4.00,-9.00,+0.00,-5.00,-60.00,-42.00,+2.00,+0.00,+5.00,+4.00,-5.00,-23.00
+15.00,+92.00,-3.00,-3.00,-4.00,+2.00,+7.00,+6.00,+59.00,+22.00,+20.00,+10.00,-6.00,-3.00,+11.00,+9.00
-17.00,-97.00,-51.00,-2.00,+5.00,+4.00,+2.00,+1.00,+20.00,+127.00,-5.00,-10.00,-3.00,+2.00,+1.00,+4.00
-35.00,-127.00,-53.00,-19.00,-15.00,-2.00,-11.00,-16.00,-31.00,-58.00,-41.00,-4.00,+0.00,-12.00,-14.00,-9.00
-11.00,+44.00,-22.00,-8.00,-6.00,+4.00,-14.00,-11.00,+25.00,-51.00,+11.00,+5.00,+4.00,+7.00,+7.00,+4.00
+33.00,+78.00,-25.00,+7.00,+3.00,+2.00,+26.00,+14.00,-22.00,-128.00,-86.00,-3.00,+30.00,+4.00,+7.00,+1.00
-7.00,-56.00,+24.00,-3.00,-10.00,-22.00,-8.00,-2.00,-9.00,+30.00,+69.00,-12.00,-73.00,-13.00,-19.00,-31.00
+32.00,+26.00,+40.00,+23.00,+30.00,+8.00,-5.00,+11.00,-6.00,+22.00,+69.00,+14.00,+12.00,-7.00,-5.00,-4.00
-15.00,-73.00,-51.00,-14.00,-10.00,-6.00,+4.00,-23.00,+57.00,+127.00,-66.00,-22.00,-12.00,-1.00,+6.00,+11.00
+8.00,+114.00,+89.00,+8.00,-1.00,-11.00,-5.00,+4.00,-62.00,+68.00,+76.00,+15.00,+21.00,+6.00,+6.00,-6.00
-2.00,-35.00,-69.00,+6.00,+6.00,+10.00,+11.00,+10.00,+32.00,-52.00,-33.00,+4.00,+24.00,+11.00,-5.00,+4.00
-28.00,-124.00,-109.00,-34.00,-17.00,-12.00,-8.00,-15.00,+11.00,-14.00,-47.00,+3.00,+11.00,+6.00,+14.00,+5.00
+80.00,+108.00,+96.00,+53.00,+19.00,+0.00,+12.00,+37.00,-28.00,+74.00,+33.00,+5.00,-16.00,+1.00,+0.00,-9.00
-23.00,-128.00,-89.00,-7.00,-5.00,+8.00,-9.00,-13.00,-52.00,-128.00,+16.00,+9.00,+27.00,+6.00,-1.00,-2.00
+10.00,-42.00,-22.00,-4.00,+1.00,+52.00,+6.00,+1.00,+71.00,-32.00,-56.00,-28.00,-25.00,-26.00,-10.00,-6.00
-6.00,+101.00,+3.00,-6.00,+4.00,-51.00,-5.00,-9.00,-50.00,+107.00,+121.00,+13.00,-22.00,-2.00,-2.00,-9.00
-5.00,-77.00,+97.00,+6.00,+6.00,-12.00,+3.00,+5.00,+0.00,-75.00,+0.00,+1.00,+8.00,-9.00,-10.00,-8.00
-9.00,+23.00,-68.00,-23.00,-8.00,-13.00,-13.00,-5.00,+23.00,-4.00,-83.00,-14.00,-15.00,+4.00,+5.00,+10.00
+44.00,+112.00,+69.00,+42.00,+12.00,+12.00,+5.00,+24.00,-26.00,+63.00,+36.00,+0.00,+14.00,-9.00,-16.00,-18.00
-68.00,-74.00,-63.00,-49.00,-31.00,+5.00,-15.00,-35.00,+3.00,-128.00,-15.00,+0.00,+15.00,+5.00,+4.00,+2.00
-3.00,+24.00,-83.00,+10.00,+7.00,+5.00,+5.00,+6.00,-59.00,-36.00,-41.00,+10.00,+6.00,+10.00,+13.00,+9.00
+22.00,-50.00,+11.00,+23.00,+11.00,+5.00,+11.00,+19.00,-10.00,+98.00,+104.00,+14.00,-13.00,-3.00,-7.00,-6.00
+7.00,+13.00,+6.00,-4.00,+7.00,-7.00,-1.00,-6.00,+78.00,+84.00,+11.00,-9.00,+9.00,-3.00,+1.00,+26.00
-74.00,-128.00,-4.00,-40.00,-31.00,-14.00,-16.00,-36.00,-30.00,-16.00,-97.00,-18.00,-5.00,-1.00,+1.00,-5.00
+38.00,-52.00,-87.00,+23.00,+9.00,+9.00,+9.00,+23.00,-50.00,+67.00,+20.00,-5.00,-1.00,-7.00,-15.00,-18.00
-37.00,-80.00,+16.00,-31.00,-18.00,-7.00,-12.00,-27.00,+41.00,-103.00,-55.00,+2.00,+18.00,+5.00,+5.00,+7.00
+13.00,+81.00,+65.00,+8.00,-11.00,+13.00,-3.00,+7.00,+75.00,+127.00,+9.00,+23.00,+15.00,+21.00,+19.00,+30.00
+15.00,-54.00,-79.00,+16.00,+38.00,+28.00,+24.00,+23.00,-52.00,-35.00,+75.00,-1.00,-39.00,-17.00,-12.00,-13.00
+9.00,+3.00,+80.00,-9.00,-6.00,-10.00,-7.00,-13.00,-5.00,-39.00,-51.00,-16.00,-3.00,-11.00,-4.00,-5.00
-19.00,+66.00,+65.00,-10.00,-2.00,-28.00,-7.00,-17.00,+25.00,+8.00,+21.00,+0.00,-4.00,+0.00,+2.00,-3.00
+10.00,-120.00,+19.00,-6.00,-6.00,-4.00,+7.00,+6.00,-121.00,-128.00,-4.00,+26.00,+46.00,+15.00,+7.00,-16.00
+45.00,+100.00,+97.00,+18.00,+1.00,+7.00,+10.00,+25.00,+52.00,-22.00,+82.00,+19.00,+3.00,+9.00,+9.00,+19.00
+13.00,-84.00,-13.00,+28.00,+19.00,+6.00,+7.00,+9.00,+106.00,+46.00,-7.00,-14.00,-26.00,-9.00,-5.00,+16.00
-73.00,-94.00,-68.00,-42.00,-20.00,-27.00,-16.00,-41.00,-88.00,-52.00,+99.00,+14.00,-3.00,-5.00,-7.00,-30.00
+80.00,+85.00,+48.00,+7.00,+12.00,-3.00,+5.00,+22.00,+39.00,+41.00,-33.00,-2.00,+5.00,+3.00,+7.00,+35.00
-42.00,-86.00,-68.00,+14.00,-9.00,+9.00,-5.00,-20.00,+68.00,+81.00,+13.00,-3.00,+14.00,-1.00,-2.00,-3.00
+14.00,+46.00,+65.00,-4.00,-5.00,-2.00,+0.00,+10.00,-37.00,-22.00,+15.00,+5.00,+7.00,+7.00,+1.00,-30.00
+66.00,-106.00,-23.00,+30.00,+13.00,+6.00,+18.00,+34.00,+3.00,+78.00,-18.00,-11.00,-15.00,-6.00,-3.00,+17.00
-47.00,+53.00,-6.00,-4.00,-2.00,-17.00,-9.00,-20.00,+94.00,+79.00,-37.00,-9.00,-3.00,+0.00,+10.00,+26.00
+54.00,-34.00,+59.00,+20.00,+1.00,+14.00,+6.00,+14.00,+42.00,+127.00,+37.00,-1.00,-9.00,-17.00,-17.00,-18.00
-86.00,-80.00,+12.00,-48.00,-22.00,-11.00,-25.00,-51.00,-44.00,-26.00,+36.00,+7.00,+13.00,+4.00,-4.00,-16.00
+43.00,+62.00,-42.00,+33.00,+10.00,+13.00,-1.00,+21.00,+4.00,+106.00,+3.00,-1.00,-16.00,-6.00,+1.00,+10.00
+1.00,-128.00,+5.00,-15.00,+1.00,-3.00,-1.00,-25.00,-112.00,-80.00,+39.00,+2.00,-3.00,+0.00,-11.00,-42.00
+63.00,+94.00,+3.00,+11.00,+4.00,+4.00,+10.00,+32.00,+1.00,+119.00,-28.00,-8.00,+1.00,-9.00,-7.00,+1.00
-87.00,-128.00,-128.00,-35.00,-19.00,-4.00,-9.00,-28.00,+82.00,+11.00,-38.00,-9.00,-10.00,-10.00,-6.00,+12.00
-40.00,+0.00,+106.00,-26.00,-18.00,-16.00,-21.00,-36.00,-60.00,+67.00,+16.00,+2.00,+1.00,+10.00,+8.00,-11.00
+64.00,-23.00,-27.00,+35.00,+25.00,+5.00,+23.00,+50.00,-5.00,-7.00,+8.00,+10.00,+2.00,+0.00,-1.00,+6.00
-17.00,-23.00,+101.00,+5.00,-2.00,+0.00,-4.00,-17.00,-9.00,-47.00,-52.00,-6.00,+2.00,-3.00,+0.00,-1.00
-24.00,-86.00,-45.00,-27.00,-15.00,-6.00,-7.00,-5.00,-50.00,+3.00,+69.00,+2.00,-3.00,-5.00,-3.00,-7.00
-4.00,+93.00,-21.00,-51.00,-17.00,-6.00,-4.00,-14.00,+123.00,+87.00,-57.00,-15.00,-13.00,-3.00,-3.00,-1.00
-30.00,-52.00,-65.00,+8.00,+6.00,-4.00,-4.00,-4.00,+56.00,+119.00,+7.00,-14.00,-14.00,-15.00,-15.00,-12.00
-91.00,-104.00,-65.00,-66.00,-37.00,-19.00,-24.00,-44.00,-87.00,-71.00,-59.00,-6.00,+14.00,+15.00,+12.00,-7.00
+101.00,+38.00,+38.00,+83.00,+38.00,+34.00,+36.00,+70.00,-61.00,-67.00,-34.00,+5.00,+1.00,+2.00,+1.00,-3.00
-15.00,-73.00,-24.00,-5.00,-2.00,-1.00,-4.00,-6.00,+19.00,+65.00,-21.00,-26.00,-27.00,-24.00,-21.00,-2.00
-101.00,-108.00,-76.00,-82.00,-46.00,-37.00,-41.00,-74.00,+45.00,+74.00,+50.00,+7.00,+10.00,+11.00,+14.00,+8.00
+117.00,+66.00,+122.00,+76.00,+29.00,+23.00,+33.00,+67.00,+113.00,+66.00,+1.00,-1.00,-8.00,-11.00,-10.00,+7.00
-71.00,-102.00,-109.00,-54.00,-24.00,-20.00,-31.00,-53.00,-58.00,-60.00,+39.00,+11.00,+11.00,+9.00,+5.00,-12.00
+114.00,+62.00,-34.00,+64.00,+28.00,+19.00,+29.00,+53.00,+29.00,+27.00,+3.00,-8.00,+3.00,+5.00,+6.00,-3.00
+78.00,+92.00,+43.00,+17.00,+15.00,+8.00,+8.00,+18.00,+70.00,+81.00,+61.00,-8.00,-19.00,-21.00,-22.00,-2.00
-128.00,-115.00,-123.00,-92.00,-42.00,-32.00,-41.00,-74.00,-3.00,-72.00,-46.00,+4.00,+12.00,+14.00,+17.00,+1.00
+70.00,+42.00,-67.00,+31.00,+12.00,+16.00,+21.00,+43.00,+89.00,+29.00,+52.00,+6.00,+15.00,+12.00,+12.00,+17.00
+29.00,+59.00,+120.00,+58.00,+25.00,+15.00,+14.00,+21.00,-25.00,+35.00,-40.00,-14.00,-11.00,-5.00,-3.00,+7.00
-55.00,-100.00,-10.00,-1.00,-6.00,-6.00,-7.00,-12.00,+55.00,+22.00,+31.00,-4.00,-6.00,-7.00,-3.00,+15.00
-33.00,-35.00,-15.00,-23.00,-11.00,-8.00,-8.00,-20.00,+1.00,-53.00,+44.00,+29.00,+15.00,+11.00,+11.00,+16.00
+87.00,+127.00,+102.00,-2.00,+11.00,+12.00,+14.00,+30.00,+38.00,-44.00,-52.00,-8.00,-6.00,-6.00,-6.00,-4.00
-69.00,-128.00,-47.00,-30.00,-14.00,-10.00,-13.00,-26.00,+23.00,-120.00,-14.00,-5.00,-1.00,-1.00,-2.00,-18.00
+0.00,-60.00,+40.00,+27.00,+7.00,-1.00,+6.00,+14.00,+2.00,-128.00,-86.00,+2.00,+7.00,+7.00,+8.00,+11.00
+9.00,+47.00,+127.00,+19.00,+8.00,+4.00,+1.00,-5.00,-46.00,+105.00,-2.00,-25.00,-22.00,-21.00,-23.00,-1.00
-128.00,-124.00,-68.00,-96.00,-52.00,-36.00,-44.00,-79.00,+60.00,+97.00,+56.00,+45.00,+21.00,+15.00,+2.00,-13.00
+42.00,-127.00,+27.00,+48.00,+29.00,+22.00,+19.00,+23.00,+99.00,+117.00,-2.00,-6.00,-4.00,+5.00,+10.00,+35.00
+21.00,-85.00,-86.00,-12.00,+2.00,+5.00,+7.00,+23.00,-85.00,+75.00,-77.00,-23.00,-10.00,-6.00,-4.00,-18.00
-12.00,-61.00,-79.00,-26.00,-15.00,-8.00,-8.00,-8.00,-27.00,+44.00,+1.00,-3.00,+13.00,+13.00,+8.00,-17.00
+82.00,+62.00,-31.00,+94.00,+47.00,+27.00,+31.00,+59.00,+19.00,+89.00,+23.00,-17.00,-14.00,-13.00,-8.00,+4.00
-76.00,-68.00,-114.00,-62.00,-28.00,-21.00,-23.00,-44.00,+51.00,-115.00,-108.00,-15.00,-10.00,-9.00,-6.00,-4.00
-10.00,+57.00,+48.00,-19.00,-20.00,-15.00,-11.00,-19.00,-116.00,-52.00,+53.00,+21.00,+8.00,+3.00,-3.00,-13.00
-4.00,+91.00,-64.00,+4.00,+5.00,+6.00,+2.00,-1.00,+3.00,-53.00,-34.00,-5.00,+7.00,+10.00,+13.00,+16.00
+55.00,+61.00,-19.00,+25.00,+15.00,+12.00,+14.00,+41.00,+14.00,+88.00,-60.00,-13.00,-4.00,+1.00,+3.00,+20.00
-21.00,-25.00,-15.00,+2.00,-4.00,-4.00,-4.00,-4.00,-58.00,-26.00,+79.00,+1.00,-10.00,-16.00,-19.00,-30.00
-33.00,-6.00,-31.00,-35.00,-22.00,-18.00,-16.00,-22.00,-5.00,+17.00,+66.00,+9.00,+18.00,+16.00,+17.00,+14.00
+63.00,-107.00,-121.00,+62.00,+45.00,+29.00,+30.00,+53.00,+30.00,+19.00,+22.00,-4.00,-11.00,-13.00,-16.00,-14.00
-71.00,-37.00,+56.00,-33.00,-22.00,-17.00,-23.00,-49.00,-88.00,-82.00,-66.00,-27.00,-13.00,-11.00,-5.00,+1.00
-49.00,+8.00,-60.00,-31.00,-20.00,-15.00,-10.00,-23.00,-67.00,-68.00,+119.00,+67.00,+31.00,+23.00,+17.00,+11.00
+13.00,-104.00,-66.00,+36.00,+40.00,+29.00,+24.00,+41.00,-21.00,-88.00,-100.00,-4.00,-3.00,-3.00,-6.00,+4.00
-30.00,+38.00,+31.00,-16.00,-15.00,-8.00,-8.00,-16.00,-45.00,+45.00,+2.00,-5.00,-10.00,-16.00,-17.00,-20.00
-8.00,-30.00,-10.00,-40.00,-25.00,-17.00,-17.00,-30.00,-66.00,-33.00,-36.00,-19.00,-6.00,-3.00,+0.00,+12.00
-1.00,-22.00,-128.00,-22.00,-4.00,+0.00,-3.00,-1.00,+91.00,+117.00,-100.00,-26.00,-16.00,-12.00,-13.00,-3.00
-89.00,-75.00,-66.00,-25.00,-21.00,-17.00,-23.00,-46.00,-66.00,-101.00,+3.00,+20.00,+11.00,+12.00,+8.00,-17.00
+77.00,-38.00,+18.00,+50.00,+24.00,+19.00,+23.00,+48.00,+32.00,-46.00,+63.00,+7.00,+3.00,-2.00,-2.00,-2.00
-22.00,+27.00,+27.00,+4.00,+1.00,+2.00,-4.00,-6.00,+13.00,-32.00,-47.00,-7.00,-10.00,-9.00,-4.00,+12.00
-33.00,+77.00,+22.00,-38.00,-28.00,-18.00,-16.00,-25.00,-50.00,-110.00,+22.00,+15.00,+10.00,+8.00,+7.00,-1.00
+41.00,+127.00,+81.00,+24.00,+15.00,+9.00,+14.00,+22.00,+52.00,+127.00,-15.00,-15.00,-6.00,-6.00,-9.00,+0.00
-27.00,-113.00,-93.00,-18.00,-10.00,-9.00,-13.00,-19.00,-50.00,-115.00,-38.00,-2.00,+2.00,+4.00,+7.00,+1.00
+9.00,+45.00,+28.00,+26.00,+10.00,+8.00,+9.00,+14.00,+59.00,+127.00,-34.00,-13.00,-4.00,-2.00,+3.00,+8.00
-21.00,-116.00,-27.00,+2.00,-3.00,-3.00,-5.00,-9.00,-76.00,-86.00,+13.00,+36.00,+17.00,+12.00,+8.00,-8.00
+88.00,+17.00,+81.00,+50.00,+22.00,+16.00,+16.00,+32.00,+36.00,-83.00,+43.00,+7.00,+9.00,+12.00,+9.00,+8.00
+53.00,+95.00,+7.00,+27.00,+21.00,+14.00,+14.00,+28.00,+44.00,+48.00,-84.00,-30.00,-15.00,-7.00,-6.00,+11.00
-42.00,-108.00,-70.00,-37.00,-17.00,-11.00,-8.00,-18.00,+77.00,+38.00,-72.00,-8.00,-5.00,-4.00,-1.00,+15.00
-57.00,-40.00,+39.00,+12.00,-6.00,-7.00,-9.00,-3.00,+31.00,+68.00,+42.00,-8.00,-4.00,+0.00,+8.00,+5.00
+34.00,+52.00,+31.00,+16.00,+8.00,+6.00,+11.00,+25.00,+43.00,+80.00,-13.00,-15.00,-11.00,-11.00,-11.00,-12.00
-91.00,-79.00,-44.00,-28.00,-21.00,-15.00,-17.00,-36.00,+8.00,+10.00,-9.00,+3.00,+4.00,+5.00,+2.00,+5.00
+66.00,+11.00,+54.00,+5.00,+2.00,+3.00,+6.00,+21.00,-72.00,-121.00,-49.00,-4.00,+3.00,+4.00,+1.00,-28.00
+53.00,+1.00,+38.00,+39.00,+16.00,+9.00,+12.00,+17.00,-24.00,-45.00,+21.00,+2.00,-5.00,-7.00,-6.00,+5.00
-21.00,+54.00,+49.00,-28.00,-10.00,-7.00,-11.00,-26.00,+5.00,+49.00,+34.00,+4.00,-4.00,-6.00,-5.00,-16.00
-16.00,-4.00,+8.00,-15.00,-10.00,-5.00,-5.00,+4.00,+40.00,+43.00,-34.00,-3.00,+1.00,+3.00,+6.00,+22.00
-62.00,-7.00,-60.00,+19.00,+7.00,+3.00,-2.00,-10.00,-108.00,-3.00,+44.00,+31.00,+14.00,+8.00,+0.00,-30.00
+49.00,+76.00,+42.00,+19.00,+12.00,+8.00,+9.00,+16.00,-76.00,-107.00,-75.00,-36.00,-10.00,-6.00,-9.00,-17.00
-6.00,-75.00,-22.00,+7.00,+0.00,-3.00,-3.00,-5.00,-73.00,-92.00,-24.00,-19.00,-14.00,-13.00,-13.00,-20.00
+0.00,+81.00,-4.00,-32.00,-21.00,-14.00,-13.00,-25.00,-53.00,-24.00,-30.00,-8.00,+2.00,-3.00,-4.00,-12.00
+7.00,+5.00,-14.00,-4.00,-5.00,-5.00,+0.00,+0.00,+112.00,+92.00,-2.00,-12.00,-8.00,-4.00,-2.00,+18.00
-34.00,-89.00,-8.00,-8.00,-6.00,-4.00,-2.00,-2.00,+18.00,+16.00,-15.00,+1.00,-1.00,+3.00,+3.00,+5.00
-4.00,+49.00,-45.00,+5.00,+1.00,+0.00,+0.00,+4.00,-10.00,-78.00,-65.00,+5.00,+7.00,+8.00,+8.00,+7.00
+54.00,+31.00,+8.00,+12.00,+10.00,+9.00,+12.00,+19.00,-6.00,-6.00,-61.00,-33.00,-21.00,-16.00,-14.00,-14.00
-41.00,+11.00,+86.00,-44.00,-26.00,-19.00,-19.00,-12.00,+98.00,-2.00,-21.00,+1.00,+5.00,+7.00,+7.00,+19.00
+33.00,+17.00,-1.00,+26.00,+14.00,+10.00,+15.00,+23.00,+101.00,+86.00,+107.00,+36.00,+16.00,+14.00,+16.00,+23.00
+55.00,-57.00,+9.00,+23.00,+19.00,+15.00,+14.00,+27.00,+1.00,+39.00,+4.00,-19.00,-13.00,-10.00,-7.00,-2.00
-46.00,-99.00,+35.00,-22.00,-13.00,-8.00,-12.00,-27.00,+64.00,+59.00,+61.00,+19.00,+4.00,+1.00,-6.00,-15.00
-13.00,-86.00,-37.00,+3.00,+4.00,+2.00,-2.00,-12.00,-36.00,-81.00,+57.00,+20.00,+7.00,+5.00,+6.00,+13.00
+19.00,-13.00,+23.00,-1.00,+3.00,+3.00,+5.00,+7.00,+9.00,-57.00,-68.00,-15.00,+3.00,+8.00,+13.00,+14.00
+34.00,+97.00,+47.00,+33.00,+15.00,+11.00,+20.00,+41.00,-2.00,+86.00,-12.00,+13.00,+9.00,+8.00,+6.00,+7.00
+36.00,+32.00,-26.00,+19.00,+16.00,+10.00,+10.00,+21.00,-64.00,+84.00,+4.00,+10.00,+7.00,+5.00,+5.00,-1.00
+33.00,+19.00,-26.00,+22.00,+9.00,+5.00,+6.00,+8.00,+31.00,-50.00,+48.00,-8.00,-10.00,-11.00,-12.00,-6.00
-89.00,-87.00,-68.00,-44.00,-23.00,-14.00,-23.00,-43.00,-113.00,-78.00,-118.00,-27.00,-12.00,-11.00,-12.00,-11.00
-29.00,-45.00,-55.00,-19.00,-16.00,-11.00,-12.00,-23.00,-22.00,-69.00,+60.00,+21.00,+11.00,+9.00,+10.00,+1.00
+27.00,-9.00,+24.00,+36.00,+16.00,+11.00,+11.00,+18.00,+61.00,-27.00,-58.00,-15.00,-7.00,-3.00,-3.00,+0.00
-34.00,-95.00,-57.00,-16.00,-8.00,-7.00,-9.00,-14.00,-66.00,+77.00,-2.00,+9.00,+4.00,+7.00,+12.00,+17.00
+76.00,+47.00,+22.00,+25.00,+15.00,+9.00,+16.00,+29.00,-100.00,+98.00,+21.00,-6.00,-7.00,-12.00,-21.00,-54.00
-56.00,-59.00,-123.00,-36.00,-17.00,-13.00,-14.00,-28.00,-29.00,-80.00,-46.00,-15.00,-3.00,+0.00,+2.00,+10.00
+9.00,+38.00,+68.00,+3.00,+6.00,+4.00,+2.00,-5.00,+20.00,+127.00,+8.00,+4.00,-2.00,-1.00,+0.00,+6.00
-14.00,-64.00,-25.00,+3.00,-1.00,+1.00,-3.00,-1.00,-32.00,+44.00,-16.00,-17.00,-11.00,-12.00,-12.00,-22.00
-20.00,+72.00,-72.00,-36.00,-22.00,-15.00,-13.00,-12.00,+42.00,+50.00,+109.00,+15.00,+4.00,+4.00,+5.00,+11.00
+7.00,+18.00,-34.00,-2.00,+7.00,+7.00,+8.00,+19.00,+3.00,+53.00,-4.00,-1.00,+1.00,+2.00,-1.00,-2.00
-2.00,-38.00,+25.00,+22.00,+3.00,+0.00,+0.00,+2.00,-20.00,-127.00,-5.00,-3.00,-3.00,-4.00,-6.00,-8.00
-4.00,+35.00,+19.00,-8.00,-7.00,-7.00,-6.00,-11.00,+63.00,+32.00,+34.00,+4.00,-1.00,-4.00,-7.00,+2.00
-23.00,-77.00,-11.00,-21.00,-8.00,-4.00,-5.00,-16.00,-22.00,-94.00,-30.00,-15.00,-9.00,-10.00,-10.00,-3.00
-43.00,-77.00,-74.00,-14.00,-10.00,-10.00,-12.00,-26.00,+70.00,-6.00,-39.00,+8.00,+3.00,+2.00,+0.00,+4.00
-9.00,-68.00,-9.00,-2.00,-4.00,-2.00,-3.00,-7.00,+4.00,-33.00,+14.00,+3.00,+0.00,+0.00,+4.00,+7.00
-10.00,+10.00,+76.00,+4.00,+1.00,+1.00,-1.00,-6.00,-4.00,+127.00,+101.00,+25.00,+6.00,+0.00,-2.00,-12.00
+17.00,+72.00,+75.00,+8.00,+6.00,+3.00,+1.00,+6.00,+35.00,+56.00,-31.00,-7.00,-2.00,+0.00,+1.00,+5.00
-52.00,-117.00,-61.00,-2.00,+0.00,-1.00,-5.00,-9.00,-1.00,-42.00,-33.00,-13.00,-7.00,-6.00,-4.00,-8.00
-40.00,+59.00,+36.00,-6.00,-9.00,-8.00,-8.00,-13.00,-34.00,-58.00,-53.00,-13.00,-7.00,-7.00,-6.00,+3.00
-30.00,-126.00,-46.00,-23.00,-14.00,-10.00,-7.00,-14.00,-30.00,-103.00,+82.00,+34.00,+18.00,+13.00,+9.00,-6.00
+65.00,+86.00,+103.00,+51.00,+31.00,+22.00,+19.00,+34.00,-35.00,-25.00,-23.00,-5.00,-5.00,-3.00,-1.00,-1.00
-23.00,+66.00,-19.00,-11.00,-7.00,-6.00,-11.00,-18.00,+44.00,-16.00,-27.00,-9.00,-6.00,-5.00,-2.00,+11.00
-38.00,-24.00,+32.00,-11.00,-9.00,-7.00,-8.00,-13.00,-71.00,-58.00,+13.00,+7.00,+4.00,+2.00,+1.00,+1.00
+64.00,+95.00,-30.00,+10.00,+7.00,+3.00,+8.00,+16.00,+18.00,+15.00,+8.00,-9.00,-4.00,-4.00,-9.00,-24.00
-31.00,-17.00,+4.00,-17.00,-10.00,-4.00,-7.00,-6.00,+79.00,+76.00,-61.00,-31.00,-18.00,-13.00,-9.00,+2.00
-44.00,-76.00,-10.00,-18.00,-20.00,-16.00,-17.00,-28.00,-72.00,+99.00,-24.00,-18.00,-7.00,-8.00,-8.00,-28.00
-14.00,-91.00,-113.00,+1.00,-5.00,-3.00,-1.00,+0.00,-9.00,-58.00,+65.00,+21.00,+6.00,+2.00,-2.00,-1.00
+7.00,+66.00,+86.00,+19.00,+11.00,+4.00,+2.00,-1.00,+39.00,+61.00,-99.00,-9.00,+3.00,+6.00,+9.00,+22.00
+19.00,-45.00,-33.00,+31.00,+12.00,+6.00,+7.00,+5.00,-46.00,-17.00,-57.00,-6.00,-2.00,+0.00,+1.00,-2.00
+16.00,+4.00,+24.00,+2.00,-1.00,-4.00,-2.00,-2.00,+7.00,+36.00,+43.00,-6.00,-10.00,-10.00,-12.00,-12.00
-18.00,+0.00,-26.00,-22.00,-16.00,-12.00,-10.00,-16.00,+14.00,-74.00,-11.00,-11.00,-3.00,-3.00,+2.00,+1.00
-24.00,-24.00,-39.00,-8.00,-5.00,-2.00,-2.00,-3.00,-26.00,-7.00,+28.00,+1.00,+0.00,+0.00,-3.00,-6.00
+6.00,+31.00,-14.00,-4.00,+3.00,+2.00,+1.00,+1.00,+56.00,+34.00,-42.00,-19.00,-14.00,-12.00,-13.00,-8.00
-65.00,-97.00,+10.00,-27.00,-17.00,-15.00,-19.00,-31.00,-38.00,-35.00,+74.00,+25.00,+11.00,+8.00,+6.00,+5.00
+70.00,+68.00,+83.00,+21.00,+12.00,+9.00,+12.00,+25.00,-65.00,+127.00,+77.00,+36.00,+19.00,+16.00,+15.00,+3.00
+96.00,+30.00,-29.00,+35.00,+31.00,+24.00,+26.00,+44.00,-22.00,-76.00,-24.00,-6.00,+0.00,+0.00,+2.00,-4.00
+11.00,-14.00,-1.00,+8.00,+2.00,+2.00,+1.00,+5.00,+27.00,-13.00,-55.00,-23.00,-11.00,-11.00,-7.00,+8.00
-57.00,-95.00,-32.00,-31.00,-23.00,-15.00,-15.00,-16.00,-63.00,-68.00,-11.00,-3.00,+3.00,+4.00,+8.00,+7.00
+75.00,+101.00,+70.00,+34.00,+19.00,+10.00,+19.00,+36.00,-41.00,+127.00,+92.00,+38.00,+20.00,+12.00,+5.00,-21.00
+39.00,-71.00,+58.00,+42.00,+28.00,+19.00,+12.00,+21.00,+1.00,+111.00,+11.00,-13.00,-13.00,-12.00,-10.00,-2.00
-60.00,-128.00,-72.00,-47.00,-23.00,-14.00,-19.00,-33.00,+32.00,-30.00,-45.00,+7.00,+14.00,+14.00,+16.00,+6.00
+95.00,+127.00,-18.00,+44.00,+24.00,+20.00,+27.00,+48.00,-39.00,+16.00,+75.00,+20.00,+2.00,-3.00,-9.00,-19.00
-34.00,+12.00,-29.00,-14.00,-8.00,-7.00,-11.00,-19.00,+42.00,-89.00,-99.00,-51.00,-19.00,-11.00,-6.00,+4.00
-31.00,+11.00,-1.00,-20.00,-17.00,-12.00,-9.00,-11.00,+12.00,+15.00,-13.00,-18.00,-9.00,-9.00,-8.00,-2.00
-61.00,-109.00,-76.00,-21.00,-14.00,-12.00,-12.00,-26.00,+41.00,+127.00,+127.00,+39.00,+8.00,+1.00,-7.00,-9.00
+10.00,-37.00,+33.00,-17.00,+1.00,+0.00,+0.00,-6.00,-23.00,-59.00,+46.00,+16.00,+8.00,+7.00,+6.00,-1.00
+24.00,-44.00,-42.00,-4.00,+9.00,+9.00,+6.00,+13.00,+74.00,+28.00,-61.00,-9.00,-5.00,-3.00,+2.00,+16.00
-39.00,-73.00,-64.00,-2.00,-5.00,-2.00,-3.00,+2.00,+36.00,-102.00,-46.00,-1.00,+1.00,+2.00,+3.00,+9.00
+17.00,+9.00,+29.00,+12.00,+1.00,+0.00,+3.00,+8.00,+6.00,-2.00,-22.00,-3.00,-3.00,-2.00,+0.00,+13.00
-23.00,-4.00,-22.00,-6.00,-5.00,-3.00,-3.00,-8.00,-6.00,-25.00,-11.00,-2.00,-2.00,-1.00,-3.00,-3.00
+17.00,+9.00,-73.00,-12.00,-3.00,-2.00,+1.00,+6.00,+19.00,+66.00,+63.00,+11.00,-2.00,-3.00,-4.00,-8.00
-4.00,-42.00,-4.00,-10.00,-2.00,-2.00,-4.00,-6.00,-30.00,+74.00,-24.00,-23.00,-17.00,-14.00,-13.00,-8.00
-43.00,+27.00,+20.00,-38.00,-23.00,-17.00,-18.00,-31.00,-28.00,-39.00,+80.00,+44.00,+24.00,+18.00,+14.00,-4.00
+55.00,-47.00,+76.00,+48.00,+31.00,+22.00,+22.00,+41.00,+49.00,-44.00,-50.00,+6.00,+6.00,+8.00,+10.00,+20.00
-4.00,-55.00,+41.00,+18.00,+13.00,+10.00,+7.00,+8.00,+3.00,+16.00,+7.00,+1.00,-6.00,-6.00,-8.00,-13.00
-29.00,-25.00,+16.00,-28.00,-14.00,-9.00,-10.00,-22.00,+2.00,-34.00,-43.00,-3.00,-5.00,+0.00,+1.00,+4.00
-10.00,+94.00,+41.00,+4.00,-5.00,-2.00,-4.00,-3.00,-71.00,-1.00,+80.00,-7.00,-10.00,-13.00,-16.00,-30.00
+13.00,+71.00,+57.00,-46.00,-20.00,-11.00,-7.00,-12.00,-48.00,+72.00,-47.00,-11.00,-3.00,-3.00,-5.00,-23.00
+45.00,+75.00,-76.00,+3.00,+1.00,+0.00,+0.00,+11.00,+91.00,-91.00,-86.00,-12.00,+0.00,+0.00,+3.00,+26.00
-34.00,+13.00,-20.00,+9.00,+0.00,+0.00,-4.00,-15.00,+10.00,+69.00,+46.00,+17.00,+10.00,+8.00,+9.00,+9.00
+32.00,-15.00,+39.00,+36.00,+18.00,+10.00,+12.00,+23.00,-17.00,-104.00,-69.00,-14.00,-4.00,-2.00,+2.00,+3.00
+17.00,+110.00,-40.00,-7.00,-5.00,-4.00,-4.00,-3.00,+70.00,+93.00,-39.00,-12.00,-8.00,-4.00,-3.00,+9.00
-46.00,-105.00,-44.00,-9.00,-9.00,-10.00,-10.00,-20.00,-110.00,-71.00,+29.00,+17.00,+10.00,+7.00,+9.00,-10.00
+91.00,+82.00,+106.00,+33.00,+22.00,+13.00,+18.00,+39.00,-5.00,-12.00,-42.00,-11.00,-6.00,-5.00,-5.00,-6.00
-21.00,-88.00,-68.00,-12.00,-11.00,-7.00,-8.00,-12.00,+62.00,+67.00,+47.00,+15.00,+5.00,+0.00,-2.00,+2.00
-13.00,-63.00,-69.00,+4.00,+5.00,+1.00,+0.00,-2.00,-33.00,-97.00,+67.00,+19.00,+6.00,+4.00,-1.00,-14.00
+17.00,-20.00,+94.00,+12.00,+6.00,+8.00,+8.00,+18.00,+39.00,+98.00,+35.00,+0.00,-2.00,-2.00,+1.00,+20.00
+8.00,+51.00,-64.00,-21.00,-8.00,-6.00,-6.00,-11.00,+8.00,-128.00,+43.00,+21.00,+13.00,+12.00,+14.00,+19.00
+34.00,+33.00,-11.00,+36.00,+27.00,+19.00,+17.00,+28.00,+25.00,+52.00,-44.00,-16.00,-8.00,-5.00,-3.00,-1.00
-52.00,-109.00,-12.00,-1.00,-8.00,-6.00,-7.00,-11.00,+45.00,+113.00,+7.00,-2.00,-4.00,-7.00,-2.00,+6.00
-2.00,-49.00,-39.00,-18.00,-10.00,-6.00,-4.00,-7.00,+13.00,-3.00,+13.00,-3.00,-3.00,-2.00,-4.00,-14.00
-6.00,-6.00,-15.00,-17.00,-6.00,-5.00,-2.00,-3.00,+0.00,-33.00,-20.00,-2.00,-1.00,-3.00,-4.00,-6.00
-16.00,-24.00,-36.00,-6.00,-1.00,-3.00,-3.00,-9.00,-54.00,+71.00,+93.00,+36.00,+9.00,+3.00,+0.00,-5.00
+42.00,-8.00,+73.00,+1.00,+5.00,+5.00,+7.00,+6.00,+17.00,+61.00,-27.00,-9.00,-3.00,-4.00,-7.00,-7.00
-23.00,-54.00,-10.00,-3.00,-1.00,-1.00,-4.00,-9.00,-4.00,-59.00,-46.00,-8.00,-5.00,-4.00,-5.00,-5.00
-37.00,+9.00,+6.00,-4.00,-9.00,-5.00,-8.00,-15.00,+0.00,-53.00,-14.00,-7.00,-3.00,-2.00,-2.00,-4.00
+24.00,+6.00,-5.00,+2.00,+2.00,+1.00,+4.00,+12.00,-18.00,+12.00,+33.00,+1.00,-2.00,-1.00,-2.00,+8.00
-18.00,+41.00,-44.00,-4.00,-2.00,-6.00,-7.00,-13.00,+58.00,+68.00,-80.00,-33.00,-16.00,-11.00,-3.00,+21.00
-73.00,-114.00,-92.00,-38.00,-28.00,-24.00,-23.00,-41.00,-79.00,+126.00,+125.00,+20.00,+5.00,+1.00,-6.00,-31.00
+34.00,+12.00,-1.00,+31.00,+16.00,+8.00,+10.00,+24.00,-1.00,-47.00,-15.00,+0.00,+3.00,+3.00,+4.00,+5.00
-3.00,-3.00,+19.00,+10.00,+5.00,+5.00,+2.00,+5.00,-5.00,-103.00,-88.00,-12.00,-1.00,+1.00,+2.00,+9.00
-16.00,-26.00,+19.00,+4.00,-1.00,+0.00,-3.00,-4.00,+11.00,+53.00,+22.00,+2.00,-1.00,-2.00,+0.00,-4.00
+11.00,+33.00,-8.00,-6.00,+1.00,+1.00,-1.00,+2.00,+39.00,-68.00,-63.00,-18.00,-14.00,-8.00,-8.00,+2.00
-56.00,-79.00,-46.00,-30.00,-18.00,-12.00,-15.00,-29.00,+39.00,+99.00,-20.00,-12.00,-7.00,-7.00,-6.00,-6.00
-26.00,-7.00,-71.00,-16.00,-12.00,-11.00,-8.00,-13.00,-79.00,-110.00,-113.00,-25.00,-8.00,-4.00,-5.00,-14.00
+17.00,+58.00,+107.00,+13.00,-1.00,-2.00,+4.00,+11.00,-49.00,-43.00,+76.00,+43.00,+24.00,+20.00,+18.00,+1.00
+76.00,+78.00,+106.00,+55.00,+36.00,+27.00,+28.00,+55.00,-3.00,+22.00,+63.00,+20.00,+5.00,+0.00,-4.00,-8.00
-33.00,-97.00,-20.00,-11.00,-2.00,+0.00,-2.00,-8.00,+2.00,+63.00,-10.00,-2.00,-3.00,-1.00,+0.00,+3.00
+2.00,+23.00,+20.00,+3.00,+1.00,+1.00,+2.00,+3.00,-13.00,+20.00,+36.00,+11.00,+4.00,+0.00,+0.00,+1.00
+10.00,-19.00,-1.00,-9.00,-1.00,+0.00,+0.00,+2.00,-11.00,-101.00,-7.00,-7.00,-2.00,-4.00,-4.00,+1.00
-11.00,-14.00,-21.00,-8.00,-6.00,-2.00,-5.00,-11.00,+18.00,-20.00,-41.00,-14.00,-11.00,-8.00,-9.00,-8.00
-59.00,-77.00,-15.00,-18.00,-12.00,-11.00,-13.00,-22.00,-5.00,-78.00,-63.00,-22.00,-8.00,-3.00,+9.00,+3.00
+90.00,+51.00,-50.00,+12.00,+11.00,+4.00,+23.00,+36.00,-36.00,+97.00,+91.00,+24.00,+11.00,+16.00,+3.00,-7.00
+41.00,-88.00,-77.00,+19.00,+17.00,+12.00,-2.00,-1.00,+3.00,+3.00,-18.00,-7.00,-2.00,-3.00,-6.00,-13.00
-15.00,-112.00,+15.00,+0.00,-4.00,-2.00,-2.00,-1.00,+27.00,+7.00,-1.00,-1.00,+1.00,+1.00,+1.00,+5.00
-1.00,-12.00,-30.00,-4.00,-5.00,-4.00,-3.00,-1.00,+21.00,+51.00,-28.00,-13.00,-6.00,-7.00,-10.00,-3.00
-58.00,-60.00,-20.00,-30.00,-18.00,-12.00,-16.00,-28.00,+26.00,-60.00,-47.00,-13.00,-8.00,-4.00,-1.00,-2.00
-12.00,+33.00,-25.00,-4.00,-7.00,-3.00,+2.00,-6.00,+18.00,-11.00,-7.00,+6.00,+13.00,+5.00,+7.00,+13.00
+16.00,+29.00,-5.00,+15.00,+5.00,+2.00,+4.00,+5.00,-7.00,-82.00,-54.00,-8.00,-1.00,-2.00,-1.00,+4.00
-15.00,+9.00,+9.00,-10.00,-9.00,-8.00,-7.00,-9.00,-30.00,-37.00,+28.00,-1.00,-10.00,-5.00,-4.00,-10.00
+2.00,+2.00,+13.00,-3.00,+2.00,-1.00,-1.00,-4.00,+50.00,+50.00,+20.00,-12.00,-12.00,-11.00,-5.00,+4.00
-17.00,-21.00,+50.00,-21.00,-9.00,-8.00,-5.00,-6.00,-68.00,+52.00,+3.00,+3.00,+1.00,+2.00,-2.00,-8.00
+4.00,-48.00,+21.00,+19.00,+11.00,+5.00,+1.00,+3.00,+36.00,+127.00,+31.00,+0.00,+5.00,-1.00,-2.00,-1.00
-2.00,-48.00,-19.00,+4.00,-1.00,-2.00,+0.00,+1.00,+39.00,+94.00,+36.00,+13.00,+12.00,+8.00,+7.00,+14.00
+7.00,-37.00,+35.00,+10.00,+7.00,+9.00,+3.00,+5.00,+47.00,+37.00,-15.00,+1.00,+1.00,+0.00,+1.00,+7.00
-10.00,-2.00,-34.00,-4.00,-7.00,-3.00,-1.00,+1.00,+28.00,-58.00,-64.00,-21.00,-10.00,-9.00,-7.00,+8.00
-52.00,-7.00,-33.00,-25.00,-16.00,-20.00,-13.00,-27.00,-20.00,-94.00,-3.00,+3.00,-8.00,+3.00,+4.00,+0.00
+24.00,+52.00,+9.00,-2.00,-4.00,+4.00,+6.00,+5.00,-31.00,+45.00,+28.00,+14.00,+19.00,+4.00,-3.00,-14.00
+6.00,-31.00,-11.00,+8.00,+9.00,+34.00,+1.00,+4.00,-23.00,+33.00,-25.00,-29.00,-13.00,-17.00,-15.00,-8.00
-60.00,-85.00,-69.00,-50.00,-30.00,-40.00,-23.00,-38.00,+21.00,-60.00,+31.00,+16.00,+11.00,+7.00,+2.00,+2.00
+12.00,-69.00,+27.00,+6.00,-6.00,+9.00,+8.00,+10.00,-5.00,+39.00,-4.00,+10.00,+15.00,+9.00,+9.00,+0.00
+16.00,-7.00,-6.00,+10.00,+4.00,+29.00,+11.00,+11.00,-19.00,-32.00,+17.00,+8.00,-17.00,+6.00,-14.00,-11.00
+3.00,-3.00,+15.00,+2.00,-9.00,-5.00,+7.00,-3.00,+41.00,-29.00,-7.00,-13.00,-54.00,-43.00,-4.00,+7.00
+0.00,+41.00,+15.00,+7.00,+21.00,-26.00,-3.00,+11.00,+73.00,-91.00,-14.00,-33.00,-51.00,-13.00,-18.00,-10.00
-2.00,+81.00,+0.00,-2.00,+19.00,+14.00,-13.00,-11.00,+124.00,-67.00,-96.00,-34.00,-5.00,-5.00,+5.00,+4.00
-39.00,-68.00,-89.00,-20.00,-13.00,-12.00,-21.00,-32.00,+93.00,+15.00,+67.00,+5.00,+9.00,-9.00,+15.00,-25.00
-64.00,-94.00,-54.00,-19.00,-14.00,-10.00,-33.00,-9.00,+7.00,-128.00,+2.00,+33.00,+50.00,+14.00,-4.00,+18.00
+74.00,+37.00,+59.00,+35.00,+12.00,+37.00,+75.00,+30.00,-29.00,+70.00,+9.00,+6.00,+6.00,+11.00,+62.00,+10.00
-11.00,-14.00,-24.00,-12.00,-11.00,-12.00,-24.00,+7.00,-62.00,+16.00,-20.00,-2.00,+0.00,-24.00,-34.00,+7.00
-5.00,+16.00,+14.00,+7.00,-2.00,+3.00,-11.00,+5.00,-93.00,-21.00,-19.00,+8.00,+0.00,+17.00,+40.00,-1.00
-8.00,-21.00,-17.00,-12.00,-5.00,+4.00,+2.00,-17.00,-56.00,-9.00,-20.00,-12.00,+14.00,-6.00,-1.00,+10.00
-2.00,-6.00,-2.00,+19.00,+21.00,-21.00,-48.00,-2.00,-69.00,-30.00,+1.00,-6.00,-14.00,+1.00,-70.00,-22.00
+2.00,+6.00,-11.00,+6.00,+5.00,-1.00,+37.00,+11.00,-53.00,+107.00,+40.00,+0.00,-1.00,+4.00,+33.00,-8.00
-7.00,+9.00,+2.00,-18.00,-8.00,-6.00,+1.00,-3.00,-69.00,-45.00,-61.00,-6.00,+6.00,-11.00,-11.00,+16.00
+24.00,+34.00,+53.00,+4.00,-2.00,+0.00,+18.00,+7.00,-49.00,+1.00,+25.00,+9.00,+6.00,+7.00,+15.00,-12.00
-3.00,-21.00,-16.00,+0.00,-6.00,+15.00,-20.00,-4.00,-51.00,+8.00,-13.00,-1.00,+6.00,-5.00,-4.00,-4.00
-10.00,+1.00,-20.00,-11.00,-6.00,-1.00,-4.00,-16.00,-90.00,+34.00,+0.00,+5.00,+14.00,-9.00,-11.00,+6.00
+8.00,+21.00,+13.00,+11.00,+1.00,-16.00,+5.00,+6.00,-31.00,-32.00,-6.00,-10.00,-10.00,-7.00,-22.00,+1.00
+17.00,+19.00,+10.00,+27.00,+25.00,-30.00,+7.00,+2.00,+31.00,-1.00,-5.00,-1.00,-26.00,+9.00,+12.00,+7.00
-10.00,+9.00,-11.00,+3.00,-3.00,+16.00,+7.00,+23.00,+36.00,+101.00,-34.00,-16.00,-2.00,-12.00,-17.00,+5.00
-19.00,-1.00,-32.00,-26.00,-20.00,-9.00,-13.00,-18.00,-43.00,-104.00,-1.00,-5.00,-4.00,+4.00,-2.00,-15.00
+6.00,-21.00,+26.00,-12.00,-4.00,-9.00,+12.00,+3.00,-14.00,-23.00,+20.00,+8.00,+23.00,+2.00,-1.00,-12.00
+25.00,+64.00,-7.00,+1.00,-1.00,+8.00,-13.00,+9.00,+38.00,+5.00,+0.00,-11.00,-14.00,+1.00,-10.00,+1.00
-15.00,-28.00,-5.00,+3.00,+5.00,-6.00,-1.00,-9.00,+58.00,+6.00,+7.00,-1.00,-14.00,+8.00,+10.00,-1.00
+2.00,+8.00,+8.00,+11.00,+1.00,+2.00,+8.00,-1.00,+85.00,+18.00,+19.00,+4.00,+8.00,-10.00,-3.00,+15.00
+5.00,+19.00,+21.00,+8.00,+7.00,-2.00,-21.00,+2.00,+52.00,+24.00,-27.00,-8.00,-3.00,-2.00,+2.00,+2.00
-6.00,-52.00,-34.00,-11.00,-1.00,-2.00,-8.00,-9.00,+22.00,-67.00,-54.00,-8.00,+5.00,+6.00,+2.00,-8.00
-13.00,+56.00,+41.00,+10.00,-6.00,+2.00,+10.00,-10.00,+10.00,+8.00,+43.00,+18.00,+0.00,-4.00,-4.00,-11.00
+26.00,+90.00,+3.00,+2.00,+4.00,+12.00,+28.00,+17.00,+41.00,+54.00,-2.00,+2.00,-2.00,-13.00,-6.00,+9.00
+14.00,-53.00,-18.00,+2.00,+7.00,+14.00,-5.00,+11.00,+24.00,-14.00,+8.00,+2.00,-1.00,+10.00,+2.00,+0.00
-5.00,-1.00,+2.00,-4.00,-6.00,-8.00,-17.00,-16.00,-6.00,+11.00,-19.00,+10.00,+28.00,+25.00,-2.00,+4.00
+4.00,-7.00,-28.00,-11.00,-18.00,+31.00,+3.00,+14.00,-24.00,-56.00,-3.00,+11.00,+91.00,-13.00,+32.00,+4.00
-15.00,-43.00,-10.00,-12.00,-18.00,-44.00,-62.00,-47.00,+31.00,+9.00,+7.00,-16.00,-109.00,+34.00,-19.00,+16.00
+2.00,+36.00,+37.00,+20.00,+55.00,+51.00,+50.00,+28.00,+15.00,+53.00,+20.00,-15.00,-44.00,-35.00,+24.00,+14.00
+2.00,+7.00,+9.00,+5.00,+12.00,+14.00,+50.00,+14.00,-17.00,+1.00,+4.00,-2.00,+34.00,+6.00,-50.00,-18.00
+5.00,-33.00,-17.00,-16.00,-33.00,-19.00,-31.00,+5.00,-21.00,-47.00,-2.00,+12.00,+32.00,-10.00,+6.00,+1.00
-1.00,-6.00,-9.00,-9.00,-5.00,+69.00,-25.00,+15.00,-8.00,-14.00,+13.00,+22.00,+33.00,+26.00,+25.00,-8.00
+9.00,+9.00,-3.00,-1.00,+1.00,-38.00,+6.00,-27.00,+4.00,-12.00,-2.00,-10.00,-41.00,-10.00,-23.00,-1.00
-11.00,-19.00,-1.00,+1.00,-4.00,-51.00,-28.00,-18.00,+7.00,+28.00,+3.00,-18.00,-21.00,+1.00,+29.00,-5.00
-9.00,+0.00,-1.00,+6.00,+15.00,+15.00,-7.00,-19.00,+2.00,-4.00,-4.00,+4.00,+2.00,+22.00,-2.00,-4.00
+9.00,+7.00,+6.00,+9.00,+0.00,-5.00,+20.00,+13.00,-5.00,-2.00,+2.00,-1.00,+16.00,-22.00,-4.00,+3.00
+3.00,+43.00,+1.00,-1.00,-4.00,-10.00,-12.00,-5.00,-5.00,-91.00,-22.00,+3.00,-2.00,-2.00,+35.00,+13.00
-7.00,+8.00,+1.00,-7.00,-4.00,+30.00,+7.00,+7.00,-10.00,+104.00,+73.00,+10.00,+0.00,-16.00,-2.00,-7.00
+11.00,+12.00,-34.00,-6.00,-2.00,-5.00,+11.00,-8.00,+2.00,+52.00,+12.00,-1.00,-7.00,+11.00,+13.00,+6.00
+0.00,-51.00,+17.00,+10.00,+10.00,+2.00,+7.00,+3.00,-15.00,-4.00,-9.00,-5.00,+0.00,+2.00,+1.00,-8.00
-6.00,-24.00,-6.00,-11.00,-12.00,-19.00,-13.00,-3.00,-45.00,-57.00,+11.00,+8.00,+15.00,+8.00,-15.00,-12.00
+10.00,-2.00,+21.00,-2.00,-2.00,-4.00,-2.00,+3.00,+31.00,+10.00,-12.00,+1.00,-2.00,+0.00,+4.00,+8.00
-4.00,-88.00,-22.00,+7.00,+7.00,+1.00,+5.00,+3.00,+21.00,+21.00,-8.00,-6.00,-19.00,-5.00,-7.00,+5.00
-1.00,-23.00,+5.00,+3.00,+6.00,-18.00,+3.00,-4.00,-7.00,+14.00,+4.00,-1.00,+2.00,-3.00,-12.00,-13.00
-1.00,-28.00,-5.00,-5.00,-5.00,+14.00,+0.00,+3.00,+26.00,+43.00,+13.00,+6.00,+17.00,+2.00,-13.00,-1.00
+2.00,-19.00,-17.00,-20.00,-14.00,-2.00,-2.00,+3.00,-6.00,-19.00,-13.00,-3.00,-5.00,+0.00,+6.00,-2.00
-3.00,-2.00,+3.00,-4.00,+6.00,+2.00,+1.00,-3.00,-7.00,-17.00,-3.00,-8.00,-28.00,-10.00,-45.00,-6.00
-4.00,+3.00,-7.00,-1.00,+1.00,-8.00,+5.00,+3.00,+22.00,-18.00,-11.00,-1.00,+10.00,-5.00,+66.00,+14.00
-13.00,-30.00,-3.00,-3.00,-11.00,-4.00,-12.00,-17.00,-5.00,+16.00,+0.00,-2.00,+15.00,+6.00,-2.00,-11.00
+2.00,+15.00,+5.00,+2.00,-3.00,+0.00,-2.00,+3.00,+3.00,-31.00,-8.00,+0.00,-4.00,-2.00,-3.00,+5.00
-4.00,+8.00,+0.00,+4.00,+11.00,-2.00,+9.00,-10.00,+3.00,+14.00,+8.00,+1.00,-18.00,-2.00,-1.00,+4.00
+5.00,-10.00,-2.00,+9.00,+3.00,-1.00,+7.00,+41.00,-19.00,-38.00,-11.00,-2.00,+26.00,+7.00,-20.00,-12.00
+9.00,+31.00,+0.00,-11.00,-16.00,-10.00,-4.00,-16.00,-3.00,+14.00,+5.00,-3.00,-17.00,-13.00,-17.00,-11.00
-4.00,-13.00,-6.00,-2.00,-1.00,+11.00,+8.00,-3.00,-12.00,+3.00,+3.00,-8.00,-25.00,-19.00,-5.00,-12.00
+5.00,+13.00,+9.00,+2.00,+0.00,-1.00,+17.00,+16.00,+0.00,-38.00,-18.00,-5.00,-2.00,-1.00,+6.00,+19.00
-10.00,+2.00,-2.00,+0.00,-1.00,+9.00,-22.00,-12.00,-10.00,-6.00,+7.00,+3.00,+9.00,+22.00,-7.00,+5.00
+3.00,+19.00,+11.00,+9.00,+3.00,-14.00,-19.00,-8.00,+10.00,-28.00,-18.00,-1.00,+8.00,+5.00,-2.00,+9.00
-4.00,+1.00,+7.00,+7.00,+4.00,+2.00,+16.00,-2.00,+1.00,+40.00,+30.00,+7.00,+7.00,-2.00,-8.00,-7.00
-8.00,+4.00,-8.00,-3.00,+0.00,-4.00,-4.00,-11.00,-9.00,-24.00,+9.00,+0.00,-8.00,-9.00,+4.00,-11.00
+3.00,+17.00,+8.00,-5.00,-2.00,-1.00,+6.00,-4.00,+3.00,-27.00,-8.00,-6.00,-6.00,-5.00,-3.00,-7.00
+1.00,-1.00,-11.00,-2.00,-5.00,+2.00,+2.00,+8.00,-3.00,+49.00,+16.00,+3.00,+7.00,+8.00,-7.00,+1.00
-9.00,-32.00,-17.00,-1.00,-3.00,-3.00,-10.00,-8.00,-12.00,-55.00,-29.00,+2.00,-1.00,-3.00,+2.00,-1.00
+9.00,+24.00,+31.00,+6.00,+3.00,+8.00,+2.00,+12.00,+7.00,+11.00,-4.00,-2.00,-3.00,+1.00,+6.00,-2.00
-3.00,+6.00,-6.00,-3.00,-3.00,-9.00,+1.00,-5.00,+4.00,+29.00,+16.00,+1.00,-4.00,-6.00,-6.00,+0.00
+3.00,+4.00,+7.00,+7.00,+2.00,+8.00,+4.00,+2.00,+2.00,-7.00,-15.00,-2.00,+3.00,+1.00,-5.00,+1.00
+1.00,+0.00,+2.00,+6.00,+3.00,+3.00,+1.00,+6.00,-1.00,-18.00,-13.00,+0.00,-2.00,+2.00,+3.00,+4.00
-3.00,-4.00,+0.00,-7.00,-7.00,-4.00,-8.00,+0.00,-12.00,-13.00,+2.00,-6.00,-4.00,+0.00,-3.00,-6.00
+2.00,+8.00,-2.00,-12.00,-3.00,-9.00,+2.00,-8.00,-3.00,-10.00,-1.00,-2.00,-3.00,-11.00,-10.00,-6.00
-3.00,-11.00,+3.00,-2.00,-6.00,-1.00,+5.00,+4.00,+1.00,+4.00,-2.00,-3.00,+0.00,+0.00,+0.00,+4.00
+2.00,-2.00,-11.00,-8.00,-1.00,+1.00,-7.00,+0.00,-2.00,-11.00,-2.00,+2.00,+3.00,+6.00,+7.00,+2.00
+0.00,-3.00,+0.00,+16.00,+2.00,-4.00,-3.00,-7.00,+3.00,+11.00,+1.00,-1.00,+0.00,+7.00,+0.00,-1.00
-1.00,-3.00,-2.00,-6.00,+2.00,-8.00,-2.00,-3.00,-6.00,-13.00,-8.00,+0.00,-3.00,-13.00,-8.00,-6.00
+0.00,+5.00,+1.00,+9.00,+1.00,+13.00,+8.00,+2.00,-9.00,+11.00,+4.00,+0.00,-1.00,-1.00,-5.00,-6.00
+2.00,-3.00,+3.00,+0.00,+0.00,-1.00,-7.00,+21.00,+3.00,+10.00,+3.00,-2.00,+0.00,+5.00,+3.00,+3.00
+0.00,+7.00,-3.00,-4.00,-1.00,+0.00,-4.00,-10.00,+0.00,-9.00,-9.00,-3.00,-1.00,-3.00,-4.00,+3.00
-7.00,-4.00,+2.00,+11.00,+6.00,+1.00,+9.00,+6.00,+1.00,-3.00,-5.00,-3.00,-3.00,-2.00,+0.00,+2.00
-8.00,+5.00,+0.00,-10.00,-9.00,-3.00,-4.00,-4.00,-2.00,+25.00,+24.00,+7.00,+3.00,+4.00,-1.00,+2.00
+9.00,-1.00,+2.00,-12.00,-4.00,-2.00,-3.00,+0.00,+0.00,-10.00,-7.00,-2.00,-1.00,-5.00,-2.00,-4.00
-3.00,-18.00,-1.00,+0.00,-1.00,-1.00,-2.00,-2.00,-1.00,-10.00,-8.00,-2.00,-3.00,-3.00,+3.00,+0.00
-4.00,-3.00,-8.00,-4.00,-1.00,-3.00,-2.00,-5.00,-1.00,+0.00,+5.00,-1.00,-1.00,+0.00,-1.00,+2.00
+2.00,+8.00,+2.00,+3.00,+3.00,+0.00,-1.00,+3.00,+1.00,+0.00,-5.00,+0.00,+2.00,-2.00,-2.00,-1.00
-4.00,+0.00,+0.00,+13.00,+4.00,+2.00,-2.00,-6.00,+4.00,-29.00,-14.00,-5.00,-2.00,-1.00,-2.00,+0.00
-5.00,+5.00,-1.00,-4.00,-3.00,-4.00,-3.00,+0.00,-14.00,+8.00,+18.00,+1.00,-2.00,-3.00,-2.00,+0.00
+4.00,+2.00,-14.00,-15.00,-5.00,-3.00,+0.00,-6.00,-1.00,-4.00,-2.00,-3.00,-1.00,-1.00,-2.00,+2.00
-2.00,-3.00,-3.00,-1.00,-1.00,+0.00,-1.00,+1.00,+1.00,-5.00,-7.00,-4.00,+0.00,-1.00,-3.00,-2.00
-1.00,+3.00,+3.00,+2.00,+1.00,+0.00,-2.00,-4.00,-1.00,-5.00,-4.00,+0.00,+1.00,+1.00,+0.00,+0.00
+0.00,+4.00,+2.00,+1.00,+2.00,+2.00,-2.00,+4.00,+5.00,-3.00,-7.00,-2.00,-3.00,-2.00,+2.00,-1.00
-2.00,+1.00,+2.00,+4.00,-1.00,-1.00,+1.00,-5.00,-7.00,-2.00,+0.00,-2.00,-3.00,-3.00,-4.00,-6.00
