-7.00,+9.00,+1.00,-1.00,-1.00,+1.00,+3.00,+18.00,+12.00,+4.00,+0.00,+0.00,+1.00,-4.00,-6.00,+1.00
+4.00,-9.00,-2.00,+0.00,+0.00,-1.00,+1.00,+9.00,-3.00,+0.00,-4.00,-3.00,-1.00,+6.00,+2.00,-3.00
+1.00,-2.00,+1.00,+1.00,+0.00,+0.00,-2.00,+16.00,+8.00,+19.00,+1.00,+1.00,+2.00,-6.00,-3.00,+2.00
-10.00,+5.00,-1.00,+0.00,-1.00,+1.00,+0.00,-12.00,+1.00,+6.00,+1.00,+0.00,-1.00,+2.00,-1.00,-2.00
+0.00,+3.00,-2.00,-1.00,+0.00,-2.00,+9.00,+0.00,-4.00,-7.00,+1.00,+1.00,+1.00,+2.00,+2.00,-1.00
+0.00,-13.00,-4.00,+0.00,-1.00,+2.00,-6.00,+15.00,-4.00,-4.00,-3.00,-1.00,-1.00,+0.00,-1.00,-4.00
-3.00,-2.00,-3.00,-2.00,+1.00,-1.00,+0.00,-11.00,-1.00,-14.00,-2.00,-1.00,-2.00,-1.00,-3.00,-6.00
-4.00,-8.00,-1.00,-1.00,-1.00,+0.00,-9.00,-5.00,+2.00,+7.00,+3.00,-1.00,-4.00,-11.00,-3.00,-2.00
+4.00,+2.00,-5.00,-4.00,-1.00,-3.00,-3.00,-10.00,-2.00,-8.00,-5.00,-4.00,-3.00,+0.00,-5.00,+2.00
+0.00,+4.00,-5.00,-4.00,-2.00,-4.00,-2.00,-6.00,-2.00,+1.00,-2.00,-2.00,+0.00,+2.00,-3.00,-8.00
+17.00,-13.00,+10.00,+4.00,+0.00,+0.00,+11.00,+7.00,+2.00,+0.00,+1.00,+1.00,+3.00,-1.00,+2.00,+5.00
+4.00,-30.00,-5.00,-1.00,+0.00,+3.00,+0.00,+4.00,-2.00,-2.00,-1.00,-2.00,-9.00,+0.00,+0.00,+5.00
-2.00,-54.00,-7.00,-3.00,-1.00,+3.00,-4.00,-6.00,+3.00,+2.00,-1.00,-2.00,+2.00,-4.00,+4.00,+7.00
-2.00,+49.00,+3.00,+2.00,-4.00,-4.00,-1.00,-13.00,-6.00,-5.00,-1.00,-1.00,-1.00,+6.00,+2.00,-4.00
-3.00,+20.00,-3.00,-2.00,-2.00,-3.00,-5.00,-12.00,-5.00,-39.00,-3.00,+0.00,-1.00,+2.00,-1.00,-7.00
+1.00,+11.00,-2.00,-2.00,-5.00,-5.00,+1.00,+1.00,+6.00,+55.00,+0.00,+1.00,+1.00,-6.00,+0.00,-1.00
-14.00,-25.00,-3.00,-3.00,-1.00,-2.00,+0.00,+22.00,-2.00,-13.00,-1.00,+1.00,+10.00,-10.00,+0.00,+3.00
+0.00,+27.00,+1.00,-1.00,-1.00,+0.00,+3.00,-2.00,+14.00,+43.00,+11.00,-3.00,-24.00,+1.00,-3.00,+8.00
+4.00,-12.00,+6.00,+1.00,-2.00,+1.00,-11.00,-4.00,-4.00,-22.00,-7.00,-4.00,-3.00,-3.00,-1.00,-2.00
+3.00,-21.00,+0.00,-1.00,+1.00,+5.00,+6.00,-8.00,-4.00,-19.00,-2.00,-3.00,+1.00,+5.00,+2.00,-2.00
-27.00,+0.00,-4.00,+1.00,-1.00,+0.00,-3.00,+21.00,-3.00,-3.00,-1.00,-3.00,-1.00,-7.00,-6.00,-5.00
-4.00,-27.00,-2.00,-2.00,-3.00,+0.00,+5.00,-6.00,-8.00,-18.00,-14.00,-3.00,+7.00,-4.00,-1.00,-3.00
+9.00,+21.00,+1.00,+1.00,-1.00,-3.00,+4.00,-9.00,-2.00,+27.00,+19.00,+10.00,+13.00,+11.00,+7.00,+1.00
+3.00,+4.00,-3.00,-3.00,-2.00,-1.00,-8.00,-6.00,-6.00,-21.00,-1.00,-1.00,-6.00,-11.00,-8.00,-4.00
+18.00,+20.00,+5.00,+1.00,-1.00,-2.00,-4.00,-12.00,+3.00,+20.00,-2.00,-2.00,-3.00,+0.00,+1.00,-7.00
+2.00,-2.00,-1.00,-1.00,-1.00,-4.00,-1.00,-6.00,-7.00,-7.00,-1.00,-2.00,-6.00,+2.00,-1.00,+3.00
-27.00,-42.00,-7.00,+0.00,+1.00,+2.00,-17.00,-21.00,+7.00,+1.00,-6.00,-1.00,-5.00,+2.00,+4.00,+4.00
+4.00,+15.00,+6.00,-1.00,-4.00,-4.00,+2.00,+9.00,+0.00,-3.00,-1.00,-2.00,+6.00,+4.00,+1.00,+0.00
+10.00,+47.00,+11.00,+4.00,+1.00,+2.00,-8.00,-4.00,-8.00,-8.00,+0.00,-2.00,-5.00,-5.00,-13.00,-11.00
+1.00,-27.00,-1.00,+2.00,+3.00,+3.00,+6.00,+16.00,-6.00,-44.00,-9.00,-2.00,+4.00,+6.00,+16.00,+2.00
-12.00,-29.00,-9.00,-6.00,-4.00,-6.00,-2.00,-37.00,-2.00,+68.00,-2.00,-2.00,-2.00,-22.00,-44.00,+3.00
-16.00,+6.00,-8.00,-5.00,-1.00,-1.00,+2.00,-3.00,+12.00,-56.00,-6.00,-1.00,+2.00,+18.00,+43.00,-2.00
+42.00,+74.00,+16.00,+2.00,+2.00,+1.00,+3.00,-4.00,-1.00,+5.00,-4.00,-1.00,-4.00,+1.00,-6.00,+4.00
-4.00,-29.00,+5.00,+2.00,+3.00,+4.00,+1.00,+4.00,+8.00,+43.00,+19.00,+5.00,+5.00,+1.00,+9.00,+11.00
+1.00,+21.00,-4.00,+0.00,-12.00,-16.00,+13.00,-1.00,-3.00,-25.00,-5.00,-5.00,-5.00,+4.00,-2.00,-5.00
+10.00,-1.00,+1.00,+2.00,+4.00,+1.00,-2.00,+10.00,+0.00,+5.00,-12.00,-1.00,+15.00,-16.00,-14.00,+8.00
-16.00,-7.00,-6.00,+3.00,-2.00,-1.00,+4.00,-3.00,-13.00,-35.00,-10.00,-7.00,-14.00,+10.00,+11.00,-7.00
+4.00,+2.00,-3.00,-2.00,+2.00,+0.00,+0.00,-12.00,+11.00,+5.00,+3.00,+3.00,+0.00,-11.00,-22.00,+1.00
-10.00,-17.00,-6.00,-3.00,+0.00,-1.00,-7.00,-14.00,-29.00,+20.00,-3.00,-2.00,+0.00,+15.00,+12.00,-5.00
+4.00,+10.00,-1.00,+1.00,-2.00,-3.00,+6.00,-6.00,-7.00,-13.00,-16.00,-5.00,-7.00,+16.00,-8.00,+3.00
-22.00,-16.00,-8.00,-4.00,-2.00,-5.00,+2.00,+43.00,+4.00,+52.00,+28.00,+5.00,+6.00,-10.00,+0.00,+9.00
+0.00,+13.00,+8.00,+1.00,+1.00,+2.00,-6.00,-15.00,+2.00,-1.00,-3.00,-4.00,+0.00,+4.00,+0.00,-4.00
-6.00,+3.00,-1.00,+0.00,+0.00,+4.00,+5.00,+40.00,+9.00,-9.00,-1.00,+1.00,-2.00,-3.00,+11.00,+4.00
-7.00,-1.00,+4.00,+0.00,-1.00,-1.00,-10.00,-16.00,-13.00,-24.00,-11.00,-3.00,-1.00,-4.00,-7.00,-16.00
+0.00,-8.00,+0.00,-1.00,+2.00,+1.00,-4.00,-24.00,-5.00,-9.00,-10.00,-3.00,-3.00,-4.00,-21.00,-19.00
-11.00,-14.00,-5.00,-4.00,-6.00,-3.00,-2.00,-15.00,+6.00,+21.00,+8.00,+1.00,-2.00,-12.00,+2.00,+20.00
-2.00,-24.00,-7.00,-6.00,-3.00,-4.00,-1.00,+11.00,+7.00,-22.00,-5.00,-1.00,-1.00,-7.00,-9.00,-5.00
+9.00,+13.00,+10.00,+1.00,+3.00,-2.00,+3.00,+17.00,-4.00,+8.00,+7.00,+2.00,+1.00,-1.00,+3.00,-5.00
+4.00,-3.00,-5.00,+0.00,+0.00,-1.00,-2.00,-21.00,+4.00,-2.00,+0.00,+2.00,+1.00,+5.00,+10.00,+6.00
-12.00,-3.00,-3.00,-2.00,-4.00,-4.00,+7.00,+16.00,-4.00,-12.00,-7.00,-2.00,+1.00,+1.00,-5.00,-12.00
+11.00,+24.00,+4.00,+3.00,+3.00,+4.00,-8.00,-6.00,-6.00,-35.00,-8.00,-5.00,-2.00,-2.00,+14.00,+1.00
-43.00,-40.00,-18.00,-6.00,-5.00,-5.00,-3.00,-8.00,+5.00,+59.00,+7.00,+3.00,-5.00,+4.00,-11.00,+3.00
-23.00,-17.00,-3.00,-4.00,-4.00,-2.00,-5.00,-23.00,+4.00,+22.00,+10.00,+5.00,+10.00,+5.00,+0.00,-1.00
+1.00,+20.00,+3.00,+4.00,+3.00,-2.00,-5.00,+4.00,-13.00,-16.00,-7.00,-8.00,-26.00,+3.00,-4.00,-9.00
+0.00,+37.00,+0.00,-1.00,+0.00,+3.00,+12.00,+30.00,+0.00,+19.00,+10.00,+0.00,-5.00,-2.00,+3.00,+1.00
+18.00,+11.00,+5.00,+2.00,+3.00,+8.00,+10.00,+7.00,-4.00,-13.00,-4.00,-3.00,-1.00,+0.00,+0.00,-1.00
-4.00,-31.00,-13.00,-4.00,-4.00,-2.00,+7.00,+2.00,+26.00,-4.00,-16.00,-6.00,+1.00,-1.00,+7.00,+12.00
-6.00,-15.00,-5.00,-3.00,-2.00,-3.00,+16.00,+2.00,-24.00,-5.00,+11.00,+6.00,+12.00,+4.00,+11.00,-9.00
-15.00,+0.00,+1.00,+0.00,-1.00,-4.00,-34.00,-23.00,+8.00,-22.00,-6.00,+0.00,+19.00,+2.00,-10.00,-7.00
+10.00,-13.00,-11.00,-3.00,-3.00,-2.00,+11.00,+1.00,+1.00,+23.00,+13.00,-6.00,-31.00,-48.00,-48.00,-10.00
+14.00,+11.00,+6.00,+1.00,-2.00,+4.00,-7.00,+14.00,-10.00,+2.00,-3.00,-1.00,+3.00,+25.00,+18.00,+5.00
+19.00,-3.00,+3.00,+2.00,+3.00,+1.00,+0.00,+3.00,+4.00,-7.00,-6.00,-1.00,+10.00,+0.00,+0.00,+5.00
+3.00,-9.00,+2.00,+2.00,+3.00,+8.00,+7.00,-19.00,-9.00,-26.00,-9.00,-2.00,+4.00,+3.00,+10.00,-2.00
+0.00,+30.00,+4.00,+0.00,-4.00,-8.00,-5.00,+17.00,+3.00,-14.00,-4.00,-4.00,+5.00,+7.00,-1.00,+3.00
-1.00,-3.00,+1.00,+0.00,-1.00,-3.00,-3.00,-13.00,-5.00,-7.00,-5.00,+0.00,+5.00,-13.00,-5.00,-1.00
+1.00,-5.00,+1.00,-3.00,-1.00,+1.00,-1.00,-2.00,+1.00,+19.00,+9.00,-1.00,-19.00,-8.00,-8.00,-2.00
-9.00,+2.00,-20.00,-2.00,-1.00,-2.00,-1.00,+0.00,-15.00,+5.00,+1.00,+0.00,-7.00,-6.00,-19.00,-15.00
-6.00,-84.00,-4.00,-4.00,-3.00,+0.00,-5.00,-14.00,+4.00,-6.00,-4.00,-2.00,-7.00,-16.00,+6.00,+5.00
+28.00,+66.00,+4.00,+7.00,+5.00,+0.00,+5.00,+15.00,-14.00,-20.00,-1.00,-1.00,-6.00,+6.00,+6.00,-3.00
+4.00,-11.00,-18.00,-6.00,-3.00,+0.00,-3.00,+8.00,-2.00,-28.00,-10.00,-2.00,+8.00,+9.00,+8.00,-4.00
+12.00,-10.00,+22.00,+8.00,+3.00,+4.00,+0.00,+5.00,-7.00,+1.00,-5.00,-5.00,-7.00,-7.00,+4.00,-2.00
+2.00,-19.00,-10.00,-4.00,-3.00,-3.00,-3.00,+2.00,+14.00,-28.00,-7.00,-5.00,-7.00,-6.00,-6.00,+15.00
-8.00,-20.00,-7.00,-5.00,-4.00,-4.00,-13.00,-24.00,-14.00,+1.00,+10.00,+5.00,+1.00,-8.00,-5.00,-4.00
+9.00,-11.00,-4.00,-2.00,-3.00,+0.00,+6.00,+9.00,-22.00,+25.00,-3.00,+4.00,+7.00,-2.00,-6.00,-12.00
-6.00,+5.00,-16.00,-8.00,-5.00,-7.00,+0.00,-23.00,+24.00,+41.00,+9.00,+0.00,-6.00,+1.00,-2.00,+3.00
+4.00,+28.00,+7.00,+4.00,-1.00,+0.00,+4.00,+30.00,-12.00,-32.00,+4.00,+2.00,+8.00,+11.00,+17.00,-10.00
+1.00,-19.00,+6.00,+1.00,-4.00,+11.00,+4.00,-3.00,-4.00,-18.00,-13.00,-6.00,-5.00,+4.00,+12.00,+17.00
-1.00,+0.00,-9.00,+0.00,+1.00,-9.00,-23.00,-12.00,+14.00,-36.00,-19.00,-6.00,+3.00,-12.00,-14.00,-3.00
+1.00,+8.00,+8.00,-4.00,-4.00,-2.00,+5.00,-2.00,-4.00,-4.00,-5.00,-4.00,-7.00,+3.00,+6.00,+5.00
+1.00,+13.00,+6.00,+1.00,+5.00,-4.00,-9.00,-35.00,-1.00,+48.00,+11.00,+10.00,+23.00,+1.00,-10.00,-3.00
-7.00,-7.00,-4.00,-2.00,-5.00,-7.00,+1.00,-8.00,+4.00,-31.00,-6.00,-12.00,-31.00,-11.00,-18.00,-14.00
+5.00,-21.00,-6.00,-5.00,-7.00,-1.00,+3.00,+23.00,-3.00,+25.00,+9.00,-3.00,-10.00,-3.00,-3.00,+1.00
-13.00,-5.00,+8.00,+0.00,+2.00,+2.00,-5.00,-6.00,-2.00,-40.00,-16.00,-3.00,+3.00,-5.00,+4.00,+6.00
+13.00,-1.00,-15.00,-1.00,+1.00,+4.00,+4.00,+7.00,-2.00,-27.00,-2.00,-1.00,+4.00,+25.00,+19.00,+3.00
-4.00,+21.00,-4.00,-1.00,+0.00,+2.00,+0.00,+2.00,+0.00,+23.00,+10.00,+6.00,+13.00,+3.00,+0.00,-4.00
-21.00,+0.00,+35.00,+9.00,+3.00,+0.00,-3.00,-15.00,-3.00,-57.00,-9.00,-1.00,-1.00,-6.00,-11.00,-6.00
+3.00,-14.00,-11.00,-3.00,-2.00,-4.00,-2.00,+7.00,+14.00,+26.00,-11.00,-2.00,-5.00,+0.00,-8.00,-16.00
+3.00,+33.00,+11.00,-1.00,-2.00,-1.00,-4.00,-13.00,-9.00,+106.00,+29.00,+2.00,-3.00,-7.00,-17.00,+0.00
-7.00,-22.00,-12.00,-6.00,-3.00,-6.00,-5.00,-27.00,-6.00,-20.00,-16.00,-5.00,-3.00,+0.00,+9.00,+0.00
+6.00,+1.00,-1.00,-2.00,-1.00,+0.00,+4.00,-5.00,-5.00,-3.00,+25.00,+7.00,+5.00,+13.00,+14.00,+2.00
+35.00,+66.00,+15.00,+8.00,+4.00,+1.00,-7.00,+71.00,-21.00,-15.00,+5.00,+5.00,+1.00,-1.00,-2.00,-1.00
+3.00,-6.00,-2.00,+4.00,+2.00,+6.00,+15.00,-10.00,-6.00,-45.00,-15.00,-3.00,-5.00,-1.00,+12.00,-5.00
-3.00,-18.00,+1.00,+1.00,+1.00,-1.00,-4.00,+29.00,+10.00,+20.00,-8.00,-3.00,-3.00,-3.00,+3.00,+13.00
-4.00,-5.00,-8.00,-6.00,+3.00,+1.00,-9.00,-50.00,+12.00,-4.00,-8.00,-5.00,+0.00,-6.00,+2.00,+3.00
-11.00,-20.00,-6.00,-5.00,-10.00,-1.00,+2.00,-14.00,+2.00,+30.00,+4.00,-1.00,-3.00,+1.00,-3.00,-1.00
-5.00,+11.00,+4.00,+0.00,-3.00,-4.00,-6.00,+30.00,-5.00,+8.00,+16.00,+6.00,+11.00,-8.00,-19.00,-4.00
+1.00,+16.00,+3.00,-1.00,+2.00,+0.00,-1.00,+12.00,-7.00,-28.00,-7.00,-9.00,-27.00,+7.00,-5.00,-6.00
+0.00,-7.00,+2.00,+1.00,-7.00,+1.00,+6.00,-10.00,-1.00,+14.00,-7.00,+1.00,+2.00,+4.00,+0.00,+0.00
+6.00,-21.00,-5.00,-1.00,+12.00,+7.00,-13.00,+12.00,+0.00,-15.00,+4.00,-2.00,-8.00,+8.00,+19.00,-1.00
-15.00,-9.00,-6.00,-2.00,-3.00,-3.00,-11.00,-2.00,+1.00,-14.00,-15.00,-8.00,-3.00,+1.00,-2.00,-7.00
-15.00,-26.00,-10.00,-6.00,-5.00,-4.00,+0.00,-49.00,+5.00,+12.00,+3.00,+2.00,+12.00,-6.00,-8.00,+2.00
+1.00,+6.00,+2.00,+2.00,+0.00,-1.00,-5.00,-1.00,+4.00,+27.00,+9.00,+3.00,+6.00,-6.00,-14.00,+1.00
-17.00,+14.00,+15.00,+5.00,-1.00,-3.00,+12.00,+14.00,-7.00,-4.00,+9.00,-1.00,-15.00,+0.00,+30.00,+1.00
+6.00,+9.00,+1.00,+0.00,+2.00,-1.00,+1.00,+12.00,+1.00,+10.00,-3.00,-3.00,-4.00,-15.00,+0.00,+0.00
+15.00,+22.00,+0.00,-3.00,-1.00,-1.00,-5.00,+16.00,-6.00,-46.00,-18.00,-2.00,+5.00,-2.00,-1.00,-4.00
+9.00,+7.00,+13.00,+2.00,+3.00,+2.00,+6.00,+0.00,-1.00,-22.00,+13.00,+3.00,+0.00,-6.00,+20.00,+5.00
-11.00,-6.00,-6.00,-1.00,-3.00,-3.00,-3.00,-21.00,-1.00,+27.00,+5.00,-5.00,-4.00,-20.00,-47.00,-26.00
-1.00,+12.00,+6.00,-1.00,+1.00,-1.00,-3.00,-20.00,-18.00,-17.00,-2.00,+0.00,-8.00,-4.00,-10.00,-6.00
-11.00,-3.00,-8.00,-2.00,+0.00,-2.00,+5.00,-24.00,-2.00,-28.00,-8.00,-2.00,-3.00,-12.00,-3.00,+4.00
-27.00,-62.00,-44.00,-8.00,-5.00,-2.00,-9.00,+23.00,+6.00,-14.00,-28.00,-3.00,+0.00,+9.00,-8.00,+7.00
+27.00,+2.00,+8.00,+1.00,+1.00,+5.00,+32.00,-22.00,-10.00,+35.00,+26.00,+6.00,+5.00,-3.00,+3.00,+1.00
+2.00,+52.00,+29.00,+8.00,+6.00,+5.00,+5.00,+42.00,+9.00,-10.00,-6.00,-2.00,+1.00,+10.00,+12.00,-3.00
+7.00,-13.00,-2.00,+0.00,-7.00,-6.00,-3.00,+21.00,+1.00,+1.00,+4.00,+0.00,+2.00,-3.00,-14.00,-15.00
-7.00,+7.00,-4.00,-4.00,-3.00,-2.00,-6.00,-6.00,+5.00,+46.00,-18.00,-9.00,-5.00,+1.00,+11.00,+5.00
-16.00,-52.00,-21.00,-7.00,-2.00,-3.00,-7.00,-36.00,+16.00,+12.00,-3.00,+1.00,+9.00,+5.00,+3.00,+1.00
+2.00,-12.00,-12.00,-2.00,+0.00,-2.00,+0.00,+22.00,-20.00,-56.00,+5.00,-2.00,-2.00,-11.00,-1.00,+6.00
+7.00,-5.00,+9.00,-1.00,+3.00,+1.00,+10.00,-30.00,-4.00,+12.00,+4.00,+4.00,+4.00,-1.00,-2.00,-7.00
-8.00,-9.00,-14.00,-1.00,-1.00,-1.00,-9.00,-29.00,+1.00,+6.00,-1.00,-2.00,+1.00,+5.00,-3.00,-6.00
-9.00,-25.00,-27.00,-7.00,-6.00,-6.00,-4.00,+86.00,+2.00,-13.00,-16.00,-3.00,+3.00,+8.00,+8.00,+2.00
-2.00,-14.00,+12.00,+1.00,-3.00,-1.00,+21.00,-9.00,+4.00,+27.00,+10.00,+1.00,+3.00,+13.00,+1.00,-5.00
+12.00,+40.00,+31.00,+10.00,+13.00,-3.00,+1.00,+31.00,+2.00,+15.00,+0.00,-2.00,-8.00,-53.00,-68.00,-18.00
+2.00,-15.00,-1.00,+1.00,-1.00,+2.00,-5.00,-2.00,-7.00,+25.00,+0.00,-4.00,-5.00,+18.00,+60.00,+21.00
-18.00,+3.00,-3.00,-4.00,-4.00,-8.00,-12.00,-29.00,-2.00,-91.00,-3.00,-6.00,-4.00,-8.00,-12.00,+1.00
-4.00,-37.00,-24.00,-7.00,-5.00,-2.00,-2.00,-24.00,+16.00,-1.00,-13.00,+4.00,+8.00,+8.00,-17.00,-8.00
-34.00,-49.00,-22.00,-8.00,-9.00,-5.00,-10.00,-25.00,-16.00,-25.00,+4.00,+1.00,+0.00,+1.00,+4.00,+15.00
+27.00,+52.00,+43.00,+12.00,+8.00,+5.00,+25.00,+77.00,-1.00,+107.00,+20.00,+1.00,-21.00,-12.00,-16.00,-22.00
+17.00,+72.00,+19.00,+4.00,+0.00,+3.00,+10.00,+8.00,-12.00,-67.00,-5.00,+2.00,+14.00,+10.00,+9.00,+13.00
+8.00,+11.00,-5.00,+0.00,-3.00,-3.00,-12.00,-19.00,+9.00,+12.00,-7.00,-5.00,-20.00,-13.00,-2.00,-6.00
-8.00,+9.00,-3.00,+0.00,+1.00,+3.00,-6.00,-8.00,+5.00,-19.00,-9.00,-5.00,+8.00,+9.00,-1.00,-4.00
-20.00,-14.00,-13.00,-9.00,-8.00,-11.00,-4.00,-16.00,+5.00,+29.00,+13.00,+6.00,+7.00,-14.00,-11.00,-11.00
+12.00,-2.00,-5.00,-2.00,-1.00,+0.00,-15.00,-55.00,-18.00,-1.00,-18.00,-7.00,-4.00,-4.00,-2.00,+7.00
-3.00,+14.00,+7.00,+3.00,+1.00,+0.00,-4.00,-36.00,-4.00,-23.00,+1.00,+1.00,+7.00,+10.00,+1.00,+3.00
-1.00,-10.00,-1.00,+0.00,+2.00,+3.00,+3.00,+7.00,+5.00,+25.00,+1.00,+0.00,-7.00,+11.00,+24.00,+0.00
+6.00,+2.00,-2.00,-3.00,-2.00,+1.00,+4.00,+6.00,-2.00,-65.00,-25.00,-8.00,+3.00,+9.00,-14.00,+1.00
-25.00,-55.00,-16.00,-4.00,-2.00,+2.00,+10.00,+55.00,+6.00,+104.00,+10.00,+2.00,-6.00,-18.00,+10.00,-15.00
-22.00,+47.00,+5.00,-7.00,-5.00,-7.00,-8.00,-25.00,-9.00,+1.00,+30.00,+5.00,+1.00,-2.00,-11.00,+5.00
+17.00,+9.00,+51.00,+15.00,+4.00,+3.00,+12.00,-10.00,+5.00,+16.00,-1.00,+0.00,-3.00,+9.00,+16.00,+12.00
+28.00,+29.00,+3.00,+6.00,+3.00,-3.00,-20.00,-6.00,-10.00,-27.00,-4.00,+1.00,+2.00,-2.00,-6.00,-21.00
-15.00,-9.00,-8.00,-2.00,-2.00,+1.00,+7.00,-51.00,+7.00,-41.00,-14.00,-6.00,-5.00,-4.00,-1.00,-9.00
+8.00,-3.00,-16.00,-12.00,-6.00,-1.00,-5.00,+55.00,-2.00,-54.00,-19.00,-6.00,-6.00,+0.00,+7.00,+18.00
-12.00,+66.00,+7.00,-2.00,-6.00,-1.00,+0.00,+24.00,-7.00,+61.00,+10.00,+3.00,+8.00,+19.00,+30.00,+6.00
-9.00,+21.00,+9.00,+1.00,+2.00,-2.00,-3.00,-16.00,+8.00,+18.00,+22.00,+6.00,-2.00,-19.00,-29.00,-13.00
-8.00,-23.00,+1.00,+3.00,+3.00,+0.00,+0.00,-17.00,-6.00,-11.00,-6.00,-2.00,-9.00,-15.00,-16.00,-5.00
-16.00,-50.00,-14.00,-2.00,-1.00,-2.00,-2.00,-4.00,+1.00,-6.00,-19.00,-6.00,-4.00,+0.00,-11.00,-17.00
+12.00,-13.00,-13.00,-6.00,-4.00,-5.00,-7.00,+39.00,+6.00,-72.00,+7.00,+0.00,+4.00,+7.00,+24.00,-4.00
+11.00,+8.00,+5.00,+3.00,-2.00,-1.00,+3.00,-32.00,+3.00,-10.00,-4.00,+2.00,+2.00,+5.00,+10.00,+30.00
+10.00,+7.00,+9.00,+2.00,+0.00,+2.00,-2.00,-9.00,+13.00,+48.00,+19.00,+6.00,+2.00,+10.00,-1.00,+11.00
+1.00,-6.00,+0.00,+1.00,-3.00,-3.00,-9.00,-27.00,+2.00,+33.00,-2.00,+2.00,+2.00,+16.00,+24.00,+5.00
+8.00,-7.00,-5.00,+2.00,+7.00,+6.00,+3.00,-28.00,-18.00,-21.00,+21.00,-4.00,-9.00,-24.00,-25.00,-13.00
-19.00,-8.00,-14.00,-8.00,-6.00,-5.00,+1.00,+46.00,-21.00,-58.00,-48.00,-11.00,-5.00,-6.00,-31.00,-22.00
+24.00,-5.00,+2.00,-3.00,-3.00,-5.00,-13.00,+39.00,+20.00,-46.00,+0.00,-1.00,-2.00,+0.00,+13.00,+8.00
+9.00,-9.00,+2.00,-2.00,-6.00,-14.00,-1.00,-21.00,+14.00,+59.00,+6.00,-1.00,+4.00,+3.00,+12.00,+17.00
-12.00,-13.00,-11.00,+1.00,+2.00,+15.00,+2.00,+16.00,+9.00,-6.00,+11.00,+12.00,+14.00,+23.00,+17.00,+17.00
-26.00,-52.00,-35.00,-8.00,-1.00,+3.00,+3.00,-29.00,-8.00,-16.00,+9.00,+2.00,+1.00,+4.00,+9.00,+7.00
+14.00,+3.00,+31.00,+3.00,+1.00,-5.00,+12.00,+1.00,-8.00,-14.00,-11.00,-7.00,-6.00,-5.00,-30.00,-8.00
-6.00,+22.00,+13.00,+6.00,+5.00,+6.00,-3.00,+32.00,+14.00,+2.00,-7.00,-2.00,-3.00,-3.00,+18.00,-8.00
-5.00,-10.00,-5.00,-6.00,-5.00,-9.00,-29.00,-50.00,+5.00,+26.00,-21.00,-12.00,-8.00,-6.00,-9.00,-12.00
-12.00,+4.00,-4.00,-1.00,-2.00,-7.00,-6.00,-15.00,+5.00,+59.00,+10.00,-5.00,-1.00,-11.00,+0.00,+14.00
-7.00,+4.00,-10.00,-5.00,-1.00,+0.00,+1.00,-4.00,+10.00,-25.00,+16.00,+9.00,+7.00,+26.00,+14.00,+12.00
+2.00,-22.00,-9.00,-4.00,+0.00,-1.00,+6.00,-10.00,-18.00,-52.00,-4.00,+4.00,+1.00,-6.00,+4.00,+6.00
-39.00,-43.00,-7.00,+0.00,-2.00,-1.00,+2.00,-22.00,+16.00,+25.00,+9.00,+8.00,+6.00,+11.00,-5.00,-29.00
+36.00,+18.00,+8.00,+4.00,+3.00,+4.00,+4.00,+49.00,-6.00,-37.00,-29.00,-3.00,-10.00,-13.00,-19.00,-1.00
-19.00,+12.00,-8.00,+1.00,+3.00,+1.00,+1.00,-37.00,+10.00,-5.00,-28.00,-12.00,+4.00,+9.00,+46.00,+19.00
-43.00,-29.00,+12.00,-1.00,-1.00,+5.00,-11.00,-20.00,+15.00,+8.00,+4.00,-4.00,-9.00,-16.00,-36.00,-5.00
+35.00,+28.00,-12.00,+0.00,-2.00,+1.00,+10.00,+26.00,-3.00,+12.00,-16.00,-13.00,-4.00,-1.00,+0.00,+6.00
+5.00,+2.00,+16.00,+1.00,-4.00,-6.00,-20.00,-50.00,+9.00,+20.00,+21.00,+6.00,+9.00,+12.00,+15.00,-2.00
+3.00,+27.00,-4.00,+2.00,+4.00,+7.00,+11.00,+27.00,-18.00,+21.00,+23.00,+7.00,-4.00,-13.00,-35.00,-16.00
-1.00,-49.00,-6.00,+0.00,+2.00,+4.00,+13.00,+12.00,+17.00,-22.00,+33.00,+7.00,-5.00,+2.00,+17.00,-13.00
-12.00,-5.00,-5.00,-4.00,-4.00,-10.00,-12.00,-50.00,-15.00,-27.00,-20.00,-1.00,+3.00,-12.00,-17.00,+7.00
-11.00,-12.00,+10.00,+6.00,+8.00,+20.00,+8.00,+74.00,+1.00,+20.00,-14.00,-20.00,-9.00,-5.00,+26.00,+2.00
+15.00,-7.00,+26.00,+2.00,-1.00,-1.00,-1.00,-31.00,+9.00,+32.00,-4.00,-1.00,-2.00,-9.00,-19.00,-9.00
+24.00,+18.00,-9.00,+1.00,+0.00,+1.00,-6.00,+10.00,-18.00,-24.00,+10.00,+3.00,+6.00,+7.00,+9.00,-12.00
+16.00,-2.00,+0.00,-4.00,+1.00,-4.00,+11.00,+24.00,+18.00,+3.00,+18.00,+7.00,+2.00,+4.00,+4.00,+0.00
+3.00,+17.00,-5.00,-4.00,-4.00,-6.00,-1.00,-28.00,+21.00,+30.00,+26.00,+12.00,+10.00,+19.00,+18.00,-2.00
-16.00,-23.00,-14.00,-6.00,-5.00,-3.00,-1.00,+5.00,-27.00,-38.00,-24.00,-14.00,-13.00,-24.00,-28.00,-10.00
-19.00,+3.00,+5.00,-3.00,-1.00,-8.00,-14.00,-50.00,-6.00,+19.00,-28.00,-11.00,-9.00,-10.00,-42.00,-12.00
+11.00,+5.00,-8.00,+3.00,-1.00,+6.00,-21.00,-28.00,+0.00,-4.00,-4.00,-2.00,-2.00,+7.00,+25.00,+2.00
-1.00,-5.00,-13.00,-5.00,-6.00,-23.00,+9.00,+0.00,-14.00,-49.00,-1.00,+2.00,+1.00,-1.00,+11.00,+21.00
-1.00,-5.00,+27.00,-1.00,+1.00,+26.00,+16.00,+23.00,-2.00,+12.00,+6.00,+5.00,+4.00,+6.00,+4.00,+8.00
-15.00,+21.00,-8.00,+0.00,+1.00,+3.00,+6.00,-20.00,-7.00,+6.00,+20.00,+5.00,+2.00,+1.00,-6.00,-6.00
+19.00,+3.00,-2.00,+3.00,+2.00,+7.00,+5.00,+6.00,-11.00,+2.00,-10.00,-3.00,+3.00,+65.00,+7.00,-15.00
-20.00,-34.00,-7.00,-8.00,-5.00,-2.00,-17.00,-37.00,-13.00,-24.00,+12.00,-16.00,-13.00,-88.00,-55.00,-40.00
+15.00,+34.00,-3.00,-5.00,-3.00,-16.00,-14.00,-17.00,+15.00,+14.00,-13.00,+11.00,+0.00,+15.00,+39.00,+50.00
+35.00,+23.00,-9.00,+3.00,+3.00,+3.00,+30.00,+36.00,+6.00,+10.00,-28.00,-22.00,-7.00,-5.00,+33.00,+8.00
-61.00,-16.00,+11.00,-2.00,-3.00,-13.00,-7.00,-5.00,-19.00,+0.00,+1.00,+9.00,+5.00,-5.00,-36.00,+4.00
+27.00,-6.00,-34.00,+2.00,+2.00,+0.00,+8.00,+44.00,-9.00,-18.00,+19.00,+14.00,+5.00,+30.00,+27.00,-16.00
+69.00,+48.00,+21.00,+6.00,+2.00,-1.00,+0.00,-16.00,-12.00,+9.00,+32.00,+11.00,-7.00,-16.00,-41.00,-20.00
-30.00,-17.00,-2.00,-5.00,-5.00,+5.00,-1.00,-27.00,+26.00,+54.00,-67.00,-11.00,-6.00,-12.00,+13.00,+12.00
+8.00,-1.00,-24.00,-12.00,-1.00,-2.00,-1.00,+23.00,+17.00,-17.00,-18.00,-10.00,-5.00,-10.00,+0.00,+28.00
-47.00,+1.00,+20.00,+10.00,-1.00,+0.00,-4.00,-73.00,-13.00,-16.00,-21.00,-13.00,-3.00,+4.00,-15.00,-25.00
-51.00,-22.00,+27.00,+2.00,-6.00,-12.00,-8.00,+89.00,-56.00,-16.00,-26.00,+0.00,+7.00,+3.00,-1.00,-17.00
+25.00,+10.00,-17.00,+3.00,+0.00,-16.00,-14.00,-31.00,-34.00,+6.00,+42.00,+13.00,+6.00,+19.00,+28.00,+23.00
+11.00,-2.00,+23.00,+10.00,+6.00,+13.00,+32.00,+32.00,+10.00,+14.00,+93.00,+19.00,+3.00,+21.00,+1.00,-14.00
+0.00,+9.00,-11.00,-8.00,+0.00,+9.00,-1.00,-42.00,+23.00,+8.00,-50.00,-4.00,+0.00,-28.00,+31.00,+17.00
+10.00,-6.00,-6.00,+2.00,+3.00,+7.00,-9.00,+5.00,+11.00,-13.00,-10.00,-12.00,-9.00,-1.00,-36.00,-20.00
-24.00,-6.00,+2.00,-7.00,-6.00,-14.00,-14.00,-43.00,-5.00,-9.00,-56.00,-13.00,+1.00,+68.00,-24.00,+1.00
+6.00,-8.00,+2.00,-3.00,+1.00,-10.00,+9.00,+29.00,-10.00,+6.00,+1.00,-4.00,-8.00,-56.00,-4.00,-12.00
-8.00,+16.00,+2.00,-6.00,-6.00,-1.00,-6.00,-35.00,-11.00,-27.00,+15.00,-6.00,-13.00,-11.00,-2.00,+25.00
-2.00,-16.00,-15.00,-1.00,-2.00,-6.00,-6.00,+70.00,+19.00,+23.00,+28.00,+8.00,+7.00,+8.00,+18.00,-9.00
+10.00,-17.00,-22.00,-8.00,-4.00,+2.00,-14.00,+8.00,-4.00,-18.00,+7.00,+4.00,+0.00,+21.00,+25.00,+15.00
-55.00,-4.00,-42.00,-17.00,-9.00,-2.00,+4.00,+37.00,-5.00,+22.00,+8.00,+3.00,+6.00,-12.00,-49.00,-1.00
-27.00,-7.00,+50.00,+11.00,-3.00,-6.00,-5.00,-26.00,-2.00,-27.00,-21.00,-2.00,-9.00,+0.00,-10.00,-34.00
+0.00,-3.00,-24.00,+7.00,+4.00,-1.00,-6.00,-55.00,+0.00,+12.00,-8.00,-2.00,+5.00,+3.00,+25.00,+51.00
+7.00,-6.00,-25.00,-15.00,-11.00,-2.00,-24.00,-52.00,-21.00,-41.00,+27.00,+11.00,+2.00,-6.00,-45.00,-11.00
+18.00,+25.00,-3.00,+9.00,+5.00,+4.00,+15.00,+102.00,+20.00,+42.00,+55.00,+14.00,+5.00,+5.00,+42.00,+8.00
+57.00,-18.00,-36.00,-10.00,-3.00,-7.00,-4.00,+97.00,+1.00,+5.00,-20.00,+7.00,+8.00,+17.00,+8.00,+5.00
-36.00,+10.00,+3.00,+0.00,+0.00,+1.00,+7.00,-8.00,+39.00,+18.00,-60.00,-32.00,-3.00,+9.00,+11.00,+4.00
-25.00,-14.00,-6.00,-1.00,+5.00,+3.00,-7.00,-36.00,-32.00,-14.00,+89.00,+18.00,+1.00,-30.00,-33.00,+5.00
+44.00,+9.00,+62.00,+7.00,-1.00,-5.00,-2.00,-53.00,+7.00,-31.00,-30.00,-2.00,-4.00,-1.00,+28.00,-14.00
-31.00,+5.00,-31.00,-6.00,+6.00,+17.00,+31.00,-11.00,-26.00,+7.00,-9.00,-23.00,-10.00,-3.00,-46.00,-5.00
+41.00,-11.00,+15.00,-3.00,-6.00,-15.00,-26.00,+65.00,+19.00,-20.00,+29.00,-2.00,+0.00,+6.00,+11.00,-4.00
-27.00,-3.00,-48.00,-10.00,-5.00,-1.00,+14.00,+62.00,+12.00,+44.00,+44.00,+17.00,+5.00,-53.00,+39.00,+30.00
-9.00,-16.00,+16.00,-4.00,-5.00,-8.00,-26.00,-57.00,+7.00,-6.00,-1.00,+4.00,-3.00,-11.00,+3.00,+27.00
+10.00,-12.00,+0.00,+2.00,+2.00,+6.00,+17.00,+110.00,+23.00,+5.00,+14.00,+8.00,+12.00,+36.00,-2.00,-11.00
-22.00,-8.00,+1.00,-6.00,-7.00,-5.00,+5.00,-51.00,-8.00,-13.00,-20.00,-8.00,-11.00,-25.00,-50.00,-22.00
+14.00,+9.00,+16.00,+11.00,+11.00,+7.00,+2.00,-16.00,+2.00,-3.00,+38.00,+0.00,-5.00,+7.00,-25.00,-46.00
-27.00,-8.00,-15.00,-12.00,-8.00,-5.00,-4.00,-78.00,-12.00,-6.00,-55.00,-14.00,-4.00,-13.00,+46.00,+47.00
+19.00,+20.00,+21.00,+12.00,+0.00,-6.00,-16.00,+61.00,+1.00,+2.00,-12.00,-2.00,+1.00,-1.00,-32.00,-31.00
-19.00,+1.00,-5.00,-11.00,-3.00,+2.00,+10.00,-37.00,-19.00,+0.00,+3.00,+2.00,+0.00,+14.00,+12.00,+21.00
+29.00,+21.00,+20.00,+3.00,+2.00,+1.00,-3.00,+61.00,+15.00,-8.00,-21.00,-3.00,+2.00,+5.00,+21.00,-21.00
-9.00,-20.00,-31.00,-2.00,+0.00,+0.00,+7.00,-33.00,-19.00,-14.00,+17.00,+1.00,-4.00,-22.00,+42.00,-15.00
-33.00,-32.00,-9.00,-10.00,-8.00,-9.00,-20.00,-62.00,+7.00,-6.00,-29.00,-5.00,+4.00,+7.00,-73.00,-5.00
+37.00,+41.00,+6.00,+5.00,+1.00,-13.00,-20.00,-83.00,-24.00,-7.00,+21.00,+9.00,+3.00,-24.00,+9.00,-20.00
-40.00,-18.00,-44.00,-10.00,-7.00,+22.00,+17.00,-7.00,-4.00,-7.00,-38.00,-8.00,-5.00,-15.00,-3.00,-3.00
+15.00,+18.00,-9.00,+4.00,-2.00,-2.00,+7.00,+14.00,+13.00,-6.00,+3.00,+8.00,+0.00,+16.00,-4.00,+14.00
+25.00,+3.00,+8.00,+6.00,+8.00,-11.00,+4.00,+35.00,+19.00,+30.00,+28.00,-7.00,-8.00,-12.00,+2.00,-2.00
-25.00,-43.00,-64.00,-6.00,-5.00,-4.00,+12.00,+20.00,-17.00,+3.00,+4.00,+5.00,+3.00,+3.00,+5.00,-22.00
+11.00,+12.00,+40.00,+9.00,+7.00,-9.00,-3.00,+51.00,+13.00,+0.00,+9.00,-7.00,-11.00,-11.00,+20.00,+23.00
+65.00,+24.00,+0.00,-2.00,+0.00,+7.00,-18.00,+98.00,-10.00,+2.00,-46.00,-5.00,+2.00,+4.00,-11.00,-24.00
-44.00,-8.00,+27.00,+9.00,+1.00,+24.00,+22.00,-50.00,+5.00,-10.00,+9.00,+1.00,+3.00,+19.00,+2.00,+22.00
+5.00,+0.00,-34.00,+2.00,+6.00,+0.00,+13.00,-3.00,-6.00,-13.00,-18.00,-12.00,-14.00,+0.00,-4.00,+1.00
-22.00,+5.00,+32.00,+7.00,+1.00,+27.00,+8.00,+15.00,-11.00,-11.00,-5.00,+1.00,+7.00,-48.00,-8.00,-31.00
-28.00,+9.00,-10.00,-3.00,-1.00,-5.00,-21.00,-42.00,+20.00,+51.00,+48.00,+9.00,-2.00,-5.00,-18.00,+34.00
+9.00,+22.00,-7.00,-7.00,-1.00,-5.00,-5.00,+46.00,+1.00,-20.00,-53.00,-24.00,-4.00,+41.00,+14.00,+9.00
-13.00,-26.00,+21.00,+0.00,+1.00,+2.00,-5.00,-2.00,-8.00,-3.00,-36.00,-5.00,-6.00,-73.00,-36.00,-25.00
+7.00,-10.00,+9.00,-4.00,+1.00,-7.00,+18.00,-61.00,+8.00,+0.00,-1.00,-8.00,-5.00,+12.00,-28.00,+10.00
-43.00,-12.00,+5.00,+9.00,-2.00,+12.00,+1.00,+2.00,-18.00,-16.00,-1.00,-4.00,+0.00,+13.00,-19.00,-7.00
-39.00,+2.00,+37.00,+3.00,-1.00,-4.00,-7.00,-21.00,-13.00,+10.00,+30.00,+12.00,-6.00,-22.00,+14.00,+19.00
+9.00,+4.00,-12.00,-6.00,-3.00,-2.00,+1.00,-2.00,-10.00,+11.00,+52.00,+13.00,+13.00,+58.00,+21.00,+18.00
+8.00,-16.00,+5.00,+1.00,-5.00,-12.00,-9.00,+7.00,+11.00,-17.00,-1.00,+3.00,+3.00,-6.00,+11.00,-16.00
+5.00,-14.00,-32.00,-1.00,+0.00,-10.00,-7.00,-37.00,+0.00,+0.00,-104.00,-33.00,-20.00,-8.00,-60.00,-43.00
+45.00,+5.00,-63.00,-14.00,-5.00,+18.00,+13.00,-52.00,-23.00,-7.00,+22.00,+13.00,+11.00,+10.00,+45.00,+23.00
-35.00,+7.00,+64.00,+11.00,+2.00,-4.00,+3.00,+58.00,+6.00,-18.00,-12.00,+1.00,+0.00,+3.00,-23.00,-13.00
-2.00,+16.00,+1.00,+6.00,+0.00,+21.00,+7.00,-22.00,-2.00,+28.00,-9.00,+0.00,+1.00,+11.00,+13.00,+29.00
+23.00,+7.00,+27.00,-11.00,+0.00,+6.00,+13.00,+58.00,-8.00,-12.00,+3.00,-4.00,-1.00,-17.00,-21.00,-41.00
-26.00,-39.00,-48.00,+0.00,-7.00,-8.00,-40.00,-46.00,-3.00,+2.00,+83.00,+20.00,+5.00,+36.00,+68.00,+17.00
+27.00,+0.00,-3.00,-10.00,-6.00,-56.00,-16.00,+70.00,+10.00,+0.00,+1.00,-6.00,-14.00,-53.00,-39.00,-24.00
+7.00,+3.00,-41.00,-3.00,-4.00,-37.00,-5.00,+16.00,-33.00,-22.00,-32.00,-14.00,-9.00,-49.00,-29.00,+1.00
+9.00,+13.00,+65.00,+13.00,+9.00,+48.00,+32.00,+47.00,-8.00,-18.00,+28.00,+6.00,-3.00,+11.00,+25.00,+1.00
+11.00,-1.00,-49.00,-22.00,+1.00,+49.00,+25.00,-78.00,+19.00,+24.00,-39.00,-6.00,+8.00,+42.00,-10.00,+0.00
-34.00,-3.00,+11.00,+1.00,-5.00,+8.00,-29.00,-8.00,+5.00,+6.00,+43.00,+15.00,+7.00,-45.00,+32.00,-44.00
-29.00,-26.00,-8.00,-8.00,-8.00,-14.00,-6.00,-73.00,+3.00,+36.00,-17.00,-4.00,+13.00,+124.00,+33.00,+59.00
+7.00,-11.00,-22.00,+3.00,-3.00,-21.00,-11.00,+99.00,-5.00,-50.00,-67.00,-20.00,-27.00,-99.00,-38.00,-52.00
+49.00,-20.00,-53.00,-14.00,-2.00,-20.00,-13.00,+8.00,-18.00,-42.00,+57.00,+13.00,-23.00,-128.00,-47.00,+25.00
+7.00,-5.00,+89.00,+25.00,+4.00,+6.00,+2.00,-83.00,+22.00,-20.00,-81.00,-27.00,+6.00,+86.00,+37.00,+64.00
+29.00,+71.00,+2.00,+2.00,+4.00,+11.00,+10.00,+52.00,-4.00,-25.00,-17.00,-4.00,+5.00,+25.00,+16.00,-55.00
+1.00,-3.00,+22.00,+7.00,-1.00,-8.00,-23.00,-52.00,+6.00,+34.00,+43.00,+22.00,+29.00,+33.00,+32.00,+42.00
-6.00,+1.00,+34.00,+10.00,+5.00,-14.00,+23.00,+2.00,+5.00,+36.00,+18.00,+8.00,+7.00,+29.00,+71.00,-32.00
+1.00,-25.00,-45.00,-6.00,-2.00,+2.00,-1.00,-53.00,+2.00,-18.00,-23.00,-7.00,-4.00,-8.00,+9.00,+31.00
+38.00,-6.00,-14.00,-3.00,-6.00,+11.00,-2.00,+51.00,-7.00,+10.00,+34.00,+9.00,+5.00,-12.00,-36.00,+14.00
-54.00,-21.00,+4.00,+0.00,-4.00,+5.00,-35.00,-103.00,+9.00,+15.00,-6.00,-9.00,+6.00,+39.00,+24.00,-7.00
+0.00,+64.00,-6.00,-7.00,+1.00,-14.00,+0.00,+72.00,-22.00,-22.00,+2.00,+17.00,+7.00,-5.00,-30.00,+38.00
-9.00,-2.00,+1.00,+1.00,+1.00,-5.00,+27.00,+31.00,+26.00,+17.00,-26.00,-18.00,-14.00,-54.00,+23.00,-1.00
-11.00,-3.00,+39.00,+8.00,-1.00,-35.00,+0.00,+90.00,-2.00,+6.00,+1.00,+6.00,-4.00,+35.00,+5.00,-47.00
+14.00,+1.00,-65.00,-17.00,-6.00,+34.00,+6.00,-111.00,-11.00,-45.00,-26.00,-7.00,-10.00,-55.00,+29.00,-36.00
-13.00,-22.00,+23.00,+0.00,-6.00,+9.00,-25.00,-57.00,+0.00,+33.00,+66.00,+19.00,+9.00,+59.00,-34.00,+7.00
+9.00,+21.00,-4.00,-3.00,+2.00,+21.00,-4.00,-36.00,+11.00,+20.00,+28.00,-2.00,-2.00,-67.00,+64.00,+30.00
-9.00,-21.00,-16.00,+3.00,+3.00,-1.00,+3.00,-26.00,+3.00,-26.00,-77.00,-17.00,-8.00,-3.00,-103.00,-11.00
-29.00,+10.00,-42.00,-4.00,+0.00,-49.00,+8.00,+66.00,+5.00,+8.00,+45.00,+7.00,+2.00,+25.00,+81.00,+46.00
-32.00,-6.00,-31.00,-3.00,+0.00,+42.00,+23.00,-102.00,-29.00,-19.00,+1.00,+2.00,-2.00,-28.00,-27.00,-83.00
+7.00,-8.00,-84.00,-13.00,-4.00,-2.00,-5.00,+71.00,-6.00,-32.00,-7.00,-5.00,-9.00,+44.00,-2.00,-11.00
+35.00,+14.00,+37.00,+10.00,+0.00,-16.00,-26.00,+23.00,+1.00,+8.00,+6.00,-2.00,-7.00,-54.00,-10.00,-15.00
+16.00,+0.00,+1.00,+5.00,+3.00,+22.00,+10.00,-3.00,+0.00,+38.00,+43.00,+9.00,+13.00,+82.00,-7.00,+19.00
-3.00,-30.00,-20.00,-8.00,-3.00,-7.00,+8.00,-24.00,+16.00,-1.00,+25.00,+11.00,+8.00,-9.00,-4.00,-24.00
-78.00,+7.00,-6.00,+5.00,+2.00,+6.00,-5.00,-55.00,-15.00,-33.00,-40.00,-27.00,-29.00,-38.00,-91.00,-13.00
+9.00,-11.00,-46.00,-11.00,-8.00,-27.00,-13.00,-87.00,-6.00,+32.00,-55.00,-19.00,-6.00,-15.00,+32.00,+21.00
+5.00,-27.00,-85.00,-16.00,-4.00,-11.00,-38.00,-118.00,+28.00,-31.00,-34.00,-20.00,-19.00,-47.00,-68.00,-9.00
+77.00,+77.00,+114.00,+29.00,+9.00,+29.00,+23.00,+116.00,-13.00,+19.00,+93.00,+21.00,+9.00,+29.00,+54.00,+7.00
-1.00,-32.00,-4.00,-2.00,+4.00,+58.00,+20.00,-19.00,-25.00,+49.00,-54.00,-1.00,+15.00,+44.00,+1.00,+63.00
-11.00,+10.00,+71.00,+11.00,+4.00,+4.00,+10.00,-57.00,+4.00,-51.00,-21.00,-2.00,+7.00,+54.00,-28.00,-29.00
-29.00,-7.00,+29.00,+4.00,-5.00,-48.00,+0.00,+84.00,+4.00,+42.00,+57.00,+32.00,+23.00,-3.00,+36.00,+3.00
-10.00,-18.00,-40.00,-5.00,-1.00,-34.00,-13.00,-19.00,-9.00,-22.00,-128.00,-51.00,-38.00,-74.00,-25.00,+11.00
+35.00,-6.00,-23.00,-3.00,+9.00,-12.00,+25.00,+18.00,+4.00,+9.00,+11.00,-1.00,-7.00,-4.00,+4.00,-28.00
+7.00,+10.00,-23.00,-3.00,+1.00,-20.00,-18.00,-15.00,+12.00,-9.00,-3.00,+3.00,-8.00,-59.00,+19.00,+28.00
+26.00,-5.00,+45.00,+16.00,+2.00,+33.00,-1.00,+83.00,-18.00,-1.00,-15.00,-12.00,+4.00,+42.00,-49.00,-21.00
+7.00,+22.00,+46.00,-8.00,-2.00,-20.00,-1.00,+127.00,+29.00,+9.00,+28.00,+9.00,+20.00,+52.00,-65.00,-27.00
-36.00,-4.00,+43.00,+4.00,+4.00,-8.00,-8.00,+77.00,-1.00,+4.00,+64.00,+23.00,+11.00,-31.00,+46.00,+30.00
+12.00,-18.00,+20.00,+6.00,+2.00,+17.00,-14.00,-73.00,+11.00,-15.00,+45.00,-5.00,-13.00,-33.00,-3.00,-10.00
+42.00,+7.00,-48.00,-8.00,+0.00,-20.00,+52.00,+76.00,-13.00,-3.00,-93.00,-25.00,-19.00,-17.00,-7.00,+28.00
-39.00,+17.00,+114.00,+7.00,+3.00,+30.00,-2.00,-64.00,-7.00,-19.00,+44.00,-8.00,-21.00,-26.00,-53.00,-74.00
+47.00,+18.00,-8.00,-2.00,-11.00,-52.00,-28.00,-23.00,+4.00,-6.00,-34.00,-2.00,+12.00,+16.00,-50.00,-15.00
-63.00,-12.00,-7.00,-6.00,+5.00,+86.00,+9.00,-7.00,-2.00,+27.00,+25.00,+8.00,+23.00,+54.00,+81.00,+1.00
+17.00,+32.00,+66.00,+0.00,-5.00,+15.00,-2.00,-20.00,-19.00,+34.00,+106.00,+26.00,+7.00,-17.00,-42.00,-17.00
-14.00,-5.00,-18.00,-1.00,-1.00,-18.00,-2.00,+28.00,+8.00,+12.00,-21.00,-8.00,+7.00,+53.00,+84.00,+92.00
+36.00,-11.00,-70.00,-13.00,-6.00,-27.00,+27.00,+50.00,-4.00,-84.00,-16.00,-16.00,-10.00,-18.00,+19.00,-28.00
+7.00,+48.00,+32.00,-8.00,-1.00,+76.00,+5.00,+0.00,-2.00,+45.00,+53.00,-5.00,-14.00,-59.00,-3.00,+8.00
-62.00,-65.00,-40.00,-1.00,-3.00,-4.00,+2.00,-115.00,-17.00,+0.00,-12.00,-8.00,-1.00,-9.00,-27.00,-43.00
-4.00,-17.00,-88.00,-3.00,-7.00,-40.00,-77.00,-59.00,-11.00,+22.00,+34.00,+8.00,+6.00,+32.00,+65.00,-15.00
+58.00,+44.00,+19.00,+14.00,+10.00,-19.00,+23.00,+56.00,+14.00,-1.00,+11.00,+23.00,+18.00,+13.00,+22.00,+13.00
-54.00,+8.00,+80.00,+3.00,+1.00,-18.00,-1.00,-80.00,-37.00,+1.00,+43.00,+21.00,-7.00,+2.00,-22.00,-31.00
-11.00,-14.00,-47.00,-22.00,-11.00,-12.00,+1.00,+46.00,+46.00,+36.00,-62.00,-25.00,-7.00,-5.00,+70.00,+24.00
-10.00,-13.00,+22.00,+2.00,-2.00,-34.00,-9.00,+20.00,+62.00,-10.00,-62.00,+4.00,+16.00,+32.00,+25.00,+65.00
-70.00,-28.00,-69.00,-19.00,-12.00,-38.00,-39.00,-128.00,-77.00,+16.00,+45.00,+2.00,-9.00,-25.00,-75.00,-4.00
+103.00,+29.00,+15.00,+8.00,-3.00,-59.00,-5.00,+127.00,+1.00,-6.00,-8.00,-10.00,-14.00,-71.00,+70.00,-45.00
+25.00,+35.00,+87.00,+12.00,+13.00,-10.00,+38.00,+16.00,-15.00,-1.00,+38.00,+14.00,+13.00,+52.00,-29.00,+33.00
-55.00,-2.00,+32.00,+14.00,+2.00,-41.00,+4.00,-43.00,-9.00,-19.00,-26.00,-1.00,+7.00,-57.00,+10.00,-38.00
-28.00,-25.00,-33.00,-10.00,-2.00,+16.00,-27.00,-128.00,+27.00,+46.00,+68.00,+33.00,+24.00,+98.00,+62.00,+89.00
-2.00,-27.00,-69.00,-14.00,-5.00,+0.00,+18.00,+66.00,+17.00,-44.00,-66.00,-3.00,-14.00,-4.00,-24.00,-40.00
-31.00,-25.00,-59.00,-6.00,-7.00,-4.00,+5.00,-61.00,-24.00,-51.00,+30.00,+2.00,+12.00,-92.00,-53.00,+71.00
+51.00,+21.00,+35.00,-3.00,-10.00,-23.00,-14.00,+103.00,-2.00,-6.00,-69.00,-34.00,-36.00,-66.00,-10.00,-19.00
+4.00,+13.00,-13.00,+12.00,+11.00,+53.00,-2.00,+62.00,+14.00,+24.00,+33.00,-5.00,-15.00,+10.00,-4.00,-1.00
-61.00,-7.00,+37.00,+16.00,-5.00,-50.00,-27.00,-103.00,-7.00,-11.00,+33.00,+18.00,+29.00,+46.00,-26.00,-62.00
+86.00,+27.00,+22.00,+5.00,+3.00,+10.00,+17.00,+28.00,+22.00,-19.00,-52.00,-3.00,-11.00,+17.00,-1.00,+55.00
-47.00,+21.00,-17.00,-9.00,-3.00,+32.00,+4.00,-51.00,-39.00,-22.00,+14.00,+13.00,+16.00,+67.00,-85.00,-104.00
-12.00,+26.00,+56.00,+18.00,+1.00,-7.00,-6.00,-17.00,+6.00,+12.00,-40.00,+2.00,-7.00,-40.00,+51.00,+70.00
+1.00,-51.00,-58.00,-6.00,+5.00,+0.00,+19.00,+96.00,+30.00,+66.00,-67.00,-45.00,-22.00,-1.00,-41.00,+67.00
-88.00,-69.00,-108.00,-32.00,-15.00,-81.00,-27.00,-7.00,+16.00,-12.00,+71.00,+16.00,-8.00,-44.00,+45.00,-37.00
+0.00,+45.00,+88.00,+28.00,+5.00,+83.00,+24.00,+41.00,-40.00,+16.00,+0.00,-9.00,-3.00,+1.00,-73.00,-73.00
-4.00,+42.00,+113.00,+6.00,+1.00,+10.00,-11.00,-24.00,-20.00,+32.00,-7.00,+6.00,-1.00,-21.00,-39.00,-89.00
+53.00,-6.00,-63.00,+8.00,+7.00,-16.00,+24.00,+79.00,+28.00,-6.00,+25.00,+6.00,+9.00,+15.00,+20.00,+48.00
-7.00,-11.00,-47.00,-8.00,+1.00,+6.00,+11.00,-78.00,-9.00,+29.00,+72.00,+27.00,+18.00,+66.00,+22.00,-5.00
-11.00,+1.00,-35.00,-18.00,-12.00,-7.00,-53.00,-114.00,+25.00,+31.00,-65.00,-18.00,-25.00,-13.00,-8.00,-24.00
+61.00,-22.00,-9.00,-7.00,-14.00,-46.00,-20.00,+58.00,-2.00,-38.00,+75.00,-32.00,-9.00,+27.00,+74.00,-22.00
+13.00,-17.00,-52.00,-12.00,+4.00,+91.00,+42.00,+33.00,-6.00,-9.00,+33.00,+1.00,+4.00,-20.00,-45.00,+89.00
+5.00,+36.00,+127.00,+13.00,+6.00,+65.00,-32.00,-76.00,-31.00,-7.00,+62.00,+9.00,+10.00,+25.00,-63.00,-44.00
+51.00,+2.00,-45.00,+7.00,+17.00,+52.00,+40.00,+81.00,-29.00,-19.00,+55.00,+34.00,+18.00,+3.00,+113.00,+96.00
+2.00,-7.00,-85.00,-15.00,-1.00,+13.00,+29.00,-58.00,+55.00,+36.00,+49.00,+32.00,+19.00,+77.00,-74.00,-126.00
+60.00,+6.00,+4.00,+0.00,+1.00,-16.00,-32.00,-19.00,-5.00,+28.00,-1.00,+0.00,-17.00,-46.00,+3.00,+31.00
+62.00,+5.00,+58.00,+13.00,-2.00,-22.00,-10.00,+29.00,-13.00,-40.00,-54.00,-23.00,-52.00,-48.00,+83.00,-44.00
-18.00,-11.00,-51.00,-9.00,-4.00,-30.00,-41.00,-128.00,+22.00,-15.00,-23.00,-21.00,+9.00,-33.00,+79.00,+109.00
+11.00,-47.00,-37.00,-6.00,-6.00,+5.00,+3.00,-69.00,-16.00,-38.00,+6.00,+0.00,-7.00,-33.00,-5.00,+6.00
+21.00,+45.00,+55.00,+0.00,-8.00,+16.00,-3.00,+96.00,+1.00,-3.00,-4.00,+1.00,+6.00,+34.00,+5.00,+35.00
-42.00,+16.00,-17.00,+22.00,+9.00,-62.00,-10.00,-35.00,-15.00,+59.00,+5.00,+23.00,+8.00,+23.00,-17.00,-39.00
+30.00,+4.00,+2.00,+5.00,+6.00,+37.00,+44.00,+104.00,+16.00,-5.00,+7.00,+3.00,+24.00,+49.00,-104.00,-64.00
+5.00,-3.00,-45.00,-10.00,-8.00,-22.00,+13.00,+28.00,+4.00,+5.00,-26.00,-4.00,+3.00,+43.00,+67.00,+98.00
-45.00,-14.00,+26.00,-3.00,-3.00,+1.00,-38.00,-128.00,-10.00,-9.00,+9.00,+18.00,-4.00,-42.00,-54.00,-75.00
-42.00,-29.00,-61.00,-26.00,-21.00,-74.00,-44.00,-14.00,-8.00,-35.00,-128.00,-58.00,-23.00,-1.00,+65.00,+13.00
+78.00,-8.00,-8.00,+33.00,+20.00,-113.00,-46.00,+117.00,-34.00,-21.00,-40.00,-25.00,-38.00,-99.00,-50.00,+10.00
+16.00,+91.00,+108.00,+16.00,+31.00,+89.00,+67.00,-36.00,-15.00,-11.00,+23.00,+14.00,+55.00,+41.00,-35.00,-85.00
-49.00,+18.00,-26.00,+10.00,-13.00,+72.00,-2.00,-119.00,-11.00,+25.00,+50.00,+27.00,+36.00,+61.00,+108.00,+60.00
+32.00,+14.00,+15.00,+7.00,+5.00,+39.00,+12.00,+89.00,-3.00,-26.00,+70.00,+5.00,-10.00,+96.00,-56.00,-28.00
-86.00,-54.00,-94.00,-14.00,-7.00,+4.00,+31.00,-117.00,+34.00,+53.00,-52.00,+24.00,+49.00,-32.00,-45.00,-32.00
-17.00,-21.00,+39.00,-12.00,-11.00,-39.00,-64.00,+2.00,-31.00,-78.00,-9.00,-34.00,-115.00,-116.00,-96.00,-80.00
-16.00,+22.00,+42.00,+12.00,+12.00,-89.00,+16.00,+69.00,+7.00,-9.00,-60.00,-45.00,-56.00,-2.00,+69.00,+22.00
-30.00,-8.00,-59.00,-5.00,+2.00,+87.00,+5.00,-57.00,+12.00,-15.00,+23.00,+9.00,+20.00,-6.00,-23.00,+52.00
-1.00,-16.00,+19.00,-15.00,-23.00,-7.00,-10.00,-84.00,+23.00,-19.00,+75.00,+16.00,+1.00,+103.00,+111.00,+99.00
-64.00,-34.00,-33.00,-12.00,-14.00,-51.00,-3.00,+75.00,-12.00,+1.00,+32.00,+28.00,+85.00,+5.00,-43.00,-46.00
-17.00,+38.00,-20.00,-8.00,-3.00,+6.00,+31.00,+62.00,+3.00,-7.00,-20.00,-2.00,-49.00,-59.00,-105.00,-112.00
-11.00,-14.00,-45.00,-6.00,+2.00,+32.00,+3.00,+0.00,+1.00,-2.00,-28.00,-14.00,+24.00,-27.00,-18.00,+77.00
+6.00,+50.00,+75.00,+4.00,+11.00,+9.00,+20.00,-10.00,+13.00,-1.00,+32.00,+10.00,-29.00,+81.00,+29.00,-2.00
+44.00,-14.00,-105.00,+3.00,-8.00,+32.00,-40.00,-121.00,+10.00,-7.00,+16.00,+20.00,+29.00,+57.00,+92.00,-5.00
-16.00,-39.00,+9.00,-16.00,-16.00,-93.00,-55.00,-113.00,-10.00,-9.00,+45.00,-12.00,-37.00,-85.00,-25.00,-50.00
+76.00,+47.00,+91.00,+25.00,+13.00,-28.00,+29.00,+127.00,+5.00,-54.00,-12.00,-8.00,-19.00,-10.00,+22.00,-25.00
+46.00,-28.00,-103.00,-9.00,+4.00,+69.00,+37.00,+57.00,-7.00,+56.00,+116.00,+10.00,-17.00,-70.00,-30.00,+53.00
-43.00,-18.00,+54.00,-5.00,-11.00,+60.00,+10.00,-36.00,+41.00,-4.00,-42.00,-28.00,-12.00,-19.00,+0.00,-61.00
-10.00,+10.00,-11.00,+3.00,-3.00,-96.00,-43.00,-102.00,-39.00,-94.00,+27.00,-1.00,+43.00,+99.00,+20.00,-19.00
-1.00,+24.00,+82.00,-5.00,+2.00,+89.00,+6.00,-43.00,+30.00,+92.00,+92.00,+24.00,+15.00,-10.00,-105.00,-31.00
+19.00,-58.00,-63.00,-21.00,-9.00,-18.00,+4.00,-128.00,-23.00,-39.00,-97.00,-43.00,-36.00,-84.00,+24.00,+83.00
+24.00,+22.00,-23.00,+8.00,-9.00,-26.00,-73.00,+127.00,+10.00,+68.00,+27.00,-3.00,-1.00,-16.00,-24.00,+11.00
-40.00,-59.00,-28.00,-4.00,+13.00,+62.00,+40.00,-18.00,+26.00,+5.00,-3.00,+23.00,+22.00,+82.00,+58.00,+54.00
-27.00,+3.00,+12.00,-3.00,-13.00,-24.00,-17.00,-54.00,-9.00,-56.00,+63.00,+19.00,-7.00,-63.00,-30.00,-34.00
-51.00,-57.00,-112.00,-21.00,+1.00,-7.00,+0.00,-16.00,-35.00,-23.00,+11.00,-21.00,+6.00,-15.00,+41.00,-127.00
-6.00,+13.00,+72.00,-9.00,-12.00,-1.00,-28.00,-87.00,-15.00,+19.00,-70.00,-21.00,-26.00,-2.00,-95.00,-5.00
+54.00,+22.00,+75.00,+18.00,+4.00,-18.00,+12.00,+19.00,+75.00,+25.00,-30.00,-9.00,+33.00,+40.00,+61.00,+86.00
+58.00,+0.00,+16.00,+7.00,+5.00,-20.00,+5.00,+85.00,-19.00,-8.00,-97.00,-34.00,-29.00,-22.00,+62.00,+9.00
+35.00,+22.00,-6.00,+1.00,-1.00,+3.00,+24.00,+82.00,+20.00,+29.00,+77.00,+21.00,-17.00,-15.00,-39.00,-26.00
-53.00,-39.00,-78.00,-13.00,+8.00,+14.00,+19.00,-23.00,-34.00,-13.00,+67.00,+25.00,+32.00,+61.00,+21.00,+7.00
-38.00,-33.00,-25.00,-4.00,-7.00,+4.00,+3.00,-59.00,-9.00,+10.00,-67.00,-31.00,+7.00,-18.00,-7.00,-63.00
-5.00,-15.00,-103.00,-13.00,-5.00,-29.00,-63.00,-41.00,+26.00,-21.00,-67.00,-15.00,-60.00,-59.00,-88.00,-58.00
-19.00,+73.00,+112.00,+20.00,+0.00,+0.00,+0.00,-3.00,+9.00,-5.00,-6.00,-14.00,+45.00,+1.00,+11.00,+5.00
-28.00,+13.00,-53.00,-8.00,+5.00,+5.00,+10.00,+103.00,+21.00,-28.00,+22.00,+11.00,-10.00,-16.00,+20.00,+42.00
+90.00,-9.00,+3.00,-2.00,+4.00,+12.00,+22.00,+114.00,-34.00,+37.00,+47.00,+18.00,+23.00,+38.00,+20.00,+2.00
-65.00,-35.00,-128.00,-21.00,-4.00,-18.00,-2.00,-57.00,-20.00,+7.00,+45.00,+12.00,-18.00,+28.00,+52.00,-13.00
-1.00,+12.00,+70.00,+17.00,+7.00,-43.00,-1.00,-58.00,-23.00,-25.00,+9.00,+0.00,-93.00,-40.00,-79.00,-52.00
-30.00,+17.00,+9.00,+17.00,+8.00,+67.00,+39.00,-60.00,+10.00,-25.00,+61.00,-13.00,+66.00,+2.00,-29.00,-21.00
-114.00,-8.00,-111.00,-12.00,+4.00,-4.00,-7.00,-67.00,-1.00,+17.00,+20.00,-12.00,-10.00,-19.00,-9.00,-9.00
-35.00,+10.00,-52.00,-17.00,-13.00,-88.00,-12.00,+8.00,+18.00,+12.00,+52.00,+21.00,-12.00,+20.00,-33.00,+26.00
+60.00,-15.00,+14.00,-3.00,+4.00,-6.00,-29.00,-20.00,+10.00,-19.00,-73.00,-44.00,+28.00,+37.00,-25.00,+39.00
+35.00,+10.00,-35.00,+2.00,+6.00,-16.00,+60.00,+40.00,-38.00,+11.00,-53.00,-36.00,-63.00,-58.00,+69.00,+14.00
+37.00,-34.00,-20.00,-21.00,-15.00,-31.00,+8.00,+84.00,-7.00,-18.00,+97.00,+40.00,+11.00,-23.00,+58.00,+92.00
-34.00,+37.00,+108.00,+31.00,+11.00,+39.00,-10.00,-128.00,-1.00,+1.00,+75.00,+19.00,+44.00,+105.00,-22.00,-55.00
+8.00,+16.00,-51.00,-15.00,-12.00,-17.00,+27.00,+127.00,+1.00,-34.00,-57.00,-11.00,+27.00,+11.00,+13.00,+78.00
-9.00,-14.00,-40.00,-5.00,-3.00,-4.00,-20.00,-61.00,-6.00,+6.00,-50.00,-12.00,-39.00,-88.00,-41.00,-42.00
-40.00,-38.00,-62.00,-14.00,-2.00,+38.00,-16.00,+13.00,-14.00,-58.00,+31.00,-18.00,-13.00,+51.00,-62.00,-79.00
-10.00,-25.00,+79.00,-10.00,-18.00,-53.00,-14.00,-6.00,+15.00,+65.00,-117.00,-12.00,+53.00,-38.00,+101.00,+98.00
+65.00,+46.00,+94.00,+32.00,+8.00,-23.00,+47.00,+8.00,-28.00,-22.00,+52.00,+24.00,+6.00,+27.00,+4.00,+32.00
-17.00,-40.00,-120.00,-19.00,-1.00,-27.00,-12.00,-92.00,-10.00,-2.00,+12.00,+7.00,-5.00,+14.00,+27.00,-69.00
-6.00,+17.00,+23.00,+18.00,+1.00,-48.00,+24.00,+42.00,+3.00,+23.00,+28.00,+26.00,+10.00,+25.00,-32.00,+53.00
-28.00,-21.00,-62.00,-2.00,+7.00,+20.00,-12.00,-5.00,+4.00,+2.00,+14.00,+1.00,-4.00,+46.00,+26.00,+10.00
-44.00,-7.00,+11.00,-7.00,-10.00,+23.00,-2.00,-70.00,+9.00,-19.00,-106.00,-43.00,+5.00,-36.00,-16.00,-48.00
-30.00,-40.00,-40.00,-5.00,-8.00,-103.00,-29.00,-56.00,-11.00,-22.00,+34.00,-3.00,-11.00,+12.00,+44.00,+63.00
+60.00,+54.00,+54.00,+30.00,+9.00,+77.00,-3.00,+61.00,+18.00,+12.00,-128.00,-55.00,-55.00,-87.00,-10.00,+55.00
+0.00,+26.00,+56.00,+1.00,+5.00,+52.00,-8.00,-66.00,-15.00,-1.00,+26.00,+11.00,+6.00,-57.00,-42.00,-56.00
+8.00,-7.00,-49.00,+3.00,+10.00,-1.00,+49.00,+127.00,+6.00,-2.00,+58.00,+28.00,-4.00,+16.00,+33.00,-5.00
+10.00,+18.00,+67.00,+8.00,-4.00,+3.00,+13.00,-42.00,+10.00,+54.00,+24.00,+12.00,+74.00,+127.00,+26.00,+13.00
-11.00,-13.00,+25.00,-10.00,-12.00,+62.00,-16.00,-63.00,+5.00,+5.00,-26.00,-11.00,-32.00,-58.00,-38.00,-102.00
-34.00,-18.00,-114.00,-4.00,-1.00,-36.00,-11.00,-57.00,+13.00,+28.00,+68.00,-21.00,-1.00,+10.00,+48.00,+87.00
-86.00,-57.00,-125.00,-12.00,-12.00,+29.00,-51.00,-49.00,-15.00,-10.00,-23.00,-11.00,-54.00,-123.00,+1.00,-67.00
-28.00,-6.00,+12.00,-19.00,-8.00,+12.00,+22.00,+51.00,-31.00,-28.00,-7.00,-17.00,-5.00,+43.00,+1.00,+26.00
+70.00,+42.00,+67.00,+37.00,+10.00,-4.00,-39.00,+77.00,-11.00,-9.00,+9.00,+30.00,+24.00,+47.00,-40.00,-58.00
-10.00,-14.00,-18.00,-10.00,+0.00,-43.00,+56.00,+3.00,-29.00,+0.00,+27.00,+9.00,+72.00,-17.00,+47.00,-31.00
-7.00,+10.00,-5.00,-2.00,-7.00,+29.00,-1.00,-49.00,+9.00,+28.00,-28.00,-12.00,-1.00,+3.00,-36.00,-50.00
+50.00,+43.00,+27.00,+21.00,+7.00,-19.00,+13.00,-30.00,+6.00,+74.00,+79.00,+41.00,-47.00,+53.00,+13.00,+43.00
-59.00,-53.00,-101.00,-35.00,-8.00,-60.00,-23.00,-67.00,-7.00,-14.00,-93.00,-27.00,+64.00,+26.00,+74.00,-11.00
+49.00,+18.00,+0.00,-7.00,-16.00,-16.00,-4.00,+125.00,+3.00,-10.00,+74.00,+1.00,-63.00,-98.00,-14.00,-57.00
+57.00,+46.00,+37.00,+10.00,+29.00,+53.00,+30.00,+79.00,-74.00,-45.00,+24.00,-12.00,+1.00,+31.00,+9.00,-12.00
-19.00,-53.00,+103.00,-7.00,-14.00,-27.00,-42.00,-34.00,+45.00,-2.00,-71.00,-14.00,+1.00,+24.00,+22.00,+95.00
+80.00,+52.00,+3.00,+14.00,+12.00,+39.00,+5.00,+1.00,-29.00,+6.00,+104.00,+30.00,-41.00,-96.00,-10.00,+25.00
+15.00,+25.00,-32.00,+16.00,+11.00,+86.00,+43.00,+62.00,+10.00,-53.00,+43.00,+34.00,-15.00,+92.00,+6.00,+52.00
-32.00,-52.00,-56.00,-16.00,-10.00,-16.00,-32.00,-110.00,+22.00,+84.00,+64.00,+37.00,+65.00,+100.00,+54.00,+44.00
-12.00,-15.00,-39.00,-3.00,+4.00,-18.00,+15.00,+31.00,-46.00,-82.00,-47.00,-69.00,-95.00,-128.00,-85.00,-89.00
-9.00,-22.00,-119.00,-19.00,-6.00,+7.00,+20.00,+56.00,+51.00,-33.00,-97.00,-22.00,+6.00,+24.00,-24.00,+96.00
-37.00,+12.00,-2.00,+7.00,-4.00,-44.00,-27.00,-104.00,-24.00,+4.00,-41.00,-17.00,-12.00,-16.00,-33.00,+36.00
-73.00,-15.00,+45.00,-2.00,-1.00,+63.00,-19.00,-27.00,+23.00,-30.00,+70.00,+27.00,-21.00,+24.00,+11.00,-1.00
+44.00,+45.00,-16.00,+4.00,+9.00,+1.00,+12.00,+42.00,+44.00,+20.00,+76.00,+49.00,+49.00,+58.00,-8.00,-38.00
-43.00,-22.00,-22.00,-4.00,-2.00,+53.00,-5.00,-13.00,-29.00,+22.00,+127.00,+24.00,+34.00,+9.00,-25.00,-53.00
-38.00,-24.00,-34.00,-6.00,-6.00,+53.00,+22.00,+69.00,-25.00,-33.00,-127.00,-42.00,-52.00,+3.00,-2.00,-84.00
-10.00,+19.00,+8.00,+6.00,-2.00,-85.00,-34.00,-92.00,+37.00,-38.00,-32.00,-4.00,-10.00,+12.00,+26.00,+111.00
+2.00,+3.00,-53.00,+6.00,-11.00,-4.00,-7.00,-57.00,-16.00,-10.00,-11.00,-3.00,-7.00,-110.00,-42.00,-42.00
+18.00,+6.00,+0.00,+4.00,+15.00,+19.00,+35.00,+79.00,-7.00,+17.00,-55.00,-24.00,-23.00,-55.00,+18.00,-3.00
+48.00,+8.00,+78.00,-2.00,+5.00,-8.00,+11.00,-45.00,+12.00,+75.00,+15.00,+10.00,+39.00,+108.00,+8.00,+41.00
+12.00,-9.00,+29.00,-5.00,-3.00,+8.00,+16.00,-72.00,+10.00,+8.00,+0.00,+3.00,-14.00,-94.00,+26.00,-68.00
-30.00,-6.00,+76.00,+4.00,-13.00,-15.00,-29.00,-35.00,-41.00,-9.00,+15.00,-5.00,+4.00,+3.00,-59.00,+22.00
-58.00,+6.00,+23.00,-6.00,+0.00,-50.00,-3.00,-128.00,+38.00,-29.00,-16.00,+28.00,+5.00,+86.00,+80.00,+86.00
-44.00,-51.00,-116.00,-1.00,-6.00,-1.00,-44.00,-62.00,-18.00,-13.00,-21.00,-30.00,-35.00,-106.00,-79.00,-25.00
+34.00,+53.00,+95.00,-1.00,+1.00,-51.00,-14.00,+120.00,+0.00,+24.00,+0.00,+6.00,+33.00,+37.00,-30.00,-39.00
-70.00,+0.00,-2.00,-8.00,+6.00,-14.00,-41.00,-44.00,+37.00,+28.00,-6.00,+9.00,-29.00,-29.00,+25.00,+37.00
+60.00,+3.00,-75.00,+6.00,+2.00,+78.00,+41.00,-72.00,-55.00,+32.00,+55.00,+22.00,+49.00,+51.00,+12.00,-46.00
+112.00,+46.00,+127.00,+41.00,+13.00,+13.00,+8.00,+45.00,+29.00,+17.00,-28.00,-30.00,-40.00,-55.00,-49.00,-14.00
-58.00,-95.00,-128.00,-20.00,-14.00,-3.00,-27.00,-106.00,+15.00,-21.00,+73.00,+21.00,+15.00,+19.00,+36.00,+63.00
-10.00,+33.00,-46.00,-7.00,-3.00,+36.00,+24.00,+108.00,+2.00,+9.00,+23.00,+30.00,-4.00,+103.00,+51.00,+81.00
-80.00,-40.00,+0.00,-6.00,-9.00,-18.00,-22.00,-128.00,-65.00,-11.00,+22.00,+0.00,+6.00,-92.00,-14.00,-128.00
+37.00,+6.00,+13.00,-5.00,+3.00,-63.00,+12.00,+18.00,+43.00,-49.00,-121.00,-60.00,-62.00,+36.00,+127.00,+99.00
+56.00,+23.00,-35.00,+10.00,+8.00,+20.00,+5.00,-73.00,+0.00,+14.00,+84.00,+3.00,+64.00,+4.00,-14.00,-33.00
+7.00,-14.00,-44.00,+2.00,+2.00,+4.00,-9.00,-11.00,-46.00,-40.00,+13.00,-1.00,+4.00,+46.00,-75.00,-82.00
+18.00,+7.00,-6.00,-6.00,+6.00,-9.00,-19.00,+61.00,+37.00,+61.00,+44.00,+18.00,-11.00,+3.00,+2.00,+32.00
+10.00,-13.00,-57.00,-15.00,-11.00,+11.00,+8.00,-8.00,+12.00,+49.00,+127.00,+41.00,+36.00,+21.00,-17.00,+8.00
-50.00,+5.00,+71.00,+10.00,-11.00,-101.00,-60.00,+12.00,+8.00,+20.00,-57.00,-41.00,-71.00,-82.00,-65.00,-28.00
+58.00,+32.00,+10.00,-2.00,+15.00,+66.00,+94.00,-94.00,-1.00,-27.00,+2.00,+8.00,+35.00,-3.00,+91.00,+0.00
+42.00,+9.00,-46.00,-13.00,-1.00,-55.00,+3.00,+15.00,+5.00,-16.00,+42.00,+7.00,-33.00,-96.00,-89.00,-88.00
-5.00,+4.00,+0.00,-9.00,+5.00,+67.00,+16.00,+3.00,-14.00,-11.00,+7.00,+3.00,+30.00,-11.00,+34.00,+21.00
+26.00,+11.00,-42.00,+9.00,+1.00,+56.00,+8.00,+49.00,+6.00,+0.00,-29.00,+0.00,-30.00,+76.00,-33.00,-8.00
-49.00,-31.00,-76.00,+9.00,+3.00,+3.00,+8.00,-84.00,+29.00,+49.00,+51.00,+17.00,+68.00,+23.00,-8.00,+62.00
-46.00,-57.00,-43.00,-24.00,-28.00,-91.00,-17.00,+61.00,-2.00,-89.00,-61.00,-70.00,-109.00,-61.00,-69.00,+2.00
+73.00,+67.00,-32.00,+26.00,+18.00,+28.00,+36.00,-33.00,-13.00,-6.00,+16.00,+20.00,+13.00,-76.00,-48.00,-114.00
-87.00,-74.00,-128.00,-23.00,-12.00,-48.00,-37.00,-84.00,-12.00,+39.00,-68.00,+2.00,+17.00,+43.00,+68.00,+79.00
+71.00,+72.00,-52.00,+19.00,+18.00,+63.00,-24.00,+127.00,-27.00,-91.00,-97.00,-35.00,-38.00,-20.00,-20.00,-71.00
+21.00,+19.00,+116.00,+14.00,-6.00,+10.00,+32.00,-6.00,+3.00,-20.00,+35.00,+20.00,+47.00,+47.00,-30.00,-15.00
-24.00,-64.00,-33.00,-22.00,-9.00,+30.00,-40.00,-104.00,+13.00,+63.00,+10.00,+21.00,+46.00,+39.00,+92.00,+58.00
+34.00,+17.00,-73.00,-12.00,+1.00,+28.00,+18.00,-47.00,+0.00,-56.00,-8.00,-36.00,-46.00,+10.00,-1.00,-69.00
-2.00,-5.00,+39.00,+12.00,-2.00,-94.00,+54.00,+26.00,-6.00,+96.00,+14.00,+6.00,-25.00,-92.00,+27.00,-60.00
-100.00,-5.00,-80.00,-12.00,+9.00,+77.00,-45.00,-55.00,+47.00,+19.00,-21.00,-25.00,-17.00,+106.00,+0.00,+6.00
+28.00,+3.00,+29.00,+1.00,-4.00,-40.00,-20.00,+126.00,-49.00,-73.00,-19.00,-3.00,+6.00,-61.00,+2.00,-38.00
+36.00,+32.00,+47.00,+21.00,+11.00,+15.00,+71.00,-58.00,-32.00,-8.00,+69.00,+18.00,+11.00,-32.00,-1.00,+27.00
-12.00,-9.00,-19.00,-21.00,-8.00,+33.00,-4.00,+22.00,+62.00,+55.00,-48.00,-14.00,-46.00,-25.00,+10.00,+36.00
+18.00,+24.00,+13.00,+3.00,+2.00,-20.00,+12.00,+78.00,-4.00,-9.00,+37.00,+32.00,+25.00,+79.00,+24.00,-15.00
-22.00,-36.00,-23.00,-9.00,-12.00,-38.00,+9.00,+16.00,-21.00,+59.00,+92.00,+25.00,+6.00,+2.00,+23.00,+41.00
-11.00,+2.00,-51.00,-5.00,+2.00,+45.00,-6.00,+30.00,+13.00,-50.00,-79.00,-34.00,+57.00,+31.00,-19.00,-50.00
+43.00,+12.00,+102.00,+15.00,+0.00,-15.00,-15.00,-31.00,-12.00,-72.00,+7.00,-10.00,-47.00,-127.00,-51.00,+34.00
-14.00,-22.00,-72.00,-3.00,-11.00,-26.00,-12.00,-14.00,-11.00,+31.00,+7.00,-1.00,+1.00,-38.00,+53.00,+19.00
-34.00,+19.00,-101.00,-28.00,-8.00,-17.00,+11.00,+39.00,-6.00,-40.00,-3.00,+6.00,+39.00,+80.00,-54.00,-80.00
+8.00,-32.00,+26.00,-3.00,-6.00,-46.00,-8.00,+111.00,-2.00,+37.00,+26.00,+18.00,-25.00,+41.00,+48.00,+99.00
+5.00,+0.00,-8.00,+10.00,-5.00,-50.00,-25.00,-5.00,+14.00,-14.00,+14.00,+6.00,+1.00,+41.00,-13.00,-19.00
+22.00,+25.00,+112.00,-3.00,-3.00,-63.00,-9.00,-119.00,-13.00,-24.00,-12.00,-7.00,-33.00,+2.00,-23.00,-1.00
+28.00,-33.00,-55.00,-6.00,+3.00,-4.00,+6.00,+47.00,+11.00,+10.00,+61.00,+21.00,+53.00,+16.00,-12.00,-26.00
-53.00,+43.00,-40.00,-8.00,-2.00,+9.00,+24.00,+13.00,-2.00,-51.00,-77.00,-15.00,+9.00,-4.00,+35.00,+32.00
+32.00,-16.00,-2.00,-17.00,-21.00,-2.00,-26.00,+94.00,+14.00,+105.00,-14.00,-16.00,+20.00,+11.00,-58.00,-68.00
+26.00,+0.00,+60.00,+22.00,+12.00,-36.00,-56.00,-75.00,-26.00,-10.00,+41.00,+2.00,-16.00,-41.00,+44.00,+84.00
-21.00,-9.00,-60.00,+2.00,+4.00,+61.00,+22.00,+39.00,-7.00,-72.00,+9.00,-4.00,-46.00,-38.00,-64.00,-17.00
-23.00,-14.00,+90.00,-5.00,-2.00,-54.00,-41.00,-62.00,+11.00,+3.00,-50.00,-18.00,-6.00,+37.00,-14.00,-61.00
+67.00,-20.00,-19.00,-3.00,+2.00,-58.00,+13.00,-80.00,-16.00,+0.00,+55.00,+32.00,+65.00,+88.00,+45.00,+36.00
-42.00,-1.00,-29.00,+0.00,-11.00,+57.00,+16.00,-26.00,-9.00,-50.00,-82.00,-11.00,-25.00,-44.00,-48.00,-15.00
+52.00,+21.00,+40.00,+7.00,+4.00,+1.00,-22.00,-60.00,+14.00,+34.00,-16.00,-25.00,-92.00,-5.00,-12.00,+0.00
+14.00,+8.00,+30.00,-1.00,-3.00,+64.00,-30.00,-51.00,-15.00,-19.00,+81.00,+47.00,+93.00,+27.00,-25.00,+31.00
-67.00,-3.00,-57.00,-13.00,+0.00,-9.00,-23.00,-3.00,-21.00,-23.00,-74.00,-25.00,-16.00,-92.00,-35.00,+20.00
-43.00,-37.00,-18.00,-5.00,-12.00,-87.00,-24.00,-47.00,-17.00,+27.00,-41.00,-25.00,+52.00,+127.00,+47.00,+31.00
+33.00,+6.00,+2.00,+6.00,+4.00,-66.00,+38.00,-46.00,-4.00,+9.00,-24.00,+15.00,+0.00,-78.00,+43.00,-5.00
-30.00,-2.00,+28.00,+3.00,-2.00,+1.00,-12.00,+29.00,+15.00,+38.00,+94.00,+22.00,-34.00,+32.00,+8.00,+35.00
+5.00,-11.00,+92.00,+0.00,-3.00,+7.00,-10.00,-63.00,+21.00,-33.00,+9.00,-19.00,-32.00,+70.00,+25.00,+27.00
+73.00,+28.00,-98.00,-14.00,-2.00,+79.00,+27.00,+43.00,+22.00,+88.00,+8.00,+25.00,+63.00,-86.00,-79.00,-78.00
-105.00,-42.00,-58.00,-23.00,-16.00,-72.00,-78.00,-107.00,-15.00,-55.00,-86.00,-29.00,+20.00,-1.00,+74.00,+61.00
+43.00,+77.00,+25.00,+20.00,+15.00,-13.00,+54.00,+81.00,+24.00,+28.00,+14.00,+2.00,-35.00,+1.00,-40.00,-29.00
+97.00,+8.00,-70.00,+5.00,-1.00,+84.00,+14.00,-4.00,+10.00,+17.00,+97.00,+45.00,+41.00,-26.00,+9.00,+34.00
-17.00,-7.00,-36.00,+4.00,+4.00,-40.00,-6.00,+25.00,-21.00,-4.00,-69.00,-29.00,-27.00,+36.00,+41.00,-27.00
-24.00,+18.00,+0.00,+10.00,+7.00,+103.00,+2.00,-128.00,+16.00,-61.00,+60.00,+19.00,+3.00,+51.00,-50.00,-53.00
-22.00,-58.00,-75.00,-24.00,-7.00,-106.00,-23.00,-51.00,-29.00,-31.00,+6.00,+3.00,+63.00,-58.00,-63.00,-96.00
-88.00,-48.00,-55.00,-23.00,-6.00,+89.00,+27.00,+54.00,-30.00,-66.00,-77.00,-64.00,-74.00,-78.00,+59.00,+86.00
+127.00,+52.00,+65.00,+18.00,+0.00,+11.00,-2.00,+127.00,+95.00,+23.00,+111.00,+16.00,-34.00,-39.00,+27.00,+88.00
-18.00,+7.00,-10.00,-1.00,-10.00,-88.00,-26.00,-3.00,-22.00,+39.00,+5.00,-4.00,+30.00,+55.00,-28.00,-11.00
-7.00,-5.00,-21.00,+8.00,+0.00,-10.00,-9.00,-96.00,+9.00,+7.00,+103.00,+45.00,-39.00,+2.00,+45.00,-58.00
-31.00,+0.00,-17.00,-2.00,-1.00,-8.00,+37.00,+54.00,-3.00,+10.00,+42.00,+39.00,+33.00,+78.00,-6.00,-25.00
-44.00,-45.00,-72.00,-13.00,-3.00,-16.00,-29.00,-128.00,-28.00,+15.00,+17.00,+1.00,-6.00,+68.00,+53.00,+13.00
-29.00,-36.00,-20.00,+2.00,-2.00,+40.00,+29.00,+94.00,+39.00,-75.00,-110.00,-61.00,+38.00,-39.00,-96.00,-71.00
+28.00,+31.00,+25.00,-13.00,-11.00,-40.00,-9.00,+43.00,+4.00,+48.00,-19.00,-12.00,-50.00,-79.00,+106.00,+121.00
-7.00,+44.00,+22.00,+20.00,+10.00,-28.00,-33.00,-29.00,-8.00,-13.00,-5.00,-4.00,-7.00,+24.00,+2.00,-6.00
-58.00,+31.00,+80.00,+25.00,+10.00,-5.00,+24.00,-74.00,-16.00,+11.00,+16.00,+4.00,-6.00,-10.00,-14.00,-25.00
+68.00,+15.00,-1.00,+8.00,+10.00,+26.00,+21.00,+32.00,+14.00,+23.00,+27.00,+35.00,+13.00,+65.00,+53.00,+9.00
+9.00,-11.00,-63.00,+2.00,+0.00,+31.00,+18.00,+10.00,-41.00,+55.00,+11.00,-6.00,-4.00,-14.00,-128.00,-104.00
-3.00,-53.00,-98.00,-20.00,-5.00,+36.00,-13.00,+15.00,+2.00,-21.00,+75.00,+23.00,+34.00,+22.00,+76.00,-14.00
-74.00,-17.00,-88.00,-14.00,-8.00,-1.00,-10.00,-83.00,-9.00,+40.00,-54.00,-30.00,+8.00,-7.00,-9.00,+6.00
-25.00,+17.00,+37.00,+0.00,+9.00,-50.00,-24.00,+120.00,+3.00,+47.00,-26.00,-24.00,-48.00,-66.00,-21.00,+3.00
-43.00,+7.00,+30.00,+2.00,+2.00,+68.00,+34.00,+41.00,+9.00,-21.00,-47.00,-30.00,+2.00,-17.00,+2.00,+33.00
+59.00,+25.00,+85.00,+18.00,+2.00,-38.00,+2.00,+45.00,+16.00,+20.00,+49.00,+25.00,-28.00,+10.00,+0.00,-15.00
-38.00,-7.00,-60.00,-9.00,-3.00,+48.00,-15.00,-51.00,+7.00,+12.00,+42.00,+16.00,+40.00,+58.00,-4.00,+34.00
-41.00,-28.00,-64.00,-1.00,+9.00,+38.00,+36.00,-12.00,-32.00,-82.00,+85.00,+38.00,+64.00,+112.00,+45.00,-31.00
+19.00,-39.00,+24.00,-20.00,-19.00,-33.00,-22.00,+55.00,+31.00,+54.00,-75.00,-33.00,-91.00,-80.00,+16.00,+85.00
-49.00,-17.00,-51.00,-9.00,-9.00,-9.00,-35.00,-17.00,-39.00,+49.00,-110.00,-83.00,-74.00,-78.00,-116.00,-117.00
+25.00,-1.00,+43.00,+8.00,+20.00,+101.00,-13.00,+25.00,+19.00,-58.00,+3.00,+1.00,-22.00,+4.00,+48.00,+70.00
+13.00,+27.00,+100.00,+29.00,+12.00,+1.00,+23.00,-7.00,-3.00,+36.00,+19.00,+16.00,+8.00,-19.00,+0.00,-6.00
+48.00,+12.00,+22.00,-11.00,-11.00,-7.00,-6.00,-35.00,-41.00,-40.00,+61.00,+20.00,+70.00,+121.00,+42.00,-12.00
-65.00,+19.00,+9.00,+3.00,+9.00,-19.00,+25.00,+57.00,+14.00,+28.00,-12.00,+29.00,+63.00,+95.00,+10.00,-22.00
-23.00,-18.00,+25.00,-5.00,-12.00,-14.00,+7.00,+67.00,-2.00,-1.00,+10.00,-8.00,-6.00,-125.00,-66.00,-24.00
-33.00,-30.00,-55.00,+0.00,+3.00,+5.00,+19.00,+7.00,-12.00,+12.00,-46.00,-18.00,-128.00,+28.00,+84.00,+57.00
+35.00,+35.00,-106.00,-1.00,+6.00,-2.00,-8.00,-28.00,-17.00,-38.00,-17.00,-32.00,-32.00,-98.00,-109.00,-124.00
-27.00,+1.00,+63.00,-5.00,-6.00,-64.00,-9.00,-62.00,+13.00,+16.00,-51.00,-9.00,+36.00,+29.00,+56.00,+119.00
+89.00,+23.00,+35.00,+11.00,+3.00,+8.00,+24.00,+94.00,-1.00,-23.00,-3.00,-1.00,+21.00,+91.00,+26.00,-117.00
-16.00,+2.00,-42.00,-5.00,-5.00,-2.00,-7.00,-1.00,+9.00,+46.00,+79.00,+34.00,+22.00,-44.00,+19.00,+55.00
-36.00,-28.00,+41.00,+2.00,-4.00,+0.00,-5.00,+10.00,+6.00,-52.00,-111.00,-26.00,+0.00,+39.00,+11.00,-11.00
+35.00,+10.00,+53.00,-8.00,-11.00,-10.00,-43.00,-102.00,-19.00,+23.00,+21.00,+15.00,+21.00,+6.00,+65.00,+55.00
-40.00,-1.00,-90.00,-14.00,+5.00,-23.00,+52.00,-120.00,-22.00,-3.00,-75.00,-21.00,-20.00,-54.00,-128.00,-70.00
+127.00,+16.00,+45.00,+1.00,+0.00,+8.00,+27.00,+68.00,+11.00,+16.00,+30.00,-8.00,+2.00,+12.00,+21.00,+52.00
-42.00,-10.00,-63.00,-3.00,-9.00,-28.00,-30.00,+44.00,-11.00,-8.00,+58.00,+17.00,+27.00,+27.00,+0.00,-16.00
+51.00,+28.00,-16.00,+13.00,+24.00,+105.00,+41.00,+26.00,+24.00,-19.00,+56.00,+16.00,-78.00,+20.00,+25.00,-18.00
+68.00,-17.00,+14.00,-10.00,-7.00,-80.00,+15.00,+74.00,+3.00,-18.00,+39.00,+39.00,+89.00,-10.00,+32.00,+34.00
-12.00,+0.00,+3.00,-5.00,-6.00,-4.00,-1.00,-87.00,-60.00,-16.00,-73.00,-60.00,-51.00,-61.00,-72.00,-128.00
-30.00,-24.00,-77.00,-8.00,-1.00,-38.00,-4.00,+16.00,+44.00,+23.00,+33.00,+13.00,+14.00,-4.00,+10.00,+89.00
-11.00,-10.00,+15.00,+0.00,+1.00,+94.00,-15.00,+32.00,+24.00,+1.00,+38.00,+13.00,-37.00,+54.00,-21.00,-16.00
-50.00,+6.00,+1.00,-1.00,-7.00,-41.00,+4.00,-19.00,-39.00,-18.00,-1.00,-15.00,+16.00,-91.00,+47.00,+58.00
-68.00,-3.00,+5.00,-7.00,+0.00,+27.00,-9.00,+24.00,+9.00,-13.00,-47.00,-28.00,-6.00,-12.00,-58.00,-22.00
+81.00,+36.00,+76.00,+36.00,+3.00,+30.00,+13.00,-24.00,-25.00,-22.00,+51.00,+23.00,-26.00,+6.00,-18.00,-55.00
-28.00,-32.00,-128.00,-25.00,-7.00,-39.00,+2.00,+64.00,+3.00,-31.00,-30.00,-12.00,+66.00,+11.00,+34.00,-3.00
-5.00,-24.00,-57.00,+14.00,+4.00,+25.00,-10.00,+13.00,+20.00,+83.00,+13.00,+8.00,-28.00,+77.00,+0.00,+19.00
-58.00,-6.00,-48.00,-29.00,-11.00,-33.00,-20.00,-52.00,-9.00,-56.00,-58.00,-25.00,-3.00,-86.00,+9.00,+14.00
+37.00,+39.00,+113.00,+27.00,-1.00,-22.00,-38.00,-94.00,-4.00,+64.00,-104.00,-13.00,+17.00,+81.00,-17.00,+38.00
-46.00,-10.00,-51.00,-2.00,-1.00,+65.00,+45.00,+85.00,-5.00,-24.00,+96.00,+20.00,+0.00,-82.00,-41.00,-55.00
+11.00,-10.00,-70.00,-5.00,+10.00,-19.00,+11.00,-91.00,+18.00,-67.00,-75.00,-30.00,-27.00,+7.00,+16.00,-2.00
+77.00,+12.00,+2.00,+1.00,-9.00,+30.00,-27.00,+12.00,+30.00,+49.00,+114.00,+42.00,+19.00,+21.00,-29.00,+46.00
-34.00,-8.00,+9.00,-3.00,+4.00,+23.00,-32.00,-79.00,-65.00,-16.00,-65.00,-42.00,-7.00,+43.00,+14.00,-51.00
+60.00,+2.00,+18.00,+5.00,+7.00,+54.00,+42.00,-19.00,+25.00,-25.00,-18.00,-8.00,-7.00,-38.00,+65.00,+41.00
-65.00,-13.00,+6.00,-9.00,-7.00,+37.00,-14.00,-52.00,-14.00,-6.00,+63.00,+23.00,-20.00,-21.00,-29.00,-14.00
+8.00,+4.00,+25.00,+14.00,-5.00,-74.00,-10.00,+12.00,+10.00,+49.00,+32.00,-6.00,-3.00,+87.00,-7.00,-32.00
-45.00,-38.00,-59.00,-22.00,+16.00,+78.00,+33.00,+38.00,+22.00,-17.00,+0.00,+9.00,+68.00,-21.00,+80.00,+74.00
+87.00,+19.00,+82.00,+4.00,-9.00,-112.00,-71.00,-84.00,-24.00,-3.00,-13.00,-5.00,-37.00,-69.00,-61.00,+23.00
-18.00,-23.00,-59.00,-15.00,-4.00,+76.00,+15.00,+82.00,+7.00,-37.00,-17.00,-19.00,-7.00,+3.00,+13.00,-1.00
-53.00,+36.00,+104.00,+21.00,+3.00,-17.00,-24.00,-115.00,-15.00,+9.00,-9.00,+19.00,-52.00,+40.00,+24.00,+18.00
+28.00,-6.00,-72.00,-3.00,-4.00,+24.00,+38.00,+127.00,+15.00,+28.00,+104.00,+20.00,+48.00,+20.00,-34.00,-70.00
-107.00,-19.00,-123.00,-19.00,-2.00,-25.00,-1.00,-25.00,-16.00,-8.00,-96.00,-35.00,-68.00,-76.00,+20.00,-12.00
-67.00,-44.00,+33.00,-17.00,-3.00,-15.00,-5.00,-70.00,+4.00,+43.00,+63.00,+28.00,+31.00,-24.00,-15.00,+0.00
+28.00,+40.00,+120.00,+26.00,-9.00,-69.00,-50.00,-76.00,-29.00,-38.00,-114.00,-26.00,+32.00,+36.00,-27.00,-9.00
-50.00,-3.00,-71.00,+6.00,-1.00,+33.00,+8.00,-71.00,+15.00,-8.00,+15.00,-1.00,+0.00,-9.00,+38.00,+31.00
+73.00,-46.00,-117.00,-19.00,+6.00,+7.00,+22.00,+48.00,+3.00,+31.00,+53.00,+16.00,+9.00,+34.00,-14.00,-11.00
+68.00,+43.00,+68.00,+21.00,-3.00,-42.00,+8.00,+86.00,-8.00,+9.00,+79.00,+19.00,-27.00,+24.00,-10.00,-20.00
-60.00,-23.00,-110.00,-23.00,-3.00,+57.00,+12.00,+31.00,-7.00,-46.00,-73.00,-3.00,+25.00,+21.00,+33.00,-73.00
-40.00,+17.00,+7.00,+1.00,+3.00,-38.00,+8.00,+8.00,+48.00,-30.00,-24.00,-58.00,-61.00,+18.00,+52.00,+86.00
-20.00,-21.00,-19.00,+3.00,+0.00,+5.00,-21.00,-115.00,-11.00,+44.00,+76.00,+28.00,+79.00,-60.00,-49.00,-73.00
+39.00,+20.00,+38.00,-2.00,-9.00,-6.00,-24.00,-79.00,-6.00,-123.00,-119.00,-60.00,-47.00,-19.00,-35.00,+17.00
-26.00,-19.00,+42.00,+1.00,+3.00,-18.00,+6.00,+86.00,+4.00,+5.00,+90.00,+30.00,+48.00,-44.00,-24.00,+40.00
+76.00,+0.00,-6.00,+5.00,+17.00,+77.00,+44.00,-32.00,-33.00,+7.00,+36.00,+27.00,-74.00,-23.00,-39.00,-108.00
-63.00,+11.00,+43.00,-1.00,-7.00,-52.00,-24.00,-92.00,+13.00,+4.00,-13.00,-14.00,+100.00,+71.00,-12.00,+45.00
-13.00,+0.00,-9.00,+5.00,+9.00,-37.00,+20.00,+102.00,-17.00,+21.00,+40.00,+21.00,-45.00,+17.00,-51.00,-46.00
+101.00,+32.00,-19.00,-4.00,+0.00,+15.00,-3.00,+41.00,+14.00,+27.00,-50.00,-10.00,-37.00,-44.00,+68.00,+87.00
+39.00,-14.00,-12.00,-17.00,-10.00,-20.00,-1.00,+22.00,+5.00,-2.00,-31.00,+8.00,+41.00,+25.00,+58.00,-18.00
+18.00,+8.00,+12.00,+13.00,+5.00,-12.00,+13.00,-9.00,-17.00,-32.00,-22.00,-13.00,-19.00,-30.00,-44.00,-13.00
+1.00,+51.00,+52.00,+11.00,-2.00,+3.00,-15.00,-75.00,-3.00,+18.00,+10.00,+6.00,-1.00,+99.00,+15.00,-31.00
-35.00,-34.00,-9.00,-14.00,-3.00,+7.00,+3.00,-16.00,-15.00,-20.00,+19.00,-26.00,-71.00,-91.00,-110.00,-88.00
-72.00,-14.00,-1.00,-15.00,-11.00,-56.00,-6.00,+50.00,+4.00,+7.00,+0.00,-13.00,-31.00,-67.00,+25.00,+67.00
+94.00,+45.00,+46.00,+21.00,+13.00,+56.00,+9.00,-42.00,-27.00,-5.00,+19.00,+21.00,+22.00,+69.00,+31.00,+21.00
+26.00,-6.00,-2.00,-2.00,+1.00,+40.00,+4.00,-31.00,+28.00,-55.00,-96.00,-23.00,+27.00,+1.00,+13.00,+48.00
-33.00,-7.00,-31.00,+0.00,+16.00,+19.00,-27.00,-41.00,-21.00,+31.00,+77.00,+14.00,+23.00,+48.00,+0.00,-45.00
-4.00,-18.00,-29.00,-7.00,-11.00,+28.00,+6.00,-5.00,-11.00,+21.00,+39.00,+30.00,+24.00,-2.00,+3.00,-10.00
-48.00,-11.00,+1.00,-3.00,-30.00,-27.00,+14.00,+4.00,-8.00,+15.00,-102.00,-47.00,-19.00,-21.00,-64.00,-16.00
+0.00,-2.00,-30.00,-8.00,-7.00,+10.00,-13.00,-44.00,+5.00,-39.00,+27.00,+9.00,+0.00,-6.00,+26.00,+8.00
+71.00,+21.00,-1.00,+13.00,+80.00,-63.00,-4.00,+78.00,-1.00,-12.00,-46.00,-25.00,+6.00,+24.00,-57.00,-29.00
+9.00,+11.00,+13.00,+3.00,-49.00,+21.00,+14.00,-43.00,+13.00,-3.00,+69.00,+38.00,+49.00,-26.00,+6.00,+3.00
-26.00,-10.00,-13.00,+6.00,-3.00,-5.00,-12.00,-12.00,-1.00,+20.00,+31.00,+9.00,-34.00,-24.00,+21.00,+12.00
-3.00,+6.00,+2.00,-1.00,+8.00,+4.00,-2.00,+51.00,-21.00,+31.00,+21.00,-15.00,-16.00,+22.00,+50.00,+35.00
+2.00,-4.00,-16.00,-8.00,-21.00,-53.00,+16.00,+59.00,+43.00,+8.00,-6.00,+31.00,+31.00,-1.00,+56.00,+3.00
-22.00,-20.00,-18.00,-6.00,+21.00,+10.00,-13.00,-12.00,-37.00,-2.00,-2.00,-15.00,-24.00,-30.00,-32.00,-32.00
-2.00,+8.00,+12.00,+5.00,+7.00,-7.00,+13.00,+71.00,+38.00,-46.00,-42.00,-33.00,-78.00,-1.00,-25.00,+5.00
+56.00,+17.00,+75.00,+6.00,-8.00,-28.00,-7.00,+5.00,-23.00,+30.00,-7.00,-31.00,-41.00,+2.00,+11.00,+10.00
-39.00,-10.00,-76.00,-13.00,+0.00,+37.00,+2.00,-69.00,-5.00,-6.00,+23.00,+10.00,+79.00,-5.00,-46.00,+0.00
+57.00,+30.00,+121.00,+24.00,+13.00,-31.00,-8.00,-9.00,-13.00,-3.00,-15.00,-30.00,-75.00,+5.00,-23.00,+21.00
-74.00,-50.00,-108.00,-14.00,-20.00,+0.00,+6.00,+6.00,-13.00,+24.00,-6.00,+15.00,+20.00,+6.00,-19.00,-26.00
-35.00,+21.00,+66.00,-5.00,+13.00,+1.00,-2.00,+115.00,+8.00,+26.00,-24.00,+0.00,+11.00,-11.00,+11.00,-7.00
+18.00,+26.00,+20.00,+23.00,-11.00,+40.00,+6.00,-103.00,-4.00,+20.00,+14.00,+0.00,+16.00,+31.00,+31.00,+53.00
+2.00,-12.00,-80.00,-12.00,-10.00,-18.00,-2.00,-15.00,+20.00,-4.00,-12.00,+21.00,+35.00,-7.00,+4.00,+10.00
-19.00,+2.00,-27.00,+0.00,+49.00,-5.00,-14.00,+60.00,-11.00,-34.00,+18.00,+2.00,+4.00,+11.00,-13.00,-14.00
-35.00,-34.00,-84.00,-11.00,+0.00,+72.00,+15.00,-12.00,+16.00,+75.00,+127.00,+66.00,+31.00,+26.00,+2.00,-18.00
-51.00,-29.00,-1.00,-8.00,-68.00,-86.00,-11.00,-32.00,-27.00,-104.00,-115.00,-72.00,-15.00,-21.00,-12.00,+26.00
+16.00,+11.00,+8.00,-1.00,+13.00,-68.00,+21.00,+127.00,-8.00,+20.00,+59.00,+3.00,-8.00,-5.00,-9.00,-35.00
+8.00,+13.00,+42.00,-2.00,+11.00,+70.00,-24.00,-128.00,-4.00,-13.00,+56.00,+6.00,-10.00,+45.00,+30.00,+4.00
-10.00,-22.00,-37.00,-4.00,+0.00,-46.00,+7.00,-2.00,+11.00,+23.00,+36.00,+38.00,+60.00,-54.00,-58.00,+2.00
-24.00,-10.00,+9.00,-7.00,-32.00,+62.00,+1.00,-22.00,+5.00,+34.00,+40.00,+22.00,-40.00,+36.00,+25.00,+42.00
-6.00,-6.00,-15.00,-3.00,+9.00,-14.00,-6.00,+4.00,-7.00,-19.00,-24.00,+1.00,+31.00,+43.00,-30.00,-18.00
-20.00,+5.00,+20.00,-2.00,+17.00,-22.00,+5.00,+23.00,-23.00,-26.00,-21.00,-33.00,-54.00,-78.00,+23.00,+33.00
-16.00,-2.00,-7.00,+1.00,-17.00,-32.00,-17.00,-47.00,-16.00,-15.00,-25.00,-6.00,-27.00,+25.00,+47.00,+28.00
+26.00,-3.00,-20.00,-4.00,+21.00,+37.00,+3.00,-15.00,-16.00,+10.00,-15.00,-17.00,-11.00,-97.00,-68.00,-26.00
-48.00,-31.00,-43.00,-18.00,-3.00,-11.00,-19.00,-23.00,-10.00,-11.00,-27.00,-1.00,-27.00,+2.00,-41.00,-9.00
+12.00,+40.00,+79.00,+15.00,-15.00,+1.00,+2.00,+20.00,-2.00,+10.00,-21.00,+6.00,+26.00,+34.00,+24.00,-32.00
+2.00,+46.00,+11.00,+8.00,+12.00,+6.00,+3.00,+18.00,+3.00,-2.00,-19.00,+8.00,+65.00,+14.00,+12.00,-5.00
-51.00,-24.00,-18.00,-10.00,-8.00,-5.00,+9.00,-1.00,+34.00,+16.00,+17.00,+6.00,-39.00,+25.00,+37.00,+34.00
+52.00,-5.00,-8.00,-3.00,+3.00,+17.00,-10.00,-23.00,+17.00,-13.00,+61.00,+16.00,+25.00,-6.00,+3.00,+14.00
-26.00,-11.00,-17.00,-6.00,-19.00,-30.00,-15.00,-32.00,+21.00,+14.00,-45.00,+12.00,+32.00,+18.00,+9.00,+0.00
+35.00,-13.00,-31.00,+1.00,+18.00,-9.00,+9.00,+16.00,-31.00,-52.00,-57.00,-37.00,-38.00,-38.00,-1.00,-22.00
-8.00,-9.00,-67.00,-5.00,+13.00,+12.00,+29.00,+54.00,+21.00,+7.00,+100.00,+33.00,+18.00,+32.00,+12.00,+13.00
-42.00,+28.00,+83.00,+11.00,-23.00,+8.00,-43.00,-73.00,+7.00,+14.00,-52.00,-29.00,-11.00,-25.00,+1.00,-31.00
+73.00,+4.00,+3.00,+1.00,-2.00,+9.00,+12.00,+95.00,-36.00,-20.00,-2.00,+5.00,+0.00,+17.00,-4.00,+3.00
-7.00,-11.00,-18.00,-5.00,+5.00,-42.00,-21.00,-60.00,-22.00,-5.00,+4.00,-10.00,-14.00,-13.00,-40.00,-30.00
+35.00,+1.00,-11.00,-2.00,+17.00,+39.00,-3.00,-32.00,-21.00,+6.00,+20.00,+23.00,+31.00,+19.00,+14.00,-22.00
+9.00,-21.00,-12.00,+6.00,+35.00,+30.00,+26.00,+33.00,+13.00,+28.00,-23.00,-3.00,+8.00,-25.00,+6.00,+73.00
-4.00,+14.00,+7.00,-5.00,-99.00,-85.00,-12.00,-19.00,+8.00,+1.00,+18.00,+15.00,+22.00,+0.00,-5.00,-86.00
-14.00,+0.00,-3.00,+1.00,-6.00,+28.00,+10.00,+52.00,+7.00,-15.00,-11.00,-43.00,-75.00,-19.00,+3.00,+46.00
-15.00,-16.00,+16.00,+0.00,-2.00,+8.00,+10.00,-5.00,-22.00,+1.00,-12.00,+15.00,+34.00,+37.00,+11.00,-53.00
+10.00,+11.00,-2.00,+0.00,+1.00,-35.00,-6.00,-22.00,-23.00,+4.00,+17.00,+19.00,+35.00,-51.00,+2.00,-18.00
-40.00,-6.00,+13.00,-2.00,+25.00,+22.00,-8.00,-39.00,-16.00,-10.00,-16.00,-21.00,-79.00,-5.00,-16.00,+27.00
+42.00,-7.00,-16.00,-3.00,-13.00,-11.00,+3.00,+14.00,-51.00,-6.00,-7.00,-8.00,+14.00,-39.00,+5.00,+5.00
+3.00,+22.00,+17.00,+0.00,-16.00,-4.00,-5.00,+16.00,-63.00,+11.00,+1.00,-7.00,-7.00,+31.00,+13.00,-21.00
+6.00,+5.00,-7.00,+1.00,+6.00,+11.00,+0.00,+12.00,-11.00,-7.00,-17.00,-4.00,+7.00,-10.00,-31.00,-30.00
-18.00,-15.00,-29.00,+6.00,+11.00,+2.00,+4.00,+13.00,+11.00,-2.00,+8.00,+12.00,+16.00,+17.00,+15.00,+27.00
+15.00,-30.00,+20.00,-1.00,-9.00,-3.00,-2.00,+3.00,+12.00,+0.00,+20.00,+13.00,+2.00,+12.00,+0.00,-33.00
+10.00,-6.00,+19.00,+5.00,+14.00,+3.00,-2.00,-8.00,+69.00,-3.00,-17.00,-7.00,+2.00,+5.00,+12.00,+56.00
-23.00,+32.00,+10.00,-1.00,-12.00,-2.00,-4.00,-19.00,+38.00,+4.00,+18.00,+7.00,+7.00,+22.00,+7.00,-4.00
+53.00,-1.00,-31.00,+1.00,+11.00,-3.00,+15.00,+32.00,+15.00,-22.00,-25.00,-10.00,+9.00,-4.00,-1.00,+15.00
-16.00,-3.00,-28.00,-7.00,-8.00,+8.00,-28.00,-96.00,+45.00,+41.00,+1.00,-3.00,-10.00,-7.00,-5.00,-8.00
+26.00,+8.00,+13.00,+6.00,-2.00,-18.00,+6.00,+58.00,-13.00,-21.00,-41.00,-11.00,-1.00,-5.00,-4.00,-19.00
-14.00,-13.00,-15.00,-8.00,-10.00,-5.00,+1.00,+1.00,-28.00,+5.00,+39.00,+7.00,-23.00,-7.00,+8.00,-4.00
-15.00,+3.00,+4.00,-2.00,+1.00,+9.00,+2.00,-14.00,+43.00,+11.00,+36.00,-2.00,-10.00,-3.00,-8.00,+12.00
-33.00,-5.00,-3.00,+0.00,+25.00,+21.00,+5.00,+2.00,-5.00,-21.00,-20.00,+1.00,+21.00,+7.00,-12.00,-16.00
-33.00,+1.00,-10.00,-8.00,-67.00,-23.00,-28.00,-36.00,+46.00,+14.00,+4.00,-3.00,-16.00,-25.00,+4.00,+28.00
+59.00,-8.00,-11.00,+3.00,+12.00,+23.00,+4.00,+56.00,+12.00,-4.00,+15.00,+0.00,-25.00,+12.00,+15.00,+12.00
+1.00,+8.00,+13.00,-4.00,+11.00,-31.00,+1.00,+12.00,+18.00,+5.00,+14.00,+15.00,+44.00,+16.00,+2.00,+1.00
+5.00,-1.00,-5.00,-2.00,-5.00,+6.00,+1.00,+29.00,+24.00,+2.00,+5.00,+0.00,-11.00,+13.00,+19.00,+6.00
-6.00,-13.00,+7.00,-2.00,+0.00,-1.00,-6.00,-34.00,+0.00,-7.00,+1.00,+1.00,-2.00,-5.00,-17.00,-1.00
-25.00,-1.00,-6.00,-1.00,-3.00,-5.00,-4.00,-10.00,+23.00,-10.00,-17.00,-11.00,-56.00,-23.00,-33.00,-49.00
+33.00,-18.00,+19.00,+1.00,+4.00,+13.00,-9.00,-25.00,-15.00,+6.00,-1.00,-13.00,-24.00,+1.00,+14.00,+40.00
+13.00,+9.00,-7.00,-3.00,-11.00,-8.00,-2.00,+14.00,+20.00,-5.00,-1.00,+10.00,+28.00,-10.00,-3.00,+9.00
-13.00,+7.00,+1.00,+2.00,+16.00,+6.00,+1.00,-1.00,+0.00,+6.00,+1.00,-3.00,-9.00,-2.00,+10.00,-3.00
-35.00,-9.00,+4.00,-2.00,-6.00,-3.00,-2.00,-18.00,-8.00,-8.00,-20.00,-9.00,-3.00,+12.00,+7.00,+16.00
+14.00,+13.00,-7.00,-10.00,+7.00,+5.00,+4.00,+12.00,-18.00,+4.00,-2.00,+5.00,+31.00,-2.00,-8.00,-23.00
+24.00,-22.00,+8.00,+4.00,-4.00,-10.00,+3.00,-1.00,-10.00,-25.00,+12.00,+6.00,+12.00,-1.00,+4.00,+0.00
+24.00,+9.00,-10.00,-3.00,+7.00,+4.00,+0.00,+1.00,-4.00,+43.00,+5.00,-1.00,-4.00,-8.00,-4.00,-2.00
+38.00,+5.00,+26.00,+8.00,+0.00,+0.00,+1.00,-20.00,-12.00,-23.00,-12.00,+1.00,+24.00,+10.00,+2.00,-2.00
-49.00,-28.00,-4.00,-8.00,-6.00,-6.00,+0.00,+63.00,-6.00,+2.00,+1.00,-2.00,-5.00,-8.00,-8.00,-12.00
+39.00,+0.00,-7.00,-2.00,-2.00,-4.00,-6.00,-33.00,-25.00,-33.00,+0.00,+2.00,+0.00,+0.00,+2.00,+3.00
-15.00,-17.00,-8.00,+0.00,+10.00,+3.00,+4.00,-7.00,-2.00,+10.00,+15.00,-8.00,-10.00,-3.00,-4.00,-1.00
-30.00,-21.00,-14.00,-3.00,+6.00,+2.00,+4.00,+24.00,+3.00,-13.00,-30.00,-4.00,-5.00,-4.00,+1.00,+10.00
+24.00,+9.00,+6.00,+3.00,-9.00,+1.00,+8.00,-27.00,-10.00,-6.00,+2.00,+2.00,+13.00,+13.00,-22.00,-3.00
-21.00,+14.00,-1.00,+0.00,-18.00,-38.00,-8.00,+2.00,-8.00,+2.00,-2.00,-8.00,-18.00,-18.00,+31.00,-4.00
-9.00,-7.00,+1.00,-3.00,+30.00,+3.00,-5.00,+4.00,+1.00,+4.00,-6.00,+3.00,+7.00,-7.00,-13.00,+5.00
-7.00,-6.00,-8.00,+1.00,+12.00,-18.00,+7.00,-20.00,+14.00,+20.00,+17.00,+2.00,-13.00,+3.00,+8.00,+23.00
-23.00,+12.00,+10.00,+0.00,-1.00,+34.00,-10.00,-27.00,+5.00,+0.00,+2.00,+5.00,+62.00,+5.00,-3.00,-8.00
-46.00,-6.00,-6.00,-2.00,-2.00,+11.00,+6.00,+20.00,-20.00,+3.00,-2.00,+6.00,-19.00,+0.00,-14.00,-10.00
+26.00,+17.00,+10.00,+0.00,-13.00,-8.00,-5.00,-36.00,-17.00,-12.00,+0.00,-16.00,-40.00,-6.00,+5.00,+0.00
-18.00,-3.00,-7.00,-3.00,+8.00,+12.00,-3.00,+15.00,+17.00,-2.00,-7.00,-8.00,-11.00,+5.00,+5.00,+10.00
-18.00,+21.00,+4.00,-1.00,-6.00,-9.00,-3.00,-11.00,+3.00,+2.00,-5.00,-3.00,+11.00,-12.00,+7.00,-1.00
+13.00,+4.00,-2.00,+0.00,-2.00,+1.00,+1.00,+11.00,+10.00,+5.00,-1.00,-7.00,-17.00,-15.00,-14.00,-9.00
+1.00,-11.00,+1.00,+0.00,+1.00,+5.00,+1.00,+11.00,-11.00,-4.00,-4.00,+4.00,+19.00,+0.00,-2.00,-25.00
+56.00,-9.00,-2.00,+2.00,-4.00,+5.00,-3.00,-21.00,-23.00,-10.00,-5.00,-3.00,-6.00,+0.00,-2.00,-1.00
+26.00,+1.00,-3.00,-5.00,+1.00,-6.00,-2.00,-4.00,+4.00,-5.00,-2.00,+1.00,+1.00,+9.00,+4.00,+0.00
-7.00,+3.00,-4.00,-2.00,+2.00,-6.00,+3.00,+11.00,-3.00,+5.00,+6.00,+2.00,+16.00,+4.00,-6.00,-9.00
+17.00,+18.00,+16.00,+3.00,-2.00,+3.00,+1.00,-7.00,+3.00,+4.00,-8.00,-6.00,-15.00,-5.00,-4.00,+15.00
+8.00,-8.00,-10.00,-3.00,-7.00,-3.00,-1.00,-14.00,-18.00,-23.00,-6.00,+4.00,+22.00,+6.00,+0.00,-10.00
+2.00,-29.00,+2.00,+1.00,+0.00,-12.00,-2.00,-37.00,+17.00,+26.00,+10.00,-3.00,-16.00,-6.00,+4.00,+8.00
-45.00,+6.00,-5.00,-6.00,+3.00,+7.00,-1.00,+24.00,+2.00,-4.00,+7.00,+0.00,+5.00,+4.00,-1.00,+6.00
+13.00,+16.00,+0.00,+2.00,+2.00,+3.00,-2.00,-20.00,-7.00,-25.00,-35.00,-6.00,-6.00,+2.00,+1.00,-1.00
-28.00,-20.00,-7.00,-5.00,-11.00,-5.00,+3.00,+24.00,-13.00,+1.00,+6.00,+4.00,+7.00,-3.00,-3.00,-6.00
+29.00,+6.00,-1.00,-1.00,+8.00,+18.00,+2.00,+1.00,+32.00,+10.00,-15.00,-7.00,-14.00,+0.00,+3.00,+3.00
-3.00,-6.00,-2.00,+0.00,-10.00,-8.00,+1.00,-5.00,-8.00,+4.00,+5.00,+0.00,-9.00,-5.00,-10.00,-20.00
