-1.00,-1.00,+0.00,-1.00,-1.00,+0.00,-2.00,-3.00,-1.00,-2.00,-2.00,+0.00,-3.00,+0.00,+0.00,+0.00
-2.00,-2.00,+1.00,-1.00,+1.00,-1.00,-1.00,+2.00,-1.00,-1.00,-1.00,+0.00,+0.00,+1.00,-1.00,+0.00
-1.00,-3.00,-6.00,+5.00,-4.00,-3.00,-3.00,-1.00,-2.00,+0.00,-1.00,-2.00,-1.00,+0.00,+0.00,-1.00
+0.00,-4.00,-2.00,-4.00,-1.00,-2.00,-3.00,-4.00,+1.00,-1.00,-1.00,-1.00,-2.00,-1.00,-2.00,+1.00
-3.00,+0.00,-1.00,+2.00,-1.00,-1.00,-1.00,-1.00,+0.00,+0.00,+0.00,+6.00,-1.00,+0.00,-1.00,-3.00
+0.00,+1.00,+2.00,-3.00,-2.00,+0.00,-1.00,-4.00,-1.00,+1.00,+0.00,-5.00,-2.00,-1.00,-1.00,-1.00
+1.00,+2.00,+3.00,+0.00,+2.00,+2.00,+1.00,+0.00,+0.00,+0.00,-4.00,-11.00,-1.00,-2.00,+0.00,+2.00
-1.00,+0.00,-1.00,-1.00,-3.00,-1.00,+0.00,-1.00,-2.00,-3.00,-5.00,+3.00,-3.00,-2.00,+0.00,+0.00
+1.00,-2.00,+0.00,+1.00,-1.00,+0.00,-1.00,-2.00,-3.00,-3.00,+0.00,-5.00,-1.00,-1.00,-1.00,-2.00
+1.00,+4.00,+1.00,-5.00,+1.00,+0.00,+1.00,+0.00,+0.00,-1.00,-3.00,+3.00,-1.00,-1.00,+0.00,-2.00
-2.00,-1.00,-7.00,+6.00,-3.00,-6.00,-5.00,-1.00,-1.00,-2.00,+1.00,+2.00,-1.00,+0.00,-1.00,+0.00
-3.00,-5.00,-10.00,-9.00,-4.00,-5.00,-4.00,-4.00,+0.00,+0.00,+0.00,-4.00,+0.00,+0.00,-3.00,-1.00
+1.00,-1.00,+9.00,-3.00,+1.00,+0.00,+1.00,+2.00,-1.00,-1.00,-3.00,+0.00,-1.00,-1.00,+1.00,+0.00
+1.00,-5.00,+0.00,+3.00,-1.00,+1.00,+1.00,+1.00,-2.00,+2.00,+4.00,+17.00,+2.00,-1.00,-1.00,-1.00
-5.00,+1.00,-4.00,-1.00,+3.00,+3.00,+1.00,-2.00,+0.00,+1.00,-3.00,-22.00,-1.00,-1.00,-1.00,+1.00
-7.00,-15.00,-8.00,+0.00,+0.00,+1.00,+0.00,-5.00,-1.00,-7.00,-3.00,-3.00,-3.00,-2.00,+1.00,-1.00
+7.00,+37.00,+0.00,-4.00,-4.00,-5.00,-5.00,+0.00,-2.00,-4.00,-4.00,-5.00,-2.00,-2.00,-3.00,-1.00
+14.00,+47.00,+21.00,+7.00,+0.00,+4.00,+4.00,+8.00,-4.00,+2.00,+4.00,-1.00,+0.00,-1.00,-2.00,-2.00
-7.00,+34.00,+3.00,-6.00,-3.00,-11.00,-3.00,-2.00,+1.00,+0.00,+3.00,+10.00,+1.00,+0.00,+0.00,-1.00
+6.00,+34.00,+3.00,+9.00,+3.00,+3.00,+1.00,-1.00,-6.00,+2.00,+2.00,+3.00,+2.00,-1.00,-3.00,+0.00
-10.00,-44.00,+0.00,+1.00,+1.00,+0.00,+0.00,-4.00,-5.00,-41.00,-12.00,-6.00,-1.00,-1.00,+0.00,-1.00
-1.00,+19.00,+4.00,-4.00,-4.00,-1.00,-2.00,-1.00,-13.00,-27.00,-16.00,-5.00,+7.00,-2.00,+0.00,-5.00
-3.00,-24.00,-10.00,-6.00,-2.00,-1.00,-3.00,-1.00,+52.00,+94.00,+32.00,+17.00,+16.00,+4.00,+3.00,+6.00
-2.00,+2.00,+0.00,-4.00,-2.00,+0.00,-1.00,-3.00,-14.00,-13.00,+0.00,-5.00,-19.00,-1.00,+4.00,+5.00
-1.00,+1.00,-15.00,-4.00,+0.00,-4.00,-5.00,-4.00,+15.00,+27.00,+18.00,+8.00,-1.00,+0.00,+2.00,+7.00
-4.00,-37.00,-7.00,+6.00,+0.00,-2.00,+0.00,-3.00,-7.00,-22.00,-18.00,-14.00,-10.00,-5.00,-4.00,-4.00
+2.00,+3.00,+2.00,-4.00,-1.00,+1.00,-1.00,+0.00,-12.00,-28.00,-11.00,-3.00,+2.00,-4.00,-4.00,-6.00
+4.00,-7.00,+3.00,+0.00,-2.00,-3.00,-1.00,+2.00,-4.00,-3.00,-1.00,+7.00,+6.00,-1.00,-3.00,-4.00
+1.00,-1.00,+0.00,-2.00,+1.00,+3.00,+1.00,+2.00,-7.00,-12.00,-2.00,-10.00,-1.00,-1.00,-1.00,-3.00
-10.00,-23.00,-16.00,-2.00,-2.00,-3.00,-3.00,-6.00,+8.00,-7.00,+2.00,-9.00,-2.00,+0.00,+0.00,+0.00
+4.00,+39.00,+15.00,+4.00,+2.00,+2.00,+0.00,+0.00,-2.00,+21.00,-7.00,+5.00,-5.00,-1.00,-1.00,-2.00
-5.00,-37.00,+2.00,+3.00,+3.00,+3.00,+0.00,+0.00,+6.00,+3.00,+2.00,-2.00,+2.00,-1.00,+1.00,-3.00
+6.00,+7.00,+19.00,+4.00,+2.00,+1.00,+1.00,+0.00,-12.00,-9.00,-6.00,+4.00,-3.00,-1.00,-1.00,-2.00
+9.00,+12.00,+1.00,+2.00,+2.00,-1.00,+0.00,+3.00,+2.00,+5.00,+3.00,-3.00,-1.00,-2.00,+0.00,+0.00
-5.00,-10.00,-12.00,-8.00,-5.00,+2.00,+1.00,+0.00,-16.00,-24.00,-2.00,-5.00,-7.00,-1.00,-3.00,-5.00
-5.00,+4.00,-10.00,-12.00,-3.00,-4.00,-3.00,-5.00,-11.00,-21.00,-14.00,-3.00,-1.00,-2.00,+1.00,-2.00
-18.00,-38.00,-25.00,+4.00,+0.00,-1.00,-4.00,-7.00,+0.00,+18.00,-3.00,+0.00,+3.00,+1.00,-1.00,-2.00
+19.00,+74.00,+55.00,+14.00,+6.00,+4.00,+5.00,+6.00,+4.00,+21.00,+8.00,+1.00,-1.00,+1.00,+0.00,+0.00
-1.00,-27.00,-9.00,-12.00,-8.00,-6.00,-1.00,+0.00,+9.00,+28.00,+28.00,+14.00,+0.00,-1.00,+1.00,+5.00
+1.00,+10.00,-5.00,-7.00,-4.00,-2.00,-5.00,-10.00,+2.00,+11.00,+5.00,-3.00,+0.00,-2.00,-3.00,+0.00
-3.00,-21.00,-6.00,+1.00,-1.00,-2.00,-2.00,-5.00,+6.00,+11.00,-31.00,-14.00,-4.00,-3.00,-5.00,-3.00
-11.00,-24.00,-16.00,-2.00,-2.00,-2.00,-3.00,+20.00,-2.00,-10.00,-16.00,-6.00,-5.00,-2.00,-4.00,-3.00
+9.00,+11.00,+10.00,+14.00,+12.00,+9.00,+3.00,+2.00,-17.00,-77.00,-15.00,+3.00,+0.00,+2.00,+0.00,-3.00
-2.00,+20.00,-4.00,-4.00,-12.00,+23.00,+6.00,+3.00,+2.00,+9.00,+8.00,-4.00,+3.00,-1.00,+1.00,+1.00
-4.00,+4.00,-6.00,-7.00,-1.00,-30.00,-7.00,-5.00,-8.00,-13.00,+5.00,-2.00,-4.00,-1.00,+2.00,+0.00
+3.00,-47.00,-9.00,+0.00,+3.00,-8.00,-4.00,-8.00,-6.00,+12.00,+7.00,+7.00,-1.00,+2.00,+1.00,+3.00
-7.00,-10.00,+11.00,+1.00,-3.00,-7.00,-2.00,-2.00,-8.00,-21.00,-11.00,-2.00,-3.00,-5.00,-4.00,-4.00
+0.00,-15.00,-5.00,+2.00,+2.00,-6.00,-1.00,-2.00,-2.00,-5.00,-5.00,+3.00,+9.00,+0.00,-5.00,-5.00
+0.00,+17.00,+1.00,-3.00,-1.00,+12.00,+4.00,-1.00,-20.00,-25.00,+4.00,+3.00,+22.00,+2.00,+2.00,-6.00
-12.00,-51.00,-30.00,-12.00,-15.00,-4.00,+12.00,-8.00,+25.00,+91.00,-4.00,-13.00,-43.00,-19.00,-48.00,-5.00
-3.00,-2.00,+22.00,+4.00,+0.00,+2.00,-12.00,+2.00,-9.00,-25.00,+6.00,-3.00,-2.00,+18.00,+47.00,+9.00
+20.00,+8.00,+1.00,+5.00,+5.00,-10.00,-15.00,+1.00,+4.00,+5.00,+2.00,+0.00,-1.00,+1.00,+3.00,+3.00
+6.00,+65.00,+8.00,+0.00,+1.00,+4.00,+2.00,+3.00,+0.00,+4.00,+2.00,+1.00,+3.00,-1.00,+2.00,-3.00
-10.00,-24.00,-14.00,-6.00,+1.00,-3.00,-6.00,-4.00,-27.00,-34.00,+3.00,+4.00,+13.00,-2.00,-5.00,-6.00
-5.00,-15.00,-13.00,-2.00,+3.00,+9.00,+3.00,-3.00,-21.00,-55.00,-24.00,-7.00,+12.00,-1.00,-11.00,-8.00
-11.00,+10.00,+1.00,-3.00,-7.00,-4.00,+4.00,-2.00,+28.00,+51.00,+1.00,-2.00,-20.00,-12.00,-11.00,-2.00
-1.00,-30.00,-8.00,-9.00,-3.00,+7.00,-10.00,+2.00,+7.00,+18.00,+17.00,+1.00,-15.00,-4.00,+4.00,+7.00
-5.00,-11.00,-20.00,-3.00,-2.00,+7.00,-4.00,-5.00,+8.00,+4.00,+2.00,-3.00,-14.00,-1.00,+13.00,+5.00
+5.00,-2.00,+12.00,+6.00,+0.00,-12.00,+4.00,+3.00,-11.00,+9.00,-1.00,-4.00,-13.00,-7.00,-13.00,-6.00
-3.00,+15.00,+13.00,+6.00,+5.00,+0.00,-1.00,+2.00,-14.00,-71.00,-14.00,+1.00,+20.00,+8.00,+8.00,-2.00
-4.00,-1.00,+1.00,+4.00,+2.00,+4.00,+2.00,-1.00,+23.00,-1.00,-15.00,-7.00,+1.00,-4.00,-10.00,-3.00
-13.00,-38.00,-27.00,-10.00,-1.00,+28.00,-4.00,-8.00,-29.00,+40.00,+17.00,-1.00,+0.00,+2.00,+7.00,-6.00
-13.00,-27.00,-27.00,-14.00,-2.00,-51.00,-20.00,-10.00,+3.00,+11.00,-6.00,-1.00,-2.00,-5.00,-6.00,-3.00
+8.00,+53.00,+39.00,+11.00,+10.00,+20.00,+0.00,-11.00,+12.00,-14.00,+7.00,+4.00,+4.00,+1.00,-3.00,+11.00
+10.00,+15.00,-4.00,+3.00,-10.00,-4.00,-8.00,+5.00,-2.00,+23.00,+8.00,+4.00,-7.00,-2.00,-2.00,+1.00
+0.00,-7.00,+19.00,+5.00,+4.00,-10.00,+4.00,-4.00,-3.00,-36.00,-7.00,+2.00,+14.00,+5.00,+11.00,+4.00
-2.00,-25.00,-21.00,-8.00,-4.00,+5.00,-5.00,-9.00,-23.00,-47.00,-15.00,+3.00,+40.00,-3.00,-36.00,-8.00
-11.00,-41.00,-18.00,-5.00,-5.00,-11.00,+6.00,+19.00,-12.00,+19.00,-12.00,-12.00,-17.00,+1.00,+50.00,-8.00
-3.00,-16.00,-2.00,+1.00,+2.00,+4.00,+2.00,-5.00,+10.00,+22.00,+11.00,-10.00,-38.00,-19.00,-19.00,+6.00
-4.00,+32.00,-17.00,-2.00,-4.00,+2.00,-29.00,-3.00,+6.00,+30.00,+7.00,+3.00,+2.00,+4.00,+8.00,+10.00
+0.00,-14.00,+5.00,+1.00,+7.00,+21.00,+11.00,+1.00,+19.00,+24.00,+16.00,+4.00,-4.00,-2.00,-12.00,+12.00
+7.00,-37.00,-19.00,-9.00,-13.00,-43.00,-12.00,-3.00,-11.00,-11.00,-7.00,+0.00,+21.00,+4.00,-2.00,-3.00
+2.00,+8.00,+21.00,+2.00,-2.00,+3.00,+0.00,+5.00,-21.00,-41.00,-14.00,+3.00,+14.00,+6.00,+6.00,-9.00
+7.00,+6.00,+1.00,-2.00,-11.00,-19.00,+7.00,+3.00,-2.00,-69.00,-8.00,-2.00,+2.00,+0.00,+2.00,-10.00
-9.00,-35.00,-15.00,-1.00,+9.00,+19.00,+3.00,-5.00,+3.00,+17.00,-14.00,-2.00,+9.00,-12.00,+1.00,+14.00
-14.00,-10.00,+1.00,-4.00,-13.00,-48.00,+9.00,-11.00,-35.00,+21.00,+10.00,+4.00,-8.00,-1.00,-9.00,-1.00
-9.00,-21.00,-11.00,-1.00,-4.00,-28.00,-7.00,-8.00,+20.00,-3.00,-2.00,-4.00,-16.00,-14.00,-6.00,-6.00
+9.00,-10.00,+7.00,+3.00,+0.00,-8.00,+15.00,-1.00,-3.00,-20.00,-1.00,+5.00,+14.00,+3.00,+6.00,+1.00
+41.00,+109.00,+44.00,+13.00,+9.00,+10.00,+10.00,+18.00,+2.00,+43.00,-3.00,-4.00,-7.00,+8.00,+4.00,-8.00
-4.00,-13.00,+0.00,-1.00,+9.00,+15.00,-1.00,-2.00,-3.00,-6.00,+9.00,+15.00,+15.00,+13.00,+3.00,+5.00
+0.00,-20.00,-19.00,-3.00,-30.00,-4.00,-8.00,+3.00,+27.00,+7.00,-13.00,-14.00,+3.00,-44.00,-13.00,-7.00
-18.00,+69.00,+15.00,-4.00,+20.00,+5.00,+2.00,-11.00,-46.00,-96.00,-9.00,-8.00,-19.00,+15.00,+0.00,-1.00
-10.00,-87.00,-12.00,+2.00,-15.00,-34.00,+10.00,+10.00,+88.00,+83.00,+43.00,+3.00,-15.00,-3.00,+9.00,-6.00
-9.00,+12.00,+4.00,-6.00,+3.00,-2.00,-5.00,-8.00,+27.00,-12.00,-2.00,+1.00,-2.00,-2.00,-13.00,+1.00
+20.00,-20.00,+22.00,+4.00,+12.00,-9.00,+9.00,+4.00,-18.00,-5.00,+9.00,+14.00,+43.00,+20.00,+14.00,-1.00
+13.00,+47.00,+2.00,+2.00,+2.00,+19.00,+0.00,+5.00,-9.00,-66.00,-19.00,-5.00,-24.00,-8.00,-5.00,-9.00
-5.00,-27.00,-14.00,-5.00,-8.00,-4.00,+7.00,+2.00,-3.00,+9.00,-23.00,-7.00,+12.00,+2.00,-7.00,+8.00
-22.00,-37.00,-27.00,-5.00,+7.00,+51.00,-43.00,-15.00,-27.00,-57.00,+3.00,-2.00,-18.00,+1.00,+62.00,+3.00
+15.00,+105.00,+48.00,+0.00,+13.00,+0.00,+19.00,+19.00,+72.00,-10.00,+14.00,+9.00,+16.00,+13.00,-7.00,+11.00
+19.00,-117.00,+6.00,+14.00,+22.00,-35.00,+38.00,+26.00,+27.00,+59.00,+3.00,-5.00,-5.00,-4.00,+1.00,+5.00
-2.00,+127.00,+30.00,-2.00,+6.00,+33.00,-9.00,+1.00,-42.00,-70.00,-3.00,+0.00,+30.00,+5.00,-2.00,-14.00
-1.00,-37.00,-11.00,+5.00,+2.00,-23.00,+6.00,+3.00,-2.00,-51.00,-38.00,-20.00,-68.00,-20.00,-36.00,-21.00
-12.00,-62.00,-51.00,-14.00,+1.00,+3.00,+37.00,-4.00,-41.00,-23.00,-6.00,-2.00,+37.00,+4.00,+19.00,+18.00
-45.00,-8.00,-9.00,-11.00,-15.00,+2.00,-54.00,-41.00,-31.00,+75.00,+26.00,+39.00,+63.00,+15.00,-30.00,-13.00
+8.00,-120.00,-30.00,+5.00,+3.00,-24.00,-4.00,-6.00,-12.00,-18.00,+8.00,-22.00,-89.00,-41.00,+57.00,+4.00
+22.00,+117.00,+60.00,+15.00,-6.00,+11.00,+12.00,+9.00,-20.00,+11.00,-12.00,-24.00,+0.00,+13.00,-29.00,+11.00
+14.00,+6.00,+20.00,+4.00,+1.00,+13.00,-34.00,-15.00,-7.00,+70.00,+9.00,-14.00,-31.00,+9.00,+5.00,+10.00
-19.00,-40.00,+0.00,-8.00,-10.00,+3.00,+46.00,+24.00,+1.00,-81.00,-41.00,-20.00,-64.00,-11.00,-10.00,-21.00
-3.00,-13.00,-25.00,-9.00,-11.00,+0.00,-25.00,-15.00,+31.00,-51.00,-12.00,+7.00,+10.00,-10.00,+13.00,+1.00
-51.00,-47.00,-31.00,-6.00,-13.00,-2.00,-61.00,-22.00,+69.00,+96.00,+44.00,+25.00,+12.00,-53.00,-109.00,+6.00
+79.00,-19.00,-18.00,+0.00,+23.00,+24.00,+30.00,+38.00,-64.00,-17.00,-24.00,-19.00,-38.00,+43.00,+54.00,-18.00
-17.00,+68.00,+32.00,-4.00,-16.00,-15.00,-43.00,-33.00,+13.00,+41.00,-7.00,-1.00,+0.00,+11.00,-1.00,+6.00
-4.00,+42.00,-1.00,+0.00,+2.00,+6.00,+6.00,-6.00,-16.00,+39.00,+19.00,+7.00,+8.00,+13.00,-7.00,-12.00
+27.00,+4.00,+23.00,+8.00,+9.00,+34.00,+22.00,+22.00,+8.00,-16.00,-15.00,-10.00,-3.00,-16.00,+9.00,-1.00
-55.00,+4.00,-4.00,-3.00,-15.00,-6.00,-22.00,-12.00,+54.00,-1.00,+15.00,+16.00,+22.00,-1.00,-4.00,+12.00
+11.00,-11.00,-21.00,-3.00,+12.00,+18.00,+0.00,+3.00,-45.00,-89.00,-44.00,-14.00,-8.00,-29.00,-62.00,-34.00
+4.00,+20.00,+8.00,-1.00,-35.00,+0.00,-5.00,+0.00,+14.00,+51.00,+8.00,-6.00,+20.00,+4.00,+4.00,+26.00
-10.00,-57.00,-21.00,-8.00,+23.00,+12.00,+26.00,-6.00,+23.00,+68.00,+25.00,-2.00,-27.00,+15.00,+20.00,-6.00
-27.00,-6.00,-24.00,-3.00,-26.00,-18.00,-10.00,-18.00,-20.00,-23.00,+1.00,+1.00,-12.00,-8.00,-13.00,-7.00
+23.00,-13.00,+47.00,+8.00,+10.00,+8.00,+7.00,+11.00,-10.00,-13.00,+5.00,+1.00,+36.00,+5.00,+23.00,+4.00
+4.00,+4.00,-5.00,+4.00,+11.00,+34.00,+13.00,-2.00,-11.00,-39.00,-25.00,-10.00,-45.00,-8.00,-23.00,-9.00
+19.00,-29.00,-12.00,+1.00,-9.00,-20.00,-7.00,+4.00,-12.00,-39.00,-14.00,+0.00,+10.00,+9.00,-4.00,-13.00
-48.00,-43.00,-18.00,-11.00,+3.00,+2.00,+7.00,-13.00,-28.00,-23.00,+1.00,+14.00,+92.00,+3.00,+3.00,-5.00
+11.00,+70.00,+8.00,-11.00,-22.00,-1.00,+28.00,+5.00,+21.00,+32.00,+37.00,-16.00,-85.00,-17.00,+3.00,+18.00
+26.00,+50.00,+43.00,+6.00,+11.00,+2.00,-57.00,+15.00,-4.00,-15.00,-29.00,-8.00,-2.00,+4.00,-8.00,+0.00
+1.00,-99.00,+10.00,+7.00,+23.00,+10.00,+41.00,+10.00,+3.00,+53.00,+38.00,+13.00,+16.00,+4.00,+30.00,+5.00
+17.00,+125.00,+31.00,+14.00,+0.00,-12.00,-62.00,-20.00,-67.00,-73.00,-21.00,-3.00,-26.00,-15.00,-34.00,-45.00
-10.00,-47.00,-22.00,+1.00,-12.00,-8.00,-35.00,+14.00,+51.00,+38.00,+1.00,-4.00,+28.00,-26.00,+15.00,+19.00
-4.00,+4.00,-5.00,-9.00,-4.00,-11.00,+11.00,-6.00,+24.00,-57.00,-8.00,+9.00,-8.00,+22.00,-23.00,+0.00
-11.00,+42.00,-4.00,-5.00,+7.00,+8.00,+1.00,+7.00,+21.00,+13.00,+14.00,+12.00,-1.00,+36.00,+12.00,+23.00
-18.00,-70.00,-22.00,-6.00,-6.00,+7.00,+16.00,+19.00,+41.00,+58.00,+23.00,+11.00,-1.00,+11.00,+47.00,+14.00
+48.00,+63.00,+32.00,+0.00,-8.00,-9.00,-4.00,+6.00,+8.00,+35.00,-4.00,+1.00,+31.00,-6.00,-5.00,-2.00
-17.00,-66.00,-14.00,+0.00,-8.00,-13.00,+11.00,-2.00,-12.00,+32.00,-1.00,+0.00,-4.00,+2.00,+0.00,-6.00
-10.00,+53.00,-30.00,-5.00,+20.00,+65.00,-23.00,-24.00,-5.00,-53.00,-33.00,-9.00,+17.00,-11.00,-13.00,-23.00
-11.00,-35.00,+3.00,-2.00,+0.00,-32.00,-35.00,+14.00,+37.00,+36.00,+8.00,+2.00,-14.00,+3.00,-13.00,+24.00
-23.00,-37.00,-39.00,-4.00,-6.00,-38.00,+7.00,-13.00,-5.00,-11.00,+12.00,+12.00,+47.00,+19.00,+26.00,-3.00
-12.00,-15.00,+0.00,-7.00,+23.00,+14.00,+22.00,-1.00,-27.00,-52.00,-18.00,-4.00,-5.00,-13.00,-6.00,-26.00
+17.00,+39.00,+13.00,+4.00,-13.00,-6.00,+20.00,+1.00,+2.00,+20.00,-4.00,+1.00,+71.00,+25.00,+27.00,+18.00
-20.00,-44.00,+0.00,-4.00,+7.00,+15.00,+2.00,-24.00,-11.00,-1.00,+16.00,+25.00,+28.00,-46.00,-28.00,+3.00
+2.00,-7.00,-24.00,+6.00,+27.00,+38.00,-38.00,+0.00,-3.00,+1.00,-17.00,-38.00,-64.00,+6.00,+4.00,-4.00
+16.00,+31.00,+7.00,+6.00,-11.00,-21.00,-13.00,+23.00,-25.00,+7.00,+2.00,-6.00,-8.00,-11.00,-20.00,-9.00
+5.00,+20.00,+10.00,-3.00,-11.00,-28.00,-16.00,+0.00,-13.00,-80.00,-19.00,-5.00,+35.00,-5.00,-4.00,-9.00
+13.00,+45.00,+8.00,-2.00,+3.00,+15.00,+53.00,-1.00,-6.00,+28.00,+15.00,-2.00,+5.00,-9.00,-10.00,-5.00
-22.00,-113.00,-33.00,-10.00,-5.00,-23.00,-1.00,-12.00,-7.00,-8.00,+8.00,+12.00,-15.00,+7.00,+23.00,+34.00
+10.00,+25.00,+47.00,+12.00,+1.00,+13.00,+23.00,+6.00,+75.00,+112.00,+40.00,+2.00,+4.00,-18.00,-45.00,+7.00
+0.00,-1.00,-10.00,-3.00,-12.00,-41.00,-27.00,-14.00,-32.00,-42.00,-32.00,-7.00,-19.00,-11.00,+15.00,-12.00
+22.00,-6.00,+6.00,+9.00,+11.00,+34.00,+30.00,+19.00,+28.00,+3.00,-4.00,-11.00,-54.00,+10.00,-13.00,-16.00
+2.00,+45.00,+0.00,+4.00,+2.00,+18.00,+27.00,-3.00,-22.00,-32.00,+6.00,+6.00,+20.00,+7.00,-1.00,-3.00
-17.00,-13.00,-18.00,-10.00,-4.00,-20.00,-18.00,-5.00,+4.00,+59.00,-20.00,-9.00,-12.00,-3.00,+15.00,+13.00
+1.00,-37.00,-6.00,-8.00,-11.00,+1.00,-10.00,-13.00,-48.00,-69.00,+17.00,+6.00,-6.00,-5.00,-27.00,-14.00
+20.00,+62.00,+30.00,+4.00,+6.00,-41.00,-2.00,+14.00,+3.00,-26.00,-13.00,+0.00,+37.00,+20.00,+7.00,+6.00
-11.00,-42.00,-15.00,+0.00,-24.00,+44.00,-2.00,+6.00,+78.00,+40.00,+20.00,+6.00,-1.00,-29.00,-28.00,-12.00
+11.00,+31.00,+23.00,-4.00,-17.00,-62.00,+12.00,-7.00,+17.00,-13.00,-22.00,-2.00,+12.00,+9.00,+41.00,+25.00
-13.00,-63.00,-11.00,+3.00,+5.00,+4.00,-8.00,+6.00,+23.00,+100.00,+27.00,+1.00,-14.00,-21.00,-28.00,+6.00
-11.00,-9.00,-28.00,-2.00,-12.00,+2.00,+23.00,-29.00,-65.00,-81.00,-31.00,-11.00,-44.00,-20.00,-12.00,-15.00
+16.00,+25.00,+36.00,+6.00,+16.00,-3.00,-53.00,+34.00,-15.00,-61.00,-27.00,+0.00,+36.00,+39.00,+14.00,-9.00
-19.00,+8.00,-20.00,-4.00,-2.00,+24.00,+3.00,-9.00,-41.00,-4.00,+43.00,+12.00,-50.00,+9.00,-8.00,-18.00
-11.00,-13.00,-3.00,-1.00,-14.00,-56.00,+13.00,-17.00,-5.00,+30.00,-24.00,-25.00,-3.00,-26.00,-17.00,+0.00
-4.00,-7.00,+6.00,-3.00,-4.00,+33.00,+22.00,+21.00,-5.00,+26.00,+13.00,-4.00,-9.00,+2.00,+70.00,+14.00
+17.00,-5.00,+10.00,+1.00,+6.00,-47.00,+4.00,-22.00,-26.00,+22.00,+7.00,+7.00,+46.00,-4.00,+6.00,-2.00
-40.00,-108.00,-50.00,-10.00,-5.00,+4.00,-14.00,+1.00,-19.00,-68.00,-22.00,-3.00,-40.00,+19.00,+13.00,-20.00
+52.00,+54.00,+40.00,+12.00,+10.00,-3.00,-1.00,+23.00,+5.00,-16.00,-5.00,+0.00,-28.00,+24.00,-12.00,+1.00
+9.00,+33.00,-11.00,-1.00,+13.00,+33.00,-13.00,-14.00,-6.00,+22.00,-19.00,-6.00,+3.00,-17.00,-40.00,-5.00
+21.00,+82.00,+22.00,-1.00,-37.00,-5.00,+21.00,+2.00,+113.00,+33.00,+7.00,+8.00,+35.00,+17.00,-37.00,+8.00
-13.00,-18.00,-13.00,-7.00,+8.00,-3.00,-2.00,-9.00,-18.00,-67.00,-5.00,-8.00,+23.00,+7.00,+38.00,-8.00
-23.00,-12.00,-16.00,-7.00,-9.00,+3.00,+11.00,+0.00,+15.00,+96.00,+3.00,+0.00,-11.00,-8.00,+11.00,+4.00
+9.00,-58.00,+24.00,+2.00,+4.00,-15.00,-3.00,+4.00,+6.00,+74.00,+19.00,+1.00,+1.00,+3.00,-16.00,+12.00
-1.00,+12.00,-20.00,+3.00,-2.00,+1.00,-5.00,-24.00,-44.00,-54.00,+2.00,+7.00,+22.00,-4.00,-9.00,-9.00
+3.00,+5.00,-36.00,-7.00,+15.00,+11.00,+9.00,+1.00,+42.00,+9.00,+9.00,+3.00,-27.00,-34.00,+21.00,+18.00
+9.00,+3.00,-8.00,+0.00,-24.00,-14.00,+28.00,+15.00,+0.00,-66.00,-38.00,-14.00,-6.00,+6.00,+1.00,+4.00
-10.00,-8.00,+9.00,+6.00,+11.00,+39.00,-54.00,-19.00,+27.00,+6.00,-10.00,-5.00,-7.00,+1.00,-20.00,-18.00
-18.00,+20.00,-10.00,-7.00,-10.00,-48.00,-11.00,-18.00,-38.00,+9.00,+5.00,+3.00,+12.00,+11.00,+44.00,+9.00
-7.00,-17.00,-1.00,+3.00,-24.00,+49.00,-10.00,+9.00,-9.00,+28.00,+12.00,+7.00,+50.00,-4.00,-38.00,-8.00
+1.00,-32.00,-10.00,-7.00,+26.00,+19.00,+29.00,+12.00,-51.00,-77.00,-24.00,-2.00,-28.00,-11.00,+14.00,-18.00
-3.00,+7.00,-9.00,-5.00,-17.00,-13.00,-14.00,+8.00,+41.00,+31.00,+6.00,-1.00,+11.00,+26.00,-9.00,+5.00
-18.00,-43.00,-6.00,-3.00,-9.00,+23.00,+0.00,-4.00,-5.00,-7.00,+1.00,+6.00,-34.00,-33.00,-14.00,+12.00
+18.00,+27.00,-13.00,-2.00,+21.00,+8.00,-1.00,-10.00,-47.00,-42.00,-15.00,+0.00,+60.00,+9.00,-9.00,-8.00
+4.00,+0.00,-2.00,-4.00,-9.00,+6.00,-11.00,+6.00,+11.00,+26.00,+29.00,+5.00,+19.00,+8.00,+22.00,+12.00
+32.00,-6.00,+59.00,+8.00,+3.00,+0.00,-1.00,+8.00,-19.00,-28.00,-17.00,-11.00,+2.00,+7.00,-10.00,-6.00
-18.00,-12.00,+8.00,+2.00,+9.00,+21.00,+24.00,+2.00,+16.00,+23.00,+1.00,-1.00,-22.00,-6.00,-5.00,+2.00
+16.00,+62.00,-2.00,+2.00,-1.00,-18.00,+4.00,-4.00,-32.00,-23.00,-5.00,-4.00,-13.00,+10.00,-4.00,+4.00
-17.00,+40.00,+21.00,+1.00,-2.00,+3.00,-9.00,-7.00,+64.00,-14.00,-3.00,+7.00,+23.00,+4.00,+6.00,+4.00
-21.00,-72.00,-36.00,-8.00,-3.00,-17.00,-8.00,-12.00,+5.00,+52.00,-7.00,-4.00,-19.00,-26.00,-3.00,-6.00
+9.00,-33.00,-9.00,-1.00,+29.00,+39.00,+8.00,+8.00,-18.00,-84.00,+4.00,-3.00,+6.00,+38.00,+28.00,-14.00
-11.00,+55.00,+30.00,+0.00,-16.00,-46.00,-9.00,-15.00,-8.00,+47.00,+3.00,+2.00,-14.00,+0.00,-48.00,+4.00
+9.00,-60.00,-16.00,-5.00,-18.00,-2.00,+7.00,-6.00,+19.00,+35.00,+19.00,-1.00,-3.00,-3.00,-2.00,+6.00
+0.00,-6.00,-21.00,-2.00,+2.00,+47.00,+20.00,+17.00,+17.00,-47.00,-10.00,+5.00,+0.00,+1.00,+5.00,+13.00
-5.00,+38.00,+27.00,-1.00,-19.00,-70.00,-13.00,-5.00,-5.00,+52.00,+21.00,+3.00,+9.00,-12.00,-11.00,-3.00
-9.00,-16.00,-4.00,+2.00,+14.00,-9.00,+5.00,+4.00,-28.00,-42.00,-11.00,-3.00,+42.00,+2.00,-4.00,-6.00
-8.00,+0.00,+0.00,-1.00,-11.00,+30.00,-13.00,-10.00,-14.00,-36.00,+3.00,+0.00,-15.00,+8.00,-12.00,-11.00
+24.00,+33.00,+0.00,+0.00,+9.00,-39.00,-11.00,-10.00,-25.00,-14.00,-1.00,-1.00,-27.00,+18.00,+1.00,+8.00
-9.00,-14.00,-21.00,+0.00,+11.00,+33.00,+26.00,+12.00,+38.00,+88.00,-12.00,-14.00,-22.00,+4.00,+0.00,-7.00
+12.00,-46.00,-27.00,-5.00,-3.00,+3.00,-11.00,-4.00,+8.00,-79.00,+1.00,-4.00,+5.00,-6.00,+5.00,+0.00
+16.00,+60.00,+47.00,+5.00,-6.00,-17.00,-5.00,-2.00,+30.00,+39.00,+8.00,+11.00,+28.00,-5.00,-2.00,+19.00
-17.00,-80.00,-13.00,+5.00,+3.00,+8.00,+12.00,+3.00,-17.00,-27.00,-4.00,-10.00,-34.00,+0.00,+14.00,-10.00
-10.00,+18.00,+2.00,-1.00,+7.00,+0.00,-14.00,-1.00,-18.00,+16.00,-4.00,-3.00,-28.00,-13.00,-18.00,-7.00
-10.00,+17.00,+17.00,+2.00,-10.00,-6.00,-5.00,-7.00,+30.00,+4.00,-2.00,+0.00,-7.00,+0.00,+3.00,-7.00
+5.00,-8.00,-22.00,-4.00,+21.00,+7.00,-3.00,-5.00,-48.00,-77.00,-38.00,-14.00,-17.00,-12.00,+25.00,-10.00
+16.00,+33.00,-15.00,-4.00,-7.00,-3.00,+14.00,+14.00,-1.00,+81.00,+67.00,+11.00,+10.00,+4.00,-17.00,-12.00
-10.00,-68.00,-8.00,+2.00,+3.00,-2.00,-9.00,-13.00,-37.00,-33.00,-6.00,-7.00,-29.00,-7.00,+3.00,+6.00
+12.00,+1.00,+14.00,+3.00,-13.00,+22.00,+9.00,+10.00,+43.00,-3.00,-1.00,+6.00,+19.00,+2.00,+7.00,+10.00
-15.00,+71.00,+6.00,-3.00,+9.00,-7.00,+0.00,+0.00,+3.00,+60.00,+11.00,+0.00,-19.00,-6.00,-2.00,-5.00
+13.00,+49.00,+10.00,+2.00,+3.00,-24.00,-1.00,-8.00,-30.00,-28.00,-22.00,-4.00,-38.00,-11.00,-4.00,-10.00
-6.00,-61.00,+3.00,+3.00,-5.00,-3.00,+8.00,+9.00,+14.00,+31.00,-16.00,+1.00,+9.00,-6.00,+49.00,+11.00
+10.00,+21.00,+16.00,+1.00,+11.00,+3.00,+8.00,+6.00,-51.00,-17.00,+9.00,+1.00,-2.00,+11.00,-4.00,-6.00
-8.00,-32.00,-37.00,-9.00,-2.00,-2.00,-4.00,-4.00,+12.00,+79.00,+7.00,-3.00,+15.00,+4.00,-11.00,+1.00
-20.00,-24.00,-14.00,-4.00,-15.00,-27.00,-10.00,-11.00,+26.00,-72.00,-23.00,-8.00,+14.00,-4.00,+3.00,-8.00
-5.00,+21.00,-10.00,-7.00,+21.00,+63.00,-2.00,-3.00,+29.00,+27.00,+18.00,-1.00,-7.00,-1.00,-14.00,+6.00
-2.00,+2.00,+19.00,+8.00,-30.00,+3.00,+4.00,-3.00,+4.00,+25.00,-22.00,+0.00,+21.00,-2.00,+6.00,+3.00
+12.00,+8.00,+3.00,+4.00,+0.00,-21.00,-16.00,-11.00,-26.00,-33.00,+6.00,-2.00,-33.00,-8.00,-1.00,-5.00
-31.00,-25.00,+0.00,-3.00,-8.00,-12.00,-8.00,+4.00,-22.00,-32.00,-4.00,-1.00,-2.00,+2.00,-11.00,+0.00
+6.00,+72.00,+2.00,-1.00,+3.00,-2.00,+6.00,+22.00,-5.00,-15.00,-9.00,-9.00,+25.00,-1.00,-5.00,+0.00
+11.00,-23.00,+15.00,+0.00,+34.00,+10.00,+22.00,-5.00,-3.00,+51.00,+2.00,-5.00,-5.00,-10.00,-4.00,-15.00
-10.00,+19.00,-16.00,+0.00,-52.00,-23.00,+22.00,-15.00,-17.00,-38.00,-1.00,-4.00,-52.00,+7.00,-9.00,+2.00
+23.00,+16.00,+39.00,+3.00,+4.00,+8.00,-23.00,+9.00,+11.00,+12.00,-5.00,-4.00,+8.00,-7.00,+4.00,-12.00
-27.00,-30.00,-30.00,-5.00,-8.00,-29.00,-13.00,-5.00,-9.00,-18.00,+3.00,+0.00,-25.00,-6.00,-5.00,+10.00
+20.00,-22.00,+3.00,-1.00,+1.00,+4.00,+7.00,+11.00,+17.00,+84.00,+43.00,+9.00,+16.00,+3.00,-14.00,-1.00
-77.00,+15.00,+11.00,-1.00,+13.00,+10.00,-5.00,-18.00,-59.00,-45.00,-8.00,+7.00,+51.00,+16.00,+21.00,-12.00
+87.00,+26.00,-10.00,+4.00,+8.00,+4.00,+6.00,-1.00,-15.00,-16.00,-10.00,-6.00,-13.00,-16.00,-16.00,-12.00
-43.00,-31.00,-35.00,-6.00,+15.00,+17.00,+4.00,+2.00,+32.00,-38.00,-7.00,+4.00,+24.00,+30.00,+35.00,-14.00
-77.00,-1.00,+9.00,-6.00,-30.00,-44.00,-24.00,-14.00,+13.00,-79.00,-36.00,-12.00,-33.00,-4.00,-16.00,+21.00
+39.00,-20.00,-10.00,-4.00,+10.00,+9.00,-4.00,+18.00,+23.00,+73.00,+42.00,+8.00,+18.00,-2.00,+4.00,-23.00
-23.00,-52.00,-33.00,-12.00,-15.00,-22.00,+6.00,-6.00,-24.00,-76.00,-16.00,+3.00,+24.00,+9.00,+22.00,+39.00
+24.00,+28.00,+21.00,+13.00,+3.00,-5.00,-5.00,-1.00,-1.00,+66.00,+4.00,-2.00,+1.00,-6.00,-12.00,-26.00
-13.00,-23.00,-8.00,+1.00,+4.00,+9.00,-10.00,-24.00,-2.00,+46.00,+36.00,+7.00,+1.00,-4.00,+10.00,+10.00
-20.00,+11.00,+24.00,+4.00,+13.00,+14.00,-4.00,+19.00,-11.00,-79.00,-18.00,-7.00,+5.00,+1.00,-8.00,+24.00
-17.00,+26.00,-22.00,-7.00,-6.00,-3.00,+3.00,-6.00,+40.00,+64.00,+21.00,+2.00,+20.00,+4.00,+6.00,-8.00
+37.00,-6.00,-13.00,-2.00,-9.00,-15.00,+3.00,-8.00,-19.00,-63.00,-41.00,-6.00,-21.00,-11.00,-21.00,+3.00
+1.00,-21.00,-7.00,-3.00,+5.00,+33.00,-6.00,-13.00,+7.00,-41.00,-19.00,-8.00,+5.00,+1.00,+9.00,-6.00
-2.00,-2.00,-22.00,-7.00,-8.00,-28.00,+4.00,+7.00,+4.00,+2.00,-9.00,-5.00,-16.00,-13.00,-7.00,+12.00
-3.00,-20.00,+42.00,+7.00,+8.00,+21.00,+2.00,+1.00,-32.00,+45.00,+31.00,+9.00,+13.00,+4.00,-7.00,+2.00
+13.00,+18.00,+2.00,+0.00,-6.00,-28.00,+2.00,+17.00,-38.00,+2.00,+2.00,+2.00,+6.00,-3.00,+2.00,+5.00
-2.00,+14.00,-4.00,+0.00,+17.00,+21.00,-7.00,-17.00,-6.00,-12.00,+5.00,+7.00,+44.00,+4.00,-2.00,-22.00
-12.00,-40.00,-5.00,-4.00,-11.00,-22.00,-3.00,+3.00,+25.00,-7.00,-19.00,-6.00,-37.00,-4.00,-6.00,+17.00
-24.00,+3.00,-25.00,-6.00,-7.00,-11.00,-2.00,+1.00,-16.00,+43.00,-12.00,-7.00,-1.00,-6.00,-7.00,-2.00
+11.00,-37.00,+9.00,-4.00,-3.00,+17.00,-4.00,-2.00,-23.00,-68.00,+22.00,+5.00,+18.00,+3.00,-36.00,-27.00
-7.00,+12.00,-2.00,-4.00,+3.00,-10.00,-2.00,+8.00,-6.00,+15.00,-13.00,-12.00,-51.00,-14.00,+6.00,+28.00
+21.00,+0.00,+14.00,+2.00,-1.00,+15.00,-1.00,+0.00,+6.00,+10.00,+12.00,+7.00,+60.00,+7.00,-8.00,-21.00
-39.00,+6.00,-8.00,+0.00,+9.00,-3.00,+1.00,-2.00,+45.00,-35.00,-32.00,-4.00,+0.00,+2.00,+12.00,+20.00
-2.00,+22.00,+19.00,+0.00,-11.00,-5.00,-1.00,-16.00,-54.00,+61.00,+27.00,-3.00,-32.00,-13.00,-16.00,-29.00
+3.00,-64.00,-55.00,-14.00,-3.00,-2.00,-2.00,+3.00,-26.00,+2.00,-4.00,-1.00,-5.00,+8.00,+1.00,+13.00
+9.00,+17.00,+43.00,+7.00,+16.00,+22.00,-4.00,-39.00,+21.00,+29.00,-5.00,-2.00,+12.00,-9.00,-6.00,-8.00
+0.00,+56.00,+38.00,+11.00,-10.00,+24.00,+4.00,+28.00,+3.00,-81.00,-4.00,+2.00,+13.00,+5.00,-11.00,-13.00
-5.00,-15.00,-7.00,-4.00,-1.00,-25.00,-3.00,+22.00,+32.00,+35.00,-22.00,-4.00,-1.00,-1.00,+7.00,+20.00
-61.00,-37.00,-14.00,+2.00,-7.00,+33.00,-3.00,-21.00,+5.00,+26.00,-22.00,-7.00,+6.00,-1.00,+3.00,-13.00
+91.00,-3.00,+13.00,+5.00,+16.00,+25.00,+15.00,+21.00,-32.00,-1.00,+16.00,-1.00,-17.00,-1.00,+8.00,+0.00
-5.00,+3.00,-14.00,-7.00,-5.00,+11.00,+4.00,+3.00,-3.00,-5.00,+15.00,+5.00,-9.00,-3.00,-1.00,-21.00
+19.00,+22.00,+18.00,+7.00,+18.00,-14.00,-5.00,-9.00,+30.00,-25.00,+25.00,+9.00,+22.00,-5.00,+2.00,+27.00
+4.00,+0.00,-3.00,-4.00,-6.00,-43.00,+6.00,+11.00,-55.00,+46.00,+0.00,-2.00,-24.00,-8.00,-26.00,-6.00
-27.00,+3.00,-17.00,+1.00,+5.00,+37.00,-13.00,-13.00,+1.00,+6.00,-10.00,-1.00,+6.00,+20.00,+16.00,-1.00
-27.00,-12.00,-2.00,+1.00,+8.00,-9.00,-5.00,-58.00,+20.00,+18.00,+11.00,-7.00,-35.00,-4.00,-3.00,-10.00
+8.00,+9.00,-3.00,-2.00,-12.00,-2.00,+2.00,+25.00,-63.00,-34.00,-23.00,-1.00,+20.00,-3.00,+0.00,-29.00
+4.00,-46.00,+14.00,-2.00,-10.00,-7.00,-2.00,-1.00,+13.00,-40.00,+2.00,-2.00,-6.00,-4.00,-13.00,+5.00
-6.00,+15.00,-8.00,-3.00,+2.00,-3.00,-1.00,+7.00,+0.00,+8.00,-18.00,-1.00,+6.00,-5.00,+4.00,-8.00
+11.00,-19.00,-17.00,-8.00,-9.00,-10.00,-5.00,+20.00,-2.00,+30.00,+29.00,+14.00,+29.00,+12.00,+1.00,+21.00
-18.00,-50.00,-23.00,-7.00,-13.00,+0.00,+3.00,-17.00,+34.00,-6.00,-4.00,-2.00,-34.00,-3.00,-11.00,-19.00
+21.00,+30.00,+24.00,+10.00,+14.00,+3.00,+1.00,-12.00,+29.00,+5.00,-7.00,-4.00,+17.00,-7.00,+8.00,+10.00
-22.00,-70.00,-1.00,+4.00,-1.00,-11.00,+2.00,+22.00,+1.00,-26.00,+5.00,-3.00,-39.00,-6.00,+3.00,+0.00
-18.00,+47.00,-9.00,-1.00,+1.00,-12.00,-9.00,-16.00,-9.00,-7.00,-31.00,-9.00,-5.00,-2.00,+12.00,+6.00
+68.00,+2.00,+11.00,+1.00,+5.00,+11.00,+7.00,+1.00,+16.00,+29.00,+2.00,-1.00,+3.00,+1.00,+5.00,+42.00
-9.00,+68.00,-1.00,-1.00,-7.00,+2.00,-2.00,+11.00,-7.00,-59.00,+2.00,+5.00,+6.00,+5.00,+3.00,-16.00
+17.00,+28.00,+12.00,-4.00,+0.00,-10.00,+2.00,+5.00,+1.00,-1.00,+13.00,+0.00,+0.00,-10.00,-8.00,-2.00
-37.00,-89.00,-34.00,-10.00,-9.00,-13.00,-10.00,-9.00,+26.00,+63.00,-5.00,+0.00,+5.00,+1.00,-6.00,-8.00
-19.00,+62.00,+12.00,+8.00,+5.00,+27.00,+9.00,-1.00,-32.00,-18.00,-10.00,-3.00,-5.00,-3.00,+3.00,+12.00
+19.00,+29.00,+7.00,+2.00,-4.00,-7.00,+4.00,+4.00,-12.00,+20.00,-8.00,+1.00,+2.00,+3.00,+12.00,-15.00
+3.00,+23.00,+7.00,+6.00,+2.00,-3.00,-4.00,-8.00,+11.00,-45.00,-47.00,-12.00,+0.00,-2.00,-9.00,+4.00
+17.00,-8.00,+9.00,-5.00,-6.00,-4.00,+4.00,-1.00,-52.00,-64.00,+8.00,-4.00,-21.00,-9.00,-13.00,-24.00
-16.00,-10.00,-13.00,-9.00,-9.00,-6.00,-3.00,+6.00,+9.00,+67.00,+29.00,+8.00,+11.00,+3.00,+6.00,-9.00
-15.00,-24.00,-11.00,-2.00,+14.00,+14.00,-5.00,-7.00,+80.00,+29.00,+10.00,-4.00,-13.00,-7.00,+2.00,+32.00
-14.00,+14.00,-3.00,+0.00,-12.00,-11.00,+2.00,+9.00,-30.00,-21.00,+4.00,+6.00,+2.00,+1.00,-3.00,-6.00
-2.00,+38.00,+21.00,+3.00,+5.00,-33.00,-6.00,-13.00,-14.00,+6.00,-12.00,+1.00,+15.00,-1.00,-1.00,-4.00
+22.00,-1.00,-1.00,-1.00,-15.00,-18.00,-5.00,-11.00,+39.00,-15.00,-26.00,-15.00,-18.00,-4.00,+3.00,+1.00
+3.00,+6.00,+9.00,+5.00,+1.00,-6.00,+3.00,+17.00,-37.00,-16.00,+8.00,-2.00,-10.00,-4.00,-8.00,-17.00
-14.00,-19.00,-11.00,-6.00,-1.00,+1.00,-3.00,-6.00,+1.00,+36.00,+15.00,+12.00,+31.00,+3.00,-7.00,+1.00
+7.00,-13.00,-18.00,-5.00,+0.00,+4.00,-2.00,-2.00,+19.00,-26.00,-21.00,-14.00,-50.00,-7.00,+4.00,+21.00
-50.00,-31.00,+18.00,-2.00,-6.00,-1.00,-8.00,-26.00,-29.00,-21.00,+10.00,+12.00,+56.00,+7.00,-8.00,-12.00
+49.00,+41.00,+11.00,+7.00,+6.00,-4.00,+3.00,+20.00,-2.00,-4.00,-11.00,-14.00,-79.00,-6.00,+61.00,-1.00
-22.00,-25.00,-21.00,+0.00,+1.00,-1.00,-1.00,-20.00,+21.00,+32.00,+14.00,+2.00,+4.00,-1.00,-2.00,+3.00
+32.00,-17.00,+4.00,-1.00,-7.00,-2.00,+5.00,+20.00,-8.00,-9.00,-8.00,+3.00,+4.00,+1.00,-3.00,-2.00
-28.00,-4.00,-5.00,-6.00,+1.00,+4.00,+1.00,+17.00,-9.00,-16.00,-3.00,-10.00,-9.00,-3.00,+8.00,+11.00
+11.00,+27.00,-10.00,-9.00,-8.00,-1.00,-2.00,-16.00,+33.00,+64.00,-12.00,+3.00,+40.00,+3.00,-16.00,-3.00
-6.00,-10.00,+5.00,+1.00,-1.00,-5.00,-1.00,+15.00,-47.00,-65.00,+25.00,+5.00,-16.00,-2.00,-4.00,-14.00
-6.00,+28.00,+5.00,+13.00,+9.00,+14.00,+7.00,+6.00,+40.00,-11.00,-1.00,-3.00,+5.00,-1.00,+6.00,+15.00
-16.00,+48.00,+29.00,+6.00,+6.00,-4.00,-11.00,-28.00,-14.00,-28.00,-6.00,-1.00,-13.00,-4.00,-16.00,-21.00
-42.00,-49.00,-16.00,-7.00,-1.00,-8.00,-1.00,-10.00,-11.00,+42.00,-10.00,+0.00,+21.00,+3.00,-6.00,+30.00
+22.00,+47.00,+13.00,-1.00,+5.00,+7.00,+5.00,+12.00,-6.00,+14.00,+16.00,-3.00,-9.00,-2.00,-3.00,-28.00
+6.00,-20.00,-9.00,-4.00,-3.00,+2.00,-3.00,+8.00,+7.00,+101.00,-31.00,-3.00,+6.00,-2.00,-8.00,+19.00
-23.00,-40.00,-15.00,-5.00,+4.00,+43.00,+3.00,-13.00,-7.00,-107.00,+35.00,+9.00,-1.00,+1.00,+6.00,-7.00
+23.00,+48.00,+14.00,+4.00,-12.00,-69.00,-5.00,+9.00,-11.00,+51.00,+21.00,+13.00,+0.00,+0.00,-7.00,-5.00
+20.00,-49.00,-25.00,-8.00,-7.00,-6.00,-4.00,+3.00,+6.00,+37.00,-13.00,-17.00,+2.00,-5.00,-1.00,+7.00
-26.00,+15.00,+4.00,-3.00,+6.00,-9.00,-5.00,-24.00,-5.00,-38.00,-6.00,-2.00,+3.00,+1.00,+3.00,-1.00
+34.00,+6.00,-3.00,-1.00,+0.00,+2.00,+4.00,+23.00,+1.00,-4.00,-33.00,-11.00,+2.00,-3.00,+0.00,-1.00
+7.00,-20.00,+5.00,+2.00,-3.00,+4.00,+4.00,+28.00,-12.00,-34.00,+0.00,+5.00,+27.00,+0.00,-7.00,-15.00
-12.00,-5.00,-15.00,-2.00,-5.00,-8.00,-5.00,-27.00,+15.00,+15.00,+14.00,-4.00,-56.00,-6.00,-7.00,-1.00
-19.00,+4.00,+15.00,-1.00,+4.00,+12.00,-2.00,-5.00,+1.00,-32.00,-13.00,+4.00,+19.00,+4.00,+4.00,-13.00
-11.00,+11.00,+2.00,-4.00,-7.00,-12.00,-8.00,-34.00,+32.00,+46.00,-6.00,+1.00,+10.00,-1.00,+0.00,+2.00
+15.00,-23.00,-22.00,+7.00,+5.00,+19.00,+11.00,+29.00,-39.00,-47.00,+9.00,+2.00,-10.00,+0.00,-16.00,-12.00
+32.00,-29.00,+16.00,+3.00,-2.00,-4.00,-5.00,-2.00,+39.00,+1.00,-30.00,-9.00,+9.00,-5.00,+0.00,+17.00
-49.00,+31.00,+7.00,+3.00,-2.00,+9.00,+2.00,+12.00,-3.00,+8.00,+16.00,+0.00,-14.00,-2.00,-2.00,+2.00
+21.00,-18.00,-16.00,+1.00,+2.00,-10.00,-4.00,-4.00,-19.00,-28.00,+6.00,+1.00,+4.00,-2.00,+0.00,-21.00
-6.00,+82.00,+11.00,-10.00,-6.00,+4.00,-4.00,-15.00,+44.00,+9.00,-24.00,-5.00,+3.00,-1.00,-6.00,+14.00
-31.00,-27.00,-12.00,-2.00,+9.00,+13.00,+5.00,+18.00,-13.00,+24.00,+4.00,+3.00,+9.00,+2.00,+38.00,+6.00
-18.00,-14.00,+3.00,+3.00,+9.00,-5.00,-7.00,-33.00,-32.00,-35.00,+6.00,+0.00,-14.00,-6.00,-7.00,-9.00
+20.00,+26.00,+0.00,+1.00,-17.00,+6.00,+16.00,+27.00,+76.00,+90.00,+10.00,-1.00,-7.00,+2.00,-3.00,+21.00
-6.00,-73.00,-1.00,+4.00,+11.00,+27.00,-2.00,+6.00,-93.00,-23.00,-18.00,-3.00,-1.00,+0.00,+4.00,-7.00
-4.00,+37.00,-8.00,+0.00,-7.00,-2.00,-3.00,-11.00,+10.00,+0.00,-20.00,+2.00,-1.00,+2.00,-11.00,+24.00
+14.00,-12.00,+0.00,-10.00,-14.00,-22.00,-4.00,-18.00,+13.00,+1.00,+4.00,-6.00,+12.00,-1.00,+1.00,+6.00
-12.00,+6.00,-14.00,-4.00,+15.00,+3.00,-1.00,+15.00,-8.00,-51.00,+2.00,+13.00,-5.00,+0.00,+6.00,-7.00
+1.00,+4.00,+14.00,+5.00,-11.00,-21.00,+0.00,-5.00,+9.00,+15.00,+7.00,-8.00,-8.00,-4.00,-15.00,-28.00
-70.00,-22.00,-7.00,-5.00,+2.00,+10.00,-1.00,-7.00,-20.00,-23.00,-14.00,-13.00,+29.00,+2.00,-9.00,-16.00
+61.00,-11.00,-12.00,+1.00,+8.00,+24.00,+1.00,+4.00,-9.00,+46.00,+18.00,-7.00,-76.00,-6.00,+3.00,-15.00
-2.00,-5.00,+5.00,+5.00,+1.00,-53.00,-8.00,-16.00,-13.00,-16.00,-18.00,-3.00,+11.00,-4.00,-6.00,-1.00
+17.00,+16.00,-1.00,-1.00,+7.00,+18.00,+1.00,+18.00,+4.00,-11.00,+5.00,+2.00,-5.00,-3.00,+0.00,+5.00
-26.00,+2.00,+4.00,-4.00,-10.00,-12.00,-5.00,-11.00,+17.00,+2.00,+21.00,+17.00,+6.00,-1.00,-6.00,-7.00
-17.00,-9.00,-20.00,-4.00,+22.00,+15.00,-6.00,-13.00,+21.00,+4.00,-15.00,-11.00,+3.00,-5.00,+2.00,+3.00
+46.00,+35.00,+12.00,+3.00,-28.00,-19.00,+2.00,+6.00,-8.00,+6.00,-7.00,+10.00,+47.00,+11.00,+7.00,-8.00
-62.00,-55.00,-15.00,-9.00,-9.00,-8.00,-12.00,-10.00,-24.00,-43.00,-2.00,-17.00,-53.00,-15.00,-8.00,-16.00
+27.00,+4.00,+15.00,+8.00,+18.00,-7.00,+2.00,-4.00,-24.00,+21.00,-2.00,+4.00,+9.00,+1.00,-5.00,-29.00
+5.00,+12.00,+4.00,+0.00,-10.00,+16.00,+1.00,+23.00,-5.00,-56.00,-34.00,-7.00,+5.00,+1.00,-4.00,+8.00
-39.00,-27.00,-38.00,-14.00,+7.00,+10.00,-3.00,-9.00,+82.00,+80.00,+60.00,+17.00,+30.00,+0.00,+5.00,+0.00
-4.00,+39.00,+64.00,+13.00,-3.00,-11.00,-1.00,-13.00,+37.00,-33.00,+6.00,+1.00,+7.00,+8.00,+4.00,-7.00
-8.00,+1.00,-5.00,+9.00,+12.00,-7.00,-10.00,-5.00,-39.00,-44.00,-14.00,-8.00,-11.00,-4.00,-11.00,-17.00
-23.00,-9.00,-34.00,-15.00,-6.00,+15.00,-4.00,+0.00,+2.00,+58.00,+10.00,+1.00,+8.00,+2.00,+1.00,+11.00
-4.00,+7.00,+27.00,+3.00,+9.00,-23.00,-7.00,-22.00,-62.00,+3.00,-21.00,-7.00,+4.00,+0.00,-1.00,+5.00
+14.00,-54.00,-22.00,-10.00,-14.00,-3.00,-7.00,-19.00,+15.00,-5.00,-25.00,-3.00,+12.00,+2.00,+6.00,-2.00
-32.00,+60.00,+5.00,+0.00,-27.00,-35.00,-7.00,+1.00,+21.00,+5.00,+44.00,+11.00,-8.00,-1.00,+1.00,+13.00
+98.00,-17.00,+3.00,-10.00,-11.00,-15.00,+4.00,+12.00,-5.00,-5.00,-1.00,+19.00,+8.00,+0.00,-6.00,-17.00
-9.00,-20.00,-18.00,-9.00,+22.00,+3.00,-4.00,+26.00,-36.00,-71.00,-39.00,-36.00,-49.00,-18.00,-11.00,-14.00
+15.00,-20.00,-16.00,-5.00,+2.00,-2.00,-11.00,-15.00,+50.00,+52.00,+32.00,-1.00,+16.00,+2.00,+6.00,+28.00
+13.00,-15.00,+6.00,+8.00,+28.00,+39.00,-3.00,+12.00,-21.00,-6.00,-21.00,+7.00,+11.00,+6.00,+3.00,+6.00
-18.00,-29.00,-10.00,+2.00,-45.00,-8.00,+11.00,+6.00,-4.00,+13.00,+5.00,-4.00,+38.00,-7.00,-12.00,-21.00
-7.00,+31.00,+5.00,-1.00,-6.00,+16.00,-1.00,+0.00,-13.00,+18.00,+14.00,-10.00,-98.00,-12.00,-10.00,+1.00
+43.00,+30.00,+14.00,+7.00,+12.00,+7.00,+2.00,-4.00,+2.00,-17.00,-4.00,+1.00,-7.00,-3.00,-2.00,-1.00
-53.00,+8.00,-20.00,-3.00,+14.00,+3.00,-1.00,-7.00,+18.00,-26.00,-15.00,+11.00,+16.00,-1.00,-8.00,+10.00
-104.00,+5.00,-3.00,+2.00,+7.00,-17.00,+1.00,-2.00,+8.00,+29.00,+39.00,+14.00,-26.00,+5.00,+10.00,+7.00
+18.00,-48.00,+0.00,+7.00,-11.00,+18.00,+0.00,+30.00,-33.00,-19.00,-35.00,-15.00,+21.00,+5.00,+1.00,-29.00
-67.00,-83.00,-31.00,-10.00,-14.00,-16.00,-9.00,-11.00,-72.00,-40.00,-14.00,+4.00,+0.00,-3.00,+1.00,-1.00
+3.00,+44.00,+3.00,-8.00,+2.00,-9.00,-7.00,-26.00,+21.00,+29.00,+22.00,-4.00,-22.00,-3.00,+12.00,+23.00
+25.00,+33.00,+17.00,+3.00,-24.00,-29.00,-8.00,+10.00,+78.00,+28.00,+29.00,+4.00,+9.00,+1.00,-5.00,-5.00
+30.00,+22.00,+15.00,-5.00,-32.00,+56.00,+11.00,-1.00,-31.00,-49.00,-11.00,-1.00,+2.00,-4.00,-14.00,-1.00
+26.00,+72.00,-11.00,+4.00,+52.00,-13.00,+8.00,+7.00,+57.00,+72.00,+15.00,+9.00,-19.00,+8.00,+6.00,+4.00
+11.00,-63.00,-2.00,+2.00,-23.00,-15.00,-2.00,-2.00,+0.00,-39.00,-54.00,-15.00,+2.00,+0.00,-2.00,+10.00
+4.00,+55.00,+3.00,-1.00,+16.00,+5.00,+2.00,-4.00,-9.00,+38.00,+66.00,+15.00,+2.00,-2.00,-5.00,-12.00
+0.00,-41.00,+6.00,+9.00,+20.00,+16.00,-6.00,-61.00,-87.00,-62.00,-5.00,+27.00,+50.00,+13.00,+11.00,+21.00
-50.00,-24.00,-11.00,-8.00,-15.00,-11.00,+2.00,-17.00,+98.00,+68.00,+30.00,+13.00,+75.00,+10.00,-4.00,-9.00
+26.00,+53.00,+21.00,+24.00,+67.00,+53.00,-8.00,+12.00,-24.00,+13.00,-18.00,-41.00,-96.00,-28.00,-7.00,-9.00
-29.00,-23.00,+4.00,-10.00,-60.00,-48.00,-4.00,+40.00,+7.00,-17.00,-31.00,+4.00,+25.00,+4.00,+4.00,+12.00
+7.00,-38.00,-24.00,-16.00,+3.00,+28.00,+15.00,+4.00,-31.00,+6.00,-41.00,-23.00,-8.00,-1.00,-2.00,-14.00
-74.00,-20.00,-19.00,-22.00,-40.00,-31.00,-8.00,-24.00,-90.00,-63.00,+27.00,+5.00,+29.00,+0.00,+2.00,+14.00
+52.00,-48.00,+14.00,+16.00,+28.00,+8.00,+3.00,+5.00,-10.00,+11.00,+5.00,+3.00,+68.00,+11.00,+4.00,-6.00
+25.00,+50.00,+17.00,+18.00,+11.00,+13.00,-4.00,-33.00,-3.00,-36.00,+16.00,+22.00,-32.00,-1.00,-2.00,-5.00
+13.00,+17.00,-3.00,+3.00,+39.00,-14.00,-5.00,-19.00,+36.00,+93.00,+35.00,+35.00,+31.00,+7.00,+11.00,+14.00
+17.00,-67.00,-16.00,-5.00,+1.00,+26.00,-11.00,-14.00,+8.00,-11.00,-42.00,-26.00,-21.00,-7.00,-15.00,-24.00
-9.00,-36.00,-5.00,-15.00,-30.00,-10.00,+18.00,+71.00,-20.00,+6.00,+22.00,-7.00,-7.00,-4.00,-14.00,-22.00
+20.00,+35.00,+0.00,+18.00,+26.00,+10.00,+6.00,+8.00,-84.00,-46.00,-12.00,+19.00,+18.00,+9.00,+9.00,+8.00
-24.00,+3.00,+16.00,-2.00,-15.00,+3.00,+5.00,-3.00,+89.00,-3.00,+11.00,+34.00,+13.00,+14.00,+21.00,+41.00
+88.00,+81.00,+53.00,+21.00,+18.00,-6.00,+0.00,+29.00,-53.00,+24.00,-20.00,-52.00,-72.00,-21.00,-13.00,-29.00
+17.00,+19.00,-6.00,-18.00,-17.00,-9.00,-7.00,-21.00,+38.00,+35.00,-11.00,-4.00,+7.00,-3.00,-2.00,-3.00
+6.00,-21.00,-21.00,-24.00,-37.00,-16.00,+8.00,-19.00,-31.00,-7.00,-58.00,-33.00,-2.00,-5.00,-3.00,+3.00
-34.00,-31.00,-12.00,+2.00,+2.00,+8.00,-5.00,-17.00,-58.00,-61.00,-1.00,+10.00,-2.00,+5.00,+9.00,+39.00
+21.00,+4.00,-7.00,+0.00,+1.00,+23.00,+3.00,+16.00,+74.00,+56.00,+70.00,+7.00,-26.00,-6.00,-5.00,+0.00
+40.00,-32.00,-9.00,-9.00,-70.00,-11.00,-3.00,-22.00,-33.00,-103.00,+12.00,+33.00,+35.00,+6.00,+2.00,+5.00
-37.00,+0.00,-8.00,-11.00,+26.00,+23.00,-12.00,-20.00,-7.00,+19.00,+16.00,+60.00,+110.00,+23.00,+11.00,+11.00
-4.00,+0.00,+1.00,+13.00,+94.00,+4.00,+8.00,+1.00,-18.00,-72.00,-68.00,-120.00,-81.00,-39.00,-19.00,-23.00
-13.00,+4.00,-9.00,-23.00,-64.00,-35.00,+5.00,+43.00,-30.00,+58.00,-24.00,-10.00,-42.00,-12.00,-3.00,+5.00
-35.00,-33.00,-6.00,+16.00,+55.00,-6.00,-4.00,+55.00,+8.00,+76.00,+27.00,+9.00,+24.00,+2.00,+0.00,+1.00
+64.00,+8.00,-11.00,-19.00,+30.00,+19.00,+16.00,+51.00,-51.00,-85.00,-8.00,+2.00,+17.00,+9.00,+6.00,+16.00
-34.00,-4.00,+6.00,+6.00,-15.00,+1.00,-13.00,-22.00,+36.00,+60.00,+17.00,+26.00,+72.00,+1.00,-5.00,-5.00
+7.00,+36.00,+4.00,+5.00,+14.00,+13.00,+1.00,+38.00,+28.00,-50.00,-27.00,-21.00,-68.00,-18.00,-3.00,-6.00
-55.00,-12.00,-30.00,-5.00,-28.00,+2.00,+7.00,-30.00,-26.00,-6.00,-23.00,-25.00,-16.00,-11.00,-22.00,-19.00
+5.00,+30.00,+56.00,+14.00,+18.00,+5.00,-9.00,-19.00,+59.00,+33.00,+9.00,+35.00,+36.00,+3.00,-3.00,-13.00
+105.00,-6.00,+2.00,+4.00,-18.00,-22.00,-2.00,+32.00,-43.00,-10.00,-26.00,-69.00,-75.00,-20.00,-12.00,-19.00
-83.00,+4.00,+13.00,+10.00,+26.00,-2.00,+1.00,+23.00,+24.00,-1.00,-1.00,+13.00,+15.00,+8.00,+7.00,+12.00
-8.00,+63.00,-19.00,-29.00,-85.00,-1.00,+13.00,-5.00,+19.00,+7.00,-67.00,+6.00,+17.00,+10.00,+13.00,+14.00
-46.00,-112.00,+0.00,+0.00,-38.00,-39.00,-22.00,-22.00,+19.00,-20.00,+65.00,-29.00,-56.00,-18.00,-12.00,-25.00
+33.00,+127.00,-4.00,+8.00,+27.00,+12.00,+5.00,+0.00,+26.00,+53.00,+53.00,+25.00,+2.00,+9.00,+2.00,+5.00
-17.00,-71.00,+0.00,+10.00,-22.00,+10.00,-10.00,-41.00,+1.00,-7.00,+9.00,+43.00,+27.00,+8.00,+4.00,+11.00
+15.00,-7.00,+7.00,-7.00,+41.00,-27.00,-7.00,-17.00,+12.00,+11.00,-21.00,-11.00,-18.00,-1.00,+3.00,-5.00
-6.00,-5.00,-8.00,+12.00,+16.00,+12.00,+10.00,+39.00,-19.00,-51.00,-75.00,-54.00,-31.00,-4.00,+2.00,+21.00
-57.00,-31.00,+1.00,-7.00,-49.00,-30.00,-11.00,-12.00,+86.00,-43.00,+2.00,+34.00,+9.00,+5.00,+1.00,-3.00
+47.00,+54.00,+9.00,+18.00,+43.00,+103.00,+12.00,-17.00,-40.00,+13.00,+24.00,+14.00,+35.00,+8.00,+2.00,-10.00
-29.00,+8.00,-11.00,-23.00,-50.00,-30.00,+4.00,+11.00,-3.00,+35.00,+31.00,+29.00,-15.00,+0.00,+5.00,-3.00
+56.00,-80.00,-19.00,-6.00,-11.00,-41.00,-10.00,-52.00,+11.00,+37.00,-37.00,-34.00,-9.00,-5.00,+2.00,+21.00
-102.00,+43.00,+23.00,+8.00,-3.00,-12.00,+2.00,+59.00,-18.00,-29.00,-15.00,+4.00,+66.00,+13.00,+3.00,+5.00
+54.00,+15.00,-2.00,-8.00,-72.00,-20.00,+8.00,+34.00,-42.00,-32.00,-27.00,+3.00,+9.00,-1.00,-4.00,-3.00
+2.00,+40.00,+11.00,+7.00,+4.00,+21.00,+7.00,+58.00,+29.00,+32.00,+26.00,-2.00,+48.00,+16.00,+10.00,-14.00
-102.00,-62.00,-16.00,-5.00,+42.00,+24.00,-7.00,-21.00,-2.00,-9.00,-31.00,-43.00,-26.00,-24.00,-17.00,-14.00
+82.00,+65.00,+15.00,-3.00,-11.00,+2.00,+2.00,+60.00,+4.00,+28.00,-15.00,-23.00,-57.00,-18.00,-8.00,+22.00
-35.00,-34.00,-24.00,+4.00,+71.00,+11.00,+5.00,-43.00,+67.00,+50.00,+22.00,+26.00,+50.00,+12.00,-1.00,-32.00
-35.00,-25.00,-2.00,-19.00,-46.00,-52.00,-9.00,+31.00,+17.00,-54.00,+21.00,+22.00,+1.00,-6.00,-15.00,-39.00
+46.00,-1.00,+11.00,+5.00,+15.00,+0.00,-2.00,-4.00,+33.00,-18.00,+5.00,-16.00,-4.00,+5.00,+19.00,+67.00
-50.00,-24.00,-14.00,+3.00,-18.00,-8.00,-15.00,-40.00,-31.00,+6.00,-30.00,+1.00,-1.00,-2.00,-16.00,-22.00
+19.00,+1.00,+26.00,+9.00,+6.00,+11.00,+29.00,+1.00,+55.00,+34.00,-1.00,+10.00,+1.00,+1.00,+16.00,+52.00
+79.00,+10.00,+11.00,+11.00,+55.00,+29.00,+2.00,-31.00,-9.00,+3.00,+11.00,+8.00,-2.00,+5.00,-4.00,-4.00
-15.00,+70.00,-2.00,+5.00,+17.00,+16.00,-2.00,+12.00,+1.00,-2.00,-13.00,-10.00,-14.00,-6.00,-10.00,-33.00
-58.00,-26.00,-22.00,-13.00,-66.00,-50.00,-24.00,+0.00,+4.00,+16.00,-35.00,-10.00,-13.00,+2.00,+5.00,-5.00
-41.00,-40.00,-14.00,-8.00,+78.00,+45.00,+9.00,+5.00,-2.00,-19.00,+7.00,+22.00,-8.00,-1.00,+4.00,+21.00
-103.00,-128.00,-48.00,-46.00,-56.00,+18.00,-11.00,-60.00,-16.00,-27.00,-25.00,-74.00,-18.00,-14.00,-12.00,-8.00
+44.00,+94.00,+13.00,+9.00,-24.00,-53.00,+11.00,+29.00,-13.00,-14.00,+19.00,+15.00,+18.00,+10.00,-1.00,-17.00
+19.00,+48.00,+22.00,+12.00,-2.00,+3.00,-13.00,-31.00,+23.00,+88.00,+26.00,+5.00,-22.00,-3.00,+3.00,-1.00
+4.00,-23.00,+1.00,+23.00,-22.00,-74.00,-28.00,-11.00,-24.00,-66.00,-17.00,+47.00,+36.00,+6.00,-1.00,-21.00
+60.00,+19.00,-8.00,-17.00,+14.00,+64.00,-1.00,-23.00,-14.00,-44.00,-50.00,-50.00,-53.00,-15.00,-2.00,+24.00
-114.00,-71.00,-33.00,-24.00,-26.00,-33.00,-9.00,-33.00,-25.00,+67.00,+62.00,+24.00,+92.00,+16.00,-9.00,-38.00
+36.00,-62.00,-14.00,-12.00,-8.00,-11.00,+7.00,+14.00,-3.00,-12.00,-34.00,-60.00,-84.00,-38.00,-6.00,-4.00
+74.00,+13.00,+15.00,+6.00,-29.00,-20.00,-8.00,-57.00,+32.00,+1.00,+30.00,+17.00,+48.00,+8.00,+8.00,+27.00
+10.00,-32.00,+14.00,+21.00,+49.00,+49.00,+17.00,+64.00,-31.00,-48.00,+45.00,+99.00,+91.00,+34.00,+9.00,-8.00
+91.00,+74.00,+18.00,+12.00,+11.00,-10.00,-24.00,-21.00,+67.00,+48.00,-32.00,-37.00,-77.00,-10.00,+4.00,+19.00
+1.00,-19.00,-24.00,-19.00,-55.00,-13.00,+17.00,+0.00,-17.00,+23.00,+19.00,-5.00,+32.00,+6.00,-8.00,-25.00
-17.00,+34.00,+21.00,-4.00,-21.00,-33.00,-5.00,-3.00,-48.00,-81.00,-18.00,-31.00,-42.00,-10.00,-7.00,-1.00
+13.00,-8.00,-6.00,+6.00,+15.00,-6.00,+4.00,-35.00,-2.00,+39.00,-11.00,-2.00,-29.00,-12.00,-8.00,-3.00
-25.00,-46.00,+16.00,+11.00,+1.00,+85.00,+7.00,+28.00,-48.00,-28.00,-11.00,+0.00,+2.00,+3.00,+2.00,-24.00
-24.00,-3.00,+11.00,+10.00,+51.00,-26.00,+7.00,+34.00,+15.00,+20.00,+34.00,+55.00,+21.00,+18.00,+18.00,+32.00
+42.00,+8.00,-6.00,-11.00,+50.00,-4.00,-15.00,-9.00,-22.00,-42.00,-19.00,-39.00,+10.00,-1.00,-3.00,+17.00
+8.00,-15.00,-37.00,-39.00,-72.00,+20.00,-3.00,-9.00,-38.00,-20.00,+3.00,-6.00,-6.00,+0.00,+0.00,+4.00
-17.00,+29.00,+24.00,+8.00,-20.00,-80.00,+5.00,+12.00,+26.00,-23.00,-50.00,-39.00,-23.00,-14.00,-10.00,-7.00
+54.00,-82.00,-11.00,+10.00,+39.00,+33.00,-13.00,-53.00,+35.00,+3.00,+68.00,+60.00,+37.00,+14.00,+3.00,+3.00
-90.00,+78.00,+5.00,-1.00,-53.00,-25.00,+2.00,+49.00,-34.00,+21.00,-10.00,-17.00,-3.00,-8.00,-8.00,-24.00
+42.00,-37.00,+24.00,+15.00,+14.00,-42.00,-10.00,-5.00,+34.00,+66.00,+44.00,+57.00,-1.00,+5.00,+11.00,+41.00
-46.00,-31.00,-36.00,-38.00,+12.00,+114.00,+11.00,-20.00,-35.00,-64.00,-43.00,-47.00,-44.00,-5.00,-9.00,-2.00
+15.00,+81.00,+16.00,+4.00,-8.00,+0.00,-8.00,-35.00,+19.00,-1.00,+0.00,+4.00,+49.00,+4.00,+3.00,-4.00
-52.00,-80.00,-39.00,-15.00,+26.00,-30.00,-11.00,-19.00,-81.00,+36.00,-15.00,+15.00,+9.00,+4.00,-4.00,-15.00
-10.00,+18.00,+25.00,+32.00,+33.00,-36.00,-3.00,+6.00,+78.00,-36.00,-14.00,-14.00,-13.00,-6.00,-1.00,+13.00
+18.00,-51.00,+21.00,+10.00,-86.00,-22.00,+6.00,+43.00,-23.00,-11.00,+10.00,+36.00,+27.00,+1.00,-8.00,-7.00
+1.00,+9.00,-21.00,-34.00,+33.00,+25.00,+27.00,+34.00,-71.00,-70.00,-17.00,-38.00,+12.00,-4.00,-7.00,-6.00
+79.00,+23.00,+15.00,-3.00,-19.00,+50.00,-4.00,-21.00,+46.00,+38.00,+31.00,+25.00,-79.00,-7.00,+5.00,-1.00
-33.00,+17.00,+3.00,+17.00,+0.00,-32.00,+3.00,-23.00,-22.00,+5.00,-59.00,-60.00,-32.00,-9.00,+3.00,+11.00
-1.00,+4.00,-7.00,+6.00,+31.00,+34.00,-4.00,-17.00,+39.00,+49.00,+61.00,+22.00,+11.00,-5.00,-9.00,-19.00
-26.00,-67.00,-32.00,-30.00,-88.00,-3.00,-10.00,-12.00,-2.00,-35.00,+22.00,+31.00,+11.00,+4.00,-1.00,-10.00
-9.00,+40.00,+22.00,+32.00,-4.00,-19.00,-11.00,-8.00,+22.00,-17.00,-55.00,-97.00,-22.00,-17.00,-11.00,-18.00
+30.00,-27.00,-34.00,-35.00,-10.00,+16.00,+0.00,-18.00,-47.00,+21.00,+8.00,+21.00,+47.00,+11.00,+13.00,+19.00
+1.00,+24.00,+26.00,+20.00,+14.00,-33.00,-4.00,+17.00,+31.00,-15.00,-2.00,+10.00,+3.00,-3.00,+7.00,+30.00
-23.00,+1.00,+17.00,+18.00,+44.00,+22.00,-2.00,-18.00,-10.00,+26.00,-18.00,+9.00,-4.00,+16.00,+2.00,-23.00
+15.00,-6.00,-14.00,-8.00,-48.00,+43.00,+29.00,+50.00,+10.00,-8.00,+13.00,-8.00,-55.00,-22.00,-6.00,+4.00
-48.00,-40.00,+3.00,+5.00,-18.00,-15.00,-16.00,-44.00,+25.00,+12.00,+70.00,+74.00,+26.00,+20.00,+18.00,+8.00
+38.00,+63.00,+5.00,+11.00,+46.00,-14.00,-13.00,+5.00,-77.00,-34.00,-48.00,-79.00,-26.00,-21.00,-5.00,+7.00
-53.00,-53.00,-18.00,-48.00,-39.00,-17.00,+23.00,+33.00,+31.00,+18.00,+26.00,+18.00,-9.00,+6.00,+8.00,+17.00
+57.00,+31.00,+21.00,+10.00,+63.00,-26.00,-6.00,-31.00,+15.00,+37.00,-41.00,+23.00,+51.00,+22.00,+5.00,+1.00
-50.00,-22.00,+2.00,+13.00,+14.00,-4.00,-1.00,+11.00,-42.00,+7.00,+29.00,-43.00,-37.00,-11.00,-7.00,-17.00
+23.00,+67.00,-14.00,-24.00,+8.00,+21.00,+1.00,-30.00,+6.00,-37.00,+21.00,+60.00,+27.00,+4.00,-7.00,-20.00
+16.00,+35.00,+29.00,+46.00,+2.00,-60.00,-16.00,+4.00,+28.00,+84.00,+18.00,+52.00,-2.00,-5.00,-5.00,+6.00
-48.00,-99.00,-36.00,-40.00,+9.00,+95.00,+8.00,-4.00,-22.00,-15.00,-76.00,-118.00,-49.00,-23.00,-16.00,-37.00
+89.00,+45.00,+23.00,+3.00,+6.00,-16.00,+5.00,+31.00,-32.00,-4.00,-26.00,-23.00,-8.00,-8.00,-1.00,+16.00
+18.00,-31.00,-7.00,-13.00,-11.00,+53.00,+13.00,+14.00,+20.00,+21.00,+28.00,+36.00,+41.00,+14.00,+11.00,+3.00
+24.00,+64.00,+14.00,+13.00,+6.00,+6.00,+2.00,+6.00,-45.00,-57.00,-29.00,-58.00,-79.00,-21.00,-15.00,-19.00
-40.00,-21.00,-43.00,-20.00,+29.00,+53.00,+10.00,-7.00,+56.00,+28.00,+35.00,+106.00,+102.00,+29.00,+16.00,+26.00
+4.00,-1.00,+8.00,-11.00,-36.00,-111.00,-9.00,+42.00,-40.00,-27.00,+23.00,-8.00,-55.00,-19.00,-18.00,-15.00
-10.00,-35.00,-5.00,+25.00,-1.00,+9.00,+11.00,-18.00,-35.00,-18.00,-45.00,-19.00,+45.00,-10.00,-13.00,-14.00
+49.00,+56.00,+53.00,-4.00,-61.00,-6.00,+8.00,-19.00,+6.00,-22.00,+41.00,-31.00,-39.00,-12.00,-1.00,+33.00
-58.00,-42.00,-11.00,-7.00,+12.00,-5.00,-1.00,-5.00,-3.00,+14.00,+21.00,-2.00,-79.00,-23.00,-10.00,-30.00
-54.00,+17.00,+2.00,+17.00,+33.00,+27.00,-3.00,-12.00,+44.00,+1.00,-42.00,-17.00,+56.00,+6.00,+0.00,+29.00
-35.00,-18.00,+6.00,+19.00,+43.00,-19.00,+3.00,+38.00,+8.00,+16.00,-5.00,-17.00,-38.00,-7.00,-1.00,-13.00
+8.00,+4.00,-25.00,-24.00,-42.00,-8.00,-4.00,-17.00,+18.00,+11.00,+15.00,+4.00,+3.00,+6.00,+10.00,+15.00
-48.00,+38.00,-2.00,-4.00,-49.00,-15.00,+7.00,-18.00,-6.00,-45.00,-7.00,+5.00,+43.00,+15.00,+6.00,+22.00
+29.00,+100.00,+27.00,+22.00,-11.00,-1.00,-10.00,-39.00,+42.00,+22.00,-6.00,-44.00,-53.00,-10.00,-11.00,-7.00
+46.00,-28.00,-1.00,-28.00,-31.00,-13.00,+2.00,+13.00,-85.00,-6.00,+1.00,+27.00,+5.00,+4.00,-2.00,-43.00
-23.00,-18.00,-33.00,+3.00,+19.00,+15.00,-7.00,+11.00,+67.00,+8.00,-64.00,-30.00,-3.00,-1.00,+4.00,-4.00
-37.00,-32.00,-13.00,-24.00,-57.00,-51.00,-9.00,+9.00,-35.00,+5.00,+63.00,+19.00,+17.00,+5.00,-3.00,-19.00
+2.00,+6.00,-6.00,+9.00,+46.00,+17.00,-2.00,-16.00,+70.00,-19.00,-58.00,-16.00,-21.00,-11.00,-8.00,-22.00
-13.00,+5.00,-3.00,-19.00,-13.00,+0.00,-7.00,-39.00,+18.00,-94.00,-6.00,+39.00,+27.00,+17.00,+7.00,+10.00
+13.00,+54.00,+50.00,+21.00,+11.00,-29.00,+8.00,+16.00,-51.00,+64.00,+33.00,+0.00,-31.00,-10.00,-3.00,-32.00
+32.00,+0.00,-18.00,+3.00,+2.00,-12.00,-28.00,+5.00,-24.00,-32.00,-60.00,-12.00,+17.00,-2.00,-3.00,-4.00
+1.00,-63.00,-48.00,-67.00,-128.00,-24.00,+16.00,-7.00,+7.00,+2.00,+57.00,+7.00,+3.00,-6.00,-4.00,+7.00
-38.00,+55.00,+19.00,+17.00,+33.00,-11.00,-5.00,+28.00,-1.00,+7.00,-6.00,+0.00,-26.00,-4.00,+2.00,+8.00
-27.00,-59.00,-4.00,+14.00,+12.00,+31.00,+7.00,+11.00,+20.00,+29.00,+1.00,+17.00,+107.00,+14.00,-5.00,-8.00
-14.00,+4.00,+13.00,+5.00,-41.00,-79.00,-25.00,-34.00,+10.00,-77.00,+8.00,-25.00,-82.00,-25.00,-11.00,+4.00
-9.00,+10.00,-5.00,+0.00,+35.00,+49.00,+5.00,+24.00,+19.00,+40.00,+19.00,+81.00,+65.00,+22.00,+3.00,-31.00
-70.00,-68.00,-24.00,+6.00,-9.00,-37.00,+1.00,+7.00,-50.00,+44.00,-30.00,-96.00,-19.00,-20.00,-9.00,+22.00
+17.00,-55.00,-35.00,-18.00,+12.00,-49.00,-23.00,-30.00,+6.00,-88.00,-31.00,+4.00,-69.00,-8.00,-4.00,-16.00
+70.00,+38.00,+45.00,+30.00,+69.00,+51.00,+22.00,-10.00,-11.00,+33.00,+67.00,+2.00,+43.00,+14.00,+16.00,+50.00
+26.00,+76.00,-25.00,+4.00,+1.00,+43.00,+23.00,+82.00,-1.00,-30.00,-39.00,+29.00,-21.00,+7.00,+4.00,-7.00
+8.00,-21.00,+47.00,+14.00,+11.00,-56.00,-10.00,-12.00,-21.00,+30.00,+65.00,+31.00,-28.00,+0.00,-5.00,-15.00
-18.00,-3.00,-14.00,+3.00,+12.00,+38.00,+5.00,-6.00,+0.00,-9.00,-32.00,-11.00,+80.00,+3.00,+1.00,+5.00
+24.00,-14.00,+6.00,-3.00,-13.00,-43.00,-21.00,-2.00,-49.00,-22.00,-35.00,-14.00,-6.00,-5.00,-10.00,-22.00
-6.00,-43.00,-12.00,-4.00,+22.00,-15.00,-22.00,-62.00,+52.00,-27.00,-11.00,-29.00,-58.00,-19.00,-4.00,+23.00
-19.00,+110.00,-18.00,-10.00,+63.00,+35.00,+4.00,+0.00,+44.00,+59.00,+18.00,-8.00,+61.00,+14.00,+5.00,-6.00
+17.00,-63.00,-1.00,+3.00,+2.00,+39.00,-3.00,+15.00,-20.00,-74.00,-21.00,+1.00,-23.00,-13.00,-7.00,+2.00
-16.00,-55.00,-25.00,-24.00,-60.00,-31.00,+3.00,+24.00,-2.00,-33.00,-26.00,-1.00,-2.00,-3.00,-3.00,-9.00
+16.00,+47.00,+31.00,+19.00,+65.00,+33.00,+12.00,-4.00,-67.00,-27.00,-14.00,-6.00,+26.00,-5.00,+1.00,+13.00
+81.00,-20.00,-19.00,-8.00,-57.00,-52.00,-5.00,+30.00,+85.00,+66.00,+32.00,+27.00,+36.00,+7.00,-1.00,+9.00
-84.00,-12.00,-2.00,-9.00,-18.00,+14.00,-9.00,-25.00,-68.00,-80.00,-19.00,-21.00,-20.00,+2.00,-2.00,-13.00
-11.00,+38.00,+6.00,+24.00,+37.00,+26.00,+7.00,+0.00,+42.00,+77.00,+25.00,+43.00,+33.00,+4.00,-5.00,-19.00
-8.00,-44.00,-6.00,+6.00,+27.00,+17.00,+7.00,+25.00,-45.00,-36.00,-25.00,-42.00,+36.00,+5.00,+4.00,+9.00
-13.00,-26.00,+5.00,+1.00,+74.00,+71.00,+4.00,-72.00,-12.00,-7.00,-1.00,-31.00,-111.00,-30.00,-4.00,+17.00
-109.00,-11.00,-1.00,+5.00,+0.00,-41.00,+1.00,+10.00,-2.00,+12.00,+23.00,+13.00,+48.00,+7.00,+0.00,-8.00
+46.00,+6.00,+7.00,+3.00,+15.00,+17.00,+1.00,+9.00,-3.00,-22.00,-6.00,+18.00,-1.00,+4.00,+2.00,-2.00
+20.00,-8.00,+6.00,+6.00,-45.00,-19.00,-7.00,-1.00,+6.00,+28.00,+24.00,+13.00,+18.00,+4.00,+1.00,-25.00
-59.00,-13.00,-19.00,-23.00,-63.00,-11.00,-13.00,-15.00,+24.00,-18.00,-30.00,-12.00,-58.00,-5.00,-3.00,+3.00
-53.00,+8.00,+11.00,+12.00,+31.00,-1.00,-3.00,+0.00,-42.00,-9.00,+10.00,-6.00,+21.00,-1.00,+0.00,+4.00
+12.00,+41.00,-6.00,+10.00,-22.00,+14.00,-2.00,+20.00,-1.00,-11.00,-7.00,-25.00,+0.00,+1.00,+1.00,-10.00
+6.00,+30.00,+9.00,-6.00,+3.00,-14.00,-10.00,-27.00,+73.00,+8.00,+14.00,-5.00,-17.00,+2.00,+4.00,+8.00
-57.00,-36.00,-15.00,-13.00,-43.00,+13.00,+2.00,+54.00,-70.00,+10.00,+15.00,+30.00,+12.00,+3.00,+1.00,-9.00
+39.00,-36.00,+5.00,+5.00,+12.00,+17.00,+0.00,-1.00,+33.00,-1.00,-71.00,+8.00,+12.00,+5.00,+1.00,+9.00
-1.00,+35.00,+0.00,-3.00,-14.00,-52.00,-6.00,-10.00,+41.00,+25.00,+105.00,+23.00,+21.00,+20.00,+9.00,+11.00
-10.00,+38.00,+20.00,+23.00,+31.00,+11.00,-3.00,+18.00,-42.00,+31.00,+0.00,-11.00,-29.00,-5.00,+1.00,-11.00
+10.00,-71.00,-28.00,-9.00,-2.00,-23.00,-2.00,-21.00,+42.00,-7.00,-6.00,+18.00,+37.00,+6.00,-8.00,-17.00
+3.00,+26.00,-16.00,-25.00,+34.00,+46.00,-3.00,-20.00,-11.00,-8.00,-6.00,-8.00,-21.00,-8.00,+2.00,+24.00
+12.00,-25.00,-6.00,-3.00,-53.00,-31.00,-1.00,-20.00,-18.00,-24.00,-12.00,+4.00,+17.00,+1.00,+0.00,-9.00
+21.00,+38.00,+24.00,+18.00,-21.00,-62.00,-21.00,-16.00,+0.00,+62.00,+20.00,+20.00,+53.00,+12.00,+2.00,+11.00
-83.00,-8.00,-11.00,-13.00,-33.00,+7.00,-5.00,-25.00,-1.00,+20.00,+10.00,+11.00,+14.00,+4.00,+4.00,+18.00
-14.00,-74.00,-20.00,-15.00,-38.00,+6.00,+13.00,+11.00,+41.00,-26.00,-23.00,-7.00,-5.00,-4.00,-4.00,+20.00
+26.00,+64.00,+9.00,-12.00,+25.00,+34.00,+15.00,+42.00,+16.00,+24.00,-5.00,-23.00,-48.00,-5.00,-7.00,-21.00
-47.00,-63.00,+5.00,+11.00,+27.00,-4.00,-9.00,-6.00,-55.00,-39.00,+11.00,-1.00,+24.00,+6.00,+8.00,-21.00
+4.00,+9.00,+6.00,+4.00,-60.00,+3.00,-7.00,-40.00,-7.00,-37.00,+0.00,+43.00,+82.00,+22.00,+22.00,+56.00
+37.00,+32.00,-6.00,-10.00,-16.00,-66.00,-11.00,+1.00,+10.00,+29.00,+26.00,+4.00,-10.00,+3.00,+6.00,+13.00
-36.00,-17.00,-10.00,-4.00,+0.00,+17.00,+3.00,+10.00,+3.00,-13.00,-57.00,-40.00,-2.00,-8.00,-9.00,-10.00
-18.00,-74.00,-2.00,+6.00,+10.00,-6.00,-3.00,-43.00,-32.00,+17.00,+3.00,-12.00,-47.00,-8.00,-9.00,-36.00
+58.00,+48.00,+36.00,+24.00,+1.00,+31.00,-1.00,-29.00,+52.00,+15.00,+10.00,+11.00,+0.00,+5.00,+7.00,+5.00
+2.00,-15.00,-37.00,-29.00,-12.00,-12.00,+3.00,+25.00,-17.00,+5.00,-22.00,-1.00,-21.00,+13.00,+14.00,-15.00
+17.00,+20.00,+7.00,+17.00,+77.00,+21.00,-6.00,+3.00,-27.00,-1.00,-2.00,+13.00,+50.00,-1.00,-16.00,-25.00
+16.00,-9.00,-27.00,-26.00,-34.00,-11.00,+13.00,+15.00,-2.00,+16.00,-12.00,+10.00,-20.00,-6.00,-13.00,-4.00
+7.00,-15.00,-20.00,+11.00,+12.00,+24.00,+1.00,+15.00,-6.00,-106.00,+20.00,+10.00,-15.00,-6.00,+3.00,+8.00
+35.00,+49.00,+54.00,+9.00,+11.00,-19.00,-5.00,+5.00,-9.00,+7.00,+4.00,+29.00,+16.00,+18.00,+15.00,+13.00
-15.00,-46.00,-17.00,-29.00,-70.00,+10.00,+8.00,-2.00,+23.00,+70.00,+61.00,-20.00,+6.00,-6.00,+1.00,+20.00
-13.00,+16.00,-6.00,+2.00,+66.00,+50.00,+11.00,-10.00,-19.00,-79.00,+0.00,+10.00,-3.00,-5.00,-6.00,+1.00
+11.00,-11.00,-3.00,+0.00,+8.00,-54.00,+2.00,+19.00,+16.00,+83.00,-38.00,-40.00,-43.00,-10.00,-6.00,-12.00
+13.00,+56.00,+4.00,+9.00,+4.00,+35.00,+11.00,+16.00,-8.00,+30.00,+18.00,+2.00,-5.00,+0.00,-8.00,-12.00
-48.00,-31.00,+9.00,+18.00,+4.00,-15.00,-17.00,-35.00,-19.00,-21.00,-10.00,+20.00,-10.00,-9.00,+1.00,+12.00
-3.00,+4.00,-1.00,-12.00,-1.00,+23.00,-6.00,-27.00,+8.00,-26.00,-81.00,-27.00,-4.00,-9.00,-9.00,-7.00
-8.00,-34.00,-22.00,-27.00,-75.00,-45.00,+8.00,+59.00,-17.00,-4.00,+53.00,-32.00,+69.00,-1.00,-5.00,-12.00
+85.00,+45.00,+25.00,+24.00,-6.00,+19.00,+17.00,+69.00,-24.00,-39.00,-18.00,-30.00,-52.00,-18.00,-17.00,-20.00
+83.00,+90.00,+6.00,-6.00,-6.00,+5.00,+6.00,+30.00,-19.00,+35.00,-19.00,-15.00,+9.00,-4.00,+6.00,+9.00
-57.00,+1.00,+17.00,+2.00,-12.00,+5.00,-2.00,-22.00,+29.00,+57.00,+51.00,+43.00,+60.00,+11.00,+11.00,+43.00
+19.00,+0.00,+12.00,+18.00,+53.00,+41.00,-2.00,-28.00,-38.00,+2.00,-55.00,+3.00,-25.00,-2.00,-8.00,-43.00
+8.00,-50.00,-21.00,-21.00,-53.00,-42.00,+2.00,-26.00,-2.00,-16.00,-13.00,-13.00,+31.00,-12.00,-15.00,+3.00
-18.00,-27.00,+26.00,+12.00,+25.00,+64.00,+1.00,+15.00,-27.00,-58.00,+33.00,-19.00,-28.00,+3.00,-8.00,-31.00
+15.00,+17.00,-10.00,-26.00,-114.00,-105.00,-10.00,+28.00,+21.00,-15.00,-12.00,-10.00,+3.00,-5.00,+2.00,+18.00
+13.00,+22.00,+0.00,+8.00,+49.00,-56.00,-3.00,+21.00,+5.00,+10.00,-18.00,+8.00,+0.00,-1.00,+1.00,+8.00
-35.00,-29.00,+10.00,+15.00,+80.00,+25.00,-12.00,-7.00,+32.00,+17.00,+30.00,-17.00,-42.00,-17.00,-19.00,-58.00
-58.00,+12.00,-17.00,-18.00,-45.00,-40.00,+7.00,+29.00,-36.00,-62.00,-62.00,+12.00,+2.00,-2.00,+4.00,+22.00
-27.00,-14.00,+5.00,+6.00,-19.00,+3.00,-8.00,-15.00,+5.00,+28.00,+56.00,+57.00,+106.00,+18.00,+13.00,+6.00
+30.00,+4.00,-12.00,-2.00,-6.00,+7.00,+6.00,+17.00,-51.00,-21.00,-25.00,-34.00,+43.00,-6.00,+1.00,+22.00
+23.00,+5.00,+13.00,+15.00,+35.00,+8.00,-8.00,-15.00,+58.00,+74.00,+20.00,-15.00,-16.00,-8.00,+1.00,+16.00
-21.00,-24.00,-9.00,-14.00,-33.00,-43.00,-9.00,-32.00,-9.00,-42.00,-24.00,+24.00,+23.00,+1.00,-8.00,-30.00
+42.00,+11.00,+4.00,+3.00,+14.00,+21.00,+3.00,+4.00,-13.00,-3.00,-60.00,-35.00,-25.00,-4.00,+0.00,+11.00
-6.00,-7.00,-5.00,+2.00,+30.00,+12.00,+0.00,-9.00,+24.00,-61.00,+19.00,+34.00,-31.00,+3.00,-3.00,-3.00
-109.00,-72.00,+16.00,+2.00,+39.00,-2.00,-4.00,-8.00,-11.00,+78.00,+25.00,-13.00,+6.00,+1.00,+0.00,+6.00
+31.00,+65.00,-7.00,+11.00,+20.00,+21.00,+2.00,+8.00,-4.00,-22.00,-1.00,+13.00,+13.00,+6.00,+9.00,+5.00
+22.00,-21.00,-25.00,-1.00,-28.00,-5.00,+2.00,+14.00,-13.00,-31.00,-29.00,-19.00,-57.00,-12.00,-6.00,-10.00
+61.00,+46.00,+60.00,+1.00,+14.00,+20.00,+7.00,+2.00,+18.00,+11.00,+24.00,+15.00,-20.00,+6.00,+6.00,+10.00
-65.00,-29.00,-32.00,+13.00,+43.00,+9.00,-11.00,-24.00,+38.00,+3.00,-12.00,+3.00,+5.00,+2.00,+2.00,+3.00
+2.00,-16.00,-9.00,-19.00,-52.00,-31.00,-4.00,-18.00,+69.00,+7.00,-3.00,+7.00,+0.00,+0.00,-4.00,+20.00
-4.00,-35.00,+6.00,+5.00,+10.00,+22.00,+6.00,+20.00,-29.00,+36.00,+72.00,+6.00,+2.00,+3.00,-4.00,-10.00
+10.00,+13.00,-14.00,-1.00,-6.00,+4.00,+4.00,-7.00,-8.00,-50.00,-51.00,-15.00,-18.00,-3.00,+0.00,-26.00
+31.00,+33.00,-18.00,-9.00,-1.00,+25.00,-6.00,-22.00,-18.00,-24.00,+20.00,+18.00,+27.00,+7.00,+4.00,+3.00
-19.00,-32.00,-4.00,+0.00,+29.00,-40.00,+0.00,+4.00,+32.00,-13.00,-45.00,+9.00,+13.00,+6.00,+10.00,+35.00
-13.00,-4.00,+21.00,+12.00,+10.00,+24.00,-1.00,-20.00,-45.00,-5.00,+31.00,-29.00,-27.00,-18.00,-19.00,-26.00
-20.00,+7.00,-7.00,-12.00,-45.00,+37.00,+2.00,+46.00,-5.00,+7.00,+16.00,+3.00,+5.00,+3.00,+1.00,-1.00
+46.00,+28.00,+2.00,-4.00,-29.00,-54.00,+8.00,+18.00,+20.00,+37.00,-11.00,-16.00,-19.00,-5.00,-2.00,+0.00
-41.00,-56.00,-26.00,+0.00,+29.00,-4.00,+1.00,-14.00,-22.00,+21.00,-28.00,-3.00,+32.00,+4.00,+1.00,-8.00
-11.00,+28.00,+35.00,+13.00,+15.00,+1.00,+1.00,-2.00,+3.00,-12.00,-16.00,-18.00,-48.00,-13.00,-2.00,+3.00
-17.00,-24.00,+33.00,+6.00,+0.00,-10.00,-5.00,-18.00,+11.00,-15.00,+12.00,+0.00,-36.00,-1.00,-1.00,+0.00
+12.00,+26.00,+2.00,+8.00,-10.00,+17.00,-2.00,-3.00,+14.00,+40.00,-12.00,+12.00,+84.00,+7.00,-9.00,-10.00
-26.00,-46.00,-17.00,+6.00,+34.00,+12.00,-13.00,-13.00,-55.00,-47.00,+7.00,-31.00,-44.00,-18.00,-11.00,-22.00
+8.00,-5.00,-22.00,-15.00,-5.00,+9.00,+5.00,-9.00,+21.00,+11.00,-15.00,-15.00,-24.00,-6.00,-3.00,-14.00
+78.00,+88.00,+25.00,+3.00,-13.00,-17.00,+6.00,+13.00,+25.00,+6.00,-41.00,+10.00,-12.00,+3.00,+11.00,+34.00
+4.00,-41.00,-7.00,-6.00,-25.00,-13.00,+7.00,+14.00,-27.00,+1.00,+87.00,+30.00,-8.00,+1.00,+6.00,+18.00
-8.00,-43.00,+18.00,+4.00,+7.00,+17.00,+3.00,-8.00,+3.00,+13.00,-25.00,-17.00,+15.00,+3.00,-3.00,-7.00
-47.00,-4.00,-5.00,+0.00,+16.00,+12.00,-2.00,-7.00,+7.00,+15.00,+4.00,+14.00,+17.00,+6.00,+0.00,-2.00
-20.00,-22.00,-28.00,-3.00,-1.00,+11.00,+1.00,-2.00,-3.00,+12.00,-20.00,-12.00,-4.00,-3.00,-5.00,-12.00
+21.00,+18.00,-8.00,-1.00,-3.00,+0.00,-5.00,-18.00,+23.00,+40.00,-2.00,+7.00,-3.00,+2.00,+2.00,-18.00
+29.00,-4.00,-42.00,-17.00,-4.00,+5.00,+0.00,-11.00,+0.00,-10.00,+3.00,-2.00,+15.00,+0.00,-8.00,+4.00
+11.00,+27.00,+30.00,+5.00,-5.00,-6.00,+5.00,+38.00,+19.00,-22.00,-18.00,-3.00,-3.00,-3.00,+5.00,+13.00
-26.00,-11.00,-9.00,-9.00,+0.00,-2.00,-4.00,-22.00,+17.00,+52.00,+37.00,+9.00,-18.00,-6.00,+0.00,+10.00
-32.00,-40.00,-30.00,+2.00,+9.00,+12.00,-7.00,-29.00,-68.00,-24.00,-26.00,-14.00,-4.00,-2.00,+0.00,+5.00
-49.00,-44.00,+2.00,-9.00,+4.00,+37.00,+2.00,-17.00,+30.00,-17.00,+16.00,-9.00,-19.00,-4.00,+3.00,+0.00
+43.00,+1.00,+7.00,-1.00,-3.00,-10.00,+15.00,+21.00,+4.00,+11.00,-29.00,-11.00,+1.00,-1.00,-9.00,-24.00
+6.00,-72.00,-15.00,-1.00,+20.00,+20.00,-3.00,-16.00,-8.00,-16.00,+8.00,+8.00,+15.00,+2.00,+3.00,+5.00
-23.00,+2.00,+0.00,-3.00,-7.00,+41.00,-1.00,+9.00,-1.00,-13.00,-13.00,-10.00,+0.00,-6.00,-2.00,+22.00
+7.00,+4.00,+7.00,+2.00,+0.00,-78.00,-2.00,+10.00,-12.00,+9.00,-11.00,+11.00,-34.00,-2.00,+5.00,+0.00
-51.00,-49.00,-21.00,-4.00,-7.00,+4.00,-8.00,-8.00,+17.00,-19.00,+17.00,+2.00,+6.00,-8.00,-12.00,-13.00
-10.00,+89.00,+12.00,-1.00,+1.00,+15.00,+2.00,+21.00,+40.00,+17.00,+0.00,-31.00,-53.00,-16.00,-8.00,-40.00
+30.00,-58.00,-35.00,-13.00,-1.00,-27.00,-2.00,-9.00,-5.00,-43.00,-2.00,+1.00,-20.00,+2.00,+2.00,-20.00
+36.00,+67.00,+48.00,+15.00,+5.00,+26.00,+2.00,-22.00,+6.00,+19.00,+3.00,+2.00,-16.00,-1.00,+0.00,+9.00
+23.00,+6.00,-2.00,+1.00,+3.00,-5.00,+0.00,+78.00,+6.00,+1.00,-23.00,-8.00,+19.00,-5.00,-1.00,-1.00
-32.00,-42.00,-5.00,+0.00,-2.00,-20.00,+1.00,-26.00,-56.00,-55.00,-5.00,-1.00,-2.00,-1.00,-8.00,+7.00
-54.00,+14.00,+12.00,+3.00,-7.00,-8.00,+5.00,+28.00,+21.00,+66.00,+1.00,+12.00,-5.00,+0.00,-2.00,+8.00
+21.00,+4.00,-26.00,-5.00,-5.00,+12.00,+1.00,+10.00,+4.00,-4.00,+15.00,-4.00,+20.00,-2.00,-6.00,-12.00
+24.00,+15.00,+19.00,+2.00,+34.00,+33.00,+7.00,-27.00,-17.00,-35.00,+5.00,+7.00,+5.00,+9.00,+6.00,-2.00
-14.00,-23.00,-18.00,-9.00,-51.00,-64.00,-4.00,-22.00,+4.00,+11.00,+28.00,+3.00,+17.00,+2.00,+3.00,-1.00
+1.00,+14.00,+10.00,-1.00,+14.00,+13.00,+4.00,+40.00,-30.00,-63.00,-50.00,+8.00,-4.00,+4.00,+8.00,+24.00
-12.00,-20.00,-2.00,+2.00,+8.00,+11.00,+4.00,+14.00,+27.00,+16.00,-33.00,-39.00,-20.00,-7.00,-5.00,+23.00
-9.00,+15.00,-2.00,+3.00,+1.00,+18.00,-12.00,-8.00,-11.00,+24.00,+33.00,+3.00,+11.00,+2.00,-1.00,-6.00
-7.00,-54.00,-25.00,-15.00,-20.00,+2.00,-4.00,-3.00,+30.00,+26.00,+31.00,+16.00,-7.00,+0.00,+2.00,-1.00
-36.00,+13.00,+17.00,+0.00,+6.00,-31.00,-5.00,-36.00,+3.00,-12.00,+1.00,-5.00,-41.00,-4.00,-3.00,-19.00
-5.00,+14.00,+8.00,+4.00,+2.00,+0.00,-3.00,-6.00,-1.00,+18.00,+15.00,+9.00,-11.00,+1.00,+3.00,-2.00
+16.00,-1.00,-19.00,-5.00,+0.00,+10.00,+0.00,+0.00,-21.00,-20.00,-44.00,-18.00,-77.00,-10.00,-8.00,-16.00
+18.00,+5.00,+25.00,+13.00,+10.00,+6.00,+1.00,+59.00,-5.00,+32.00,+8.00,+16.00,+38.00,+6.00,-6.00,+1.00
-15.00,+12.00,+8.00,+1.00,-15.00,-1.00,-6.00,-16.00,-7.00,-39.00,-9.00,-11.00,-1.00,-1.00,-1.00,-2.00
+36.00,-16.00,-25.00,-5.00,+15.00,+31.00,+5.00,+8.00,-9.00,+45.00,+20.00,+0.00,+0.00,+0.00,+4.00,+16.00
-16.00,-17.00,-21.00,-2.00,-11.00,-28.00,-4.00,-21.00,-7.00,-16.00,-6.00,+3.00,+24.00,+3.00,+2.00,-3.00
-11.00,-24.00,+19.00,+5.00,+12.00,+1.00,-5.00,-32.00,+0.00,-1.00,+8.00,+13.00,+38.00,+10.00,+1.00,-1.00
+15.00,-2.00,-1.00,-4.00,-2.00,-4.00,+1.00,+8.00,+37.00,-17.00,+13.00,+1.00,-24.00,-3.00,+5.00,+31.00
-40.00,+39.00,+12.00,-4.00,-9.00,-9.00,-1.00,+3.00,-51.00,-23.00,-26.00,+0.00,+2.00,+0.00,-4.00,-37.00
+7.00,+40.00,-13.00,+5.00,+5.00,-3.00,+3.00,-10.00,+5.00,+6.00,+31.00,+4.00,+18.00,+3.00,+1.00,+5.00
+52.00,-2.00,+13.00,+7.00,+7.00,+5.00,+3.00,-18.00,-19.00,+1.00,-26.00,-13.00,-13.00,-5.00,-9.00,-22.00
-9.00,-6.00,+12.00,-1.00,+4.00,+54.00,-1.00,+0.00,-28.00,-37.00,-2.00,-3.00,+18.00,-1.00,-4.00,-8.00
+3.00,-28.00,-7.00,+4.00,-5.00,-26.00,+1.00,-2.00,+12.00,+24.00,+21.00,-4.00,-12.00,-2.00,+4.00,+17.00
-16.00,-3.00,+2.00,-6.00,+8.00,-19.00,-4.00,-6.00,+12.00,+23.00,-16.00,+6.00,-4.00,-1.00,+0.00,+15.00
-23.00,+5.00,-12.00,+3.00,+6.00,-7.00,-6.00,-21.00,+0.00,-28.00,-5.00,-10.00,-10.00,-4.00,+1.00,-11.00
-1.00,+6.00,-7.00,-6.00,-11.00,+3.00,+13.00,-8.00,-45.00,+12.00,+16.00,+3.00,+3.00,+0.00,-8.00,-12.00
+27.00,-12.00,+6.00,-3.00,-2.00,+8.00,-5.00,+0.00,-24.00,-19.00,+3.00,+20.00,+28.00,+8.00,-3.00,-4.00
-32.00,-53.00,-25.00,-9.00,-3.00,-3.00,-6.00,-9.00,+20.00,-13.00,-25.00,-6.00,+26.00,-7.00,-2.00,+13.00
-1.00,+55.00,+34.00,-3.00,-9.00,-19.00,-1.00,+3.00,-13.00,+18.00,+22.00,-3.00,+42.00,+4.00,+2.00,+12.00
+47.00,-49.00,+0.00,+1.00,+0.00,-18.00,+11.00,+13.00,-17.00,+19.00,-3.00,-8.00,-43.00,-10.00,-6.00,-28.00
+46.00,+9.00,+2.00,+14.00,+17.00,+8.00,+2.00,+21.00,-1.00,-32.00,+8.00,+10.00,+16.00,+1.00,+0.00,+0.00
-29.00,-5.00,+28.00,-2.00,-15.00,+7.00,-4.00,-20.00,-19.00,+1.00,+14.00,+2.00,-6.00,+5.00,+2.00,-6.00
-31.00,-18.00,-17.00,-3.00,+3.00,+11.00,-5.00,-6.00,+12.00,-114.00,-110.00,-17.00,-15.00,+0.00,+7.00,+21.00
-6.00,+29.00,-3.00,+2.00,-6.00,-23.00,-7.00,-19.00,+0.00,+82.00,+63.00,-1.00,+35.00,+1.00,+0.00,-10.00
-28.00,-51.00,-6.00,-8.00,+0.00,+30.00,+3.00,+15.00,-35.00,+15.00,+40.00,+7.00,-9.00,-7.00,-7.00,-26.00
+9.00,+34.00,-1.00,-1.00,-8.00,+13.00,+2.00,+16.00,+23.00,-15.00,-17.00,-1.00,-4.00,+3.00,+4.00,+12.00
+19.00,+12.00,-15.00,+12.00,+2.00,-32.00,-3.00,-5.00,-10.00,+27.00,+24.00,-3.00,-39.00,-9.00,+2.00,+0.00
-14.00,+2.00,+0.00,-6.00,+0.00,+1.00,-6.00,-6.00,+18.00,-25.00,-17.00,+6.00,+36.00,+6.00,-2.00,+4.00
-2.00,-3.00,+5.00,-2.00,-2.00,-4.00,+0.00,-13.00,+4.00,-10.00,-26.00,-21.00,-40.00,-11.00,-9.00,-10.00
-38.00,-18.00,+1.00,-1.00,-3.00,+0.00,-1.00,-19.00,-8.00,+2.00,-9.00,+8.00,+35.00,+6.00,-4.00,-43.00
+35.00,+8.00,-12.00,-5.00,+12.00,+16.00,+5.00,+15.00,+4.00,+9.00,+22.00,-3.00,-64.00,-9.00,-3.00,-64.00
+21.00,+21.00,-5.00,+2.00,-4.00,-9.00,-4.00,+2.00,+26.00,-29.00,-15.00,-5.00,+2.00,-1.00,+3.00,-75.00
-30.00,-23.00,+8.00,-1.00,-6.00,-2.00,-7.00,-29.00,+21.00,+33.00,+21.00,+5.00,+3.00,+2.00,+3.00,-13.00
-3.00,+9.00,-21.00,+2.00,+3.00,-3.00,+6.00,+39.00,+7.00,+2.00,+4.00,+1.00,+35.00,+2.00,-4.00,+15.00
+2.00,-23.00,+18.00,+1.00,+1.00,+8.00,+1.00,-6.00,+2.00,+5.00,-32.00,-8.00,-14.00,-1.00,+4.00,+38.00
+3.00,+14.00,-15.00,-2.00,-1.00,+5.00,-5.00,-3.00,+3.00,+18.00,+23.00,+5.00,+15.00,+1.00,-7.00,+23.00
+3.00,+11.00,+27.00,-1.00,-7.00,+2.00,-1.00,-12.00,+0.00,-41.00,-13.00,-5.00,-6.00,-1.00,+12.00,+35.00
-8.00,-17.00,+3.00,+0.00,-1.00,-14.00,-6.00,-23.00,-18.00,+28.00,-9.00,-2.00,-38.00,-5.00,-4.00,+2.00
-40.00,-53.00,-50.00,-8.00,+6.00,+20.00,+0.00,+1.00,+18.00,+37.00,+18.00,+4.00,+16.00,-4.00,-18.00,+31.00
+26.00,+80.00,+18.00,-12.00,-22.00,+10.00,+2.00,+8.00,+15.00,+3.00,-18.00,-10.00,-8.00,-1.00,+5.00,+43.00
-5.00,-31.00,-3.00,+4.00,+9.00,-4.00,-2.00,-2.00,-5.00,-25.00,+12.00,+11.00,+12.00,+4.00,-3.00,+13.00
+9.00,+12.00,+7.00,+5.00,+9.00,-28.00,-4.00,-3.00,+20.00,-6.00,-25.00,-20.00,-20.00,-5.00,+0.00,+22.00
-21.00,-22.00,+1.00,-1.00,-6.00,+9.00,-3.00,+10.00,-33.00,-20.00,-14.00,-3.00,+17.00,+2.00,+0.00,+1.00
-13.00,-25.00,-8.00,-1.00,+2.00,-1.00,-9.00,-10.00,-52.00,-7.00,+10.00,+5.00,-14.00,-4.00,-1.00,+6.00
+1.00,+39.00,+32.00,+2.00,-4.00,+10.00,+17.00,+9.00,-7.00,+27.00,+4.00,-2.00,-53.00,-4.00,-1.00,+11.00
+41.00,+28.00,-3.00,+7.00,+1.00,-3.00,-5.00,+15.00,-5.00,+48.00,+31.00,+17.00,+51.00,+3.00,-1.00,-6.00
-21.00,-10.00,-15.00,-5.00,+11.00,+10.00,-16.00,-25.00,+20.00,+29.00,-18.00,-29.00,-35.00,-16.00,-1.00,+21.00
+31.00,+5.00,+18.00,+2.00,-2.00,-3.00,-4.00,-6.00,-12.00,-42.00,-19.00,-3.00,+7.00,+3.00,+8.00,+2.00
-15.00,+26.00,-11.00,-5.00,-14.00,-13.00,+2.00,+55.00,+87.00,+15.00,-22.00,-5.00,+13.00,+9.00,+2.00,+3.00
+10.00,-3.00,+10.00,-4.00,-7.00,+0.00,-2.00,-35.00,-28.00,-102.00,-7.00,-2.00,-20.00,-5.00,-16.00,-24.00
+6.00,+8.00,+5.00,-5.00,-5.00,-5.00,+6.00,+50.00,-62.00,+7.00,+30.00,+12.00,+27.00,+4.00,+46.00,+6.00
-15.00,-6.00,-4.00,+4.00,+9.00,+4.00,+5.00,-20.00,+29.00,+4.00,-4.00,+12.00,+17.00,+6.00,-18.00,+11.00
-11.00,-51.00,-15.00,+0.00,-3.00,+6.00,-10.00,-12.00,-24.00,-19.00,-13.00,-18.00,-1.00,-1.00,+4.00,+17.00
+33.00,+23.00,+4.00,-7.00,-5.00,+6.00,+8.00,+10.00,+30.00,+5.00,-28.00,-7.00,+15.00,-1.00,+3.00,-3.00
-17.00,+5.00,-9.00,-1.00,+8.00,+35.00,-1.00,-23.00,-16.00,-42.00,+3.00,+2.00,-10.00,+1.00,-18.00,-10.00
-6.00,-4.00,+11.00,-2.00,-26.00,-72.00,+1.00,+17.00,+50.00,+3.00,-11.00,-9.00,-18.00,-4.00,-3.00,+2.00
-20.00,-8.00,-10.00,-2.00,+16.00,+9.00,-8.00,-10.00,-16.00,-57.00,-2.00,+10.00,+48.00,+5.00,+2.00,-6.00
-12.00,-18.00,-21.00,-6.00,-5.00,-4.00,-2.00,+12.00,+22.00,+97.00,+35.00,+1.00,-86.00,-9.00,-13.00,+4.00
-1.00,-40.00,+21.00,+1.00,+2.00,+35.00,-14.00,-31.00,-3.00,+11.00,+11.00,-1.00,-5.00,+6.00,-10.00,-35.00
+13.00,+46.00,-14.00,+4.00,+6.00,-3.00,+20.00,+51.00,+9.00,+4.00,-4.00,-2.00,-20.00,-4.00,+13.00,+2.00
+0.00,-2.00,-4.00,+0.00,-1.00,-11.00,-5.00,-14.00,-3.00,+1.00,-8.00,+6.00,+13.00,-1.00,-8.00,+22.00
+9.00,+10.00,-3.00,-8.00,-9.00,-6.00,+6.00,+16.00,-10.00,-27.00,-4.00,-8.00,+1.00,-2.00,+4.00,+3.00
-12.00,-44.00,-25.00,-5.00,-5.00,-15.00,-2.00,-9.00,-30.00,-25.00,-1.00,+3.00,+18.00,-3.00,-11.00,-11.00
-18.00,+27.00,+42.00,+5.00,+5.00,+12.00,-9.00,+8.00,+2.00,-4.00,-18.00,-3.00,-19.00,-29.00,-16.00,-24.00
+19.00,+17.00,-16.00,-5.00,-5.00,-8.00,+0.00,-1.00,-2.00,+28.00,+22.00,+9.00,+17.00,+8.00,+2.00,-33.00
+2.00,+14.00,+3.00,-3.00,-1.00,+2.00,-1.00,-8.00,+1.00,-10.00,+7.00,+1.00,-7.00,+5.00,+24.00,+44.00
-14.00,-4.00,-3.00,-3.00,-3.00,-8.00,+7.00,+19.00,+7.00,+17.00,+3.00,+3.00,+0.00,+4.00,+2.00,+13.00
-16.00,-10.00,-21.00,-6.00,-2.00,+2.00,-13.00,-26.00,-39.00,-19.00,-20.00,-3.00,+22.00,-1.00,-14.00,-6.00
+2.00,+25.00,+19.00,+5.00,-3.00,-6.00,+3.00,-2.00,+37.00,-41.00,-2.00,-3.00,-10.00,-8.00,-3.00,-11.00
+39.00,-13.00,+5.00,+0.00,+1.00,+5.00,-1.00,+6.00,-39.00,-63.00,-11.00,-4.00,+3.00,-2.00,-2.00,-23.00
+27.00,+3.00,+20.00,+16.00,+3.00,-4.00,+3.00,-5.00,-3.00,+62.00,+20.00,+5.00,+29.00,+3.00,-5.00,+1.00
-5.00,-25.00,-1.00,+1.00,-1.00,+30.00,+3.00,+2.00,+35.00,+11.00,-13.00,-10.00,-22.00,+2.00,+7.00,+6.00
-12.00,-9.00,-3.00,-5.00,-6.00,-65.00,-10.00,-1.00,+12.00,+6.00,+15.00,+3.00,-6.00,-11.00,-7.00,+4.00
-33.00,+0.00,-6.00,-5.00,-3.00,+0.00,-8.00,-14.00,-24.00,-67.00,-31.00,-8.00,-5.00,+1.00,+6.00,-4.00
-4.00,+14.00,-23.00,-4.00,+13.00,-11.00,+3.00,-24.00,+29.00,+66.00,+31.00,+16.00,+24.00,+3.00,-6.00,-12.00
-13.00,-30.00,-6.00,-7.00,-3.00,+13.00,-2.00,+26.00,-25.00,-31.00,+7.00,+3.00,-22.00,+1.00,+1.00,+0.00
-15.00,-16.00,-1.00,+4.00,+19.00,+22.00,+0.00,-4.00,+3.00,+14.00,-15.00,-8.00,+17.00,+6.00,+2.00,-1.00
-3.00,-30.00,+9.00,-5.00,-31.00,-5.00,+4.00,-2.00,+8.00,+42.00,+14.00,+0.00,-1.00,-1.00,-1.00,+2.00
+34.00,+83.00,-12.00,+5.00,+38.00,+16.00,+0.00,+2.00,-23.00,-25.00,-7.00,-5.00,-32.00,-6.00,-3.00,-4.00
+16.00,+1.00,+10.00,+3.00,-3.00,+17.00,+8.00,+5.00,-2.00,+41.00,+30.00,+12.00,+27.00,+8.00,+9.00,-8.00
+2.00,-6.00,+1.00,-6.00,-11.00,+1.00,+0.00,-12.00,-36.00,-10.00,-4.00,-3.00,-8.00,+0.00,-4.00,-1.00
-26.00,-9.00,-10.00,-1.00,-6.00,-15.00,-5.00,-1.00,+57.00,-26.00,-18.00,-2.00,-2.00,-5.00,-3.00,+1.00
-19.00,+12.00,+17.00,-5.00,-4.00,-3.00,+0.00,-6.00,+33.00,-13.00,-16.00,-7.00,+16.00,+2.00,-1.00,+6.00
+7.00,-14.00,-5.00,+1.00,+11.00,+15.00,+3.00,-18.00,-6.00,+93.00,+45.00,+20.00,+69.00,+15.00,+0.00,-22.00
+19.00,+44.00,+6.00,+3.00,+21.00,+31.00,+10.00,+22.00,+17.00,-9.00,-17.00,-17.00,-90.00,-28.00,-5.00,+1.00
-2.00,-4.00,+4.00,+0.00,-4.00,-5.00,-5.00,-12.00,+9.00,+16.00,+16.00,+3.00,+20.00,+0.00,+1.00,-8.00
-10.00,-12.00,-14.00,-2.00,-12.00,-28.00,+1.00,+13.00,-6.00,-31.00,-22.00,-3.00,-3.00,-4.00,-3.00,-4.00
-27.00,-6.00,+1.00,+3.00,+12.00,+13.00,-8.00,-28.00,+7.00,-37.00,-18.00,-19.00,+2.00,-7.00,+14.00,+4.00
+18.00,+18.00,+3.00,-2.00,-14.00,-1.00,+4.00,-22.00,-29.00,+17.00,+4.00,+9.00,+53.00,-6.00,+1.00,+0.00
+0.00,-6.00,+5.00,+1.00,+8.00,+0.00,+4.00,+31.00,-31.00,+12.00,+10.00,+1.00,-30.00,+4.00,-8.00,-10.00
+7.00,+7.00,-9.00,-2.00,-1.00,+10.00,+3.00,+10.00,+16.00,-95.00,-42.00,-14.00,-35.00,-6.00,-1.00,-14.00
-3.00,-15.00,-11.00,-7.00,-17.00,-22.00,-4.00,+1.00,-2.00,+81.00,+45.00,+14.00,-9.00,-1.00,-15.00,-2.00
-7.00,-9.00,-24.00,-3.00,-18.00,-21.00,-9.00,-27.00,-19.00,-40.00,-10.00,-2.00,+7.00,+1.00,+7.00,-6.00
-4.00,+3.00,+14.00,+3.00,+20.00,+20.00,-3.00,-12.00,+10.00,+6.00,+3.00,-3.00,-2.00,-4.00,+7.00,+9.00
-6.00,-27.00,+0.00,-1.00,+5.00,+74.00,+3.00,+31.00,+11.00,-19.00,-12.00,+1.00,+21.00,+5.00,-17.00,+3.00
+17.00,-4.00,-1.00,+2.00,+8.00,-58.00,-12.00,-21.00,-56.00,-25.00,-20.00,-2.00,+11.00,+0.00,+0.00,+3.00
+6.00,-5.00,+2.00,+0.00,-24.00,+9.00,+2.00,+15.00,-13.00,+1.00,-5.00,-14.00,-41.00,+2.00,-10.00,-3.00
+3.00,-3.00,+2.00,+3.00,+30.00,+51.00,+4.00,+5.00,-12.00,+0.00,+5.00,+9.00,+49.00,+10.00,+10.00,+0.00
+13.00,+14.00,-3.00,-5.00,-22.00,-2.00,+0.00,+4.00,-11.00,+56.00,+34.00,+6.00,+17.00,+1.00,+2.00,-8.00
-5.00,-17.00,+0.00,+1.00,+22.00,+59.00,-5.00,-10.00,+24.00,-26.00,-20.00,-21.00,-56.00,-13.00,-12.00,+9.00
-6.00,+9.00,+8.00,+3.00,+14.00,+50.00,+0.00,+7.00,-6.00,+20.00,+8.00,+8.00,+11.00,+1.00,+1.00,+0.00
-18.00,-24.00,-10.00,-3.00,-10.00,+9.00,-2.00,-15.00,+13.00,-52.00,-15.00,+16.00,+69.00,+12.00,+2.00,-6.00
-16.00,-6.00,+1.00,+0.00,-1.00,-11.00,-3.00,+8.00,+34.00,-46.00,-11.00,-33.00,-80.00,-15.00,-3.00,-3.00
+3.00,+10.00,-1.00,+3.00,+3.00,+8.00,+3.00,+3.00,+7.00,+49.00,+8.00,-3.00,-5.00,-4.00,+1.00,-12.00
+1.00,-11.00,-16.00,-5.00,+4.00,-21.00,+0.00,-1.00,-6.00,+1.00,+8.00,+17.00,+88.00,+25.00,+4.00,+17.00
-1.00,+23.00,+2.00,+0.00,-16.00,+21.00,-2.00,-13.00,-23.00,-20.00,-15.00,-38.00,-122.00,-29.00,-10.00,+2.00
+12.00,-9.00,+23.00,-1.00,-15.00,-37.00,-1.00,+2.00,-12.00,-34.00,-13.00,+6.00,+11.00,+3.00,+5.00,+1.00
-5.00,-12.00,-7.00,-1.00,-9.00,-12.00,+2.00,-4.00,-3.00,-2.00,+4.00,+7.00,+17.00,+3.00,-5.00,+4.00
-8.00,-1.00,-2.00,+1.00,+14.00,+26.00,-1.00,+8.00,-25.00,-58.00,-19.00,-5.00,-8.00,+2.00,-2.00,-10.00
+0.00,-7.00,-8.00,+0.00,-7.00,-36.00,-2.00,-8.00,-15.00,+74.00,+37.00,+23.00,+44.00,+5.00,-7.00,-5.00
+11.00,+3.00,+0.00,-2.00,-5.00,-24.00,-2.00,+2.00,-6.00,+24.00,-2.00,+6.00,+16.00,+3.00,+6.00,+2.00
-5.00,-12.00,+0.00,-4.00,-5.00,-12.00,-2.00,+3.00,+36.00,-33.00,-11.00,-8.00,+9.00,+7.00,+10.00,+11.00
+0.00,-10.00,+0.00,-1.00,-2.00,+14.00,-2.00,+0.00,-42.00,-14.00,-9.00,-8.00,-13.00,-9.00,-9.00,-14.00
-13.00,+3.00,-10.00,-4.00,-18.00,-40.00,-2.00,-3.00,+30.00,-17.00,+4.00,+2.00,+0.00,-1.00,-1.00,+8.00
+3.00,+20.00,+10.00,-1.00,-3.00,-14.00,-2.00,-10.00,-3.00,+40.00,+3.00,+2.00,-6.00,-3.00,+2.00,+11.00
+26.00,+22.00,-4.00,-1.00,-2.00,+18.00,+4.00,-6.00,-23.00,-22.00,-9.00,+5.00,+20.00,+3.00,-3.00,-8.00
-8.00,-3.00,+3.00,+2.00,-3.00,-16.00,-1.00,+18.00,+20.00,-17.00,-11.00,-3.00,-3.00,+0.00,+7.00,+1.00
+7.00,-8.00,+4.00,-4.00,+5.00,-42.00,+0.00,-8.00,-22.00,-12.00,-3.00,+4.00,+7.00,+1.00,-7.00,-7.00
-10.00,-24.00,-11.00,-3.00,-9.00,-39.00,-5.00,-14.00,+15.00,+45.00,+16.00,-10.00,-24.00,-4.00,-1.00,+5.00
+10.00,+4.00,-8.00,-6.00,-9.00,-20.00,-4.00,-7.00,-18.00,-49.00,-12.00,+2.00,+4.00,+2.00,+3.00,-1.00
-5.00,-8.00,-2.00,+3.00,+22.00,+23.00,+3.00,+15.00,-2.00,+56.00,+17.00,+0.00,-23.00,-3.00,-4.00,-12.00
+1.00,+18.00,-6.00,+5.00,+39.00,+19.00,+4.00,+10.00,+0.00,-6.00,-7.00,-1.00,-5.00,-1.00,-5.00,-8.00
+5.00,+36.00,+23.00,+2.00,-59.00,-19.00,+4.00,+0.00,-9.00,-6.00,-6.00,+8.00,+34.00,+1.00,-5.00,-4.00
+9.00,+7.00,+6.00,-3.00,+15.00,-5.00,+3.00,+7.00,+23.00,-23.00,-4.00,+2.00,-28.00,+1.00,+4.00,+9.00
-18.00,-24.00,-3.00,-3.00,-7.00,-21.00,-6.00,-32.00,+11.00,-10.00,-14.00,-14.00,-3.00,-3.00,-5.00,+1.00
+6.00,+16.00,+1.00,+1.00,+5.00,+8.00,+1.00,+9.00,-13.00,+49.00,+22.00,+5.00,+19.00,+4.00,-1.00,-9.00
-13.00,-20.00,-12.00,-3.00,+12.00,+23.00,-2.00,+0.00,-2.00,+2.00,-4.00,+4.00,-54.00,-7.00,+1.00,+16.00
+7.00,+23.00,+2.00,+8.00,+1.00,+9.00,+1.00,+1.00,+50.00,+26.00,+7.00,-3.00,+30.00,-4.00,-6.00,+2.00
+11.00,+10.00,+10.00,+6.00,-10.00,-13.00,+2.00,-1.00,+10.00,+20.00,+4.00,+2.00,+17.00,+0.00,+0.00,-2.00
-5.00,+18.00,+11.00,-3.00,-7.00,+7.00,-2.00,+2.00,-39.00,-19.00,-16.00,-13.00,-25.00,-4.00,-5.00,+6.00
-9.00,-4.00,-24.00,-15.00,+1.00,-7.00,-4.00,-13.00,+14.00,-56.00,-1.00,+0.00,+24.00,+8.00,+7.00,-2.00
-11.00,-35.00,-5.00,-5.00,-10.00,-13.00,-2.00,+4.00,-10.00,+21.00,+3.00,+4.00,-11.00,+0.00,-1.00,-4.00
-1.00,-6.00,+4.00,+0.00,+0.00,-16.00,-3.00,-14.00,-29.00,+9.00,+11.00,+7.00,-15.00,+2.00,+7.00,+4.00
-3.00,+18.00,+12.00,+8.00,+1.00,+12.00,+2.00,+3.00,-6.00,-3.00,-16.00,-6.00,-1.00,-2.00,-5.00,+1.00
+9.00,+6.00,+6.00,+4.00,+16.00,+23.00,+1.00,+7.00,-54.00,-24.00,+8.00,+1.00,+6.00,-3.00,-5.00,-14.00
-18.00,-23.00,-14.00,-4.00,-1.00,-37.00,-5.00,-15.00,-8.00,-46.00,-20.00,-5.00,-6.00,+0.00,-2.00,+4.00
+8.00,+19.00,+18.00,-2.00,+7.00,+70.00,+6.00,+26.00,+4.00,+76.00,+10.00,-1.00,+5.00,-3.00,-11.00,-5.00
+1.00,-28.00,-11.00,-5.00,-7.00,-12.00,-2.00,-5.00,-6.00,+19.00,-18.00,-7.00,-13.00,-2.00,+13.00,+11.00
-9.00,-9.00,+3.00,+3.00,-28.00,-21.00,-4.00,-10.00,+19.00,-19.00,-2.00,+4.00,-1.00,+1.00,-2.00,+4.00
-14.00,+1.00,-2.00,-2.00,+7.00,+4.00,-1.00,-1.00,-10.00,+26.00,+8.00,+1.00,-1.00,+0.00,-3.00,-17.00
-1.00,-23.00,-11.00,-3.00,-2.00,-8.00,-3.00,+1.00,-43.00,-66.00,-9.00,-2.00,+21.00,+6.00,-1.00,-7.00
+14.00,+10.00,+0.00,+5.00,+5.00,+9.00,-1.00,+2.00,+27.00,+42.00,+12.00,+8.00,-68.00,-16.00,-6.00,-10.00
-8.00,-4.00,+4.00,+0.00,+20.00,+22.00,+5.00,+43.00,+1.00,+44.00,-2.00,-4.00,+46.00,-1.00,-4.00,-8.00
+6.00,+3.00,+4.00,+1.00,-16.00,-7.00,-4.00,-12.00,+0.00,-32.00,+0.00,+0.00,-33.00,-1.00,+8.00,+13.00
-18.00,-14.00,-8.00,-4.00,-8.00,-34.00,-2.00,+7.00,-4.00,-46.00,-12.00,-8.00,-16.00,-4.00,-3.00,-1.00
+25.00,+2.00,-3.00,-4.00,-3.00,-3.00,-2.00,+3.00,+15.00,-13.00,+16.00,+5.00,+23.00,+5.00,+0.00,+3.00
-1.00,+3.00,-10.00,-5.00,+6.00,+4.00,-1.00,-14.00,+4.00,-13.00,-7.00,-4.00,-7.00,+0.00,-4.00,-8.00
-19.00,-15.00,-4.00,-5.00,-4.00,-8.00,-5.00,-11.00,+4.00,-4.00,-5.00,-2.00,+5.00,-1.00,-10.00,+0.00
-2.00,+7.00,+2.00,+0.00,-4.00,-9.00,-2.00,-4.00,+14.00,+9.00,+5.00,+11.00,+32.00,+5.00,+4.00,-11.00
-8.00,-11.00,-7.00,+2.00,-4.00,-5.00,-5.00,-17.00,+21.00,-9.00,-4.00,-9.00,-20.00,-4.00,+9.00,+14.00
+2.00,-11.00,-2.00,+3.00,+10.00,+17.00,+8.00,+24.00,-4.00,+13.00,+4.00,+2.00,+16.00,+3.00,+3.00,+5.00
+9.00,+18.00,+0.00,+0.00,-1.00,+2.00,+5.00,+14.00,-16.00,-14.00,-7.00,-5.00,-5.00,-1.00,+0.00,+12.00
-4.00,-4.00,-2.00,-3.00,-7.00,-17.00,-2.00,-20.00,+42.00,+25.00,+2.00,+0.00,-8.00,-3.00,-1.00,-4.00
-2.00,-8.00,-5.00,-5.00,-2.00,-4.00,-3.00,-38.00,+5.00,-14.00,+4.00,+3.00,+28.00,+1.00,-5.00,-5.00
+5.00,-12.00,+11.00,+7.00,+2.00,-10.00,-1.00,+33.00,-17.00,-6.00,+10.00,+6.00,-13.00,+6.00,-6.00,-18.00
-2.00,-16.00,-5.00,-3.00,+1.00,+15.00,+0.00,+8.00,+11.00,-15.00,-45.00,-15.00,-4.00,-13.00,+4.00,+3.00
+13.00,+28.00,-5.00,-3.00,-6.00,-17.00,+1.00,+7.00,+14.00,-11.00,-11.00,-8.00,-3.00,-5.00,-6.00,+18.00
-10.00,-11.00,-2.00,+6.00,+3.00,+21.00,+3.00,-18.00,-7.00,+56.00,+33.00,+6.00,-1.00,-1.00,+1.00,-9.00
-1.00,+12.00,+2.00,-2.00,+4.00,-7.00,-7.00,-23.00,+3.00,-3.00,-7.00,+1.00,-1.00,+0.00,-4.00,-6.00
-5.00,-1.00,-2.00,+3.00,-2.00,+7.00,-2.00,-36.00,-7.00,-39.00,-22.00,-3.00,+2.00,+2.00,-16.00,-11.00
+10.00,+4.00,+8.00,-4.00,-3.00,-2.00,+3.00,+65.00,+19.00,+73.00,+37.00,+9.00,-6.00,-2.00,+11.00,+10.00
+2.00,-3.00,+2.00,+2.00,+0.00,+5.00,-1.00,+16.00,-4.00,-62.00,-23.00,-7.00,-2.00,+3.00,+2.00,+0.00
-8.00,-4.00,-2.00,+1.00,-3.00,-14.00,-1.00,-15.00,+6.00,+49.00,+20.00,+11.00,+45.00,+3.00,+6.00,+7.00
-2.00,+24.00,+3.00,+2.00,+6.00,+6.00,+3.00,+4.00,+2.00,+2.00,+11.00,+2.00,-2.00,+2.00,+3.00,+4.00
+1.00,-17.00,-10.00,-1.00,+0.00,-1.00,-7.00,-31.00,-3.00,-10.00,-9.00,+0.00,-17.00,-5.00,-4.00,-6.00
-6.00,+7.00,-6.00,-9.00,-7.00,-9.00,+1.00,+17.00,+6.00,-16.00,-19.00,-8.00,+3.00,-2.00,-12.00,-6.00
+0.00,-23.00,-7.00,+1.00,+6.00,+3.00,-1.00,-6.00,+19.00,-4.00,-5.00,-6.00,-7.00,-5.00,+0.00,+3.00
+2.00,-26.00,+7.00,+3.00,+2.00,+7.00,+0.00,-4.00,+29.00,-3.00,+2.00,+4.00,+20.00,+0.00,+0.00,-7.00
-8.00,-23.00,-32.00,-10.00,-5.00,-5.00,-2.00,-8.00,+64.00,+1.00,+6.00,-3.00,-26.00,-2.00,+8.00,+4.00
-4.00,+3.00,+10.00,-9.00,-10.00,-13.00,-4.00,+13.00,+46.00,+2.00,+3.00,+2.00,+9.00,+10.00,-17.00,-6.00
+3.00,+59.00,+15.00,+2.00,+3.00,+5.00,+1.00,-14.00,+50.00,-14.00,-14.00,-7.00,-15.00,-13.00,-4.00,-4.00
+4.00,+22.00,+0.00,+4.00,-1.00,-4.00,-2.00,+12.00,+54.00,+29.00,+9.00,-3.00,-2.00,-2.00,+4.00,+9.00
-1.00,-8.00,+2.00,+5.00,+3.00,-4.00,+0.00,-1.00,+3.00,-41.00,-8.00,+2.00,-2.00,+3.00,-3.00,-5.00
-9.00,-19.00,-4.00,+7.00,+4.00,-1.00,-3.00,-3.00,+1.00,+23.00,+2.00,-4.00,+6.00,-6.00,+1.00,-5.00
-9.00,-38.00,-7.00,-4.00,-2.00,-3.00,-2.00,-11.00,-101.00,-20.00,-15.00,-4.00,-16.00,+0.00,-2.00,-1.00
-5.00,-22.00,-3.00,-1.00,-4.00,-1.00,-3.00,-14.00,-86.00,-22.00,+10.00,+6.00,+7.00,+4.00,+4.00,+10.00
+4.00,+24.00,+20.00,-2.00,-1.00,-3.00,-4.00,+15.00,-78.00,+2.00,+2.00,+1.00,+6.00,-5.00,-2.00,-4.00
+12.00,-8.00,-7.00,+1.00,-6.00,-2.00,+2.00,+20.00,-45.00,-8.00,-7.00,-4.00,-5.00,-2.00,+0.00,-2.00
+6.00,+3.00,-4.00,-15.00,-2.00,-1.00,+4.00,-6.00,-22.00,+15.00,+6.00,-2.00,+2.00,-1.00,-2.00,-2.00
-4.00,+4.00,-6.00,+3.00,+3.00,+9.00,+7.00,+12.00,-25.00,+16.00,+7.00,+0.00,-11.00,-3.00,+6.00,-3.00
+6.00,+4.00,+0.00,+7.00,+2.00,+5.00,+1.00,-20.00,+0.00,-2.00,-3.00,+5.00,+5.00,+3.00,-2.00,-4.00
-5.00,-4.00,+0.00,-9.00,-5.00,-3.00,-7.00,-35.00,-9.00,-4.00,-4.00,-5.00,-2.00,-3.00,-8.00,-11.00
-7.00,-9.00,-8.00,-2.00,-3.00,-9.00,-7.00,+23.00,+12.00,-6.00,-13.00,-14.00,-10.00,-2.00,+0.00,-1.00
-4.00,-7.00,-11.00,-4.00,-3.00,-8.00,-3.00,+8.00,-4.00,+3.00,+9.00,+2.00,+2.00,+2.00,-4.00,+2.00
+5.00,+12.00,+20.00,+10.00,+3.00,+6.00,+12.00,+28.00,+4.00,+5.00,-3.00,-2.00,-5.00,-9.00,-3.00,+18.00
+8.00,+8.00,+8.00,+11.00,+6.00,+9.00,+8.00,+10.00,+0.00,+2.00,+15.00,+7.00,+7.00,+2.00,+10.00,+6.00
-5.00,+0.00,-4.00,-1.00,-3.00,-12.00,-1.00,-21.00,+2.00,-7.00,+4.00,+2.00,-2.00,+3.00,-9.00,-11.00
-7.00,-16.00,-23.00,-17.00,-3.00,-6.00,-8.00,+0.00,+1.00,-6.00,+11.00,+4.00,-4.00,+1.00,+13.00,-9.00
-1.00,+9.00,+2.00,+3.00,-5.00,-4.00,-4.00,-16.00,-1.00,+3.00,-12.00,-6.00,+0.00,+2.00,-6.00,+6.00
-8.00,+6.00,+3.00,-1.00,+1.00,-4.00,-1.00,+11.00,-7.00,-4.00,-7.00,-4.00,-6.00,-7.00,-14.00,-10.00
-4.00,-2.00,+1.00,+7.00,+9.00,+14.00,+2.00,-15.00,+0.00,-8.00,-4.00,+1.00,+7.00,-9.00,+3.00,-5.00
+1.00,+4.00,+9.00,+1.00,-6.00,-9.00,-4.00,-7.00,+15.00,+7.00,-2.00,-5.00,-21.00,+1.00,-5.00,-1.00
+3.00,+1.00,-5.00,-3.00,+1.00,-1.00,-1.00,-18.00,-6.00,+2.00,+15.00,+6.00,+1.00,+0.00,+1.00,-4.00
+1.00,+2.00,-2.00,-6.00,-3.00,+1.00,+1.00,+8.00,+1.00,-8.00,-6.00,-2.00,-3.00,+1.00,+7.00,+8.00
-7.00,-9.00,-14.00,-12.00,-4.00,-2.00,-6.00,-23.00,+4.00,-2.00,-6.00,+0.00,-1.00,+2.00,+0.00,+17.00
+5.00,+2.00,+10.00,+6.00,+2.00,+4.00,+2.00,+18.00,-3.00,+2.00,+8.00,+1.00,+3.00,-1.00,+0.00,-6.00
-12.00,-4.00,-11.00,-5.00,-3.00,-11.00,-12.00,-9.00,-4.00,-2.00,-8.00,-1.00,+0.00,+0.00,+1.00,-14.00
+16.00,-6.00,-5.00,+2.00,+1.00,+11.00,+8.00,-12.00,-10.00,-6.00,-7.00,-1.00,-4.00,-1.00,-2.00,-4.00
+18.00,+2.00,+4.00,+5.00,+0.00,-5.00,+4.00,+64.00,+4.00,+2.00,+6.00,-3.00,+2.00,-1.00,+1.00,-4.00
+4.00,+6.00,+10.00,-2.00,+2.00,+4.00,+4.00,-12.00,-4.00,-3.00,-7.00,-4.00,+0.00,-3.00,-2.00,+0.00
-17.00,+0.00,-11.00,-12.00,-4.00,-1.00,-6.00,-6.00,+2.00,+2.00,+10.00,-4.00,-1.00,+0.00,-4.00,-4.00
+3.00,-5.00,+5.00,-2.00,-2.00,-4.00,-5.00,-25.00,-3.00,-10.00,-22.00,-2.00,+3.00,+12.00,+6.00,+4.00
-14.00,+1.00,-6.00,+5.00,+2.00,-1.00,-4.00,-11.00,+8.00,+8.00,+0.00,+2.00,-8.00,-12.00,+1.00,-2.00
+5.00,+5.00,-2.00,+4.00,+0.00,+0.00,-2.00,-15.00,-2.00,-6.00,-10.00,-2.00,+1.00,-7.00,-16.00,-19.00
+4.00,-3.00,+4.00,+7.00,+1.00,+4.00,+4.00,+9.00,-4.00,+1.00,-5.00,-1.00,+1.00,-1.00,-8.00,+4.00
-27.00,-1.00,+0.00,-14.00,-9.00,-18.00,-7.00,+29.00,+2.00,-9.00,-6.00,-7.00,-4.00,-5.00,+15.00,+18.00
+38.00,+3.00,-10.00,-10.00,-3.00,+4.00,+8.00,+4.00,-2.00,+1.00,+25.00,+7.00,-2.00,+4.00,+6.00,+8.00
-6.00,-3.00,+8.00,+3.00,+2.00,+2.00,+1.00,+12.00,+8.00,-1.00,-33.00,-9.00,+1.00,+3.00,+4.00,+11.00
-8.00,-1.00,-8.00,+2.00,-1.00,+1.00,-2.00,-17.00,-19.00,+6.00,+5.00,+0.00,-1.00,-3.00,-7.00,-30.00
-15.00,-2.00,+13.00,+10.00,+1.00,-3.00,-1.00,+5.00,+12.00,+4.00,+11.00,+11.00,+5.00,+1.00,+3.00,+6.00
-6.00,-3.00,+14.00,+8.00,+0.00,-3.00,-6.00,-12.00,-10.00,-14.00,-11.00,-10.00,-7.00,+6.00,-4.00,-12.00
-4.00,+2.00,-4.00,-8.00,-4.00,+2.00,-2.00,-20.00,-6.00,-1.00,+2.00,-1.00,+0.00,-12.00,-5.00,+1.00
+3.00,-2.00,+1.00,-6.00,-4.00,-1.00,+0.00,+8.00,+22.00,+4.00,-1.00,-1.00,-4.00,-8.00,+0.00,+5.00
+9.00,-1.00,-26.00,-6.00,+0.00,-5.00,+0.00,+21.00,-5.00,+2.00,+9.00,+3.00,+1.00,-1.00,-3.00,-5.00
-6.00,+3.00,+7.00,+1.00,+0.00,+1.00,-3.00,-14.00,+6.00,-1.00,-14.00,-1.00,-1.00,-7.00,-6.00,-1.00
-2.00,-1.00,+8.00,+10.00,+2.00,-2.00,+0.00,+7.00,-1.00,+1.00,+12.00,+4.00,+1.00,+7.00,+4.00,+6.00
+5.00,+5.00,+6.00,+1.00,-1.00,+4.00,-2.00,-1.00,-2.00,-9.00,-21.00,-6.00,-1.00,+7.00,+4.00,+8.00
+3.00,+1.00,+0.00,+2.00,+1.00,+2.00,+0.00,-19.00,+4.00,+2.00,+5.00,-2.00,-4.00,-11.00,-2.00,-6.00
-8.00,-7.00,-24.00,-21.00,-7.00,-4.00,+0.00,+19.00,+6.00,+0.00,+3.00,+0.00,-1.00,+3.00,+0.00,+2.00
-8.00,-6.00,-10.00,-9.00,-8.00,-5.00,-6.00,-8.00,-6.00,+0.00,-6.00,-1.00,+2.00,-1.00,-1.00,-8.00
-2.00,+0.00,+7.00,+3.00,-1.00,-2.00,+0.00,-25.00,+1.00,-5.00,-3.00,+0.00,+2.00,+0.00,-1.00,-1.00
+8.00,+3.00,+4.00,+14.00,+6.00,-1.00,+2.00,+38.00,-1.00,+3.00,+7.00,-2.00,-1.00,-2.00,-1.00,-1.00
-8.00,+3.00,+20.00,+15.00,+6.00,+7.00,+0.00,-15.00,+2.00,+4.00,-3.00,+1.00,-2.00,+1.00,+1.00,+4.00
+9.00,+0.00,-6.00,-15.00,-6.00,-3.00,+0.00,-1.00,-7.00,-3.00,+7.00,-2.00,-3.00,-2.00,-6.00,-14.00
+6.00,-6.00,-11.00,-8.00,-2.00,-5.00,-3.00,-17.00,+17.00,+1.00,+3.00,-2.00,-2.00,+0.00,+7.00,+11.00
-8.00,+0.00,-3.00,+0.00,-1.00,-2.00,-1.00,-13.00,+2.00,+0.00,+4.00,-2.00,+0.00,+0.00,-5.00,-1.00
+0.00,-3.00,-1.00,+5.00,+1.00,+0.00,+3.00,+4.00,-7.00,-6.00,-19.00,+1.00,+1.00,-3.00,-14.00,-17.00
+2.00,+1.00,+5.00,+5.00,+2.00,-1.00,+3.00,+16.00,+2.00,+3.00,+15.00,+2.00,+2.00,+1.00,+8.00,+13.00
-10.00,-8.00,-19.00,-4.00,-3.00,-8.00,-7.00,+1.00,-4.00,-10.00,-17.00,-7.00,-4.00,-6.00,-7.00,-9.00
+3.00,+6.00,+20.00,+4.00,+1.00,+17.00,+9.00,-8.00,-6.00,+0.00,-11.00,-7.00,-3.00,+2.00,+7.00,+7.00
-4.00,+1.00,+0.00,-3.00,-5.00,-4.00,-3.00,-19.00,+7.00,+0.00,+8.00,+3.00,-2.00,-3.00,+4.00,+22.00
-9.00,-2.00,-2.00,-5.00,-2.00,+3.00,-5.00,-4.00,+13.00,+2.00,-4.00,-2.00,+1.00,+1.00,-8.00,-17.00
-1.00,-13.00,-14.00,-6.00,-1.00,-7.00,+3.00,+9.00,-11.00,+6.00,+14.00,+2.00,+0.00,+0.00,-3.00,-9.00
+21.00,+13.00,+2.00,-5.00,-2.00,-4.00,-5.00,+4.00,-2.00,+6.00,+7.00,+3.00,+2.00,+10.00,-1.00,+6.00
-9.00,+0.00,-1.00,+2.00,-1.00,+1.00,+1.00,-7.00,+4.00,-12.00,-6.00,-8.00,+0.00,-2.00,+5.00,-5.00
-1.00,+3.00,+8.00,+12.00,+4.00,+4.00,+2.00,+0.00,-2.00,-4.00,-14.00,-4.00,-1.00,-4.00,-1.00,+0.00
-13.00,+0.00,+9.00,+5.00,-1.00,+2.00,-3.00,-1.00,+0.00,+4.00,+4.00,-5.00,-5.00,-3.00,+3.00,+5.00
-14.00,-11.00,-19.00,-17.00,-6.00,-9.00,-4.00,-6.00,-6.00,-7.00,-16.00,-6.00,-5.00,-10.00,-10.00,-13.00
+5.00,+0.00,+3.00,+3.00,+1.00,+1.00,+0.00,+3.00,-9.00,+3.00,+14.00,+3.00,+0.00,+4.00,-2.00,-8.00
-6.00,-2.00,-6.00,-2.00,-1.00,-6.00,-5.00,-14.00,-4.00,-3.00,+2.00,+3.00,+2.00,+4.00,+1.00,+0.00
+6.00,+4.00,+6.00,+5.00,+1.00,+2.00,+4.00,+3.00,+2.00,+0.00,-1.00,+3.00,+1.00,+0.00,+1.00,+10.00
+0.00,-2.00,+0.00,+2.00,-1.00,-1.00,+0.00,-5.00,-3.00,-1.00,+6.00,-1.00,-1.00,+0.00,-5.00,-8.00
-2.00,-1.00,-3.00,-2.00,-2.00,-5.00,-5.00,-1.00,+2.00,+0.00,-1.00,-3.00,-3.00,+1.00,+6.00,+11.00
+4.00,-4.00,-2.00,+1.00,+2.00,+10.00,+10.00,+34.00,-4.00,-5.00,-3.00,-2.00,-2.00,-4.00,-1.00,+3.00
+3.00,+5.00,+6.00,-3.00,+0.00,+0.00,-1.00,-9.00,-5.00,+1.00,+0.00,+2.00,+0.00,+2.00,-1.00,-8.00
-4.00,-3.00,-1.00,-1.00,-2.00,+0.00,-1.00,-5.00,+3.00,-3.00,-6.00,-2.00,-1.00,-3.00,+1.00,-4.00
-12.00,-4.00,-3.00,-4.00,-2.00,-6.00,-9.00,-26.00,+2.00,-2.00,-4.00,-1.00,-1.00,-3.00,-1.00,+3.00
+3.00,+0.00,-2.00,+1.00,+2.00,+8.00,-2.00,+14.00,-1.00,+0.00,+2.00,+0.00,-1.00,+7.00,-1.00,+0.00
+11.00,+2.00,+3.00,+5.00,+3.00,+8.00,+7.00,+13.00,+1.00,-1.00,-1.00,-1.00,-2.00,-9.00,-3.00,+5.00
-4.00,-3.00,-14.00,-7.00,-3.00,-8.00,+0.00,+5.00,-1.00,-4.00,-3.00,+0.00,-2.00,-1.00,-3.00,-7.00
-2.00,-1.00,+1.00,-2.00,+0.00,+1.00,-3.00,-2.00,+0.00,-1.00,-2.00,-1.00,-2.00,-2.00,-2.00,-9.00
+0.00,-1.00,-5.00,-3.00,-2.00,-5.00,-2.00,-12.00,-4.00,-2.00,+3.00,-2.00,+0.00,+2.00,+12.00,+3.00
+0.00,+0.00,-2.00,-5.00,-2.00,+1.00,+1.00,+9.00,-4.00,-4.00,-9.00,-2.00,+1.00,+2.00,-14.00,-8.00
-6.00,-7.00,-12.00,-1.00,-1.00,-2.00,-4.00,+1.00,+0.00,+12.00,+33.00,+4.00,+0.00,-7.00,-5.00,-6.00
+8.00,+0.00,+6.00,+2.00,+1.00,+2.00,+1.00,-5.00,-1.00,-12.00,-39.00,-11.00,-8.00,-2.00,+2.00,+9.00
-1.00,-7.00,+1.00,-2.00,-3.00,-4.00,+0.00,+21.00,-1.00,-6.00,-16.00,-4.00,+4.00,+1.00,-2.00,-1.00
-5.00,+2.00,-1.00,+0.00,-1.00,+0.00,-2.00,-1.00,-1.00,+0.00,-1.00,-2.00,-2.00,+0.00,+3.00,+1.00
+5.00,-7.00,-13.00,-4.00,-3.00,-4.00,+0.00,-9.00,+1.00,-3.00,+7.00,+2.00,+1.00,-2.00,-1.00,-3.00
-36.00,-9.00,+25.00,+2.00,-2.00,-1.00,-4.00,+10.00,+0.00,+6.00,+13.00,+2.00,+0.00,+1.00,-4.00,-4.00
-14.00,-4.00,-8.00,-4.00,-4.00,-7.00,-4.00,-10.00,+0.00,+3.00,-1.00,-1.00,-2.00,-5.00,-5.00,-1.00
+13.00,-2.00,+7.00,+1.00,+0.00,-2.00,+2.00,+7.00,-3.00,-4.00,-3.00,-1.00,+0.00,+0.00,+3.00,-1.00
+57.00,+5.00,+5.00,+1.00,-1.00,+3.00,+1.00,-15.00,-2.00,+2.00,+4.00,-1.00,-1.00,+0.00,-1.00,+5.00
