+0.00,+0.00,+0.00,-1.00,-2.00,+0.00,-1.00,-1.00,-2.00,-1.00,-1.00,-1.00,-1.00,-1.00,-1.00,-1.00
-1.00,-1.00,+0.00,+0.00,+0.00,-2.00,-2.00,-1.00,-2.00,-2.00,+0.00,-1.00,-2.00,+0.00,+1.00,-3.00
+2.00,+1.00,-2.00,-2.00,+0.00,+1.00,+1.00,-1.00,+0.00,+2.00,-1.00,-1.00,-1.00,-1.00,+0.00,-2.00
-1.00,-4.00,-2.00,+1.00,-1.00,+0.00,-2.00,+0.00,-1.00,-3.00,+0.00,+0.00,-1.00,-1.00,-3.00,-1.00
-2.00,+0.00,+0.00,-2.00,-1.00,-1.00,+0.00,-3.00,-1.00,-2.00,-1.00,+0.00,-1.00,-1.00,+0.00,-1.00
-1.00,+6.00,+1.00,-1.00,+0.00,-1.00,+0.00,+2.00,-1.00,-2.00,-1.00,-1.00,+0.00,+0.00,-2.00,-2.00
+0.00,-2.00,-2.00,-1.00,-1.00,+1.00,-2.00,-1.00,-1.00,-2.00,-2.00,+1.00,-1.00,-1.00,-2.00,-2.00
-1.00,-5.00,-1.00,+0.00,+0.00,-1.00,-2.00,-2.00,+0.00,+0.00,-2.00,-1.00,-1.00,+0.00,+0.00,+0.00
+1.00,-2.00,-5.00,+0.00,+0.00,+1.00,-1.00,+0.00,+1.00,+0.00,-3.00,-1.00,-1.00,-1.00,+0.00,+1.00
-8.00,-8.00,-5.00,-3.00,-1.00,-2.00,+0.00,+13.00,-4.00,-11.00,-3.00,-3.00,-3.00,-1.00,-1.00,-1.00
+0.00,+5.00,+3.00,-1.00,-1.00,-1.00,+0.00,+0.00,-1.00,-8.00,-3.00,-1.00,+0.00,-3.00,+0.00,-1.00
-2.00,+4.00,-3.00,-1.00,-1.00,+0.00,-2.00,-2.00,+5.00,-1.00,-3.00,-3.00,-2.00,-2.00,-2.00,+0.00
-5.00,-13.00,-3.00,-3.00,-2.00,-2.00,+0.00,-1.00,-2.00,+34.00,+10.00,+2.00,+0.00,-2.00,-2.00,-2.00
+4.00,-5.00,-1.00,+0.00,+0.00,+0.00,+1.00,-4.00,-8.00,-14.00,-3.00,-2.00,+2.00,-1.00,-2.00,-4.00
+2.00,-1.00,+2.00,+2.00,+0.00,-1.00,-1.00,+2.00,+0.00,-4.00,-3.00,-4.00,-1.00,+0.00,-1.00,+1.00
-3.00,+7.00,+1.00,-1.00,-1.00,-1.00,+0.00,+1.00,-3.00,-19.00,-8.00,-2.00,-2.00,-1.00,-1.00,-2.00
-1.00,+7.00,-2.00,-4.00,-2.00,-1.00,-2.00,-3.00,+7.00,+12.00,-4.00,-1.00,-1.00,+0.00,+0.00,+2.00
-8.00,-37.00,-2.00,-1.00,-2.00,-1.00,-3.00,-6.00,+2.00,+19.00,-4.00,+0.00,-1.00,-2.00,-1.00,+0.00
-4.00,-34.00,-18.00,-3.00,-2.00,-2.00,-1.00,+0.00,-7.00,+16.00,+27.00,+7.00,+2.00,+0.00,-1.00,-3.00
+10.00,+31.00,+10.00,+4.00,+2.00,+0.00,-1.00,+0.00,-2.00,+3.00,-1.00,-2.00,-1.00,-3.00,-2.00,-3.00
-1.00,-5.00,-4.00,+0.00,-1.00,-2.00,-2.00,-2.00,+0.00,-20.00,-3.00,-1.00,+0.00,+0.00,+0.00,+1.00
+0.00,+22.00,+4.00,+0.00,-2.00,-2.00,-1.00,-2.00,+3.00,-3.00,-8.00,-3.00,-3.00,+0.00,-1.00,+1.00
-4.00,-17.00,-3.00,-1.00,-2.00,-1.00,-1.00,-2.00,+2.00,-6.00,-9.00,-4.00,-3.00,-1.00,-1.00,+0.00
-3.00,-8.00,-3.00,-2.00,-2.00,+0.00,-2.00,-1.00,-2.00,+3.00,+1.00,+1.00,+0.00,+0.00,+0.00,+0.00
-2.00,+6.00,-1.00,-1.00,+0.00,-1.00,-1.00,-1.00,-7.00,-4.00,-1.00,-2.00,-1.00,-2.00,-3.00,-5.00
+0.00,-5.00,-4.00,-1.00,-1.00,-1.00,+0.00,-1.00,+2.00,+9.00,+5.00,+0.00,+0.00,-1.00,+1.00,-1.00
+2.00,+11.00,+2.00,+0.00,-1.00,+0.00,-1.00,-2.00,-3.00,-13.00,-5.00,+1.00,+15.00,-2.00,-2.00,-4.00
-2.00,-3.00,+2.00,-1.00,-4.00,-7.00,-2.00,-1.00,+3.00,-6.00,+0.00,+0.00,-2.00,+1.00,+1.00,+2.00
-2.00,+10.00,+3.00,-1.00,+9.00,+13.00,+0.00,+0.00,-2.00,+4.00,-1.00,-2.00,-3.00,-2.00,-3.00,-2.00
-3.00,-9.00,+0.00,+1.00,-5.00,-5.00,-2.00,-5.00,-4.00,-8.00,+2.00,-2.00,-3.00,+0.00,-2.00,-3.00
+2.00,+11.00,-3.00,-2.00,-5.00,-6.00,-1.00,+1.00,+9.00,-8.00,-6.00,-3.00,-4.00,+1.00,-1.00,+2.00
-4.00,-6.00,-8.00,-3.00,-6.00,-4.00,-1.00,-3.00,-13.00,+15.00,-2.00,+1.00,+6.00,-1.00,-1.00,-1.00
+4.00,-14.00,+13.00,+3.00,+1.00,-5.00,+1.00,+2.00,-6.00,-43.00,-2.00,+1.00,-1.00,+0.00,-2.00,-5.00
+0.00,+11.00,-1.00,+0.00,+5.00,+4.00,+1.00,+0.00,+9.00,+16.00,+4.00,+2.00,-5.00,+0.00,-1.00,-1.00
-9.00,-13.00,-1.00,-3.00,+2.00,+2.00,+0.00,-2.00,-5.00,-18.00,-7.00,-3.00,+2.00,+0.00,+0.00,+0.00
-6.00,-3.00,-9.00,-5.00,-3.00,-3.00,-2.00,-2.00,+0.00,+6.00,+12.00,+3.00,+0.00,-1.00,-3.00,-4.00
+6.00,+24.00,+1.00,+1.00,+0.00,+1.00,+0.00,+1.00,-3.00,+10.00,-6.00,-2.00,-2.00,+0.00,+1.00,+2.00
+9.00,+11.00,+13.00,+3.00,+0.00,+2.00,+0.00,+1.00,-8.00,-18.00,-3.00,-4.00,+9.00,-3.00,-3.00,-2.00
+2.00,+44.00,+0.00,-1.00,-5.00,-3.00,-1.00,-1.00,+6.00,+23.00,-8.00,-4.00,-15.00,-2.00,-1.00,-2.00
-6.00,-60.00,-3.00,-3.00,+1.00,+2.00,-1.00,-1.00,-1.00,-4.00,-9.00,-3.00,+7.00,-1.00,-2.00,-1.00
-7.00,-17.00,-20.00,-4.00,+5.00,+7.00,-2.00,-3.00,-4.00,-21.00,+15.00,+16.00,+34.00,+6.00,+2.00,-2.00
+8.00,+36.00,+14.00,+2.00,-16.00,+9.00,+2.00,+4.00,+0.00,+1.00,+1.00,-9.00,-34.00,-7.00,-2.00,-1.00
-3.00,-21.00,-4.00,+2.00,+11.00,-31.00,-1.00,-1.00,+2.00,+1.00,-1.00,-2.00,-5.00,-1.00,-1.00,+4.00
+0.00,+14.00,+6.00,+3.00,+2.00,+2.00,-1.00,-1.00,-5.00,+31.00,-6.00,-7.00,+6.00,-2.00,-2.00,-7.00
-2.00,-7.00,+0.00,-2.00,-1.00,+9.00,-2.00,-3.00,+0.00,+9.00,+8.00,-2.00,-12.00,-7.00,-6.00,-3.00
-10.00,-20.00,-20.00,-5.00,-4.00,-29.00,-7.00,-5.00,-5.00,-6.00,-3.00,+3.00,+10.00,+3.00,+4.00,+5.00
+1.00,+17.00,+11.00,-1.00,+0.00,+18.00,+1.00,+1.00,+1.00,+4.00,+9.00,+16.00,+4.00,+7.00,+2.00,-4.00
+2.00,+1.00,-2.00,+0.00,-12.00,+5.00,+2.00,+3.00,-7.00,-7.00,-1.00,-19.00,-37.00,-14.00,-6.00,-6.00
-4.00,-14.00,-10.00,-2.00,+10.00,-29.00,-4.00,-4.00,+19.00,+3.00,-14.00,-4.00,+10.00,+5.00,+7.00,+22.00
-8.00,+7.00,+8.00,-1.00,+6.00,-6.00,-1.00,-6.00,+11.00,+22.00,+19.00,+4.00,-8.00,-2.00,+1.00,+9.00
-4.00,+0.00,+6.00,+3.00,+5.00,+23.00,-1.00,-4.00,-11.00,-37.00,-44.00,-15.00,+10.00,-3.00,-5.00,-4.00
-8.00,-20.00,-3.00,-3.00,-6.00,-25.00,-5.00,-3.00,-14.00,+19.00,+67.00,+18.00,+6.00,+2.00,-2.00,-5.00
+10.00,+38.00,+6.00,+3.00,-3.00,+20.00,+4.00,+3.00,-9.00,-6.00,-6.00,-5.00,-12.00,-3.00,-4.00,-9.00
+0.00,-53.00,-5.00,-2.00,-1.00,-3.00,-1.00,-2.00,-17.00,-35.00,-7.00,+5.00,+21.00,+1.00,-3.00,-5.00
+7.00,+46.00,-10.00,-6.00,-13.00,-10.00,-1.00,+0.00,+18.00,+121.00,+5.00,-5.00,-38.00,-15.00,-7.00,+9.00
-6.00,-37.00,-7.00,+2.00,+10.00,+23.00,+5.00,-1.00,+10.00,-45.00,-13.00,-5.00,-4.00,+24.00,+14.00,+0.00
-3.00,-32.00,+19.00,+3.00,-8.00,-23.00,-11.00,-4.00,-12.00,-61.00,-17.00,-8.00,-15.00,-1.00,+1.00,-1.00
+2.00,+22.00,+5.00,+1.00,+5.00,+1.00,+0.00,+2.00,-4.00,-40.00,-2.00,+2.00,+10.00,+4.00,+3.00,+1.00
-9.00,-26.00,-11.00,-1.00,-4.00,+2.00,-2.00,-3.00,+1.00,+32.00,+5.00,+3.00,+11.00,-1.00,-1.00,-4.00
+3.00,+4.00,+7.00,-2.00,+22.00,+18.00,+1.00,+0.00,-9.00,-40.00,-16.00,+5.00,+18.00,-2.00,-6.00,+0.00
-3.00,+9.00,-11.00,-5.00,-21.00,+0.00,+2.00,-1.00,-14.00,+11.00,+5.00,+12.00,+62.00,+11.00,-25.00,-11.00
+9.00,+11.00,+7.00,+1.00,-24.00,-13.00,+1.00,+5.00,+24.00,+53.00,+8.00,-24.00,-93.00,-11.00,+42.00,-5.00
-3.00,-43.00,-13.00,-2.00,+22.00,+22.00,-9.00,-4.00,-2.00,-29.00,+4.00,-1.00,-2.00,-25.00,-3.00,+7.00
-4.00,+21.00,+4.00,+1.00,+1.00,-50.00,-7.00,-9.00,+15.00,+18.00,-15.00,-10.00,-15.00,-14.00,-9.00,+1.00
-6.00,-8.00,-14.00,-5.00,+7.00,+24.00,-1.00,-2.00,-4.00,-10.00,+0.00,+3.00,+32.00,+4.00,+7.00,+0.00
-8.00,-11.00,-16.00,-5.00,-2.00,+7.00,+0.00,-5.00,-20.00,-26.00,-3.00,+18.00,+57.00,+10.00,-15.00,-7.00
+14.00,+55.00,+25.00,+4.00,-22.00,+2.00,+3.00,+9.00,-4.00,-62.00,-15.00,-16.00,-51.00,-4.00,-2.00,-8.00
-3.00,-24.00,-15.00,-2.00,-14.00,+29.00,-1.00,-1.00,+0.00,+35.00,+21.00,+8.00,-23.00,-1.00,+9.00,+4.00
-4.00,-6.00,+22.00,+0.00,+22.00,+10.00,+3.00,-2.00,+3.00,+30.00,-12.00,-11.00,-39.00,-14.00,-7.00,-2.00
-1.00,+35.00,-29.00,-2.00,+4.00,-1.00,-3.00,+2.00,+15.00,+1.00,+3.00,+6.00,+17.00,+4.00,-6.00,+6.00
-5.00,-44.00,+8.00,+0.00,+6.00,+0.00,+3.00,-2.00,-21.00,+1.00,+15.00,-5.00,-7.00,+5.00,+3.00,-8.00
+6.00,+18.00,+10.00,+1.00,+0.00,-9.00,+0.00,+1.00,+14.00,-32.00,-30.00,+4.00,+46.00,+5.00,-4.00,+6.00
-13.00,-25.00,-21.00,-4.00,-18.00,+1.00,+0.00,-5.00,-1.00,-3.00,-11.00,-5.00,-20.00,-2.00,+4.00,-5.00
+1.00,-22.00,-18.00,+1.00,+7.00,+14.00,+1.00,+3.00,-7.00,+43.00,+16.00,+2.00,+6.00,-4.00,-9.00,-4.00
-2.00,+2.00,+4.00,+0.00,+7.00,-19.00,+0.00,-2.00,-2.00,-31.00,-6.00,+4.00,+22.00,+8.00,+5.00,-2.00
+3.00,-5.00,+2.00,+0.00,-9.00,+22.00,+1.00,+1.00,+16.00,-76.00,-18.00,-2.00,+0.00,-4.00,+0.00,+3.00
+10.00,-8.00,+10.00,+1.00,-3.00,-14.00,+1.00,+3.00,+20.00,+118.00,+15.00,+7.00,-5.00,-1.00,+3.00,+0.00
-2.00,-30.00,-27.00,-7.00,+8.00,+2.00,+1.00,-3.00,-12.00,-61.00,-17.00,-7.00,+2.00,-2.00,-5.00,+1.00
-6.00,+40.00,-14.00,+0.00,-18.00,+7.00,-2.00,-3.00,+7.00,-4.00,+9.00,+6.00,+47.00,+6.00,-4.00,-6.00
-1.00,+56.00,+10.00,-3.00,+8.00,+19.00,+4.00,+3.00,-47.00,+50.00,+17.00,-1.00,-8.00,-2.00,-4.00,-6.00
+9.00,+59.00,+30.00,+13.00,-4.00,-38.00,+7.00,+9.00,+30.00,-41.00,-16.00,-10.00,-55.00,-9.00,-14.00,+7.00
-14.00,+15.00,+18.00,-1.00,-22.00,+9.00,+17.00,-3.00,+6.00,+74.00,+14.00,+11.00,+91.00,+6.00,+3.00,-2.00
-13.00,-86.00,-41.00,-7.00,+48.00,+19.00,-24.00,-12.00,-29.00,-80.00,-23.00,-21.00,-68.00,-13.00,+4.00,-7.00
-6.00,+10.00,-8.00,-4.00,-25.00,-7.00,-6.00,-6.00,+12.00,-25.00,-4.00,+29.00,+85.00,+25.00,+8.00,+18.00
-4.00,+16.00,-23.00,-7.00,-21.00,-46.00,+4.00,+9.00,-33.00,-42.00,-13.00,-25.00,-13.00,-16.00,-20.00,-17.00
-2.00,+14.00,+40.00,+5.00,+4.00,-18.00,+10.00,-4.00,-2.00,+8.00,+2.00,-8.00,-62.00,-7.00,-4.00,-1.00
+7.00,+25.00,+6.00,+6.00,+16.00,-11.00,+17.00,+5.00,-22.00,+28.00,+13.00,-4.00,-16.00,-3.00,+0.00,-4.00
+0.00,-16.00,-16.00,-3.00,+3.00,-13.00,+1.00,+6.00,+19.00,-27.00,-13.00,-1.00,+49.00,+2.00,-13.00,-6.00
-3.00,-7.00,-2.00,-1.00,+2.00,+5.00,-14.00,-9.00,+1.00,+12.00,+12.00,+6.00,-14.00,+2.00,+9.00,+3.00
+4.00,-35.00,-18.00,-3.00,+3.00,+26.00,-12.00,+1.00,-6.00,-48.00,-9.00,-1.00,+6.00,-1.00,-7.00,-2.00
-3.00,-18.00,+6.00,-4.00,-11.00,+14.00,+0.00,-5.00,+17.00,+32.00,-4.00,+8.00,+23.00,+10.00,+4.00,+6.00
+12.00,+75.00,+9.00,+3.00,-2.00,-15.00,+4.00,+3.00,-23.00,-58.00,+5.00,-9.00,-20.00,-12.00,+11.00,-12.00
-8.00,-8.00,-12.00,-2.00,-1.00,+27.00,+6.00,-1.00,-11.00,+48.00,-10.00,+2.00,+8.00,-12.00,+2.00,+4.00
+1.00,-45.00,+2.00,+1.00,+7.00,+4.00,-9.00,-3.00,-10.00,+38.00,-1.00,-10.00,-27.00,-4.00,-3.00,-14.00
+9.00,+5.00,-4.00,+0.00,-4.00,-13.00,+3.00,+3.00,+16.00,-17.00,+23.00,+12.00,+26.00,+9.00,+3.00,+8.00
+7.00,+54.00,+29.00,+3.00,-5.00,+0.00,+3.00,+1.00,-1.00,+16.00,-9.00,-5.00,-30.00,-5.00,-6.00,-11.00
+5.00,-18.00,-8.00,-3.00,+2.00,+2.00,-4.00,-2.00,-5.00,-41.00,-8.00,-9.00,-39.00,-11.00,+6.00,+2.00
-6.00,+0.00,-7.00,-7.00,+21.00,+6.00,-7.00,+2.00,-3.00,-40.00,-22.00,-6.00,+10.00,+2.00,+2.00,+9.00
-17.00,-2.00,-13.00,-7.00,-36.00,-44.00,-5.00,-7.00,-10.00,-37.00,-19.00,+4.00,+17.00,+7.00,-15.00,-3.00
-3.00,+17.00,-7.00,-2.00,-14.00,+18.00,-17.00,-6.00,+9.00,+37.00,+46.00,+8.00,+20.00,-15.00,+24.00,-12.00
+3.00,-36.00,-15.00,+3.00,+0.00,+6.00,-12.00,+4.00,-5.00,+50.00,+5.00,-2.00,+23.00,+23.00,-20.00,-8.00
-8.00,+1.00,+15.00,+1.00,-2.00,-27.00,+15.00,-8.00,-7.00,-9.00,-19.00,-12.00,-46.00,-15.00,-34.00,-8.00
+0.00,-1.00,+3.00,-4.00,-16.00,-38.00,+4.00,+1.00,+26.00,-4.00,-7.00,-7.00,-11.00,-46.00,+42.00,+3.00
-9.00,-41.00,-17.00,-5.00,+41.00,+82.00,-5.00,+2.00,-8.00,+33.00,-14.00,-19.00,-34.00,+51.00,+27.00,+11.00
+1.00,-4.00,-27.00,-4.00,-29.00,-74.00,-33.00,-17.00,-11.00,-96.00,-10.00,+4.00,-8.00,+0.00,-10.00,-3.00
+13.00,+109.00,+23.00,+3.00,-15.00,+12.00,+34.00,+22.00,+11.00,+89.00,+26.00,+17.00,+49.00,+11.00,+12.00,+4.00
+2.00,+15.00,+3.00,+6.00,+15.00,+17.00,+14.00,+7.00,-25.00,-45.00,-1.00,+1.00,-12.00,+2.00,-7.00,-13.00
+3.00,+12.00,+2.00,-1.00,-20.00,-18.00,-19.00,+14.00,+23.00,+76.00,-5.00,-12.00,-29.00,-14.00,-3.00,-3.00
-21.00,-82.00,-17.00,-5.00,+7.00,-2.00,+22.00,-1.00,+8.00,-1.00,+8.00,+4.00,+11.00,-12.00,-2.00,+5.00
-10.00,-20.00,-23.00,-5.00,+4.00,+8.00,-2.00,-7.00,+5.00,-26.00,-10.00,+3.00,+13.00,+11.00,-12.00,-2.00
+24.00,+84.00,+58.00,+6.00,-2.00,+3.00,+4.00,+10.00,+5.00,-11.00,-13.00,+0.00,+6.00,+0.00,-6.00,+1.00
-11.00,-65.00,-21.00,-1.00,+3.00,-13.00,+3.00,-5.00,-22.00,+32.00,+18.00,+5.00,-6.00,-13.00,-11.00,+3.00
+4.00,+9.00,+0.00,+0.00,+9.00,+31.00,+6.00,-1.00,+35.00,+39.00,+7.00,-4.00,-1.00,+9.00,+0.00,-5.00
-13.00,-65.00,-45.00,-11.00,-16.00,-23.00,-17.00,-12.00,-15.00,-111.00,-22.00,-1.00,-9.00,-13.00,+9.00,-1.00
+27.00,+92.00,+75.00,+19.00,+15.00,+23.00,+3.00,+15.00,+12.00,+51.00,+10.00,+1.00,+6.00,+8.00,-7.00,-9.00
-2.00,-35.00,-9.00,-5.00,-6.00,-15.00,-3.00,-11.00,+19.00,-49.00,-28.00,-1.00,-7.00,+5.00,-34.00,-2.00
+21.00,+18.00,+18.00,+3.00,+0.00,-1.00,+22.00,+11.00,-8.00,+47.00,+6.00,+3.00,-2.00,-30.00,+9.00,+2.00
-7.00,-23.00,-11.00,-4.00,+1.00,+3.00,-43.00,-17.00,+0.00,-30.00,+3.00,-4.00,+60.00,+1.00,+11.00,+1.00
-20.00,-55.00,-51.00,-14.00,+9.00,+10.00,+4.00,-5.00,-6.00,+80.00,+7.00,-13.00,-43.00,-9.00,-2.00,-3.00
-4.00,+15.00,+6.00,+4.00,-12.00,-29.00,-11.00,-3.00,-10.00,+24.00,+12.00,+1.00,-45.00,-12.00,-32.00,+2.00
-7.00,+27.00,+18.00,-1.00,+2.00,-9.00,+6.00,+3.00,+5.00,-1.00,-2.00,-6.00,-18.00,-30.00,-9.00,+0.00
-3.00,-37.00,-13.00,+0.00,-9.00,+6.00,-11.00,+0.00,-8.00,-8.00,-10.00,-7.00,-8.00,+10.00,-7.00,-6.00
-5.00,-3.00,-13.00,-5.00,-7.00,-3.00,-10.00,-11.00,+13.00,-14.00,+8.00,+6.00,+25.00,+18.00,+6.00,+5.00
-3.00,+14.00,+1.00,-3.00,+3.00,-12.00,+13.00,-6.00,-15.00,-28.00,-21.00,-6.00,+11.00,-7.00,+4.00,-8.00
+1.00,+18.00,+28.00,+0.00,+6.00,+30.00,-2.00,+9.00,-24.00,-14.00,+2.00,+6.00,+13.00,+3.00,+2.00,-4.00
+16.00,+15.00,+13.00,+6.00,+0.00,-7.00,-11.00,+4.00,-10.00,-22.00,-22.00,+3.00,+1.00,+2.00,+21.00,+5.00
-8.00,-28.00,-3.00,-6.00,-9.00,+7.00,-1.00,+0.00,+20.00,+10.00,+5.00,+3.00,-25.00,+7.00,-11.00,+13.00
-7.00,-23.00,-16.00,-3.00,+7.00,-5.00,+22.00,-2.00,-11.00,-22.00,+1.00,+1.00,-6.00,-15.00,-36.00,-7.00
-5.00,+18.00,-2.00,-2.00,+0.00,+15.00,+7.00,-12.00,-5.00,-69.00,-9.00,-1.00,+14.00,+16.00,+25.00,+2.00
-4.00,-5.00,+24.00,+4.00,+6.00,+7.00,-3.00,-2.00,+10.00,+108.00,+23.00,-8.00,-35.00,-5.00,-21.00,-13.00
+1.00,-27.00,-21.00,-3.00,-7.00,-17.00,-2.00,-3.00,+14.00,-2.00,-1.00,+3.00,+5.00,+11.00,+7.00,+7.00
+4.00,-50.00,-7.00,+0.00,-8.00,-14.00,+4.00,+3.00,-10.00,+21.00,+27.00,+7.00,+14.00,-21.00,-8.00,+5.00
+17.00,+66.00,+21.00,+6.00,+41.00,+44.00,-22.00,+3.00,-9.00,-76.00,-16.00,-4.00,-3.00,+14.00,+1.00,-1.00
+1.00,-5.00,-5.00,+6.00,-10.00,-15.00,+3.00,+0.00,+13.00,+74.00,-7.00,-8.00,-31.00,+3.00,+14.00,-3.00
-20.00,-116.00,-54.00,-11.00,-15.00,-1.00,-3.00,-5.00,-24.00,-71.00,-7.00,+1.00,+39.00,-12.00,-42.00,-2.00
-1.00,+46.00,+17.00,-3.00,+1.00,-26.00,-16.00,-16.00,+13.00,+7.00,-11.00,+1.00,+7.00,+8.00,+31.00,+9.00
-12.00,-78.00,+0.00,+1.00,-10.00,+2.00,+0.00,-6.00,-20.00,-44.00,+6.00,+7.00,+32.00,+5.00,-2.00,-9.00
+6.00,-6.00,+6.00,-4.00,-4.00,+41.00,+6.00,+1.00,+27.00,+79.00,+19.00,-6.00,-40.00,-14.00,+0.00,+2.00
+10.00,-19.00,-16.00,+11.00,+33.00,+5.00,-7.00,+6.00,+6.00,+38.00,-4.00,+7.00,+37.00,+3.00,+21.00,+2.00
+1.00,-26.00,-2.00,+1.00,-16.00,+2.00,-5.00,+9.00,-1.00,-18.00,-18.00,+4.00,+27.00,+15.00,-2.00,-3.00
-5.00,-5.00,+5.00,-7.00,-26.00,+1.00,+20.00,-1.00,+6.00,-26.00,-3.00,-21.00,-67.00,-16.00,-5.00,-1.00
+1.00,+70.00,+6.00,-6.00,+23.00,-25.00,-7.00,-1.00,-10.00,-66.00,-7.00,+0.00,+8.00,-5.00,-10.00,-5.00
-7.00,-20.00,-1.00,-3.00,-22.00,-36.00,+3.00,-6.00,-10.00,+27.00,+2.00,+1.00,+16.00,-2.00,-3.00,+2.00
+5.00,+12.00,+12.00,+2.00,+7.00,+15.00,-18.00,+2.00,+0.00,-51.00,-19.00,-7.00,-13.00,-3.00,+33.00,-1.00
-2.00,+9.00,-18.00,-3.00,+8.00,-13.00,-17.00,-9.00,+5.00,+45.00,+16.00,+12.00,+25.00,+11.00,-1.00,+2.00
-1.00,-26.00,+3.00,+4.00,-20.00,-9.00,+16.00,+11.00,-6.00,+2.00,+19.00,+0.00,-31.00,-4.00,-4.00,+4.00
-1.00,+51.00,+6.00,-2.00,+5.00,+5.00,-4.00,-2.00,+3.00,-3.00,-11.00,-7.00,-22.00,-1.00,+4.00,+5.00
-7.00,-46.00,+7.00,+3.00,+4.00,-10.00,+4.00,-4.00,-1.00,+25.00,+26.00,+3.00,-10.00,-4.00,-4.00,-1.00
+8.00,+52.00,+18.00,+1.00,+1.00,+4.00,-7.00,+5.00,+11.00,+34.00,-5.00,+3.00,+20.00,+11.00,+3.00,+2.00
-3.00,-55.00,-10.00,-2.00,+7.00,+1.00,-2.00,-5.00,-16.00,-40.00,-3.00,-1.00,+3.00,-4.00,-2.00,+0.00
+4.00,+54.00,-7.00,-3.00,-3.00,+5.00,-3.00,-1.00,-17.00,-29.00,-18.00,-2.00,-1.00,+1.00,-17.00,-11.00
-4.00,-41.00,-1.00,-4.00,-1.00,+0.00,+10.00,+0.00,+25.00,+14.00,+12.00,-4.00,-4.00,-5.00,-1.00,+7.00
-7.00,-35.00,+10.00,+3.00,-3.00,-6.00,-17.00,-1.00,+5.00,+32.00,+4.00,+2.00,+4.00,+2.00,+0.00,-2.00
+5.00,+44.00,+3.00,+1.00,+6.00,+5.00,+3.00,+3.00,+2.00,-89.00,-27.00,+8.00,+33.00,+1.00,-4.00,+8.00
-2.00,-2.00,+16.00,+1.00,-18.00,-3.00,+8.00,-3.00,-5.00,+66.00,+24.00,-8.00,-47.00,-26.00,-7.00,-5.00
+3.00,+5.00,-28.00,-2.00,+19.00,+34.00,-2.00,-3.00,-14.00,+16.00,-2.00,+7.00,-5.00,+23.00,+8.00,-5.00
+3.00,+14.00,-9.00,-2.00,-10.00,-2.00,+11.00,+5.00,-5.00,-18.00,-5.00,+0.00,+23.00,+10.00,+7.00,-7.00
-7.00,-1.00,+6.00,-2.00,-41.00,-42.00,-11.00,-9.00,-9.00,-31.00,-24.00,-16.00,-70.00,-19.00,-6.00,-4.00
-5.00,-8.00,+2.00,-3.00,+59.00,+52.00,-8.00,-2.00,+3.00,+6.00,+12.00,+6.00,+40.00,+6.00,-1.00,-2.00
+1.00,+0.00,-4.00,-3.00,-33.00,-25.00,+8.00,-2.00,+2.00,+18.00,-9.00,-17.00,-46.00,-10.00,-38.00,-1.00
-2.00,-14.00,-18.00,+1.00,+11.00,-4.00,+1.00,+2.00,+9.00,-32.00,-25.00,-8.00,+1.00,+0.00,+43.00,+6.00
-6.00,-3.00,+3.00,-1.00,-3.00,-7.00,+2.00,-9.00,-21.00,+60.00,+62.00,+24.00,+36.00,+6.00,+5.00,+1.00
+13.00,+26.00,+17.00,+2.00,-10.00,-4.00,-23.00,-1.00,-3.00,-16.00,-5.00,+1.00,+12.00,+9.00,-2.00,-2.00
-2.00,-19.00,-16.00,+1.00,+7.00,-4.00,+16.00,+3.00,+2.00,-3.00,-23.00,-8.00,-6.00,-3.00,-5.00,-5.00
-7.00,-27.00,-6.00,-3.00,+0.00,+2.00,+22.00,-8.00,+0.00,+59.00,+32.00,+11.00,+16.00,-4.00,-9.00,-1.00
+8.00,+53.00,+10.00,+5.00,+11.00,+20.00,-13.00,+10.00,+6.00,-44.00,-23.00,-8.00,-29.00,-6.00,-9.00,-4.00
-14.00,-12.00,+6.00,-2.00,+1.00,-14.00,-17.00,-8.00,+4.00,+32.00,+9.00,-4.00,-26.00,-14.00,+1.00,+6.00
-5.00,-6.00,+2.00,+0.00,-11.00,-11.00,-8.00,-14.00,-20.00,-51.00,-9.00,-1.00,+3.00,+11.00,+13.00,-11.00
-3.00,-3.00,-8.00,-2.00,-14.00,-12.00,-6.00,-3.00,-4.00,-1.00,-5.00,-1.00,+1.00,-2.00,-8.00,-4.00
-3.00,-15.00,-7.00,-1.00,+12.00,+2.00,-4.00,-1.00,+10.00,+20.00,-7.00,+1.00,+21.00,+8.00,+10.00,+14.00
-4.00,-27.00,-5.00,+0.00,-13.00,+0.00,+15.00,+5.00,-1.00,+20.00,+1.00,+0.00,-5.00,-2.00,-12.00,-8.00
-1.00,+17.00,-11.00,-2.00,+1.00,-4.00,-7.00,-6.00,+6.00,-41.00,-7.00,-2.00,+1.00,-12.00,-2.00,+1.00
-6.00,-42.00,+0.00,-2.00,+0.00,-11.00,-8.00,-4.00,-15.00,-25.00,-14.00,-1.00,+12.00,+0.00,-7.00,-1.00
-1.00,-37.00,+7.00,+1.00,+5.00,+11.00,+6.00,-1.00,-15.00,-12.00,+10.00,-2.00,-27.00,-1.00,-6.00,-6.00
+3.00,-24.00,-6.00,+3.00,-14.00,-11.00,+2.00,-3.00,-14.00,-12.00,-32.00,-9.00,+3.00,+7.00,+9.00,-3.00
+3.00,-17.00,-13.00,-3.00,+5.00,+7.00,+7.00,+6.00,+16.00,+77.00,+49.00,+10.00,+2.00,-2.00,+3.00,+6.00
+3.00,+31.00,+20.00,-2.00,+3.00,+18.00,-13.00,-7.00,-10.00,-17.00,+2.00,-6.00,-11.00,-2.00,-5.00,-6.00
+8.00,+15.00,+8.00,+2.00,+13.00,-13.00,+2.00,+7.00,+15.00,-12.00,-8.00,+20.00,+62.00,+14.00,+4.00,+6.00
-7.00,-8.00,+6.00,+0.00,-18.00,-16.00,+8.00,-1.00,-11.00,-55.00,-19.00,-15.00,-4.00,+5.00,-4.00,-5.00
-3.00,+6.00,+13.00,-1.00,+10.00,+33.00,+0.00,-2.00,-4.00,+1.00,-6.00,-10.00,-31.00,-15.00,+16.00,-1.00
-2.00,-5.00,-33.00,-4.00,+4.00,-12.00,-3.00,+7.00,+6.00,+49.00,+21.00,+0.00,-36.00,-6.00,-16.00,+5.00
-3.00,-16.00,-25.00,-3.00,+5.00,+15.00,+1.00,-4.00,-3.00,-12.00,-1.00,+4.00,+15.00,+10.00,-1.00,-9.00
+9.00,+30.00,+25.00,+2.00,-17.00,-21.00,+3.00,+3.00,-10.00,+5.00,+8.00,+0.00,+11.00,+0.00,+10.00,+7.00
+5.00,-18.00,-13.00,+1.00,-11.00,+36.00,-18.00,+9.00,-2.00,-42.00,-15.00,+4.00,+77.00,+4.00,-7.00,+0.00
-2.00,+19.00,+4.00,-1.00,-6.00,-36.00,-9.00,-6.00,+22.00,+46.00,+5.00,+1.00,-18.00,-5.00,-1.00,+2.00
-8.00,-23.00,-11.00,-2.00,+7.00,-13.00,+15.00,-9.00,-6.00,-48.00,-21.00,-14.00,-15.00,+1.00,+10.00,-2.00
+3.00,+38.00,-14.00,-4.00,-10.00,+1.00,-11.00,-1.00,+8.00,+22.00,+25.00,+9.00,-14.00,+6.00,-4.00,+4.00
+0.00,+15.00,+36.00,+2.00,+7.00,-16.00,+1.00,+2.00,-10.00,+12.00,-11.00,-11.00,-42.00,-7.00,-4.00,-1.00
+1.00,-7.00,-1.00,+0.00,+2.00,+14.00,+8.00,+5.00,-13.00,-59.00,-14.00,-1.00,+19.00,+1.00,-1.00,-2.00
-1.00,+11.00,-1.00,-2.00,-3.00,-12.00,-9.00,-4.00,+25.00,+60.00,-6.00,+0.00,+13.00,+0.00,+1.00,+4.00
-9.00,-5.00,+2.00,-3.00,+3.00,+21.00,+6.00,+7.00,-15.00,-4.00,+17.00,+0.00,-11.00,-2.00,-4.00,-11.00
+5.00,+9.00,-2.00,+4.00,+2.00,-16.00,+3.00,+1.00,-11.00,-22.00,-6.00,+2.00,+6.00,-2.00,-2.00,-2.00
-5.00,+14.00,-30.00,-6.00,-5.00,-10.00,-11.00,-6.00,+15.00,+34.00,-1.00,+0.00,-1.00,+4.00,+6.00,+6.00
+1.00,-67.00,+16.00,+2.00,+1.00,+13.00,+7.00,+6.00,-37.00,-80.00,-12.00,-7.00,-20.00,-10.00,-10.00,-10.00
+12.00,+63.00,+19.00,+7.00,+3.00,+8.00,+4.00,+0.00,+19.00,+31.00,+20.00,+8.00,+8.00,+3.00,+4.00,+4.00
-7.00,+26.00,+17.00,-4.00,+4.00,-8.00,-2.00,-2.00,-17.00,-101.00,-33.00,-5.00,+0.00,+0.00,+0.00,-3.00
+9.00,-7.00,+11.00,+2.00,+1.00,+4.00,+4.00,+4.00,+26.00,+58.00,+21.00,+6.00,+7.00,+3.00,-4.00,+7.00
-3.00,-55.00,-37.00,-2.00,-2.00,+3.00,+2.00,-2.00,+7.00,+18.00,+19.00,+0.00,+4.00,-4.00,-3.00,-7.00
-7.00,-17.00,+15.00,-2.00,+2.00,+4.00,+2.00,-4.00,-9.00,-61.00,-5.00,+4.00,-2.00,+4.00,+5.00,+8.00
+5.00,+57.00,+15.00,+7.00,+14.00,-6.00,+4.00,+4.00,-13.00,+4.00,-20.00,-2.00,+24.00,+1.00,-3.00,-6.00
-9.00,-12.00,-8.00,-5.00,-14.00,+3.00,-7.00,-1.00,+4.00,-49.00,-10.00,-8.00,-30.00,-8.00,-7.00,+1.00
-8.00,+22.00,+0.00,-4.00,-4.00,-9.00,-5.00,-7.00,-8.00,+58.00,+7.00,+2.00,+20.00,-3.00,-3.00,+0.00
-4.00,-71.00,-57.00,-9.00,+4.00,+3.00,-6.00,-4.00,-10.00,-95.00,-33.00,-2.00,-8.00,+6.00,+4.00,-2.00
+16.00,+68.00,+79.00,+16.00,-3.00,-35.00,+17.00,+12.00,+50.00,+119.00,+13.00,-2.00,-48.00,-6.00,+0.00,+6.00
-14.00,-100.00,-8.00,-4.00,+10.00,+8.00,+3.00,-8.00,-12.00,-7.00,-5.00,-1.00,+10.00,+4.00,+3.00,-5.00
+25.00,+112.00,+44.00,+11.00,+6.00,+10.00,+2.00,+10.00,+4.00,-51.00,+10.00,-6.00,+7.00,-9.00,-4.00,+2.00
-34.00,-54.00,-78.00,-20.00,-7.00,-11.00,-9.00,-14.00,+1.00,-9.00,-7.00,-3.00,-3.00,+0.00,-7.00,+0.00
-14.00,+70.00,-2.00,-16.00,-7.00,+4.00,-5.00,-14.00,+3.00,+84.00,-41.00,-8.00,+8.00,+1.00,+0.00,-5.00
+42.00,-76.00,-29.00,+19.00,+3.00,+6.00,+12.00,+23.00,-26.00,-89.00,+44.00,+23.00,+22.00,+9.00,+8.00,+7.00
+21.00,+46.00,+90.00,+27.00,+14.00,+7.00,+11.00,+16.00,+1.00,+35.00,+10.00,+2.00,-22.00,+6.00,-1.00,-3.00
+15.00,+103.00,+7.00,+1.00,+5.00,+9.00,-5.00,+7.00,-13.00,-26.00,-13.00,-1.00,+17.00,-21.00,-36.00,-2.00
-15.00,-48.00,-47.00,-9.00,-11.00,-9.00,-10.00,-7.00,-15.00,-70.00,+1.00,-1.00,-9.00,-8.00,+36.00,-3.00
-15.00,+48.00,-3.00,-8.00,+0.00,+3.00,-1.00,-11.00,+9.00,+34.00,-3.00,-6.00,+18.00,-6.00,-18.00,+1.00
-19.00,-55.00,-41.00,-12.00,-12.00,+6.00,-10.00,-13.00,+17.00,+52.00,-22.00,-5.00,-17.00,+9.00,+4.00,-2.00
-6.00,-12.00,+9.00,+3.00,-4.00,-8.00,+5.00,-1.00,-13.00,-38.00,-1.00,-1.00,-3.00,-16.00,-9.00,-8.00
+8.00,-52.00,-45.00,-5.00,+2.00,+19.00,-10.00,+3.00,+4.00,+11.00,+23.00,+8.00,+33.00,-4.00,-17.00,+3.00
-6.00,-61.00,-6.00,-2.00,-2.00,+5.00,-1.00,+2.00,-1.00,-54.00,-36.00,-19.00,-45.00,-2.00,+1.00,-10.00
-9.00,+40.00,-9.00,-5.00,-3.00,-16.00,+9.00,-5.00,-23.00,-7.00,-20.00,-5.00,+0.00,-1.00,+3.00,-11.00
+15.00,+72.00,+44.00,+7.00,-1.00,-4.00,+12.00,+6.00,+29.00,+64.00,+24.00,+4.00,-2.00,-1.00,+8.00,+7.00
-1.00,-68.00,+25.00,+3.00,+9.00,-3.00,-12.00,-5.00,-9.00,-44.00,+14.00,+6.00,+8.00,+5.00,-4.00,-2.00
-9.00,-52.00,+17.00,+2.00,-8.00,+9.00,-2.00,-8.00,-18.00,+1.00,-15.00,-7.00,+2.00,+1.00,-1.00,-11.00
+0.00,-11.00,-13.00,-13.00,-9.00,-8.00,-4.00,+6.00,+23.00,-28.00,-15.00,-6.00,+1.00,-1.00,-2.00,+9.00
-21.00,-31.00,-26.00,-9.00,-5.00,-8.00,-8.00,-10.00,-4.00,-27.00,+21.00,+4.00,-3.00,-7.00,-9.00,-10.00
+34.00,+31.00,+40.00,+11.00,+4.00,+5.00,+6.00,+7.00,+16.00,+87.00,+7.00,+1.00,+0.00,+6.00,+4.00,+7.00
+3.00,+28.00,+14.00,+7.00,+6.00,+4.00,+4.00,+19.00,-24.00,+2.00,+10.00,+2.00,+3.00,+7.00,-4.00,+0.00
+0.00,-25.00,+18.00,-8.00,-6.00,-4.00,-11.00,+1.00,+15.00,+28.00,+6.00,+5.00,+31.00,+8.00,-20.00,+6.00
+13.00,-85.00,+8.00,+9.00,+8.00,+13.00,+8.00,+1.00,-2.00,+39.00,-11.00,-5.00,-22.00,-11.00,+62.00,+1.00
-8.00,-33.00,-22.00,-4.00,-3.00,-3.00,-5.00,+11.00,-17.00,-32.00,+12.00,-1.00,-3.00,-2.00,-11.00,-4.00
-6.00,-13.00,-4.00,-9.00,-4.00,-3.00,+1.00,-8.00,+2.00,-34.00,-3.00,-2.00,-18.00,-7.00,-6.00,+2.00
-12.00,+25.00,-16.00,-3.00,-2.00,-20.00,-14.00,-13.00,+29.00,+22.00,-11.00,-3.00,-1.00,-10.00,+7.00,+5.00
-17.00,-24.00,-14.00,-10.00,+0.00,+3.00,-3.00,-5.00,-55.00,-66.00,-11.00,-3.00,+4.00,+23.00,-4.00,-8.00
-9.00,-32.00,+22.00,+4.00,-3.00,-1.00,-7.00,-4.00,+28.00,+15.00,-7.00,-4.00,-14.00,-4.00,-6.00,-7.00
+27.00,+35.00,+7.00,+8.00,+6.00,+1.00,+36.00,+10.00,-4.00,-72.00,-20.00,+3.00,+21.00,-1.00,+12.00,-2.00
+14.00,+90.00,+61.00,+13.00,+9.00,+8.00,+2.00,+9.00,-11.00,+69.00,+40.00,+6.00,+6.00,+7.00,-6.00,-8.00
+1.00,-47.00,-9.00,-4.00,-16.00,+10.00,-12.00,-3.00,+4.00,-34.00,-5.00,-1.00,+2.00,+14.00,+4.00,+9.00
+0.00,+20.00,-29.00,-5.00,+8.00,-19.00,+11.00,-2.00,-7.00,+8.00,-18.00,-9.00,+4.00,-24.00,-20.00,-8.00
-16.00,+5.00,-4.00,-6.00,-13.00,-44.00,-3.00,-2.00,-19.00,-14.00,-15.00,-3.00,+0.00,+11.00,-1.00,-1.00
-5.00,+12.00,-17.00,-6.00,+2.00,+4.00,-7.00,-20.00,+3.00,-4.00,+11.00,-5.00,-13.00,-17.00,-12.00,-2.00
+3.00,-25.00,-10.00,-4.00,-4.00,-4.00,+2.00,+4.00,+56.00,+65.00,+21.00,+7.00,+30.00,+17.00,+7.00,+7.00
+9.00,-37.00,+34.00,+12.00,+2.00,+10.00,-9.00,+6.00,-52.00,-128.00,-14.00,+1.00,-29.00,-3.00,-29.00,-7.00
+0.00,+52.00,+5.00,-6.00,+2.00,+10.00,+5.00,+6.00,+22.00,+80.00,+26.00,+0.00,+2.00,+0.00,+14.00,+1.00
-8.00,-35.00,-54.00,-7.00,-4.00,+7.00,+8.00,-3.00,-13.00,-60.00,-20.00,-2.00,-8.00,-16.00,+0.00,+2.00
-8.00,-70.00,-14.00,+7.00,+4.00,-13.00,-4.00,-3.00,-37.00,+26.00,-16.00,-7.00,+2.00,-5.00,-4.00,-9.00
-25.00,+54.00,+1.00,-13.00,-7.00,-7.00,-9.00,-12.00,+66.00,+125.00,+16.00,-2.00,+0.00,+4.00,-7.00,+9.00
-22.00,-8.00,-35.00,-14.00,-5.00,-1.00,-14.00,-20.00,-81.00,-128.00,-7.00,+6.00,+0.00,-9.00,-12.00,-10.00
+37.00,-51.00,+49.00,+19.00,+8.00,+12.00,+9.00,+17.00,-3.00,-9.00,-39.00,-10.00,-10.00,-2.00,+8.00,-1.00
-17.00,-74.00,-19.00,-6.00,-7.00,-6.00,-1.00,-3.00,+29.00,+77.00,+58.00,+14.00,+5.00,+0.00,-13.00,-10.00
+31.00,+58.00,+32.00,+16.00,+7.00,+7.00,+16.00,+18.00,+11.00,+6.00,-9.00,-4.00,-2.00,+13.00,+12.00,+12.00
-11.00,-35.00,-6.00,-3.00,-4.00,-1.00,-10.00,-8.00,+25.00,+12.00,-2.00,-4.00,-3.00,-23.00,-7.00,-5.00
-47.00,-18.00,-53.00,-23.00,-10.00,-7.00,-22.00,-20.00,-14.00,+39.00,-21.00,-8.00,+6.00,+0.00,+8.00,-2.00
+12.00,-76.00,-31.00,-9.00,-4.00,-1.00,+1.00,+4.00,-41.00,-95.00,+9.00,+8.00,-1.00,+4.00,-5.00,-9.00
+3.00,-58.00,-7.00,+12.00,+6.00,+2.00,+10.00,+0.00,-18.00,-21.00,-9.00,-3.00,-7.00,-2.00,+5.00,+2.00
-14.00,-28.00,-17.00,-8.00,+2.00,-6.00,-13.00,-5.00,+66.00,+123.00,+30.00,+7.00,+16.00,+6.00,+3.00,-1.00
+7.00,-35.00,-37.00,+5.00,-5.00,+1.00,-9.00,+5.00,-41.00,-46.00,+10.00,+11.00,+24.00,+13.00,-2.00,-5.00
+25.00,+53.00,+50.00,+5.00,-8.00,+21.00,+14.00,+4.00,+59.00,+116.00,-8.00,-11.00,-39.00,-18.00,-10.00,+1.00
-23.00,-30.00,-18.00,-7.00,+8.00,-19.00,-11.00,-9.00,-17.00,-87.00,+5.00,-4.00,-32.00,-2.00,+4.00,-7.00
+14.00,+92.00,+0.00,+3.00,+5.00,-9.00,+3.00,-14.00,-30.00,+76.00,-7.00,-11.00,-4.00,-4.00,-7.00,+2.00
-26.00,-50.00,-48.00,-22.00,-10.00,-11.00,+0.00,+1.00,+58.00,+46.00,-18.00,-2.00,+2.00,+12.00,+8.00,+10.00
-14.00,-29.00,+8.00,+1.00,+2.00,-5.00,-8.00,+1.00,-57.00,+98.00,+17.00,+2.00,+7.00,+4.00,-16.00,-11.00
+41.00,+17.00,+5.00,+11.00,+9.00,+22.00,+15.00,+11.00,+22.00,-87.00,-8.00,+6.00,+16.00,-5.00,-1.00,+6.00
-9.00,-44.00,+29.00,-1.00,-12.00,+3.00,-4.00,-7.00,+19.00,+126.00,+35.00,+1.00,-3.00,+8.00,-4.00,+3.00
+15.00,+11.00,-30.00,+8.00,+12.00,+10.00,+7.00,+15.00,+10.00,-80.00,-4.00,-3.00,+0.00,-5.00,+2.00,+8.00
-36.00,-2.00,+18.00,-9.00,-10.00,-18.00,-7.00,-14.00,+27.00,+16.00,-61.00,-23.00,-8.00,+0.00,-3.00,+3.00
-40.00,-35.00,+18.00,-29.00,-23.00,-14.00,-10.00,-25.00,-14.00,+100.00,+3.00,-5.00,+0.00,-5.00,-2.00,-3.00
+39.00,+86.00,-44.00,+24.00,+13.00,+11.00,+4.00,+19.00,-35.00,-89.00,-3.00,+1.00,-6.00,-6.00,-2.00,-17.00
-11.00,-71.00,+1.00,-1.00,-2.00,+4.00,+2.00,-4.00,+12.00,+57.00,+54.00,+13.00,+1.00,+3.00,-4.00,+13.00
+28.00,+123.00,+42.00,+14.00,+12.00,+3.00,+5.00,+11.00,+17.00,-31.00,-26.00,-5.00,-2.00,-6.00,-3.00,-12.00
-20.00,-75.00,-48.00,-6.00,-3.00,+1.00,-1.00,-8.00,-5.00,+54.00,+22.00,+0.00,-1.00,-5.00,+1.00,+2.00
-20.00,+16.00,+40.00,-15.00,-9.00,-3.00,-13.00,-12.00,+23.00,+44.00,+11.00,-7.00,-5.00,-5.00,-3.00,-1.00
-20.00,-63.00,-17.00,-17.00,-13.00,-9.00,-4.00,-15.00,+24.00,-5.00,+12.00,+12.00,+1.00,+2.00,+4.00,-2.00
+15.00,-70.00,-27.00,+10.00,+14.00,+8.00,+4.00,+5.00,-30.00,-90.00,-71.00,-20.00,-8.00,-7.00,+0.00,+3.00
-3.00,+12.00,+0.00,-13.00,-13.00,-10.00,-9.00,-3.00,-44.00,+127.00,+70.00,+16.00,+20.00,+7.00,+7.00,-12.00
+11.00,-105.00,-37.00,+3.00,-2.00,+4.00,+1.00,+8.00,+11.00,+55.00,-11.00,-3.00,-18.00,+5.00,+2.00,+8.00
+7.00,+97.00,+65.00,+9.00,+9.00,+2.00,+3.00,+3.00,-9.00,-47.00,-3.00,-3.00,-11.00,-10.00,-6.00,-5.00
-5.00,+96.00,+17.00,-6.00,-5.00,+10.00,+2.00,-3.00,+39.00,+17.00,+11.00,+9.00,+27.00,+10.00,+3.00,-5.00
-14.00,-109.00,-123.00,-18.00,-4.00,+14.00,-11.00,-12.00,-50.00,-128.00,-33.00,+6.00,-5.00,+4.00,+3.00,+0.00
+35.00,+49.00,+88.00,+43.00,+16.00,+0.00,+38.00,+29.00,-17.00,-11.00,-13.00,-26.00,-47.00,-13.00,-5.00,-8.00
+15.00,+31.00,-4.00,+2.00,+7.00,-26.00,+7.00,-2.00,-48.00,-44.00,-37.00,-22.00,-26.00,-13.00,-11.00,-12.00
-26.00,+84.00,-61.00,-24.00,-17.00,-16.00,-16.00,-18.00,-1.00,+99.00,+67.00,+5.00,-5.00,+5.00,+6.00,+11.00
+11.00,+31.00,+98.00,-7.00,-3.00,-5.00,+10.00,-10.00,-67.00,-121.00,-58.00,+12.00,+42.00,+15.00,+16.00,-1.00
+60.00,+74.00,+29.00,+31.00,+25.00,+40.00,+5.00,+37.00,+38.00,+40.00,+22.00,+23.00,+43.00,+7.00,+5.00,+3.00
+21.00,+66.00,+69.00,+14.00,-4.00,+37.00,+3.00,+10.00,-31.00,+98.00,+45.00,+24.00,+28.00,+10.00,+6.00,-6.00
+8.00,-22.00,-20.00,+1.00,-1.00,-63.00,+6.00,+6.00,-24.00,-111.00,-67.00,-42.00,-84.00,-23.00,-12.00,-7.00
-42.00,+32.00,-25.00,-21.00,-11.00,+16.00,-13.00,-21.00,+50.00,-74.00,-3.00,-10.00,-17.00,-11.00,-5.00,+3.00
-26.00,-52.00,+58.00,-30.00,-13.00,-4.00,-17.00,-20.00,-20.00,-4.00,-48.00,-15.00,-8.00,-4.00,+3.00,+2.00
+17.00,-84.00,-30.00,+22.00,+9.00,+5.00,+10.00,+14.00,-18.00,-100.00,+41.00,+21.00,+25.00,+11.00,+3.00,-11.00
+60.00,+35.00,+74.00,+42.00,+21.00,+33.00,+10.00,+32.00,-3.00,+62.00,-10.00,+10.00,+30.00,+3.00,+5.00,+9.00
+3.00,+75.00,-29.00,+0.00,-6.00,-6.00,+1.00,+4.00,+127.00,+127.00,-54.00,-27.00,-31.00,-14.00,-13.00,+2.00
-70.00,+39.00,+47.00,-39.00,-25.00,-37.00,-30.00,-44.00,-53.00,-26.00,+39.00,+19.00,+44.00,+15.00,+6.00,-8.00
+52.00,-62.00,-119.00,+30.00,+6.00,+27.00,+16.00,+38.00,+16.00,+127.00,+20.00,+5.00,-19.00,-1.00,+4.00,+16.00
-34.00,-47.00,+22.00,-8.00,+12.00,-13.00,-3.00,-15.00,-30.00,-111.00,-15.00,+6.00,-20.00,-3.00,+2.00,-5.00
+41.00,-24.00,+29.00,+32.00,+17.00,+1.00,+9.00,+18.00,+16.00,+82.00,+1.00,-10.00,-14.00,-3.00,+2.00,+6.00
-10.00,+97.00,+9.00,-9.00,+2.00,+8.00,-1.00,+8.00,+49.00,+98.00,-35.00,-12.00,+3.00,-3.00,-8.00,+4.00
-41.00,-38.00,-78.00,-30.00,-23.00,-27.00,-16.00,-30.00,-48.00,-110.00,-47.00,+8.00,+94.00,+12.00,-3.00,-27.00
+18.00,+7.00,+34.00,+8.00,-20.00,+32.00,+2.00,+9.00,-12.00,-3.00,+49.00,+10.00,-30.00,-3.00,+2.00,+12.00
-2.00,-4.00,-42.00,-1.00,+19.00,+32.00,+1.00,+1.00,+51.00,+42.00,+12.00,-1.00,+37.00,+6.00,+1.00,+1.00
-21.00,-128.00,-38.00,-11.00,-23.00,-73.00,-16.00,-18.00,-16.00,-85.00,-13.00,-23.00,-76.00,-32.00,-13.00,+0.00
-16.00,-102.00,-29.00,-11.00,+19.00,+26.00,-18.00,-8.00,-63.00,+96.00,+36.00,-34.00,-62.00,-28.00,-17.00,-11.00
-17.00,+82.00,-31.00,-42.00,-11.00,-25.00,-17.00,-22.00,+60.00,-77.00,-72.00,+4.00,+28.00,+12.00,+15.00,+13.00
+27.00,-28.00,-51.00,+31.00,+12.00,+15.00,+16.00,+24.00,-38.00,-18.00,+18.00,+10.00,+32.00,+15.00,+1.00,-17.00
+18.00,+60.00,-15.00,+7.00,+0.00,+31.00,+4.00,+13.00,+43.00,+85.00,-42.00,-1.00,+3.00,-3.00,-7.00,-6.00
-54.00,+3.00,-24.00,-39.00,-28.00,-25.00,-14.00,-30.00,-19.00,+57.00,+47.00,-1.00,-7.00,-5.00,-3.00,-4.00
+1.00,-23.00,-128.00,-12.00,+5.00,+15.00,+2.00,-4.00,+27.00,+120.00,+42.00,-3.00,+25.00,+1.00,-2.00,+2.00
-28.00,-84.00,+63.00,-10.00,-20.00,-22.00,-10.00,-9.00,-23.00,-33.00,+25.00,+13.00,-1.00,+4.00,+5.00,-4.00
+51.00,+28.00,-50.00,+26.00,+19.00,+15.00,+10.00,+17.00,-9.00,+16.00,+4.00,+4.00,+8.00,+1.00,+0.00,-2.00
-12.00,+127.00,+116.00,-21.00,-13.00,-18.00,-4.00,-12.00,+15.00,+68.00,-32.00,-11.00,-26.00,-7.00,-4.00,+3.00
-25.00,-85.00,-73.00,+3.00,+2.00,+2.00,-5.00,-11.00,+44.00,+94.00,-13.00,-3.00,+12.00,-4.00,-5.00,+1.00
-1.00,+85.00,+56.00,-15.00,-14.00,-19.00,-4.00,-7.00,-100.00,-79.00,+34.00,+4.00,-12.00,+0.00,+7.00,+4.00
+13.00,+25.00,+14.00,+16.00,+12.00,+7.00,+9.00,+33.00,+17.00,-114.00,+24.00,+13.00,+5.00,+3.00,-5.00,-16.00
+8.00,-32.00,+50.00,+11.00,+9.00,+8.00,+3.00,+2.00,+18.00,-69.00,-45.00,-15.00,-12.00,-4.00,-1.00,+6.00
-2.00,-64.00,+89.00,-8.00,-10.00,-7.00,-5.00,-3.00,+21.00,+102.00,+68.00,+6.00,-3.00,-4.00,-4.00,-5.00
-19.00,-31.00,-128.00,-17.00,-1.00,-8.00,-4.00,-5.00,+3.00,+60.00,-37.00,-2.00,-9.00,+1.00,+1.00,+5.00
+3.00,+53.00,+35.00,+15.00,+7.00,+11.00,+2.00,-5.00,-3.00,-78.00,-12.00,+6.00,+43.00,+10.00,+7.00,+10.00
+31.00,-50.00,+29.00,+11.00,+2.00,+1.00,+7.00,+15.00,+9.00,-91.00,-11.00,+4.00,+5.00,+0.00,+0.00,-6.00
+29.00,+80.00,+61.00,+19.00,+13.00,+14.00,+6.00,+15.00,+5.00,+86.00,+38.00,-5.00,-3.00,-5.00,-8.00,-10.00
-33.00,-16.00,-22.00,-24.00,-14.00,-10.00,-9.00,-18.00,+18.00,+55.00,-46.00,-21.00,-24.00,-12.00,-5.00,-4.00
-28.00,-12.00,-46.00,-15.00,-6.00,-6.00,-4.00,-11.00,+70.00,+80.00,+4.00,-9.00,-24.00,-1.00,+1.00,+14.00
+13.00,+15.00,-19.00,+8.00,+4.00,-9.00,+1.00,+0.00,-6.00,+127.00,+65.00,+9.00,-2.00,+2.00,+4.00,+14.00
-7.00,-58.00,-31.00,+4.00,+3.00,-3.00,+1.00,-6.00,-50.00,-128.00,-36.00,-7.00,+3.00,-5.00,-8.00,-29.00
+13.00,-55.00,-36.00,+2.00,-3.00,+2.00,-2.00,+13.00,+81.00,+46.00,+30.00,+9.00,+16.00,+5.00,+5.00,+19.00
+10.00,-83.00,-59.00,+15.00,+11.00,+12.00,+0.00,-5.00,-34.00,-12.00,-33.00,-8.00,-3.00,-6.00,-9.00,-5.00
-53.00,-34.00,-39.00,-31.00,-19.00,-12.00,-11.00,-21.00,-2.00,-73.00,-32.00,+13.00,-1.00,+2.00,+4.00,-1.00
+16.00,-57.00,-17.00,+3.00,+6.00,+3.00,+0.00,+1.00,+4.00,+44.00,+5.00,-9.00,-5.00,-2.00,-3.00,+2.00
-11.00,+46.00,+39.00,-8.00,-7.00,-12.00,-4.00,-8.00,+9.00,+102.00,+25.00,+6.00,+1.00,+3.00,+1.00,-2.00
+6.00,-128.00,-106.00,+1.00,+3.00,+5.00,+5.00,+13.00,-7.00,-78.00,-28.00,-10.00,-8.00,-8.00,-4.00,+0.00
-54.00,+85.00,-4.00,-19.00,-14.00,-15.00,-14.00,-27.00,-39.00,-106.00,+62.00,+15.00,+0.00,+4.00,-1.00,-11.00
+57.00,-37.00,+0.00,+16.00,+16.00,+12.00,+15.00,+33.00,-60.00,-16.00,-32.00,+30.00,+29.00,+17.00,+14.00,+9.00
+53.00,+1.00,+67.00,+68.00,+30.00,+16.00,+18.00,+26.00,+10.00,+1.00,-74.00,-21.00,-12.00,-10.00,-7.00,+6.00
-53.00,-75.00,-5.00,-38.00,-23.00,-14.00,-18.00,-28.00,-51.00,-64.00,+40.00,+12.00,+8.00,+9.00,+8.00,-6.00
+80.00,+15.00,+21.00,+21.00,+18.00,+18.00,+25.00,+42.00,+10.00,+17.00,+10.00,+6.00,+2.00,+1.00,-3.00,-3.00
-29.00,+15.00,+38.00,+10.00,+2.00,+2.00,-6.00,-11.00,+11.00,+36.00,+18.00,-11.00,-9.00,-9.00,-4.00,+10.00
-12.00,+78.00,+69.00,-18.00,-15.00,-17.00,-7.00,-10.00,-13.00,+52.00,+73.00,+19.00,+8.00,+3.00,-5.00,-18.00
+34.00,-86.00,+44.00,+25.00,+19.00,+14.00,+13.00,+17.00,+26.00,-18.00,+13.00,+7.00,+2.00,+2.00,+1.00,+17.00
-54.00,-92.00,+60.00,-11.00,-6.00,-3.00,-12.00,-25.00,+33.00,+47.00,-32.00,+0.00,+0.00,+7.00,+14.00,+19.00
+58.00,-63.00,+3.00,+18.00,+9.00,+6.00,+13.00,+26.00,+3.00,-128.00,-95.00,-11.00,+2.00,+1.00,+2.00,+4.00
-10.00,-115.00,-34.00,-2.00,-2.00,-4.00,-1.00,-4.00,-15.00,-118.00,+4.00,-8.00,-10.00,-8.00,-11.00,-17.00
-41.00,+1.00,-25.00,-10.00,-10.00,-7.00,-13.00,-25.00,-17.00,+19.00,-16.00,-3.00,+5.00,+3.00,+3.00,-4.00
+58.00,+61.00,+22.00,+22.00,+13.00,+5.00,+11.00,+23.00,-30.00,+68.00,+79.00,+41.00,+13.00,+8.00,+4.00,-2.00
+9.00,-90.00,+126.00,+27.00,+20.00,+11.00,+5.00,+9.00,+33.00,+11.00,-44.00,-42.00,-26.00,-25.00,-23.00,-14.00
-85.00,-37.00,-77.00,-68.00,-45.00,-34.00,-29.00,-51.00,-79.00,-84.00,+21.00,+31.00,+27.00,+24.00,+25.00,+22.00
+103.00,+11.00,+34.00,+82.00,+42.00,+34.00,+36.00,+63.00,+3.00,+30.00,+2.00,-4.00,+1.00,+2.00,+2.00,+23.00
-14.00,+27.00,+49.00,-5.00,-1.00,+0.00,-7.00,-12.00,+37.00,+55.00,-43.00,-36.00,-21.00,-13.00,-9.00,-5.00
-57.00,-25.00,-40.00,-44.00,-29.00,-18.00,-16.00,-27.00,-59.00,-123.00,-63.00,-20.00,-10.00,-8.00,-9.00,-5.00
-32.00,+8.00,-7.00,-11.00,-12.00,-9.00,-10.00,-16.00,+13.00,-33.00,+77.00,-1.00,-16.00,-18.00,-20.00,-16.00
-128.00,+14.00,+33.00,-48.00,-26.00,-25.00,-29.00,-40.00,+65.00,+116.00,-41.00,+10.00,+21.00,+20.00,+26.00,+28.00
+111.00,-38.00,-21.00,+57.00,+34.00,+27.00,+37.00,+73.00,+74.00,+89.00,-78.00,-20.00,-10.00,-7.00,-6.00,+4.00
-60.00,-71.00,-63.00,-19.00,-13.00,-8.00,-15.00,-24.00,+81.00,+127.00,+30.00,-26.00,-26.00,-25.00,-23.00,+1.00
-98.00,-128.00,-85.00,-102.00,-54.00,-39.00,-44.00,-81.00,-6.00,+17.00,-4.00,+21.00,+10.00,+9.00,+5.00,-11.00
+41.00,+29.00,-57.00,+51.00,+23.00,+14.00,+16.00,+21.00,+16.00,+57.00,-65.00,-29.00,-11.00,-6.00,+4.00,+12.00
-20.00,-81.00,-106.00,-2.00,-4.00,-3.00,-2.00,-5.00,-33.00,-128.00,-79.00,-30.00,-18.00,-14.00,-15.00,-6.00
-88.00,-88.00,-73.00,-46.00,-28.00,-20.00,-22.00,-39.00,-79.00,-83.00,+44.00,+39.00,+29.00,+23.00,+21.00,+2.00
+100.00,+76.00,+91.00,+76.00,+45.00,+32.00,+39.00,+66.00,-34.00,+29.00,-13.00,+1.00,-9.00,-10.00,-11.00,+4.00
-47.00,-42.00,-108.00,-39.00,-18.00,-15.00,-22.00,-42.00,-59.00,-19.00,+76.00,+16.00,+4.00,+4.00,-1.00,-33.00
+50.00,+23.00,+55.00,+31.00,+13.00,+9.00,+13.00,+30.00,-5.00,-11.00,+1.00,-2.00,+1.00,+3.00,+1.00,+8.00
-9.00,+26.00,-52.00,+2.00,+2.00,+2.00,+0.00,-3.00,+42.00,+82.00,-50.00,-19.00,-10.00,-10.00,-4.00,+10.00
-49.00,-16.00,+2.00,-14.00,-14.00,-16.00,-16.00,-33.00,-64.00,-89.00,-24.00,+16.00,+18.00,+18.00,+21.00,+16.00
+83.00,+0.00,+84.00,+68.00,+38.00,+27.00,+32.00,+58.00,-31.00,+5.00,+116.00,+10.00,-2.00,-3.00,-9.00,-18.00
-6.00,+18.00,-61.00,-37.00,-2.00,-2.00,-4.00,-5.00,-31.00,-56.00,-17.00,-13.00,-5.00,-4.00,+2.00,+2.00
+1.00,-5.00,+58.00,-3.00,-3.00,-3.00,+0.00,-3.00,+41.00,+46.00,-47.00,+1.00,-2.00,-2.00,-5.00,-13.00
-68.00,-118.00,-73.00,+7.00,+1.00,-2.00,-7.00,-13.00,+110.00,+69.00,+37.00,-13.00,-5.00,-1.00,+0.00,+2.00
+24.00,-77.00,-61.00,-12.00,-4.00,+0.00,+7.00,+16.00,+16.00,+35.00,-69.00,+7.00,+2.00,+2.00,+4.00,+13.00
-3.00,-53.00,+51.00,+15.00,-4.00,-2.00,-4.00,-6.00,-27.00,-104.00,+59.00,+37.00,+8.00,+7.00,+1.00,-14.00
+31.00,-5.00,-73.00,+8.00,+10.00,+10.00,+8.00,+20.00,+17.00,+36.00,+11.00,-25.00,-10.00,-6.00,-9.00,-17.00
-21.00,-4.00,-57.00,-15.00,-5.00,-5.00,-2.00,+7.00,+62.00,-5.00,+54.00,+30.00,+3.00,+2.00,+2.00,+12.00
-9.00,-43.00,+76.00,-18.00,-13.00,-5.00,-6.00,-13.00,-103.00,+7.00,-43.00,+3.00,+4.00,-2.00,-9.00,-32.00
+5.00,-79.00,-93.00,+5.00,+7.00,+3.00,+3.00,+4.00,+127.00,+122.00,-61.00,-29.00,-10.00,-8.00,-5.00,-1.00
-1.00,-8.00,-72.00,-18.00,-12.00,-7.00,-5.00,+0.00,-37.00,-68.00,+78.00,+70.00,+36.00,+26.00,+25.00,+21.00
+55.00,+13.00,-55.00,+56.00,+41.00,+26.00,+25.00,+35.00,+5.00,+11.00,-112.00,-55.00,-24.00,-15.00,-10.00,+3.00
-16.00,-37.00,+86.00,-64.00,-35.00,-22.00,-16.00,-23.00,+57.00,-74.00,-68.00,-20.00,-7.00,-3.00,+1.00,+15.00
+12.00,+98.00,+92.00,+20.00,-3.00,-5.00,-2.00,-3.00,-128.00,-116.00,+28.00,+5.00,-7.00,-12.00,-20.00,-40.00
-34.00,+12.00,+31.00,-24.00,-19.00,-14.00,-17.00,-39.00,-18.00,+65.00,+77.00,-3.00,-3.00,-3.00,-5.00,-13.00
-26.00,+6.00,+49.00,-32.00,-2.00,-1.00,-1.00,+8.00,-37.00,-84.00,+91.00,+23.00,+19.00,+17.00,+17.00,+11.00
+49.00,+116.00,+81.00,+33.00,+27.00,+20.00,+17.00,+32.00,-40.00,-15.00,-7.00,+6.00,-5.00,-6.00,-10.00,-19.00
-29.00,-43.00,-8.00,-15.00,-12.00,-6.00,-10.00,-18.00,-16.00,+103.00,+64.00,-2.00,-10.00,-9.00,-6.00,+11.00
-33.00,+79.00,-14.00,-76.00,-31.00,-16.00,-14.00,-30.00,-78.00,+26.00,-100.00,-24.00,+9.00,+15.00,+17.00,+12.00
+127.00,-68.00,-43.00,+98.00,+39.00,+26.00,+32.00,+61.00,+65.00,+78.00,+40.00,-17.00,-19.00,-17.00,-19.00,-19.00
-92.00,+4.00,-59.00,-54.00,-30.00,-20.00,-26.00,-46.00,-81.00,-7.00,-22.00,-3.00,-5.00,-7.00,-10.00,-20.00
-43.00,-97.00,-45.00,-9.00,-9.00,-7.00,-8.00,-10.00,-4.00,+127.00,-27.00,-12.00,-4.00,-2.00,+8.00,+26.00
-24.00,+21.00,-44.00,+3.00,-9.00,-7.00,-5.00,-9.00,-88.00,-66.00,+31.00,+59.00,+28.00,+22.00,+19.00,+0.00
+98.00,-38.00,+48.00,+76.00,+42.00,+34.00,+42.00,+77.00,+7.00,+49.00,-22.00,-36.00,-12.00,-8.00,-3.00,+10.00
-24.00,-58.00,-80.00,-20.00,-4.00,-5.00,-8.00,-15.00,+89.00,+124.00,+103.00,+4.00,-3.00,-4.00,-2.00,+16.00
-63.00,-128.00,-50.00,-22.00,-11.00,-12.00,-18.00,-36.00,-13.00,-125.00,-75.00,-10.00,+0.00,+3.00,+0.00,-10.00
+40.00,+97.00,+4.00,+53.00,+19.00,+10.00,+16.00,+28.00,+6.00,-29.00,+92.00,+34.00,+11.00,+4.00,+0.00,+6.00
-13.00,+46.00,-22.00,+0.00,+7.00,+5.00,-2.00,-20.00,-117.00,-71.00,-117.00,-23.00,-10.00,-10.00,-11.00,-7.00
-8.00,-18.00,-85.00,-27.00,-24.00,-16.00,-16.00,-23.00,+95.00,-79.00,-7.00,-16.00,-9.00,-11.00,-10.00,+11.00
-63.00,+1.00,+125.00,-11.00,-12.00,-9.00,-9.00,-25.00,-10.00,+58.00,-60.00,+6.00,+10.00,+13.00,+8.00,-13.00
+105.00,+31.00,+105.00,+76.00,+33.00,+21.00,+24.00,+54.00,+48.00,+44.00,+7.00,-8.00,-4.00,-3.00,-4.00,+1.00
-12.00,-66.00,-17.00,-22.00,-9.00,-4.00,-6.00,-9.00,+41.00,-42.00,-27.00,+2.00,-4.00,-6.00,-9.00,-16.00
-40.00,-88.00,-68.00,-30.00,-16.00,-11.00,-13.00,-23.00,+108.00,+123.00,-16.00,-18.00,-15.00,-11.00,-5.00,+18.00
-79.00,+11.00,-61.00,-66.00,-37.00,-20.00,-17.00,-50.00,-4.00,+39.00,+96.00,+21.00,+11.00,+10.00,+12.00,+13.00
+95.00,+54.00,-31.00,+46.00,+29.00,+17.00,+22.00,+48.00,+3.00,-109.00,-95.00,-3.00,+8.00,+9.00,+6.00,-7.00
+101.00,+127.00,+120.00,+39.00,+16.00,+15.00,+17.00,+44.00,+22.00,+127.00,-87.00,-10.00,-8.00,-6.00,-6.00,-15.00
-45.00,-75.00,-35.00,+6.00,-9.00,-7.00,-12.00,-18.00,-85.00,-128.00,+54.00,+31.00,+5.00,-2.00,-3.00,-5.00
+45.00,+83.00,+26.00,-11.00,-1.00,-3.00,-2.00,-5.00,+74.00,+73.00,-14.00,-4.00,-2.00,+0.00,+4.00,+2.00
-22.00,-128.00,-20.00,-1.00,+2.00,+1.00,-2.00,-5.00,-33.00,+9.00,+31.00,-2.00,-7.00,-5.00,-2.00,+6.00
-4.00,+29.00,+56.00,-14.00,-6.00,-6.00,-10.00,-18.00,-24.00,-35.00,-10.00,-8.00,-8.00,-3.00,-3.00,-5.00
+0.00,-12.00,+5.00,-11.00,-8.00,-4.00,+1.00,+6.00,+26.00,+57.00,-67.00,-25.00,-8.00,-12.00,-13.00,-11.00
-67.00,-4.00,-31.00,-21.00,-18.00,-17.00,-19.00,-29.00,-4.00,+56.00,+9.00,+1.00,+3.00,+3.00,+5.00,+5.00
+36.00,-28.00,-4.00,+10.00,+10.00,+7.00,+12.00,+23.00,-38.00,+12.00,+46.00,+20.00,+5.00,+2.00,-6.00,-23.00
-10.00,-54.00,-46.00,-12.00,-3.00,+1.00,-2.00,+6.00,+5.00,+55.00,-9.00,+8.00,+5.00,+3.00,+6.00,+13.00
-17.00,-9.00,+39.00,+0.00,+3.00,+2.00,-1.00,-11.00,-28.00,-97.00,-32.00,-7.00,-1.00,+2.00,+1.00,-12.00
+12.00,+15.00,-55.00,+18.00,+6.00,+5.00,+5.00,+13.00,-26.00,-103.00,-107.00,-56.00,-30.00,-24.00,-25.00,-14.00
-93.00,-30.00,-9.00,-65.00,-37.00,-30.00,-34.00,-59.00,-32.00,-1.00,+4.00,-2.00,+4.00,+7.00,+13.00,+16.00
+20.00,-73.00,-117.00,+37.00,+18.00,+11.00,+20.00,+48.00,+68.00,+54.00,+48.00,+12.00,+2.00,+1.00,-2.00,-6.00
+36.00,+9.00,-108.00,-10.00,-3.00,-1.00,-1.00,+3.00,-46.00,+126.00,+95.00,-12.00,-10.00,-9.00,-17.00,-36.00
-33.00,-55.00,+43.00,-30.00,-10.00,-10.00,-14.00,-17.00,+15.00,-49.00,-95.00,-34.00,-2.00,+1.00,+9.00,+35.00
-16.00,+1.00,+46.00,+21.00,+3.00,+0.00,+2.00,-1.00,+16.00,-25.00,+85.00,+11.00,+2.00,+1.00,-4.00,-17.00
-36.00,-112.00,-1.00,-3.00,+4.00,+1.00,-2.00,-8.00,+18.00,+42.00,-13.00,-8.00,-3.00,-3.00,-4.00,+6.00
-43.00,-73.00,+5.00,-9.00,-8.00,-7.00,-8.00,-18.00,-38.00,+23.00,+32.00,+10.00,+0.00,+1.00,+1.00,-1.00
-15.00,+14.00,-64.00,-5.00,+2.00,+0.00,+0.00,+3.00,+111.00,+43.00,-28.00,+2.00,+0.00,+0.00,+5.00,+15.00
-50.00,+19.00,+52.00,-21.00,-18.00,-7.00,-6.00,-21.00,-51.00,-57.00,+24.00,+17.00,+12.00,+8.00,-2.00,-45.00
+65.00,+77.00,+70.00,+52.00,+27.00,+18.00,+19.00,+43.00,+17.00,+13.00,+4.00,+12.00,+6.00,+5.00,+6.00,+10.00
-27.00,+18.00,+21.00,+21.00,+12.00,+9.00,+9.00,+13.00,+20.00,+36.00,-12.00,+3.00,+0.00,+2.00,+0.00,-6.00
+13.00,-56.00,-42.00,-13.00,+4.00,+4.00,-3.00,-2.00,+59.00,-46.00,-59.00,-13.00,-10.00,-4.00,-5.00,+5.00
-33.00,-86.00,+16.00,-3.00,-9.00,-6.00,-9.00,-16.00,+19.00,+33.00,-20.00,-26.00,-10.00,-13.00,-8.00,-1.00
-6.00,+113.00,-2.00,-33.00,-22.00,-22.00,-18.00,-45.00,-41.00,-32.00,+49.00,+3.00,-4.00,-6.00,-7.00,-12.00
-29.00,-105.00,-46.00,-14.00,-8.00,-5.00,-6.00,+1.00,-14.00,+61.00,+44.00,+14.00,+2.00,-3.00,-3.00,-4.00
+8.00,+56.00,-64.00,-17.00,+5.00,-1.00,+0.00,+4.00,+4.00,+86.00,+44.00,+35.00,+13.00,+13.00,+10.00,-3.00
+73.00,-13.00,-39.00,+16.00,+14.00,+16.00,+16.00,+38.00,-19.00,+111.00,-25.00,-6.00,-10.00,-6.00,-5.00,+6.00
-43.00,-99.00,-34.00,-33.00,-16.00,-5.00,-11.00,-24.00,-42.00,-38.00,-47.00,-9.00,-1.00,+1.00,+1.00,-4.00
+22.00,+45.00,+32.00,+8.00,+2.00,+0.00,+2.00,+19.00,+4.00,+73.00,-81.00,-21.00,-13.00,-11.00,-6.00,+4.00
-53.00,-26.00,+10.00,-30.00,-23.00,-18.00,-16.00,-28.00,-30.00,-107.00,-4.00,+20.00,+17.00,+14.00,+14.00,+8.00
+68.00,-45.00,+40.00,+78.00,+42.00,+24.00,+24.00,+42.00,+36.00,+54.00,+4.00,-2.00,-4.00,-2.00,-3.00,+0.00
+16.00,+31.00,-45.00,-10.00,-5.00,-2.00,-3.00,-1.00,-18.00,+61.00,+18.00,-6.00,-5.00,-7.00,-7.00,-8.00
+7.00,+27.00,-40.00,-19.00,-7.00,-2.00,-4.00,-14.00,-6.00,+15.00,-75.00,-22.00,-15.00,-9.00,-7.00,-16.00
-21.00,+3.00,+33.00,-3.00,-17.00,-11.00,-11.00,-12.00,-72.00,+127.00,+52.00,+4.00,+6.00,-4.00,-14.00,-52.00
-38.00,-92.00,-5.00,-21.00,-4.00,-5.00,-4.00,-7.00,-8.00,-76.00,-22.00,+9.00,+8.00,+11.00,+17.00,+43.00
+5.00,-70.00,-20.00,+37.00,+16.00,+11.00,+11.00,+14.00,+37.00,-92.00,-3.00,+10.00,+4.00,+5.00,+3.00,+1.00
+41.00,+65.00,+19.00,+15.00,+9.00,+6.00,+7.00,+9.00,-61.00,+34.00,+60.00,+7.00,+3.00,+0.00,+1.00,+1.00
+23.00,+48.00,-20.00,-8.00,-5.00,+1.00,-8.00,+6.00,+44.00,-53.00,-6.00,-5.00,-10.00,-10.00,-9.00,-2.00
-66.00,-46.00,-45.00,-17.00,-11.00,-9.00,+1.00,-28.00,-3.00,+121.00,+58.00,-5.00,-9.00,-10.00,-10.00,-11.00
+6.00,+40.00,-48.00,-19.00,-12.00,-7.00,-1.00,+2.00,+18.00,+112.00,+24.00,-7.00,-3.00,-2.00,-2.00,+24.00
-42.00,-42.00,-55.00,-27.00,-5.00,-8.00,-12.00,-32.00,-84.00,-98.00,+89.00,+41.00,+21.00,+18.00,+12.00,-6.00
+74.00,-98.00,-17.00,+45.00,+30.00,+25.00,+26.00,+47.00,+54.00,-32.00,+21.00,-8.00,-7.00,-2.00,+1.00,+6.00
-11.00,-18.00,+53.00,-10.00,-7.00,-5.00,-9.00,-5.00,-3.00,-112.00,-96.00,-16.00,-9.00,-7.00,-5.00,+12.00
-36.00,-88.00,+49.00,-6.00,-13.00,-10.00,-12.00,-20.00,+68.00,+95.00,-9.00,+6.00,+1.00,+3.00,+10.00,+25.00
+16.00,+8.00,-2.00,+23.00,+17.00,+7.00,+8.00,+13.00,+15.00,-17.00,-35.00,-8.00,+2.00,+4.00,+4.00,+5.00
+38.00,-15.00,-27.00,+14.00,+4.00,+4.00,+9.00,+7.00,-59.00,-112.00,+9.00,+13.00,+4.00,+0.00,-4.00,-8.00
-31.00,+22.00,-73.00,-4.00,+0.00,-2.00,-8.00,-6.00,+63.00,-2.00,+23.00,-12.00,-10.00,-3.00,-6.00,-4.00
-43.00,-101.00,-64.00,-41.00,-20.00,-13.00,-5.00,-21.00,-128.00,-101.00,+17.00,+27.00,+16.00,+6.00,+2.00,-34.00
+100.00,+98.00,+127.00,+32.00,+16.00,+15.00,+11.00,+33.00,+26.00,-74.00,-68.00,-13.00,+6.00,+9.00,+10.00,+14.00
+21.00,-87.00,+69.00,+53.00,+23.00,+15.00,+11.00,+21.00,+25.00,-2.00,-28.00,-12.00,-6.00,-6.00,-1.00,+3.00
-27.00,-117.00,-106.00,-7.00,-6.00,-6.00,-7.00,-10.00,+45.00,+0.00,-29.00,-14.00,-12.00,-12.00,-10.00,-12.00
-58.00,-42.00,-45.00,-23.00,-15.00,-14.00,-17.00,-24.00,-18.00,-72.00,-39.00,-2.00,+9.00,+11.00,+11.00,+6.00
+84.00,+27.00,-3.00,+47.00,+22.00,+16.00,+25.00,+45.00,-60.00,-49.00,+11.00,+8.00,+2.00,+0.00,-4.00,-10.00
-7.00,+20.00,-58.00,+15.00,+10.00,+6.00,+8.00,+10.00,+40.00,-12.00,+41.00,+10.00,-1.00,-2.00,-5.00,-8.00
-25.00,-45.00,-44.00,-15.00,-3.00,+2.00,-3.00,-3.00,+67.00,+72.00,-24.00,-17.00,-11.00,-9.00,-4.00,+15.00
-48.00,-47.00,+11.00,-35.00,-23.00,-17.00,-18.00,-32.00,-15.00,+72.00,+62.00,+16.00,+6.00,+3.00,+0.00,-5.00
+30.00,+15.00,+11.00,-11.00,+3.00,+2.00,+7.00,+6.00,+57.00,-19.00,-38.00,-10.00,-3.00,+0.00,+0.00,+8.00
-12.00,+29.00,-38.00,-2.00,-3.00,-1.00,-2.00,-3.00,-30.00,+32.00,+3.00,-3.00,-2.00,-1.00,-2.00,+3.00
+2.00,-41.00,-67.00,-8.00,-2.00,-1.00,-4.00,-1.00,+32.00,-8.00,-49.00,+1.00,-4.00,-6.00,-5.00,+1.00
-16.00,+57.00,+3.00,+1.00,-5.00,-5.00,-5.00,-14.00,-10.00,-103.00,+1.00,-13.00,-5.00,-1.00,+0.00,-2.00
+0.00,+21.00,+86.00,+18.00,-3.00,+0.00,+2.00,-1.00,+45.00,-1.00,-29.00,+5.00,+3.00,+5.00,+10.00,+33.00
-6.00,-117.00,-29.00,+27.00,+12.00,+4.00,+5.00,+18.00,+6.00,+103.00,+31.00,-6.00,-6.00,-6.00,-7.00,-4.00
-14.00,+54.00,-27.00,-34.00,-15.00,-11.00,-9.00,-17.00,-2.00,-47.00,+29.00,+7.00,+8.00,+5.00,+8.00,+13.00
+30.00,+2.00,+47.00,+17.00,+9.00,+9.00,+7.00,+12.00,-36.00,-120.00,-71.00,-34.00,-11.00,-11.00,-15.00,-18.00
-75.00,-115.00,-82.00,-28.00,-17.00,-15.00,-20.00,-37.00,+103.00,+59.00,-83.00,-28.00,-11.00,-9.00,-5.00,+3.00
-53.00,-49.00,-11.00,-14.00,-18.00,-12.00,-12.00,-27.00,-94.00,-53.00,+25.00,+22.00,+8.00,+7.00,+5.00,+2.00
+40.00,+61.00,+39.00,+27.00,+17.00,+8.00,+5.00,+9.00,-1.00,+86.00,-73.00,-36.00,-22.00,-18.00,-15.00,-15.00
-67.00,-71.00,-34.00,-50.00,-34.00,-25.00,-28.00,-43.00,-43.00,+48.00,-6.00,+15.00,+18.00,+15.00,+9.00,-14.00
+80.00,-66.00,+18.00,+99.00,+55.00,+32.00,+33.00,+59.00,+81.00,+33.00,+1.00,+1.00,+1.00,+3.00,+3.00,-3.00
+10.00,-74.00,-36.00,-5.00,-1.00,+3.00,+6.00,+6.00,+21.00,+31.00,-16.00,-7.00,-7.00,-7.00,-5.00,+9.00
-17.00,-26.00,+15.00,-25.00,-15.00,-9.00,-11.00,-12.00,+26.00,+36.00,+63.00,+10.00,+0.00,-3.00,-6.00,-6.00
-26.00,-42.00,-24.00,-18.00,-6.00,-4.00,-6.00,-14.00,-24.00,-87.00,-87.00,-11.00,-4.00,-2.00,-4.00,-12.00
-6.00,-10.00,+46.00,-6.00,-3.00,-7.00,-2.00,+0.00,-13.00,+11.00,+38.00,+4.00,-5.00,-3.00,-3.00,+8.00
-9.00,-34.00,-32.00,-22.00,-10.00,-4.00,-4.00,-10.00,-35.00,+86.00,-52.00,-5.00,+3.00,+4.00,+0.00,-9.00
+47.00,+83.00,+100.00,+35.00,+12.00,+8.00,+9.00,+16.00,-15.00,+46.00,+4.00,+2.00,-5.00,-6.00,-9.00,-20.00
-2.00,+9.00,-29.00,-23.00,-7.00,-8.00,-4.00,-5.00,+48.00,+78.00,+19.00,-5.00,-10.00,-6.00,-2.00,+10.00
-25.00,-30.00,-122.00,-17.00,-15.00,-10.00,-6.00,-5.00,-2.00,+27.00,+126.00,+59.00,+26.00,+21.00,+20.00,+8.00
+79.00,-14.00,-36.00,+36.00,+35.00,+27.00,+28.00,+49.00,-29.00,-57.00,-62.00,-7.00,-5.00,-4.00,-4.00,-10.00
+2.00,+10.00,+38.00,-1.00,-6.00,+0.00,-4.00,+0.00,+27.00,+21.00,+39.00,+7.00,+3.00,+2.00,+4.00,+14.00
-20.00,-78.00,-70.00,-10.00,-5.00,+0.00,-3.00,-11.00,-33.00,+106.00,-30.00,-34.00,-17.00,-14.00,-11.00,-10.00
-20.00,+65.00,-57.00,-28.00,-19.00,-15.00,-13.00,-5.00,-29.00,-99.00,-45.00,-28.00,-5.00,-2.00,-2.00,-6.00
+5.00,+58.00,+127.00,+25.00,-4.00,-6.00,-4.00,-1.00,-21.00,+3.00,+28.00,-7.00,-5.00,-4.00,+0.00,-2.00
-12.00,-77.00,-128.00,-7.00,-6.00,-6.00,-4.00,-8.00,+19.00,-24.00,+45.00,+19.00,+11.00,+13.00,+13.00,+8.00
+62.00,+67.00,+43.00,+26.00,+25.00,+16.00,+17.00,+30.00,+4.00,+48.00,-14.00,+3.00,-10.00,-15.00,-14.00,-4.00
-78.00,-1.00,+25.00,-50.00,-35.00,-23.00,-27.00,-53.00,-10.00,+64.00,+85.00,+16.00,+5.00,+2.00,+0.00,-9.00
+27.00,+35.00,-47.00,-4.00,+7.00,+8.00,+9.00,+17.00,-33.00,-71.00,-97.00,-40.00,-11.00,-6.00,-8.00,-13.00
-6.00,+3.00,-10.00,+16.00,-3.00,-6.00,-7.00,-10.00,-67.00,-119.00,+41.00,+4.00,-3.00,+0.00,-3.00,-8.00
+39.00,+66.00,+127.00,+1.00,+7.00,+4.00,+8.00,+18.00,-45.00,-102.00,-80.00,+0.00,+1.00,+5.00,+7.00,+15.00
+45.00,+35.00,+47.00,+7.00,+2.00,+9.00,+8.00,+8.00,+52.00,+103.00,-73.00,-14.00,+2.00,-7.00,+3.00,+15.00
-11.00,+36.00,+93.00,-6.00,-4.00,-5.00,-4.00,-7.00,+21.00,-54.00,+45.00,+15.00,+1.00,-1.00,-1.00,-5.00
-5.00,+6.00,-4.00,-14.00,-2.00,+0.00,+1.00,+0.00,+48.00,+116.00,-76.00,-17.00,-3.00,-1.00,+6.00,+15.00
-4.00,-36.00,+21.00,+9.00,+1.00,+0.00,-2.00,+0.00,+40.00,-52.00,+51.00,+15.00,+0.00,+4.00,+3.00,+6.00
-22.00,+16.00,-26.00,-14.00,-4.00,+0.00,+0.00,-6.00,-29.00,-45.00,-15.00,-6.00,-6.00,-4.00,-6.00,-15.00
-8.00,-6.00,+7.00,-14.00,-7.00,-7.00,-5.00,-10.00,-19.00,-48.00,+33.00,+15.00,+7.00,+5.00,+4.00,-2.00
+19.00,-87.00,-18.00,+1.00,+3.00,+3.00,+4.00,+13.00,-15.00,-74.00,-93.00,-20.00,-8.00,-5.00,-1.00,+10.00
-40.00,+116.00,-66.00,-10.00,-10.00,-12.00,-13.00,-30.00,+15.00,-57.00,-11.00,-7.00,+0.00,+1.00,-2.00,-12.00
+13.00,-86.00,-80.00,+23.00,+10.00,+6.00,+7.00,+19.00,-59.00,+44.00,-24.00,+6.00,+2.00,+3.00,+4.00,-4.00
+13.00,-14.00,-29.00,+3.00,+6.00,+3.00,+2.00,+1.00,+107.00,+127.00,-45.00,-1.00,-1.00,-3.00,+4.00,+22.00
-32.00,-53.00,+3.00,+7.00,-6.00,-5.00,-5.00,-11.00,-58.00,-70.00,-109.00,-7.00,+4.00,+2.00,-2.00,-19.00
+25.00,+46.00,+62.00,+36.00,+12.00,+7.00,+5.00,+10.00,+16.00,+107.00,-30.00,-4.00,-6.00,-6.00,-5.00,+3.00
-49.00,-89.00,+1.00,-16.00,-10.00,-9.00,-14.00,-28.00,-5.00,+1.00,+54.00,+25.00,+11.00,+8.00,+7.00,+6.00
+41.00,-20.00,-39.00,+17.00,+14.00,+11.00,+15.00,+24.00,+19.00,+65.00,+13.00,-6.00,-1.00,-1.00,+1.00,+12.00
-30.00,-76.00,-30.00,-10.00,+1.00,-1.00,-3.00,-11.00,-3.00,+0.00,+2.00,+6.00,+3.00,-1.00,+0.00,-7.00
+17.00,-33.00,+36.00,+8.00,+0.00,+1.00,+4.00,+12.00,+20.00,+37.00,+75.00,+20.00,+5.00,+1.00,+0.00,-3.00
-6.00,-48.00,-35.00,-11.00,-2.00,+1.00,-2.00,-3.00,-34.00,-51.00,-20.00,-16.00,-6.00,-5.00,-7.00,-8.00
-14.00,+53.00,+91.00,+5.00,-5.00,-6.00,-4.00,-8.00,-17.00,-5.00,+18.00,-5.00,-7.00,-4.00,-4.00,-7.00
+6.00,+19.00,+8.00,-20.00,-9.00,-6.00,+0.00,+1.00,-16.00,+9.00,+4.00,-4.00,-2.00,-4.00,-6.00,-6.00
+8.00,+16.00,-35.00,-5.00,-1.00,+1.00,+1.00,+5.00,-23.00,-57.00,+35.00,+17.00,+10.00,+7.00,+8.00,+2.00
+20.00,-90.00,+53.00,+12.00,+13.00,+9.00,+7.00,+12.00,-9.00,-72.00,-23.00,-8.00,-10.00,-6.00,-4.00,-5.00
-26.00,+17.00,-44.00,-17.00,-10.00,-8.00,-9.00,-16.00,-10.00,-33.00,+38.00,+12.00,+4.00,+2.00,+1.00,+0.00
+16.00,+61.00,+24.00,+2.00,+7.00,+7.00,+4.00,+6.00,+16.00,+35.00,+35.00,+5.00,-3.00,-3.00,-2.00,+4.00
-23.00,-40.00,-34.00,-15.00,-7.00,-6.00,-6.00,-7.00,-19.00,+62.00,+3.00,-12.00,-7.00,-6.00,-9.00,-15.00
-15.00,+63.00,+11.00,-24.00,-15.00,-10.00,-8.00,-12.00,-1.00,+93.00,+27.00,+10.00,+4.00,+3.00,-1.00,+1.00
+13.00,-61.00,-41.00,+6.00,+4.00,+4.00,+4.00,+7.00,+29.00,-20.00,+33.00,+14.00,+6.00,+8.00,+3.00,-8.00
+10.00,-44.00,+3.00,-4.00,+4.00,-3.00,+12.00,+13.00,+49.00,+18.00,+5.00,-6.00,-8.00,-4.00,-1.00,+6.00
-9.00,-53.00,-24.00,+6.00,+8.00,+8.00,-12.00,-7.00,+62.00,+49.00,-18.00,-9.00,-6.00,-4.00,-4.00,+4.00
-15.00,-34.00,-4.00,-12.00,-9.00,-5.00,-7.00,-10.00,+13.00,-97.00,-17.00,-2.00,-1.00,+2.00,+1.00,+1.00
-3.00,+4.00,+19.00,+5.00,+3.00,+0.00,+0.00,+1.00,-20.00,+33.00,+6.00,-2.00,-3.00,-4.00,-5.00,-9.00
+0.00,-21.00,-18.00,-10.00,-5.00,-2.00,-4.00,-3.00,-35.00,-112.00,-85.00,-16.00,-3.00,-2.00,-1.00,+1.00
-27.00,+70.00,+78.00,+5.00,-6.00,-7.00,-1.00,-11.00,+16.00,-80.00,+45.00,+2.00,+4.00,+4.00,+7.00,+6.00
+47.00,+5.00,-61.00,+25.00,+20.00,+14.00,+14.00,+24.00,-33.00,+127.00,+34.00,+2.00,-3.00,-5.00,-3.00,-1.00
+0.00,+7.00,-25.00,-16.00,-11.00,-7.00,-6.00,-7.00,-14.00,+22.00,-2.00,+0.00,-3.00,+0.00,+1.00,+5.00
+7.00,-15.00,+8.00,+7.00,+4.00,+5.00,+1.00,+3.00,-29.00,+32.00,+15.00,+7.00,+2.00,+1.00,+1.00,-2.00
-15.00,-62.00,-33.00,-8.00,-6.00,-4.00,+3.00,-1.00,-18.00,-80.00,-13.00,-2.00,+8.00,+4.00,-11.00,+0.00
-7.00,+37.00,+47.00,-1.00,-1.00,-8.00,-7.00,-4.00,-20.00,+18.00,-11.00,+8.00,+24.00,+6.00,+16.00,-1.00
+3.00,+27.00,+12.00,+10.00,-4.00,+29.00,-1.00,+2.00,-50.00,-92.00,-15.00,+1.00,+8.00,-14.00,-7.00,-13.00
-5.00,-3.00,+6.00,-10.00,-1.00,+17.00,+56.00,+5.00,-59.00,+56.00,+68.00,+3.00,-33.00,-35.00,-60.00,-14.00
+23.00,+16.00,-24.00,-2.00,-1.00,+5.00,-64.00,-23.00,-9.00,+20.00,-19.00,-14.00,-28.00,+25.00,+0.00,-9.00
-15.00,+33.00,+3.00,-9.00,+17.00,-44.00,-17.00,-3.00,+3.00,-98.00,-46.00,-33.00,-56.00,-9.00,+34.00,-2.00
-17.00,-38.00,-27.00,-10.00,+3.00,-3.00,-24.00,-6.00,-14.00,+12.00,+5.00,-7.00,-8.00,+3.00,-4.00,-7.00
-1.00,+46.00,+18.00,+1.00,-6.00,+4.00,-11.00,-6.00,-45.00,+18.00,+25.00,+16.00,+22.00,+4.00,+36.00,-1.00
+21.00,+0.00,-18.00,+4.00,-3.00,+27.00,+27.00,+19.00,+17.00,+23.00,+11.00,+15.00,+38.00,+5.00,+13.00,+9.00
-3.00,+6.00,+1.00,-3.00,-10.00,+7.00,-4.00,+3.00,-21.00,-39.00,-22.00,-3.00,-2.00,-31.00,-64.00,+1.00
-7.00,-6.00,+9.00,+0.00,+2.00,+2.00,+51.00,-10.00,-81.00,+1.00,+10.00,+4.00,+4.00,+19.00,+39.00,-3.00
+2.00,+5.00,-6.00,+3.00,+3.00,-7.00,-69.00,+7.00,-121.00,+70.00,-9.00,-8.00,+7.00,+6.00,+5.00,-1.00
-16.00,-119.00,-95.00,-10.00,-3.00,-31.00,+9.00,+3.00,-108.00,+26.00,+65.00,+9.00,-1.00,-4.00,-12.00,-16.00
+34.00,+97.00,+85.00,+12.00,-3.00,+2.00,-4.00,+9.00,+28.00,+19.00,+0.00,+1.00,+11.00,+5.00,+19.00,+4.00
-17.00,-98.00,-34.00,-13.00,-2.00,-9.00,+15.00,+1.00,+113.00,+12.00,+8.00,-1.00,-3.00,-15.00,-8.00,-1.00
+7.00,-41.00,-6.00,-3.00,-5.00,+6.00,+8.00,-1.00,+127.00,+17.00,+6.00,+4.00,-2.00,+8.00,-11.00,+3.00
+8.00,+4.00,-16.00,+2.00,+13.00,+17.00,+6.00,+5.00,+115.00,-9.00,-25.00,-7.00,-2.00,-7.00,+16.00,+4.00
-20.00,-20.00,-18.00,-14.00,-15.00,-25.00,+5.00,-15.00,+102.00,-21.00,-10.00,-3.00,-7.00,-6.00,-10.00,-5.00
-9.00,+5.00,-4.00,-2.00,-4.00,+12.00,-22.00,-6.00,+99.00,+91.00,+13.00,+2.00,-2.00,-4.00,-11.00,+7.00
-22.00,-22.00,-53.00,-16.00,-4.00,-19.00,-3.00,-11.00,-68.00,-128.00,-13.00,+2.00,+7.00,+18.00,-6.00,-3.00
+46.00,+123.00,+77.00,+21.00,+8.00,+7.00,+28.00,+26.00,+28.00,+41.00,-12.00,-1.00,-10.00,-12.00,+55.00,+9.00
-16.00,-28.00,-25.00,-2.00,+0.00,+38.00,-25.00,-8.00,-6.00,+63.00,+16.00,+9.00,+31.00,+13.00,-11.00,+11.00
+2.00,+13.00,+16.00,+1.00,-10.00,-29.00,-37.00,-12.00,+31.00,+3.00,-16.00,-11.00,-33.00,-1.00,+29.00,+12.00
-4.00,+18.00,-9.00,-3.00,+11.00,-12.00,+49.00,-3.00,+34.00,+30.00,+9.00,-8.00,-12.00,-28.00,-17.00,-8.00
-14.00,-35.00,-12.00,-9.00,+6.00,+4.00,+14.00,+3.00,-6.00,-18.00,-8.00,-19.00,-33.00,+6.00,-23.00,-7.00
-4.00,-2.00,-13.00,-3.00,+4.00,+11.00,+3.00,-6.00,-3.00,-36.00,-11.00,+1.00,+10.00,+10.00,+5.00,-5.00
-4.00,+9.00,-5.00,-1.00,-8.00,-12.00,-20.00,-8.00,-43.00,-30.00,-1.00,-1.00,+30.00,+10.00,+9.00,+3.00
+3.00,+41.00,+23.00,+5.00,-6.00,-42.00,+12.00,-1.00,+42.00,+36.00,+7.00,+5.00,-19.00,+3.00,+13.00,-3.00
+2.00,-45.00,+0.00,-3.00,-2.00,+7.00,+2.00,+7.00,-29.00,-9.00,+16.00,+3.00,+5.00,-19.00,-38.00,-15.00
+15.00,+36.00,-5.00,-2.00,-4.00,+6.00,+22.00,+4.00,-13.00,-23.00,-11.00,-2.00,-1.00,+20.00,+11.00,+1.00
-8.00,+2.00,-8.00,-6.00,-3.00,+15.00,-17.00,-14.00,-15.00,+22.00,+10.00,+10.00,+26.00,-5.00,-16.00,+2.00
+4.00,+17.00,+13.00,+4.00,-11.00,+4.00,+11.00,+9.00,-11.00,+9.00,+13.00,-2.00,-1.00,-22.00,-50.00,-3.00
+7.00,+11.00,+8.00,+8.00,+26.00,-10.00,+16.00,+15.00,+14.00,-3.00,-24.00,-8.00,+1.00,-8.00,-33.00,+2.00
-21.00,-22.00,-21.00,-9.00,-9.00,-12.00,-18.00,-12.00,-8.00,-15.00,-15.00,-6.00,-12.00,-4.00,+0.00,-11.00
-2.00,-7.00,-2.00,-1.00,+5.00,+9.00,+15.00,+7.00,-26.00,+47.00,+45.00,+10.00,-5.00,+3.00,-1.00,-2.00
+11.00,-30.00,-20.00,-2.00,+0.00,+10.00,-15.00,+1.00,-16.00,-80.00,+5.00,+4.00,+16.00,+11.00,+5.00,-5.00
+23.00,+53.00,+62.00,+5.00,-15.00,-4.00,+1.00,+10.00,+6.00,+20.00,-12.00,-1.00,+4.00,-2.00,+12.00,+8.00
-7.00,-76.00,+4.00,-2.00,-2.00,+3.00,-2.00,-7.00,-36.00,-54.00,-4.00,-4.00,-7.00,+2.00,-1.00,-9.00
-4.00,-1.00,-8.00,-2.00,-1.00,-12.00,-6.00,+2.00,-9.00,-54.00,-11.00,-2.00,-2.00,-9.00,-17.00,+0.00
+3.00,-3.00,+5.00,+4.00,+4.00,+14.00,+16.00,-1.00,+27.00,-33.00,-46.00,-8.00,+7.00,+10.00,+17.00,+6.00
-15.00,+7.00,-33.00,-10.00,-9.00,-12.00,-13.00,-15.00,-44.00,+61.00,+47.00,+7.00,-7.00,+0.00,-3.00,-15.00
+9.00,-85.00,+7.00,+7.00,+3.00,+0.00,+4.00,+7.00,-8.00,+1.00,-2.00,-3.00,-7.00,-9.00,+3.00,-5.00
+4.00,+0.00,+20.00,+6.00,+4.00,-4.00,+3.00,+8.00,+5.00,-21.00,-11.00,-7.00,-10.00,-18.00,-32.00,-2.00
-2.00,+20.00,-6.00,-4.00,-6.00,+1.00,-8.00,-6.00,+22.00,+11.00,-1.00,+3.00,+14.00,+21.00,+54.00,+9.00
-15.00,-35.00,-28.00,-10.00,-1.00,+12.00,-9.00,-7.00,-18.00,-44.00,-37.00,-8.00,-6.00,+0.00,+12.00,+6.00
-5.00,+59.00,-3.00,-7.00,-5.00,+9.00,+7.00,-10.00,-24.00,-15.00,+14.00,+2.00,-14.00,-6.00,+5.00,-3.00
-13.00,-26.00,-17.00,+2.00,-7.00,-8.00,-11.00,+0.00,+16.00,+11.00,-1.00,-8.00,-3.00,-6.00,-25.00,-10.00
+12.00,+24.00,+15.00,+3.00,+11.00,+0.00,-20.00,-13.00,-11.00,+18.00,+14.00,+2.00,+2.00,-6.00,+4.00,+0.00
+0.00,-11.00,-9.00,+0.00,-3.00,-6.00,+1.00,+1.00,+0.00,-7.00,-13.00,-10.00,-25.00,-10.00,-19.00,-7.00
-2.00,-10.00,+2.00,-2.00,+1.00,-3.00,+27.00,+11.00,+0.00,+22.00,+1.00,-2.00,+5.00,+2.00,+6.00,+0.00
-5.00,+6.00,+1.00,-4.00,-1.00,-6.00,+9.00,-1.00,-8.00,-6.00,-2.00,+2.00,-2.00,+5.00,+11.00,+1.00
-3.00,+8.00,+6.00,+1.00,+2.00,+10.00,-17.00,-1.00,-1.00,+4.00,+9.00,+3.00,+7.00,+0.00,-1.00,+3.00
+0.00,-24.00,+3.00,+3.00,-4.00,-2.00,+5.00,+4.00,+14.00,-8.00,-5.00,+2.00,+13.00,+0.00,+4.00,+4.00
-8.00,+4.00,-21.00,-5.00,-3.00,-3.00,-3.00,-5.00,+8.00,-73.00,-29.00,-4.00,-3.00,-6.00,-9.00,-4.00
+4.00,+32.00,+4.00,+2.00,+2.00,+5.00,+6.00,+2.00,-14.00,+76.00,+30.00,+3.00,-2.00,+6.00,+10.00,-2.00
+20.00,+16.00,+16.00,+4.00,+0.00,+0.00,-10.00,+9.00,+11.00,+29.00,+4.00,-1.00,-6.00,+1.00,-7.00,+0.00
-10.00,-20.00,-15.00,-1.00,+0.00,-3.00,-6.00,-8.00,+13.00,-19.00,-30.00,+0.00,+1.00,-4.00,+5.00,+10.00
-12.00,-18.00,-15.00,-8.00,-2.00,+1.00,-4.00,-5.00,-18.00,-26.00,+18.00,-1.00,-2.00,-5.00,-37.00,-12.00
+8.00,+6.00,-2.00,+3.00,+8.00,+0.00,+3.00,+7.00,+3.00,+4.00,-9.00,-4.00,+3.00,+4.00,+58.00,+6.00
-9.00,-2.00,+5.00,-3.00,-7.00,-3.00,-3.00,-5.00,-5.00,+27.00,+18.00,+6.00,+3.00,+2.00,+6.00,-1.00
+5.00,-3.00,+0.00,+0.00,-4.00,-5.00,-1.00,-1.00,+12.00,-25.00,-19.00,-5.00,-2.00,-5.00,+1.00,+9.00
-11.00,-2.00,-3.00,-3.00,-2.00,-3.00,+3.00,-1.00,-9.00,+10.00,-6.00,+3.00,+9.00,-2.00,+3.00,+7.00
-2.00,+0.00,+4.00,-1.00,+1.00,-1.00,+0.00,-8.00,+17.00,-26.00,-7.00,-11.00,-29.00,+2.00,-20.00,-8.00
-9.00,-17.00,-3.00,-1.00,-1.00,+3.00,-3.00,+2.00,+1.00,-6.00,+0.00,-1.00,-5.00,-15.00,-33.00,-9.00
-1.00,-6.00,-10.00,-2.00,+3.00,-5.00,-8.00,-11.00,+11.00,+21.00,+8.00,-2.00,+3.00,+23.00,+22.00,+0.00
-1.00,+2.00,+4.00,+0.00,-4.00,-11.00,+0.00,-2.00,+0.00,+26.00,+3.00,+3.00,+12.00,-10.00,-7.00,+1.00
+2.00,-8.00,-1.00,-1.00,-1.00,+4.00,-6.00,+4.00,-16.00,-11.00,+3.00,+4.00,-5.00,+2.00,+10.00,-5.00
-7.00,+0.00,+4.00,+2.00,+3.00,+4.00,+1.00,+0.00,+1.00,-6.00,-1.00,-1.00,+0.00,-2.00,-1.00,+4.00
-5.00,-11.00,-7.00,-3.00,-2.00,-1.00,-9.00,-5.00,-3.00,-4.00,+7.00,+3.00,+9.00,-3.00,-11.00,-1.00
+4.00,+12.00,+4.00,+0.00,-5.00,-4.00,-4.00,-4.00,+4.00,+34.00,+6.00,-3.00,-6.00,-3.00,+2.00,+0.00
+3.00,+5.00,+0.00,-3.00,+3.00,-3.00,+5.00,+1.00,+6.00,-27.00,-16.00,+2.00,+4.00,+1.00,+1.00,+1.00
-3.00,+0.00,-2.00,+0.00,+1.00,+2.00,-4.00,-2.00,-13.00,-4.00,+4.00,+0.00,-2.00,-2.00,+6.00,-4.00
+1.00,-1.00,+2.00,+1.00,-2.00,-1.00,+2.00,+3.00,+8.00,+9.00,+5.00,+1.00,+1.00,-3.00,-2.00,+5.00
-7.00,+16.00,+0.00,+0.00,+1.00,-2.00,-7.00,+11.00,+0.00,+6.00,-6.00,-7.00,-8.00,+2.00,+7.00,-2.00
+13.00,-5.00,-4.00,-4.00,-5.00,-3.00,+2.00,+3.00,-10.00,-21.00,-3.00,+2.00,+3.00,+3.00,-9.00,+0.00
+6.00,+8.00,+4.00,+1.00,+2.00,+2.00,+1.00,+2.00,+7.00,+15.00,+6.00,+1.00,-1.00,+4.00,+1.00,-2.00
-11.00,-10.00,-4.00,-3.00,-2.00,-3.00,-7.00,-4.00,-3.00,+5.00,+6.00,+0.00,+1.00,-4.00,-5.00,+3.00
-3.00,+4.00,+5.00,+1.00,+0.00,+3.00,-5.00,-8.00,+8.00,+2.00,-7.00,-5.00,-5.00,+0.00,+2.00,+5.00
-5.00,-5.00,-1.00,-1.00,-4.00,-3.00,+1.00,-3.00,-8.00,-24.00,-8.00,-1.00,+5.00,-3.00,-16.00,-10.00
+7.00,+4.00,+4.00,+1.00,-2.00,-3.00,-3.00,+5.00,+7.00,+13.00,+4.00,-2.00,-2.00,+0.00,-4.00,+1.00
-12.00,-32.00,-3.00,-2.00,+0.00,-1.00,+2.00,-8.00,-24.00,-16.00,-11.00,-1.00,+0.00,-5.00,+10.00,-7.00
+6.00,+46.00,+8.00,-2.00,-3.00,-1.00,-4.00,-4.00,+30.00,+63.00,+24.00,+5.00,+0.00,-1.00,+0.00,-2.00
+25.00,+10.00,-1.00,+3.00,+4.00,+0.00,+7.00,+10.00,-11.00,-12.00,-6.00,+0.00,+1.00,-1.00,-7.00,+1.00
-2.00,-2.00,-2.00,-1.00,+0.00,+1.00,-2.00,-2.00,+2.00,-1.00,-2.00,-1.00,-4.00,+6.00,+18.00,+2.00
-12.00,-3.00,-4.00,+0.00,-1.00,+5.00,+8.00,+16.00,-1.00,-16.00,-8.00,-2.00,+4.00,-8.00,-14.00,-1.00
-13.00,-21.00,-4.00,-5.00,-10.00,-7.00,-9.00,-6.00,-4.00,-22.00,-12.00,-8.00,-13.00,-4.00,-7.00,-2.00
-14.00,-2.00,-8.00,-6.00,-5.00,-5.00,-2.00,-5.00,-2.00,-9.00,-10.00,-2.00,-2.00,-4.00,+1.00,+2.00
+5.00,+16.00,+7.00,-1.00,-2.00,-2.00,-6.00,+2.00,-12.00,+0.00,-3.00,-4.00,-6.00,+1.00,-13.00,-6.00
-3.00,-30.00,-7.00,+0.00,-1.00,-1.00,-2.00,-8.00,-2.00,-41.00,+9.00,+5.00,+5.00,+8.00,-1.00,-4.00
+6.00,+20.00,+6.00,+2.00,+3.00,-1.00,+8.00,+1.00,-22.00,+7.00,+9.00,+7.00,+5.00,-7.00,+2.00,-2.00
+8.00,+15.00,+5.00,+3.00,+4.00,+8.00,+2.00,+2.00,+10.00,-18.00,-7.00,-2.00,-2.00,-1.00,-2.00,+4.00
-10.00,-14.00,-6.00,-4.00,-2.00,+2.00,-2.00,-5.00,-12.00,-3.00,-3.00,+2.00,+6.00,-3.00,+5.00,+4.00
-2.00,+5.00,-1.00,-3.00,-2.00,+0.00,+2.00,-2.00,+13.00,-12.00,-9.00,-7.00,-12.00,-3.00,-3.00,-3.00
+2.00,-6.00,-5.00,+0.00,+0.00,-6.00,-1.00,-4.00,+0.00,-5.00,-7.00,-2.00,-4.00,+3.00,+3.00,-3.00
-5.00,-16.00,-1.00,-3.00,-2.00,-3.00,-1.00,-4.00,+0.00,+11.00,+5.00,+1.00,-1.00,+0.00,-4.00,-1.00
-9.00,+1.00,-2.00,-2.00,+2.00,-1.00,-1.00,-2.00,-6.00,-28.00,-12.00,-6.00,-1.00,+0.00,+4.00,+4.00
+7.00,+16.00,+3.00,-4.00,-2.00,+0.00,-3.00,-2.00,-1.00,+42.00,+12.00,+3.00,+4.00,-2.00,-15.00,-3.00
+7.00,-9.00,-5.00,+0.00,-1.00,+1.00,-7.00,+4.00,+2.00,-11.00,-8.00,-3.00,+0.00,+1.00,-1.00,+4.00
-13.00,-7.00,+0.00,-3.00,-1.00,-3.00,+6.00,-5.00,-4.00,-15.00,-5.00,-5.00,-1.00,+3.00,+3.00,-5.00
-5.00,-13.00,-1.00,+1.00,-3.00,-4.00,-4.00,+4.00,+3.00,-36.00,-13.00,-1.00,-1.00,-14.00,-6.00,-3.00
+10.00,+20.00,+2.00,+1.00,+4.00,+6.00,+6.00,+1.00,+3.00,+47.00,+21.00,+3.00,-2.00,+21.00,+1.00,+4.00
+0.00,-14.00,-4.00,+1.00,+2.00,+1.00,+2.00,-5.00,-11.00,-13.00,-4.00,+0.00,+0.00,-8.00,+4.00,-2.00
-6.00,-5.00,+1.00,-2.00,-2.00,-3.00,-13.00,-2.00,+11.00,+2.00,+1.00,-4.00,+1.00,+0.00,-3.00,+0.00
-7.00,-8.00,-4.00,-3.00,-1.00,-3.00,-1.00,-4.00,+0.00,-78.00,-19.00,-6.00,-2.00,+1.00,-3.00,-2.00
-1.00,-9.00,-7.00,-4.00,-4.00,-5.00,-5.00,-4.00,-18.00,-71.00,-32.00,-4.00,-3.00,-7.00,+0.00,+2.00
-3.00,+5.00,-3.00,+1.00,+0.00,+4.00,+2.00,+0.00,+6.00,+92.00,+59.00,+10.00,+3.00,+2.00,+0.00,+0.00
+3.00,-3.00,-15.00,+3.00,+0.00,+0.00,+1.00,-3.00,-34.00,-16.00,-6.00,-4.00,-3.00,+3.00,+3.00,+2.00
-3.00,-10.00,+17.00,-3.00,-4.00,-5.00,+2.00,-3.00,+38.00,+27.00,+19.00,+9.00,+2.00,-1.00,+2.00,+3.00
+3.00,-17.00,+0.00,+4.00,+3.00,+2.00,-7.00,+4.00,-3.00,-7.00,-7.00,+0.00,-1.00,-7.00,+2.00,+0.00
-10.00,-2.00,-4.00,-3.00,-1.00,+0.00,+1.00,+5.00,-4.00,-29.00,-17.00,-5.00,-1.00,+5.00,+3.00,-2.00
-4.00,+4.00,+1.00,-2.00,-3.00,-4.00,-1.00,-1.00,-3.00,-12.00,-4.00,-2.00,+0.00,-8.00,-12.00,-2.00
+0.00,+7.00,-8.00,-1.00,+0.00,+2.00,-3.00,-3.00,-8.00,+28.00,+5.00,-5.00,-6.00,+1.00,+1.00,-3.00
+1.00,+2.00,+0.00,-1.00,-2.00,-4.00,+1.00,-2.00,-7.00,+15.00,+10.00,+2.00,+0.00,-3.00,+3.00,-7.00
+3.00,+5.00,+1.00,+0.00,+1.00,+0.00,-1.00,-5.00,+7.00,-24.00,-15.00,-4.00,+0.00,+0.00,-7.00,+2.00
-4.00,-1.00,+5.00,+0.00,-3.00,-1.00,-2.00,+0.00,+6.00,+18.00,+11.00,+3.00,+0.00,+2.00,-4.00,-2.00
+1.00,+4.00,-4.00,+0.00,+0.00,-2.00,+4.00,-1.00,-10.00,+0.00,-5.00,-2.00,-2.00,+1.00,-11.00,-5.00
+8.00,+11.00,+4.00,+0.00,-1.00,+0.00,-2.00,-2.00,+4.00,+9.00,+4.00,+3.00,+1.00,-4.00,+3.00,-2.00
-3.00,-13.00,-2.00,+2.00,+1.00,+2.00,+4.00,+0.00,-6.00,-17.00,-7.00,-3.00,-3.00,-4.00,-7.00,+0.00
-6.00,+4.00,-1.00,-1.00,-2.00,+1.00,+0.00,-4.00,+7.00,-3.00,-1.00,-1.00,-1.00,-4.00,+5.00,-2.00
-1.00,-2.00,-4.00,+0.00,-2.00,-2.00,-2.00,-2.00,-31.00,+3.00,+2.00,-1.00,-1.00,+0.00,-5.00,-5.00
-4.00,+3.00,+1.00,-2.00,-2.00,-3.00,+0.00,-2.00,+20.00,+17.00,+17.00,+1.00,-1.00,-5.00,-6.00,+4.00
+6.00,-4.00,-5.00,+0.00,+2.00,-3.00,-3.00,+2.00,+10.00,-5.00,-9.00,-5.00,-3.00,+0.00,+3.00,-1.00
-4.00,-5.00,+0.00,-1.00,-4.00,-6.00,+0.00,-2.00,+8.00,-58.00,-34.00,-8.00,-4.00,-4.00,-9.00,-2.00
-8.00,-5.00,-2.00,-1.00,+1.00,+0.00,-3.00,-5.00,-19.00,+86.00,+51.00,+11.00,+2.00,+0.00,+3.00,-4.00
+5.00,+1.00,-3.00,+2.00,+1.00,+0.00,+0.00,+0.00,+8.00,+19.00,+11.00,+2.00,+3.00,+2.00,+3.00,-2.00
+1.00,-11.00,-4.00,+0.00,+2.00,+1.00,+1.00,+20.00,-1.00,-16.00,-10.00,-2.00,+0.00,+0.00,+0.00,+0.00
+2.00,-1.00,+2.00,-1.00,-1.00,-1.00,+2.00,+4.00,+2.00,-11.00,-8.00,-3.00,-2.00,-1.00,-1.00,-4.00
+1.00,+3.00,-2.00,+0.00,-1.00,+0.00,-4.00,-4.00,+11.00,-29.00,-13.00,-4.00,-2.00,+0.00,+5.00,+5.00
-15.00,-11.00,-5.00,-4.00,-4.00,-3.00,+2.00,-3.00,-5.00,-15.00,-11.00,-4.00,-2.00,+6.00,+3.00,+1.00
-4.00,-6.00,+3.00,-2.00,-3.00,-1.00,-6.00,-8.00,-1.00,+2.00,+9.00,+5.00,+2.00,+2.00,-9.00,-6.00
+8.00,+4.00,-7.00,+0.00,+0.00,+0.00,-1.00,+0.00,+5.00,-4.00,-2.00,+0.00,+2.00,-1.00,+1.00,+9.00
-11.00,-11.00,-4.00,-2.00,-3.00,+0.00,+0.00,+1.00,+2.00,-35.00,-19.00,-8.00,-4.00,+0.00,+3.00,+0.00
+4.00,+2.00,+1.00,-2.00,-3.00,-2.00,+0.00,+0.00,-12.00,+23.00,+13.00,+3.00,-1.00,+2.00,-5.00,-5.00
+0.00,+10.00,+6.00,+1.00,-3.00,-4.00,+4.00,-4.00,+3.00,-14.00,-12.00,-2.00,-3.00,-9.00,-1.00,+4.00
-6.00,-1.00,+1.00,-2.00,-2.00,+0.00,-1.00,-2.00,-9.00,+18.00,+11.00,+0.00,-1.00,-2.00,-3.00,-8.00
+5.00,+5.00,-3.00,+0.00,+0.00,+0.00,+2.00,+0.00,+2.00,-23.00,-10.00,+0.00,+0.00,+2.00,+5.00,+3.00
+5.00,+4.00,+3.00,+2.00,+0.00,-1.00,-3.00,-2.00,+1.00,+0.00,-4.00,-3.00,+1.00,-2.00,-1.00,+1.00
-3.00,-1.00,-2.00,+1.00,+1.00,-1.00,-1.00,-2.00,-1.00,-14.00,-4.00,-2.00,-4.00,+2.00,-1.00,+0.00
-6.00,-5.00,-2.00,-2.00,-3.00,-5.00,-1.00,-1.00,+1.00,-6.00,-2.00,-4.00,-2.00,-4.00,+2.00,+2.00
-6.00,-14.00,-7.00,-3.00,-4.00,-2.00,+0.00,-3.00,+3.00,+78.00,+15.00,+3.00,+3.00,+1.00,+1.00,-6.00
+20.00,+37.00,+25.00,+3.00,-1.00,-3.00,+6.00,+6.00,-5.00,-89.00,-22.00,-7.00,-3.00,-6.00,-3.00,-1.00
-7.00,-1.00,-12.00,-2.00,-2.00,+0.00,-4.00,-4.00,-9.00,+45.00,+20.00,+5.00,-3.00,+0.00,+0.00,-2.00
-1.00,-17.00,+1.00,+0.00,+1.00,-2.00,-1.00,-2.00,+9.00,+25.00,+8.00,+0.00,-1.00,-1.00,-4.00,+0.00
+6.00,+7.00,-2.00,+0.00,-1.00,+1.00,-1.00,+4.00,-7.00,-38.00,-10.00,-3.00,-2.00,-1.00,-1.00,-2.00
-7.00,-7.00,+1.00,-3.00,-2.00,-2.00,-3.00,-5.00,-4.00,-25.00,-21.00,-2.00,-2.00,-4.00,-3.00,-4.00
-6.00,-7.00,+2.00,+0.00,-1.00,-1.00,-6.00,-16.00,+2.00,+25.00,+6.00,+1.00,+2.00,+2.00,+0.00,+0.00
+7.00,+22.00,+5.00,-1.00,+1.00,+2.00,+1.00,+2.00,+1.00,+23.00,+7.00,+3.00,+0.00,+1.00,+3.00,+5.00
+1.00,-11.00,-3.00,-1.00,+0.00,-3.00,+1.00,+0.00,+6.00,-6.00,-4.00,-4.00,-4.00,-1.00,-2.00,-2.00
-9.00,-7.00,-11.00,-2.00,-1.00,-2.00,-3.00,-1.00,-5.00,+8.00,+1.00,+1.00,+0.00,-3.00,+1.00,-3.00
+3.00,+6.00,+3.00,-3.00,-3.00,+0.00,+4.00,+0.00,-2.00,-29.00,-10.00,-4.00,-2.00,-4.00,-1.00,-1.00
-7.00,-3.00,-4.00,-2.00,+0.00,+0.00,-3.00,-4.00,-4.00,+14.00,+6.00,+4.00,+1.00,-1.00,-1.00,-4.00
+5.00,+8.00,+0.00,+0.00,+1.00,+0.00,+0.00,+1.00,-1.00,-4.00,+0.00,-2.00,-3.00,-1.00,-3.00,-2.00
-2.00,-1.00,-5.00,-3.00,+1.00,-1.00,-2.00,-4.00,-4.00,+20.00,+7.00,+1.00,-1.00,-2.00,-3.00,-3.00
+4.00,-1.00,-2.00,-1.00,-2.00,+0.00,-1.00,+2.00,+6.00,-5.00,-8.00,-3.00,-1.00,+1.00,+2.00,+3.00
-6.00,-1.00,-1.00,-2.00,-1.00,-3.00,-1.00,-2.00,-5.00,-5.00,+2.00,+1.00,+0.00,-2.00,-1.00,-3.00
+3.00,+8.00,+3.00,+0.00,+1.00,-1.00,-1.00,+0.00,-4.00,-8.00,-1.00,-2.00,+0.00,-1.00,+0.00,-3.00
+0.00,-4.00,-4.00,+0.00,+1.00,+0.00,-1.00,-1.00,-2.00,+7.00,+1.00,-3.00,-3.00,-2.00,+0.00,-2.00
-1.00,-4.00,-2.00,-2.00,-2.00,-4.00,-4.00,+0.00,+2.00,-11.00,-5.00,-1.00,-3.00,+0.00,+1.00,-2.00
+0.00,-4.00,-1.00,-1.00,-2.00,-2.00,-1.00,+0.00,-4.00,-2.00,-1.00,+1.00,+0.00,-1.00,-1.00,+0.00
+2.00,+2.00,+5.00,-1.00,-1.00,-1.00,-1.00,-1.00,-4.00,-80.00,-15.00,-5.00,-1.00,+1.00,+3.00,-1.00
-2.00,+5.00,-7.00,-1.00,-1.00,+2.00,+1.00,+1.00,+7.00,+104.00,+42.00,+7.00,+1.00,-3.00,-3.00,-1.00
+4.00,-1.00,-5.00,+0.00,+0.00,-1.00,-2.00,+1.00,-1.00,-10.00,-3.00,-3.00,+1.00,+1.00,-2.00,+0.00
+1.00,+3.00,+1.00,+0.00,-1.00,+0.00,-1.00,-2.00,-4.00,-7.00,+3.00,+1.00,+1.00,-1.00,+0.00,+0.00
-1.00,-7.00,-1.00,+2.00,+1.00,+0.00,+0.00,+0.00,+3.00,+8.00,-7.00,-2.00,-1.00,-1.00,-2.00,-2.00
-3.00,-2.00,+1.00,+1.00,+0.00,-1.00,-1.00,-2.00,-1.00,-37.00,-16.00,-4.00,-2.00,-2.00,+0.00,-2.00
-4.00,+3.00,+4.00,+4.00,+1.00,+2.00,-1.00,-1.00,-1.00,-16.00,-4.00,+1.00,-2.00,-1.00,+0.00,-1.00
-3.00,-14.00,-4.00,+0.00,-3.00,-1.00,-1.00,-3.00,+1.00,+21.00,+11.00,+1.00,-3.00,-2.00,-1.00,+3.00
-4.00,+1.00,-11.00,-15.00,-5.00,-3.00,-4.00,-5.00,-3.00,+1.00,-2.00,+2.00,+1.00,+0.00,+0.00,+0.00
+7.00,-10.00,+3.00,+0.00,+2.00,+1.00,+0.00,+5.00,-1.00,-11.00,-4.00,-3.00,-2.00,-3.00,+0.00,+2.00
-5.00,-15.00,-2.00,-4.00,-2.00,-1.00,-2.00,-2.00,-2.00,+12.00,-2.00,+0.00,-1.00,-1.00,-2.00,-2.00
-1.00,-2.00,-3.00,+2.00,+1.00,+0.00,+0.00,+0.00,-2.00,-28.00,-10.00,-4.00,-2.00,+0.00,-2.00,-1.00
+0.00,+22.00,+12.00,+7.00,+0.00,+0.00,-1.00,+0.00,+1.00,+18.00,+5.00,+1.00,+0.00,+0.00,-2.00,+0.00
-3.00,+3.00,+1.00,-1.00,-1.00,+0.00,-1.00,-3.00,-2.00,-7.00,-2.00,-2.00,-1.00,+0.00,-3.00,-3.00
+0.00,+0.00,-2.00,-6.00,+0.00,-2.00,+0.00,+0.00,+1.00,-3.00,-5.00,-1.00,-2.00,-2.00,-1.00,+0.00
-1.00,-5.00,+1.00,+1.00,-1.00,-1.00,-1.00,+0.00,-1.00,+1.00,+1.00,-1.00,-1.00,+0.00,+0.00,-1.00
+0.00,+3.00,-2.00,+3.00,-1.00,-1.00,-3.00,-3.00,-1.00,+8.00,+1.00,-1.00,-1.00,-2.00,+1.00,+2.00
+1.00,-2.00,-7.00,-3.00,+0.00,+0.00,-1.00,+1.00,-2.00,-3.00,-5.00,-1.00,-2.00,-2.00,+0.00,+0.00
-3.00,-10.00,+0.00,+1.00,+1.00,-1.00,+1.00,+1.00,+1.00,-9.00,-2.00,-2.00,-1.00,+0.00,-1.00,-1.00
-1.00,+3.00,-2.00,-2.00,-2.00,-1.00,-1.00,-2.00,+0.00,+1.00,+0.00,+0.00,+0.00,-1.00,-1.00,-2.00
+2.00,+21.00,+4.00,+2.00,+2.00,+1.00,+0.00,+0.00,+0.00,+13.00,+1.00,-1.00,-1.00,-1.00,-1.00,+0.00
-1.00,-12.00,-6.00,+0.00,-1.00,-1.00,-1.00,-1.00,-4.00,-21.00,-6.00,-1.00,-2.00,+1.00,+2.00,+0.00
+0.00,+26.00,+5.00,-1.00,-1.00,+0.00,-4.00,-9.00,-3.00,-4.00,-3.00,-2.00,-1.00,-1.00,+2.00,-3.00
-2.00,-8.00,-2.00,-2.00,-1.00,+0.00,-3.00,-17.00,-4.00,+3.00,+1.00,+0.00,+0.00,-1.00,+0.00,+5.00
-2.00,-7.00,-2.00,+0.00,+1.00,+0.00,+3.00,+31.00,+2.00,+10.00,+1.00,+0.00,-1.00,-2.00,-4.00,+3.00
+1.00,-8.00,-1.00,+1.00,-1.00,-1.00,+1.00,+5.00,-2.00,-3.00,-5.00,-1.00,-1.00,-2.00,-3.00,-8.00
+3.00,-3.00,+1.00,+1.00,-1.00,+1.00,+1.00,+5.00,-3.00,-8.00,+2.00,-2.00,-1.00,-1.00,+0.00,-3.00
+0.00,+7.00,-6.00,-10.00,-3.00,-2.00,-2.00,+1.00,-2.00,+2.00,+3.00,+1.00,-2.00,+1.00,+0.00,-9.00
-3.00,-2.00,-2.00,-5.00,-1.00,-2.00,-4.00,-15.00,-4.00,+1.00,+2.00,+0.00,-1.00,+0.00,+0.00,+2.00
-4.00,-4.00,-7.00,-3.00,-1.00,-1.00,-1.00,-6.00,+7.00,-3.00,-3.00,+0.00,+0.00,-1.00,+0.00,+5.00
-1.00,-2.00,+2.00,+1.00,+0.00,-2.00,-1.00,+2.00,-5.00,-6.00,+23.00,+1.00,+1.00,+0.00,-1.00,-1.00
+1.00,+6.00,+8.00,+3.00,+1.00,+1.00,-1.00,-6.00,+10.00,-1.00,-35.00,-7.00,-2.00,-1.00,+1.00,+3.00
-3.00,-16.00,-13.00,-5.00,-2.00,+0.00,-2.00,-10.00,-1.00,-1.00,-5.00,+0.00,-1.00,-1.00,-4.00,+0.00
-5.00,+1.00,+0.00,+0.00,-2.00,-1.00,-2.00,-6.00,-7.00,-1.00,+3.00,-3.00,-2.00,-3.00,-10.00,-18.00
+5.00,-2.00,+1.00,+0.00,+0.00,-2.00,+3.00,+18.00,+1.00,+1.00,-4.00,-1.00,-3.00,-2.00,+1.00,-10.00
+6.00,+7.00,+2.00,+3.00,+0.00,+1.00,+4.00,+23.00,-5.00,+2.00,+12.00,+1.00,+0.00,+1.00,-2.00,+11.00
+2.00,-4.00,+0.00,-1.00,-2.00,-1.00,+1.00,+2.00,+1.00,+1.00,+5.00,+1.00,-1.00,+0.00,+8.00,+11.00
-6.00,+2.00,-3.00,-1.00,+0.00,+0.00,-2.00,-11.00,-1.00,-1.00,-6.00,+0.00,+0.00,+1.00,+0.00,+7.00
-4.00,-2.00,+8.00,+0.00,+0.00,-1.00,-3.00,-17.00,+0.00,-4.00,-6.00,-1.00,+1.00,-1.00,-4.00,-3.00
+0.00,+1.00,-3.00,+0.00,-1.00,-2.00,-2.00,-1.00,-5.00,+5.00,+29.00,+1.00,+1.00,-1.00,-3.00,-11.00
-1.00,-7.00,-3.00,-2.00,+0.00,-1.00,+0.00,+0.00,-1.00,-14.00,-51.00,-11.00,-3.00,-1.00,-1.00,-5.00
+0.00,+10.00,+20.00,+6.00,+1.00,-2.00,+0.00,-4.00,-9.00,-2.00,+2.00,-3.00,-1.00,-2.00,-2.00,-2.00
-7.00,-10.00,-8.00,-3.00,-2.00,-1.00,+0.00,-2.00,+8.00,+0.00,+1.00,+1.00,-1.00,+0.00,-1.00,+3.00
-7.00,-7.00,-3.00,-1.00,-1.00,-1.00,-2.00,-4.00,-1.00,-1.00,-4.00,-4.00,-1.00,-1.00,+2.00,+1.00
+18.00,+10.00,+3.00,+1.00,+2.00,-1.00,+0.00,-6.00,-1.00,+3.00,+18.00,+2.00,+1.00,-1.00,-4.00,-3.00
-1.00,-5.00,-8.00,-4.00,-3.00,-1.00,+0.00,+11.00,-1.00,+1.00,-2.00,-1.00,-2.00,-3.00,-3.00,-1.00
+1.00,+2.00,-5.00,-3.00,-1.00,-1.00,-1.00,+8.00,-8.00,-4.00,-9.00,-4.00,-2.00,-2.00,-4.00,-3.00
-6.00,-3.00,+0.00,+1.00,+0.00,-2.00,-4.00,-5.00,-2.00,+2.00,+7.00,+2.00,-1.00,+0.00,+6.00,+3.00
-14.00,-7.00,-5.00,+1.00,-1.00,-2.00,-8.00,-31.00,+1.00,+3.00,+21.00,+8.00,+0.00,+0.00,-6.00,-8.00
+6.00,-4.00,-11.00,-5.00,+0.00,+0.00,+1.00,+1.00,+2.00,-12.00,-41.00,-15.00,-4.00,-2.00,-9.00,-10.00
+16.00,+4.00,+13.00,+3.00,+1.00,+2.00,+5.00,+47.00,+1.00,+0.00,+2.00,+1.00,+0.00,+0.00,-2.00,+5.00
+3.00,+0.00,-6.00,-5.00,-1.00,+1.00,+3.00,+3.00,+0.00,-3.00,-10.00,-3.00,-2.00,-1.00,+3.00,+4.00
-4.00,-2.00,+3.00,+0.00,+1.00,+0.00,+0.00,+1.00,-2.00,+3.00,+13.00,+1.00,+0.00,+0.00,+4.00,+0.00
-6.00,-2.00,-5.00,+0.00,-1.00,-1.00,-6.00,-27.00,-2.00,+1.00,+12.00,+6.00,+1.00,+2.00,+5.00,+8.00
-7.00,-4.00,-6.00,-2.00,-3.00,-3.00,-2.00,-19.00,-2.00,-3.00,-12.00,-4.00,+0.00,-3.00,-3.00,-3.00
-2.00,+0.00,+3.00,+0.00,+0.00,-1.00,-2.00,+2.00,-1.00,-3.00,+1.00,-2.00,-2.00,-2.00,-4.00,-6.00
+0.00,+0.00,+2.00,+0.00,-2.00,-2.00,+0.00,-2.00,-3.00,+2.00,+10.00,+2.00,+0.00,-1.00,+1.00,-2.00
-2.00,-1.00,-3.00,-4.00,-2.00,-2.00,-1.00,+8.00,+0.00,-1.00,-10.00,-9.00,-2.00,-1.00,-1.00,-1.00
-1.00,-1.00,-2.00,-1.00,+0.00,-1.00,-3.00,-10.00,+0.00,-1.00,-1.00,-1.00,-1.00,-1.00,-1.00,+2.00
+1.00,+1.00,-2.00,+0.00,+0.00,-1.00,-1.00,+1.00,-8.00,-6.00,-8.00,-1.00,-2.00,+1.00,+3.00,-3.00
-2.00,-6.00,-2.00,-1.00,-3.00,-1.00,-2.00,-15.00,+1.00,+1.00,+2.00,+0.00,+0.00,-1.00,-7.00,-8.00
-1.00,+2.00,+0.00,+1.00,+0.00,-1.00,+1.00,+7.00,-2.00,+1.00,+2.00,+1.00,-3.00,-2.00,-4.00,+0.00
+1.00,-1.00,-2.00,-1.00,-2.00,-1.00,+0.00,+19.00,-3.00,+1.00,+3.00,-1.00,+1.00,+1.00,+6.00,-1.00
+0.00,+0.00,-3.00,+0.00,-1.00,+1.00,-1.00,-22.00,-1.00,-2.00,-2.00,+0.00,+0.00,-1.00,-4.00,-1.00
-2.00,-2.00,+2.00,+2.00,+0.00,+1.00,+3.00,+45.00,-1.00,+1.00,-5.00,-2.00,+0.00,+1.00,+1.00,+3.00
+5.00,+3.00,+3.00,-2.00,-1.00,+0.00,+3.00,-12.00,+1.00,+2.00,+10.00,+3.00,-1.00,-2.00,+1.00,-7.00
-8.00,-3.00,-6.00,+0.00,-1.00,-2.00,-2.00,-9.00,-5.00,-2.00,-5.00,-1.00,-1.00,-1.00,-2.00,+6.00
+6.00,+8.00,+4.00,+0.00,+1.00,+0.00,+2.00,+2.00,-7.00,-2.00,-2.00,+0.00,+0.00,-1.00,-1.00,-5.00
+4.00,+1.00,-10.00,-4.00,-1.00,-1.00,+0.00,-3.00,-2.00,+2.00,+29.00,+3.00,-1.00,-1.00,-3.00,-4.00
-3.00,+0.00,+14.00,+0.00,-2.00,-1.00,-1.00,+4.00,+1.00,-8.00,-35.00,-9.00,-2.00,+0.00,+2.00,+3.00
-4.00,-2.00,-7.00,+1.00,+0.00,-1.00,-3.00,-15.00,+2.00,-6.00,-10.00,-2.00,-2.00,+0.00,+0.00,+0.00
-4.00,+0.00,+3.00,-1.00,-1.00,-1.00,+0.00,-2.00,+2.00,-1.00,-1.00,-1.00,-1.00,+0.00,-2.00,-4.00
-3.00,+1.00,+5.00,+3.00,+2.00,-1.00,-1.00,+4.00,-2.00,+3.00,+5.00,+1.00,-1.00,-2.00,-1.00,+3.00
-2.00,-4.00,-6.00,-2.00,+0.00,-1.00,-2.00,+4.00,-1.00,+1.00,+4.00,-2.00,+0.00,-2.00,+0.00,-1.00
-4.00,-3.00,-8.00,-3.00,-2.00,-1.00,-2.00,-12.00,+0.00,-3.00,+1.00,-1.00,-2.00,-1.00,-3.00,-5.00
-3.00,-1.00,+2.00,-1.00,-3.00,-2.00,-1.00,+2.00,-2.00,-1.00,-1.00,-3.00,-2.00,-3.00,-3.00,-2.00
+1.00,-1.00,+0.00,-1.00,-2.00,-1.00,-1.00,-3.00,-4.00,+1.00,-7.00,+1.00,+1.00,+1.00,+2.00,+1.00
-2.00,-3.00,-3.00,+1.00,-1.00,+0.00,-3.00,-11.00,-9.00,+0.00,+12.00,+4.00,+0.00,-1.00,+3.00,-1.00
-2.00,-2.00,+0.00,-1.00,-1.00,-3.00,-1.00,-4.00,+5.00,+0.00,-8.00,-3.00,-2.00,-2.00,-9.00,-9.00
+1.00,-2.00,-2.00,-3.00,-2.00,+1.00,+3.00,+10.00,-3.00,+0.00,+4.00,+2.00,+0.00,-4.00,-6.00,-2.00
+4.00,-1.00,+1.00,+0.00,-1.00,-1.00,+0.00,+9.00,+1.00,-4.00,-10.00,-5.00,-1.00,-2.00,+2.00,+5.00
-4.00,+0.00,-2.00,+1.00,+0.00,+0.00,-1.00,+8.00,-4.00,-1.00,+5.00,+1.00,-1.00,+0.00,+7.00,+6.00
-1.00,+2.00,+0.00,-1.00,-1.00,-2.00,-4.00,-28.00,-2.00,-2.00,+0.00,-3.00,-1.00,+2.00,+4.00,+0.00
-4.00,-3.00,-1.00,+0.00,+0.00,-1.00,-2.00,-3.00,+0.00,-2.00,-5.00,-2.00,-2.00,-2.00,-1.00,-5.00
+0.00,-3.00,-1.00,-1.00,-1.00,+0.00,+1.00,+22.00,-1.00,-4.00,-10.00,-4.00,-3.00,-2.00,-5.00,-7.00
+2.00,-3.00,-4.00,-4.00,+0.00,-1.00,-1.00,+5.00,+1.00,+0.00,+5.00,+1.00,-1.00,-1.00,-2.00,+3.00
-1.00,+1.00,-1.00,-2.00,+1.00,+0.00,-3.00,-14.00,-2.00,+1.00,+1.00,+1.00,-2.00,-2.00,+0.00,-3.00
-4.00,-2.00,+0.00,-1.00,+0.00,+0.00,-2.00,-5.00,+1.00,-1.00,-1.00,-3.00,-1.00,-2.00,+2.00,+3.00
+1.00,-1.00,+2.00,+0.00,+0.00,+0.00,+1.00,+5.00,+1.00,-1.00,-11.00,-4.00,-2.00,+0.00,+3.00,+3.00
-1.00,+0.00,+0.00,+0.00,+0.00,-1.00,-1.00,+4.00,+1.00,+1.00,+7.00,+0.00,+0.00,+0.00,+0.00,+1.00
