+6.00,+1.00,-4.00,-1.00,-2.00,-2.00,-1.00,+3.00,-2.00,-1.00,+0.00,-2.00,+0.00,-2.00,-3.00,-2.00
+3.00,-2.00,+2.00,-1.00,-2.00,+0.00,+0.00,+0.00,-1.00,-2.00,-3.00,-1.00,+0.00,+0.00,-1.00,+0.00
-5.00,-2.00,+0.00,-1.00,+0.00,-2.00,+0.00,-4.00,-1.00,-1.00,+0.00,-1.00,+0.00,-1.00,-1.00,+0.00
-2.00,-2.00,-1.00,-1.00,-1.00,-2.00,+1.00,+3.00,+1.00,-1.00,-1.00,+0.00,-3.00,-1.00,+0.00,+1.00
+17.00,+2.00,-1.00,-1.00,+0.00,-1.00,-2.00,-6.00,-1.00,+0.00,-2.00,+0.00,-1.00,-2.00,+1.00,+0.00
-5.00,-3.00,+0.00,+1.00,-1.00,-1.00,-1.00,+12.00,-2.00,-1.00,+0.00,-2.00,-2.00,-1.00,-1.00,-2.00
+0.00,-2.00,-2.00,-1.00,-3.00,+1.00,+0.00,-3.00,-2.00,-2.00,-2.00,+0.00,-2.00,+1.00,+1.00,+1.00
+2.00,+2.00,-3.00,-1.00,-2.00,-2.00,+2.00,-4.00,-2.00,-2.00,-2.00,-4.00,-2.00,-2.00,-2.00,+0.00
-3.00,-4.00,-2.00,-2.00,-1.00,-2.00,-5.00,-3.00,-2.00,+2.00,+0.00,-1.00,-1.00,-2.00,-4.00,-4.00
-4.00,-1.00,-2.00,-1.00,-1.00,+0.00,-2.00,-10.00,+1.00,+1.00,-1.00,+0.00,+0.00,-2.00,+0.00,+1.00
-5.00,-4.00,-2.00,-2.00,+1.00,+0.00,-4.00,-2.00,+1.00,+1.00,+0.00,-3.00,+0.00,+4.00,-7.00,+3.00
-6.00,-1.00,-4.00,+0.00,-2.00,+0.00,+7.00,+6.00,-8.00,-20.00,-9.00,-2.00,+1.00,-6.00,-5.00,+0.00
-1.00,+12.00,+3.00,-2.00,+1.00,+5.00,+6.00,+9.00,+8.00,-7.00,+0.00,+0.00,-1.00,+2.00,+1.00,-3.00
-1.00,-5.00,+3.00,-1.00,+1.00,+0.00,-15.00,-6.00,-4.00,+10.00,+5.00,+2.00,+1.00,+0.00,-2.00,-4.00
+2.00,-12.00,-1.00,+3.00,+1.00,+1.00,-1.00,+2.00,+1.00,-1.00,-2.00,-2.00,-1.00,+11.00,+12.00,+1.00
+8.00,-3.00,-4.00,-4.00,-2.00,-3.00,-12.00,-5.00,-8.00,+7.00,+2.00,-1.00,+1.00,+2.00,-4.00,+0.00
-14.00,-3.00,-2.00,-3.00,-4.00,-2.00,+14.00,+10.00,+9.00,-12.00,-6.00,-1.00,+1.00,+2.00,-17.00,+2.00
-1.00,+5.00,-1.00,-4.00,-2.00,+4.00,+33.00,-1.00,+1.00,-1.00,-2.00,-1.00,+0.00,-13.00,+3.00,+0.00
+6.00,-1.00,-5.00,-3.00,-1.00,-1.00,-12.00,-5.00,-2.00,-4.00,-10.00,-5.00,-2.00,-7.00,-15.00,-1.00
-5.00,-1.00,-9.00,-3.00,-2.00,-4.00,+15.00,+23.00,+2.00,-32.00,+0.00,-1.00,+0.00,+20.00,-14.00,-4.00
-9.00,-13.00,-7.00,-2.00,+0.00,-2.00,+9.00,-4.00,+22.00,+32.00,+5.00,-2.00,-2.00,-23.00,+5.00,-4.00
+16.00,+2.00,+21.00,+4.00,+1.00,-3.00,-27.00,+1.00,+4.00,+11.00,+3.00,+3.00,+0.00,+14.00,+7.00,+3.00
+23.00,+17.00,+16.00,+4.00,+1.00,+3.00,+16.00,+7.00,-10.00,+20.00,+10.00,+5.00,+0.00,-5.00,+1.00,-2.00
-7.00,-26.00,-4.00,+2.00,+2.00,+1.00,-11.00,-4.00,+18.00,+5.00,-6.00,+0.00,+2.00,+9.00,+17.00,-4.00
-9.00,-16.00,-8.00,-2.00,-1.00,+3.00,+4.00,-6.00,-24.00,-46.00,-13.00,-2.00,+4.00,-23.00,-18.00,+6.00
-17.00,-12.00,-15.00,-5.00,-6.00,-5.00,-9.00,-18.00,-18.00,-45.00,-29.00,-11.00,-11.00,+4.00,-19.00,-12.00
-5.00,-28.00,-14.00,-4.00,+4.00,-1.00,+39.00,+14.00,+38.00,+95.00,+67.00,+22.00,+31.00,+11.00,+56.00,+4.00
+39.00,+107.00,+47.00,+8.00,-1.00,+0.00,+4.00,+9.00,-25.00,-1.00,+2.00,-1.00,-38.00,-12.00,-55.00,-7.00
-12.00,-45.00,+7.00,+3.00,+4.00,+7.00,-39.00,-4.00,+8.00,+50.00,+3.00,-6.00,-1.00,-6.00,+1.00,-5.00
-6.00,-9.00,-13.00,-1.00,+4.00,+2.00,-28.00,-9.00,-7.00,-40.00,-10.00,-11.00,-18.00,-8.00,+1.00,+2.00
-16.00,-28.00,-9.00,-4.00,-4.00,-13.00,+16.00,+6.00,+2.00,-23.00,-42.00,-17.00,-7.00,-24.00,-45.00,-8.00
-36.00,-60.00,-42.00,-14.00,-2.00,-4.00,-5.00,-32.00,-36.00,-43.00,-31.00,-6.00,+13.00,+21.00,+41.00,+6.00
-1.00,+18.00,-41.00,-9.00,-9.00,-7.00,-9.00,-5.00,+0.00,-19.00,+39.00,+16.00,+27.00,-3.00,+3.00,-7.00
+48.00,+12.00,+72.00,+20.00,+10.00,+4.00,+34.00,+30.00,+47.00,+45.00,+16.00,+5.00,-17.00,+11.00,+16.00,+8.00
+2.00,-70.00,+2.00,+10.00,-3.00,+3.00,-8.00,-1.00,-13.00,-29.00,-2.00,+0.00,-20.00,+3.00,-23.00,-4.00
+8.00,-19.00,+2.00,+5.00,+9.00,+18.00,-14.00,+0.00,-22.00,-10.00,-5.00,-7.00,-8.00,-15.00,-3.00,-3.00
-14.00,-24.00,-12.00,-4.00,-1.00,-3.00,-3.00,-13.00,-59.00,-66.00,-41.00,-14.00,-3.00,+1.00,+9.00,-5.00
-60.00,-81.00,-78.00,-21.00,-17.00,-18.00,-11.00,-5.00,+62.00,-21.00,-27.00,-14.00,-5.00,+8.00,-3.00,+4.00
-5.00,+73.00,+1.00,-11.00,-6.00,-4.00,-15.00,-8.00,-14.00,+23.00,+43.00,+14.00,+17.00,-3.00,-7.00,-9.00
+42.00,-8.00,+28.00,+11.00,+5.00,+5.00,+14.00,+13.00,+5.00,-13.00,+4.00,+2.00,-21.00,-17.00,+3.00,-1.00
+5.00,-10.00,-8.00,+4.00,+0.00,-7.00,-4.00,+6.00,+1.00,+59.00,-1.00,-4.00,-17.00,+14.00,+2.00,+9.00
-6.00,-22.00,+3.00,-1.00,+2.00,+11.00,-21.00,-8.00,-33.00,-74.00,+8.00,+8.00,+15.00,+3.00,+1.00,-1.00
+2.00,+57.00,+36.00,+9.00,+4.00,+5.00,+0.00,+3.00,+19.00,+25.00,-27.00,-6.00,+7.00,-6.00,-27.00,+1.00
-26.00,+20.00,-21.00,-6.00,-8.00,-5.00,-26.00,-5.00,+20.00,+24.00,+6.00,-4.00,-4.00,-5.00,+22.00,-1.00
+0.00,+2.00,+12.00,+0.00,+6.00,-4.00,+4.00,+9.00,-8.00,-30.00,+1.00,-1.00,+0.00,-2.00,+3.00,-13.00
-3.00,-15.00,-24.00,-3.00,-11.00,-15.00,+19.00,+25.00,+8.00,+63.00,-3.00,+4.00,+14.00,+28.00,-15.00,+13.00
-16.00,-42.00,-22.00,-5.00,-4.00,-2.00,-3.00,-25.00,-20.00,-62.00,-29.00,-11.00,-29.00,+3.00,+1.00,+1.00
-6.00,+65.00,+17.00,-1.00,-4.00,-5.00,-9.00,-7.00,+10.00,+26.00,+29.00,+8.00,+20.00,-14.00,-10.00,-3.00
+2.00,+6.00,+44.00,+11.00,+6.00,+4.00,+13.00,+5.00,-36.00,+6.00,-6.00,+1.00,-7.00,+7.00,-1.00,-2.00
+16.00,+52.00,+1.00,+3.00,+2.00,+2.00,+9.00,-2.00,-17.00,-36.00,-13.00,-7.00,+2.00,-20.00,-4.00,-6.00
+9.00,-6.00,-10.00,-5.00,-5.00,+3.00,-20.00,+2.00,+5.00,+49.00,+22.00,+3.00,+4.00,+4.00,+32.00,+2.00
-16.00,-27.00,-27.00,-2.00,-2.00,-5.00,+17.00,+20.00,+8.00,+3.00,+4.00,+1.00,+12.00,+3.00,-13.00,+1.00
-3.00,-9.00,+3.00,-2.00,-3.00,+5.00,+13.00,-11.00,+1.00,-4.00,-13.00,-2.00,-12.00,-6.00,-2.00,+9.00
+3.00,+7.00,+27.00,+2.00,+2.00,+3.00,+3.00,+1.00,-2.00,+26.00,+14.00,+2.00,+1.00,-12.00,-2.00,-4.00
-4.00,-29.00,-13.00,-1.00,+3.00,+0.00,-3.00,-5.00,-7.00,-37.00,-9.00,-2.00,-2.00,+4.00,+1.00,-2.00
+7.00,+0.00,+7.00,+1.00,+1.00,+0.00,-3.00,-9.00,-7.00,+2.00,-7.00,-2.00,-2.00,-5.00,+5.00,-3.00
+0.00,+0.00,-7.00,-2.00,-5.00,-6.00,-3.00,-1.00,+5.00,-62.00,-6.00,-5.00,+1.00,+1.00,-24.00,-5.00
+0.00,-50.00,-23.00,-9.00,-5.00,+0.00,-7.00,-16.00,-5.00,+85.00,+0.00,-3.00,+0.00,-3.00,+54.00,+1.00
-49.00,-77.00,-43.00,-12.00,-5.00,-10.00,-20.00,-7.00,-18.00,+9.00,+6.00,+9.00,+5.00,-3.00,-10.00,+2.00
+56.00,+60.00,+91.00,+30.00,+9.00,+13.00,+38.00,+35.00,+12.00,+102.00,+30.00,+5.00,-2.00,+9.00,-20.00,-8.00
+11.00,-39.00,-16.00,-1.00,+6.00,+14.00,+45.00,+6.00,+10.00,-4.00,-2.00,-2.00,+9.00,-4.00,+26.00,+5.00
-9.00,+17.00,+2.00,+3.00,-11.00,-8.00,+12.00,-6.00,-33.00,-80.00,-5.00,-1.00,+13.00,+6.00,-28.00,-13.00
+5.00,+0.00,-10.00,-2.00,+3.00,-3.00,-45.00,-15.00,+7.00,+3.00,-10.00,-6.00,-2.00,+1.00,+15.00,-10.00
-27.00,-40.00,-35.00,-15.00,-10.00,-9.00,-9.00,+5.00,-7.00,-92.00,-29.00,-9.00,-21.00,-2.00,+12.00,+15.00
-4.00,+2.00,+2.00,-4.00,-1.00,-7.00,-15.00,-7.00,+10.00,+56.00,+24.00,+5.00,+11.00,+6.00,-5.00,+3.00
+5.00,+4.00,-6.00,+0.00,+5.00,+19.00,-10.00,+0.00,-8.00,+40.00,+7.00,+5.00,+25.00,-1.00,+11.00,+4.00
+20.00,+105.00,+37.00,+6.00,-2.00,-23.00,+27.00,+15.00,+47.00,+30.00,-2.00,-11.00,-32.00,-19.00,-35.00,-3.00
-32.00,-91.00,-24.00,-4.00,+2.00,+4.00,+11.00,-2.00,-7.00,-39.00,-14.00,-4.00,-6.00,-6.00,-11.00,-11.00
+23.00,+6.00,+15.00,+2.00,-3.00,-3.00,-1.00,+6.00,+37.00,+6.00,+5.00,+2.00,-6.00,+3.00,-2.00,-1.00
-8.00,+8.00,-13.00,-4.00,+2.00,+0.00,-2.00,-8.00,+16.00,-32.00,-4.00,+2.00,+7.00,-3.00,+2.00,-7.00
+18.00,-4.00,+6.00,-4.00,-4.00,+9.00,-6.00,-19.00,-15.00,+3.00,+6.00,+2.00,+9.00,+5.00,+1.00,+2.00
+2.00,-34.00,-24.00,-3.00,+3.00,-1.00,-3.00,+5.00,+28.00,-37.00,-33.00,-10.00,+1.00,-6.00,-1.00,-12.00
+4.00,+10.00,+13.00,+0.00,-7.00,-6.00,-4.00,+6.00,+22.00,+29.00,+28.00,+7.00,+3.00,+7.00,+17.00,+4.00
+22.00,+62.00,+19.00,+7.00,+7.00,+3.00,-14.00,-8.00,+29.00,-48.00,-22.00,-7.00,-14.00,-13.00,-4.00,+16.00
-56.00,-42.00,+4.00,-4.00,-3.00,+1.00,+11.00,-27.00,-56.00,-22.00,+18.00,+1.00,-2.00,-4.00,-10.00,-8.00
+35.00,+25.00,+2.00,-3.00,-3.00,-9.00,+11.00,+14.00,+37.00,+92.00,+11.00,-2.00,+2.00,-6.00,-10.00,+19.00
-13.00,-28.00,-43.00,-7.00,-6.00,-2.00,-10.00,-51.00,-26.00,-52.00,-22.00,-6.00,-4.00,+2.00,-4.00,-12.00
+41.00,-3.00,+34.00,+3.00,+3.00,-1.00,+4.00,+60.00,-44.00,+22.00,+3.00,+0.00,-8.00,+2.00,-24.00,-38.00
+26.00,+17.00,+11.00,+6.00,+4.00,+7.00,+7.00,+6.00,+19.00,+24.00,-17.00,-7.00,+1.00,-8.00,+30.00,+30.00
-90.00,-102.00,-31.00,-13.00,-12.00,-8.00,+32.00,-21.00,+29.00,-93.00,-7.00,-2.00,-1.00,+20.00,+14.00,-26.00
+20.00,+87.00,+31.00,+9.00,+1.00,-9.00,-95.00,-13.00,+28.00,+63.00,+23.00,+10.00,+5.00,-24.00,-29.00,-2.00
+32.00,-27.00,-15.00,-6.00,-5.00,+2.00,+32.00,+26.00,-4.00,+16.00,+8.00,+3.00,-16.00,+47.00,+22.00,+13.00
+6.00,-22.00,-3.00,+3.00,+6.00,+12.00,-5.00,+16.00,+5.00,-47.00,-26.00,-7.00,+7.00,-7.00,-12.00,-7.00
-18.00,-18.00,-1.00,-3.00,+1.00,+5.00,+8.00,-21.00,-35.00,+21.00,+6.00,+0.00,-11.00,+3.00,+16.00,-8.00
-4.00,-23.00,-3.00,-1.00,+0.00,-15.00,+35.00,+6.00,-13.00,+31.00,+0.00,-6.00,+5.00,-13.00,-46.00,+7.00
-31.00,-10.00,-35.00,-5.00,-3.00,-7.00,-36.00,-54.00,-29.00,-101.00,-13.00,+7.00,+44.00,+2.00,+12.00,-8.00
+14.00,+64.00,+35.00,+0.00,-10.00,+6.00,+53.00,+31.00,-11.00,+62.00,+6.00,-6.00,-40.00,-7.00,-11.00,+2.00
+7.00,-49.00,-24.00,-4.00,-2.00,-15.00,-50.00,-10.00,+20.00,-6.00,+10.00,+3.00,+2.00,-9.00,-4.00,+17.00
-14.00,+77.00,+40.00,+9.00,+3.00,+8.00,-32.00,+9.00,+4.00,-42.00,-18.00,-2.00,-4.00,+4.00,+2.00,+4.00
-17.00,-3.00,+4.00,-1.00,+0.00,-6.00,-12.00,-5.00,-16.00,+93.00,+36.00,+10.00,+13.00,-2.00,-3.00,+3.00
+25.00,-32.00,-32.00,-1.00,+0.00,-7.00,+13.00,-10.00,-43.00,-61.00,-26.00,+1.00,+26.00,+6.00,+12.00,-10.00
+10.00,+30.00,+19.00,-4.00,+4.00,+12.00,-15.00,-7.00,-1.00,-52.00,-5.00,-2.00,+5.00,-6.00,-16.00,+5.00
-8.00,-19.00,+8.00,-5.00,-4.00,+3.00,+43.00,+14.00,-54.00,-53.00,-28.00,-9.00,-13.00,+9.00,+11.00,-2.00
+0.00,+17.00,+11.00,-1.00,-2.00,-1.00,-2.00,-9.00,+15.00,+116.00,+51.00,+6.00,-11.00,-22.00,-8.00,-8.00
+12.00,+35.00,-20.00,+1.00,+3.00,+0.00,-13.00,+5.00,-19.00,-111.00,-13.00,+1.00,-2.00,+19.00,-12.00,-1.00
+16.00,+0.00,-2.00,+5.00,+2.00,+2.00,-7.00,-10.00,-9.00,+127.00,+1.00,-7.00,-3.00,-8.00,-20.00,-7.00
-11.00,-111.00,-35.00,-9.00,-6.00,+0.00,-18.00,+2.00,-36.00,-7.00,+8.00,+6.00,+1.00,+9.00,-13.00,+0.00
-16.00,-19.00,+6.00,+1.00,+1.00,-4.00,+19.00,-3.00,+2.00,-109.00,-27.00,-10.00,-18.00,-21.00,+0.00,+7.00
-11.00,+39.00,+39.00,+0.00,+1.00,+1.00,-1.00,+0.00,+29.00,-14.00,+4.00,-1.00,-1.00,-5.00,+8.00,-4.00
+6.00,+85.00,+3.00,+1.00,-4.00,-7.00,-23.00,-6.00,-39.00,+34.00,+15.00,+7.00,+15.00,+18.00,-4.00,+5.00
+20.00,-33.00,-40.00,-6.00,+1.00,+4.00,+3.00,+3.00,+9.00,+47.00,+1.00,-5.00,+1.00,+2.00,-18.00,+4.00
-9.00,-16.00,+27.00,+3.00,+2.00,+0.00,+30.00,-3.00,-17.00,-13.00,-1.00,-1.00,-14.00,-15.00,+23.00,-6.00
+23.00,-20.00,-19.00,+3.00,-1.00,-4.00,-29.00,-1.00,+8.00,-4.00,+0.00,+1.00,+16.00,+2.00,+11.00,-5.00
-7.00,+3.00,-10.00,-5.00,-6.00,-4.00,-8.00,-2.00,+7.00,-50.00,-27.00,-5.00,-7.00,-4.00,+8.00,-1.00
-16.00,+5.00,+11.00,-5.00,-8.00,+9.00,-47.00,-2.00,+19.00,+18.00,+10.00,-13.00,-46.00,-12.00,+13.00,-17.00
+6.00,+2.00,+4.00,+1.00,+2.00,-10.00,+39.00,+20.00,+6.00,-20.00,-12.00,+3.00,+3.00,+11.00,-17.00,+23.00
-22.00,-29.00,+9.00,+2.00,+8.00,+8.00,-45.00,+6.00,-18.00,+28.00,+10.00,-2.00,+3.00,-9.00,-7.00,-8.00
-6.00,-28.00,-22.00,-7.00,-10.00,-12.00,+17.00,+5.00,-50.00,-76.00,+11.00,+7.00,+12.00,-5.00,+53.00,-6.00
+43.00,+98.00,+7.00,+4.00,-3.00,+1.00,-3.00,-11.00,+76.00,+108.00,+10.00,+7.00,+32.00,+9.00,+18.00,+17.00
-23.00,+15.00,+20.00,+1.00,+8.00,+5.00,-8.00,-2.00,+17.00,-43.00,-25.00,-16.00,-58.00,-8.00,+1.00,-8.00
-5.00,-35.00,+0.00,+1.00,-7.00,-15.00,+22.00,+9.00,+45.00,-13.00,-14.00,-6.00,+0.00,-13.00,-32.00,+2.00
-9.00,+9.00,-1.00,-4.00,+8.00,+1.00,-20.00,-26.00,-1.00,+93.00,+27.00,+8.00,+16.00,+4.00,-7.00,-6.00
-13.00,-17.00,-4.00,+1.00,-11.00,-3.00,+19.00,+1.00,+2.00,-89.00,-29.00,-7.00,-30.00,-19.00,-14.00,+4.00
-25.00,-16.00,-28.00,-7.00,-3.00,+5.00,-5.00,-15.00,+9.00,-31.00,+3.00,-2.00,+0.00,+49.00,+36.00,-9.00
+15.00,+49.00,-18.00,-13.00,-18.00,-1.00,+21.00,-9.00,-21.00,-63.00,+12.00,+0.00,+30.00,-31.00,+8.00,+8.00
+24.00,+66.00,+50.00,+12.00,+15.00,-15.00,-64.00,+3.00,-15.00,-39.00,-9.00,+0.00,-10.00,-4.00,-9.00,-5.00
-7.00,-35.00,+19.00,+5.00,+9.00,-16.00,+14.00,+3.00,+1.00,-13.00,+3.00,-1.00,+1.00,-1.00,+5.00,+1.00
-2.00,-28.00,-2.00,+1.00,-3.00,-14.00,-4.00,-7.00,+1.00,+34.00,-3.00,+1.00,+6.00,-9.00,-15.00,+4.00
-11.00,+7.00,-15.00,-3.00,-7.00,-3.00,-17.00,-12.00,+46.00,-7.00,-8.00,-1.00,-16.00,+18.00,+23.00,-6.00
-4.00,-43.00,-17.00,-6.00,-9.00,+5.00,+54.00,+23.00,+36.00,+1.00,+2.00,+1.00,+0.00,-23.00,-30.00,+3.00
+15.00,+35.00,-1.00,+0.00,+4.00,+8.00,-8.00,+0.00,-24.00,-38.00,-14.00,+8.00,+27.00,+15.00,+2.00,+5.00
-18.00,-4.00,-3.00,-1.00,-21.00,+9.00,-7.00,+46.00,+2.00,+62.00,+12.00,+4.00,+7.00,-23.00,-24.00,-17.00
+1.00,-92.00,-30.00,-2.00,+36.00,+9.00,-6.00,-14.00,-3.00,+98.00,+32.00,-14.00,-91.00,-6.00,-2.00,+1.00
-4.00,+51.00,+44.00,+7.00,-8.00,-19.00,+16.00,+5.00,-17.00,-52.00,-14.00,-2.00,+1.00,+12.00,-1.00,+2.00
+13.00,+16.00,+9.00,+5.00,+5.00,-13.00,+4.00,+4.00,+15.00,+50.00,+3.00,-4.00,+41.00,+16.00,+5.00,-4.00
+7.00,-2.00,-18.00,-4.00,-2.00,+11.00,-8.00,-25.00,-16.00,-6.00,+4.00,+2.00,+8.00,-8.00,-25.00,-10.00
+2.00,+10.00,-2.00,-2.00,-14.00,-4.00,+8.00,+23.00,-10.00,-50.00,-33.00,+34.00,+86.00,+9.00,-9.00,-5.00
+1.00,-17.00,-26.00,-11.00,+27.00,+42.00,-2.00,+16.00,+41.00,+19.00,-5.00,-17.00,-87.00,-39.00,+35.00,+56.00
-38.00,-82.00,+28.00,+9.00,-31.00,-48.00,+10.00,-11.00,-23.00,+48.00,+63.00,-13.00,-75.00,-4.00,+26.00,-20.00
+14.00,+9.00,+6.00,+5.00,+19.00,-8.00,-24.00,-13.00,+20.00,-12.00,-6.00,-10.00,-15.00,+1.00,+8.00,+6.00
-9.00,-49.00,+1.00,+3.00,+5.00,-2.00,-4.00,+0.00,-29.00,-45.00,-10.00,-8.00,+35.00,-3.00,-5.00,-10.00
-8.00,-65.00,-31.00,-9.00,-10.00,-4.00,+17.00,-23.00,-16.00,-49.00,-7.00,+13.00,+31.00,+8.00,-10.00,-12.00
+10.00,+21.00,-12.00,-3.00,-1.00,+18.00,+10.00,+22.00,+23.00,-4.00,-22.00,-2.00,-8.00,+6.00,+3.00,-1.00
+6.00,-9.00,-17.00,-5.00,+0.00,+4.00,-6.00,-11.00,-69.00,-86.00,-34.00,-8.00,+34.00,-24.00,-29.00,+2.00
-15.00,+2.00,-6.00,+0.00,+0.00,+22.00,+2.00,-4.00,+126.00,+127.00,+42.00,-6.00,-57.00,+2.00,-1.00,+3.00
-7.00,-128.00,-32.00,-1.00,-8.00,+1.00,-10.00,-14.00,+17.00,-12.00,+0.00,+1.00,+24.00,+6.00,+1.00,-6.00
-2.00,+40.00,+10.00,-7.00,+2.00,+10.00,-2.00,+24.00,-40.00,-73.00,-21.00,-3.00,-7.00,+2.00,-5.00,-8.00
+33.00,+81.00,+17.00,+5.00,-3.00,-2.00,+17.00,+8.00,-10.00,+27.00,+5.00,-5.00,-2.00,+3.00,-5.00,-2.00
-12.00,-8.00,-28.00,-6.00,-3.00,-6.00,-10.00,-5.00,-33.00,-31.00,-23.00,-2.00,+6.00,+7.00,+8.00,+2.00
-7.00,-3.00,-7.00,-4.00,-11.00,-5.00,-4.00,-5.00,-8.00,+21.00,+15.00,+0.00,+3.00,+10.00,-1.00,-4.00
-4.00,+6.00,+1.00,+1.00,+10.00,+18.00,+15.00,-7.00,+19.00,-13.00,-20.00,+5.00,+59.00,-7.00,+0.00,+3.00
-7.00,-26.00,-4.00,-5.00,-3.00,-13.00,-36.00,-9.00,-14.00,+5.00,+21.00,+1.00,-76.00,+12.00,-20.00,-1.00
-1.00,+22.00,+33.00,+1.00,-5.00,+24.00,-20.00,+5.00,+3.00,+28.00,+3.00,-13.00,-46.00,+45.00,+85.00,+16.00
+4.00,+16.00,+0.00,+3.00,+20.00,-33.00,-23.00,-10.00,+2.00,-9.00,-13.00,-4.00,-13.00,-22.00,-25.00,-8.00
+8.00,-24.00,-9.00,+2.00,-6.00,-3.00,+15.00,+4.00,-11.00,+18.00,+19.00,+4.00,+6.00,+2.00,+8.00,-6.00
+5.00,-10.00,+4.00,-2.00,+4.00,-10.00,+10.00,+6.00,-10.00,+9.00,-5.00,+3.00,+31.00,-6.00,+0.00,-2.00
+16.00,+6.00,+1.00,-3.00,+18.00,-6.00,+10.00,-19.00,-30.00,-26.00,-5.00,-10.00,-28.00,-8.00,-13.00,+1.00
+1.00,+29.00,-8.00,-3.00,-23.00,-9.00,-8.00,+19.00,+4.00,-76.00,-30.00,-4.00,+1.00,+15.00,-10.00,+1.00
-12.00,-70.00,+6.00,-3.00,+12.00,+47.00,+4.00,-13.00,+51.00,+68.00,+35.00,+10.00,+40.00,+0.00,+3.00,+0.00
-4.00,+11.00,-9.00,-1.00,-27.00,-18.00,+0.00,-1.00,-19.00,+27.00,+31.00,+3.00,-9.00,-8.00,-9.00,-4.00
+14.00,+22.00,+22.00,+5.00,+4.00,-32.00,+21.00,+7.00,-4.00,-44.00,-23.00,-8.00,-10.00,-67.00,-25.00,+8.00
+2.00,+18.00,-11.00,-2.00,-4.00,+3.00,-31.00,-7.00,-45.00,+14.00,+33.00,+7.00,+15.00,+74.00,+54.00,-3.00
+19.00,+45.00,+43.00,+6.00,+9.00,-7.00,-10.00,-10.00,-6.00,-93.00,-36.00,-7.00,+4.00,-6.00,-6.00,+3.00
-6.00,-44.00,-21.00,-2.00,+6.00,+31.00,+19.00,-5.00,+30.00,-4.00,+9.00,+6.00,+16.00,+5.00,+2.00,-6.00
-5.00,-7.00,-7.00,-3.00,-8.00,-19.00,-13.00,+9.00,+30.00,+54.00,+8.00,+2.00,-4.00,+14.00,+6.00,+8.00
-16.00,-23.00,-12.00,+3.00,+1.00,+4.00,+18.00,-6.00,-32.00,-30.00,-33.00,-12.00,+6.00,-25.00,-20.00,-11.00
-6.00,-2.00,+4.00,-7.00,-1.00,-13.00,-14.00,-3.00,+3.00,+86.00,+36.00,+5.00,-22.00,-3.00,+5.00,-2.00
-2.00,+0.00,-10.00,+2.00,+11.00,+7.00,+9.00,+0.00,+0.00,-42.00,-11.00,+4.00,+33.00,+18.00,+16.00,+7.00
+6.00,+37.00,+29.00,+0.00,-4.00,-2.00,-2.00,+1.00,-39.00,-50.00,-12.00,-5.00,-24.00,-1.00,-9.00,-8.00
-9.00,+12.00,-3.00,-1.00,-5.00,-1.00,+13.00,-7.00,+9.00,+28.00,+6.00,+4.00,+12.00,-21.00,-31.00,-6.00
+10.00,+15.00,-2.00,-2.00,-6.00,-6.00,-1.00,-5.00,-25.00,-128.00,-43.00,-11.00,-19.00,+13.00,-11.00,+1.00
+4.00,+4.00,-3.00,+1.00,-15.00,-4.00,-14.00,-12.00,+20.00,+89.00,+33.00,+4.00,+22.00,-43.00,+38.00,-6.00
-13.00,-47.00,-7.00,+1.00,-8.00,+37.00,-8.00,+3.00,-39.00,-23.00,-2.00,-11.00,+4.00,+41.00,-46.00,-9.00
+20.00,+34.00,+15.00,+1.00,+16.00,-13.00,+13.00,+4.00,+47.00,+56.00,+17.00,-3.00,-28.00,+10.00,+20.00,+14.00
-22.00,-19.00,-19.00,-1.00,-1.00,-23.00,+0.00,-1.00,-5.00,-13.00,-9.00,+1.00,-24.00,-54.00,-3.00,+0.00
+3.00,+4.00,+9.00,+4.00,+8.00,+8.00,+8.00,+2.00,+26.00,+16.00,-13.00,+0.00,+14.00,+38.00,-3.00,+8.00
-9.00,-30.00,-18.00,+0.00,+4.00,+9.00,-4.00,-19.00,-16.00,-55.00,-20.00,+10.00,+16.00,-13.00,+1.00,-5.00
+5.00,-2.00,+12.00,+0.00,-11.00,+13.00,+26.00,+20.00,+11.00,+26.00,+27.00,+1.00,-3.00,+3.00,+5.00,-18.00
+9.00,+5.00,-18.00,+4.00,-7.00,-4.00,-25.00,+0.00,-24.00,-48.00,-20.00,-4.00,+6.00,+0.00,-9.00,+6.00
-11.00,-11.00,-40.00,-9.00,+4.00,-1.00,-8.00,-10.00,+13.00,+1.00,+4.00,+0.00,-4.00,-11.00,-6.00,+9.00
-13.00,+54.00,+34.00,+9.00,+3.00,-13.00,+20.00,+12.00,-7.00,-32.00,-10.00,+3.00,+25.00,+1.00,+5.00,+11.00
-2.00,-31.00,+4.00,-2.00,-6.00,+3.00,-3.00,+1.00,+32.00,-24.00,-35.00,-7.00,+9.00,-6.00,-19.00,-11.00
-19.00,-25.00,-19.00,-7.00,+0.00,-12.00,+7.00,-3.00,-26.00,+22.00,+43.00,+13.00,+34.00,+10.00,+11.00,-1.00
+23.00,+59.00,+12.00,+2.00,+3.00,+19.00,-3.00,+8.00,-7.00,-36.00,-24.00,-8.00,-42.00,-12.00,-30.00,-4.00
-1.00,-10.00,-6.00,-2.00,+5.00,-20.00,-18.00,-10.00,+5.00,+9.00,-1.00,-7.00,-38.00,+2.00,+64.00,+1.00
-4.00,+17.00,+10.00,+1.00,+0.00,-3.00,+8.00,-12.00,-9.00,-2.00,+2.00,+3.00,+16.00,-10.00,-12.00,-2.00
-7.00,+7.00,+5.00,-3.00,-3.00,+11.00,+4.00,-1.00,+26.00,+30.00,-2.00,-5.00,-19.00,+8.00,+10.00,+0.00
-13.00,-45.00,+11.00,+2.00,+4.00,-10.00,+1.00,-6.00,-10.00,-2.00,+0.00,-1.00,+5.00,-3.00,+2.00,-4.00
+10.00,+34.00,-20.00,-3.00,-18.00,+12.00,+20.00,+12.00,-9.00,-20.00,-6.00,+4.00,+32.00,-6.00,-33.00,-13.00
+9.00,+25.00,+42.00,+7.00,+13.00,+9.00,-5.00,+7.00,+0.00,+62.00,+14.00,+12.00,+31.00,+0.00,+6.00,+12.00
-11.00,-40.00,-16.00,-3.00,+3.00,-15.00,-13.00,-8.00,-34.00,-81.00,-7.00,-1.00,-17.00,-2.00,+28.00,-11.00
+7.00,+67.00,+10.00,+0.00,-11.00,+40.00,+28.00,+3.00,+12.00,-6.00,-4.00,-10.00,-82.00,+11.00,-33.00,+1.00
-4.00,-7.00,-7.00,+1.00,-4.00,-1.00,-44.00,-17.00,+1.00,-6.00,+1.00,+3.00,-6.00,-16.00,-14.00,-11.00
+4.00,+4.00,-11.00,-6.00,-5.00,+26.00,-2.00,+18.00,-5.00,-13.00,-10.00,-10.00,+26.00,-7.00,-4.00,-10.00
+2.00,-1.00,-9.00,-2.00,+17.00,-3.00,+8.00,+22.00,+9.00,+32.00,-11.00,-17.00,-8.00,-4.00,-41.00,-4.00
-3.00,-14.00,+1.00,-2.00,-9.00,-43.00,+10.00,+14.00,-5.00,-31.00,-12.00,-2.00,+6.00,+4.00,+25.00,+14.00
-9.00,-34.00,-7.00,-5.00,-5.00,-4.00,-20.00,-18.00,+13.00,+7.00,+19.00,+7.00,-4.00,-4.00,-6.00,-2.00
+14.00,+48.00,+7.00,+4.00,+18.00,+2.00,+8.00,-12.00,-5.00,+36.00,+30.00,+7.00,+19.00,-16.00,-2.00,-3.00
+5.00,+11.00,+2.00,+1.00,-6.00,-11.00,+16.00,-8.00,-21.00,-5.00,+0.00,+4.00,-32.00,+17.00,-11.00,-5.00
+0.00,-17.00,-9.00,-1.00,-14.00,+6.00,-23.00,-6.00,+24.00,-11.00,-16.00,-6.00,+17.00,-1.00,-1.00,+9.00
-7.00,-2.00,+7.00,-1.00,+4.00,-9.00,+40.00,+3.00,-5.00,+8.00,+3.00,+3.00,+20.00,+3.00,+3.00,+5.00
-8.00,-17.00,+2.00,+0.00,+1.00,-11.00,-12.00,-16.00,-5.00,-17.00,-6.00,+1.00,-21.00,-10.00,-5.00,-3.00
+0.00,+14.00,-10.00,-5.00,-3.00,+15.00,+9.00,+3.00,+13.00,-4.00,-15.00,-4.00,+20.00,-2.00,+9.00,+0.00
-14.00,-4.00,+0.00,-1.00,+7.00,-9.00,-10.00,+4.00,-26.00,-49.00,-6.00,+1.00,+4.00,-3.00,-6.00,-6.00
-5.00,+13.00,+2.00,-1.00,-10.00,-2.00,+0.00,+16.00,-20.00,+17.00,+27.00,+13.00,+10.00,-4.00,+0.00,-2.00
+1.00,+3.00,+12.00,-2.00,-4.00,+31.00,-8.00,-18.00,+4.00,-13.00,+0.00,-5.00,-10.00,+2.00,+6.00,+4.00
-3.00,+5.00,+1.00,-1.00,-30.00,+15.00,+0.00,-2.00,-19.00,-9.00,-4.00,+5.00,+40.00,+6.00,-29.00,-5.00
+3.00,-5.00,+9.00,+4.00,+26.00,-64.00,-15.00,-2.00,+7.00,+5.00,-10.00,-5.00,+19.00,-1.00,+59.00,-8.00
-2.00,-11.00,+6.00,+0.00,-3.00,+14.00,+0.00,-6.00,-4.00,+2.00,-8.00,-5.00,-7.00,-5.00,-10.00,-10.00
-4.00,-17.00,-12.00,-3.00,-3.00,-21.00,-11.00,+8.00,+5.00,+6.00,+4.00,+5.00,+13.00,+13.00,+6.00,+1.00
+0.00,-5.00,-5.00,-3.00,-15.00,-2.00,+8.00,+16.00,+7.00,+12.00,-4.00,-6.00,-32.00,+1.00,-5.00,-1.00
-4.00,-20.00,+7.00,-3.00,+39.00,+34.00,-16.00,-7.00,+3.00,+22.00,+4.00,+0.00,-27.00,-20.00,-15.00,+9.00
+6.00,-9.00,-6.00,+2.00,-15.00,-38.00,-1.00,+1.00,-3.00,+4.00,+0.00,+22.00,+119.00,+31.00,+6.00,-6.00
+0.00,-4.00,-9.00,-5.00,-13.00,+33.00,-4.00,-18.00,-4.00,-17.00,-17.00,-39.00,-96.00,-19.00,+12.00,+5.00
-6.00,-8.00,-6.00,-3.00,-11.00,-63.00,-19.00,-13.00,+15.00,+19.00,+2.00,-8.00,-24.00,-11.00,+2.00,-4.00
-12.00,-5.00,+3.00,+3.00,-1.00,-47.00,+10.00,+4.00,-6.00,+3.00,+3.00,-4.00,+8.00,-8.00,-8.00,-9.00
+0.00,+3.00,-1.00,-1.00,+13.00,+0.00,+0.00,-12.00,+3.00,+0.00,-7.00,-7.00,-48.00,-4.00,-1.00,-1.00
+4.00,-3.00,-4.00,+1.00,-17.00,-16.00,+2.00,+29.00,-13.00,-46.00,-13.00,+10.00,+32.00,+8.00,-44.00,-7.00
-3.00,+6.00,+0.00,-1.00,+32.00,+70.00,+8.00,-7.00,+1.00,+35.00,+35.00,+39.00,+26.00,+19.00,+54.00,+7.00
-4.00,+6.00,-5.00,-1.00,-58.00,-15.00,+32.00,-9.00,-2.00,+4.00,+1.00,-20.00,+23.00,-18.00,-3.00,-5.00
+7.00,+13.00,-6.00,-11.00,+7.00,-32.00,-47.00,-1.00,+0.00,-1.00,-3.00,+1.00,-47.00,-3.00,-30.00,-8.00
+7.00,+8.00,+2.00,-1.00,+1.00,-13.00,+28.00,+26.00,-19.00,-7.00,-9.00,-24.00,-84.00,-21.00,-32.00,-9.00
+8.00,+2.00,-6.00,+4.00,+24.00,+33.00,+6.00,-11.00,+15.00,-11.00,-14.00,-4.00,+8.00,+2.00,+12.00,+17.00
-15.00,-11.00,+3.00,+4.00,+7.00,-10.00,+15.00,+0.00,+17.00,-4.00,-3.00,+12.00,+36.00,+17.00,+1.00,+1.00
+0.00,-18.00,+3.00,+0.00,-2.00,+36.00,+5.00,-16.00,+1.00,+3.00,+7.00,+3.00,+34.00,+8.00,+13.00,-2.00
+1.00,-4.00,-5.00,-5.00,-20.00,-28.00,-4.00,-4.00,-11.00,+11.00,+14.00,+19.00,+73.00,+15.00,+30.00,+10.00
+6.00,+15.00,-3.00,+4.00,+25.00,+54.00,-9.00,-1.00,-3.00,-27.00,-19.00,-26.00,-77.00,-40.00,-24.00,-11.00
-12.00,-28.00,-8.00,-11.00,-28.00,-22.00,-2.00,-13.00,-12.00,+16.00,-1.00,+13.00,+52.00,+23.00,+1.00,+0.00
+2.00,+6.00,+1.00,+5.00,-36.00,-9.00,-2.00,+16.00,+10.00,+3.00,+10.00,+7.00,-12.00,+0.00,-8.00,+2.00
+10.00,+22.00,+2.00,+4.00,+19.00,-33.00,-4.00,-8.00,-5.00,+3.00,-1.00,-6.00,+7.00,+0.00,-39.00,-4.00
-6.00,-7.00,-5.00,-9.00,+20.00,+8.00,+0.00,+2.00,-16.00,-2.00,+3.00,+44.00,+79.00,+17.00,+30.00,-26.00
+6.00,-20.00,-12.00,-12.00,-11.00,+82.00,-17.00,-9.00,+7.00,-11.00,-9.00,-50.00,-112.00,-23.00,-60.00,+14.00
-27.00,-10.00,-2.00,+1.00,-38.00,-96.00,+2.00,+6.00,+15.00,+13.00,-5.00,-18.00,-58.00,-28.00,-68.00,+8.00
-13.00,-3.00,+4.00,+3.00,+36.00,-65.00,+30.00,-28.00,-13.00,+0.00,-4.00,-11.00,-49.00,-6.00,+10.00,-12.00
+3.00,+0.00,-2.00,+3.00,+6.00,+4.00,-22.00,-15.00,-6.00,+1.00,-1.00,+15.00,+65.00,+17.00,-7.00,+2.00
+7.00,+4.00,-3.00,-3.00,+39.00,+34.00,+14.00,+18.00,-16.00,-6.00,+0.00,+21.00,+65.00,-9.00,+29.00,-17.00
-11.00,-30.00,-15.00,+1.00,-1.00,+62.00,+0.00,-12.00,-15.00,-7.00,-4.00,-2.00,+28.00,+5.00,+10.00,-16.00
+15.00,+8.00,+2.00,-4.00,-6.00,-39.00,-31.00,+0.00,+27.00,+18.00,+7.00,-6.00,-31.00,-17.00,-19.00,+22.00
-23.00,+9.00,+3.00,-1.00,-56.00,-100.00,+1.00,-8.00,-3.00,-15.00,-15.00,-53.00,+29.00,+9.00,+26.00,+19.00
-7.00,+6.00,+2.00,-1.00,-11.00,-27.00,-16.00,+0.00,-4.00,+8.00,+6.00,+25.00,-18.00,-21.00,-41.00,-7.00
+2.00,-12.00,+1.00,+0.00,+8.00,+18.00,+55.00,+1.00,+7.00,-37.00,-26.00,-2.00,+77.00,+19.00,-25.00,+5.00
-10.00,-11.00,-7.00,-2.00,+17.00,-8.00,-56.00,+6.00,-18.00,+81.00,+41.00,-7.00,-27.00,-67.00,+0.00,-15.00
+0.00,+19.00,-16.00,-3.00,+25.00,-78.00,-36.00,-5.00,+16.00,+28.00,+14.00,+4.00,-23.00,+46.00,-12.00,-8.00
+8.00,-10.00,+8.00,+8.00,-11.00,+85.00,+29.00,+23.00,+7.00,+16.00,+8.00,+20.00,+43.00,-54.00,-44.00,+7.00
+6.00,+10.00,+2.00,-2.00,+63.00,+70.00,+37.00,+7.00,-10.00,-29.00,-16.00,-33.00,-47.00,+9.00,+3.00,-2.00
-7.00,-17.00,-8.00,-4.00,+10.00,+104.00,-49.00,-37.00,-4.00,-33.00,-15.00,+9.00,+60.00,+22.00,+61.00,+10.00
-2.00,-13.00,+5.00,+0.00,+8.00,-20.00,-34.00,-28.00,+19.00,+0.00,-5.00,-18.00,-17.00,-38.00,-39.00,-15.00
-29.00,-24.00,+0.00,+4.00,-12.00,+48.00,+30.00,+16.00,-24.00,+7.00,+8.00,+16.00,+14.00,-9.00,+58.00,+20.00
+46.00,+50.00,+11.00,+1.00,-12.00,-7.00,-29.00,-6.00,+5.00,+2.00,+6.00,+31.00,+17.00,-13.00,-54.00,-5.00
-11.00,-22.00,-3.00,+0.00,+36.00,+55.00,+54.00,+31.00,-2.00,-16.00,-4.00,-4.00,+99.00,+35.00,+32.00,+9.00
-1.00,+12.00,+4.00,+2.00,-2.00,+1.00,-25.00,-1.00,-38.00,-11.00,-4.00,-19.00,-92.00,-25.00,-19.00,-12.00
-11.00,-3.00,-5.00,-12.00,-50.00,-79.00,-80.00,-49.00,+49.00,+3.00,-4.00,-3.00,-37.00,+29.00,-60.00,-2.00
-13.00,+5.00,+7.00,+1.00,-10.00,+11.00,+48.00,+54.00,-32.00,+10.00,+2.00,-5.00,-37.00,-14.00,+123.00,+7.00
-6.00,+6.00,-1.00,-2.00,+14.00,+14.00,+47.00,+22.00,-1.00,+2.00,-2.00,+15.00,+36.00,+15.00,-20.00,+4.00
+9.00,-19.00,+2.00,+2.00,-71.00,+9.00,+62.00,+12.00,+16.00,-4.00,+2.00,+23.00,+125.00,-3.00,+11.00,-8.00
+19.00,+18.00,+1.00,+4.00,+16.00,+19.00,-57.00,+11.00,-21.00,+0.00,+10.00,+38.00,+25.00,+24.00,-56.00,-27.00
+15.00,+2.00,-3.00,+0.00,-63.00,+18.00,-28.00,-15.00,+27.00,+7.00,-1.00,-15.00,-16.00,-2.00,+68.00,+29.00
+6.00,-5.00,+6.00,+7.00,+2.00,+56.00,+49.00,+32.00,-11.00,-31.00,-23.00,-38.00,-24.00,-24.00,-99.00,-1.00
-2.00,-24.00,-9.00,-9.00,-47.00,-43.00,+123.00,-10.00,+29.00,+15.00,-8.00,-12.00,+0.00,+24.00,+81.00,+46.00
-14.00,+2.00,+3.00,+4.00,+64.00,+51.00,+33.00,-42.00,+26.00,-7.00,-9.00,-8.00,+87.00,+46.00,-6.00,-14.00
+4.00,-20.00,-12.00,-7.00,+21.00,+29.00,+6.00,+12.00,-30.00,+2.00,+7.00,-22.00,-113.00,-76.00,+3.00,-29.00
+14.00,+9.00,+0.00,+2.00,-3.00,+7.00,-118.00,-15.00,+24.00,+22.00,+20.00,+60.00,+83.00,+4.00,+17.00,-7.00
+18.00,+23.00,+11.00,+6.00,+70.00,+44.00,-15.00,+15.00,-19.00,-13.00,-3.00,-13.00,-79.00,-1.00,-43.00,-6.00
+17.00,-21.00,-6.00,-9.00,-30.00,+52.00,-4.00,-54.00,+20.00,-5.00,-8.00,-20.00,+31.00,+25.00,-12.00,+6.00
-30.00,-4.00,+8.00,+4.00,-49.00,-94.00,-6.00,+11.00,-22.00,+2.00,-1.00,-8.00,+14.00,+19.00,+6.00,+6.00
-27.00,-4.00,+5.00,+7.00,-41.00,-61.00,+59.00,+5.00,-30.00,-26.00,-18.00,-15.00,-28.00,+8.00,+1.00,-22.00
-37.00,-33.00,-10.00,-6.00,+36.00,+5.00,-12.00,+13.00,+50.00,+21.00,+14.00,+16.00,-31.00,-45.00,-37.00,-13.00
+75.00,+60.00,+12.00,+8.00,+20.00,-38.00,-17.00,+4.00,-9.00,+34.00,+12.00,+62.00,+63.00,-58.00,+10.00,-2.00
+8.00,-15.00,-6.00,-5.00,+126.00,+127.00,-70.00,+0.00,-10.00,-43.00,-26.00,-39.00,-70.00,+83.00,+3.00,-18.00
-8.00,+40.00,-24.00,-28.00,-128.00,-43.00,-64.00,-43.00,-18.00,-8.00,+5.00,+6.00,+33.00,+71.00,+95.00,+1.00
-1.00,+26.00,+34.00,+10.00,+16.00,-4.00,-42.00,-15.00,-11.00,-8.00,-13.00,-34.00,-76.00,-44.00,+4.00,+7.00
-40.00,-28.00,-8.00,-1.00,-1.00,-29.00,-6.00,+32.00,-3.00,-8.00,-5.00,-18.00,+2.00,-4.00,-33.00,+24.00
+28.00,+18.00,+7.00,-2.00,-22.00,-52.00,+101.00,+20.00,+6.00,+17.00,+6.00,+27.00,+43.00,-4.00,-59.00,+13.00
+2.00,-17.00,-3.00,+3.00,+107.00,+68.00,-11.00,+27.00,+14.00,-3.00,-12.00,-30.00,-34.00,-48.00,-14.00,-7.00
-28.00,-27.00,-20.00,-10.00,-14.00,-54.00,-25.00,-24.00,-13.00,-2.00,+8.00,+37.00,+56.00,+84.00,-27.00,-19.00
+11.00,+18.00,+2.00,+1.00,+81.00,+39.00,+49.00,+17.00,-14.00,-3.00,-2.00,-32.00,-25.00,-25.00,+79.00,+6.00
-5.00,-17.00,-2.00,+2.00,+9.00,-55.00,-100.00,+5.00,+25.00,+14.00,+8.00,+24.00,+49.00,+20.00,+35.00,-11.00
-22.00,-14.00,-5.00,+0.00,+72.00,+11.00,+18.00,-46.00,+41.00,+3.00,+1.00,+10.00,+26.00,-77.00,-11.00,+11.00
+48.00,+7.00,+4.00,+0.00,-92.00,-68.00,-11.00,+1.00,-8.00,+14.00,+9.00,+12.00,+33.00,+19.00,-26.00,+7.00
+14.00,+41.00,+12.00,+1.00,-62.00,+94.00,+60.00,+70.00,-16.00,-15.00,-11.00,-53.00,-20.00,-67.00,-91.00,-31.00
-50.00,-40.00,-22.00,-5.00,+71.00,+12.00,-45.00,-96.00,+2.00,+14.00,+11.00,+6.00,+31.00,-63.00,+106.00,+44.00
+13.00,+14.00,+9.00,+12.00,+43.00,-21.00,+49.00,+51.00,-73.00,-20.00,-15.00,-15.00,+14.00,+117.00,+85.00,-24.00
-22.00,-16.00,-13.00,-6.00,+59.00,+87.00,-108.00,-72.00,+4.00,-2.00,-4.00,-15.00,-28.00,-104.00,-74.00,-11.00
+19.00,+23.00,+4.00,+0.00,+8.00,-128.00,+33.00,-61.00,+5.00,+3.00,+4.00,+6.00,-42.00,+88.00,+32.00,+29.00
-10.00,+5.00,+2.00,-6.00,-4.00,-49.00,+53.00,+52.00,+14.00,+9.00,+10.00,+20.00,+83.00,+47.00,-7.00,+15.00
+19.00,+0.00,+11.00,+7.00,+2.00,+92.00,+106.00,+37.00,-10.00,-5.00,-8.00,-7.00,-123.00,+13.00,+24.00,+16.00
-46.00,-42.00,-2.00,+3.00,-29.00,-33.00,+75.00,+92.00,+60.00,+13.00,-2.00,-34.00,-54.00,+31.00,+70.00,+25.00
+70.00,+61.00,+7.00,+8.00,+20.00,-9.00,-128.00,-7.00,-19.00,-9.00,-6.00,-30.00,-32.00,+68.00,+89.00,+3.00
+6.00,+5.00,+7.00,+13.00,-44.00,+24.00,+90.00,+22.00,-18.00,+4.00,+4.00,+52.00,+67.00,-35.00,-64.00,-5.00
-22.00,+8.00,+5.00,-7.00,+33.00,+6.00,-65.00,-50.00,-4.00,-5.00,+1.00,+22.00,-27.00,-30.00,-19.00,-5.00
+19.00,-20.00,-5.00,-8.00,-86.00,-45.00,-40.00,+6.00,-14.00,+1.00,+6.00,+27.00,-4.00,-36.00,-71.00,-8.00
-52.00,-7.00,-3.00,-5.00,+17.00,-12.00,-23.00,+4.00,+10.00,-15.00,-13.00,-31.00,-123.00,-128.00,+39.00,-4.00
+0.00,-7.00,-8.00,-6.00,+98.00,-3.00,+50.00,-47.00,+3.00,-1.00,-2.00,-20.00,+70.00,+54.00,+41.00,-13.00
+29.00,-5.00,+1.00,+1.00,-47.00,-102.00,+58.00,-5.00,-54.00,-20.00,-14.00,+0.00,-23.00,-19.00,+3.00,+5.00
-34.00,-22.00,-24.00,-18.00,+82.00,+117.00,-19.00,-33.00,+10.00,-6.00,+3.00,+1.00,+8.00,+2.00,+39.00,-3.00
+8.00,+19.00,+6.00,+5.00,-79.00,-112.00,+73.00,+75.00,+22.00,+2.00,+5.00,+24.00,-5.00,+21.00,-50.00,-30.00
+9.00,-3.00,+2.00,+0.00,+71.00,-29.00,-128.00,-56.00,-5.00,+4.00,+4.00,+13.00,-19.00,-83.00,-60.00,+15.00
-11.00,+0.00,-1.00,-10.00,-22.00,+25.00,-90.00,-41.00,+13.00,+5.00,+4.00,-6.00,-112.00,+16.00,+8.00,+8.00
+16.00,+20.00,-1.00,+3.00,+16.00,-36.00,+53.00,+5.00,-32.00,-11.00,-2.00,+4.00,-39.00,+36.00,-54.00,+11.00
-69.00,-63.00,-7.00,+5.00,-22.00,+35.00,+24.00,+8.00,-33.00,-7.00,-9.00,-31.00,-57.00,+18.00,-73.00,-65.00
+35.00,+11.00,+1.00,-4.00,-107.00,-23.00,-54.00,+79.00,+24.00,-5.00,-2.00,-4.00,-101.00,-10.00,-40.00,-15.00
+23.00,-6.00,+5.00,+7.00,+19.00,-78.00,+54.00,+21.00,+56.00,+7.00,+1.00,+11.00,+93.00,+13.00,+35.00,+17.00
-31.00,-16.00,-2.00,+4.00,-54.00,-7.00,-85.00,-23.00,-11.00,+15.00,+15.00,-35.00,-39.00,-112.00,+47.00,+44.00
+56.00,+50.00,+26.00,+21.00,+11.00,-1.00,-22.00,+49.00,+17.00,-4.00,-5.00,-1.00,+127.00,+74.00,-8.00,-37.00
-50.00,-14.00,-2.00,+9.00,-32.00,+6.00,+6.00,-9.00,+4.00,+2.00,+0.00,+9.00,-44.00,+61.00,-14.00,+12.00
-19.00,-9.00,-13.00,-7.00,+55.00,-9.00,-128.00,-54.00,-64.00,-8.00,-11.00,-65.00,+13.00,+5.00,-105.00,-36.00
+9.00,+27.00,+3.00,-2.00,-78.00,-6.00,+99.00,+15.00,+57.00,+1.00,-4.00,+30.00,+125.00,+66.00,+6.00,+12.00
-28.00,-55.00,-14.00,-10.00,+117.00,+43.00,-10.00,-5.00,-12.00,+15.00,+20.00,+25.00,+78.00,+33.00,+59.00,+40.00
+8.00,+29.00,+15.00,+15.00,+82.00,+23.00,+81.00,+24.00,+23.00,+14.00,+8.00,-22.00,+127.00,+50.00,-47.00,-6.00
+6.00,+0.00,+6.00,+13.00,-31.00,-56.00,+101.00,+44.00,+14.00,+14.00,+21.00,+62.00,+74.00,-104.00,-65.00,+27.00
+49.00,+36.00,+17.00,+11.00,+127.00,-35.00,-91.00,-1.00,-51.00,-23.00,-24.00,-52.00,-30.00,+50.00,+38.00,-44.00
-47.00,-24.00,-20.00,-18.00,-103.00,+14.00,-49.00,-48.00,-1.00,-5.00,+2.00,+25.00,-67.00,+1.00,+7.00,-4.00
-27.00,-9.00,-1.00,-7.00,+90.00,+62.00,-112.00,-59.00,+17.00,+4.00,-6.00,-25.00,-53.00,+24.00,+17.00,-10.00
+16.00,-12.00,+4.00,+8.00,-118.00,-26.00,-90.00,-24.00,+19.00,+5.00,+6.00,+8.00,+28.00,+20.00,+72.00,+18.00
+37.00,+11.00,+4.00,+5.00,+67.00,+98.00,+54.00,+22.00,-20.00,-12.00,-12.00,-18.00,+19.00,-10.00,-42.00,-13.00
-11.00,-8.00,-2.00,-6.00,-65.00,-45.00,-19.00,-64.00,-14.00,+2.00,+11.00,+53.00,+105.00,-48.00,-6.00,+22.00
-5.00,+5.00,+0.00,+1.00,+98.00,+14.00,+19.00,-36.00,-12.00,+1.00,+10.00,+35.00,-82.00,+35.00,+69.00,-5.00
-7.00,-10.00,-5.00,+0.00,+90.00,-38.00,-71.00,-64.00,-16.00,-17.00,-22.00,-26.00,-71.00,+7.00,-11.00,-51.00
-16.00,-33.00,-12.00,-13.00,-110.00,+61.00,+10.00,-16.00,+56.00,+21.00,+7.00,-1.00,+5.00,+13.00,-38.00,+16.00
-32.00,+30.00,+9.00,+9.00,+127.00,+15.00,-41.00,+1.00,+0.00,+5.00,-2.00,-39.00,+22.00,-72.00,+72.00,+38.00
+39.00,+18.00,+0.00,-3.00,+40.00,+3.00,-6.00,+2.00,+40.00,-5.00,-4.00,-10.00,-21.00,-59.00,-108.00,+7.00
-47.00,-31.00,-5.00,-5.00,-5.00,-23.00,+68.00,+9.00,+27.00,+33.00,+19.00,+35.00,+88.00,-31.00,-35.00,+13.00
+32.00,+64.00,+16.00,+17.00,+3.00,+38.00,-16.00,-8.00,-30.00,-14.00,-5.00,+58.00,+105.00,+18.00,-53.00,-6.00
-34.00,-41.00,-23.00,-17.00,+101.00,-20.00,+30.00,-39.00,+22.00,-12.00,-26.00,-90.00,-68.00,-7.00,+14.00,+28.00
+16.00,+17.00,+8.00,-5.00,-128.00,-108.00,-26.00,-46.00,-18.00,+3.00,+2.00,+27.00,+61.00,-81.00,+31.00,+13.00
+1.00,-10.00,+1.00,+8.00,+73.00,+90.00,+53.00,+95.00,+36.00,-2.00,-8.00,-51.00,+28.00,+92.00,+114.00,+13.00
-24.00,-14.00,-9.00,+4.00,+122.00,+14.00,-6.00,+4.00,-42.00,-11.00,-3.00,+46.00,+77.00,+38.00,+6.00,-42.00
-5.00,-31.00,-12.00,-26.00,+68.00,+67.00,+48.00,-19.00,-25.00,-11.00,-2.00,+14.00,+44.00,+2.00,-68.00,-11.00
+6.00,+10.00,+4.00,+9.00,+49.00,-50.00,-56.00,-8.00,-25.00,-7.00,-5.00,-22.00,+51.00,-51.00,-53.00,+21.00
+20.00,+25.00,-6.00,-11.00,-65.00,-9.00,-53.00,-88.00,+46.00,+6.00,+3.00,+17.00,-90.00,+7.00,-35.00,+0.00
+11.00,-8.00,-1.00,-7.00,-7.00,-18.00,+45.00,+106.00,-23.00,-19.00,+4.00,+17.00,+11.00,-45.00,-52.00,-18.00
-49.00,-21.00,+5.00,+18.00,-48.00,-75.00,+20.00,-85.00,+39.00,+31.00,+3.00,+16.00,+30.00,+50.00,+77.00,+37.00
+11.00,-14.00,-10.00,-4.00,+86.00,+124.00,+52.00,+32.00,+2.00,+3.00,+6.00,+9.00,-4.00,+4.00,+14.00,-6.00
+36.00,+14.00,+6.00,-9.00,-40.00,-45.00,+36.00,-27.00,-54.00,-18.00,-2.00,+31.00,+27.00,+16.00,+4.00,-18.00
+16.00,+54.00,-7.00,-15.00,+123.00,+14.00,-24.00,-19.00,+27.00,+40.00,+20.00,+33.00,-66.00,-3.00,-29.00,+26.00
-3.00,-35.00,+2.00,+4.00,+23.00,-93.00,-80.00,+1.00,-12.00,-7.00,+0.00,+45.00,-110.00,-10.00,-60.00,-30.00
-23.00,+18.00,+7.00,-2.00,-128.00,+32.00,-18.00,+67.00,+10.00,-2.00,-5.00,-18.00,+41.00,-63.00,-45.00,-7.00
+12.00,-11.00,-7.00,-14.00,+121.00,+2.00,+48.00,-24.00,+5.00,+19.00,+22.00,+19.00,-9.00,+24.00,-62.00,+31.00
+8.00,+34.00,+23.00,+16.00,-60.00,+8.00,+88.00,+22.00,-5.00,-20.00,-30.00,-57.00,+21.00,+27.00,-7.00,-36.00
-11.00,-46.00,-13.00,+1.00,-66.00,-66.00,-23.00,+67.00,-12.00,-10.00,-3.00,-35.00,-92.00,-14.00,-45.00,-15.00
-20.00,-16.00,-7.00,-12.00,-100.00,+47.00,+31.00,+4.00,-45.00,-30.00,+1.00,-9.00,-91.00,+26.00,-2.00,-3.00
+66.00,+93.00,+18.00,-1.00,+47.00,+115.00,+42.00,+127.00,+2.00,-15.00,-9.00,+23.00,+87.00,-1.00,-128.00,-23.00
+3.00,-32.00,-8.00,+3.00,-71.00,+47.00,+37.00,-14.00,-24.00,-13.00,-1.00,+43.00,-54.00,-35.00,+35.00,+6.00
-10.00,+2.00,-7.00,-25.00,+31.00,+127.00,+13.00,-22.00,-9.00,+0.00,-14.00,-71.00,-107.00,-10.00,-76.00,-33.00
-9.00,-31.00,-13.00,-3.00,+11.00,-83.00,-65.00,+31.00,-4.00,+11.00,+0.00,-3.00,+90.00,+22.00,+76.00,-7.00
-19.00,-17.00,+1.00,+13.00,-128.00,-24.00,-58.00,-44.00,+37.00,-5.00,-2.00,-23.00,+71.00,-66.00,+47.00,-41.00
-69.00,-60.00,-11.00,-3.00,-35.00,+9.00,-70.00,-79.00,+10.00,+17.00,+16.00,-6.00,+64.00,+61.00,+127.00,+90.00
+90.00,+69.00,+17.00,+13.00,+42.00,-51.00,+47.00,+58.00,+16.00,+3.00,+1.00,+14.00,+17.00,+32.00,+87.00,+27.00
-42.00,-24.00,-8.00,-10.00,+63.00,-6.00,+80.00,+16.00,+6.00,+10.00,+10.00,-3.00,+9.00,-72.00,+10.00,-10.00
+9.00,+15.00,+10.00,+9.00,-54.00,-21.00,-67.00,+5.00,-52.00,-7.00,-7.00,-24.00,-124.00,+10.00,-49.00,-39.00
-44.00,+3.00,-13.00,-13.00,+100.00,+61.00,-99.00,-33.00,+0.00,-11.00,-16.00,-28.00,+37.00,-85.00,-8.00,-7.00
+40.00,-20.00,+4.00,+13.00,-22.00,-73.00,-8.00,-22.00,-54.00,-23.00,-8.00,-10.00,-29.00,+57.00,+39.00,-13.00
-47.00,-4.00,-2.00,-1.00,+7.00,-100.00,+7.00,-29.00,+12.00,-7.00,-8.00,+1.00,+31.00,+127.00,-27.00,-10.00
-69.00,+5.00,-10.00,-10.00,+73.00,+34.00,+4.00,-35.00,+15.00,+9.00,+8.00,+1.00,+5.00,-14.00,-11.00,-30.00
+80.00,-1.00,+7.00,+5.00,+63.00,+12.00,+106.00,+78.00,-15.00,+2.00,-15.00,+16.00,-49.00,-81.00,+17.00,+0.00
-13.00,-37.00,-19.00,-21.00,-30.00,+36.00,-70.00,-16.00,-25.00,-17.00,-9.00,-17.00,-44.00,+68.00,-107.00,-64.00
-7.00,+36.00,+2.00,-9.00,-95.00,-90.00,-91.00,+34.00,-16.00,-7.00,-6.00,-4.00,-89.00,-58.00,-45.00,+17.00
-60.00,-28.00,-6.00,+7.00,+38.00,+62.00,+45.00,-14.00,-18.00,-10.00,-7.00,+13.00,-1.00,-9.00,-32.00,+5.00
+3.00,-1.00,-11.00,-9.00,+69.00,-128.00,-62.00,-39.00,-22.00,-10.00,+10.00,-11.00,+59.00,+22.00,-13.00,-21.00
+21.00,-28.00,-9.00,+11.00,+20.00,+17.00,-37.00,+94.00,-1.00,+22.00,+11.00,+56.00,+127.00,+65.00,-6.00,+31.00
+15.00,-25.00,+5.00,+2.00,+106.00,+74.00,+105.00,-15.00,+4.00,-28.00,+5.00,+26.00,+54.00,+1.00,+87.00,+6.00
+10.00,-25.00,-12.00,+2.00,-71.00,+45.00,-17.00,+11.00,-12.00,+1.00,-12.00,-15.00,+99.00,-51.00,-39.00,-34.00
-55.00,-25.00,-20.00,-10.00,-18.00,-59.00,-27.00,-7.00,+0.00,+17.00,+9.00,-17.00,-3.00,+10.00,+60.00,+32.00
+68.00,+125.00,+51.00,+33.00,+59.00,+24.00,-19.00,+52.00,+22.00,-14.00,+5.00,+2.00,-55.00,-86.00,+16.00,+22.00
+13.00,+9.00,+25.00,+4.00,+64.00,+22.00,-49.00,-27.00,-14.00,+7.00,-6.00,-4.00,+101.00,+10.00,-101.00,-6.00
-21.00,-43.00,-7.00,-4.00,+108.00,+18.00,+47.00,+23.00,+2.00,-20.00,+5.00,+11.00,-14.00,-32.00,-25.00,+16.00
+21.00,+40.00,+18.00,+10.00,+65.00,-53.00,-68.00,-70.00,-3.00,-17.00,-3.00,+1.00,+82.00,-29.00,-95.00,-95.00
-40.00,-54.00,-26.00,-10.00,-1.00,+42.00,+49.00,+12.00,-36.00,+8.00,-17.00,-32.00,+89.00,+63.00,+96.00,+41.00
+35.00,+12.00,-17.00,-17.00,-92.00,+52.00,+25.00,-38.00,+22.00,-4.00,-20.00,-23.00,-101.00,-39.00,+8.00,+22.00
-19.00,-26.00,-4.00,+5.00,-42.00,+17.00,+35.00,+13.00,-19.00,-1.00,+5.00,-12.00,-40.00,-18.00,+90.00,+42.00
-24.00,-13.00,-1.00,+12.00,+42.00,+1.00,-26.00,-8.00,+34.00,+11.00,+6.00,+2.00,+33.00,+20.00,+40.00,+10.00
+25.00,+44.00,+15.00,+4.00,+109.00,-88.00,-34.00,-23.00,-24.00,-3.00,+6.00,+26.00,-19.00,-1.00,-64.00,-68.00
+17.00,+3.00,-2.00,+4.00,-32.00,+11.00,+15.00,+6.00,+4.00,+6.00,-4.00,+15.00,+120.00,+3.00,-28.00,-2.00
+17.00,+8.00,-1.00,-5.00,+16.00,-10.00,+16.00,+19.00,+3.00,+15.00,+3.00,+30.00,+57.00,+84.00,-1.00,+18.00
-42.00,-5.00,+3.00,-4.00,+34.00,-17.00,-32.00,-30.00,+24.00,-3.00,+4.00,+8.00,-28.00,-57.00,-27.00,+19.00
-54.00,-34.00,-8.00,-1.00,+5.00,+71.00,-5.00,-33.00,-63.00,-20.00,+0.00,+11.00,+71.00,+33.00,+20.00,-12.00
+81.00,+17.00,-5.00,+0.00,+87.00,+16.00,+37.00,+2.00,+53.00,+13.00,-12.00,-14.00,-30.00,-40.00,-4.00,-8.00
-14.00,+17.00,-15.00,-11.00,-128.00,-65.00,-18.00,-45.00,+15.00,-1.00,+8.00,+39.00,+11.00,+35.00,+81.00,+2.00
+10.00,+12.00,+16.00,+6.00,-3.00,+103.00,+95.00,+61.00,-10.00,-14.00,-3.00,-11.00,+94.00,+17.00,-20.00,+3.00
-3.00,+16.00,+3.00,+4.00,+98.00,-35.00,+50.00,-34.00,+13.00,-7.00,-9.00,-8.00,+46.00,-128.00,-44.00,-2.00
-1.00,-7.00,-11.00,+1.00,-107.00,-15.00,+66.00,+3.00,-30.00,+6.00,-9.00,-41.00,-128.00,-10.00,-65.00,-60.00
+6.00,-45.00,-4.00,-4.00,+3.00,-22.00,-34.00,-15.00,+25.00,+14.00,+12.00,+24.00,+70.00,+35.00,-17.00,+3.00
-27.00,+39.00,+8.00,-6.00,+34.00,-80.00,-91.00,-40.00,+4.00,-3.00,-15.00,-71.00,-95.00,+124.00,+69.00,+14.00
+7.00,+23.00,-1.00,+0.00,+13.00,-71.00,-47.00,-14.00,+25.00,+6.00,+2.00,+2.00,-1.00,+4.00,+67.00,+34.00
-74.00,-31.00,-3.00,+0.00,+35.00,-65.00,-50.00,-38.00,-27.00,-2.00,+13.00,+28.00,+10.00,+97.00,+79.00,-27.00
+32.00,+7.00,+8.00,+8.00,+115.00,-46.00,+20.00,+37.00,+27.00,+13.00,-8.00,-45.00,-23.00,-72.00,+23.00,+47.00
+49.00,+8.00,+9.00,+16.00,-106.00,+34.00,+39.00,+64.00,-9.00,-5.00,-5.00,-8.00,-46.00,-13.00,+2.00,-13.00
-3.00,-43.00,-9.00,-7.00,-18.00,+67.00,+37.00,+3.00,-33.00,-8.00,+9.00,+28.00,-98.00,-32.00,+50.00,-2.00
+51.00,+91.00,+9.00,+1.00,-15.00,+17.00,-73.00,-43.00,+11.00,-31.00,-20.00,-62.00,+13.00,+34.00,+2.00,+11.00
-45.00,-7.00,-5.00,-4.00,-9.00,-59.00,+19.00,+19.00,+33.00,+65.00,+11.00,+22.00,+7.00,-120.00,-32.00,-4.00
+117.00,-21.00,+10.00,+2.00,-19.00,-59.00,-24.00,+20.00,-41.00,-3.00,-13.00,-63.00,-112.00,-21.00,-63.00,-34.00
-23.00,-4.00,-4.00,-11.00,-96.00,+42.00,+121.00,+4.00,+42.00,+15.00,+6.00,+27.00,+41.00,-53.00,+45.00,+19.00
-11.00,-28.00,-3.00,+8.00,+127.00,+33.00,+105.00,+35.00,-27.00,-1.00,+13.00,+46.00,+127.00,+60.00,-21.00,+7.00
+108.00,+25.00,+3.00,+0.00,+15.00,-45.00,-2.00,-7.00,-35.00,-36.00,-23.00,-62.00,-97.00,+15.00,+63.00,-5.00
-65.00,+9.00,-12.00,-7.00,-72.00,-81.00,-46.00,+17.00,+9.00,-15.00,+0.00,+23.00,+61.00,+35.00,+2.00,+15.00
+21.00,+4.00,+2.00,+0.00,-4.00,+36.00,-57.00,-60.00,-13.00,+13.00,+6.00,-13.00,+23.00,+28.00,+30.00,-22.00
-48.00,+8.00,+6.00,+6.00,+66.00,-3.00,+42.00,-4.00,-5.00,-5.00,-3.00,+13.00,-36.00,-32.00,+67.00,+2.00
-47.00,-17.00,-3.00,+0.00,+51.00,+48.00,-22.00,+17.00,+6.00,-6.00,-9.00,-14.00,+40.00,+18.00,-15.00,+13.00
+3.00,-36.00,-9.00,+7.00,+4.00,-3.00,+65.00,-7.00,+16.00,-2.00,-7.00,-25.00,-1.00,+11.00,-7.00,+25.00
+41.00,-15.00,-6.00,-10.00,-5.00,-128.00,+46.00,+51.00,+42.00,-7.00,-1.00,-8.00,+53.00,+65.00,-8.00,+38.00
-10.00,+64.00,+11.00,-6.00,+34.00,+16.00,+5.00,-18.00,+15.00,+17.00,+0.00,-1.00,+2.00,+37.00,+12.00,-1.00
-9.00,-11.00,-1.00,-6.00,+3.00,-57.00,-81.00,-47.00,-24.00,-10.00,+0.00,+2.00,+6.00,+34.00,-19.00,-24.00
+10.00,-8.00,-1.00,-6.00,-43.00,+71.00,+127.00,+4.00,+7.00,+12.00,+13.00,+65.00,+55.00,-34.00,+45.00,+3.00
-39.00,-6.00,-3.00,-3.00,-22.00,+58.00,+47.00,-14.00,-8.00,-18.00,-16.00,-46.00,-63.00,-26.00,-54.00,-10.00
+18.00,-37.00,-3.00,+8.00,-55.00,+54.00,+85.00,+12.00,+12.00,+8.00,-1.00,-8.00,-28.00,-6.00,+28.00,+11.00
-40.00,+15.00,-2.00,-7.00,+8.00,+63.00,-109.00,-38.00,+57.00,+19.00,-10.00,-24.00,-64.00,-3.00,-22.00,-24.00
+11.00,-41.00,-10.00,-9.00,-13.00,+7.00,+23.00,+38.00,-29.00,+2.00,+7.00,+12.00,-83.00,+37.00,-37.00,-14.00
-28.00,+22.00,+11.00,+5.00,-65.00,-49.00,-76.00,-21.00,+58.00,-2.00,-6.00,-23.00,+82.00,+5.00,-67.00,-1.00
-67.00,-50.00,-10.00,-3.00,-3.00,-25.00,-42.00,+14.00,-94.00,-18.00,-9.00,-7.00,-95.00,-38.00,-19.00,-32.00
+61.00,-1.00,+0.00,-7.00,-16.00,+28.00,-4.00,-1.00,+6.00,-10.00,+6.00,-6.00,-9.00,+60.00,+6.00,-4.00
+46.00,+87.00,+10.00,+8.00,+46.00,+12.00,-43.00,+40.00,+16.00,+9.00,+7.00,+20.00,+17.00,-56.00,-50.00,-33.00
-69.00,+4.00,-4.00,-5.00,+61.00,+35.00,-102.00,-22.00,+41.00,-12.00,-8.00,-12.00,-38.00,-11.00,+23.00,+85.00
+26.00,-13.00,+0.00,-4.00,-60.00,+8.00,-112.00,-30.00,-15.00,+6.00,-3.00,-6.00,+27.00,+13.00,+50.00,+22.00
-51.00,-27.00,-7.00,-5.00,-46.00,+12.00,-45.00,-6.00,+16.00,-18.00,+5.00,+10.00,+94.00,+15.00,+15.00,-18.00
-4.00,+15.00,-2.00,-6.00,+112.00,+38.00,+21.00,-11.00,+16.00,+0.00,-17.00,-70.00,-93.00,-73.00,+49.00,+17.00
-46.00,-25.00,-9.00,-11.00,+16.00,-71.00,+89.00,+2.00,-36.00,+1.00,-3.00,+31.00,+23.00,-15.00,-53.00,-56.00
+9.00,+14.00,+0.00,-7.00,-59.00,-12.00,+15.00,-1.00,+7.00,-1.00,+6.00,+3.00,+97.00,-15.00,-19.00,+1.00
-14.00,-3.00,+4.00,+4.00,+127.00,+54.00,+16.00,-13.00,-46.00,-20.00,-10.00,+10.00,-45.00,-5.00,+57.00,+30.00
-28.00,+4.00,-9.00,-13.00,-77.00,-80.00,-91.00,-66.00,-12.00,+8.00,-8.00,-24.00,+9.00,-32.00,-26.00,-21.00
+18.00,-15.00,-4.00,-3.00,-88.00,-15.00,-18.00,-21.00,+10.00,-3.00,-2.00,+0.00,+0.00,+27.00,-21.00,+28.00
+0.00,-19.00,-6.00,-5.00,-44.00,-47.00,-31.00,+50.00,+15.00,+12.00,+13.00,+8.00,+83.00,-13.00,-107.00,-3.00
+11.00,+16.00,+16.00,+16.00,+60.00,+32.00,+56.00,+32.00,-26.00,-16.00,-6.00,+4.00,+89.00,-29.00,-65.00,-16.00
-45.00,-24.00,-4.00,+3.00,+19.00,+27.00,-7.00,-4.00,-3.00,-23.00,-4.00,+23.00,+15.00,+42.00,-30.00,-9.00
+44.00,+10.00,-5.00,-1.00,+46.00,+32.00,+18.00,+20.00,+54.00,+60.00,+21.00,+39.00,+74.00,+11.00,+25.00,-15.00
-4.00,-11.00,+2.00,+3.00,+99.00,+27.00,+42.00,+7.00,+19.00,-6.00,-13.00,-11.00,-5.00,-103.00,-74.00,+13.00
+13.00,+56.00,-3.00,-8.00,-22.00,-62.00,-47.00,-36.00,-25.00,-11.00,-2.00,-4.00,+35.00,+71.00,+45.00,+7.00
-15.00,-28.00,-8.00,-9.00,-37.00,-23.00,+69.00,-23.00,-33.00,-16.00,-5.00,-8.00,+60.00,+40.00,+50.00,-25.00
+33.00,+17.00,-1.00,+3.00,+64.00,+90.00,-36.00,+0.00,+23.00,-2.00,+2.00,+8.00,-39.00,-89.00,+43.00,+25.00
-22.00,-12.00,-2.00,+4.00,+127.00,+51.00,-2.00,-34.00,-39.00,-17.00,-9.00,-34.00,-110.00,+14.00,-1.00,-10.00
-15.00,+4.00,-7.00,-10.00,-47.00,-60.00,-40.00,-46.00,+21.00,+4.00,+5.00,+1.00,-9.00,-19.00,-18.00,+12.00
-15.00,+4.00,+8.00,+7.00,-66.00,+42.00,+102.00,+47.00,+21.00,+14.00,-2.00,-2.00,-17.00,-21.00,+22.00,+8.00
+5.00,-20.00,-7.00,-9.00,+0.00,-20.00,+1.00,-39.00,-33.00,-15.00,-4.00,-25.00,+43.00,+2.00,-9.00,-46.00
-18.00,-20.00,-8.00,-4.00,-44.00,-10.00,-75.00,+7.00,+46.00,+27.00,+19.00,+49.00,+26.00,-21.00,+38.00,+31.00
-8.00,-1.00,+14.00,+9.00,+24.00,+70.00,+107.00,+79.00,-50.00,-13.00,-9.00,-21.00,-40.00,-7.00,-44.00,-7.00
-1.00,-4.00,-4.00,-4.00,+77.00,-83.00,+35.00,+0.00,+3.00,+6.00,+2.00,+3.00,+59.00,-8.00,+18.00,+13.00
-29.00,-29.00,+6.00,+6.00,-80.00,+6.00,+52.00,+1.00,-3.00,+3.00,+0.00,-15.00,-49.00,-49.00,-81.00,-27.00
+10.00,+36.00,-4.00,-1.00,+77.00,-10.00,-49.00,+66.00,+9.00,+0.00,+3.00,+26.00,+49.00,+35.00,+112.00,-5.00
+11.00,-19.00,-2.00,-2.00,-126.00,+2.00,+27.00,-39.00,+15.00,+11.00,+1.00,-6.00,+37.00,-24.00,-4.00,-6.00
+6.00,-22.00,-5.00,-1.00,+56.00,-61.00,+7.00,+88.00,+9.00,+1.00,-1.00,+15.00,-50.00,+7.00,+52.00,+65.00
+5.00,+6.00,+0.00,-5.00,+10.00,+1.00,-26.00,+30.00,-26.00,-12.00,+8.00,+32.00,+76.00,+11.00,-1.00,+23.00
-8.00,+14.00,+0.00,-1.00,-72.00,-52.00,+2.00,-41.00,+34.00,+9.00,-8.00,-20.00,-21.00,-3.00,-18.00,-16.00
-7.00,-26.00,-6.00,-2.00,+8.00,-48.00,-17.00,-2.00,+6.00,+4.00,+12.00,+21.00,-28.00,-38.00,-56.00,-13.00
-22.00,+16.00,+5.00,+0.00,-3.00,-20.00,-7.00,-34.00,-41.00,-16.00,-7.00,-15.00,-28.00,-4.00,-55.00,-19.00
+26.00,+37.00,+1.00,-3.00,-28.00,-71.00,+51.00,-8.00,-8.00,-8.00,-6.00,-4.00,+35.00,+22.00,+2.00,-13.00
+11.00,-7.00,-3.00,+1.00,+30.00,-8.00,-1.00,+0.00,+43.00,+5.00,+1.00,+10.00,-14.00,-53.00,-22.00,+3.00
+36.00,-12.00,+3.00,+5.00,+78.00,+37.00,+30.00,+31.00,-28.00,-16.00,-6.00,+2.00,+33.00,-26.00,+7.00,+13.00
+25.00,-5.00,-6.00,+0.00,-16.00,-42.00,-41.00,-15.00,+46.00,+25.00,+5.00,+26.00,+45.00,+44.00,-12.00,-8.00
-7.00,+4.00,+5.00,+5.00,+73.00,+6.00,-55.00,+4.00,-31.00,+2.00,+5.00,+9.00,-52.00,-21.00,+25.00,+0.00
-2.00,-45.00,-5.00,+3.00,+80.00,+68.00,-16.00,+3.00,-19.00,-17.00,-3.00,+8.00,+45.00,-44.00,-44.00,-14.00
-48.00,-6.00,-4.00,-9.00,+32.00,-78.00,-19.00,+31.00,-10.00,-7.00,-16.00,-48.00,-128.00,-12.00,-24.00,+0.00
-22.00,+0.00,-8.00,-11.00,-84.00,+32.00,-71.00,-23.00,-17.00,-13.00,+2.00,+20.00,+76.00,-58.00,-24.00,+14.00
-7.00,-4.00,-4.00,+1.00,+26.00,+23.00,-2.00,+3.00,-15.00,-8.00,-6.00,+0.00,-13.00,+52.00,+19.00,-22.00
+1.00,+5.00,+3.00,+2.00,-56.00,-73.00,-42.00,+33.00,+11.00,+12.00,+8.00,+6.00,-3.00,+15.00,+39.00,+22.00
+30.00,+19.00,+4.00,-2.00,+61.00,+55.00,-57.00,-36.00,+5.00,-8.00,-8.00,+4.00,+58.00,-50.00,-2.00,-17.00
+13.00,-1.00,-4.00,-6.00,-9.00,+23.00,+13.00,+25.00,-34.00,-3.00,-11.00,-62.00,-98.00,+96.00,-28.00,-9.00
-4.00,+2.00,+1.00,+3.00,-120.00,-69.00,-58.00,-12.00,+40.00,+4.00,+3.00,-2.00,+71.00,-36.00,-52.00,+21.00
-16.00,-2.00,+0.00,+2.00,+24.00,+8.00,-36.00,-12.00,-65.00,-13.00,-12.00,-18.00,-32.00,+12.00,-29.00,-36.00
-28.00,-6.00,-7.00,-7.00,-33.00,+10.00,+94.00,-2.00,+29.00,+7.00,+4.00,-3.00,-3.00,+17.00,+79.00,+23.00
-9.00,-2.00,+1.00,+6.00,+4.00,+118.00,-28.00,-15.00,-12.00,-7.00,+2.00,+25.00,+21.00,-5.00,+11.00,+0.00
+50.00,-4.00,+2.00,+2.00,+32.00,+35.00,-26.00,-2.00,-11.00,-19.00,-3.00,+7.00,-4.00,+4.00,-26.00,-13.00
-8.00,+0.00,-3.00,-7.00,+40.00,+5.00,+7.00,-35.00,+32.00,+23.00,-1.00,-14.00,-6.00,+16.00,-44.00,+9.00
-6.00,+15.00,+0.00,+3.00,-4.00,+12.00,-12.00,-8.00,-19.00,+17.00,+7.00,+22.00,+10.00,+7.00,+5.00,-5.00
-5.00,-37.00,-6.00,+0.00,+29.00,+7.00,-11.00,-21.00,+2.00,-2.00,+9.00,+27.00,+46.00,-7.00,-34.00,-3.00
-29.00,+21.00,+8.00,+1.00,-20.00,-56.00,+61.00,+29.00,+4.00,+1.00,-3.00,-10.00,+0.00,+6.00,+32.00,-5.00
+10.00,-1.00,-4.00,-3.00,+42.00,+57.00,-68.00,-30.00,-17.00,-18.00,-6.00,-4.00,+17.00,-34.00,-39.00,-2.00
-33.00,-12.00,-5.00,-2.00,-11.00,-12.00,+12.00,-7.00,+1.00,-10.00,-10.00,-9.00,+6.00,-6.00,-11.00,-19.00
+8.00,-12.00,-3.00,-4.00,-8.00,+0.00,+29.00,-8.00,-11.00,+7.00,+10.00,+28.00,+10.00,+29.00,+91.00,-5.00
+5.00,+8.00,+1.00,-1.00,+35.00,+32.00,-25.00,-14.00,+26.00,-5.00,-15.00,-87.00,-126.00,-63.00,-48.00,-2.00
+86.00,+7.00,+4.00,+2.00,-45.00,-78.00,+24.00,+26.00,-5.00,-4.00,+3.00,+1.00,+72.00,+54.00,+9.00,-13.00
+6.00,-9.00,+2.00,+2.00,-62.00,+33.00,+6.00,-4.00,+4.00,-1.00,-4.00,-1.00,+52.00,+13.00,+37.00,+22.00
-21.00,-6.00,-4.00,+0.00,+35.00,-29.00,-9.00,-53.00,+8.00,-5.00,+2.00,-1.00,+46.00,-86.00,-14.00,-41.00
+0.00,-21.00,-6.00,-6.00,-37.00,+24.00,+12.00,+47.00,-15.00,+4.00,-1.00,+15.00,-83.00,-14.00,-29.00,+29.00
-60.00,-7.00,-5.00,-8.00,+18.00,+39.00,+126.00,-59.00,+8.00,-1.00,-4.00,-4.00,+36.00,+6.00,+74.00,-36.00
+12.00,-17.00,-8.00,+0.00,+48.00,+16.00,+0.00,+58.00,+14.00,-2.00,+3.00,-15.00,-52.00,+10.00,+18.00,+28.00
+39.00,+20.00,+4.00,+2.00,+2.00,-48.00,+12.00,+0.00,-4.00,+7.00,-2.00,+0.00,-10.00,-10.00,-26.00,-8.00
-28.00,-3.00,+0.00,+2.00,+90.00,+45.00,-2.00,+16.00,-22.00,+6.00,+5.00,+23.00,+90.00,+15.00,+43.00,-34.00
+0.00,+3.00,+1.00,-2.00,-7.00,-79.00,+12.00,-29.00,+19.00,+3.00,+4.00,+11.00,-115.00,-27.00,-44.00,+24.00
+3.00,+15.00,+5.00,+1.00,-40.00,+31.00,-71.00,+4.00,-9.00,+3.00,+6.00,+13.00,+28.00,+11.00,-28.00,-3.00
-16.00,-7.00,+6.00,+2.00,+38.00,-22.00,+38.00,-14.00,+5.00,-11.00,-8.00,-7.00,-21.00,+43.00,-22.00,+0.00
-8.00,-6.00,-8.00,-4.00,-14.00,+22.00,-17.00,-7.00,+16.00,+5.00,+0.00,+11.00,+36.00,-23.00,-15.00,+0.00
-14.00,-20.00,-2.00,+3.00,+29.00,+9.00,+1.00,+40.00,-61.00,-15.00,-1.00,-8.00,-31.00,+35.00,+16.00,-4.00
+58.00,+60.00,+1.00,-1.00,+5.00,-19.00,+10.00,+4.00,+29.00,+22.00,+4.00,-3.00,+6.00,-8.00,+2.00,+0.00
+24.00,+13.00,+5.00,+1.00,+0.00,+38.00,-23.00,+9.00,-19.00,-13.00,-7.00,-6.00,-18.00,-9.00,+11.00,+7.00
-14.00,-17.00,-6.00,-4.00,-55.00,-12.00,+15.00,-24.00,+2.00,-21.00,+1.00,+18.00,-2.00,+30.00,+37.00,-22.00
-5.00,+52.00,+8.00,+0.00,+2.00,+26.00,+9.00,+20.00,+26.00,+24.00,+0.00,-20.00,-17.00,-34.00,-1.00,+3.00
-1.00,-61.00,-6.00,-4.00,-32.00,+5.00,-22.00,-6.00,+6.00,-2.00,-4.00,+1.00,+1.00,+7.00,-7.00,+6.00
-43.00,+16.00,-4.00,-7.00,-43.00,+71.00,-10.00,-8.00,-4.00,-6.00,-6.00,-19.00,-50.00,-25.00,+1.00,+21.00
+26.00,+0.00,-3.00,-7.00,-4.00,-41.00,+29.00,+18.00,-22.00,-3.00,-5.00,-8.00,-40.00,-6.00,-48.00,-24.00
+16.00,-17.00,-5.00,-3.00,-10.00,-12.00,-13.00,+22.00,+0.00,-5.00,+2.00,+0.00,+17.00,-2.00,+14.00,-6.00
+4.00,+16.00,+4.00,+0.00,+40.00,-50.00,+1.00,-20.00,-5.00,-14.00,-15.00,-24.00,-55.00,-18.00,-24.00,+1.00
-1.00,-5.00,-3.00,-2.00,-31.00,+9.00,-23.00,-19.00,+8.00,+3.00,+4.00,+0.00,-30.00,+17.00,+14.00,+1.00
-21.00,-14.00,-1.00,+2.00,+77.00,+2.00,+14.00,+11.00,-4.00,+1.00,+0.00,+5.00,+13.00,-3.00,-15.00,+16.00
+2.00,-6.00,-1.00,+1.00,-44.00,-6.00,-29.00,-26.00,-1.00,+4.00,-1.00,+0.00,-32.00,-7.00,-5.00,+7.00
-8.00,-8.00,-4.00,-3.00,-14.00,-34.00,+13.00,+68.00,-12.00,-8.00,+1.00,+4.00,-7.00,+4.00,+7.00,-9.00
+4.00,-7.00,-5.00,+2.00,+15.00,+12.00,-14.00,-2.00,-23.00,+1.00,+2.00,+6.00,+9.00,+1.00,+7.00,-14.00
+36.00,+51.00,+12.00,+4.00,+44.00,+12.00,-5.00,-6.00,+43.00,+16.00,+3.00,+16.00,+57.00,+12.00,-19.00,+15.00
+0.00,-24.00,+2.00,+3.00,-50.00,+26.00,+7.00,-13.00,+10.00,-9.00,-2.00,+5.00,+17.00,+12.00,-18.00,-1.00
-17.00,-6.00,-3.00,+0.00,+80.00,+31.00,-7.00,-18.00,+13.00,+10.00,+4.00,+15.00,+115.00,+29.00,-8.00,+0.00
-1.00,-19.00,-2.00,-4.00,-54.00,+20.00,+10.00,+3.00,+11.00,-2.00,-6.00,+2.00,-27.00,-17.00,+20.00,+15.00
-23.00,-22.00,-9.00,-2.00,-14.00,-32.00,-44.00,+6.00,-22.00,-20.00,-10.00,-5.00,+32.00,+55.00,+20.00,+0.00
-19.00,+10.00,-6.00,-6.00,-71.00,-39.00,-1.00,-5.00,-5.00,+21.00,+4.00,-2.00,-24.00,+5.00,+19.00,+2.00
+30.00,-5.00,+3.00,+3.00,-5.00,-13.00,+3.00,-27.00,-19.00,+2.00,+3.00,+16.00,+9.00,+2.00,+0.00,-2.00
+11.00,-10.00,-6.00,-2.00,+25.00,+1.00,+5.00,+22.00,+20.00,+17.00,+3.00,+2.00,+11.00,+9.00,-12.00,-2.00
+27.00,+25.00,+3.00,+0.00,+11.00,+1.00,+11.00,-16.00,-7.00,-44.00,-5.00,+0.00,-32.00,-12.00,+5.00,-3.00
-6.00,+24.00,-6.00,-3.00,-11.00,+5.00,+3.00,-5.00,-23.00,-46.00,-15.00,-3.00,-2.00,-3.00,+2.00,+11.00
-41.00,-12.00,+10.00,-1.00,-4.00,-11.00,-9.00,-32.00,+5.00,+33.00,+11.00,+2.00,-54.00,+1.00,-9.00,-4.00
+0.00,+1.00,-3.00,+4.00,+5.00,-10.00,-9.00,+6.00,+5.00,+14.00,-1.00,-14.00,-16.00,-8.00,-20.00,-6.00
+1.00,-18.00,-5.00,-4.00,-30.00,-37.00,-1.00,-4.00,+8.00,+24.00,+2.00,-4.00,-56.00,-19.00,+13.00,+17.00
+4.00,-21.00,-8.00,-6.00,+20.00,+7.00,-6.00,-6.00,-5.00,-30.00,-7.00,-10.00,-33.00,-7.00,-21.00,-4.00
-7.00,-5.00,-12.00,-3.00,-15.00,-13.00,-1.00,-8.00,+6.00,+5.00,-1.00,+1.00,-22.00,-13.00,-14.00,-4.00
+1.00,+8.00,+6.00,+0.00,+13.00,-35.00,-7.00,+1.00,-4.00,-8.00,+5.00,+19.00,+14.00,+4.00,-7.00,-5.00
-7.00,-18.00,-2.00,+2.00,-13.00,-4.00,+12.00,+4.00,-9.00,+9.00,-7.00,+5.00,-13.00,-9.00,-1.00,-20.00
+3.00,-20.00,-4.00,-3.00,-24.00,-67.00,-6.00,-8.00,-12.00,+6.00,+3.00,+13.00,+4.00,+6.00,+5.00,+3.00
+0.00,+14.00,+1.00,-6.00,-70.00,-11.00,+3.00,-23.00,+9.00,-10.00,-5.00,+0.00,+20.00,-11.00,-9.00,+3.00
-7.00,+4.00,-1.00,+0.00,+52.00,-8.00,-4.00,+25.00,+18.00,-1.00,-1.00,+4.00,+10.00,+10.00,+4.00,-2.00
+0.00,+2.00,+0.00,-2.00,-94.00,-10.00,-4.00,-8.00,-10.00,+1.00,+2.00,+4.00,+25.00,-3.00,+3.00,+15.00
+9.00,+2.00,+5.00,+3.00,+13.00,+23.00,+5.00,+15.00,-8.00,+6.00,+2.00,+6.00,+46.00,-5.00,-2.00,-9.00
+12.00,-11.00,+0.00,+4.00,+16.00,-12.00,+5.00,+23.00,-31.00,-11.00,-1.00,-2.00,+6.00,-5.00,+1.00,-9.00
+10.00,+2.00,-1.00,+0.00,+23.00,+9.00,-7.00,-14.00,+29.00,-4.00,-1.00,-3.00,+36.00,-4.00,-10.00,+3.00
-17.00,-7.00,-8.00,-5.00,+21.00,+33.00,+1.00,-3.00,-28.00,-21.00,-3.00,+3.00,+15.00,-2.00,+1.00,-3.00
+21.00,+44.00,+8.00,-4.00,+6.00,+16.00,-4.00,-18.00,-16.00,-6.00,-12.00,-13.00,-6.00,+7.00,+4.00,+8.00
-6.00,+6.00,+7.00,+2.00,-13.00,+2.00,+6.00,+4.00,-2.00,-9.00,+9.00,+1.00,+8.00,-13.00,-10.00,-8.00
-3.00,-8.00,+7.00,+6.00,-4.00,+11.00,+0.00,-15.00,+1.00,+5.00,-2.00,+1.00,+21.00,+4.00,+2.00,+1.00
+4.00,+4.00,+5.00,+9.00,+6.00,+9.00,+3.00,+17.00,+16.00,+17.00,-5.00,-8.00,-14.00,-5.00,+1.00,+4.00
-7.00,-8.00,+5.00,+11.00,-1.00,+3.00,+3.00,-6.00,+18.00,+11.00,+11.00,+0.00,+11.00,+0.00,-1.00,+3.00
-7.00,-4.00,-1.00,-5.00,+16.00,-7.00,-6.00,-7.00,+0.00,-17.00,-13.00,-6.00,+19.00,+8.00,+1.00,+4.00
-9.00,-3.00,-27.00,-32.00,-26.00,-12.00,-6.00,-3.00,-55.00,+7.00,+11.00,-12.00,-26.00,-9.00,-7.00,-1.00
-15.00,+2.00,-27.00,-26.00,-7.00,+3.00,-10.00,-7.00,-110.00,+4.00,+2.00,-3.00,-5.00,-1.00,+5.00,-6.00
-7.00,-9.00,-5.00,+4.00,+16.00,+10.00,-2.00,-17.00,-33.00,-9.00,-5.00,-4.00,+32.00,+0.00,-5.00,+4.00
-8.00,+17.00,+16.00,+15.00,+24.00,-14.00,-1.00,+4.00,-23.00,-13.00,-6.00,+2.00,-57.00,-22.00,+41.00,-8.00
+4.00,+9.00,+24.00,+17.00,+29.00,+4.00,+7.00,-2.00,+76.00,+18.00,+1.00,+14.00,+8.00,-26.00,-19.00,+13.00
-1.00,-6.00,+8.00,+6.00,-12.00,-6.00,-4.00,+0.00,+56.00,-4.00,-5.00,-5.00,-14.00,+0.00,+2.00,-4.00
+2.00,-9.00,+0.00,-6.00,-1.00,-6.00,+5.00,+14.00,+53.00,-3.00,-4.00,-17.00,-21.00,-2.00,-7.00,-8.00
-12.00,+4.00,-5.00,-1.00,-6.00,-7.00,-5.00,-24.00,+40.00,+23.00,+6.00,+7.00,+5.00,-2.00,+0.00,+5.00
-5.00,-17.00,-1.00,+2.00,+2.00,-5.00,+6.00,+19.00,+5.00,-7.00,-3.00,+7.00,+26.00,+11.00,-15.00,+0.00
+5.00,+4.00,+4.00,+5.00,+26.00,+19.00,+1.00,-14.00,+22.00,+0.00,+1.00,-10.00,-17.00,-1.00,-7.00,-9.00
-5.00,-10.00,-4.00,-5.00,-3.00,-1.00,+0.00,-12.00,+18.00,+2.00,+1.00,+5.00,+15.00,-13.00,+1.00,-6.00
+11.00,-1.00,-7.00,-3.00,-4.00,-18.00,-1.00,+40.00,-14.00,-20.00,-6.00,-10.00,-8.00,+5.00,-10.00,+24.00
-3.00,+11.00,-6.00,-4.00,-6.00,+10.00,-3.00,-15.00,+20.00,-8.00,-5.00,+3.00,+10.00,+4.00,+11.00,-2.00
+5.00,+5.00,+3.00,+1.00,+9.00,+15.00,+7.00,+7.00,+15.00,+18.00,+4.00,+3.00,+8.00,+4.00,-7.00,-2.00
-6.00,-5.00,+3.00,+1.00,-1.00,+14.00,+1.00,+2.00,-16.00,-10.00,-2.00,-3.00,-7.00,+1.00,-5.00,-7.00
-7.00,-5.00,-6.00,-5.00,-5.00,+0.00,-5.00,-27.00,-8.00,+0.00,-4.00,-5.00,+2.00,+2.00,-5.00,-7.00
-12.00,-12.00,-3.00,-1.00,-15.00,-5.00,-5.00,+6.00,-32.00,-10.00,-3.00,-6.00,-11.00,+4.00,+7.00,-4.00
-4.00,-18.00,+3.00,+3.00,+3.00,+5.00,+0.00,-13.00,+14.00,+7.00,+2.00,+3.00,-3.00,-5.00,+0.00,+2.00
-1.00,+4.00,+3.00,+3.00,+7.00,+4.00,+5.00,-1.00,+7.00,+5.00,+24.00,+11.00,-5.00,+1.00,+4.00,+6.00
+0.00,-8.00,-13.00,+0.00,-2.00,+1.00,+1.00,+22.00,-10.00,-4.00,-7.00,-1.00,-13.00,-1.00,-5.00,-6.00
+7.00,+8.00,+6.00,+1.00,-5.00,-4.00,-3.00,+2.00,+4.00,+20.00,-25.00,-10.00,+5.00,-5.00,-5.00,-1.00
-13.00,-29.00,+36.00,+13.00,+5.00,+0.00,+1.00,-3.00,-49.00,-39.00,-13.00,-8.00,-13.00,-5.00,-4.00,-27.00
+5.00,+26.00,-59.00,-37.00,-3.00,+10.00,-3.00,+4.00,+48.00,+31.00,+5.00,-5.00,-8.00,+1.00,+4.00,+30.00
-17.00,-21.00,-27.00,-24.00,-11.00,-2.00,-4.00,-13.00,+17.00,+14.00,+15.00,+1.00,+8.00,+2.00,-8.00,-1.00
-3.00,-22.00,-2.00,+3.00,-8.00,-1.00,-2.00,+2.00,-17.00,-15.00,+3.00,+5.00,+8.00,+3.00,+3.00,+1.00
-5.00,+18.00,+3.00,+7.00,+7.00,+5.00,+1.00,-11.00,+32.00,+15.00,-1.00,+2.00,+5.00,+0.00,+2.00,+2.00
-6.00,-29.00,+23.00,+14.00,+0.00,+7.00,+1.00,+8.00,-20.00,-22.00,-6.00,-2.00,-7.00,+0.00,-1.00,-7.00
+3.00,+28.00,+9.00,+8.00,-2.00,+0.00,+0.00,-4.00,-9.00,-3.00,-7.00,+0.00,+0.00,-2.00,-3.00,-4.00
-2.00,-27.00,-1.00,-2.00,-3.00,-7.00,+0.00,-6.00,-8.00,+11.00,+6.00,+0.00,+3.00,+2.00,+4.00,-4.00
+12.00,+65.00,-4.00,-4.00,+2.00,+7.00,-1.00,+8.00,-17.00,-1.00,+5.00,+6.00,+3.00,+1.00,+2.00,+2.00
+5.00,-4.00,+11.00,+3.00,+3.00,+2.00,+3.00,+14.00,-11.00,+1.00,-5.00,-4.00,+4.00,-6.00,-10.00,-10.00
+1.00,-7.00,-6.00,-7.00,-5.00,-3.00,-3.00,-8.00,+28.00,-2.00,-7.00,-6.00,-3.00,-1.00,+0.00,+2.00
+1.00,-3.00,+0.00,-1.00,-4.00,-6.00,-6.00,-11.00,-53.00,-11.00,+5.00,+2.00,+6.00,-2.00,+0.00,-9.00
+5.00,-17.00,-9.00,-2.00,+2.00,+1.00,-1.00,+8.00,+28.00,+14.00,+5.00,+3.00,+3.00,+0.00,+1.00,+11.00
-1.00,-8.00,-1.00,-2.00,-1.00,+2.00,+1.00,+15.00,-13.00,-5.00,-6.00,-5.00,-1.00,+4.00,-6.00,-18.00
+10.00,-3.00,+2.00,+3.00,+0.00,-2.00,+1.00,+15.00,-27.00,-7.00,-6.00,-3.00,+0.00,+2.00,-2.00,-5.00
+9.00,+25.00,+3.00,+2.00,-4.00,+1.00,-3.00,+14.00,+19.00,-6.00,-1.00,-3.00,-8.00,-8.00,+0.00,+6.00
-3.00,-4.00,-9.00,-7.00,-1.00,-3.00,+2.00,-4.00,+13.00,+3.00,+3.00,+1.00,+1.00,-2.00,-1.00,+4.00
-14.00,-7.00,-4.00,-1.00,+0.00,-1.00,-2.00,-13.00,-34.00,+1.00,-5.00,+0.00,-1.00,+0.00,+3.00,+2.00
-1.00,-14.00,+9.00,+4.00,+1.00,+1.00,-5.00,-13.00,+14.00,+1.00,+3.00,+0.00,-1.00,+2.00,-3.00,-3.00
+9.00,+25.00,+3.00,+2.00,+0.00,-1.00,-2.00,+3.00,+11.00,-13.00,+4.00,+4.00,+3.00,+4.00,+1.00,+1.00
-9.00,-21.00,-6.00,-2.00,+2.00,+0.00,+0.00,-7.00,+14.00,+26.00,+0.00,+0.00,-1.00,+0.00,+3.00,+1.00
+3.00,-10.00,+11.00,+7.00,+4.00,+0.00,+0.00,+3.00,-26.00,-4.00,-9.00,-2.00,-4.00,-4.00,-3.00,-8.00
+3.00,+11.00,+14.00,+7.00,+0.00,+0.00,-1.00,-2.00,+48.00,+8.00,+1.00,-4.00,+0.00,-1.00,-2.00,+6.00
-7.00,+0.00,-12.00,-11.00,-5.00,-4.00,+0.00,-3.00,-26.00,-1.00,+7.00,+1.00,-1.00,+0.00,+1.00,+3.00
+3.00,-18.00,-10.00,-9.00,-3.00,+0.00,+0.00,-1.00,-12.00,-5.00,+4.00,+1.00,-2.00,-2.00,+0.00,-1.00
+0.00,-5.00,-18.00,-19.00,-7.00,-2.00,-2.00,+1.00,-8.00,-10.00,-4.00,-10.00,-7.00,-2.00,-3.00,-5.00
-7.00,-2.00,-5.00,-1.00,-3.00,-3.00,-2.00,-2.00,-11.00,-6.00,-2.00,+4.00,+1.00,-1.00,-1.00,-3.00
+4.00,+18.00,+10.00,+10.00,+4.00,+2.00,+0.00,-3.00,+13.00,+7.00,-3.00,+3.00,+3.00,+3.00,+1.00,-2.00
-1.00,-16.00,+11.00,+9.00,+4.00,+4.00,+3.00,+5.00,-4.00,-5.00,-4.00,+2.00,+27.00,+0.00,-1.00,-1.00
+2.00,+3.00,+10.00,+8.00,+3.00,+22.00,+0.00,+2.00,+5.00,+0.00,-7.00,-10.00,-43.00,-4.00,-1.00,+0.00
+0.00,+8.00,+1.00,+0.00,-2.00,-14.00,+0.00,-6.00,-12.00,-5.00,-3.00,-1.00,+4.00,-1.00,+0.00,-5.00
-3.00,+1.00,-3.00,-3.00,-1.00,-3.00,-1.00,-1.00,-2.00,-5.00,-6.00,-6.00,-4.00,-4.00,-3.00,-7.00
-4.00,-1.00,-9.00,-9.00,-5.00,-4.00,-2.00,+2.00,-3.00,+0.00,+4.00,-1.00,-1.00,+0.00,-2.00,+0.00
+0.00,-3.00,-1.00,+1.00,+2.00,-1.00,-1.00,-2.00,+2.00,+2.00,-1.00,-1.00,+7.00,-2.00,-2.00,-8.00
+7.00,-7.00,-3.00,-4.00,+1.00,+4.00,+1.00,-3.00,-11.00,+4.00,-1.00,+1.00,+1.00,+1.00,-1.00,-1.00
-6.00,-1.00,+1.00,+0.00,-2.00,+0.00,+1.00,-2.00,+14.00,-2.00,+2.00,-3.00,-9.00,-1.00,-1.00,+2.00
-8.00,-2.00,-8.00,-6.00,+1.00,+5.00,-3.00,+0.00,-4.00,-8.00,-4.00,+0.00,+2.00,-1.00,+2.00,+7.00
-4.00,+4.00,+2.00,+1.00,-3.00,-14.00,+0.00,-4.00,+8.00,-1.00,-4.00,+2.00,-2.00,+1.00,-2.00,+2.00
-6.00,-10.00,+0.00,+3.00,-1.00,+1.00,+0.00,-4.00,-5.00,-1.00,+3.00,-6.00,-6.00,-5.00,-4.00,-8.00
-4.00,-17.00,-10.00,-9.00,-3.00,-9.00,-5.00,-1.00,-14.00,-7.00,-2.00,+0.00,+4.00,-1.00,+0.00,+0.00
+1.00,+8.00,-5.00,-5.00,-3.00,-1.00,-1.00,-3.00,+3.00,+5.00,-1.00,-6.00,-12.00,-2.00,-1.00,+0.00
-1.00,-4.00,+1.00,+0.00,+4.00,+1.00,-3.00,-1.00,+28.00,+10.00,-3.00,+1.00,+8.00,+2.00,+0.00,+6.00
-9.00,-6.00,+7.00,+8.00,+0.00,+1.00,-1.00,-3.00,-59.00,-13.00,-6.00,-2.00,-3.00,-1.00,-3.00,-5.00
-10.00,-2.00,+7.00,+7.00,+0.00,+0.00,-1.00,-2.00,+56.00,+4.00,-4.00,-1.00,-4.00,-3.00,-5.00,-5.00
+2.00,-24.00,-7.00,-5.00,-2.00,+0.00,-2.00,-1.00,-3.00,-8.00,+8.00,-2.00,-5.00,+0.00,-1.00,-4.00
+13.00,+23.00,-8.00,-12.00,+3.00,+1.00,+2.00,+5.00,-7.00,-5.00,+2.00,+0.00,+6.00,-1.00,-4.00,-5.00
-1.00,-9.00,-9.00,-9.00,-13.00,+3.00,-2.00,-1.00,+1.00,-4.00,-3.00,-1.00,-4.00,+2.00,+2.00,+1.00
+3.00,+11.00,-2.00,+0.00,+1.00,-13.00,-4.00,-5.00,-20.00,-6.00,-6.00,+0.00,-1.00,+3.00,+3.00,+4.00
-7.00,-4.00,+7.00,+9.00,+1.00,+6.00,+2.00,-7.00,-10.00,+14.00,-7.00,-3.00,-11.00,-12.00,-4.00,-4.00
-7.00,-19.00,+1.00,+4.00,-2.00,-17.00,-2.00,+3.00,-9.00,-20.00,-1.00,+0.00,+7.00,-1.00,+1.00,+0.00
+3.00,-7.00,-6.00,-1.00,+3.00,+9.00,+1.00,-2.00,+30.00,-1.00,+3.00,+1.00,+3.00,-2.00,-1.00,+1.00
+3.00,+67.00,+21.00,+6.00,+2.00,+7.00,+5.00,+6.00,-31.00,+9.00,+2.00,+0.00,+0.00,+4.00,-1.00,-5.00
+7.00,+5.00,+8.00,+2.00,+0.00,-6.00,-3.00,+1.00,+0.00,-7.00,-2.00,-4.00,-2.00,+2.00,-2.00,-6.00
+6.00,-4.00,-8.00,-3.00,-4.00,-4.00,-3.00,-5.00,+1.00,+9.00,+3.00,+3.00,-8.00,-5.00,+0.00,+7.00
-6.00,+0.00,-11.00,-10.00,+1.00,+0.00,-1.00,-10.00,+1.00,+2.00,-2.00,-2.00,+3.00,-1.00,-4.00,-6.00
-7.00,-26.00,-10.00,-3.00,+0.00,+0.00,-1.00,+3.00,+0.00,-8.00,-5.00,-3.00,-1.00,+0.00,+0.00,+1.00
+6.00,+18.00,+5.00,+4.00,+4.00,+1.00,-1.00,+1.00,-14.00,-7.00,-1.00,+1.00,-5.00,+0.00,+1.00,+1.00
+3.00,+11.00,+1.00,+3.00,-2.00,+4.00,+1.00,+4.00,+22.00,-23.00,-6.00,-3.00,+1.00,-3.00,-2.00,+0.00
-9.00,-25.00,-4.00,-2.00,-1.00,-6.00,-5.00,-3.00,-14.00,+30.00,+0.00,+0.00,-3.00,+1.00,+2.00,+3.00
+10.00,+11.00,+4.00,+1.00,+0.00,+4.00,+2.00,+1.00,+14.00,-5.00,+3.00,-1.00,-2.00,-3.00,-4.00,-8.00
+1.00,+3.00,-6.00,-2.00,-1.00,-3.00,-2.00,+3.00,-37.00,-9.00,-2.00,-2.00,-1.00,+0.00,-1.00,-4.00
+4.00,+7.00,+2.00,+4.00,+0.00,+0.00,-2.00,-2.00,+22.00,+9.00,+6.00,+3.00,+4.00,+2.00,+2.00,+4.00
-3.00,+15.00,-7.00,-4.00,-1.00,-2.00,-2.00,-3.00,+6.00,-9.00,-2.00,-1.00,-1.00,-3.00,-3.00,-1.00
+1.00,-17.00,-3.00,-3.00,-1.00,+0.00,+2.00,+1.00,-3.00,-8.00,-4.00,-3.00,+1.00,-4.00,-1.00,-3.00
-10.00,-13.00,-2.00,-2.00,-1.00,-3.00,-4.00,-1.00,+7.00,+2.00,-5.00,-1.00,-3.00,-2.00,-3.00,-4.00
+4.00,+10.00,+4.00,+6.00,-1.00,+0.00,-2.00,-8.00,-18.00,-11.00,-4.00,-1.00,-1.00,+0.00,-3.00,-8.00
-2.00,+15.00,+8.00,+4.00,+1.00,+0.00,-1.00,-1.00,-12.00,+9.00,+6.00,+1.00,+0.00,+0.00,+2.00,+6.00
+0.00,-13.00,-9.00,-10.00,-2.00,+2.00,+0.00,-5.00,-16.00,-2.00,-2.00,-4.00,-6.00,-2.00,+1.00,+4.00
+2.00,-13.00,-19.00,-16.00,+3.00,+2.00,+1.00,-4.00,-10.00,-27.00,+1.00,-2.00,+3.00,-1.00,-5.00,-8.00
-4.00,-16.00,-4.00,-5.00,-11.00,-4.00,+3.00,+7.00,+27.00,+37.00,+0.00,-3.00,+1.00,+0.00,+3.00,+12.00
-4.00,+19.00,+6.00,+4.00,+0.00,-2.00,+0.00,-3.00,+0.00,-9.00,-4.00,+2.00,+0.00,-1.00,-1.00,-2.00
-3.00,-2.00,+1.00,+5.00,+1.00,+0.00,+0.00,+6.00,-30.00,-25.00,-14.00,-2.00,+0.00,-2.00,-4.00,-5.00
-1.00,-6.00,+7.00,+11.00,+1.00,-3.00,+0.00,-9.00,+34.00,-14.00,-1.00,+1.00,-1.00,+1.00,+4.00,+8.00
-1.00,+31.00,+12.00,+3.00,+2.00,+2.00,-1.00,-4.00,-31.00,+36.00,+6.00,+1.00,+1.00,-3.00,-3.00,-7.00
+3.00,-71.00,-12.00,-13.00,-1.00,+2.00,+1.00,+3.00,+12.00,+26.00,+7.00,-4.00,-3.00,-1.00,-3.00,-2.00
-4.00,-3.00,-10.00,-1.00,-3.00,-3.00,-3.00,-7.00,+1.00,+2.00,+3.00,+1.00,-1.00,+1.00,+2.00,-1.00
-5.00,-4.00,-9.00,+3.00,+0.00,+2.00,+1.00,+3.00,-19.00,-53.00,-11.00,-7.00,-5.00,-3.00,-3.00,-2.00
+1.00,-16.00,+12.00,+0.00,+0.00,-1.00,-2.00,+0.00,+14.00,-16.00,-3.00,+1.00,+2.00,+8.00,-2.00,-2.00
+1.00,+32.00,+3.00,+1.00,-2.00,-8.00,-4.00,+2.00,+18.00,-3.00,+2.00,+3.00,+1.00,-7.00,+5.00,+11.00
+4.00,+0.00,+1.00,-3.00,+2.00,+14.00,+7.00,+2.00,+6.00,+11.00,-4.00,-2.00,+1.00,-3.00,+0.00,+3.00
+9.00,+16.00,+1.00,+1.00,-3.00,-3.00,+0.00,+5.00,+3.00,+6.00,-3.00,-2.00,-3.00,-1.00,-2.00,-4.00
-7.00,-8.00,-6.00,+0.00,-1.00,+0.00,-1.00,-4.00,-12.00,+0.00,+0.00,-4.00,-1.00,-3.00,-1.00,-9.00
+2.00,+8.00,+3.00,+0.00,+1.00,-4.00,-1.00,+0.00,+12.00,+3.00,+1.00,+0.00,+0.00,+4.00,+1.00,+3.00
-3.00,-19.00,+0.00,+1.00,-1.00,-1.00,-2.00,-7.00,-3.00,-6.00,+0.00,+0.00,-3.00,-2.00,-5.00,-7.00
-3.00,-3.00,-1.00,-4.00,-3.00,-2.00,-3.00,-1.00,+8.00,+15.00,+0.00,-1.00,-1.00,-3.00,+4.00,+9.00
-8.00,-2.00,-3.00,-5.00,-1.00,-2.00,+0.00,-6.00,-15.00,+0.00,-3.00,+0.00,-2.00,+0.00,-1.00,-2.00
+3.00,+12.00,+7.00,+3.00,+3.00,+4.00,+4.00,+26.00,-5.00,-37.00,-12.00,-5.00,-1.00,-2.00,-3.00,-5.00
+1.00,-4.00,+0.00,+5.00,+1.00,-2.00,-1.00,+1.00,+0.00,+38.00,+10.00,+4.00,+1.00,-2.00,-1.00,+1.00
+9.00,+14.00,+8.00,+7.00,-1.00,-1.00,+1.00,+1.00,+22.00,+55.00,+13.00,+3.00,-3.00,+3.00,+0.00,+2.00
-12.00,-13.00,-26.00,-22.00,-4.00,-3.00,-5.00,-9.00,-10.00,-37.00,-3.00,-4.00,+0.00,-3.00,-2.00,-1.00
-5.00,-28.00,-7.00,-7.00,-5.00,-2.00,-3.00,-9.00,-9.00,-7.00,-2.00,+1.00,-1.00,-2.00,-4.00,-12.00
+5.00,-9.00,-1.00,-4.00,-2.00,-2.00,-2.00,-1.00,-12.00,+2.00,-5.00,-4.00,+0.00,+0.00,+0.00,-4.00
+3.00,+19.00,+8.00,+4.00,+0.00,-2.00,-2.00,-1.00,-45.00,-29.00,-10.00,-4.00,-1.00,-2.00,+0.00,+0.00
-13.00,-3.00,-10.00,+6.00,-1.00,-2.00,-3.00,-5.00,+13.00,-10.00,+6.00,+3.00,+2.00,-1.00,+1.00,-1.00
+10.00,+54.00,+34.00,+11.00,+4.00,+2.00,+1.00,-2.00,+51.00,+10.00,-4.00,+0.00,+1.00,+3.00,+1.00,+5.00
+7.00,+3.00,+7.00,+6.00,+0.00,+2.00,+2.00,+6.00,+4.00,-9.00,+6.00,-1.00,-2.00,+0.00,-3.00,-4.00
-2.00,-19.00,-2.00,-11.00,-2.00,-1.00,+0.00,-2.00,+1.00,+24.00,-3.00,+0.00,+0.00,+0.00,+0.00,-2.00
-3.00,-14.00,-3.00,-3.00,-1.00,-2.00,+1.00,+2.00,-35.00,+47.00,+14.00,+1.00,-2.00,-5.00,-3.00,-5.00
-5.00,-10.00,-29.00,-13.00,-1.00,+1.00,-1.00,-6.00,-14.00,-3.00,-1.00,-3.00,-2.00,-1.00,+2.00,+0.00
-6.00,+8.00,-3.00,+1.00,-1.00,-5.00,-5.00,-5.00,+6.00,-18.00,-7.00,+0.00,+0.00,+1.00,+2.00,+2.00
-2.00,+6.00,+7.00,+4.00,+0.00,+1.00,+1.00,-2.00,+15.00,+10.00,-2.00,-3.00,-3.00,-2.00,-3.00,-5.00
-6.00,-18.00,-2.00,-2.00,+0.00,+5.00,+1.00,+8.00,+8.00,-19.00,-9.00,-4.00,+0.00,-3.00,-1.00,-1.00
+4.00,-17.00,-1.00,+2.00,-6.00,-6.00,+1.00,-1.00,-25.00,-5.00,-2.00,-1.00,-2.00,+0.00,-5.00,-13.00
+10.00,+22.00,+2.00,-1.00,+0.00,+1.00,-1.00,+0.00,+1.00,-17.00,-10.00,-1.00,+10.00,-2.00,+1.00,+8.00
-2.00,+0.00,-10.00,-7.00,-9.00,-8.00,-3.00,+1.00,-34.00,-20.00,-2.00,+0.00,-6.00,-1.00,-2.00,-7.00
-2.00,+0.00,+5.00,+2.00,+4.00,+0.00,+0.00,-7.00,+1.00,+9.00,-7.00,-3.00,-3.00,+0.00,+3.00,+6.00
+1.00,+33.00,-2.00,+4.00,+4.00,+3.00,-2.00,-6.00,+6.00,+0.00,+9.00,+3.00,+0.00,+0.00,+2.00,+8.00
-8.00,-76.00,+0.00,+0.00,-2.00,-2.00,+1.00,+5.00,-18.00,-13.00,-3.00,-1.00,+3.00,+0.00,-1.00,+1.00
-2.00,-23.00,-17.00,-9.00,+0.00,+0.00,-2.00,-7.00,-1.00,+12.00,+13.00,-3.00,-6.00,-3.00,-5.00,-12.00
+5.00,+22.00,-7.00,-14.00,+5.00,+0.00,-3.00,-9.00,-53.00,-121.00,-19.00,-4.00,-4.00,-3.00,-6.00,-12.00
+11.00,+35.00,+0.00,-1.00,-12.00,-8.00,+1.00,+22.00,+54.00,+85.00,+6.00,-6.00,-5.00,-6.00,-7.00,-5.00
-11.00,-3.00,-6.00,-3.00,-2.00,-3.00,-6.00,-6.00,-70.00,+11.00,-4.00,-2.00,-3.00,-2.00,-2.00,+2.00
-25.00,-37.00,-9.00,+6.00,+0.00,+0.00,-3.00,-4.00,+1.00,-9.00,+0.00,+4.00,+4.00,+1.00,+3.00,+7.00
+11.00,-5.00,+14.00,+9.00,+2.00,+0.00,+1.00,+3.00,+9.00,+3.00,+1.00,+0.00,-1.00,+1.00,+3.00,+0.00
+3.00,+14.00,-5.00,+3.00,+5.00,+4.00,+0.00,-9.00,-1.00,-39.00,-10.00,-4.00,-5.00,-1.00,-1.00,-3.00
+4.00,-7.00,+3.00,-5.00,+0.00,+1.00,-2.00,-1.00,+1.00,+3.00,+6.00,+2.00,+3.00,+1.00,-1.00,-1.00
+4.00,+52.00,+7.00,-5.00,-3.00,+2.00,+1.00,+4.00,-3.00,+16.00,-1.00,-3.00,-26.00,-3.00,-3.00,-3.00
-8.00,-8.00,-6.00,-2.00,-2.00,-9.00,-1.00,-6.00,+52.00,+11.00,+0.00,+5.00,+0.00,+0.00,-1.00,-8.00
-2.00,-13.00,-1.00,-1.00,+1.00,-8.00,-2.00,-7.00,-50.00,-31.00,-4.00,-2.00,+1.00,-1.00,+2.00,+6.00
-2.00,+6.00,-3.00,+1.00,+0.00,+0.00,-2.00,+6.00,+44.00,+31.00,+3.00,-4.00,-9.00,-1.00,+0.00,+11.00
+2.00,+3.00,+2.00,+0.00,+1.00,-7.00,-2.00,-3.00,-2.00,-66.00,-9.00,+0.00,+1.00,+1.00,+3.00,+5.00
-2.00,-13.00,+1.00,+4.00,+3.00,+13.00,+1.00,+4.00,+12.00,+78.00,-1.00,+4.00,+24.00,+2.00,-2.00,+1.00
-8.00,-16.00,+6.00,+0.00,+10.00,+11.00,-2.00,-7.00,+0.00,-14.00,+2.00,-3.00,-25.00,-3.00,+1.00,-6.00
-8.00,-11.00,-11.00,-10.00,-32.00,-31.00,-4.00,-7.00,-1.00,+5.00,+6.00,-2.00,-6.00,-1.00,-3.00,-8.00
+7.00,+25.00,-5.00,-7.00,-1.00,+5.00,+0.00,-10.00,+25.00,-61.00,-15.00,-3.00,+13.00,-1.00,-1.00,-1.00
+7.00,+16.00,+9.00,+4.00,-6.00,-4.00,-1.00,+19.00,-11.00,+70.00,+10.00,-2.00,-6.00,-4.00,-4.00,+2.00
+4.00,-13.00,+5.00,+9.00,+5.00,+1.00,+2.00,+20.00,-9.00,-12.00,-6.00,+0.00,+7.00,+1.00,-2.00,-1.00
-6.00,-26.00,-5.00,-2.00,+8.00,+10.00,-1.00,-10.00,-33.00,-21.00,-1.00,-1.00,-2.00,-1.00,-1.00,-9.00
+3.00,+86.00,+0.00,-12.00,-6.00,-3.00,-1.00,+0.00,+54.00,+8.00,-3.00,-1.00,+4.00,+2.00,+2.00,+1.00
+17.00,+12.00,+29.00,+9.00,-1.00,-4.00,+1.00,+5.00,+16.00,-25.00,-2.00,-6.00,-2.00,-2.00,+1.00,+0.00
-10.00,-10.00,-10.00,-8.00,-3.00,-5.00,-5.00,-10.00,-44.00,-51.00,-1.00,-2.00,-2.00,+2.00,-2.00,-3.00
-12.00,-9.00,-9.00,-6.00,+5.00,+2.00,-3.00,-6.00,+13.00,+37.00,+8.00,+3.00,+3.00,-8.00,+0.00,-1.00
+26.00,+13.00,+12.00,+8.00,+0.00,+5.00,+4.00,+11.00,-34.00,+12.00,+0.00,+2.00,+3.00,-1.00,-3.00,-5.00
-10.00,+2.00,-7.00,-1.00,-1.00,-2.00,-3.00,-6.00,+36.00,+7.00,-2.00,-1.00,-6.00,-1.00,+1.00,+7.00
+13.00,-8.00,+3.00,+5.00,-1.00,+5.00,+3.00,+5.00,-7.00,-11.00,-2.00,+3.00,+4.00,+2.00,+0.00,-3.00
+0.00,+19.00,+4.00,+0.00,+0.00,-1.00,-1.00,+1.00,-21.00,-26.00,-5.00,+6.00,+14.00,+4.00,-2.00,-4.00
-9.00,-25.00,+1.00,+0.00,+16.00,+26.00,-1.00,-7.00,+28.00,+41.00,+5.00,-14.00,-33.00,-5.00,+1.00,+13.00
-8.00,-8.00,-8.00,-4.00,-14.00,-15.00,-3.00,-5.00,-29.00,-19.00,-1.00,+1.00,+24.00,-1.00,+1.00,+5.00
-5.00,-5.00,-3.00,-2.00,-7.00,-11.00,-2.00,-6.00,-16.00,+3.00,-6.00,-6.00,-16.00,-6.00,-3.00,-12.00
-3.00,+12.00,-4.00,-5.00,-6.00,-19.00,-4.00,-7.00,+8.00,-7.00,-4.00,-2.00,+5.00,+1.00,+0.00,+2.00
-9.00,-26.00,-1.00,+2.00,+0.00,+0.00,+0.00,+3.00,-7.00,-10.00,-3.00,+2.00,+4.00,+2.00,-2.00,-3.00
+8.00,+11.00,-8.00,+0.00,-2.00,+4.00,+1.00,+4.00,-5.00,+17.00,+6.00,+1.00,-1.00,+0.00,-3.00,-5.00
+0.00,-12.00,+5.00,-1.00,+2.00,+11.00,+0.00,+0.00,+11.00,-16.00,-8.00,-2.00,+8.00,+1.00,+1.00,+11.00
+0.00,+23.00,+1.00,-4.00,+2.00,+7.00,-1.00,-13.00,+21.00,+63.00,+20.00,+2.00,-8.00,-2.00,-6.00,-7.00
-3.00,-15.00,-1.00,+4.00,-2.00,-7.00,+0.00,+15.00,+1.00,+4.00,-1.00,+1.00,+11.00,+1.00,+4.00,-7.00
-8.00,+3.00,-3.00,-1.00,+4.00,+2.00,-1.00,-8.00,-13.00,-61.00,-2.00,-3.00,-15.00,-2.00,+0.00,+3.00
-3.00,+17.00,-7.00,-7.00,-6.00,-7.00,-3.00,-9.00,+40.00,+42.00,+5.00,+3.00,+7.00,-2.00,-2.00,+1.00
+7.00,-58.00,-8.00,+3.00,+5.00,+6.00,+3.00,+15.00,+0.00,-26.00,-13.00,-5.00,-9.00,+0.00,-3.00,+0.00
+1.00,+43.00,+16.00,+10.00,-3.00,-7.00,-3.00,-21.00,+0.00,+17.00,+9.00,+6.00,+3.00,-1.00,-2.00,-1.00
-9.00,-37.00,+4.00,-6.00,-3.00,-3.00,-1.00,-3.00,-9.00,+13.00,+0.00,-6.00,-2.00,+0.00,+0.00,-5.00
+11.00,+28.00,-5.00,-6.00,+0.00,+3.00,+0.00,-1.00,-2.00,-1.00,+4.00,+3.00,-1.00,-2.00,+0.00,+0.00
-3.00,+26.00,+5.00,+6.00,+2.00,+1.00,+2.00,+0.00,+31.00,-28.00,-11.00,-7.00,-3.00,-1.00,-3.00,+0.00
-17.00,-34.00,-15.00,-6.00,-4.00,-6.00,-6.00,-9.00,-1.00,+30.00,+9.00,+3.00,+7.00,+1.00,+2.00,+1.00
+18.00,+28.00,+1.00,+6.00,+2.00,+2.00,+3.00,+5.00,-7.00,-26.00,-15.00,+0.00,+0.00,-1.00,+5.00,+6.00
-7.00,-19.00,-2.00,+2.00,+7.00,+6.00,+0.00,-3.00,+13.00,+19.00,+2.00,-1.00,+23.00,+0.00,-2.00,+3.00
+3.00,-6.00,-7.00,-6.00,-6.00,+10.00,+0.00,-1.00,-10.00,-13.00,-9.00,-20.00,-81.00,-7.00,-1.00,+2.00
-5.00,-23.00,-4.00,-5.00,-6.00,-22.00,-1.00,+4.00,-18.00,-9.00,-2.00,+3.00,+14.00,+9.00,-2.00,-9.00
-7.00,+11.00,+2.00,+0.00,+1.00,-15.00,-6.00,-10.00,+3.00,+4.00,+0.00,-4.00,-15.00,-8.00,+0.00,+1.00
-7.00,-18.00,-1.00,+0.00,+2.00,+13.00,+6.00,-16.00,-15.00,-34.00,-11.00,-5.00,+7.00,-2.00,-6.00,-6.00
+16.00,+20.00,+11.00,+6.00,+0.00,-8.00,+3.00,+46.00,-1.00,+12.00,+14.00,+12.00,+32.00,+2.00,+1.00,-2.00
-1.00,-2.00,-4.00,+2.00,+4.00,+21.00,+2.00,+2.00,+2.00,+13.00,-1.00,-4.00,-16.00,-2.00,-2.00,+12.00
+1.00,-8.00,-3.00,-2.00,-3.00,-6.00,-1.00,+18.00,+4.00,+1.00,-4.00,-3.00,-10.00,+2.00,-1.00,-7.00
-19.00,-27.00,-7.00,-2.00,-3.00,-8.00,-5.00,-21.00,-30.00,-6.00,+0.00,+0.00,-4.00,+0.00,+0.00,-5.00
+10.00,+46.00,-1.00,-1.00,+4.00,+6.00,-1.00,+4.00,-10.00,-17.00,-5.00,-2.00,+11.00,-2.00,+1.00,-3.00
+7.00,+4.00,+10.00,+1.00,-4.00,-2.00,+0.00,-2.00,-22.00,+13.00,+11.00,+6.00,+5.00,-2.00,-4.00,-4.00
+18.00,+49.00,+3.00,+1.00,+2.00,+5.00,-1.00,-17.00,+16.00,+28.00,+1.00,+0.00,+6.00,-1.00,-3.00,-5.00
-6.00,-57.00,-12.00,-4.00,-4.00,-4.00,-2.00,+6.00,-52.00,-44.00,-12.00,-5.00,-9.00,-3.00,-2.00,-2.00
-18.00,+8.00,-8.00,-7.00,-1.00,-1.00,-1.00,-17.00,-21.00,+6.00,+14.00,+4.00,+8.00,+1.00,+1.00,+5.00
-9.00,-14.00,+0.00,-1.00,-1.00,-7.00,-3.00,+5.00,+40.00,+5.00,-3.00,-1.00,+1.00,-1.00,-1.00,-1.00
+2.00,-21.00,+0.00,+3.00,+1.00,+4.00,+1.00,-6.00,-1.00,-23.00,-3.00,-3.00,-7.00,-1.00,+0.00,+1.00
-2.00,+20.00,-4.00,-2.00,-5.00,-4.00,-1.00,+4.00,+7.00,+43.00,+7.00,+0.00,-3.00,+0.00,-1.00,-2.00
+0.00,-40.00,+9.00,+2.00,+0.00,-1.00,-1.00,-6.00,+12.00,+9.00,-9.00,-2.00,+1.00,+1.00,+2.00,+9.00
-9.00,+1.00,-9.00,+0.00,+1.00,-3.00,-2.00,-8.00,-27.00,-22.00,-3.00,+0.00,-1.00,-2.00,-2.00,-5.00
-17.00,-29.00,-6.00,-3.00,-5.00,+4.00,-4.00,-9.00,-11.00,-8.00,+5.00,+2.00,+7.00,-1.00,-6.00,-13.00
+8.00,+18.00,-1.00,-8.00,+1.00,-4.00,-2.00,+6.00,+42.00,+8.00,-7.00,-6.00,-14.00,-3.00,+0.00,-1.00
-3.00,-6.00,-5.00,-3.00,-5.00,-12.00,+0.00,+12.00,-3.00,-17.00,-2.00,-2.00,+5.00,-1.00,-5.00,-4.00
+10.00,-12.00,+3.00,+4.00,+1.00,-2.00,+3.00,+13.00,+7.00,+5.00,-7.00,-3.00,+2.00,-2.00,+0.00,+13.00
+1.00,+5.00,+5.00,+0.00,+0.00,+1.00,+3.00,+6.00,-2.00,-1.00,-2.00,-3.00,-7.00,+1.00,+2.00,+1.00
+1.00,+8.00,+4.00,+2.00,-2.00,-1.00,-2.00,-2.00,-10.00,+12.00,+6.00,+3.00,+4.00,+1.00,+3.00,-11.00
+1.00,+17.00,+0.00,-2.00,+3.00,+3.00,-3.00,-11.00,+14.00,-17.00,-12.00,-2.00,+0.00,-2.00,-1.00,-1.00
+2.00,-11.00,-1.00,-1.00,-2.00,-3.00,+0.00,-9.00,-24.00,-15.00,+3.00,+0.00,-3.00,-3.00,-2.00,-7.00
+2.00,-5.00,-1.00,+1.00,+0.00,+0.00,+1.00,+9.00,-37.00,+28.00,-4.00,-1.00,+0.00,-2.00,-5.00,+3.00
+1.00,+50.00,-1.00,-8.00,-3.00,-2.00,-1.00,-1.00,+50.00,+18.00,+13.00,+6.00,-1.00,+0.00,+0.00,+0.00
+1.00,-12.00,+4.00,+2.00,+4.00,+3.00,+0.00,-9.00,+19.00,-10.00,-9.00,-3.00,+0.00,-1.00,-1.00,-5.00
+1.00,-24.00,-4.00,+0.00,-3.00,-1.00,+0.00,+4.00,+7.00,+12.00,-6.00,-5.00,-1.00,-3.00,-2.00,-3.00
-6.00,-8.00,-13.00,-3.00,+0.00,+0.00,-3.00,-5.00,+3.00,-14.00,-1.00,+0.00,-1.00,+2.00,+0.00,-2.00
+5.00,-15.00,+17.00,+6.00,+0.00,-1.00,-1.00,-15.00,-20.00,-26.00,-8.00,-1.00,-4.00,-2.00,-4.00,-5.00
-2.00,+13.00,+0.00,+0.00,+1.00,-1.00,-2.00,-11.00,+9.00,-5.00,-3.00,-3.00,-1.00,-1.00,-1.00,+3.00
+3.00,+6.00,-3.00,-2.00,-3.00,-3.00,-1.00,+16.00,+7.00,+8.00,-2.00,-3.00,+3.00,-2.00,-2.00,+1.00
-3.00,+1.00,-4.00,-2.00,+1.00,+1.00,-1.00,-2.00,-10.00,-23.00,-7.00,-6.00,-5.00,-2.00,-2.00,-3.00
-10.00,-21.00,-7.00,-3.00,-4.00,-3.00,-2.00,+0.00,-2.00,+12.00,+3.00,+1.00,+4.00,+2.00,+0.00,+5.00
+10.00,+11.00,-2.00,-4.00,-1.00,+4.00,-1.00,-9.00,+13.00,+7.00,+4.00,+1.00,+1.00,+1.00,+2.00,-6.00
-3.00,-3.00,+1.00,+0.00,+2.00,-2.00,-3.00,-14.00,-12.00,-7.00,-4.00,+1.00,-1.00,+0.00,-1.00,-1.00
-1.00,-15.00,-3.00,+0.00,+1.00,+0.00,+2.00,+13.00,+1.00,-2.00,+1.00,-1.00,-4.00,-3.00,-4.00,+0.00
+4.00,+2.00,+0.00,+1.00,-2.00,-2.00,+0.00,+11.00,-2.00,-6.00,-7.00,-3.00,-1.00,-2.00,-4.00,+5.00
-4.00,+0.00,-1.00,-2.00,-2.00,-2.00,-3.00,-10.00,-9.00,-41.00,-8.00,-3.00,+2.00,-2.00,+1.00,-3.00
-3.00,+7.00,+2.00,-1.00,-1.00,-2.00,+0.00,+7.00,+1.00,+52.00,+15.00,+2.00,+1.00,-2.00,+3.00,+0.00
+1.00,+9.00,-5.00,+0.00,+0.00,+2.00,+2.00,-2.00,+2.00,+0.00,+2.00,+1.00,+2.00,+1.00,-2.00,-3.00
+4.00,-6.00,+3.00,+2.00,-1.00,-1.00,+0.00,+12.00,-5.00,+5.00,+0.00,-2.00,-2.00,-1.00,-1.00,-6.00
-1.00,-3.00,-1.00,-2.00,-1.00,-1.00,+0.00,+10.00,-2.00,-14.00,-3.00,-1.00,+0.00,+1.00,+2.00,+2.00
-5.00,-9.00,-2.00,+0.00,-1.00,-1.00,-4.00,-10.00,-8.00,+2.00,+0.00,-1.00,-1.00,+0.00,-1.00,-2.00
+1.00,+14.00,+0.00,-3.00,+0.00,-1.00,-1.00,-13.00,+7.00,-9.00,-2.00,+1.00,+1.00,-1.00,+0.00,+0.00
-3.00,+4.00,+0.00,+2.00,+2.00,-1.00,+0.00,+3.00,-7.00,+1.00,-3.00,-3.00,-2.00,-1.00,+0.00,+3.00
-4.00,-8.00,-1.00,+6.00,-1.00,-1.00,-1.00,-7.00,-4.00,-5.00,-3.00,-1.00,-2.00,-2.00,-1.00,+1.00
-4.00,+16.00,-1.00,-11.00,-6.00,-1.00,+0.00,-5.00,+1.00,-19.00,+1.00,-3.00,+0.00,-1.00,-3.00,-1.00
-6.00,-35.00,-13.00,-18.00,-6.00,-3.00,-1.00,+1.00,+0.00,+22.00,+5.00,+2.00,-1.00,+1.00,-1.00,+2.00
-4.00,-22.00,-4.00,-1.00,+0.00,+0.00,-2.00,-4.00,-7.00,-10.00,-5.00,-4.00,-2.00,-2.00,-1.00,-3.00
-3.00,+19.00,-1.00,-1.00,-1.00,-1.00,+0.00,-2.00,+8.00,+27.00,+3.00,-1.00,-2.00,-3.00,-4.00,-8.00
+3.00,-3.00,-7.00,+4.00,+3.00,+0.00,+1.00,+20.00,-10.00,-35.00,-15.00,-3.00,-1.00,-2.00,-2.00,-3.00
+3.00,+21.00,+20.00,+10.00,+2.00,-1.00,+0.00,+3.00,-5.00,-16.00,-5.00,-2.00,-2.00,-2.00,-2.00,+2.00
-4.00,-9.00,-1.00,+1.00,+2.00,+1.00,+0.00,+2.00,+3.00,-1.00,-2.00,-2.00,-3.00,-1.00,+1.00,+2.00
-7.00,-10.00,-3.00,-2.00,-1.00,-3.00,-2.00,-5.00,-10.00,+8.00,+4.00,+1.00,+1.00,+0.00,+2.00,+2.00
-3.00,-5.00,-4.00,-5.00,-3.00,+0.00,-2.00,-10.00,+0.00,+3.00,+1.00,-1.00,-3.00,-3.00,-3.00,-2.00
-9.00,-6.00,-12.00,-9.00,-4.00,-1.00,-5.00,-12.00,+3.00,-4.00,-1.00,-1.00,-2.00,+0.00,+2.00,+1.00
+0.00,+5.00,+2.00,+1.00,-1.00,-2.00,-2.00,+2.00,+0.00,-2.00,-2.00,+0.00,+1.00,-1.00,+0.00,+1.00
-2.00,+7.00,+7.00,+7.00,+1.00,+1.00,-1.00,-5.00,-5.00,+17.00,+1.00,-1.00,-1.00,-2.00,-3.00,-4.00
-2.00,-3.00,+0.00,+1.00,+0.00,-1.00,-1.00,+0.00,+1.00,-9.00,-1.00,+0.00,-2.00,-1.00,-5.00,-8.00
+0.00,-12.00,-5.00,-5.00,+0.00,-1.00,+1.00,+6.00,-3.00,-3.00,+0.00,-1.00,+1.00,-1.00,+0.00,+0.00
+2.00,+9.00,-2.00,-1.00,-1.00,+1.00,+1.00,-3.00,-9.00,+6.00,+1.00,+2.00,-2.00,+1.00,-1.00,+1.00
+1.00,-3.00,-6.00,-1.00,-1.00,-1.00,-2.00,+7.00,-5.00,-3.00,-2.00,+1.00,+1.00,-2.00,-2.00,-2.00
+2.00,+5.00,+4.00,+1.00,+0.00,+0.00,-1.00,-10.00,+7.00,-6.00,-3.00,-3.00,-1.00,-1.00,+0.00,-1.00
+0.00,+2.00,+4.00,+6.00,+1.00,+0.00,+0.00,-2.00,+8.00,+4.00,-3.00,-1.00,+0.00,-2.00,-3.00,-3.00
-1.00,-12.00,-2.00,+2.00,+2.00,-2.00,+0.00,+3.00,-2.00,-11.00,-3.00,-1.00,-2.00,+0.00,+1.00,-2.00
-1.00,+25.00,+9.00,+4.00,+1.00,-2.00,+1.00,+1.00,-1.00,-5.00,+3.00,+1.00,-1.00,-1.00,+0.00,-2.00
+1.00,+10.00,-5.00,-10.00,-3.00,+0.00,-1.00,-6.00,+3.00,-2.00,-4.00,-3.00,-3.00,-2.00,+0.00,+0.00
-4.00,-5.00,-5.00,-6.00,-4.00,-3.00,-3.00,-2.00,+12.00,+21.00,+2.00,-1.00,-2.00,-3.00,+0.00,+2.00
-10.00,-43.00,-23.00,-3.00,-3.00,-2.00,-1.00,-2.00,+0.00,-1.00,-2.00,-5.00,-4.00,-3.00,-3.00,+0.00
-7.00,-18.00,-1.00,-2.00,-4.00,-4.00,-4.00,-2.00,-24.00,-31.00,-6.00,+1.00,+0.00,+1.00,+0.00,-4.00
+14.00,+41.00,+28.00,+7.00,+3.00,+3.00,+3.00,+7.00,+3.00,-7.00,-3.00,-1.00,+1.00,+1.00,+0.00,-1.00
+5.00,-6.00,-1.00,+3.00,+1.00,-1.00,+1.00,+7.00,-8.00,-10.00,+3.00,-2.00,-2.00,-1.00,-1.00,-4.00
+2.00,+25.00,-2.00,-12.00,-5.00,+0.00,-1.00,+0.00,+2.00,+12.00,+3.00,-1.00,-2.00,-2.00,-2.00,-1.00
-6.00,-14.00,-14.00,-7.00,-3.00,-2.00,-2.00,-5.00,+21.00,+20.00,-1.00,+0.00,-1.00,-1.00,-1.00,+2.00
-9.00,-34.00,-5.00,+5.00,+2.00,-1.00,-2.00,-2.00,-4.00,+6.00,-3.00,+2.00,+0.00,-2.00,+0.00,-1.00
+0.00,-14.00,+6.00,+5.00,+2.00,+0.00,-1.00,+0.00,+1.00,+1.00,-2.00,-1.00,-3.00,-1.00,-2.00,-4.00
-4.00,-41.00,-6.00,+0.00,-1.00,-1.00,-3.00,-4.00,-6.00,-7.00,-1.00,-1.00,+0.00,-2.00,-2.00,-2.00
+3.00,+57.00,+2.00,-2.00,-1.00,+0.00,+0.00,-1.00,-4.00,+2.00,+1.00,-1.00,-1.00,+0.00,-2.00,-1.00
+2.00,-4.00,-3.00,-4.00,+0.00,+1.00,+1.00,+0.00,-2.00,-2.00,+0.00,-2.00,+1.00,+0.00,+2.00,-6.00
+4.00,+8.00,+3.00,+4.00,+0.00,+1.00,+0.00,-1.00,+2.00,-2.00,-2.00,-1.00,+1.00,-1.00,+1.00,+3.00
+3.00,+6.00,+6.00,+3.00,-1.00,-1.00,-2.00,+1.00,-1.00,+1.00,+2.00,+0.00,-2.00,+0.00,+0.00,+5.00
+0.00,-9.00,-4.00,-5.00,-2.00,-1.00,-2.00,-7.00,-3.00,-2.00,-5.00,-1.00,+0.00,-1.00,-1.00,+3.00
+1.00,-4.00,-1.00,+2.00,+0.00,+0.00,+2.00,+14.00,+1.00,-3.00,-3.00,+2.00,-1.00,-1.00,-5.00,-1.00
-6.00,+11.00,+1.00,+2.00,+1.00,-1.00,-3.00,-11.00,-6.00,-9.00,+0.00,-3.00,-1.00,-2.00,-7.00,-8.00
-2.00,+0.00,+0.00,+1.00,+0.00,-1.00,+1.00,+9.00,-2.00,+5.00,-5.00,-3.00,-1.00,+0.00,+4.00,+2.00
+0.00,-13.00,-3.00,-14.00,-3.00,-2.00,+0.00,-8.00,-2.00,+2.00,-1.00,-5.00,+0.00,+0.00,-1.00,-1.00
-2.00,+4.00,-11.00,+0.00,-2.00,-4.00,-2.00,-9.00,+2.00,+0.00,+0.00,-1.00,-2.00,+1.00,+2.00,-5.00
-5.00,-16.00,-2.00,-3.00,-4.00,+0.00,-2.00,+4.00,-5.00,-3.00,+0.00,-1.00,+0.00,+1.00,-1.00,+4.00
-2.00,+22.00,+5.00,+2.00,+0.00,-2.00,-1.00,-7.00,+0.00,-5.00,+4.00,+3.00,-1.00,-2.00,-1.00,-2.00
+0.00,-8.00,+2.00,+1.00,+0.00,+0.00,+1.00,+5.00,+0.00,+1.00,+1.00,-2.00,+0.00,+0.00,+1.00,+0.00
-4.00,-9.00,-4.00,-2.00,+0.00,-1.00,-2.00,-1.00,-1.00,-1.00,-1.00,-2.00,-1.00,-1.00,-3.00,+2.00
-2.00,+5.00,+1.00,+0.00,-3.00,-1.00,-1.00,-4.00,-4.00,-6.00,-1.00,+1.00,+0.00,+0.00,-2.00,-2.00
+2.00,+10.00,+5.00,+4.00,+1.00,+1.00,+0.00,-1.00,+1.00,-3.00,-2.00,-1.00,+2.00,-3.00,+0.00,-1.00
+0.00,-6.00,+2.00,+4.00,+1.00,+0.00,+1.00,+5.00,-1.00,+3.00,+0.00,+1.00,-1.00,+0.00,+1.00,-3.00
-4.00,-5.00,-6.00,-2.00,+0.00,-1.00,-1.00,-6.00,-2.00,-2.00,-1.00,+0.00,-1.00,-2.00,+0.00,+2.00
+0.00,-6.00,+3.00,+2.00,-1.00,-1.00,-3.00,-7.00,-3.00,+2.00,+3.00,-1.00,-3.00,-3.00,+0.00,-2.00
-1.00,-1.00,-13.00,-17.00,-6.00,-3.00,-2.00,-4.00,-7.00,+1.00,-2.00,+0.00,-2.00,-1.00,-4.00,-7.00
+3.00,-21.00,-3.00,+1.00,-1.00,+0.00,-1.00,+10.00,+2.00,-6.00,-3.00,-2.00,-1.00,-2.00,-4.00,-1.00
+5.00,+42.00,+11.00,+4.00,+1.00,+1.00,+3.00,+35.00,+0.00,-2.00,-4.00,-2.00,+0.00,-1.00,-1.00,+9.00
-1.00,+1.00,-3.00,+2.00,+0.00,-1.00,-1.00,-10.00,-1.00,-2.00,-4.00,+0.00,+0.00,+1.00,+4.00,+3.00
-5.00,-6.00,+9.00,+5.00,+1.00,-1.00,+0.00,-7.00,-1.00,-2.00,+4.00,+0.00,+0.00,-1.00,-4.00,-7.00
+1.00,+9.00,-8.00,-9.00,-2.00,+0.00,+0.00,-21.00,-3.00,+4.00,+1.00,+2.00,-2.00,-2.00,-1.00,-8.00
+6.00,-10.00,-4.00,-5.00,-4.00,-2.00,+0.00,+1.00,+0.00,-1.00,-3.00,-1.00,-1.00,-1.00,+0.00,+8.00
-4.00,+2.00,-2.00,-1.00,+0.00,-2.00,+0.00,+6.00,+0.00,+2.00,+8.00,+0.00,+0.00,+0.00,-4.00,+0.00
-3.00,+8.00,+3.00,+7.00,+0.00,+0.00,-1.00,+0.00,-1.00,-17.00,-21.00,-1.00,+1.00,+0.00,+5.00,+6.00
+2.00,-6.00,+22.00,+11.00,+0.00,+1.00,+2.00,-5.00,-1.00,+7.00,+7.00,-2.00,-2.00,+0.00,-1.00,-1.00
-4.00,-11.00,-18.00,-19.00,-6.00,-2.00,-2.00,-14.00,+1.00,-4.00,+14.00,+0.00,-2.00,-1.00,+6.00,-3.00
-1.00,-5.00,-13.00,-10.00,-3.00,-3.00,-1.00,-3.00,+0.00,-15.00,-33.00,-5.00,-3.00,-2.00,+1.00,+7.00
-1.00,+14.00,+16.00,+8.00,+3.00,+1.00,-5.00,-34.00,+1.00,-5.00,+1.00,+1.00,+0.00,+0.00,-4.00,-2.00
-3.00,-1.00,+3.00,+10.00,+3.00,+1.00,+1.00,+9.00,-2.00,+0.00,-3.00,-1.00,-3.00,-4.00,-11.00,-14.00
+6.00,-3.00,+9.00,+2.00,-1.00,+0.00,+2.00,+11.00,-2.00,+5.00,+6.00,-3.00,-2.00,+0.00,+3.00,+2.00
+2.00,-9.00,-6.00,-4.00,-1.00,+1.00,-1.00,+2.00,-2.00,+4.00,+9.00,+2.00,+2.00,+1.00,+2.00,+9.00
-2.00,+5.00,-9.00,-3.00,-1.00,-1.00,+0.00,-1.00,+1.00,+3.00,+6.00,+1.00,-1.00,+0.00,+1.00,-2.00
-4.00,-4.00,-1.00,+0.00,-1.00,+0.00,-4.00,-8.00,+0.00,-3.00,-2.00,-3.00,-2.00,-1.00,+0.00,+2.00
-10.00,-12.00,+4.00,-2.00,-4.00,-3.00,-3.00,-16.00,-5.00,-1.00,-4.00,-1.00,-2.00,-2.00,-9.00,-12.00
+0.00,+6.00,-5.00,-3.00,-2.00,-3.00,-2.00,-3.00,+0.00,-14.00,+34.00,+13.00,+3.00,+0.00,+0.00,-1.00
+1.00,+2.00,+7.00,+5.00,+3.00,+1.00,+1.00,+11.00,-1.00,+5.00,-49.00,-24.00,-7.00,-7.00,-14.00,-2.00
+5.00,+7.00,+18.00,+4.00,-2.00,-1.00,+1.00,+23.00,-2.00,-6.00,-6.00,-8.00,-4.00,-2.00,+5.00,-10.00
-5.00,-10.00,-17.00,-20.00,-7.00,-4.00,-4.00,-21.00,+0.00,-2.00,-5.00,-3.00,+1.00,-1.00,+0.00,+2.00
+0.00,+1.00,+0.00,+0.00,+0.00,-2.00,+1.00,+14.00,-2.00,-1.00,-7.00,-1.00,+0.00,-2.00,+1.00,+7.00
+4.00,+14.00,-3.00,-1.00,-3.00,-1.00,-2.00,+2.00,+1.00,+4.00,+21.00,+7.00,+3.00,+1.00,+3.00,+7.00
-3.00,-6.00,-5.00,+0.00,+1.00,-2.00,-2.00,-3.00,-2.00,+1.00,+2.00,+3.00,+0.00,+12.00,-4.00,-7.00
-4.00,-2.00,+4.00,+12.00,+3.00,-6.00,-7.00,-12.00,-1.00,-2.00,-10.00,-2.00,-4.00,-11.00,-4.00,-14.00
+3.00,+4.00,+5.00,-1.00,+0.00,+9.00,+6.00,+18.00,+0.00,+3.00,-4.00,+1.00,-1.00,+0.00,+6.00,+14.00
-1.00,-1.00,+5.00,+6.00,+4.00,+3.00,+2.00,+5.00,-2.00,+4.00,+16.00,+3.00,-2.00,+0.00,-4.00,-7.00
+9.00,-4.00,-12.00,-12.00,-4.00,+0.00,+1.00,-16.00,-1.00,-3.00,-13.00,-4.00,-1.00,-5.00,+4.00,+6.00
-2.00,+1.00,-8.00,-10.00,-4.00,-4.00,-4.00,+13.00,-3.00,-2.00,+3.00,-1.00,-1.00,+4.00,-2.00,-8.00
-6.00,-6.00,-11.00,-5.00,-1.00,-4.00,-3.00,-15.00,-4.00,+3.00,-5.00,-5.00,-3.00,-1.00,-7.00,-11.00
-1.00,-5.00,-2.00,-3.00,-3.00,-1.00,+0.00,-4.00,+0.00,+5.00,+12.00,+5.00,+0.00,-1.00,+0.00,-1.00
-2.00,+1.00,-9.00,+5.00,+0.00,+0.00,+1.00,+3.00,+0.00,-2.00,-20.00,+2.00,+0.00,+0.00,+2.00,+9.00
-3.00,-5.00,+2.00,+9.00,+0.00,+3.00,-3.00,-34.00,+0.00,-8.00,-7.00,-8.00,-2.00,+1.00,+1.00,+8.00
-4.00,-1.00,+5.00,+2.00,-1.00,-3.00,-2.00,+13.00,-2.00,-3.00,-14.00,-4.00,-2.00,-7.00,-6.00,-15.00
+13.00,+7.00,+4.00,-1.00,-2.00,+0.00,+7.00,+30.00,+2.00,-2.00,-2.00,-1.00,+1.00,+0.00,+2.00,+10.00
-3.00,-5.00,-6.00,-1.00,+0.00,-2.00,-1.00,+1.00,-1.00,+6.00,+17.00,+5.00,+0.00,-3.00,-2.00,+1.00
+2.00,-3.00,-5.00,+0.00,+2.00,+2.00,-1.00,+6.00,-2.00,+5.00,+5.00,+4.00,+1.00,-1.00,-2.00,+0.00
-7.00,-1.00,-2.00,+1.00,-1.00,-1.00,-4.00,-15.00,-1.00,+6.00,+7.00,-3.00,-2.00,+2.00,-3.00,-9.00
-4.00,-7.00,-10.00,-6.00,-2.00,-2.00,-3.00,-5.00,-1.00,-12.00,-2.00,+0.00,-1.00,-4.00,+1.00,-4.00
-6.00,-3.00,-6.00,-5.00,-2.00,-8.00,-5.00,+1.00,-1.00,+7.00,+0.00,-1.00,+0.00,+10.00,-3.00,+0.00
+0.00,-6.00,+6.00,+3.00,-2.00,-2.00,+1.00,+0.00,+1.00,-3.00,-20.00,-5.00,-1.00,-13.00,-3.00,+0.00
+3.00,+7.00,+4.00,+2.00,+1.00,+3.00,+2.00,-1.00,+0.00,-3.00,+13.00,-1.00,-3.00,-2.00,-1.00,-6.00
-2.00,-3.00,+2.00,-2.00,-1.00,-1.00,+0.00,+4.00,-2.00,-2.00,-10.00,-2.00,-2.00,-3.00,-3.00,+0.00
-4.00,+1.00,-6.00,-3.00,-1.00,+0.00,-1.00,+0.00,-1.00,-3.00,-1.00,-2.00,-1.00,-3.00,+0.00,+3.00
-3.00,-3.00,+0.00,+2.00,+0.00,-2.00,-1.00,+5.00,-8.00,-2.00,+4.00,+2.00,+0.00,+4.00,-1.00,-1.00
+4.00,+1.00,-5.00,-4.00,-3.00,-5.00,-2.00,-3.00,+1.00,+1.00,+3.00,+0.00,-1.00,-1.00,+2.00,-4.00
