+0.00,+0.00,-2.00,-2.00,-1.00,-3.00,+0.00,-2.00,-1.00,-1.00,+0.00,-1.00,-3.00,-2.00,-2.00,-1.00
-2.00,+0.00,-1.00,-3.00,-2.00,-2.00,+0.00,+1.00,+1.00,+0.00,-1.00,-1.00,-2.00,+0.00,-2.00,+0.00
-1.00,+0.00,-3.00,+0.00,-1.00,-1.00,+0.00,-1.00,+0.00,+0.00,-1.00,-3.00,+0.00,-1.00,+0.00,-3.00
-1.00,+0.00,-1.00,-2.00,+0.00,+1.00,-1.00,-1.00,+0.00,-2.00,-2.00,+0.00,+0.00,-1.00,-2.00,-1.00
+0.00,+0.00,-1.00,+1.00,+1.00,+0.00,+0.00,+0.00,-1.00,-1.00,-3.00,+0.00,+0.00,+0.00,+2.00,-1.00
+0.00,-2.00,-1.00,-2.00,-2.00,+0.00,-1.00,+0.00,-2.00,-1.00,-1.00,-3.00,+0.00,-1.00,-1.00,-1.00
+0.00,-1.00,-1.00,-1.00,-1.00,-1.00,+0.00,-3.00,-1.00,-1.00,-1.00,-2.00,+0.00,-1.00,+0.00,-1.00
-2.00,-2.00,-1.00,-1.00,+0.00,-1.00,-3.00,-1.00,-1.00,+1.00,-1.00,-2.00,-1.00,-1.00,-2.00,+0.00
-2.00,+0.00,+0.00,+2.00,+0.00,+0.00,-1.00,+0.00,+2.00,-4.00,-5.00,-5.00,-3.00,-2.00,+0.00,-4.00
-1.00,+2.00,-8.00,-3.00,-2.00,-2.00,-2.00,-1.00,+1.00,+6.00,+0.00,+0.00,-1.00,+1.00,-1.00,+2.00
-2.00,-1.00,+3.00,+0.00,-1.00,-1.00,+0.00,-1.00,-3.00,-16.00,-5.00,-4.00,-1.00,+0.00,-1.00,-2.00
-4.00,-18.00,-1.00,-2.00,-2.00,-2.00,+0.00,-2.00,-3.00,+16.00,+7.00,+0.00,-3.00,-1.00,-3.00,-5.00
+4.00,+3.00,-3.00,-1.00,+1.00,+1.00,-1.00,+0.00,+0.00,+0.00,+0.00,+1.00,+0.00,-2.00,-2.00,+1.00
-3.00,-1.00,+2.00,+0.00,-1.00,+0.00,-1.00,-2.00,+1.00,+4.00,-2.00,-1.00,+0.00,-1.00,-3.00,-3.00
-9.00,-10.00,-8.00,-3.00,-2.00,-2.00,+0.00,-1.00,+3.00,+14.00,-7.00,-3.00,-3.00,-3.00,-4.00,+1.00
+6.00,+3.00,-14.00,-6.00,-3.00,-4.00,-5.00,-16.00,-10.00,-43.00,-4.00,-4.00,-2.00,-2.00,+1.00,-2.00
+8.00,+27.00,+23.00,+2.00,-1.00,-1.00,+5.00,+15.00,-6.00,-18.00,-6.00,-1.00,-2.00,+1.00,-1.00,-4.00
+4.00,-1.00,+6.00,+2.00,+1.00,-1.00,-1.00,+3.00,+2.00,+10.00,+2.00,+1.00,-1.00,+0.00,+0.00,-3.00
+0.00,-10.00,+2.00,+1.00,-1.00,+0.00,-2.00,-1.00,-1.00,-7.00,+0.00,+1.00,+0.00,+0.00,-1.00,-3.00
-8.00,-13.00,-1.00,+2.00,+3.00,+1.00,-1.00,-3.00,+1.00,+12.00,-3.00,-1.00,-3.00,-2.00,-1.00,+1.00
-5.00,+1.00,-11.00,-3.00,-5.00,-2.00,-5.00,-10.00,+3.00,+9.00,+0.00,+0.00,-3.00,+0.00,-1.00,-1.00
-4.00,-6.00,-8.00,-3.00,-4.00,-2.00,+0.00,-3.00,-9.00,-27.00,-11.00,-2.00,-1.00,+3.00,-1.00,-6.00
-4.00,-5.00,-2.00,-2.00,-1.00,+0.00,+1.00,+2.00,-5.00,-45.00,-39.00,-11.00,-6.00,-6.00,-9.00,+0.00
-10.00,+36.00,-19.00,-13.00,-9.00,-9.00,-10.00,-4.00,-22.00,+83.00,+52.00,+11.00,+2.00,+2.00,-16.00,-11.00
+18.00,-22.00,+40.00,+8.00,+6.00,+6.00,+18.00,+9.00,+2.00,+3.00,+12.00,+7.00,+6.00,+9.00,+5.00,+2.00
+0.00,+0.00,+3.00,+4.00,+2.00,+2.00,+2.00,+5.00,+23.00,+82.00,+13.00,+5.00,+6.00,-20.00,-12.00,+6.00
-10.00,-100.00,-16.00,+0.00,+1.00,+3.00,+6.00,-4.00,-13.00,-18.00,-5.00,-5.00,-5.00,+20.00,+20.00,+2.00
+3.00,+52.00,+3.00,+2.00,+0.00,+0.00,-4.00,+4.00,+13.00,-12.00,-23.00,-3.00,+13.00,+1.00,-7.00,+4.00
-14.00,-26.00,-13.00,-7.00,+0.00,+0.00,-3.00,-6.00,+5.00,+11.00,-16.00,-6.00,-12.00,-3.00,-6.00,-4.00
-9.00,-21.00,-28.00,-6.00,-4.00,+3.00,-4.00,-6.00,-5.00,-50.00,+36.00,+10.00,+8.00,+4.00,+5.00,+0.00
+13.00,+14.00,+38.00,+7.00,-5.00,-2.00,-8.00,+1.00,+1.00,+32.00,-5.00,+6.00,+11.00,+8.00,-10.00,+1.00
+3.00,-51.00,+1.00,+0.00,+6.00,+12.00,+40.00,+16.00,+7.00,+13.00,+7.00,-10.00,-11.00,-18.00,-2.00,-6.00
-2.00,+8.00,-28.00,+0.00,+0.00,-19.00,-3.00,-5.00,-10.00,-12.00,-6.00,-4.00,-6.00,-2.00,+0.00,-3.00
-4.00,-2.00,+10.00,+1.00,+6.00,-1.00,+1.00,-2.00,+2.00,-22.00,-22.00,-7.00,+7.00,-1.00,+2.00,+1.00
-10.00,-5.00,-29.00,-11.00,-2.00,-3.00,-9.00,-7.00,+3.00,-10.00,-2.00,-1.00,-3.00,-6.00,-1.00,-4.00
+0.00,+1.00,+13.00,+2.00,+2.00,+23.00,-10.00,-2.00,-3.00,+13.00,+6.00,+2.00,-13.00,+0.00,+4.00,+0.00
-11.00,-7.00,-11.00,-4.00,-19.00,-20.00,-4.00,-6.00,+6.00,-43.00,-10.00,-1.00,+25.00,+4.00,-5.00,+1.00
-8.00,-7.00,+7.00,-1.00,-14.00,-13.00,-7.00,-3.00,+4.00,+84.00,+19.00,+1.00,-29.00,+9.00,+14.00,-1.00
+22.00,+73.00,-25.00,-1.00,+7.00,-9.00,+10.00,+0.00,-16.00,-57.00,+9.00,-2.00,+10.00,-3.00,-4.00,-10.00
+10.00,-30.00,+15.00,+7.00,+1.00,-5.00,-10.00,+5.00,+2.00,-13.00,-16.00,-1.00,+5.00,-4.00,+4.00,+5.00
-6.00,-11.00,-15.00,-4.00,+6.00,+16.00,-3.00,-6.00,-18.00,-52.00,-10.00,-7.00,-9.00,-7.00,-3.00,-1.00
-8.00,+7.00,-2.00,-2.00,-5.00,-11.00,-4.00,-4.00,-7.00,+11.00,+4.00,-1.00,+4.00,+5.00,-4.00,+1.00
-2.00,+11.00,+12.00,+2.00,-5.00,+1.00,-4.00,+2.00,-4.00,+3.00,+8.00,+3.00,+0.00,-5.00,-7.00,-9.00
+5.00,+63.00,+8.00,-1.00,-1.00,-7.00,+1.00,+3.00,+21.00,+4.00,-15.00,-3.00,-11.00,+8.00,+6.00,+2.00
-7.00,-109.00,-28.00,+0.00,+4.00,+2.00,-12.00,-5.00,+3.00,+6.00,+7.00,-1.00,+11.00,+5.00,+2.00,+1.00
-2.00,+62.00,+17.00,-4.00,+0.00,+8.00,+17.00,-6.00,-27.00,+7.00,-17.00,+1.00,+5.00,-10.00,-3.00,+6.00
+7.00,-3.00,+15.00,+7.00,+28.00,+33.00,-23.00,+0.00,+13.00,+43.00,+22.00,-2.00,-52.00,-8.00,-3.00,+2.00
-3.00,-67.00,-24.00,-1.00,-15.00,-26.00,+10.00,+8.00,-18.00,-38.00,-19.00,-1.00,+30.00,+7.00,-5.00,+0.00
-11.00,+3.00,+0.00,-4.00,-14.00,-4.00,-1.00,+0.00,-21.00,-36.00,+4.00,+0.00,-31.00,+5.00,+2.00,-10.00
+12.00,+53.00,+27.00,+0.00,+1.00,+10.00,-10.00,+4.00,+47.00,-3.00,-7.00,-1.00,+24.00,-19.00,-3.00,+0.00
-3.00,-8.00,-2.00,-2.00,+4.00,-7.00,+27.00,-2.00,-25.00,-6.00,-4.00,-11.00,-48.00,-13.00,-9.00,-1.00
+7.00,+23.00,+13.00,+1.00,+1.00,+26.00,-7.00,+0.00,-8.00,-56.00,-1.00,+3.00,+5.00,-21.00,-14.00,-3.00
+6.00,+28.00,+13.00,+4.00,+7.00,-1.00,+14.00,+1.00,-3.00,+30.00,-14.00,-7.00,-7.00,+14.00,+15.00,-7.00
+4.00,-56.00,-12.00,-1.00,+9.00,-13.00,-4.00,-1.00,-6.00,+7.00,+3.00,-1.00,-4.00,+4.00,-3.00,-6.00
-5.00,-10.00,-9.00,-4.00,-8.00,-6.00,-6.00,-2.00,+9.00,-5.00,-1.00,+0.00,+15.00,+7.00,+2.00,+14.00
-7.00,+15.00,+5.00,-1.00,+5.00,-7.00,-4.00,-4.00,+14.00,+20.00,+8.00,+7.00,+23.00,+9.00,+42.00,+5.00
-5.00,+19.00,+3.00,-2.00,-6.00,-4.00,+12.00,+0.00,+4.00,+4.00,-5.00,+5.00,+15.00,-18.00,-51.00,+5.00
+3.00,-30.00,-21.00,+2.00,-6.00,-3.00,-38.00,-2.00,-13.00,-77.00,-25.00,-9.00,-3.00,+0.00,-18.00,-10.00
+6.00,+48.00,+44.00,+0.00,-6.00,+12.00,+13.00,+1.00,+48.00,+122.00,+39.00,+1.00,-3.00,-9.00,+0.00,+8.00
-13.00,-11.00,-43.00,-6.00,-7.00,-10.00,-11.00,-11.00,-5.00,-85.00,-21.00,-6.00,+11.00,+8.00,-5.00,+1.00
-3.00,-25.00,-26.00,-2.00,-10.00,+18.00,-11.00,+2.00,+32.00,+59.00,+3.00,+15.00,+21.00,-32.00,-7.00,+0.00
+5.00,+6.00,+63.00,+14.00,+22.00,-40.00,-4.00,-2.00,+8.00,+65.00,+29.00,-8.00,-41.00,-5.00,-18.00,-3.00
+15.00,+92.00,-6.00,+0.00,+17.00,+34.00,+8.00,+5.00,-5.00,-28.00,-15.00,+16.00,+15.00,+14.00,+33.00,+4.00
+14.00,+74.00,+19.00,+5.00,-2.00,+0.00,+3.00,-2.00,-23.00,-30.00,-21.00,-24.00,-65.00,+19.00,+7.00,-13.00
-7.00,+20.00,-11.00,-3.00,+30.00,-2.00,+27.00,+6.00,-12.00,+22.00,+30.00,-9.00,-3.00,+1.00,-17.00,-1.00
-3.00,+4.00,-13.00,-9.00,-15.00,+5.00,-23.00,-11.00,-9.00,-85.00,-39.00,-17.00,-36.00,-8.00,-14.00,-8.00
-19.00,-78.00,-4.00,-3.00,-11.00,-31.00,-31.00,-9.00,+3.00,-32.00,+5.00,+10.00,+41.00,-6.00,+8.00,+2.00
+7.00,+21.00,+23.00,+7.00,-15.00,+32.00,+10.00,-2.00,+19.00,+37.00,+14.00,+4.00,-27.00,-4.00,-19.00,+4.00
+12.00,+12.00,+14.00,+1.00,+20.00,+11.00,-5.00,-5.00,+0.00,-5.00,-15.00,-4.00,-3.00,+7.00,-7.00,-10.00
-7.00,-39.00,-32.00,-8.00,-10.00,-3.00,+16.00,+6.00,-15.00,-11.00,+9.00,+4.00,+24.00,+13.00,+70.00,+9.00
+1.00,+43.00,+9.00,-3.00,-6.00,-5.00,-6.00,-4.00,-25.00,+1.00,-4.00,-3.00,+8.00,+1.00,-2.00,-4.00
-12.00,-32.00,-23.00,-6.00,+2.00,+1.00,-5.00,-5.00,-23.00,+17.00,+6.00,+6.00,+13.00,+0.00,+2.00,-2.00
+3.00,+53.00,+26.00,+2.00,-11.00,-2.00,-13.00,-2.00,+30.00,-9.00,-9.00,-6.00,-8.00,-2.00,-1.00,+0.00
+0.00,-32.00,-43.00,-4.00,-7.00,+9.00,+7.00,+1.00,+21.00,-12.00,-15.00,+0.00,+15.00,+0.00,-1.00,+6.00
-20.00,-86.00,-31.00,-8.00,-6.00,-9.00,-7.00,-8.00,-2.00,-3.00,+13.00,-6.00,-11.00,-5.00,-18.00,-7.00
-4.00,+16.00,+52.00,+3.00,+2.00,-9.00,-3.00,+1.00,-23.00,+49.00,+19.00,+7.00,+7.00,+2.00,+8.00,-4.00
+18.00,+53.00,-21.00,+1.00,-6.00,-8.00,-15.00,+6.00,-1.00,-38.00,-3.00,-2.00,+0.00,-22.00,+4.00,-7.00
+5.00,-32.00,-8.00,+2.00,+9.00,+7.00,+21.00,+1.00,-9.00,-13.00,-13.00,+0.00,-15.00,+0.00,-11.00,+0.00
-7.00,-42.00,-2.00,+1.00,-5.00,+3.00,-4.00,+1.00,-7.00,+23.00,+12.00,+1.00,+20.00,+1.00,+8.00,+2.00
-7.00,-30.00,-23.00,-5.00,-4.00,-18.00,-19.00,-3.00,-5.00,-36.00,-18.00,-4.00,+4.00,-4.00,-7.00,-4.00
-22.00,-55.00,-9.00,-6.00,-6.00,+8.00,-18.00,-5.00,-4.00,+44.00,+11.00,+2.00,+10.00,+28.00,-21.00,+12.00
+19.00,+98.00,+16.00,+2.00,-2.00,+29.00,+12.00,-3.00,+6.00,+71.00,+22.00,+9.00,+30.00,+0.00,+51.00,+1.00
+1.00,-98.00,-8.00,-2.00,-8.00,-10.00,-7.00,-2.00,+3.00,-90.00,-30.00,-14.00,-27.00,-3.00,-23.00,-4.00
+3.00,+42.00,+57.00,+10.00,+5.00,-14.00,-6.00,+5.00,+3.00,+7.00,+16.00,+12.00,-23.00,-3.00,+7.00,+7.00
+8.00,+32.00,+11.00,+0.00,-21.00,+40.00,+3.00,+2.00,-35.00,-14.00,-10.00,-13.00,-1.00,-5.00,+9.00,-1.00
-9.00,-11.00,-14.00,-1.00,+19.00,-28.00,-3.00,-3.00,-2.00,-23.00,-17.00,-3.00,-6.00,+5.00,-10.00,+5.00
-4.00,+10.00,-11.00,-2.00,+6.00,+21.00,-2.00,-3.00,-5.00,+36.00,+4.00,+7.00,+47.00,+0.00,+3.00,+1.00
+1.00,-40.00,-20.00,-5.00,-12.00,-40.00,+11.00,-6.00,+0.00,+3.00,-3.00,-10.00,-32.00,-13.00,-6.00,-8.00
+1.00,+7.00,+12.00,+0.00,+1.00,-2.00,-4.00,-1.00,-15.00,-27.00,-4.00,+2.00,+0.00,+13.00,+20.00,-12.00
+6.00,-13.00,-1.00,-1.00,-1.00,+23.00,-3.00,+4.00,+20.00,-27.00,-24.00,-8.00,-3.00,-12.00,-15.00,+21.00
-13.00,+47.00,+0.00,+0.00,-6.00,-13.00,-22.00,-2.00,-19.00,+2.00,+18.00,+3.00,+1.00,+7.00,+11.00,-2.00
+2.00,+16.00,+37.00,+3.00,+11.00,+14.00,+1.00,-5.00,+4.00,+60.00,+25.00,+7.00,+15.00,-8.00,-13.00,-8.00
+14.00,-22.00,-2.00,+4.00,+4.00,+7.00,+7.00,+6.00,+7.00,-15.00,-17.00,-2.00,+0.00,+0.00,+10.00,+5.00
-9.00,-15.00,-4.00,+0.00,-4.00,-4.00,-6.00,+1.00,-28.00,+0.00,+35.00,+7.00,+17.00,+15.00,-17.00,-11.00
+17.00,+60.00,+9.00,-1.00,+0.00,-8.00,+37.00,+9.00,+18.00,+59.00,-20.00,-5.00,-42.00,-34.00,+29.00,+1.00
-12.00,-35.00,-26.00,-5.00,+0.00,+15.00,-23.00,-14.00,+10.00,-7.00,-13.00,-5.00,+18.00,-3.00,-6.00,+2.00
-6.00,-41.00,-1.00,+0.00,+4.00,-30.00,-7.00,-5.00,-31.00,-51.00,+9.00,+7.00,+4.00,-5.00,+7.00,-2.00
-6.00,-23.00,+14.00,-1.00,+2.00,+37.00,-11.00,-1.00,-1.00,+48.00,+6.00,+0.00,+1.00,+6.00,-24.00,-2.00
+11.00,+53.00,+9.00,+4.00,-9.00,-65.00,+53.00,+9.00,-18.00,-40.00,-7.00,-2.00,-3.00,+6.00,-7.00,+1.00
-4.00,-54.00,-23.00,-5.00,+2.00,+5.00,+7.00,+5.00,+50.00,+38.00,-8.00,-7.00,+9.00,+1.00,-4.00,-6.00
+4.00,+4.00,+4.00,-3.00,-5.00,-17.00,+4.00,+0.00,+14.00,+6.00,+22.00,+3.00,-17.00,+2.00,+11.00,+9.00
-7.00,+9.00,-16.00,-2.00,-1.00,-4.00,-4.00,-7.00,-63.00,-111.00,-22.00,+2.00,+3.00,-4.00,-10.00,-13.00
+12.00,+60.00,+50.00,+8.00,+19.00,+34.00,-4.00,+5.00,+27.00,+14.00,+10.00,+3.00,+13.00,+7.00,-9.00,-1.00
-4.00,-18.00,-19.00,+2.00,-1.00,-5.00,-5.00,+0.00,-22.00,-32.00,-13.00,-11.00,-32.00,-6.00,-4.00,-1.00
-5.00,+16.00,-1.00,-3.00,-24.00,-15.00,-4.00,-5.00,-2.00,+22.00,-2.00,+2.00,+19.00,+1.00,+5.00,+5.00
+0.00,+4.00,-10.00,-3.00,+8.00,-2.00,-10.00,+5.00,+17.00,-54.00,-14.00,+1.00,-29.00,-29.00,-6.00,-1.00
+3.00,+27.00,-2.00,+0.00,+2.00,-3.00,-8.00,+2.00,-11.00,+63.00,+16.00,-3.00,-7.00,+21.00,-25.00,-12.00
+2.00,-19.00,-13.00,-2.00,+11.00,-12.00,-2.00,+0.00,+5.00,-20.00,-6.00,+2.00,+19.00,+15.00,+79.00,+16.00
-14.00,-12.00,+1.00,+2.00,+10.00,+1.00,+9.00,-10.00,+20.00,+42.00,-2.00,+0.00,-10.00,-12.00,+8.00,+5.00
-3.00,-2.00,+9.00,+0.00,-10.00,-10.00,-20.00,-14.00,-12.00,+15.00,+14.00,+1.00,+8.00,+0.00,-24.00,-6.00
+2.00,-13.00,-14.00,-2.00,-8.00,+10.00,-2.00,+6.00,+15.00,-26.00,-8.00,+1.00,+0.00,-10.00,+5.00,+0.00
-7.00,-10.00,-12.00,-2.00,+5.00,+16.00,-18.00,+10.00,-20.00,-27.00,-6.00,-10.00,-23.00,-5.00,-31.00,-7.00
-4.00,+6.00,+20.00,-4.00,-10.00,-22.00,-2.00,-4.00,-2.00,+43.00,+15.00,+5.00,+6.00,+3.00,+1.00,-6.00
+13.00,-9.00,+0.00,+3.00,+3.00,+1.00,+6.00,+10.00,+11.00,+16.00,-11.00,-3.00,-13.00,+2.00,+37.00,+1.00
-12.00,-43.00,-8.00,-3.00,+3.00,-1.00,+10.00,-8.00,-5.00,-37.00,+0.00,+2.00,+6.00,-10.00,-32.00,+2.00
+7.00,+18.00,-12.00,-3.00,-14.00,+13.00,+27.00,-2.00,+7.00,+29.00,+5.00,+7.00,+26.00,+45.00,+5.00,-1.00
-1.00,-32.00,+3.00,-1.00,+1.00,-15.00,-27.00,-4.00,+19.00,-49.00,-14.00,-9.00,-24.00,-4.00,+2.00,-2.00
-12.00,+1.00,+10.00,-2.00,-7.00,-5.00,+8.00,+1.00,-10.00,+36.00,+18.00,+0.00,+13.00,+3.00,-3.00,-4.00
+6.00,+32.00,-18.00,+1.00,+2.00,+11.00,-20.00,-5.00,+2.00,-22.00,-12.00,-6.00,-25.00,-2.00,+8.00,-3.00
+10.00,-4.00,+3.00,-3.00,+2.00,-3.00,-2.00,+8.00,-2.00,+3.00,+3.00,+0.00,+5.00,-17.00,-13.00,+1.00
-17.00,-2.00,-20.00,-8.00,+2.00,+15.00,+5.00,-6.00,+1.00,+58.00,+35.00,+8.00,-3.00,+1.00,-11.00,-3.00
+24.00,+85.00,+44.00,+9.00,+3.00,+2.00,+7.00,+10.00,-1.00,-22.00,+2.00,+1.00,+15.00,+11.00,-5.00,+0.00
-8.00,-38.00,-15.00,+0.00,-7.00,-5.00,+2.00,-2.00,-1.00,-24.00,-22.00,-8.00,+3.00,+0.00,-3.00,-3.00
-1.00,-6.00,+4.00,-3.00,-1.00,-3.00,+1.00,-1.00,-11.00,-52.00,-28.00,-9.00,+9.00,-4.00,-1.00,+7.00
-14.00,+2.00,-12.00,-4.00,+0.00,-5.00,-8.00,-4.00,+4.00,+87.00,+41.00,+6.00,+3.00,-1.00,+2.00,-9.00
-2.00,-22.00,-23.00,-3.00,-5.00,-1.00,+14.00,+4.00,+22.00,-1.00,-4.00,+0.00,-13.00,-1.00,-24.00,-3.00
-9.00,+4.00,-6.00,-5.00,-12.00,-11.00,-8.00,-14.00,-6.00,-38.00,-20.00,-5.00,-35.00,+1.00,+8.00,+5.00
-2.00,-1.00,-11.00,+2.00,+4.00,-14.00,+11.00,-4.00,-1.00,-7.00,+0.00,+3.00,-2.00,-23.00,-23.00,-5.00
+1.00,-13.00,+19.00,+2.00,+13.00,+23.00,-7.00,+19.00,-15.00,-38.00,-28.00,-14.00,-49.00,-2.00,-1.00,-1.00
-2.00,+8.00,-5.00,-5.00,-11.00,-1.00,+6.00,-1.00,+0.00,+11.00,+2.00,-6.00,+10.00,-4.00,+6.00,+4.00
-2.00,-24.00,-2.00,-2.00,-15.00,+7.00,-7.00,-4.00,-15.00,-20.00,-6.00,-3.00,+20.00,+0.00,-1.00,-18.00
+0.00,+3.00,-5.00,-2.00,+12.00,-23.00,+2.00,+7.00,+3.00,-48.00,-22.00,-1.00,-12.00,-5.00,-5.00,+7.00
+7.00,+19.00,-30.00,+1.00,-19.00,-19.00,-21.00,-6.00,+13.00,+56.00,+38.00,+21.00,+64.00,+9.00,-11.00,-6.00
+2.00,-7.00,+2.00,+1.00,+3.00,+36.00,+24.00,+4.00,-6.00,+12.00,-8.00,-23.00,-50.00,-33.00,+21.00,-6.00
-12.00,-26.00,-14.00,-3.00,-3.00,-30.00,-28.00,+1.00,-7.00,-70.00,-8.00,+0.00,+14.00,+17.00,-42.00,+3.00
-1.00,+12.00,+10.00,+0.00,-4.00,+10.00,+8.00,-16.00,+17.00,+70.00,+16.00,+1.00,-8.00,+1.00,+12.00,+2.00
+4.00,+0.00,+8.00,+5.00,+9.00,+1.00,+6.00,+0.00,-7.00,-39.00,-25.00,-5.00,+27.00,-7.00,-4.00,+2.00
-4.00,-26.00,-7.00,+0.00,-5.00,-7.00,-10.00,-3.00,-3.00,-7.00,-7.00,+1.00,-1.00,+10.00,-5.00,-4.00
+3.00,+15.00,+18.00,-1.00,-1.00,+7.00,-7.00,+0.00,+6.00,+44.00,+36.00,+8.00,+4.00,-2.00,+15.00,-7.00
-5.00,-5.00,-6.00,-3.00,+2.00,+9.00,-5.00,+0.00,+11.00,+4.00,-14.00,-4.00,-3.00,-8.00,-15.00,+2.00
-4.00,+22.00,+8.00,-1.00,+0.00,-2.00,+12.00,-2.00,-34.00,-24.00,-26.00,-9.00,-17.00,-3.00,-9.00,-12.00
+4.00,-44.00,-19.00,+1.00,-3.00,-9.00,-24.00,-2.00,+24.00,+47.00,+20.00,+5.00,+2.00,+4.00,+0.00,+9.00
-9.00,-21.00,-11.00,-1.00,+4.00,+6.00,+9.00,-2.00,+16.00,+35.00,-24.00,-10.00,-7.00,+0.00,+5.00,+0.00
-2.00,+3.00,+0.00,+1.00,+4.00,-1.00,-9.00,+3.00,-5.00,+12.00,+25.00,+7.00,+15.00,+4.00,-3.00,-2.00
-1.00,-2.00,-10.00,+1.00,-9.00,-3.00,-5.00,-7.00,-1.00,-81.00,-21.00,-4.00,-11.00,-7.00,+11.00,+8.00
-5.00,+29.00,+25.00,-1.00,-7.00,-12.00,-1.00,-8.00,-5.00,+2.00,-9.00,-4.00,+10.00,+5.00,+2.00,-8.00
+4.00,-16.00,-7.00,-2.00,+6.00,-6.00,+2.00,+5.00,-1.00,+12.00,+1.00,-2.00,+12.00,-10.00,+0.00,+4.00
-1.00,+15.00,-10.00,-3.00,-11.00,+2.00,-10.00,-3.00,-3.00,-52.00,-22.00,-3.00,+3.00,+5.00,-5.00,-6.00
+2.00,-3.00,-4.00,-1.00,+2.00,+2.00,+9.00,-5.00,+15.00,+36.00,+4.00,-1.00,-10.00,+1.00,+1.00,+9.00
-15.00,-11.00,-3.00,+0.00,+1.00,-2.00,+4.00,-3.00,-20.00,-5.00,+10.00,-2.00,-10.00,-4.00,-12.00,-8.00
+8.00,+28.00,-9.00,-2.00,-2.00,-5.00,-1.00,+3.00,-9.00,+4.00,-19.00,+2.00,-11.00,+5.00,+10.00,+4.00
-2.00,+8.00,-13.00,-4.00,-3.00,+13.00,+2.00,-4.00,+2.00,+82.00,+37.00,-4.00,-23.00,-14.00,-13.00,-9.00
+6.00,-56.00,+12.00,+8.00,+6.00,-2.00,-30.00,-1.00,-3.00,-68.00,-36.00,-12.00,-5.00,-1.00,-6.00,-7.00
-13.00,+29.00,+19.00,-4.00,-6.00,-10.00,+10.00,-5.00,-24.00,-75.00,-1.00,+7.00,+30.00,+17.00,+10.00,-1.00
+5.00,-30.00,-9.00,+1.00,+8.00,+30.00,+11.00,+0.00,+27.00,+61.00,+23.00,+1.00,-7.00,-19.00,-7.00,+2.00
+2.00,+21.00,+24.00,+1.00,-7.00,-20.00,-19.00,+2.00,-29.00,-35.00,+14.00,-1.00,-6.00,-3.00,-13.00,-4.00
-22.00,-2.00,-49.00,-17.00,-2.00,-1.00,-9.00,-24.00,-13.00,-64.00,-56.00,-14.00,-2.00,-1.00,+4.00,+4.00
+23.00,+86.00,+18.00,-1.00,-2.00,-7.00,+0.00,+7.00,+32.00,+50.00,+69.00,+17.00,+10.00,+5.00,-8.00,-12.00
+6.00,+24.00,+24.00,+13.00,+5.00,+6.00,+2.00,+5.00,+3.00,-90.00,-12.00,+3.00,+6.00,+2.00,+14.00,+0.00
+0.00,-79.00,+3.00,+8.00,+2.00,+6.00,+6.00,+8.00,-1.00,-29.00,-13.00,-1.00,+11.00,-3.00,+1.00,+6.00
-4.00,+21.00,+4.00,-4.00,+1.00,+8.00,+8.00,-3.00,+2.00,+14.00,+12.00,+2.00,-8.00,-7.00,+1.00,-7.00
-17.00,-46.00,-23.00,-9.00,+2.00,+6.00,-3.00,-11.00,-56.00,-68.00,-55.00,-16.00,-20.00,-1.00,-2.00,+2.00
-23.00,-12.00,-17.00,-14.00,-21.00,-41.00,-5.00,-11.00,+83.00,+127.00,-2.00,-9.00,-3.00,-5.00,+1.00,+5.00
-10.00,-38.00,-42.00,-11.00,-7.00,-7.00,-1.00,-10.00,+5.00,-1.00,+31.00,+11.00,+2.00,+3.00,+4.00,-5.00
+12.00,+54.00,+75.00,+5.00,+2.00,+1.00,+10.00,+10.00,+4.00,+21.00,+2.00,+4.00,+5.00,+7.00,-2.00,+5.00
+14.00,-65.00,-12.00,+14.00,+11.00,+5.00,+10.00,+9.00,+11.00,+64.00,+4.00,-1.00,-7.00,-2.00,+1.00,+1.00
+6.00,-5.00,+9.00,+0.00,+2.00,+5.00,-7.00,+5.00,-62.00,+17.00,+12.00,+2.00,+4.00,-3.00,-27.00,-6.00
-2.00,+39.00,-7.00,+0.00,-2.00,+2.00,-5.00,+1.00,+55.00,-24.00,-37.00,-10.00,+3.00,+8.00,+64.00,+13.00
-26.00,-115.00,-20.00,-9.00,-4.00,-3.00,+6.00,-8.00,+66.00,-57.00,-55.00,-24.00,-12.00,-20.00,+3.00,+16.00
-59.00,-97.00,-107.00,-36.00,-19.00,-17.00,-20.00,-27.00,-111.00,-20.00,+80.00,+22.00,+9.00,+0.00,-2.00,-18.00
+83.00,+92.00,+116.00,+50.00,+23.00,+16.00,+17.00,+29.00,+14.00,-24.00,-10.00,+4.00,+6.00,+3.00,+6.00,+8.00
+3.00,-65.00,-30.00,+5.00,+2.00,+0.00,+2.00,+0.00,+21.00,+69.00,+4.00,-2.00,+2.00,+1.00,-18.00,-6.00
+11.00,-17.00,-7.00,+3.00,+3.00,+5.00,+10.00,+9.00,-6.00,+47.00,+10.00,+4.00,-2.00,+5.00,+0.00,-6.00
-5.00,-40.00,+1.00,+2.00,+2.00,-4.00,+2.00,+0.00,+32.00,-47.00,-27.00,-11.00,-9.00,+0.00,+6.00,+7.00
-38.00,-41.00,-59.00,-26.00,-14.00,-11.00,-14.00,-15.00,-41.00,-11.00,+4.00,-7.00,-3.00,-10.00,-13.00,-5.00
-16.00,+14.00,+17.00,-11.00,-3.00,-2.00,-4.00,-15.00,+5.00,-52.00,-21.00,-7.00,-4.00,-6.00,-10.00,-12.00
+7.00,-25.00,+22.00,+12.00,-1.00,-3.00,+1.00,+9.00,-15.00,+49.00,+53.00,+11.00,+1.00,-9.00,+4.00,-9.00
+22.00,+83.00,+30.00,+11.00,+9.00,+0.00,-13.00,+4.00,+58.00,+40.00,-34.00,-4.00,+12.00,+14.00,+3.00,+8.00
-11.00,-54.00,-20.00,-11.00,-12.00,+3.00,+54.00,+5.00,-4.00,-27.00,+21.00,+5.00,-3.00,+0.00,-9.00,-3.00
+17.00,+21.00,+18.00,+8.00,+6.00,+6.00,+0.00,+4.00,-14.00,-79.00,-37.00,-6.00,+0.00,-8.00,-8.00,+5.00
-16.00,-14.00,-42.00,-10.00,+0.00,-8.00,-2.00,-19.00,-5.00,+82.00,+20.00,-1.00,+2.00,+9.00,-1.00,+0.00
-19.00,-43.00,-15.00,-8.00,-12.00,-22.00,+3.00,-3.00,+5.00,-47.00,+2.00,-3.00,-17.00,-13.00,-9.00,-14.00
-3.00,+20.00,+23.00,+6.00,+7.00,+10.00,-21.00,-6.00,-13.00,-67.00,-22.00,-3.00,-1.00,+12.00,+13.00,+1.00
+12.00,+4.00,+1.00,+7.00,+1.00,+10.00,+19.00,+9.00,+4.00,+71.00,+26.00,+5.00,+3.00,-19.00,-34.00,+0.00
+2.00,-15.00,-4.00,-2.00,-2.00,-6.00,-2.00,-3.00,-35.00,-59.00,-8.00,-10.00,-16.00,-5.00,+47.00,+1.00
-3.00,+41.00,-10.00,-3.00,+0.00,-1.00,-5.00,-10.00,+28.00,-40.00,-33.00,-9.00,+0.00,-3.00,+1.00,+15.00
-23.00,-100.00,-39.00,-15.00,-7.00,-6.00,-13.00,-12.00,+37.00,+62.00,+28.00,+1.00,+1.00,+7.00,+7.00,-2.00
+11.00,+65.00,-24.00,+5.00,+3.00,+0.00,+4.00,+4.00,-20.00,-30.00,-9.00,-1.00,-1.00,+2.00,-12.00,-3.00
+21.00,+72.00,+59.00,+10.00,+3.00,+6.00,-5.00,+9.00,-18.00,-37.00,+18.00,+10.00,+8.00,+18.00,-7.00,-4.00
+15.00,+19.00,+21.00,+6.00,+3.00,+3.00,+22.00,+11.00,-3.00,-2.00,-19.00,-2.00,-1.00,-18.00,-9.00,-4.00
-9.00,+17.00,+7.00,-5.00,-2.00,+1.00,-34.00,-3.00,-7.00,-63.00,-27.00,-7.00,-2.00,-8.00,+5.00,-1.00
-18.00,-51.00,-6.00,-8.00,-6.00,-3.00,-3.00,-8.00,-16.00,+27.00,+2.00,+0.00,+5.00,+5.00,+6.00,+1.00
-6.00,-19.00,-40.00,-10.00,-5.00,+0.00,+4.00,+0.00,+2.00,-55.00,+29.00,+6.00,+1.00,-3.00,-11.00,+0.00
+9.00,+41.00,+23.00,+6.00,+1.00,+1.00,+1.00,-1.00,+34.00,+31.00,-44.00,-8.00,-4.00,+5.00,+5.00,+3.00
-9.00,-38.00,-9.00,-1.00,-1.00,-3.00,+1.00,-6.00,-14.00,+102.00,+33.00,+4.00,+2.00,-4.00,-6.00,-2.00
-2.00,-91.00,-42.00,-3.00,-3.00,-3.00,-1.00,+3.00,-42.00,-62.00,-14.00,+4.00,+1.00,+5.00,+8.00,+2.00
+31.00,+89.00,+63.00,+18.00,+6.00,+9.00,+6.00,+12.00,-1.00,+34.00,+3.00,+3.00,+6.00,-5.00,-7.00,-3.00
-4.00,-82.00,-3.00,-5.00,-9.00,+1.00,+1.00,-2.00,-9.00,+14.00,-7.00,-7.00,-22.00,+1.00,-7.00,-6.00
-9.00,-16.00,-29.00,-9.00,+6.00,+5.00,-3.00,-2.00,+10.00,-9.00,-14.00,-1.00,+3.00,-5.00,+5.00,-2.00
-5.00,+14.00,+50.00,+3.00,-6.00,-9.00,-7.00,-4.00,-13.00,-1.00,+13.00,+0.00,-3.00,-7.00,-4.00,-3.00
-13.00,-56.00,-33.00,-10.00,-2.00,-2.00,+1.00,-4.00,-11.00,-36.00,-12.00,-3.00,-2.00,+19.00,+5.00,+1.00
+16.00,+60.00,+7.00,+1.00,-7.00,-3.00,-30.00,+3.00,+1.00,+23.00,+5.00,+5.00,+34.00,-3.00,-5.00,-6.00
+1.00,+27.00,-9.00,+3.00,+5.00,+1.00,+18.00,+6.00,-10.00,-9.00,-3.00,+1.00,-18.00,-1.00,+3.00,-5.00
-6.00,+21.00,+18.00,-2.00,+2.00,+5.00,-4.00,-2.00,-8.00,-79.00,-24.00,-13.00,-7.00,+5.00,+8.00,+7.00
-12.00,+2.00,-34.00,-8.00,-4.00,+6.00,+3.00,-3.00,+38.00,+101.00,+71.00,+2.00,-19.00,-3.00,-17.00,-5.00
-1.00,+33.00,+13.00,+2.00,+5.00,+0.00,+5.00,-3.00,-17.00,-14.00,+10.00,+2.00,-5.00,-11.00,-5.00,-5.00
+24.00,-63.00,+12.00,+10.00,+2.00,+2.00,-22.00,+12.00,-15.00,-68.00,+1.00,+4.00,+14.00,+5.00,+4.00,+5.00
-6.00,+33.00,+12.00,-2.00,+0.00,+0.00,-2.00,-7.00,+1.00,-4.00,+11.00,+3.00,+9.00,-2.00,-6.00,-5.00
-7.00,+54.00,+7.00,-1.00,-1.00,-3.00,-8.00,-3.00,+15.00,+42.00,-33.00,-10.00,-6.00,-8.00,-6.00,-2.00
-4.00,+12.00,-28.00,-9.00,-4.00,-1.00,+4.00,-1.00,-21.00,-77.00,+27.00,+4.00,+5.00,+6.00,+1.00,+1.00
-7.00,+14.00,+37.00,-2.00,-4.00,-3.00,+5.00,-7.00,+32.00,+74.00,-1.00,-9.00,-2.00,-9.00,-3.00,-6.00
+4.00,+22.00,-10.00,-1.00,-4.00,-5.00,+1.00,+0.00,-24.00,-15.00,-10.00,+4.00,+3.00,+4.00,+3.00,-4.00
+8.00,-67.00,+32.00,+6.00,+6.00,+7.00,+4.00,+9.00,-23.00,-34.00,-14.00,-4.00,-5.00,-3.00,-5.00,+1.00
+10.00,+38.00,+11.00,-1.00,-1.00,-7.00,+3.00,+14.00,+4.00,-22.00,+8.00,+1.00,-5.00,+0.00,+1.00,+1.00
-11.00,+54.00,+22.00,+0.00,-5.00,-5.00,+3.00,-7.00,-20.00,-32.00,-8.00,+4.00,+9.00,+2.00,-5.00,-4.00
+4.00,+3.00,-14.00,-10.00,-1.00,-1.00,-4.00,+4.00,-7.00,-10.00,+25.00,+0.00,-9.00,-3.00,+2.00,+0.00
-9.00,+67.00,+40.00,+1.00,+1.00,-5.00,+0.00,-5.00,-15.00,-49.00,-35.00,-3.00,+5.00,-1.00,+1.00,-7.00
+28.00,-61.00,+13.00,+7.00,+7.00,+9.00,+11.00,+13.00,+28.00,+81.00,+13.00,+3.00,+20.00,-2.00,-2.00,+7.00
-7.00,-8.00,+4.00,+2.00,-18.00,-4.00,-5.00,-7.00,+19.00,-21.00,+17.00,+8.00,+5.00,+2.00,+3.00,+1.00
+4.00,-15.00,-27.00,-4.00,+10.00,-1.00,+5.00,+7.00,-2.00,-8.00,-11.00,-5.00,-5.00,-10.00,-5.00,-7.00
-10.00,-59.00,-19.00,-9.00,-6.00,-5.00,-3.00,-9.00,+1.00,-47.00,-10.00,-3.00,-4.00,+0.00,-16.00,+8.00
-8.00,+51.00,+39.00,+4.00,+3.00,-1.00,-9.00,-4.00,-3.00,+7.00,-29.00,-10.00,-29.00,-5.00,+5.00,-3.00
-4.00,-9.00,+4.00,-9.00,-10.00,-19.00,-10.00,-4.00,-26.00,-7.00,+1.00,-3.00,+7.00,+3.00,-2.00,+0.00
+1.00,-57.00,-24.00,+3.00,-2.00,+10.00,+17.00,-2.00,+12.00,-30.00,-6.00,+3.00,+2.00,+14.00,+6.00,+1.00
-4.00,-67.00,-38.00,-1.00,-1.00,-5.00,-9.00,+1.00,+1.00,+22.00,+35.00,+6.00,+19.00,-4.00,+4.00,+3.00
-1.00,-12.00,-14.00,-9.00,-5.00,-10.00,-6.00,-6.00,+59.00,+127.00,-8.00,+2.00,+12.00,+2.00,-7.00,+8.00
-20.00,-86.00,+9.00,+5.00,+6.00,-1.00,-1.00,-2.00,+5.00,+4.00,+10.00,-1.00,-5.00,+7.00,+3.00,+1.00
+18.00,+95.00,+33.00,+3.00,+1.00,-17.00,-4.00,+3.00,+0.00,+43.00,+1.00,-2.00,-4.00,-2.00,-2.00,-7.00
+3.00,-88.00,-51.00,+2.00,+3.00,+4.00,+5.00,+7.00,-10.00,-92.00,-36.00,-9.00,-14.00,-9.00,-13.00,-5.00
-11.00,+48.00,+60.00,+1.00,-2.00,+0.00,-1.00,-7.00,-19.00,+40.00,+55.00,+1.00,-6.00,-1.00,-4.00,-8.00
-10.00,+16.00,-87.00,-27.00,-6.00,-3.00,-4.00,-7.00,+7.00,-15.00,+8.00,+8.00,+2.00,-3.00,+3.00,+0.00
+0.00,-128.00,+30.00,+22.00,+8.00,+4.00,+6.00,+4.00,+26.00,-31.00,-61.00,-12.00,+1.00,+1.00,+1.00,+9.00
+0.00,+82.00,-15.00,-1.00,-3.00,+1.00,+1.00,-1.00,-31.00,+25.00,+36.00,+5.00,+7.00,+1.00,+0.00,-10.00
+16.00,+23.00,-47.00,-4.00,+1.00,+1.00,+3.00,+4.00,-23.00,-128.00,-26.00,-3.00,-5.00,-3.00,+0.00,-5.00
+15.00,+82.00,-9.00,+7.00,+2.00,+1.00,+6.00,+1.00,+1.00,+43.00,-4.00,-5.00,-13.00,-4.00,+1.00,-1.00
-26.00,-40.00,+10.00,-8.00,-4.00,+2.00,-12.00,-10.00,-2.00,+88.00,+21.00,+2.00,+7.00,-2.00,-1.00,+9.00
+13.00,+14.00,+31.00,+5.00,-2.00,-6.00,+2.00,+7.00,+24.00,+112.00,-6.00,-2.00,-5.00,-4.00,-2.00,-8.00
-34.00,-121.00,-39.00,-17.00,-9.00,-6.00,-7.00,-18.00,-24.00,-128.00,-44.00,-5.00,+1.00,+4.00,+11.00,+17.00
+25.00,+51.00,+12.00,+11.00,+7.00,+6.00,+9.00,+12.00,-60.00,+62.00,+76.00,+15.00,+3.00,-1.00,-10.00,-8.00
+7.00,+44.00,-33.00,-2.00,+2.00,+4.00,-1.00,+1.00,+43.00,+36.00,-22.00,-6.00,-7.00,-2.00,-3.00,-15.00
-5.00,+30.00,+14.00,-1.00,-4.00,-5.00,-2.00,-3.00,-21.00,-34.00,+12.00,+11.00,+21.00,+0.00,+3.00,+5.00
+3.00,-82.00,-15.00,-2.00,-7.00,+11.00,+4.00,+1.00,-27.00,-23.00,+31.00,+10.00,-19.00,+4.00,-2.00,-14.00
-7.00,-92.00,-1.00,+3.00,+16.00,+14.00,+4.00,+0.00,+10.00,-2.00,-17.00,-19.00,-32.00,-18.00,-6.00,-6.00
-5.00,+43.00,+38.00,-3.00,+0.00,-5.00,-4.00,-6.00,-48.00,-60.00,-31.00,-15.00,-13.00,-9.00,-8.00,-14.00
+4.00,-41.00,-18.00,-6.00,-2.00,-3.00,+0.00,+0.00,+29.00,-53.00,-22.00,-2.00,-3.00,-4.00,+0.00,+2.00
-8.00,-7.00,+0.00,+7.00,+1.00,+0.00,-1.00,+0.00,-6.00,+118.00,+73.00,+9.00,+21.00,+2.00,-6.00,-7.00
+10.00,-12.00,-49.00,-9.00,-6.00,+0.00,-5.00,-3.00,-33.00,-71.00,-15.00,+7.00,+13.00,+5.00,+6.00,+4.00
+1.00,-49.00,+5.00,+11.00,+3.00,+9.00,+3.00,+7.00,-45.00,-88.00,+53.00,+6.00,-8.00,-4.00,+1.00,+3.00
-1.00,+81.00,-3.00,-12.00,-6.00,-5.00,-5.00,-5.00,+31.00,+72.00,-82.00,-8.00,+18.00,+5.00,+0.00,+1.00
+9.00,+55.00,+59.00,+17.00,+4.00,+2.00,+5.00,+4.00,+26.00,+13.00,-20.00,-13.00,-26.00,+0.00,+1.00,+7.00
-37.00,-65.00,-38.00,-24.00,-18.00,-19.00,-2.00,-17.00,-20.00,+109.00,+19.00,-3.00,+10.00,-13.00,-8.00,-3.00
+2.00,-21.00,+7.00,+2.00,+0.00,+3.00,-17.00,+2.00,+10.00,-12.00,-13.00,-9.00,-7.00,+1.00,-2.00,-5.00
+22.00,+55.00,-66.00,+1.00,-2.00,-7.00,+5.00,+6.00,+8.00,-87.00,-29.00,-6.00,-2.00,-21.00,+2.00,+8.00
+0.00,-35.00,-56.00,-3.00,-2.00,-2.00,-3.00,+1.00,-104.00,+44.00,-4.00,+4.00,+7.00,+2.00,-7.00,-40.00
+34.00,+106.00,+111.00,+28.00,+15.00,+12.00,+13.00,+25.00,+71.00,-70.00,-6.00,+2.00,-2.00,+5.00,+4.00,+25.00
-55.00,-73.00,-102.00,-20.00,-12.00,-9.00,-21.00,-30.00,+15.00,+56.00,-41.00,-7.00,+1.00,+2.00,+1.00,+9.00
+21.00,+61.00,+92.00,+2.00,+0.00,+6.00,+13.00,+2.00,-43.00,-103.00,-13.00,+2.00,-6.00,+4.00,+3.00,+3.00
-15.00,-65.00,-73.00,+2.00,+6.00,+7.00,+0.00,-3.00,+39.00,+25.00,-25.00,-3.00,-5.00,-4.00,-2.00,-4.00
+15.00,+52.00,-25.00,-10.00,-6.00,-3.00,+1.00,+3.00,-79.00,-52.00,-13.00,+2.00,+7.00,+5.00,+0.00,-8.00
+33.00,-35.00,-73.00,+9.00,+5.00,+1.00,+8.00,+17.00,+40.00,-9.00,-62.00,-14.00,-5.00,-7.00,+0.00,+21.00
-70.00,-62.00,+46.00,-30.00,-20.00,-15.00,-26.00,-37.00,-49.00,-24.00,+60.00,+10.00,-4.00,+8.00,+4.00,-3.00
+48.00,+68.00,-20.00,+33.00,+19.00,+7.00,+17.00,+26.00,+42.00,+59.00,+15.00,+7.00,+3.00,-1.00,+3.00,+6.00
-6.00,-128.00,+5.00,+9.00,+4.00,+1.00,-1.00,-4.00,+9.00,+24.00,-48.00,-14.00,+0.00,+0.00,-5.00,-7.00
-6.00,-3.00,-10.00,-16.00,-12.00,-6.00,+4.00,-4.00,-9.00,-65.00,+12.00,+5.00,+2.00,-2.00,-1.00,+0.00
-14.00,-41.00,-57.00,+5.00,+5.00,+3.00,-3.00,-5.00,+30.00,-47.00,-24.00,-12.00,-12.00,-6.00,-1.00,+8.00
-10.00,+63.00,+127.00,-21.00,-14.00,-5.00,-7.00,-12.00,+2.00,-75.00,+13.00,+5.00,+13.00,+3.00,+5.00,+13.00
+25.00,-54.00,-128.00,+27.00,+15.00,+5.00,+4.00,+11.00,-31.00,-68.00,-4.00,-2.00,-5.00,-3.00,-3.00,-15.00
+0.00,+64.00,+124.00,+2.00,-3.00,-5.00,-1.00,+1.00,+80.00,+23.00,-11.00,-4.00,-6.00,-5.00,-4.00,+12.00
-33.00,-128.00,-90.00,-18.00,-11.00,-9.00,-9.00,-15.00,+40.00,+127.00,+106.00,+4.00,-3.00,+0.00,-5.00,-2.00
-18.00,-88.00,-60.00,-3.00,+2.00,+0.00,+1.00,+2.00,-51.00,-62.00,-44.00,+6.00,+9.00,+3.00,+1.00,-4.00
+44.00,+101.00,+73.00,+21.00,+9.00,+9.00,+4.00,+16.00,-35.00,-26.00,-7.00,-6.00,-10.00,-4.00,-4.00,-4.00
+9.00,-11.00,-1.00,-22.00,-11.00,-7.00,-2.00,-3.00,+3.00,-7.00,+81.00,+21.00,+10.00,+5.00,+3.00,+8.00
-20.00,-29.00,-25.00,+12.00,+10.00,+6.00,+2.00,+1.00,+51.00,+26.00,-94.00,-32.00,-11.00,-3.00,-3.00,+3.00
+1.00,-11.00,+37.00,-24.00,-14.00,-12.00,-8.00,-14.00,+33.00,+44.00,+19.00,+5.00,+7.00,+2.00,-3.00,-12.00
-10.00,-39.00,+77.00,+31.00,+14.00,+10.00,+6.00,+7.00,+60.00,+107.00,+19.00,-8.00,-8.00,-5.00,-4.00,+5.00
-28.00,-92.00,-74.00,-32.00,-15.00,-8.00,-8.00,-17.00,-45.00,-59.00,-51.00,+1.00,+11.00,+8.00,+9.00,-4.00
+66.00,+89.00,+100.00,+34.00,+16.00,+15.00,+16.00,+40.00,-35.00,-55.00,-8.00,-2.00,-7.00,-6.00,-10.00,-9.00
-16.00,+68.00,+40.00,-10.00,-7.00,-6.00,-9.00,-30.00,+7.00,+14.00,-62.00,-17.00,-11.00,-5.00,+7.00,+29.00
-73.00,-60.00,-82.00,-49.00,-23.00,-16.00,-16.00,-32.00,-19.00,-113.00,-12.00,+7.00,+3.00,-3.00,-8.00,-18.00
-28.00,+98.00,-5.00,+11.00,+5.00,+0.00,-1.00,-14.00,-36.00,+31.00,-9.00,+8.00,+11.00,+10.00,+12.00,-6.00
+84.00,+55.00,+32.00,+46.00,+24.00,+16.00,+17.00,+37.00,-44.00,+26.00,+116.00,+29.00,+8.00,+6.00,+1.00,-9.00
+25.00,-125.00,+61.00,+15.00,+14.00,+7.00,+8.00,+17.00,-12.00,+46.00,-19.00,-14.00,-10.00,-11.00,-9.00,-5.00
-30.00,-39.00,+54.00,-37.00,-22.00,-14.00,-14.00,-20.00,+78.00,+45.00,-28.00,+9.00,+15.00,+18.00,+19.00,+26.00
+74.00,-58.00,+43.00,+55.00,+28.00,+20.00,+26.00,+44.00,-89.00,-106.00,+11.00,-5.00,-8.00,-9.00,-8.00,-7.00
-28.00,+4.00,-77.00,-36.00,-14.00,-9.00,-10.00,-18.00,+31.00,+47.00,-60.00,-15.00,-8.00,-5.00,-5.00,-18.00
-34.00,-109.00,-24.00,+13.00,-4.00,-5.00,-5.00,-2.00,-13.00,-82.00,+127.00,+40.00,+20.00,+12.00,+8.00,+4.00
+71.00,-25.00,+30.00,+46.00,+31.00,+20.00,+18.00,+34.00,+62.00,+98.00,-57.00,-26.00,-15.00,-11.00,-6.00,+7.00
-35.00,+17.00,+42.00,-11.00,-13.00,-11.00,-9.00,-14.00,+10.00,+127.00,+103.00,+12.00,-4.00,-9.00,-13.00,-16.00
-36.00,-81.00,-59.00,-47.00,-18.00,-14.00,-13.00,-28.00,+31.00,-29.00,-104.00,-15.00,-3.00,+0.00,+6.00,+2.00
+19.00,+19.00,-13.00,-3.00,-2.00,+1.00,+5.00,+14.00,+43.00,+54.00,+22.00,+3.00,+1.00,+3.00,+0.00,+9.00
-8.00,-28.00,-47.00,-6.00,+0.00,+0.00,-3.00,-2.00,-3.00,-27.00,+9.00,+4.00,-6.00,-9.00,-14.00,-22.00
-27.00,-54.00,-14.00,-21.00,-14.00,-9.00,-13.00,-36.00,-18.00,+66.00,+0.00,-17.00,+0.00,+4.00,+8.00,+6.00
+24.00,-26.00,-3.00,+21.00,+14.00,+7.00,+12.00,+33.00,+94.00,-44.00,-51.00,+0.00,-3.00,-3.00,-3.00,+10.00
-15.00,+85.00,+26.00,+1.00,-9.00,-7.00,-5.00,-10.00,-70.00,-70.00,-9.00,-8.00,+3.00,+3.00,+1.00,-19.00
+37.00,+45.00,-89.00,+21.00,+13.00,+9.00,+11.00,+20.00,-59.00,-7.00,+28.00,+1.00,+0.00,+0.00,+2.00,+8.00
-18.00,-75.00,-78.00,-7.00,-2.00,-2.00,-4.00,-12.00,+95.00,+127.00,+62.00,+18.00,-3.00,-7.00,-8.00,+3.00
-78.00,-93.00,-81.00,-59.00,-25.00,-16.00,-20.00,-45.00,+0.00,-7.00,-21.00,+5.00,+5.00,+4.00,+5.00,+16.00
-2.00,-86.00,-88.00,+10.00,+9.00,+6.00,+4.00,+8.00,-36.00,+43.00,-24.00,-2.00,+0.00,+1.00,+0.00,-5.00
+0.00,-53.00,+39.00,+18.00,+2.00,+1.00,+0.00,+1.00,-10.00,+48.00,-66.00,-20.00,-9.00,-6.00,-3.00,-1.00
-15.00,-38.00,-12.00,-12.00,-8.00,-7.00,-6.00,-4.00,-19.00,-35.00,-17.00,-2.00,-9.00,-9.00,-18.00,-37.00
-55.00,-128.00,-43.00,-30.00,-19.00,-13.00,-12.00,-25.00,-76.00,+69.00,+107.00,+26.00,+16.00,+11.00,+7.00,-6.00
+74.00,-64.00,-60.00,+13.00,+18.00,+16.00,+19.00,+39.00,-31.00,-52.00,+45.00,+14.00,+2.00,-2.00,+0.00,+14.00
-10.00,+109.00,+91.00,-11.00,-5.00,-3.00,-7.00,-31.00,+50.00,-24.00,+74.00,+24.00,+6.00,+8.00,+13.00,+10.00
+8.00,-40.00,-128.00,-20.00,-4.00,+3.00,+9.00,+20.00,-11.00,-40.00,-67.00,-39.00,-11.00,-8.00,-12.00,-14.00
-39.00,-67.00,+19.00,+13.00,-5.00,-6.00,-7.00,-12.00,-86.00,+41.00,+48.00,+20.00,+8.00,+4.00,+3.00,-13.00
+68.00,+96.00,+84.00,+7.00,+8.00,+6.00,+7.00,+17.00,+28.00,+110.00,+16.00,+0.00,-3.00,-2.00,-1.00,-7.00
-52.00,-128.00,-128.00,-27.00,-12.00,-6.00,-8.00,-13.00,-37.00,-100.00,-4.00,+18.00,+0.00,-1.00,-1.00,+6.00
+20.00,+112.00,+127.00,+16.00,-1.00,+0.00,+0.00,+3.00,-14.00,+108.00,+22.00,+0.00,+6.00,+2.00,+0.00,-22.00
+41.00,+39.00,-60.00,+19.00,+18.00,+13.00,+12.00,+27.00,-15.00,+40.00,+31.00,+8.00,+2.00,+0.00,+0.00,+9.00
-14.00,-19.00,+13.00,+1.00,+1.00,+0.00,-4.00,-9.00,+48.00,-18.00,-115.00,-43.00,-20.00,-13.00,-9.00,+2.00
-46.00,+56.00,+3.00,-31.00,-26.00,-18.00,-16.00,-25.00,+15.00,+5.00,+97.00,+17.00,-5.00,-11.00,-16.00,-29.00
-15.00,-8.00,-45.00,-37.00,-20.00,-13.00,-11.00,-16.00,-27.00,+46.00,-48.00,+1.00,+11.00,+11.00,+12.00,+15.00
+47.00,-66.00,+54.00,+53.00,+29.00,+18.00,+16.00,+30.00,-8.00,+127.00,-46.00,-36.00,-17.00,-10.00,-9.00,-8.00
-44.00,+22.00,-35.00,-28.00,-16.00,-15.00,-19.00,-31.00,-11.00,-117.00,+40.00,+18.00,+7.00,+3.00,+2.00,-1.00
+41.00,+56.00,+83.00,+12.00,+6.00,+4.00,+6.00,+18.00,+36.00,+0.00,-81.00,-20.00,-3.00,+0.00,+2.00,+3.00
-5.00,-116.00,-19.00,+9.00,+2.00,+2.00,+2.00,+5.00,-14.00,+69.00,+41.00,+2.00,-12.00,-19.00,-25.00,-34.00
-50.00,-32.00,-62.00,-57.00,-32.00,-19.00,-25.00,-43.00,-20.00,+28.00,-20.00,+4.00,+2.00,+2.00,+4.00,+8.00
-29.00,+22.00,+22.00,+30.00,+10.00,+5.00,+4.00,+1.00,+24.00,+26.00,-70.00,-22.00,-7.00,-3.00,+1.00,+1.00
+46.00,+0.00,-41.00,-33.00,-10.00,-2.00,+2.00,+16.00,+15.00,+92.00,+40.00,+5.00,+4.00,+3.00,+2.00,-3.00
-21.00,-30.00,+61.00,+9.00,+8.00,+4.00,+1.00,-14.00,+88.00,-3.00,-49.00,-3.00,-2.00,-1.00,+6.00,+23.00
-14.00,+43.00,-34.00,-15.00,-12.00,-7.00,-4.00,-7.00,-77.00,-51.00,-40.00,-27.00,-15.00,-10.00,-6.00,-6.00
+29.00,-13.00,+50.00,-3.00,-10.00,-6.00,-1.00,+5.00,+92.00,+81.00,+87.00,+25.00,+10.00,+6.00,+3.00,+0.00
-14.00,-67.00,+33.00,+37.00,+20.00,+9.00,+5.00,+10.00,-55.00,+51.00,-55.00,-11.00,+1.00,+3.00,+6.00,+14.00
+53.00,+69.00,-23.00,+15.00,+10.00,+7.00,+6.00,+18.00,+10.00,+4.00,-23.00,+11.00,+3.00,+6.00,+8.00,+17.00
+16.00,-58.00,-6.00,-11.00,+2.00,+4.00,+5.00,+3.00,-1.00,+17.00,+111.00,+11.00,-24.00,-29.00,-37.00,-56.00
-128.00,-62.00,-100.00,-111.00,-57.00,-36.00,-37.00,-67.00,-71.00,+12.00,+43.00,+6.00,+12.00,+11.00,+5.00,-4.00
+53.00,-128.00,-56.00,+34.00,+27.00,+16.00,+14.00,+22.00,+41.00,-45.00,+16.00,-4.00,+0.00,+0.00,-4.00,-14.00
+6.00,-28.00,-1.00,+8.00,+2.00,+1.00,+2.00,+7.00,+5.00,-57.00,-56.00,-7.00,+2.00,+2.00,+5.00,+4.00
-14.00,+5.00,+62.00,+24.00,+2.00,-1.00,-4.00,-11.00,+28.00,-8.00,+55.00,+4.00,-3.00,-7.00,-9.00,-13.00
-29.00,-108.00,+14.00,-51.00,-15.00,-10.00,-7.00,-12.00,-64.00,-109.00,-115.00,+1.00,+10.00,+11.00,+9.00,+0.00
+75.00,-38.00,+43.00,+70.00,+34.00,+21.00,+28.00,+58.00,+57.00,+127.00,-6.00,+12.00,+4.00,+5.00,+9.00,+23.00
-37.00,-70.00,-69.00,+10.00,+7.00,+3.00,+1.00,+2.00,+1.00,+106.00,-5.00,-18.00,-12.00,-11.00,-12.00,-13.00
-18.00,-60.00,-18.00,-9.00,-16.00,-13.00,-15.00,-15.00,-7.00,-106.00,-74.00,-18.00,+2.00,+7.00,+9.00,+19.00
+15.00,-38.00,-16.00,+18.00,+12.00,+7.00,+5.00,-4.00,+40.00,-12.00,-70.00,-26.00,-14.00,-13.00,-13.00,-23.00
-81.00,-73.00,-104.00,-25.00,-20.00,-15.00,-16.00,-30.00,-20.00,-17.00,-5.00,+11.00,+6.00,+3.00,-3.00,+12.00
+28.00,+72.00,+109.00,+37.00,+16.00,+5.00,+4.00,+10.00,+31.00,+30.00,-22.00,-3.00,+0.00,+2.00,+3.00,+14.00
-8.00,-60.00,-6.00,+13.00,+7.00,+6.00,+7.00,+10.00,+89.00,-48.00,-44.00,-12.00,-1.00,+0.00,+9.00,+58.00
-63.00,-87.00,-66.00,+3.00,-6.00,-8.00,-13.00,-33.00,-76.00,-74.00,+23.00,+16.00,+4.00,+2.00,+2.00,-8.00
+63.00,+100.00,+116.00,+13.00,+10.00,+6.00,+10.00,+26.00,+30.00,+30.00,-66.00,-14.00,-2.00,+2.00,+5.00,-2.00
+12.00,+4.00,+52.00,+14.00,+3.00,+1.00,+4.00,+6.00,-7.00,+23.00,+77.00,+15.00,+4.00,+5.00,+6.00,+13.00
+7.00,-49.00,-6.00,-6.00,+2.00,+6.00,+6.00,+14.00,+50.00,+127.00,+62.00,+2.00,-4.00,-6.00,-13.00,-24.00
-55.00,-128.00,-116.00,-3.00,-4.00,-5.00,-10.00,-17.00,+47.00,-29.00,+0.00,-17.00,-21.00,-20.00,-18.00,+3.00
-63.00,+109.00,+8.00,-65.00,-36.00,-25.00,-28.00,-49.00,-12.00,-126.00,+15.00,-5.00,+0.00,+1.00,-3.00,-22.00
-21.00,-110.00,-89.00,+3.00,+3.00,+3.00,+1.00,+9.00,+4.00,-57.00,+60.00,+15.00,+6.00,+5.00,+3.00,+6.00
+40.00,+127.00,+52.00,+13.00,+9.00,+7.00,+6.00,+9.00,+18.00,-23.00,+67.00,+37.00,+13.00,+9.00,+10.00,+13.00
+14.00,-19.00,-44.00,+10.00,+11.00,+9.00,+10.00,+19.00,+19.00,-52.00,-105.00,-49.00,-24.00,-20.00,-17.00,-8.00
-91.00,-86.00,+3.00,-52.00,-39.00,-27.00,-27.00,-49.00,-128.00,-94.00,-5.00,-7.00,-3.00,-7.00,-12.00,-32.00
+48.00,+127.00,+57.00,+7.00,+5.00,-2.00,+1.00,+4.00,+15.00,-120.00,-74.00,-1.00,+5.00,+6.00,+1.00,-4.00
+24.00,-79.00,+8.00,+23.00,+14.00,+8.00,+8.00,+5.00,+4.00,+2.00,-14.00,-1.00,+0.00,+3.00,+0.00,-11.00
+13.00,-13.00,+1.00,+11.00,+2.00,+4.00,+3.00,+15.00,+73.00,+61.00,+36.00,-3.00,-9.00,-10.00,-8.00,+10.00
-84.00,-60.00,-127.00,-45.00,-25.00,-14.00,-16.00,-40.00,-106.00,-37.00,-1.00,-15.00,-5.00,-2.00,+3.00,-9.00
+48.00,+12.00,+63.00,-7.00,-4.00,+0.00,+9.00,+18.00,-99.00,+101.00,+87.00,+28.00,+22.00,+16.00,+15.00,-6.00
+52.00,+84.00,+4.00,+48.00,+31.00,+18.00,+15.00,+25.00,-20.00,-27.00,-24.00,+1.00,+3.00,+6.00,+6.00,+9.00
+28.00,+48.00,+26.00,+21.00,+12.00,+7.00,+9.00,+15.00,+4.00,+18.00,+16.00,+5.00,-2.00,-2.00,+0.00,+9.00
+1.00,+43.00,+22.00,-5.00,-9.00,-5.00,-4.00,-5.00,-25.00,+36.00,+54.00,-5.00,-6.00,-7.00,-7.00,+3.00
-22.00,-59.00,+12.00,-31.00,-11.00,-6.00,-4.00,-17.00,+53.00,-91.00,-29.00,+4.00,+2.00,+5.00,+6.00,+1.00
+66.00,-24.00,+90.00,+16.00,+2.00,+4.00,+6.00,+22.00,-48.00,-61.00,-45.00,-1.00,+8.00,+7.00,+9.00,-6.00
+65.00,+7.00,+33.00,+34.00,+21.00,+15.00,+18.00,+39.00,-6.00,+84.00,+0.00,-4.00,-5.00,-2.00,+0.00,+10.00
-11.00,+24.00,-2.00,-13.00,-6.00,-4.00,-9.00,-12.00,+127.00,+71.00,-2.00,-24.00,-20.00,-17.00,-13.00,-1.00
-105.00,-128.00,-128.00,-56.00,-35.00,-26.00,-30.00,-49.00,-101.00,-72.00,+5.00,+1.00,+3.00,+3.00,+4.00,-2.00
+39.00,-43.00,-69.00,+41.00,+17.00,+9.00,+15.00,+27.00,-7.00,+68.00,+41.00,-8.00,-5.00,-6.00,-6.00,-3.00
-41.00,+33.00,+49.00,-14.00,-6.00,-8.00,-11.00,-18.00,+40.00,+55.00,+17.00,+8.00,+8.00,+10.00,+14.00,+25.00
+38.00,-83.00,-52.00,+26.00,+15.00,+12.00,+15.00,+27.00,-38.00,+122.00,-23.00,+1.00,+3.00,+2.00,+1.00,-10.00
-8.00,-33.00,-39.00,+11.00,+6.00,+4.00,+0.00,+3.00,-18.00,-104.00,+41.00,-2.00,-9.00,-8.00,-8.00,-9.00
-25.00,+76.00,+36.00,-23.00,-12.00,-9.00,-6.00,-11.00,+40.00,+93.00,-58.00,-15.00,-6.00,-5.00,-3.00,+0.00
-35.00,-58.00,-15.00,+3.00,-2.00,-7.00,-8.00,-21.00,+31.00,+104.00,+28.00,+8.00,+4.00,+2.00,-1.00,-11.00
+33.00,+94.00,+65.00,+20.00,+8.00,+6.00,+9.00,+16.00,-95.00,-53.00,+25.00,+6.00,+14.00,+9.00,+8.00,+1.00
+58.00,+99.00,+0.00,+23.00,+15.00,+9.00,+12.00,+27.00,+18.00,-27.00,-36.00,-10.00,-7.00,-4.00,-2.00,+6.00
-22.00,-110.00,-27.00,-15.00,-8.00,-4.00,-8.00,-9.00,-23.00,-125.00,-33.00,-6.00,-6.00,-3.00,-6.00,-15.00
-2.00,-37.00,-16.00,+3.00,-5.00,-3.00,-3.00,+0.00,-12.00,-107.00,-59.00,-21.00,-10.00,-6.00,-3.00,+0.00
+8.00,+20.00,-3.00,-22.00,-15.00,-7.00,-4.00,-4.00,+39.00,+32.00,+30.00,+39.00,+18.00,+16.00,+16.00,+14.00
+16.00,-41.00,+89.00,+27.00,+24.00,+16.00,+13.00,+11.00,+43.00,-48.00,-19.00,-2.00,-1.00,-1.00,+4.00,+21.00
+22.00,-15.00,+28.00,+13.00,+2.00,+1.00,+5.00,+27.00,+75.00,-40.00,-103.00,-27.00,-10.00,-4.00,-1.00,+3.00
-48.00,-112.00,-54.00,-20.00,-16.00,-9.00,-12.00,-14.00,-1.00,+104.00,+113.00,+9.00,-12.00,-15.00,-16.00,+0.00
-86.00,-128.00,-128.00,-66.00,-27.00,-19.00,-24.00,-46.00,+51.00,-13.00,-14.00,+20.00,+24.00,+29.00,+34.00,+29.00
+69.00,-128.00,-56.00,+48.00,+42.00,+33.00,+35.00,+66.00,-26.00,+2.00,+37.00,-1.00,-5.00,-6.00,-13.00,-22.00
-45.00,-96.00,-90.00,-16.00,-5.00,-6.00,-10.00,-21.00,-28.00,+35.00,+34.00,+9.00,+2.00,+2.00,+2.00,+0.00
-4.00,+0.00,+30.00,+5.00,+4.00,+3.00,+2.00,+3.00,+45.00,+15.00,+3.00,-4.00,-5.00,-7.00,-8.00,-2.00
-12.00,+17.00,-5.00,-15.00,-11.00,-9.00,-11.00,-19.00,+39.00,-31.00,-32.00,-11.00,-3.00,+0.00,-2.00,+4.00
+2.00,+19.00,-4.00,+7.00,+1.00,-1.00,+2.00,-1.00,-30.00,+11.00,-60.00,-32.00,-5.00,-2.00,+0.00,-1.00
+37.00,+70.00,+91.00,+17.00,+3.00,+2.00,+6.00,+9.00,+11.00,-24.00,+104.00,+22.00,+11.00,+7.00,+4.00,-1.00
+31.00,-24.00,-82.00,+3.00,+8.00,+8.00,+4.00,+14.00,-23.00,-128.00,-44.00,-12.00,-6.00,-4.00,-5.00,-11.00
-36.00,+18.00,+14.00,+5.00,-4.00,-5.00,-8.00,-14.00,+19.00,-15.00,+29.00,-2.00,-7.00,-5.00,-2.00,+3.00
+23.00,-49.00,-93.00,-15.00,-9.00,-2.00,+2.00,+6.00,+23.00,-78.00,-17.00,+7.00,+3.00,-1.00,+1.00,+8.00
-9.00,+102.00,+8.00,+2.00,+1.00,-1.00,+0.00,-4.00,-20.00,-58.00,-51.00,-5.00,+0.00,+0.00,+1.00,+5.00
+33.00,+31.00,+10.00,+4.00,+1.00,+1.00,+6.00,+10.00,-58.00,-75.00,-2.00,+1.00,+1.00,+0.00,+0.00,-7.00
+22.00,-40.00,-12.00,+3.00,+4.00,+2.00,+5.00,+10.00,-29.00,-22.00,+17.00,+19.00,-2.00,-5.00,-7.00,-4.00
-68.00,-70.00,+19.00,-5.00,-5.00,-6.00,-13.00,-30.00,+43.00,+96.00,+2.00,-7.00,-4.00,+1.00,+5.00,+17.00
-31.00,-58.00,-54.00,-24.00,-11.00,-3.00,-7.00,-13.00,-51.00,+7.00,-16.00,+9.00,+1.00,-2.00,-5.00,-19.00
+20.00,+57.00,+5.00,+2.00,+2.00,+1.00,+2.00,+5.00,-77.00,+9.00,+49.00,+13.00,+5.00,-2.00,-4.00,-13.00
+24.00,+62.00,-86.00,-15.00,-3.00,-2.00,-4.00,-4.00,-2.00,-78.00,-75.00,-1.00,-3.00,-3.00,-5.00,+7.00
-11.00,-98.00,-14.00,+17.00,-2.00,-4.00,-2.00,-1.00,-35.00,-106.00,-70.00,-8.00,+3.00,+1.00,-3.00,-28.00
+27.00,+98.00,+77.00,+20.00,+8.00,+5.00,+7.00,+12.00,+34.00,+36.00,+63.00,+27.00,+15.00,+13.00,+14.00,+18.00
+20.00,-2.00,+46.00,+32.00,+23.00,+16.00,+14.00,+24.00,-25.00,+46.00,-26.00,-6.00,+0.00,+4.00,+9.00,+19.00
+26.00,+55.00,+35.00,+15.00,+5.00,+5.00,+5.00,+13.00,+43.00,+116.00,-20.00,-29.00,-18.00,-15.00,-16.00,-2.00
-75.00,+6.00,-95.00,-58.00,-34.00,-23.00,-27.00,-50.00,+14.00,+81.00,+8.00,+1.00,-9.00,-10.00,-13.00,-20.00
-47.00,-108.00,-46.00,-23.00,-15.00,-13.00,-13.00,-23.00,-54.00,-91.00,-86.00,-13.00,+1.00,+6.00,+8.00,+12.00
+33.00,+8.00,+3.00,+34.00,+12.00,+8.00,+10.00,+14.00,+78.00,+91.00,-3.00,+7.00,+3.00,+2.00,+0.00,-8.00
-15.00,-128.00,-5.00,+18.00,+4.00,+3.00,+2.00,+0.00,+36.00,-52.00,+43.00,+9.00,+3.00,+1.00,+7.00,+14.00
+54.00,+110.00,+36.00,-3.00,+1.00,+5.00,+8.00,+17.00,-14.00,+127.00,+65.00,+22.00,+7.00,+3.00,-4.00,-11.00
-3.00,+24.00,+2.00,+2.00,+8.00,+3.00,-1.00,-3.00,+31.00,+84.00,-13.00,-13.00,-9.00,-10.00,-11.00,-7.00
-41.00,-45.00,-28.00,-20.00,-16.00,-12.00,-15.00,-28.00,+24.00,-79.00,-75.00,+0.00,+2.00,+6.00,+10.00,+16.00
+58.00,+24.00,+74.00,-3.00,+7.00,+8.00,+13.00,+31.00,-47.00,+38.00,+45.00,-18.00,-11.00,-7.00,-12.00,-22.00
+11.00,+75.00,+14.00,-1.00,-7.00,-3.00,-4.00,+2.00,+65.00,-3.00,-27.00,-16.00,-12.00,-8.00,-7.00,-6.00
-56.00,-43.00,-118.00,-35.00,-17.00,-15.00,-17.00,-28.00,-66.00,-35.00,+90.00,+42.00,+6.00,-5.00,-12.00,-27.00
+20.00,+70.00,+65.00,-13.00,-2.00,+0.00,+0.00,+0.00,-86.00,+108.00,+58.00,-8.00,-13.00,-17.00,-26.00,-43.00
-50.00,-26.00,-64.00,-53.00,-25.00,-17.00,-17.00,-30.00,-32.00,-92.00,+50.00,+25.00,+14.00,+14.00,+15.00,+1.00
-10.00,-55.00,+10.00,+26.00,+18.00,+17.00,+13.00,+26.00,-16.00,-11.00,-15.00,-9.00,-5.00,-5.00,-6.00,-4.00
-16.00,-45.00,+4.00,-5.00,-6.00,-3.00,-5.00,-7.00,-18.00,+65.00,-31.00,-21.00,-12.00,-12.00,-8.00,-5.00
-58.00,-56.00,-52.00,-35.00,-20.00,-15.00,-15.00,-11.00,+67.00,-54.00,-95.00,-28.00,-12.00,-9.00,-4.00,+5.00
-47.00,-60.00,-41.00,-28.00,-20.00,-14.00,-12.00,-19.00,-46.00,-95.00,+34.00,+8.00,+2.00,-1.00,-7.00,-13.00
+19.00,+0.00,+29.00,+16.00,+4.00,+1.00,+1.00,+2.00,+11.00,+103.00,+8.00,-8.00,-9.00,-10.00,-12.00,-13.00
-42.00,-128.00,-100.00,-40.00,-21.00,-13.00,-17.00,-26.00,-57.00,-107.00,+6.00,+17.00,+21.00,+23.00,+26.00,+20.00
+108.00,+17.00,+54.00,+60.00,+34.00,+26.00,+36.00,+62.00,+80.00,+106.00,+18.00,+15.00,+14.00,+12.00,+10.00,-1.00
+60.00,+8.00,-9.00,+38.00,+24.00,+18.00,+18.00,+35.00,+40.00,+65.00,+6.00,-11.00,-8.00,-7.00,-4.00,+11.00
-43.00,+69.00,+37.00,-15.00,-15.00,-11.00,-12.00,-23.00,-18.00,+77.00,+96.00,+26.00,+8.00,+4.00,+2.00,-10.00
+34.00,-58.00,+83.00,+12.00,+11.00,+9.00,+12.00,+15.00,+67.00,-19.00,-90.00,-48.00,-17.00,-9.00,-4.00,+12.00
-21.00,+51.00,-28.00,-8.00,-13.00,-10.00,-9.00,-19.00,-35.00,-47.00,-33.00,-11.00,-3.00,+1.00,+1.00,+1.00
+2.00,-23.00,+27.00,+29.00,+9.00,+3.00,+2.00,+6.00,+61.00,-36.00,-128.00,-30.00,-8.00,-3.00,+1.00,+4.00
-5.00,+96.00,-14.00,-6.00,-5.00,-6.00,-4.00,-9.00,-7.00,+57.00,+99.00,+25.00,+0.00,-6.00,-10.00,-8.00
-20.00,-22.00,+34.00,-27.00,-11.00,-5.00,-9.00,-17.00,+65.00,+37.00,+5.00,-4.00,-6.00,-6.00,-4.00,+13.00
-26.00,+19.00,+47.00,-10.00,-10.00,-9.00,-10.00,-17.00,-4.00,+61.00,+61.00,+31.00,+16.00,+15.00,+12.00,+7.00
+45.00,-40.00,-57.00,+49.00,+29.00,+20.00,+20.00,+34.00,-1.00,+40.00,-83.00,-37.00,-20.00,-17.00,-19.00,-12.00
-73.00,-128.00,-53.00,-40.00,-29.00,-21.00,-28.00,-45.00,-45.00,-64.00,-78.00,-10.00,+4.00,+4.00,+6.00,+12.00
+31.00,-13.00,-10.00,+25.00,+11.00,+7.00,+10.00,+19.00,+13.00,-71.00,+102.00,+17.00,+4.00,+0.00,-4.00,-7.00
-1.00,+1.00,+31.00,+5.00,+5.00,+1.00,-1.00,-8.00,-16.00,+51.00,-60.00,-1.00,+0.00,+2.00,+1.00,+6.00
-18.00,-89.00,-40.00,-2.00,+3.00,+3.00,-1.00,-3.00,+15.00,+44.00,-65.00,-11.00,-4.00,-4.00,-4.00,+0.00
-11.00,-106.00,-44.00,+1.00,-3.00,-4.00,-3.00,-7.00,+12.00,-12.00,-15.00,-7.00,-3.00,+0.00,+1.00,+6.00
+1.00,+53.00,-35.00,+0.00,-1.00,-1.00,+1.00,+5.00,-28.00,+11.00,-3.00,-1.00,-1.00,-2.00,-4.00,-10.00
+10.00,-29.00,-14.00,-7.00,+0.00,-1.00,+0.00,-1.00,-9.00,-44.00,+0.00,-12.00,-8.00,-9.00,-8.00,-5.00
-34.00,+37.00,+24.00,-15.00,-12.00,-11.00,-13.00,-22.00,+10.00,-60.00,+30.00,+7.00,+1.00,+0.00,-5.00,-11.00
+43.00,+103.00,+79.00,+5.00,+4.00,+3.00,+5.00,+15.00,+45.00,-27.00,-22.00,-7.00,-3.00,-1.00,+2.00,+8.00
-23.00,-54.00,-46.00,-7.00,-5.00,-3.00,-4.00,-10.00,-69.00,-83.00,-47.00,-1.00,+4.00,+6.00,+4.00,-6.00
+60.00,+59.00,+54.00,+22.00,+11.00,+9.00,+11.00,+22.00,+8.00,+57.00,+38.00,+3.00,+1.00,-1.00,+1.00,+2.00
-13.00,+24.00,+25.00,+2.00,+0.00,+1.00,+0.00,+2.00,-48.00,-2.00,+17.00,+11.00,+3.00,+3.00,+3.00,+0.00
+11.00,-97.00,-11.00,+10.00,+10.00,+4.00,+5.00,+7.00,+14.00,-74.00,+18.00,+7.00,+1.00,+3.00,+3.00,+6.00
+1.00,+32.00,+0.00,+2.00,+0.00,+1.00,+2.00,+3.00,+29.00,+37.00,-16.00,-6.00,-7.00,-4.00,-3.00,+6.00
-30.00,-17.00,-45.00,-16.00,-9.00,-5.00,-7.00,-11.00,-39.00,-38.00,+8.00,-2.00,-1.00,-1.00,-1.00,-4.00
-3.00,+3.00,-6.00,-1.00,+0.00,-1.00,+0.00,-1.00,+15.00,-8.00,-21.00,-1.00,+2.00,+2.00,+2.00,+5.00
+11.00,-21.00,+12.00,+5.00,+3.00,+4.00,+3.00,+8.00,+8.00,-39.00,-1.00,-2.00,-2.00,-2.00,+0.00,+9.00
-5.00,+43.00,+24.00,-2.00,-4.00,-3.00,-2.00,-6.00,-13.00,-36.00,+16.00,+1.00,-1.00,-3.00,-4.00,-9.00
+1.00,-62.00,-33.00,-17.00,-6.00,-1.00,-1.00,+1.00,+19.00,-7.00,+3.00,+0.00,-1.00,+1.00,+3.00,+2.00
+13.00,-3.00,+23.00,+7.00,+7.00,+5.00,+2.00,+6.00,+20.00,+23.00,+5.00,-2.00,-3.00,-5.00,-6.00,-5.00
-18.00,-3.00,-26.00,-14.00,-9.00,-8.00,-6.00,-10.00,+15.00,-34.00,-18.00,-1.00,+2.00,+2.00,+3.00,+4.00
+9.00,+4.00,+9.00,+12.00,+7.00,+1.00,+2.00,+5.00,+79.00,+77.00,-9.00,-5.00,-2.00,-3.00,-2.00,-2.00
-7.00,-24.00,-39.00,-5.00,-5.00,-2.00,-1.00,-2.00,+115.00,-4.00,+1.00,+2.00,+2.00,+1.00,+2.00,+11.00
-20.00,-52.00,-5.00,+1.00,+0.00,-5.00,-4.00,-11.00,+126.00,-31.00,+7.00,+7.00,-3.00,+1.00,+2.00,+3.00
-11.00,+25.00,+15.00,-5.00,-1.00,-1.00,-3.00,-5.00,+9.00,+64.00,+8.00,-1.00,+1.00,+1.00,-1.00,-4.00
+21.00,-41.00,+4.00,+0.00,+0.00,+2.00,+2.00,+6.00,-99.00,+86.00,+3.00,-5.00,-5.00,-4.00,-3.00,+0.00
-29.00,-56.00,-35.00,-16.00,-7.00,-6.00,-8.00,-13.00,-128.00,+0.00,+12.00,+3.00,-2.00,-1.00,-4.00,-6.00
-18.00,-71.00,-53.00,-7.00,-3.00,-2.00,-2.00,-7.00,-40.00,+22.00,+60.00,+25.00,+12.00,+10.00,+8.00,-4.00
+40.00,+75.00,+55.00,+29.00,+20.00,+15.00,+15.00,+28.00,+36.00,-31.00,-7.00,-5.00,-2.00,+0.00,+0.00,+4.00
+2.00,+19.00,+0.00,-5.00,-3.00,-1.00,+2.00,+0.00,+24.00,+30.00,+3.00,-3.00,-3.00,-3.00,-24.00,-13.00
-11.00,-70.00,-34.00,-6.00,-4.00,-7.00,+9.00,-4.00,-5.00,-72.00,-21.00,-5.00,-2.00,-14.00,+48.00,+18.00
-15.00,+20.00,+9.00,-6.00,-5.00,-2.00,-30.00,-17.00,+5.00,+29.00,-14.00,-15.00,-11.00,-13.00,-5.00,+0.00
-18.00,-34.00,-42.00,-18.00,-7.00,-9.00,-7.00,-14.00,-12.00,-32.00,-2.00,+2.00,+0.00,+7.00,+4.00,+4.00
+2.00,+11.00,+9.00,+10.00,+3.00,+3.00,-5.00,+4.00,+18.00,-21.00,-6.00,-3.00,-3.00,+2.00,-3.00,-9.00
-5.00,+8.00,-6.00,-6.00,-2.00,+2.00,+5.00,-11.00,+31.00,-6.00,-12.00,-6.00,-1.00,+2.00,-18.00,-5.00
-13.00,-81.00,-2.00,-4.00,-5.00,-7.00,-1.00,+7.00,-53.00,+40.00,+20.00,-2.00,-3.00,-3.00,-6.00,-12.00
+26.00,+32.00,-7.00,+5.00,+1.00,-1.00,+0.00,+9.00,-14.00,+15.00,-9.00,-4.00,-5.00,-2.00,+4.00,+3.00
-10.00,-29.00,-5.00,-6.00,-3.00,-2.00,+0.00,-5.00,+10.00,+10.00,-5.00,-1.00,+3.00,-2.00,+2.00,+0.00
-8.00,-1.00,-7.00,-3.00,-4.00,-1.00,-4.00,-7.00,+28.00,+4.00,+8.00,+2.00,+3.00,+4.00,-9.00,-8.00
+13.00,+14.00,+24.00,+11.00,+8.00,+3.00,+7.00,+1.00,+5.00,-3.00,-9.00,-3.00,+0.00,-3.00,-1.00,+0.00
-15.00,-27.00,-16.00,-3.00,-5.00,-2.00,-6.00,-7.00,-7.00,-19.00,-4.00,-4.00,-7.00,-2.00,-3.00,+9.00
-9.00,+29.00,-11.00,-16.00,-6.00,-5.00,-2.00,-12.00,-33.00,+38.00,+7.00,-3.00,-3.00,-3.00,+8.00,-7.00
+6.00,+14.00,-17.00,-6.00,-2.00,-1.00,-5.00,-3.00,-23.00,-20.00,+0.00,+2.00,+2.00,+1.00,-2.00,+7.00
+8.00,+42.00,+29.00,+8.00,+3.00,+6.00,+10.00,+26.00,-9.00,-18.00,-13.00,-6.00,-3.00,-3.00,-7.00,-1.00
-7.00,+3.00,-7.00,-9.00,-7.00,-5.00,-2.00,+0.00,+2.00,-7.00,-11.00,-3.00,-1.00,-3.00,-2.00,+4.00
-3.00,-30.00,-2.00,+5.00,-1.00,+0.00,-1.00,-2.00,+10.00,+85.00,+41.00,+7.00,+2.00,-4.00,+2.00,-3.00
+14.00,-13.00,-14.00,+3.00,+1.00,+0.00,-4.00,+3.00,-2.00,-56.00,-21.00,-4.00,-5.00,+0.00,-5.00,-5.00
+5.00,+85.00,+16.00,-13.00,-5.00,-5.00,-1.00,-11.00,-39.00,+14.00,+10.00,+11.00,+5.00,+5.00,+2.00,-12.00
+17.00,-52.00,+17.00,+22.00,+12.00,+8.00,+9.00,+11.00,+5.00,+2.00,-9.00,-2.00,-1.00,-2.00,+0.00,+3.00
-11.00,-49.00,-6.00,-3.00,-3.00,-1.00,-1.00,+0.00,+42.00,-4.00,-21.00,-6.00,-6.00,-5.00,+0.00,+9.00
-46.00,-23.00,-12.00,-9.00,-6.00,-8.00,-14.00,-21.00,-25.00,+65.00,+42.00,+7.00,+3.00,+3.00,-8.00,-9.00
+38.00,+29.00,-22.00,+4.00,+5.00,+5.00,+12.00,+14.00,-7.00,-10.00,+2.00,-1.00,-1.00,+0.00,+0.00,+3.00
-9.00,+25.00,-3.00,-11.00,-8.00,-5.00,-2.00,-4.00,-19.00,-23.00,+0.00,+2.00,+1.00,-4.00,-2.00,-5.00
+5.00,+34.00,+4.00,+0.00,+1.00,+3.00,+1.00,+1.00,+0.00,-37.00,-13.00,-4.00,-3.00,-1.00,-1.00,-1.00
-16.00,-14.00,+5.00,+2.00,-1.00,-2.00,-4.00,-1.00,+4.00,-7.00,-10.00,-4.00,-4.00,-3.00,-5.00,-5.00
-6.00,+1.00,+12.00,+0.00,-3.00,-4.00,-1.00,-2.00,+1.00,-18.00,-14.00,-6.00,-3.00,-3.00,+0.00,+0.00
-3.00,+0.00,-4.00,-14.00,-8.00,-6.00,-5.00,-7.00,-9.00,+31.00,+13.00,+3.00,+2.00,+1.00,+3.00,+2.00
+2.00,-14.00,+3.00,+7.00,+3.00,+1.00,+1.00,-1.00,+1.00,-28.00,-9.00,+2.00,+2.00,+4.00,+1.00,+3.00
+5.00,+26.00,-2.00,-3.00,+3.00,+2.00,+2.00,+6.00,+10.00,-3.00,-3.00,+2.00,+4.00,+1.00,-1.00,-1.00
-5.00,-23.00,+13.00,+4.00,+1.00,+2.00,-1.00,-4.00,-5.00,+20.00,+7.00,+0.00,-3.00,+9.00,+4.00,-5.00
-1.00,-4.00,-10.00,-8.00,-2.00,-2.00,-9.00,-20.00,-17.00,-26.00,-12.00,-6.00,-6.00,-8.00,-5.00,-3.00
-12.00,+15.00,-6.00,+4.00,-4.00,+3.00,+5.00,-9.00,+7.00,+10.00,+0.00,-3.00,-3.00,-2.00,-2.00,+5.00
+18.00,-2.00,+6.00,+3.00,+1.00,+2.00,+6.00,+22.00,+6.00,-2.00,+2.00,+2.00,+0.00,-4.00,-5.00,+6.00
+4.00,-1.00,+9.00,+3.00,+0.00,+1.00,+4.00,+13.00,-3.00,-6.00,-8.00,-7.00,-3.00,-3.00,-4.00,-8.00
-11.00,-3.00,-9.00,-8.00,-6.00,-3.00,-1.00,+5.00,-4.00,+9.00,-3.00,-1.00,+0.00,+1.00,-2.00,-3.00
+10.00,+25.00,+1.00,-2.00,-1.00,-4.00,-5.00,-4.00,+4.00,-7.00,+2.00,+2.00,+0.00,+2.00,+4.00,+0.00
-1.00,-24.00,+5.00,+4.00,+0.00,+3.00,-1.00,-8.00,+5.00,+6.00,+5.00,+2.00,+0.00,+2.00,-1.00,+3.00
-5.00,-47.00,+1.00,+3.00,+1.00,+0.00,-1.00,-9.00,-4.00,-18.00,-13.00,-3.00,-3.00,-4.00,-6.00,+0.00
-9.00,+40.00,-7.00,-5.00,-2.00,-4.00,-3.00,-9.00,-2.00,+2.00,+1.00,+1.00,-1.00,+1.00,-1.00,-7.00
+3.00,-7.00,+2.00,+0.00,+2.00,+1.00,-1.00,+2.00,+3.00,+11.00,+2.00,+0.00,+1.00,+0.00,+2.00,+4.00
+11.00,+27.00,+9.00,+0.00,+0.00,+0.00,+1.00,+2.00,+3.00,-2.00,-8.00,-3.00,-3.00,+0.00,-1.00,-1.00
-7.00,-74.00,-17.00,+5.00,+0.00,-2.00,+0.00,-1.00,-9.00,-25.00,-6.00,+1.00,+1.00,-2.00,+0.00,+0.00
+2.00,+30.00,+17.00,+0.00,-1.00,+0.00,+2.00,+1.00,-3.00,-2.00,+3.00,-1.00,+0.00,-2.00,-1.00,-3.00
+4.00,-4.00,-6.00,-10.00,-4.00,-4.00,-1.00,+5.00,-1.00,-5.00,-5.00,-1.00,-1.00,+1.00,-4.00,-3.00
-4.00,+1.00,+0.00,-1.00,-2.00,-2.00,-1.00,+1.00,+8.00,+6.00,-1.00,-4.00,-2.00,-2.00,+0.00,-3.00
-5.00,-3.00,-1.00,-2.00,-1.00,-3.00,-1.00,-5.00,-4.00,-16.00,-4.00,-3.00,-1.00,-3.00,-1.00,+2.00
+3.00,+11.00,+7.00,+2.00,+0.00,+1.00,-1.00,-1.00,+0.00,+12.00,+0.00,+0.00,+2.00,+0.00,+0.00,-1.00
+2.00,-11.00,+2.00,+3.00,+2.00,+1.00,+1.00,+5.00,-2.00,-13.00,-2.00,+0.00,+1.00,+0.00,+0.00,+0.00
+0.00,+6.00,-2.00,-2.00,-1.00,-2.00,-3.00,+1.00,-3.00,-8.00,-2.00,-1.00,-2.00,-1.00,-3.00,-5.00
-3.00,+25.00,+8.00,+1.00,-1.00,+0.00,-1.00,-4.00,+7.00,+16.00,-1.00,-3.00,-1.00,-3.00,-2.00,+3.00
-4.00,-26.00,-8.00,-5.00,-4.00,-1.00,-3.00,-16.00,-4.00,-9.00,-5.00,+1.00,+0.00,+0.00,+0.00,+1.00
+1.00,+16.00,+2.00,-2.00,-2.00,-3.00,+1.00,+6.00,+2.00,-4.00,+1.00,+1.00,-2.00,-2.00,-2.00,-5.00
-1.00,-8.00,+0.00,+0.00,+0.00,-1.00,-1.00,+0.00,-1.00,-7.00,+0.00,+2.00,+0.00,+0.00,+1.00,-2.00
+2.00,+4.00,+4.00,+0.00,+1.00,+1.00,+0.00,+1.00,+0.00,+6.00,-2.00,-2.00,-3.00,-3.00,-4.00,-1.00
-8.00,-20.00,-9.00,-3.00,-4.00,-3.00,-4.00,-2.00,-2.00,-2.00,+0.00,-2.00,-1.00,+0.00,-1.00,-4.00
-2.00,+3.00,+0.00,+1.00,+0.00,-1.00,-2.00,-2.00,-1.00,-7.00,-3.00,-2.00,-1.00,+0.00,+0.00,+0.00
+3.00,-3.00,+2.00,+1.00,+0.00,+0.00,-2.00,-1.00,-3.00,-2.00,-3.00,-1.00,-1.00,+1.00,+0.00,+1.00
-3.00,+5.00,+3.00,+0.00,-1.00,+1.00,-1.00,-5.00,-1.00,-2.00,-1.00,-2.00,+0.00,-2.00,-2.00,+0.00
-1.00,-15.00,-5.00,-3.00,+0.00,-1.00,+0.00,+3.00,+0.00,-1.00,-3.00,-1.00,-1.00,-1.00,-1.00,+0.00
-4.00,+1.00,+3.00,+2.00,-2.00,-2.00,-2.00,-1.00,+0.00,-1.00,+2.00,+1.00,-1.00,-2.00,-1.00,-1.00
+1.00,-6.00,-2.00,+3.00,+2.00,+0.00,+0.00,+3.00,-1.00,-10.00,-7.00,-2.00,+0.00,-1.00,-1.00,+1.00
-3.00,+18.00,+3.00,-6.00,-3.00,-1.00,-2.00,-2.00,+0.00,+5.00,+0.00,-2.00,-2.00,+0.00,-3.00,-1.00
-2.00,-7.00,-7.00,-2.00,-2.00,-1.00,+0.00,+1.00,-3.00,+1.00,-2.00,-2.00,+0.00,+0.00,-2.00,-4.00
+2.00,+1.00,-1.00,+1.00,+0.00,+0.00,+2.00,+2.00,-2.00,-3.00,-1.00,-1.00,-2.00,+0.00,+1.00,+1.00
+0.00,+6.00,+2.00,+0.00,-2.00,-1.00,-1.00,-3.00,-2.00,-5.00,-3.00,-2.00,-3.00,-1.00,-2.00,+0.00
+1.00,+6.00,+1.00,+0.00,-2.00,-1.00,-1.00,-2.00,+1.00,+1.00,+1.00,+0.00,-1.00,-1.00,+0.00,+0.00
-3.00,-8.00,-4.00,-4.00,-2.00,-2.00,-3.00,+2.00,-3.00,+1.00,+0.00,+1.00,-2.00,-1.00,-3.00,-2.00
+3.00,+2.00,-1.00,+0.00,+2.00,-1.00,+1.00,-1.00,-1.00,-6.00,-3.00,-1.00,+2.00,-2.00,-2.00,-1.00
+2.00,+5.00,+0.00,+2.00,-1.00,-1.00,+0.00,+1.00,-2.00,-3.00,+0.00,+4.00,+4.00,+0.00,+0.00,-2.00
+0.00,+4.00,+0.00,-1.00,-3.00,+2.00,-1.00,-3.00,-5.00,+2.00,+1.00,-2.00,-4.00,-2.00,-2.00,-2.00
+0.00,-13.00,-5.00,+1.00,+3.00,+1.00,+1.00,+1.00,+0.00,-4.00,-2.00,-4.00,-1.00,-1.00,-1.00,+0.00
-3.00,+1.00,-5.00,-4.00,+0.00,-3.00,-1.00,-3.00,-1.00,-1.00,-1.00,+0.00,-3.00,-1.00,-1.00,-2.00
-3.00,-3.00,-2.00,-1.00,-2.00,-2.00,-3.00,+1.00,-1.00,-3.00,-1.00,-3.00,+3.00,+2.00,-1.00,+2.00
-2.00,-2.00,+0.00,-1.00,-5.00,-9.00,-2.00,-1.00,-1.00,+2.00,-1.00,+1.00,+1.00,-5.00,-1.00,-1.00
+0.00,-5.00,-2.00,-1.00,+0.00,-1.00,+2.00,+1.00,-3.00,+0.00,-2.00,+1.00,+0.00,-3.00,-4.00,-4.00
+1.00,+4.00,+1.00,-2.00,-5.00,-2.00,-3.00,-6.00,+1.00,+0.00,+2.00,+2.00,+10.00,+1.00,+0.00,-1.00
+5.00,-1.00,+1.00,+0.00,+1.00,+13.00,+2.00,+10.00,-2.00,-1.00,+0.00,+3.00,+15.00,+2.00,+3.00,-4.00
-3.00,+0.00,+1.00,-1.00,+2.00,+16.00,-3.00,-10.00,+4.00,+5.00,+5.00,+6.00,+17.00,+11.00,+4.00,+9.00
-1.00,-2.00,+1.00,+0.00,+0.00,-33.00,+3.00,+14.00,-2.00,-2.00,-1.00,-10.00,-31.00,-11.00,-4.00,+2.00
-1.00,+1.00,+0.00,+2.00,+7.00,+5.00,+5.00,+4.00,-3.00,-4.00,-2.00,-11.00,-9.00,-10.00,+1.00,-6.00
+5.00,-3.00,-2.00,-3.00,-8.00,-15.00,-1.00,-3.00,+0.00,-2.00,-1.00,-4.00,-19.00,+0.00,-2.00,-1.00
+1.00,+4.00,+0.00,-1.00,-12.00,+22.00,-2.00,-1.00,+0.00,-1.00,-4.00,+7.00,+65.00,+11.00,+1.00,+6.00
-4.00,-3.00,-3.00,-6.00,-13.00,-73.00,-7.00,-10.00,-5.00,-6.00,-7.00,-31.00,-83.00,-24.00,-8.00,-7.00
-7.00,-6.00,-4.00,+1.00,+27.00,+50.00,-5.00,+1.00,-3.00,-3.00,-1.00,-3.00,+4.00,-1.00,-8.00,-7.00
-1.00,-1.00,-1.00,-1.00,-5.00,-16.00,-1.00,-1.00,+1.00,-2.00,+0.00,-6.00,-8.00,-6.00,+1.00,-3.00
-1.00,+1.00,+1.00,+1.00,+11.00,+2.00,+2.00,-1.00,-3.00,-2.00,-2.00,-3.00,+2.00,-1.00,-2.00,-3.00
-2.00,-4.00,-4.00,-2.00,-13.00,+19.00,-4.00,-8.00,-1.00,+3.00,+4.00,+16.00,+41.00,+11.00,+6.00,+2.00
+2.00,+1.00,+1.00,-1.00,-14.00,-11.00,+1.00,+3.00,+0.00,-2.00,-3.00,-5.00,-19.00,-1.00,-1.00,+0.00
-4.00,-4.00,-3.00,-2.00,+10.00,+4.00,-3.00,-5.00,-1.00,-3.00,-2.00,-2.00,-5.00,-2.00,-1.00,+0.00
-1.00,+0.00,-1.00,-3.00,-9.00,+0.00,-2.00,+0.00,+2.00,-1.00,-1.00,+2.00,-8.00,-3.00,-3.00,+0.00
-2.00,-3.00,-3.00,+0.00,+1.00,+24.00,+1.00,+0.00,+0.00,+0.00,+3.00,+6.00,+21.00,+6.00,-3.00,-4.00
+1.00,+2.00,+1.00,+0.00,-3.00,-19.00,-1.00,+2.00,+0.00,-1.00,+1.00,+0.00,-6.00,-1.00,+3.00,-3.00
-1.00,+3.00,+3.00,-1.00,-1.00,+14.00,+0.00,-2.00,-5.00,-4.00,+3.00,+7.00,+21.00,+2.00,-1.00,+4.00
+2.00,-4.00,-1.00,+1.00,-2.00,-15.00,+0.00,+1.00,+2.00,-1.00,-5.00,+8.00,+44.00,+4.00,+2.00,+5.00
+0.00,+2.00,+1.00,-1.00,-4.00,+25.00,-1.00,-10.00,+0.00,+2.00,+0.00,-9.00,-40.00,-2.00,-1.00,+1.00
+1.00,+0.00,-1.00,-1.00,+15.00,+9.00,-2.00,+12.00,+1.00,+1.00,-2.00,-2.00,-19.00,+2.00,-3.00,-3.00
-8.00,-3.00,+0.00,+0.00,+14.00,+32.00,-1.00,-14.00,-2.00,+0.00,+0.00,-10.00,-23.00,-10.00,-6.00,-7.00
+2.00,-1.00,+1.00,+2.00,-4.00,-39.00,+4.00,+18.00,-6.00,-8.00,-6.00,-21.00,-70.00,-18.00,-5.00,-11.00
-3.00,-3.00,-3.00,-2.00,+4.00,+10.00,-2.00,-11.00,+0.00,+2.00,+1.00,+9.00,+31.00,+4.00,+5.00,+7.00
+1.00,+0.00,+0.00,+1.00,-12.00,+1.00,+0.00,+1.00,+0.00,+0.00,+2.00,+10.00,+30.00,+6.00,+7.00,+10.00
+2.00,-1.00,-1.00,-1.00,-1.00,+5.00,-1.00,-3.00,-2.00,-1.00,-1.00,+1.00,+11.00,+3.00,+3.00,+1.00
-3.00,-2.00,-1.00,-1.00,+3.00,+7.00,-2.00,-11.00,-2.00,+0.00,+3.00,+6.00,-3.00,-1.00,-2.00,-4.00
-2.00,-3.00,-2.00,+1.00,+2.00,+16.00,+1.00,+13.00,-2.00,-4.00,+0.00,+3.00,+25.00,+3.00,-6.00,-9.00
+2.00,-1.00,-1.00,-3.00,-8.00,-13.00,-1.00,+3.00,-4.00,-1.00,-4.00,+0.00,-8.00,+0.00,-2.00,-3.00
+2.00,-1.00,-1.00,-1.00,-1.00,-6.00,+3.00,+4.00,-2.00,+1.00,-3.00,-1.00,+0.00,-3.00,+0.00,+3.00
-2.00,+0.00,-2.00,-2.00,+2.00,+2.00,-1.00,-7.00,-3.00,-2.00,+0.00,-5.00,-2.00,-1.00,+2.00,-1.00
-6.00,-4.00,-1.00,-3.00,-5.00,-9.00,-4.00,-13.00,+0.00,-1.00,+0.00,+3.00,-4.00,+2.00,+3.00,+1.00
+0.00,+2.00,-2.00,-2.00,-1.00,-9.00,-2.00,-7.00,-6.00,-3.00,+1.00,-5.00,+10.00,-4.00,-8.00,-5.00
+4.00,+1.00,-2.00,+2.00,+0.00,-6.00,+0.00,+8.00,-2.00,-4.00,-5.00,-4.00,-7.00,-4.00,-9.00,-9.00
+0.00,-2.00,-3.00,-3.00,-2.00,-20.00,-4.00,-4.00,-1.00,+0.00,+0.00,+0.00,-10.00,-2.00,+0.00,-2.00
+5.00,+2.00,+2.00,+2.00,+5.00,+24.00,+3.00,+4.00,+1.00,+1.00,+1.00,+2.00,+6.00,+1.00,-2.00,-3.00
+1.00,+1.00,+3.00,+1.00,-5.00,-29.00,+1.00,-5.00,+2.00,-1.00,-1.00,+1.00,+2.00,+2.00,+5.00,+12.00
-7.00,-2.00,-1.00,+0.00,-7.00,-4.00,-2.00,-18.00,-2.00,+1.00,-1.00,-2.00,+0.00,+2.00,+3.00,+5.00
+6.00,+0.00,-1.00,-1.00,+1.00,+6.00,+4.00,+19.00,-1.00,+0.00,-3.00,-4.00,-19.00,-3.00,-3.00,+0.00
-4.00,-1.00,+1.00,+1.00,+7.00,+5.00,-2.00,-14.00,-2.00,-3.00,-3.00,+3.00,+30.00,+3.00,+0.00,-2.00
-1.00,-2.00,+0.00,-1.00,-4.00,+2.00,+0.00,+6.00,-2.00,+0.00,-1.00,+2.00,-3.00,-3.00,-8.00,-7.00
-2.00,-2.00,-2.00,-2.00,-14.00,-13.00,-1.00,+1.00,-1.00,-2.00,-2.00,-4.00,-9.00,-1.00,+0.00,-3.00
-3.00,+0.00,+1.00,+0.00,+12.00,+8.00,-1.00,-8.00,-2.00,+0.00,-2.00,-4.00,-3.00,-2.00,-3.00,-4.00
+0.00,-4.00,-4.00,-1.00,-1.00,-7.00,-1.00,+5.00,+0.00,-1.00,-1.00,-1.00,-2.00,-1.00,+1.00,+1.00
-5.00,+0.00,+0.00,+0.00,-2.00,+7.00,-2.00,-9.00,+1.00,-1.00,-1.00,+6.00,+24.00,+3.00,+2.00,-1.00
-5.00,-3.00,-2.00,-1.00,-2.00,+1.00,-2.00,+1.00,-2.00,+0.00,+1.00,-5.00,-25.00,+0.00,+2.00,+1.00
+0.00,-1.00,+0.00,-1.00,-4.00,+0.00,+0.00,+2.00,+1.00,+1.00,+2.00,+4.00,+30.00,+0.00,+0.00,+0.00
-1.00,+1.00,+0.00,-2.00,-1.00,-20.00,-2.00,+0.00,-1.00,-2.00,-1.00,+1.00,-31.00,-2.00,-2.00,-1.00
-4.00,-2.00,-1.00,+0.00,+1.00,-11.00,+1.00,-4.00,+1.00,-1.00,+0.00,-6.00,-2.00,-2.00,-1.00,-2.00
+0.00,-1.00,-2.00,-1.00,+7.00,+17.00,+1.00,+1.00,-1.00,+0.00,+0.00,+2.00,+10.00,+0.00,-1.00,-4.00
+1.00,-2.00,-2.00,-2.00,-5.00,-17.00,-1.00,+2.00,+0.00,+2.00,+0.00,-3.00,+0.00,+2.00,-1.00,-2.00
+0.00,-2.00,+0.00,+2.00,-3.00,-10.00,-2.00,-1.00,-2.00,-2.00,-1.00,+2.00,+5.00,-1.00,+2.00,+3.00
+0.00,+1.00,-1.00,-2.00,-2.00,+5.00,+0.00,+6.00,+0.00,-1.00,-1.00,+1.00,+8.00,+1.00,-2.00,+4.00
-1.00,+0.00,+0.00,-1.00,-3.00,-12.00,+0.00,-7.00,+0.00,-3.00,-3.00,-1.00,-1.00,-1.00,-3.00,-6.00
+1.00,-1.00,+0.00,-1.00,+1.00,+9.00,+0.00,+8.00,-2.00,-1.00,-2.00,+0.00,-6.00,-3.00,+0.00,-3.00
+0.00,-1.00,-1.00,-1.00,+1.00,+7.00,+0.00,+5.00,+0.00,-2.00,-1.00,+1.00,+6.00,+0.00,+0.00,-1.00
+0.00,-4.00,-2.00,+0.00,-3.00,-6.00,-4.00,-11.00,-2.00,-1.00,+0.00,-1.00,-8.00,-2.00,+3.00,+1.00
+0.00,+0.00,-1.00,-2.00,-2.00,-2.00,-2.00,-8.00,-1.00,-1.00,-2.00,+2.00,+14.00,+0.00,-3.00,-4.00
-1.00,+2.00,+1.00,-1.00,-2.00,+3.00,+1.00,+20.00,-1.00,-4.00,-2.00,-4.00,-26.00,-3.00,-6.00,-3.00
-2.00,-1.00,-2.00,-1.00,+2.00,+5.00,+0.00,+2.00,-1.00,-2.00,-2.00,-6.00,+4.00,-1.00,-4.00,-7.00
+1.00,-3.00,-4.00,-3.00,-2.00,+6.00,+0.00,-3.00,-1.00,+1.00,+0.00,-4.00,-12.00,-1.00,+8.00,+0.00
-1.00,-3.00,+0.00,-1.00,+0.00,-10.00,+0.00,-4.00,-2.00,+0.00,+3.00,+3.00,+2.00,-1.00,+2.00,+10.00
+0.00,+2.00,+1.00,+0.00,+0.00,+8.00,-1.00,-10.00,+0.00,-1.00,+0.00,-1.00,+3.00,-1.00,+2.00,+6.00
-5.00,-1.00,-1.00,-1.00,-3.00,-6.00,-2.00,+3.00,-4.00,+0.00,-1.00,-1.00,-2.00,-1.00,-5.00,-4.00
+2.00,-1.00,-2.00,-2.00,-1.00,+2.00,-2.00,+0.00,+0.00,-1.00,-2.00,+1.00,+6.00,+2.00,+0.00,+1.00
-8.00,+0.00,+1.00,+0.00,-2.00,-4.00,-2.00,+3.00,-1.00,-2.00,-1.00,+4.00,-3.00,-1.00,+0.00,-6.00
-3.00,-2.00,-2.00,-2.00,+1.00,-1.00,+0.00,-5.00,-2.00,+2.00,+1.00,+1.00,-14.00,-1.00,+0.00,-3.00
+1.00,-3.00,-3.00,-2.00,+6.00,+25.00,+0.00,+1.00,+1.00,+1.00,-4.00,-5.00,+16.00,-3.00,-1.00,+0.00
+0.00,+3.00,+2.00,-2.00,-6.00,-28.00,-1.00,-2.00,+0.00,-1.00,+0.00,-8.00,-14.00,-4.00,-4.00,-2.00
-1.00,-1.00,+0.00,-1.00,-3.00,+4.00,-3.00,+1.00,+0.00,-2.00,-1.00,-2.00,+5.00,-1.00,-1.00,+1.00
-2.00,-3.00,-3.00,-2.00,-7.00,-6.00,+0.00,-6.00,-2.00,-2.00,+1.00,+1.00,-4.00,+0.00,-1.00,+0.00
+2.00,-1.00,-2.00,+0.00,+4.00,-1.00,+1.00,+2.00,+0.00,-1.00,+0.00,+0.00,+4.00,-1.00,+1.00,+1.00
-3.00,+2.00,-1.00,+0.00,-1.00,+6.00,-1.00,-1.00,-2.00,-3.00,-2.00,+1.00,+4.00,-1.00,-2.00,-2.00
+4.00,+1.00,-3.00,-2.00,-3.00,+0.00,+0.00,+7.00,-2.00,+0.00,-3.00,-2.00,+2.00,+0.00,+0.00,-1.00
-2.00,-1.00,-2.00,+0.00,+3.00,+1.00,-2.00,-6.00,-2.00,-1.00,-1.00,+0.00,+2.00,-1.00,+1.00,-4.00
+1.00,+0.00,-1.00,-1.00,-4.00,-6.00,-1.00,-9.00,+0.00,-2.00,-3.00,-1.00,-1.00,-1.00,+0.00,+3.00
-5.00,-2.00,-2.00,-2.00,+0.00,+6.00,+0.00,+15.00,-3.00,-2.00,-1.00,-2.00,-2.00,-1.00,-6.00,-2.00
-2.00,-1.00,+1.00,+0.00,-3.00,-4.00,-2.00,-7.00,-2.00,-2.00,+0.00,+2.00,-6.00,+0.00,-1.00,-1.00
-2.00,+0.00,-1.00,-1.00,+2.00,+1.00,-2.00,+5.00,-1.00,+0.00,-2.00,-1.00,+3.00,+1.00,+1.00,-3.00
+2.00,-1.00,+0.00,-1.00,+5.00,+7.00,-2.00,-6.00,-2.00,-1.00,+1.00,+1.00,-11.00,-1.00,+1.00,+0.00
-1.00,-2.00,+1.00,+0.00,+0.00,-6.00,+0.00,-12.00,-1.00,-1.00,-2.00,-1.00,+9.00,-1.00,-6.00,-1.00
-3.00,-3.00,-2.00,-3.00,+1.00,-8.00,-2.00,+8.00,+0.00,+1.00,-1.00,-1.00,-6.00,-1.00,-2.00,+1.00
-1.00,+0.00,-1.00,-1.00,+2.00,-2.00,-1.00,-6.00,+0.00,-2.00,-3.00,-4.00,-2.00,-2.00,-4.00,-3.00
-4.00,+0.00,+0.00,-3.00,-12.00,-10.00,+0.00,+1.00,-7.00,+0.00,+3.00,-2.00,-6.00,-1.00,-3.00,-11.00
+3.00,-3.00,-4.00,+0.00,+2.00,+4.00,-1.00,-4.00,-2.00,-2.00,+3.00,+6.00,+23.00,+1.00,+2.00,+1.00
-4.00,-2.00,-3.00,+1.00,+0.00,+29.00,-1.00,-5.00,+0.00,+0.00,-2.00,-1.00,-18.00,-1.00,-1.00,+1.00
-3.00,+1.00,+1.00,-1.00,-4.00,-27.00,-3.00,-2.00,+1.00,-1.00,-2.00,-1.00,-5.00,+0.00,+0.00,+2.00
+1.00,+0.00,+0.00,-3.00,+3.00,+10.00,+3.00,+7.00,-1.00,-2.00,-1.00,-2.00,-8.00,-3.00,-1.00,-1.00
+0.00,-5.00,-1.00,-1.00,-4.00,-5.00,-3.00,-3.00,-1.00,-1.00,+0.00,-1.00,-2.00,+0.00,-1.00,-4.00
+2.00,+0.00,-2.00,+0.00,-6.00,-17.00,-2.00,-3.00,+0.00,+0.00,+3.00,+3.00,+13.00,+3.00,-1.00,-1.00
+1.00,+0.00,+3.00,+2.00,+5.00,+15.00,+0.00,+6.00,-2.00,-4.00,-3.00,-4.00,-12.00,-2.00,-3.00,-1.00
-1.00,-1.00,-1.00,-1.00,+4.00,-4.00,-1.00,+2.00,+0.00,-2.00,-3.00,-2.00,+0.00,+0.00,+3.00,+3.00
-4.00,+0.00,-2.00,+1.00,-1.00,+3.00,-2.00,-1.00,-1.00,-2.00,-1.00,+0.00,-2.00,-1.00,-2.00,-2.00
+0.00,-1.00,+0.00,-1.00,+2.00,-5.00,-1.00,+3.00,+0.00,-4.00,-4.00,-4.00,+4.00,-2.00,+1.00,+2.00
-3.00,-3.00,-3.00,-2.00,-5.00,+0.00,-2.00,-13.00,-2.00,+0.00,+0.00,+1.00,+2.00,-2.00,+1.00,-2.00
+0.00,+1.00,+1.00,+0.00,-5.00,-8.00,-2.00,-6.00,+0.00,-2.00,+0.00,+3.00,+19.00,+2.00,+0.00,+3.00
+1.00,-1.00,+0.00,+0.00,-2.00,+10.00,+1.00,+16.00,-2.00,-1.00,-3.00,-4.00,-19.00,-2.00,-2.00,-1.00
+0.00,+0.00,-1.00,+0.00,-4.00,-15.00,-1.00,-3.00,-3.00,+0.00,+0.00,-1.00,+4.00,-2.00,-2.00,-3.00
-2.00,-2.00,-1.00,-2.00,-1.00,+5.00,-2.00,-4.00,-1.00,+0.00,-3.00,-4.00,-10.00,-1.00,-2.00,-1.00
-5.00,-4.00,-2.00,-2.00,-3.00,+2.00,+0.00,+2.00,+0.00,-1.00,-2.00,-2.00,+7.00,-2.00,-2.00,+0.00
-3.00,+0.00,-1.00,-2.00,+2.00,+17.00,-4.00,-8.00,+0.00,-2.00,+0.00,+10.00,+27.00,+1.00,+2.00,+1.00
+3.00,+2.00,-1.00,+0.00,+12.00,-8.00,+3.00,+5.00,+0.00,+0.00,-1.00,-8.00,-51.00,-2.00,-2.00,-2.00
-3.00,-1.00,+0.00,+0.00,-14.00,+1.00,+0.00,+0.00,-1.00,-3.00,-2.00,+7.00,+30.00,+1.00,+0.00,+1.00
+1.00,+0.00,-1.00,+0.00,+2.00,-26.00,+1.00,+0.00,+1.00,-4.00,-5.00,-13.00,-24.00,-5.00,-3.00,-1.00
-2.00,+0.00,-2.00,+1.00,+5.00,-4.00,-2.00,-5.00,-1.00,+0.00,-1.00,-2.00,-10.00,-1.00,-1.00,-3.00
+3.00,+0.00,+0.00,+1.00,-1.00,+20.00,+0.00,+5.00,-3.00,+2.00,+0.00,-1.00,+11.00,-1.00,+0.00,-2.00
-1.00,-4.00,-2.00,-2.00,+6.00,+5.00,-1.00,-4.00,+0.00,-1.00,+0.00,+3.00,+10.00,+1.00,+1.00,+4.00
+0.00,+14.00,+1.00,-2.00,-4.00,-3.00,-2.00,-2.00,-2.00,+0.00,+2.00,+5.00,+0.00,+1.00,+1.00,-1.00
+1.00,-8.00,+1.00,+0.00,-4.00,+1.00,+1.00,-1.00,-3.00,-1.00,+0.00,-2.00,-13.00,-2.00,-2.00,-3.00
+2.00,+1.00,+1.00,+3.00,+5.00,-6.00,+1.00,+5.00,+1.00,-1.00,-2.00,+2.00,+18.00,+0.00,+0.00,+1.00
+3.00,-6.00,-1.00,+2.00,+0.00,-4.00,+0.00,-1.00,+7.00,+17.00,+1.00,-6.00,-19.00,-5.00,-4.00,-4.00
-8.00,-39.00,-11.00,-8.00,-6.00,+1.00,-3.00,-1.00,-2.00,+5.00,-1.00,+0.00,+8.00,-2.00,+0.00,+0.00
-2.00,+28.00,-4.00,-5.00,-2.00,-6.00,-2.00,-3.00,-17.00,-38.00,-1.00,-1.00,-8.00,+0.00,+1.00,-3.00
+15.00,+77.00,+22.00,+0.00,+5.00,+10.00,+0.00,+3.00,-1.00,-3.00,+0.00,+2.00,+1.00,-2.00,+0.00,-1.00
-2.00,+2.00,+0.00,+0.00,-8.00,-15.00,-2.00,-2.00,-4.00,-11.00,-4.00,-2.00,-2.00,-2.00,-1.00,-2.00
+0.00,-4.00,+9.00,+7.00,+0.00,+3.00,-1.00,+3.00,+6.00,+10.00,-1.00,-1.00,-6.00,+0.00,-3.00,+0.00
-4.00,-22.00,-6.00,-2.00,-1.00,+3.00,+0.00,-2.00,+7.00,+14.00,+1.00,+2.00,+14.00,-1.00,+0.00,+3.00
-10.00,-24.00,-8.00,-1.00,+0.00,-4.00,-1.00,-8.00,-2.00,-4.00,-2.00,-9.00,-28.00,-5.00,+0.00,-3.00
+3.00,-10.00,-4.00,-1.00,+2.00,+7.00,-3.00,-14.00,+10.00,+27.00,+5.00,+0.00,+9.00,-2.00,-3.00,-2.00
-5.00,-49.00,-29.00,-6.00,-10.00,-10.00,-1.00,+22.00,-10.00,-21.00,-8.00,-4.00,-30.00,-3.00,-4.00,-1.00
+6.00,+27.00,+35.00,+4.00,+9.00,+17.00,+2.00,+1.00,-4.00,-11.00,-2.00,-1.00,-20.00,+1.00,-1.00,-2.00
+3.00,-24.00,-2.00,+2.00,+3.00,+2.00,+1.00,+0.00,-3.00,-11.00,-4.00,+0.00,+30.00,-2.00,-3.00,-4.00
+5.00,-8.00,+1.00,-4.00,-5.00,-18.00,-1.00,-1.00,-5.00,-5.00,-1.00,+1.00,+2.00,+0.00,+4.00,-1.00
-4.00,-16.00,-3.00,+4.00,-1.00,+0.00,-5.00,-21.00,+10.00,+12.00,-4.00,-8.00,-14.00,-2.00,+2.00,+8.00
-17.00,-35.00,-16.00,-6.00,-4.00,-9.00,-5.00,-1.00,+6.00,+20.00,+2.00,-2.00,+1.00,+0.00,-5.00,-5.00
-8.00,-13.00,-5.00,+0.00,-6.00,-8.00,-1.00,-5.00,+6.00,+10.00,+7.00,+4.00,+2.00,+0.00,-5.00,-1.00
-2.00,-5.00,-24.00,-3.00,+1.00,+32.00,+3.00,+27.00,-12.00,-1.00,-4.00,-5.00,-4.00,-4.00,-6.00,-3.00
+9.00,+19.00,+17.00,-3.00,+2.00,+13.00,+3.00,+5.00,-8.00,-21.00,-4.00,-5.00,-16.00,-1.00,+2.00,-1.00
+7.00,+40.00,+0.00,-8.00,-6.00,-23.00,+1.00,-3.00,+0.00,-2.00,-3.00,-7.00,-28.00,-4.00,+3.00,-1.00
-1.00,-8.00,+5.00,-1.00,-1.00,+0.00,-3.00,-11.00,+2.00,+3.00,+0.00,-2.00,+2.00,+1.00,-1.00,+3.00
-7.00,-9.00,-2.00,-1.00,+0.00,-9.00,-1.00,-8.00,+2.00,-2.00,+4.00,+0.00,+3.00,-1.00,-4.00,-1.00
-3.00,+14.00,-2.00,-2.00,+1.00,+9.00,-2.00,-2.00,-3.00,-3.00,+1.00,+5.00,+19.00,+3.00,-2.00,-2.00
+1.00,-2.00,+0.00,+5.00,-1.00,+3.00,-1.00,-2.00,+0.00,-2.00,-6.00,-3.00,-3.00,-1.00,-1.00,+1.00
-2.00,-11.00,-4.00,-1.00,-1.00,-9.00,-3.00,-3.00,+0.00,+2.00,-2.00,-1.00,+0.00,+0.00,+2.00,-1.00
-9.00,+1.00,+4.00,+0.00,-1.00,+2.00,-2.00,+2.00,-5.00,-11.00,-3.00,-1.00,-6.00,+1.00,+1.00,+0.00
+0.00,+16.00,+3.00,+2.00,+1.00,-4.00,-2.00,+3.00,-4.00,-1.00,+1.00,+1.00,+4.00,-2.00,-2.00,-4.00
+3.00,-8.00,+0.00,+1.00,+2.00,-2.00,-1.00,-3.00,+2.00,+7.00,-1.00,-4.00,+0.00,-1.00,-2.00,-1.00
-6.00,-14.00,-11.00,-6.00,-5.00,-5.00,-2.00,+6.00,-5.00,-4.00,-5.00,+2.00,+7.00,-1.00,-3.00,-4.00
+6.00,+7.00,+6.00,+4.00,+4.00,+6.00,+0.00,-3.00,+1.00,-11.00,-4.00,-3.00,-11.00,-1.00,+0.00,+4.00
-6.00,+10.00,+6.00,+0.00,+0.00,-1.00,+0.00,-3.00,-1.00,+3.00,+9.00,+4.00,+7.00,-1.00,-3.00,-3.00
+1.00,-16.00,-10.00,-9.00,-4.00,-4.00,+0.00,+0.00,+0.00,+4.00,+1.00,-3.00,+1.00,-3.00,-1.00,-2.00
+0.00,-2.00,-7.00,-4.00,-5.00,+1.00,-1.00,+2.00,-3.00,-5.00,-6.00,-2.00,-2.00,-1.00,+0.00,+2.00
-3.00,+9.00,+6.00,-2.00,+0.00,-1.00,-1.00,-2.00,+0.00,-4.00,-4.00,-2.00,-10.00,-1.00,+1.00,+0.00
+2.00,+4.00,+2.00,+3.00,+2.00,-5.00,-2.00,-8.00,+1.00,+5.00,+1.00,+2.00,+5.00,+0.00,+1.00,-3.00
-4.00,-11.00,-1.00,+2.00,-1.00,+2.00,-2.00,-9.00,-3.00,+0.00,-2.00,+1.00,+1.00,-1.00,-3.00,-3.00
+1.00,+0.00,-1.00,-1.00,-3.00,-3.00,-1.00,+16.00,-7.00,-6.00,-2.00,-1.00,-2.00,-2.00,-5.00,-8.00
+2.00,+4.00,+7.00,+2.00,+1.00,-2.00,-2.00,-15.00,-1.00,-4.00,+5.00,-2.00,-5.00,-1.00,-1.00,+0.00
-1.00,-4.00,-12.00,-14.00,-4.00,-3.00,-1.00,+0.00,+3.00,+2.00,-1.00,-1.00,+10.00,+1.00,+0.00,+3.00
-3.00,-2.00,-4.00,-2.00,-1.00,+2.00,+2.00,-1.00,+0.00,+1.00,+1.00,-1.00,-2.00,+0.00,+2.00,+3.00
+1.00,+2.00,+2.00,+0.00,-1.00,+0.00,+2.00,-1.00,+2.00,+1.00,-1.00,+0.00,+0.00,+0.00,+0.00,+0.00
-2.00,-1.00,+0.00,+2.00,+1.00,-3.00,+0.00,-3.00,-2.00,-2.00,-4.00,-2.00,+0.00,+0.00,+0.00,-2.00
+0.00,+6.00,+3.00,+5.00,+2.00,+2.00,+0.00,-3.00,-9.00,-5.00,-4.00,+0.00,+2.00,+0.00,-3.00,-2.00
+1.00,+0.00,+1.00,+0.00,-1.00,+0.00,-2.00,+3.00,+8.00,-2.00,+1.00,-1.00,-3.00,-1.00,-1.00,+0.00
-1.00,-8.00,-4.00,-3.00,-2.00,-2.00,-1.00,-6.00,+1.00,+2.00,-1.00,+1.00,-2.00,+0.00,+2.00,+0.00
+0.00,-2.00,-1.00,-3.00,-1.00,-1.00,+0.00,+1.00,-3.00,-2.00,-1.00,-2.00,-1.00,-2.00,-2.00,-3.00
-1.00,+3.00,+1.00,+0.00,-2.00,-2.00,-1.00,-1.00,-3.00,-2.00,-5.00,-1.00,+0.00,-1.00,-1.00,-2.00
-1.00,-2.00,-3.00,+1.00,+1.00,-1.00,-2.00,+2.00,-3.00,-2.00,-6.00,+0.00,+1.00,-2.00,-2.00,-1.00
-4.00,+0.00,+4.00,+9.00,+1.00,-2.00,-1.00,-4.00,-2.00,-1.00,+2.00,+0.00,+1.00,-2.00,+0.00,+0.00
+5.00,-6.00,-3.00,-6.00,-3.00,+0.00,+1.00,+3.00,-6.00,-2.00,-1.00,-6.00,-5.00,-3.00,-2.00,-9.00
-2.00,-3.00,-11.00,-18.00,-6.00,-2.00,-2.00,+1.00,+4.00,+1.00,+2.00,-2.00,+0.00,+0.00,+0.00,+4.00
-4.00,-9.00,-11.00,-9.00,-5.00,-3.00,-2.00,-7.00,-6.00,-11.00,-4.00,-2.00,+1.00,-3.00,+2.00,+1.00
-6.00,+4.00,+0.00,-1.00,+0.00,-1.00,-5.00,-20.00,+19.00,+20.00,+4.00,+1.00,-1.00,+0.00,-2.00,+5.00
+0.00,+2.00,+4.00,+5.00,+4.00,+1.00,+2.00,+21.00,-5.00,+1.00,-4.00,+2.00,-2.00,+0.00,-9.00,-2.00
+6.00,-2.00,+5.00,+11.00,+3.00,+1.00,+2.00,+19.00,-4.00,-3.00,-2.00,-1.00,+0.00,-1.00,-2.00,-10.00
+4.00,+0.00,+3.00,+5.00,+0.00,+0.00,+0.00,+4.00,-5.00,-3.00,-3.00,+0.00,+2.00,+0.00,+1.00,-2.00
+0.00,-8.00,+0.00,-2.00,+1.00,-1.00,-1.00,-4.00,-3.00,-8.00,-5.00,-3.00,-1.00,+1.00,+6.00,+9.00
-7.00,+3.00,-1.00,-1.00,-1.00,-1.00,-1.00,-14.00,+3.00,+4.00,+0.00,-1.00,-3.00,+1.00,+2.00,+1.00
+1.00,+4.00,+2.00,+2.00,+1.00,-1.00,-1.00,-4.00,+2.00,+0.00,-4.00,+1.00,+1.00,+1.00,-1.00,+1.00
-2.00,+1.00,+2.00,+6.00,+2.00,+1.00,+0.00,+0.00,-7.00,-8.00,+0.00,+0.00,-2.00,+1.00,-3.00,-3.00
+7.00,-2.00,-8.00,+3.00,-3.00,-2.00,-1.00,+2.00,-4.00,-3.00,+0.00,-2.00,-3.00,-1.00,-3.00,-4.00
-9.00,-8.00,+4.00,-17.00,-6.00,-4.00,-5.00,-7.00,+4.00,-1.00,+1.00,-1.00,-1.00,-1.00,+0.00,+1.00
+2.00,+2.00,-6.00,-2.00,+0.00,+0.00,-1.00,-2.00,-5.00,-7.00,-1.00,+2.00,+0.00,-1.00,+2.00,+1.00
-4.00,+14.00,+8.00,+2.00,-1.00,-1.00,-3.00,-9.00,-11.00,-15.00,-1.00,-8.00,-3.00,-3.00,+0.00,-3.00
-2.00,+1.00,-10.00,-13.00,-4.00,-3.00,-1.00,-18.00,+14.00,+22.00,+1.00,-3.00,-1.00,-2.00,-5.00,-4.00
+5.00,-13.00,-2.00,+6.00,+2.00,-1.00,+3.00,+49.00,+0.00,+16.00,+0.00,+0.00,-2.00,-3.00,-6.00,-5.00
+7.00,-10.00,+2.00,+0.00,+0.00,-1.00,-1.00,-10.00,+2.00,+1.00,-2.00,+0.00,-1.00,+0.00,+2.00,-2.00
-2.00,-4.00,-3.00,+3.00,+1.00,-2.00,+2.00,+17.00,+3.00,+0.00,-1.00,-1.00,+1.00,+0.00,+0.00,+2.00
-3.00,+5.00,+5.00,+6.00,+1.00,-1.00,+0.00,+5.00,-15.00,-16.00,-3.00,-3.00,-2.00,-1.00,+4.00,-2.00
-3.00,+7.00,-4.00,-3.00,-2.00,-2.00,-2.00,-19.00,-2.00,-10.00,-2.00,-1.00,+0.00,-1.00,+1.00,+2.00
-2.00,+0.00,+3.00,+3.00,+1.00,-1.00,-2.00,-3.00,+0.00,+2.00,-3.00,-3.00,+0.00,-3.00,-2.00,-3.00
+3.00,-4.00,-1.00,+3.00,+0.00,+0.00,+0.00,+2.00,-1.00,+5.00,+1.00,+1.00,-2.00,-1.00,-1.00,-1.00
-2.00,+5.00,-3.00,-7.00,-2.00,-1.00,-1.00,+1.00,-6.00,-6.00,+0.00,-1.00,-1.00,-2.00,-7.00,-7.00
-2.00,-21.00,-6.00,-3.00,-3.00,-3.00,-4.00,-19.00,-1.00,-5.00,-1.00,+0.00,-3.00,+0.00,+7.00,+6.00
-3.00,+3.00,-8.00,-4.00,-1.00,-2.00,-3.00,+7.00,+2.00,-13.00,-4.00,-2.00,-1.00,-2.00,-6.00,-5.00
-8.00,+1.00,+7.00,+1.00,+0.00,-2.00,-4.00,-33.00,+1.00,-1.00,-3.00,+1.00,+2.00,+1.00,-2.00,-12.00
+9.00,+22.00,+18.00,+4.00,+1.00,+2.00,+8.00,+44.00,-6.00,-9.00,+0.00,-1.00,+0.00,-2.00,+2.00,+8.00
+19.00,+28.00,+12.00,+2.00,+2.00,+5.00,+5.00,-8.00,+4.00,-10.00,+0.00,-2.00,-2.00,+2.00,+2.00,+6.00
-5.00,-23.00,-16.00,-6.00,-4.00,-3.00,+0.00,-14.00,-4.00,+16.00,+9.00,+1.00,-2.00,-3.00,-3.00,-6.00
+6.00,-1.00,-1.00,-2.00,+1.00,+2.00,+5.00,+46.00,+5.00,+14.00,+2.00,+0.00,-1.00,-2.00,-2.00,+0.00
-9.00,-5.00,-8.00,-1.00,+1.00,+0.00,-3.00,-17.00,+3.00,-5.00,-4.00,+0.00,+0.00,+1.00,+2.00,+4.00
-6.00,-5.00,-2.00,+4.00,+0.00,-2.00,-2.00,-4.00,-6.00,-4.00,-4.00,-1.00,-1.00,-1.00,+2.00,+5.00
-3.00,+11.00,+6.00,+2.00,+0.00,-2.00,-3.00,-19.00,+2.00,-8.00,-5.00,-1.00,+0.00,+1.00,+1.00,+4.00
-8.00,-11.00,-8.00,-3.00,-2.00,-3.00,-5.00,-18.00,-3.00,-4.00,-2.00,-4.00,-4.00,-1.00,-4.00,-4.00
-5.00,-18.00,-4.00,-2.00,-3.00,-2.00,-2.00,-8.00,-8.00,+0.00,+1.00,-1.00,-1.00,-3.00,-7.00,-9.00
+4.00,+4.00,-5.00,-4.00,-1.00,+0.00,+0.00,+26.00,+4.00,-1.00,+2.00,+0.00,+0.00,-1.00,-2.00,-5.00
-5.00,-19.00,-8.00,+1.00,-1.00,+1.00,-1.00,+6.00,+3.00,+17.00,+1.00,-3.00,-2.00,-2.00,-3.00,-6.00
-6.00,-7.00,-1.00,-6.00,-5.00,-3.00,-3.00,-4.00,-1.00,+0.00,+2.00,+2.00,-1.00,-3.00,+0.00,+0.00
+0.00,-21.00,-15.00,-8.00,-3.00,-3.00,-2.00,+1.00,-21.00,-53.00,-6.00,-2.00,+1.00,+1.00,+1.00,-3.00
+20.00,+85.00,+32.00,+8.00,+4.00,+3.00,+1.00,-12.00,-1.00,-6.00,-7.00,-1.00,-2.00,+0.00,+0.00,+1.00
-11.00,+1.00,+4.00,-2.00,-2.00,-2.00,-1.00,+4.00,+2.00,+25.00,+8.00,+2.00,-1.00,-2.00,-8.00,-12.00
+7.00,-21.00,-8.00,+1.00,+1.00,+0.00,+5.00,+27.00,+7.00,+23.00,+3.00,+0.00,-2.00,+0.00,+10.00,+11.00
+2.00,-12.00,-7.00,-2.00,-1.00,+0.00,+1.00,+3.00,+4.00,+10.00,-1.00,-3.00,-2.00,-2.00,-3.00,-1.00
-12.00,-27.00,-14.00,-4.00,-3.00,-5.00,-4.00,-18.00,-6.00,-6.00,-1.00,+1.00,+1.00,+2.00,-7.00,-9.00
+0.00,+2.00,+2.00,+4.00,-2.00,-4.00,-3.00,+3.00,+0.00,-1.00,+9.00,+0.00,+2.00,+5.00,+21.00,+7.00
-9.00,+4.00,+0.00,-2.00,-3.00,-2.00,-13.00,-92.00,+3.00,-9.00,-6.00,+0.00,-2.00,-7.00,-16.00,+22.00
+5.00,+7.00,+3.00,+1.00,+2.00,+2.00,+11.00,+88.00,-8.00,+7.00,-12.00,-4.00,-2.00,-8.00,-8.00,-22.00
+4.00,-12.00,-13.00,-1.00,+1.00,+3.00,+11.00,+31.00,+4.00,-1.00,-1.00,-1.00,+0.00,-3.00,-4.00,-9.00
+9.00,+14.00,+8.00,+3.00,+3.00,+4.00,+3.00,-2.00,+0.00,-9.00,-2.00,-2.00,-1.00,-1.00,+0.00,+9.00
-2.00,-5.00,-6.00,-5.00,-3.00,-2.00,+0.00,+14.00,-3.00,-2.00,-2.00,-4.00,+0.00,+7.00,+7.00,-5.00
-7.00,+5.00,+1.00,-2.00,-3.00,-3.00,-9.00,-45.00,+0.00,+3.00,+13.00,+1.00,-1.00,+0.00,+3.00,+5.00
-13.00,-15.00,-3.00,+0.00,-1.00,-3.00,-7.00,-25.00,-4.00,+6.00,-7.00,+2.00,-1.00,+0.00,-2.00,-4.00
-3.00,+3.00,-5.00,+6.00,+3.00,+1.00,-1.00,+10.00,-5.00,-13.00,-15.00,-5.00,-4.00,-2.00,-2.00,-6.00
+2.00,-1.00,+10.00,-3.00,-3.00,-2.00,+0.00,+0.00,-2.00,-8.00,-1.00,-6.00,-1.00,-4.00,-5.00,-8.00
-2.00,-5.00,-16.00,-18.00,-2.00,-4.00,-4.00,-19.00,+0.00,+10.00,-4.00,-1.00,+0.00,-1.00,-3.00,+1.00
-4.00,-6.00,-3.00,+0.00,-1.00,-2.00,-1.00,+3.00,-1.00,+2.00,+5.00,-2.00,-2.00,+0.00,+3.00,-1.00
+0.00,+0.00,+0.00,-1.00,-2.00,-2.00,-1.00,-10.00,-2.00,-5.00,+2.00,+0.00,+1.00,+1.00,-3.00,+3.00
+1.00,+8.00,-1.00,+7.00,+2.00,+2.00,+2.00,+15.00,-2.00,+0.00,-1.00,+0.00,-1.00,+0.00,-2.00,-2.00
-2.00,+2.00,+6.00,+9.00,+2.00,+1.00,-1.00,-12.00,+4.00,+1.00,-1.00,-3.00,-1.00,+0.00,+2.00,+1.00
