+4.00,-8.00,-3.00,+0.00,+1.00,+1.00,-2.00,-7.00,+29.00,+16.00,-1.00,-4.00,-2.00,+2.00,+0.00,-4.00
-3.00,+3.00,-4.00,-2.00,-2.00,-2.00,-3.00,-15.00,-6.00,+5.00,+0.00,-2.00,-2.00,-1.00,-1.00,+5.00
-3.00,-5.00,-3.00,-1.00,-1.00,-2.00,-3.00,-3.00,-4.00,+4.00,-1.00,-1.00,+0.00,+0.00,-1.00,-9.00
-2.00,+2.00,-2.00,-1.00,-4.00,-1.00,+6.00,+22.00,+11.00,-7.00,-2.00,-2.00,-1.00,-3.00,+1.00,+6.00
+16.00,+17.00,+3.00,+1.00,+3.00,+2.00,-5.00,+5.00,-16.00,-11.00,+0.00,-1.00,-1.00,-1.00,-2.00,+1.00
-3.00,+3.00,-1.00,+1.00,-2.00,-2.00,+3.00,+3.00,+25.00,+5.00,+0.00,+1.00,-2.00,-5.00,+3.00,+3.00
-12.00,-3.00,+0.00,+0.00,-1.00,+0.00,-1.00,-1.00,-5.00,-2.00,-3.00,-2.00,+0.00,+6.00,+5.00,+4.00
+4.00,+3.00,+0.00,+0.00,+0.00,+0.00,-3.00,+1.00,+12.00,+6.00,-5.00,-4.00,-2.00,-5.00,-5.00,-6.00
+11.00,+4.00,-6.00,-5.00,-4.00,-7.00,-1.00,-19.00,-16.00,-12.00,+1.00,-2.00,+0.00,-1.00,-4.00,-1.00
-11.00,+4.00,-3.00,-3.00,-1.00,-2.00,+0.00,-19.00,-9.00,-6.00,-3.00,-1.00,+0.00,-1.00,+0.00,-5.00
-3.00,-3.00,+5.00,+0.00,+1.00,+2.00,+6.00,+33.00,+3.00,+3.00,+3.00,+2.00,+0.00,+0.00,-2.00,-1.00
+10.00,+4.00,-1.00,-3.00,-2.00,-3.00,-3.00,+4.00,+7.00,+6.00,+0.00,+0.00,+1.00,-3.00,-9.00,-4.00
+0.00,-9.00,+7.00,+1.00,+0.00,-1.00,+3.00,+3.00,+5.00,+2.00,-2.00,+0.00,+2.00,+13.00,+14.00,-5.00
-13.00,+15.00,-5.00,-1.00,+0.00,-1.00,+18.00,-1.00,+0.00,-4.00,-3.00,+0.00,-1.00,-7.00,+0.00,+2.00
+33.00,+10.00,-8.00,-5.00,-2.00,+5.00,-10.00,-9.00,-12.00,-31.00,-3.00,+1.00,-1.00,-15.00,-10.00,+5.00
-20.00,-5.00,-6.00,-2.00,-3.00,-2.00,-14.00,-41.00,+6.00,+2.00,-6.00,-2.00,-1.00,+20.00,+9.00,+11.00
+6.00,+21.00,+12.00,+3.00,+0.00,+0.00,+1.00,+26.00,+5.00,+38.00,+5.00,+2.00,-2.00,+4.00,-5.00,+1.00
-29.00,-13.00,-5.00,-1.00,-3.00,-2.00,+4.00,+32.00,-1.00,-17.00,+4.00,+1.00,+3.00,+13.00,+10.00,-4.00
+0.00,+1.00,+7.00,+0.00,+1.00,-1.00,-14.00,-4.00,-14.00,+6.00,-1.00,-1.00,+3.00,-23.00,-9.00,-1.00
+4.00,-9.00,-6.00,+0.00,+0.00,+2.00,+10.00,+0.00,+8.00,+9.00,+8.00,+3.00,+0.00,-5.00,-10.00,+0.00
-4.00,-6.00,-10.00,-3.00,-2.00,-2.00,-10.00,-26.00,-8.00,-38.00,-12.00,-3.00,-2.00,-2.00,-2.00,+5.00
-30.00,-18.00,+0.00,+1.00,-1.00,+0.00,-8.00,-23.00,-21.00,+0.00,+2.00,+2.00,-4.00,-21.00,-17.00,-13.00
+26.00,+9.00,-1.00,+0.00,+0.00,-4.00,-1.00,+14.00,-6.00,-2.00,-7.00,-4.00,-3.00,+17.00,+18.00,-2.00
-2.00,+13.00,+0.00,-5.00,-1.00,-1.00,-2.00,+2.00,+6.00,-7.00,-2.00,+0.00,+1.00,+14.00,+0.00,+0.00
-2.00,-40.00,+5.00,+3.00,+0.00,+2.00,+1.00,-18.00,+8.00,+5.00,-1.00,-1.00,+0.00,+5.00,+1.00,+0.00
+8.00,-4.00,-1.00,-1.00,-1.00,+2.00,-1.00,-2.00,+2.00,+1.00,-2.00,-1.00,-1.00,-2.00,-2.00,+10.00
-16.00,+27.00,-1.00,+1.00,-3.00,-1.00,-3.00,-3.00,-3.00,-5.00,-2.00,+0.00,-1.00,+5.00,-1.00,-8.00
+26.00,+17.00,+1.00,+0.00,+0.00,+1.00,+0.00,+0.00,-12.00,-8.00,+0.00,-3.00,-4.00,-10.00,+1.00,-6.00
-7.00,-16.00,-6.00,-3.00,-2.00,+1.00,+5.00,-25.00,+24.00,+32.00,+5.00,+1.00,-3.00,-1.00,+7.00,+6.00
-2.00,+5.00,-8.00,-5.00,-3.00,-1.00,+2.00,+12.00,+5.00,+6.00,+1.00,+0.00,-2.00,+6.00,+0.00,-3.00
+1.00,-58.00,-2.00,-3.00,-1.00,-6.00,-26.00,-1.00,-2.00,+12.00,+0.00,+0.00,+0.00,-2.00,+10.00,+12.00
+14.00,+28.00,+5.00,+6.00,+5.00,+7.00,+14.00,+22.00,+2.00,-9.00,-1.00,-1.00,-1.00,-3.00,-3.00,-6.00
+18.00,+4.00,+9.00,+3.00,+0.00,+2.00,+9.00,+5.00,-13.00,-17.00,-3.00,-3.00,-3.00,-11.00,-5.00,-4.00
-14.00,-11.00,-8.00,-1.00,+0.00,-3.00,-20.00,-21.00,+9.00,+3.00,-5.00,-3.00,-2.00,+5.00,+3.00,+5.00
-21.00,-34.00,-16.00,-5.00,-3.00,-5.00,+9.00,+29.00,+14.00,+17.00,-3.00,-6.00,-6.00,-4.00,-20.00,-15.00
-3.00,-33.00,-15.00,-7.00,-7.00,-8.00,-9.00,+27.00,-12.00,-20.00,-11.00,-1.00,+1.00,-9.00,-1.00,-6.00
-5.00,+82.00,+21.00,+7.00,+11.00,+5.00,-3.00,+16.00,-13.00,-23.00,+6.00,+5.00,+12.00,-35.00,-24.00,-4.00
+41.00,-3.00,-1.00,-2.00,-8.00,+3.00,-19.00,+4.00,+2.00,+10.00,+7.00,+3.00,+13.00,+51.00,+75.00,+6.00
-9.00,-32.00,+9.00,+6.00,+2.00,+4.00,+24.00,-30.00,+2.00,+12.00,+2.00,-2.00,-4.00,+11.00,-4.00,+6.00
-12.00,-2.00,-5.00,-3.00,-3.00,-10.00,-10.00,-9.00,+54.00,+8.00,-2.00,-2.00,-2.00,-7.00,-7.00,-2.00
-11.00,-16.00,-11.00,-5.00,-4.00,-6.00,-6.00,-2.00,-40.00,-24.00,-17.00,-4.00,+5.00,-8.00,-11.00,+3.00
+9.00,+0.00,+3.00,-1.00,+2.00,-3.00,-1.00,-26.00,-20.00,-12.00,+1.00,-3.00,-20.00,+22.00,+11.00,-11.00
+9.00,+3.00,+0.00,+0.00,-1.00,-1.00,-3.00,+13.00,+12.00,+58.00,+13.00,+5.00,+17.00,-11.00,-4.00,+2.00
-10.00,+11.00,+4.00,+0.00,-1.00,+0.00,-11.00,+8.00,-18.00,-23.00,+5.00,+0.00,-1.00,+4.00,+10.00,+11.00
-14.00,-6.00,+0.00,-1.00,+2.00,+2.00,+1.00,-3.00,+13.00,+8.00,-3.00,-3.00,+4.00,+5.00,-6.00,-9.00
+2.00,-7.00,+2.00,+1.00,+2.00,+0.00,+8.00,-13.00,-5.00,-24.00,-8.00,-4.00,+0.00,-18.00,-22.00,-1.00
-33.00,-2.00,-8.00,-5.00,-7.00,-7.00,-16.00,-104.00,-4.00,-27.00,-9.00,-4.00,-8.00,+7.00,+6.00,-8.00
-2.00,-10.00,+4.00,+3.00,+0.00,+1.00,+7.00,+31.00,-3.00,+25.00,+0.00,+0.00,+2.00,-8.00,-8.00,+2.00
+72.00,+29.00,-8.00,-4.00,-4.00,+1.00,+16.00,+57.00,-1.00,-11.00,+5.00,+2.00,-4.00,+15.00,-12.00,-9.00
+8.00,-4.00,-2.00,-2.00,-1.00,+1.00,-3.00,+19.00,+9.00,+10.00,-5.00,-3.00,-1.00,-11.00,-4.00,+10.00
+12.00,+29.00,+6.00,-2.00,+2.00,-4.00,+11.00,+24.00,+6.00,-10.00,+0.00,+0.00,+1.00,+8.00,+21.00,+13.00
-15.00,-25.00,-1.00,-1.00,+1.00,+0.00,+6.00,-2.00,+18.00,+3.00,-3.00,-2.00,+0.00,-9.00,-9.00,-4.00
-10.00,+34.00,+6.00,+1.00,-1.00,-1.00,+1.00,-34.00,-22.00,+6.00,+2.00,-2.00,-11.00,+3.00,-14.00,-13.00
+3.00,-16.00,-1.00,+0.00,-2.00,+4.00,-4.00,+5.00,+3.00,-29.00,-8.00,-3.00,-4.00,-18.00,-25.00,-13.00
+4.00,+22.00,-3.00,-1.00,-1.00,-2.00,-2.00,+7.00,-4.00,+7.00,-7.00,-3.00,-2.00,-10.00,-4.00,-3.00
+39.00,-14.00,-6.00,-2.00,+9.00,+5.00,+0.00,-6.00,+1.00,+5.00,-1.00,-2.00,-2.00,+5.00,-1.00,+15.00
-4.00,-31.00,-4.00,-2.00,-14.00,-10.00,+1.00,-3.00,+0.00,+4.00,+8.00,+0.00,-5.00,+26.00,+33.00,+10.00
+13.00,+9.00,+3.00,-1.00,+4.00,-1.00,+4.00,+16.00,+15.00,+23.00,+1.00,+3.00,+3.00,-30.00,-45.00,+16.00
-19.00,+15.00,-3.00,-1.00,-3.00,-7.00,-3.00,+9.00,-8.00,-35.00,-3.00,-2.00,+0.00,+8.00,+5.00,-2.00
-7.00,-6.00,+3.00,+0.00,+1.00,-1.00,-6.00,-28.00,-24.00,+1.00,-3.00,-3.00,-10.00,-5.00,+0.00,-16.00
-18.00,-34.00,-12.00,-3.00,+1.00,-1.00,-12.00,-46.00,+16.00,+5.00,-4.00,-1.00,-3.00,-2.00,+1.00,-3.00
+12.00,+8.00,-4.00,-2.00,-2.00,-3.00,+10.00,+76.00,-11.00,-15.00,-1.00,+3.00,+11.00,-16.00,-3.00,-11.00
+0.00,-31.00,-4.00,-4.00,-2.00,+1.00,+1.00,-33.00,-12.00,-19.00,-3.00,+1.00,+4.00,+23.00,-12.00,+8.00
+7.00,+24.00,+6.00,+1.00,-1.00,+4.00,-5.00,+14.00,+1.00,-9.00,+2.00,-5.00,-8.00,+2.00,+1.00,-5.00
-27.00,-20.00,-2.00,-2.00,+2.00,-1.00,+24.00,-6.00,+15.00,+45.00,-1.00,-3.00,-4.00,+2.00,+12.00,+11.00
+8.00,-14.00,-10.00,-2.00,-2.00,-3.00,-28.00,-78.00,-14.00,+3.00,+3.00,-1.00,-2.00,+8.00,-4.00,-9.00
-20.00,-4.00,-6.00,-2.00,+1.00,+3.00,+10.00,+6.00,+19.00,+2.00,+3.00,+0.00,-2.00,-17.00,-13.00,-9.00
+17.00,-16.00,+3.00,+2.00,-3.00,-2.00,-3.00,+72.00,-22.00,-10.00,-2.00,-1.00,+0.00,-9.00,-13.00,-11.00
-17.00,-12.00,+8.00,-1.00,-1.00,+1.00,+9.00,+50.00,+8.00,-22.00,+0.00,+0.00,+3.00,+8.00,-3.00,+10.00
-4.00,+44.00,+20.00,+6.00,+3.00,+1.00,+5.00,-28.00,-31.00,+13.00,-2.00,-2.00,-5.00,+2.00,+22.00,+2.00
-7.00,-15.00,-15.00,-6.00,-4.00,+0.00,+3.00,+35.00,+9.00,-10.00,-3.00,+0.00,+1.00,-13.00,+16.00,+22.00
-16.00,+5.00,+0.00,-3.00,-5.00,-9.00,-1.00,-66.00,-32.00,-42.00,-1.00,-1.00,-3.00,-17.00,-34.00,-41.00
-7.00,+4.00,-13.00,-1.00,-7.00,+10.00,-10.00,+10.00,-15.00,+37.00,-1.00,-3.00,-5.00,-9.00,-2.00,-22.00
-19.00,-21.00,-27.00,-2.00,+9.00,-10.00,+0.00,-10.00,+30.00,+17.00,+5.00,+0.00,-1.00,+3.00,-18.00,+11.00
-5.00,+39.00,+15.00,-1.00,-9.00,-13.00,-15.00,-12.00,+5.00,-13.00,+1.00,+0.00,-4.00,+4.00,+1.00,+10.00
+5.00,-12.00,+29.00,+7.00,+3.00,+4.00,-6.00,+3.00,+0.00,+12.00,-3.00,+1.00,+7.00,-1.00,+27.00,+19.00
+5.00,-3.00,-9.00,-4.00,+23.00,+5.00,-36.00,-8.00,+5.00,-23.00,-5.00,-2.00,+1.00,+1.00,-25.00,+8.00
-7.00,-84.00,+7.00,+11.00,-9.00,+5.00,+26.00,+7.00,-10.00,-29.00,-11.00,-3.00,+19.00,+20.00,+46.00,+0.00
-13.00,+8.00,-22.00,-8.00,-1.00,-1.00,-4.00,-10.00,-2.00,+19.00,-3.00,-16.00,-37.00,-1.00,-7.00,-8.00
+3.00,+61.00,+47.00,+9.00,+5.00,+6.00,-2.00,-64.00,+3.00,+12.00,-2.00,+7.00,+45.00,+2.00,+34.00,+16.00
+4.00,-15.00,+2.00,+3.00,-3.00,-9.00,+1.00,+7.00,-27.00,-74.00,-20.00,-12.00,-69.00,-5.00,-32.00,-25.00
+15.00,+49.00,-8.00,-7.00,+0.00,+12.00,+8.00,+47.00,+25.00,+77.00,+11.00,+7.00,+32.00,-17.00,-3.00,+4.00
-8.00,-28.00,+2.00,+0.00,+1.00,-3.00,+0.00,+10.00,+6.00,-22.00,+7.00,-12.00,-33.00,+4.00,-26.00,-3.00
-36.00,-107.00,-27.00,-6.00,-7.00,-4.00,+13.00,+3.00,-18.00,+17.00,-4.00,-4.00,-6.00,+18.00,+18.00,-5.00
-31.00,+1.00,-1.00,+0.00,+2.00,+6.00,-10.00,-50.00,+10.00,-2.00,+1.00,+1.00,+5.00,-38.00,+12.00,+4.00
+12.00,+42.00,+15.00,-3.00,-6.00,-9.00,-3.00,-33.00,-12.00,-51.00,-7.00,-1.00,-2.00,+12.00,-36.00,-12.00
+13.00,-36.00,-10.00,-2.00,-7.00,+2.00,+2.00,+36.00,-20.00,+14.00,-6.00,+3.00,+15.00,-4.00,+1.00,-23.00
-2.00,-9.00,-34.00,-11.00,-9.00,-8.00,-16.00,-58.00,+15.00,+10.00,+4.00,-1.00,-9.00,+5.00,+6.00,+12.00
+29.00,+62.00,+34.00,+4.00,+0.00,-3.00,-1.00,+48.00,+13.00,+5.00,+25.00,+10.00,+23.00,+10.00,+11.00,+18.00
-29.00,+36.00,+36.00,+5.00,+3.00,+0.00,+21.00,+9.00,-11.00,+46.00,+6.00,+0.00,-20.00,-17.00,+8.00,+10.00
+49.00,+32.00,+25.00,+11.00,+9.00,+0.00,-36.00,-22.00,-22.00,+4.00,+2.00,+7.00,+18.00,+5.00,-10.00,-15.00
+8.00,+35.00,+16.00,+5.00,+1.00,+5.00,+10.00,-8.00,-10.00,+8.00,+1.00,-4.00,-15.00,-13.00,-35.00,-2.00
-32.00,-50.00,-73.00,-11.00,-7.00,-9.00,-14.00,-27.00,-12.00,-47.00,-4.00,-3.00,+6.00,+4.00,+64.00,-20.00
-3.00,-22.00,+10.00,-9.00,-5.00,+0.00,+26.00,+21.00,+27.00,+13.00,-3.00,-7.00,-7.00,-22.00,-43.00,-9.00
+6.00,+15.00,+17.00,+4.00,-3.00,+8.00,+2.00,+1.00,-23.00,-59.00,-12.00,+1.00,-4.00,-31.00,-33.00,+4.00
-6.00,+47.00,+18.00,+0.00,-8.00,-12.00,-2.00,+9.00,+47.00,+94.00,-2.00,+0.00,-1.00,+28.00,-2.00,+16.00
+8.00,-64.00,-32.00,-5.00,+2.00,-4.00,-4.00,-2.00,-2.00,+25.00,+15.00,+4.00,+4.00,+2.00,+4.00,+8.00
-14.00,-1.00,-10.00,-7.00,-10.00,-28.00,+2.00,-37.00,-2.00,-80.00,-15.00,-5.00,-9.00,+10.00,+5.00,-4.00
-12.00,-117.00,-42.00,-4.00,+3.00,+19.00,-9.00,+8.00,+3.00,+53.00,+4.00,+3.00,+21.00,-10.00,+11.00,-6.00
+12.00,+42.00,+43.00,+7.00,+0.00,-9.00,+8.00,+23.00,-14.00,-45.00,-6.00,-2.00,-54.00,-36.00,-28.00,-6.00
-10.00,-28.00,+12.00,+4.00,-13.00,+9.00,-4.00,-15.00,+25.00,+64.00,+6.00,+10.00,+38.00,+14.00,-8.00,+13.00
+5.00,-85.00,-15.00,-2.00,-3.00,-8.00,-4.00,+46.00,-15.00,-88.00,-12.00,-18.00,-33.00,-7.00,-1.00,-5.00
-5.00,-66.00,-10.00,-4.00,-3.00,-8.00,-7.00,+10.00,+29.00,+68.00,-10.00,-6.00,-17.00,+27.00,+26.00,+11.00
+22.00,-47.00,-47.00,-8.00,+0.00,-14.00,+6.00,-11.00,-27.00,-63.00,+29.00,+11.00,+13.00,-27.00,-5.00,-6.00
+39.00,+105.00,+79.00,+13.00,+9.00,+9.00,+6.00,-36.00,-20.00,-63.00,-20.00,-7.00,-11.00,-5.00,+22.00,+8.00
-18.00,+94.00,-2.00,+1.00,+4.00,+5.00,-8.00,-19.00,+1.00,-12.00,-9.00,-2.00,-4.00,-2.00,-52.00,-2.00
-34.00,+14.00,+0.00,-11.00,-18.00,-18.00,-37.00,+34.00,-19.00,+13.00,+4.00,+0.00,+7.00,+10.00,+55.00,-1.00
-79.00,-20.00,-50.00,-6.00,+9.00,+35.00,+27.00,-55.00,+18.00,+6.00,+5.00,-3.00,+0.00,-16.00,-24.00,-14.00
+66.00,-15.00,+13.00,-5.00,-4.00,-15.00,-2.00,-17.00,+4.00,+13.00,-30.00,-8.00,+0.00,-15.00,-8.00,+17.00
+28.00,+60.00,+65.00,+11.00,-2.00,+2.00,-12.00,+49.00,-46.00,-5.00,+25.00,+6.00,+11.00,+16.00,+33.00,-3.00
+34.00,+9.00,+9.00,+6.00,+13.00,+4.00,+46.00,+0.00,+52.00,+69.00,+9.00,+11.00,+19.00,+15.00,-24.00,-5.00
-18.00,-17.00,-26.00,-13.00,-10.00,-4.00,-19.00,+3.00,-5.00,-60.00,-15.00,-14.00,-7.00,+4.00,+13.00,+37.00
-51.00,-51.00,-38.00,-10.00,-7.00,-10.00,-6.00,-11.00,+2.00,+69.00,+40.00,+15.00,-1.00,-9.00,-25.00,-16.00
-25.00,-76.00,-50.00,-9.00,-5.00,-6.00,-24.00,-66.00,-22.00,-75.00,-19.00,+2.00,-6.00,-12.00,-13.00,-26.00
+22.00,+41.00,+23.00,+0.00,-6.00,-3.00,-5.00,-55.00,-38.00,-53.00,-5.00,+0.00,+0.00,-25.00,-28.00,-23.00
+28.00,-52.00,+10.00,+3.00,+3.00,+1.00,+14.00,+82.00,+21.00,+33.00,+1.00,+7.00,+16.00,+49.00,+44.00,+39.00
+2.00,-6.00,-16.00,-8.00,-3.00,-18.00,+2.00,-98.00,+8.00,+0.00,-26.00,-16.00,-3.00,+19.00,-3.00,+34.00
+1.00,-17.00,-18.00,-2.00,-1.00,-6.00,-20.00,+111.00,+44.00,+118.00,+18.00,+8.00,+2.00,+59.00,+60.00,+8.00
+19.00,+58.00,+22.00,+0.00,+3.00,+9.00,+38.00,-60.00,-26.00,-34.00,+35.00,+3.00,-17.00,-68.00,-38.00,-14.00
-47.00,-25.00,-29.00,+4.00,-5.00,+13.00,-42.00,-97.00,+10.00,-8.00,-5.00,+7.00,+27.00,+9.00,-29.00,-13.00
+2.00,-30.00,-46.00,-22.00,-20.00,-22.00,+10.00,-41.00,-19.00,-38.00,-9.00,+4.00,+4.00,-16.00,-28.00,-66.00
-17.00,+40.00,+27.00,+6.00,+11.00,+20.00,-17.00,+6.00,+25.00,+57.00,-15.00,-14.00,-5.00,-10.00,+30.00,+46.00
-9.00,-56.00,-25.00,+1.00,+9.00,+6.00,+19.00,+104.00,-23.00,-105.00,+18.00,+25.00,+15.00,+39.00,+10.00,+35.00
+4.00,+36.00,+68.00,+18.00,+4.00,+25.00,+33.00,+23.00,+16.00,+30.00,-65.00,-40.00,-18.00,-25.00,+27.00,-16.00
-24.00,-17.00,+9.00,+2.00,-2.00,+35.00,-5.00,-18.00,+8.00,+21.00,+63.00,+36.00,-15.00,-65.00,+24.00,+4.00
+22.00,-25.00,-32.00,-14.00,-12.00,-48.00,-1.00,+46.00,-9.00,-34.00,+16.00,-29.00,+15.00,-41.00,-30.00,-47.00
-34.00,-43.00,-8.00,-1.00,-3.00,+2.00,-3.00,-82.00,-16.00,+38.00,-90.00,-28.00,-11.00,-42.00,+7.00,+23.00
-25.00,-34.00,-52.00,-27.00,-14.00,-12.00,-31.00,-38.00,-39.00,+22.00,-17.00,+0.00,-7.00,+31.00,-22.00,-23.00
+19.00,-71.00,-3.00,+22.00,+21.00,-56.00,+3.00,+127.00,+22.00,+6.00,+5.00,+27.00,+43.00,+65.00,+49.00,+14.00
-10.00,-15.00,+23.00,-10.00,-2.00,+34.00,+19.00,-60.00,-14.00,-42.00,+70.00,+30.00,-18.00,-28.00,-28.00,+16.00
+4.00,+45.00,-20.00,+3.00,-2.00,-48.00,-33.00,-48.00,+24.00,+67.00,-52.00,-40.00,-21.00,-8.00,-12.00,-21.00
+49.00,+20.00,+41.00,+1.00,-1.00,+44.00,+56.00,+68.00,-10.00,-62.00,+29.00,+42.00,+25.00,+76.00,+20.00,-18.00
-25.00,+14.00,-28.00,-10.00,-2.00,-32.00,-66.00,-128.00,+6.00,+47.00,-112.00,-56.00,-23.00,-65.00,+38.00,+16.00
+25.00,-26.00,+0.00,-5.00,+5.00,-6.00,+29.00,+55.00,+12.00,-15.00,-10.00,-10.00,-14.00,-49.00,-6.00,-33.00
-40.00,+8.00,+43.00,+10.00,-7.00,-32.00,-51.00,-22.00,+53.00,+25.00,+18.00,+23.00,+24.00,+97.00,-92.00,+45.00
+49.00,+69.00,-36.00,+23.00,+28.00,+21.00,+61.00,-16.00,-56.00,-40.00,+36.00,-1.00,-30.00,-32.00,+77.00,-115.00
+2.00,+12.00,+116.00,+12.00,-4.00,+36.00,-3.00,+21.00,+11.00,-6.00,+12.00,-2.00,+10.00,+89.00,+64.00,+62.00
+32.00,-40.00,-86.00,-10.00,+1.00,+48.00,+26.00,-89.00,-15.00,+21.00,+78.00,+46.00,-4.00,-87.00,-60.00,+73.00
-87.00,-34.00,-39.00,-16.00,-13.00,+46.00,+19.00,-62.00,+5.00,-49.00,-57.00,-39.00,+0.00,+80.00,-34.00,-1.00
+41.00,+9.00,-5.00,-3.00,-16.00,-109.00,-53.00,+95.00,-8.00,-14.00,-10.00,-30.00,-14.00,-100.00,+6.00,-36.00
-4.00,+35.00,+6.00,-17.00,-1.00,+38.00,+31.00,+33.00,+37.00,+12.00,-4.00,-1.00,-18.00,-65.00,-111.00,-21.00
+22.00,+12.00,+34.00,+31.00,+0.00,-17.00,-43.00,+0.00,+3.00,+72.00,+76.00,+3.00,+14.00,-28.00,+107.00,+71.00
+23.00,+18.00,+25.00,+12.00,+10.00,-16.00,+17.00,-34.00,-28.00,-92.00,-42.00,+4.00,-31.00,-1.00,-19.00,+32.00
-15.00,+28.00,+3.00,+1.00,-3.00,-8.00,+17.00,+33.00,+23.00,+75.00,+57.00,+17.00,+35.00,-21.00,-41.00,+9.00
+13.00,-12.00,-83.00,-3.00,+12.00,+19.00,-5.00,+88.00,-49.00,-64.00,+54.00,+8.00,-20.00,+12.00,-9.00,-31.00
-26.00,+11.00,+42.00,-5.00,-11.00,+0.00,-5.00,-74.00,+9.00,+17.00,-128.00,-40.00,+48.00,+127.00,+35.00,-23.00
-15.00,-41.00,-101.00,-19.00,+7.00,-21.00,-23.00,+16.00,+74.00,+2.00,-23.00,+3.00,-31.00,-128.00,+23.00,+17.00
+72.00,-10.00,+96.00,+19.00,+10.00,+22.00,+44.00,-22.00,+1.00,-48.00,+22.00,-10.00,-1.00,+12.00,-16.00,+92.00
-51.00,+11.00,-41.00,-10.00,-12.00,+0.00,-23.00,-9.00,+25.00,-28.00,+51.00,+14.00,+0.00,+20.00,-49.00,-78.00
-23.00,+10.00,+47.00,+10.00,-1.00,-65.00,+1.00,-57.00,-45.00,-35.00,-2.00,-9.00,-38.00,+7.00,-4.00,+19.00
-14.00,-4.00,-52.00,-8.00,+9.00,+67.00,+42.00,+18.00,-30.00,+55.00,+127.00,+51.00,+54.00,+70.00,+70.00,-62.00
-21.00,+2.00,-87.00,+0.00,-3.00,+15.00,+4.00,-55.00,-12.00,+17.00,-128.00,-44.00,+9.00,-20.00,-8.00,+30.00
-17.00,-2.00,+75.00,-19.00,-35.00,+6.00,-39.00,-4.00,-85.00,-11.00,-20.00,-9.00,-14.00,+55.00,-1.00,-48.00
+49.00,+39.00,-1.00,+15.00,+20.00,-23.00,+3.00,-15.00,-20.00,-25.00,-88.00,-25.00,-33.00,-14.00,+34.00,-23.00
+5.00,+0.00,-41.00,-16.00,-8.00,+5.00,-42.00,-76.00,-19.00,-4.00,+112.00,+4.00,-3.00,-115.00,-49.00,+26.00
-34.00,-34.00,-29.00,-10.00,+13.00,-30.00,-21.00,+30.00,-31.00,-37.00,+18.00,+36.00,-1.00,+86.00,+34.00,+68.00
-84.00,-44.00,-98.00,-29.00,-9.00,-34.00,+22.00,-36.00,+26.00,+6.00,-10.00,+0.00,+0.00,+86.00,+13.00,+5.00
+6.00,+13.00,+49.00,+47.00,+3.00,+8.00,+0.00,-84.00,+49.00,-9.00,+11.00,-3.00,+56.00,-17.00,+13.00,-121.00
+56.00,+68.00,+6.00,+2.00,-28.00,-37.00,+20.00,+127.00,+15.00,-35.00,+5.00,-1.00,-17.00,-25.00,+63.00,+36.00
-19.00,-14.00,-50.00,-3.00,+17.00,+39.00,-88.00,-2.00,+22.00,+94.00,+120.00,+19.00,+50.00,-17.00,-52.00,-14.00
+55.00,+43.00,+17.00,+0.00,+6.00,-18.00,+56.00,+60.00,-18.00,+48.00,+91.00,+44.00,+5.00,-4.00,+7.00,-14.00
-47.00,-68.00,-72.00,-35.00,-17.00,-17.00,-19.00,-55.00,+59.00,-3.00,-114.00,-37.00,-17.00,+63.00,+11.00,+36.00
-38.00,-18.00,-24.00,-11.00,+3.00,-37.00,+28.00,+69.00,-3.00,-51.00,+22.00,-23.00,-31.00,+12.00,-24.00,-9.00
-4.00,+22.00,+82.00,+17.00,-19.00,-8.00,-69.00,-127.00,+127.00,-3.00,+64.00,+24.00,-4.00,+78.00,+52.00,+16.00
+57.00,+38.00,-50.00,+16.00,+17.00,+30.00,-7.00,-41.00,+46.00,-36.00,+32.00,-12.00,+11.00,-97.00,-62.00,+27.00
+11.00,-24.00,-27.00,-12.00,+4.00,+54.00,+18.00,+113.00,+66.00,+10.00,-18.00,-4.00,-104.00,-81.00,-102.00,+23.00
+5.00,-17.00,+51.00,+10.00,-15.00,+26.00,+41.00,-33.00,+41.00,+54.00,+36.00,+14.00,+89.00,+98.00,-11.00,-31.00
-109.00,-92.00,-124.00,-61.00,-12.00,-5.00,-6.00,-108.00,-26.00,-50.00,-54.00,-7.00,-77.00,-66.00,-77.00,-63.00
+68.00,+91.00,+127.00,+61.00,+12.00,-70.00,-23.00,+11.00,-26.00,-37.00,-49.00,-35.00,-10.00,+47.00,-12.00,+28.00
+31.00,+21.00,-128.00,-2.00,+2.00,+10.00,+3.00,-92.00,-4.00,+49.00,+48.00,+18.00,+18.00,-68.00,+14.00,+70.00
+86.00,-12.00,-68.00,-3.00,+1.00,+27.00,-7.00,-31.00,+3.00,-9.00,-76.00,-12.00,+7.00,-26.00,+35.00,+25.00
-12.00,+44.00,-11.00,-12.00,-21.00,-37.00,+22.00,-11.00,-78.00,+126.00,+127.00,+48.00,-23.00,+54.00,+7.00,+33.00
-29.00,-104.00,-87.00,-26.00,-13.00,+98.00,-54.00,+14.00,-62.00,-89.00,+50.00,-5.00,+8.00,-49.00,+15.00,-88.00
+8.00,+30.00,+127.00,+6.00,-3.00,-110.00,+0.00,+127.00,-128.00,-7.00,+62.00,-9.00,-7.00,+27.00,+4.00,+37.00
+18.00,-16.00,-91.00,-8.00,+12.00,+57.00,+66.00,+105.00,-17.00,+59.00,+43.00,-21.00,-23.00,-12.00,-38.00,-80.00
+34.00,+39.00,+127.00,+12.00,+10.00,+118.00,+59.00,+109.00,+3.00,-58.00,+42.00,+15.00,+6.00,-24.00,-69.00,+40.00
-65.00,+12.00,+46.00,-4.00,-11.00,-51.00,-15.00,+21.00,+41.00,+83.00,+60.00,+31.00,+60.00,+109.00,+46.00,+35.00
-8.00,-21.00,-12.00,+1.00,-5.00,+5.00,-38.00,+78.00,-48.00,-7.00,-46.00,+3.00,-49.00,-34.00,+6.00,-32.00
-73.00,+15.00,+32.00,+1.00,+3.00,-78.00,-53.00,+27.00,-41.00,-26.00,+17.00,-17.00,+48.00,-86.00,-29.00,+19.00
-17.00,-56.00,-128.00,-26.00,-24.00,-74.00,-9.00,-62.00,+24.00,-74.00,-6.00,-21.00,-16.00,-16.00,-23.00,+10.00
-75.00,-36.00,+61.00,+2.00,-6.00,-97.00,-36.00,-116.00,+28.00,-7.00,-30.00,-27.00,-47.00,-68.00,-32.00,+32.00
+11.00,+27.00,+7.00,+35.00,+11.00,+61.00,+16.00,+111.00,-2.00,-15.00,-26.00,+10.00,+48.00,+36.00,-33.00,-80.00
+36.00,+127.00,+56.00,+34.00,+19.00,+81.00,+60.00,+58.00,+30.00,+60.00,-5.00,+27.00,-44.00,+98.00,+22.00,+22.00
-74.00,-10.00,-95.00,-1.00,-4.00,-50.00,-45.00,-33.00,-10.00,-21.00,-19.00,+8.00,+76.00,-7.00,+80.00,-61.00
-99.00,-12.00,-128.00,-21.00,-4.00,+21.00,+30.00,-73.00,-36.00,-5.00,+97.00,+28.00,+4.00,+107.00,+35.00,+69.00
-128.00,-85.00,-46.00,-18.00,+2.00,+28.00,-34.00,-74.00,+31.00,-33.00,-76.00,-90.00,-39.00,-73.00,-66.00,+3.00
+87.00,+4.00,+107.00,+2.00,-34.00,-121.00,-106.00,+21.00,+39.00,+5.00,+79.00,+17.00,-12.00,+21.00,+107.00,-4.00
-67.00,+17.00,+51.00,-4.00,+34.00,+116.00,+63.00,-83.00,+0.00,+9.00,+52.00,+18.00,+6.00,+22.00,+39.00,+46.00
+54.00,+8.00,-92.00,-1.00,+14.00,+111.00,+21.00,+127.00,-2.00,-11.00,+21.00,+10.00,-18.00,+22.00,-35.00,-36.00
-41.00,-24.00,+49.00,+14.00,-3.00,+5.00,+42.00,-61.00,+26.00,+39.00,-5.00,+24.00,+127.00,+127.00,-47.00,-86.00
-2.00,+1.00,-11.00,+4.00,-1.00,-40.00,+6.00,-7.00,-35.00,-24.00,+14.00,-9.00,-13.00,-88.00,-45.00,+81.00
-44.00,-9.00,+7.00,-2.00,+1.00,+21.00,-26.00,-11.00,-46.00,-69.00,+104.00,+30.00,+48.00,+44.00,-7.00,-85.00
+78.00,+17.00,-24.00,-34.00,-21.00,-89.00,-48.00,-114.00,-7.00,+43.00,-92.00,-102.00,-81.00,-128.00,-69.00,-95.00
-6.00,+4.00,-128.00,-9.00,+9.00,+18.00,-17.00,+50.00,+46.00,-5.00,+65.00,+29.00,-29.00,-25.00,+9.00,+102.00
+30.00,-40.00,-64.00,-14.00,+2.00,-18.00,-3.00,-19.00,+56.00,-2.00,-66.00,-18.00,+3.00,+87.00,+43.00,-10.00
+59.00,-27.00,+67.00,+30.00,+1.00,-42.00,-25.00,+127.00,+40.00,+22.00,+28.00,+32.00,+13.00,+89.00,+49.00,+25.00
-27.00,+7.00,-72.00,-26.00,+3.00,-7.00,+83.00,-1.00,-25.00,-42.00,+51.00,+26.00,+2.00,+19.00,+83.00,+116.00
+80.00,+33.00,+80.00,+28.00,-5.00,-89.00,-45.00,-71.00,-18.00,-8.00,+18.00,+19.00,+96.00,-80.00,+51.00,+55.00
-60.00,-9.00,-41.00,-17.00,+6.00,+83.00,+90.00,-128.00,-35.00,-39.00,+86.00,+1.00,-55.00,+16.00,-96.00,-90.00
-23.00,+12.00,-90.00,-8.00,-10.00,+59.00,-4.00,+116.00,+5.00,-95.00,-128.00,-66.00,+7.00,-2.00,-61.00,-49.00
+23.00,-47.00,-4.00,+25.00,+20.00,-12.00,-39.00,-68.00,-10.00,+34.00,+106.00,+35.00,+48.00,+31.00,-26.00,+63.00
+26.00,-11.00,+74.00,-30.00,-6.00,+109.00,+34.00,+117.00,+22.00,+68.00,+37.00,+30.00,-20.00,+24.00,+62.00,+64.00
+22.00,+23.00,+95.00,+40.00,+7.00,-4.00,+12.00,-112.00,-24.00,-96.00,+119.00,+43.00,+18.00,+112.00,+25.00,+17.00
-6.00,+13.00,+60.00,+0.00,+0.00,+36.00,+2.00,-93.00,-44.00,+127.00,+4.00,-78.00,-128.00,-128.00,-128.00,-110.00
+77.00,+7.00,-23.00,+24.00,+21.00,+48.00,+22.00,+123.00,+35.00,-64.00,-67.00,-15.00,+83.00,-114.00,+83.00,+67.00
-38.00,+29.00,-91.00,-40.00,-14.00,+97.00,-15.00,-128.00,+9.00,+38.00,+107.00,+21.00,-76.00,-9.00,-67.00,-22.00
-98.00,-46.00,+45.00,+9.00,+11.00,-82.00,-79.00,-51.00,+38.00,+12.00,-128.00,-25.00,+126.00,+74.00,+20.00,-14.00
+21.00,+24.00,+15.00,-7.00,-19.00,-19.00,+36.00,+21.00,+28.00,+39.00,+45.00,+18.00,-99.00,-88.00,-28.00,-22.00
+42.00,-7.00,+98.00,+25.00,+6.00,-45.00,-10.00,-106.00,+4.00,+10.00,-85.00,-25.00,-41.00,-70.00,-22.00,-98.00
-18.00,-8.00,-64.00,-13.00,-10.00,-30.00,+16.00,-67.00,+93.00,-34.00,+83.00,+9.00,+22.00,+72.00,+33.00,-58.00
+21.00,-27.00,+18.00,-13.00,-13.00,+41.00,-12.00,+119.00,+86.00,+5.00,-65.00,+5.00,-72.00,+7.00,+71.00,+79.00
+38.00,-12.00,-3.00,+6.00,+20.00,+4.00,+18.00,+48.00,+84.00,-14.00,-7.00,-22.00,+27.00,-14.00,-40.00,-39.00
-97.00,-40.00,-27.00,-9.00,-10.00,-18.00,+27.00,-64.00,+96.00,+17.00,-81.00,-13.00,+61.00,+23.00,+93.00,+61.00
-49.00,+8.00,+73.00,-2.00,+1.00,+23.00,+31.00,-39.00,+52.00,-5.00,+65.00,+15.00,-55.00,+27.00,-69.00,-51.00
-30.00,+10.00,-39.00,+0.00,+13.00,-22.00,-2.00,-88.00,+75.00,-44.00,-47.00,+2.00,+114.00,+73.00,+49.00,-23.00
-14.00,-44.00,-105.00,+13.00,+11.00,-98.00,-9.00,+19.00,+15.00,-5.00,+27.00,+7.00,-79.00,-82.00,-13.00,+43.00
+3.00,+86.00,+76.00,-2.00,-33.00,+52.00,-44.00,+56.00,+14.00,+8.00,+25.00,-20.00,+34.00,-71.00,+12.00,-19.00
-90.00,-18.00,-128.00,-16.00,+8.00,-48.00,-27.00,-117.00,-14.00,-39.00,-49.00,-29.00,+3.00,-14.00,-112.00,-113.00
+17.00,+5.00,+112.00,+32.00,+27.00,+103.00,+58.00,+48.00,-44.00,+57.00,+85.00,+15.00,-44.00,-31.00,+73.00,+101.00
+1.00,+24.00,-84.00,-5.00,-1.00,+60.00,+19.00,-88.00,-31.00,+10.00,-77.00,-18.00,+69.00,+53.00,+124.00,+68.00
+75.00,+84.00,+90.00,+14.00,-3.00,+31.00,+37.00,-25.00,-44.00,-4.00,+81.00,+77.00,-12.00,+127.00,-33.00,-84.00
-111.00,-42.00,-63.00,+0.00,+2.00,-70.00,-73.00,-79.00,-83.00,-82.00,+31.00,-14.00,-75.00,-22.00,+52.00,+29.00
+76.00,+11.00,-9.00,-11.00,-2.00,-51.00,-8.00,+96.00,-128.00,-13.00,+29.00,-38.00,+31.00,-109.00,-128.00,-86.00
-29.00,-3.00,+32.00,-8.00,-1.00,-6.00,-6.00,-86.00,-116.00,-74.00,-71.00,-32.00,-35.00,+34.00,+74.00,-41.00
+59.00,-15.00,-11.00,+16.00,+15.00,-20.00,-6.00,+97.00,-57.00,+73.00,+99.00,+26.00,+28.00,-15.00,-38.00,+98.00
+70.00,+27.00,-14.00,-1.00,+3.00,+50.00,+127.00,+43.00,-52.00,+0.00,-82.00,+1.00,+5.00,+31.00,-4.00,-77.00
-16.00,+18.00,-73.00,-14.00,-7.00,+93.00,-41.00,-62.00,-43.00,+57.00,+96.00,+40.00,-47.00,-74.00,-16.00,-51.00
-43.00,+1.00,+42.00,-4.00,-7.00,-56.00,-29.00,-90.00,-10.00,-56.00,-40.00,-9.00,-36.00,+15.00,-48.00,-22.00
+68.00,-13.00,+64.00,+16.00,+11.00,-25.00,+4.00,+81.00,+13.00,-43.00,-112.00,-35.00,-79.00,+15.00,+69.00,+4.00
+21.00,+2.00,-68.00,-18.00,-5.00,-29.00,-26.00,-72.00,-71.00,+34.00,-26.00,-6.00,+94.00,-44.00,-78.00,-22.00
-108.00,-48.00,-43.00,-1.00,-10.00,+74.00,-3.00,-109.00,-25.00,+19.00,-51.00,-15.00,-18.00,+53.00,+10.00,+76.00
+94.00,+32.00,+0.00,-5.00,-8.00,-43.00,+7.00,+111.00,+11.00,+35.00,+58.00,+30.00,+31.00,-36.00,+100.00,+20.00
-102.00,-18.00,-35.00,-5.00,+0.00,+51.00,+27.00,-34.00,-29.00,+25.00,-21.00,+6.00,-19.00,+38.00,-40.00,-77.00
-15.00,-25.00,-48.00,-11.00,-6.00,-98.00,-1.00,+113.00,-30.00,-25.00,+10.00,-10.00,-16.00,-9.00,-17.00,-3.00
-77.00,-7.00,-63.00,-16.00,-11.00,+87.00,+21.00,-119.00,+4.00,-5.00,-110.00,-19.00,-104.00,-32.00,+38.00,-2.00
+39.00,-25.00,+76.00,+7.00,-1.00,-50.00,-28.00,-127.00,+7.00,-9.00,-10.00,+9.00,+98.00,-7.00,+17.00,+45.00
+44.00,+16.00,+9.00,+12.00,-2.00,-42.00,+6.00,+103.00,+6.00,-9.00,-32.00,-18.00,-25.00,-26.00,+50.00,+50.00
+75.00,+60.00,+101.00,+18.00,+4.00,+127.00,+10.00,-1.00,+2.00,+5.00,+88.00,+34.00,+41.00,+127.00,+70.00,+17.00
+32.00,-10.00,-128.00,-15.00,-8.00,-102.00,-41.00,-9.00,+5.00,+59.00,+25.00,+1.00,-46.00,-12.00,+13.00,-86.00
-65.00,-26.00,+65.00,-3.00,-8.00,-73.00,-38.00,+32.00,+20.00,+85.00,+4.00,-5.00,+81.00,+4.00,-58.00,+72.00
+67.00,+42.00,+39.00,+3.00,+2.00,+27.00,-2.00,+59.00,+5.00,-18.00,+1.00,-17.00,-24.00,-7.00,-85.00,-58.00
+20.00,-17.00,+60.00,+16.00,+0.00,-66.00,-7.00,+4.00,+4.00,+60.00,+21.00,-5.00,+41.00,+46.00,+100.00,+75.00
-51.00,-7.00,-3.00,+0.00,-2.00,+15.00,-3.00,+10.00,-41.00,-49.00,-17.00,-16.00,+20.00,-37.00,-59.00,-20.00
+61.00,+30.00,-68.00,-12.00,+2.00,+90.00,+3.00,+92.00,-34.00,-40.00,+84.00,+33.00,-12.00,-24.00,-54.00,-55.00
+0.00,-38.00,+47.00,-4.00,-6.00,-86.00,+4.00,-75.00,-10.00,+91.00,+46.00,+19.00,+3.00,-2.00,+25.00,-7.00
+46.00,+12.00,+0.00,-15.00,-17.00,-56.00,-50.00,+104.00,-39.00,-17.00,-73.00,-25.00,-38.00,-91.00,+3.00,+25.00
+2.00,+13.00,-3.00,+5.00,+11.00,-75.00,+23.00,-56.00,-21.00,-26.00,+20.00,+19.00,+48.00,+50.00,+27.00,-15.00
-39.00,-44.00,-75.00,-8.00,-7.00,-17.00,-15.00,+54.00,+11.00,+8.00,+20.00,-1.00,+34.00,-6.00,-42.00,-59.00
-47.00,+28.00,+24.00,+20.00,+8.00,+68.00,-7.00,+23.00,+29.00,-6.00,+80.00,+24.00,-12.00,-38.00,-109.00,-26.00
+83.00,-4.00,-86.00,+5.00,+15.00,+5.00,+10.00,+38.00,-13.00,-111.00,-22.00,-14.00,+70.00,-32.00,-29.00,+25.00
-66.00,-36.00,-64.00,-14.00,-10.00,+9.00,+34.00,-50.00,+28.00,+7.00,-42.00,-13.00,-45.00,+30.00,+15.00,+11.00
+51.00,+78.00,-30.00,-9.00,-10.00,-35.00,+0.00,+19.00,-5.00,-14.00,-22.00,-14.00,+28.00,-67.00,-32.00,-65.00
-96.00,-32.00,+4.00,+8.00,-4.00,+6.00,-50.00,-128.00,+7.00,-17.00,+56.00,+23.00,+22.00,+127.00,+86.00,+92.00
-66.00,-48.00,-87.00,+8.00,+3.00,-11.00,+19.00,-52.00,+43.00,+3.00,+7.00,-8.00,-74.00,-32.00,-75.00,-91.00
+35.00,+2.00,-3.00,-9.00,-9.00,+12.00,-67.00,+59.00,-8.00,-14.00,+71.00,+15.00,+8.00,-110.00,+6.00,+82.00
-61.00,+42.00,+72.00,+19.00,-9.00,+28.00,-3.00,-65.00,-8.00,-36.00,+42.00,+35.00,+33.00,+115.00,-5.00,-11.00
-33.00,-65.00,-128.00,+6.00,+36.00,+15.00,+100.00,-34.00,-27.00,-10.00,-96.00,-39.00,+17.00,-32.00,-34.00,-27.00
+104.00,+25.00,+33.00,+14.00,+16.00,+106.00,+33.00,-91.00,-14.00,+31.00,-5.00,-10.00,-68.00,+10.00,+64.00,-105.00
+17.00,-35.00,-44.00,-8.00,+2.00,+34.00,-5.00,-93.00,+21.00,-6.00,-23.00,+29.00,+54.00,+79.00,-6.00,+64.00
-59.00,-42.00,-8.00,+7.00,+14.00,+10.00,-16.00,-4.00,+13.00,+33.00,-89.00,-39.00,-128.00,+20.00,-27.00,-4.00
+48.00,-18.00,-59.00,-17.00,-22.00,-25.00,-29.00,-112.00,+38.00,+24.00,+22.00,+26.00,+122.00,+63.00,+31.00,+47.00
-121.00,-34.00,-85.00,-32.00,-1.00,-20.00,-30.00,-42.00,-20.00,+12.00,-103.00,-61.00,-107.00,-92.00,+28.00,-46.00
+1.00,+43.00,+45.00,-7.00,-11.00,-117.00,+13.00,+12.00,+22.00,-2.00,+111.00,+21.00,+5.00,+84.00,+71.00,+49.00
+43.00,+4.00,-84.00,+5.00,+9.00,+24.00,+20.00,+48.00,+1.00,+33.00,+1.00,+28.00,+106.00,+101.00,+14.00,+15.00
-107.00,-27.00,-38.00,-1.00,-6.00,+39.00,+14.00,-24.00,-20.00,-39.00,-80.00,-50.00,-107.00,+98.00,+16.00,-86.00
-32.00,+11.00,+50.00,-7.00,-1.00,-74.00,-9.00,+42.00,+15.00,-27.00,+105.00,+60.00,+80.00,-42.00,-63.00,+89.00
-66.00,-81.00,-8.00,-12.00,-19.00,-23.00,-22.00,-75.00,+9.00,+54.00,-20.00,-14.00,-19.00,-27.00,-96.00,-128.00
+113.00,+89.00,+40.00,+1.00,+20.00,+14.00,+37.00,+35.00,-1.00,-22.00,-55.00,-50.00,-10.00,+54.00,+38.00,+101.00
+33.00,+9.00,-3.00,-1.00,+8.00,-38.00,+31.00,-41.00,-2.00,-2.00,-5.00,-19.00,-79.00,-118.00,+8.00,+30.00
-89.00,-27.00,-39.00,-15.00,+5.00,+48.00,-19.00,-62.00,+27.00,-20.00,+98.00,+41.00,-16.00,+117.00,+4.00,+30.00
+46.00,+45.00,+105.00,+43.00,+9.00,-45.00,+7.00,+127.00,-19.00,-21.00,-21.00,-24.00,+27.00,-122.00,-66.00,-74.00
-17.00,-28.00,-88.00,+7.00,-2.00,+23.00,-8.00,-49.00,+1.00,-6.00,+30.00,+18.00,+83.00,+96.00,+72.00,-37.00
+25.00,-61.00,-52.00,-14.00,-4.00,-37.00,-18.00,-7.00,-8.00,-115.00,-57.00,-4.00,-94.00,-117.00,-43.00,+5.00
-1.00,+8.00,-26.00,-3.00,-5.00,+8.00,+9.00,-5.00,-7.00,+84.00,+39.00,+5.00,-29.00,+92.00,+18.00,+39.00
-42.00,+1.00,-29.00,-14.00,-5.00,-42.00,-55.00,+56.00,-24.00,-73.00,-94.00,-54.00,+55.00,+7.00,+5.00,-5.00
-17.00,-37.00,+54.00,+7.00,+4.00,+42.00,+87.00,+87.00,+38.00,+14.00,+32.00,-36.00,-87.00,-85.00,-10.00,-26.00
+44.00,+20.00,+28.00,-19.00,-14.00,-106.00,-34.00,-5.00,+2.00,+5.00,+127.00,+35.00,-15.00,+10.00,+66.00,-7.00
-7.00,+0.00,+44.00,+2.00,-18.00,+50.00,-13.00,+109.00,+43.00,+20.00,+69.00,+22.00,+44.00,+20.00,-37.00,-13.00
+58.00,+20.00,-24.00,+8.00,+15.00,-21.00,+41.00,-22.00,-7.00,-16.00,-1.00,+9.00,-31.00,-21.00,+31.00,-50.00
-79.00,-52.00,-43.00,-14.00,-17.00,-16.00,-78.00,-117.00,-13.00,+37.00,+44.00,+25.00,-26.00,+26.00,-48.00,-10.00
-35.00,+17.00,+51.00,-5.00,-9.00,+6.00,-21.00,-80.00,-29.00,-29.00,-10.00,-20.00,-18.00,-106.00,-70.00,-59.00
-25.00,+0.00,+8.00,+20.00,+26.00,+84.00,+50.00,+34.00,-15.00,-39.00,-75.00,-30.00,-46.00,-14.00,-44.00,+3.00
+13.00,+21.00,-33.00,-15.00,-10.00,-89.00,-38.00,+1.00,+35.00,+23.00,+18.00,+19.00,-71.00,+40.00,+45.00,+85.00
-14.00,-6.00,-35.00,+17.00,-2.00,+81.00,+25.00,+105.00,-6.00,+2.00,-11.00,+1.00,+45.00,-7.00,-44.00,-69.00
-124.00,+0.00,+20.00,-22.00,-6.00,+127.00,-15.00,-87.00,+34.00,+85.00,+70.00,+31.00,+8.00,+58.00,+67.00,+88.00
+11.00,+20.00,-13.00,+4.00,-10.00,-107.00,+32.00,-34.00,+20.00,+46.00,-62.00,+2.00,+71.00,+53.00,+127.00,+77.00
+107.00,+74.00,+71.00,+40.00,+25.00,+71.00,+34.00,+72.00,+5.00,-37.00,-7.00,-28.00,-48.00,-61.00,+10.00,-47.00
+40.00,-11.00,-58.00,-6.00,+0.00,-44.00,-32.00,-128.00,-1.00,+2.00,-117.00,-49.00,-25.00,-3.00,-46.00,-1.00
-115.00,-17.00,-128.00,-23.00,-17.00,-61.00,-77.00,+55.00,-20.00,-26.00,+83.00,+43.00,+31.00,-1.00,-4.00,+17.00
+49.00,+25.00,+127.00,+13.00,+1.00,-42.00,+64.00,+0.00,-7.00,-78.00,-88.00,-24.00,+20.00,-37.00,-45.00,-101.00
+32.00,+33.00,+78.00,-2.00,-16.00,+123.00,-19.00,-31.00,-19.00,+32.00,+0.00,+3.00,+64.00,+43.00,-20.00,+127.00
-44.00,-22.00,-56.00,-12.00,+15.00,-128.00,+31.00,-128.00,+28.00,+10.00,+52.00,+3.00,-128.00,-104.00,+98.00,+3.00
+87.00,-9.00,+88.00,+32.00,+10.00,+22.00,-5.00,+37.00,-27.00,-21.00,-21.00,-8.00,-7.00,-35.00,-40.00,-21.00
-5.00,-10.00,-64.00,-2.00,-6.00,-39.00,-27.00,-64.00,+28.00,+43.00,+80.00,+48.00,+95.00,+75.00,+114.00,+127.00
-108.00,-33.00,-14.00,-18.00,-16.00,-11.00,-27.00,-115.00,-32.00,+6.00,+103.00,+7.00,-81.00,+65.00,-114.00,-98.00
+70.00,-11.00,+56.00,+11.00,-1.00,-12.00,+4.00,+40.00,-1.00,-75.00,+20.00,+22.00,+29.00,+23.00,+68.00,+12.00
+24.00,+5.00,-98.00,-12.00,+15.00,+52.00,+87.00,+127.00,-12.00,+12.00,-96.00,-71.00,-41.00,-81.00,-128.00,-38.00
+108.00,+2.00,+70.00,-10.00,-8.00,+49.00,-43.00,-84.00,-28.00,+4.00,+87.00,+25.00,+51.00,+60.00,+75.00,+9.00
-80.00,-5.00,+46.00,+3.00,+10.00,-18.00,+14.00,-117.00,-17.00,+11.00,+28.00,+23.00,-1.00,+14.00,-5.00,-28.00
+46.00,-3.00,+32.00,+8.00,-10.00,-4.00,-23.00,+44.00,-58.00,+10.00,-19.00,-3.00,-4.00,+54.00,+39.00,-36.00
-109.00,-28.00,-100.00,-12.00,-5.00,-18.00,+21.00,-79.00,-26.00,+30.00,+47.00,+12.00,+63.00,+34.00,-1.00,-73.00
+55.00,-40.00,-6.00,-1.00,-13.00,-11.00,-82.00,+11.00,-41.00,+3.00,+41.00,-7.00,-126.00,-39.00,+54.00,+61.00
-3.00,+2.00,-19.00,-29.00,-9.00,+87.00,+13.00,+116.00,+18.00,-7.00,-128.00,-31.00,+98.00,-53.00,+17.00,-8.00
+32.00,+7.00,-1.00,-11.00,+5.00,-112.00,-14.00,+60.00,-29.00,-10.00,+16.00,-2.00,+18.00,-7.00,-45.00,+33.00
+31.00,-1.00,+57.00,+33.00,+4.00,-15.00,-36.00,-10.00,+21.00,+64.00,-37.00,+4.00,+16.00,+92.00,+8.00,-3.00
-98.00,+30.00,-12.00,+15.00,+10.00,+6.00,+28.00,-94.00,-40.00,+10.00,+24.00,+2.00,+20.00,-77.00,-8.00,-128.00
+18.00,-29.00,-76.00,-11.00,+0.00,-28.00,-8.00,+63.00,+24.00,+16.00,+127.00,+48.00,-20.00,+75.00,-23.00,+1.00
-51.00,+30.00,+23.00,+0.00,-4.00,+30.00,+3.00,-103.00,+16.00,-60.00,+28.00,-5.00,+110.00,-24.00,+109.00,+60.00
-4.00,+5.00,-121.00,-14.00,-1.00,+8.00,-13.00,-72.00,-110.00,-59.00,-119.00,-66.00,-30.00,-73.00,-76.00,+40.00
-91.00,-21.00,-18.00,-6.00,-10.00,-29.00,-7.00,+77.00,+3.00,+6.00,+3.00,+14.00,+43.00,+100.00,+1.00,+44.00
+19.00,-7.00,-47.00,+20.00,+18.00,+9.00,+15.00,+73.00,-2.00,-3.00,+40.00,-15.00,-98.00,-128.00,-12.00,+20.00
+61.00,-2.00,+21.00,-3.00,-3.00,+120.00,-5.00,-63.00,+61.00,+25.00,+16.00,+29.00,-6.00,+23.00,-14.00,-30.00
+116.00,+35.00,+19.00,-12.00,-16.00,-87.00,+0.00,+48.00,+63.00,+3.00,+81.00,+14.00,+29.00,+51.00,+4.00,-30.00
-6.00,+9.00,+36.00,+0.00,+3.00,+44.00,-9.00,-48.00,-10.00,-62.00,-65.00,-6.00,-44.00,+36.00,-87.00,-72.00
-95.00,-1.00,-52.00,-5.00,-2.00,+47.00,+18.00,-92.00,-112.00,-20.00,-87.00,-15.00,-20.00,+7.00,-49.00,+19.00
-95.00,-23.00,-11.00,-10.00,-15.00,-34.00,-26.00,-86.00,+33.00,-38.00,-53.00,-49.00,-128.00,-56.00,-35.00,+108.00
-1.00,+57.00,+102.00,+8.00,+6.00,+91.00,+41.00,+71.00,+106.00,-41.00,+53.00,+1.00,+109.00,+50.00,+100.00,-41.00
+101.00,+14.00,+48.00,+9.00,-15.00,-23.00,-36.00,+37.00,+127.00,+22.00,+22.00,+3.00,-63.00,-89.00,-40.00,+102.00
+127.00,-2.00,-12.00,+13.00,+16.00,-67.00,-11.00,+48.00,+127.00,+17.00,+44.00,+10.00,+31.00,+113.00,+29.00,-43.00
+44.00,+19.00,-45.00,-6.00,+4.00,+79.00,+52.00,+102.00,+22.00,+49.00,+42.00,+27.00,-47.00,-93.00,-70.00,-10.00
-66.00,-13.00,-79.00,-7.00,-7.00,+12.00,-29.00,-59.00,+32.00,+17.00,+27.00,+15.00,-24.00,+105.00,+59.00,+13.00
-22.00,+9.00,+0.00,-9.00,-9.00,-29.00,+16.00,-16.00,-16.00,-83.00,-72.00,-37.00,-10.00,-87.00,-111.00,-118.00
-41.00,-32.00,-49.00,-7.00,-1.00,-43.00,-2.00,-70.00,+26.00,-13.00,-14.00,-25.00,+87.00,-37.00,+121.00,+41.00
+50.00,-24.00,+21.00,+2.00,-6.00,+32.00,-11.00,-22.00,+98.00,+0.00,+20.00,-1.00,+59.00,-12.00,+90.00,+73.00
-41.00,-6.00,-23.00,-18.00,-8.00,-85.00,+0.00,+102.00,-77.00,-7.00,+16.00,+22.00,-19.00,+6.00,-6.00,+72.00
+10.00,+4.00,-45.00,+5.00,+17.00,+51.00,+25.00,-90.00,-39.00,+53.00,+30.00,+16.00,+11.00,+22.00,+6.00,-48.00
+92.00,+50.00,+4.00,-2.00,-5.00,-96.00,-23.00,+94.00,-75.00,-20.00,-11.00,+5.00,-21.00,+11.00,-20.00,+4.00
-30.00,-80.00,-45.00,+6.00,+7.00,+15.00,+6.00,+5.00,-17.00,+12.00,+42.00,+0.00,-47.00,+32.00,-78.00,-76.00
+51.00,+15.00,-14.00,-7.00,+8.00,+39.00,+49.00,+21.00,+15.00,-55.00,+76.00,+50.00,+105.00,+60.00,-2.00,+11.00
-58.00,-26.00,+6.00,-7.00,-12.00,+43.00,-9.00,+62.00,+15.00,-69.00,-70.00,-72.00,-122.00,-99.00,-46.00,+37.00
+11.00,-39.00,-43.00,-8.00,+1.00,+23.00,+33.00,+40.00,+6.00,-37.00,+50.00,-4.00,+88.00,+8.00,-49.00,-66.00
+44.00,+40.00,+14.00,-16.00,-18.00,-35.00,-70.00,+60.00,+15.00,+2.00,+23.00,+5.00,+69.00,+70.00,+113.00,+59.00
+102.00,+9.00,+62.00,+30.00,+25.00,-67.00,+22.00,+76.00,-101.00,+37.00,+32.00,+16.00,-56.00,-85.00,-59.00,-31.00
-50.00,+21.00,+48.00,-1.00,+1.00,+39.00,-2.00,-70.00,-43.00,+42.00,-12.00,+13.00,-7.00,+32.00,+19.00,+107.00
+44.00,+23.00,+11.00,+9.00,+7.00,+79.00,+24.00,-26.00,+45.00,-8.00,-2.00,+10.00,+42.00,+8.00,+50.00,-109.00
-96.00,-38.00,-46.00,-12.00,-6.00,-34.00,-14.00,+58.00,-17.00,+6.00,+4.00,+2.00,+61.00,+15.00,-128.00,-101.00
+51.00,-15.00,+30.00,+5.00,+6.00,+105.00,+15.00,-12.00,+94.00,-9.00,-92.00,-14.00,-56.00,-4.00,+66.00,+79.00
-20.00,-13.00,-85.00,-15.00,-1.00,-42.00,-2.00,-9.00,+50.00,-7.00,-53.00,-17.00,-12.00,-13.00,+64.00,-64.00
-56.00,-14.00,+34.00,-5.00,-1.00,-7.00,+3.00,-28.00,+6.00,-8.00,-62.00,-37.00,-61.00,+24.00,-40.00,-61.00
-103.00,+27.00,+81.00,+22.00,-1.00,-14.00,+9.00,-48.00,+36.00,+26.00,+10.00,+21.00,+8.00,-9.00,+69.00,+90.00
+4.00,+44.00,-24.00,+3.00,+4.00,+27.00,-21.00,-44.00,+40.00,+44.00,-17.00,-8.00,+49.00,-6.00,-60.00,-37.00
-21.00,-23.00,-34.00,-4.00,+7.00,-38.00,+12.00,-6.00,+15.00,-10.00,+50.00,+14.00,-13.00,-12.00,+5.00,-35.00
-57.00,-23.00,-29.00,-8.00,-11.00,-16.00,-15.00,-10.00,+18.00,+30.00,+87.00,+41.00,-24.00,+4.00,+18.00,+54.00
+63.00,+1.00,+30.00,+14.00,+17.00,+29.00,+26.00,+73.00,-48.00,+28.00,-128.00,-58.00,-18.00,+30.00,-51.00,-127.00
+18.00,+8.00,-24.00,-9.00,-21.00,+8.00,+9.00,+14.00,+14.00,-44.00,-37.00,-23.00,-41.00,-30.00,+24.00,+40.00
+42.00,-8.00,-9.00,-2.00,-10.00,-5.00,-37.00,+31.00,+24.00,+44.00,+6.00,+6.00,-36.00,-6.00,+2.00,-8.00
-33.00,+32.00,-12.00,+3.00,-1.00,+18.00,+2.00,+12.00,-64.00,+12.00,+38.00,+8.00,+81.00,-19.00,-58.00,-44.00
+6.00,-12.00,-17.00,-17.00,-2.00,-17.00,-10.00,-15.00,+52.00,+8.00,+7.00,+10.00,+45.00,+17.00,+1.00,-21.00
-97.00,+14.00,+111.00,-1.00,+9.00,-18.00,+21.00,-16.00,-22.00,+8.00,-41.00,-22.00,-17.00,+79.00,+14.00,+20.00
+8.00,-32.00,-3.00,-3.00,-7.00,-97.00,+6.00,+39.00,+1.00,+16.00,+37.00,+25.00,+3.00,-61.00,+27.00,-51.00
-14.00,-17.00,+12.00,+15.00,+1.00,+58.00,-5.00,-87.00,+41.00,+5.00,-35.00,+4.00,+26.00,+30.00,-17.00,+6.00
-11.00,+52.00,+0.00,-10.00,-6.00,+10.00,+8.00,-80.00,+26.00,-19.00,+73.00,+23.00,-48.00,-85.00,-60.00,+19.00
-33.00,-39.00,-51.00,-2.00,-4.00,+16.00,-15.00,-53.00,+85.00,-29.00,-84.00,-11.00,+25.00,+30.00,-21.00,-57.00
+3.00,-2.00,-32.00,-6.00,-5.00,-25.00,+1.00,-107.00,+27.00,-51.00,+55.00,+0.00,-48.00,+79.00,-71.00,-25.00
-85.00,-11.00,-31.00,-17.00,-10.00,-28.00,-44.00,-43.00,+14.00,+6.00,-101.00,-44.00,+18.00,+59.00,+9.00,+56.00
+87.00,+48.00,+98.00,+33.00,+6.00,-53.00,+28.00,+86.00,-18.00,-4.00,+18.00,-1.00,-30.00,-97.00,+0.00,+52.00
+22.00,-21.00,-24.00,+4.00,+1.00,-35.00,-10.00,-18.00,-28.00,+8.00,+16.00,-3.00,-15.00,+60.00,-16.00,-75.00
+13.00,+45.00,-7.00,+5.00,+6.00,+53.00,+6.00,+18.00,-68.00,-4.00,+35.00,+13.00,+61.00,+29.00,-12.00,+70.00
+8.00,-23.00,-71.00,-16.00,+1.00,+14.00,+1.00,+15.00,-18.00,+44.00,+70.00,+33.00,+29.00,+17.00,+60.00,+62.00
-65.00,-39.00,-40.00,-11.00,-5.00,+23.00,-26.00,-20.00,-62.00,-26.00,-86.00,-16.00,-59.00,+29.00,+33.00,-23.00
-15.00,+11.00,-29.00,+1.00,-2.00,-106.00,-44.00,-37.00,-41.00,-15.00,+15.00,-14.00,+5.00,-42.00,+12.00,-16.00
+0.00,+12.00,+20.00,-2.00,+0.00,+32.00,+26.00,+112.00,-25.00,+24.00,+4.00,-4.00,+35.00,-16.00,+2.00,+24.00
+100.00,+18.00,+74.00,+13.00,+7.00,-14.00,+43.00,+87.00,+11.00,-74.00,+95.00,+21.00,-47.00,-43.00,+16.00,+9.00
-31.00,-22.00,-58.00,-10.00,+2.00,-2.00,+0.00,-81.00,-22.00,+4.00,-31.00,-16.00,+18.00,+23.00,+4.00,-34.00
-51.00,-14.00,-20.00,-6.00,-3.00,+23.00,+3.00,+10.00,+19.00,+19.00,-10.00,-4.00,-25.00,+15.00,+60.00,-37.00
-42.00,-6.00,-21.00,-3.00,+2.00,-31.00,-15.00,-30.00,-28.00,-34.00,-23.00,-19.00,-10.00,-72.00,-60.00,-35.00
+4.00,+8.00,-28.00,-3.00,-2.00,+14.00,+14.00,+19.00,-49.00,-6.00,-61.00,-21.00,-128.00,-87.00,+30.00,+3.00
-30.00,+77.00,+57.00,-5.00,-20.00,+11.00,-6.00,-84.00,-61.00,-4.00,+55.00,+22.00,+13.00,+30.00,+42.00,+52.00
+38.00,+5.00,+52.00,+9.00,+3.00,-17.00,+7.00,-17.00,-42.00,-9.00,+23.00,+4.00,+12.00,+6.00,-46.00,+19.00
-108.00,-45.00,-68.00,-4.00,+1.00,+76.00,-62.00,-97.00,-34.00,+9.00,-25.00,+3.00,+52.00,+55.00,+24.00,-60.00
+60.00,+20.00,+59.00,+16.00,-1.00,-128.00,-25.00,-34.00,-119.00,+8.00,-4.00,-1.00,-36.00,+21.00,+13.00,-35.00
+60.00,-3.00,+16.00,-1.00,+9.00,+71.00,+57.00,+106.00,-48.00,+11.00,-15.00,-6.00,-46.00,-21.00,-50.00,-9.00
+18.00,-22.00,-44.00,-14.00,-8.00,+18.00,+21.00,+5.00,+37.00,+12.00,-7.00,+16.00,+36.00,-34.00,+16.00,+31.00
+87.00,+35.00,-47.00,-3.00,+3.00,-65.00,-18.00,+23.00,+81.00,+6.00,+11.00,+3.00,-7.00,+13.00,-9.00,-10.00
-19.00,-4.00,+98.00,+12.00,-2.00,+58.00,+0.00,-7.00,+127.00,+23.00,+1.00,+0.00,+17.00,-38.00,+14.00,-42.00
-13.00,-23.00,-35.00,+2.00,+0.00,-24.00,-16.00,-83.00,+27.00,+24.00,+48.00,+3.00,+12.00,+25.00,+47.00,-1.00
-44.00,-14.00,-96.00,-23.00,-12.00,-105.00,-43.00,-93.00,+38.00,-10.00,+15.00,-7.00,+76.00,+7.00,-26.00,+40.00
+30.00,-2.00,+89.00,+30.00,+15.00,+10.00,+37.00,+96.00,-8.00,-16.00,+28.00,+16.00,-2.00,-27.00,+27.00,+3.00
-91.00,-40.00,-48.00,-12.00,-4.00,-6.00,-21.00,-68.00,+30.00,+21.00,-70.00,-25.00,+3.00,-12.00,-68.00,-21.00
+42.00,+10.00,+39.00,+1.00,-4.00,-51.00,+25.00,+87.00,+16.00,-12.00,+19.00,+12.00,+1.00,+12.00,-15.00,+32.00
-32.00,-16.00,-62.00,-6.00,-7.00,+3.00,+6.00,-28.00,+57.00,+36.00,+83.00,+20.00,-44.00,+4.00,+25.00,-24.00
-36.00,-14.00,+62.00,+1.00,-6.00,+6.00,-44.00,-41.00,+11.00,+0.00,-108.00,-34.00,+0.00,-33.00,+4.00,-24.00
+43.00,+11.00,-34.00,-7.00,-3.00,+4.00,+29.00,+64.00,+24.00,-21.00,+23.00,+1.00,-14.00,+19.00,+5.00,+55.00
+11.00,-13.00,+67.00,+15.00,+5.00,+1.00,-14.00,-63.00,+59.00,+1.00,+0.00,+1.00,-8.00,+12.00,+16.00,+18.00
-43.00,-6.00,-4.00,+2.00,+3.00,-47.00,-1.00,+4.00,+24.00,+10.00,+34.00,+6.00,+18.00,-3.00,-19.00,+2.00
-2.00,-28.00,-94.00,-14.00,+3.00,+33.00,-16.00,+22.00,+10.00,+10.00,-3.00,-5.00,+60.00,+80.00,-3.00,-21.00
+14.00,+17.00,+65.00,+12.00,+1.00,-15.00,+5.00,-27.00,-27.00,+12.00,-10.00,-12.00,-56.00,-42.00,+92.00,-8.00
+9.00,-26.00,-89.00,-11.00,-6.00,+2.00,-13.00,-50.00,-48.00,-6.00,-62.00,-13.00,-69.00,-29.00,+23.00,+11.00
+22.00,+12.00,+18.00,+6.00,+7.00,+18.00,+28.00,+64.00,-28.00,-16.00,+10.00,-2.00,+54.00,+44.00,+8.00,+21.00
+102.00,+47.00,+31.00,+8.00,+8.00,-26.00,+55.00,+72.00,-5.00,+60.00,+65.00,+15.00,-8.00,-31.00,-21.00,+51.00
+28.00,-1.00,+26.00,+0.00,+1.00,+21.00,-18.00,+19.00,-52.00,-26.00,-71.00,-26.00,+43.00,+57.00,-16.00,-10.00
-16.00,+24.00,-41.00,-2.00,+0.00,-32.00,-26.00,-9.00,-19.00,-6.00,+41.00,+10.00,-44.00,-9.00,-32.00,+0.00
-18.00,-18.00,+29.00,+1.00,-4.00,+32.00,+5.00,-41.00,-40.00,-19.00,-34.00,-2.00,-2.00,-47.00,+39.00,-17.00
+0.00,+8.00,-6.00,-5.00,-10.00,-23.00,+9.00,+66.00,-66.00,-12.00,-15.00,-21.00,-16.00,-21.00,-71.00,-92.00
+15.00,+7.00,-14.00,-2.00,+3.00,+25.00,+4.00,-28.00,+18.00,+24.00,+5.00,-2.00,-59.00,-69.00,-11.00,+36.00
+14.00,+33.00,-14.00,-3.00,+3.00,-10.00,-13.00,+44.00,+12.00,+1.00,-7.00,+4.00,+24.00,+29.00,-15.00,-16.00
-32.00,-48.00,+29.00,+0.00,-5.00,+26.00,+4.00,-20.00,-3.00,-7.00,-24.00,-2.00,-5.00,+21.00,-2.00,+21.00
-33.00,+1.00,+2.00,-4.00,-3.00,-3.00,+7.00,-101.00,+38.00,-16.00,+21.00,+13.00,+53.00,+43.00,+21.00,-9.00
+17.00,-5.00,-7.00,+0.00,-1.00,+43.00,+9.00,+82.00,+52.00,+31.00,+47.00,+15.00,+5.00,+33.00,+29.00,+38.00
+18.00,+3.00,-14.00,+1.00,+7.00,+27.00,+0.00,-38.00,-18.00,-13.00,+4.00,-13.00,+50.00,-5.00,-44.00,-27.00
-15.00,+18.00,+1.00,+1.00,+0.00,+6.00,-12.00,-45.00,-7.00,-16.00,-32.00,-16.00,-27.00,-39.00,-15.00,-37.00
-33.00,-26.00,-3.00,+2.00,+4.00,+20.00,+24.00,-18.00,+7.00,+37.00,+33.00,+15.00,-10.00,+67.00,+48.00,+55.00
+57.00,+28.00,+24.00,+5.00,+6.00,-26.00,-9.00,-10.00,-61.00,-16.00,+6.00,-1.00,-20.00,-50.00,-97.00,-54.00
+9.00,-19.00,-19.00,-2.00,+2.00,+19.00,+6.00,-69.00,+57.00,+41.00,+41.00,+13.00,+4.00,+11.00,+68.00,+1.00
+46.00,+33.00,+16.00,+0.00,-2.00,+30.00,-8.00,+87.00,+10.00,-35.00,-44.00,-25.00,-38.00,+0.00,-84.00,-30.00
-61.00,-38.00,-80.00,-14.00,-7.00,-17.00,-39.00,-46.00,+35.00,-11.00,-4.00,-6.00,+5.00,-61.00,+33.00,+38.00
-68.00,+60.00,+75.00,+12.00,+4.00,-17.00,+35.00,-4.00,-27.00,+8.00,+14.00,-4.00,-26.00,-8.00,-5.00,+7.00
-116.00,-45.00,+10.00,+3.00,+1.00,+15.00,+15.00,-52.00,-15.00,-11.00,+9.00,-2.00,+106.00,+5.00,-19.00,+3.00
+19.00,+27.00,+22.00,+2.00,-4.00,-25.00,-15.00,-56.00,-16.00,+8.00,+38.00,+2.00,+9.00,-2.00,+3.00,-59.00
+79.00,+7.00,+27.00,+11.00,+0.00,+30.00,+6.00,-23.00,+12.00,+17.00,+2.00,+3.00,+22.00,+41.00,+4.00,+47.00
-17.00,-26.00,-72.00,-15.00,-5.00,-29.00,-10.00,-78.00,+5.00,+46.00,+68.00,+22.00,+7.00,+21.00,+24.00,+6.00
+25.00,-26.00,-15.00,-13.00,-7.00,-14.00,-6.00,+60.00,-29.00,-45.00,-66.00,-37.00,-115.00,-5.00,-42.00,+4.00
-27.00,-11.00,-29.00,+4.00,-3.00,+18.00,+13.00,-28.00,-12.00,+34.00,+70.00,+24.00,+67.00,+28.00,+5.00,+1.00
+17.00,-23.00,-15.00,-15.00,+0.00,+36.00,-11.00,+11.00,-24.00,-13.00,-87.00,-23.00,+20.00,-34.00,+100.00,-21.00
+15.00,+8.00,+11.00,+2.00,+0.00,+18.00,-4.00,-65.00,+29.00,-12.00,+33.00,+15.00,+10.00,+64.00,+12.00,+28.00
+45.00,+80.00,+55.00,+24.00,+7.00,+5.00,+0.00,-14.00,+0.00,-10.00,-23.00,+2.00,-9.00,-100.00,-3.00,-12.00
+0.00,-15.00,-28.00,-12.00,-8.00,-21.00,-46.00,-50.00,-31.00,+19.00,-20.00,+0.00,-26.00,+21.00,-11.00,-24.00
-20.00,+22.00,-34.00,-4.00,-6.00,-87.00,+31.00,-60.00,-24.00,-17.00,+127.00,+43.00,+32.00,+31.00,-19.00,+8.00
+33.00,-28.00,-33.00,-9.00,-3.00,+7.00,+4.00,-67.00,+52.00,+1.00,-58.00,-24.00,+16.00,+9.00,+4.00,+28.00
-8.00,-22.00,-5.00,+1.00,-4.00,-63.00,-9.00,+32.00,+30.00,-81.00,-84.00,-29.00,-55.00,-18.00,+30.00,-54.00
-12.00,+26.00,+9.00,+1.00,+0.00,+17.00,+6.00,-5.00,+91.00,-11.00,+3.00,-2.00,+46.00,+26.00,-10.00,+39.00
-26.00,-4.00,+12.00,-3.00,-3.00,+48.00,+3.00,-63.00,-47.00,+15.00,+45.00,+18.00,-5.00,-10.00,-4.00,+16.00
-45.00,-25.00,-21.00,-9.00,-13.00,-32.00,-26.00,-24.00,+5.00,-25.00,-54.00,-24.00,+2.00,-50.00,-24.00,-32.00
+24.00,-38.00,-41.00,-8.00,+5.00,-51.00,+8.00,+53.00,+56.00,+13.00,+33.00,+16.00,+44.00,+53.00,+0.00,+6.00
+18.00,+5.00,+60.00,+19.00,+2.00,+12.00,-4.00,-25.00,+12.00,+42.00,-16.00,+0.00,-17.00,-59.00,+5.00,-3.00
+20.00,+13.00,+20.00,+3.00,+1.00,+10.00,+6.00,+101.00,+40.00,-19.00,-9.00,-1.00,-20.00,+39.00,-6.00,+23.00
-14.00,-3.00,-38.00,-3.00,+0.00,-39.00,-33.00,-6.00,+13.00,-29.00,+0.00,+6.00,+39.00,+35.00,-22.00,+13.00
-7.00,+4.00,+41.00,+1.00,+1.00,+26.00,+18.00,+48.00,-14.00,+8.00,+68.00,+17.00,-32.00,-76.00,+16.00,-38.00
+13.00,-28.00,+2.00,-5.00,-1.00,+54.00,+15.00,+61.00,-32.00,-28.00,-100.00,-29.00,-16.00,+8.00,+1.00,-12.00
+15.00,+30.00,+25.00,+8.00,+0.00,-118.00,+5.00,-41.00,+15.00,-5.00,-21.00,-25.00,-39.00,-10.00,-4.00,+20.00
-9.00,-20.00,-5.00,-11.00,-7.00,+35.00,-34.00,+2.00,+28.00,+24.00,+38.00,+17.00,+13.00,+20.00,-22.00,-36.00
+7.00,+58.00,+64.00,+10.00,+3.00,+12.00,-3.00,-39.00,-26.00,+18.00,-15.00,+4.00,+29.00,+57.00,+47.00,+57.00
+14.00,-3.00,-23.00,+1.00,+3.00,+52.00,-12.00,+33.00,-2.00,-1.00,+36.00,+3.00,-55.00,-58.00,-12.00,-20.00
+6.00,-3.00,+14.00,-1.00,-2.00,-68.00,+23.00,+64.00,+5.00,+9.00,-36.00,-6.00,+21.00,+19.00,-24.00,+56.00
+3.00,+5.00,-30.00,+3.00,+2.00,+20.00,+0.00,-24.00,-22.00,-43.00,+79.00,+17.00,-22.00,+1.00,-60.00,-83.00
-20.00,-33.00,-63.00,-11.00,-9.00,-49.00,-21.00,-89.00,-28.00,-45.00,-50.00,-24.00,+6.00,-45.00,-77.00,-6.00
+16.00,+11.00,+35.00,+3.00,+4.00,+24.00,-3.00,-14.00,-3.00,+17.00,+17.00,-4.00,-42.00,+21.00,+85.00,+27.00
-30.00,-11.00,-46.00,-4.00,-1.00,+23.00,-6.00,-4.00,+3.00,+22.00,+21.00,+5.00,+61.00,-40.00,-4.00,+15.00
+3.00,-6.00,-3.00,-5.00,-1.00,-30.00,-3.00,+12.00,-43.00,-39.00,-36.00,-13.00,+3.00,-3.00,+21.00,-69.00
-6.00,-13.00,+16.00,+0.00,-4.00,+48.00,+6.00,+49.00,+5.00,+37.00,+50.00,+21.00,+22.00,+54.00,-45.00,-4.00
+18.00,+1.00,-33.00,-3.00,-1.00,-28.00,+19.00,+19.00,+11.00,+0.00,-34.00,-11.00,-46.00,-35.00,-13.00,+3.00
+15.00,+10.00,+31.00,+2.00,+2.00,+34.00,-6.00,-1.00,+4.00,-29.00,-3.00,+3.00,-6.00,+19.00,+16.00,-30.00
-11.00,-3.00,+6.00,+1.00,+4.00,+17.00,+18.00,+9.00,+10.00,+14.00,+29.00,+9.00,-11.00,+8.00,+23.00,+50.00
-28.00,-16.00,-30.00,-8.00,-20.00,-5.00,-41.00,-19.00,+5.00,-1.00,-18.00,+0.00,+39.00,+19.00,+12.00,+3.00
-20.00,-9.00,-67.00,-5.00,+1.00,-43.00,+22.00,-53.00,-31.00,-4.00,-36.00,-9.00,+0.00,-8.00,-6.00,+23.00
+29.00,-2.00,+36.00,+0.00,+4.00,+5.00,-18.00,+22.00,-13.00,-3.00,+8.00,+0.00,-21.00,+0.00,+12.00,+13.00
+42.00,+65.00,+127.00,+32.00,+11.00,+60.00,+37.00,+32.00,-51.00,-2.00,-17.00,-4.00,+3.00,-24.00,+12.00,-4.00
-8.00,-25.00,-45.00,-5.00,+2.00,-5.00,-22.00,-36.00,-4.00,+39.00,-7.00,-4.00,-38.00,+12.00,+1.00,+14.00
-27.00,+21.00,-4.00,-5.00,-5.00,-16.00,-26.00,-95.00,+35.00,-15.00,+52.00,+25.00,+72.00,+62.00,+0.00,+6.00
+11.00,-29.00,-34.00,-7.00,-9.00,+15.00,-2.00,+56.00,-38.00,-14.00,+67.00,-2.00,-38.00,+24.00,-48.00,-43.00
-30.00,-18.00,+6.00,+3.00,+8.00,+41.00,+16.00,-22.00,+43.00,+2.00,-94.00,-34.00,-27.00,-123.00,-21.00,+11.00
-5.00,-4.00,-29.00,-12.00,+11.00,+36.00,+75.00,+75.00,+19.00,-29.00,-18.00,-23.00,-69.00,-22.00,-12.00,+46.00
+12.00,+9.00,+71.00,+16.00,+0.00,+42.00,-22.00,-39.00,+1.00,+9.00,+31.00,+13.00,+52.00,+0.00,+7.00,+37.00
+13.00,+15.00,+7.00,+5.00,+3.00,+33.00,-3.00,-40.00,+5.00,+9.00,+5.00,+10.00,+18.00,+35.00,+1.00,-36.00
-53.00,-32.00,-64.00,-12.00,-5.00,-44.00,-17.00,-28.00,-34.00,+13.00,+35.00,+5.00,-11.00,+33.00,+73.00,-11.00
+78.00,+20.00,+26.00,+6.00,+0.00,+19.00,+4.00,+35.00,-22.00,+38.00,+92.00,+24.00,+68.00,+85.00,+33.00,-32.00
-23.00,-10.00,-24.00,-11.00,-1.00,-31.00,+7.00,+33.00,-19.00,-9.00,-96.00,-47.00,-116.00,-127.00,-21.00,-43.00
-19.00,-14.00,+8.00,-8.00,-5.00,+0.00,+2.00,+57.00,+12.00,-18.00,-47.00,-21.00,-3.00,+10.00,+7.00,-2.00
+73.00,-19.00,-22.00,-5.00,-8.00,-23.00,-24.00,+47.00,-33.00,-4.00,+55.00,+8.00,+2.00,-17.00,-31.00,+14.00
-8.00,-19.00,-26.00,+0.00,-1.00,-51.00,+3.00,-23.00,-14.00,+7.00,-11.00,+5.00,-27.00,+22.00,-1.00,-30.00
+34.00,+24.00,+43.00,+7.00,+8.00,-36.00,-5.00,-21.00,+16.00,+6.00,+48.00,+20.00,+46.00,+39.00,+33.00,+46.00
+56.00,+1.00,-3.00,-3.00,-5.00,+13.00,+3.00,-68.00,+11.00,-15.00,+0.00,+3.00,-14.00,-21.00,-60.00,-34.00
-29.00,-14.00,-41.00,-8.00,-6.00,+3.00,+6.00,+13.00,-1.00,+19.00,-35.00,-13.00,+9.00,+1.00,+68.00,+22.00
+8.00,-4.00,-5.00,-9.00,-11.00,-31.00,-37.00,+46.00,-19.00,-26.00,+16.00,+13.00,+20.00,+39.00,+27.00,+28.00
-24.00,-11.00,+9.00,+2.00,+1.00,+68.00,-33.00,+7.00,-17.00,-64.00,-38.00,+0.00,-27.00,-48.00,-42.00,-25.00
-20.00,-9.00,-8.00,+6.00,+7.00,+14.00,+36.00,-14.00,+0.00,+11.00,-65.00,-25.00,-28.00,-58.00,-36.00,-5.00
+17.00,+2.00,-36.00,-8.00,+7.00,+0.00,+16.00,+5.00,+29.00,-2.00,+35.00,+15.00,+18.00,+27.00,-47.00,+22.00
-9.00,+12.00,-7.00,+1.00,-9.00,+8.00,-14.00,+37.00,-30.00,-9.00,+6.00,+1.00,+57.00,+72.00,+46.00,-47.00
-2.00,+1.00,-16.00,+1.00,-2.00,+39.00,+30.00,+9.00,-2.00,+31.00,-18.00,+15.00,-1.00,-26.00,+69.00,+45.00
-21.00,-17.00,+22.00,-6.00,-7.00,-21.00,-14.00,+18.00,+13.00,-20.00,-44.00,-21.00,-54.00,-75.00,+8.00,+5.00
+27.00,+17.00,-4.00,+13.00,+2.00,-49.00,+5.00,+8.00,+13.00,+15.00,+58.00,+15.00,-5.00,+7.00,-31.00,-18.00
+16.00,-4.00,-22.00,+0.00,+10.00,+40.00,-15.00,-70.00,-2.00,+33.00,-25.00,-13.00,+32.00,-38.00,-35.00,-76.00
+30.00,+42.00,+92.00,+8.00,+2.00,-8.00,+35.00,+14.00,-23.00,-30.00,+0.00,-2.00,+1.00,+77.00,-15.00,+42.00
-44.00,+0.00,-46.00,-9.00,-9.00,+21.00,+10.00,-109.00,+5.00,+7.00,+59.00,+24.00,+83.00,+91.00,+11.00,-15.00
-2.00,-18.00,+38.00,-1.00,+3.00,-32.00,-24.00,-74.00,-1.00,+38.00,-58.00,-17.00,-17.00,-100.00,+15.00,+45.00
-14.00,-18.00,-3.00,+3.00,-2.00,-66.00,+5.00,+63.00,+4.00,-31.00,+7.00,-8.00,+3.00,+36.00,-76.00,-77.00
-7.00,+7.00,-56.00,+2.00,+0.00,+33.00,-11.00,+21.00,-28.00,+5.00,+45.00,+2.00,+0.00,-85.00,-14.00,-12.00
+33.00,+8.00,-26.00,+0.00,+6.00,+23.00,+34.00,-77.00,-14.00,-13.00,-8.00,-10.00,-55.00,-18.00,+0.00,+20.00
-28.00,+31.00,+80.00,+2.00,-12.00,+47.00,+26.00,-49.00,+36.00,+11.00,+39.00,+19.00,+27.00,+56.00,+22.00,+19.00
+4.00,+12.00,-28.00,-5.00,-2.00,-88.00,-32.00,+15.00,+9.00,+26.00,-54.00,-16.00,+11.00,+1.00,-42.00,+23.00
+31.00,-7.00,-16.00,-10.00,+3.00,+68.00,+13.00,+108.00,+14.00,+21.00,+14.00,+1.00,-27.00,+22.00,+44.00,-35.00
-8.00,+30.00,+9.00,+11.00,+9.00,-1.00,+3.00,+48.00,+15.00,+51.00,+47.00,+12.00,+41.00,+44.00,+19.00,+12.00
-76.00,-8.00,-34.00,-2.00,-1.00,+29.00,-9.00,-12.00,-45.00,-51.00,-18.00,-5.00,-10.00,+23.00,+35.00,+15.00
-36.00,-16.00,-2.00,-8.00,-8.00,-19.00,+25.00,-6.00,-19.00,-11.00,+56.00,+12.00,-34.00,-4.00,+2.00,-11.00
-13.00,-20.00,-15.00,-3.00,+4.00,+16.00,+6.00,+12.00,+8.00,-55.00,-24.00,-18.00,-41.00,-75.00,-19.00,+36.00
-7.00,+14.00,+16.00,+1.00,-10.00,-36.00,-39.00,-68.00,-35.00,-46.00,-24.00,-14.00,-19.00,-8.00,+32.00,+20.00
+27.00,-18.00,-45.00,-3.00,+14.00,-17.00,+29.00,+124.00,+36.00,+44.00,-14.00,-1.00,+49.00,+48.00,-27.00,-18.00
-39.00,+5.00,-17.00,-7.00,+4.00,+43.00,+8.00,-128.00,+3.00,-3.00,-18.00,+2.00,+5.00,-29.00,+29.00,+50.00
+1.00,+12.00,+82.00,+9.00,-9.00,-47.00,-13.00,+11.00,-13.00,+26.00,+41.00,+7.00,-2.00,+39.00,-38.00,-38.00
-21.00,+14.00,+25.00,+11.00,-2.00,-55.00,-24.00,-71.00,-9.00,-15.00,-21.00,+8.00,-12.00,+36.00,+17.00,-14.00
+7.00,-32.00,-31.00,-3.00,-2.00,+0.00,+10.00,+66.00,-7.00,-21.00,+21.00,+9.00,+53.00,+15.00,+12.00,+25.00
+1.00,+2.00,-10.00,+2.00,+4.00,+40.00,+15.00,-19.00,+10.00,+7.00,+68.00,-3.00,-67.00,-67.00,-62.00,-9.00
+32.00,-14.00,-41.00,-10.00,-6.00,-32.00,-7.00,+5.00,+6.00,-8.00,-95.00,-24.00,-15.00,-12.00,-51.00,+12.00
-22.00,-12.00,+10.00,+0.00,-5.00,-28.00,-1.00,-8.00,-21.00,-6.00,-27.00,+5.00,+34.00,+17.00,+114.00,-26.00
+6.00,-13.00,-34.00,-26.00,-20.00,-17.00,-28.00,-82.00,+6.00,+6.00,+5.00,+6.00,-15.00,-59.00,-33.00,+12.00
+2.00,+29.00,+65.00,+28.00,+12.00,-46.00,-8.00,+11.00,-16.00,+19.00,-13.00,-5.00,-19.00,-43.00,+0.00,+48.00
-15.00,-3.00,-7.00,-2.00,+8.00,+19.00,+8.00,-26.00,+45.00,+36.00,+46.00,+6.00,+40.00,+42.00,-1.00,-5.00
+17.00,-12.00,-26.00,-4.00,+1.00,+48.00,+22.00,+78.00,+27.00,+48.00,+20.00,+4.00,+0.00,-12.00,-38.00,+50.00
-36.00,+4.00,-10.00,-1.00,-4.00,-25.00,-37.00,-79.00,-53.00,-49.00,+54.00,+17.00,+12.00,+103.00,-6.00,-27.00
-14.00,-19.00,-43.00,-6.00,+0.00,+43.00,+4.00,-82.00,+39.00,+7.00,-103.00,-29.00,+36.00,-77.00,+40.00,+9.00
-37.00,-24.00,-42.00,-19.00,-8.00,-56.00,-21.00,+16.00,-27.00,-42.00,+7.00,-3.00,-47.00,+16.00,-38.00,-46.00
-16.00,-1.00,+14.00,+3.00,+3.00,+74.00,+9.00,+102.00,+13.00,+46.00,-11.00,-15.00,+7.00,-9.00,+21.00,+8.00
+27.00,+37.00,+13.00,+9.00,+9.00,+36.00,+32.00,+93.00,+8.00,-18.00,-39.00,-14.00,-41.00,-26.00,-11.00,-22.00
-15.00,-15.00,-17.00,-1.00,-11.00,+8.00,-8.00,-1.00,+12.00,+29.00,+74.00,+21.00,+8.00,+6.00,+27.00,-3.00
-21.00,+7.00,-25.00,-2.00,+10.00,-49.00,-7.00,-108.00,-52.00,-35.00,+72.00,+26.00,+22.00,+65.00,+28.00,-21.00
+48.00,-11.00,-11.00,+1.00,-1.00,-13.00,-2.00,+50.00,+36.00,-13.00,-99.00,-25.00,+22.00,-60.00,-102.00,-27.00
-4.00,-2.00,+11.00,+4.00,-5.00,-23.00,-3.00,-14.00,+3.00,-7.00,-21.00,-2.00,+29.00,-31.00,+47.00,+31.00
+14.00,+17.00,+7.00,-2.00,+1.00,+45.00,-7.00,-17.00,-21.00,+16.00,+28.00,-10.00,-41.00,+30.00,-16.00,-6.00
-1.00,-21.00,-35.00,-6.00,-11.00,-37.00,-4.00,-24.00,-23.00,+6.00,+10.00,+12.00,+33.00,-13.00,+16.00,+30.00
-20.00,-20.00,+14.00,-9.00,+4.00,+43.00,-10.00,-5.00,-5.00,+5.00,+38.00,+9.00,-13.00,+3.00,-12.00,-34.00
+2.00,+13.00,+5.00,+8.00,+0.00,+21.00,-19.00,-45.00,+14.00,+2.00,-17.00,-20.00,-20.00,-8.00,-17.00,+18.00
+22.00,-16.00,+29.00,-4.00,-2.00,-23.00,+21.00,+81.00,+6.00,-53.00,-49.00,+1.00,-11.00,+14.00,+11.00,+21.00
-3.00,+57.00,+65.00,+3.00,-9.00,-30.00,-5.00,+81.00,+14.00,-3.00,+5.00,-1.00,+13.00,-9.00,+0.00,-7.00
+2.00,-1.00,+14.00,-1.00,+8.00,+43.00,-3.00,-28.00,+4.00,+16.00,+89.00,+17.00,-12.00,+4.00,+23.00,+1.00
-30.00,-47.00,-82.00,-16.00,-6.00,+6.00,-25.00,-89.00,-13.00,-4.00,-109.00,-33.00,-39.00,-60.00,-33.00,-22.00
+33.00,+29.00,+91.00,+18.00,+0.00,-20.00,+33.00,+80.00,+8.00,+6.00,-5.00,+5.00,+22.00,+17.00,+59.00,+19.00
-64.00,-46.00,-40.00,-8.00,-13.00,-47.00,-59.00,-97.00,-19.00,-22.00,-16.00,-7.00,-2.00,+63.00,-65.00,-57.00
+35.00,+25.00,-48.00,+3.00,+1.00,+72.00,+19.00,+76.00,-18.00,-63.00,-11.00,+7.00,-10.00,-61.00,+27.00,+12.00
-15.00,-3.00,+37.00,+4.00,+3.00,-64.00,-16.00,-32.00,+35.00,+77.00,-13.00,-18.00,-72.00,-9.00,+9.00,-26.00
-21.00,-29.00,-73.00,-16.00,-8.00,-39.00,-10.00,+27.00,+3.00,+19.00,-41.00,+8.00,+71.00,+61.00,+33.00,+8.00
+57.00,+23.00,+87.00,+16.00,+10.00,+13.00,+14.00,-28.00,+12.00,-10.00,-21.00,-15.00,+2.00,-45.00,+29.00,+77.00
-1.00,-12.00,-35.00,+3.00,-5.00,-61.00,-59.00,-80.00,-5.00,+20.00,+11.00,-7.00,-89.00,+33.00,-1.00,-30.00
+1.00,-16.00,+12.00,+1.00,+6.00,+31.00,+18.00,-33.00,+19.00,-32.00,-13.00,+4.00,+55.00,-8.00,-66.00,+17.00
+7.00,+28.00,-13.00,-3.00,+1.00,+5.00,-11.00,-29.00,-18.00,+15.00,+49.00,+14.00,+13.00,+18.00,-15.00,+14.00
-4.00,-19.00,-35.00,-2.00,-3.00,+7.00,+12.00,+69.00,+55.00,+33.00,+12.00,-7.00,-11.00,+1.00,+63.00,-7.00
-28.00,-7.00,+5.00,-8.00,-6.00,-45.00,-6.00,-16.00,-32.00,-15.00,+0.00,-4.00,-55.00,-49.00,+0.00,+29.00
+25.00,+21.00,+6.00,+6.00,+3.00,+21.00,+15.00,+38.00,-13.00,+0.00,+23.00,+7.00,-25.00,-23.00,+32.00,+32.00
-42.00,-4.00,-25.00,-22.00,-18.00,+29.00,-39.00,-32.00,-7.00,-18.00,+7.00,-1.00,+30.00,-1.00,-39.00,-27.00
+1.00,-3.00,+45.00,+28.00,+20.00,+41.00,+69.00,+4.00,+6.00,+18.00,+2.00,+1.00,-8.00,+2.00,+7.00,-13.00
+17.00,+7.00,+11.00,+1.00,+2.00,-14.00,-2.00,-41.00,+11.00,+8.00,+22.00,+8.00,+30.00,+39.00,+4.00,-8.00
-44.00,+18.00,-2.00,+1.00,-5.00,-15.00,+3.00,+43.00,-4.00,-25.00,-25.00,-3.00,-14.00,+13.00,+13.00,-15.00
-54.00,-15.00,-56.00,-6.00,+4.00,+22.00,-1.00,+11.00,-17.00,+31.00,+108.00,+27.00,+20.00,+31.00,-3.00,-6.00
-46.00,-43.00,-73.00,-19.00,-23.00,+46.00,-28.00,-3.00,-9.00,-60.00,-101.00,-50.00,+3.00,-31.00,-3.00,-7.00
+31.00,+62.00,+71.00,+15.00,+27.00,+5.00,+34.00,+82.00,-9.00,+5.00,+14.00,-13.00,-36.00,-24.00,-72.00,-63.00
+5.00,+2.00,+53.00,+1.00,-12.00,-25.00,-42.00,-58.00,-3.00,+20.00,+20.00,+0.00,+42.00,+16.00,+6.00,+3.00
+54.00,+13.00,+24.00,+4.00,+7.00,-35.00,-11.00,+46.00,+19.00,-21.00,+9.00,+1.00,-29.00,-34.00,-15.00,+52.00
+5.00,-2.00,-20.00,-3.00,+2.00,+21.00,+8.00,-26.00,-28.00,+38.00,+58.00,+26.00,+45.00,+60.00,+21.00,+40.00
-21.00,+10.00,-15.00,-3.00,-1.00,-22.00,+24.00,-65.00,+0.00,-37.00,+50.00,+28.00,-16.00,+14.00,+20.00,-4.00
+23.00,-17.00,-19.00,-8.00,-3.00,+4.00,+3.00,+46.00,+8.00,-40.00,-50.00,-43.00,-83.00,-89.00,-23.00,-23.00
+20.00,+5.00,+21.00,+6.00,+5.00,+5.00,+12.00,-26.00,+3.00,-8.00,-11.00,-5.00,+41.00,+32.00,-1.00,-43.00
-3.00,+7.00,-23.00,-7.00,-2.00,-22.00,-7.00,+29.00,+17.00,+26.00,-4.00,-1.00,-27.00,-63.00,-11.00,-13.00
-35.00,-36.00,-44.00,-11.00,-7.00,-38.00,-19.00,-29.00,+0.00,-10.00,-2.00,+14.00,+55.00,+86.00,+36.00,+64.00
+14.00,+26.00,+20.00,+8.00,+0.00,+9.00,+17.00,+39.00,-7.00,+20.00,+52.00,+24.00,+13.00,+35.00,-4.00,-9.00
-7.00,-18.00,+5.00,+1.00,-4.00,+10.00,-9.00,-75.00,+2.00,-8.00,-42.00,-12.00,-9.00,-45.00,+19.00,+15.00
-3.00,-13.00,-60.00,-10.00,+1.00,+11.00,+12.00,-62.00,+12.00,+9.00,+7.00,+1.00,-4.00,-12.00,-21.00,-69.00
+22.00,+24.00,+25.00,+8.00,-11.00,-28.00,-38.00,+76.00,+3.00,+6.00,-18.00,-6.00,+27.00,-2.00,+4.00,+28.00
-8.00,+2.00,+7.00,+4.00,+7.00,-29.00,-1.00,+9.00,-32.00,-7.00,+60.00,+15.00,-6.00,+18.00,-1.00,+2.00
-32.00,+8.00,+10.00,+9.00,+13.00,+79.00,+20.00,-5.00,+27.00,-29.00,-87.00,-18.00,-22.00,-8.00,-7.00,-5.00
-41.00,-4.00,-5.00,-1.00,-3.00,+16.00,-15.00,-58.00,+7.00,+27.00,+55.00,+18.00,+20.00,+26.00,-4.00,+5.00
-7.00,-25.00,-47.00,-18.00,-13.00,-21.00,-9.00,-93.00,-6.00,+13.00,+6.00,+0.00,+35.00,-9.00,-9.00,+4.00
+0.00,-20.00,-38.00,-14.00,-8.00,+18.00,-18.00,+15.00,-5.00,+10.00,-21.00,-3.00,+18.00,+52.00,-10.00,-65.00
+69.00,+8.00,+59.00,+20.00,+11.00,-57.00,+19.00,-3.00,-7.00,-18.00,-67.00,-29.00,-80.00,-113.00,-30.00,+46.00
+14.00,+14.00,+12.00,-1.00,+4.00,-17.00,+18.00,+4.00,-23.00,+12.00,+6.00,-8.00,-39.00,-5.00,+25.00,-12.00
-31.00,-12.00,+9.00,+0.00,-4.00,+21.00,-1.00,-100.00,-17.00,-9.00,+11.00,+0.00,+10.00,-8.00,-8.00,+30.00
-17.00,-10.00,+5.00,-4.00,-7.00,-9.00,-14.00,-9.00,-20.00,+2.00,+44.00,+20.00,+15.00,+108.00,+31.00,+27.00
-41.00,-11.00,-24.00,-8.00,-7.00,-3.00,-12.00,-33.00,+6.00,+54.00,-9.00,+17.00,+30.00,+19.00,+31.00,-23.00
+0.00,+15.00,+7.00,+0.00,+12.00,+10.00,+7.00,-3.00,+1.00,-37.00,-60.00,-31.00,-73.00,-103.00,-43.00,-70.00
-35.00,-6.00,+1.00,+0.00,-16.00,-65.00,-29.00,-10.00,-3.00,+13.00,-31.00,-18.00,+12.00,-30.00,-2.00,+13.00
+21.00,-9.00,+5.00,+4.00,+7.00,+58.00,+31.00,+65.00,-22.00,-22.00,+2.00,+5.00,+5.00,+0.00,+18.00,-3.00
+25.00,+7.00,-52.00,-7.00,-1.00,+23.00,+0.00,+26.00,-7.00,+5.00,+32.00,+10.00,-6.00,+31.00,+4.00,-8.00
+31.00,+0.00,+23.00,+7.00,-1.00,-20.00,-7.00,+10.00,-7.00,+15.00,+4.00,+7.00,+26.00,+6.00,-18.00,+11.00
-40.00,-12.00,-5.00,-4.00,+1.00,+5.00,+4.00,+4.00,+13.00,-10.00,-29.00,-6.00,+5.00,+59.00,+37.00,-21.00
-17.00,-6.00,-41.00,-3.00,+1.00,-5.00,+1.00,-79.00,+24.00,+14.00,-4.00,+0.00,-8.00,-91.00,+18.00,+70.00
+5.00,-20.00,-19.00,-32.00,-13.00,-31.00,-29.00,-34.00,+10.00,+5.00,+57.00,+6.00,-33.00,-24.00,-3.00,-15.00
+0.00,+4.00,+65.00,+25.00,+0.00,+17.00,-12.00,+78.00,-19.00,-21.00,-38.00,-12.00,+9.00,+6.00,-14.00,+7.00
+47.00,+25.00,+20.00,+11.00,+16.00,+65.00,+46.00,+62.00,-15.00,-26.00,+4.00,+5.00,+10.00,+6.00,-19.00,-32.00
+1.00,-6.00,+4.00,-2.00,-3.00,+39.00,+10.00,-17.00,-9.00,+3.00,-14.00,-10.00,-1.00,+17.00,-3.00,+19.00
+14.00,-6.00,-19.00,+2.00,-3.00,-55.00,-30.00,+1.00,-35.00,+16.00,+74.00,+17.00,+19.00,+27.00,+33.00,-41.00
-2.00,-19.00,-38.00,-20.00,-9.00,+30.00,-12.00,+30.00,-35.00,+17.00,-2.00,+11.00,+25.00,+13.00,-52.00,+10.00
-45.00,-17.00,-7.00,-7.00,-15.00,-49.00,-30.00,+47.00,+48.00,-17.00,-113.00,-58.00,-53.00,+20.00,+20.00,+31.00
+14.00,+10.00,+10.00,+9.00,+15.00,-36.00,+55.00,+5.00,-4.00,-30.00,+15.00,-10.00,-37.00,-89.00,+18.00,-99.00
-49.00,+1.00,+9.00,-2.00,+0.00,+3.00,+1.00,-101.00,+26.00,+21.00,-5.00,-9.00,-7.00,-13.00,-5.00,+74.00
+46.00,+1.00,-5.00,-5.00,-29.00,-12.00,-12.00,+45.00,-13.00,+14.00,+77.00,+23.00,+10.00,+28.00,+31.00,+3.00
-13.00,+5.00,+9.00,+5.00,+4.00,+44.00,+26.00,-29.00,+3.00,+13.00,+11.00,+20.00,+97.00,+90.00,-78.00,-30.00
+42.00,-1.00,-2.00,-6.00,-3.00,-46.00,-30.00,+92.00,+20.00,+50.00,-27.00,+11.00,-5.00,-54.00,+72.00,+16.00
-15.00,+6.00,+6.00,+4.00,+2.00,-19.00,-5.00,+28.00,+13.00,-26.00,-19.00,-18.00,-79.00,-34.00,-63.00,+1.00
+15.00,+11.00,-6.00,-1.00,+11.00,+12.00,+23.00,-37.00,+23.00,+0.00,-24.00,-15.00,-6.00,-41.00,+22.00,+25.00
+1.00,-12.00,-12.00,-9.00,+3.00,-23.00,-19.00,-20.00,+30.00,+17.00,+16.00,+9.00,+2.00,-72.00,+2.00,-64.00
+6.00,+20.00,+63.00,+18.00,-3.00,-13.00,-8.00,-21.00,-2.00,-22.00,-6.00,-8.00,+37.00,+42.00,-27.00,+5.00
-8.00,-8.00,-71.00,-15.00,+3.00,+44.00,+11.00,+16.00,-7.00,-16.00,+5.00,+10.00,+16.00,+47.00,+13.00,+2.00
+12.00,+5.00,+61.00,+3.00,+0.00,-15.00,+1.00,-5.00,+5.00,+16.00,+4.00,+2.00,+1.00,+23.00,+8.00,+8.00
+4.00,-21.00,-18.00,+0.00,+2.00,-3.00,-1.00,-17.00,-29.00,-20.00,-1.00,-3.00,-21.00,-18.00,-8.00,+7.00
-68.00,-8.00,-27.00,-3.00,+20.00,+8.00,-10.00,-12.00,+14.00,-11.00,-32.00,+3.00,+28.00,+36.00,-15.00,-9.00
-15.00,+5.00,+7.00,+1.00,-6.00,+16.00,+19.00,+55.00,-12.00,+16.00,+53.00,+1.00,-6.00,-8.00,+24.00,+5.00
-42.00,-15.00,-26.00,-6.00,-21.00,-36.00,-14.00,-81.00,+12.00,-64.00,-94.00,-24.00,-14.00,+0.00,-50.00,-38.00
+14.00,+3.00,+4.00,-2.00,-3.00,-21.00,-7.00,+10.00,-4.00,+26.00,+15.00,-1.00,-10.00,-25.00,+19.00,+48.00
+30.00,+7.00,-4.00,-2.00,-7.00,-11.00,+21.00,-20.00,-19.00,-13.00,+37.00,+12.00,+1.00,+15.00,+0.00,+1.00
+56.00,+13.00,+39.00,+11.00,+11.00,-7.00,+23.00,+82.00,-17.00,-1.00,-9.00,-5.00,+11.00,-13.00,-7.00,+36.00
-37.00,-2.00,-33.00,-7.00,+2.00,+5.00,+1.00,-52.00,+10.00,+12.00,+34.00,+14.00,+9.00,+27.00,+15.00,-21.00
-7.00,-17.00,+9.00,-1.00,+11.00,+20.00,+16.00,+31.00,-34.00,+4.00,+22.00,+9.00,-5.00,-27.00,-26.00,-15.00
+15.00,+2.00,-5.00,-5.00,+8.00,+28.00,-23.00,-22.00,-8.00,-3.00,+3.00,-16.00,-6.00,+53.00,+5.00,-7.00
-35.00,-18.00,+8.00,-4.00,-41.00,-81.00,-24.00,-100.00,-15.00,-7.00,-49.00,-4.00,-6.00,-53.00,-22.00,+7.00
-5.00,-4.00,-23.00,+6.00,+16.00,-24.00,+20.00,+84.00,-7.00,-4.00,+21.00,-1.00,-43.00,-56.00,-24.00,-24.00
+5.00,+27.00,+38.00,+7.00,-2.00,-8.00,-8.00,-14.00,+17.00,+5.00,-18.00,-13.00,-19.00,-45.00,+15.00,+4.00
+3.00,+11.00,-19.00,-6.00,-4.00,+5.00,-1.00,+25.00,+20.00,+4.00,+14.00,+28.00,+89.00,+27.00,-47.00,-17.00
+13.00,-17.00,+7.00,+8.00,+9.00,+18.00,-2.00,-25.00,-10.00,-17.00,-6.00,-17.00,-33.00,+86.00,+26.00,-14.00
+5.00,-6.00,-8.00,-3.00,+0.00,+10.00,+5.00,+4.00,+19.00,+21.00,+41.00,+23.00,+23.00,+2.00,+27.00,+52.00
-66.00,+8.00,-15.00,-4.00,+2.00,-7.00,-5.00,+6.00,-4.00,+2.00,-40.00,-18.00,-26.00,+12.00,+36.00,-5.00
+40.00,-1.00,-3.00,-3.00,-4.00,-10.00,-3.00,+0.00,+1.00,-21.00,+7.00,-15.00,-32.00,-45.00,-52.00,-18.00
-5.00,-2.00,-19.00,-3.00,+5.00,+37.00,+11.00,+3.00,+36.00,-6.00,-12.00,+4.00,+19.00,-20.00,+0.00,-19.00
+12.00,-6.00,-91.00,-23.00,-6.00,-7.00,-11.00,+28.00,-21.00,+3.00,-12.00,-1.00,+15.00,+2.00,+9.00,+30.00
+43.00,+16.00,+89.00,+18.00,+4.00,-1.00,-3.00,-46.00,-9.00,+16.00,+38.00,+12.00,+2.00,+18.00,+2.00,-8.00
+3.00,-2.00,+10.00,+0.00,-3.00,+5.00,+27.00,+83.00,-25.00,-5.00,-4.00,+1.00,-15.00,+17.00,+13.00,-6.00
-25.00,+6.00,-14.00,+1.00,+2.00,+14.00,-7.00,-21.00,+5.00,-5.00,+8.00,+13.00,+21.00,-13.00,-8.00,+2.00
-31.00,+1.00,-4.00,-1.00,+1.00,-7.00,-8.00,+10.00,+27.00,+8.00,+71.00,+8.00,-7.00,+26.00,+4.00,-4.00
+15.00,-14.00,-28.00,-11.00,+25.00,-12.00,-16.00,-14.00,+3.00,+15.00,-84.00,-33.00,-3.00,-19.00,-28.00,-13.00
-14.00,-3.00,-11.00,+0.00,-37.00,-77.00,-12.00,-12.00,-2.00,-25.00,-27.00,-8.00,-16.00,-10.00,-22.00,+24.00
+4.00,-1.00,+21.00,+4.00,+19.00,+95.00,+26.00,-4.00,-8.00,-20.00,-8.00,-9.00,+3.00,-19.00,+37.00,+12.00
-10.00,+1.00,+17.00,+3.00,+18.00,+6.00,+1.00,-96.00,-9.00,-2.00,+15.00,+11.00,+30.00,+21.00,+3.00,+18.00
-12.00,+10.00,-5.00,+2.00,-13.00,-7.00,+37.00,+66.00,-2.00,-3.00,+43.00,+7.00,-17.00,-6.00,-3.00,-25.00
-21.00,-9.00,+10.00,-1.00,+14.00,-4.00,-12.00,-15.00,+10.00,+16.00,-7.00,+9.00,+27.00,+77.00,+23.00,+7.00
+7.00,+9.00,-1.00,-2.00,-4.00,-7.00,-13.00,+21.00,-9.00,-3.00,-8.00,+14.00,+50.00,-20.00,-43.00,-14.00
-28.00,+1.00,+23.00,+2.00,-4.00,-41.00,-10.00,-21.00,-14.00,+1.00,-15.00,-29.00,-96.00,-47.00,-15.00,-31.00
+30.00,-10.00,-24.00,-3.00,+7.00,+16.00,-1.00,-16.00,+4.00,-9.00,+6.00,+26.00,+63.00,-23.00,-4.00,+11.00
+7.00,-1.00,+12.00,-7.00,-9.00,-1.00,-10.00,-30.00,-13.00,-5.00,-13.00,-48.00,-96.00,-27.00,-8.00,+29.00
+8.00,+8.00,+14.00,+5.00,-1.00,-11.00,-4.00,-38.00,-1.00,-2.00,+8.00,-11.00,-36.00,+41.00,+4.00,-5.00
+32.00,-4.00,+1.00,+1.00,-3.00,+16.00,+8.00,+40.00,+5.00,+2.00,-14.00,+2.00,+30.00,+31.00,+7.00,-11.00
+22.00,+29.00,-6.00,+0.00,+1.00,-11.00,-11.00,-3.00,-7.00,-16.00,+7.00,+3.00,-9.00,-16.00,-6.00,+6.00
-3.00,-10.00,+1.00,-1.00,+2.00,+15.00,+2.00,+5.00,+5.00,+8.00,+19.00,+15.00,+27.00,+8.00,+14.00,-1.00
+34.00,+2.00,+16.00,+5.00,+5.00,-4.00,+2.00,+0.00,+7.00,-3.00,-17.00,+3.00,+22.00,+10.00,+1.00,-5.00
-22.00,+2.00,+0.00,-11.00,-1.00,+0.00,-5.00,-71.00,-9.00,-4.00,-25.00,-9.00,-17.00,-17.00,-14.00,-11.00
-17.00,+12.00,+7.00,+11.00,-13.00,-16.00,-13.00,+78.00,+16.00,-14.00,+0.00,-2.00,-23.00,+5.00,+10.00,+8.00
-12.00,+16.00,+5.00,+4.00,+11.00,+34.00,+22.00,-81.00,-21.00,+28.00,+26.00,+22.00,+25.00,-7.00,+2.00,-9.00
+9.00,-1.00,-1.00,-1.00,-6.00,+21.00,+3.00,+15.00,+43.00,-2.00,+8.00,-3.00,-18.00,-9.00,+1.00,-4.00
-28.00,-16.00,+1.00,+2.00,-12.00,-44.00,-8.00,+4.00,-20.00,+2.00,-5.00,-3.00,+14.00,+5.00,-17.00,+9.00
-39.00,-8.00,-24.00,-11.00,-10.00,+15.00,+3.00,-19.00,-3.00,+24.00,+50.00,+9.00,+14.00,+22.00,+61.00,-21.00
-28.00,-26.00,-16.00,-7.00,-18.00,+8.00,-6.00,+12.00,-2.00,-44.00,-44.00,-15.00,-12.00,-41.00,-39.00,-1.00
-11.00,+7.00,+5.00,+0.00,-7.00,-44.00,-40.00,-21.00,-6.00,-7.00,+0.00,-9.00,-8.00,+0.00,-2.00,+1.00
+64.00,+21.00,-2.00,+0.00,+0.00,+20.00,+27.00,+61.00,+4.00,-1.00,+2.00,+17.00,+74.00,+21.00,-4.00,+4.00
+20.00,-12.00,-4.00,-3.00,-18.00,-1.00,-9.00,-32.00,+36.00,+9.00,+29.00,+2.00,-31.00,-5.00,-8.00,+7.00
+43.00,-8.00,+1.00,+1.00,+19.00,+45.00,-3.00,+14.00,-7.00,+5.00,-2.00,-8.00,-33.00,-11.00,+10.00,-14.00
+6.00,-5.00,-9.00,-1.00,+3.00,+10.00,+11.00,+8.00,+1.00,+3.00,-7.00,+4.00,+28.00,+15.00,-11.00,-22.00
+28.00,+13.00,+15.00,+5.00,+7.00,+6.00,-16.00,+0.00,-7.00,+1.00,+11.00,+5.00,+8.00,-11.00,+14.00,+6.00
+4.00,-28.00,-4.00,-1.00,-5.00,-7.00,+2.00,-13.00,-24.00,-10.00,-17.00,-5.00,+27.00,+45.00,-19.00,-33.00
-4.00,-27.00,-16.00,-3.00,+0.00,+26.00,-4.00,-7.00,+9.00,+3.00,-1.00,+9.00,-21.00,-82.00,-18.00,+4.00
-26.00,+6.00,-6.00,-8.00,-13.00,-42.00,-11.00,-3.00,-36.00,-20.00,-8.00,-18.00,+18.00,-14.00,-23.00,-1.00
+44.00,+16.00,+11.00,+9.00,+7.00,+4.00,+0.00,+13.00,+25.00,+29.00,+1.00,+3.00,-23.00,+20.00,+0.00,-3.00
+18.00,+41.00,+7.00,+1.00,-1.00,+23.00,+6.00,+2.00,-1.00,-27.00,-16.00,-6.00,+0.00,-6.00,-2.00,+5.00
-36.00,+2.00,-3.00,+1.00,-14.00,-29.00,-9.00,-9.00,-12.00,-5.00,-1.00,+0.00,+0.00,+29.00,+13.00,-7.00
-6.00,-58.00,-9.00,-8.00,+4.00,-19.00,+6.00,+25.00,+2.00,+37.00,+9.00,+8.00,+14.00,+7.00,-10.00,+15.00
-51.00,-9.00,+9.00,-1.00,-24.00,-17.00,-5.00,+11.00,-39.00,-66.00,-13.00,-1.00,-1.00,-7.00,+3.00,-13.00
-4.00,-36.00,-16.00,-6.00,+9.00,+10.00,-1.00,+0.00,-12.00,+35.00,-1.00,-9.00,-16.00,-11.00,+5.00,+11.00
-33.00,+10.00,-2.00,-3.00,+2.00,-21.00,-15.00,-87.00,+18.00,-3.00,+15.00,+12.00,-5.00,+10.00,-1.00,+4.00
+57.00,-2.00,+2.00,+3.00,+33.00,+31.00,+13.00,+78.00,-29.00,-27.00,-8.00,-1.00,-11.00,-16.00,+7.00,-16.00
+6.00,-2.00,-9.00,-5.00,-35.00,+5.00,+5.00,+37.00,+14.00,-34.00,-31.00,-17.00,-9.00,+7.00,-4.00,-14.00
-23.00,-19.00,-10.00,-4.00,+2.00,-17.00,-1.00,-2.00,-1.00,+74.00,+32.00,+11.00,-1.00,-15.00,-4.00,+32.00
-5.00,+9.00,+1.00,+0.00,-1.00,-22.00,+1.00,-18.00,+23.00,+22.00,+37.00,+16.00,+23.00,+13.00,+13.00,+1.00
-6.00,+1.00,+2.00,+0.00,+9.00,-18.00,+0.00,-16.00,+17.00,+3.00,-35.00,-15.00,+5.00,+12.00,+7.00,-6.00
-3.00,-42.00,-3.00,+1.00,-9.00,+9.00,-6.00,-12.00,-7.00,+2.00,-1.00,-3.00,-6.00,+7.00,+36.00,-8.00
+19.00,+85.00,+4.00,+0.00,+3.00,+11.00,+1.00,+16.00,-2.00,-56.00,-22.00,-13.00,-42.00,-37.00,-36.00,+10.00
+13.00,-23.00,-3.00,-2.00,-4.00,-3.00,+3.00,+23.00,-3.00,+10.00,+12.00,+2.00,+10.00,+4.00,+6.00,+6.00
-19.00,+19.00,+7.00,+0.00,-9.00,+7.00,+3.00,-2.00,-7.00,+1.00,+15.00,-4.00,-5.00,+4.00,+4.00,-5.00
-27.00,-6.00,+0.00,+0.00,+13.00,-8.00,+2.00,+7.00,+29.00,+0.00,-5.00,+0.00,-24.00,+4.00,-11.00,-1.00
-13.00,-75.00,-13.00,-1.00,+10.00,+2.00,+2.00,-12.00,-34.00,-5.00,+16.00,-1.00,+1.00,-10.00,+8.00,-10.00
+47.00,+114.00,+28.00,+5.00,-19.00,+11.00,+3.00,+32.00,-8.00,-6.00,-33.00,-5.00,+12.00,+7.00,+2.00,-9.00
-38.00,-23.00,+3.00,+3.00,+15.00,+10.00,-3.00,-19.00,+6.00,-16.00,-10.00,+4.00,-7.00,+5.00,-8.00,-2.00
+8.00,+14.00,-7.00,+1.00,+11.00,+7.00,-5.00,-5.00,-3.00,-8.00,+1.00,-5.00,+27.00,-3.00,-5.00,+14.00
+2.00,-7.00,-5.00,-2.00,-2.00,-2.00,+2.00,-7.00,+12.00,+9.00,-4.00,+1.00,-12.00,-8.00,+4.00,+10.00
-33.00,-68.00,-25.00,-6.00,-1.00,-12.00,+2.00,+26.00,-37.00,-54.00,-11.00,-7.00,-7.00,-1.00,-10.00,-16.00
+3.00,+36.00,+6.00,+0.00,-10.00,+12.00,-6.00,-11.00,-36.00,-5.00,-5.00,-1.00,-15.00,+0.00,+1.00,+1.00
+10.00,+14.00,+11.00,+5.00,+9.00,-15.00,+3.00,+8.00,+17.00,+71.00,+32.00,+8.00,+4.00,-20.00,-1.00,-13.00
+7.00,-3.00,-3.00,-2.00,-5.00,-9.00,-4.00,-26.00,+2.00,-18.00,-17.00,-11.00,-13.00,+6.00,+1.00,+8.00
-13.00,-6.00,+1.00,-2.00,-2.00,-11.00,-6.00,-17.00,+33.00,+16.00,+3.00,-1.00,+9.00,+7.00,+5.00,+14.00
-12.00,-2.00,-8.00,-6.00,-13.00,+1.00,+1.00,-9.00,-3.00,-3.00,+3.00,+3.00,-7.00,-11.00,+3.00,+0.00
+2.00,+2.00,+1.00,-2.00,+0.00,-6.00,-2.00,+27.00,-26.00,+4.00,-4.00,-3.00,-12.00,-1.00,-3.00,-2.00
+3.00,+3.00,+7.00,+0.00,+2.00,-3.00,-4.00,+2.00,-3.00,-27.00,-16.00,-1.00,+0.00,+0.00,-7.00,-24.00
+1.00,+0.00,-2.00,+1.00,+7.00,-9.00,-6.00,-37.00,+8.00,+6.00,-2.00,-3.00,-3.00,-3.00,+4.00,+10.00
-45.00,-12.00,-7.00,-3.00,-3.00,+8.00,+4.00,-19.00,+12.00,-8.00,+11.00,+4.00,+3.00,-1.00,-3.00,-5.00
+52.00,+12.00,+20.00,+6.00,+7.00,+7.00,+5.00,+31.00,+23.00,+6.00,-19.00,-7.00,+6.00,+7.00,-13.00,+11.00
+10.00,+4.00,+7.00,+2.00,-6.00,-6.00,+1.00,+2.00,-6.00,-3.00,-1.00,-1.00,-3.00,-4.00,+12.00,-14.00
-2.00,+7.00,-8.00,-2.00,+6.00,+5.00,-2.00,+4.00,-15.00,-3.00,-10.00,+0.00,-13.00,+0.00,+4.00,+17.00
+3.00,-2.00,-3.00,+1.00,-5.00,-13.00,-3.00,-5.00,+15.00,+13.00,+19.00,+1.00,-8.00,+0.00,+5.00,+0.00
-26.00,-16.00,-9.00,-7.00,-1.00,+0.00,-6.00,-27.00,-7.00,-10.00,-5.00,+1.00,+1.00,+4.00,-11.00,-7.00
+32.00,+14.00,-8.00,-4.00,-10.00,+0.00,+0.00,-4.00,+8.00,-26.00,-14.00,-1.00,+8.00,-10.00,-8.00,+6.00
+4.00,-25.00,+3.00,-2.00,+0.00,-5.00,+6.00,+25.00,-4.00,+19.00,+9.00,-4.00,+11.00,-2.00,+3.00,-1.00
+19.00,+15.00,-1.00,+3.00,+0.00,-7.00,-1.00,+1.00,-5.00,+4.00,+6.00,-3.00,-11.00,-1.00,+1.00,+2.00
-23.00,+3.00,+9.00,+2.00,+2.00,+0.00,-7.00,-8.00,+0.00,+0.00,-10.00,+1.00,+2.00,+7.00,+2.00,+3.00
+7.00,+17.00,-1.00,-1.00,-9.00,+0.00,+7.00,+1.00,-17.00,-12.00,+4.00,-1.00,+8.00,+1.00,-1.00,+0.00
-8.00,+5.00,+2.00,+0.00,+2.00,+15.00,-7.00,-7.00,-13.00,-3.00,-6.00,-6.00,-17.00,-5.00,-3.00,-17.00
+2.00,+21.00,-7.00,-2.00,-9.00,-7.00,-3.00,-3.00,+8.00,+19.00,+6.00,+3.00,-7.00,+5.00,-1.00,+7.00
+10.00,+33.00,+7.00,+2.00,+6.00,+7.00,+4.00,-8.00,-6.00,-29.00,+0.00,-5.00,-5.00,-7.00,+0.00,-2.00
-25.00,-24.00,+0.00,+1.00,+2.00,+0.00,-8.00,-6.00,-6.00,+2.00,-5.00,+7.00,+25.00,-6.00,+3.00,+11.00
-5.00,-14.00,+2.00,-1.00,-3.00,-8.00,+12.00,+21.00,+1.00,+21.00,+0.00,-7.00,-26.00,+0.00,-7.00,-3.00
+9.00,+0.00,-6.00,+0.00,-15.00,-6.00,+2.00,+6.00,-9.00,-5.00,-8.00,-7.00,-19.00,-7.00,-4.00,-8.00
+17.00,+11.00,-10.00,-3.00,+12.00,+8.00,-3.00,-18.00,-14.00,-33.00,+1.00,+1.00,+3.00,+2.00,+0.00,-3.00
-15.00,+0.00,-5.00,-3.00,-4.00,-7.00,-1.00,+2.00,-1.00,+6.00,-6.00,-8.00,-12.00,+8.00,+0.00,+8.00
+8.00,+4.00,+0.00,+1.00,+3.00,+3.00,-6.00,-29.00,+12.00,+10.00,+3.00,+4.00,+11.00,-14.00,-4.00,+0.00
-1.00,-12.00,+1.00,-2.00,+1.00,-3.00,-4.00,+3.00,+3.00,+31.00,+17.00,+8.00,+14.00,+0.00,-4.00,-11.00
+11.00,-2.00,-5.00,-3.00,-3.00,+1.00,+3.00,-3.00,-12.00,+7.00,-4.00,-5.00,-25.00,-2.00,-1.00,+5.00
-46.00,-16.00,+0.00,-1.00,-3.00,-4.00,-3.00,-5.00,-4.00,-13.00,-1.00,-1.00,+1.00,+5.00,+1.00,+1.00
+12.00,+25.00,+5.00,+0.00,-1.00,+1.00,-3.00,-11.00,+0.00,-15.00,+1.00,+0.00,+9.00,+4.00,+1.00,-8.00
-38.00,-14.00,+3.00,+1.00,-1.00,-2.00,-1.00,-4.00,+14.00,-10.00,-12.00,-5.00,-6.00,-2.00,+3.00,+18.00
+24.00,+4.00,-4.00,-2.00,-4.00,+0.00,+0.00,+3.00,-25.00,+0.00,+2.00,+0.00,+5.00,-3.00,-1.00,-6.00
-21.00,-8.00,-5.00,-4.00,-4.00,-3.00,+0.00,-6.00,+8.00,+3.00,+17.00,+3.00,-3.00,-4.00,-4.00,-6.00
+34.00,+1.00,-2.00,-2.00,+0.00,+1.00,+3.00,+18.00,+4.00,-7.00,-26.00,-5.00,+0.00,+1.00,+2.00,+1.00
-2.00,+3.00,+5.00,+1.00,-2.00,-3.00,-3.00,-1.00,+9.00,-16.00,-14.00,-1.00,+1.00,-6.00,-3.00,+3.00
+4.00,-12.00,+1.00,+1.00,+2.00,+3.00,+0.00,-17.00,-17.00,+10.00,+9.00,+5.00,+3.00,+4.00,-3.00,-15.00
-3.00,-13.00,-4.00,-1.00,+0.00,-2.00,-2.00,-1.00,+5.00,+1.00,-1.00,-3.00,+1.00,+1.00,+0.00,-7.00
-15.00,+21.00,+0.00,-1.00,+1.00,+0.00,-2.00,-4.00,+7.00,+2.00,+7.00,+1.00,+4.00,-1.00,-1.00,+4.00
+14.00,+16.00,+5.00,-2.00,+0.00,-1.00,+1.00,-5.00,-28.00,-7.00,+2.00,+1.00,+2.00,+1.00,-6.00,-16.00
-4.00,-7.00,-9.00,-1.00,-1.00,+2.00,-3.00,+0.00,+31.00,+5.00,+5.00,+5.00,+1.00,+1.00,+0.00,+7.00
-11.00,-29.00,+2.00,+1.00,+1.00,-2.00,-3.00,-3.00,+2.00,+3.00,-18.00,-7.00,-5.00,-2.00,-2.00,-3.00
-7.00,-1.00,-1.00,+0.00,+3.00,+4.00,-1.00,+8.00,-3.00,-14.00,+3.00,+2.00,+5.00,+2.00,+2.00,+11.00
+25.00,+6.00,+1.00,-1.00,-5.00,-7.00,-1.00,+5.00,+6.00,-25.00,+0.00,-2.00,-4.00,-4.00,+0.00,+1.00
-24.00,-6.00,-1.00,-1.00,+1.00,+4.00,+0.00,+3.00,+21.00,+55.00,+5.00,-3.00,-2.00,-1.00,+1.00,+3.00
+6.00,+8.00,-5.00,-1.00,-3.00,-8.00,+5.00,+0.00,-8.00,-14.00,+1.00,+3.00,+0.00,-3.00,+2.00,+4.00
