+4.00,+3.00,-1.00,-2.00,-1.00,+2.00,-2.00,-1.00,+1.00,+1.00,+0.00,-2.00,-1.00,-1.00,-1.00,-1.00
-1.00,-1.00,-2.00,+1.00,-1.00,-1.00,-1.00,-4.00,+1.00,+1.00,-1.00,-1.00,-2.00,+0.00,+0.00,+0.00
+3.00,-1.00,-2.00,-1.00,-2.00,+1.00,-1.00,+4.00,-2.00,-6.00,-2.00,-2.00,-2.00,-1.00,-3.00,-2.00
+1.00,+0.00,+2.00,+0.00,-1.00,-1.00,-1.00,+3.00,-1.00,+1.00,-1.00,-1.00,+0.00,+0.00,+1.00,+1.00
-1.00,-3.00,-5.00,-2.00,+0.00,-2.00,+1.00,+1.00,-2.00,-9.00,-2.00,-1.00,+0.00,-2.00,-1.00,-2.00
+3.00,-1.00,+3.00,+0.00,-1.00,+0.00,+0.00,-9.00,-1.00,-1.00,+0.00,+0.00,-1.00,-1.00,-2.00,-2.00
-5.00,+0.00,+1.00,+0.00,+0.00,+0.00,-1.00,+2.00,+0.00,+0.00,-1.00,+1.00,-2.00,-1.00,+2.00,-1.00
-14.00,+0.00,-2.00,+0.00,-2.00,-1.00,+0.00,+15.00,-1.00,-1.00,+1.00,-3.00,+0.00,-3.00,-2.00,-3.00
+14.00,+2.00,-2.00,-3.00,-2.00,-1.00,+0.00,+0.00,+0.00,+0.00,-2.00,-2.00,+0.00,+1.00,+0.00,+0.00
-2.00,-4.00,-8.00,-3.00,-1.00,-2.00,+1.00,-1.00,-2.00,-3.00,+0.00,-1.00,-1.00,+0.00,-1.00,-2.00
+12.00,+1.00,-2.00,-1.00,+1.00,-2.00,+0.00,+1.00,-6.00,-1.00,-2.00,-2.00,+0.00,-2.00,-3.00,+0.00
+0.00,-3.00,+2.00,+0.00,+0.00,+1.00,-3.00,-5.00,+9.00,+12.00,+3.00,+1.00,-1.00,+0.00,-2.00,-2.00
-1.00,-18.00,-6.00,+0.00,-1.00,-3.00,-2.00,-7.00,+4.00,-1.00,-3.00,-3.00,-3.00,-1.00,+0.00,-2.00
-10.00,-1.00,+6.00,+0.00,+0.00,+0.00,+0.00,+7.00,-1.00,-4.00,+0.00,+0.00,-3.00,-1.00,-1.00,-1.00
+4.00,-6.00,+5.00,+3.00,+2.00,+0.00,+0.00,+3.00,+0.00,-3.00,-2.00,-1.00,+0.00,+1.00,+0.00,-3.00
+5.00,-8.00,-3.00,-2.00,-1.00,-1.00,+1.00,+3.00,-7.00,-5.00,-2.00,-1.00,-1.00,-1.00,-2.00,+0.00
-6.00,+3.00,-1.00,-1.00,-1.00,-1.00,-2.00,-1.00,-1.00,+5.00,+0.00,-1.00,-1.00,-3.00,-3.00,-3.00
-7.00,-8.00,-11.00,-4.00,-2.00,-3.00,-3.00,-6.00,-4.00,-10.00,-5.00,-4.00,-4.00,-2.00,-1.00,-3.00
-2.00,+8.00,-13.00,-3.00,-2.00,-3.00,-3.00,-1.00,-4.00,-38.00,-11.00,-2.00,+0.00,+11.00,+5.00,+0.00
+3.00,-30.00,+4.00,+2.00,-1.00,-3.00,+10.00,-1.00,-4.00,-17.00,-21.00,-10.00,-5.00,-19.00,-2.00,-4.00
-20.00,+19.00,-14.00,-4.00,-4.00,+0.00,-14.00,+12.00,-26.00,-35.00,+14.00,+11.00,+6.00,+6.00,+2.00,+0.00
+6.00,-43.00,+27.00,+7.00,+5.00,+2.00,-4.00,+11.00,+31.00,-8.00,+8.00,-4.00,-6.00,-1.00,+0.00,+0.00
+6.00,+66.00,-5.00,+0.00,-1.00,+0.00,+10.00,+5.00,-4.00,+92.00,+24.00,+7.00,+2.00,+0.00,+1.00,+4.00
+10.00,+28.00,+14.00,-2.00,+1.00,+0.00,+1.00,+3.00,-4.00,-60.00,+2.00,+0.00,-1.00,-13.00,-8.00,-2.00
-6.00,+2.00,-1.00,+1.00,+2.00,+0.00,+5.00,-6.00,-1.00,+24.00,-22.00,-7.00,-4.00,+16.00,+10.00,+1.00
-5.00,+59.00,+5.00,-2.00,-4.00,-4.00,-7.00,-7.00,-6.00,-26.00,-4.00,-3.00,+1.00,+0.00,+0.00,-1.00
-12.00,-28.00,-7.00,-1.00,-1.00,-1.00,-6.00,-3.00,+31.00,+45.00,-8.00,-7.00,-3.00,-1.00,-1.00,+4.00
-19.00,-99.00,-27.00,-9.00,-5.00,-3.00,-5.00,-9.00,-7.00,-49.00,-5.00,+2.00,-3.00,+7.00,+3.00,+2.00
+21.00,+83.00,+36.00,+9.00,+2.00,+3.00,+7.00,+3.00,-9.00,-20.00,+1.00,-4.00,-1.00,-9.00,-7.00,-5.00
+4.00,-17.00,-9.00,-3.00,-2.00,+1.00,+2.00,+1.00,-9.00,+36.00,-10.00,+0.00,+1.00,+2.00,+0.00,+1.00
-1.00,-47.00,+6.00,+1.00,-1.00,-2.00,-2.00,-2.00,-8.00,-45.00,-4.00,-2.00,-1.00,-2.00,-2.00,-6.00
+0.00,+7.00,-11.00,-1.00,+0.00,+1.00,-3.00,-1.00,+2.00,+66.00,+9.00,+2.00,+5.00,+3.00,+0.00,-1.00
-7.00,-48.00,-11.00,-1.00,+2.00,+2.00,-3.00,-8.00,+9.00,+14.00,+1.00,-4.00,-6.00,-4.00,-4.00,+2.00
+3.00,+15.00,-10.00,-3.00,-1.00,-3.00,+2.00,+4.00,-11.00,-22.00,+1.00,+1.00,+0.00,-1.00,-1.00,-3.00
+1.00,+20.00,+7.00,+0.00,-1.00,+0.00,+0.00,+0.00,+2.00,-29.00,-12.00,-4.00,-2.00,-8.00,-5.00,+0.00
-12.00,-58.00,-20.00,-5.00,-8.00,-4.00,-4.00,-6.00,-4.00,+46.00,+7.00,+5.00,+4.00,+6.00,+2.00,+2.00
+7.00,+68.00,+20.00,-2.00,-2.00,+2.00,+3.00,+1.00,+6.00,-1.00,+7.00,+0.00,+1.00,-2.00,-1.00,-3.00
+4.00,-29.00,+0.00,+5.00,+4.00,+0.00,+3.00,+2.00,-4.00,+1.00,-3.00,-3.00,-3.00,-5.00,-2.00,-2.00
-6.00,-37.00,-13.00,-5.00,-2.00,+0.00,-2.00,-4.00,+1.00,+1.00,+9.00,+2.00,+2.00,-3.00,-2.00,+0.00
+1.00,-9.00,-7.00,+2.00,+4.00,-2.00,-3.00,-2.00,-80.00,-78.00,-18.00,-6.00,-1.00,+4.00,-1.00,+0.00
-16.00,-55.00,-7.00,-2.00,-6.00,+1.00,+0.00,-7.00,+91.00,+33.00,-9.00,-6.00,-8.00,-6.00,-2.00,-1.00
-1.00,+48.00,+5.00,-4.00,-8.00,-7.00,-3.00,-4.00,+3.00,-3.00,+0.00,-1.00,+0.00,-2.00,-2.00,-2.00
+32.00,+11.00,+4.00,-2.00,-1.00,+0.00,-3.00,-5.00,+3.00,+73.00,-11.00,+1.00,+6.00,+5.00,+6.00,+8.00
-12.00,-4.00,-17.00,+1.00,+0.00,+3.00,+5.00,+35.00,-33.00,-39.00,+10.00,+1.00,+12.00,+2.00,+0.00,-4.00
-7.00,+5.00,-3.00,+0.00,+7.00,+11.00,-1.00,-2.00,-19.00,+14.00,-7.00,-3.00,-18.00,-4.00,-2.00,-1.00
-7.00,+11.00,+26.00,+5.00,+0.00,-9.00,-2.00,-8.00,+37.00,+45.00,+44.00,+11.00,+2.00,+0.00,-3.00,+0.00
-1.00,-5.00,-18.00,-2.00,+0.00,-3.00,-1.00,-1.00,-14.00,+24.00,-3.00,-3.00,-6.00,-3.00,+0.00,-5.00
+13.00,+32.00,-7.00,-5.00,-2.00,-3.00,-2.00,-8.00,+41.00,-75.00,-21.00,-1.00,+19.00,-1.00,-4.00,+0.00
-20.00,-116.00,-18.00,-6.00,-4.00,-1.00,-7.00,-11.00,-41.00,+79.00,+14.00,+9.00,+4.00,-3.00,+0.00,-5.00
+19.00,+82.00,-3.00,+5.00,+8.00,+34.00,+17.00,+14.00,-12.00,+2.00,-13.00,-2.00,+13.00,+7.00,-19.00,-9.00
-14.00,-9.00,+9.00,+1.00,+0.00,+4.00,+2.00,+1.00,+6.00,-49.00,+8.00,-3.00,-33.00,-8.00,+44.00,+18.00
+13.00,+77.00,+26.00,+10.00,+22.00,+1.00,+1.00,-6.00,+17.00,+39.00,+4.00,-9.00,-24.00,-1.00,-7.00,-5.00
-22.00,-29.00,-15.00,-5.00,-18.00,-23.00,-4.00,-5.00,+0.00,-68.00,-18.00,-8.00,-6.00,-4.00,-1.00,+3.00
-8.00,-52.00,-18.00,-7.00,-3.00,+4.00,-6.00,-9.00,-10.00,+67.00,+8.00,+1.00,+8.00,+0.00,+8.00,+1.00
-6.00,-13.00,-18.00,-7.00,-10.00,-10.00,-5.00,-1.00,-16.00,-87.00,-11.00,-1.00,+14.00,+0.00,-15.00,-7.00
+3.00,+74.00,+15.00,+0.00,-7.00,-12.00,+8.00,+1.00,+18.00,-4.00,-2.00,+7.00,+64.00,+10.00,+8.00,+3.00
+9.00,-21.00,-2.00,-3.00,-6.00,-3.00,-33.00,-8.00,+12.00,+33.00,+8.00,+1.00,-39.00,-3.00,+4.00,+0.00
+15.00,+15.00,+6.00,+4.00,+9.00,+18.00,+46.00,+18.00,-9.00,+72.00,+10.00,+2.00,-1.00,+3.00,-15.00,-6.00
+5.00,+8.00,+19.00,+8.00,+7.00,+22.00,+7.00,+10.00,-33.00,-46.00,-17.00,-12.00,-6.00,-8.00,-17.00,-18.00
-7.00,-61.00,-7.00,-6.00,-11.00,-13.00,-9.00,-4.00,+43.00,+7.00,-4.00,-7.00,-24.00,+5.00,-27.00,+6.00
+3.00,+0.00,-7.00,-2.00,+2.00,+1.00,+10.00,-3.00,+14.00,+63.00,+14.00,+6.00,+23.00,-6.00,+37.00,+8.00
-31.00,-53.00,-54.00,-14.00,-14.00,-3.00,-27.00,-8.00,+8.00,-86.00,-11.00,-2.00,-7.00,-20.00,+7.00,-1.00
+21.00,+30.00,+59.00,+7.00,+3.00,-7.00,+4.00,+9.00,+72.00,+79.00,+15.00,-1.00,+8.00,+11.00,+13.00,+3.00
-9.00,-13.00,+4.00,+5.00,-1.00,+9.00,-8.00,-16.00,-24.00,+28.00,+30.00,+17.00,-1.00,-3.00,-32.00,+4.00
+32.00,+12.00,-3.00,+7.00,+3.00,+12.00,+46.00,+17.00,+4.00,+7.00,-33.00,-6.00,-1.00,-32.00,-31.00,+1.00
-5.00,-74.00,-16.00,-6.00,+8.00,-1.00,-41.00,-14.00,+30.00,-7.00,+2.00,-2.00,-9.00,+42.00,+39.00,+1.00
+1.00,+13.00,-7.00,+0.00,-9.00,-16.00,+47.00,+14.00,-17.00,-60.00,-28.00,-5.00,+3.00,+2.00,-53.00,+0.00
-23.00,-75.00,-7.00,-7.00,-5.00,+1.00,-30.00,-28.00,-66.00,+56.00,+19.00,-1.00,-14.00,+7.00,-2.00,-6.00
+4.00,+27.00,-5.00,-1.00,+2.00,-5.00,+0.00,-3.00,+16.00,+7.00,+3.00,-3.00,+1.00,-7.00,+22.00,+3.00
+31.00,+36.00,-6.00,+0.00,-4.00,-8.00,-37.00,-1.00,+13.00,-21.00,-11.00,-1.00,-2.00,+9.00,-10.00,+13.00
+31.00,-5.00,+8.00,+2.00,+4.00,+7.00,+48.00,+12.00,-32.00,-52.00,+9.00,+6.00,+11.00,-26.00,+11.00,-16.00
-2.00,+67.00,+19.00,+1.00,-4.00,-3.00,-29.00,+10.00,-4.00,+86.00,-6.00,-5.00,-11.00,+25.00,-24.00,-9.00
-32.00,-54.00,-21.00,-4.00,+3.00,+8.00,+21.00,+2.00,-16.00,+18.00,-4.00,-1.00,+18.00,+12.00,-8.00,-2.00
-33.00,-54.00,+7.00,+3.00,-6.00,-14.00,-1.00,+0.00,-24.00,+10.00,+6.00,-4.00,-13.00,-10.00,+10.00,-3.00
-27.00,-32.00,-16.00,-3.00,+0.00,-1.00,-25.00,-15.00,+11.00,-2.00,-18.00,-4.00,-5.00,+2.00,+8.00,+3.00
-2.00,-34.00,-19.00,-7.00,-2.00,-2.00,+9.00,-1.00,-19.00,-14.00,+36.00,+2.00,-10.00,-25.00,+1.00,-6.00
+19.00,+72.00,+26.00,+0.00,+2.00,-8.00,-14.00,-4.00,-26.00,-71.00,-17.00,-5.00,+7.00,+7.00,+1.00,-7.00
+2.00,+0.00,-8.00,-6.00,-4.00,-5.00,+4.00,-1.00,+37.00,+31.00,+10.00,+1.00,-13.00,-6.00,-2.00,+10.00
-5.00,-14.00,-9.00,+0.00,+2.00,+3.00,-14.00,-2.00,+23.00,+37.00,-7.00,+5.00,+46.00,+11.00,-25.00,+5.00
+3.00,-18.00,-12.00,+0.00,-12.00,+27.00,+17.00,+2.00,-4.00,-6.00,-3.00,-4.00,-41.00,-55.00,+58.00,-2.00
-6.00,-72.00,-5.00,+0.00,+12.00,-20.00,-30.00,-10.00,-23.00,-128.00,-31.00,-9.00,+0.00,+60.00,+11.00,-14.00
+26.00,+107.00,+51.00,+8.00,-5.00,-22.00,+38.00,+13.00,+9.00,+87.00,+30.00,+9.00,-1.00,-21.00,+4.00,+2.00
-30.00,-12.00,-1.00,+0.00,+3.00,+13.00,-26.00,-17.00,-28.00,-24.00,+7.00,-2.00,-33.00,+4.00,-34.00,+6.00
-5.00,+12.00,+2.00,+0.00,-6.00,-14.00,+23.00,+0.00,+100.00,+0.00,-15.00,-12.00,+6.00,+6.00,+9.00,+6.00
-20.00,-71.00,-21.00,-3.00,-8.00,-17.00,-19.00,-12.00,+19.00,+51.00,+16.00,+2.00,+5.00,-6.00,+11.00,+3.00
+9.00,-18.00,+0.00,-7.00,+2.00,-5.00,+4.00,+3.00,-43.00,-97.00,-30.00,-6.00,+0.00,-13.00,-41.00,-20.00
+9.00,+11.00,+1.00,-4.00,-10.00,-5.00,-19.00,-23.00,-4.00,-18.00,+1.00,+2.00,-10.00,+6.00,+17.00,-6.00
+18.00,+53.00,+30.00,+8.00,+11.00,+9.00,+1.00,+12.00,-5.00,-18.00,-13.00,+0.00,+6.00,+6.00,+1.00,-3.00
+3.00,+17.00,+5.00,+0.00,-2.00,+10.00,+5.00,+4.00,-16.00,-53.00,-6.00,-5.00,-3.00,-12.00,-22.00,-5.00
-8.00,-15.00,-18.00,+1.00,+1.00,-6.00,+3.00,-10.00,+6.00,+21.00,-2.00,-2.00,+9.00,+3.00,+2.00,+6.00
-10.00,-6.00,-5.00,+1.00,+1.00,-5.00,-18.00,-9.00,-11.00,+26.00,+11.00,+0.00,-2.00,-1.00,+11.00,+0.00
+12.00,-5.00,+1.00,+0.00,+1.00,-3.00,+4.00,-8.00,+19.00,-6.00,-17.00,-3.00,-3.00,+6.00,-1.00,+0.00
+0.00,-20.00,+6.00,+0.00,-1.00,+0.00,+6.00,+22.00,-74.00,+22.00,+22.00,+3.00,+4.00,-10.00,-10.00,-11.00
-2.00,+19.00,-12.00,-2.00,-2.00,+0.00,-5.00,-2.00,+1.00,-18.00,-9.00,-2.00,-5.00,-4.00,+4.00,+14.00
+11.00,-10.00,+0.00,-1.00,+0.00,-1.00,+0.00,+12.00,+6.00,+43.00,+9.00,+3.00,-3.00,-3.00,+2.00,-12.00
+13.00,+2.00,+15.00,+3.00,+3.00,+3.00,+3.00,+8.00,+11.00,-3.00,+5.00,+0.00,+0.00,-2.00,+6.00,+5.00
+4.00,+13.00,-8.00,+0.00,-1.00,+2.00,+4.00,-2.00,-5.00,+4.00,+8.00,+1.00,-7.00,-16.00,-16.00,-5.00
-7.00,-50.00,+9.00,+3.00,+1.00,+6.00,-3.00,-6.00,-36.00,+37.00,-5.00,-4.00,+11.00,+8.00,+6.00,-2.00
-24.00,-44.00,-56.00,-6.00,-4.00,-6.00,-7.00,-21.00,+7.00,-71.00,-7.00,-6.00,-19.00,-7.00,-40.00,+1.00
+2.00,+5.00,+33.00,-4.00,+0.00,-10.00,-11.00,-6.00,-11.00,-13.00,-18.00,-1.00,+2.00,+13.00,+24.00,-6.00
+23.00,+75.00,+32.00,+4.00,-3.00,+4.00,+27.00,+8.00,-5.00,+25.00,+38.00,+11.00,+2.00,-18.00,-3.00,+3.00
-5.00,-32.00,+10.00,+4.00,+2.00,+6.00,-45.00,+12.00,+11.00,+48.00,-4.00,-3.00,+2.00,-4.00,-20.00,-12.00
-16.00,-50.00,-27.00,-10.00,-5.00,-5.00,+28.00,-22.00,-9.00,-57.00,-13.00,-3.00,+7.00,+2.00,+7.00,+1.00
+11.00,+72.00,+25.00,+4.00,+4.00,-7.00,-30.00,+0.00,-26.00,-25.00,-6.00,+0.00,+7.00,+0.00,-9.00,-3.00
+3.00,-25.00,+2.00,+0.00,+5.00,+9.00,+8.00,-4.00,+41.00,+11.00,+2.00,-2.00,-3.00,+4.00,+0.00,+4.00
-11.00,-5.00,+5.00,+1.00,-6.00,+2.00,-2.00,-7.00,-26.00,-61.00,-16.00,-4.00,+9.00,+3.00,+7.00,-1.00
-3.00,-25.00,-3.00,-9.00,-3.00,-2.00,-3.00,+8.00,+19.00,+46.00,+9.00,-3.00,-30.00,-16.00,+15.00,+5.00
-9.00,-6.00,-45.00,-6.00,-10.00,-6.00,-2.00,-2.00,-17.00,+12.00,+5.00,+5.00,+1.00,-1.00,-6.00,-3.00
+6.00,+27.00,+55.00,+5.00,+17.00,+7.00,-3.00,-2.00,-15.00,-40.00,-4.00,+2.00,+33.00,+5.00,-1.00,+3.00
+21.00,+7.00,-10.00,+1.00,-1.00,+2.00,+15.00,+6.00,+2.00,-28.00,-10.00,-7.00,-3.00,-5.00,-4.00,-1.00
+1.00,+23.00,+11.00,+0.00,-1.00,-12.00,-12.00,+5.00,+12.00,+53.00,+8.00,-1.00,+2.00,-1.00,+7.00,-2.00
-3.00,-19.00,-16.00,-3.00,-5.00,-2.00,+12.00,+3.00,-1.00,-52.00,-24.00,-5.00,-10.00,+0.00,+5.00,+9.00
-7.00,+19.00,+0.00,+0.00,+2.00,+2.00,-12.00,-6.00,+12.00,+8.00,+15.00,-1.00,-1.00,-8.00,-19.00,-5.00
-25.00,-38.00,-17.00,-5.00,-4.00,-3.00,-2.00,-8.00,-29.00,-12.00,+17.00,+5.00,-2.00,-3.00,+11.00,-3.00
+0.00,+25.00,+2.00,-2.00,+2.00,+9.00,-1.00,+3.00,+3.00,+25.00,-3.00,+8.00,+9.00,+10.00,+17.00,+5.00
+53.00,+56.00,+42.00,+16.00,+14.00,+9.00,+13.00,+24.00,-5.00,+11.00,+2.00,-3.00,+2.00,-2.00,-11.00,-4.00
-18.00,+49.00,-14.00,-6.00,-14.00,-6.00,-5.00,+10.00,+32.00,-14.00,-17.00,-2.00,-5.00,+2.00,+6.00,+8.00
-11.00,-20.00,+5.00,-1.00,+3.00,+0.00,+3.00,-4.00,-21.00,-63.00,-35.00,-10.00,-8.00,-4.00,-11.00,-11.00
-9.00,+25.00,+3.00,-2.00,-5.00,-8.00,-13.00,+0.00,+20.00,+59.00,+46.00,+3.00,+2.00,+0.00,+9.00,+1.00
-19.00,-22.00,-51.00,-15.00,-4.00,-4.00,+5.00,-21.00,-28.00,-61.00,-29.00,-3.00,+1.00,-19.00,-5.00,+4.00
+19.00,+39.00,+33.00,+14.00,-3.00,+3.00,-16.00,+4.00,+35.00,+92.00,+16.00,+6.00,-3.00,+14.00,-4.00,+6.00
+32.00,-11.00,+9.00,+5.00,+7.00,+2.00,+13.00,+7.00,-13.00,-27.00,-30.00,-8.00,-13.00,-4.00,+0.00,-4.00
-3.00,+3.00,+2.00,-4.00,-1.00,-2.00,-7.00,+0.00,-1.00,+23.00,+13.00,+1.00,+6.00,+5.00,-4.00,-8.00
-9.00,+37.00,-24.00,-4.00,-3.00,-1.00,+2.00,-1.00,+3.00,+0.00,+10.00,+1.00,-3.00,-2.00,-4.00,-7.00
-8.00,-23.00,-19.00,-7.00,-6.00,+2.00,+1.00,-6.00,-37.00,-49.00,-20.00,-2.00,+17.00,+1.00,+11.00,-6.00
-7.00,-16.00,+5.00,-1.00,-2.00,-6.00,-13.00,+1.00,+10.00,+29.00,+17.00,-1.00,-22.00,-18.00,-49.00,-1.00
+16.00,-10.00,-3.00,+4.00,+5.00,-4.00,-6.00,-27.00,-8.00,-19.00,-14.00,-6.00,+6.00,+10.00,+71.00,-10.00
-16.00,-31.00,+4.00,-2.00,+2.00,+15.00,-2.00,+3.00,+14.00,+46.00,+2.00,-5.00,-5.00,+9.00,+5.00,+12.00
-8.00,-11.00,-35.00,-7.00,-8.00,-24.00,-13.00,-2.00,-17.00,-26.00,-3.00,-2.00,-9.00,-4.00,-6.00,+0.00
-3.00,-7.00,+13.00,+6.00,+7.00,+17.00,+2.00,-6.00,+26.00,+3.00,+1.00,+4.00,+6.00,+5.00,+13.00,-1.00
+5.00,-7.00,+1.00,+1.00,-5.00,-20.00,-16.00,-1.00,-13.00,-33.00,-12.00,-4.00,+4.00,-10.00,-26.00,-2.00
-15.00,-45.00,+0.00,-1.00,-7.00,-10.00,+0.00,-9.00,-9.00,-15.00,-14.00,-7.00,-2.00,+1.00,-1.00,-4.00
-5.00,-4.00,-9.00,-7.00,-4.00,+2.00,+9.00,+4.00,+35.00,+60.00,+2.00,+5.00,+1.00,+1.00,+12.00,+15.00
-3.00,-13.00,-18.00,-5.00,-1.00,+1.00,-5.00,+8.00,-35.00,-50.00,+8.00,+5.00,+8.00,+2.00,+2.00,-13.00
+8.00,+102.00,+16.00,+5.00,+5.00,+11.00,+6.00,+18.00,-10.00,+4.00,-7.00,-3.00,-13.00,+4.00,-3.00,+4.00
-12.00,-42.00,+19.00,+1.00,-1.00,+0.00,+12.00,-6.00,+12.00,+55.00,+11.00,+2.00,+0.00,-10.00,+6.00,+3.00
+4.00,-10.00,-16.00,-3.00,+0.00,+2.00,-10.00,-12.00,+20.00,-30.00,-11.00,-4.00,-11.00,+0.00,-14.00,-7.00
-1.00,+42.00,-1.00,-7.00,-6.00,-7.00,+11.00,+7.00,+3.00,+30.00,-1.00,-1.00,-5.00,-2.00,+1.00,+3.00
-12.00,-80.00,+0.00,+3.00,+0.00,+5.00,+2.00,+12.00,-27.00,-36.00,-13.00,-2.00,+2.00,-13.00,-22.00,-9.00
+4.00,+62.00,+0.00,-2.00,-4.00,-9.00,-1.00,-5.00,+27.00,+21.00,+3.00,+7.00,+28.00,+32.00,+36.00,+5.00
+0.00,-9.00,+16.00,+1.00,+3.00,+1.00,-7.00,-8.00,-29.00,-27.00,-1.00,-7.00,-17.00,-3.00,-4.00,-9.00
-2.00,-2.00,-18.00,-4.00,-1.00,-1.00,+8.00,-5.00,+18.00,-10.00,-7.00,-6.00,-37.00,+1.00,-7.00,+5.00
-8.00,-4.00,+1.00,+1.00,-4.00,-14.00,-8.00,-6.00,+1.00,-28.00,-17.00,-5.00,-9.00,+1.00,+10.00,-3.00
-7.00,-39.00,-8.00,-7.00,+10.00,+29.00,-13.00,-2.00,+5.00,+86.00,+37.00,+9.00,+44.00,-7.00,-16.00,+0.00
+2.00,-8.00,-30.00,-6.00,-22.00,-58.00,+7.00,+1.00,-3.00,-30.00,+13.00,+2.00,+2.00,-6.00,-20.00,+1.00
+1.00,+22.00,+41.00,+9.00,+9.00,+32.00,+13.00,-1.00,-8.00,+7.00,+9.00,+4.00,-11.00,+3.00,+23.00,+2.00
+1.00,-16.00,+2.00,+1.00,-2.00,-24.00,-5.00,+6.00,+5.00,+0.00,-5.00,-3.00,-10.00,-6.00,-23.00,-6.00
-4.00,-38.00,-5.00,+2.00,+7.00,+22.00,+12.00,-1.00,-3.00,-27.00,-4.00,+7.00,+6.00,+10.00,-4.00,-3.00
-2.00,+21.00,+5.00,-6.00,-14.00,+68.00,+6.00,-2.00,-19.00,+1.00,-14.00,-19.00,-8.00,-22.00,-2.00,-11.00
-12.00,-29.00,-18.00,-6.00,+4.00,-69.00,-37.00,-9.00,+17.00,-57.00,-22.00,-13.00,+3.00,-11.00,-9.00,-6.00
-1.00,+12.00,+1.00,-6.00,-16.00,-18.00,+28.00,+6.00,+1.00,+88.00,+16.00,+0.00,+1.00,-5.00,-9.00,+1.00
-1.00,-18.00,-3.00,+0.00,-2.00,-16.00,-8.00,+1.00,-3.00,-40.00,+9.00,-4.00,-5.00,-6.00,-4.00,-17.00
+6.00,-13.00,-6.00,+4.00,+12.00,+9.00,-2.00,+7.00,-6.00,-8.00,-10.00,+8.00,+21.00,+9.00,+11.00,+3.00
-3.00,+37.00,-17.00,-2.00,-11.00,+13.00,+3.00,-12.00,-7.00,-24.00,+7.00,+3.00,+13.00,-1.00,-37.00,-8.00
+0.00,-3.00,+30.00,+2.00,+7.00,+23.00,-9.00,+6.00,-21.00,-4.00,-17.00,-6.00,-4.00,-8.00,+20.00,-1.00
-15.00,+7.00,-20.00,-4.00,-8.00,-18.00,-6.00,+4.00,+12.00,-9.00,-8.00,-1.00,-10.00,+4.00,-1.00,+3.00
-9.00,-34.00,+6.00,+0.00,+0.00,+6.00,+4.00,-10.00,+18.00,+2.00,+7.00,+0.00,-9.00,+3.00,+0.00,+19.00
-19.00,+13.00,+18.00,+1.00,+0.00,+1.00,+2.00,-8.00,-7.00,+11.00,-6.00,-5.00,-6.00,-4.00,-6.00,-1.00
-3.00,+12.00,-4.00,-2.00,+3.00,-1.00,-5.00,-4.00,-4.00,-11.00,-3.00,+6.00,+7.00,+10.00,-2.00,+4.00
+59.00,+9.00,+0.00,-1.00,-2.00,+5.00,+10.00,+11.00,-24.00,+18.00,+23.00,+3.00,-15.00,-11.00,-13.00,-18.00
-5.00,+1.00,+6.00,+4.00,+8.00,-11.00,-5.00,+6.00,+8.00,-15.00,-14.00,-4.00,-15.00,+0.00,-1.00,-5.00
+14.00,-10.00,-8.00,-3.00,-3.00,+0.00,+2.00,-9.00,+23.00,+34.00,+10.00,+3.00,+14.00,+2.00,+23.00,+22.00
-26.00,+0.00,-6.00,-2.00,-1.00,+9.00,-3.00,+0.00,-1.00,-1.00,+40.00,+13.00,+13.00,+0.00,-4.00,-5.00
-19.00,-20.00,-2.00,-2.00,-2.00,-4.00,-4.00,-4.00,+2.00,-3.00,-52.00,-2.00,-16.00,-5.00,-1.00,+11.00
+3.00,-22.00,+0.00,-7.00,+4.00,-3.00,-3.00,-5.00,-29.00,-31.00,-46.00,-30.00,-16.00,-8.00,-6.00,-4.00
-8.00,-7.00,-11.00,+8.00,-8.00,-10.00,+0.00,+5.00,+11.00,+29.00,+9.00,+1.00,+10.00,+5.00,+14.00,-10.00
+15.00,+16.00,-4.00,+2.00,+0.00,+9.00,+2.00,-14.00,-3.00,-16.00,-8.00,-4.00,-3.00,+1.00,-4.00,+0.00
-7.00,-20.00,-4.00,+2.00,+0.00,-5.00,-6.00,-7.00,-4.00,-20.00,+30.00,+5.00,-15.00,-8.00,-17.00,-23.00
+13.00,+13.00,-3.00,-2.00,+1.00,-11.00,+3.00,+16.00,+3.00,-22.00,-2.00,+10.00,+0.00,+6.00,+3.00,-6.00
-4.00,-4.00,+3.00,-3.00,+0.00,+10.00,+8.00,+7.00,-8.00,+40.00,+29.00,+2.00,+4.00,-1.00,+9.00,+19.00
+8.00,+8.00,-6.00,-6.00,+0.00,+1.00,-3.00,+11.00,+5.00,-15.00,-13.00,+0.00,-4.00,-2.00,-4.00,+11.00
-11.00,+8.00,-10.00,+1.00,-1.00,-5.00,-2.00,-13.00,+4.00,+2.00,-2.00,-8.00,-9.00,-3.00,-2.00,-1.00
-6.00,+6.00,-4.00,-2.00,+8.00,+5.00,-4.00,-25.00,-9.00,+4.00,-6.00,+10.00,+28.00,+4.00,+0.00,-10.00
+4.00,+7.00,+3.00,-4.00,-14.00,-4.00,+1.00,+10.00,-13.00,-35.00,-6.00,-3.00,-1.00,-3.00,+6.00,-11.00
-1.00,-18.00,-1.00,+1.00,+1.00,+14.00,-2.00,-5.00,+18.00,+22.00,+4.00,+3.00,+17.00,+2.00,-4.00,+9.00
-6.00,-1.00,-2.00,-2.00,+0.00,-5.00,+1.00,+11.00,+7.00,+12.00,+6.00,-6.00,-23.00,-4.00,+0.00,+5.00
-5.00,-4.00,+6.00,+2.00,-8.00,-51.00,-4.00,-6.00,-11.00,-1.00,+8.00,-12.00,-60.00,+1.00,+2.00,-16.00
+7.00,-12.00,+1.00,+0.00,+6.00,+15.00,-5.00,-19.00,+9.00,-21.00,-12.00,+5.00,+51.00,+1.00,+0.00,+10.00
-5.00,-18.00,-5.00,-5.00,+5.00,+1.00,+1.00,-10.00,+4.00,-25.00,-6.00,+12.00,+36.00,+8.00,+0.00,-1.00
-2.00,+6.00,+2.00,-1.00,+5.00,+21.00,+11.00,+20.00,-8.00,+35.00,+20.00,-23.00,-79.00,-18.00,-9.00,-2.00
+7.00,+7.00,+1.00,+2.00,-9.00,-36.00,-13.00,+5.00,-13.00,-36.00,+11.00,+13.00,+9.00,-3.00,-4.00,-5.00
+8.00,+0.00,-10.00,-1.00,-3.00,+12.00,+6.00,+12.00,+13.00,+45.00,+4.00,-6.00,-4.00,+4.00,+9.00,+11.00
+0.00,-6.00,+12.00,+4.00,+10.00,-14.00,-4.00,-9.00,+3.00,-7.00,-14.00,-7.00,-3.00,-1.00,-3.00,-4.00
-3.00,-6.00,+2.00,+0.00,-17.00,-6.00,-7.00,-15.00,+14.00,-2.00,-11.00,-1.00,+19.00,+3.00,+3.00,+9.00
-7.00,-5.00,+1.00,-3.00,-2.00,+19.00,+4.00,+6.00,+12.00,+14.00,+9.00,+7.00,+6.00,+5.00,-1.00,-1.00
-2.00,-2.00,-4.00,-2.00,+1.00,-9.00,-4.00,-9.00,-22.00,-33.00,-8.00,-3.00,-5.00,-1.00,+2.00,-11.00
-4.00,+3.00,-7.00,-2.00,-15.00,+4.00,-2.00,+8.00,-1.00,+19.00,-1.00,+1.00,-1.00,-5.00,-1.00,+6.00
-11.00,-16.00,+4.00,+1.00,+6.00,-4.00,-3.00,-8.00,-2.00,-18.00,+15.00,+7.00,+14.00,+5.00,-1.00,+7.00
+12.00,+9.00,+11.00,+0.00,+4.00,+20.00,+2.00,+0.00,-17.00,+5.00,-29.00,-14.00,+18.00,-4.00,-5.00,-2.00
+16.00,+21.00,-2.00,+0.00,-8.00,-3.00,+2.00,+31.00,+7.00,-6.00,-10.00,+7.00,+36.00,+7.00,-1.00,-8.00
+1.00,+4.00,-2.00,+0.00,-1.00,+2.00,-2.00,-10.00,+2.00,-2.00,-4.00,-12.00,-19.00,-1.00,+2.00,+8.00
-2.00,-1.00,+3.00,-5.00,-45.00,+19.00,-8.00,-14.00,-8.00,-3.00,+0.00,+4.00,-39.00,-14.00,-6.00,-19.00
-4.00,-17.00,-4.00,+5.00,+64.00,+20.00,+7.00,+18.00,+18.00,+10.00,+13.00,+16.00,+100.00,+16.00,+8.00,+16.00
-2.00,+12.00,+5.00,-7.00,-30.00,-15.00,-6.00,-13.00,+1.00,-5.00,-11.00,-32.00,-104.00,-30.00,-5.00,-3.00
-3.00,-3.00,+0.00,+3.00,+8.00,-28.00,+3.00,+28.00,-1.00,+27.00,+22.00,+1.00,+52.00,+0.00,-5.00,-8.00
+9.00,+11.00,+3.00,+1.00,-5.00,-63.00,-7.00,+7.00,-10.00,-20.00,-17.00,-3.00,-23.00,+0.00,+1.00,+5.00
-7.00,-8.00,-15.00,-8.00,-9.00,+31.00,-1.00,-25.00,+0.00,+22.00,+11.00,+3.00,+32.00,+3.00,-3.00,+2.00
+5.00,-5.00,+0.00,-6.00,+34.00,+11.00,-1.00,-5.00,+9.00,-1.00,-7.00,-6.00,-78.00,-6.00,-2.00,-3.00
-3.00,+3.00,-3.00,+3.00,-44.00,-19.00,-9.00,+0.00,-1.00,-12.00,+1.00,+2.00,+5.00,+14.00,+5.00,-9.00
-1.00,+1.00,+2.00,+1.00,+19.00,+7.00,+1.00,-17.00,-8.00,-21.00,-26.00,-4.00,+34.00,-8.00,-3.00,-11.00
+9.00,+1.00,-2.00,+3.00,-2.00,-7.00,+4.00,+14.00,+10.00,+24.00,+12.00,+7.00,-36.00,-1.00,+0.00,+17.00
-13.00,-13.00,+2.00,+1.00,+3.00,-4.00,+3.00,-5.00,-13.00,-8.00,-1.00,+0.00,+3.00,+9.00,-3.00,-4.00
+2.00,-4.00,-3.00,-11.00,-7.00,+11.00,-9.00,-5.00,-10.00,-14.00,-5.00,-4.00,-24.00,-9.00,-4.00,-8.00
+5.00,-3.00,-4.00,-1.00,+9.00,-6.00,-18.00,+4.00,+12.00,+2.00,-4.00,+1.00,+29.00,+9.00,+2.00,+0.00
-12.00,-14.00,-3.00,-1.00,-14.00,-33.00,+11.00,-8.00,+36.00,+10.00,+5.00,+0.00,-20.00,-53.00,-2.00,-2.00
+18.00,+27.00,+9.00,+14.00,+7.00,+26.00,-10.00,+7.00,-4.00,+2.00,+1.00,+5.00,+26.00,+23.00,-1.00,-5.00
-2.00,-14.00,-2.00,+0.00,+10.00,+0.00,+16.00,-2.00,-12.00,-3.00,+5.00,+11.00,+35.00,-3.00,+11.00,+7.00
-9.00,-16.00,-5.00,-13.00,+9.00,+18.00,-32.00,+2.00,-13.00,-6.00,-3.00,-7.00,-38.00,+46.00,-1.00,-4.00
-4.00,+23.00,-4.00,-7.00,+4.00,+39.00,-2.00,-9.00,-77.00,-11.00,+1.00,+12.00,+8.00,-29.00,-1.00,+4.00
-12.00,-10.00,-1.00,+10.00,-5.00,-57.00,+70.00,+3.00,+64.00,+11.00,-4.00,-13.00,-40.00,-104.00,-40.00,-11.00
+16.00,+4.00,-1.00,+9.00,+26.00,+86.00,+31.00,+16.00,+3.00,+6.00,-2.00,-16.00,+14.00,+4.00,-15.00,-1.00
-2.00,-10.00,-12.00,-16.00,+4.00,-35.00,-1.00,+1.00,-15.00,-24.00,-7.00,+1.00,+37.00,+16.00,+13.00,+1.00
-1.00,-6.00,+13.00,+4.00,-7.00,-1.00,-46.00,+0.00,+0.00,+6.00,+12.00,+27.00,+71.00,+82.00,+18.00,+2.00
-11.00,-13.00,-1.00,-1.00,+15.00,+52.00,-18.00,-29.00,-6.00,+4.00,+1.00,-15.00,-42.00,-6.00,-6.00,+16.00
-16.00,-9.00,+3.00,+7.00,+26.00,+4.00,-32.00,-25.00,-17.00,-12.00,-1.00,+43.00,+58.00,+14.00,-10.00,-16.00
+9.00,-13.00,-6.00,-1.00,-23.00,+40.00,+45.00,+55.00,-7.00,+12.00,-8.00,-60.00,-44.00,-22.00,-28.00,-11.00
+7.00,+8.00,-7.00,+1.00,+15.00,-75.00,-2.00,+5.00,+31.00,+4.00,-1.00,-20.00,-37.00,-3.00,+17.00,+15.00
-21.00,-12.00,-1.00,-4.00,-23.00,+23.00,-18.00,-19.00,-7.00,-2.00,-1.00,+15.00,+75.00,+19.00,+11.00,+5.00
-3.00,-8.00,-1.00,+0.00,+24.00,-15.00,-3.00,+7.00,+7.00,-4.00,+4.00,+12.00,+7.00,-5.00,+9.00,-2.00
-5.00,+3.00,+2.00,+2.00,-45.00,+5.00,-4.00,-17.00,+4.00,+9.00,+5.00,+14.00,+70.00,+2.00,-11.00,+18.00
-2.00,+8.00,+3.00,+0.00,+33.00,+18.00,+4.00,-9.00,-6.00,-6.00,-2.00,-5.00,-35.00,-4.00,-4.00,-18.00
+7.00,-13.00,+3.00,+4.00,-59.00,-7.00,+5.00,-1.00,-16.00,+5.00,+7.00,+9.00,+42.00,+1.00,+8.00,-3.00
-8.00,+12.00,-9.00,-20.00,-17.00,-23.00,-16.00,-22.00,-6.00,-10.00,-7.00,-21.00,-86.00,+16.00,+5.00,+0.00
+9.00,+12.00,-2.00,+1.00,+9.00,-18.00,+8.00,+2.00,+6.00,-6.00,+2.00,+30.00,+51.00,-14.00,-5.00,-3.00
+1.00,+5.00,+3.00,+7.00,-21.00,+35.00,+19.00,+0.00,+10.00,-1.00,-1.00,+8.00,+9.00,-6.00,-16.00,-16.00
+3.00,-7.00,-10.00,-10.00,+22.00,-17.00,-14.00,+6.00,-8.00,+3.00,-3.00,-35.00,-63.00,-7.00,+27.00,+21.00
-1.00,-14.00,-4.00,-6.00,-74.00,-33.00,-17.00,-14.00,-18.00,-19.00,-7.00,-21.00,+99.00,+1.00,-15.00,-11.00
-3.00,+5.00,+6.00,+11.00,+63.00,+27.00,+3.00,-8.00,+6.00,+0.00,-3.00,+2.00,+29.00,-6.00,+17.00,+6.00
-1.00,-13.00,-9.00,-10.00,-59.00,-57.00,-18.00,-12.00,+17.00,+10.00,-1.00,-25.00,-16.00,-9.00,-6.00,+11.00
+4.00,+9.00,+3.00,+1.00,+24.00,+17.00,+6.00,-16.00,-10.00,-4.00,-3.00,+16.00,+36.00,+18.00,-11.00,-6.00
+6.00,+15.00,+3.00,+6.00,+14.00,-21.00,+8.00,+45.00,+8.00,+1.00,-1.00,+1.00,-7.00,-8.00,+18.00,+9.00
+2.00,+13.00,+7.00,+4.00,+9.00,+14.00,+4.00,+3.00,+1.00,+2.00,-2.00,+16.00,+42.00,+5.00,+2.00,-3.00
-13.00,-12.00,-2.00,+1.00,+15.00,+11.00,-2.00,-21.00,-21.00,-12.00,-6.00,+4.00,-71.00,-4.00,-5.00,-27.00
+4.00,-7.00,-10.00,-6.00,-18.00,+56.00,-6.00,+13.00,-11.00,+2.00,+4.00,-8.00,+9.00,+21.00,+0.00,-15.00
+11.00,+1.00,-3.00,-8.00,-31.00,-55.00,-9.00,-10.00,+7.00,+0.00,-5.00,-33.00,-67.00,-36.00,-5.00,+10.00
-14.00,+3.00,+2.00,+3.00,+42.00,+27.00,-11.00,-20.00,+18.00,+11.00,+6.00,+7.00,+17.00,+19.00,+6.00,+6.00
-1.00,+4.00,+3.00,+0.00,+0.00,+9.00,+21.00,+20.00,+0.00,+5.00,+2.00,-8.00,+14.00,+7.00,+4.00,+5.00
-9.00,-3.00,-2.00,+1.00,-11.00,-19.00,+4.00,-23.00,-16.00,-9.00,-6.00,+7.00,-28.00,-2.00,+3.00,-7.00
+15.00,-1.00,+2.00,+9.00,+31.00,-32.00,+9.00,+9.00,+6.00,-3.00,-2.00,+5.00,+4.00,+6.00,-3.00,+3.00
-4.00,-6.00,-1.00,-4.00,-40.00,-3.00,-7.00,-14.00,-3.00,-2.00,+3.00,-3.00,+17.00,+0.00,-8.00,+4.00
-2.00,+5.00,-6.00,-11.00,+12.00,-37.00,-11.00,-3.00,-4.00,-4.00,-4.00,-22.00,-89.00,-11.00,+31.00,-8.00
-1.00,-3.00,-9.00,-12.00,-24.00,-12.00,-2.00,+8.00,-4.00,-10.00,+1.00,+5.00,+36.00,-11.00,+0.00,-4.00
-8.00,-6.00,+2.00,+3.00,-9.00,+2.00,-9.00,-17.00,-1.00,+4.00,+1.00,+12.00,-44.00,+26.00,+5.00,+4.00
+4.00,+9.00,+6.00,+9.00,+21.00,+0.00,+7.00,+5.00,-9.00,-1.00,-8.00,-6.00,+42.00,-18.00,-4.00,-10.00
+1.00,-6.00,+2.00,+7.00,-27.00,-21.00,+4.00,+15.00,-3.00,-7.00,-9.00,-18.00,-41.00,-31.00,-23.00,-13.00
+0.00,-10.00,-3.00,-1.00,+20.00,-21.00,-8.00,+6.00,+5.00,+3.00,+6.00,-2.00,-5.00,+8.00,-1.00,-3.00
-8.00,+15.00,-6.00,-11.00,-29.00,-2.00,-2.00,-6.00,+3.00,+6.00,+5.00,+36.00,+61.00,+19.00,+18.00,+4.00
+3.00,-13.00,-4.00,-6.00,-4.00,-64.00,-3.00,+0.00,+14.00,+6.00,+0.00,-17.00,-89.00,-2.00,+0.00,+10.00
-15.00,-7.00,+0.00,-3.00,+40.00,+111.00,-3.00,-9.00,-6.00,-10.00,-6.00,+26.00,+98.00,+3.00,+1.00,+2.00
+5.00,+5.00,-1.00,-1.00,-28.00,-106.00,-10.00,+15.00,-5.00,-6.00,-15.00,-38.00,+53.00,-13.00,-24.00,-8.00
-1.00,+5.00,+0.00,+11.00,+28.00,-8.00,-14.00,-5.00,+3.00,+11.00,+10.00,+6.00,+44.00,+19.00,+48.00,+6.00
+12.00,-10.00,+8.00,+12.00,+17.00,+75.00,+32.00,+20.00,-14.00,-10.00,-2.00,-35.00,-96.00,-10.00,+43.00,-30.00
+5.00,-6.00,-6.00,-6.00,-30.00,-51.00,+2.00,-2.00,+10.00,+6.00,+2.00,+11.00,+100.00,+16.00,-54.00,+20.00
-11.00,+5.00,+3.00,+3.00,+88.00,-1.00,-22.00,-55.00,-7.00,-9.00,+0.00,+19.00,+44.00,+21.00,+15.00,-4.00
+12.00,+1.00,+0.00,+1.00,-46.00,-75.00,+12.00,+35.00,+6.00,-1.00,-6.00,-1.00,-32.00,-7.00,-11.00,+9.00
+0.00,+11.00,-2.00,-4.00,-29.00,+33.00,-7.00,+13.00,-15.00,-2.00,-3.00,+12.00,+22.00,+10.00,-8.00,+6.00
+0.00,-3.00,-1.00,+1.00,-50.00,+19.00,+6.00,-11.00,-2.00,+1.00,+2.00,-6.00,-91.00,-15.00,+0.00,-19.00
+4.00,-2.00,-1.00,-3.00,-6.00,+40.00,+12.00,+40.00,+4.00,-7.00,-4.00,+16.00,+61.00,+25.00,+5.00,+5.00
-6.00,-7.00,+1.00,+5.00,+18.00,+67.00,+18.00,+1.00,+5.00,+2.00,-5.00,-17.00,-60.00,+4.00,-33.00,+1.00
-9.00,-3.00,+7.00,+3.00,-4.00,-39.00,-10.00,-16.00,-3.00,-5.00,+3.00,+9.00,+26.00,-38.00,+10.00,-3.00
+0.00,+10.00,-14.00,-14.00,+78.00,+55.00,+3.00,+4.00,-2.00,+6.00,+10.00,+18.00,+13.00,+11.00,-14.00,+12.00
-10.00,+11.00,-5.00,-13.00,-112.00,-44.00,-3.00,-18.00,+0.00,+3.00,+2.00,-7.00,-9.00,-14.00,-8.00,-1.00
-10.00,-18.00,-8.00,-10.00,+54.00,+66.00,+4.00,+11.00,-1.00,-3.00,-5.00,-28.00,-119.00,-22.00,-1.00,-8.00
-1.00,+18.00,+3.00,+5.00,+0.00,-65.00,-8.00,-14.00,+3.00,+2.00,+1.00,+15.00,+32.00,+12.00,+0.00,+5.00
+2.00,-9.00,+7.00,+9.00,-4.00,-82.00,-2.00,+12.00,-4.00,-1.00,-1.00,-14.00,+46.00,+19.00,+3.00,-12.00
+2.00,+4.00,+2.00,+6.00,+13.00,-51.00,-4.00,-1.00,+3.00,+2.00,+7.00,+45.00,+74.00,+26.00,-24.00,+14.00
+4.00,-1.00,+3.00,+1.00,-21.00,+72.00,+6.00,-3.00,-4.00,-5.00,-7.00,-42.00,-62.00,-5.00,+2.00,-9.00
-3.00,-6.00,-4.00,+1.00,-48.00,-49.00,-6.00,+2.00,+5.00,+19.00,+3.00,+25.00,+1.00,-17.00,-35.00,-10.00
+3.00,-35.00,-10.00,-5.00,+45.00,+23.00,-2.00,+21.00,-36.00,-19.00,+1.00,-8.00,+51.00,-2.00,-1.00,+4.00
+0.00,+23.00,-22.00,-3.00,-4.00,+3.00,+6.00,+6.00,+17.00,+33.00,+15.00,+12.00,-15.00,+9.00,+15.00,-2.00
+7.00,+36.00,+42.00,+16.00,-18.00,+59.00,+26.00,-6.00,-4.00,-31.00,-9.00,+10.00,+107.00,-3.00,-2.00,+3.00
-2.00,+52.00,+10.00,+0.00,+8.00,-74.00,-3.00,-1.00,+19.00,+3.00,+2.00,+25.00,-92.00,+12.00,+7.00,+8.00
+9.00,+12.00,+5.00,-6.00,+38.00,+22.00,-3.00,-11.00,+19.00,+12.00,-3.00,+10.00,+61.00,-10.00,-9.00,+0.00
+0.00,-27.00,-5.00,-6.00,-43.00,+45.00,+15.00,+8.00,-6.00,-6.00,-8.00,-28.00,-1.00,-5.00,-11.00,-11.00
-13.00,-12.00,-21.00,-6.00,+74.00,-52.00,-64.00,-47.00,+10.00,+14.00,+8.00,+39.00,+89.00,+8.00,+20.00,+9.00
-1.00,-9.00,-6.00,-8.00,+33.00,+72.00,+35.00,+23.00,-10.00,-14.00,-10.00,-46.00,+24.00,-12.00,+19.00,+15.00
+12.00,-8.00,+3.00,+9.00,+8.00,-6.00,-5.00,+11.00,+7.00,+1.00,+0.00,+7.00,+4.00,-83.00,-74.00,-11.00
-8.00,+0.00,+3.00,-2.00,+71.00,+13.00,+63.00,-8.00,+6.00,-6.00,-2.00,-37.00,-80.00,+54.00,+69.00,+14.00
-3.00,+8.00,+3.00,+1.00,+2.00,+14.00,-58.00,+5.00,-3.00,-7.00,-8.00,-20.00,+26.00,-5.00,-123.00,-45.00
+4.00,-14.00,-2.00,-4.00,-72.00,+50.00,-1.00,+21.00,+3.00,-4.00,-2.00,+14.00,+42.00,+18.00,+10.00,+22.00
-14.00,-14.00,-3.00,-1.00,+11.00,-29.00,-53.00,+6.00,+4.00,+7.00,+2.00,-15.00,+8.00,+25.00,+65.00,+6.00
+15.00,+8.00,+7.00,+1.00,+36.00,+58.00,+11.00,+13.00,-14.00,-5.00,-3.00,+8.00,-12.00,-36.00,-47.00,-17.00
+2.00,+1.00,-5.00,-3.00,-28.00,-91.00,+6.00,-6.00,-15.00,-12.00,+1.00,+8.00,-21.00,-17.00,+31.00,-4.00
-8.00,-18.00,-9.00,-2.00,+28.00,+24.00,-21.00,-11.00,+17.00,+8.00,+5.00,-11.00,+78.00,+9.00,+9.00,+24.00
-23.00,+14.00,+6.00,+9.00,-11.00,+32.00,+36.00,-26.00,+7.00,-2.00,-8.00,-5.00,-30.00,-27.00,+2.00,-3.00
-3.00,-3.00,+7.00,+0.00,-59.00,+0.00,-26.00,-8.00,+4.00,-4.00,+0.00,+17.00,+10.00,+40.00,+16.00,-6.00
+0.00,-17.00,-7.00,-5.00,+28.00,+22.00,+27.00,+19.00,-15.00,-3.00,+2.00,-2.00,+37.00,-3.00,+29.00,-10.00
+0.00,-2.00,-4.00,+1.00,+26.00,+26.00,-71.00,-28.00,+19.00,+4.00,+2.00,+5.00,+1.00,-2.00,+42.00,-2.00
+16.00,+37.00,+8.00,+2.00,-114.00,-13.00,+22.00,+21.00,-5.00,+1.00,+2.00,-9.00,-56.00,+24.00,-81.00,+4.00
+3.00,+1.00,+3.00,+4.00,+49.00,-14.00,-37.00,-6.00,-10.00,-10.00,-3.00,+1.00,-48.00,-57.00,-7.00,-2.00
-4.00,-3.00,-7.00,-3.00,+16.00,-21.00,-23.00,+6.00,-8.00,-1.00,-8.00,-21.00,-15.00,+0.00,+66.00,+0.00
-12.00,-33.00,-7.00,-3.00,+14.00,-9.00,+73.00,-18.00,-11.00,+4.00,+6.00,-13.00,+52.00,+20.00,-74.00,-16.00
+6.00,-10.00,+2.00,+3.00,-25.00,+68.00,+11.00,+38.00,-4.00,-5.00,+0.00,+7.00,-62.00,-12.00,-6.00,-6.00
+21.00,+30.00,+2.00,-2.00,+68.00,+66.00,-23.00,+1.00,-9.00,-9.00,-10.00,-14.00,+8.00,+3.00,+57.00,-11.00
-12.00,-14.00,-5.00,-3.00,-111.00,+23.00,-54.00,-21.00,+14.00,+8.00,-2.00,+2.00,-62.00,-88.00,+16.00,+35.00
+10.00,-7.00,-3.00,-6.00,-62.00,-55.00,-11.00,+23.00,-9.00,-7.00,-4.00,+5.00,+13.00,+26.00,-35.00,-15.00
-24.00,-11.00,-5.00,+0.00,+21.00,+13.00,-26.00,-32.00,-7.00,-3.00,-6.00,-13.00,-15.00,+25.00,+18.00,+9.00
-2.00,-10.00,-4.00,+1.00,+92.00,+15.00,-31.00,+7.00,+14.00,-4.00,-3.00,+14.00,+111.00,+34.00,-44.00,+0.00
+3.00,+5.00,+0.00,-5.00,-64.00,-8.00,+10.00,+12.00,-6.00,-1.00,-3.00,-5.00,-71.00,-49.00,-36.00,-13.00
+3.00,+7.00,-1.00,-5.00,+97.00,+54.00,+41.00,-22.00,-4.00,+0.00,-3.00,-22.00,-26.00,-51.00,+47.00,+6.00
+17.00,+13.00,-2.00,-4.00,-89.00,-89.00,-54.00,+14.00,+4.00,+1.00,+1.00,-9.00,+70.00,-1.00,+19.00,+5.00
+3.00,-13.00,+4.00,+8.00,-20.00,+22.00,+108.00,+53.00,-15.00,-1.00,+1.00,+1.00,-32.00,-12.00,-16.00,+3.00
-2.00,+0.00,+1.00,+1.00,+3.00,+14.00,+16.00,-33.00,+12.00,+3.00,+7.00,+26.00,+127.00,+43.00,-43.00,+4.00
-27.00,-9.00,+1.00,+6.00,+36.00,+68.00,-92.00,+10.00,-6.00,-5.00,-3.00,-7.00,-13.00,-75.00,-82.00,-12.00
+30.00,+14.00,+4.00,-1.00,+31.00,+13.00,+91.00,+34.00,-8.00,-3.00,-2.00,-15.00,-83.00,+76.00,+60.00,-35.00
-7.00,-9.00,+0.00,+1.00,+22.00,-32.00,-33.00,-41.00,-12.00,+0.00,-4.00,-10.00,+22.00,-19.00,+56.00,+14.00
-2.00,-8.00,-9.00,-5.00,-62.00,-22.00,-22.00,-59.00,+25.00,+15.00,+15.00,+58.00,+83.00,-17.00,-14.00,+25.00
+8.00,+9.00,+8.00,+3.00,-64.00,+4.00,+41.00,+38.00,-15.00,-6.00,-5.00,-39.00,-16.00,+82.00,-26.00,-10.00
-16.00,-12.00,-2.00,+10.00,+127.00,-16.00,-23.00,-50.00,+1.00,-8.00,-12.00,-24.00,+54.00,-79.00,+78.00,-8.00
-15.00,-10.00,-2.00,-6.00,-128.00,-70.00,-69.00,+8.00,+9.00,+5.00,+5.00,+28.00,+35.00,+6.00,+9.00,-12.00
+5.00,-2.00,+1.00,-1.00,+79.00,+30.00,+78.00,+40.00,+3.00,-5.00,-7.00,-12.00,+3.00,+30.00,+58.00,+3.00
-14.00,-5.00,-4.00,+0.00,+29.00,-12.00,-128.00,-89.00,-15.00,+0.00,+6.00,+39.00,-51.00,+42.00,+72.00,-6.00
+6.00,+13.00,-6.00,-7.00,-17.00,+16.00,+83.00,-11.00,-1.00,+4.00,+4.00,+55.00,+23.00,+60.00,-28.00,+35.00
-24.00,-18.00,-7.00,-14.00,-54.00,+54.00,-52.00,-38.00,+8.00,-10.00,-9.00,-40.00,-28.00,-110.00,-42.00,-10.00
-2.00,-10.00,-2.00,+1.00,+47.00,+6.00,+74.00,+19.00,-9.00,+5.00,+5.00,-9.00,-37.00,+20.00,+73.00,-6.00
-10.00,+8.00,+3.00,+8.00,+18.00,-80.00,-45.00,-15.00,+23.00,-1.00,-4.00,+17.00,-39.00,-23.00,-94.00,-19.00
+5.00,-11.00,-3.00,-3.00,+79.00,+78.00,+41.00,+14.00,-20.00,-15.00,-12.00,-19.00,-30.00,+20.00,-10.00,-18.00
+7.00,-5.00,-5.00,-9.00,-60.00,-40.00,-58.00,-14.00,-4.00,-4.00,-3.00,-12.00,-2.00,+64.00,+28.00,+2.00
-4.00,+5.00,-3.00,-5.00,+0.00,-22.00,-24.00,-20.00,-6.00,+13.00,+2.00,+1.00,-116.00,-9.00,-12.00,-20.00
-11.00,-21.00,-2.00,+1.00,-21.00,-29.00,+26.00,+57.00,-5.00,-2.00,+4.00,+44.00,+44.00,-72.00,+12.00,+7.00
-10.00,+18.00,+3.00,-2.00,-106.00,-8.00,-96.00,-25.00,-5.00,-8.00,-9.00,-27.00,-45.00,-7.00,-119.00,+11.00
-7.00,-6.00,-8.00,-11.00,+85.00,-46.00,+5.00,-5.00,-3.00,-8.00,-11.00,-27.00,-77.00,-92.00,-34.00,-15.00
-17.00,-9.00,-9.00,-16.00,-55.00,-41.00,+35.00,+0.00,-8.00,-4.00,+0.00,-9.00,+50.00,+74.00,-123.00,-18.00
+40.00,+8.00,+4.00,+6.00,-11.00,-84.00,-4.00,+23.00,+10.00,+10.00,+8.00,+17.00,+46.00,+60.00,+6.00,+13.00
-4.00,+1.00,+3.00,+3.00,-100.00,+58.00,-93.00,-29.00,-8.00,-29.00,-15.00,-19.00,-8.00,-33.00,-50.00,+6.00
-5.00,-9.00,-6.00,-8.00,-44.00,+12.00,+110.00,+18.00,-7.00,+27.00,+2.00,-13.00,-5.00,+64.00,-12.00,-5.00
-8.00,-44.00,-1.00,+9.00,+114.00,+49.00,+6.00,-38.00,-13.00,-28.00,-6.00,+7.00,-16.00,-43.00,-64.00,+7.00
+15.00,+49.00,-2.00,-8.00,-49.00,+18.00,-41.00,-49.00,+22.00,+27.00,+16.00,-7.00,+81.00,+31.00,-42.00,+9.00
+16.00,+3.00,+5.00,+5.00,-23.00,+49.00,+124.00,+65.00,-19.00,+4.00,-5.00,-62.00,+29.00,-26.00,+40.00,+9.00
-12.00,-34.00,-8.00,+13.00,-44.00,+82.00,-63.00,-48.00,+4.00,-24.00,-18.00,+11.00,-47.00,+37.00,-16.00,+1.00
-31.00,-58.00,-45.00,-11.00,-97.00,+41.00,+5.00,+12.00,+10.00,+8.00,-9.00,-27.00,-56.00,+33.00,-13.00,-5.00
+22.00,+8.00,+44.00,-5.00,-17.00,+59.00,-14.00,-19.00,+23.00,+37.00,-8.00,-42.00,+76.00,-13.00,+30.00,-4.00
-2.00,-114.00,+7.00,+13.00,+127.00,+55.00,-24.00,-6.00,+12.00,+5.00,+21.00,+54.00,+32.00,+20.00,+72.00,+7.00
+6.00,+53.00,+19.00,+4.00,+75.00,+6.00,+7.00,+25.00,-28.00,-37.00,+7.00,-12.00,+0.00,-97.00,-98.00,-23.00
+13.00,+34.00,+12.00,-7.00,+29.00,-39.00,+102.00,+19.00,-16.00,-21.00,-31.00,-77.00,-101.00,+58.00,+8.00,+3.00
-57.00,-74.00,-55.00,-20.00,-80.00,-46.00,+46.00,+9.00,-36.00,-39.00,-9.00,+19.00,-21.00,+26.00,-64.00,-33.00
-2.00,-10.00,-13.00,-5.00,+53.00,+13.00,+4.00,-9.00,+44.00,+34.00,+7.00,+31.00,+59.00,+70.00,+88.00,+21.00
-1.00,+46.00,+17.00,+2.00,-1.00,-70.00,-7.00,+56.00,+31.00,+62.00,+26.00,+47.00,-48.00,-60.00,-119.00,+19.00
+23.00,-29.00,+1.00,+13.00,-51.00,+77.00,+21.00,-30.00,+6.00,-21.00,+5.00,-20.00,-13.00,+16.00,+72.00,-12.00
-26.00,+7.00,+10.00,+6.00,-60.00,-1.00,-29.00,-43.00,-21.00,+26.00,-3.00,-1.00,-77.00,-14.00,+0.00,+1.00
+26.00,+4.00,-3.00,-6.00,-32.00,-118.00,+26.00,-10.00,-21.00,-20.00,+20.00,+74.00,+55.00,+95.00,+25.00,-15.00
+26.00,-2.00,-11.00,-15.00,+115.00,+44.00,-30.00,+18.00,-4.00,-4.00,-12.00,-48.00,-32.00,+70.00,+127.00,+53.00
+39.00,+47.00,+28.00,+13.00,-17.00,-28.00,+13.00,+56.00,-4.00,-23.00,-13.00,-37.00,+43.00,-46.00,-104.00,-77.00
+8.00,+72.00,+14.00,+9.00,+127.00,+31.00,-55.00,-41.00,+30.00,-2.00,-5.00,+9.00,-11.00,-14.00,+46.00,+45.00
-44.00,-1.00,-5.00,-2.00,-60.00,-34.00,-53.00,-40.00,-15.00,-4.00,+11.00,+7.00,+18.00,-59.00,+9.00,+3.00
+3.00,-1.00,+0.00,+2.00,+98.00,-69.00,+90.00,-33.00,+34.00,+40.00,+26.00,+27.00,+34.00,+43.00,-73.00,+28.00
+56.00,+42.00,+40.00,+22.00,-98.00,-128.00,-98.00,+37.00,-15.00,-15.00,-10.00,-8.00,-25.00,+52.00,-7.00,-54.00
-32.00,-63.00,-29.00,-14.00,+107.00,+60.00,+99.00,-25.00,-30.00,-30.00,-19.00,-22.00,+0.00,+7.00,+28.00,+13.00
-52.00,-26.00,-16.00,-4.00,-56.00,-18.00,-38.00,-57.00,+22.00,-19.00,+3.00,-23.00,+16.00,-77.00,-54.00,-46.00
+37.00,+99.00,+35.00,+21.00,-78.00,-35.00,+32.00,+42.00,-15.00,+22.00,-2.00,+14.00,+89.00,-3.00,+17.00,-15.00
-36.00,-30.00,+10.00,+2.00,+16.00,+33.00,-52.00,+6.00,+6.00,+21.00,+0.00,+28.00,+26.00,+13.00,-62.00,+6.00
+6.00,-22.00,-22.00,-8.00,+39.00,+52.00,+38.00,+4.00,+16.00,+8.00,+34.00,+43.00,+17.00,-22.00,-24.00,+45.00
+39.00,+26.00,+26.00,+15.00,+113.00,+74.00,+63.00,+100.00,-10.00,-5.00,-19.00,-38.00,-128.00,-65.00,-100.00,+0.00
-38.00,-75.00,-30.00,-7.00,-13.00,+78.00,-2.00,+11.00,-35.00,+10.00,+11.00,+17.00,+52.00,+21.00,+79.00,-4.00
+29.00,-6.00,-8.00,+1.00,-59.00,-116.00,-81.00,+26.00,+26.00,+37.00,+14.00,+17.00,-23.00,-37.00,-28.00,+21.00
+28.00,-27.00,-9.00,+12.00,-66.00,+46.00,+95.00,+81.00,-14.00,-38.00,-14.00,-43.00,+78.00,+7.00,+45.00,-30.00
+3.00,+97.00,+55.00,-2.00,+87.00,-10.00,-101.00,-27.00,-13.00,+1.00,-11.00,-13.00,+39.00,-86.00,+4.00,-15.00
+16.00,-107.00,+8.00,+12.00,-75.00,+97.00,+6.00,-10.00,+1.00,-30.00,-13.00,-32.00,-80.00,-84.00,+4.00,+17.00
-15.00,-46.00,-19.00,-12.00,+127.00,-3.00,-69.00,+4.00,-18.00,-2.00,+3.00,+1.00,-24.00,-35.00,+7.00,+32.00
-4.00,-62.00,-22.00,-8.00,-57.00,-96.00,+47.00,-1.00,-38.00,-6.00,+0.00,+8.00,-17.00,-77.00,-90.00,-6.00
+12.00,-19.00,-31.00,-4.00,-46.00,-18.00,-2.00,+50.00,+24.00,+34.00,-3.00,-40.00,+46.00,-5.00,-42.00,-16.00
-3.00,+12.00,+11.00,+16.00,-110.00,+27.00,+71.00,-47.00,+82.00,+47.00,+12.00,+65.00,+42.00,-63.00,-36.00,-26.00
+6.00,+46.00,+8.00,-11.00,+127.00,+127.00,-94.00,+12.00,-25.00,+1.00,-28.00,-53.00,-74.00,-87.00,-57.00,-2.00
+1.00,+12.00,-16.00,-12.00,-123.00,-47.00,+7.00,-11.00,-2.00,-14.00,-9.00,-18.00,+16.00,+55.00,-79.00,-40.00
-15.00,+5.00,-7.00,-6.00,+60.00,-23.00,+70.00,-3.00,-16.00,-24.00,+1.00,-6.00,-19.00,-49.00,+97.00,+30.00
-4.00,+43.00,+6.00,+10.00,+127.00,-17.00,-38.00,-43.00,-3.00,-5.00,+23.00,+72.00,-24.00,+10.00,-76.00,-18.00
+40.00,+27.00,+12.00,+11.00,+59.00,+115.00,+45.00,+64.00,+16.00,+8.00,+5.00,-6.00,+38.00,+68.00,+79.00,+36.00
+22.00,+26.00,+25.00,+5.00,-43.00,-55.00,-21.00,-5.00,+2.00,-11.00,+2.00,+7.00,-46.00,-28.00,+24.00,-16.00
+5.00,-3.00,-5.00,-1.00,-72.00,+10.00,+97.00,+15.00,+9.00,+2.00,+11.00,+65.00,+28.00,+38.00,+67.00,+29.00
+14.00,-16.00,-1.00,-14.00,-90.00,-82.00,-47.00,-16.00,-7.00,-8.00,-27.00,-78.00,-55.00,+36.00,+4.00,+7.00
-35.00,+0.00,-22.00,-8.00,+127.00,+80.00,+119.00,-34.00,+14.00,-1.00,+20.00,+105.00,+62.00,+1.00,+127.00,+32.00
-8.00,+0.00,+0.00,-19.00,+28.00,-22.00,-76.00,-52.00,-9.00,-9.00,-13.00,-45.00,-84.00,-5.00,-15.00,-55.00
-42.00,-27.00,-17.00,-4.00,-128.00,-21.00,+81.00,-50.00,-16.00,+21.00,+2.00,+41.00,+65.00,+89.00,+85.00,-4.00
+2.00,-37.00,-15.00,-10.00,+81.00,-104.00,-8.00,+22.00,-34.00,-43.00,-23.00,-68.00,-35.00,+86.00,+30.00,-8.00
-22.00,-29.00,-14.00,+2.00,-123.00,-52.00,+23.00,-71.00,-13.00,-15.00,+2.00,-5.00,-8.00,+60.00,-4.00,+3.00
+3.00,+33.00,+7.00,+8.00,+25.00,+61.00,+7.00,+30.00,+71.00,+51.00,+6.00,+14.00,+15.00,-1.00,+37.00,-11.00
+19.00,+19.00,+24.00,-11.00,+76.00,+73.00,-128.00,+6.00,+24.00,+18.00,-13.00,-69.00,-110.00,-15.00,-97.00,+4.00
-10.00,-34.00,-4.00,+4.00,-63.00,+17.00,+120.00,+109.00,-67.00,-54.00,-2.00,+72.00,+109.00,+20.00,-56.00,-23.00
-27.00,-9.00,-21.00,-17.00,+86.00,+35.00,+89.00,+4.00,-15.00,-24.00,-18.00,-50.00,-25.00,-5.00,-15.00,+19.00
+1.00,-53.00,-14.00,+9.00,+41.00,-62.00,+52.00,-23.00,+57.00,+47.00,-2.00,+31.00,+32.00,+44.00,+73.00,+3.00
+7.00,-18.00,-4.00,-12.00,-81.00,-117.00,+32.00,-6.00,-47.00,-35.00,+6.00,+12.00,+17.00,+5.00,-112.00,-8.00
-4.00,+84.00,+36.00,+7.00,+25.00,+12.00,-17.00,-9.00,+18.00,+0.00,+13.00,+15.00,+72.00,+59.00,+38.00,+68.00
+12.00,+17.00,+17.00,+15.00,+39.00,-35.00,+54.00,-43.00,-10.00,+9.00,+10.00,+87.00,+108.00,-46.00,+24.00,-7.00
-6.00,-40.00,-31.00,-31.00,+99.00,+73.00,+92.00,+78.00,-118.00,-56.00,-22.00,-10.00,+14.00,-34.00,+104.00,+12.00
-40.00,-31.00,-39.00,-13.00,+98.00,-79.00,-128.00,-128.00,+20.00,-7.00,-26.00,-32.00,-31.00,-37.00,-90.00,-32.00
-46.00,-58.00,-29.00,-24.00,+0.00,-42.00,-119.00,-43.00,+20.00,+10.00,+11.00,+13.00,+84.00,-35.00,+36.00,+8.00
+25.00,+24.00,+0.00,+11.00,-9.00,-47.00,-85.00,-19.00,+24.00,+18.00,+28.00,+69.00,+117.00,+76.00,-78.00,+24.00
+5.00,+30.00,+24.00,+21.00,+122.00,+70.00,+81.00,+73.00,+1.00,+6.00,+7.00,-18.00,+11.00,-27.00,+4.00,+13.00
+3.00,-9.00,+5.00,+10.00,+69.00,-1.00,-67.00,-40.00,-48.00,+2.00,+8.00,+22.00,+17.00,+31.00,-48.00,-13.00
+2.00,-10.00,-7.00,+2.00,+80.00,+114.00,-7.00,-2.00,-4.00,-4.00,-6.00,-11.00,-128.00,-101.00,+66.00,+10.00
+58.00,-6.00,+4.00,-8.00,+93.00,-31.00,-59.00,+48.00,-3.00,-9.00,-21.00,-71.00,-128.00,+48.00,-8.00,-31.00
-29.00,+7.00,+5.00,+3.00,-46.00,-90.00,-70.00,-61.00,+6.00,-9.00,+0.00,-8.00,+8.00,-59.00,-11.00,+19.00
-4.00,+3.00,+2.00,+3.00,+35.00,-83.00,+120.00,+63.00,+24.00,+6.00,-1.00,+11.00,+22.00,+41.00,+64.00,+1.00
-48.00,-45.00,-22.00,-18.00,+88.00,-22.00,-17.00,-48.00,+4.00,-3.00,-11.00,-55.00,-70.00,+52.00,+20.00,-1.00
-24.00,+11.00,+2.00,+1.00,-125.00,+5.00,-61.00,-25.00,-8.00,-2.00,+3.00,-16.00,+30.00,-18.00,-36.00,-9.00
-6.00,+26.00,+13.00,+3.00,+92.00,+53.00,+24.00,-34.00,-47.00,-13.00,-9.00,-17.00,+34.00,+30.00,-72.00,+1.00
+39.00,-37.00,-8.00,+5.00,+3.00,+37.00,+16.00,+19.00,+17.00,-10.00,-12.00,-21.00,-19.00,-77.00,-70.00,-44.00
-5.00,+33.00,-14.00,-9.00,+39.00,-10.00,-73.00,-53.00,-14.00,+14.00,-5.00,+4.00,-69.00,+4.00,+115.00,+1.00
-14.00,+9.00,-11.00,-14.00,-86.00,+109.00,-37.00,-42.00,+4.00,-18.00,-3.00,-5.00,+15.00,+67.00,+41.00,-34.00
+14.00,+44.00,+18.00,+9.00,+62.00,-110.00,-87.00,+15.00,+8.00,-3.00,-12.00,-20.00,+33.00,+34.00,+44.00,-9.00
-28.00,-8.00,+0.00,+11.00,-7.00,+70.00,-50.00,-30.00,-1.00,+7.00,+9.00,+23.00,+51.00,-3.00,+53.00,+22.00
+13.00,-18.00,-1.00,+8.00,+61.00,-69.00,+21.00,+26.00,-6.00,-13.00,-11.00,-19.00,-33.00,-52.00,+45.00,-19.00
-2.00,-29.00,-7.00,-16.00,-97.00,-115.00,-71.00,+10.00,-16.00,-22.00,-8.00,-35.00,+18.00,-88.00,-70.00,-9.00
-5.00,-41.00,-11.00,+1.00,+51.00,+59.00,-56.00,-7.00,+15.00,+13.00,-3.00,-2.00,-31.00,+57.00,+45.00,-25.00
-30.00,-18.00,-13.00,-12.00,+113.00,+72.00,+10.00,-6.00,-15.00,-5.00,+0.00,+5.00,-21.00,+83.00,-1.00,-21.00
+33.00,+9.00,+5.00,-9.00,-125.00,-83.00,-128.00,-9.00,-16.00,-10.00,-16.00,-34.00,-4.00,+21.00,-48.00,-27.00
-30.00,-13.00,-7.00,-2.00,+9.00,+43.00,+45.00,+40.00,-3.00,+2.00,+8.00,+32.00,+102.00,-14.00,-4.00,+18.00
-7.00,-5.00,+0.00,-4.00,-3.00,+127.00,-34.00,+0.00,+19.00,-15.00,-12.00,-55.00,-74.00,-87.00,-30.00,+4.00
-10.00,+4.00,-3.00,-9.00,-76.00,-127.00,+55.00,+21.00,-15.00,+16.00,+15.00,+43.00,+79.00,-32.00,-25.00,+30.00
+75.00,+11.00,+7.00,+12.00,+67.00,+127.00,+36.00,-22.00,-1.00,+1.00,+15.00,+44.00,+123.00,+77.00,-11.00,-15.00
+17.00,+2.00,+16.00,+12.00,-1.00,+11.00,+126.00,+35.00,+3.00,+18.00,+6.00,+12.00,+10.00,+21.00,-54.00,-20.00
+81.00,+44.00,+3.00,-7.00,+63.00,+67.00,-15.00,-3.00,-17.00,-13.00,+0.00,+18.00,+24.00,-22.00,-50.00,+2.00
+10.00,+15.00,-3.00,-5.00,+40.00,+24.00,+1.00,+4.00,+3.00,+0.00,+1.00,-21.00,+37.00,+32.00,-14.00,-2.00
-32.00,-8.00,-1.00,+11.00,+13.00,-30.00,+54.00,-17.00,+37.00,+6.00,+4.00,+14.00,+43.00,-4.00,-77.00,+25.00
-6.00,+9.00,+7.00,+7.00,-34.00,-71.00,-42.00,+64.00,+5.00,+11.00,+6.00,+23.00,+49.00,+6.00,+40.00,+11.00
-10.00,-15.00,+0.00,-2.00,+71.00,+59.00,+4.00,-29.00,-4.00,-8.00,-2.00,-5.00,+23.00,-28.00,-15.00,-3.00
+5.00,+12.00,-1.00,+1.00,-119.00,-53.00,-67.00,+44.00,+56.00,+4.00,+2.00,+13.00,+39.00,-54.00,+36.00,+12.00
-1.00,-14.00,+0.00,+3.00,+10.00,-8.00,+44.00,+5.00,-24.00,-15.00,-4.00,+5.00,+92.00,-8.00,+1.00,-18.00
-14.00,-1.00,-5.00,-6.00,+126.00,-18.00,+12.00,-24.00,+2.00,+30.00,+2.00,-1.00,-19.00,-4.00,+18.00,-3.00
-24.00,-19.00,-3.00,-3.00,-81.00,-91.00,-108.00,-21.00,-3.00,-17.00,+12.00,+43.00,+87.00,+44.00,+51.00,+24.00
+11.00,+14.00,+0.00,+0.00,-14.00,-2.00,-85.00,-16.00,-19.00,-11.00,-5.00,-6.00,-114.00,-85.00,+98.00,+24.00
-26.00,-37.00,+1.00,-2.00,-38.00,+3.00,+27.00,+15.00,+15.00,+7.00,+12.00,+25.00,+44.00,-19.00,-94.00,-45.00
+11.00,+13.00,+3.00,+8.00,+68.00,+99.00,-2.00,-2.00,-19.00,+10.00,-10.00,-31.00,-125.00,-126.00,-2.00,+15.00
-24.00,-29.00,-11.00,-13.00,-46.00,-53.00,-30.00,-21.00,+7.00,-19.00,-3.00,+3.00,+30.00,+60.00,-100.00,-42.00
+12.00,-7.00,-2.00,+3.00,-13.00,-27.00,-28.00,-20.00,+47.00,+25.00,+14.00,+41.00,+79.00,+57.00,+62.00,+68.00
-11.00,+5.00,+1.00,+2.00,+29.00,+90.00,-78.00,-7.00,+2.00,-11.00,-23.00,-48.00,-56.00,+24.00,-95.00,-28.00
-26.00,-33.00,-16.00,-21.00,-76.00,-107.00,+5.00,-94.00,+0.00,-2.00,-1.00,-1.00,-77.00,+0.00,+120.00,+46.00
+8.00,+11.00,+2.00,+3.00,-117.00,-29.00,+59.00,-16.00,+0.00,+14.00,+8.00,+23.00,+5.00,-38.00,-44.00,-6.00
-10.00,-58.00,-4.00,-4.00,+71.00,+76.00,+124.00,+23.00,-27.00,-9.00,+4.00,+21.00,-123.00,-54.00,-62.00,-11.00
+39.00,+91.00,+9.00,-1.00,-33.00,-60.00,-27.00,+64.00,-10.00,-2.00,-3.00,-19.00,-25.00,+15.00,+113.00,+4.00
-44.00,-8.00,-5.00,-4.00,-46.00,+83.00,-118.00,-44.00,+36.00,-4.00,-4.00,-22.00,+49.00,-20.00,+18.00,-5.00
+10.00,+6.00,-1.00,+1.00,+24.00,-56.00,-1.00,+15.00,+19.00,+9.00,+2.00,-4.00,-88.00,+72.00,-72.00,+27.00
-8.00,-10.00,+2.00,+1.00,+93.00,+94.00,+109.00,+61.00,+6.00,+0.00,-2.00,+4.00,+9.00,+11.00,+4.00,+10.00
+8.00,+13.00,-5.00,-8.00,-50.00,+85.00,-13.00,-32.00,-9.00,+5.00,-5.00,-2.00,+44.00,+16.00,-17.00,-22.00
-31.00,-29.00,-7.00,-3.00,-20.00,-36.00,-47.00,+1.00,-27.00,-17.00,-5.00,+8.00,+26.00,-14.00,+51.00,-25.00
+40.00,+15.00,+2.00,-3.00,-19.00,-49.00,+45.00,+18.00,+11.00,+5.00,+6.00,+8.00,-13.00,-22.00,+80.00,+15.00
+18.00,+23.00,+4.00,+5.00,+70.00,+22.00,+32.00,+44.00,-4.00,-3.00,-3.00,+4.00,+75.00,+21.00,-53.00,-21.00
-4.00,-5.00,-6.00,-8.00,+21.00,-21.00,-12.00,-20.00,-15.00,-11.00,-3.00,-4.00,-50.00,-29.00,+21.00,+14.00
-12.00,-9.00,+0.00,-6.00,+16.00,-52.00,-4.00,+11.00,+10.00,-9.00,-15.00,-19.00,+21.00,-89.00,-69.00,-10.00
-44.00,-22.00,-12.00,-9.00,+10.00,+30.00,+63.00,-22.00,-29.00,+3.00,-11.00,+6.00,+77.00,+37.00,-24.00,+7.00
-37.00,-10.00,-10.00,-14.00,-128.00,-64.00,-122.00,-91.00,-2.00,-23.00,-5.00,-37.00,-35.00,+15.00,+14.00,-10.00
-1.00,+21.00,+1.00,+2.00,+5.00,-32.00,+26.00,-30.00,+35.00,+29.00,-2.00,+0.00,-9.00,+9.00,-1.00,+5.00
+16.00,-3.00,-5.00,-3.00,+15.00,+42.00,+8.00,-27.00,-9.00,-6.00,+10.00,+11.00,-61.00,-10.00,+75.00,-2.00
-12.00,+13.00,+3.00,+8.00,+39.00,+22.00,-70.00,+24.00,-3.00,+21.00,-1.00,-11.00,-43.00,-119.00,-10.00,+11.00
+23.00,+13.00,+2.00,+1.00,+63.00,+11.00,+36.00,+30.00,+0.00,-4.00,-6.00,-27.00,-43.00,+15.00,-34.00,-16.00
-19.00,-5.00,+5.00,+4.00,-45.00,+17.00,+46.00,-4.00,-39.00,-13.00,+4.00,+24.00,+25.00,-8.00,+14.00,-12.00
+0.00,+4.00,-1.00,+1.00,+4.00,+0.00,+63.00,-12.00,+9.00,-7.00,-3.00,-5.00,+8.00,+5.00,-3.00,+15.00
+16.00,+20.00,+1.00,+5.00,+90.00,-2.00,-12.00,+17.00,-2.00,-10.00,-14.00,-55.00,-80.00,-35.00,+102.00,-4.00
-9.00,-14.00,-4.00,-2.00,-128.00,-63.00,-63.00,-6.00,-3.00,+1.00,-9.00,-32.00,-30.00,-35.00,-33.00,+0.00
-17.00,-25.00,-3.00,-2.00,-22.00,-93.00,+38.00,+45.00,+17.00,+7.00,+12.00,+30.00,+14.00,+0.00,-8.00,+19.00
+19.00,+20.00,+5.00,+3.00,+108.00,-3.00,+96.00,+33.00,-22.00,-6.00,-8.00,-26.00,+23.00,-26.00,-80.00,-41.00
-11.00,-18.00,+0.00,+4.00,-64.00,-60.00,-50.00,-24.00,+5.00,-15.00,-2.00,+9.00,-28.00,+63.00,+10.00,-17.00
-6.00,+4.00,-4.00,-12.00,-69.00,-42.00,-82.00,-8.00,-3.00,+3.00,-4.00,-4.00,-24.00,+16.00,+36.00,+10.00
-3.00,-25.00,-1.00,+7.00,-30.00,-37.00,+17.00,-13.00,+19.00,+6.00,+4.00,-13.00,+19.00,-48.00,-32.00,+22.00
+28.00,+61.00,+9.00,+9.00,+3.00,+46.00,+14.00,+1.00,+11.00,+7.00,+1.00,+0.00,+85.00,-34.00,-104.00,-1.00
-11.00,-23.00,+3.00,+2.00,+9.00,+15.00,+48.00,+28.00,+0.00,+5.00,+15.00,+43.00,+70.00,-37.00,-10.00,+1.00
+22.00,+30.00,+8.00,+7.00,+112.00,-30.00,-54.00,-49.00,-6.00,-5.00,-15.00,-56.00,-44.00,-20.00,-16.00,-16.00
-1.00,-5.00,-8.00,-10.00,-25.00,-14.00,-36.00,-7.00,-28.00,-16.00,-3.00,+0.00,+48.00,-35.00,-45.00,-13.00
-16.00,-23.00,-3.00,-1.00,+3.00,-33.00,-16.00,+14.00,+21.00,+3.00,+3.00,+14.00,-38.00,+55.00,-10.00,+13.00
-17.00,+9.00,+4.00,+3.00,+47.00,+63.00,+16.00,-10.00,-1.00,+16.00,+8.00,-10.00,+33.00,-37.00,-39.00,-5.00
+7.00,-3.00,+6.00,+7.00,-11.00,+53.00,+54.00,+8.00,+7.00,+10.00,+6.00,+11.00,+22.00,+29.00,+3.00,+3.00
-7.00,+5.00,+2.00,+6.00,+127.00,+124.00,+18.00,+5.00,-1.00,+4.00,+6.00,+11.00,-83.00,-15.00,-26.00,+9.00
+10.00,+7.00,+4.00,-1.00,-69.00,+46.00,+10.00,+2.00,-1.00,-15.00,-10.00,-18.00,-31.00,-3.00,+73.00,-6.00
-3.00,-2.00,+1.00,-3.00,-62.00,-38.00,-8.00,+2.00,+6.00,-10.00,+6.00,+17.00,+55.00,+37.00,+55.00,+24.00
+3.00,+8.00,+2.00,+4.00,+56.00,+27.00,+36.00,+27.00,-19.00,+7.00,-1.00,-3.00,-28.00,-80.00,+21.00,-1.00
+6.00,-32.00,-3.00,-9.00,-71.00,+20.00,+89.00,+29.00,-11.00,-4.00,-2.00,-14.00,+20.00,+25.00,-49.00,-24.00
+10.00,+36.00,+1.00,+2.00,+95.00,+48.00,+34.00,+8.00,-21.00,-10.00,-13.00,-55.00,-54.00,+8.00,-21.00,-4.00
+4.00,+5.00,-3.00,-5.00,-113.00,-70.00,+57.00,-9.00,+0.00,-3.00,-4.00,+4.00,-27.00,+41.00,-12.00,-7.00
-5.00,+4.00,-3.00,-1.00,+13.00,+11.00,+4.00,-12.00,+30.00,+9.00,+9.00,+28.00,+62.00,+12.00,+56.00,+38.00
+0.00,-33.00,-1.00,+3.00,+58.00,-3.00,-45.00,-17.00,+22.00,+15.00,-2.00,-14.00,-11.00,-15.00,+42.00,+5.00
-15.00,-31.00,-5.00,-4.00,-82.00,-74.00,-43.00,-12.00,-17.00,-2.00,-5.00,-18.00,-51.00,-3.00,+39.00,-4.00
+2.00,-16.00,-2.00,+4.00,+54.00,+15.00,+20.00,+16.00,-17.00,-8.00,+0.00,+33.00,+39.00,-12.00,+14.00,-25.00
+7.00,+17.00,+1.00,-2.00,-4.00,+102.00,-11.00,-25.00,-20.00,-18.00,-15.00,-26.00,-29.00,-12.00,-91.00,-29.00
-8.00,+2.00,-11.00,-6.00,-27.00,-52.00,+49.00,+62.00,-12.00,-21.00,-14.00,-21.00,-75.00,+49.00,-4.00,+1.00
-8.00,-27.00,-7.00,-7.00,-51.00,-98.00,+35.00,+1.00,+9.00,+12.00,+8.00,+32.00,+71.00,+24.00,+38.00,+14.00
-7.00,-1.00,+3.00,+4.00,+8.00,-46.00,-91.00,-18.00,-14.00,-4.00,-1.00,+2.00,-24.00,+10.00,-23.00,-20.00
+0.00,-4.00,+1.00,-1.00,-128.00,-7.00,+13.00,-17.00,+6.00,+4.00,-2.00,+4.00,+37.00,-9.00,+9.00,+5.00
-2.00,+16.00,+3.00,+2.00,+60.00,-30.00,-119.00,+12.00,+4.00,+2.00,+7.00,+31.00,+64.00,-8.00,-12.00,-24.00
+18.00,-10.00,+3.00,+6.00,+24.00,+127.00,-9.00,-13.00,-2.00,+2.00,+0.00,+4.00,-71.00,-5.00,-13.00,-3.00
-6.00,-14.00,-2.00,-5.00,-95.00,-72.00,-8.00,+25.00,+9.00,+0.00,-1.00,-4.00,+14.00,-27.00,+35.00,+29.00
-2.00,+9.00,+0.00,-2.00,+60.00,-43.00,-5.00,+1.00,-31.00,-5.00,+1.00,+7.00,+118.00,+38.00,-65.00,-10.00
+5.00,+4.00,+2.00,+1.00,-91.00,-18.00,-29.00,-33.00,+30.00,+0.00,+1.00,+39.00,+98.00,-4.00,+14.00,+10.00
+5.00,+6.00,+1.00,+1.00,-13.00,-105.00,-1.00,+22.00,-41.00,-29.00,-8.00,-30.00,-35.00,+33.00,-12.00,-24.00
+8.00,+19.00,-4.00,-9.00,-53.00,+4.00,+25.00,-22.00,+33.00,+34.00,+0.00,-29.00,-41.00,-16.00,-34.00,+21.00
+2.00,-16.00,+1.00,-2.00,-32.00,-5.00,+9.00,+3.00,-14.00,+3.00,+6.00,+15.00,-68.00,-16.00,+6.00,-7.00
+13.00,+5.00,-2.00,+3.00,+60.00,-45.00,+29.00,+5.00,+1.00,-8.00,-11.00,-27.00,+40.00,-22.00,+15.00,+10.00
-7.00,+9.00,+1.00,-7.00,-45.00,-120.00,-31.00,-12.00,+14.00,+2.00,+5.00,+21.00,+39.00,-27.00,-6.00,+3.00
+8.00,-1.00,+1.00,+0.00,-43.00,+71.00,+32.00,-14.00,-26.00,-34.00,-3.00,+11.00,-3.00,+64.00,+61.00,-6.00
-25.00,-34.00,-6.00,+1.00,+37.00,+60.00,-23.00,+7.00,+39.00,+29.00,-3.00,-17.00,+82.00,+75.00,+110.00,+13.00
+8.00,+23.00,-2.00,-3.00,+100.00,-3.00,-8.00,-24.00,-23.00,-1.00,+11.00,+39.00,-38.00,-83.00,-49.00,-3.00
+7.00,-12.00,+5.00,+9.00,+33.00,+14.00,+45.00,+47.00,-3.00,-10.00,-2.00,-6.00,-14.00,+38.00,-52.00,-4.00
-6.00,+14.00,-1.00,+1.00,+95.00,+48.00,+2.00,+15.00,-15.00,+9.00,-8.00,-50.00,-66.00,+1.00,-23.00,+1.00
-2.00,-15.00,-2.00,-1.00,+10.00,-84.00,-18.00,-21.00,+0.00,-22.00,+5.00,+31.00,+19.00,+51.00,+33.00,-10.00
+4.00,+26.00,+6.00,+10.00,+1.00,+20.00,+50.00,+22.00,+21.00,+6.00,-3.00,-13.00,+24.00,-55.00,+88.00,+8.00
-6.00,-6.00,+1.00,+2.00,+85.00,+120.00,-54.00,+30.00,-3.00,+15.00,+1.00,+23.00,+25.00,+22.00,-98.00,-16.00
+4.00,-6.00,-4.00,-4.00,+21.00,-17.00,+10.00,-13.00,-3.00,-4.00,+4.00,+16.00,+2.00,-2.00,-21.00,-3.00
-9.00,+15.00,-4.00,-4.00,-5.00,+33.00,+42.00,+0.00,+10.00,-1.00,+1.00,+3.00,-99.00,-22.00,+95.00,+4.00
-3.00,-8.00,-2.00,-2.00,+46.00,+110.00,-65.00,-34.00,+3.00,-4.00,-12.00,-52.00,+36.00,+8.00,-17.00,+18.00
-19.00,-17.00,-6.00,-1.00,-8.00,+19.00,-9.00,-29.00,-16.00,-3.00,+7.00,+35.00,+70.00,-33.00,+27.00,-1.00
+1.00,+5.00,+3.00,+4.00,+1.00,+63.00,+68.00,+2.00,+29.00,+3.00,+0.00,+16.00,+102.00,+37.00,+27.00,-9.00
+43.00,-2.00,-4.00,-5.00,+111.00,+86.00,-2.00,+37.00,+6.00,-2.00,-1.00,+3.00,-97.00,-23.00,+5.00,-9.00
-6.00,-7.00,-2.00,-4.00,-48.00,-71.00,+63.00,-6.00,-22.00,-7.00,-2.00,-6.00,-68.00,+42.00,-7.00,-2.00
-7.00,+7.00,-3.00,-4.00,+54.00,-3.00,-20.00,-29.00,+6.00,+6.00,+0.00,-6.00,+19.00,-4.00,+26.00,+13.00
-7.00,-4.00,-1.00,+0.00,+95.00,+74.00,-16.00,+16.00,-13.00,-11.00,-10.00,-23.00,+30.00,-1.00,-38.00,-15.00
-6.00,+1.00,-3.00,-1.00,-37.00,-103.00,-42.00,-17.00,+10.00,-5.00,-6.00,-15.00,+55.00,+0.00,-41.00,-3.00
-19.00,-26.00,-5.00,-2.00,+21.00,+17.00,-20.00,+5.00,+10.00,-4.00,+9.00,+29.00,-45.00,+18.00,+31.00,+2.00
+17.00,+18.00,+3.00,-1.00,+66.00,+0.00,+5.00,-17.00,+30.00,+22.00,-4.00,-23.00,-32.00,-6.00,-17.00,+8.00
+0.00,-18.00,+5.00,+1.00,+17.00,+1.00,-45.00,-2.00,-17.00,-4.00,+2.00,+4.00,-30.00,-32.00,-34.00,-6.00
-1.00,+33.00,+0.00,-4.00,+10.00,-76.00,+9.00,+0.00,-13.00,-8.00,+3.00,+19.00,+88.00,-10.00,-40.00,+2.00
-1.00,-13.00,-2.00,+4.00,+40.00,+55.00,+32.00,+4.00,-30.00,-8.00,-7.00,-17.00,-12.00,+22.00,-10.00,-13.00
-9.00,+1.00,-3.00,-3.00,-39.00,-75.00,-6.00,+0.00,+45.00,-1.00,+2.00,+7.00,-2.00,-14.00,+6.00,+10.00
+14.00,+13.00,+2.00,+2.00,+28.00,-45.00,-11.00,+9.00,+14.00,+27.00,-2.00,+2.00,+12.00,+6.00,+23.00,+3.00
-12.00,-29.00,-4.00,-4.00,-96.00,-65.00,-8.00,+6.00,-20.00,-16.00,-11.00,-22.00,-25.00,+0.00,-20.00,-13.00
-4.00,-19.00,-12.00,-4.00,+0.00,+1.00,-22.00,-16.00,-5.00,-16.00,-2.00,-1.00,-37.00,+12.00,+7.00,+6.00
+0.00,+38.00,+13.00,+4.00,+46.00,-7.00,-4.00,-15.00,+3.00,+22.00,+14.00,+23.00,+43.00,+6.00,+25.00,+9.00
+5.00,-36.00,+7.00,+13.00,-27.00,+6.00,+17.00,+15.00,-2.00,-5.00,-3.00,-28.00,-19.00,-14.00,-12.00,-2.00
-3.00,+14.00,+2.00,+0.00,+8.00,+23.00,+9.00,+4.00,-5.00,+4.00,+0.00,+2.00,+61.00,+7.00,-9.00,-4.00
-2.00,+2.00,-2.00,-1.00,+57.00,+57.00,-14.00,+6.00,-13.00,-4.00,-10.00,-11.00,-26.00,-13.00,+20.00,-9.00
-4.00,-38.00,-16.00,-13.00,-59.00,-27.00,-4.00,-8.00,-14.00,-16.00,-9.00,-10.00,+61.00,-31.00,+7.00,+2.00
-4.00,+7.00,-3.00,-4.00,-38.00,-71.00,-78.00,-10.00,+8.00,+1.00,+3.00,+21.00,+39.00,-13.00,-15.00,+0.00
-9.00,+10.00,+0.00,-1.00,-69.00,-65.00,+8.00,-18.00,-9.00,-1.00,-4.00,-14.00,-39.00,-18.00,-22.00,-18.00
-5.00,-10.00,-3.00,-1.00,-7.00,+9.00,-21.00,+4.00,+2.00,+7.00,+4.00,+16.00,+25.00,-9.00,-11.00,+2.00
+2.00,-9.00,-1.00,-1.00,+10.00,-41.00,-8.00,+2.00,-3.00,+0.00,+4.00,+8.00,+10.00,+9.00,+31.00,+11.00
+3.00,+21.00,+5.00,+9.00,+83.00,+97.00,+19.00,-1.00,-4.00,-2.00,+8.00,+11.00,-27.00,+2.00,-2.00,+4.00
+2.00,+2.00,+3.00,+4.00,+127.00,+119.00,+17.00,+0.00,-6.00,-8.00,-14.00,-39.00,-10.00,-23.00,-14.00,-8.00
-5.00,+5.00,-1.00,-11.00,-100.00,-87.00,-22.00,-13.00,+3.00,-3.00,-2.00,-9.00,+29.00,+18.00,+2.00,-4.00
-7.00,-2.00,-1.00,+4.00,+79.00,+19.00,+11.00,-7.00,+7.00,+7.00,-6.00,-35.00,-70.00,+1.00,+4.00,+2.00
-1.00,+0.00,-5.00,+2.00,+80.00,+44.00,+8.00,+2.00,-19.00,-13.00,-2.00,+4.00,+46.00,-6.00,-14.00,-3.00
+7.00,+1.00,+0.00,+2.00,-104.00,-54.00,+0.00,+8.00,+18.00,+19.00,+9.00,-9.00,+68.00,+20.00,+7.00,+11.00
+7.00,+3.00,+5.00,+1.00,+98.00,+72.00,+21.00,+9.00,+6.00,-4.00,-2.00,+19.00,+8.00,+3.00,-4.00,+5.00
-3.00,-19.00,-3.00,-5.00,+25.00,+78.00,-5.00,-7.00,+2.00,+11.00,-4.00,-6.00,+0.00,-14.00,-18.00,-3.00
-8.00,-12.00,-8.00,-10.00,-107.00,-126.00,-21.00,-8.00,-10.00,-17.00,-4.00,-9.00,-2.00,-14.00,-9.00,-2.00
-13.00,-13.00,-2.00,-2.00,+36.00,+33.00,-5.00,-2.00,-1.00,-1.00,+2.00,+7.00,+9.00,+3.00,-3.00,+3.00
-3.00,+22.00,+2.00,-2.00,+27.00,-6.00,-5.00,-4.00,+0.00,+4.00,+0.00,-12.00,-3.00,+2.00,-4.00,+2.00
+1.00,+1.00,-3.00,+1.00,-4.00,-11.00,+0.00,+0.00,-8.00,-6.00,+0.00,+16.00,+11.00,+14.00,+4.00,-3.00
-8.00,-3.00,-4.00,-6.00,-11.00,+28.00,+3.00,-4.00,+4.00,-1.00,-7.00,-1.00,-62.00,-9.00,-2.00,-6.00
+2.00,-5.00,+10.00,+9.00,-7.00,-4.00,-1.00,+4.00,-6.00,-1.00,-1.00,+9.00,-50.00,-3.00,-4.00,-2.00
+9.00,+8.00,+4.00,+6.00,-91.00,-73.00,-4.00,+4.00,-6.00,-9.00,-2.00,-8.00,-16.00,-4.00,-9.00,-2.00
-5.00,-8.00,-15.00,-16.00,-29.00,+4.00,-4.00,-6.00,-6.00,-6.00,+4.00,-3.00,-26.00,+0.00,-3.00,-4.00
-4.00,-6.00,-13.00,-16.00,-17.00,-10.00,-2.00,-1.00,+8.00,+9.00,+3.00,+15.00,-30.00,+2.00,+1.00,+4.00
-1.00,-10.00,-4.00,-4.00,+2.00,+9.00,+2.00,+2.00,-1.00,-5.00,-8.00,-4.00,-19.00,-7.00,-12.00,-3.00
-6.00,-8.00,+1.00,+4.00,-9.00,-42.00,-10.00,-7.00,+3.00,+7.00,+3.00,+1.00,-10.00,+0.00,+2.00,+6.00
+6.00,+14.00,+12.00,+15.00,+1.00,+3.00,+2.00,+4.00,-4.00,-3.00,-4.00,+3.00,+23.00,+4.00,-1.00,-5.00
+0.00,-16.00,-3.00,-2.00,+22.00,+14.00,-3.00,-3.00,-5.00,+3.00,-1.00,-4.00,-35.00,-5.00,-10.00,-8.00
+1.00,+9.00,-2.00,-2.00,+35.00,-24.00,-2.00,+1.00,+11.00,-15.00,-2.00,+7.00,-54.00,-1.00,+9.00,+15.00
-4.00,+14.00,+17.00,+6.00,+5.00,+34.00,+9.00,-11.00,-3.00,+1.00,-3.00,-9.00,+1.00,-2.00,-4.00,-10.00
-3.00,-3.00,-7.00,-7.00,-49.00,-25.00,-6.00,-3.00,-6.00,-5.00,+0.00,+0.00,+40.00,+7.00,-1.00,-2.00
+4.00,+5.00,-2.00,-3.00,-68.00,+7.00,+6.00,+8.00,-3.00,-4.00,-3.00,-16.00,-89.00,-18.00,-7.00,-4.00
-5.00,-12.00,-6.00,+0.00,+20.00,+11.00,-5.00,-8.00,-11.00,-4.00,+1.00,+9.00,-19.00,-3.00,-5.00,-8.00
-2.00,+1.00,-5.00,-2.00,-8.00,-14.00,+2.00,+13.00,+22.00,+25.00,+3.00,-5.00,-13.00,-1.00,+0.00,+8.00
+1.00,-2.00,+8.00,+7.00,+12.00,+5.00,+1.00,-3.00,-17.00,-24.00,-6.00,+9.00,+40.00,+6.00,+3.00,+3.00
-5.00,-4.00,+12.00,+17.00,+36.00,+20.00,+1.00,-6.00,+11.00,+13.00,-1.00,+4.00,+29.00,-3.00,-1.00,-2.00
+1.00,+8.00,+4.00,-2.00,+4.00,+6.00,-2.00,+8.00,+10.00,+2.00,+11.00,-2.00,+7.00,-3.00,-6.00,-6.00
-9.00,-65.00,-45.00,-35.00,-29.00,-9.00,-6.00,-9.00,-11.00,-4.00,+7.00,-7.00,-3.00,-2.00,-2.00,-3.00
-7.00,+41.00,-13.00,-10.00,+5.00,+11.00,-3.00,-5.00,+4.00,-6.00,-5.00,+4.00,-1.00,+4.00,+2.00,+3.00
+2.00,+33.00,+23.00,+4.00,+4.00,-1.00,+0.00,+2.00,-2.00,-6.00,-10.00,+0.00,+3.00,-2.00,+0.00,+0.00
-1.00,-20.00,+3.00,+2.00,-2.00,+3.00,-2.00,-2.00,-9.00,+1.00,-4.00,+1.00,+0.00,-2.00,-4.00,-5.00
+0.00,-12.00,+5.00,+4.00,-19.00,-32.00,-4.00,-1.00,-15.00,-21.00,-4.00,-3.00,+12.00,-2.00,-5.00,-8.00
+0.00,+16.00,-4.00,-2.00,+4.00,-3.00,-2.00,+1.00,+6.00,+24.00,+7.00,+2.00,+29.00,+3.00,-1.00,-1.00
-2.00,+5.00,-7.00,+1.00,-24.00,+17.00,+0.00,-3.00,-6.00,-5.00,-3.00,-2.00,+19.00,-3.00,+0.00,+4.00
+3.00,+12.00,+4.00,+3.00,-10.00,+9.00,+0.00,-2.00,+4.00,+12.00,+0.00,+8.00,+55.00,+4.00,+1.00,+0.00
+0.00,-7.00,+8.00,+7.00,-8.00,-3.00,+2.00,+4.00,-7.00,-2.00,-5.00,-8.00,+3.00,-5.00,-4.00,-5.00
-2.00,-17.00,-5.00,+1.00,-6.00,-1.00,-3.00,-2.00,-11.00,-9.00,-3.00,-2.00,-23.00,-2.00,-1.00,-3.00
+4.00,+22.00,+0.00,-1.00,+24.00,-14.00,-3.00,-2.00,+17.00,+9.00,+2.00,+6.00,+29.00,+2.00,+1.00,+3.00
-2.00,-6.00,-3.00,-3.00,+9.00,+14.00,+0.00,+0.00,-3.00,+5.00,+4.00,+1.00,-1.00,+0.00,-1.00,-2.00
+3.00,+8.00,-5.00,-3.00,-22.00,+0.00,-1.00,+2.00,-5.00,-6.00,-12.00,-9.00,-18.00,-4.00,-4.00,-2.00
-11.00,-5.00,+5.00,+3.00,+5.00,-2.00,-3.00,-5.00,+9.00,+4.00,+1.00,+7.00,+8.00,+1.00,+2.00,+1.00
-3.00,-10.00,-6.00,-5.00,+10.00,-15.00,+0.00,+1.00,+1.00,+2.00,+13.00,+4.00,+1.00,-1.00,-3.00,-2.00
-4.00,-32.00,-9.00,+1.00,+2.00,-3.00,-2.00,-2.00,-6.00,+5.00,-7.00,+3.00,-20.00,-3.00,-2.00,-3.00
+1.00,+30.00,+16.00,+15.00,+3.00,-5.00,-2.00,-3.00,-12.00,-30.00,-21.00,-3.00,-6.00,+1.00,-1.00,-4.00
+25.00,+56.00,+30.00,+4.00,-2.00,-1.00,+3.00,+8.00,-12.00,-10.00,-1.00,-8.00,-13.00,-6.00,-5.00,-3.00
-7.00,-21.00,-39.00,-34.00,+2.00,-3.00,-3.00,-6.00,+3.00,+5.00,+9.00,-3.00,-9.00,-1.00,-1.00,+2.00
+0.00,+2.00,-17.00,-17.00,-6.00,-2.00,-2.00,+0.00,+0.00,+6.00,+2.00,-7.00,-20.00,-4.00,-3.00,-2.00
-3.00,+12.00,-5.00,+4.00,-6.00,-5.00,-3.00,-2.00,+6.00,+11.00,+5.00,+5.00,+2.00,+1.00,+2.00,+2.00
+1.00,-30.00,+15.00,+15.00,+3.00,+5.00,+1.00,+2.00,-8.00,-1.00,-6.00,+0.00,-7.00,+0.00,-2.00,-7.00
+3.00,+2.00,+11.00,+7.00,-1.00,-7.00,+0.00,+0.00,+0.00,-5.00,-4.00,+1.00,-6.00,+3.00,+3.00,+0.00
+1.00,+2.00,+2.00,+2.00,+6.00,+1.00,+0.00,+1.00,-7.00,-12.00,+0.00,+1.00,+4.00,+0.00,-2.00,+1.00
-2.00,-1.00,+3.00,-1.00,-3.00,-8.00,-1.00,-2.00,+20.00,+3.00,+3.00,+2.00,+4.00,+0.00,-1.00,+5.00
+1.00,+2.00,-3.00,-4.00,-2.00,-1.00,+0.00,+0.00,+0.00,+21.00,+0.00,+0.00,-8.00,-3.00,-2.00,-3.00
-2.00,-22.00,+0.00,+0.00,+9.00,-3.00,-1.00,+0.00,-4.00,-5.00,+0.00,-2.00,-2.00,+0.00,+1.00,+2.00
-4.00,+19.00,-1.00,-2.00,+0.00,-3.00,-1.00,-4.00,-4.00,-4.00,-4.00,-4.00,-6.00,+0.00,-1.00,-2.00
-2.00,-13.00,-2.00,-3.00,+1.00,+1.00,-1.00,-1.00,-19.00,-15.00,-4.00,-1.00,+1.00,-4.00,-2.00,-3.00
-5.00,+5.00,-9.00,-3.00,-5.00,-6.00,-4.00,-4.00,+7.00,-5.00,+0.00,+0.00,-5.00,-2.00,-2.00,-1.00
-6.00,-19.00,+2.00,+3.00,+5.00,-2.00,-2.00,-4.00,+14.00,-12.00,+4.00,+1.00,-3.00,+0.00,+2.00,+7.00
+2.00,-35.00,+3.00,+3.00,-1.00,+1.00,+0.00,-1.00,+16.00,+40.00,-3.00,-1.00,-4.00,-2.00,+0.00,-3.00
+5.00,+39.00,-5.00,-8.00,-5.00,-2.00,+0.00,+2.00,-24.00,-16.00,+12.00,-1.00,-5.00,-1.00,-3.00,-3.00
-5.00,+2.00,-7.00,-6.00,-2.00,+1.00,+0.00,-4.00,-6.00,-8.00,-3.00,+1.00,+2.00,-1.00,-3.00,-4.00
+2.00,-3.00,+4.00,-2.00,+0.00,-17.00,+1.00,+2.00,+1.00,+0.00,+6.00,-4.00,-3.00,-2.00,+0.00,+6.00
-11.00,-1.00,-18.00,-21.00,-7.00,-6.00,-4.00,-6.00,+0.00,-19.00,-2.00,+0.00,+3.00,-1.00,+1.00,+2.00
-5.00,-25.00,+2.00,+3.00,-2.00,-3.00,-2.00,-2.00,+16.00,+34.00,+5.00,+4.00,+2.00,-1.00,+0.00,+0.00
-7.00,-22.00,-4.00,+4.00,+1.00,-1.00,-1.00,-2.00,-7.00,-10.00,-5.00,-2.00,-4.00,-3.00,-1.00,-6.00
+3.00,+14.00,+14.00,+17.00,+5.00,+6.00,-1.00,+2.00,-5.00,-7.00,-8.00,+1.00,-2.00,+0.00,-2.00,-4.00
+1.00,+4.00,+13.00,+6.00,+1.00,+3.00,+0.00,+2.00,-12.00,-9.00,+5.00,-4.00,-4.00,-2.00,-1.00,-2.00
-1.00,-7.00,-21.00,-14.00,-6.00,-16.00,+0.00,-2.00,+7.00,+10.00,+0.00,-2.00,-3.00,-1.00,+0.00,-1.00
+2.00,-2.00,-2.00,-1.00,+5.00,+4.00,-1.00,+0.00,-2.00,-8.00,+0.00,-2.00,+0.00,+0.00,-2.00,+2.00
-6.00,-6.00,-5.00,-2.00,-9.00,-9.00,-3.00,-2.00,-16.00,-10.00,-9.00,-1.00,+0.00,+1.00,-1.00,-3.00
+4.00,+20.00,+8.00,+4.00,+2.00,-1.00,+2.00,+2.00,+29.00,+4.00,-4.00,-1.00,+1.00,+0.00,+0.00,+5.00
-4.00,+24.00,+10.00,+4.00,+1.00,+5.00,-1.00,-3.00,-8.00,-12.00,-3.00,-1.00,+0.00,+0.00,+1.00,+3.00
+0.00,+14.00,+1.00,+8.00,+1.00,-1.00,-1.00,-1.00,-4.00,+21.00,+1.00,+4.00,+18.00,-1.00,-2.00,-4.00
-5.00,-57.00,-4.00,-7.00,+4.00,+20.00,-1.00,-4.00,-61.00,-28.00,+1.00,-6.00,-47.00,-3.00,-3.00,-7.00
-4.00,-21.00,-17.00,-14.00,-6.00,-39.00,+2.00,+2.00,-17.00,-8.00,+2.00,-2.00,+0.00,-3.00,-2.00,-3.00
+1.00,-8.00,-3.00,-4.00,-7.00,-4.00,-1.00,+0.00,+22.00,+8.00,+1.00,+3.00,+2.00,+1.00,+2.00,+9.00
-9.00,-10.00,-2.00,-2.00,-3.00,-10.00,-2.00,-2.00,-10.00,-15.00,-7.00,-5.00,-2.00,-3.00,-5.00,-3.00
-5.00,+8.00,-3.00,+3.00,-3.00,-8.00,-3.00,-2.00,+28.00,+18.00,+7.00,+0.00,+8.00,+1.00,-1.00,-1.00
-3.00,+1.00,+15.00,+17.00,+12.00,+20.00,-1.00,-2.00,+6.00,+3.00,-13.00,+0.00,-4.00,+0.00,+1.00,+0.00
+8.00,+41.00,+16.00,+5.00,+7.00,+7.00,+2.00,+4.00,-23.00,-36.00,-5.00,+6.00,+21.00,+1.00,+2.00,+0.00
+6.00,-4.00,-17.00,-14.00,-16.00,+17.00,+6.00,+4.00,-16.00,+26.00,+11.00,+0.00,-32.00,-1.00,-1.00,-1.00
+6.00,+11.00,+8.00,-7.00,+44.00,+16.00,+5.00,+3.00,+6.00,+0.00,+0.00,+3.00,+27.00,-2.00,-4.00,-6.00
+6.00,+0.00,-18.00,-13.00,-19.00,-23.00,-3.00,+0.00,+3.00,+14.00,+6.00,-10.00,-4.00,-1.00,-3.00,-2.00
-8.00,-11.00,-1.00,+0.00,-18.00,-24.00,-7.00,-3.00,-9.00,+7.00,+0.00,+1.00,+10.00,+0.00,-2.00,+3.00
-9.00,-12.00,-3.00,+4.00,+6.00,+7.00,-4.00,-6.00,+19.00,-21.00,-12.00,-3.00,+1.00,+1.00,+1.00,+2.00
-10.00,+5.00,+5.00,+6.00,+2.00,+4.00,-1.00,-3.00,+26.00,+4.00,-3.00,+4.00,-1.00,-1.00,-1.00,-4.00
+3.00,+12.00,+7.00,+7.00,+2.00,+10.00,+1.00,-1.00,+1.00,-47.00,-6.00,+0.00,+10.00,+2.00,+0.00,+1.00
+25.00,+32.00,+5.00,+8.00,+9.00,+17.00,+5.00,+9.00,-4.00,+9.00,-7.00,-5.00,-9.00,+0.00,+0.00,-3.00
+4.00,+20.00,+7.00,-11.00,+2.00,-1.00,-1.00,+2.00,+5.00,+34.00,+19.00,+1.00,+2.00,-3.00,+0.00,+2.00
-2.00,+16.00,-19.00,-8.00,-14.00,-10.00,-3.00,-2.00,+13.00,+6.00,-9.00,-8.00,-7.00,-3.00,-1.00,+3.00
-18.00,-35.00,-6.00,-3.00,-2.00,-2.00,-5.00,-8.00,-41.00,-15.00,+9.00,+3.00,+0.00,-3.00,-5.00,-11.00
-5.00,-15.00,+1.00,+3.00,-1.00,+2.00,-1.00,-3.00,+38.00,+21.00,+15.00,+15.00,-4.00,+4.00,+5.00,+9.00
+22.00,+57.00,+16.00,+17.00,+5.00,+0.00,+4.00,+3.00,-17.00,-51.00,-22.00,-12.00,-15.00,-3.00,-1.00,-3.00
+2.00,-22.00,+29.00,+3.00,-10.00,-11.00,+0.00,+3.00,+26.00,+16.00,+0.00,-3.00,+8.00,-3.00,-3.00,-6.00
+22.00,+15.00,-32.00,-25.00,-4.00,+10.00,+1.00,+4.00,-7.00,-4.00,-3.00,-2.00,-6.00,+2.00,+3.00,+12.00
-15.00,+18.00,-8.00,-8.00,+5.00,+4.00,-1.00,-7.00,-23.00,+16.00,+8.00,-4.00,-7.00,-4.00,-6.00,-8.00
+0.00,+3.00,-2.00,-1.00,-11.00,-15.00,-2.00,+0.00,+14.00,+13.00,+15.00,+10.00,+11.00,+2.00,+0.00,+7.00
-5.00,-1.00,-6.00,+8.00,-5.00,-3.00,-2.00,-3.00,-20.00,-22.00,-9.00,+1.00,+0.00,+0.00,+0.00,+1.00
+1.00,+31.00,+21.00,+15.00,+7.00,+10.00,+1.00,+0.00,-5.00,+1.00,-10.00,-4.00,-9.00,+0.00,-1.00,-6.00
-4.00,-33.00,+4.00,+5.00,+15.00,+22.00,-1.00,-1.00,+9.00,+8.00,+7.00,+19.00,+3.00,+2.00,+1.00,-2.00
-5.00,-36.00,+0.00,+2.00,-40.00,+3.00,+2.00,+2.00,-1.00,-9.00,-2.00,-12.00,-7.00,-5.00,-5.00,-2.00
+4.00,+16.00,-18.00,-24.00,-16.00,-28.00,-4.00,-3.00,-16.00,-15.00,-4.00,-8.00,+15.00,-3.00,-2.00,-5.00
-5.00,-4.00,-9.00,-11.00,-4.00,-4.00,-5.00,-2.00,+2.00,+11.00,+1.00,-5.00,-28.00,-5.00,+1.00,-1.00
-5.00,-12.00,-10.00,-4.00,-6.00,-6.00,-3.00,-1.00,-10.00,-40.00,-9.00,-4.00,+12.00,+0.00,-1.00,+0.00
-6.00,-8.00,+2.00,+5.00,+17.00,+6.00,-2.00,-4.00,+4.00,+43.00,-9.00,+1.00,+4.00,-1.00,-2.00,-6.00
+5.00,+4.00,+4.00,+7.00,+0.00,+7.00,+1.00,+3.00,-6.00,-2.00,-3.00,-1.00,-5.00,-1.00,-2.00,-4.00
+1.00,-7.00,+5.00,+5.00,-6.00,+3.00,+2.00,+2.00,+37.00,+16.00,+10.00,+12.00,+24.00,+3.00,+5.00,+17.00
-17.00,-13.00,+2.00,+1.00,+8.00,+0.00,+0.00,-6.00,-10.00,-60.00,-18.00,-12.00,-7.00,-3.00,-2.00,-5.00
-2.00,+6.00,+5.00,-5.00,+6.00,-4.00,-4.00,-2.00,+16.00,+62.00,+18.00,+5.00,-1.00,-1.00,+2.00,-1.00
+7.00,+1.00,-9.00,-4.00,-6.00,-3.00,+0.00,-9.00,-19.00,+49.00,+5.00,-1.00,-7.00,-1.00,-1.00,+1.00
-4.00,-43.00,-8.00,+3.00,+7.00,-1.00,+0.00,+6.00,-19.00,+8.00,+3.00,+6.00,+4.00,+0.00,-4.00,-5.00
+4.00,+7.00,+13.00,+6.00,-5.00,-2.00,+1.00,+4.00,-2.00,-20.00,-13.00,-13.00,-14.00,-6.00,-5.00,-6.00
-3.00,-36.00,+1.00,-4.00,+4.00,-6.00,-2.00,+0.00,-7.00,-7.00,-4.00,-2.00,-9.00,-2.00,+0.00,+2.00
-9.00,+3.00,-15.00,-13.00,-5.00,+0.00,-3.00,-3.00,+4.00,-22.00,+8.00,+3.00,+3.00,-1.00,+0.00,-1.00
-7.00,+6.00,-20.00,-2.00,-1.00,+5.00,-2.00,-8.00,+19.00,+24.00,-19.00,-7.00,-4.00,-2.00,-3.00,-4.00
+4.00,+40.00,+20.00,-5.00,-8.00,-8.00,-1.00,-2.00,+6.00,+33.00,+3.00,-6.00,-10.00,-3.00,-3.00,-3.00
-5.00,-53.00,-16.00,-5.00,-1.00,-6.00,-3.00,-2.00,-21.00,-45.00,-2.00,+4.00,+1.00,+0.00,-2.00,-4.00
+7.00,+35.00,+11.00,+9.00,+7.00,+8.00,+2.00,+2.00,+7.00,+3.00,-6.00,+0.00,-1.00,+2.00,+3.00,+9.00
-7.00,-6.00,+12.00,+8.00,+4.00,+3.00,+1.00,-3.00,-24.00,-1.00,+7.00,+0.00,-3.00,-3.00,-6.00,-8.00
-2.00,-7.00,-13.00,-6.00,+0.00,-3.00,-1.00,-2.00,+37.00,+76.00,+10.00,-1.00,-2.00,-1.00,+0.00,+6.00
-1.00,+11.00,-8.00,-10.00,-3.00,-8.00,+0.00,-3.00,+6.00,-88.00,-8.00,-2.00,+1.00,+0.00,+1.00,+0.00
-1.00,-10.00,-6.00,+2.00,-1.00,+2.00,-1.00,+2.00,-19.00,+14.00,-17.00,-5.00,-1.00,-1.00,-3.00,-7.00
+4.00,+16.00,+18.00,+4.00,-2.00,-2.00,+0.00,+4.00,-9.00,-104.00,-12.00,-1.00,-2.00,-2.00,-1.00,-2.00
+5.00,-9.00,-8.00,+1.00,-1.00,+0.00,-1.00,+1.00,-11.00,+67.00,+10.00,-1.00,-1.00,-2.00,+2.00,+9.00
-11.00,+12.00,+18.00,+7.00,+5.00,+1.00,-4.00,-7.00,-7.00,+34.00,+10.00,-1.00,-1.00,-2.00,-1.00,-6.00
-2.00,-17.00,-32.00,-10.00,-1.00,+0.00,-2.00,+0.00,+14.00,-57.00,-15.00,+1.00,+0.00,+2.00,+3.00,+9.00
-10.00,+8.00,+22.00,+8.00,-1.00,+2.00,-1.00,-3.00,-7.00,+88.00,+5.00,-4.00,+1.00,-5.00,-2.00,-6.00
-13.00,-48.00,-26.00,-14.00,-8.00,-4.00,-4.00,-7.00,-21.00,-98.00,-2.00,+0.00,+1.00,+0.00,-2.00,-9.00
+32.00,+16.00,+23.00,-8.00,+3.00,+0.00,+3.00,+10.00,-1.00,-19.00,-12.00,+0.00,+2.00,+0.00,+0.00,+5.00
-4.00,+50.00,+9.00,+7.00,-3.00,-1.00,-2.00,+0.00,-4.00,-2.00,+6.00,-1.00,-2.00,-3.00,-4.00,-6.00
+5.00,+24.00,+3.00,+2.00,+4.00,+0.00,-2.00,-1.00,+17.00,+18.00,-4.00,-2.00,+2.00,+2.00,+2.00,-1.00
-1.00,-26.00,+13.00,+9.00,+0.00,+0.00,+0.00,+2.00,+13.00,-13.00,-7.00,-2.00,-3.00,-3.00,-4.00,+1.00
-19.00,-15.00,-16.00,-5.00,-2.00,-2.00,-3.00,-6.00,+3.00,-13.00,-7.00,-4.00,-3.00,-2.00,-2.00,-4.00
+1.00,-30.00,-1.00,-4.00,+1.00,-2.00,-2.00,+0.00,-7.00,-32.00,-8.00,-5.00,+0.00,-3.00,-1.00,+2.00
-4.00,-5.00,-10.00,+3.00,-1.00,+1.00,-3.00,-4.00,+17.00,-36.00,+7.00,+4.00,+3.00,+2.00,+3.00,+4.00
+17.00,+47.00,+22.00,+12.00,+3.00,+0.00,+4.00,+9.00,-20.00,+45.00,+11.00,+1.00,-2.00,+0.00,+0.00,+1.00
+6.00,-11.00,-14.00,-5.00,+0.00,+2.00,+3.00,+6.00,-16.00,-63.00,-17.00,-3.00,+2.00,+0.00,-2.00,-1.00
-1.00,-1.00,+16.00,-5.00,-1.00,+0.00,-1.00,+0.00,+5.00,+21.00,+9.00,+0.00,-2.00,-3.00,-3.00,-4.00
-3.00,-4.00,-17.00,-13.00,-6.00,-4.00,-2.00,-2.00,-5.00,-17.00,-7.00,-3.00,-1.00,-1.00,-4.00,-5.00
-12.00,-33.00,-13.00,-4.00,-5.00,-6.00,-4.00,-4.00,+6.00,-8.00,-15.00,-6.00,-2.00,-3.00,+0.00,-3.00
-11.00,+0.00,+0.00,+4.00,+5.00,-1.00,-2.00,-2.00,-17.00,+0.00,+2.00,+3.00,+1.00,-2.00,+1.00,+2.00
+1.00,+18.00,+9.00,+12.00,+4.00,+1.00,+1.00,+2.00,+13.00,-94.00,-23.00,-5.00,-3.00,-2.00,-2.00,-1.00
-5.00,+7.00,-1.00,-7.00,-5.00,-4.00,-4.00,-4.00,+6.00,+67.00,+31.00,+5.00,+1.00,+0.00,+1.00,+1.00
+12.00,-24.00,-4.00,-8.00,+0.00,+0.00,+4.00,+4.00,+1.00,+8.00,+9.00,+2.00,+2.00,-2.00,-4.00,-12.00
+10.00,-16.00,+2.00,+0.00,+3.00,+3.00,+1.00,+4.00,+10.00,+28.00,+5.00,+0.00,-2.00,+0.00,+0.00,+6.00
-14.00,-34.00,-14.00,-6.00,-5.00,-3.00,-2.00,-5.00,+8.00,+18.00,+8.00,+0.00,-1.00,+0.00,+3.00,+9.00
-2.00,+17.00,+8.00,-1.00,+0.00,-1.00,+1.00,+0.00,+3.00,-34.00,-22.00,-5.00,+1.00,+0.00,-1.00,+0.00
-5.00,+7.00,+5.00,+1.00,-1.00,-1.00,-2.00,-4.00,-1.00,-28.00,-10.00,-4.00,-1.00,+0.00,-1.00,-1.00
-5.00,-6.00,-14.00,+5.00,+2.00,+0.00,-1.00,-4.00,-12.00,+33.00,+4.00,-1.00,-1.00,-2.00,-2.00,-9.00
+2.00,+8.00,+6.00,+4.00,-3.00,-2.00,+0.00,+0.00,+16.00,+25.00,-1.00,+1.00,+0.00,+1.00,+1.00,+4.00
-5.00,-24.00,-1.00,-10.00,-2.00,-1.00,-1.00,-3.00,+5.00,-20.00,-3.00,+0.00,-1.00,+0.00,-1.00,-2.00
+1.00,-24.00,-18.00,-6.00,-1.00,-2.00,+0.00,+1.00,-15.00,+17.00,+0.00,-1.00,+1.00,+2.00,+1.00,+0.00
-5.00,-14.00,+3.00,+3.00,+1.00,+0.00,+0.00,-2.00,+5.00,-13.00,-2.00,-3.00,-1.00,+0.00,+0.00,+2.00
-1.00,+1.00,-8.00,+4.00,+1.00,+0.00,-3.00,-2.00,+31.00,+39.00,+0.00,-1.00,-2.00,-3.00,-4.00,-3.00
-13.00,-25.00,-4.00,+5.00,+0.00,-1.00,-1.00,-4.00,-30.00,-11.00,-5.00,-1.00,+0.00,+0.00,+2.00,+0.00
+26.00,+8.00,+4.00,-1.00,-3.00,+2.00,+2.00,+6.00,-17.00,-19.00,-1.00,-2.00,+0.00,-2.00,-2.00,-6.00
+3.00,+41.00,+0.00,+2.00,+1.00,+0.00,-2.00,+0.00,+28.00,-39.00,-16.00,-3.00,+0.00,-2.00,-2.00,+0.00
-6.00,+41.00,+3.00,-1.00,-2.00,-4.00,-2.00,-5.00,-1.00,-13.00,+17.00,+5.00,+2.00,+0.00,+0.00,-6.00
+12.00,+18.00,+32.00,+4.00,-1.00,-1.00,+1.00,+6.00,-7.00,-19.00,+7.00,+1.00,-2.00,-3.00,-2.00,-1.00
-10.00,-27.00,-13.00,-7.00,-3.00,-1.00,-3.00,-3.00,+4.00,+100.00,+10.00,-1.00,-4.00,-3.00,-3.00,+3.00
-9.00,-24.00,-18.00,-17.00,-8.00,-6.00,-5.00,-6.00,-14.00,-14.00,+4.00,+1.00,+0.00,-1.00,-2.00,-4.00
-2.00,-4.00,-12.00,+2.00,+1.00,+2.00,+0.00,+0.00,-24.00,+23.00,+0.00,-2.00,-3.00,+0.00,+0.00,+0.00
+2.00,+57.00,+5.00,+4.00,+0.00,+0.00,-2.00,-3.00,+16.00,+21.00,-15.00,-8.00,-2.00,-4.00,-4.00,-3.00
-10.00,-1.00,+2.00,+5.00,+0.00,-1.00,-2.00,-3.00,+0.00,-54.00,+0.00,+1.00,+0.00,+0.00,-1.00,+0.00
+7.00,+6.00,+19.00,+6.00,+2.00,+2.00,+1.00,+2.00,+0.00,+31.00,-1.00,-2.00,-3.00,-1.00,-3.00,-4.00
+1.00,-12.00,-11.00,-4.00,-3.00,-1.00,-1.00,-1.00,-14.00,+17.00,+6.00,+2.00,+0.00,+2.00,+0.00,-6.00
+10.00,-21.00,-4.00,+2.00,+2.00,+1.00,+1.00,+4.00,-19.00,-16.00,-11.00,-5.00,-5.00,-1.00,+0.00,+1.00
-5.00,+28.00,+2.00,-7.00,-4.00,-1.00,-3.00,-5.00,+5.00,-9.00,-15.00,-5.00,-1.00,-3.00,-1.00,+4.00
-14.00,-17.00,-16.00,-4.00,-2.00,-4.00,-2.00,-5.00,+13.00,+2.00,-3.00,-2.00,-2.00,+0.00,+1.00,-2.00
+11.00,+4.00,+9.00,+1.00,-1.00,+0.00,+1.00,+3.00,-29.00,+36.00,+5.00,+0.00,-1.00,-2.00,-1.00,-2.00
+13.00,-1.00,-10.00,+2.00,+2.00,+2.00,+2.00,+3.00,-10.00,+44.00,+17.00,+2.00,+0.00,-2.00,-5.00,-6.00
-9.00,-28.00,-8.00,-8.00,-2.00,-3.00,-4.00,-3.00,-10.00,-40.00,-11.00,-3.00,-2.00,+0.00,-2.00,-1.00
-7.00,-44.00,-3.00,-6.00,-4.00,-1.00,-2.00,+0.00,+39.00,+11.00,+0.00,+0.00,+2.00,+1.00,+1.00,+3.00
+0.00,+0.00,+8.00,+3.00,+0.00,+0.00,+0.00,+1.00,-5.00,-30.00,-13.00,-2.00,-1.00,+0.00,+1.00,+3.00
+0.00,+15.00,-3.00,-1.00,-1.00,+0.00,-2.00,-3.00,-11.00,-31.00,-4.00,-2.00,-2.00,+0.00,-2.00,-2.00
-4.00,-28.00,+2.00,+3.00,+0.00,-2.00,+1.00,-1.00,-10.00,-68.00,-19.00,-8.00,-3.00,-4.00,-2.00,-3.00
-5.00,-22.00,-6.00,-5.00,-3.00,-2.00,-2.00,-3.00,+8.00,+56.00,+43.00,+10.00,+3.00,+0.00,-1.00,-4.00
+16.00,+68.00,+22.00,+0.00,+3.00,+1.00,+3.00,+7.00,-1.00,+57.00,-3.00,-4.00,-2.00,-2.00,-4.00,-4.00
-6.00,-23.00,-13.00,-1.00,-3.00,-3.00,-1.00,-3.00,+1.00,-47.00,-13.00,-3.00,-1.00,+1.00,+1.00,-2.00
+4.00,-5.00,+9.00,+12.00,+4.00,+3.00,+2.00,+2.00,-10.00,+16.00,+17.00,+4.00,-2.00,-1.00,-1.00,-1.00
+3.00,+18.00,+10.00,+4.00,-3.00,-1.00,-1.00,+0.00,-14.00,-11.00,-3.00,-4.00,-2.00,+0.00,+0.00,-2.00
-3.00,-26.00,-12.00,-15.00,-4.00,-1.00,-1.00,-3.00,+12.00,-14.00,-2.00,+0.00,+0.00,-2.00,-2.00,-1.00
-9.00,-5.00,-8.00,-3.00,-2.00,-4.00,-3.00,-3.00,-6.00,+1.00,-7.00,-4.00,-1.00,-1.00,+0.00,-1.00
-7.00,+21.00,-2.00,-2.00,-2.00,+0.00,-2.00,-3.00,+16.00,+2.00,+3.00,+0.00,-1.00,-1.00,+0.00,-4.00
+7.00,+5.00,+4.00,+7.00,+2.00,-1.00,+0.00,+2.00,-29.00,+8.00,-4.00,+1.00,-1.00,+0.00,+2.00,+10.00
+1.00,-13.00,-4.00,+2.00,-1.00,+0.00,-1.00,-1.00,+2.00,+6.00,+4.00,+1.00,+0.00,-1.00,+1.00,-2.00
+2.00,+36.00,+12.00,-1.00,-1.00,+1.00,+0.00,+1.00,-9.00,-19.00,-10.00,-3.00,-3.00,-3.00,-3.00,-8.00
+2.00,-3.00,-6.00,+0.00,-2.00,-3.00,-2.00,+0.00,+16.00,-29.00,-12.00,-3.00,-1.00,+0.00,-1.00,+6.00
-9.00,+33.00,-9.00,-2.00,-1.00,+0.00,-3.00,-5.00,-3.00,+76.00,+19.00,+2.00,+0.00,-1.00,-2.00,-4.00
-9.00,-53.00,+9.00,+3.00,+2.00,-1.00,-2.00,-1.00,-25.00,-29.00,+2.00,+0.00,-1.00,-1.00,-2.00,-3.00
+7.00,+10.00,+7.00,+4.00,+1.00,+1.00,+1.00,+3.00,-1.00,+5.00,+11.00,+2.00,+0.00,-1.00,-2.00,-1.00
+2.00,+20.00,+3.00,-2.00,-2.00,-2.00,-1.00,+2.00,+12.00,+1.00,-2.00,-2.00,-3.00,-1.00,-2.00,-4.00
-9.00,-28.00,-18.00,-8.00,-3.00,-2.00,-1.00,-5.00,+14.00,-6.00,-19.00,-7.00,-4.00,-1.00,+0.00,+1.00
-8.00,-62.00,-7.00,-6.00,-4.00,+0.00,-3.00,-4.00,-17.00,+21.00,+5.00,+5.00,+2.00,+4.00,+3.00,+1.00
+10.00,-17.00,-13.00,+9.00,+6.00,+3.00,+2.00,+2.00,-2.00,-95.00,-32.00,-10.00,-2.00,-3.00,+0.00,-1.00
+0.00,+78.00,+19.00,+3.00,-4.00,-4.00,-3.00,-3.00,+3.00,+127.00,+63.00,+10.00,+1.00,-3.00,-3.00,-7.00
+7.00,-24.00,+17.00,-3.00,+2.00,+1.00,+2.00,+4.00,-5.00,-68.00,-17.00,-5.00,-3.00,-2.00,-3.00,+1.00
-9.00,-28.00,-12.00,-7.00,-3.00,-3.00,-1.00,-3.00,-20.00,+4.00,-4.00,-2.00,-3.00,-1.00,-3.00,-3.00
-8.00,+32.00,+1.00,-3.00,-3.00,-2.00,-1.00,-3.00,+23.00,-39.00,+3.00,+2.00,-1.00,-1.00,+0.00,-1.00
+2.00,+14.00,-7.00,-3.00,+0.00,+0.00,-3.00,-3.00,+8.00,+15.00,-10.00,+0.00,+1.00,+2.00,+0.00,+0.00
+13.00,-3.00,-6.00,+9.00,+4.00,+1.00,+1.00,+5.00,-9.00,-11.00,-7.00,+0.00,+0.00,-1.00,+1.00,-2.00
+3.00,+24.00,+7.00,+4.00,+1.00,+2.00,+2.00,+2.00,+8.00,-2.00,+7.00,-3.00,-3.00,-3.00,-2.00,+0.00
-11.00,-22.00,-3.00,-6.00,-3.00,-3.00,-3.00,-4.00,-1.00,+22.00,-1.00,-1.00,-2.00,+3.00,-1.00,+3.00
-8.00,+0.00,-4.00,-1.00,-2.00,-2.00,-2.00,-5.00,-23.00,-37.00,-13.00,-4.00,-3.00,-4.00,-1.00,-5.00
+0.00,+10.00,-2.00,-2.00,-3.00,-2.00,+0.00,-1.00,+28.00,+24.00,+2.00,+0.00,+1.00,+0.00,+4.00,+20.00
-15.00,+12.00,+4.00,+0.00,-1.00,-1.00,-1.00,-6.00,-6.00,-44.00,-18.00,-5.00,+0.00,-1.00,-2.00,-1.00
-4.00,-7.00,-5.00,-4.00,-2.00,-3.00,-2.00,-2.00,+3.00,+37.00,+4.00,+2.00,+1.00,-1.00,+4.00,+8.00
-10.00,-25.00,+0.00,-1.00,-1.00,+0.00,+0.00,-5.00,+12.00,-32.00,+3.00,+0.00,-2.00,+0.00,-3.00,-4.00
-7.00,+4.00,-23.00,-4.00,-3.00,-1.00,-4.00,-4.00,-26.00,-28.00,-4.00,+1.00,+0.00,+0.00,-2.00,-16.00
+13.00,+1.00,+24.00,+7.00,+3.00,+1.00,+1.00,+5.00,-10.00,-21.00,+2.00,+1.00,+0.00,-3.00,-1.00,-2.00
-2.00,-21.00,-1.00,-3.00,-2.00,-2.00,+0.00,-2.00,-2.00,+54.00,+11.00,+2.00,+1.00,-1.00,-1.00,+2.00
-3.00,-30.00,-7.00,-7.00,+0.00,+1.00,+1.00,+2.00,-3.00,-2.00,-11.00,-4.00,+1.00,+0.00,+0.00,+1.00
+0.00,+8.00,+2.00,-3.00,+0.00,-1.00,+0.00,-1.00,+20.00,-94.00,-20.00,-8.00,-4.00,-4.00,-3.00,+0.00
-22.00,-14.00,-20.00,-6.00,-5.00,-6.00,-5.00,-10.00,-26.00,+65.00,+20.00,+6.00,+4.00,+3.00,+2.00,-5.00
+39.00,+68.00,+28.00,+11.00,+6.00,+4.00,+5.00,+14.00,+1.00,-39.00,-11.00,+1.00,+1.00,+1.00,+0.00,-4.00
+16.00,+70.00,+29.00,+8.00,+3.00,+2.00,+4.00,+7.00,-8.00,+19.00,+6.00,+2.00,-2.00,+0.00,-3.00,-4.00
+1.00,+18.00,-2.00,+0.00,-1.00,-2.00,-2.00,-3.00,-4.00,+35.00,+12.00,+5.00,+2.00,+1.00,-1.00,+0.00
+2.00,-5.00,+2.00,-4.00,+1.00,+2.00,+0.00,+2.00,+10.00,+8.00,-3.00,-3.00,-2.00,-3.00,-2.00,+0.00
-17.00,-47.00,-12.00,-3.00,-4.00,-2.00,-3.00,-6.00,-1.00,+22.00,+8.00,-3.00,-3.00,-3.00,-1.00,-4.00
-3.00,-8.00,-15.00,-9.00,-5.00,-6.00,-2.00,-2.00,+3.00,-10.00,-9.00,-4.00,-1.00,+0.00,+3.00,+4.00
-2.00,+3.00,+2.00,+3.00,+0.00,+1.00,+2.00,-1.00,-10.00,+0.00,-5.00,+0.00,+0.00,+0.00,-2.00,-7.00
+3.00,+24.00,-2.00,+0.00,-1.00,-2.00,+0.00,-1.00,+18.00,-25.00,-9.00,-2.00,-1.00,+1.00,+2.00,+9.00
-12.00,-14.00,-5.00,-4.00,+0.00,-2.00,-3.00,-7.00,-10.00,+25.00,+7.00,+3.00,+1.00,-1.00,-2.00,-9.00
+6.00,-18.00,-3.00,+2.00,+3.00,+0.00,+0.00,+1.00,+9.00,-34.00,-14.00,-3.00,-2.00,+0.00,+1.00,+8.00
-10.00,+1.00,+2.00,-3.00,-3.00,-1.00,-2.00,-6.00,-1.00,-4.00,-4.00,-1.00,-1.00,-3.00,-3.00,-4.00
+4.00,-13.00,-9.00,-3.00,-3.00,-1.00,-1.00,+1.00,+3.00,+17.00,+4.00,+1.00,-3.00,-1.00,-2.00,-3.00
+1.00,+2.00,+3.00,-4.00,-1.00,-1.00,+0.00,+1.00,-7.00,-5.00,+3.00,-2.00,-1.00,-2.00,-3.00,-5.00
+1.00,-10.00,-10.00,-1.00,-2.00,-2.00,-2.00,+0.00,-4.00,-5.00,-10.00,-3.00,-1.00,+0.00,+1.00,-1.00
-4.00,-10.00,+5.00,+0.00,-2.00,-2.00,-1.00,-1.00,+0.00,+20.00,-2.00,-1.00,-1.00,-1.00,+0.00,-1.00
-1.00,+12.00,-4.00,+1.00,-1.00,-3.00,-2.00,-3.00,-6.00,-47.00,-4.00,+1.00,+0.00,+0.00,-1.00,-5.00
+7.00,-5.00,-1.00,+3.00,+1.00,+1.00,+1.00,+4.00,-3.00,+17.00,-1.00,+0.00,+0.00,-1.00,-1.00,+1.00
+1.00,-7.00,+5.00,+2.00,+2.00,+0.00,-1.00,+0.00,+4.00,+9.00,+3.00,+1.00,-2.00,-1.00,-2.00,+0.00
-2.00,-24.00,-3.00,+0.00,-1.00,-1.00,-2.00,+0.00,-12.00,-23.00,-5.00,-2.00,-2.00,-2.00,-1.00,+2.00
-9.00,+17.00,-13.00,-16.00,-6.00,-1.00,-4.00,-6.00,+11.00,-69.00,-28.00,-8.00,-3.00,-3.00,-2.00,-3.00
+4.00,+48.00,+13.00,-4.00,-7.00,-4.00,-2.00,-1.00,-8.00,+7.00,+19.00,+7.00,+4.00,+4.00,+5.00,+3.00
+13.00,-10.00,+15.00,+12.00,+8.00,+5.00,+6.00,+7.00,+2.00,-45.00,-8.00,-1.00,+0.00,-1.00,+0.00,-2.00
+0.00,+9.00,+6.00,+3.00,-1.00,-1.00,+1.00,+0.00,+2.00,+17.00,+5.00,-2.00,-2.00,-3.00,-2.00,-5.00
+1.00,-23.00,-5.00,+2.00,+1.00,+0.00,+0.00,+0.00,+5.00,-13.00,-8.00,-3.00,-2.00,-1.00,+1.00,+1.00
-10.00,-19.00,-15.00,-6.00,-2.00,-1.00,-4.00,-3.00,-3.00,-16.00,-10.00,-6.00,-3.00,-1.00,-2.00,+6.00
-13.00,+8.00,-5.00,-6.00,-4.00,-3.00,-4.00,-10.00,-2.00,+26.00,+2.00,+0.00,+2.00,+0.00,-1.00,-1.00
+4.00,-3.00,+5.00,+0.00,+2.00,+1.00,+1.00,+1.00,+1.00,-33.00,-10.00,-3.00,-3.00,-3.00,-1.00,-1.00
-7.00,-1.00,-5.00,+1.00,-3.00,-3.00,-2.00,-3.00,-14.00,+29.00,+20.00,+2.00,+1.00,-1.00,-2.00,-7.00
+4.00,-15.00,-4.00,-2.00,-1.00,+2.00,+1.00,+1.00,+4.00,+4.00,-1.00,-1.00,-1.00,-2.00,-1.00,-2.00
+3.00,-9.00,-1.00,+0.00,-4.00,-1.00,-2.00,+0.00,-11.00,-2.00,+0.00,-2.00,-2.00,-2.00,-3.00,-7.00
-4.00,-9.00,-10.00,-3.00,-2.00,-2.00,-2.00,+0.00,-3.00,+7.00,+2.00,-1.00,-1.00,+1.00,-1.00,-2.00
+8.00,+15.00,+2.00,+2.00,+1.00,-1.00,+0.00,+2.00,+7.00,-3.00,-8.00,-2.00,-2.00,-1.00,+0.00,+1.00
-10.00,-13.00,-1.00,-2.00,-1.00,-2.00,-1.00,-3.00,-1.00,+2.00,+5.00,-1.00,-1.00,-1.00,-2.00,+0.00
-4.00,-17.00,-11.00,-4.00,-3.00,-1.00,-2.00,-2.00,+5.00,+6.00,+3.00,+2.00,+2.00,+0.00,+0.00,+4.00
-3.00,+15.00,-1.00,-3.00,-1.00,-1.00,-2.00,-1.00,-4.00,+4.00,+1.00,+0.00,+1.00,-1.00,-1.00,-6.00
+8.00,-9.00,+9.00,+2.00,+1.00,+1.00,+0.00,+3.00,-8.00,+5.00,+6.00,+2.00,-2.00,-1.00,+1.00,+0.00
-6.00,-44.00,-3.00,+1.00,+1.00,-1.00,+1.00,+0.00,+4.00,-12.00,-6.00,-4.00,-3.00,-3.00,-3.00,+0.00
-10.00,+22.00,-16.00,-9.00,-5.00,-4.00,-4.00,-5.00,-17.00,+13.00,-3.00,-2.00,-2.00,-1.00,-1.00,-3.00
-1.00,+31.00,-8.00,-5.00,-1.00,-1.00,-1.00,-2.00,+11.00,-24.00,-8.00,-3.00,+0.00,+1.00,+1.00,+3.00
+5.00,-30.00,+22.00,+12.00,+3.00,+2.00,+2.00,+4.00,-4.00,+20.00,+3.00,+0.00,+0.00,-2.00,-1.00,-2.00
+0.00,-4.00,-5.00,-1.00,-2.00,+0.00,-2.00,-2.00,+5.00,-10.00,-6.00,-1.00,-2.00,-2.00,-3.00,-2.00
-8.00,-9.00,-5.00,-3.00,+1.00,-1.00,+0.00,-5.00,-9.00,-30.00,-7.00,-4.00,-2.00,-2.00,-1.00,-2.00
-1.00,-4.00,-1.00,+0.00,-2.00,-2.00,-2.00,+0.00,+3.00,+54.00,+19.00,+4.00,-1.00,-3.00,-3.00,-2.00
-3.00,+25.00,-9.00,-7.00,-2.00,-2.00,-4.00,-3.00,+9.00,-11.00,-3.00,-3.00,-1.00,-1.00,+0.00,+0.00
-5.00,-3.00,-3.00,-2.00,+0.00,-1.00,-1.00,-2.00,-5.00,+3.00,-3.00,+0.00,+0.00,+0.00,-1.00,-2.00
+3.00,-8.00,+1.00,+1.00,-1.00,+0.00,+1.00,+2.00,+6.00,+1.00,+0.00,+1.00,+0.00,+1.00,-2.00,+1.00
+1.00,-5.00,+5.00,+4.00,+0.00,+1.00,+1.00,-1.00,-11.00,-15.00,-2.00,+0.00,-1.00,+0.00,-4.00,-8.00
+0.00,-7.00,-9.00,-2.00,+0.00,+0.00,+2.00,+1.00,+5.00,-9.00,-6.00,-3.00,-1.00,-2.00,+0.00,+1.00
+1.00,+1.00,+1.00,+0.00,-5.00,-1.00,+0.00,-1.00,+0.00,+5.00,+5.00,+0.00,-1.00,-1.00,+2.00,+2.00
-2.00,-7.00,-5.00,-10.00,-3.00,-2.00,-3.00,-1.00,+1.00,+0.00,+1.00,+0.00,-3.00,+0.00,-1.00,-1.00
-1.00,-8.00,+0.00,+3.00,+2.00,-1.00,+1.00,+2.00,-6.00,+5.00,+2.00,-2.00,-1.00,+0.00,+1.00,-1.00
-1.00,+4.00,-1.00,+3.00,+1.00,+1.00,-1.00,-5.00,-1.00,-2.00,-1.00,-3.00,-1.00,+2.00,-2.00,-4.00
+1.00,+18.00,-3.00,-3.00,-1.00,-1.00,-3.00,-14.00,+4.00,+8.00,+0.00,-2.00,+0.00,-2.00,-6.00,-5.00
-3.00,-40.00,-4.00,+2.00,+0.00,+0.00,+1.00,+23.00,-4.00,-8.00,+1.00,+1.00,-2.00,-4.00,-8.00,-6.00
+8.00,+54.00,+7.00,-1.00,-1.00,-1.00,+2.00,+16.00,-3.00,+10.00,+1.00,-2.00,-3.00,-2.00,+0.00,-5.00
-7.00,-24.00,-6.00,-3.00,+0.00,-2.00,-1.00,-3.00,+5.00,-6.00,-7.00,-5.00,-5.00,-2.00,+0.00,+4.00
-4.00,-7.00,-11.00,-7.00,-3.00,-2.00,-3.00,-2.00,-3.00,+26.00,+2.00,+2.00,+1.00,+2.00,+7.00,+3.00
+11.00,-31.00,-5.00,+10.00,+4.00,+5.00,+1.00,-1.00,+3.00,-16.00,-1.00,+0.00,-1.00,-1.00,+2.00,+2.00
-3.00,+3.00,+7.00,-1.00,-1.00,-1.00,-1.00,-3.00,-5.00,-4.00,-5.00,-2.00,+1.00,-1.00,-2.00,+1.00
-2.00,+8.00,+1.00,+1.00,-1.00,+1.00,+1.00,-4.00,+8.00,+2.00,-3.00,-2.00,-1.00,-1.00,-3.00,-3.00
-8.00,-16.00,-2.00,+2.00,+0.00,-2.00,-3.00,-9.00,+1.00,+6.00,-1.00,+1.00,+0.00,-2.00,-1.00,+1.00
-3.00,-3.00,-4.00,-1.00,-1.00,-1.00,+0.00,-2.00,-5.00,+1.00,-1.00,-3.00,-1.00,-1.00,-1.00,-4.00
+2.00,-9.00,+1.00,+1.00,-2.00,+0.00,-1.00,+2.00,+1.00,+1.00,+8.00,+3.00,-1.00,-2.00,+1.00,+5.00
-4.00,+4.00,-9.00,-13.00,-4.00,-1.00,-1.00,-2.00,+2.00,+2.00,-5.00,-5.00,-1.00,-1.00,+0.00,-1.00
-1.00,+4.00,+1.00,+2.00,+1.00,+0.00,-1.00,-4.00,-4.00,-12.00,-1.00,+1.00,-1.00,+0.00,-2.00,-6.00
+3.00,+16.00,+2.00,-2.00,-3.00,+0.00,+0.00,-3.00,+1.00,+3.00,-2.00,-2.00,+0.00,+0.00,+2.00,+0.00
-3.00,-7.00,+7.00,+3.00,-1.00,+0.00,-2.00,-6.00,-3.00,-10.00,-6.00,+0.00,-1.00,+0.00,+1.00,+1.00
+2.00,+8.00,-4.00,-6.00,-2.00,-2.00,-1.00,+1.00,+1.00,-1.00,+1.00,-4.00,-2.00,-1.00,-1.00,+1.00
-2.00,+1.00,+10.00,+3.00,+0.00,+0.00,+0.00,+3.00,-3.00,-7.00,-1.00,-1.00,-2.00,-2.00,-2.00,-3.00
-2.00,+11.00,-9.00,-2.00,+1.00,-1.00,-2.00,-12.00,+2.00,-2.00,-18.00,-5.00,-2.00,-1.00,-5.00,-5.00
+2.00,-14.00,+16.00,+3.00,+0.00,-1.00,+2.00,+14.00,-3.00,+1.00,+3.00,-1.00,-1.00,+0.00,-3.00,-1.00
-2.00,-2.00,-3.00,+2.00,+0.00,-1.00,-3.00,-7.00,-4.00,-3.00,+2.00,+2.00,+0.00,-3.00,+2.00,+2.00
+1.00,+9.00,+2.00,+2.00,+1.00,-1.00,+0.00,+0.00,+1.00,+3.00,+34.00,+6.00,-1.00,-1.00,-4.00,+2.00
-1.00,+2.00,-4.00,-3.00,-2.00,+0.00,+2.00,+6.00,-7.00,-9.00,-32.00,-2.00,-2.00,-3.00,+0.00,-7.00
+5.00,-13.00,+4.00,-5.00,-1.00,+1.00,-2.00,-12.00,+7.00,-4.00,-21.00,-10.00,-2.00,-1.00,-2.00,+6.00
-3.00,+8.00,+6.00,+6.00,+2.00,-3.00,-1.00,+4.00,+1.00,-1.00,-7.00,-1.00,-1.00,+0.00,-2.00,+0.00
+0.00,+5.00,+3.00,+1.00,-1.00,-2.00,-1.00,-3.00,-1.00,-2.00,+3.00,-3.00,+0.00,-2.00,+2.00,+1.00
-7.00,+0.00,-6.00,+0.00,-1.00,+0.00,-4.00,-11.00,+0.00,+3.00,+26.00,+8.00,+1.00,+0.00,+1.00,-1.00
-3.00,-10.00,-6.00,-9.00,-3.00,-1.00,-2.00,-2.00,-7.00,-2.00,+4.00,-4.00,-3.00,+2.00,-4.00,-6.00
+3.00,+5.00,+3.00,+1.00,+0.00,-7.00,-4.00,-3.00,-1.00,+12.00,+35.00,+7.00,+1.00,-2.00,+0.00,-2.00
-3.00,-11.00,-15.00,+1.00,-1.00,+11.00,+5.00,-7.00,-4.00,+8.00,-6.00,+35.00,+8.00,+3.00,+1.00,+0.00
-1.00,-15.00,-38.00,-14.00,-5.00,+1.00,+4.00,+25.00,-2.00,-8.00,-24.00,-45.00,-12.00,-5.00,-6.00,-4.00
-1.00,+16.00,+35.00,+22.00,+2.00,-1.00,-2.00,-9.00,+0.00,-8.00,+18.00,-4.00,+0.00,-4.00,-1.00,-3.00
-2.00,+0.00,-9.00,-5.00,-1.00,-1.00,+0.00,+1.00,+1.00,+3.00,-3.00,-10.00,-3.00,+0.00,-4.00,+0.00
+0.00,+3.00,+7.00,+0.00,-1.00,-7.00,-3.00,+2.00,-3.00,-5.00,+27.00,+12.00,+2.00,+0.00,-1.00,+1.00
-4.00,-2.00,-12.00,-4.00,-1.00,-1.00,-2.00,-12.00,+1.00,+6.00,+8.00,+12.00,+3.00,-1.00,+7.00,+4.00
+0.00,-8.00,-25.00,-5.00,+0.00,+2.00,+1.00,+5.00,-1.00,+0.00,-18.00,-4.00,-2.00,-1.00,-2.00,-3.00
+2.00,+3.00,+18.00,+7.00,+0.00,+0.00,-1.00,+0.00,-1.00,-8.00,+18.00,+11.00,+1.00,-3.00,-9.00,-16.00
-2.00,-7.00,-12.00,-6.00,-3.00,-3.00,-2.00,-12.00,-1.00,-9.00,-21.00,-16.00,-6.00,-5.00,-6.00,+2.00
+6.00,+8.00,+10.00,-3.00,+1.00,+0.00,+4.00,+30.00,+2.00,+1.00,-5.00,+2.00,+0.00,+2.00,-3.00,+0.00
+0.00,-3.00,-11.00,-5.00,-2.00,-3.00,+0.00,+14.00,+2.00,-1.00,+3.00,-2.00,-1.00,-1.00,+10.00,+12.00
-2.00,+0.00,+1.00,+2.00,-2.00,+2.00,+0.00,-3.00,-3.00,-6.00,-9.00,+6.00,+2.00,+3.00,+4.00,+4.00
+0.00,+1.00,-2.00,+1.00,+0.00,-1.00,-4.00,-7.00,-1.00,-6.00,-18.00,-15.00,-5.00,-3.00,-4.00,-7.00
