-20.00,+7.00,-11.00,+2.00,-6.00,+1.00,-1.00,+3.00,-3.00,-6.00,-1.00,+0.00,+2.00,-4.00,-14.00,-1.00
-8.00,-20.00,-27.00,-6.00,-7.00,+6.00,+5.00,-3.00,-7.00,-3.00,-6.00,-5.00,+0.00,-7.00,+2.00,-8.00
+8.00,+18.00,+30.00,+6.00,+8.00,+37.00,-45.00,-12.00,-5.00,-10.00,-2.00,+1.00,+7.00,+6.00,-9.00,+0.00
-4.00,-13.00,-4.00,-6.00,-5.00,-40.00,+21.00,-9.00,+17.00,+14.00,-24.00,+0.00,+0.00,-16.00,-4.00,+10.00
-5.00,+3.00,+5.00,-4.00,+1.00,-8.00,-22.00,-9.00,-3.00,+16.00,+38.00,-4.00,-17.00,-5.00,-15.00,-9.00
+14.00,+8.00,-5.00,+2.00,-3.00,-10.00,+17.00,-7.00,-14.00,-33.00,-6.00,+2.00,-4.00,+0.00,+6.00,+1.00
+0.00,-5.00,-7.00,-3.00,+0.00,+6.00,-21.00,+17.00,-6.00,+36.00,+22.00,+1.00,-9.00,+1.00,+5.00,+0.00
+1.00,+1.00,+4.00,+1.00,-1.00,+13.00,+6.00,-2.00,+12.00,+69.00,+19.00,+12.00,+47.00,+15.00,+4.00,+7.00
+8.00,+1.00,+0.00,-2.00,-2.00,+0.00,-5.00,+1.00,-6.00,-55.00,-8.00,+8.00,-12.00,-19.00,-19.00,-8.00
+10.00,+5.00,+11.00,+0.00,+5.00,-1.00,-4.00,-1.00,-8.00,-10.00,-33.00,-24.00,-37.00,-12.00,-6.00,-6.00
+11.00,-3.00,-8.00,-1.00,-1.00,-6.00,+20.00,-27.00,-1.00,-46.00,-23.00,-13.00,-14.00,-7.00,-17.00,+2.00
-3.00,-2.00,+7.00,+0.00,+1.00,+10.00,-22.00,-6.00,+7.00,+40.00,+20.00,-1.00,-19.00,+10.00,-17.00,+2.00
+6.00,-6.00,-7.00,+0.00,-1.00,-9.00,+0.00,+2.00,+1.00,+10.00,-11.00,+5.00,+32.00,-7.00,-43.00,+2.00
-3.00,+5.00,+12.00,+1.00,+1.00,+7.00,+4.00,+3.00,+3.00,+0.00,+7.00,+6.00,+11.00,+8.00,+59.00,-1.00
-7.00,-11.00,-7.00,-2.00,-2.00,-4.00,+30.00,-1.00,-5.00,-26.00,-8.00,-3.00,-5.00,-7.00,-10.00,+0.00
-2.00,+15.00,-7.00,-3.00,+0.00,+0.00,+29.00,+8.00,-4.00,-12.00,-5.00,-2.00,+3.00,+0.00,+10.00,-9.00
-2.00,-14.00,+3.00,-3.00,-4.00,+5.00,-8.00,-8.00,+3.00,+22.00,+1.00,+0.00,-3.00,+12.00,+20.00,-2.00
-4.00,+3.00,-5.00,+0.00,+4.00,-2.00,-2.00,+4.00,-17.00,-33.00,-6.00,+3.00,-2.00,-8.00,-28.00,+9.00
-9.00,-8.00,+9.00,+0.00,-5.00,-11.00,-12.00,-6.00,+0.00,-22.00,-17.00,-5.00,+2.00,-2.00,-2.00,+1.00
-4.00,-12.00,-4.00,-4.00,-3.00,-1.00,-16.00,-9.00,+1.00,-18.00,+7.00,+2.00,-2.00,+3.00,+40.00,+4.00
+9.00,+15.00,-1.00,+4.00,+6.00,+6.00,+8.00,+16.00,-3.00,-4.00,-9.00,-7.00,-3.00,-5.00,-19.00,-6.00
+5.00,-15.00,-1.00,-1.00,+0.00,-4.00,+5.00,+6.00,-6.00,+17.00,+19.00,+2.00,-5.00,-3.00,-22.00,-7.00
-28.00,-26.00,-6.00,-5.00,+2.00,-6.00,-4.00,-5.00,+4.00,-6.00,-29.00,-2.00,+9.00,+5.00,+2.00,+1.00
+43.00,+25.00,+0.00,+4.00,-1.00,+7.00,+5.00,+13.00,-12.00,+2.00,+36.00,+4.00,-8.00,+0.00,-9.00,-7.00
+14.00,+0.00,+7.00,+0.00,+3.00,+0.00,+11.00,+0.00,+5.00,-21.00,-18.00,-5.00,-5.00,-3.00,-32.00,-1.00
-5.00,+5.00,-7.00,-3.00,-5.00,-4.00,-14.00,-6.00,+9.00,-11.00,-24.00,-8.00,+4.00,+2.00,+33.00,+4.00
-2.00,-7.00,+16.00,+4.00,+5.00,-4.00,+3.00,+22.00,-10.00,+50.00,+53.00,+14.00,+4.00,+2.00,+2.00,+2.00
-14.00,-19.00,-11.00,-2.00,+0.00,-2.00,-9.00,-8.00,+6.00,-22.00,-16.00,-9.00,-8.00,-6.00,-8.00,-9.00
-13.00,-8.00,-17.00,-4.00,+10.00,+12.00,+5.00,-8.00,-32.00,-26.00,-21.00,-7.00,-1.00,+5.00,+1.00,+7.00
+8.00,+19.00,+22.00,+10.00,+7.00,-9.00,-7.00,-5.00,+66.00,+36.00,+23.00,+9.00,+8.00,+3.00,-2.00,+7.00
-10.00,+8.00,-1.00,-11.00,-5.00,-3.00,-9.00,-13.00,-13.00,-7.00,-28.00,-4.00,+2.00,+3.00,-8.00,-7.00
+21.00,-26.00,-2.00,+10.00,+2.00,+6.00,+11.00,+9.00,-14.00,+10.00,+7.00,-8.00,-8.00,-2.00,+1.00,-5.00
+8.00,-26.00,-20.00,+0.00,-5.00,-18.00,+9.00,+9.00,+7.00,+46.00,+10.00,+7.00,+14.00,+3.00,+17.00,-6.00
-22.00,+1.00,+17.00,-7.00,-3.00,+21.00,-11.00,-4.00,-6.00,-13.00,-25.00,-4.00,-9.00,-2.00,-13.00,+0.00
+26.00,+3.00,-12.00,+2.00,+7.00,-9.00,+0.00,-2.00,-35.00,+22.00,+28.00,-5.00,-33.00,-7.00,+4.00,+3.00
-6.00,+15.00,+4.00,-5.00,-2.00,-4.00,-5.00,+3.00,+27.00,+24.00,+20.00,+5.00,+8.00,+0.00,-6.00,+1.00
-32.00,-42.00,-11.00,-4.00,-5.00,+6.00,-6.00,-18.00,-27.00,-92.00,-61.00,-18.00,+2.00,-2.00,+5.00,-4.00
+8.00,-33.00,-4.00,+1.00,-1.00,-8.00,-3.00,-1.00,-46.00,+79.00,+61.00,+16.00,+19.00,+4.00,-7.00,-9.00
+11.00,+85.00,+30.00,+7.00,-10.00,+0.00,+3.00,+1.00,+45.00,+64.00,+21.00,+10.00,+7.00,+12.00,+0.00,+7.00
-12.00,-47.00,-29.00,-9.00,-12.00,-1.00,-10.00,-8.00,-11.00,-95.00,-61.00,-16.00,-7.00,-15.00,-6.00,-6.00
+6.00,-19.00,-5.00,-7.00,+12.00,-6.00,-6.00,-2.00,+9.00,+40.00,+29.00,+3.00,-29.00,-3.00,+6.00,-2.00
-12.00,+26.00,-13.00,-8.00,-13.00,-12.00,-2.00,-1.00,-11.00,-64.00,-17.00,-14.00,+1.00,-3.00,-4.00,+2.00
+5.00,+38.00,+2.00,-6.00,-16.00,+5.00,+1.00,+0.00,+1.00,-68.00,-30.00,-7.00,+2.00,-5.00,-2.00,+1.00
-7.00,+6.00,+19.00,+13.00,+10.00,-1.00,-1.00,-3.00,+4.00,+32.00,-1.00,-1.00,+1.00,+1.00,+3.00,+6.00
-10.00,-94.00,+0.00,-1.00,-22.00,+0.00,+2.00,+0.00,+14.00,+43.00,+19.00,+15.00,+7.00,+5.00,+13.00,+3.00
+4.00,+16.00,+2.00,+1.00,-9.00,+0.00,+3.00,+6.00,+7.00,-21.00,-26.00,+1.00,-11.00,-3.00,-10.00,+0.00
-4.00,-5.00,-11.00,-4.00,-3.00,-1.00,-1.00,-4.00,+13.00,-21.00,+21.00,-16.00,+5.00,-6.00,-5.00,-7.00
-9.00,+4.00,-25.00,-18.00,-13.00,+4.00,+0.00,-3.00,-17.00,-70.00,-13.00,-2.00,-12.00,-5.00,-3.00,-4.00
+3.00,+31.00,+27.00,+6.00,-5.00,-8.00,+1.00,+3.00,+27.00,+85.00,-18.00,-13.00,-3.00,-3.00,-3.00,-3.00
-5.00,-58.00,+9.00,+8.00,+10.00,+1.00,-3.00,-2.00,-44.00,-62.00,+20.00,+3.00,+1.00,+1.00,-4.00,-1.00
+3.00,-34.00,-2.00,+6.00,+13.00,+7.00,+7.00,+6.00,+5.00,+73.00,+24.00,+17.00,+7.00,-3.00,+2.00,+8.00
-8.00,+2.00,+15.00,+4.00,+7.00,-2.00,-2.00,-3.00,-15.00,-35.00,+5.00,+3.00,+0.00,+3.00,+1.00,+0.00
+3.00,+48.00,-4.00,+7.00,+1.00,+4.00,-5.00,-3.00,-3.00,-28.00,+33.00,+19.00,+6.00,+4.00,+3.00,+0.00
-7.00,-8.00,-46.00,-28.00,-17.00,-10.00,-2.00,-2.00,+10.00,+5.00,-46.00,-33.00,-20.00,-9.00,-8.00,-4.00
+1.00,-5.00,+9.00,-2.00,-4.00,-9.00,-4.00,-6.00,+15.00,+2.00,-31.00,-1.00,-2.00,-5.00,+1.00,+0.00
+0.00,+16.00,+7.00,+5.00,+7.00,+1.00,-5.00,-1.00,-9.00,+6.00,+8.00,-1.00,+2.00,+0.00,-3.00,-1.00
+3.00,+36.00,+13.00,+3.00,+4.00,+3.00,+1.00,+0.00,+6.00,-10.00,+21.00,+8.00,+11.00,+8.00,+5.00,+2.00
-3.00,+4.00,+5.00,+9.00,+2.00,+4.00,+2.00,+1.00,+16.00,+38.00,+0.00,+5.00,+4.00,+0.00,-2.00,+6.00
-4.00,-29.00,-27.00,-11.00,-1.00,+0.00,-1.00,-3.00,-18.00,-45.00,+17.00,+9.00,-2.00,-4.00,-4.00,+0.00
+2.00,+6.00,+7.00,+1.00,+0.00,+1.00,-1.00,-1.00,+3.00,+33.00,+51.00,+9.00,-7.00,-2.00,-5.00,-6.00
-10.00,-13.00,-1.00,+4.00,-4.00,-2.00,-4.00,-3.00,+2.00,-27.00,-104.00,-59.00,-14.00,-5.00,+0.00,+2.00
+3.00,+26.00,+4.00,-6.00,+12.00,+0.00,-4.00,-1.00,-3.00,-10.00,+10.00,+2.00,-1.00,-2.00,-3.00,-3.00
-4.00,-30.00,-14.00,-2.00,+4.00,+17.00,+8.00,+2.00,-2.00,+0.00,-3.00,-4.00,+2.00,+0.00,+0.00,-2.00
-3.00,+28.00,+6.00,-2.00,-4.00,-1.00,-1.00,-2.00,+1.00,-2.00,+3.00,+10.00,+4.00,+2.00,+2.00,+1.00
+9.00,+32.00,+10.00,-3.00,+6.00,+1.00,+2.00,+1.00,-1.00,+0.00,+40.00,+20.00,+6.00,+2.00,+2.00,+3.00
-13.00,-4.00,-1.00,+0.00,+1.00,-3.00,-2.00,+1.00,-3.00,+15.00,+3.00,+3.00,-2.00,-1.00,-4.00,+1.00
+1.00,+64.00,+2.00,+2.00,+2.00,-1.00,-2.00,-4.00,-1.00,+1.00,-17.00,+2.00,+3.00,-3.00,-1.00,+2.00
-25.00,-47.00,-5.00,+3.00,+0.00,-1.00,-3.00,-6.00,-10.00,+16.00,+0.00,-1.00,+0.00,-1.00,-1.00,+0.00
+14.00,+15.00,-1.00,-1.00,-2.00,+1.00,+2.00,+3.00,+12.00,-29.00,+3.00,-3.00,-1.00,+3.00,+2.00,+3.00
+11.00,+25.00,+5.00,+0.00,+2.00,+1.00,-1.00,-3.00,+5.00,-5.00,-30.00,-11.00,-8.00,-2.00,-1.00,-7.00
+0.00,-15.00,-5.00,-4.00,-5.00,-10.00,-8.00,-4.00,-16.00,+8.00,+32.00,+3.00,-1.00,-1.00,-2.00,-4.00
-6.00,-18.00,-13.00,-5.00,-2.00,+4.00,+4.00,-2.00,+19.00,+13.00,-15.00,-3.00,-3.00,-2.00,+1.00,+6.00
-13.00,+29.00,-3.00,-2.00,-1.00,-6.00,-7.00,-7.00,-19.00,-8.00,+7.00,+2.00,+0.00,+0.00,-1.00,-2.00
+24.00,-19.00,+15.00,+12.00,+3.00,+3.00,+4.00,+6.00,+7.00,-15.00,+30.00,+15.00,+10.00,+2.00,+1.00,+2.00
-15.00,-29.00,-4.00,+6.00,+2.00,-1.00,-2.00,-8.00,-7.00,-23.00,-41.00,-16.00,-4.00,-2.00,+1.00,+8.00
-9.00,-30.00,-19.00,-14.00,-4.00,-10.00,-10.00,+4.00,-2.00,-9.00,-8.00,-1.00,+1.00,+0.00,+0.00,-8.00
+20.00,+72.00,+38.00,+3.00,+9.00,+10.00,+11.00,+14.00,+8.00,+10.00,-6.00,+0.00,+2.00,+8.00,+2.00,-4.00
+5.00,-16.00,-6.00,+0.00,-3.00,-4.00,-3.00,-3.00,+2.00,+24.00,+9.00,-5.00,-2.00,-12.00,-5.00,-12.00
-19.00,-17.00,-3.00,-6.00,-2.00,-1.00,+0.00,-3.00,-12.00,-6.00,-9.00,-11.00,-4.00,-6.00,-4.00,-7.00
+9.00,+15.00,+5.00,+4.00,+3.00,+1.00,-4.00,-23.00,+16.00,-19.00,-24.00,-5.00,-2.00,+2.00,+5.00,-1.00
-15.00,-18.00,-17.00,-3.00,-6.00,-7.00,-5.00,-3.00,+2.00,-1.00,+16.00,+9.00,+1.00,+0.00,+1.00,+7.00
-24.00,+14.00,+4.00,-4.00,+4.00,+0.00,+2.00,+11.00,-3.00,+38.00,-9.00,+2.00,+0.00,+8.00,-2.00,-16.00
+43.00,-19.00,+11.00,+18.00,+5.00,-6.00,-3.00,+4.00,-15.00,-83.00,+18.00,+8.00,+1.00,-1.00,-2.00,-6.00
-13.00,+4.00,+3.00,-1.00,-13.00,-3.00,-2.00,+0.00,-10.00,+6.00,+0.00,-5.00,-1.00,-5.00,-5.00,-9.00
+7.00,-46.00,-40.00,-49.00,-13.00,-5.00,-6.00,-14.00,-8.00,-1.00,+8.00,+4.00,-1.00,-1.00,+1.00,+1.00
+14.00,-22.00,-6.00,-3.00,-4.00,-5.00,-2.00,-6.00,-1.00,+2.00,+1.00,-1.00,+0.00,+0.00,+0.00,+6.00
+5.00,+56.00,-3.00,+10.00,+4.00,-1.00,-1.00,-2.00,-4.00,+26.00,-13.00,-3.00,-3.00,-1.00,-2.00,+3.00
-13.00,+13.00,+26.00,+21.00,+9.00,+5.00,+3.00,+2.00,-1.00,+14.00,-6.00,-5.00,+0.00,+4.00,+0.00,+4.00
-26.00,-5.00,-2.00,+6.00,-2.00,-4.00,-7.00,-20.00,+18.00,-49.00,-9.00,+0.00,-3.00,-11.00,-1.00,-9.00
-28.00,-26.00,-9.00,-2.00,+1.00,+2.00,+1.00,-5.00,-29.00,-11.00,-12.00,-6.00,-1.00,-1.00,-3.00,+4.00
+21.00,-1.00,-12.00,-15.00,-7.00,-1.00,+2.00,+41.00,+1.00,+31.00,+24.00,+1.00,-3.00,-4.00,-2.00,-8.00
+12.00,+8.00,+6.00,+5.00,+1.00,+0.00,+3.00,+6.00,-16.00,-25.00,-6.00,-4.00,-3.00,+1.00,-1.00,-1.00
-6.00,+3.00,+6.00,+8.00,+3.00,+3.00,+2.00,+5.00,-21.00,+59.00,+15.00,+1.00,-2.00,+0.00,-3.00,-6.00
-9.00,-8.00,-5.00,-1.00,+1.00,+0.00,-4.00,-13.00,+66.00,-15.00,-6.00,+2.00,+2.00,-1.00,+0.00,+4.00
-16.00,-17.00,-1.00,-4.00,-6.00,-4.00,+0.00,-19.00,+14.00,-9.00,-11.00,-1.00,-1.00,+4.00,+2.00,+5.00
+9.00,+20.00,-2.00,-9.00,-2.00,-3.00,-2.00,+16.00,-82.00,-5.00,-5.00,-2.00,-1.00,-2.00,+0.00,-27.00
-1.00,-25.00,-5.00,+1.00,-2.00,-1.00,-3.00,+0.00,+18.00,+3.00,-6.00,-5.00,-1.00,-4.00,-8.00,-7.00
+12.00,+22.00,+7.00,+5.00,-2.00,+0.00,-2.00,-5.00,-2.00,+2.00,+8.00,+3.00,-2.00,-3.00,-3.00,-4.00
+2.00,-9.00,+3.00,+0.00,+0.00,+0.00,+1.00,-2.00,-5.00,+0.00,+1.00,+0.00,+1.00,+0.00,-2.00,-13.00
-2.00,-8.00,-5.00,-3.00,+1.00,+0.00,+4.00,-2.00,+20.00,+7.00,-6.00,-1.00,+0.00,+2.00,+2.00,+16.00
-9.00,-13.00,-4.00,+0.00,-2.00,+0.00,-8.00,-5.00,-15.00,-15.00,-2.00,-2.00,-3.00,-7.00,-1.00,+4.00
+9.00,+18.00,-3.00,-4.00,-5.00,-4.00,-1.00,+6.00,-12.00,+7.00,+9.00,+1.00,-1.00,+4.00,+4.00,-7.00
+14.00,-7.00,-5.00,-8.00,-4.00,-1.00,+0.00,-1.00,+10.00,+6.00,-7.00,-5.00,-4.00,-3.00,-3.00,+9.00
+9.00,+1.00,-3.00,-3.00,-1.00,-2.00,+0.00,-4.00,+0.00,-3.00,-2.00,-1.00,-1.00,-3.00,-3.00,-5.00
+4.00,+3.00,+9.00,+11.00,+5.00,+2.00,-1.00,+5.00,-22.00,-8.00,+3.00,+2.00,+1.00,+2.00,+2.00,-5.00
-6.00,-14.00,+5.00,+4.00,+1.00,+0.00,+1.00,+6.00,+19.00,+2.00,+6.00,-1.00,-2.00,+1.00,+0.00,+9.00
-26.00,-18.00,-13.00,-9.00,-5.00,-3.00,-6.00,-13.00,-10.00,+0.00,-7.00,-3.00,+0.00,-2.00,-2.00,-2.00
+15.00,+42.00,+5.00,-5.00,+0.00,-1.00,-1.00,-1.00,+47.00,+1.00,+1.00,-2.00,-2.00,+1.00,-1.00,+13.00
+2.00,+3.00,-3.00,-2.00,-4.00,-5.00,+0.00,+5.00,-12.00,-1.00,+4.00,+0.00,-1.00,+0.00,-4.00,-4.00
-14.00,-3.00,-7.00,-7.00,-3.00,-1.00,+0.00,+0.00,-19.00,+2.00,-1.00,+1.00,-1.00,-6.00,-1.00,-3.00
+12.00,-7.00,+4.00,+8.00,+3.00,+3.00,+2.00,+0.00,+11.00,-4.00,-6.00,-2.00,-1.00,+1.00,-1.00,+1.00
-2.00,-25.00,+3.00,+1.00,+0.00,+3.00,-4.00,-5.00,-4.00,+3.00,+1.00,+0.00,-1.00,-3.00,-5.00,-2.00
-11.00,-2.00,-13.00,-4.00,+1.00,-9.00,+3.00,+22.00,+5.00,+13.00,+2.00,-2.00,-3.00,-3.00,-2.00,+3.00
+4.00,+5.00,+2.00,+1.00,-2.00,-2.00,-5.00,-23.00,-19.00,-25.00,+0.00,-2.00,-2.00,-2.00,-2.00,+1.00
-11.00,-14.00,-3.00,-10.00,-2.00,-2.00,+4.00,+30.00,-4.00,-9.00,-7.00,+0.00,+1.00,+9.00,+1.00,-4.00
+15.00,+6.00,-2.00,-1.00,+0.00,+2.00,+1.00,+6.00,+24.00,+2.00,-1.00,-4.00,-3.00,-9.00,-2.00,+6.00
-8.00,-16.00,+3.00,+2.00,+1.00,+2.00,+0.00,-7.00,-9.00,+12.00,+7.00,+0.00,-2.00,-7.00,+1.00,-10.00
+3.00,+19.00,-2.00,+2.00,-1.00,-2.00,-6.00,-15.00,-3.00,+43.00,+5.00,+1.00,+0.00,+3.00,-1.00,-3.00
-14.00,+7.00,+6.00,+3.00,-2.00,-3.00,-3.00,-5.00,+6.00,-15.00,+2.00,-2.00,+0.00,-5.00,-2.00,-9.00
+0.00,-5.00,-7.00,-2.00,+1.00,-3.00,-1.00,-1.00,+0.00,-8.00,-1.00,+1.00,-1.00,+3.00,-2.00,-8.00
-6.00,+2.00,+5.00,+2.00,-3.00,+0.00,-2.00,-27.00,+9.00,-14.00,-10.00,-7.00,-2.00,+0.00,+0.00,+9.00
+9.00,-2.00,+5.00,+5.00,+1.00,+2.00,+5.00,+34.00,-4.00,-6.00,+1.00,+1.00,+0.00,-1.00,-3.00,+3.00
+4.00,-1.00,-2.00,+1.00,-1.00,-1.00,-2.00,+2.00,+0.00,+5.00,-1.00,-2.00,+0.00,+2.00,+0.00,+0.00
-12.00,-14.00,-10.00,-19.00,-7.00,-5.00,-1.00,+3.00,+0.00,+0.00,-7.00,-2.00,-2.00,-3.00,-3.00,-5.00
-3.00,+2.00,-9.00,-4.00,+1.00,+1.00,+0.00,-8.00,-5.00,-9.00,-1.00,-1.00,-2.00,+1.00,-1.00,+0.00
-8.00,+3.00,+13.00,+7.00,-1.00,-3.00,-3.00,-6.00,-1.00,-2.00,-4.00,-1.00,+0.00,+0.00,+1.00,+1.00
-9.00,-3.00,+3.00,-2.00,-1.00,+6.00,+2.00,-17.00,+6.00,+4.00,-6.00,-2.00,-2.00,-3.00,+1.00,+5.00
-6.00,-17.00,-15.00,+1.00,+1.00,-2.00,-1.00,-3.00,-8.00,-3.00,-1.00,+0.00,+0.00,+2.00,-1.00,-2.00
-23.00,+9.00,+16.00,+2.00,-3.00,-1.00,-3.00,-8.00,+2.00,-7.00,+2.00,+2.00,+1.00,-1.00,-2.00,-9.00
+4.00,-63.00,-22.00,+7.00,+7.00,+4.00,+1.00,+3.00,+5.00,+3.00,+5.00,-6.00,-4.00,-1.00,-4.00,+5.00
+22.00,+89.00,+56.00,+38.00,+16.00,+7.00,+7.00,+10.00,-1.00,+8.00,+5.00,-1.00,-1.00,-3.00,-1.00,+1.00
+2.00,-8.00,+15.00,+2.00,-7.00,-3.00,-1.00,+0.00,+2.00,-7.00,-2.00,+2.00,+0.00,+11.00,+4.00,+17.00
+1.00,-9.00,-47.00,-57.00,-13.00,-2.00,-3.00,-3.00,+5.00,+7.00,-2.00,+0.00,-1.00,-8.00,+1.00,+4.00
-13.00,-17.00,-26.00,-25.00,-8.00,-9.00,-7.00,-2.00,-11.00,-13.00,-7.00,-3.00,-4.00,-8.00,-6.00,-13.00
-12.00,-47.00,-12.00,+0.00,-1.00,-3.00,-5.00,-12.00,+10.00,+11.00,+1.00,-2.00,-1.00,-1.00,-2.00,+1.00
+2.00,+20.00,+7.00,+19.00,+8.00,+5.00,+3.00,+3.00,-1.00,+37.00,-7.00,-1.00,+3.00,+5.00,+2.00,-3.00
+17.00,+7.00,+24.00,+25.00,+6.00,-1.00,+4.00,+10.00,-11.00,-13.00,+26.00,+13.00,+8.00,+1.00,-1.00,+2.00
-4.00,-7.00,+3.00,-6.00,-4.00,-5.00,-3.00,-1.00,-3.00,+8.00,+1.00,+7.00,+0.00,+0.00,+2.00,-3.00
+1.00,+3.00,-19.00,-15.00,-3.00,-2.00,-3.00,-2.00,-4.00,-18.00,+12.00,-5.00,-7.00,-9.00,-5.00,-4.00
+3.00,+11.00,+7.00,+0.00,+1.00,+0.00,-3.00,-5.00,+2.00,+6.00,+4.00,-9.00,-5.00,-2.00,-3.00,-5.00
+1.00,-12.00,+1.00,+9.00,+1.00,+2.00,-2.00,-2.00,+8.00,+10.00,-9.00,-5.00,-2.00,+3.00,-1.00,+1.00
+2.00,+18.00,+9.00,+2.00,-1.00,+3.00,+2.00,-1.00,-4.00,-6.00,-7.00,+1.00,+2.00,-1.00,+1.00,-3.00
-7.00,-5.00,+1.00,+3.00,+1.00,+0.00,-1.00,-7.00,-1.00,-3.00,-15.00,-1.00,+1.00,+0.00,+1.00,-5.00
+8.00,-2.00,-2.00,+0.00,-2.00,-3.00,+1.00,+17.00,-2.00,-6.00,-6.00,-1.00,-2.00,-5.00,-1.00,-3.00
+5.00,-8.00,-2.00,-9.00,-3.00,-1.00,-2.00,+4.00,-7.00,-5.00,-5.00,-5.00,-4.00,-1.00,+0.00,-4.00
-7.00,+16.00,-7.00,-4.00,-4.00,-3.00,+1.00,-3.00,+1.00,-5.00,+4.00,+0.00,-1.00,+1.00,+0.00,+3.00
-2.00,-12.00,-9.00,-14.00,-6.00,-6.00,-6.00,-12.00,+2.00,+3.00,-3.00,+1.00,+1.00,+2.00,+1.00,+6.00
-8.00,-25.00,-5.00,+3.00,+0.00,+0.00,-3.00,-8.00,-2.00,-5.00,+4.00,-1.00,-1.00,-4.00,-1.00,+1.00
+13.00,+70.00,+19.00,+19.00,+4.00,+1.00,+3.00,+3.00,+2.00,-5.00,-8.00,+0.00,+2.00,+0.00,-2.00,+1.00
+4.00,+5.00,+12.00,-2.00,-2.00,+2.00,+0.00,+2.00,-3.00,+3.00,+2.00,-1.00,-1.00,+2.00,-3.00,+0.00
-6.00,-13.00,-17.00,-13.00,-5.00,-3.00,-4.00,+0.00,-2.00,-3.00,-9.00,-7.00,-3.00,-2.00,+0.00,+1.00
-3.00,-15.00,-13.00,-8.00,-1.00,-1.00,+1.00,-2.00,-7.00,-9.00,+3.00,-1.00,-2.00,-6.00,-6.00,-7.00
+3.00,-14.00,-4.00,+6.00,-1.00,-1.00,+0.00,+4.00,+2.00,+11.00,+7.00,-2.00,-3.00,-1.00,-2.00,-4.00
+1.00,+12.00,+16.00,+13.00,+7.00,+2.00,+1.00,+2.00,+1.00,+5.00,+12.00,-3.00,-1.00,+1.00,+3.00,+6.00
+2.00,+2.00,+7.00,+8.00,+0.00,+0.00,+0.00,+2.00,-3.00,-23.00,-19.00,+3.00,+1.00,+0.00,+0.00,-2.00
-4.00,-2.00,-8.00,-9.00,-6.00,-4.00,-1.00,-3.00,-5.00,-16.00,-7.00,-1.00,-2.00,-3.00,+0.00,-2.00
+3.00,-20.00,-13.00,-15.00,-7.00,-4.00,-2.00,-2.00,+3.00,+2.00,-4.00,-3.00,-1.00,+1.00,+1.00,-1.00
+1.00,+19.00,-2.00,-5.00,-1.00,-1.00,-1.00,-1.00,-1.00,+1.00,-1.00,+1.00,+1.00,-1.00,-1.00,-1.00
-1.00,-24.00,-3.00,+1.00,+0.00,+0.00,-1.00,+0.00,-1.00,+9.00,+8.00,+0.00,-1.00,-2.00,-3.00,-4.00
+12.00,-8.00,+15.00,+17.00,+4.00,+1.00,+0.00,+0.00,-1.00,+3.00,-2.00,+2.00,+2.00,+0.00,+0.00,-2.00
+6.00,+18.00,+8.00,+6.00,+0.00,+0.00,+2.00,+4.00,-2.00,-6.00,-8.00,+1.00,-2.00,+2.00,-1.00,+1.00
-7.00,-21.00,-15.00,-13.00,-5.00,-6.00,-5.00,-2.00,-4.00,-7.00,-3.00,-3.00,-3.00,-3.00,+0.00,+2.00
+0.00,+61.00,+2.00,-3.00,-1.00,-3.00,-4.00,-2.00,-3.00,+0.00,+6.00,-1.00,-5.00,-2.00,-3.00,-4.00
-8.00,-13.00,-7.00,-5.00,-2.00,-8.00,-1.00,-6.00,-4.00,-3.00,+2.00,-1.00,-1.00,-2.00,-2.00,-5.00
+2.00,-15.00,-3.00,+2.00,+1.00,+2.00,+1.00,+8.00,-1.00,+5.00,-2.00,-2.00,-1.00,-2.00,+3.00,+2.00
+1.00,+4.00,+2.00,+5.00,+0.00,+2.00,-1.00,+0.00,-2.00,-12.00,-7.00,+2.00,+1.00,+1.00,+1.00,-1.00
-3.00,-18.00,-1.00,+2.00,-2.00,-2.00,-4.00,-4.00,+1.00,-4.00,-6.00,-2.00,-2.00,+2.00,-2.00,+0.00
-2.00,+11.00,-4.00,-3.00,-1.00,-1.00,-2.00,-2.00,-1.00,+8.00,+6.00,-1.00,-2.00,-1.00,+0.00,-2.00
+2.00,-5.00,-1.00,+1.00,+0.00,+0.00,-1.00,-2.00,-2.00,-20.00,-1.00,-1.00,-3.00,+2.00,-3.00,-1.00
-2.00,+4.00,+0.00,+0.00,+1.00,-1.00,-2.00,-2.00,+0.00,+5.00,-3.00,-5.00,-2.00,-12.00,-2.00,-4.00
-2.00,-15.00,-3.00,-5.00,-4.00,-1.00,-1.00,+0.00,-2.00,+2.00,+0.00,+0.00,-1.00,-1.00,-3.00,-5.00
-2.00,+12.00,-2.00,-6.00,-2.00,+1.00,-2.00,-4.00,+0.00,+1.00,+3.00,+1.00,+1.00,-2.00,-3.00,+1.00
+0.00,-8.00,-1.00,+2.00,+0.00,+0.00,+1.00,+0.00,+1.00,+1.00,-3.00,-1.00,-1.00,+2.00,+0.00,+1.00
-3.00,-4.00,+2.00,+1.00,+2.00,+1.00,+1.00,-2.00,-2.00,-5.00,-5.00,-1.00,-2.00,+2.00,-2.00,-1.00
-3.00,-8.00,-4.00,-1.00,-2.00,-4.00,-1.00,+1.00,-3.00,+0.00,+0.00,-1.00,+0.00,-2.00,+1.00,-2.00
+8.00,+15.00,+1.00,-3.00,-3.00,-5.00,-4.00,+1.00,-1.00,-2.00,-1.00,-2.00,-1.00,+0.00,-1.00,-1.00
-2.00,-11.00,+4.00,+5.00,+2.00,+10.00,+5.00,+1.00,-2.00,-3.00,-3.00,-2.00,-1.00,+0.00,-1.00,+0.00
+1.00,+12.00,+6.00,+7.00,+0.00,+0.00,+1.00,+0.00,-1.00,-4.00,-3.00,-3.00,-2.00,+0.00,-1.00,-1.00
+1.00,-8.00,-10.00,-8.00,-3.00,+0.00,+2.00,-2.00,+1.00,+4.00,+0.00,-1.00,+0.00,-2.00,-1.00,-1.00
-6.00,-12.00,-2.00,-6.00,-3.00,-3.00,-3.00,-1.00,+0.00,-3.00,-1.00,+1.00,-2.00,+0.00,-1.00,+0.00
+5.00,+25.00,-7.00,-3.00,-1.00,-5.00,-3.00,+0.00,-3.00,-2.00,-2.00,-1.00,-2.00,-4.00,+0.00,-3.00
+0.00,-4.00,+3.00,+6.00,+0.00,+1.00,-1.00,-3.00,+2.00,-2.00,+1.00,-3.00,-2.00,+7.00,+1.00,-1.00
-13.00,-8.00,-1.00,+0.00,-2.00,+1.00,+4.00,+23.00,-1.00,+1.00,-2.00,+0.00,-2.00,-12.00,+0.00,-2.00
-3.00,-9.00,-9.00,-3.00,-3.00,+2.00,+0.00,+0.00,-2.00,-5.00,-4.00,+1.00,-1.00,-2.00,-2.00,-3.00
-1.00,-12.00,+3.00,+3.00,+1.00,-1.00,-3.00,-1.00,-2.00,+4.00,+2.00,-3.00,-2.00,-3.00,-2.00,-2.00
+2.00,+1.00,-2.00,+0.00,+0.00,-1.00,+2.00,+0.00,+0.00,-4.00,+2.00,-1.00,-3.00,+0.00,-2.00,+1.00
+4.00,+1.00,+5.00,+5.00,+1.00,-2.00,-3.00,-12.00,-5.00,-2.00,-3.00,-4.00,+0.00,+3.00,-2.00,-5.00
+2.00,+6.00,-2.00,-4.00,+0.00,+2.00,+1.00,-18.00,+2.00,-1.00,-5.00,+0.00,+0.00,-3.00,+0.00,+2.00
-1.00,-4.00,-2.00,-2.00,-2.00,+0.00,+0.00,+8.00,-1.00,-2.00,-7.00,-1.00,+0.00,-1.00,+3.00,+3.00
+1.00,+2.00,-2.00,-4.00,-1.00,-2.00,-1.00,-1.00,-1.00,+2.00,+1.00,-1.00,-2.00,+1.00,-2.00,-3.00
-2.00,-9.00,-2.00,-4.00,-1.00,-5.00,-3.00,-8.00,-2.00,+0.00,-1.00,+0.00,-2.00,-1.00,+0.00,-1.00
-3.00,+8.00,+4.00,+1.00,+0.00,-3.00,-8.00,-7.00,-1.00,-3.00,+1.00,+0.00,-2.00,-4.00,-1.00,+0.00
+2.00,-2.00,+7.00,+7.00,+3.00,+9.00,+9.00,-5.00,-2.00,-2.00,-2.00,-1.00,-1.00,+1.00,-3.00,-4.00
+0.00,-7.00,-5.00,-1.00,-2.00,+0.00,+2.00,+1.00,-2.00,-1.00,-1.00,+0.00,-1.00,-1.00,-2.00,-3.00
+3.00,-3.00,-8.00,-8.00,-3.00,-1.00,+0.00,+3.00,-1.00,-1.00,+1.00,-2.00,+0.00,+0.00,+0.00,+2.00
-2.00,+5.00,-3.00,-3.00,-2.00,-3.00,-3.00,+4.00,-4.00,-1.00,-1.00,-1.00,+0.00,-1.00,-3.00,-1.00
+1.00,-5.00,+2.00,-1.00,-3.00,-7.00,-6.00,-4.00,+1.00,+0.00,-3.00,-1.00,+0.00,-3.00,+1.00,+2.00
-15.00,-10.00,+0.00,-4.00,-1.00,-1.00,-2.00,-5.00,+0.00,+0.00,-2.00,-1.00,+0.00,+10.00,+0.00,+0.00
-12.00,+7.00,+8.00,+4.00,+0.00,+2.00,+0.00,-7.00,+0.00,-1.00,-3.00,-1.00,+0.00,-15.00,+0.00,+0.00
-3.00,+1.00,-2.00,-2.00,-2.00,-1.00,-1.00,+0.00,-2.00,+1.00,+1.00,+0.00,-2.00,+1.00,-1.00,-1.00
-6.00,-7.00,-5.00,-5.00,-3.00,-4.00,-3.00,-4.00,-2.00,+0.00,+3.00,-2.00,-1.00,-2.00,-7.00,-5.00
+0.00,-3.00,-2.00,+0.00,+0.00,+2.00,+0.00,-1.00,-2.00,+1.00,+0.00,+0.00,-1.00,-2.00,+0.00,-1.00
+4.00,+1.00,-1.00,+0.00,+0.00,-2.00,-3.00,-2.00,-1.00,+0.00,+3.00,+5.00,+1.00,+9.00,+0.00,+0.00
-1.00,-1.00,+5.00,+2.00,+1.00,+3.00,+2.00,+6.00,+4.00,-11.00,-12.00,-5.00,-2.00,-1.00,+3.00,+6.00
-2.00,-4.00,-3.00,-2.00,+0.00,-2.00,-2.00,-1.00,+10.00,+2.00,-1.00,+0.00,+1.00,-1.00,+4.00,+11.00
+4.00,+1.00,-1.00,-1.00,-1.00,-1.00,-2.00,+4.00,-2.00,-3.00,-13.00,-3.00,-3.00,-3.00,-2.00,-6.00
+0.00,-1.00,-1.00,+0.00,-1.00,-1.00,-1.00,-3.00,+2.00,+2.00,+5.00,+1.00,+0.00,+2.00,+1.00,+2.00
-2.00,+1.00,-2.00,-2.00,+0.00,+1.00,+2.00,+1.00,-7.00,-1.00,+2.00,-2.00,-1.00,-3.00,-2.00,-7.00
+1.00,-2.00,-4.00,-2.00,-2.00,-2.00,-1.00,+0.00,-1.00,-1.00,-4.00,-1.00,-3.00,+1.00,-2.00,-3.00
+1.00,+2.00,-2.00,-2.00,+0.00,+0.00,-2.00,+0.00,+1.00,-3.00,-2.00,+0.00,+2.00,-1.00,+0.00,+2.00
+0.00,-1.00,+0.00,+1.00,+0.00,+0.00,+1.00,-2.00,-2.00,-2.00,-2.00,-2.00,-3.00,-1.00,-4.00,-5.00
-2.00,-1.00,+0.00,+1.00,+0.00,+0.00,+2.00,+0.00,-2.00,+0.00,+2.00,+0.00,+0.00,+0.00,-2.00,-1.00
-5.00,-1.00,-3.00,-3.00,+0.00,-2.00,-1.00,-2.00,-4.00,-2.00,-1.00,+1.00,+0.00,+1.00,-1.00,-3.00
+0.00,+2.00,-1.00,-4.00,-2.00,-1.00,-2.00,+2.00,-2.00,+0.00,+1.00,+0.00,-1.00,-6.00,+0.00,-3.00
+0.00,-4.00,-2.00,-2.00,-1.00,-2.00,-1.00,-2.00,-3.00,-3.00,-3.00,-1.00,-2.00,+1.00,-2.00,-2.00
-1.00,+0.00,-3.00,-1.00,-2.00,-1.00,+0.00,+2.00,+0.00,+1.00,+2.00,-2.00,+0.00,+2.00,+0.00,-2.00
-1.00,-4.00,+1.00,+2.00,-1.00,-2.00,+0.00,+0.00,-1.00,-3.00,-1.00,-2.00,-1.00,+0.00,-2.00,+1.00
-3.00,-1.00,-1.00,+0.00,+0.00,-1.00,-3.00,-4.00,-1.00,-2.00,+0.00,-1.00,-1.00,-3.00,-1.00,-2.00
-3.00,-2.00,-4.00,-5.00,-1.00,+1.00,+2.00,+1.00,+1.00,+0.00,-1.00,+0.00,+1.00,+1.00,+1.00,+2.00
+2.00,+0.00,+0.00,+0.00,+0.00,-2.00,+0.00,+0.00,+2.00,+1.00,+2.00,-2.00,+1.00,-2.00,+0.00,+2.00
+1.00,-2.00,+0.00,+0.00,-1.00,-1.00,-1.00,+0.00,-4.00,-1.00,+4.00,+1.00,-1.00,-3.00,-3.00,-4.00
-9.00,-3.00,-1.00,+0.00,-1.00,-1.00,-2.00,-3.00,-1.00,-1.00,-1.00,-1.00,-2.00,-2.00,-2.00,-3.00
+6.00,+3.00,+2.00,+2.00,+0.00,+0.00,-2.00,-2.00,+1.00,-1.00,-3.00,-3.00,-1.00,+1.00,-3.00,-3.00
-5.00,-3.00,-4.00,-4.00,-2.00,-2.00,+0.00,-1.00,-4.00,+2.00,-1.00,-2.00,-3.00,-2.00,-1.00,-6.00
-7.00,-3.00,-1.00,-4.00,-3.00,-1.00,-3.00,-3.00,+0.00,-2.00,-4.00,-3.00,+0.00,-2.00,+2.00,+2.00
+5.00,+1.00,-1.00,-1.00,-1.00,-2.00,+0.00,+0.00,-2.00,+0.00,-1.00,-1.00,-2.00,-1.00,+1.00,+0.00
+2.00,+2.00,+2.00,+4.00,+3.00,+2.00,+0.00,+0.00,-1.00,-1.00,-1.00,-2.00,+0.00,+0.00,-3.00,-4.00
-1.00,+1.00,+1.00,+0.00,-1.00,+0.00,+0.00,+0.00,+0.00,+0.00,+0.00,+0.00,+0.00,-1.00,-2.00,+1.00
-2.00,-1.00,+1.00,-2.00,-1.00,+0.00,-1.00,-2.00,+1.00,-3.00,-4.00,-1.00,-1.00,-1.00,+0.00,-1.00
+4.00,-2.00,-4.00,-1.00,-3.00,-1.00,+3.00,+2.00,-3.00,+0.00,+2.00,+0.00,-1.00,-3.00,-1.00,+1.00
-2.00,-1.00,+0.00,+0.00,-1.00,-1.00,-1.00,-1.00,+0.00,+0.00,-2.00,-2.00,+0.00,-2.00,-1.00,+0.00
-3.00,-1.00,+1.00,+1.00,+0.00,-1.00,-2.00,-1.00,-2.00,-1.00,+0.00,-1.00,-2.00,-1.00,-1.00,-2.00
-1.00,+2.00,-1.00,-1.00,+0.00,-1.00,-2.00,+1.00,-1.00,-3.00,+1.00,+1.00,+0.00,-1.00,+1.00,-1.00
+2.00,+2.00,+0.00,-2.00,-1.00,+0.00,-2.00,+2.00,+0.00,-1.00,-1.00,-1.00,+0.00,-2.00,-1.00,+3.00
-2.00,-4.00,-3.00,-1.00,-2.00,-2.00,-2.00,-2.00,-2.00,-4.00,-2.00,-1.00,-2.00,+1.00,-1.00,+0.00
-2.00,+0.00,+0.00,+4.00,+1.00,-1.00,-2.00,-2.00,-4.00,-1.00,+0.00,-2.00,-1.00,-1.00,-2.00,-5.00
+2.00,-2.00,-2.00,-2.00,-2.00,-2.00,+1.00,+2.00,-3.00,-1.00,-4.00,-3.00,-2.00,-2.00,-1.00,-2.00
+0.00,-1.00,-1.00,-3.00,+0.00,-1.00,+1.00,+1.00,-1.00,-1.00,-2.00,+0.00,-1.00,-2.00,+0.00,+0.00
+0.00,-1.00,-1.00,-2.00,-1.00,-1.00,+0.00,-2.00,-1.00,-2.00,+1.00,-2.00,-1.00,-2.00,-1.00,-2.00
-2.00,+0.00,-1.00,+0.00,-1.00,-1.00,-1.00,-2.00,-1.00,-2.00,-3.00,-2.00,-2.00,-1.00,+0.00,+1.00
+1.00,+4.00,+6.00,+2.00,+0.00,-1.00,-3.00,-21.00,-2.00,-1.00,-1.00,+0.00,-1.00,-1.00,-3.00,-1.00
+0.00,-1.00,-2.00,-2.00,-2.00,-3.00,-1.00,+4.00,-1.00,-1.00,+0.00,-1.00,+1.00,-1.00,-2.00,-1.00
+0.00,-1.00,+0.00,+0.00,+0.00,-2.00,-1.00,+0.00,-1.00,-1.00,-2.00,-3.00,-2.00,+1.00,+0.00,+0.00
+4.00,-1.00,-1.00,+1.00,+2.00,+0.00,+0.00,+2.00,+0.00,-2.00,-1.00,+1.00,-1.00,-2.00,+0.00,+1.00
+1.00,-2.00,+0.00,-1.00,-3.00,-1.00,-1.00,-2.00,-3.00,+1.00,+0.00,-1.00,-1.00,-2.00,-1.00,-3.00
-6.00,-5.00,-5.00,-4.00,-3.00,-2.00,-3.00,-4.00,+0.00,+0.00,+1.00,-2.00,+0.00,-2.00,-2.00,-1.00
-1.00,+5.00,+3.00,+0.00,+2.00,-1.00,+0.00,-2.00,-2.00,+0.00,+1.00,+3.00,+1.00,-1.00,-4.00,-3.00
+0.00,-2.00,-2.00,-1.00,-1.00,+0.00,+1.00,-2.00,-1.00,-4.00,+0.00,+0.00,+0.00,-1.00,+0.00,+1.00
+2.00,-1.00,-2.00,+0.00,+0.00,-1.00,+0.00,+7.00,-3.00,+1.00,+0.00,-1.00,+1.00,+0.00,+0.00,-3.00
-4.00,+2.00,+4.00,+0.00,+0.00,+1.00,-1.00,-5.00,-4.00,-4.00,-1.00,+0.00,-1.00,-3.00,-2.00,-6.00
-2.00,-8.00,-8.00,-5.00,-2.00,+0.00,+1.00,+2.00,-2.00,-1.00,-2.00,+0.00,-2.00,-1.00,-1.00,+0.00
-3.00,-2.00,+2.00,-1.00,+0.00,-2.00,-1.00,-3.00,-3.00,-1.00,+3.00,+0.00,-3.00,-1.00,-2.00,-2.00
-3.00,+0.00,+0.00,+0.00,+1.00,+0.00,+0.00,+2.00,+2.00,-3.00,-5.00,-2.00,+0.00,-2.00,+0.00,+2.00
+1.00,+1.00,+1.00,+2.00,-1.00,-2.00,-1.00,+0.00,-1.00,+1.00,-4.00,-1.00,-2.00,-1.00,-2.00,-1.00
-4.00,-1.00,-1.00,-2.00,-3.00,-3.00,-3.00,-5.00,-2.00,-3.00,-3.00,-2.00,-1.00,-1.00,+0.00,-1.00
-2.00,-1.00,-6.00,-7.00,-2.00,-1.00,-1.00,-2.00,-1.00,-1.00,+0.00,+0.00,-1.00,+0.00,+0.00,-2.00
+1.00,-2.00,-4.00,-1.00,-2.00,-2.00,-2.00,+3.00,+0.00,+0.00,+2.00,+0.00,-1.00,-1.00,-2.00,-3.00
+6.00,+6.00,+4.00,+2.00,+0.00,+0.00,-3.00,-19.00,-2.00,-1.00,-1.00,-1.00,+0.00,+0.00,-2.00,-2.00
+1.00,-2.00,-2.00,+2.00,-1.00,+1.00,+1.00,+5.00,-1.00,-2.00,+1.00,+0.00,+0.00,-1.00,+0.00,+0.00
+0.00,+1.00,+1.00,+0.00,+0.00,+0.00,-2.00,+0.00,-2.00,-1.00,-1.00,+0.00,-1.00,-1.00,-2.00,+0.00
+0.00,+0.00,-2.00,+0.00,+0.00,-3.00,+1.00,+3.00,+2.00,-1.00,-1.00,-2.00,+0.00,-1.00,-1.00,+0.00
+0.00,+0.00,-2.00,+1.00,-1.00,-2.00,+1.00,-3.00,+1.00,-1.00,+1.00,-1.00,-1.00,-1.00,+0.00,+1.00
-2.00,+1.00,+2.00,+0.00,-1.00,-1.00,-1.00,-4.00,-1.00,-2.00,+1.00,+1.00,-3.00,-2.00,+0.00,+1.00
-1.00,-3.00,+0.00,-1.00,+1.00,-1.00,-1.00,+0.00,+0.00,+0.00,-3.00,+0.00,-2.00,-1.00,-3.00,-3.00
+3.00,-1.00,-4.00,-1.00,-1.00,-1.00,+0.00,-3.00,-4.00,-2.00,-1.00,+1.00,-2.00,-2.00,+0.00,-3.00
-7.00,-6.00,-4.00,-2.00,-1.00,-1.00,-2.00,+2.00,+0.00,-1.00,-1.00,-1.00,-2.00,-2.00,+0.00,+2.00
+3.00,+2.00,+2.00,+0.00,-3.00,-1.00,-2.00,+0.00,-2.00,-1.00,+0.00,-3.00,+0.00,+0.00,+1.00,-1.00
-2.00,-3.00,-2.00,+1.00,+0.00,-1.00,-1.00,+4.00,+0.00,+1.00,+1.00,-1.00,+0.00,-2.00,-1.00,-2.00
-3.00,-1.00,+1.00,+3.00,+2.00,-1.00,-1.00,+1.00,+0.00,-1.00,-1.00,+0.00,-2.00,-1.00,-2.00,+0.00
-1.00,-2.00,+0.00,-2.00,-1.00,+0.00,-1.00,+3.00,+0.00,-6.00,-2.00,-2.00,+0.00,-2.00,-1.00,-2.00
-3.00,-3.00,-7.00,-3.00,-3.00,-1.00,-2.00,-2.00,-2.00,+1.00,-2.00,-1.00,-1.00,-2.00,-1.00,-3.00
-2.00,-2.00,+0.00,+0.00,-2.00,+0.00,-1.00,-5.00,+2.00,-3.00,-3.00,-1.00,-1.00,+0.00,+0.00,+0.00
-2.00,-1.00,+0.00,-2.00,-1.00,-1.00,-2.00,+1.00,+0.00,-3.00,-2.00,-1.00,-1.00,-1.00,+1.00,+0.00
-2.00,+1.00,-1.00,+1.00,-1.00,-1.00,-1.00,+3.00,-3.00,-1.00,+0.00,-2.00,-1.00,-1.00,-1.00,-3.00
+0.00,-1.00,-2.00,-2.00,+1.00,+0.00,-1.00,-3.00,-2.00,-1.00,+0.00,+0.00,-1.00,-2.00,-1.00,-2.00
+1.00,+2.00,+1.00,-1.00,-1.00,-2.00,-2.00,-1.00,+0.00,-2.00,-1.00,-2.00,-1.00,-1.00,+0.00,+0.00
-1.00,-1.00,-3.00,-3.00,-1.00,+0.00,-1.00,+1.00,-2.00,+0.00,+1.00,+1.00,-2.00,+0.00,-3.00,-5.00
+4.00,-3.00,+0.00,+0.00,-1.00,+0.00,+0.00,+5.00,-1.00,-3.00,-2.00,-2.00,+0.00,+0.00,-1.00,+2.00
-3.00,-2.00,-2.00,+0.00,+0.00,-2.00,-1.00,-2.00,-1.00,-1.00,-2.00,+0.00,+0.00,-2.00,-1.00,-2.00
+2.00,+1.00,-2.00,-5.00,-3.00,-1.00,-1.00,-1.00,+0.00,+0.00,-1.00,-2.00,+0.00,-1.00,+1.00,+0.00
-10.00,-2.00,-1.00,+0.00,+0.00,-1.00,-2.00,-2.00,-1.00,-2.00,-2.00,-2.00,-1.00,-1.00,-1.00,-2.00
-3.00,+0.00,-1.00,-1.00,+0.00,-1.00,-1.00,-1.00,-2.00,+0.00,-1.00,-1.00,+0.00,-2.00,-1.00,-3.00
-4.00,-3.00,+0.00,+0.00,+1.00,-1.00,-1.00,-2.00,-1.00,-1.00,-2.00,-1.00,-1.00,+1.00,-1.00,-2.00
-2.00,-3.00,-1.00,+1.00,-1.00,-1.00,+1.00,-1.00,-2.00,-2.00,-2.00,-1.00,+0.00,+0.00,+0.00,+0.00
+4.00,-2.00,-2.00,-2.00,-3.00,-1.00,-1.00,-2.00,-3.00,-1.00,-1.00,-2.00,-1.00,-1.00,-2.00,-2.00
-2.00,-2.00,-1.00,-1.00,-1.00,-2.00,-1.00,+0.00,-1.00,+1.00,-3.00,-1.00,-3.00,+0.00,-1.00,-2.00
-5.00,+1.00,-1.00,-2.00,-1.00,+1.00,-2.00,-5.00,+2.00,-3.00,+0.00,+0.00,-1.00,+0.00,+1.00,+5.00
-4.00,+0.00,-1.00,+0.00,+0.00,+1.00,+0.00,-2.00,-1.00,+0.00,-2.00,-2.00,-1.00,+0.00,-2.00,-2.00
-1.00,+1.00,-1.00,-3.00,-2.00,+0.00,+0.00,-2.00,+1.00,-3.00,+1.00,-1.00,+0.00,+0.00,-1.00,+2.00
+0.00,-1.00,-1.00,+1.00,-1.00,-1.00,+0.00,+3.00,+0.00,+0.00,-1.00,+2.00,-1.00,-1.00,-1.00,+0.00
+2.00,+0.00,+2.00,+2.00,-2.00,-2.00,+0.00,-3.00,-1.00,+0.00,-2.00,-1.00,-1.00,-2.00,-2.00,-5.00
+1.00,+1.00,+1.00,+0.00,+0.00,-2.00,-2.00,-1.00,-1.00,-1.00,-2.00,-1.00,-1.00,-2.00,+0.00,+0.00
+0.00,+1.00,+0.00,-1.00,+0.00,-1.00,-2.00,+0.00,-2.00,+0.00,-1.00,-2.00,-2.00,+1.00,+1.00,+1.00
-1.00,-1.00,-3.00,-3.00,+1.00,+0.00,+0.00,-4.00,-1.00,+0.00,+1.00,-3.00,+0.00,-1.00,+0.00,+0.00
-3.00,-1.00,-1.00,+0.00,+0.00,+0.00,+0.00,-1.00,+0.00,-3.00,-1.00,-2.00,-1.00,-1.00,+0.00,-1.00
+0.00,-4.00,-3.00,-2.00,-1.00,+2.00,+0.00,+2.00,-2.00,-1.00,-1.00,-1.00,-1.00,-2.00,+0.00,+1.00
-2.00,-1.00,-1.00,-2.00,+0.00,-1.00,-2.00,-1.00,-2.00,+1.00,+1.00,-1.00,-2.00,-2.00,-2.00,-3.00
-1.00,-4.00,-3.00,-2.00,-1.00,-1.00,-3.00,+1.00,-1.00,-2.00,-1.00,+0.00,-1.00,-3.00,-1.00,-3.00
-5.00,+1.00,+1.00,-2.00,-1.00,-1.00,-2.00,+0.00,-2.00,-1.00,-1.00,+0.00,+0.00,-1.00,-2.00,-1.00
-1.00,-4.00,+1.00,+0.00,-2.00,+0.00,+1.00,+2.00,-1.00,-2.00,-1.00,-1.00,-1.00,+0.00,-1.00,-2.00
+4.00,-2.00,-1.00,+1.00,+0.00,-2.00,-1.00,-1.00,-1.00,-2.00,-1.00,-1.00,-2.00,-1.00,-2.00,-1.00
-6.00,-5.00,-1.00,-1.00,-3.00,-1.00,+0.00,-1.00,+1.00,-1.00,-2.00,+0.00,-1.00,+0.00,+1.00,+1.00
+1.00,+1.00,+0.00,-2.00,-2.00,-1.00,+1.00,+1.00,+1.00,-1.00,-3.00,+0.00,-1.00,+1.00,+0.00,+2.00
+1.00,+1.00,-2.00,-1.00,-2.00,+0.00,-1.00,-3.00,-4.00,-1.00,+0.00,-1.00,-1.00,-1.00,-3.00,-3.00
-2.00,-2.00,+1.00,-1.00,+0.00,+0.00,+1.00,-1.00,+1.00,+0.00,-2.00,-1.00,+0.00,+0.00,+2.00,+5.00
-2.00,-2.00,+0.00,+0.00,+1.00,-2.00,-2.00,-1.00,-2.00,+0.00,-2.00,-3.00,-2.00,-1.00,-3.00,-1.00
+2.00,-1.00,-1.00,+1.00,+0.00,-2.00,-3.00,+0.00,-2.00,+2.00,+2.00,+0.00,-1.00,-1.00,-2.00,-3.00
-6.00,+1.00,-3.00,-1.00,-1.00,+1.00,+0.00,+2.00,+1.00,-3.00,-3.00,-3.00,-1.00,-1.00,-2.00,-2.00
-1.00,+0.00,+0.00,-2.00,-2.00,-1.00,-1.00,+0.00,-1.00,+0.00,+0.00,-1.00,-1.00,-1.00,+0.00,+0.00
+4.00,+3.00,-1.00,+0.00,+0.00,+1.00,+1.00,+1.00,+0.00,+0.00,+1.00,-1.00,-1.00,-1.00,-1.00,-2.00
-3.00,-2.00,+1.00,-1.00,-2.00,+0.00,-2.00,+1.00,-1.00,-2.00,-3.00,-3.00,-1.00,+0.00,+1.00,-3.00
+0.00,+0.00,-1.00,+0.00,+0.00,-1.00,-3.00,-6.00,-2.00,+0.00,+0.00,+1.00,-2.00,+0.00,-2.00,+0.00
-1.00,-3.00,-3.00,-1.00,+0.00,+1.00,-1.00,-2.00,-1.00,-1.00,+0.00,+0.00,-1.00,-1.00,-2.00,-2.00
-4.00,+1.00,-3.00,-3.00,-1.00,-1.00,-1.00,-1.00,+0.00,-2.00,+0.00,-1.00,+0.00,-1.00,+0.00,+0.00
+5.00,-1.00,-2.00,+0.00,-1.00,+0.00,+0.00,-4.00,+0.00,-1.00,-1.00,-1.00,+0.00,-3.00,-1.00,+2.00
-4.00,+1.00,+3.00,+0.00,-2.00,-3.00,-3.00,-2.00,-1.00,-2.00,+0.00,+0.00,-2.00,-2.00,+1.00,-1.00
-2.00,+0.00,-1.00,+2.00,+0.00,+0.00,+0.00,+0.00,+0.00,-1.00,-2.00,-1.00,-1.00,-2.00,-2.00,-1.00
+0.00,-1.00,+0.00,-2.00,-1.00,-1.00,+0.00,+1.00,-1.00,-2.00,+0.00,+0.00,-2.00,-2.00,+0.00,-3.00
+0.00,-2.00,-1.00,-1.00,-1.00,+0.00,+0.00,+1.00,+0.00,-1.00,-1.00,-1.00,+0.00,-1.00,-4.00,-1.00
-1.00,-1.00,-2.00,-1.00,-1.00,-1.00,+0.00,-1.00,-1.00,-1.00,-2.00,-1.00,+0.00,+0.00,-2.00,-1.00
-6.00,-2.00,+0.00,+1.00,+0.00,-3.00,-1.00,+1.00,-2.00,-2.00,+3.00,-1.00,-1.00,-3.00,-1.00,-2.00
+0.00,+0.00,+2.00,+0.00,+0.00,-2.00,-1.00,-2.00,-1.00,-1.00,-4.00,-4.00,-1.00,-1.00,-1.00,-1.00
-4.00,+2.00,+2.00,+0.00,-3.00,-2.00,-2.00,-2.00,-1.00,-2.00,-3.00,-3.00,+0.00,+0.00,+0.00,-1.00
+4.00,-4.00,-3.00,-3.00,+0.00,+1.00,+0.00,+0.00,-1.00,-2.00,-1.00,-1.00,+0.00,-1.00,+0.00,+0.00
-1.00,-1.00,-3.00,-2.00,-1.00,-3.00,+0.00,-4.00,-2.00,-1.00,-2.00,-2.00,-2.00,-3.00,-2.00,-5.00
+1.00,-2.00,-2.00,+0.00,-1.00,-1.00,+1.00,-1.00,+0.00,-1.00,-1.00,+0.00,-1.00,-2.00,-2.00,+2.00
-4.00,-1.00,-2.00,-1.00,+0.00,-1.00,-1.00,+0.00,-2.00,-2.00,+0.00,+0.00,-1.00,-2.00,-1.00,-4.00
+3.00,-1.00,+0.00,+0.00,-1.00,+0.00,-1.00,+1.00,-1.00,+1.00,-3.00,-2.00,+0.00,-2.00,-2.00,-2.00
+0.00,+1.00,-1.00,+0.00,-1.00,+1.00,-1.00,-2.00,+3.00,-3.00,-3.00,-2.00,+0.00,+0.00,+2.00,+3.00
-2.00,-1.00,-2.00,-3.00,-1.00,+0.00,-1.00,+0.00,-2.00,-1.00,+1.00,-1.00,-1.00,+1.00,-1.00,+0.00
+3.00,-2.00,-1.00,-1.00,-1.00,-1.00,-1.00,+1.00,-2.00,+1.00,-1.00,+0.00,-3.00,-2.00,-2.00,-2.00
+6.00,+4.00,+1.00,-1.00,+1.00,+0.00,+0.00,-13.00,-1.00,+0.00,+0.00,+0.00,+0.00,-1.00,-1.00,+1.00
-2.00,-6.00,-3.00,-2.00,-3.00,-1.00,+0.00,+13.00,-2.00,-1.00,-4.00,-1.00,+0.00,-1.00,-2.00,-3.00
+0.00,+0.00,+1.00,+0.00,-2.00,+0.00,+0.00,-1.00,-1.00,-1.00,-1.00,-1.00,+0.00,-1.00,-2.00,-4.00
-2.00,-1.00,+0.00,+1.00,-1.00,+0.00,-1.00,-3.00,+1.00,-2.00,-2.00,-1.00,-1.00,+0.00,+0.00,+2.00
+2.00,+1.00,+0.00,+0.00,+0.00,-1.00,-2.00,-3.00,+0.00,-1.00,-2.00,-4.00,-1.00,-2.00,-1.00,+0.00
-1.00,-1.00,-2.00,-2.00,+0.00,-2.00,-2.00,-5.00,-2.00,-1.00,-1.00,-2.00,-2.00,-1.00,+0.00,-3.00
+2.00,+0.00,-2.00,+0.00,-1.00,-2.00,-2.00,-3.00,+0.00,-1.00,+3.00,+0.00,+0.00,+0.00,-2.00,-2.00
-5.00,-6.00,-4.00,+0.00,+1.00,+1.00,+0.00,+1.00,-4.00,-1.00,-4.00,-2.00,-2.00,-1.00,-2.00,-4.00
+3.00,-3.00,-3.00,-2.00,-2.00,-2.00,-1.00,+5.00,+1.00,-1.00,+1.00,+2.00,-1.00,+1.00,+0.00,-3.00
-4.00,-1.00,+0.00,-1.00,+0.00,+1.00,+0.00,-3.00,+0.00,+1.00,-4.00,+0.00,-3.00,+0.00,-2.00,+0.00
-7.00,+0.00,+1.00,+0.00,-1.00,+0.00,-1.00,-2.00,-2.00,-2.00,-1.00,-1.00,-2.00,-2.00,-2.00,-3.00
+1.00,-2.00,-1.00,-1.00,+0.00,+1.00,-1.00,-1.00,+0.00,+1.00,+1.00,+1.00,-1.00,-1.00,-2.00,-2.00
-2.00,-1.00,+0.00,-1.00,-2.00,+0.00,-1.00,+4.00,-2.00,-1.00,+0.00,-2.00,+1.00,-1.00,-2.00,-2.00
+3.00,+1.00,-1.00,-2.00,+0.00,-1.00,-1.00,-2.00,+0.00,-3.00,-1.00,+0.00,+0.00,+0.00,-3.00,-2.00
+2.00,-2.00,+0.00,+0.00,-1.00,-1.00,-1.00,-2.00,-4.00,+0.00,+0.00,-1.00,-1.00,+0.00,-2.00,-4.00
+3.00,+0.00,-1.00,-3.00,-1.00,-1.00,+1.00,+1.00,+1.00,+0.00,+0.00,-1.00,+0.00,-1.00,-1.00,+2.00
-5.00,+0.00,-1.00,+1.00,+0.00,-2.00,-2.00,+0.00,+1.00,-2.00,-1.00,+1.00,-1.00,-2.00,+0.00,+3.00
+2.00,+2.00,+0.00,-1.00,+1.00,-1.00,-1.00,-2.00,+0.00,-3.00,-1.00,-3.00,-1.00,-1.00,-1.00,-1.00
-3.00,-1.00,+2.00,+2.00,+1.00,-1.00,+0.00,-1.00,+0.00,-2.00,-3.00,+1.00,+1.00,+0.00,-1.00,-2.00
+2.00,+1.00,-3.00,-1.00,-2.00,-3.00,-1.00,+1.00,-2.00,-1.00,+1.00,-2.00,-1.00,-1.00,-1.00,-1.00
-1.00,-3.00,-3.00,-1.00,-2.00,+0.00,+1.00,+1.00,+0.00,-3.00,+0.00,-2.00,-1.00,-2.00,-2.00,-2.00
+0.00,+0.00,+0.00,-2.00,-2.00,+0.00,-1.00,-3.00,-5.00,-1.00,+0.00,-1.00,+0.00,-1.00,-2.00,-3.00
+0.00,+2.00,-2.00,-2.00,-3.00,+0.00,+0.00,+2.00,+1.00,-1.00,-2.00,-1.00,-1.00,+0.00,+1.00,+2.00
+5.00,+4.00,+2.00,+1.00,+1.00,-1.00,-1.00,+1.00,+0.00,-2.00,-2.00,-2.00,-3.00,-1.00,+0.00,+0.00
-4.00,-2.00,+0.00,+0.00,+0.00,-1.00,-1.00,-2.00,-1.00,+0.00,-2.00,-1.00,-1.00,+0.00,-2.00,-2.00
-4.00,-4.00,-2.00,+0.00,-1.00,+1.00,+0.00,-1.00,-1.00,-1.00,-1.00,+0.00,+0.00,-1.00,+1.00,+0.00
-6.00,+0.00,+1.00,-3.00,-1.00,+0.00,-2.00,-2.00,-1.00,+0.00,-5.00,-2.00,-2.00,-1.00,-1.00,+0.00
-4.00,-1.00,-2.00,-2.00,+1.00,-1.00,-1.00,-3.00,-1.00,-2.00,+2.00,+0.00,+1.00,-1.00,-3.00,-3.00
+1.00,-1.00,-4.00,-2.00,+0.00,-1.00,+1.00,+4.00,-3.00,+0.00,+0.00,-3.00,-3.00,+0.00,+0.00,-3.00
+0.00,+0.00,+1.00,-1.00,+0.00,+0.00,-1.00,+0.00,-1.00,-1.00,+0.00,+0.00,-1.00,-2.00,-3.00,-2.00
+1.00,-2.00,-3.00,-1.00,-1.00,-1.00,+0.00,+1.00,+0.00,-1.00,-1.00,-2.00,+0.00,+1.00,-1.00,-2.00
-5.00,-5.00,-2.00,-3.00,-3.00,-2.00,+0.00,-3.00,-3.00,-4.00,-3.00,-2.00,+0.00,-3.00,-1.00,-2.00
-5.00,-1.00,+0.00,+0.00,+0.00,-1.00,-2.00,-4.00,+2.00,-1.00,-3.00,-3.00,-1.00,+0.00,+1.00,+2.00
-2.00,-2.00,-1.00,+1.00,-1.00,+0.00,+0.00,-2.00,+0.00,+1.00,-2.00,-3.00,-1.00,-3.00,+0.00,+0.00
-2.00,-2.00,-2.00,-2.00,-2.00,-1.00,+0.00,-3.00,-2.00,-1.00,-1.00,-2.00,+0.00,-1.00,+0.00,-1.00
+3.00,+0.00,-3.00,-1.00,-1.00,+0.00,+0.00,+3.00,-1.00,-1.00,+0.00,-1.00,-2.00,+1.00,+1.00,+0.00
-5.00,-2.00,-1.00,-2.00,+0.00,-1.00,+0.00,-1.00,-4.00,-1.00,+1.00,+0.00,-1.00,-1.00,+1.00,-3.00
+2.00,-1.00,-1.00,-1.00,-1.00,-3.00,-1.00,+0.00,-1.00,+0.00,-3.00,+1.00,+0.00,+1.00,-2.00,+2.00
+1.00,-2.00,-3.00,+0.00,+0.00,+0.00,+0.00,+1.00,-2.00,-2.00,-1.00,-2.00,-2.00,-1.00,+0.00,+2.00
-1.00,-2.00,-1.00,-1.00,+0.00,-3.00,-2.00,-1.00,-2.00,+0.00,+0.00,+1.00,+1.00,-1.00,-2.00,-2.00
-4.00,+0.00,-1.00,-2.00,-1.00,+0.00,+0.00,-2.00,-1.00,-1.00,-1.00,+0.00,-2.00,-1.00,-2.00,+1.00
-5.00,+0.00,+0.00,+0.00,+1.00,-1.00,-2.00,-2.00,-1.00,-4.00,-1.00,-2.00,-2.00,-1.00,-1.00,-2.00
+2.00,+2.00,+2.00,+0.00,-1.00,+0.00,-2.00,-3.00,+0.00,-2.00,+1.00,+1.00,-1.00,-1.00,+0.00,-1.00
-5.00,-6.00,-2.00,-1.00,-1.00,+1.00,+0.00,+4.00,+0.00,-1.00,-3.00,-2.00,-1.00,-2.00,+0.00,-1.00
+6.00,-1.00,-1.00,+1.00,+1.00,-1.00,+0.00,+0.00,-1.00,-4.00,-3.00,+0.00,-2.00,+1.00,-2.00,-3.00
-2.00,-3.00,-1.00,+0.00,-3.00,+0.00,-1.00,-1.00,-1.00,+1.00,-1.00,-1.00,-1.00,-1.00,-1.00,-3.00
+1.00,-1.00,-3.00,-2.00,+0.00,-3.00,+0.00,+1.00,-1.00,-3.00,-2.00,-1.00,-1.00,-1.00,+0.00,-1.00
+2.00,+1.00,+1.00,+1.00,+0.00,-1.00,-1.00,-5.00,+1.00,-1.00,-1.00,-1.00,+0.00,+0.00,+1.00,+4.00
-2.00,+0.00,-1.00,+1.00,+0.00,+0.00,-3.00,-1.00,+1.00,+0.00,-1.00,+0.00,-1.00,-2.00,-1.00,+0.00
+4.00,+0.00,-2.00,-3.00,-2.00,+0.00,+0.00,+0.00,-4.00,-1.00,-3.00,-1.00,+1.00,-2.00,+0.00,+0.00
+1.00,+0.00,-2.00,-1.00,+0.00,+0.00,-1.00,+1.00,-4.00,-1.00,+1.00,-2.00,-2.00,-1.00,-2.00,-5.00
+0.00,+0.00,-1.00,-3.00,+0.00,+0.00,-1.00,-2.00,-1.00,-1.00,+0.00,-1.00,+0.00,+0.00,-1.00,+0.00
-3.00,+0.00,+0.00,-1.00,-1.00,-1.00,-1.00,-1.00,-2.00,-2.00,-1.00,-2.00,+0.00,-2.00,-3.00,-2.00
-2.00,-2.00,-2.00,-1.00,+1.00,-1.00,+0.00,+1.00,+0.00,-1.00,+0.00,+0.00,+0.00,+0.00,-1.00,-1.00
-1.00,-4.00,-1.00,+0.00,+0.00,-1.00,-1.00,-2.00,-1.00,+1.00,-2.00,+1.00,-3.00,-2.00,-2.00,-2.00
+5.00,+4.00,+0.00,-2.00,+0.00,+0.00,+0.00,+1.00,-4.00,-1.00,-3.00,-2.00,-1.00,-2.00,-3.00,-5.00
+0.00,-1.00,+0.00,+0.00,-2.00,-2.00,-1.00,+0.00,+0.00,-2.00,-1.00,-2.00,+0.00,+0.00,+1.00,+3.00
+2.00,+0.00,-3.00,-3.00,-2.00,+0.00,+1.00,-2.00,-2.00,-1.00,+1.00,-1.00,-2.00,-2.00,+0.00,-5.00
-3.00,-1.00,-1.00,+0.00,-1.00,-1.00,-2.00,-1.00,+0.00,-2.00,-2.00,-3.00,-1.00,-2.00,+0.00,+0.00
+4.00,-3.00,-2.00,-1.00,+0.00,+0.00,+1.00,+0.00,-1.00,+1.00,-1.00,-1.00,-1.00,-2.00,-1.00,-1.00
-11.00,+0.00,+2.00,+1.00,-2.00,-2.00,+2.00,+16.00,-3.00,-1.00,+0.00,+0.00,+0.00,-2.00,+0.00,-2.00
-1.00,+0.00,-2.00,-1.00,-1.00,-2.00,-1.00,+0.00,+1.00,-3.00,-1.00,-1.00,+0.00,-2.00,+0.00,+1.00
+2.00,-2.00,+1.00,+0.00,-1.00,-2.00,-1.00,-1.00,+0.00,-2.00,+0.00,-1.00,+0.00,+0.00,-1.00,-2.00
-3.00,-3.00,-1.00,+1.00,-2.00,-1.00,-2.00,+0.00,+0.00,-3.00,-2.00,-2.00,+0.00,+0.00,-1.00,-2.00
+8.00,+1.00,-3.00,-2.00,-2.00,-1.00,+0.00,-3.00,-2.00,+2.00,+0.00,-1.00,-2.00,-1.00,-2.00,-4.00
-2.00,+0.00,+1.00,+1.00,+1.00,+0.00,+0.00,-3.00,-3.00,-2.00,-1.00,-1.00,-1.00,-2.00,-2.00,-4.00
-2.00,+0.00,-3.00,-1.00,-1.00,+0.00,+0.00,-1.00,+0.00,-3.00,-4.00,-1.00,+0.00,+1.00,+1.00,+7.00
-2.00,+0.00,+2.00,+0.00,-1.00,-1.00,-2.00,-6.00,+0.00,+0.00,+0.00,-2.00,-1.00,+0.00,+0.00,+2.00
+0.00,-1.00,+0.00,-3.00,-1.00,-1.00,+0.00,-3.00,-1.00,-2.00,-1.00,-1.00,-1.00,-1.00,-3.00,-3.00
-2.00,-1.00,+0.00,+0.00,-1.00,-1.00,-2.00,-1.00,-2.00,+2.00,+0.00,-2.00,-1.00,-1.00,-2.00,-3.00
+0.00,-1.00,-1.00,-2.00,-1.00,+0.00,+0.00,-2.00,-2.00,-2.00,-2.00,-1.00,+0.00,+0.00,+0.00,-3.00
-2.00,+0.00,-2.00,+0.00,-1.00,-2.00,+0.00,+0.00,+1.00,-2.00,+1.00,+0.00,-2.00,-1.00,-2.00,+0.00
-1.00,-2.00,-1.00,-3.00,-1.00,+0.00,-2.00,-5.00,-2.00,-2.00,+1.00,-1.00,+0.00,+0.00,+0.00,+1.00
-1.00,-2.00,-5.00,+0.00,-2.00,-2.00,+1.00,+4.00,-2.00,-2.00,-5.00,+0.00,-2.00,+0.00,+0.00,-2.00
-2.00,-1.00,+3.00,-1.00,-1.00,+1.00,-1.00,-2.00,-1.00,+1.00,+0.00,+0.00,+0.00,-3.00,-3.00,+0.00
-6.00,+1.00,-1.00,-1.00,+0.00,-1.00,+0.00,+0.00,-1.00,-1.00,-1.00,-3.00,-1.00,-2.00,-1.00,-1.00
+2.00,-4.00,-1.00,-2.00,-2.00,-1.00,+2.00,-2.00,-1.00,+0.00,+0.00,-1.00,-1.00,-3.00,-2.00,-2.00
-8.00,-1.00,+0.00,+0.00,-1.00,-1.00,-1.00,+9.00,+1.00,+0.00,+0.00,-2.00,-1.00,-1.00,-1.00,+0.00
+0.00,+2.00,-1.00,-1.00,+1.00,+0.00,+1.00,+1.00,-1.00,+0.00,+2.00,+0.00,-2.00,-1.00,-2.00,+0.00
+2.00,-2.00,-1.00,-1.00,+0.00,+0.00,-1.00,+1.00,-2.00,-2.00,-2.00,-1.00,-3.00,-1.00,+0.00,-2.00
+1.00,-3.00,-2.00,+1.00,+0.00,-1.00,-3.00,+1.00,+2.00,-2.00,-3.00,-1.00,+0.00,+0.00,+1.00,+3.00
-2.00,+0.00,+0.00,-2.00,-1.00,+0.00,-2.00,-6.00,-2.00,+1.00,+0.00,+0.00,-1.00,-1.00,+0.00,+1.00
-1.00,-1.00,-1.00,-1.00,-1.00,-2.00,-2.00,-3.00,+0.00,-1.00,-3.00,-2.00,-2.00,-3.00,-1.00,+0.00
+0.00,-1.00,+1.00,-1.00,-2.00,+0.00,+1.00,+2.00,-2.00,-2.00,-1.00,-1.00,+0.00,+0.00,-1.00,-3.00
+0.00,+1.00,-2.00,+0.00,-1.00,-1.00,-2.00,-3.00,+1.00,-2.00,-3.00,-2.00,-2.00,+0.00,+1.00,+2.00
+1.00,-1.00,-2.00,-1.00,+0.00,+0.00,-1.00,-3.00,+1.00,+0.00,-1.00,-2.00,-1.00,-1.00,+0.00,-2.00
-3.00,+0.00,+0.00,+0.00,+0.00,-2.00,+0.00,+0.00,-2.00,-1.00,+0.00,-1.00,-1.00,-1.00,-2.00,-3.00
+2.00,-2.00,-2.00,-1.00,-2.00,-1.00,-3.00,-4.00,-1.00,+0.00,-1.00,-1.00,-2.00,-3.00,-1.00,+1.00
+1.00,+0.00,+0.00,+0.00,+0.00,-2.00,+0.00,+0.00,-2.00,-2.00,-1.00,+0.00,+0.00,+0.00,-1.00,-2.00
-1.00,-2.00,+0.00,+1.00,-2.00,-1.00,+0.00,-3.00,+0.00,+0.00,+0.00,+0.00,-1.00,-1.00,+0.00,-1.00
-1.00,-3.00,-2.00,-2.00,-3.00,+0.00,-1.00,+0.00,+0.00,-1.00,-2.00,-1.00,+0.00,-2.00,-3.00,-1.00
-3.00,-4.00,-2.00,-2.00,-1.00,-3.00,+0.00,-1.00,-1.00,-2.00,+0.00,-1.00,-2.00,-1.00,-1.00,-3.00
-4.00,-4.00,-4.00,-1.00,+0.00,-1.00,+0.00,-2.00,-2.00,+1.00,+0.00,-2.00,-1.00,+0.00,-1.00,-1.00
+3.00,-1.00,+0.00,+0.00,-2.00,-1.00,-1.00,+0.00,-1.00,-1.00,+0.00,-1.00,+0.00,-1.00,-1.00,+1.00
+2.00,+3.00,+0.00,+0.00,-1.00,-1.00,+0.00,-2.00,-3.00,-1.00,+0.00,-3.00,+1.00,-1.00,-1.00,-2.00
-2.00,+0.00,-1.00,-3.00,-2.00,-1.00,-2.00,-3.00,+1.00,+1.00,-2.00,+0.00,-1.00,-1.00,-1.00,-1.00
+1.00,+0.00,-2.00,-3.00,-3.00,-2.00,-1.00,+0.00,-3.00,+2.00,-1.00,+0.00,-1.00,-1.00,-1.00,-1.00
-1.00,+0.00,-2.00,-2.00,+2.00,-2.00,-1.00,-3.00,-1.00,-4.00,+0.00,-2.00,+1.00,-1.00,-1.00,-2.00
+4.00,-1.00,-1.00,-2.00,+0.00,-1.00,+0.00,+2.00,+1.00,-3.00,-2.00,-2.00,-1.00,+0.00,-1.00,+2.00
+0.00,+2.00,+1.00,+0.00,-1.00,+0.00,-1.00,-2.00,-1.00,-3.00,-3.00,-2.00,-1.00,-2.00,-3.00,-1.00
-2.00,+0.00,-1.00,+0.00,+1.00,+2.00,-2.00,-1.00,-3.00,-1.00,-3.00,-2.00,-2.00,-3.00,-1.00,-4.00
+0.00,-3.00,-3.00,+0.00,-2.00,+1.00,-2.00,+1.00,+1.00,-2.00,+0.00,+0.00,+0.00,-2.00,-2.00,+0.00
-3.00,-1.00,-2.00,+0.00,-1.00,-1.00,-2.00,-1.00,+0.00,+0.00,+0.00,-1.00,+0.00,+1.00,+0.00,-1.00
-3.00,+2.00,+3.00,+1.00,+2.00,+1.00,+1.00,-18.00,-2.00,-1.00,+2.00,+1.00,-3.00,-1.00,-2.00,+0.00
-4.00,-2.00,-3.00,-2.00,-2.00,-3.00,-2.00,+0.00,-3.00,-2.00,-2.00,-2.00,-2.00,-2.00,-3.00,-3.00
+0.00,+2.00,+1.00,+0.00,+0.00,+0.00,+0.00,-2.00,-2.00,+0.00,+0.00,+1.00,-1.00,+0.00,-1.00,-1.00
-4.00,-1.00,+1.00,-1.00,+0.00,+0.00,-1.00,+0.00,-1.00,-1.00,-2.00,+0.00,+0.00,-2.00,+0.00,-2.00
+2.00,-1.00,+0.00,-2.00,-1.00,-1.00,+0.00,+0.00,-2.00,+0.00,-1.00,+0.00,+0.00,-1.00,-1.00,-3.00
+0.00,-3.00,-2.00,-1.00,+0.00,+0.00,-1.00,-3.00,-1.00,-1.00,-2.00,+0.00,-2.00,-2.00,-2.00,+0.00
+1.00,+1.00,-2.00,-2.00,+0.00,+1.00,+1.00,-1.00,+0.00,-1.00,-1.00,+1.00,-1.00,-2.00,-1.00,-1.00
+3.00,+0.00,+0.00,+1.00,-1.00,-1.00,-3.00,-4.00,-1.00,+0.00,+0.00,-2.00,-1.00,-2.00,-3.00,-1.00
+0.00,-4.00,-4.00,-1.00,-1.00,+1.00,+0.00,+4.00,+0.00,+0.00,+0.00,-1.00,+1.00,+0.00,+1.00,+3.00
+1.00,+1.00,+3.00,+0.00,-1.00,+0.00,+0.00,+0.00,+3.00,-3.00,-3.00,-1.00,-1.00,-1.00,-1.00,+2.00
+2.00,+0.00,-4.00,-2.00,-1.00,-1.00,-1.00,+3.00,+0.00,+0.00,-2.00,-2.00,+1.00,+2.00,-3.00,+1.00
-5.00,-2.00,-1.00,+0.00,-1.00,-1.00,-2.00,+0.00,-3.00,-1.00,-2.00,-1.00,-1.00,+0.00,+0.00,-4.00
+0.00,-4.00,-2.00,+0.00,-1.00,-1.00,+0.00,+4.00,-2.00,-2.00,-2.00,-1.00,+0.00,-1.00,+1.00,+0.00
-1.00,+5.00,+0.00,+1.00,+0.00,-1.00,+0.00,-1.00,-1.00,+0.00,+1.00,-2.00,+1.00,+0.00,-2.00,-3.00
-2.00,+1.00,+1.00,-1.00,+0.00,-2.00,-1.00,-4.00,-1.00,-2.00,+0.00,-2.00,-3.00,-2.00,-1.00,+0.00
-1.00,-3.00,-3.00,-1.00,+0.00,+0.00,-2.00,+0.00,-1.00,-1.00,-4.00,+0.00,-1.00,+0.00,-1.00,-1.00
-1.00,+2.00,-1.00,-3.00,-1.00,+0.00,-1.00,+1.00,-2.00,-1.00,-1.00,-2.00,-2.00,-1.00,+0.00,+0.00
-2.00,-4.00,-3.00,-1.00,-2.00,-2.00,-2.00,-3.00,-2.00,-2.00,-2.00,+0.00,-1.00,+1.00,+1.00,+0.00
-2.00,+1.00,+1.00,-1.00,-3.00,-1.00,+0.00,-2.00,-3.00,-1.00,+0.00,-1.00,-1.00,-1.00,-2.00,-6.00
-3.00,-1.00,-1.00,+0.00,+0.00,+0.00,+0.00,+0.00,+2.00,-2.00,+1.00,+1.00,+0.00,-2.00,+0.00,+2.00
+2.00,+1.00,-3.00,+0.00,-1.00,-1.00,-2.00,+1.00,+0.00,+0.00,-2.00,+0.00,+0.00,-2.00,-1.00,-2.00
-2.00,-1.00,-2.00,+1.00,+0.00,-1.00,-1.00,-1.00,-2.00,-2.00,-1.00,+0.00,-1.00,+0.00,-2.00,-2.00
-2.00,-5.00,-1.00,-1.00,-2.00,+0.00,-1.00,-2.00,+0.00,-1.00,-1.00,-3.00,-2.00,-1.00,-1.00,+1.00
+8.00,-1.00,-1.00,-1.00,+0.00,+0.00,-1.00,-14.00,-2.00,-2.00,+1.00,+0.00,-3.00,-1.00,-1.00,-3.00
-4.00,+0.00,+2.00,+0.00,-1.00,-2.00,-3.00,+5.00,+2.00,+2.00,-3.00,-3.00,-2.00,+0.00,-1.00,+3.00
-1.00,+1.00,-1.00,+0.00,-1.00,-1.00,+0.00,+0.00,-1.00,-2.00,+1.00,+1.00,-1.00,-3.00,-1.00,+0.00
-5.00,+0.00,-1.00,-1.00,-1.00,+0.00,-2.00,-1.00,-1.00,-1.00,+0.00,+0.00,-2.00,+0.00,-2.00,-1.00
+1.00,+1.00,+0.00,+0.00,-1.00,-1.00,-1.00,-3.00,-4.00,-1.00,-1.00,+0.00,-2.00,+0.00,-2.00,-2.00
-6.00,-1.00,+1.00,-1.00,-1.00,-1.00,-1.00,-4.00,-2.00,-2.00,+0.00,+1.00,-2.00,-2.00,-3.00,-4.00
+1.00,+2.00,+1.00,+0.00,+0.00,+0.00,+0.00,-3.00,-1.00,-2.00,-1.00,-2.00,-1.00,-2.00,-1.00,-1.00
+3.00,-1.00,-1.00,-3.00,-1.00,-1.00,-1.00,+0.00,-1.00,-1.00,-1.00,-1.00,+0.00,-3.00,+1.00,-1.00
-5.00,-3.00,-2.00,+1.00,-1.00,-1.00,-2.00,+2.00,-1.00,+0.00,-2.00,+0.00,-2.00,-1.00,-1.00,-1.00
+1.00,-1.00,-2.00,-2.00,-1.00,+0.00,+0.00,+2.00,-1.00,-2.00,+0.00,+0.00,+1.00,-2.00,+0.00,-1.00
-4.00,-2.00,-3.00,-3.00,+0.00,+1.00,-2.00,+4.00,-1.00,-1.00,+0.00,-2.00,-3.00,-2.00,+0.00,-2.00
+0.00,-3.00,+0.00,+1.00,-1.00,-2.00,-2.00,-3.00,+0.00,+0.00,-4.00,-2.00,-1.00,-1.00,-2.00,+0.00
-1.00,-2.00,+0.00,-2.00,-1.00,-3.00,+0.00,+5.00,+0.00,+0.00,+0.00,-2.00,+1.00,-1.00,-1.00,+1.00
+1.00,+3.00,+0.00,+0.00,-1.00,-2.00,-2.00,-2.00,-2.00,-1.00,+1.00,-1.00,+0.00,+0.00,-1.00,-2.00
-3.00,-5.00,-4.00,-1.00,+0.00,-3.00,-2.00,-5.00,+0.00,-1.00,-2.00,-1.00,-1.00,+2.00,-1.00,-3.00
+0.00,+0.00,-2.00,-1.00,-2.00,-1.00,+1.00,+0.00,+0.00,-1.00,-2.00,-1.00,+0.00,+0.00,+0.00,-2.00
-4.00,-2.00,-1.00,-1.00,-1.00,-1.00,+0.00,+3.00,+1.00,-1.00,-2.00,-2.00,-2.00,+0.00,+3.00,+3.00
+2.00,-4.00,-3.00,+0.00,+0.00,+0.00,+1.00,+2.00,-2.00,-1.00,-1.00,-1.00,-1.00,-1.00,-2.00,-2.00
-2.00,-1.00,+0.00,-1.00,-1.00,-1.00,-1.00,-3.00,-2.00,-3.00,+0.00,+0.00,+0.00,-1.00,+0.00,-2.00
-2.00,-1.00,-1.00,-2.00,+0.00,+0.00,-1.00,-2.00,-2.00,+1.00,-1.00,-1.00,+0.00,+1.00,+0.00,+2.00
-4.00,-2.00,-1.00,-1.00,-2.00,-1.00,-3.00,+0.00,+0.00,-1.00,+0.00,+0.00,-2.00,-1.00,-2.00,-2.00
+2.00,+0.00,-3.00,-1.00,+0.00,-2.00,-1.00,-4.00,-1.00,-1.00,-2.00,-1.00,-3.00,+0.00,-2.00,-1.00
-10.00,-6.00,-2.00,-1.00,-2.00,-1.00,-1.00,+18.00,+1.00,+0.00,-2.00,-2.00,-1.00,-1.00,-1.00,+2.00
-7.00,-3.00,-3.00,-2.00,-1.00,-3.00,-1.00,-1.00,-3.00,-4.00,-2.00,-3.00,-1.00,-2.00,+0.00,-2.00
+9.00,+5.00,+0.00,+1.00,-1.00,+0.00,+1.00,+1.00,-2.00,+0.00,-1.00,-2.00,-1.00,-2.00,-2.00,-1.00
+1.00,+0.00,+2.00,-2.00,-2.00,-1.00,-1.00,-1.00,-1.00,-1.00,+0.00,-1.00,-2.00,+0.00,-1.00,+1.00
+3.00,+4.00,+3.00,-1.00,-1.00,-2.00,+0.00,-6.00,-1.00,+0.00,-2.00,-1.00,-2.00,-1.00,-2.00,+0.00
+1.00,+3.00,+0.00,+1.00,+0.00,-2.00,-2.00,-2.00,-1.00,-1.00,-1.00,+0.00,-3.00,-2.00,-1.00,-1.00
-4.00,-4.00,-1.00,-1.00,-1.00,+0.00,+2.00,+4.00,-2.00,-1.00,-1.00,-2.00,+0.00,-1.00,+0.00,-2.00
-6.00,-1.00,+0.00,-1.00,-1.00,-1.00,-3.00,-3.00,+2.00,-3.00,-1.00,-1.00,+0.00,-3.00,+0.00,+1.00
+3.00,+1.00,-3.00,-2.00,-2.00,-1.00,+0.00,+0.00,-2.00,-3.00,+2.00,-1.00,+0.00,-1.00,-1.00,-2.00
+6.00,+0.00,-1.00,-1.00,+0.00,+1.00,-1.00,+2.00,-2.00,+0.00,+0.00,+0.00,-3.00,-1.00,+0.00,+0.00
-2.00,+0.00,-1.00,-1.00,-2.00,-1.00,-2.00,-6.00,-2.00,+0.00,+0.00,-1.00,-2.00,-1.00,-2.00,-3.00
-3.00,+4.00,+0.00,+1.00,-1.00,+1.00,+0.00,-1.00,-3.00,+1.00,-1.00,+0.00,-1.00,-2.00,-2.00,+0.00
-3.00,-3.00,-1.00,-1.00,+0.00,-2.00,+0.00,-5.00,-3.00,-2.00,+1.00,-1.00,-1.00,-1.00,-1.00,-2.00
+3.00,-1.00,+0.00,-2.00,-3.00,-1.00,+0.00,+0.00,+1.00,+0.00,-1.00,+0.00,+0.00,+0.00,-1.00,+1.00
-1.00,-3.00,-3.00,-2.00,-2.00,-1.00,-2.00,+1.00,-2.00,-3.00,+1.00,-1.00,-1.00,+0.00,-1.00,-1.00
-3.00,+0.00,+1.00,-1.00,-2.00,+0.00,+1.00,-1.00,-4.00,+0.00,-2.00,+0.00,-2.00,+1.00,-3.00,-6.00
+3.00,+2.00,+0.00,+0.00,-1.00,-1.00,-2.00,-1.00,+2.00,-1.00,-4.00,-3.00,+0.00,-3.00,-1.00,+1.00
-7.00,-2.00,+0.00,-1.00,+0.00,-1.00,-1.00,-3.00,-1.00,-1.00,-2.00,+0.00,+0.00,-1.00,+0.00,+0.00
-3.00,+0.00,+1.00,-2.00,-2.00,-2.00,-1.00,-1.00,-1.00,-1.00,+0.00,+1.00,-1.00,-1.00,-3.00,+0.00
-1.00,-3.00,-3.00,-1.00,-3.00,+0.00,+0.00,+2.00,-1.00,+0.00,-1.00,-2.00,-1.00,-1.00,+0.00,+0.00
+0.00,+1.00,+1.00,-2.00,+0.00,+0.00,-3.00,-6.00,-2.00,+1.00,-1.00,+0.00,-1.00,-1.00,-1.00,-3.00
-4.00,-2.00,+0.00,+2.00,-1.00,+0.00,-3.00,+0.00,+1.00,-2.00,+0.00,-1.00,-1.00,+0.00,-2.00,+0.00
+0.00,-2.00,-1.00,-2.00,+1.00,-2.00,-2.00,+1.00,-1.00,+0.00,-3.00,-1.00,+0.00,+0.00,-1.00,+0.00
+1.00,-1.00,-3.00,+0.00,-1.00,-1.00,-1.00,-6.00,+1.00,+0.00,-1.00,-2.00,-1.00,-2.00,-1.00,+4.00
-6.00,-6.00,-4.00,-2.00,-1.00,-1.00,+1.00,+18.00,+2.00,-1.00,-2.00,-1.00,-2.00,-1.00,-1.00,+1.00
+3.00,-2.00,-1.00,-2.00,+0.00,-1.00,-1.00,+2.00,-3.00,-2.00,-1.00,-2.00,+0.00,-1.00,-2.00,-3.00
+0.00,+0.00,+1.00,+0.00,+0.00,+0.00,-3.00,-2.00,-3.00,-2.00,+0.00,+1.00,-3.00,+0.00,-1.00,-3.00
+1.00,-4.00,-4.00,-2.00,-1.00,-2.00,+0.00,+0.00,-3.00,-4.00,-1.00,+0.00,-2.00,-1.00,-1.00,-1.00
+5.00,+0.00,+1.00,+2.00,-1.00,+0.00,-1.00,-8.00,-2.00,+1.00,-1.00,-1.00,-2.00,-1.00,+0.00,-1.00
-3.00,+0.00,-1.00,-2.00,-1.00,-3.00,-1.00,-4.00,-2.00,+0.00,-2.00,-2.00,-1.00,-2.00,-1.00,-2.00
-7.00,+0.00,-2.00,-1.00,-2.00,-1.00,-1.00,+0.00,+0.00,-2.00,-3.00,-2.00,-2.00,+0.00,+1.00,+0.00
+4.00,+2.00,+1.00,+0.00,+0.00,-2.00,-2.00,+2.00,-1.00,-3.00,-1.00,-2.00,-1.00,-1.00,+0.00,-2.00
+2.00,+0.00,+1.00,+1.00,-1.00,+0.00,+0.00,-3.00,-2.00,+0.00,+1.00,+0.00,-1.00,+0.00,+0.00,-2.00
+0.00,+1.00,+1.00,+1.00,+0.00,+1.00,-2.00,+1.00,-1.00,-2.00,-1.00,-2.00,-2.00,-1.00,-1.00,+0.00
-2.00,-2.00,-1.00,-2.00,-2.00,+1.00,+0.00,-4.00,+0.00,-1.00,+0.00,-1.00,+1.00,-1.00,-1.00,-2.00
+3.00,+4.00,+1.00,+0.00,+1.00,+0.00,+0.00,+1.00,+1.00,+1.00,-1.00,-1.00,+0.00,+0.00,-1.00,-2.00
-1.00,+0.00,+0.00,-3.00,-2.00,-1.00,+0.00,-1.00,+2.00,-1.00,-1.00,-2.00,+1.00,+1.00,+0.00,+5.00
+3.00,-3.00,-1.00,-1.00,+1.00,-2.00,+0.00,+0.00,-3.00,-2.00,+1.00,+0.00,-2.00,+0.00,-3.00,-5.00
+1.00,+1.00,-1.00,+0.00,-1.00,-2.00,+0.00,-1.00,+0.00,-4.00,-5.00,-2.00,+0.00,+0.00,-1.00,+1.00
-5.00,-4.00,+1.00,+0.00,+0.00,-1.00,-2.00,-2.00,-1.00,-2.00,+0.00,-1.00,-2.00,-2.00,+0.00,-3.00
+1.00,-2.00,+0.00,-2.00,-2.00,-1.00,-1.00,-2.00,-1.00,-1.00,-1.00,+0.00,-2.00,-2.00,-2.00,-1.00
+1.00,+0.00,-2.00,-3.00,-3.00,-1.00,-1.00,+0.00,-1.00,-2.00,-3.00,-1.00,-1.00,-2.00,+0.00,+1.00
-1.00,+2.00,+1.00,+0.00,+0.00,-1.00,-1.00,+1.00,+1.00,+0.00,-1.00,+0.00,-2.00,-1.00,-1.00,+1.00
+2.00,-1.00,-2.00,-1.00,+0.00,-1.00,-2.00,-7.00,-3.00,-1.00,-2.00,+0.00,-1.00,-1.00,-1.00,-6.00
-7.00,-4.00,-3.00,-1.00,-1.00,-1.00,-2.00,+12.00,-2.00,-1.00,-1.00,-1.00,-2.00,-2.00,-1.00,-2.00
-4.00,+0.00,+1.00,-1.00,-1.00,-1.00,-1.00,-1.00,-1.00,+0.00,+0.00,+0.00,+0.00,-1.00,-2.00,-2.00
-2.00,+2.00,-1.00,-1.00,-1.00,-1.00,+0.00,-1.00,-1.00,-1.00,+0.00,-1.00,-2.00,-2.00,-1.00,-2.00
+2.00,-1.00,-1.00,+0.00,-2.00,+1.00,-2.00,-1.00,+0.00,-1.00,-2.00,+0.00,-1.00,-1.00,+1.00,+2.00
+1.00,-1.00,+1.00,+0.00,+2.00,+0.00,-1.00,-9.00,-3.00,-1.00,+1.00,-2.00,+1.00,+0.00,-1.00,-2.00
+4.00,+0.00,+0.00,+1.00,-1.00,-2.00,-2.00,-2.00,+0.00,+0.00,-2.00,-1.00,-1.00,-2.00,-2.00,-1.00
+0.00,-3.00,-2.00,-2.00,-1.00,-1.00,+0.00,+4.00,-2.00,+0.00,-2.00,-2.00,+0.00,-1.00,-1.00,+0.00
-4.00,+0.00,+1.00,-1.00,-1.00,-1.00,-2.00,+0.00,+1.00,+1.00,-2.00,+0.00,+1.00,+0.00,+0.00,-1.00
-2.00,-1.00,+0.00,-1.00,-1.00,-2.00,-1.00,-6.00,+4.00,-2.00,-5.00,-2.00,-2.00,-1.00,-1.00,+3.00
-1.00,+1.00,-2.00,+1.00,-2.00,-1.00,-1.00,+1.00,+1.00,-3.00,-1.00,+1.00,-1.00,-1.00,+0.00,+1.00
+2.00,+0.00,+1.00,+1.00,-1.00,-1.00,-1.00,-6.00,-1.00,+0.00,-1.00,-2.00,+0.00,-2.00,-1.00,-3.00
-2.00,-3.00,-3.00,-3.00,-2.00,-1.00,+1.00,+3.00,-2.00,-2.00,-2.00,-2.00,-2.00,-2.00,-1.00,+0.00
+0.00,+3.00,+1.00,+0.00,-1.00,-1.00,-2.00,-3.00,-1.00,-2.00,-1.00,+0.00,-1.00,-2.00,-1.00,-4.00
-2.00,-1.00,-1.00,+0.00,-1.00,-1.00,-1.00,-3.00,-2.00,+1.00,-2.00,-2.00,-1.00,+0.00,+0.00,+0.00
+0.00,+0.00,-2.00,-1.00,+0.00,+1.00,+1.00,+1.00,-1.00,-1.00,+1.00,-1.00,-2.00,-2.00,-1.00,-2.00
-1.00,-2.00,-1.00,+0.00,+0.00,+0.00,-2.00,+0.00,-2.00,-2.00,-2.00,-2.00,-2.00,-1.00,+1.00,+1.00
-1.00,+1.00,-1.00,-2.00,-1.00,+1.00,+1.00,-3.00,-2.00,+0.00,+1.00,+1.00,-3.00,-1.00,-2.00,-1.00
+0.00,-2.00,-1.00,-1.00,-1.00,-1.00,+0.00,+0.00,-2.00,-1.00,+0.00,-1.00,-3.00,+0.00,+0.00,-1.00
-1.00,-2.00,-2.00,-3.00,+0.00,+0.00,+0.00,+1.00,+0.00,+0.00,-1.00,-1.00,+1.00,+0.00,-1.00,+0.00
-10.00,-5.00,-2.00,-1.00,-1.00,-2.00,+0.00,-1.00,+0.00,-1.00,+1.00,+0.00,-2.00,-1.00,-1.00,-3.00
+2.00,+3.00,+2.00,+1.00,+0.00,+0.00,-1.00,-5.00,-1.00,+0.00,-2.00,+0.00,+0.00,+1.00,-1.00,-2.00
-7.00,-4.00,-3.00,-2.00,-2.00,+0.00,+0.00,-1.00,-2.00,-2.00,+1.00,-2.00,+0.00,-2.00,-2.00,-2.00
-5.00,-2.00,-2.00,-1.00,-1.00,-1.00,+0.00,+9.00,+2.00,-3.00,-4.00,-2.00,-1.00,-2.00,+1.00,+4.00
-3.00,-1.00,+0.00,-1.00,-2.00,-1.00,-1.00,-1.00,+0.00,-1.00,-1.00,-3.00,-1.00,-2.00,-2.00,+0.00
-1.00,-4.00,-3.00,-2.00,+0.00,-2.00,-2.00,-3.00,-3.00,+0.00,-3.00,+0.00,-1.00,+0.00,+0.00,-4.00
+1.00,-1.00,+0.00,-1.00,+0.00,+2.00,+0.00,+4.00,+2.00,-1.00,-4.00,-4.00,+0.00,+0.00,+0.00,+3.00
+1.00,-3.00,-3.00,-1.00,-2.00,+0.00,-2.00,-4.00,-2.00,-1.00,+2.00,+3.00,+0.00,-1.00,-1.00,-3.00
-2.00,-3.00,-1.00,+0.00,+0.00,-2.00,+0.00,-1.00,+0.00,-1.00,-3.00,-1.00,-1.00,-1.00,+0.00,+0.00
+1.00,+2.00,-1.00,+1.00,-1.00,-1.00,-1.00,+0.00,-3.00,-2.00,-1.00,-1.00,-1.00,-2.00,+0.00,-3.00
+2.00,-3.00,-1.00,+0.00,+0.00,+0.00,-2.00,-3.00,-2.00,-3.00,+0.00,+0.00,+0.00,-2.00,-1.00,-1.00
-1.00,-1.00,+1.00,+0.00,+0.00,-1.00,-2.00,-4.00,-1.00,-2.00,+1.00,-1.00,-2.00,-2.00,-2.00,-4.00
+0.00,+0.00,-1.00,-1.00,+0.00,+0.00,-2.00,-1.00,-3.00,-2.00,+1.00,-1.00,+0.00,+0.00,-2.00,-3.00
-1.00,-2.00,-1.00,-1.00,-2.00,-1.00,-1.00,-3.00,-1.00,-1.00,+1.00,-1.00,-1.00,+0.00,-2.00,+0.00
-4.00,+0.00,-1.00,-2.00,-1.00,-3.00,-1.00,-1.00,-3.00,+0.00,+2.00,+1.00,-2.00,-1.00,+0.00,-6.00
+5.00,+1.00,-2.00,-2.00,-2.00,+0.00,-2.00,-1.00,+2.00,-1.00,-2.00,-2.00,-3.00,-1.00,-1.00,+1.00
-1.00,+1.00,-1.00,-1.00,-2.00,-1.00,-1.00,+1.00,-3.00,-1.00,+1.00,+0.00,+0.00,-1.00,-1.00,-3.00
+0.00,-1.00,-2.00,-4.00,-1.00,-2.00,+0.00,+1.00,-1.00,+0.00,+0.00,-1.00,+1.00,-2.00,-1.00,+0.00
+2.00,+0.00,-2.00,+0.00,-2.00,+1.00,+0.00,+1.00,-2.00,+1.00,+2.00,+0.00,-2.00,-1.00,-1.00,-2.00
+0.00,-2.00,+0.00,+1.00,+0.00,-2.00,-1.00,-1.00,-1.00,+1.00,+1.00,+0.00,-2.00,-1.00,-1.00,-1.00
+0.00,+3.00,-1.00,-1.00,+0.00,-3.00,-1.00,-3.00,-2.00,-1.00,-1.00,-3.00,-1.00,+0.00,+0.00,+0.00
-4.00,-2.00,-2.00,-1.00,-2.00,-1.00,-1.00,+0.00,-2.00,-3.00,-1.00,-3.00,-1.00,-2.00,-1.00,-1.00
-1.00,+1.00,-1.00,-1.00,+0.00,-2.00,-1.00,-1.00,-2.00,-2.00,-4.00,-3.00,-3.00,-1.00,-1.00,+0.00
+0.00,+1.00,-3.00,-4.00,-1.00,-1.00,+0.00,-1.00,-3.00,+0.00,-1.00,-1.00,-2.00,-1.00,+0.00,+0.00
-10.00,-4.00,-2.00,-1.00,+0.00,-2.00,+0.00,+17.00,+0.00,-3.00,-1.00,+0.00,-1.00,-1.00,-1.00,-1.00
-3.00,-3.00,-2.00,+0.00,-1.00,+0.00,+1.00,+0.00,-2.00,+0.00,-1.00,+0.00,+0.00,-1.00,-1.00,-2.00
-6.00,-2.00,+0.00,-1.00,+0.00,-1.00,-2.00,-3.00,+0.00,-1.00,-3.00,-3.00,+0.00,-1.00,+0.00,+0.00
-4.00,+0.00,+4.00,-1.00,+0.00,-1.00,-2.00,-3.00,-2.00,-1.00,-3.00,+0.00,-1.00,-1.00,-3.00,-2.00
+3.00,+0.00,-2.00,-2.00,-1.00,+0.00,-1.00,-7.00,-1.00,-1.00,-2.00,-1.00,-3.00,-1.00,-1.00,+2.00
+0.00,+0.00,-1.00,+0.00,+0.00,+0.00,-1.00,-1.00,+3.00,-2.00,-2.00,-2.00,+0.00,+0.00,+2.00,+4.00
-3.00,+0.00,-1.00,+1.00,+1.00,+0.00,-2.00,-1.00,+1.00,-2.00,-5.00,+0.00,+0.00,-1.00,+1.00,+3.00
+2.00,-2.00,-4.00,-1.00,-2.00,+0.00,+0.00,-1.00,-2.00,-2.00,-2.00,-1.00,+0.00,-1.00,-1.00,+0.00
+2.00,-1.00,+1.00,-2.00,-2.00,-2.00,+0.00,-2.00,+1.00,+0.00,-2.00,+0.00,-2.00,-2.00,+0.00,+0.00
+0.00,-1.00,+1.00,+0.00,-1.00,+0.00,-1.00,-1.00,-2.00,+1.00,-1.00,+0.00,-2.00,-1.00,-2.00,-3.00
-1.00,-1.00,-3.00,-2.00,+0.00,+0.00,-1.00,-4.00,-3.00,-1.00,+0.00,-1.00,-2.00,+0.00,-3.00,-3.00
-1.00,-2.00,-1.00,+1.00,+0.00,-2.00,+0.00,-1.00,-1.00,-3.00,+0.00,+0.00,-1.00,-1.00,-2.00,-3.00
+0.00,-1.00,+0.00,+0.00,-1.00,+0.00,-1.00,-2.00,-2.00,+0.00,+0.00,+0.00,+1.00,-1.00,-2.00,-1.00
-5.00,-1.00,+0.00,-2.00,+0.00,-1.00,-2.00,-1.00,-3.00,-1.00,-2.00,+1.00,-1.00,-1.00,+0.00,-1.00
-1.00,-1.00,-1.00,+1.00,-2.00,-1.00,-1.00,-1.00,+0.00,-2.00,-1.00,-2.00,+0.00,-2.00,-1.00,-2.00
+0.00,-2.00,-3.00,+0.00,+0.00,+0.00,-2.00,+0.00,-3.00,-2.00,-1.00,-1.00,-1.00,-1.00,+0.00,-1.00
-3.00,-2.00,+0.00,-1.00,+1.00,+0.00,-3.00,-4.00,+0.00,-1.00,-3.00,-2.00,-1.00,-1.00,-1.00,-1.00
-1.00,-1.00,+0.00,+0.00,-1.00,+0.00,-1.00,-3.00,-4.00,-4.00,-1.00,-3.00,-2.00,+0.00,+0.00,-4.00
-1.00,-5.00,-2.00,-1.00,+0.00,-1.00,+0.00,+0.00,-2.00,+0.00,+1.00,-2.00,+0.00,-1.00,-3.00,-3.00
-1.00,+1.00,-1.00,-2.00,-1.00,-1.00,+2.00,+0.00,+0.00,-1.00,-1.00,-2.00,+1.00,-1.00,+0.00,+0.00
-1.00,+0.00,-2.00,-1.00,-2.00,-1.00,+0.00,-4.00,+1.00,-1.00,-3.00,-1.00,-1.00,-1.00,+1.00,+2.00
-1.00,+0.00,-1.00,+1.00,+0.00,-2.00,-3.00,-1.00,-2.00,-1.00,+2.00,+0.00,-2.00,-1.00,-1.00,-2.00
+1.00,+1.00,-2.00,-2.00,-1.00,-1.00,+1.00,+3.00,-1.00,-1.00,-2.00,+0.00,-1.00,-2.00,+0.00,-1.00
-2.00,-2.00,+1.00,-1.00,-1.00,-2.00,-1.00,+0.00,-2.00,-1.00,-1.00,+1.00,+0.00,+0.00,-1.00,-2.00
+0.00,+0.00,+1.00,-2.00,+0.00,-1.00,-1.00,+2.00,-2.00,+0.00,+3.00,-1.00,+0.00,-1.00,-3.00,-5.00
+1.00,+0.00,-1.00,-1.00,+0.00,-1.00,-1.00,-5.00,+0.00,+1.00,-1.00,-1.00,-1.00,-1.00,-1.00,+0.00
+0.00,+0.00,+2.00,-1.00,-1.00,+0.00,-1.00,-1.00,-1.00,-2.00,+0.00,-2.00,-2.00,-2.00,-1.00,-1.00
-1.00,-2.00,-1.00,+0.00,-1.00,+0.00,+1.00,+1.00,-2.00,+2.00,-1.00,-1.00,-3.00,-1.00,-1.00,-3.00
+3.00,-1.00,-2.00,+0.00,-1.00,+0.00,+0.00,-2.00,-3.00,-1.00,-2.00,-1.00,-1.00,-2.00,+1.00,-1.00
-1.00,+0.00,-1.00,-2.00,+0.00,+0.00,+0.00,-1.00,-1.00,+0.00,-1.00,-1.00,+0.00,-1.00,-2.00,-2.00
-4.00,+1.00,+0.00,-2.00,+0.00,+0.00,-2.00,-2.00,-1.00,-2.00,+0.00,-1.00,-1.00,-2.00,-1.00,-2.00
+3.00,-3.00,+0.00,-1.00,-1.00,-2.00,-2.00,-1.00,-1.00,-2.00,-1.00,-1.00,+0.00,-3.00,+0.00,+0.00
+2.00,-3.00,-1.00,-1.00,+0.00,-3.00,+0.00,+1.00,+0.00,-1.00,-1.00,+0.00,-1.00,+0.00,+0.00,-2.00
+0.00,+1.00,-2.00,-3.00,-3.00,-1.00,-2.00,+0.00,+1.00,-1.00,-2.00,-2.00,-2.00,+0.00,+0.00,+1.00
-2.00,-4.00,-2.00,+0.00,-2.00,-1.00,+1.00,+2.00,-2.00,-1.00,-2.00,+0.00,-2.00,-1.00,-1.00,-3.00
-2.00,+1.00,+1.00,-1.00,-1.00,+0.00,-2.00,-3.00,+2.00,+0.00,+0.00,-1.00,-1.00,-1.00,+0.00,+1.00
+0.00,-4.00,-4.00,+0.00,-1.00,-1.00,+1.00,+0.00,+1.00,-1.00,-1.00,+0.00,+0.00,-2.00,-1.00,+0.00
-2.00,-1.00,+0.00,+1.00,-2.00,-1.00,+0.00,-1.00,-1.00,-2.00,-1.00,+1.00,-2.00,-1.00,-3.00,-2.00
-3.00,+0.00,-1.00,-1.00,-3.00,-2.00,+0.00,-2.00,-3.00,-2.00,-1.00,-2.00,-3.00,-1.00,-2.00,-3.00
+2.00,-1.00,+1.00,-2.00,+0.00,+0.00,-1.00,+0.00,-1.00,-1.00,-1.00,+0.00,-1.00,-1.00,-1.00,+1.00
-2.00,-1.00,-2.00,+0.00,+0.00,+0.00,-1.00,-4.00,-2.00,-2.00,-2.00,-3.00,+0.00,-2.00,-2.00,-2.00
+0.00,+1.00,+1.00,+0.00,+0.00,+0.00,-1.00,-7.00,-1.00,-1.00,-1.00,-3.00,+0.00,+1.00,+0.00,-1.00
+0.00,-2.00,+0.00,+0.00,-1.00,-1.00,-2.00,-1.00,-1.00,-2.00,-2.00,+0.00,-1.00,-1.00,-1.00,-1.00
-3.00,-1.00,-5.00,-2.00,-1.00,-1.00,-1.00,+0.00,+0.00,-1.00,-3.00,+0.00,+0.00,-1.00,-2.00,-1.00
-1.00,+3.00,+0.00,-1.00,-3.00,-2.00,+0.00,+4.00,+2.00,+0.00,-2.00,-1.00,-1.00,-1.00,+0.00,+2.00
+2.00,-2.00,-2.00,+0.00,-1.00,-1.00,-1.00,-1.00,-2.00,+0.00,-1.00,+1.00,+0.00,-1.00,+0.00,-2.00
+1.00,-2.00,-1.00,-1.00,-1.00,-2.00,-2.00,-3.00,-1.00,-1.00,-1.00,-2.00,+0.00,+0.00,-1.00,+0.00
+0.00,+0.00,-2.00,-1.00,-1.00,+1.00,+0.00,-2.00,-2.00,+0.00,-1.00,-3.00,+0.00,-1.00,+0.00,-2.00
+1.00,+0.00,+0.00,-2.00,-3.00,-1.00,-1.00,-4.00,-2.00,-3.00,+0.00,+1.00,-1.00,+0.00,-2.00,-1.00
-3.00,-2.00,-2.00,-2.00,+0.00,-1.00,-1.00,+0.00,+0.00,-3.00,-3.00,-3.00,-1.00,-1.00,-2.00,+0.00
+3.00,-1.00,+0.00,-1.00,+1.00,-1.00,+0.00,+2.00,+1.00,-1.00,-1.00,-1.00,-1.00,+0.00,-1.00,-1.00
-1.00,-1.00,+0.00,+0.00,-1.00,-4.00,-1.00,-2.00,-1.00,-1.00,-2.00,-1.00,-1.00,-1.00,+0.00,-1.00
+3.00,+0.00,-1.00,+1.00,-2.00,+1.00,-1.00,-1.00,-2.00,+1.00,-2.00,-1.00,-3.00,-2.00,-3.00,-4.00
-3.00,-2.00,+1.00,+0.00,-1.00,-2.00,-2.00,-1.00,-3.00,+1.00,+0.00,-1.00,-1.00,-2.00,-3.00,-3.00
-1.00,+2.00,+1.00,+0.00,+0.00,+0.00,-2.00,+1.00,-1.00,-1.00,-1.00,-3.00,+0.00,-2.00,+0.00,-1.00
-2.00,+3.00,+2.00,+1.00,-1.00,+0.00,-2.00,-4.00,-1.00,-2.00,-2.00,-3.00,-1.00,-1.00,-1.00,-2.00
+2.00,-5.00,-4.00,-2.00,+0.00,-1.00,-1.00,+2.00,-4.00,-2.00,+0.00,-1.00,-2.00,+0.00,-1.00,-4.00
+3.00,+1.00,+1.00,-2.00,-2.00,-1.00,+0.00,+1.00,-1.00,+0.00,-3.00,+0.00,-1.00,-2.00,+1.00,+0.00
+0.00,+2.00,-1.00,-2.00,-2.00,-3.00,+1.00,-5.00,-1.00,-1.00,-1.00,+0.00,-1.00,+1.00,-2.00,-3.00
+0.00,+1.00,-2.00,-1.00,-4.00,-1.00,-1.00,-1.00,+0.00,-2.00,+0.00,-1.00,+2.00,+1.00,+0.00,+0.00
-5.00,-2.00,-1.00,+2.00,+2.00,-1.00,-3.00,-3.00,-2.00,-1.00,+2.00,+1.00,-2.00,-1.00,-1.00,-1.00
+4.00,+0.00,-2.00,-2.00,-1.00,-1.00,-1.00,+0.00,-1.00,-3.00,-1.00,-1.00,+1.00,+0.00,-2.00,+0.00
-7.00,-4.00,-4.00,-3.00,-2.00,-1.00,+0.00,+19.00,-2.00,-2.00,-1.00,-2.00,-3.00,-1.00,+1.00,-2.00
-2.00,-2.00,-3.00,-1.00,-2.00,-1.00,+1.00,+0.00,-1.00,+0.00,+1.00,+0.00,+0.00,-2.00,-2.00,-2.00
+3.00,-1.00,+0.00,-1.00,-1.00,+0.00,+1.00,+2.00,+2.00,+0.00,-1.00,-1.00,+0.00,+0.00,+0.00,+2.00
+6.00,-1.00,-2.00,+1.00,+0.00,+0.00,-1.00,+1.00,+1.00,-2.00,-1.00,+0.00,-1.00,-2.00,+0.00,-2.00
-3.00,+2.00,+1.00,-1.00,-2.00,+1.00,+1.00,-9.00,-2.00,-1.00,+0.00,-1.00,-1.00,-2.00,-1.00,-2.00
-3.00,-1.00,-2.00,-2.00,-1.00,-1.00,-1.00,-3.00,-1.00,+1.00,-3.00,-3.00,-1.00,-2.00,-3.00,-2.00
-7.00,-2.00,-1.00,+0.00,-1.00,-1.00,-1.00,-1.00,-1.00,-1.00,-4.00,-3.00,+0.00,-1.00,+0.00,-1.00
-3.00,-3.00,-2.00,-1.00,+1.00,+1.00,+0.00,+1.00,+1.00,-1.00,-1.00,-2.00,-1.00,-1.00,-2.00,+0.00
+3.00,-1.00,-1.00,+0.00,+0.00,-2.00,+0.00,-3.00,-2.00,-4.00,-3.00,-2.00,-1.00,-3.00,-1.00,-1.00
+1.00,-2.00,-2.00,-1.00,+0.00,+1.00,+0.00,+2.00,-4.00,-1.00,+2.00,-2.00,-4.00,-1.00,-1.00,-3.00
-1.00,-1.00,+0.00,-4.00,+0.00,+0.00,-2.00,-4.00,-1.00,+0.00,-1.00,-2.00,+0.00,-1.00,-2.00,+0.00
+1.00,+1.00,+0.00,-1.00,-2.00,-2.00,+0.00,+1.00,-1.00,-1.00,-1.00,+2.00,+0.00,-1.00,-1.00,-1.00
-2.00,-2.00,-1.00,-1.00,+0.00,-1.00,-2.00,-3.00,+1.00,+0.00,+0.00,+1.00,+1.00,-1.00,+0.00,+2.00
-2.00,+1.00,+1.00,+0.00,+0.00,+0.00,-1.00,+1.00,-1.00,-2.00,-1.00,+1.00,-2.00,-1.00,+0.00,-2.00
+0.00,+1.00,-1.00,+0.00,-1.00,+0.00,+0.00,-1.00,-2.00,+0.00,+1.00,-2.00,+0.00,-2.00,-2.00,-2.00
-7.00,-2.00,-2.00,-2.00,-2.00,-1.00,+0.00,-2.00,-2.00,-1.00,-2.00,-1.00,-3.00,-1.00,+1.00,-1.00
+0.00,-3.00,-5.00,+0.00,-1.00,-1.00,-1.00,-1.00,+1.00,+2.00,+0.00,-1.00,+0.00,-1.00,+0.00,+0.00
+2.00,+0.00,+1.00,-1.00,+0.00,-2.00,-1.00,+1.00,+1.00,-1.00,-2.00,+0.00,+1.00,-1.00,+0.00,+1.00
-3.00,+0.00,+0.00,-1.00,+0.00,-1.00,-1.00,-2.00,-1.00,+1.00,+2.00,+0.00,-1.00,-1.00,-1.00,-3.00
-2.00,-2.00,-3.00,-2.00,-3.00,+0.00,+1.00,-1.00,+0.00,-2.00,-4.00,-3.00,-1.00,-2.00,+0.00,-1.00
+2.00,+2.00,+1.00,-1.00,-1.00,-2.00,-3.00,-2.00,-2.00,-1.00,-1.00,-1.00,-1.00,-1.00,+0.00,-3.00
-5.00,-6.00,-2.00,+1.00,-1.00,-1.00,-3.00,-3.00,+0.00,-2.00,-3.00,-2.00,-2.00,-1.00,+0.00,-3.00
+1.00,+4.00,+0.00,-2.00,+0.00,+0.00,-1.00,-17.00,-2.00,-2.00,-1.00,+0.00,-1.00,+1.00,-1.00,+0.00
-2.00,-2.00,+0.00,+0.00,+0.00,-2.00,-4.00,+2.00,+0.00,+0.00,+1.00,-1.00,-1.00,-2.00,-2.00,+0.00
-2.00,+0.00,-1.00,+0.00,-2.00,-1.00,-2.00,+0.00,-2.00,+0.00,+0.00,+1.00,-1.00,-1.00,-1.00,-2.00
+1.00,-1.00,-1.00,-1.00,-1.00,-1.00,-2.00,+0.00,+0.00,+0.00,-1.00,-2.00,-1.00,-2.00,-2.00,+0.00
-5.00,-2.00,+1.00,-1.00,-3.00,-2.00,+0.00,-3.00,-3.00,-1.00,-3.00,-2.00,-1.00,-2.00,-1.00,-1.00
-1.00,+1.00,-3.00,-1.00,-2.00,+0.00,-1.00,-1.00,-1.00,-4.00,-2.00,+0.00,+0.00,+0.00,-1.00,+1.00
-1.00,-2.00,+1.00,-1.00,+0.00,-1.00,-1.00,-3.00,+1.00,+0.00,+0.00,+1.00,-1.00,-1.00,-2.00,+1.00
+0.00,+0.00,+1.00,-2.00,+0.00,-1.00,+0.00,-3.00,-1.00,+0.00,-2.00,-2.00,-2.00,-1.00,-2.00,+0.00
-1.00,-5.00,-2.00,-1.00,-1.00,-2.00,-2.00,+2.00,+0.00,-2.00,-4.00,-3.00,-1.00,+0.00,+0.00,+1.00
-6.00,+0.00,+1.00,-1.00,-2.00,-2.00,+1.00,+0.00,-2.00,+1.00,-2.00,-1.00,-1.00,-2.00,+0.00,-2.00
-4.00,-2.00,+0.00,-1.00,-1.00,+0.00,-1.00,-1.00,+2.00,-2.00,-3.00,+0.00,-2.00,+0.00,+0.00,+1.00
-5.00,-3.00,-3.00,-2.00,-2.00,+0.00,+0.00,+0.00,-2.00,-2.00,+3.00,-1.00,-1.00,-1.00,-1.00,+1.00
+0.00,+0.00,+0.00,+0.00,-1.00,+0.00,-2.00,+2.00,-1.00,-3.00,+0.00,+1.00,-1.00,+0.00,+0.00,-2.00
-2.00,-1.00,-2.00,+0.00,+0.00,+0.00,-2.00,+0.00,-1.00,+0.00,-1.00,-2.00,-1.00,+0.00,+0.00,-1.00
+9.00,+3.00,+0.00,+0.00,-1.00,-2.00,-1.00,+1.00,-2.00,+0.00,+1.00,-1.00,+0.00,-2.00,-2.00,-4.00
-1.00,-1.00,+1.00,+2.00,+1.00,+1.00,-1.00,-3.00,+1.00,+0.00,-4.00,-1.00,-1.00,+0.00,+1.00,+3.00
-2.00,-2.00,-3.00,-1.00,-1.00,-1.00,+1.00,+4.00,+0.00,-3.00,-2.00,-2.00,-1.00,-1.00,+0.00,+0.00
+0.00,-5.00,-1.00,-3.00,-1.00,-2.00,-2.00,+1.00,-2.00,-1.00,-1.00,-1.00,-3.00,-1.00,-1.00,+2.00
-2.00,+1.00,+1.00,-2.00,+0.00,-1.00,-1.00,-4.00,+1.00,+1.00,-2.00,-2.00,-2.00,+0.00,-1.00,+0.00
+3.00,+0.00,-4.00,-1.00,-2.00,-1.00,+1.00,+4.00,-1.00,-2.00,-1.00,+0.00,+0.00,-1.00,-2.00,-2.00
+2.00,-1.00,+0.00,-1.00,+0.00,+0.00,+0.00,+3.00,-2.00,-2.00,+1.00,+0.00,-1.00,-3.00,-1.00,-4.00
+1.00,+4.00,+1.00,-1.00,-1.00,-1.00,-1.00,-14.00,-1.00,+0.00,-1.00,+0.00,+0.00,-1.00,-1.00,-1.00
-6.00,-4.00,-2.00,-1.00,-1.00,+4.00,+1.00,-1.00,+0.00,-3.00,-1.00,+0.00,-2.00,-2.00,+0.00,+2.00
-2.00,+1.00,+2.00,+0.00,-1.00,-1.00,-2.00,-2.00,-3.00,-3.00,-1.00,+0.00,-3.00,-1.00,-1.00,-3.00
+1.00,+1.00,+2.00,-1.00,-1.00,-1.00,+0.00,+2.00,+0.00,+0.00,+0.00,+1.00,-1.00,-1.00,-1.00,+2.00
+4.00,+0.00,+0.00,+1.00,-1.00,-1.00,+0.00,-2.00,-2.00,-3.00,-2.00,-1.00,+0.00,-2.00,-1.00,-1.00
-4.00,-2.00,+0.00,-1.00,+0.00,-1.00,-2.00,-3.00,-3.00,-1.00,+0.00,-2.00,-1.00,-2.00,-2.00,-1.00
+5.00,+2.00,+1.00,-1.00,-2.00,-1.00,-1.00,+0.00,-2.00,+0.00,-1.00,+0.00,-3.00,-2.00,-2.00,-3.00
-3.00,+1.00,-1.00,-3.00,-2.00,-2.00,-2.00,-6.00,+1.00,-1.00,-3.00,-2.00,+0.00,+1.00,+0.00,+2.00
-3.00,-2.00,+0.00,-1.00,-1.00,-3.00,-2.00,+1.00,+2.00,-3.00,-1.00,-4.00,-2.00,+0.00,+0.00,+0.00
-5.00,-3.00,-2.00,+0.00,-1.00,+0.00,+0.00,+0.00,-2.00,-1.00,-2.00,-1.00,-1.00,-2.00,-1.00,+1.00
+1.00,+0.00,-3.00,-2.00,+0.00,+1.00,+0.00,+3.00,-2.00,-2.00,-1.00,-1.00,-1.00,+2.00,-1.00,-2.00
-5.00,-2.00,-2.00,+1.00,-1.00,-2.00,-2.00,-1.00,+2.00,-4.00,-1.00,+1.00,-1.00,-2.00,-2.00,-1.00
+3.00,-2.00,-2.00,-1.00,-2.00,+0.00,+0.00,+3.00,-1.00,+1.00,-1.00,-2.00,-1.00,-1.00,-1.00,-3.00
+1.00,-2.00,-3.00,-3.00,-1.00,-1.00,+0.00,+0.00,+0.00,-2.00,+1.00,+1.00,-1.00,+0.00,+0.00,+1.00
-8.00,-5.00,-1.00,-1.00,-2.00,-2.00,-2.00,-4.00,+0.00,+1.00,+2.00,+0.00,-1.00,-2.00,-1.00,+1.00
-1.00,-1.00,-1.00,+0.00,-1.00,-1.00,+1.00,+1.00,-2.00,+1.00,-2.00,-1.00,-2.00,+1.00,-1.00,-2.00
-3.00,-3.00,-2.00,+0.00,+0.00,+0.00,-1.00,-1.00,-1.00,+0.00,+1.00,+0.00,-1.00,-2.00,-1.00,-1.00
+1.00,+2.00,+1.00,-2.00,+0.00,+0.00,+1.00,-1.00,-2.00,-3.00,+0.00,+0.00,-1.00,+0.00,-3.00,-4.00
+2.00,-3.00,-2.00,+0.00,+0.00,+0.00,-1.00,-2.00,-3.00,-2.00,-4.00,+0.00,-1.00,+0.00,+0.00,-1.00
+4.00,-1.00,-2.00,-1.00,+1.00,+1.00,+1.00,+0.00,-2.00,-2.00,-2.00,-2.00,+0.00,+0.00,+0.00,-1.00
-11.00,-3.00,-2.00,-2.00,-1.00,-4.00,-1.00,+17.00,+2.00,-4.00,-2.00,-2.00,-1.00,+1.00,-2.00,+3.00
-1.00,+5.00,+0.00,+0.00,-2.00,-2.00,-2.00,-2.00,-3.00,+0.00,-1.00,-2.00,-1.00,-1.00,-2.00,-1.00
-2.00,-2.00,+0.00,-2.00,-1.00,-1.00,+0.00,+0.00,+0.00,-1.00,+1.00,-2.00,+0.00,-2.00,-2.00,-1.00
-9.00,-2.00,+0.00,-1.00,-1.00,-1.00,+0.00,-1.00,-1.00,-2.00,-2.00,+0.00,-3.00,-1.00,+0.00,-2.00
+5.00,+3.00,-1.00,-2.00,-1.00,+0.00,-2.00,-5.00,-2.00,-1.00,+0.00,-1.00,+0.00,-2.00,+0.00,-3.00
-1.00,-3.00,+0.00,+2.00,-1.00,+0.00,+1.00,-1.00,-3.00,-2.00,-1.00,+1.00,+0.00,-1.00,-2.00,-4.00
-2.00,+3.00,+0.00,+1.00,+0.00,-1.00,-3.00,+1.00,-2.00,-3.00,-2.00,-1.00,+0.00,+0.00,+2.00,+3.00
+3.00,-4.00,-2.00,+0.00,-1.00,+1.00,-1.00,-3.00,-1.00,-1.00,+0.00,-1.00,-1.00,-3.00,-2.00,+0.00
-2.00,-3.00,-2.00,-1.00,-2.00,-1.00,-2.00,-3.00,-4.00,-1.00,+1.00,-1.00,-1.00,-1.00,-2.00,-3.00
+0.00,-1.00,-1.00,-2.00,+0.00,-3.00,-1.00,-2.00,+1.00,-1.00,-2.00,-3.00,-1.00,+0.00,+1.00,+5.00
+3.00,+0.00,+0.00,+0.00,-1.00,+0.00,+0.00,-2.00,-2.00,+2.00,+1.00,+1.00,+0.00,-2.00,+0.00,-1.00
+3.00,+0.00,-1.00,-2.00,-1.00,-2.00,+0.00,+3.00,-2.00,+1.00,-1.00,-1.00,+1.00,-1.00,-4.00,-4.00
-1.00,-2.00,-1.00,+0.00,+1.00,-1.00,-1.00,-2.00,-2.00,-1.00,+1.00,+1.00,-2.00,-2.00,-1.00,-3.00
-1.00,-2.00,-3.00,+0.00,+0.00,+0.00,-3.00,+2.00,-2.00,-3.00,+0.00,-1.00,+0.00,-1.00,+0.00,-2.00
+0.00,-1.00,-1.00,-3.00,-1.00,+0.00,+0.00,+0.00,-1.00,-1.00,-1.00,-3.00,-2.00,-2.00,-2.00,-2.00
-5.00,+1.00,+0.00,-1.00,+0.00,-2.00,-2.00,-2.00,-1.00,+1.00,-1.00,-1.00,-1.00,-1.00,-1.00,+1.00
-1.00,+0.00,-1.00,+0.00,-1.00,-1.00,+1.00,-1.00,+1.00,+1.00,-2.00,+1.00,-1.00,-1.00,-2.00,-1.00
+1.00,-2.00,-2.00,+0.00,-2.00,+0.00,-3.00,-1.00,-1.00,-1.00,+0.00,+0.00,+0.00,+1.00,-2.00,-2.00
-2.00,-2.00,-1.00,-1.00,-2.00,-2.00,-1.00,+0.00,-1.00,-2.00,-1.00,-3.00,-1.00,-1.00,-2.00,-2.00
+3.00,-1.00,+0.00,+0.00,-1.00,-3.00,+0.00,+0.00,-2.00,-2.00,+0.00,+0.00,-1.00,-2.00,+1.00,+0.00
-10.00,+4.00,+5.00,-4.00,-2.00,+1.00,-1.00,-6.00,+0.00,-2.00,+0.00,-1.00,+0.00,-1.00,-1.00,-2.00
-2.00,-3.00,+0.00,-2.00,+0.00,+0.00,+0.00,-3.00,-1.00,+0.00,-2.00,-2.00,-1.00,-2.00,-1.00,+0.00
+0.00,+3.00,+0.00,+0.00,-1.00,-1.00,-1.00,-3.00,-1.00,-3.00,-2.00,-1.00,-1.00,-1.00,+0.00,-1.00
-10.00,-6.00,-6.00,-3.00,-5.00,+0.00,+0.00,+20.00,-2.00,-2.00,+0.00,-1.00,+0.00,-1.00,-1.00,-1.00
+4.00,-4.00,-4.00,-1.00,-2.00,-2.00,+0.00,+0.00,-2.00,-3.00,-2.00,-1.00,-1.00,+0.00,+3.00,-1.00
-3.00,-4.00,-1.00,-1.00,+0.00,-1.00,+1.00,-1.00,-3.00,-1.00,-1.00,+0.00,-1.00,+0.00,+0.00,-2.00
-7.00,-4.00,-1.00,+0.00,+0.00,-1.00,-2.00,-2.00,+8.00,+0.00,-7.00,-2.00,-1.00,+0.00,+2.00,+11.00
+7.00,+3.00,-2.00,+0.00,+0.00,-1.00,+1.00,-6.00,-2.00,-1.00,-1.00,-2.00,-1.00,-2.00,-2.00,-4.00
-4.00,+1.00,-3.00,-1.00,+0.00,+0.00,-2.00,-4.00,-1.00,+0.00,+0.00,-1.00,+0.00,-1.00,+1.00,+0.00
-1.00,+1.00,+0.00,-2.00,-1.00,-1.00,-1.00,+1.00,-3.00,-2.00,-1.00,-3.00,-2.00,-1.00,+2.00,+0.00
+2.00,-2.00,-1.00,-1.00,+0.00,-2.00,-1.00,-3.00,-5.00,-2.00,+2.00,+0.00,-1.00,-3.00,-3.00,-7.00
+2.00,-3.00,-1.00,-2.00,+0.00,+0.00,-1.00,-3.00,+0.00,-2.00,-4.00,-3.00,-1.00,+0.00,+1.00,+3.00
-3.00,+3.00,+2.00,+1.00,-1.00,+0.00,+0.00,-2.00,+1.00,-1.00,-4.00,+0.00,-1.00,+0.00,+0.00,-1.00
+3.00,+0.00,-4.00,-3.00,-2.00,-1.00,+2.00,+1.00,-3.00,-1.00,-1.00,-2.00,-2.00,+0.00,-1.00,-5.00
-1.00,-1.00,-1.00,+1.00,+1.00,+0.00,-1.00,-1.00,+3.00,+0.00,-1.00,-2.00,-1.00,+1.00,-1.00,+4.00
+3.00,+2.00,+1.00,+0.00,-1.00,-1.00,-1.00,-2.00,-1.00,+0.00,+0.00,-2.00,+0.00,-1.00,-2.00,+0.00
-1.00,-3.00,-2.00,+0.00,-1.00,+0.00,-2.00,+2.00,-3.00,+1.00,-1.00,+1.00,-1.00,-1.00,-4.00,-4.00
-4.00,-2.00,+0.00,+1.00,-1.00,-1.00,-2.00,-2.00,-2.00,+1.00,+0.00,-1.00,+0.00,-1.00,-2.00,-3.00
-1.00,-1.00,-3.00,+0.00,-2.00,-1.00,+0.00,-1.00,-1.00,-2.00,-3.00,+0.00,+0.00,+0.00,-1.00,-3.00
-4.00,+0.00,+0.00,-1.00,+0.00,+0.00,-2.00,-3.00,-2.00,-3.00,-2.00,-3.00,-2.00,+1.00,+0.00,-1.00
+5.00,+1.00,-1.00,-1.00,+0.00,+0.00,+0.00,-1.00,+1.00,-3.00,-2.00,-2.00,+1.00,-2.00,-3.00,+0.00
-1.00,-1.00,-1.00,+1.00,+0.00,-2.00,-1.00,-1.00,-1.00,-1.00,+1.00,+0.00,+0.00,+0.00,-1.00,-1.00
+0.00,-3.00,-3.00,-4.00,-3.00,+0.00,+0.00,+2.00,-2.00,-2.00,-1.00,-1.00,+0.00,-2.00,-1.00,-2.00
+1.00,+1.00,+0.00,-1.00,-1.00,+0.00,-2.00,-2.00,-2.00,-1.00,+0.00,+0.00,-1.00,+0.00,-3.00,-3.00
-2.00,-1.00,+0.00,-1.00,+0.00,+0.00,+0.00,+0.00,-1.00,-1.00,+0.00,-2.00,-1.00,+0.00,+1.00,-2.00
-4.00,-4.00,-2.00,+0.00,-1.00,-2.00,-1.00,-2.00,+0.00,-1.00,-1.00,-1.00,-2.00,-2.00,-2.00,-2.00
-3.00,-1.00,-1.00,-2.00,-2.00,-2.00,-1.00,-1.00,-2.00,-1.00,-1.00,-1.00,-1.00,+0.00,+0.00,+0.00
+2.00,-3.00,+0.00,-1.00,-1.00,+1.00,+0.00,+0.00,-2.00,+0.00,-1.00,+1.00,-1.00,-1.00,-2.00,-2.00
-5.00,-2.00,+0.00,-2.00,+0.00,+0.00,-2.00,-1.00,-2.00,-2.00,-3.00,-2.00,-1.00,-1.00,-2.00,-2.00
+3.00,+1.00,+1.00,-2.00,-3.00,+0.00,-1.00,+1.00,+0.00,-2.00,-1.00,-2.00,+0.00,-1.00,-1.00,+0.00
-1.00,-1.00,+0.00,-2.00,+0.00,+0.00,+0.00,-2.00,-2.00,+1.00,-1.00,-1.00,-1.00,+0.00,-3.00,-3.00
-3.00,-1.00,-2.00,-1.00,+0.00,-3.00,-1.00,-3.00,+1.00,-2.00,-3.00,-1.00,-2.00,-2.00,+1.00,+2.00
+4.00,-4.00,-3.00,-1.00,+0.00,-1.00,+1.00,+1.00,+1.00,-2.00,+1.00,+0.00,-1.00,+0.00,+0.00,+2.00
+3.00,+4.00,-2.00,-2.00,-2.00,-1.00,+0.00,+0.00,-1.00,-1.00,+0.00,+0.00,-2.00,-1.00,-2.00,-3.00
-11.00,-5.00,-1.00,+0.00,-2.00,-1.00,+1.00,+18.00,+2.00,-3.00,-1.00,-2.00,-1.00,-2.00,+0.00,+1.00
-5.00,-3.00,+2.00,-1.00,-3.00,-1.00,-1.00,-2.00,+0.00,+0.00,+0.00,-1.00,-2.00,-1.00,-1.00,-2.00
+4.00,+0.00,-1.00,-1.00,-2.00,-1.00,+0.00,+0.00,-2.00,+0.00,-1.00,-1.00,+0.00,-1.00,-2.00,-2.00
+0.00,+0.00,-1.00,-1.00,+0.00,+0.00,-2.00,-1.00,-1.00,-2.00,+1.00,-1.00,-1.00,-1.00,-1.00,-2.00
+2.00,+2.00,+1.00,+1.00,+0.00,-1.00,+0.00,-8.00,-3.00,-1.00,-1.00,-1.00,-1.00,-1.00,-1.00,-4.00
+1.00,+4.00,-2.00,+1.00,-1.00,-1.00,-3.00,-1.00,+0.00,-1.00,-1.00,+0.00,-1.00,+0.00,+0.00,+1.00
-4.00,-1.00,-1.00,-1.00,-1.00,-1.00,-1.00,-1.00,-4.00,-3.00,-1.00,+0.00,-1.00,+0.00,+0.00,-2.00
-3.00,-3.00,-1.00,+0.00,+0.00,+0.00,-1.00,-4.00,+1.00,+0.00,-4.00,-1.00,-1.00,+0.00,+1.00,+2.00
+0.00,-4.00,-2.00,-1.00,+0.00,-1.00,-1.00,-4.00,-3.00,-3.00,+1.00,+0.00,-1.00,-1.00,-1.00,-3.00
-1.00,-2.00,-1.00,-1.00,+0.00,-1.00,-1.00,-1.00,+0.00,-1.00,-1.00,-1.00,+1.00,-2.00,+0.00,+0.00
-1.00,+0.00,-3.00,-2.00,-1.00,-1.00,-2.00,-5.00,-3.00,+0.00,+1.00,+2.00,-1.00,-2.00,-3.00,-7.00
+3.00,+4.00,+1.00,-1.00,-1.00,+0.00,+0.00,+1.00,-2.00,+0.00,-3.00,+0.00,-2.00,-2.00,+0.00,+1.00
+5.00,+4.00,+0.00,-1.00,-2.00,+1.00,-1.00,-3.00,+0.00,-1.00,-1.00,-1.00,-1.00,-3.00,-1.00,-1.00
-1.00,-1.00,-2.00,-2.00,-2.00,-3.00,+2.00,+1.00,-1.00,-1.00,+0.00,-2.00,-3.00,-1.00,-2.00,-1.00
+1.00,-2.00,-2.00,-1.00,-1.00,-3.00,+0.00,+1.00,+0.00,+0.00,+0.00,-3.00,-1.00,-1.00,-1.00,+0.00
-7.00,+0.00,+0.00,+0.00,+0.00,+0.00,+0.00,-1.00,+1.00,-2.00,-2.00,-2.00,-2.00,+1.00,-2.00,+2.00
-1.00,+1.00,-1.00,+0.00,-1.00,-2.00,-3.00,-1.00,-2.00,+1.00,-2.00,+0.00,-1.00,+0.00,-2.00,-2.00
-1.00,+0.00,+0.00,-1.00,-1.00,-1.00,-1.00,-1.00,+1.00,-3.00,+0.00,+1.00,-1.00,-3.00,+1.00,+1.00
+0.00,+1.00,+2.00,+1.00,+1.00,-1.00,-2.00,-3.00,+0.00,+0.00,-1.00,-1.00,-1.00,-2.00,+0.00,+3.00
-1.00,-7.00,-4.00,-5.00,-2.00,-2.00,+0.00,+1.00,-1.00,-3.00,-2.00,-2.00,+0.00,-1.00,-2.00,-1.00
+4.00,-1.00,-1.00,-1.00,-1.00,-2.00,+1.00,+1.00,-2.00,+0.00,+1.00,-1.00,+0.00,-1.00,-2.00,-3.00
-1.00,-1.00,+0.00,-2.00,-1.00,-1.00,-2.00,-2.00,+0.00,-1.00,-2.00,-2.00,-1.00,+0.00,-2.00,+0.00
+2.00,-2.00,+2.00,+2.00,+1.00,-1.00,+1.00,+0.00,+1.00,-2.00,+1.00,-2.00,-2.00,+0.00,+0.00,+2.00
+1.00,-1.00,-1.00,+0.00,+0.00,+1.00,-2.00,-1.00,-1.00,-1.00,-1.00,-1.00,-1.00,-1.00,-2.00,+0.00
-4.00,+0.00,-1.00,-3.00,-1.00,+0.00,-2.00,-5.00,-2.00,+0.00,-1.00,+0.00,-1.00,-1.00,+0.00,-2.00
-3.00,+0.00,-1.00,+0.00,+0.00,-1.00,-3.00,-10.00,-1.00,-2.00,-2.00,-2.00,-1.00,-1.00,-1.00,-1.00
-4.00,+0.00,+0.00,-2.00,-1.00,-1.00,+0.00,+2.00,-2.00,-3.00,-2.00,-3.00,-3.00,+0.00,-1.00,-3.00
+5.00,+3.00,+0.00,+0.00,-1.00,-2.00,+0.00,-1.00,+0.00,-1.00,-1.00,+0.00,-1.00,-1.00,-1.00,+0.00
-3.00,-2.00,-1.00,-1.00,-2.00,-2.00,-1.00,+0.00,+0.00,+0.00,+1.00,-1.00,+0.00,+0.00,-1.00,-1.00
+1.00,-1.00,+0.00,+1.00,+0.00,+0.00,-1.00,-1.00,-3.00,+1.00,+2.00,+1.00,-1.00,-1.00,-2.00,-3.00
+1.00,+2.00,+2.00,-1.00,-1.00,-2.00,-1.00,-3.00,+3.00,+0.00,-2.00,-1.00,+1.00,+0.00,+1.00,+5.00
+0.00,-2.00,-3.00,-2.00,-1.00,-2.00,+0.00,-1.00,-2.00,-2.00,+1.00,+1.00,-1.00,+0.00,-1.00,-2.00
+1.00,+0.00,+0.00,-1.00,-2.00,-1.00,+0.00,-5.00,+0.00,-2.00,-1.00,-1.00,-3.00,-1.00,-1.00,+0.00
-1.00,-1.00,-1.00,-3.00,+0.00,-1.00,-2.00,-2.00,-2.00,+0.00,+0.00,+0.00,-1.00,+0.00,-1.00,-2.00
-2.00,-3.00,-2.00,-2.00,-1.00,+0.00,-1.00,+1.00,-2.00,-1.00,-1.00,-1.00,-1.00,+0.00,+0.00,+0.00
+0.00,-3.00,+1.00,+0.00,-1.00,-1.00,-1.00,+1.00,-4.00,+0.00,+1.00,+1.00,+0.00,-2.00,-2.00,-5.00
+0.00,-2.00,-2.00,-1.00,+1.00,+0.00,-1.00,+0.00,+3.00,-1.00,-1.00,-1.00,+0.00,+0.00,+1.00,+5.00
-1.00,-1.00,-2.00,-1.00,-1.00,-2.00,+0.00,+0.00,-1.00,+0.00,-1.00,-2.00,-2.00,-1.00,+0.00,-4.00
-3.00,-3.00,-4.00,-1.00,-2.00,-1.00,-1.00,+0.00,+0.00,-1.00,-1.00,-1.00,-2.00,-3.00,-4.00,-3.00
-6.00,+1.00,+2.00,-1.00,-2.00,-1.00,-2.00,-2.00,+0.00,+0.00,-2.00,-1.00,-1.00,-1.00,+1.00,-1.00
-6.00,-3.00,-1.00,-2.00,+1.00,-1.00,-1.00,-2.00,-1.00,-3.00,-1.00,+1.00,-1.00,-2.00,-1.00,-1.00
+0.00,-2.00,-3.00,-4.00,-2.00,-1.00,+1.00,+5.00,-1.00,-1.00,+0.00,+1.00,-1.00,-1.00,-1.00,-2.00
+1.00,-5.00,-2.00,+0.00,+0.00,-1.00,-1.00,-2.00,-3.00,-1.00,+0.00,+1.00,+0.00,-1.00,-2.00,-2.00
-4.00,-1.00,+0.00,+1.00,+1.00,+0.00,-1.00,-2.00,+0.00,-2.00,+0.00,-2.00,-1.00,-1.00,-1.00,+0.00
+0.00,+1.00,-2.00,+1.00,-1.00,+0.00,-1.00,-1.00,-4.00,+1.00,+0.00,-3.00,-1.00,-4.00,-3.00,-4.00
-2.00,-1.00,+0.00,+0.00,-1.00,-1.00,-1.00,+0.00,+2.00,-3.00,-2.00,-2.00,-1.00,-2.00,+0.00,+2.00
+1.00,+2.00,+0.00,-1.00,-1.00,-1.00,+1.00,+0.00,+1.00,-1.00,+0.00,-1.00,+0.00,-1.00,-3.00,+1.00
-2.00,+2.00,-1.00,+0.00,-2.00,+0.00,+0.00,-1.00,-1.00,-4.00,-4.00,-2.00,-1.00,+0.00,-1.00,+1.00
-3.00,-2.00,-1.00,-1.00,+0.00,-1.00,+0.00,-1.00,-3.00,-1.00,+0.00,+1.00,+0.00,+0.00,+0.00,-2.00
+2.00,+0.00,+0.00,+0.00,-1.00,-2.00,+0.00,+0.00,-2.00,-1.00,-4.00,-1.00,-1.00,-2.00,-1.00,-2.00
-7.00,-2.00,-4.00,-3.00,-2.00,+0.00,+1.00,+10.00,-2.00,-1.00,-1.00,-1.00,-1.00,-3.00,-2.00,-2.00
-1.00,-2.00,+1.00,+0.00,+0.00,-1.00,-3.00,-1.00,-1.00,-2.00,-1.00,+0.00,+0.00,-2.00,+0.00,-2.00
-2.00,+2.00,+1.00,-1.00,-1.00,-1.00,-2.00,-4.00,-1.00,-2.00,-1.00,-2.00,-2.00,+0.00,-1.00,+0.00
-5.00,-1.00,-1.00,-3.00,-2.00,-1.00,+1.00,+3.00,-2.00,+0.00,-1.00,+0.00,-1.00,-1.00,-1.00,-4.00
+1.00,-1.00,+1.00,-1.00,-2.00,-2.00,-3.00,-7.00,-1.00,-1.00,-1.00,-1.00,-1.00,-1.00,+1.00,-1.00
+1.00,-2.00,-3.00,+1.00,-2.00,+0.00,+0.00,+0.00,-1.00,-3.00,-5.00,+0.00,-1.00,-1.00,+0.00,+1.00
-1.00,-2.00,+1.00,+1.00,+1.00,-2.00,+0.00,+2.00,-1.00,-2.00,-4.00,-3.00,-2.00,+1.00,+2.00,+1.00
+1.00,+2.00,+1.00,-1.00,+0.00,-1.00,-2.00,-5.00,-2.00,+0.00,+0.00,-1.00,-1.00,-2.00,-2.00,-3.00
+2.00,+0.00,-2.00,+1.00,+0.00,+0.00,-1.00,-2.00,-2.00,+0.00,+1.00,-1.00,-4.00,+0.00,+0.00,-2.00
-2.00,-1.00,-1.00,-1.00,+0.00,+0.00,+0.00,-1.00,-2.00,+1.00,-1.00,-2.00,-2.00,-2.00,+0.00,+2.00
-3.00,-1.00,+0.00,-1.00,-2.00,-2.00,-1.00,-3.00,+0.00,+0.00,+1.00,-1.00,-1.00,-3.00,-1.00,-2.00
+1.00,-1.00,-3.00,-2.00,-1.00,-2.00,-1.00,+1.00,-2.00,-2.00,-2.00,-1.00,-3.00,+0.00,-2.00,+0.00
+4.00,-1.00,+1.00,+0.00,+1.00,+1.00,-3.00,-1.00,-1.00,-2.00,-2.00,+0.00,+0.00,-2.00,+0.00,-2.00
+0.00,-4.00,-3.00,-2.00,+1.00,-1.00,+1.00,+1.00,-2.00,-1.00,+1.00,+1.00,+1.00,-1.00,-1.00,-2.00
-1.00,+0.00,+0.00,-2.00,-2.00,+1.00,-1.00,-1.00,-2.00,-1.00,+1.00,-1.00,-1.00,+0.00,-3.00,-3.00
+0.00,-4.00,+1.00,+0.00,+1.00,-2.00,-1.00,+0.00,-1.00,+1.00,-1.00,-2.00,-1.00,+0.00,-1.00,+0.00
+1.00,+2.00,+0.00,-1.00,-1.00,-2.00,-1.00,-2.00,-3.00,+0.00,+0.00,+0.00,-1.00,-1.00,-1.00,-1.00
-2.00,+1.00,+1.00,+0.00,+0.00,-1.00,-1.00,-4.00,+0.00,+1.00,-3.00,-2.00,-1.00,+0.00,+0.00,+1.00
-1.00,-3.00,-1.00,-1.00,+0.00,-1.00,+0.00,+0.00,+0.00,-1.00,-2.00,+1.00,-1.00,-1.00,+0.00,-1.00
-2.00,-3.00,-4.00,-1.00,-2.00,-1.00,+0.00,+0.00,-1.00,-1.00,-1.00,-1.00,-2.00,-2.00,-1.00,-2.00
-5.00,-3.00,-1.00,-1.00,-1.00,+2.00,-2.00,-5.00,+0.00,+0.00,-2.00,-2.00,-2.00,+0.00,+0.00,-1.00
-10.00,-6.00,-3.00,-2.00,-1.00,-1.00,+1.00,+20.00,+0.00,-2.00,+1.00,+0.00,-2.00,-1.00,-1.00,-6.00
-7.00,+3.00,+2.00,-1.00,+0.00,-1.00,-2.00,-4.00,+0.00,-1.00,-1.00,+1.00,+0.00,-2.00,+0.00,+1.00
-1.00,+0.00,+0.00,+1.00,-1.00,+2.00,-2.00,+0.00,+0.00,+0.00,-2.00,-1.00,+0.00,-2.00,-1.00,+0.00
+1.00,-2.00,+1.00,+0.00,-1.00,-2.00,+0.00,+1.00,-2.00,-1.00,-3.00,-1.00,+0.00,-1.00,-2.00,-2.00
+4.00,+1.00,-1.00,-1.00,-2.00,-1.00,-1.00,-6.00,-4.00,-2.00,+0.00,-1.00,-1.00,+0.00,-3.00,-3.00
+0.00,-2.00,-4.00,+0.00,-2.00,+0.00,-2.00,+0.00,+1.00,-2.00,-6.00,-2.00,-3.00,+0.00,-1.00,+1.00
-1.00,-1.00,+0.00,+0.00,+0.00,+2.00,-2.00,+0.00,-4.00,-2.00,+0.00,-1.00,+0.00,+0.00,+0.00,+0.00
-1.00,-1.00,+0.00,+0.00,-1.00,-1.00,-1.00,-3.00,+3.00,-1.00,-4.00,-1.00,-1.00,-1.00,+1.00,+7.00
+2.00,-1.00,-3.00,-2.00,-2.00,+0.00,+2.00,-3.00,-1.00,-1.00,-1.00,-1.00,-2.00,-2.00,+1.00,+2.00
+0.00,-1.00,+0.00,+0.00,+0.00,-1.00,+0.00,+1.00,-3.00,+0.00,-1.00,-1.00,-1.00,-2.00,-2.00,-2.00
+0.00,+0.00,+1.00,-1.00,-2.00,-2.00,+0.00,-3.00,+1.00,+1.00,-1.00,-1.00,-1.00,+0.00,+0.00,-1.00
+0.00,-1.00,-1.00,+0.00,-1.00,-1.00,-1.00,+0.00,-2.00,-3.00,+1.00,-2.00,-2.00,-1.00,-2.00,-1.00
-1.00,-1.00,+1.00,-1.00,+0.00,-1.00,-2.00,-4.00,-1.00,-2.00,+2.00,+0.00,-1.00,-1.00,+0.00,-2.00
+1.00,-3.00,-3.00,-1.00,-1.00,+0.00,+0.00,+1.00,-3.00,-2.00,-2.00,+1.00,+0.00,+0.00,-1.00,-3.00
+1.00,-3.00,-4.00,-2.00,-2.00,+0.00,+1.00,+0.00,-1.00,-1.00,-1.00,-1.00,+0.00,-1.00,-2.00,-2.00
+0.00,+1.00,+1.00,-2.00,-2.00,+0.00,+1.00,+1.00,+0.00,-2.00,+1.00,+0.00,+1.00,-1.00,-2.00,-1.00
+1.00,+3.00,+0.00,-1.00,-1.00,-1.00,-1.00,-3.00,+1.00,-1.00,-3.00,-2.00,-1.00,-1.00,-2.00,+1.00
+1.00,-2.00,-2.00,-2.00,-2.00,+0.00,+0.00,-1.00,-3.00,-1.00,+0.00,-1.00,+0.00,-1.00,-1.00,-2.00
+3.00,+0.00,-1.00,-1.00,-1.00,+0.00,-1.00,+1.00,-1.00,-1.00,-3.00,-2.00,-2.00,+0.00,+0.00,+0.00
-5.00,+0.00,+0.00,+0.00,-1.00,+0.00,-1.00,+0.00,+0.00,-2.00,-2.00,-2.00,+0.00,-2.00,-2.00,-4.00
+2.00,-2.00,+0.00,+1.00,+0.00,-2.00,-1.00,-3.00,-3.00,-1.00,-2.00,-2.00,-3.00,+0.00,+0.00,-2.00
+1.00,+2.00,+1.00,-1.00,+0.00,-3.00,+0.00,-1.00,-3.00,+1.00,+0.00,-1.00,+1.00,-2.00,-1.00,-2.00
-5.00,+1.00,+1.00,+2.00,-2.00,-2.00,-3.00,-4.00,-2.00,-2.00,-3.00,-1.00,+0.00,-1.00,-2.00,-2.00
-1.00,+1.00,-1.00,-1.00,+0.00,+0.00,-1.00,-4.00,-2.00,-1.00,-2.00,-2.00,-1.00,-1.00,-1.00,-2.00
+0.00,-2.00,+1.00,-1.00,-1.00,-1.00,-2.00,+1.00,+0.00,-2.00,-1.00,+0.00,-1.00,+0.00,+0.00,+0.00
+2.00,+1.00,-2.00,-1.00,-1.00,-1.00,-2.00,-1.00,+1.00,-1.00,+1.00,-1.00,+1.00,+0.00,+1.00,+1.00
-4.00,-4.00,-2.00,-2.00,-1.00,-2.00,+0.00,+2.00,-2.00,-2.00,+2.00,+0.00,-2.00,-1.00,-1.00,-2.00
+3.00,+1.00,-2.00,-2.00,+0.00,-1.00,+1.00,-3.00,+0.00,+2.00,-2.00,+0.00,-2.00,-2.00,-2.00,+0.00
+0.00,+0.00,+1.00,+0.00,-1.00,+0.00,-2.00,-4.00,+0.00,+0.00,+0.00,-1.00,-1.00,-1.00,-2.00,+1.00
+1.00,-3.00,-1.00,+0.00,-2.00,+0.00,-1.00,+0.00,+0.00,-2.00,-2.00,-2.00,-2.00,-1.00,-2.00,-1.00
+3.00,+0.00,+0.00,+2.00,-2.00,-2.00,-2.00,-5.00,-1.00,-3.00,-1.00,+0.00,+1.00,-1.00,-1.00,-2.00
-3.00,-1.00,-2.00,-1.00,+0.00,+0.00,-1.00,-1.00,-3.00,-1.00,-1.00,+0.00,-1.00,-1.00,+1.00,+1.00
+2.00,+0.00,-2.00,-2.00,-1.00,+0.00,+1.00,+2.00,-2.00,-1.00,-1.00,-1.00,-1.00,+0.00,-1.00,+0.00
-1.00,+1.00,-1.00,+0.00,-1.00,-2.00,-3.00,-1.00,-3.00,-1.00,+0.00,-2.00,-2.00,-2.00,-2.00,-3.00
-1.00,+1.00,+0.00,-1.00,-1.00,-2.00,-2.00,+0.00,+0.00,-1.00,-1.00,+0.00,+0.00,+0.00,+0.00,+0.00
-2.00,-2.00,-2.00,-1.00,-1.00,-2.00,-1.00,+0.00,-2.00,-2.00,-2.00,-2.00,-1.00,-1.00,-1.00,-3.00
-4.00,-3.00,-3.00,-2.00,+0.00,-1.00,-3.00,+2.00,+0.00,-1.00,+0.00,+0.00,+0.00,-2.00,-2.00,-1.00
-1.00,+2.00,+0.00,+0.00,-2.00,+0.00,-1.00,-3.00,-2.00,-2.00,-2.00,-2.00,-3.00,-3.00,-1.00,-2.00
-4.00,-1.00,+0.00,+0.00,+0.00,+0.00,-1.00,-1.00,-1.00,-2.00,+0.00,-2.00,-3.00,-1.00,+0.00,-2.00
+0.00,-2.00,-2.00,-2.00,-1.00,-1.00,+0.00,+0.00,+0.00,-1.00,+0.00,-2.00,-1.00,+0.00,+0.00,+0.00
-2.00,-2.00,-1.00,-1.00,-1.00,+0.00,-2.00,-6.00,-1.00,+1.00,-1.00,-3.00,-1.00,-1.00,-1.00,-1.00
+1.00,-2.00,+1.00,-1.00,+0.00,-2.00,-1.00,+0.00,+0.00,+0.00,-1.00,+2.00,+0.00,-1.00,+0.00,-1.00
-1.00,-1.00,-3.00,-2.00,+0.00,+0.00,-1.00,-1.00,-3.00,-1.00,+0.00,-1.00,-3.00,-1.00,+0.00,+0.00
+0.00,-1.00,+0.00,-2.00,-2.00,-1.00,-3.00,+1.00,-3.00,-2.00,-2.00,-2.00,-1.00,+0.00,-1.00,-2.00
+2.00,+2.00,+1.00,+0.00,-1.00,-1.00,+0.00,+0.00,-2.00,+0.00,+0.00,+1.00,+1.00,-1.00,-1.00,-2.00
-2.00,+0.00,-3.00,-3.00,-1.00,-2.00,+0.00,-1.00,-1.00,-1.00,-1.00,-1.00,-1.00,+0.00,-2.00,+1.00
+1.00,-5.00,-4.00,-1.00,-1.00,-1.00,-1.00,+3.00,+0.00,+0.00,-1.00,+0.00,+0.00,-1.00,-1.00,-1.00
+4.00,+3.00,+0.00,+0.00,+0.00,+0.00,+0.00,+2.00,-1.00,-2.00,+3.00,+0.00,+0.00,+0.00,-2.00,-2.00
+0.00,-1.00,-5.00,-2.00,-1.00,+0.00,+0.00,+0.00,+1.00,-2.00,-5.00,-3.00,-2.00,-2.00,-1.00,-1.00
+0.00,-3.00,-1.00,+0.00,-1.00,+0.00,+0.00,+1.00,-1.00,+0.00,-1.00,-2.00,-1.00,+0.00,-2.00,+0.00
+7.00,+3.00,+1.00,+0.00,+0.00,+0.00,-1.00,-14.00,+0.00,-1.00,+2.00,+0.00,-1.00,-1.00,-2.00,+1.00
-3.00,-5.00,-1.00,-1.00,-3.00,-2.00,-1.00,+10.00,-1.00,-1.00,-3.00,+0.00,-2.00,-1.00,+0.00,+0.00
-2.00,+0.00,+0.00,+1.00,-1.00,-2.00,-2.00,-1.00,-4.00,+1.00,+1.00,-2.00,-2.00,-1.00,+0.00,-4.00
-4.00,-2.00,+0.00,+0.00,+0.00,-1.00,-2.00,-3.00,+1.00,-2.00,-1.00,-1.00,+0.00,+1.00,-1.00,+2.00
+2.00,+1.00,+0.00,-1.00,-1.00,+0.00,+0.00,-1.00,-1.00,-2.00,-2.00,-4.00,-1.00,-2.00,-1.00,-2.00
+4.00,+1.00,+0.00,+1.00,-2.00,-1.00,-1.00,-4.00,-3.00,-1.00,+1.00,+0.00,+0.00,+0.00,-3.00,-2.00
-1.00,+0.00,+2.00,-2.00,-1.00,-2.00,-1.00,-2.00,-1.00,+0.00,+1.00,-1.00,+0.00,-2.00,-3.00,-2.00
+2.00,-4.00,-2.00,+0.00,-1.00,+0.00,+0.00,+2.00,-2.00,-4.00,-3.00,-2.00,-2.00,+1.00,+0.00,-1.00
-4.00,+1.00,+0.00,-1.00,-2.00,-2.00,-1.00,+2.00,-3.00,+0.00,+1.00,+0.00,-1.00,+0.00,-1.00,-1.00
-5.00,-7.00,+0.00,-1.00,+2.00,-2.00,-2.00,-4.00,+0.00,-1.00,+0.00,-2.00,+0.00,-2.00,-1.00,+0.00
+3.00,+0.00,+0.00,-1.00,-1.00,+0.00,+0.00,+4.00,-2.00,+0.00,+0.00,+0.00,-1.00,+0.00,-1.00,+0.00
+4.00,+0.00,-3.00,+0.00,-1.00,+1.00,-1.00,+0.00,-2.00,+1.00,-1.00,-2.00,-1.00,+1.00,-1.00,-2.00
-5.00,-3.00,+0.00,-3.00,-1.00,-1.00,+1.00,+3.00,-1.00,+0.00,+0.00,-1.00,+0.00,-2.00,+0.00,+0.00
-5.00,-2.00,-2.00,+0.00,-1.00,-2.00,-1.00,-3.00,-4.00,-1.00,-1.00,+1.00,-2.00,-1.00,-1.00,-4.00
-5.00,-2.00,-2.00,-2.00,-2.00,-2.00,-1.00,-4.00,+0.00,-1.00,-1.00,-1.00,-2.00,-1.00,+0.00,+1.00
-3.00,+1.00,+2.00,-1.00,-2.00,-1.00,-1.00,-1.00,-2.00,-4.00,+1.00,+0.00,-2.00,-2.00,-3.00,-2.00
-2.00,-1.00,-1.00,+0.00,-2.00,+1.00,-1.00,+0.00,-2.00,-2.00,-2.00,+0.00,+0.00,-1.00,-1.00,-1.00
-2.00,+0.00,+0.00,+0.00,+0.00,-2.00,-2.00,-2.00,-1.00,-2.00,-3.00,-1.00,-1.00,-3.00,-1.00,-1.00
-2.00,-1.00,-2.00,-1.00,+1.00,+1.00,-1.00,-2.00,-1.00,+0.00,-2.00,-1.00,-1.00,+0.00,-1.00,-2.00
+1.00,+0.00,+0.00,-1.00,+1.00,+0.00,-1.00,+1.00,+2.00,-1.00,-2.00,-3.00,+0.00,-1.00,+0.00,+2.00
-4.00,-4.00,+0.00,+0.00,-1.00,+1.00,+0.00,+2.00,+1.00,-2.00,-3.00,-3.00,-2.00,-2.00,-1.00,+2.00
+4.00,-1.00,-1.00,+0.00,-1.00,+0.00,+1.00,+2.00,+2.00,+0.00,-3.00,-1.00,+0.00,-2.00,+0.00,+0.00
-5.00,-1.00,+0.00,-2.00,-1.00,-1.00,+0.00,-3.00,+0.00,+0.00,-3.00,-2.00,-2.00,+0.00,-2.00,+1.00
-6.00,-4.00,-3.00,-5.00,+0.00,-2.00,-1.00,-2.00,-1.00,-1.00,+0.00,-1.00,+1.00,-2.00,+1.00,-2.00
+4.00,+5.00,+1.00,+0.00,+0.00,-1.00,-1.00,-17.00,-1.00,+1.00,-2.00,+0.00,-1.00,+1.00,-2.00,-2.00
-4.00,-2.00,-2.00,+0.00,-1.00,+1.00,+0.00,+1.00,-1.00,+0.00,+1.00,+0.00,-1.00,+0.00,+0.00,-1.00
+2.00,-2.00,-2.00,+0.00,+0.00,-2.00,-3.00,-1.00,+0.00,-2.00,-3.00,-1.00,+0.00,-1.00,+0.00,+0.00
-8.00,-1.00,-1.00,-1.00,-2.00,-2.00,+0.00,-2.00,-2.00,-2.00,-2.00,-1.00,-3.00,-2.00,-2.00,-3.00
+2.00,+2.00,+1.00,-1.00,+1.00,+0.00,-2.00,-1.00,-1.00,+0.00,-2.00,-1.00,+0.00,-1.00,-1.00,+1.00
+1.00,-3.00,-1.00,-2.00,+0.00,+0.00,+1.00,-2.00,+1.00,-1.00,-3.00,-1.00,-2.00,+0.00,-2.00,+0.00
-1.00,-1.00,-1.00,+0.00,-3.00,+0.00,+0.00,-1.00,+1.00,+0.00,+1.00,+1.00,-1.00,+0.00,-2.00,-1.00
+1.00,-2.00,+0.00,+0.00,-1.00,+0.00,-2.00,-4.00,-3.00,-2.00,+0.00,+0.00,-1.00,-1.00,-2.00,-3.00
-1.00,-5.00,-3.00,-1.00,-1.00,-2.00,-1.00,+6.00,+1.00,-2.00,-3.00,-2.00,-1.00,-2.00,+0.00,+1.00
-2.00,-2.00,+0.00,-2.00,-3.00,+0.00,-1.00,-2.00,+1.00,-1.00,+1.00,-1.00,-1.00,+0.00,+1.00,+3.00
-2.00,-2.00,-2.00,-2.00,-1.00,-3.00,+1.00,+4.00,-1.00,+0.00,+0.00,-1.00,-1.00,-2.00,-1.00,-3.00
+1.00,-1.00,-3.00,-1.00,+0.00,-1.00,-2.00,+2.00,-2.00,-2.00,-1.00,-1.00,+0.00,+0.00,-1.00,+1.00
-3.00,+0.00,+0.00,+0.00,-2.00,+0.00,-2.00,+1.00,+0.00,+1.00,+1.00,-2.00,-1.00,-2.00,-1.00,-3.00
-4.00,+1.00,+0.00,-3.00,+0.00,-1.00,+1.00,+1.00,-3.00,+0.00,+1.00,-1.00,+1.00,-2.00,-1.00,-4.00
+4.00,+0.00,+1.00,-2.00,+0.00,+0.00,-1.00,-2.00,-3.00,+0.00,-3.00,-2.00,-1.00,-1.00,+0.00,-1.00
+3.00,+1.00,+1.00,+1.00,-1.00,-2.00,+1.00,+0.00,-1.00,-2.00,-1.00,+1.00,-1.00,+0.00,-1.00,-1.00
+1.00,-1.00,+0.00,-1.00,+1.00,-1.00,-1.00,+2.00,-2.00,-1.00,-2.00,-2.00,+0.00,+0.00,-1.00,+0.00
-2.00,+0.00,+0.00,+0.00,-2.00,-2.00,-1.00,-5.00,-3.00,+0.00,+0.00,+1.00,+0.00,-2.00,-3.00,-2.00
-2.00,-2.00,-1.00,+1.00,-1.00,-1.00,-2.00,-2.00,-1.00,+1.00,-1.00,+0.00,+0.00,+0.00,-2.00,+1.00
+4.00,-1.00,-3.00,+0.00,+0.00,-2.00,+0.00,+3.00,+2.00,+0.00,-5.00,-2.00,-2.00,+0.00,+0.00,+2.00
-8.00,-3.00,-1.00,+0.00,+0.00,+1.00,+0.00,+1.00,-1.00,-1.00,+0.00,-1.00,-1.00,-2.00,-1.00,-2.00
+1.00,+1.00,-1.00,-2.00,-2.00,-2.00,-2.00,-1.00,-2.00,-2.00,-1.00,-4.00,-3.00,-2.00,-1.00,-3.00
+1.00,+3.00,-4.00,-1.00,+0.00,+0.00,+0.00,-13.00,-2.00,-4.00,-2.00,-1.00,+0.00,-2.00,+0.00,+0.00
-4.00,-2.00,-1.00,+0.00,-1.00,-1.00,-1.00,+2.00,+1.00,+1.00,+2.00,+0.00,-1.00,-1.00,-1.00,-2.00
-1.00,-2.00,-1.00,+0.00,+1.00,-1.00,+0.00,+1.00,-2.00,-2.00,+0.00,-2.00,-1.00,+0.00,-2.00,-1.00
-4.00,+1.00,+0.00,-1.00,-2.00,-2.00,-1.00,+0.00,-1.00,+0.00,-2.00,-1.00,-2.00,+0.00,+1.00,-2.00
+1.00,+3.00,+2.00,+0.00,-2.00,+0.00,+0.00,-1.00,+1.00,-2.00,+0.00,-1.00,-1.00,-2.00,+0.00,-1.00
+5.00,+1.00,+1.00,+1.00,-2.00,+0.00,-1.00,-3.00,+1.00,+0.00,-2.00,-2.00,+0.00,-1.00,-2.00,-1.00
-3.00,+0.00,+0.00,+0.00,-3.00,-1.00,-1.00,-1.00,-2.00,+0.00,+1.00,+0.00,-1.00,-1.00,-2.00,-4.00
-2.00,+0.00,+0.00,-1.00,-1.00,+1.00,-1.00,-4.00,-2.00,-1.00,-2.00,+0.00,-1.00,-1.00,-2.00,+0.00
-3.00,-2.00,+1.00,-1.00,-1.00,-3.00,-2.00,+2.00,-2.00,-2.00,-1.00,+0.00,-1.00,+1.00,-2.00,-1.00
-4.00,-2.00,-1.00,-1.00,-2.00,+1.00,-2.00,-4.00,+1.00,+2.00,+1.00,-4.00,-2.00,-1.00,+1.00,+1.00
-1.00,+0.00,-1.00,-1.00,-1.00,-3.00,+0.00,+2.00,+1.00,-2.00,-4.00,-2.00,+1.00,+0.00,+0.00,+3.00
-1.00,-1.00,-2.00,-3.00,-1.00,-1.00,-2.00,-1.00,-1.00,+0.00,-1.00,-1.00,+0.00,+0.00,+0.00,+0.00
-2.00,-1.00,-2.00,+1.00,-1.00,-2.00,-1.00,+1.00,-1.00,-1.00,-1.00,-2.00,-1.00,-1.00,-1.00,+0.00
-4.00,+0.00,+0.00,-1.00,-2.00,-3.00,-2.00,+0.00,-1.00,-3.00,-1.00,-1.00,-1.00,-2.00,-2.00,+0.00
+5.00,+0.00,-3.00,-2.00,-2.00,-2.00,+0.00,+3.00,-3.00,+0.00,-1.00,-2.00,-2.00,+0.00,-2.00,-3.00
-1.00,-1.00,-1.00,-1.00,-1.00,-2.00,+0.00,+0.00,+1.00,-1.00,-2.00,-2.00,-3.00,-2.00,-1.00,+0.00
+3.00,-1.00,-2.00,-1.00,-1.00,-2.00,-2.00,+2.00,+0.00,-1.00,+0.00,+0.00,+0.00,-1.00,-1.00,-1.00
-3.00,+0.00,+0.00,-2.00,+0.00,+1.00,-1.00,-1.00,-4.00,-1.00,+1.00,-1.00,+1.00,-2.00,+0.00,-3.00
-7.00,-3.00,-1.00,+0.00,-1.00,+0.00,-2.00,-4.00,+0.00,-1.00,-3.00,-1.00,-2.00,-3.00,+0.00,+1.00
+4.00,+1.00,+1.00,-1.00,+0.00,-1.00,-1.00,+2.00,-2.00,-3.00,-1.00,+0.00,+0.00,+0.00,-2.00,-1.00
-2.00,-1.00,-1.00,+0.00,+0.00,+0.00,+0.00,+1.00,-7.00,-3.00,+1.00,-2.00,-1.00,-1.00,-2.00,-4.00
+0.00,-3.00,-2.00,+0.00,+0.00,-1.00,+1.00,+1.00,-1.00,+0.00,-2.00,-1.00,+0.00,-2.00,-1.00,+1.00
+2.00,+0.00,+0.00,-1.00,+1.00,-1.00,-1.00,+0.00,-1.00,+0.00,+0.00,+2.00,-1.00,+1.00,-1.00,-2.00
-7.00,+0.00,-1.00,-1.00,-2.00,-1.00,-2.00,-9.00,-1.00,-1.00,-1.00,+0.00,+0.00,-1.00,+0.00,+0.00
-5.00,+2.00,+1.00,-3.00,-1.00,+0.00,+0.00,-2.00,-2.00,-2.00,-1.00,-1.00,-1.00,-1.00,-3.00,-2.00
-1.00,-1.00,-1.00,-1.00,+0.00,-1.00,-2.00,-1.00,-1.00,-1.00,-2.00,-1.00,+0.00,-2.00,+0.00,-1.00
-3.00,-1.00,-1.00,-1.00,-1.00,+0.00,-1.00,+0.00,-3.00,+0.00,+1.00,-1.00,-1.00,-1.00,-3.00,-1.00
+2.00,+0.00,-2.00,-1.00,-1.00,+0.00,+0.00,-3.00,-2.00,-1.00,+0.00,-2.00,-2.00,-1.00,+1.00,-1.00
+1.00,-1.00,+1.00,+2.00,+0.00,-2.00,-2.00,+0.00,-1.00,+0.00,-3.00,-1.00,-2.00,-1.00,-1.00,-2.00
-1.00,-1.00,-3.00,-1.00,-1.00,-3.00,+0.00,-1.00,-1.00,-1.00,-1.00,-1.00,-2.00,-1.00,-1.00,+0.00
+0.00,-2.00,-1.00,-1.00,+0.00,+0.00,-1.00,-4.00,+3.00,-1.00,-1.00,-2.00,+0.00,+1.00,+3.00,+6.00
+2.00,-5.00,-3.00,-2.00,+0.00,+0.00,+0.00,+3.00,-2.00,-1.00,-1.00,-1.00,+0.00,-1.00,-1.00,-1.00
+1.00,-2.00,-1.00,-1.00,-2.00,+0.00,-1.00,+2.00,+0.00,-1.00,-2.00,-1.00,-1.00,-1.00,+1.00,+0.00
+2.00,+2.00,+2.00,-2.00,-1.00,-1.00,+0.00,+1.00,-1.00,-1.00,-2.00,-1.00,-1.00,+0.00,-2.00,-3.00
-1.00,+2.00,-2.00,-1.00,-2.00,-1.00,-1.00,+1.00,-2.00,-2.00,+1.00,+2.00,+0.00,-3.00,-2.00,-1.00
-4.00,-1.00,+1.00,+0.00,+1.00,-1.00,-3.00,+1.00,+0.00,-2.00,-2.00,-1.00,-1.00,+0.00,-2.00,+0.00
+1.00,-1.00,-3.00,-2.00,-2.00,-1.00,+0.00,+2.00,+1.00,+1.00,+1.00,-2.00,-2.00,+0.00,-1.00,+0.00
+3.00,-3.00,-2.00,+0.00,+0.00,-1.00,-1.00,-1.00,-3.00,-2.00,+0.00,-2.00,+0.00,-2.00,-3.00,-2.00
-4.00,-1.00,+0.00,-2.00,-3.00,-3.00,-1.00,-2.00,-2.00,-1.00,+0.00,-1.00,-1.00,-2.00,-3.00,-1.00
-1.00,-2.00,-2.00,-2.00,-2.00,-2.00,-1.00,+2.00,+0.00,+1.00,-1.00,-2.00,+0.00,-2.00,-1.00,-1.00
+0.00,-1.00,+0.00,+0.00,-1.00,+1.00,+0.00,-2.00,+0.00,+0.00,-2.00,+0.00,-2.00,-2.00,+0.00,+2.00
+2.00,+1.00,+0.00,-1.00,-1.00,-2.00,-1.00,-1.00,+1.00,-1.00,-2.00,-1.00,+1.00,-1.00,-1.00,+0.00
+5.00,+1.00,-1.00,+0.00,-2.00,-2.00,-2.00,+2.00,-3.00,-2.00,+0.00,+0.00,-2.00,-2.00,+0.00,-2.00
-2.00,-2.00,-2.00,+0.00,+0.00,+0.00,-1.00,+1.00,-4.00,-1.00,+0.00,+0.00,-2.00,-1.00,-4.00,-5.00
+0.00,-4.00,-1.00,+0.00,+1.00,-1.00,-1.00,-2.00,+0.00,-2.00,-5.00,-2.00,-2.00,-1.00,+0.00,+2.00
-4.00,+1.00,+0.00,+0.00,-2.00,+0.00,-1.00,-4.00,-3.00,-2.00,-1.00,+0.00,-2.00,-1.00,+0.00,-2.00
-4.00,-1.00,+0.00,-2.00,-1.00,-2.00,+1.00,+0.00,+0.00,-1.00,-3.00,-1.00,-1.00,-1.00,+2.00,-2.00
+1.00,-1.00,+3.00,-2.00,-1.00,+0.00,+1.00,+0.00,+0.00,+0.00,+0.00,-1.00,+0.00,-1.00,+0.00,-1.00
-11.00,-2.00,-3.00,-2.00,-1.00,+0.00,+1.00,+11.00,-3.00,-2.00,+0.00,-1.00,+0.00,-1.00,-2.00,-5.00
-5.00,-2.00,+0.00,-1.00,-1.00,-1.00,+0.00,+1.00,-1.00,-2.00,-1.00,+2.00,-3.00,+0.00,+0.00,-1.00
+3.00,+0.00,-1.00,+0.00,+1.00,-2.00,-1.00,-4.00,-1.00,+0.00,-1.00,-2.00,-1.00,-2.00,-3.00,-4.00
+0.00,-2.00,-2.00,+0.00,+1.00,-2.00,+0.00,+1.00,+1.00,+1.00,-3.00,-2.00,-2.00,+0.00,-1.00,+3.00
+0.00,-5.00,-1.00,-2.00,+0.00,+1.00,+0.00,-4.00,+1.00,+0.00,+0.00,-1.00,+1.00,-2.00,-1.00,+1.00
-2.00,-2.00,+1.00,+0.00,-1.00,-2.00,-3.00,-1.00,+0.00,+0.00,-3.00,-2.00,-1.00,-2.00,-1.00,-1.00
-2.00,-3.00,-5.00,-3.00,-2.00,-1.00,+0.00,+2.00,-1.00,-2.00,+0.00,-2.00,-1.00,+1.00,+0.00,+0.00
+0.00,+1.00,-1.00,+0.00,-1.00,+0.00,-2.00,-4.00,+0.00,-1.00,+0.00,-1.00,+1.00,-2.00,+0.00,+1.00
-1.00,-1.00,+0.00,+0.00,+1.00,-3.00,-3.00,-4.00,+0.00,+1.00,+0.00,-1.00,+0.00,+0.00,-2.00,-3.00
-1.00,-1.00,+1.00,-1.00,-1.00,+0.00,-1.00,+0.00,-3.00,-2.00,+1.00,+0.00,+0.00,-1.00,-3.00,-4.00
+2.00,+1.00,+0.00,-1.00,-1.00,+0.00,+0.00,-1.00,+1.00,-2.00,-1.00,-3.00,-2.00,-1.00,+0.00,+0.00
-7.00,-1.00,-3.00,-1.00,+1.00,+0.00,-2.00,-1.00,-1.00,+0.00,+0.00,+1.00,+0.00,-1.00,+0.00,-3.00
-1.00,+4.00,+0.00,-1.00,-2.00,+0.00,+0.00,-4.00,-1.00,-1.00,-2.00,-2.00,-3.00,-1.00,+0.00,+0.00
-3.00,-2.00,+1.00,-2.00,-1.00,-1.00,+0.00,+1.00,-1.00,-1.00,+0.00,+0.00,+1.00,+0.00,-2.00,-1.00
-3.00,-3.00,-2.00,+1.00,+1.00,-1.00,-2.00,-3.00,+0.00,+0.00,-3.00,+0.00,-1.00,+0.00,-3.00,-2.00
+1.00,-1.00,+1.00,+2.00,-1.00,-1.00,-1.00,+2.00,-2.00,-2.00,-1.00,-1.00,-3.00,-1.00,-2.00,-3.00
+0.00,-3.00,-4.00,-3.00,-1.00,-1.00,-2.00,+0.00,+0.00,+1.00,-1.00,-1.00,+0.00,-1.00,+0.00,+1.00
+0.00,+1.00,+1.00,-1.00,+0.00,-1.00,+0.00,-2.00,-3.00,+0.00,-1.00,+0.00,-2.00,-2.00,-1.00,-4.00
+0.00,-1.00,-1.00,-1.00,-1.00,+0.00,-1.00,+0.00,+0.00,+2.00,-2.00,+0.00,+0.00,-2.00,+0.00,+1.00
+2.00,+0.00,-1.00,-2.00,-2.00,-1.00,+0.00,+1.00,+1.00,-3.00,-3.00,-1.00,+0.00,+0.00,+1.00,+0.00
-1.00,+1.00,+0.00,+0.00,-3.00,-3.00,-2.00,-3.00,-2.00,-1.00,+0.00,+0.00,-2.00,-1.00,-1.00,-3.00
+1.00,+0.00,+1.00,+1.00,+1.00,-2.00,-1.00,-1.00,+0.00,+0.00,-1.00,-1.00,+0.00,-2.00,-1.00,+1.00
+1.00,-2.00,-4.00,-3.00,-1.00,-2.00,+0.00,+0.00,-2.00,-1.00,-1.00,+1.00,+0.00,-3.00,-2.00,-5.00
-9.00,-5.00,+1.00,+0.00,-1.00,-3.00,+1.00,+19.00,-2.00,+0.00,-2.00,-1.00,-2.00,-2.00,-1.00,-1.00
-1.00,+0.00,+0.00,-1.00,+0.00,+0.00,+0.00,-1.00,-1.00,+0.00,+0.00,+1.00,+0.00,-2.00,-1.00,-1.00
-2.00,+0.00,-2.00,+0.00,-1.00,-2.00,-2.00,-2.00,-1.00,+1.00,+0.00,-2.00,-2.00,+0.00,+1.00,-3.00
-1.00,-3.00,-1.00,+0.00,-1.00,-1.00,-1.00,+1.00,-1.00,-3.00,-3.00,-2.00,-1.00,+0.00,+0.00,-2.00
+3.00,+1.00,-4.00,+0.00,+0.00,+0.00,-1.00,-7.00,+0.00,+0.00,+0.00,+0.00,-1.00,+0.00,-1.00,-1.00
+0.00,+2.00,+1.00,+0.00,+1.00,+0.00,-1.00,-2.00,+0.00,-2.00,-3.00,+0.00,-2.00,-2.00,-1.00,+1.00
-3.00,-3.00,-3.00,+0.00,-2.00,+0.00,-1.00,+2.00,-1.00,-2.00,-3.00,+0.00,-1.00,-1.00,+0.00,-1.00
-4.00,-1.00,+1.00,-2.00,-1.00,+0.00,-1.00,-3.00,+0.00,-1.00,+0.00,+1.00,+0.00,-1.00,+0.00,-3.00
-1.00,+0.00,+1.00,+1.00,-1.00,-1.00,-1.00,-7.00,-1.00,-1.00,-2.00,-1.00,-1.00,-2.00,-2.00,-2.00
-1.00,-2.00,+1.00,-1.00,-1.00,+0.00,+0.00,-2.00,-1.00,-1.00,-1.00,-2.00,-1.00,-1.00,-1.00,-2.00
-10.00,-1.00,-2.00,-2.00,-1.00,+0.00,-2.00,-6.00,+0.00,+0.00,-5.00,-2.00,+0.00,-2.00,-3.00,+0.00
+3.00,+0.00,-1.00,-2.00,+0.00,-1.00,-1.00,+1.00,+0.00,-1.00,-1.00,-1.00,-1.00,-1.00,+0.00,+2.00
-2.00,+3.00,+0.00,+1.00,-1.00,-2.00,-3.00,-5.00,-1.00,-2.00,-2.00,-1.00,-1.00,-1.00,+1.00,+1.00
-2.00,-1.00,-2.00,-2.00,-2.00,-1.00,-2.00,+1.00,-2.00,-3.00,+1.00,+0.00,-2.00,+0.00,+0.00,-2.00
+2.00,+0.00,-1.00,-3.00,-1.00,+0.00,-1.00,+1.00,+2.00,+0.00,-4.00,-2.00,-1.00,-1.00,-1.00,+3.00
+1.00,+1.00,+0.00,+0.00,+1.00,-1.00,+1.00,+1.00,-1.00,-1.00,-1.00,-1.00,+0.00,-1.00,-1.00,-3.00
+4.00,+2.00,-1.00,-2.00,-1.00,+0.00,+0.00,+1.00,+0.00,+0.00,-2.00,+0.00,+0.00,-1.00,+1.00,+5.00
