-7.00,-2.00,-5.00,-2.00,-2.00,-1.00,+1.00,+4.00,-3.00,+2.00,+15.00,+2.00,-2.00,-1.00,-2.00,-3.00
+0.00,-2.00,+2.00,-2.00,-1.00,+0.00,-2.00,-4.00,+0.00,-5.00,-19.00,-3.00,-1.00,-1.00,-3.00,-1.00
-2.00,+0.00,+1.00,+0.00,+0.00,-1.00,-2.00,-6.00,-2.00,-4.00,-2.00,+0.00,+0.00,-2.00,+1.00,+1.00
-18.00,-2.00,+0.00,+1.00,-1.00,-1.00,-3.00,+2.00,+0.00,-1.00,+0.00,+1.00,-1.00,-1.00,-1.00,+0.00
-2.00,-3.00,-3.00,-1.00,+0.00,+0.00,+0.00,-2.00,-1.00,+0.00,-1.00,-1.00,-2.00,-1.00,-1.00,-1.00
-1.00,+1.00,+1.00,-3.00,-2.00,+0.00,+0.00,+0.00,-1.00,+1.00,+6.00,+1.00,+0.00,+0.00,-2.00,-4.00
+10.00,+0.00,+1.00,+3.00,+2.00,-1.00,-2.00,-4.00,-3.00,-2.00,-1.00,-3.00,-2.00,-1.00,+1.00,-3.00
+1.00,+1.00,-5.00,-2.00,+0.00,-2.00,-1.00,+16.00,+3.00,+4.00,+3.00,-2.00,+0.00,-1.00,-2.00,+0.00
-13.00,-15.00,-3.00,-3.00,+0.00,-1.00,+1.00,+0.00,+0.00,+1.00,-9.00,+0.00,+0.00,-1.00,-1.00,+0.00
-11.00,-18.00,-12.00,-1.00,-3.00,-2.00,-2.00,-2.00,-6.00,-8.00,+0.00,-2.00,+0.00,+1.00,+0.00,-3.00
+8.00,+70.00,+11.00,+1.00,+1.00,+1.00,+3.00,-1.00,+13.00,+23.00,-2.00,-1.00,-1.00,-3.00,-3.00,+0.00
-11.00,-35.00,-18.00,-4.00,-4.00,-2.00,-3.00,-12.00,+2.00,+54.00,+10.00,-1.00,-1.00,-2.00,+0.00,-1.00
-3.00,-23.00,-20.00,-6.00,-4.00,-5.00,-4.00,-2.00,-34.00,-92.00,-8.00,+4.00,+5.00,+5.00,+2.00,-4.00
+32.00,+27.00,+66.00,+20.00,+11.00,+9.00,+9.00,+15.00,+4.00,-3.00,+5.00,+0.00,-1.00,-2.00,-1.00,+0.00
-19.00,-33.00,-2.00,+0.00,-1.00,-1.00,-3.00,-4.00,-4.00,-9.00,-13.00,-3.00,-2.00,-2.00,-3.00,-4.00
+7.00,+5.00,+4.00,-1.00,-1.00,+0.00,-2.00,-9.00,+6.00,+9.00,+5.00,-1.00,-3.00,-2.00,+1.00,+0.00
-9.00,-29.00,-16.00,-4.00,-5.00,+0.00,-3.00,-3.00,+12.00,+32.00,+1.00,-1.00,-4.00,-3.00,-2.00,+0.00
+0.00,-1.00,-21.00,-8.00,-5.00,-5.00,-4.00,-8.00,-3.00,+3.00,-3.00,-2.00,-2.00,-1.00,+0.00,+1.00
+4.00,-11.00,+2.00,-2.00,+0.00,-2.00,-1.00,+1.00,-2.00,-9.00,+2.00,+1.00,-1.00,+1.00,+1.00,+0.00
-10.00,+6.00,+4.00,-1.00,+2.00,+0.00,+1.00,+0.00,-3.00,-9.00,-1.00,+0.00,-2.00,+0.00,+0.00,-1.00
-5.00,+17.00,+8.00,+1.00,+1.00,-2.00,-2.00,+11.00,+4.00,+10.00,-4.00,-2.00,+0.00,-3.00,-3.00,-2.00
-2.00,+3.00,-5.00,-2.00,-1.00,-3.00,-4.00,-16.00,+0.00,+8.00,+8.00,-2.00,-1.00,-2.00,-2.00,-2.00
+2.00,-21.00,-8.00,-2.00,+1.00,-1.00,+1.00,-2.00,-1.00,+1.00,-11.00,+0.00,-1.00,+0.00,-2.00,+0.00
+3.00,-19.00,-9.00,+0.00,-1.00,-1.00,+0.00,-1.00,-1.00,-29.00,-4.00,-1.00,+1.00,-1.00,-1.00,+1.00
-2.00,+65.00,+13.00,+0.00,+0.00,+0.00,-2.00,-5.00,+0.00,+8.00,-1.00,-3.00,-2.00,-1.00,-1.00,-1.00
-9.00,+14.00,-8.00,-3.00,-3.00,-2.00,-2.00,-6.00,-2.00,-22.00,-9.00,-4.00,-2.00,-1.00,+0.00,+1.00
+8.00,-36.00,-11.00,-5.00,-4.00,+1.00,+1.00,+4.00,-11.00,+14.00,+28.00,+7.00,+2.00,+0.00,-2.00,-7.00
+11.00,+32.00,+22.00,+4.00,+2.00,+2.00,+0.00,-4.00,-14.00,-29.00,-11.00,+0.00,-1.00,+1.00,+1.00,+0.00
-15.00,-44.00,+22.00,+7.00,+2.00,+0.00,+0.00,-3.00,+4.00,+6.00,-3.00,+2.00,+1.00,+2.00,+1.00,+2.00
-10.00,-58.00,-14.00,+0.00,+2.00,+2.00,+3.00,+7.00,+6.00,+12.00,+1.00,-1.00,-2.00,-2.00,-3.00,+0.00
-1.00,+25.00,-7.00,-5.00,-4.00,-3.00,-4.00,-13.00,+2.00,-4.00,-10.00,-4.00,-3.00,-1.00,+0.00,+2.00
-5.00,-41.00,-9.00,-3.00,-2.00,-4.00,-3.00,-4.00,-7.00,-41.00,-4.00,+2.00,-1.00,-1.00,-3.00,-3.00
+11.00,+61.00,+5.00,+1.00,+0.00,+0.00,-2.00,-4.00,+0.00,+16.00,+4.00,-5.00,-1.00,-3.00,+0.00,-3.00
+2.00,+2.00,-2.00,-4.00,-3.00,-2.00,-3.00,-1.00,-1.00,-15.00,-8.00,-1.00,-1.00,+0.00,+2.00,+0.00
-10.00,-28.00,-10.00,-1.00,-2.00,-1.00,+3.00,+36.00,-1.00,+23.00,+3.00,-1.00,+1.00,+0.00,-2.00,+1.00
+4.00,+12.00,+6.00,+1.00,+1.00,+1.00,+1.00,+0.00,+2.00,+17.00,+4.00,+1.00,+1.00,-2.00,-2.00,-1.00
+2.00,-18.00,-10.00,-3.00,+0.00,-1.00,+1.00,+0.00,+2.00,+3.00,-4.00,-2.00,-2.00,-1.00,-1.00,+1.00
-2.00,-11.00,-7.00,-4.00,-2.00,-3.00,-2.00,-1.00,-2.00,+4.00,+4.00,+2.00,+0.00,+0.00,-2.00,+1.00
+4.00,+5.00,+5.00,-1.00,+0.00,-2.00,-2.00,-12.00,-1.00,-16.00,-5.00,-2.00,-3.00,-2.00,-2.00,-2.00
+7.00,+4.00,-2.00,-1.00,-2.00,-3.00,-2.00,-4.00,+1.00,+1.00,-7.00,-1.00,-1.00,-2.00,+0.00,+0.00
+2.00,-13.00,-5.00,-1.00,-2.00,+0.00,+1.00,+3.00,-2.00,+5.00,-3.00,-2.00,-3.00,+0.00,-3.00,-2.00
+2.00,-16.00,-3.00,+0.00,-3.00,-3.00,+0.00,-1.00,-4.00,+6.00,+2.00,-2.00,+1.00,-2.00,-2.00,-4.00
+2.00,+43.00,+0.00,-3.00,-1.00,-2.00,-3.00,-5.00,+2.00,-7.00,-3.00,+2.00,+1.00,+2.00,+1.00,+0.00
-4.00,+4.00,+14.00,+3.00,+1.00,+3.00,+2.00,+9.00,-1.00,-22.00,-1.00,-3.00,-2.00,-1.00,-1.00,-3.00
-5.00,-20.00,-8.00,-3.00,-3.00,-5.00,-1.00,-9.00,-5.00,+30.00,-23.00,-5.00,+0.00,+1.00,-1.00,-1.00
+3.00,-11.00,+1.00,+1.00,+1.00,+0.00,-1.00,+0.00,-7.00,+2.00,+41.00,+9.00,+1.00,-2.00,-4.00,-5.00
+2.00,+6.00,+9.00,+3.00,+2.00,+1.00,-2.00,-4.00,-6.00,-15.00,-3.00,-2.00,-3.00,-1.00,+0.00,-2.00
+5.00,+39.00,-5.00,-2.00,+0.00,-1.00,+2.00,+1.00,-2.00,-16.00,+1.00,-4.00,-1.00,-2.00,-1.00,-1.00
+5.00,+16.00,+7.00,-1.00,-2.00,-1.00,-3.00,-4.00,+12.00,+2.00,+1.00,+3.00,+20.00,-1.00,+0.00,+3.00
-2.00,-11.00,-6.00,-4.00,+2.00,+5.00,-4.00,-7.00,-3.00,+13.00,-14.00,-7.00,-22.00,+0.00,+3.00,+4.00
-13.00,-34.00,-11.00,-3.00,-6.00,-8.00,+2.00,+13.00,+11.00,-2.00,-5.00,-1.00,+9.00,+0.00,-2.00,+0.00
+12.00,+11.00,+12.00,+2.00,+2.00,+1.00,-3.00,-22.00,-2.00,+32.00,+8.00,-7.00,-22.00,-18.00,-9.00,-5.00
-5.00,-38.00,-5.00,-1.00,-1.00,+5.00,+1.00,+2.00,+14.00,-15.00,-3.00,-3.00,-20.00,+6.00,+8.00,+7.00
-8.00,-2.00,+0.00,-3.00,+0.00,+6.00,-3.00,-4.00,-4.00,+49.00,+7.00,+5.00,+23.00,+2.00,-2.00,+1.00
-5.00,+9.00,-2.00,-2.00,-3.00,-5.00,-1.00,-9.00,-2.00,-11.00,+4.00,-2.00,-19.00,+1.00,+0.00,-5.00
+1.00,-4.00,+2.00,+0.00,+2.00,-2.00,+3.00,+1.00,-5.00,-29.00,-27.00,-5.00,-5.00,-4.00,-1.00,+0.00
+2.00,-23.00,-16.00,-2.00,-1.00,-2.00,+1.00,+3.00,-14.00,+29.00,+22.00,+5.00,+14.00,+12.00,-2.00,-11.00
+10.00,+66.00,+5.00,+3.00,-3.00,-8.00,-1.00,+5.00,-5.00,-22.00,+2.00,+4.00,+15.00,-5.00,-5.00,+0.00
+6.00,-12.00,+10.00,+1.00,+3.00,+17.00,+3.00,-6.00,-15.00,-12.00,-13.00,-8.00,-13.00,-23.00,-7.00,-5.00
-10.00,-14.00,-11.00,-5.00,-3.00,-7.00,-6.00,+2.00,+12.00,+22.00,+3.00,+2.00,+5.00,+1.00,+1.00,+3.00
-2.00,+6.00,+4.00,-2.00,-6.00,-9.00,-5.00,-4.00,+12.00,-31.00,-21.00,-5.00,-18.00,-5.00,-2.00,-2.00
-10.00,-43.00,-16.00,-6.00,-8.00,-10.00,+0.00,+2.00,+15.00,+43.00,-8.00,-3.00,+1.00,+7.00,+2.00,+9.00
+5.00,+21.00,+2.00,+2.00,+2.00,-9.00,+11.00,-7.00,-79.00,-3.00,+33.00,+5.00,+12.00,+2.00,-3.00,-15.00
-13.00,-20.00,-4.00,+1.00,+5.00,+8.00,-6.00,-4.00,+35.00,+14.00,+3.00,-4.00,-7.00,+2.00,+2.00,-1.00
+6.00,+34.00,-12.00,-6.00,-2.00,+2.00,+2.00,-2.00,-27.00,-49.00,+4.00,+6.00,+20.00,+0.00,+3.00,+5.00
+5.00,-3.00,+18.00,+2.00,-3.00,+13.00,+6.00,+17.00,+44.00,-21.00,-24.00,-11.00,-25.00,+7.00,+3.00,+3.00
-17.00,-45.00,-9.00,-3.00,+2.00,-7.00,+3.00,+2.00,-2.00,+34.00,+3.00,+7.00,+1.00,-15.00,-5.00,+3.00
+18.00,-21.00,+13.00,+0.00,+1.00,+14.00,-8.00,+11.00,-9.00,+20.00,+2.00,-7.00,-8.00,-3.00,-3.00,-2.00
-10.00,-14.00,+3.00,+2.00,-2.00,-15.00,+2.00,-3.00,+3.00,-3.00,-15.00,-3.00,+8.00,+3.00,-1.00,-3.00
+14.00,+127.00,+33.00,-2.00,-7.00,-6.00,-7.00,-4.00,-22.00,-96.00,+26.00,+5.00,+7.00,-6.00,-2.00,-4.00
-7.00,-10.00,-20.00,-3.00,-1.00,-6.00,-14.00,-8.00,+16.00,+83.00,-21.00,-7.00,+2.00,+21.00,-16.00,-3.00
-14.00,-104.00,-4.00,-2.00,-5.00,+12.00,+8.00,+0.00,-7.00,-56.00,+7.00,+17.00,+31.00,-6.00,+9.00,+7.00
+17.00,+55.00,+22.00,+7.00,+7.00,+9.00,+5.00,-1.00,-6.00,-7.00,+0.00,-4.00,+2.00,-6.00,-3.00,+1.00
-3.00,-2.00,+1.00,-1.00,-4.00,-5.00,+12.00,+0.00,+5.00,+4.00,-7.00,+2.00,+4.00,+7.00,+6.00,+2.00
-14.00,-37.00,-14.00,-3.00,-2.00,+14.00,-20.00,-10.00,+22.00,-74.00,-50.00,-16.00,-33.00,+0.00,+25.00,+12.00
-31.00,-2.00,-26.00,-13.00,-12.00,+9.00,-15.00,-14.00,-32.00,+69.00,+74.00,+5.00,+13.00,-66.00,-80.00,-24.00
+30.00,+4.00,-11.00,+3.00,+3.00,-19.00,+46.00,+11.00,-5.00,+30.00,+0.00,+0.00,+13.00,+33.00,-12.00,-3.00
-15.00,-69.00,-5.00,+0.00,+1.00,-59.00,-8.00,-9.00,-12.00,+15.00,-5.00,-19.00,-38.00,-19.00,-13.00,-11.00
+14.00,-1.00,+7.00,+0.00,+8.00,-28.00,+1.00,+4.00,+24.00,+6.00,+0.00,+1.00,+29.00,+10.00,+5.00,+1.00
-8.00,-27.00,-17.00,-3.00,-1.00,-3.00,-11.00,-7.00,-7.00,+10.00,-21.00,-4.00,-15.00,+19.00,-1.00,+4.00
-6.00,+29.00,-11.00,-8.00,+0.00,+9.00,-8.00,+1.00,+7.00,-26.00,+5.00,+4.00,+8.00,-9.00,+58.00,-2.00
+4.00,+3.00,+7.00,+6.00,+0.00,+16.00,+1.00,+6.00,-44.00,+34.00,+2.00,+2.00,+12.00,-6.00,+0.00,-15.00
-8.00,-85.00,-43.00,-9.00,-13.00,+2.00,-29.00,-28.00,+28.00,-106.00,-23.00,-3.00,-17.00,+5.00,-23.00,+5.00
+34.00,+127.00,+50.00,+11.00,+8.00,-1.00,+48.00,+15.00,+3.00,-44.00,-13.00,+0.00,+13.00,+12.00,+23.00,+8.00
-17.00,+8.00,+22.00,+6.00,-6.00,-3.00,-14.00,-1.00,-3.00,+74.00,+27.00,+3.00,-12.00,-16.00,-32.00,-4.00
-5.00,+13.00,-37.00,-5.00,+4.00,+12.00,-1.00,-8.00,+8.00,-16.00,-32.00,+3.00,+4.00,+8.00,+13.00,+4.00
+3.00,+27.00,+17.00,+0.00,+3.00,+9.00,-2.00,-7.00,-42.00,-58.00,+15.00,+0.00,-5.00,-11.00,+5.00,-4.00
-3.00,+7.00,-18.00,-3.00,-2.00,-11.00,-35.00,-14.00,+14.00,-5.00,-18.00,-3.00,-13.00,+5.00,+13.00,-2.00
-2.00,-104.00,-44.00,-8.00,-7.00,+17.00,+16.00,-1.00,-5.00,+43.00,+11.00,+9.00,+45.00,+9.00,-22.00,-2.00
+15.00,+70.00,+71.00,+13.00,-23.00,+14.00,-14.00,+12.00,+12.00,+0.00,-4.00,-3.00,-15.00,-42.00,+33.00,-4.00
-7.00,-57.00,+2.00,+2.00,+27.00,+32.00,+31.00,+6.00,-14.00,-13.00,+2.00,+6.00,+43.00,+40.00,+14.00,-5.00
+6.00,+51.00,+0.00,+0.00,-24.00,-38.00,-8.00,+6.00,+17.00,+11.00,+2.00,-17.00,-47.00,+2.00,-1.00,-6.00
+8.00,-45.00,+8.00,+1.00,+20.00,-11.00,-22.00,-16.00,+10.00,-9.00,-17.00,-9.00,-42.00,+9.00,+32.00,+13.00
-33.00,-47.00,-32.00,-8.00,+9.00,+12.00,+26.00,+18.00,-29.00,-49.00,-8.00,+5.00,+17.00,-12.00,-34.00,-4.00
+0.00,+15.00,+1.00,-5.00,-7.00,-2.00,-22.00,+11.00,-2.00,+10.00,+2.00,+6.00,+53.00,-24.00,+9.00,-9.00
-3.00,+23.00,+10.00,-7.00,-37.00,-24.00,+39.00,+19.00,-6.00,+25.00,-11.00,-20.00,-89.00,-13.00,-62.00,-8.00
-8.00,-25.00,-6.00,-3.00,-2.00,-6.00,-19.00,-3.00,-29.00,+3.00,+8.00,+1.00,-20.00,+26.00,+41.00,-1.00
-11.00,-17.00,-15.00,+2.00,+13.00,-25.00,-17.00,-10.00,-2.00,-10.00,+3.00,-6.00,+13.00,+21.00,-10.00,+0.00
+16.00,+35.00,+22.00,+5.00,+3.00,+12.00,+4.00,+4.00,+19.00,+20.00,+2.00,+1.00,-13.00,-2.00,+12.00,+5.00
-9.00,-57.00,-22.00,-1.00,+18.00,+7.00,-11.00,-3.00,-5.00,-23.00,-16.00,+3.00,+33.00,+21.00,+4.00,+0.00
-5.00,+46.00,+9.00,-1.00,-1.00,+6.00,-4.00,-2.00,+0.00,-22.00,+1.00,+0.00,-5.00,-23.00,-22.00,+1.00
+6.00,-7.00,-4.00,-2.00,-2.00,+5.00,+15.00,-3.00,-16.00,+4.00,+6.00,+1.00,-10.00,+0.00,-12.00,-2.00
+6.00,+16.00,-5.00,-3.00,-6.00,-7.00,+12.00,+8.00,+29.00,+3.00,-4.00,-5.00,-19.00,-3.00,-4.00,+3.00
-30.00,+17.00,+1.00,-3.00,+10.00,+2.00,-25.00,-25.00,-21.00,-16.00,+2.00,+7.00,+26.00,+1.00,+23.00,+3.00
+7.00,-13.00,+19.00,+4.00,-10.00,-9.00,+5.00,-7.00,+26.00,+7.00,+1.00,-3.00,-6.00,-17.00,-27.00,-6.00
-1.00,-36.00,-30.00,-3.00,+6.00,+15.00,-3.00,-4.00,-9.00,+24.00,+2.00,-3.00,+3.00,+10.00,+19.00,-2.00
+12.00,+62.00,+23.00,+3.00,-4.00,-3.00,-11.00,-7.00,-1.00,+7.00,-13.00,-5.00,-11.00,-7.00,-8.00,+1.00
+0.00,-37.00,-23.00,-2.00,+1.00,+1.00,+14.00,+1.00,+1.00,+66.00,+44.00,+12.00,+19.00,+7.00,+10.00,+1.00
+0.00,-21.00,-4.00,-6.00,+0.00,+8.00,-4.00,+0.00,-1.00,-72.00,-25.00,-8.00,-11.00,-12.00,-4.00,-9.00
-8.00,-61.00,+14.00,+0.00,-1.00,-3.00,-9.00,-13.00,+53.00,+46.00,-5.00,+0.00,+10.00,+8.00,-7.00,+12.00
+9.00,+23.00,-5.00,-1.00,+3.00,+0.00,+6.00,-2.00,-20.00,+39.00,+31.00,+3.00,-29.00,-6.00,-7.00,-3.00
+14.00,+79.00,-1.00,-1.00,-6.00,-4.00,+4.00,-1.00,+29.00,+15.00,-7.00,+3.00,+9.00,+5.00,+11.00,-2.00
-22.00,-79.00,-13.00,+3.00,+2.00,+2.00,-3.00,+6.00,-2.00,-64.00,+2.00,-1.00,-7.00,+1.00,-1.00,+1.00
+3.00,-74.00,+16.00,+2.00,+2.00,+0.00,-13.00,-1.00,+3.00,-20.00,-19.00,-2.00,+7.00,+9.00,+2.00,+2.00
-3.00,+12.00,-3.00,+2.00,-12.00,+4.00,+33.00,+3.00,+27.00,+70.00,+34.00,+2.00,-26.00,-32.00,-24.00,+1.00
-16.00,-63.00,+6.00,+4.00,+9.00,-1.00,-33.00,+3.00,-3.00,-7.00,-9.00,+1.00,+11.00,+17.00,+22.00,+2.00
-11.00,+58.00,+5.00,-7.00,-2.00,+0.00,-8.00,-16.00,-16.00,-4.00,-16.00,-6.00,-13.00,-14.00,-8.00,-6.00
-19.00,-48.00,-32.00,-4.00,-11.00,-13.00,+6.00,+8.00,-13.00,-2.00,+11.00,+5.00,+31.00,+7.00,-1.00,-8.00
-3.00,-8.00,+28.00,+5.00,+0.00,+9.00,+12.00,+7.00,-4.00,-5.00,-1.00,-3.00,-34.00,+7.00,-1.00,-1.00
-2.00,+11.00,+4.00,+1.00,+9.00,+24.00,+9.00,-2.00,-15.00,-8.00,-6.00,-6.00,-8.00,+1.00,+28.00,-1.00
+7.00,+44.00,-3.00,-1.00,-6.00,-14.00,-8.00,-7.00,+13.00,+11.00,+1.00,-4.00,+0.00,-8.00,-11.00,-1.00
+2.00,+2.00,-2.00,-3.00,+2.00,+3.00,-6.00,-14.00,-14.00,-14.00,-1.00,+5.00,-17.00,+0.00,-5.00,+1.00
+0.00,+30.00,+5.00,+1.00,+4.00,-6.00,-2.00,+4.00,-36.00,-5.00,-9.00,-7.00,+40.00,+3.00,+13.00,+0.00
+10.00,-33.00,-9.00,-2.00,+1.00,+8.00,-20.00,-2.00,+26.00,+33.00,+9.00,+3.00,+1.00,+0.00,-10.00,-1.00
-2.00,+0.00,+6.00,+1.00,+0.00,+0.00,+8.00,+16.00,+2.00,+9.00,-2.00,-3.00,+2.00,+1.00,-6.00,-4.00
+1.00,+27.00,-5.00,-3.00,+1.00,-1.00,-5.00,-2.00,+0.00,-29.00,-5.00,-1.00,-15.00,+1.00,+12.00,+1.00
-1.00,-7.00,-7.00,-4.00,-5.00,-4.00,+21.00,-3.00,+1.00,-4.00,-24.00,-5.00,+10.00,-5.00,-14.00,+2.00
-2.00,-6.00,-11.00,-8.00,-7.00,-8.00,-38.00,-10.00,-16.00,-37.00,+6.00,+1.00,-31.00,-4.00,-7.00,-9.00
+18.00,-9.00,+31.00,+6.00,+7.00,+5.00,+13.00,+16.00,-13.00,+5.00,-3.00,-5.00,+4.00,+8.00,+4.00,+3.00
-8.00,+41.00,+12.00,+1.00,+0.00,+6.00,+20.00,-1.00,+18.00,+39.00,+10.00,+1.00,-9.00,+2.00,-11.00,+4.00
-16.00,-40.00,-8.00,-1.00,-1.00,+3.00,-16.00,-7.00,+6.00,-17.00,-12.00,-1.00,-3.00,-11.00,+12.00,+4.00
+7.00,-15.00,+16.00,+2.00,+5.00,-2.00,+29.00,-3.00,-13.00,-17.00,-11.00,+0.00,+36.00,+12.00,+2.00,+5.00
-5.00,+48.00,-7.00,-6.00,-7.00,-4.00,-11.00,+36.00,-13.00,+13.00,+2.00,+3.00,-9.00,-13.00,-1.00,-6.00
+8.00,-20.00,+0.00,-4.00,-3.00,-13.00,-1.00,-2.00,+10.00,-52.00,-15.00,-7.00,-5.00,-8.00,-2.00,-5.00
-5.00,-14.00,-2.00,+1.00,+10.00,-11.00,-20.00,-11.00,+15.00,+62.00,+21.00,+3.00,-7.00,+10.00,-25.00,-6.00
-12.00,-2.00,-9.00,-1.00,-12.00,-7.00,+27.00,+21.00,-17.00,-35.00,-16.00,-2.00,+13.00,-12.00,+11.00,-3.00
+5.00,-33.00,-1.00,+0.00,-1.00,+17.00,-5.00,-12.00,+8.00,+9.00,-6.00,-2.00,+0.00,-5.00,-4.00,+6.00
+2.00,+24.00,+5.00,-3.00,-4.00,-2.00,-2.00,-2.00,+0.00,+26.00,+7.00,-4.00,-6.00,-3.00,-2.00,-6.00
-5.00,-21.00,-17.00,-5.00,-1.00,+0.00,-5.00,-1.00,-2.00,+14.00,+14.00,+6.00,+9.00,+4.00,-6.00,-7.00
+13.00,+21.00,+1.00,+3.00,-4.00,+9.00,+4.00,-3.00,+3.00,-23.00,-16.00,+0.00,+12.00,+0.00,-9.00,-6.00
+4.00,+22.00,-3.00,-2.00,+4.00,-18.00,+5.00,-4.00,-3.00,-15.00,-4.00,-6.00,-4.00,-2.00,+2.00,+3.00
-14.00,-1.00,-10.00,-6.00,-5.00,-4.00,-8.00,+4.00,-4.00,+5.00,-1.00,-6.00,-18.00,-1.00,-5.00,-3.00
-2.00,+1.00,+0.00,+1.00,-4.00,-6.00,+0.00,-17.00,-10.00,-14.00,+2.00,+1.00,-3.00,-10.00,+5.00,-5.00
+3.00,-20.00,+3.00,+3.00,+7.00,-6.00,-21.00,-1.00,-10.00,+19.00,-6.00,-2.00,-13.00,-1.00,+2.00,+2.00
-14.00,+24.00,+3.00,-2.00,-5.00,+5.00,+0.00,-8.00,+8.00,-15.00,-4.00,+0.00,+11.00,-15.00,-4.00,-5.00
-5.00,+27.00,-11.00,-2.00,-3.00,-5.00,+15.00,-6.00,-7.00,-56.00,-9.00,-3.00,+4.00,-1.00,-4.00,-3.00
+0.00,-27.00,+5.00,+0.00,+2.00,+17.00,-9.00,-4.00,-10.00,+58.00,+30.00,+2.00,-2.00,+11.00,+4.00,-3.00
+15.00,+15.00,-16.00,+2.00,+2.00,-16.00,+5.00,+5.00,+16.00,-16.00,-16.00,-5.00,-6.00,-7.00,+3.00,+4.00
+3.00,-16.00,+13.00,+3.00,+1.00,+3.00,-9.00,-4.00,-2.00,+13.00,+13.00,+9.00,+12.00,-2.00,-13.00,-1.00
+17.00,+43.00,+17.00,+8.00,+6.00,-1.00,+10.00,-22.00,+14.00,+12.00,-4.00,-7.00,-14.00,-3.00,-2.00,-2.00
-3.00,+17.00,-11.00,-6.00,-11.00,-4.00,-6.00,+8.00,+15.00,-83.00,-29.00,-4.00,+2.00,+2.00,+9.00,+4.00
+0.00,-2.00,+9.00,-2.00,+2.00,+4.00,+3.00,-1.00,-4.00,+66.00,+20.00,+4.00,+3.00,+1.00,+9.00,+1.00
-11.00,-71.00,-13.00,-2.00,-3.00,-3.00,+6.00,-5.00,+2.00,-42.00,-18.00,-3.00,-6.00,-3.00,-25.00,-4.00
+19.00,+53.00,+9.00,+4.00,+2.00,+9.00,-13.00,-1.00,-11.00,+107.00,+57.00,+12.00,+11.00,+4.00,+0.00,-6.00
+4.00,+1.00,-27.00,-1.00,-4.00,-10.00,+10.00,+10.00,+12.00,-16.00,-6.00,-1.00,-5.00,+3.00,+5.00,+1.00
+1.00,+0.00,+6.00,+0.00,+4.00,+7.00,+6.00,-1.00,+8.00,-17.00,-20.00,-5.00,+3.00,+0.00,-17.00,-5.00
-1.00,-36.00,-10.00,-1.00,-3.00,-6.00,+3.00,-2.00,-7.00,+16.00,+22.00,+7.00,-1.00,+7.00,+49.00,+7.00
-15.00,-27.00,-2.00,-1.00,+1.00,+8.00,-8.00,-2.00,+0.00,-13.00,-20.00,-3.00,+13.00,+6.00,+3.00,+4.00
+2.00,+4.00,-2.00,-5.00,-5.00,-14.00,+0.00,+1.00,-15.00,-3.00,-6.00,-4.00,-7.00,-18.00,-12.00,-11.00
-2.00,+4.00,+7.00,-3.00,+1.00,-7.00,+0.00,-5.00,+4.00,-8.00,+1.00,-1.00,+15.00,+4.00,+6.00,+5.00
+3.00,+23.00,-3.00,+0.00,-6.00,-3.00,-2.00,-1.00,-3.00,-10.00,-24.00,-8.00,-28.00,+4.00,-10.00,-5.00
+2.00,-20.00,-14.00,-5.00,+6.00,+12.00,-11.00,-1.00,-12.00,-5.00,+24.00,+6.00,-4.00,-22.00,-14.00,-3.00
-2.00,+6.00,+8.00,+10.00,+3.00,+25.00,+3.00,+1.00,+11.00,+8.00,-1.00,-1.00,+6.00,+15.00,+18.00,+8.00
-10.00,-17.00,-8.00,-4.00,-8.00,-16.00,+7.00,-4.00,+17.00,+24.00,+2.00,-2.00,+5.00,+1.00,-9.00,-2.00
-19.00,+3.00,-15.00,-4.00,-3.00,-5.00,-13.00,+9.00,-14.00,+2.00,+17.00,+9.00,+27.00,+13.00,+3.00,+6.00
+13.00,+46.00,+30.00,+10.00,+3.00,-5.00,+17.00,+9.00,-26.00,-65.00,-21.00,-8.00,-20.00,-26.00,-4.00,-3.00
+0.00,-7.00,-5.00,-4.00,-2.00,+8.00,-20.00,-6.00,+0.00,-6.00,-5.00,-1.00,-20.00,-2.00,-10.00,+4.00
+2.00,+10.00,+14.00,+2.00,+3.00,-9.00,-1.00,+0.00,+0.00,-15.00,-15.00,-5.00,-13.00,-3.00,+2.00,-3.00
+0.00,-24.00,-14.00,-2.00,+1.00,+6.00,+0.00,-6.00,+14.00,+43.00,-7.00,-6.00,+6.00,-6.00,-10.00,+0.00
-10.00,-16.00,-20.00,-11.00,-7.00,-9.00,-1.00,+2.00,-1.00,-2.00,+25.00,+5.00,+3.00,+4.00,+5.00,-3.00
-5.00,+21.00,+21.00,+3.00,-2.00,-10.00,+1.00,+14.00,-7.00,-2.00,-4.00,+0.00,+4.00,+2.00,-1.00,-2.00
+6.00,-12.00,-8.00,+0.00,+1.00,+7.00,+5.00,+2.00,-14.00,-20.00,-5.00,+0.00,-4.00,+0.00,+0.00,+2.00
-8.00,+34.00,+2.00,-2.00,-1.00,-8.00,-9.00,-7.00,-10.00,-50.00,-20.00,-6.00,-11.00,-1.00,+0.00,-6.00
-8.00,-40.00,-27.00,-2.00,-1.00,+1.00,-7.00,-1.00,+7.00,+29.00,+13.00,+2.00,+8.00,+3.00,-8.00,-7.00
+21.00,+8.00,+39.00,+5.00,+1.00,-6.00,-2.00,-2.00,+1.00,-32.00,-18.00,-4.00,-1.00,+0.00,+2.00,-1.00
-11.00,-7.00,-2.00,-4.00,-2.00,+5.00,-1.00,+5.00,-8.00,+34.00,+27.00,+9.00,+4.00,-4.00,-3.00,-1.00
+11.00,+23.00,+6.00,+5.00,+7.00,+6.00,+0.00,-4.00,-4.00,+5.00,+0.00,-4.00,+0.00,-3.00,-9.00,-4.00
-2.00,-5.00,-2.00,-5.00,-6.00,+1.00,-1.00,-5.00,+10.00,+13.00,-20.00,-6.00,-21.00,+4.00,+6.00,+4.00
-12.00,-33.00,-12.00,-4.00,+9.00,+4.00,-6.00,-10.00,-5.00,+2.00,+7.00,+4.00,+12.00,+0.00,-1.00,-6.00
-5.00,+30.00,+3.00,-1.00,-12.00,-12.00,-1.00,+4.00,-6.00,-27.00,-8.00,-1.00,+1.00,+8.00,+7.00,+1.00
-3.00,+8.00,+4.00,-2.00,-2.00,-3.00,+4.00,+18.00,-6.00,-8.00,+2.00,-5.00,-3.00,-16.00,-35.00,-1.00
-2.00,+1.00,-7.00,-1.00,-4.00,+9.00,+17.00,+5.00,+3.00,-17.00,-15.00,+1.00,+34.00,+1.00,+14.00,+1.00
+4.00,-17.00,-2.00,-2.00,-3.00,-20.00,-10.00,-5.00,-8.00,-2.00,+5.00,-7.00,-25.00,-1.00,-5.00,-5.00
+12.00,+38.00,+7.00,+0.00,+7.00,+15.00,-2.00,-11.00,+1.00,+27.00,+10.00,+2.00,+15.00,+6.00,-2.00,-5.00
+4.00,-3.00,-13.00,-3.00,+0.00,-8.00,-14.00,-2.00,-3.00,+10.00,+10.00,+2.00,-6.00,-2.00,-4.00,+3.00
+8.00,+31.00,+16.00,+5.00,+2.00,-2.00,+15.00,+15.00,+7.00,+13.00,+0.00,+1.00,+7.00,+5.00,-7.00,-1.00
-9.00,-22.00,-11.00,-2.00,-3.00,-3.00,+4.00,+0.00,+2.00,-46.00,-30.00,-6.00,-1.00,-1.00,+1.00,+3.00
-11.00,-46.00,-5.00,-3.00,-5.00,+2.00,+3.00,-14.00,-14.00,-12.00,+40.00,+8.00,+16.00,-2.00,-4.00,-4.00
+8.00,+28.00,+9.00,+6.00,+6.00,+5.00,+3.00,-4.00,-4.00,-53.00,-24.00,-5.00,-4.00,+0.00,+9.00,-6.00
-1.00,-8.00,-9.00,-4.00,-1.00,-3.00,-14.00,-3.00,+0.00,+65.00,+33.00,+5.00,+0.00,-2.00,-1.00,+2.00
-3.00,+0.00,+12.00,-3.00,-3.00,-6.00,-2.00,+1.00,+5.00,-31.00,-4.00,-1.00,-8.00,+0.00,+5.00,+3.00
-9.00,+5.00,+1.00,+0.00,+2.00,+2.00,+1.00,+1.00,+7.00,+42.00,-12.00,-7.00,-18.00,-5.00,-5.00,+1.00
-3.00,-28.00,-11.00,-5.00,-4.00,+2.00,+0.00,-3.00,+7.00,+8.00,+1.00,+2.00,-2.00,+3.00,+7.00,-3.00
-5.00,-12.00,+0.00,+0.00,+0.00,-4.00,-15.00,-3.00,-12.00,-34.00,-17.00,-3.00,-7.00,+3.00,-1.00,+1.00
+6.00,+1.00,-7.00,-2.00,-4.00,-5.00,+3.00,-1.00,+6.00,+33.00,+4.00,+2.00,+8.00,-2.00,-6.00,+0.00
-3.00,-19.00,-8.00,-3.00,-2.00,-1.00,-9.00,-15.00,-8.00,-53.00,-16.00,-5.00,-6.00,-4.00,-1.00,+3.00
-4.00,+15.00,+16.00,+0.00,-2.00,+2.00,+6.00,+2.00,+7.00,-2.00,+21.00,+2.00,-6.00,-1.00,+3.00,-5.00
+8.00,-8.00,-6.00,-1.00,+3.00,+2.00,-2.00,-2.00,+7.00,+28.00,-12.00,+5.00,+45.00,+4.00,-2.00,+0.00
-1.00,-6.00,-14.00,-2.00,-9.00,-2.00,+3.00,+5.00,-13.00,-16.00,+8.00,-12.00,-80.00,-10.00,-5.00,-6.00
+14.00,+10.00,+11.00,+0.00,-1.00,-15.00,-11.00,+3.00,+5.00,-17.00,-12.00,-2.00,+0.00,+5.00,+0.00,+1.00
-3.00,+4.00,+5.00,+2.00,+1.00,+4.00,+3.00,-9.00,+0.00,+7.00,-4.00,-3.00,-13.00,+0.00,+6.00,+1.00
-14.00,-31.00,-15.00,-6.00,-4.00,-5.00,-5.00,+17.00,-1.00,-48.00,-13.00,-6.00,-13.00,-5.00,-3.00,+0.00
-4.00,+47.00,-2.00,-3.00,-1.00,-4.00,-3.00,-3.00,-19.00,+19.00,+0.00,+1.00,+26.00,-1.00,-6.00,-6.00
+3.00,-33.00,-10.00,-2.00,-1.00,+3.00,+1.00,+9.00,-1.00,+14.00,+11.00,+7.00,+1.00,+27.00,+15.00,+0.00
+4.00,-41.00,+2.00,+3.00,+1.00,+1.00,+0.00,-7.00,-9.00,+13.00,-7.00,-2.00,-5.00,+3.00,+4.00,+4.00
-17.00,-6.00,+7.00,+0.00,-2.00,-4.00,-8.00,-2.00,+0.00,+46.00,+20.00,+3.00,-6.00,+4.00,+6.00,-4.00
+2.00,+38.00,-22.00,-2.00,-1.00,-2.00,+2.00,+2.00,+21.00,+18.00,+12.00,+7.00,+15.00,+1.00,-5.00,+4.00
-6.00,+45.00,+25.00,+5.00,+5.00,+5.00,+9.00,+7.00,-19.00,-82.00,-24.00,-8.00,-13.00,-15.00,-11.00,-12.00
-10.00,-68.00,-34.00,-6.00,-3.00,-2.00,-3.00,-9.00,+7.00,+57.00,-2.00,+1.00,+13.00,-1.00,-1.00,+3.00
+20.00,+95.00,+39.00,+10.00,+5.00,+3.00,-1.00,-4.00,+6.00,-37.00,-30.00,-6.00,-12.00,+6.00,+5.00,+2.00
+3.00,-14.00,+2.00,-1.00,+1.00,+0.00,+1.00,+6.00,-14.00,-20.00,+8.00,+3.00,+14.00,+0.00,+6.00,+1.00
-5.00,-44.00,-18.00,-4.00,-4.00,+0.00,+1.00,-1.00,+14.00,+2.00,+6.00,-1.00,-4.00,-10.00,-3.00,+0.00
-7.00,+6.00,-10.00,-2.00,-2.00,+0.00,-3.00,+2.00,-5.00,-4.00,+4.00,-2.00,-5.00,-2.00,+0.00,-4.00
-23.00,-21.00,-7.00,-4.00,-1.00,-2.00,-5.00,-13.00,+7.00,-61.00,-34.00,-7.00,-11.00,-9.00,-5.00,-3.00
-5.00,+7.00,+11.00,-1.00,-2.00,+3.00,-1.00,-2.00,+14.00,+33.00,-3.00,-4.00,+2.00,+0.00,+0.00,-2.00
+0.00,-12.00,-20.00,-5.00,-4.00,+3.00,+0.00,+4.00,+7.00,+57.00,+6.00,+5.00,+13.00,-3.00,-3.00,+0.00
+15.00,+4.00,+12.00,+2.00,-4.00,-4.00,+4.00,+4.00,-12.00,-32.00,-8.00,+0.00,-2.00,+3.00,+0.00,-3.00
+1.00,-10.00,-4.00,-1.00,-4.00,+5.00,-1.00,-2.00,-11.00,-5.00,+4.00,-4.00,+3.00,-6.00,-8.00,-4.00
-6.00,-3.00,-1.00,+0.00,+0.00,-16.00,-3.00,-8.00,+2.00,+17.00,+11.00,+4.00,+27.00,+3.00,+2.00,+1.00
-10.00,-18.00,-22.00,-6.00,+6.00,+5.00,+0.00,+8.00,-33.00,-128.00,-26.00,-8.00,-38.00,-5.00,+0.00,-8.00
+13.00,+56.00,+41.00,+6.00,+6.00,-5.00,+2.00,+5.00,+41.00,+120.00,+9.00,-5.00,+5.00,-5.00,-3.00,+2.00
-12.00,-42.00,-10.00,-4.00,-5.00,-3.00,-5.00,-14.00,+12.00,-1.00,+19.00,+6.00,-1.00,+1.00,-1.00,+2.00
+3.00,-32.00,-10.00,+0.00,+4.00,+4.00,-1.00,+4.00,+33.00,+31.00,-21.00,-7.00,+3.00,+2.00,+0.00,+1.00
-9.00,-70.00,-5.00,-4.00,-3.00,-2.00,-1.00,-9.00,-42.00,-30.00,+17.00,+7.00,+11.00,+8.00,+6.00,-3.00
+29.00,+50.00,+32.00,+6.00,+2.00,+13.00,+21.00,+10.00,+6.00,-26.00,+3.00,+9.00,+8.00,-12.00,-3.00,-4.00
+8.00,-26.00,-23.00,+1.00,+3.00,+14.00,-5.00,+3.00,-19.00,+0.00,+2.00,-13.00,-31.00,-8.00,-9.00,-6.00
-12.00,-5.00,+3.00,-5.00,-8.00,-23.00,-6.00,-10.00,+2.00,-53.00,-17.00,-4.00,+2.00,-3.00,+0.00,-1.00
-12.00,+16.00,-3.00,-1.00,-3.00,-5.00,-3.00,-4.00,+19.00,+46.00,-9.00,-8.00,-8.00,-8.00,-3.00,+9.00
-9.00,-15.00,-36.00,-12.00,-9.00,-12.00,-3.00,-12.00,-6.00,-18.00,-2.00,+1.00,+5.00,+5.00,+3.00,+0.00
+10.00,-7.00,-4.00,+0.00,+5.00,+8.00,+3.00,+5.00,-4.00,+59.00,+15.00,+5.00,+11.00,+2.00,+1.00,+4.00
+2.00,+51.00,+26.00,+1.00,-1.00,+7.00,-1.00,+1.00,-11.00,-103.00,-13.00,-1.00,-6.00,-1.00,-1.00,-1.00
+10.00,-49.00,+14.00,+9.00,+0.00,-1.00,+2.00,+0.00,-16.00,+27.00,+4.00,-7.00,-2.00,-4.00,-3.00,-5.00
-5.00,+16.00,-20.00,-7.00,-1.00,+4.00,-7.00,+0.00,+55.00,-4.00,-12.00,+0.00,-5.00,+3.00,+4.00,+3.00
-16.00,-81.00,-31.00,-2.00,+0.00,-5.00,+0.00,-2.00,+23.00,+51.00,+12.00,+4.00,+0.00,-3.00,-2.00,+4.00
+19.00,+37.00,+5.00,-5.00,-1.00,+2.00,+1.00,+11.00,-40.00,-60.00,+15.00,+8.00,+4.00,+4.00,+2.00,-5.00
+24.00,+81.00,+52.00,+24.00,+12.00,+5.00,+6.00,+11.00,+20.00,+4.00,-9.00,-2.00,+1.00,-4.00,-5.00,-2.00
-7.00,-53.00,-8.00,-5.00,-2.00,+0.00,-4.00,-8.00,-38.00,-6.00,-5.00,-4.00,-4.00,+0.00,+0.00,-3.00
+16.00,+32.00,-8.00,-3.00,-3.00,-9.00,-1.00,+4.00,-41.00,-51.00,-22.00,-9.00,-10.00,-2.00,-2.00,-6.00
-12.00,+22.00,-8.00,-5.00,-4.00,-3.00,-1.00,-8.00,+34.00,+55.00,+8.00,+0.00,+2.00,-2.00,+0.00,+3.00
-12.00,-65.00,-32.00,-11.00,-1.00,+1.00,-5.00,-6.00,-9.00,+56.00,+28.00,+7.00,+5.00,-3.00,-1.00,-4.00
+9.00,+69.00,+29.00,+17.00,+8.00,+5.00,-1.00,+6.00,-22.00,-96.00,-11.00,+1.00,+31.00,+2.00,-2.00,-2.00
+0.00,+36.00,+28.00,-1.00,-10.00,+3.00,-1.00,-6.00,+8.00,+68.00,+9.00,+4.00,-2.00,+1.00,-4.00,-2.00
+2.00,-37.00,+2.00,+1.00,+4.00,-4.00,+2.00,+0.00,-52.00,-51.00,-4.00,-6.00,-18.00,+2.00,+3.00,-5.00
+6.00,+61.00,-11.00,-6.00,-3.00,-21.00,+5.00,-12.00,+37.00,+66.00,-10.00,-11.00,-14.00,-19.00,-9.00,+3.00
-35.00,-50.00,-26.00,-7.00,-6.00,-8.00,-17.00,-10.00,-27.00,-60.00,-5.00,-3.00,-5.00,+1.00,-3.00,-6.00
+19.00,+3.00,+22.00,+1.00,+3.00,+0.00,-4.00,+7.00,+71.00,+43.00,+23.00,-1.00,+6.00,+5.00,+1.00,+7.00
-16.00,-16.00,-15.00,-6.00,-6.00,+5.00,-6.00,-4.00,-49.00,-20.00,+21.00,+18.00,+20.00,-16.00,+0.00,-5.00
+39.00,+59.00,+35.00,+14.00,+10.00,+15.00,+17.00,+9.00,-7.00,-68.00,-20.00,-8.00,-10.00,+13.00,+7.00,-2.00
+0.00,-29.00,-12.00,-9.00,-5.00,-5.00,-7.00,+5.00,-5.00,+91.00,+18.00,+7.00,+1.00,+7.00,+5.00,+2.00
+7.00,-51.00,+5.00,+6.00,+4.00,-3.00,+9.00,+6.00,+5.00,-108.00,-29.00,-2.00,+0.00,-1.00,+0.00,+3.00
-6.00,+38.00,+9.00,-2.00,-3.00,+1.00,-6.00,-7.00,+24.00,+125.00,-3.00,-6.00,-9.00,+2.00,-3.00,+0.00
-3.00,-1.00,-32.00,-10.00,-7.00,-5.00,-11.00,-23.00,-29.00,-27.00,-5.00,+0.00,+2.00,-4.00,+2.00,+1.00
+7.00,+40.00,+2.00,+2.00,+0.00,+3.00,+2.00,+4.00,+11.00,+97.00,+41.00,+8.00,-6.00,-5.00,-4.00,+3.00
-14.00,-43.00,+5.00,-3.00,+7.00,+1.00,-2.00,-9.00,-24.00,-48.00,-30.00,-2.00,+6.00,-2.00,-1.00,-7.00
+5.00,+47.00,+22.00,+5.00,-9.00,-3.00,-2.00,+4.00,+25.00,+10.00,+0.00,-2.00,-13.00,-3.00,-2.00,+5.00
-19.00,-48.00,-1.00,-2.00,+2.00,+9.00,-4.00,-5.00,-24.00,-115.00,-19.00,-4.00,+4.00,-5.00,-5.00,-6.00
-7.00,+27.00,-28.00,-10.00,-8.00,-7.00,+0.00,-6.00,+50.00,+77.00,+5.00,-4.00,-8.00,+0.00,+1.00,+3.00
-42.00,-63.00,-11.00,+4.00,-2.00,-8.00,+2.00,+1.00,-33.00,-74.00,-24.00,+1.00,-2.00,+11.00,+1.00,-8.00
+7.00,+40.00,+27.00,+8.00,+8.00,+4.00,+8.00,+2.00,+0.00,-24.00,+19.00,+4.00,+5.00,-17.00,-4.00,-3.00
-3.00,-34.00,-8.00,+0.00,-4.00,+0.00,-10.00,+3.00,-17.00,+118.00,+20.00,+5.00,+16.00,+4.00,+11.00,+8.00
-36.00,-36.00,-6.00,-4.00,+0.00,+1.00,+25.00,+6.00,+36.00,-39.00,+7.00,+5.00,+11.00,-15.00,-19.00,-2.00
+4.00,+32.00,-13.00,-7.00,-6.00,-11.00,+1.00,-3.00,-48.00,-68.00,-17.00,-16.00,-27.00,+6.00,+8.00,-6.00
+13.00,+44.00,-5.00,+1.00,+6.00,-7.00,+1.00,+0.00,+45.00,+11.00,-18.00,-4.00,+5.00,+10.00,+1.00,+4.00
-10.00,-86.00,+2.00,+0.00,-4.00,+0.00,-6.00,+7.00,+0.00,+78.00,+4.00,-5.00,-16.00,+5.00,-15.00,-7.00
+2.00,+34.00,-29.00,-2.00,+2.00,-6.00,-6.00,-21.00,-28.00,-75.00,+14.00,+2.00,+9.00,-8.00,+5.00,-8.00
+8.00,+77.00,+27.00,+2.00,+2.00,-10.00,-4.00,-5.00,+5.00,+46.00,-16.00,-2.00,+7.00,-5.00,+0.00,-3.00
+6.00,-78.00,-18.00,+5.00,-2.00,+19.00,+11.00,+10.00,-29.00,-28.00,+6.00,+1.00,-3.00,+4.00,+0.00,-3.00
+11.00,+89.00,+39.00,+2.00,+2.00,+0.00,-4.00,+0.00,+1.00,-80.00,-9.00,-2.00,+5.00,-4.00,+4.00,+4.00
-4.00,+3.00,-6.00,-4.00,-4.00,+1.00,-3.00,-9.00,+40.00,+48.00,+17.00,-4.00,-6.00,+5.00,-7.00,+1.00
-5.00,+25.00,+3.00,-10.00,-7.00,-3.00,-6.00,-7.00,-33.00,+7.00,-1.00,+3.00,+2.00,-4.00,-5.00,-4.00
-7.00,-128.00,-18.00,+7.00,+4.00,+4.00,-4.00,+5.00,+17.00,+75.00,+13.00,-3.00,-4.00,+1.00,+4.00,-5.00
+8.00,+51.00,-32.00,-9.00,-3.00,-1.00,+0.00,+0.00,+10.00,-109.00,-19.00,+4.00,+9.00,+7.00,-8.00,+2.00
+9.00,+30.00,+25.00,+13.00,+8.00,+9.00,+7.00,+7.00,-10.00,+125.00,+4.00,-2.00,-24.00,-7.00,-6.00,-8.00
+11.00,-87.00,+5.00,-5.00,-6.00,-4.00,-21.00,-3.00,+9.00,-65.00,-2.00,+8.00,+30.00,-17.00,+6.00,+10.00
-6.00,+41.00,+8.00,+0.00,+1.00,+11.00,-3.00,-11.00,-14.00,+14.00,-14.00,-13.00,-27.00,-2.00,-5.00,-6.00
-13.00,+31.00,-23.00,-5.00,+0.00,-14.00,-1.00,+0.00,+6.00,-40.00,+13.00,+5.00,+3.00,+0.00,+4.00,+5.00
+10.00,+25.00,+26.00,+0.00,+0.00,-1.00,+4.00,-3.00,-5.00,+28.00,-13.00,-12.00,-6.00,+3.00,-1.00,+1.00
-27.00,-48.00,-36.00,-9.00,-14.00,-4.00,-7.00,-14.00,+7.00,-47.00,+20.00,+12.00,+29.00,+10.00,+1.00,-2.00
+12.00,-95.00,-17.00,+7.00,+15.00,+31.00,-1.00,-14.00,-38.00,-29.00,-11.00,-5.00,-29.00,-14.00,-12.00,-8.00
+2.00,+46.00,+14.00,+3.00,-11.00,-27.00,+5.00,+9.00,+26.00,+87.00,-8.00,+1.00,+26.00,+25.00,+14.00,+9.00
+8.00,+46.00,+39.00,+3.00,-5.00,-5.00,-15.00,-3.00,-38.00,-88.00,-17.00,-14.00,-39.00,-2.00,+14.00,-1.00
+1.00,+29.00,-9.00,-2.00,+10.00,+2.00,+2.00,+1.00,-8.00,+11.00,+10.00,-5.00,-20.00,-12.00,-21.00,-1.00
-30.00,-78.00,-34.00,-17.00,-11.00,-12.00,-9.00,-18.00,+2.00,+84.00,-6.00,+4.00,+28.00,+7.00,+4.00,+1.00
-3.00,+77.00,-2.00,-3.00,+4.00,+12.00,+1.00,+3.00,-28.00,-85.00,-2.00,+1.00,-4.00,-5.00,-1.00,-6.00
+42.00,-55.00,+36.00,+16.00,+5.00,+4.00,+2.00,+20.00,-2.00,-52.00,-13.00,+9.00,+22.00,+5.00,+5.00,+4.00
+0.00,-32.00,-8.00,+0.00,+7.00,+15.00,+8.00,+7.00,-3.00,+21.00,+9.00,-4.00,-10.00,+1.00,-1.00,-8.00
-13.00,+89.00,+3.00,-4.00,-11.00,-16.00,-1.00,+0.00,+20.00,+11.00,-31.00,-9.00,-1.00,+6.00,-1.00,+3.00
+6.00,-23.00,+28.00,+4.00,+2.00,+2.00,-5.00,-3.00,+29.00,+127.00,+17.00,+2.00,-11.00,-18.00,-5.00,-2.00
-32.00,-70.00,-28.00,-10.00,-5.00,-8.00,-7.00,-11.00,-26.00,-37.00,-23.00,-2.00,+15.00,+11.00,+2.00,-4.00
+23.00,+62.00,+18.00,+7.00,+3.00,+6.00,+13.00,+12.00,-10.00,-100.00,-37.00,-8.00,-18.00,-9.00,-4.00,+6.00
+6.00,+73.00,+50.00,+5.00,+2.00,-6.00,-2.00,+5.00,+8.00,+90.00,+57.00,+9.00,+5.00,+1.00,-1.00,-4.00
-12.00,-69.00,-32.00,-4.00,-4.00,+2.00,+1.00,-7.00,-8.00,+105.00,-7.00,-6.00,-6.00,-8.00,-7.00,-3.00
-15.00,-94.00,-36.00,-4.00,+1.00,+2.00,-8.00,-20.00,-26.00,-117.00,-11.00,-3.00,+0.00,+3.00,-5.00,-14.00
+44.00,+100.00,+34.00,+3.00,-2.00,+0.00,+8.00,+13.00,+43.00,+127.00,-8.00,+5.00,+26.00,+13.00,+4.00,+2.00
-22.00,-71.00,-42.00,-7.00,+1.00,+17.00,-13.00,-7.00,-41.00,-108.00,-23.00,+2.00,-22.00,-23.00,-4.00,-5.00
+11.00,+78.00,+24.00,+0.00,-8.00,-21.00,+18.00,+3.00,+28.00,+74.00,+21.00,-4.00,+11.00,+0.00,-5.00,-11.00
-1.00,-116.00,-56.00,+1.00,-3.00,+6.00,-9.00,+1.00,-4.00,-22.00,-3.00,+7.00,+3.00,-6.00,-4.00,+0.00
+3.00,+21.00,+18.00,-4.00,+2.00,+36.00,-3.00,-6.00,+20.00,+30.00,+32.00,+1.00,+8.00,+0.00,+4.00,+4.00
-3.00,-25.00,-31.00,-3.00,+18.00,-19.00,+9.00,+6.00,-8.00,-21.00,-18.00,-17.00,-20.00,+5.00,+0.00,+4.00
-5.00,-11.00,+11.00,+0.00,-3.00,-26.00,-13.00,-6.00,+11.00,-42.00,-14.00,-16.00,-39.00,-10.00,-4.00,-3.00
-10.00,+20.00,-33.00,-10.00,-1.00,+2.00,+19.00,-6.00,-3.00,-12.00,+0.00,-14.00,-20.00,-10.00,-8.00,-2.00
-6.00,+93.00,+61.00,+4.00,-1.00,-3.00,-2.00,-6.00,+14.00,-14.00,+15.00,+16.00,+35.00,+10.00,+6.00,+10.00
+22.00,-39.00,+22.00,+14.00,-1.00,+17.00,+4.00,+11.00,+4.00,-34.00,-23.00,+7.00,+29.00,+11.00,+3.00,-2.00
-10.00,-23.00,+37.00,+2.00,+2.00,+24.00,+0.00,+8.00,-32.00,+46.00,+3.00,-1.00,+12.00,-5.00,-3.00,-11.00
+28.00,+60.00,+15.00,+8.00,-2.00,-15.00,-2.00,+13.00,+3.00,+119.00,+9.00,-1.00,+5.00,+0.00,+0.00,+9.00
-17.00,-42.00,-34.00,-14.00,-13.00,-26.00,-9.00,-8.00,-42.00,+4.00,-31.00,-17.00,-26.00,-7.00,-9.00,-20.00
-2.00,-14.00,-34.00,-16.00,-14.00,-17.00,-1.00,-14.00,-4.00,+30.00,+80.00,+18.00,+13.00,+5.00,+6.00,+18.00
+19.00,-39.00,-11.00,+13.00,+14.00,+9.00,+4.00,+19.00,-11.00,-13.00,+10.00,+3.00,-13.00,-1.00,-5.00,-10.00
-12.00,-81.00,-11.00,-9.00,-3.00,-1.00,-6.00,+1.00,+2.00,+14.00,-47.00,-7.00,+0.00,-4.00,-3.00,+2.00
+0.00,+42.00,+41.00,+4.00,-3.00,-3.00,-1.00,-8.00,-14.00,+75.00,+18.00,+2.00,-14.00,-3.00,+0.00,-5.00
+0.00,-44.00,-14.00,-2.00,-6.00,-8.00,-1.00,+24.00,-6.00,-128.00,-50.00,-11.00,-6.00,+0.00,-3.00,-2.00
-1.00,-25.00,+16.00,-3.00,+10.00,+31.00,-2.00,-12.00,+13.00,-82.00,-11.00,+8.00,+24.00,+8.00,+3.00,+3.00
+16.00,+73.00,+8.00,+5.00,-12.00,+2.00,-2.00,+7.00,-31.00,-14.00,+21.00,+10.00,+34.00,+7.00,+2.00,+1.00
-15.00,-22.00,+14.00,-8.00,-16.00,+12.00,+0.00,-4.00,+20.00,+68.00,-8.00,-33.00,-116.00,-26.00,-5.00,+1.00
-7.00,-33.00,-16.00,+2.00,+28.00,-67.00,+5.00,-4.00,-18.00,-40.00,-16.00,-30.00,-32.00,-23.00,-11.00,-11.00
-2.00,+10.00,-28.00,-8.00,+7.00,+50.00,-7.00,-7.00,+23.00,+10.00,+10.00,+4.00,-16.00,+2.00,+4.00,+12.00
-23.00,-84.00,+24.00,+1.00,+7.00,-59.00,+3.00,-2.00,+3.00,-102.00,-18.00,-5.00,-11.00,-5.00,-2.00,-8.00
-4.00,+45.00,-41.00,+3.00,-22.00,-28.00,-3.00,-4.00,-25.00,-20.00,+9.00,+5.00,+34.00,+3.00,-2.00,-7.00
+1.00,-12.00,+5.00,-4.00,+2.00,+17.00,-1.00,+2.00,-1.00,-19.00,-1.00,-3.00,+23.00,+7.00,+1.00,+0.00
-10.00,+47.00,-48.00,-18.00,-20.00,-24.00,-6.00,-10.00,+71.00,+64.00,-24.00,+0.00,-29.00,-4.00,+4.00,+18.00
-31.00,-97.00,+27.00,+8.00,+13.00,+60.00,-3.00,-12.00,-41.00,-67.00,+18.00,-3.00,-16.00,-1.00,-3.00,-18.00
+16.00,+12.00,-55.00,+4.00,+12.00,+29.00,+5.00,+7.00,+50.00,-50.00,-3.00,+8.00,+5.00,+3.00,-1.00,+9.00
+0.00,-44.00,-5.00,-3.00,-18.00,-18.00,-5.00,-13.00,-20.00,-76.00,-45.00,-13.00,-7.00,-3.00,-2.00,-1.00
-1.00,+56.00,+22.00,-3.00,-3.00,+5.00,-2.00,+15.00,-1.00,+57.00,+58.00,+19.00,+36.00,+7.00,+4.00,+2.00
-8.00,+49.00,-18.00,-6.00,+2.00,+4.00,-1.00,+2.00,+24.00,-31.00,-27.00,+5.00,+5.00,+5.00,+4.00,+8.00
-24.00,-118.00,-17.00,+14.00,+6.00,-18.00,+0.00,-2.00,-16.00,-96.00,+20.00,+9.00,+0.00,+4.00,+5.00,+1.00
+40.00,+87.00,+49.00,+11.00,+9.00,+39.00,+7.00,+12.00,-3.00,+117.00,+12.00,+7.00,+17.00,-2.00,-2.00,-4.00
-21.00,-120.00,-18.00,-2.00,-5.00,-19.00,-7.00,-24.00,+11.00,-128.00,-47.00,-8.00,+7.00,+0.00,+2.00,+4.00
+7.00,+111.00,+30.00,-18.00,-12.00,+2.00,-4.00,+7.00,-6.00,+30.00,+26.00,+11.00,+11.00,+3.00,+0.00,-2.00
+12.00,+13.00,-3.00,+6.00,+18.00,+34.00,+0.00,+3.00,+27.00,+121.00,+10.00,-11.00,-28.00,-9.00,-6.00,-7.00
-17.00,-65.00,-24.00,-11.00,-5.00,-39.00,-2.00,-5.00,+18.00,-32.00,+18.00,-5.00,-27.00,-7.00,-4.00,+3.00
-23.00,-107.00,-11.00,-13.00,-7.00,-1.00,-3.00,-12.00,-48.00,-128.00,-14.00,+3.00,+7.00,+0.00,+0.00,-9.00
+20.00,-22.00,+10.00,-1.00,-1.00,+9.00,+0.00,+3.00,+47.00,+118.00,+27.00,+4.00,-11.00,-1.00,+3.00,+6.00
-9.00,-67.00,-5.00,+8.00,+10.00,+3.00,+4.00,+6.00,-22.00,+30.00,-6.00,+13.00,+58.00,+14.00,+2.00,-5.00
+45.00,+108.00,+22.00,+10.00,-26.00,+42.00,+2.00,+11.00,+6.00,-62.00,-59.00,+3.00,+38.00,+8.00,+5.00,+4.00
+8.00,+52.00,-7.00,-9.00,+4.00,-16.00,+0.00,+5.00,-28.00,+22.00,-21.00,-19.00,-20.00,-13.00,-7.00,-4.00
-24.00,+26.00,+7.00,-7.00,+7.00,+27.00,-2.00,-2.00,-34.00,-78.00,+19.00,-7.00,-50.00,-9.00,-5.00,-6.00
+12.00,-81.00,-55.00,-15.00,-10.00,-25.00,-5.00,+3.00,-9.00,-40.00,-18.00,-10.00,+22.00,-7.00,-5.00,+6.00
-30.00,-90.00,-44.00,-11.00,-6.00,-39.00,-10.00,-20.00,+39.00,+127.00,-11.00,+4.00,-23.00,+6.00,+12.00,+15.00
+30.00,-50.00,+79.00,+31.00,+18.00,+9.00,+11.00,+27.00,-51.00,-117.00,-10.00,-9.00,+13.00,-9.00,-14.00,-18.00
-22.00,-41.00,-55.00,-23.00,-21.00,-17.00,-15.00,-33.00,-39.00,+26.00,+45.00,+15.00,+21.00,+9.00,+5.00,-1.00
+20.00,-128.00,-70.00,+6.00,+20.00,+16.00,+9.00,+13.00,+44.00,-13.00,-2.00,+0.00,-8.00,-3.00,-6.00,-1.00
-37.00,+64.00,+77.00,-16.00,-21.00,-8.00,-10.00,-19.00,+27.00,+21.00,-33.00,+4.00,+39.00,+8.00,+4.00,+9.00
-7.00,-5.00,-71.00,+8.00,-4.00,+9.00,-1.00,-4.00,-2.00,-84.00,+43.00,-6.00,-21.00,-5.00,-9.00,-11.00
+12.00,+34.00,-31.00,+6.00,+15.00,-12.00,+2.00,+2.00,+23.00,+33.00,-34.00,-21.00,-38.00,-11.00,-3.00,+2.00
-49.00,-61.00,-29.00,-20.00,-16.00,-19.00,-7.00,-13.00,-4.00,-5.00,+9.00,+15.00,-1.00,+4.00,+8.00,+9.00
+20.00,-5.00,+17.00,+6.00,+9.00,+17.00,+6.00,+14.00,-52.00,-97.00,-51.00,-17.00,-8.00,-5.00,-10.00,-15.00
-15.00,-54.00,-61.00,-22.00,-16.00,-12.00,-6.00,-10.00,+80.00,+62.00,+91.00,+25.00,+6.00,+7.00,+11.00,+18.00
+4.00,-30.00,+9.00,+18.00,+11.00,+2.00,+5.00,+10.00,-1.00,+68.00,-27.00,-5.00,+14.00,-1.00,-5.00,-8.00
+0.00,+127.00,-13.00,+2.00,-7.00,-23.00,-2.00,-4.00,-57.00,-128.00,-85.00,-17.00,-1.00,-8.00,-6.00,+0.00
+6.00,+79.00,+32.00,-1.00,-4.00,+10.00,-7.00,-15.00,+44.00,+45.00,+114.00,+20.00,+8.00,+4.00,+3.00,+14.00
-25.00,-117.00,-97.00,+10.00,+10.00,+11.00,+0.00,-1.00,+2.00,+101.00,-43.00,-13.00,-11.00,-5.00,-3.00,-4.00
-17.00,+18.00,-26.00,-20.00,-14.00,-8.00,-8.00,-13.00,-50.00,-128.00,+16.00,+20.00,+13.00,+2.00,-4.00,-16.00
+56.00,+37.00,+91.00,+30.00,+13.00,-7.00,+7.00,+13.00,-30.00,-66.00,-30.00,-8.00,+2.00,+0.00,+0.00,+4.00
-49.00,+50.00,+24.00,-6.00,+6.00,+4.00,-7.00,-17.00,+38.00,+127.00,+54.00,+13.00,-25.00,+2.00,-1.00,+1.00
+27.00,-56.00,+4.00,-5.00,-4.00,-2.00,+4.00,-6.00,-7.00,+121.00,-11.00,-3.00,+8.00,+3.00,+3.00,-5.00
+21.00,-79.00,-42.00,+10.00,+6.00,-1.00,+9.00,+27.00,+33.00,-59.00,-40.00,-21.00,-5.00,-13.00,-8.00,+6.00
-34.00,+22.00,+54.00,-21.00,-18.00,-6.00,-17.00,-30.00,-59.00,-61.00,+53.00,+12.00,-4.00,+2.00,-1.00,-19.00
+44.00,-42.00,+61.00,+19.00,+6.00,+13.00,+8.00,+20.00,+57.00,+43.00,+35.00,+29.00,+49.00,+19.00,+14.00,+18.00
+28.00,-83.00,-13.00,+23.00,+9.00,+46.00,+7.00,+15.00,-46.00,-37.00,-23.00,+0.00,-3.00,-4.00,-3.00,-14.00
-4.00,+46.00,-2.00,-4.00,+1.00,-5.00,+6.00,+4.00,+65.00,+127.00,-28.00,-19.00,-18.00,-9.00,-6.00,+3.00
-38.00,-126.00,-34.00,-46.00,-12.00,-12.00,-17.00,-29.00,+10.00,-45.00,+63.00,+13.00,+0.00,+7.00,+10.00,+3.00
+37.00,-27.00,-84.00,+28.00,+15.00,+6.00,+16.00,+34.00,-64.00,+79.00,+34.00,-17.00,-21.00,-23.00,-23.00,-24.00
-51.00,-25.00,-14.00,-62.00,-28.00,-29.00,-27.00,-39.00,-59.00,-111.00,-16.00,+16.00,+24.00,+19.00,+12.00,+1.00
+84.00,-90.00,-33.00,+68.00,+29.00,+35.00,+26.00,+46.00,+12.00,+127.00,+19.00,+1.00,+9.00,+0.00,-6.00,+4.00
-22.00,-17.00,-60.00,-15.00,-7.00,-6.00,-8.00,-20.00,+32.00,+86.00,-17.00,-11.00,-16.00,-5.00,-6.00,-6.00
-15.00,-22.00,-15.00,-13.00,-7.00,-1.00,-4.00,+3.00,+47.00,+58.00,+1.00,-9.00,+4.00,-5.00,-2.00,+2.00
-48.00,+39.00,-2.00,-30.00,-15.00,-20.00,-8.00,-20.00,-19.00,-62.00,-46.00,-2.00,+1.00,-3.00,-3.00,-9.00
+53.00,+91.00,+81.00,+16.00,+4.00,-3.00,+3.00,+5.00,-42.00,+62.00,+70.00,+19.00,+11.00,+5.00,+1.00,-9.00
+29.00,-53.00,+86.00,-2.00,+6.00,-1.00,+9.00,+17.00,+30.00,+66.00,+22.00,+0.00,+16.00,+4.00,+0.00,-7.00
+19.00,+70.00,+61.00,+16.00,+8.00,+9.00,+4.00,+5.00,+24.00,-79.00,-55.00,-8.00,-23.00,+0.00,+3.00,+9.00
-23.00,+38.00,-10.00,+22.00,+6.00,-8.00,+0.00,+11.00,-89.00,+88.00,+14.00,-15.00,-15.00,-12.00,-7.00,-3.00
-3.00,+95.00,+109.00,-24.00,-18.00,-23.00,-13.00,-14.00,+26.00,-128.00,+21.00,+10.00,+10.00,+5.00,+1.00,-6.00
-21.00,-79.00,-26.00,+16.00,+10.00,+12.00,+3.00,+7.00,+29.00,-35.00,-42.00,-2.00,-2.00,+2.00,+3.00,+7.00
+5.00,-81.00,-19.00,-15.00,-11.00,+1.00,+1.00,+0.00,+33.00,+63.00,+8.00,-6.00,+2.00,-8.00,-7.00,-10.00
-17.00,+53.00,+16.00,-4.00,-7.00,-11.00,-7.00,-13.00,+26.00,-105.00,+11.00,-4.00,-10.00,-4.00,-1.00,+5.00
-30.00,-69.00,-9.00,-21.00,-8.00,-8.00,-7.00,-11.00,+26.00,+95.00,-24.00,+5.00,+11.00,+8.00,+8.00,+12.00
+56.00,+127.00,-64.00,+19.00,+14.00,+15.00,+11.00,+22.00,-19.00,-48.00,+17.00,+0.00,-2.00,-4.00,-5.00,-14.00
-15.00,+35.00,+42.00,+3.00,+1.00,-2.00,-2.00,+3.00,-17.00,-30.00,-48.00,-19.00,-12.00,-10.00,-12.00,-13.00
-72.00,-50.00,+13.00,-29.00,-20.00,-28.00,-19.00,-40.00,+46.00,+125.00,+74.00,+11.00,+2.00,+2.00,+2.00,+5.00
-30.00,-119.00,-103.00,-6.00,-2.00,-3.00,-5.00,+5.00,-26.00,+44.00,-54.00,-17.00,-4.00,-5.00,-2.00,-8.00
-29.00,-29.00,-24.00,-12.00,-12.00,-9.00,-1.00,+4.00,-58.00,+41.00,+10.00,+6.00,+1.00,+2.00,-2.00,+2.00
-1.00,+16.00,-98.00,+7.00,+10.00,+4.00,-1.00,-4.00,-2.00,-86.00,+4.00,+2.00,+1.00,+3.00,+1.00,-3.00
+22.00,-71.00,+5.00,+17.00,+8.00,+2.00,+5.00,+8.00,-9.00,-86.00,-68.00,-3.00,-2.00,+3.00,+5.00,+4.00
+65.00,+112.00,+70.00,+11.00,+3.00,+4.00,+8.00,+15.00,+21.00,+18.00,-33.00,-23.00,-18.00,-12.00,-8.00,-2.00
-46.00,-55.00,+54.00,-32.00,-18.00,-11.00,-15.00,-12.00,+27.00,+96.00,+0.00,+0.00,-4.00,-2.00,+4.00,+20.00
-2.00,-1.00,-1.00,+14.00,+3.00,+2.00,+2.00,+0.00,-27.00,-96.00,-27.00,+3.00,-2.00,+2.00,+1.00,+0.00
+10.00,-11.00,+2.00,+9.00,+6.00,+3.00,+2.00,+7.00,-64.00,-13.00,-36.00,-12.00,-4.00,-4.00,-2.00,+4.00
+29.00,+54.00,+27.00,-1.00,-6.00,-1.00,+1.00,-5.00,+23.00,+14.00,+84.00,+19.00,+8.00,+2.00,-1.00,-3.00
+9.00,+76.00,+50.00,+33.00,+19.00,+6.00,+5.00,+8.00,-32.00,+75.00,-1.00,-7.00,-6.00,-5.00,-4.00,-5.00
-30.00,-90.00,+32.00,-14.00,-11.00,-12.00,-10.00,-23.00,-96.00,-128.00,+81.00,+34.00,+24.00,+14.00,+10.00,-16.00
+127.00,+127.00,+117.00,+50.00,+32.00,+22.00,+32.00,+61.00,+89.00,+110.00,-29.00,-12.00,-13.00,-10.00,-6.00,+13.00
-98.00,-1.00,-27.00,-38.00,-23.00,-17.00,-19.00,-39.00,-6.00,+40.00,+70.00,+3.00,-4.00,-6.00,-7.00,-7.00
+49.00,+24.00,-50.00,-12.00,-3.00,+0.00,-2.00,-1.00,+76.00,+113.00,+21.00,+8.00,+7.00,+11.00,+11.00,+7.00
+12.00,-43.00,+21.00,+33.00,+21.00,+15.00,+12.00,+39.00,+28.00,+116.00,-39.00,-15.00,-11.00,-7.00,-12.00,-11.00
-36.00,+3.00,-78.00,-21.00,-13.00,-11.00,-10.00,-18.00,-7.00,-55.00,-50.00,-8.00,-4.00,-2.00,-3.00,-3.00
-38.00,-17.00,+2.00,-5.00,-6.00,-4.00,-4.00,-13.00,+8.00,-100.00,+6.00,-7.00,-5.00,+0.00,+2.00,-2.00
+9.00,+69.00,-4.00,-9.00,-8.00,-5.00,-2.00,+13.00,+68.00,-79.00,-45.00,-20.00,-15.00,-12.00,-9.00,+6.00
-54.00,-70.00,-128.00,-33.00,-20.00,-18.00,-18.00,-36.00,-50.00,-86.00,+18.00,+0.00,+6.00,+6.00,+3.00,-5.00
+52.00,+101.00,+79.00,+31.00,+11.00,+7.00,+13.00,+23.00,+51.00,+39.00,-3.00,-4.00,-3.00,-1.00,-7.00,-6.00
-54.00,-109.00,-44.00,-11.00,-5.00,-2.00,-9.00,-16.00,+1.00,+0.00,-62.00,-20.00,-11.00,-11.00,-9.00,-12.00
-47.00,-35.00,-40.00,-20.00,-15.00,-16.00,-14.00,-33.00,-48.00,+19.00,+50.00,+20.00,+6.00,+4.00,+1.00,+0.00
+41.00,+93.00,+43.00,+2.00,+5.00,+5.00,+6.00,+12.00,-5.00,+113.00,-7.00,-4.00,-5.00,-3.00,+2.00,+9.00
-14.00,-111.00,-55.00,-9.00,-4.00,-2.00,-4.00,-1.00,-18.00,-61.00,-31.00,+6.00,+7.00,+3.00,+4.00,-2.00
+31.00,+87.00,+40.00,+13.00,+8.00,+5.00,+3.00,+4.00,-115.00,-128.00,-47.00,-6.00,+4.00,+4.00,+2.00,+3.00
-15.00,+7.00,-14.00,+29.00,+10.00,+6.00,+5.00,+0.00,+48.00,+107.00,+14.00,-7.00,-10.00,-7.00,-4.00,-2.00
-26.00,-56.00,-13.00,-19.00,-10.00,-6.00,-7.00,-8.00,-17.00,+61.00,-8.00,-3.00,-7.00,-8.00,-9.00,-14.00
-25.00,+38.00,-7.00,-28.00,-17.00,-14.00,-11.00,-20.00,-56.00,-5.00,+85.00,+17.00,+10.00,+7.00,-2.00,-21.00
+0.00,-128.00,-123.00,+11.00,+12.00,+8.00,+11.00,+22.00,-1.00,-19.00,+0.00,+3.00,-2.00,-1.00,+2.00,+6.00
-50.00,-128.00,-27.00,-14.00,-7.00,-4.00,-5.00,-4.00,+28.00,-128.00,-123.00,-45.00,-20.00,-11.00,-4.00,-4.00
+34.00,+112.00,+50.00,-17.00,-15.00,-10.00,-4.00,-1.00,-28.00,+29.00,+75.00,+15.00,+9.00,+6.00,+4.00,-12.00
+43.00,+63.00,-20.00,+16.00,+15.00,+13.00,+16.00,+39.00,+33.00,+86.00,+0.00,-16.00,-11.00,-9.00,-5.00,+16.00
-46.00,-21.00,-63.00,-9.00,-12.00,-11.00,-17.00,-32.00,+21.00,-38.00,-48.00,-17.00,-5.00,-6.00,-6.00,-5.00
-25.00,+33.00,+79.00,-21.00,-12.00,-8.00,-7.00,-19.00,-41.00,+8.00,+38.00,+16.00,+7.00,+4.00,-1.00,-8.00
+12.00,-28.00,+24.00,+9.00,+7.00,+5.00,+5.00,+13.00,-46.00,-18.00,+21.00,+8.00,-3.00,-3.00,-5.00,-12.00
-29.00,-123.00,-69.00,-24.00,-12.00,-10.00,-9.00,-17.00,+15.00,+84.00,-15.00,-4.00,-7.00,-7.00,-3.00,+16.00
+0.00,-5.00,+1.00,-10.00,-6.00,-7.00,-7.00,-12.00,+68.00,+81.00,+53.00,+13.00,+8.00,+9.00,+8.00,+5.00
+56.00,-2.00,+5.00,+34.00,+18.00,+16.00,+18.00,+32.00,-46.00,+71.00,-1.00,+0.00,+2.00,+0.00,+1.00,+11.00
-32.00,-18.00,-33.00,-16.00,-5.00,-2.00,-6.00,-24.00,+95.00,+7.00,-72.00,-12.00,-2.00,-2.00,+4.00,+16.00
+4.00,-16.00,+22.00,+6.00,+1.00,-1.00,+0.00,-3.00,-22.00,+2.00,+49.00,+11.00,+0.00,-2.00,-1.00,-8.00
-26.00,+62.00,+54.00,-8.00,-5.00,-4.00,-5.00,-10.00,-98.00,-128.00,-9.00,+8.00,+12.00,+3.00,+0.00,-10.00
+8.00,-112.00,-65.00,+2.00,+4.00,-1.00,+2.00,+2.00,+59.00,+54.00,-36.00,+5.00,+6.00,+7.00,+4.00,+8.00
-1.00,-128.00,-36.00,+29.00,+14.00,+9.00,+6.00,+8.00,+11.00,-106.00,-57.00,-25.00,-15.00,-9.00,-6.00,-15.00
-28.00,+18.00,-76.00,-31.00,-18.00,-14.00,-7.00,-1.00,+61.00,-59.00,+78.00,+20.00,+6.00,+3.00,+2.00,+4.00
-50.00,-85.00,-6.00,+0.00,+0.00,-3.00,-9.00,-30.00,-35.00,+6.00,+11.00,+11.00,+4.00,+7.00,+12.00,+8.00
+100.00,+127.00,+63.00,+19.00,+15.00,+15.00,+24.00,+51.00,-49.00,+31.00,+25.00,-3.00,-5.00,-7.00,-11.00,-30.00
+19.00,+111.00,+80.00,-3.00,-2.00,+0.00,+1.00,+12.00,-23.00,+57.00,+101.00,+30.00,+10.00,+4.00,+1.00,+13.00
-11.00,-105.00,-37.00,+8.00,+8.00,+5.00,-1.00,-14.00,-19.00,-42.00,-51.00,-21.00,-8.00,-6.00,-5.00,-2.00
+28.00,+31.00,+21.00,-13.00,-6.00,-5.00,-3.00,+3.00,+3.00,+105.00,-44.00,-13.00,-2.00,+1.00,+3.00,+12.00
-12.00,-2.00,+26.00,+13.00,+5.00,+0.00,-1.00,-5.00,+22.00,+23.00,+26.00,+13.00,-4.00,-5.00,-6.00,-10.00
-42.00,-62.00,-85.00,-34.00,-14.00,-12.00,-14.00,-32.00,+54.00,+48.00,-84.00,-21.00,-8.00,-5.00,+5.00,+17.00
+2.00,-59.00,+113.00,+14.00,+0.00,+0.00,+1.00,-8.00,-6.00,+113.00,+48.00,+6.00,+7.00,+7.00,+1.00,-21.00
+87.00,-24.00,-51.00,+41.00,+21.00,+17.00,+21.00,+49.00,+5.00,+104.00,+29.00,+7.00,-3.00,-2.00,-3.00,+3.00
-18.00,-84.00,-54.00,-16.00,-7.00,-5.00,-7.00,-11.00,-22.00,-50.00,-10.00,+3.00,+1.00,+0.00,+3.00,+21.00
-17.00,-19.00,-20.00,-1.00,-1.00,-2.00,-2.00,-9.00,+40.00,+39.00,-27.00,-24.00,-19.00,-16.00,-16.00,-8.00
-58.00,+60.00,-42.00,-37.00,-26.00,-20.00,-20.00,-37.00,+7.00,-40.00,+28.00,+8.00,+11.00,+9.00,+14.00,+22.00
+101.00,+6.00,+112.00,+40.00,+27.00,+17.00,+19.00,+43.00,+0.00,+33.00,+6.00,+0.00,-4.00,-4.00,-2.00,+7.00
-38.00,-88.00,+5.00,-4.00,-5.00,-4.00,-8.00,-29.00,-91.00,+50.00,-22.00,-10.00,-9.00,-6.00,-4.00,-15.00
+48.00,+20.00,-90.00,-13.00,-4.00,+2.00,+5.00,+19.00,+43.00,-128.00,-111.00,-18.00,+1.00,+4.00,+7.00,+16.00
-31.00,-69.00,-49.00,+14.00,+1.00,-2.00,+4.00,+23.00,-102.00,-3.00,-4.00,+6.00,-3.00,-7.00,-12.00,-26.00
+17.00,+32.00,+22.00,+10.00,+1.00,+0.00,-3.00,-4.00,+51.00,-98.00,-22.00,+2.00,+7.00,+7.00,+4.00,+3.00
+68.00,+38.00,+82.00,+36.00,+18.00,+10.00,+12.00,+24.00,+77.00,-2.00,-60.00,-19.00,-12.00,-11.00,-11.00,-11.00
-51.00,-128.00,-10.00,-13.00,-17.00,-12.00,-13.00,-28.00,-112.00,-78.00,-49.00,-18.00,-11.00,-8.00,-4.00,-1.00
+24.00,+37.00,-41.00,-26.00,-15.00,-10.00,-8.00,-13.00,-71.00,-67.00,-78.00,-4.00,-3.00,-2.00,-8.00,-24.00
+17.00,+69.00,+7.00,+11.00,+1.00,+2.00,+7.00,+19.00,+38.00,+108.00,-22.00,-10.00,+0.00,-1.00,+2.00,+5.00
-31.00,-124.00,-51.00,-12.00,-5.00,-4.00,-6.00,-12.00,-25.00,+28.00,+15.00,+1.00,-2.00,-3.00,-10.00,-20.00
-31.00,-68.00,-56.00,-4.00,-3.00,-5.00,-6.00,-9.00,-35.00,-1.00,-26.00,+5.00,+5.00,+2.00,-1.00,-7.00
+42.00,-6.00,+50.00,+18.00,+9.00,+9.00,+7.00,+9.00,+19.00,-12.00,-89.00,-29.00,-2.00,+2.00,+4.00,+0.00
+26.00,-128.00,+6.00,+16.00,+8.00,+6.00,+16.00,+32.00,-34.00,-14.00,+29.00,+19.00,+1.00,-1.00,+1.00,+9.00
+3.00,+107.00,-50.00,-1.00,-1.00,+0.00,-5.00,-2.00,+30.00,+27.00,+79.00,+14.00,+9.00,+6.00,+4.00,+2.00
+25.00,-85.00,-11.00,+6.00,+13.00,+9.00,+5.00,-5.00,-4.00,+105.00,+61.00,+13.00,+5.00,+0.00,+0.00,-2.00
-21.00,-48.00,-7.00,-9.00,-4.00,+0.00,-1.00,+3.00,+44.00,-7.00,+19.00,+8.00,-2.00,-3.00,+2.00,+14.00
-50.00,-73.00,-6.00,-32.00,-14.00,-11.00,-13.00,-23.00,+74.00,-44.00,+16.00,+0.00,-4.00,-2.00,-6.00,-6.00
-77.00,-88.00,-41.00,-8.00,-7.00,-6.00,-9.00,-23.00,-39.00,-123.00,+37.00,+11.00,+15.00,+13.00,+16.00,+14.00
+95.00,+85.00,+88.00,+30.00,+21.00,+16.00,+23.00,+33.00,+8.00,+8.00,-83.00,-37.00,-16.00,-13.00,-14.00,-16.00
-54.00,+43.00,+51.00,+2.00,-6.00,-9.00,-15.00,-27.00,+102.00,+48.00,+39.00,-5.00,-9.00,-7.00,-11.00,+8.00
-43.00,-98.00,-89.00,-35.00,-23.00,-15.00,-19.00,-38.00,-7.00,-88.00,+6.00,+0.00,+8.00,+3.00,+2.00,-3.00
+17.00,-78.00,-38.00,+13.00,+7.00,+5.00,+12.00,+23.00,-69.00,-104.00,+53.00,+19.00,+6.00,+4.00,+1.00,-4.00
-5.00,-5.00,-47.00,-3.00,+4.00,+3.00,+1.00,+4.00,+25.00,-37.00,+25.00,+10.00,-1.00,-2.00,-6.00,-3.00
-22.00,-91.00,+23.00,-3.00,-6.00,-6.00,-11.00,-20.00,+24.00,-47.00,-25.00,-12.00,-1.00,+3.00,+6.00,+8.00
-16.00,-60.00,+45.00,-10.00,+4.00,+2.00,+6.00,+12.00,-23.00,-2.00,-128.00,-29.00,-11.00,-4.00,-11.00,-21.00
-25.00,-112.00,-124.00,-23.00,-18.00,-6.00,-8.00,-10.00,+72.00,-28.00,+2.00,-10.00,-10.00,-11.00,-9.00,+15.00
-61.00,-91.00,-90.00,-49.00,-23.00,-19.00,-17.00,-30.00,+9.00,-56.00,-8.00,+16.00,+20.00,+20.00,+20.00,+24.00
+100.00,-24.00,+45.00,+79.00,+42.00,+26.00,+27.00,+52.00,+27.00,+5.00,+19.00,+7.00,+1.00,-2.00,+3.00,+26.00
-68.00,+44.00,+15.00,-15.00,-10.00,-6.00,-10.00,-24.00,+1.00,+100.00,+69.00,+19.00,+2.00,-2.00,-4.00,-7.00
+19.00,+95.00,+2.00,+10.00,+6.00,+4.00,+0.00,+0.00,+42.00,-17.00,-79.00,-19.00,-7.00,-5.00,-4.00,-13.00
-33.00,-113.00,-23.00,-2.00,-4.00,-2.00,-3.00,-4.00,-54.00,+35.00,+112.00,+19.00,+3.00,+1.00,-8.00,-30.00
+18.00,-86.00,-30.00,-17.00,-1.00,+0.00,+1.00,+6.00,+17.00,-54.00,-10.00,+7.00,+2.00,-1.00,+1.00,+15.00
-36.00,-27.00,+45.00,-12.00,-7.00,-6.00,-5.00,-5.00,-15.00,-65.00,-57.00,+2.00,+3.00,+7.00,+14.00,+30.00
+56.00,-54.00,+22.00,+15.00,+11.00,+13.00,+14.00,+29.00,+47.00,+61.00,-32.00,-15.00,-7.00,-3.00,-3.00,+3.00
-21.00,+17.00,+15.00,+9.00,-6.00,-4.00,-2.00,-2.00,-40.00,+75.00,+53.00,+6.00,+6.00,-1.00,-2.00,-4.00
-9.00,+45.00,+14.00,-19.00,-7.00,-9.00,-3.00,-10.00,-9.00,-47.00,-8.00,-2.00,+0.00,-1.00,-4.00,-22.00
+45.00,-1.00,-63.00,+6.00,+3.00,+0.00,+2.00,+0.00,-10.00,-37.00,+32.00,+13.00,+8.00,+5.00,+7.00,-1.00
+43.00,+68.00,+65.00,+16.00,+11.00,+8.00,+13.00,+24.00,-74.00,+2.00,-109.00,-40.00,-21.00,-15.00,-13.00,-19.00
-30.00,-43.00,+38.00,-15.00,-25.00,-18.00,-20.00,-17.00,-7.00,+33.00,+101.00,+37.00,+22.00,+19.00,+26.00,+45.00
+71.00,-25.00,+33.00,+57.00,+41.00,+29.00,+29.00,+43.00,-70.00,+56.00,+41.00,+9.00,+3.00,-2.00,-4.00,-21.00
+19.00,+17.00,-37.00,-2.00,+1.00,+4.00,+0.00,-3.00,+12.00,+37.00,+16.00,-9.00,-9.00,-7.00,-8.00,-14.00
-1.00,+43.00,+30.00,-11.00,-10.00,-7.00,-6.00,-13.00,+9.00,+2.00,+12.00,+4.00,+0.00,+0.00,+2.00,+8.00
+9.00,+39.00,-4.00,-6.00,-2.00,-2.00,+0.00,-9.00,-29.00,-109.00,-17.00,+19.00,+18.00,+16.00,+15.00,+5.00
+89.00,-9.00,+89.00,+72.00,+42.00,+30.00,+37.00,+65.00,+56.00,+93.00,-16.00,-2.00,-3.00,-2.00,-3.00,-4.00
-27.00,+41.00,+12.00,-1.00,-4.00,-3.00,-7.00,-17.00,-15.00,+67.00,+50.00,+2.00,-5.00,-6.00,-10.00,-20.00
-7.00,-45.00,-24.00,-15.00,-11.00,-9.00,-8.00,-9.00,+14.00,+73.00,-38.00,-16.00,-4.00,-3.00,-1.00,+13.00
-10.00,-20.00,-37.00,-5.00,-2.00,-2.00,-3.00,-5.00,-90.00,-112.00,-5.00,-12.00,-14.00,-14.00,-19.00,-23.00
-32.00,-7.00,-128.00,-46.00,-19.00,-15.00,-19.00,-35.00,-25.00,-102.00,-9.00,+23.00,+13.00,+14.00,+11.00,-6.00
+75.00,+77.00,+56.00,+28.00,+19.00,+14.00,+19.00,+44.00,-64.00,-52.00,+13.00,-5.00,-7.00,-7.00,-9.00,-15.00
-34.00,-51.00,+2.00,-5.00,-1.00,-4.00,-10.00,-14.00,-35.00,-58.00,+7.00,+4.00,+3.00,+3.00,+3.00,+0.00
-1.00,+4.00,+6.00,+10.00,+6.00,+0.00,+3.00,+8.00,+60.00,-5.00,-50.00,-20.00,-10.00,-8.00,-7.00,+2.00
-49.00,-41.00,-34.00,-34.00,-25.00,-20.00,-16.00,-19.00,+36.00,+30.00,+0.00,-4.00,-2.00,-2.00,-1.00,+6.00
-26.00,-29.00,-14.00,-5.00,-7.00,-2.00,-5.00,-8.00,+41.00,+0.00,-5.00,-5.00,-2.00,-2.00,-1.00,+5.00
-24.00,+41.00,+8.00,-10.00,-3.00,-4.00,-6.00,-7.00,+16.00,-33.00,-76.00,-22.00,-13.00,-4.00,+1.00,+8.00
-47.00,-69.00,-27.00,+0.00,-7.00,-8.00,-11.00,-11.00,-25.00,-72.00,+66.00,+11.00,-5.00,-5.00,-8.00,-26.00
+33.00,+11.00,+18.00,-2.00,+0.00,+4.00,+4.00,+33.00,-30.00,-40.00,+0.00,-3.00,-2.00,-3.00,-3.00,+6.00
-16.00,-9.00,-20.00,-4.00,-3.00,-2.00,-5.00,-15.00,+11.00,-19.00,-16.00,-1.00,+1.00,+0.00,+3.00,+2.00
-17.00,-63.00,-10.00,-6.00,-8.00,-5.00,+1.00,-3.00,+16.00,-2.00,-40.00,-8.00,+0.00,-4.00,-2.00,+7.00
+26.00,+109.00,+65.00,+7.00,+0.00,-1.00,-1.00,-2.00,+32.00,+8.00,+8.00,+6.00,+3.00,+2.00,-1.00,-3.00
+2.00,-7.00,+20.00,+11.00,+2.00,+4.00,+0.00,-10.00,-8.00,+21.00,-11.00,-8.00,-3.00,-2.00,-4.00,-4.00
-9.00,+24.00,-5.00,-1.00,-6.00,-5.00,-4.00,-5.00,-1.00,+69.00,-10.00,-10.00,-8.00,-4.00,-5.00,+2.00
-6.00,+72.00,-28.00,-5.00,-5.00,-6.00,-8.00,-13.00,+29.00,+17.00,+117.00,+39.00,+10.00,+4.00,+4.00,+7.00
+4.00,-8.00,+20.00,-8.00,+2.00,+4.00,+4.00,+4.00,-50.00,-15.00,-67.00,-35.00,-14.00,-8.00,-9.00,-19.00
-14.00,-4.00,-30.00,-28.00,-16.00,-6.00,-2.00,-6.00,+47.00,+113.00,+57.00,+21.00,+11.00,+7.00,+11.00,+11.00
+6.00,-128.00,-38.00,+22.00,+16.00,+10.00,+9.00,+15.00,+63.00,-24.00,-32.00,-19.00,-13.00,-10.00,-8.00,+1.00
-50.00,-106.00,+4.00,-29.00,-17.00,-13.00,-18.00,-29.00,-100.00,+27.00,+45.00,+19.00,+11.00,+7.00,+2.00,-19.00
+70.00,+18.00,+13.00,+33.00,+23.00,+15.00,+19.00,+39.00,+36.00,+4.00,+2.00,+6.00,+2.00,+3.00,+2.00,+7.00
-26.00,-89.00,-29.00,-6.00,-2.00,-2.00,-7.00,-15.00,-13.00,-53.00,-23.00,-14.00,-8.00,-6.00,-3.00,-3.00
-21.00,-2.00,-33.00,-16.00,-8.00,-8.00,-7.00,-9.00,-14.00,-54.00,-22.00,-2.00,+0.00,-2.00,-1.00,-5.00
+9.00,+11.00,+21.00,+0.00,+1.00,+0.00,+2.00,+3.00,+5.00,-58.00,-32.00,-5.00,-1.00,+0.00,+0.00,-1.00
+0.00,+27.00,+55.00,+6.00,-1.00,+3.00,+4.00,+5.00,+6.00,-6.00,-20.00,-7.00,-9.00,-4.00,-2.00,+2.00
-12.00,+24.00,-1.00,-3.00,-6.00,-4.00,-6.00,-17.00,-21.00,+15.00,-26.00,-15.00,-1.00,-4.00,-5.00,+0.00
+4.00,+39.00,+9.00,-5.00,-8.00,-7.00,-3.00,+3.00,+12.00,-85.00,+24.00,+20.00,+7.00,+6.00,+9.00,+8.00
+20.00,-21.00,+14.00,+6.00,+6.00,+5.00,+8.00,+32.00,-57.00,-64.00,+7.00,-1.00,+2.00,-2.00,-8.00,-24.00
+15.00,+82.00,-14.00,-2.00,+2.00,+6.00,-2.00,+0.00,+27.00,+45.00,+0.00,+1.00,-2.00,-1.00,+2.00,+7.00
-17.00,+8.00,+14.00,-3.00,-3.00,-4.00,-2.00,-4.00,-8.00,+65.00,+31.00,-1.00,-8.00,-4.00,-4.00,-8.00
-3.00,+32.00,+31.00,-7.00,-4.00,-3.00,-2.00,-4.00,-30.00,-29.00,-23.00,-5.00,+2.00,-2.00,-7.00,-12.00
+27.00,-39.00,+4.00,-6.00,-11.00,+0.00,-3.00,-10.00,+9.00,+57.00,+36.00,+10.00,+7.00,+4.00,+6.00,+11.00
-9.00,-70.00,-40.00,+12.00,+12.00,-1.00,+5.00,+7.00,-4.00,+104.00,-24.00,-12.00,-14.00,-5.00,+1.00,+9.00
+21.00,+69.00,+7.00,+8.00,+5.00,+2.00,-1.00,+4.00,-5.00,-80.00,+5.00,+2.00,+0.00,-2.00,-6.00,-10.00
-21.00,-53.00,-48.00,-15.00,-4.00,+0.00,-2.00,-7.00,-25.00,-15.00,+13.00,+0.00,-2.00,-2.00,-2.00,-2.00
-4.00,+35.00,+1.00,+7.00,+5.00,+4.00,+3.00,+2.00,+17.00,+12.00,+16.00,+4.00,+5.00,+3.00,+2.00,+3.00
-3.00,-9.00,-10.00,-7.00,-5.00,-2.00,-1.00,-4.00,+39.00,-39.00,-50.00,-6.00,+1.00,-1.00,-3.00,+5.00
-21.00,-29.00,+26.00,-2.00,-6.00,-5.00,-7.00,-16.00,+22.00,-14.00,-24.00,-10.00,-8.00,-6.00,-4.00,-2.00
-1.00,-87.00,-25.00,-9.00,-4.00,-9.00,-4.00,-9.00,+11.00,+127.00,-10.00,-10.00,-4.00,-2.00,-1.00,+2.00
-6.00,-21.00,-70.00,-2.00,-3.00,-5.00,-5.00,-8.00,-5.00,-79.00,+37.00,+4.00,-1.00,-1.00,-3.00,-11.00
+20.00,+65.00,+120.00,+11.00,+3.00,+2.00,+2.00,+8.00,+60.00,+97.00,+12.00,+5.00,+6.00,+4.00,+5.00,+13.00
+1.00,-81.00,-8.00,+7.00,+5.00,+4.00,+6.00,+11.00,+54.00,+59.00,-27.00,-12.00,-9.00,-14.00,-4.00,-3.00
-17.00,-1.00,-24.00,-10.00,-8.00,-3.00,-6.00,-7.00,+63.00,-27.00,-8.00,+4.00,+5.00,+12.00,+5.00,+4.00
+8.00,+8.00,+15.00,+12.00,+5.00,+5.00,+4.00,+6.00,+127.00,+10.00,-17.00,-2.00,-1.00,+14.00,+5.00,+13.00
-18.00,-63.00,-43.00,-7.00,-5.00,-14.00,-13.00,-8.00,+13.00,-94.00,-27.00,-2.00,-1.00,-20.00,-3.00,-7.00
-3.00,+22.00,-16.00,-10.00,-7.00,+9.00,+4.00,-4.00,+2.00,+29.00,+20.00,+6.00,+9.00,+42.00,+2.00,+0.00
+9.00,+30.00,+23.00,+6.00,+1.00,+12.00,-12.00,+1.00,-23.00,+3.00,-11.00,+2.00,+8.00,-19.00,-4.00,+2.00
-9.00,+6.00,+9.00,-4.00,-12.00,+4.00,+25.00,-6.00,-118.00,-50.00,-4.00,-3.00,-14.00,-38.00,-5.00,-3.00
+5.00,+9.00,-12.00,-2.00,+13.00,+9.00,+9.00,+5.00,-87.00,+78.00,-11.00,-6.00,+2.00,+24.00,-3.00,+5.00
-22.00,-51.00,-30.00,-3.00,-3.00,+2.00,-8.00,-12.00,-103.00,+12.00,+34.00,+7.00,+8.00,-13.00,-3.00,-12.00
+12.00,+50.00,+18.00,+5.00,+9.00,+3.00,-3.00,+5.00,-40.00,-30.00,-10.00,-5.00,-10.00,+10.00,+3.00,-2.00
+0.00,-1.00,+8.00,+9.00,+0.00,-17.00,-6.00,+2.00,+29.00,+28.00,+4.00,-2.00,+2.00,+11.00,-3.00,-6.00
+27.00,-59.00,-31.00,-11.00,-9.00,-11.00,-4.00,-3.00,+11.00,+12.00,-3.00,+0.00,-7.00,-17.00,-1.00,+1.00
-3.00,+59.00,+10.00,-6.00,-7.00,-15.00,-3.00,-4.00,-82.00,+53.00,+42.00,+21.00,+27.00,+8.00,+2.00,-7.00
+30.00,-30.00,-2.00,+4.00,+5.00,+8.00,+10.00,+17.00,-48.00,+0.00,-7.00,-5.00,-2.00,+2.00,-1.00,+5.00
-15.00,-26.00,-3.00,-5.00,+1.00,+8.00,-7.00,-3.00,+14.00,+121.00,+0.00,-9.00,-24.00,-12.00,-4.00,-3.00
-32.00,-36.00,-47.00,-13.00,-7.00,-2.00,-3.00,-11.00,+30.00,+98.00,-17.00,-5.00,-3.00,+0.00,-1.00,-6.00
+14.00,+59.00,+46.00,+14.00,+6.00,+3.00,-3.00,+1.00,+14.00,+32.00,+30.00,+3.00,+0.00,-3.00,-3.00,-3.00
-3.00,+4.00,+16.00,+4.00,-4.00,-1.00,+3.00,-5.00,-8.00,-28.00,+6.00,+5.00,+14.00,+4.00,-1.00,-6.00
+25.00,+19.00,+17.00,+2.00,+1.00,-3.00,-4.00,-11.00,+9.00,-23.00,-9.00,+1.00,+7.00,+0.00,+4.00,+3.00
-8.00,-62.00,-25.00,-6.00,-4.00,+4.00,+3.00,+5.00,+70.00,-58.00,-11.00,-10.00,-19.00,-2.00,-1.00,+5.00
+13.00,+53.00,-7.00,-11.00,-13.00,-5.00,-3.00,+10.00,+30.00,-77.00,-32.00,-1.00,+2.00,+0.00,+1.00,+1.00
-2.00,+3.00,-2.00,+1.00,+7.00,-6.00,+1.00,-5.00,+19.00,+15.00,+0.00,-8.00,-22.00,-15.00,-3.00,+0.00
+3.00,+9.00,-3.00,-2.00,-2.00,-28.00,-5.00,+1.00,+4.00,-7.00,-8.00,-2.00,+9.00,+7.00,+0.00,+1.00
+12.00,-4.00,-5.00,-1.00,-5.00,+3.00,-6.00,-4.00,-15.00,-50.00,+30.00,+17.00,+20.00,+13.00,+0.00,-9.00
-19.00,-17.00,+0.00,-3.00,-5.00,+24.00,-7.00,-8.00,+0.00,-25.00,-22.00,+1.00,+23.00,-21.00,+0.00,+3.00
-6.00,+16.00,+7.00,+2.00,-11.00,-19.00,+3.00,-4.00,+13.00,+13.00,+15.00,-1.00,-24.00,+11.00,+0.00,+1.00
-25.00,-19.00,-7.00,+1.00,+25.00,+17.00,-4.00,+2.00,-4.00,-20.00,-12.00,-22.00,-44.00,-21.00,-5.00,-4.00
-24.00,+12.00,+7.00,+2.00,+5.00,-24.00,+8.00,-6.00,-18.00,-35.00,+18.00,-2.00,-13.00,-1.00,-2.00,-4.00
-5.00,-2.00,+2.00,-1.00,+7.00,-15.00,+2.00,+7.00,+31.00,-77.00,-33.00,-14.00,-17.00,-5.00,-2.00,+3.00
-15.00,-22.00,-25.00,-7.00,-6.00,+4.00,+9.00,-3.00,+5.00,+105.00,+14.00,+1.00,+22.00,-12.00,-4.00,+1.00
-9.00,+23.00,-3.00,-19.00,-14.00,+1.00,-10.00,-11.00,-24.00,-128.00,-39.00,+8.00,+27.00,+25.00,+6.00,-3.00
+25.00,-55.00,+24.00,+24.00,+7.00,+17.00,+6.00,+21.00,-19.00,+60.00,+65.00,+18.00,+2.00,-1.00,+0.00,+2.00
-15.00,-64.00,-20.00,+1.00,+2.00,-2.00,-2.00,-11.00,-2.00,-48.00,-17.00,-7.00,-8.00,-6.00,-2.00,-1.00
+2.00,+15.00,+12.00,-7.00,-5.00,-7.00,-9.00,-8.00,+20.00,-15.00,-18.00,-3.00,+3.00,+3.00,+2.00,+8.00
-14.00,-100.00,-26.00,+1.00,-3.00,-2.00,-2.00,-4.00,+15.00,-11.00,-8.00,-10.00,-11.00,-9.00,-9.00,-3.00
-11.00,+12.00,-29.00,-18.00,-13.00,-6.00,-11.00,-17.00,-92.00,-96.00,-6.00,+9.00,+13.00,+2.00,+0.00,-10.00
+48.00,+25.00,+72.00,+21.00,+15.00,+8.00,+15.00,+14.00,+12.00,+28.00,-17.00,-5.00,-11.00,+1.00,+0.00,+2.00
-8.00,-37.00,-16.00,-8.00,-3.00,-2.00,-2.00,+7.00,-16.00,-14.00,+0.00,+1.00,-4.00,-2.00,-1.00,-5.00
+16.00,+20.00,+13.00,+3.00,+2.00,+0.00,+4.00,+13.00,+27.00,+63.00,+14.00,+5.00,+4.00,+4.00,+3.00,+4.00
-10.00,+6.00,-3.00,-1.00,-3.00,+0.00,-2.00,+2.00,+0.00,-24.00,-13.00,-6.00,+5.00,-6.00,-4.00,-3.00
-18.00,-16.00,-20.00,-11.00,-9.00,-10.00,-8.00,-17.00,-6.00,+6.00,+1.00,-5.00,-9.00,+0.00,-2.00,-3.00
+0.00,+17.00,+4.00,+2.00,+3.00,+6.00,-5.00,-5.00,-3.00,-28.00,-9.00,-2.00,-7.00,-20.00,+0.00,-1.00
+1.00,+12.00,+4.00,+5.00,+0.00,+3.00,-3.00,+1.00,-13.00,+17.00,+18.00,+8.00,+14.00,+46.00,-3.00,-1.00
-3.00,+1.00,+3.00,-1.00,-3.00,+10.00,+11.00,-7.00,+21.00,-9.00,+4.00,-3.00,+0.00,-30.00,+0.00,-2.00
-10.00,+4.00,-17.00,-12.00,-3.00,-43.00,+1.00,+0.00,-10.00,-18.00,-18.00,-9.00,-10.00,-11.00,-3.00,-1.00
+7.00,-1.00,+5.00,+3.00,+2.00,+22.00,+9.00,+3.00,+11.00,+9.00,+6.00,+0.00,+5.00,+1.00,-3.00,+1.00
-4.00,+6.00,-2.00,+0.00,-2.00,+10.00,-4.00,-2.00,-7.00,-21.00,-1.00,+4.00,+4.00,-1.00,+0.00,-2.00
-5.00,-7.00,+2.00,-1.00,-4.00,-6.00,-7.00,-3.00,+12.00,+15.00,-1.00,-6.00,+0.00,+10.00,+0.00,-3.00
-2.00,+5.00,+2.00,-3.00,+0.00,+4.00,-4.00,+1.00,+22.00,+32.00,+5.00,+0.00,-8.00,+8.00,+4.00,+10.00
+10.00,-1.00,-5.00,-6.00,-11.00,-12.00,-1.00,+2.00,-16.00,-30.00,-9.00,-7.00,+1.00,-6.00,-4.00,-5.00
+29.00,+8.00,+4.00,+0.00,+2.00,-9.00,-1.00,-3.00,+0.00,-44.00,-49.00,-12.00,-7.00,-7.00,-2.00,-7.00
-9.00,+10.00,-8.00,-1.00,+0.00,+5.00,-3.00,-2.00,+29.00,+30.00,+40.00,-2.00,-13.00,-2.00,-6.00,-2.00
-13.00,-2.00,+9.00,-3.00,-2.00,-3.00,-2.00,-5.00,-32.00,+19.00,+16.00,+13.00,+7.00,-4.00,+7.00,+7.00
+6.00,-70.00,+9.00,+12.00,+10.00,+3.00,+3.00,+7.00,-17.00,-58.00,+2.00,+5.00,+0.00,+10.00,-3.00,-8.00
-7.00,+29.00,+4.00,-6.00,-6.00,+1.00,+0.00,-3.00,+18.00,+63.00,-1.00,+0.00,+1.00,-9.00,+4.00,+8.00
-2.00,-16.00,+2.00,-1.00,+1.00,-4.00,+3.00,+17.00,+13.00,-23.00,-19.00,-7.00,-2.00,-5.00,-2.00,-1.00
-9.00,+14.00,-11.00,-6.00,-5.00,+3.00,-4.00,-2.00,+7.00,-9.00,-11.00,-6.00,-7.00,+1.00,-5.00,-3.00
-18.00,-11.00,-15.00,-6.00,-4.00,-3.00,-4.00,-7.00,+1.00,+4.00,+3.00,+2.00,+2.00,+4.00,-1.00,+0.00
+1.00,-1.00,+9.00,+5.00,+3.00,-1.00,+3.00,-4.00,-8.00,-17.00,+11.00,+5.00,+3.00,-5.00,+0.00,+0.00
-12.00,-5.00,+4.00,+2.00,+2.00,-2.00,-1.00,-5.00,+3.00,-4.00,-9.00,+0.00,+1.00,+3.00,+2.00,+4.00
-1.00,-10.00,-22.00,-5.00,-5.00,+4.00,-1.00,+1.00,+5.00,+12.00,+6.00,-3.00,-2.00,+3.00,-2.00,-2.00
+0.00,+18.00,+4.00,+1.00,+1.00,-2.00,-2.00,+1.00,-5.00,-13.00,-12.00,+0.00,-4.00,+1.00,+0.00,+2.00
-2.00,+2.00,+1.00,+0.00,+1.00,-3.00,+2.00,-1.00,-5.00,+6.00,+14.00,+3.00,+1.00,-5.00,-2.00,-4.00
+2.00,+14.00,+3.00,-2.00,-1.00,-6.00,-8.00,-9.00,+6.00,+15.00,+3.00,+1.00,+3.00,+1.00,+0.00,+1.00
-1.00,-10.00,-4.00,+0.00,+0.00,+13.00,+4.00,-1.00,-6.00,-27.00,-19.00,-4.00,-5.00,-7.00,-2.00,-5.00
+4.00,+14.00,+4.00,-1.00,+0.00,-6.00,-2.00,-7.00,+10.00,+4.00,+1.00,-3.00,-4.00,-1.00,-2.00,-1.00
-2.00,-9.00,+2.00,+2.00,-1.00,-1.00,-1.00,+3.00,-4.00,+13.00,+13.00,+4.00,+1.00,-4.00,-1.00,-1.00
+3.00,-2.00,-2.00,-1.00,+1.00,+3.00,+0.00,-2.00,-1.00,-8.00,-3.00,+0.00,+2.00,+6.00,+0.00,-3.00
+1.00,-8.00,-1.00,+1.00,+2.00,-2.00,-1.00,-1.00,+8.00,-3.00,-10.00,-5.00,-3.00,+0.00,-2.00,-4.00
-4.00,-11.00,-12.00,-6.00,-3.00,-5.00,+0.00,+0.00,+2.00,-34.00,-10.00,-6.00,-2.00,-3.00,+0.00,+2.00
+2.00,+64.00,+12.00,+5.00,+0.00,+3.00,+0.00,+3.00,-13.00,+39.00,+25.00,+6.00,+4.00,-1.00,+1.00,+3.00
+4.00,-2.00,+3.00,+3.00,+0.00,+1.00,-1.00,+2.00,-5.00,-16.00,-9.00,-2.00,-1.00,+2.00,-1.00,-3.00
+2.00,-7.00,-8.00,-8.00,-1.00,-1.00,-2.00,-2.00,+0.00,-4.00,-4.00,-2.00,-2.00,-5.00,-5.00,-6.00
-8.00,+1.00,-3.00,+0.00,+1.00,-3.00,-1.00,-8.00,+11.00,+5.00,-4.00,-2.00,-3.00,+2.00,+2.00,+6.00
-12.00,-37.00,-5.00,+1.00,-4.00,-3.00,-1.00,+11.00,-11.00,-6.00,+2.00,+2.00,-1.00,-5.00,-4.00,-7.00
+15.00,+42.00,+7.00,-7.00,-3.00,-1.00,+2.00,+0.00,+2.00,-13.00,-3.00,-1.00,-3.00,-2.00,-1.00,+2.00
-4.00,-16.00,-8.00,+1.00,+0.00,+0.00,-4.00,-5.00,+2.00,+0.00,-1.00,-2.00,-3.00,+1.00,+0.00,+0.00
+2.00,+1.00,+3.00,-1.00,+0.00,+0.00,-1.00,-6.00,-5.00,+10.00,+6.00,+0.00,+0.00,+0.00,-1.00,-4.00
-2.00,-22.00,-2.00,-3.00,+0.00,-2.00,+0.00,+1.00,+3.00,-12.00,-3.00,-3.00,-3.00,-2.00,-1.00,+3.00
+2.00,-5.00,+0.00,+3.00,-1.00,+1.00,+1.00,+0.00,-3.00,+4.00,-2.00,+1.00,-2.00,-2.00,-3.00,-5.00
-3.00,-12.00,-9.00,+0.00,-2.00,+0.00,+0.00,+2.00,+1.00,-2.00,+0.00,+0.00,-1.00,+1.00,+0.00,-3.00
+1.00,+9.00,+1.00,+1.00,+2.00,-2.00,-3.00,+2.00,-3.00,+5.00,-2.00,+2.00,+1.00,+0.00,+1.00,+2.00
-13.00,-3.00,+2.00,+5.00,+0.00,-2.00,+2.00,+14.00,+0.00,-2.00,+3.00,-2.00,+0.00,-5.00,-1.00,-3.00
-5.00,-7.00,-2.00,-1.00,-2.00,+0.00,-1.00,-2.00,+3.00,+0.00,-3.00,-2.00,+1.00,+3.00,+0.00,+1.00
-1.00,+5.00,+0.00,-1.00,-1.00,-1.00,+1.00,+0.00,-2.00,-10.00,-5.00,+0.00,+3.00,+0.00,+1.00,-1.00
-9.00,-2.00,+1.00,+1.00,+0.00,-3.00,-3.00,+0.00,-1.00,+10.00,+2.00,+0.00,-2.00,+6.00,-2.00,-2.00
+1.00,+0.00,-1.00,-4.00,+1.00,+1.00,-4.00,-11.00,+0.00,-1.00,+4.00,-5.00,-8.00,-11.00,-4.00,-3.00
+3.00,-5.00,-2.00,-2.00,+2.00,+7.00,+7.00,-2.00,+4.00,-5.00,-5.00,-3.00,-3.00,-2.00,+0.00,+3.00
-2.00,+0.00,+0.00,+0.00,-1.00,-15.00,-1.00,+4.00,+0.00,-6.00,-5.00,-3.00,-3.00,+0.00,-3.00,+2.00
+1.00,+6.00,-1.00,-2.00,-2.00,+0.00,+0.00,-1.00,-4.00,+9.00,+3.00,+2.00,+2.00,-2.00,-3.00,-5.00
+0.00,-7.00,-6.00,-4.00,-3.00,-1.00,-4.00,-6.00,+0.00,-5.00,-2.00,-1.00,+3.00,+3.00,+2.00,-1.00
+14.00,+1.00,-1.00,-3.00,-6.00,-1.00,+1.00,+10.00,+0.00,-4.00,-2.00,+2.00,-1.00,+1.00,+1.00,+2.00
-1.00,-1.00,+3.00,+4.00,+1.00,+3.00,+0.00,-5.00,-1.00,+1.00,-2.00,-3.00,-2.00,-5.00,-1.00,-2.00
-3.00,+3.00,-2.00,-5.00,-2.00,-2.00,+0.00,+1.00,+2.00,+4.00,+2.00,+0.00,+0.00,+0.00,-1.00,-2.00
+19.00,+1.00,-3.00,-3.00,-1.00,-1.00,+1.00,+1.00,-3.00,-7.00,-2.00,-1.00,-3.00,-2.00,+0.00,-1.00
-24.00,-10.00,+1.00,+0.00,+0.00,-3.00,-5.00,-7.00,+1.00,+3.00,-3.00,+2.00,+5.00,-2.00,-1.00,+1.00
+3.00,+3.00,-2.00,-2.00,+3.00,+7.00,+1.00,+1.00,+0.00,-1.00,-2.00,+1.00,-11.00,+6.00,+0.00,+1.00
-3.00,+1.00,-1.00,-2.00,-18.00,-2.00,-2.00,-1.00,+0.00,+2.00,+1.00,-2.00,-11.00,-3.00,-1.00,-2.00
+3.00,-2.00,+2.00,+2.00,+15.00,+24.00,+3.00,-3.00,-2.00,-9.00,-7.00,-13.00,-22.00,-11.00,-6.00,-4.00
