+9.00,+3.00,+5.00,+2.00,+0.00,+0.00,-2.00,-7.00,-5.00,-16.00,-6.00,-1.00,+0.00,-4.00,+1.00,-1.00
+14.00,-9.00,-1.00,+0.00,-1.00,-2.00,-8.00,-27.00,-1.00,-10.00,-10.00,-4.00,+1.00,+0.00,+0.00,+3.00
-22.00,+9.00,-13.00,-8.00,-6.00,-2.00,+2.00,+13.00,+1.00,+17.00,+8.00,+1.00,+0.00,+0.00,-2.00,-2.00
-8.00,-24.00,-15.00,-5.00,-3.00,-4.00,-5.00,-23.00,-5.00,+3.00,+3.00,+0.00,-1.00,-5.00,-4.00,-4.00
+8.00,-34.00,-1.00,+0.00,+1.00,+1.00,+4.00,+29.00,-3.00,+4.00,+3.00,+2.00,-3.00,-2.00,-4.00,-6.00
+14.00,+75.00,+18.00,+6.00,+4.00,+2.00,+3.00,+9.00,+11.00,-4.00,-8.00,-2.00,-1.00,+1.00,+6.00,+10.00
+1.00,-7.00,+3.00,+0.00,+2.00,+2.00,+4.00,+3.00,-3.00,-1.00,-5.00,-2.00,+0.00,+4.00,+5.00,+4.00
-12.00,-8.00,-2.00,+0.00,+0.00,-2.00,-5.00,-15.00,-3.00,-32.00,-1.00,-3.00,+0.00,+1.00,-4.00,-2.00
+1.00,+9.00,-10.00,-3.00,-4.00,-2.00,+1.00,+24.00,-5.00,+28.00,+1.00,+0.00,-4.00,-2.00,+1.00,-2.00
-22.00,-31.00,-13.00,-6.00,-2.00,-2.00,-6.00,-27.00,+2.00,-10.00,-3.00,-3.00,-4.00,-6.00,-6.00,-7.00
-1.00,-19.00,+9.00,+2.00,-1.00,-2.00,+3.00,+26.00,+0.00,+5.00,+7.00,+1.00,-3.00,-9.00,-15.00,-4.00
+4.00,+27.00,-1.00,+1.00,+0.00,+0.00,-7.00,-8.00,+1.00,-15.00,-11.00,-2.00,-1.00,+3.00,+5.00,+4.00
-1.00,-14.00,+0.00,+0.00,-1.00,-2.00,-8.00,-7.00,+6.00,+17.00,+6.00,+2.00,+2.00,+4.00,+6.00,+4.00
-7.00,+1.00,-5.00,-3.00,-3.00,-1.00,+8.00,+2.00,-3.00,-44.00,-16.00,-3.00,-2.00,-3.00,-3.00,+5.00
+5.00,+15.00,+12.00,+0.00,+0.00,+2.00,-8.00,-11.00,-2.00,+50.00,+19.00,+1.00,-1.00,+2.00,+5.00,+6.00
-10.00,-19.00,-5.00,-2.00,-1.00,-3.00,+2.00,+6.00,-4.00,-29.00,-10.00,-1.00,-1.00,+8.00,+9.00,-3.00
-3.00,+9.00,+1.00,+0.00,+0.00,-3.00,-9.00,-21.00,-2.00,+30.00,+9.00,+0.00,-2.00,-16.00,-7.00,-1.00
-4.00,-3.00,-5.00,+0.00,+1.00,+3.00,+14.00,+40.00,-3.00,-39.00,-9.00,-2.00,-1.00,+2.00,+2.00,-3.00
-8.00,-23.00,-18.00,-4.00,-4.00,-4.00,-4.00,-18.00,+1.00,-54.00,-16.00,-2.00,+0.00,-27.00,-31.00,+5.00
+3.00,+14.00,+16.00,+5.00,+2.00,+3.00,-3.00,-11.00,-3.00,+30.00,-2.00,-3.00,-1.00,+16.00,+55.00,-1.00
-11.00,-10.00,+5.00,+0.00,+0.00,-1.00,-8.00,+15.00,-2.00,-55.00,-22.00,-6.00,-2.00,+7.00,+11.00,+1.00
-2.00,-8.00,-6.00,-3.00,-3.00,-1.00,-3.00,+11.00,+0.00,+95.00,+41.00,+8.00,+0.00,+1.00,+5.00,-4.00
-2.00,-9.00,-5.00,+0.00,-2.00,-1.00,+7.00,-1.00,+1.00,-19.00,-8.00,-3.00,-3.00,+7.00,+6.00,-4.00
-19.00,+2.00,-3.00,-5.00,-4.00,-4.00,-3.00,-16.00,+3.00,+49.00,-6.00,-1.00,-3.00,-12.00,-25.00,+2.00
-4.00,+16.00,-1.00,+1.00,+1.00,+0.00,+0.00,-1.00,-13.00,+16.00,+24.00,+2.00,-1.00,-5.00,-9.00,-11.00
-5.00,-24.00,+0.00,+2.00,-1.00,-3.00,+3.00,-9.00,-2.00,-11.00,-10.00,-4.00,-2.00,-2.00,-2.00,+1.00
-16.00,-13.00,-14.00,-6.00,-4.00,-1.00,-11.00,+5.00,-3.00,+5.00,+0.00,+0.00,+0.00,+11.00,+6.00,-2.00
+13.00,-26.00,+10.00,+4.00,+5.00,+1.00,+2.00,+3.00,+3.00,-58.00,-14.00,-5.00,-1.00,-1.00,-6.00,+0.00
+8.00,+48.00,+7.00,+1.00,-1.00,-1.00,+7.00,-5.00,+1.00,+33.00,-8.00,+0.00,+1.00,+8.00,+11.00,+4.00
-4.00,-9.00,-4.00,-3.00,-2.00,-2.00,-9.00,-21.00,+0.00,+24.00,+10.00,+0.00,-1.00,-2.00,-9.00,+0.00
+10.00,+25.00,-9.00,-1.00,+0.00,+1.00,+1.00,+12.00,-13.00,-22.00,-12.00,-6.00,-4.00,+2.00,+6.00,-4.00
+2.00,-52.00,+12.00,+3.00,+1.00,+1.00,+1.00,+28.00,+5.00,+17.00,+17.00,+6.00,+1.00,+1.00,-16.00,-1.00
-6.00,-14.00,-6.00,-3.00,+0.00,+1.00,+11.00,-2.00,-10.00,-48.00,-12.00,-3.00,-2.00,-5.00,+6.00,-3.00
-3.00,+12.00,+2.00,+1.00,-1.00,-4.00,-10.00,-22.00,-10.00,-52.00,-4.00,+3.00,+4.00,+2.00,+7.00,+3.00
-2.00,-7.00,-8.00,-3.00,-3.00,-5.00,-7.00,-21.00,+1.00,+70.00,+3.00,-1.00,-1.00,+3.00,+0.00,-4.00
+7.00,+15.00,-9.00,-5.00,-6.00,-4.00,+0.00,+27.00,+8.00,-19.00,-6.00,-4.00,-4.00,-8.00,-10.00,+1.00
+3.00,-11.00,+6.00,+4.00,+3.00,+2.00,+7.00,-3.00,+4.00,+30.00,+11.00,-1.00,+0.00,+1.00,-16.00,-10.00
+22.00,+15.00,+3.00,-1.00,+2.00,+2.00,-2.00,-22.00,-6.00,-11.00,-3.00,+1.00,-2.00,+2.00,+2.00,+3.00
-15.00,-10.00,-5.00,-1.00,+1.00,+0.00,+7.00,+27.00,-1.00,-42.00,-10.00,-4.00,-1.00,+5.00,+14.00,-3.00
-6.00,+11.00,+11.00,+0.00,+1.00,-1.00,-2.00,-24.00,-11.00,-8.00,-7.00,-5.00,-3.00,-6.00,-13.00,+0.00
+0.00,+3.00,+5.00,-1.00,-2.00,-4.00,-5.00,+22.00,+10.00,+56.00,+23.00,+5.00,+3.00,+1.00,+2.00,+9.00
+7.00,-7.00,-9.00,-2.00,-2.00,-1.00,+2.00,+20.00,-6.00,+29.00,-4.00,-1.00,+0.00,-9.00,-23.00,-3.00
-5.00,-48.00,-9.00,-5.00,-3.00,-6.00,+3.00,-11.00,-6.00,-62.00,-9.00,-5.00,-5.00,-10.00,+6.00,-5.00
+3.00,+70.00,+12.00,+4.00,+1.00,+1.00,-20.00,+13.00,+15.00,+84.00,+30.00,+7.00,+3.00,+18.00,+20.00,+11.00
+7.00,-18.00,-2.00,+4.00,+3.00,+6.00,-2.00,-8.00,-7.00,-80.00,-17.00,-4.00,-3.00,+2.00,-1.00,-11.00
-4.00,+4.00,+13.00,+2.00,+1.00,+3.00,-3.00,-7.00,+5.00,+28.00,-8.00,-8.00,-4.00,-7.00,-5.00,+7.00
-6.00,+0.00,-4.00,+0.00,+0.00,+0.00,-5.00,-35.00,+7.00,-4.00,+0.00,-3.00,+1.00,+6.00,-5.00,+4.00
-14.00,-20.00,-12.00,-3.00,-4.00,-5.00,+3.00,+34.00,-5.00,-16.00,-15.00,-2.00,-1.00,-22.00,-23.00,-9.00
-1.00,-3.00,-13.00,-8.00,-8.00,-4.00,-1.00,-28.00,-14.00,+6.00,+24.00,+2.00,+0.00,+2.00,+1.00,-11.00
+3.00,-29.00,-14.00,+0.00,+1.00,+0.00,+6.00,+15.00,-4.00,-18.00,+0.00,+0.00,-4.00,-2.00,-4.00,-14.00
+5.00,+1.00,+21.00,+5.00,+3.00,+4.00,-1.00,+0.00,+10.00,+27.00,+5.00,+2.00,+2.00,-1.00,+9.00,+5.00
+6.00,+55.00,+3.00,+0.00,-1.00,+0.00,+6.00,-4.00,+2.00,-33.00,-16.00,-3.00,+1.00,+5.00,+2.00,+8.00
-30.00,-13.00,-1.00,-2.00,+0.00,+1.00,-4.00,-18.00,+6.00,-11.00,-14.00,-4.00,-4.00,-8.00,-23.00,-1.00
-25.00,-13.00,-5.00,-4.00,-5.00,-2.00,-2.00,+1.00,-4.00,+40.00,+0.00,-1.00,-2.00,-4.00,+4.00,-4.00
-11.00,-17.00,-32.00,-7.00,-3.00,-6.00,-9.00,-33.00,-2.00,-43.00,-2.00,+0.00,-2.00,-5.00,-15.00,+0.00
+24.00,+59.00,+24.00,+7.00,+4.00,+4.00,+5.00,+16.00,-17.00,-15.00,+15.00,+6.00,+0.00,+1.00,-6.00,-10.00
-9.00,-8.00,-8.00,+3.00,+1.00,+0.00,+10.00,-12.00,+12.00,+28.00,-5.00,+2.00,+2.00,-2.00,+4.00,-3.00
-8.00,+1.00,+3.00,-1.00,-3.00,-1.00,-4.00,+19.00,-12.00,-49.00,-7.00,-4.00,-2.00,+1.00,+5.00,+9.00
+7.00,+10.00,+6.00,+0.00,+1.00,+2.00,-3.00,+8.00,+3.00,+22.00,-7.00,-5.00,-4.00,-6.00,+2.00,+0.00
-15.00,-8.00,-15.00,-7.00,-4.00,-3.00,-1.00,-20.00,-3.00,+18.00,+13.00,+2.00,-2.00,+8.00,+10.00,-2.00
-6.00,-15.00,-8.00,-4.00,-4.00,-6.00,-8.00,-16.00,-25.00,-36.00,+8.00,+0.00,+0.00,-1.00,+20.00,+8.00
+0.00,+5.00,+13.00,+2.00,+1.00,+0.00,-3.00,-35.00,+35.00,-6.00,-5.00,-1.00,+0.00,-5.00,-20.00,+2.00
+6.00,+35.00,+17.00,+3.00,-1.00,+0.00,+6.00,+16.00,+5.00,+15.00,+1.00,+3.00,+2.00,+0.00,+4.00,-13.00
-7.00,-36.00,-13.00,+0.00,+1.00,+1.00,+3.00,+3.00,-11.00,-47.00,-19.00,-8.00,-2.00,+2.00,+5.00,+9.00
+10.00,+0.00,+2.00,+0.00,+0.00,-2.00,-4.00,-8.00,+17.00,+34.00,-6.00,-2.00,-1.00,+0.00,+0.00,+9.00
-19.00,-56.00,-15.00,-10.00,-7.00,-7.00,-4.00,-10.00,-8.00,-10.00,+0.00,+0.00,-1.00,+1.00,+4.00,-9.00
+10.00,+58.00,+9.00,+2.00,+2.00,+1.00,-1.00,-8.00,-7.00,+2.00,+8.00,+4.00,+0.00,+1.00,-2.00,+10.00
+2.00,+21.00,+6.00,-1.00,-2.00,-3.00,+0.00,+16.00,+12.00,+34.00,+12.00,+3.00,+0.00,-9.00,-14.00,-19.00
+26.00,+60.00,+17.00,+7.00,+6.00,+11.00,+21.00,+5.00,+2.00,-26.00,-12.00,-3.00,-1.00,+0.00,+6.00,+13.00
+1.00,+5.00,-7.00,-4.00,-3.00,-3.00,-6.00,+3.00,+2.00,-3.00,-7.00,-7.00,-3.00,+6.00,+9.00,+2.00
-6.00,-20.00,-5.00,-3.00,-4.00,-3.00,+0.00,+6.00,-7.00,-5.00,+6.00,+5.00,+3.00,+4.00,+3.00,-7.00
-13.00,-43.00,-16.00,-3.00,-2.00,-3.00,-6.00,-31.00,+0.00,+4.00,-12.00,-5.00,-6.00,-7.00,-11.00,-5.00
-1.00,+12.00,-5.00,-7.00,-7.00,-7.00,-10.00,-9.00,-9.00,+13.00,+13.00,+5.00,+0.00,+0.00,-45.00,-12.00
-6.00,+14.00,+0.00,+3.00,+3.00,-2.00,+8.00,-31.00,+3.00,-11.00,-4.00,-1.00,+0.00,-10.00,+49.00,-1.00
-2.00,-6.00,+9.00,+1.00,+1.00,+4.00,+3.00,+21.00,-7.00,-7.00,-2.00,-2.00,-1.00,-2.00,-7.00,+4.00
+22.00,-49.00,-6.00,+3.00,+3.00,+5.00,+9.00,+14.00,-2.00,+4.00,+2.00,+0.00,+1.00,+4.00,+13.00,+3.00
+5.00,+22.00,+2.00,-2.00,-1.00,-1.00,-7.00,+18.00,-4.00,-48.00,-19.00,-6.00,-5.00,+4.00,-7.00,-10.00
+2.00,+9.00,+5.00,-1.00,-1.00,+0.00,-2.00,-15.00,+41.00,+36.00,+13.00,+1.00,+1.00,+7.00,-3.00,+15.00
-9.00,-13.00,-4.00,-3.00,-4.00,-3.00,-4.00,-6.00,-3.00,-8.00,+4.00,+1.00,-2.00,-19.00,-16.00,-13.00
-12.00,+5.00,+4.00,-3.00,-3.00,-5.00,+3.00,-22.00,-14.00,+16.00,+3.00,+0.00,-1.00,-7.00,-5.00,-14.00
+12.00,+0.00,+0.00,+1.00,+2.00,+2.00,+4.00,+28.00,+5.00,-42.00,-10.00,-2.00,+0.00,-7.00,+5.00,+6.00
+22.00,+1.00,+7.00,+5.00,+4.00,+3.00,+2.00,+19.00,-17.00,+17.00,-2.00,+4.00,-1.00,+3.00,-3.00,+1.00
-4.00,-5.00,-5.00,-1.00,-1.00,-3.00,+5.00,+9.00,+4.00,-31.00,-7.00,+0.00,+0.00,+7.00,+15.00,+9.00
-11.00,-10.00,-5.00,-1.00,-2.00,+2.00,+0.00,-13.00,+3.00,+14.00,+7.00,+1.00,-5.00,+2.00,-2.00,+2.00
-7.00,-43.00,-13.00,-6.00,-6.00,-3.00,-4.00,-1.00,-6.00,+0.00,+2.00,-4.00,-3.00,-5.00,-1.00,-9.00
-10.00,+86.00,+11.00,+3.00,+1.00,+0.00,-9.00,-25.00,-1.00,-4.00,+2.00,+1.00,-3.00,-1.00,-10.00,-6.00
+8.00,-7.00,+8.00,+2.00,+2.00,+3.00,+9.00,+43.00,-1.00,+10.00,-10.00,-4.00,-2.00,-19.00,-11.00,-1.00
+1.00,-26.00,-16.00,-5.00,-5.00,-5.00,+5.00,-11.00,-5.00,+7.00,+0.00,-3.00,-3.00,+5.00,+2.00,-7.00
-17.00,-11.00,-13.00,-4.00,-3.00,+0.00,-10.00,-2.00,+3.00,+15.00,+3.00,+1.00,+1.00,+5.00,+16.00,+10.00
+4.00,-33.00,+14.00,+5.00,+4.00,+3.00,+2.00,+23.00,-12.00,-13.00,-1.00,+0.00,+2.00,+6.00,+3.00,+6.00
+12.00,+27.00,+6.00,+0.00,-1.00,-2.00,-6.00,-12.00,-9.00,-16.00,+4.00,-3.00,-5.00,-7.00,-9.00,+0.00
-32.00,-15.00,-8.00,-4.00,-4.00,-4.00,-5.00,-7.00,-2.00,+4.00,-7.00,-4.00,-2.00,-3.00,-3.00,-10.00
-13.00,-19.00,-39.00,-7.00,-3.00,-6.00,-5.00,-33.00,+13.00,+20.00,-5.00,-2.00,-3.00,-11.00,-1.00,-3.00
+18.00,-62.00,+15.00,+4.00,+4.00,+2.00,+4.00,+93.00,-10.00,+14.00,+2.00,+2.00,+0.00,-2.00,-7.00,+1.00
+13.00,-32.00,+15.00,+2.00,+0.00,-1.00,+14.00,-13.00,-8.00,-26.00,-3.00,-3.00,-2.00,+1.00,+3.00,+3.00
+23.00,+33.00,+23.00,+8.00,+6.00,+10.00,-2.00,+27.00,+1.00,-67.00,-12.00,-1.00,+2.00,+4.00,+6.00,+6.00
-6.00,-43.00,-1.00,-2.00,-3.00,-2.00,-5.00,-14.00,+6.00,+74.00,+1.00,-4.00,-4.00,+4.00,-10.00,-4.00
-24.00,-6.00,-29.00,-10.00,-7.00,-4.00,-4.00,-11.00,-7.00,-19.00,+2.00,+0.00,-2.00,-4.00,+13.00,-13.00
-7.00,-7.00,-15.00,-1.00,-2.00,-3.00,-12.00,-31.00,-22.00,-34.00,+7.00,-1.00,+0.00,+6.00,-20.00,-8.00
-3.00,-3.00,-14.00,-9.00,-5.00,-5.00,-4.00,+13.00,+3.00,-62.00,-8.00,-3.00,-4.00,-21.00,+9.00,+16.00
-1.00,-9.00,-19.00,-1.00,-1.00,-3.00,-4.00,-28.00,+8.00,+48.00,-3.00,+0.00,+1.00,+4.00,-7.00,-3.00
+27.00,-23.00,+38.00,+11.00,+4.00,+4.00,+1.00,-5.00,-5.00,-14.00,-3.00,+2.00,+4.00,+8.00,+2.00,-14.00
+10.00,-23.00,+2.00,+1.00,-1.00,+5.00,+10.00,+27.00,+3.00,+4.00,-1.00,-1.00,-3.00,+5.00,+3.00,+6.00
-14.00,+31.00,-2.00,-2.00,-3.00,-3.00,-10.00,-39.00,-12.00,-29.00,-5.00,+0.00,+0.00,+0.00,-4.00,+0.00
+4.00,+10.00,+4.00,-1.00,-2.00,+0.00,+0.00,+22.00,+21.00,+19.00,-7.00,-5.00,-7.00,-13.00,-13.00,-9.00
-17.00,+4.00,-13.00,-7.00,-5.00,-6.00,+3.00,-72.00,-14.00,-27.00,+0.00,-3.00,-3.00,-9.00,-12.00,-11.00
-4.00,-71.00,-27.00,-7.00,-6.00,-9.00,-25.00,+18.00,+2.00,+47.00,+17.00,+5.00,+0.00,+1.00,+13.00,-3.00
+35.00,+76.00,+34.00,+8.00,+6.00,+5.00,+13.00,-15.00,-2.00,-3.00,-3.00,+2.00,+4.00,+3.00,+0.00,+14.00
-15.00,-20.00,+14.00,+2.00,+1.00,-1.00,-12.00,-30.00,-1.00,-34.00,-6.00,+2.00,+4.00,+11.00,+27.00,+16.00
-7.00,+67.00,+1.00,+0.00,-4.00,-1.00,-1.00,+28.00,+5.00,+20.00,-2.00,-3.00,-2.00,+6.00,-30.00,-13.00
+0.00,+44.00,+14.00,+3.00,+2.00,+8.00,+39.00,-9.00,+1.00,+2.00,-7.00,-4.00,-5.00,-16.00,-2.00,-10.00
-27.00,-42.00,-27.00,-7.00,-6.00,-13.00,-45.00,-34.00,+14.00,+55.00,+1.00,-5.00,-10.00,-20.00,-30.00,-18.00
+17.00,-18.00,-1.00,+0.00,+3.00,+4.00,+23.00,+44.00,-15.00,-38.00,+10.00,+0.00,-5.00,+0.00,-9.00,-11.00
-9.00,-57.00,-27.00,-10.00,+3.00,-2.00,-7.00,+37.00,-15.00,-51.00,-20.00,-5.00,-3.00,-1.00,+7.00,+17.00
-9.00,+104.00,+65.00,+11.00,-1.00,+2.00,+16.00,+8.00,+0.00,+42.00,+9.00,+6.00,+7.00,-2.00,-3.00,-3.00
+9.00,-105.00,+1.00,+6.00,+3.00,+0.00,+8.00,+18.00,+9.00,+16.00,+22.00,+9.00,+10.00,+34.00,+34.00,+2.00
-6.00,+52.00,+13.00,-1.00,-1.00,+1.00,+2.00,-24.00,-1.00,+17.00,-6.00,-2.00,-2.00,-5.00,+10.00,+12.00
-19.00,-40.00,-25.00,-6.00,-8.00,-9.00,-21.00,-64.00,+2.00,+30.00,+15.00,-1.00,-1.00,-24.00,-34.00,-20.00
+17.00,-8.00,-30.00,-8.00,+2.00,+5.00,-2.00,+61.00,+12.00,-20.00,-13.00,-1.00,+10.00,+7.00,+16.00,+9.00
+11.00,+46.00,+13.00,+1.00,+1.00,+0.00,-4.00,+63.00,-8.00,+12.00,-9.00,-5.00,-24.00,-7.00,-31.00,+1.00
-2.00,-22.00,+3.00,+2.00,+0.00,+1.00,+10.00,+51.00,-7.00,-21.00,-3.00,-2.00,-4.00,+6.00,+10.00,+0.00
-2.00,+17.00,-9.00,-5.00,-1.00,+5.00,+6.00,-6.00,-6.00,-65.00,-11.00,+0.00,+4.00,+15.00,+21.00,+11.00
-13.00,+22.00,-2.00,-3.00,-2.00,-7.00,-25.00,-58.00,+13.00,+104.00,+1.00,-2.00,-3.00,+7.00,-19.00,-16.00
-14.00,-22.00,-14.00,-4.00,-7.00,-4.00,+3.00,-33.00,+8.00,-1.00,+11.00,+5.00,+10.00,-4.00,+16.00,-7.00
+0.00,-37.00,-29.00,-8.00,-2.00,-2.00,-10.00,+0.00,-12.00,-45.00,-4.00,+0.00,+0.00,-13.00,-5.00,-5.00
+25.00,-18.00,+50.00,+11.00,-2.00,-3.00,+8.00,+76.00,+13.00,+43.00,+3.00,-1.00,-4.00,-5.00,-12.00,+3.00
-13.00,-12.00,-22.00,-1.00,-1.00,-2.00,-6.00,-24.00,-18.00,-46.00,-2.00,-1.00,+2.00,+2.00,+17.00,-5.00
+5.00,+50.00,+16.00,+1.00,+5.00,+4.00,+11.00,+9.00,-7.00,+20.00,-3.00,+0.00,+8.00,+6.00,+3.00,+11.00
-5.00,+25.00,+34.00,+8.00,+1.00,+0.00,-2.00,-26.00,+9.00,+3.00,+2.00,+0.00,+3.00,+14.00,+10.00,+2.00
+0.00,-14.00,-25.00,-3.00,+3.00,+3.00,-3.00,+24.00,-1.00,+28.00,+5.00,-5.00,-10.00,-21.00,-8.00,-7.00
-10.00,-16.00,+3.00,-2.00,-3.00,-4.00,-8.00,+5.00,-6.00,-34.00,-13.00,-2.00,-3.00,-1.00,-30.00,-11.00
-11.00,-46.00,-24.00,-3.00,+1.00,+4.00,+10.00,-40.00,-28.00,-51.00,-6.00,-2.00,+4.00,-5.00,+3.00,+14.00
+4.00,+10.00,-8.00,-7.00,-5.00,-8.00,-21.00,-40.00,+13.00,+4.00,+13.00,+3.00,+3.00,+3.00,-10.00,-3.00
-1.00,+8.00,+14.00,+2.00,+1.00,+1.00,-1.00,-16.00,-3.00,-65.00,-5.00,+7.00,+11.00,+20.00,+51.00,+16.00
+3.00,-22.00,-23.00,-3.00,+0.00,+0.00,-1.00,+9.00,-9.00,+16.00,+5.00,-3.00,-10.00,-5.00,-6.00,-4.00
+11.00,+17.00,+10.00,+1.00,-1.00,+1.00,+13.00,-35.00,+20.00,-15.00,-8.00,-3.00,-5.00,-5.00,-18.00,-10.00
+3.00,+0.00,+11.00,+3.00,+4.00,+7.00,-3.00,+10.00,+4.00,+40.00,+0.00,+1.00,+6.00,+6.00,+15.00,+3.00
+7.00,+12.00,-7.00,-4.00,-9.00,-8.00,-6.00,+0.00,-2.00,+4.00,-2.00,-5.00,-10.00,-17.00,-28.00,-8.00
-12.00,-25.00,-3.00,-1.00,+1.00,-1.00,-1.00,-9.00,+5.00,-7.00,+2.00,+1.00,-1.00,+8.00,+29.00,+12.00
-7.00,-18.00,-15.00,-8.00,-8.00,-11.00,-7.00,-1.00,+1.00,+32.00,+3.00,+1.00,+1.00,-6.00,-3.00,+4.00
+23.00,+32.00,+27.00,+10.00,+5.00,-3.00,-7.00,+9.00,-13.00,-16.00,-5.00,-1.00,-3.00,-8.00,-7.00,-4.00
-3.00,+28.00,-3.00,-5.00,+2.00,+2.00,+8.00,-53.00,-4.00,+6.00,+1.00,+0.00,-1.00,+0.00,-5.00,-9.00
+5.00,-91.00,-31.00,-2.00,-1.00,+3.00,-8.00,-8.00,+7.00,-12.00,-5.00,+2.00,+6.00,+11.00,+9.00,+7.00
+10.00,+74.00,+42.00,+8.00,+2.00,+4.00,+4.00,+15.00,+6.00,+40.00,+8.00,-4.00,-4.00,-4.00,+5.00,+9.00
-24.00,-94.00,-25.00,-6.00,-3.00,-6.00,+3.00,+15.00,-11.00,-57.00,-12.00,+0.00,+6.00,+14.00,+6.00,-8.00
-19.00,-4.00,-28.00,-6.00,-2.00,-2.00,+2.00,-1.00,+4.00,+26.00,+14.00,-4.00,-5.00,-7.00,-7.00,+5.00
+0.00,+96.00,+83.00,+11.00,+2.00,-3.00,-5.00,-5.00,-9.00,+24.00,-11.00,+3.00,-1.00,-16.00,-23.00,-13.00
+26.00,-59.00,-7.00,+6.00,+6.00,+9.00,+8.00,-14.00,-9.00,-43.00,-20.00,-11.00,-3.00,+3.00,+1.00,-17.00
+39.00,+38.00,+20.00,+8.00,+3.00,+4.00,+15.00,+56.00,+16.00,-36.00,+3.00,+2.00,+2.00,+2.00,+4.00,+2.00
-11.00,-19.00,-20.00,-2.00,+0.00,+2.00,+0.00,-39.00,+19.00,+73.00,+17.00,+4.00,+3.00,+6.00,-18.00,+25.00
-23.00,-17.00,-35.00,-15.00,-6.00,-5.00,+3.00,-18.00,-10.00,+4.00,+41.00,+6.00,+3.00,+13.00,+21.00,+17.00
-6.00,-8.00,+4.00,+3.00,+1.00,+0.00,-6.00,+18.00,-18.00,-40.00,+13.00,+14.00,+3.00,-8.00,+14.00,-26.00
-18.00,+4.00,-3.00,-7.00,-7.00,-5.00,+1.00,-91.00,-10.00,-17.00,-87.00,-30.00,-16.00,-7.00,-23.00,-29.00
+13.00,-8.00,+3.00,+6.00,+1.00,-3.00,-5.00,+87.00,+9.00,-14.00,-20.00,-8.00,-4.00,-21.00,-14.00,+2.00
+10.00,+16.00,-1.00,+2.00,+4.00,+0.00,-1.00,+17.00,+7.00,+21.00,+10.00,-5.00,-3.00,-2.00,-1.00,+4.00
-9.00,+6.00,-14.00,-7.00,-2.00,+9.00,-4.00,+21.00,+1.00,+31.00,+11.00,+4.00,+2.00,-1.00,-16.00,+11.00
-19.00,+0.00,-3.00,-4.00,-1.00,+4.00,+0.00,-31.00,-14.00,-11.00,+29.00,+8.00,+1.00,+3.00,+54.00,-1.00
-2.00,+6.00,+3.00,+0.00,-1.00,+2.00,+3.00,+13.00,+14.00,+35.00,+10.00,+6.00,+4.00,+15.00,-1.00,-1.00
-9.00,-51.00,-14.00,-3.00,+0.00,+2.00,+0.00,-67.00,-17.00,-31.00,-33.00,-14.00,-13.00,-16.00,-14.00,-20.00
+0.00,+27.00,+9.00,-4.00,-6.00,-7.00,-20.00,+38.00,+6.00,-10.00,+4.00,+3.00,+1.00,+0.00,+3.00,+16.00
+1.00,+7.00,+3.00,+1.00,+2.00,+3.00,+19.00,+5.00,+3.00,+25.00,+7.00,-1.00,-4.00,-20.00,-20.00,-3.00
-17.00,+13.00,+0.00,+5.00,+1.00,-2.00,-7.00,-16.00,-12.00,-16.00,-14.00,-4.00,+2.00,+13.00,+14.00,-9.00
+16.00,-16.00,+9.00,+1.00,-6.00,-2.00,-3.00,+22.00,-16.00,-43.00,+0.00,+2.00,+0.00,+1.00,-14.00,+10.00
-43.00,-55.00,-20.00,-10.00,-5.00,-11.00,+7.00,-35.00,+15.00,+41.00,+6.00,+1.00,+3.00,+19.00,+45.00,-10.00
+5.00,+54.00,+6.00,-8.00,-2.00,-4.00,-8.00,-38.00,-11.00,-13.00,+34.00,+0.00,-13.00,-37.00,-97.00,-26.00
+18.00,+29.00,+11.00,+3.00,+1.00,-3.00,-8.00,-40.00,-12.00,-40.00,-50.00,-12.00,-7.00,-8.00,+11.00,+14.00
+26.00,-12.00,-15.00,-2.00,+2.00,+3.00,+4.00,+13.00,-7.00,+13.00,-12.00,-3.00,+1.00,+7.00,+7.00,+22.00
-3.00,-13.00,-6.00,+2.00,+2.00,+2.00,+4.00,+29.00,+22.00,+40.00,+4.00,-5.00,+2.00,+3.00,-29.00,+5.00
-12.00,-4.00,-8.00,-1.00,-5.00,-14.00,-1.00,+50.00,-22.00,-35.00,+21.00,+9.00,+9.00,+18.00,+34.00,-10.00
-10.00,+17.00,-1.00,-4.00,-1.00,+18.00,+8.00,-39.00,-15.00,+25.00,+12.00,-2.00,-6.00,-18.00,-5.00,-61.00
+1.00,+23.00,-9.00,-1.00,+2.00,-9.00,-2.00,-51.00,+3.00,+8.00,+41.00,+28.00,-2.00,-15.00,-30.00,+13.00
+15.00,+19.00,+2.00,-1.00,-1.00,+0.00,-3.00,+92.00,-9.00,-34.00,-47.00,-37.00,-13.00,-8.00,+7.00,+29.00
+11.00,-19.00,+8.00,+4.00,+4.00,+8.00,+12.00,+4.00,+11.00,+27.00,+11.00,+4.00,+1.00,+3.00,+5.00,+18.00
-12.00,-8.00,-5.00,-2.00,-4.00,-8.00,-21.00,+13.00,-9.00,-28.00,-9.00,-1.00,+3.00,+23.00,-11.00,-10.00
+15.00,+19.00,+13.00,+4.00,+2.00,+1.00,+7.00,+38.00,+25.00,+25.00,+46.00,+10.00,+6.00,+1.00,+14.00,-11.00
+13.00,+3.00,-10.00,+0.00,-2.00,-4.00,+1.00,-25.00,-30.00,-31.00,+6.00,-1.00,-9.00,-10.00,+4.00,-34.00
-26.00,-4.00,-14.00,-4.00,-2.00,-7.00,-17.00,-109.00,+1.00,-3.00,-44.00,-7.00,-3.00,-6.00,-12.00,-1.00
+30.00,-7.00,+9.00,-2.00,-3.00,-2.00,+12.00,+127.00,-28.00,-18.00,+17.00,+6.00,+7.00,+3.00,+6.00,+9.00
-18.00,-6.00,-5.00,-8.00,+1.00,-9.00,-7.00,-72.00,+24.00,+17.00,-37.00,-23.00,-7.00,-7.00,+0.00,-20.00
-29.00,-8.00,-34.00,-5.00,-2.00,+7.00,-7.00,-104.00,+5.00,+5.00,+4.00,+8.00,+8.00,+14.00,-4.00,+38.00
+17.00,-22.00,+12.00,+10.00,+0.00,+14.00,+21.00,+56.00,-10.00,-21.00,+15.00,+4.00,+3.00,+9.00,+17.00,-1.00
+2.00,+15.00,+8.00,-2.00,+3.00,+0.00,-8.00,-56.00,+14.00,+36.00,+34.00,+17.00,+16.00,+21.00,+36.00,+13.00
+9.00,-1.00,-35.00,+1.00,-3.00,+8.00,+1.00,+64.00,-4.00,-27.00,-16.00,-23.00,-10.00,+0.00,-21.00,-12.00
-5.00,-34.00,+0.00,-17.00,+5.00,-7.00,+2.00,+36.00,-3.00,+3.00,-4.00,+15.00,-5.00,-30.00,-8.00,-22.00
+11.00,+49.00,-36.00,+4.00,-5.00,-18.00,-21.00,-48.00,+0.00,+19.00,-48.00,-26.00,-16.00,-17.00,-23.00,-6.00
-10.00,-14.00,-31.00,-4.00,-3.00,+18.00,+16.00,-35.00,-2.00,-21.00,+19.00,+8.00,+5.00,-10.00,-7.00,+39.00
-13.00,+14.00,+44.00,-3.00,-1.00,+1.00,+3.00,+77.00,-6.00,+1.00,-22.00,-2.00,+5.00,+24.00,+59.00,-36.00
-7.00,-10.00,+21.00,+8.00,+0.00,-13.00,+8.00,+33.00,+8.00,+9.00,+46.00,+22.00,+15.00,+24.00,+7.00,+10.00
+4.00,-11.00,-7.00,-11.00,-9.00,-14.00,-48.00,-32.00,-25.00,-17.00,-3.00,+12.00,-4.00,+6.00,+20.00,-26.00
+26.00,+6.00,+7.00,+7.00,-3.00,-59.00,+11.00,+81.00,+11.00,+1.00,-31.00,-23.00,-14.00,+49.00,-23.00,+17.00
-21.00,-2.00,-14.00,-6.00,-2.00,+6.00,-3.00,-92.00,-16.00,-1.00,+79.00,+18.00,-1.00,-44.00,-22.00,+6.00
+10.00,+20.00,-7.00,+2.00,-1.00,+21.00,+13.00,-14.00,+5.00,+5.00,-26.00,-33.00,-11.00,-11.00,-21.00,+10.00
+2.00,-19.00,+12.00,+2.00,+5.00,+16.00,+2.00,+22.00,-6.00,+1.00,+80.00,+20.00,+18.00,+27.00,+40.00,+5.00
+5.00,+0.00,-35.00,-11.00,-2.00,+4.00,-13.00,-29.00,-2.00,-7.00,-25.00,-12.00,-7.00,-29.00,-24.00,-2.00
+2.00,-24.00,+26.00,+3.00,-4.00,-13.00,-3.00,+21.00,+10.00,-3.00,+9.00,+1.00,-14.00,-22.00,+16.00,-11.00
+18.00,-2.00,-14.00,-3.00,-4.00,-13.00,-10.00,-1.00,+15.00,+1.00,-21.00,+2.00,-22.00,-52.00,-36.00,-4.00
-20.00,-13.00,-21.00,-9.00,+3.00,-44.00,-1.00,+37.00,-7.00,-7.00,-91.00,-22.00,-2.00,-14.00,+18.00,+8.00
-4.00,+5.00,+63.00,+13.00,-1.00,+14.00,+2.00,-7.00,+8.00,-18.00,+46.00,+22.00,+10.00,+33.00,-1.00,-3.00
-48.00,+0.00,-22.00,-6.00,-7.00,-5.00,-6.00,-74.00,+15.00,+34.00,-29.00,-5.00,+8.00,+37.00,+35.00,-2.00
+1.00,+6.00,+16.00,+6.00,-1.00,-7.00,-10.00,-27.00,-18.00,-9.00,+6.00,-3.00,+0.00,+30.00,-24.00,-8.00
+47.00,-2.00,-52.00,-5.00,+6.00,+31.00,+17.00,-4.00,+11.00,+34.00,+70.00,+24.00,+2.00,-46.00,+6.00,+3.00
-8.00,-7.00,+46.00,+3.00,+3.00,-13.00,-15.00,+12.00,-2.00,-22.00,-102.00,-35.00,-21.00,-26.00,+33.00,-18.00
+60.00,+37.00,+54.00,+6.00,-4.00,+19.00,+28.00,+7.00,+9.00,-34.00,-31.00,-1.00,+5.00,-8.00,+9.00,+44.00
-23.00,-28.00,-80.00,-26.00,-5.00,-18.00,-15.00,-51.00,+12.00,+28.00,-3.00,-15.00,+3.00,+38.00,-5.00,+4.00
-38.00,-35.00,+88.00,+18.00,-7.00,-1.00,-5.00,-37.00,+4.00,+9.00,+89.00,+26.00,+7.00,+42.00,+17.00,+2.00
-25.00,+16.00,-7.00,+10.00,+7.00,-11.00,-16.00,-36.00,-16.00,-9.00,-43.00,-5.00,-3.00,-46.00,-45.00,-47.00
+18.00,+7.00,-29.00,+6.00,+5.00,-4.00,-30.00,+82.00,+17.00,+13.00,-10.00,-17.00,-22.00,-7.00,-13.00,+34.00
+11.00,+16.00,+31.00,+4.00,+9.00,+84.00,+46.00,-58.00,-45.00,-6.00,+70.00,+31.00,+16.00,-18.00,+27.00,+3.00
-2.00,-12.00,-36.00,-11.00,-4.00,-10.00,+34.00,+26.00,+17.00,-6.00,-112.00,-38.00,-3.00,-17.00,-32.00,+5.00
+17.00,+9.00,+2.00,-2.00,+3.00,+24.00,+16.00,+29.00,+13.00,+21.00,+25.00,-8.00,+3.00,+23.00,-3.00,-6.00
-31.00,-4.00,-36.00,-1.00,-1.00,-5.00,-18.00,-39.00,-23.00,+19.00,+35.00,+1.00,+6.00,+9.00,-10.00,-28.00
+3.00,-1.00,+29.00,+6.00,-3.00,-26.00,-12.00,-14.00,+31.00,-40.00,+11.00,+13.00,+16.00,+42.00,+26.00,+24.00
-9.00,+21.00,-20.00,-11.00,-5.00,-4.00,-17.00,+37.00,-14.00,+24.00,+30.00,-1.00,-14.00,-10.00,+2.00,-54.00
+0.00,-13.00,+30.00,+5.00,-5.00,-2.00,+1.00,-11.00,-3.00,+4.00,+47.00,+3.00,-10.00,-61.00,-9.00,+64.00
-16.00,-7.00,-9.00,-1.00,+1.00,-15.00,+5.00,+9.00,-14.00,-44.00,-94.00,-19.00,-12.00,-2.00,-11.00,-36.00
-29.00,-12.00,-29.00,-13.00,-10.00,-19.00,-13.00,+82.00,+13.00,+2.00,+17.00,+1.00,+6.00,+4.00,+27.00,+43.00
+28.00,+5.00,+38.00,+10.00,+6.00,+18.00,+0.00,-17.00,+6.00,+1.00,+18.00,+9.00,+7.00,+44.00,-35.00,+15.00
+29.00,-6.00,-53.00,-27.00,-15.00,-30.00,+7.00,-11.00,+14.00,+8.00,-37.00,+0.00,+12.00,+42.00,+38.00,-9.00
-5.00,-20.00,-15.00,-1.00,+1.00,+12.00,+3.00,-51.00,+6.00,+9.00,+16.00,+10.00,+16.00,+18.00,+39.00,-11.00
-14.00,-3.00,+50.00,+8.00,+2.00,+19.00,+1.00,-4.00,-15.00,-20.00,+50.00,+23.00,+5.00,+72.00,+6.00,-9.00
+20.00,+10.00,-18.00,+8.00,+2.00,-30.00,-11.00,+32.00,+0.00,-14.00,-75.00,-40.00,-16.00,-83.00,-49.00,-36.00
-1.00,-4.00,-51.00,-5.00,+0.00,+1.00,-1.00,-78.00,-24.00,+6.00,+59.00,+12.00,+1.00,+30.00,-9.00,-27.00
-6.00,+15.00,-11.00,-23.00,-9.00,+6.00,-11.00,-49.00,+32.00,+7.00,-22.00,-16.00,-9.00,-84.00,+51.00,+75.00
+68.00,+41.00,+65.00,+27.00,+6.00,-1.00,+20.00,+44.00,-12.00,+30.00,-26.00,+3.00,-18.00,-10.00,-33.00,-73.00
+3.00,-42.00,-69.00,-10.00,-6.00,-25.00,-30.00,-93.00,+14.00,-18.00,-26.00,+2.00,+18.00,+26.00,+11.00,+53.00
-15.00,+33.00,+32.00,+12.00,+2.00,-1.00,+26.00,+72.00,+5.00,+26.00,+94.00,+33.00,+12.00,-6.00,+21.00,-8.00
+15.00,-6.00,-12.00,-2.00,+2.00,-12.00,-8.00,+62.00,-51.00,-72.00,-38.00,-4.00,+3.00,+32.00,-42.00,+16.00
-25.00,-44.00,+23.00,+1.00,+3.00,+1.00,-21.00,-64.00,-1.00,+17.00,-95.00,-35.00,-6.00,-8.00,-32.00,-90.00
+60.00,+46.00,-6.00,+3.00,+4.00,+14.00,+6.00,+52.00,+32.00,+2.00,+35.00,+15.00,+5.00,-20.00,+47.00,+117.00
-62.00,-38.00,-62.00,-24.00,-8.00,+13.00,+41.00,+14.00,-3.00,+9.00,-51.00,-7.00,-9.00,-32.00,-101.00,-56.00
+20.00,+7.00,+27.00,+4.00,-1.00,+32.00,-14.00,-45.00,-4.00,-29.00,+58.00,+8.00,-6.00,-19.00,+45.00,+76.00
-47.00,+10.00,+34.00,+12.00,+0.00,-24.00,-4.00,-47.00,+33.00,+51.00,-43.00,-4.00,-15.00,-52.00,-49.00,-18.00
+6.00,+0.00,+57.00,+11.00,+10.00,+27.00,+39.00,+117.00,-46.00,+7.00,-10.00,-1.00,+3.00,+22.00,-39.00,-34.00
+15.00,-2.00,-66.00,-11.00,+0.00,+26.00,-32.00,-17.00,+25.00,+4.00,+39.00,-4.00,-16.00,-13.00,+71.00,+24.00
+5.00,+15.00,+26.00,+12.00,+2.00,-16.00,+12.00,+35.00,-14.00,+10.00,-25.00,+17.00,+3.00,+18.00,-84.00,-15.00
-4.00,+1.00,-28.00,-5.00,-13.00,+6.00,-5.00,-46.00,-11.00,-32.00,-22.00,-3.00,+23.00,-28.00,+43.00,+24.00
-35.00,-39.00,-84.00,-26.00,-5.00,+0.00,-16.00,-12.00,-5.00,+10.00,+59.00,-3.00,-16.00,-32.00,-43.00,-73.00
+19.00,+23.00,+127.00,+10.00,-2.00,-48.00,-35.00,-78.00,+22.00,-14.00,+33.00,+7.00,-13.00,-13.00,-68.00,+31.00
-40.00,-26.00,-23.00,-4.00,-1.00,+15.00,+9.00,-32.00,+8.00,+11.00,-3.00,-11.00,+0.00,+15.00,+50.00,+1.00
+4.00,-7.00,-39.00,+2.00,+0.00,-9.00,-24.00,-38.00,+4.00,-8.00,+33.00,+7.00,+7.00,+4.00,-27.00,+16.00
-33.00,+27.00,+63.00,-3.00,-8.00,+35.00,+37.00,-62.00,+33.00,+40.00,+72.00,+23.00,+19.00,+110.00,+115.00,+31.00
+30.00,-29.00,-75.00,-3.00,+0.00,-12.00,-14.00,+95.00,-33.00,-49.00,-12.00,+2.00,+19.00,+22.00,-36.00,-67.00
+32.00,+19.00,+84.00,+8.00,+7.00,+10.00,+31.00,+111.00,+1.00,+8.00,-45.00,-27.00,-33.00,-68.00,+0.00,+28.00
-58.00,-39.00,-19.00,-15.00,-11.00,-17.00,-8.00,-128.00,-3.00,+15.00,-18.00,-5.00,+8.00,+13.00,-79.00,+6.00
+2.00,+2.00,-53.00,-1.00,+2.00,-59.00,-31.00,-50.00,-4.00,-32.00,-18.00,-8.00,-19.00,-57.00,+72.00,+22.00
-7.00,+9.00,+112.00,+18.00,+4.00,+80.00,-7.00,+6.00,-1.00,+51.00,+14.00,-5.00,-17.00,-30.00,-53.00,-40.00
+30.00,-34.00,-94.00,-11.00,-12.00,-3.00,-13.00,+42.00,+1.00,+4.00,+21.00,+5.00,+5.00,+35.00,-22.00,-53.00
+59.00,+29.00,-38.00,-8.00,+6.00,+24.00,+33.00,+127.00,-19.00,-18.00,+5.00,-4.00,+2.00,-24.00,+60.00,+26.00
-23.00,+28.00,+42.00,+16.00,-5.00,-22.00,-23.00,-15.00,-17.00,+29.00,-32.00,-4.00,+33.00,+47.00,-17.00,-15.00
+18.00,+1.00,+32.00,-2.00,-4.00,+6.00,+1.00,-20.00,+0.00,-2.00,-35.00,-3.00,-19.00,-82.00,+81.00,+28.00
-32.00,+4.00,+7.00,-7.00,-3.00,-75.00,-38.00,-128.00,+60.00,+19.00,+73.00,+25.00,-5.00,-47.00,-77.00,-52.00
-4.00,-58.00,-109.00,-31.00,+1.00,+35.00,+0.00,+27.00,-51.00,-30.00,-60.00,-39.00,-23.00,-45.00,+44.00,-22.00
-9.00,+3.00,+46.00,+17.00,+0.00,+42.00,+4.00,-1.00,-15.00,+10.00,-103.00,-18.00,-13.00,+43.00,-35.00,+38.00
-46.00,-20.00,-45.00,-9.00,-1.00,-33.00,+12.00,-120.00,-10.00,-11.00,+27.00,+13.00,+30.00,+52.00,+40.00,+27.00
+91.00,+38.00,+72.00,+18.00,+14.00,+35.00,+26.00,+126.00,-5.00,-9.00,+47.00,+12.00,+20.00,+24.00,+12.00,-82.00
+16.00,-11.00,-39.00,-7.00,-7.00,-36.00,-10.00,+5.00,-8.00,+17.00,+113.00,+21.00,-22.00,-29.00,-31.00,+42.00
-62.00,+0.00,+19.00,+7.00,+5.00,-10.00,+12.00,+44.00,+24.00,+0.00,-94.00,-20.00,+0.00,-30.00,-18.00,+11.00
+9.00,+8.00,-33.00,+7.00,+11.00,+25.00,+17.00,-111.00,+0.00,+15.00,+36.00,-8.00,+2.00,+50.00,-21.00,+47.00
-17.00,+14.00,-20.00,+2.00,+10.00,+17.00,+2.00,-17.00,-33.00,-23.00,-79.00,-6.00,+6.00,+13.00,+30.00,+2.00
+8.00,+18.00,+4.00,+10.00,+7.00,+4.00,-13.00,+1.00,+10.00,-10.00,-3.00,-2.00,-7.00,-22.00,+61.00,-67.00
+21.00,-18.00,-43.00,-3.00,+5.00,+17.00,+0.00,+35.00,-16.00,-28.00,-29.00,-3.00,-3.00,+32.00,-5.00,+46.00
-9.00,+7.00,+61.00,+8.00,-1.00,-29.00,+13.00,-17.00,-19.00,-18.00,+0.00,+9.00,+19.00,-10.00,+27.00,-50.00
-18.00,-23.00,-108.00,-38.00,-6.00,+52.00,+45.00,-19.00,+4.00,-29.00,+33.00,-7.00,-15.00,+11.00,-19.00,-7.00
-42.00,+21.00,+84.00,+17.00,-1.00,-31.00,-55.00,-90.00,+16.00,+31.00,+20.00,-1.00,+11.00,-2.00,-55.00,+20.00
-1.00,+17.00,+38.00,+15.00,+4.00,+21.00,+8.00,+13.00,-16.00,-50.00,-35.00,-16.00,-29.00,-46.00,+20.00,-16.00
-1.00,-3.00,-78.00,-9.00,-2.00,-1.00,-15.00,-31.00,+3.00,+8.00,-2.00,-2.00,+10.00,+55.00,+16.00,-30.00
-21.00,-33.00,-64.00,+3.00,-7.00,-73.00,-12.00,+12.00,+9.00,+28.00,+88.00,+32.00,+42.00,+107.00,+19.00,+13.00
-21.00,+9.00,+76.00,-10.00,+1.00,+63.00,+40.00,-53.00,-16.00,-47.00,-93.00,-32.00,-43.00,-89.00,-59.00,+10.00
+66.00,+19.00,+15.00,-8.00,-3.00,+23.00,-14.00,+16.00,-3.00,+43.00,-45.00,-18.00,-50.00,+9.00,+27.00,-37.00
+10.00,-5.00,-12.00,-2.00,+4.00,-1.00,+3.00,+4.00,+0.00,-40.00,-33.00,-8.00,+28.00,-48.00,-24.00,+60.00
-23.00,-12.00,+85.00,+20.00,-2.00,-41.00,-15.00,-85.00,-33.00,+14.00,-53.00,-11.00,+24.00,+87.00,-9.00,-10.00
-16.00,+9.00,-3.00,+13.00,+5.00,+54.00,+9.00,-22.00,+25.00,-2.00,+127.00,+36.00,-6.00,-52.00,-30.00,-28.00
+20.00,-17.00,-57.00,-47.00,-16.00,-47.00,-11.00,+22.00,-26.00,-37.00,+38.00,+8.00,+3.00,-42.00,+16.00,-31.00
+22.00,+12.00,+82.00,+3.00,+7.00,+22.00,-12.00,-36.00,+28.00,-58.00,-81.00,-28.00,-24.00,-6.00,-22.00,-31.00
-4.00,+22.00,+89.00,+24.00,+4.00,-30.00,-9.00,+63.00,+4.00,+74.00,-44.00,-13.00,-24.00,-42.00,-25.00,-32.00
-2.00,-18.00,-66.00,-3.00,+10.00,-9.00,-1.00,+30.00,+10.00,+7.00,-27.00,+7.00,+10.00,+75.00,-11.00,+96.00
-4.00,+34.00,+73.00,+3.00,-13.00,+32.00,+23.00,-128.00,-13.00,-13.00,+127.00,+42.00,+13.00,-19.00,-1.00,-34.00
+44.00,+1.00,+33.00,+5.00,-2.00,-102.00,-17.00,+127.00,-8.00,+0.00,-19.00,-24.00,-33.00,-13.00,-8.00,-47.00
+25.00,-3.00,-67.00,-21.00,-8.00,+52.00,-33.00,-61.00,-9.00,-29.00,+8.00,+7.00,+4.00,-25.00,+15.00,+62.00
+99.00,+33.00,+21.00,+1.00,-1.00,-6.00,+10.00,+9.00,-7.00,+41.00,-3.00,+10.00,+25.00,+43.00,-16.00,-55.00
+70.00,-34.00,-8.00,+5.00,+7.00,+3.00,+13.00,+1.00,+7.00,-58.00,-56.00,-31.00,+12.00,-10.00,-72.00,+57.00
+3.00,+5.00,-66.00,-9.00,-11.00,-9.00,+10.00,-18.00,+2.00,+18.00,-4.00,+16.00,-17.00,+39.00,+30.00,+46.00
-10.00,+8.00,+44.00,+7.00,-4.00,-25.00,-42.00,-86.00,-39.00,-23.00,+40.00,-6.00,-5.00,-18.00,-18.00,-72.00
-64.00,-41.00,-78.00,-21.00,-17.00,-32.00,+18.00,+37.00,-2.00,+39.00,+38.00,+24.00,+8.00,-52.00,+127.00,-4.00
-68.00,-26.00,-91.00,-8.00,+6.00,+7.00,-33.00,+14.00,+41.00,+56.00,-50.00,-20.00,-5.00,+9.00,-63.00,+37.00
-47.00,+54.00,+107.00,+39.00,+8.00,-47.00,+3.00,-94.00,-5.00,+22.00,+58.00,+13.00,+11.00,+15.00,+8.00,+28.00
-49.00,-23.00,-114.00,-21.00,-5.00,+36.00,+64.00,+99.00,+23.00,-33.00,-80.00,-11.00,-1.00,+7.00,+16.00,+53.00
-48.00,+25.00,+37.00,+11.00,-3.00,+9.00,-17.00,-73.00,-10.00,-24.00,+18.00,-6.00,+2.00,+109.00,-38.00,-41.00
-86.00,-22.00,-75.00,-17.00,-7.00,-26.00,+11.00,+12.00,+4.00,+39.00,+40.00,+23.00,+44.00,-27.00,+29.00,-99.00
-28.00,-1.00,-26.00,-7.00,-3.00,+20.00,-25.00,+32.00,+16.00,+55.00,-93.00,-29.00,-45.00,-74.00,+53.00,+114.00
-35.00,-22.00,-72.00,-17.00,-4.00,+14.00,+19.00,-117.00,-18.00,-38.00,+24.00,-15.00,-14.00,+19.00,-68.00,-55.00
+5.00,-4.00,-34.00,-6.00,-6.00,-101.00,-41.00,-8.00,+7.00,-19.00,-14.00,-18.00,-12.00,-32.00,+97.00,-42.00
+11.00,+30.00,+52.00,+29.00,+7.00,+28.00,+10.00,+79.00,+14.00,-14.00,+125.00,+43.00,+16.00,+35.00,+24.00,+80.00
-36.00,-28.00,-88.00,-19.00,-13.00,+73.00,+13.00,-63.00,+10.00,-21.00,-25.00,-1.00,+23.00,+43.00,-47.00,-33.00
-9.00,-23.00,+32.00,-7.00,-8.00,-82.00,-21.00,+47.00,+15.00,+25.00,+94.00,+38.00,+44.00,+60.00,+57.00,+64.00
+53.00,+44.00,+37.00,+29.00,+14.00,+71.00,+26.00,-35.00,+9.00,-9.00,-88.00,-20.00,-32.00,-50.00,-13.00,-60.00
+41.00,+0.00,-26.00,-7.00,+3.00,+7.00,+26.00,-13.00,-12.00,-21.00,+4.00,-10.00,-12.00,-6.00,-53.00,-20.00
-9.00,-23.00,-56.00,-14.00,-7.00,-5.00,-6.00,+36.00,+2.00,-27.00,+8.00,+8.00,-24.00,-12.00,+36.00,-24.00
-36.00,-5.00,-27.00,+6.00,-9.00,+32.00,-4.00,-76.00,+32.00,+37.00,+18.00,+10.00,+58.00,+91.00,-66.00,+39.00
+59.00,-20.00,+8.00,-27.00,+3.00,-53.00,-10.00,+48.00,+8.00,-20.00,-59.00,-36.00,-35.00,-71.00,+38.00,-52.00
-14.00,+14.00,-13.00,+19.00,+1.00,-63.00,-14.00,+77.00,-23.00,+20.00,+0.00,-4.00,-17.00,+14.00,+55.00,+69.00
-19.00,-2.00,+53.00,+7.00,+11.00,+42.00,+39.00,+12.00,-1.00,-15.00,+0.00,-2.00,-14.00,-15.00,-52.00,+2.00
+26.00,-2.00,-19.00,+6.00,+0.00,-5.00,-23.00,+9.00,-2.00,+21.00,-26.00,-5.00,-1.00,+16.00,-2.00,-18.00
+15.00,+7.00,-28.00,-1.00,-5.00,+7.00,+22.00,-4.00,+17.00,-27.00,+127.00,+82.00,+39.00,+118.00,+47.00,+61.00
-22.00,-22.00,-32.00,-16.00,-1.00,+0.00,-29.00,-89.00,-41.00,+36.00,-121.00,-64.00,-46.00,-80.00,+1.00,-60.00
+46.00,-11.00,-43.00,+4.00,-1.00,-24.00,-29.00,+56.00,+37.00,+15.00,+93.00,+36.00,+20.00,-7.00,-4.00,+31.00
+19.00,-7.00,-61.00,-23.00,+5.00,+12.00,+34.00,+50.00,-12.00,-75.00,-79.00,-59.00,-37.00,-40.00,+33.00,+36.00
-67.00,-23.00,-48.00,+14.00,-4.00,-31.00,+3.00,+10.00,-56.00,-1.00,-3.00,-12.00,+6.00,+11.00,-33.00,-3.00
-16.00,+6.00,+20.00,-13.00,-13.00,-12.00,-28.00,-22.00,+7.00,-5.00,+127.00,+54.00,+36.00,+38.00,+25.00,-7.00
-52.00,-19.00,-67.00,-2.00,-2.00,+24.00,+5.00,-120.00,+1.00,-40.00,-57.00,-32.00,-10.00,-6.00,+3.00,-13.00
+44.00,+1.00,-36.00,-1.00,+10.00,+16.00,+24.00,+102.00,+14.00,+37.00,+100.00,+36.00,-3.00,-55.00,+62.00,+3.00
-50.00,+11.00,+58.00,+8.00,+0.00,-27.00,-9.00,+50.00,-7.00,-53.00,-128.00,-65.00,+1.00,+49.00,-53.00,+47.00
+5.00,-33.00,-61.00,-9.00,-8.00,-7.00,-4.00,+4.00,+19.00,-29.00,+74.00,+34.00,+27.00,+48.00,+1.00,+18.00
-16.00,-12.00,-23.00,-26.00,-11.00,+43.00,+26.00,+95.00,-13.00,+8.00,-45.00,-27.00,+7.00,+4.00,-25.00,-114.00
+34.00,+93.00,+127.00,+45.00,+5.00,-30.00,-30.00,-84.00,-7.00,+22.00,-28.00,-14.00,-96.00,-128.00,+7.00,+10.00
+21.00,-20.00,+36.00,-1.00,-10.00,+46.00,+19.00,+48.00,+11.00,+20.00,-47.00,-4.00,+42.00,+26.00,+3.00,+43.00
-36.00,+29.00,+62.00,+7.00,+7.00,-80.00,+1.00,-42.00,+39.00,+27.00,+13.00,+15.00,-13.00,+20.00,-21.00,-46.00
+46.00,-1.00,+6.00,+1.00,+4.00,+61.00,+18.00,+0.00,-52.00,-2.00,+83.00,+36.00,+68.00,+48.00,-36.00,-43.00
-24.00,-8.00,-32.00,-4.00,+17.00,+106.00,+43.00,+68.00,+8.00,+75.00,-101.00,-27.00,-36.00,-11.00,-24.00,+45.00
+76.00,+19.00,+27.00,-1.00,-10.00,-40.00,-24.00,+74.00,+3.00,-10.00,+34.00,-3.00,-13.00,-45.00,-65.00,-108.00
+25.00,+29.00,+80.00,+9.00,-2.00,+33.00,+16.00,-15.00,-17.00,-19.00,-9.00,-1.00,-28.00,-73.00,+64.00,+74.00
-45.00,-2.00,-67.00,+10.00,+11.00,+8.00,-3.00,+11.00,+7.00,+39.00,+17.00,-1.00,-43.00,+39.00,+8.00,+11.00
+39.00,-9.00,-14.00,-6.00,-7.00,-27.00,-22.00,+25.00,-12.00,-6.00,+6.00,+7.00,+8.00,-75.00,+17.00,-29.00
-35.00,-5.00,+96.00,+14.00,+8.00,+5.00,-3.00,-121.00,-55.00,-4.00,-37.00,-16.00,-14.00,-49.00,-37.00,-39.00
+12.00,-21.00,-59.00,+3.00,+1.00,+18.00,-3.00,-8.00,+26.00,+1.00,-5.00,+14.00,+49.00,+71.00,-26.00,+24.00
-78.00,-18.00,-79.00,-22.00,-2.00,-39.00,-23.00,+8.00,-42.00,+29.00,+27.00,+1.00,-1.00,-27.00,-32.00,-36.00
-28.00,+19.00,+73.00,+14.00,-4.00,+32.00,-8.00,-78.00,-12.00,-14.00,-48.00,-22.00,-25.00,-9.00,-11.00,-32.00
+11.00,-9.00,-94.00,-22.00,-10.00,-92.00,-37.00,+66.00,+67.00,+76.00,-3.00,+10.00,+3.00,+47.00,+105.00,+71.00
+27.00,+1.00,+66.00,+5.00,-3.00,+46.00,+20.00,+64.00,-38.00,-1.00,-77.00,-27.00,-28.00,-46.00,-65.00,-35.00
+67.00,+13.00,+24.00,+10.00,+4.00,-73.00,+15.00,-8.00,+72.00,+4.00,+76.00,+32.00,+12.00,+2.00,+17.00,+53.00
-94.00,-23.00,+53.00,-11.00,-8.00,+21.00,-73.00,-118.00,-27.00,-16.00,-16.00,+4.00,+29.00,+47.00,+48.00,+12.00
+85.00,+1.00,-50.00,-5.00,+2.00,+18.00,+36.00,+71.00,-34.00,-45.00,+45.00,+13.00,+22.00,+59.00,-14.00,-6.00
+14.00,+3.00,-18.00,+1.00,+6.00,+3.00,+7.00,-60.00,+0.00,+16.00,-14.00,-18.00,-41.00,-91.00,-108.00,-81.00
+33.00,+13.00,+92.00,+20.00,+11.00,+21.00,-24.00,-92.00,-24.00,-31.00,-9.00,+16.00,+20.00,+6.00,+88.00,+3.00
-5.00,-30.00,-82.00,-21.00,-9.00,-17.00,-39.00,-31.00,-2.00,-12.00,-15.00,-21.00,-58.00,-81.00,-89.00,-6.00
-8.00,+33.00,+66.00,+8.00,+2.00,-15.00,+18.00,+50.00,+3.00,+12.00,+23.00,+4.00,+22.00,-17.00,+83.00,+31.00
+34.00,+0.00,-57.00,+10.00,+8.00,-3.00,+9.00,-67.00,+37.00,+20.00,+24.00,+27.00,+36.00,+108.00,+58.00,+37.00
-22.00,-11.00,+10.00,+2.00,-8.00,-94.00,-5.00,-25.00,-33.00,-9.00,-116.00,-45.00,-33.00,-55.00,-63.00,-24.00
-20.00,-15.00,-34.00,-25.00,-4.00,+18.00,-8.00,-28.00,-12.00,+7.00,+94.00,+0.00,-57.00,+9.00,+0.00,-33.00
+20.00,-5.00,-114.00,-7.00,+1.00,+63.00,+4.00,-29.00,-8.00,+1.00,+49.00,+17.00,+74.00,+60.00,-31.00,+0.00
-2.00,+24.00,+22.00,+4.00,-2.00,-21.00,-7.00,+42.00,+32.00,-14.00,-42.00,-45.00,-40.00,-102.00,-77.00,-38.00
+29.00,-3.00,-29.00,-2.00,+0.00,+8.00,+10.00,+102.00,+6.00,-7.00,+24.00,+6.00,+27.00,+20.00,+41.00,+84.00
-68.00,-34.00,-28.00,-8.00,-13.00,-51.00,-9.00,-70.00,-16.00,+15.00,+74.00,+57.00,+76.00,+92.00,+24.00,-61.00
-4.00,-39.00,-97.00,-9.00,-4.00,-40.00,-2.00,-14.00,-70.00,-54.00,-26.00,-44.00,-89.00,-104.00,-49.00,-17.00
+12.00,+12.00,-2.00,-7.00,-5.00,+13.00,+10.00,-128.00,+15.00,-14.00,+19.00,+5.00,+21.00,+37.00,+39.00,+15.00
-48.00,-1.00,-9.00,-9.00,-18.00,-28.00,-30.00,-15.00,-4.00,-36.00,+16.00,-16.00,-25.00,-7.00,+29.00,+19.00
+70.00,-7.00,-57.00,+8.00,+14.00,-46.00,-1.00,+102.00,+68.00,-15.00,+59.00,+29.00,+54.00,+59.00,-43.00,-14.00
-41.00,+31.00,+78.00,+3.00,+2.00,+50.00,+3.00,-39.00,+37.00,+20.00,-8.00,+7.00,-14.00,-25.00,-55.00,+58.00
-51.00,-40.00,-16.00,-13.00,-13.00,-35.00,-33.00,-22.00,-43.00,+9.00,-20.00,-4.00,-12.00,+18.00,+40.00,-70.00
+29.00,-21.00,-21.00,+5.00,-1.00,-46.00,-15.00,+61.00,+2.00,+13.00,-48.00,+6.00,+7.00,+3.00,+39.00,+56.00
-4.00,+20.00,+19.00,+6.00,-1.00,+61.00,+40.00,-44.00,-8.00,+10.00,-17.00,-5.00,+16.00,+11.00,+39.00,-84.00
-8.00,+8.00,+17.00,-5.00,-8.00,+8.00,+13.00,-41.00,+14.00,+6.00,+30.00,+6.00,-4.00,-25.00,-43.00,+37.00
-1.00,+4.00,-27.00,+2.00,+10.00,+6.00,+14.00,+86.00,-14.00,-41.00,-38.00,-25.00,-11.00,+0.00,-19.00,-15.00
+17.00,-5.00,+5.00,-13.00,+2.00,+81.00,-3.00,-101.00,-2.00,+40.00,-38.00,+4.00,-29.00,+60.00,-3.00,-56.00
+26.00,+34.00,+93.00,+19.00,-6.00,-77.00,+24.00,+57.00,+19.00,+23.00,+34.00,+11.00,+67.00,-56.00,-15.00,+60.00
+29.00,-65.00,-128.00,-13.00,+4.00,+2.00,-28.00,-103.00,-12.00,-4.00,-11.00,+6.00,-8.00,+81.00,+19.00,-34.00
-33.00,+26.00,+85.00,-4.00,-11.00,+25.00,+24.00,+73.00,-2.00,-7.00,+6.00,+10.00,+79.00,-38.00,+25.00,+48.00
+40.00,-4.00,+71.00,-4.00,-4.00,-7.00,-3.00,+36.00,-20.00,-17.00,+74.00,-1.00,-2.00,-34.00,+14.00,-21.00
+36.00,+21.00,+51.00,+19.00,+7.00,+7.00,-5.00,+38.00,+9.00,-48.00,-103.00,-26.00,-36.00,-40.00,+26.00,-3.00
+22.00,+45.00,+127.00,+10.00,+2.00,+18.00,+35.00,-3.00,-4.00,+36.00,+56.00,+9.00,-19.00,-28.00,-83.00,-38.00
-15.00,-45.00,-24.00,-7.00,-7.00,-81.00,-20.00,-14.00,+9.00,-31.00,+33.00,+9.00,+13.00,+79.00,+27.00,+35.00
+35.00,+24.00,-9.00,+3.00,+3.00,-5.00,-20.00,-76.00,-8.00,+53.00,-1.00,-4.00,+0.00,-23.00,-57.00,-48.00
-59.00,-26.00,-23.00,-12.00,+2.00,-18.00,+10.00,-64.00,+8.00,+31.00,+0.00,-11.00,+0.00,+16.00,+4.00,+70.00
-80.00,+24.00,+74.00,+10.00,+0.00,+24.00,+9.00,+81.00,-8.00,-18.00,-15.00,+30.00,+24.00,+9.00,+30.00,+17.00
+0.00,+14.00,-67.00,-7.00,+6.00,+24.00,-16.00,-108.00,+35.00,+14.00,-19.00,-10.00,-25.00,-20.00,-14.00,-17.00
+13.00,+1.00,+25.00,+3.00,+6.00,+32.00,+34.00,+73.00,+17.00,-33.00,+17.00,-14.00,+15.00,-50.00,+32.00,+36.00
+9.00,-3.00,-16.00,+4.00,-3.00,+22.00,+6.00,-8.00,-49.00,-78.00,-11.00,+7.00,-40.00,-28.00,+21.00,+21.00
-29.00,-10.00,-48.00,-6.00,-6.00,-62.00,-22.00,+2.00,+10.00,+25.00,-3.00,-12.00,+1.00,+91.00,+21.00,-76.00
-41.00,-38.00,-26.00,-12.00,-5.00,-41.00,+13.00,-96.00,+11.00,+33.00,+20.00,+8.00,+7.00,-79.00,+19.00,+72.00
-10.00,+1.00,-107.00,-13.00,-2.00,+53.00,+9.00,-9.00,-52.00,-44.00,-13.00,-3.00,-17.00,+2.00,-56.00,-83.00
+2.00,-4.00,-62.00,-1.00,-2.00,-69.00,-14.00,+27.00,+18.00,-8.00,+7.00,+5.00,+15.00,-11.00,-24.00,+35.00
-2.00,-7.00,-25.00,-5.00,-2.00,+58.00,+7.00,-70.00,-8.00,-2.00,+16.00,+4.00,+17.00,+14.00,+14.00,+23.00
+41.00,-5.00,+29.00,+18.00,+9.00,+66.00,+23.00,+83.00,-44.00,-17.00,+23.00,-13.00,-34.00,-29.00,-56.00,-57.00
+34.00,+28.00,-52.00,-5.00,-3.00,-26.00,+13.00,+15.00,+25.00,+67.00,+96.00,+21.00,-7.00,-31.00,+7.00,+32.00
-11.00,-12.00,+25.00,-1.00,+3.00,+58.00,+20.00,+20.00,+0.00,-69.00,-64.00,-33.00,+21.00,+77.00,-49.00,-29.00
-27.00,-21.00,-77.00,-9.00,-7.00,-68.00,-25.00,-45.00,+1.00,-49.00,-58.00,-32.00,-5.00,-124.00,+86.00,-2.00
+18.00,+17.00,+73.00,-2.00,+4.00,+19.00,-9.00,-81.00,+0.00,+64.00,-79.00,-17.00,+5.00,+72.00,+7.00,+21.00
-4.00,-24.00,-63.00,-18.00,+0.00,+21.00,+19.00,+77.00,-16.00,-38.00,-25.00,-11.00,-33.00,-48.00,-22.00,-26.00
+7.00,+53.00,+115.00,+34.00,+8.00,-26.00,-20.00,-76.00,+13.00,+65.00,+57.00,+23.00,-35.00,-15.00,-24.00,-2.00
+54.00,-17.00,-81.00,+0.00,+7.00,+11.00,+18.00,+95.00,+10.00,+6.00,-10.00,-14.00,+62.00,+64.00,+20.00,-12.00
+5.00,+17.00,+20.00,-6.00,+4.00,+30.00,-7.00,-62.00,-22.00,-81.00,+25.00,+20.00,-23.00,-38.00,+16.00,-26.00
-50.00,-17.00,-1.00,+3.00,-5.00,-99.00,-22.00,+9.00,-16.00,-10.00,+43.00,+13.00,+12.00,+37.00,+9.00,-12.00
-51.00,-9.00,-30.00,-17.00,-4.00,+85.00,+1.00,-111.00,+35.00,-39.00,-125.00,-23.00,+25.00,+102.00,+78.00,-9.00
+11.00,+9.00,+33.00,+9.00,-3.00,-86.00,+4.00,+45.00,-36.00,+7.00,+71.00,-3.00,-57.00,-119.00,-66.00,+5.00
-11.00,-25.00,-105.00,-16.00,-13.00,+46.00,+2.00,+91.00,+5.00,-18.00,+110.00,+13.00,-7.00,+45.00,-17.00,-26.00
-36.00,-1.00,+121.00,+3.00,+13.00,+43.00,-34.00,-6.00,+31.00,+9.00,-40.00,-19.00,-29.00,-11.00,-18.00,+26.00
-81.00,-1.00,-43.00,+1.00,+3.00,-102.00,+22.00,+93.00,-78.00,-7.00,+72.00,+13.00,+17.00,+7.00,-38.00,-11.00
-62.00,-23.00,+16.00,-11.00,-7.00,+41.00,-43.00,-111.00,+64.00,+42.00,-32.00,+10.00,+33.00,+35.00,+78.00,+47.00
+46.00,+29.00,+64.00,+23.00,+3.00,-2.00,+19.00,+127.00,-31.00,+10.00,+43.00,+7.00,+38.00,+30.00,-11.00,+20.00
-12.00,+0.00,+40.00,+7.00,-8.00,+10.00,-3.00,-101.00,+25.00,-18.00,+12.00,+9.00,-63.00,-60.00,-38.00,-63.00
+26.00,-46.00,-113.00,-28.00,-9.00,+10.00,-1.00,-39.00,-11.00,-5.00,-78.00,-41.00,-9.00,-11.00,+32.00,+15.00
+28.00,+19.00,+54.00,+22.00,+9.00,+18.00,-12.00,+0.00,+14.00,+0.00,-8.00,-17.00,-59.00,-70.00,-77.00,+14.00
-15.00,+65.00,+93.00,+31.00,+3.00,-16.00,+16.00,-4.00,-8.00,+14.00,-69.00,-4.00,+14.00,+1.00,+36.00,-68.00
+9.00,+12.00,-79.00,+4.00,-3.00,-37.00,-30.00,-11.00,+9.00,+2.00,+22.00,-2.00,+38.00,+71.00,+73.00,+101.00
-6.00,-9.00,-28.00,+0.00,+3.00,+96.00,+40.00,+10.00,-1.00,+10.00,+100.00,+32.00,+9.00,-20.00,-47.00,-59.00
-21.00,-55.00,-125.00,-28.00,-9.00,-27.00,-2.00,-4.00,-5.00,+72.00,-32.00,-5.00,-35.00,-3.00,+40.00,+30.00
-22.00,-12.00,+41.00,-2.00,-4.00,-40.00,-76.00,+25.00,+3.00,+67.00,+80.00,+19.00,+1.00,+4.00,-33.00,-10.00
+34.00,+17.00,-96.00,+9.00,+5.00,-9.00,+52.00,+37.00,-3.00,-68.00,+0.00,-24.00,+4.00,+25.00,+17.00,+5.00
+27.00,+9.00,+96.00,-7.00,-19.00,-43.00,-70.00,-65.00,+2.00,+19.00,+67.00,-12.00,-3.00,-27.00,-82.00,-46.00
-5.00,+17.00,+32.00,+11.00,+7.00,-3.00,+24.00,+127.00,-6.00,+6.00,+89.00,+29.00,-35.00,-36.00,-7.00,+34.00
-49.00,-34.00,-76.00,-20.00,-6.00,-61.00,-19.00,-12.00,+4.00,-51.00,+6.00,-3.00,-4.00,+37.00,-57.00,+32.00
-27.00,+1.00,+6.00,+5.00,+7.00,+35.00,+14.00,-42.00,-10.00,+120.00,-92.00,-31.00,-32.00,-22.00,+17.00,-66.00
+7.00,-26.00,-78.00,-11.00,-13.00,-62.00,-17.00,-66.00,-38.00,-7.00,+72.00,+19.00,+70.00,+71.00,+14.00,-36.00
-9.00,+18.00,+89.00,+5.00,+2.00,+37.00,+2.00,-58.00,+26.00,-41.00,-86.00,-8.00,+58.00,-37.00,+3.00,+64.00
-30.00,-17.00,+5.00,-12.00,-13.00,-11.00,-23.00,-58.00,-1.00,-10.00,-24.00,-3.00,-42.00,-63.00,-34.00,-55.00
+10.00,-1.00,-63.00,-9.00,-9.00,+8.00,-33.00,+66.00,-6.00,+5.00,+3.00,+6.00,-9.00,-15.00,+16.00,+40.00
+14.00,+20.00,+52.00,+26.00,+10.00,-52.00,+17.00,+61.00,+5.00,+0.00,-49.00,-7.00,+0.00,+39.00,-26.00,+40.00
+3.00,+39.00,+3.00,+11.00,+5.00,-8.00,+6.00,-77.00,-5.00,+6.00,+42.00,+20.00,+33.00,+29.00,-1.00,-53.00
+20.00,-21.00,-128.00,-11.00,+0.00,-10.00,+17.00,-7.00,+11.00,-4.00,-12.00,-12.00,+32.00,+33.00,+10.00,-15.00
-20.00,-32.00,-51.00,-23.00,-8.00,+7.00,+7.00,-34.00,-23.00,+74.00,+65.00,+34.00,+2.00,+46.00,-19.00,-53.00
-40.00,-23.00,-17.00,-14.00,-14.00,+9.00,-17.00,-5.00,-9.00,+5.00,-37.00,-8.00,-68.00,-59.00,+42.00,-4.00
+63.00,+25.00,+49.00,+22.00,+10.00,-19.00,-33.00,+90.00,+63.00,-20.00,+4.00,-16.00,+17.00,+14.00,+25.00,+108.00
-40.00,-23.00,-64.00,-3.00,-1.00,+46.00,+37.00,-36.00,-4.00,+12.00,+12.00,+0.00,-28.00,-46.00,-2.00,+7.00
+12.00,+37.00,+64.00,+3.00,-5.00,-12.00,-33.00,+9.00,+0.00,-55.00,+121.00,+24.00,-4.00,+18.00,-52.00,-41.00
+7.00,-5.00,-80.00,-6.00,+7.00,-50.00,-14.00,-102.00,-6.00,+65.00,-48.00,+2.00,-5.00,+0.00,+12.00,+30.00
-21.00,-9.00,+79.00,-6.00,-2.00,+86.00,+66.00,+46.00,-33.00,-24.00,-97.00,-41.00,-44.00,-64.00,-104.00,-125.00
+47.00,-3.00,-80.00,+9.00,+12.00,+24.00,-18.00,+30.00,+35.00,-19.00,+7.00,-14.00,+5.00,+5.00,+63.00,+107.00
-7.00,-2.00,-3.00,+3.00,+2.00,-13.00,+10.00,-46.00,-3.00,-1.00,+62.00,+26.00,+29.00,+60.00,+23.00,+57.00
+17.00,+10.00,-4.00,-1.00,+2.00,+58.00,+10.00,-38.00,+30.00,-23.00,+52.00,+17.00,-29.00,-17.00,-11.00,+10.00
-59.00,-48.00,-122.00,-23.00,-8.00,-17.00,-22.00,-84.00,-41.00,-17.00,+23.00,-6.00,-62.00,-41.00,+11.00,-78.00
+6.00,+2.00,+38.00,-11.00,+1.00,+17.00,+24.00,+7.00,-15.00,+53.00,-60.00,-20.00,-40.00,-75.00,+14.00,+13.00
-29.00,+14.00,+60.00,+13.00,-3.00,-30.00,+6.00,-19.00,+28.00,-35.00,-59.00,-22.00,-23.00,-40.00,-44.00,+27.00
+81.00,+3.00,-31.00,+6.00,+10.00,-20.00,-12.00,+61.00,+25.00,+4.00,+49.00,+16.00,+28.00,+6.00,+18.00,+23.00
+21.00,+15.00,+37.00,+0.00,+3.00,+18.00,+17.00,+34.00,+33.00,+26.00,+90.00,+40.00,+69.00,+127.00,+56.00,-5.00
-10.00,-5.00,-23.00,-8.00,-4.00,+33.00,-2.00,+36.00,-46.00,-52.00,+78.00,+28.00,-72.00,-14.00,-26.00,-6.00
-75.00,-49.00,-9.00,-12.00,-11.00,-99.00,-18.00,-128.00,-2.00,-30.00,-127.00,-45.00,+78.00,-14.00,+6.00,+67.00
+83.00,+8.00,-91.00,-18.00,+4.00,+51.00,-21.00,+111.00,+4.00,-10.00,-10.00,-15.00,+22.00,-37.00,+28.00,-76.00
+31.00,+15.00,-31.00,+26.00,+1.00,+10.00,+23.00,-56.00,-11.00,+4.00,+30.00,+9.00,-13.00,+45.00,-3.00,+35.00
+15.00,+4.00,-2.00,-5.00,-11.00,-92.00,-48.00,-128.00,+11.00,+14.00,-8.00,-2.00,+18.00,+33.00,+33.00,+37.00
+60.00,+24.00,-39.00,+10.00,+9.00,+82.00,+54.00,+9.00,-7.00,-7.00,+85.00,+48.00,+15.00,+71.00,+4.00,-39.00
-52.00,-28.00,+10.00,-1.00,+3.00,-84.00,+10.00,-7.00,-23.00,-16.00,+2.00,-2.00,-44.00,-101.00,-85.00,-29.00
+16.00,-17.00,-84.00,-30.00,-5.00,+19.00,-25.00,-54.00,+11.00,-77.00,-113.00,-86.00,-12.00,+15.00,+17.00,+50.00
-59.00,-15.00,-67.00,+2.00,-8.00,-115.00,-44.00,-87.00,-1.00,+0.00,+75.00,+9.00,+4.00,-5.00,-22.00,+52.00
-16.00,-22.00,-44.00,-11.00,-4.00,+119.00,+23.00,-36.00,+8.00,+16.00,-7.00,+4.00,+40.00,-26.00,+30.00,+18.00
+72.00,+40.00,+3.00,+7.00,+3.00,+2.00,+7.00,+121.00,+31.00,+18.00,+45.00,+18.00,-29.00,+10.00,+32.00,+68.00
-32.00,-11.00,+12.00,+6.00,-2.00,-8.00,+5.00,+16.00,-44.00,+14.00,+69.00,+48.00,-21.00,-14.00,-48.00,-45.00
-50.00,-13.00,-36.00,-12.00,-2.00,+47.00,+45.00,-97.00,+23.00,-30.00,-128.00,-59.00,+5.00,+24.00,-72.00,-74.00
+34.00,+37.00,+84.00,+14.00,-2.00,-93.00,-61.00,+116.00,-24.00,+69.00,-75.00,-22.00,-78.00,+69.00,+38.00,-2.00
-37.00,-11.00,-11.00,+6.00,+9.00,+101.00,+39.00,-89.00,-9.00,-34.00,-68.00,-3.00,+2.00,-95.00,+31.00,-2.00
-11.00,+2.00,-75.00,-3.00,-6.00,-7.00,+2.00,+4.00,+3.00,+2.00,+10.00,+13.00,+52.00,+38.00,-30.00,-46.00
+28.00,+14.00,+38.00,+12.00,+2.00,-24.00,-17.00,+58.00,-18.00,-22.00,+52.00,+21.00,-27.00,+12.00,+50.00,+8.00
+17.00,-10.00,+35.00,-1.00,+4.00,+55.00,+25.00,+49.00,+10.00,+41.00,+1.00,+11.00,+68.00,+61.00,+3.00,-84.00
-66.00,+5.00,+34.00,+14.00,-5.00,-22.00,-12.00,-48.00,-1.00,+32.00,+49.00,-4.00,-19.00,-12.00,-25.00,+59.00
-29.00,-16.00,-43.00,-12.00,+4.00,+74.00,+30.00,+30.00,+7.00,+31.00,+47.00,+2.00,-24.00,-7.00,+54.00,+4.00
-15.00,+3.00,+120.00,+11.00,+2.00,+33.00,-20.00,-52.00,-16.00,-48.00,-52.00,+8.00,+53.00,+66.00,-26.00,-46.00
+27.00,+13.00,-41.00,+2.00,+2.00,-88.00,-1.00,+47.00,-10.00,+12.00,+89.00,+19.00,+0.00,-71.00,-15.00,-16.00
+20.00,-16.00,-27.00,-26.00,-4.00,+29.00,+16.00,+83.00,+22.00,+20.00,-114.00,-34.00,-32.00,-24.00,+1.00,-16.00
+17.00,-8.00,-70.00,+22.00,+3.00,-43.00,-17.00,+56.00,+1.00,-26.00,+44.00,+16.00,+17.00,-24.00,+18.00,+88.00
+9.00,+13.00,-47.00,+0.00,+5.00,+28.00,+20.00,+12.00,+4.00,+35.00,+22.00,+11.00,+60.00,+54.00,+42.00,-15.00
-30.00,-10.00,+12.00,-4.00,-6.00,+11.00,+14.00,-28.00,-24.00,-23.00,-30.00,-17.00,-31.00,-44.00,-16.00,+43.00
-8.00,-2.00,-20.00,-12.00,-11.00,-6.00,+10.00,-26.00,+20.00,+21.00,+127.00,+24.00,+40.00,+19.00,-11.00,-45.00
-18.00,+6.00,+70.00,+3.00,-1.00,-52.00,-31.00,-73.00,+11.00,-19.00,-113.00,-48.00,+4.00,-14.00,-15.00,+38.00
-70.00,-18.00,+1.00,-8.00,+2.00,+50.00,+36.00,+18.00,-25.00,+23.00,+65.00,+21.00,-28.00,+9.00,+2.00,-9.00
+45.00,-6.00,-57.00,+8.00,-3.00,-27.00,-14.00,+27.00,+7.00,-90.00,-29.00,-16.00,+33.00,-49.00,+31.00,-26.00
-65.00,-8.00,-53.00,-3.00,+9.00,+82.00,+27.00,-32.00,-31.00,-14.00,+52.00,+7.00,-22.00,+17.00,-35.00,+13.00
+56.00,+51.00,+84.00,+14.00,-10.00,-4.00,-35.00,-78.00,-27.00,-15.00,-54.00,-9.00,+32.00,+51.00,+49.00,-41.00
+13.00,+42.00,-3.00,+11.00,+4.00,-34.00,+8.00,-16.00,+51.00,+13.00,+15.00,-6.00,-35.00,-50.00,-26.00,-22.00
-20.00,-56.00,-74.00,-16.00,-6.00,+39.00,-20.00,-47.00,-5.00,+0.00,-27.00,-7.00,-16.00,-66.00,-11.00,+32.00
-16.00,+39.00,+48.00,+19.00,+2.00,-73.00,+33.00,-6.00,-29.00,-50.00,+8.00,+5.00,+6.00,+73.00,+50.00,+50.00
-32.00,-11.00,-70.00,-15.00,-5.00,-28.00,-38.00,-86.00,-19.00,+68.00,+24.00,-1.00,+11.00,+37.00,+40.00,-43.00
+62.00,+9.00,-12.00,+3.00,+4.00,+67.00,+5.00,-26.00,+8.00,-9.00,-56.00,-10.00,-6.00,-70.00,-43.00,+26.00
-12.00,-9.00,-20.00,-17.00,+3.00,-2.00,+28.00,-32.00,-17.00,-32.00,+4.00,-8.00,-2.00,-44.00,-63.00,-33.00
+18.00,+14.00,+48.00,+3.00,-13.00,-12.00,-50.00,+8.00,+4.00,+51.00,+6.00,+19.00,+40.00,+57.00,+39.00,+4.00
-10.00,-13.00,-42.00,-10.00,-9.00,-8.00,-30.00,-69.00,+5.00,-32.00,+81.00,-6.00,-24.00,-25.00,-32.00,-2.00
+0.00,-4.00,+20.00,-5.00,+10.00,+49.00,+3.00,+11.00,+5.00,-32.00,-11.00,-5.00,-23.00,+11.00,+23.00,-34.00
-36.00,-18.00,-59.00,-10.00,-1.00,+18.00,+20.00,-29.00,-24.00,-14.00,+83.00,+27.00,+37.00,+40.00,-8.00,+0.00
-20.00,+7.00,+15.00,+2.00,-1.00,+8.00,+8.00,-27.00,+0.00,-36.00,-87.00,-46.00,-12.00,-16.00,+66.00,+25.00
+38.00,+1.00,+66.00,-4.00,+4.00,-36.00,+14.00,+37.00,+12.00,-3.00,-36.00,+3.00,-30.00,-2.00,-45.00,-33.00
+20.00,-18.00,-98.00,-8.00,-5.00,+22.00,-26.00,+33.00,-23.00,-8.00,+74.00,+18.00,+3.00,+74.00,+16.00,+9.00
-4.00,+32.00,+88.00,+17.00,+4.00,+3.00,-17.00,-36.00,-2.00,-35.00,-40.00,-7.00,-82.00,-95.00,-6.00,-7.00
-23.00,-14.00,-38.00,-3.00,+9.00,+29.00,+1.00,-47.00,+24.00,-2.00,-86.00,-19.00,+74.00,+49.00,-101.00,+17.00
+54.00,+51.00,-2.00,+8.00,+12.00,-7.00,+32.00,+127.00,+2.00,-24.00,+4.00,-2.00,-13.00,-9.00,+36.00,-49.00
+53.00,-12.00,-8.00,-4.00,-8.00,-2.00,+30.00,+57.00,-9.00,+4.00,-23.00,-10.00,+12.00,+27.00,-22.00,-1.00
-9.00,+22.00,+52.00,+11.00,+13.00,-26.00,+3.00,+7.00,+30.00,+19.00,+35.00,+31.00,+23.00,+45.00,+30.00,+34.00
+1.00,-5.00,-25.00,+5.00,-3.00,+31.00,+1.00,-47.00,-2.00,+3.00,-17.00,-15.00,-85.00,-3.00,+62.00,-44.00
-43.00,-17.00,-63.00,-9.00,-3.00,+58.00,+0.00,-13.00,-10.00,-10.00,+50.00,+14.00,-27.00,-53.00,-69.00,-1.00
-41.00,-30.00,-25.00,-5.00,-4.00,-105.00,-7.00,-41.00,-18.00,-9.00,-60.00,-37.00,+40.00,-25.00,+44.00,-5.00
+49.00,-5.00,-20.00,+0.00,+0.00,+50.00,-25.00,-32.00,+11.00,+58.00,+104.00,+18.00,-14.00,-24.00,+36.00,-77.00
+13.00,-6.00,+40.00,+4.00,+1.00,-71.00,-11.00,-79.00,-26.00,-48.00,-49.00,-34.00,-38.00,-64.00,-46.00,+12.00
+16.00,+24.00,+68.00,+6.00,+4.00,+3.00,+20.00,+54.00,+16.00,-1.00,+38.00,+33.00,+2.00,+34.00,+13.00,+49.00
-3.00,-17.00,+32.00,-11.00,-8.00,-32.00,-9.00,+126.00,-3.00,-22.00,+40.00,+18.00,+52.00,+39.00,+14.00,-23.00
+15.00,+49.00,+12.00,+18.00,+6.00,-48.00,-1.00,-96.00,+13.00,+68.00,-58.00,-26.00,+5.00,+47.00,-18.00,-22.00
+16.00,+1.00,+24.00,-4.00,-1.00,-14.00,-10.00,-4.00,-12.00,+21.00,+59.00,+2.00,-22.00,+3.00,-20.00,+3.00
-96.00,-45.00,-80.00,-20.00,-8.00,+3.00,-35.00,-101.00,+18.00,+37.00,-33.00,-4.00,+11.00,-39.00,+4.00,-32.00
+68.00,+0.00,+11.00,-5.00,-10.00,-31.00,+10.00,+115.00,+36.00,+34.00,-11.00,-13.00,-72.00,-41.00,+31.00,+53.00
-120.00,-61.00,-71.00,-35.00,-14.00,-9.00,+13.00,-32.00,-59.00,-38.00,-126.00,-33.00,-19.00,-41.00,+30.00,+19.00
+24.00,+47.00,+91.00,+36.00,-1.00,-13.00,-32.00,+67.00,+14.00,+6.00,+96.00,+46.00,+63.00,+9.00,+8.00,-41.00
+22.00,+4.00,-33.00,-4.00,-3.00,-24.00,+1.00,-90.00,+1.00,-4.00,-18.00,-6.00,-9.00,+66.00,+5.00,+23.00
-17.00,-12.00,-34.00,-3.00,-5.00,+30.00,+12.00,-76.00,+9.00,+9.00,+18.00,+3.00,-32.00,+28.00,+13.00,-23.00
-42.00,+2.00,-33.00,-6.00,-4.00,-10.00,-3.00,+42.00,+13.00,-4.00,+108.00,+25.00,+25.00,-32.00,-46.00,+26.00
-20.00,-50.00,-108.00,-26.00,-19.00,-81.00,+7.00,+34.00,-20.00,-65.00,-97.00,-28.00,+24.00,+35.00,+35.00,-26.00
-31.00,-18.00,-50.00,-11.00,+8.00,+35.00,+1.00,-60.00,-23.00,-11.00,+56.00,-13.00,-62.00,-74.00,-1.00,-8.00
+2.00,+46.00,-3.00,+13.00,+2.00,-23.00,-3.00,+20.00,+27.00,-4.00,+43.00,+6.00,+1.00,-15.00,+7.00,-17.00
+18.00,-8.00,+32.00,+13.00,+5.00,-40.00,-2.00,+29.00,+4.00,+3.00,+15.00,+3.00,+0.00,+31.00,+3.00,+31.00
+42.00,+19.00,+13.00,+1.00,-2.00,-11.00,+11.00,+119.00,+0.00,+11.00,+67.00,+27.00,-3.00,+39.00,-4.00,-20.00
-8.00,-34.00,-46.00,-7.00,+0.00,-16.00,-16.00,+36.00,-13.00,+5.00,+59.00,+22.00,+25.00,+1.00,+40.00,-37.00
-55.00,-30.00,-49.00,-5.00,+3.00,-3.00,-2.00,-128.00,-25.00,-18.00,-57.00,-50.00,+62.00,-71.00,-39.00,+84.00
+127.00,+79.00,+46.00,+10.00,+1.00,+79.00,+12.00,+36.00,+14.00,-66.00,-102.00,-36.00,-20.00,+46.00,-12.00,+79.00
-22.00,-5.00,+29.00,+2.00,+0.00,+24.00,-12.00,-12.00,+11.00,+17.00,+8.00,+4.00,-31.00,-68.00,+20.00,-3.00
-15.00,-34.00,-24.00,-7.00,-8.00,-10.00,+15.00,-22.00,+10.00,-12.00,+36.00,+15.00,-16.00,+10.00,-12.00,-27.00
-22.00,-4.00,+1.00,+5.00,+8.00,+37.00,-15.00,-118.00,-15.00,+66.00,+42.00,+22.00,+20.00,+5.00,-30.00,-31.00
-9.00,-14.00,+43.00,+8.00,-3.00,+13.00,+5.00,+92.00,-52.00,-56.00,-90.00,-28.00,-26.00,-5.00,-16.00,-93.00
+0.00,+37.00,+61.00,+6.00,+7.00,+0.00,-11.00,+12.00,+54.00,+4.00,+43.00,+9.00,+24.00,+36.00,+72.00,+115.00
-19.00,+47.00,-28.00,+5.00,+4.00,+51.00,-1.00,+1.00,-11.00,+19.00,-67.00,-13.00,-8.00,-15.00,-54.00,+12.00
+6.00,+6.00,+29.00,+9.00,+0.00,-85.00,-6.00,-60.00,-12.00,+9.00,+11.00,+25.00,-10.00,+48.00,-42.00,-24.00
-33.00,-8.00,+7.00,-11.00,-4.00,+20.00,-7.00,-57.00,+16.00,-5.00,-72.00,-33.00,-14.00,-48.00,+47.00,+17.00
+64.00,-45.00,-33.00,+1.00,+7.00,+9.00,+6.00,+64.00,-24.00,+11.00,+0.00,+8.00,-3.00,+21.00,-18.00,+21.00
-49.00,+2.00,-17.00,-4.00,-1.00,-51.00,-5.00,-54.00,+18.00,+32.00,-29.00,+0.00,-5.00,-22.00,+41.00,+25.00
+10.00,-4.00,+24.00,+2.00,-6.00,+15.00,+19.00,+93.00,+2.00,-57.00,-25.00,-10.00,+36.00,-9.00,-52.00,-17.00
-23.00,-6.00,-128.00,-1.00,+4.00,-65.00,-11.00,-79.00,-75.00,-30.00,+76.00,+23.00,+11.00,+25.00,-23.00,-55.00
-25.00,-26.00,-36.00,-45.00,-17.00,+60.00,-79.00,-14.00,+67.00,+38.00,-18.00,-13.00,-60.00,-49.00,+15.00,-33.00
+29.00,+11.00,+127.00,+41.00,+15.00,-3.00,+79.00,+56.00,+10.00,+16.00,+30.00,+16.00,+36.00,+13.00,-13.00,+86.00
+43.00,+15.00,-26.00,-4.00,-3.00,+56.00,+35.00,+29.00,+39.00,+7.00,+5.00,+14.00,+14.00,+83.00,+47.00,+29.00
-27.00,+16.00,+19.00,+3.00,+0.00,+29.00,-7.00,-78.00,-16.00,+9.00,+56.00,-2.00,-54.00,-17.00,-56.00,-30.00
-45.00,-30.00,-68.00,-4.00,-6.00,-21.00,+2.00,-47.00,+17.00,-15.00,+89.00,+6.00,+6.00,+23.00,-14.00,-66.00
-6.00,-18.00,-86.00,-15.00,-12.00,+17.00,-9.00,+68.00,-10.00,-55.00,-120.00,-37.00,-4.00,+12.00,-12.00,-38.00
+37.00,+50.00,+80.00,-28.00,+1.00,-14.00,-52.00,-16.00,-80.00,-45.00,-10.00,-39.00,-53.00,-128.00,-56.00,+4.00
+0.00,-24.00,-31.00,+20.00,+4.00,+42.00,+47.00,+49.00,+24.00,-1.00,+43.00,+3.00,+29.00,+100.00,+32.00,+66.00
-20.00,+64.00,+59.00,+19.00,+3.00,+20.00,-2.00,-128.00,+0.00,+22.00,+24.00,+19.00,+15.00,+1.00,-53.00,-38.00
+21.00,-1.00,+43.00,-2.00,-5.00,-54.00,-18.00,+15.00,+20.00,+36.00,+72.00,+21.00,+22.00,+60.00,+26.00,+41.00
+22.00,-20.00,-84.00,+3.00,+4.00,-31.00,+41.00,+62.00,-20.00,+43.00,+108.00,+48.00,+15.00,+55.00,+17.00,-66.00
+21.00,-16.00,+42.00,-16.00,-5.00,+19.00,-18.00,+52.00,+14.00,-55.00,-108.00,-54.00,-29.00,-108.00,-41.00,-14.00
-7.00,+12.00,-28.00,-6.00,+2.00,-3.00,+5.00,-84.00,-29.00,+52.00,+10.00,-4.00,+28.00,+60.00,-28.00,+0.00
-14.00,-11.00,+33.00,+6.00,-11.00,+8.00,-1.00,-39.00,-3.00,-28.00,+12.00,-4.00,-12.00,-50.00,+14.00,-18.00
-35.00,-8.00,+1.00,+6.00,+7.00,-40.00,-11.00,-53.00,-22.00,+13.00,+31.00,+16.00,+2.00,+45.00,+45.00,+78.00
+24.00,+12.00,-7.00,-8.00,+0.00,-19.00,-19.00,-41.00,+53.00,+57.00,+64.00,+38.00,+29.00,-13.00,+3.00,+8.00
+32.00,-11.00,-27.00,-1.00,-8.00,-9.00,+30.00,+89.00,+18.00,+46.00,+0.00,-10.00,-5.00,-20.00,+14.00,-30.00
+10.00,-26.00,-22.00,-11.00,+4.00,+0.00,-49.00,+12.00,-19.00,-81.00,-94.00,-26.00,+6.00,+45.00,-21.00,-6.00
-3.00,-7.00,-11.00,-5.00,-13.00,-70.00,-34.00,+30.00,+40.00,+10.00,-2.00,-6.00,-36.00,+13.00,+52.00,-5.00
+35.00,-4.00,-16.00,+15.00,+9.00,+50.00,+24.00,+111.00,-6.00,+9.00,+35.00,+7.00,+19.00,-24.00,-24.00,-13.00
-3.00,+6.00,+78.00,+4.00,-5.00,+56.00,+24.00,-10.00,-33.00,-19.00,-56.00,-11.00,-26.00,-1.00,+23.00,-7.00
-1.00,-1.00,-41.00,-17.00,-2.00,+6.00,+5.00,-9.00,+6.00,+27.00,+27.00,+20.00,+24.00,+8.00,+26.00,+18.00
-51.00,-9.00,+22.00,+11.00,-7.00,-11.00,+3.00,-39.00,+16.00,-6.00,-45.00,-6.00,-8.00,-21.00,-34.00,-15.00
+27.00,-7.00,-46.00,-10.00,+1.00,-42.00,-25.00,+21.00,+28.00,+26.00,-52.00,+2.00,+94.00,+87.00,+98.00,+37.00
-27.00,-31.00,-52.00,-6.00,-4.00,-43.00,+1.00,-11.00,-29.00,-24.00,-53.00,-24.00,-75.00,-127.00,-106.00,-13.00
+39.00,+46.00,+117.00,+22.00,+6.00,-11.00,+16.00,-15.00,-23.00,+3.00,+96.00,+21.00,-1.00,-8.00,-1.00,-13.00
+23.00,+1.00,-25.00,-1.00,+1.00,+38.00,-8.00,+12.00,+22.00,+31.00,-61.00,-17.00,+29.00,+40.00,+26.00,-20.00
-46.00,-25.00,+22.00,-6.00,-2.00,-19.00,-19.00,-18.00,+6.00,-33.00,+68.00,+39.00,-86.00,-31.00,-34.00,-18.00
-91.00,-56.00,-117.00,-13.00,-5.00,+21.00,-33.00,-26.00,-13.00,-32.00,-50.00,-33.00,+63.00,+30.00,+85.00,+62.00
-43.00,+55.00,+86.00,-25.00,+3.00,-31.00,+27.00,+15.00,+5.00,+4.00,+27.00,-5.00,+10.00,-25.00,-59.00,-12.00
-35.00,+29.00,+86.00,+42.00,+6.00,-26.00,+31.00,+43.00,-34.00,-48.00,-66.00,-42.00,-22.00,-4.00,-13.00,-27.00
-19.00,-28.00,-48.00,-3.00,-6.00,+4.00,-12.00,-50.00,+35.00,+38.00,+48.00,+24.00,+12.00,+51.00,+39.00,+22.00
+34.00,+36.00,-43.00,+9.00,+11.00,+21.00,+9.00,+35.00,+4.00,-25.00,+7.00,+12.00,+23.00,+0.00,-12.00,+29.00
-21.00,-37.00,-70.00,-10.00,-16.00,-65.00,-13.00,-80.00,-78.00,+24.00,+105.00,+68.00,+75.00,+25.00,+17.00,-59.00
-22.00,-11.00,-28.00,-13.00,+2.00,+55.00,-24.00,-92.00,+42.00,-33.00,-79.00,-85.00,-99.00,-128.00,-26.00,-6.00
-10.00,+7.00,+20.00,+4.00,-1.00,-13.00,-1.00,-61.00,-4.00,+45.00,+71.00,-11.00,+29.00,+84.00,-5.00,+41.00
+44.00,-39.00,-82.00,-18.00,-2.00,+16.00,+23.00,+16.00,-9.00,+4.00,+74.00,+16.00,+10.00,-15.00,-18.00,-20.00
-49.00,+63.00,+54.00,+29.00,+8.00,+8.00,+11.00,+13.00,+10.00,+20.00,+35.00,+18.00,+64.00,+41.00,+3.00,+1.00
-12.00,+5.00,-51.00,-3.00,+1.00,-49.00,-15.00,-41.00,-15.00,+26.00,+56.00,+38.00,+7.00,+46.00,+30.00,+30.00
-5.00,+23.00,-26.00,-4.00,-4.00,+62.00,+3.00,-24.00,+8.00,-23.00,-62.00,-16.00,+19.00,-54.00,-22.00,-97.00
-19.00,-16.00,+0.00,+3.00,+5.00,-25.00,+11.00,-9.00,+27.00,+5.00,+26.00,-1.00,+40.00,+88.00,-5.00,+47.00
+16.00,-26.00,-52.00,-11.00,-5.00,+26.00,-14.00,-25.00,-32.00,+1.00,-17.00,-12.00,-67.00,-115.00,-33.00,-52.00
-11.00,-22.00,-19.00,-14.00,-8.00,+35.00,+0.00,+2.00,+8.00,-16.00,+52.00,-15.00,-23.00,-24.00,-30.00,-5.00
-2.00,+46.00,+104.00,+21.00,+2.00,-31.00,-15.00,+71.00,-17.00,-29.00,+14.00,-15.00,+9.00,+32.00,-13.00,+41.00
+16.00,+24.00,-11.00,-4.00,+0.00,-9.00,+35.00,+28.00,-8.00,+33.00,+40.00,+23.00,-25.00,-18.00,+69.00,-11.00
+54.00,+3.00,-47.00,+2.00,+7.00,+22.00,-18.00,-10.00,+25.00,-13.00,-39.00,-13.00,-6.00,+43.00,-11.00,+32.00
-14.00,-28.00,-24.00,+0.00,+3.00,+0.00,-9.00,-27.00,-3.00,+30.00,+69.00,+38.00,+28.00,-7.00,-6.00,-38.00
-3.00,+2.00,-52.00,-18.00,+3.00,-50.00,+0.00,+15.00,+6.00,-12.00,-64.00,-1.00,-11.00,+0.00,+14.00,-47.00
-56.00,-11.00,-26.00,-2.00,-34.00,+47.00,-8.00,-120.00,-21.00,-37.00,-55.00,-15.00,-1.00,-2.00,+3.00,+24.00
+4.00,-7.00,-11.00,+14.00,+9.00,-97.00,-36.00,+44.00,+24.00,-53.00,-51.00,-24.00,-42.00,-29.00,+49.00,+37.00
+19.00,-39.00,-58.00,-9.00,-13.00,+32.00,+33.00,-1.00,-27.00,-3.00,-52.00,-3.00,+13.00,-8.00,-16.00,-16.00
-54.00,+45.00,+61.00,-4.00,-1.00,-40.00,+22.00,+4.00,+9.00,+39.00,+43.00,+24.00,+4.00,+14.00,+2.00,-13.00
-23.00,-7.00,+22.00,-5.00,+6.00,-29.00,-20.00,-11.00,-10.00,+20.00,+62.00,+16.00,+16.00,+50.00,-24.00,-30.00
-1.00,-7.00,-24.00,-2.00,+8.00,+51.00,-10.00,-30.00,+39.00,-30.00,-74.00,-26.00,-65.00,-53.00,-32.00,+8.00
-19.00,-10.00,+0.00,-4.00,+42.00,+12.00,-16.00,+4.00,-23.00,+4.00,+18.00,+7.00,-3.00,-8.00,+64.00,-73.00
+9.00,-12.00,-16.00,-4.00,-61.00,-42.00,+14.00,+5.00,-27.00,+16.00,+20.00,+22.00,-36.00,+24.00,+43.00,+102.00
-10.00,+10.00,+36.00,+3.00,+1.00,-22.00,-4.00,-19.00,-19.00,-42.00,-78.00,-46.00,-22.00,-111.00,-91.00,-38.00
-28.00,-28.00,-35.00,-14.00,-8.00,-2.00,-4.00,-68.00,+20.00,+27.00,+20.00,-2.00,+33.00,+41.00,+17.00,+105.00
-61.00,-6.00,-61.00,+0.00,-2.00,-14.00,-10.00,-41.00,+6.00,+26.00,+31.00,+33.00,+27.00,-9.00,-22.00,-10.00
+35.00,-9.00,+57.00,+3.00,+17.00,+38.00,-6.00,-16.00,-7.00,-10.00,-2.00,+12.00,+9.00,+23.00,-17.00,-29.00
+22.00,+56.00,+39.00,+31.00,+18.00,-35.00,+15.00,+79.00,-14.00,-12.00,+16.00,-13.00,-8.00,-4.00,+12.00,-30.00
+6.00,-34.00,+7.00,-9.00,-11.00,+12.00,-23.00,-26.00,+7.00,+39.00,+28.00,-11.00,-53.00,+22.00,-18.00,+17.00
+8.00,+12.00,-38.00,-6.00,-1.00,-28.00,+35.00,+55.00,+6.00,+14.00,-3.00,+17.00,+10.00,+14.00,+45.00,+61.00
-80.00,-36.00,-22.00,-11.00,-4.00,-16.00,-10.00,-70.00,-15.00,+11.00,-32.00,-20.00,+10.00,-2.00,+11.00,-93.00
+37.00,+16.00,+16.00,-1.00,-3.00,+13.00,+15.00,+18.00,+6.00,-25.00,-100.00,-35.00,-10.00,-9.00,-12.00,+26.00
-8.00,-8.00,-33.00,-3.00,-1.00,-19.00,+3.00,+90.00,+16.00,+11.00,+38.00,-3.00,+14.00,-21.00,+13.00,+50.00
+29.00,+20.00,+49.00,+12.00,+3.00,+16.00,-4.00,-22.00,-13.00,-25.00,-42.00,-11.00,+5.00,-28.00,-1.00,+40.00
-5.00,-24.00,-36.00,-4.00,-2.00,-9.00,-7.00,-49.00,+17.00,+12.00,+45.00,-1.00,-3.00,-2.00,+1.00,+12.00
+42.00,+14.00,+57.00,+7.00,+20.00,+61.00,+17.00,+50.00,-38.00,+21.00,+53.00,+28.00,-3.00,+13.00,+1.00,-48.00
+1.00,-7.00,-29.00,-1.00,+21.00,+20.00,+12.00,-23.00,-8.00,-81.00,-56.00,+5.00,+5.00,+58.00,-26.00,-52.00
+18.00,+5.00,+22.00,-3.00,-25.00,+28.00,+0.00,+34.00,-18.00,+22.00,+0.00,-13.00,-13.00,-45.00,-84.00,-41.00
-29.00,-29.00,-73.00,-4.00,-11.00,-50.00,+24.00,+73.00,+17.00,-22.00,-7.00,+2.00,+11.00,+8.00,+58.00,+45.00
+34.00,+44.00,+73.00,+21.00,+34.00,-9.00,-9.00,-32.00,+36.00,+66.00,+3.00,+4.00,-55.00,-10.00,+12.00,+20.00
+41.00,+6.00,-40.00,+2.00,-12.00,+34.00,+10.00,+105.00,-33.00,-5.00,+3.00,-3.00,+67.00,-15.00,+43.00,-10.00
+5.00,+3.00,+16.00,+0.00,+25.00,-10.00,+6.00,+73.00,+26.00,+0.00,+28.00,+15.00,-63.00,+51.00,-6.00,-31.00
+3.00,-36.00,-20.00,+1.00,-8.00,+20.00,-8.00,-42.00,-11.00,-9.00,-30.00,-41.00,-1.00,-28.00,-32.00,-34.00
-12.00,-42.00,-77.00,-14.00,+17.00,-35.00,-7.00,-24.00,-11.00,+0.00,+38.00,-1.00,-53.00,-67.00,+2.00,-16.00
+17.00,+9.00,+61.00,+3.00,-48.00,-17.00,+11.00,+32.00,+18.00,+22.00,+27.00,-17.00,-8.00,+4.00,-40.00,-7.00
+4.00,+7.00,+21.00,-1.00,+9.00,+38.00,-4.00,+10.00,-16.00,-17.00,+19.00,+24.00,+79.00,-6.00,+4.00,+11.00
+9.00,+48.00,+57.00,+1.00,+12.00,+23.00,+12.00,-16.00,+13.00,+35.00,+13.00,-26.00,-60.00,+6.00,-25.00,-4.00
-22.00,-15.00,-19.00,-1.00,+6.00,+14.00,-13.00,+19.00,+4.00,-3.00,+42.00,+32.00,+34.00,+34.00,+36.00,+28.00
+51.00,-3.00,+9.00,+1.00,+16.00,-1.00,+20.00,+26.00,-18.00,+4.00,+4.00,-10.00,-63.00,-18.00,-2.00,-30.00
-25.00,-9.00,-36.00,-15.00,-36.00,+23.00,-31.00,-100.00,+17.00,+19.00,-28.00,-19.00,+46.00,+22.00,+2.00,-1.00
-12.00,-9.00,-29.00,-1.00,-34.00,-72.00,-13.00,-36.00,-14.00,-9.00,-55.00,+10.00,+1.00,-15.00,-11.00,+32.00
-1.00,+5.00,+23.00,+0.00,-4.00,+20.00,-40.00,-38.00,-52.00,-48.00,-33.00,-3.00,+60.00,+1.00,-27.00,-17.00
-18.00,+8.00,-5.00,+1.00,+16.00,+2.00,+13.00,-22.00,-56.00,+6.00,-15.00,+28.00,+29.00,-2.00,-2.00,-31.00
+31.00,+13.00,+2.00,-1.00,-14.00,-26.00,+2.00,+105.00,-56.00,+2.00,+27.00,-13.00,-14.00,+13.00,+12.00,+22.00
+7.00,-8.00,+4.00,+5.00,+18.00,+56.00,-1.00,+49.00,-18.00,+1.00,+35.00,+2.00,-81.00,-28.00,-7.00,-12.00
-15.00,-10.00,-8.00,-10.00,+7.00,+1.00,+19.00,-75.00,-34.00,+9.00,-7.00,-15.00,-36.00,-4.00,+33.00,+41.00
-8.00,-7.00,-9.00,-4.00,-17.00,-2.00,-5.00,-45.00,-28.00,-2.00,-13.00,-12.00,+42.00,+46.00,-29.00,-88.00
+10.00,+18.00,-9.00,+4.00,+24.00,-6.00,-15.00,-24.00,+35.00,-5.00,+14.00,+1.00,+12.00,-47.00,-8.00,+56.00
-4.00,+7.00,+16.00,-1.00,-18.00,+3.00,-12.00,-30.00,+25.00,-9.00,-12.00,+7.00,+45.00,-41.00,-33.00,-4.00
-20.00,-27.00,-32.00,-4.00,-14.00,-13.00,+6.00,+20.00,+41.00,-26.00,+1.00,-6.00,-25.00,+22.00,-14.00,+17.00
+36.00,+13.00,-3.00,-1.00,+5.00,+15.00,+5.00,+41.00,+31.00,-8.00,+2.00,+7.00,-20.00,-39.00,-3.00,+12.00
-9.00,-23.00,-53.00,-13.00,-4.00,-13.00,+10.00,-9.00,+18.00,+24.00,-1.00,+12.00,+19.00,+46.00,+0.00,-5.00
+25.00,+32.00,+35.00,+10.00,+30.00,+18.00,-7.00,-16.00,+21.00,-41.00,-47.00,-13.00,+18.00,-1.00,-6.00,+6.00
-16.00,-14.00,-19.00,-3.00,-23.00,-17.00,-3.00,-10.00,+60.00,+6.00,-20.00,-2.00,+14.00,-5.00,-43.00,-44.00
-13.00,-26.00,-9.00,-4.00,-14.00,-3.00,-1.00,-24.00,+48.00,+27.00,+7.00,-3.00,+3.00,+16.00,+14.00,+2.00
+20.00,+3.00,+15.00,+0.00,+8.00,+5.00,-2.00,-1.00,+36.00,+3.00,+39.00,+10.00,-19.00,+0.00,+10.00,+14.00
-22.00,-2.00,-34.00,-10.00,-18.00,-31.00,-6.00,+22.00,-3.00,-19.00,-77.00,-16.00,+6.00,-3.00,-6.00,-3.00
-5.00,-2.00,+13.00,+2.00,+1.00,+5.00,+12.00,-16.00,+1.00,-3.00,+12.00,+15.00,+35.00,+13.00,+21.00,+2.00
-68.00,+8.00,+9.00,+2.00,+8.00,-27.00,-18.00,+10.00,+29.00,+11.00,+17.00,+6.00,-39.00,-8.00,+9.00,+17.00
+18.00,+14.00,+20.00,+3.00,+7.00,-50.00,-3.00,+21.00,+1.00,-24.00,-17.00,-12.00,+20.00,+0.00,+0.00,-31.00
+6.00,-24.00,-11.00,-6.00,+37.00,+20.00,-2.00,-2.00,-2.00,+22.00,+44.00,+35.00,+1.00,+6.00,+6.00,+26.00
+2.00,+9.00,+9.00,-2.00,-27.00,-9.00,+9.00,+28.00,+8.00,-4.00,+4.00,-8.00,+34.00,+8.00,-14.00,-20.00
-30.00,-13.00,-11.00,-3.00,+24.00,+3.00,+4.00,-12.00,-21.00,-18.00,-34.00,-20.00,-20.00,-20.00,-3.00,+3.00
-43.00,+3.00,+11.00,+1.00,-28.00,+14.00,-15.00,-34.00,-1.00,-11.00,+8.00,-5.00,-13.00,-14.00,-7.00,+11.00
-50.00,-3.00,-10.00,-2.00,+7.00,-18.00,+10.00,-52.00,-21.00,-7.00,+13.00,-32.00,-77.00,-8.00,-13.00,-9.00
-12.00,-10.00,-1.00,+1.00,+3.00,-25.00,-1.00,+74.00,-15.00,-7.00,-4.00,+15.00,-1.00,+1.00,-1.00,-1.00
-8.00,+15.00,+13.00,-2.00,-6.00,+12.00,-5.00,-16.00,-8.00,+8.00,+2.00,-12.00,+57.00,+26.00,+12.00,-5.00
+2.00,-9.00,+6.00,-4.00,-1.00,+2.00,+6.00,+8.00,-1.00,+1.00,-3.00,+7.00,+15.00,-21.00,-1.00,-9.00
+30.00,+11.00,-15.00,+2.00,-3.00,+8.00,-3.00,+5.00,-15.00,-7.00,+3.00,+22.00,+43.00,+13.00,-12.00,+9.00
+30.00,+1.00,+28.00,+2.00,-2.00,-1.00,-4.00,-25.00,+16.00,+8.00,+12.00,-18.00,-53.00,-2.00,+16.00,+6.00
+45.00,+4.00,-32.00,-7.00,-8.00,+11.00,+3.00,-14.00,-2.00,+5.00,+0.00,+7.00,-8.00,-8.00,-4.00,-1.00
+9.00,-20.00,+14.00,+2.00,-9.00,-5.00,+1.00,-4.00,-2.00,-15.00,-8.00,-11.00,-17.00,+14.00,+5.00,+11.00
+35.00,-8.00,+2.00,-2.00,+8.00,+3.00,-7.00,+6.00,-1.00,+9.00,+4.00,+4.00,+32.00,-1.00,-4.00,-2.00
-1.00,-28.00,-22.00,-6.00,-6.00,+2.00,-5.00,-4.00,-19.00,-6.00,+36.00,+15.00,+4.00,+1.00,+1.00,-5.00
+53.00,+27.00,-4.00,-2.00,-3.00,-5.00,-1.00,-6.00,+9.00,-4.00,-8.00,+1.00,-1.00,+4.00,+0.00,+13.00
+15.00,+44.00,+7.00,+4.00,+4.00,+1.00,+3.00,-2.00,-26.00,-21.00,-41.00,-11.00,-11.00,+4.00,+8.00,-4.00
-3.00,+0.00,-10.00,+0.00,-4.00,+29.00,+3.00,+13.00,+0.00,+2.00,+20.00,+1.00,+6.00,+3.00,+11.00,+6.00
+11.00,-20.00,-4.00,+2.00,-15.00,-23.00,+0.00,+0.00,+11.00,+43.00,+16.00,+7.00,+17.00,-1.00,-8.00,-18.00
-7.00,-4.00,+8.00,+3.00,-13.00,-11.00,-1.00,-14.00,-10.00,-24.00,-2.00,-3.00,-13.00,-7.00,+5.00,+16.00
-30.00,-16.00,+2.00,-1.00,+3.00,+10.00,+4.00,-7.00,-14.00,-10.00,-10.00,-3.00,-15.00,-2.00,+1.00,-7.00
+9.00,-12.00,+6.00,+0.00,+24.00,+35.00,-11.00,-12.00,-3.00,+20.00,+16.00,-3.00,+6.00,+3.00,-2.00,+1.00
-6.00,+39.00,+3.00,-5.00,-27.00,-28.00,-9.00,-1.00,-13.00,-22.00,-19.00,+11.00,+6.00,-3.00,+6.00,+8.00
-34.00,-25.00,-3.00,+0.00,+10.00,-14.00,+4.00,+3.00,-7.00,+15.00,+0.00,-9.00,+41.00,-10.00,-12.00,-9.00
+19.00,+17.00,+6.00,-1.00,-19.00,-5.00,-8.00,-13.00,+11.00,+13.00,+1.00,-2.00,-69.00,+0.00,+4.00,+0.00
+12.00,+2.00,-1.00,-1.00,+4.00,+9.00,+5.00,+15.00,+5.00,-18.00,+5.00,-2.00,-20.00,+9.00,+18.00,-1.00
-58.00,-2.00,-4.00,-3.00,+15.00,+10.00,-4.00,+0.00,-7.00,-6.00,-15.00,-21.00,+19.00,-29.00,-39.00,-22.00
-16.00,-3.00,-13.00,-3.00,-10.00,-4.00,-2.00,-8.00,-4.00,+5.00,-3.00,-3.00,+5.00,-1.00,-12.00,+24.00
-11.00,-13.00,-6.00,-5.00,+6.00,+10.00,+0.00,+8.00,-18.00,-9.00,+14.00,+2.00,+2.00,+20.00,+2.00,-19.00
+23.00,-7.00,+8.00,+1.00,-8.00,-12.00,-3.00,-5.00,+18.00,+4.00,-1.00,+1.00,+14.00,-16.00,+13.00,+18.00
+23.00,+7.00,-6.00,+0.00,+2.00,-1.00,+0.00,-8.00,-3.00,-6.00,-12.00,+2.00,-7.00,+10.00,+13.00,+5.00
-7.00,+3.00,+13.00,+1.00,-2.00,-3.00,-2.00,-3.00,-2.00,+1.00,+7.00,+1.00,-19.00,-5.00,+0.00,-8.00
-7.00,-45.00,-2.00,+1.00,+1.00,+4.00,+3.00,+0.00,+5.00,+2.00,+1.00,+3.00,+15.00,+4.00,-4.00,+2.00
-9.00,+34.00,-10.00,-3.00,-2.00,-12.00,-6.00,-3.00,-1.00,+5.00,+13.00,+1.00,+0.00,+2.00,-9.00,-1.00
+39.00,+17.00,+7.00,-2.00,-2.00,-2.00,+3.00,-15.00,-3.00,-13.00,-14.00,+2.00,+0.00,+1.00,+6.00,+7.00
-12.00,-32.00,-8.00,-5.00,+3.00,+12.00,+0.00,-2.00,-11.00,-13.00,-17.00,-9.00,-11.00,-3.00,-7.00,-9.00
+6.00,+2.00,+0.00,+1.00,+3.00,-3.00,+0.00,-2.00,+30.00,+31.00,+0.00,+5.00,+3.00,+1.00,+10.00,+12.00
+0.00,+6.00,+7.00,-3.00,-9.00,-10.00,-1.00,-6.00,-10.00,+7.00,+6.00,-3.00,+5.00,-1.00,-3.00,-9.00
+20.00,+14.00,+3.00,+3.00,+4.00,+13.00,+2.00,+6.00,-11.00,-17.00,+8.00,+3.00,+4.00,-1.00,+0.00,+4.00
+9.00,+1.00,+0.00,+3.00,+12.00,+10.00,+1.00,-24.00,-1.00,+0.00,+1.00,+1.00,-14.00,+3.00,+7.00,-1.00
-3.00,-5.00,-4.00,-2.00,-6.00,-2.00,+3.00,+38.00,+9.00,+3.00,-6.00,-2.00,+3.00,-3.00,+0.00,-5.00
-19.00,-13.00,-5.00,-2.00,-6.00,-17.00,-14.00,-55.00,-19.00,-54.00,+2.00,-1.00,+7.00,-1.00,-3.00,+0.00
+8.00,-3.00,-1.00,-2.00,+24.00,+8.00,+6.00,+10.00,+7.00,+38.00,-7.00,-1.00,-4.00,+0.00,+2.00,-4.00
+8.00,+5.00,+7.00,+2.00,-14.00,-12.00,+5.00,-6.00,+12.00,-3.00,+3.00,-2.00,-16.00,-2.00,+9.00,+7.00
+16.00,+22.00,+3.00,-1.00,-1.00,+0.00,+0.00,+6.00,-2.00,+0.00,-1.00,+3.00,+19.00,+3.00,-3.00,+0.00
-4.00,+0.00,-2.00,-1.00,-4.00,+4.00,+3.00,+16.00,-2.00,+2.00,-4.00,-8.00,-18.00,-3.00,+0.00,-1.00
-20.00,-9.00,+3.00,+0.00,+7.00,-3.00,-6.00,-11.00,+1.00,-11.00,+2.00,+2.00,-2.00,-6.00,-17.00,-4.00
-13.00,-3.00,-9.00,-3.00,+0.00,+9.00,-2.00,+3.00,-8.00,-1.00,-1.00,+7.00,+11.00,+2.00,+1.00,-16.00
-4.00,+4.00,+1.00,-3.00,+2.00,+2.00,+0.00,-10.00,-10.00,+3.00,+1.00,-18.00,-32.00,-8.00,-2.00,+7.00
+3.00,-3.00,+0.00,+0.00,-3.00,-6.00,+2.00,+20.00,-1.00,+1.00,-7.00,+1.00,+8.00,+5.00,+3.00,+3.00
-4.00,-12.00,-2.00,+1.00,-1.00,+7.00,-2.00,-5.00,-5.00,-10.00,-5.00,+1.00,+11.00,+3.00,+7.00,-1.00
-3.00,+13.00,-8.00,-4.00,+0.00,-2.00,-3.00,+4.00,+8.00,+18.00,+5.00,-1.00,-9.00,-5.00,+0.00,-4.00
-15.00,-40.00,-7.00,-5.00,-10.00,-6.00,-3.00,-11.00,+2.00,-13.00,-1.00,+4.00,+9.00,+2.00,-3.00,+0.00
