-3.00,-9.00,-7.00,-2.00,-2.00,+0.00,+0.00,+1.00,-10.00,-1.00,-3.00,-2.00,-2.00,-2.00,-1.00,-2.00
-2.00,+0.00,-4.00,-1.00,-2.00,+0.00,+0.00,+0.00,-1.00,+1.00,+4.00,+1.00,-1.00,-1.00,-1.00,-1.00
+0.00,+2.00,+1.00,+1.00,-1.00,-1.00,-2.00,-2.00,+5.00,-4.00,+0.00,+2.00,-1.00,+0.00,+0.00,+0.00
+1.00,-2.00,-2.00,-3.00,-1.00,+0.00,+1.00,-3.00,-4.00,-2.00,-9.00,-1.00,+0.00,-1.00,+1.00,-5.00
-16.00,-3.00,+3.00,+1.00,+1.00,-1.00,-5.00,-4.00,+2.00,+1.00,+2.00,-3.00,-1.00,-1.00,-1.00,+0.00
-5.00,-1.00,-6.00,-4.00,-2.00,+0.00,+0.00,-3.00,-1.00,-3.00,-3.00,-2.00,-1.00,-2.00,-1.00,+0.00
-15.00,-9.00,-5.00,-1.00,-2.00,-1.00,-3.00,-25.00,-3.00,+0.00,+2.00,+0.00,-1.00,-1.00,-2.00,-2.00
+9.00,+2.00,-1.00,-1.00,-2.00,+0.00,+3.00,+32.00,+1.00,+2.00,+3.00,+0.00,-1.00,+0.00,-1.00,+0.00
-20.00,-3.00,-5.00,-2.00,-1.00,-1.00,+1.00,+18.00,-1.00,+0.00,+1.00,+1.00,-1.00,+0.00,-1.00,-2.00
-4.00,-1.00,+3.00,-1.00,+0.00,+0.00,-2.00,+17.00,-4.00,+0.00,+0.00,-1.00,-1.00,-1.00,-1.00,-4.00
-23.00,+3.00,+0.00,+1.00,+1.00,+1.00,-3.00,-8.00,+9.00,+1.00,-1.00,-1.00,+1.00,-1.00,-2.00,+1.00
+2.00,-2.00,-4.00,+1.00,-2.00,-3.00,-7.00,-44.00,-9.00,-3.00,-1.00,-1.00,-2.00,+1.00,+1.00,-1.00
-19.00,-23.00,-12.00,-6.00,-7.00,-6.00,-9.00,-31.00,+3.00,+1.00,-1.00,-1.00,-2.00,-1.00,-2.00,+0.00
+5.00,+8.00,-15.00,-8.00,-8.00,-8.00,-7.00,+18.00,+2.00,+0.00,-3.00,-1.00,-3.00,-5.00,-5.00,+4.00
+40.00,+63.00,+35.00,+5.00,+7.00,+8.00,+21.00,+65.00,-8.00,-6.00,-4.00,+0.00,+0.00,-1.00,+1.00,-6.00
+32.00,+41.00,+22.00,+14.00,+8.00,+8.00,+9.00,+21.00,+2.00,-1.00,+3.00,-1.00,+0.00,+0.00,+2.00,-3.00
-4.00,-1.00,+0.00,+0.00,+3.00,+3.00,+1.00,-2.00,-1.00,-5.00,-2.00,+0.00,-1.00,+4.00,+7.00,-1.00
-17.00,-13.00,-3.00,+0.00,+0.00,-1.00,-5.00,-36.00,-1.00,-22.00,-11.00,-6.00,-3.00,+6.00,+8.00,+4.00
-13.00,-43.00,-23.00,-9.00,-8.00,-7.00,-12.00,-31.00,+19.00,-10.00,-22.00,-9.00,-8.00,-13.00,-14.00,+6.00
+1.00,+7.00,-7.00,-7.00,-4.00,-4.00,-2.00,+1.00,-41.00,+14.00,+35.00,+7.00,+0.00,-14.00,-18.00,-11.00
+0.00,-2.00,+3.00,-1.00,+0.00,-1.00,-1.00,-8.00,+21.00,+55.00,+20.00,+10.00,+5.00,+2.00,+2.00,+12.00
-1.00,-22.00,-7.00,-1.00,-2.00,-1.00,+0.00,-9.00,+8.00,+22.00,+9.00,+3.00,+2.00,+3.00,+4.00,-6.00
+7.00,+1.00,-4.00,+0.00,-1.00,-1.00,-1.00,+4.00,+8.00,-7.00,-4.00,-5.00,+0.00,+7.00,+8.00,+5.00
-16.00,-9.00,-2.00,+0.00,+0.00,+0.00,+2.00,+12.00,-12.00,-35.00,-21.00,-6.00,-4.00,+1.00,+2.00,-1.00
+1.00,-16.00,-3.00,-2.00,-3.00,-1.00,-5.00,-1.00,-7.00,-18.00,-7.00,-3.00,-3.00,-4.00,-5.00,-7.00
+10.00,+14.00,+7.00,+1.00,+2.00,+1.00,+1.00,-3.00,-3.00,-4.00,-2.00,-1.00,-2.00,-1.00,-2.00,-1.00
-10.00,+1.00,-1.00,-1.00,+0.00,-2.00,+1.00,+7.00,-6.00,-10.00,-2.00,-1.00,+0.00,-2.00,+0.00,-4.00
-3.00,-10.00,-5.00,-3.00,-2.00,-1.00,-4.00,-10.00,+14.00,+5.00,-4.00,-2.00,-1.00,-1.00,-5.00,+3.00
+0.00,+4.00,+1.00,+0.00,+1.00,+0.00,+0.00,+1.00,-6.00,-5.00,+0.00,-2.00,-2.00,-2.00,-4.00,-13.00
+5.00,+10.00,+6.00,+0.00,+1.00,+0.00,+3.00,+6.00,+0.00,-2.00,-4.00,-2.00,+0.00,-4.00,-3.00,+0.00
+9.00,-9.00,-3.00,-1.00,+1.00,-1.00,-3.00,-7.00,-13.00,+0.00,+4.00,+1.00,+1.00,-2.00,-2.00,+1.00
-10.00,-14.00,-5.00,-2.00,-2.00,-2.00,-2.00,-6.00,+5.00,+9.00,+0.00,-1.00,+0.00,+3.00,+3.00,+1.00
+9.00,+10.00,+1.00,+2.00,+1.00,+0.00,-1.00,-12.00,+3.00,-3.00,-4.00,-3.00,+0.00,-1.00,-1.00,-1.00
+9.00,+0.00,+1.00,+1.00,+1.00,+1.00,+4.00,+11.00,-10.00,-15.00,-3.00,-1.00,-2.00,-3.00,-3.00,+0.00
+5.00,-9.00,-9.00,-1.00,-2.00,-2.00,-1.00,-9.00,-1.00,+4.00,+7.00,+1.00,-1.00,+1.00,-2.00,-6.00
+9.00,-28.00,-11.00,-7.00,-5.00,-4.00,-3.00,-1.00,+14.00,+21.00,+1.00,+1.00,+1.00,+2.00,+5.00,+3.00
+16.00,+52.00,+16.00,+2.00,+2.00,+1.00,+5.00,+12.00,-11.00,-13.00,-5.00,-1.00,-2.00,-3.00,-1.00,-1.00
+13.00,+13.00,+4.00,+0.00,+2.00,-2.00,+4.00,-10.00,-6.00,+0.00,-3.00,+0.00,-2.00,-2.00,-3.00,-5.00
-8.00,-48.00,-4.00,+2.00,+0.00,+4.00,-2.00,+8.00,-5.00,+1.00,+2.00,+1.00,+0.00,+1.00,-1.00,-3.00
+8.00,+3.00,-6.00,-2.00,-5.00,-4.00,-10.00,-43.00,+5.00,-21.00,-10.00,-3.00,-1.00,+0.00,+1.00,+4.00
-7.00,-31.00,-20.00,-7.00,-7.00,-7.00,-11.00,+82.00,+10.00,+29.00,-3.00,-1.00,-1.00,-1.00,-1.00,-1.00
+29.00,+13.00,+14.00,+9.00,+9.00,+13.00,+26.00,-13.00,-1.00,-4.00,+6.00,+1.00,+0.00,+2.00,+3.00,+2.00
+0.00,+4.00,+11.00,+3.00,+3.00,+0.00,-1.00,+8.00,+14.00,+20.00,+0.00,+1.00,+1.00,+0.00,-5.00,-3.00
+10.00,+35.00,+5.00,+0.00,-2.00,-1.00,-4.00,-37.00,-20.00,-10.00,-2.00,-1.00,+1.00,+10.00,+12.00,+5.00
-23.00,-16.00,-4.00,+0.00,-2.00,-2.00,-2.00,-3.00,+8.00,-74.00,-19.00,-6.00,-1.00,+3.00,+7.00,+3.00
-10.00,-20.00,-13.00,-8.00,-5.00,-6.00,-7.00,+37.00,-14.00,+8.00,-13.00,-5.00,-6.00,-16.00,-38.00,-11.00
-11.00,-13.00,-9.00,-3.00,-3.00,-2.00,+9.00,+20.00,-3.00,-2.00,+16.00,+3.00,+0.00,-8.00,-5.00,-9.00
-21.00,-14.00,-6.00,-1.00,+1.00,-2.00,-6.00,-10.00,+8.00,+0.00,-2.00,+1.00,+0.00,+13.00,+2.00,+6.00
+8.00,-10.00,-4.00,-3.00,-3.00,-5.00,+2.00,-26.00,-10.00,-17.00,+5.00,+3.00,+7.00,+8.00,-3.00,-6.00
-17.00,-20.00,-4.00,-3.00,-5.00,-4.00,-10.00,+25.00,+6.00,-9.00,-15.00,-6.00,-3.00,-1.00,+0.00,-6.00
+5.00,+46.00,+10.00,+3.00,+6.00,+13.00,-4.00,-17.00,+1.00,+10.00,-4.00,-4.00,-11.00,+1.00,+6.00,+9.00
-1.00,+13.00,+2.00,+0.00,-1.00,-4.00,+0.00,+0.00,+5.00,+6.00,+4.00,+1.00,+1.00,-3.00,-7.00,+3.00
+4.00,+9.00,+2.00,+2.00,+4.00,+3.00,+2.00,-1.00,+3.00,+3.00,-6.00,-3.00,-3.00,+0.00,+6.00,+7.00
-31.00,-15.00,-3.00,-3.00,-4.00,-4.00,-6.00,+3.00,-5.00,+11.00,+1.00,+1.00,+0.00,+5.00,+7.00,-1.00
-1.00,-20.00,-16.00,-5.00,-5.00,-7.00,-12.00,-15.00,-8.00,-8.00,-1.00,+1.00,+9.00,-12.00,-19.00,-6.00
-11.00,-19.00,-14.00,-6.00,-3.00,+0.00,+3.00,+26.00,-1.00,-4.00,-1.00,-1.00,-5.00,-3.00,+4.00,-1.00
+12.00,+30.00,+3.00,-2.00,-2.00,+1.00,+3.00,-10.00,-4.00,+12.00,+0.00,+0.00,+0.00,-6.00,-5.00,-2.00
+11.00,+68.00,+28.00,+9.00,+6.00,+2.00,+8.00,-3.00,-7.00,-7.00,+7.00,+2.00,+0.00,+0.00,+1.00,-8.00
-1.00,-14.00,-8.00,-2.00,-4.00,-6.00,-11.00,-26.00,+0.00,-7.00,+0.00,+0.00,+4.00,+10.00,+14.00,+4.00
-1.00,-32.00,-6.00,+0.00,+0.00,+3.00,+5.00,+21.00,+13.00,+43.00,-2.00,-1.00,-4.00,-14.00,-11.00,-12.00
+2.00,-30.00,-7.00,-4.00,-2.00,+0.00,-5.00,-46.00,+0.00,-51.00,-6.00,-5.00,-4.00,+6.00,-2.00,+4.00
-5.00,-15.00,-13.00,-7.00,-8.00,-7.00,-10.00,+5.00,-26.00,+14.00,+12.00,+6.00,+6.00,-5.00,+7.00,+1.00
-1.00,-69.00,-20.00,-3.00,-2.00,-5.00,+7.00,-6.00,-2.00,+1.00,-6.00,-1.00,-3.00,+10.00,+1.00,-4.00
+1.00,+19.00,+11.00,-4.00,-1.00,+3.00,-11.00,+1.00,+14.00,+21.00,+1.00,-2.00,-3.00,-2.00,-4.00,+2.00
+19.00,+53.00,+21.00,+12.00,+10.00,+16.00,+14.00,+73.00,-2.00,-6.00,+2.00,+2.00,-3.00,-4.00,-3.00,-1.00
-11.00,-54.00,-6.00,-2.00,-4.00,+0.00,+12.00,-46.00,+8.00,+24.00,-9.00,-7.00,-3.00,+7.00,+17.00,+7.00
-10.00,+25.00,+11.00,+0.00,-6.00,-9.00,-1.00,+28.00,-13.00,-28.00,+3.00,-2.00,-3.00,+4.00,-2.00,-6.00
-9.00,-16.00,-16.00,-7.00,-6.00,+7.00,-13.00,-14.00,+5.00,+0.00,-15.00,-11.00,-14.00,-31.00,-30.00,-11.00
-13.00,-20.00,-5.00,-3.00,+7.00,-14.00,-35.00,-38.00,-20.00,+50.00,+34.00,+9.00,+5.00,+5.00,-21.00,-3.00
+9.00,+26.00,-1.00,-2.00,+0.00,+1.00,+0.00,-2.00,+39.00,-12.00,+2.00,+8.00,+21.00,+0.00,+27.00,+31.00
-1.00,-10.00,-9.00,-5.00,-2.00,-3.00,-2.00,-8.00,-7.00,-30.00,-14.00,-12.00,-33.00,+1.00,+3.00,+11.00
-8.00,+1.00,+0.00,+0.00,+0.00,+0.00,+5.00,-14.00,-1.00,+0.00,-13.00,-2.00,+0.00,+9.00,+7.00,-11.00
+4.00,+5.00,+2.00,-1.00,-5.00,-2.00,+3.00,-2.00,+5.00,+42.00,+1.00,-3.00,-1.00,+4.00,+0.00,+4.00
+4.00,-23.00,-4.00,+2.00,-1.00,+1.00,-3.00,+8.00,-8.00,-16.00,+1.00,-4.00,+1.00,-23.00,-15.00,-13.00
-7.00,+7.00,-3.00,-5.00,-3.00,-2.00,-4.00,-16.00,+2.00,+16.00,+6.00,-2.00,-8.00,-3.00,-8.00,-5.00
-13.00,-2.00,+6.00,-1.00,-1.00,-7.00,-1.00,+18.00,-1.00,-29.00,-8.00,-2.00,-1.00,+8.00,+9.00,+8.00
-3.00,-12.00,-4.00,+0.00,-5.00,-2.00,-1.00,-6.00,-4.00,-15.00,-14.00,-4.00,-5.00,-14.00,+10.00,-7.00
+20.00,-7.00,-8.00,-3.00,+2.00,-4.00,-9.00,-19.00,-7.00,+15.00,+7.00,+2.00,+2.00,+3.00,-15.00,-14.00
+17.00,+88.00,+22.00,+7.00,+1.00,+3.00,+2.00,-3.00,-7.00,+0.00,-4.00,+4.00,+10.00,-4.00,-3.00,+2.00
-3.00,+29.00,+8.00,+1.00,+4.00,+0.00,+5.00,+8.00,-11.00,-17.00,+3.00,+0.00,+6.00,+9.00,+26.00,+19.00
-10.00,-47.00,-12.00,-5.00,-3.00,-1.00,+0.00,-21.00,-12.00,-29.00,-5.00,+0.00,-1.00,-3.00,-8.00,-9.00
+2.00,-44.00,-28.00,-6.00,-1.00,+2.00,-4.00,-13.00,+16.00,+33.00,+3.00,-3.00,-13.00,-12.00,-17.00,-13.00
-4.00,-30.00,-25.00,-10.00,-6.00,-8.00,-16.00,-31.00,-18.00,-17.00,-3.00,-2.00,+2.00,-7.00,-25.00,-3.00
+11.00,-6.00,+41.00,+3.00,-3.00,-2.00,+12.00,+81.00,-11.00,-18.00,+2.00,+2.00,-1.00,+1.00,+23.00,-5.00
+15.00,+40.00,+33.00,+12.00,+14.00,+9.00,+17.00,-38.00,+0.00,+0.00,+1.00,+2.00,+4.00,+2.00,-5.00,+5.00
+7.00,+22.00,+15.00,+5.00,+1.00,+2.00,-2.00,+69.00,+9.00,+12.00,-3.00,-6.00,-7.00,+10.00,+16.00,+15.00
-3.00,-44.00,-7.00,-2.00,-3.00,-6.00,-15.00,-34.00,+9.00,+7.00,+7.00,+3.00,+6.00,+2.00,+11.00,+5.00
-21.00,-46.00,-20.00,-1.00,+0.00,-5.00,-7.00,-25.00,-1.00,+3.00,-24.00,-8.00,-4.00,-17.00,-31.00,-13.00
+10.00,-11.00,-8.00,-7.00,-8.00,-7.00,-2.00,+6.00,-17.00,+0.00,+8.00,+0.00,+1.00,-21.00,-22.00,-23.00
-4.00,+17.00,+2.00,-2.00,+0.00,+0.00,+1.00,-9.00,-17.00,-19.00,+19.00,+5.00,-5.00,+5.00,+9.00,+8.00
-2.00,-1.00,+1.00,+1.00,+1.00,+3.00,+0.00,-25.00,+27.00,+62.00,+5.00,+1.00,+7.00,-8.00,+51.00,+13.00
-15.00,-12.00,-11.00,-1.00,-1.00,-2.00,+8.00,+45.00,+0.00,-13.00,+5.00,+0.00,+4.00,+10.00,+10.00,+6.00
+13.00,+32.00,+15.00,+3.00,-2.00,+2.00,-2.00,+1.00,-1.00,-19.00,-20.00,-5.00,-2.00,-3.00,-28.00,-4.00
-11.00,-9.00,-10.00,+0.00,-1.00,-1.00,+0.00,+4.00,-7.00,-6.00,-6.00,-1.00,-3.00,+4.00,-2.00,-18.00
-29.00,+28.00,+15.00,+2.00,-1.00,+0.00,+1.00,+13.00,-8.00,-17.00,+2.00,+1.00,+8.00,+4.00,-1.00,-2.00
+10.00,-12.00,-1.00,+1.00,+1.00,+0.00,-8.00,-86.00,+11.00,+38.00,+3.00,+1.00,+1.00,+2.00,-1.00,-1.00
+2.00,-28.00,-39.00,-8.00,-7.00,+0.00,+19.00,+47.00,+8.00,-17.00,-3.00,-8.00,-11.00,-10.00,+11.00,-17.00
-4.00,-56.00,+15.00,+5.00,+5.00,+2.00,-7.00,-54.00,-15.00,-7.00,+4.00,+4.00,+3.00,+2.00,-12.00,+4.00
+20.00,+63.00,+24.00,+0.00,+1.00,-4.00,+0.00,+77.00,+3.00,-9.00,-10.00,-2.00,-2.00,+2.00,-6.00,-8.00
+15.00,-42.00,+0.00,+4.00,+4.00,+7.00,+12.00,-34.00,-10.00,-12.00,+5.00,+4.00,+1.00,+1.00,+5.00,+4.00
+7.00,+14.00,-1.00,-3.00,-2.00,-3.00,+1.00,+18.00,+8.00,+6.00,-10.00,-4.00,-3.00,+7.00,+0.00,+11.00
-9.00,+4.00,-11.00,-5.00,-4.00,+1.00,+2.00,-12.00,+1.00,+10.00,-14.00,-4.00,-6.00,-6.00,+0.00,+8.00
-8.00,-13.00,-5.00,+2.00,+3.00,+1.00,+7.00,-25.00,-9.00,-32.00,+10.00,-2.00,-10.00,-17.00,-23.00,-23.00
-21.00,-81.00,-39.00,-12.00,-8.00,-8.00,-17.00,-45.00,+0.00,+23.00,+9.00,+2.00,-2.00,-3.00,+21.00,-2.00
-2.00,-68.00,+9.00,-3.00,-4.00,-2.00,+10.00,+37.00,-3.00,+11.00,+4.00,+3.00,+2.00,-4.00,-3.00,-4.00
+12.00,+41.00,+57.00,+13.00,+14.00,+9.00,-19.00,+8.00,-16.00,-64.00,-20.00,-5.00,+2.00,+3.00,-19.00,-3.00
+6.00,-26.00,-5.00,+2.00,-7.00,-9.00,+14.00,+7.00,+4.00,+13.00,+0.00,-1.00,-2.00,-4.00,+0.00,+10.00
+12.00,+38.00,+15.00,+4.00,+5.00,+0.00,-6.00,+8.00,+3.00,-22.00,+4.00,-3.00,-2.00,+8.00,+17.00,-2.00
-15.00,-58.00,-29.00,-10.00,-2.00,-5.00,-14.00,-13.00,+20.00,+89.00,+0.00,-3.00,-3.00,+3.00,+3.00,+23.00
-7.00,+2.00,-12.00,-5.00,-6.00,-6.00,-4.00,+1.00,-27.00,-52.00,-3.00,-2.00,+1.00,-2.00,-7.00,-14.00
+2.00,+19.00,+9.00,+3.00,+6.00,+10.00,+13.00,-5.00,-10.00,+10.00,+4.00,+7.00,+18.00,+3.00,-2.00,-3.00
-8.00,+3.00,-8.00,-1.00,-5.00,-1.00,-15.00,+29.00,+27.00,+5.00,+6.00,-3.00,-4.00,-4.00,-5.00,-1.00
-8.00,+21.00,+9.00,+1.00,-2.00,-5.00,+1.00,-23.00,-4.00,-43.00,-10.00,-2.00,+5.00,-20.00,-30.00,-9.00
-9.00,+5.00,-8.00,+2.00,+3.00,-1.00,-7.00,-57.00,+17.00,+59.00,+0.00,-2.00,+7.00,+11.00,+32.00,+3.00
-7.00,-47.00,-12.00,-8.00,-6.00,+2.00,+1.00,+49.00,-22.00,-11.00,+4.00,+1.00,-9.00,+1.00,-11.00,+7.00
-22.00,+92.00,+16.00,+3.00,+1.00,-2.00,+26.00,+24.00,-14.00,-32.00,-8.00,+0.00,+2.00,+2.00,+2.00,-9.00
-40.00,+21.00,+6.00,+0.00,+1.00,+7.00,-6.00,-5.00,-5.00,-5.00,+1.00,-1.00,-9.00,-7.00,-1.00,-25.00
-40.00,-41.00,-37.00,-13.00,-14.00,-16.00,-18.00,-9.00,+20.00,+13.00,+4.00,+2.00,+12.00,+1.00,-14.00,+3.00
+5.00,+22.00,+17.00,+1.00,-1.00,+9.00,-1.00,-18.00,+9.00,-21.00,-16.00,-8.00,-4.00,-1.00,+9.00,+6.00
+6.00,+27.00,+6.00,+3.00,+5.00,+0.00,+8.00,+20.00,-29.00,-5.00,-5.00,-1.00,+0.00,-7.00,-36.00,-5.00
-17.00,+8.00,+1.00,-2.00,-3.00,+0.00,-10.00,-11.00,+21.00,+32.00,+15.00,+7.00,+2.00,+12.00,+16.00,+11.00
-24.00,-17.00,-36.00,-8.00,-5.00,-1.00,-4.00,-3.00,-16.00,-37.00,-1.00,-1.00,-11.00,-8.00,-13.00,-15.00
+46.00,+61.00,+47.00,+7.00,+4.00,+3.00,+19.00,+12.00,+7.00,+19.00,+0.00,-2.00,-6.00,-11.00,+2.00,-11.00
+21.00,-45.00,-19.00,-3.00,-4.00,-3.00,-18.00,-20.00,+14.00,-18.00,-2.00,+1.00,-1.00,-6.00,-17.00,+2.00
+28.00,-45.00,+9.00,+3.00,+0.00,+3.00,+7.00,+4.00,-4.00,-13.00,-4.00,+0.00,+1.00,+5.00,-10.00,+6.00
+8.00,+56.00,+19.00,+1.00,-6.00,-7.00,+5.00,+17.00,-7.00,-24.00,-2.00,-6.00,-3.00,+1.00,+26.00,+14.00
-15.00,-34.00,-23.00,-8.00,-1.00,-4.00,-11.00,-15.00,+0.00,+63.00,-2.00,-5.00,-2.00,+17.00,+24.00,-18.00
+17.00,+34.00,+30.00,+9.00,+0.00,-1.00,-1.00,+4.00,+4.00,+4.00,-2.00,+3.00,+4.00,-16.00,-20.00,-6.00
-10.00,-8.00,-48.00,-9.00,-3.00,-15.00,-7.00,-9.00,-10.00,-71.00,-3.00,+0.00,-6.00,-4.00,+12.00,+1.00
+25.00,+0.00,+19.00,-6.00,+1.00,+0.00,+7.00,+36.00,+37.00,+59.00,+8.00,+1.00,-4.00,-8.00,-14.00,-8.00
-3.00,-38.00,-12.00,+4.00,-2.00,+4.00,-2.00,-2.00,-4.00,-8.00,-10.00,-7.00,-1.00,+2.00,+7.00,+20.00
+4.00,-9.00,-2.00,-1.00,-1.00,+0.00,+2.00,+37.00,-19.00,-82.00,-10.00,+2.00,+13.00,+9.00,+7.00,+10.00
-17.00,+1.00,+3.00,-3.00,-4.00,+2.00,-3.00,-79.00,-2.00,+16.00,-5.00,+1.00,-4.00,+12.00,+18.00,+2.00
+15.00,-20.00,-2.00,+3.00,+5.00,-2.00,+5.00,+49.00,-10.00,+39.00,-14.00,-7.00,-8.00,-4.00,-12.00,-8.00
+8.00,+33.00,-7.00,-4.00,+2.00,-6.00,+6.00,+2.00,-8.00,-20.00,+14.00,+6.00,+5.00,+1.00,-16.00,-7.00
-20.00,-67.00,-35.00,-6.00,+0.00,+0.00,-8.00,-46.00,-5.00,+6.00,+4.00,-5.00,-9.00,-9.00,+16.00,+5.00
+21.00,+69.00,+64.00,+14.00,+9.00,+13.00,+24.00,+37.00,-9.00,-45.00,-13.00,-7.00,-3.00,-13.00,-20.00,-6.00
+18.00,-43.00,+10.00,+5.00,+5.00,+7.00,-5.00,-33.00,-5.00,+61.00,+17.00,+1.00,+1.00,-3.00,-10.00,-23.00
-31.00,-35.00,-24.00,-7.00,-4.00,-5.00,-7.00,+44.00,+1.00,-14.00,-12.00,-1.00,-7.00,-1.00,-13.00,+2.00
+29.00,+38.00,+33.00,+11.00,+7.00,+0.00,+14.00,+53.00,-19.00,+21.00,-12.00,-4.00,+1.00,-10.00,-9.00,+3.00
+18.00,+26.00,-29.00,-10.00,-8.00,-8.00,-10.00,-10.00,-16.00,+38.00,-1.00,-1.00,-2.00,-5.00,+9.00,-18.00
+25.00,+53.00,+21.00,+4.00,+2.00,+2.00,+28.00,+18.00,-2.00,+17.00,+28.00,+7.00,-2.00,+16.00,+20.00,+20.00
+30.00,+61.00,-17.00,-2.00,-1.00,-4.00,-11.00,-44.00,+1.00,-74.00,-23.00,-8.00,-6.00,-10.00,-19.00,-6.00
-13.00,-50.00,+22.00,+2.00,+2.00,+5.00,+4.00,-3.00,-4.00,+33.00,+18.00,+1.00,-10.00,+3.00,-9.00,-9.00
-36.00,-9.00,-1.00,+1.00,-1.00,-2.00,+3.00,-34.00,+6.00,-51.00,-15.00,-10.00,-5.00,-6.00,-21.00,+6.00
+12.00,-2.00,-4.00,+2.00,-1.00,-1.00,-22.00,+35.00,-22.00,-57.00,-14.00,-2.00,-1.00,+3.00,+1.00,+3.00
-21.00,-30.00,-16.00,-4.00,-2.00,+1.00,+15.00,-18.00,-32.00,+90.00,+4.00,+1.00,+1.00,-9.00,-13.00,-10.00
+2.00,-3.00,-18.00,-10.00,-5.00,+1.00,-2.00,+50.00,+20.00,+24.00,-3.00,-5.00,-1.00,+9.00,+11.00,-5.00
-14.00,-37.00,-13.00,-3.00,-3.00,-2.00,+1.00,+11.00,-23.00,-43.00,-3.00,+6.00,+3.00,+17.00,+12.00,+14.00
-60.00,+71.00,+30.00,+8.00,+1.00,+2.00,+7.00,-14.00,-3.00,-12.00,+3.00,-1.00,-5.00,-9.00,-13.00,-41.00
-2.00,+20.00,+13.00,+6.00,+5.00,+2.00,-6.00,+0.00,-21.00,-38.00,-5.00,+3.00,+7.00,-8.00,+5.00,+12.00
-5.00,+8.00,+10.00,+0.00,-1.00,-2.00,+14.00,-34.00,+37.00,-17.00,-4.00,-3.00,-7.00,+3.00,-8.00,+23.00
-25.00,-56.00,-31.00,-8.00,-8.00,-6.00,-33.00,-29.00,+24.00,+93.00,-1.00,-10.00,-9.00,-21.00,+0.00,-1.00
+24.00,-20.00,-17.00,-5.00,-4.00,-21.00,-5.00,+35.00,-14.00,-100.00,-10.00,-1.00,+3.00,+15.00,+14.00,+14.00
-2.00,-24.00,-29.00,+1.00,+1.00,-7.00,+4.00,-5.00,+12.00,+46.00,+28.00,+8.00,+2.00,-8.00,+2.00,-8.00
-4.00,+75.00,+36.00,+2.00,-3.00,-20.00,+13.00,-12.00,+3.00,+24.00,+8.00,+6.00,+8.00,+15.00,+20.00,+4.00
+40.00,-13.00,+29.00,+13.00,+7.00,+25.00,+15.00,+8.00,+12.00,+9.00,+15.00,+5.00,+10.00,+39.00,+2.00,+1.00
-53.00,-7.00,-17.00,-2.00,-2.00,+10.00,+6.00,-61.00,+25.00,+40.00,-8.00,-3.00,-14.00,-30.00,-28.00,+17.00
+27.00,-21.00,+9.00,+0.00,+0.00,-8.00,-34.00,+19.00,-5.00,-83.00,-2.00,-3.00,+0.00,-1.00,-13.00,-30.00
-23.00,-65.00,-62.00,-13.00,+0.00,-10.00,-1.00,+45.00,+11.00,-1.00,-58.00,-21.00,-11.00,+1.00,+12.00,+35.00
-24.00,+86.00,+23.00,-7.00,-7.00,+11.00,+0.00,-35.00,-47.00,-20.00,-2.00,+5.00,+1.00,-14.00,-4.00,+13.00
+36.00,-29.00,-25.00,-5.00,-8.00,+3.00,+7.00,+6.00,+10.00,+29.00,+25.00,+4.00,+0.00,+19.00,+36.00,+4.00
-54.00,-111.00,+15.00,+7.00,+6.00,+4.00,+13.00,+50.00,-4.00,+34.00,+29.00,+4.00,+0.00,-12.00,+5.00,+3.00
+12.00,+63.00,+0.00,+3.00,+2.00,+9.00,-11.00,-31.00,-22.00,-8.00,+25.00,+32.00,+21.00,+23.00,+6.00,+11.00
+37.00,-8.00,+12.00,+1.00,+1.00,-2.00,+3.00,+18.00,+21.00,-14.00,-32.00,-33.00,-23.00,-41.00,-51.00,-34.00
-21.00,-15.00,-10.00,-2.00,+0.00,-13.00,-28.00,-33.00,-55.00,-58.00,-40.00,-16.00,-12.00,-25.00,-25.00,-22.00
+16.00,+1.00,-12.00,-11.00,-9.00,-27.00,+5.00,+36.00,+109.00,+51.00,+2.00,-5.00,-1.00,+8.00,+11.00,+42.00
+33.00,-20.00,+9.00,+9.00,+11.00,+39.00,+17.00,+26.00,-70.00,-13.00,+48.00,+21.00,+12.00,+26.00,+12.00,+7.00
-36.00,+19.00,-15.00,+1.00,+2.00,+0.00,+3.00,+2.00,-3.00,+28.00,+15.00,+7.00,-2.00,+10.00,+48.00,-26.00
+25.00,-10.00,-4.00,-6.00,-3.00,+22.00,+18.00,+2.00,+14.00,-22.00,+2.00,+5.00,+14.00,+9.00,-27.00,+14.00
+6.00,+27.00,-10.00,-7.00,-6.00,-4.00,-31.00,-59.00,-13.00,-51.00,-21.00,-5.00,+14.00,+38.00,+18.00,+1.00
+18.00,+43.00,+21.00,+5.00,+3.00,+1.00,+6.00,+9.00,+21.00,+16.00,-13.00,-10.00,-17.00,-25.00,+0.00,-15.00
-19.00,+1.00,+1.00,-1.00,-5.00,-17.00,-6.00,+16.00,+1.00,-26.00,-6.00,-4.00,-5.00,-72.00,-19.00,-14.00
-13.00,-30.00,-6.00,-3.00,+1.00,-3.00,-4.00,-42.00,+2.00,-3.00,+2.00,-5.00,-10.00,-10.00,-15.00,+4.00
+14.00,+12.00,+8.00,+1.00,-3.00,+4.00,-10.00,-10.00,-29.00,+10.00,-19.00,-4.00,-8.00,-12.00,+0.00,-2.00
-24.00,-110.00,-77.00,-23.00,-6.00,+0.00,-1.00,+34.00,+44.00,+48.00,+16.00,-2.00,+1.00,+11.00,-3.00,-11.00
+16.00,+80.00,+38.00,+8.00,-3.00,-18.00,+13.00,+12.00,-25.00,-13.00,-13.00,-3.00,+0.00,+13.00,+10.00,+17.00
-6.00,+96.00,+47.00,+12.00,+3.00,+10.00,+11.00,+21.00,+36.00,-5.00,+8.00,+14.00,+15.00,+31.00,-4.00,-4.00
-24.00,-50.00,+2.00,+4.00,+1.00,-2.00,+6.00,-10.00,-4.00,+7.00,+13.00,-1.00,-6.00,-13.00,+16.00,-3.00
-21.00,-40.00,-53.00,-18.00,-15.00,-30.00,-25.00,-54.00,-4.00,+70.00,+65.00,+11.00,+12.00,+60.00,-55.00,-39.00
-4.00,-37.00,-28.00,-11.00,-5.00,-22.00,-1.00,+29.00,-27.00,-56.00,-72.00,-18.00,-19.00,-50.00,+23.00,+9.00
-16.00,-49.00,+8.00,+8.00,+3.00,+10.00,-25.00,-55.00,+15.00,+3.00,-36.00,-20.00,-1.00,+33.00,+15.00,-6.00
+24.00,-8.00,+18.00,+0.00,+3.00,+31.00,+34.00,+60.00,+2.00,+23.00,+34.00,+13.00,+9.00,-2.00,+5.00,+23.00
-15.00,+32.00,-8.00,-5.00,-7.00,-4.00,-25.00,-97.00,+4.00,-25.00,-1.00,+0.00,-3.00,-9.00,-30.00,-36.00
-50.00,-28.00,-14.00,-6.00,+4.00,+0.00,+11.00,+45.00,+41.00,+57.00,+58.00,+17.00,-8.00,+48.00,+33.00,+50.00
-9.00,-7.00,-15.00,-4.00,-6.00,-28.00,-7.00,-83.00,-88.00,-24.00,-23.00,-5.00,+3.00,-49.00,-38.00,-53.00
-12.00,-24.00,-13.00,-2.00,-4.00,-5.00,-13.00,+50.00,-15.00,-20.00,-34.00,-3.00,+6.00,+30.00,+60.00,+1.00
+37.00,+2.00,+43.00,+6.00,+6.00,+17.00,-6.00,+9.00,+4.00,-52.00,-22.00,+5.00,-15.00,-70.00,-6.00,+18.00
+8.00,+11.00,-11.00,-2.00,+0.00,-24.00,-3.00,-8.00,+13.00,+33.00,+7.00,-11.00,-8.00,+19.00,-8.00,-6.00
+31.00,+35.00,+28.00,-8.00,-3.00,+27.00,+5.00,+26.00,-6.00,-12.00,-13.00,+5.00,+9.00,-8.00,-1.00,-5.00
-20.00,-24.00,-4.00,+7.00,+5.00,+18.00,-5.00,-47.00,+5.00,+30.00,+8.00,-14.00,-22.00,-25.00,-45.00,-40.00
-35.00,+19.00,+26.00,+2.00,-5.00,+8.00,+16.00,-26.00,+20.00,+17.00,+8.00,+1.00,+18.00,+26.00,+59.00,+32.00
+6.00,-43.00,+17.00,+0.00,+1.00,+8.00,-29.00,+26.00,-42.00,-17.00,+27.00,+13.00,+13.00,+60.00,-1.00,+3.00
+13.00,-43.00,-63.00,-21.00,-2.00,+14.00,+24.00,+127.00,+16.00,-30.00,-24.00,+3.00,-2.00,+11.00,-3.00,+47.00
+14.00,+15.00,+6.00,+2.00,-6.00,-55.00,+3.00,+13.00,-25.00,-2.00,-49.00,-22.00,+0.00,+65.00,-19.00,-35.00
-44.00,+27.00,+104.00,+32.00,+9.00,+0.00,-20.00,-114.00,-6.00,-48.00,-30.00,-17.00,-14.00,-98.00,-13.00,-4.00
+49.00,+17.00,-65.00,-3.00,-5.00,+27.00,+9.00,+91.00,-6.00,+6.00,+25.00,+18.00,-10.00,+3.00,-40.00,+4.00
-38.00,+0.00,+42.00,+0.00,-3.00,-23.00,-21.00,-77.00,+14.00,+71.00,+45.00,+0.00,+27.00,+38.00,+9.00,-54.00
+23.00,+7.00,-53.00,-1.00,+2.00,-44.00,-12.00,+10.00,+3.00,-33.00,-4.00,+18.00,-2.00,-28.00,-11.00,+19.00
-40.00,+33.00,+40.00,+20.00,+8.00,+49.00,+36.00,-21.00,+34.00,-15.00,-113.00,-54.00,-34.00,-30.00,+17.00,+22.00
+10.00,-6.00,-8.00,-11.00,-7.00,-12.00,-2.00,-14.00,-35.00,+70.00,+70.00,+9.00,+26.00,+90.00,+17.00,+19.00
+1.00,+38.00,-19.00,+9.00,+2.00,-24.00,+27.00,+84.00,-11.00,-28.00,+4.00,-5.00,-17.00,-36.00,-58.00,-19.00
-1.00,-13.00,-4.00,-8.00,+6.00,+119.00,-7.00,-128.00,-17.00,-38.00,+71.00,+33.00,+8.00,-28.00,-8.00,-10.00
-34.00,-8.00,-27.00,-4.00,-8.00,-66.00,-28.00,+66.00,+26.00,+73.00,-68.00,-12.00,+9.00,-30.00,+16.00,-16.00
+5.00,-35.00,-27.00,+6.00,+7.00,+68.00,+41.00,-20.00,+27.00,-69.00,-11.00,-13.00,-38.00,-40.00,-18.00,+16.00
-42.00,-29.00,+8.00,-11.00,-7.00,+7.00,+5.00,-86.00,+28.00,+119.00,-38.00,-1.00,+19.00,-41.00,+69.00,+28.00
+41.00,+30.00,-7.00,-9.00,-1.00,-63.00,-19.00,+7.00,+40.00,+8.00,+68.00,+16.00,+0.00,-18.00,+18.00,+14.00
+14.00,-22.00,+20.00,+2.00,-11.00,-29.00,-11.00,+110.00,-36.00,-58.00,-51.00,-7.00,+3.00,+46.00,+80.00,+26.00
+2.00,+20.00,+14.00,+3.00,+2.00,+6.00,-13.00,-101.00,+28.00,+52.00,+6.00,+9.00,+15.00,+25.00,-52.00,-51.00
-27.00,-64.00,-85.00,-6.00,-6.00,+17.00,+7.00,+44.00,+3.00,-48.00,+56.00,+0.00,+0.00,-15.00,+6.00,+26.00
-44.00,+37.00,+71.00,-5.00,+1.00,+27.00,+14.00,-68.00,+7.00,+5.00,+50.00,+11.00,-14.00,-2.00,-7.00,-30.00
-4.00,-1.00,-75.00,-18.00,-7.00,-29.00,-27.00,-53.00,-35.00,+25.00,-20.00,-10.00,+12.00,+88.00,-14.00,+7.00
-15.00,-36.00,+17.00,-4.00,-6.00,-39.00,-34.00,+70.00,-21.00,-38.00,-7.00,-15.00,-1.00,-98.00,+38.00,-30.00
+92.00,+52.00,-8.00,+18.00,+23.00,+51.00,+47.00,+58.00,+6.00,-54.00,-25.00,+7.00,-21.00,+36.00,-12.00,-9.00
-50.00,+6.00,-18.00,+0.00,+0.00,+35.00,+42.00,+7.00,+1.00,-13.00,+54.00,+32.00,+16.00,-62.00,+64.00,+72.00
+45.00,+27.00,+64.00,+2.00,+5.00,-1.00,+20.00,-73.00,-17.00,+1.00,+36.00,-27.00,-37.00,-16.00,-47.00,-32.00
+65.00,+5.00,-29.00,+5.00,+1.00,-5.00,-10.00,+31.00,+15.00,+17.00,+81.00,+27.00,+29.00,+17.00,-19.00,-41.00
-88.00,-56.00,-84.00,-20.00,-10.00,-39.00,+5.00,-101.00,+5.00,-32.00,+5.00,+8.00,+21.00,+35.00,+14.00,-71.00
+73.00,+85.00,+70.00,+25.00,+2.00,-75.00,-68.00,-9.00,+1.00,-21.00,-95.00,-51.00,-66.00,-42.00,-72.00,+55.00
+41.00,-10.00,-60.00,-2.00,+20.00,+100.00,+57.00,-100.00,+16.00,-1.00,+14.00,-2.00,-8.00,-93.00,-70.00,+8.00
-41.00,-11.00,+0.00,-18.00,-14.00,-23.00,-8.00,+58.00,-25.00,-6.00,-39.00,-42.00,-36.00,-3.00,-49.00,-62.00
-3.00,+16.00,+63.00,+10.00,-1.00,+40.00,-9.00,-119.00,-14.00,+16.00,+127.00,+56.00,+50.00,+75.00,+67.00,+56.00
+15.00,-18.00,-42.00,-7.00,-5.00,+36.00,+41.00,+127.00,-3.00,+16.00,-118.00,-17.00,+43.00,+75.00,-1.00,+4.00
-37.00,-11.00,-38.00,-9.00,-13.00,-81.00,-71.00,-115.00,+58.00,-25.00,+56.00,+27.00,+13.00,+40.00,+45.00,+62.00
-13.00,-49.00,+24.00,-12.00,+1.00,-5.00,-35.00,+5.00,+4.00,-5.00,-52.00,-15.00,-35.00,-83.00,-80.00,-5.00
+93.00,+16.00,-102.00,+10.00,+9.00,-51.00,-56.00,+13.00,-25.00,-7.00,+16.00,-11.00,-46.00,-112.00,-97.00,-53.00
-75.00,-22.00,+105.00,-7.00,+7.00,+19.00,+98.00,+6.00,+35.00,+48.00,+11.00,+12.00,+25.00,+54.00,-22.00,-14.00
+18.00,+6.00,+5.00,+6.00,-3.00,+23.00,-17.00,+126.00,-7.00,-25.00,-2.00,+1.00,-2.00,+66.00,-6.00,+81.00
+22.00,+74.00,-17.00,+16.00,+14.00,-11.00,+31.00,+11.00,-13.00,+1.00,+101.00,+58.00,+38.00,-46.00,+78.00,-53.00
-45.00,-36.00,+82.00,-7.00,-8.00,+9.00,-35.00,-31.00,+26.00,+7.00,-73.00,-8.00,-7.00,+51.00,+103.00,+87.00
-15.00,-18.00,-86.00,-14.00,-14.00,-43.00,-46.00,-128.00,-14.00,-8.00,+32.00,-27.00,-35.00,-95.00,-118.00,-17.00
-27.00,+9.00,+78.00,+28.00,+7.00,+28.00,-2.00,-65.00,-14.00,-47.00,-48.00,-7.00,+1.00,-73.00,+64.00,-24.00
+17.00,-12.00,-76.00,-8.00,-7.00,-58.00,+15.00,-66.00,+20.00,+0.00,-32.00,-10.00,+0.00,+47.00,+10.00,+69.00
+61.00,+15.00,+89.00,-1.00,-11.00,-45.00,-35.00,+62.00,-5.00,+25.00,+85.00,+15.00,+23.00,-4.00,-30.00,-16.00
+0.00,-54.00,-73.00,+6.00,+5.00,+27.00,+51.00,-64.00,+6.00,+34.00,-16.00,+16.00,+35.00,+110.00,+53.00,-84.00
+35.00,+34.00,-5.00,-36.00,-14.00,+18.00,-22.00,+127.00,+12.00,+7.00,-31.00,-16.00,+14.00,+14.00,+80.00,+33.00
-25.00,+33.00,-1.00,+34.00,+9.00,-50.00,-8.00,-38.00,-40.00,-60.00,-3.00,-10.00,-44.00,-28.00,+3.00,-9.00
-73.00,+39.00,+43.00,-22.00,-16.00,+90.00,+1.00,+94.00,-8.00,+23.00,+48.00,+20.00,-42.00,-64.00,+39.00,-21.00
+96.00,-61.00,-57.00,+7.00,-3.00,-86.00,-86.00,+55.00,+46.00,-71.00,-34.00,-38.00,+40.00,+4.00,+30.00,+86.00
+11.00,-11.00,+91.00,+14.00,+9.00,+12.00,+32.00,-20.00,-112.00,+34.00,+123.00,+22.00,-12.00,+8.00,-48.00,-85.00
-2.00,+8.00,-60.00,-8.00,-2.00,+64.00,+30.00,-64.00,+48.00,+17.00,-91.00,-20.00,+28.00,+52.00,-40.00,+45.00
-36.00,-23.00,-1.00,-30.00,-10.00,+16.00,+2.00,-112.00,-17.00,-64.00,-18.00,-1.00,-4.00,+45.00,-48.00,+109.00
-13.00,+11.00,-38.00,+19.00,-2.00,-8.00,-40.00,+23.00,+14.00,+42.00,+54.00,+15.00,-32.00,-108.00,+81.00,-89.00
+13.00,-38.00,-125.00,-25.00,-7.00,+48.00,+34.00,+78.00,+40.00,+53.00,+56.00,+15.00,-29.00,-23.00,-59.00,+45.00
-14.00,-1.00,+39.00,+1.00,+3.00,+49.00,-4.00,-85.00,+4.00,+14.00,-19.00,-11.00,+43.00,+38.00,+26.00,-22.00
-22.00,-51.00,-122.00,-18.00,-17.00,-74.00,-23.00,-38.00,-28.00,+15.00,+48.00,+7.00,-53.00,+2.00,-34.00,-9.00
-4.00,+22.00,+49.00,+1.00,-11.00,-3.00,+2.00,-78.00,-20.00,+26.00,-128.00,-35.00,+42.00,-27.00,+76.00,-13.00
-5.00,-7.00,+40.00,-5.00,-10.00,-49.00,-19.00,+55.00,-20.00,-41.00,+37.00,+7.00,+28.00,-70.00,-69.00,+69.00
+16.00,-56.00,+108.00,+6.00,+3.00,-21.00,-9.00,-58.00,+15.00,+10.00,+46.00,+13.00,-47.00,+3.00,+29.00,+36.00
+12.00,+19.00,+23.00,+25.00,+19.00,+112.00,+47.00,+92.00,+24.00,-18.00,-45.00,-14.00,+30.00,-6.00,-76.00,-41.00
+71.00,+65.00,+39.00,-2.00,+7.00,-76.00,-25.00,+60.00,-28.00,-5.00,-50.00,+4.00,+33.00,+98.00,+54.00,+41.00
-52.00,-42.00,-81.00,-12.00,-11.00,-59.00,+14.00,+16.00,-6.00,-5.00,+38.00,+25.00,-18.00,-23.00,-2.00,-128.00
-28.00,-6.00,-41.00,-3.00,+6.00,+57.00,+19.00,+19.00,+70.00,-16.00,+19.00,+3.00,+24.00,-17.00,-13.00,+50.00
+31.00,+19.00,+80.00,+9.00,-4.00,-72.00,+32.00,-27.00,-9.00,+49.00,-78.00,-40.00,-12.00,+13.00,+58.00,+92.00
-72.00,-30.00,+36.00,-18.00,-5.00,+40.00,+19.00,-51.00,+40.00,+3.00,+90.00,+7.00,-31.00,-37.00,-51.00,+12.00
+20.00,+5.00,-72.00,-8.00,-2.00,+44.00,-1.00,-36.00,+4.00,-15.00,-44.00,+17.00,+42.00,+104.00,-12.00,-108.00
-40.00,-48.00,+69.00,+2.00,+0.00,-13.00,+26.00,-74.00,+10.00,-7.00,-34.00,-8.00,+14.00,-32.00,-58.00,+33.00
+46.00,+70.00,-74.00,-5.00,+4.00,-18.00,-9.00,+82.00,+21.00,+39.00,+16.00,-11.00,-25.00,-16.00,+48.00,-44.00
-65.00,-13.00,-31.00,+0.00,-2.00,-6.00,-2.00,+2.00,+0.00,-32.00,-10.00,-15.00,-31.00,+13.00,-80.00,+17.00
+64.00,+22.00,+41.00,-4.00,-4.00,-27.00,-79.00,-74.00,-39.00,-20.00,-26.00,-15.00,-19.00,-69.00,+19.00,-23.00
-23.00,-36.00,-66.00,+10.00,+3.00,+4.00,-33.00,+95.00,+15.00,+62.00,+1.00,-3.00,-23.00,-37.00,-13.00,+4.00
-6.00,-5.00,+12.00,+22.00,+9.00,+9.00,+80.00,-57.00,-34.00,-37.00,+36.00,+2.00,+24.00,+47.00,-11.00,-87.00
-22.00,+30.00,+11.00,-4.00,-9.00,+13.00,-29.00,-7.00,-17.00,+45.00,+1.00,+20.00,+26.00,+106.00,+47.00,+79.00
+23.00,-37.00,-38.00,+7.00,+11.00,+43.00,+81.00,+57.00,+20.00,-38.00,-4.00,-6.00,-67.00,-98.00,-54.00,-28.00
+19.00,+7.00,-87.00,-17.00,-5.00,+19.00,-45.00,+20.00,-61.00,+25.00,-111.00,-24.00,+48.00,+54.00,+7.00,-24.00
+33.00,+13.00,+76.00,+8.00,-3.00,-21.00,-44.00,+90.00,+53.00,+23.00,-93.00,-32.00,-35.00,-105.00,+46.00,+80.00
+12.00,+8.00,-37.00,+16.00,+10.00,+52.00,+7.00,-63.00,-32.00,-61.00,+50.00,-7.00,-25.00,-22.00,-39.00,-53.00
-9.00,-19.00,-43.00,-8.00,-12.00,-58.00,+1.00,+18.00,-11.00,+26.00,+78.00,+26.00,+21.00,+68.00,+5.00,+70.00
+28.00,+58.00,+35.00,+1.00,+7.00,-128.00,+29.00,+17.00,-53.00,+11.00,+89.00,+33.00,+6.00,+64.00,+46.00,-53.00
+23.00,-12.00,-45.00,-7.00,+3.00,-31.00,-2.00,+25.00,-27.00,+24.00,-48.00,-15.00,+6.00,-45.00,+13.00,+16.00
-5.00,-7.00,+19.00,-2.00,+9.00,+51.00,+15.00,-35.00,+6.00,+5.00,-28.00,-12.00,-17.00,-48.00,-60.00,-101.00
-30.00,+39.00,-13.00,-5.00,-2.00,-40.00,-49.00,-128.00,+14.00,+40.00,+17.00,+7.00,-13.00,+100.00,-16.00,-69.00
-72.00,+32.00,+48.00,-5.00,-14.00,+12.00,-13.00,+87.00,-7.00,-49.00,+43.00,+29.00,+68.00,-5.00,+34.00,+81.00
-30.00,-43.00,-31.00,+1.00,+2.00,-27.00,-30.00,-46.00,-16.00,-72.00,-27.00,-26.00,-35.00,+20.00,-1.00,-57.00
-26.00,-11.00,-61.00,-17.00,-10.00,-2.00,+5.00,-14.00,-30.00,-60.00,+68.00,+6.00,-30.00,+26.00,+51.00,+6.00
+7.00,-42.00,+5.00,+7.00,+1.00,-48.00,-21.00,-90.00,+13.00,-2.00,-73.00,-14.00,+18.00,-47.00,-6.00,-29.00
+11.00,+53.00,+84.00,+8.00,+12.00,+125.00,+20.00,-33.00,-17.00,-42.00,-18.00,-6.00,+1.00,+28.00,+34.00,+19.00
-26.00,+22.00,-10.00,+1.00,+10.00,+21.00,+5.00,-79.00,+29.00,+21.00,-11.00,-2.00,-8.00,+20.00,+19.00,+20.00
-39.00,-31.00,-110.00,-16.00,+3.00,+31.00,+9.00,+39.00,+0.00,+35.00,+80.00,+32.00,+9.00,-15.00,-3.00,-14.00
-14.00,+8.00,+65.00,+12.00,+4.00,-73.00,+0.00,+31.00,+27.00,-25.00,-65.00,-20.00,+35.00,+64.00,+28.00,+30.00
+7.00,+2.00,+61.00,+3.00,-15.00,-26.00,-43.00,-83.00,-11.00,-13.00,+11.00,-5.00,-19.00,-110.00,+21.00,-36.00
+14.00,-15.00,-77.00,+0.00,+4.00,-15.00,-12.00,+94.00,+8.00,-1.00,-11.00,-8.00,-24.00,+28.00,+31.00,-78.00
+72.00,+41.00,+123.00,+12.00,+3.00,+29.00,+78.00,+35.00,-52.00,+2.00,+36.00,+18.00,-25.00,-16.00,-3.00,+87.00
-82.00,-32.00,-104.00,-26.00,-21.00,-70.00,-63.00,-93.00,-2.00,-7.00,-15.00,-15.00,+1.00,+55.00,+47.00,+19.00
+54.00,-34.00,-66.00,+7.00,+17.00,-7.00,-8.00,-71.00,+6.00,-10.00,-55.00,-18.00,-2.00,-45.00,-16.00,-8.00
+26.00,+8.00,+90.00,+21.00,+0.00,-7.00,+13.00,+23.00,+27.00,+37.00,+58.00,+22.00,+16.00,+11.00,-38.00,-33.00
+1.00,+38.00,+8.00,+9.00,+3.00,-27.00,-26.00,-19.00,-31.00,-8.00,-42.00,-4.00,+22.00,+35.00,+10.00,-15.00
-3.00,+22.00,+88.00,-6.00,-4.00,+50.00,+81.00,+127.00,+9.00,-3.00,+61.00,+18.00,+39.00,+49.00,+14.00,+16.00
+42.00,-50.00,-69.00,-7.00,-6.00,-13.00,-25.00,+7.00,+18.00,+21.00,-64.00,-18.00,-20.00,-36.00,+15.00,-7.00
-66.00,+45.00,+106.00,+6.00,+0.00,+29.00,+14.00,-103.00,-8.00,+5.00,-56.00,-21.00,-42.00,-64.00,-16.00,-15.00
-2.00,+30.00,-36.00,-6.00,-2.00,-34.00,-60.00,+57.00,-24.00,-12.00,-65.00,-22.00,-28.00,-25.00,-12.00,+62.00
+62.00,-29.00,+22.00,+10.00,+8.00,-4.00,+36.00,-21.00,+9.00,+39.00,+127.00,+34.00,-10.00,+22.00,+17.00,+73.00
-16.00,-14.00,-59.00,-11.00,-3.00,+20.00,+12.00,+64.00,+5.00,+14.00,-57.00,-1.00,+41.00,+72.00,+22.00,-11.00
+25.00,+27.00,-11.00,-3.00,+2.00,+20.00,+9.00,+47.00,-11.00,-27.00,+11.00,+14.00,+25.00,+30.00,-35.00,-5.00
+0.00,-38.00,-37.00,-10.00,-8.00,+36.00,-7.00,+48.00,+25.00,+29.00,-8.00,-3.00,-10.00,-85.00,-4.00,-52.00
-43.00,-8.00,-80.00,-14.00,-7.00,+61.00,+1.00,-75.00,+12.00,+25.00,+12.00,+8.00,+23.00,+32.00,-17.00,-10.00
-13.00,+1.00,+19.00,+17.00,+0.00,-78.00,+5.00,-5.00,+28.00,+8.00,+38.00,-5.00,-56.00,-45.00,-39.00,-21.00
-7.00,-42.00,-58.00,-2.00,+3.00,+12.00,-5.00,-102.00,-21.00,-37.00,+18.00,-1.00,-8.00,-37.00,+56.00,+39.00
+14.00,+37.00,+22.00,-7.00,-11.00,-113.00,-21.00,+88.00,+9.00,+33.00,+4.00,-2.00,-14.00,+12.00,-112.00,-115.00
-14.00,-4.00,-63.00,-1.00,+5.00,+62.00,-38.00,-93.00,+4.00,-12.00,+20.00,+1.00,-31.00,+74.00,+80.00,+88.00
+7.00,+20.00,-27.00,-12.00,+4.00,+54.00,+37.00,-45.00,-27.00,+10.00,-46.00,-8.00,+23.00,-54.00,-24.00,-57.00
+14.00,-51.00,-52.00,-13.00,-14.00,-19.00,-21.00,-19.00,+31.00,-30.00,-48.00,-24.00,+22.00,+58.00,-3.00,+33.00
+17.00,-8.00,+27.00,-11.00,-9.00,+25.00,-6.00,+14.00,+10.00,-17.00,+6.00,-10.00,+23.00,+45.00,-19.00,-7.00
+13.00,-12.00,+28.00,+15.00,+10.00,-54.00,+9.00,+68.00,-13.00,+9.00,-16.00,+1.00,-14.00,-64.00,-10.00,-80.00
+27.00,+2.00,+51.00,+4.00,-1.00,+18.00,+5.00,+6.00,-24.00,+8.00,+67.00,+22.00,-3.00,+44.00,+40.00,+31.00
-21.00,+15.00,+15.00,+4.00,+9.00,-32.00,-21.00,+20.00,-11.00,-11.00,-21.00,-12.00,-36.00,-86.00,-87.00,-6.00
-97.00,-15.00,+20.00,+4.00,-4.00,+31.00,+13.00,-90.00,-27.00,-85.00,+74.00,+24.00,+38.00,+22.00,+45.00,-1.00
+70.00,+11.00,+28.00,+4.00,+1.00,+19.00,+15.00,+67.00,+17.00,+55.00,+2.00,-6.00,-20.00,-57.00,+48.00,+16.00
-37.00,-11.00,-36.00,-8.00,+1.00,+12.00,+17.00,-46.00,+33.00,-5.00,-7.00,-28.00,-11.00,+19.00,-4.00,+5.00
+13.00,-10.00,+73.00,+19.00,-7.00,-13.00,-2.00,+62.00,+13.00,-6.00,+77.00,+35.00,+32.00,-7.00,-3.00,+7.00
+5.00,-27.00,-68.00,-2.00,+16.00,-18.00,+11.00,+53.00,-3.00,+50.00,-31.00,-23.00,+6.00,+31.00,+0.00,+11.00
+3.00,+29.00,+56.00,+3.00,-6.00,+22.00,+3.00,-14.00,-37.00,-78.00,-11.00,-5.00,-5.00,-95.00,-48.00,-69.00
-33.00,-13.00,-8.00,-3.00,-4.00,-85.00,-14.00,+19.00,+7.00,+33.00,+46.00,+15.00,-16.00,+46.00,-5.00,+33.00
-26.00,-28.00,-60.00,-23.00,-11.00,+34.00,+23.00,-79.00,+40.00,+90.00,+26.00,+1.00,+9.00,+11.00,+20.00,+23.00
-3.00,-1.00,-21.00,-1.00,-2.00,-16.00,+3.00,-30.00,+2.00,-35.00,+16.00,+28.00,+20.00,+86.00,+72.00,+40.00
+8.00,+32.00,+8.00,+15.00,+14.00,+13.00,-8.00,+7.00,-23.00,-10.00,-88.00,-30.00,-16.00,-55.00,-128.00,-70.00
-4.00,+30.00,+10.00,-8.00,-6.00,+19.00,+0.00,-52.00,-3.00,-15.00,+4.00,+1.00,+17.00,-41.00,+58.00,+44.00
-31.00,-61.00,-43.00,-18.00,-14.00,-80.00,-37.00,-93.00,+19.00,-8.00,+29.00,+13.00,+13.00,-23.00,-23.00,+0.00
+23.00,+39.00,+58.00,+21.00,+4.00,+7.00,-21.00,-9.00,-7.00,+25.00,-4.00,+3.00,-12.00,+26.00,+42.00,+18.00
+3.00,-9.00,-10.00,+12.00,+17.00,+79.00,+33.00,+43.00,-33.00,-25.00,-41.00,-19.00,-10.00,+12.00,-17.00,-3.00
+0.00,+30.00,-20.00,-6.00,+4.00,+54.00,+18.00,+4.00,-6.00,-41.00,+10.00,+0.00,-26.00,-32.00,-12.00,-64.00
+43.00,+41.00,+63.00,+7.00,-2.00,+13.00,+4.00,+71.00,-13.00,-23.00,+8.00,+8.00,+36.00,+69.00,-36.00,+37.00
+0.00,-27.00,-23.00,-1.00,-1.00,-6.00,+12.00,-58.00,-5.00,+72.00,-34.00,-3.00,-2.00,-53.00,+12.00,-28.00
+33.00,+1.00,-35.00,-12.00,-6.00,-47.00,-11.00,-14.00,-17.00,-63.00,-42.00,-7.00,-32.00,+1.00,+27.00,-16.00
+3.00,-69.00,-95.00,-12.00,-4.00,-9.00,-1.00,+19.00,+16.00,+64.00,+72.00,+14.00,-9.00,+13.00,-54.00,-7.00
+10.00,+13.00,+69.00,+21.00,+15.00,+24.00,+15.00,+45.00,+16.00,+2.00,-84.00,-25.00,-35.00,-16.00,+0.00,-25.00
-6.00,+68.00,+7.00,-7.00,-5.00,+35.00,+2.00,-128.00,-22.00,-22.00,-25.00,-4.00,+58.00,+11.00,-9.00,-14.00
+7.00,-6.00,-3.00,+9.00,-2.00,-2.00,-2.00,+89.00,+18.00,+21.00,+78.00,+22.00,-6.00,-8.00,+3.00,-4.00
+23.00,-15.00,-13.00,-10.00,+0.00,-5.00,-19.00,-61.00,+6.00,-12.00,-17.00,-9.00,-16.00,+36.00,-5.00,+8.00
-1.00,+43.00,-7.00,+2.00,+5.00,-78.00,+7.00,+75.00,-10.00,-17.00,-48.00,-15.00,+13.00,-59.00,-19.00,+1.00
-5.00,-42.00,+0.00,-5.00,-3.00,-35.00,-7.00,-50.00,+16.00,-19.00,-3.00,-20.00,-69.00,-64.00,-34.00,-44.00
-20.00,+17.00,+15.00,-4.00,-3.00,+32.00,+5.00,-27.00,-10.00,+30.00,-14.00,-1.00,+13.00,+34.00,-4.00,+66.00
-22.00,+15.00,+16.00,+0.00,-9.00,-8.00,-5.00,-7.00,+23.00,-43.00,+21.00,+4.00,+30.00,+33.00,+24.00,+6.00
-11.00,-14.00,-59.00,-8.00,-4.00,+32.00,+5.00,+14.00,-4.00,+71.00,+52.00,+15.00,+7.00,+69.00,+41.00,+17.00
+10.00,+23.00,-43.00,+2.00,+12.00,+38.00,+20.00,+87.00,-24.00,-70.00,-32.00,-8.00,-40.00,-68.00,-36.00,+3.00
-30.00,+2.00,+4.00,-12.00,-14.00,-12.00,+5.00,-67.00,-4.00,+6.00,-17.00,-9.00,+28.00,-11.00,-28.00,-20.00
+12.00,-22.00,+67.00,+13.00,+11.00,-30.00,+4.00,+122.00,-32.00,-10.00,+4.00,+5.00,-15.00,-13.00,-31.00,-32.00
-17.00,+27.00,-57.00,-13.00,-2.00,-16.00,-11.00,-99.00,-36.00,+10.00,+85.00,+17.00,+21.00,+67.00,+10.00,-11.00
-8.00,-27.00,+29.00,+1.00,-2.00,-11.00,+12.00,+46.00,-36.00,-28.00,-52.00,-16.00,-1.00,-74.00,+30.00,+11.00
+22.00,-23.00,-21.00,+2.00,-2.00,+13.00,-29.00,-21.00,-33.00,-8.00,+28.00,+2.00,-27.00,+48.00,+21.00,+39.00
-36.00,-9.00,-38.00,-25.00,-9.00,-25.00,-5.00,-96.00,-5.00,-1.00,+2.00,-5.00,+18.00,-3.00,-9.00,+6.00
-13.00,-34.00,+59.00,+21.00,+1.00,+13.00,-24.00,+26.00,+5.00,-19.00,+15.00,+8.00,-4.00,+3.00,+3.00,-49.00
+16.00,+33.00,+0.00,+1.00,+3.00,+0.00,+5.00,+21.00,+12.00,-4.00,+15.00,-1.00,-1.00,+8.00,-46.00,+31.00
-11.00,-3.00,-7.00,-2.00,+5.00,+17.00,+10.00,-11.00,-21.00,+19.00,-26.00,-9.00,-5.00,-22.00,-6.00,-2.00
+28.00,-5.00,+41.00,+4.00,-6.00,-32.00,-6.00,+10.00,-44.00,-1.00,+46.00,+8.00,-8.00,+43.00,+63.00,+9.00
-58.00,-12.00,-7.00,-2.00,-3.00,+41.00,-1.00,+62.00,-1.00,-28.00,-68.00,-4.00,+11.00,-34.00,-27.00,-1.00
+72.00,+22.00,+28.00,+3.00,+0.00,+37.00,+25.00,-33.00,+63.00,+43.00,+15.00,+3.00,-17.00,+27.00,+42.00,+4.00
-27.00,-16.00,-21.00,-5.00,+2.00,-35.00,+2.00,+54.00,-3.00,-23.00,+0.00,-13.00,+11.00,+0.00,-18.00,-31.00
-17.00,+4.00,+14.00,+6.00,+1.00,-4.00,-8.00,-23.00,+36.00,-14.00,-30.00,+0.00,-5.00,+9.00,+5.00,+26.00
-29.00,-23.00,-45.00,-8.00,+0.00,-6.00,-5.00,-43.00,-27.00,+15.00,+9.00,-11.00,-18.00,-69.00,+20.00,-9.00
+15.00,-30.00,+48.00,+2.00,-7.00,-3.00,-19.00,-38.00,+79.00,+13.00,-9.00,+2.00,+3.00,+79.00,-28.00,+11.00
-2.00,+36.00,+1.00,+0.00,-3.00,-67.00,+4.00,+13.00,+28.00,+11.00,+7.00,+5.00,-3.00,-80.00,+11.00,+2.00
+47.00,+27.00,-23.00,+3.00,+5.00,+76.00,+14.00,+2.00,+9.00,-4.00,+31.00,+3.00,-12.00,+41.00,+27.00,-46.00
+7.00,+4.00,+23.00,-3.00,-1.00,-12.00,-14.00,-21.00,+8.00,-24.00,-36.00,-17.00,-35.00,-1.00,-15.00,-28.00
-11.00,-53.00,-8.00,-6.00,-4.00,-12.00,+4.00,-42.00,+7.00,+7.00,+14.00,+4.00,+40.00,+30.00,+15.00,+2.00
-21.00,-43.00,+0.00,+0.00,-2.00,-32.00,+10.00,-19.00,+34.00,+5.00,-25.00,-2.00,+18.00,+12.00,+31.00,+31.00
+2.00,+82.00,+40.00,+16.00,+3.00,+49.00,-12.00,+39.00,-3.00,-23.00,-21.00,+3.00,+4.00,-25.00,-25.00,-4.00
+9.00,+21.00,+16.00,+6.00,+4.00,-42.00,-2.00,-22.00,-8.00,-1.00,+42.00,+6.00,-21.00,+41.00,-3.00,+23.00
-13.00,-17.00,-6.00,-5.00,-2.00,-1.00,+14.00,+32.00,+3.00,+14.00,-20.00,-7.00,+40.00,+56.00,+29.00,-28.00
-29.00,+10.00,+3.00,-1.00,-5.00,-11.00,-57.00,-68.00,+37.00,+38.00,+36.00,+11.00,-6.00,-87.00,-35.00,-11.00
+9.00,-46.00,-49.00,-7.00,-6.00,-37.00,+0.00,+11.00,-22.00,+4.00,-8.00,-7.00,-73.00,-34.00,-10.00,+18.00
+22.00,+32.00,+67.00,-6.00,-2.00,+8.00,+8.00,+0.00,-36.00,-63.00,-27.00,-4.00,+35.00,+3.00,+21.00,-30.00
-7.00,-24.00,+32.00,+1.00,-5.00,+28.00,-6.00,+20.00,-2.00,+15.00,+5.00,-1.00,+1.00,-2.00,-21.00,-8.00
+15.00,+9.00,-32.00,+1.00,+11.00,+90.00,+22.00,+10.00,-19.00,-12.00,+13.00,+1.00,+35.00,+76.00,+62.00,+44.00
-8.00,+79.00,+88.00,+7.00,-2.00,-76.00,-4.00,+24.00,+21.00,+32.00,+2.00,+4.00,-2.00,-19.00,-42.00,-42.00
-30.00,-42.00,-31.00,+0.00,+1.00,+52.00,-5.00,-30.00,+9.00,-14.00,+46.00,+18.00,+7.00,+24.00,+2.00,+26.00
-21.00,+16.00,-26.00,+2.00,+8.00,+11.00,+7.00,+78.00,-4.00,+20.00,-5.00,-8.00,-19.00,+0.00,+4.00,+15.00
+12.00,+2.00,-53.00,-12.00,-3.00,+19.00,-18.00,-82.00,+13.00,-11.00,+40.00,+17.00,-18.00,+32.00,-4.00,-44.00
-8.00,-15.00,+61.00,+11.00,+6.00,+25.00,+10.00,+9.00,-59.00,-14.00,-49.00,-27.00,+21.00,-79.00,+2.00,-5.00
+24.00,-23.00,-48.00,-6.00,-4.00,-45.00,+19.00,-37.00,+28.00,-17.00,-40.00,-7.00,+9.00,-21.00,-42.00,-39.00
-6.00,-26.00,-23.00,-10.00,-5.00,-2.00,-28.00,-47.00,+8.00,-4.00,+19.00,+7.00,-23.00,-55.00,-1.00,+28.00
-7.00,-11.00,-11.00,+0.00,-6.00,-104.00,+9.00,+72.00,+7.00,+24.00,+44.00,+7.00,-7.00,+66.00,+7.00,-13.00
+28.00,+48.00,-8.00,+17.00,+12.00,+53.00,+4.00,+11.00,-20.00,-90.00,-100.00,-29.00,+23.00,+21.00,-15.00,+0.00
-15.00,+8.00,+22.00,-9.00,+0.00,+27.00,-12.00,-86.00,+34.00,+51.00,+21.00,-7.00,-11.00,+1.00,-27.00,+34.00
-12.00,-38.00,-21.00,-1.00,+0.00,-20.00,-1.00,+61.00,+6.00,+3.00,+49.00,+14.00,-3.00,+16.00,+20.00,+6.00
+12.00,+30.00,+8.00,+6.00,+11.00,+85.00,+35.00,-31.00,-26.00,-19.00,-15.00,+0.00,+41.00,+77.00,-9.00,-71.00
-11.00,-56.00,+27.00,-25.00,-18.00,-37.00,-29.00,-58.00,+25.00,-14.00,-45.00,-16.00,-32.00,-74.00,+8.00,+10.00
+49.00,-38.00,-44.00,+11.00,+10.00,+33.00,+32.00,+88.00,-69.00,-40.00,-26.00,-21.00,-71.00,-39.00,-25.00,+2.00
-11.00,+110.00,+23.00,+4.00,-8.00,-57.00,+14.00,+58.00,-25.00,+0.00,+26.00,+13.00,+22.00,-26.00,+4.00,+12.00
-1.00,-40.00,+22.00,-1.00,+2.00,+4.00,-27.00,+5.00,-1.00,-17.00,-26.00,-9.00,+48.00,+37.00,+35.00,+49.00
-16.00,-37.00,-18.00,+6.00,-1.00,-28.00,-18.00,-88.00,+7.00,+3.00,+116.00,+33.00,-37.00,+30.00,-20.00,-35.00
+15.00,+43.00,+10.00,+0.00,+6.00,+62.00,+10.00,+25.00,+35.00,+46.00,-103.00,-36.00,+15.00,-48.00,-47.00,+27.00
-18.00,-19.00,-12.00,-4.00,-3.00,-32.00,-1.00,-34.00,-50.00,-45.00,-32.00,-14.00,-47.00,-41.00,-48.00,-57.00
-4.00,+5.00,+30.00,+3.00,-4.00,-12.00,+14.00,+5.00,+25.00,+48.00,+12.00,+8.00,+27.00,+4.00,-8.00,+21.00
-10.00,-16.00,-21.00,-7.00,+2.00,+20.00,+13.00,-128.00,-11.00,+22.00,-26.00,-2.00,+52.00,+17.00,+56.00,-20.00
-11.00,-26.00,-80.00,-15.00,-17.00,-55.00,-55.00,+70.00,-14.00,-31.00,+17.00,+7.00,-45.00,+8.00,+84.00,+34.00
-4.00,+0.00,+43.00,-3.00,+3.00,+65.00,+48.00,+32.00,+4.00,+14.00,+21.00,-2.00,+3.00,+24.00,+5.00,+18.00
-1.00,+57.00,+48.00,+20.00,-4.00,-78.00,-14.00,+12.00,+14.00,+17.00,-46.00,-6.00,-25.00,-100.00,-30.00,+40.00
+59.00,-80.00,-76.00,-13.00,+3.00,+71.00,+13.00,+37.00,+20.00,+14.00,+49.00,+9.00,+6.00,+59.00,-7.00,-19.00
+22.00,+45.00,+35.00,-3.00,-8.00,-53.00,-20.00,-30.00,-22.00,+24.00,+47.00,+16.00,+17.00,+49.00,-23.00,-26.00
-1.00,+44.00,+42.00,+7.00,+0.00,+26.00,-6.00,-1.00,+10.00,-58.00,-39.00,+6.00,+44.00,+33.00,+94.00,-20.00
+8.00,+1.00,-23.00,-12.00,-12.00,+52.00,+2.00,+24.00,-26.00,-35.00,-75.00,-39.00,-39.00,+23.00,-94.00,+33.00
-33.00,-47.00,-5.00,+2.00,-4.00,-30.00,-6.00,+23.00,+18.00,+31.00,+13.00,-7.00,-45.00,-83.00,+15.00,+61.00
-2.00,+18.00,-37.00,-8.00,-3.00,-39.00,+2.00,-68.00,-58.00,-39.00,+58.00,+14.00,+15.00,+20.00,-3.00,-25.00
-28.00,-36.00,-68.00,-6.00,-5.00,+41.00,-27.00,-95.00,+34.00,+27.00,-26.00,+17.00,+20.00,+19.00,+28.00,+18.00
+32.00,+4.00,+71.00,-17.00,-8.00,-23.00,+26.00,+72.00,-12.00,-16.00,+19.00,-4.00,+35.00,+19.00,-65.00,-46.00
+5.00,+53.00,+16.00,+32.00,+14.00,-30.00,-5.00,-3.00,+24.00,+34.00,-25.00,-1.00,-20.00,-29.00,-5.00,+5.00
-10.00,-38.00,-44.00,-3.00,+2.00,+73.00,+34.00,-30.00,+4.00,-6.00,+17.00,+13.00,+48.00,-11.00,+3.00,+20.00
-79.00,-21.00,-19.00,-4.00,+2.00,-6.00,-12.00,-77.00,-9.00,-5.00,+44.00,-2.00,-29.00,-23.00,-34.00,-12.00
-8.00,-1.00,-22.00,-3.00,-8.00,-21.00,-29.00,+3.00,+4.00,+36.00,+11.00,+12.00,+2.00,+49.00,+57.00,-5.00
-13.00,+4.00,-5.00,-5.00,-1.00,+6.00,+0.00,+51.00,+2.00,-31.00,-83.00,-25.00,+9.00,+2.00,-4.00,+17.00
+19.00,-17.00,-49.00,-18.00,-4.00,-82.00,+5.00,+34.00,+18.00,-5.00,+23.00,+4.00,+3.00,+20.00,+75.00,+6.00
-29.00,-22.00,+66.00,+12.00,+0.00,-3.00,-37.00,-73.00,-27.00,-39.00,-52.00,-19.00,-43.00,-76.00,-81.00,-14.00
-17.00,+35.00,-102.00,-15.00,+6.00,+51.00,+38.00,-49.00,+46.00,+25.00,+8.00,+4.00,+1.00,-33.00,+0.00,+11.00
-36.00,+15.00,+114.00,+17.00,-3.00,+51.00,-9.00,+20.00,-17.00,+18.00,+52.00,+22.00,+10.00,+47.00,+33.00,-12.00
+28.00,+11.00,+1.00,+8.00,-1.00,-43.00,-6.00,+37.00,+3.00,+20.00,+0.00,+0.00,-19.00,-16.00,-23.00,-26.00
-2.00,-29.00,-58.00,-9.00,-4.00,-73.00,-26.00,+19.00,-4.00,+22.00,-20.00,-12.00,+45.00,-7.00,-47.00,-17.00
-29.00,-29.00,-10.00,-12.00,-2.00,+19.00,-9.00,-50.00,-20.00,-19.00,+86.00,+10.00,-10.00,-41.00,+38.00,-7.00
+32.00,-30.00,-30.00,-7.00,-10.00,-76.00,-11.00,+95.00,+11.00,-51.00,-106.00,-27.00,-33.00,-19.00,+0.00,+47.00
-23.00,+36.00,+47.00,+0.00,+3.00,+69.00,+0.00,-40.00,-23.00,-15.00,-16.00,-4.00,+33.00,+20.00,+12.00,-2.00
-13.00,-41.00,+0.00,+4.00,+3.00,-11.00,+23.00,-37.00,-7.00,+17.00,+47.00,+8.00,+26.00,+57.00,-27.00,-32.00
+51.00,+52.00,+48.00,+14.00,+6.00,+7.00,-8.00,-38.00,-2.00,+23.00,-31.00,-18.00,-51.00,-89.00,-6.00,+17.00
-35.00,-5.00,-31.00,-15.00,-5.00,-37.00,-1.00,-2.00,+7.00,+39.00,+61.00,+22.00,+35.00,+94.00,+6.00,+6.00
+19.00,-4.00,+64.00,+6.00,-7.00,+14.00,-5.00,+19.00,-24.00,-68.00,-48.00,-4.00,+33.00,+4.00,-6.00,-37.00
+34.00,+8.00,-36.00,+1.00,+8.00,+10.00,+22.00,+10.00,+51.00,+86.00,+14.00,-10.00,-23.00,-31.00,-28.00,+46.00
-29.00,-17.00,-24.00,-4.00,-2.00,-8.00,+15.00,-53.00,-33.00,-74.00,-73.00,-7.00,-72.00,+11.00,+51.00,+18.00
+7.00,+25.00,-18.00,+0.00,-4.00,-44.00,-21.00,-5.00,-8.00,-2.00,+40.00,+10.00,+29.00,-40.00,-5.00,+44.00
+3.00,-18.00,-16.00,+2.00,-1.00,+25.00,+24.00,+69.00,+10.00,+3.00,-48.00,-15.00,+1.00,+11.00,+6.00,-20.00
+28.00,+52.00,+83.00,+5.00,-6.00,-52.00,-20.00,-13.00,-32.00,+11.00,+33.00,+10.00,-37.00,+40.00,-5.00,-29.00
-29.00,-36.00,-48.00,+5.00,+10.00,+48.00,+0.00,-4.00,+10.00,+22.00,+42.00,+11.00,+61.00,+16.00,-50.00,-50.00
+3.00,+16.00,-26.00,-23.00,-6.00,-8.00,+34.00,+12.00,+17.00,-2.00,-75.00,-14.00,-13.00,-29.00,-42.00,-6.00
-17.00,-46.00,-10.00,+11.00,+5.00,+54.00,+3.00,+15.00,+11.00,-3.00,+10.00,+7.00,+10.00,+13.00,+29.00,+52.00
-19.00,+7.00,-19.00,-12.00,-6.00,-3.00,-6.00,+3.00,+11.00,-14.00,+4.00,-6.00,-23.00,+9.00,-8.00,-6.00
-9.00,-6.00,+10.00,+2.00,-8.00,-53.00,-13.00,+103.00,-36.00,-27.00,+7.00,+5.00,+3.00,-44.00,-10.00,+10.00
+10.00,-3.00,-69.00,-13.00,+6.00,+52.00,-2.00,-75.00,-16.00,-22.00,+98.00,+27.00,+3.00,+75.00,+7.00,-69.00
+65.00,+44.00,+34.00,+13.00,+7.00,-2.00,-10.00,+54.00,-6.00,+40.00,-75.00,-27.00,+25.00,-24.00,-72.00,-66.00
+36.00,-13.00,-84.00,-9.00,-3.00,+6.00,+42.00,+56.00,+9.00,-16.00,+2.00,+2.00,-55.00,-20.00,+38.00,+46.00
-63.00,-21.00,+50.00,-4.00,-9.00,-122.00,-58.00,+0.00,+4.00,-10.00,-32.00,-11.00,+54.00,+30.00,+17.00,+24.00
+12.00,+10.00,-8.00,+11.00,+8.00,+107.00,+51.00,-36.00,+15.00,+39.00,+75.00,+23.00,+44.00,+16.00,-29.00,+27.00
-23.00,-35.00,-43.00,-11.00,-8.00,-110.00,-24.00,-19.00,-1.00,+62.00,+98.00,+12.00,-63.00,+18.00,-33.00,+8.00
+13.00,+19.00,+29.00,+2.00,+11.00,+58.00,-3.00,-15.00,-25.00,-63.00,-27.00,-20.00,+20.00,-70.00,-14.00,-58.00
+14.00,-6.00,+18.00,-2.00,-8.00,-7.00,+25.00,+4.00,-9.00,-39.00,+7.00,-6.00,-2.00,+58.00,+24.00,+2.00
-65.00,-29.00,-111.00,-26.00,-9.00,+61.00,-9.00,-76.00,-26.00,-21.00,-27.00,-6.00,+0.00,-33.00,-47.00,-52.00
-17.00,+4.00,+57.00,+11.00,+1.00,+13.00,-10.00,-49.00,+48.00,+49.00,+26.00,+8.00,-24.00,+40.00,+12.00,+27.00
+56.00,+3.00,-10.00,+1.00,-4.00,-4.00,-36.00,-21.00,-23.00,+23.00,+7.00,+6.00,+7.00,-12.00,-30.00,+35.00
+19.00,+2.00,-8.00,+9.00,+9.00,+60.00,+25.00,+43.00,+22.00,-23.00,+24.00,+6.00,-14.00,-39.00,+38.00,+7.00
-2.00,+41.00,+39.00,-3.00,-8.00,-44.00,-16.00,-87.00,-39.00,-38.00,+50.00,+15.00,+34.00,+118.00,+71.00,+61.00
-76.00,-56.00,-65.00,-9.00,-1.00,+29.00,+55.00,+33.00,+63.00,+13.00,-77.00,-22.00,-9.00,-84.00,-46.00,+6.00
-45.00,-57.00,+33.00,+2.00,-1.00,-48.00,-20.00,-9.00,-64.00,-49.00,-18.00,-22.00,-50.00,-73.00,-15.00,-74.00
+20.00,+35.00,+4.00,+0.00,-2.00,-53.00,-33.00,-59.00,+6.00,-13.00,-9.00,+4.00,+18.00,+23.00,+25.00,-28.00
+8.00,-10.00,+19.00,+5.00,-2.00,-30.00,-6.00,+85.00,-31.00,-4.00,-13.00,-9.00,-36.00,+1.00,+5.00,+15.00
-5.00,-18.00,+12.00,-3.00,+0.00,-7.00,+21.00,-105.00,+14.00,+5.00,+18.00,+19.00,+37.00,+53.00,+63.00,+24.00
-46.00,-19.00,+14.00,-6.00,-20.00,-53.00,-30.00,-34.00,+43.00,+12.00,+14.00,+3.00,-36.00,-12.00,+1.00,+8.00
+42.00,+33.00,+21.00,+12.00,+3.00,-21.00,-7.00,-23.00,-2.00,+52.00,+13.00,-4.00,-1.00,-19.00,-24.00,-16.00
+2.00,-21.00,+45.00,+11.00,+10.00,+67.00,+48.00,+55.00,-5.00,+25.00,-32.00,-13.00,-15.00,-17.00,+39.00,+18.00
-30.00,+21.00,-37.00,-2.00,-2.00,-61.00,-29.00,-102.00,-3.00,+13.00,+69.00,+26.00,+14.00,-6.00,+3.00,-12.00
-24.00,-23.00,-70.00,-15.00,-3.00,+13.00,+5.00,-14.00,+22.00,-28.00,-70.00,-28.00,+0.00,-48.00,-38.00,+16.00
-45.00,+8.00,+86.00,+1.00,-5.00,-27.00,-7.00,-42.00,-29.00,-23.00,-56.00,-4.00,-13.00,-16.00,-17.00,-33.00
+17.00,+32.00,+13.00,+9.00,+2.00,+15.00,-21.00,-35.00,+28.00,+49.00,-9.00,-6.00,-11.00,+6.00,+0.00,+3.00
+85.00,+14.00,-37.00,-3.00,+10.00,-37.00,+7.00,-5.00,+12.00,+17.00,+25.00,-5.00,-10.00,+51.00,+28.00,+21.00
+25.00,+13.00,-17.00,-3.00,-4.00,+11.00,+1.00,+59.00,-15.00,+5.00,+46.00,+22.00,+26.00,+7.00,+35.00,+46.00
+12.00,-53.00,-42.00,+0.00,+1.00,+1.00,+5.00,+34.00,-19.00,+2.00,+16.00,-4.00,+25.00,-10.00,-26.00,-60.00
+0.00,+4.00,+4.00,-4.00,-4.00,+14.00,+13.00,+27.00,+13.00,-28.00,-43.00,-5.00,+26.00,+5.00,-29.00,-19.00
-46.00,-22.00,+16.00,+3.00,-6.00,+30.00,-19.00,-33.00,-22.00,+5.00,+27.00,-4.00,-25.00,-63.00,+32.00,+7.00
+45.00,+18.00,+4.00,+6.00,+7.00,-47.00,-12.00,+74.00,+17.00,+17.00,-20.00,+4.00,-5.00,+9.00,+17.00,-20.00
+14.00,+12.00,+51.00,+0.00,+5.00,+82.00,+2.00,+87.00,-23.00,-34.00,-39.00,-11.00,-33.00,-49.00,-10.00,+45.00
-59.00,-24.00,-74.00,-4.00,-1.00,+31.00,-23.00,-26.00,+0.00,-1.00,-18.00,-2.00,+24.00,+13.00,-24.00,-22.00
+64.00,-6.00,+14.00,-5.00,-8.00,-82.00,-10.00,+89.00,-2.00,+17.00,-14.00,-5.00,+25.00,+74.00,+8.00,+30.00
+1.00,+6.00,+15.00,+0.00,+5.00,+68.00,+11.00,-86.00,-24.00,+4.00,+11.00,+0.00,-32.00,-12.00,-37.00,-62.00
+36.00,-6.00,-6.00,+8.00,+6.00,-4.00,+22.00,+83.00,-2.00,+0.00,+16.00,-6.00,+6.00,-18.00,+10.00,+31.00
-25.00,+29.00,-11.00,+2.00,-2.00,-37.00,-34.00,+9.00,-16.00,+3.00,-6.00,+5.00,+40.00,+46.00,+16.00,+17.00
-21.00,-6.00,+19.00,-7.00,-5.00,+37.00,+49.00,+23.00,+7.00,-37.00,-9.00,+3.00,-7.00,-37.00,-60.00,-28.00
+15.00,-9.00,-43.00,-5.00,-1.00,-19.00,+9.00,-20.00,+15.00,+7.00,+22.00,+4.00,+29.00,-2.00,+5.00,+44.00
-24.00,-3.00,+35.00,-1.00,+1.00,+37.00,-11.00,-88.00,+29.00,+18.00,-72.00,-31.00,-97.00,-91.00,-12.00,-39.00
+54.00,+6.00,-9.00,-8.00,-4.00,-35.00,+16.00,+80.00,-6.00,-34.00,+53.00,+7.00,-13.00,-11.00,-4.00,-1.00
-20.00,+1.00,+45.00,+2.00,-3.00,-46.00,-17.00,-32.00,+24.00,+31.00,-27.00,+4.00,+12.00,+53.00,+12.00,+20.00
+9.00,-22.00,-48.00,+3.00,+7.00,+14.00,+4.00,-22.00,-76.00,-4.00,-5.00,+10.00,+85.00,+65.00,-18.00,-14.00
-36.00,-4.00,-24.00,-13.00,-7.00,-20.00,+11.00,-45.00,+44.00,-18.00,+7.00,+5.00,-38.00,+3.00,+7.00,-1.00
+16.00,-31.00,+25.00,+9.00,+1.00,-34.00,-12.00,+26.00,+23.00,+11.00,+2.00,-8.00,+25.00,-38.00,+31.00,+6.00
-3.00,-7.00,+22.00,-2.00,-9.00,-27.00,-16.00,-46.00,-3.00,-30.00,+15.00,+2.00,-7.00,-11.00,-50.00,-43.00
+6.00,+21.00,+10.00,+0.00,+2.00,+29.00,-1.00,-53.00,-10.00,+0.00,-9.00,+11.00,+12.00,+82.00,+71.00,+28.00
+15.00,-21.00,-86.00,-2.00,-3.00,+13.00,-6.00,+43.00,+32.00,+52.00,+8.00,+3.00,-14.00,-21.00,+52.00,+35.00
+38.00,+22.00,+71.00,-2.00,-4.00,-38.00,+13.00,+15.00,-4.00,-4.00,-65.00,-17.00,-15.00,-40.00,-67.00,-36.00
-27.00,+31.00,+0.00,+0.00,+0.00,-9.00,-28.00,-17.00,-31.00,-60.00,+0.00,+7.00,-25.00,+20.00,+26.00,-5.00
-22.00,+56.00,+48.00,+2.00,-3.00,+15.00,+16.00,+3.00,+25.00,-1.00,-12.00,-8.00,+55.00,-49.00,+4.00,+11.00
+18.00,-27.00,-35.00,-5.00,-1.00,+62.00,+17.00,+17.00,-16.00,-6.00,+27.00,+9.00,+34.00,+99.00,-56.00,-4.00
-45.00,-23.00,-8.00,+3.00,+1.00,-36.00,-35.00,+36.00,+12.00,+55.00,+9.00,-2.00,-38.00,-68.00,+47.00,+2.00
-37.00,+16.00,-55.00,-1.00,-4.00,-16.00,-8.00,-20.00,-29.00,-31.00,+5.00,+8.00,-14.00,+8.00,-42.00,-11.00
-5.00,+12.00,-17.00,-4.00,+1.00,+8.00,+12.00,-47.00,+5.00,-19.00,+7.00,+3.00,-10.00,+24.00,+50.00,+37.00
-13.00,-46.00,-30.00,-1.00,+0.00,-8.00,+16.00,-22.00,+18.00,+35.00,+20.00,+3.00,-1.00,-16.00,-19.00,-13.00
+19.00,+35.00,+19.00,-1.00,-6.00,-11.00,-3.00,-5.00,-41.00,-15.00,-2.00,+2.00,+3.00,+36.00,-29.00,-11.00
+51.00,+9.00,-62.00,-9.00,+1.00,+56.00,-5.00,+41.00,+11.00,-1.00,+23.00,+4.00,+32.00,-33.00,+20.00,+25.00
-30.00,-20.00,+90.00,+10.00,-3.00,-25.00,-8.00,-41.00,+38.00,+6.00,+11.00,-8.00,-12.00,-7.00,+8.00,+14.00
-9.00,+44.00,-24.00,+1.00,+1.00,-48.00,-26.00,-53.00,-6.00,-6.00,-32.00,+1.00,+14.00,+34.00,+6.00,-12.00
-11.00,-21.00,-3.00,-2.00,+2.00,-11.00,+19.00,+41.00,+8.00,+4.00,-10.00,-7.00,-6.00,-31.00,-35.00,-56.00
-3.00,-26.00,-19.00,-16.00,+1.00,+104.00,+1.00,+20.00,-25.00,-24.00,+3.00,-4.00,-4.00,-9.00,+24.00,+12.00
-32.00,-8.00,-48.00,-4.00,-11.00,-82.00,+3.00,+38.00,-19.00,+9.00,+22.00,+1.00,-24.00,-9.00,-25.00,+12.00
-22.00,+36.00,+30.00,+1.00,+0.00,+5.00,-12.00,-92.00,+24.00,+13.00,+28.00,+14.00,+18.00,+36.00,+36.00,+15.00
+12.00,-35.00,+18.00,+1.00,+0.00,+0.00,+2.00,+51.00,+16.00,+5.00,+6.00,+4.00,-22.00,-23.00,-1.00,+9.00
-50.00,-21.00,-21.00,+1.00,-4.00,-19.00,-28.00,-86.00,-7.00,-7.00,+11.00,-6.00,-47.00,-52.00,-6.00,-17.00
+36.00,+49.00,+36.00,-4.00,+1.00,-52.00,-2.00,+109.00,-9.00,-48.00,-57.00,-13.00,+43.00,+47.00,+0.00,+18.00
+49.00,-9.00,+25.00,+15.00,+7.00,+29.00,+13.00,-54.00,-38.00,-13.00,+27.00,+4.00,-19.00,-52.00,-23.00,-4.00
+0.00,+31.00,-21.00,-7.00,-1.00,+12.00,+25.00,-22.00,+19.00,+19.00,+5.00,+6.00,+2.00,+11.00,-18.00,-4.00
-29.00,-42.00,+12.00,-3.00,-6.00,-2.00,+6.00,-1.00,-23.00,+9.00,-5.00,-7.00,+8.00,+59.00,+28.00,+8.00
+15.00,+8.00,-40.00,-5.00,-9.00,+34.00,+1.00,+1.00,+9.00,-25.00,+71.00,+12.00,+5.00,-111.00,-48.00,-69.00
-35.00,+22.00,-24.00,+0.00,+4.00,-58.00,+13.00,+67.00,+22.00,+1.00,-100.00,-24.00,-19.00,-1.00,+12.00,+33.00
+30.00,-29.00,-18.00,-3.00,+5.00,-29.00,-18.00,-45.00,-21.00,-19.00,+24.00,+4.00,-2.00,+43.00,+14.00,+31.00
+8.00,+47.00,+20.00,+14.00,+1.00,-30.00,-16.00,+0.00,+24.00,-31.00,-21.00,-6.00,-27.00,-54.00,-6.00,-26.00
-20.00,-16.00,+59.00,+12.00,+10.00,+36.00,+32.00,-9.00,+14.00,+43.00,+17.00,+8.00,+31.00,+114.00,-14.00,-17.00
+12.00,-17.00,-5.00,-9.00,-5.00,+35.00,+5.00,+30.00,-41.00,-21.00,+9.00,-6.00,-17.00,-88.00,-28.00,-20.00
-20.00,+20.00,-21.00,+3.00,-8.00,-79.00,-32.00,-17.00,-2.00,-7.00,+23.00,+10.00,+15.00,+32.00,-1.00,+20.00
-1.00,+20.00,-3.00,-1.00,+2.00,+8.00,+16.00,+7.00,-2.00,+29.00,-80.00,-16.00,+11.00,+40.00,+14.00,+18.00
+10.00,-25.00,-19.00,+6.00,-2.00,+32.00,-1.00,-6.00,-12.00,-6.00,+2.00,-1.00,-44.00,-55.00,-5.00,-41.00
-10.00,+28.00,+15.00,-4.00,-7.00,-3.00,-26.00,-16.00,-1.00,+5.00,+34.00,+8.00,+18.00,+65.00,-7.00,-14.00
-13.00,-5.00,-12.00,-7.00,-4.00,-48.00,-13.00,-24.00,-21.00,-28.00,+2.00,+4.00,+17.00,-40.00,-17.00,+10.00
+37.00,+13.00,-17.00,+2.00,+7.00,-6.00,+12.00,-6.00,+13.00,+24.00,+24.00,+2.00,+14.00,+4.00,+8.00,-15.00
-12.00,-9.00,+58.00,+8.00,+2.00,+41.00,+14.00,+62.00,+26.00,+14.00,-25.00,+3.00,-23.00,+27.00,+24.00,-1.00
-20.00,-36.00,-7.00,-10.00,-9.00,-52.00,-20.00,-67.00,-19.00,-15.00,+23.00,-3.00,+40.00,+7.00,+1.00,-4.00
+15.00,+30.00,+14.00,+1.00,+3.00,+58.00,-22.00,-99.00,-35.00,+8.00,+16.00,+4.00,-34.00,-16.00,-9.00,+10.00
+9.00,+51.00,+3.00,+5.00,+0.00,+5.00,-5.00,+4.00,+37.00,+2.00,+13.00,-4.00,+9.00,+7.00,+6.00,-3.00
+11.00,-43.00,-69.00,-21.00,-2.00,-69.00,+11.00,+85.00,+7.00,+22.00,-15.00,-12.00,-17.00,-79.00,-11.00,-4.00
-6.00,-4.00,+98.00,+18.00,-3.00,+30.00,+9.00,-41.00,-9.00,+10.00,+26.00,+0.00,-14.00,+57.00,-21.00,+26.00
-6.00,-27.00,+11.00,-4.00,-5.00,-2.00,-15.00,-75.00,+16.00,-55.00,-61.00,-14.00,+26.00,+10.00,+35.00,-1.00
-4.00,-17.00,-1.00,+7.00,+3.00,-32.00,+9.00,-7.00,-46.00,+19.00,+35.00,+16.00,+24.00,-17.00,-28.00,-62.00
-6.00,-27.00,-37.00,-3.00,-1.00,+18.00,-5.00,-26.00,+1.00,-4.00,+25.00,+5.00,-19.00,+23.00,+19.00,+61.00
-17.00,-32.00,-33.00,-12.00,-10.00,-87.00,-18.00,-36.00,-5.00,-31.00,-67.00,-10.00,-67.00,-57.00,-30.00,+37.00
-31.00,+1.00,-12.00,+8.00,+4.00,+77.00,+11.00,+97.00,+36.00,+23.00,+15.00,-14.00,+45.00,+32.00,+5.00,+17.00
+3.00,-30.00,+1.00,-6.00,+6.00,-18.00,+42.00,+112.00,+10.00,+37.00,-22.00,+0.00,+10.00,-22.00,-2.00,+0.00
+28.00,+32.00,-31.00,-2.00,-4.00,+33.00,+6.00,-83.00,-2.00,+38.00,+6.00,-1.00,-3.00,-9.00,+12.00,-3.00
-24.00,-37.00,-99.00,-19.00,+0.00,+16.00,-1.00,+61.00,-24.00,-15.00,+45.00,+19.00,+21.00,+36.00,-14.00,-53.00
+29.00,+5.00,+86.00,+22.00,-4.00,-29.00,+13.00,-104.00,+9.00,+24.00,-37.00,-16.00,-26.00,+11.00,+39.00,+23.00
+17.00,-15.00,+1.00,-5.00,+3.00,+48.00,-13.00,+25.00,+1.00,-45.00,-35.00,+2.00,-6.00,-61.00,-27.00,-42.00
-15.00,-12.00,-2.00,-2.00,-7.00,-30.00,-25.00,+49.00,-11.00,-6.00,+4.00,-11.00,+7.00,+33.00,+2.00,-21.00
+11.00,+16.00,-74.00,+0.00,+5.00,-5.00,+2.00,-94.00,+17.00,-6.00,-2.00,+0.00,-2.00,-24.00,+7.00,+62.00
+31.00,+24.00,+63.00,+6.00,+0.00,+17.00,+21.00,+34.00,-4.00,-29.00,-41.00,-9.00,-29.00,+3.00,+37.00,-17.00
-69.00,-6.00,-25.00,-3.00,+1.00,+20.00,-11.00,-75.00,+15.00,+45.00,+66.00,+4.00,-5.00,-20.00,+18.00,-12.00
+20.00,-23.00,+31.00,-2.00,-3.00,-21.00,-32.00,-1.00,+3.00,+26.00,-10.00,+1.00,-7.00,+3.00,+1.00,-2.00
+58.00,+43.00,+1.00,+2.00,+0.00,-13.00,+17.00,+37.00,+6.00,+16.00,+16.00,+1.00,+24.00,+43.00,+12.00,-33.00
+2.00,+22.00,+3.00,-8.00,-1.00,+3.00,+8.00,+33.00,+0.00,-20.00,+41.00,+1.00,-5.00,+3.00,-18.00,+11.00
-20.00,+2.00,+34.00,+11.00,-1.00,-19.00,-5.00,-26.00,-55.00,-50.00,-23.00,-4.00,+35.00,+11.00,+0.00,-18.00
-18.00,+19.00,-34.00,-4.00,+2.00,+35.00,-15.00,-38.00,+2.00,-20.00,-20.00,+8.00,-27.00,-65.00,+20.00,+66.00
-41.00,-57.00,-28.00,-4.00,-7.00,-45.00,+8.00,+13.00,+13.00,-18.00,+2.00,+6.00,+46.00,+16.00,-33.00,-74.00
-11.00,-47.00,-27.00,-14.00,-6.00,+15.00,-2.00,-2.00,-7.00,+53.00,+6.00,-6.00,-70.00,-104.00,-25.00,-16.00
+52.00,+99.00,+52.00,+17.00,+9.00,+6.00,+0.00,+30.00,+8.00,+4.00,+18.00,+1.00,+8.00,+55.00,+23.00,+21.00
-48.00,-4.00,-14.00,-4.00,+0.00,-12.00,-8.00,-33.00,-6.00,-42.00,-11.00,-1.00,+14.00,+28.00,-10.00,+18.00
-7.00,-5.00,+10.00,-2.00,-1.00,+49.00,+6.00,-23.00,+13.00,+13.00,-11.00,+6.00,+7.00,+32.00,+49.00,+22.00
+43.00,-12.00,-24.00,-7.00,-3.00,-53.00,-15.00,+89.00,+12.00,-5.00,+52.00,+15.00,-4.00,-19.00,-47.00,-35.00
+13.00,-6.00,+40.00,+3.00,+1.00,+79.00,+37.00,+38.00,-14.00,+24.00,-60.00,-20.00,-35.00,-5.00,-3.00,+45.00
-52.00,-10.00,-17.00,+1.00,-4.00,-7.00,+5.00,-94.00,-42.00,-44.00,+4.00,+4.00,+60.00,+127.00,+40.00,-70.00
+46.00,+31.00,+17.00,+9.00,+4.00,+3.00,-9.00,+55.00,+60.00,+36.00,-45.00,-33.00,-45.00,-101.00,-46.00,+72.00
-46.00,-16.00,-35.00,-9.00,+2.00,+4.00,+23.00,-60.00,-36.00,+7.00,+26.00,+2.00,-18.00,-32.00,+4.00,-40.00
-7.00,-33.00,-13.00,-9.00,-6.00,-24.00,-26.00,-84.00,-11.00,-47.00,-3.00,+11.00,+5.00,+2.00,+10.00,-37.00
+46.00,+27.00,-7.00,+3.00,+0.00,+6.00,+15.00,+103.00,+18.00,+19.00,+22.00,+2.00,-5.00,+38.00,-16.00,+48.00
-38.00,+19.00,+49.00,-1.00,-2.00,-2.00,+1.00,-12.00,-19.00,-5.00,-13.00,+4.00,-4.00,+28.00,+17.00,-60.00
-5.00,-5.00,-41.00,-7.00,-4.00,+19.00,-24.00,-49.00,-11.00,+5.00,+2.00,+3.00,+18.00,+7.00,+34.00,+85.00
+47.00,+45.00,+38.00,+0.00,+0.00,-25.00,+10.00,+65.00,-4.00,-29.00,+24.00,-8.00,+3.00,-35.00,-13.00,+9.00
+1.00,-21.00,-68.00,-3.00,+5.00,-36.00,-12.00,-50.00,+7.00,-3.00,-62.00,-12.00,-65.00,+6.00,-16.00,-38.00
+17.00,+24.00,+111.00,+1.00,-5.00,+34.00,-2.00,+98.00,-30.00,-6.00,+28.00,+9.00,+12.00,-24.00,-18.00,-3.00
-11.00,+9.00,+28.00,+19.00,+4.00,-21.00,+17.00,+35.00,+24.00,-4.00,-6.00,+1.00,+23.00,+35.00,+41.00,+2.00
-29.00,-23.00,-49.00,-8.00,-5.00,-16.00,-25.00,-29.00,+11.00,+17.00,+20.00,+1.00,-26.00,-61.00,-35.00,+17.00
+52.00,+15.00,+9.00,-8.00,+1.00,+31.00,+26.00,+34.00,-34.00,-14.00,-27.00,-10.00,+11.00,-19.00,-52.00,-67.00
-52.00,-1.00,-24.00,-5.00,-1.00,+17.00,-10.00,-4.00,-7.00,+13.00,+65.00,+15.00,-27.00,+31.00,+55.00,+28.00
-5.00,+14.00,+12.00,+2.00,-4.00,-1.00,-14.00,-52.00,-1.00,-16.00,-115.00,-31.00,+50.00,+24.00,-4.00,-16.00
+19.00,-20.00,-32.00,-8.00,-4.00,-10.00,-18.00,+75.00,-3.00,-3.00,-2.00,-2.00,-15.00,-4.00,-26.00,+22.00
-3.00,-12.00,+31.00,+1.00,+1.00,+42.00,-21.00,-2.00,+1.00,+9.00,+39.00,+6.00,-14.00,-27.00,+12.00,+1.00
+15.00,-15.00,-10.00,+3.00,+5.00,-107.00,+10.00,-76.00,+10.00,+27.00,+50.00,+3.00,+1.00,-9.00,-14.00,+17.00
-25.00,+9.00,-70.00,+0.00,+1.00,+77.00,+20.00,-87.00,-24.00,-38.00,-46.00,-2.00,-8.00,-7.00,-26.00,-32.00
-16.00,-10.00,+25.00,+3.00,-5.00,-23.00,-2.00,+76.00,-7.00,-8.00,+7.00,+4.00,+30.00,+59.00,+41.00,+37.00
+14.00,+6.00,+5.00,-2.00,-6.00,-47.00,-31.00,+55.00,+9.00,+29.00,+3.00,-7.00,-20.00,-6.00,-42.00,-49.00
+35.00,+0.00,-39.00,+3.00,+14.00,+42.00,+11.00,+41.00,-24.00,+5.00,+13.00,+2.00,+8.00,-70.00,+24.00,-27.00
-28.00,-7.00,+9.00,-6.00,-3.00,-60.00,-10.00,+39.00,-10.00,-23.00,-20.00,-4.00,-14.00,-6.00,-27.00,-27.00
-43.00,-38.00,-19.00,-8.00,-2.00,+66.00,+12.00,-58.00,+19.00,+33.00,+7.00,-8.00,-18.00,+10.00,+13.00,+53.00
+5.00,+37.00,+17.00,+12.00,+6.00,+16.00,+28.00,-18.00,+13.00,-37.00,-15.00,-2.00,-27.00,+20.00,-4.00,-9.00
-7.00,-14.00,-4.00,-7.00,-5.00,+16.00,-13.00,+1.00,-8.00,-16.00,-16.00,-9.00,-5.00,-19.00,+13.00,+3.00
+14.00,+22.00,+39.00,+11.00,+2.00,-41.00,+10.00,+28.00,-1.00,+33.00,+64.00,+11.00,-4.00,+29.00,-31.00,-49.00
-1.00,-3.00,-15.00,-3.00,-1.00,+19.00,-5.00,-42.00,-20.00,-11.00,-33.00,-2.00,-19.00,+5.00,+66.00,+31.00
-14.00,+43.00,+44.00,+0.00,-4.00,-24.00,-2.00,-32.00,-7.00,+22.00,+5.00,+9.00,+50.00,-36.00,-22.00,+10.00
-13.00,+17.00,-17.00,+0.00,+0.00,+23.00,+3.00,-11.00,+27.00,+1.00,-11.00,-4.00,+2.00,+35.00,-31.00,-23.00
+27.00,-74.00,+3.00,+0.00,+1.00,+13.00,-3.00,+16.00,+3.00,+41.00,+25.00,+6.00,-6.00,-21.00,-6.00,-18.00
-2.00,+18.00,-6.00,-2.00,-3.00,-22.00,+2.00,-38.00,-2.00,-44.00,-12.00,-6.00,+11.00,+23.00,+1.00,-10.00
+22.00,-7.00,-21.00,+4.00,-1.00,-1.00,-1.00,-39.00,-12.00,+6.00,+11.00,-1.00,+8.00,+1.00,+12.00,+22.00
-3.00,-13.00,-53.00,-14.00,-13.00,-25.00,-18.00,-17.00,+3.00,+23.00,-6.00,-2.00,+2.00,+3.00,+14.00,+6.00
+16.00,+6.00,+4.00,+8.00,+13.00,+37.00,+7.00,+74.00,+13.00,-16.00,-1.00,+4.00,-3.00,+7.00,-6.00,+2.00
+29.00,-4.00,-8.00,-5.00,+11.00,-23.00,+14.00,+0.00,+23.00,+24.00,-4.00,-1.00,+2.00,+0.00,-2.00,+15.00
-66.00,-39.00,-23.00,-15.00,-20.00,-43.00,-28.00,-60.00,-8.00,+26.00,-5.00,-5.00,+0.00,-14.00,-5.00,-14.00
+17.00,-15.00,-66.00,+9.00,+2.00,+27.00,+32.00,+6.00,-14.00,-41.00,-12.00,+0.00,+8.00,+9.00,-1.00,-1.00
-31.00,+18.00,+98.00,-10.00,+12.00,+55.00,+24.00,+67.00,-8.00,-18.00,-29.00,+1.00,+18.00,+58.00,+36.00,+87.00
+7.00,+5.00,+57.00,+20.00,-1.00,-37.00,+3.00,-7.00,+24.00,-3.00,+1.00,-9.00,-14.00,-68.00,-60.00,-82.00
-28.00,-2.00,-4.00,-2.00,+11.00,+6.00,+0.00,-11.00,+1.00,-3.00,+10.00,+10.00,+34.00,+33.00,+41.00,+3.00
+1.00,-20.00,+20.00,+4.00,+4.00,+15.00,-7.00,-20.00,-12.00,-7.00,+19.00,-4.00,-11.00,+39.00,+77.00,+43.00
-9.00,+4.00,-65.00,-15.00,-18.00,-29.00,-14.00,-38.00,-1.00,+43.00,+89.00,+15.00,-81.00,-67.00,+23.00,-66.00
+8.00,+49.00,-2.00,+0.00,+2.00,+28.00,+4.00,-4.00,-1.00,-44.00,-102.00,-62.00,-8.00,-49.00,+6.00,+50.00
+2.00,+3.00,+31.00,+4.00,-7.00,-8.00,+2.00,+2.00,+22.00,-23.00,+57.00,+7.00,+13.00,-33.00,+0.00,+31.00
-19.00,-31.00,+8.00,-7.00,-3.00,-15.00,-13.00,-17.00,-23.00,+6.00,+8.00,-1.00,+50.00,+48.00,+9.00,-5.00
+4.00,+3.00,-30.00,-1.00,-8.00,-22.00,-2.00,-4.00,+23.00,-25.00,+33.00,+28.00,+4.00,+66.00,+4.00,+20.00
-48.00,-9.00,-4.00,-9.00,+16.00,+10.00,-11.00,-16.00,-30.00,+28.00,+47.00,+24.00,+45.00,-18.00,-40.00,-34.00
-4.00,+1.00,+6.00,+4.00,-28.00,+1.00,+2.00,+17.00,+32.00,-3.00,-27.00,-9.00,-90.00,+19.00,+48.00,+17.00
-2.00,+38.00,+14.00,+5.00,+27.00,+18.00,+5.00,-5.00,+16.00,+9.00,-18.00,-9.00,-1.00,+1.00,-42.00,-21.00
-4.00,-12.00,-7.00,-2.00,-36.00,-33.00,-4.00,-22.00,+16.00,-18.00,-15.00,-13.00,-5.00,-26.00,-8.00,+6.00
+18.00,-25.00,-16.00,-3.00,-11.00,-18.00,+13.00,+74.00,-38.00,+29.00,+10.00,+11.00,-1.00,+20.00,-9.00,-20.00
+18.00,-10.00,-1.00,-2.00,+22.00,+11.00,-14.00,+13.00,-4.00,-27.00,-23.00,+10.00,+61.00,+3.00,-7.00,+16.00
-37.00,+9.00,+13.00,-3.00,-2.00,-1.00,+1.00,+50.00,-9.00,-1.00,-4.00,+4.00,-14.00,-32.00,-12.00,-11.00
-15.00,+15.00,+1.00,-1.00,+12.00,+25.00,-5.00,-22.00,+28.00,+9.00,-16.00,-29.00,-17.00,-17.00,-30.00,+1.00
-17.00,-40.00,-9.00,-2.00,+12.00,-15.00,-10.00,-11.00,+20.00,+3.00,+3.00,+4.00,-36.00,+26.00,+16.00,-7.00
+22.00,-14.00,+6.00,+1.00,-22.00,+6.00,+13.00,+27.00,-27.00,+8.00,+9.00,-14.00,-27.00,-20.00,-17.00,-4.00
+19.00,+31.00,+16.00,-3.00,-17.00,-40.00,-7.00,-32.00,-46.00,-45.00,-28.00,+2.00,+10.00,-16.00,-5.00,-20.00
+25.00,+11.00,+3.00,+7.00,-8.00,-53.00,-8.00,-1.00,+38.00,+21.00,-15.00,-6.00,+29.00,+3.00,-1.00,+14.00
+9.00,-53.00,-29.00,-7.00,-17.00,+7.00,-9.00,-59.00,-7.00,+8.00,+24.00,+20.00,-8.00,+26.00,+2.00,+19.00
-42.00,+17.00,+2.00,-5.00,+58.00,-12.00,+7.00,+5.00,+71.00,+11.00,+6.00,+38.00,+96.00,-5.00,-1.00,-20.00
-1.00,+8.00,+17.00,+8.00,+21.00,+52.00,+2.00,+29.00,-15.00,-6.00,-8.00,-26.00,-96.00,-12.00,-6.00,+15.00
-35.00,-26.00,-20.00,-6.00,-19.00,-5.00,-11.00,-46.00,+1.00,-12.00,-18.00,-13.00,-21.00,-13.00,-19.00,-9.00
+42.00,-1.00,-8.00,-1.00,-14.00,-57.00,+2.00,+30.00,+83.00,-4.00,+6.00,-35.00,-12.00,-1.00,+12.00,-3.00
+18.00,-27.00,-13.00,-4.00,-13.00,-2.00,+0.00,+2.00,+8.00,-6.00,-12.00,-13.00,-43.00,-10.00,+9.00,+10.00
+62.00,+77.00,+30.00,+8.00,+1.00,+3.00,+3.00,+9.00,-17.00,+19.00,+5.00,+20.00,+54.00,+12.00,+1.00,-8.00
-13.00,-12.00,-7.00,-5.00,+14.00,+13.00,-4.00,-16.00,-36.00,-6.00,+14.00,+11.00,+93.00,-4.00,+45.00,-4.00
-3.00,+0.00,+15.00,+3.00,+1.00,+12.00,-6.00,-20.00,-47.00,+1.00,-9.00,-11.00,-63.00,+8.00,-13.00,-23.00
+0.00,+3.00,+4.00,+1.00,+8.00,+8.00,+2.00,+2.00,-35.00,+4.00,+30.00,-16.00,-29.00,-28.00,+0.00,+10.00
-55.00,-35.00,-13.00,-5.00,-26.00,-4.00,-9.00,+3.00,+0.00,-11.00,-81.00,-6.00,+15.00,+8.00,-8.00,-6.00
+8.00,+8.00,-10.00,-1.00,+27.00,+3.00,-2.00,+1.00,-13.00,-27.00,-2.00,+3.00,-7.00,+6.00,+5.00,+17.00
+17.00,+9.00,-7.00,-1.00,+3.00,+36.00,-5.00,-30.00,-46.00,-2.00,+4.00,+12.00,+33.00,+1.00,-7.00,-21.00
-8.00,-12.00,-2.00,-3.00,-15.00,+2.00,+7.00,-25.00,-11.00,+34.00,-5.00,-5.00,+0.00,+4.00,-1.00,+8.00
+3.00,-23.00,-1.00,-6.00,+12.00,-2.00,-14.00,-28.00,+25.00,+33.00,+28.00,+5.00,-12.00,-2.00,-4.00,+5.00
+20.00,-6.00,+2.00,-1.00,-23.00,-2.00,+9.00,+20.00,+32.00,-13.00,+1.00,+8.00,+29.00,+2.00,-17.00,-8.00
-35.00,-1.00,-8.00,-5.00,+0.00,+11.00,+4.00,-17.00,+21.00,-10.00,-1.00,+3.00,+29.00,+0.00,+9.00,+12.00
+10.00,-25.00,-5.00,+0.00,+5.00,+16.00,-5.00,-5.00,-4.00,-8.00,-7.00,+0.00,-54.00,-5.00,+2.00,-11.00
+13.00,-2.00,+12.00,+2.00,-15.00,-42.00,-38.00,-54.00,+3.00,+4.00,+7.00,-5.00,-7.00,-2.00,+20.00,+10.00
+27.00,+8.00,-6.00,+0.00,+11.00,+23.00,+19.00,-1.00,-22.00,+5.00,-9.00,-3.00,+8.00,-5.00,-24.00,-6.00
+0.00,+12.00,-7.00,-4.00,-13.00,-30.00,-4.00,+1.00,+1.00,-6.00,+21.00,+18.00,+38.00,+12.00,+8.00,+9.00
-37.00,-5.00,+19.00,+1.00,+0.00,+5.00,+5.00,+14.00,-10.00,-5.00,-13.00,-14.00,+7.00,-14.00,-13.00,-11.00
-16.00,-6.00,-10.00,-8.00,-1.00,+18.00,+12.00,+4.00,+3.00,+8.00,+9.00,+2.00,-17.00,+21.00,-20.00,-1.00
+9.00,-18.00,-8.00,+0.00,-2.00,-2.00,-13.00,-11.00,+11.00,+12.00,+1.00,+12.00,+29.00,-18.00,+27.00,+0.00
+4.00,+10.00,-5.00,+1.00,-7.00,-9.00,-3.00,+0.00,-23.00,+9.00,+10.00,-8.00,-55.00,+17.00,-1.00,-19.00
+5.00,-6.00,+8.00,+6.00,-2.00,-6.00,-1.00,-14.00,-21.00,-14.00,-18.00,-3.00,-3.00,-42.00,-3.00,+23.00
-9.00,+29.00,+1.00,-1.00,-1.00,-1.00,+4.00,+29.00,+3.00,-23.00,+25.00,+1.00,+12.00,+5.00,-1.00,+10.00
-18.00,+2.00,-2.00,+0.00,-1.00,-16.00,+2.00,+5.00,-19.00,-4.00,-58.00,-21.00,-23.00,+4.00,-7.00,+7.00
-19.00,-16.00,-14.00,-13.00,-1.00,+15.00,-1.00,+6.00,+10.00,-12.00,+6.00,+5.00,+13.00,+0.00,-8.00,-16.00
+2.00,+13.00,-6.00,-2.00,+5.00,-27.00,-6.00,-4.00,+9.00,+25.00,-3.00,-1.00,+9.00,+20.00,+9.00,+4.00
-2.00,-21.00,-5.00,+2.00,-26.00,+26.00,+8.00,+9.00,-11.00,-3.00,+28.00,+13.00,+16.00,-12.00,-4.00,-7.00
+10.00,+8.00,+5.00,+0.00,-2.00,-24.00,-7.00,-2.00,-7.00,-12.00,-4.00,-2.00,-2.00,+9.00,-5.00,-5.00
+13.00,+16.00,+11.00,+6.00,+6.00,+12.00,+4.00,+1.00,+5.00,-43.00,+6.00,+6.00,-13.00,-15.00,+2.00,+6.00
+2.00,-11.00,-9.00,-2.00,+0.00,-4.00,+1.00,+4.00,+20.00,+29.00,-10.00,-9.00,+8.00,+7.00,-2.00,+1.00
+10.00,-9.00,+3.00,+1.00,+1.00,-11.00,-9.00,-26.00,+1.00,+6.00,-3.00,+2.00,-4.00,-9.00,-4.00,-2.00
-30.00,+10.00,+0.00,-2.00,+15.00,+19.00,+7.00,+30.00,-20.00,+4.00,+14.00,-4.00,-3.00,+3.00,-5.00,-3.00
-12.00,-38.00,-22.00,-9.00,-12.00,-7.00,-1.00,-5.00,+4.00,+15.00,-8.00,+10.00,+31.00,+1.00,+0.00,+3.00
+16.00,+77.00,+19.00,+3.00,-12.00,-19.00,+0.00,+5.00,-17.00,-19.00,+3.00,-7.00,-21.00,-1.00,-5.00,-6.00
-35.00,-39.00,+6.00,+5.00,+22.00,+8.00,+9.00,-41.00,+20.00,+0.00,-4.00,-1.00,+13.00,-7.00,-3.00,-9.00
+7.00,+15.00,-2.00,+0.00,-16.00,-4.00,-20.00,+25.00,-8.00,-8.00,+2.00,-8.00,-45.00,+6.00,+0.00,+9.00
+51.00,+28.00,+13.00,+4.00,+5.00,+15.00,+14.00,+62.00,+8.00,+31.00,+0.00,+0.00,+5.00,-19.00,-8.00,+4.00
-42.00,-29.00,-20.00,-10.00,-2.00,+7.00,+5.00,+27.00,+2.00,-7.00,+6.00,+19.00,+45.00,+15.00,+6.00,+18.00
-17.00,+6.00,+1.00,-3.00,-5.00,-4.00,+3.00,+23.00,-10.00,-46.00,-21.00,-24.00,-63.00,-10.00,+10.00,-10.00
+4.00,-14.00,+0.00,-3.00,+0.00,+0.00,-1.00,-19.00,-8.00,-5.00,+5.00,+2.00,+13.00,+7.00,-10.00,-4.00
+2.00,-11.00,-4.00,+9.00,+1.00,-6.00,-6.00,-14.00,+24.00,+17.00,+3.00,+7.00,+2.00,-9.00,-6.00,-6.00
-22.00,-6.00,+4.00,+3.00,-3.00,-2.00,-2.00,+3.00,-17.00,+13.00,+21.00,+3.00,-1.00,-4.00,-2.00,+4.00
+13.00,-5.00,-2.00,-7.00,-6.00,-5.00,+5.00,+19.00,+14.00,-8.00,-24.00,-6.00,+11.00,-6.00,-11.00,+11.00
-28.00,-46.00,-8.00,-7.00,-11.00,+7.00,-6.00,-29.00,+1.00,+10.00,+22.00,+5.00,-6.00,+4.00,+1.00,-2.00
-7.00,+32.00,+4.00,-1.00,+5.00,-7.00,-9.00,-23.00,-7.00,+8.00,-9.00,-2.00,-6.00,+1.00,+0.00,-6.00
+6.00,-54.00,-5.00,+5.00,-3.00,-6.00,+2.00,-4.00,-13.00,-24.00,-2.00,-3.00,-4.00,+4.00,-6.00,-11.00
-14.00,+4.00,+7.00,+2.00,-1.00,+3.00,+2.00,+8.00,+7.00,+9.00,-15.00,-3.00,+17.00,+1.00,+1.00,-1.00
+13.00,+17.00,+3.00,+3.00,+25.00,+7.00,+1.00,-3.00,+3.00,+8.00,-6.00,-7.00,-26.00,-8.00,-6.00,-15.00
-17.00,-20.00,-24.00,-7.00,-21.00,-20.00,-1.00,-10.00,+3.00,-29.00,+0.00,-7.00,+10.00,-2.00,-3.00,+11.00
+7.00,+9.00,+19.00,+0.00,+8.00,+6.00,-3.00,-1.00,-7.00,+16.00,+1.00,-3.00,-2.00,+5.00,+7.00,-1.00
+24.00,+36.00,+14.00,+6.00,+7.00,+2.00,+7.00,+24.00,-7.00,+18.00,+10.00,+0.00,-10.00,-2.00,-2.00,-2.00
+10.00,-13.00,-5.00,-2.00,-9.00,-14.00,-11.00,-12.00,-5.00,+5.00,+5.00,+6.00,+20.00,+1.00,-3.00,-7.00
-20.00,+17.00,+11.00,+2.00,+1.00,+20.00,+1.00,-2.00,-16.00,-2.00,-1.00,+0.00,+22.00,+0.00,+2.00,+7.00
-9.00,-33.00,-20.00,-6.00,-4.00,-21.00,-8.00,-10.00,+12.00,-81.00,-22.00,-10.00,-14.00,+5.00,+4.00,-2.00
+44.00,+15.00,+0.00,+1.00,-1.00,-11.00,+3.00,+23.00,+25.00,+22.00,+7.00,+3.00,-43.00,-2.00,-1.00,-2.00
+4.00,+15.00,+7.00,-1.00,+0.00,+6.00,+3.00,-5.00,-10.00,+55.00,+12.00,-4.00,-17.00,-6.00,-5.00,+5.00
-27.00,+5.00,-2.00,-3.00,-1.00,-1.00,-1.00,+6.00,-15.00,-7.00,+0.00,-5.00,-4.00,+3.00,+1.00,+3.00
+41.00,+4.00,-2.00,-1.00,-5.00,+7.00,-2.00,+5.00,+12.00,+17.00,-3.00,-2.00,+12.00,+0.00,+0.00,+5.00
-1.00,-17.00,-1.00,+0.00,+4.00,+6.00,-6.00,-13.00,-34.00,-8.00,-1.00,-2.00,+27.00,+6.00,-7.00,-21.00
+4.00,+4.00,+0.00,+0.00,-3.00,-5.00,+3.00,-4.00,+30.00,-19.00,-1.00,+0.00,-10.00,+0.00,+6.00,+36.00
+9.00,-1.00,+5.00,+0.00,+3.00,+3.00,-1.00,-8.00,+0.00,+6.00,+0.00,+4.00,+3.00,-2.00,+1.00,+0.00
+21.00,+3.00,-5.00,-3.00,-1.00,-1.00,+2.00,-16.00,-7.00,+12.00,-6.00,+0.00,+5.00,+1.00,-6.00,-20.00
-20.00,-19.00,-14.00,+0.00,-6.00,+1.00,+2.00,+64.00,-1.00,-20.00,+0.00,+0.00,+6.00,-7.00,-3.00,-10.00
-12.00,+1.00,-4.00,-2.00,+3.00,-2.00,+0.00,-1.00,-6.00,-3.00,+0.00,+1.00,-2.00,-3.00,-5.00,-10.00
+21.00,-3.00,+5.00,+0.00,+1.00,-5.00,-3.00,-14.00,-12.00,-2.00,+0.00,-3.00,-9.00,-4.00,-4.00,-4.00
+16.00,+12.00,+4.00,-1.00,-2.00,+12.00,-1.00,+2.00,+12.00,+0.00,+19.00,+4.00,-11.00,+0.00,+0.00,-4.00
-3.00,+2.00,-11.00,-4.00,-2.00,-6.00,-2.00,-16.00,-7.00,-6.00,-15.00,+2.00,+11.00,+0.00,+3.00,+10.00
-12.00,-4.00,-8.00,+1.00,+0.00,-2.00,+1.00,+3.00,+4.00,-7.00,-11.00,-11.00,-12.00,-8.00,-7.00,-8.00
+4.00,-2.00,+10.00,+1.00,+4.00,+3.00,-3.00,+3.00,+8.00,-4.00,-12.00,-7.00,-7.00,+0.00,+3.00,+6.00
-4.00,+6.00,-2.00,+1.00,-3.00,-1.00,-2.00,-7.00,-15.00,-1.00,+1.00,+3.00,-2.00,-1.00,+0.00,+0.00
-12.00,-10.00,-5.00,-1.00,-1.00,-2.00,-5.00,-20.00,-13.00,+8.00,+13.00,+1.00,+9.00,-1.00,+2.00,-2.00
-3.00,+1.00,-2.00,-5.00,+0.00,-5.00,+5.00,+15.00,-1.00,-4.00,+5.00,+1.00,-3.00,+1.00,+3.00,+4.00
-24.00,-2.00,+3.00,+2.00,-2.00,+0.00,+0.00,-8.00,+13.00,+3.00,+2.00,+2.00,-4.00,-1.00,-4.00,-12.00
+1.00,+8.00,+1.00,-1.00,+8.00,+7.00,-3.00,-1.00,+1.00,+4.00,-4.00,+0.00,+2.00,-1.00,+0.00,+2.00
+6.00,-12.00,+3.00,-2.00,-10.00,-11.00,+0.00,+3.00,+2.00,-4.00,+4.00,+0.00,+4.00,-2.00,-2.00,+4.00
+15.00,+4.00,-1.00,-1.00,+3.00,+7.00,+0.00,-10.00,+7.00,-15.00,-4.00,-1.00,-6.00,-2.00,+0.00,+6.00
-2.00,+0.00,-1.00,-1.00,+0.00,+4.00,-2.00,-2.00,-9.00,+6.00,+2.00,-1.00,-4.00,-1.00,-2.00,-3.00
-15.00,-4.00,-12.00,-6.00,-6.00,+1.00,-2.00,+6.00,-3.00,+5.00,-6.00,-1.00,-2.00,-2.00,+0.00,+0.00
+10.00,+14.00,+9.00,-1.00,+5.00,+1.00,+2.00,-10.00,+26.00,+6.00,-1.00,-3.00,+7.00,-1.00,-1.00,-2.00
-2.00,+7.00,-1.00,-1.00,+9.00,+20.00,-3.00,-4.00,-25.00,-10.00,+0.00,+0.00,-7.00,+0.00,-1.00,-5.00
-7.00,+5.00,-3.00,-1.00,-13.00,-33.00,-1.00,+0.00,-13.00,-5.00,+0.00,+0.00,+4.00,-1.00,+1.00,+3.00
-8.00,-13.00,+2.00,+0.00,-2.00,+1.00,-2.00,+0.00,+6.00,-4.00,-8.00,+3.00,+33.00,+3.00,-2.00,+2.00
-23.00,-19.00,-6.00,-5.00,-6.00,-3.00,+1.00,+4.00,-5.00,-2.00,-4.00,-6.00,-45.00,-9.00,-4.00,-4.00
-5.00,+7.00,+3.00,+2.00,-1.00,-2.00,-1.00,-5.00,+7.00,+8.00,+1.00,+0.00,+18.00,+5.00,+2.00,+1.00
+3.00,+3.00,+1.00,-2.00,+1.00,+12.00,-1.00,-10.00,+24.00,+5.00,+5.00,-1.00,-21.00,-1.00,+2.00,+2.00
+8.00,+13.00,+1.00,+0.00,+1.00,+1.00,+2.00,-2.00,-9.00,-6.00,-6.00,-4.00,-3.00,-3.00,-2.00,+2.00
-5.00,-11.00,-6.00,-3.00,+1.00,-3.00,-4.00,-8.00,-15.00,-10.00,+0.00,-1.00,+9.00,+0.00,-4.00,-5.00
+2.00,-1.00,+1.00,+3.00,-1.00,-5.00,-1.00,+0.00,-11.00,+2.00,-1.00,+1.00,-2.00,-3.00,-1.00,-6.00
+10.00,-7.00,+2.00,+1.00,+3.00,+5.00,+0.00,-4.00,+32.00,+13.00,-4.00,+1.00,+1.00,+1.00,+0.00,+2.00
-24.00,-4.00,-3.00,+1.00,-5.00,-7.00,+0.00,-6.00,-3.00,-1.00,-3.00,-2.00,-7.00,+0.00,-1.00,+1.00
+12.00,+10.00,+2.00,+3.00,+5.00,+7.00,+1.00,-1.00,+2.00,-3.00,+1.00,+0.00,+12.00,-1.00,-1.00,-2.00
-7.00,-29.00,-4.00,-2.00,-6.00,-6.00,-3.00,-10.00,-13.00,-7.00,-2.00,-4.00,-12.00,-2.00,-2.00,-5.00
-4.00,+32.00,-8.00,-2.00,-2.00,-2.00,-3.00,-6.00,-5.00,-7.00,-1.00,+1.00,+7.00,-1.00,+1.00,+1.00
+28.00,-13.00,-4.00,-6.00,-2.00,+0.00,-1.00,-1.00,+2.00,-5.00,-5.00,-5.00,-13.00,-4.00,+1.00,+3.00
+9.00,+33.00,+41.00,+14.00,+6.00,+3.00,+5.00,+10.00,+2.00,+1.00,+1.00,-1.00,+7.00,+1.00,+1.00,+1.00
+25.00,-12.00,-4.00,+1.00,+0.00,-2.00,+2.00,+8.00,+0.00,-24.00,-5.00,-4.00,-6.00,-5.00,-3.00,-3.00
-11.00,-26.00,-5.00,-1.00,+2.00,+0.00,-2.00,+3.00,-13.00,+7.00,-6.00,-4.00,-5.00,-2.00,-1.00,+0.00
