+1.00,+0.00,+1.00,+0.00,-1.00,+0.00,-1.00,-6.00,+6.00,+3.00,-1.00,-1.00,+0.00,-2.00,-2.00,-2.00
+8.00,+1.00,-4.00,-3.00,-2.00,-2.00,+1.00,+2.00,-4.00,-3.00,-3.00,+0.00,-1.00,+0.00,+0.00,-2.00
-3.00,-5.00,+1.00,-1.00,+0.00,-1.00,-1.00,-3.00,-4.00,-3.00,-3.00,+0.00,+1.00,+0.00,+1.00,+1.00
-29.00,-2.00,-1.00,-3.00,-2.00,-3.00,-3.00,-3.00,+3.00,+4.00,+2.00,-1.00,-2.00,-1.00,-4.00,-2.00
-6.00,-2.00,-1.00,-2.00,-2.00,+1.00,-2.00,-1.00,-11.00,-10.00,-2.00,-3.00,+1.00,+1.00,+1.00,-2.00
+11.00,+4.00,+0.00,-2.00,-1.00,-1.00,-2.00,-4.00,+3.00,+1.00,+0.00,+3.00,+5.00,-1.00,+0.00,+1.00
-10.00,-3.00,-2.00,-1.00,-2.00,-1.00,-2.00,+4.00,-13.00,+4.00,+2.00,-6.00,-4.00,-4.00,-2.00,+0.00
+13.00,+5.00,+4.00,+2.00,+1.00,-2.00,-1.00,-6.00,+11.00,-1.00,-4.00,-3.00,-5.00,+0.00,+1.00,+2.00
-9.00,-2.00,-1.00,-1.00,-1.00,-2.00,-2.00,-3.00,+14.00,+5.00,+0.00,+2.00,-5.00,-1.00,-1.00,+0.00
+2.00,-3.00,-1.00,+1.00,-2.00,-1.00,+0.00,+2.00,-4.00,+2.00,-1.00,-8.00,-7.00,-2.00,-4.00,-3.00
+12.00,+5.00,+0.00,+2.00,+1.00,+0.00,-1.00,-5.00,-11.00,-13.00,-4.00,-2.00,+0.00,-1.00,-2.00,-5.00
+4.00,+0.00,-4.00,-2.00,-2.00,+1.00,+0.00,+0.00,-5.00,-14.00,+2.00,+20.00,+17.00,+1.00,-1.00,-3.00
-6.00,-1.00,-1.00,-1.00,-1.00,-1.00,+0.00,+0.00,+23.00,+14.00,+0.00,+2.00,+10.00,+0.00,+0.00,+6.00
+26.00,+0.00,+2.00,+0.00,-1.00,-1.00,+0.00,+4.00,+3.00,-25.00,-3.00,+7.00,+16.00,+1.00,-2.00,+2.00
-19.00,-5.00,-4.00,-3.00,-3.00,-1.00,+0.00,+0.00,-2.00,+14.00,+0.00,-24.00,-40.00,-10.00,-5.00,-9.00
+2.00,+3.00,+1.00,-1.00,+0.00,+1.00,+3.00,+4.00,+8.00,+29.00,+4.00,+7.00,+36.00,+3.00,-2.00,-1.00
-1.00,-5.00,-1.00,+0.00,+0.00,-1.00,+0.00,+0.00,-2.00,-4.00,-7.00,-25.00,-46.00,-5.00,+1.00,+1.00
-1.00,-2.00,-6.00,-2.00,-2.00,+0.00,-2.00,-2.00,-20.00,-1.00,-2.00,+8.00,+3.00,-3.00,-1.00,-1.00
+5.00,+3.00,+0.00,-1.00,-2.00,+0.00,+2.00,-2.00,+23.00,-7.00,-3.00,+2.00,+9.00,+0.00,-3.00,+0.00
+2.00,-4.00,-1.00,-3.00,-3.00,+0.00,-2.00,-2.00,-8.00,-9.00,+0.00,-4.00,-16.00,-2.00,+0.00,-4.00
+11.00,+4.00,+0.00,+2.00,+1.00,-1.00,-2.00,-13.00,-13.00,-6.00,-1.00,+11.00,+16.00,+2.00,-1.00,-7.00
-11.00,+1.00,+2.00,-1.00,-1.00,+0.00,-2.00,-4.00,-1.00,+5.00,+1.00,-3.00,-5.00,-1.00,-3.00,-1.00
+0.00,+0.00,+1.00,+0.00,+0.00,-1.00,-1.00,-4.00,-2.00,-4.00,-4.00,+3.00,-2.00,+0.00,+0.00,+2.00
-13.00,+3.00,+2.00,+3.00,+1.00,-1.00,-1.00,-4.00,-23.00,-30.00,-7.00,-5.00,-8.00,-1.00,+0.00,-3.00
-3.00,-4.00,-1.00,+0.00,-1.00,+0.00,-1.00,+3.00,+9.00,+23.00,+3.00,+9.00,+12.00,+1.00,-1.00,+5.00
-13.00,-1.00,+1.00,+0.00,+0.00,-3.00,-4.00,-8.00,+4.00,+0.00,+3.00,-2.00,-25.00,-1.00,-2.00,-5.00
-24.00,-6.00,-6.00,-3.00,-1.00,+1.00,-2.00,-1.00,+22.00,+13.00,+1.00,-4.00,+20.00,-1.00,+0.00,+4.00
+12.00,-8.00,-3.00,+1.00,+0.00,+0.00,+0.00,-3.00,-22.00,-7.00,+0.00,-4.00,-9.00,+0.00,+0.00,-4.00
-12.00,-11.00,-4.00,-4.00,-4.00,-3.00,-1.00,+7.00,-26.00,-17.00,-9.00,-14.00,-7.00,-3.00,-2.00,+1.00
-10.00,+14.00,-4.00,-4.00,+0.00,-2.00,+1.00,-2.00,+37.00,+7.00,-1.00,-1.00,-13.00,-5.00,+0.00,+6.00
+2.00,+2.00,-5.00,-3.00,-2.00,-3.00,-3.00,-3.00,-37.00,+5.00,+1.00,+16.00,+16.00,+3.00,+2.00,-3.00
+1.00,-1.00,+3.00,+0.00,+1.00,+0.00,+1.00,+5.00,+27.00,+13.00,+3.00,-10.00,-13.00,-2.00,-2.00,+1.00
-6.00,-18.00,-2.00,+0.00,-5.00,-2.00,+1.00,-1.00,-23.00,-18.00,-1.00,+18.00,-1.00,-1.00,-6.00,-9.00
+11.00,+1.00,+4.00,+3.00,+5.00,+1.00,-3.00,-15.00,-14.00,-6.00,-2.00,+3.00,+11.00,+2.00,+3.00,+1.00
+7.00,+1.00,-1.00,-1.00,+0.00,-1.00,+5.00,+6.00,-3.00,+2.00,-2.00,+3.00,+26.00,+1.00,-1.00,+0.00
-10.00,-7.00,-10.00,-8.00,-16.00,+5.00,-3.00,-8.00,-15.00,-2.00,-4.00,-19.00,-38.00,-7.00,-2.00,-2.00
-3.00,+6.00,-3.00,+0.00,+12.00,+3.00,+0.00,+2.00,+5.00,-1.00,-1.00,-14.00,-26.00,-2.00,-2.00,-3.00
+0.00,+7.00,-9.00,-8.00,-9.00,-3.00,+2.00,+5.00,-15.00,-13.00,-3.00,-9.00,-3.00,-1.00,-1.00,+1.00
+1.00,-31.00,+5.00,+1.00,-18.00,-15.00,-4.00,-6.00,+2.00,-6.00,-1.00,+4.00,-34.00,-1.00,-3.00,-2.00
+7.00,+33.00,+5.00,+3.00,+1.00,+6.00,+1.00,+4.00,+17.00,+24.00,+6.00,+12.00,+85.00,+2.00,-1.00,+1.00
-5.00,+8.00,-5.00,-10.00,-37.00,-20.00,-11.00,-6.00,-38.00,-4.00,-1.00,+14.00,+30.00,-3.00,-4.00,-9.00
+5.00,-13.00,+4.00,+14.00,+67.00,+30.00,+7.00,+7.00,+30.00,+21.00,+2.00,-6.00,+13.00,+2.00,+3.00,+2.00
+21.00,+6.00,+0.00,+1.00,+2.00,-32.00,-3.00,+3.00,+9.00,-3.00,-3.00,-2.00,+21.00,+1.00,-1.00,-3.00
-23.00,-9.00,-7.00,+1.00,+46.00,+49.00,+11.00,+26.00,+20.00,+3.00,-8.00,-6.00,-65.00,-6.00,+0.00,+2.00
-10.00,-5.00,-2.00,-2.00,-7.00,+4.00,+1.00,-1.00,-54.00,-29.00,-3.00,-4.00,-1.00,-4.00,-3.00,-9.00
+37.00,+10.00,-2.00,-6.00,-17.00,-3.00,+1.00,+6.00,-19.00,-11.00,+0.00,+0.00,+12.00,+3.00,+3.00,+4.00
-16.00,+6.00,+0.00,-6.00,-9.00,+5.00,-1.00,+18.00,-7.00,-13.00,-6.00,-18.00,+0.00,-9.00,-10.00,-19.00
+7.00,-17.00,+0.00,+3.00,-13.00,-23.00,-4.00,-8.00,+6.00,+23.00,+6.00,-9.00,-68.00,-2.00,+1.00,+5.00
+22.00,+34.00,-1.00,-2.00,+0.00,-1.00,-1.00,+0.00,+59.00,+10.00,+1.00,-4.00,+48.00,+5.00,+2.00,-1.00
-11.00,-23.00,-2.00,-2.00,-14.00,-8.00,-4.00,+6.00,-36.00,-8.00,-2.00,+6.00,+8.00,-1.00,-5.00,-12.00
+16.00,+5.00,+2.00,-1.00,+3.00,+4.00,+3.00,+1.00,+100.00,+58.00,+10.00,+18.00,+6.00,+5.00,+6.00,+23.00
+8.00,+29.00,+5.00,-1.00,-17.00,-19.00,-6.00,-8.00,-41.00,-67.00,-9.00,-2.00,+19.00,+0.00,-2.00,-11.00
+4.00,-29.00,+2.00,+2.00,-1.00,+5.00,+0.00,-5.00,-40.00,+31.00,+3.00,-1.00,-7.00,+0.00,+0.00,-5.00
-18.00,-4.00,-4.00,+1.00,+12.00,-3.00,-4.00,-8.00,-29.00,+18.00,+2.00,+16.00,+8.00,-6.00,-5.00,-14.00
-2.00,-3.00,-5.00,+1.00,+1.00,+0.00,-2.00,-3.00,+12.00,-25.00,-9.00,-31.00,-50.00,-5.00,+0.00,+4.00
-19.00,-5.00,-10.00,-9.00,-5.00,-1.00,+6.00,-4.00,+1.00,+11.00,+2.00,+26.00,+35.00,-1.00,-1.00,+5.00
+24.00,+2.00,+1.00,+0.00,-2.00,-1.00,-12.00,+7.00,+7.00,-9.00,-3.00,-8.00,+0.00,+1.00,-1.00,+3.00
-3.00,-10.00,+1.00,+0.00,-36.00,-23.00,-4.00,-3.00,+0.00,-14.00,-7.00,-14.00,-9.00,+0.00,-1.00,-6.00
-3.00,+25.00,+7.00,+6.00,+36.00,+25.00,+1.00,-2.00,-42.00,-9.00,+1.00,+14.00,+5.00,-4.00,-4.00,-14.00
-7.00,-2.00,-15.00,-10.00,-3.00,-18.00,-10.00,-12.00,+0.00,-4.00,-6.00,-14.00,-17.00,+2.00,+1.00,-1.00
+10.00,+42.00,+11.00,+6.00,+8.00,+4.00,+10.00,+12.00,+6.00,-3.00,+4.00,+14.00,-22.00,-4.00,-3.00,+0.00
-10.00,-22.00,+0.00,-2.00,-20.00,-4.00,+0.00,-1.00,+13.00,-12.00,-17.00,-11.00,-95.00,-2.00,-4.00,-6.00
-6.00,+1.00,+0.00,-2.00,+0.00,+13.00,+1.00,-5.00,-1.00,-17.00,-7.00,-26.00,-11.00,-2.00,+2.00,+17.00
+10.00,-7.00,+2.00,+7.00,+22.00,+22.00,+11.00,+9.00,-36.00,+6.00,+10.00,+19.00,+69.00,+7.00,-1.00,-5.00
-53.00,-13.00,-7.00,+1.00,+16.00,+7.00,-6.00,-18.00,+55.00,-16.00,+1.00,+8.00,+18.00,+2.00,+6.00,+14.00
-7.00,+9.00,+1.00,-3.00,-35.00,-15.00,-7.00,-3.00,+29.00,+39.00,+10.00,-1.00,+23.00,-5.00,-5.00,-5.00
+16.00,-12.00,+0.00,+3.00,+10.00,+7.00,+5.00,-1.00,+0.00,+2.00,-6.00,+1.00,-51.00,-2.00,+3.00,+2.00
+4.00,-25.00,+0.00,-5.00,-33.00,-35.00,-10.00,-13.00,-71.00,-50.00,-25.00,-58.00,-21.00,-12.00,-7.00,-22.00
+0.00,+16.00,+1.00,-1.00,+9.00,+24.00,+13.00,+3.00,+11.00,+34.00,+7.00,+6.00,-19.00,-2.00,+1.00,+16.00
-7.00,+0.00,+2.00,+0.00,-12.00,-36.00,-15.00,-8.00,-4.00,+5.00,+3.00,+3.00,+30.00,+15.00,+10.00,+4.00
-20.00,+18.00,-14.00,-8.00,-25.00,+0.00,-5.00,-10.00,+63.00,+3.00,+5.00,+7.00,+33.00,-2.00,-5.00,-1.00
+7.00,+0.00,+17.00,+14.00,+47.00,-4.00,-5.00,+3.00,-6.00,+22.00,+4.00,+14.00,-23.00,-3.00,-2.00,-4.00
+15.00,-12.00,+4.00,+8.00,+4.00,+20.00,+11.00,+8.00,+16.00,-2.00,-1.00,+2.00,+38.00,-1.00,-2.00,+1.00
+3.00,-3.00,-14.00,-4.00,+16.00,+13.00,-7.00,-14.00,-1.00,-21.00,-5.00,-2.00,-4.00,-2.00,-3.00,+1.00
-31.00,-37.00,-2.00,-9.00,-12.00,-8.00,-1.00,+19.00,-14.00,+22.00,+6.00,+5.00,+48.00,+9.00,+6.00,+15.00
+23.00,+36.00,+7.00,+5.00,-7.00,-7.00,-6.00,+4.00,+23.00,-5.00,+1.00,+22.00,+33.00,+0.00,+3.00,+14.00
-16.00,-5.00,-10.00,-10.00,-25.00,-19.00,+3.00,+7.00,-15.00,-19.00,-7.00,-17.00,-19.00,-7.00,-4.00,-23.00
-16.00,+10.00,-7.00,-2.00,+21.00,+21.00,+6.00,+0.00,-2.00,+5.00,+3.00,+8.00,+50.00,+7.00,-1.00,+1.00
+39.00,-106.00,-6.00,+2.00,-31.00,-4.00,+0.00,+7.00,-38.00,-23.00,-8.00,-22.00,-69.00,-14.00,-6.00,-6.00
+8.00,+24.00,+3.00,-2.00,+24.00,+10.00,+2.00,+1.00,+26.00,+19.00,+7.00,+28.00,+32.00,+2.00,-2.00,-9.00
-17.00,-15.00,+1.00,-1.00,-43.00,-15.00,-6.00,-3.00,+5.00,+18.00,+1.00,-21.00,-25.00,+5.00,+4.00,-5.00
-9.00,+6.00,-2.00,+4.00,+52.00,+4.00,+4.00,-1.00,-48.00,-18.00,-3.00,-8.00,-6.00,-18.00,-1.00,+5.00
-3.00,+29.00,+7.00,+4.00,-22.00,-26.00,-7.00,-10.00,+4.00,+1.00,+2.00,-4.00,-6.00,+2.00,+1.00,+4.00
-7.00,-40.00,-7.00,-1.00,-23.00,+2.00,-2.00,+2.00,+29.00,+7.00,+6.00,+10.00,+3.00,+3.00,-5.00,+5.00
+15.00,+20.00,+2.00,-2.00,+20.00,-27.00,-8.00,-11.00,-21.00,-15.00,-6.00,+3.00,-11.00,-3.00,-6.00,-19.00
-3.00,-16.00,-11.00,-11.00,-42.00,-8.00,-2.00,+5.00,+50.00,+9.00,+1.00,-13.00,-12.00,+0.00,-2.00,-7.00
-6.00,+5.00,-11.00,-15.00,-3.00,+5.00,+5.00,-12.00,-43.00,-12.00,-4.00,+13.00,+32.00,+5.00,+1.00,+5.00
+10.00,+10.00,-1.00,+1.00,-5.00,-9.00,-6.00,-2.00,+5.00,+4.00,+0.00,-3.00,-27.00,-6.00,-4.00,-12.00
-22.00,-20.00,-6.00,-7.00,-67.00,-22.00,-14.00,-9.00,+10.00,-18.00,-4.00,+4.00,+3.00,+2.00,+0.00,+18.00
+2.00,-36.00,+13.00,+14.00,+93.00,+52.00,+12.00,+8.00,-59.00,-4.00,+0.00,+34.00,+29.00,+0.00,-3.00,-10.00
+5.00,+51.00,+14.00,+6.00,-21.00,-3.00,-4.00,-6.00,-3.00,+4.00,-1.00,-27.00,-29.00,-3.00,-1.00,-1.00
-16.00,+10.00,-1.00,-3.00,-37.00,-19.00,+10.00,+4.00,+15.00,+5.00,-5.00,-3.00,-8.00,+4.00,+3.00,-7.00
-6.00,-20.00,+1.00,+5.00,+56.00,+50.00,+3.00,-15.00,-16.00,-11.00,-6.00,-25.00,-40.00,-5.00,-1.00,-6.00
+16.00,-23.00,-18.00,-15.00,-8.00,-18.00,+15.00,+12.00,+19.00,+21.00,+2.00,-5.00,+6.00,-5.00,-7.00,+2.00
+17.00,+26.00,-6.00,-2.00,+81.00,+27.00,-13.00,-8.00,-13.00,+3.00,+5.00,+22.00,+11.00,+6.00,+2.00,+0.00
-32.00,-6.00,-10.00,-5.00,-20.00,-28.00,-9.00,+15.00,-19.00,-11.00,-4.00,+4.00,+18.00,+2.00,-2.00,+12.00
-8.00,-83.00,+3.00,+3.00,-4.00,-37.00,-32.00,-16.00,+3.00,-3.00,-3.00,-13.00,+30.00,-1.00,-1.00,-6.00
+26.00,+47.00,+25.00,+17.00,-17.00,+73.00,+48.00,+6.00,+23.00,-6.00,-4.00,-14.00,-38.00,-1.00,+10.00,+4.00
-3.00,+9.00,-11.00,-9.00,-24.00,-7.00,+0.00,-8.00,-16.00,+8.00,+3.00,+21.00,+13.00,-2.00,-5.00,-25.00
-1.00,-21.00,+0.00,-2.00,-11.00,+27.00,+6.00,-5.00,+5.00,-3.00,-3.00,-20.00,-53.00,-7.00,-14.00,-4.00
-4.00,+4.00,-11.00,-14.00,-42.00,-13.00,+0.00,-4.00,-2.00,+6.00,+0.00,+1.00,-4.00,-3.00,+0.00,-5.00
+4.00,+29.00,+2.00,+4.00,+12.00,-49.00,-23.00,+7.00,+15.00,+5.00,+3.00,+15.00,+19.00,+5.00,-1.00,+10.00
-9.00,-34.00,-3.00,-3.00,-37.00,-9.00,+3.00,+5.00,+7.00,-12.00,-1.00,-31.00,-27.00,-6.00,-5.00,-16.00
+9.00,+1.00,-3.00,-1.00,+25.00,+31.00,+0.00,-8.00,-8.00,+0.00,+1.00,+15.00,+21.00,-3.00,-1.00,+2.00
+9.00,+44.00,+4.00,-9.00,-68.00,-53.00,-7.00,+11.00,+19.00,-13.00,-6.00,-4.00,-3.00,+0.00,+1.00,+12.00
-15.00,-34.00,+4.00,+9.00,+42.00,+59.00,-10.00,-19.00,+3.00,+18.00,+0.00,-12.00,-25.00,-1.00,-4.00,-13.00
-6.00,+17.00,-4.00,-2.00,-32.00,-5.00,+2.00,+1.00,-13.00,-2.00,+1.00,+16.00,+13.00,+4.00,+3.00,+5.00
-23.00,+5.00,+0.00,-3.00,+60.00,+84.00,+12.00,+0.00,+31.00,+6.00,+1.00,+3.00,+8.00,-8.00,-1.00,+0.00
+37.00,+9.00,-6.00,+2.00,+32.00,-28.00,+14.00,+6.00,-4.00,+11.00,+3.00,-9.00,-23.00,-3.00,-1.00,-3.00
-8.00,+14.00,+1.00,-5.00,-50.00,-55.00,-19.00,-26.00,-4.00,-10.00,-2.00,-4.00,+6.00,-6.00,-6.00,-4.00
+9.00,+44.00,+12.00,+10.00,+28.00,+25.00,-2.00,-11.00,-10.00,-8.00,-2.00,+8.00,+4.00,+0.00,-2.00,-3.00
+13.00,-69.00,-8.00,-7.00,-47.00,-25.00,-2.00,+8.00,-30.00,-9.00,-3.00,+12.00,+35.00,+8.00,+3.00,-3.00
-4.00,+8.00,+9.00,+9.00,+53.00,+61.00,+13.00,+9.00,+30.00,+3.00,-4.00,-9.00,-61.00,-3.00,+0.00,+0.00
-4.00,-46.00,+0.00,-5.00,-18.00,-56.00,-14.00,+9.00,-17.00,-11.00,+3.00,+1.00,-20.00,+0.00,+1.00,+6.00
-11.00,+8.00,-2.00,+1.00,+10.00,+1.00,+2.00,-12.00,+0.00,+9.00,-7.00,-43.00,-52.00,-15.00,-6.00,-7.00
-2.00,+24.00,-2.00,-5.00,-30.00,-36.00,-7.00,-1.00,-20.00,-8.00,-4.00,-16.00,-26.00,+0.00,+5.00,+3.00
+42.00,+88.00,+8.00,+5.00,-2.00,+9.00,+2.00,-6.00,+11.00,+8.00,+2.00,+23.00,+27.00,+0.00,-3.00,-1.00
+27.00,+29.00,+0.00,-1.00,+16.00,+4.00,-1.00,-2.00,+9.00,-8.00,-5.00,+11.00,+8.00,+4.00,+0.00,+1.00
+21.00,-34.00,-4.00,-5.00,-31.00,+0.00,+0.00,+11.00,-6.00,-16.00,-3.00,+3.00,+15.00,+1.00,+1.00,+4.00
-2.00,-19.00,+4.00,+6.00,+49.00,+2.00,+2.00,-3.00,+15.00,+32.00,+9.00,-3.00,+2.00,-4.00,+2.00,+4.00
-16.00,-25.00,-12.00,-2.00,+13.00,+5.00,+0.00,-2.00,-9.00,-6.00,-3.00,-7.00,-8.00,-5.00,-3.00,+2.00
-19.00,+8.00,-6.00,-13.00,-37.00,+19.00,+1.00,+16.00,-6.00,-18.00,-9.00,-18.00,+28.00,+1.00,+0.00,-4.00
+20.00,+16.00,+4.00,+2.00,-15.00,-14.00,-2.00,+7.00,-2.00,+5.00,+5.00,+13.00,+16.00,+4.00,+3.00,+0.00
-4.00,+10.00,+4.00,+7.00,+20.00,-17.00,-4.00,-11.00,-12.00,-8.00,-6.00,-8.00,+21.00,-2.00,-6.00,-13.00
-7.00,-29.00,-1.00,+1.00,-4.00,+13.00,-1.00,+4.00,+27.00,-1.00,+2.00,+11.00,+26.00,+3.00,+0.00,+7.00
+5.00,+18.00,-6.00,-3.00,-14.00,-9.00,-5.00,-20.00,+58.00,+25.00,+0.00,-11.00,-21.00,-8.00,+2.00,+15.00
-10.00,-32.00,-6.00,-1.00,+17.00,+20.00,+6.00,+16.00,+11.00,-14.00,-4.00,+14.00,+7.00,+0.00,+0.00,+0.00
+17.00,+11.00,+1.00,+2.00,+24.00,+8.00,+0.00,+14.00,-20.00,-5.00,-4.00,-13.00,-10.00,+5.00,+4.00,+3.00
-25.00,-22.00,-8.00,-10.00,-55.00,-14.00,+0.00,+3.00,+29.00,+27.00,+3.00,+6.00,+11.00,+1.00,-1.00,-6.00
+44.00,+71.00,-1.00,+4.00,+69.00,+9.00,-6.00,+9.00,-13.00,-16.00,-6.00,+1.00,+15.00,-1.00,-2.00,-5.00
-34.00,-61.00,-1.00,+0.00,-28.00,-11.00,-4.00,-10.00,-5.00,-1.00,-1.00,-8.00,-5.00,+2.00,+1.00,+3.00
+25.00,+35.00,+7.00,-2.00,-4.00,+32.00,+11.00,+14.00,+23.00,+15.00,+2.00,+2.00,+1.00,+2.00,+3.00,+12.00
+3.00,+13.00,+4.00,+3.00,+34.00,-15.00,-2.00,+3.00,-30.00,-42.00,-6.00,+22.00,+68.00,+2.00,+2.00,+1.00
-37.00,-16.00,-6.00,-8.00,-35.00,-31.00,-9.00,-11.00,-47.00,-12.00,-11.00,-33.00,-34.00,-10.00,-9.00,-5.00
-5.00,+27.00,+3.00,+4.00,+17.00,+42.00,+4.00,-8.00,+47.00,+25.00,+7.00,+19.00,+19.00,+4.00,-5.00,-8.00
-11.00,-8.00,+2.00,+0.00,-19.00,-19.00,-6.00,-13.00,-12.00,-18.00,-8.00,-29.00,-24.00,-4.00,-1.00,-2.00
+17.00,-21.00,-21.00,-9.00,+16.00,+8.00,-2.00,-11.00,-21.00,-8.00,-6.00,+2.00,-8.00,+1.00,-6.00,-13.00
-12.00,-54.00,-8.00,-4.00,-15.00,-17.00,+0.00,+5.00,-7.00,-7.00,+4.00,+11.00,+10.00,-1.00,+2.00,+9.00
+20.00,+68.00,+4.00,-3.00,-23.00,-30.00,-2.00,-8.00,-20.00,+0.00,+3.00,+15.00,+17.00,+1.00,+1.00,-8.00
-23.00,+1.00,+2.00,+5.00,+29.00,-3.00,-7.00,-13.00,+52.00,+0.00,-3.00,+0.00,-9.00,-1.00,+3.00,+10.00
-6.00,-12.00,+9.00,+3.00,-7.00,+11.00,+0.00,-2.00,-80.00,-18.00,-1.00,-4.00,-13.00,-3.00,-6.00,-11.00
-6.00,-8.00,+0.00,+7.00,+48.00,+33.00,+9.00,-2.00,+44.00,+9.00,-4.00,+3.00,-18.00,-1.00,+1.00,-4.00
-9.00,-27.00,-4.00,+2.00,+28.00,-2.00,-4.00,-5.00,-40.00,-24.00,-6.00,-8.00,-3.00,-2.00,-2.00,-2.00
+7.00,-30.00,+4.00,+3.00,-44.00,-27.00,-10.00,-9.00,+16.00,+9.00,+6.00,+8.00,-6.00,-3.00,-4.00,-10.00
-26.00,-2.00,-1.00,-6.00,-38.00,-37.00,+13.00,+6.00,-48.00,+0.00,+8.00,-6.00,-16.00,+0.00,+1.00,-2.00
-2.00,-23.00,-5.00,+0.00,+31.00,+28.00,-12.00,+10.00,+8.00,+3.00,+6.00,+2.00,-14.00,+1.00,+4.00,+9.00
+0.00,+24.00,-1.00,-3.00,+1.00,-9.00,-7.00,-3.00,-22.00,-3.00,-8.00,+1.00,+54.00,+3.00,+3.00,+11.00
+26.00,+9.00,-2.00,-5.00,-17.00,+19.00,+5.00,+6.00,-70.00,-17.00,-6.00,+12.00,+12.00,+1.00,-7.00,-21.00
-25.00,+27.00,+5.00,+4.00,+46.00,-4.00,-7.00,-10.00,+92.00,+26.00,+4.00,-9.00,-7.00,+1.00,+3.00,+14.00
-4.00,-23.00,+8.00,+3.00,-40.00,-14.00,+10.00,+0.00,-14.00,+14.00,+5.00,-6.00,-63.00,-5.00,-5.00,-16.00
+2.00,-7.00,-2.00,-1.00,+16.00,+1.00,+2.00,+6.00,+40.00,+3.00,-3.00,-17.00,+12.00,+4.00,+1.00,+1.00
+1.00,+1.00,-10.00,-7.00,-15.00,-23.00,-7.00,-6.00,+12.00,+9.00,+4.00,-15.00,+43.00,+0.00,+6.00,+22.00
+1.00,-9.00,+3.00,+2.00,+10.00,+38.00,+5.00,+18.00,-34.00,-6.00,-5.00,-5.00,+20.00,-6.00,-2.00,+6.00
-5.00,+3.00,-5.00,-11.00,-42.00,-8.00,+1.00,-4.00,+33.00,+19.00,+2.00,+20.00,+26.00,+8.00,+5.00,+11.00
-5.00,+3.00,+5.00,+11.00,+31.00,-13.00,-3.00,+7.00,-52.00,-6.00,-5.00,+0.00,-17.00,-2.00,-4.00,-8.00
-12.00,-4.00,-2.00,-1.00,-20.00,+0.00,-4.00,-7.00,-28.00,-12.00,-6.00,+1.00,-9.00,+0.00,+1.00,-2.00
-4.00,+1.00,+5.00,+8.00,+6.00,+20.00,+1.00,+2.00,-40.00,+9.00,-4.00,+5.00,-12.00,-2.00,-6.00,-22.00
-10.00,+14.00,-2.00,+0.00,-12.00,-10.00,-1.00,+6.00,+36.00,-6.00,+3.00,-3.00,+28.00,-4.00,+0.00,+6.00
-24.00,-41.00,-19.00,-19.00,-13.00,-56.00,-12.00,-5.00,+3.00,+9.00,-3.00,+12.00,+3.00,-2.00,-1.00,+5.00
-16.00,-26.00,-15.00,-19.00,-35.00,-12.00,+14.00,-4.00,+12.00,-31.00,-6.00,-6.00,-20.00,-4.00,-1.00,+0.00
+10.00,-14.00,-5.00,+4.00,+16.00,+20.00,-17.00,-10.00,+73.00,+28.00,-3.00,-3.00,-13.00,-2.00,-2.00,+6.00
+49.00,+19.00,+13.00,+7.00,-40.00,-40.00,+2.00,+5.00,-84.00,-20.00,+3.00,+15.00,+7.00,+1.00,-1.00,-5.00
-43.00,-19.00,-8.00,+3.00,+100.00,+25.00,+9.00,+16.00,+2.00,+4.00,+3.00,-16.00,-6.00,+5.00,+5.00,+18.00
-9.00,+12.00,-4.00,-5.00,-20.00,-37.00,-13.00,-8.00,+55.00,+47.00,+13.00,+41.00,+4.00,-1.00,-1.00,+1.00
+5.00,+24.00,-1.00,-8.00,-3.00,-14.00,+1.00,-7.00,-2.00,-15.00,-3.00,-29.00,-16.00,-5.00,+0.00,+6.00
-2.00,-41.00,-4.00,-3.00,-26.00,-1.00,+2.00,+3.00,+85.00,+7.00,-2.00,-22.00,-25.00,-9.00,-4.00,+4.00
+0.00,+2.00,-2.00,-1.00,-34.00,-5.00,+0.00,-5.00,-85.00,-1.00,+0.00,+8.00,-3.00,-3.00,-2.00,-15.00
+37.00,+2.00,+4.00,+2.00,+7.00,+0.00,-3.00,-4.00,-71.00,-90.00,-14.00,-3.00,-8.00,+0.00,-1.00,+7.00
-13.00,-22.00,+1.00,+1.00,+3.00,+5.00,+4.00,+8.00,+30.00,+55.00,+9.00,+6.00,-29.00,+6.00,+2.00,+6.00
-18.00,-3.00,-1.00,+1.00,+15.00,+18.00,-4.00,-8.00,+26.00,+26.00,+8.00,+26.00,+66.00,+3.00,+0.00,+8.00
+6.00,+6.00,+6.00,+3.00,-17.00,-2.00,+2.00,-4.00,+3.00,+21.00,-2.00,-19.00,+46.00,+5.00,-2.00,-18.00
+6.00,+70.00,+6.00,+4.00,+23.00,+17.00,+1.00,-1.00,-14.00,-40.00,-20.00,-27.00,-34.00,+2.00,-10.00,-6.00
+18.00,-25.00,+1.00,-1.00,+12.00,+6.00,-2.00,-13.00,-9.00,+3.00,+1.00,-8.00,-1.00,-3.00,-3.00,+3.00
-15.00,-20.00,-12.00,-11.00,-26.00,-16.00,-3.00,+0.00,-36.00,-16.00,-14.00,-8.00,+2.00,-3.00,-10.00,-32.00
+4.00,+3.00,+6.00,-1.00,-26.00,-13.00,+6.00,+2.00,+18.00,+28.00,+11.00,+3.00,-21.00,+11.00,+12.00,+29.00
+22.00,+17.00,+9.00,+1.00,-51.00,+1.00,+4.00,+13.00,-24.00,-14.00,+1.00,+10.00,+6.00,-3.00,-4.00,-14.00
-9.00,-23.00,-17.00,-5.00,+61.00,-1.00,-17.00,-7.00,-18.00,-54.00,-10.00,+4.00,+12.00,-3.00,-1.00,-4.00
-2.00,+41.00,+10.00,+8.00,+56.00,+46.00,-6.00,-6.00,+11.00,+66.00,+12.00,-2.00,-25.00,+6.00,+4.00,+9.00
-2.00,-4.00,-10.00,-4.00,-37.00,-74.00,-7.00,-8.00,-15.00,-80.00,-5.00,+15.00,+2.00,-5.00,-2.00,+4.00
-50.00,-58.00,-11.00,-3.00,+29.00,+52.00,-6.00,-18.00,-27.00,+68.00,+6.00,-4.00,-50.00,-8.00,-6.00,-19.00
-17.00,+52.00,+4.00,-4.00,-48.00,-34.00,+4.00,-10.00,+85.00,+20.00,+10.00,-4.00,-24.00,+0.00,+4.00,+16.00
+12.00,-44.00,-1.00,+0.00,-4.00,+19.00,+1.00,+11.00,-93.00,-67.00,-11.00,-2.00,+8.00,-4.00,-4.00,-14.00
+17.00,+5.00,+4.00,+2.00,-9.00,+0.00,-4.00,-2.00,+69.00,+37.00,-5.00,-11.00,-20.00,-5.00,-9.00,-17.00
-6.00,+6.00,-7.00,-1.00,-1.00,-33.00,-3.00,+5.00,-20.00,+1.00,+5.00,-17.00,-7.00,-4.00,+1.00,+9.00
+8.00,-27.00,+1.00,+2.00,+9.00,+26.00,+7.00,+5.00,+25.00,-3.00,-20.00,-1.00,+2.00,-2.00,-6.00,-15.00
-27.00,-28.00,-7.00,-7.00,-37.00,-21.00,-7.00,-8.00,+50.00,+21.00,+30.00,+12.00,+12.00,+10.00,+12.00,+29.00
+6.00,-21.00,+5.00,+3.00,+39.00,+33.00,+6.00,-3.00,-47.00,-101.00,-15.00,+25.00,+8.00,+0.00,-3.00,-6.00
+3.00,+96.00,+4.00,+1.00,+6.00,-7.00,+5.00,+10.00,-22.00,+3.00,+0.00,-2.00,+19.00,-6.00,-1.00,+3.00
-26.00,-108.00,-1.00,+2.00,-20.00,+11.00,-1.00,+17.00,-128.00,-62.00,-15.00,-20.00,-36.00,+3.00,+5.00,-9.00
+6.00,+51.00,+8.00,+2.00,+8.00,-9.00,+9.00,+8.00,+47.00,+51.00,+3.00,+6.00,-17.00,-13.00,-12.00,-13.00
+35.00,-4.00,+8.00,+7.00,-59.00,+7.00,+9.00,+10.00,+47.00,-90.00,-14.00,-12.00,+11.00,-8.00,-5.00,-7.00
+0.00,-61.00,-6.00,+11.00,+88.00,+45.00,-11.00,-11.00,+62.00,+60.00,+12.00,-1.00,-5.00,+2.00,+3.00,-2.00
-20.00,+0.00,-9.00,-6.00,+32.00,+0.00,-3.00,-14.00,-16.00,-8.00,+9.00,+48.00,+49.00,+21.00,+20.00,+5.00
+16.00,+74.00,+16.00,+8.00,+1.00,-4.00,+19.00,+17.00,-10.00,-31.00,-10.00,+5.00,-14.00,-14.00,-6.00,+12.00
-34.00,+14.00,-13.00,-12.00,-39.00,+2.00,-23.00,-22.00,-69.00,-17.00,-4.00,-63.00,-84.00,-8.00,-5.00,+1.00
+31.00,-8.00,+23.00,+18.00,+22.00,-13.00,+4.00,+15.00,+101.00,+78.00,+0.00,+6.00,+56.00,-3.00,-8.00,+6.00
+34.00,-42.00,+2.00,-4.00,-16.00,+17.00,+2.00,+8.00,-3.00,+27.00,+9.00,-23.00,+37.00,+1.00,-3.00,-14.00
-23.00,-2.00,-16.00,-11.00,-13.00,-51.00,-42.00,-25.00,-48.00,-38.00,-8.00,-7.00,-45.00,-11.00,-7.00,-12.00
-20.00,+56.00,-13.00,-12.00,+33.00,+48.00,+76.00,-2.00,-5.00,+26.00,-6.00,+8.00,+32.00,-6.00,-6.00,-17.00
-5.00,-4.00,-4.00,-1.00,+5.00,-30.00,+3.00,-7.00,+67.00,+24.00,+4.00,+7.00,-8.00,-2.00,-1.00,+3.00
-12.00,-47.00,-7.00,-7.00,-17.00,-19.00,-2.00,-1.00,+46.00,-18.00,-6.00,+2.00,+6.00,-4.00,-3.00,+1.00
-5.00,-25.00,+3.00,+3.00,-2.00,+6.00,+16.00,+19.00,-4.00,+0.00,-9.00,-2.00,+23.00,+12.00,+5.00,-5.00
-44.00,-7.00,+12.00,+11.00,+26.00,-1.00,-28.00,-8.00,-28.00,-13.00,-7.00,+8.00,+2.00,-3.00,-3.00,-8.00
-22.00,-48.00,-10.00,-16.00,-34.00,-5.00,-2.00,-4.00,+3.00,+28.00,-8.00,-12.00,-17.00,+0.00,+2.00,-7.00
+7.00,+23.00,-5.00,+1.00,+1.00,-17.00,+4.00,-5.00,-75.00,+29.00,+7.00,+13.00,+3.00,-1.00,+0.00,+8.00
-7.00,+55.00,+7.00,-3.00,-19.00,+0.00,-17.00,-8.00,-16.00,-72.00,-8.00,-16.00,+4.00,+0.00,-3.00,-4.00
+27.00,+61.00,+2.00,-1.00,-42.00,-15.00,-15.00,+5.00,+54.00,+47.00,+8.00,+14.00,-12.00,-1.00,+1.00,+3.00
-23.00,+7.00,+5.00,+6.00,+66.00,+39.00,+5.00,+0.00,-94.00,-30.00,+2.00,-4.00,-7.00,+3.00,+2.00,-12.00
+20.00,+23.00,+1.00,+1.00,+13.00,+15.00,-7.00,-4.00,-43.00,-43.00,-2.00,+46.00,+60.00,+2.00,-13.00,-20.00
-2.00,-52.00,-10.00,-3.00,-25.00,-3.00,+4.00,+10.00,+30.00,+79.00,+2.00,-65.00,-51.00,-12.00,+0.00,+2.00
+12.00,+46.00,+4.00,+2.00,+56.00,+22.00,-7.00,+3.00,-70.00,-29.00,-12.00,+15.00,-6.00,-3.00,-4.00,-10.00
+3.00,-27.00,-3.00,+1.00,-13.00,+2.00,+8.00,+3.00,-22.00,-79.00,+7.00,-12.00,+17.00,-10.00,-6.00,-6.00
+59.00,+113.00,+27.00,+8.00,-20.00,-11.00,+5.00,+14.00,+127.00,+29.00,+5.00,-5.00,+30.00,+28.00,+24.00,+41.00
-6.00,-8.00,-16.00,-15.00,-56.00,-16.00,+10.00,-12.00,-93.00,-48.00,+4.00,-13.00,+27.00,-19.00,-9.00,-33.00
-3.00,-65.00,+0.00,+12.00,+49.00,+8.00,-22.00,-8.00,+70.00,+29.00,-1.00,+5.00,-34.00,-13.00,-21.00,-12.00
+11.00,-51.00,+3.00,-2.00,-13.00,-12.00,+3.00,+5.00,+107.00,-47.00,-16.00,-26.00,-30.00,-19.00,-3.00,+10.00
-45.00,-10.00,-36.00,-16.00,-3.00,-17.00,-44.00,-20.00,-75.00,+96.00,+19.00,+10.00,-7.00,-2.00,-10.00,-11.00
-1.00,-14.00,+1.00,+4.00,+21.00,+31.00,+16.00,+16.00,+74.00,-58.00,-5.00,+19.00,+21.00,+13.00,+9.00,+16.00
+24.00,+19.00,+13.00,-1.00,-22.00,-3.00,-3.00,+1.00,+28.00,+109.00,+11.00,-4.00,+6.00,-2.00,+1.00,+2.00
+1.00,+50.00,-10.00,-16.00,-94.00,-63.00,-15.00,-5.00,-19.00,-15.00,-2.00,+26.00,+13.00,+9.00,+10.00,+22.00
+4.00,+22.00,+17.00,+8.00,+18.00,+21.00,-1.00,+1.00,-79.00,-125.00,-25.00,-19.00,-27.00,-15.00,-7.00,-11.00
-12.00,-56.00,-13.00,+6.00,+87.00,+29.00,+18.00,-11.00,-9.00,+32.00,-2.00,+9.00,+6.00,+9.00,+9.00,+14.00
-11.00,-67.00,-4.00,-5.00,-52.00,+0.00,+24.00,+10.00,-52.00,+62.00,+24.00,+2.00,+1.00,-6.00,-8.00,-21.00
+9.00,-1.00,+1.00,+4.00,+21.00,+26.00,+2.00,-3.00,+7.00,-73.00,-6.00,+11.00,+7.00,+13.00,+6.00,+5.00
+7.00,+127.00,+10.00,+1.00,-11.00,-1.00,+82.00,+20.00,+78.00,+34.00,+14.00,+1.00,-15.00,-12.00,-10.00,-18.00
-9.00,-44.00,-6.00,-7.00,+13.00,+0.00,-45.00,-29.00,-117.00,-100.00,-36.00,-29.00,-35.00,-2.00,-8.00,-16.00
+39.00,-13.00,+15.00,+16.00,+8.00,+4.00,+0.00,+0.00,+24.00,+42.00,+19.00,+101.00,+125.00,+35.00,+6.00,-10.00
+11.00,+26.00,-12.00,-12.00,+0.00,-6.00,+9.00,-1.00,-23.00,-47.00,-20.00,-97.00,-107.00,-34.00,-4.00,+8.00
+0.00,+16.00,+4.00,-2.00,-31.00,-16.00,-27.00,+2.00,+70.00,-28.00,+3.00,+15.00,+75.00,+2.00,+15.00,+10.00
-13.00,-19.00,-5.00,+0.00,+0.00,+0.00,-6.00,-8.00,+6.00,+66.00,-1.00,-24.00,-44.00,-25.00,-32.00,-26.00
-38.00,-4.00,-23.00,-15.00,-1.00,-12.00,-1.00,+21.00,+24.00,-24.00,+6.00,+5.00,-31.00,+9.00,+11.00,+14.00
+7.00,+71.00,+21.00,+8.00,-10.00,+3.00,-9.00,-2.00,+42.00,+13.00,+7.00,+10.00,+62.00,+7.00,-11.00,-3.00
-5.00,-80.00,-14.00,-2.00,+2.00,+0.00,-13.00,-2.00,-60.00,-53.00,-9.00,-26.00,-57.00,-17.00,+4.00,-4.00
+29.00,+3.00,+20.00,+11.00,+3.00,+2.00,+10.00,+14.00,-17.00,+46.00,-7.00,-10.00,-12.00,-12.00,-32.00,-28.00
+19.00,-35.00,-6.00,-5.00,+10.00,+5.00,-7.00,-11.00,-8.00,+10.00,-6.00,-6.00,-2.00,+8.00,+39.00,-6.00
-22.00,+79.00,-13.00,-25.00,-119.00,-71.00,-13.00,-12.00,-29.00,+6.00,+30.00,+30.00,+5.00,+19.00,+13.00,+24.00
+2.00,+33.00,+22.00,+24.00,+105.00,+94.00,+9.00,+4.00,-16.00,-81.00,-28.00,-21.00,-33.00,-3.00,-7.00,-27.00
-26.00,+4.00,-11.00,-10.00,-65.00,-25.00,-6.00,-19.00,-11.00,-11.00,+11.00,+46.00,+55.00,+20.00,+17.00,+19.00
+5.00,-30.00,-4.00,+3.00,+35.00,-3.00,-6.00,-8.00,+32.00,-40.00,+0.00,-24.00,-32.00,-10.00,-10.00,+17.00
+44.00,-86.00,+14.00,+14.00,-56.00,+17.00,-11.00,+19.00,-79.00,+59.00,+4.00,+11.00,+8.00,+0.00,+0.00,-21.00
+30.00,+17.00,+13.00,+9.00,+68.00,+43.00,+37.00,+5.00,-98.00,-43.00,-20.00,-8.00,-9.00,-9.00,-4.00,+0.00
-75.00,-53.00,-19.00,-8.00,-60.00,-10.00,-8.00,-25.00,+116.00,-16.00,-8.00,+5.00,-5.00,+13.00,+7.00,+19.00
+48.00,+22.00,+30.00,+10.00,+75.00,+29.00,-50.00,+5.00,-25.00,-128.00,-20.00,-20.00,-3.00,-13.00,-11.00,+6.00
-8.00,+39.00,-16.00,-20.00,-20.00,-18.00,+23.00,-8.00,+13.00,+75.00,+10.00,+2.00,-10.00,+3.00,+8.00,-5.00
+26.00,-45.00,-1.00,-4.00,-42.00,-37.00,-14.00,-10.00,+70.00,+76.00,+16.00,+71.00,+41.00,+7.00,-12.00,+13.00
+50.00,+117.00,+47.00,+19.00,+25.00,+17.00,+0.00,+9.00,+38.00,-91.00,-37.00,-85.00,-68.00,+0.00,+12.00,+18.00
-16.00,-82.00,-21.00,-11.00,-52.00,-24.00,+7.00,+19.00,-50.00,+84.00,+19.00,-19.00,-103.00,-13.00,-2.00,-1.00
-20.00,+74.00,-8.00,-11.00,+37.00,+12.00,-13.00,-8.00,+3.00,-13.00,-1.00,+12.00,+103.00,-6.00,-8.00,-5.00
-44.00,-1.00,-20.00,-9.00,-47.00,-29.00,-16.00,+14.00,-33.00,+29.00,+8.00,-29.00,-128.00,-4.00,-2.00,-12.00
+12.00,-9.00,-15.00,-4.00,+22.00,+0.00,+6.00,-2.00,+34.00,-69.00,-4.00,+69.00,+127.00,+1.00,+7.00,+14.00
-22.00,+64.00,+19.00,+1.00,-22.00,-9.00,+13.00,-13.00,+71.00,+101.00,+2.00,-44.00,-12.00,-13.00,-7.00,-1.00
-18.00,-65.00,-36.00,-5.00,+5.00,-14.00,-28.00,-12.00,+1.00,-35.00,-4.00,-18.00,-46.00,+22.00,+8.00,+19.00
+5.00,-14.00,-22.00,-4.00,+1.00,+4.00,+6.00,-2.00,-38.00,-45.00,+2.00,+0.00,-4.00,-10.00,-18.00,-12.00
+0.00,+53.00,+24.00,-16.00,-122.00,-117.00,-24.00,-2.00,-94.00,+12.00,-6.00,+6.00,-7.00,+0.00,+5.00,-19.00
-8.00,+26.00,+0.00,+23.00,+101.00,+104.00,-9.00,+3.00,-17.00,+10.00,-8.00,+5.00,+31.00,+3.00,-4.00,+1.00
-31.00,-128.00,-20.00,-5.00,-45.00,-6.00,-25.00,-30.00,-65.00,+61.00,+17.00,+44.00,+16.00,+8.00,+9.00,+10.00
-10.00,+61.00,-14.00,+4.00,+10.00,+15.00,+46.00,+11.00,-31.00,-66.00,-18.00,-26.00,+6.00,+4.00,+4.00,+4.00
+28.00,+15.00,+1.00,-3.00,-35.00,-13.00,-3.00,+6.00,+58.00,+87.00,+6.00,+13.00,-15.00,+4.00,+6.00,+17.00
+16.00,+106.00,+3.00,-8.00,-12.00,-36.00,-16.00,+1.00,-125.00,-58.00,+1.00,+4.00,+17.00,-6.00,-10.00,-20.00
-42.00,-101.00,-16.00,+8.00,+67.00,+38.00,+58.00,-5.00,+32.00,-18.00,+13.00,+3.00,-19.00,+5.00,+2.00,+1.00
-36.00,-6.00,-12.00,-10.00,-11.00,-21.00,-15.00,-5.00,+53.00,+104.00,+6.00,+0.00,+9.00,-1.00,+5.00,+19.00
-6.00,+13.00,-20.00,-6.00,+11.00,+23.00,+2.00,-3.00,-86.00,+32.00,+18.00,+5.00,-5.00,-9.00,-18.00,-49.00
+11.00,+42.00,+5.00,-6.00,-48.00,-29.00,+18.00,+32.00,-15.00,-57.00,-28.00,-5.00,+12.00,+2.00,-7.00,-22.00
+52.00,+127.00,+27.00,+11.00,+19.00,+5.00,-15.00,-9.00,+3.00,+28.00,-16.00,+11.00,+52.00,-3.00,+0.00,+19.00
+27.00,-128.00,+12.00,+6.00,-31.00,-25.00,-8.00,-10.00,-68.00,+48.00,+34.00,-4.00,-41.00,+7.00,+5.00,+5.00
-30.00,-98.00,-26.00,-1.00,+44.00,+32.00,+18.00,+9.00,-69.00,-49.00,-6.00,-19.00,-33.00,-15.00,-12.00,-25.00
-30.00,-22.00,-34.00,-22.00,-46.00,-24.00,-16.00,-28.00,+90.00,+61.00,+7.00,-3.00,+13.00,+7.00,+3.00,+6.00
-10.00,+84.00,+36.00,-5.00,+13.00,-2.00,-4.00,-2.00,-6.00,-38.00,-31.00,-15.00,-35.00,-7.00,+2.00,+10.00
-23.00,-49.00,+5.00,-1.00,-22.00,-15.00,-3.00,-5.00,+97.00,+115.00,+3.00,+18.00,+21.00,-5.00,-6.00,-5.00
-15.00,-90.00,-16.00,+1.00,+26.00,+6.00,-38.00,-18.00,-5.00,-66.00,-9.00,-18.00,-18.00,+5.00,+2.00,+5.00
-3.00,-23.00,+14.00,+13.00,+7.00,+3.00,+17.00,-14.00,-42.00,+25.00,+26.00,+23.00,+56.00,+10.00,+5.00,-7.00
-21.00,-36.00,+4.00,-6.00,-95.00,-44.00,-29.00,-12.00,+43.00,+33.00,-9.00,-8.00,-1.00,-8.00,-17.00,-32.00
+0.00,+4.00,+0.00,-6.00,+51.00,+3.00,-1.00,+11.00,+101.00,+73.00,+7.00,+10.00,+20.00,+7.00,+13.00,+45.00
+22.00,+77.00,+11.00,+7.00,+48.00,+54.00,-6.00,+4.00,-108.00,-98.00,-17.00,-12.00,-27.00,+4.00,+14.00,+14.00
-34.00,-22.00,-36.00,-18.00,-1.00,-17.00,+22.00,-16.00,+118.00,+94.00,+21.00,+5.00,-10.00,+1.00,-11.00,+17.00
+14.00,-103.00,+12.00,+19.00,+44.00,+29.00,+16.00,+12.00,-19.00,-35.00,-6.00,+2.00,-17.00,-23.00,-16.00,-34.00
-11.00,+19.00,+9.00,+4.00,-81.00,-14.00,-36.00,+5.00,+3.00,+9.00,+16.00,-10.00,+5.00,-5.00,+3.00,+3.00
-25.00,-20.00,-18.00,-7.00,+21.00,+7.00,+34.00,+10.00,+127.00,+127.00,+33.00,+21.00,+14.00,+7.00,+7.00,+15.00
-2.00,-68.00,+4.00,+3.00,+22.00,+25.00,-23.00,-17.00,+6.00,-29.00,+11.00,+5.00,-20.00,+3.00,+7.00,+14.00
+15.00,-21.00,-9.00,-12.00,-29.00,-21.00,-25.00,+11.00,-128.00,-65.00,-9.00,+24.00,+20.00,+7.00,-4.00,-19.00
+15.00,+49.00,+31.00,+8.00,+1.00,+3.00,+4.00,-3.00,-123.00,-128.00,-37.00,-33.00,-82.00,-17.00,-22.00,-30.00
-29.00,-87.00,-29.00,-12.00,-31.00,-18.00,+0.00,+2.00,-52.00,+63.00,+23.00,+14.00,+48.00,-2.00,+5.00,+10.00
-24.00,-49.00,-31.00,-7.00,-43.00,-22.00,+5.00,-9.00,-54.00,-30.00,-4.00,-17.00,-41.00,-5.00,+8.00,+20.00
-18.00,+12.00,+11.00,+12.00,+39.00,+15.00,+1.00,+23.00,-43.00,+8.00,-18.00,-43.00,-75.00,-18.00,-5.00,-12.00
-31.00,-79.00,-25.00,-15.00,-34.00,-25.00,-9.00,-8.00,+2.00,-59.00,-16.00,+0.00,+44.00,+10.00,-8.00,-5.00
+28.00,+108.00,+9.00,-1.00,+17.00,+6.00,+3.00,-6.00,+55.00,+38.00,-8.00,-10.00,+9.00,+1.00,-13.00,-39.00
+1.00,-58.00,-3.00,+0.00,-15.00,-10.00,-3.00,-18.00,+49.00,-69.00,-25.00,+27.00,-36.00,+12.00,+12.00,+52.00
+2.00,-73.00,-36.00,-10.00,+9.00,+10.00,+3.00,+10.00,+16.00,+127.00,+41.00,-21.00,-16.00,+1.00,-4.00,-6.00
-4.00,+52.00,+14.00,+8.00,-8.00,+2.00,-1.00,-2.00,+1.00,-20.00,+7.00,+5.00,+12.00,+8.00,+10.00,+22.00
+22.00,+57.00,+12.00,+2.00,+0.00,-4.00,+12.00,+0.00,-109.00,+62.00,+10.00,+19.00,+15.00,-1.00,-14.00,-40.00
-12.00,-13.00,+12.00,+2.00,+2.00,-11.00,-4.00,-6.00,+35.00,+67.00,+5.00,+14.00,+22.00,+5.00,+11.00,+13.00
+37.00,+62.00,+24.00,+8.00,-40.00,-16.00,-8.00,+3.00,+10.00,-110.00,-29.00,+3.00,+6.00,+2.00,+4.00,+26.00
-13.00,+62.00,-4.00,+8.00,+82.00,+70.00,+9.00,-9.00,+15.00,+126.00,+33.00,+2.00,+8.00,-1.00,-3.00,-18.00
+3.00,-23.00,+20.00,+6.00,+1.00,-6.00,-7.00,+19.00,-22.00,-64.00,-14.00,+3.00,-7.00,-1.00,-2.00,+3.00
-14.00,-32.00,+10.00,-1.00,+8.00,+35.00,+11.00,+3.00,-50.00,-29.00,-7.00,+1.00,+9.00,-3.00,+4.00,+12.00
-19.00,-24.00,-15.00,+4.00,+3.00,-1.00,+8.00,-8.00,-45.00,-100.00,-26.00,-16.00,+7.00,-4.00,-4.00,-11.00
-17.00,-116.00,+0.00,-3.00,-17.00,-34.00,-12.00,-14.00,+63.00,+52.00,+31.00,+23.00,+48.00,+9.00,+6.00,-30.00
+83.00,+67.00,+54.00,+34.00,+42.00,+35.00,+17.00,-4.00,-87.00,-123.00,-17.00,-3.00,-21.00,+3.00,+0.00,+7.00
-56.00,-22.00,-35.00,-25.00,-51.00,-23.00,-8.00,+2.00,+77.00,-128.00,-23.00,-11.00,+26.00,+0.00,-4.00,-7.00
-33.00,+54.00,+8.00,+1.00,+3.00,-2.00,+9.00,+24.00,+112.00,+103.00,-1.00,+61.00,-29.00,-7.00,-10.00,+20.00
-14.00,+2.00,-4.00,-2.00,+8.00,+1.00,+8.00,-5.00,-5.00,-62.00,-22.00,-55.00,+43.00,+21.00,+29.00,+9.00
+22.00,-79.00,-7.00,+10.00,-22.00,-37.00,-44.00,+6.00,+37.00,-6.00,+20.00,+0.00,+31.00,-13.00,-1.00,+35.00
-12.00,+16.00,+6.00,-8.00,-46.00,-13.00,+29.00,-7.00,-89.00,-89.00,-17.00,-88.00,-98.00,-45.00,-25.00,-38.00
+26.00,-13.00,+11.00,+13.00,+72.00,+45.00,+18.00,+2.00,+19.00,-64.00,-14.00,+4.00,-3.00,+0.00,+4.00,-16.00
+71.00,-24.00,+11.00,+8.00,-14.00,-7.00,+14.00,+12.00,-113.00,+0.00,-1.00,-20.00,-37.00,-15.00,-19.00,-41.00
+34.00,+63.00,+36.00,+8.00,+0.00,+15.00,-1.00,+18.00,+127.00,+117.00,+17.00,+39.00,+15.00,-4.00,+1.00,+64.00
+23.00,-77.00,-8.00,-1.00,-11.00,-24.00,+30.00,+4.00,-85.00,-24.00,-2.00,+12.00,+52.00,+46.00,+6.00,-13.00
-61.00,-62.00,-42.00,-19.00,-2.00,-11.00,-39.00,-29.00,-90.00,-13.00,+15.00,+11.00,+26.00,+19.00,+28.00,-7.00
-16.00,+43.00,-15.00,-16.00,-24.00,-7.00,-9.00,+7.00,-46.00,-96.00,-7.00,+38.00,+26.00,+6.00,+6.00,+17.00
-32.00,+108.00,+2.00,-4.00,-7.00,-3.00,+0.00,-16.00,+82.00,+16.00,-8.00,-18.00,-21.00,+4.00,+6.00,+1.00
+45.00,+30.00,+26.00,+42.00,+110.00,+74.00,-44.00,+6.00,+20.00,+47.00,+3.00,+6.00,-17.00,-28.00,-14.00,+3.00
-18.00,+62.00,+18.00,-13.00,-24.00,+25.00,+50.00,-4.00,-5.00,-24.00,+37.00,+7.00,+6.00,+12.00,+12.00,+22.00
-25.00,-7.00,-23.00,-24.00,-32.00,-45.00,-20.00,-19.00,+12.00,-24.00,-20.00,+8.00,+11.00,+7.00,+6.00,+28.00
-25.00,+17.00,+14.00,-7.00,-110.00,-31.00,+1.00,-6.00,-128.00,-91.00,-3.00,-5.00,-17.00,-14.00,-19.00,-77.00
+68.00,+119.00,+27.00,+28.00,+88.00,+42.00,+1.00,-20.00,+120.00,+24.00,-25.00,+34.00,+56.00,+14.00,+13.00,+48.00
+58.00,-66.00,-12.00,-4.00,-15.00,-22.00,-4.00,+11.00,+14.00,-5.00,+22.00,-56.00,-64.00,-5.00,-1.00,-10.00
-59.00,-27.00,-27.00,-15.00,-16.00,-10.00,-20.00,-33.00,+42.00,+47.00,-26.00,+33.00,+67.00,-15.00,-8.00,+11.00
-35.00,-95.00,+4.00,+1.00,+9.00,+13.00,+15.00,+10.00,+23.00,-45.00,+6.00,-46.00,-72.00,+7.00,+10.00,+29.00
-4.00,-49.00,-10.00,-19.00,-49.00,-32.00,-11.00,-9.00,-128.00,-79.00,-10.00,-23.00,+28.00,-13.00,-9.00,-44.00
-13.00,+20.00,-28.00,-4.00,+14.00,+5.00,-11.00,-10.00,+85.00,-102.00,-38.00,+11.00,+41.00,+21.00,+13.00,+23.00
+13.00,+47.00,+19.00,+9.00,-3.00,+2.00,+14.00,+19.00,+28.00,+22.00,+31.00,+35.00,-30.00,+4.00,+21.00,-9.00
+15.00,-51.00,-35.00,-11.00,+17.00,-1.00,-3.00,-23.00,-77.00,-10.00,-17.00,-69.00,-41.00,-36.00,-26.00,+20.00
-49.00,-15.00,-12.00,-21.00,-42.00,-15.00,+8.00,-1.00,-128.00,-46.00,-20.00,-14.00,-21.00,-28.00,-55.00,-38.00
+101.00,+81.00,+81.00,+44.00,+18.00,+5.00,-9.00,+40.00,-49.00,-14.00,+9.00,-5.00,+3.00,-16.00,-7.00,-10.00
-6.00,+52.00,-11.00,-9.00,-28.00,-15.00,-24.00,-11.00,-5.00,-11.00,-87.00,-35.00,-23.00,-7.00,-14.00,-55.00
+22.00,-62.00,-41.00,-8.00,+18.00,-16.00,-31.00,+13.00,-27.00,-52.00,-15.00,+43.00,+43.00,+20.00,+21.00,+22.00
+36.00,+11.00,+46.00,+8.00,-122.00,-70.00,-4.00,+26.00,+78.00,+113.00,+46.00,+4.00,-12.00,+2.00,+23.00,+17.00
-6.00,+32.00,+0.00,-1.00,+70.00,+54.00,+18.00,-13.00,-71.00,-44.00,-30.00,-5.00,+5.00,-16.00,-44.00,-23.00
+41.00,+49.00,+35.00,+19.00,-52.00,+7.00,+40.00,+0.00,-108.00,+21.00,+73.00,+23.00,-20.00,-3.00,-10.00,-32.00
-10.00,-22.00,+3.00,+30.00,+118.00,+110.00,-12.00,-8.00,+92.00,-4.00,-64.00,-18.00,+9.00,+5.00,+2.00,+12.00
+12.00,+76.00,-19.00,-24.00,-72.00,-8.00,-26.00,-18.00,+5.00,-12.00,+17.00,+13.00,+4.00,-4.00,+11.00,+9.00
+1.00,-78.00,-3.00,+11.00,+2.00,+11.00,+30.00,+9.00,-73.00,+99.00,+3.00,+11.00,+19.00,+21.00,-11.00,-36.00
-31.00,+30.00,+47.00,+20.00,-26.00,-2.00,+4.00,+18.00,+72.00,+65.00,+14.00,-1.00,-28.00,-19.00,+32.00,+36.00
-63.00,-18.00,-62.00,-52.00,-54.00,-73.00,-49.00,-51.00,-38.00,+3.00,+16.00,-25.00,+1.00,-11.00,-12.00,-24.00
+48.00,-67.00,+29.00,+7.00,-3.00,-18.00,-2.00,+22.00,+88.00,-33.00,-7.00,+32.00,+31.00,+16.00,+14.00,+31.00
-78.00,-64.00,-40.00,-22.00,-61.00,-55.00,-25.00,-39.00,+98.00,+91.00,+35.00,+25.00,+13.00,+27.00,+32.00,+44.00
+13.00,+59.00,+10.00,-2.00,+34.00,+14.00,-17.00,-1.00,-82.00,-64.00,-21.00,-44.00,-109.00,-30.00,-41.00,-6.00
-34.00,-8.00,-30.00,-26.00,-48.00,-26.00,+15.00,-3.00,+39.00,-31.00,-4.00,+8.00,+11.00,+9.00,+20.00,+17.00
+62.00,+103.00,+27.00,+22.00,+49.00,+27.00,+6.00,+38.00,-24.00,-48.00,-25.00,-21.00,-21.00,+6.00,+6.00,+4.00
-2.00,-89.00,+0.00,-23.00,-24.00,-15.00,-8.00,+4.00,+40.00,+42.00,-6.00,+9.00,+22.00,-10.00,-18.00,-44.00
-28.00,+23.00,-55.00,-15.00,-10.00,-11.00,+3.00,-19.00,+112.00,-41.00,+7.00,+18.00,+45.00,+13.00,+14.00,+43.00
-43.00,-20.00,+32.00,-7.00,-73.00,-45.00,-7.00,-9.00,+89.00,+8.00,+39.00,+60.00,+32.00,+4.00,-16.00,+11.00
-37.00,-36.00,-20.00,+14.00,+67.00,+36.00,+24.00,+4.00,-77.00,+81.00,-2.00,-62.00,-83.00,-29.00,-13.00,-18.00
+22.00,-8.00,+36.00,+20.00,-41.00,-4.00,+0.00,+33.00,-34.00,-87.00,-32.00,-19.00,+28.00,+12.00,+11.00,+18.00
-23.00,-30.00,-26.00,-2.00,+25.00,+3.00,-18.00,-16.00,-89.00,-16.00,+16.00,-24.00,-6.00,-3.00,-15.00,-27.00
+2.00,+93.00,-15.00,-13.00,+45.00,+26.00,-3.00,-21.00,+57.00,+78.00,+29.00,+25.00,+23.00,+20.00,+28.00,-9.00
+10.00,-109.00,+34.00,+20.00,-15.00,+39.00,+23.00,+28.00,-115.00,+12.00,+12.00,+32.00,+48.00,+21.00,+7.00,+13.00
+30.00,+127.00,+30.00,+12.00,-89.00,-69.00,+4.00,-13.00,+61.00,+13.00,+25.00,+10.00,-7.00,-12.00,+5.00,+51.00
-31.00,-74.00,-26.00,-2.00,+84.00,+75.00,-80.00,-37.00,+45.00,+70.00,-23.00,-3.00,+27.00,+3.00,-6.00,+9.00
-2.00,+89.00,-15.00,+1.00,-30.00,-18.00,+65.00,+28.00,-1.00,-99.00,-5.00,+24.00,-2.00,+4.00,-7.00,-16.00
-122.00,-62.00,-30.00,+7.00,-1.00,+8.00,-17.00,-27.00,-35.00,+4.00,-5.00,-38.00,-34.00,-20.00,-19.00,-40.00
+54.00,+73.00,+48.00,+10.00,+15.00,+18.00,+31.00,+25.00,+109.00,+121.00,+36.00,+1.00,-8.00,-5.00,+7.00,-12.00
+18.00,-128.00,-11.00,-11.00,-70.00,-61.00,-12.00,+26.00,-55.00,-101.00,-63.00,-26.00,+3.00,-3.00,-10.00,+19.00
-4.00,-19.00,+24.00,+8.00,+23.00,+41.00,-3.00,-2.00,+16.00,+60.00,+7.00,+31.00,+39.00,+14.00,+2.00,-20.00
-5.00,+50.00,-22.00,-6.00,+5.00,-25.00,+2.00,-19.00,+11.00,+25.00,+29.00,+25.00,-56.00,+23.00,+21.00,+22.00
+41.00,+36.00,-23.00,+16.00,-2.00,-2.00,+10.00,-7.00,+5.00,+88.00,+34.00,-32.00,+51.00,-26.00,+1.00,+3.00
+1.00,+7.00,+34.00,-7.00,-4.00,-19.00,-2.00,+4.00,+71.00,-46.00,-9.00,+39.00,+77.00,+25.00,-10.00,+21.00
-27.00,-75.00,+16.00,+13.00,+13.00,+30.00,+8.00,-6.00,-90.00,-1.00,+4.00,-64.00,-102.00,-20.00,-9.00,-20.00
-23.00,+4.00,-47.00,-38.00,-21.00,-60.00,-43.00,-23.00,+109.00,+48.00,-3.00,+7.00,+9.00,-5.00,-7.00,-5.00
-7.00,-17.00,-13.00,-10.00,-54.00,+2.00,+2.00,-6.00,-110.00,-9.00,+15.00,+16.00,+0.00,+8.00,-1.00,-44.00
+36.00,+16.00,-16.00,+0.00,+90.00,+85.00,+31.00,+5.00,+33.00,-64.00,-43.00,-21.00,-19.00,-11.00,+9.00,-4.00
-6.00,-128.00,-19.00,+16.00,-41.00,+0.00,+60.00,+22.00,-46.00,-24.00,+18.00,+36.00,+57.00,+14.00,+4.00,+31.00
+69.00,+105.00,+40.00,-4.00,-30.00,-15.00,+1.00,+26.00,+11.00,-32.00,+6.00,+21.00,+19.00,+16.00,+5.00,-37.00
-81.00,+27.00,-59.00,-44.00,+1.00,+0.00,-34.00,-19.00,-105.00,-128.00,-55.00,-26.00,-54.00,-17.00,-13.00,+5.00
+16.00,+45.00,+25.00,+14.00,+18.00,+25.00,+17.00,-17.00,-112.00,+2.00,+3.00,-10.00,+11.00,-14.00,-21.00,-36.00
+79.00,+105.00,+25.00,+17.00,+76.00,+38.00,+17.00,+31.00,+30.00,+39.00,-8.00,+1.00,-21.00,+8.00,+10.00,+11.00
-29.00,-12.00,+2.00,-3.00,-25.00,-30.00,-11.00,-11.00,-80.00,+25.00,+41.00,+80.00,+61.00,+9.00,+1.00,-25.00
-21.00,-125.00,-24.00,-9.00,+14.00,-19.00,-47.00,+2.00,-99.00,-72.00,-31.00,-69.00,+31.00,-20.00,-8.00,-4.00
-9.00,-28.00,-64.00,-37.00,-117.00,-54.00,+81.00,+8.00,-55.00,+42.00,+50.00,+31.00,-47.00,+9.00,+10.00,-1.00
-57.00,-91.00,-34.00,-7.00,+55.00,-7.00,-60.00,-44.00,-51.00,-53.00,-20.00,-31.00,-5.00,-22.00,-11.00,+15.00
-18.00,-66.00,+13.00,+17.00,+5.00,+35.00,+21.00,+21.00,-80.00,+27.00,+38.00,-5.00,+8.00,+12.00,+3.00,-15.00
-1.00,+66.00,+18.00,+22.00,+48.00,+45.00,-4.00,-2.00,+8.00,-18.00,-22.00,-11.00,-3.00,+4.00,+10.00,+9.00
-7.00,+12.00,-16.00,-17.00,-23.00,-35.00,-37.00,-31.00,-51.00,+2.00,+24.00,+1.00,+46.00,-1.00,-16.00,+24.00
+43.00,-18.00,-7.00,-9.00,-38.00,-2.00,+12.00,+16.00,+80.00,-10.00,-3.00,-10.00,-17.00,-3.00,-4.00,-22.00
+48.00,-102.00,-7.00,+1.00,-11.00,-9.00,+7.00,+16.00,-52.00,-35.00,-32.00,+11.00,+31.00,+2.00,-11.00,-36.00
-38.00,+27.00,-10.00,-15.00,-33.00,-26.00,-14.00,-11.00,+12.00,+17.00,-4.00,+29.00,-10.00,+10.00,-2.00,+6.00
+5.00,-128.00,-5.00,+7.00,-33.00,-29.00,+14.00,+13.00,-113.00,-57.00,-3.00,-11.00,-2.00,-21.00,-1.00,-35.00
-92.00,+54.00,+10.00,+5.00,+60.00,+18.00,-35.00,-36.00,-46.00,-56.00,-4.00,+43.00,+21.00,-10.00,+5.00,-2.00
+120.00,+59.00,+107.00,+74.00,+63.00,+56.00,+52.00,+63.00,-40.00,-30.00,-30.00,-74.00,-83.00,-29.00,-16.00,-34.00
-52.00,-69.00,-39.00,-32.00,-15.00,-8.00,-2.00,-16.00,+38.00,+101.00,+17.00,+10.00,-37.00,+2.00,-26.00,+14.00
+32.00,-21.00,+36.00,+5.00,-13.00,-14.00,-6.00,+29.00,+52.00,+30.00,+16.00,-2.00,+24.00,+15.00,+37.00,+28.00
+3.00,+87.00,+12.00,-7.00,-121.00,-42.00,+3.00,+31.00,-33.00,+8.00,+9.00,+20.00,+17.00,+1.00,+1.00,+12.00
-29.00,+30.00,-64.00,-34.00,+67.00,+4.00,-36.00,+3.00,+102.00,-23.00,-23.00,+7.00,+60.00,+9.00,+16.00,+24.00
+81.00,-75.00,+30.00,+25.00,+11.00,+10.00,+17.00,+37.00,+8.00,+45.00,+5.00,-38.00,-88.00,-36.00,-28.00,-18.00
-36.00,+38.00,+34.00,+22.00,+23.00,+57.00,+12.00,+9.00,+21.00,-41.00,+4.00,+6.00,-49.00,+6.00,+1.00,+8.00
+15.00,-9.00,+1.00,+7.00,+22.00,+5.00,-9.00,-8.00,-32.00,-25.00,+4.00,-13.00,+39.00,+9.00,+3.00,-4.00
-40.00,-75.00,-25.00,-19.00,-52.00,-13.00,-13.00,-36.00,-24.00,+88.00,-9.00,-4.00,+1.00,-9.00,-7.00,+18.00
-76.00,-110.00,-44.00,-22.00,-9.00,+12.00,+5.00,-23.00,+40.00,-54.00,+1.00,+49.00,+45.00,+16.00,+17.00,+17.00
+14.00,+105.00,-5.00,+0.00,-26.00,-18.00,-12.00,+21.00,+84.00,+11.00,+30.00,+5.00,+5.00,+15.00,+7.00,+28.00
+75.00,+15.00,+24.00,+18.00,-1.00,-15.00,+4.00,+4.00,-31.00,+103.00,-3.00,+0.00,+15.00,+7.00,+1.00,-9.00
-59.00,+80.00,-53.00,-46.00,-14.00,-12.00,-25.00,-62.00,+54.00,-30.00,+7.00,-33.00,-19.00,-40.00,-21.00,+11.00
-67.00,-103.00,+2.00,-3.00,+14.00,-10.00,-21.00,-32.00,-66.00,-10.00,+55.00,-6.00,-30.00,+0.00,+25.00,+6.00
-6.00,+62.00,+14.00,+15.00,-35.00,-30.00,+14.00,+7.00,-75.00,-30.00,-28.00,-17.00,-17.00,-5.00,-5.00,-26.00
-54.00,-79.00,+25.00,+0.00,-24.00,-38.00,-10.00,-12.00,-57.00,+99.00,+27.00,-10.00,-15.00,+3.00,+1.00,-22.00
-24.00,+101.00,-27.00,-32.00,+37.00,+59.00,-2.00,-41.00,+60.00,-21.00,+14.00,+50.00,+66.00,+30.00,+19.00,+53.00
+77.00,+19.00,-12.00,-3.00,-45.00,-16.00,+12.00,+25.00,-68.00,+8.00,+8.00,+25.00,-15.00,-19.00,-21.00,-41.00
+9.00,-42.00,-10.00,-1.00,+60.00,+10.00,-26.00,+2.00,-48.00,-52.00,-13.00,-37.00,-69.00,-14.00,+22.00,-28.00
+30.00,+56.00,-24.00,-16.00,-47.00,-2.00,+13.00,-10.00,+32.00,-44.00,-20.00,+30.00,+46.00,+2.00,-2.00,+42.00
+64.00,+27.00,+42.00,+38.00,+57.00,-2.00,-23.00,+29.00,-6.00,+38.00,-7.00,-2.00,+80.00,+36.00,+43.00,+13.00
+11.00,+39.00,+30.00,+5.00,-2.00,+25.00,+29.00,+12.00,-22.00,-10.00,-24.00,-29.00,+13.00,-58.00,-34.00,-13.00
+7.00,+19.00,-25.00,-7.00,+27.00,+27.00,+14.00,-7.00,+72.00,+2.00,+2.00,-39.00,-80.00,+37.00,+7.00,+15.00
+81.00,-7.00,+21.00,+5.00,-41.00,-19.00,+13.00,+44.00,+67.00,+40.00,-11.00,-29.00,-26.00,-10.00,-19.00,+3.00
+6.00,+10.00,-11.00,-14.00,-51.00,-43.00,-47.00,-14.00,-98.00,+29.00,+16.00,-8.00,-64.00,-3.00,+14.00,-19.00
-14.00,+87.00,-12.00,-5.00,+15.00,-8.00,+30.00,-9.00,-25.00,+6.00,-28.00,+38.00,+48.00,+25.00,+9.00,-6.00
-5.00,+56.00,+10.00,-10.00,-81.00,-85.00,-85.00,-19.00,+75.00,+77.00,+16.00,+7.00,+80.00,+11.00,+4.00,-4.00
-76.00,-59.00,-23.00,+1.00,+108.00,+75.00,+19.00,-17.00,+75.00,+44.00,-3.00,-15.00,+6.00,-15.00,+3.00,-12.00
-69.00,-128.00,-21.00,+10.00,-40.00,-19.00,+20.00,+16.00,-64.00,+12.00,+6.00,-2.00,-16.00,-4.00,-34.00,-23.00
-5.00,+36.00,+7.00,-4.00,-26.00,+26.00,-3.00,+13.00,-36.00,-123.00,-47.00,-4.00,+6.00,+7.00,-8.00,-45.00
+13.00,+8.00,-18.00,-15.00,+2.00,-49.00,-16.00,+12.00,+74.00,+105.00,+21.00,+26.00,+0.00,-17.00,+0.00,+54.00
+36.00,+113.00,+50.00,+8.00,-25.00,-31.00,+12.00,+35.00,-28.00,+28.00,+4.00,+8.00,-15.00,+18.00,+2.00,-33.00
-62.00,-19.00,-18.00,+11.00,+79.00,+63.00,-1.00,-25.00,+74.00,-128.00,-50.00,-18.00,-30.00,-21.00,-9.00,+48.00
+78.00,-72.00,+39.00,+34.00,+57.00,+29.00,-8.00,+15.00,+28.00,-9.00,+14.00,-4.00,-8.00,+5.00,+7.00,+11.00
-44.00,-10.00,+0.00,+0.00,+7.00,+20.00,-3.00,-20.00,-127.00,-94.00,-27.00,+15.00,+16.00,-9.00,-28.00,-48.00
-20.00,-102.00,-42.00,-14.00,-20.00,-11.00,-18.00,-11.00,+42.00,-48.00,-10.00,-9.00,+6.00,-1.00,+4.00,+5.00
-37.00,+79.00,+5.00,-25.00,-96.00,-47.00,+18.00,-11.00,-4.00,+5.00,+5.00,+17.00,+31.00,+16.00,-9.00,-31.00
+60.00,+28.00,+44.00,+20.00,-5.00,-47.00,-2.00,+25.00,+62.00,-9.00,+1.00,+4.00,-26.00,+9.00,+34.00,+29.00
+27.00,-128.00,+12.00,+18.00,+22.00,-52.00,-20.00,+12.00,+33.00,-6.00,-1.00,+0.00,+25.00,-17.00,-21.00,+3.00
-19.00,-30.00,-12.00,-4.00,+10.00,+60.00,+49.00,-3.00,-69.00,-66.00,-38.00,-103.00,-126.00,-33.00,-63.00,+9.00
-18.00,-14.00,-44.00,-8.00,+63.00,+38.00,+12.00,-4.00,-56.00,-25.00,-21.00,-32.00,+8.00,-74.00,-3.00,-27.00
-15.00,-26.00,+4.00,-19.00,-12.00,+1.00,-18.00,-44.00,+0.00,+97.00,+31.00,+21.00,+30.00,+46.00,+36.00,+26.00
+2.00,-95.00,-10.00,+1.00,+14.00,+4.00,-29.00,-9.00,-42.00,-13.00,-8.00,+27.00,+33.00,-12.00,-9.00,-22.00
+108.00,-38.00,+42.00,+5.00,-101.00,-18.00,+82.00,+75.00,-128.00,-69.00,+6.00,+24.00,+16.00,+19.00,+23.00,+4.00
-42.00,-74.00,+0.00,+10.00,-5.00,-18.00,-87.00,+3.00,+22.00,-84.00,-5.00,+24.00,-1.00,+27.00,+3.00,+27.00
-56.00,-51.00,-40.00,-1.00,+99.00,+17.00,+10.00,+6.00,-51.00,+3.00,+2.00,-6.00,-12.00,-2.00,-37.00,-22.00
-71.00,+71.00,+10.00,-24.00,-65.00,-19.00,-14.00,-27.00,+32.00,+31.00,-2.00,-2.00,-8.00,-5.00,+18.00,-11.00
-45.00,+2.00,-47.00,-40.00,-21.00,-71.00,-49.00,-54.00,-29.00,-35.00,-10.00,+18.00,-2.00,-3.00,-1.00,+12.00
+21.00,+59.00,+28.00,+18.00,+19.00,-3.00,-4.00,+9.00,+42.00,-26.00,-10.00,-33.00,-38.00,-4.00,-7.00,-1.00
+25.00,+46.00,+5.00,+11.00,+66.00,+43.00,+21.00,+22.00,+73.00,+5.00,-9.00,-4.00,+6.00,-5.00,-11.00,-2.00
+14.00,+73.00,+19.00,+11.00,+47.00,+107.00,+6.00,-10.00,+68.00,+84.00,+25.00,-5.00,+20.00,+8.00,-10.00,+44.00
-81.00,-93.00,-64.00,-35.00,-44.00,-80.00,-54.00,-51.00,-23.00,-5.00,-1.00,+14.00,-15.00,-6.00,+16.00,-16.00
+6.00,-4.00,+12.00,-16.00,-90.00,-52.00,+29.00,+0.00,-82.00,+13.00,-27.00,-10.00,-19.00,-8.00,-18.00,-24.00
+29.00,+8.00,+0.00,+13.00,-6.00,-14.00,-62.00,-5.00,+81.00,+103.00,+17.00,+27.00,+29.00,+7.00,-3.00,-1.00
-36.00,-53.00,-9.00,+16.00,+48.00,+39.00,+91.00,+16.00,+65.00,+41.00,-2.00,-14.00,+16.00,+23.00,+4.00,+11.00
+14.00,+9.00,+5.00,+20.00,+34.00,+14.00,-17.00,+6.00,-34.00,+24.00,+13.00,-33.00,-30.00,-14.00,+3.00,-8.00
+76.00,+41.00,+52.00,-3.00,-40.00,+29.00,+31.00,+12.00,+58.00,-23.00,-18.00,-9.00,-20.00,-48.00,-14.00,+4.00
-63.00,-106.00,-48.00,-24.00,-38.00,-23.00,-7.00,-38.00,+51.00,+13.00,+15.00,+13.00,+42.00,+43.00,+0.00,+12.00
+75.00,+17.00,+10.00,+1.00,-38.00,+48.00,+12.00,-9.00,-23.00,-120.00,-35.00,-39.00,-62.00,+14.00,+22.00,+5.00
-35.00,-70.00,-16.00,-5.00,+20.00,-5.00,-35.00,-24.00,-12.00,+42.00,+14.00,+37.00,+38.00,-19.00,-25.00,-2.00
-9.00,-74.00,-2.00,+16.00,+18.00,-6.00,+24.00,+18.00,-72.00,+72.00,+26.00,-9.00,+53.00,+8.00,-2.00,-32.00
+74.00,+77.00,+4.00,-7.00,-46.00,+20.00,+10.00,+28.00,-95.00,-94.00,-32.00,-5.00,-11.00,+3.00,-3.00,-9.00
+41.00,+58.00,+28.00,+12.00,-23.00,-35.00,+20.00,+26.00,-38.00,+22.00,+0.00,+8.00,-20.00,-33.00,-31.00,+6.00
+11.00,+125.00,+18.00,+9.00,-37.00,-47.00,-13.00,-11.00,-21.00,-44.00,+9.00,+11.00,+13.00,+21.00,+11.00,-16.00
-11.00,-20.00,+22.00,+12.00,+32.00,+51.00,+8.00,+71.00,+124.00,-5.00,-10.00,+15.00,-30.00,+6.00,-17.00,+28.00
-5.00,+54.00,+0.00,-8.00,-33.00,-20.00,+13.00,-47.00,-27.00,+45.00,+16.00,-3.00,-12.00,-18.00,+36.00,-1.00
-33.00,-86.00,-27.00,-4.00,+93.00,+67.00,-75.00,-1.00,-44.00,-5.00,-3.00,-28.00,-24.00,-5.00,+0.00,-13.00
+64.00,+44.00,+20.00,+11.00,+57.00,+73.00,+108.00,+40.00,+3.00,+12.00,-2.00,-5.00,-7.00,-9.00,-4.00,-5.00
-25.00,+84.00,+20.00,+5.00,-31.00,-128.00,-59.00,-18.00,+19.00,-27.00,+7.00,+21.00,+20.00,+14.00,-5.00,+0.00
-42.00,-58.00,+14.00,+9.00,-35.00,-65.00,-3.00,+9.00,+71.00,-45.00,-1.00,-2.00,-10.00,-2.00,+45.00,+39.00
-22.00,+28.00,-21.00,-30.00,-61.00,-21.00,+8.00,+11.00,-21.00,+15.00,+2.00,-2.00,-3.00,+6.00,-13.00,-25.00
-48.00,+69.00,+3.00,-6.00,-43.00,-17.00,-58.00,-13.00,+28.00,-2.00,+5.00,+8.00,+18.00,-1.00,+9.00,-24.00
+87.00,-4.00,+14.00,+19.00,+31.00,+37.00,+41.00,+31.00,-61.00,+5.00,+17.00,+7.00,+6.00,+8.00,+3.00,+14.00
-69.00,+3.00,-17.00,-21.00,-37.00,+7.00,+3.00,-12.00,-68.00,-38.00,-10.00,-14.00,-3.00,-7.00,-9.00,+16.00
-38.00,-80.00,-4.00,+0.00,+6.00,-5.00,-1.00,-37.00,-14.00,+39.00,+16.00,-9.00,-32.00,-29.00,-4.00,+3.00
+42.00,+65.00,+20.00,+24.00,+59.00,+17.00,-8.00,-1.00,-33.00,-33.00,-32.00,-11.00,+11.00,+8.00,-8.00,+3.00
-90.00,-105.00,-23.00,-18.00,-33.00,-17.00,+17.00,-26.00,+0.00,+3.00,-3.00,+14.00,+14.00,+23.00,+6.00,-25.00
+73.00,+103.00,+19.00,+15.00,+30.00,+14.00,-3.00,+39.00,-3.00,+25.00,-8.00,+8.00,-6.00,-36.00,-37.00,-35.00
-11.00,-71.00,-12.00,-15.00,-49.00,-17.00,-17.00,+15.00,-62.00,-37.00,-15.00,-12.00,+43.00,+24.00,+23.00,+6.00
-70.00,-106.00,-23.00,+2.00,-12.00,-16.00,-25.00,-25.00,-8.00,+57.00,+26.00,-17.00,-83.00,+9.00,+9.00,-18.00
+73.00,+16.00,+35.00,+28.00,-11.00,+7.00,+40.00,-6.00,+19.00,-5.00,+6.00,-2.00,+15.00,+6.00,+4.00,+1.00
-35.00,-40.00,-4.00,-16.00,-73.00,-48.00,-31.00,-10.00,-12.00,-54.00,-5.00,-7.00,+6.00,-3.00,+2.00,+21.00
+20.00,-20.00,+6.00,+34.00,+98.00,+93.00,+40.00,+12.00,-3.00,+4.00,-13.00,+26.00,+81.00,-8.00,-1.00,+9.00
-60.00,+1.00,-3.00,-14.00,-52.00,+2.00,+43.00,+17.00,+31.00,+4.00,+4.00,-7.00,-15.00,-8.00,-2.00,+30.00
+54.00,-64.00,-23.00,-20.00,-34.00,-19.00,-55.00,-17.00,-50.00,+9.00,-3.00,-9.00,-25.00,+16.00,+26.00,+2.00
-74.00,-60.00,-26.00,-3.00,+48.00,-23.00,-43.00,-31.00,-109.00,+19.00,+5.00,-6.00,-12.00,-13.00,-21.00,-44.00
+60.00,+57.00,+59.00,+20.00,-54.00,-64.00,+34.00,+34.00,+2.00,+30.00,+38.00,+30.00,+12.00,+5.00,-7.00,-14.00
+38.00,-52.00,-3.00,+10.00,+91.00,+77.00,-19.00,-4.00,+4.00,-7.00,+2.00,+7.00,+25.00,+5.00,+4.00,-4.00
-10.00,+50.00,-8.00,-14.00,-29.00,-56.00,+29.00,+10.00,-4.00,+40.00,+7.00,+4.00,-6.00,-8.00,-9.00,-30.00
+47.00,+12.00,-2.00,+7.00,+8.00,-4.00,+11.00,-5.00,-17.00,-16.00,-12.00,-22.00,-1.00,-4.00,-8.00,+22.00
-4.00,-38.00,-18.00,-5.00,-5.00,-14.00,-8.00,+4.00,-7.00,+15.00,+5.00,+20.00,+2.00,-3.00,+3.00,+15.00
+56.00,+69.00,+30.00,-7.00,-37.00,-26.00,-30.00,+31.00,+1.00,+15.00,-10.00,+5.00,+16.00,+0.00,-8.00,-16.00
+9.00,+43.00,-8.00,+1.00,-48.00,-1.00,+46.00,-2.00,+16.00,-5.00,+13.00,-16.00,-22.00,-2.00,+13.00,+22.00
-15.00,-1.00,+7.00,+9.00,+77.00,+86.00,-2.00,+1.00,+80.00,+27.00,-14.00,+3.00,-28.00,-4.00,-24.00,-38.00
-14.00,+51.00,-30.00,-12.00,-11.00,-13.00,+6.00,-8.00,+14.00,-11.00,-7.00,-9.00,+25.00,+8.00,+11.00,+1.00
+38.00,+69.00,+19.00,-2.00,-21.00,-9.00,+10.00,+6.00,-18.00,-13.00,-7.00,-17.00,+10.00,-13.00,+2.00,-7.00
-10.00,+41.00,-12.00,-16.00,-7.00,+8.00,-32.00,+4.00,-35.00,-11.00,-5.00,-2.00,+5.00,-12.00,-10.00,+6.00
-40.00,-41.00,-21.00,-6.00,-19.00,-97.00,-21.00,-8.00,-46.00,-30.00,-7.00,-8.00,+2.00,+10.00,+26.00,+19.00
+36.00,+88.00,+33.00,+22.00,-12.00,+71.00,+21.00,+41.00,+72.00,+2.00,+2.00,+5.00,+9.00,-16.00,-27.00,+10.00
-10.00,-9.00,-6.00,-4.00,+19.00,-9.00,-14.00,+2.00,-40.00,+6.00,+6.00,-2.00,+10.00,+6.00,+9.00,+16.00
-41.00,-48.00,-32.00,-28.00,-10.00,+34.00,-30.00,-43.00,+61.00,-5.00,-9.00,-9.00,-10.00,-3.00,-8.00,-7.00
-10.00,+6.00,+17.00,+18.00,+35.00,-9.00,+33.00,-29.00,+73.00,+23.00,+14.00,+6.00,+3.00,+2.00,-4.00,-6.00
-12.00,+38.00,-2.00,-16.00,-6.00,-49.00,-5.00,-25.00,-19.00,-6.00,-3.00,+2.00,-21.00,-1.00,+5.00,-18.00
+38.00,-119.00,-4.00,+8.00,-13.00,-14.00,-16.00,+35.00,+21.00,-25.00,+2.00,+9.00,+8.00,-7.00,-2.00,+14.00
-26.00,+16.00,-8.00,-8.00,-30.00,-7.00,-4.00,-5.00,-4.00,+1.00,+8.00,+5.00,-10.00,+2.00,+4.00,+27.00
-7.00,-12.00,+0.00,-4.00,+8.00,+7.00,+11.00,+12.00,+65.00,+20.00,+6.00,-8.00,-8.00,-7.00,-3.00,-12.00
+40.00,-41.00,-1.00,+17.00,+90.00,+83.00,+8.00,+18.00,+2.00,-19.00,-13.00,-1.00,-13.00,-6.00,-10.00,-35.00
-2.00,+15.00,+6.00,+5.00,-36.00,-94.00,-20.00,-23.00,+6.00,+11.00,+5.00,+14.00,+15.00,+2.00,-4.00,-23.00
-12.00,-79.00,-22.00,-15.00,+34.00,+13.00,+55.00,+3.00,-23.00,+12.00,+6.00,+1.00,+18.00,+11.00,+0.00,-4.00
-90.00,-1.00,+13.00,-2.00,-66.00,-12.00,-41.00,-7.00,-1.00,-27.00,-10.00,-5.00,-18.00,+4.00,-11.00,-2.00
-5.00,-6.00,-15.00,-10.00,-15.00,-31.00,+4.00,+0.00,-65.00,-8.00,-7.00,-20.00,-1.00,-20.00,-3.00,-4.00
-71.00,-32.00,-13.00,-5.00,+4.00,+33.00,-1.00,-29.00,+9.00,+9.00,-8.00,-22.00,-36.00,-23.00,-15.00,+30.00
-38.00,-95.00,-10.00,+7.00,-4.00,+9.00,-22.00,-3.00,+0.00,-3.00,+2.00,+14.00,+19.00,+6.00,+4.00,-8.00
+56.00,-25.00,+9.00,+16.00,-14.00,+23.00,+16.00,-3.00,-21.00,+5.00,+2.00,-5.00,-19.00,+0.00,-17.00,+1.00
-42.00,-7.00,-4.00,-10.00,-21.00,-39.00,-3.00,-14.00,+3.00,-17.00,-11.00,-10.00,-29.00,+11.00,+16.00,-1.00
+3.00,+53.00,+3.00,+0.00,+4.00,-46.00,+2.00,-3.00,-12.00,-10.00,+5.00,+15.00,+44.00,-6.00,-7.00,-17.00
+2.00,+15.00,+4.00,+2.00,+23.00,+51.00,-14.00,-14.00,-57.00,-2.00,-9.00,-7.00,-9.00,+2.00,+8.00,-9.00
+1.00,+44.00,-16.00,-18.00,-36.00,+18.00,+34.00,+16.00,+72.00,+14.00,+10.00,+11.00,+12.00,-6.00,-9.00,+21.00
-35.00,-51.00,-4.00,-9.00,-20.00,-51.00,-43.00,-42.00,-95.00,-26.00,+2.00,+5.00,-11.00,+5.00,-4.00,-23.00
+43.00,+6.00,-2.00,+6.00,+20.00,+41.00,-1.00,+27.00,+45.00,+17.00,-2.00,+7.00,-10.00,+11.00,+6.00,+10.00
-44.00,-1.00,+4.00,+5.00,+1.00,-40.00,+8.00,-43.00,-38.00,-20.00,+9.00,-8.00,-13.00,-12.00,-10.00,+11.00
+65.00,+48.00,+15.00,+3.00,-2.00,+35.00,-2.00,+26.00,-5.00,+15.00,-30.00,-10.00,+5.00,-1.00,+0.00,-39.00
-5.00,-6.00,-5.00,+2.00,+13.00,-12.00,-14.00,+26.00,-1.00,-18.00,-10.00,-1.00,+0.00,+1.00,-4.00,+13.00
-72.00,+27.00,-9.00,-5.00,+31.00,+1.00,+24.00,+16.00,+8.00,-6.00,-3.00,-3.00,-6.00,+3.00,+7.00,+20.00
-24.00,+15.00,+7.00,-3.00,-45.00,-25.00,-11.00,+22.00,+14.00,+36.00,+7.00,+6.00,+12.00,-2.00,+0.00,+12.00
+5.00,+32.00,+9.00,-5.00,+39.00,+41.00,+44.00,+14.00,-71.00,-34.00,+0.00,+8.00,-1.00,+5.00,+8.00,-2.00
+18.00,-105.00,-10.00,+0.00,-4.00,-57.00,-5.00,-10.00,+31.00,-2.00,-4.00,+1.00,+1.00,-2.00,+0.00,-14.00
-29.00,+19.00,+2.00,+8.00,-6.00,+35.00,-3.00,-16.00,-22.00,-4.00,-13.00,-19.00,-18.00,+4.00,-3.00,+1.00
+8.00,+11.00,+11.00,+12.00,+8.00,+10.00,-8.00,-15.00,+58.00,+21.00,+4.00,+10.00,-1.00,+2.00,+24.00,+9.00
-17.00,-30.00,-6.00,-4.00,-16.00,-42.00,-14.00,-28.00,-14.00,-1.00,+1.00,-14.00,+6.00,-19.00,-21.00,-23.00
-19.00,+7.00,-11.00,-13.00,-31.00,+11.00,-14.00,-43.00,-16.00,+2.00,+2.00,+7.00,-19.00,-9.00,-18.00,+3.00
-32.00,-58.00,-2.00,+2.00,+12.00,-31.00,-2.00,-2.00,+1.00,-4.00,+2.00,-8.00,-15.00,+10.00,-6.00,-9.00
-20.00,+39.00,+0.00,-5.00,+6.00,+44.00,+2.00,-3.00,-18.00,-8.00,-6.00,-1.00,+1.00,-8.00,+3.00,-12.00
+35.00,-37.00,-11.00,-11.00,-10.00,+11.00,-9.00,+43.00,+3.00,-1.00,+4.00,-9.00,-12.00,+4.00,-12.00,+6.00
+25.00,+50.00,+5.00,+4.00,-9.00,+2.00,+7.00,+17.00,+15.00,-1.00,-1.00,+1.00,+5.00,-8.00,+2.00,+21.00
-3.00,-19.00,+0.00,-1.00,-29.00,+10.00,-1.00,-33.00,+8.00,+12.00,+8.00,+6.00,+14.00,+3.00,+6.00,-13.00
+14.00,+9.00,-11.00,-13.00,-51.00,-40.00,+28.00,+13.00,-33.00,-31.00,-14.00,-3.00,-10.00,+8.00,-5.00,-33.00
-28.00,-13.00,+6.00,+17.00,+108.00,+64.00,+5.00,-8.00,+69.00,+19.00,-2.00,+3.00,+5.00,+1.00,+19.00,+74.00
-27.00,+15.00,+11.00,+9.00,+7.00,+10.00,-7.00,-16.00,-15.00,+4.00,+6.00,+1.00,-4.00,+3.00,+1.00,+15.00
+15.00,+8.00,+8.00,+3.00,-11.00,-2.00,+10.00,+34.00,+5.00,+29.00,+5.00,+7.00,+6.00,+10.00,+5.00,-8.00
+50.00,-18.00,-14.00,-11.00,-32.00,+6.00,-10.00,+28.00,+17.00,-16.00,-6.00,+0.00,-5.00,-8.00,-13.00,-12.00
-39.00,-3.00,-8.00,-5.00,+42.00,-14.00,-16.00,-21.00,-24.00,-11.00,-4.00,-2.00,-1.00,+0.00,+2.00,-2.00
+0.00,+8.00,-3.00,-4.00,-21.00,-8.00,+54.00,+33.00,+10.00,-1.00,-3.00,-7.00,-6.00,+2.00,+4.00,+4.00
+21.00,-36.00,-1.00,+1.00,+13.00,+12.00,-15.00,-23.00,-9.00,-4.00,-8.00,+5.00,+17.00,-5.00,+5.00,+0.00
-39.00,+61.00,+4.00,+4.00,+10.00,-48.00,-18.00,-16.00,+22.00,+16.00,+10.00,+1.00,-1.00,-6.00,-5.00,-9.00
+60.00,+8.00,+9.00,+2.00,-40.00,-7.00,+14.00,+27.00,-59.00,-28.00,-11.00,-13.00,-8.00,-2.00,+9.00,+1.00
-80.00,-25.00,-14.00,-11.00,-8.00,-24.00,-16.00,-26.00,+19.00,+7.00,-10.00,-6.00,-6.00,+2.00,-4.00,-11.00
+61.00,-67.00,-6.00,-1.00,-2.00,+25.00,-4.00,+5.00,-19.00,-16.00,+1.00,+13.00,+1.00,-2.00,-4.00,-11.00
-15.00,+49.00,-1.00,-3.00,+19.00,+12.00,-6.00,-22.00,+2.00,+6.00,+1.00,-4.00,+9.00,+5.00,-1.00,+18.00
-58.00,-51.00,-3.00,+2.00,-20.00,-21.00,-13.00,+18.00,-25.00,-5.00,-1.00,-15.00,-24.00,-1.00,-3.00,+12.00
-24.00,-5.00,+0.00,-4.00,-8.00,-10.00,-7.00,-11.00,+9.00,+3.00,+4.00,+0.00,+4.00,-4.00,+0.00,+8.00
-30.00,-17.00,-9.00,-2.00,-1.00,+67.00,+17.00,+22.00,-10.00,-10.00,+1.00,+3.00,+0.00,-1.00,-1.00,-28.00
+7.00,-28.00,+4.00,+0.00,+19.00,+0.00,+3.00,-9.00,+27.00,+8.00,+3.00,-4.00,-3.00,-3.00,-13.00,+27.00
-7.00,-7.00,-7.00,-8.00,-48.00,+21.00,-31.00,-33.00,-15.00,-3.00,+0.00,+5.00,+7.00,+3.00,-3.00,-38.00
-1.00,-10.00,-7.00,-4.00,+28.00,-5.00,-23.00,-54.00,+81.00,+18.00,-1.00,-1.00,-1.00,-4.00,+1.00,+2.00
-35.00,+20.00,-1.00,-7.00,-15.00,-64.00,-16.00,-29.00,-21.00,-9.00,-1.00,-1.00,+0.00,-2.00,-5.00,-26.00
+57.00,-3.00,+8.00,+15.00,+15.00,+22.00,+13.00,+63.00,+18.00,+3.00,-4.00,-4.00,-5.00,+1.00,+4.00,+27.00
+23.00,+16.00,+3.00,+0.00,+1.00,-17.00,+17.00,+5.00,-32.00,-5.00,-1.00,+2.00,+6.00,+1.00,+1.00,-7.00
+14.00,+11.00,+2.00,+0.00,-15.00,-12.00,+4.00,+28.00,-38.00,-16.00,-6.00,-5.00,-8.00,-4.00,-5.00,-1.00
-14.00,+16.00,+2.00,-1.00,-3.00,+39.00,+10.00,-47.00,+54.00,+11.00,-5.00,+2.00,+6.00,+7.00,+13.00,+25.00
+27.00,-10.00,+6.00,+6.00,+38.00,+16.00,-12.00,-51.00,-11.00,-2.00,-4.00,-2.00,-6.00,-2.00,+2.00,+15.00
+26.00,-1.00,-7.00,-11.00,-24.00,-15.00,+4.00,-1.00,+14.00,+4.00,+2.00,+3.00,+3.00,+2.00,+8.00,+8.00
+47.00,-10.00,-7.00,-4.00,-15.00,-6.00,+1.00,-13.00,+0.00,+3.00,-4.00,-2.00,+3.00,-1.00,-4.00,-10.00
+22.00,+35.00,+14.00,+8.00,+1.00,-10.00,-11.00,+12.00,-9.00,-3.00,-2.00,+0.00,-4.00,-4.00,-2.00,+6.00
+30.00,-41.00,-8.00,-5.00,-1.00,-7.00,+3.00,-3.00,-15.00,-3.00,-3.00,-6.00,-7.00,-6.00,-6.00,-23.00
+21.00,+59.00,+11.00,+8.00,-6.00,+9.00,+8.00,+5.00,+8.00,+5.00,+2.00,+2.00,+1.00,+2.00,+4.00,+0.00
+45.00,-47.00,-1.00,+3.00,+4.00,+6.00,+2.00,+14.00,-23.00,-7.00,-2.00,+0.00,-1.00,+1.00,-4.00,-9.00
+6.00,-6.00,+0.00,-7.00,-6.00,-2.00,-4.00,-5.00,-5.00,-9.00,-3.00,+0.00,+2.00,+1.00,-3.00,+5.00
+8.00,-25.00,-7.00,-2.00,+6.00,+17.00,+2.00,+17.00,+9.00,+9.00,-1.00,+6.00,+6.00,-2.00,+4.00,+2.00
-25.00,-4.00,-12.00,-3.00,+5.00,-67.00,-18.00,-27.00,-16.00,-6.00,+1.00,-8.00,-7.00,+2.00,-5.00,-17.00
-42.00,-13.00,-2.00,+0.00,-18.00,+65.00,+0.00,+1.00,-6.00,-4.00,-6.00,-12.00,-12.00,-3.00,+3.00,+2.00
+11.00,+0.00,+2.00,+2.00,+4.00,-1.00,+6.00,-7.00,-15.00,-5.00,-3.00,-2.00,-3.00,-4.00,-6.00,+6.00
-41.00,+12.00,-11.00,-8.00,+11.00,-6.00,-7.00,-10.00,+6.00,+4.00,+1.00,-3.00,-1.00,+1.00,+2.00,+0.00
-17.00,-21.00,-3.00,+1.00,-7.00,+4.00,+9.00,-3.00,-4.00,-2.00,+2.00,+7.00,+6.00,+2.00,+1.00,-7.00
-13.00,+23.00,-2.00,-6.00,-9.00,-3.00,-9.00,+4.00,-13.00,-1.00,+3.00,+3.00,+3.00,-2.00,-6.00,-17.00
-29.00,-1.00,+2.00,-10.00,-20.00,-31.00,-11.00,+9.00,+13.00,+11.00,+6.00,+1.00,+5.00,+2.00,+4.00,+3.00
-1.00,+14.00,+0.00,-1.00,+25.00,+10.00,-8.00,-10.00,-54.00,-23.00,-7.00,-4.00,-8.00,+0.00,-4.00,-7.00
+17.00,-2.00,+2.00,+5.00,-6.00,+3.00,-4.00,-60.00,+22.00,+8.00,+2.00,+0.00,+4.00,-2.00,-4.00,-16.00
-1.00,+3.00,+3.00,+7.00,+3.00,+5.00,+22.00,+37.00,+6.00,+6.00,-2.00,-1.00,-3.00,-5.00,+0.00,+0.00
+64.00,+13.00,-6.00,-4.00,+9.00,+9.00,+13.00,+66.00,-47.00,-30.00,-3.00,+2.00,+1.00,+1.00,-7.00,-2.00
-38.00,-10.00,+13.00,+10.00,-7.00,-13.00,-9.00,+4.00,+33.00,+6.00,+0.00,-1.00,+1.00,+0.00,+2.00,-4.00
-6.00,+1.00,+3.00,+0.00,+2.00,+8.00,+2.00,-11.00,-12.00,+4.00,+3.00,+1.00,-4.00,-2.00,+1.00,-3.00
+43.00,-6.00,+1.00,-1.00,-2.00,-17.00,+0.00,-14.00,-12.00,-4.00,+0.00,+3.00,+4.00,-1.00,-1.00,-1.00
-40.00,+20.00,-9.00,-7.00,-2.00,+10.00,-9.00,-27.00,+14.00,+8.00,+0.00,-2.00,-2.00,+7.00,+5.00,+0.00
-24.00,-56.00,-10.00,-3.00,-4.00,-9.00,+1.00,+11.00,-5.00,-5.00,-4.00,-2.00,-2.00,-11.00,-2.00,-6.00
-23.00,+27.00,-12.00,-7.00,-4.00,+6.00,-8.00,-13.00,-6.00,-6.00,-5.00,+0.00,+0.00,-1.00,+2.00,+8.00
-34.00,-21.00,+18.00,+9.00,+2.00,-3.00,+5.00,+17.00,+12.00,+6.00,+2.00,+1.00,+1.00,+1.00,+0.00,+4.00
+31.00,-3.00,-5.00,-2.00,+5.00,+3.00,+4.00,+14.00,-3.00,+1.00,-1.00,-1.00,-3.00,-1.00,-6.00,-2.00
+26.00,+0.00,+4.00,+3.00,+0.00,+0.00,+0.00,-10.00,-4.00,-2.00,-1.00,-4.00,-6.00,+0.00,-2.00,-17.00
-23.00,-13.00,-1.00,+1.00,-3.00,-7.00,-6.00,-2.00,+1.00,-1.00,-1.00,+2.00,+2.00,-2.00,+2.00,+7.00
-4.00,+5.00,-5.00,-6.00,-11.00,-21.00,-8.00,-13.00,-4.00,-4.00,-3.00,-2.00,-2.00,+2.00,-1.00,+1.00
-9.00,-11.00,-12.00,-5.00,+1.00,-6.00,-5.00,-12.00,+6.00,+4.00,+1.00,+2.00,-1.00,-3.00,+2.00,+0.00
+12.00,+6.00,+3.00,+3.00,+2.00,+3.00,+0.00,-2.00,-3.00,+0.00,-4.00,-4.00,-2.00,-1.00,+3.00,+10.00
+1.00,-24.00,-7.00,-9.00,-4.00,+9.00,+13.00,+20.00,+39.00,+13.00,+2.00,+0.00,+0.00,-2.00,-2.00,-3.00
-4.00,+28.00,+5.00,+3.00,-1.00,-31.00,-18.00,+6.00,-10.00,-6.00,-3.00,-4.00,-1.00,+2.00,-5.00,-27.00
-24.00,-12.00,+7.00,+5.00,-8.00,+76.00,+19.00,-16.00,+1.00,-1.00,-1.00,-1.00,+0.00,-2.00,+1.00,+2.00
+8.00,+15.00,-8.00,-3.00,+17.00,-33.00,-24.00,+0.00,-2.00,-6.00,-5.00,-2.00,-2.00,-2.00,-6.00,-10.00
-11.00,-2.00,+3.00,+0.00,+1.00,-6.00,-5.00,+18.00,-22.00,-11.00,-5.00,+0.00,-2.00,+1.00,-1.00,+2.00
+10.00,+11.00,+4.00,+5.00,+3.00,-1.00,+6.00,-19.00,-6.00,-5.00,+0.00,-1.00,-1.00,+2.00,-6.00,+1.00
-15.00,+10.00,+1.00,-1.00,+5.00,-6.00,+2.00,+4.00,+32.00,+10.00,-3.00,-3.00,-1.00,-7.00,-4.00,-12.00
-7.00,+4.00,-2.00,+0.00,-10.00,+4.00,+3.00,+9.00,-76.00,-16.00,+1.00,+1.00,-2.00,-1.00,-6.00,-21.00
+16.00,-8.00,+3.00,+2.00,-2.00,+10.00,+3.00,+12.00,-20.00,+1.00,+0.00,-1.00,+1.00,-1.00,+1.00,-1.00
+14.00,+7.00,+0.00,+1.00,+2.00,+6.00,+8.00,+10.00,+23.00,+2.00,+1.00,-1.00,+1.00,+2.00,+3.00,-2.00
+23.00,-5.00,-1.00,-2.00,-3.00,-20.00,-12.00,-16.00,-4.00,-5.00,-3.00,-2.00,+0.00,-2.00,+0.00,-1.00
+29.00,+12.00,+0.00,+0.00,-5.00,+5.00,+10.00,-8.00,+8.00,-1.00,-4.00,-2.00,-2.00,-1.00,+0.00,+7.00
-26.00,-17.00,-3.00,-5.00,+1.00,-9.00,-12.00,+5.00,-14.00,-6.00,-3.00,-2.00,-1.00,+2.00,-2.00,+0.00
-12.00,-13.00,-6.00,-2.00,-5.00,+4.00,+3.00,-1.00,-5.00,+1.00,+1.00,+0.00,-1.00,-4.00,-1.00,-1.00
+4.00,+8.00,+14.00,+11.00,+8.00,-7.00,+2.00,+9.00,-4.00,+1.00,+2.00,+0.00,+0.00,+0.00,+2.00,+5.00
+23.00,+3.00,+1.00,+1.00,-1.00,-2.00,+2.00,-13.00,+23.00,+4.00,+0.00,-1.00,-2.00,-2.00,-5.00,+1.00
+17.00,+5.00,-5.00,+0.00,-2.00,+5.00,-4.00,-3.00,+9.00,-4.00,-1.00,-2.00,-1.00,-2.00,+0.00,+3.00
+2.00,-30.00,-19.00,-14.00,-7.00,-1.00,+0.00,-5.00,+8.00,+0.00,+0.00,+1.00,+2.00,+0.00,+0.00,+7.00
-6.00,-4.00,-1.00,-2.00,+0.00,-8.00,+2.00,-3.00,-4.00,-4.00,-3.00,-3.00,-2.00,-1.00,+6.00,+2.00
-10.00,-5.00,-3.00,-2.00,-1.00,+1.00,-17.00,-2.00,+4.00,-7.00,-1.00,+1.00,-1.00,+2.00,+2.00,+2.00
-8.00,-18.00,-3.00,-2.00,-5.00,+0.00,-4.00,-3.00,+14.00,+6.00,+0.00,-1.00,+0.00,-1.00,+0.00,-2.00
+6.00,+11.00,-2.00,-1.00,-1.00,+1.00,+9.00,+5.00,-3.00,+1.00,+1.00,+0.00,-2.00,-2.00,-2.00,+9.00
-2.00,+1.00,-3.00,+1.00,+4.00,-11.00,-10.00,-2.00,-6.00,+0.00,-2.00,-1.00,+0.00,-1.00,-6.00,-9.00
-16.00,+3.00,+1.00,-2.00,-4.00,+2.00,+2.00,+5.00,+8.00,+3.00,+0.00,+0.00,+0.00,+1.00,+1.00,-2.00
-3.00,-4.00,-5.00,-5.00,-6.00,-1.00,+4.00,+9.00,-6.00,-3.00,-1.00,-1.00,-1.00,-1.00,-2.00,+3.00
+38.00,+14.00,+5.00,+6.00,+4.00,+1.00,-8.00,+12.00,+13.00,+5.00,+5.00,+3.00,+0.00,-1.00,-3.00,-9.00
