+20.00,-11.00,-14.00,-4.00,+0.00,+3.00,+9.00,+21.00,+8.00,-1.00,-3.00,-2.00,-1.00,+3.00,+0.00,+1.00
-26.00,-3.00,-2.00,-1.00,-5.00,-5.00,-5.00,+2.00,-4.00,-4.00,-7.00,-5.00,-4.00,-5.00,-1.00,+11.00
-3.00,+8.00,-2.00,-2.00,+1.00,+0.00,+8.00,+0.00,-6.00,+0.00,-2.00,-1.00,-2.00,-3.00,-2.00,+2.00
-10.00,+12.00,+3.00,+3.00,+3.00,-2.00,-14.00,-3.00,-7.00,-5.00,-2.00,+0.00,+1.00,-1.00,+0.00,-7.00
+3.00,-5.00,+1.00,+1.00,+0.00,-5.00,-13.00,-9.00,+6.00,+3.00,+1.00,+0.00,+0.00,-6.00,-4.00,-3.00
+20.00,+5.00,-2.00,+0.00,+1.00,-1.00,+1.00,-3.00,-9.00,-4.00,-1.00,+0.00,+1.00,+6.00,-2.00,-6.00
-3.00,+0.00,+3.00,+0.00,-3.00,-4.00,+1.00,+2.00,+2.00,-3.00,-2.00,+1.00,+3.00,-1.00,+0.00,-3.00
-12.00,-3.00,-7.00,-3.00,+2.00,+6.00,+7.00,-2.00,-2.00,-3.00,-2.00,+1.00,-3.00,+0.00,+1.00,-1.00
+2.00,-2.00,-3.00,-7.00,-5.00,-5.00,-3.00,-3.00,-4.00,-3.00,-2.00,-6.00,-8.00,-3.00,+2.00,+0.00
+23.00,+2.00,-3.00,+0.00,+1.00,+0.00,-3.00,-2.00,+8.00,+3.00,-1.00,-2.00,-1.00,-3.00,-1.00,+1.00
+10.00,-12.00,+1.00,+9.00,+4.00,+2.00,-4.00,-4.00,-8.00,-8.00,-3.00,-3.00,-3.00,-2.00,-4.00,-8.00
+27.00,+4.00,+5.00,-1.00,-2.00,-2.00,+1.00,+2.00,+12.00,+3.00,+3.00,+5.00,+5.00,+11.00,+6.00,+17.00
-7.00,+8.00,+5.00,-7.00,-31.00,-9.00,+2.00,-1.00,-10.00,-9.00,-2.00,-1.00,+0.00,-14.00,-4.00,-4.00
+2.00,-9.00,-9.00,-2.00,+23.00,+4.00,+1.00,+2.00,+8.00,+26.00,+2.00,+4.00,-1.00,+1.00,+2.00,+3.00
-4.00,+5.00,-2.00,-1.00,-2.00,-2.00,-5.00,-6.00,-2.00,+2.00,-1.00,-5.00,+5.00,-3.00,-2.00,-2.00
-20.00,-4.00,-2.00,+2.00,-20.00,-9.00,-3.00,+2.00,-5.00,+4.00,+1.00,+9.00,+0.00,-6.00,-3.00,-3.00
-12.00,+2.00,+6.00,+8.00,+26.00,+17.00,+5.00,+3.00,+4.00,+2.00,-5.00,-18.00,-8.00,+1.00,+2.00,+4.00
-10.00,+4.00,-3.00,-9.00,+3.00,-4.00,+0.00,-13.00,-1.00,-34.00,-5.00,+6.00,-5.00,-5.00,-1.00,+2.00
+10.00,-36.00,-11.00,-11.00,-2.00,-10.00,-1.00,-18.00,+5.00,+10.00,-2.00,-5.00,+3.00,-2.00,-2.00,-1.00
+1.00,+64.00,+6.00,+5.00,+23.00,+22.00,-2.00,+10.00,-27.00,-10.00,+0.00,-12.00,-11.00,-1.00,+0.00,-6.00
-8.00,+0.00,+1.00,+5.00,-11.00,-7.00,-3.00,-5.00,+7.00,+2.00,+1.00,+5.00,+4.00,+5.00,-1.00,+4.00
+2.00,+3.00,+7.00,+9.00,-1.00,+8.00,-28.00,+5.00,+0.00,+5.00,+2.00,+0.00,+2.00,-21.00,-2.00,-9.00
+0.00,+4.00,-2.00,+1.00,+0.00,+1.00,+2.00,-2.00,+4.00,-9.00,-2.00,+5.00,+2.00,+8.00,+2.00,+2.00
-6.00,-29.00,-4.00,-3.00,-13.00,-8.00,+7.00,+2.00,-9.00,-13.00,-4.00,+0.00,+5.00,-4.00,+1.00,+0.00
-8.00,+0.00,+3.00,+3.00,-2.00,-3.00,+3.00,-7.00,-1.00,+7.00,+2.00,+5.00,+2.00,+9.00,-1.00,-2.00
+6.00,+7.00,+5.00,+1.00,-4.00,-3.00,-3.00,-2.00,-5.00,-8.00,-1.00,-2.00,+1.00,-1.00,-1.00,-3.00
-18.00,-5.00,-10.00,-7.00,-9.00,-4.00,-2.00,+18.00,+3.00,-2.00,-1.00,+2.00,-4.00,-1.00,+5.00,+6.00
-3.00,-10.00,-1.00,-2.00,-5.00,-6.00,+2.00,+0.00,-5.00,+7.00,-2.00,+0.00,-2.00,-6.00,-4.00,-6.00
+3.00,-8.00,+3.00,-3.00,+7.00,+3.00,-11.00,+2.00,-3.00,-4.00,+3.00,+4.00,-1.00,-2.00,-1.00,-5.00
+7.00,-10.00,-3.00,-3.00,-6.00,-8.00,+9.00,+2.00,+3.00,-3.00,-8.00,-9.00,-3.00,+3.00,-3.00,-1.00
+3.00,+11.00,+2.00,+3.00,-4.00,+2.00,-3.00,-1.00,-10.00,-10.00,+2.00,+0.00,-2.00,-2.00,-1.00,-7.00
+8.00,-4.00,+6.00,-9.00,+3.00,-1.00,+2.00,-1.00,+4.00,+1.00,-5.00,-7.00,-2.00,-1.00,-6.00,-5.00
-10.00,-7.00,-8.00,-12.00,-22.00,-3.00,-2.00,-5.00,+3.00,-39.00,-7.00,+4.00,+2.00,-1.00,-1.00,+2.00
-6.00,-24.00,-14.00,-2.00,+7.00,-1.00,+2.00,-3.00,+29.00,+16.00,+0.00,+1.00,+5.00,+5.00,-1.00,+5.00
+3.00,+0.00,-8.00,-1.00,+2.00,+8.00,+4.00,-3.00,-20.00,+16.00,+7.00,-3.00,-9.00,-5.00,-7.00,-10.00
+15.00,+33.00,+2.00,+8.00,+5.00,-4.00,+1.00,+3.00,-6.00,+28.00,+11.00,+2.00,+2.00,-4.00,-1.00,+0.00
+19.00,+2.00,+3.00,+2.00,+2.00,+44.00,+14.00,-14.00,-1.00,+7.00,-3.00,+0.00,+7.00,+0.00,-4.00,-6.00
-15.00,-6.00,+7.00,-3.00,-31.00,-57.00,-20.00,+17.00,-16.00,-31.00,-10.00,+11.00,-1.00,+7.00,-3.00,-6.00
-46.00,-2.00,+2.00,+5.00,+3.00,-2.00,-16.00,-10.00,+15.00,-15.00,-5.00,+7.00,-1.00,-19.00,-9.00,+12.00
-11.00,-39.00,-9.00,-6.00,+9.00,-13.00,-7.00,+10.00,+1.00,-2.00,-10.00,-31.00,-7.00,+6.00,+1.00,-5.00
+27.00,+8.00,+0.00,-1.00,-2.00,-6.00,-6.00,+4.00,-7.00,+4.00,+5.00,+16.00,+2.00,-8.00,+1.00,-5.00
-4.00,+11.00,+1.00,+6.00,+39.00,+18.00,-1.00,-6.00,-6.00,+5.00,-1.00,-38.00,-38.00,+5.00,+5.00,+5.00
+3.00,+3.00,+6.00,+1.00,+2.00,+11.00,+46.00,-6.00,-1.00,+12.00,+1.00,+0.00,+0.00,-19.00,-16.00,-7.00
-3.00,-5.00,-2.00,-2.00,-3.00,+1.00,-1.00,-1.00,-3.00,-6.00,+0.00,+6.00,+1.00,-3.00,-3.00,-7.00
-14.00,-8.00,-3.00,-3.00,-18.00,-17.00,+8.00,+6.00,-5.00,+6.00,+1.00,+0.00,+0.00,+0.00,-2.00,+4.00
+8.00,+11.00,+2.00,-3.00,-12.00,+34.00,-7.00,-7.00,+6.00,-9.00,+0.00,+7.00,+13.00,+0.00,+4.00,-1.00
+6.00,-1.00,+5.00,+2.00,-3.00,-35.00,-19.00,-4.00,+15.00,+43.00,+10.00,+4.00,-3.00,+11.00,+5.00,+3.00
+0.00,+2.00,+0.00,-5.00,-42.00,-22.00,+3.00,-5.00,+0.00,-17.00,+0.00,+11.00,+2.00,-1.00,-2.00,-1.00
-4.00,-17.00,-8.00,+1.00,+45.00,-8.00,-65.00,-8.00,-4.00,+3.00,-3.00,-18.00,-16.00,-9.00,+0.00,-4.00
-2.00,-4.00,-1.00,-2.00,-5.00,+2.00,+38.00,-5.00,+7.00,+9.00,+3.00,+8.00,+5.00,+16.00,-3.00,+2.00
+1.00,+4.00,-7.00,-7.00,+3.00,+10.00,-19.00,-5.00,+18.00,-14.00,-7.00,-7.00,-4.00,+7.00,+5.00,+7.00
+39.00,-26.00,+4.00,+2.00,-4.00,+11.00,+8.00,+15.00,-43.00,-21.00,+1.00,+5.00,+4.00,+1.00,-4.00,-18.00
+4.00,+6.00,+4.00,-3.00,-4.00,-1.00,-8.00,-7.00,-32.00,-42.00,-11.00,-1.00,+1.00,+0.00,-1.00,-5.00
-3.00,+2.00,+9.00,+9.00,+4.00,+1.00,+2.00,+3.00,+12.00,+78.00,+12.00,+1.00,+4.00,-10.00,-5.00,-6.00
+18.00,+21.00,+15.00,+7.00,-3.00,+12.00,+9.00,+10.00,+50.00,+21.00,+5.00,-3.00,-3.00,-2.00,+2.00,+7.00
-26.00,-37.00,-30.00,-14.00,+2.00,+17.00,+0.00,-17.00,+5.00,-8.00,-8.00,-2.00,-2.00,+3.00,+1.00,+3.00
+1.00,-61.00,-16.00,-8.00,+2.00,-43.00,-2.00,-2.00,+2.00,+8.00,-9.00,-3.00,+2.00,+0.00,-6.00,-9.00
+33.00,+96.00,+5.00,-2.00,-20.00,-16.00,-15.00,-15.00,-26.00,-20.00,+3.00,+7.00,-9.00,-1.00,-3.00,-2.00
+18.00,-7.00,+5.00,+8.00,+5.00,+7.00,+5.00,-3.00,-22.00,-24.00,-7.00,-11.00,+11.00,+7.00,+0.00,-12.00
-5.00,+37.00,+11.00,+6.00,+14.00,+9.00,-4.00,-2.00,-2.00,-6.00,-5.00,+5.00,+8.00,-7.00,-3.00,-1.00
-23.00,+1.00,-1.00,+3.00,+7.00,+32.00,+43.00,+10.00,+18.00,+5.00,+3.00,-5.00,+7.00,-1.00,-4.00,+8.00
-1.00,-33.00,+2.00,+2.00,-25.00,-18.00,-13.00,-23.00,-11.00,-10.00,+3.00,+29.00,+15.00,-3.00,+7.00,-5.00
-10.00,+3.00,-3.00,+0.00,+64.00,+0.00,-35.00,+4.00,-2.00,+7.00,-4.00,-41.00,-30.00,+12.00,-3.00,+3.00
-15.00,-9.00,-1.00,-2.00,-12.00,+31.00,+8.00,-25.00,+2.00,-21.00,-1.00,-4.00,-17.00,-11.00,+13.00,+2.00
-7.00,+13.00,+2.00,+5.00,+35.00,-7.00,-25.00,+3.00,-21.00,+7.00,+1.00,-9.00,-7.00,-4.00,-14.00,-8.00
-4.00,-6.00,-5.00,-5.00,-33.00,-42.00,+40.00,+13.00,+15.00,+15.00,+1.00,-1.00,-4.00,+26.00,-1.00,+2.00
-1.00,-6.00,-4.00,-3.00,-14.00,+8.00,+4.00,-2.00,-42.00,-31.00,-5.00,+24.00,+24.00,-2.00,+0.00,-10.00
-17.00,-14.00,+0.00,+1.00,+21.00,-3.00,-23.00,-3.00,+17.00,+10.00,-1.00,-9.00,-7.00,+1.00,+9.00,+3.00
+19.00,+15.00,-6.00,-5.00,-19.00,+24.00,+15.00,+9.00,-4.00,+6.00,+0.00,+4.00,+3.00,+4.00,-6.00,-4.00
+31.00,+1.00,+2.00,+3.00,+11.00,+1.00,-19.00,-15.00,+23.00,-21.00,-2.00,-2.00,-1.00,-39.00,-14.00,+7.00
-14.00,-2.00,-4.00,-6.00,-15.00,-5.00,-9.00,+6.00,-2.00,-4.00,+0.00,+6.00,-8.00,+20.00,+12.00,+1.00
-21.00,-19.00,-11.00,-5.00,-6.00,-6.00,+5.00,-7.00,-11.00,+10.00,-2.00,-2.00,+2.00,+1.00,-14.00,-11.00
+9.00,+16.00,+1.00,+0.00,-36.00,+11.00,+18.00,+3.00,+30.00,+35.00,+14.00,+13.00,+10.00,+5.00,+15.00,+16.00
+4.00,-23.00,+5.00,+0.00,+41.00,-17.00,-11.00,+21.00,-21.00,-23.00,-12.00,-12.00,-7.00,+4.00,-3.00,-12.00
+9.00,+34.00,+7.00,-3.00,-10.00,-6.00,+15.00,-2.00,-16.00,-43.00,-5.00,+7.00,+8.00,-12.00,+1.00,+6.00
+12.00,-5.00,-2.00,-3.00,+4.00,-8.00,-1.00,+4.00,-26.00,+10.00,-3.00,-6.00,-6.00,-1.00,+0.00,-4.00
-1.00,+16.00,-1.00,+2.00,+5.00,-5.00,+1.00,-14.00,+73.00,+22.00,+4.00,+4.00,+12.00,+2.00,-3.00,+0.00
-24.00,-39.00,-16.00,-10.00,-8.00,+64.00,+2.00,+3.00,-34.00,-36.00,-13.00,-13.00,-7.00,+0.00,+3.00,-1.00
+4.00,+36.00,+6.00,-1.00,-19.00,-34.00,-4.00,-4.00,+24.00,+40.00,+6.00,+9.00,+4.00,-17.00,+1.00,+5.00
-3.00,+16.00,+9.00,+8.00,+10.00,-20.00,-16.00,+7.00,+20.00,-4.00,+0.00,+0.00,+1.00,+12.00,-8.00,+12.00
-12.00,-1.00,-2.00,-1.00,-28.00,-28.00,+10.00,+4.00,-49.00,-16.00,+1.00,+2.00,+6.00,-7.00,+8.00,-6.00
-6.00,-4.00,+1.00,+1.00,+36.00,+18.00,+8.00,-7.00,+22.00,+26.00,+8.00,+0.00,+5.00,+0.00,+1.00,+14.00
+11.00,-14.00,-1.00,-1.00,-50.00,-20.00,-19.00,+10.00,+7.00,-12.00,-1.00,+0.00,-9.00,+8.00,+7.00,-2.00
+18.00,+15.00,+1.00,+3.00,+21.00,+10.00,+4.00,+3.00,+19.00,+27.00,+7.00,+6.00,+12.00,-18.00,-6.00,+12.00
-42.00,-15.00,-6.00,-3.00,+10.00,+37.00,+54.00,+16.00,-28.00,-20.00,-7.00,+12.00,+25.00,+17.00,+1.00,-3.00
-31.00,+0.00,+5.00,+6.00,+6.00,+16.00,+35.00,+12.00,+14.00,+13.00,+5.00,-24.00,-42.00,-14.00,-5.00,+7.00
-2.00,+12.00,+6.00,+2.00,+4.00,+0.00,-13.00,-7.00,-33.00,-11.00,+0.00,+3.00,+20.00,-4.00,-14.00,-11.00
+1.00,-11.00,-5.00,-6.00,-30.00,-68.00,-31.00,+7.00,+1.00,-1.00,-2.00,+9.00,-5.00,+24.00,+31.00,-2.00
+24.00,-16.00,-5.00,-4.00,-3.00,+21.00,+19.00,-24.00,+2.00,-19.00,-16.00,-9.00,-8.00,-27.00,-17.00,-2.00
-6.00,+22.00,+8.00,+5.00,+36.00,+3.00,-10.00,-8.00,+20.00,+15.00,+14.00,-2.00,+6.00,-7.00,+15.00,+10.00
+5.00,-13.00,-7.00,-3.00,-13.00,+21.00,+94.00,+17.00,-21.00,+1.00,+4.00,-1.00,-7.00,+1.00,-41.00,-7.00
+1.00,+34.00,+5.00,+1.00,-12.00,-18.00,-17.00,-6.00,+22.00,+1.00,+8.00,+21.00,+17.00,-12.00,+38.00,+6.00
-2.00,-53.00,+2.00,+2.00,+12.00,+9.00,-29.00,-1.00,+5.00,+20.00,+1.00,-6.00,-21.00,+10.00,+20.00,-6.00
+10.00,+39.00,-2.00,-6.00,-20.00,-67.00,-4.00,-16.00,-51.00,-39.00,-17.00,+7.00,+19.00,-20.00,-4.00,-20.00
-4.00,-29.00,+1.00,+3.00,+14.00,-2.00,-33.00,-3.00,+24.00,+41.00,+4.00,-12.00,-18.00,+21.00,+16.00,+11.00
+6.00,+16.00,-2.00,+2.00,+7.00,+22.00,+7.00,-6.00,-14.00,-22.00,-1.00,-6.00,+6.00,+4.00,-12.00,-5.00
-14.00,-5.00,-1.00,+0.00,-6.00,+1.00,-3.00,+1.00,-6.00,-2.00,-1.00,+3.00,-14.00,+1.00,-10.00,+3.00
+30.00,-10.00,-4.00,-7.00,-33.00,-2.00,-15.00,+4.00,-6.00,-3.00,-5.00,+7.00,+13.00,+5.00,-5.00,-10.00
-10.00,-35.00,-8.00,+3.00,+32.00,+0.00,-14.00,-7.00,-40.00,-17.00,-3.00,-4.00,-6.00,-7.00,+3.00,-17.00
+0.00,+22.00,+0.00,-4.00,-21.00,+35.00,+14.00,+21.00,+18.00,-9.00,-7.00,+1.00,+10.00,+0.00,-13.00,+11.00
-18.00,+46.00,+19.00,+12.00,+29.00,-51.00,-70.00,+4.00,+25.00,+22.00,+10.00,+1.00,-32.00,-9.00,+11.00,+8.00
+24.00,-7.00,-7.00,-4.00,-23.00,+10.00,+22.00,-7.00,-8.00,-3.00,+9.00,+2.00,+18.00,+1.00,-21.00,-24.00
-11.00,+9.00,-11.00,-13.00,-28.00,-20.00,-23.00,-15.00,+6.00,+3.00,-11.00,+14.00,+17.00,-6.00,-8.00,+2.00
-5.00,-44.00,-8.00,+3.00,+33.00,-7.00,+39.00,+2.00,-20.00,-17.00,-10.00,-23.00,-31.00,-14.00,-37.00,-13.00
+4.00,-3.00,+4.00,-1.00,-30.00,+1.00,-67.00,-14.00,+8.00,-2.00,+2.00,-4.00,+20.00,+52.00,+56.00,+18.00
+4.00,+20.00,+4.00,+2.00,+10.00,+66.00,+24.00,+3.00,+8.00,-3.00,-5.00,+1.00,-5.00,-7.00,-6.00,+0.00
-20.00,-32.00,-6.00,-4.00,+33.00,-13.00,-35.00,-10.00,-31.00,-22.00,-11.00,-20.00,-3.00,-7.00,-22.00,-12.00
-1.00,-33.00,-6.00,-6.00,-28.00,+4.00,+16.00,+11.00,+42.00,-15.00,-4.00,+14.00,+18.00,+13.00,+47.00,+3.00
-17.00,+51.00,+12.00,+8.00,+39.00,+37.00,+124.00,+8.00,+10.00,+14.00,+9.00,-16.00,-47.00,-53.00,-26.00,+7.00
+16.00,+24.00,+18.00,+10.00,-17.00,-105.00,-3.00,+7.00,+18.00,+45.00,+17.00,+5.00,+7.00,+15.00,-1.00,+8.00
-13.00,-46.00,-12.00,-9.00,+11.00,+30.00,-30.00,+18.00,-14.00,-13.00,-13.00,-3.00,-2.00,-9.00,-4.00,-14.00
+43.00,+44.00,-2.00,-4.00,-29.00,+34.00,+0.00,-15.00,+21.00,+23.00,+2.00,+16.00,+4.00,+30.00,-25.00,+3.00
-5.00,-33.00,-15.00,-8.00,+37.00,+12.00,-46.00,-5.00,-2.00,-31.00,-14.00,-25.00,-25.00,-24.00,-7.00,-5.00
-16.00,+5.00,+2.00,-3.00,-9.00,+26.00,-30.00,+7.00,-14.00,-26.00,-12.00,-7.00,+17.00,-3.00,-12.00,+2.00
+13.00,+15.00,+1.00,-1.00,-24.00,-64.00,+15.00,-18.00,+3.00,+8.00,+9.00,+12.00,-22.00,+7.00,+9.00,-3.00
+7.00,-11.00,+0.00,+3.00,+18.00,+30.00,-45.00,-40.00,-30.00,+2.00,-1.00,-13.00,+12.00,+17.00,+9.00,-5.00
+24.00,+5.00,-4.00,-6.00,-58.00,-45.00,-1.00,+33.00,-9.00,-26.00,-1.00,+24.00,+13.00,+12.00,+1.00,-16.00
-15.00,+37.00,-6.00,-7.00,+7.00,+0.00,-4.00,-26.00,-28.00,-3.00,-6.00,-7.00,-13.00,-4.00,-57.00,-5.00
-9.00,-53.00,-2.00,-2.00,-6.00,+76.00,+2.00,+10.00,+36.00,-18.00,-10.00,-12.00,-8.00,+1.00,-20.00,-20.00
-39.00,+7.00,+7.00,-1.00,+27.00,-44.00,+8.00,+13.00,+3.00,+6.00,+7.00,+2.00,-8.00,-21.00,+3.00,+11.00
+10.00,+26.00,+8.00,+9.00,-19.00,-84.00,-6.00,+1.00,-21.00,+16.00,+7.00,+8.00,+45.00,+15.00,-23.00,-1.00
-27.00,-40.00,-3.00,+0.00,-9.00,+43.00,-69.00,-10.00,+29.00,+15.00,+5.00,-1.00,-41.00,-2.00,+43.00,+9.00
-4.00,+23.00,-1.00,-1.00,+5.00,-5.00,+73.00,-2.00,+18.00,+3.00,+3.00,+2.00,+0.00,+14.00,+4.00,+22.00
-12.00,-13.00,-8.00,-6.00,-8.00,+116.00,+101.00,-3.00,-25.00,-5.00,-3.00,-7.00,-18.00,-12.00,-8.00,-10.00
+0.00,-15.00,+2.00,+1.00,+24.00,-93.00,-48.00,-14.00,+47.00,+3.00,-8.00,-6.00,+5.00,-12.00,+10.00,+15.00
+16.00,+22.00,+10.00,+10.00,+9.00,-41.00,+39.00,+32.00,-28.00,+14.00,+9.00,+4.00,+4.00,+2.00,+6.00,-2.00
+0.00,+21.00,-1.00,-3.00,-16.00,-48.00,-9.00,-13.00,+14.00,+18.00,+5.00,+6.00,+8.00,+4.00,+12.00,+8.00
+23.00,+8.00,+7.00,+6.00,+4.00,-47.00,-35.00,+1.00,-32.00,-19.00,-8.00,-12.00,-13.00,-18.00,-10.00,-20.00
-2.00,-49.00,-11.00,-10.00,-14.00,+33.00,-7.00,-12.00,-4.00,+1.00,-5.00,+6.00,+4.00,+29.00,+3.00,+13.00
-8.00,-15.00,-5.00,-1.00,+3.00,+27.00,+18.00,-3.00,-41.00,-15.00,-6.00,-5.00,-8.00,-11.00,+24.00,-5.00
-2.00,+18.00,-5.00,-1.00,+2.00,+85.00,-35.00,+1.00,+5.00,-5.00,+3.00,+19.00,+27.00,-20.00,-76.00,-56.00
-29.00,-26.00,-1.00,+1.00,-2.00,-15.00,+41.00,+37.00,+47.00,-7.00,+9.00,-15.00,-24.00,+1.00,+4.00,+79.00
+6.00,+35.00,+10.00,+6.00,-3.00,+9.00,-49.00,-17.00,-55.00,+16.00,+7.00,+5.00,+8.00,+2.00,+10.00,-42.00
-21.00,-18.00,-16.00,-5.00,+5.00,+55.00,+32.00,-7.00,+59.00,+30.00,+2.00,-1.00,+8.00,+7.00,+35.00,+12.00
-4.00,+7.00,+14.00,+4.00,-10.00,-38.00,-11.00,-3.00,-4.00,+3.00,+0.00,-6.00,-11.00,-26.00,+14.00,+6.00
-8.00,-10.00,-3.00,-9.00,-25.00,-43.00,-1.00,-10.00,-57.00,-9.00,-12.00,-6.00,-9.00,+0.00,-43.00,-36.00
+22.00,+2.00,-4.00,-3.00,+11.00,+32.00,+29.00,-9.00,-9.00,-5.00,-13.00,-27.00,-1.00,-9.00,-10.00,-4.00
-18.00,-32.00,+0.00,+5.00,+39.00,-3.00,-48.00,-13.00,-20.00,+10.00,+6.00,-8.00,-20.00,-7.00,-33.00,-17.00
+8.00,+9.00,+2.00,+1.00,-2.00,+32.00,+50.00,+40.00,-4.00,-13.00,+10.00,+13.00,+10.00,+1.00,+94.00,+48.00
-31.00,+16.00,+1.00,+0.00,-41.00,-19.00,+46.00,-31.00,-24.00,+32.00,-4.00,-1.00,-14.00,-17.00,-24.00,+4.00
+8.00,+10.00,-1.00,+2.00,+55.00,+102.00,+28.00,+8.00,-28.00,-35.00,-4.00,+2.00,+31.00,-20.00,-8.00,-25.00
-22.00,-1.00,-3.00,-6.00,-24.00,-54.00,-1.00,-12.00,+10.00,-12.00,-3.00,-4.00,-1.00,+14.00,-20.00,-8.00
+16.00,+12.00,+5.00,+4.00,-5.00,-30.00,-20.00,+4.00,+6.00,+2.00,-8.00,-7.00,+4.00,-4.00,+7.00,+10.00
+8.00,-12.00,-10.00,-4.00,+21.00,+9.00,-54.00,+10.00,-55.00,-25.00,-13.00,+1.00,+20.00,-1.00,-8.00,-67.00
-77.00,-39.00,-7.00,-2.00,-41.00,-69.00,+5.00,-28.00,+16.00,+11.00,+8.00,+3.00,-32.00,-12.00,-17.00,+32.00
+33.00,-9.00,-3.00,-3.00,+29.00,+127.00,+25.00,+46.00,+8.00,+0.00,+0.00,+1.00,+8.00,+2.00,-6.00,+28.00
+0.00,+15.00,+8.00,+9.00,-15.00,-64.00,-27.00,+4.00,-79.00,-48.00,+4.00,+10.00,+3.00,-17.00,-15.00,+19.00
-35.00,-40.00,-5.00,-2.00,+4.00,+24.00,-25.00,+0.00,+86.00,+40.00,+4.00,+3.00,+14.00,+17.00,+12.00,+20.00
+37.00,+72.00,+17.00,-2.00,-35.00,-21.00,-14.00,+9.00,+42.00,-13.00,-12.00,-12.00,-4.00,+16.00,-15.00,-20.00
-30.00,-28.00,-6.00,+8.00,+37.00,-120.00,-3.00,-11.00,-82.00,-21.00,-11.00,-4.00,+5.00,+0.00,-11.00,-40.00
-27.00,+21.00,-22.00,-17.00,-17.00,+127.00,+5.00,-20.00,+55.00,+7.00,+7.00,+9.00,+25.00,-5.00,+7.00,+44.00
-3.00,-61.00,-14.00,-10.00,+18.00,-109.00,+12.00,+58.00,+15.00,+32.00,-3.00,-20.00,-14.00,-2.00,+0.00,-10.00
-1.00,+64.00,+0.00,+0.00,+12.00,+47.00,-6.00,-29.00,-79.00,-48.00,-6.00,-14.00,-26.00,-9.00,+22.00,-30.00
+5.00,-27.00,-4.00,-4.00,-23.00,-35.00,+6.00,+4.00,+68.00,+55.00,+3.00,+6.00,-2.00,-27.00,-17.00,+24.00
+17.00,-24.00,+11.00,+10.00,+10.00,+24.00,-1.00,+0.00,-7.00,-37.00,-4.00,-10.00,+3.00,+24.00,+8.00,-40.00
+37.00,-1.00,-3.00,+4.00,+11.00,-30.00,+22.00,+5.00,-40.00,-47.00,-6.00,+13.00,+10.00,-28.00,-75.00,-23.00
+15.00,+21.00,+7.00,-2.00,-18.00,+12.00,-65.00,+8.00,-9.00,+53.00,+7.00,+15.00,-11.00,+34.00,+57.00,+21.00
+32.00,+16.00,-4.00,-5.00,-14.00,-24.00,-10.00,-4.00,+31.00,-4.00,-10.00,-5.00,+22.00,-9.00,-53.00,+20.00
+21.00,+23.00,-1.00,+3.00,+11.00,+5.00,+8.00,-17.00,-73.00,-32.00,-15.00,-6.00,-10.00,+8.00,+27.00,-32.00
+17.00,+10.00,+6.00,-3.00,+13.00,+84.00,-16.00,-17.00,+69.00,+23.00,-6.00,-11.00,-15.00,+0.00,+17.00,-10.00
-2.00,-37.00,-10.00,-2.00,+2.00,-50.00,+8.00,+1.00,-85.00,-32.00,-14.00,-8.00,-9.00,-13.00,-17.00,+2.00
-18.00,+36.00,-3.00,-6.00,-36.00,+85.00,+55.00,+16.00,+15.00,-29.00,+1.00,+7.00,-12.00,+0.00,+3.00,-12.00
+2.00,-54.00,-1.00,-6.00,-47.00,-121.00,-97.00,+4.00,-89.00,-15.00,-22.00,-11.00,+17.00,+5.00,-22.00,-5.00
-8.00,-63.00,+3.00,+11.00,+59.00,+106.00,+3.00,-7.00,+77.00,+24.00,+20.00,-4.00,-7.00,-12.00,+22.00,+64.00
+58.00,+79.00,+6.00,+4.00,+19.00,+35.00,+84.00,+49.00,+67.00,-39.00,-10.00,-5.00,+2.00,-32.00,-34.00,-13.00
+12.00,+2.00,+10.00,+3.00,-31.00,-38.00,-38.00,-16.00,-96.00,+8.00,+0.00,+14.00,+9.00,+25.00,+33.00,-53.00
-18.00,-75.00,-17.00,-14.00,+8.00,-66.00,-25.00,-26.00,+19.00,-8.00,-8.00,-12.00,-32.00,+20.00,-36.00,-55.00
+19.00,+82.00,+14.00,+14.00,+6.00,+57.00,+33.00,+25.00,+13.00,+54.00,+19.00,+4.00,+39.00,-7.00,+79.00,+72.00
-36.00,+16.00,+1.00,-4.00,-15.00,-28.00,+2.00,+3.00,+11.00,-25.00,-5.00,+4.00,+11.00,+2.00,-17.00,-5.00
-13.00,-21.00,-5.00,-5.00,+10.00,+51.00,-30.00,-1.00,-50.00,-28.00,+1.00,+6.00,+3.00,+9.00,+50.00,+32.00
-41.00,+12.00,-24.00,-14.00,-5.00,+106.00,+54.00,-32.00,-66.00,+4.00,-5.00,+5.00,-32.00,+7.00,+34.00,-24.00
+4.00,-41.00,+17.00,+2.00,-55.00,-124.00,-18.00,-44.00,-65.00,+20.00,+5.00,-8.00,+3.00,-28.00,-22.00,-47.00
+29.00,-18.00,+21.00,+21.00,+58.00,+68.00,+62.00,+37.00,+43.00,+92.00,+42.00,+25.00,+1.00,+30.00,-27.00,+79.00
-26.00,+15.00,-1.00,-2.00,+2.00,+26.00,-30.00,+2.00,-21.00,-29.00,-6.00,-21.00,-2.00,+1.00,-2.00,-12.00
+53.00,+72.00,+12.00,+9.00,+21.00,-25.00,+14.00,+15.00,+19.00,+62.00,+16.00,+0.00,-18.00,-16.00,+14.00,+22.00
-47.00,-12.00,-18.00,-17.00,-40.00,+66.00,-59.00,-37.00,-68.00,-63.00,-15.00,+3.00,-7.00,+39.00,+5.00,-49.00
+6.00,-14.00,-11.00,-7.00,-9.00,+68.00,-19.00,-18.00,-87.00,-18.00,-9.00,+4.00,+19.00,-43.00,+1.00,-17.00
+15.00,-24.00,+10.00,+3.00,+11.00,-105.00,-38.00,-26.00,-48.00,-53.00,-20.00,-8.00,-31.00,-41.00,-47.00,-61.00
-47.00,-30.00,+3.00,+12.00,+31.00,+21.00,+4.00,+9.00,+127.00,+104.00,+40.00,-7.00,-13.00,+52.00,+55.00,+118.00
+24.00,+55.00,+1.00,+6.00,-10.00,-47.00,+73.00,+32.00,-20.00,-13.00,+6.00,+6.00,-6.00,+0.00,-46.00,-26.00
+11.00,-3.00,-11.00,-14.00,-11.00,-42.00,-28.00,-14.00,-37.00,-14.00,+4.00,-5.00,+6.00,+13.00,-8.00,+13.00
-13.00,-15.00,+0.00,-7.00,-30.00,-3.00,-67.00,-26.00,+81.00,-5.00,-18.00,+11.00,+24.00,+0.00,+10.00,+14.00
-20.00,-65.00,-19.00,-8.00,+1.00,+17.00,+100.00,+48.00,-26.00,+0.00,-9.00,-21.00,-34.00,-41.00,-91.00,-53.00
+9.00,+73.00,+36.00,+24.00,+23.00,-75.00,-48.00,+20.00,+81.00,+0.00,+13.00,+14.00,+12.00,+10.00,+4.00,+13.00
-11.00,+4.00,+2.00,+2.00,-10.00,+28.00,+70.00,+10.00,-11.00,+41.00,+13.00,-9.00,-39.00,-30.00,+1.00,-4.00
-7.00,+95.00,-3.00,-8.00,+6.00,+19.00,-18.00,-14.00,-16.00,-15.00,+1.00,-9.00,+12.00,+31.00,+33.00,+2.00
+23.00,-46.00,+10.00,+8.00,+8.00,+91.00,+9.00,+2.00,-35.00,+25.00,+7.00,+16.00,+15.00,-9.00,+8.00,+14.00
-17.00,-12.00,-11.00,-11.00,-2.00,+62.00,-5.00,-13.00,-70.00,-75.00,-19.00,+2.00,+2.00,+4.00,+19.00,-6.00
-42.00,-67.00,-17.00,-14.00,-44.00,-89.00,-13.00,-35.00,+28.00,-21.00,-11.00,-10.00,-13.00,-29.00,+7.00,-50.00
-29.00,+10.00,-10.00,-9.00,-4.00,+45.00,-79.00,-48.00,+33.00,+29.00,-3.00,+9.00,-3.00,+8.00,+7.00,+49.00
+5.00,-33.00,+4.00,+2.00,+16.00,+49.00,-24.00,-22.00,+51.00,+23.00,+1.00,-20.00,-24.00,+4.00,-47.00,-16.00
+39.00,+71.00,-13.00,-11.00,-87.00,-79.00,-16.00,+8.00,-128.00,-34.00,-18.00,+7.00,+12.00,-15.00,-18.00,-38.00
-61.00,-44.00,-6.00,+2.00,+112.00,+118.00,-18.00,-8.00,+118.00,+7.00,-9.00,-20.00,-2.00,+0.00,+36.00,+35.00
-12.00,-70.00,-16.00,+0.00,-22.00,-8.00,+8.00,+7.00,-80.00,-25.00,-13.00,-10.00,-25.00,-5.00,+12.00,-10.00
+32.00,+44.00,+23.00,+7.00,-3.00,-97.00,-48.00,-2.00,-8.00,+5.00,+3.00,+30.00,+68.00,+19.00,+26.00,+20.00
-63.00,-49.00,-17.00,-10.00,+23.00,-44.00,-18.00,-35.00,-51.00,-4.00,-8.00,-34.00,-50.00,-48.00,+12.00,-8.00
+16.00,+24.00,-11.00,-11.00,-52.00,-17.00,+44.00,-1.00,-59.00,-51.00,-5.00,+4.00,-1.00,-38.00,-63.00,-55.00
-18.00,-58.00,-7.00,-4.00,-6.00,-30.00,+41.00,+10.00,+58.00,+44.00,+11.00,+11.00,+23.00,+25.00,-39.00,+9.00
+18.00,+112.00,+7.00,-2.00,+11.00,+16.00,-2.00,+5.00,-71.00,-84.00,-32.00,-21.00,-24.00,-11.00,+51.00,-24.00
-2.00,-111.00,-13.00,-4.00,+3.00,+80.00,+77.00,+11.00,+48.00,+51.00,+21.00,+17.00,+15.00,+24.00,+9.00,-25.00
+10.00,+40.00,+21.00,+15.00,-1.00,+42.00,-42.00,+9.00,-3.00,+15.00,+3.00,+7.00,+8.00,-41.00,-45.00,+79.00
+27.00,+6.00,+6.00,+4.00,+12.00,-30.00,+45.00,+1.00,-10.00,-2.00,+7.00,-10.00,-19.00,-7.00,+21.00,-28.00
-58.00,-23.00,-10.00,-7.00,-34.00,-46.00,-69.00,-28.00,-50.00,-57.00,-7.00,+3.00,+32.00,-22.00,-28.00,-37.00
+69.00,-35.00,-7.00,-1.00,+22.00,+91.00,-103.00,-12.00,+7.00,+73.00,+14.00,+5.00,+1.00,+4.00,+15.00,+24.00
-42.00,+25.00,-17.00,-9.00,-22.00,-40.00,-26.00,-34.00,-39.00,-27.00,-18.00,-10.00,-4.00,+58.00,+30.00,+0.00
+40.00,+55.00,+36.00,+19.00,+8.00,+20.00,+91.00,+101.00,+64.00,+110.00,+45.00,+22.00,+18.00,-59.00,-27.00,+9.00
-17.00,+12.00,-2.00,-1.00,+6.00,+109.00,+34.00,-5.00,-45.00,-61.00,-14.00,-17.00,-22.00,+9.00,-2.00,-24.00
-4.00,+94.00,+25.00,+8.00,+7.00,-44.00,-27.00,+7.00,+66.00,+49.00,+0.00,+0.00,-2.00,-2.00,+36.00,+51.00
+1.00,-47.00,-14.00,-4.00,+13.00,+2.00,-3.00,-13.00,-69.00,-11.00,-4.00,+6.00,+10.00,+19.00,-34.00,-37.00
-8.00,-67.00,-19.00,-8.00,+3.00,+86.00,-4.00,-22.00,+4.00,-45.00,-23.00,-10.00,-10.00,+22.00,+10.00,+45.00
+52.00,+75.00,-7.00,-6.00,-64.00,+23.00,+67.00,+14.00,+8.00,-12.00,+0.00,+22.00,+28.00,-58.00,+8.00,+16.00
-48.00,-43.00,+9.00,+3.00,+72.00,+111.00,+104.00,+18.00,-46.00,-38.00,-1.00,-12.00,-6.00,+49.00,-31.00,-9.00
+29.00,-66.00,-5.00,-1.00,+8.00,+66.00,-62.00,+17.00,-13.00,+1.00,-9.00,+6.00,-12.00,+44.00,+6.00,-18.00
+7.00,+111.00,+16.00,+12.00,+7.00,-70.00,+35.00,+35.00,+66.00,+30.00,+22.00,+12.00,+1.00,+31.00,+31.00,+20.00
-9.00,-60.00,-5.00,-4.00,+12.00,+89.00,+14.00,-23.00,+10.00,-45.00,-24.00,-6.00,-6.00,-19.00,-27.00,+26.00
-50.00,+59.00,-9.00,-17.00,-28.00,-42.00,-68.00,-87.00,-8.00,+19.00,-18.00,-10.00,-8.00,-59.00,+58.00,+36.00
+67.00,+23.00,+19.00,+12.00,-12.00,-25.00,+56.00,+69.00,+89.00,+53.00,+22.00,+10.00,+3.00,+38.00,-17.00,+29.00
+22.00,-76.00,-10.00,-2.00,+19.00,+126.00,+1.00,+8.00,-118.00,-78.00,-15.00,-8.00,+0.00,-4.00,-53.00,-67.00
-25.00,-15.00,-2.00,+1.00,+0.00,-128.00,-22.00,+1.00,+102.00,+62.00,+13.00,-3.00,+1.00,+10.00,+6.00,+22.00
+65.00,+7.00,+9.00,+6.00,-12.00,-45.00,-21.00,+20.00,-28.00,-31.00,-2.00,+11.00,+1.00,-6.00,-20.00,-62.00
-84.00,+30.00,-4.00,-6.00,+6.00,+32.00,-38.00,-47.00,-94.00,-38.00,-17.00,-4.00,-5.00,+11.00,+65.00,-31.00
+64.00,+91.00,+22.00,+8.00,-9.00,+19.00,+71.00,+37.00,+50.00,+40.00,+0.00,+3.00,+24.00,-9.00,-34.00,+63.00
-37.00,-95.00,-14.00,+0.00,+4.00,-51.00,-10.00,-23.00,-15.00,-59.00,-10.00,-1.00,-8.00,-3.00,-24.00,-2.00
+51.00,+65.00,-8.00,-9.00,-7.00,-1.00,-48.00,-7.00,-65.00,-10.00,-4.00,-5.00,-1.00,+24.00,+16.00,-44.00
-4.00,+21.00,+14.00,+0.00,-7.00,+31.00,+6.00,+5.00,+125.00,-35.00,+1.00,+5.00,+6.00,-29.00,-10.00,-2.00
-47.00,-84.00,-16.00,-8.00,-15.00,-58.00,+18.00,-23.00,-29.00,+45.00,+11.00,-4.00,-10.00,+13.00,+4.00,-34.00
-22.00,+64.00,-1.00,-6.00,+32.00,+113.00,-52.00,-5.00,-44.00,-11.00,-1.00,-2.00,-12.00,+64.00,+25.00,-10.00
+20.00,-70.00,+0.00,+5.00,+0.00,-65.00,+18.00,+26.00,+12.00,+0.00,+2.00,+2.00,+4.00,-38.00,-56.00,+58.00
+10.00,-19.00,-7.00,-3.00,-22.00,-79.00,-26.00,+5.00,-20.00,-24.00,-11.00,-11.00,+0.00,-4.00,-1.00,-60.00
-15.00,-9.00,-9.00,-5.00,-1.00,+16.00,+24.00,+9.00,+3.00,-32.00,-5.00,-4.00,-1.00,-7.00,-14.00,+16.00
+21.00,+29.00,+18.00,+9.00,+11.00,-66.00,-14.00,+49.00,-118.00,+54.00,+30.00,+8.00,+0.00,-7.00,-1.00,-55.00
-89.00,-34.00,-8.00,-5.00,+3.00,+55.00,+42.00,+7.00,+93.00,-16.00,-9.00,-1.00,-14.00,-15.00,-26.00,-13.00
+58.00,+20.00,+3.00,+7.00,-3.00,+34.00,+33.00,-3.00,+108.00,+61.00,+9.00,+0.00,+6.00,+1.00,+16.00,+82.00
-44.00,+20.00,+0.00,-4.00,-4.00,-3.00,-35.00,-13.00,-98.00,-14.00,-6.00,-16.00,-4.00,-2.00,+25.00,+6.00
-22.00,-34.00,-6.00,-3.00,-1.00,+48.00,+6.00,-10.00,+61.00,+21.00,-4.00,-1.00,-4.00,-4.00,-8.00,+8.00
+2.00,+40.00,-5.00,-3.00,+0.00,-30.00,-17.00,-9.00,+29.00,+11.00,+11.00,+7.00,-2.00,+19.00,+5.00,+18.00
-53.00,-126.00,+3.00,+0.00,-11.00,+0.00,-45.00,-15.00,-128.00,-53.00,-19.00,-4.00,+12.00,-15.00,+24.00,-76.00
+27.00,+26.00,+0.00,+4.00,+4.00,-72.00,-60.00,-14.00,+108.00,+62.00,+20.00,+6.00,+7.00,+13.00,+21.00,+75.00
+35.00,+79.00,-21.00,+4.00,+2.00,+96.00,+6.00,+8.00,-55.00,+61.00,+32.00,+6.00,-3.00,-6.00,+13.00,+22.00
-24.00,-2.00,+34.00,-3.00,-1.00,+84.00,-6.00,+24.00,-76.00,-48.00,-11.00,-5.00,-15.00,-12.00,+0.00,-23.00
-28.00,-26.00,-10.00,-5.00,-13.00,-22.00,+1.00,-16.00,-21.00,-25.00,-50.00,-27.00,-5.00,-21.00,-21.00,-11.00
-2.00,-27.00,-7.00,-7.00,+1.00,+29.00,-28.00,-22.00,+34.00,+2.00,-7.00,+1.00,-5.00,+13.00,+55.00,-21.00
-11.00,-40.00,-9.00,-3.00,+2.00,+4.00,+7.00,+5.00,+24.00,+1.00,-10.00,-4.00,+3.00,-8.00,-4.00,-63.00
+2.00,-15.00,-11.00,+6.00,-2.00,-54.00,-86.00,-47.00,-39.00,+1.00,+15.00,+6.00,+4.00,+4.00,-30.00,+33.00
+0.00,-1.00,-5.00,-3.00,+0.00,-96.00,+93.00,+20.00,+4.00,+30.00,+19.00,+8.00,-4.00,-5.00,-7.00,+35.00
-14.00,-43.00,+6.00,-4.00,+10.00,+127.00,+21.00,-3.00,+11.00,-45.00,-32.00,-10.00,-8.00,-54.00,-19.00,-58.00
+0.00,+38.00,-3.00,-9.00,-9.00,-2.00,+12.00,-10.00,+11.00,+18.00,+16.00,+4.00,-14.00,+37.00,+44.00,+35.00
-13.00,-16.00,-7.00,-4.00,-48.00,-43.00,+8.00,+30.00,+67.00,+13.00,+0.00,-5.00,+19.00,-41.00,-86.00,-42.00
+18.00,-8.00,+3.00,+2.00,+36.00,-66.00,-80.00,+12.00,-80.00,-74.00,+1.00,+0.00,+0.00,+29.00,+11.00,+3.00
-16.00,-22.00,-7.00,+3.00,+8.00,+26.00,+37.00,-2.00,+28.00,+33.00,-2.00,-3.00,-12.00,-50.00,+31.00,+17.00
+5.00,+28.00,+14.00,+0.00,-12.00,-114.00,+30.00,-81.00,+9.00,+28.00,+14.00,+5.00,+23.00,+69.00,+57.00,-1.00
+38.00,+31.00,-4.00,+1.00,-14.00,-68.00,+5.00,+19.00,+58.00,+1.00,-17.00,+0.00,-9.00,+32.00,+3.00,-9.00
+6.00,-55.00,-11.00,-1.00,+21.00,-28.00,-7.00,-4.00,-61.00,-5.00,+6.00,-12.00,-15.00,-8.00,+32.00,-1.00
+4.00,+41.00,-1.00,-2.00,-10.00,-79.00,-39.00,+0.00,-93.00,+0.00,+16.00,+0.00,-9.00,-6.00,-14.00,-36.00
+18.00,-1.00,+5.00,-1.00,-1.00,-51.00,-19.00,-6.00,+99.00,+21.00,-8.00,-11.00,+3.00,-36.00,+10.00,+28.00
-9.00,-38.00,-18.00,-7.00,-12.00,+10.00,+83.00,-6.00,-68.00,-79.00,-16.00,+1.00,-7.00,+6.00,+32.00,-5.00
+8.00,+35.00,+2.00,+0.00,-16.00,+56.00,-48.00,-26.00,+117.00,+100.00,+20.00,+12.00,+5.00,+5.00,-50.00,-26.00
-16.00,+27.00,-14.00,-4.00,+9.00,+34.00,+27.00,-15.00,-118.00,-80.00,-7.00,-11.00,-11.00,-4.00,+12.00,+43.00
-14.00,-104.00,+6.00,-4.00,-9.00,+3.00,+13.00,+28.00,+13.00,+23.00,-3.00,-3.00,-16.00,-16.00,-10.00,-16.00
+54.00,+107.00,+16.00,+3.00,+8.00,-4.00,+9.00,+2.00,-72.00,+4.00,+26.00,+13.00,+22.00,+10.00,+21.00,+33.00
-25.00,+40.00,+26.00,-2.00,-1.00,+89.00,+1.00,+14.00,+74.00,-41.00,-86.00,-28.00,-8.00,-1.00,+3.00,-2.00
-34.00,-41.00,-8.00,-6.00,+4.00,+106.00,-56.00,-46.00,-63.00,-26.00,-11.00,-8.00,-17.00,-6.00,-9.00,+9.00
+89.00,+29.00,+14.00,+9.00,-8.00,-64.00,+12.00,+24.00,+35.00,-35.00,-17.00,-9.00,+8.00,+16.00,-90.00,-51.00
-89.00,-87.00,-25.00,+0.00,+8.00,+83.00,-16.00,-16.00,+36.00,+53.00,+31.00,+3.00,+0.00,+7.00,-6.00,-2.00
+46.00,+6.00,+2.00,-1.00,-13.00,-60.00,-4.00,+20.00,+6.00,-5.00,+29.00,+13.00,+16.00,+13.00,-7.00,+76.00
-37.00,+1.00,-17.00,-16.00,-10.00,+34.00,-11.00,-18.00,+81.00,+53.00,-6.00,+0.00,+3.00,+10.00,+47.00,+38.00
-23.00,+53.00,+11.00,+4.00,+29.00,+65.00,+43.00,-2.00,-80.00,-39.00,+0.00,+8.00,-3.00,-41.00,-45.00,-2.00
+48.00,-32.00,+22.00,+22.00,+5.00,-50.00,+2.00,+16.00,+48.00,+43.00,+10.00,-2.00,+7.00,+15.00,+52.00,+4.00
-21.00,+24.00,-19.00,-9.00,-4.00,+122.00,+91.00,+2.00,-95.00,-18.00,+7.00,+8.00,-10.00,-20.00,-45.00,-35.00
-4.00,-22.00,+10.00,+8.00,-12.00,-128.00,+5.00,-1.00,+28.00,-1.00,+8.00,+5.00,+1.00,-41.00,-20.00,+6.00
-13.00,+16.00,-7.00,-7.00,-36.00,+82.00,-74.00,-16.00,-96.00,-13.00,+2.00,+4.00,+12.00,+68.00,+28.00,+5.00
-9.00,-35.00,-10.00,-5.00,+36.00,+74.00,-46.00,-43.00,+2.00,-19.00,-12.00,-9.00,-20.00,+11.00,+17.00,-8.00
-10.00,-7.00,-9.00,+0.00,+15.00,-2.00,+78.00,+12.00,+3.00,+15.00,+14.00,-6.00,-29.00,+2.00,-20.00,+15.00
-15.00,-12.00,-8.00,-9.00,+3.00,+89.00,-44.00,+17.00,-22.00,-9.00,-17.00,-17.00,-16.00,-37.00,-122.00,-83.00
+16.00,-43.00,-1.00,-3.00,-5.00,-97.00,-19.00,+5.00,+30.00,+53.00,-8.00,-17.00,-9.00,-64.00,+58.00,+75.00
+30.00,+104.00,+29.00,+13.00,+8.00,+127.00,-8.00,+24.00,+78.00,+8.00,+2.00,+9.00,+20.00,+41.00,+74.00,+103.00
+16.00,+44.00,+13.00,+7.00,-21.00,-126.00,-33.00,+23.00,-23.00,+56.00,+35.00,+12.00,+19.00,+18.00,+40.00,-33.00
+19.00,-55.00,-11.00,-7.00,-2.00,-4.00,-11.00,+3.00,-48.00,-31.00,+0.00,-2.00,-6.00,+27.00,+10.00,-48.00
-57.00,-74.00,-4.00,+4.00,+2.00,-19.00,-2.00,-9.00,+41.00,+14.00,+15.00,+6.00,-9.00,-24.00,-46.00,-9.00
-21.00,+21.00,+8.00,-9.00,-8.00,+13.00,-2.00,-20.00,-59.00,-79.00,-59.00,-8.00,+1.00,-15.00,-10.00,-7.00
+15.00,+23.00,+39.00,+15.00,+12.00,-8.00,+5.00,+4.00,-20.00,-19.00,-62.00,-24.00,-4.00,-11.00,+21.00,-1.00
-6.00,+2.00,-15.00,-9.00,-7.00,-33.00,-23.00,+5.00,-90.00,-21.00,+2.00,+6.00,+11.00,+22.00,+3.00,-19.00
-7.00,-36.00,-9.00,-5.00,+9.00,+35.00,+0.00,+9.00,+127.00,+31.00,+12.00,+3.00,+2.00,-16.00,-4.00,+40.00
-10.00,-21.00,-5.00,+6.00,-5.00,-122.00,-53.00,+8.00,-36.00,-19.00,+7.00,-6.00,-6.00,+5.00,-7.00,-29.00
+3.00,+1.00,-6.00,+1.00,+2.00,+88.00,-8.00,-35.00,-47.00,+25.00,+21.00,+13.00,+2.00,-12.00,-18.00,-38.00
+65.00,+43.00,+27.00,+13.00,+15.00,+68.00,+19.00,+14.00,+27.00,-5.00,-3.00,+4.00,+5.00,+22.00,+10.00,+19.00
-4.00,-3.00,+1.00,+10.00,-21.00,-96.00,-43.00,+20.00,+7.00,-53.00,-8.00,-8.00,+7.00,+23.00,+66.00,-6.00
+5.00,+3.00,-11.00,-7.00,+11.00,+88.00,-49.00,-29.00,-55.00,+40.00,+12.00,+0.00,-25.00,-13.00,-20.00,-31.00
-36.00,-48.00,-24.00,-14.00,-31.00,-46.00,-80.00,-32.00,-16.00,-11.00,-3.00,-4.00,+20.00,-16.00,-28.00,-48.00
+5.00,-6.00,+5.00,+7.00,-11.00,-128.00,+8.00,-3.00,+111.00,+65.00,+16.00,-4.00,+11.00,+77.00,+53.00,+73.00
+4.00,+40.00,-3.00,-7.00,+9.00,+4.00,-25.00,+2.00,-115.00,-57.00,-7.00,+3.00,-17.00,-46.00,-28.00,-42.00
+13.00,+32.00,+8.00,+2.00,+4.00,+14.00,-7.00,+9.00,-7.00,+2.00,+0.00,+5.00,+11.00,+59.00,+63.00,-36.00
+87.00,-11.00,-21.00,-7.00,+1.00,+19.00,-4.00,+23.00,-13.00,+15.00,+13.00,+0.00,-5.00,-27.00,-6.00,+17.00
-18.00,-67.00,-3.00,-1.00,+4.00,+31.00,-22.00,+8.00,-11.00,+1.00,-2.00,+4.00,-2.00,-1.00,+16.00,-20.00
-78.00,+19.00,-11.00,-11.00,-6.00,-68.00,+2.00,-34.00,-83.00,-20.00,-20.00,-6.00,-13.00,-3.00,-40.00,-34.00
+81.00,-28.00,+0.00,+2.00,-3.00,-28.00,-8.00,-5.00,-83.00,-19.00,-17.00,-8.00,+4.00,-19.00,-8.00,-60.00
-40.00,+14.00,+3.00,+2.00,-3.00,+12.00,+22.00,+26.00,+102.00,+13.00,+15.00,+10.00,-4.00,-2.00,-68.00,+38.00
-8.00,-20.00,+10.00,+11.00,+12.00,-16.00,-4.00,+22.00,+37.00,-39.00,+1.00,+8.00,+11.00,+16.00,+12.00,-26.00
+30.00,+58.00,+12.00,-1.00,+8.00,+93.00,+25.00,+16.00,-26.00,+26.00,+17.00,+4.00,-3.00,-19.00,-48.00,+24.00
-49.00,-79.00,-37.00,-25.00,-9.00,+4.00,+3.00,-25.00,-16.00,+8.00,-22.00,-16.00,-13.00,-33.00,-20.00,+12.00
-11.00,+46.00,-2.00,+4.00,-5.00,-80.00,+5.00,+3.00,+1.00,-4.00,+26.00,+9.00,+10.00,+17.00,+25.00,+4.00
+15.00,-23.00,+5.00,+1.00,-3.00,+49.00,-23.00,-16.00,-4.00,-25.00,-23.00,-6.00,-2.00,-18.00,-17.00,+38.00
-59.00,-72.00,+2.00,+4.00,+3.00,+18.00,+62.00,-28.00,+42.00,+23.00,-7.00,-6.00,-4.00,-23.00,+32.00,-24.00
+28.00,+33.00,-3.00,-3.00,+0.00,+28.00,+67.00,-6.00,+55.00,-6.00,+9.00,+1.00,+2.00,+54.00,+24.00,+24.00
-10.00,+13.00,-8.00,-10.00,-2.00,-15.00,+0.00,+7.00,-50.00,-3.00,-3.00,+0.00,+4.00,+13.00,+21.00,+25.00
+16.00,+13.00,-1.00,+4.00,-7.00,-128.00,-14.00,+12.00,+16.00,-19.00,-3.00,+2.00,-7.00,-7.00,-16.00,+38.00
-49.00,-46.00,-2.00,-6.00,-15.00,-25.00,-30.00,-58.00,-23.00,-36.00,-32.00,-20.00,+2.00,+12.00,+1.00,+20.00
+15.00,+51.00,+15.00,+11.00,+19.00,+67.00,-5.00,+93.00,+109.00,+99.00,+43.00,+13.00,+13.00,-18.00,+38.00,+21.00
-12.00,-69.00,-20.00,+2.00,-9.00,-99.00,+96.00,+6.00,-58.00,-22.00,+5.00,+5.00,-2.00,-14.00,-4.00,+42.00
+3.00,-5.00,+20.00,+9.00,-1.00,+16.00,-8.00,+8.00,-37.00,-38.00,+5.00,+2.00,+0.00,-7.00,-32.00,-40.00
+17.00,+55.00,-23.00,-12.00,+5.00,-6.00,-9.00,+10.00,+48.00,+50.00,+10.00,+6.00,+16.00,+17.00,+8.00,+41.00
-8.00,-42.00,+10.00,+1.00,+4.00,-21.00,+13.00,-14.00,-12.00,-71.00,-41.00,-11.00,-9.00,-20.00,-18.00,-16.00
-40.00,-7.00,-20.00,-6.00,-6.00,+67.00,-53.00,-42.00,+22.00,-1.00,+6.00,-4.00,-5.00,-2.00,+5.00,-27.00
+28.00,-23.00,+0.00,-5.00,-8.00,+16.00,+19.00,+11.00,-35.00,+15.00,+6.00,+4.00,+4.00,-9.00,-13.00,-40.00
+24.00,+46.00,-3.00,-12.00,+3.00,+32.00,-10.00,-8.00,-66.00,-45.00,-13.00,-3.00,-12.00,+2.00,+2.00,-11.00
-43.00,-59.00,-9.00,+2.00,-5.00,-61.00,+26.00,+19.00,+104.00,+51.00,+19.00,+0.00,+15.00,-29.00,-44.00,+36.00
-4.00,-8.00,-2.00,-5.00,+11.00,+120.00,-44.00,-10.00,-24.00,+18.00,+2.00,+1.00,-5.00,+45.00,+40.00,+22.00
-61.00,+10.00,-8.00,+1.00,-7.00,-46.00,+15.00,-71.00,-47.00,-21.00,-11.00,-8.00,-4.00,+15.00,+82.00,-29.00
+106.00,-2.00,+11.00,+8.00,+14.00,+118.00,+13.00,+60.00,-61.00,+39.00,+13.00,+12.00,+4.00,-23.00,-33.00,+3.00
-20.00,+6.00,-11.00,-4.00,-11.00,-89.00,-8.00,+10.00,+41.00,+42.00,+23.00,+18.00,+1.00,-14.00,-40.00,+20.00
-38.00,-18.00,-6.00,-6.00,+9.00,+80.00,+7.00,-15.00,-65.00,-24.00,-9.00,+7.00,-13.00,-11.00,+12.00,-20.00
-23.00,+20.00,+5.00,-1.00,-7.00,-43.00,-12.00,-16.00,-2.00,-5.00,-17.00,-6.00,+4.00,-30.00,-9.00,-3.00
+2.00,-10.00,-5.00,-7.00,-4.00,-7.00,-74.00,+3.00,+7.00,-21.00,-11.00,-12.00,-5.00,+10.00,-2.00,-19.00
+14.00,+20.00,-1.00,-1.00,+4.00,+71.00,+15.00,+0.00,-40.00,-29.00,-4.00,-10.00,-8.00,-11.00,-21.00,-5.00
-10.00,-22.00,-4.00,-2.00,-10.00,-128.00,-7.00,-18.00,-16.00,-9.00,-5.00,-5.00,+2.00,-5.00,+21.00,-38.00
+9.00,+40.00,-2.00,-3.00,+5.00,+17.00,+5.00,+38.00,+56.00,+29.00,+14.00,+3.00,+3.00,+5.00,-20.00,+34.00
+68.00,-7.00,+12.00,+13.00,+12.00,+70.00,-19.00,+6.00,-74.00,-88.00,-20.00,-3.00,-9.00,-12.00,-25.00,-91.00
-36.00,-25.00,+6.00,+6.00,-4.00,-50.00,+103.00,+26.00,+24.00,+48.00,+13.00,-2.00,-1.00,-8.00,-26.00,+64.00
+0.00,-26.00,-19.00,-4.00,-6.00,-20.00,-27.00,-22.00,-45.00,+33.00,+10.00,-2.00,-3.00,-3.00,+17.00,-9.00
+25.00,+45.00,+23.00,-2.00,+9.00,+124.00,+17.00,+12.00,+35.00,-4.00,+7.00,+2.00,+5.00,+3.00,-2.00,-3.00
-37.00,+58.00,-3.00,+5.00,-5.00,-78.00,+9.00,-3.00,-8.00,-16.00,-50.00,-11.00,-2.00,+0.00,-8.00,-5.00
-12.00,-2.00,-36.00,-28.00,-18.00,+34.00,-53.00,-41.00,-27.00,-62.00,-11.00,-10.00,-8.00,-3.00,-1.00,-20.00
+19.00,-71.00,+21.00,+7.00,+0.00,+12.00,-16.00,-19.00,+98.00,+55.00,+3.00,-2.00,-1.00,-9.00,+61.00,+1.00
-15.00,+77.00,-16.00,-8.00,+0.00,+64.00,+69.00,+9.00,-96.00,-12.00,+28.00,+10.00,+3.00,+17.00,-33.00,-32.00
+56.00,-75.00,+22.00,+25.00,+15.00,-68.00,+26.00,+31.00,+70.00,+74.00,+38.00,+13.00,+7.00,+0.00,+21.00,+37.00
-39.00,-29.00,-6.00,-4.00,+4.00,+85.00,-38.00,-30.00,-40.00,-36.00,-23.00,-7.00,-7.00,+4.00,+23.00,-19.00
-4.00,+23.00,+4.00,-3.00,-2.00,-21.00,-33.00,-3.00,+74.00,+2.00,-4.00,-1.00,-10.00,+14.00,-13.00,-3.00
+60.00,+48.00,+3.00,+5.00,-3.00,-86.00,-22.00,+10.00,-32.00,-29.00,-5.00,+5.00,+19.00,-27.00,-64.00,+35.00
-37.00,+11.00,-2.00,-6.00,-4.00,-97.00,-73.00,-16.00,-25.00,+24.00,+20.00,+2.00,-6.00,+72.00,+99.00,+19.00
-35.00,-57.00,-6.00,+5.00,+4.00,+4.00,+59.00,-36.00,-2.00,+21.00,+2.00,+5.00,+11.00,+25.00,+30.00,-25.00
-35.00,-18.00,-4.00,-8.00,-2.00,+20.00,+10.00,+9.00,-31.00,-27.00,-4.00,-5.00,-4.00,-12.00,-45.00,+3.00
+28.00,-5.00,+4.00,+5.00,+3.00,-41.00,+15.00,+0.00,+104.00,+58.00,+10.00,+2.00,+4.00,+1.00,+20.00,-1.00
+1.00,+40.00,-5.00,-3.00,+0.00,+28.00,-33.00,+29.00,-50.00,-32.00,-5.00,-5.00,-5.00,-32.00,+11.00,+3.00
+11.00,-15.00,+6.00,+4.00,+5.00,-23.00,+53.00,+11.00,+5.00,+13.00,+1.00,+4.00,+0.00,+45.00,-4.00,-15.00
+9.00,-16.00,-9.00,-7.00,-6.00,+52.00,+65.00,-15.00,+13.00,-34.00,-18.00,-4.00,+1.00,+1.00,-30.00,-17.00
-9.00,+22.00,-11.00,-9.00,-7.00,+5.00,-16.00,-18.00,-105.00,-30.00,-4.00,-4.00,-8.00,-7.00,-19.00,-23.00
+79.00,+24.00,+21.00,+15.00,+14.00,+65.00,+58.00,+34.00,+84.00,+45.00,+17.00,+9.00,+8.00,+2.00,+40.00,+56.00
+12.00,+16.00,+9.00,-10.00,-12.00,-96.00,-27.00,+0.00,-112.00,-54.00,-35.00,-13.00,-17.00,-34.00,-39.00,-58.00
-14.00,-12.00,+13.00,+23.00,+12.00,-32.00,-48.00,-3.00,+73.00,+87.00,+35.00,+6.00,+10.00,+11.00,+2.00,+49.00
+6.00,-5.00,-21.00,-16.00,-6.00,+51.00,+45.00,-12.00,-27.00,-75.00,-41.00,-13.00,-8.00,-2.00,+43.00,-32.00
-50.00,-81.00,-23.00,-16.00,-7.00,+93.00,+39.00,-33.00,-55.00,-26.00,+12.00,-2.00,-9.00,-30.00,-52.00,-48.00
+28.00,+34.00,+30.00,+12.00,+8.00,-47.00,-21.00,+18.00,-52.00,-48.00,-49.00,-10.00,-1.00,-5.00,+5.00,+4.00
+0.00,+4.00,-4.00,+0.00,-2.00,+77.00,-9.00,-4.00,+33.00,-6.00,-11.00,-5.00,+8.00,+7.00,-28.00,+4.00
-40.00,-64.00,-12.00,+0.00,-17.00,-128.00,-81.00,-26.00,+23.00,+43.00,+4.00,-4.00,+3.00,-6.00,-2.00,+4.00
-23.00,-14.00,-6.00,-2.00,+4.00,+127.00,+15.00,-18.00,+22.00,-47.00,+7.00,+7.00,+16.00,+20.00,-1.00,+21.00
+13.00,+4.00,+0.00,+7.00,+0.00,-54.00,+21.00,+34.00,-5.00,+36.00,+22.00,+2.00,+3.00,-26.00,-67.00,-29.00
+3.00,+42.00,+3.00,-4.00,+12.00,+92.00,-53.00,-5.00,-32.00,-4.00,-3.00,+4.00,-2.00,-8.00,-6.00,-25.00
-10.00,+0.00,+6.00,-4.00,-31.00,-89.00,+13.00,+19.00,-8.00,+15.00,-6.00,-10.00,+2.00,+21.00,+52.00,-12.00
+31.00,+54.00,-1.00,-7.00,-6.00,-5.00,+41.00,-11.00,+14.00,-11.00,-11.00,-4.00,-7.00,+5.00,-39.00,-14.00
+4.00,-29.00,-11.00,-8.00,-8.00,-10.00,-13.00,+24.00,-45.00,+2.00,+11.00,-2.00,-5.00,+3.00,+17.00,-34.00
+58.00,+19.00,+8.00,+4.00,+4.00,+33.00,-7.00,-9.00,+20.00,-30.00,-20.00,-4.00,-10.00,-12.00,-35.00,+21.00
-16.00,+60.00,+9.00,+9.00,+20.00,+84.00,+83.00,+42.00,-101.00,-39.00,+4.00,+9.00,+2.00,-6.00,-14.00,-41.00
-54.00,-49.00,-15.00,-7.00,-8.00,-120.00,-64.00,-36.00,+60.00,-16.00,-9.00,-3.00,+6.00,+21.00,+28.00,+41.00
-6.00,-11.00,-5.00,-5.00,-5.00,+47.00,-24.00,+21.00,+9.00,+22.00,+8.00,-6.00,+2.00,-3.00,+19.00,-9.00
+32.00,+17.00,+2.00,+3.00,-4.00,-57.00,+31.00,+14.00,+41.00,+13.00,-2.00,+1.00,+0.00,+2.00,+10.00,+40.00
+88.00,+74.00,+30.00,+12.00,+14.00,+126.00,-2.00,+15.00,+105.00,+4.00,+2.00,-2.00,-7.00,+0.00,-3.00,+34.00
-43.00,-57.00,+0.00,+3.00,-4.00,-100.00,+21.00,+23.00,-36.00,+73.00,+42.00,+13.00,+6.00,-7.00,-55.00,-46.00
-26.00,+90.00,+2.00,-2.00,-2.00,-41.00,-53.00,-34.00,+92.00,-47.00,-3.00,+7.00,-6.00,-1.00,+52.00,+43.00
-18.00,-86.00,-1.00,-5.00,+7.00,+79.00,+26.00,-8.00,-3.00,+19.00,-43.00,-13.00,+0.00,-9.00,+28.00,+18.00
-27.00,+4.00,+1.00,-6.00,-9.00,-109.00,-37.00,-9.00,+40.00,+10.00,+2.00,-7.00,-5.00,+3.00,-10.00,+2.00
+9.00,+41.00,+3.00,+4.00,+2.00,+29.00,-11.00,+3.00,+44.00,+39.00,-7.00,-6.00,-7.00,-17.00,-21.00,+3.00
+9.00,-47.00,+0.00,+7.00,+2.00,+32.00,-13.00,-12.00,-21.00,-29.00,+25.00,+7.00,-2.00,-9.00,-18.00,+4.00
-7.00,+1.00,-5.00,-1.00,+2.00,+65.00,+53.00,+22.00,-64.00,+5.00,+13.00,+7.00,-5.00,+23.00,+14.00,-49.00
-9.00,-84.00,-22.00,-5.00,-7.00,-3.00,-29.00,-23.00,+6.00,+32.00,+4.00,+1.00,+5.00,-4.00,-1.00,+6.00
+42.00,+36.00,-3.00,-3.00,+4.00,+100.00,+25.00,+45.00,+28.00,+12.00,-8.00,-3.00,-5.00,-1.00,-54.00,-52.00
-30.00,+39.00,-4.00,+1.00,-5.00,-50.00,-112.00,-51.00,-50.00,+16.00,+2.00,-1.00,-1.00,+1.00,+47.00,+15.00
-29.00,-13.00,-7.00,-3.00,+0.00,+68.00,+80.00,+3.00,-28.00,-46.00,+6.00,+2.00,-7.00,-28.00,-16.00,-8.00
+2.00,-35.00,-3.00,+4.00,+2.00,-50.00,+3.00,-17.00,+22.00,+6.00,-7.00,-2.00,-1.00,-24.00,-35.00,+50.00
-33.00,+11.00,+3.00,-2.00,-6.00,-24.00,-4.00,-25.00,+5.00,-9.00,-3.00,+1.00,+4.00,+18.00,+66.00,+16.00
+12.00,-63.00,-10.00,-6.00,-2.00,+50.00,+2.00,-1.00,-16.00,-45.00,-23.00,-7.00,-7.00,-9.00,-15.00,-37.00
+64.00,+72.00,+32.00,+13.00,+10.00,-21.00,-59.00,+17.00,+92.00,+79.00,+32.00,+3.00,+4.00,-5.00,-2.00,-3.00
-13.00,-10.00,-4.00,+0.00,+5.00,+41.00,+5.00,+24.00,-122.00,-24.00,-3.00,+0.00,-9.00,+19.00,-11.00,-63.00
-34.00,+79.00,+0.00,-8.00,-12.00,-23.00,-26.00,-28.00,+6.00,-32.00,-15.00,-11.00,-7.00,-19.00,+1.00,+34.00
+16.00,+16.00,+0.00,-2.00,+2.00,-26.00,+10.00,-14.00,-32.00,-34.00,+1.00,+0.00,-4.00,+22.00,+0.00,+5.00
+2.00,-56.00,-7.00,-4.00,-9.00,-44.00,-2.00,-3.00,-34.00,+32.00,+6.00,-8.00,-4.00,+4.00,+6.00,-81.00
+6.00,+24.00,-4.00,-6.00,+5.00,+24.00,+27.00,+9.00,+64.00,-23.00,-30.00,+0.00,+4.00,+8.00,+16.00,+47.00
-19.00,-75.00,-23.00,+5.00,+4.00,+62.00,-66.00,-29.00,-54.00,+49.00,+14.00,+2.00,-15.00,-29.00,+6.00,+1.00
+55.00,+55.00,+7.00,-7.00,-7.00,+70.00,+69.00,+84.00,-6.00,+15.00,+11.00,+3.00,+9.00,-13.00,-102.00,+6.00
-37.00,+14.00,-20.00,-12.00,-1.00,+51.00,+67.00,-6.00,-57.00,-22.00,+11.00,+4.00,+6.00,-14.00,-11.00,-15.00
-31.00,-62.00,+15.00,+4.00,-13.00,-45.00,-44.00,-23.00,-5.00,-14.00,-35.00,-16.00,-5.00,+4.00,-18.00,-23.00
+0.00,-54.00,-8.00,-2.00,+8.00,+119.00,+39.00,-5.00,-18.00,-28.00,-14.00,-1.00,-4.00,-16.00,+11.00,+12.00
-19.00,+6.00,+3.00,+7.00,-9.00,-128.00,-39.00,-10.00,+19.00,+14.00,+1.00,-3.00,+10.00,+5.00,+16.00,+13.00
+20.00,-11.00,+1.00,+6.00,+5.00,+1.00,-10.00,+4.00,-26.00,-42.00,+10.00,+6.00,-4.00,-25.00,+32.00,-24.00
-35.00,-44.00,-18.00,-8.00,+6.00,+86.00,-5.00,-16.00,+82.00,+32.00,+12.00,+8.00,-4.00,-7.00,+0.00,+39.00
+17.00,+25.00,+15.00,+2.00,+4.00,+3.00,+63.00,+38.00,+7.00,-2.00,-3.00,-6.00,-13.00,-21.00,-43.00,-10.00
-16.00,+2.00,-14.00,-5.00,-9.00,+106.00,+52.00,-36.00,-86.00,+26.00,+7.00,-1.00,+2.00,+16.00,+35.00,-11.00
+46.00,+20.00,+29.00,+22.00,+0.00,-107.00,-40.00,+22.00,+84.00,-10.00,-1.00,+2.00,+20.00,+7.00,-44.00,+54.00
-6.00,-38.00,-12.00,-10.00,-2.00,+13.00,-11.00,-23.00,-13.00,-11.00,+12.00,+3.00,-8.00,+2.00,+63.00,+4.00
+32.00,-4.00,-17.00,-5.00,-2.00,-36.00,+3.00,-3.00,-20.00,+46.00,+22.00,+4.00,-3.00,-3.00,-10.00,-25.00
+14.00,+37.00,+6.00,-14.00,+6.00,+45.00,+41.00,-1.00,+31.00,-81.00,-51.00,-12.00,-11.00,-17.00,-9.00,-34.00
-14.00,+109.00,+18.00,+0.00,+4.00,+50.00,-27.00,+19.00,-65.00,-10.00,-18.00,-8.00,-7.00,-2.00,-5.00,-2.00
+52.00,-50.00,+6.00,+10.00,+4.00,-55.00,-16.00,+10.00,+74.00,+51.00,+20.00,+8.00,+5.00,+8.00,-10.00,+10.00
-54.00,-20.00,-5.00,+10.00,-8.00,-72.00,+20.00,-3.00,-20.00,+6.00,+4.00,-1.00,+13.00,+22.00,-28.00,+15.00
+4.00,-22.00,-7.00,-9.00,+1.00,+15.00,-16.00,-16.00,+54.00,+15.00,+17.00,+5.00,-1.00,-6.00,+39.00,+16.00
-6.00,+28.00,-10.00,-8.00,-8.00,+55.00,-91.00,-11.00,-105.00,-13.00,-8.00,-5.00,-3.00,+19.00,+32.00,-70.00
-20.00,-15.00,-3.00,-4.00,-5.00,-28.00,+41.00,-16.00,-8.00,-8.00,-2.00,-6.00,-7.00,-14.00,+9.00,+39.00
+18.00,-43.00,+3.00,+3.00,+8.00,+25.00,+66.00,+60.00,+20.00,-33.00,+2.00,+6.00,+5.00,+40.00,-56.00,-15.00
-1.00,+58.00,-10.00,-2.00,+4.00,+30.00,-23.00,-46.00,-31.00,+55.00,+0.00,-5.00,-16.00,+0.00,+30.00,-3.00
+14.00,-33.00,+13.00,+6.00,+3.00,+18.00,+3.00,+20.00,+28.00,-22.00,-9.00,-1.00,-5.00,+7.00,+11.00,+76.00
-27.00,+16.00,-23.00,-11.00,-12.00,-11.00,+2.00,-4.00,-106.00,-28.00,+0.00,+1.00,+5.00,+1.00,-49.00,-89.00
+74.00,-57.00,+17.00,+11.00,+5.00,+12.00,+12.00,+38.00,-20.00,-6.00,-4.00,-1.00,+8.00,+28.00,+28.00,+26.00
-49.00,-34.00,+6.00,+9.00,+11.00,+83.00,-52.00,-17.00,-14.00,+43.00,+12.00,+4.00,-5.00,-7.00,-13.00,-19.00
-5.00,+11.00,-14.00,-14.00,-19.00,-88.00,+34.00,+20.00,-10.00,-4.00,-5.00,-4.00,+7.00,+15.00,-36.00,+3.00
-21.00,-36.00,-14.00,-1.00,+9.00,+55.00,-31.00,+12.00,-36.00,+22.00,+21.00,+4.00,-7.00,+0.00,-25.00,-42.00
+13.00,+71.00,+5.00,-9.00,-11.00,+22.00,+21.00,-19.00,-51.00,-81.00,-47.00,-15.00,-13.00,-20.00,+4.00,-16.00
-9.00,-86.00,-7.00,+3.00,+0.00,-32.00,+0.00,+12.00,-14.00,+9.00,+10.00,+6.00,+4.00,-32.00,-37.00,-29.00
-71.00,+11.00,+18.00,+14.00,+20.00,+54.00,-3.00,-29.00,+62.00,+54.00,+1.00,-4.00,-10.00,+14.00,+32.00,+35.00
-22.00,-42.00,-19.00,-18.00,-6.00,-11.00,-5.00,-23.00,-53.00,-102.00,-16.00,-11.00,+5.00,-7.00,-4.00,-38.00
+0.00,+73.00,+17.00,+1.00,-7.00,-110.00,-100.00,-49.00,-84.00,+51.00,+30.00,+5.00,-1.00,-3.00,+15.00,-22.00
-25.00,+41.00,+14.00,+25.00,+17.00,+92.00,+78.00,+75.00,+76.00,+79.00,+31.00,+20.00,+18.00,-8.00,+29.00,+127.00
-37.00,-44.00,+4.00,-9.00,-6.00,+56.00,-10.00,-24.00,-27.00,-24.00,+6.00,-1.00,-3.00,-9.00,-24.00,-42.00
-1.00,+28.00,+11.00,+2.00,-4.00,+25.00,+10.00,+13.00,+67.00,-2.00,-52.00,-15.00,-12.00,-6.00,-13.00,+35.00
-28.00,-20.00,-11.00,-20.00,-3.00,+29.00,+5.00,-21.00,+30.00,-54.00,-22.00,+1.00,+6.00,-20.00,+8.00,+32.00
+34.00,+10.00,+3.00,+4.00,-1.00,+44.00,-54.00,-51.00,-126.00,-59.00,-17.00,-5.00,-1.00,+25.00,-27.00,-41.00
+2.00,+23.00,-8.00,+3.00,+0.00,+32.00,-16.00,+28.00,+16.00,-4.00,+12.00,+5.00,+9.00,+2.00,-3.00,+15.00
-29.00,+30.00,+4.00,+3.00,+0.00,+60.00,-5.00,+32.00,-35.00,+98.00,+31.00,+0.00,-2.00,+14.00,-17.00,+27.00
-41.00,-4.00,+0.00,-5.00,-15.00,-42.00,-39.00,-39.00,+118.00,+10.00,+0.00,-7.00,-2.00,-31.00,+18.00,+17.00
+1.00,+43.00,+2.00,+1.00,+2.00,+8.00,+37.00,+11.00,+103.00,+40.00,+18.00,+4.00,-1.00,+5.00,-22.00,+27.00
+23.00,-45.00,-18.00,-11.00,-6.00,+23.00,-22.00,-14.00,-83.00,-35.00,-20.00,-3.00,+0.00,+5.00,+5.00,+20.00
+42.00,+6.00,+13.00,+3.00,+0.00,+120.00,-89.00,-79.00,-52.00,-12.00,+3.00,+2.00,-22.00,+8.00,+33.00,+15.00
-43.00,-25.00,-2.00,+4.00,-3.00,-89.00,-28.00,+34.00,+49.00,+24.00,+6.00,+2.00,+12.00,-35.00,-28.00,-14.00
+56.00,-29.00,-3.00,-4.00,-1.00,-7.00,+53.00,+37.00,+31.00,+10.00,-11.00,-8.00,-2.00,-24.00,-46.00,+3.00
+42.00,+59.00,-3.00,-4.00,+0.00,-7.00,-4.00,-19.00,-79.00,-72.00,+5.00,+0.00,+1.00,+25.00,+45.00,-64.00
-2.00,-84.00,-2.00,-5.00,+6.00,+9.00,-3.00,+9.00,+33.00,+67.00,-4.00,+6.00,+7.00,+1.00,+44.00,-15.00
-11.00,-3.00,+9.00,+5.00,+1.00,+48.00,+8.00,+3.00,+13.00,+9.00,-14.00,-8.00,-5.00,+15.00,+27.00,+28.00
+16.00,-28.00,-4.00,+1.00,+1.00,-9.00,-15.00,-12.00,+35.00,+36.00,+24.00,+8.00,+1.00,-2.00,+17.00,+22.00
+60.00,-17.00,+22.00,+3.00,-8.00,-128.00,-38.00,+28.00,+1.00,-66.00,-30.00,-6.00,+2.00,-7.00,+18.00,-25.00
+15.00,+1.00,-13.00,+3.00,+5.00,+42.00,+81.00,+28.00,-72.00,-15.00,+19.00,+9.00,+1.00,-29.00,-21.00,-43.00
-6.00,+80.00,-11.00,-9.00,-8.00,+28.00,+0.00,+11.00,+71.00,+29.00,+0.00,-3.00,-10.00,+28.00,-18.00,+50.00
-97.00,-98.00,-22.00,-13.00,-6.00,-53.00,-11.00,-10.00,-53.00,-20.00,+8.00,-2.00,-4.00,-16.00,-12.00,-46.00
+75.00,+81.00,+34.00,+24.00,+11.00,+18.00,-14.00,+26.00,+117.00,+53.00,-17.00,-7.00,-4.00,+13.00,+6.00,+39.00
-32.00,+6.00,+1.00,+2.00,+10.00,+103.00,+43.00,-3.00,-29.00,+10.00,+16.00,+4.00,-2.00,+6.00,-13.00,+13.00
+24.00,-7.00,+6.00,-5.00,+0.00,+44.00,-4.00,-2.00,-8.00,-28.00,-11.00,-3.00,-10.00,-4.00,-17.00,-43.00
-8.00,+51.00,-6.00,-8.00,-10.00,-75.00,-11.00,-34.00,-7.00,-5.00,+13.00,+2.00,+0.00,+11.00,+29.00,+19.00
-25.00,-17.00,-20.00,-9.00,-5.00,-26.00,+4.00,+29.00,-6.00,+43.00,+25.00,+5.00,+12.00,-15.00,-50.00,+19.00
+28.00,-6.00,+19.00,+13.00,+4.00,-88.00,-36.00,+21.00,+16.00,-26.00,-11.00,-4.00,+7.00,+12.00,+7.00,+6.00
-34.00,-47.00,-10.00,+4.00,-20.00,+5.00,+59.00,+7.00,-11.00,+17.00,+12.00,+14.00,+12.00,-20.00,+60.00,+32.00
+82.00,+43.00,+7.00,+2.00,+48.00,+100.00,+1.00,+10.00,-66.00,-48.00,-24.00,-21.00,-35.00,+12.00,-12.00,-17.00
-61.00,-32.00,-10.00,-4.00,-15.00,-128.00,-49.00,-43.00,+31.00,+5.00,+2.00,-1.00,+12.00,-17.00,+16.00,-12.00
+3.00,+57.00,-6.00,-7.00,-3.00,+22.00,+0.00,+22.00,+35.00,-6.00,-18.00,-11.00,-12.00,+0.00,-49.00,-13.00
-56.00,-38.00,-16.00,-4.00,+5.00,+32.00,-2.00,-2.00,-6.00,-22.00,+5.00,+5.00,-6.00,+5.00,-8.00,-38.00
-11.00,-32.00,+0.00,-9.00,-24.00,-8.00,-18.00,+28.00,+52.00,+5.00,-22.00,-6.00,+5.00,-5.00,+2.00,+45.00
-51.00,-87.00,-22.00,-14.00,-4.00,+34.00,+78.00,-15.00,+31.00,-50.00,-9.00,+1.00,-12.00,-10.00,+31.00,+57.00
-25.00,-13.00,-16.00,+3.00,+0.00,-62.00,-83.00,-71.00,-81.00,+9.00,+26.00,+7.00,+1.00,-21.00,-8.00,-39.00
+20.00,+58.00,+38.00,+30.00,+23.00,+86.00,+95.00,-3.00,+71.00,+67.00,+30.00,+5.00,+6.00,+11.00,-2.00,+59.00
-23.00,-94.00,-7.00,-17.00,-28.00,-101.00,-31.00,-15.00,-62.00,-6.00,-24.00,-9.00,-7.00,-11.00,-2.00,-45.00
-31.00,+67.00,+0.00,-5.00,+1.00,+16.00,+11.00,-11.00,-8.00,+25.00,+2.00,+1.00,-4.00,-8.00,-14.00,-6.00
+20.00,+55.00,+2.00,-3.00,-6.00,-27.00,+4.00,+32.00,-9.00,-28.00,-20.00,-4.00,+4.00,-18.00,-42.00,-8.00
+44.00,-2.00,-16.00,-14.00,-3.00,-71.00,-45.00,-1.00,-55.00,-77.00,-19.00,-11.00,+3.00,+23.00,-4.00,-34.00
-32.00,-7.00,-1.00,+5.00,+3.00,+88.00,+4.00,-10.00,+88.00,+44.00,+21.00,+8.00,+7.00,+15.00,+3.00,+35.00
-15.00,-8.00,-20.00,-15.00,-16.00,-51.00,-22.00,-8.00,-71.00,+16.00,-9.00,-9.00,-4.00,-12.00,-22.00,-45.00
+44.00,-26.00,+8.00,+1.00,+18.00,+93.00,+15.00,-7.00,-73.00,-14.00,-1.00,+6.00,-3.00,+13.00,+21.00,-54.00
+66.00,+9.00,+13.00,+17.00,-15.00,-62.00,-20.00,+9.00,+17.00,-4.00,+8.00,+1.00,+16.00,+7.00,+0.00,-10.00
+11.00,+13.00,-11.00,-4.00,-19.00,+2.00,-49.00,+17.00,+4.00,-28.00,-15.00,+3.00,+4.00,+27.00,-16.00,+13.00
-7.00,-31.00,-12.00,-6.00,+7.00,-32.00,+5.00,-9.00,-18.00,-2.00,+0.00,+4.00,+13.00,+1.00,+6.00,+0.00
+16.00,+33.00,+3.00,-1.00,+5.00,+96.00,+4.00,+9.00,+10.00,-41.00,-8.00,-4.00,-2.00,-11.00,+30.00,-5.00
-28.00,-25.00,-10.00,-7.00,+3.00,+51.00,+5.00,-41.00,+34.00,+63.00,+7.00,+1.00,-12.00,+10.00,+15.00,+5.00
-12.00,-47.00,-13.00,+3.00,-4.00,-69.00,-33.00,-7.00,-4.00,+13.00,+4.00,-4.00,-2.00,+21.00,+21.00,-40.00
-9.00,+64.00,+9.00,-5.00,-18.00,+10.00,-6.00,-11.00,-56.00,-40.00,-7.00,+2.00,-7.00,+0.00,-22.00,+0.00
-39.00,+18.00,+11.00,+3.00,-8.00,-39.00,-10.00,-9.00,+14.00,-14.00,-3.00,+1.00,+2.00,+15.00,+54.00,-9.00
-36.00,-19.00,-19.00,-4.00,+34.00,-3.00,-15.00,+5.00,-29.00,+15.00,-10.00,-5.00,-10.00,-23.00,-57.00,+8.00
+52.00,-20.00,+20.00,+7.00,+11.00,+31.00,+29.00,-8.00,-31.00,-51.00,-19.00,-7.00,-10.00,-21.00,+7.00,+2.00
-29.00,+24.00,-9.00,-2.00,+1.00,-30.00,+0.00,+20.00,+81.00,+78.00,+24.00,-2.00,-13.00,+16.00,+34.00,+52.00
+29.00,+22.00,-12.00,+12.00,-3.00,-39.00,+2.00,+1.00,+23.00,+42.00,+11.00,-2.00,+8.00,+5.00,+37.00,+21.00
-30.00,-46.00,-7.00,-10.00,-19.00,+7.00,-19.00,-13.00,-49.00,-56.00,+28.00,+16.00,+8.00,-1.00,+8.00,-2.00
-13.00,+55.00,-3.00,-37.00,-9.00,+15.00,+9.00,+10.00,+35.00,-7.00,-43.00,-12.00,+1.00,+1.00,+0.00,-44.00
-3.00,-52.00,-21.00,-2.00,+11.00,+87.00,+20.00,-11.00,-23.00,-35.00,-16.00,-6.00,-3.00,-4.00,-38.00,-21.00
-20.00,-54.00,-18.00,-15.00,-29.00,-96.00,-31.00,-16.00,+3.00,-25.00,-7.00,-2.00,+5.00,-13.00,-2.00,+33.00
+23.00,+16.00,+8.00,+11.00,+6.00,+87.00,-16.00,-26.00,-7.00,+17.00,-9.00,-2.00,-4.00,-1.00,+38.00,-23.00
+42.00,+47.00,+22.00,+24.00,+4.00,-35.00,+113.00,+33.00,+15.00,+27.00,+37.00,+11.00,+7.00,-16.00,-15.00,+64.00
-8.00,-45.00,-5.00,-7.00,-2.00,+48.00,-10.00,+6.00,+48.00,+24.00,+17.00,+2.00,-6.00,-7.00,+30.00,+7.00
-12.00,+51.00,+15.00,+3.00,-3.00,-105.00,+10.00,+8.00,+55.00,+19.00,-3.00,-3.00,+2.00,+1.00,-14.00,+19.00
+46.00,-31.00,-15.00,-8.00,+4.00,+70.00,-27.00,-39.00,-43.00,-14.00,-8.00,-5.00,-13.00,-38.00,+9.00,-49.00
-16.00,+16.00,+10.00,+6.00,-9.00,-46.00,-48.00,+16.00,-26.00,-22.00,+0.00,+2.00,+10.00,+52.00,-57.00,-17.00
+26.00,+9.00,+2.00,+5.00,+11.00,-13.00,+13.00,+3.00,-11.00,-38.00,-11.00,-1.00,-1.00,+24.00,+21.00,+15.00
-35.00,-96.00,-7.00,+2.00,-4.00,+82.00,+32.00,-10.00,+58.00,+81.00,+15.00,+6.00,-6.00,-8.00,+7.00,+15.00
-6.00,+92.00,+18.00,-2.00,+5.00,-71.00,-4.00,+14.00,-48.00,-28.00,-22.00,-8.00,+6.00,+4.00,-22.00,-33.00
-23.00,+66.00,+6.00,-3.00,-2.00,+12.00,-11.00,-13.00,+9.00,-5.00,+3.00,+6.00,+11.00,-14.00,+7.00,-10.00
-26.00,-47.00,-19.00,-3.00,-5.00,+64.00,-1.00,-16.00,-12.00,-1.00,-1.00,+3.00,-3.00,-8.00,-30.00,-19.00
-33.00,-5.00,-12.00,-18.00,-12.00,+6.00,-25.00,-15.00,-77.00,-54.00,-9.00,-17.00,-10.00,-2.00,-20.00,-14.00
+55.00,+34.00,+15.00,+6.00,+21.00,-18.00,+18.00,+42.00,+49.00,+30.00,+6.00,-4.00,-15.00,+9.00,+21.00,-1.00
-35.00,-47.00,-9.00,+8.00,+0.00,+30.00,-21.00,-23.00,-28.00,-7.00,-4.00,-2.00,+0.00,-19.00,+6.00,-6.00
+15.00,+30.00,+2.00,-1.00,+4.00,-17.00,+18.00,+9.00,+2.00,+31.00,+36.00,+5.00,-2.00,-4.00,+6.00,-6.00
+20.00,+44.00,+55.00,+17.00,+6.00,+36.00,+9.00,+9.00,-27.00,-76.00,-66.00,-13.00,-1.00,-9.00,-5.00,-3.00
+24.00,-50.00,-22.00,-24.00,-20.00,-28.00,-6.00,+16.00,-56.00,-17.00,-10.00,-4.00,+3.00,+2.00,-21.00,-3.00
+43.00,+25.00,+1.00,+1.00,+6.00,+23.00,+12.00,+6.00,+29.00,-28.00,-11.00,-4.00,-4.00,-3.00,+16.00,+0.00
-3.00,-8.00,-10.00,+3.00,-10.00,-49.00,-15.00,-29.00,-11.00,+26.00,+17.00,+18.00,-1.00,-8.00,-15.00,-13.00
+10.00,-1.00,-11.00,-6.00,+10.00,+2.00,+7.00,+7.00,+19.00,+30.00,+19.00,-8.00,+11.00,+2.00,-7.00,-23.00
-26.00,-16.00,+9.00,+10.00,+0.00,-1.00,-3.00,+8.00,+9.00,+0.00,+4.00,-4.00,-15.00,+9.00,+6.00,+71.00
-17.00,+5.00,-12.00,-4.00,+8.00,-18.00,-12.00,-16.00,-25.00,+18.00,+19.00,+0.00,-4.00,-4.00,+4.00,-10.00
+36.00,+5.00,+24.00,+9.00,-7.00,+6.00,+11.00,+16.00,-25.00,-18.00,-18.00,-1.00,+7.00,-4.00,+8.00,+8.00
-2.00,-5.00,-8.00,-1.00,-20.00,+85.00,-15.00,+14.00,+32.00,+14.00,+12.00,+15.00,+17.00,+11.00,-6.00,+5.00
-27.00,+23.00,+2.00,+4.00,+22.00,-26.00,+40.00,+1.00,-28.00,-20.00,-14.00,-1.00,-2.00,-35.00,-2.00,-18.00
-44.00,-18.00,-6.00,+0.00,-7.00,+7.00,-13.00,-19.00,+2.00,-3.00,+3.00,-11.00,-24.00,+1.00,+13.00,+7.00
+2.00,-11.00,+0.00,-2.00,+7.00,+5.00,+23.00,+1.00,-29.00,+5.00,-3.00,-3.00,-4.00,-7.00,-10.00,-10.00
+0.00,+6.00,-9.00,-10.00,+11.00,-20.00,-1.00,+1.00,-22.00,+0.00,+5.00,+1.00,-14.00,+7.00,-7.00,-24.00
+7.00,-23.00,-10.00,-4.00,-20.00,-4.00,-13.00,+5.00,+38.00,+3.00,+8.00,+3.00,+16.00,-1.00,-7.00,+20.00
+18.00,+14.00,+14.00,+11.00,+0.00,-6.00,+6.00,+7.00,-21.00,-8.00,-9.00,+5.00,+11.00,-6.00,+5.00,+13.00
+7.00,-42.00,+0.00,-2.00,+6.00,+5.00,-8.00,-3.00,+32.00,+9.00,-8.00,-8.00,-7.00,-9.00,-5.00,-33.00
+35.00,+11.00,+5.00,+7.00,+4.00,-5.00,+10.00,+13.00,+1.00,+3.00,+13.00,+10.00,+5.00,+2.00,+9.00,+24.00
-17.00,+6.00,+3.00,+0.00,-12.00,-8.00,-19.00,-11.00,-20.00,-5.00,-4.00,+1.00,+4.00,+11.00,+1.00,-28.00
+0.00,+10.00,-3.00,-1.00,+4.00,+3.00,-7.00,-9.00,+13.00,+11.00,-2.00,-1.00,+3.00,+0.00,+22.00,+0.00
-8.00,+0.00,-9.00,-2.00,+3.00,+50.00,-5.00,-10.00,-16.00,-11.00,-2.00,-2.00,-3.00,+2.00,-2.00,+5.00
-19.00,-6.00,-12.00,-3.00,-4.00,-85.00,+8.00,-3.00,+31.00,+11.00,+7.00,-1.00,-2.00,-2.00,-6.00,+3.00
+11.00,+0.00,-5.00,+0.00,-26.00,-10.00,-13.00,-13.00,+3.00,+8.00,-3.00,+8.00,+5.00,+10.00,-1.00,-10.00
-45.00,-4.00,-15.00,-23.00,-105.00,-90.00,-13.00,-9.00,-6.00,-15.00,+6.00,+44.00,+72.00,+7.00,-1.00,-11.00
-24.00,-26.00,+15.00,+20.00,+75.00,+85.00,+15.00,+12.00,+20.00,-6.00,+1.00,+8.00,+13.00,-6.00,+5.00,+18.00
-26.00,+19.00,+1.00,+7.00,+14.00,-9.00,+3.00,+2.00,+13.00,-2.00,-7.00,-33.00,-43.00,-9.00,-4.00,+10.00
-66.00,+4.00,+10.00,+3.00,+21.00,+14.00,+5.00,-6.00,-41.00,-7.00,-2.00,-14.00,-11.00,+0.00,+0.00,-12.00
-54.00,+11.00,-16.00,+1.00,+2.00,-70.00,+0.00,+0.00,-23.00,+11.00,-3.00,-10.00,-8.00,-10.00,-6.00,-13.00
-69.00,-21.00,-10.00,-23.00,-59.00,-37.00,-15.00,-24.00,-26.00,-14.00,-9.00,+12.00,+10.00,+0.00,+0.00,-5.00
-1.00,-2.00,-3.00,-6.00,-4.00,+15.00,+1.00,+4.00,+25.00,+1.00,-2.00,+4.00,+0.00,-4.00,-1.00,+9.00
+52.00,+9.00,-6.00,-8.00,+3.00,-13.00,-3.00,+6.00,-20.00,-7.00,-5.00,-1.00,+4.00,+7.00,+5.00,-8.00
+55.00,-30.00,-4.00,+0.00,+4.00,+47.00,+4.00,-8.00,+10.00,+9.00,+6.00,+8.00,-10.00,-3.00,-2.00,-9.00
+62.00,+5.00,-4.00,+2.00,-13.00,-36.00,-6.00,+2.00,+21.00,+7.00,+5.00,-5.00,-6.00,+0.00,-3.00,+8.00
+54.00,+16.00,+4.00,+3.00,+12.00,+16.00,+2.00,+2.00,+10.00,+50.00,+37.00,+10.00,-2.00,+2.00,+3.00,+10.00
+23.00,-11.00,-6.00,+1.00,-22.00,-36.00,-14.00,-6.00,-12.00,-14.00,-24.00,-9.00,-3.00,+0.00,+0.00,+11.00
+59.00,+9.00,+14.00,+5.00,+26.00,+37.00,+10.00,+12.00,-38.00,-30.00,-9.00,-5.00,-6.00,+0.00,-3.00,-46.00
-5.00,+38.00,+4.00,+1.00,-3.00,-18.00,-3.00,+8.00,+14.00,-6.00,-26.00,-21.00,-11.00,-7.00,-3.00,+5.00
-15.00,-13.00,-4.00,+0.00,-5.00,+0.00,-2.00,-3.00,+24.00,+14.00,+18.00,+5.00,+10.00,-2.00,-6.00,+2.00
-30.00,-61.00,-11.00,-7.00,-10.00,+13.00,+9.00,+7.00,+25.00,+1.00,+1.00,+6.00,+3.00,+1.00,-2.00,-7.00
+13.00,+18.00,+12.00,+4.00,+24.00,+28.00,-7.00,-4.00,-36.00,-22.00,+2.00,-10.00,-13.00,-2.00,-2.00,+10.00
+3.00,+5.00,-1.00,-1.00,-2.00,-32.00,-4.00,-9.00,-22.00,+3.00,+4.00,-6.00,-1.00,+2.00,-7.00,-15.00
+56.00,+13.00,-2.00,-6.00,-11.00,+5.00,+10.00,+23.00,+34.00,+23.00,+1.00,+8.00,+6.00,+5.00,+0.00,+4.00
-17.00,+9.00,-6.00,-5.00,+1.00,-36.00,-7.00,+0.00,-6.00,-7.00,-1.00,-1.00,-6.00,+0.00,-3.00,-18.00
-8.00,-19.00,-1.00,-1.00,-31.00,+25.00,-1.00,-11.00,+31.00,+5.00,-11.00,+0.00,+4.00,-6.00,-3.00,+13.00
-26.00,+2.00,-6.00,-7.00,-24.00,-18.00,+27.00,+33.00,-16.00,-10.00,-5.00,-13.00,-14.00,+4.00,+0.00,-12.00
-9.00,+5.00,+3.00,+3.00,+42.00,+25.00,-19.00,-8.00,+2.00,-11.00,-7.00,+5.00,-32.00,-1.00,+3.00,+19.00
-6.00,-6.00,+5.00,+7.00,+61.00,+33.00,-6.00,+4.00,+7.00,-1.00,-8.00,-26.00,-17.00,-7.00,-3.00,-6.00
-9.00,+1.00,-1.00,+4.00,-6.00,-46.00,-34.00,-1.00,+2.00,-1.00,+2.00,-8.00,-6.00,-6.00,-7.00,-2.00
+20.00,+0.00,-2.00,-3.00,-8.00,-38.00,+31.00,+1.00,-8.00,-7.00,-5.00,+6.00,+16.00,+23.00,+1.00,-2.00
-19.00,-7.00,-2.00,-4.00,-29.00,+33.00,+0.00,-4.00,+0.00,-7.00,-8.00,+3.00,+5.00,+3.00,+0.00,-6.00
+1.00,+10.00,+4.00,+3.00,-23.00,-75.00,-7.00,-6.00,+1.00,+6.00,+9.00,+11.00,+5.00,+1.00,-2.00,+1.00
+0.00,-6.00,-3.00,-4.00,+19.00,+25.00,-17.00,+1.00,-5.00,+3.00,-5.00,-7.00,-14.00,+8.00,+3.00,+7.00
+12.00,+11.00,-4.00,-3.00,-18.00,+10.00,+4.00,+0.00,+10.00,+0.00,+5.00,+7.00,-6.00,-17.00,-3.00,-7.00
-19.00,-31.00,-10.00,+2.00,+3.00,-29.00,+0.00,-9.00,-25.00,-17.00,-10.00,-5.00,+5.00,-3.00,+0.00,-4.00
-9.00,+6.00,+5.00,-9.00,-11.00,+37.00,+5.00,+11.00,+32.00,+17.00,+13.00,+4.00,+2.00,+1.00,+4.00,+3.00
+9.00,+12.00,-3.00,-2.00,+4.00,+13.00,+13.00,-3.00,-14.00,-12.00,-12.00,-11.00,-1.00,-6.00,-9.00,-16.00
+31.00,-13.00,+17.00,+14.00,+14.00,-10.00,-12.00,+6.00,+24.00,+14.00,+7.00,+2.00,-1.00,+3.00,+1.00,+13.00
-9.00,-4.00,+3.00,+0.00,-6.00,+6.00,+3.00,-4.00,-4.00,-8.00,+3.00,+1.00,+7.00,-3.00,-5.00,-12.00
+3.00,-5.00,-7.00,-2.00,-2.00,+23.00,+4.00,+9.00,-20.00,-6.00,+5.00,+4.00,+10.00,+2.00,+2.00,+9.00
+2.00,-5.00,-5.00,-6.00,-1.00,+4.00,+12.00,-4.00,-16.00,-1.00,-11.00,-4.00,-10.00,-6.00,-2.00,-14.00
-9.00,+13.00,-9.00,-5.00,-2.00,+5.00,-18.00,+0.00,+10.00,+10.00,+12.00,-2.00,-3.00,-2.00,+3.00,+14.00
-4.00,+0.00,+5.00,+4.00,+1.00,-7.00,-1.00,-7.00,+13.00,+18.00,-6.00,-2.00,+3.00,+5.00,+6.00,+19.00
+1.00,-3.00,+3.00,-5.00,-20.00,+5.00,-2.00,+0.00,-6.00,-16.00,-8.00,+14.00,+15.00,+5.00,-2.00,-10.00
-17.00,-16.00,-7.00,-5.00,-45.00,-36.00,+5.00,+3.00,+17.00,+9.00,+0.00,+6.00,-5.00,+1.00,+2.00,+9.00
+5.00,+14.00,+2.00,+9.00,+84.00,+45.00,-6.00,-8.00,-29.00,-13.00,-7.00,-24.00,-37.00,-10.00,-6.00,-13.00
+2.00,+5.00,+0.00,+0.00,+10.00,-6.00,+0.00,+4.00,+1.00,-9.00,-3.00,-11.00,+15.00,-3.00,+0.00,+7.00
+5.00,+8.00,-4.00,-4.00,-17.00,-50.00,-3.00,+2.00,-1.00,-3.00,-5.00,+10.00,+14.00,-2.00,+0.00,-3.00
-10.00,+4.00,+5.00,+9.00,+20.00,+6.00,+9.00,-3.00,+17.00,+1.00,-2.00,-36.00,-38.00,-7.00,+1.00,+8.00
-7.00,-17.00,-10.00,-9.00,-26.00,-14.00,-13.00,-10.00,+8.00,+2.00,+1.00,+10.00,+11.00,-1.00,-2.00,-5.00
+24.00,+13.00,-2.00,-7.00,-17.00,-11.00,-2.00,-17.00,-12.00,-18.00,-8.00,-3.00,-6.00,-3.00,-2.00,-7.00
-15.00,-6.00,+1.00,+3.00,+4.00,+17.00,+0.00,+3.00,+0.00,+3.00,+3.00,-4.00,-4.00,-1.00,+1.00,+3.00
+4.00,+6.00,+1.00,+2.00,+11.00,+6.00,+3.00,+5.00,-9.00,-3.00,-1.00,+13.00,+15.00,+0.00,-2.00,+1.00
+3.00,+1.00,+4.00,+3.00,-13.00,-7.00,-6.00,+1.00,-10.00,+2.00,+9.00,+8.00,+3.00,-1.00,+1.00,-1.00
+0.00,+2.00,+2.00,-3.00,+1.00,-16.00,-1.00,-3.00,+2.00,-13.00,-7.00,-5.00,-7.00,-5.00,-1.00,+7.00
+0.00,+0.00,-3.00,+0.00,-10.00,+14.00,+1.00,-13.00,-22.00,+4.00,-5.00,-2.00,+1.00,+2.00,-3.00,-10.00
-13.00,-13.00,-8.00,-4.00,+9.00,+8.00,+4.00,+6.00,+21.00,+7.00,-2.00,-3.00,+1.00,-3.00,+0.00,-2.00
-7.00,+30.00,+0.00,-8.00,-8.00,-7.00,-11.00,-23.00,-30.00,-23.00,-15.00,-6.00,-4.00,-7.00,-2.00,+2.00
-15.00,-16.00,-5.00,-5.00,-10.00,-4.00,+2.00,+27.00,-8.00,-14.00,-5.00,+0.00,+5.00,+1.00,+4.00,+12.00
-62.00,+0.00,-6.00,-3.00,+3.00,+13.00,-4.00,-5.00,+7.00,+2.00,+0.00,-4.00,-7.00,-2.00,-1.00,-2.00
+7.00,-24.00,+10.00,+9.00,+14.00,+13.00,+7.00,+10.00,-23.00,+24.00,+13.00,+8.00,+3.00,+0.00,+0.00,-3.00
-16.00,-24.00,+1.00,+5.00,-5.00,-5.00,-1.00,-8.00,+2.00,+1.00,-4.00,-2.00,+6.00,+0.00,-4.00,-11.00
-27.00,-14.00,-4.00,-6.00,-9.00,-6.00,-5.00,-16.00,-7.00,+3.00,+0.00,+3.00,+0.00,-1.00,-4.00,-4.00
+5.00,+49.00,+2.00,-12.00,-5.00,+4.00,-3.00,-8.00,-6.00,-23.00,-11.00,-9.00,-10.00,-3.00,-4.00,-1.00
-13.00,-42.00,-14.00,-3.00,+9.00,+2.00,-1.00,+3.00,+6.00,+2.00,+0.00,-3.00,+0.00,-1.00,+1.00,+10.00
-4.00,+9.00,+4.00,+0.00,-18.00,+54.00,-1.00,-2.00,+5.00,-2.00,-1.00,+11.00,+5.00,+2.00,-1.00,-2.00
+15.00,+1.00,+0.00,+5.00,+7.00,-62.00,-7.00,-4.00,-13.00,+3.00,+0.00,-4.00,+5.00,-1.00,-3.00,-7.00
+5.00,-25.00,+1.00,+6.00,+11.00,+33.00,+1.00,+6.00,+20.00,+16.00,+8.00,-7.00,-10.00,-3.00,+0.00,+5.00
+1.00,+31.00,+1.00,-10.00,-52.00,-29.00,-1.00,-15.00,+3.00,-15.00,-7.00,+4.00,+7.00,+0.00,+0.00,-1.00
+11.00,-9.00,-4.00,-3.00,-15.00,-45.00,-4.00,+15.00,+4.00,+4.00,+3.00,+15.00,+9.00,+5.00,-1.00,+0.00
+0.00,+8.00,+2.00,+4.00,+66.00,+50.00,+8.00,+16.00,+5.00,-2.00,+2.00,-12.00,-27.00,-9.00,-4.00,-2.00
+15.00,-5.00,+7.00,+7.00,+13.00,+4.00,-2.00,-13.00,+0.00,+2.00,-4.00,-9.00,-11.00,-2.00,+2.00,+0.00
+30.00,+12.00,+3.00,+2.00,+21.00,+24.00,+2.00,-13.00,+1.00,-1.00,+2.00,-4.00,-1.00,+0.00,-1.00,+12.00
-23.00,-9.00,-7.00,-8.00,-35.00,-28.00,-3.00,-13.00,-10.00,-7.00,-5.00,-2.00,+3.00,-3.00,+0.00,+1.00
-1.00,+11.00,+1.00,-6.00,-26.00,-8.00,+2.00,+0.00,-5.00,+1.00,-1.00,+9.00,+10.00,+3.00,-1.00,-16.00
+9.00,-6.00,-3.00,+3.00,+6.00,-4.00,-4.00,+1.00,+7.00,+1.00,+9.00,+1.00,-1.00,-3.00,-5.00,-9.00
-5.00,+1.00,-2.00,+2.00,-7.00,+3.00,-4.00,+1.00,-14.00,-26.00,+28.00,+10.00,+5.00,-1.00,-1.00,-1.00
-4.00,-24.00,-2.00,+2.00,+7.00,-9.00,-5.00,+0.00,+10.00,+27.00,-40.00,-9.00,-2.00,-4.00,-3.00,-5.00
-9.00,+14.00,-3.00,-12.00,-10.00,+3.00,-4.00,-9.00,-5.00,-26.00,-3.00,+1.00,-3.00,-4.00,-5.00,-8.00
-58.00,+5.00,-3.00,-3.00,-7.00,+5.00,+0.00,+7.00,-5.00,-16.00,-7.00,-4.00,+2.00,+5.00,+12.00,+25.00
+10.00,+43.00,+13.00,+5.00,+6.00,+2.00,+2.00,+3.00,-19.00,-11.00,-6.00,-1.00,-2.00,+1.00,-3.00,-9.00
+0.00,-23.00,-3.00,+0.00,+10.00,+1.00,+1.00,-1.00,+6.00,+0.00,+7.00,-7.00,-4.00,-3.00,-2.00,+0.00
-2.00,-12.00,+6.00,+6.00,-3.00,+12.00,+5.00,+4.00,-28.00,-4.00,+0.00,-2.00,-1.00,+3.00,+4.00,+2.00
+20.00,+3.00,-7.00,-7.00,-18.00,-13.00,+0.00,-1.00,-9.00,+1.00,-7.00,+1.00,+0.00,-1.00,-5.00,-10.00
-14.00,-11.00,-16.00,-9.00,+14.00,+2.00,-3.00,-1.00,+5.00,+5.00,+0.00,+0.00,-1.00,-3.00,-4.00,-8.00
-13.00,+13.00,+3.00,-1.00,+14.00,-2.00,-1.00,+5.00,-6.00,+0.00,+10.00,-6.00,-5.00,+0.00,+0.00,+4.00
+1.00,+11.00,-1.00,+1.00,-16.00,-2.00,-2.00,-7.00,+11.00,+13.00,-5.00,+1.00,+4.00,+2.00,-4.00,-1.00
+20.00,+5.00,-2.00,+1.00,-1.00,-4.00,+1.00,-3.00,+4.00,+1.00,+4.00,+4.00,+2.00,-1.00,-2.00,-5.00
-10.00,-16.00,+6.00,+6.00,+11.00,+5.00,+5.00,+7.00,+3.00,+7.00,-5.00,-4.00,-3.00,-1.00,+0.00,+1.00
+17.00,+5.00,+3.00,+0.00,-5.00,+7.00,+3.00,+3.00,+0.00,-15.00,-10.00,+0.00,+0.00,-1.00,-3.00,-3.00
-5.00,-6.00,-7.00,-2.00,-12.00,+0.00,-1.00,-6.00,+8.00,+6.00,+5.00,+1.00,+3.00,+2.00,-2.00,+1.00
+16.00,+6.00,+0.00,+0.00,+2.00,-2.00,+1.00,+0.00,-3.00,+1.00,-6.00,-2.00,+0.00,+0.00,-4.00,-5.00
-4.00,-4.00,-3.00,+0.00,+6.00,+7.00,-1.00,-2.00,+5.00,+0.00,-6.00,-3.00,-2.00,-4.00,-1.00,-4.00
-5.00,+2.00,+1.00,+0.00,-3.00,-7.00,-6.00,+2.00,+0.00,+0.00,+8.00,-4.00,+1.00,-3.00,+1.00,+4.00
+4.00,+4.00,-3.00,-2.00,-2.00,-6.00,-2.00,+2.00,+2.00,-4.00,-3.00,+2.00,+1.00,-3.00,-1.00,+0.00
+5.00,-10.00,+3.00,+3.00,+5.00,+7.00,+2.00,+1.00,-2.00,-1.00,+1.00,-1.00,+1.00,-1.00,-2.00,-5.00
-18.00,+2.00,+0.00,-6.00,-7.00,-12.00,-3.00,+14.00,+5.00,+7.00,-9.00,+2.00,+6.00,+3.00,+2.00,-1.00
-2.00,-34.00,-11.00,-7.00,-25.00,-6.00,-3.00,-1.00,-4.00,-9.00,-2.00,-7.00,-4.00,+0.00,-2.00,-5.00
-17.00,+52.00,+1.00,+0.00,+19.00,+9.00,-2.00,-2.00,-1.00,-4.00,-4.00,-14.00,-20.00,+1.00,-1.00,-2.00
+5.00,+1.00,+1.00,-1.00,+2.00,+7.00,+0.00,-2.00,+15.00,+14.00,+4.00,-1.00,-8.00,+0.00,-1.00,+4.00
+3.00,-14.00,+2.00,+2.00,+4.00,+5.00,+1.00,-1.00,-13.00,+1.00,+1.00,+0.00,+0.00,+1.00,-1.00,-1.00
-4.00,+23.00,+6.00,+1.00,-4.00,+4.00,-1.00,-4.00,+2.00,-5.00,-4.00,+0.00,-1.00,-2.00,-1.00,+1.00
+6.00,-25.00,-2.00,+1.00,-17.00,-4.00,-1.00,+1.00,-7.00,-4.00,-3.00,+4.00,+6.00,-1.00,+0.00,-5.00
+5.00,-18.00,-7.00,+0.00,-3.00,-9.00,-1.00,-4.00,-5.00,-3.00,+2.00,+0.00,+1.00,-1.00,-3.00,-9.00
-16.00,+0.00,-5.00,-11.00,-2.00,+1.00,+0.00,-5.00,+12.00,-2.00,+1.00,-2.00,-6.00,+0.00,-3.00,+2.00
-6.00,-3.00,-11.00,-11.00,-1.00,-11.00,-7.00,-16.00,-10.00,+1.00,+5.00,-4.00,-3.00,-1.00,+2.00,-4.00
+21.00,-6.00,-1.00,-2.00,-8.00,-3.00,+2.00,+22.00,+2.00,-2.00,-6.00,+7.00,+7.00,+0.00,-3.00,-2.00
+0.00,-5.00,+1.00,+2.00,+8.00,+3.00,+5.00,+12.00,-3.00,-8.00,-1.00,-5.00,-6.00,-1.00,-1.00,+8.00
-7.00,+5.00,+4.00,+8.00,+3.00,+5.00,-1.00,+7.00,+5.00,+3.00,-4.00,-4.00,+0.00,-1.00,+0.00,-5.00
-2.00,+6.00,-1.00,+0.00,+8.00,+8.00,+2.00,-3.00,-10.00,-6.00,-1.00,-2.00,-1.00,-3.00,+0.00,-5.00
-5.00,+1.00,+1.00,-1.00,-3.00,-4.00,-5.00,-8.00,+5.00,+2.00,+0.00,-3.00,-1.00,-4.00,-1.00,-3.00
+0.00,-12.00,-3.00,-3.00,-8.00,-2.00,-4.00,-4.00,-3.00,+6.00,+12.00,+7.00,+1.00,-1.00,+2.00,+4.00
+7.00,+4.00,+3.00,+0.00,+0.00,-3.00,-1.00,-7.00,-16.00,-18.00,-21.00,-9.00,-4.00,-3.00,-6.00,-13.00
+1.00,+9.00,-3.00,+2.00,+7.00,+0.00,+1.00,-3.00,+16.00,+7.00,+6.00,+5.00,+0.00,+4.00,+5.00,+17.00
-8.00,-9.00,+0.00,+3.00,+1.00,-1.00,-4.00,-9.00,+3.00,+4.00,+6.00,+2.00,+0.00,+0.00,-4.00,+2.00
+1.00,+9.00,+3.00,+0.00,-3.00,-5.00,-2.00,-1.00,-8.00,-7.00,-9.00,-2.00,+1.00,-2.00,-4.00,-11.00
-3.00,-1.00,-3.00,-3.00,-2.00,-4.00,-2.00,-6.00,-1.00,+5.00,+5.00,+0.00,+3.00,-5.00,+1.00,+8.00
+8.00,+7.00,+4.00,+0.00,+7.00,+5.00,+0.00,+7.00,-8.00,+1.00,+0.00,-1.00,-5.00,-4.00,-4.00,-4.00
+0.00,-1.00,+3.00,+3.00,-2.00,+1.00,+1.00,-1.00,+11.00,+3.00,-2.00,-2.00,+1.00,-3.00,+0.00,+0.00
-32.00,-26.00,-4.00,-3.00,-4.00,-7.00,+1.00,+8.00,+0.00,+6.00,+4.00,+1.00,+0.00,+2.00,+0.00,+0.00
+20.00,+53.00,+4.00,+1.00,+0.00,-2.00,+0.00,+8.00,-1.00,-7.00,-3.00,-3.00,-3.00,+0.00,+0.00,+0.00
-7.00,-30.00,+1.00,+1.00,+1.00,-1.00,+1.00,+1.00,+27.00,+7.00,+4.00,+2.00,+2.00,+1.00,+3.00,+9.00
+6.00,-2.00,-1.00,-2.00,-2.00,-1.00,+2.00,+4.00,-13.00,+3.00,+4.00,+2.00,+1.00,+1.00,+2.00,-2.00
-8.00,-4.00,+1.00,-1.00,+0.00,-1.00,-5.00,-26.00,-10.00,-5.00,-6.00,-2.00,-2.00,+0.00,+1.00,+0.00
+18.00,+3.00,-3.00,+0.00,+2.00,+0.00,+2.00,+4.00,+10.00,+7.00,+2.00,+1.00,+0.00,+2.00,+1.00,-1.00
-1.00,+4.00,-1.00,+1.00,+0.00,-4.00,+0.00,+4.00,-4.00,-7.00,-6.00,-3.00,+1.00,-3.00,-2.00,-5.00
+4.00,-6.00,-3.00,+1.00,-3.00,-1.00,-1.00,-6.00,-11.00,-4.00,+1.00,+1.00,+0.00,-1.00,-1.00,-1.00
+15.00,+9.00,+0.00,-3.00,-32.00,-3.00,+0.00,+1.00,+9.00,+2.00,-4.00,+8.00,+7.00,-1.00,-2.00,-4.00
-5.00,-14.00,-1.00,+1.00,+23.00,-5.00,-2.00,-7.00,+1.00,+3.00,-3.00,-16.00,-10.00,-3.00,+0.00,+3.00
+3.00,+12.00,-1.00,-6.00,-43.00,-4.00,-2.00,-1.00,-1.00,-4.00,+3.00,+21.00,+2.00,+3.00,-2.00,-11.00
-2.00,-3.00,-1.00,+8.00,+77.00,-7.00,-5.00,-3.00,-2.00,+0.00,-4.00,-45.00,-25.00,-6.00,-2.00,+0.00
+10.00,+1.00,+0.00,+0.00,+5.00,+19.00,+2.00,+2.00,-12.00,-7.00,-2.00,-5.00,-7.00,-1.00,+1.00,-6.00
-11.00,-8.00,-9.00,-11.00,-7.00,+16.00,-2.00,+2.00,+2.00,-4.00,-3.00,-3.00,-4.00,-1.00,-1.00,-1.00
-3.00,+3.00,+1.00,-4.00,-4.00,-12.00,-5.00,-5.00,-12.00,-4.00,-5.00,+2.00,+6.00,-1.00,-4.00,-5.00
-2.00,+2.00,+1.00,-10.00,-32.00,-16.00,+1.00,+7.00,+8.00,-1.00,-9.00,+8.00,+4.00,+1.00,-2.00,-10.00
+3.00,-22.00,-8.00,+3.00,+4.00,-12.00,-3.00,-14.00,+2.00,-2.00,-2.00,+0.00,+5.00,+0.00,+2.00,+10.00
-5.00,+4.00,+2.00,+4.00,-6.00,-1.00,+2.00,+16.00,-1.00,+2.00,+0.00,+4.00,+4.00,-1.00,+5.00,+24.00
+10.00,+6.00,+5.00,+6.00,+8.00,+5.00,+7.00,+10.00,-3.00,+2.00,+5.00,-1.00,-3.00,+3.00,+2.00,+7.00
-3.00,+5.00,-4.00,-7.00,-19.00,+5.00,+0.00,-3.00,-3.00,+0.00,+1.00,+9.00,+7.00,+2.00,+1.00,+7.00
-14.00,-4.00,-3.00,-3.00,+10.00,-3.00,-2.00,+4.00,+3.00,-4.00,-2.00,-6.00,-3.00,-4.00,-2.00,-4.00
-9.00,-24.00,-2.00,+0.00,-5.00,-1.00,-3.00,-8.00,-16.00,-14.00,-1.00,+5.00,+3.00,-2.00,-1.00,-12.00
+6.00,-6.00,-1.00,+0.00,+4.00,+0.00,-3.00,-2.00,-2.00,-4.00,-9.00,-10.00,-4.00,-4.00,-4.00,-4.00
-6.00,-12.00,-2.00,+2.00,-1.00,+4.00,+0.00,-5.00,+3.00,+4.00,+5.00,+2.00,-1.00,+1.00,+1.00,+6.00
-17.00,+15.00,+3.00,-2.00,-1.00,-1.00,-2.00,+0.00,-10.00,-4.00,-5.00,-2.00,+0.00,+0.00,+1.00,-2.00
-9.00,-2.00,-5.00,-3.00,-1.00,-5.00,-3.00,-17.00,-3.00,+0.00,+1.00,+0.00,-5.00,-3.00,-4.00,-8.00
-3.00,+2.00,-1.00,+0.00,+12.00,-1.00,-2.00,-1.00,-16.00,+0.00,+8.00,-1.00,+0.00,-1.00,-4.00,+0.00
-13.00,+4.00,-8.00,-9.00,-13.00,+1.00,-2.00,+5.00,-13.00,-10.00,-6.00,+1.00,+1.00,+0.00,-1.00,-4.00
+13.00,+17.00,+3.00,+0.00,+1.00,+0.00,+0.00,+5.00,+7.00,-3.00,-9.00,-3.00,-3.00,-1.00,-6.00,-1.00
+3.00,-2.00,+7.00,+2.00,-9.00,-1.00,+4.00,+1.00,-3.00,+11.00,+6.00,+6.00,+5.00,+3.00,+0.00,+5.00
-4.00,-8.00,-6.00,-1.00,+5.00,+1.00,-1.00,-5.00,+9.00,+5.00,+1.00,+3.00,+7.00,+0.00,-2.00,-4.00
+11.00,-1.00,-2.00,+0.00,+0.00,+10.00,-1.00,-1.00,-5.00,-2.00,+1.00,+6.00,-1.00,+0.00,-2.00,-1.00
+11.00,-11.00,-5.00,-5.00,-4.00,-15.00,-4.00,-10.00,+9.00,-3.00,-10.00,-14.00,-9.00,-1.00,-4.00,-20.00
+2.00,+5.00,+7.00,+6.00,+10.00,-1.00,-10.00,-21.00,+6.00,-2.00,+0.00,-2.00,-8.00,-6.00,-2.00,+6.00
+11.00,-1.00,+3.00,-6.00,-17.00,+1.00,+4.00,+25.00,+2.00,-4.00,-2.00,-1.00,+4.00,+1.00,+4.00,+21.00
-1.00,-4.00,-12.00,-4.00,+5.00,+0.00,+6.00,+15.00,-5.00,-1.00,+1.00,-4.00,-14.00,-4.00,-19.00,-29.00
+3.00,-3.00,-1.00,-1.00,+3.00,+3.00,+1.00,+10.00,-4.00,+2.00,+0.00,-2.00,+4.00,+3.00,+7.00,+12.00
-4.00,-14.00,+0.00,+2.00,-6.00,-2.00,-3.00,-11.00,+8.00,+7.00,+4.00,+8.00,-2.00,-2.00,-5.00,-10.00
-10.00,+25.00,+4.00,+2.00,-7.00,-2.00,-6.00,-20.00,-1.00,+1.00,+1.00,-1.00,+12.00,-1.00,+0.00,-9.00
-2.00,+8.00,+9.00,+6.00,+17.00,+5.00,-2.00,-13.00,+6.00,+1.00,-1.00,-5.00,+0.00,-2.00,+2.00,+16.00
+4.00,-8.00,+5.00,+6.00,+11.00,-1.00,+3.00,+3.00,-2.00,-2.00,+0.00,-4.00,-2.00,+0.00,-6.00,-4.00
-5.00,+0.00,-1.00,-8.00,-10.00,-5.00,+1.00,+8.00,-2.00,-1.00,-3.00,-4.00,+2.00,+1.00,+0.00,-6.00
-14.00,+3.00,-2.00,-4.00,+3.00,-1.00,-4.00,+8.00,-1.00,-1.00,+2.00,+2.00,-10.00,-3.00,-1.00,+5.00
-5.00,-10.00,-4.00,-2.00,-9.00,-4.00,+2.00,+2.00,+8.00,+0.00,-4.00,+3.00,+7.00,+3.00,+8.00,+4.00
+9.00,-6.00,-5.00,-6.00,-8.00,+0.00,-3.00,+1.00,-12.00,-7.00,+1.00,+4.00,+2.00,-2.00,-1.00,-7.00
+2.00,+2.00,-7.00,-6.00,-4.00,-1.00,-1.00,+0.00,+10.00,-4.00,-5.00,-2.00,-4.00,+0.00,+1.00,-3.00
+22.00,+0.00,+2.00,+2.00,+9.00,+2.00,+2.00,+6.00,-16.00,-6.00,-2.00,-4.00,-4.00,-2.00,-5.00,-10.00
-20.00,-9.00,+4.00,+1.00,-10.00,-3.00,-5.00,-22.00,-4.00,-5.00,-3.00,+0.00,+2.00,-2.00,-2.00,-4.00
+2.00,+16.00,+2.00,+2.00,+1.00,+2.00,+2.00,-3.00,+15.00,+14.00,+6.00,+6.00,+0.00,+2.00,+5.00,+20.00
+2.00,+4.00,-2.00,+0.00,+0.00,-2.00,-1.00,+0.00,-8.00,-4.00,+0.00,-1.00,+3.00,-1.00,-6.00,-4.00
-9.00,-15.00,-7.00,-5.00,+6.00,-2.00,-3.00,-4.00,+21.00,+7.00,-5.00,-9.00,-7.00,-2.00,+2.00,+3.00
+21.00,+11.00,+5.00,+5.00,-8.00,-2.00,+0.00,+1.00,-11.00,+2.00,+8.00,+5.00,+4.00,-2.00,+1.00,-7.00
+2.00,+0.00,-2.00,-1.00,-3.00,+0.00,-4.00,-20.00,-30.00,+2.00,+13.00,+4.00,+0.00,-5.00,-5.00,-10.00
+15.00,+10.00,+14.00,+4.00,+6.00,+0.00,-3.00,-3.00,+21.00,-28.00,-43.00,-9.00,-3.00,-4.00,-4.00,-9.00
-19.00,-26.00,-8.00,+0.00,+0.00,+0.00,-4.00,-19.00,+4.00,+5.00,-2.00,-4.00,-1.00,-5.00,-8.00,+0.00
+26.00,+34.00,+8.00,+5.00,-1.00,+3.00,+2.00,+13.00,-29.00,-20.00,-4.00,+4.00,+2.00,+1.00,+0.00,-3.00
-6.00,+11.00,-7.00,-7.00,-6.00,-4.00,+3.00,+12.00,-3.00,-8.00,-4.00,-5.00,-2.00,-1.00,+1.00,-3.00
-10.00,-6.00,-11.00,-2.00,+0.00,+1.00,+1.00,-2.00,-4.00,+10.00,+14.00,+2.00,+2.00,+1.00,+1.00,+2.00
-8.00,+2.00,+2.00,-3.00,+0.00,-2.00,-2.00,-6.00,-2.00,-8.00,-7.00,-8.00,-7.00,+0.00,+3.00,-4.00
-6.00,-19.00,-7.00,-2.00,-6.00,+0.00,-5.00,-6.00,+11.00,+7.00,+2.00,+1.00,-1.00,+0.00,+0.00,+7.00
-5.00,-8.00,-1.00,-1.00,+1.00,+0.00,-3.00,-3.00,+2.00,+2.00,+4.00,+1.00,+0.00,-2.00,-4.00,-5.00
+0.00,-7.00,-11.00,-6.00,-35.00,-14.00,+1.00,+7.00,-4.00,+2.00,+6.00,+10.00,+14.00,+4.00,+2.00,+2.00
+10.00,+8.00,+3.00,+5.00,+30.00,+10.00,+6.00,+3.00,-17.00,-9.00,-1.00,-1.00,-2.00,+2.00,-3.00,-6.00
-16.00,-8.00,-1.00,-2.00,-3.00,-1.00,-2.00,+0.00,+27.00,+11.00,+3.00,-3.00,-3.00,-1.00,+1.00,+5.00
-3.00,-8.00,+1.00,+0.00,+3.00,+6.00,+0.00,+0.00,+6.00,+1.00,-8.00,-10.00,-6.00,-4.00,-4.00,-3.00
-8.00,-9.00,+3.00,-5.00,-20.00,-12.00,-4.00,+0.00,-2.00,-1.00,+2.00,+13.00,+9.00,-1.00,+1.00,+9.00
+22.00,+12.00,+5.00,+9.00,+26.00,+10.00,+5.00,+4.00,+0.00,+4.00,+7.00,-8.00,-4.00,-1.00,-2.00,-8.00
+2.00,-3.00,-2.00,-4.00,-8.00,-4.00,-1.00,-3.00,-1.00,-4.00,-3.00,-1.00,+2.00,-2.00,+0.00,-2.00
+5.00,+14.00,-1.00,+0.00,+4.00,-1.00,-2.00,-1.00,-4.00,-12.00,-6.00,-4.00,-4.00,-1.00,-3.00,-4.00
-1.00,-12.00,+1.00,+0.00,+2.00,+3.00,+0.00,-2.00,+5.00,+14.00,+7.00,+6.00,+7.00,+1.00,-2.00,+2.00
+16.00,+3.00,-2.00,-1.00,-19.00,-6.00,-4.00,-7.00,-1.00,+0.00,-2.00,+8.00,+4.00,+0.00,-3.00,+0.00
-16.00,-8.00,-5.00,-6.00,-1.00,-5.00,-4.00,+14.00,+5.00,+1.00,-5.00,-2.00,-2.00,-2.00,-1.00,-10.00
+2.00,+0.00,+3.00,+1.00,+0.00,-3.00,-3.00,+1.00,-3.00,-7.00,-5.00,+3.00,+1.00,-1.00,-1.00,+1.00
-17.00,-2.00,-2.00,+1.00,+3.00,+4.00,+0.00,-8.00,-1.00,+3.00,+3.00,-4.00,-7.00,+0.00,+7.00,+25.00
-5.00,+1.00,-4.00,-4.00,-8.00,-3.00,-2.00,-2.00,-9.00,-6.00,-3.00,-3.00,+0.00,+0.00,+2.00,-1.00
-5.00,-11.00,-3.00,-2.00,+6.00,+2.00,+0.00,+3.00,-13.00,-8.00,-2.00,-4.00,-6.00,-3.00,+0.00,+4.00
