+25.00,+3.00,-1.00,+0.00,+0.00,-1.00,-2.00,-11.00,-6.00,-3.00,-1.00,-1.00,-1.00,-2.00,+0.00,+2.00
-12.00,-4.00,-2.00,-4.00,-1.00,+0.00,+2.00,-5.00,+0.00,-1.00,-2.00,-2.00,+0.00,-1.00,-1.00,-1.00
-13.00,-7.00,+0.00,-2.00,-3.00,-3.00,-1.00,+15.00,+2.00,-6.00,-5.00,-2.00,-2.00,-1.00,+1.00,+14.00
-11.00,+0.00,-4.00,+0.00,+1.00,+2.00,-1.00,-8.00,-13.00,-1.00,+1.00,+0.00,+1.00,-1.00,-2.00,-21.00
-6.00,-11.00,-3.00,+0.00,+1.00,+0.00,-2.00,+3.00,+1.00,-3.00,+1.00,+0.00,+0.00,+1.00,-1.00,+9.00
-5.00,+0.00,-3.00,-5.00,-1.00,-5.00,-3.00,-4.00,-6.00,-1.00,-1.00,+0.00,+2.00,+2.00,-2.00,-10.00
+6.00,-6.00,-3.00,+0.00,-1.00,-1.00,-3.00,-14.00,+13.00,+4.00,+1.00,-1.00,-1.00,-1.00,-2.00,-2.00
-17.00,+5.00,+1.00,-2.00,-3.00,-3.00,-1.00,-1.00,-1.00,-4.00,-1.00,+7.00,+5.00,+0.00,+2.00,+4.00
-8.00,+3.00,+0.00,-2.00,+0.00,+1.00,+0.00,+2.00,-1.00,-1.00,+1.00,-13.00,-10.00,-2.00,-4.00,-8.00
-5.00,+1.00,-1.00,+2.00,+1.00,+1.00,-1.00,-7.00,-1.00,-4.00,+0.00,-1.00,-2.00,-2.00,-3.00,-1.00
+1.00,-11.00,+0.00,+0.00,+1.00,+1.00,+0.00,+3.00,+20.00,+10.00,-2.00,-5.00,-4.00,-4.00,-2.00,+4.00
+8.00,-1.00,+0.00,-1.00,+0.00,+0.00,+1.00,+1.00,-33.00,-36.00,-6.00,-4.00,-3.00,+2.00,-2.00,-11.00
+15.00,+0.00,-1.00,-3.00,-7.00,-2.00,+1.00,+2.00,+50.00,+38.00,+7.00,+8.00,+3.00,-1.00,+1.00,+0.00
-29.00,+12.00,+4.00,+1.00,-3.00,-4.00,-3.00,-8.00,+5.00,+14.00,+7.00,+2.00,+0.00,+0.00,+1.00,+10.00
+38.00,+8.00,+6.00,+0.00,+0.00,+0.00,+2.00,-6.00,+0.00,+4.00,+0.00,-2.00,-4.00,+1.00,+0.00,-4.00
-9.00,-3.00,+0.00,-1.00,+1.00,-2.00,-8.00,-3.00,+9.00,+9.00,+7.00,+8.00,+7.00,-17.00,-7.00,-10.00
-14.00,-9.00,-4.00,-2.00,-2.00,-1.00,-1.00,+2.00,-18.00,-18.00,-3.00,+7.00,+9.00,+4.00,+0.00,+2.00
+22.00,-5.00,-8.00,-2.00,-2.00,-1.00,-6.00,-11.00,-1.00,-5.00,-2.00,-9.00,-12.00,-5.00,-6.00,-4.00
+0.00,-5.00,-2.00,+0.00,-2.00,-1.00,+0.00,+0.00,+0.00,-3.00,-2.00,+13.00,+17.00,+3.00,+0.00,-2.00
-6.00,-9.00,-2.00,+0.00,-1.00,+0.00,+1.00,-5.00,-4.00,+1.00,+1.00,+17.00,-4.00,+1.00,-3.00,-2.00
-13.00,+2.00,-1.00,+0.00,+2.00,+0.00,-2.00,+1.00,-12.00,-8.00,-7.00,-58.00,-38.00,-9.00,+1.00,+0.00
+4.00,-1.00,+4.00,+1.00,+1.00,-1.00,+3.00,-2.00,+4.00,+3.00,-4.00,-16.00,-7.00,-1.00,-2.00,-2.00
-12.00,+22.00,+2.00,+2.00,+2.00,+1.00,-4.00,+4.00,-16.00,-8.00,-3.00,-20.00,-15.00,-6.00,-1.00,-7.00
+39.00,+9.00,+2.00,-1.00,-2.00,-5.00,+5.00,-1.00,+0.00,+2.00,+0.00,+4.00,+9.00,+2.00,-2.00,+4.00
-15.00,-12.00,-7.00,-4.00,-2.00,-1.00,+1.00,+3.00,-5.00,-4.00,-2.00,+19.00,+10.00,+3.00,-6.00,-7.00
+12.00,+0.00,+0.00,-3.00,-2.00,-2.00,+1.00,+11.00,-7.00,-5.00,-5.00,+3.00,-25.00,+2.00,+2.00,+0.00
-8.00,-3.00,-4.00,-2.00,-1.00,+1.00,-3.00,-3.00,-6.00,-1.00,+1.00,+5.00,+44.00,+1.00,+2.00,+1.00
-16.00,-5.00,-2.00,+1.00,-1.00,+0.00,-5.00,-9.00,-8.00,-3.00,-6.00,-10.00,-7.00,-1.00,+4.00,+11.00
-9.00,-1.00,+5.00,+4.00,-8.00,-1.00,-3.00,-9.00,+19.00,+16.00,+2.00,+5.00,-1.00,-1.00,-3.00,+3.00
-16.00,-12.00,-2.00,-2.00,-1.00,-5.00,-2.00,-3.00,-4.00,-3.00,+3.00,+0.00,+5.00,-2.00,+2.00,+2.00
-8.00,-4.00,+2.00,-3.00,+1.00,-2.00,+1.00,+10.00,-16.00,-15.00,-3.00,+11.00,-5.00,+4.00,+3.00,-5.00
-2.00,-5.00,-8.00,-8.00,-5.00,-1.00,+6.00,+2.00,+0.00,-1.00,-3.00,-2.00,-1.00,+0.00,+0.00,+7.00
-5.00,-17.00,-13.00,-7.00,+0.00,-6.00,-9.00,-9.00,-6.00,-18.00,+0.00,-2.00,+5.00,-5.00,-3.00,-7.00
+29.00,+58.00,+20.00,+9.00,+1.00,+8.00,+10.00,+16.00,-3.00,-1.00,-3.00,+5.00,+5.00,+2.00,+3.00,+2.00
+5.00,-3.00,-1.00,-3.00,-6.00,+0.00,-14.00,-6.00,-23.00,+15.00,+2.00,+6.00,+2.00,+2.00,+0.00,+10.00
-8.00,+5.00,+4.00,+4.00,+5.00,-4.00,+3.00,+19.00,+9.00,+7.00,+1.00,-18.00,-14.00,+0.00,+2.00,+3.00
-6.00,-3.00,-3.00,-1.00,-4.00,-2.00,-34.00,+0.00,+22.00,+21.00,+5.00,+9.00,+2.00,+0.00,-3.00,-2.00
-39.00,-27.00,-15.00,-11.00,-21.00,-6.00,+63.00,-14.00,+4.00,-8.00,-4.00,+6.00,+0.00,+0.00,+0.00,-2.00
+4.00,-6.00,+2.00,+3.00,+22.00,+3.00,+4.00,-1.00,+20.00,+0.00,-1.00,-9.00,-13.00,-3.00,-4.00,-1.00
-21.00,-14.00,-5.00,-3.00,-6.00,+10.00,+0.00,-4.00,-13.00,-4.00,-2.00,+2.00,+4.00,+1.00,-5.00,-8.00
-8.00,-2.00,-2.00,-10.00,-84.00,-41.00,-6.00,-19.00,-14.00,-12.00,+0.00,+8.00,+10.00,+1.00,+3.00,+3.00
-25.00,-13.00,-2.00,+4.00,+76.00,+24.00,-16.00,+17.00,-2.00,-2.00,-3.00,-4.00,-5.00,-2.00,-2.00,-2.00
+6.00,-1.00,+0.00,+4.00,+11.00,+6.00,+4.00,+2.00,-11.00,-6.00,-2.00,+5.00,-1.00,-4.00,-3.00,-4.00
-4.00,-4.00,-1.00,+2.00,+15.00,+4.00,+2.00,-3.00,+7.00,+5.00,+0.00,-4.00,+3.00,+2.00,-6.00,-3.00
+16.00,+14.00,+7.00,+8.00,+15.00,+15.00,+10.00,+9.00,-6.00,-3.00,-3.00,+14.00,+0.00,+0.00,-1.00,+0.00
-1.00,-5.00,-2.00,-2.00,-36.00,-15.00,-15.00,-3.00,-2.00,-3.00,-3.00,-21.00,-5.00,-6.00,-4.00,-6.00
-10.00,-3.00,-5.00,-6.00,-17.00,-5.00,+12.00,+0.00,+0.00,+0.00,-1.00,-18.00,-23.00,-3.00,-2.00,-5.00
+8.00,+2.00,-7.00,-8.00,-9.00,-11.00,-31.00,-13.00,+10.00,+4.00,+0.00,-6.00,-3.00,-1.00,+0.00,-1.00
+39.00,+0.00,+5.00,+1.00,-1.00,+7.00,+9.00,+8.00,-10.00,-8.00,-1.00,+7.00,+19.00,+2.00,-3.00,-5.00
+5.00,-7.00,-4.00,-2.00,+19.00,+6.00,-12.00,+3.00,-16.00,-4.00,+2.00,+10.00,+15.00,+0.00,+4.00,-7.00
-33.00,-13.00,-2.00,+0.00,+8.00,+3.00,-4.00,+0.00,+6.00,+0.00,+1.00,+7.00,+4.00,+0.00,-4.00,-1.00
+7.00,+19.00,+18.00,+11.00,-7.00,-4.00,-2.00,-15.00,-4.00,-6.00,-2.00,+1.00,-8.00,-2.00,-4.00,-17.00
+29.00,+5.00,-10.00,-6.00,+9.00,+6.00,+14.00,+18.00,-30.00,-8.00,+0.00,-6.00,-8.00,-1.00,+2.00,+1.00
-10.00,-9.00,+4.00,+5.00,-19.00,-3.00,-5.00,-1.00,-5.00,-3.00,-2.00,+2.00,+0.00,-1.00,-6.00,-14.00
-9.00,+11.00,-4.00,+1.00,+17.00,+2.00,-2.00,-3.00,+16.00,-9.00,-7.00,-4.00,-4.00,-2.00,+4.00,+13.00
+8.00,+6.00,-3.00,-7.00,-20.00,-5.00,+11.00,+4.00,-6.00,+14.00,+1.00,+3.00,+2.00,+1.00,+1.00,-1.00
+23.00,+24.00,+10.00,+5.00,+27.00,+8.00,-11.00,-16.00,-8.00,-4.00,-5.00,-10.00,-30.00,-5.00,-6.00,-6.00
+2.00,+2.00,-5.00,-2.00,-5.00,-1.00,-12.00,-1.00,-13.00,-1.00,-1.00,-3.00,+16.00,-1.00,-1.00,-2.00
-15.00,-16.00,-9.00,-9.00,-31.00,-19.00,-6.00,+3.00,-13.00,-6.00,-4.00,-2.00,+2.00,+0.00,+0.00,-11.00
+0.00,-9.00,-5.00,-2.00,+5.00,-2.00,+0.00,-3.00,+9.00,-2.00,+0.00,-6.00,-4.00,+3.00,+0.00,+7.00
-34.00,-29.00,-4.00,+1.00,+12.00,+7.00,+19.00,+9.00,-9.00,-6.00,-2.00,+5.00,-1.00,+0.00,+0.00,-4.00
+16.00,+38.00,-4.00,-6.00,-29.00,-9.00,-22.00,-6.00,+14.00,+4.00,-1.00,+4.00,-1.00,-1.00,-3.00,+4.00
+12.00,+7.00,+4.00,+3.00,+17.00,+1.00,-5.00,-2.00,+0.00,+0.00,+0.00,-13.00,-15.00,-2.00,-5.00,-10.00
+13.00,-4.00,-2.00,+0.00,+4.00,+2.00,+2.00,+10.00,-1.00,-5.00,-1.00,+7.00,-3.00,-2.00,-5.00,-6.00
+0.00,+1.00,+0.00,+1.00,-16.00,-3.00,+5.00,+9.00,+5.00,+2.00,-1.00,-13.00,+1.00,-6.00,-4.00,-3.00
-1.00,-9.00,+2.00,+1.00,+11.00,-4.00,+0.00,+20.00,+8.00,+4.00,+6.00,+5.00,+1.00,+33.00,-1.00,+4.00
-5.00,-3.00,-4.00,-4.00,-1.00,+4.00,+0.00,+5.00,-1.00,+0.00,-3.00,+13.00,+13.00,-6.00,-2.00,-4.00
+12.00,+0.00,-2.00,-3.00,+7.00,+4.00,+0.00,-3.00,-3.00,-7.00,-6.00,-14.00,-10.00,-1.00,-3.00,-1.00
-16.00,+2.00,-2.00,-3.00,+4.00,-2.00,-1.00,-4.00,+5.00,+3.00,+1.00,+2.00,+2.00,+0.00,+2.00,+1.00
+4.00,-7.00,+1.00,+3.00,-8.00,-2.00,+0.00,-7.00,+0.00,-1.00,+1.00,+2.00,+1.00,-6.00,-1.00,-4.00
+7.00,+13.00,+0.00,+0.00,-9.00,-2.00,-2.00,-3.00,+2.00,+7.00,+7.00,+5.00,-3.00,+0.00,+2.00,+7.00
+2.00,-4.00,+2.00,+0.00,-20.00,+1.00,+2.00,+0.00,+4.00,+0.00,+1.00,+7.00,+6.00,+2.00,+0.00,+3.00
-42.00,-39.00,-8.00,-5.00,+29.00,+2.00,-2.00,+4.00,-15.00,-6.00,-4.00,-6.00,+1.00,-1.00,-2.00,-12.00
-14.00,+15.00,+5.00,+3.00,+6.00,+0.00,-1.00,-7.00,+3.00,-5.00,-2.00,+1.00,-2.00,-7.00,+4.00,+11.00
+4.00,+13.00,-3.00,-3.00,-7.00,-2.00,-1.00,-3.00,-2.00,+8.00,+1.00,+0.00,-2.00,+0.00,-9.00,-7.00
+34.00,-6.00,+2.00,+5.00,-1.00,+2.00,+4.00,+2.00,+7.00,+1.00,-1.00,-4.00,+2.00,-6.00,+3.00,+4.00
+2.00,-8.00,-3.00,-4.00,-9.00,-2.00,-2.00,-4.00,+5.00,-29.00,-10.00,+3.00,+7.00,+3.00,+7.00,+5.00
+11.00,+0.00,+0.00,-5.00,-24.00,-9.00,-4.00,+3.00,-18.00,+4.00,+0.00,-4.00,-13.00,-14.00,-14.00,-9.00
-6.00,+7.00,+2.00,+2.00,+17.00,+4.00,+2.00,-7.00,-6.00,+4.00,-5.00,-17.00,-12.00,+8.00,+9.00,-3.00
+2.00,+18.00,+1.00,+0.00,+7.00,+1.00,-12.00,-7.00,+15.00,+11.00,+5.00,-3.00,+2.00,-5.00,-1.00,+4.00
+2.00,-1.00,+1.00,+2.00,+7.00,+5.00,-4.00,-6.00,-7.00,+9.00,+2.00,+5.00,-2.00,-5.00,-2.00,+1.00
+5.00,-17.00,-3.00,-3.00,-2.00,-12.00,+3.00,+0.00,+2.00,-11.00,-3.00,+0.00,+4.00,-1.00,+6.00,+7.00
+15.00,-10.00,-6.00,-6.00,-23.00,+2.00,-2.00,+1.00,+18.00,-13.00,-6.00,-7.00,-4.00,+3.00,+0.00,+3.00
-18.00,-6.00,-3.00,-7.00,-27.00,-11.00,+0.00,+4.00,-16.00,+0.00,+1.00,+0.00,+0.00,+7.00,+1.00,-1.00
-4.00,+13.00,+4.00,+1.00,+48.00,+6.00,+3.00,-1.00,+6.00,+4.00,+0.00,+2.00,+2.00,-5.00,+0.00,-4.00
-31.00,-5.00,-5.00,-5.00,-29.00,-10.00,-14.00,+5.00,+1.00,-2.00,-1.00,+4.00,-3.00,-4.00,-3.00,-2.00
-5.00,-6.00,+2.00,+3.00,+25.00,+3.00,-8.00,+9.00,-3.00,-3.00,+0.00,+18.00,+3.00,+3.00,-1.00,+2.00
-7.00,-10.00,+3.00,+3.00,-32.00,-5.00,-9.00,-5.00,+2.00,-2.00,-1.00,-15.00,-3.00,-6.00,+2.00,+3.00
+4.00,+16.00,-4.00,+0.00,+20.00,-6.00,+1.00,-1.00,-3.00,-2.00,-1.00,-3.00,-3.00,-1.00,-6.00,-10.00
+3.00,+9.00,-1.00,+0.00,+11.00,+17.00,+11.00,-5.00,-6.00,+2.00,-3.00,+0.00,+2.00,+1.00,+1.00,+1.00
+3.00,-16.00,+3.00,+2.00,-11.00,-13.00,-10.00,-3.00,-1.00,+2.00,+0.00,-10.00,-7.00,-8.00,-5.00,-2.00
-5.00,-13.00,+0.00,+2.00,+14.00,+11.00,+4.00,+6.00,+2.00,-9.00,-2.00,+11.00,+1.00,+0.00,-3.00,+4.00
-14.00,+12.00,+3.00,-1.00,-20.00,-9.00,+3.00,-9.00,-14.00,-2.00,+0.00,+1.00,-1.00,+2.00,-1.00,-4.00
+12.00,-7.00,-4.00,-3.00,+4.00,-1.00,-20.00,-7.00,+17.00,+12.00,+3.00,+3.00,+7.00,+2.00,+6.00,+9.00
-12.00,-12.00,-1.00,-1.00,-11.00,-6.00,-1.00,+5.00,-5.00,-10.00,-8.00,-9.00,-9.00,-6.00,-19.00,-8.00
+12.00,+10.00,-5.00,-6.00,+6.00,-1.00,+6.00,+2.00,-6.00,+0.00,-1.00,+3.00,+1.00,-9.00,+9.00,+9.00
-10.00,-11.00,+1.00,-3.00,-14.00,-1.00,+2.00,-1.00,+27.00,+12.00,+4.00,-4.00,-17.00,-10.00,-7.00,-2.00
-2.00,+12.00,-3.00,+1.00,-7.00,-3.00,-4.00,-6.00,-22.00,-8.00,-4.00,+5.00,+38.00,+1.00,+19.00,+9.00
-7.00,-53.00,-3.00,-2.00,-18.00,-2.00,+12.00,-1.00,+11.00,+3.00,+3.00,+6.00,+6.00,+6.00,-6.00,-7.00
+3.00,+41.00,+13.00,+9.00,+35.00,+1.00,+5.00,+8.00,-19.00,-3.00,-3.00,-4.00,+0.00,+6.00,+4.00,-2.00
+8.00,+10.00,+1.00,+0.00,-5.00,+10.00,-19.00,+6.00,+4.00,+10.00,+1.00,+3.00,+12.00,-6.00,-13.00,+1.00
-40.00,-14.00,+1.00,-1.00,+23.00,-2.00,-45.00,+4.00,-4.00,-21.00,-2.00,+15.00,+1.00,-12.00,-9.00,-4.00
+8.00,-3.00,-5.00,-5.00,-18.00,-14.00,+9.00,-6.00,-25.00,+14.00,+3.00,-12.00,-4.00,-16.00,-33.00,-16.00
-12.00,-2.00,-2.00,+2.00,+11.00,+10.00,+6.00,-9.00,+30.00,+1.00,-5.00,-9.00,-12.00,-5.00,+3.00,+0.00
+6.00,-7.00,+1.00,+1.00,-8.00,+3.00,+14.00,+0.00,+4.00,-7.00,+0.00,+1.00,-5.00,+4.00,+2.00,-3.00
+16.00,+15.00,+3.00,+3.00,-3.00,-4.00,-20.00,-11.00,-1.00,+10.00,-7.00,-3.00,+2.00,+11.00,-2.00,-3.00
-36.00,+16.00,-1.00,-5.00,-2.00,-3.00,-18.00,-7.00,-3.00,-12.00,-8.00,-6.00,-9.00,-26.00,-54.00,-26.00
+20.00,-18.00,-2.00,-5.00,-4.00,-5.00,-9.00,-4.00,+10.00,+9.00,+4.00,+7.00,+0.00,+40.00,+16.00,+20.00
-4.00,+5.00,-4.00,-8.00,-33.00,-8.00,-7.00,-1.00,+1.00,+10.00,+0.00,+3.00,+6.00,-2.00,-12.00,+9.00
+0.00,-19.00,-3.00,+4.00,+47.00,+12.00,+37.00,+5.00,+12.00,-6.00,-8.00,-12.00,-13.00,-2.00,+22.00,+3.00
+17.00,+23.00,+8.00,+5.00,+6.00,+6.00,-20.00,-2.00,-4.00,-8.00,+0.00,+6.00,+3.00,-12.00,+4.00,-1.00
-1.00,-1.00,-8.00,-3.00,+8.00,-2.00,+9.00,-2.00,+4.00,+1.00,-1.00,-3.00,+1.00,+26.00,+7.00,-5.00
+1.00,-5.00,+1.00,+2.00,-11.00,-4.00,-6.00,+3.00,-7.00,-7.00,+2.00,+10.00,+9.00,-1.00,+4.00,+18.00
+9.00,-8.00,-3.00,-4.00,-16.00,-3.00,+19.00,+3.00,+7.00,-3.00,-4.00,-23.00,-27.00,+1.00,-9.00,-1.00
+6.00,+9.00,+4.00,+2.00,-25.00,-2.00,-23.00,-12.00,+23.00,+17.00,+11.00,+10.00,+8.00,-15.00,+46.00,+29.00
+0.00,-8.00,-3.00,+2.00,+44.00,+16.00,+45.00,+13.00,-69.00,-11.00,-2.00,+6.00,+12.00,-19.00,-15.00,-23.00
+2.00,+10.00,-5.00,-3.00,+5.00,-4.00,-5.00,+4.00,+54.00,-4.00,-6.00,-8.00,+8.00,+6.00,-65.00,+1.00
+10.00,+15.00,+4.00,+2.00,+0.00,-3.00,-1.00,-11.00,+0.00,+21.00,+7.00,+7.00,-2.00,-10.00,-16.00,-33.00
-5.00,-21.00,+2.00,+3.00,+4.00,+2.00,+52.00,+8.00,+25.00,-2.00,+3.00,-8.00,-10.00,+45.00,+7.00,+20.00
-15.00,-7.00,-10.00,-13.00,-32.00,-21.00,-34.00,-4.00,+14.00,-14.00,+2.00,-9.00,-13.00,-46.00,+2.00,+6.00
-17.00,-31.00,-1.00,+2.00,+3.00,+7.00,+55.00,-15.00,-38.00,+15.00,-2.00,-7.00,-8.00,+15.00,+3.00,-16.00
+5.00,+26.00,-5.00,-6.00,+11.00,-3.00,-19.00,+9.00,-38.00,-15.00,-3.00,+2.00,+7.00,+4.00,+16.00,-13.00
+3.00,-47.00,-2.00,-4.00,-30.00,+2.00,+8.00,+5.00,+25.00,-10.00,-5.00,+6.00,-25.00,+11.00,+3.00,+5.00
+1.00,+29.00,+6.00,+12.00,+38.00,+0.00,+9.00,+1.00,-1.00,+13.00,-7.00,-2.00,+15.00,-23.00,-41.00,-9.00
+4.00,+31.00,+7.00,+4.00,+3.00,-7.00,+10.00,+7.00,-2.00,-9.00,-4.00,-6.00,+1.00,+56.00,+0.00,+1.00
-7.00,-22.00,-5.00,-4.00,-19.00,+3.00,+28.00,-1.00,-1.00,+1.00,+5.00,+7.00,-1.00,-3.00,-17.00,-1.00
-42.00,+6.00,-8.00,-3.00,-9.00,+1.00,-20.00,-16.00,-27.00,-2.00,-4.00,-4.00,+9.00,+2.00,+37.00,-9.00
-13.00,-52.00,-2.00,+0.00,+27.00,+7.00,-10.00,+5.00,+12.00,-6.00,+0.00,+1.00,-6.00,+8.00,+11.00,+10.00
-15.00,+12.00,-12.00,-9.00,-9.00,-13.00,-91.00,-6.00,-9.00,-3.00,+5.00,+8.00,+3.00,-46.00,-5.00,-7.00
+16.00,-7.00,+0.00,+1.00,+3.00,+10.00,+39.00,-10.00,-9.00,-12.00,-9.00,-5.00,-10.00,+1.00,+1.00,-2.00
-4.00,+50.00,+7.00,+2.00,+4.00,-5.00,-14.00,+0.00,-31.00,-13.00,-2.00,+4.00,+9.00,-5.00,-10.00,-10.00
+0.00,-9.00,+0.00,-1.00,-20.00,-2.00,+14.00,+2.00,+2.00,+8.00,+8.00,+6.00,+0.00,+6.00,+43.00,+2.00
-4.00,-16.00,-4.00,+1.00,+10.00,+3.00,-11.00,-8.00,-19.00,-7.00,-5.00,+1.00,+3.00,+5.00,-6.00,-15.00
+13.00,-16.00,-6.00,-6.00,-14.00,+5.00,-35.00,+15.00,-8.00,-21.00,-7.00,-4.00,-7.00,-13.00,-9.00,-4.00
+35.00,+10.00,-4.00,-3.00,+16.00,-13.00,+10.00,-8.00,+22.00,+4.00,+0.00,+1.00,+0.00,-34.00,+0.00,-12.00
-5.00,+11.00,-2.00,-4.00,-24.00,+6.00,-57.00,+9.00,+2.00,-3.00,-2.00,+4.00,-4.00,-9.00,+13.00,-19.00
+12.00,-19.00,+0.00,-2.00,-4.00,-3.00,-61.00,-27.00,-13.00,+50.00,+11.00,+1.00,+3.00,+30.00,+47.00,+35.00
+14.00,+24.00,+1.00,-2.00,-6.00,-33.00,-47.00,+8.00,+2.00,-14.00,+4.00,-1.00,-6.00,-25.00,-17.00,+10.00
-2.00,-23.00,-1.00,+2.00,+26.00,+22.00,+29.00,-30.00,-17.00,-13.00,-3.00,+6.00,+41.00,+27.00,+1.00,-9.00
-7.00,-5.00,+4.00,+1.00,-21.00,-8.00,-25.00,+9.00,+6.00,-14.00,-7.00,-8.00,-41.00,+10.00,-8.00,+12.00
+25.00,+39.00,+7.00,+4.00,+19.00,+9.00,-1.00,-10.00,+18.00,-7.00,-12.00,-12.00,+2.00,-12.00,+52.00,+5.00
-4.00,-20.00,+3.00,+2.00,+0.00,+22.00,+33.00,+3.00,-3.00,+41.00,+5.00,+15.00,+11.00,-66.00,-34.00,-2.00
+46.00,+46.00,-10.00,-7.00,-5.00,+4.00,-107.00,-2.00,+6.00,+8.00,+2.00,-12.00,-3.00,+61.00,-20.00,+12.00
-45.00,-51.00,+2.00,+1.00,-19.00,-44.00,-51.00,+0.00,-14.00,-12.00,+2.00,-3.00,+8.00,+44.00,-46.00,-9.00
+36.00,+23.00,+2.00,-1.00,-17.00,+27.00,+64.00,+1.00,-16.00,-27.00,-6.00,-8.00,-11.00,+1.00,-1.00,-5.00
-25.00,-13.00,-8.00,-1.00,+16.00,-8.00,-4.00,-10.00,+10.00,+5.00,+5.00,-2.00,-9.00,+14.00,-40.00,-1.00
+5.00,-7.00,-1.00,+1.00,+13.00,+27.00,+15.00,+19.00,-19.00,-3.00,-1.00,+13.00,-1.00,-13.00,+18.00,+5.00
-3.00,+6.00,-4.00,-1.00,-4.00,+14.00,+13.00,+0.00,-17.00,-26.00,-8.00,+6.00,+11.00,-17.00,-12.00,-15.00
-8.00,-3.00,-1.00,-3.00,-16.00,-11.00,+16.00,+5.00,+6.00,+15.00,+0.00,-6.00,-14.00,+16.00,+38.00,-12.00
-2.00,-10.00,+1.00,+1.00,-9.00,-31.00,-31.00,-15.00,+34.00,+11.00,+1.00,+1.00,+11.00,+23.00,+17.00,+24.00
-6.00,+8.00,+2.00,+1.00,+14.00,+14.00,-32.00,+20.00,+16.00,+5.00,+1.00,-5.00,-14.00,-16.00,-8.00,-10.00
+7.00,+9.00,+0.00,-1.00,-3.00,+9.00,+13.00,-22.00,+43.00,+21.00,+3.00,-11.00,+4.00,-1.00,-1.00,+24.00
-16.00,-5.00,-1.00,+0.00,+5.00,+6.00,+20.00,+23.00,-61.00,-15.00,+4.00,+4.00,-5.00,-38.00,-25.00,-12.00
+0.00,+3.00,+3.00,+4.00,+4.00,+9.00,+2.00,-11.00,+41.00,-32.00,-3.00,-3.00,-4.00,+11.00,+6.00,+7.00
+2.00,+10.00,+9.00,+4.00,-3.00,+6.00,+23.00,+26.00,-22.00,+10.00,-1.00,-6.00,-3.00,-10.00,+29.00,-1.00
+14.00,+37.00,-3.00,-5.00,-9.00,-13.00,-1.00,-23.00,+12.00,+25.00,-7.00,-5.00,-3.00,-40.00,-20.00,-19.00
-23.00,-79.00,-22.00,-15.00,-2.00,-35.00,+16.00,+19.00,+19.00,+5.00,-6.00,-2.00,-1.00,-18.00,+16.00,+1.00
-68.00,+47.00,-7.00,-3.00,-20.00,+51.00,+66.00,-4.00,-15.00,-9.00,-6.00,-6.00,-2.00,+9.00,+25.00,-5.00
+18.00,-58.00,+12.00,+6.00,+11.00,+9.00,-10.00,-4.00,-31.00,-47.00,-13.00,-8.00,-7.00,+2.00,+0.00,+10.00
+0.00,+23.00,+14.00,+12.00,+14.00,-65.00,-10.00,-12.00,+18.00,+31.00,+7.00,+11.00,+15.00,+23.00,+22.00,+9.00
-14.00,+14.00,-1.00,+2.00,+4.00,+8.00,-5.00,-3.00,-5.00,-12.00,-1.00,-2.00,-3.00,-16.00,+7.00,+9.00
+1.00,-36.00,-3.00,+0.00,+1.00,+2.00,+15.00,-2.00,-9.00,+3.00,+0.00,-3.00,-3.00,-9.00,-73.00,-12.00
+12.00,+52.00,-13.00,-8.00,-20.00,-21.00,+28.00,-14.00,+23.00,+15.00,-3.00,+2.00,-5.00,-13.00,+29.00,+9.00
+5.00,-21.00,-4.00,-3.00,+10.00,+68.00,-15.00,-11.00,+2.00,-20.00,-6.00,+1.00,+10.00,+5.00,+22.00,+8.00
-8.00,-1.00,-1.00,+6.00,+39.00,+8.00,+66.00,+24.00,-1.00,-9.00,+5.00,+5.00,-13.00,+4.00,+19.00,-11.00
+19.00,-6.00,+4.00,+2.00,-5.00,-20.00,+19.00,+35.00,+39.00,+19.00,+2.00,-6.00,-4.00,+18.00,+15.00,+44.00
-7.00,-8.00,-7.00,-3.00,+12.00,-3.00,-2.00,+4.00,-27.00,+0.00,-1.00,+8.00,+13.00,-3.00,-6.00,-9.00
+4.00,-13.00,-4.00,-8.00,-16.00,+20.00,-5.00,+1.00,-20.00,-11.00,+0.00,-5.00,+0.00,-24.00,+3.00,-20.00
+8.00,+26.00,+8.00,+5.00,-17.00,-41.00,-18.00,-9.00,+12.00,+6.00,+4.00,-16.00,-11.00,+40.00,+16.00,+21.00
+22.00,-5.00,-2.00,-3.00,+7.00,+13.00,-31.00,-8.00,-25.00,-7.00,-4.00,-4.00,-2.00,-28.00,-7.00,-44.00
-43.00,-14.00,-5.00,-2.00,-7.00,-11.00,+25.00,-15.00,+8.00,-17.00,-1.00,+11.00,-4.00,-6.00,-5.00,+13.00
-1.00,+19.00,-3.00,-9.00,-16.00,-19.00,-19.00,+0.00,+50.00,+45.00,+10.00,+1.00,+19.00,-13.00,-13.00,-12.00
-15.00,-28.00,-9.00,-7.00,-1.00,+37.00,-28.00,-10.00,-8.00,-15.00,-5.00,-17.00,-9.00,-56.00,-53.00,+10.00
-33.00,-9.00,-1.00,+0.00,-3.00,-61.00,-31.00,-31.00,-24.00,+53.00,+12.00,+0.00,-9.00,+6.00,+70.00,+6.00
+0.00,-15.00,+5.00,-1.00,-7.00,+9.00,+55.00,+40.00,-14.00,-52.00,-10.00,-18.00,-2.00,+4.00,-10.00,-6.00
+15.00,+21.00,-1.00,-1.00,+3.00,+36.00,+61.00,+27.00,-18.00,-3.00,+1.00,+11.00,-9.00,-10.00,-27.00,-26.00
+12.00,+66.00,+19.00,+11.00,+10.00,+11.00,-10.00,+14.00,+25.00,-12.00,-3.00,+16.00,+11.00,+1.00,+14.00,-15.00
+22.00,-5.00,-3.00,-6.00,-6.00,-25.00,-50.00,-5.00,+53.00,+38.00,+16.00,+3.00,+5.00,+0.00,+4.00,+20.00
-54.00,-25.00,-7.00,-4.00,-9.00,-36.00,-6.00,-22.00,-1.00,-9.00,-3.00,+6.00,-5.00,+5.00,-12.00,+5.00
+3.00,-13.00,-1.00,+3.00,+9.00,-21.00,-16.00,-10.00,-39.00,+14.00,+9.00,+2.00,-9.00,-1.00,+8.00,+2.00
+14.00,+8.00,-2.00,-5.00,-20.00,-5.00,-91.00,-19.00,+62.00,+32.00,+17.00,+7.00,+5.00,+14.00,+4.00,+3.00
+32.00,-11.00,-6.00,-4.00,+13.00,+34.00,+16.00,-8.00,-33.00,-42.00,-13.00,+1.00,-2.00,+7.00,+6.00,-14.00
+3.00,-24.00,-9.00,-10.00,-6.00,-18.00,-47.00,-10.00,+27.00,+32.00,+5.00,-1.00,+0.00,+13.00,-9.00,-25.00
+17.00,+26.00,+4.00,+2.00,+7.00,+45.00,+57.00,+23.00,-30.00,-34.00,-13.00,-6.00,-12.00,-59.00,-62.00,-4.00
-4.00,-36.00,-6.00,-3.00,-24.00,-13.00,-35.00,-29.00,-24.00,+2.00,-7.00,-9.00,+7.00,+57.00,-13.00,+0.00
+13.00,+13.00,+2.00,+2.00,+19.00,+31.00,-15.00,+12.00,-4.00,-23.00,-9.00,+2.00,-3.00,-13.00,-8.00,-23.00
-24.00,-8.00,-1.00,+5.00,+3.00,-51.00,-4.00,-63.00,-2.00,-7.00,+0.00,-1.00,-3.00,-16.00,-42.00,-21.00
-19.00,-19.00,-10.00,-5.00,-5.00,+3.00,-22.00,+30.00,+39.00,-13.00,-21.00,-5.00,+1.00,+32.00,+38.00,+17.00
+18.00,+52.00,+4.00,-2.00,-27.00,-21.00,-3.00,+10.00,+18.00,+8.00,-6.00,-8.00,-18.00,-58.00,-78.00,+4.00
-6.00,+20.00,+4.00,+0.00,+0.00,-6.00,+36.00,+5.00,-58.00,-30.00,-15.00,-7.00,+5.00,-16.00,-41.00,-13.00
-4.00,-14.00,-7.00,-6.00,+17.00,+35.00,-1.00,-4.00,-10.00,+58.00,+5.00,-5.00,-8.00,-1.00,-23.00,-25.00
-20.00,-33.00,-12.00,-5.00,-17.00,-111.00,+17.00,+9.00,-19.00,-77.00,-18.00,-13.00,-7.00,+27.00,+33.00,+30.00
+11.00,-22.00,+4.00,-1.00,+9.00,+53.00,-58.00,-65.00,-27.00,-3.00,-14.00,-2.00,-1.00,+11.00,+11.00,+3.00
-37.00,+0.00,-2.00,+16.00,+19.00,-71.00,+42.00,+23.00,+26.00,+45.00,+11.00,-2.00,-3.00,-14.00,+26.00,+32.00
-9.00,+19.00,-5.00,-10.00,+7.00,-11.00,-33.00,+19.00,-2.00,+13.00,+6.00,-2.00,-3.00,-33.00,+5.00,+4.00
+1.00,+8.00,+2.00,+3.00,+13.00,+84.00,+6.00,-15.00,-6.00,+1.00,-1.00,-2.00,+0.00,+38.00,-3.00,-5.00
-7.00,+6.00,-1.00,-2.00,+1.00,-31.00,+0.00,+7.00,-48.00,-30.00,-3.00,+23.00,+16.00,-37.00,-34.00,-26.00
-59.00,-55.00,-16.00,-15.00,-26.00,+26.00,+13.00,-7.00,+3.00,-7.00,-3.00,-23.00,-9.00,+66.00,+45.00,-9.00
+25.00,+27.00,+8.00,+5.00,-11.00,-56.00,-66.00,-30.00,-7.00,-5.00,-5.00,-7.00,+5.00,+17.00,+17.00,-27.00
+14.00,+3.00,+7.00,+7.00,+8.00,+9.00,+96.00,+14.00,+24.00,+15.00,+8.00,-3.00,-13.00,-6.00,+41.00,+36.00
-84.00,-66.00,-29.00,-16.00,-4.00,+54.00,-34.00,-61.00,-2.00,+2.00,+4.00,+5.00,+9.00,+21.00,+12.00,-26.00
+72.00,+66.00,+21.00,-3.00,-25.00,-10.00,+32.00,+59.00,+10.00,-21.00,-3.00,+5.00,+8.00,-1.00,+87.00,+44.00
-8.00,+10.00,+9.00,+9.00,+5.00,+39.00,+37.00,+30.00,-22.00,-4.00,+0.00,+11.00,+8.00,-68.00,+12.00,-11.00
-1.00,-6.00,-4.00,-6.00,-18.00,-32.00,-51.00,-6.00,-4.00,-30.00,-1.00,+2.00,+8.00,+23.00,-9.00,-9.00
+14.00,+18.00,+10.00,+13.00,+15.00,-12.00,+34.00,+30.00,-9.00,+30.00,+0.00,+3.00,+6.00,-19.00,+35.00,+14.00
+5.00,-1.00,-9.00,-7.00,+2.00,+38.00,+16.00,-35.00,+17.00,+40.00,+16.00,+12.00,+2.00,+71.00,+55.00,-14.00
+0.00,-77.00,-10.00,-5.00,-10.00,-15.00,+7.00,+9.00,+10.00,-67.00,-23.00,-13.00,-7.00,+28.00,+41.00,-8.00
+33.00,+75.00,+23.00,+12.00,+9.00,+4.00,+6.00,-2.00,-93.00,+94.00,+21.00,+0.00,-1.00,-20.00,+5.00,-5.00
+3.00,-58.00,+0.00,+11.00,+16.00,+26.00,+34.00,+26.00,+60.00,-19.00,-3.00,-3.00,+0.00,+8.00,+20.00,+20.00
+6.00,-12.00,+6.00,+2.00,+0.00,-24.00,-117.00,-24.00,-1.00,-40.00,-3.00,-1.00,-5.00,-42.00,-55.00,-9.00
+13.00,-6.00,-9.00,-9.00,-11.00,+51.00,+80.00,+63.00,+56.00,+28.00,+15.00,+2.00,-6.00,+6.00,+34.00,+38.00
+39.00,+50.00,+1.00,+0.00,+6.00,-55.00,+40.00,-7.00,-70.00,-44.00,-11.00,-3.00,-1.00,-38.00,-5.00,-20.00
+40.00,+81.00,+15.00,+9.00,+26.00,-2.00,+9.00,+12.00,-2.00,-7.00,+3.00,+3.00,+7.00,+68.00,-48.00,-25.00
-16.00,-52.00,+3.00,+7.00,+4.00,+13.00,+11.00,-16.00,-35.00,+4.00,-6.00,-7.00,-8.00,-83.00,-49.00,-12.00
+9.00,+26.00,+2.00,+1.00,-1.00,+2.00,-93.00,-23.00,+0.00,+0.00,+0.00,-7.00,-9.00,+25.00,-25.00,+12.00
-15.00,-2.00,-11.00,-13.00,-5.00,+71.00,-41.00,-27.00,-6.00,-31.00,-9.00,-2.00,-6.00,-5.00,-1.00,-19.00
-1.00,+11.00,+6.00,+7.00,-1.00,-39.00,+50.00,+31.00,+23.00,+37.00,+20.00,+6.00,-7.00,-7.00,+66.00,+15.00
-8.00,-31.00,-6.00,-2.00,+11.00,+68.00,-18.00,-12.00,-14.00,-73.00,-20.00,-7.00,-7.00,+10.00,-86.00,-24.00
+54.00,+26.00,+12.00,+16.00,+5.00,-119.00,-38.00,+44.00,+0.00,+40.00,+13.00,+4.00,+7.00,+34.00,-11.00,+13.00
-14.00,-28.00,-23.00,-30.00,-32.00,-9.00,+62.00,-31.00,+60.00,-8.00,-11.00,-11.00,-10.00,-6.00,+47.00,+32.00
+15.00,+4.00,+9.00,+5.00,+6.00,+1.00,-26.00,+13.00,-38.00,+38.00,+8.00,+18.00,+11.00,-9.00,-9.00,-25.00
-31.00,+23.00,-3.00,-4.00,-12.00,-29.00,-28.00,-28.00,-18.00,-40.00,-2.00,+0.00,-3.00,-6.00,-25.00,-17.00
-11.00,-71.00,-10.00,+4.00,+13.00,+80.00,+66.00,+16.00,+47.00,+28.00,-7.00,-9.00,-6.00,-106.00,+49.00,+24.00
-1.00,+12.00,-3.00,-6.00,-9.00,+37.00,-26.00,+6.00,-33.00,-59.00,-10.00,-12.00,-1.00,+9.00,-71.00,-20.00
+6.00,+26.00,-2.00,-8.00,-20.00,-33.00,+3.00,+14.00,+62.00,+56.00,-7.00,-13.00,-8.00,-29.00,-33.00,+12.00
-5.00,+8.00,+12.00,+11.00,+1.00,-80.00,+22.00,+34.00,-5.00,+13.00,-3.00,+2.00,+8.00,+7.00,-55.00,-44.00
+29.00,+7.00,+27.00,+11.00,-8.00,-32.00,-7.00,-35.00,-74.00,-38.00,-11.00,-1.00,+3.00,+0.00,-11.00,-17.00
-79.00,-13.00,+6.00,+13.00,-5.00,-33.00,-91.00,+2.00,+21.00,+12.00,+12.00,+24.00,+12.00,-12.00,-16.00,-30.00
-58.00,-104.00,-28.00,-27.00,+8.00,+24.00,+64.00,-26.00,+7.00,-20.00,+5.00,-4.00,+0.00,-3.00,-19.00,+30.00
+112.00,+117.00,+44.00,+36.00,+27.00,+31.00,+7.00,+7.00,+38.00,+59.00,+8.00,-2.00,-5.00,+5.00,+47.00,+34.00
-24.00,+9.00,+0.00,-3.00,+1.00,+25.00,+43.00,+24.00,+6.00,+11.00,+2.00,-2.00,+1.00,+10.00,+0.00,+1.00
+19.00,-38.00,+4.00,+0.00,-8.00,+31.00,-86.00,+7.00,-37.00,-11.00,-13.00,-7.00,-5.00,+22.00,-2.00,-16.00
-6.00,-14.00,-3.00,+2.00,+4.00,-40.00,-28.00,-25.00,-34.00,-50.00,-2.00,-5.00,-10.00,-67.00,-11.00,-24.00
-63.00,-110.00,-43.00,-29.00,-26.00,-4.00,+3.00,+3.00,+17.00,+23.00,-4.00,+4.00,-4.00,+34.00,+88.00,+25.00
-37.00,-3.00,-32.00,-20.00,-10.00,-13.00,-110.00,-77.00,+3.00,-9.00,-6.00,-4.00,+9.00,+93.00,-68.00,-4.00
+42.00,+41.00,+23.00,+22.00,+22.00,+44.00,+113.00,+78.00,+20.00,+8.00,+12.00,+11.00,+4.00,-7.00,+65.00,-4.00
-4.00,-52.00,+0.00,+11.00,+13.00,-15.00,-87.00,-24.00,-14.00,+20.00,-28.00,-32.00,-15.00,+0.00,-6.00,-19.00
+2.00,+12.00,-8.00,-12.00,-12.00,-74.00,+11.00,-9.00,-22.00,-82.00,-20.00,-5.00,+0.00,-21.00,+47.00,+10.00
+8.00,+70.00,+9.00,+8.00,+14.00,+68.00,-9.00,+75.00,-40.00,-26.00,+3.00,+10.00,+1.00,-25.00,-52.00,-21.00
-10.00,-27.00,-17.00,-22.00,-25.00,-12.00,+23.00,-19.00,+58.00,+74.00,+8.00,-5.00,-7.00,-2.00,-47.00,+7.00
+28.00,+53.00,+5.00,-7.00,-14.00,+2.00,+53.00,+19.00,-15.00,-74.00,-28.00,-13.00,-7.00,+28.00,+56.00,+30.00
-1.00,-15.00,+0.00,+8.00,+12.00,+7.00,-125.00,-20.00,-44.00,-9.00,+4.00,+3.00,+2.00,-15.00,-74.00,-24.00
+0.00,-40.00,-3.00,-13.00,-28.00,-18.00,+10.00,-3.00,+32.00,+29.00,-11.00,-14.00,-12.00,+45.00,+82.00,+36.00
+5.00,-1.00,+10.00,+10.00,+25.00,+73.00,+1.00,-12.00,+15.00,-18.00,+1.00,-8.00,-8.00,+35.00,+27.00,-5.00
-16.00,+34.00,+11.00,+15.00,+15.00,-4.00,+97.00,-12.00,+2.00,-34.00,+1.00,+4.00,+4.00,+3.00,+29.00,+30.00
-38.00,+74.00,+10.00,-7.00,-5.00,+22.00,-70.00,+59.00,+1.00,-13.00,-10.00,-11.00,-11.00,-45.00,-1.00,-19.00
-18.00,-22.00,+1.00,+7.00,+11.00,+10.00,+61.00,-33.00,+30.00,+49.00,+17.00,+11.00,+6.00,+21.00,-12.00,+10.00
-7.00,-60.00,-31.00,-19.00,-5.00,-17.00,-38.00,-10.00,-45.00,-47.00,-22.00,-16.00,-10.00,+5.00,-26.00,-3.00
+44.00,+38.00,+8.00,-1.00,-15.00,+11.00,-13.00,-2.00,-16.00,+13.00,-1.00,+5.00,+3.00,-70.00,-28.00,-23.00
+9.00,-17.00,+10.00,+12.00,+9.00,+47.00,+40.00,-7.00,-38.00,-30.00,-5.00,-1.00,-2.00,+16.00,+44.00,+7.00
+15.00,+21.00,+8.00,-3.00,-5.00,-30.00,-6.00,-28.00,+76.00,+0.00,+10.00,+10.00,-3.00,-114.00,+4.00,+13.00
-17.00,-11.00,-6.00,-3.00,+0.00,+62.00,-79.00,-46.00,+0.00,-6.00,+10.00,+13.00,+9.00,-1.00,+15.00,+14.00
-23.00,-33.00,-25.00,-16.00,-14.00,-24.00,-83.00,+23.00,-30.00,-29.00,-6.00,-9.00,-15.00,+80.00,+2.00,-30.00
+4.00,-30.00,-17.00,-20.00,-16.00,-34.00,-45.00,+8.00,-9.00,-2.00,+6.00,-5.00,+10.00,-11.00,-51.00,+40.00
+27.00,+18.00,+21.00,+19.00,-3.00,+48.00,+86.00,+67.00,-35.00,+28.00,+20.00,+2.00,+3.00,+12.00,+13.00,-9.00
-14.00,-2.00,+2.00,+12.00,+45.00,+24.00,+3.00,+40.00,-64.00,+61.00,+22.00,+15.00,+10.00,+27.00,+48.00,-31.00
+9.00,+6.00,-15.00,-14.00,-19.00,-68.00,-46.00,-59.00,+21.00,-6.00,+15.00,-12.00,-15.00,-28.00,-26.00,+18.00
-79.00,-91.00,-28.00,+10.00,+33.00,+29.00,+32.00,-7.00,+5.00,+82.00,+9.00,+9.00,-8.00,-20.00,+18.00,-22.00
+49.00,+61.00,+27.00,+4.00,-9.00,+15.00,+22.00,-21.00,+57.00,-1.00,+2.00,+15.00,+16.00,+70.00,+17.00,+12.00
-38.00,-34.00,-7.00,+4.00,+2.00,-73.00,-3.00,+6.00,+36.00,-73.00,-20.00,-10.00,+8.00,-4.00,-64.00,+26.00
-6.00,+6.00,+11.00,+8.00,+15.00,+76.00,+60.00,-28.00,-22.00,+47.00,+0.00,+4.00,+7.00,+8.00,+10.00,-9.00
-10.00,-71.00,-20.00,-18.00,-38.00,+14.00,+90.00,-25.00,+29.00,-50.00,-23.00,-5.00,-2.00,+45.00,+40.00,-4.00
-33.00,+71.00,-13.00,-8.00,+4.00,-22.00,-112.00,+13.00,-47.00,+20.00,-14.00,-19.00,-19.00,-13.00,-29.00,-11.00
-19.00,-51.00,-15.00,+5.00,+9.00,-55.00,+51.00,-4.00,+23.00,+13.00,-2.00,+1.00,+3.00,+16.00,+70.00,+0.00
-11.00,+0.00,+10.00,+2.00,+4.00,+16.00,+73.00,-10.00,+29.00,-19.00,+13.00,+15.00,+6.00,-46.00,-62.00,-10.00
+33.00,+96.00,+29.00,+5.00,+2.00,+56.00,-16.00,-13.00,+51.00,+83.00,+8.00,-1.00,+2.00,+30.00,+37.00,-5.00
-25.00,-32.00,-18.00,-13.00,-3.00,-65.00,-45.00,-16.00,-58.00,-18.00,+1.00,+4.00,+4.00,+26.00,+0.00,-8.00
-16.00,+58.00,-6.00,-12.00,-14.00,-18.00,-95.00,-19.00,-19.00,+12.00,-4.00,-1.00,-6.00,-17.00,+6.00,-8.00
-43.00,-86.00,-9.00,+15.00,+23.00,-4.00,-25.00,+4.00,-38.00,-40.00,-3.00,+0.00,-1.00,+17.00,+38.00,+4.00
+13.00,-36.00,-9.00,-11.00,-16.00,-3.00,+37.00,-7.00,+46.00,-57.00,-12.00,-6.00,-3.00,-39.00,-19.00,-16.00
+31.00,+38.00,+21.00,+6.00,+6.00,+88.00,+66.00,+6.00,+0.00,+41.00,-9.00,-19.00,-19.00,-69.00,-85.00,-18.00
+14.00,+6.00,+2.00,+8.00,+12.00,-1.00,-48.00,+10.00,-33.00,+27.00,+18.00,+10.00,+6.00,+46.00,-48.00,-7.00
+25.00,+34.00,-2.00,-10.00,-28.00,-74.00,+78.00,+17.00,+42.00,-23.00,+4.00,+11.00,+13.00,-19.00,-37.00,+7.00
-16.00,+6.00,+1.00,+7.00,+23.00,-39.00,-43.00,+13.00,+32.00,+26.00,+12.00,-2.00,+1.00,+18.00,-12.00,+25.00
+3.00,+16.00,-18.00,-17.00,-9.00,+92.00,+91.00,+7.00,-8.00,-39.00,-3.00,+7.00,-6.00,-9.00,+75.00,+0.00
-26.00,-93.00,-17.00,-12.00,-22.00,-89.00,+95.00,+10.00,+20.00,+48.00,-4.00,-8.00,-5.00,-7.00,-2.00,-18.00
+10.00,+39.00,+7.00,-2.00,-15.00,+48.00,-16.00,+37.00,+39.00,+10.00,-5.00,-6.00,+0.00,+22.00,+2.00,-18.00
+68.00,+90.00,+51.00,+30.00,+41.00,+44.00,+35.00,+29.00,-32.00,-52.00,+6.00,+6.00,-9.00,-44.00,+49.00,+13.00
-52.00,-103.00,-46.00,-26.00,-22.00,-109.00,-43.00,-66.00,-27.00,+57.00,+12.00,+0.00,-1.00,-14.00,-82.00,-10.00
-57.00,-106.00,-40.00,-25.00,-27.00,+45.00,-85.00,-110.00,+64.00,+13.00,+19.00,+4.00,-5.00,+40.00,+70.00,+33.00
+99.00,+106.00,+63.00,+20.00,+3.00,-17.00,-95.00,+9.00,-57.00,-75.00,+0.00,+10.00,+8.00,+19.00,+43.00,-11.00
-17.00,-92.00,-10.00,+3.00,-1.00,-26.00,+21.00,+1.00,+19.00,+41.00,+0.00,-4.00,+8.00,+35.00,-1.00,-4.00
+46.00,+72.00,+42.00,+25.00,+24.00,+18.00,-60.00,+2.00,-31.00,+9.00,+6.00,+5.00,+3.00,+7.00,+38.00,+6.00
-13.00,-55.00,+2.00,+12.00,+22.00,+1.00,-12.00,+1.00,+70.00,-19.00,-5.00,+1.00,+5.00,-9.00,-8.00,+26.00
-41.00,-71.00,-26.00,-12.00,-15.00,-44.00,-121.00,-28.00,-72.00,+3.00,+2.00,+8.00,+7.00,-12.00,-92.00,-21.00
+10.00,+3.00,-16.00,-16.00,-12.00,+6.00,+10.00,-107.00,+74.00,-52.00,-10.00,-12.00,-11.00,-59.00,+13.00,+78.00
-26.00,-69.00,-14.00,-15.00,-33.00,-16.00,-47.00,+98.00,+41.00,+30.00,+2.00,-6.00,-3.00,+80.00,-10.00,+10.00
-33.00,+46.00,-17.00,-16.00,-20.00,-29.00,+34.00,-6.00,-69.00,+31.00,+7.00,-1.00,-6.00,-36.00,-72.00,-36.00
-7.00,-38.00,+2.00,+1.00,+8.00,+22.00,-6.00,-1.00,+56.00,+44.00,-5.00,-8.00,-9.00,+57.00,+105.00,+45.00
-8.00,-71.00,+10.00,+11.00,+4.00,+6.00,-12.00,+25.00,-89.00,-60.00,-7.00,+7.00,+6.00,+23.00,-14.00,-55.00
-19.00,+66.00,+7.00,+9.00,+24.00,+4.00,+6.00,-34.00,-3.00,-64.00,-14.00,-5.00,+3.00,+8.00,+1.00,-19.00
+26.00,-64.00,+20.00,+16.00,+8.00,+64.00,+24.00,-4.00,+4.00,+13.00,-12.00,-8.00,-6.00,-42.00,-25.00,-28.00
+6.00,-119.00,-22.00,-7.00,-14.00,-69.00,-7.00,+29.00,+26.00,+30.00,+4.00,-7.00,-11.00,+12.00,+0.00,-8.00
-14.00,+113.00,-9.00,-22.00,-27.00,+19.00,+51.00,-39.00,-52.00,+15.00,+10.00,+13.00,+10.00,-12.00,+30.00,-26.00
+51.00,-6.00,+14.00,+19.00,+14.00,+37.00,+75.00,+21.00,+11.00,-82.00,-14.00,-4.00,-1.00,+44.00,-58.00,+36.00
+44.00,+72.00,+23.00,+2.00,-8.00,-43.00,-29.00,+23.00,+55.00,+83.00,+13.00,-4.00,-4.00,+42.00,-20.00,-8.00
-14.00,+20.00,-2.00,-2.00,+0.00,+79.00,-27.00,-24.00,+46.00,+17.00,-2.00,-1.00,-1.00,-28.00,-23.00,+10.00
-24.00,-31.00,-26.00,-7.00,-17.00,-87.00,-50.00,+1.00,-36.00,+47.00,+8.00,+5.00,+5.00,+4.00,-18.00,-3.00
-17.00,-98.00,-4.00,+5.00,+17.00,-4.00,-64.00,-41.00,-53.00,-75.00,-19.00,-13.00,-11.00,-47.00,+48.00,-3.00
+26.00,+127.00,-1.00,-32.00,-54.00,-35.00,-25.00,+16.00,-11.00,-101.00,-23.00,-4.00,+2.00,+7.00,+22.00,+29.00
-47.00,-81.00,-43.00,-20.00,+7.00,+50.00,+27.00,-30.00,-33.00,+3.00,-13.00,-11.00,-8.00,-12.00,-42.00,-7.00
+20.00,-14.00,+12.00,-3.00,-8.00,+11.00,+41.00,+45.00,-9.00,+3.00,+10.00,-3.00,-7.00,-2.00,-42.00,-12.00
+22.00,+30.00,+16.00,+7.00,+5.00,+22.00,-61.00,+26.00,+16.00,+114.00,+12.00,+5.00,+3.00,-27.00,+38.00,-2.00
+22.00,-3.00,+18.00,+17.00,+21.00,+58.00,+44.00,+25.00,+13.00,-75.00,-7.00,+2.00,-3.00,-43.00,-31.00,-1.00
+36.00,-24.00,-6.00,-1.00,-2.00,-36.00,+8.00,+42.00,+11.00,+13.00,+7.00,+0.00,+4.00,+2.00,-10.00,+5.00
-24.00,+101.00,-24.00,-30.00,-36.00,-62.00,+13.00,-5.00,+48.00,+55.00,+13.00,+9.00,+4.00,+22.00,+2.00,+21.00
-41.00,-123.00,-28.00,-6.00,+17.00,+43.00,-72.00,+7.00,-54.00,-105.00,-30.00,+3.00,+11.00,-5.00,+8.00,-56.00
+69.00,+17.00,+48.00,+28.00,+26.00,-66.00,+122.00,-12.00,-34.00,+7.00,+0.00,-10.00,-8.00,-34.00,-17.00,+10.00
+1.00,+79.00,+2.00,-10.00,-13.00,+25.00,-14.00,+36.00,+13.00,-44.00,-4.00,+6.00,+3.00,-29.00,-27.00,+3.00
-5.00,-55.00,-4.00,+9.00,+14.00,-21.00,-42.00,+18.00,+3.00,+74.00,-14.00,-10.00,-9.00,+36.00,-24.00,-15.00
+9.00,+11.00,-12.00,-6.00,-2.00,+45.00,-56.00,-4.00,+58.00,+14.00,+21.00,+15.00,+18.00,+9.00,-39.00,+7.00
-15.00,-11.00,-14.00,-5.00,-5.00,-68.00,+21.00,+15.00,-62.00,-28.00,+0.00,+8.00,+7.00,+19.00,+43.00,-12.00
+2.00,+6.00,+17.00,+18.00,+22.00,+40.00,+84.00,+21.00,+28.00,+32.00,+1.00,+1.00,+2.00,-16.00,+21.00,+15.00
+35.00,-33.00,-2.00,+4.00,+9.00,+1.00,-26.00,+8.00,-6.00,-43.00,+2.00,+6.00,+1.00,+13.00,+12.00,-5.00
-18.00,-38.00,-8.00,-9.00,-16.00,+0.00,+45.00,-24.00,-47.00,-28.00,-10.00,-6.00,-12.00,-26.00,+18.00,-16.00
-26.00,-81.00,-13.00,-5.00,-9.00,-6.00,-60.00,-51.00,-19.00,-4.00,-10.00,-11.00,-9.00,-13.00,+0.00,+11.00
-14.00,+60.00,+2.00,-6.00,-6.00,+11.00,+36.00,+38.00,+2.00,+18.00,-5.00,-6.00,-6.00,+14.00,+4.00,-7.00
+17.00,-36.00,+12.00,+11.00,+12.00,+61.00,-4.00,-5.00,-54.00,-27.00,-9.00,-3.00,-1.00,-13.00,-21.00,-20.00
+49.00,+102.00,+33.00,+11.00,-1.00,-61.00,+22.00,-1.00,+13.00,+13.00,+4.00,+7.00,+3.00,-5.00,+29.00,-10.00
-17.00,-56.00,-7.00,+13.00,+25.00,+32.00,+32.00,+36.00,+30.00,+35.00,+2.00,-9.00,-12.00,+35.00,-1.00,-5.00
-7.00,+64.00,+4.00,+8.00,+12.00,+11.00,-48.00,+17.00,-51.00,-96.00,-30.00,-22.00,-11.00,-34.00,-35.00,+38.00
-3.00,+4.00,+5.00,+5.00,+16.00,+111.00,+25.00,-54.00,+48.00,+32.00,+13.00,-4.00,+3.00,+16.00,+51.00,+44.00
-34.00,-83.00,-21.00,-5.00,-4.00,-101.00,-64.00,+13.00,-64.00,-27.00,-2.00,-3.00,-5.00,-13.00,-38.00,-32.00
-18.00,-84.00,-9.00,-6.00,-5.00,+8.00,-14.00,-32.00,+13.00,+9.00,+7.00,+5.00,+1.00,-10.00,-6.00,-12.00
-16.00,+31.00,-21.00,-17.00,-16.00,-29.00,+62.00,-16.00,-11.00,+4.00,+8.00,+3.00,-2.00,-29.00,+34.00,-30.00
-22.00,-47.00,-4.00,+3.00,+4.00,+33.00,+16.00,+20.00,-13.00,+29.00,+8.00,+3.00,+5.00,+1.00,-30.00,-10.00
-19.00,-65.00,-13.00,-11.00,-15.00,-8.00,-7.00,-58.00,+33.00,-28.00,+0.00,-6.00,-6.00,-12.00,+9.00,+16.00
+72.00,+126.00,+34.00,+13.00,+4.00,+73.00,+33.00,+31.00,+19.00,-16.00,-7.00,-5.00,-5.00,-24.00,+29.00,+19.00
+8.00,-12.00,+7.00,+12.00,+19.00,+2.00,-4.00,-68.00,-26.00,+24.00,+8.00,+4.00,+3.00,+25.00,-12.00,-3.00
-1.00,+27.00,-5.00,-3.00,+4.00,+12.00,-50.00,-12.00,+86.00,-2.00,+4.00,+9.00,+1.00,-23.00,-30.00,+16.00
-19.00,+79.00,-3.00,-13.00,-14.00,+78.00,+74.00,-22.00,+31.00,+55.00,+16.00,+3.00,+3.00,+4.00,+69.00,+23.00
+49.00,-68.00,-21.00,-9.00,-14.00,-20.00,+5.00,+20.00,-27.00,-20.00,+4.00,+4.00,+2.00,-24.00,+9.00,+18.00
+31.00,+36.00,+47.00,+26.00,+3.00,-26.00,+4.00,+53.00,-12.00,-22.00,-35.00,-26.00,-21.00,-29.00,-80.00,-58.00
+12.00,+86.00,-2.00,-12.00,-26.00,-54.00,-31.00,-34.00,-58.00,+51.00,-6.00,+1.00,+3.00,+20.00,-27.00,-3.00
+9.00,-50.00,+19.00,+20.00,+17.00,+18.00,-14.00,+1.00,-51.00,-51.00,+13.00,+19.00,+3.00,-53.00,+11.00,+26.00
-32.00,-11.00,-24.00,-14.00,-8.00,+25.00,-49.00,-12.00,+26.00,+13.00,-7.00,-7.00,+13.00,+14.00,-20.00,+23.00
-28.00,-82.00,-22.00,-12.00,-2.00,+9.00,-17.00,-15.00,-75.00,-7.00,+1.00,+8.00,+6.00,+15.00,+68.00,-37.00
-29.00,-126.00,-36.00,-20.00,-12.00,-51.00,-51.00,-6.00,+2.00,+5.00,-2.00,-8.00,-10.00,-23.00,+1.00,+2.00
+19.00,+16.00,+20.00,+10.00,+5.00,+15.00,+57.00,+30.00,+47.00,+38.00,+5.00,+3.00,-2.00,+9.00,-21.00,-4.00
+18.00,+127.00,+35.00,+14.00,+12.00,-1.00,-12.00,+11.00,-41.00,-31.00,-2.00,+3.00,+0.00,-49.00,-33.00,-31.00
-41.00,-80.00,-5.00,+3.00,+19.00,+3.00,-90.00,-50.00,-34.00,-22.00,-20.00,-5.00,+0.00,+23.00,+15.00,-9.00
-17.00,-3.00,-30.00,-32.00,-30.00,+53.00,-50.00,-21.00,+6.00,+28.00,+1.00,-7.00,-6.00,-9.00,+1.00,-23.00
+34.00,+55.00,-4.00,-6.00,-3.00,-17.00,+93.00,+1.00,-24.00,-25.00,-9.00,-8.00,-4.00,-54.00,-42.00,+12.00
+17.00,+14.00,-9.00,-7.00,-6.00,-49.00,-65.00,+6.00,+64.00,+102.00,+24.00,-2.00,-2.00,+110.00,+26.00,+35.00
-10.00,-25.00,-6.00,-1.00,+2.00,+19.00,+16.00,+8.00,-22.00,+16.00,+4.00,+8.00,+8.00,+16.00,+39.00,-16.00
-5.00,+52.00,+15.00,+8.00,+8.00,+48.00,-14.00,+1.00,-13.00,-94.00,-10.00,+2.00,+3.00,-2.00,+95.00,+11.00
+9.00,+42.00,+0.00,-7.00,-10.00,-43.00,-41.00,-60.00,+7.00,+19.00,-17.00,-12.00,-4.00,-12.00,-26.00,-64.00
-32.00,-16.00,-4.00,+1.00,+3.00,+23.00,-35.00,+1.00,+29.00,-55.00,-21.00,-9.00,-11.00,-62.00,-66.00,+12.00
+0.00,+2.00,-11.00,-8.00,-11.00,-52.00,-3.00,+4.00,+61.00,+30.00,+14.00,+7.00,+5.00,-13.00,+18.00,-22.00
-4.00,-27.00,+1.00,-1.00,-6.00,-4.00,+8.00,+17.00,-16.00,+82.00,+17.00,+6.00,+7.00,+20.00,-14.00,+23.00
-43.00,-107.00,-25.00,-6.00,-1.00,-36.00,-32.00,+2.00,+73.00,+37.00,+0.00,-3.00,-4.00,+1.00,+44.00,+32.00
-2.00,+85.00,-8.00,-12.00,-20.00,-16.00,-52.00,-17.00,-23.00,-27.00,-12.00,+2.00,+1.00,+2.00,+53.00,+15.00
-18.00,-66.00,+5.00,+9.00,+2.00,+31.00,-31.00,-33.00,-13.00,-34.00,-11.00,-6.00,+3.00,+11.00,-55.00,-29.00
+11.00,+69.00,+32.00,+20.00,+27.00,-8.00,+20.00,+23.00,+28.00,-82.00,-20.00,-8.00,-3.00,-36.00,-1.00,+43.00
+26.00,-32.00,-10.00,-5.00,-3.00,-12.00,-59.00,-54.00,+58.00,+80.00,+22.00,-2.00,+5.00,+94.00,+46.00,+75.00
-28.00,+43.00,-32.00,-12.00,+7.00,+40.00,-2.00,-18.00,-94.00,-6.00,-10.00,+2.00,-4.00,-18.00,-24.00,-49.00
+76.00,+123.00,+49.00,+5.00,-26.00,+0.00,+84.00,+38.00,+0.00,-4.00,+11.00,-4.00,-3.00,+32.00,+14.00,+54.00
+19.00,-58.00,+2.00,+8.00,-4.00,-37.00,-27.00,+36.00,-23.00,-42.00,-13.00,-8.00,-8.00,-6.00,-23.00,-29.00
+3.00,-9.00,+0.00,+3.00,+5.00,+37.00,+24.00,+25.00,-61.00,+5.00,+11.00,+11.00,+3.00,-5.00,-19.00,-44.00
+1.00,+15.00,-1.00,-4.00,-8.00,+23.00,-10.00,-13.00,-8.00,-13.00,+11.00,+10.00,+6.00,+13.00,+15.00,-8.00
-8.00,-44.00,-4.00,+1.00,+2.00,+8.00,-52.00,+16.00,+13.00,+1.00,+4.00,+4.00,-1.00,-32.00,+17.00,-12.00
-23.00,-5.00,+3.00,+2.00,+6.00,-7.00,+52.00,+4.00,-34.00,-41.00,-1.00,-6.00,-3.00,+0.00,-21.00,+10.00
-32.00,+1.00,-19.00,-7.00,+2.00,-22.00,+0.00,+19.00,-35.00,-77.00,-10.00,-6.00,-6.00,-2.00,-3.00,-43.00
+27.00,-6.00,+9.00,+2.00,-2.00,+19.00,-85.00,-61.00,+14.00,+64.00,+18.00,+9.00,+0.00,-12.00,+14.00,+12.00
-15.00,-24.00,-23.00,-15.00,-10.00,-80.00,+35.00,-68.00,+39.00,+16.00,+7.00,+5.00,+11.00,+18.00,+15.00,+54.00
+0.00,+2.00,-1.00,-1.00,-4.00,+7.00,+13.00,+82.00,-105.00,-43.00,-4.00,+0.00,-11.00,-26.00,-75.00,-51.00
-38.00,-78.00,-19.00,-4.00,-7.00,+65.00,+2.00,+3.00,-44.00,-22.00,-8.00,-3.00,+10.00,+86.00,+8.00,+5.00
+7.00,+90.00,+19.00,+4.00,+4.00,-128.00,+44.00,+70.00,-40.00,-31.00,-15.00,-14.00,-22.00,-22.00,+82.00,-37.00
+24.00,-7.00,+7.00,+7.00,+13.00,+51.00,-16.00,-10.00,+38.00,+72.00,+28.00,+6.00,+4.00,+2.00,+17.00,+39.00
+19.00,+1.00,+3.00,-3.00,-11.00,-24.00,+3.00,-24.00,-24.00,-20.00,-7.00,-9.00,-10.00,+10.00,-7.00,-52.00
+13.00,+127.00,+17.00,+3.00,-1.00,-85.00,-21.00,+4.00,+93.00,+77.00,+14.00,+9.00,+16.00,+23.00,-4.00,+25.00
-1.00,-98.00,+19.00,+16.00,+7.00,+73.00,+31.00,+4.00,-41.00,-39.00,-7.00,+2.00,-2.00,-53.00,-2.00,-44.00
-21.00,-42.00,-12.00,+3.00,+7.00,-14.00,-33.00,-28.00,-29.00,+8.00,+3.00,-3.00,-10.00,+13.00,-23.00,+18.00
-2.00,+73.00,+1.00,-8.00,-3.00,+99.00,-26.00,-35.00,+43.00,+2.00,-1.00,-4.00,+2.00,-20.00,-37.00,+6.00
-11.00,+18.00,+1.00,-1.00,+0.00,+26.00,+61.00,+80.00,+26.00,-31.00,-16.00,-8.00,-17.00,-49.00,+25.00,-30.00
-28.00,-84.00,-15.00,+2.00,+29.00,+81.00,+95.00,+2.00,+4.00,-29.00,-3.00,+1.00,+11.00,+4.00,-1.00,+13.00
+9.00,-52.00,-19.00,-23.00,-43.00,-73.00,-29.00,+57.00,-65.00,-37.00,+3.00,+12.00,+18.00,+73.00,+71.00,+19.00
-1.00,-70.00,-4.00,+12.00,+9.00,-35.00,-11.00,+6.00,+66.00,+55.00,+14.00,+11.00,+7.00,+14.00,-2.00,+33.00
+6.00,-74.00,+1.00,-1.00,-1.00,-70.00,-12.00,-32.00,+35.00,-7.00,-1.00,-2.00,-9.00,-9.00,-11.00,+34.00
-42.00,-14.00,-6.00,-5.00,-8.00,-5.00,-7.00,-8.00,-2.00,+20.00,-7.00,+3.00,+13.00,-11.00,-39.00,+1.00
-62.00,-16.00,-12.00,-10.00,-6.00,+39.00,+15.00,+11.00,-92.00,-97.00,-30.00,-14.00,-18.00,-42.00,-15.00,-85.00
+19.00,+62.00,+0.00,-10.00,-16.00,-10.00,+23.00,-13.00,-75.00,-43.00,-18.00,-5.00,+0.00,+9.00,-7.00,-49.00
-19.00,-36.00,-18.00,-9.00,-12.00,-8.00,-17.00,-36.00,+3.00,+72.00,+10.00,+8.00,+2.00,+3.00,+36.00,+46.00
-32.00,+60.00,+22.00,+0.00,-3.00,+7.00,+62.00,-21.00,+58.00,-27.00,+19.00,+17.00,+17.00,+17.00,+19.00,+47.00
+79.00,+23.00,+31.00,+14.00,+9.00,+67.00,+10.00,+51.00,-32.00,+24.00,+8.00,+10.00,-9.00,+19.00,+41.00,-26.00
-13.00,+29.00,+2.00,+4.00,+3.00,-52.00,-26.00,-11.00,+33.00,+41.00,+9.00,+0.00,+17.00,+42.00,-64.00,-2.00
-56.00,-104.00,-33.00,-9.00,-1.00,-40.00,-40.00,-39.00,+2.00,-18.00,-6.00,-11.00,-19.00,-124.00,-44.00,-33.00
+91.00,+96.00,+18.00,-1.00,-11.00,+60.00,+38.00,+7.00,-35.00,-26.00,-26.00,-28.00,-20.00,-19.00,-77.00,+2.00
-44.00,-9.00,-20.00,-15.00,-10.00,-65.00,-28.00,-2.00,-1.00,+8.00,+5.00,-1.00,-2.00,-12.00,-21.00,+0.00
+74.00,-56.00,+12.00,+2.00,+14.00,+96.00,+63.00,+28.00,-55.00,-10.00,-4.00,+2.00,-7.00,-22.00,+80.00,+16.00
+11.00,+47.00,-8.00,-12.00,-22.00,-6.00,-55.00,-11.00,+46.00,-20.00,-14.00,-21.00,-20.00,-41.00,+9.00,+30.00
-25.00,-79.00,-42.00,-22.00,-11.00,-78.00,-61.00,+0.00,-38.00,+34.00,+7.00,+6.00,+6.00,-9.00,-29.00,+16.00
-8.00,+70.00,+25.00,+11.00,+2.00,-1.00,+17.00,-33.00,+12.00,+8.00,-7.00,-4.00,-8.00,-35.00,-35.00,+19.00
+21.00,+2.00,+5.00,+6.00,-9.00,-19.00,+33.00,+49.00,-65.00,-24.00,-15.00,-4.00,-7.00,-5.00,+2.00,-38.00
+27.00,+62.00,+15.00,+11.00,+17.00,+22.00,-92.00,-6.00,-128.00,-38.00,-14.00,-2.00,+6.00,+25.00,-24.00,-53.00
-6.00,-29.00,-10.00,-2.00,-11.00,-36.00,-24.00,-45.00,+127.00,-13.00,+4.00,+0.00,+1.00,+16.00,+9.00,+61.00
-21.00,-68.00,-27.00,-16.00,-15.00,+27.00,-48.00,-45.00,-47.00,+118.00,-2.00,-4.00,-4.00,-12.00,-38.00,-64.00
-25.00,+10.00,-5.00,-4.00,+3.00,+60.00,+83.00,-27.00,-29.00,-59.00,-11.00,+5.00,-7.00,-55.00,+77.00,+11.00
+40.00,+117.00,+43.00,+21.00,+12.00,-32.00,+70.00,+28.00,+23.00,+8.00,+22.00,+31.00,+29.00,+89.00,-29.00,-3.00
-8.00,+2.00,+10.00,+10.00,+6.00,+20.00,-25.00,-16.00,-90.00,-30.00,-22.00,-14.00,-11.00,-4.00,+9.00,-60.00
+3.00,+8.00,+4.00,+3.00,+17.00,+38.00,+25.00,+24.00,+102.00,-6.00,-6.00,-6.00,-3.00,-15.00,-6.00,+38.00
-57.00,-57.00,-14.00,-2.00,-6.00,-83.00,-93.00,-57.00,+52.00,+43.00,+10.00,-4.00,+3.00,+13.00,+21.00,+33.00
+34.00,-49.00,+12.00,+7.00,+6.00,+33.00,+32.00,+25.00,-90.00,-42.00,+4.00,+3.00,-1.00,-11.00,+9.00,-20.00
+26.00,+39.00,-10.00,-20.00,-19.00,-18.00,-23.00,+42.00,+80.00,+38.00,+14.00,-1.00,-9.00,+13.00,+30.00,+0.00
+77.00,+15.00,+16.00,+4.00,+0.00,+77.00,+9.00,+14.00,+9.00,-11.00,+8.00,+0.00,+1.00,+15.00,-4.00,+16.00
+6.00,+25.00,+13.00,+7.00,-2.00,-82.00,-31.00,+16.00,-8.00,-18.00,-4.00,+0.00,-2.00,+10.00,-15.00,+4.00
+0.00,+21.00,-4.00,-16.00,-3.00,+127.00,+53.00,-23.00,-25.00,-33.00,-13.00,-12.00,-25.00,-37.00,-17.00,-29.00
-16.00,-37.00,+3.00,+11.00,-14.00,-108.00,-66.00,-7.00,-45.00,+4.00,-7.00,-4.00,+13.00,+3.00,+12.00,-42.00
-40.00,-66.00,-42.00,-18.00,+8.00,+102.00,+11.00,-9.00,+11.00,-21.00,-9.00,-8.00,+4.00,+18.00,-13.00,+35.00
+24.00,+25.00,+1.00,-8.00,-12.00,-100.00,-61.00,-5.00,-46.00,+11.00,+2.00,+0.00,-1.00,+25.00,-28.00,-34.00
-17.00,-52.00,-4.00,+4.00,+16.00,+31.00,+74.00,+38.00,+18.00,-12.00,+2.00,-6.00,+3.00,-1.00,+28.00,+34.00
-9.00,-13.00,+8.00,+16.00,+27.00,+47.00,+64.00,-4.00,-9.00,+34.00,+1.00,-1.00,-11.00,-16.00,-23.00,-8.00
+23.00,+57.00,+4.00,-2.00,-3.00,-17.00,-55.00,+47.00,+23.00,-4.00,-7.00,+4.00,+8.00,-21.00,-25.00,+23.00
+18.00,-4.00,+6.00,+15.00,+34.00,+127.00,-58.00,+25.00,-20.00,-41.00,-16.00,-3.00,-4.00,+5.00,+30.00,-17.00
-12.00,+23.00,+0.00,-4.00,-19.00,-74.00,-59.00,+16.00,+22.00,+63.00,-17.00,-14.00,-5.00,-20.00,-27.00,-13.00
-12.00,-23.00,-8.00,-5.00,-1.00,-94.00,-31.00,+9.00,-103.00,-73.00,-4.00,+11.00,+9.00,+27.00,+13.00,+9.00
+8.00,-39.00,-8.00,-2.00,-6.00,-53.00,+29.00,+3.00,+31.00,+1.00,-6.00,-7.00,-11.00,-12.00,+51.00,-37.00
-66.00,-71.00,-37.00,-18.00,-5.00,+16.00,-23.00,-18.00,+82.00,-25.00,+12.00,+5.00,+9.00,+19.00,-10.00,+31.00
+50.00,+45.00,+29.00,+18.00,+9.00,+12.00,+23.00,-2.00,-48.00,-81.00,-14.00,-4.00,-1.00,-4.00,+23.00,-7.00
+19.00,+38.00,+27.00,+15.00,+11.00,+97.00,-41.00,+26.00,+70.00,+93.00,+20.00,+6.00,-2.00,+8.00,+4.00,+31.00
+30.00,+75.00,+20.00,-3.00,-33.00,-36.00,-27.00,+21.00,-24.00,+8.00,-2.00,+2.00,+3.00,-5.00,-7.00,-13.00
-32.00,+42.00,-1.00,-8.00,-10.00,-59.00,+54.00,-34.00,-8.00,-16.00,-8.00,-5.00,-10.00,-19.00,-33.00,-21.00
-62.00,-39.00,-31.00,-15.00,-5.00,+8.00,-9.00,-21.00,+0.00,+7.00,+2.00,+0.00,+9.00,+22.00,+15.00,+14.00
-14.00,-99.00,-18.00,-5.00,-4.00,-4.00,+35.00,+11.00,-8.00,+16.00,+8.00,+4.00,+1.00,+24.00,+3.00,-30.00
+17.00,-4.00,+6.00,+2.00,+1.00,+2.00,+25.00,-57.00,-52.00,-59.00,-7.00,-6.00,-5.00,+12.00,-63.00,-14.00
+20.00,-37.00,-8.00,-4.00,-8.00,+43.00,-14.00,-3.00,+61.00,+66.00,+5.00,-9.00,-14.00,+17.00,+85.00,+53.00
+72.00,+48.00,+9.00,+8.00,+0.00,-57.00,+25.00,+5.00,-21.00,-7.00,+1.00,-2.00,+1.00,-15.00,-105.00,+0.00
+21.00,+4.00,+1.00,+5.00,+12.00,+81.00,-57.00,+41.00,-2.00,+31.00,-5.00,-3.00,-6.00,-4.00,+3.00,-39.00
-10.00,+2.00,-3.00,+12.00,+27.00,+6.00,+65.00,+64.00,+33.00,+59.00,+13.00,+0.00,-4.00,-30.00,+27.00,+20.00
+28.00,+32.00,+22.00,+15.00,-19.00,-102.00,+90.00,+8.00,-15.00,-34.00,-8.00,+1.00,+6.00,-8.00,-23.00,+9.00
-21.00,-42.00,-14.00,-11.00,+17.00,+108.00,+11.00,+26.00,+4.00,+32.00,+3.00,+0.00,-4.00,+6.00,+7.00,-4.00
+33.00,+36.00,+11.00,+4.00,+2.00,-90.00,-51.00,+4.00,-14.00,-28.00,-9.00,-7.00,-5.00,-14.00,-7.00,-10.00
-1.00,+67.00,+0.00,-1.00,+3.00,+8.00,+74.00,+4.00,-24.00,-69.00,-9.00,+0.00,-4.00,-4.00,-12.00,-13.00
+6.00,-115.00,+4.00,+8.00,+14.00,+85.00,+6.00,+7.00,+50.00,+101.00,+13.00,-3.00,+9.00,+0.00,-4.00,+1.00
-44.00,+14.00,+10.00,+7.00,-8.00,-53.00,-37.00,-20.00,+19.00,-11.00,-1.00,+3.00,+5.00,+14.00,+16.00,+11.00
+15.00,+3.00,-11.00,-2.00,+8.00,+24.00,-14.00,-52.00,-9.00,+2.00,-8.00,+7.00,+10.00,-11.00,+4.00,+8.00
-79.00,-62.00,-24.00,-9.00,-5.00,-51.00,-52.00,+8.00,+40.00,+10.00,+14.00,+4.00,-1.00,+11.00,+36.00,+42.00
+73.00,+104.00,+39.00,+6.00,+2.00,-2.00,+74.00,+43.00,+13.00,-15.00,+1.00,-4.00,-10.00,+17.00,-18.00,-10.00
-47.00,-110.00,-11.00,-5.00,-9.00,-9.00,-13.00,-29.00,-25.00,-18.00,-18.00,-8.00,+6.00,+12.00,+28.00,-28.00
-6.00,-88.00,-23.00,-6.00,-4.00,+10.00,+20.00,+1.00,-38.00,-10.00,+1.00,-12.00,-24.00,-12.00,-67.00,-22.00
+20.00,+44.00,+29.00,+15.00,+7.00,+2.00,-16.00,-24.00,-29.00,+25.00,+4.00,-2.00,-5.00,-3.00,-94.00,-34.00
-9.00,+107.00,+6.00,-7.00,-3.00,-31.00,-31.00,-4.00,+0.00,+34.00,+18.00,+7.00,+7.00,+9.00,+16.00,+23.00
-16.00,+3.00,-12.00,-13.00,-12.00,+4.00,+1.00,-1.00,+19.00,+2.00,+7.00,+1.00,-6.00,+22.00,+16.00,+2.00
-15.00,+14.00,+0.00,-10.00,-16.00,+1.00,+39.00,-15.00,-19.00,-24.00,-6.00,-3.00,-2.00,-19.00,+3.00,-13.00
-7.00,-6.00,-8.00,-4.00,-2.00,+12.00,+44.00,-18.00,-26.00,-29.00,-8.00,+0.00,-3.00,-2.00,+11.00,-25.00
-10.00,-55.00,-14.00,+3.00,+8.00,-53.00,-100.00,-16.00,-13.00,+26.00,+5.00,+1.00,+4.00,-10.00,-30.00,-3.00
+54.00,+65.00,+15.00,+2.00,+1.00,+55.00,+67.00,+34.00,-59.00,-44.00,-10.00,-1.00,-2.00,-6.00,+1.00,+1.00
-2.00,-32.00,-5.00,+3.00,+1.00,-103.00,-39.00,-12.00,+83.00,+75.00,+13.00,+0.00,+0.00,+17.00,+7.00,+12.00
+34.00,+85.00,+12.00,+3.00,+2.00,+7.00,-16.00,+5.00,+5.00,+37.00,+2.00,+1.00,+3.00,-5.00,+23.00,+13.00
-6.00,-69.00,-1.00,+4.00,+6.00,+17.00,-24.00,-3.00,-11.00,-27.00,-15.00,+0.00,+2.00,-14.00,-1.00,-13.00
+7.00,-35.00,-10.00,+2.00,+0.00,+5.00,-1.00,-19.00,+32.00,+35.00,+8.00,-2.00,-6.00,-12.00,-5.00,-12.00
+1.00,+51.00,+11.00,+2.00,-3.00,+31.00,+12.00,-14.00,-29.00,-48.00,-8.00,+22.00,+7.00,+12.00,+10.00,-12.00
-5.00,-27.00,-13.00,-8.00,-4.00,-7.00,-2.00,-3.00,+2.00,-80.00,-17.00,+45.00,+96.00,+11.00,+22.00,-13.00
-9.00,-28.00,-9.00,-5.00,-2.00,-2.00,-6.00,-7.00,-27.00,+34.00,-3.00,-58.00,-93.00,-27.00,-2.00,-7.00
-18.00,+79.00,-6.00,-10.00,-6.00,-24.00,-33.00,-17.00,-26.00,-7.00,+4.00,+2.00,-10.00,-14.00,-21.00,-35.00
-19.00,+15.00,+12.00,+1.00,+0.00,+55.00,+21.00,-3.00,+18.00,+14.00,+2.00,-6.00,-7.00,+5.00,-17.00,-2.00
+31.00,+11.00,-11.00,+6.00,-2.00,-29.00,-36.00,-61.00,-29.00,-44.00,-10.00,-16.00,-10.00,-3.00,+10.00,-15.00
-4.00,-50.00,+6.00,+4.00,+4.00,+17.00,+66.00,+26.00,+20.00,+12.00,+10.00,+22.00,+28.00,+13.00,-14.00,-4.00
+22.00,+51.00,+5.00,-3.00,+1.00,-9.00,-6.00,+8.00,+12.00,+3.00,+2.00,-6.00,+3.00,-4.00,+12.00,+17.00
-20.00,-12.00,+0.00,-2.00,+3.00,+3.00,+23.00,+10.00,+19.00,-12.00,+2.00,+10.00,+4.00,+57.00,+35.00,+43.00
-45.00,-84.00,-23.00,-10.00,+8.00,-27.00,-59.00,-67.00,+13.00,+20.00,-1.00,-2.00,-1.00,+16.00,+0.00,+35.00
+23.00,+5.00,-11.00,-5.00,-4.00,+103.00,-5.00,+1.00,-6.00,-34.00,-16.00,-4.00,+9.00,+0.00,-2.00,+6.00
-33.00,-52.00,+4.00,+3.00,-6.00,-24.00,+41.00,+39.00,-20.00,+8.00,+0.00,-5.00,-12.00,-1.00,-10.00,+12.00
+12.00,-3.00,-1.00,-3.00,-5.00,-39.00,+9.00,-13.00,-1.00,+1.00,+2.00,+22.00,+37.00,-3.00,+52.00,+8.00
-20.00,-18.00,-1.00,-3.00,-3.00,+15.00,-14.00,+20.00,+20.00,+10.00,+10.00,+40.00,+20.00,+2.00,-11.00,+12.00
-36.00,-14.00,-14.00,-6.00,-6.00,+2.00,+12.00,-26.00,-13.00,+5.00,+18.00,+40.00,-55.00,+9.00,+2.00,+14.00
-4.00,-6.00,-3.00,-1.00,+3.00,+11.00,-25.00,-13.00,+16.00,-20.00,-8.00,+1.00,+4.00,+14.00,+13.00,+7.00
-14.00,-3.00,+1.00,+2.00,-4.00,+14.00,-7.00,-3.00,-39.00,+2.00,-10.00,-12.00,+11.00,-23.00,-46.00,-79.00
+32.00,+65.00,+28.00,+6.00,+3.00,+9.00,+23.00,+21.00,-27.00,+4.00,+6.00,-18.00,-34.00,-13.00,+19.00,+32.00
-15.00,-2.00,-6.00,-5.00,+0.00,-9.00,-12.00,-4.00,+35.00,+35.00,+2.00,+22.00,+40.00,-7.00,+7.00,+27.00
+15.00,-66.00,+5.00,+8.00,-1.00,-9.00,-23.00,+0.00,+11.00,+11.00,-1.00,+6.00,-18.00,-7.00,-14.00,+0.00
-4.00,+19.00,-2.00,-4.00,-1.00,-6.00,+1.00,+8.00,-8.00,-25.00,-16.00,-12.00,-25.00,-8.00,-9.00,+0.00
-24.00,-37.00,-11.00,-12.00,-23.00,-30.00,-10.00,-7.00,+13.00,-1.00,-10.00,-5.00,-12.00,+5.00,+15.00,+8.00
-1.00,+15.00,-22.00,-26.00,-108.00,-71.00,+2.00,+0.00,+7.00,+4.00,-5.00,-4.00,+14.00,-10.00,-19.00,-26.00
+18.00,+104.00,+13.00,+19.00,+97.00,+61.00,-9.00,-6.00,-36.00,-22.00,-21.00,-10.00,-14.00,-6.00,-2.00,-29.00
-22.00,-25.00,-5.00,+8.00,+15.00,-1.00,+1.00,-6.00,+2.00,-6.00,+0.00,-10.00,+17.00,-17.00,+4.00,+56.00
-64.00,-42.00,+7.00,+4.00,+9.00,+2.00,+16.00,+31.00,+60.00,+51.00,+20.00,+4.00,-40.00,+7.00,+13.00,+25.00
-5.00,+12.00,+3.00,+8.00,+14.00,+84.00,-11.00,-19.00,-35.00,-25.00,+0.00,-23.00,+15.00,+23.00,-4.00,-24.00
-11.00,-19.00,-15.00,-15.00,-50.00,-94.00,-21.00,-21.00,+1.00,+12.00,+5.00,+6.00,-52.00,-6.00,-7.00,+6.00
-27.00,-17.00,-6.00,-11.00,-10.00,+23.00,+1.00,+23.00,+11.00,-8.00,+7.00,+14.00,+81.00,-31.00,+79.00,+26.00
+35.00,+14.00,+16.00,+12.00,+5.00,-8.00,-19.00,+16.00,+38.00,+4.00,+16.00,-2.00,-10.00,+60.00,-54.00,+14.00
+28.00,-13.00,-1.00,+0.00,+2.00,+17.00,+30.00,+35.00,-68.00,-32.00,+11.00,+4.00,-40.00,-25.00,-20.00,+12.00
-12.00,-15.00,-7.00,-5.00,-5.00,+7.00,-4.00,-17.00,+41.00,+65.00,+18.00,-15.00,+30.00,+40.00,+73.00,+8.00
+11.00,-19.00,-2.00,-3.00,+4.00,-9.00,-7.00,-6.00,-34.00,+6.00,-3.00,-4.00,-21.00,-18.00,-24.00,-11.00
+11.00,-1.00,-7.00,-7.00,-16.00,-20.00,-4.00,+9.00,-2.00,-41.00,-10.00,-8.00,-7.00,-30.00,+16.00,-15.00
-12.00,-4.00,-7.00,-13.00,-83.00,-33.00,-1.00,-32.00,+46.00,+1.00,-7.00,-4.00,+19.00,+19.00,+32.00,+2.00
-8.00,-38.00,-7.00,-15.00,-106.00,-101.00,+5.00,+14.00,+2.00,+3.00,+4.00,+16.00,+21.00,-24.00,-23.00,+19.00
+9.00,+13.00,+16.00,+42.00,+80.00,+71.00,+35.00,+5.00,+21.00,-18.00,+5.00,+2.00,-18.00,+1.00,-23.00,-9.00
+12.00,-61.00,-4.00,+7.00,-19.00,+21.00,+15.00,-4.00,-47.00,+39.00,-1.00,-16.00,+2.00,-15.00,+19.00,-1.00
-10.00,-16.00,+15.00,+3.00,+30.00,-6.00,-2.00,+2.00,-22.00,-38.00,-18.00,-1.00,-4.00,-14.00,-6.00,-5.00
+5.00,+28.00,-20.00,-6.00,-25.00,+8.00,-10.00,-5.00,+2.00,+15.00,+3.00,+5.00,+22.00,-30.00,-35.00,-24.00
+21.00,+26.00,-14.00,-15.00,-41.00,-28.00,-17.00,-4.00,+68.00,-17.00,-16.00,-14.00,-27.00,+17.00,-10.00,+13.00
-23.00,+7.00,-13.00,-10.00,-6.00,+2.00,-2.00,-22.00,-49.00,+7.00,+1.00,-11.00,-16.00,-26.00,-11.00,-42.00
+57.00,+27.00,+14.00,+19.00,+42.00,+46.00,+5.00,+7.00,-43.00,-18.00,+5.00,+2.00,+9.00,+35.00,+33.00,+14.00
+23.00,+15.00,-2.00,-14.00,-13.00,-50.00,-18.00,+24.00,+59.00,+19.00,+10.00,+4.00,+17.00,-9.00,+24.00,+15.00
-27.00,-66.00,-3.00,-6.00,-15.00,-2.00,+13.00,+17.00,+7.00,-40.00,-5.00,+10.00,+21.00,+71.00,+4.00,-12.00
+9.00,+9.00,+7.00,+9.00,+20.00,+64.00,-27.00,-28.00,+19.00,+55.00,+19.00,+42.00,+23.00,-40.00,-15.00,+12.00
+35.00,+42.00,+9.00,+11.00,+6.00,-38.00,-10.00,+52.00,-15.00,-46.00,-16.00,-30.00,-19.00,+60.00,-12.00,-31.00
+18.00,+30.00,+5.00,+2.00,+7.00,-41.00,+53.00,-8.00,-2.00,-79.00,-30.00,-40.00,-30.00,+15.00,+21.00,+5.00
+15.00,-1.00,-1.00,-3.00,+14.00,-2.00,-6.00,-16.00,-24.00,+33.00,+16.00,-19.00,-1.00,-75.00,-60.00,-14.00
-1.00,+10.00,-9.00,-23.00,-119.00,-33.00,-59.00,-20.00,-34.00,-36.00,-22.00,-28.00,-11.00,-9.00,-3.00,-16.00
-51.00,-46.00,-18.00,-8.00,+107.00,-65.00,-75.00,-42.00,+12.00,+18.00,+4.00,+11.00,-7.00,+10.00,-10.00,+1.00
-47.00,+21.00,+6.00,+5.00,+32.00,+51.00,+58.00,+0.00,+22.00,+6.00,+7.00,+5.00,-3.00,-12.00,-39.00,+15.00
+19.00,+44.00,+10.00,+7.00,+13.00,-9.00,+33.00,+31.00,-20.00,-3.00,-7.00,+1.00,-5.00,-37.00,-18.00,-26.00
-50.00,-65.00,+10.00,+8.00,-3.00,-40.00,+1.00,-12.00,-46.00,+27.00,+17.00,+12.00,-9.00,+6.00,+49.00,-17.00
+2.00,+31.00,-2.00,-2.00,-18.00,+55.00,-12.00,-1.00,+93.00,+73.00,+1.00,+1.00,+17.00,-36.00,-3.00,+48.00
-20.00,-63.00,+4.00,+5.00,+2.00,+25.00,-41.00,-22.00,-80.00,-29.00,-1.00,+12.00,+7.00,-10.00,-22.00,-19.00
-14.00,+6.00,+2.00,-5.00,-21.00,+38.00,+8.00,-25.00,+15.00,+21.00,+3.00,+0.00,-26.00,-23.00,-2.00,+27.00
+4.00,+56.00,-5.00,-6.00,+17.00,+17.00,+5.00,+11.00,-5.00,-29.00,-6.00,-6.00,+4.00,+44.00,+18.00,-14.00
-21.00,-65.00,-28.00,-16.00,-20.00,-45.00,+6.00,+10.00,-19.00,-11.00,-12.00,-4.00,-8.00,-34.00,-8.00,-40.00
+28.00,+14.00,+24.00,+15.00,+28.00,+40.00,+7.00,+15.00,+22.00,+20.00,+16.00,+23.00,+25.00,+33.00,+29.00,+35.00
-33.00,-30.00,-18.00,-14.00,-30.00,+13.00,-77.00,-60.00,-34.00,+0.00,-5.00,-9.00,-28.00,+5.00,-41.00,+15.00
+51.00,-79.00,+5.00,+7.00,+24.00,+40.00,+121.00,+71.00,+38.00,-28.00,-7.00,-15.00,-7.00,-7.00,-18.00,+18.00
-51.00,+34.00,+4.00,+7.00,-4.00,-100.00,-1.00,+18.00,-28.00,-78.00,-6.00,+4.00,+21.00,-31.00,-16.00,-33.00
+34.00,+50.00,-11.00,-10.00,-10.00,+48.00,-33.00,+4.00,+4.00,+75.00,+12.00,+3.00,-2.00,+2.00,-7.00,-5.00
+4.00,+8.00,-2.00,-10.00,-16.00,+8.00,+52.00,-6.00,-35.00,-15.00,+0.00,-5.00,-5.00,+12.00,-2.00,-37.00
-35.00,+63.00,-20.00,-9.00,-4.00,-70.00,-18.00,-27.00,-18.00,-36.00,-10.00,+10.00,+22.00,+3.00,+10.00,-52.00
-16.00,-78.00,+20.00,+6.00,-72.00,+28.00,-24.00,-18.00,+36.00,+22.00,+7.00,+19.00,-6.00,+26.00,+44.00,+44.00
+14.00,+14.00,+15.00,+23.00,+80.00,+62.00,+19.00,+22.00,+20.00,-5.00,+0.00,-54.00,-20.00,-19.00,-18.00,+11.00
-19.00,-31.00,-13.00,+2.00,+25.00,+6.00,+49.00,+45.00,-3.00,+7.00,+12.00,+16.00,-40.00,-9.00,+78.00,+30.00
-11.00,+31.00,-9.00,-11.00,-42.00,-84.00,-78.00,-49.00,+92.00,+39.00,-1.00,-40.00,+52.00,+56.00,-18.00,+19.00
+22.00,+1.00,+2.00,+6.00,+100.00,+36.00,+69.00,+30.00,-64.00,-12.00,-7.00,+6.00,+24.00,-9.00,+0.00,-42.00
+19.00,-8.00,+6.00,+5.00,-25.00,-8.00,-55.00,-17.00,-77.00,-68.00,-20.00,+1.00,-18.00,+9.00,-10.00,-36.00
+6.00,-6.00,-3.00,+0.00,+0.00,+20.00,-13.00,+18.00,+16.00,+61.00,+3.00,-1.00,+24.00,+48.00,+6.00,+17.00
-5.00,+22.00,+4.00,+1.00,+5.00,-10.00,-29.00,+11.00,-27.00,-19.00,-13.00,-3.00,-29.00,-39.00,+37.00,-6.00
-9.00,+3.00,-24.00,-14.00,-35.00,+21.00,-68.00,-1.00,+44.00,+47.00,+21.00,+11.00,+24.00,-19.00,-69.00,+32.00
-32.00,+10.00,+5.00,-6.00,-29.00,-28.00,-25.00,-32.00,+12.00,+14.00,-1.00,+18.00,+9.00,+18.00,+14.00,+18.00
+17.00,-59.00,-1.00,+0.00,-11.00,-37.00,-5.00,+15.00,+28.00,-39.00,-7.00,-12.00,-15.00,-32.00,-37.00,-5.00
+17.00,+16.00,+10.00,+5.00,+11.00,+60.00,+3.00,+9.00,-77.00,-45.00,-16.00,+2.00,-16.00,-39.00,-53.00,-57.00
+8.00,+27.00,-7.00,-5.00,-5.00,-10.00,+29.00,-32.00,+32.00,+75.00,+2.00,-13.00,-8.00,+4.00,+14.00,+50.00
-54.00,-71.00,-30.00,-20.00,+0.00,+13.00,-6.00,+2.00,-60.00,-100.00,-14.00,+8.00,+7.00,+6.00,+23.00,-6.00
-5.00,-25.00,-10.00,-9.00,-30.00,-48.00,-36.00,-7.00,-6.00,+15.00,+9.00,+9.00,+6.00,+19.00,+19.00,+16.00
+71.00,+22.00,+5.00,+5.00,+8.00,-34.00,-15.00,-20.00,+10.00,+43.00,-1.00,-2.00,-21.00,-21.00,-16.00,-5.00
+16.00,+14.00,+12.00,+9.00,+19.00,+31.00,+46.00,-21.00,-22.00,-21.00,+7.00,+0.00,+14.00,-6.00,-2.00,-34.00
+29.00,-66.00,+5.00,+8.00,-2.00,-21.00,-35.00,+12.00,+4.00,-3.00,+4.00,+9.00,+1.00,-5.00,-2.00,+9.00
-16.00,-67.00,-9.00,-10.00,-21.00,+2.00,+19.00,-17.00,-3.00,-12.00,-6.00,-13.00,-3.00,-1.00,-3.00,-20.00
-18.00,+21.00,+20.00,+14.00,+11.00,+52.00,-32.00,-8.00,+66.00,-24.00,+9.00,-1.00,-6.00,-27.00,-6.00,+67.00
-23.00,+40.00,+0.00,+0.00,+8.00,-35.00,+42.00,+4.00,-8.00,+14.00,-6.00,+1.00,+0.00,+42.00,+72.00,-24.00
-15.00,-36.00,-17.00,-15.00,-27.00,-43.00,-45.00,-17.00,-12.00,+39.00,+13.00,+0.00,-6.00,+15.00,-41.00,-18.00
-12.00,+38.00,-7.00,-16.00,-13.00,-44.00,-113.00,-78.00,-107.00,-94.00,-15.00,+11.00,+0.00,-13.00,+33.00,-19.00
-32.00,-42.00,-15.00,-5.00,+50.00,+1.00,+56.00,+42.00,-10.00,+45.00,+9.00,-16.00,-16.00,+3.00,-6.00,+13.00
+57.00,-55.00,+33.00,+18.00,-19.00,-37.00,-61.00,+3.00,+14.00,-15.00,-8.00,-2.00,-31.00,+1.00,-9.00,+12.00
-12.00,+69.00,+10.00,+9.00,+14.00,+84.00,+43.00,+32.00,-11.00,-20.00,-9.00,-16.00,+5.00,-16.00,-57.00,-28.00
+25.00,+119.00,+0.00,-3.00,-6.00,-23.00,-41.00,-2.00,+22.00,+59.00,+9.00,+14.00,+22.00,+30.00,+37.00,+19.00
-29.00,-72.00,-16.00,-12.00,-4.00,-16.00,+31.00,+12.00,-20.00,-62.00,-15.00,-17.00,-8.00,-8.00,-7.00,-28.00
+39.00,+79.00,+12.00,+6.00,-8.00,-11.00,-29.00,+43.00,-5.00,-23.00,-1.00,-8.00,-19.00,-31.00,-12.00,-5.00
+29.00,-83.00,-20.00,-15.00,-25.00,-71.00,+19.00,-1.00,+33.00,+94.00,+9.00,+13.00,+12.00,+10.00,+20.00,+20.00
-29.00,+40.00,+18.00,+8.00,-18.00,+4.00,+69.00,+15.00,+37.00,-14.00,-4.00,-11.00,+10.00,-12.00,-54.00,-5.00
+22.00,+9.00,+2.00,+8.00,+17.00,+21.00,+5.00,-34.00,-33.00,+1.00,+5.00,+12.00,+4.00,+23.00,+14.00,-3.00
+9.00,-18.00,-28.00,-16.00,+24.00,+31.00,-40.00,-16.00,-25.00,-61.00,-16.00,+3.00,+4.00,-24.00,-55.00,-32.00
-1.00,+63.00,+8.00,+7.00,+8.00,+35.00,-29.00,-23.00,+32.00,+20.00,-13.00,-18.00,-23.00,-14.00,+29.00,+9.00
+45.00,+7.00,+5.00,+11.00,+19.00,+22.00,+122.00,+67.00,-12.00,-29.00,-4.00,-4.00,+0.00,+0.00,-25.00,+4.00
-13.00,+42.00,-2.00,-3.00,-14.00,-10.00,-20.00,-9.00,+40.00,+89.00,+22.00,+26.00,+14.00,+23.00,+30.00,+31.00
-37.00,-14.00,+14.00,+2.00,-9.00,+27.00,+26.00,-20.00,-79.00,-34.00,-12.00,-5.00,+12.00,-13.00,+17.00,-20.00
+38.00,+41.00,-4.00,+2.00,+10.00,-2.00,+7.00,-7.00,-1.00,-61.00,-8.00,+3.00,-9.00,-20.00,+2.00,+3.00
-65.00,-77.00,-15.00,-16.00,-25.00,-38.00,+6.00,-9.00,+13.00,+24.00,+9.00,-8.00,-10.00,-7.00,+14.00,-11.00
+9.00,+32.00,+6.00,+4.00,+10.00,+59.00,+17.00,+1.00,-11.00,-21.00,-11.00,-18.00,-12.00,+8.00,-9.00,-17.00
-7.00,-61.00,-7.00,-11.00,-8.00,-27.00,+7.00,+9.00,-7.00,-44.00,-8.00,-12.00,-18.00,-3.00,+24.00,+12.00
+7.00,+88.00,+21.00,+8.00,+7.00,+83.00,+0.00,+8.00,-20.00,+41.00,+7.00,+18.00,+20.00,-61.00,-15.00,-2.00
+30.00,-86.00,+1.00,+10.00,-6.00,-104.00,-85.00,+2.00,+21.00,+17.00,+10.00,+0.00,+6.00,+46.00,-29.00,+1.00
+28.00,+3.00,-2.00,-7.00,+8.00,-9.00,+33.00,+22.00,+2.00,-20.00,-2.00,-2.00,-19.00,+4.00,-18.00,+21.00
-51.00,+63.00,-16.00,-11.00,-11.00,-2.00,-20.00,+5.00,+10.00,+15.00,+5.00,+2.00,+16.00,+0.00,-31.00,+5.00
-4.00,-6.00,-15.00,-5.00,-15.00,-76.00,-38.00,-9.00,-5.00,+12.00,-5.00,-7.00,-7.00,-2.00,-4.00,-13.00
+18.00,-5.00,+12.00,+8.00,+35.00,+127.00,+48.00,-27.00,+11.00,+0.00,-5.00,+6.00,-5.00,-12.00,-7.00,-3.00
-11.00,+39.00,-5.00,-10.00,-30.00,-47.00,-17.00,+13.00,-8.00,-34.00,-8.00,+7.00,+4.00,-5.00,-9.00,-16.00
-5.00,-3.00,-5.00,-3.00,+8.00,-17.00,+34.00,-14.00,+51.00,+44.00,+12.00,+3.00,+0.00,+6.00,+25.00,+29.00
-5.00,-39.00,-5.00,-4.00,+10.00,-18.00,+10.00,-8.00,-15.00,-23.00,-7.00,+1.00,+5.00,+18.00,-1.00,-22.00
+10.00,-9.00,-5.00,+3.00,+1.00,+7.00,-28.00,-4.00,-30.00,-20.00,-16.00,-3.00,+3.00,-11.00,-28.00,-74.00
+14.00,-10.00,+8.00,+4.00,-5.00,+66.00,+5.00,+3.00,+37.00,+29.00,+10.00,+10.00,-4.00,+0.00,+24.00,+53.00
-1.00,+19.00,-4.00,-4.00,-8.00,+3.00,+19.00,-7.00,+3.00,-32.00,-11.00,-2.00,-18.00,-5.00,-8.00,+2.00
-8.00,-12.00,+5.00,+0.00,-11.00,+26.00,-36.00,-10.00,+3.00,+8.00,+4.00,-2.00,-2.00,-10.00,+10.00,+5.00
+9.00,+31.00,+12.00,+4.00,+12.00,-20.00,-10.00,+7.00,+23.00,+18.00,+1.00,-14.00,-21.00,-12.00,-36.00,-8.00
-17.00,-121.00,-26.00,-11.00,+1.00,-6.00,-6.00,-6.00,-24.00,-46.00,-8.00,+2.00,+16.00,+4.00,-13.00,-26.00
+31.00,+81.00,+7.00,-2.00,-17.00,+5.00,-10.00,+4.00,-19.00,-35.00,-7.00,+3.00,+7.00,-5.00,-46.00,-38.00
-24.00,-98.00,+28.00,+21.00,+21.00,+14.00,+44.00,+32.00,+20.00,+4.00,+5.00,+2.00,+2.00,-5.00,+49.00,+39.00
-25.00,-73.00,-13.00,-5.00,+4.00,+88.00,-45.00,-47.00,-95.00,-92.00,-22.00,-8.00,-17.00,+4.00,-8.00,-12.00
+1.00,+86.00,+16.00,-4.00,-13.00,-78.00,+5.00,+54.00,+92.00,+98.00,+16.00,+10.00,+26.00,+48.00,+26.00,+32.00
-34.00,-50.00,-17.00,-4.00,+17.00,+94.00,-59.00,-28.00,-16.00,+19.00,+5.00,-5.00,-23.00,-23.00,-45.00,-23.00
+33.00,-34.00,-13.00,-11.00,-6.00,-66.00,+50.00,+34.00,+0.00,-2.00,+2.00,-5.00,+1.00,+22.00,+22.00,+4.00
+5.00,+29.00,-6.00,-12.00,-6.00,-10.00,-71.00,-25.00,+11.00,-13.00,-3.00,-4.00,-6.00,-13.00,-10.00,+16.00
-9.00,-72.00,-14.00,-7.00,-26.00,+62.00,+35.00,+0.00,-44.00,-30.00,-10.00,-12.00,-10.00,-16.00,+19.00,+3.00
+7.00,+46.00,+14.00,+11.00,+27.00,-65.00,-7.00,+0.00,-7.00,+21.00,+0.00,-2.00,+12.00,+8.00,+33.00,+0.00
-1.00,+37.00,+6.00,+5.00,-23.00,+5.00,+22.00,+21.00,+2.00,+3.00,+2.00,-1.00,-8.00,-2.00,-42.00,-5.00
-6.00,+25.00,+3.00,+3.00,+8.00,-8.00,-10.00,-4.00,+29.00,+8.00,+3.00,+1.00,-3.00,+6.00,+19.00,+10.00
+5.00,+16.00,-2.00,+2.00,+18.00,+7.00,-3.00,-2.00,-30.00,-47.00,-13.00,-1.00,+3.00,-9.00,+3.00,-3.00
+3.00,-30.00,+5.00,+2.00,-20.00,-20.00,+13.00,+10.00,+20.00,+61.00,+8.00,+4.00,+9.00,-10.00,+1.00,+1.00
-28.00,-23.00,-23.00,-12.00,+0.00,+7.00,-26.00,-50.00,+7.00,-29.00,-8.00,+8.00,-7.00,-21.00,-46.00,-14.00
+24.00,+105.00,+20.00,+9.00,+1.00,-23.00,+39.00,+20.00,-15.00,+5.00,+1.00,+13.00,+9.00,+2.00,+6.00,+2.00
+9.00,-70.00,-1.00,+7.00,-5.00,-13.00,-32.00,-9.00,+0.00,-10.00,-7.00,-22.00,-15.00,-15.00,-23.00,-8.00
-11.00,-9.00,-9.00,-8.00,-28.00,+71.00,+41.00,+2.00,-36.00,+5.00,+2.00,-13.00,-15.00,-13.00,+91.00,+34.00
+6.00,+42.00,+7.00,+0.00,+6.00,-39.00,-11.00,+1.00,+3.00,-5.00,-1.00,+4.00,+6.00,+12.00,-22.00,-10.00
-5.00,+14.00,-7.00,-2.00,+32.00,+10.00,+17.00,+5.00,+42.00,+60.00,+20.00,+29.00,+28.00,+21.00,+46.00,+25.00
-1.00,-30.00,+6.00,+9.00,+13.00,-51.00,-49.00,-30.00,-39.00,+6.00,-5.00,-28.00,-22.00,-53.00,-38.00,-16.00
-41.00,-72.00,-11.00,+0.00,-21.00,-5.00,-17.00,-13.00,+5.00,-19.00,-3.00,+0.00,+3.00,-1.00,+1.00,-11.00
+4.00,+10.00,-15.00,-12.00,+4.00,+9.00,-2.00,-16.00,-12.00,-52.00,-11.00,-15.00,-12.00,+7.00,+3.00,+7.00
+18.00,+35.00,+3.00,+0.00,-24.00,-25.00,+11.00,+37.00,+12.00,+38.00,+9.00,+9.00,+3.00,+2.00,+19.00,+12.00
-19.00,+11.00,-10.00,-3.00,+14.00,+36.00,-5.00,+0.00,-1.00,-1.00,+2.00,+22.00,+17.00,+4.00,+18.00,+1.00
+78.00,+7.00,+13.00,+5.00,+10.00,-25.00,-56.00,-5.00,+26.00,+0.00,+3.00,+4.00,+8.00,+9.00,-14.00,+3.00
+3.00,+47.00,+14.00,+8.00,-14.00,+11.00,+13.00,-13.00,-30.00,-5.00,-2.00,+0.00,+8.00,+4.00,-3.00,-14.00
-22.00,-34.00,-6.00,-2.00,+0.00,+12.00,+14.00,-8.00,+1.00,+3.00,-4.00,-16.00,-14.00,-1.00,-3.00,+11.00
-5.00,+27.00,-2.00,-1.00,+10.00,-26.00,-6.00,+10.00,+12.00,-27.00,-1.00,+13.00,+10.00,-1.00,+3.00,-18.00
-19.00,-37.00,-12.00,-7.00,-10.00,-24.00,+2.00,+1.00,+11.00,+3.00,-4.00,-4.00,-3.00,-6.00,-29.00,-10.00
-5.00,-3.00,+1.00,+1.00,+8.00,+9.00,+9.00,+2.00,-39.00,+43.00,+8.00,-8.00,-15.00,+13.00,-5.00,+5.00
+6.00,-15.00,+5.00,+4.00,-11.00,+18.00,-27.00,+14.00,+3.00,-35.00,-14.00,-17.00,+13.00,-28.00,-4.00,-5.00
-5.00,-1.00,+2.00,+0.00,+1.00,-6.00,+11.00,-15.00,+0.00,+10.00,-3.00,-1.00,-10.00,-2.00,-6.00,-11.00
+7.00,+11.00,-7.00,-1.00,+5.00,-4.00,+28.00,+7.00,-37.00,+0.00,+1.00,+12.00,+8.00,+9.00,+2.00,+10.00
-11.00,-53.00,-4.00,-3.00,-9.00,+23.00,-29.00,-48.00,+50.00,-3.00,+2.00,+5.00,+16.00,+6.00,+23.00,-2.00
+15.00,+24.00,+12.00,+6.00,-25.00,-11.00,+27.00,+29.00,-18.00,+16.00,+7.00,+23.00,+4.00,+31.00,-57.00,-4.00
-13.00,+25.00,+0.00,+1.00,+36.00,-46.00,-45.00,-11.00,+6.00,-10.00,-5.00,-21.00,-35.00,-18.00,+38.00,+21.00
-40.00,-28.00,-3.00,-8.00,-34.00,-21.00,+6.00,-18.00,-24.00,-12.00,+0.00,+7.00,+15.00,-1.00,-38.00,-10.00
+1.00,+61.00,+3.00,+10.00,+48.00,+15.00,-19.00,+5.00,-15.00,+13.00,-4.00,-16.00,-25.00,+0.00,+3.00,+3.00
-16.00,-15.00,-14.00,-10.00,-46.00,-41.00,+43.00,-15.00,+3.00,-1.00,-4.00,+17.00,+12.00,+2.00,+16.00,-10.00
+48.00,+80.00,+22.00,+10.00,+36.00,+68.00,+30.00,+27.00,-17.00,-16.00,-5.00,+0.00,-3.00,+30.00,-25.00,-15.00
+11.00,+30.00,+13.00,+9.00,+10.00,-47.00,-34.00,-19.00,+23.00,-23.00,-11.00,-15.00,-14.00,-14.00,-11.00,-4.00
-14.00,-49.00,-13.00,-8.00,-14.00,+36.00,+26.00,+47.00,+58.00,+53.00,+11.00,+8.00,-8.00,+19.00,-15.00,+24.00
-55.00,-69.00,-17.00,-12.00,+1.00,-1.00,-26.00,-19.00,-17.00,-33.00,-3.00,-1.00,+9.00,-9.00,+42.00,-11.00
-4.00,+83.00,+10.00,+3.00,-8.00,-5.00,-2.00,-13.00,+7.00,+25.00,+3.00,+11.00,+12.00,+10.00,-1.00,+16.00
-3.00,-47.00,-12.00,-2.00,-9.00,-24.00,+13.00,-1.00,-29.00,+6.00,+1.00,-11.00,-12.00,-6.00,+13.00,-12.00
-1.00,-22.00,+0.00,-2.00,-7.00,-9.00,-6.00,+4.00,+14.00,-20.00,-8.00,+2.00,+13.00,+4.00,-30.00,-18.00
-2.00,+11.00,+0.00,+5.00,+16.00,-8.00,+5.00,-12.00,+28.00,+22.00,-1.00,-12.00,-10.00,-4.00,+2.00,-6.00
-12.00,-19.00,-8.00,-9.00,-29.00,-5.00,-6.00,-27.00,-29.00,-36.00,+1.00,+5.00,+12.00,-4.00,+6.00,-10.00
+2.00,+15.00,-4.00,-2.00,+11.00,+36.00,-5.00,+9.00,+8.00,+30.00,+3.00,-1.00,+2.00,+4.00,-23.00,-1.00
+8.00,+2.00,+5.00,+5.00,+1.00,-1.00,+44.00,+20.00,-18.00,-26.00,+0.00,+8.00,-19.00,-7.00,+24.00,-5.00
+15.00,+36.00,-4.00,-9.00,-9.00,-10.00,-20.00,+4.00,-7.00,+18.00,+1.00,+2.00,+16.00,-19.00,-16.00,+8.00
-5.00,-8.00,-7.00,-4.00,+2.00,+17.00,-3.00,-6.00,+48.00,-40.00,-12.00,-4.00,-21.00,-29.00,-12.00,-25.00
+13.00,+20.00,+7.00,+5.00,+13.00,+14.00,+28.00,+9.00,-60.00,+34.00,+1.00,+0.00,+0.00,+30.00,-7.00,-9.00
-7.00,+38.00,+1.00,+0.00,-10.00,-25.00,-11.00,-11.00,+64.00,+1.00,+3.00,-4.00,+6.00,+2.00,+29.00,+31.00
+1.00,-36.00,-3.00,-3.00,-2.00,+94.00,+27.00,-7.00,-24.00,-4.00,+0.00,+0.00,-27.00,+0.00,+53.00,-2.00
-7.00,-30.00,-6.00,-3.00,-7.00,-63.00,-46.00,-1.00,-8.00,+16.00,+3.00,+2.00,-1.00,-17.00,-33.00,-8.00
-1.00,+2.00,-2.00,-1.00,+38.00,+11.00,-7.00,+5.00,+16.00,-19.00,-5.00,-12.00,+24.00,-14.00,+16.00,-3.00
+11.00,-73.00,-10.00,+0.00,-5.00,-25.00,-3.00,+3.00,-26.00,-32.00,-13.00,-14.00,-25.00,+0.00,+12.00,-11.00
+5.00,+31.00,+14.00,+7.00,+12.00,+21.00,+8.00,+6.00,+15.00,+21.00,+6.00,-4.00,-3.00,+9.00,-18.00,+12.00
-2.00,-15.00,-3.00,-7.00,-54.00,+10.00,+66.00,+4.00,-4.00,+7.00,-3.00,+2.00,+6.00,+1.00,+28.00,-1.00
+15.00,+54.00,+7.00,+6.00,-9.00,-25.00,-48.00,-52.00,-1.00,-12.00,-1.00,+1.00,+0.00,+2.00,+2.00,-20.00
-28.00,-28.00,-9.00,-6.00,+48.00,+5.00,-78.00,-4.00,+30.00,-1.00,+0.00,+10.00,+13.00,-6.00,+10.00,+17.00
+25.00,+8.00,+3.00,-1.00,+9.00,-5.00,-11.00,+0.00,-24.00,-22.00,-3.00,-11.00,-3.00,-8.00,-17.00,+14.00
+8.00,-8.00,+2.00,+5.00,+4.00,+12.00,+32.00,+15.00,+2.00,+25.00,+0.00,-3.00,-1.00,+10.00,+3.00,+1.00
-13.00,+7.00,+1.00,-2.00,-18.00,-37.00,-10.00,+7.00,+33.00,-8.00,+10.00,+15.00,-4.00,-5.00,-17.00,+13.00
-3.00,+9.00,+5.00,-1.00,-22.00,-1.00,+28.00,-14.00,+5.00,+4.00,-3.00,-10.00,+13.00,-21.00,-5.00,-4.00
-3.00,+11.00,-2.00,-1.00,+4.00,-29.00,-15.00,-3.00,-41.00,-5.00,-1.00,-6.00,-11.00,+16.00,-11.00,-22.00
+1.00,-89.00,+0.00,+0.00,+1.00,+17.00,-13.00,-2.00,+68.00,+1.00,-4.00,-6.00,+3.00,+26.00,-10.00,+19.00
-51.00,-10.00,-8.00,-6.00,-5.00,+7.00,+21.00,-11.00,-6.00,+7.00,-7.00,-13.00,-6.00,-16.00,+3.00,-1.00
-8.00,-7.00,+9.00,+2.00,-3.00,-11.00,-23.00,+9.00,-39.00,-9.00,-5.00,+3.00,+4.00,+17.00,-5.00,-16.00
+9.00,-19.00,-12.00,-7.00,-5.00,-8.00,+9.00,+11.00,+21.00,+13.00,+11.00,+1.00,+9.00,-7.00,+1.00,+18.00
-5.00,+64.00,+12.00,+3.00,-6.00,-4.00,-28.00,-2.00,+0.00,+2.00,+1.00,+5.00,-1.00,-1.00,-6.00,-16.00
+56.00,-13.00,+4.00,+5.00,+14.00,-16.00,+32.00,+28.00,+15.00,+0.00,-1.00,-9.00,-23.00,+11.00,+15.00,+9.00
-5.00,+13.00,-5.00,-3.00,+9.00,+22.00,-43.00,-6.00,-32.00,-16.00,-1.00,-1.00,+6.00,-6.00,-10.00,-7.00
+15.00,+25.00,+5.00,+3.00,+0.00,-3.00,-12.00,-7.00,-34.00,-61.00,-25.00,-28.00,-26.00,-3.00,-12.00,-44.00
-17.00,-16.00,-1.00,+1.00,-28.00,+17.00,-92.00,-13.00,+28.00,+74.00,+17.00,+13.00,+18.00,-22.00,+1.00,+13.00
+1.00,-8.00,-1.00,+5.00,+38.00,-47.00,+67.00,+24.00,+42.00,+4.00,+9.00,+9.00,+4.00,+8.00,-10.00,+26.00
-11.00,-14.00,-11.00,-10.00,-25.00,-12.00,-14.00,-37.00,-38.00,-3.00,-2.00,-1.00,+0.00,-14.00,+1.00,-6.00
+7.00,+9.00,+8.00,+7.00,+3.00,-15.00,+20.00,+41.00,+27.00,+15.00,+8.00,+5.00,+5.00,+4.00,+16.00,+18.00
+12.00,+15.00,-5.00,-2.00,+7.00,-5.00,+16.00,-1.00,-13.00,-12.00,-7.00,-1.00,+0.00,+0.00,+1.00,-16.00
-9.00,-28.00,+3.00,+0.00,-11.00,+35.00,-29.00,+13.00,+5.00,-7.00,-4.00,+9.00,+5.00,-11.00,-22.00,-16.00
-9.00,+8.00,-15.00,-9.00,-8.00,-2.00,+30.00,-12.00,-3.00,+16.00,+0.00,+5.00,-13.00,+3.00,+26.00,+6.00
-2.00,-37.00,+2.00,-4.00,-6.00,-15.00,-19.00,-11.00,-7.00,-1.00,-3.00,-14.00,+17.00,-42.00,-80.00,-24.00
+20.00,-49.00,+10.00,+6.00,-7.00,+9.00,-33.00,-13.00,-5.00,-43.00,-8.00,-7.00,-12.00,+2.00,+4.00,+4.00
-1.00,+70.00,+8.00,+1.00,+7.00,+26.00,+12.00,+13.00,-18.00,+35.00,+7.00,+16.00,+20.00,+32.00,+56.00,+31.00
-4.00,-20.00,-8.00,+0.00,+1.00,-15.00,+18.00,+7.00,-6.00,-11.00,-4.00,-27.00,-2.00,+5.00,-45.00,-16.00
+8.00,+23.00,+9.00,+2.00,-3.00,+22.00,+0.00,-5.00,+41.00,+5.00,-5.00,+12.00,+42.00,-3.00,+24.00,+13.00
-34.00,+2.00,-10.00,-6.00,+0.00,-28.00,+13.00,-4.00,-51.00,-4.00,-3.00,-36.00,-75.00,-32.00,-34.00,-23.00
+3.00,-81.00,-4.00,+1.00,+12.00,+28.00,+0.00,-26.00,+21.00,-19.00,-1.00,-1.00,+1.00,+26.00,+33.00,+2.00
+26.00,+38.00,+12.00,-1.00,-11.00,+19.00,+17.00,+11.00,+15.00,+3.00,-1.00,+7.00,-3.00,-45.00,+26.00,+2.00
-20.00,-6.00,-4.00,-1.00,+9.00,+13.00,-16.00,-9.00,-15.00,+8.00,+2.00,-5.00,-9.00,+13.00,+24.00,+14.00
-5.00,-23.00,-5.00,-1.00,+11.00,-35.00,+34.00,+7.00,-33.00,-19.00,-16.00,-1.00,+28.00,+9.00,-5.00,-14.00
-8.00,+54.00,+1.00,-5.00,-59.00,-6.00,-8.00,-6.00,-17.00,-32.00,-9.00,-7.00,-8.00,+0.00,-10.00,-21.00
+16.00,-11.00,+1.00,+5.00,+35.00,-6.00,+18.00,+3.00,+48.00,+40.00,+13.00,+6.00,+9.00,+15.00,+10.00,+38.00
-5.00,-2.00,+3.00,+6.00,+0.00,-14.00,+2.00,-1.00,-1.00,-7.00,-2.00,-1.00,-14.00,-1.00,+2.00,-4.00
-4.00,+18.00,-15.00,-9.00,+19.00,+37.00,-53.00,-17.00,-4.00,+1.00,+0.00,+13.00,+10.00,+10.00,+6.00,-4.00
-18.00,-12.00,-11.00,-18.00,-31.00,-5.00,+101.00,+28.00,-53.00,-17.00,-9.00,-8.00,-12.00,-23.00,-24.00,-32.00
-2.00,+0.00,+2.00,-1.00,-22.00,-4.00,-1.00,-30.00,+32.00,-3.00,-2.00,-2.00,+4.00,-2.00,-9.00,-9.00
-8.00,-14.00,+0.00,+0.00,+10.00,+7.00,-30.00,-9.00,-14.00,-26.00,-4.00,-3.00,-12.00,+1.00,-2.00,-21.00
+16.00,+38.00,+9.00,+9.00,+5.00,-18.00,+13.00,+11.00,+29.00,+52.00,+21.00,+9.00,+14.00,+10.00,+22.00,+46.00
-9.00,+13.00,+5.00,+4.00,+3.00,-4.00,-39.00,-9.00,+13.00,-10.00,-1.00,-3.00,-4.00,-25.00,-26.00,+16.00
-8.00,+8.00,-3.00,-3.00,-4.00,-12.00,-29.00,+1.00,-45.00,-8.00,+1.00,+10.00,+6.00,+33.00,-22.00,+2.00
-8.00,-12.00,-5.00,-2.00,-12.00,-12.00,+43.00,+1.00,+2.00,+5.00,-2.00,-19.00,-30.00,-2.00,+5.00,+2.00
-9.00,-3.00,-8.00,-10.00,+13.00,+26.00,-4.00,-27.00,-2.00,-2.00,+4.00,+8.00,+24.00,+7.00,+17.00,+1.00
-5.00,-7.00,-8.00,-7.00,+10.00,+18.00,+49.00,+15.00,+9.00,-1.00,+0.00,-3.00,+8.00,-22.00,-5.00,+2.00
-11.00,-92.00,+0.00,+2.00,-17.00,-2.00,+16.00,+11.00,-18.00,-8.00,-13.00,-29.00,-33.00,+3.00,+4.00,-24.00
+27.00,+57.00,+10.00,+5.00,+9.00,-4.00,-20.00,+4.00,-9.00,-6.00,-2.00,-1.00,+6.00,+11.00,-49.00,+12.00
+4.00,-16.00,-5.00,-3.00,-31.00,+11.00,-6.00,-9.00,-15.00,-9.00,+0.00,-1.00,-5.00,-28.00,-20.00,+3.00
+7.00,+20.00,-1.00,+3.00,+15.00,+37.00,-23.00,+49.00,-2.00,-3.00,-5.00,-3.00,+4.00,+8.00,+57.00,+4.00
-5.00,+9.00,+4.00,+3.00,+27.00,-39.00,-9.00,+10.00,+40.00,+15.00,+0.00,+7.00,+4.00,-6.00,+3.00,+3.00
-17.00,-43.00,-13.00,-8.00,-16.00,-38.00,-19.00,-22.00,-21.00,-2.00,+1.00,-1.00,-7.00,-3.00,+0.00,-1.00
+18.00,+39.00,+4.00,+0.00,+8.00,+15.00,+28.00,+13.00,-3.00,-13.00,-3.00,+3.00,+8.00,+2.00,-12.00,+0.00
-32.00,-105.00,-10.00,+0.00,+1.00,+12.00,-35.00,-31.00,-17.00,-6.00,-1.00,+6.00,-1.00,+7.00,-14.00,-6.00
+29.00,+23.00,-5.00,-4.00,-24.00,+8.00,+14.00,+6.00,+33.00,+16.00,+1.00,+3.00,+4.00,-8.00,+3.00,-11.00
-15.00,-15.00,+1.00,+1.00,+4.00,-3.00,-19.00,-1.00,+1.00,+6.00,-4.00,-1.00,-6.00,+5.00,+23.00,-1.00
+4.00,+35.00,+12.00,+3.00,+5.00,+3.00,+4.00,+7.00,+5.00,-12.00,-7.00,+0.00,+4.00,-1.00,+0.00,-26.00
+1.00,+5.00,+1.00,+3.00,-2.00,-1.00,-21.00,-21.00,+24.00,-14.00,+2.00,-8.00,-6.00,+1.00,+2.00,+33.00
-12.00,-7.00,-6.00,-3.00,-5.00,+0.00,-20.00,+2.00,-10.00,+14.00,+0.00,+2.00,+9.00,+7.00,+9.00,+28.00
-3.00,-24.00,-9.00,+0.00,+13.00,-7.00,-3.00,-12.00,-4.00,+10.00,-1.00,-1.00,-3.00,-8.00,-5.00,-28.00
+24.00,+27.00,-9.00,-15.00,-12.00,-7.00,+22.00,+14.00,-10.00,-16.00,-5.00,-6.00,-5.00,+4.00,-4.00,+16.00
+18.00,-29.00,+7.00,+6.00,+6.00,-3.00,-9.00,+8.00,+14.00,+3.00,-6.00,-9.00,-7.00,-6.00,-24.00,-15.00
-13.00,+5.00,-1.00,-1.00,-7.00,+5.00,-21.00,-6.00,-30.00,-18.00,-1.00,+6.00,+7.00,-2.00,-8.00,-10.00
+5.00,+10.00,+1.00,+0.00,-14.00,-22.00,+26.00,-5.00,+15.00,-2.00,-5.00,+1.00,-4.00,+8.00,+23.00,+18.00
-1.00,+0.00,+0.00,+4.00,+14.00,+18.00,+33.00,+11.00,-28.00,-10.00,-5.00,-8.00,-9.00,-10.00,-1.00,-18.00
-16.00,+20.00,-7.00,-7.00,-4.00,-57.00,-34.00,-6.00,-32.00,+4.00,-1.00,+1.00,+0.00,+2.00,-10.00,-22.00
+12.00,+13.00,+5.00,+0.00,-15.00,+26.00,+10.00,+8.00,+53.00,-7.00,-2.00,+4.00,+5.00,+0.00,+18.00,+35.00
+19.00,+21.00,+6.00,+7.00,+23.00,+17.00,-30.00,-23.00,+15.00,+29.00,+5.00,+3.00,-5.00,-23.00,-7.00,+0.00
+22.00,-47.00,-6.00,+4.00,+10.00,-33.00,+20.00,+43.00,+7.00,-1.00,+7.00,+5.00,+14.00,+10.00,-3.00,+6.00
+6.00,+19.00,-4.00,-6.00,+7.00,-13.00,-86.00,-48.00,-21.00,-9.00,-5.00,-3.00,-2.00,-2.00,+9.00,-10.00
-4.00,+2.00,+7.00,+7.00,-1.00,+0.00,+16.00,+19.00,-32.00,+4.00,+0.00,+1.00,-1.00,-3.00,-7.00,-23.00
-12.00,-14.00,-10.00,-9.00,-13.00,-16.00,-19.00,-9.00,-9.00,-43.00,-8.00,-4.00,-2.00,+10.00,-24.00,-7.00
+7.00,-10.00,-1.00,-1.00,-4.00,+5.00,+1.00,-26.00,+8.00,+12.00,-4.00,+4.00,+4.00,-1.00,+16.00,+17.00
+17.00,+11.00,+10.00,+6.00,-1.00,+24.00,-11.00,+34.00,+8.00,+13.00,-3.00,-11.00,-4.00,+5.00,+11.00,+19.00
-9.00,+29.00,+5.00,+1.00,+4.00,-12.00,+15.00,-13.00,-56.00,-31.00,-4.00,-1.00,+3.00,-13.00,-48.00,-30.00
+4.00,+34.00,+3.00,-2.00,-4.00,+15.00,+4.00,+12.00,+42.00,+21.00,+20.00,+8.00,+0.00,+1.00,+47.00,+21.00
-47.00,-93.00,-13.00,-4.00,+3.00,+5.00,-6.00,-9.00,-3.00,+13.00,+4.00,+3.00,+0.00,+4.00,-3.00,-12.00
-3.00,+10.00,-8.00,-5.00,-6.00,+6.00,+20.00,-26.00,+21.00,+8.00,+19.00,+5.00,-1.00,+0.00,-8.00,-12.00
-11.00,-42.00,-17.00,-11.00,-4.00,-6.00,-18.00,-12.00,-17.00,+1.00,-2.00,-2.00,+3.00,+13.00,+18.00,+5.00
+0.00,+29.00,+18.00,+1.00,+0.00,-13.00,+5.00,+14.00,-9.00,+5.00,-5.00,-4.00,-5.00,+0.00,+5.00,+7.00
-24.00,+9.00,-1.00,+0.00,-6.00,+6.00,-10.00,-39.00,-11.00,-34.00,-25.00,-5.00,-9.00,-10.00,-20.00,-7.00
+13.00,+16.00,-1.00,+0.00,-4.00,-15.00,+11.00,+20.00,+41.00,+20.00,+5.00,+5.00,+5.00,-5.00,+9.00,+14.00
+4.00,-11.00,+0.00,+4.00,+7.00,+6.00,+16.00,+26.00,-5.00,-12.00,+1.00,+3.00,+2.00,-1.00,-3.00,-4.00
+2.00,-24.00,-2.00,+5.00,+4.00,+12.00,-21.00,-6.00,+11.00,+3.00,+0.00,+6.00,+3.00,-2.00,-13.00,-19.00
+9.00,+15.00,+7.00,+3.00,+0.00,+20.00,+9.00,+4.00,-1.00,+27.00,+5.00,+0.00,-1.00,+2.00,+6.00,-3.00
+3.00,+9.00,-5.00,-4.00,-1.00,+1.00,+7.00,-12.00,+30.00,+0.00,-3.00,+1.00,-2.00,-1.00,-16.00,+1.00
+5.00,+4.00,-1.00,-3.00,+1.00,-3.00,-23.00,-39.00,-31.00,+7.00,+7.00,+5.00,+0.00,-3.00,-2.00,-24.00
-16.00,-8.00,-6.00,-2.00,-4.00,-9.00,+4.00,+9.00,-1.00,+4.00,+1.00,+3.00,-1.00,-3.00,-4.00,-8.00
+18.00,-5.00,+12.00,+6.00,+3.00,+3.00,-40.00,+7.00,+9.00,-15.00,+10.00,+4.00,-2.00,+2.00,+12.00,+19.00
-8.00,+10.00,+5.00,+4.00,+1.00,-6.00,+59.00,-12.00,-32.00,-45.00,-46.00,-22.00,-13.00,-1.00,-12.00,-16.00
+13.00,+27.00,-1.00,-2.00,-5.00,+10.00,+3.00,+6.00,+11.00,-7.00,-2.00,-1.00,+1.00,-5.00,-1.00,-5.00
+1.00,-36.00,-10.00,-12.00,-3.00,-4.00,+5.00,+14.00,+7.00,-2.00,-7.00,+5.00,+0.00,-2.00,+11.00,+23.00
+1.00,-26.00,-22.00,-8.00,-3.00,-4.00,-10.00,-9.00,-22.00,+8.00,+12.00,-3.00,-4.00,+0.00,-7.00,-10.00
+1.00,+2.00,+10.00,+2.00,-9.00,+0.00,-14.00,+28.00,-17.00,+16.00,+12.00,+20.00,+25.00,+0.00,-6.00,-6.00
-19.00,+10.00,+3.00,+2.00,+11.00,-19.00,+6.00,-81.00,+10.00,-2.00,-2.00,-6.00,-8.00,-4.00,-12.00,+3.00
-15.00,+17.00,+1.00,+2.00,-4.00,+2.00,-8.00,-32.00,-7.00,+0.00,+0.00,-13.00,-10.00,-14.00,+11.00,-5.00
+9.00,-6.00,+3.00,+2.00,+4.00,-5.00,+38.00,+100.00,-3.00,-3.00,+0.00,+1.00,+2.00,-2.00,-2.00,+4.00
+34.00,+5.00,-7.00,-5.00,+2.00,+13.00,+18.00,+32.00,+2.00,-10.00,-2.00,-5.00,-4.00,+1.00,-6.00,-6.00
-39.00,-21.00,-3.00,-2.00,-2.00,+10.00,+7.00,+26.00,-11.00,-1.00,-5.00,+2.00,+1.00,+0.00,+5.00,+1.00
+6.00,+3.00,-16.00,-10.00,-15.00,-8.00,-14.00,-37.00,-16.00,-26.00,+4.00,+8.00,+8.00,-1.00,-9.00,+1.00
-25.00,+10.00,+13.00,-5.00,-8.00,-21.00,-18.00,-62.00,+35.00,+38.00,+1.00,-1.00,+2.00,+27.00,+5.00,-3.00
-2.00,+16.00,+0.00,-2.00,-1.00,+1.00,-21.00,+6.00,+9.00,+11.00,+2.00,+2.00,-3.00,-6.00,+5.00,+1.00
+22.00,+19.00,+18.00,+8.00,+6.00,+14.00,+9.00,+16.00,-1.00,-4.00,-2.00,-1.00,-4.00,-1.00,+4.00,+1.00
-22.00,-43.00,-15.00,+1.00,+4.00,+1.00,-2.00,-8.00,-8.00,+3.00,-3.00,-5.00,-5.00,+4.00,-5.00,-9.00
+17.00,+13.00,+18.00,+10.00,+4.00,+0.00,+9.00,+13.00,-28.00,-21.00,-7.00,-4.00,-1.00,-7.00,-1.00,-14.00
-23.00,-1.00,-15.00,-8.00,-2.00,+5.00,-2.00,-5.00,-2.00,+3.00,+5.00,+1.00,-2.00,+1.00,-6.00,-8.00
-2.00,+4.00,-18.00,-9.00,-8.00,-12.00,-15.00,-8.00,+0.00,+0.00,+2.00,+1.00,+0.00,+2.00,+0.00,+12.00
+18.00,-18.00,-5.00,-8.00,-2.00,-3.00,+10.00,+24.00,+18.00,+1.00,-4.00,-5.00,-1.00,-1.00,+1.00,+20.00
-1.00,-2.00,-10.00,-6.00,+1.00,+1.00,+6.00,+1.00,+7.00,-2.00,+1.00,-2.00,+0.00,-6.00,+4.00,+2.00
+42.00,-6.00,-10.00,+4.00,-15.00,+26.00,-4.00,-21.00,-1.00,+12.00,+7.00,+1.00,-2.00,+0.00,-2.00,-4.00
+28.00,+7.00,+24.00,+6.00,+20.00,-33.00,-2.00,+28.00,-12.00,-9.00,-3.00,+7.00,+6.00,-3.00,-2.00,-21.00
+20.00,+25.00,+9.00,+8.00,+8.00,+4.00,+6.00,+12.00,+15.00,+4.00,-5.00,-15.00,+4.00,+6.00,+3.00,+0.00
+1.00,+2.00,+1.00,-2.00,-3.00,+2.00,-6.00,-22.00,+1.00,-5.00,+0.00,-1.00,-7.00,-5.00,-4.00,-2.00
-16.00,-9.00,-1.00,-2.00,-5.00,-13.00,-8.00,-14.00,-2.00,-2.00,-1.00,-3.00,-5.00,+8.00,-13.00,+1.00
-14.00,-23.00,-16.00,-1.00,-1.00,+33.00,+5.00,+15.00,+0.00,-2.00,+1.00,+4.00,-1.00,-2.00,+8.00,+3.00
+22.00,+14.00,+5.00,+1.00,-21.00,-16.00,+10.00,+22.00,-10.00,-4.00,-1.00,-11.00,-5.00,-2.00,-11.00,-12.00
-5.00,+37.00,+2.00,+1.00,+36.00,-5.00,-3.00,-5.00,+19.00,-4.00,-6.00,+14.00,-3.00,+3.00,+2.00,+4.00
-14.00,-25.00,-1.00,-1.00,-1.00,-1.00,+1.00,-1.00,+18.00,-3.00,-3.00,-25.00,+12.00,-12.00,+6.00,+11.00
+5.00,+27.00,+1.00,+0.00,-4.00,-3.00,-2.00,-2.00,-49.00,-4.00,+4.00,+16.00,-4.00,+9.00,-6.00,-8.00
-25.00,-17.00,+11.00,+9.00,+4.00,+4.00,-2.00,-6.00,-10.00,+1.00,-5.00,-19.00,-19.00,-6.00,-3.00,-6.00
-8.00,-1.00,-17.00,-7.00,-17.00,+12.00,+1.00,-3.00,+31.00,-1.00,-4.00,-17.00,-10.00,-8.00,-3.00,+0.00
+0.00,-4.00,+7.00,+0.00,+7.00,-10.00,-40.00,-7.00,-32.00,-14.00,+3.00,+4.00,-10.00,-5.00,-5.00,-19.00
-3.00,+2.00,-1.00,-6.00,-12.00,-17.00,-11.00,-9.00,+21.00,+20.00,+2.00,-3.00,+6.00,-4.00,+2.00,+4.00
+5.00,+9.00,+1.00,+2.00,+8.00,+10.00,+0.00,+1.00,-16.00,+3.00,+4.00,+13.00,+11.00,+0.00,+0.00,+3.00
-9.00,+1.00,-3.00,-1.00,-12.00,-8.00,+2.00,-2.00,+15.00,+0.00,-4.00,+0.00,+2.00,+1.00,+1.00,+9.00
-29.00,-2.00,+3.00,+4.00,+8.00,-2.00,-9.00,-17.00,+0.00,+0.00,-5.00,+6.00,+1.00,+1.00,+1.00,+4.00
+4.00,-9.00,-3.00,-3.00,-2.00,+1.00,-3.00,-7.00,+14.00,-5.00,-5.00,-10.00,+0.00,-1.00,+1.00,-7.00
-24.00,+3.00,-1.00,-2.00,-1.00,+2.00,-2.00,+24.00,-3.00,+1.00,+1.00,+9.00,-2.00,+0.00,-7.00,-10.00
-11.00,-14.00,-1.00,+6.00,+2.00,-3.00,-5.00,-7.00,-5.00,-1.00,-4.00,-6.00,+1.00,+1.00,+0.00,+23.00
-8.00,-2.00,+0.00,-5.00,-2.00,-1.00,+8.00,+16.00,-17.00,-2.00,+1.00,+2.00,-3.00,-1.00,+3.00,-16.00
+2.00,+7.00,+1.00,+3.00,-1.00,+6.00,+10.00,+15.00,+0.00,-10.00,-5.00,-10.00,-7.00,-4.00,-7.00,+12.00
-26.00,-6.00,-5.00,-6.00,-1.00,+7.00,-22.00,-17.00,+5.00,+3.00,-4.00,-1.00,-2.00,+0.00,+8.00,-2.00
-21.00,-12.00,-4.00,-3.00,-8.00,-6.00,+0.00,+9.00,-22.00,-6.00,+1.00,+4.00,+3.00,-1.00,-2.00,-10.00
-10.00,-6.00,-4.00,-1.00,+3.00,-20.00,-3.00,-39.00,+16.00,+6.00,+1.00,-1.00,-3.00,-4.00,-2.00,+19.00
+3.00,+0.00,+1.00,+2.00,+0.00,+11.00,+7.00,+25.00,-4.00,-5.00,-1.00,-3.00,-3.00,-2.00,-3.00,-11.00
+14.00,+15.00,+0.00,+1.00,+4.00,-7.00,-3.00,-7.00,-7.00,+1.00,-1.00,+7.00,+2.00,+2.00,+4.00,+1.00
+7.00,-34.00,-1.00,-3.00,+3.00,+74.00,+12.00,+4.00,+9.00,-2.00,+0.00,+0.00,+21.00,-2.00,-4.00,-6.00
+5.00,-1.00,-5.00,+1.00,-25.00,-43.00,+6.00,-1.00,-37.00,-13.00,-5.00,-7.00,-15.00,+1.00,+3.00,-3.00
+24.00,+3.00,+2.00,-4.00,+0.00,+7.00,-1.00,-8.00,+42.00,+14.00,+2.00,-10.00,-11.00,-8.00,+0.00,+4.00
-1.00,-6.00,-4.00,+5.00,+53.00,+8.00,-18.00,-16.00,-4.00,-2.00,-1.00,+3.00,+3.00,-2.00,-7.00,+0.00
+10.00,+15.00,+7.00,+1.00,-3.00,+1.00,+8.00,-3.00,-8.00,-1.00,-1.00,+2.00,+0.00,-1.00,-2.00,-13.00
-1.00,-16.00,+0.00,+3.00,+16.00,+8.00,+3.00,-5.00,-3.00,+2.00,-2.00,+0.00,+0.00,+0.00,-3.00,-2.00
+11.00,+2.00,-9.00,-7.00,-25.00,-10.00,-7.00,-7.00,-6.00,-8.00,-1.00,+1.00,+5.00,-1.00,+3.00,+2.00
-8.00,-1.00,-10.00,-20.00,-29.00,-10.00,+13.00,+24.00,+4.00,+0.00,+1.00,+3.00,+0.00,-2.00,-2.00,+2.00
-1.00,+10.00,-3.00,-1.00,-2.00,-16.00,-1.00,-3.00,-19.00,-6.00,+1.00,+1.00,-1.00,+3.00,-4.00,-8.00
+23.00,-11.00,+9.00,+4.00,-3.00,+8.00,-9.00,-3.00,+21.00,+3.00,+1.00,+6.00,+4.00,-16.00,+0.00,+13.00
+3.00,+12.00,+3.00,+7.00,+4.00,-5.00,+4.00,+0.00,-6.00,-5.00,-2.00,+1.00,-1.00,+1.00,+2.00,-8.00
-2.00,-1.00,+15.00,+13.00,-3.00,-1.00,+10.00,+2.00,+3.00,-1.00,-4.00,+2.00,+2.00,+2.00,-2.00,-3.00
+12.00,-8.00,-5.00,+1.00,+0.00,-14.00,-9.00,-3.00,-7.00,-2.00,+1.00,+0.00,-4.00,-4.00,-1.00,+3.00
-11.00,+10.00,-2.00,-9.00,-6.00,+6.00,+6.00,+6.00,-6.00,-2.00,-1.00,-3.00,-2.00,+4.00,+0.00,-2.00
-8.00,-31.00,-7.00,-7.00,+0.00,+3.00,+1.00,+4.00,+27.00,+5.00,+0.00,+0.00,+0.00,+0.00,-1.00,+0.00
+4.00,+15.00,+0.00,+2.00,+2.00,+0.00,+1.00,-11.00,+0.00,-2.00,-1.00,-2.00,-1.00,-2.00,-3.00,-2.00
+4.00,+6.00,+1.00,-2.00,-11.00,-15.00,+1.00,+28.00,-8.00,-6.00,-3.00,-4.00,-4.00,-2.00,+0.00,-1.00
+11.00,+11.00,+4.00,+5.00,+5.00,+9.00,+4.00,-4.00,+2.00,+1.00,-2.00,+1.00,-2.00,+2.00,+0.00,-1.00
+0.00,-10.00,-2.00,+2.00,+6.00,+4.00,-3.00,-13.00,-17.00,-6.00,-2.00,-2.00,-1.00,+0.00,+1.00,-4.00
-20.00,-2.00,+1.00,-2.00,-9.00,-3.00,-4.00,-4.00,-1.00,-2.00,-3.00,-4.00,-4.00,-1.00,-3.00,+2.00
-2.00,+3.00,+2.00,+3.00,+1.00,-12.00,-1.00,-10.00,-5.00,-3.00,-2.00,-1.00,-2.00,+0.00,+2.00,+3.00
-7.00,-4.00,-3.00,-4.00,-1.00,+34.00,+5.00,+4.00,+4.00,+7.00,+0.00,+2.00,+2.00,+2.00,-3.00,-4.00
-13.00,-2.00,-3.00,-7.00,+0.00,-33.00,-11.00,-12.00,-11.00,-8.00,-4.00,-3.00,+0.00,-1.00,-1.00,+0.00
+15.00,-7.00,-7.00,+0.00,-11.00,+19.00,+11.00,-2.00,-4.00,-1.00,-2.00,+3.00,-1.00,+0.00,-2.00,-3.00
-3.00,+5.00,-1.00,+2.00,-7.00,-21.00,-5.00,+0.00,+6.00,+0.00,-1.00,-6.00,-5.00,-3.00,+0.00,-1.00
-4.00,+3.00,-2.00,-1.00,+25.00,+6.00,+3.00,+2.00,+6.00,+1.00,-1.00,-1.00,+1.00,+1.00,-1.00,+0.00
-13.00,+6.00,+7.00,+3.00,+10.00,+7.00,-2.00,+2.00,-9.00,-4.00,-2.00,-3.00,+0.00,+0.00,-1.00,-1.00
+16.00,-12.00,-3.00,-2.00,-6.00,-8.00,+1.00,+3.00,-1.00,-1.00,+1.00,+0.00,+0.00,+0.00,+2.00,-1.00
+1.00,+0.00,-5.00,-8.00,-3.00,+5.00,+0.00,+3.00,-15.00,-8.00,-2.00,-2.00,-2.00,-3.00,-1.00,-3.00
-6.00,-1.00,-3.00,-6.00,-10.00,-6.00,-4.00,-12.00,+17.00,+6.00,+1.00,+1.00,+1.00,+1.00,-1.00,+3.00
