-2.00,-2.00,+2.00,+0.00,-19.00,-13.00,-1.00,+2.00,-5.00,-7.00,+0.00,+3.00,-6.00,-1.00,-3.00,-9.00
+0.00,+3.00,-2.00,-4.00,-37.00,-3.00,-2.00,+0.00,-2.00,-2.00,+2.00,-1.00,+2.00,+2.00,+1.00,+2.00
-3.00,+7.00,+1.00,+6.00,+43.00,+5.00,-1.00,+0.00,+0.00,-1.00,-6.00,+5.00,+4.00,+0.00,-1.00,-4.00
-1.00,-2.00,+0.00,-2.00,+3.00,-1.00,-2.00,+0.00,+6.00,+4.00,+2.00,+3.00,+4.00,+3.00,+3.00,+5.00
+5.00,+2.00,-2.00,-3.00,+1.00,+5.00,-1.00,-3.00,-17.00,-8.00,-5.00,-3.00,-8.00,-3.00,-4.00,-8.00
-5.00,-11.00,-3.00,-1.00,+6.00,+0.00,+2.00,+1.00,+12.00,+15.00,+4.00,-2.00,-3.00,+0.00,+2.00,+3.00
-1.00,+6.00,-3.00,+0.00,-21.00,-8.00,-2.00,-1.00,-5.00,-4.00,+3.00,-8.00,-9.00,-4.00,-4.00,-5.00
+1.00,-2.00,-1.00,+0.00,+2.00,-3.00,-2.00,-1.00,+13.00,+6.00,+1.00,+2.00,-3.00,+0.00,+1.00,+7.00
-5.00,-22.00,-1.00,+1.00,-3.00,+2.00,+1.00,+0.00,+1.00,-3.00,-3.00,-2.00,-7.00,-1.00,-3.00,+1.00
+5.00,+9.00,+1.00,+2.00,+0.00,-1.00,+0.00,+1.00,+10.00,+0.00,-5.00,+1.00,+8.00,-1.00,-2.00,-3.00
-2.00,+1.00,-3.00,-9.00,-9.00,-7.00,+0.00,-3.00,-24.00,-10.00,+1.00,+29.00,+9.00,+6.00,+1.00,-1.00
+6.00,+6.00,+2.00,+2.00,+9.00,+6.00,+1.00,+1.00,+23.00,+3.00,+3.00,-7.00,+7.00,+1.00,+3.00,+10.00
+0.00,+17.00,+3.00,+0.00,-9.00,-2.00,-2.00,-1.00,-4.00,+5.00,+0.00,-9.00,-3.00,-2.00,-1.00,+1.00
-1.00,-3.00,-2.00,-2.00,+6.00,-1.00,-2.00,+0.00,-11.00,-3.00,-2.00,-6.00,-10.00,-2.00,-4.00,-5.00
+4.00,-11.00,+0.00,-5.00,-7.00,-2.00,+1.00,+1.00,+29.00,+8.00,-4.00,-15.00,-9.00,-5.00,-3.00,+1.00
-5.00,-2.00,-7.00,-3.00,-17.00,-2.00,+0.00,+0.00,-25.00,-30.00,-8.00,+2.00,+21.00,-2.00,-4.00,-6.00
+0.00,-14.00,+4.00,+3.00,+27.00,-1.00,+0.00,+4.00,+0.00,+18.00,+3.00,+3.00,+4.00,+6.00,+6.00,+2.00
-1.00,+12.00,+2.00,+3.00,+11.00,+8.00,+1.00,-1.00,+2.00,+9.00,+4.00,-1.00,+11.00,+0.00,+1.00,+5.00
-5.00,+3.00,-2.00,+2.00,-2.00,+19.00,+0.00,-5.00,-19.00,+8.00,+6.00,+1.00,-34.00,+0.00,+1.00,+0.00
+5.00,+3.00,-2.00,-4.00,-4.00,-32.00,-3.00,+1.00,+8.00,+6.00,+1.00,+5.00,+2.00,+1.00,+2.00,+7.00
+0.00,-5.00,-5.00,-8.00,-21.00,-8.00,-4.00,-5.00,+4.00,-15.00,-4.00,-1.00,-4.00,-2.00,-2.00,-6.00
-5.00,-5.00,-3.00,-5.00,+15.00,+0.00,-3.00,+0.00,-23.00,-4.00,-4.00,+15.00,+19.00,-4.00,-9.00,-25.00
-4.00,-6.00,-1.00,+0.00,-10.00,-7.00,-2.00,-1.00,+30.00,+4.00,+6.00,-10.00,+0.00,+1.00,+3.00,+8.00
+0.00,-2.00,+3.00,+8.00,+16.00,+20.00,+2.00,-1.00,-30.00,-25.00,-11.00,-7.00,-16.00,-5.00,-6.00,-9.00
-1.00,+17.00,-4.00,-2.00,-4.00,+3.00,+9.00,+3.00,-1.00,+12.00,+1.00,-8.00,-21.00,-4.00,+0.00,+0.00
+1.00,-5.00,+3.00,-2.00,-2.00,-11.00,-15.00,-5.00,-11.00,-8.00,-5.00,-4.00,+6.00,+4.00,+3.00,-1.00
+0.00,-28.00,+1.00,-2.00,-10.00,-1.00,+0.00,-1.00,-14.00,+5.00,-1.00,+6.00,+2.00,+8.00,-2.00,-2.00
-1.00,-13.00,+0.00,+1.00,-1.00,+1.00,-5.00,+0.00,-4.00,-4.00,-5.00,-18.00,+12.00,+5.00,+7.00,+3.00
-1.00,+11.00,+1.00,-1.00,-1.00,+4.00,+3.00,-2.00,+13.00,-9.00,-3.00,+2.00,-25.00,-23.00,-31.00,-15.00
+1.00,-4.00,-5.00,-4.00,-7.00,+1.00,+4.00,+1.00,+50.00,+2.00,-1.00,-13.00,-20.00,+7.00,+6.00,+18.00
-3.00,+3.00,+1.00,+0.00,-28.00,-15.00,-2.00,-4.00,-8.00,+6.00,-1.00,+6.00,+12.00,-4.00,+9.00,+10.00
+3.00,+3.00,+1.00,+6.00,+36.00,+11.00,+0.00,+0.00,+9.00,+8.00,+0.00,-3.00,-1.00,-19.00,-3.00,-11.00
+1.00,+1.00,+0.00,-2.00,-7.00,-6.00,-3.00,-2.00,+6.00,+7.00,+2.00,+15.00,+32.00,+31.00,+11.00,+4.00
-1.00,-16.00,-8.00,-3.00,+10.00,+6.00,+3.00,-2.00,+6.00,+1.00,+4.00,-3.00,+9.00,-28.00,-14.00,+7.00
-3.00,+19.00,-2.00,-4.00,-3.00,-4.00,-4.00,-1.00,+22.00,-4.00,-6.00,-20.00,-25.00,+16.00,+12.00,+26.00
-6.00,+3.00,+1.00,-2.00,-6.00,-5.00,+3.00,+0.00,-19.00,-2.00,+1.00,+27.00,+5.00,-7.00,-12.00,-7.00
-7.00,-8.00,-5.00,-2.00,-8.00,+0.00,-6.00,-5.00,-21.00,-7.00,+1.00,-22.00,-23.00,+11.00,+12.00,+0.00
-1.00,-18.00,+0.00,+6.00,-25.00,+10.00,+2.00,+1.00,-57.00,-23.00,-8.00,-2.00,+5.00,-11.00,-8.00,-16.00
+15.00,+21.00,+7.00,+1.00,+14.00,+13.00,+1.00,+5.00,+25.00,+3.00,-4.00,+6.00,+14.00,+23.00,+1.00,-6.00
-6.00,-3.00,-3.00,-5.00,+0.00,-47.00,-3.00,+1.00,+13.00,+4.00,+0.00,-4.00,-5.00,-5.00,-40.00,-7.00
-4.00,-10.00,-5.00,-1.00,+26.00,+8.00,-2.00,+0.00,+24.00,-2.00,-4.00,+5.00,+5.00,-4.00,+69.00,+26.00
-2.00,+22.00,-3.00,-7.00,-6.00,-7.00,-2.00,-2.00,-11.00,+26.00,+12.00,+10.00,+25.00,+24.00,+28.00,+24.00
-12.00,-36.00,-7.00,-2.00,-26.00,-6.00,+11.00,-1.00,+1.00,-6.00,-6.00,-3.00,-17.00,-21.00,-15.00,-1.00
+4.00,+3.00,+2.00,+1.00,+20.00,+3.00,-14.00,-3.00,-26.00,-3.00,-2.00,-16.00,-25.00,-2.00,+5.00,-21.00
+4.00,-3.00,+2.00,+2.00,+7.00,+8.00,-6.00,-6.00,-8.00,-7.00,+0.00,+16.00,+9.00,-3.00,-31.00,-5.00
+3.00,+21.00,+5.00,+5.00,-2.00,-4.00,-2.00,+0.00,+21.00,-16.00,-14.00,-11.00,+5.00,+21.00,+27.00,+19.00
-1.00,+21.00,+1.00,+3.00,+16.00,+29.00,-1.00,-4.00,-110.00,-19.00,-3.00,-1.00,-6.00,-42.00,-17.00,-30.00
-9.00,-19.00,-2.00,-5.00,-12.00,+3.00,+7.00,+6.00,+53.00,+18.00,+7.00,-11.00,-14.00,+37.00,+9.00,+14.00
+10.00,-22.00,-10.00,-8.00,-38.00,-34.00,+3.00,+1.00,-7.00,+4.00,+4.00,+1.00,+17.00,-22.00,-65.00,-12.00
-50.00,+10.00,-1.00,+4.00,+32.00,+19.00,-6.00,+3.00,-1.00,-17.00,-10.00,-2.00,-18.00,+1.00,+0.00,-12.00
-6.00,-36.00,-5.00,-2.00,-5.00,-33.00,-8.00,-3.00,+4.00,+16.00,+1.00,+5.00,+51.00,+9.00,+8.00,-4.00
+7.00,+24.00,+8.00,+4.00,-24.00,+4.00,+3.00,-1.00,-19.00,-6.00,-1.00,+3.00,-68.00,-3.00,+12.00,-3.00
+4.00,+0.00,+4.00,+3.00,+27.00,+64.00,+2.00,-1.00,-3.00,-10.00,-6.00,+5.00,+23.00,-10.00,-4.00,-7.00
+1.00,-23.00,-12.00,-11.00,-27.00,+44.00,-10.00,-5.00,-15.00,+4.00,+1.00,-11.00,-25.00,-14.00,-16.00,-12.00
-7.00,-33.00,-7.00,-5.00,-8.00,-52.00,-61.00,+22.00,+3.00,-11.00,-1.00,+1.00,+19.00,+4.00,-19.00,-30.00
-14.00,-5.00,+2.00,+1.00,-2.00,-51.00,-8.00,-26.00,+29.00,+9.00,+3.00,+6.00,+7.00,-8.00,-23.00,+5.00
+8.00,+48.00,+4.00,+3.00,+11.00,-23.00,+37.00,+17.00,+36.00,+11.00,+4.00,+9.00,-6.00,+6.00,+21.00,+23.00
+19.00,-39.00,+5.00,+3.00,+5.00,+18.00,+14.00,-2.00,-20.00,-10.00,-4.00,-6.00,-34.00,+7.00,+1.00,-3.00
+16.00,+54.00,+4.00,-1.00,-9.00,+29.00,-15.00,-4.00,-1.00,-9.00,+1.00,-20.00,+14.00,+3.00,+57.00,+7.00
-9.00,-48.00,-11.00,-5.00,+7.00,+24.00,+34.00,+9.00,-42.00,-17.00,-11.00,-1.00,-3.00,-5.00,-2.00,-27.00
-36.00,+24.00,+4.00,-2.00,-10.00,+14.00,-28.00,-28.00,-24.00,-3.00,-4.00,-15.00,+17.00,-2.00,-23.00,-11.00
+1.00,+4.00,+9.00,+17.00,+30.00,-83.00,+54.00,+0.00,+26.00,-3.00,-4.00,-5.00,+3.00,-8.00,+3.00,+9.00
-2.00,-6.00,-9.00,-8.00,-45.00,+23.00,+2.00,-13.00,+29.00,+13.00,+2.00,+0.00,-1.00,+18.00,-18.00,+22.00
+29.00,+21.00,-2.00,-1.00,+45.00,-27.00,-32.00,+11.00,-12.00,+16.00,+6.00,+4.00,+12.00,-5.00,+6.00,+7.00
+23.00,-1.00,-5.00,-3.00,-15.00,+23.00,+23.00,-17.00,-33.00,-14.00,-3.00,+10.00,-21.00,+18.00,+40.00,-10.00
+17.00,+20.00,+4.00,+2.00,+26.00,+28.00,+16.00,+14.00,-2.00,-18.00,+5.00,+12.00,-14.00,+28.00,+52.00,-9.00
-19.00,-19.00,-3.00,-2.00,-4.00,-34.00,+0.00,-17.00,+27.00,+18.00,+2.00,-16.00,-24.00,-21.00,-5.00,+12.00
+2.00,+45.00,+2.00,+0.00,-7.00,+64.00,-8.00,-1.00,+11.00,-4.00,+0.00,-5.00,+6.00,-21.00,+0.00,+10.00
-10.00,-23.00,-5.00,-3.00,-23.00,-1.00,-42.00,+4.00,-14.00,+14.00,-6.00,-7.00,-20.00,+10.00,-17.00,-22.00
+22.00,+5.00,+13.00,+10.00,-5.00,-27.00,+13.00,-10.00,-7.00,-8.00,+3.00,+3.00,+12.00,-11.00,-10.00,-14.00
+11.00,+7.00,+2.00,+1.00,+34.00,-8.00,+26.00,+6.00,+13.00,+0.00,-6.00,+6.00,-19.00,+2.00,-11.00,+10.00
+20.00,-4.00,-10.00,-8.00,-29.00,-3.00,-1.00,+1.00,+6.00,+15.00,+9.00,+16.00,+16.00,+17.00,-7.00,+7.00
-13.00,+5.00,-3.00,-8.00,-25.00,-53.00,-31.00,-8.00,-4.00,-27.00,-5.00,+3.00,+35.00,+8.00,+45.00,+16.00
-14.00,-41.00,-8.00,-4.00,+16.00,+5.00,-60.00,-12.00,+12.00,+24.00,+0.00,-19.00,-17.00,-26.00,-59.00,-4.00
+27.00,+66.00,+14.00,+5.00,-14.00,+38.00,+64.00,-8.00,+4.00,-4.00,-2.00,+7.00,+15.00,+6.00,-3.00,-14.00
-1.00,-17.00,+0.00,+2.00,+35.00,-13.00,+7.00,+24.00,+24.00,+7.00,-2.00,-19.00,-33.00,-11.00,-10.00,-7.00
+6.00,-5.00,+4.00,+5.00,+1.00,+5.00,+89.00,+19.00,-28.00,-10.00,-6.00,+14.00,-15.00,+1.00,-6.00,-20.00
-46.00,-5.00,-3.00,-10.00,-62.00,-55.00,-22.00,-13.00,+21.00,+7.00,+1.00,+1.00,+11.00,-5.00,-16.00,+27.00
-1.00,-18.00,-6.00,-2.00,+42.00,+32.00,-14.00,-1.00,-74.00,-43.00,-12.00,-3.00,-47.00,-3.00,+52.00,-18.00
-13.00,-11.00,-1.00,-3.00,-35.00,+8.00,-30.00,-12.00,-38.00,+39.00,+8.00,+7.00,+110.00,+3.00,-29.00,+15.00
+1.00,-31.00,+4.00,+6.00,+39.00,-4.00,-10.00,-9.00,-18.00,-48.00,-3.00,-5.00,-23.00,-15.00,-84.00,-35.00
+13.00,+53.00,+1.00,+3.00,+12.00,+19.00,+7.00,+14.00,+89.00,+65.00,+9.00,-7.00,-12.00,+0.00,-11.00,-3.00
-30.00,-31.00,-1.00,-3.00,-9.00,-23.00,+4.00,+17.00,-16.00,-12.00,-4.00,-24.00,-2.00,-27.00,-10.00,-8.00
-25.00,+23.00,-6.00,-9.00,-25.00,+9.00,+3.00,-46.00,-8.00,-16.00,-10.00,-1.00,-31.00,-7.00,+35.00,-2.00
-12.00,-20.00,-18.00,-12.00,+18.00,+44.00,-42.00,+25.00,-67.00,+0.00,+2.00,-10.00,-6.00,+9.00,+6.00,-16.00
+26.00,-2.00,+9.00,+2.00,-10.00,+43.00,+17.00,+45.00,-53.00,-16.00,-6.00,-7.00,+10.00,-20.00,-8.00,-37.00
+5.00,+13.00,+10.00,+7.00,-1.00,-57.00,-44.00,-9.00,+66.00,+49.00,+6.00,+18.00,-2.00,-3.00,+35.00,+47.00
+14.00,-13.00,+8.00,+9.00,+20.00,+8.00,+92.00,+20.00,-55.00,-37.00,-14.00,-19.00,-39.00,-19.00,-58.00,-36.00
-13.00,+14.00,-1.00,-1.00,-14.00,-4.00,+13.00,-14.00,+48.00,+47.00,+22.00,-3.00,+17.00,-29.00,-58.00,+29.00
+13.00,-15.00,-11.00,-10.00,-29.00,-9.00,-13.00,-16.00,+12.00,+2.00,-6.00,+9.00,-11.00,+37.00,+81.00,+22.00
-5.00,+16.00,-11.00,-6.00,+23.00,+23.00,+2.00,-3.00,+4.00,-6.00,+0.00,+6.00,+3.00,+8.00,-16.00,+15.00
-3.00,+42.00,-8.00,-11.00,-31.00,-6.00,-32.00,-33.00,-16.00,-27.00,-9.00,+4.00,+16.00,+13.00,+9.00,+1.00
+24.00,-81.00,+3.00,+2.00,-6.00,-21.00,-3.00,+60.00,+29.00,+3.00,+1.00,+26.00,+5.00,-24.00,+52.00,+40.00
+5.00,+71.00,+15.00,+7.00,+7.00,+102.00,+59.00,-37.00,-126.00,-67.00,-21.00,-5.00,-35.00,+39.00,-13.00,-108.00
-33.00,-44.00,-1.00,-3.00,-34.00,-72.00,-13.00,+5.00,+76.00,+48.00,+6.00,+13.00,+25.00,-27.00,+24.00,+49.00
-29.00,+24.00,+6.00,+8.00,+37.00,-12.00,-16.00,-3.00,-1.00,+42.00,+13.00,-16.00,-17.00,-4.00,+31.00,+84.00
+17.00,+28.00,-5.00,-2.00,-7.00,-22.00,-35.00,-9.00,+69.00,-3.00,+2.00,+1.00,-6.00,+27.00,-3.00,+26.00
-13.00,-83.00,-16.00,-11.00,-3.00,-41.00,-29.00,+24.00,-9.00,-3.00,+8.00,-2.00,-24.00,-5.00,+36.00,+33.00
-31.00,+13.00,-4.00,-4.00,-6.00,+64.00,-3.00,+19.00,-32.00,-25.00,-6.00,-3.00,+33.00,+16.00,-20.00,-51.00
-6.00,-5.00,+2.00,-10.00,-106.00,-77.00,+7.00,-1.00,-30.00,-55.00,-9.00,+10.00,-20.00,+6.00,+9.00,-27.00
+3.00,+4.00,+8.00,+18.00,+79.00,+77.00,+4.00,-31.00,+33.00,+70.00,+9.00,+11.00,+8.00,-1.00,+24.00,-28.00
+27.00,+25.00,+0.00,+1.00,-25.00,-15.00,+6.00,+7.00,-53.00,-42.00,-10.00,+6.00,+12.00,-14.00,-42.00,+41.00
+18.00,+17.00,+2.00,+7.00,+85.00,+6.00,+4.00,+14.00,+45.00,+25.00,+5.00,-6.00,-15.00,+1.00,-46.00,-26.00
-11.00,-38.00,-10.00,-9.00,-18.00,+1.00,-1.00,+4.00,+24.00,+1.00,+7.00,+2.00,+12.00,-10.00,+19.00,+18.00
+3.00,+18.00,+1.00,-1.00,-14.00,+38.00,-10.00,+7.00,-40.00,-47.00,-18.00,-20.00,+1.00,+2.00,-2.00,-16.00
+14.00,-46.00,-5.00,-5.00,-14.00,-44.00,-52.00,-29.00,+53.00,+23.00,+5.00,+5.00,+21.00,-19.00,-13.00,-11.00
+33.00,+53.00,+3.00,-1.00,-3.00,+42.00,+91.00,+21.00,-57.00,-22.00,-6.00,+4.00,-3.00,+13.00,+0.00,-25.00
+8.00,+6.00,+10.00,+10.00,+17.00,+73.00,-66.00,-5.00,+56.00,+42.00,+5.00,+2.00,+25.00,+9.00,+2.00,-5.00
+44.00,-5.00,+10.00,+3.00,-29.00,+94.00,+69.00,-8.00,-71.00,-35.00,-10.00,-4.00,+16.00,-4.00,+8.00,-16.00
-33.00,+32.00,-1.00,+1.00,+53.00,-53.00,-31.00,-11.00,+71.00,+53.00,+22.00,+14.00,-7.00,-11.00,-13.00,+24.00
-8.00,-33.00,-14.00,-8.00,-17.00,-22.00,-10.00,-14.00,-10.00,-3.00,+2.00,-16.00,-10.00,+9.00,+9.00,+18.00
+12.00,+19.00,-8.00,-6.00,+5.00,-3.00,-9.00,+2.00,-4.00,+7.00,+3.00,-2.00,+9.00,-41.00,-23.00,-6.00
-45.00,+14.00,-9.00,-16.00,-24.00,-58.00,-42.00,+10.00,-38.00,-35.00,-19.00,-12.00,-22.00,+10.00,-7.00,-28.00
-5.00,-19.00,-6.00,-2.00,-15.00,+28.00,+72.00,+25.00,+56.00,+5.00,+2.00,+9.00,+61.00,+3.00,-4.00,+36.00
-21.00,+18.00,+8.00,-1.00,-40.00,-72.00,-120.00,-83.00,-40.00,-22.00,+1.00,-18.00,-51.00,-22.00,+0.00,-38.00
+59.00,+47.00,+14.00,+15.00,+56.00,-45.00,+105.00,+31.00,-24.00,+8.00,-9.00,+14.00,-16.00,+4.00,+8.00,+3.00
-3.00,-30.00,-1.00,+5.00,-7.00,-46.00,+24.00,+17.00,-9.00,-18.00,+0.00,+0.00,+54.00,+10.00,+12.00,+16.00
+6.00,+19.00,+2.00,+0.00,+15.00,-12.00,+37.00,-11.00,-22.00,+2.00,-10.00,-31.00,-39.00,-11.00,-7.00,-25.00
+8.00,+0.00,+0.00,+3.00,-6.00,-58.00,-8.00,+81.00,-10.00,-4.00,-1.00,+8.00,+13.00,+6.00,-10.00,-17.00
-35.00,-51.00,-8.00,-4.00,-55.00,+35.00,-54.00,+10.00,+20.00,+6.00,+2.00,+5.00,-3.00,+14.00,-8.00,-13.00
+2.00,+57.00,+0.00,-2.00,+39.00,+1.00,-12.00,-63.00,+11.00,+12.00,-1.00,-12.00,-22.00,-18.00,-5.00,+17.00
+28.00,-77.00,-18.00,-13.00,+6.00,+18.00,-42.00,-6.00,+10.00,-55.00,-5.00,+14.00,+11.00,+4.00,+3.00,+27.00
+92.00,+36.00,+20.00,+14.00,+43.00,+29.00,+42.00,+35.00,-27.00,-14.00,-14.00,+12.00,+9.00,+0.00,-13.00,-18.00
-33.00,+41.00,+2.00,-6.00,+4.00,+2.00,+8.00,+10.00,+21.00,+11.00,+9.00,-10.00,-9.00,+5.00,+9.00,+0.00
+42.00,+30.00,+11.00,+6.00,-10.00,-54.00,-5.00,+45.00,+8.00,+4.00,+1.00,+2.00,-3.00,-1.00,-4.00,-28.00
-11.00,+25.00,+1.00,+1.00,+10.00,-7.00,-20.00,-19.00,-104.00,-27.00,-7.00,-4.00,+6.00,-18.00,-5.00,-29.00
-20.00,-79.00,-12.00,-6.00,-47.00,-7.00,-10.00,-28.00,+81.00,+9.00,-4.00,-4.00,-12.00,+10.00,+26.00,+46.00
-1.00,-91.00,-12.00,-4.00,+0.00,-17.00,-25.00,-16.00,+17.00,+16.00,+2.00,+13.00,+21.00,+22.00,+7.00,+21.00
-12.00,+59.00,-13.00,-11.00,-18.00,-11.00,-23.00,-38.00,+42.00,+22.00,+5.00,+2.00,-2.00,+8.00,+14.00,+39.00
+7.00,+48.00,+22.00,+9.00,+46.00,+24.00,-15.00,+13.00,-35.00,+2.00,-4.00,-1.00,-11.00,-4.00,-14.00,-5.00
+0.00,+58.00,+10.00,+5.00,+0.00,+7.00,+0.00,-12.00,+13.00,+1.00,+12.00,-19.00,-10.00,+2.00,-16.00,-11.00
-8.00,-13.00,+12.00,+14.00,+13.00,+37.00,+18.00,+1.00,-30.00,-32.00,-10.00,+2.00,-23.00,+21.00,+3.00,-22.00
-57.00,-63.00,-25.00,-28.00,-23.00,-33.00,-29.00,-39.00,-36.00,-6.00,-7.00,-17.00,+33.00,-3.00,+13.00,+0.00
-14.00,+0.00,-8.00,-6.00,-34.00,-56.00,-22.00,+5.00,+56.00,+16.00,+0.00,-8.00,-105.00,-3.00,-4.00,-5.00
-7.00,-23.00,-4.00,+4.00,+32.00,+79.00,+24.00,-23.00,+8.00,+3.00,+0.00,+3.00,+52.00,+9.00,-11.00,+17.00
-27.00,-1.00,-20.00,-15.00,+5.00,-21.00,-18.00,-21.00,+35.00,+5.00,+2.00,-3.00,+3.00,-2.00,-16.00,-11.00
+21.00,+4.00,+19.00,+15.00,-9.00,-23.00,-40.00,-1.00,-11.00,+16.00,+5.00,+1.00,-8.00,-6.00,+5.00,-9.00
+17.00,-23.00,+4.00,+13.00,+29.00,+13.00,+14.00,+54.00,-65.00,-26.00,-6.00,+14.00,+33.00,-1.00,+15.00,-11.00
-35.00,-11.00,-17.00,-14.00,-2.00,+74.00,-76.00,-13.00,+42.00,+3.00,-7.00,+3.00,-13.00,+9.00,+9.00,+61.00
-2.00,-45.00,-3.00,-3.00,-6.00,-84.00,-12.00,-4.00,-22.00,-31.00,-5.00,-4.00,-8.00,-16.00,-7.00,-32.00
-19.00,+18.00,+5.00,+0.00,-6.00,+47.00,+29.00,+7.00,+30.00,+14.00,+2.00,+2.00,-26.00,-8.00,-5.00,+40.00
+2.00,+34.00,-2.00,+0.00,-50.00,-60.00,-47.00,-26.00,-35.00,+0.00,+0.00,-4.00,+23.00,-2.00,+0.00,+3.00
+10.00,-29.00,-5.00,+11.00,+42.00,+32.00,+109.00,+64.00,+36.00,+32.00,+10.00,+5.00,-4.00,+0.00,+21.00,-15.00
+4.00,-45.00,+1.00,-6.00,-12.00,-33.00,-26.00,-15.00,-51.00,-45.00,-14.00,-6.00,+5.00,+0.00,-30.00,+4.00
+9.00,+48.00,-1.00,-2.00,+37.00,+45.00,+30.00,+4.00,+23.00,+5.00,+7.00,+1.00,+0.00,+12.00,+23.00,+7.00
-11.00,-58.00,+0.00,+0.00,-10.00,+44.00,-19.00,-37.00,-6.00,+8.00,-2.00,-7.00,+11.00,-22.00,-14.00,-14.00
-35.00,-11.00,-9.00,-3.00,-21.00,-46.00,+14.00,-2.00,-89.00,-34.00,-3.00,+1.00,+4.00,-9.00,-15.00,-49.00
+6.00,+5.00,+2.00,+6.00,+23.00,+69.00,+3.00,-3.00,+24.00,-2.00,+0.00,+10.00,+15.00,+4.00,+19.00,+33.00
-28.00,+85.00,+3.00,-2.00,-20.00,-25.00,+17.00,+0.00,+24.00,+30.00,-2.00,-6.00,-15.00,-7.00,-36.00,-41.00
-12.00,-73.00,+8.00,+3.00,-1.00,+14.00,+6.00,-4.00,-81.00,-32.00,-6.00,+37.00,+13.00,+6.00,-39.00,-42.00
+14.00,+9.00,+0.00,-7.00,+2.00,+8.00,-19.00,-5.00,+49.00,+29.00,+2.00,-49.00,-40.00,-12.00,+10.00,+28.00
-3.00,+10.00,-21.00,-18.00,-22.00,-17.00,+29.00,+7.00,-50.00,-2.00,+2.00,+9.00,+15.00,-15.00,+30.00,-28.00
+4.00,-84.00,-7.00,+7.00,+2.00,-36.00,-49.00,+3.00,+2.00,-12.00,-1.00,-6.00,-12.00,+0.00,+39.00,+1.00
-4.00,+41.00,+6.00,+10.00,+6.00,+1.00,-26.00,-2.00,+40.00,+11.00,-3.00,-11.00,-25.00,+0.00,-45.00,-5.00
+0.00,+60.00,+13.00,-5.00,-55.00,-24.00,+41.00,-21.00,-26.00,-27.00,-5.00,+3.00,+2.00,+11.00,-37.00,-25.00
+18.00,+52.00,+7.00,+7.00,+62.00,+42.00,+27.00,+34.00,+1.00,+11.00,-4.00,-10.00,+25.00,+2.00,-15.00,+15.00
+5.00,-9.00,-1.00,-1.00,-36.00,+9.00,-3.00,+7.00,+39.00,-17.00,-11.00,-9.00,-3.00,-29.00,-18.00,+12.00
-1.00,-20.00,-16.00,-9.00,-11.00,+40.00,-78.00,+17.00,-64.00,+8.00,+8.00,+2.00,+16.00,-8.00,+0.00,-59.00
-15.00,-36.00,-2.00,+1.00,+27.00,-87.00,+2.00,-15.00,+66.00,+24.00,+8.00,+15.00,+0.00,+11.00,-15.00,+4.00
+9.00,+24.00,+3.00,+1.00,+7.00,+18.00,-1.00,+4.00,-75.00,-37.00,-5.00,-12.00,-15.00,+4.00,+12.00,-20.00
-8.00,-50.00,-6.00,-5.00,-28.00,+12.00,-32.00,-1.00,+48.00,+34.00,+6.00,+4.00,+3.00,-7.00,-32.00,-4.00
-51.00,-6.00,+2.00,+5.00,+52.00,-24.00,+88.00,+5.00,+31.00,+16.00,+6.00,+4.00,+14.00,-14.00,+16.00,+30.00
+28.00,+20.00,+4.00,+4.00,-9.00,+60.00,-22.00,-34.00,-48.00,-9.00,-1.00,+5.00,-4.00,-5.00,+12.00,-32.00
-26.00,-17.00,-9.00,-6.00,-16.00,-40.00,+1.00,-6.00,+15.00,-5.00,-4.00,-4.00,+3.00,+2.00,-22.00,-13.00
+32.00,+13.00,+14.00,+10.00,+15.00,-6.00,-4.00,+9.00,-68.00,-32.00,-5.00,+4.00,+2.00,-1.00,+17.00,-19.00
+9.00,+2.00,-5.00,-6.00,-27.00,-23.00,-15.00,-1.00,+66.00,+31.00,+3.00,-9.00,-18.00,+5.00,+13.00,+32.00
+8.00,-47.00,-9.00,-8.00,+0.00,+20.00,+34.00,-6.00,-25.00,+2.00,-5.00,-1.00,+5.00,-12.00,+29.00,+35.00
+1.00,+52.00,+9.00,+5.00,+12.00,+0.00,+0.00,+4.00,-21.00,+1.00,-5.00,+0.00,-13.00,+2.00,-17.00,-72.00
-30.00,-3.00,-18.00,-12.00,-12.00,-14.00,+7.00,-14.00,+33.00,-40.00,+4.00,+3.00,-12.00,+14.00,+8.00,+76.00
+45.00,-8.00,-1.00,-3.00,-2.00,+5.00,+41.00,+17.00,-17.00,+23.00,+2.00,+19.00,+63.00,+25.00,+32.00,+7.00
-2.00,+31.00,+7.00,+7.00,+14.00,-10.00,-7.00,+13.00,-51.00,-31.00,+0.00,-6.00,-73.00,-19.00,-26.00,-3.00
+11.00,-18.00,+6.00,+3.00,-24.00,+74.00,-46.00,-45.00,+13.00,+1.00,-4.00,-16.00,-12.00,+49.00,+29.00,+39.00
-3.00,+42.00,+10.00,+5.00,-14.00,-31.00,-1.00,+21.00,-4.00,-14.00,-4.00,+1.00,+12.00,+5.00,+35.00,-15.00
+2.00,-56.00,-7.00,-9.00,+12.00,-1.00,-3.00,-5.00,+39.00,+32.00,+7.00,-7.00,-11.00,-6.00,-75.00,-29.00
-25.00,+10.00,-2.00,-9.00,-5.00,-19.00,-87.00,+7.00,-3.00,-6.00,-7.00,+13.00,+23.00,+22.00,+8.00,+38.00
+21.00,-19.00,-3.00,-4.00,-28.00,-17.00,+80.00,-8.00,+32.00,+6.00,-7.00,-4.00,+9.00,-26.00,-47.00,-22.00
-19.00,-7.00,-6.00,-5.00,+29.00,-24.00,+1.00,-19.00,-47.00,-5.00,+3.00,-18.00,-24.00,-10.00,+53.00,+70.00
+18.00,+45.00,+11.00,+14.00,-15.00,-78.00,+27.00,+36.00,+27.00,-26.00,-6.00,+2.00,+16.00,+23.00,+34.00,-10.00
-6.00,-70.00,-3.00,+6.00,-9.00,-16.00,-17.00,-3.00,-91.00,+4.00,+2.00,+0.00,+19.00,-20.00,-41.00,-38.00
-14.00,+52.00,-11.00,-20.00,+5.00,+46.00,-24.00,+9.00,+28.00,+5.00,+2.00,+6.00,-31.00,-7.00,-7.00,-27.00
-9.00,-75.00,-5.00,+2.00,+34.00,-41.00,-22.00,-17.00,-67.00,-13.00,-2.00,+14.00,+39.00,+2.00,-27.00,-27.00
-4.00,+28.00,-6.00,-11.00,-30.00,+17.00,-21.00,-1.00,+2.00,-48.00,-18.00,-23.00,-32.00,-36.00,+21.00,+39.00
-47.00,+21.00,+6.00,+5.00,-16.00,-67.00,+70.00,+6.00,+39.00,+29.00,+16.00,+18.00,+21.00,-7.00,-30.00,-39.00
+17.00,-23.00,-3.00,+7.00,+19.00,-31.00,-18.00,-13.00,-3.00,+14.00,-2.00,+1.00,+20.00,-14.00,+29.00,+9.00
-5.00,+41.00,+12.00,+3.00,-8.00,-24.00,-4.00,-4.00,-38.00,+42.00,+7.00,-7.00,-6.00,+2.00,-13.00,+14.00
+47.00,-20.00,+4.00,+9.00,+16.00,+36.00,+48.00,+53.00,-89.00,-5.00,+4.00,+1.00,-5.00,+10.00,-28.00,-45.00
+38.00,+26.00,+3.00,+1.00,-10.00,+58.00,-1.00,-2.00,-24.00,-16.00,-4.00,+9.00,+22.00,+12.00,+22.00,-16.00
-44.00,-25.00,-2.00,+7.00,+4.00,+14.00,-42.00,-15.00,-7.00,-8.00,-4.00,-18.00,-39.00,-15.00,-22.00,+16.00
-44.00,-75.00,-28.00,-28.00,-32.00,-79.00,+16.00,-14.00,+27.00,+26.00,+4.00,-9.00,-38.00,+1.00,-15.00,-22.00
+20.00,+75.00,+7.00,-7.00,-25.00,-5.00,-50.00,-8.00,+8.00,-11.00,-13.00,-12.00,+28.00,+12.00,+64.00,+19.00
-14.00,-48.00,-12.00,-2.00,+31.00,+30.00,+36.00,+12.00,-10.00,-40.00,-8.00,+6.00,+26.00,+6.00,+22.00,+59.00
+2.00,+74.00,+34.00,+16.00,+0.00,+40.00,+46.00,+17.00,+20.00,+14.00,+0.00,-1.00,-10.00,-10.00,+5.00,-48.00
+15.00,-22.00,+4.00,+9.00,+6.00,+16.00,-21.00,-4.00,+31.00,-3.00,+3.00,+26.00,-26.00,+0.00,-7.00,+7.00
-73.00,+17.00,-21.00,-11.00,-10.00,+20.00,-1.00,-33.00,-10.00,+4.00,+4.00,-32.00,-19.00,+4.00,-52.00,-10.00
+37.00,-38.00,-4.00,-5.00,+19.00,-83.00,-58.00,-26.00,+9.00,+5.00,+0.00,+9.00,+18.00,-33.00,+13.00,-56.00
-26.00,-6.00,-11.00,-7.00,-10.00,+50.00,+33.00,+10.00,+53.00,+50.00,+6.00,+6.00,-6.00,-3.00,+31.00,+82.00
+75.00,+38.00,+18.00,+14.00,+3.00,-5.00,+40.00,+17.00,-40.00,-33.00,-17.00,-15.00,-15.00,+5.00,+7.00,-2.00
-27.00,-52.00,+0.00,-5.00,+16.00,-5.00,+10.00,-38.00,+3.00,-67.00,-3.00,+21.00,+25.00,-10.00,-2.00,+10.00
-10.00,+7.00,-1.00,-3.00,-21.00,+36.00,+81.00,+65.00,-13.00,+23.00,+3.00,-5.00,-13.00,+66.00,+80.00,+10.00
+17.00,+12.00,-2.00,+2.00,+24.00,-31.00,-17.00,-34.00,-93.00,+14.00,+0.00,-22.00,-4.00,-4.00,-9.00,-44.00
+40.00,-6.00,+8.00,+3.00,+7.00,+127.00,-14.00,+5.00,+8.00,+5.00,+11.00,-4.00,+5.00,-4.00,-11.00,+39.00
+0.00,+43.00,-4.00,-8.00,-25.00,-78.00,+101.00,-16.00,+68.00,+47.00,+5.00,+2.00,+5.00,+16.00,+38.00,+28.00
-12.00,+0.00,-4.00,+1.00,+16.00,+62.00,-45.00,-39.00,-77.00,-39.00,-15.00,-9.00,-19.00,-22.00,-72.00,-88.00
-23.00,-67.00,-13.00,+6.00,+5.00,-19.00,-28.00,+2.00,-28.00,-43.00,+0.00,+11.00,+1.00,-4.00,+45.00,+47.00
+54.00,+69.00,+13.00,+1.00,-7.00,+29.00,-6.00,+3.00,-6.00,-20.00,-3.00,-1.00,+16.00,+11.00,-9.00,-38.00
-38.00,-9.00,+0.00,+0.00,+8.00,+6.00,+7.00,+5.00,-3.00,+19.00,+4.00,-5.00,-23.00,-1.00,-6.00,-16.00
+4.00,-19.00,-2.00,-10.00,-29.00,-26.00,-13.00,+1.00,+0.00,-52.00,-17.00,-6.00,-2.00,-11.00,-23.00,+12.00
-6.00,+2.00,+3.00,-2.00,-37.00,-48.00,-31.00,+12.00,+23.00,+40.00,+6.00,+8.00,+27.00,+2.00,-19.00,-31.00
-47.00,-35.00,-7.00,+6.00,+48.00,+31.00,+10.00,-16.00,-25.00,+18.00,+1.00,+4.00,+10.00,-4.00,-5.00,+9.00
+7.00,+64.00,-2.00,-5.00,+0.00,+8.00,-85.00,-13.00,+22.00,+25.00,-3.00,-3.00,+2.00,-11.00,+19.00,+29.00
+38.00,-14.00,-1.00,+0.00,+6.00,-12.00,-4.00,-5.00,-16.00,-10.00,-2.00,-7.00,-23.00,-14.00,-27.00,+3.00
-7.00,-26.00,-15.00,-11.00,-61.00,-17.00,-18.00,-6.00,+44.00,-29.00,-2.00,+10.00,+66.00,+23.00,+18.00,+8.00
-37.00,+12.00,-12.00,-6.00,+33.00,-43.00,-63.00,-14.00,-15.00,-45.00,-5.00,+21.00,+35.00,-26.00,-38.00,-20.00
+26.00,-54.00,+18.00,+10.00,+16.00,+37.00,+9.00,+15.00,-22.00,+22.00,+1.00,-16.00,-44.00,-49.00,+87.00,+15.00
-51.00,+53.00,+8.00,-2.00,-28.00,-38.00,-37.00,-26.00,+41.00,+21.00,+4.00,-14.00,+8.00,+33.00,+24.00,+32.00
+54.00,+14.00,+3.00,+3.00,+14.00,-36.00,+6.00,-17.00,-15.00,-52.00,-10.00,+4.00,-9.00,+12.00,-5.00,-8.00
-31.00,-4.00,+5.00,+2.00,+9.00,+88.00,-1.00,+0.00,-23.00,+8.00,-1.00,-13.00,-12.00,-5.00,-8.00,-30.00
-18.00,-22.00,-10.00,+4.00,+2.00,-32.00,+5.00,+0.00,+13.00,+27.00,+2.00,+10.00,-43.00,+9.00,-38.00,-10.00
+40.00,-9.00,-10.00,-4.00,-17.00,+29.00,-35.00,-4.00,+20.00,-37.00,-3.00,-16.00,-21.00,-37.00,-40.00,+11.00
+33.00,-17.00,+4.00,-13.00,+10.00,+10.00,-20.00,-22.00,+36.00,+58.00,+7.00,-1.00,+9.00,-24.00,+56.00,+33.00
-14.00,+4.00,-10.00,-5.00,-9.00,+70.00,+25.00,+52.00,+25.00,-10.00,-10.00,-11.00,-18.00,+1.00,-11.00,-41.00
-22.00,-45.00,-10.00,-5.00,+18.00,+37.00,-3.00,-43.00,-69.00,-29.00,-5.00,-9.00,-14.00,+3.00,-8.00,+20.00
-18.00,+22.00,+0.00,+5.00,-23.00,-9.00,-12.00,-15.00,-76.00,-2.00,+3.00,+3.00,-12.00,-9.00,-1.00,-59.00
+34.00,-5.00,+19.00,+14.00,+78.00,+37.00,-8.00,+75.00,+76.00,+28.00,+4.00,+2.00,-7.00,+7.00,-16.00,+33.00
-27.00,-21.00,-20.00,-12.00,-25.00,+28.00,+5.00,-36.00,-8.00,-25.00,-4.00,-2.00,+5.00,+14.00,+15.00,-8.00
-3.00,+0.00,+9.00,+5.00,-16.00,-7.00,+20.00,+45.00,+6.00,+1.00,-2.00,+37.00,+81.00,-3.00,-57.00,+34.00
-12.00,+26.00,+3.00,-8.00,-26.00,-33.00,+15.00,-9.00,+63.00,+54.00,+3.00,-28.00,-70.00,-37.00,+13.00,-11.00
-44.00,+9.00,+6.00,+6.00,+27.00,-3.00,-1.00,+0.00,-36.00,-18.00,+1.00,-5.00,-6.00,-10.00,-21.00,-22.00
-30.00,-21.00,-10.00,-4.00,-17.00,-62.00,-8.00,-16.00,+27.00,+18.00,+0.00,-5.00,-40.00,-1.00,+7.00,+10.00
-6.00,-38.00,-4.00,+6.00,+0.00,-18.00,+21.00,+14.00,+34.00,-14.00,-1.00,+0.00,+25.00,+17.00,-7.00,-38.00
+16.00,+31.00,+9.00,+5.00,+11.00,+7.00,+2.00,-17.00,+1.00,+5.00,+3.00,+20.00,+48.00,-14.00,-32.00,+47.00
-23.00,+5.00,-5.00,-7.00,-16.00,+20.00,+16.00,+4.00,+25.00,-5.00,-5.00,-5.00,-19.00,+29.00,+55.00,+12.00
+36.00,-13.00,-12.00,-15.00,-15.00,-86.00,+16.00,+36.00,-24.00,+11.00,+1.00,-12.00,-14.00,-10.00,-5.00,-15.00
-27.00,-59.00,-16.00,-8.00,-14.00,+2.00,-34.00,-41.00,-20.00,-5.00,-4.00,-15.00,-34.00,-4.00,-62.00,-28.00
+0.00,-5.00,+0.00,-1.00,+19.00,+41.00,+8.00,-11.00,+34.00,+17.00,+1.00,+5.00,+20.00,-17.00,+6.00,+45.00
+17.00,+9.00,-3.00,+0.00,-44.00,-67.00,-6.00,-11.00,+44.00,+31.00,+5.00,-13.00,-81.00,-8.00,+10.00,+17.00
-69.00,-8.00,+24.00,+22.00,-3.00,+22.00,+8.00,+18.00,-58.00,-19.00,-9.00,-24.00,+39.00,+1.00,-3.00,-40.00
+59.00,+10.00,+5.00,+1.00,+45.00,+8.00,-18.00,+3.00,+58.00,+2.00,-5.00,-10.00,-4.00,+3.00,+41.00,+26.00
-2.00,+60.00,-3.00,+4.00,+37.00,+56.00,-52.00,-8.00,+33.00,+43.00,-1.00,+6.00,+13.00,+16.00,+8.00,+9.00
-26.00,-73.00,-18.00,-12.00,-22.00,+22.00,-40.00,-11.00,-71.00,-31.00,-8.00,+5.00,+15.00,-8.00,-37.00,-11.00
+93.00,+101.00,+12.00,+7.00,+44.00,-115.00,+94.00,-1.00,+21.00,-44.00,-6.00,+15.00,+4.00,+36.00,-2.00,+36.00
-14.00,-13.00,+3.00,-1.00,+10.00,+33.00,+17.00,+20.00,-20.00,+20.00,+12.00,+2.00,-17.00,+0.00,+4.00,+25.00
-32.00,-41.00,-8.00,-7.00,-11.00,-59.00,-11.00,+12.00,+19.00,-37.00,-18.00,-13.00,-10.00,+40.00,+23.00,-11.00
-22.00,+2.00,+6.00,+5.00,-5.00,+14.00,+42.00,+34.00,-57.00,-13.00,+2.00,+8.00,+16.00,-10.00,-17.00,-1.00
-2.00,-33.00,+2.00,+8.00,+11.00,-11.00,-44.00,+21.00,+39.00,+58.00,+9.00,+5.00,+5.00,-4.00,+1.00,+11.00
+6.00,+42.00,+11.00,+5.00,-23.00,+43.00,-3.00,-9.00,-69.00,-46.00,-9.00,-6.00,+12.00,+10.00,+7.00,-15.00
+24.00,-26.00,-20.00,-10.00,-6.00,+21.00,+16.00,+6.00,-8.00,-21.00,+2.00,+13.00,+24.00,+6.00,+7.00,+34.00
+3.00,+13.00,-8.00,-12.00,-7.00,-20.00,-59.00,-37.00,-23.00,-3.00,+2.00,+4.00,+1.00,-12.00,-28.00,+11.00
+2.00,-18.00,+0.00,-2.00,-5.00,-50.00,-34.00,+16.00,-1.00,+4.00,+2.00,-4.00,-9.00,+17.00,+17.00,-10.00
+24.00,+63.00,+2.00,+3.00,-17.00,+21.00,+42.00,-6.00,+45.00,+12.00,+7.00,+8.00,+12.00,+6.00,-31.00,+8.00
-50.00,-36.00,+10.00,+0.00,-26.00,-12.00,-9.00,-25.00,-19.00,-17.00,+5.00,+2.00,+27.00,-46.00,-58.00,-12.00
-16.00,+20.00,+1.00,+2.00,+2.00,-17.00,+16.00,+33.00,+41.00,-2.00,-3.00,-29.00,-41.00,+1.00,+61.00,+22.00
-7.00,-68.00,-4.00,-6.00,-33.00,+6.00,-115.00,-25.00,-16.00,+2.00,+0.00,+0.00,-34.00,+4.00,+15.00,-8.00
+48.00,+58.00,+2.00,-3.00,-36.00,+1.00,+61.00,+6.00,+16.00,+9.00,+4.00,-2.00,-9.00,-10.00,-5.00,-22.00
-11.00,-4.00,+2.00,+10.00,+80.00,-19.00,-3.00,-12.00,+14.00,+32.00,+1.00,+20.00,+48.00,+18.00,-25.00,+4.00
-8.00,+5.00,-3.00,-1.00,+6.00,+9.00,+25.00,+6.00,-22.00,+1.00,+0.00,-29.00,-60.00,-2.00,-10.00,-53.00
+63.00,+40.00,+7.00,+4.00,+8.00,-21.00,+27.00,-14.00,-22.00,-27.00,-9.00,+6.00,+66.00,-2.00,-11.00,+73.00
-3.00,-15.00,-13.00,-11.00,-30.00,-16.00,-32.00,+23.00,-14.00,-15.00,-11.00,-14.00,-3.00,-6.00,+32.00,-13.00
+71.00,-39.00,-1.00,+2.00,-5.00,+31.00,+37.00,+58.00,+5.00,+4.00,-8.00,-3.00,-5.00,-5.00,+27.00,+2.00
+9.00,-53.00,+4.00,+0.00,-51.00,-77.00,-58.00,-4.00,-25.00,-45.00,-5.00,+17.00,+21.00,+5.00,-18.00,+0.00
-4.00,+5.00,+4.00,+5.00,+16.00,+119.00,+73.00,+2.00,+27.00,+64.00,+22.00,+10.00,+1.00,-6.00,-3.00,-13.00
-1.00,+66.00,-3.00,-11.00,-51.00,-69.00,-64.00,-16.00,-29.00,-5.00,-1.00,-4.00,-13.00,-5.00,-13.00,-14.00
+27.00,+3.00,+12.00,+19.00,+52.00,-13.00,-6.00,+7.00,+26.00,+17.00,+4.00,+3.00,+2.00,+11.00,+12.00,-29.00
+30.00,-41.00,-6.00,-7.00,-4.00,+6.00,+3.00,+1.00,+19.00,-29.00,-8.00,+8.00,+21.00,+2.00,-18.00,+38.00
+29.00,+23.00,+4.00,-9.00,-42.00,-14.00,-25.00,+8.00,+5.00,-17.00,-7.00,-6.00,-13.00,-15.00,-10.00,-33.00
-48.00,-19.00,-4.00,+0.00,+23.00,+17.00,+0.00,-12.00,+45.00,+10.00,-1.00,+31.00,+43.00,+7.00,+5.00,+13.00
-21.00,+26.00,+2.00,-1.00,-21.00,+16.00,+4.00,+29.00,-22.00,-2.00,+2.00,-13.00,-30.00,+0.00,-38.00,-32.00
-42.00,-25.00,-6.00,-5.00,-3.00,+2.00,-9.00,-5.00,+15.00,+1.00,+0.00,+5.00,-2.00,-10.00,-6.00,+37.00
-7.00,-27.00,-12.00,-13.00,-2.00,-21.00,+44.00,-22.00,-8.00,+22.00,-4.00,-14.00,+5.00,-7.00,-43.00,+4.00
-59.00,+37.00,+4.00,+5.00,+34.00,-44.00,-13.00,-31.00,+66.00,+0.00,-2.00,-1.00,+34.00,+9.00,+11.00,-20.00
+29.00,-98.00,-7.00,-4.00,-29.00,+47.00,-2.00,+15.00,-57.00,-24.00,-5.00,-6.00,-22.00,+13.00,+8.00,-18.00
+33.00,+106.00,+17.00,+17.00,+34.00,-2.00,+11.00,+6.00,-21.00,+5.00,-6.00,-4.00,+16.00,-4.00,-4.00,-9.00
+53.00,+1.00,-5.00,-6.00,-39.00,-28.00,+5.00,+5.00,+10.00,+55.00,-1.00,+5.00,+6.00,+3.00,+42.00,+29.00
-40.00,-16.00,-1.00,-1.00,+25.00,+4.00,-17.00,-22.00,-9.00,-5.00,+0.00,+12.00,+3.00,-7.00,-25.00,-14.00
+13.00,+26.00,-1.00,-3.00,-13.00,-23.00,-14.00,-7.00,-33.00,-7.00,+0.00,-20.00,-71.00,-19.00,+7.00,+27.00
-22.00,+0.00,-2.00,-1.00,+5.00,+41.00,+22.00,+3.00,-4.00,+1.00,-1.00,-27.00,-30.00,-17.00,-30.00,-40.00
-29.00,-13.00,-3.00,+2.00,-3.00,+31.00,+68.00,+16.00,-36.00,-41.00,-6.00,+0.00,+26.00,+5.00,+14.00,-4.00
+27.00,+17.00,-1.00,-2.00,+9.00,+30.00,+3.00,-4.00,-2.00,+6.00,+0.00,-3.00,+1.00,+25.00,-8.00,-11.00
-34.00,-12.00,+1.00,-3.00,-9.00,-22.00,-74.00,-16.00,-4.00,-28.00,+3.00,+14.00,-7.00,+8.00,+38.00,+9.00
+28.00,+53.00,-1.00,-2.00,+8.00,+49.00,+22.00,+3.00,-53.00,-6.00,-8.00,-11.00,-38.00,-2.00,+9.00,-45.00
-81.00,-54.00,-6.00,+1.00,+28.00,-35.00,-45.00,-18.00,+33.00,+39.00,+21.00,+12.00,-18.00,+4.00,-22.00,+3.00
+43.00,-15.00,+0.00,+0.00,-16.00,+11.00,-60.00,+2.00,-41.00,-15.00,+1.00,-14.00,-23.00,+22.00,+19.00,-12.00
+28.00,+27.00,-7.00,-15.00,-20.00,-18.00,+64.00,+16.00,+26.00,+13.00,-5.00,+22.00,+46.00,-5.00,+10.00,+31.00
-13.00,-10.00,+1.00,+2.00,+11.00,+26.00,+28.00,-16.00,-66.00,-9.00,+6.00,+8.00,+36.00,+4.00,-12.00,-28.00
+30.00,-19.00,+2.00,-2.00,+18.00,+13.00,-40.00,+6.00,+7.00,-17.00,-1.00,+5.00,+18.00,-14.00,+10.00,-19.00
-37.00,-5.00,+10.00,+10.00,+15.00,-65.00,-9.00,-16.00,-20.00,-13.00,-14.00,-28.00,-70.00,-14.00,-21.00,-9.00
+2.00,+5.00,-1.00,-4.00,-26.00,-5.00,+2.00,-6.00,-2.00,+9.00,-7.00,+2.00,+22.00,-2.00,-2.00,-31.00
+4.00,-45.00,-14.00,+1.00,+38.00,-4.00,-25.00,-11.00,+47.00,+23.00,+7.00,+12.00,+18.00,-7.00,-11.00,+16.00
-33.00,+49.00,-8.00,-13.00,-4.00,+8.00,+21.00,+8.00,-20.00,+9.00,-7.00,-3.00,-38.00,+9.00,+41.00,-44.00
+3.00,-45.00,-5.00,-5.00,-6.00,-11.00,+1.00,+19.00,-47.00,+32.00,+14.00,+34.00,+46.00,-15.00,-2.00,+19.00
-37.00,+28.00,-2.00,+0.00,-11.00,-6.00,+91.00,+10.00,+8.00,-86.00,-19.00,-45.00,-28.00,+0.00,+2.00,-2.00
+57.00,+38.00,+17.00,+13.00,+4.00,-12.00,+7.00,-4.00,-54.00,+20.00,+10.00,+19.00,+19.00,+7.00,+12.00,-18.00
+4.00,-64.00,+4.00,+5.00,-10.00,+0.00,-19.00,-6.00,-5.00,+2.00,-1.00,+6.00,-9.00,-11.00,-4.00,-58.00
-11.00,-6.00,-12.00,-1.00,+35.00,-17.00,-38.00,+10.00,+39.00,+3.00,-3.00,+15.00,+19.00,+1.00,+4.00,+36.00
-15.00,+40.00,+12.00,+4.00,-20.00,-22.00,-31.00,-22.00,-3.00,+9.00,+6.00,-25.00,-81.00,-50.00,-23.00,-8.00
+12.00,+1.00,-5.00,-7.00,-17.00,-67.00,+10.00,-15.00,-18.00,-19.00,-12.00,-9.00,+54.00,+14.00,-53.00,-4.00
-1.00,+33.00,+5.00,+5.00,-6.00,+1.00,+28.00,+30.00,-10.00,+3.00,+9.00,+7.00,-8.00,-24.00,+57.00,-54.00
+7.00,+9.00,+8.00,+0.00,+19.00,+86.00,-16.00,+17.00,-30.00,-11.00,-10.00,-12.00,+50.00,+35.00,+41.00,+32.00
+10.00,-36.00,-11.00,-4.00,+17.00,-55.00,+22.00,-13.00,-11.00,-17.00,-1.00,+8.00,-38.00,-18.00,+34.00,-34.00
-7.00,-23.00,+0.00,-3.00,-32.00,-41.00,-7.00,-10.00,+57.00,-2.00,-3.00,+13.00,-12.00,+4.00,+26.00,+1.00
-4.00,+120.00,+5.00,-2.00,-48.00,-11.00,-46.00,-13.00,-16.00,-25.00,-8.00,-24.00,+40.00,+5.00,-32.00,+23.00
+36.00,-36.00,-6.00,-1.00,+16.00,-16.00,-56.00,+9.00,+0.00,+6.00,+2.00,+8.00,+15.00,-1.00,-1.00,-29.00
+35.00,-21.00,-3.00,+1.00,-24.00,+3.00,+7.00,+15.00,-55.00,-21.00,-1.00,+28.00,+48.00,-5.00,+70.00,+43.00
+15.00,+25.00,+2.00,-6.00,+14.00,+62.00,-2.00,+6.00,+115.00,+74.00,+5.00,-24.00,-30.00,+7.00,-16.00,+65.00
-83.00,-20.00,-5.00,+4.00,+25.00,-39.00,-3.00,-8.00,-37.00,-18.00,-6.00,+4.00,+10.00,+9.00,+3.00,+44.00
-1.00,-18.00,-5.00,-8.00,-26.00,-14.00,+1.00,-7.00,-1.00,-33.00,+6.00,-5.00,-30.00,-18.00,-13.00,+9.00
-8.00,+14.00,+5.00,-1.00,+14.00,+39.00,-5.00,-29.00,-39.00,-5.00,-6.00,+10.00,+38.00,+13.00,-55.00,+4.00
-32.00,-34.00,-3.00,-2.00,-21.00,-30.00,-24.00,+14.00,-15.00,-24.00,+2.00,+16.00,+23.00,+4.00,+44.00,-50.00
+58.00,-21.00,-20.00,-5.00,+1.00,+41.00,+43.00,-20.00,-4.00,-4.00,-8.00,+10.00,-80.00,+2.00,-16.00,+32.00
+10.00,+43.00,-2.00,-8.00,-24.00,-29.00,+50.00,+33.00,+10.00,+89.00,+12.00,-28.00,-19.00,-48.00,-9.00,+1.00
-30.00,-6.00,+7.00,+6.00,-44.00,-18.00,-34.00,-12.00,+47.00,+6.00,+3.00,-1.00,+7.00,+14.00,-40.00,+16.00
+1.00,+17.00,-3.00,-6.00,-2.00,+60.00,+10.00,+4.00,-30.00,-14.00,-3.00,+14.00,-21.00,+25.00,+42.00,-7.00
-7.00,-46.00,-6.00,-3.00,-9.00,-24.00,-12.00,-6.00,+7.00,-17.00,-6.00,-10.00,+6.00,-29.00,-44.00,-9.00
-26.00,-11.00,-11.00,-6.00,-52.00,-3.00,+18.00,-23.00,-8.00,-29.00,-10.00,-4.00,-24.00,-4.00,+21.00,+5.00
+15.00,-48.00,+2.00,+3.00,+47.00,+14.00,-1.00,+31.00,-57.00,+25.00,+5.00,+8.00,+44.00,+13.00,-13.00,-22.00
-49.00,+21.00,+9.00,+6.00,+25.00,+2.00,+12.00,+5.00,+40.00,+4.00,-7.00,-60.00,-72.00,-17.00,-12.00,+20.00
+9.00,-16.00,-1.00,+0.00,+75.00,-17.00,-83.00,-2.00,+14.00,-55.00,-11.00,+2.00,-32.00,-17.00,-4.00,+21.00
+3.00,-22.00,+11.00,+8.00,+53.00,+17.00,+99.00,-15.00,+2.00,+20.00,+11.00,+20.00,+29.00,+10.00,-75.00,-64.00
+32.00,+24.00,+9.00,+3.00,+30.00,+18.00,-10.00,+32.00,+48.00,+26.00,+3.00,+0.00,-12.00,-23.00,-32.00,+40.00
+28.00,-1.00,-12.00,-16.00,-84.00,+25.00,+4.00,+2.00,-1.00,-16.00,+0.00,+18.00,+40.00,-9.00,-12.00,-4.00
-72.00,+2.00,-2.00,-12.00,-14.00,-11.00,-16.00,-1.00,-57.00,+20.00,-9.00,-12.00,+2.00,+14.00,-48.00,+12.00
-38.00,-52.00,-8.00,-7.00,-72.00,+2.00,-60.00,-37.00,+114.00,+8.00,-3.00,+4.00,-26.00,-1.00,+67.00,+43.00
+52.00,+76.00,-4.00,+6.00,+72.00,+23.00,+71.00,+29.00,-68.00,+15.00,+23.00,-3.00,+14.00,+10.00,-35.00,-21.00
-43.00,+20.00,+28.00,+21.00,+55.00,+39.00,-53.00,-17.00,+41.00,-32.00,-7.00,+3.00,+11.00,-18.00,+10.00,-20.00
-10.00,-11.00,+0.00,+5.00,-24.00,+45.00,+12.00,+3.00,+29.00,+34.00,+3.00,+2.00,+18.00,+11.00,+2.00,-11.00
+31.00,+17.00,+0.00,-6.00,-71.00,-62.00,+93.00,-9.00,-5.00,-7.00,+7.00,+25.00,+17.00,-1.00,-6.00,+13.00
-17.00,+0.00,+2.00,+7.00,+5.00,+17.00,-11.00,+9.00,+8.00,+2.00,-9.00,-19.00,-19.00,+32.00,+31.00,-16.00
+2.00,+19.00,-4.00,-8.00,-63.00,-34.00,-25.00,+1.00,+33.00,+5.00,+7.00,+29.00,+21.00,-9.00,+12.00,+9.00
+7.00,-17.00,-16.00,-7.00,-30.00,+45.00,+29.00,+0.00,+25.00,-11.00,+9.00,-9.00,+13.00,+15.00,+9.00,-17.00
-11.00,-34.00,-1.00,+7.00,+18.00,+20.00,-45.00,-9.00,-18.00,+11.00,-10.00,-4.00,+1.00,+3.00,-13.00,-5.00
+4.00,+11.00,-8.00,-7.00,+47.00,-20.00,-47.00,-16.00,-22.00,-4.00,-1.00,-7.00,-52.00,+8.00,+83.00,+12.00
-26.00,-40.00,-13.00,-2.00,+77.00,-1.00,+45.00,+3.00,+12.00,-21.00,+2.00,+12.00,+43.00,+8.00,+4.00,+1.00
+46.00,+6.00,+25.00,+21.00,+54.00,+14.00,-6.00,+15.00,+40.00,+74.00,-15.00,-13.00,-17.00,-12.00,-5.00,+0.00
+5.00,+26.00,+4.00,-5.00,-11.00,+6.00,+14.00,+41.00,-45.00,-25.00,+8.00,-7.00,-22.00,+12.00,+11.00,-18.00
+31.00,-4.00,-18.00,-18.00,-49.00,-28.00,-18.00,-25.00,+50.00,+0.00,+1.00,-3.00,-2.00,-2.00,+9.00,+27.00
+41.00,-33.00,+5.00,+0.00,+14.00,-25.00,-18.00,+30.00,-108.00,-26.00,-6.00,+22.00,+59.00,+4.00,-11.00,+4.00
+6.00,-36.00,-21.00,-13.00,-4.00,-14.00,-16.00,-7.00,+67.00,+36.00,-2.00,+2.00,-33.00,-41.00,-17.00,-34.00
+29.00,+15.00,+2.00,+2.00,+61.00,+16.00,+45.00,+3.00,+8.00,-20.00,-9.00,-19.00,-2.00,+30.00,-32.00,-29.00
-103.00,+33.00,-2.00,+3.00,+95.00,+6.00,-15.00,-52.00,+30.00,+16.00,-4.00,-2.00,+16.00,+9.00,-19.00,-25.00
-4.00,-50.00,+4.00,+0.00,-36.00,+67.00,-36.00,+18.00,-17.00,-5.00,+5.00,+25.00,+26.00,-3.00,-21.00,+7.00
+2.00,+10.00,+20.00,+17.00,+79.00,-50.00,+8.00,-3.00,-88.00,-40.00,+8.00,-8.00,+14.00,-29.00,+16.00,+30.00
+15.00,-12.00,-22.00,-15.00,-4.00,+16.00,-7.00,+14.00,+89.00,+10.00,-1.00,-20.00,+34.00,+12.00,+32.00,+23.00
-26.00,-36.00,-22.00,-20.00,-44.00,+11.00,-26.00,-26.00,-25.00,-58.00,-15.00,+19.00,-4.00,-4.00,-18.00,-38.00
+5.00,+46.00,-8.00,-5.00,+38.00,-24.00,-61.00,-50.00,-19.00,+50.00,+2.00,-24.00,-40.00,+9.00,-2.00,-34.00
+34.00,-13.00,+15.00,+6.00,-54.00,-61.00,+48.00,-11.00,+16.00,-8.00,+4.00,+19.00,+22.00,+11.00,+4.00,+28.00
-33.00,+23.00,+4.00,+4.00,+107.00,+50.00,-54.00,+29.00,-70.00,-37.00,-20.00,+5.00,-16.00,-28.00,-31.00,+32.00
+11.00,-23.00,+8.00,+6.00,-3.00,+27.00,+0.00,+9.00,+15.00,+9.00,-2.00,-26.00,-20.00,+12.00,+37.00,+22.00
-19.00,+0.00,-15.00,+6.00,+106.00,+33.00,-10.00,-37.00,-11.00,-14.00,-3.00,-18.00,-31.00,-7.00,+16.00,+28.00
+29.00,+21.00,+4.00,-11.00,-111.00,-44.00,+101.00,+63.00,+29.00,-24.00,-4.00,-34.00,-46.00,+4.00,-50.00,-16.00
-17.00,-63.00,+9.00,+19.00,+77.00,+21.00,-4.00,-35.00,+15.00,+47.00,+3.00,+13.00,-2.00,-10.00,+18.00,-1.00
+8.00,+77.00,+16.00,+2.00,-95.00,-27.00,-32.00,-2.00,-90.00,-33.00,+1.00,+29.00,+47.00,+12.00,-4.00,-50.00
-20.00,-7.00,-5.00,-3.00,-43.00,-35.00,+3.00,+7.00,+1.00,+4.00,+0.00,-13.00,-50.00,-9.00,-29.00,-27.00
+2.00,+4.00,-12.00,-8.00,-52.00,+23.00,-46.00,-31.00,+3.00,+1.00,-4.00,-25.00,-25.00,+14.00,+12.00,+53.00
+33.00,-11.00,-9.00,+2.00,-29.00,-29.00,+10.00,+10.00,+0.00,-9.00,-12.00,+0.00,-22.00,-11.00,+2.00,+33.00
-24.00,-34.00,-6.00,-13.00,-71.00,-26.00,+33.00,+1.00,+70.00,+24.00,+5.00,-2.00,+9.00,-19.00,-25.00,-10.00
-4.00,-44.00,-6.00,-8.00,-32.00,-31.00,+22.00,-5.00,-4.00,-32.00,-14.00,-3.00,+8.00,+16.00,-64.00,+27.00
-19.00,+60.00,+8.00,+18.00,+92.00,+56.00,-13.00,+7.00,+14.00,-38.00,+15.00,+30.00,+44.00,+22.00,+22.00,+9.00
+27.00,+1.00,-5.00,-10.00,-13.00,+3.00,-28.00,-22.00,-23.00,+46.00,+20.00,+19.00,+11.00,+7.00,+14.00,-33.00
+77.00,+66.00,+8.00,+13.00,+27.00,+11.00,-68.00,+10.00,+49.00,+38.00,+4.00,+0.00,-1.00,-10.00,-2.00,+47.00
-32.00,-26.00,+12.00,+7.00,-39.00,-36.00,+19.00,-27.00,-4.00,-5.00,-5.00,+14.00,+58.00,-8.00,-7.00,-22.00
-8.00,+38.00,-10.00,-11.00,-102.00,-33.00,-34.00,-32.00,-33.00,-16.00,-9.00,-18.00,+20.00,+30.00,+30.00,+10.00
+17.00,-3.00,+6.00,-2.00,-111.00,+25.00,-3.00,+1.00,-27.00,-20.00,-4.00,-11.00,-15.00,-2.00,-19.00,-38.00
-32.00,-32.00,-29.00,-24.00,-105.00,+15.00,-29.00,-12.00,-35.00,+11.00,+5.00,+16.00,+10.00,-23.00,-12.00,+15.00
+13.00,-42.00,-11.00,-5.00,-92.00,-4.00,+2.00,+7.00,+45.00,+12.00,-2.00,-7.00,-12.00,+37.00,+24.00,+8.00
+39.00,-36.00,+16.00,+19.00,+70.00,+42.00,+10.00,+6.00,+4.00,+27.00,-2.00,+21.00,+58.00,+0.00,-4.00,-17.00
-92.00,+44.00,+1.00,+2.00,-17.00,+30.00,+2.00,-20.00,-32.00,-26.00,+3.00,-36.00,-79.00,-26.00,-13.00,-16.00
+1.00,-64.00,+15.00,+9.00,-55.00,-15.00,+26.00,+1.00,-6.00,-35.00,-19.00,+1.00,+16.00,+4.00,+37.00,+6.00
-36.00,-39.00,-5.00,+0.00,-50.00,-55.00,-35.00,+23.00,+59.00,+76.00,+18.00,-6.00,-20.00,-6.00,+53.00,+0.00
+56.00,+53.00,+5.00,-8.00,-111.00,-34.00,-10.00,+1.00,-48.00,+7.00,+4.00,+27.00,-3.00,-4.00,-12.00,-1.00
-28.00,+53.00,+0.00,-3.00,-11.00,-21.00,-6.00,-13.00,-5.00,-8.00,+1.00,-1.00,+11.00,-9.00,-20.00,-6.00
-43.00,-36.00,-12.00,-1.00,+47.00,-30.00,+16.00,-2.00,+62.00,+26.00,+7.00,-12.00,-2.00,-1.00,+0.00,+31.00
-19.00,+3.00,-1.00,-4.00,+0.00,+8.00,+3.00,-22.00,-76.00,-86.00,-28.00,-10.00,-57.00,-18.00,-12.00,-21.00
+8.00,-123.00,-10.00,-2.00,-13.00,-42.00,-29.00,-17.00,+69.00,+93.00,+23.00,+36.00,+32.00,+2.00,+16.00,+5.00
+67.00,+84.00,+6.00,+4.00,+74.00,+7.00,-44.00,+38.00,+33.00,-11.00,-10.00,-16.00,-19.00,+5.00,+26.00,+36.00
-47.00,-76.00,-5.00,-5.00,+14.00,-7.00,+98.00,+1.00,-18.00,-32.00,-13.00,-12.00,-13.00,+1.00,-19.00,-15.00
+14.00,+112.00,+17.00,+10.00,+17.00,-18.00,+12.00,+11.00,+22.00,+51.00,+10.00,+9.00,+23.00,+6.00,+14.00,-5.00
+17.00,+65.00,+1.00,-1.00,+45.00,+23.00,-8.00,+27.00,-34.00,-71.00,-9.00,-2.00,-19.00,-12.00,-56.00,-9.00
-40.00,-119.00,-16.00,-11.00,-29.00,+0.00,-2.00,-12.00,+32.00,+24.00,+6.00,+8.00,+8.00,+3.00,-1.00,+14.00
-39.00,+17.00,+4.00,+19.00,+119.00,+43.00,-34.00,-17.00,+53.00,+37.00,+7.00,+5.00,-5.00,-14.00,-9.00,-11.00
+22.00,-10.00,-2.00,-17.00,-108.00,-76.00,+11.00,+14.00,-71.00,-32.00,-10.00,-39.00,-13.00,+19.00,-11.00,-1.00
-59.00,-73.00,-17.00,-3.00,+28.00,+40.00,+24.00,-26.00,+13.00,-13.00,-14.00,-4.00,-62.00,-32.00,-15.00,+0.00
+23.00,+17.00,+0.00,-5.00,-46.00,-49.00,-37.00,+3.00,+25.00,+38.00,+15.00,+22.00,+38.00,+9.00,+57.00,+30.00
+0.00,+42.00,+16.00,-1.00,-39.00,-81.00,-39.00,+5.00,-36.00,+29.00,+4.00,-14.00,-25.00,+15.00,-85.00,-56.00
+62.00,+31.00,+0.00,+1.00,-77.00,+1.00,+97.00,-43.00,-15.00,-14.00,+2.00,+11.00,-54.00,-27.00,+15.00,-5.00
-59.00,+18.00,+12.00,+12.00,+51.00,-40.00,-4.00,+58.00,+19.00,-22.00,-9.00,-19.00,-23.00,+7.00,+5.00,+13.00
+61.00,+39.00,-3.00,-6.00,-33.00,-8.00,-5.00,-25.00,-61.00,-69.00,-22.00,-9.00,-9.00,+5.00,+11.00,-36.00
-22.00,-33.00,-5.00,-5.00,-97.00,-15.00,+12.00,-2.00,-21.00,+19.00,+3.00,+11.00,+21.00,-1.00,-23.00,-9.00
-18.00,-9.00,+3.00,+18.00,+39.00,+30.00,-33.00,+7.00,+13.00,+22.00,+13.00,+6.00,-7.00,-2.00,+26.00,+14.00
+20.00,-14.00,-7.00,-15.00,-41.00,-7.00,+13.00,-6.00,+10.00,-35.00,-17.00,-5.00,+11.00,-2.00,+14.00,-37.00
-45.00,-9.00,+3.00,+7.00,-37.00,+3.00,-71.00,-10.00,+1.00,+16.00,+12.00,-7.00,-19.00,+1.00,-20.00,+15.00
-7.00,+14.00,-3.00,-5.00,-27.00,+53.00,+50.00,-9.00,-33.00,-43.00,-1.00,+2.00,+14.00,-2.00,+17.00,-12.00
-11.00,+25.00,-3.00,+2.00,+98.00,-32.00,+26.00,-4.00,+41.00,+32.00,+7.00,+1.00,+29.00,-6.00,-6.00,+35.00
-14.00,-44.00,-5.00,-8.00,-83.00,-36.00,-10.00,-24.00,-13.00,-28.00,-7.00,-13.00,-9.00,-8.00,+30.00,+6.00
-68.00,-36.00,-10.00,-4.00,-7.00,-12.00,+19.00,+37.00,-49.00,-39.00,-6.00,+23.00,+35.00,-1.00,-16.00,-27.00
+28.00,+16.00,+2.00,+4.00,+58.00,+8.00,-53.00,-18.00,+11.00,-6.00,-5.00,-66.00,-86.00,-10.00,+4.00,+3.00
+7.00,-62.00,-3.00,-7.00,-54.00,+27.00,+42.00,+31.00,+52.00,+17.00,+2.00,+2.00,-21.00,-29.00,-18.00,-17.00
-42.00,+72.00,+2.00,+6.00,+83.00,+7.00,+33.00,-1.00,-56.00,+3.00,-3.00,+3.00,-9.00,+13.00,+11.00,-34.00
+25.00,-69.00,+5.00,+5.00,+40.00,-91.00,+17.00,-1.00,-11.00,-36.00,-12.00,-16.00,-6.00,-17.00,-10.00,-45.00
-30.00,-25.00,-5.00,-11.00,+2.00,-27.00,-16.00,-3.00,+10.00,+53.00,+18.00,+28.00,-2.00,+27.00,+9.00,+39.00
+9.00,+105.00,-4.00,-9.00,-12.00,+34.00,+5.00,+17.00,+25.00,-16.00,+0.00,-7.00,+12.00,+12.00,+15.00,+34.00
-2.00,-79.00,+9.00,+10.00,-42.00,-48.00,-64.00,-11.00,+23.00,+27.00,+3.00,-9.00,-37.00,+4.00,-13.00,-33.00
+1.00,+102.00,-11.00,-17.00,+37.00,+86.00,+14.00,+20.00,+36.00,-5.00,-17.00,-8.00,-2.00,+7.00,+27.00,-9.00
-16.00,-48.00,-4.00,-2.00,+19.00,+12.00,+38.00,+5.00,-76.00,-58.00,-6.00,+24.00,+32.00,-20.00,-16.00,-1.00
+43.00,-6.00,-2.00,+2.00,-2.00,-24.00,-65.00,-9.00,-28.00,+7.00,+3.00,-4.00,+37.00,+1.00,-3.00,-49.00
-20.00,+45.00,-10.00,-6.00,+31.00,-9.00,-15.00,-21.00,+41.00,+32.00,+8.00,+2.00,-3.00,+7.00,+9.00,+5.00
+0.00,-44.00,+6.00,+3.00,-24.00,+6.00,+8.00,-12.00,+2.00,+3.00,+4.00,+3.00,-20.00,-2.00,-20.00,+15.00
-13.00,-13.00,-4.00,+11.00,+61.00,-14.00,+4.00,+19.00,+48.00,+8.00,-4.00,-12.00,-6.00,-6.00,+10.00,+6.00
+4.00,+21.00,+5.00,-6.00,+9.00,+18.00,-80.00,+14.00,-47.00,-54.00,-16.00,+9.00,-3.00,-2.00,-10.00,+1.00
+2.00,+28.00,-3.00,-10.00,-78.00,+19.00,+94.00,+2.00,-27.00,-46.00,-5.00,-14.00,+28.00,-6.00,-13.00,-3.00
+31.00,+8.00,+4.00,+13.00,+67.00,+37.00,-17.00,+15.00,-37.00,+2.00,+6.00,+21.00,+23.00,+2.00,-14.00,-47.00
+69.00,-52.00,-3.00,+2.00,+42.00,-15.00,-29.00,-8.00,+11.00,+39.00,+3.00,-27.00,-54.00,-5.00,+20.00,+5.00
-33.00,-1.00,+12.00,+6.00,+24.00,-55.00,+11.00,+65.00,+18.00,+1.00,+3.00,+8.00,+6.00,+10.00,-51.00,-3.00
-41.00,+28.00,-1.00,+7.00,+77.00,+36.00,-8.00,-18.00,+22.00,+24.00,+0.00,-12.00,-12.00,-1.00,+87.00,+35.00
+22.00,-1.00,+13.00,+4.00,-17.00,+11.00,+11.00,+4.00,-53.00,-35.00,-11.00,-50.00,-39.00,-10.00,+7.00,+0.00
+19.00,-53.00,-8.00,-6.00,-70.00,+1.00,+4.00,-4.00,+27.00,-34.00,-8.00,+17.00,+16.00,-10.00,-10.00,-18.00
-23.00,+29.00,-12.00,-8.00,+61.00,-5.00,+15.00,-21.00,+18.00,+36.00,+0.00,-6.00,-19.00,-20.00,+30.00,+20.00
+30.00,-46.00,-2.00,-4.00,-18.00,+9.00,-34.00,+1.00,+10.00,-2.00,+1.00,+5.00,+15.00,+5.00,-13.00,+10.00
-7.00,+74.00,+0.00,-4.00,+54.00,+12.00,+19.00,-12.00,+1.00,+40.00,+12.00,+19.00,+5.00,+11.00,+16.00,-2.00
-27.00,-19.00,+5.00,+6.00,-40.00,-15.00,-67.00,-5.00,+10.00,-25.00,-12.00,-1.00,+16.00,-5.00,+18.00,-7.00
+12.00,+8.00,+4.00,+3.00,+42.00,+80.00,+45.00,-15.00,+36.00,+18.00,+4.00,-6.00,-6.00,-2.00,-10.00,+14.00
-18.00,-95.00,-4.00,-5.00,-24.00,-54.00,-34.00,-7.00,-45.00,-1.00,+4.00,+14.00,+18.00,+0.00,+3.00,+7.00
-8.00,+9.00,+4.00,+5.00,+40.00,+26.00,+12.00,-15.00,-4.00,-10.00,+1.00,+2.00,+9.00,-5.00,-17.00,+2.00
-15.00,+37.00,-10.00,-13.00,-58.00,-11.00,-61.00,-4.00,-11.00,-38.00,+0.00,+3.00,+15.00,+12.00,+3.00,+0.00
+15.00,+22.00,-5.00,-11.00,-26.00,-28.00,+38.00,+24.00,+3.00,-2.00,-4.00,+20.00,+30.00,-4.00,+5.00,+11.00
-58.00,-83.00,-7.00,+2.00,+8.00,+18.00,+4.00,-9.00,-92.00,+11.00,+5.00,-12.00,-15.00,-9.00,-17.00,-33.00
+48.00,+75.00,+8.00,+0.00,-38.00,-73.00,-38.00,-14.00,+46.00,+5.00,-10.00,-19.00,-90.00,-6.00,-34.00,+34.00
+31.00,+4.00,-5.00,-8.00,+3.00,-26.00,+23.00,+70.00,+50.00,+22.00,-10.00,-23.00,+94.00,+0.00,+28.00,+5.00
-38.00,-5.00,-5.00,+2.00,+11.00,-1.00,-40.00,-11.00,-100.00,-38.00,-4.00,+13.00,+8.00,+9.00,-42.00,-44.00
-28.00,+19.00,+0.00,-2.00,-35.00,+4.00,-25.00,-17.00,+72.00,+17.00,+1.00,-6.00,-2.00,-4.00,-20.00,+15.00
+16.00,-119.00,-11.00,-1.00,-25.00,-75.00,+14.00,+4.00,-13.00,+4.00,-1.00,-1.00,+13.00,-7.00,-7.00,+1.00
+44.00,+127.00,+16.00,+10.00,+34.00,+20.00,+62.00,+6.00,-19.00,+11.00,+4.00,+21.00,+0.00,+1.00,-21.00,+2.00
+5.00,-87.00,-1.00,+5.00,+31.00,+7.00,-11.00,-24.00,-22.00,-82.00,-17.00,-21.00,-24.00,-11.00,+8.00,+4.00
+67.00,+122.00,-3.00,-6.00,+30.00,+24.00,-8.00,+24.00,+20.00,-42.00,-3.00,-7.00,+31.00,+7.00,-9.00,+2.00
-41.00,-10.00,+1.00,+2.00,-18.00,-7.00,+17.00,-22.00,-1.00,+15.00,+13.00,+2.00,+3.00,-2.00,-7.00,-34.00
+12.00,-34.00,-1.00,+0.00,+33.00,+25.00,+11.00,-9.00,-15.00,+24.00,+10.00,+11.00,-12.00,-34.00,-30.00,+18.00
+18.00,+60.00,+1.00,-4.00,+112.00,-38.00,-10.00,+0.00,+6.00,+21.00,+5.00,-4.00,+18.00,+18.00,+17.00,+51.00
-30.00,-69.00,-8.00,-2.00,+127.00,+19.00,-1.00,-13.00,+64.00,-13.00,-11.00,-25.00,+14.00,-5.00,+51.00,-7.00
-53.00,-25.00,-12.00,-12.00,+108.00,-18.00,-11.00,-3.00,-1.00,-25.00,-5.00,+3.00,+15.00,+2.00,+11.00,+20.00
+6.00,+18.00,+8.00,+10.00,+127.00,+35.00,+49.00,+17.00,-2.00,-40.00,-9.00,+17.00,+10.00,+1.00,-9.00,-4.00
+17.00,-32.00,-3.00,-7.00,+50.00,-44.00,-45.00,+12.00,-42.00,+28.00,+14.00,+9.00,+26.00,-1.00,+11.00,-38.00
-3.00,+23.00,-4.00,-1.00,+121.00,+34.00,-39.00,-32.00,+18.00,+15.00,+3.00,+0.00,-21.00,+0.00,+16.00,+11.00
-61.00,+78.00,+21.00,+5.00,-19.00,-3.00,+46.00,+29.00,+3.00,+15.00,-4.00,-34.00,-19.00,-33.00,+9.00,+24.00
+5.00,-49.00,-20.00,+0.00,-66.00,+53.00,-85.00,-19.00,-36.00,+17.00,+1.00,-12.00,+13.00,+13.00,-2.00,-28.00
+46.00,+86.00,+14.00,+4.00,-119.00,-8.00,-11.00,+16.00,+70.00,-21.00,-9.00,+2.00,-15.00,+0.00,+6.00,+2.00
-10.00,-10.00,-4.00,-9.00,-128.00,-21.00,-54.00,+5.00,-79.00,+30.00,+4.00,+11.00,+0.00,+0.00,-34.00,-28.00
-22.00,-19.00,-12.00,-2.00,-126.00,+21.00,-8.00,-29.00,+9.00,-9.00,-2.00,+19.00,+49.00,-4.00,+11.00,+4.00
+29.00,+22.00,+9.00,-3.00,-111.00,-24.00,-7.00,-4.00,+0.00,+0.00,-3.00,-5.00,-42.00,+18.00,-2.00,+36.00
-23.00,-128.00,-11.00,+1.00,-114.00,+38.00,+38.00,-15.00,-1.00,+51.00,+1.00,-8.00,+5.00,-3.00,+6.00,-16.00
+20.00,+45.00,+11.00,+4.00,-104.00,-62.00,+12.00,+18.00,-14.00,-24.00,+0.00,-1.00,-6.00,-14.00,-38.00,-31.00
+44.00,-9.00,-8.00,-2.00,-77.00,+5.00,-10.00,+6.00,+27.00,+3.00,-7.00,+5.00,+31.00,+18.00,+8.00,+17.00
+1.00,+46.00,+1.00,-5.00,-70.00,+8.00,+17.00,-4.00,-27.00,+9.00,+0.00,-2.00,-66.00,-2.00,+9.00,+4.00
-64.00,-107.00,-10.00,-7.00,-52.00,-6.00,-42.00,-17.00,-43.00,+13.00,+3.00,-16.00,+24.00,-17.00,-8.00,-22.00
-7.00,+39.00,+19.00,+2.00,-48.00,-24.00,+41.00,-3.00,+17.00,-20.00,-8.00,+0.00,+2.00,+8.00,+36.00,-23.00
-24.00,+31.00,+1.00,+4.00,-42.00,+30.00,-19.00,+13.00,-5.00,-24.00,-10.00,+5.00,+31.00,+37.00,+1.00,+9.00
+30.00,-35.00,+4.00,-2.00,-24.00,-19.00,+70.00,+7.00,-16.00,-12.00,-1.00,-6.00,-6.00,+3.00,+17.00,-19.00
-8.00,+25.00,-1.00,+5.00,-16.00,+8.00,+24.00,+41.00,+25.00,+11.00,+2.00,+6.00,-16.00,-14.00,+7.00,+29.00
-1.00,-8.00,-7.00,+2.00,-23.00,+35.00,+3.00,+3.00,+16.00,-22.00,-6.00,+9.00,+21.00,-5.00,-23.00,+22.00
+45.00,-3.00,+0.00,-1.00,-21.00,-70.00,-26.00,-14.00,-55.00,+13.00,+9.00,+3.00,-8.00,+1.00,-12.00,-10.00
-40.00,+25.00,-4.00,-4.00,-4.00,+93.00,+45.00,-23.00,+6.00,+7.00,-1.00,+16.00,+39.00,-1.00,+11.00,-3.00
-16.00,-56.00,-3.00,+1.00,+0.00,+7.00,+2.00,-29.00,-7.00,-5.00,-6.00,-9.00,-29.00,+9.00,-2.00,+12.00
-27.00,-46.00,-4.00,+2.00,-14.00,-21.00,+12.00,-10.00,-48.00,-16.00,-13.00,-3.00,+37.00,+2.00,-35.00,-43.00
-30.00,-15.00,-4.00,-5.00,-6.00,+10.00,-17.00,-14.00,+38.00,+15.00,+9.00,+5.00,-2.00,+5.00,+2.00,+13.00
-45.00,+53.00,+1.00,+0.00,+3.00,-115.00,-59.00,+6.00,+52.00,+30.00,+4.00,+12.00,+38.00,+5.00,+13.00,+27.00
+82.00,+14.00,+3.00,+6.00,-2.00,+59.00,+29.00,+20.00,+12.00,-25.00,-8.00,-1.00,-10.00,+2.00,-10.00,-1.00
+2.00,+6.00,-12.00,-11.00,-6.00,+5.00,+9.00,+5.00,+30.00,+17.00,-2.00,+5.00,-6.00,+18.00,-1.00,+49.00
-18.00,-60.00,+1.00,+0.00,-2.00,-11.00,-1.00,-13.00,-18.00,-24.00,+0.00,-11.00,-20.00,-6.00,-7.00,-37.00
-1.00,+96.00,-3.00,-2.00,+0.00,-21.00,-47.00,-1.00,+12.00,+44.00,+6.00,-11.00,-12.00,+2.00,+4.00,+11.00
-26.00,+40.00,+2.00,+4.00,-3.00,-53.00,+33.00,-1.00,+8.00,-21.00,-6.00,-5.00,-6.00,+3.00,+7.00,+13.00
-13.00,-43.00,-6.00,-5.00,-3.00,-1.00,-14.00,+21.00,+29.00,+26.00,+3.00,-5.00,-21.00,-13.00,-58.00,-8.00
-28.00,+6.00,+0.00,-2.00,+0.00,-4.00,-8.00,+20.00,+5.00,+20.00,-3.00,+18.00,+45.00,-6.00,-6.00,+3.00
-54.00,-53.00,+1.00,+3.00,-1.00,-22.00,+11.00,-3.00,+4.00,-43.00,+1.00,+29.00,-9.00,+5.00,-9.00,+19.00
-8.00,+36.00,-9.00,-3.00,+0.00,+2.00,-37.00,-18.00,-11.00,-11.00,-11.00,-29.00,+11.00,-1.00,-18.00,-33.00
+10.00,-61.00,-1.00,-4.00,-1.00,+21.00,+11.00,-15.00,+1.00,+41.00,+18.00,+18.00,-18.00,+5.00,-13.00,+46.00
+14.00,+1.00,-7.00,-7.00,-2.00,-19.00,-11.00,-1.00,+40.00,+22.00,-5.00,-4.00,+14.00,-18.00,-9.00,-3.00
-38.00,+12.00,+8.00,-1.00,+0.00,-62.00,+43.00,-11.00,-21.00,-30.00,-11.00,-15.00,+1.00,+7.00,+0.00,-15.00
+42.00,+2.00,-2.00,+5.00,+0.00,+24.00,-22.00,+31.00,+11.00,+14.00,+1.00,+12.00,-7.00,+8.00,-4.00,+13.00
+3.00,+31.00,+7.00,+2.00,-3.00,-26.00,-19.00,+8.00,-43.00,+19.00,+1.00,-10.00,-28.00,-18.00,+8.00,-34.00
-15.00,+2.00,+11.00,+10.00,-2.00,+49.00,+58.00,+18.00,+22.00,-12.00,+0.00,-1.00,-26.00,-10.00,-33.00,+7.00
+34.00,+37.00,+4.00,+6.00,+0.00,+2.00,-10.00,+0.00,+26.00,+12.00,+2.00,-4.00,-9.00,-2.00,+0.00,+15.00
+8.00,-66.00,-18.00,-9.00,+0.00,+69.00,-5.00,-9.00,+6.00,-25.00,-1.00,+4.00,+18.00,-4.00,+3.00,-5.00
-8.00,+81.00,+9.00,+7.00,-3.00,+14.00,+0.00,+4.00,-23.00,-36.00,-6.00,+0.00,-15.00,-6.00,+7.00,+5.00
+13.00,-58.00,-1.00,+4.00,-1.00,+8.00,+1.00,-5.00,+12.00,+23.00,+1.00,+0.00,-13.00,+4.00,+15.00,-1.00
+49.00,-4.00,+7.00,+1.00,+1.00,+26.00,-30.00,+41.00,+0.00,-7.00,-3.00,-13.00,+3.00,-8.00,-3.00,-22.00
+11.00,+37.00,-1.00,-13.00,-1.00,-54.00,-23.00,-30.00,+17.00,+50.00,+6.00,+5.00,-10.00,-4.00,-7.00,-10.00
+46.00,-11.00,-14.00,-6.00,-2.00,-3.00,+9.00,+2.00,-18.00,-22.00,-4.00,+4.00,+5.00,+4.00,+16.00,+3.00
-52.00,+5.00,+6.00,+2.00,-1.00,+19.00,+32.00,-26.00,+2.00,-9.00,-2.00,-5.00,+2.00,-5.00,-13.00,-6.00
-19.00,+9.00,-9.00,-6.00,+0.00,-28.00,-30.00,-19.00,-5.00,-16.00,-14.00,-10.00,-12.00,-2.00,-2.00,-33.00
-36.00,-6.00,+1.00,+9.00,-16.00,+99.00,-24.00,-18.00,+14.00,-5.00,-5.00,+6.00,+0.00,-2.00,+0.00,+30.00
+24.00,-19.00,-1.00,-7.00,-65.00,-26.00,-25.00,-10.00,+13.00,+6.00,+0.00,-12.00,-14.00,-4.00,+2.00,-13.00
+18.00,+37.00,+5.00,+8.00,-117.00,-17.00,-4.00,+14.00,-1.00,+21.00,+7.00,+11.00,+1.00,-2.00,+1.00,+6.00
-34.00,-65.00,-2.00,+0.00,-70.00,+0.00,+23.00,-8.00,-29.00,-47.00,-15.00,-15.00,-4.00,-3.00,-9.00,-14.00
+27.00,+76.00,+1.00,-6.00,+0.00,-41.00,+5.00,-25.00,+29.00,+32.00,+1.00,+8.00,+8.00,+3.00,+8.00,-20.00
+53.00,+25.00,+3.00,+5.00,+45.00,+25.00,+44.00,+32.00,+3.00,-14.00,+0.00,-26.00,-49.00,-11.00,-9.00,+9.00
+32.00,-52.00,-10.00,-5.00,+22.00,+9.00,-6.00,+22.00,-16.00,-22.00,-7.00,-2.00,+6.00,-1.00,+42.00,-1.00
-30.00,+34.00,+11.00,-2.00,-51.00,-1.00,-10.00,+7.00,-15.00,+6.00,+0.00,+7.00,-14.00,-1.00,+1.00,-10.00
-25.00,+13.00,+0.00,-2.00,-43.00,-23.00,+4.00,-32.00,-37.00,-24.00,+3.00,+4.00,+10.00,-1.00,-41.00,+16.00
-66.00,-24.00,-4.00,+4.00,-16.00,+2.00,-13.00,+13.00,+14.00,-10.00,+0.00,+10.00,+19.00,+1.00,-6.00,-8.00
+14.00,-14.00,-3.00,+0.00,+59.00,+19.00,-2.00,-10.00,-2.00,+19.00,+4.00,-1.00,+15.00,+6.00,+1.00,+0.00
+3.00,-33.00,-17.00,-9.00,-52.00,+5.00,+2.00,-4.00,-7.00,+1.00,+0.00,+4.00,-8.00,-3.00,+0.00,-2.00
+10.00,-19.00,+10.00,+3.00,+13.00,-92.00,-86.00,+17.00,-9.00,-20.00,-1.00,+4.00,+1.00,+1.00,+15.00,+2.00
+11.00,+50.00,+2.00,+0.00,-79.00,+71.00,-9.00,-23.00,+12.00,+21.00,+1.00,-8.00,-2.00,-25.00,-9.00,-12.00
+10.00,-3.00,+0.00,+6.00,+3.00,-103.00,-13.00,-5.00,-31.00,-38.00,-8.00,+4.00,+2.00,+21.00,-6.00,+11.00
-10.00,-6.00,-5.00,-13.00,-28.00,+23.00,-4.00,-6.00,+15.00,+5.00,-1.00,+3.00,+11.00,-1.00,-48.00,-7.00
+60.00,-26.00,+9.00,+7.00,+49.00,+1.00,+85.00,+14.00,-14.00,+19.00,+4.00,-10.00,-13.00,-5.00,+10.00,+22.00
-33.00,+18.00,-1.00,-3.00,+18.00,-32.00,-18.00,-13.00,-20.00,-32.00,-5.00,+12.00,+13.00,+4.00,+2.00,-28.00
+37.00,-4.00,-3.00,-5.00,-12.00,-10.00,-2.00,+22.00,-17.00,+7.00,+4.00,-8.00,-17.00,-7.00,-7.00,-44.00
+32.00,+2.00,-9.00,-2.00,-5.00,+4.00,+6.00,-8.00,-21.00,+11.00,+7.00,-2.00,+2.00,+0.00,+3.00,+40.00
-31.00,+10.00,+1.00,-3.00,-53.00,-5.00,-2.00,-3.00,+8.00,-1.00,+0.00,-2.00,-15.00,+0.00,-1.00,-12.00
+36.00,+3.00,+2.00,-4.00,-26.00,-6.00,+6.00,+11.00,+2.00,-20.00,-11.00,-4.00,-2.00,+6.00,+9.00,+8.00
+14.00,+20.00,-4.00,-3.00,-18.00,+24.00,+20.00,-6.00,+9.00,+14.00,+3.00,-5.00,-9.00,-7.00,-12.00,-2.00
-35.00,-3.00,+8.00,+5.00,+2.00,+8.00,-2.00,+34.00,+8.00,+12.00,+2.00,-4.00,-5.00,+3.00,+11.00,-15.00
-11.00,-3.00,+0.00,+3.00,-26.00,+17.00,+26.00,+11.00,-16.00,-7.00,+0.00,-1.00,-8.00,-2.00,-4.00,-4.00
-30.00,+10.00,+7.00,+1.00,-1.00,+0.00,+1.00,-22.00,-22.00,-8.00,-1.00,+7.00,+21.00,+8.00,+16.00,+3.00
+11.00,-23.00,-21.00,-16.00,+12.00,-7.00,-21.00,-4.00,+13.00,-4.00,-5.00,-10.00,-10.00,-1.00,-6.00,+15.00
+10.00,-22.00,+8.00,+7.00,+66.00,-2.00,-14.00,-4.00,+8.00,-2.00,+1.00,+14.00,+35.00,+3.00,+13.00,+1.00
-33.00,-31.00,-11.00,+4.00,+36.00,+0.00,+5.00,+2.00,-3.00,+27.00,+3.00,-19.00,-20.00,-7.00,-7.00,-14.00
+33.00,-22.00,+0.00,-3.00,+18.00,-27.00,+7.00,+2.00,+10.00,-7.00,-4.00,+0.00,-16.00,+4.00,+1.00,-2.00
-14.00,+77.00,-3.00,-8.00,+30.00,+12.00,-1.00,-6.00,-10.00,-6.00,+0.00,-17.00,-27.00,-22.00,+13.00,+13.00
+21.00,+34.00,+15.00,+8.00,+45.00,+12.00,-25.00,+15.00,+8.00,+8.00,+0.00,-6.00,+1.00,+12.00,-6.00,+10.00
-6.00,-46.00,-8.00,-9.00,-53.00,-15.00,+2.00,-5.00,-17.00,-52.00,-17.00,+2.00,+5.00,-3.00,-4.00,-7.00
+5.00,+23.00,-2.00,+5.00,+53.00,+15.00,-24.00,-13.00,+2.00,+71.00,+20.00,+6.00,+13.00,+4.00,+6.00,+14.00
-18.00,-14.00,-1.00,-2.00,-16.00,+71.00,+48.00,-5.00,-7.00,-11.00,-3.00,+0.00,-11.00,+4.00,-3.00,+3.00
-7.00,-29.00,-5.00,+5.00,+108.00,-2.00,-62.00,-36.00,-6.00,-13.00,-2.00,-3.00,-6.00,-2.00,+16.00,+0.00
-11.00,+41.00,+7.00,+2.00,+93.00,+15.00,-7.00,+29.00,-7.00,-15.00,+1.00,+3.00,+2.00,-2.00,-6.00,+18.00
+37.00,+39.00,-6.00,-14.00,+18.00,-46.00,-19.00,+9.00,+6.00,+2.00,-1.00,-4.00,-3.00,+1.00,-1.00,+3.00
+7.00,-60.00,+9.00,+19.00,+114.00,+7.00,-8.00,-6.00,-43.00,-17.00,-5.00,+3.00,-1.00,+4.00,+1.00,+6.00
-3.00,-29.00,-7.00,-5.00,+1.00,-1.00,+8.00,-23.00,+12.00,+0.00,-6.00,-9.00,-8.00,-3.00,-4.00,-1.00
+1.00,+6.00,-1.00,-3.00,-57.00,+11.00,-24.00,-10.00,+39.00,+22.00,+2.00,+5.00,+0.00,+5.00,+0.00,+16.00
+12.00,-15.00,-3.00,+2.00,-51.00,-4.00,+38.00,+0.00,-33.00,-23.00,+0.00,-3.00,+0.00,+1.00,-6.00,-15.00
-33.00,+4.00,-1.00,-2.00,-58.00,-24.00,-34.00,-22.00,+23.00,+19.00,+3.00,+4.00,+5.00,+1.00,+0.00,+9.00
+21.00,+15.00,-1.00,-8.00,+1.00,-2.00,+21.00,-3.00,-34.00,-27.00,-5.00,+0.00,-4.00,-2.00,-3.00,-21.00
+27.00,+16.00,+7.00,+5.00,+100.00,-5.00,-6.00,+2.00,-2.00,+12.00,-1.00,-1.00,+8.00,-4.00,+7.00,-7.00
-57.00,-37.00,-7.00,+3.00,+127.00,+9.00,+6.00,-2.00,+29.00,+19.00,+2.00,+3.00,-2.00,+3.00,+3.00,+20.00
-3.00,+56.00,+3.00,-10.00,+21.00,-16.00,-12.00,+18.00,+13.00,-10.00,-6.00,-4.00,+7.00,+1.00,-10.00,-24.00
-8.00,-77.00,-8.00,+6.00,-10.00,+5.00,+16.00,+19.00,-5.00,+6.00,+0.00,+1.00,-4.00,-4.00,+2.00,+4.00
-16.00,+2.00,+4.00,-4.00,-37.00,-4.00,+17.00,-18.00,+6.00,-6.00,+2.00,+2.00,-16.00,+0.00,+1.00,-11.00
-11.00,+12.00,-5.00,-2.00,+12.00,+4.00,-22.00,-16.00,-17.00,+14.00,+2.00,-2.00,+7.00,+1.00,-1.00,+0.00
+12.00,-26.00,-4.00,-5.00,+90.00,+19.00,+2.00,+10.00,-2.00,-2.00,-4.00,+2.00,+1.00,+2.00,+3.00,+0.00
-1.00,-1.00,-1.00,-5.00,+123.00,-24.00,+0.00,-5.00,+18.00,+4.00,+3.00,+6.00,-1.00,+2.00,-1.00,-2.00
-5.00,-6.00,-1.00,-2.00,+125.00,-44.00,-1.00,+1.00,-45.00,+0.00,-1.00,-3.00,-1.00,-9.00,-4.00,-17.00
+3.00,-12.00,+7.00,+6.00,+50.00,+7.00,+7.00,+4.00,+27.00,-9.00,-4.00,+1.00,-12.00,+1.00,+3.00,+8.00
+4.00,-21.00,+0.00,+2.00,+54.00,-10.00,-36.00,-10.00,-2.00,-4.00,-3.00,-5.00,-5.00,-2.00,+2.00,-5.00
+30.00,+74.00,-8.00,-2.00,+35.00,+17.00,+14.00,+7.00,+1.00,+7.00,+3.00,-3.00,+0.00,-3.00,-10.00,-9.00
-21.00,-46.00,-7.00,+1.00,+39.00,+9.00,+4.00,-9.00,+5.00,-6.00,-2.00,-1.00,+3.00,+1.00,-3.00,-7.00
+9.00,+7.00,-2.00,-5.00,-5.00,-11.00,-25.00,-19.00,-3.00,-7.00,-6.00,-6.00,+3.00,+20.00,+14.00,+4.00
-6.00,+17.00,+4.00,+2.00,-46.00,+11.00,+53.00,-5.00,-8.00,-17.00,-2.00,-1.00,+3.00,-3.00,-5.00,+3.00
-8.00,-26.00,+0.00,-2.00,-73.00,-26.00,+5.00,+14.00,+8.00,+19.00,+5.00,-1.00,-6.00,-4.00,+3.00,+1.00
+17.00,+2.00,+5.00,+2.00,-85.00,+13.00,+1.00,+0.00,-28.00,-4.00,-3.00,-2.00,-1.00,+1.00,-2.00,-20.00
+7.00,+9.00,+0.00,-2.00,-97.00,+1.00,-12.00,+16.00,+18.00,-1.00,-1.00,+2.00,+5.00,-2.00,-7.00,-5.00
-7.00,-10.00,-3.00,+0.00,-127.00,+1.00,+14.00,-16.00,-10.00,-12.00,+0.00,+6.00,-2.00,+0.00,+0.00,+7.00
-3.00,+3.00,-7.00,-5.00,-128.00,-1.00,-16.00,-18.00,+9.00,-2.00,-5.00,-6.00,-3.00,-3.00,-7.00,-13.00
-28.00,+46.00,-11.00,-9.00,-128.00,+7.00,+10.00,+1.00,-9.00,-13.00,-3.00,-1.00,-1.00,-3.00,+12.00,+13.00
+4.00,-50.00,+4.00,+2.00,-107.00,+16.00,+7.00,+0.00,-14.00,+2.00,+2.00,+1.00,-3.00,-6.00,-9.00,+9.00
+2.00,+34.00,+12.00,+8.00,-85.00,-20.00,-16.00,+3.00,+26.00,-3.00,-7.00,-4.00,+1.00,+1.00,+2.00,+5.00
-14.00,+5.00,-2.00,+0.00,-65.00,-2.00,+2.00,-18.00,-9.00,-18.00,+1.00,+10.00,+4.00,-5.00,+4.00,+1.00
-35.00,-26.00,-9.00,-10.00,+11.00,+22.00,+2.00,+21.00,+12.00,+16.00,+0.00,-17.00,-12.00,-1.00,-9.00,-15.00
-1.00,+47.00,-4.00,-2.00,+100.00,-38.00,-3.00,+8.00,-17.00,-5.00,-6.00,+2.00,-2.00,-5.00,-2.00,-5.00
+6.00,-11.00,-7.00,-2.00,+121.00,-14.00,-14.00,-14.00,-8.00,-8.00,-3.00,-3.00,-1.00,-3.00,-3.00,-7.00
+13.00,+8.00,+8.00,+0.00,+81.00,+1.00,+4.00,-5.00,+9.00,+0.00,-2.00,-8.00,-4.00,+0.00,+0.00,+3.00
+4.00,+4.00,+7.00,+7.00,+91.00,+23.00,-5.00,-10.00,+7.00,+25.00,+6.00,+5.00,+0.00,+4.00,+1.00,+0.00
+2.00,-29.00,-2.00,+0.00,-34.00,-2.00,+13.00,+11.00,-9.00,-21.00,-8.00,+0.00,+4.00,-3.00,+2.00,-2.00
-10.00,-34.00,-12.00,-5.00,-85.00,-2.00,-7.00,-6.00,+7.00,+2.00,-2.00,-2.00,-4.00,-4.00,-8.00,-3.00
+15.00,-6.00,+2.00,-1.00,-96.00,-1.00,-9.00,+13.00,+25.00,+27.00,+4.00,+4.00,-3.00,+3.00,+5.00,-6.00
+15.00,-2.00,+4.00,+2.00,-124.00,-13.00,+10.00,+2.00,-25.00,-17.00,-5.00,+3.00,+11.00,-2.00,-2.00,+1.00
+0.00,+11.00,+0.00,+0.00,-79.00,+28.00,-13.00,+0.00,+9.00,+1.00,+4.00,+5.00,+2.00,+0.00,+0.00,-4.00
-2.00,-6.00,-5.00,-6.00,-75.00,-69.00,-13.00,-4.00,-2.00,-2.00,-2.00,+5.00,+2.00,+0.00,+0.00,-3.00
+6.00,+4.00,-8.00,-9.00,-91.00,+20.00,+1.00,-8.00,-37.00,-10.00,-7.00,-5.00,-6.00,-21.00,-5.00,-6.00
-8.00,+15.00,+3.00,+2.00,-64.00,-23.00,+1.00,-8.00,+33.00,+3.00,+2.00,-1.00,-2.00,+11.00,+5.00,+3.00
+3.00,-17.00,+4.00,+5.00,-22.00,+27.00,-28.00,+2.00,-34.00,-21.00,-5.00,-3.00,-3.00,-10.00,-7.00,-11.00
+25.00,+27.00,+3.00,+3.00,-25.00,-9.00,+74.00,+28.00,+26.00,+16.00,+1.00,-2.00,-1.00,+6.00,-1.00,-7.00
-6.00,-15.00,-9.00,-3.00,-6.00,+7.00,+53.00,-10.00,+19.00,+12.00,+2.00,+2.00,+2.00,+5.00,+11.00,+29.00
+12.00,+1.00,-1.00,-3.00,-20.00,-3.00,+18.00,+0.00,-27.00,-37.00,-7.00,-3.00,-4.00,-7.00,-15.00,-21.00
-5.00,+14.00,+0.00,-2.00,-19.00,+0.00,+13.00,+10.00,-12.00,+16.00,+6.00,+1.00,+2.00,+1.00,+1.00,-4.00
-3.00,-3.00,-2.00,-2.00,-7.00,+12.00,-19.00,+7.00,+16.00,+13.00,+1.00,+1.00,-2.00,-5.00,-3.00,+2.00
-6.00,+14.00,+3.00,+2.00,+25.00,+21.00,-12.00,-4.00,-8.00,-1.00,-2.00,-1.00,-2.00,+4.00,+3.00,-5.00
+29.00,+8.00,+2.00,+3.00,+10.00,-31.00,+1.00,+0.00,-6.00,-11.00,-4.00,+1.00,+0.00,+2.00,+1.00,+12.00
-13.00,-22.00,+0.00,-1.00,+14.00,-8.00,+12.00,-8.00,+8.00,+0.00,-3.00,-4.00,-3.00,-5.00,+7.00,-2.00
+1.00,+8.00,-1.00,-5.00,+25.00,+19.00,-26.00,-4.00,-17.00,-10.00,+4.00,+4.00,+3.00,-1.00,-5.00,-10.00
-18.00,-32.00,-9.00,-2.00,+25.00,-26.00,+4.00,-20.00,+11.00,-4.00,-2.00,-4.00,-1.00,+3.00,+3.00,+15.00
+6.00,+29.00,+2.00,+1.00,+18.00,-1.00,-20.00,+1.00,-16.00,+14.00,+0.00,-1.00,-2.00,-3.00,-1.00,+1.00
+4.00,-16.00,+1.00,-1.00,+20.00,-1.00,-1.00,+14.00,+19.00,-2.00,-5.00,-3.00,+0.00,-5.00,-2.00,-5.00
+2.00,+6.00,+0.00,+0.00,+15.00,-2.00,-5.00,+4.00,-21.00,-10.00,-3.00,-5.00,-3.00,+1.00,+2.00,+1.00
+10.00,+6.00,+10.00,+3.00,+7.00,-2.00,-8.00,+3.00,-37.00,-28.00,-11.00,-5.00,-2.00,+0.00,-2.00,-7.00
-3.00,+22.00,-5.00,-5.00,+20.00,+7.00,-11.00,-3.00,+30.00,+11.00,+3.00,+3.00,+0.00,+0.00,+0.00,+1.00
-11.00,-22.00,-4.00,+0.00,+21.00,+4.00,+7.00,-15.00,-18.00,-5.00,-3.00,-2.00,+2.00,+0.00,-6.00,-6.00
-5.00,-3.00,-3.00,+0.00,+17.00,+15.00,+4.00,+10.00,+14.00,+14.00,+4.00,-1.00,-1.00,-2.00,+4.00,+5.00
-5.00,-15.00,+0.00,-1.00,+11.00,-7.00,-7.00,+7.00,+14.00,+0.00,+6.00,+3.00,-2.00,-1.00,-8.00,-8.00
+5.00,-12.00,-3.00,-1.00,+5.00,-7.00,+1.00,+3.00,-5.00,-4.00,-7.00,-9.00,-5.00,-2.00,+3.00,+2.00
+3.00,+39.00,+0.00,+1.00,+11.00,+5.00,+6.00,-5.00,+16.00,+6.00,-6.00,-2.00,-3.00,+1.00,+2.00,+7.00
+10.00,+43.00,+3.00,-2.00,-2.00,-22.00,-18.00,-5.00,-16.00,-10.00,-3.00,-4.00,-2.00,-3.00,-9.00,-9.00
-3.00,-39.00,-3.00,+2.00,+29.00,+57.00,-11.00,+4.00,+6.00,+2.00,+2.00,+0.00,+2.00,+2.00,+8.00,+23.00
-10.00,-10.00,-4.00,-3.00,+14.00,+9.00,-1.00,-13.00,+4.00,+18.00,+9.00,+6.00,+2.00,+0.00,-3.00,-6.00
-8.00,-8.00,+1.00,+1.00,+19.00,-10.00,+1.00,-1.00,+4.00,-7.00,-2.00,-1.00,-1.00,+3.00,-2.00,+0.00
-8.00,-13.00,-2.00,+0.00,+12.00,-1.00,-35.00,-12.00,-21.00,-10.00,-2.00,-2.00,-3.00,+2.00,+9.00,+2.00
+21.00,+30.00,+1.00,-6.00,+12.00,-21.00,+40.00,-2.00,+1.00,+10.00,-3.00,-3.00,+0.00,+21.00,+1.00,-13.00
-15.00,-19.00,-4.00,-2.00,+14.00,+11.00,+12.00,-12.00,-22.00,-8.00,-5.00,-4.00,-2.00,-3.00,-3.00,+9.00
+11.00,+5.00,-2.00,+0.00,+6.00,+10.00,+3.00,+8.00,+31.00,+0.00,-2.00,-1.00,-3.00,+0.00,+0.00,-6.00
+6.00,+8.00,+0.00,+3.00,+12.00,-9.00,-81.00,-30.00,-44.00,-32.00,-6.00,-4.00,-3.00,-2.00,-7.00,+1.00
-7.00,+8.00,+1.00,+3.00,+20.00,-10.00,+59.00,+35.00,+1.00,+40.00,+5.00,+0.00,+1.00,-16.00,-5.00,-9.00
+16.00,-47.00,+3.00,+4.00,+9.00,+3.00,-20.00,+1.00,-17.00,-16.00,-3.00,+0.00,+2.00,+8.00,+2.00,-4.00
-18.00,+59.00,-2.00,-5.00,+9.00,-13.00,+7.00,+7.00,+8.00,+2.00,+1.00,+0.00,-1.00,+0.00,-4.00,+0.00
+8.00,-18.00,-7.00,-7.00,+8.00,+32.00,-5.00,-5.00,+16.00,+16.00,+0.00,+1.00,+0.00,-3.00,-2.00,+0.00
-8.00,+1.00,+2.00,+2.00,+16.00,-11.00,-25.00,-13.00,+6.00,-15.00,-3.00,-2.00,-1.00,-5.00,-1.00,-5.00
-2.00,+14.00,-2.00,+1.00,+8.00,-10.00,-6.00,-2.00,-26.00,-10.00,-5.00,-2.00,-2.00,-5.00,-3.00,-7.00
+8.00,-14.00,-3.00,+1.00,+10.00,+5.00,+4.00,-10.00,-9.00,+1.00,+2.00,+2.00,-3.00,-7.00,-3.00,-4.00
-11.00,-3.00,-1.00,-1.00,+8.00,+6.00,+21.00,+8.00,+18.00,+4.00,-4.00,-7.00,+3.00,+1.00,+4.00,+2.00
-8.00,+10.00,-4.00,-6.00,+3.00,-3.00,-24.00,-5.00,-16.00,-2.00,+0.00,-3.00,-4.00,-3.00,-5.00,+2.00
-6.00,+7.00,+2.00,+2.00,+10.00,+6.00,+12.00,+12.00,+15.00,+11.00,+3.00,+1.00,-2.00,-6.00,-5.00,-5.00
+9.00,+5.00,-3.00,+0.00,+8.00,+3.00,-10.00,-5.00,-3.00,-13.00,-4.00,+2.00,+3.00,+6.00,+2.00,+4.00
-9.00,-14.00,-2.00,-4.00,+4.00,-3.00,+14.00,-2.00,-5.00,+7.00,+4.00,-1.00,-8.00,-1.00,-15.00,-9.00
+7.00,-5.00,-3.00,+0.00,+9.00,-13.00,-18.00,-4.00,+11.00,-12.00,-4.00,-4.00,-4.00,+0.00,+1.00,-7.00
-2.00,+3.00,+0.00,+1.00,+6.00,-1.00,-9.00,-8.00,+0.00,-3.00,-3.00,-4.00,-1.00,-1.00,+6.00,+6.00
+6.00,-7.00,+1.00,-2.00,+2.00,-6.00,+6.00,-4.00,+32.00,+12.00,+4.00,+2.00,+1.00,-2.00,+0.00,+11.00
-7.00,-7.00,-5.00,+3.00,+12.00,+5.00,+10.00,+17.00,-3.00,+3.00,-1.00,+1.00,+2.00,-2.00,+0.00,+2.00
+0.00,+3.00,+3.00,-1.00,+7.00,-11.00,-11.00,+6.00,-21.00,-10.00,-6.00,-4.00,-1.00,-2.00,+0.00,-10.00
+13.00,+4.00,+1.00,+1.00,+5.00,+10.00,+5.00,+5.00,-9.00,-12.00,-2.00,+2.00,-2.00,-18.00,-6.00,-8.00
-13.00,-8.00,-3.00,-1.00,+0.00,-4.00,-2.00,-9.00,+21.00,+1.00,-3.00,-3.00,-1.00,+1.00,+1.00,-2.00
+2.00,-1.00,-2.00,-3.00,+0.00,-4.00,+15.00,-13.00,+0.00,+7.00,+0.00,+0.00,+0.00,-1.00,+4.00,+12.00
-10.00,+8.00,+0.00,+2.00,+3.00,-2.00,-24.00,-1.00,-28.00,-9.00,-2.00,-3.00,-2.00,+0.00,+0.00,+0.00
-8.00,-15.00,-4.00,-1.00,+5.00,+33.00,-1.00,+3.00,+5.00,+9.00,+2.00,+0.00,-1.00,+0.00,+2.00,-3.00
-6.00,+5.00,+3.00,+1.00,+1.00,-32.00,-5.00,-6.00,-32.00,-17.00,-2.00,-1.00,-2.00,-4.00,-3.00,-7.00
-9.00,-1.00,+2.00,+2.00,+2.00,-10.00,-6.00,+0.00,+30.00,+5.00,+0.00,+1.00,-1.00,-4.00,+1.00,+1.00
-5.00,-10.00,-6.00,-3.00,+0.00,-6.00,-5.00,-17.00,+4.00,+13.00,+0.00,+0.00,+1.00,+0.00,-1.00,+4.00
-10.00,+33.00,-10.00,-9.00,-4.00,-5.00,-11.00,-9.00,-16.00,-10.00,+2.00,+3.00,-1.00,+1.00,-5.00,-7.00
-14.00,-84.00,+0.00,+0.00,+2.00,+13.00,+18.00,+14.00,+14.00,+1.00,-9.00,-9.00,-6.00,-4.00,+3.00,+9.00
+15.00,+33.00,+7.00,+1.00,-2.00,-27.00,-1.00,-1.00,-5.00,+0.00,+3.00,+4.00,+2.00,+4.00,+1.00,-10.00
+3.00,-56.00,-2.00,+3.00,+5.00,+1.00,+6.00,+7.00,-11.00,-10.00,-1.00,+1.00,+2.00,-1.00,-4.00,+3.00
+13.00,+68.00,+8.00,+0.00,-2.00,-5.00,+1.00,+5.00,+17.00,+8.00,+1.00,+0.00,-1.00,+3.00,+1.00,+14.00
+4.00,+19.00,-4.00,-4.00,+2.00,-1.00,-17.00,+3.00,+0.00,-11.00,+2.00,+1.00,-1.00,+1.00,-1.00,-6.00
-3.00,-16.00,-4.00,-5.00,-3.00,-3.00,+7.00,+2.00,-1.00,+32.00,+6.00,+2.00,-3.00,-5.00,-5.00,+3.00
-1.00,-11.00,-3.00,+2.00,+3.00,+3.00,-4.00,-1.00,+9.00,+2.00,-4.00,-5.00,-3.00,+0.00,+2.00,-6.00
-6.00,-23.00,-2.00,-2.00,+3.00,-11.00,+2.00,-1.00,-19.00,-8.00,-2.00,+0.00,+7.00,+3.00,-9.00,-20.00
+12.00,+13.00,+1.00,+1.00,+5.00,+28.00,+9.00,+0.00,+7.00,+9.00,+2.00,+3.00,+0.00,-2.00,+0.00,+14.00
+4.00,+3.00,+2.00,-3.00,-5.00,-15.00,+8.00,-4.00,-4.00,-17.00,-3.00,+3.00,+11.00,+7.00,+1.00,+8.00
+19.00,+28.00,+3.00,+1.00,+2.00,+2.00,-11.00,+9.00,-3.00,+2.00,+0.00,-5.00,-17.00,-5.00,-4.00,-3.00
-10.00,-31.00,-1.00,+0.00,-2.00,-10.00,+0.00,+7.00,+29.00,+3.00,+0.00,-5.00,-5.00,+2.00,-1.00,+5.00
+6.00,+9.00,-5.00,-3.00,+2.00,+14.00,-30.00,-15.00,-34.00,-8.00,-1.00,+0.00,+1.00,-7.00,-4.00,-14.00
+8.00,+10.00,+2.00,+1.00,+5.00,+8.00,+28.00,+14.00,+25.00,+6.00,+0.00,-1.00,+1.00,+27.00,+4.00,+5.00
-7.00,+2.00,+2.00,-1.00,-3.00,-9.00,-11.00,-5.00,-9.00,+0.00,+1.00,+3.00,+3.00,+1.00,-1.00,-2.00
-3.00,-5.00,-7.00,-5.00,-2.00,-7.00,+9.00,+0.00,+11.00,-3.00,+3.00,+3.00,+3.00,-2.00,+3.00,-1.00
-9.00,+48.00,-2.00,-5.00,-5.00,-9.00,-13.00,-18.00,+18.00,+18.00,+7.00,+2.00,+2.00,+4.00,+8.00,+18.00
-5.00,-90.00,-1.00,+10.00,+10.00,+12.00,+4.00,+2.00,-17.00,-15.00,-4.00,-7.00,-7.00,-11.00,+1.00,+0.00
-14.00,+31.00,-4.00,-4.00,-1.00,-7.00,-56.00,-17.00,+17.00,+4.00,+1.00,+0.00,+2.00,-3.00,-2.00,-1.00
+20.00,-19.00,+2.00,-3.00,-5.00,+1.00,+14.00,-4.00,+9.00,+1.00,-1.00,-3.00,-2.00,+5.00,+3.00,-5.00
-7.00,-25.00,+2.00,+3.00,+1.00,-9.00,+13.00,+3.00,-23.00,-7.00,-2.00,-3.00,-4.00,-6.00,-12.00,-21.00
-3.00,+23.00,-4.00,-3.00,-1.00,+7.00,-4.00,-7.00,-20.00,-7.00,+0.00,-1.00,-3.00,-5.00,-15.00,-6.00
-5.00,-1.00,-1.00,-1.00,+0.00,+1.00,+5.00,+8.00,-2.00,+0.00,+2.00,+2.00,+2.00,-4.00,+13.00,+5.00
-8.00,-11.00,-3.00,+1.00,+0.00,-3.00,-12.00,-9.00,+4.00,+0.00,-2.00,+1.00,-3.00,-10.00,+5.00,+5.00
+9.00,+22.00,+3.00,+2.00,-1.00,-4.00,+7.00,+9.00,-30.00,-22.00,-8.00,-6.00,-1.00,+5.00,-15.00,-12.00
-4.00,-10.00,-5.00,+1.00,+3.00,+30.00,-8.00,-2.00,+27.00,+22.00,+0.00,-1.00,-3.00,-6.00,+1.00,-6.00
+7.00,+3.00,-4.00,-5.00,-4.00,+1.00,+8.00,-2.00,-33.00,-13.00,-5.00,-4.00,-3.00,+1.00,-8.00,-10.00
-1.00,-10.00,-2.00,+3.00,+1.00,-22.00,-3.00,+3.00,+29.00,+13.00,+6.00,+3.00,-1.00,+1.00,+1.00,+8.00
+2.00,-25.00,+2.00,-1.00,-1.00,-4.00,+16.00,+6.00,+16.00,+8.00,+2.00,+10.00,+8.00,-7.00,+4.00,+12.00
-8.00,+14.00,-4.00,-7.00,-9.00,+5.00,-18.00,-11.00,-21.00,-20.00,-5.00,-5.00,+0.00,+20.00,-1.00,-12.00
-6.00,+6.00,+0.00,+0.00,-2.00,-9.00,+13.00,-3.00,+1.00,+6.00,+0.00,-16.00,-16.00,+1.00,+0.00,+4.00
-12.00,+4.00,-5.00,-1.00,+1.00,+11.00,+3.00,-8.00,-40.00,-10.00,-3.00,-3.00,-6.00,-3.00,-7.00,-13.00
+5.00,-38.00,-3.00,-1.00,+1.00,+3.00,-5.00,+8.00,+4.00,-6.00,-7.00,-8.00,-6.00,-1.00,+1.00,-1.00
+3.00,+25.00,+4.00,-1.00,-2.00,+4.00,+1.00,-11.00,-12.00,-12.00,-5.00,+0.00,+2.00,-9.00,+10.00,+8.00
-9.00,-6.00,-2.00,+0.00,+3.00,-8.00,-1.00,+35.00,+17.00,+3.00,+1.00,+8.00,+8.00,-1.00,-1.00,-1.00
+11.00,+13.00,+2.00,-2.00,-8.00,-8.00,+3.00,-10.00,-7.00,-3.00,-3.00,+1.00,+2.00,+11.00,+2.00,+1.00
-5.00,-1.00,-4.00,-4.00,-9.00,-1.00,-5.00,-5.00,-15.00,+3.00,+0.00,-1.00,-2.00,-1.00,-4.00,-10.00
-4.00,+25.00,+1.00,+0.00,+8.00,-2.00,+3.00,+4.00,-15.00,+4.00,+3.00,+2.00,-4.00,-8.00,+2.00,+4.00
+15.00,-15.00,+3.00,+4.00,+4.00,-1.00,+2.00,-6.00,+34.00,+3.00,+2.00,+2.00,+5.00,+1.00,-2.00,-1.00
-9.00,-18.00,-1.00,+3.00,+3.00,+0.00,-17.00,+1.00,-7.00,-8.00,-7.00,-3.00,-4.00,-4.00,-4.00,-5.00
-2.00,+14.00,-5.00,-4.00,-5.00,-2.00,+26.00,-5.00,-5.00,-3.00,-4.00,-1.00,-3.00,-1.00,-2.00,-3.00
+6.00,+17.00,+4.00,+1.00,-4.00,-7.00,-5.00,+3.00,-7.00,+7.00,-2.00,-2.00,-2.00,-9.00,-2.00,-3.00
-16.00,-22.00,-6.00,-5.00,-5.00,+4.00,+13.00,-5.00,-2.00,-2.00,-4.00,+1.00,+5.00,+0.00,+2.00,-4.00
-2.00,+6.00,-3.00,-5.00,-2.00,-2.00,-2.00,-2.00,-27.00,-4.00,-1.00,+4.00,-8.00,+0.00,-2.00,-3.00
+10.00,+1.00,+1.00,+0.00,+1.00,+13.00,-12.00,-2.00,+15.00,-5.00,-6.00,-6.00,-2.00,-2.00,-1.00,+5.00
-8.00,-10.00,-5.00,-7.00,-8.00,-22.00,+0.00,+0.00,+15.00,-10.00,-4.00,+12.00,+2.00,+1.00,+2.00,-2.00
-2.00,+19.00,-5.00,-5.00,-1.00,+1.00,+8.00,-9.00,-13.00,+4.00,-1.00,-25.00,-16.00,-4.00,-8.00,+1.00
-5.00,-36.00,-1.00,+1.00,+4.00,+7.00,-11.00,+2.00,+17.00,+2.00,-1.00,-2.00,-4.00,-15.00,+1.00,+2.00
-15.00,-9.00,-3.00,-5.00,-3.00,-5.00,-3.00,-20.00,-24.00,-1.00,+3.00,-3.00,-2.00,+25.00,+0.00,-1.00
+3.00,-2.00,+3.00,+5.00,-2.00,+2.00,-15.00,+9.00,-4.00,-4.00,-2.00,-4.00,-5.00,-8.00,+2.00,+2.00
+9.00,+19.00,+4.00,+1.00,+0.00,-8.00,-23.00,-5.00,-3.00,-4.00,-1.00,+7.00,+11.00,-3.00,+0.00,+5.00
+8.00,-10.00,+4.00,+3.00,-1.00,+20.00,+39.00,+21.00,+3.00,-2.00,+1.00,-1.00,-6.00,+7.00,+1.00,-6.00
+6.00,+19.00,+4.00,+5.00,+4.00,+0.00,-12.00,+2.00,-5.00,+0.00,-3.00,-5.00,-5.00,-10.00,-7.00,-10.00
-14.00,-11.00,-4.00,-2.00,+2.00,+19.00,+5.00,-5.00,+18.00,+9.00,+2.00,-1.00,+1.00,-3.00,+1.00,+7.00
+1.00,-10.00,-5.00,-5.00,-7.00,-49.00,+7.00,-11.00,-12.00,-8.00,-4.00,+4.00,+3.00,+6.00,+1.00,-3.00
+2.00,+11.00,-2.00,-2.00,-2.00,-2.00,-8.00,-3.00,+10.00,-2.00,-1.00,-3.00,+5.00,-2.00,+4.00,+4.00
-12.00,-23.00,-3.00,-1.00,-29.00,-16.00,+8.00,-4.00,+35.00,+0.00,+0.00,+1.00,+0.00,-4.00,-4.00,-3.00
+18.00,+23.00,+4.00,+5.00,+27.00,-7.00,+5.00,+8.00,-21.00,-17.00,-7.00,-5.00,-3.00,-1.00,-5.00,-8.00
-11.00,-2.00,-3.00,-2.00,+1.00,+18.00,-13.00,-10.00,+24.00,+26.00,+3.00,+4.00,+0.00,-5.00,-1.00,-3.00
-12.00,-19.00,-3.00,-1.00,+0.00,+1.00,+7.00,+1.00,-21.00,+0.00,-1.00,+0.00,+0.00,+1.00,-1.00,-1.00
+13.00,+29.00,+1.00,-1.00,-3.00,-9.00,-5.00,+18.00,+57.00,+10.00,+4.00,+2.00,-1.00,-2.00,+6.00,+9.00
-11.00,+26.00,-4.00,-5.00,-14.00,+4.00,-6.00,-9.00,+4.00,-10.00,-3.00,-2.00,+2.00,+2.00,-2.00,+0.00
-2.00,-68.00,+3.00,+2.00,+2.00,+12.00,+9.00,+0.00,-15.00,-11.00,-2.00,+1.00,-5.00,+0.00,+3.00,+10.00
-5.00,+3.00,+2.00,+3.00,+5.00,+10.00,-15.00,-4.00,-9.00,-4.00,-5.00,+1.00,+5.00,+0.00,-1.00,+4.00
+12.00,+6.00,+0.00,-1.00,-3.00,-24.00,+0.00,+3.00,-16.00,+0.00,+0.00,-3.00,+1.00,-1.00,+0.00,+0.00
-10.00,-5.00,-6.00,-2.00,-5.00,-9.00,-3.00,-3.00,+2.00,+4.00,+4.00,+0.00,+0.00,-1.00,+2.00,+1.00
+7.00,+12.00,+5.00,+3.00,+6.00,+11.00,+9.00,-8.00,-6.00,-5.00,-2.00,-2.00,-2.00,-3.00,-5.00,-11.00
-12.00,+22.00,-3.00,-6.00,-9.00,-7.00,-6.00,-3.00,+9.00,+9.00,+4.00,-1.00,+2.00,+2.00,-1.00,+4.00
-11.00,-6.00,-5.00,-3.00,+7.00,+5.00,-9.00,-16.00,-30.00,-10.00,-3.00,+0.00,-2.00,-4.00,-6.00,-11.00
+7.00,-10.00,+0.00,-1.00,-3.00,-3.00,+11.00,+17.00,+11.00,+2.00,-2.00,-2.00,-3.00,-1.00,+10.00,+9.00
-4.00,+8.00,+2.00,+4.00,-3.00,+4.00,+1.00,-2.00,+2.00,-1.00,+1.00,+3.00,+0.00,-4.00,-2.00,+0.00
+38.00,+3.00,+4.00,-1.00,-5.00,-5.00,-2.00,+7.00,+1.00,-22.00,-8.00,-4.00,+4.00,+0.00,+1.00,+0.00
+1.00,+1.00,-2.00,-3.00,-23.00,-1.00,-3.00,-5.00,-5.00,+21.00,+1.00,-4.00,-7.00,-4.00,-4.00,-1.00
-6.00,-22.00,-2.00,-1.00,+27.00,-9.00,+2.00,-5.00,+3.00,+1.00,-1.00,-4.00,-5.00,+7.00,-6.00,-8.00
-9.00,-17.00,-4.00,+1.00,-1.00,+22.00,-19.00,-9.00,-1.00,-5.00,+0.00,+2.00,-1.00,-30.00,-4.00,-1.00
+1.00,+1.00,-1.00,+0.00,+4.00,-19.00,-30.00,+14.00,+9.00,-3.00,-1.00,+0.00,+3.00,+28.00,-2.00,-6.00
+0.00,+21.00,-1.00,-3.00,+3.00,+1.00,+4.00,+15.00,-20.00,-1.00,+4.00,+1.00,-5.00,-3.00,-1.00,-2.00
+4.00,-19.00,-2.00,+0.00,-10.00,-1.00,+6.00,+4.00,-23.00,-9.00,-8.00,-7.00,-4.00,+0.00,+1.00,-1.00
+13.00,+19.00,-1.00,-3.00,-1.00,+17.00,+8.00,+4.00,+28.00,-2.00,-2.00,+1.00,+3.00,+2.00,-2.00,+3.00
-7.00,-1.00,-1.00,-3.00,-3.00,-33.00,-2.00,-5.00,-10.00,+5.00,+3.00,+2.00,-1.00,-12.00,-5.00,-6.00
-3.00,-17.00,-2.00,+3.00,+3.00,-8.00,-8.00,+1.00,-10.00,-6.00,-2.00,-1.00,+4.00,-1.00,+4.00,+3.00
+2.00,+12.00,+1.00,+0.00,-11.00,+6.00,-8.00,-10.00,+8.00,+9.00,+2.00,+1.00,+0.00,-2.00,-4.00,-3.00
-17.00,-10.00,-7.00,-5.00,-2.00,-7.00,-12.00,-6.00,+4.00,+3.00,+2.00,+3.00,+2.00,+8.00,-1.00,+3.00
-10.00,-6.00,+2.00,+4.00,+1.00,+9.00,+5.00,+9.00,-8.00,-7.00,-4.00,-1.00,+0.00,-8.00,+2.00,-2.00
-3.00,-23.00,+4.00,+3.00,+9.00,+12.00,+6.00,-27.00,+26.00,+9.00,+1.00,-2.00,+1.00,+3.00,+0.00,-3.00
+4.00,+8.00,+4.00,+2.00,-6.00,-3.00,+0.00,+13.00,-3.00,+2.00,+0.00,-2.00,-2.00,-10.00,-6.00,-5.00
+2.00,+25.00,-3.00,-1.00,+1.00,+0.00,+10.00,-2.00,-14.00,-8.00,-7.00,-3.00,-2.00,+5.00,-1.00,-5.00
-4.00,+1.00,-1.00,+0.00,-1.00,+2.00,+3.00,-9.00,+8.00,-8.00,-3.00,-4.00,-5.00,-1.00,-1.00,+2.00
-7.00,-12.00,-5.00,-5.00,+3.00,+0.00,+0.00,-5.00,-8.00,+10.00,-1.00,+0.00,+2.00,-4.00,-2.00,-5.00
+3.00,+3.00,+0.00,-2.00,-1.00,+3.00,-3.00,-3.00,-6.00,-7.00,-5.00,-3.00,-2.00,-3.00,-3.00,-4.00
+1.00,+3.00,+1.00,-3.00,-5.00,-9.00,+4.00,+6.00,-8.00,-4.00,-1.00,-1.00,-1.00,+5.00,+1.00,-3.00
-18.00,-35.00,-7.00,-4.00,-4.00,+2.00,+1.00,-14.00,+6.00,+8.00,+6.00,-1.00,-1.00,+2.00,+2.00,+6.00
+12.00,+29.00,-1.00,-1.00,+6.00,+2.00,-7.00,+4.00,-4.00,-11.00,-3.00,-1.00,-1.00,-2.00,-1.00,+1.00
+9.00,+0.00,-3.00,+0.00,-6.00,+1.00,-4.00,+2.00,-2.00,-1.00,+0.00,-3.00,+1.00,-3.00,-3.00,-3.00
+2.00,-7.00,-5.00,-2.00,+2.00,+31.00,+10.00,+5.00,-6.00,-3.00,-2.00,+0.00,-2.00,+4.00,+0.00,-3.00
+7.00,+27.00,+2.00,-3.00,-6.00,-25.00,-5.00,-2.00,+1.00,+4.00,+2.00,+2.00,+1.00,-5.00,-3.00,+0.00
-4.00,-6.00,+1.00,+2.00,+7.00,+2.00,+0.00,+11.00,-4.00,-4.00,-4.00,-2.00,-1.00,-3.00,+1.00,+0.00
-5.00,-12.00,-1.00,-2.00,-6.00,-11.00,+2.00,-20.00,+0.00,-2.00,+3.00,+2.00,+1.00,+0.00,-2.00,+3.00
+1.00,+13.00,+6.00,+4.00,+3.00,+0.00,+7.00,+4.00,+13.00,-3.00,-5.00,+0.00,-2.00,-3.00,-2.00,-1.00
-5.00,-3.00,-1.00,+1.00,+7.00,+46.00,+1.00,-11.00,-27.00,-2.00,+2.00,+0.00,-1.00,-3.00,-1.00,-1.00
+8.00,-2.00,-1.00,-3.00,-8.00,-39.00,+0.00,+16.00,+11.00,-3.00,-4.00,-1.00,+1.00,-1.00,-1.00,+0.00
-9.00,-9.00,-1.00,-3.00,-1.00,-4.00,-10.00,+0.00,+3.00,-4.00,+1.00,+2.00,-1.00,-1.00,-3.00,-4.00
+0.00,+1.00,+0.00,+1.00,-4.00,-7.00,+60.00,+7.00,-19.00,-7.00,-1.00,+1.00,+0.00,+2.00,-1.00,-2.00
+2.00,+23.00,+0.00,+0.00,+2.00,-1.00,+5.00,+0.00,+2.00,+2.00,-2.00,-3.00,-2.00,-4.00,-2.00,+1.00
