+4.00,+0.00,-1.00,-1.00,+2.00,-1.00,+0.00,+3.00,-2.00,-3.00,-6.00,-5.00,-12.00,-2.00,-3.00,-6.00
+11.00,-2.00,-3.00,-3.00,-2.00,-1.00,+3.00,+5.00,-1.00,-2.00,+0.00,-4.00,+4.00,-2.00,+0.00,+3.00
-6.00,-6.00,-2.00,-2.00,-3.00,-1.00,-2.00,+2.00,-2.00,-4.00,-2.00,-2.00,+0.00,-1.00,-3.00,+3.00
-4.00,+2.00,+0.00,-1.00,-4.00,-2.00,-1.00,-1.00,+0.00,+1.00,-1.00,+2.00,+2.00,+0.00,-4.00,-16.00
+1.00,-4.00,-5.00,-3.00,-2.00,+1.00,+3.00,+5.00,+0.00,+2.00,+2.00,+1.00,+7.00,-2.00,-1.00,-3.00
+3.00,+0.00,+1.00,+0.00,+0.00,+0.00,+0.00,-9.00,-3.00,-2.00,-7.00,-2.00,-10.00,+0.00,+1.00,-5.00
+6.00,-1.00,-2.00,-1.00,-1.00,+0.00,-1.00,+6.00,-2.00,+2.00,+11.00,+4.00,-3.00,-2.00,+0.00,+3.00
-2.00,+1.00,+3.00,+3.00,+0.00,-2.00,-3.00,-2.00,+3.00,+4.00,-1.00,+1.00,+0.00,+1.00,+1.00,+1.00
-2.00,+0.00,+2.00,+1.00,+0.00,-1.00,+0.00,-1.00,-1.00,-4.00,-1.00,+3.00,+10.00,+2.00,+1.00,+0.00
-7.00,+2.00,-1.00,+2.00,+0.00,+0.00,-1.00,+1.00,-3.00,-2.00,-3.00,+1.00,+2.00,-1.00,-3.00,-2.00
+6.00,-2.00,-3.00,+0.00,-1.00,-2.00,-2.00,-6.00,-4.00,-1.00,-1.00,-14.00,-25.00,-4.00,+0.00,+1.00
-21.00,-2.00,-2.00,-3.00,-3.00,+0.00,+0.00,+9.00,-2.00,+4.00,+2.00,-4.00,-7.00,-1.00,-2.00,+0.00
-5.00,-2.00,-2.00,-1.00,-2.00,-1.00,-1.00,-4.00,+2.00,+4.00,+4.00,+6.00,+9.00,+1.00,+0.00,+1.00
-1.00,-3.00,-1.00,+1.00,+0.00,+0.00,+0.00,+1.00,-1.00,+5.00,+3.00,+20.00,+24.00,+2.00,-2.00,+1.00
+1.00,+2.00,-3.00,+0.00,+1.00,+0.00,+0.00,-2.00,+2.00,+1.00,+0.00,-29.00,-18.00,-2.00,-1.00,-2.00
+1.00,-6.00,+3.00,-2.00,-1.00,-1.00,-2.00,-5.00,-5.00,-8.00,-8.00,-12.00,-9.00,-3.00,-3.00,-3.00
-3.00,+0.00,-2.00,-4.00,-2.00,-1.00,+0.00,-8.00,-2.00,-3.00,-5.00,-11.00,-6.00,-2.00,+0.00,-1.00
-2.00,-6.00,-4.00,-3.00,-2.00,+0.00,+4.00,+16.00,-1.00,-4.00,-1.00,-3.00,-7.00,-3.00,-3.00,-1.00
-6.00,+0.00,-2.00,-1.00,+0.00,+0.00,+1.00,+1.00,-1.00,+0.00,+1.00,+16.00,+14.00,+2.00,+2.00,+1.00
+2.00,-6.00,-4.00,-4.00,-1.00,-2.00,+0.00,+1.00,-3.00,-3.00,+0.00,+4.00,+2.00,-2.00,-1.00,+0.00
+4.00,+4.00,+1.00,+0.00,+1.00,-1.00,-3.00,-4.00,+1.00,+0.00,+1.00,+3.00,-3.00,-3.00,-2.00,-3.00
-1.00,+0.00,-3.00,-1.00,-2.00,-1.00,-3.00,-16.00,-1.00,-2.00,-1.00,+1.00,+1.00,-1.00,-2.00,-3.00
-2.00,+0.00,+6.00,+0.00,-1.00,+0.00,-3.00,+0.00,+0.00,+16.00,+16.00,+8.00,+4.00,-1.00,+1.00,+0.00
-35.00,-7.00,-7.00,-3.00,-2.00,-2.00,-1.00,+4.00,-4.00,-23.00,-33.00,-10.00,-2.00,-1.00,-5.00,-3.00
+6.00,-3.00,-2.00,+0.00,-2.00,+2.00,-1.00,+0.00,-3.00,-7.00,-8.00,+2.00,-1.00,-2.00,-1.00,-3.00
+3.00,-1.00,-1.00,-3.00,-3.00,+1.00,-1.00,-4.00,+5.00,+8.00,+11.00,-4.00,-8.00,-2.00,+0.00,+0.00
+2.00,-6.00,-6.00,+0.00,+3.00,+1.00,+1.00,-5.00,+1.00,-14.00,-20.00,-1.00,+5.00,+1.00,-2.00,+1.00
+6.00,+6.00,-1.00,+2.00,+0.00,-1.00,-2.00,-5.00,+2.00,+14.00,+11.00,+6.00,+1.00,-1.00,+0.00,-3.00
-1.00,-2.00,+0.00,+1.00,+1.00,-3.00,-3.00,-8.00,-5.00,-7.00,-2.00,-3.00,-5.00,-2.00,-3.00,-6.00
-12.00,-3.00,-2.00,-2.00,-4.00,-4.00,+0.00,+6.00,-2.00,-1.00,-1.00,-3.00,-6.00,-3.00,-5.00,-11.00
-2.00,-1.00,+3.00,-2.00,-3.00,+0.00,+1.00,+3.00,+1.00,+2.00,+3.00,+3.00,+1.00,+0.00,-2.00,+2.00
+14.00,+6.00,+1.00,+0.00,+1.00,-1.00,-1.00,-4.00,+1.00,+0.00,+5.00,+6.00,+5.00,+0.00,+0.00,+1.00
+12.00,+9.00,+1.00,+7.00,+1.00,-2.00,+0.00,+7.00,-4.00,-4.00,-3.00,-6.00,-4.00,-1.00,-2.00,+0.00
+10.00,-1.00,+9.00,+4.00,+4.00,+2.00,-3.00,-9.00,-1.00,-1.00,+0.00,-5.00,-4.00,-3.00,+1.00,+2.00
+62.00,+3.00,-5.00,-3.00,-3.00,-6.00,-1.00,+6.00,-1.00,-3.00,-3.00,+2.00,+4.00,-1.00,-5.00,-9.00
-2.00,-7.00,-5.00,-4.00,-1.00,+2.00,+3.00,-6.00,+2.00,+7.00,+5.00,+0.00,-1.00,+0.00,-1.00,-5.00
-17.00,-1.00,-6.00,-6.00,-27.00,-8.00,-3.00,-6.00,-4.00,+0.00,-3.00,+3.00,+2.00,-1.00,-1.00,-1.00
-8.00,-1.00,-4.00,-1.00,+24.00,+9.00,-1.00,+2.00,+1.00,-3.00,-5.00,-6.00,-6.00,+0.00,+2.00,+2.00
+0.00,+5.00,-1.00,+4.00,+7.00,+3.00,-1.00,-6.00,+1.00,-1.00,-6.00,-10.00,-9.00,-1.00,+3.00,+4.00
+2.00,-1.00,+0.00,-2.00,+0.00,+1.00,-1.00,-4.00,-3.00,+0.00,+4.00,-1.00,-1.00,-2.00,-1.00,+0.00
-4.00,-5.00,-5.00,-7.00,-40.00,-25.00,-7.00,-4.00,+5.00,+1.00,-1.00,-6.00,-4.00,-1.00,-3.00,-2.00
+9.00,+8.00,+9.00,+7.00,+46.00,+10.00,+1.00,+0.00,+2.00,+0.00,-2.00,+5.00,+4.00,+2.00,+1.00,+1.00
-17.00,-2.00,+1.00,-4.00,+4.00,+7.00,-1.00,-3.00,-6.00,-11.00,-6.00,+1.00,-1.00,-1.00,+1.00,+3.00
+11.00,+6.00,+4.00,+3.00,+2.00,+2.00,+1.00,-9.00,+2.00,+18.00,+8.00,+4.00,+11.00,-1.00,+1.00,+1.00
-18.00,-6.00,+2.00,+1.00,+13.00,+7.00,-2.00,-4.00,-1.00,+2.00,+2.00,+1.00,-6.00,+0.00,-2.00,-7.00
-8.00,-8.00,-10.00,-6.00,-30.00,-10.00,-1.00,+1.00,-1.00,-7.00,-4.00,-8.00,-5.00,-1.00,-1.00,-1.00
-21.00,-5.00,-1.00,-2.00,-7.00,-7.00,-3.00,-1.00,-1.00,-7.00,-4.00,-3.00,+0.00,-3.00,-1.00,+0.00
+31.00,+0.00,-1.00,+1.00,+0.00,-3.00,+1.00,+7.00,-2.00,-5.00,-3.00,-3.00,-3.00,+0.00,+0.00,+2.00
+16.00,+1.00,+4.00,+1.00,-1.00,+0.00,+0.00,-8.00,-4.00,-5.00,-2.00,+2.00,+6.00,-1.00,-1.00,-2.00
+22.00,+2.00,-1.00,+2.00,-8.00,-3.00,+1.00,+4.00,-3.00,-6.00,-6.00,-4.00,-4.00,-2.00,-2.00,-4.00
+5.00,+2.00,+2.00,-2.00,+1.00,+0.00,-4.00,-10.00,+2.00,-2.00,+3.00,+6.00,+5.00,+0.00,+2.00,+2.00
-12.00,+0.00,+3.00,-3.00,-6.00,-2.00,-1.00,+2.00,-3.00,-31.00,-11.00,-5.00,-2.00,-1.00,-1.00,+0.00
-9.00,-9.00,-11.00,-7.00,+11.00,+3.00,+1.00,+6.00,-4.00,+37.00,+5.00,+1.00,-3.00,-2.00,-3.00,-8.00
+4.00,+3.00,+3.00,+0.00,-5.00,-4.00,+0.00,-2.00,-7.00,-5.00,-2.00,-3.00,-4.00,-3.00,-3.00,-3.00
-9.00,-5.00,+0.00,+2.00,-1.00,-2.00,+0.00,+7.00,-6.00,+2.00,-1.00,+0.00,+3.00,-1.00,+2.00,+2.00
+3.00,-3.00,-5.00,-3.00,-3.00,-2.00,-4.00,-7.00,+0.00,-1.00,+2.00,-1.00,-1.00,-1.00,-2.00,+1.00
+28.00,+3.00,+2.00,+0.00,+10.00,+5.00,+0.00,-1.00,+3.00,-13.00,-2.00,-2.00,-4.00,-2.00,+0.00,+5.00
-20.00,-4.00,-4.00,-6.00,-11.00,-5.00,-4.00,-1.00,-2.00,-1.00,-3.00,-1.00,+1.00,-1.00,-2.00,-4.00
-5.00,+0.00,+4.00,+1.00,-5.00,-1.00,-1.00,-4.00,+0.00,+2.00,+5.00,+4.00,+3.00,+2.00,+0.00,-1.00
-5.00,-2.00,-2.00,-1.00,+3.00,-1.00,+0.00,-2.00,+2.00,+7.00,+2.00,-2.00,-3.00,-1.00,-4.00,-6.00
-9.00,+0.00,+2.00,+0.00,+8.00,+5.00,-2.00,+2.00,-4.00,-4.00,-2.00,-2.00,-2.00,-2.00,+3.00,+16.00
+3.00,-4.00,-1.00,+1.00,-8.00,-9.00,-2.00,-11.00,-1.00,-4.00,+4.00,+11.00,+7.00,-2.00,-2.00,-1.00
+37.00,+6.00,+1.00,+2.00,+3.00,+3.00,+2.00,+21.00,-5.00,-4.00,-7.00,-14.00,-11.00,-4.00,-4.00,-6.00
-28.00,-12.00,-8.00,-5.00,-5.00,-3.00,+0.00,+0.00,+6.00,+10.00,+4.00,+2.00,-1.00,+1.00,-1.00,-3.00
-5.00,-1.00,+1.00,-1.00,-12.00,+2.00,+1.00,-1.00,-18.00,-2.00,+1.00,+2.00,+10.00,+1.00,-1.00,-4.00
-3.00,+0.00,+1.00,+1.00,+27.00,+3.00,-1.00,-2.00,+11.00,-3.00,-8.00,-12.00,-15.00,-6.00,-1.00,+3.00
-4.00,-3.00,+0.00,+0.00,+1.00,-1.00,-3.00,-7.00,-42.00,-43.00,+0.00,+5.00,+2.00,-2.00,-3.00,-5.00
-3.00,-2.00,-2.00,+0.00,+5.00,-1.00,-2.00,-2.00,+84.00,+33.00,+7.00,+3.00,+13.00,+1.00,+0.00,-1.00
-6.00,-12.00,-3.00,+0.00,-4.00,-3.00,+1.00,+4.00,-5.00,+24.00,+2.00,+14.00,-15.00,-2.00,-1.00,-5.00
-1.00,+35.00,+3.00,-2.00,-17.00,+0.00,+0.00,+2.00,+1.00,-6.00,+2.00,-12.00,+12.00,+2.00,+3.00,+8.00
-18.00,-19.00,-1.00,+0.00,-4.00,+0.00,+2.00,+5.00,+0.00,-6.00,-6.00,-3.00,-5.00,-3.00,-2.00,-1.00
+25.00,+17.00,+4.00,+4.00,+3.00,-2.00,+0.00,+1.00,-47.00,-44.00,-6.00,+1.00,+0.00,-4.00,-4.00,+5.00
-1.00,-10.00,-2.00,-1.00,+13.00,+5.00,+1.00,-14.00,+41.00,+23.00,-5.00,-30.00,-23.00,-3.00,-4.00,-10.00
-9.00,-10.00,-5.00,-2.00,+4.00,+3.00,-1.00,+2.00,-23.00,+2.00,+0.00,+5.00,+5.00,-2.00,-3.00,-7.00
-11.00,+2.00,-10.00,-8.00,-8.00,-3.00,-2.00,-8.00,+1.00,+10.00,+5.00,+2.00,+4.00,+4.00,+2.00,+2.00
-7.00,-22.00,-2.00,-4.00,-7.00,-2.00,-1.00,+4.00,+14.00,+11.00,+5.00,+10.00,+1.00,+1.00,+0.00,-2.00
+10.00,+23.00,+2.00,-1.00,+2.00,-3.00,-2.00,+8.00,+1.00,-8.00,-3.00,+14.00,-24.00,-1.00,-3.00,-2.00
+3.00,-10.00,+1.00,+3.00,-6.00,-3.00,-1.00,+0.00,-44.00,-1.00,-6.00,-17.00,+45.00,-1.00,-2.00,+0.00
-13.00,-24.00,-2.00,-4.00,-7.00,-4.00,-4.00,-8.00,+41.00,+15.00,-3.00,+11.00,-5.00,-6.00,-6.00,-9.00
+1.00,+16.00,+8.00,+2.00,-2.00,+0.00,+2.00,-2.00,-36.00,-12.00,-13.00,-34.00,-47.00,-4.00,-3.00,-10.00
+3.00,+38.00,+9.00,+2.00,+6.00,+0.00,-3.00,-2.00,+4.00,-9.00,+6.00,+7.00,+18.00,-3.00,+1.00,+4.00
-52.00,-18.00,-16.00,-10.00,-10.00,+0.00,-1.00,+3.00,+10.00,-21.00,-6.00,+2.00,-28.00,+6.00,+5.00,+6.00
+13.00,+10.00,-1.00,+1.00,+2.00,-3.00,-1.00,-3.00,+23.00,+21.00,+3.00,-5.00,-3.00,-1.00,-4.00,-2.00
-1.00,+1.00,+0.00,+1.00,+1.00,-2.00,-6.00,-12.00,-72.00,+6.00,+0.00,+6.00,+13.00,+1.00,+2.00,+2.00
-9.00,-16.00,-1.00,-1.00,+0.00,+1.00,+2.00,+6.00,-51.00,-55.00,-4.00,-12.00,-17.00,+1.00,+0.00,-4.00
+17.00,+12.00,+8.00,+2.00,-5.00,+0.00,-1.00,+0.00,+49.00,+28.00,-4.00,+12.00,+21.00,+1.00,-4.00,-3.00
+28.00,+7.00,+2.00,+4.00,+4.00,+0.00,-1.00,-17.00,-40.00,+28.00,+15.00,+18.00,+43.00,+6.00,+0.00,-7.00
-49.00,-5.00,+2.00,-1.00,-1.00,-1.00,-5.00,-6.00,-24.00,+0.00,-6.00,-11.00,-62.00,-8.00,-1.00,+2.00
-1.00,-4.00,-6.00,-2.00,-19.00,-3.00,-2.00,-3.00,+74.00,+9.00,+2.00,+18.00,+36.00,+2.00,-2.00,+1.00
+7.00,+8.00,-1.00,+0.00,+23.00,+5.00,-4.00,-5.00,-70.00,-33.00,-5.00,-5.00,-4.00,-1.00,-1.00,-14.00
-6.00,-8.00,+3.00,+0.00,-1.00,-10.00,-1.00,-3.00,+10.00,-21.00,-12.00,+3.00,-1.00,-7.00,-2.00,+12.00
+13.00,-1.00,+2.00,+1.00,-2.00,+3.00,+2.00,+6.00,-2.00,+8.00,+1.00,-21.00,-1.00,+1.00,-1.00,-5.00
-8.00,+5.00,-10.00,-6.00,+11.00,-3.00,-4.00,+1.00,+0.00,+18.00,-1.00,-2.00,-48.00,-2.00,+3.00,-4.00
+14.00,+27.00,+0.00,-2.00,-9.00,+3.00,-2.00,-2.00,+67.00,+11.00,-6.00,-25.00,-55.00,-17.00,-16.00,-10.00
-17.00,-31.00,+14.00,+5.00,-7.00,-1.00,+5.00,+5.00,-86.00,-41.00,-17.00,-30.00,+23.00,+9.00,-4.00,-32.00
+17.00,-22.00,-9.00,+1.00,-7.00,-4.00,+4.00,+5.00,+6.00,-5.00,+3.00,+6.00,+18.00,+2.00,-4.00,-1.00
-8.00,+15.00,+9.00,+3.00,+25.00,+13.00,-5.00,+2.00,+23.00,-34.00,-14.00,-7.00,+17.00,-1.00,-6.00,+23.00
+1.00,-2.00,-11.00,-3.00,+0.00,+3.00,+0.00,-1.00,+67.00,+77.00,+11.00,+9.00,-3.00,+4.00,+4.00,-1.00
-15.00,+19.00,-4.00,-7.00,-25.00,-18.00,-12.00,-15.00,-68.00,-10.00,+1.00,+16.00,-7.00,+4.00,-6.00,-15.00
-14.00,-4.00,-11.00,-9.00,+45.00,+28.00,+8.00,+2.00,+59.00,+13.00,+15.00,+12.00,-2.00,-1.00,+12.00,+20.00
-25.00,-62.00,-19.00,-10.00,-11.00,-1.00,-3.00,-12.00,-6.00,-19.00,-3.00,-6.00,+10.00,+7.00,+14.00,-1.00
+14.00,-3.00,+11.00,+3.00,-4.00,-16.00,+1.00,+3.00,-39.00,-1.00,+7.00,+10.00,+16.00,-5.00,-17.00,-15.00
+21.00,+26.00,+8.00,+6.00,-4.00,+44.00,+11.00,+8.00,+12.00,-10.00,-5.00,-18.00,-34.00,-8.00,+4.00,+9.00
+8.00,+11.00,+3.00,+1.00,-46.00,-64.00,-4.00,-8.00,-23.00,-4.00,-6.00,+18.00,+36.00,+3.00,-5.00,-6.00
-2.00,+13.00,+3.00,+4.00,+25.00,+26.00,-16.00,-6.00,-29.00,-24.00,-6.00,-5.00,-14.00,-8.00,-13.00,+1.00
+7.00,-57.00,-11.00,-4.00,-30.00,+3.00,-1.00,-1.00,-3.00,+52.00,+17.00,+8.00,+65.00,+12.00,+17.00,+4.00
-28.00,-15.00,-11.00,-6.00,+19.00,-6.00,-4.00,+10.00,+16.00,+34.00,+15.00,+42.00,+12.00,+15.00,+25.00,+15.00
-11.00,+13.00,+5.00,+4.00,+20.00,+28.00,+11.00,-4.00,-2.00,-20.00,-14.00,-34.00,-28.00,-25.00,-33.00,-12.00
-4.00,-10.00,-3.00,-9.00,-45.00,-4.00,-6.00,+7.00,+35.00,+40.00,+13.00,+5.00,+6.00,+23.00,-6.00,+15.00
-4.00,+21.00,+2.00,+7.00,+48.00,-3.00,-4.00,-5.00,-15.00,-50.00,-17.00,-20.00,-29.00,-2.00,-7.00,-4.00
-27.00,-41.00,-15.00,-6.00,+7.00,+13.00,-3.00,-12.00,-12.00,-39.00,-10.00,+21.00,-24.00,+12.00,+8.00,-9.00
+34.00,+19.00,+17.00,+7.00,+1.00,-17.00,+2.00,+13.00,+18.00,+15.00,+3.00,+2.00,+50.00,-4.00,-6.00,-12.00
-16.00,-71.00,-8.00,-9.00,-22.00,-6.00,+5.00,-1.00,-88.00,-6.00,-4.00,+9.00,+63.00,+0.00,-9.00,-22.00
+32.00,+87.00,+8.00,-1.00,-27.00,-23.00,-2.00,+6.00,-4.00,-16.00,-5.00,-29.00,-16.00,-25.00,-22.00,+3.00
-23.00,-13.00,+1.00,-1.00,+19.00,-1.00,-4.00,-3.00,+79.00,+29.00,+2.00,-15.00,-31.00,-4.00,+10.00,+12.00
-7.00,-53.00,-10.00,-3.00,-6.00,-19.00,-6.00,-1.00,-28.00,-30.00,-10.00,+13.00,-31.00,+19.00,+21.00,-1.00
-26.00,-12.00,+1.00,-1.00,-25.00,+25.00,+6.00,-8.00,-44.00,-5.00,-4.00,+10.00,+47.00,-11.00,-12.00,+10.00
-42.00,-35.00,-15.00,-12.00,-3.00,-14.00,-4.00,-9.00,+45.00,-25.00,-8.00,-7.00,-5.00,-13.00,-4.00,-6.00
+6.00,+3.00,-8.00,-5.00,-22.00,-30.00,+8.00,-5.00,-35.00,-7.00,-16.00,-10.00,+12.00,+0.00,-2.00,+3.00
+1.00,+10.00,+5.00,+4.00,+75.00,+56.00,+2.00,+3.00,+9.00,+4.00,+9.00,+5.00,-1.00,-3.00,+0.00,-3.00
-1.00,-7.00,+2.00,+4.00,+8.00,+5.00,-19.00,-16.00,+74.00,+28.00,+8.00,+10.00,-1.00,+0.00,+2.00,-1.00
+6.00,-13.00,-6.00,+0.00,+31.00,-49.00,-29.00,+12.00,-46.00,-33.00,-12.00,+4.00,-61.00,+10.00,+13.00,-4.00
-30.00,-6.00,-4.00,+1.00,+2.00,+16.00,+48.00,+8.00,+7.00,-8.00,+2.00,-9.00,+24.00,-21.00,-16.00,-5.00
-21.00,+11.00,-1.00,-8.00,-22.00,-29.00,-3.00,-10.00,-86.00,-81.00,-19.00,-4.00,-6.00,+9.00,+5.00,-11.00
+7.00,-31.00,-25.00,-9.00,-10.00,+15.00,+13.00,+7.00,+70.00,+14.00,-1.00,-19.00,-7.00,+4.00,+18.00,+8.00
+36.00,+14.00,+24.00,+11.00,-5.00,-9.00,-17.00,+6.00,-22.00,-32.00,-1.00,+20.00,-18.00,-4.00,-3.00,-8.00
+7.00,-8.00,+8.00,+7.00,-14.00,-40.00,+5.00,+3.00,+27.00,-6.00,-8.00,+7.00,+39.00,-30.00,+11.00,+1.00
+26.00,+36.00,+7.00,+0.00,-26.00,-3.00,-43.00,-11.00,+1.00,-1.00,-5.00,-34.00,-25.00,+4.00,-17.00,+3.00
+33.00,+12.00,+3.00,+5.00,+15.00,+36.00,+61.00,+30.00,+43.00,+9.00,+1.00,-16.00,-34.00,-17.00,-22.00,-42.00
-32.00,-10.00,-7.00,-1.00,+44.00,+48.00,+9.00,-9.00,-87.00,+40.00,+8.00,+13.00,+20.00,+8.00,-35.00,-6.00
-1.00,-14.00,-1.00,-2.00,-10.00,+1.00,-13.00,-12.00,+96.00,+54.00,+10.00,-20.00,-8.00,-17.00,+18.00,+9.00
-3.00,-4.00,-10.00,-3.00,-23.00,+14.00,+9.00,-2.00,-38.00,-6.00,+2.00,+42.00,+115.00,+9.00,+40.00,+38.00
+49.00,+19.00,+22.00,+12.00,+32.00,+25.00,-27.00,-10.00,-34.00,-3.00,-8.00,-25.00,-68.00,-29.00,-33.00,+4.00
-7.00,-38.00,-5.00,-8.00,-49.00,-19.00,-18.00,+6.00,+11.00,+4.00,+12.00,+5.00,+34.00,+44.00,+38.00,+6.00
+0.00,+28.00,+0.00,-3.00,+8.00,+7.00,-94.00,-7.00,-62.00,-31.00,-18.00,-7.00,-21.00,-1.00,-10.00,-6.00
+9.00,+31.00,+2.00,+1.00,-21.00,+62.00,+80.00,+7.00,+53.00,+38.00,+4.00,+4.00,-18.00,+5.00,-22.00,-27.00
-1.00,+21.00,-1.00,+1.00,+33.00,-94.00,-10.00,+4.00,-45.00,+2.00,+10.00,-6.00,-37.00,-4.00,+35.00,-1.00
-31.00,-92.00,-11.00,-13.00,-108.00,+20.00,+45.00,+1.00,-47.00,-43.00,-23.00,-3.00,+1.00,-10.00,-7.00,-24.00
+25.00,+78.00,+8.00,+4.00,+69.00,-121.00,-101.00,-10.00,+25.00,-4.00,+12.00,+0.00,+14.00,+13.00,-17.00,+2.00
-17.00,-21.00,-8.00,-4.00,+17.00,+111.00,+57.00,+3.00,-16.00,-31.00,-5.00,-5.00,-44.00,-17.00,+12.00,+13.00
-37.00,+52.00,+13.00,+12.00,+44.00,-75.00,+11.00,+41.00,+0.00,+21.00,-1.00,-4.00,+10.00,+2.00,-13.00,+2.00
+1.00,+10.00,+10.00,+3.00,+33.00,+10.00,+33.00,-3.00,+58.00,+39.00,+8.00,+6.00,-40.00,+0.00,+17.00,+9.00
-20.00,-35.00,-18.00,-13.00,-47.00,-39.00,-42.00,-8.00,+43.00,-26.00,+9.00,+1.00,-14.00,+3.00,-6.00,+19.00
-28.00,+51.00,-8.00,-10.00,-41.00,-22.00,-17.00,+10.00,+11.00,+48.00,+6.00,-20.00,-22.00,-18.00,-20.00,-11.00
-1.00,-46.00,+2.00,+0.00,+5.00,-46.00,+72.00,-8.00,+4.00,+16.00,-2.00,+16.00,+11.00,+4.00,+14.00,+6.00
-15.00,-60.00,-13.00,-4.00,-5.00,-11.00,-4.00,-7.00,+14.00,-31.00,+2.00,-2.00,+17.00,-9.00,+10.00,+17.00
+24.00,+3.00,+7.00,+3.00,-15.00,+61.00,+53.00,+19.00,+1.00,+30.00,-17.00,-2.00,-9.00,-4.00,-15.00,-12.00
+29.00,+31.00,+12.00,+7.00,+20.00,+0.00,-15.00,+4.00,-75.00,-15.00,+13.00,+24.00,+20.00,+14.00,+8.00,+11.00
-25.00,-10.00,-15.00,-16.00,-39.00,-60.00,-47.00,-15.00,+33.00,+6.00,+11.00,+15.00,-3.00,+4.00,+25.00,-31.00
+18.00,+28.00,+1.00,+2.00,-13.00,+98.00,-3.00,+3.00,+9.00,-39.00,-12.00,-11.00,-60.00,-10.00,-40.00,-35.00
+16.00,+43.00,+5.00,-1.00,+38.00,+55.00,+61.00,+7.00,-2.00,+40.00,+4.00,-12.00,+11.00,-3.00,-1.00,+39.00
+17.00,-90.00,+0.00,+1.00,+3.00,-25.00,-72.00,-6.00,+57.00,+36.00,-6.00,-8.00,-22.00,-5.00,-15.00,+21.00
-1.00,+56.00,-5.00,-10.00,-29.00,+124.00,+37.00,-10.00,+25.00,-23.00,-4.00,-2.00,+29.00,+11.00,+55.00,+72.00
-28.00,-54.00,-15.00,-11.00,-36.00,-128.00,-90.00,-11.00,+0.00,+18.00,+15.00,+19.00,-12.00,-14.00,+2.00,+23.00
+23.00,+28.00,-2.00,-5.00,-2.00,-7.00,+94.00,-6.00,+61.00,+68.00,+25.00,+31.00,+26.00,+42.00,+50.00,+58.00
+9.00,-120.00,-5.00,+10.00,+62.00,+23.00,+44.00,+0.00,-6.00,+5.00,-1.00,-12.00,-50.00,-5.00,-25.00,-52.00
-7.00,+49.00,+11.00,+6.00,-9.00,-31.00,-29.00,+24.00,+10.00,+12.00,+2.00,-8.00,-53.00,-19.00,-50.00,-51.00
+37.00,+24.00,-1.00,-2.00,+11.00,+44.00,+20.00,-2.00,-10.00,-9.00,-14.00,-22.00,+26.00,-4.00,+11.00,+7.00
-16.00,+37.00,+22.00,+4.00,-58.00,+95.00,+2.00,+1.00,-128.00,-47.00,-9.00,-15.00,-19.00,-9.00,-27.00,-46.00
-18.00,-17.00,-9.00,-6.00,+17.00,+2.00,-39.00,-7.00,+121.00,+15.00,+14.00,+28.00,+27.00,+13.00,+50.00,+54.00
+6.00,-40.00,+6.00,+10.00,+4.00,-63.00,-59.00,-21.00,-72.00,-61.00,-22.00,+8.00,+83.00,+6.00,-30.00,-54.00
+2.00,+22.00,-8.00,-8.00,+27.00,+19.00,+9.00,+10.00,+53.00,+2.00,+11.00,+1.00,-9.00,+9.00,+6.00,+38.00
-18.00,-47.00,-10.00,-7.00,-39.00,+21.00,+64.00,-5.00,+42.00,+75.00,+25.00,+5.00,+11.00,-9.00,-6.00,+7.00
+24.00,+51.00,+15.00,+15.00,-3.00,-44.00,+10.00,+14.00,-33.00,-25.00,-12.00,+4.00,-4.00,-2.00,+5.00,+0.00
-7.00,-27.00,-16.00,-5.00,+46.00,+123.00,+0.00,-6.00,+31.00,+32.00,+5.00,+0.00,+6.00,+0.00,-1.00,+21.00
+26.00,+74.00,+15.00,+10.00,-32.00,-46.00,-16.00,+12.00,-22.00,-3.00,-5.00,+5.00,+35.00,-7.00,+5.00,-17.00
+0.00,-33.00,-3.00,+0.00,+11.00,+74.00,-52.00,-28.00,-22.00,-45.00,-14.00,-27.00,-25.00,+13.00,-10.00,-25.00
-29.00,+44.00,-10.00,-10.00,-3.00,-117.00,-19.00,-8.00,+8.00,-4.00,+0.00,-1.00,+14.00,+10.00,+5.00,+1.00
-8.00,-9.00,-7.00,-2.00,-32.00,+3.00,+18.00,-21.00,-44.00,-35.00,-12.00,-11.00,+30.00,-35.00,-22.00,-11.00
-16.00,-63.00,-5.00,-6.00,+10.00,-29.00,-32.00,-20.00,+29.00,+35.00,-3.00,+10.00,+15.00,+1.00,+11.00,+22.00
+25.00,+22.00,+9.00,+13.00,+27.00,-13.00,+23.00,+45.00,-5.00,-39.00,-6.00,+6.00,+33.00,+3.00,+3.00,-2.00
+8.00,+114.00,-6.00,-8.00,-37.00,-57.00,-25.00,-28.00,-49.00,-12.00,-6.00,-9.00,+6.00,+20.00,+14.00,-26.00
+16.00,-80.00,+15.00,+12.00,+27.00,+88.00,+8.00,-23.00,-7.00,+1.00,-4.00,-18.00,-42.00,-27.00,+2.00,-8.00
-7.00,+17.00,-21.00,-16.00,-6.00,+18.00,+1.00,+25.00,-3.00,+16.00,+9.00,+3.00,+6.00,+11.00,+8.00,+10.00
-1.00,+29.00,+14.00,+8.00,-16.00,+0.00,-2.00,-20.00,-26.00,-31.00,-15.00,-5.00,-10.00,-31.00,-41.00,-47.00
-9.00,-97.00,-18.00,-8.00,-44.00,-45.00,-12.00,+2.00,-24.00,-12.00,-8.00,-10.00,-24.00,-2.00,-4.00,-3.00
+29.00,+120.00,-8.00,-10.00,+67.00,+47.00,-52.00,+10.00,+20.00,+5.00,+4.00,+12.00,+13.00,+24.00,+27.00,+10.00
-37.00,+28.00,+12.00,-4.00,+6.00,-48.00,+0.00,-18.00,-7.00,+4.00,+6.00,-5.00,+23.00,+2.00,-8.00,+11.00
-23.00,-64.00,-17.00,-10.00,+7.00,+2.00,+62.00,+53.00,+7.00,-11.00,-7.00,-10.00,-24.00,-9.00,+5.00,+0.00
-7.00,+3.00,+7.00,+12.00,+2.00,+17.00,+38.00,+33.00,-6.00,-10.00,+2.00,+20.00,+26.00,-12.00,-17.00,-25.00
-17.00,-39.00,-2.00,+4.00,-35.00,+82.00,+26.00,+2.00,-59.00,-17.00,-1.00,-6.00,-26.00,+9.00,-2.00,+20.00
+54.00,+16.00,+4.00,-1.00,-55.00,-25.00,-9.00,+19.00,+51.00,-15.00,+3.00,+20.00,+14.00,-4.00,-3.00,-10.00
+1.00,+3.00,-10.00,-12.00,+62.00,+27.00,-22.00,+9.00,+4.00,+10.00,-1.00,-11.00,+17.00,+7.00,+13.00,+13.00
-13.00,-46.00,-5.00,-3.00,-20.00,-31.00,-1.00,+5.00,+12.00,-5.00,-5.00,-20.00,-33.00,-15.00,-9.00,+23.00
-18.00,-33.00,-7.00,+0.00,+1.00,-115.00,+5.00,-74.00,-7.00,-18.00,+0.00,+10.00,-24.00,+19.00,-6.00,-15.00
-43.00,+49.00,-14.00,-7.00,+4.00,+34.00,+25.00,+44.00,-44.00,+4.00,-9.00,-17.00,+9.00,-3.00,+9.00,-8.00
+32.00,-127.00,+3.00,+7.00,-51.00,-49.00,-26.00,-3.00,+1.00,-15.00,-8.00,+19.00,+26.00,-34.00,-4.00,-19.00
+24.00,+127.00,+27.00,+4.00,+8.00,+90.00,+4.00,+20.00,+40.00,+14.00,+8.00,+24.00,+7.00,-2.00,-6.00,+0.00
+22.00,+46.00,+0.00,-2.00,+22.00,+25.00,+2.00,+21.00,+16.00,+0.00,-1.00,-15.00,+72.00,+22.00,+1.00,+29.00
-49.00,+27.00,+16.00,+24.00,+22.00,-35.00,+8.00,-36.00,-53.00,-3.00,-4.00,-20.00,-31.00,-11.00,-13.00,-25.00
-26.00,-23.00,-6.00,-7.00,-9.00,-68.00,-40.00,-33.00,+22.00,-1.00,+8.00,-8.00,-27.00,+10.00,+2.00,+14.00
-4.00,-10.00,-3.00,-11.00,+1.00,+110.00,+4.00,-14.00,-35.00,+7.00,-2.00,-3.00,+24.00,-4.00,-4.00,-2.00
+11.00,-20.00,-8.00,-6.00,-54.00,+0.00,+4.00,+48.00,-59.00,-4.00,-11.00,+5.00,-34.00,-3.00,-8.00,-12.00
-4.00,-30.00,-5.00,+5.00,+47.00,-53.00,-8.00,-25.00,+39.00,-35.00,+0.00,+11.00,+9.00,+5.00,+8.00,+8.00
+0.00,+22.00,-1.00,-1.00,+4.00,-41.00,-46.00,+15.00,-91.00,+13.00,+1.00,-2.00,-2.00,+11.00,-2.00,-5.00
+13.00,-20.00,-1.00,-1.00,+7.00,+3.00,+7.00,-38.00,+99.00,+35.00,+3.00,-3.00,-6.00,-5.00,+3.00,+18.00
+14.00,+34.00,+6.00,-8.00,-28.00,+9.00,+31.00,+22.00,+12.00,-1.00,+9.00,+15.00,+8.00,+9.00,+6.00,+2.00
+14.00,-79.00,-1.00,+11.00,-9.00,+127.00,+12.00,-8.00,-17.00,+12.00,-5.00,-18.00,-18.00,-11.00,-7.00,+10.00
+0.00,+75.00,+4.00,+8.00,+29.00,-66.00,-28.00,-28.00,-13.00,+43.00,+2.00,+3.00,-16.00,+3.00,+4.00,-7.00
-24.00,-62.00,-8.00,-7.00,+6.00,-81.00,+20.00,-7.00,+69.00,-35.00,-1.00,+5.00,+12.00,+3.00,+6.00,+24.00
+43.00,+60.00,+6.00,-4.00,+15.00,-64.00,+0.00,+30.00,-40.00,+19.00,-2.00,+8.00,+2.00,-7.00,-3.00,-16.00
+23.00,+73.00,+3.00,-3.00,-17.00,+31.00,+20.00,+3.00,-48.00,+34.00,+7.00,+6.00,-5.00,+12.00,-3.00,-8.00
+2.00,+0.00,+4.00,+7.00,+17.00,+7.00,-23.00,-26.00,+42.00,-20.00,+6.00,-7.00,-28.00,-2.00,+3.00,+20.00
-14.00,-12.00,+2.00,+5.00,-22.00,+72.00,-26.00,-18.00,-50.00,+30.00,+0.00,+2.00,-90.00,+11.00,+5.00,+1.00
-8.00,-40.00,+2.00,+1.00,-17.00,-117.00,-3.00,+8.00,-42.00,-54.00,-3.00,-46.00,+35.00,-13.00,+13.00,-7.00
+1.00,-24.00,-3.00,+1.00,+27.00,+97.00,+23.00,-3.00,+52.00,-46.00,-8.00,-10.00,-7.00,+12.00,+26.00,+18.00
+0.00,+31.00,+0.00,-6.00,-46.00,+7.00,+8.00,+10.00,+2.00,+34.00,+8.00,+12.00,+11.00,+1.00,-65.00,-24.00
-8.00,+11.00,-8.00,-7.00,+16.00,-54.00,-14.00,+17.00,+10.00,+2.00,-8.00,-16.00,+15.00,-6.00,-9.00,-10.00
+18.00,-12.00,+12.00,+5.00,-36.00,-4.00,-3.00,-2.00,+79.00,+41.00,+15.00,+18.00,-22.00,+3.00,+7.00,+16.00
-22.00,-18.00,+1.00,+1.00,+1.00,+40.00,-7.00,-20.00,-30.00,-67.00,-14.00,+4.00,+3.00,+1.00,-6.00,-9.00
-12.00,+10.00,-1.00,+5.00,+31.00,-49.00,+1.00,+2.00,-95.00,+56.00,-12.00,-17.00,-9.00,-9.00,-1.00,-43.00
+3.00,-7.00,-5.00,-6.00,-38.00,-122.00,-27.00,+8.00,-2.00,-32.00,-7.00,+5.00,+20.00,-3.00,-1.00,-4.00
-31.00,-39.00,-16.00,-1.00,+48.00,+82.00,-19.00,-23.00,-113.00,-74.00,-12.00,-2.00,-21.00,-6.00,-18.00,-30.00
+9.00,+25.00,+9.00,-1.00,-33.00,-33.00,-15.00,+11.00,+99.00,+95.00,+13.00,+16.00,+28.00,+3.00,+4.00,-11.00
+4.00,-19.00,-7.00,-16.00,-35.00,+127.00,-40.00,-12.00,+82.00,+4.00,+3.00,-5.00,-11.00,-3.00,+8.00,+25.00
-23.00,-12.00,-2.00,+7.00,+44.00,-85.00,+0.00,-8.00,-70.00,-36.00,-23.00,-22.00,+27.00,-11.00,-11.00,-36.00
+11.00,-12.00,-4.00,+0.00,+5.00,+19.00,+35.00,+41.00,+15.00,-2.00,-4.00,-7.00,-11.00,-4.00,-2.00,+16.00
-4.00,+8.00,+13.00,+9.00,+40.00,-14.00,+0.00,+14.00,-12.00,+37.00,+9.00,-5.00,+0.00,+1.00,+4.00,-9.00
+14.00,+10.00,+8.00,+12.00,+3.00,+57.00,+25.00,+5.00,+17.00,-83.00,-10.00,+27.00,-38.00,+11.00,+0.00,+6.00
-15.00,-42.00,-14.00,-3.00,-20.00,+41.00,+1.00,-17.00,+84.00,+49.00,+3.00,-24.00,-7.00,-37.00,-9.00,+19.00
-3.00,+47.00,+6.00,-8.00,-33.00,-19.00,-50.00,-36.00,+19.00,+62.00,+12.00,-9.00,-77.00,+16.00,-9.00,-10.00
+32.00,+2.00,+2.00,-1.00,+0.00,-36.00,+5.00,+18.00,-42.00,-63.00,-25.00,-22.00,-19.00,-18.00,-26.00,-13.00
+11.00,-16.00,-2.00,+2.00,+9.00,-22.00,+17.00,+8.00,+53.00,+53.00,+10.00,+4.00,-13.00,+10.00,+29.00,+32.00
+15.00,+49.00,+19.00,+4.00,-27.00,-18.00,-21.00,-4.00,-87.00,-60.00,-7.00,-2.00,+22.00,+4.00,-4.00,-24.00
-28.00,+0.00,-20.00,+0.00,+17.00,-7.00,+8.00,+3.00,+106.00,+67.00,+5.00,+27.00,+1.00,-2.00,+4.00,+21.00
-15.00,-68.00,-10.00,-1.00,+11.00,+21.00,+3.00,-10.00,+7.00,-74.00,-1.00,-8.00,-15.00,+0.00,+2.00,+1.00
-8.00,+49.00,+7.00,-11.00,-8.00,+21.00,+14.00,-1.00,-16.00,-5.00,-8.00,-23.00,-45.00,+0.00,-4.00,-29.00
+33.00,+5.00,-3.00,-5.00,-10.00,-55.00,-16.00,+6.00,-67.00,+13.00,+8.00,+4.00,-3.00,+8.00,+3.00,-1.00
+19.00,-10.00,-4.00,+1.00,-53.00,-5.00,+3.00,-2.00,-5.00,+6.00,-6.00,-2.00,+24.00,+0.00,+7.00,+5.00
+3.00,+26.00,+13.00,+13.00,+79.00,-9.00,+3.00,-2.00,+18.00,+40.00,+1.00,+10.00,+9.00,+2.00,-11.00,-7.00
-24.00,-26.00,-24.00,-17.00,-85.00,+25.00,-4.00,-5.00,+79.00,-83.00,+0.00,+32.00,+53.00,+4.00,+8.00,+4.00
+4.00,-33.00,+13.00,+16.00,+100.00,-6.00,-48.00,+7.00,+55.00,+0.00,-3.00,-21.00,-16.00,+0.00,+4.00,-11.00
-17.00,+18.00,+2.00,-3.00,+12.00,+31.00,+17.00,-14.00,-38.00,-58.00,-19.00,-14.00,+24.00,-13.00,-25.00,-39.00
+9.00,-59.00,+0.00,+0.00,-32.00,+43.00,+3.00,-1.00,+21.00,+11.00,+2.00,-4.00,-52.00,-17.00,-2.00,+35.00
-11.00,+37.00,-4.00,-3.00,+8.00,-31.00,-3.00,-1.00,-24.00,-14.00,-12.00,-6.00,-77.00,+3.00,-7.00,-41.00
+33.00,+3.00,-6.00,-2.00,-12.00,+50.00,+43.00,-20.00,+113.00,+71.00,+9.00,+31.00,+119.00,+30.00,+7.00,+11.00
-17.00,-10.00,+11.00,+5.00,-30.00,-38.00,-18.00,+2.00,-86.00,-71.00,-16.00,-29.00,-60.00,+19.00,+61.00,-7.00
+4.00,-57.00,-14.00,-11.00,-6.00,-12.00,-5.00,-6.00,-57.00,-51.00,-7.00,-8.00,-49.00,-45.00,-81.00,-9.00
-31.00,+28.00,+8.00,-5.00,+10.00,-30.00,+1.00,-8.00,-4.00,+98.00,+31.00,+6.00,+57.00,-8.00,+1.00,+16.00
+23.00,+2.00,-6.00,+0.00,-28.00,+39.00,-3.00,+9.00,-23.00,-9.00,-11.00,+10.00,-4.00,-4.00,-21.00,-18.00
-1.00,-39.00,+11.00,+18.00,+19.00,-59.00,-23.00,+7.00,-16.00,-45.00,-20.00,-12.00,+4.00,+7.00,+17.00,-2.00
+16.00,+88.00,-4.00,-12.00,-68.00,+30.00,+36.00,+10.00,-89.00,-41.00,-8.00,+5.00,+38.00,+2.00,-27.00,-34.00
-1.00,+20.00,-12.00,-15.00,+46.00,-55.00,-54.00,-42.00,+10.00,+66.00,-8.00,-16.00,-14.00,-26.00,-42.00,-4.00
-37.00,-82.00,-18.00,+1.00,+20.00,+6.00,+27.00,+18.00,+6.00,+56.00,+9.00,+5.00,-7.00,+17.00,+83.00,+17.00
+33.00,+13.00,+32.00,+13.00,+23.00,+25.00,+22.00,+4.00,+48.00,-54.00,-20.00,+9.00,+30.00,-8.00,-1.00,+13.00
-9.00,-49.00,-14.00,-9.00,-25.00,-82.00,-49.00,-7.00,-45.00,+127.00,+35.00,+10.00,-3.00,+27.00,+39.00,-8.00
+1.00,-29.00,-2.00,-2.00,-30.00,-18.00,-17.00,+14.00,+22.00,-20.00,+7.00,+6.00,+36.00,-8.00,+0.00,+25.00
+9.00,+88.00,+11.00,+3.00,+23.00,-17.00,+4.00,-7.00,-22.00,-96.00,-5.00,+2.00,-5.00,+13.00,+18.00,+29.00
-12.00,+0.00,-18.00,-11.00,+2.00,-8.00,+30.00,-9.00,-53.00,+40.00,-15.00,+13.00,-17.00,-45.00,-57.00,-17.00
-7.00,+6.00,-8.00,+0.00,-1.00,-83.00,-13.00,-10.00,+2.00,+2.00,+13.00,-29.00,+2.00,+24.00,+19.00,-6.00
-1.00,+37.00,-15.00,-12.00,-17.00,-11.00,-19.00,-3.00,-26.00,-15.00,+14.00,+12.00,-52.00,+21.00,+25.00,+36.00
+3.00,-121.00,-1.00,+4.00,-15.00,+52.00,-8.00,+15.00,-5.00,+50.00,+12.00,+40.00,+73.00,+7.00,+8.00,-9.00
+1.00,+127.00,+10.00,+1.00,+7.00,-28.00,-26.00,-3.00,+72.00,+63.00,+27.00,-50.00,-41.00,+11.00,-80.00,+21.00
+5.00,-30.00,+6.00,-2.00,+32.00,+15.00,+14.00,+5.00,+8.00,-46.00,-11.00,+58.00,+70.00,-63.00,+49.00,+5.00
+16.00,+52.00,-12.00,+1.00,+35.00,+30.00,+19.00,+5.00,-117.00,-36.00,-13.00,+56.00,+111.00,+92.00,+6.00,-37.00
-12.00,+40.00,+11.00,+3.00,-15.00,+26.00,+11.00,-3.00,-17.00,+22.00,+4.00,-101.00,-128.00,-1.00,+26.00,-1.00
-12.00,-91.00,-10.00,-6.00,-28.00,-12.00,-10.00,-12.00,+99.00,+18.00,+11.00,+0.00,-25.00,-44.00,-29.00,+38.00
-4.00,+57.00,+8.00,-1.00,-27.00,+33.00,-10.00,-1.00,+92.00,-54.00,-34.00,-35.00,+49.00,+17.00,-11.00,-18.00
+22.00,-128.00,+0.00,+17.00,+55.00,-21.00,+35.00,+24.00,-49.00,-39.00,-1.00,+8.00,+21.00,-19.00,+0.00,-30.00
-8.00,+46.00,-10.00,-14.00,-37.00,-7.00,-18.00,-6.00,-77.00,-44.00,-14.00,+49.00,+38.00,-18.00,-23.00,-22.00
+1.00,+11.00,+0.00,-7.00,-16.00,+5.00,-1.00,+6.00,+98.00,-30.00,+7.00,+13.00,+15.00,+21.00,+17.00,-8.00
-19.00,-53.00,-21.00,+2.00,+12.00,+53.00,-3.00,-3.00,-35.00,+5.00,+4.00,+12.00,-35.00,+10.00,+4.00,+27.00
+17.00,+123.00,+35.00,+14.00,-47.00,-54.00,-7.00,+8.00,+16.00,-107.00,-14.00,+4.00,+6.00,-24.00,+6.00,-18.00
-11.00,-49.00,-20.00,-9.00,+13.00,-69.00,-59.00,-44.00,+4.00,+23.00,-14.00,-26.00,-51.00,-13.00,-56.00,-2.00
+3.00,+13.00,-4.00,+3.00,+39.00,+41.00,+94.00,+43.00,-9.00,+19.00,+8.00,+8.00,+9.00,+2.00,+32.00,-16.00
+22.00,+125.00,+18.00,+7.00,+34.00,+6.00,+7.00,+5.00,-75.00,-41.00,-4.00,+2.00,-8.00,+4.00,+10.00,-8.00
-16.00,-59.00,-18.00,-8.00,-44.00,+26.00,+1.00,-2.00,+121.00,+51.00,+27.00,-13.00,-1.00,-10.00,-2.00,+23.00
-28.00,-15.00,-7.00,-1.00,+34.00,+20.00,+4.00,+4.00,-54.00,-109.00,-23.00,-16.00,-11.00,-8.00,-12.00,-16.00
-8.00,+55.00,-25.00,-16.00,-28.00,-5.00,-20.00,-20.00,-93.00,-83.00,-3.00,+26.00,+32.00,+5.00,+12.00,+2.00
-11.00,-103.00,+11.00,+7.00,+7.00,-20.00,-16.00,-10.00,+89.00,+126.00,+11.00,+10.00,+21.00,+2.00,-3.00,+27.00
-22.00,-54.00,-5.00,+3.00,+5.00,+13.00,+28.00,-5.00,-93.00,+39.00,-4.00,+54.00,+13.00,+38.00,+35.00,-7.00
-22.00,-48.00,-2.00,-9.00,-38.00,+11.00,-18.00,-12.00,+62.00,-61.00,+1.00,-57.00,-102.00,-57.00,-92.00,+8.00
+18.00,+19.00,+22.00,+11.00,+9.00,+2.00,-21.00,+1.00,-7.00,+91.00,+8.00,+36.00,-5.00,-10.00,+26.00,+8.00
+16.00,+60.00,+6.00,-2.00,-5.00,-3.00,+23.00,-2.00,-19.00,-103.00,-12.00,-61.00,-65.00,-11.00,-27.00,-12.00
+4.00,+30.00,-15.00,-12.00,-18.00,-22.00,-32.00,+21.00,+93.00,+41.00,+4.00,-13.00,+1.00,-10.00,+24.00,+11.00
-24.00,-68.00,+10.00,+0.00,-79.00,-17.00,+36.00,-17.00,+39.00,+7.00,+18.00,+26.00,-23.00,+3.00,+12.00,-1.00
+9.00,-70.00,-19.00,+3.00,+63.00,+41.00,-13.00,-3.00,+1.00,+67.00,-7.00,-52.00,-35.00,+9.00,-26.00,+0.00
+10.00,+95.00,+28.00,+4.00,-37.00,+38.00,-11.00,-7.00,-71.00,-26.00,-5.00,+20.00,+16.00,+10.00,+53.00,+34.00
-21.00,-1.00,+13.00,+6.00,-10.00,-21.00,-50.00,+0.00,+44.00,+67.00,+20.00,+5.00,-41.00,-7.00,-3.00,+36.00
-7.00,+127.00,-17.00,-6.00,+97.00,+57.00,-6.00,-7.00,-63.00,+23.00,-2.00,+26.00,+88.00,+24.00,+26.00,-5.00
-57.00,-114.00,-22.00,-11.00,-92.00,-100.00,-60.00,-4.00,-20.00,-74.00,-6.00,-10.00,+10.00,-13.00,-23.00,-21.00
-4.00,-84.00,-16.00,-26.00,-61.00,-55.00,+26.00,-2.00,+26.00,+19.00,-24.00,+0.00,-22.00,+5.00,-3.00,-24.00
-30.00,+84.00,+7.00,+32.00,+112.00,+80.00,+12.00,+14.00,+29.00,+23.00,-14.00,-31.00,-3.00,-18.00,-15.00,-14.00
+1.00,+62.00,+41.00,+23.00,-39.00,+6.00,+114.00,+21.00,-60.00,-58.00,+14.00,+24.00,+16.00,+6.00,-4.00,-2.00
+9.00,+22.00,+6.00,+5.00,-51.00,-7.00,-44.00,-14.00,+12.00,+64.00,-4.00,+6.00,+0.00,-2.00,+12.00,-12.00
+12.00,+116.00,-31.00,-15.00,-48.00,-49.00,-27.00,-4.00,+10.00,+54.00,+12.00,+15.00,+30.00,+8.00,-13.00,-16.00
-32.00,-128.00,-11.00,-18.00,-90.00,-36.00,-13.00,-31.00,-12.00,-57.00,-17.00,-27.00,-18.00,-11.00,-3.00,-27.00
+21.00,+101.00,+12.00,-10.00,-28.00,-11.00,-26.00,+21.00,+102.00,+45.00,+4.00,+110.00,+113.00,+39.00,-2.00,-45.00
-5.00,-86.00,-4.00,+2.00,-3.00,+14.00,+26.00,-6.00,+7.00,-63.00,-21.00,-87.00,-83.00,-44.00,-22.00,+25.00
+27.00,+65.00,-15.00,-13.00,-10.00,-26.00,-9.00,-5.00,-13.00,-58.00,-10.00,+12.00,-30.00,-14.00,-11.00,+0.00
-15.00,+18.00,+5.00,-7.00,+15.00,+22.00,+38.00,+10.00,-68.00,-13.00,-15.00,-21.00,+39.00,-31.00,-6.00,+12.00
+52.00,-18.00,+14.00,+17.00,+22.00,+30.00,+0.00,+24.00,-112.00,-71.00,+4.00,-8.00,+41.00,-1.00,+2.00,+6.00
+8.00,+111.00,-2.00,-15.00,-10.00,-9.00,-63.00,-23.00,+56.00,+98.00,+27.00,+63.00,+73.00,+34.00,+6.00,-13.00
+4.00,+59.00,+16.00,+22.00,+46.00,+21.00,+17.00,+10.00,+21.00,-36.00,-11.00,-10.00,-1.00,+28.00,+2.00,-13.00
+41.00,-14.00,+6.00,+8.00,+17.00,+1.00,+6.00,+6.00,+19.00,-10.00,+14.00,-22.00,-15.00,-11.00,-7.00,-9.00
-33.00,-52.00,-35.00,-15.00,-21.00,-9.00,+6.00,-10.00,+42.00,+22.00,+9.00,+7.00,+1.00,+24.00,+21.00,+33.00
-21.00,-69.00,-20.00,-11.00,-17.00,-2.00,+2.00,-5.00,-63.00,-19.00,-11.00,+14.00,+11.00,+15.00,+24.00,+1.00
-5.00,-82.00,+15.00,-17.00,-92.00,-114.00,-78.00,-14.00,-12.00,+88.00,+32.00,-13.00,-16.00,-19.00,-12.00,+7.00
+48.00,+102.00,+25.00,+39.00,+93.00,+91.00,+88.00,+24.00,-13.00,-51.00,-12.00,+19.00,+4.00,+19.00,+14.00,+2.00
-32.00,+24.00,-26.00,-14.00,-3.00,+32.00,+5.00,-15.00,+62.00,+20.00,+16.00,-10.00,-27.00,-12.00,+11.00,+37.00
+15.00,-22.00,+30.00,+24.00,+80.00,+83.00,+28.00,+24.00,-57.00,-19.00,+4.00,-14.00,-24.00,-8.00,-8.00,-20.00
-15.00,-33.00,-8.00,+3.00,-77.00,+16.00,+38.00,+9.00,+65.00,+57.00,-6.00,+2.00,-28.00,+2.00,-13.00,-1.00
-8.00,-128.00,-33.00,-20.00,-36.00,-24.00,-31.00,-41.00,-17.00,+0.00,-4.00,+96.00,+94.00,+28.00,-4.00,-40.00
+22.00,+2.00,-16.00,-16.00,+66.00,-77.00,-25.00,+15.00,-57.00,+17.00,-11.00,-110.00,-102.00,-71.00,+6.00,+35.00
-70.00,-6.00,-24.00,-15.00,-28.00,-38.00,-29.00,-41.00,+49.00,-16.00,-30.00,-12.00,+61.00,+8.00,+5.00,+0.00
+13.00,+64.00,+47.00,+23.00,+9.00,-15.00,+21.00,+26.00,-67.00,+13.00,+32.00,-19.00,-3.00,-14.00,-3.00,-37.00
+53.00,-56.00,+11.00,-4.00,-51.00,-28.00,-9.00,-6.00,+36.00,-60.00,-16.00,-46.00,+48.00,-24.00,-21.00,+11.00
-25.00,+70.00,-14.00,-10.00,-33.00,+15.00,-15.00,+3.00,+16.00,-71.00,-15.00,+44.00,+44.00,+54.00,+21.00,-10.00
-6.00,-80.00,-16.00,+8.00,+1.00,-16.00,+19.00,-1.00,-9.00,-9.00,-8.00,-1.00,-94.00,-27.00,-5.00,+6.00
+63.00,+1.00,+32.00,+14.00,+38.00,+34.00,+0.00,+3.00,+39.00,+52.00,+25.00,+14.00,+75.00,+33.00,-11.00,+52.00
+53.00,-28.00,+13.00,+5.00,-11.00,-2.00,+19.00,+21.00,+122.00,+125.00,+20.00,-17.00,-95.00,+13.00,+5.00,+57.00
-15.00,-59.00,-12.00,-6.00,-18.00,+5.00,-15.00,-7.00,-90.00,+32.00,+16.00,+15.00,-2.00,-11.00,-14.00,-30.00
-16.00,-85.00,-23.00,+2.00,-23.00,-35.00,-15.00,-14.00,+84.00,-91.00,-22.00,+9.00,+22.00,+26.00,+34.00,+28.00
-76.00,-50.00,+20.00,+2.00,+30.00,+29.00,+20.00,-1.00,-34.00,-63.00,-6.00,+21.00,-21.00,-5.00,-6.00,-14.00
+56.00,+127.00,-3.00,-38.00,-107.00,-119.00,-64.00,+3.00,-128.00,-105.00,+0.00,-17.00,-10.00,-12.00,-7.00,+12.00
+62.00,-27.00,+36.00,+54.00,+81.00,+102.00,-1.00,+10.00,-12.00,-2.00,-8.00,-20.00,-15.00,+8.00,+19.00,-4.00
-16.00,-22.00,-4.00,+5.00,-67.00,+3.00,+23.00,-9.00,+18.00,+51.00,+44.00,+41.00,+40.00,+13.00,+12.00,-3.00
-2.00,-10.00,-17.00,+5.00,-35.00,+0.00,+34.00,-9.00,-26.00,-73.00,-9.00,+98.00,+97.00,-1.00,-45.00,-23.00
-85.00,+127.00,-19.00,-21.00,-58.00,-38.00,+50.00,-31.00,+92.00,+20.00,-17.00,-19.00,-101.00,-2.00,+53.00,+17.00
-49.00,+22.00,+24.00,-1.00,-104.00,-54.00,-13.00,+17.00,-45.00,+18.00,-10.00,-71.00,+112.00,+31.00,+40.00,+9.00
+13.00,+53.00,+17.00,+3.00,+35.00,+0.00,+7.00,+19.00,+55.00,-3.00,-11.00,-27.00,-48.00,-52.00,-88.00,-42.00
-15.00,+71.00,+20.00,+26.00,+78.00,+34.00,-15.00,-11.00,-64.00,-105.00,+8.00,+0.00,+31.00,+31.00,-2.00,+17.00
-42.00,+14.00,-32.00,-14.00,-19.00,+2.00,+5.00,-21.00,-28.00,+62.00,+1.00,+64.00,+74.00,+53.00,+6.00,-60.00
+18.00,-19.00,-10.00,-16.00,-34.00,-11.00,+0.00,+14.00,-11.00,+5.00,+2.00,-42.00,+23.00,-38.00,-5.00,+15.00
-20.00,+35.00,+6.00,-6.00,+23.00,+19.00,+20.00,-13.00,+42.00,+92.00,+8.00,-46.00,-62.00,-29.00,+0.00,+8.00
-18.00,-128.00,-31.00,-14.00,-7.00,-23.00,-42.00,-3.00,-77.00,-29.00,-7.00,+10.00,+12.00,+1.00,+39.00,-30.00
+10.00,-58.00,+15.00,+20.00,+11.00,+12.00,+16.00,+21.00,-64.00,-17.00,+88.00,+28.00,-1.00,-21.00,-18.00,+48.00
+5.00,-31.00,+3.00,+8.00,+41.00,+24.00,+6.00,-12.00,+81.00,-53.00,-24.00,+36.00,-19.00,+5.00,-27.00,-11.00
+104.00,+100.00,+17.00,-8.00,+2.00,-19.00,-16.00,+20.00,+39.00,+71.00,-26.00,+22.00,+72.00,+26.00,+35.00,+28.00
-67.00,-5.00,-28.00,-55.00,-102.00,-109.00,-21.00,-41.00,-42.00,-11.00,-12.00,-39.00,-53.00,-25.00,-7.00,-30.00
+39.00,+27.00,-15.00,+21.00,+120.00,+114.00,-44.00,+22.00,-16.00,-23.00,-54.00,-24.00,-5.00,+3.00,-6.00,+7.00
-52.00,-104.00,-12.00,+9.00,-5.00,+26.00,+12.00,+8.00,+80.00,-72.00,-37.00,-18.00,-40.00,-28.00,-22.00,-5.00
+20.00,+102.00,+40.00,+16.00,+94.00,+82.00,+34.00,+17.00,+5.00,-82.00,+36.00,+28.00,+26.00,+30.00,+25.00,-1.00
-41.00,+4.00,-2.00,+1.00,+26.00,+29.00,-9.00,-17.00,+14.00,+61.00,-1.00,+5.00,-6.00,+0.00,+46.00,+21.00
-4.00,+47.00,+35.00,+18.00,-26.00,-25.00,-1.00,+14.00,-121.00,-128.00,-44.00,+39.00,-25.00,+5.00,-62.00,-41.00
-32.00,-77.00,-44.00,-44.00,-27.00,-23.00,-5.00,-36.00,+23.00,+103.00,+16.00,-15.00,+91.00,-15.00,+17.00,+15.00
+19.00,+9.00,+8.00,+18.00,+23.00,-6.00,+47.00,+53.00,-91.00,-121.00,-15.00,-41.00,-43.00,-28.00,+40.00,-5.00
+98.00,+89.00,+62.00,+37.00,+51.00,+28.00,+51.00,+49.00,+67.00,+127.00,-10.00,-13.00,-83.00,+9.00,+81.00,-4.00
-79.00,-75.00,-21.00,+2.00,-24.00,-33.00,+4.00,+12.00,-81.00,-56.00,+7.00,-114.00,-40.00,-79.00,-32.00,-16.00
+42.00,+77.00,+17.00,+1.00,-17.00,+6.00,-21.00,+0.00,+41.00,-90.00,-7.00,-12.00,-128.00,+48.00,-37.00,-5.00
-38.00,-32.00,-52.00,-46.00,-99.00,-68.00,-37.00,-48.00,-3.00,+69.00,+48.00,+36.00,+115.00,+16.00,-16.00,-34.00
+30.00,+97.00,-18.00,-1.00,+40.00,+27.00,+5.00,+16.00,-4.00,-56.00,+48.00,+46.00,+59.00,-20.00,+3.00,+47.00
+80.00,+22.00,+34.00,+3.00,+4.00,+12.00,-19.00,-3.00,-29.00,+41.00,-51.00,-10.00,+34.00,-6.00,+5.00,-37.00
+72.00,-22.00,-4.00,-10.00,-27.00,-29.00,+14.00,-2.00,-80.00,+13.00,-79.00,+40.00,-7.00,-1.00,-4.00,+1.00
-24.00,+58.00,-13.00,-15.00,-98.00,-63.00,-4.00,-9.00,-65.00,-125.00,-11.00,-5.00,+5.00,-10.00,-7.00,-36.00
-16.00,-107.00,-3.00,-19.00,-39.00,+38.00,-21.00,-2.00,+60.00,-50.00,-24.00,+17.00,+12.00,+17.00,-3.00,+64.00
-23.00,+3.00,+5.00,+46.00,+92.00,+106.00,+5.00,+19.00,-31.00,-10.00,+2.00,-5.00,+4.00,+5.00,-8.00,-23.00
-34.00,+33.00,-17.00,-1.00,-66.00,-33.00,+61.00,+16.00,+46.00,+107.00,+30.00,+8.00,-21.00,-24.00,-16.00,-10.00
+49.00,+118.00,+21.00,+9.00,-83.00,-36.00,+2.00,-12.00,-111.00,+24.00,+7.00,+62.00,+16.00,+36.00,+29.00,-47.00
+28.00,-74.00,-27.00,-19.00,-63.00,+42.00,-6.00,-8.00,-90.00,-47.00,+2.00,+11.00,-43.00,-22.00,-97.00,-33.00
-15.00,-17.00,-8.00,-7.00,+2.00,-29.00,-17.00,-19.00,+84.00,+26.00,+3.00,-64.00,-77.00,-45.00,+14.00,+17.00
-36.00,+22.00,+18.00,+26.00,+52.00,+117.00,-2.00,-43.00,-62.00,-26.00,+7.00,-62.00,-102.00,-90.00,-71.00,-38.00
+11.00,+12.00,-11.00,+7.00,-68.00,-17.00,-31.00,+24.00,-81.00,-66.00,-28.00,+26.00,+28.00,+43.00,+7.00,+50.00
+17.00,+10.00,+0.00,+15.00,-24.00,-36.00,+20.00,-22.00,+127.00,+68.00,-7.00,-75.00,+11.00,+15.00,+29.00,-5.00
+19.00,-26.00,-40.00,-41.00,-87.00,-53.00,-24.00,+3.00,+16.00,+7.00,-9.00,+34.00,+106.00,+14.00,-5.00,+0.00
-29.00,-23.00,-52.00,-28.00,-41.00,-33.00,-49.00,-1.00,-35.00,-21.00,+4.00,-31.00,-83.00,-26.00,-50.00,-72.00
-52.00,-69.00,+34.00,+15.00,+42.00,+18.00,+0.00,-27.00,-80.00,+29.00,+20.00,+31.00,+26.00,-8.00,-26.00,+41.00
+22.00,+26.00,+12.00,+3.00,+13.00,-16.00,-33.00,-1.00,+40.00,-85.00,-62.00,-21.00,+1.00,-15.00,-6.00,-20.00
-4.00,+72.00,-18.00,-32.00,+0.00,-1.00,+13.00,-28.00,+60.00,+67.00,+36.00,+30.00,+10.00,+32.00,+5.00,+4.00
+25.00,+33.00,+33.00,+7.00,+3.00,-11.00,-1.00,+19.00,+19.00,-7.00,-39.00,+18.00,+58.00,+8.00,+26.00,-19.00
+8.00,-22.00,-18.00,+4.00,+5.00,-18.00,-70.00,+5.00,+49.00,-96.00,-69.00,-22.00,-15.00,+4.00,+10.00,+36.00
-7.00,+68.00,+0.00,-18.00,-79.00,-98.00,+50.00,-5.00,-65.00,-75.00,-7.00,-3.00,-7.00,+13.00,+0.00,-8.00
-23.00,+41.00,+22.00,+22.00,+62.00,+53.00,-74.00,+10.00,+18.00,+29.00,-20.00,-10.00,-9.00,-11.00,-1.00,+10.00
-21.00,-6.00,-15.00,+9.00,+26.00,+78.00,+11.00,-11.00,+6.00,+40.00,+60.00,+96.00,+89.00,+37.00,+21.00,+48.00
-27.00,-63.00,-19.00,-37.00,-66.00,-46.00,-86.00,-26.00,+27.00,+42.00,+26.00,+4.00,-39.00,+18.00,+34.00,+12.00
-9.00,+83.00,+62.00,+69.00,+117.00,+102.00,-13.00,+15.00,-23.00,+37.00,-11.00,-86.00,-50.00,-88.00,-118.00,-30.00
-52.00,-128.00,-22.00,-2.00,-35.00,-8.00,+82.00,+11.00,+45.00,-64.00,-8.00,+13.00,-14.00,-34.00,-34.00,+5.00
+46.00,+45.00,+38.00,+19.00,-49.00,+12.00,+68.00,+41.00,-81.00,+29.00,+26.00,+29.00,+11.00,+39.00,+18.00,-2.00
-21.00,-55.00,-80.00,-34.00,-38.00,-21.00,-7.00,+10.00,+77.00,+38.00,+9.00,+4.00,+27.00,+26.00,+7.00,-7.00
-33.00,-21.00,-62.00,-42.00,-96.00,-44.00,-20.00,-19.00,-4.00,+77.00,+21.00,+11.00,+14.00,+6.00,+31.00,+27.00
+3.00,+32.00,+34.00,-22.00,-48.00,-53.00,+14.00,-7.00,-57.00,-82.00,-12.00,-34.00,-26.00,-25.00,-6.00,-26.00
+45.00,+32.00,+67.00,+22.00,+12.00,-39.00,-24.00,-11.00,+104.00,+41.00,-3.00,+22.00,+8.00,+14.00,-8.00,+5.00
-19.00,-41.00,+79.00,+18.00,+16.00,+48.00,+56.00,+16.00,-53.00,-30.00,+11.00,-32.00,-53.00,-39.00,-19.00,-53.00
+22.00,-27.00,-18.00,-1.00,+29.00,-8.00,+30.00,-8.00,+63.00,+11.00,-15.00,+24.00,+8.00,+31.00,+19.00,+24.00
+24.00,+92.00,+55.00,+16.00,+18.00,+5.00,+6.00,+10.00,-63.00,+1.00,-14.00,-19.00,-12.00,-3.00,-6.00,-7.00
-25.00,-111.00,-53.00,-14.00,-110.00,-81.00,-29.00,+4.00,-35.00,+25.00,+41.00,+12.00,+8.00,-3.00,+5.00,-4.00
+73.00,+127.00,-17.00,-33.00,-81.00,-38.00,+4.00,+6.00,-9.00,+90.00,+40.00,+33.00,+56.00,+12.00,+20.00,+28.00
-29.00,-86.00,-3.00,+36.00,+85.00,+86.00,-14.00,-27.00,-84.00,-26.00,+20.00,+93.00,+88.00,+29.00,+28.00,-10.00
-21.00,-78.00,-10.00,+6.00,-15.00,+119.00,+46.00,-10.00,+126.00,-61.00,-26.00,-74.00,-58.00,-11.00,+23.00,+29.00
-64.00,-25.00,-25.00,-28.00,-110.00,-107.00,+41.00,-33.00,-81.00,+29.00,+9.00,+42.00,+0.00,-35.00,+3.00,-32.00
+62.00,+54.00,+53.00,+42.00,+121.00,+32.00,+5.00,+19.00,+15.00,-57.00,-8.00,-117.00,-48.00,-21.00,-73.00,-9.00
+10.00,-16.00,-15.00,-18.00,-56.00,+73.00,-46.00,+45.00,+45.00,+46.00,+11.00,+5.00,-16.00,+13.00,+54.00,+16.00
-12.00,+65.00,+0.00,-1.00,+43.00,-38.00,-33.00,-18.00,+4.00,-2.00,+20.00,+40.00,+25.00,-9.00,-13.00,-23.00
+70.00,+36.00,+3.00,-2.00,-28.00,-22.00,-34.00,-2.00,-74.00,-42.00,-11.00,+10.00,-12.00,+0.00,+30.00,-1.00
-19.00,-3.00,+39.00,+2.00,+0.00,+9.00,+25.00,+22.00,+109.00,+105.00,+3.00,-5.00,+10.00,-11.00,+1.00,-19.00
-47.00,-46.00,-81.00,-13.00,-19.00,-41.00,+2.00,-10.00,-22.00,-54.00,-8.00,-19.00,-26.00,+11.00,-4.00,-18.00
-13.00,+9.00,-15.00,-34.00,-52.00,-43.00,-52.00,-39.00,-39.00,+15.00,+21.00,+18.00,+24.00,+28.00,-2.00,+9.00
-3.00,+95.00,+87.00,+25.00,+42.00,+38.00,+14.00,+83.00,+24.00,-19.00,-52.00,-47.00,-5.00,-15.00,-13.00,-18.00
+3.00,-59.00,-7.00,+9.00,+28.00,+4.00,-10.00,-18.00,-73.00,-79.00,-7.00,+43.00,+12.00,-4.00,+3.00,+36.00
-37.00,+22.00,+13.00,-8.00,-4.00,-7.00,-21.00,-24.00,+127.00,+33.00,-29.00,-31.00,+2.00,+6.00,+1.00,+25.00
-14.00,+9.00,-51.00,-15.00,-94.00,-93.00,-21.00,-24.00,+65.00,+73.00,+65.00,+33.00,+12.00,+13.00,+18.00,+12.00
+6.00,-86.00,-11.00,-32.00,-63.00,-72.00,-23.00,-13.00,-12.00,-87.00,-75.00,-25.00,+6.00,+6.00,-14.00,-16.00
-11.00,+62.00,+6.00,+58.00,+77.00,+99.00,+80.00,-20.00,+49.00,+57.00,+35.00,+39.00,+8.00,+13.00,+18.00,+35.00
-28.00,+20.00,-9.00,+2.00,-91.00,-128.00,+3.00,+27.00,-29.00,+9.00,+9.00,+48.00,+23.00,+19.00,-2.00,-34.00
-28.00,-125.00,-28.00,-9.00,-108.00,-17.00,-10.00,-21.00,-36.00,+9.00,-17.00,-58.00,-98.00,-46.00,+8.00,+1.00
+23.00,+94.00,-2.00,-4.00,+64.00,-94.00,-14.00,-6.00,-6.00,+46.00,+20.00,-4.00,-1.00,+27.00,+15.00,+5.00
-38.00,-63.00,-14.00,-12.00,-42.00,+23.00,-60.00,-24.00,+17.00,-25.00,-22.00,-79.00,-66.00,-68.00,-68.00,-11.00
-2.00,-32.00,-13.00,-19.00,+30.00,+8.00,+13.00,-16.00,-53.00,+18.00,+10.00,+13.00,+30.00,+37.00,-11.00,-14.00
-33.00,+27.00,-4.00,+1.00,-27.00,-15.00,+20.00,-7.00,+78.00,+22.00,+19.00,+51.00,+85.00,+36.00,-17.00,+12.00
-33.00,+87.00,+50.00,+32.00,+55.00,+65.00,-29.00,+10.00,+48.00,-19.00,+14.00,+24.00,+2.00,+17.00,+22.00,+12.00
-4.00,+4.00,+5.00,-5.00,-21.00,-1.00,+36.00,+40.00,+6.00,+29.00,-45.00,-18.00,-74.00,-34.00,+3.00,-34.00
-88.00,-63.00,-24.00,-2.00,+37.00,+16.00,-9.00,+9.00,-91.00,-3.00,+28.00,+2.00,+4.00,+2.00,+1.00,+22.00
+98.00,-39.00,+10.00,-6.00,-7.00,-9.00,+8.00,+45.00,+19.00,+10.00,-25.00,-11.00,-6.00,-4.00,-10.00,-31.00
-7.00,-50.00,-10.00,-2.00,-30.00,+15.00,-9.00,-69.00,+1.00,+38.00,+18.00,-10.00,-10.00,-19.00,-21.00,+33.00
+8.00,+57.00,-7.00,-35.00,-108.00,-112.00,-22.00,+3.00,-14.00,+7.00,+22.00,+59.00,+51.00,+26.00,+13.00,+27.00
+29.00,+43.00,+35.00,+26.00,+61.00,+80.00,+6.00,+8.00,+6.00,+91.00,+8.00,-28.00,+12.00,-18.00,+9.00,-19.00
-28.00,-83.00,-7.00,+8.00,-17.00,-24.00,-50.00,-35.00,-93.00,+33.00,+13.00,+34.00,+86.00,+40.00,+5.00,+1.00
-8.00,-30.00,-25.00,+17.00,+94.00,+127.00,+67.00,+41.00,+9.00,+7.00,+27.00,-70.00,-80.00,-23.00,+10.00,-12.00
-32.00,+1.00,-13.00,-10.00,-45.00,-30.00,+69.00,-39.00,-41.00,+5.00,+5.00,+7.00,+12.00,-8.00,+2.00,-11.00
+23.00,-12.00,+18.00,+6.00,-77.00,-84.00,-31.00,+15.00,+14.00,-72.00,+2.00,+20.00,+29.00,-6.00,+11.00,+9.00
-42.00,-46.00,-27.00,-13.00,-95.00,-72.00,-31.00,-15.00,-49.00,-46.00,-25.00,-8.00,+12.00,-89.00,-30.00,-7.00
+51.00,+126.00,+17.00,+2.00,+76.00,+19.00,-22.00,-21.00,-3.00,+87.00,+27.00,+6.00,+10.00,+91.00,+3.00,+9.00
-33.00,-108.00,+0.00,+8.00,+3.00,-20.00,-25.00,-2.00,-23.00,-34.00,-18.00,+69.00,+2.00,-6.00,-28.00,-23.00
+8.00,-61.00,-15.00,-3.00,+20.00,+5.00,+19.00,-4.00,-49.00,-30.00,+9.00,-120.00,-61.00,-48.00,+3.00,-16.00
-45.00,+100.00,-8.00,-21.00,+2.00,+13.00,+33.00,+36.00,+68.00,-30.00,-28.00,+25.00,+21.00,+11.00,+28.00,+39.00
-73.00,-128.00,-33.00,-7.00,-87.00,-42.00,-44.00,-39.00,+94.00,+1.00,+9.00,+1.00,+32.00,-12.00,+9.00,+0.00
+20.00,+3.00,+71.00,+38.00,+51.00,+61.00,+23.00,+44.00,-75.00,-31.00,-10.00,+11.00,+24.00,+22.00,+0.00,-39.00
+49.00,+28.00,+7.00,+2.00,-2.00,+1.00,+11.00,+19.00,+29.00,+23.00,+4.00,+33.00,+8.00,-11.00,-25.00,+17.00
+10.00,-90.00,-7.00,-4.00,-7.00,-10.00,+9.00,-15.00,-4.00,+75.00,+30.00,-4.00,-42.00,+35.00,+12.00,-28.00
+59.00,-14.00,-29.00,-18.00,+4.00,+1.00,-37.00,+15.00,-105.00,-120.00,-69.00,-7.00,+11.00,-24.00,-10.00,+25.00
-5.00,-41.00,-32.00,-43.00,-100.00,-94.00,-41.00,-3.00,+23.00,+21.00,+28.00,+9.00,+21.00,+27.00,+31.00,+37.00
-26.00,+37.00,+5.00,+12.00,+42.00,+56.00,+29.00,-41.00,+101.00,-22.00,-10.00,+6.00,-23.00,-34.00,-21.00,-18.00
+35.00,+6.00,+28.00,+30.00,+44.00,+44.00,+31.00,+45.00,-56.00,-11.00,-52.00,+7.00,+25.00,+52.00,+32.00,+1.00
-26.00,-8.00,-22.00,+4.00,+100.00,-69.00,+52.00,+0.00,+25.00,-60.00,+32.00,-29.00,-13.00,-35.00,-19.00,-20.00
+10.00,-14.00,-23.00,-14.00,-49.00,+104.00,+26.00,-29.00,+70.00,+14.00,+23.00,+93.00,+76.00,+31.00,+57.00,+0.00
+38.00,+29.00,+26.00,-5.00,-79.00,-57.00,+23.00,+13.00,-99.00,-71.00,-62.00,-62.00,-69.00,-60.00,-98.00,-30.00
+31.00,+41.00,+4.00,+0.00,-71.00,-49.00,-8.00,-24.00,-89.00,-75.00,-2.00,-19.00,-34.00,+23.00,+21.00,-7.00
-6.00,-44.00,-18.00,-13.00,+20.00,-4.00,+4.00,+22.00,+124.00,+82.00,+13.00,+35.00,+72.00,-17.00,+7.00,+28.00
-8.00,+77.00,+0.00,+11.00,+10.00,-7.00,-22.00,-20.00,-86.00,-93.00,-15.00,-29.00,-11.00,+2.00,-26.00,-26.00
-78.00,-112.00,-29.00,-18.00,+18.00,+13.00,-37.00,+11.00,+31.00,+107.00,+20.00,+10.00,+9.00,+17.00,+79.00,+37.00
-4.00,-30.00,+10.00,+10.00,+45.00,+36.00,+21.00,+21.00,-10.00,+15.00,+14.00,+19.00,-11.00,-4.00,-10.00,+8.00
+19.00,+63.00,-7.00,-22.00,-128.00,-23.00,-29.00,+9.00,-39.00,-41.00,-12.00,+17.00,-6.00,+6.00,-21.00,-5.00
+55.00,-83.00,+26.00,+29.00,+70.00,+16.00,-2.00,+26.00,+75.00,-13.00,-20.00,-57.00,-26.00,-15.00,+14.00,-6.00
+34.00,-46.00,+3.00,-6.00,-61.00,-11.00,-22.00,-4.00,-81.00,+54.00,+24.00,+23.00,-2.00,+5.00,-14.00,-44.00
-32.00,+61.00,-8.00,+14.00,+127.00,+90.00,+22.00,+13.00,+49.00,+22.00,-6.00,-23.00,-8.00,-39.00,-33.00,+14.00
+1.00,+14.00,+2.00,-1.00,-23.00,+43.00,+35.00,-11.00,-96.00,-68.00,+7.00,+20.00,+37.00,+32.00,+22.00,-45.00
+4.00,+53.00,-20.00,-15.00,+25.00,+20.00,+47.00,+19.00,+18.00,-1.00,-19.00,-22.00,+2.00,+2.00,-12.00,+34.00
-42.00,-28.00,-7.00,-6.00,-54.00,-65.00,-26.00,-33.00,-46.00,+30.00,+35.00,+102.00,+45.00,+36.00,+17.00,-2.00
-18.00,-48.00,+20.00,+21.00,+75.00,+13.00,+2.00,-5.00,+35.00,-7.00,+0.00,-73.00,-94.00,-33.00,-1.00,+34.00
-37.00,+38.00,-7.00,-38.00,-128.00,-103.00,-21.00,-26.00,+41.00,+44.00,+7.00,+11.00,+1.00,-5.00,+8.00,-1.00
-47.00,-128.00,-28.00,+36.00,+127.00,+115.00,-2.00,-35.00,-23.00,-9.00,+2.00,+6.00,+4.00,-13.00,-5.00,-33.00
+77.00,+102.00,+40.00,+8.00,-35.00,+11.00,+59.00,+31.00,-4.00,-38.00,-18.00,-8.00,+13.00,+24.00,+19.00,+19.00
+25.00,-80.00,+3.00,+5.00,-49.00,-17.00,-9.00,-21.00,+83.00,+35.00,+22.00,+41.00,+33.00,+5.00,-7.00,-6.00
-20.00,-56.00,-5.00,+0.00,-51.00,-10.00,-51.00,-21.00,+85.00,+49.00,-2.00,+6.00,-14.00,-3.00,+0.00,+32.00
-9.00,+85.00,+2.00,-17.00,-64.00,-67.00,-11.00,-4.00,-9.00,+64.00,+0.00,-53.00,-33.00,-12.00,+32.00,+6.00
+19.00,-1.00,+0.00,-6.00,+9.00,-16.00,-21.00,+12.00,+1.00,-46.00,-15.00,-4.00,+5.00,+6.00,-5.00,+3.00
+2.00,-24.00,-8.00,-10.00,-21.00,+1.00,+9.00,-43.00,+4.00,-10.00,+41.00,+21.00,+7.00,+17.00,+30.00,-3.00
+66.00,-7.00,+9.00,+10.00,-8.00,-3.00,+16.00,+28.00,-51.00,-56.00,-29.00,-21.00,+1.00,-15.00,-11.00,+9.00
-9.00,-90.00,-48.00,-22.00,-15.00,-12.00,-54.00,-18.00,-5.00,+27.00,-40.00,-10.00,+9.00,+9.00,-31.00,-30.00
-14.00,+59.00,+38.00,+3.00,-36.00,-3.00,+61.00,+11.00,-16.00,-5.00,-1.00,-4.00,+2.00,-6.00,+19.00,-54.00
-19.00,+45.00,+0.00,+9.00,+87.00,+68.00,-1.00,-7.00,-59.00,+27.00,+32.00,+16.00,+1.00,+14.00,+4.00,+30.00
+12.00,-120.00,-13.00,-13.00,-103.00,-52.00,-50.00,-1.00,-45.00,+13.00,+7.00,+10.00,-43.00,+11.00,+7.00,+8.00
-79.00,+15.00,-7.00,+8.00,+77.00,+33.00,-40.00,-44.00,-106.00,-43.00,+18.00,+56.00,+85.00,+13.00,-5.00,+14.00
+48.00,+7.00,-22.00,-7.00,+11.00,-45.00,-70.00,-23.00,+38.00,-24.00,-21.00,-104.00,-128.00,-12.00,+44.00,+10.00
-14.00,-44.00,+15.00,+11.00,-40.00,-28.00,+99.00,+2.00,+78.00,-31.00,-21.00,+1.00,+43.00,+11.00,-55.00,-26.00
-4.00,+104.00,+2.00,-4.00,-4.00,-2.00,-18.00,-20.00,+94.00,+48.00,+24.00,+8.00,+28.00,+59.00,+36.00,+0.00
-6.00,-48.00,-39.00,-25.00,-51.00,-13.00,+12.00,+9.00,-49.00,-11.00,-19.00,+29.00,+60.00,-4.00,-13.00,+36.00
+4.00,+90.00,-12.00,-16.00,-65.00,-42.00,-23.00,-4.00,+48.00,+14.00,-6.00,-43.00,-64.00,-40.00,-16.00,+6.00
+23.00,+14.00,+9.00,+0.00,+1.00,+33.00,-6.00,+34.00,-99.00,-71.00,-18.00,+15.00,+15.00,+12.00,+47.00,-29.00
-38.00,+83.00,-3.00,+1.00,+56.00,+24.00,-61.00,-26.00,+12.00,-113.00,-31.00,-27.00,-40.00,+17.00,-5.00,+58.00
+70.00,-80.00,-20.00,-8.00,-46.00,-38.00,+102.00,+54.00,-53.00,+84.00,+23.00,-19.00,-8.00,-7.00,-18.00,-38.00
-29.00,-128.00,-2.00,+8.00,+41.00,+32.00,+6.00,-37.00,-11.00,-65.00,+5.00,+45.00,+53.00,+13.00,-6.00,+17.00
+67.00,+35.00,+1.00,-8.00,-79.00,-61.00,-31.00,+20.00,-108.00,-16.00,-22.00,-17.00,-27.00,-23.00,-21.00,-47.00
-52.00,-113.00,+15.00,+15.00,+27.00,+62.00,+16.00,+28.00,-6.00,+37.00,+11.00,-2.00,-1.00,-29.00,-8.00,-23.00
+11.00,+6.00,+12.00,-24.00,-128.00,-124.00,-58.00,-22.00,+114.00,+18.00,+5.00,+21.00,-17.00,+10.00,+11.00,+35.00
-8.00,+88.00,+8.00,+33.00,+121.00,+107.00,-10.00,+8.00,-8.00,+15.00,-4.00,-1.00,-11.00,-8.00,-10.00,+10.00
+71.00,-30.00,+2.00,+7.00,-38.00,-59.00,-55.00,+14.00,-82.00,-35.00,-15.00,-30.00,-4.00,-2.00,-3.00,-19.00
+15.00,+53.00,+5.00,-2.00,-68.00,-19.00,+44.00,-9.00,-100.00,-27.00,+0.00,+63.00,+44.00,+33.00,+38.00,+1.00
+3.00,-20.00,+0.00,-2.00,+44.00,-31.00,+55.00,-4.00,-34.00,-68.00,+0.00,-49.00,-79.00,-23.00,+13.00,+23.00
-17.00,+10.00,-15.00,-13.00,-68.00,-45.00,-17.00,-20.00,+42.00,+70.00,-1.00,-15.00,-39.00,-72.00,-89.00,+20.00
-66.00,+19.00,-9.00,-14.00,-13.00,+11.00,+12.00,+32.00,+53.00,-45.00,-17.00,+28.00,+5.00,+79.00,+68.00,+10.00
+11.00,+24.00,+2.00,+14.00,+105.00,+15.00,+9.00,+26.00,-79.00,+44.00,+32.00,-63.00,-22.00,-61.00,+13.00,-21.00
+52.00,+85.00,+5.00,+1.00,-1.00,+55.00,-6.00,+9.00,+90.00,-23.00,+2.00,+5.00,-33.00,+18.00,+0.00,-3.00
-51.00,-69.00,-36.00,-12.00,-2.00,-1.00,+2.00,-9.00,-96.00,-52.00,-13.00,+5.00,+23.00,+13.00,-7.00,-32.00
-9.00,-29.00,+3.00,-10.00,-25.00,+4.00,-7.00,-19.00,+23.00,+6.00,+2.00,+22.00,+11.00,-15.00,-21.00,+13.00
+18.00,-12.00,+37.00,+20.00,+26.00,-17.00,-27.00,-2.00,-45.00,-11.00,-4.00,+38.00,+16.00,-8.00,-1.00,+15.00
-47.00,+57.00,+9.00,+6.00,-43.00,+1.00,-12.00,+3.00,-77.00,+64.00,+5.00,-44.00,-71.00,+1.00,-6.00,-27.00
-15.00,-80.00,+20.00,+15.00,-10.00,-4.00,+16.00,+32.00,+122.00,+88.00,+28.00,+19.00,+45.00,+17.00,+13.00,+70.00
-24.00,+26.00,-6.00,+3.00,+25.00,-26.00,-22.00,-15.00,+31.00,+127.00,+31.00,+9.00,+23.00,+2.00,+4.00,+23.00
-5.00,+20.00,-31.00,-19.00,-86.00,+103.00,+4.00,+10.00,-49.00,-29.00,+6.00,+18.00,+24.00,-1.00,-12.00,-46.00
-41.00,-3.00,+0.00,+10.00,+101.00,+34.00,-38.00,-5.00,+13.00,-28.00,-14.00,-15.00,-11.00,-14.00,-10.00,+5.00
+39.00,+4.00,+17.00,+5.00,-9.00,+6.00,-69.00,-5.00,-25.00,-58.00,-6.00,+31.00,+30.00,+34.00,+2.00,-39.00
-22.00,+98.00,-19.00,-31.00,-71.00,-24.00,+34.00,-2.00,-9.00,+57.00,-9.00,-47.00,-26.00,-27.00,-21.00,+4.00
-65.00,-89.00,-20.00,-7.00,-50.00,-86.00,+30.00,-18.00,+97.00,+53.00,-4.00,-9.00,+50.00,-9.00,-18.00,-2.00
+15.00,+4.00,+15.00,+12.00,+53.00,+42.00,-17.00,+10.00,-47.00,-78.00,+2.00,+8.00,+14.00,-15.00,-28.00,-49.00
+17.00,-8.00,-38.00,-35.00,-54.00,-21.00,+12.00,-40.00,+65.00,+73.00,+11.00,-15.00,+20.00,+1.00,+32.00,+80.00
+48.00,+5.00,+53.00,+42.00,+32.00,-10.00,-8.00,+24.00,-39.00,-36.00,-5.00,+13.00,+0.00,+2.00,+4.00,-10.00
+28.00,+2.00,+5.00,+13.00,+25.00,+10.00,+10.00,-11.00,-1.00,+4.00,-1.00,-29.00,-74.00,-27.00,-39.00,-14.00
-54.00,-33.00,+6.00,-9.00,-87.00,-59.00,+11.00,-2.00,-66.00,+10.00,-3.00,+12.00,+33.00,+1.00,+11.00,-26.00
-30.00,+60.00,-14.00,-21.00,-2.00,+6.00,+6.00,+0.00,-35.00,-12.00,+8.00,+23.00,+28.00,+18.00,+8.00,-36.00
+48.00,-120.00,-35.00,-4.00,+21.00,+29.00,-20.00,-5.00,+29.00,-70.00,-27.00,-18.00,-10.00,-45.00,-10.00,-1.00
+64.00,+37.00,+52.00,+22.00,-25.00,-48.00,+30.00,+45.00,+97.00,+12.00,-16.00,-21.00,-18.00,+18.00,-20.00,+16.00
-18.00,-81.00,-2.00,+0.00,-10.00,+30.00,+19.00,-28.00,+95.00,-3.00,+4.00,+42.00,+47.00,-3.00,+4.00,+51.00
+18.00,+103.00,+9.00,+15.00,+79.00,+9.00,-15.00,-4.00,-21.00,+0.00,+7.00,-39.00,-74.00,-14.00,-13.00,-12.00
-50.00,-109.00,-8.00,-20.00,-115.00,-65.00,-34.00,-7.00,-47.00,+23.00,+6.00,+6.00,+28.00,-18.00,-16.00,-9.00
-99.00,-77.00,-56.00,-30.00,-49.00,+17.00,-15.00,-64.00,-35.00,-32.00,-19.00,+24.00,+1.00,-13.00,-19.00,-46.00
-1.00,+92.00,+28.00,+21.00,+17.00,+30.00,-6.00,+16.00,-7.00,-25.00,-9.00,-41.00,-96.00,-18.00,+33.00,+27.00
+44.00,+0.00,+6.00,-1.00,-105.00,-68.00,+69.00,+42.00,-24.00,+35.00,+10.00,+58.00,+49.00,+1.00,+17.00,+1.00
+2.00,+71.00,+9.00,+21.00,+90.00,+107.00,-9.00,+8.00,+25.00,+23.00,+3.00,-21.00,-72.00,+33.00,-23.00,-3.00
+3.00,-55.00,-19.00,-11.00,-20.00,+32.00,-32.00,-2.00,-32.00,-42.00,+1.00,-20.00,-11.00,-7.00,-3.00,-18.00
+56.00,+61.00,+9.00,-3.00,-28.00,-59.00,-3.00,-9.00,+18.00,+36.00,-3.00,-25.00,-16.00,-1.00,-3.00,+8.00
-82.00,-109.00,-8.00,+0.00,-22.00,+0.00,+28.00,-8.00,+5.00,-21.00,+4.00,+16.00,+7.00,+5.00,+5.00,+14.00
-23.00,+95.00,-2.00,-13.00,-44.00,-77.00,-81.00,-7.00,-75.00,-64.00,-23.00,+2.00,-20.00,-4.00,+4.00,-33.00
+17.00,-35.00,+11.00,+17.00,+70.00,+47.00,+55.00,+10.00,-49.00,+4.00,+9.00,+15.00,-12.00,+5.00,-1.00,+41.00
+60.00,+71.00,+9.00,+4.00,-9.00,-34.00,-28.00,+15.00,+36.00,+4.00,-5.00,+4.00,+16.00,+4.00,-21.00,-26.00
-28.00,-6.00,+9.00,+15.00,+7.00,+15.00,+6.00,+44.00,-51.00,-51.00,-11.00,-8.00,-7.00,-2.00,+0.00,-19.00
-27.00,+49.00,-1.00,-13.00,-18.00,-1.00,-30.00,-25.00,+24.00,+50.00,+1.00,+10.00,+36.00,+5.00,+4.00,+2.00
+63.00,+16.00,-4.00,-9.00,+21.00,-2.00,-16.00,+14.00,+7.00,+0.00,+10.00,-6.00,-2.00,-4.00,+6.00,+10.00
-9.00,-45.00,-25.00,-32.00,-123.00,-87.00,-12.00,-13.00,-84.00,-73.00,-8.00,+1.00,+22.00,-3.00,-1.00,-16.00
+28.00,-43.00,-6.00,+10.00,+103.00,+40.00,-6.00,+16.00,+7.00,+12.00,-30.00,-19.00,+8.00,+5.00,-4.00,-1.00
-7.00,+23.00,+15.00,+11.00,+8.00,+72.00,+40.00,-8.00,+9.00,+3.00,+10.00,+24.00,+21.00,+10.00,+2.00,-2.00
-44.00,+103.00,-2.00,-3.00,-41.00,-103.00,+2.00,+5.00,+3.00,+5.00,-8.00,-27.00,-23.00,+0.00,+7.00,+21.00
+29.00,-9.00,+9.00,+20.00,+57.00,+11.00,+7.00,+25.00,-32.00,+20.00,+6.00,-1.00,-2.00,-12.00,+3.00,-22.00
+4.00,+25.00,+7.00,-7.00,-38.00,-1.00,-28.00,-17.00,+4.00,-18.00,-1.00,+12.00,-17.00,+22.00,-27.00,-5.00
+22.00,+43.00,-7.00,+2.00,+40.00,-18.00,-15.00,-2.00,+0.00,-18.00,-2.00,+4.00,+7.00,+4.00,+17.00,+12.00
-56.00,-81.00,-1.00,+3.00,-12.00,-5.00,+64.00,-4.00,+20.00,+32.00,+2.00,-24.00,-23.00,-11.00,+3.00,+13.00
+0.00,-1.00,-11.00,-8.00,-26.00,+79.00,-8.00,-2.00,-20.00,+1.00,+0.00,+9.00,+22.00,+16.00,+20.00,+14.00
-42.00,+2.00,-1.00,-9.00,-4.00,-28.00,-33.00,-27.00,-17.00,-32.00,-17.00,-23.00,+13.00,+5.00,+0.00,-11.00
+47.00,-20.00,-2.00,-5.00,-14.00,-17.00,+21.00,-9.00,-48.00,-17.00,+6.00,+7.00,+22.00,-10.00,-19.00,-5.00
+59.00,+86.00,+24.00,-2.00,-15.00,-3.00,-9.00,+22.00,+49.00,+36.00,-4.00,+23.00,+18.00,+11.00,+17.00,+12.00
-7.00,+19.00,-10.00,+3.00,+49.00,+34.00,+24.00,-12.00,-55.00,+9.00,+15.00,+8.00,+0.00,+3.00,-19.00,+4.00
+5.00,-30.00,+0.00,+2.00,-31.00,+63.00,+13.00,-6.00,+50.00,-9.00,-12.00,-6.00,+6.00,-8.00,+6.00,-19.00
-57.00,-46.00,-6.00,-8.00,-66.00,-128.00,+19.00,-5.00,-5.00,-37.00,-5.00,-6.00,-18.00,+1.00,+15.00,+10.00
-76.00,+0.00,-11.00,+0.00,+90.00,+66.00,-54.00,+11.00,-9.00,+35.00,+28.00,+14.00,+5.00,-5.00,-10.00,-3.00
-9.00,-3.00,-5.00,-18.00,-102.00,-72.00,-54.00,-13.00,-13.00,-39.00,-47.00,-11.00,-2.00,+3.00,-8.00,-5.00
+21.00,-66.00,-8.00,+12.00,+63.00,+59.00,+87.00,+13.00,-17.00,+4.00,+7.00,+4.00,-2.00,-4.00,+0.00,-5.00
-22.00,-9.00,+12.00,+17.00,+74.00,+55.00,-9.00,+12.00,+80.00,+4.00,+1.00,-7.00,-3.00,-2.00,+7.00,+9.00
-3.00,-35.00,+0.00,+10.00,+51.00,+52.00,-5.00,-47.00,-1.00,-3.00,-5.00,+0.00,-2.00,-5.00,-17.00,-22.00
-7.00,+26.00,-1.00,-6.00,-24.00,-31.00,-3.00,+8.00,+14.00,+19.00,+13.00,+3.00,+9.00,+6.00,+2.00,+4.00
+7.00,-11.00,-11.00,-24.00,-29.00,-28.00,-30.00,+21.00,-37.00,-28.00,-6.00,-7.00,-11.00,-15.00,-10.00,-12.00
-8.00,-49.00,-15.00,-7.00,-57.00,-4.00,+35.00,+38.00,+18.00,+31.00,+5.00,-18.00,-12.00,+1.00,-2.00,+13.00
+2.00,-8.00,+5.00,+9.00,-2.00,-13.00,+19.00,+30.00,-31.00,-23.00,-8.00,+22.00,+27.00,-1.00,-1.00,-11.00
-27.00,-19.00,-5.00,+9.00,+20.00,+30.00,+12.00,-23.00,+24.00,+26.00,+7.00,+14.00,+6.00,+6.00,-1.00,+24.00
+2.00,+58.00,+4.00,-11.00,-37.00,-37.00,-37.00,-28.00,+21.00,+7.00,+1.00,-12.00,-2.00,-11.00,+15.00,-1.00
-31.00,-22.00,-17.00,-5.00,+20.00,+21.00,+8.00,-2.00,-15.00,+0.00,+0.00,-20.00,-51.00,+16.00,+6.00,+10.00
-30.00,-49.00,-35.00,-28.00,-36.00,-30.00,-34.00,-44.00,+5.00,-5.00,-4.00,-4.00,-8.00,+4.00,-10.00,-4.00
+2.00,+3.00,+15.00,+8.00,+10.00,+0.00,-2.00,+9.00,-7.00,-7.00,-3.00,-9.00,-5.00,-4.00,+3.00,-18.00
+8.00,-1.00,-9.00,-7.00,-10.00,-26.00,+0.00,+12.00,-25.00,-2.00,+0.00,+0.00,+2.00,+1.00,-13.00,-6.00
+1.00,+6.00,+7.00,+4.00,+10.00,+41.00,+12.00,-5.00,+31.00,-7.00,+0.00,+5.00,+20.00,-1.00,+6.00,-4.00
+18.00,-5.00,-6.00,+3.00,+6.00,-32.00,-24.00,-7.00,+42.00,+26.00,+8.00,+11.00,+10.00,-3.00,+4.00,+35.00
+11.00,+13.00,+10.00,+4.00,-21.00,-33.00,-8.00,-11.00,+24.00,+19.00,+0.00,+0.00,-2.00,+2.00,-6.00,-7.00
+8.00,-21.00,+8.00,+8.00,-3.00,+33.00,+51.00,+18.00,-4.00,+0.00,+1.00,+5.00,+4.00,+4.00,+2.00,-4.00
+13.00,+26.00,+4.00,+4.00,+61.00,-20.00,+61.00,-6.00,-53.00,-23.00,-6.00,+1.00,-2.00,-9.00,+1.00,-2.00
-43.00,+15.00,+10.00,+4.00,+2.00,-1.00,-15.00,-30.00,+9.00,+10.00,+8.00,+5.00,-1.00,-1.00,+0.00,-15.00
-33.00,-31.00,-4.00,-1.00,+32.00,+102.00,+9.00,-15.00,+16.00,+8.00,-16.00,-9.00,-3.00,-8.00,-5.00,+10.00
+22.00,+44.00,-10.00,-4.00,-31.00,-21.00,-2.00,+51.00,-7.00,+19.00,+8.00,+1.00,-6.00,-4.00,-4.00,-3.00
-44.00,-87.00,-22.00,-20.00,-57.00,-9.00,-50.00,+7.00,-17.00,-43.00,-14.00,-4.00,+9.00,-4.00,-5.00,-2.00
+95.00,+114.00,+37.00,+14.00,+5.00,+8.00,+24.00,+69.00,-19.00,-8.00,-2.00,-3.00,-5.00,-2.00,-2.00,-15.00
-15.00,+2.00,+2.00,-1.00,+14.00,-27.00,-4.00,-10.00,-2.00,+10.00,+7.00,-4.00,-3.00,+3.00,+4.00,+11.00
-62.00,-75.00,-13.00,-4.00,-3.00,-11.00,-25.00,-72.00,-18.00,-12.00,-3.00,+1.00,+0.00,+4.00,-6.00,-8.00
+14.00,+110.00,-3.00,+0.00,-23.00,+5.00,-26.00,-23.00,+15.00,+28.00,+1.00,-2.00,-5.00,-9.00,-5.00,-3.00
+47.00,+26.00,+18.00,-1.00,+2.00,-12.00,-7.00,-4.00,-23.00,-16.00,-4.00,-4.00,+1.00,-2.00,+9.00,+8.00
-25.00,+31.00,-34.00,-17.00,-6.00,-8.00,-8.00,-24.00,+3.00,+4.00,+10.00,+0.00,-3.00,-5.00,-12.00,-2.00
+20.00,-44.00,+32.00,+10.00,+10.00,+4.00,-7.00,+13.00,+18.00,+2.00,-2.00,-2.00,-2.00,+1.00,-2.00,+0.00
-6.00,-1.00,-13.00,-9.00,+0.00,-22.00,-1.00,-1.00,-16.00,+2.00,+8.00,+2.00,+7.00,+0.00,-5.00,+0.00
-13.00,-22.00,-12.00,-2.00,-12.00,-6.00,+3.00,-6.00,-34.00,-14.00,-12.00,-8.00,-4.00,-3.00,+5.00,-7.00
-1.00,+12.00,+2.00,-2.00,-1.00,+1.00,+10.00,+10.00,+33.00,+14.00,+5.00,-1.00,+0.00,-4.00,+4.00,+3.00
+1.00,+17.00,-7.00,+2.00,+17.00,-1.00,-8.00,-9.00,+60.00,+12.00,-5.00,-5.00,-4.00,-4.00,-7.00,+4.00
+7.00,-22.00,+12.00,+6.00,-16.00,-12.00,-7.00,+4.00,-107.00,-55.00,-9.00,-2.00,+3.00,+1.00,+1.00,-23.00
-25.00,-9.00,-6.00,-5.00,-78.00,-87.00,-4.00,-1.00,+25.00,+14.00,+1.00,+5.00,+3.00,+6.00,+6.00,+5.00
+18.00,-32.00,+5.00,+12.00,+78.00,+63.00,-50.00,+5.00,+22.00,+18.00,+4.00,-1.00,-3.00,-2.00,-6.00,-24.00
+2.00,+8.00,-1.00,+7.00,+51.00,+22.00,-76.00,-4.00,-12.00,-18.00,-9.00,+0.00,+2.00,+1.00,+3.00,+31.00
+20.00,-1.00,+12.00,+2.00,-18.00,+9.00,+92.00,+8.00,+14.00,+13.00,+0.00,+1.00,-1.00,-5.00,-1.00,+6.00
+8.00,+2.00,-7.00,+0.00,+26.00,+35.00,-11.00,-2.00,-28.00,-19.00,-9.00,-2.00,-2.00,-1.00,-4.00,-5.00
+8.00,-9.00,+2.00,+1.00,-11.00,-60.00,+8.00,+8.00,-16.00,+1.00,+3.00,+2.00,-1.00,-2.00,-1.00,+4.00
+3.00,+19.00,+0.00,-5.00,-8.00,-15.00,-12.00,-6.00,-5.00,+1.00,+1.00,+1.00,-3.00,-1.00,-3.00,-15.00
+49.00,+91.00,+5.00,-3.00,-19.00,-9.00,-39.00,-31.00,+16.00,+15.00,+4.00,+3.00,+8.00,-2.00,-4.00,+1.00
-2.00,-52.00,+2.00,+11.00,+11.00,+24.00,+26.00,+36.00,-8.00,-3.00,-3.00,-3.00,-7.00,+3.00,-1.00,-3.00
+28.00,-12.00,+5.00,+1.00,-14.00,-3.00,+19.00,+9.00,+4.00,+3.00,+1.00,-4.00,-2.00,-11.00,-2.00,+1.00
-5.00,+17.00,-1.00,-7.00,-10.00,-3.00,+11.00,-13.00,-8.00,-3.00,-2.00,-3.00,-3.00,+0.00,+0.00,+0.00
+12.00,-18.00,+1.00,+3.00,-3.00,-1.00,-7.00,-1.00,+22.00,+17.00,-1.00,-4.00,+2.00,-3.00,-5.00,+5.00
-5.00,-1.00,+1.00,-2.00,+4.00,+4.00,+6.00,-5.00,+0.00,-4.00,-3.00,-5.00,+0.00,-4.00,+0.00,-9.00
-12.00,+2.00,-2.00,-6.00,-1.00,+0.00,-9.00,-15.00,-23.00,-13.00,-3.00,-2.00,-3.00,+1.00,+1.00,-3.00
+29.00,+22.00,-14.00,-13.00,-22.00,-23.00,+10.00,+11.00,-13.00,-10.00,-2.00,+0.00,+1.00,-1.00,-3.00,-7.00
-5.00,-28.00,+5.00,+5.00,+18.00,+6.00,-6.00,+9.00,+11.00,+10.00,+2.00,+1.00,+0.00,-1.00,-3.00,-3.00
-15.00,+0.00,-6.00,-1.00,+11.00,+12.00,-10.00,-15.00,+0.00,-2.00,-3.00,-1.00,-1.00,+1.00,+2.00,-1.00
-20.00,-5.00,+4.00,+2.00,-15.00,-11.00,+1.00,-3.00,-12.00,-4.00,-2.00,-2.00,-1.00,+0.00,+2.00,+1.00
-8.00,+3.00,+0.00,+1.00,-2.00,-6.00,+10.00,-21.00,-13.00,-5.00,-2.00,-2.00,-1.00,+2.00,-4.00,-5.00
-8.00,-12.00,+1.00,+4.00,+11.00,+9.00,+1.00,+32.00,+18.00,+6.00,+0.00,-1.00,+0.00,+0.00,+1.00,-2.00
+16.00,+15.00,+3.00,+2.00,+8.00,+19.00,+12.00,+33.00,+9.00,-5.00,-4.00,-3.00,-1.00,-2.00,-3.00,+1.00
+4.00,-7.00,+0.00,+0.00,-7.00,-5.00,+12.00,+7.00,+12.00,-3.00,-1.00,-1.00,+1.00,+1.00,+1.00,+7.00
-11.00,+2.00,+0.00,+3.00,-2.00,-6.00,+8.00,-7.00,-1.00,+2.00,+1.00,+0.00,+0.00,+0.00,-1.00,-3.00
-9.00,-19.00,-7.00,-5.00,+5.00,+0.00,-20.00,-30.00,-4.00,-2.00,-2.00,+2.00,-2.00,-1.00,-1.00,-4.00
-15.00,+7.00,-5.00,-4.00,-9.00,-9.00,-6.00,-13.00,-13.00,-11.00,-2.00,+1.00,+0.00,+0.00,-3.00,-9.00
-27.00,-59.00,-5.00,-1.00,+6.00,-10.00,+3.00,+2.00,-7.00,+3.00,-2.00,-4.00,-3.00,-3.00,-2.00,-2.00
-5.00,+87.00,+8.00,+0.00,-3.00,+6.00,+5.00,-3.00,+7.00,+4.00,+0.00,+0.00,-3.00,-1.00,+2.00,-1.00
+28.00,-36.00,+17.00,+9.00,+2.00,+3.00,+2.00,+27.00,+10.00,+3.00,+1.00,+1.00,-2.00,+0.00,+0.00,+6.00
+14.00,+6.00,-6.00,+0.00,+3.00,-4.00,-1.00,+0.00,-3.00,+4.00,+4.00,+2.00,-1.00,-4.00,-3.00,-3.00
-20.00,-7.00,-3.00,-9.00,-6.00,-2.00,+4.00,+1.00,-3.00,-1.00,-2.00,-2.00,-2.00,-2.00,+0.00,-4.00
