-2.00,+6.00,+2.00,+1.00,-5.00,-5.00,+0.00,+0.00,+9.00,-2.00,-2.00,-6.00,+3.00,-1.00,+0.00,-1.00
-9.00,-5.00,-1.00,-2.00,-1.00,-6.00,-1.00,-2.00,+5.00,-5.00,-2.00,+4.00,+3.00,+0.00,+1.00,+2.00
+2.00,+5.00,+1.00,+2.00,+1.00,+13.00,+2.00,+0.00,-4.00,-1.00,-2.00,-3.00,+1.00,-1.00,-3.00,+1.00
-4.00,-9.00,-5.00,-1.00,-5.00,+1.00,-2.00,-1.00,+16.00,-3.00,-1.00,+9.00,+7.00,+1.00,-1.00,+6.00
-5.00,+9.00,-3.00,-2.00,-3.00,-6.00,-3.00,+1.00,-13.00,+0.00,+3.00,-8.00,-3.00,-4.00,-3.00,-6.00
-3.00,-15.00,+0.00,-2.00,-2.00,-4.00,-1.00,+0.00,-3.00,+6.00,+3.00,-3.00,-11.00,-1.00,+2.00,+2.00
-2.00,+6.00,+1.00,+1.00,+2.00,+7.00,+1.00,-2.00,+5.00,+16.00,+2.00,-4.00,-6.00,-1.00,-2.00,-3.00
+7.00,+45.00,+8.00,+3.00,+1.00,-2.00,-1.00,+1.00,-4.00,-1.00,+2.00,-2.00,-3.00,-1.00,+0.00,-1.00
-7.00,-18.00,-2.00,+2.00,+2.00,+8.00,-1.00,-3.00,+7.00,-1.00,-4.00,+4.00,+7.00,+1.00,-1.00,+2.00
+6.00,-1.00,+1.00,-3.00,-2.00,-6.00,-2.00,+0.00,-4.00,-14.00,-5.00,-5.00,-2.00,-1.00,-4.00,-7.00
-3.00,-6.00,-5.00,-3.00,-3.00,+1.00,-2.00,-6.00,-7.00,-11.00,-3.00,+0.00,+4.00,+1.00,+0.00,+6.00
-5.00,-16.00,-5.00,-6.00,-1.00,+31.00,+1.00,-4.00,-6.00,+2.00,+0.00,-5.00,+1.00,+0.00,-1.00,-3.00
+1.00,+14.00,-4.00,-4.00,-2.00,-37.00,-2.00,+0.00,+12.00,+1.00,-1.00,+2.00,-5.00,-1.00,+0.00,+2.00
-2.00,-4.00,-1.00,-1.00,-2.00,-7.00,-1.00,-1.00,-8.00,-10.00,-1.00,-10.00,-13.00,-6.00,-4.00,-6.00
+1.00,-8.00,+1.00,-1.00,-20.00,-2.00,+0.00,+4.00,+9.00,+3.00,-5.00,+2.00,+8.00,+0.00,+0.00,+3.00
-6.00,+0.00,-1.00,+5.00,+18.00,+2.00,-3.00,-3.00,-4.00,-4.00,-3.00,+2.00,+1.00,-5.00,-3.00,-6.00
+4.00,-4.00,+1.00,+4.00,+2.00,+14.00,+1.00,-1.00,+5.00,+0.00,+0.00,-6.00,-4.00,-1.00,+2.00,+9.00
-1.00,-14.00,-6.00,-3.00,-5.00,-5.00,+0.00,-2.00,-2.00,-2.00,-2.00,+6.00,+4.00,+0.00,-4.00,-8.00
-8.00,+33.00,+1.00,-5.00,+1.00,+0.00,-4.00,-3.00,-5.00,+5.00,+0.00,-2.00,-4.00,-1.00,+0.00,+3.00
+6.00,+0.00,+1.00,+0.00,-9.00,-6.00,-1.00,+0.00,+5.00,-1.00,-1.00,+10.00,+15.00,+0.00,-2.00,+2.00
-7.00,+1.00,+2.00,+3.00,+2.00,+5.00,+0.00,-2.00,-11.00,+1.00,-2.00,-5.00,+2.00,-2.00,-1.00,-3.00
+1.00,+8.00,+1.00,+0.00,-1.00,-6.00,-1.00,+0.00,-13.00,-9.00,-6.00,-5.00,-30.00,-3.00,-4.00,-12.00
-2.00,-17.00,-3.00,-2.00,-5.00,+5.00,+0.00,+0.00,+8.00,-1.00,+2.00,+8.00,+15.00,+0.00,+4.00,+11.00
+0.00,-2.00,-9.00,-12.00,-4.00,-7.00,+0.00,+1.00,-6.00,+0.00,-1.00,-21.00,-14.00,-1.00,-1.00,-6.00
-4.00,-35.00,-7.00,-4.00,+3.00,+1.00,+0.00,+2.00,+27.00,+4.00,-1.00,+0.00,-2.00,+0.00,+3.00,+11.00
-1.00,+10.00,+5.00,+6.00,-1.00,+0.00,-1.00,+1.00,-14.00,-6.00,+0.00,+0.00,-4.00,+1.00,+0.00,+0.00
+1.00,+0.00,-1.00,+0.00,+3.00,+0.00,-1.00,-2.00,+19.00,-2.00,+1.00,+3.00,+10.00,-2.00,-2.00,-3.00
+0.00,-5.00,-2.00,-3.00,-3.00,-7.00,-3.00,-1.00,-6.00,-1.00,-1.00,+2.00,-5.00,-2.00,-4.00,-6.00
+9.00,+6.00,+6.00,+2.00,-3.00,+4.00,+1.00,+0.00,-24.00,-9.00,+2.00,+15.00,+7.00,-3.00,-9.00,-1.00
-2.00,+7.00,-2.00,-4.00,-1.00,-8.00,-1.00,+1.00,+17.00,+4.00,+8.00,+18.00,+36.00,+15.00,+22.00,+13.00
+0.00,-3.00,+2.00,+2.00,-28.00,-6.00,+10.00,+1.00,+0.00,-9.00,-10.00,-26.00,-44.00,-13.00,-19.00,-15.00
-7.00,-20.00,-2.00,+3.00,+28.00,-4.00,-15.00,-3.00,-8.00,+13.00,+4.00,-2.00,+5.00,-2.00,+1.00,+1.00
-9.00,+0.00,-4.00,-5.00,-5.00,+7.00,-5.00,-6.00,-17.00,-6.00,-3.00,-6.00,-18.00,-7.00,-7.00,-17.00
+13.00,+36.00,+6.00,+3.00,+10.00,+8.00,+0.00,+6.00,-5.00,-1.00,-4.00,+7.00,+20.00,+2.00,-4.00,-4.00
-1.00,+21.00,-5.00,-4.00,+12.00,+26.00,+0.00,+1.00,-18.00,-3.00,+4.00,+7.00,+7.00,+1.00,+1.00,-8.00
+9.00,-4.00,+1.00,-1.00,-18.00,-45.00,+2.00,+3.00,+18.00,+6.00,+2.00,-7.00,-8.00,+3.00,+1.00,+2.00
-5.00,-14.00,-1.00,-2.00,-4.00,-4.00,-2.00,-1.00,+1.00,-1.00,-5.00,+5.00,+10.00,-18.00,-1.00,+6.00
-4.00,-15.00,-7.00,-3.00,-6.00,-6.00,-3.00,-3.00,-3.00,-2.00,-1.00,-11.00,-23.00,+4.00,-5.00,-3.00
-6.00,-12.00,-3.00,-3.00,-9.00,-9.00,-2.00,-3.00,-1.00,-7.00,+0.00,+6.00,+6.00,-4.00,+2.00,+6.00
-3.00,-6.00,+0.00,-2.00,-16.00,+14.00,+3.00,+0.00,+16.00,+3.00,-3.00,-14.00,-12.00,-3.00,-3.00,+2.00
+4.00,-1.00,-2.00,-1.00,+19.00,-6.00,+1.00,-1.00,-15.00,-2.00,+0.00,-2.00,+3.00,+2.00,+2.00,-6.00
-3.00,+3.00,+3.00,+3.00,-2.00,-1.00,+13.00,+1.00,+7.00,+7.00,+4.00,+13.00,+4.00,-6.00,-2.00,+2.00
+6.00,-4.00,-4.00,+0.00,-19.00,-6.00,-15.00,-2.00,-19.00,-10.00,-2.00,-10.00,+7.00,+2.00,-4.00,-11.00
-7.00,-12.00,+0.00,+1.00,+30.00,+12.00,+0.00,-2.00,+6.00,+1.00,+1.00,+4.00,-2.00,+2.00,+14.00,+7.00
+7.00,+7.00,+3.00,+0.00,-11.00,-1.00,+11.00,+7.00,-7.00,-5.00,-2.00,-10.00,-6.00,+3.00,-2.00,-1.00
-1.00,-20.00,-7.00,-5.00,-2.00,+3.00,-17.00,-11.00,-4.00,+3.00,-4.00,-4.00,+2.00,-19.00,-13.00,-8.00
+3.00,+41.00,+5.00,+2.00,+3.00,-11.00,+2.00,-2.00,+5.00,-1.00,+0.00,+6.00,+0.00,+10.00,+3.00,+2.00
-1.00,+3.00,+0.00,+0.00,-21.00,-6.00,-1.00,+2.00,+1.00,-8.00,-1.00,+1.00,-1.00,+24.00,+26.00,+3.00
+2.00,+23.00,-3.00,+1.00,-4.00,+7.00,-2.00,+0.00,-28.00,-1.00,+3.00,-1.00,-5.00,-24.00,-38.00,-8.00
-7.00,-11.00,-4.00,-1.00,-3.00,-6.00,+6.00,+2.00,+30.00,+4.00,-1.00,-4.00,-3.00,-2.00,+5.00,-2.00
+1.00,-12.00,+6.00,+7.00,+20.00,+1.00,-3.00,-3.00,+6.00,+15.00,+5.00,+15.00,+14.00,-28.00,-3.00,+4.00
-4.00,-23.00,-3.00,-4.00,+4.00,+4.00,+1.00,-2.00,-28.00,-14.00,-2.00,-14.00,-1.00,-5.00,-12.00,-9.00
-1.00,+21.00,-6.00,-1.00,-7.00,-9.00,-3.00,-2.00,+37.00,+6.00,-6.00,-1.00,-7.00,+11.00,+28.00,+13.00
+4.00,+2.00,+1.00,+2.00,+6.00,+6.00,-1.00,+2.00,-43.00,-29.00,-9.00,-5.00,+20.00,+21.00,-4.00,-10.00
-5.00,-20.00,-9.00,-5.00,-27.00,-8.00,-1.00,-3.00,+26.00,-2.00,-3.00,+2.00,-13.00,-2.00,+11.00,+11.00
+3.00,-11.00,+1.00,+2.00,+14.00,+10.00,+24.00,+10.00,+31.00,+16.00,+1.00,+3.00,-28.00,-4.00,+8.00,+7.00
+10.00,+12.00,+7.00,-3.00,-9.00,-28.00,-54.00,-23.00,-14.00,+5.00,-2.00,-14.00,-8.00,-3.00,+6.00,-6.00
+9.00,+7.00,+2.00,+0.00,+23.00,+37.00,+41.00,+14.00,+5.00,+0.00,-1.00,-2.00,-3.00,-14.00,-3.00,-1.00
-18.00,-18.00,-1.00,+1.00,+18.00,+0.00,-4.00,-2.00,-3.00,+0.00,+1.00,-13.00,-9.00,+5.00,+9.00,+5.00
+0.00,-10.00,-4.00,-4.00,-5.00,-1.00,+6.00,+0.00,-3.00,-11.00,-6.00,+5.00,+6.00,-4.00,+5.00,+0.00
-11.00,-8.00,-7.00,-7.00,-15.00,+41.00,+13.00,+2.00,+11.00,-6.00,+0.00,+3.00,+2.00,-15.00,-10.00,+5.00
-3.00,+9.00,-2.00,-1.00,-25.00,-59.00,-17.00,-5.00,+0.00,+12.00,+5.00,-2.00,+0.00,+6.00,-7.00,-6.00
+3.00,-13.00,-4.00,-2.00,+38.00,+2.00,+1.00,+1.00,-28.00,+1.00,-1.00,+0.00,-12.00,+7.00,-16.00,-24.00
-7.00,+2.00,-6.00,-5.00,-17.00,-4.00,-37.00,-8.00,-39.00,-12.00,-5.00,+1.00,+9.00,+14.00,-19.00,-11.00
-3.00,-2.00,+4.00,+9.00,+20.00,+5.00,+67.00,+4.00,+54.00,-26.00,-10.00,+16.00,+5.00,-2.00,+33.00,-1.00
+15.00,+11.00,-1.00,-5.00,-8.00,+9.00,-7.00,+2.00,-45.00,+25.00,+7.00,+1.00,-4.00,+11.00,-31.00,+31.00
+12.00,-13.00,-2.00,-2.00,-4.00,+5.00,+13.00,+8.00,+0.00,+6.00,+0.00,+9.00,+5.00,+26.00,-14.00,+3.00
-7.00,+1.00,-1.00,-1.00,-5.00,-8.00,-15.00,-9.00,+30.00,+7.00,+2.00,-20.00,-24.00,-22.00,-1.00,+6.00
+0.00,+2.00,-5.00,-7.00,-32.00,+2.00,-8.00,+0.00,+1.00,-1.00,-2.00,+10.00,+21.00,-1.00,-11.00,-17.00
-4.00,+4.00,+3.00,+4.00,+34.00,+8.00,+1.00,+0.00,-1.00,-19.00,-13.00,-10.00,-14.00,+7.00,-15.00,-38.00
+0.00,+8.00,+2.00,+0.00,-9.00,-12.00,-11.00,-3.00,-21.00,-11.00,-11.00,-19.00,-4.00,-9.00,+10.00,+14.00
+0.00,+13.00,+3.00,+5.00,+17.00,+3.00,+8.00,+0.00,+4.00,+11.00,+1.00,+21.00,+20.00,-14.00,-52.00,-5.00
+7.00,+1.00,-2.00,-3.00,+8.00,+11.00,-15.00,-10.00,-13.00,-27.00,-2.00,-11.00,-23.00,+29.00,+79.00,+10.00
-12.00,-19.00,-10.00,-8.00,-30.00,-6.00,+17.00,-5.00,+13.00,+13.00,-1.00,-1.00,-32.00,-23.00,-13.00,+18.00
-6.00,-29.00,+2.00,+0.00,+10.00,+5.00,-25.00,-7.00,-12.00,-6.00,-5.00,-18.00,+16.00,-23.00,-6.00,-4.00
-21.00,-19.00,-10.00,-5.00,-11.00,-3.00,-55.00,-28.00,+15.00,-12.00,-7.00,+5.00,+2.00,+5.00,+9.00,-22.00
+14.00,+25.00,+10.00,+2.00,-1.00,-6.00,+46.00,+13.00,+13.00,+8.00,-5.00,-12.00,-3.00,+19.00,-8.00,-6.00
-17.00,-28.00,+0.00,-3.00,-3.00,-5.00,-54.00,-6.00,-11.00,+3.00,+2.00,+2.00,+22.00,-11.00,+18.00,+42.00
+0.00,+70.00,-5.00,-9.00,-19.00,-2.00,+51.00,+3.00,-1.00,-2.00,+8.00,+8.00,+2.00,+28.00,+1.00,-20.00
+2.00,-18.00,+6.00,+6.00,+5.00,+13.00,+21.00,+5.00,-19.00,+11.00,+2.00,+4.00,+0.00,-7.00,-15.00,-3.00
-12.00,-48.00,-8.00,-3.00,-1.00,-19.00,-83.00,-23.00,-8.00,+3.00,+1.00,+6.00,+4.00,-11.00,-33.00,+0.00
+7.00,+41.00,+9.00,+5.00,+14.00,-7.00,+17.00,+14.00,+55.00,-3.00,-2.00,-2.00,+15.00,+8.00,+16.00,+10.00
-19.00,-38.00,-9.00,-3.00,-7.00,+29.00,+42.00,-17.00,-36.00,-7.00,-2.00,+0.00,-27.00,-10.00,-3.00,-17.00
+12.00,+20.00,+4.00,+5.00,+21.00,-16.00,+44.00,+12.00,+25.00,+2.00,+2.00,-1.00,+20.00,+4.00,+11.00,+16.00
-15.00,-3.00,-6.00,-4.00,-3.00,+19.00,-7.00,-6.00,-69.00,+5.00,+6.00,+3.00,+6.00,+7.00,-11.00,-14.00
+3.00,-17.00,-1.00,-4.00,-22.00,-35.00,-21.00,+3.00,+13.00,-24.00,-5.00,-3.00,-5.00,-7.00,+18.00,+12.00
-4.00,-11.00,-2.00,+3.00,+10.00,-17.00,+18.00,+2.00,-44.00,-11.00,-2.00,+6.00,+11.00,+6.00,+10.00,-14.00
-5.00,+1.00,-6.00,-7.00,-16.00,+12.00,-29.00,-10.00,+26.00,+23.00,+4.00,-6.00,-16.00,-1.00,+3.00,+11.00
-3.00,+9.00,+3.00,+1.00,+5.00,-16.00,+26.00,+13.00,+39.00,+9.00,+2.00,+6.00,+14.00,-14.00,-13.00,+7.00
-29.00,-12.00,+1.00,+2.00,-3.00,+12.00,-9.00,-12.00,-56.00,-16.00,-6.00,+0.00,-4.00,-1.00,+11.00,-37.00
+10.00,+31.00,+3.00,-1.00,+0.00,+8.00,-43.00,-1.00,+29.00,-9.00,-4.00,-2.00,+0.00,-2.00,-14.00,+18.00
-21.00,-13.00,-10.00,-7.00,-29.00,+25.00,+7.00,-4.00,-10.00,+14.00,+1.00,-4.00,-13.00,-2.00,-12.00,+3.00
+34.00,-73.00,-4.00,+0.00,+34.00,+7.00,-48.00,+2.00,+11.00,+0.00,-4.00,+1.00,-7.00,+0.00,-8.00,+18.00
+22.00,+79.00,+24.00,+12.00,-4.00,-19.00,+34.00,-15.00,+19.00,+17.00,+10.00,+19.00,+0.00,+23.00,-1.00,-8.00
+17.00,+15.00,+7.00,+6.00,+19.00,+40.00,-29.00,+1.00,+0.00,+6.00,+1.00,-40.00,-21.00,-2.00,+23.00,+6.00
-18.00,+2.00,+5.00,+3.00,-6.00,+41.00,+53.00,+8.00,+12.00,-16.00,-2.00,+9.00,-2.00,-9.00,-10.00,-12.00
+2.00,+25.00,-9.00,-5.00,+6.00,-23.00,-1.00,+2.00,-60.00,-12.00,-6.00,-14.00,-4.00,+11.00,-20.00,-26.00
-5.00,-66.00,-9.00,-4.00,+4.00,+0.00,-11.00,-11.00,+38.00,+12.00,+0.00,-8.00,-9.00,-5.00,+5.00,+8.00
+18.00,-37.00,-6.00,-2.00,-12.00,-52.00,-6.00,-4.00,+28.00,+8.00,+6.00,+10.00,-10.00,-14.00,+3.00,+24.00
+18.00,+31.00,+2.00,-2.00,+7.00,+36.00,-53.00,+14.00,-26.00,-8.00,-2.00,+2.00,+30.00,+11.00,+4.00,-27.00
+2.00,+24.00,+11.00,+12.00,+15.00,+41.00,+82.00,-15.00,-25.00,-3.00,-3.00,+0.00,-4.00,-5.00,-4.00,+5.00
+70.00,+20.00,+6.00,+3.00,-17.00,-24.00,-7.00,+21.00,-15.00,-2.00,+1.00,-4.00,-7.00,-8.00,-3.00,+24.00
+5.00,+31.00,+2.00,+0.00,+20.00,+23.00,+61.00,-13.00,-10.00,-14.00,-5.00,+11.00,-2.00,-2.00,-13.00,-22.00
+14.00,-51.00,-9.00,-6.00,-14.00,-92.00,-10.00,+5.00,+0.00,+5.00,-2.00,-8.00,-3.00,-4.00,+25.00,+8.00
+3.00,+35.00,+5.00,+2.00,-5.00,+68.00,+19.00,+5.00,-6.00,+11.00,+8.00,+7.00,+8.00,+3.00,-5.00,-5.00
-9.00,+16.00,-15.00,-10.00,+0.00,-8.00,-30.00,+7.00,+4.00,-3.00,-1.00,-3.00,-2.00,-10.00,-12.00,-33.00
-13.00,-35.00,+0.00,+0.00,-22.00,-13.00,+67.00,+16.00,+33.00,+8.00,-3.00,-4.00,+0.00,-3.00,+1.00,+25.00
+9.00,+53.00,+5.00,+3.00,+16.00,+43.00,-17.00,-3.00,-65.00,-36.00,-10.00,-1.00,-5.00,-4.00,+2.00,-23.00
+0.00,-41.00,+4.00,+5.00,-25.00,-93.00,+14.00,+18.00,+12.00,-2.00,-6.00,+8.00,+12.00,-1.00,+11.00,+36.00
-33.00,-37.00,-17.00,-9.00,+18.00,+73.00,+14.00,-17.00,+2.00,-5.00,-7.00,-32.00,-36.00,+0.00,-11.00,-11.00
+3.00,-26.00,-5.00,-6.00,+4.00,+37.00,-23.00,+11.00,-18.00,+13.00,+5.00,+12.00,+17.00,-6.00,-4.00,-17.00
+2.00,+29.00,+5.00,-1.00,-7.00,-54.00,+7.00,-5.00,+33.00,+18.00,+8.00,-1.00,+5.00,+9.00,-8.00,-11.00
-27.00,-12.00,-2.00,-1.00,+0.00,-5.00,-22.00,-6.00,+26.00,-10.00,-2.00,-6.00,-14.00,-9.00,+15.00,+4.00
-13.00,+4.00,+2.00,-1.00,-36.00,+8.00,+1.00,-26.00,-55.00,-35.00,-4.00,+8.00,+14.00,-4.00,+11.00,+20.00
-15.00,+1.00,-15.00,-8.00,+21.00,-32.00,-41.00,-6.00,+8.00,+11.00,-5.00,-4.00,+0.00,-26.00,-21.00,-18.00
-33.00,-7.00,+6.00,-2.00,-14.00,-12.00,-23.00,-20.00,-47.00,-8.00,-2.00,+5.00,+32.00,+24.00,-30.00,-7.00
-9.00,-32.00,+1.00,+2.00,+11.00,+20.00,-7.00,+26.00,+8.00,+27.00,+3.00,-10.00,-11.00,+0.00,+26.00,-22.00
+11.00,+19.00,-1.00,+2.00,+11.00,+4.00,-9.00,+10.00,+70.00,+15.00,+5.00,+8.00,+12.00,-1.00,+13.00,+18.00
-9.00,-14.00,+5.00,-4.00,-15.00,-20.00,-23.00,-24.00,-12.00,-34.00,-5.00,-2.00,-7.00,-2.00,-7.00,+6.00
+32.00,+17.00,-17.00,-10.00,+4.00,+40.00,-27.00,-21.00,-19.00,-12.00,-4.00,+13.00,-12.00,-9.00,+15.00,+0.00
-27.00,-3.00,-5.00,-4.00,-9.00,+48.00,+74.00,+11.00,+22.00,+17.00,+5.00,-16.00,+6.00,+0.00,-8.00,+2.00
+30.00,+35.00,+3.00,+4.00,-4.00,-78.00,+2.00,+10.00,-24.00,-13.00,-18.00,-18.00,-5.00,-4.00,-3.00,+21.00
-26.00,+33.00,-2.00,-2.00,-42.00,-14.00,-23.00,-1.00,+0.00,-23.00,-2.00,-1.00,-11.00,-5.00,+19.00,-17.00
+15.00,-13.00,+6.00,+7.00,+58.00,-23.00,+20.00,+16.00,+24.00,+27.00,+1.00,-7.00,-14.00,+7.00,-23.00,+17.00
+2.00,+13.00,+1.00,-3.00,-12.00,+1.00,-21.00,+11.00,-37.00,-21.00,-8.00,+2.00,+1.00,+5.00,-18.00,-25.00
-29.00,-43.00,-8.00,-3.00,+13.00,+23.00,-8.00,+1.00,+4.00,+20.00,+9.00,+6.00,+2.00,-4.00,-4.00,-36.00
+2.00,+14.00,+3.00,-2.00,-13.00,-25.00,+7.00,-6.00,-11.00,+1.00,-1.00,+2.00,+4.00,+13.00,+18.00,+11.00
-17.00,+1.00,+5.00,+6.00,-5.00,-18.00,-14.00,-19.00,+33.00,-8.00,-5.00,-3.00,-2.00,-14.00,+6.00,+8.00
+9.00,-10.00,-4.00,-8.00,-4.00,+10.00,-19.00,+7.00,+19.00,+1.00,+6.00,+4.00,-3.00,-11.00,-26.00,-3.00
+13.00,+0.00,-4.00,-2.00,+4.00,+8.00,+10.00,-2.00,+2.00,+13.00,+4.00,+7.00,+4.00,+24.00,+7.00,-8.00
+2.00,-92.00,-13.00,-4.00,+2.00,-13.00,-24.00,+10.00,-20.00,-5.00,-3.00,+9.00,+8.00,+2.00,-5.00,+9.00
-7.00,+38.00,-1.00,-3.00,-7.00,+10.00,+10.00,+7.00,-7.00,-19.00,+1.00,-15.00,-16.00,+0.00,+5.00,-1.00
-7.00,+6.00,+2.00,-1.00,+4.00,-48.00,-54.00,-17.00,-30.00,+9.00,+7.00,+4.00,-6.00,+3.00,+0.00,-17.00
-18.00,+13.00,+2.00,+5.00,+6.00,+26.00,+73.00,-8.00,+50.00,+0.00,-4.00,-10.00,+5.00,-7.00,-8.00,-17.00
+24.00,+4.00,+11.00,+8.00,-1.00,+17.00,-6.00,+13.00,+21.00,+21.00,+4.00,+3.00,-1.00,+2.00,-8.00,+26.00
+5.00,-28.00,-8.00,-8.00,-13.00,+6.00,+18.00,+21.00,-22.00,-18.00,-2.00,-4.00,+1.00,-7.00,+17.00,+9.00
+1.00,+21.00,-5.00,-10.00,-8.00,+22.00,-45.00,-38.00,+8.00,+18.00,-3.00,-2.00,-10.00,+2.00,+14.00,-22.00
-16.00,-33.00,+0.00,+1.00,-13.00,-80.00,+15.00,+15.00,-7.00,-14.00,-3.00,+6.00,-7.00,-12.00,-44.00,+62.00
+14.00,+66.00,+13.00,+9.00,+7.00,+5.00,-42.00,+10.00,-43.00,+14.00,+3.00,+4.00,-1.00,+1.00,+4.00,-19.00
-53.00,-1.00,-2.00,+2.00,+8.00,-8.00,+19.00,+22.00,+65.00,+19.00,+6.00,-5.00,-3.00,-24.00,+1.00,-11.00
+2.00,-54.00,+1.00,+2.00,-5.00,-17.00,+3.00,+16.00,-83.00,-31.00,-6.00,-4.00,-4.00,+24.00,-31.00,+11.00
-26.00,-1.00,-4.00,-3.00,-12.00,+5.00,-99.00,-28.00,+42.00,+5.00,+2.00,+8.00,+13.00,-1.00,-9.00,-26.00
-25.00,-46.00,-8.00,-8.00,+8.00,+88.00,+15.00,-7.00,+2.00,-13.00,-4.00,-12.00,-13.00,+3.00,-31.00,+1.00
+22.00,+30.00,+7.00,+3.00,+9.00,-110.00,-41.00,-16.00,-21.00,+1.00,+0.00,+2.00,-7.00,-8.00,+0.00,+5.00
+33.00,+41.00,+0.00,+0.00,+4.00,-20.00,+13.00,-6.00,+21.00,-6.00,+4.00,+0.00,+8.00,-12.00,+21.00,+50.00
-3.00,-30.00,+3.00,+3.00,+5.00,+99.00,+3.00,+18.00,+26.00,+28.00,+2.00,+3.00,+6.00,+2.00,-17.00,-11.00
-12.00,+11.00,-4.00,+0.00,-2.00,-95.00,-7.00,+0.00,+18.00,+0.00,+8.00,+2.00,-2.00,+6.00,+6.00,+19.00
-6.00,-27.00,+0.00,+0.00,-43.00,+35.00,-22.00,-3.00,+35.00,-5.00,-10.00,-1.00,+1.00,-5.00,+15.00,-4.00
+21.00,+29.00,-5.00,+2.00,+41.00,-36.00,-29.00,-3.00,+22.00,-6.00,-1.00,+3.00,+11.00,+17.00,-10.00,-17.00
+11.00,-31.00,-7.00,-5.00,+5.00,-19.00,+58.00,-5.00,+18.00,-1.00,+6.00,+3.00,-1.00,+1.00,+26.00,+44.00
+1.00,+19.00,+1.00,-6.00,+11.00,+20.00,+55.00,+48.00,-29.00,-10.00,-6.00,+1.00,+6.00,+8.00,+18.00,-25.00
-12.00,-13.00,-1.00,-2.00,-13.00,+29.00,+46.00,-13.00,-34.00,-35.00,-4.00,-4.00,-6.00,+17.00,+6.00,-14.00
+11.00,+41.00,+3.00,+2.00,-15.00,-24.00,-18.00,+1.00,+15.00,+30.00,+2.00,+3.00,-2.00,-26.00,-5.00,+15.00
-28.00,-32.00,+11.00,+5.00,+13.00,+20.00,+0.00,-6.00,-5.00,-7.00,-2.00,+2.00,+5.00,+0.00,+11.00,-9.00
+6.00,+3.00,-8.00,-1.00,-4.00,+24.00,-10.00,-4.00,-9.00,+1.00,-4.00,+1.00,+15.00,-12.00,+4.00,-34.00
+31.00,+2.00,+5.00,+2.00,-5.00,-20.00,-10.00,+8.00,-3.00,+6.00,+1.00,-8.00,-25.00,+18.00,+8.00,+44.00
-26.00,-25.00,-15.00,-2.00,-7.00,+0.00,+17.00,-13.00,-27.00,-30.00,-8.00,+18.00,-5.00,+1.00,-52.00,-21.00
-35.00,+30.00,-15.00,-18.00,-15.00,+12.00,-11.00,-34.00,-18.00,+0.00,-5.00,-25.00,+26.00,+8.00,+39.00,-29.00
+52.00,+8.00,+3.00,-2.00,+16.00,-26.00,-1.00,+1.00,+8.00,-20.00,-6.00,-12.00,-13.00,-9.00,+10.00,+3.00
+17.00,-2.00,+7.00,+5.00,-3.00,+55.00,+24.00,+2.00,-50.00,+32.00,+9.00,+1.00,+1.00,-1.00,-12.00,-6.00
-43.00,-12.00,-6.00,-5.00,+12.00,-30.00,-34.00,-25.00,+104.00,+20.00,+6.00,-2.00,-7.00,-8.00,+10.00,+7.00
+1.00,+3.00,+2.00,+2.00,-2.00,-29.00,+64.00,+17.00,-72.00,-42.00,-7.00,+1.00,-10.00,+12.00,-12.00,-7.00
+1.00,+21.00,+2.00,+5.00,-4.00,-2.00,-24.00,-4.00,+15.00,+39.00,+2.00,+8.00,+9.00,+7.00,-1.00,+15.00
-5.00,-5.00,-6.00,-1.00,+8.00,+20.00,+31.00,+2.00,+13.00,+2.00,-4.00,-1.00,+9.00,-12.00,-10.00,-5.00
-14.00,-26.00,-2.00,-4.00,-25.00,-14.00,-31.00,-12.00,-28.00,-28.00,-4.00,+0.00,-6.00,-1.00,+4.00,+6.00
+11.00,+27.00,-2.00,-1.00,+12.00,+0.00,-2.00,-2.00,+59.00,+25.00,+3.00,+11.00,-2.00,-4.00,-2.00,-29.00
-1.00,-30.00,-4.00,-3.00,-6.00,-13.00,-64.00,-24.00,+17.00,-17.00,+3.00,-4.00,-5.00,+14.00,+16.00,+11.00
-20.00,-52.00,+0.00,+1.00,+2.00,-4.00,+75.00,+35.00,+19.00,+50.00,+3.00,+2.00,-1.00,-10.00,-26.00,+9.00
+3.00,+10.00,+2.00,-1.00,-9.00,+63.00,+32.00,+11.00,-6.00,+11.00,-4.00,-7.00,+2.00,-21.00,-49.00,-38.00
+27.00,+30.00,+15.00,+9.00,+23.00,-35.00,-59.00,-3.00,-11.00,-18.00,-4.00,-4.00,-7.00,+11.00,+0.00,+48.00
-10.00,-25.00,-7.00,-4.00,-5.00,+3.00,+12.00,-2.00,-8.00,-17.00,-7.00,-4.00,+0.00,+5.00,+7.00,-3.00
-12.00,+59.00,-14.00,-14.00,-9.00,-20.00,-49.00,-17.00,+36.00,+10.00,-4.00,-5.00,-4.00,-22.00,+7.00,+6.00
+13.00,+27.00,+7.00,+0.00,-1.00,+28.00,+16.00,+11.00,-29.00,-32.00,-1.00,+3.00,+9.00,+45.00,-6.00,-5.00
+6.00,+1.00,-4.00,-1.00,-7.00,+3.00,+2.00,+19.00,-49.00,-14.00,-1.00,-8.00,+0.00,-31.00,-11.00,+22.00
-10.00,-20.00,+10.00,+8.00,+7.00,+5.00,+1.00,+4.00,+70.00,+73.00,+12.00,+12.00,-6.00,+13.00,-29.00,-10.00
-13.00,-24.00,-10.00,-3.00,-3.00,+6.00,-30.00,-15.00,-15.00,-57.00,-7.00,+1.00,-32.00,-9.00,+29.00,-22.00
-13.00,-3.00,+4.00,+3.00,-4.00,+1.00,+30.00,-3.00,-34.00,+24.00,+3.00,+28.00,+47.00,-10.00,+5.00,+11.00
+19.00,+7.00,-5.00,-8.00,-7.00,-3.00,-17.00,+11.00,-10.00,+7.00,-6.00,-54.00,-72.00,-15.00,+30.00,-13.00
-35.00,-3.00,+4.00,-1.00,+3.00,+23.00,+12.00,-3.00,-6.00,-17.00,+5.00,+9.00,+7.00,-7.00,-41.00,-33.00
+50.00,+2.00,+6.00,+1.00,+5.00,-10.00,+3.00,+13.00,-20.00,-25.00,-7.00,-10.00,-18.00,-3.00,-29.00,-30.00
-10.00,+17.00,+2.00,+4.00,+3.00,-14.00,-45.00,-18.00,-8.00,-20.00,-9.00,-14.00,-25.00,-16.00,+25.00,+4.00
+27.00,-3.00,-2.00,+1.00,-14.00,+30.00,+58.00,-45.00,-27.00,+14.00,+5.00,+14.00,+28.00,+34.00,+10.00,-4.00
-37.00,-8.00,-2.00,+2.00,+18.00,-65.00,-33.00,+17.00,+14.00,-13.00,-6.00,+3.00,+30.00,-23.00,-51.00,+15.00
+52.00,-13.00,-1.00,-9.00,-30.00,-31.00,+47.00,+23.00,+44.00,+22.00,+10.00,+17.00,+15.00,-2.00,+60.00,-26.00
-47.00,-10.00,-6.00,-1.00,+14.00,+75.00,+42.00,+5.00,+9.00,+5.00,+0.00,-21.00,-40.00,-23.00,-66.00,+10.00
-12.00,-23.00,-3.00,+4.00,+11.00,-5.00,+36.00,-10.00,-36.00,+3.00,-6.00,-3.00,-3.00,-3.00,+9.00,-63.00
+13.00,+21.00,+6.00,+5.00,+24.00,-30.00,-47.00,-18.00,-54.00,-45.00,-5.00,-13.00,-10.00,+1.00,+21.00,+65.00
-22.00,+31.00,+8.00,+7.00,+15.00,-88.00,-48.00,-28.00,-24.00,-13.00,+1.00,+22.00,+24.00,+5.00,-16.00,-1.00
+81.00,-34.00,-3.00,-4.00,-20.00,+26.00,+42.00,+13.00,+13.00,-36.00,-5.00,-3.00,+4.00,+1.00,+28.00,-43.00
+5.00,+27.00,-1.00,-8.00,-24.00,-57.00,-29.00,+41.00,-33.00,+64.00,-2.00,+16.00,+26.00,-18.00,-10.00,-25.00
-13.00,-15.00,-6.00,-3.00,-10.00,+23.00,+39.00,-21.00,-15.00,+18.00,+14.00,+14.00,+11.00,+9.00,+1.00,+1.00
-66.00,-13.00,+0.00,+2.00,-8.00,-3.00,-24.00,-1.00,+32.00,-16.00,-10.00,-32.00,-40.00,-15.00,-13.00,+44.00
+16.00,-2.00,+1.00,+0.00,-2.00,-7.00,-9.00,-5.00,+18.00,+0.00,-4.00,-10.00,+9.00,+9.00,+38.00,+13.00
-13.00,-40.00,-8.00,-6.00,+2.00,+25.00,+0.00,-24.00,-14.00,-66.00,-5.00,+20.00,+5.00,+2.00,-24.00,-29.00
+13.00,+37.00,+6.00,-1.00,-9.00,+5.00,-16.00,+32.00,+2.00,+35.00,+5.00,+0.00,-12.00,-21.00,+14.00,-17.00
-22.00,-30.00,-7.00,+0.00,+7.00,+23.00,-11.00,-11.00,+18.00,+9.00,-11.00,-41.00,+19.00,+28.00,-20.00,+24.00
-16.00,+36.00,+10.00,+1.00,+3.00,-1.00,-34.00,-8.00,-33.00,+10.00,+7.00,-2.00,+5.00,-2.00,+23.00,-15.00
+11.00,+73.00,+1.00,+0.00,-1.00,-29.00,-18.00,+5.00,+9.00,-14.00,+0.00,+10.00,-12.00,-10.00,-78.00,+7.00
-51.00,-86.00,-12.00,-1.00,-8.00,-13.00,-3.00,-32.00,-29.00,-17.00,-11.00,-24.00,-30.00,+2.00,+57.00,-25.00
+87.00,-8.00,-7.00,-3.00,-3.00,+60.00,+34.00,+7.00,+3.00,-1.00,+3.00,+14.00,-35.00,-8.00,+30.00,+31.00
-27.00,+17.00,+2.00,-2.00,+12.00,+15.00,-13.00,-9.00,+45.00,+27.00,+5.00,-7.00,-7.00,-14.00,-2.00,+43.00
-42.00,-57.00,-6.00,-4.00,-9.00,-14.00,-39.00,+36.00,-7.00,+6.00,+9.00,+28.00,+41.00,+4.00,+0.00,+1.00
+12.00,+57.00,+0.00,-3.00,-49.00,-6.00,+48.00,-8.00,+11.00,-20.00,-7.00,+1.00,+16.00,-16.00,-8.00,-39.00
-19.00,-5.00,-1.00,-1.00,+18.00,+59.00,-102.00,-7.00,-18.00,-1.00,+0.00,-5.00,-18.00,+25.00,-7.00,+25.00
+39.00,-16.00,-9.00,-1.00,+28.00,-54.00,-29.00,-34.00,-11.00,-6.00,+4.00,+3.00,+48.00,+12.00,+5.00,-3.00
+52.00,+14.00,-1.00,-5.00,-57.00,-24.00,-1.00,+21.00,-38.00,-2.00,+0.00,-9.00,-19.00,-17.00,+27.00,-16.00
+28.00,+14.00,+9.00,+11.00,+35.00,-34.00,+4.00,+31.00,-10.00,-29.00,-3.00,+4.00,-13.00,-13.00,-8.00,-7.00
-9.00,-28.00,+2.00,+9.00,+84.00,+35.00,-39.00,+4.00,+19.00,+37.00,+7.00,+13.00,-17.00,+0.00,-18.00,-15.00
-13.00,+18.00,-3.00,-9.00,-32.00,-58.00,-12.00,-38.00,-18.00,+14.00,+1.00,-7.00,+4.00,-6.00,+1.00,+14.00
-32.00,+11.00,+0.00,-1.00,-25.00,+8.00,-56.00,-15.00,-56.00,-43.00,-11.00,-16.00,-52.00,-1.00,-5.00,+24.00
+36.00,+2.00,+0.00,+0.00,+38.00,+70.00,+36.00,+21.00,+12.00,+14.00,-7.00,-18.00,+6.00,-2.00,-6.00,-9.00
-22.00,+38.00,-1.00,-1.00,-16.00,+8.00,-21.00,+9.00,-26.00,-31.00,+0.00,+17.00,+43.00,-3.00,-10.00,-32.00
-42.00,-48.00,+7.00,+7.00,+9.00,-8.00,+11.00,+38.00,+9.00,+0.00,+1.00,-3.00,-21.00,+8.00,+6.00,-9.00
+41.00,-51.00,+2.00,+3.00,+12.00,-36.00,+30.00,+4.00,+9.00,-8.00,+0.00,+2.00,+1.00,-2.00,+0.00,-1.00
-48.00,+2.00,-17.00,-13.00,-43.00,-15.00,-21.00,+3.00,+31.00,-2.00,-10.00,+8.00,-3.00,-4.00,-6.00,-14.00
-12.00,-37.00,+2.00,+2.00,-6.00,-18.00,+20.00,-27.00,-26.00,-9.00,+6.00,+31.00,+97.00,+20.00,-29.00,+13.00
+40.00,+93.00,-6.00,-10.00,-13.00,+15.00,+10.00,+16.00,+0.00,+31.00,+3.00,-14.00,-26.00,-9.00,+0.00,-14.00
+58.00,-4.00,+1.00,+3.00,+24.00,-17.00,-20.00,-5.00,+89.00,+39.00,+7.00,-5.00,+3.00,-2.00,+26.00,+22.00
+62.00,+29.00,+3.00,-4.00,-15.00,+32.00,+28.00,-20.00,-19.00,+3.00,-11.00,-11.00,+1.00,+6.00,-10.00,-17.00
-20.00,-2.00,+0.00,-4.00,-11.00,-24.00,+14.00,+3.00,-5.00,-25.00,-6.00,+18.00,+18.00,-24.00,-20.00,-21.00
-9.00,-27.00,-4.00,+1.00,-17.00,+1.00,+9.00,+11.00,-30.00,+1.00,+0.00,+1.00,-29.00,+27.00,+43.00,-14.00
-5.00,-18.00,-1.00,-6.00,-34.00,+10.00,-34.00,+8.00,+51.00,+2.00,+7.00,+36.00,+79.00,+8.00,+5.00,+24.00
-2.00,-17.00,-5.00,+0.00,-17.00,+3.00,+9.00,-15.00,+27.00,+7.00,-4.00,-39.00,-84.00,+5.00,+1.00,+17.00
-17.00,+13.00,+9.00,+9.00,+14.00,-30.00,+29.00,+3.00,-78.00,-56.00,-7.00,-26.00,-23.00,-5.00,+2.00,-58.00
-13.00,-34.00,-5.00,-6.00,-11.00,-4.00,+54.00,+7.00,+81.00,+24.00,+3.00,-4.00,+49.00,+4.00,-5.00,+56.00
-53.00,+35.00,-2.00,+2.00,+61.00,+65.00,+3.00,-37.00,-67.00,-49.00,-12.00,-1.00,-29.00,+6.00,-1.00,-45.00
+39.00,-27.00,+0.00,-1.00,-20.00,-71.00,-35.00,+38.00,+67.00,+62.00,+10.00,+5.00,+27.00,+0.00,+3.00,+65.00
-10.00,+8.00,-1.00,-2.00,-22.00,+44.00,+61.00,+2.00,+3.00,-12.00,-9.00,+2.00,-1.00,+5.00,+29.00,+56.00
+14.00,+43.00,+9.00,+5.00,-30.00,-80.00,-4.00,+11.00,-64.00,+3.00,-7.00,-15.00,-25.00,-25.00,-39.00,-26.00
-23.00,-44.00,-10.00,-5.00,+38.00,+51.00,-22.00,-8.00,+37.00,-16.00,-4.00,+31.00,+6.00,+2.00,-27.00,+2.00
+5.00,+33.00,-11.00,-5.00,+33.00,+17.00,+27.00,+13.00,+21.00,+36.00,+17.00,-21.00,-33.00,-2.00,+0.00,+1.00
+16.00,-3.00,+2.00,-3.00,-14.00,-38.00,-12.00,-10.00,-25.00,-21.00,+0.00,-20.00,-22.00,-6.00,-13.00,-21.00
-15.00,-18.00,-5.00,-3.00,+4.00,-8.00,-18.00,+10.00,-22.00,-39.00,-36.00,+22.00,-3.00,-3.00,+13.00,+6.00
+23.00,+55.00,+7.00,+3.00,-13.00,+8.00,+19.00,+4.00,+99.00,+29.00,+3.00,-23.00,-31.00,-3.00,+17.00,+38.00
-47.00,-68.00,+0.00,+2.00,+26.00,+5.00,-32.00,-13.00,-128.00,-50.00,-1.00,+37.00,+1.00,+15.00,-3.00,+2.00
+4.00,+1.00,-3.00,-2.00,+4.00,-6.00,-7.00,-6.00,+50.00,+36.00,+14.00,+9.00,+20.00,-19.00,+6.00,-23.00
-14.00,-121.00,-14.00,-2.00,+24.00,+52.00,-10.00,-15.00,-16.00,+1.00,-3.00,-8.00,-54.00,+15.00,+11.00,-1.00
+38.00,+61.00,+13.00,+4.00,-12.00,-21.00,+8.00,-1.00,+5.00,-4.00,-6.00,-33.00,+8.00,-6.00,+19.00,+15.00
-36.00,+16.00,-2.00,-8.00,-19.00,+15.00,+10.00,-16.00,+0.00,-29.00,-12.00,-4.00,+6.00,-12.00,-29.00,-11.00
-38.00,+19.00,+1.00,-5.00,-34.00,+4.00,+5.00,+12.00,+34.00,+52.00,+7.00,+3.00,+4.00,+11.00,+5.00,+36.00
-60.00,+5.00,-11.00,-3.00,-9.00,-22.00,-33.00,-2.00,+13.00,-40.00,+4.00,+8.00,-12.00,+5.00,+26.00,+15.00
+4.00,-20.00,+0.00,+4.00,+0.00,+32.00,+12.00,-6.00,-52.00,+18.00,+0.00,-10.00,-7.00,-6.00,+5.00,-17.00
+19.00,-27.00,-2.00,-7.00,-104.00,-3.00,+0.00,-10.00,+0.00,-14.00,+4.00,+9.00,+20.00,+9.00,+32.00,+16.00
-6.00,-13.00,+6.00,+24.00,+89.00,+22.00,+37.00,-1.00,+13.00,+39.00,+0.00,-11.00,-28.00,-8.00,+4.00,+4.00
+78.00,+56.00,-5.00,-3.00,-27.00,-9.00,-12.00,+15.00,-38.00,-40.00,-9.00,+23.00,+26.00,-10.00,-40.00,-54.00
-12.00,-8.00,-3.00,-1.00,-21.00,-4.00,-2.00,-23.00,+10.00,+50.00,+9.00,-16.00,+47.00,+4.00,+14.00,-14.00
-28.00,-8.00,+5.00,-1.00,-9.00,-26.00,-93.00,+5.00,+27.00,-27.00,-10.00,-1.00,+6.00,+6.00,+2.00,-10.00
+59.00,+3.00,-3.00,-10.00,-30.00,+51.00,+58.00,+8.00,-25.00,+14.00,+4.00,-1.00,-49.00,+0.00,-18.00,-74.00
+10.00,-11.00,+9.00,+8.00,+1.00,-50.00,+75.00,+15.00,-11.00,-12.00,+0.00,+12.00,+26.00,-4.00,+35.00,+4.00
-1.00,-15.00,+1.00,+2.00,-35.00,-59.00,+9.00,+23.00,-44.00,-44.00,+0.00,+3.00,+14.00,+3.00,-32.00,-17.00
-61.00,-40.00,-2.00,+3.00,+2.00,+47.00,+10.00,-45.00,+48.00,+18.00,+2.00,+8.00,+34.00,-8.00,-9.00,+5.00
+41.00,+66.00,-2.00,-8.00,-29.00,-21.00,-36.00,-7.00,-24.00,-10.00,-14.00,-10.00,-29.00,-4.00,+12.00,+18.00
-59.00,-38.00,-6.00,-4.00,+29.00,-42.00,-16.00,+5.00,+5.00,+27.00,+10.00,+7.00,+64.00,-7.00,-23.00,-34.00
-25.00,-29.00,-9.00,-7.00,-45.00,-14.00,+3.00,-13.00,-19.00,-18.00,-6.00,-32.00,-48.00,-12.00,+1.00,-36.00
+81.00,+24.00,+1.00,+4.00,+22.00,-27.00,+5.00,+28.00,-1.00,+25.00,-4.00,-5.00,+10.00,+18.00,+13.00,+29.00
-11.00,-18.00,+2.00,+2.00,+2.00,-13.00,-22.00,+5.00,+11.00,+7.00,-4.00,-7.00,+8.00,-28.00,-9.00,+11.00
+50.00,+2.00,-1.00,+2.00,+100.00,+11.00,-12.00,-20.00,+66.00,+17.00,+23.00,+16.00,-2.00,-1.00,+11.00,-9.00
-5.00,+14.00,-2.00,-2.00,+127.00,-3.00,+10.00,+8.00,+9.00,+9.00,+4.00,+28.00,+9.00,+21.00,+31.00,+54.00
-36.00,+8.00,+3.00,+10.00,+127.00,-3.00,+8.00,+1.00,-27.00,+10.00,+0.00,-30.00,-19.00,-3.00,-15.00,-15.00
-33.00,-28.00,-8.00,-12.00,+127.00,-44.00,-1.00,-10.00,-20.00,-30.00,-9.00,-12.00,+33.00,+0.00,-32.00,-4.00
+47.00,+57.00,+3.00,-1.00,+108.00,+6.00,-22.00,-28.00,-1.00,+32.00,-3.00,-40.00,-74.00,-19.00,+36.00,+11.00
-27.00,+17.00,+3.00,-3.00,+76.00,-5.00,-54.00,-10.00,-6.00,-14.00,-6.00,+10.00,+18.00,-11.00,-17.00,+0.00
+21.00,+7.00,+2.00,+12.00,+118.00,+16.00,+91.00,+19.00,-2.00,-10.00,-4.00,+35.00,-58.00,-5.00,+28.00,+0.00
-24.00,-55.00,-4.00,-8.00,-69.00,-7.00,+84.00,-4.00,-56.00,-15.00,-9.00,-40.00,+7.00,-4.00,-13.00,-50.00
+28.00,+54.00,+3.00,-2.00,-30.00,+20.00,+3.00,+12.00,+29.00,+17.00,+5.00,-4.00,+6.00,+9.00,-49.00,+3.00
-12.00,+18.00,+2.00,+8.00,-16.00,+65.00,+0.00,+1.00,-32.00,-7.00,-5.00,-2.00,-2.00,+6.00,+22.00,+30.00
-30.00,-14.00,-7.00,-8.00,-119.00,-32.00,-33.00,-29.00,+35.00,-18.00,-4.00,+21.00,+2.00,+3.00,+21.00,+71.00
+9.00,-24.00,-9.00,-5.00,-113.00,-32.00,+15.00,-7.00,+8.00,+16.00,-7.00,+23.00,+37.00,-2.00,-18.00,-1.00
-50.00,-6.00,+7.00,+4.00,-119.00,+39.00,+0.00,-29.00,+81.00,+24.00,-3.00,-46.00,-46.00,+2.00,+16.00,+78.00
+1.00,+26.00,-2.00,-5.00,-122.00,-37.00,+8.00,+20.00,-44.00,-35.00,-18.00,-40.00,-74.00,-24.00,-8.00,-1.00
+6.00,+25.00,+8.00,+7.00,-128.00,+0.00,-30.00,-19.00,+18.00,+9.00,+12.00,-3.00,+19.00,+1.00,-31.00,-33.00
-7.00,-9.00,-3.00,-6.00,-124.00,-5.00,-19.00,+22.00,-45.00,-12.00,+5.00,+46.00,+30.00,+13.00,+7.00,+8.00
+4.00,-27.00,+2.00,-13.00,-128.00,-6.00,-4.00,+32.00,+17.00,-20.00,+4.00,+9.00,+71.00,+12.00,+6.00,+14.00
+49.00,-42.00,-12.00,+6.00,-45.00,+32.00,+6.00,+20.00,+109.00,+27.00,+8.00,+6.00,+5.00,+6.00,+12.00,+3.00
+31.00,+20.00,-12.00,-16.00,-91.00,+19.00,-7.00,-13.00,+1.00,-9.00,-13.00,-30.00,+8.00,-12.00,-21.00,-34.00
-69.00,-13.00,+5.00,+11.00,+46.00,-9.00,-24.00,-15.00,-36.00,+24.00,+0.00,-6.00,-15.00,+9.00,+24.00,+24.00
+68.00,+86.00,+12.00,+6.00,-55.00,+15.00,+0.00,+17.00,-21.00,-6.00,+6.00,+30.00,-11.00,-5.00,+1.00,-13.00
-43.00,-45.00,+0.00,-7.00,-98.00,+42.00,-22.00,-10.00,-44.00,+7.00,-2.00,-3.00,-11.00,+20.00,-4.00,-7.00
+22.00,-79.00,-6.00,+9.00,+57.00,+57.00,+17.00,+17.00,-33.00,-5.00,+9.00,+48.00,+69.00,+0.00,+13.00,-4.00
+32.00,+85.00,+3.00,-15.00,-14.00,+26.00,-15.00,-3.00,+20.00,-1.00,+0.00,-4.00,-13.00,+8.00,+6.00,+9.00
-60.00,+9.00,-1.00,-1.00,-17.00,+42.00,-2.00,+6.00,-107.00,-64.00,-20.00,-8.00,-8.00,+1.00,-4.00,-36.00
+43.00,-43.00,-8.00,-13.00,-14.00,-48.00,-8.00,+7.00,+18.00,-3.00,+11.00,+35.00,-6.00,-4.00,-4.00,-9.00
+6.00,-18.00,-9.00,-5.00,+4.00,-43.00,-101.00,-32.00,-1.00,+66.00,+10.00,-17.00,+37.00,+11.00,-27.00,-9.00
+44.00,-45.00,-2.00,+6.00,-67.00,-16.00,+40.00,+28.00,-2.00,-27.00,+0.00,-10.00,-15.00,-4.00,-7.00,-8.00
-94.00,+14.00,+4.00,-9.00,+4.00,+13.00,+1.00,-5.00,-53.00,-3.00,-5.00,+19.00,-7.00,-7.00,-24.00,-36.00
-18.00,+4.00,+9.00,+13.00,+106.00,+59.00,-40.00,+8.00,-48.00,-50.00,-17.00,-25.00,-3.00,-11.00,-10.00,-42.00
-30.00,+63.00,+6.00,-5.00,-71.00,-41.00,+15.00,+6.00,+29.00,+2.00,+3.00,-6.00,-45.00,+1.00,+12.00,+4.00
+41.00,+4.00,-9.00,-2.00,+15.00,+5.00,+29.00,+16.00,+24.00,-24.00,+0.00,+0.00,-2.00,-4.00,-3.00,-12.00
+37.00,-18.00,-3.00,+8.00,+29.00,-22.00,-1.00,-18.00,+38.00,+51.00,+11.00,-2.00,-31.00,-7.00,-14.00,+9.00
+37.00,+17.00,+0.00,-5.00,-79.00,+2.00,+1.00,-22.00,-34.00,-25.00,-8.00,-14.00,-52.00,-10.00,-15.00,-12.00
-10.00,+9.00,-3.00,+2.00,+93.00,+57.00,+42.00,-9.00,-5.00,+0.00,-3.00,+28.00,+24.00,+1.00,-25.00,+2.00
-38.00,-68.00,-3.00,+8.00,+37.00,-11.00,-54.00,+12.00,+28.00,+9.00,+2.00,-63.00,-31.00,+1.00,+12.00,+8.00
+94.00,+9.00,+2.00,+13.00,+15.00,-19.00,+19.00,+25.00,+25.00,+6.00,+1.00,+2.00,-4.00,-2.00,+10.00,+14.00
-22.00,+20.00,-3.00,-4.00,+39.00,-18.00,+7.00,-7.00,+24.00,+4.00,-6.00,+17.00,+49.00,+6.00,-8.00,-9.00
-12.00,+53.00,+10.00,-9.00,-22.00,-4.00,+14.00,+38.00,-3.00,+18.00,+12.00,-23.00,-55.00,-6.00,+6.00,-8.00
+68.00,+55.00,+8.00,-2.00,-22.00,-10.00,-72.00,-32.00,+4.00,-4.00,-5.00,+16.00,-3.00,-1.00,+8.00,+16.00
-56.00,-48.00,-16.00,-8.00,-15.00,+15.00,+66.00,+5.00,-19.00,-10.00,+0.00,-1.00,+9.00,+8.00,+2.00,+4.00
-4.00,-22.00,+8.00,+6.00,+39.00,-20.00,-3.00,-5.00,-38.00,+11.00,-7.00,-21.00,-8.00,-7.00,-9.00,+9.00
-64.00,-3.00,+4.00,+11.00,+28.00,-17.00,+18.00,+12.00,-52.00,-56.00,-3.00,+7.00,+31.00,-2.00,-3.00,-3.00
+53.00,+81.00,+10.00,+7.00,+49.00,+5.00,-15.00,+3.00,+24.00,+29.00,+6.00,+24.00,+12.00,+0.00,-13.00,-3.00
-22.00,-76.00,-14.00,-20.00,-21.00,-88.00,-40.00,-3.00,-34.00,+4.00,-10.00,-37.00,-12.00,+14.00,+7.00,-7.00
+27.00,+23.00,-5.00,+7.00,+67.00,+72.00,+26.00,-26.00,+71.00,+27.00,+2.00,+12.00,+51.00,-2.00,-3.00,+28.00
-26.00,-64.00,-12.00,-12.00,-25.00,-57.00,+19.00,+25.00,+17.00,-31.00,-11.00,-4.00,-8.00,-4.00,+3.00,-22.00
-28.00,+28.00,+11.00,+4.00,+23.00,+9.00,-16.00,-56.00,+78.00,-8.00,-3.00,+3.00,-1.00,+3.00,+2.00,+21.00
+14.00,-18.00,-5.00,-3.00,-31.00,-8.00,-56.00,+14.00,-56.00,+24.00,+6.00,+8.00,+47.00,-7.00,-8.00,-41.00
-72.00,-8.00,-7.00,-13.00,-101.00,-128.00,+21.00,+37.00,+3.00,+6.00,+7.00,+5.00,+58.00,+8.00,+1.00,+3.00
+64.00,+11.00,+6.00,+19.00,+116.00,+57.00,-13.00,+2.00,-5.00,-12.00,+0.00,+1.00,+23.00,+4.00,+7.00,+21.00
-67.00,-32.00,-6.00,-5.00,-55.00,-40.00,+11.00,+2.00,+34.00,-11.00,-2.00,+14.00,-2.00,-19.00,+10.00,+30.00
-2.00,-8.00,+3.00,+2.00,+38.00,+17.00,-6.00,-26.00,+24.00,-20.00,-7.00,-12.00,+17.00,-11.00,-24.00,-34.00
-66.00,-5.00,-1.00,-5.00,-57.00,-50.00,-23.00,-33.00,-22.00,+38.00,+13.00,+4.00,-37.00,-1.00,+3.00,-9.00
+16.00,+12.00,-1.00,-7.00,-61.00,+52.00,+50.00,+4.00,+17.00,-18.00,-14.00,-13.00,-26.00,-7.00,-6.00,+4.00
-33.00,-70.00,-13.00,-4.00,+73.00,-36.00,-20.00,-30.00,-80.00,-18.00,+8.00,+14.00,+20.00,+17.00,+12.00,-4.00
+21.00,+104.00,+16.00,+13.00,+60.00,+55.00,+7.00,-25.00,+87.00,+40.00,+13.00,+24.00,-3.00,+1.00,+5.00,+31.00
-5.00,+33.00,+4.00,-3.00,+3.00,+34.00,+23.00,+29.00,+15.00,-3.00,-13.00,-11.00,-41.00,-2.00,+3.00,+23.00
-49.00,+38.00,-1.00,-6.00,-37.00,-77.00,-30.00,-23.00,-34.00,+8.00,+9.00,+23.00,+26.00,+2.00,-13.00,-26.00
+87.00,-20.00,+1.00,+7.00,+20.00,+2.00,+21.00,+32.00,+42.00,-10.00,-7.00,-10.00,-21.00,-2.00,+14.00,-4.00
-20.00,-28.00,-5.00,-16.00,-68.00,-21.00,-8.00,-5.00,+66.00,-62.00,-10.00,-3.00,-55.00,-3.00,+3.00,+15.00
-11.00,-43.00,-5.00,+6.00,+82.00,+28.00,+4.00,+9.00,-16.00,-25.00,+2.00,+14.00,-4.00,-2.00,+9.00,-5.00
+22.00,-30.00,-2.00,-7.00,-40.00,+0.00,+1.00,-17.00,-2.00,+28.00,-5.00,-8.00,-53.00,-13.00,-11.00,-34.00
+5.00,+38.00,+5.00,+1.00,-16.00,+19.00,-2.00,+14.00,-36.00,+22.00,+5.00,-1.00,-14.00,-2.00,-7.00,+39.00
-50.00,-2.00,-9.00,+3.00,-9.00,-7.00,-16.00,-13.00,+72.00,+2.00,-3.00,+11.00,+33.00,+8.00,+21.00,+18.00
+22.00,+16.00,+0.00,-24.00,-73.00,-1.00,+7.00,+25.00,+3.00,+14.00,+3.00,+19.00,-8.00,+0.00,-12.00,-20.00
+55.00,-38.00,-18.00,-14.00,-76.00,-1.00,-8.00,+1.00,+32.00,-2.00,+5.00,-2.00,+21.00,+7.00,+5.00,-3.00
-39.00,-16.00,-9.00,+4.00,+46.00,-66.00,-6.00,-12.00,-74.00,-31.00,+1.00,+57.00,+1.00,+1.00,-2.00,-25.00
-4.00,-28.00,+14.00,+18.00,-2.00,+36.00,+9.00,-5.00,+13.00,+25.00,-6.00,-31.00,+2.00,-1.00,+2.00,+28.00
+13.00,-4.00,-13.00,-6.00,+6.00,-22.00,-2.00,+7.00,+76.00,+12.00,+5.00,-16.00,-26.00,-10.00,+1.00,+22.00
+49.00,+62.00,+15.00,+4.00,-12.00,+46.00,+3.00,-4.00,-43.00,+24.00,-7.00,-20.00,+8.00,-2.00,+2.00,-31.00
-21.00,-1.00,+5.00,+7.00,-116.00,-21.00,-14.00,+35.00,-60.00,-48.00,-19.00,-9.00,+20.00,-3.00,-22.00,-52.00
+45.00,+28.00,-6.00,-10.00,-65.00,+0.00,-19.00,-3.00,-114.00,+1.00,+16.00,+36.00,+27.00,+9.00,+16.00,+14.00
-42.00,-23.00,+5.00,+15.00,+57.00,-15.00,-1.00,-29.00,+46.00,+31.00,+2.00,-13.00,-2.00,-2.00,-4.00,-4.00
-14.00,+6.00,-3.00,-1.00,+58.00,+15.00,+2.00,+4.00,+46.00,-12.00,+0.00,+14.00,+3.00,+5.00,+4.00,+42.00
+17.00,+80.00,-2.00,-7.00,-35.00,+22.00,+3.00,-6.00,+18.00,-20.00,+6.00,-10.00,-29.00,+4.00,+5.00,+22.00
-97.00,-14.00,-1.00,+4.00,+32.00,+48.00,+27.00,-12.00,-21.00,+1.00,-20.00,-16.00,+4.00,-2.00,+0.00,-8.00
+53.00,-36.00,+3.00,-7.00,-99.00,+14.00,-5.00,+39.00,-77.00,-7.00,-8.00,-37.00,-34.00,-5.00,-14.00,-27.00
+16.00,+16.00,+5.00,+0.00,+26.00,-36.00,-62.00,-5.00,-56.00,+25.00,-1.00,-16.00,-7.00,+2.00,+20.00,+11.00
+38.00,+20.00,-5.00,-5.00,+17.00,+25.00,-45.00,-25.00,+43.00,+18.00,+3.00,+11.00,+18.00,+1.00,-13.00,-52.00
-7.00,+2.00,-2.00,+0.00,+32.00,-18.00,-40.00,+3.00,+32.00,+3.00,-14.00,-64.00,-74.00,-14.00,+7.00,+57.00
-12.00,-21.00,-6.00,-4.00,-9.00,+6.00,+40.00,+4.00,+0.00,-28.00,+29.00,+44.00,+19.00,+7.00,-11.00,+65.00
-54.00,-43.00,+1.00,+12.00,+6.00,-69.00,-6.00,-35.00,+18.00,+14.00,-38.00,-33.00,+7.00,+0.00,-6.00,-2.00
-69.00,-44.00,-18.00,-14.00,-22.00,+35.00,-6.00,+3.00,-58.00,+17.00,+15.00,-16.00,-4.00,+22.00,+11.00,-19.00
+36.00,+22.00,+0.00,-6.00,+27.00,-7.00,+0.00,+35.00,+20.00,+19.00,-3.00,+1.00,+48.00,-12.00,-15.00,-43.00
+51.00,+50.00,+5.00,+12.00,-1.00,-90.00,-21.00,-18.00,-34.00,-49.00,-8.00,+7.00,+44.00,-8.00,-2.00,-33.00
+17.00,+45.00,+7.00,+1.00,+69.00,+51.00,-1.00,-37.00,-38.00,-38.00,-7.00,+3.00,-54.00,+3.00,+26.00,-27.00
-26.00,-20.00,-1.00,-5.00,+58.00,+13.00,+13.00,+17.00,+71.00,+23.00,+3.00,-9.00,+28.00,+10.00,-35.00,+23.00
+55.00,-43.00,-8.00,-11.00,-72.00,-20.00,+30.00,+31.00,-74.00,-22.00,-1.00,+17.00,-22.00,+0.00,+6.00,+6.00
-1.00,-10.00,+9.00,+14.00,+54.00,+52.00,-16.00,-20.00,-5.00,+27.00,+7.00,-23.00,-33.00,-1.00,+1.00,+14.00
+1.00,+38.00,+3.00,-6.00,-19.00,+7.00,+18.00,+1.00,+49.00,-25.00,+5.00,+8.00,+21.00,+9.00,-4.00,+3.00
-47.00,+22.00,-3.00,-3.00,-18.00,-18.00,+3.00,-25.00,-86.00,-11.00,-15.00,-32.00,+11.00,-13.00,-3.00,-47.00
-46.00,-77.00,-10.00,+4.00,+37.00,+1.00,-6.00,-8.00,+29.00,+13.00,+8.00,-5.00,-58.00,-1.00,-12.00,-7.00
+58.00,+56.00,+5.00,-8.00,-21.00,-13.00,-4.00,+24.00,+1.00,+16.00,+3.00,+0.00,+87.00,+2.00,-3.00,-20.00
+7.00,+16.00,-2.00,-25.00,-128.00,-61.00,-28.00,-13.00,-54.00,-26.00,-4.00,+2.00,-9.00,-14.00,-21.00,-60.00
+61.00,+3.00,+11.00,+35.00,+107.00,+95.00,+24.00,-2.00,+26.00,+3.00,-1.00,+10.00,+10.00,+0.00,+30.00,+97.00
+2.00,-29.00,+3.00,+6.00,-15.00,+42.00,+18.00,-2.00,-19.00,-67.00,-19.00,-7.00,-55.00,-2.00,+0.00,+2.00
-10.00,+13.00,-14.00,-4.00,-5.00,+0.00,-25.00,-30.00,-60.00,+34.00,+3.00,-15.00,-2.00,-1.00,+6.00,-19.00
-9.00,-42.00,-2.00,+10.00,+9.00,+0.00,+7.00,+2.00,+38.00,+3.00,+0.00,-1.00,-10.00,-8.00,-4.00,+24.00
-78.00,-67.00,-4.00,-18.00,-78.00,-55.00,-7.00,-4.00,-42.00,-27.00,+22.00,+11.00,-54.00,-10.00,-8.00,-31.00
-10.00,+52.00,+14.00,+17.00,+73.00,+3.00,+11.00,+3.00,-48.00,-9.00,-1.00,+42.00,+81.00,+9.00,-10.00,-39.00
-51.00,+14.00,+2.00,+3.00,+21.00,+6.00,+1.00,+0.00,+28.00,-16.00,-12.00,-18.00,-45.00,-9.00,+2.00,-27.00
-42.00,+18.00,-5.00,-3.00,+60.00,+12.00,+4.00,+11.00,-72.00,+20.00,+9.00,+8.00,-45.00,-5.00,-20.00,-3.00
-14.00,+17.00,-5.00,-6.00,+27.00,-11.00,-2.00,-7.00,+92.00,+46.00,+3.00,-12.00,+37.00,-2.00,+11.00,+39.00
+19.00,-64.00,-22.00,-16.00,+11.00,-19.00,-4.00,-21.00,-35.00,-40.00,-5.00,+9.00,+4.00,-1.00,-8.00,-11.00
+12.00,+32.00,+12.00,+9.00,+52.00,+13.00,+1.00,+19.00,-58.00,-69.00,-19.00,+34.00,+28.00,+15.00,+4.00,-15.00
-28.00,-54.00,-3.00,+3.00,+26.00,+8.00,+2.00,+6.00,-108.00,-31.00,+3.00,+9.00,+35.00,-8.00,-12.00,-20.00
+75.00,+20.00,+0.00,-4.00,-53.00,-44.00,+6.00,+68.00,+16.00,-14.00,-17.00,-24.00,+10.00,-1.00,+13.00,+0.00
+26.00,+109.00,+0.00,-5.00,-37.00,-12.00,-16.00,-78.00,+51.00,+46.00,+17.00,-6.00,-30.00,-11.00,+1.00,+7.00
+93.00,-73.00,+3.00,-9.00,-74.00,-67.00,+21.00,+89.00,+22.00,+59.00,+15.00,+14.00,+3.00,+4.00,-6.00,+20.00
-49.00,-34.00,-9.00,+0.00,-33.00,+34.00,+5.00,-20.00,+40.00,+3.00,-1.00,-3.00,+23.00,+2.00,+4.00,+33.00
-17.00,+37.00,+7.00,+6.00,+32.00,+43.00,-16.00,-3.00,-48.00,-7.00,-3.00,+11.00,-5.00,-2.00,-5.00,+5.00
-71.00,-5.00,-7.00,-2.00,-2.00,-28.00,-11.00,-13.00,+7.00,-16.00,-10.00,-7.00,+24.00,+9.00,-2.00,-26.00
-10.00,-47.00,-15.00,-11.00,-19.00,-15.00,-35.00,-34.00,+10.00,+2.00,-7.00,-13.00,-45.00,-12.00,+3.00,+52.00
+3.00,+30.00,+2.00,+4.00,+20.00,+13.00,+78.00,+19.00,+7.00,-6.00,+5.00,+8.00,+10.00,+0.00,-14.00,-46.00
+28.00,-40.00,+19.00,+7.00,-65.00,-41.00,-5.00,+11.00,+41.00,+10.00,+3.00,+0.00,-28.00,-2.00,+21.00,+54.00
+23.00,+10.00,+7.00,+10.00,+27.00,-41.00,-23.00,+31.00,+77.00,+55.00,+20.00,+6.00,+19.00,+2.00,+2.00,+29.00
+17.00,+23.00,-9.00,-17.00,-75.00,+12.00,-2.00,-107.00,-60.00,+1.00,+1.00,+11.00,+2.00,-3.00,-18.00,-53.00
-75.00,-7.00,-2.00,-2.00,+11.00,+11.00,-32.00,+40.00,+46.00,-53.00,-42.00,-12.00,-1.00,+1.00,+5.00,+17.00
-75.00,-65.00,-8.00,+3.00,+11.00,+30.00,+3.00,-18.00,-53.00,-48.00,-9.00,-5.00,+12.00,-12.00,-14.00,-28.00
+127.00,+28.00,+9.00,+8.00,+24.00,+17.00,+26.00,+54.00,-6.00,+10.00,+0.00,+10.00,-3.00,+6.00,-5.00,-22.00
-19.00,+3.00,-10.00,-1.00,+11.00,+19.00,-16.00,-19.00,+80.00,+26.00,+15.00,-13.00,-7.00,+0.00,+6.00,+21.00
+14.00,-14.00,-4.00,-3.00,-26.00,-19.00,-8.00,-37.00,+21.00,+23.00,+18.00,+8.00,+30.00,-2.00,-2.00,-34.00
-5.00,+31.00,+11.00,-13.00,-27.00,-87.00,-1.00,-6.00,+1.00,-15.00,-21.00,-14.00,-31.00,-4.00,-12.00,+39.00
-47.00,-41.00,-8.00,+1.00,+64.00,+45.00,-5.00,-10.00,-78.00,+2.00,+4.00,-22.00,-14.00,-4.00,+9.00,+13.00
-27.00,-19.00,-6.00,-15.00,+8.00,-11.00,+13.00,+35.00,-4.00,-4.00,-3.00,+19.00,+16.00,+0.00,+5.00,+13.00
-10.00,+5.00,-6.00,-1.00,+51.00,+5.00,-7.00,+7.00,+103.00,+46.00,+20.00,+2.00,-12.00,+7.00,+8.00,+31.00
+75.00,-1.00,-7.00,-6.00,+31.00,-20.00,+5.00,-2.00,+41.00,+19.00,+2.00,+4.00,+24.00,+1.00,+6.00,+4.00
-75.00,+16.00,+24.00,+13.00,+58.00,+6.00,-2.00,-45.00,-85.00,-19.00,+2.00,-10.00,-2.00,-4.00,-18.00,-35.00
-3.00,-1.00,-4.00,+8.00,+50.00,+19.00,+1.00,+44.00,+20.00,+1.00,-8.00,+11.00,-22.00,-7.00,-2.00,-11.00
-10.00,-44.00,+1.00,+6.00,-33.00,-15.00,-2.00,-26.00,-31.00,-60.00,-13.00,-26.00,-16.00,-6.00,+5.00,+26.00
+17.00,-22.00,+5.00,+13.00,+62.00,+74.00,+2.00,-38.00,-39.00,+20.00,+4.00,+31.00,+16.00,-2.00,+2.00,-9.00
+8.00,+70.00,+2.00,-14.00,-109.00,+13.00,-10.00,+47.00,+89.00,+18.00,+0.00,-2.00,+8.00,+0.00,+7.00,+54.00
-44.00,-35.00,-9.00,-7.00,+103.00,+64.00,-1.00,-40.00,+44.00,-10.00,-15.00,-12.00,-8.00,-1.00,-3.00,-31.00
-25.00,+4.00,+6.00,+3.00,-14.00,-34.00,+6.00,+17.00,-10.00,-4.00,+0.00,+4.00,-8.00,+0.00,+5.00,+39.00
+55.00,+56.00,+2.00,-6.00,-91.00,+27.00,+0.00,+15.00,-23.00,-36.00,-4.00,+2.00,+5.00,-4.00,-13.00,-65.00
-42.00,-57.00,-1.00,+7.00,+28.00,-1.00,-2.00,-72.00,+23.00,+11.00,-7.00,+8.00,-11.00,-5.00,-5.00,+41.00
-50.00,-9.00,+2.00,+12.00,+24.00,+33.00,+12.00,+21.00,-60.00,+12.00,+6.00,+0.00,+9.00,+3.00,+5.00,-26.00
+76.00,+54.00,+2.00,-6.00,-53.00,+0.00,-8.00,+45.00,+53.00,+45.00,+16.00,-14.00,-10.00,-2.00,+1.00,+18.00
-10.00,-13.00,-8.00,-10.00,-80.00,-44.00,+0.00,+8.00,-18.00,-20.00,+7.00,+0.00,+2.00,+7.00,+3.00,-23.00
+16.00,-20.00,-3.00,+3.00,-62.00,-16.00,+10.00,+13.00,-100.00,-39.00,-45.00,-20.00,-11.00,-9.00,-7.00,-4.00
-7.00,+0.00,+6.00,+5.00,-86.00,-35.00,-4.00,-12.00,-12.00,-24.00,-3.00,-16.00,-4.00,-1.00,+0.00,+15.00
-9.00,-18.00,+0.00,+2.00,-23.00,-17.00,-6.00,-19.00,-40.00,+9.00,+0.00,+2.00,+13.00,+0.00,+0.00,-14.00
-27.00,-34.00,-22.00,-10.00,+41.00,+41.00,+6.00,-46.00,-2.00,+10.00,-12.00,-6.00,-2.00,+2.00,-6.00,-1.00
-26.00,+34.00,-20.00,-11.00,-71.00,-24.00,-12.00,+24.00,+11.00,-19.00,+22.00,+25.00,+45.00,+2.00,-3.00,-7.00
-62.00,-20.00,+29.00,-4.00,-2.00,+3.00,+15.00,+22.00,+45.00,+17.00,-4.00,-17.00,+16.00,-5.00,+6.00,-11.00
+9.00,-2.00,-10.00,+3.00,+78.00,+64.00,+3.00,+5.00,+16.00,-4.00,-7.00,-11.00,-15.00,+0.00,-3.00,-16.00
-42.00,+14.00,+4.00,+5.00,+7.00,-21.00,-5.00,-2.00,+45.00,+16.00,+1.00,+13.00,+4.00,+0.00,+5.00,+31.00
-20.00,-105.00,-12.00,-8.00,+48.00,-8.00,-8.00,-30.00,-34.00,-22.00,-3.00,-27.00,-31.00,-4.00,-1.00,+4.00
-10.00,+26.00,-11.00,-3.00,+7.00,+12.00,-1.00,-10.00,-3.00,+1.00,-9.00,-5.00,-15.00,-4.00,-16.00,-33.00
+52.00,+4.00,+2.00,-3.00,+3.00,-15.00,-4.00,+11.00,-27.00,-10.00,+14.00,+23.00,+27.00,-6.00,+5.00,+35.00
-33.00,-49.00,-9.00,+2.00,-25.00,-8.00,-3.00,-2.00,+24.00,-1.00,-21.00,-37.00,+12.00,-2.00,+2.00,-28.00
-8.00,+51.00,-4.00,-17.00,-26.00,+19.00,+0.00,+0.00,+42.00,+33.00,+9.00,+12.00,+6.00,-1.00,+0.00,-3.00
+88.00,+11.00,+13.00,+14.00,+2.00,-37.00,+7.00,+31.00,-79.00,-23.00,+0.00,+6.00,+2.00,-1.00,-3.00,+22.00
-60.00,-51.00,-4.00,+4.00,+75.00,+23.00,-2.00,+20.00,+20.00,-2.00,+2.00,+7.00,-10.00,+0.00,-4.00,-21.00
+0.00,+22.00,-6.00,-14.00,-103.00,-44.00,-2.00,-32.00,-49.00,-8.00,+8.00,+13.00,-2.00,+1.00,+2.00,-19.00
+37.00,-7.00,+5.00,-3.00,-4.00,-60.00,-6.00,+25.00,+53.00,+23.00,-6.00,+1.00,-3.00,-4.00,+4.00,+53.00
-7.00,+19.00,+8.00,+16.00,+37.00,-55.00,+1.00,-17.00,-4.00,-8.00,+2.00,-2.00,+6.00,+3.00,+1.00,-1.00
-17.00,+38.00,-5.00,-2.00,-32.00,-45.00,-11.00,-11.00,-27.00,-7.00,-10.00,-3.00,-14.00,-1.00,-4.00,-5.00
+100.00,+32.00,+4.00,-4.00,-3.00,+29.00,+12.00,+39.00,+29.00,+14.00,-1.00,+2.00,-8.00,+2.00,+4.00,+34.00
+45.00,-42.00,-3.00,+5.00,+14.00,+6.00,+7.00,-24.00,-38.00,-21.00,+6.00,-7.00,-13.00,+2.00,-2.00,-30.00
-19.00,+13.00,-3.00,-5.00,-36.00,+4.00,-8.00,-10.00,+67.00,+14.00,+6.00,+19.00,+11.00,+3.00,+3.00,+2.00
+48.00,+10.00,+5.00,+3.00,-27.00,-4.00,+3.00,+11.00,-26.00,-9.00,-8.00,+5.00,-19.00,-2.00,+4.00,+5.00
-41.00,+33.00,-3.00,-1.00,-3.00,-15.00,-8.00,-11.00,+16.00,+28.00,+3.00,-11.00,+13.00,-1.00,-10.00,+10.00
+40.00,+14.00,-1.00,-1.00,-48.00,-7.00,+1.00,+17.00,+30.00,+14.00,-2.00,+6.00,+3.00,+0.00,+3.00,-12.00
-29.00,+7.00,+2.00,+8.00,+0.00,+41.00,-2.00,-8.00,-30.00,-11.00,+1.00,+3.00,+7.00,-2.00,+1.00,+10.00
+18.00,+0.00,+9.00,+2.00,-48.00,-15.00,-2.00,-9.00,-28.00,-9.00,+2.00,-1.00,+8.00,-1.00,-9.00,-36.00
+6.00,+21.00,+1.00,-6.00,+16.00,+20.00,-2.00,+12.00,+27.00,+39.00,+4.00,-10.00,-18.00,-7.00,-4.00,-24.00
-82.00,-9.00,-3.00,+0.00,-44.00,-2.00,-1.00,+2.00,-2.00,-35.00,-1.00,+14.00,-37.00,-5.00,+3.00,+23.00
+0.00,-9.00,-26.00,-5.00,-11.00,+19.00,-1.00,-17.00,+14.00,-2.00,-11.00,-26.00,-22.00,-5.00,-3.00,+1.00
-9.00,+25.00,+7.00,-9.00,-7.00,-4.00,-3.00,-6.00,-16.00,+9.00,+2.00,-8.00,+4.00,+2.00,+0.00,+0.00
-36.00,-16.00,-3.00,+2.00,-1.00,-26.00,-4.00,-27.00,-17.00,-42.00,-12.00,-10.00,-25.00,-4.00,-11.00,-31.00
+23.00,+12.00,+6.00,+7.00,+1.00,-37.00,+3.00,+19.00,-21.00,+25.00,+10.00,+3.00,+20.00,+3.00,+1.00,+3.00
+13.00,+31.00,-1.00,-8.00,-71.00,-24.00,+0.00,-21.00,+26.00,+25.00,-2.00,+5.00,-5.00,-1.00,-1.00,-14.00
+60.00,-4.00,+5.00,+0.00,-4.00,-7.00,+6.00,+38.00,-14.00,+15.00,+2.00,-3.00,+6.00,-1.00,-1.00,+5.00
-29.00,-29.00,-9.00,+4.00,+45.00,+21.00,-4.00,-25.00,-51.00,-16.00,-1.00,+0.00,-4.00,-3.00,-4.00,-12.00
-17.00,+23.00,+3.00,+1.00,+75.00,+25.00,+3.00,+9.00,+40.00,+5.00,-6.00,-4.00,+0.00,+0.00,-1.00,-12.00
-3.00,-5.00,-1.00,+3.00,+9.00,+74.00,+7.00,+15.00,-27.00,-9.00,+4.00,+3.00,+8.00,-2.00,-7.00,-4.00
-34.00,-31.00,+6.00,+17.00,+50.00,-66.00,-5.00,-15.00,-4.00,+2.00,-7.00,-4.00,+2.00,+1.00,+3.00,+32.00
-26.00,+9.00,-1.00,-7.00,+1.00,+18.00,+3.00,+9.00,+6.00,-19.00,+2.00,+1.00,-2.00,-1.00,-2.00,-9.00
+30.00,+3.00,+4.00,-1.00,-31.00,+3.00,+2.00,+8.00,-20.00,+5.00,-3.00,+0.00,+7.00,+0.00,-8.00,-38.00
+18.00,+21.00,-3.00,-7.00,+7.00,-5.00,-4.00,-7.00,+3.00,-20.00,-2.00,-8.00,-2.00,-2.00,+2.00,+39.00
+4.00,-21.00,-5.00,+0.00,+15.00,+17.00,+1.00,-5.00,+38.00,+14.00,+2.00,-3.00,+2.00,+0.00,-1.00,-4.00
-11.00,+5.00,-1.00,+2.00,+16.00,+11.00,-3.00,+29.00,+5.00,+4.00,+3.00,+5.00,-6.00,+4.00,+1.00,-9.00
-20.00,-31.00,-7.00,-1.00,+13.00,-6.00,-3.00,-29.00,+4.00,-8.00,-3.00,-30.00,-18.00,-9.00,-2.00,-4.00
+25.00,+24.00,+11.00,+2.00,+7.00,-22.00,+1.00,+29.00,-6.00,-10.00,-5.00,+10.00,+11.00,+0.00,-6.00,+1.00
-36.00,-25.00,-13.00,-14.00,-34.00,-42.00,-5.00,-11.00,-13.00,-3.00,-1.00,-8.00,-16.00,+2.00,+0.00,-8.00
-4.00,-56.00,-14.00,-7.00,+4.00,+33.00,-4.00,-13.00,+45.00,+18.00,+3.00,+3.00,+9.00,-1.00,-1.00,+31.00
-13.00,-5.00,+11.00,+5.00,-4.00,+22.00,+4.00,+22.00,-36.00,-4.00,+2.00,-13.00,-1.00,+3.00,+1.00,-14.00
-22.00,-14.00,-4.00,-5.00,-7.00,-31.00,-7.00,-15.00,-47.00,-7.00,-4.00,+0.00,-7.00,-2.00,+2.00,+0.00
-15.00,+17.00,-4.00,-6.00,+6.00,+37.00,-4.00,-19.00,-2.00,-11.00,+0.00,+0.00,-3.00,-1.00,-3.00,-10.00
-7.00,+2.00,+4.00,+5.00,+28.00,-12.00,+0.00,+8.00,-3.00,-3.00,-2.00,+2.00,-3.00,+2.00,+3.00,+10.00
+13.00,-24.00,-7.00,-2.00,-12.00,-8.00,+1.00,+9.00,+16.00,+14.00,-2.00,+6.00,+3.00,-2.00,-3.00,-17.00
-6.00,+0.00,+0.00,+0.00,+1.00,+6.00,+0.00,-28.00,-15.00,-3.00,+2.00,+5.00,+2.00,-2.00,-6.00,-7.00
+10.00,+16.00,+2.00,-1.00,-10.00,+26.00,+7.00,+13.00,-15.00,-24.00,-4.00,+2.00,+3.00,+2.00,+14.00,-2.00
+1.00,+0.00,+6.00,-4.00,-37.00,-18.00,-5.00,-7.00,-29.00,+5.00,+0.00,+0.00,-3.00,-2.00,+2.00,-22.00
-5.00,+10.00,-6.00,-8.00,-8.00,-4.00,+4.00,-11.00,-8.00,-21.00,-4.00,+3.00,+5.00,-1.00,-3.00,+4.00
-16.00,-32.00,-9.00,-2.00,+5.00,-13.00,+2.00,+27.00,-12.00,+0.00,-1.00,-3.00,-2.00,-1.00,+3.00,+21.00
+26.00,+11.00,-5.00,-6.00,-6.00,+9.00,-4.00,-14.00,+22.00,+19.00,+4.00,+4.00,+7.00,+0.00,-3.00,+19.00
+31.00,-10.00,+4.00,+3.00,-3.00,-4.00,+4.00,+12.00,-3.00,+3.00,+3.00,-1.00,-4.00,-1.00,+1.00,+13.00
+3.00,+26.00,+2.00,-1.00,-3.00,-9.00,-3.00,+0.00,+11.00,+11.00,-2.00,+1.00,+2.00,+0.00,-1.00,-2.00
-12.00,-10.00,-5.00,-3.00,+12.00,-9.00,-4.00,-16.00,+5.00,+7.00,-2.00,+0.00,+4.00,-1.00,+2.00,-10.00
+27.00,+3.00,+0.00,-2.00,-23.00,+3.00,-3.00,+1.00,-11.00,-4.00,-3.00,-2.00,-1.00,-3.00,-5.00,-9.00
-49.00,-29.00,+14.00,+11.00,+24.00,+7.00,+10.00,+14.00,-11.00,+0.00,-8.00,-5.00,-9.00,-1.00,-2.00,-6.00
-2.00,-4.00,-3.00,-5.00,+5.00,+0.00,-3.00,+9.00,+11.00,+3.00,+6.00,+5.00,+7.00,-1.00,-3.00,-9.00
+18.00,+22.00,+0.00,-4.00,+8.00,-8.00,-1.00,+1.00,-2.00,-4.00,+0.00,+3.00,+0.00,+0.00,-3.00,-5.00
-10.00,-5.00,-8.00,-5.00,+2.00,+3.00,-4.00,-8.00,-11.00,-14.00,-5.00,+3.00,+11.00,-5.00,-6.00,-6.00
-12.00,+31.00,-2.00,+1.00,+17.00,-8.00,-4.00,-5.00,+0.00,+4.00,-1.00,+0.00,-2.00,-5.00,-6.00,-11.00
-3.00,-45.00,-5.00,+1.00,+11.00,-2.00,-3.00,-11.00,+4.00,-21.00,-6.00,-4.00,-11.00,-3.00,+4.00,+1.00
-9.00,+2.00,+4.00,+3.00,+1.00,-4.00,+2.00,+1.00,+29.00,-2.00,-1.00,-2.00,-2.00,+0.00,+0.00,+6.00
-7.00,+13.00,+4.00,+2.00,+20.00,-23.00,+0.00,-9.00,+37.00,+14.00,+3.00,-5.00,-4.00,-3.00,-2.00,+26.00
+14.00,+11.00,-1.00,-2.00,-16.00,+80.00,+1.00,+7.00,-2.00,+8.00,-5.00,+2.00,+2.00,-1.00,-1.00,+4.00
-18.00,-5.00,+4.00,+3.00,-13.00,-5.00,+0.00,-18.00,+10.00,-7.00,+0.00,+5.00,+3.00,+1.00,-3.00,+2.00
+12.00,-1.00,-1.00,-7.00,-22.00,+30.00,+2.00,+8.00,-2.00,+4.00,+0.00,-2.00,+0.00,-1.00,+0.00,+4.00
-8.00,+9.00,-7.00,-2.00,+1.00,+9.00,-1.00,-9.00,-43.00,-12.00,-4.00,+2.00,-2.00,-2.00,-6.00,-47.00
+10.00,-2.00,-6.00,-8.00,-8.00,-81.00,-6.00,+5.00,+9.00,-25.00,+1.00,-3.00,-3.00,-1.00,+3.00,+23.00
-19.00,+11.00,+0.00,+0.00,+19.00,+6.00,+0.00,+8.00,+68.00,+17.00,-1.00,+2.00,+2.00,+3.00,-1.00,+3.00
-3.00,-16.00,-2.00,-1.00,-4.00,+4.00,-11.00,-7.00,-14.00,+19.00,+3.00,-2.00,-2.00,+0.00,-4.00,-19.00
+0.00,+26.00,+7.00,+2.00,-1.00,+9.00,+8.00,+10.00,+16.00,+18.00,+1.00,+0.00,+2.00,+2.00,+5.00,+11.00
+10.00,+42.00,-2.00,+0.00,+4.00,-7.00,-6.00,-1.00,-2.00,-2.00,+2.00,-2.00,-4.00,-3.00,+2.00,-9.00
-32.00,-54.00,-6.00,+2.00,-16.00,+0.00,-4.00,+2.00,-71.00,-29.00,-5.00,-6.00,-1.00,-3.00,-2.00,-9.00
+7.00,+23.00,+8.00,+6.00,+15.00,-20.00,+2.00,-6.00,+71.00,+13.00,+4.00,+1.00,+4.00,+0.00,+1.00,-1.00
-9.00,-42.00,-9.00,-7.00,-14.00,-1.00,-2.00,+1.00,-11.00,-8.00,-3.00,-4.00,-3.00,-2.00,-6.00,-2.00
+10.00,+12.00,+0.00,+2.00,+11.00,-8.00,+0.00,-7.00,+0.00,+8.00,+1.00,-1.00,-4.00,+1.00,+1.00,+2.00
+11.00,+28.00,+2.00,-5.00,+1.00,-3.00,-2.00,+5.00,-6.00,-9.00,-2.00,+3.00,+2.00,+1.00,+0.00,+3.00
-16.00,-16.00,-8.00,-2.00,+4.00,-2.00,+0.00,+1.00,-26.00,-5.00,+0.00,+2.00,+1.00,+0.00,-3.00,-9.00
+2.00,-8.00,+5.00,+6.00,+7.00,+1.00,+0.00,+6.00,-13.00,-1.00,-1.00,-5.00,-5.00,-1.00,-2.00,+6.00
+8.00,+24.00,+4.00,+0.00,+0.00,+9.00,+4.00,+5.00,+16.00,+5.00,+0.00,-1.00,-1.00,-2.00,-2.00,+1.00
+8.00,-11.00,-6.00,-5.00,+0.00,+1.00,-1.00,-3.00,-47.00,-11.00,-2.00,+1.00,+1.00,-1.00,-4.00,-8.00
+2.00,+28.00,+6.00,+3.00,+5.00,+4.00,+2.00,-9.00,+67.00,+22.00,-1.00,+0.00,-1.00,-1.00,+0.00,+9.00
-1.00,+0.00,-2.00,-1.00,-15.00,-32.00,-7.00,-5.00,-10.00,+5.00,-2.00,-4.00,-3.00,-1.00,-3.00,-2.00
+2.00,-20.00,-3.00,-3.00,+7.00,+56.00,+1.00,+14.00,-26.00,-10.00,+5.00,+6.00,+4.00,+1.00,-2.00,-21.00
+2.00,+17.00,-6.00,-6.00,-7.00,-27.00,-5.00,-37.00,-11.00,+12.00,-1.00,-6.00,-3.00,+0.00,+3.00,+13.00
-24.00,+2.00,-10.00,-5.00,+1.00,-6.00,+0.00,+12.00,-14.00,-9.00,-6.00,-6.00,-1.00,-1.00,+2.00,+12.00
+66.00,-7.00,+9.00,-1.00,-58.00,-1.00,-4.00,+4.00,+8.00,-5.00,-1.00,+0.00,-1.00,+0.00,-1.00,+4.00
-12.00,+14.00,+3.00,+11.00,+69.00,-11.00,+2.00,+1.00,-4.00,+2.00,-3.00,-3.00,+0.00,+0.00,+2.00,-1.00
-20.00,-47.00,-2.00,-3.00,+5.00,-4.00,+1.00,+10.00,-9.00,-6.00,+0.00,+2.00,+4.00,+0.00,-6.00,-19.00
-6.00,+14.00,+4.00,+2.00,+5.00,+17.00,+4.00,-5.00,-7.00,-7.00,+0.00,+1.00,-1.00,+1.00,-1.00,-9.00
+2.00,+24.00,+1.00,-2.00,-7.00,-14.00,-3.00,-1.00,-2.00,+9.00,+2.00,+1.00,+1.00,+0.00,+3.00,+6.00
-11.00,-13.00,-7.00,-6.00,-17.00,-24.00,-9.00,-26.00,-12.00,-13.00,-7.00,-9.00,-6.00,-2.00,-1.00,-3.00
+13.00,+23.00,+2.00,-1.00,+5.00,+12.00,+1.00,+34.00,+13.00,+3.00,-1.00,+3.00,+3.00,+0.00,-3.00,-10.00
-15.00,-35.00,-8.00,-3.00,+11.00,-25.00,-3.00,-7.00,-6.00,-3.00,-2.00,-3.00,-1.00,-3.00,-2.00,+4.00
+20.00,+5.00,+5.00,+4.00,+22.00,+17.00,+4.00,+12.00,-5.00,-15.00,-1.00,+2.00,+1.00,+0.00,-3.00,-8.00
+5.00,-4.00,+3.00,+2.00,+8.00,-8.00,+2.00,-10.00,+36.00,-3.00,-5.00,-3.00,-1.00,-1.00,+1.00,+1.00
-14.00,+9.00,-6.00,-5.00,+18.00,+0.00,-2.00,+6.00,+7.00,+42.00,+5.00,+5.00,+3.00,+1.00,+2.00,+8.00
+8.00,+4.00,+2.00,+1.00,+8.00,-1.00,+1.00,-6.00,-6.00,-8.00,+0.00,-4.00,-2.00,+0.00,-1.00,+2.00
-24.00,-6.00,-7.00,-2.00,+25.00,+8.00,+1.00,-7.00,+13.00,+6.00,-1.00,-4.00,-3.00,-3.00,+1.00,-4.00
-5.00,-15.00,+2.00,-1.00,+7.00,+6.00,-1.00,+1.00,-4.00,+3.00,+3.00,+0.00,+2.00,+2.00,+2.00,+9.00
+64.00,+7.00,+4.00,+4.00,-2.00,-15.00,-1.00,+8.00,-3.00,-16.00,-8.00,-6.00,-5.00,-3.00,-1.00,-3.00
-1.00,+3.00,+4.00,+0.00,+16.00,-4.00,+0.00,+5.00,-9.00,-14.00,-1.00,-2.00,-3.00,-3.00,-3.00,-12.00
-17.00,-20.00,-12.00,-12.00,+22.00,+11.00,-2.00,+0.00,-41.00,-16.00,-3.00,-1.00,+0.00,-4.00,-5.00,-15.00
-1.00,+6.00,+3.00,+2.00,+21.00,-26.00,-1.00,-17.00,+37.00,+24.00,+6.00,+0.00,+1.00,+3.00,+4.00,+12.00
-30.00,-9.00,-1.00,-2.00,+2.00,+8.00,-2.00,-7.00,+6.00,-7.00,-6.00,-2.00,-2.00,-1.00,-3.00,+11.00
+27.00,+0.00,+4.00,+4.00,-23.00,+8.00,+1.00,+14.00,-34.00,-10.00,+0.00,+0.00,+0.00,-1.00,-1.00,-8.00
-10.00,+18.00,+5.00,+3.00,-29.00,-4.00,-3.00,-16.00,-7.00,-5.00,-1.00,+0.00,-1.00,-2.00,-3.00,+3.00
-2.00,-13.00,-10.00,-11.00,-54.00,-24.00,-2.00,+16.00,+39.00,+18.00,+3.00,-1.00,-2.00,-3.00,-5.00,+0.00
-10.00,+27.00,+2.00,-2.00,-28.00,+9.00,+0.00,-4.00,-13.00,-9.00,+1.00,+0.00,+3.00,+1.00,-1.00,-11.00
-14.00,-27.00,-1.00,-1.00,-17.00,+16.00,+3.00,-12.00,+0.00,-2.00,-2.00,+0.00,+0.00,-3.00,+0.00,+3.00
+0.00,+17.00,+2.00,+5.00,+15.00,-16.00,-7.00,+10.00,-14.00,-5.00,-3.00,+0.00,+1.00,-1.00,-1.00,-15.00
-30.00,-36.00,-2.00,+0.00,-11.00,-63.00,-4.00,-4.00,-18.00,-5.00,-5.00,-4.00,-4.00,-3.00,-5.00,-14.00
+5.00,+0.00,-4.00,-1.00,-13.00,-6.00,-2.00,-6.00,+9.00,+6.00,+3.00,-2.00,-4.00,+0.00,+1.00,+0.00
+3.00,+13.00,-3.00,-6.00,-19.00,-6.00,-4.00,-16.00,-6.00,-6.00,+0.00,-3.00,+0.00,-4.00,-2.00,-6.00
-13.00,-14.00,-3.00,-4.00,-16.00,+13.00,+5.00,-4.00,+25.00,+16.00,+5.00,+4.00,+4.00,+2.00,+1.00,+2.00
-11.00,+17.00,+1.00,+3.00,-17.00,+0.00,+2.00,+10.00,-10.00,-6.00,-3.00,-3.00,-4.00,-2.00,-1.00,-4.00
+13.00,+2.00,+2.00,+2.00,-11.00,+6.00,+2.00,+15.00,+6.00,-15.00,-7.00,-1.00,-3.00,-2.00,-1.00,+5.00
-10.00,-4.00,-4.00,-2.00,-10.00,+1.00,-2.00,-6.00,-1.00,+10.00,+3.00,+1.00,-1.00,+0.00,+2.00,-1.00
-7.00,-9.00,+0.00,+0.00,-13.00,-13.00,+0.00,+6.00,+26.00,-4.00,-1.00,-3.00,-2.00,-2.00,+2.00,+8.00
+5.00,-11.00,-5.00,-2.00,+0.00,+23.00,-3.00,-24.00,-4.00,+16.00,+3.00,+1.00,+1.00,-1.00,-4.00,-9.00
-9.00,+14.00,-1.00,-3.00,-1.00,+5.00,+1.00,+11.00,+19.00,+15.00,+1.00,-2.00,+2.00,-2.00,+0.00,-2.00
+12.00,-13.00,-5.00,-3.00,+6.00,+4.00,-3.00,+8.00,-12.00,-13.00,+0.00,+3.00,+1.00,+1.00,-1.00,-3.00
+10.00,-10.00,+1.00,+2.00,+6.00,-1.00,-1.00,-6.00,-5.00,-5.00,-7.00,-7.00,-3.00,-1.00,-2.00,+1.00
-1.00,-6.00,-1.00,-1.00,+8.00,+10.00,-1.00,+11.00,-11.00,+2.00,-1.00,+0.00,+0.00,+1.00,-2.00,+0.00
-12.00,+13.00,+6.00,+8.00,+14.00,+6.00,+1.00,-14.00,+3.00,-17.00,-5.00,-3.00,-1.00,-2.00,+1.00,-4.00
+22.00,+15.00,-1.00,-3.00,+5.00,-19.00,-2.00,+4.00,+2.00,+2.00,-1.00,-4.00,-2.00,-3.00,+0.00,+13.00
-3.00,+6.00,-5.00,-9.00,-2.00,+0.00,-3.00,-1.00,+1.00,+1.00,+1.00,+0.00,-1.00,+1.00,+0.00,-13.00
+8.00,+4.00,-2.00,+1.00,-4.00,+11.00,+3.00,-3.00,-21.00,-11.00,-2.00,-1.00,-1.00,+0.00,+0.00,+2.00
-11.00,+20.00,-3.00,-4.00,+0.00,-8.00,-4.00,-9.00,-5.00,+3.00,+1.00,+2.00,+0.00,-3.00,-4.00,-14.00
-14.00,-31.00,-1.00,+4.00,+2.00,-3.00,-2.00,+0.00,-19.00,-8.00,-2.00,+0.00,-1.00,-1.00,-4.00,+0.00
-4.00,-14.00,+3.00,+5.00,-4.00,+5.00,+4.00,+7.00,-9.00,-3.00,+0.00,+0.00,-3.00,-1.00,+6.00,+18.00
+15.00,+12.00,-3.00,-5.00,-14.00,+5.00,+0.00,-19.00,+8.00,-1.00,-1.00,+0.00,+0.00,-2.00,-5.00,+6.00
-3.00,-5.00,-3.00,+1.00,-5.00,+3.00,+5.00,+16.00,-42.00,+2.00,+2.00,+2.00,+2.00,-1.00,+0.00,-3.00
-11.00,+1.00,-5.00,-1.00,-4.00,+24.00,-1.00,-1.00,-7.00,-10.00,-4.00,+2.00,+0.00,-1.00,-1.00,-10.00
-16.00,-9.00,-2.00,-5.00,-11.00,-27.00,-2.00,-11.00,+14.00,+4.00,-1.00,-1.00,-1.00,-1.00,-2.00,+4.00
+25.00,-11.00,+2.00,+2.00,-1.00,-13.00,+1.00,+13.00,-1.00,+3.00,+3.00,+2.00,-1.00,+1.00,+4.00,+4.00
