+0.00,+7.00,-4.00,-1.00,+127.00,+1.00,-2.00,-5.00,-7.00,+1.00,-2.00,-2.00,-2.00,-3.00,-6.00,-5.00
+12.00,-2.00,+0.00,-1.00,+127.00,-3.00,+14.00,+1.00,-8.00,+0.00,-1.00,+1.00,-2.00,-2.00,+1.00,-3.00
-26.00,-9.00,+1.00,+0.00,+124.00,+25.00,-10.00,-9.00,-8.00,-3.00,-2.00,-1.00,-2.00,+2.00,+2.00,-8.00
+14.00,-5.00,+2.00,+2.00,+88.00,-28.00,-31.00,-10.00,+2.00,-6.00,-3.00,+0.00,-4.00,-3.00,-1.00,-12.00
-7.00,+11.00,-6.00,-2.00,+19.00,-4.00,+6.00,-4.00,-7.00,-8.00,-5.00,-3.00,-1.00,-4.00,-1.00,-6.00
+6.00,-14.00,+1.00,-1.00,+67.00,-9.00,-22.00,-22.00,+11.00,-1.00,-2.00,-2.00,-1.00,+0.00,+3.00,+22.00
-12.00,+20.00,+3.00,+3.00,-89.00,+5.00,+11.00,+14.00,-3.00,+5.00,+0.00,+0.00,+2.00,+1.00,+1.00,-2.00
+5.00,+8.00,+1.00,+2.00,-91.00,+8.00,+5.00,+6.00,+5.00,+1.00,-1.00,-2.00,-2.00,-4.00,-1.00,-4.00
-6.00,-10.00,+3.00,+1.00,-123.00,-11.00,+4.00,+3.00,-5.00,+5.00,+1.00,-2.00,-6.00,+15.00,+3.00,+7.00
-16.00,-9.00,-2.00,+2.00,-128.00,+12.00,-1.00,-16.00,-9.00,-4.00,-2.00,+1.00,+4.00,-1.00,-3.00,-13.00
-8.00,-10.00,-7.00,-6.00,-112.00,-7.00,+1.00,-6.00,+1.00,+9.00,+13.00,+5.00,+6.00,-1.00,-3.00,-8.00
+1.00,+3.00,+4.00,+0.00,-128.00,+6.00,+5.00,+3.00,-7.00,-10.00,-29.00,-13.00,-7.00,-3.00,+4.00,+23.00
-32.00,-2.00,-5.00,-2.00,-125.00,-5.00,-8.00,-9.00,-20.00,-33.00,-14.00,-2.00,-2.00,-1.00,-3.00,-37.00
+0.00,+40.00,+5.00,+0.00,-128.00,+11.00,+11.00,+11.00,+7.00,+5.00,-6.00,-5.00,-3.00,-5.00,-5.00,-10.00
+49.00,-10.00,-1.00,-1.00,-101.00,-27.00,+4.00,-1.00,-4.00,-1.00,+0.00,+3.00,-2.00,+10.00,+17.00,+36.00
-21.00,-11.00,-1.00,+0.00,-94.00,-5.00,-17.00,-10.00,+21.00,+16.00,+10.00,+4.00,+6.00,-5.00,+7.00,+16.00
+1.00,+2.00,+3.00,-3.00,-52.00,+6.00,-1.00,-6.00,+13.00,+29.00,+23.00,+0.00,-5.00,-13.00,-12.00,+23.00
+3.00,-9.00,+0.00,+1.00,-40.00,-9.00,-2.00,+1.00,-16.00,-20.00,-13.00,-3.00,+1.00,+4.00,-2.00,-30.00
+12.00,+15.00,+0.00,+0.00,-28.00,+4.00,+1.00,-17.00,+28.00,+15.00,+0.00,-2.00,-4.00,-4.00,-1.00,+26.00
-12.00,-13.00,-6.00,-3.00,-7.00,+2.00,-5.00,-3.00,-4.00,-16.00,+0.00,+2.00,+6.00,+8.00,+7.00,+11.00
+7.00,-1.00,+0.00,+1.00,+15.00,-4.00,+0.00,-9.00,-17.00,-9.00,-7.00,+12.00,+7.00,+0.00,-4.00,+19.00
+15.00,+6.00,+0.00,-1.00,+2.00,+6.00,+4.00,+27.00,+19.00,+7.00,+5.00,-13.00,-6.00,+1.00,+5.00,+14.00
+3.00,+9.00,+2.00,-2.00,+13.00,-6.00,+9.00,+13.00,-15.00,-1.00,-1.00,-12.00,-19.00,-6.00,-14.00,-31.00
-21.00,-4.00,-3.00,-1.00,+23.00,+2.00,-44.00,-6.00,+7.00,+6.00,+5.00,+3.00,-5.00,+4.00,+5.00,-4.00
+5.00,-3.00,-3.00,-3.00,+25.00,+5.00,+15.00,+8.00,+5.00,-6.00,-7.00,-14.00,-10.00,-4.00,+4.00,+23.00
-11.00,-12.00,+3.00,+2.00,+11.00,-5.00,-9.00,-15.00,-15.00,-6.00,-1.00,+3.00,-1.00,+1.00,-5.00,-14.00
-16.00,+2.00,+6.00,+3.00,+22.00,-2.00,+0.00,+17.00,-3.00,+0.00,+2.00,+5.00,+22.00,-3.00,+5.00,-10.00
-50.00,-12.00,-12.00,-11.00,+17.00,-9.00,-14.00,-9.00,-1.00,+3.00,+3.00,-2.00,-11.00,-7.00,-11.00,-15.00
+4.00,-2.00,+0.00,-3.00,+22.00,+41.00,-4.00,-15.00,-1.00,-2.00,-1.00,+4.00,+1.00,+5.00,+25.00,-4.00
+0.00,-5.00,-3.00,+1.00,+15.00,-43.00,-3.00,-19.00,-4.00,+9.00,+1.00,+1.00,+2.00,+29.00,-7.00,-9.00
+17.00,+12.00,+4.00,+2.00,+25.00,-6.00,+1.00,+68.00,+11.00,+1.00,-5.00,+0.00,-6.00,-30.00,+15.00,+15.00
+6.00,+12.00,+6.00,+5.00,+20.00,+6.00,+27.00,+0.00,+1.00,+8.00,+16.00,+6.00,+0.00,+0.00,+0.00,+20.00
+5.00,-1.00,-7.00,-3.00,+21.00,+5.00,+2.00,+34.00,+5.00,-15.00,-12.00,+0.00,+19.00,+10.00,+2.00,+4.00
-8.00,-9.00,-3.00,-6.00,+15.00,+10.00,+5.00,+4.00,-7.00,+10.00,+7.00,-2.00,-9.00,-16.00,-25.00,-34.00
+1.00,-4.00,-8.00,-3.00,+20.00,+1.00,-2.00,-16.00,-21.00,-27.00,-32.00,-5.00,-1.00,+4.00,-19.00,-43.00
+28.00,+7.00,+2.00,-1.00,+13.00,+4.00,-4.00,-15.00,+8.00,+12.00,+2.00,-3.00,+11.00,+29.00,+8.00,+9.00
+7.00,+0.00,+5.00,+1.00,-13.00,-7.00,+4.00,-16.00,+8.00,+29.00,+14.00,+2.00,-11.00,-37.00,-33.00,-29.00
-6.00,-15.00,+2.00,+4.00,+59.00,+6.00,-34.00,-10.00,+30.00,-4.00,-10.00,+6.00,-4.00,-24.00,+13.00,+43.00
+17.00,-20.00,-1.00,+3.00,+40.00,+17.00,+38.00,+7.00,-15.00,-25.00,+3.00,-1.00,+11.00,+6.00,-5.00,-8.00
-2.00,+10.00,+1.00,+3.00,+23.00,+18.00,+13.00,+15.00,-57.00,-14.00,-10.00,+9.00,-5.00,-7.00,+2.00,-27.00
-21.00,-2.00,-1.00,+1.00,+23.00,-44.00,-15.00,-24.00,+19.00,+2.00,-6.00,-39.00,-33.00,+22.00,-5.00,+9.00
+23.00,+10.00,-4.00,-6.00,-6.00,+20.00,+24.00,+0.00,-24.00,+14.00,+9.00,-1.00,+4.00,-6.00,-3.00,-36.00
-19.00,-20.00,+0.00,-2.00,-5.00,-40.00,-39.00,-46.00,+7.00,+3.00,+11.00,-3.00,-6.00,-2.00,-4.00,+13.00
+11.00,+29.00,-1.00,-2.00,+5.00,+14.00,+7.00,+17.00,-15.00,-45.00,-14.00,+6.00,+15.00,-2.00,-8.00,+2.00
-4.00,+3.00,-1.00,-6.00,+3.00,-16.00,-49.00,-1.00,+49.00,+29.00,+2.00,+11.00,-2.00,+7.00,+7.00,+11.00
-26.00,-5.00,+0.00,-2.00,-12.00,-27.00,+16.00,-22.00,+13.00,+4.00,-2.00,-13.00,-15.00,-6.00,+4.00,+18.00
-5.00,+7.00,+6.00,+7.00,+14.00,+29.00,+35.00,+11.00,-5.00,+14.00,+5.00,+8.00,+8.00,+7.00,-2.00,-14.00
+10.00,-14.00,-11.00,-6.00,+1.00,+8.00,+15.00,+12.00,+8.00,+0.00,-3.00,-13.00,-1.00,+25.00,+2.00,-10.00
+2.00,+14.00,+13.00,+7.00,+9.00,+8.00,-8.00,-26.00,-34.00,-20.00,-1.00,+6.00,-3.00,-41.00,+10.00,+35.00
+10.00,-5.00,-8.00,-5.00,+1.00,+5.00,-5.00,+88.00,-3.00,+7.00,+6.00,-1.00,-14.00,-4.00,+1.00,+7.00
+3.00,-1.00,-1.00,-5.00,-6.00,-3.00,-13.00,-8.00,+3.00,-6.00,+0.00,+9.00,+19.00,-1.00,-8.00,-18.00
-31.00,-3.00,+0.00,+0.00,-1.00,-32.00,-11.00,+21.00,-9.00,+1.00,+1.00,+5.00,+6.00,-18.00,-12.00,-23.00
+23.00,+31.00,-3.00,+3.00,+11.00,+1.00,+24.00,+12.00,+4.00,-2.00,-6.00,-18.00,+0.00,+16.00,-1.00,+9.00
+4.00,-25.00,-12.00,-6.00,-20.00,+30.00,+19.00,-18.00,+7.00,+19.00,+19.00,+9.00,+11.00,+28.00,+25.00,+56.00
-22.00,-81.00,-10.00,-8.00,-12.00,+12.00,+6.00,+0.00,-27.00,-27.00,-43.00,-16.00,-18.00,-20.00,-26.00,-49.00
-2.00,+50.00,+25.00,+14.00,+38.00,-40.00,-3.00,-7.00,+7.00,-38.00,+0.00,+10.00,+2.00,-26.00,-10.00,-11.00
-18.00,-4.00,-4.00,+1.00,+30.00,+74.00,-7.00,-8.00,-11.00,-11.00,-21.00,+0.00,+2.00,-9.00,-9.00,-10.00
-5.00,+16.00,+1.00,+3.00,-8.00,-81.00,-33.00,-7.00,+26.00,-17.00,-1.00,+13.00,-8.00,+16.00,+13.00,+42.00
-12.00,+12.00,-3.00,-11.00,+0.00,+15.00,-12.00,-12.00,-17.00,+40.00,+21.00,-18.00,+11.00,+16.00,-4.00,-51.00
-12.00,-47.00,-14.00,-10.00,-43.00,-24.00,-1.00,-9.00,+9.00,-1.00,-1.00,-5.00,-1.00,-35.00,+0.00,+3.00
+25.00,-8.00,-3.00,-3.00,-3.00,-23.00,+11.00,+24.00,+8.00,+33.00,+7.00,+6.00,+16.00,+10.00,-7.00,-17.00
+2.00,+12.00,+2.00,+3.00,+17.00,+28.00,+10.00,+7.00,-59.00,-66.00,-23.00,-8.00,-9.00,+2.00,+0.00,-36.00
-11.00,-7.00,-4.00,+1.00,-13.00,-47.00,-15.00,-38.00,+10.00,-7.00,+3.00,+6.00,-1.00,-2.00,+1.00,+14.00
-49.00,-24.00,-9.00,-5.00,+6.00,+4.00,-9.00,+10.00,+12.00,-12.00,-11.00,-3.00,-5.00,+2.00,-3.00,-1.00
-5.00,+5.00,+3.00,+7.00,-5.00,-22.00,+13.00,-31.00,+18.00,+17.00,+18.00,+4.00,+7.00,+23.00,+24.00,+19.00
-7.00,-10.00,-1.00,+3.00,-1.00,+38.00,+13.00,+33.00,-10.00,+11.00,-7.00,+0.00,-1.00,+11.00,-3.00,-27.00
+15.00,+15.00,-2.00,+2.00,+7.00,+1.00,-11.00,+25.00,+10.00,-14.00,-5.00,+15.00,-10.00,-36.00,-41.00,-31.00
+34.00,+13.00,+6.00,+3.00,-10.00,+20.00,+22.00,-43.00,-12.00,+22.00,+6.00,-26.00,+1.00,-16.00,+2.00,-21.00
-41.00,-13.00,-3.00,-5.00,-7.00,-55.00,-8.00,+31.00,-28.00,-23.00,-2.00,+15.00,+7.00,-7.00,-28.00,-29.00
+56.00,+1.00,+1.00,+4.00,+11.00,-3.00,-27.00,+23.00,-1.00,+8.00,+9.00,-3.00,+12.00,+11.00,+8.00,+6.00
+22.00,+28.00,+9.00,+2.00,-3.00,+35.00,+25.00,-39.00,-11.00,-9.00,-10.00,-12.00,-15.00,+13.00,+11.00,+22.00
-4.00,-14.00,-7.00,-2.00,+25.00,+34.00,+10.00,-11.00,+9.00,+24.00,+7.00,+3.00,-10.00,+19.00,+13.00,+18.00
-18.00,-34.00,-18.00,-17.00,-33.00,-10.00,+2.00,-22.00,-9.00,-20.00,-12.00,+3.00,+4.00,-17.00,-15.00,-22.00
-36.00,-9.00,+10.00,-3.00,-19.00,+34.00,-36.00,-55.00,-1.00,+1.00,+6.00,+1.00,+3.00,-11.00,-15.00,+18.00
+77.00,+22.00,+6.00,+18.00,+43.00,-73.00,+34.00,+66.00,+34.00,+42.00,+16.00,+4.00,+5.00,+23.00,+18.00,+17.00
+20.00,-35.00,-10.00,-3.00,+13.00,-4.00,-23.00,-9.00,-38.00,-49.00,-14.00,-3.00,-15.00,-20.00,-3.00,-6.00
+4.00,-1.00,-12.00,-3.00,+15.00,-1.00,+10.00,-4.00,+28.00,+23.00,+5.00,+2.00,+13.00,+10.00,+13.00,+11.00
-38.00,+30.00,+14.00,+0.00,-10.00,-12.00,-4.00,+4.00,-41.00,-6.00,+4.00,-2.00,-11.00,-16.00,-13.00,-4.00
+53.00,+39.00,-3.00,-5.00,-14.00,+29.00,+4.00,+3.00,-14.00,-5.00,-3.00,-8.00,-14.00,+2.00,+9.00,+12.00
+6.00,-5.00,+8.00,+2.00,-4.00,+21.00,-7.00,-10.00,+6.00,+19.00,+1.00,-4.00,+5.00,+13.00,-11.00,+2.00
+5.00,-25.00,-2.00,+2.00,-4.00,-30.00,-34.00,-15.00,+4.00,-21.00,-1.00,+13.00,+2.00,+1.00,+9.00,+8.00
-32.00,-6.00,-1.00,+0.00,+9.00,+17.00,-16.00,-78.00,+19.00,-19.00,-18.00,-12.00,-2.00,-14.00,-4.00,+21.00
-19.00,-7.00,-5.00,-8.00,-29.00,+1.00,-2.00,+83.00,+5.00,+24.00,+10.00,-16.00,-32.00,+30.00,+17.00,+49.00
+28.00,+7.00,-2.00,+3.00,+20.00,+12.00,+19.00,-2.00,+22.00,+8.00,+5.00,+7.00,-1.00,+2.00,+9.00,+9.00
+21.00,+19.00,+5.00,+2.00,+9.00,+44.00,+39.00,+65.00,-24.00,-16.00,-1.00,-11.00,-15.00,-1.00,-4.00,-13.00
+2.00,-5.00,+0.00,+3.00,-2.00,-9.00,+10.00,-29.00,+5.00,+15.00,-1.00,+3.00,+12.00,-14.00,+7.00,+8.00
-45.00,-3.00,-1.00,-4.00,+2.00,-18.00,-39.00,-113.00,-14.00,-18.00,-3.00,+4.00,-1.00,-6.00,+1.00,-16.00
-31.00,-15.00,-11.00,-4.00,-20.00,-9.00,-20.00,+51.00,+13.00,+14.00,+3.00,+6.00,+11.00,+9.00,-15.00,-24.00
+38.00,+2.00,+10.00,+0.00,-4.00,+17.00,+21.00,-19.00,+7.00,-5.00,-4.00,-10.00,-1.00,-2.00,+9.00,+53.00
+19.00,+12.00,-6.00,-3.00,+4.00,-30.00,+4.00,+25.00,+20.00,+18.00,+8.00,+6.00,+11.00,-8.00,-10.00,-54.00
-57.00,-78.00,-20.00,-9.00,-15.00,-8.00,-9.00,-6.00,-16.00,-29.00,-9.00,-3.00,-3.00,-5.00,-1.00,-5.00
+25.00,+74.00,+16.00,+1.00,-9.00,+45.00,+14.00,-2.00,-51.00,-27.00,-8.00,+5.00,+15.00,+21.00,+4.00,-14.00
+1.00,-95.00,+15.00,+13.00,+5.00,-2.00,-18.00,-15.00,+9.00,+8.00,-2.00,-3.00,-6.00,-34.00,-12.00,-2.00
+14.00,+57.00,+6.00,+5.00,+15.00,+15.00,+21.00,+11.00,-39.00,-51.00,-9.00,-13.00,-15.00,-1.00,-2.00,-23.00
-10.00,+15.00,-9.00,-10.00,-6.00,+7.00,-22.00,-10.00,+67.00,+39.00,-10.00,-4.00,+14.00,-10.00,+3.00,+11.00
+8.00,-37.00,-10.00,-6.00,-4.00,-36.00,-8.00,-8.00,-14.00,+25.00,+14.00,+6.00,-12.00,+3.00,-3.00,+4.00
-15.00,-6.00,-12.00,-8.00,-20.00,-10.00,+11.00,+26.00,-26.00,-50.00,-8.00,-3.00,+14.00,+19.00,+5.00,-5.00
-25.00,-22.00,-13.00,-8.00,+5.00,+33.00,-13.00,-14.00,+16.00,+46.00,+6.00,+4.00,+2.00,+1.00,-11.00,-18.00
+51.00,-4.00,-1.00,+4.00,+46.00,+36.00,+8.00,+55.00,-17.00,-45.00,-6.00,-6.00,+2.00,+15.00,-12.00,-10.00
+20.00,+1.00,-1.00,+2.00,-22.00,-57.00,+8.00,-24.00,+24.00,+14.00,+0.00,-6.00,-7.00,-8.00,+15.00,-3.00
-16.00,+10.00,+0.00,+6.00,+31.00,-9.00,+54.00,+27.00,-12.00,+9.00,+8.00,-2.00,-11.00,-9.00,-15.00,-8.00
-22.00,-23.00,-7.00,-6.00,-15.00,-20.00,+3.00,-38.00,+7.00,-2.00,-1.00,+7.00,-7.00,-33.00,-6.00,-2.00
-9.00,+24.00,+1.00,+0.00,-5.00,+1.00,-10.00,+1.00,+1.00,+1.00,-4.00,+8.00,+9.00,+10.00,+4.00,-8.00
+8.00,-11.00,+2.00,-3.00,-5.00,+35.00,+11.00,-4.00,-19.00,+14.00,+8.00,+12.00,+1.00,-20.00,-43.00,-56.00
-7.00,+19.00,-9.00,-7.00,+0.00,+18.00,-21.00,-10.00,+22.00,+13.00,+2.00,-8.00,-12.00,+27.00,+94.00,+18.00
+32.00,-42.00,-18.00,-8.00,-11.00,-10.00,+16.00,+36.00,+32.00,-36.00,-16.00,-4.00,+1.00,+19.00,+25.00,+105.00
-39.00,+25.00,+10.00,+5.00,-2.00,+40.00,+9.00,-32.00,-20.00,+63.00,+15.00,-9.00,+6.00,+0.00,-34.00,-61.00
+45.00,+46.00,+23.00,+11.00,-2.00,-82.00,-12.00,-8.00,+14.00,-4.00,-3.00,-11.00,-3.00,-2.00,+16.00,+61.00
-48.00,-11.00,-10.00,-5.00,-6.00,+18.00,-25.00,-17.00,-36.00,-4.00,+6.00,+10.00,-4.00,-18.00,-33.00,-35.00
-32.00,-17.00,-5.00,-6.00,+9.00,-4.00,+10.00,-7.00,+29.00,-22.00,-12.00,-12.00,-4.00,-8.00,-1.00,-3.00
-29.00,-93.00,-24.00,-10.00,-13.00,+29.00,-6.00,+8.00,+9.00,+20.00,+16.00,+18.00,+11.00,+19.00,+28.00,+43.00
-2.00,+53.00,+19.00,+3.00,-7.00,-22.00,+3.00,-4.00,-71.00,-42.00,-14.00,-18.00,-25.00,-13.00,-18.00,+3.00
+33.00,+55.00,+13.00,+4.00,-39.00,-73.00,-44.00,-7.00,+43.00,+37.00,+12.00,+8.00,+1.00,-8.00,-14.00,-53.00
+54.00,+38.00,+4.00,+8.00,+56.00,+22.00,+1.00,+23.00,-6.00,-20.00,-9.00,-14.00,-1.00,+8.00,+8.00,+0.00
+1.00,-7.00,+13.00,+9.00,+13.00,-43.00,-13.00,+38.00,+4.00,-9.00,+2.00,+10.00,-1.00,-38.00,-21.00,-31.00
-15.00,-24.00,-17.00,-13.00,-7.00,+68.00,+24.00,+13.00,+41.00,-5.00,-14.00,-13.00,-13.00,+7.00,+20.00,+54.00
-21.00,-9.00,-5.00,-3.00,+13.00,+36.00,-1.00,-16.00,-37.00,+15.00,+3.00,+10.00,+27.00,+23.00,+1.00,+9.00
-12.00,-10.00,-1.00,-2.00,-29.00,-41.00,-13.00,-20.00,-47.00,-14.00,+2.00,+16.00,+4.00,+28.00,+48.00,-37.00
-43.00,+9.00,-3.00,-4.00,-15.00,+7.00,+81.00,-10.00,+22.00,+5.00,-3.00,-17.00,-21.00,-35.00,-85.00,-46.00
+71.00,+0.00,-1.00,+7.00,+11.00,-6.00,-43.00,-17.00,+4.00,+3.00,+1.00,+7.00,+36.00,+81.00,+22.00,+38.00
+12.00,+6.00,-4.00,-7.00,-1.00,+2.00,-31.00,-50.00,+17.00,-9.00,-7.00,-11.00,-27.00,-92.00,-12.00,-14.00
-49.00,-3.00,-7.00,-8.00,-10.00,+12.00,+36.00,-25.00,-9.00,+24.00,+8.00,+9.00,+7.00,+0.00,+0.00,+3.00
+16.00,-21.00,+6.00,+7.00,+6.00,-42.00,-64.00,-15.00,-22.00,-29.00,-9.00,+11.00,+15.00,+5.00,+47.00,+36.00
-27.00,-23.00,-5.00,-2.00,+5.00,-21.00,+50.00,+21.00,+1.00,+9.00,+1.00,-6.00,-32.00,-1.00,+3.00,-29.00
+18.00,+48.00,+1.00,+0.00,-11.00,+67.00,-7.00,-3.00,+1.00,-22.00,-5.00,+7.00,+32.00,+43.00,-28.00,+8.00
+0.00,-36.00,-8.00,-1.00,+31.00,-84.00,-11.00,+43.00,+24.00,+96.00,+12.00,-24.00,-3.00,+8.00,-19.00,-29.00
+10.00,+15.00,-11.00,-11.00,-33.00,-9.00,-18.00,-10.00,-39.00,-59.00,+0.00,+11.00,+11.00,-10.00,+4.00,+28.00
-65.00,+36.00,+20.00,+12.00,+33.00,+53.00,-42.00,-46.00,+43.00,-8.00,+15.00,+21.00,+10.00,-35.00,-1.00,+21.00
+7.00,-5.00,+8.00,+4.00,+11.00,-12.00,+40.00,+32.00,+22.00,+11.00,-40.00,-20.00,-13.00,+17.00,+0.00,-7.00
-7.00,+17.00,-5.00,-7.00,-11.00,+49.00,-13.00,+3.00,+15.00,-64.00,-8.00,-5.00,+3.00,-18.00,+1.00,+47.00
+32.00,-7.00,-16.00,-11.00,-15.00,+0.00,+13.00,-7.00,-16.00,+82.00,+4.00,+1.00,-8.00,+27.00,+4.00,-27.00
-18.00,-82.00,-9.00,-4.00,-4.00,-1.00,-12.00,+8.00,+1.00,-16.00,+3.00,+11.00,+40.00,+7.00,-2.00,+11.00
-19.00,+2.00,-5.00,-3.00,-7.00,-77.00,-3.00,-10.00,-26.00,+6.00,-9.00,-13.00,-76.00,-7.00,+33.00,+18.00
+29.00,+16.00,+13.00,+2.00,-34.00,+84.00,-46.00,+34.00,+29.00,+8.00,+4.00,+12.00,+81.00,+3.00,-31.00,+24.00
+20.00,+31.00,+7.00,+4.00,+38.00,-97.00,+88.00,-44.00,-30.00,-63.00,-7.00,-16.00,-30.00,+31.00,+4.00,-59.00
-42.00,-8.00,-13.00,-6.00,-5.00,+15.00,-5.00,+49.00,+11.00,+47.00,+15.00,+0.00,+6.00,-86.00,-1.00,+42.00
+0.00,+6.00,+0.00,+3.00,+7.00,+18.00,+53.00,+28.00,+3.00,-11.00,+4.00,+4.00,+10.00,+31.00,+24.00,-17.00
+13.00,-16.00,+1.00,-1.00,-21.00,+2.00,+15.00,+5.00,-21.00,-25.00,-11.00,+15.00,-1.00,+5.00,-14.00,-24.00
-40.00,-10.00,-15.00,-7.00,-18.00,+32.00,-51.00,-79.00,-4.00,-27.00,-10.00,-29.00,-23.00,+15.00,-19.00,+23.00
+19.00,-17.00,-9.00,-6.00,+5.00,-53.00,-16.00,+72.00,+2.00,-25.00,-2.00,+5.00,-4.00,+4.00,-17.00,-57.00
+10.00,-41.00,+8.00,+3.00,-3.00,+59.00,-7.00,+6.00,-2.00,-22.00,-1.00,+12.00,+14.00,+23.00,+22.00,+38.00
-11.00,+26.00,+4.00,+4.00,-4.00,-110.00,-33.00,+8.00,-38.00,+46.00,-3.00,-9.00,-21.00,-15.00,-21.00,-37.00
+83.00,+66.00,+39.00,+16.00,+23.00,+48.00,+2.00,+85.00,+26.00,+33.00,+1.00,+17.00,-22.00,-14.00,+37.00,+43.00
-20.00,-11.00,-13.00,-3.00,-10.00,+7.00,+31.00,-58.00,-26.00,+4.00,-11.00,-11.00,+18.00,+24.00,+5.00,-22.00
+18.00,-12.00,-17.00,-12.00,+13.00,+79.00,-5.00,+41.00,-32.00,-21.00,-2.00,-21.00,+4.00,+6.00,-6.00,+0.00
-49.00,-36.00,-9.00,-1.00,-3.00,-8.00,-11.00,-11.00,-9.00,-23.00,+8.00,+12.00,-26.00,-22.00,-55.00,-71.00
-44.00,-41.00,-4.00,-12.00,-36.00,+63.00,-7.00,-10.00,-13.00,+30.00,+9.00,-6.00,+8.00,-9.00,+27.00,+45.00
+42.00,+35.00,+9.00,+8.00,+13.00,-83.00,-86.00,-22.00,+36.00,+30.00,+1.00,-5.00,-12.00,+14.00,+4.00,-4.00
+18.00,+7.00,+8.00,+2.00,+2.00,-109.00,-32.00,-72.00,-32.00,-36.00,-3.00,+9.00,+12.00,-15.00,-28.00,-3.00
-15.00,+33.00,+8.00,+3.00,-5.00,-43.00,+84.00,+2.00,-2.00,-10.00,-14.00,-24.00,-28.00,-8.00,+30.00,+64.00
+32.00,-31.00,-4.00,+6.00,+9.00,+30.00,+34.00,+80.00,-15.00,+0.00,+0.00,+7.00,+11.00,+12.00,-5.00,-63.00
-21.00,-31.00,-14.00,-7.00,-15.00,+23.00,+38.00,+58.00,+29.00,+15.00,+17.00,-2.00,-19.00,-38.00,+20.00,+23.00
+19.00,+17.00,+9.00,-2.00,-5.00,-3.00,-48.00,+16.00,-8.00,-71.00,-64.00,-11.00,+23.00,+10.00,-2.00,-24.00
+6.00,-42.00,+7.00,+5.00,+6.00,+27.00,+27.00,-23.00,-49.00,+93.00,+28.00,+27.00,-13.00,+13.00,+17.00,+33.00
-11.00,+33.00,+3.00,+5.00,+10.00,-37.00,-57.00,-21.00,+5.00,-79.00,-36.00,-28.00,-28.00,-46.00,-5.00,+38.00
+17.00,+9.00,+2.00,-1.00,-8.00,+6.00,+15.00,+4.00,+54.00,+48.00,+17.00,-25.00,-16.00,-17.00,+31.00,+41.00
-22.00,-36.00,-16.00,-5.00,-4.00,+15.00,-8.00,-18.00,+45.00,+16.00,+12.00,-6.00,-21.00,-27.00,-32.00,-11.00
+2.00,+25.00,-5.00,-10.00,+17.00,+45.00,-24.00,-20.00,+8.00,-65.00,-12.00,+1.00,+9.00,-4.00,+39.00,+30.00
-20.00,+48.00,+1.00,-4.00,-23.00,+10.00,-6.00,+30.00,+14.00,+32.00,+7.00,+16.00,+27.00,-2.00,+14.00,-3.00
+46.00,+27.00,+5.00,+2.00,+25.00,-19.00,-72.00,-37.00,-15.00,-88.00,-25.00,+4.00,+5.00,+23.00,-10.00,-1.00
-10.00,-7.00,+7.00,+3.00,+2.00,+48.00,+74.00,+15.00,-25.00,+81.00,+23.00,+13.00,-13.00,+5.00,-27.00,-48.00
-17.00,-28.00,-9.00,-6.00,-5.00,+61.00,-21.00,-17.00,-17.00,-77.00,-14.00,-5.00,+23.00,+16.00,+3.00,+15.00
+16.00,-40.00,-2.00,+9.00,+12.00,-84.00,+1.00,-7.00,+39.00,+94.00,+43.00,+4.00,+15.00,+15.00,+11.00,-5.00
-19.00,+18.00,+8.00,+1.00,-29.00,+42.00,-16.00,-7.00,-65.00,-102.00,-29.00,-7.00,-9.00,-5.00,-30.00,-41.00
-30.00,-15.00,-8.00,-3.00,+7.00,+85.00,+4.00,+2.00,+79.00,+114.00,+27.00,+18.00,+0.00,+29.00,+34.00,+49.00
-32.00,-41.00,-14.00,-4.00,+0.00,-83.00,-14.00,-20.00,-34.00,+10.00,+15.00,+9.00,+19.00,-4.00,-41.00,-8.00
+47.00,+46.00,-4.00,+0.00,+0.00,+35.00,-3.00,+62.00,-1.00,-80.00,-33.00,-6.00,+11.00,+19.00,+38.00,-27.00
-22.00,-85.00,-21.00,-7.00,-9.00,+31.00,+53.00,-37.00,+21.00,+111.00,+45.00,+12.00,-37.00,-6.00,+1.00,+15.00
+41.00,-65.00,-26.00,-21.00,-54.00,+5.00,-11.00,+7.00,-19.00,-106.00,-38.00,-10.00,+13.00,-61.00,-62.00,-6.00
+102.00,+113.00,+69.00,+29.00,+10.00,+53.00,-12.00,+10.00,+4.00,+70.00,+4.00,-9.00,-7.00,+19.00,+66.00,+43.00
-36.00,+26.00,+13.00,+11.00,+61.00,-60.00,-100.00,-117.00,-41.00,-114.00,-44.00,+17.00,+44.00,+11.00,-30.00,-39.00
+1.00,+15.00,-6.00,-3.00,-7.00,-37.00,+80.00,+24.00,-17.00,-5.00,-26.00,-24.00,-3.00,+41.00,+13.00,+1.00
-63.00,-15.00,-1.00,+1.00,+24.00,+54.00,+31.00,-24.00,-3.00,+58.00,+49.00,+22.00,+12.00,+10.00,-24.00,-5.00
+48.00,-4.00,-19.00,-9.00,-29.00,-15.00,-10.00,+45.00,+67.00,+101.00,+55.00,+3.00,+8.00,-83.00,-28.00,+17.00
-47.00,-63.00,-23.00,-17.00,-28.00,+67.00,+19.00,-23.00,-31.00,-58.00,-25.00,-3.00,-8.00,-6.00,-3.00,-27.00
-3.00,-1.00,+7.00,-1.00,+20.00,+127.00,+3.00,+1.00,+41.00,+49.00,-9.00,+21.00,+54.00,+23.00,+12.00,+10.00
+8.00,-55.00,-8.00,-1.00,-26.00,-128.00,-31.00,-37.00,+1.00,+4.00,+13.00,-2.00,-59.00,+14.00,+18.00,+29.00
+11.00,+69.00,+8.00,+0.00,-14.00,-62.00,-38.00,-35.00,+8.00,-39.00,-32.00,-39.00,-19.00,+15.00,-29.00,-61.00
-7.00,-77.00,+31.00,+17.00,+14.00,+14.00,+26.00,+33.00,+5.00,+53.00,+32.00,+9.00,-13.00,-23.00,+1.00,+62.00
+30.00,+71.00,+14.00,+6.00,-1.00,-64.00,-17.00,-79.00,-42.00,-45.00,-19.00,-3.00,-31.00,-11.00,-49.00,-102.00
+25.00,+34.00,+0.00,+0.00,-13.00,+19.00,+15.00,+110.00,+4.00,-88.00,-15.00,-12.00,+56.00,+16.00,+41.00,+65.00
+6.00,-75.00,-9.00,+4.00,+33.00,+14.00,-21.00,-32.00,+6.00,+105.00,+28.00,+29.00,-13.00,+18.00,+43.00,-5.00
+6.00,+59.00,+11.00,+4.00,-4.00,+50.00,+21.00,+13.00,-56.00,-34.00,-13.00,-34.00,-13.00,-11.00,-35.00,-2.00
+30.00,-128.00,-46.00,-4.00,+0.00,+33.00,+15.00,+0.00,+34.00,+0.00,+15.00,-3.00,-8.00,-7.00,-74.00,-96.00
-5.00,+93.00,+13.00,-6.00,+3.00,-60.00,+18.00,+32.00,-22.00,-25.00,-21.00,-14.00,-19.00,-28.00,+3.00,+86.00
-4.00,-52.00,+6.00,-11.00,-5.00,-56.00,+32.00,+1.00,+45.00,-2.00,+4.00,+10.00,+8.00,-5.00,-29.00,-60.00
+3.00,+33.00,+15.00,-8.00,-29.00,+108.00,-12.00,-21.00,+37.00,+26.00,+21.00,+9.00,+11.00,+10.00,+38.00,+51.00
-24.00,-14.00,-1.00,-6.00,+8.00,-93.00,-56.00,-30.00,-59.00,-110.00,-55.00,-20.00,-14.00,-14.00,-32.00,-49.00
+30.00,+37.00,+12.00,+22.00,+12.00,+48.00,-17.00,-3.00,-2.00,+44.00,+25.00,-4.00,+5.00,+43.00,+37.00,+34.00
-15.00,-51.00,-47.00,-1.00,-1.00,+39.00,+59.00,-14.00,+4.00,-43.00,-14.00,-6.00,-18.00,-3.00,-62.00,-90.00
-19.00,-58.00,+7.00,-10.00,-13.00,+26.00,+8.00,-3.00,+66.00,+102.00,+17.00,+16.00,+21.00,-3.00,+96.00,+127.00
-19.00,+57.00,+8.00,-11.00,-71.00,+85.00,-6.00,-3.00,-8.00,-16.00,-1.00,+0.00,-8.00,-22.00,-11.00,+4.00
-59.00,-41.00,-2.00,+6.00,+36.00,-106.00,-20.00,-17.00,+1.00,-66.00,-33.00,+31.00,+15.00,+14.00,-28.00,-39.00
+55.00,+63.00,+22.00,+12.00,+56.00,-29.00,-45.00,+74.00,-44.00,+12.00,+2.00,-12.00,+41.00,+19.00,+93.00,+52.00
+10.00,+3.00,-22.00,-5.00,-25.00,-108.00,+58.00,-58.00,-79.00,-52.00,+5.00,-9.00,+63.00,+13.00,-56.00,-77.00
-32.00,+5.00,-6.00,-8.00,+8.00,+111.00,+24.00,+71.00,+41.00,+102.00,+15.00,-13.00,-47.00,+61.00,+67.00,+76.00
-6.00,-48.00,-10.00,-3.00,-33.00,-84.00,-24.00,-59.00,-20.00,+69.00,+68.00,+7.00,-19.00,-105.00,-75.00,-81.00
+67.00,+6.00,+24.00,+17.00,+50.00,-13.00,-52.00,+49.00,-15.00,-128.00,-71.00,+4.00,-3.00,+15.00,+1.00,+14.00
-16.00,+89.00,-2.00,-1.00,+23.00,-3.00,+69.00,+6.00,+32.00,+59.00,+20.00,+15.00,-1.00,-20.00,-68.00,-82.00
+27.00,-25.00,-6.00,-1.00,-20.00,-128.00,-26.00,-44.00,-94.00,+48.00,+57.00,+14.00,+18.00,+19.00,+33.00,+52.00
-79.00,+25.00,-2.00,-11.00,-8.00,+54.00,+10.00,-23.00,+63.00,+41.00,-14.00,+2.00,+9.00,+2.00,-40.00,-52.00
+36.00,-50.00,-24.00,-2.00,-31.00,+26.00,+20.00,+9.00,-12.00,-73.00,-65.00,-21.00,-21.00,-1.00,+25.00,-2.00
+110.00,-7.00,+6.00,-15.00,-11.00,+2.00,-19.00,+110.00,+56.00,+2.00,+1.00,+2.00,-36.00,-10.00,-42.00,+22.00
-16.00,+40.00,+17.00,+7.00,+18.00,+6.00,+7.00,+31.00,-11.00,+13.00,+29.00,+16.00,+45.00,+21.00,-50.00,-43.00
+16.00,+16.00,+16.00,+5.00,+14.00,-7.00,-19.00,+37.00,+17.00,+20.00,+16.00,-21.00,-36.00,+15.00,+67.00,+4.00
-58.00,-25.00,-14.00,-1.00,-13.00,+3.00,-2.00,-85.00,-18.00,+6.00,+17.00,-12.00,-35.00,-65.00,-102.00,-54.00
+2.00,+5.00,-17.00,+6.00,+5.00,+57.00,-16.00,+17.00,+6.00,-76.00,-20.00,-4.00,+12.00,+22.00,-14.00,-33.00
-6.00,-29.00,-2.00,-6.00,+8.00,-33.00,+47.00,-5.00,+12.00,-14.00,-46.00,+11.00,+19.00,-5.00,-10.00,-48.00
+29.00,-61.00,-6.00,-20.00,-80.00,-51.00,-31.00,-13.00,-50.00,-61.00,-19.00,+30.00,-67.00,-18.00,+15.00,-23.00
+13.00,+80.00,+17.00,+13.00,+75.00,+127.00,+30.00,+20.00,+18.00,+65.00,-6.00,-87.00,+4.00,+0.00,-5.00,-18.00
-27.00,-19.00,+0.00,+12.00,-23.00,-100.00,-69.00,-88.00,-13.00,+60.00,+39.00,+4.00,-51.00,-7.00,+22.00,+85.00
-46.00,-19.00,+1.00,+3.00,-9.00,+15.00,-77.00,-3.00,-11.00,-30.00,-19.00,-17.00,-9.00,-54.00,-68.00,-56.00
+33.00,+24.00,-8.00,+14.00,+29.00,+83.00,+90.00,-30.00,+12.00,-35.00,-27.00,+1.00,+47.00,+65.00,+3.00,-48.00
-43.00,+11.00,+23.00,-11.00,-44.00,-25.00,-9.00,-88.00,-1.00,-68.00,-14.00,+22.00,-19.00,-25.00,+30.00,+12.00
+14.00,-58.00,-37.00,+5.00,-6.00,-4.00,+18.00,+30.00,+23.00,+118.00,+50.00,+8.00,+0.00,-15.00,-29.00,-29.00
+31.00,+38.00,+8.00,-2.00,+19.00,-50.00,-11.00,-89.00,+3.00,-32.00,-2.00,+0.00,-1.00,+1.00,+42.00,-28.00
+91.00,+5.00,-9.00,-6.00,+8.00,+74.00,-6.00,+69.00,-16.00,-21.00,-42.00,-26.00,+15.00,-11.00,-30.00,+61.00
-59.00,-28.00,-5.00,-16.00,-46.00,-84.00,-4.00,+51.00,+39.00,+62.00,+69.00,+45.00,+50.00,+52.00,+42.00,+48.00
-48.00,+7.00,+5.00,+2.00,+18.00,-62.00,-24.00,+41.00,-12.00,+52.00,-8.00,-20.00,-6.00,-4.00,-10.00,-33.00
+8.00,+46.00,+34.00,+17.00,-13.00,+17.00,+16.00,+6.00,+44.00,-2.00,-37.00,-8.00,-54.00,-47.00,-52.00,-71.00
-35.00,-15.00,-12.00,-3.00,+22.00,-2.00,-8.00,-68.00,-27.00,+2.00,+13.00,+5.00,+31.00,+10.00,+41.00,+28.00
-50.00,+14.00,-8.00,+0.00,+0.00,+25.00,+8.00,+82.00,-37.00,-104.00,-67.00,-5.00,-13.00,+10.00,-52.00,-63.00
-26.00,-33.00,+4.00,-20.00,-11.00,-11.00,-30.00,-76.00,-3.00,-38.00,-41.00,-4.00,-2.00,-1.00,+20.00,-24.00
-39.00,-47.00,-12.00,-6.00,-58.00,+8.00,+7.00,+45.00,-12.00,+80.00,+60.00,+12.00,-10.00,+40.00,+52.00,+127.00
+36.00,+33.00,+17.00,+5.00,+37.00,+48.00,+26.00,+24.00,-30.00,-46.00,-40.00,-32.00,-50.00,-67.00,-25.00,-89.00
-9.00,-23.00,-40.00,+8.00,+37.00,-82.00,-31.00,-64.00,-3.00,+61.00,+33.00,+7.00,+13.00,+75.00,-53.00,-95.00
-3.00,-60.00,+23.00,+0.00,-27.00,-10.00,-38.00,+10.00,-15.00,-68.00,-25.00,-11.00,-20.00,-82.00,-19.00,+32.00
+12.00,+49.00,-28.00,-27.00,+11.00,-29.00,+1.00,+105.00,-15.00,+7.00,-13.00,+18.00,+24.00,+5.00,+3.00,-41.00
+8.00,+73.00,+41.00,+17.00,-31.00,+7.00,+41.00,+64.00,-13.00,+38.00,+33.00,+7.00,+29.00,-21.00,-19.00,+40.00
-38.00,+1.00,-7.00,-21.00,-47.00,-16.00,+5.00,-19.00,+4.00,+61.00,+67.00,+11.00,-29.00,+9.00,-32.00,-58.00
-2.00,-24.00,-21.00,+15.00,+33.00,+41.00,+26.00,-31.00,-2.00,-109.00,-107.00,-19.00,+36.00,+5.00,-8.00,-61.00
+17.00,-21.00,+2.00,-9.00,+5.00,-11.00,-18.00,-23.00,+22.00,+45.00,+37.00,-11.00,-71.00,+12.00,-5.00,+23.00
-19.00,+6.00,+4.00,-7.00,+31.00,+83.00,-27.00,+20.00,+12.00,+117.00,+43.00,+2.00,+29.00,+17.00,+1.00,+84.00
-13.00,-32.00,-22.00,+4.00,-4.00,-36.00,-16.00,-65.00,-5.00,-128.00,-61.00,-15.00,+4.00,-33.00,-34.00,+70.00
-16.00,-5.00,-25.00,-15.00,-4.00,-10.00,-13.00,+119.00,+5.00,+38.00,+12.00,+16.00,-12.00,+16.00,-34.00,-5.00
+27.00,+8.00,+28.00,+5.00,+5.00,+8.00,+12.00,+25.00,+20.00,+71.00,+36.00,+10.00,-39.00,-21.00,+61.00,+89.00
+18.00,-51.00,-27.00,+0.00,-12.00,-11.00,-22.00,-59.00,-14.00,-74.00,-27.00,+6.00,+78.00,-48.00,-41.00,-22.00
+17.00,+44.00,+40.00,-6.00,-31.00,-18.00,+3.00,-23.00,-32.00,+26.00,-10.00,-26.00,-59.00,-99.00,-4.00,-49.00
+9.00,+45.00,+23.00,+9.00,-20.00,+43.00,+21.00,-18.00,+23.00,-34.00,+24.00,+30.00,+34.00,+45.00,+48.00,+82.00
-34.00,-60.00,-55.00,-3.00,-12.00,-39.00,-42.00,-27.00,-15.00,-63.00,-69.00,-22.00,+39.00,+17.00,-13.00,+60.00
-53.00,+71.00,+38.00,+6.00,-2.00,-25.00,-10.00,+30.00,+20.00,+62.00,+49.00,-6.00,-55.00,+11.00,-21.00,-47.00
-45.00,-66.00,-14.00,-10.00,-28.00,+10.00,-48.00,+74.00,+26.00,-25.00,+40.00,+48.00,+67.00,+43.00,+73.00,+21.00
-59.00,+13.00,+4.00,-15.00,-3.00,-23.00,+21.00,-30.00,-16.00,-9.00,+7.00,-48.00,-95.00,-19.00,-5.00,+0.00
-37.00,+10.00,-3.00,+4.00,+10.00,+12.00,+4.00,+23.00,-32.00,-20.00,-18.00,-12.00,-3.00,+77.00,-61.00,-32.00
+8.00,-71.00,-25.00,-8.00,-43.00,+51.00,+6.00,-82.00,+10.00,+6.00,+21.00,+30.00,+72.00,+20.00,+60.00,-119.00
+86.00,-23.00,-33.00,-16.00,+19.00,-25.00,-12.00,+66.00,+19.00,+44.00,+7.00,-17.00,-15.00,-118.00,-78.00,-15.00
+100.00,+69.00,+36.00,+19.00,-31.00,+2.00,+8.00,-14.00,-37.00,+11.00,+13.00,+3.00,+13.00,-1.00,+39.00,-1.00
+64.00,+5.00,+7.00,+30.00,+74.00,+15.00,-7.00,+5.00,+14.00,+15.00,+29.00,+8.00,+14.00,+65.00,+88.00,+82.00
+42.00,-69.00,-25.00,+0.00,+8.00,-42.00,-16.00,+28.00,+0.00,-36.00,-29.00,+3.00,-1.00,+32.00,+85.00,+43.00
+44.00,+104.00,+40.00,-28.00,-25.00,+26.00,-9.00,-107.00,-5.00,+33.00,+0.00,-15.00,-17.00,+119.00,+3.00,+68.00
+61.00,-20.00,-3.00,+26.00,+24.00,+34.00,+38.00,+91.00,-6.00,+41.00,+43.00,+33.00,+2.00,-41.00,+7.00,-84.00
-65.00,-87.00,-25.00,-13.00,-13.00,-4.00,+24.00,+47.00,+7.00,-114.00,-78.00,-30.00,+21.00,-62.00,+50.00,+16.00
+21.00,+79.00,+41.00,-2.00,+10.00,+19.00,+57.00,-6.00,-6.00,+10.00,-19.00,-9.00,-24.00,+51.00,-52.00,+6.00
-23.00,+23.00,+1.00,+22.00,-5.00,+34.00,+17.00,+11.00,-8.00,+81.00,+43.00,+31.00,-66.00,+1.00,+43.00,+28.00
-44.00,-46.00,-4.00,-29.00,+11.00,+9.00,+22.00,-7.00,-2.00,-88.00,-61.00,-33.00,-8.00,-14.00,-66.00,+109.00
+10.00,+19.00,-21.00,-5.00,-7.00,+9.00,-30.00,+40.00,+11.00,+94.00,+56.00,+42.00,+10.00,-100.00,+2.00,-113.00
-29.00,-55.00,-30.00,-4.00,+20.00,-24.00,-29.00,+53.00,-18.00,-123.00,-19.00,-13.00,-14.00,-4.00,-17.00,+76.00
+64.00,-1.00,+24.00,+10.00,-34.00,+7.00,+72.00,+127.00,+3.00,-29.00,-24.00,-7.00,-11.00,+13.00,-50.00,+14.00
+33.00,+15.00,-10.00,-6.00,-6.00,-80.00,-78.00,-52.00,-5.00,+47.00,+5.00,+3.00,+13.00,+69.00,-16.00,-14.00
-61.00,-22.00,-1.00,-12.00,-12.00,-82.00,-60.00,-128.00,+15.00,-6.00,-25.00,-40.00,-24.00,+54.00,+31.00,+77.00
+47.00,+8.00,+4.00,+14.00,+11.00,-20.00,+2.00,+101.00,-4.00,+57.00,+97.00,+31.00,-4.00,-69.00,-88.00,-94.00
-19.00,+5.00,+7.00,+24.00,+40.00,+75.00,+72.00,-101.00,-16.00,-47.00,-85.00,-33.00,-11.00,+40.00,+59.00,+75.00
-75.00,-38.00,-14.00,-11.00,-25.00,+30.00,+26.00,-9.00,+22.00,+66.00,+53.00,+31.00,+40.00,+81.00,-31.00,-48.00
+29.00,+2.00,-3.00,-3.00,+1.00,-1.00,+5.00,-52.00,-14.00,-96.00,-53.00,+1.00,-10.00,-94.00,-105.00,-61.00
+19.00,+30.00,+54.00,+9.00,-26.00,-39.00,-31.00,-27.00,-6.00,+11.00,-8.00,-3.00,-13.00,+66.00,+64.00,-7.00
+0.00,-19.00,-28.00,-16.00,-19.00,-77.00,-103.00,-12.00,+14.00,+103.00,+50.00,-18.00,-2.00,+71.00,-9.00,+65.00
-13.00,-25.00,-34.00,+0.00,+17.00,+23.00,+31.00,+26.00,-2.00,-18.00,+21.00,-23.00,-41.00,-94.00,-29.00,-42.00
+8.00,+76.00,+61.00,+11.00,-14.00,+46.00,+52.00,+67.00,-10.00,+74.00,+19.00,+16.00,+51.00,+127.00,+11.00,+57.00
-41.00,-48.00,-39.00,-9.00,-9.00,-42.00,-3.00,+42.00,-18.00,-73.00,-80.00,-42.00,-60.00,-128.00,-60.00,-108.00
-65.00,-46.00,-41.00,-37.00,-13.00,-8.00,-51.00,-46.00,-13.00,-15.00,-15.00,+12.00,-25.00,-83.00,-79.00,-77.00
-70.00,+39.00,+34.00,+15.00,+16.00,+29.00,-38.00,-63.00,+34.00,+35.00,+33.00,+15.00,+75.00,+83.00,-11.00,-52.00
+41.00,+31.00,-1.00,+20.00,+15.00,+52.00,+86.00,-1.00,-20.00,-26.00,+7.00,-9.00,+24.00,-52.00,-42.00,-8.00
-41.00,-48.00,-34.00,-28.00,-4.00,+12.00,+46.00,-47.00,-15.00,+59.00,+46.00,+33.00,-4.00,+46.00,+34.00,+41.00
-20.00,+14.00,+20.00,+25.00,+77.00,+13.00,-3.00,+57.00,+11.00,-14.00,-36.00,-19.00,-37.00,-57.00,-12.00,-69.00
-30.00,-5.00,-22.00,-30.00,+19.00,-105.00,-87.00,-51.00,+12.00,-56.00,-57.00,+1.00,-3.00,+21.00,+107.00,+54.00
+25.00,-26.00,-5.00,+0.00,+9.00,-24.00,-50.00,+28.00,-11.00,-110.00,-11.00,+1.00,+5.00,+7.00,+15.00,+100.00
-31.00,+7.00,-25.00,-3.00,+33.00,+58.00,+61.00,-27.00,+23.00,+38.00,+1.00,-18.00,+14.00,-43.00,-41.00,-67.00
-58.00,+15.00,+32.00,+16.00,-11.00,+1.00,-38.00,-43.00,-10.00,+33.00,+9.00,+9.00,+13.00,+37.00,+43.00,-16.00
+52.00,+8.00,-6.00,-14.00,-58.00,-25.00,+6.00,+57.00,+2.00,+107.00,+119.00,+29.00,-3.00,+40.00,+18.00,+9.00
-11.00,+48.00,+33.00,+15.00,+81.00,+79.00,+55.00,+77.00,-13.00,-103.00,-105.00,-44.00,-59.00,-78.00,+44.00,-14.00
+9.00,-47.00,-7.00,-2.00,+16.00,-33.00,-71.00,+29.00,+9.00,-1.00,-40.00,-3.00,+51.00,+60.00,-45.00,+96.00
-19.00,-64.00,-39.00,-2.00,+26.00,-6.00,+37.00,+99.00,-15.00,-48.00,+16.00,+29.00,+24.00,+53.00,+43.00,+22.00
+4.00,+42.00,-1.00,-4.00,+16.00,+24.00,+20.00,-2.00,+17.00,+17.00,-33.00,-6.00,-3.00,-122.00,-70.00,-34.00
-92.00,-13.00,-8.00,-7.00,-65.00,-116.00,-119.00,+26.00,+26.00,+127.00,+127.00,+23.00,+6.00,-11.00,+12.00,+6.00
+70.00,+87.00,+26.00,+0.00,-29.00,+61.00,+64.00,+58.00,-1.00,+63.00,+5.00,-32.00,-86.00,+82.00,+98.00,+83.00
+28.00,-54.00,+11.00,+11.00,-60.00,+23.00,+14.00,+33.00,-38.00,-65.00,-77.00,-24.00,+4.00,-99.00,-67.00,-58.00
-29.00,+12.00,-15.00,+6.00,-15.00,+36.00,+29.00,-29.00,+12.00,-41.00,-32.00,+12.00,+10.00,+79.00,+78.00,+70.00
-47.00,-41.00,-9.00,-19.00,-50.00,+13.00,+4.00,-118.00,+16.00,+99.00,+46.00,+9.00,-20.00,-31.00,-128.00,-128.00
+40.00,-23.00,-35.00,-10.00,-19.00,-93.00,-107.00,-65.00,+8.00,+24.00,+24.00,+1.00,+28.00,+5.00,+71.00,+107.00
+32.00,+127.00,+68.00,+27.00,-27.00,+57.00,+46.00,+24.00,+17.00,+90.00,+29.00,+38.00,+26.00,+77.00,-27.00,-46.00
-36.00,+7.00,-6.00,+10.00,-2.00,-4.00,-39.00,-33.00,-20.00,+17.00,-17.00,-11.00,-48.00,+28.00,+63.00,-54.00
+91.00,+18.00,+27.00,+3.00,-12.00,+3.00,+31.00,-55.00,+2.00,-41.00,-86.00,-17.00,+10.00,-58.00,-6.00,+10.00
+8.00,+12.00,+0.00,+3.00,+0.00,+58.00,+70.00,-53.00,-21.00,-81.00,-17.00,+0.00,-21.00,-17.00,-1.00,+24.00
-42.00,-100.00,-30.00,-6.00,-20.00,-1.00,-5.00,+36.00,+0.00,-34.00,+1.00,-22.00,+18.00,+100.00,-10.00,+26.00
+2.00,-73.00,+1.00,+14.00,+9.00,-2.00,-5.00,+117.00,+16.00,+72.00,+77.00,+21.00,-32.00,-128.00,-71.00,+52.00
+33.00,+78.00,+20.00,-18.00,+19.00,+4.00,+12.00,-6.00,-35.00,-55.00,-30.00,-14.00,+35.00,+3.00,+52.00,-22.00
-59.00,-19.00,+4.00,-2.00,-27.00,-54.00,-48.00,+60.00,-6.00,+25.00,+0.00,-5.00,+15.00,+1.00,-7.00,-8.00
+7.00,+56.00,-5.00,-13.00,-10.00,-17.00,-29.00,-59.00,+16.00,+33.00,+32.00,+4.00,+34.00,+24.00,-28.00,-31.00
+31.00,-7.00,+22.00,+21.00,+72.00,+94.00,+100.00,+64.00,-33.00,+60.00,-20.00,-8.00,+0.00,+63.00,-45.00,+49.00
+54.00,-47.00,-32.00,+15.00,+19.00,+73.00,+18.00,-77.00,-9.00,-45.00,-1.00,+2.00,-76.00,-44.00,-88.00,-48.00
-26.00,-43.00,+14.00,+9.00,+4.00,-38.00,-48.00,-66.00,+5.00,+55.00,-8.00,-18.00,+18.00,-25.00,+14.00,-25.00
-8.00,+55.00,-2.00,-33.00,-8.00,-13.00,+17.00,-128.00,+14.00,-50.00,+9.00,+13.00,+22.00,+5.00,+102.00,+110.00
+29.00,-16.00,-6.00,-17.00,-35.00,-33.00,-18.00,+61.00,+8.00,+55.00,+12.00,-8.00,+3.00,+104.00,+21.00,-74.00
+23.00,-53.00,-35.00,+4.00,+4.00,+12.00,-8.00,+35.00,+1.00,+0.00,+20.00,+6.00,+43.00,-59.00,+3.00,+99.00
+1.00,+98.00,+29.00,+5.00,+10.00,-7.00,-12.00,-3.00,+7.00,+9.00,+33.00,+4.00,-82.00,+53.00,-19.00,-114.00
+46.00,-68.00,-25.00,+14.00,+11.00,-44.00,-45.00,+106.00,+16.00,+27.00,+5.00,-7.00,+67.00,-81.00,-52.00,-35.00
-36.00,+28.00,+38.00,-5.00,+11.00,+9.00,-21.00,-128.00,-11.00,-28.00,-34.00,-7.00,-19.00,-14.00,+12.00,+14.00
+95.00,+69.00,-2.00,-10.00,-8.00,-7.00,+50.00,+49.00,+32.00,+119.00,+103.00,+32.00,-33.00,+54.00,+37.00,-93.00
-59.00,+17.00,-8.00,+0.00,+10.00,-8.00,-35.00,-22.00,-18.00,-103.00,-103.00,-29.00,+30.00,-49.00,-25.00,-15.00
-5.00,-31.00,-9.00,-15.00,-26.00,-52.00,-72.00,-52.00,-13.00,+39.00,+43.00,+12.00,+6.00,+29.00,-18.00,-70.00
-29.00,-75.00,-52.00,+9.00,+21.00,+65.00,+42.00,-79.00,-34.00,-61.00,-12.00,-1.00,+46.00,-40.00,+75.00,+95.00
+7.00,+55.00,+81.00,+14.00,+4.00,+21.00,+10.00,+107.00,+5.00,+94.00,+2.00,-11.00,-1.00,+127.00,-36.00,-109.00
-37.00,+11.00,+14.00,+1.00,-4.00,-8.00,-13.00,+11.00,+56.00,-47.00,-54.00,-14.00,-48.00,-97.00,+30.00,+58.00
+25.00,-11.00,-7.00,+7.00,+18.00,+33.00,+16.00,-47.00,-42.00,-73.00,+18.00,+1.00,+2.00,+8.00,-1.00,+39.00
-34.00,-5.00,-19.00,-23.00,-18.00,-52.00,-9.00,+36.00,+15.00,-22.00,-16.00,-9.00,-17.00,+16.00,-113.00,+109.00
-5.00,-48.00,+13.00,+14.00,+0.00,-8.00,-41.00,-70.00,-20.00,+57.00,+28.00,+21.00,+51.00,+96.00,+33.00,-109.00
+17.00,-21.00,-44.00,-14.00,+0.00,+12.00,+7.00,-1.00,+18.00,+90.00,+68.00,+19.00,-25.00,-35.00,-128.00,-31.00
+52.00,+1.00,+55.00,+16.00,-9.00,-1.00,+12.00,+73.00,-10.00,-14.00,-19.00,-3.00,+26.00,+1.00,+8.00,-34.00
+67.00,+47.00,-23.00,-8.00,-20.00,-44.00,-80.00,-93.00,-21.00,-43.00,-27.00,-21.00,-24.00,-20.00,+59.00,+21.00
-111.00,-26.00,-25.00,-9.00,+28.00,+36.00,+17.00,-69.00,+32.00,+38.00,+14.00,+10.00,+17.00,+64.00,-69.00,-29.00
+43.00,-24.00,+0.00,+11.00,+38.00,-23.00,+12.00,+30.00,-26.00,-22.00,+49.00,-11.00,-8.00,+26.00,+98.00,+57.00
+25.00,+4.00,+18.00,+5.00,+9.00,+27.00,+42.00,+4.00,+48.00,-15.00,-29.00,+42.00,+61.00,-35.00,+15.00,+22.00
+61.00,+94.00,+16.00,+16.00,+9.00,-5.00,+5.00,+113.00,-29.00,-3.00,-35.00,-60.00,-106.00,-94.00,-75.00,-128.00
-36.00,-97.00,-43.00,-11.00,-26.00,-16.00,+6.00,-5.00,+6.00,+6.00,+20.00,+17.00,+27.00,-35.00,+109.00,+127.00
+28.00,+94.00,+105.00,+19.00,+3.00,+30.00,-11.00,-56.00,-26.00,-62.00,-34.00,-15.00,+31.00,+48.00,-67.00,-49.00
-63.00,-37.00,-121.00,-39.00,-5.00,-19.00,+11.00,-80.00,+7.00,+99.00,-9.00,-3.00,-54.00,+21.00,+78.00,+32.00
-39.00,-58.00,+38.00,-6.00,-11.00,-14.00,-63.00,-128.00,+15.00,+42.00,+73.00,+16.00,+32.00,+55.00,+60.00,+41.00
-2.00,-84.00,-113.00,-34.00,-31.00,-111.00,-122.00,-5.00,+34.00,-128.00,-76.00,-25.00,-39.00,-61.00,-28.00,-34.00
+68.00,+69.00,+80.00,+27.00,+23.00,+90.00,+110.00,+30.00,+9.00,+23.00,-16.00,-2.00,+9.00,-7.00,+8.00,+5.00
+14.00,+56.00,+48.00,+10.00,+10.00,+39.00,+28.00,+105.00,+12.00,+64.00,+41.00,-5.00,-3.00,+60.00,+84.00,+63.00
-78.00,-39.00,+7.00,+2.00,-3.00,-39.00,-75.00,-56.00,+58.00,+85.00,+106.00,+68.00,-61.00,+55.00,-55.00,-19.00
-10.00,+24.00,-12.00,+1.00,+1.00,-37.00,-24.00,+76.00,-69.00,-64.00,-55.00,-75.00,+55.00,-122.00,+26.00,+78.00
-30.00,-114.00,-51.00,-4.00,-2.00,+34.00,+24.00,-2.00,+34.00,+15.00,+65.00,+29.00,+10.00,+127.00,+70.00,-20.00
+1.00,-1.00,-7.00,-2.00,-3.00,+9.00,-2.00,-24.00,-18.00,-20.00,-16.00,-10.00,+19.00,+14.00,-128.00,-7.00
-19.00,+23.00,+10.00,+15.00,+8.00,-5.00,-4.00,-89.00,-15.00,+57.00,+21.00,+0.00,-14.00,-77.00,+87.00,-20.00
+65.00,-24.00,+6.00,+7.00,-4.00,-26.00,-10.00,+105.00,+3.00,+58.00,+22.00,+20.00,-107.00,-10.00,+104.00,+127.00
-68.00,+24.00,-48.00,-34.00,-65.00,-70.00,-53.00,-126.00,+2.00,-2.00,-31.00,-17.00,+90.00,+36.00,-29.00,+12.00
+13.00,+24.00,+35.00,+11.00,+17.00,+57.00,+118.00,-16.00,-3.00,+0.00,+10.00,+13.00,+40.00,-36.00,+89.00,-49.00
-14.00,-19.00,-15.00,+10.00,+55.00,+35.00,+36.00,+23.00,+11.00,-24.00,-27.00,-6.00,-29.00,+64.00,+2.00,-72.00
-18.00,+14.00,-6.00,+5.00,+10.00,+54.00,+1.00,-128.00,+6.00,-55.00,-24.00,+26.00,+79.00,-42.00,+7.00,-65.00
+13.00,+97.00,+52.00,-2.00,+5.00,-27.00,-17.00,-49.00,-27.00,+25.00,-5.00,-25.00,-31.00,+18.00,-59.00,-21.00
+47.00,-77.00,+18.00,+25.00,-14.00,-14.00,-31.00,+41.00,-8.00,+35.00,+33.00,-3.00,-84.00,-24.00,-30.00,-17.00
-37.00,-69.00,-91.00,-74.00,-61.00,-75.00,-46.00,+21.00,-26.00,-128.00,-79.00,-48.00,-6.00,-76.00,-122.00,-113.00
+26.00,-15.00,+77.00,+15.00,+28.00,+55.00,+70.00,+88.00,+51.00,+55.00,+5.00,+5.00,+34.00,-5.00,+26.00,+43.00
-7.00,-7.00,+2.00,+0.00,-12.00,-1.00,+4.00,-13.00,-10.00,+86.00,+96.00,+35.00,-38.00,+32.00,+56.00,+22.00
+42.00,+8.00,+10.00,-1.00,+7.00,-31.00,-40.00,+79.00,+31.00,-72.00,-30.00,-32.00,+4.00,+12.00,+32.00,+93.00
-35.00,-87.00,-80.00,+5.00,-9.00,-26.00,-3.00,-40.00,-18.00,+15.00,+1.00,+17.00,+19.00,-45.00,+0.00,-44.00
+42.00,+116.00,+75.00,+9.00,+39.00,+68.00,+15.00,-88.00,-29.00,-29.00,+26.00,-1.00,-13.00,+48.00,-78.00,-9.00
-6.00,-80.00,-15.00,+3.00,+0.00,-20.00,-12.00,+15.00,-7.00,+5.00,-2.00,+22.00,-24.00,+12.00,-121.00,-118.00
-14.00,-75.00,-23.00,-23.00,-3.00,-17.00,-34.00,+37.00,-15.00,-36.00,+15.00,-1.00,+15.00,-24.00,-37.00,+23.00
-18.00,-44.00,+12.00,+33.00,+31.00,+85.00,+89.00,-26.00,+3.00,-12.00,-16.00,-3.00,+44.00,-8.00,-37.00,+114.00
-107.00,-89.00,-55.00,-24.00,-25.00,-34.00,-97.00,-128.00,-23.00,-4.00,+15.00,+15.00,-29.00,+4.00,-12.00,-38.00
+7.00,+7.00,-10.00,+4.00,+6.00,+0.00,-11.00,+56.00,+11.00,-5.00,-21.00,-20.00,+18.00,+77.00,+85.00,+3.00
+10.00,+33.00,-6.00,+7.00,+15.00,-19.00,+14.00,+48.00,-11.00,-24.00,-25.00,-11.00,-57.00,-96.00,-30.00,-89.00
+77.00,+30.00,+16.00,-10.00,-17.00,-27.00,-50.00,-28.00,+31.00,+31.00,+19.00,+21.00,+39.00,+49.00,-76.00,-59.00
-12.00,+56.00,+20.00,-2.00,-54.00,+28.00,+79.00,+32.00,-27.00,+40.00,+30.00,+13.00,-37.00,+7.00,-10.00,-8.00
+5.00,-27.00,-37.00,-9.00,+80.00,-8.00,-50.00,+1.00,-40.00,+30.00,-24.00,+0.00,+59.00,-65.00,-73.00,-47.00
-67.00,-34.00,+11.00,+18.00,+11.00,+46.00,-4.00,-117.00,+6.00,-80.00,-77.00,-31.00,+16.00,+84.00,-56.00,-53.00
+101.00,+127.00,+1.00,-34.00,-10.00,-47.00,+1.00,+122.00,+36.00,+86.00,+88.00,+37.00,-15.00,-84.00,-37.00,-52.00
-6.00,-21.00,+54.00,+48.00,+11.00,+51.00,+77.00,+6.00,-42.00,-115.00,-80.00,-33.00,-95.00,+22.00,+71.00,+21.00
-52.00,-54.00,-100.00,-41.00,-35.00,-51.00,-55.00,-98.00,+39.00,+55.00,-7.00,-3.00,+12.00,+5.00,+17.00,-56.00
+34.00,+23.00,+7.00,-12.00,-19.00,+5.00,-7.00,+57.00,-29.00,+92.00,+64.00,+12.00,-25.00,-2.00,+8.00,-29.00
-35.00,-15.00,+28.00,+32.00,+6.00,+16.00,+46.00,+53.00,+4.00,+86.00,+61.00,+25.00,+76.00,+127.00,+5.00,+39.00
-7.00,+12.00,-3.00,-10.00,+4.00,-32.00,-58.00,-128.00,+16.00,-64.00,-23.00,-2.00,-1.00,-96.00,-91.00,-44.00
+30.00,-39.00,-40.00,-16.00,-23.00,-17.00,-31.00,+123.00,-22.00,-19.00,-19.00,-6.00,-35.00,-34.00,+26.00,+29.00
-39.00,-8.00,-10.00,-1.00,+8.00,+2.00,+69.00,-37.00,-29.00,-19.00,-29.00,+24.00,+26.00,+106.00,+28.00,+127.00
-18.00,+14.00,+41.00,+9.00,+2.00,+52.00,+51.00,+30.00,+3.00,-18.00,-22.00,-16.00,-29.00,-40.00,+17.00,-49.00
-55.00,+8.00,-35.00,-18.00,-2.00,+13.00,-21.00,-25.00,-31.00,-63.00,-65.00,-23.00,+45.00,-2.00,+2.00,+84.00
+58.00,-17.00,+12.00,+9.00,+6.00,-86.00,-73.00,+54.00,+36.00,+78.00,+68.00,+22.00,+20.00,-30.00,-81.00,-72.00
+26.00,+46.00,+10.00,-7.00,+1.00,+14.00,-21.00,-90.00,+63.00,-11.00,-6.00,+6.00,-17.00,-47.00,+22.00,+33.00
+114.00,-5.00,+29.00,+21.00,+0.00,+18.00,+95.00,+124.00,-55.00,-120.00,-52.00,-20.00,-60.00,+127.00,+29.00,+44.00
+10.00,-53.00,-24.00,+3.00,+2.00,+14.00,+37.00,-11.00,+12.00,+61.00,+23.00,+19.00,+99.00,-65.00,-32.00,-47.00
-32.00,+0.00,+16.00,+8.00,+3.00,+46.00,-6.00,-102.00,-1.00,-7.00,-2.00,-8.00,-92.00,+83.00,+27.00,+117.00
+41.00,+89.00,+56.00,+0.00,-38.00,-95.00,-105.00,-4.00,+6.00,+45.00,+21.00,-9.00,+25.00,-112.00,-39.00,-8.00
+1.00,-110.00,-67.00,+4.00,+16.00,+51.00,+26.00,-85.00,-22.00,-50.00,-28.00,-26.00,+31.00,+12.00,+20.00,+119.00
+40.00,+115.00,+31.00,-25.00,-10.00,-42.00,-80.00,-26.00,+44.00,+45.00,+49.00,+17.00,-9.00,+76.00,+76.00,-47.00
+74.00,+34.00,+46.00,+37.00,+11.00,+47.00,+127.00,+127.00,-30.00,-58.00,-8.00,+18.00,+32.00,+41.00,+82.00,+66.00
-56.00,-30.00,-45.00,-16.00,-5.00,+10.00,+28.00,+100.00,+29.00,+69.00,+105.00,+28.00,-50.00,-10.00,+23.00,+14.00
-15.00,-24.00,-16.00,-7.00,-9.00,-38.00,-84.00,-128.00,-16.00,+1.00,-47.00,-22.00,+13.00,+28.00,-49.00,-41.00
+5.00,-29.00,-18.00,-2.00,+13.00,+59.00,+117.00,+117.00,-49.00,-59.00,+0.00,+2.00,+4.00,-29.00,+36.00,+44.00
-23.00,-3.00,+12.00,-5.00,-16.00,-18.00,-58.00,-30.00,+31.00,-88.00,-65.00,-19.00,+2.00,-48.00,+70.00,+121.00
-87.00,-62.00,-24.00,-18.00,-21.00,-48.00,-67.00,-101.00,+3.00,+4.00,+61.00,+4.00,-21.00,-12.00,-73.00,-47.00
-14.00,+77.00,+15.00,+5.00,+17.00,+23.00,-21.00,+13.00,-14.00,+61.00,-51.00,-6.00,+25.00,-24.00,+99.00,+91.00
-35.00,+8.00,+26.00,-1.00,-20.00,-67.00,-51.00,+7.00,+29.00,+127.00,+95.00,+16.00,-4.00,+60.00,-38.00,-128.00
-37.00,-52.00,-5.00,+7.00,+3.00,+65.00,+79.00,+50.00,-28.00,-102.00,-74.00,-28.00,-43.00,-15.00,-98.00,-104.00
-4.00,-15.00,-30.00,-10.00,+18.00,+44.00,+19.00,-38.00,-34.00,-41.00,-54.00,-18.00,-4.00,-31.00,+18.00,+32.00
-18.00,+33.00,+19.00,-9.00,-31.00,-114.00,-107.00,+61.00,+18.00,-20.00,+19.00,+1.00,+13.00,-60.00,+6.00,+70.00
-39.00,-57.00,-22.00,-17.00,-45.00,+16.00,-15.00,-74.00,-21.00,+27.00,-8.00,-10.00,+48.00,+122.00,+27.00,-53.00
-31.00,+6.00,+10.00,+15.00,+38.00,-51.00,-34.00,+63.00,+41.00,+53.00,+50.00,+35.00,+30.00,+7.00,-10.00,-11.00
+127.00,+54.00,+10.00,+29.00,+47.00,+108.00,+105.00,+84.00,-10.00,+1.00,-19.00,-27.00,-52.00,-55.00,-21.00,-128.00
-100.00,-24.00,+25.00,+6.00,+11.00,+7.00,-16.00,-89.00,-24.00,-54.00,-28.00,+6.00,-50.00,+26.00,-21.00,+29.00
+44.00,+34.00,-14.00,-2.00,-10.00,+1.00,+30.00,+92.00,+41.00,-1.00,+24.00,+32.00,+71.00,+44.00,+67.00,+91.00
-25.00,+2.00,-7.00,-17.00,-18.00,+5.00,-41.00,-96.00,-26.00,+67.00,+38.00,-19.00,-72.00,+38.00,-19.00,-83.00
-60.00,-40.00,+3.00,+18.00,+20.00,-26.00,-38.00,-78.00,-21.00,+4.00,-36.00,-9.00,+41.00,-47.00,-40.00,+127.00
-10.00,-33.00,+14.00,-6.00,-12.00,-48.00,-34.00,+2.00,+33.00,-35.00,+53.00,+8.00,+12.00,+54.00,+125.00,-43.00
+77.00,+45.00,-36.00,-14.00,+21.00,+21.00,+46.00,+36.00,+15.00,+73.00,-45.00,-5.00,-54.00,-45.00,+3.00,+31.00
-54.00,+26.00,+18.00,-4.00,-2.00,+0.00,-44.00,-128.00,+12.00,-84.00,-79.00,-17.00,+21.00,-34.00,-24.00,+99.00
+11.00,+3.00,+7.00,-6.00,-5.00,-3.00,+4.00,+56.00,+2.00,+77.00,+46.00,+28.00,-6.00,+31.00,+65.00,+18.00
-49.00,+32.00,+3.00,-15.00,-27.00,+7.00,+6.00,-72.00,+13.00,+66.00,+76.00,+15.00,-6.00,-51.00,-53.00,+2.00
+24.00,-128.00,-22.00,+19.00,-2.00,-65.00,-74.00,-40.00,-84.00,-86.00,-83.00,-67.00,-46.00,-56.00,-127.00,-23.00
+49.00,+103.00,+47.00,+4.00,-5.00,-2.00,+13.00,+56.00,+12.00,+82.00,+87.00,+26.00,+29.00,+0.00,+37.00,+82.00
+1.00,+2.00,+14.00,+5.00,-10.00,+5.00,+19.00,-33.00,-2.00,+8.00,-7.00,-13.00,-31.00,+1.00,+9.00,+83.00
-33.00,-22.00,-19.00,-19.00,-1.00,+51.00,+30.00,+0.00,+6.00,+60.00,+12.00,+9.00,+80.00,+49.00,-48.00,+1.00
-3.00,-6.00,-5.00,-4.00,-8.00,-84.00,-96.00,+21.00,+62.00,+71.00,+105.00,+37.00,-26.00,+34.00,-93.00,-46.00
+26.00,-14.00,-18.00,+4.00,+1.00,+55.00,+74.00,-60.00,-40.00,-44.00,-51.00,-22.00,-73.00,-128.00,-89.00,-54.00
-7.00,-16.00,+9.00,+11.00,-6.00,+77.00,+72.00,+33.00,-15.00,-29.00,-34.00,-14.00,+39.00,+76.00,+7.00,+98.00
+14.00,+17.00,+10.00,-3.00,-33.00,-19.00,-65.00,-37.00,-2.00,+1.00,-8.00,+13.00,+69.00,-39.00,-69.00,-128.00
+1.00,+18.00,+0.00,+1.00,+35.00,-4.00,+22.00,+113.00,+11.00,-14.00,+19.00,+7.00,-9.00,+91.00,+79.00,+127.00
-30.00,-39.00,-9.00,-4.00,-15.00,-43.00,-77.00,+9.00,+40.00,+53.00,+39.00,+40.00,+28.00,+31.00,+88.00,+38.00
-53.00,-70.00,-42.00,-24.00,-9.00,-29.00,+8.00,+20.00,+12.00,+2.00,+19.00,-10.00,-21.00,+62.00,-56.00,-36.00
+127.00,+74.00,+21.00,+15.00,+42.00,+28.00,+91.00,+127.00,+1.00,-14.00,+35.00,+14.00,-18.00,+75.00,+27.00,+14.00
-36.00,-44.00,-42.00,+3.00,+2.00,+38.00,+3.00,-27.00,-49.00,-110.00,-114.00,-67.00,-48.00,-128.00,-114.00,-26.00
+73.00,+49.00,+51.00,+6.00,+13.00,-2.00,+20.00,+103.00,-19.00,+25.00,+11.00,-15.00,+20.00,+6.00,+72.00,-58.00
-4.00,-17.00,-9.00,-4.00,+5.00,-7.00,-5.00,+12.00,+47.00,+82.00,+85.00,+57.00,+51.00,+112.00,+45.00,-32.00
+23.00,-14.00,-27.00,-22.00,-17.00,-48.00,-22.00,+4.00,-42.00,-2.00,-95.00,-63.00,-69.00,-91.00,+83.00,+92.00
-4.00,+19.00,+48.00,+14.00,-8.00,-44.00,-33.00,-100.00,+17.00,-81.00,-70.00,-22.00,-9.00,+66.00,+68.00,-75.00
-7.00,-54.00,-35.00,-7.00,-12.00,+35.00,+113.00,+99.00,-17.00,+69.00,+31.00,+11.00,+24.00,+37.00,-16.00,+4.00
-62.00,-11.00,-37.00,-19.00,-10.00,-41.00,-67.00,-109.00,-13.00,+32.00,-15.00,-1.00,+10.00,-28.00,+16.00,+15.00
-43.00,-69.00,+15.00,+17.00,-8.00,-44.00,-108.00,-39.00,-35.00,+58.00,+2.00,-8.00,-12.00,+3.00,+34.00,+27.00
+77.00,+31.00,-8.00,-2.00,+28.00,+74.00,+104.00,+97.00,+55.00,+92.00,+91.00,+54.00,+38.00,+19.00,+67.00,-5.00
-15.00,-10.00,-20.00,-8.00,-22.00,+18.00,+26.00,-30.00,-14.00,+22.00,-33.00,-9.00,-25.00,-56.00,-29.00,-128.00
-31.00,+15.00,+19.00,-5.00,-21.00,-101.00,-128.00,-69.00,-26.00,-87.00,-45.00,-10.00,+2.00,+57.00,+82.00,+109.00
+49.00,-10.00,-14.00,-7.00,+68.00,+51.00,+85.00,+127.00,+0.00,-63.00,-15.00,-31.00,-67.00,-80.00,-42.00,-95.00
-23.00,+25.00,+23.00,+13.00,+18.00,-23.00,-52.00,-53.00,+12.00,+32.00,+5.00,-45.00,-45.00,+68.00,+44.00,+118.00
-34.00,-11.00,+4.00,+5.00,+11.00,+45.00,+36.00,+34.00,-32.00,-69.00,-9.00,+18.00,+20.00,-90.00,-117.00,+1.00
-2.00,-18.00,+4.00,+0.00,-22.00,-20.00,+30.00,-62.00,-39.00,-27.00,+3.00,-21.00,+26.00,+62.00,-5.00,-55.00
+9.00,-30.00,-53.00,-24.00,-63.00,-45.00,-32.00,-14.00,+65.00,+38.00,-19.00,+22.00,-32.00,+29.00,-25.00,+23.00
+21.00,+99.00,+50.00,+10.00,+1.00,+88.00,+58.00,-57.00,-51.00,-40.00,+18.00,-1.00,+69.00,-8.00,-77.00,-35.00
+98.00,+51.00,+25.00,+20.00,+6.00,+30.00,-8.00,-17.00,+25.00,+41.00,+20.00,+12.00,-15.00,+76.00,-37.00,-61.00
-57.00,-95.00,-21.00,+4.00,-12.00,-18.00,-61.00,-92.00,-23.00,-87.00,-90.00,-22.00,-4.00,-127.00,-92.00,-58.00
-32.00,+71.00,+81.00,+14.00,-1.00,-3.00,-19.00,-11.00,-9.00,-31.00,+27.00,-7.00,+6.00,+34.00,-104.00,-70.00
+28.00,+67.00,+66.00,-5.00,-2.00,-29.00,+41.00,+97.00,+11.00,+78.00,+60.00,+26.00,-3.00,-44.00,+28.00,+3.00
-4.00,-23.00,-21.00,-12.00,-17.00,-89.00,-97.00,-106.00,-31.00,-77.00,-51.00,-16.00,+25.00,+12.00,+10.00,+29.00
+15.00,+26.00,+20.00,+14.00,+10.00,+59.00,+87.00,+53.00,+79.00,+23.00,+22.00,+7.00,-13.00,+21.00,+44.00,+10.00
-16.00,-64.00,-30.00,-29.00,-26.00,-23.00,-51.00,-75.00,-9.00,+91.00,+56.00,+24.00,+46.00,+53.00,+2.00,-11.00
+35.00,-49.00,-42.00,-10.00,-8.00,-46.00,-68.00,-90.00,+13.00,+28.00,+69.00,+7.00,-29.00,+49.00,+6.00,+93.00
+76.00,-48.00,+7.00,+26.00,+16.00,+48.00,+45.00,-17.00,-50.00,-92.00,-71.00,-30.00,+7.00,-87.00,-31.00,+23.00
+30.00,+69.00,-12.00,-12.00,-9.00,-37.00,-60.00,-20.00,+14.00,+26.00,+7.00,-46.00,-105.00,-74.00,-31.00,-60.00
+75.00,+17.00,+1.00,+4.00,+33.00,+64.00,+127.00,+127.00,-31.00,-76.00,-58.00,-25.00,+85.00,-41.00,+24.00,+56.00
-58.00,-25.00,-5.00,+1.00,+8.00,-33.00,-42.00,+38.00,+27.00,+58.00,+23.00,+16.00,-15.00,+48.00,+60.00,-34.00
-58.00,-41.00,-29.00,-9.00,+10.00,+0.00,-58.00,-102.00,-28.00,+23.00,+27.00,-12.00,+1.00,-5.00,+20.00,+46.00
-21.00,-30.00,-15.00,+2.00,-2.00,-21.00,-29.00,-2.00,-9.00,-23.00,-41.00,-14.00,-75.00,-48.00,-102.00,-76.00
-1.00,+7.00,+15.00,+27.00,-5.00,+7.00,-1.00,+96.00,+28.00,-22.00,+17.00,+7.00,+27.00,+13.00,+121.00,+105.00
-71.00,+72.00,+2.00,-11.00,-11.00,-8.00,-16.00,-29.00,-18.00,+66.00,+15.00,+0.00,-13.00,+33.00,-79.00,-85.00
+38.00,-39.00,-19.00,-3.00,-13.00,-45.00,+21.00,+95.00,-22.00,+5.00,+27.00,-33.00,-22.00,-51.00,-82.00,-74.00
-5.00,+88.00,+38.00,-7.00,-11.00,+18.00,+67.00,+127.00,+14.00,-10.00,-23.00,+20.00,+1.00,+21.00,+127.00,+90.00
+31.00,-45.00,-40.00,-5.00,+27.00,+22.00,+11.00,-104.00,-10.00,+55.00,+78.00,+15.00,-20.00,-3.00,-96.00,+54.00
-38.00,-51.00,-13.00,+7.00,-11.00,+8.00,+3.00,-9.00,-4.00,-19.00,-55.00,-12.00,+42.00,+12.00,-71.00,+8.00
-128.00,-29.00,-16.00,-28.00,-14.00,-39.00,-82.00,-122.00,+48.00,+127.00,+127.00,+72.00,+10.00,+127.00,+55.00,+101.00
+57.00,+58.00,+45.00,+18.00,+17.00,+35.00,+45.00,+97.00,-11.00,-61.00,-70.00,-50.00,-32.00,-96.00,-39.00,-53.00
-51.00,-64.00,-12.00,-13.00,-6.00,+0.00,+5.00,-127.00,-40.00,-64.00,-13.00,-13.00,-79.00,+26.00,+15.00,+46.00
-40.00,-56.00,-36.00,-26.00,-44.00,-58.00,-66.00,-80.00,+17.00,-74.00,-11.00,+16.00,+45.00,-115.00,-109.00,-80.00
+61.00,+108.00,+26.00,+11.00,+29.00,+40.00,+93.00,+19.00,-19.00,+47.00,+22.00,+20.00,-41.00,+50.00,+33.00,+92.00
-19.00,-15.00,-7.00,-4.00,+3.00,-10.00,-37.00,+54.00,-24.00,+2.00,+30.00,+33.00,+86.00,-53.00,+1.00,+111.00
-63.00,+9.00,+16.00,+14.00,+8.00,+37.00,-1.00,+20.00,+33.00,+47.00,+17.00,+29.00,+33.00,+66.00,+59.00,-100.00
+29.00,-44.00,-7.00,+9.00,+7.00,-1.00,+29.00,-36.00,-8.00,+3.00,-15.00,+27.00,+33.00,+7.00,-15.00,+40.00
-77.00,-32.00,+17.00,+9.00,-16.00,-24.00,-57.00,+5.00,+5.00,-14.00,-28.00,-59.00,-95.00,+34.00,+59.00,+103.00
+29.00,+19.00,-22.00,-4.00,+25.00,+2.00,-21.00,-54.00,-3.00,+38.00,+13.00,+13.00,-37.00,+64.00,-13.00,-112.00
+46.00,+52.00,+27.00,+24.00,+55.00,+106.00,+119.00,+127.00,+23.00,-21.00,-31.00,-45.00,+50.00,-106.00,+37.00,+30.00
-49.00,-91.00,-5.00,-8.00,-20.00,-59.00,-78.00,-77.00,-50.00,-19.00,-3.00,-25.00,-34.00,+3.00,+53.00,+62.00
+27.00,+51.00,-15.00,-6.00,+17.00,+19.00,+60.00,+2.00,+79.00,+1.00,+4.00,+32.00,+82.00,+43.00,+6.00,-67.00
+3.00,+10.00,+37.00,+13.00,-6.00,+27.00,+25.00,-81.00,+26.00,+127.00,+82.00,+32.00,+26.00,+127.00,-2.00,-30.00
-59.00,-54.00,-25.00,-18.00,-32.00,-57.00,-73.00,-64.00,+18.00,-82.00,-114.00,+11.00,+25.00,-128.00,+12.00,-45.00
-15.00,+68.00,+19.00,+12.00,+11.00,+31.00,+46.00,-75.00,-65.00,-124.00,+4.00,+11.00,-24.00,+108.00,+18.00,-86.00
-41.00,-128.00,-70.00,-32.00,-28.00,-50.00,-51.00,+9.00,+50.00,+81.00,+72.00,+22.00,+37.00,+77.00,+1.00,+75.00
+43.00,+61.00,+10.00,-12.00,-3.00,+4.00,+30.00,-18.00,-11.00,+72.00,+34.00,+20.00,+13.00,+53.00,+7.00,+90.00
-48.00,-8.00,+50.00,+12.00,-3.00,-62.00,-87.00,-82.00,-43.00,-82.00,-53.00,-54.00,-66.00,+42.00,+67.00,+113.00
+28.00,+61.00,+12.00,+10.00,+15.00,+43.00,+62.00,+127.00,+61.00,+71.00,+33.00,+7.00,+3.00,-24.00,+27.00,+2.00
-42.00,-18.00,-6.00,-1.00,-20.00,-80.00,-43.00,+95.00,-6.00,+12.00,-9.00,-14.00,-20.00,-87.00,+15.00,+10.00
-86.00,-53.00,-30.00,-10.00,+6.00,+70.00,-25.00,-123.00,-1.00,+70.00,+63.00,+9.00,+59.00,+13.00,-5.00,-19.00
+51.00,+18.00,+4.00,+9.00,-24.00,+0.00,+22.00,+90.00,-26.00,+68.00,+3.00,-5.00,-65.00,-54.00,-111.00,-128.00
+19.00,-27.00,-9.00,+1.00,+3.00,+48.00,+85.00,-39.00,-53.00,-29.00,-32.00,-16.00,-15.00,+17.00,+13.00,+16.00
-15.00,+5.00,-4.00,+0.00,+21.00,+44.00,-11.00,-10.00,+7.00,-71.00,-33.00,-7.00,-13.00,-69.00,+44.00,+74.00
+28.00,-36.00,+1.00,+3.00,+25.00,-48.00,-35.00,+48.00,+4.00,-2.00,+22.00,+6.00,+24.00,-54.00,+14.00,-19.00
+49.00,+70.00,+34.00,+28.00,+70.00,+56.00,+45.00,-19.00,-12.00,-26.00,-21.00,-22.00,-23.00,-30.00,-128.00,-90.00
-47.00,-18.00,-39.00,-18.00,-15.00,-20.00,-43.00,+2.00,-31.00,+46.00,-4.00,-27.00,-70.00,+13.00,-62.00,+86.00
+6.00,+7.00,+1.00,-6.00,-26.00,-14.00,+52.00,+29.00,+23.00,-22.00,+29.00,+32.00,+75.00,+120.00,+78.00,-12.00
-52.00,-86.00,+2.00,-7.00,-36.00,-107.00,-115.00,-66.00,+42.00,-65.00,-49.00,-40.00,-57.00,-107.00,-100.00,-21.00
+71.00,+104.00,+26.00,+24.00,+48.00,+100.00,+91.00,-23.00,-43.00,+99.00,+68.00,+15.00,+38.00,+4.00,+54.00,+110.00
+25.00,+20.00,+1.00,-5.00,+4.00,-20.00,-32.00,-17.00,+43.00,-8.00,-18.00,+18.00,+11.00,+11.00,-74.00,-77.00
-44.00,-56.00,-22.00,+9.00,+1.00,-11.00,-9.00,-3.00,-16.00,+71.00,+9.00,-12.00,-12.00,+33.00,-14.00,-85.00
-66.00,-65.00,-76.00,-23.00,-23.00,-18.00,-46.00,-80.00,+12.00,+32.00,-31.00,+0.00,-76.00,+109.00,+28.00,+96.00
+52.00,+96.00,+56.00,-32.00,-39.00,-108.00,-111.00,-73.00,-3.00,-86.00,-10.00,+7.00,+96.00,-53.00,-37.00,-36.00
+34.00,-16.00,+2.00,-6.00,+12.00,+25.00,+23.00,+101.00,-5.00,-72.00,-61.00,-8.00,+43.00,+55.00,+7.00,+18.00
-3.00,-16.00,+14.00,+7.00,+11.00,+42.00,+31.00,-102.00,+39.00,-3.00,-9.00,-2.00,+18.00,+37.00,-37.00,+20.00
-23.00,+1.00,-13.00,+9.00,+1.00,+11.00,+31.00,+79.00,-22.00,+43.00,+56.00,+40.00,+38.00,+90.00,+34.00,-4.00
+18.00,-79.00,-67.00,-21.00,-13.00,-15.00,-61.00,-59.00,-13.00,+32.00,+44.00,+26.00,-46.00,+77.00,+10.00,-45.00
+68.00,+3.00,+13.00,+1.00,+11.00,-32.00,+3.00,+88.00,-13.00,+16.00,+9.00,-13.00,-2.00,-124.00,+44.00,+13.00
+57.00,+39.00,+34.00,+23.00,+2.00,+8.00,-18.00,+86.00,-31.00,-72.00,-55.00,-12.00,+0.00,-92.00,-90.00,-23.00
+24.00,-16.00,-17.00,-11.00,-43.00,+18.00,+86.00,+127.00,+5.00,+32.00,+45.00,+10.00,-3.00,+10.00,+33.00,-55.00
-44.00,-7.00,-10.00,+0.00,+33.00,-1.00,-29.00,-25.00,+21.00,+13.00,-15.00,+45.00,+37.00,+72.00,+77.00,+90.00
-126.00,-76.00,-11.00,-17.00,-29.00,-35.00,-63.00,+19.00,+13.00,+21.00,+27.00,-29.00,-59.00,-27.00,+58.00,+16.00
+30.00,+72.00,+17.00,+20.00,+13.00,-3.00,+6.00,-125.00,+21.00,+24.00,+1.00,-31.00,+1.00,-21.00,+30.00,-3.00
+71.00,+38.00,+28.00,+20.00,+42.00,+3.00,+63.00,+73.00,-10.00,-45.00,-22.00,-19.00,-16.00,-77.00,-43.00,-69.00
-128.00,-57.00,-32.00,-18.00,-46.00,+37.00,-19.00,-74.00,+3.00,-17.00,-2.00,-14.00,-39.00,+35.00,+36.00,+16.00
+34.00,-24.00,-21.00,-4.00,-14.00,+6.00,+28.00,+77.00,+12.00,+14.00,-8.00,+35.00,+28.00,-10.00,+2.00,-47.00
+6.00,-14.00,+18.00,+0.00,-7.00,-43.00,-83.00,+78.00,-25.00,-25.00,-18.00,-27.00,-42.00,-7.00,+26.00,+76.00
-37.00,+5.00,-14.00,-9.00,-21.00,-101.00,-127.00,-78.00,-22.00,+18.00,-5.00,-44.00,-13.00,-3.00,-45.00,-43.00
-14.00,-77.00,-21.00,-21.00,-18.00,+28.00,+43.00,-25.00,-15.00,-98.00,-22.00,-4.00,-5.00,+0.00,-37.00,+7.00
+70.00,+46.00,+35.00,+1.00,+17.00,+17.00,-5.00,-7.00,+53.00,+52.00,+28.00,+8.00,+20.00,+20.00,+33.00,+49.00
-83.00,-32.00,-14.00,-2.00,-11.00,+10.00,-10.00,-51.00,-42.00,-81.00,-52.00,+7.00,+4.00,-24.00,-8.00,-39.00
-73.00,+28.00,-10.00,-6.00,+11.00,+0.00,+5.00,+73.00,+10.00,+40.00,+15.00,+19.00,+29.00,-13.00,-33.00,-2.00
-119.00,+38.00,+48.00,+17.00,-10.00,-90.00,-82.00,-40.00,-36.00,-43.00,-56.00,-16.00,-19.00,+13.00,+6.00,-8.00
-101.00,-44.00,-45.00,-25.00,-7.00,+36.00,+57.00,+36.00,+7.00,-10.00,-13.00,+0.00,+6.00,-10.00,-41.00,-30.00
-47.00,-9.00,-11.00,-20.00,-27.00,-11.00,-16.00,+2.00,-22.00,-17.00,+9.00,-3.00,-13.00,-11.00,-43.00,-68.00
+95.00,-11.00,+8.00,+8.00,+9.00,+40.00,+10.00,+50.00,-28.00,-46.00,-22.00,+7.00,+10.00,+1.00,+40.00,+19.00
+9.00,-30.00,-15.00,-7.00,-99.00,-67.00,-43.00,+39.00,+21.00,+67.00,+21.00,+4.00,+30.00,+44.00,+15.00,-3.00
+82.00,+35.00,+20.00,+32.00,+96.00,+42.00,+10.00,-125.00,+33.00,+66.00,+37.00,+16.00,-62.00,+59.00,+67.00,+47.00
+64.00,+10.00,+1.00,+9.00,+15.00,-22.00,-36.00,-54.00,+2.00,-31.00,-21.00,-1.00,+50.00,-96.00,-16.00,+8.00
+11.00,-18.00,+1.00,-5.00,-6.00,+70.00,+114.00,-54.00,-20.00,-21.00,-1.00,+19.00,+31.00,+71.00,+65.00,+48.00
+74.00,+21.00,-15.00,-19.00,-53.00,-28.00,-1.00,+50.00,+14.00,+32.00,+5.00,-39.00,-90.00,+13.00,+32.00,+112.00
+92.00,-24.00,-5.00,-1.00,+23.00,+36.00,+57.00,-19.00,+17.00,+17.00,+13.00,-6.00,+43.00,-12.00,-1.00,-64.00
+34.00,-19.00,-12.00,-8.00,+114.00,-47.00,-52.00,-22.00,-22.00,+22.00,+25.00,+33.00,-30.00,-21.00,+27.00,-26.00
+125.00,+26.00,+17.00,+19.00,+127.00,+26.00,+13.00,+47.00,+46.00,-10.00,+1.00,+0.00,+101.00,-17.00,-16.00,+13.00
+70.00,-11.00,-13.00,+4.00,+127.00,+16.00,+27.00,+15.00,+15.00,-8.00,+8.00,-1.00,-14.00,-7.00,-24.00,-32.00
-1.00,-16.00,-9.00,-8.00,+55.00,-27.00,-58.00,-28.00,-24.00,-7.00,-7.00,-16.00,-53.00,+20.00,-9.00,+49.00
+75.00,+33.00,-1.00,-11.00,-22.00,+22.00,+23.00,-24.00,-7.00,+32.00,+7.00,-3.00,+29.00,+13.00,-48.00,-11.00
-37.00,-67.00,+1.00,+7.00,-81.00,-3.00,-26.00,+14.00,-8.00,-44.00,+10.00,+4.00,-15.00,-7.00,+18.00,+9.00
+27.00,+101.00,+11.00,-10.00,-98.00,+7.00,+27.00,+21.00,-20.00,-11.00,-32.00,-11.00,-9.00,+2.00,-28.00,-73.00
-63.00,-11.00,+5.00,+3.00,-115.00,-42.00,-23.00,+2.00,+22.00,-5.00,+2.00,+9.00,+25.00,-21.00,-30.00,+12.00
+62.00,+5.00,-5.00,-12.00,-109.00,+29.00,+34.00,+38.00,-23.00,-5.00,-7.00,-18.00,-61.00,+25.00,+16.00,+6.00
+17.00,+10.00,+12.00,+7.00,-128.00,+19.00,+6.00,+14.00,-40.00,-32.00,-25.00,-8.00,-23.00,-16.00,-16.00,-30.00
-77.00,-73.00,-25.00,-11.00,-108.00,-68.00,-31.00,+7.00,+10.00,+2.00,+23.00,-2.00,+11.00,-6.00,-13.00,-15.00
+67.00,+27.00,+17.00,+22.00,-85.00,+19.00,-11.00,+2.00,-21.00,+44.00,+34.00,+22.00,+20.00,-26.00,-20.00,-15.00
+7.00,+34.00,+23.00,+5.00,-128.00,+52.00,+59.00,+64.00,+12.00,-48.00,-44.00,-6.00,-6.00,+10.00,-5.00,+10.00
-34.00,-1.00,-11.00,-15.00,-90.00,+26.00,-24.00,-78.00,+17.00,-10.00,-12.00,+8.00,-15.00,-2.00,+5.00,+3.00
-58.00,-20.00,-3.00,+6.00,-86.00,-15.00,-64.00,-15.00,+3.00,+3.00,-2.00,-16.00,-12.00,-15.00,-19.00,-30.00
+46.00,-21.00,-15.00,-3.00,-98.00,-36.00,+80.00,+68.00,-23.00,-5.00,+1.00,+15.00,+58.00,+1.00,+1.00,-20.00
+75.00,+51.00,+14.00,-1.00,-125.00,-35.00,+55.00,+44.00,+46.00,+18.00,+9.00,-18.00,-23.00,+31.00,+11.00,+27.00
+60.00,-2.00,+6.00,+14.00,+61.00,+62.00,+26.00,+8.00,-7.00,-14.00,-9.00,-4.00,-8.00,-40.00,-55.00,-17.00
+12.00,-15.00,-5.00,-9.00,-45.00,+12.00,+7.00,-23.00,+4.00,+5.00,+5.00,+12.00,+1.00,-10.00,-9.00,-48.00
-87.00,-10.00,-3.00,+3.00,-56.00,-12.00,-99.00,-95.00,-46.00,-29.00,-11.00,-3.00,-5.00,-18.00,-21.00,+3.00
-53.00,-19.00,-4.00,-12.00,-8.00,+7.00,+10.00,-31.00,+18.00,+24.00,+4.00,-27.00,-59.00,+18.00,+0.00,+26.00
-12.00,-3.00,-30.00,-24.00,-83.00,-51.00,-7.00,-26.00,-47.00,-27.00,-16.00,-2.00,+34.00,+11.00,+67.00,+21.00
+81.00,+32.00,+12.00,+13.00,+90.00,+23.00,+35.00,+2.00,+7.00,+24.00,+33.00,+25.00,+13.00,-11.00,-16.00,+25.00
+96.00,+5.00,+10.00,+9.00,+51.00,+30.00,-28.00,-12.00,-6.00,-8.00,-26.00,-15.00,-16.00,-9.00,-31.00,-14.00
+99.00,+32.00,-5.00,-4.00,+48.00,-52.00,-2.00,+2.00,-14.00,-23.00,+1.00,+24.00,+36.00,-5.00,-6.00,-5.00
+127.00,+62.00,+12.00,-2.00,-23.00,-11.00,-13.00,-11.00,+11.00,+3.00,+3.00,-20.00,-19.00,-3.00,+3.00,+12.00
+123.00,-23.00,+6.00,+16.00,-6.00,+10.00,+13.00,+6.00,+33.00,+6.00,-2.00,-1.00,-15.00,+9.00,-4.00,-26.00
-26.00,-21.00,-11.00,-11.00,-47.00,-3.00,+10.00,+13.00,-47.00,-32.00,-7.00,+10.00,+0.00,+12.00,+18.00,+24.00
-108.00,-33.00,-17.00,-9.00,+0.00,+13.00,-14.00,-29.00,+19.00,+27.00,+16.00,-2.00,+17.00,-5.00,-7.00,-58.00
-128.00,+20.00,+18.00,+7.00,-5.00,-5.00,-28.00,-29.00,+8.00,+21.00,-1.00,-2.00,-4.00,+5.00,-7.00,+29.00
-107.00,-9.00,-7.00,-2.00,-3.00,+4.00,+38.00,+20.00,-16.00,-13.00,-4.00,-1.00,+8.00,-3.00,+4.00,+11.00
-128.00,-8.00,+0.00,-2.00,+16.00,+39.00,+1.00,-14.00,+38.00,-5.00,-2.00,+29.00,+17.00,-12.00,-12.00,-15.00
-128.00,-6.00,+1.00,+0.00,+26.00,-59.00,-38.00,-19.00,-13.00,-39.00,-22.00,-18.00,+20.00,+6.00,-1.00,-7.00
-123.00,+2.00,+2.00,-4.00,-16.00,-4.00,+31.00,-49.00,-7.00,-6.00,+6.00,-25.00,-45.00,-8.00,-5.00,-7.00
-32.00,-1.00,-6.00,+5.00,+46.00,+26.00,+21.00,+16.00,+4.00,+29.00,+14.00,+3.00,+10.00,-5.00,-8.00,-16.00
-77.00,+43.00,+19.00,+1.00,-44.00,+9.00,-18.00,+1.00,-7.00,-24.00,-6.00,-14.00,-4.00,-1.00,+8.00,+23.00
-89.00,-27.00,-2.00,+13.00,+122.00,+41.00,-2.00,-48.00,-3.00,+30.00,+8.00,+25.00,+11.00,+4.00,-3.00,-2.00
+25.00,-14.00,-7.00,-9.00,+11.00,+0.00,-28.00,+22.00,+10.00,-44.00,-5.00,+5.00,+12.00,+0.00,-1.00,+13.00
-40.00,+5.00,+2.00,+7.00,+4.00,-1.00,+25.00,+18.00,-17.00,+3.00,-10.00,+5.00,+27.00,+3.00,+5.00,-16.00
-10.00,+0.00,+1.00,+0.00,+6.00,-33.00,+1.00,+42.00,+35.00,-18.00,+4.00,-28.00,-41.00,-3.00,+1.00,+5.00
-32.00,+13.00,+6.00,-1.00,-12.00,+6.00,-27.00,-6.00,+4.00,+1.00,-22.00,+5.00,+24.00,-3.00,-11.00,+22.00
-45.00,-10.00,-10.00,-3.00,+37.00,-30.00,-2.00,-21.00,-1.00,+3.00,-8.00,+1.00,-16.00,-17.00,-15.00,-34.00
-57.00,-3.00,-5.00,-3.00,+14.00,+17.00,-13.00,-21.00,+21.00,-5.00,+2.00,-6.00,-15.00,-2.00,+10.00,+6.00
-13.00,+6.00,+2.00,-4.00,+4.00,-7.00,+1.00,+1.00,-23.00,+12.00,+7.00,-5.00,-5.00,+6.00,+4.00,+43.00
+7.00,-2.00,-1.00,+1.00,+25.00,-72.00,-15.00,+14.00,-2.00,-7.00,-12.00,-3.00,-1.00,-10.00,-4.00,-17.00
-8.00,-24.00,-8.00,+4.00,+39.00,+70.00,-3.00,-7.00,-3.00,-4.00,-1.00,+3.00,-1.00,-5.00,+0.00,+9.00
+24.00,+10.00,+1.00,-3.00,+10.00,+8.00,+8.00,+8.00,+13.00,-4.00,+0.00,+10.00,+16.00,-2.00,-10.00,-14.00
-3.00,-36.00,-13.00,-7.00,-30.00,-22.00,+2.00,+7.00,+0.00,+23.00,+1.00,-15.00,-21.00,-6.00,+2.00,-11.00
+9.00,+9.00,-2.00,-3.00,+36.00,+17.00,+0.00,-14.00,-12.00,+3.00,+22.00,+6.00,+19.00,+2.00,+5.00,+20.00
-13.00,+8.00,+5.00,+7.00,+32.00,-17.00,+0.00,-16.00,-20.00,-2.00,-2.00,+11.00,-8.00,+0.00,-2.00,-7.00
-47.00,-3.00,-3.00,+0.00,+17.00,+6.00,-10.00,+30.00,+6.00,-31.00,-18.00,-9.00,-4.00,-2.00,-3.00,-2.00
-11.00,+1.00,-2.00,+3.00,+14.00,-6.00,+10.00,+0.00,-14.00,-4.00,-6.00,-1.00,-15.00,-3.00,-6.00,+2.00
-19.00,-31.00,-7.00,-3.00,-16.00,-7.00,-9.00,-16.00,+9.00,-7.00,+9.00,+2.00,+8.00,+4.00,+0.00,-8.00
+41.00,+11.00,+9.00,+1.00,+26.00,+31.00,+6.00,+2.00,+3.00,+20.00,+3.00,+5.00,+6.00,+2.00,-4.00,-5.00
+76.00,+12.00,-12.00,-5.00,-20.00,+9.00,+14.00,+29.00,-34.00,-14.00,-7.00,+3.00,-14.00,+3.00,+0.00,-13.00
+35.00,+24.00,+8.00,-1.00,+48.00,-5.00,-13.00,-24.00,+23.00,+32.00,+2.00,-11.00,+15.00,-8.00,+2.00,+33.00
-25.00,-19.00,-12.00,-9.00,-33.00,+16.00,-19.00,-21.00,-15.00,+5.00,+6.00,-1.00,-10.00,+3.00,-3.00,-11.00
-28.00,+2.00,+12.00,+4.00,-30.00,-31.00,+68.00,+49.00,+11.00,-7.00,-12.00,-4.00,+4.00,+3.00,+6.00,+25.00
-69.00,-19.00,+3.00,+12.00,+72.00,-11.00,-10.00,-12.00,+17.00,-13.00,-3.00,+3.00,+7.00,-5.00,+0.00,+11.00
+65.00,+0.00,-2.00,+4.00,+16.00,+27.00,-14.00,-14.00,+12.00,+2.00,+0.00,+8.00,+11.00,+0.00,-3.00,-15.00
+127.00,+1.00,+3.00,+1.00,-20.00,-5.00,+38.00,+8.00,-8.00,+13.00,+11.00,+5.00,-10.00,-1.00,-2.00,-10.00
+73.00,-11.00,+0.00,-2.00,+8.00,+2.00,-20.00,-18.00,+12.00,+12.00,+10.00,-7.00,-7.00,+2.00,-8.00,+31.00
+62.00,-13.00,+4.00,-2.00,-13.00,-5.00,-5.00,-18.00,-17.00,+27.00,-10.00,-3.00,-1.00,-4.00,+1.00,-23.00
+55.00,-4.00,-10.00,-3.00,+3.00,-3.00,+1.00,+1.00,-4.00,-37.00,-4.00,-5.00,-8.00,-4.00,-9.00,-11.00
+19.00,+7.00,+7.00,+4.00,+11.00,+15.00,-10.00,+10.00,-14.00,-14.00,-18.00,-5.00,-5.00,+1.00,-2.00,+0.00
+19.00,+5.00,-6.00,+2.00,-9.00,-14.00,-22.00,-11.00,+7.00,-15.00,-1.00,+4.00,+9.00,+2.00,+1.00,-10.00
+34.00,+1.00,+8.00,-2.00,-8.00,-12.00,+9.00,-3.00,+3.00,+18.00,+7.00,-3.00,-6.00,+0.00,-1.00,+11.00
-82.00,+8.00,-3.00,+0.00,+21.00,+14.00,-7.00,-10.00,-5.00,+25.00,+7.00,-2.00,+3.00,-1.00,+1.00,-1.00
-35.00,-23.00,-7.00,-4.00,-55.00,-5.00,-4.00,+6.00,-18.00,-27.00,+2.00,+1.00,+0.00,-3.00,+1.00,+1.00
-18.00,+8.00,+1.00,+1.00,+22.00,-8.00,+7.00,-1.00,-14.00,+9.00,-7.00,-2.00,-5.00,-3.00,-4.00,-25.00
+48.00,+10.00,+3.00,+0.00,+6.00,-37.00,-21.00,-11.00,-3.00,+15.00,+8.00,-11.00,-12.00,+0.00,+1.00,+30.00
-13.00,-2.00,-8.00,+0.00,-11.00,+19.00,+5.00,+2.00,+11.00,-2.00,-22.00,+10.00,+5.00,+2.00,+0.00,+9.00
+18.00,-1.00,+10.00,+4.00,+46.00,+30.00,+5.00,+13.00,+16.00,+1.00,+10.00,-9.00,-5.00,+1.00,+4.00,+29.00
-28.00,+14.00,+1.00,-2.00,+1.00,-14.00,-10.00,-7.00,-19.00,-12.00,-6.00,-11.00,-10.00,-5.00,-5.00,-19.00
+0.00,-4.00,+2.00,-5.00,-21.00,+2.00,-2.00,-5.00,+14.00,+14.00,+9.00,+3.00,+4.00,-2.00,-3.00,-7.00
+14.00,+6.00,+3.00,-2.00,-10.00,-30.00,-1.00,+0.00,-12.00,-24.00,+1.00,+12.00,+13.00,-3.00,-3.00,-7.00
-47.00,-20.00,-16.00,-3.00,-5.00,+9.00,+0.00,-16.00,-16.00,+28.00,-1.00,-16.00,-32.00,-3.00,-1.00,-14.00
+33.00,-13.00,-4.00,+5.00,+3.00,-3.00,+0.00,-14.00,+15.00,-10.00,+11.00,+4.00,+24.00,+0.00,+1.00,+9.00
