-5.00,-6.00,-1.00,+1.00,-7.00,+1.00,-1.00,+42.00,+3.00,-5.00,+1.00,-2.00,-2.00,+6.00,-4.00,+40.00
+13.00,+16.00,+0.00,-1.00,+7.00,+9.00,+22.00,+24.00,-4.00,-2.00,+0.00,+5.00,+12.00,+10.00,+11.00,-4.00
-6.00,-11.00,+1.00,-2.00,-2.00,-6.00,-21.00,-3.00,+9.00,+0.00,-5.00,-7.00,-18.00,-1.00,+8.00,+12.00
-4.00,-7.00,-6.00,-3.00,+0.00,-2.00,+5.00,+22.00,+1.00,+3.00,+4.00,+3.00,+3.00,-27.00,-27.00,-18.00
-28.00,-10.00,-6.00,-5.00,-7.00,-7.00,-2.00,-31.00,-2.00,+12.00,+11.00,+8.00,-2.00,-6.00,+1.00,-56.00
+4.00,-1.00,+1.00,+2.00,+11.00,+3.00,+4.00,+8.00,-8.00,+0.00,+0.00,-4.00,+0.00,-8.00,-2.00,-5.00
-5.00,-11.00,-3.00,-3.00,-1.00,+32.00,-16.00,-17.00,-4.00,-20.00,-9.00,-1.00,+2.00,+2.00,+6.00,+22.00
+5.00,+9.00,+2.00,-1.00,-29.00,-56.00,-12.00,+1.00,-3.00,+9.00,-1.00,-3.00,-15.00,+7.00,-7.00,-1.00
-1.00,-12.00,-9.00,-7.00,+5.00,-3.00,+10.00,+0.00,+5.00,-2.00,-5.00,-8.00,+6.00,-12.00,-5.00,+19.00
+2.00,+0.00,+1.00,+3.00,-5.00,+4.00,-9.00,-16.00,-10.00,-11.00,-5.00,+4.00,+5.00,+3.00,-12.00,-30.00
+18.00,+8.00,+1.00,+1.00,+24.00,-8.00,-44.00,+6.00,+0.00,-4.00,-16.00,-8.00,+4.00,+9.00,+3.00,+5.00
+19.00,-6.00,-1.00,-1.00,+6.00,+13.00,-3.00,-2.00,+1.00,-4.00,+4.00,+4.00,-1.00,-14.00,-6.00,+0.00
-59.00,-12.00,-2.00,-1.00,-10.00,-3.00,-14.00,-41.00,-15.00,-13.00,-8.00,-4.00,-13.00,+12.00,+9.00,-38.00
+41.00,+7.00,+3.00,+1.00,-5.00,-7.00,+16.00,+46.00,+7.00,-1.00,+5.00,+10.00,+19.00,+2.00,+5.00,+58.00
-11.00,+10.00,-2.00,-2.00,-5.00,+4.00,-19.00,-1.00,+0.00,+3.00,+6.00,-2.00,-14.00,+7.00,+9.00,+4.00
-19.00,-20.00,-4.00,-3.00,-5.00,-1.00,+11.00,+17.00,-17.00,+2.00,+0.00,+10.00,+16.00,-19.00,-33.00,-46.00
+22.00,+23.00,+6.00,+5.00,+7.00,+7.00,+6.00,-25.00,+6.00,-2.00,-4.00,-11.00,-18.00,-6.00,+19.00,+11.00
-11.00,-4.00,-5.00,-1.00,-2.00,-14.00,-20.00,-18.00,-9.00,-1.00,-7.00,-18.00,-11.00,-4.00,-35.00,-3.00
-7.00,+1.00,+1.00,+3.00,-6.00,-3.00,+11.00,-45.00,+2.00,+10.00,+7.00,+2.00,-2.00,-1.00,+5.00,-8.00
+16.00,-7.00,-2.00,+2.00,+10.00,+7.00,+7.00,+88.00,-26.00,-6.00,-1.00,-3.00,+2.00,+11.00,+13.00,-18.00
+13.00,-4.00,+1.00,-1.00,-1.00,+41.00,+20.00,-1.00,+37.00,+6.00,-1.00,+1.00,+9.00,+4.00,-5.00,+31.00
+45.00,-12.00,+1.00,+3.00,+12.00,-14.00,+3.00,+11.00,-13.00,-1.00,+5.00,+8.00,-2.00,-18.00,+5.00,-37.00
-22.00,+12.00,-6.00,-5.00,-8.00,-13.00,-15.00,-31.00,+6.00,-1.00,-1.00,-7.00,+1.00,+0.00,-3.00,+13.00
+27.00,+23.00,+1.00,-2.00,-3.00,-10.00,+29.00,-12.00,+15.00,+8.00,+3.00,+1.00,+5.00,+17.00,+17.00,+27.00
-8.00,-27.00,-3.00,+3.00,+6.00,+4.00,-20.00,+19.00,-4.00,-8.00,-4.00,-1.00,+0.00,-2.00,-1.00,+13.00
-15.00,-19.00,-1.00,-1.00,-3.00,+10.00,+7.00,+2.00,-20.00,-1.00,-4.00,-2.00,-20.00,-24.00,-5.00,-64.00
+22.00,-9.00,-6.00,-7.00,-11.00,-15.00,+29.00,+9.00,+26.00,+7.00,+5.00,+6.00,+4.00,-15.00,-12.00,+8.00
-10.00,+13.00,+7.00,+4.00,+9.00,+17.00,-64.00,-27.00,-1.00,-4.00,-9.00,-5.00,+22.00,+7.00,+6.00,-17.00
+6.00,+7.00,-1.00,-4.00,-5.00,-9.00,-9.00,-13.00,-4.00,+3.00,+6.00,+4.00,+4.00,+15.00,+11.00,+17.00
-56.00,+27.00,+0.00,-2.00,-11.00,+14.00,+3.00,-11.00,-8.00,-11.00,-15.00,-8.00,+1.00,+12.00,+0.00,+19.00
+63.00,-2.00,-4.00,+1.00,+10.00,+5.00,-23.00,+11.00,-18.00,-5.00,+1.00,-1.00,-14.00,-3.00,+1.00,-4.00
-25.00,-8.00,-1.00,-4.00,-34.00,-24.00,+24.00,+14.00,+18.00,-20.00,-4.00,-2.00,-5.00,+1.00,+6.00,+26.00
+28.00,-3.00,-4.00,+1.00,+37.00,-1.00,+6.00,+22.00,+4.00,-6.00,-9.00,-2.00,+0.00,-6.00,-10.00,-1.00
-21.00,-21.00,-8.00,-5.00,+15.00,-5.00,+7.00,-54.00,-1.00,+34.00,+4.00,-1.00,-14.00,-7.00,-14.00,-64.00
-2.00,+6.00,+7.00,+4.00,-2.00,-17.00,-23.00,-14.00,+8.00,-7.00,+0.00,+18.00,+41.00,+2.00,-5.00,-6.00
+39.00,+10.00,+5.00,+3.00,+5.00,+11.00,-30.00,-48.00,+6.00,-10.00,-4.00,-6.00,-29.00,-2.00,+5.00,+43.00
-58.00,-13.00,-1.00,-1.00,-18.00,-9.00,+29.00,-15.00,-5.00,+24.00,+9.00,-15.00,-27.00,+17.00,-15.00,-19.00
+24.00,+9.00,+2.00,-1.00,-6.00,+13.00,+14.00,+89.00,-7.00,-12.00,+0.00,+0.00,+5.00,-4.00,-2.00,-30.00
-6.00,+0.00,+2.00,+2.00,-1.00,+8.00,+24.00,-53.00,+17.00,+15.00,+2.00,-7.00,-11.00,-8.00,-7.00,+14.00
+0.00,-11.00,+0.00,+0.00,+4.00,-12.00,-24.00,-16.00,-8.00,-19.00,-5.00,+6.00,+13.00,+54.00,+32.00,+0.00
-12.00,+11.00,+2.00,+2.00,-11.00,-5.00,-8.00,-40.00,+13.00,+3.00,-7.00,-7.00,-3.00,+2.00,-10.00,+25.00
+54.00,+8.00,+1.00,+0.00,+10.00,+42.00,-6.00,-15.00,+21.00,+21.00,+10.00,+3.00,-3.00,-35.00,-13.00,+41.00
-11.00,-12.00,-1.00,+2.00,-5.00,-21.00,+13.00,+53.00,-13.00,-13.00,+0.00,+8.00,+18.00,-40.00,+34.00,-11.00
-6.00,-20.00,-11.00,-6.00,-6.00,+8.00,+30.00,-4.00,-8.00,+1.00,+9.00,+4.00,-4.00,-24.00,-23.00,-49.00
+13.00,+47.00,+9.00,+3.00,-5.00,-24.00,-31.00,+3.00,-11.00,+0.00,+0.00,-3.00,-3.00,+13.00,+27.00,+32.00
-35.00,-43.00,-8.00,-3.00,-1.00,-11.00,+12.00,-12.00,+4.00,-4.00,-4.00,-5.00,-1.00,+25.00,+0.00,+20.00
+80.00,+58.00,+8.00,+2.00,+2.00,+30.00,-15.00,+17.00,-19.00,-2.00,-4.00,-8.00,-22.00,+104.00,+11.00,-19.00
-2.00,+9.00,+5.00,+4.00,+5.00,-38.00,-27.00,-11.00,-1.00,+6.00,+1.00,-1.00,-27.00,-108.00,-27.00,+29.00
-25.00,-27.00,-12.00,-7.00,-9.00,-4.00,+51.00,+25.00,-26.00,-10.00,+1.00,+10.00,+57.00,-3.00,-16.00,-110.00
+35.00,-43.00,-4.00,+2.00,+7.00,+58.00,-7.00,+1.00,+23.00,-18.00,+5.00,+4.00,+10.00,+2.00,+22.00,+66.00
-41.00,+15.00,+8.00,-2.00,-64.00,-58.00,+6.00,+1.00,-17.00,-11.00,-3.00,+0.00,+4.00,+3.00,-20.00,-8.00
-21.00,+8.00,-7.00,+2.00,+69.00,+4.00,-6.00,+4.00,+6.00,-16.00,-13.00,-11.00,-16.00,+46.00,+4.00,+12.00
-17.00,-2.00,+4.00,+1.00,+1.00,-4.00,-40.00,-9.00,+2.00,+32.00,+10.00,+3.00,-13.00,-15.00,+3.00,-29.00
+8.00,+7.00,-2.00,+1.00,+12.00,+1.00,+71.00,+6.00,-8.00,+14.00,+11.00,+5.00,+9.00,-9.00,-15.00,+8.00
-33.00,-42.00,-6.00,-2.00,+10.00,+24.00,+13.00,-38.00,-18.00,+31.00,+14.00,+4.00,-8.00,+4.00,-5.00,-21.00
-15.00,+14.00,-1.00,-3.00,-26.00,+3.00,+14.00,+25.00,-7.00,-47.00,-40.00,-15.00,+10.00,+10.00,+12.00,+2.00
+19.00,-4.00,-6.00,-5.00,-15.00,-20.00,-59.00,-44.00,-1.00,-4.00,+0.00,+0.00,-5.00,-25.00,-14.00,-24.00
-21.00,-4.00,-3.00,-2.00,-3.00,-6.00,-15.00,+26.00,-17.00,-31.00,-4.00,-3.00,-5.00,+84.00,+12.00,-3.00
+73.00,+17.00,+4.00,+4.00,+10.00,+51.00,+56.00,+87.00,+17.00,+4.00,-10.00,-5.00,+19.00,+63.00,+7.00,+31.00
-17.00,+5.00,+4.00,+8.00,+3.00,+70.00,+56.00,-20.00,+31.00,+10.00,+16.00,+7.00,-16.00,-105.00,-7.00,+46.00
+19.00,-3.00,-2.00,-3.00,+2.00,+7.00,-66.00,-11.00,+4.00,+16.00,+12.00,+1.00,-1.00,-3.00,-15.00,+14.00
-19.00,-7.00,-5.00,-5.00,-21.00,-82.00,-65.00,-38.00,+25.00,+1.00,-11.00,-1.00,-14.00,+3.00,+5.00,+42.00
-51.00,+5.00,-1.00,-5.00,-6.00,-58.00,-106.00,-49.00,-54.00,-47.00,-17.00,-1.00,-13.00,-5.00,-4.00,-64.00
+18.00,-11.00,+11.00,+9.00,+7.00,-20.00,+70.00,+63.00,+16.00,+1.00,+7.00,+3.00,+26.00,+42.00,-4.00,-10.00
+82.00,-4.00,+0.00,+6.00,+9.00,+60.00,+21.00,+26.00,-22.00,-31.00,-26.00,-12.00,-3.00,+10.00,+21.00,+21.00
-56.00,+51.00,+6.00,-1.00,-2.00,+27.00,-2.00,+16.00,-1.00,+14.00,+6.00,-6.00,-15.00,+8.00,+15.00,+60.00
-42.00,-41.00,-6.00,+1.00,+8.00,-9.00,-10.00,-5.00,+77.00,+19.00,+2.00,+0.00,-1.00,-49.00,-11.00,+42.00
-51.00,-33.00,-8.00,-11.00,-9.00,+20.00,-54.00,-45.00,-48.00,+25.00,+10.00,+9.00,+9.00,+6.00,+18.00,-20.00
-7.00,+27.00,+0.00,+1.00,-2.00,+11.00,+8.00,-15.00,-6.00,-11.00,-1.00,+12.00,-12.00,+40.00,+8.00,+14.00
-22.00,+34.00,+2.00,+1.00,+0.00,-26.00,+1.00,-7.00,-6.00,-7.00,-7.00,-21.00,-13.00,-21.00,-26.00,-62.00
+4.00,-21.00,-1.00,-3.00,+8.00,-30.00,+2.00,+2.00,-35.00,+24.00,+6.00,-7.00,-23.00,-84.00,+7.00,-10.00
-37.00,+10.00,-3.00,-11.00,-21.00,-13.00,-16.00,+0.00,+19.00,+12.00,-2.00,-5.00,-1.00,+17.00,-25.00,-19.00
-29.00,-63.00,-6.00,-2.00,+6.00,-2.00,+39.00,+35.00,-5.00,-9.00,-3.00,+8.00,+17.00,-8.00,+8.00,-23.00
+10.00,+50.00,+5.00,-2.00,-8.00,-45.00,-103.00,-33.00,+7.00,-48.00,-5.00,+11.00,+28.00,+13.00,+27.00,+37.00
+27.00,-24.00,-16.00,-11.00,-15.00,-44.00,-21.00,-26.00,+4.00,-18.00,-13.00,-11.00,+1.00,+0.00,-11.00,-21.00
+11.00,+9.00,+10.00,+11.00,+22.00,+73.00,+100.00,+62.00,-10.00,-59.00,-10.00,+3.00,+4.00,+27.00,-16.00,-33.00
+21.00,+7.00,-1.00,+5.00,+7.00,+72.00,+16.00,+16.00,-23.00,+97.00,+29.00,+6.00,-10.00,-3.00,+16.00,+49.00
+1.00,-12.00,+6.00,+1.00,+3.00,+15.00,+6.00,-35.00,+22.00,+11.00,+1.00,-4.00,-11.00,-2.00,-37.00,-40.00
-23.00,+22.00,+11.00,+7.00,+5.00,-19.00,-8.00,+29.00,-6.00,-16.00,-3.00,-11.00,-20.00,-36.00,+4.00,-7.00
-27.00,-54.00,-17.00,-9.00,-9.00,-35.00,-46.00,-35.00,-31.00,-17.00,+6.00,+9.00,+15.00,+12.00,+10.00,+20.00
-33.00,+36.00,+5.00,-5.00,-6.00,-40.00,-3.00,-22.00,+42.00,-33.00,-23.00,-9.00,-16.00,-14.00,+18.00,+35.00
-6.00,-7.00,-8.00,-4.00,-1.00,+38.00,+8.00,+5.00,-36.00,-37.00,-21.00,+11.00,+19.00,+4.00,+7.00,-63.00
-49.00,-46.00,-2.00,+2.00,-3.00,-49.00,+4.00,+1.00,+67.00,+55.00,+14.00,-5.00,+14.00,+20.00,-45.00,+58.00
+62.00,+47.00,+17.00,+8.00,-29.00,-24.00,-4.00,+0.00,+13.00,+23.00,+10.00,+3.00,-8.00,+14.00,-32.00,-25.00
-19.00,+28.00,-4.00,-11.00,+11.00,+11.00,+3.00,+28.00,+14.00,-16.00,+2.00,-6.00,-16.00,-24.00,+9.00,+23.00
-72.00,-27.00,-6.00,+4.00,+12.00,-35.00,+19.00,-24.00,+1.00,+88.00,+23.00,+13.00,-7.00,-16.00,+1.00,+3.00
+67.00,+17.00,-4.00,+2.00,+13.00,+79.00,+78.00,+89.00,-20.00,-39.00,-11.00,-4.00,+15.00,+10.00,+6.00,-8.00
-19.00,-62.00,-15.00,-5.00,+6.00,+5.00,-31.00,-17.00,-17.00,-25.00,-24.00,-11.00,-7.00,+38.00,-8.00,-6.00
-30.00,+12.00,-18.00,-10.00,-33.00,-22.00,-14.00,-32.00,+4.00,-9.00,-2.00,-5.00,-10.00,-34.00,-47.00,+43.00
+27.00,+12.00,+28.00,+10.00,-2.00,-23.00,-29.00,-4.00,-19.00,-26.00,-19.00,-15.00,-14.00,+31.00,-20.00,-42.00
-5.00,-5.00,-12.00,-11.00,+1.00,-19.00,-3.00,-4.00,-17.00,+19.00,+7.00,+8.00,+12.00,-17.00,+10.00,-6.00
+18.00,+10.00,+12.00,+3.00,-23.00,-2.00,-19.00,-47.00,+39.00,+36.00,+33.00,+12.00,+0.00,-23.00,+31.00,-43.00
-34.00,+48.00,+17.00,+14.00,+17.00,+48.00,-58.00,+71.00,-16.00,-3.00,-1.00,-3.00,+8.00,-11.00,-17.00,-43.00
-4.00,-12.00,-10.00,+4.00,+22.00,+8.00,+37.00,-3.00,-99.00,-51.00,-7.00,+0.00,+20.00,+15.00,+9.00,-36.00
-29.00,+2.00,-3.00,+0.00,+0.00,-50.00,+0.00,-66.00,+19.00,-62.00,-32.00,-2.00,-7.00,+47.00,-8.00,+27.00
+18.00,-30.00,-29.00,-15.00,+14.00,+80.00,+30.00,+14.00,+11.00,+94.00,+38.00,+7.00,-12.00,-40.00,+13.00,-4.00
-36.00,-44.00,+0.00,-4.00,-56.00,-128.00,+79.00,-16.00,-24.00,+1.00,-33.00,-4.00,+16.00,+4.00,+11.00,-68.00
+13.00,-18.00,-6.00,-6.00,+13.00,+124.00,-7.00,-69.00,+99.00,+41.00,+20.00,+2.00,-14.00,-1.00,+42.00,+37.00
+63.00,+24.00,+16.00,+11.00,-3.00,-84.00,-18.00,+93.00,-12.00,-8.00,+19.00,+14.00,-16.00,-14.00,+1.00,+21.00
+50.00,+21.00,-10.00,-1.00,+22.00,+79.00,+6.00,+89.00,-101.00,-78.00,-30.00,-10.00,+33.00,+15.00,+19.00,-71.00
+50.00,+29.00,+4.00,+5.00,+10.00,-35.00,+41.00,-1.00,+49.00,-15.00,+3.00,-3.00,+1.00,+68.00,-9.00,+79.00
+9.00,-54.00,-5.00,-3.00,-15.00,+52.00,-10.00,-10.00,-3.00,+29.00,+0.00,-14.00,-21.00,-18.00,-28.00,-58.00
+30.00,+49.00,+0.00,-6.00,-21.00,-79.00,-22.00,-69.00,-8.00,+0.00,-3.00,+7.00,+4.00,-35.00,+20.00,-54.00
-32.00,+3.00,+17.00,+4.00,+12.00,-17.00,-10.00,-12.00,+42.00,-18.00,-5.00,+8.00,-6.00,+15.00,-16.00,+6.00
+26.00,+7.00,+2.00,+1.00,+3.00,+35.00,-39.00,+37.00,-16.00,+14.00,-1.00,-23.00,+3.00,+22.00,+29.00,-37.00
-26.00,+8.00,-10.00,-13.00,-24.00,-60.00,-47.00,-104.00,-17.00,+2.00,+4.00,-4.00,-2.00,-35.00,+85.00,+94.00
-56.00,-26.00,-8.00,+0.00,+15.00,+126.00,-2.00,+47.00,-25.00,-8.00,-3.00,-25.00,-31.00,+0.00,-74.00,-16.00
+51.00,-48.00,+3.00,+8.00,-1.00,-33.00,-5.00,-49.00,+14.00,+60.00,+24.00,+0.00,+14.00,-8.00,+46.00,+73.00
-13.00,+21.00,+7.00,+2.00,+12.00,-17.00,+62.00,+30.00,+12.00,-39.00,-11.00,+3.00,-21.00,-50.00,-66.00,-109.00
-68.00,+13.00,-2.00,-2.00,-8.00,+6.00,+22.00,-7.00,+13.00,-29.00,-12.00,+7.00,+15.00,+5.00,+15.00,+80.00
+19.00,+75.00,+23.00,+5.00,+12.00,+31.00,-83.00,+1.00,+3.00,+25.00,+6.00,+4.00,+3.00,-17.00,+32.00,+0.00
-32.00,+46.00,-2.00,-4.00,-7.00,-27.00,+43.00,-7.00,-3.00,-27.00,-5.00,-8.00,-13.00,+3.00,-46.00,+26.00
-27.00,-119.00,-7.00,+0.00,-1.00,-54.00,-10.00,+43.00,-7.00,+0.00,-1.00,+6.00,+11.00,+13.00,+23.00,-46.00
-48.00,-23.00,+0.00,+1.00,+7.00,-54.00,-34.00,+8.00,-37.00,-27.00,-12.00,+0.00,+3.00,-3.00,-49.00,-25.00
-36.00,-62.00,-12.00,-8.00,-2.00,+16.00,+11.00,+33.00,+14.00,+39.00,-8.00,+14.00,+12.00,+4.00,+45.00,+46.00
-52.00,+121.00,+10.00,-5.00,-18.00,-27.00,+27.00,-40.00,+10.00,-25.00,-24.00,-17.00,-18.00,+15.00,+21.00,+89.00
+10.00,-39.00,-16.00,-10.00,-5.00,-45.00,-19.00,-86.00,+46.00,+76.00,+53.00,+16.00,-4.00,-29.00,-66.00,-53.00
+72.00,+2.00,-4.00,-5.00,-7.00,-42.00,+1.00,+127.00,-5.00,-74.00,-44.00,-21.00,-5.00,-16.00,-15.00,-25.00
-5.00,-28.00,-7.00,+2.00,-13.00,+48.00,-13.00,+0.00,-50.00,-52.00,-24.00,-6.00,+8.00,+28.00,-7.00,-33.00
+15.00,-53.00,-20.00,-11.00,-25.00,-72.00,-42.00,-19.00,+23.00,-3.00,-24.00,-12.00,-9.00,+1.00,+50.00,+34.00
-71.00,-55.00,-8.00,+4.00,+46.00,+46.00,+17.00,-91.00,-59.00,-36.00,-3.00,-2.00,-15.00,-29.00,-17.00,-66.00
+101.00,+106.00,+30.00,+14.00,+25.00,+77.00,-9.00,-2.00,+7.00,+30.00,+4.00,+15.00,+18.00,+5.00,+11.00,+28.00
+4.00,+11.00,-19.00,-15.00,+1.00,-52.00,+8.00,-103.00,+26.00,-41.00,+20.00,+1.00,+10.00,-1.00,+15.00,+37.00
+6.00,-14.00,+2.00,+8.00,+4.00,+28.00,-13.00,+109.00,-82.00,+110.00,+33.00,+5.00,-2.00,-19.00,-73.00,-110.00
-44.00,-11.00,-1.00,+2.00,-18.00,-28.00,+1.00,-15.00,+58.00,-93.00,-22.00,+18.00,+5.00,+34.00,+42.00,+110.00
+21.00,+4.00,-2.00,-6.00,-16.00,-29.00,+52.00,-69.00,+30.00,+62.00,+13.00,+5.00,+44.00,+6.00,-48.00,-13.00
+12.00,+24.00,+14.00,+14.00,+17.00,+115.00,+51.00,+46.00,+44.00,+24.00,+13.00,-13.00,-36.00,-33.00,-6.00,-98.00
-94.00,-23.00,-14.00,-10.00,-13.00,-41.00,-30.00,-77.00,-4.00,-15.00,-19.00,-1.00,+10.00,+21.00,-51.00,-5.00
+115.00,+61.00,+13.00,-2.00,+1.00,+94.00,-25.00,+2.00,-55.00,-15.00,+4.00,-14.00,-12.00,-70.00,-38.00,-36.00
-41.00,-76.00,-10.00,+5.00,-14.00,-88.00,-33.00,+1.00,-1.00,-63.00,-27.00,-15.00,-30.00,+15.00,+37.00,+101.00
+11.00,+18.00,+15.00,+6.00,+8.00,+19.00,+49.00,-12.00,+24.00,+30.00,+3.00,+49.00,-11.00,+63.00,+57.00,+46.00
+26.00,+16.00,+14.00,+3.00,-1.00,-50.00,-18.00,-4.00,+25.00,-19.00,+5.00,-41.00,+44.00,-47.00,-51.00,-34.00
+13.00,-48.00,-17.00,+2.00,+0.00,-1.00,+4.00,+10.00,+15.00,+49.00,-3.00,-5.00,-22.00,+34.00,+60.00,+39.00
-22.00,+45.00,+8.00,-25.00,-8.00,+0.00,+24.00,+17.00,+6.00,-92.00,+9.00,+13.00,+26.00,+16.00,+23.00,-25.00
-30.00,-6.00,-11.00,-11.00,-2.00,+9.00,-3.00,-29.00,-38.00,+104.00,+28.00,-2.00,+1.00,-8.00,-74.00,-103.00
+2.00,-56.00,-14.00,+4.00,+2.00,-45.00,-43.00,+45.00,-5.00,-65.00,-25.00,+4.00,-32.00,+3.00,+15.00,+25.00
+6.00,+34.00,+10.00,+2.00,-1.00,+5.00,-16.00,-52.00,-21.00,-1.00,-4.00,+5.00,+15.00,+19.00,+7.00,-57.00
+50.00,-24.00,+3.00,+9.00,+0.00,-90.00,+14.00,+71.00,-23.00,+35.00,+6.00,-9.00,-23.00,-27.00,+6.00,+44.00
+53.00,+23.00,-11.00,-2.00,-3.00,-11.00,+19.00,-3.00,+54.00,-15.00,+10.00,+10.00,+16.00,+16.00,-14.00,-22.00
+16.00,-32.00,-5.00,+2.00,+18.00,+84.00,-10.00,-81.00,+7.00,+70.00,+68.00,+20.00,+8.00,+27.00,+63.00,+70.00
-7.00,+76.00,+33.00,+11.00,-3.00,-17.00,+14.00,+68.00,-2.00,-76.00,-35.00,-19.00,-5.00,-28.00,-38.00,+5.00
-18.00,-24.00,-15.00,+11.00,-32.00,-31.00,-55.00,-94.00,+17.00,-13.00,-27.00,+0.00,-13.00,+9.00,+57.00,-77.00
-14.00,-29.00,+3.00,-6.00,+34.00,+74.00,+79.00,+57.00,-24.00,-37.00,-10.00,-17.00,+9.00,-13.00,-59.00,+32.00
-44.00,-4.00,-24.00,-22.00,-47.00,-13.00,-26.00,+5.00,+35.00,+6.00,-11.00,+0.00,-2.00,+12.00,+6.00,+16.00
-34.00,-1.00,-2.00,-5.00,+13.00,-3.00,+2.00,+27.00,-9.00,+48.00,+60.00,+20.00,-2.00,+7.00,+72.00,+84.00
+56.00,-61.00,-22.00,-14.00,-37.00,-46.00,-13.00,-14.00,-47.00,-12.00,-7.00,-6.00,+0.00,-5.00,-31.00,-107.00
-74.00,-12.00,+9.00,+8.00,-2.00,+75.00,-75.00,+45.00,-67.00,-18.00,-17.00,-6.00,+13.00,-8.00,-5.00,+23.00
-10.00,+7.00,+6.00,+9.00,+47.00,+32.00,+86.00,-68.00,+47.00,+27.00,+1.00,-6.00,-19.00,-4.00,-2.00,-69.00
-49.00,-21.00,-2.00,-10.00,-12.00,-44.00,-43.00,-35.00,-11.00,+45.00,+20.00,+9.00,+19.00,+36.00,-61.00,-42.00
-8.00,+11.00,+6.00,+11.00,+23.00,+118.00,+65.00,+127.00,+5.00,+29.00,+5.00,-1.00,-42.00,-21.00,+56.00,+103.00
+42.00,-9.00,-11.00,+4.00,-16.00,-44.00,-8.00,-128.00,-25.00,-25.00,-25.00,-30.00,+0.00,-18.00,+19.00,-64.00
+37.00,+27.00,+17.00,-2.00,-6.00,-47.00,-35.00,+8.00,+20.00,+75.00,+50.00,+12.00,-11.00,-86.00,-14.00,-86.00
-25.00,-24.00,-11.00,-2.00,-5.00,+91.00,-19.00,-22.00,-44.00,-87.00,-84.00,-31.00,-53.00,-8.00,+24.00,+83.00
-2.00,-32.00,-12.00,+0.00,+8.00,+12.00,-40.00,-71.00,+35.00,+6.00,+34.00,+8.00,-19.00,-13.00,+9.00,-105.00
-24.00,-5.00,-10.00,-8.00,-16.00,+5.00,-29.00,-92.00,-43.00,-57.00,-30.00,-17.00,+30.00,+15.00,-13.00,-24.00
+13.00,-38.00,+3.00,+4.00,-1.00,-74.00,+9.00,+95.00,-37.00,-68.00,-42.00,+12.00,+9.00,+30.00,+49.00,+125.00
-21.00,+45.00,+20.00,+9.00,+19.00,+19.00,+28.00,-43.00,-18.00,+72.00,+21.00,-17.00,-37.00,-5.00,-88.00,-82.00
-46.00,-13.00,-27.00,+11.00,+1.00,+11.00,+1.00,-15.00,+46.00,+116.00,+94.00,+24.00,+48.00,+27.00,-117.00,-128.00
+9.00,-2.00,+24.00,-16.00,-5.00,-6.00,+17.00,+110.00,+17.00,-36.00,-32.00,-15.00,-44.00,-58.00,+7.00,+29.00
-25.00,-25.00,-34.00,-10.00,-5.00,-7.00,-13.00,-67.00,+11.00,+2.00,+17.00,+9.00,+11.00,-14.00,-36.00,-49.00
+3.00,-39.00,-29.00,-12.00,-13.00,+20.00,-27.00,-1.00,-42.00,+29.00,-14.00,+2.00,-7.00,-35.00,+34.00,+21.00
-12.00,+36.00,-7.00,-18.00,+4.00,-14.00,-8.00,-100.00,+8.00,-64.00,-14.00,+0.00,+9.00,+32.00,+24.00,+14.00
-37.00,-17.00,-9.00,+2.00,-3.00,-15.00,-12.00,-120.00,+42.00,+16.00,+43.00,+17.00,+34.00,+47.00,+24.00,+83.00
-46.00,-7.00,-1.00,+4.00,+19.00,+9.00,+12.00,+112.00,-5.00,-24.00,-22.00,-15.00,-17.00,+51.00,-66.00,-100.00
-11.00,+16.00,+3.00,+11.00,-26.00,+18.00,-10.00,+89.00,-29.00,-67.00,-40.00,+0.00,+22.00,+15.00,+44.00,+12.00
-18.00,+27.00,+25.00,+7.00,+23.00,+19.00,-1.00,-6.00,+5.00,+112.00,+65.00,+22.00,+5.00,+0.00,-30.00,-39.00
-4.00,-21.00,-26.00,-8.00,-29.00,-78.00,-8.00,+29.00,-29.00,+29.00,+32.00,-13.00,-32.00,-56.00,+8.00,+70.00
+30.00,+50.00,+26.00,+15.00,+44.00,+98.00,+60.00,-32.00,+23.00,-86.00,-63.00,+1.00,+2.00,+106.00,+95.00,+52.00
+29.00,-38.00,-3.00,-2.00,+2.00,-8.00,-9.00,-58.00,+17.00,-69.00,-9.00,+7.00,+12.00,-72.00,-17.00,+41.00
+55.00,+45.00,+25.00,+13.00,+49.00,+36.00,+84.00,+117.00,+12.00,-45.00,-17.00,+19.00,+42.00,-4.00,-2.00,+111.00
-73.00,-74.00,-16.00,-15.00,-16.00,-66.00,-35.00,-32.00,-27.00,-26.00,-14.00,-33.00,-53.00,+14.00,-27.00,-36.00
-13.00,+86.00,+0.00,-11.00,-12.00,-88.00,-80.00,+20.00,+10.00,+49.00,-11.00,+20.00,+16.00,+37.00,+4.00,+47.00
+100.00,+11.00,+13.00,+10.00,+89.00,+61.00,-1.00,+54.00,+8.00,+35.00,+19.00,-57.00,-29.00,+6.00,+20.00,-112.00
+43.00,+26.00,-27.00,+2.00,-5.00,-23.00,+20.00,+70.00,-25.00,+38.00,-22.00,-23.00,-16.00,-65.00,-54.00,+35.00
+12.00,+22.00,+43.00,+17.00,+26.00,+33.00,+15.00,-40.00,+61.00,-3.00,-5.00,+3.00,-22.00,-36.00,-22.00,+9.00
-20.00,-56.00,-28.00,+5.00,-43.00,+21.00,-23.00,-46.00,-72.00,+34.00,+27.00,-2.00,-9.00,-4.00,+14.00,-89.00
-29.00,-9.00,-42.00,-49.00,-65.00,-57.00,-6.00,-31.00,+75.00,-28.00,-6.00,+34.00,+43.00,+22.00,-49.00,+48.00
-20.00,-51.00,+14.00,-14.00,-18.00,+0.00,-77.00,-128.00,-39.00,+8.00,-36.00,-19.00,-4.00,+5.00,-23.00,-81.00
+72.00,+14.00,+2.00,+28.00,+0.00,+28.00,+58.00,+127.00,-7.00,+74.00,+41.00,+0.00,+1.00,+19.00,+41.00,+110.00
+8.00,-38.00,-6.00,-25.00,-26.00,-52.00,-57.00,-49.00,+34.00,+7.00,+16.00,+7.00,+24.00,-19.00,-17.00,-100.00
+94.00,+49.00,+27.00,+10.00,+54.00,-25.00,+4.00,-123.00,+13.00,+31.00,-1.00,+5.00,-51.00,-93.00,-80.00,-35.00
-52.00,-23.00,-33.00,-9.00,+57.00,-1.00,+27.00,+41.00,-54.00,-115.00,-109.00,-33.00,+63.00,-22.00,+58.00,+121.00
-38.00,+6.00,-13.00,-5.00,+58.00,+27.00,-60.00,-77.00,+19.00,+35.00,-7.00,+11.00,+37.00,+77.00,+117.00,+8.00
-9.00,+14.00,+35.00,+11.00,+31.00,-65.00,-71.00,-47.00,+3.00,-14.00,+6.00,-5.00,+13.00,+2.00,+60.00,+3.00
+38.00,-11.00,+19.00,+20.00,-13.00,+48.00,+80.00,+63.00,-19.00,+79.00,+46.00,-8.00,+18.00,+97.00,+37.00,-11.00
-35.00,+9.00,+18.00,-1.00,-15.00,+56.00,+19.00,-43.00,+36.00,+24.00,+50.00,+18.00,-20.00,+71.00,+41.00,-46.00
-17.00,-39.00,-24.00,-11.00,+40.00,-4.00,-12.00,-108.00,+32.00,+74.00,+64.00,+15.00,-11.00,-64.00,+19.00,+8.00
+87.00,+6.00,-23.00,-30.00,-64.00,-8.00,-23.00,+59.00,-54.00,-109.00,-104.00,-35.00,-15.00,-16.00,+24.00,+15.00
+83.00,-59.00,-15.00,+16.00,+86.00,-35.00,-39.00,-41.00,+10.00,-19.00,+10.00,+20.00,+23.00,+21.00,-55.00,-62.00
+127.00,+61.00,+23.00,+17.00,-54.00,-8.00,+7.00,+127.00,-40.00,-48.00,-19.00,+0.00,+8.00,+18.00,+61.00,+68.00
+24.00,+31.00,+33.00,+19.00,-65.00,+39.00,+12.00,-29.00,+23.00,+31.00,-15.00,+24.00,+11.00,-3.00,-128.00,-124.00
-80.00,+15.00,-17.00,+4.00,-64.00,-7.00,-25.00,+3.00,+60.00,+127.00,+98.00,-1.00,-44.00,+36.00,+32.00,+20.00
-42.00,+40.00,+13.00,+2.00,-67.00,-31.00,+40.00,+35.00,-33.00,-17.00,+18.00,+4.00,+8.00,-87.00,-65.00,-84.00
-68.00,-26.00,-18.00,-22.00,-34.00,+59.00,+9.00,+38.00,-26.00,-84.00,-79.00,-25.00,+0.00,+23.00,-47.00,-14.00
-66.00,-37.00,-57.00,-48.00,-59.00,-72.00,-79.00,-56.00,-27.00,-33.00,-5.00,+20.00,+26.00,+60.00,+49.00,+23.00
+17.00,-89.00,+2.00,+34.00,+10.00,+41.00,+75.00,+41.00,+21.00,+85.00,+82.00,+14.00,-25.00,-32.00,-105.00,-18.00
-55.00,+45.00,+3.00,+9.00,-28.00,-4.00,+34.00,-89.00,-38.00,-77.00,-95.00,-7.00,+10.00,+60.00,+6.00,+35.00
-56.00,+94.00,+65.00,+3.00,+4.00,-19.00,-5.00,+84.00,+49.00,+127.00,+108.00,+21.00,-22.00,-51.00,-115.00,+21.00
+27.00,+13.00,+8.00,-10.00,-28.00,-11.00,+16.00,+127.00,-25.00,-90.00,-73.00,-46.00,+6.00,-13.00,-12.00,+70.00
+29.00,+10.00,-3.00,-2.00,+16.00,+69.00,+40.00,+20.00,-34.00,-68.00,-49.00,-4.00,-4.00,-26.00,-22.00,+7.00
-68.00,-12.00,-10.00,-10.00,-30.00,-32.00,-55.00,-50.00,-9.00,-7.00,+24.00,+10.00,+12.00,+6.00,+74.00,+105.00
-18.00,-52.00,-11.00,+13.00,-16.00,-59.00,-7.00,+16.00,-6.00,-10.00,-33.00,-4.00,-30.00,-41.00,-59.00,-99.00
+60.00,-46.00,-39.00,+21.00,+49.00,+31.00,+38.00,-87.00,+40.00,+83.00,+42.00,+14.00,-8.00,+49.00,+60.00,+40.00
+6.00,+93.00,+73.00,-2.00,+27.00,+40.00,+26.00,+84.00,-24.00,-39.00,-18.00,-2.00,+39.00,-34.00,+95.00,+92.00
+42.00,-6.00,-10.00,-10.00,-8.00,-11.00,-2.00,+108.00,+42.00,+41.00,+22.00,+12.00,+2.00,+21.00,-25.00,-56.00
-62.00,-10.00,-15.00,-28.00,-46.00,-18.00,-93.00,-128.00,+3.00,-17.00,-2.00,-8.00,-42.00,-14.00,+28.00,+58.00
+45.00,-29.00,-11.00,-2.00,-1.00,+5.00,+43.00,+127.00,-11.00,-8.00,+4.00,+5.00,+32.00,+16.00,-52.00,-27.00
+27.00,-27.00,+17.00,+43.00,+58.00,-7.00,-54.00,+28.00,-2.00,-39.00,-13.00,+19.00,-37.00,-58.00,-50.00,-35.00
-20.00,+41.00,+3.00,-6.00,-5.00,-3.00,+64.00,-23.00,+2.00,+11.00,+10.00,-12.00,-30.00,+41.00,+127.00,-13.00
+17.00,-23.00,+6.00,-13.00,+4.00,-18.00,+6.00,-13.00,+14.00,+114.00,+23.00,-47.00,+1.00,-46.00,-26.00,+36.00
-90.00,-18.00,+5.00,+15.00,+82.00,-5.00,-30.00,-119.00,+49.00,-101.00,-4.00,-7.00,-20.00,+11.00,+59.00,+53.00
-34.00,-37.00,-41.00,-34.00,+22.00,-5.00,-14.00,-128.00,-34.00,-109.00,-108.00,-39.00,-15.00,-32.00,-28.00,+70.00
-78.00,+15.00,+18.00,-5.00,-5.00,-7.00,-24.00,+26.00,-13.00,+41.00,+38.00,+25.00,+21.00,-14.00,-10.00,-8.00
-14.00,-79.00,-60.00,+1.00,-19.00,-8.00,-44.00,-45.00,-11.00,+4.00,+15.00,-2.00,+3.00,+39.00,-31.00,-2.00
+32.00,+103.00,+17.00,-28.00,-36.00,+6.00,+44.00,+61.00,-21.00,+19.00,+15.00,-6.00,-18.00,-2.00,+17.00,-61.00
-27.00,+10.00,+1.00,+12.00,-19.00,-22.00,+21.00,+1.00,+30.00,+53.00,+49.00,+10.00,-4.00,-36.00,-79.00,-18.00
+11.00,-35.00,+26.00,+6.00,-10.00,-10.00,-88.00,-125.00,-9.00,-2.00,-27.00,-16.00,+23.00,-48.00,-53.00,+5.00
+38.00,+18.00,-15.00,-6.00,+2.00,+21.00,+17.00,+46.00,-9.00,-74.00,+8.00,+37.00,-9.00,-1.00,+31.00,-23.00
+49.00,-25.00,-8.00,+12.00,-15.00,+2.00,-4.00,+7.00,+14.00,+35.00,+8.00,+1.00,+13.00,-22.00,-63.00,-52.00
-57.00,-2.00,-16.00,-17.00,-21.00,+13.00,+31.00,-48.00,-25.00,+22.00,+30.00,+11.00,+3.00,+83.00,+57.00,-30.00
+33.00,-24.00,-9.00,+7.00,-17.00,+39.00,+29.00,+44.00,+7.00,+37.00,+35.00,-13.00,-2.00,-12.00,-45.00,-65.00
-69.00,-6.00,+11.00,-1.00,+34.00,-29.00,-18.00,-111.00,-12.00,-63.00,-65.00,-35.00,-30.00,-83.00,-84.00,-59.00
+4.00,+21.00,+32.00,-4.00,-27.00,-64.00,-41.00,+35.00,-27.00,+25.00,+19.00,+28.00,-6.00,+8.00,-39.00,+6.00
+33.00,+4.00,-29.00,-13.00,+3.00,+66.00,+18.00,-61.00,-42.00,-55.00,-69.00,-47.00,-15.00,-17.00,-40.00,+54.00
-37.00,-34.00,-18.00,-13.00,+11.00,+22.00,-56.00,+6.00,+27.00,+28.00,+25.00,+22.00,-52.00,+32.00,+24.00,-52.00
+2.00,-33.00,-4.00,+8.00,+34.00,+26.00,+8.00,-39.00,+14.00,+32.00,+26.00,+11.00,+65.00,+13.00,+127.00,+98.00
+75.00,+96.00,+59.00,+33.00,+42.00,+39.00,+100.00,+102.00,-13.00,-21.00,-37.00,-55.00,-101.00,-128.00,-104.00,-94.00
+45.00,+27.00,+6.00,-14.00,-9.00,+0.00,+16.00,-113.00,+9.00,+87.00,+53.00,-2.00,+33.00,+4.00,-49.00,-67.00
-35.00,-51.00,-25.00,-7.00,-18.00,-1.00,+2.00,-38.00,-12.00,-107.00,-56.00,-7.00,-1.00,+68.00,+0.00,+58.00
+10.00,+0.00,-14.00,+6.00,-3.00,-26.00,-5.00,-16.00,+17.00,+73.00,+51.00,+42.00,+18.00,+5.00,-29.00,-33.00
-87.00,-11.00,-11.00,-11.00,-15.00,+14.00,-29.00,-75.00,-21.00,-57.00,-62.00,-12.00,+7.00,-6.00,+39.00,+14.00
+33.00,-43.00,-9.00,+1.00,+14.00,+13.00,+48.00,+127.00,-1.00,+58.00,+21.00,-4.00,+1.00,+53.00,-55.00,-25.00
+86.00,+48.00,+63.00,+13.00,+4.00,+6.00,+35.00,+69.00,+29.00,+87.00,+19.00,-1.00,+0.00,-57.00,+100.00,+103.00
+13.00,-15.00,-29.00,-4.00,+3.00,+3.00,+20.00,+3.00,-33.00,-98.00,-86.00,-20.00,+8.00,+68.00,+30.00,+36.00
-18.00,-3.00,-26.00,-11.00,-12.00,-28.00,-31.00,-39.00,+22.00,+49.00,+45.00,+18.00,+27.00,+34.00,+53.00,+22.00
-97.00,-32.00,-15.00,-13.00,-6.00,-54.00,-99.00,-111.00,+8.00,+51.00,+31.00,+30.00,+2.00,+52.00,+28.00,-66.00
+74.00,-4.00,-23.00,-7.00,+5.00,-28.00,+10.00,+104.00,+5.00,+107.00,+59.00,+18.00,+41.00,+57.00,+18.00,+34.00
-1.00,+17.00,+30.00,+1.00,-6.00,-1.00,+31.00,-39.00,-23.00,-101.00,-85.00,-47.00,-18.00,-59.00,-63.00,+76.00
+5.00,-74.00,-27.00,-8.00,-55.00,+10.00,+22.00,+18.00,+12.00,+84.00,+58.00,+23.00,+40.00,+69.00,+70.00,-24.00
+7.00,+14.00,+11.00,+1.00,+20.00,-64.00,-64.00,-28.00,+2.00,-80.00,-29.00,-21.00,+5.00,+17.00,+0.00,+1.00
+5.00,+6.00,+3.00,+13.00,+13.00,+30.00,+19.00,+59.00,-5.00,+10.00,-3.00,+12.00,-86.00,+116.00,+101.00,+55.00
-61.00,-45.00,-6.00,-6.00,-5.00,+6.00,+34.00,-105.00,+9.00,+42.00,+51.00,+25.00,+53.00,-77.00,-56.00,-45.00
+56.00,+37.00,+29.00,+23.00,+50.00,+41.00,+20.00,+116.00,-9.00,-55.00,-10.00,+1.00,+40.00,+54.00,+55.00,-80.00
+20.00,-20.00,-7.00,+11.00,+5.00,+56.00,+79.00,-25.00,+10.00,+61.00,+55.00,+40.00,+30.00,-5.00,-24.00,+52.00
-108.00,+22.00,-8.00,-36.00,-47.00,-71.00,-98.00,-128.00,-22.00,-44.00,-12.00,-30.00,+4.00,+26.00,-44.00,+20.00
+114.00,+16.00,+32.00,+29.00,+11.00,-11.00,-16.00,+73.00,-4.00,-75.00,-55.00,-15.00,-68.00,+39.00,+61.00,+23.00
-82.00,+0.00,-45.00,-11.00,+17.00,+14.00,+10.00,+18.00,-4.00,+75.00,-2.00,-23.00,-77.00,+7.00,-11.00,+18.00
-20.00,-2.00,+13.00,-8.00,-30.00,-61.00,-72.00,+91.00,+5.00,-42.00,-1.00,+9.00,+56.00,-70.00,-53.00,-69.00
-62.00,-22.00,-45.00,-1.00,+16.00,+65.00,+83.00,-20.00,-10.00,-70.00,-34.00,-26.00,-8.00,-50.00,-84.00,-20.00
-12.00,+99.00,+44.00,-13.00,-7.00,+2.00,-50.00,+2.00,+27.00,+68.00,-4.00,-1.00,-24.00,-39.00,+30.00,-63.00
+26.00,+15.00,+12.00,-4.00,-4.00,+6.00,+37.00,+54.00,-9.00,+47.00,+45.00,+36.00,+38.00,-9.00,-10.00,+89.00
+18.00,-46.00,-1.00,+0.00,-9.00,-20.00,-67.00,-33.00,-28.00,-100.00,-100.00,-16.00,-20.00,+17.00,+67.00,+57.00
+33.00,-21.00,-92.00,-18.00,+9.00,+8.00,+29.00,-26.00,+15.00,+28.00,+20.00,+12.00,+25.00,-29.00,-125.00,-92.00
-13.00,+70.00,+68.00,+11.00,+3.00,-10.00,-40.00,-44.00,+2.00,+69.00,+44.00,-10.00,-9.00,+108.00,+2.00,+36.00
+51.00,-1.00,+28.00,+23.00,+2.00,-3.00,-39.00,+25.00,-22.00,-77.00,+12.00,+0.00,-37.00,-76.00,-78.00,-43.00
+81.00,+77.00,+25.00,+19.00,+15.00,+27.00,+98.00,+11.00,-10.00,+68.00,+37.00,+0.00,+13.00,+63.00,+80.00,+127.00
-25.00,-16.00,+7.00,+12.00,-5.00,-120.00,-128.00,+50.00,-16.00,-118.00,-52.00,-31.00,-39.00,-78.00,-82.00,+109.00
+73.00,-40.00,-29.00,+17.00,+35.00,+98.00,+118.00,-96.00,-14.00,-27.00,-38.00,-15.00,-5.00,+2.00,-42.00,-92.00
+12.00,+32.00,+4.00,-10.00,-9.00,+28.00,+19.00,+1.00,+2.00,+65.00,+1.00,+6.00,+7.00,+62.00,+50.00,+70.00
-26.00,-31.00,+0.00,+7.00,+9.00,+23.00,+2.00,-62.00,+59.00,+29.00,+12.00,+10.00,-38.00,-88.00,-16.00,-53.00
-7.00,-39.00,-6.00,-13.00,-18.00,-20.00,-41.00,-78.00,-39.00,+35.00,+52.00,+40.00,+21.00,-83.00,-42.00,-61.00
-41.00,+14.00,-7.00,-8.00,+16.00,-57.00,-49.00,-31.00,+12.00,-9.00,-12.00,+10.00,+43.00,+35.00,+7.00,+44.00
-55.00,-82.00,-46.00,-25.00,-20.00,-56.00,-84.00,-82.00,-12.00,-36.00,-58.00,+26.00,+1.00,-35.00,-6.00,+33.00
-39.00,+90.00,+57.00,+31.00,+13.00,+14.00,+76.00,+63.00,+27.00,+88.00,+37.00,+15.00,+25.00,+11.00,-97.00,-128.00
+7.00,+33.00,+38.00,+5.00,+8.00,+10.00,+17.00,+12.00,-10.00,+18.00,-29.00,-33.00,-29.00,+33.00,-10.00,+19.00
-13.00,-15.00,-33.00,-14.00,-18.00,-2.00,+7.00,+30.00,-9.00,+46.00,+49.00,+17.00,-9.00,+36.00,-29.00,-89.00
+12.00,-16.00,+9.00,+5.00,-13.00,+8.00,+12.00,-128.00,-16.00,-77.00,-16.00,+4.00,+20.00,-37.00,+30.00,+76.00
+8.00,+45.00,+29.00,+2.00,-1.00,+7.00,-28.00,+5.00,-19.00,+10.00,-11.00,-19.00,-28.00,+24.00,-55.00,-3.00
-3.00,-54.00,-20.00,+12.00,+16.00,-4.00,-5.00,+38.00,+25.00,+69.00,+66.00,+32.00,+32.00,+49.00,-7.00,-42.00
+3.00,-3.00,+7.00,+3.00,-23.00,-82.00,-58.00,+50.00,+34.00,-36.00,+2.00,+3.00,-4.00,-58.00,-107.00,-28.00
+6.00,+40.00,-11.00,-11.00,+14.00,+14.00,+21.00,-100.00,-49.00,-9.00,+8.00,-23.00,+2.00,-21.00,-34.00,+51.00
-75.00,-128.00,-83.00,-46.00,-45.00,-26.00,-30.00,-111.00,-8.00,+35.00,+9.00,+23.00,+9.00,+48.00,+114.00,+109.00
+3.00,+111.00,+85.00,+19.00,+19.00,+3.00,+14.00,+18.00,-24.00,+13.00,-16.00,-27.00,+34.00,+42.00,-40.00,-49.00
+35.00,+11.00,+34.00,+22.00,+14.00,+36.00,+62.00,+72.00,+44.00,-68.00,-30.00,+20.00,-21.00,-22.00,+92.00,+17.00
-81.00,-63.00,-43.00,-22.00,-24.00,-46.00,-66.00,-89.00,-20.00,+45.00,+7.00,+8.00,+0.00,-14.00,-88.00,+23.00
+69.00,+26.00,+47.00,+29.00,+23.00,+25.00,+110.00,+117.00,+49.00,+16.00,+65.00,+13.00,+12.00,+53.00,+81.00,+45.00
+20.00,-9.00,-18.00,-13.00,-10.00,+76.00,+37.00,-68.00,+1.00,-25.00,-15.00,+7.00,+11.00,-1.00,+117.00,+109.00
-48.00,-52.00,-36.00,-25.00,-6.00,-23.00,-28.00,-58.00,+2.00,-29.00,-43.00,-3.00,+28.00,+75.00,+21.00,+40.00
-18.00,-4.00,+18.00,+10.00,+12.00,-32.00,-32.00,+46.00,+5.00,+18.00,+30.00,-26.00,-44.00,+5.00,+21.00,-121.00
+57.00,-57.00,-30.00,+20.00,+9.00,+24.00,+22.00,+38.00,+4.00,-82.00,-15.00,+0.00,+11.00,-74.00,-29.00,-76.00
-30.00,+22.00,-25.00,-43.00,-23.00,-47.00,-55.00,-73.00,+3.00,-32.00,-17.00,+15.00,+31.00,+2.00,+42.00,+115.00
-17.00,-33.00,-3.00,-6.00,-23.00,-55.00,-60.00,-26.00,+56.00,+104.00,+98.00,+30.00,-2.00,+62.00,+1.00,-83.00
-21.00,-27.00,-17.00,-16.00,+17.00,+52.00,+38.00,-53.00,-40.00,-61.00,-1.00,-35.00,-67.00,-24.00,-67.00,-60.00
-24.00,-17.00,+33.00,+9.00,+8.00,-7.00,-84.00,-99.00,+0.00,-75.00,-72.00,-29.00,+52.00,+14.00,+29.00,+78.00
+32.00,-7.00,-68.00,-24.00,-8.00,-27.00,+56.00,+70.00,+31.00,+76.00,+45.00,+13.00,+5.00,+77.00,+91.00,-4.00
+75.00,+54.00,+13.00,+10.00,+12.00,+52.00,+40.00,-32.00,-15.00,+72.00,+28.00,+6.00,-49.00,-117.00,+64.00,+37.00
-18.00,+21.00,+28.00,+0.00,-23.00,+7.00,-25.00,-71.00,+37.00,+59.00,-17.00,+5.00,+28.00,-9.00,-105.00,-14.00
-26.00,-2.00,-35.00,-13.00,+7.00,+8.00,+12.00,+8.00,+27.00,+71.00,+45.00,+3.00,+2.00,+13.00,+20.00,-73.00
+2.00,-12.00,+25.00,+13.00,+3.00,-39.00,-77.00,-82.00,-49.00,-128.00,-79.00,-16.00,+27.00,+45.00,-14.00,-28.00
-30.00,+34.00,+19.00,-11.00,+0.00,+37.00,+35.00,-49.00,-14.00,+92.00,+31.00,-1.00,+1.00,+30.00,-22.00,-18.00
-62.00,-68.00,-19.00,+7.00,+1.00,-19.00,-22.00,-115.00,+30.00,-7.00,-39.00,-28.00,-30.00,-20.00,+50.00,+15.00
-5.00,-1.00,-21.00,-21.00,+2.00,-13.00,-1.00,+17.00,-51.00,-104.00,-17.00,-10.00,-45.00,-21.00,-48.00,+0.00
-3.00,-16.00,-1.00,+5.00,+6.00,+54.00,+73.00,-21.00,+8.00,+28.00,-38.00,-35.00,-14.00,-75.00,-8.00,+50.00
-93.00,-58.00,-29.00,-8.00,-25.00,-54.00,-39.00,+68.00,-3.00,+33.00,+60.00,-2.00,-47.00,+22.00,-31.00,-57.00
+41.00,+54.00,+34.00,+19.00,+28.00,-40.00,-75.00,-17.00,-30.00,+74.00,+51.00,+28.00,+29.00,+43.00,-36.00,-90.00
-63.00,-4.00,+5.00,+12.00,+2.00,+54.00,+58.00,+63.00,-3.00,-78.00,-110.00,-39.00,+28.00,-69.00,-36.00,-3.00
-95.00,-18.00,-7.00,-8.00,-51.00,-6.00,-59.00,-84.00,-3.00,+23.00,-14.00,+12.00,-11.00,+18.00,+7.00,+87.00
+86.00,-1.00,+4.00,+33.00,+69.00,+35.00,+47.00,+105.00,-3.00,+4.00,+25.00,-3.00,+7.00,-87.00,+42.00,+127.00
-5.00,-17.00,-25.00,-33.00,-18.00,-36.00,+1.00,-50.00,-9.00,+9.00,-3.00,+23.00,+30.00,+38.00,-7.00,-39.00
-21.00,+42.00,+18.00,-16.00,-50.00,-43.00,-60.00,-111.00,-54.00,-11.00,+0.00,-8.00,-64.00,+68.00,-114.00,-106.00
+76.00,+10.00,+26.00,+16.00,+46.00,-26.00,-20.00,+78.00,+31.00,+66.00,+73.00,+16.00,+23.00,-102.00,-63.00,-87.00
-70.00,-16.00,+11.00,+19.00,+11.00,+90.00,+37.00,-102.00,-36.00,-111.00,-71.00,-13.00,+1.00,+9.00,-66.00,-30.00
+78.00,-24.00,-6.00,+16.00,+2.00,+5.00,+58.00,+127.00,+11.00,-32.00,-45.00,-32.00,-14.00,-11.00,-28.00,-43.00
+42.00,-5.00,-16.00,-18.00,+4.00,+25.00,+44.00,+72.00,-31.00,-10.00,+3.00,-7.00,-17.00,-2.00,-18.00,+115.00
-31.00,-11.00,+57.00,+8.00,-26.00,-79.00,-50.00,-33.00,-4.00,+55.00,+57.00,-11.00,-59.00,+100.00,+109.00,+42.00
+60.00,+35.00,-37.00,-19.00,+2.00,-18.00,-1.00,+8.00,-18.00,+5.00,-36.00,-6.00,+78.00,-68.00,-90.00,-88.00
+9.00,-13.00,-10.00,+18.00,+29.00,+14.00,+20.00,+65.00,+45.00,-40.00,+21.00,+8.00,-10.00,-33.00,-9.00,-26.00
+23.00,+43.00,-3.00,-19.00,-30.00,-28.00,-7.00,+58.00,+0.00,+57.00,-21.00,+14.00,-2.00,-39.00,+59.00,+112.00
-41.00,-98.00,-4.00,-1.00,-6.00,+34.00,+83.00,+41.00,-14.00,+31.00,+29.00,-13.00,-4.00,+0.00,-9.00,+32.00
+19.00,+40.00,-4.00,-24.00,-3.00,-47.00,-40.00,+6.00,-2.00,-38.00,+15.00,-9.00,-121.00,+56.00,+57.00,-43.00
-23.00,-37.00,+9.00,+8.00,-15.00,-25.00,-32.00,+43.00,-19.00,+2.00,+15.00,+1.00,+112.00,-25.00,-40.00,-5.00
+4.00,+40.00,+23.00,+17.00,+23.00,+42.00,+60.00,-44.00,+46.00,+41.00,+90.00,+17.00,+13.00,+58.00,+14.00,+60.00
-68.00,+52.00,-12.00,-22.00,-21.00,-50.00,-87.00,-113.00,+34.00,+66.00,+33.00,+27.00,+35.00,-74.00,+41.00,+60.00
+24.00,-68.00,-32.00,+11.00,-2.00,+4.00,-11.00,-44.00,-12.00,+2.00,-18.00,-13.00,-42.00,+48.00,-37.00,-66.00
+22.00,+77.00,+64.00,+8.00,-20.00,-9.00,-38.00,-22.00,+4.00,-16.00,-58.00,+0.00,+28.00,+10.00,+49.00,+45.00
+27.00,-58.00,-13.00,-14.00,+4.00,-57.00,-52.00,+37.00,+12.00,-69.00,-43.00,+2.00,+7.00,+31.00,+47.00,-40.00
+41.00,-20.00,-28.00,+3.00,+31.00,+39.00,+12.00,+5.00,+46.00,-78.00,-34.00,+11.00,-3.00,+1.00,+10.00,+9.00
-44.00,+12.00,-3.00,-22.00,-55.00,-28.00,-25.00,+65.00,-11.00,+66.00,+45.00,+2.00,+44.00,+38.00,+118.00,+127.00
-23.00,+16.00,+18.00,-2.00,+22.00,+15.00,+14.00,+39.00,-7.00,-45.00,-9.00,+4.00,-20.00,+31.00,+19.00,+97.00
+5.00,-4.00,-19.00,+2.00,+39.00,-26.00,-67.00,+26.00,-5.00,+65.00,+49.00,+0.00,+16.00,-3.00,+25.00,+116.00
-23.00,-44.00,-41.00,-14.00,+21.00,-21.00,-16.00,-37.00,-36.00,-63.00,-83.00,-21.00,-45.00,+22.00,+78.00,+18.00
+18.00,+11.00,+28.00,+17.00,-3.00,+16.00,-30.00,+127.00,+35.00,+26.00,+6.00,+22.00,+10.00,-34.00,+25.00,-126.00
+22.00,+24.00,+6.00,+4.00,-24.00,+44.00,+91.00,+38.00,+19.00,-12.00,+0.00,-30.00,+12.00,-14.00,+1.00,-84.00
+4.00,+19.00,+34.00,+2.00,-20.00,+29.00,+17.00,-34.00,-27.00,+66.00,+10.00,-13.00,-61.00,-50.00,-81.00,+29.00
-45.00,-71.00,-39.00,-9.00,-53.00,-35.00,-21.00,+22.00,-56.00,-8.00,-1.00,-45.00,-24.00,-18.00,-128.00,-128.00
-17.00,-13.00,+11.00,-14.00,+4.00,-30.00,-24.00,-52.00,+23.00,+62.00,+11.00,+5.00,-19.00,-47.00,+16.00,+111.00
+39.00,-16.00,+31.00,+22.00,+4.00,+9.00,-18.00,-60.00,-8.00,+5.00,-33.00,-38.00,-71.00,+22.00,-68.00,-24.00
-6.00,+5.00,-26.00,-9.00,-8.00,-8.00,+0.00,+61.00,-51.00,-93.00,-96.00,+3.00,+52.00,-99.00,-7.00,-101.00
+25.00,-15.00,-34.00,-11.00,-8.00,+62.00,+76.00,-33.00,+55.00,+127.00,+93.00,+57.00,+46.00,+79.00,-32.00,-8.00
-70.00,-14.00,+13.00,-12.00,-13.00,-37.00,-65.00,-35.00,+30.00,+86.00,+86.00,+34.00,+43.00,+82.00,+1.00,+125.00
+44.00,+82.00,+11.00,+19.00,+22.00,+16.00,+40.00,+66.00,-52.00,-51.00,-58.00,-50.00,-71.00,+47.00,+45.00,+116.00
-56.00,+98.00,+59.00,+24.00,+26.00,+32.00,+34.00,-79.00,+24.00,+45.00,+58.00,-5.00,+23.00,-101.00,-64.00,-128.00
-40.00,-1.00,+39.00,+8.00,+0.00,+4.00,+23.00,-38.00,+70.00,+43.00,+70.00,+23.00,-18.00,-31.00,-14.00,+17.00
+5.00,-34.00,-44.00,-8.00,-2.00,+13.00,+42.00,+39.00,-102.00,-96.00,-91.00,-41.00,+30.00,+25.00,-32.00,-95.00
-24.00,-57.00,-22.00,-9.00,-15.00,-27.00,-60.00,-70.00,+36.00,+90.00,+62.00,+31.00,+54.00,-6.00,-9.00,+31.00
-1.00,-57.00,-15.00,+0.00,-25.00,-2.00,+1.00,-22.00,-8.00,+42.00,+3.00,-7.00,-80.00,-16.00,-6.00,+33.00
-36.00,+26.00,-3.00,-3.00,-40.00,-75.00,-85.00,-23.00,-10.00,+31.00,-11.00,+14.00,+32.00,-15.00,+16.00,-87.00
+116.00,+39.00,+32.00,+38.00,+73.00,+112.00,+127.00,+56.00,+20.00,+14.00,+21.00,+5.00,-4.00,-50.00,-68.00,+36.00
-93.00,-35.00,-12.00,-14.00,+1.00,+14.00,+23.00,-47.00,-39.00,-40.00,-24.00,+1.00,-14.00,+97.00,+97.00,-60.00
+0.00,-17.00,-10.00,-3.00,-7.00,-20.00,-11.00,-42.00,+32.00,-11.00,-30.00,-8.00,-42.00,-85.00,-84.00,-64.00
-30.00,-30.00,-8.00,-8.00,+11.00,-58.00,-91.00,-11.00,-13.00,-10.00,-13.00,-17.00,-10.00,-71.00,-115.00,-72.00
+58.00,+7.00,-30.00,+11.00,+5.00,-17.00,+49.00,+5.00,-24.00,-77.00,-50.00,-21.00,-37.00,-21.00,+9.00,+11.00
+45.00,-17.00,-65.00,-35.00,-2.00,-64.00,-90.00,-1.00,+30.00,+46.00,+61.00,+53.00,+85.00,+71.00,-51.00,-30.00
-33.00,+48.00,+51.00,+5.00,+1.00,+17.00,-27.00,-84.00,+7.00,-55.00,-43.00,-56.00,-34.00,-42.00,-11.00,-45.00
+81.00,+17.00,-2.00,+23.00,+23.00,+81.00,+89.00,+86.00,-22.00,-40.00,-47.00,-7.00,-80.00,-72.00,-52.00,-21.00
-73.00,-111.00,-85.00,+0.00,-23.00,-32.00,-40.00,-70.00,+20.00,+65.00,+17.00,-16.00,-12.00,+38.00,-40.00,-84.00
+25.00,+74.00,+54.00,-26.00,-17.00,-54.00,-57.00,-93.00,-33.00,-28.00,+8.00,+16.00,-6.00,+62.00,+52.00,-19.00
+17.00,-89.00,-43.00,+2.00,-8.00,+27.00,+37.00,+51.00,+1.00,+32.00,+11.00,+20.00,+36.00,+127.00,+82.00,+63.00
+73.00,-46.00,-46.00,+3.00,+15.00,+36.00,+37.00,-54.00,+42.00,+52.00,+67.00,+25.00,+29.00,-3.00,+21.00,+114.00
+2.00,+72.00,+71.00,+0.00,-14.00,-22.00,-12.00,-103.00,-75.00,-113.00,-122.00,-67.00,+14.00,-3.00,-52.00,-55.00
-16.00,-30.00,-20.00,+2.00,-17.00,-3.00,+11.00,+105.00,+113.00,+127.00,+127.00,+82.00,+19.00,-8.00,+75.00,+96.00
+1.00,-10.00,+3.00,+5.00,+4.00,-11.00,-48.00,-75.00,-53.00,-100.00,-51.00,-11.00,+16.00,+19.00,-43.00,-101.00
+36.00,+15.00,+46.00,+37.00,+33.00,+25.00,+4.00,+127.00,-34.00,+49.00,-13.00,-9.00,+0.00,+36.00,+27.00,+93.00
+60.00,-55.00,-44.00,-34.00,-20.00,-26.00,+24.00,+118.00,+45.00,+56.00,+6.00,+23.00,+13.00,+45.00,-26.00,+17.00
-68.00,-18.00,-5.00,-3.00,-3.00,-46.00,-51.00,-37.00,-30.00,-7.00,-16.00,-8.00,-18.00,-77.00,-60.00,+17.00
-23.00,+13.00,+5.00,+0.00,+26.00,+50.00,+36.00,+73.00,+30.00,+32.00,+39.00,+28.00,+24.00,+31.00,+90.00,+96.00
-6.00,+7.00,-6.00,-8.00,-9.00,+11.00,+12.00,-6.00,+49.00,+4.00,+25.00,+18.00,-2.00,+71.00,+109.00,+24.00
-65.00,-7.00,+12.00,-31.00,-86.00,-78.00,-115.00,-98.00,+6.00,+20.00,+48.00,+24.00,+91.00,+23.00,+28.00,+41.00
+16.00,-53.00,-30.00,-1.00,+31.00,-44.00,-39.00,+112.00,-25.00,-94.00,-70.00,-50.00,-87.00,-63.00,-61.00,+17.00
+92.00,+66.00,+11.00,+24.00,+48.00,+7.00,+59.00,-125.00,+6.00,+52.00,+3.00,+14.00,+14.00,+64.00,-46.00,-59.00
+25.00,+28.00,+34.00,+13.00,+3.00,+21.00,-18.00,-54.00,-50.00,-81.00,-44.00,-34.00,-4.00,-91.00,-85.00,-61.00
-4.00,-66.00,-18.00,-8.00,-7.00,+1.00,-36.00,-93.00,+6.00,+70.00,+53.00,+6.00,-54.00,-42.00,+19.00,+44.00
+6.00,-28.00,+32.00,+8.00,-21.00,+3.00,+18.00,+47.00,+2.00,+85.00,+10.00,+2.00,+15.00,-41.00,-27.00,-61.00
-5.00,+7.00,-2.00,-14.00,-23.00,-83.00,-124.00,-89.00,-24.00,-62.00,-51.00,-13.00,-12.00,+19.00,-27.00,-20.00
-26.00,-61.00,-79.00,-33.00,-8.00,-10.00,+29.00,+88.00,-21.00,-38.00,-74.00,-41.00,-24.00,+50.00,-46.00,-118.00
-86.00,+121.00,+116.00,-6.00,-11.00,-38.00,-99.00,-86.00,-1.00,-28.00,+43.00,+14.00,-7.00,-27.00,+0.00,+18.00
+53.00,-122.00,-34.00,+28.00,+33.00,+92.00,+96.00,+68.00,+46.00,+33.00,-4.00,+14.00,-5.00,+13.00,-36.00,-75.00
+44.00,+100.00,+24.00,-14.00,-2.00,+18.00,+67.00,+127.00,-30.00,+127.00,+116.00,+26.00,-25.00,-19.00,+43.00,+107.00
-60.00,-8.00,+10.00,+1.00,-13.00,-15.00,-29.00,-69.00,+34.00,-88.00,-57.00,+3.00,+53.00,+32.00,+47.00,-80.00
-63.00,-31.00,-28.00,+15.00,+13.00,+44.00,+85.00,+87.00,-17.00,+9.00,+1.00,-11.00,+20.00,+6.00,+20.00,+127.00
-128.00,+1.00,-6.00,-3.00,+13.00,+43.00,+26.00,-27.00,-21.00,-16.00,-24.00,-5.00,-29.00,-48.00,-71.00,-89.00
-128.00,-44.00,-13.00,+16.00,+97.00,-25.00,-41.00,+34.00,+0.00,-8.00,+12.00,+3.00,+10.00,-40.00,-82.00,-30.00
-109.00,+31.00,+44.00,+27.00,+92.00,+23.00,+19.00,+87.00,+15.00,+24.00,+49.00,+34.00,+20.00,+39.00,+127.00,+96.00
-113.00,-44.00,-35.00,+5.00,+11.00,+64.00,+88.00,+23.00,+3.00,-3.00,+10.00,+20.00,-27.00,-98.00,-97.00,-73.00
-60.00,+36.00,-1.00,-8.00,-103.00,-64.00,-108.00,-40.00,-30.00,-52.00,-23.00,-4.00,+63.00,+75.00,+57.00,+88.00
+68.00,-44.00,-23.00,-16.00,-128.00,-14.00,+53.00,+16.00,+35.00,+1.00,+13.00,-37.00,-46.00,+29.00,+73.00,+73.00
+65.00,+33.00,-7.00,-24.00,-100.00,+21.00,+31.00,+4.00,-2.00,+107.00,+48.00,+10.00,+9.00,-28.00,-100.00,-18.00
+126.00,+0.00,+17.00,+2.00,-56.00,+16.00,+20.00,-41.00,+31.00,-99.00,-45.00,-31.00,-35.00,+122.00,+9.00,-67.00
+21.00,-62.00,-92.00,-30.00,-71.00,-9.00,-7.00,+69.00,-50.00,-21.00,-84.00,-48.00,-84.00,-102.00,-118.00,-12.00
+56.00,-72.00,-30.00,-19.00,-52.00,-38.00,-40.00,-58.00,+1.00,-32.00,+27.00,+17.00,+49.00,-113.00,+3.00,+40.00
+55.00,+93.00,+94.00,+10.00,-3.00,-53.00,-35.00,+75.00,+0.00,+37.00,+20.00,-3.00,+21.00,+96.00,+80.00,+94.00
+84.00,-40.00,+34.00,+5.00,-20.00,+11.00,+20.00,-15.00,-1.00,-65.00,+20.00,+10.00,+10.00,-25.00,-25.00,-46.00
+51.00,+82.00,+57.00,+26.00,+11.00,+23.00,+69.00,-93.00,+48.00,+47.00,+36.00,-2.00,+26.00,+64.00,+66.00,+47.00
+3.00,-128.00,-128.00,-23.00,-39.00,-101.00,-128.00,-112.00,-5.00,-72.00,+34.00,+6.00,-40.00,-32.00,-44.00,-29.00
+127.00,+81.00,+56.00,-2.00,+14.00,+50.00,+116.00,+127.00,-36.00,-81.00,-72.00,-12.00,-3.00,-39.00,-19.00,+23.00
+5.00,+42.00,+23.00,+1.00,+3.00,-19.00,-25.00,+28.00,+14.00,+124.00,+45.00,+26.00,+44.00,+27.00,+70.00,+127.00
-51.00,-32.00,-17.00,-16.00,+12.00,-16.00,-30.00,+27.00,-2.00,+71.00,+49.00,+13.00,+3.00,+55.00,+127.00,+0.00
+69.00,+46.00,+29.00,+37.00,+35.00,+18.00,+1.00,-23.00,+2.00,+15.00,-17.00,-64.00,-88.00,-45.00,+39.00,-14.00
-1.00,+21.00,+31.00,+45.00,+5.00,+15.00,+40.00,-49.00,+8.00,-7.00,+45.00,+48.00,+71.00,-34.00,-1.00,+41.00
-46.00,-13.00,-30.00,-6.00,-7.00,+26.00,+36.00,-63.00,-30.00,-10.00,-26.00,-21.00,-41.00,+42.00,+11.00,-42.00
+49.00,+12.00,+6.00,-3.00,+52.00,+25.00,-38.00,-112.00,+1.00,-10.00,+16.00,+0.00,-36.00,-49.00,-82.00,-50.00
-23.00,+12.00,+16.00,-4.00,+38.00,+36.00,+52.00,+40.00,+13.00,+20.00,+3.00,-1.00,+27.00,+47.00,+26.00,-16.00
+40.00,-49.00,-29.00,-1.00,+15.00,+9.00,-24.00,-3.00,-23.00,-35.00,-32.00,-23.00,-28.00,+14.00,-3.00,-17.00
+0.00,-21.00,+2.00,+6.00,+51.00,-81.00,-93.00,-26.00,-5.00,+30.00,-2.00,+11.00,+51.00,+20.00,+79.00,+103.00
-43.00,+83.00,-54.00,-41.00,+88.00,-25.00,-72.00,-128.00,+40.00,-22.00,+55.00,+9.00,+11.00,+16.00,+20.00,-31.00
-41.00,+25.00,+77.00,+13.00,+97.00,+83.00,+85.00,+118.00,-10.00,+12.00,+2.00,+28.00,+21.00,+24.00,-49.00,+61.00
-32.00,-105.00,-101.00,-15.00,-20.00,-55.00,-64.00,-72.00,+11.00,-33.00,-69.00,-28.00,-40.00,-38.00,+85.00,+40.00
+21.00,+72.00,+59.00,-1.00,-83.00,+38.00,+64.00,+123.00,-50.00,-40.00,-11.00,-2.00,-9.00,-40.00,-99.00,-52.00
-55.00,-56.00,+18.00,+25.00,-119.00,+2.00,+24.00,-46.00,-29.00,-73.00,-70.00,-21.00,+9.00,-8.00,+40.00,+29.00
+34.00,-15.00,-29.00,-29.00,-111.00,-9.00,-22.00,-81.00,+38.00,+98.00,+31.00,+22.00,+14.00,+41.00,-3.00,-73.00
+2.00,+16.00,-6.00,-3.00,-75.00,+3.00,-26.00,-95.00,-22.00,+4.00,+25.00,-8.00,+5.00,+11.00,-46.00,+5.00
+22.00,-29.00,-33.00,+7.00,-31.00,-18.00,-44.00,-33.00,-3.00,+90.00,+56.00,+20.00,-50.00,-41.00,-19.00,-8.00
+46.00,-42.00,-14.00,-27.00,-82.00,-97.00,-66.00,+15.00,-32.00,-33.00,-8.00,+3.00,+65.00,+51.00,-49.00,+34.00
+9.00,+21.00,-7.00,-4.00,+52.00,+49.00,+53.00,+41.00,+1.00,+1.00,-21.00,+8.00,+3.00,+1.00,+79.00,-22.00
-40.00,-54.00,-11.00,-6.00,-78.00,+18.00,-3.00,+27.00,+2.00,+28.00,+28.00,+39.00,-28.00,-38.00,-49.00,-64.00
+42.00,+5.00,-17.00,+2.00,+111.00,-3.00,-62.00,-76.00,+26.00,-17.00,-29.00,-71.00,+0.00,-8.00,-24.00,-16.00
+16.00,-10.00,+38.00,+29.00,+6.00,+102.00,+110.00,+71.00,-12.00,-46.00,-32.00,+4.00,-16.00,-20.00,-36.00,+28.00
-51.00,-38.00,-8.00,-5.00,-58.00,-111.00,-102.00,-77.00,+5.00,+30.00,+25.00,+3.00,+43.00,+43.00,+76.00,+73.00
+8.00,+26.00,+14.00,+1.00,+65.00,+21.00,+26.00,+19.00,+6.00,+1.00,+12.00,+7.00,-7.00,+27.00,-11.00,+14.00
-32.00,-15.00,-2.00,-10.00,-44.00,-22.00,-78.00,+11.00,+10.00,-23.00,-9.00,-6.00,-9.00,-18.00,-85.00,-125.00
+126.00,+17.00,+1.00,+16.00,+51.00,+20.00,+71.00,+127.00,-16.00,+8.00,+13.00,+17.00,+27.00,+4.00,+20.00,+69.00
-37.00,-3.00,+4.00,-8.00,-19.00,+7.00,-32.00,-53.00,-17.00,-16.00,-19.00,-18.00,-21.00,-2.00,-37.00,-13.00
-80.00,-15.00,+28.00,+24.00,+5.00,-18.00,+15.00,-83.00,+10.00,-4.00,-2.00,-24.00,-1.00,-21.00,-28.00,-22.00
+89.00,+49.00,-47.00,-44.00,+1.00,+22.00,+42.00,+81.00,+39.00,+41.00,+25.00,+20.00,+8.00,+9.00,+7.00,+7.00
-61.00,+48.00,+44.00,+8.00,+9.00,-8.00,-28.00,-77.00,-20.00,-11.00,-23.00,-17.00,-16.00,+4.00,+8.00,-23.00
-31.00,-15.00,+36.00,+35.00,-15.00,+18.00,+17.00,+27.00,-12.00,+76.00,+9.00,+20.00,+9.00,-13.00,-48.00,-13.00
-16.00,+23.00,+7.00,-13.00,+8.00,-17.00,-5.00,+47.00,-21.00,-111.00,-101.00,-54.00,-18.00,-15.00,-11.00,+6.00
-44.00,-55.00,-43.00,+17.00,+26.00,-4.00,-26.00,-17.00,-7.00,+78.00,+52.00,+27.00,+10.00,+15.00,+46.00,+9.00
+23.00,+10.00,-4.00,-27.00,-37.00,-42.00,-28.00,-42.00,+39.00,+38.00,+39.00,+15.00,+6.00,-17.00,+28.00,+53.00
-8.00,-1.00,+1.00,-6.00,-9.00,+25.00,+95.00,+96.00,-38.00,-41.00,-20.00,-5.00,-19.00,-3.00,-6.00,-69.00
+21.00,-49.00,-14.00,-7.00,-12.00,+38.00,+13.00,+11.00,+14.00,+50.00,+24.00,+9.00,-11.00,+1.00,-8.00,+33.00
-30.00,-39.00,-5.00,+12.00,+39.00,+17.00,+31.00,+37.00,+16.00,+34.00,+29.00,+3.00,-23.00,-7.00,-27.00,-23.00
-24.00,+9.00,+9.00,-1.00,+24.00,-39.00,-43.00,-34.00,-4.00,-96.00,-79.00,+36.00,+110.00,-63.00,-40.00,-10.00
+34.00,+6.00,+0.00,+11.00,+4.00,+94.00,-6.00,+16.00,+3.00,-24.00,-9.00,-29.00,-71.00,+27.00,-4.00,+33.00
+7.00,-2.00,-1.00,-5.00,+18.00,-110.00,-91.00,-128.00,+2.00,+23.00,+17.00,+26.00,-23.00,-21.00,+10.00,+9.00
+3.00,+3.00,+7.00,+10.00,+46.00,+82.00,+62.00,+105.00,-23.00,-47.00,-33.00,+1.00,-35.00,+2.00,+25.00,+16.00
+32.00,+4.00,+12.00,+1.00,-35.00,-46.00,+24.00,+18.00,-17.00,+35.00,+29.00,-39.00,-25.00,-19.00,-27.00,-91.00
+19.00,-7.00,-21.00,-10.00,-16.00,-32.00,-20.00,-25.00,+19.00,-1.00,+5.00,+5.00,-30.00,+21.00,-10.00,+58.00
+64.00,+23.00,+24.00,+5.00,+45.00,+23.00,-11.00,+30.00,-19.00,-9.00,+4.00,+25.00,+64.00,-1.00,-29.00,-28.00
+4.00,-59.00,-22.00,-10.00,-32.00,-14.00,-35.00,-68.00,-63.00,-28.00,-23.00,-26.00,-26.00,-8.00,-11.00,-8.00
+68.00,+32.00,+18.00,+10.00,+5.00,+8.00,+58.00,+4.00,+58.00,+78.00,+74.00,+22.00,+5.00,+0.00,+49.00,+19.00
-24.00,-66.00,-36.00,-14.00,-16.00,-9.00,-15.00,+2.00,+8.00,-67.00,-39.00,+4.00,+2.00,-10.00,-4.00,+36.00
+61.00,+119.00,+67.00,-3.00,-18.00,+14.00,+21.00,+63.00,-14.00,+16.00,+3.00,-9.00,+0.00,+6.00,+1.00,-29.00
-29.00,-34.00,+2.00,+18.00,+6.00,-28.00,-10.00,-36.00,+9.00,-11.00,-5.00,+7.00,+17.00,+0.00,+24.00,+16.00
-13.00,-41.00,-5.00,+1.00,-10.00,+32.00,+6.00,-11.00,-15.00,+37.00,+15.00,-14.00,-42.00,+6.00,+9.00,+1.00
-31.00,+22.00,+8.00,-1.00,-23.00,-22.00,-7.00,-41.00,+2.00,+43.00,+42.00,+17.00,+28.00,-4.00,-5.00,+16.00
+71.00,-35.00,-8.00,+4.00,+16.00,-29.00,-13.00,-122.00,-24.00,-95.00,-65.00,-31.00,-12.00,-18.00,-60.00,-59.00
+127.00,-7.00,+0.00,+9.00,+2.00,-21.00,+3.00,+82.00,+23.00,+8.00,+11.00,+17.00,+39.00,+7.00,+3.00,+22.00
+127.00,+55.00,+20.00,-7.00,-59.00,+65.00,+90.00,-8.00,-14.00,-15.00,-15.00,-9.00,-19.00,+22.00,+28.00,+40.00
+127.00,+16.00,-4.00,+6.00,+53.00,-66.00,-25.00,-24.00,-11.00,+21.00,+10.00,+29.00,+55.00,-12.00,-47.00,-25.00
+88.00,-45.00,-28.00,-11.00,+11.00,+27.00,-6.00,-15.00,+8.00,+34.00,+14.00,-18.00,-56.00,-1.00,-32.00,-10.00
+13.00,+6.00,+5.00,-8.00,+4.00,+10.00,-12.00,-29.00,+0.00,-1.00,-20.00,-38.00,-2.00,-1.00,+28.00,+82.00
-100.00,-15.00,-7.00,+16.00,+44.00,+2.00,-14.00,-11.00,-7.00,+5.00,+15.00,+13.00,-37.00,+10.00,-20.00,+81.00
-111.00,+0.00,+2.00,+0.00,-5.00,-80.00,-10.00,+25.00,+8.00,-36.00,-35.00,-2.00,+20.00,-32.00,+13.00,-14.00
-128.00,-12.00,-7.00,-2.00,-46.00,+24.00,+28.00,+31.00,+19.00,+27.00,+32.00,-6.00,+28.00,+18.00,+10.00,+16.00
-118.00,+21.00,+19.00,+2.00,+5.00,-55.00,-19.00,-8.00,+7.00,-20.00,-13.00,+30.00,-23.00,-13.00,+11.00,-11.00
-122.00,-59.00,-55.00,-23.00,+19.00,+37.00,+73.00,+13.00,-6.00,+11.00,-1.00,-41.00,+13.00,-6.00,-19.00,-30.00
-96.00,+28.00,+19.00,-4.00,-28.00,+20.00,-16.00,-16.00,-6.00,+8.00,+24.00,+2.00,-17.00,-6.00,-17.00,-9.00
-95.00,-4.00,-13.00,+0.00,-23.00,-33.00,-17.00,+44.00,+4.00,-15.00,-35.00,-19.00,+6.00,+5.00,+9.00,-4.00
-73.00,-6.00,-14.00,-15.00,-13.00,+27.00,+32.00,-38.00,+19.00,-26.00,+31.00,+29.00,+8.00,+7.00,+24.00,+36.00
-66.00,-23.00,-1.00,-5.00,-3.00,-6.00,-41.00,-11.00,-21.00,-34.00,-60.00,-7.00,+0.00,-8.00,-5.00,-37.00
-22.00,-27.00,-4.00,+4.00,+5.00,-3.00,-16.00,-3.00,+16.00,+39.00,+9.00,+5.00,-1.00,+4.00,+1.00,-2.00
-55.00,+30.00,+9.00,-8.00,+1.00,+15.00,+14.00,+91.00,+2.00,+5.00,+23.00,+1.00,-10.00,-3.00,+20.00,-6.00
-90.00,-30.00,+3.00,+1.00,-5.00,+16.00,+13.00,+14.00,-4.00,-20.00,-3.00,-1.00,+20.00,+8.00,-5.00,+2.00
-54.00,+28.00,+7.00,+3.00,+14.00,+4.00,-25.00,+23.00,+3.00,+9.00,+10.00,+13.00,-18.00,-2.00,-1.00,-17.00
-83.00,-11.00,-2.00,-6.00,-60.00,-2.00,-3.00,-44.00,+5.00,-23.00,-22.00,-6.00,+9.00,+2.00,+3.00,+10.00
+0.00,-4.00,+4.00,+6.00,+32.00,-9.00,-1.00,+13.00,-4.00,+35.00,+15.00,+3.00,+22.00,+8.00,+11.00,+15.00
-5.00,-7.00,-9.00,-3.00,+37.00,-66.00,-19.00,-88.00,-1.00,+11.00,-14.00,-4.00,+17.00,-7.00,-25.00,-29.00
+8.00,-2.00,+2.00,+0.00,-59.00,+20.00,-43.00,-9.00,+1.00,-8.00,+4.00,-17.00,-24.00,-22.00,+5.00,-31.00
-14.00,+31.00,+13.00,+5.00,+59.00,+15.00,+35.00,+46.00,+12.00,+16.00,-1.00,+30.00,+16.00,+19.00,+13.00,+53.00
-93.00,-20.00,-11.00,+7.00,+46.00,+40.00,-15.00,-25.00,+4.00,+2.00,+1.00,-28.00,-32.00,+2.00,+31.00,+17.00
-35.00,+21.00,+11.00,+1.00,-13.00,+3.00,+9.00,-23.00,-1.00,-4.00,-8.00,+11.00,+64.00,+4.00,-11.00,+6.00
-49.00,-12.00,-8.00,+5.00,-2.00,-5.00,-4.00,-17.00,+8.00,-3.00,-5.00,-8.00,-37.00,-6.00,+1.00,-19.00
-36.00,-12.00,-26.00,-24.00,-6.00,+15.00,-23.00,-6.00,-16.00,-13.00,+24.00,-8.00,-8.00,-11.00,-29.00,-34.00
-24.00,+0.00,-1.00,+1.00,-13.00,-1.00,-4.00,-28.00,-8.00,-4.00,-25.00,+19.00,+48.00,+0.00,-9.00,-10.00
-39.00,-1.00,-5.00,+0.00,-13.00,+16.00,-7.00,-2.00,+3.00,+29.00,+23.00,-5.00,-16.00,+0.00,+17.00,+6.00
+11.00,+31.00,+20.00,+5.00,+11.00,-41.00,-4.00,+15.00,-3.00,-52.00,-23.00,+33.00,+32.00,-1.00,-9.00,+15.00
+12.00,-1.00,+0.00,-2.00,-12.00,+3.00,+3.00,+11.00,-4.00,-24.00,-11.00,-61.00,-50.00,-5.00,+4.00,-15.00
+12.00,-23.00,-14.00,-7.00,-7.00,-21.00,+1.00,+8.00,-10.00,-4.00,+19.00,+7.00,-12.00,+7.00,-2.00,+2.00
+64.00,+18.00,+14.00,+1.00,-22.00,+6.00,+8.00,+20.00,-12.00,-6.00,-23.00,-15.00,-18.00,-5.00,+6.00,-22.00
+38.00,-4.00,+2.00,+10.00,-4.00,+4.00,+1.00,+6.00,+3.00,+23.00,+17.00,+23.00,+48.00,+7.00,-6.00,-8.00
+43.00,+17.00,+5.00,+6.00,+43.00,+18.00,+8.00,-8.00,+12.00,+25.00,+12.00,+6.00,-6.00,+3.00,+7.00,+21.00
+20.00,-25.00,-22.00,-15.00,-30.00,-25.00,-7.00,+9.00,-13.00,+7.00,+4.00,+10.00,+8.00,-6.00,-4.00,-1.00
+77.00,+18.00,+13.00,+9.00,-19.00,+26.00,-2.00,-3.00,+1.00,-5.00,-9.00,-16.00,-24.00,+1.00,+2.00,-18.00
+16.00,-11.00,-2.00,+0.00,+25.00,-14.00,-26.00,+20.00,+11.00,-1.00,+12.00,+1.00,+0.00,+0.00,+2.00,-3.00
+36.00,-10.00,-3.00,-7.00,-34.00,-54.00,-8.00,+11.00,-12.00,-11.00,-20.00,-11.00,-1.00,+4.00,+2.00,-20.00
-4.00,-9.00,-6.00,+2.00,+43.00,+107.00,-1.00,+25.00,+12.00,+19.00,+12.00,+1.00,+12.00,-15.00,-12.00,+37.00
-45.00,-9.00,-6.00,-7.00,-36.00,-64.00,+2.00,-42.00,+8.00,-24.00,-19.00,+1.00,-13.00,-3.00,+14.00,+6.00
+14.00,-1.00,+5.00,+4.00,-16.00,+10.00,-17.00,-23.00,+16.00,+5.00,+12.00,-2.00,+14.00,+3.00,+3.00,+11.00
+19.00,-4.00,-14.00,+1.00,+20.00,+3.00,+19.00,+23.00,+8.00,-10.00,-32.00,-9.00,+0.00,-10.00,-1.00,-17.00
-3.00,+26.00,+10.00,-11.00,-40.00,-39.00,-7.00,-4.00,-3.00,+51.00,+41.00,+9.00,-7.00,+23.00,-28.00,-38.00
-7.00,-31.00,-10.00,-1.00,+26.00,+34.00,+6.00,-12.00,+33.00,-19.00,-11.00,+3.00,-14.00,-4.00,+4.00,+2.00
+4.00,+25.00,-5.00,-7.00,-21.00,-9.00,-15.00,-13.00,-5.00,-13.00,-18.00,-23.00,+23.00,-1.00,-3.00,+28.00
+5.00,+19.00,+6.00,+4.00,+25.00,+11.00,-5.00,-5.00,-28.00,+4.00,+11.00,+11.00,+6.00,+1.00,+1.00,-22.00
-1.00,-21.00,-2.00,+8.00,+5.00,-6.00,+18.00,-18.00,-9.00,-11.00,-7.00,-6.00,-19.00,-3.00,+8.00,+18.00
-73.00,+17.00,+3.00,-2.00,+8.00,+6.00,-16.00,-6.00,-17.00,+44.00,+22.00,+1.00,-1.00,-4.00,-5.00,-5.00
-20.00,-11.00,-2.00,-1.00,-15.00,-6.00,+17.00,+18.00,-2.00,-2.00,-2.00,-1.00,-12.00,+5.00,+1.00,+4.00
-2.00,-13.00,-3.00,-2.00,+3.00,+8.00,+2.00,+8.00,+3.00,-5.00,-9.00,+14.00,+13.00,-3.00,-6.00,+5.00
+4.00,-13.00,-5.00,-3.00,-23.00,-25.00,-7.00,-12.00,-6.00,-12.00,+6.00,-5.00,-7.00,-2.00,+0.00,-13.00
+25.00,+20.00,-2.00,+0.00,-4.00,-16.00,+14.00,+28.00,-62.00,-18.00,-4.00,-2.00,+4.00,+4.00,-3.00,-11.00
+21.00,-18.00,-1.00,-4.00,+29.00,-2.00,-2.00,-4.00,+23.00,+13.00,-2.00,-7.00,+28.00,+0.00,+2.00,-8.00
-10.00,+14.00,+9.00,+5.00,-29.00,+23.00,-1.00,-3.00,-19.00,+0.00,+13.00,-18.00,-14.00,-7.00,-1.00,+23.00
-7.00,-14.00,-1.00,+5.00,+38.00,+19.00,+1.00,+0.00,+28.00,-1.00,-13.00,-4.00,-7.00,+1.00,+9.00,+15.00
+21.00,+6.00,+4.00,+0.00,-8.00,-63.00,-15.00,-18.00,-15.00,-5.00,-12.00,+8.00,+37.00,-6.00,-5.00,-9.00
-1.00,+6.00,-2.00,-1.00,-15.00,+48.00,+19.00,+38.00,+1.00,-3.00,+3.00,-14.00,-61.00,-5.00,+1.00,+5.00
-22.00,-12.00,-5.00,-5.00,+27.00,-1.00,-56.00,-53.00,-20.00,-6.00,-7.00,+6.00,+10.00,+0.00,-4.00,-23.00
-56.00,-27.00,-19.00,+3.00,-23.00,-6.00,+22.00,+33.00,+22.00,-5.00,+16.00,+1.00,+9.00,+4.00,+6.00,+5.00
-99.00,+32.00,+9.00,-11.00,-17.00,+7.00,+6.00,+26.00,+6.00,-23.00,-44.00,-10.00,-8.00,-3.00,-4.00,+13.00
-47.00,+5.00,-6.00,-4.00,+30.00,-17.00,+4.00,-7.00,-13.00,+20.00,+21.00,+17.00,-1.00,+3.00,+1.00,-14.00
+53.00,+10.00,+18.00,+9.00,-37.00,-1.00,-5.00,+14.00,-4.00,-62.00,-23.00,-8.00,-1.00,-2.00,-2.00,-11.00
+81.00,+7.00,-8.00,-3.00,+8.00,+10.00,-8.00,-21.00,-21.00,+10.00,-14.00,-1.00,-2.00,-3.00,+3.00,+10.00
+96.00,-23.00,-9.00,+9.00,+14.00,-19.00,-5.00,-1.00,+17.00,-9.00,+14.00,+8.00,-2.00,+3.00,+2.00,-6.00
-7.00,-22.00,+4.00,-2.00,-7.00,+1.00,-11.00,-31.00,+3.00,+24.00,-1.00,-6.00,-13.00,-4.00,-3.00,-21.00
+11.00,+24.00,+1.00,-5.00,-13.00,-9.00,+11.00,-2.00,-3.00,+3.00,+3.00,+1.00,+1.00,+0.00,+0.00,+4.00
+10.00,-15.00,-4.00,-1.00,+11.00,+1.00,-3.00,-13.00,-10.00,-6.00,+4.00,+14.00,+14.00,+2.00,-3.00,-4.00
+46.00,+14.00,+1.00,-3.00,-41.00,-19.00,+9.00,+12.00,+21.00,+26.00,+8.00,-9.00,-19.00,-4.00,+1.00,-2.00
+53.00,+5.00,+4.00,+5.00,+49.00,+49.00,+9.00,-2.00,-16.00,-7.00,-7.00,-7.00,-9.00,-1.00,-2.00,-9.00
+0.00,-30.00,+0.00,+4.00,+11.00,+19.00,+3.00,-3.00,+10.00,+10.00,+2.00,+4.00,+7.00,+3.00,+3.00,+7.00
+35.00,+32.00,+13.00,+3.00,+20.00,+87.00,+4.00,+11.00,-4.00,-27.00,+5.00,+12.00,+8.00,-1.00,-2.00,-4.00
-13.00,-18.00,-8.00,-11.00,-14.00,-76.00,-15.00,-17.00,-4.00,+15.00,+0.00,-13.00,-7.00,-3.00,-4.00,-12.00
-12.00,-1.00,+1.00,+5.00,+11.00,-4.00,-11.00,-5.00,+19.00,+6.00,+1.00,+12.00,+9.00,-1.00,+1.00,+24.00
+26.00,-3.00,-8.00,-8.00,-9.00,-39.00,+7.00,+7.00,-2.00,+1.00,-8.00,-27.00,-18.00,-2.00,-3.00,-6.00
-55.00,-18.00,-9.00,-3.00,-23.00,+58.00,-10.00,-17.00,+15.00,+6.00,+1.00,-4.00,-36.00,-9.00,-2.00,-7.00
+27.00,+17.00,-3.00,-8.00,+2.00,+34.00,+10.00,-6.00,+1.00,-2.00,+2.00,+1.00,+18.00,+2.00,+0.00,+10.00
+43.00,-20.00,+0.00,-3.00,-4.00,-20.00,+10.00,+3.00,-31.00,-21.00,-3.00,+2.00,+27.00,-1.00,-5.00,-13.00
+28.00,+1.00,+0.00,+1.00,+16.00,+16.00,+8.00,+2.00,+13.00,+20.00,+21.00,+13.00,-13.00,+1.00,-1.00,+12.00
+0.00,+11.00,+23.00,+2.00,-23.00,-53.00,-7.00,-13.00,-8.00,-2.00,-13.00,-20.00,-13.00,-7.00,-7.00,-24.00
+43.00,-7.00,-7.00,-2.00,+9.00,+31.00,+1.00,+5.00,+2.00,-23.00,-13.00,+7.00,+6.00,+2.00,+0.00,+9.00
+15.00,-3.00,+4.00,+5.00,+12.00,-9.00,+1.00,-2.00,+4.00,+21.00,+28.00,+6.00,-11.00,-6.00,-1.00,+5.00
+60.00,+22.00,-6.00,-4.00,-29.00,+0.00,-1.00,-2.00,-16.00,-27.00,-13.00,+8.00,+17.00,+25.00,-4.00,-37.00
+23.00,-21.00,-2.00,-5.00,+11.00,+2.00,+0.00,-15.00,-4.00,-7.00,-9.00,-4.00,+0.00,-3.00,+5.00,+32.00
+86.00,+8.00,+7.00,+13.00,+22.00,+31.00,+8.00,+20.00,+3.00,+26.00,+20.00,+17.00,+1.00,-3.00,+5.00,+26.00
+9.00,-10.00,-5.00,-7.00,-3.00,-6.00,-4.00,-6.00,-14.00,+7.00,+19.00,-3.00,-5.00,-2.00,-5.00,-45.00
+6.00,+2.00,-4.00,+1.00,-9.00,+5.00,+10.00,+9.00,-1.00,-20.00,-48.00,-22.00,-9.00,-12.00,+0.00,+11.00
+13.00,+5.00,-6.00,-2.00,-18.00,-54.00,-5.00,-9.00,-5.00,-8.00,-3.00,+5.00,-1.00,+0.00,-1.00,-19.00
-8.00,-5.00,+2.00,-2.00,-8.00,+14.00,-8.00,-10.00,-6.00,+2.00,-3.00,-4.00,+2.00,+4.00,-1.00,+12.00
+11.00,+7.00,+3.00,+3.00,+25.00,+21.00,+18.00,+4.00,+14.00,+2.00,-10.00,-8.00,-16.00,+1.00,+4.00,+50.00
+14.00,-15.00,+1.00,+1.00,+13.00,+6.00,-13.00,+7.00,-6.00,+19.00,+22.00,+14.00,+8.00,-5.00,-6.00,-25.00
+7.00,+19.00,-8.00,-1.00,-8.00,-22.00,-6.00,+2.00,-8.00,-2.00,-6.00,+1.00,-1.00,+4.00,+0.00,-3.00
-35.00,-25.00,-9.00,-9.00,-27.00,-6.00,-3.00,-4.00,+10.00,-4.00,-9.00,-17.00,+10.00,-5.00,-2.00,-4.00
+43.00,+11.00,+7.00,+0.00,-5.00,-34.00,-1.00,+10.00,+1.00,-27.00,-11.00,-4.00,-12.00,+0.00,+0.00,-4.00
-40.00,+14.00,+5.00,+0.00,+22.00,+15.00,+4.00,-6.00,-5.00,+44.00,+9.00,-2.00,-14.00,-3.00,-2.00,+8.00
+8.00,+4.00,-1.00,+5.00,+16.00,-21.00,-4.00,+8.00,+13.00,-39.00,-15.00,-3.00,-10.00,-4.00,-1.00,-3.00
-9.00,-8.00,+7.00,+3.00,-5.00,+13.00,-2.00,+2.00,-15.00,+5.00,+15.00,+2.00,-7.00,+3.00,-2.00,-27.00
-31.00,-19.00,-22.00,-6.00,-14.00,+4.00,-45.00,-19.00,-6.00,-28.00,-11.00,+4.00,+13.00,-4.00,-1.00,+17.00
-12.00,+6.00,+12.00,-2.00,-11.00,-1.00,+39.00,+10.00,+0.00,+9.00,-4.00,-20.00,-17.00,-2.00,+1.00,+3.00
-12.00,-8.00,-1.00,-10.00,-23.00,-8.00,-8.00,-21.00,-14.00,+14.00,+2.00,-5.00,+8.00,-7.00,-5.00,-12.00
-31.00,-17.00,-6.00,+9.00,+9.00,+16.00,+1.00,+1.00,-3.00,-22.00,-4.00,+1.00,-5.00,-2.00,-4.00,-16.00
+35.00,+42.00,-3.00,-12.00,+17.00,-10.00,-10.00,+18.00,-6.00,+13.00,-9.00,+1.00,-10.00,+1.00,-3.00,+2.00
-12.00,-3.00,-11.00,+1.00,+10.00,+7.00,-12.00,-6.00,+23.00,+14.00,+10.00,+24.00,+40.00,+1.00,+4.00,-1.00
-5.00,+6.00,+11.00,+5.00,+19.00,-10.00,+2.00,+6.00,-1.00,+10.00,+6.00,-10.00,-5.00,-1.00,-3.00,+1.00
