+9.00,+13.00,+6.00,+5.00,+2.00,+1.00,-1.00,-21.00,+0.00,-1.00,+2.00,+1.00,+0.00,+0.00,+0.00,-2.00
-3.00,-3.00,+0.00,-3.00,+1.00,+0.00,-2.00,-9.00,-5.00,-2.00,-1.00,+2.00,-1.00,-1.00,-2.00,-5.00
+4.00,+0.00,-7.00,-4.00,-3.00,+1.00,+2.00,+4.00,-8.00,-16.00,-3.00,+1.00,+1.00,+2.00,+2.00,+1.00
+9.00,+8.00,+0.00,-4.00,-3.00,-1.00,+1.00,+2.00,-8.00,+20.00,+3.00,-2.00,-2.00,-1.00,-4.00,-3.00
+0.00,+0.00,+3.00,+1.00,+0.00,-1.00,-1.00,+0.00,+6.00,-1.00,+0.00,-4.00,-3.00,+1.00,-1.00,-2.00
-3.00,+3.00,-1.00,+0.00,+0.00,-2.00,-1.00,-9.00,-6.00,-2.00,-3.00,-1.00,-1.00,-2.00,+0.00,-3.00
-5.00,-12.00,-1.00,-1.00,+0.00,-1.00,-1.00,+3.00,+5.00,+3.00,-1.00,+2.00,-1.00,+1.00,+0.00,+2.00
+4.00,+1.00,+0.00,-1.00,+0.00,+0.00,-3.00,-3.00,+4.00,-8.00,-4.00,-1.00,+0.00,-1.00,-2.00,+0.00
-1.00,+0.00,-3.00,-1.00,+0.00,-2.00,-1.00,+5.00,+0.00,-1.00,-2.00,-3.00,+1.00,-3.00,-1.00,-1.00
-5.00,+9.00,+1.00,-1.00,-3.00,-2.00,-2.00,-3.00,-3.00,-3.00,-1.00,+0.00,-2.00,-2.00,-2.00,-3.00
+0.00,-13.00,+0.00,-1.00,-1.00,+0.00,+0.00,+1.00,+4.00,+6.00,+0.00,-1.00,+3.00,+1.00,+1.00,+3.00
-5.00,-4.00,+0.00,-1.00,-2.00,+0.00,-1.00,-4.00,-1.00,-7.00,-4.00,-1.00,+0.00,+0.00,-1.00,-2.00
-5.00,+2.00,-4.00,-3.00,-1.00,+2.00,-3.00,+1.00,-1.00,+2.00,+0.00,-2.00,-1.00,+0.00,+0.00,-3.00
+3.00,-2.00,-2.00,+2.00,-1.00,+0.00,+0.00,-3.00,-7.00,-5.00,-2.00,-2.00,-2.00,+0.00,-1.00,-3.00
+3.00,-1.00,-4.00,+0.00,+2.00,+2.00,+1.00,+0.00,-2.00,-1.00,+1.00,-3.00,-3.00,-1.00,+1.00,+1.00
-4.00,+6.00,+3.00,-3.00,-3.00,-2.00,+0.00,-2.00,+2.00,+0.00,-1.00,-3.00,-2.00,+0.00,-2.00,+0.00
+8.00,-4.00,-1.00,-4.00,-2.00,-1.00,+1.00,+2.00,-3.00,-4.00,+1.00,-2.00,-1.00,+0.00,-1.00,+1.00
+1.00,-1.00,+2.00,+2.00,+3.00,+0.00,+1.00,-3.00,-2.00,+2.00,-3.00,-3.00,-2.00,-1.00,-2.00,-1.00
-3.00,+2.00,-1.00,-4.00,-3.00,-3.00,-1.00,-6.00,-2.00,+1.00,-4.00,-3.00,-1.00,-4.00,-3.00,-4.00
+6.00,+3.00,-1.00,-3.00,+0.00,-1.00,+4.00,+24.00,-1.00,-2.00,+1.00,-1.00,+1.00,-3.00,-1.00,-1.00
+7.00,-1.00,-9.00,-8.00,-5.00,-1.00,+5.00,-1.00,-5.00,-6.00,+1.00,-3.00,-2.00,-2.00,-3.00,+1.00
+4.00,-4.00,+0.00,-1.00,+3.00,-1.00,+0.00,+1.00,-2.00,-3.00,-4.00,-1.00,+0.00,-1.00,+0.00,+2.00
-6.00,-8.00,+0.00,+0.00,+2.00,-3.00,-3.00,-2.00,-1.00,-2.00,-3.00,-4.00,+0.00,+0.00,+3.00,+1.00
-2.00,+12.00,+1.00,+1.00,+3.00,+2.00,-4.00,-5.00,-5.00,-6.00,-2.00,-1.00,+0.00,+0.00,-3.00,-6.00
-2.00,+8.00,+2.00,+0.00,-2.00,+0.00,-2.00,-5.00,+6.00,+3.00,+0.00,+0.00,-1.00,-1.00,+0.00,+1.00
+0.00,+9.00,-3.00,-3.00,-2.00,-1.00,-1.00,-2.00,-6.00,-4.00,+1.00,+0.00,-1.00,+1.00,-1.00,-2.00
-2.00,-18.00,+0.00,+0.00,-2.00,-1.00,+0.00,+3.00,+1.00,+3.00,+0.00,+1.00,-1.00,-1.00,-2.00,+1.00
-1.00,-5.00,+1.00,+0.00,-2.00,-2.00,-3.00,-9.00,-2.00,-4.00,-4.00,+0.00,-1.00,-1.00,+1.00,+3.00
-8.00,-9.00,-4.00,+0.00,+1.00,-1.00,-3.00,+1.00,+2.00,+1.00,+0.00,+0.00,+0.00,+0.00,+0.00,+0.00
+0.00,+4.00,-3.00,-1.00,-1.00,-1.00,-2.00,-4.00,+4.00,+1.00,+1.00,+0.00,-1.00,-2.00,-1.00,-1.00
-2.00,+1.00,+2.00,-1.00,-3.00,-3.00,-2.00,-1.00,+0.00,-2.00,-2.00,-1.00,-2.00,-1.00,+0.00,-4.00
-3.00,-1.00,-1.00,-3.00,-1.00,-2.00,+2.00,-2.00,+0.00,+0.00,+0.00,-2.00,-2.00,+0.00,+0.00,-3.00
-1.00,+4.00,+3.00,+1.00,-1.00,+0.00,-1.00,+1.00,-2.00,-1.00,+0.00,-2.00,-2.00,-1.00,-2.00,-3.00
-2.00,-7.00,-2.00,-2.00,+0.00,-1.00,-2.00,-1.00,-3.00,-17.00,-5.00,-3.00,-1.00,-1.00,-1.00,+2.00
-1.00,-2.00,-2.00,+0.00,-1.00,-1.00,-1.00,-1.00,-3.00,+14.00,+2.00,+1.00,+0.00,-3.00,-4.00,-4.00
+3.00,-1.00,+1.00,+2.00,+0.00,+2.00,-1.00,-1.00,+3.00,+4.00,-1.00,+1.00,-2.00,+1.00,-2.00,+2.00
+4.00,+3.00,+0.00,+1.00,+2.00,+0.00,+0.00,+0.00,-7.00,-1.00,-1.00,-1.00,-2.00,-2.00,-1.00,-5.00
-5.00,-8.00,-1.00,-2.00,-1.00,-3.00,-1.00,+7.00,+0.00,+3.00,+0.00,-2.00,-2.00,-2.00,-2.00,-1.00
-4.00,+2.00,+0.00,-1.00,-2.00,-4.00,-2.00,+7.00,-3.00,-8.00,-2.00,+1.00,+2.00,+0.00,-3.00,-2.00
+8.00,+7.00,-2.00,+0.00,-1.00,-1.00,+1.00,+0.00,+0.00,-3.00,-2.00,-1.00,-1.00,-1.00,-1.00,-2.00
-3.00,-4.00,-4.00,-1.00,-1.00,-1.00,+0.00,-2.00,-1.00,-1.00,-1.00,+0.00,-1.00,-2.00,+1.00,+0.00
+4.00,-5.00,+6.00,+2.00,+0.00,-1.00,-2.00,-3.00,+0.00,-1.00,+0.00,-1.00,+0.00,-2.00,-1.00,-1.00
+0.00,+6.00,+2.00,+3.00,+4.00,+0.00,-1.00,-7.00,+0.00,-3.00,-1.00,-1.00,-4.00,-1.00,-3.00,-3.00
-13.00,-8.00,+2.00,+4.00,+2.00,+0.00,-4.00,-10.00,+0.00,+3.00,+0.00,+2.00,+2.00,-2.00,-2.00,-4.00
-10.00,-9.00,-4.00,-7.00,-4.00,-2.00,+1.00,+24.00,-1.00,-1.00,+0.00,-1.00,+0.00,-1.00,-1.00,-1.00
-4.00,+0.00,-2.00,-3.00,-4.00,+0.00,+0.00,+11.00,+5.00,+6.00,+1.00,+0.00,-2.00,-2.00,-3.00,+1.00
-2.00,+1.00,-1.00,+1.00,+0.00,+0.00,+0.00,+1.00,-1.00,+1.00,-4.00,-2.00,-2.00,+0.00,+0.00,-1.00
-1.00,-12.00,-5.00,-5.00,-5.00,-2.00,-1.00,-5.00,-3.00,-6.00,-2.00,-2.00,-1.00,+1.00,+2.00,+2.00
+5.00,+10.00,+1.00,+1.00,-1.00,+0.00,-2.00,-4.00,-1.00,-2.00,-2.00,-1.00,-2.00,+2.00,-2.00,-2.00
-1.00,-2.00,-1.00,+0.00,-3.00,+0.00,-1.00,-4.00,+4.00,+4.00,+2.00,+0.00,-1.00,+0.00,+1.00,-2.00
+2.00,-15.00,-3.00,-3.00,-4.00,-1.00,-1.00,+1.00,+4.00,-1.00,+1.00,-1.00,+1.00,+1.00,+0.00,+1.00
-4.00,+11.00,+3.00,+1.00,+3.00,-1.00,-2.00,+8.00,+0.00,-3.00,-3.00,-1.00,-1.00,-2.00,-1.00,+0.00
-2.00,-14.00,-2.00,+0.00,-1.00,-3.00,-1.00,-9.00,-1.00,-11.00,-1.00,+4.00,+2.00,-1.00,-2.00,+1.00
+1.00,+8.00,+0.00,-2.00,-1.00,-2.00,+1.00,+4.00,-6.00,+8.00,-4.00,-8.00,-7.00,-2.00,+0.00,-3.00
+13.00,+26.00,+0.00,-1.00,-1.00,-1.00,+0.00,-7.00,+1.00,+3.00,+6.00,+2.00,-1.00,-2.00,+0.00,+0.00
-1.00,-19.00,-3.00,-4.00,+3.00,+0.00,+2.00,-2.00,-2.00,-3.00,-3.00,-2.00,-1.00,+0.00,-1.00,-4.00
-7.00,+1.00,-3.00,-3.00,-1.00,-1.00,-1.00,-8.00,-2.00,+4.00,+0.00,+0.00,+0.00,+0.00,+0.00,+1.00
-7.00,-4.00,+2.00,+2.00,+0.00,-1.00,-1.00,-7.00,-2.00,-6.00,-4.00,+0.00,+1.00,+0.00,-1.00,-4.00
+1.00,+0.00,-1.00,-1.00,+1.00,+5.00,+0.00,-1.00,+0.00,-3.00,-1.00,-3.00,-1.00,-3.00,+0.00,+4.00
-6.00,+4.00,+0.00,-2.00,-2.00,-1.00,+1.00,-1.00,-1.00,+3.00,+1.00,-1.00,+2.00,-2.00,+0.00,+1.00
+15.00,+4.00,+3.00,+3.00,+3.00,-1.00,-2.00,-12.00,-2.00,-3.00,-3.00,-2.00,-7.00,-4.00,-1.00,-1.00
+9.00,-4.00,-7.00,-1.00,-1.00,+0.00,+3.00,+0.00,-2.00,-3.00,-2.00,-1.00,+1.00,-1.00,+1.00,+0.00
-3.00,-1.00,-2.00,-2.00,-1.00,-2.00,-1.00,+1.00,-3.00,-1.00,-1.00,-1.00,+0.00,-1.00,-6.00,-5.00
+6.00,+3.00,-1.00,+1.00,+0.00,-1.00,-1.00,-3.00,-2.00,-4.00,-1.00,+0.00,+1.00,-1.00,-1.00,-3.00
-1.00,-5.00,+0.00,-2.00,-3.00,-1.00,+0.00,-4.00,-1.00,+1.00,-1.00,+3.00,+3.00,+1.00,-1.00,-1.00
+1.00,-1.00,-1.00,+1.00,+0.00,+1.00,-2.00,-3.00,+2.00,-1.00,+1.00,-9.00,-6.00,+0.00,+1.00,+1.00
+5.00,-1.00,+1.00,-2.00,+1.00,-1.00,-1.00,+0.00,-1.00,-1.00,-1.00,+1.00,+1.00,+0.00,-1.00,-2.00
-4.00,+6.00,+3.00,+1.00,-5.00,-3.00,-5.00,-6.00,+0.00,+0.00,+0.00,+0.00,-6.00,+0.00,-2.00,-2.00
-2.00,-4.00,-1.00,-1.00,+1.00,-2.00,-3.00,+0.00,-3.00,-1.00,-2.00,-3.00,-1.00,+0.00,-3.00,-2.00
-8.00,-12.00,-1.00,-3.00,+6.00,-2.00,-1.00,-4.00,-3.00,+2.00,-6.00,+0.00,+0.00,-1.00,-2.00,-2.00
+19.00,+29.00,+6.00,+0.00,+3.00,-4.00,+1.00,+10.00,+2.00,-2.00,+1.00,-1.00,-1.00,-1.00,-2.00,-3.00
+10.00,+7.00,-4.00,-3.00,+1.00,-2.00,-2.00,-6.00,-1.00,-1.00,-1.00,-2.00,+0.00,-2.00,-1.00,+1.00
-10.00,-20.00,-5.00,-5.00,-6.00,-2.00,-1.00,+22.00,-1.00,+2.00,+2.00,+2.00,+3.00,-2.00,-1.00,-3.00
-5.00,-6.00,+0.00,+1.00,-5.00,-2.00,-1.00,+0.00,+4.00,+0.00,+2.00,+5.00,+2.00,-1.00,-6.00,-7.00
-2.00,-5.00,-1.00,+1.00,-1.00,+1.00,+0.00,-8.00,-3.00,-4.00,-4.00,-2.00,-1.00,+1.00,+0.00,-2.00
+4.00,+0.00,+0.00,+0.00,-2.00,+1.00,+0.00,-9.00,+1.00,+0.00,-1.00,-3.00,-3.00,-1.00,-1.00,+0.00
+2.00,+13.00,+0.00,+0.00,-1.00,+1.00,+0.00,-2.00,-5.00,-2.00,-5.00,-2.00,-1.00,+1.00,+0.00,-3.00
-3.00,-4.00,-3.00,-1.00,-2.00,+2.00,-2.00,-5.00,-5.00,-3.00,-1.00,+1.00,+2.00,-4.00,-5.00,-4.00
-12.00,-11.00,-6.00,-4.00,-7.00,-3.00,-1.00,+3.00,+5.00,+1.00,+1.00,+0.00,-1.00,+0.00,+3.00,+6.00
-5.00,+0.00,-3.00,-2.00,-8.00,-6.00,+0.00,+3.00,+1.00,+0.00,+0.00,+2.00,+0.00,-1.00,-1.00,+0.00
-5.00,-6.00,-2.00,-3.00,+4.00,+1.00,-1.00,-3.00,+1.00,-1.00,-2.00,+0.00,+8.00,-1.00,-1.00,+1.00
-4.00,+0.00,+0.00,+0.00,+1.00,-1.00,-1.00,-1.00,+0.00,-3.00,-3.00,-4.00,-6.00,+0.00,+0.00,+1.00
-3.00,-2.00,+0.00,+0.00,+2.00,-1.00,-1.00,-4.00,-4.00,-3.00,-3.00,-3.00,-5.00,-1.00,-2.00,-3.00
-17.00,-11.00,-5.00,-3.00,-3.00,-4.00,-1.00,+4.00,+2.00,+0.00,-1.00,-1.00,-1.00,+1.00,+0.00,+3.00
+13.00,-2.00,-1.00,-2.00,-1.00,-1.00,+2.00,+3.00,+0.00,+0.00,+0.00,-1.00,-2.00,+1.00,-2.00,+1.00
+4.00,+7.00,+0.00,-3.00,-3.00,-3.00,+0.00,+3.00,-1.00,-1.00,+1.00,+2.00,+4.00,-1.00,+1.00,+2.00
-3.00,-8.00,-3.00,-3.00,-5.00,-4.00,-1.00,-3.00,-3.00,-1.00,-1.00,+1.00,+1.00,-1.00,-2.00,-5.00
-6.00,-2.00,-4.00,-3.00,+2.00,-1.00,-3.00,+3.00,-2.00,-5.00,+0.00,-3.00,+2.00,-1.00,+0.00,-2.00
+6.00,+6.00,+2.00,+3.00,+1.00,+0.00,+1.00,-6.00,+1.00,+0.00,-1.00,+0.00,-1.00,-1.00,-4.00,-4.00
+2.00,+3.00,-2.00,+0.00,-2.00,+0.00,+0.00,-1.00,+4.00,-4.00,+2.00,+0.00,+1.00,-2.00,-2.00,+3.00
-15.00,-9.00,-3.00,+0.00,-3.00,+0.00,-3.00,-6.00,-2.00,+0.00,-3.00,-3.00,-2.00,+2.00,+0.00,-1.00
+7.00,-3.00,-4.00,-8.00,-3.00,+1.00,+0.00,-2.00,-3.00,-4.00,+0.00,+0.00,+1.00,+0.00,-2.00,-3.00
-4.00,+2.00,+0.00,+1.00,+1.00,+0.00,-1.00,+5.00,+1.00,-2.00,-2.00,-2.00,-4.00,-3.00,+1.00,+0.00
+1.00,-2.00,+0.00,-2.00,-3.00,-2.00,-3.00,-6.00,-3.00,-1.00,-2.00,+0.00,-1.00,-1.00,-1.00,-2.00
-20.00,-13.00,-6.00,-3.00,-1.00,-1.00,-1.00,-2.00,+0.00,+6.00,+5.00,+4.00,+3.00,-1.00,+0.00,+1.00
+9.00,+9.00,+6.00,+8.00,+6.00,+4.00,-1.00,-5.00,-3.00,-1.00,-3.00,-2.00,-2.00,-1.00,-1.00,+0.00
-3.00,-1.00,-3.00,-3.00,-4.00,-3.00,-1.00,+0.00,+1.00,+3.00,-1.00,-7.00,-6.00,-1.00,-2.00,+2.00
+21.00,+6.00,+2.00,+3.00,+2.00,+2.00,+1.00,-4.00,-4.00,-1.00,-2.00,+0.00,+2.00,+0.00,-1.00,-5.00
+0.00,-1.00,+0.00,-2.00,-1.00,-2.00,-1.00,+0.00,-2.00,-5.00,-3.00,-2.00,-2.00,-2.00,+0.00,+0.00
-2.00,-28.00,-2.00,+2.00,+0.00,-1.00,+0.00,+0.00,-2.00,-1.00,-1.00,-2.00,-1.00,-2.00,+2.00,+5.00
-7.00,+25.00,+0.00,+1.00,+1.00,+1.00,-1.00,-3.00,-2.00,+0.00,+0.00,-2.00,-2.00,-3.00,+0.00,-5.00
-7.00,-7.00,-5.00,+0.00,+2.00,+0.00,-1.00,+0.00,+0.00,-2.00,-1.00,-1.00,+1.00,-2.00,+1.00,+0.00
+2.00,+7.00,+0.00,+0.00,+0.00,+1.00,+2.00,-1.00,-6.00,-7.00,-2.00,-2.00,-3.00,+0.00,-2.00,-1.00
-3.00,+1.00,+0.00,-2.00,-1.00,+0.00,-1.00,+1.00,+0.00,+1.00,-1.00,-3.00,-2.00,-1.00,-2.00,-1.00
+0.00,-11.00,-1.00,-2.00,+0.00,+0.00,-2.00,-3.00,-3.00,-2.00,-3.00,-3.00,-3.00,-2.00,-1.00,-1.00
+3.00,+8.00,+0.00,-2.00,-1.00,-1.00,-1.00,-2.00,+9.00,+3.00,-1.00,+0.00,+0.00,+1.00,+0.00,+2.00
+1.00,+0.00,-1.00,-1.00,-1.00,+0.00,+0.00,+2.00,-7.00,-3.00,+0.00,-1.00,-1.00,-1.00,-4.00,-4.00
+1.00,+3.00,-3.00,-1.00,-1.00,+1.00,-3.00,-4.00,-3.00,-1.00,-1.00,+1.00,-3.00,-2.00,-2.00,-3.00
-7.00,-10.00,-2.00,-1.00,-3.00,+0.00,+0.00,-2.00,-1.00,-1.00,+0.00,-1.00,-1.00,+0.00,+0.00,+0.00
-12.00,-1.00,+0.00,-2.00,-1.00,-2.00,-2.00,+1.00,-1.00,+1.00,+0.00,+1.00,-1.00,+0.00,-1.00,-2.00
+0.00,-4.00,+2.00,+1.00,+0.00,-2.00,-2.00,+1.00,+2.00,-1.00,-3.00,-3.00,-2.00,-2.00,-2.00,-3.00
-2.00,-1.00,+0.00,+0.00,-1.00,-1.00,-2.00,-3.00,+3.00,+1.00,+0.00,-1.00,+0.00,+0.00,-2.00,-1.00
-1.00,+0.00,-3.00,-2.00,-1.00,-3.00,-2.00,-5.00,-2.00,-1.00,-1.00,+1.00,+2.00,-1.00,-1.00,-3.00
-3.00,-7.00,-3.00,-1.00,-3.00,-2.00,-2.00,-1.00,-2.00,-1.00,+1.00,-5.00,-1.00,-1.00,-1.00,-1.00
+2.00,+2.00,+0.00,-1.00,+2.00,-2.00,+0.00,-4.00,+0.00,+0.00,-3.00,-4.00,-1.00,-3.00,+0.00,+0.00
+1.00,+3.00,+1.00,+2.00,+2.00,+0.00,+0.00,+4.00,+0.00,-2.00,-3.00,-4.00,+0.00,-3.00,+1.00,-4.00
-1.00,-3.00,+1.00,-6.00,-3.00,-3.00,+2.00,+4.00,+1.00,+0.00,-1.00,-1.00,-2.00,-1.00,+0.00,+1.00
-14.00,+8.00,-3.00,-2.00,-1.00,-1.00,+0.00,+0.00,-9.00,+2.00,+4.00,+4.00,+1.00,+0.00,+0.00,-1.00
-1.00,-14.00,-2.00,-1.00,-1.00,+1.00,-1.00,-1.00,+9.00,-3.00,-5.00,-1.00,-1.00,+1.00,+0.00,+1.00
+0.00,+6.00,+0.00,+1.00,+0.00,+1.00,+1.00,-1.00,+1.00,-1.00,-2.00,-2.00,-2.00,-1.00,-2.00,+3.00
-8.00,-5.00,-4.00,+3.00,-1.00,+0.00,-3.00,-2.00,+3.00,-1.00,-1.00,+0.00,-2.00,-1.00,-2.00,-1.00
+7.00,+3.00,+1.00,+0.00,-2.00,-1.00,+1.00,-2.00,-6.00,-2.00,-3.00,-1.00,-1.00,+0.00,-1.00,-1.00
-1.00,+3.00,-5.00,-2.00,-2.00,-1.00,-2.00,-1.00,-3.00,-1.00,-1.00,-1.00,+1.00,-3.00,-1.00,+2.00
-3.00,-3.00,+1.00,+0.00,+0.00,+0.00,+0.00,+1.00,-5.00,-3.00,-4.00,+0.00,-1.00,+0.00,-1.00,-3.00
+3.00,-6.00,+0.00,+1.00,+1.00,-1.00,-1.00,+0.00,-3.00,-4.00,-3.00,-1.00,-1.00,-1.00,-1.00,-2.00
-13.00,-5.00,-3.00,-2.00,+0.00,-2.00,-1.00,-7.00,+2.00,-1.00,-2.00,-1.00,-2.00,-1.00,+0.00,+0.00
+11.00,+10.00,+1.00,+0.00,-1.00,+1.00,+1.00,+1.00,-1.00,+1.00,+4.00,-1.00,-1.00,+1.00,-1.00,-4.00
-9.00,-6.00,+3.00,-2.00,-4.00,-2.00,-1.00,+5.00,+7.00,+4.00,+0.00,-2.00,-2.00,+2.00,+0.00,-1.00
+1.00,+4.00,-2.00,-3.00,-3.00,+0.00,-2.00,-4.00,-11.00,-1.00,-1.00,+1.00,-1.00,-1.00,-2.00,-1.00
-1.00,-2.00,+0.00,+1.00,+0.00,+0.00,+0.00,+0.00,-1.00,-5.00,-2.00,+0.00,-1.00,-3.00,+0.00,+1.00
-1.00,-15.00,-2.00,-4.00,-2.00,-3.00,+0.00,+3.00,-3.00,-1.00,-1.00,+0.00,-1.00,-3.00,-2.00,-3.00
-2.00,+31.00,+1.00,-2.00,-1.00,+0.00,-2.00,-6.00,-4.00,-5.00,-5.00,-3.00,-1.00,-2.00,-2.00,-2.00
-6.00,-15.00,-6.00,-1.00,-1.00,-1.00,-1.00,-4.00,+1.00,+3.00,+5.00,-2.00,-2.00,-1.00,+0.00,+0.00
+2.00,+14.00,+11.00,+3.00,+4.00,+0.00,+0.00,+3.00,+9.00,+5.00,+1.00,+0.00,+0.00,-1.00,+3.00,+4.00
-2.00,-9.00,-4.00,+5.00,+1.00,+0.00,+1.00,-2.00,-5.00,-6.00,-5.00,-1.00,+1.00,-4.00,-2.00,-4.00
+5.00,-7.00,-3.00,+3.00,+3.00,-2.00,+0.00,+2.00,-1.00,-2.00,-2.00,+4.00,+2.00,-1.00,+0.00,+0.00
-2.00,+2.00,+6.00,+1.00,+4.00,+0.00,-4.00,-2.00,-2.00,-2.00,-12.00,-5.00,+0.00,+0.00,+0.00,-1.00
+4.00,-10.00,-16.00,-17.00,-12.00,-5.00,+0.00,+1.00,-1.00,+6.00,+19.00,+7.00,+4.00,+0.00,-4.00,-4.00
-3.00,+0.00,-5.00,-5.00,-2.00,-4.00,-3.00,-2.00,-6.00,-5.00,-20.00,-12.00,-8.00,+0.00,+1.00,+1.00
-1.00,-7.00,-3.00,-1.00,-2.00,+0.00,+0.00,+1.00,+2.00,-3.00,-6.00,-8.00,-4.00,-2.00,+0.00,+2.00
+0.00,+4.00,+3.00,+3.00,+0.00,+2.00,-1.00,-1.00,-3.00,-3.00,-2.00,-3.00,-3.00,-1.00,-3.00,-3.00
-6.00,-8.00,+2.00,+5.00,+4.00,+1.00,-2.00,-3.00,-3.00,-3.00,-6.00,-2.00,-2.00,-2.00,-2.00,-3.00
-1.00,+6.00,+9.00,+6.00,-1.00,+1.00,-1.00,+1.00,-4.00,+1.00,+3.00,+3.00,+1.00,-1.00,+0.00,-2.00
-3.00,-6.00,-4.00,-5.00,-3.00,+0.00,-2.00,+0.00,-3.00,-1.00,+3.00,+0.00,+0.00,-1.00,-1.00,-5.00
+1.00,+1.00,-2.00,+0.00,-7.00,-2.00,+0.00,-1.00,+1.00,+0.00,-1.00,+2.00,+1.00,-1.00,+0.00,+3.00
-1.00,+5.00,+1.00,+2.00,-4.00,-2.00,-1.00,+0.00,-4.00,-5.00,-5.00,-1.00,-2.00,-1.00,-1.00,-2.00
-1.00,-4.00,-4.00,+0.00,+12.00,-1.00,+0.00,-2.00,-2.00,+1.00,+14.00,+6.00,+2.00,+0.00,+1.00,+0.00
-1.00,+1.00,+1.00,+2.00,+3.00,+1.00,+0.00,-3.00,-6.00,-4.00,-16.00,+6.00,+2.00,-1.00,-3.00,-3.00
+0.00,+1.00,+0.00,+1.00,+7.00,-1.00,+1.00,+0.00,-10.00,-4.00,-2.00,+0.00,-1.00,-3.00,-3.00,-6.00
+0.00,+0.00,+2.00,-2.00,-9.00,-2.00,-1.00,-1.00,+15.00,+1.00,-6.00,-11.00,-5.00,-2.00,+3.00,+10.00
+12.00,+4.00,-2.00,-4.00,-18.00,-4.00,-1.00,+4.00,+2.00,+1.00,+2.00,-2.00,-4.00,-2.00,-1.00,+2.00
-14.00,-11.00,-6.00,-2.00,+26.00,+1.00,-1.00,+9.00,+1.00,+4.00,+8.00,+7.00,+11.00,+1.00,+0.00,+0.00
+2.00,+1.00,-1.00,+0.00,-3.00,-1.00,+1.00,+0.00,-2.00,+0.00,+0.00,-3.00,-10.00,+0.00,-1.00,-1.00
-3.00,-7.00,-3.00,-2.00,+6.00,+5.00,-1.00,-3.00,-9.00,-8.00,-8.00,-13.00,-6.00,-2.00,-3.00,-3.00
-1.00,-1.00,+2.00,-1.00,-5.00,-1.00,-3.00,-2.00,-2.00,+0.00,+1.00,-2.00,-7.00,+1.00,-1.00,-1.00
-8.00,-4.00,-9.00,-8.00,-15.00,-7.00,-1.00,-3.00,+4.00,-4.00,-3.00,-8.00,-5.00,-2.00,-3.00,-1.00
-3.00,+2.00,+14.00,+8.00,-4.00,+0.00,+2.00,-3.00,-8.00,-9.00,-6.00,+4.00,+6.00,-2.00,-1.00,-2.00
+9.00,-4.00,-18.00,-7.00,-8.00,-2.00,-1.00,+4.00,-2.00,+6.00,+7.00,-2.00,-2.00,-2.00,-2.00,-3.00
-5.00,+7.00,+5.00,+1.00,-1.00,+1.00,-2.00,-4.00,-1.00,+9.00,+7.00,+2.00,+2.00,+1.00,-2.00,-1.00
+6.00,-4.00,-1.00,+0.00,-10.00,-2.00,+0.00,+0.00,-6.00,-7.00,+8.00,-1.00,-5.00,+1.00,+0.00,-3.00
-4.00,-2.00,+1.00,-1.00,+6.00,+0.00,+0.00,-3.00,+2.00,-8.00,-10.00,-7.00,+0.00,-2.00,+0.00,-2.00
-3.00,+8.00,+7.00,+5.00,+7.00,+0.00,-1.00,-4.00,+5.00,-5.00,-20.00,-2.00,+0.00,+1.00,+2.00,-2.00
-3.00,-12.00,+1.00,-3.00,-1.00,-1.00,+0.00,+2.00,-15.00,-8.00,-3.00,-2.00,+3.00,-2.00,-3.00,-4.00
+0.00,-1.00,+3.00,+2.00,+4.00,+2.00,-1.00,-6.00,+8.00,+4.00,+4.00,-1.00,+0.00,+0.00,+0.00,+2.00
+2.00,-5.00,-2.00,-2.00,-4.00,-2.00,-3.00,+1.00,-9.00,+1.00,+8.00,-3.00,-1.00,+2.00,+1.00,+1.00
+5.00,+1.00,+10.00,+5.00,+4.00,+1.00,+0.00,-1.00,+10.00,+0.00,+3.00,+1.00,+2.00,-2.00,-3.00,-4.00
-3.00,+1.00,-11.00,-5.00,+0.00,-1.00,+1.00,+0.00,+0.00,+0.00,-1.00,+0.00,+0.00,+0.00,-2.00,-4.00
+0.00,-5.00,-1.00,-4.00,-13.00,-7.00,-3.00,-2.00,-5.00,+1.00,+1.00,-2.00,-3.00,+1.00,-4.00,+1.00
-5.00,-4.00,-6.00,-4.00,-27.00,-3.00,-3.00,-2.00,+1.00,+2.00,+4.00,-1.00,+2.00,+1.00,+0.00,+1.00
-1.00,-4.00,-2.00,+1.00,+29.00,+0.00,+1.00,+1.00,-1.00,-3.00,-4.00,-2.00,-1.00,+2.00,-3.00,-2.00
-2.00,+6.00,+5.00,+0.00,+3.00,+3.00,+0.00,-1.00,+3.00,-1.00,-1.00,+1.00,+6.00,+1.00,+0.00,+1.00
+0.00,+0.00,+1.00,+3.00,-1.00,-1.00,+1.00,-2.00,-2.00,+3.00,+1.00,-15.00,-16.00,-3.00,-3.00,-3.00
+0.00,+7.00,+0.00,+2.00,+3.00,-2.00,+0.00,+0.00,+6.00,+2.00,+0.00,-1.00,-2.00,-1.00,-1.00,+0.00
-1.00,+1.00,-4.00,-4.00,-9.00,-1.00,-1.00,-1.00,-5.00,+1.00,+5.00,+4.00,+1.00,-2.00,-1.00,-3.00
-1.00,-1.00,+0.00,-1.00,-3.00,-1.00,-2.00,-3.00,+2.00,-9.00,-12.00,+1.00,-1.00,-2.00,+0.00,-1.00
+5.00,+2.00,+1.00,+1.00,+1.00,+0.00,-1.00,+3.00,-5.00,+5.00,+5.00,+0.00,+3.00,-5.00,-1.00,-3.00
+13.00,+5.00,-2.00,+0.00,+1.00,-1.00,+0.00,+1.00,+1.00,+3.00,-1.00,+2.00,+0.00,+0.00,-1.00,-1.00
-2.00,+0.00,+4.00,+3.00,-4.00,-2.00,+0.00,+1.00,-7.00,-4.00,-1.00,+2.00,+3.00,-3.00,-1.00,-2.00
+1.00,-1.00,-1.00,+2.00,-2.00,-8.00,+0.00,-11.00,-1.00,-2.00,-1.00,+2.00,-7.00,-2.00,-1.00,+1.00
+4.00,+9.00,+4.00,+0.00,-8.00,+3.00,+1.00,-2.00,+2.00,-1.00,-5.00,-1.00,-2.00,-2.00,-1.00,-2.00
+2.00,+0.00,-2.00,+2.00,+24.00,+4.00,-1.00,-2.00,-2.00,+5.00,+5.00,+3.00,+12.00,+1.00,-1.00,-3.00
-3.00,-4.00,+0.00,+1.00,-3.00,+1.00,+1.00,+0.00,-11.00,-15.00,-4.00,+5.00,-4.00,+0.00,+0.00,+0.00
+0.00,+2.00,-1.00,-2.00,+4.00,+2.00,+1.00,-1.00,+2.00,-3.00,-6.00,-16.00,-9.00,-2.00,-3.00,+0.00
+0.00,+0.00,-2.00,-3.00,-8.00,-2.00,-2.00,-2.00,-3.00,+1.00,+2.00,+3.00,-2.00,-1.00,+0.00,+0.00
-4.00,+3.00,+0.00,-2.00,-4.00,-3.00,+0.00,-1.00,+4.00,-8.00,-6.00,-6.00,-7.00,-3.00,-2.00,+1.00
-4.00,-2.00,-3.00,-3.00,-4.00,-2.00,-1.00,-4.00,-5.00,+2.00,+1.00,+1.00,+5.00,+1.00,-2.00,-3.00
-3.00,+0.00,-6.00,+0.00,-3.00,-4.00,-2.00,+0.00,-1.00,-1.00,-4.00,+2.00,+4.00,+2.00,+2.00,+5.00
-1.00,+0.00,+2.00,+2.00,+3.00,-2.00,-2.00,-1.00,-2.00,+4.00,-1.00,+1.00,-1.00,-2.00,+0.00,-3.00
-5.00,-4.00,+0.00,-4.00,+3.00,-1.00,-1.00,+0.00,+3.00,-1.00,+4.00,+1.00,+3.00,-1.00,+0.00,+1.00
+1.00,-5.00,-6.00,-3.00,-7.00,-3.00,-3.00,+0.00,+0.00,+4.00,+0.00,+1.00,-5.00,-4.00,+0.00,+1.00
-6.00,+2.00,+0.00,-2.00,-3.00,+0.00,-2.00,-2.00,-2.00,-2.00,-1.00,-1.00,-1.00,-2.00,-4.00,-3.00
+7.00,+0.00,-1.00,-2.00,+1.00,+0.00,-1.00,+1.00,+8.00,-1.00,+3.00,+4.00,+4.00,-2.00,-1.00,+2.00
-5.00,-23.00,+6.00,+5.00,-1.00,+2.00,+0.00,+0.00,-18.00,-4.00,-10.00,-3.00,-6.00,+0.00,-1.00,+1.00
-2.00,-14.00,+1.00,+0.00,-3.00,-1.00,-2.00,-2.00,-3.00,+4.00,+11.00,+4.00,-2.00,+0.00,+1.00,-3.00
-6.00,+1.00,+1.00,-4.00,-5.00,-2.00,+0.00,-3.00,+8.00,-5.00,-20.00,+0.00,-2.00,-2.00,-2.00,+0.00
+1.00,-1.00,-13.00,-7.00,+12.00,+2.00,+0.00,-2.00,-3.00,+1.00,+6.00,+3.00,+2.00,-3.00,+0.00,-1.00
-4.00,-2.00,-6.00,-6.00,-7.00,-4.00,-2.00,-2.00,+7.00,-4.00,-5.00,+6.00,+5.00,-2.00,-2.00,-2.00
+1.00,-2.00,+2.00,-1.00,+2.00,+2.00,+0.00,+2.00,-2.00,-2.00,-2.00,-6.00,-5.00,+1.00,-1.00,-1.00
-3.00,-1.00,+0.00,-1.00,-7.00,+2.00,-2.00,+1.00,+3.00,+7.00,+10.00,+4.00,+7.00,+1.00,+0.00,+1.00
-4.00,-5.00,+2.00,+0.00,-3.00,+1.00,-2.00,-5.00,-7.00,-6.00,-6.00,-9.00,-6.00,+1.00,+0.00,-2.00
+4.00,+14.00,+1.00,+3.00,+1.00,+0.00,+0.00,+1.00,+2.00,-3.00,+0.00,-2.00,-4.00,-3.00,-1.00,-1.00
-3.00,-8.00,+0.00,+1.00,-5.00,+0.00,-2.00,-2.00,-2.00,+0.00,-1.00,-2.00,+1.00,-3.00,-2.00,-3.00
+1.00,-6.00,-4.00,-2.00,+3.00,+0.00,+0.00,+1.00,-8.00,-2.00,+6.00,+0.00,+0.00,-3.00,-1.00,-5.00
-5.00,-4.00,-1.00,-2.00,-10.00,-5.00,+0.00,-2.00,-5.00,-3.00,-5.00,+4.00,+3.00,+1.00,-2.00,-1.00
-1.00,-8.00,-4.00,-4.00,+2.00,-7.00,-1.00,-1.00,+1.00,+4.00,+7.00,+1.00,+9.00,+0.00,-2.00,-3.00
-1.00,+3.00,+1.00,+2.00,+5.00,+5.00,+1.00,-2.00,+0.00,-3.00,-6.00,-2.00,-17.00,+0.00,-1.00,-1.00
-2.00,-7.00,+1.00,+3.00,+5.00,+2.00,+0.00,+4.00,+3.00,+1.00,+0.00,-1.00,+1.00,+0.00,+1.00,-3.00
+2.00,+2.00,+4.00,+4.00,+7.00,+1.00,+0.00,+1.00,-4.00,-3.00,-6.00,-7.00,-12.00,-3.00,-3.00,-3.00
-7.00,-7.00,-10.00,-14.00,-13.00,-3.00,+0.00,-2.00,+0.00,+6.00,+6.00,-2.00,+0.00,+1.00,+0.00,-3.00
+15.00,+11.00,-4.00,-9.00,-6.00,-4.00,-2.00,+2.00,+4.00,+2.00,-1.00,+1.00,+5.00,+1.00,-1.00,-3.00
-3.00,+2.00,+1.00,+0.00,+3.00,-2.00,+2.00,+1.00,-3.00,-8.00,-3.00,-2.00,+0.00,-1.00,+1.00,-1.00
+1.00,-8.00,-3.00,+1.00,-5.00,-2.00,-1.00,-2.00,-7.00,-4.00,-1.00,+1.00,-4.00,-3.00,-2.00,-6.00
+0.00,-2.00,+0.00,+2.00,-22.00,+3.00,+1.00,+0.00,+2.00,+4.00,+3.00,-1.00,-4.00,+2.00,+4.00,+4.00
+0.00,+1.00,-2.00,+2.00,+38.00,+2.00,-1.00,+2.00,-4.00,+0.00,-1.00,+3.00,+9.00,-3.00,+1.00,+1.00
-5.00,-30.00,-3.00,+2.00,+1.00,+1.00,-3.00,-1.00,+3.00,+5.00,+7.00,+7.00,+0.00,-1.00,+0.00,+2.00
+2.00,+35.00,+4.00,+2.00,+3.00,+0.00,-1.00,-2.00,-1.00,-5.00,-4.00,-9.00,-2.00,-3.00,-1.00,-2.00
-1.00,+2.00,+4.00,+3.00,+2.00,+3.00,-1.00,-2.00,+5.00,+1.00,-1.00,-4.00,-4.00,-5.00,-4.00,-1.00
-11.00,-7.00,-3.00,+0.00,-10.00,-3.00,-3.00,-5.00,-5.00,-3.00,-3.00,-1.00,+2.00,-1.00,+0.00,+0.00
-7.00,+5.00,-1.00,-1.00,-1.00,+0.00,-2.00,-3.00,-2.00,+0.00,+0.00,+1.00,+5.00,-2.00,-2.00,-4.00
+10.00,+4.00,+5.00,+3.00,-1.00,-2.00,+2.00,+2.00,+5.00,+0.00,-2.00,+1.00,+2.00,+1.00,-2.00,+0.00
-4.00,+0.00,-6.00,-6.00,+2.00,-4.00,-3.00,+1.00,-1.00,-8.00,-4.00,-3.00,-4.00,+2.00,+0.00,+3.00
-5.00,+1.00,+1.00,-2.00,-11.00,-1.00,-1.00,-2.00,-16.00,+0.00,-2.00,-3.00,-2.00,+2.00,-1.00,+0.00
+1.00,+3.00,+4.00,-3.00,+2.00,+0.00,-1.00,+0.00,-1.00,+0.00,+2.00,-3.00,-2.00,-1.00,+0.00,-1.00
-4.00,-3.00,-5.00,-2.00,-7.00,-3.00,-3.00,+0.00,-3.00,+12.00,+11.00,+5.00,+5.00,+1.00,+0.00,-1.00
+3.00,+0.00,+0.00,-2.00,+3.00,+2.00,+2.00,+1.00,-1.00,-19.00,-20.00,-5.00,-6.00,-3.00,-1.00,-4.00
-3.00,-10.00,-6.00,-3.00,-5.00,-2.00,-2.00,-1.00,+7.00,+1.00,-1.00,+0.00,+1.00,+0.00,-3.00,+0.00
+4.00,+13.00,-1.00,+0.00,-4.00,-4.00,+0.00,+1.00,-5.00,-1.00,+12.00,+0.00,-4.00,+2.00,+0.00,-3.00
-5.00,-8.00,+1.00,-3.00,+1.00,-2.00,-2.00,-3.00,+2.00,+1.00,-12.00,-2.00,+0.00,+1.00,+0.00,-1.00
+0.00,+6.00,-1.00,-1.00,+4.00,-2.00,-1.00,-1.00,-3.00,+6.00,+2.00,+3.00,+0.00,+0.00,+1.00,-1.00
-5.00,-3.00,+4.00,+1.00,-3.00,-2.00,+0.00,-1.00,+0.00,+0.00,-3.00,-2.00,-3.00,-3.00,-1.00,+0.00
+5.00,+4.00,-2.00,+0.00,+1.00,-1.00,+0.00,-1.00,-1.00,+1.00,-8.00,-4.00,-1.00,+1.00,-3.00,-2.00
-3.00,-3.00,+4.00,+3.00,+0.00,+2.00,-1.00,-1.00,+1.00,-2.00,-1.00,+0.00,+0.00,-1.00,+1.00,-2.00
-2.00,+0.00,+1.00,+3.00,+5.00,+1.00,-1.00,-2.00,-1.00,+4.00,+3.00,-3.00,-1.00,-2.00,-1.00,+0.00
-2.00,-3.00,-5.00,-2.00,-10.00,-4.00,+0.00,+0.00,-1.00,-1.00,-3.00,+0.00,+0.00,-3.00,+0.00,+0.00
-1.00,-2.00,-4.00,-2.00,+1.00,-2.00,-1.00,-2.00,-5.00,-4.00,-2.00,-2.00,-3.00,-1.00,-2.00,-1.00
-3.00,-4.00,+2.00,+0.00,-23.00,-3.00,-1.00,-2.00,+2.00,-5.00,-6.00,+6.00,+5.00,+1.00,+1.00,+1.00
+1.00,+5.00,+7.00,+5.00,+31.00,+4.00,-1.00,-2.00,-4.00,-4.00,-6.00,-8.00,-8.00,-1.00,+0.00,-4.00
-2.00,-3.00,-1.00,-7.00,-7.00,-3.00,+1.00,-1.00,+1.00,+0.00,-1.00,+7.00,+8.00,+2.00,-1.00,+2.00
+7.00,+16.00,-3.00,+2.00,+5.00,+1.00,-3.00,-1.00,+0.00,-3.00,-3.00,-13.00,-16.00,-1.00,-3.00,+0.00
-10.00,-29.00,-2.00,-4.00,-7.00,-7.00,-2.00,-1.00,-2.00,-7.00,-6.00,-2.00,+2.00,+1.00,-1.00,+1.00
-2.00,-8.00,-6.00,-5.00,+9.00,+4.00,+3.00,-1.00,+0.00,+5.00,+4.00,+5.00,-10.00,-2.00,-1.00,-1.00
+1.00,+2.00,+0.00,+1.00,-6.00,-2.00,+0.00,+0.00,+2.00,+2.00,+2.00,-4.00,+17.00,-1.00,+0.00,-3.00
-5.00,-11.00,-7.00,-5.00,+4.00,+1.00,-1.00,+2.00,-6.00,-4.00,-9.00,-9.00,-6.00,-5.00,-1.00,-4.00
-2.00,+9.00,+5.00,+1.00,-3.00,-4.00,-3.00,+0.00,+2.00,+5.00,-2.00,-2.00,+0.00,-3.00,-1.00,-4.00
-6.00,-1.00,-5.00,+0.00,-9.00,-4.00,-5.00,-2.00,-1.00,+1.00,+3.00,-4.00,-3.00,-2.00,-3.00,-4.00
-3.00,+2.00,+2.00,+4.00,+5.00,+1.00,-2.00,-2.00,-25.00,-4.00,-3.00,+0.00,+0.00,+0.00,-3.00,-3.00
+2.00,-9.00,+5.00,+3.00,-9.00,-3.00,+1.00,+0.00,+15.00,+5.00,+0.00,+2.00,+4.00,+1.00,+2.00,+10.00
-2.00,+19.00,-4.00,+2.00,+8.00,+1.00,+1.00,+0.00,+1.00,-1.00,+6.00,+0.00,-3.00,-2.00,-2.00,-1.00
-3.00,-2.00,+8.00,-1.00,-9.00,-4.00,-1.00,-2.00,-15.00,+4.00,+5.00,+8.00,+8.00,+2.00,-2.00,-2.00
-3.00,-5.00,-13.00,-2.00,+1.00,+2.00,-2.00,+0.00,+2.00,-10.00,-10.00,-8.00,-11.00,-3.00,-3.00,-4.00
-2.00,+5.00,+0.00,-2.00,-5.00,-3.00,-3.00,-1.00,+11.00,-6.00,-6.00,+2.00,+3.00,-3.00,+0.00,-1.00
-2.00,-13.00,-4.00,-3.00,+3.00,+2.00,-2.00,-1.00,+5.00,+1.00,+6.00,+0.00,-6.00,-3.00,+0.00,+2.00
-1.00,-3.00,-9.00,-4.00,-3.00,-1.00,+0.00,-1.00,-16.00,-11.00,+3.00,-1.00,+1.00,-1.00,-1.00,-1.00
+0.00,+8.00,+10.00,-1.00,-9.00,-4.00,-1.00,+2.00,+14.00,-3.00,+0.00,-1.00,-5.00,-1.00,-1.00,-1.00
+2.00,-5.00,+3.00,+3.00,+5.00,+4.00,+1.00,+1.00,-10.00,+6.00,+10.00,+2.00,+2.00,-1.00,-3.00,-4.00
+3.00,-3.00,+0.00,-1.00,+6.00,+0.00,+0.00,-1.00,+5.00,-9.00,-14.00,-6.00,-2.00,-1.00,-3.00,+1.00
+0.00,+2.00,-1.00,-3.00,-10.00,-7.00,-3.00,-1.00,+5.00,+2.00,+2.00,-1.00,+6.00,-1.00,-1.00,+0.00
+1.00,-2.00,-1.00,+0.00,+1.00,-2.00,-1.00,-6.00,+2.00,+0.00,-2.00,-2.00,-4.00,+0.00,-1.00,+1.00
+0.00,-3.00,-2.00,-1.00,+0.00,-2.00,-1.00,-1.00,-5.00,-1.00,+2.00,+3.00,-1.00,+0.00,-2.00,-3.00
-3.00,-2.00,-1.00,-3.00,+0.00,+2.00,+0.00,-3.00,-3.00,+2.00,+5.00,+2.00,-2.00,+1.00,+2.00,+1.00
+3.00,+6.00,+0.00,-1.00,-6.00,-2.00,-1.00,+2.00,+0.00,+2.00,-2.00,-1.00,-3.00,-2.00,+3.00,-2.00
+0.00,-3.00,+3.00,+1.00,+1.00,+1.00,+0.00,+1.00,-1.00,-6.00,-1.00,-2.00,-7.00,-2.00,-2.00,-2.00
-2.00,+3.00,-2.00,+1.00,+1.00,+1.00,+0.00,-1.00,-3.00,-1.00,+0.00,+0.00,+2.00,-1.00,-2.00,-4.00
+5.00,+1.00,-9.00,-1.00,+1.00,+1.00,+0.00,-1.00,-5.00,-3.00,+4.00,+1.00,+4.00,-1.00,-4.00,-2.00
+10.00,+0.00,+2.00,+7.00,+0.00,-1.00,+0.00,+3.00,-1.00,+0.00,-7.00,-7.00,-7.00,+1.00,-2.00,+0.00
+2.00,-4.00,-5.00,-2.00,-4.00,+0.00,-1.00,-2.00,+2.00,+0.00,+3.00,+1.00,-2.00,-4.00,+0.00,-2.00
-10.00,-11.00,-2.00,-8.00,-5.00,-5.00,-3.00,-5.00,-9.00,-4.00,-5.00,+3.00,+3.00,-1.00,+0.00,+0.00
-4.00,-17.00,-4.00,-7.00,-1.00,-4.00,-1.00,+7.00,-3.00,-3.00,-4.00,-7.00,-4.00,+0.00,-1.00,-1.00
+2.00,+0.00,-5.00,-1.00,+2.00,+0.00,+1.00,-2.00,+6.00,-2.00,+0.00,-3.00,+0.00,-3.00,-4.00,-1.00
+2.00,+9.00,+7.00,+2.00,+3.00,+3.00,-1.00,+1.00,+0.00,-3.00,-4.00,-7.00,-4.00,-3.00,-2.00,-2.00
-1.00,+2.00,-2.00,+0.00,-1.00,+1.00,+3.00,+3.00,-14.00,-6.00,-4.00,-3.00,-3.00,+0.00,-2.00,-6.00
-9.00,-19.00,-1.00,-1.00,+0.00,+0.00,+0.00,-3.00,+16.00,+2.00,+4.00,+3.00,+0.00,-1.00,+1.00,+1.00
+1.00,+32.00,+5.00,+0.00,-2.00,+2.00,+2.00,-7.00,+2.00,+3.00,+1.00,+2.00,+0.00,-1.00,+0.00,-2.00
+0.00,+0.00,-3.00,-3.00,-1.00,-2.00,+0.00,+2.00,-15.00,+2.00,+6.00,-1.00,-5.00,+0.00,-3.00,-2.00
-6.00,-6.00,+0.00,+2.00,-1.00,+0.00,-2.00,-3.00,-16.00,-7.00,+1.00,+5.00,+1.00,-1.00,-3.00,-3.00
+6.00,+4.00,+3.00,+4.00,+2.00,-2.00,+0.00,-1.00,+6.00,-6.00,-18.00,-4.00,+0.00,-1.00,-2.00,+2.00
-8.00,-15.00,-6.00,-6.00,-5.00,-3.00,-2.00,-4.00,-1.00,-5.00,-4.00,-1.00,+0.00,-1.00,-2.00,-2.00
+2.00,+5.00,+5.00,+1.00,+1.00,+0.00,-3.00,-3.00,+10.00,+5.00,-1.00,+1.00,+1.00,+1.00,+1.00,+0.00
+1.00,+3.00,+2.00,+1.00,+1.00,+1.00,+0.00,-1.00,-2.00,-5.00,-1.00,-3.00,-3.00,-1.00,+1.00,-3.00
-1.00,+1.00,-2.00,-4.00,-7.00,+1.00,-4.00,-4.00,-2.00,+2.00,+6.00,+1.00,+1.00,-1.00,-1.00,+0.00
-2.00,-7.00,-10.00,-13.00,-27.00,-5.00,-8.00,-3.00,+8.00,+1.00,+1.00,+0.00,-4.00,-2.00,-3.00,+1.00
-4.00,-4.00,-2.00,+0.00,+22.00,+1.00,-3.00,-2.00,-8.00,-6.00,-3.00,+0.00,-2.00,-4.00,+0.00,-2.00
-1.00,-7.00,-2.00,-1.00,-4.00,-1.00,-2.00,+0.00,+3.00,+0.00,+0.00,+4.00,+9.00,-2.00,-2.00,+0.00
+0.00,+6.00,+2.00,-1.00,+0.00,-6.00,-1.00,-3.00,-5.00,-4.00,+0.00,-13.00,-18.00,+0.00,+0.00,-3.00
-2.00,-1.00,+4.00,+7.00,+20.00,+8.00,+3.00,+0.00,-3.00,+0.00,-3.00,+1.00,+8.00,-1.00,-3.00,-2.00
+3.00,-7.00,-2.00,-2.00,-7.00,-1.00,+1.00,+3.00,+7.00,+2.00,+8.00,+0.00,-19.00,+0.00,-3.00,-1.00
-2.00,+0.00,-1.00,-3.00,+0.00,-1.00,-1.00,+0.00,+7.00,+6.00,+4.00,-8.00,-2.00,+0.00,+0.00,+3.00
-6.00,+4.00,-4.00,-1.00,-6.00,-5.00,+0.00,-4.00,-7.00,-4.00,+2.00,+3.00,+8.00,+1.00,+0.00,-4.00
+0.00,+10.00,+2.00,+3.00,-5.00,-2.00,+1.00,-3.00,-2.00,-1.00,+5.00,+1.00,+1.00,+0.00,+1.00,-1.00
-2.00,-11.00,+1.00,+1.00,-2.00,-2.00,+0.00,-1.00,-2.00,+0.00,-2.00,+1.00,+2.00,+0.00,+0.00,+3.00
+1.00,+0.00,-1.00,+3.00,-1.00,+0.00,+0.00,-1.00,-1.00,-1.00,-4.00,+0.00,+0.00,-2.00,+0.00,+1.00
-1.00,+2.00,-3.00,-4.00,-1.00,+4.00,+0.00,-2.00,-10.00,-2.00,-2.00,+1.00,+0.00,-4.00,-4.00,-4.00
+1.00,-4.00,-2.00,-2.00,+2.00,-2.00,-2.00,+0.00,+13.00,+5.00,-2.00,-2.00,-2.00,+0.00,+0.00,+2.00
-6.00,+3.00,+3.00,+3.00,-2.00,+1.00,-1.00,-1.00,+5.00,-3.00,-5.00,+0.00,+3.00,+2.00,-3.00,-4.00
+3.00,+2.00,-3.00,-4.00,-4.00,-2.00,-1.00,-1.00,+2.00,+6.00,-4.00,-2.00,-5.00,+2.00,+0.00,+9.00
-2.00,-1.00,+4.00,+2.00,+3.00,+3.00,-1.00,+1.00,-3.00,+12.00,+7.00,+3.00,+3.00,+1.00,-2.00,-2.00
+1.00,+2.00,-8.00,-4.00,-2.00,+1.00,+1.00,+0.00,-20.00,-12.00,-7.00,-2.00,-4.00,-2.00,-3.00,-5.00
-3.00,+1.00,-3.00,-2.00,-6.00,-4.00,-2.00,-3.00,+5.00,-2.00,+1.00,+2.00,+4.00,-3.00,-1.00,+1.00
-3.00,-4.00,-1.00,-3.00,-1.00,-3.00,-2.00,-3.00,-9.00,-11.00,+2.00,-4.00,-4.00,-4.00,-3.00,-5.00
-1.00,+2.00,+0.00,+0.00,+6.00,-2.00,-3.00,+0.00,-3.00,-1.00,-15.00,+3.00,+3.00,-2.00,-1.00,+0.00
-2.00,-7.00,+5.00,+0.00,-19.00,-4.00,-1.00,+1.00,+4.00,+5.00,+2.00,-9.00,-10.00,-1.00,+0.00,+1.00
+0.00,+0.00,+0.00,+2.00,+30.00,+5.00,+1.00,+0.00,+5.00,+2.00,-2.00,-3.00,+0.00,-2.00,-1.00,-1.00
+1.00,-3.00,-9.00,-7.00,-5.00,-3.00,-1.00,+1.00,+4.00,+2.00,+0.00,+7.00,+3.00,+1.00,-2.00,-4.00
+0.00,-2.00,-1.00,-1.00,+4.00,+3.00,+0.00,-1.00,-2.00,-4.00,+6.00,-10.00,-6.00,-2.00,-4.00,-2.00
+1.00,-3.00,+0.00,-2.00,-4.00,-3.00,-1.00,+1.00,-8.00,-1.00,-15.00,-8.00,-1.00,+0.00,-1.00,-2.00
-1.00,+1.00,-2.00,+0.00,-10.00,-4.00,-3.00,-2.00,-8.00,-14.00,-8.00,-4.00,+0.00,-1.00,+1.00,+0.00
-2.00,+2.00,+5.00,+5.00,+3.00,+3.00,-1.00,-2.00,+3.00,+4.00,-1.00,+1.00,+0.00,+0.00,+1.00,+0.00
+2.00,+9.00,-2.00,-1.00,-1.00,+0.00,+0.00,-4.00,-5.00,-5.00,+1.00,+4.00,+2.00,-1.00,-1.00,+0.00
+0.00,-5.00,+2.00,+1.00,+5.00,-1.00,+0.00,+2.00,+3.00,+3.00,+5.00,+5.00,-2.00,-3.00,-2.00,+0.00
+12.00,+5.00,+1.00,+0.00,-6.00,+0.00,+1.00,+9.00,-2.00,+3.00,+2.00,+0.00,-2.00,+0.00,-3.00,-4.00
-1.00,+5.00,-1.00,-1.00,+3.00,+0.00,-1.00,-4.00,-1.00,-5.00,-5.00,-2.00,-2.00,-1.00,-3.00,-4.00
-3.00,-5.00,+0.00,+1.00,-7.00,+0.00,+0.00,+1.00,-4.00,-1.00,+2.00,+1.00,-2.00,-2.00,-1.00,+0.00
-3.00,-1.00,-1.00,+3.00,+5.00,-1.00,-2.00,-2.00,-1.00,-4.00,+0.00,-2.00,-3.00,-4.00,-1.00,+1.00
-1.00,+1.00,+2.00,+2.00,-2.00,+0.00,+0.00,-7.00,+2.00,+3.00,+1.00,+1.00,+3.00,-2.00,-1.00,+1.00
+2.00,-5.00,-6.00,-6.00,-7.00,-2.00,+0.00,+2.00,+0.00,-6.00,-5.00,-6.00,-5.00,-1.00,-3.00,-4.00
-3.00,-3.00,-2.00,-2.00,+1.00,+0.00,+0.00,-2.00,+1.00,+4.00,+11.00,+1.00,+0.00,+0.00,+1.00,+0.00
+8.00,+4.00,-1.00,+0.00,+5.00,-1.00,-3.00,+2.00,+7.00,+3.00,-3.00,-2.00,+2.00,-2.00,-1.00,-1.00
-13.00,-6.00,-4.00,-6.00,-5.00,-2.00,-2.00,-5.00,-20.00,-5.00,-2.00,-2.00,-1.00,+0.00,-1.00,-1.00
+0.00,+6.00,+6.00,+4.00,+0.00,+0.00,-2.00,+1.00,+15.00,+2.00,-1.00,+0.00,-2.00,-2.00,+0.00,+1.00
-11.00,-23.00,-11.00,-5.00,-2.00,-4.00,-3.00,-2.00,-2.00,-3.00,+0.00,+3.00,-2.00,-2.00,-2.00,-1.00
+3.00,+11.00,-2.00,-2.00,+3.00,-1.00,-1.00,-4.00,+13.00,+0.00,+7.00,+5.00,+2.00,+0.00,+1.00,+5.00
+0.00,+12.00,+2.00,-1.00,-8.00,-1.00,+0.00,-1.00,-15.00,-3.00,-3.00,-6.00,-3.00,-3.00,+1.00,-2.00
+1.00,-4.00,+0.00,+1.00,-2.00,-1.00,-2.00,-3.00,+7.00,+7.00,+2.00,-1.00,-2.00,-3.00,+2.00,+1.00
+0.00,-1.00,-1.00,-2.00,-16.00,-5.00,-4.00,+0.00,-8.00,-13.00,-12.00,-3.00,+0.00,-1.00,-2.00,-2.00
+0.00,-9.00,+3.00,+3.00,+10.00,+6.00,+0.00,+0.00,+3.00,-1.00,+5.00,+3.00,+1.00,+1.00,-1.00,-3.00
+0.00,-1.00,-2.00,-3.00,-1.00,-1.00,+0.00,+0.00,+2.00,+0.00,+1.00,+6.00,+4.00,+1.00,-1.00,-3.00
-5.00,+0.00,-4.00,-2.00,+4.00,+4.00,-1.00,-1.00,-3.00,-2.00,+3.00,-5.00,-3.00,+1.00,-2.00,-3.00
+0.00,+3.00,+0.00,+3.00,+9.00,+1.00,-1.00,-3.00,+0.00,+0.00,+2.00,-3.00,+11.00,+3.00,-1.00,-5.00
-2.00,-5.00,+0.00,-1.00,-6.00,-1.00,+0.00,+1.00,-5.00,-5.00,-5.00,-5.00,-11.00,+1.00,-2.00,+0.00
+0.00,+1.00,-3.00,+0.00,-6.00,-4.00,-2.00,-2.00,+8.00,+2.00,-1.00,-5.00,-4.00,-1.00,-2.00,+0.00
+9.00,-1.00,+2.00,+1.00,+5.00,-1.00,+2.00,+5.00,-1.00,+0.00,-1.00,+2.00,+1.00,+0.00,-1.00,-1.00
-6.00,-9.00,-2.00,-4.00,-9.00,-4.00,-1.00,-1.00,+2.00,+1.00,-4.00,+3.00,-3.00,-4.00,-1.00,-3.00
-5.00,+5.00,+0.00,-1.00,+0.00,-2.00,-2.00,-1.00,-6.00,-2.00,-5.00,+1.00,+3.00,+0.00,-3.00,-5.00
+0.00,-5.00,-3.00,-1.00,+0.00,+0.00,+0.00,-1.00,+3.00,-2.00,-6.00,+1.00,+4.00,-1.00,+0.00,-2.00
-1.00,+11.00,-1.00,-2.00,-6.00,-2.00,-1.00,+5.00,-7.00,-6.00,-7.00,+2.00,-2.00,+0.00,+0.00,-2.00
+2.00,-3.00,+3.00,+3.00,+6.00,+3.00,+1.00,-4.00,-2.00,+4.00,+1.00,-1.00,-4.00,-2.00,-2.00,-3.00
-8.00,-10.00,+2.00,+2.00,+0.00,+0.00,+0.00,+1.00,-6.00,+0.00,+2.00,-2.00,+0.00,-1.00,+1.00,-1.00
-6.00,-10.00,-6.00,-6.00,-2.00,+1.00,+1.00,-2.00,+3.00,-1.00,+4.00,-3.00,-2.00,-1.00,+0.00,+2.00
-4.00,+0.00,-1.00,-1.00,-5.00,-4.00,-1.00,-2.00,-7.00,-3.00,+0.00,-2.00,+1.00,-1.00,-3.00,-1.00
+4.00,+11.00,+2.00,+4.00,+6.00,+2.00,+0.00,-1.00,+5.00,-1.00,+1.00,-4.00,-5.00,-2.00,+0.00,+1.00
-1.00,-1.00,-2.00,-1.00,+2.00,+2.00,+0.00,+1.00,+6.00,-1.00,-3.00,+1.00,+2.00,-3.00,-1.00,-1.00
+0.00,+0.00,+1.00,+1.00,-5.00,+0.00,-3.00,-1.00,-8.00,+8.00,+3.00,-1.00,+0.00,+0.00,+0.00,+3.00
-4.00,-2.00,+3.00,+0.00,+0.00,+0.00,-1.00,-3.00,-1.00,-7.00,-6.00,-4.00,-3.00,-2.00,-1.00,+1.00
-2.00,-1.00,-2.00,-3.00,+3.00,-2.00,-1.00,+1.00,-5.00,-3.00,-1.00,-3.00,+2.00,+0.00,-1.00,+0.00
-2.00,-5.00,-4.00,+0.00,-1.00,-6.00,-2.00,-4.00,+4.00,-3.00,+2.00,-1.00,+0.00,-2.00,-3.00,-3.00
-2.00,+5.00,-1.00,+2.00,+0.00,-4.00,-1.00,-3.00,+4.00,-3.00,-1.00,-2.00,-5.00,-1.00,+0.00,-1.00
-2.00,-5.00,+6.00,+3.00,+2.00,-1.00,+0.00,-1.00,-1.00,+1.00,+1.00,+2.00,-1.00,+0.00,-2.00,+0.00
+4.00,-5.00,-6.00,-2.00,-1.00,+0.00,-1.00,+1.00,+2.00,-3.00,-1.00,-1.00,-3.00,+2.00,-2.00,-3.00
+3.00,+19.00,+3.00,-2.00,-2.00,-3.00,+0.00,-2.00,-2.00,-1.00,+4.00,+2.00,-1.00,+2.00,+1.00,-2.00
-2.00,+4.00,+1.00,-1.00,-4.00,+0.00,-2.00,+0.00,-2.00,-2.00,+7.00,+2.00,-2.00,+1.00,-1.00,-3.00
-16.00,+1.00,-6.00,-6.00,+4.00,-1.00,-4.00,-14.00,-10.00,-1.00,-9.00,+2.00,+0.00,+0.00,+1.00,-4.00
-12.00,-4.00,-5.00,-7.00,-6.00,-5.00,-4.00,+0.00,-2.00,+2.00,-5.00,+1.00,-1.00,+0.00,+1.00,+3.00
+3.00,+0.00,+1.00,+2.00,+2.00,+0.00,+0.00,+1.00,+2.00,-10.00,-10.00,-3.00,+0.00,+2.00,+1.00,+0.00
-2.00,+1.00,+1.00,+1.00,-22.00,-4.00,+2.00,+1.00,+0.00,-6.00,-5.00,+1.00,+2.00,+1.00,-1.00,+2.00
+7.00,+5.00,+3.00,+5.00,+31.00,+3.00,-1.00,-1.00,-1.00,+3.00,+6.00,+2.00,-3.00,-2.00,-1.00,+0.00
+1.00,-7.00,-2.00,+0.00,+3.00,+2.00,-1.00,+1.00,+3.00,-4.00,-1.00,+8.00,+2.00,-1.00,+0.00,-1.00
-4.00,-6.00,-6.00,-5.00,+2.00,+1.00,-5.00,-6.00,-4.00,+9.00,-1.00,-6.00,-5.00,+0.00,+0.00,+2.00
+4.00,-6.00,+1.00,-2.00,-4.00,-1.00,+0.00,+0.00,+0.00,-1.00,+0.00,+0.00,-1.00,-1.00,-4.00,-2.00
+7.00,-2.00,-3.00,+1.00,-12.00,-1.00,+1.00,+1.00,-2.00,-5.00,-2.00,-5.00,+0.00,-3.00,-2.00,-1.00
+2.00,+2.00,+0.00,-2.00,-1.00,+0.00,+1.00,+0.00,-8.00,-3.00,-1.00,-2.00,+0.00,+0.00,-1.00,-4.00
-3.00,-10.00,-3.00,-2.00,+0.00,-2.00,+1.00,+0.00,-5.00,-2.00,-2.00,+1.00,+2.00,-1.00,+0.00,-1.00
-3.00,-1.00,-6.00,-5.00,+4.00,+1.00,+0.00,+2.00,+9.00,+4.00,-2.00,-1.00,-4.00,+0.00,-1.00,-1.00
-4.00,-8.00,+1.00,+0.00,-8.00,-2.00,-2.00,+1.00,-29.00,-4.00,-4.00,-2.00,+0.00,+1.00,+0.00,-4.00
+2.00,+5.00,+2.00,+1.00,+4.00,+1.00,-1.00,+1.00,+27.00,+2.00,+0.00,-2.00,-3.00,+1.00,+1.00,+5.00
-4.00,+0.00,+6.00,+0.00,-2.00,-2.00,+0.00,-3.00,-4.00,-3.00,-3.00,-3.00,+0.00,+4.00,-2.00,+0.00
-1.00,-10.00,-4.00,-3.00,+3.00,-2.00,-2.00,-1.00,+3.00,+3.00,+2.00,-3.00,-3.00,+1.00,-4.00,+0.00
+1.00,-3.00,-9.00,-8.00,-6.00,-4.00,-2.00,+0.00,+8.00,-4.00,-2.00,-1.00,-2.00,+1.00,+0.00,-2.00
+0.00,+6.00,+4.00,+1.00,-4.00,-4.00,+0.00,+0.00,-15.00,+4.00,+3.00,+0.00,-2.00,-2.00,-1.00,-2.00
+6.00,-4.00,-2.00,-1.00,-4.00,+0.00,-2.00,+1.00,-4.00,-3.00,-2.00,+0.00,+1.00,-5.00,-4.00,-2.00
+2.00,+5.00,+5.00,+5.00,+10.00,+4.00,+2.00,-4.00,+0.00,-4.00,-1.00,-1.00,+1.00,-6.00,-2.00,+0.00
+9.00,+3.00,+2.00,-1.00,-5.00,+1.00,+1.00,+4.00,+2.00,-1.00,+0.00,-1.00,-1.00,-4.00,-3.00,-3.00
-1.00,-7.00,-5.00,-3.00,-1.00,+3.00,-1.00,-2.00,-9.00,-4.00,+1.00,+2.00,+1.00,-5.00,+0.00,+1.00
-16.00,+1.00,+3.00,-2.00,-4.00,-4.00,-1.00,-2.00,-1.00,-1.00,-2.00,-4.00,-5.00,-6.00,-2.00,+0.00
+6.00,-2.00,-8.00,-4.00,-1.00,-1.00,+0.00,+1.00,+5.00,+1.00,-3.00,-2.00,+1.00,-2.00,+3.00,+0.00
-3.00,+1.00,-3.00,-3.00,-10.00,-2.00,-1.00,+0.00,-7.00,-6.00,+7.00,-1.00,+0.00,-3.00,+1.00,-4.00
+1.00,+1.00,-1.00,+0.00,-4.00,-4.00,-1.00,+0.00,+19.00,+1.00,-7.00,-5.00,-2.00,+0.00,+1.00,+2.00
+4.00,-8.00,-5.00,-3.00,-12.00,-4.00,-1.00,+0.00,-10.00,-3.00,+1.00,+4.00,+2.00,+1.00,+0.00,-4.00
-9.00,-16.00,+1.00,+2.00,+24.00,+1.00,-1.00,+1.00,+2.00,+0.00,-1.00,+2.00,-3.00,+2.00,+1.00,-1.00
-2.00,+1.00,+2.00,+3.00,+0.00,+0.00,+0.00,-1.00,+6.00,+4.00,+4.00,+6.00,+9.00,+2.00,-4.00,+1.00
+3.00,+4.00,+5.00,+2.00,+6.00,+3.00,-1.00,-1.00,-6.00,-8.00,-5.00,-2.00,+1.00,+0.00,-3.00,-2.00
-3.00,+3.00,+0.00,+5.00,-7.00,+3.00,+0.00,+0.00,-11.00,+5.00,+1.00,-5.00,-4.00,-4.00,+0.00,-4.00
-2.00,+1.00,-5.00,-2.00,-7.00,-1.00,-1.00,-3.00,+4.00,-6.00,-1.00,-5.00,-2.00,-1.00,+1.00,-1.00
-2.00,-9.00,-11.00,-11.00,-4.00,-1.00,-1.00,+1.00,+6.00,+3.00,+0.00,+1.00,+1.00,-2.00,+0.00,-2.00
-1.00,+3.00,+0.00,-2.00,-2.00,-3.00,+1.00,-4.00,-15.00,+6.00,+0.00,-4.00,-3.00,-3.00,-1.00,-4.00
-1.00,+0.00,-1.00,+1.00,+2.00,-2.00,+2.00,-2.00,+4.00,-8.00,-5.00,-1.00,+1.00,+0.00,+1.00,+1.00
-2.00,+1.00,+1.00,-2.00,-3.00,+1.00,-2.00,+0.00,-11.00,-5.00,-6.00,+0.00,-2.00,-2.00,+0.00,-2.00
-2.00,-1.00,+3.00,+4.00,+2.00,-1.00,+0.00,-2.00,+6.00,-2.00,-1.00,-5.00,-4.00,-2.00,-2.00,+1.00
+4.00,+4.00,+2.00,+2.00,-6.00,-2.00,+0.00,+1.00,-5.00,+0.00,-8.00,-6.00,-4.00,-1.00,-3.00,-3.00
+1.00,-3.00,-4.00,-2.00,+8.00,+0.00,-1.00,-2.00,-2.00,+0.00,+1.00,-2.00,-2.00,-1.00,+0.00,-2.00
-2.00,-1.00,+0.00,-3.00,-1.00,-3.00,-1.00,+1.00,+12.00,+4.00,-1.00,+3.00,+3.00,-6.00,-1.00,-2.00
-2.00,+5.00,+0.00,+0.00,-5.00,+1.00,-2.00,-3.00,+1.00,+1.00,-7.00,-7.00,-10.00,-4.00,-1.00,-1.00
+0.00,-2.00,+1.00,+0.00,-1.00,-3.00,-1.00,-5.00,-2.00,+0.00,+4.00,-1.00,-2.00,-4.00,+0.00,-1.00
-3.00,-10.00,-2.00,-1.00,+3.00,-2.00,+0.00,+0.00,-2.00,+4.00,-1.00,+2.00,+2.00,+0.00,-1.00,-2.00
-17.00,+4.00,+0.00,-1.00,-4.00,-4.00,-1.00,-11.00,-9.00,-3.00,-5.00,-2.00,+1.00,+1.00,-3.00,-3.00
-2.00,-5.00,+1.00,+1.00,+1.00,-2.00,+0.00,-2.00,+5.00,+6.00,+0.00,+1.00,+0.00,+0.00,+0.00,+1.00
-3.00,-11.00,+1.00,+0.00,+0.00,-1.00,+1.00,-1.00,-2.00,-4.00,-1.00,+0.00,-1.00,-2.00,-1.00,-1.00
-2.00,+0.00,-2.00,+1.00,+2.00,+0.00,+0.00,+0.00,+4.00,+0.00,+0.00,+4.00,-1.00,+0.00,-3.00,+1.00
+5.00,+0.00,+4.00,-1.00,-4.00,-1.00,-1.00,+2.00,-11.00,-2.00,+1.00,-3.00,+0.00,+3.00,+0.00,-2.00
+1.00,+6.00,-5.00,-5.00,-4.00,-2.00,-2.00,+1.00,+10.00,-1.00,+0.00,+0.00,+0.00,+3.00,+0.00,-2.00
-10.00,-10.00,-4.00,-3.00,+0.00,-1.00,-2.00,-2.00,-14.00,-1.00,+3.00,+0.00,+0.00,+3.00,+0.00,-3.00
+1.00,+2.00,-5.00,-2.00,-3.00,+0.00,-1.00,+1.00,+5.00,-3.00,-10.00,-2.00,+0.00,+1.00,-2.00,+2.00
+1.00,+3.00,-1.00,+3.00,+0.00,+1.00,-2.00,+2.00,-1.00,-2.00,-3.00,+0.00,-2.00,-1.00,-6.00,+2.00
+0.00,-5.00,+0.00,+4.00,+2.00,-2.00,+0.00,+0.00,-1.00,-3.00,-4.00,-1.00,-1.00,+0.00,-5.00,-1.00
+6.00,+10.00,-4.00,-4.00,-3.00,+0.00,-2.00,+3.00,+7.00,-4.00,+0.00,+2.00,+0.00,+1.00,-3.00,-2.00
-1.00,-3.00,+1.00,+1.00,+0.00,+1.00,+0.00,-3.00,+0.00,+2.00,+9.00,+2.00,-1.00,-3.00,-3.00,-2.00
+1.00,+6.00,-3.00,-4.00,-3.00,-2.00,-1.00,-1.00,-12.00,-3.00,-4.00,-5.00,+0.00,-2.00,-1.00,-4.00
-6.00,+1.00,+2.00,+2.00,+0.00,-1.00,+2.00,-3.00,+1.00,-2.00,+1.00,-3.00,-1.00,-3.00,+3.00,+0.00
-1.00,+0.00,+2.00,+5.00,+6.00,+1.00,+0.00,-3.00,+5.00,+6.00,+2.00,+0.00,+2.00,-2.00,+1.00,-3.00
+0.00,-4.00,-2.00,-3.00,-1.00,-2.00,-1.00,+2.00,+0.00,-10.00,-2.00,-6.00,-5.00,+0.00,+1.00,-1.00
-1.00,-1.00,+0.00,+3.00,+1.00,-2.00,-1.00,+1.00,-8.00,+1.00,+0.00,-4.00,-2.00,+6.00,-1.00,+0.00
+1.00,-5.00,-3.00,+0.00,-1.00,-2.00,+0.00,+0.00,-9.00,-3.00,-1.00,-2.00,-1.00,+2.00,+0.00,-1.00
+1.00,+2.00,+2.00,-1.00,-3.00,+2.00,+0.00,+0.00,+17.00,-3.00,-2.00,-3.00,-2.00,-1.00,-1.00,+2.00
-3.00,-6.00,+1.00,+1.00,+0.00,+2.00,-1.00,+1.00,+2.00,+0.00,+0.00,+1.00,+2.00,-2.00,+0.00,-1.00
+2.00,-5.00,+0.00,+0.00,-2.00,+0.00,+1.00,-1.00,-4.00,-3.00,-2.00,+0.00,+0.00,-6.00,-1.00,-1.00
-5.00,-5.00,+1.00,-5.00,-3.00,+0.00,-1.00,+0.00,-2.00,-1.00,+0.00,+0.00,+0.00,-4.00,-1.00,-1.00
-5.00,-7.00,-2.00,-5.00,-2.00,-1.00,+0.00,-2.00,-9.00,-5.00,-3.00,-1.00,+0.00,+1.00,-2.00,+1.00
+0.00,+0.00,-1.00,-3.00,+1.00,-2.00,-3.00,-3.00,+1.00,+1.00,-3.00,+0.00,+1.00,+1.00,+3.00,+3.00
+0.00,-3.00,-7.00,-5.00,-4.00,-2.00,+0.00,-1.00,+2.00,-1.00,-2.00,-1.00,-1.00,+0.00,-2.00,-2.00
-1.00,+1.00,+1.00,-1.00,-1.00,-2.00,-1.00,-2.00,-3.00,-1.00,-4.00,+0.00,-4.00,+0.00,-4.00,+0.00
+5.00,+7.00,+2.00,+2.00,+3.00,+0.00,+1.00,+1.00,-6.00,-4.00,-5.00,-4.00,-5.00,+0.00,-2.00,-4.00
+1.00,+4.00,-2.00,+3.00,+1.00,-2.00,-1.00,+0.00,+0.00,+6.00,+0.00,+0.00,+0.00,+1.00,-1.00,-2.00
+1.00,-11.00,-5.00,-7.00,-4.00,-3.00,-2.00,+0.00,+0.00,+0.00,-1.00,-1.00,-1.00,-1.00,+0.00,+1.00
-1.00,+6.00,-6.00,-3.00,-2.00,-5.00,-4.00,-4.00,+2.00,-3.00,-7.00,-1.00,+0.00,-3.00,-2.00,+3.00
-6.00,-1.00,-3.00,+1.00,-1.00,+0.00,-2.00,+0.00,-2.00,-4.00,+1.00,-2.00,-4.00,-3.00,-1.00,-1.00
+9.00,+1.00,-8.00,-9.00,-5.00,-1.00,+0.00,+3.00,-11.00,-6.00,-5.00,-3.00,-3.00,-3.00,-1.00,-4.00
-3.00,+2.00,-2.00,+2.00,+5.00,-1.00,+0.00,+2.00,+14.00,-1.00,-3.00,+2.00,+3.00,-1.00,-1.00,-1.00
+7.00,+9.00,+6.00,+5.00,+3.00,+5.00,+0.00,+2.00,-6.00,-4.00,+1.00,+2.00,-3.00,+2.00,-1.00,-5.00
-5.00,-4.00,+0.00,-2.00,-3.00,-3.00,-2.00,-2.00,-3.00,+0.00,-1.00,+0.00,-3.00,-3.00,-3.00,-1.00
-1.00,+1.00,-4.00,+1.00,-3.00,+0.00,-1.00,-3.00,-10.00,-2.00,+2.00,+0.00,-2.00,+0.00,-2.00,-2.00
+0.00,-2.00,+2.00,+0.00,+2.00,+2.00,-3.00,-3.00,+21.00,+3.00,+1.00,+0.00,-3.00,-4.00,+1.00,+0.00
-1.00,-2.00,-4.00,-5.00,-2.00,-1.00,-4.00,+0.00,+1.00,+4.00,+4.00,+6.00,+5.00,-3.00,-2.00,-1.00
+1.00,+1.00,-1.00,-1.00,-1.00,+0.00,-2.00,-2.00,+2.00,+0.00,+1.00,-2.00,+0.00,+0.00,-2.00,-2.00
-4.00,-6.00,-1.00,-7.00,-3.00,-5.00,-2.00,-2.00,+3.00,-1.00,+3.00,+0.00,-1.00,-2.00,-3.00,+0.00
+3.00,+7.00,+1.00,+1.00,-1.00,-3.00,-1.00,-2.00,-11.00,-7.00,-11.00,-5.00,-4.00,-3.00,-5.00,-1.00
-2.00,-2.00,+5.00,+6.00,+2.00,+3.00,+2.00,-1.00,+3.00,-2.00,-4.00,-8.00,-7.00,+0.00,-3.00,-2.00
+4.00,+3.00,+1.00,+3.00,-2.00,+5.00,+3.00,+4.00,-2.00,-3.00,-3.00,-2.00,-6.00,+1.00,-2.00,-2.00
-5.00,-7.00,-5.00,-4.00,-2.00,-3.00,+2.00,-1.00,+1.00,+1.00,+2.00,+1.00,+0.00,-1.00,-1.00,+3.00
-3.00,-1.00,-1.00,-3.00,-2.00,+1.00,+0.00,-3.00,-7.00,+5.00,+6.00,-1.00,+1.00,+2.00,+0.00,-1.00
-4.00,-1.00,+2.00,+0.00,+2.00,-2.00,-2.00,-6.00,-8.00,-5.00,-5.00,-4.00,-2.00,-1.00,-4.00,-2.00
-2.00,+0.00,-1.00,-1.00,-1.00,-5.00,+0.00,-3.00,-3.00,-1.00,-1.00,+0.00,+1.00,-1.00,-3.00,+0.00
-1.00,+3.00,+6.00,+4.00,+2.00,-2.00,-2.00,+0.00,+6.00,+4.00,+1.00,+0.00,-2.00,-1.00,-3.00,+1.00
+0.00,-2.00,-2.00,-1.00,-2.00,-1.00,+0.00,+0.00,+5.00,-2.00,+2.00,-1.00,+0.00,+0.00,-2.00,-1.00
+1.00,-2.00,-4.00,-1.00,-2.00,-2.00,-2.00,-2.00,-3.00,-1.00,+1.00,+0.00,+1.00,+0.00,+0.00,+0.00
+2.00,-2.00,-2.00,-1.00,-2.00,-1.00,-1.00,-5.00,-5.00,+0.00,-1.00,-1.00,+2.00,+0.00,+1.00,-1.00
-1.00,+4.00,-2.00,+2.00,+1.00,+1.00,+1.00,+0.00,+1.00,-6.00,-5.00,-2.00,+1.00,+1.00,+1.00,-2.00
-1.00,-3.00,-3.00,-6.00,-2.00,-3.00,+0.00,-3.00,-8.00,-3.00,-2.00,+1.00,-3.00,+3.00,+0.00,-4.00
-2.00,-5.00,-7.00,-8.00,-7.00,-4.00,-1.00,+0.00,+0.00,+6.00,+10.00,+2.00,-1.00,+1.00,+1.00,-2.00
-1.00,+0.00,+1.00,-2.00,+0.00,+0.00,+0.00,+1.00,-2.00,-8.00,-3.00,-4.00,-1.00,+0.00,-1.00,+1.00
-3.00,+6.00,-2.00,+4.00,+0.00,+0.00,-2.00,-1.00,-4.00,-2.00,-1.00,-4.00,-1.00,+0.00,-1.00,-4.00
+9.00,+6.00,+4.00,+5.00,+1.00,+2.00,+0.00,+0.00,-1.00,-1.00,-2.00,+2.00,-1.00,+1.00,+1.00,+1.00
-16.00,-13.00,-1.00,-1.00,-1.00,+1.00,-2.00,-6.00,-4.00,+7.00,+2.00,+2.00,+1.00,+4.00,+1.00,-3.00
+2.00,+5.00,-8.00,-4.00,-2.00,-3.00,-3.00,+1.00,+0.00,-2.00,+0.00,+2.00,+1.00,+0.00,+1.00,+0.00
+3.00,+4.00,+8.00,+4.00,+2.00,-1.00,+0.00,+0.00,+8.00,-4.00,-4.00,+0.00,-2.00,-6.00,-2.00,-1.00
-8.00,-9.00,-6.00,-5.00,-7.00,-3.00,-1.00,+3.00,-20.00,+2.00,+7.00,+0.00,-1.00,-7.00,-1.00,-3.00
+7.00,-1.00,+1.00,+1.00,-1.00,-3.00,-1.00,+1.00,+12.00,-1.00,-3.00,-5.00,-3.00,-1.00,+1.00,+0.00
-2.00,-3.00,+5.00,+4.00,+2.00,+0.00,-3.00,+0.00,-3.00,+5.00,+1.00,-3.00,-3.00,+0.00,+2.00,-1.00
-1.00,-1.00,+2.00,+2.00,+1.00,+2.00,-3.00,-2.00,-9.00,-2.00,-3.00,-1.00,-2.00,+1.00,-2.00,-6.00
-1.00,+5.00,+1.00,+3.00,-1.00,+2.00,-3.00,-1.00,+12.00,+3.00,+4.00,+2.00,-2.00,+0.00,+0.00,+3.00
-2.00,-3.00,+5.00,-4.00,+0.00,+2.00,-2.00,+0.00,-9.00,-3.00,-2.00,+2.00,+0.00,-3.00,-4.00,-2.00
-4.00,-3.00,-12.00,-7.00,-4.00,+0.00,-2.00,+0.00,+4.00,-7.00,-6.00,-5.00,+2.00,-2.00,-1.00,+3.00
-3.00,-5.00,-1.00,-3.00,-4.00,-4.00,+1.00,-1.00,-1.00,+16.00,+9.00,+3.00,+5.00,-1.00,-1.00,+3.00
-1.00,-2.00,+0.00,+0.00,+3.00,+0.00,+1.00,-2.00,+1.00,-18.00,-4.00,-3.00,-2.00,-4.00,-1.00,+1.00
+0.00,+1.00,-4.00,-2.00,-1.00,+0.00,+2.00,+0.00,-5.00,-9.00,-12.00,-5.00,+1.00,-4.00,+2.00,+0.00
+2.00,+3.00,+3.00,+2.00,+1.00,+0.00,+2.00,-1.00,-1.00,-3.00,-2.00,-2.00,-3.00,-4.00,-1.00,-3.00
-4.00,-1.00,+3.00,+1.00,-1.00,+0.00,+1.00,+0.00,-2.00,-5.00,-5.00,-2.00,-4.00,-3.00,+1.00,-3.00
-1.00,-1.00,-2.00,+0.00,-1.00,-2.00,+0.00,+6.00,-3.00,+10.00,+7.00,+0.00,+1.00,+0.00,+1.00,+1.00
+3.00,+1.00,-2.00,+3.00,+2.00,+0.00,-2.00,-1.00,+1.00,+0.00,-1.00,-2.00,+0.00,+0.00,-2.00,+1.00
-1.00,-2.00,+0.00,-3.00,+0.00,+2.00,+0.00,+1.00,+2.00,-4.00,+0.00,+0.00,+0.00,+1.00,-2.00,-1.00
-3.00,-8.00,-4.00,-5.00,-1.00,+0.00,-1.00,-3.00,+0.00,+2.00,+3.00,+0.00,+0.00,+1.00,-4.00,-3.00
-1.00,+6.00,+3.00,+2.00,+2.00,+5.00,-2.00,-3.00,-1.00,-1.00,-2.00,-1.00,-3.00,+1.00,-3.00,-3.00
+1.00,-1.00,-1.00,+2.00,-2.00,+1.00,+2.00,+3.00,+4.00,-1.00,+5.00,-1.00,-3.00,+0.00,-1.00,+2.00
+2.00,-3.00,-3.00,-3.00,-3.00,-2.00,+1.00,+0.00,-4.00,+4.00,+1.00,+2.00,-2.00,-4.00,-2.00,+0.00
-3.00,-7.00,-5.00,-6.00,-4.00,-4.00,-3.00,-1.00,+1.00,-2.00,+2.00,-2.00,-1.00,-4.00,-4.00,-1.00
+2.00,+1.00,+2.00,-1.00,-1.00,-3.00,+0.00,-2.00,+2.00,-4.00,-8.00,-5.00,+1.00,-4.00,-1.00,-2.00
-2.00,-2.00,+0.00,+0.00,+0.00,-4.00,+0.00,+1.00,+1.00,-5.00,-9.00,-1.00,-2.00,-3.00,-2.00,-4.00
-4.00,-10.00,+1.00,+2.00,-2.00,-2.00,-1.00,-1.00,+0.00,+4.00,+2.00,+3.00,-4.00,-3.00,+1.00,-3.00
+2.00,+8.00,+1.00,+0.00,-1.00,+0.00,-3.00,+2.00,+8.00,-2.00,-4.00,-1.00,-4.00,-2.00,+0.00,+1.00
-1.00,-1.00,-3.00,+1.00,-2.00,-1.00,-4.00,-2.00,-7.00,-1.00,-2.00,+1.00,-1.00,+2.00,-1.00,-2.00
+8.00,+9.00,+2.00,+2.00,+2.00,+1.00,-1.00,+1.00,-8.00,-1.00,-1.00,+1.00,+0.00,+0.00,-3.00,-1.00
-5.00,+1.00,+1.00,+1.00,-1.00,+0.00,-2.00,-3.00,-3.00,-2.00,-8.00,-1.00,+3.00,+2.00,-1.00,-3.00
+3.00,-2.00,-6.00,-4.00,-2.00,+0.00,+0.00,-1.00,+2.00,-2.00,-5.00,+0.00,+0.00,+3.00,-1.00,-1.00
+0.00,-5.00,-2.00,-2.00,-1.00,-2.00,+1.00,-1.00,-5.00,-6.00,-7.00,-4.00,-4.00,-1.00,-2.00,-6.00
-4.00,-3.00,+0.00,+1.00,-1.00,-1.00,+1.00,-2.00,+9.00,+8.00,+1.00,+1.00,+1.00,+0.00,+5.00,+9.00
+0.00,-2.00,+0.00,-1.00,-2.00,-2.00,-2.00,-3.00,-5.00,-3.00,-1.00,+0.00,-1.00,-3.00,+2.00,-1.00
-3.00,-2.00,+0.00,+3.00,+0.00,+0.00,-4.00,-2.00,-1.00,+2.00,+1.00,-1.00,+0.00,-4.00,+1.00,+1.00
-3.00,+0.00,-1.00,+0.00,-2.00,-2.00,-2.00,-7.00,-4.00,+0.00,+4.00,+2.00,-1.00,-5.00,+1.00,-2.00
-1.00,-2.00,-5.00,-1.00,+1.00,+0.00,+0.00,+3.00,-6.00,-3.00,-5.00,-2.00,-6.00,-4.00,-2.00,-6.00
-9.00,+3.00,+0.00,-2.00,+0.00,-2.00,+2.00,-3.00,-3.00,+0.00,+7.00,+2.00,-2.00,+2.00,-5.00,-1.00
-2.00,-3.00,+2.00,-1.00,+1.00,+1.00,+4.00,+1.00,-4.00,-6.00,-9.00,-2.00,+0.00,+2.00,-3.00,-1.00
-2.00,+1.00,+0.00,-1.00,+0.00,+1.00,+0.00,+0.00,-6.00,+1.00,-11.00,-6.00,-1.00,-1.00,-3.00,-1.00
-2.00,+1.00,+0.00,-4.00,-6.00,-1.00,-2.00,-2.00,-3.00,-7.00,+0.00,+0.00,+0.00,-1.00,-2.00,-3.00
+3.00,-2.00,-2.00,-2.00,-1.00,+1.00,+0.00,+0.00,+2.00,+3.00,-1.00,-1.00,+0.00,-1.00,+0.00,+1.00
-3.00,-3.00,-1.00,+1.00,-1.00,+1.00,-1.00,-2.00,-6.00,-2.00,+0.00,-1.00,+0.00,-1.00,-1.00,-3.00
-1.00,+1.00,+3.00,+2.00,+1.00,+2.00,-1.00,+2.00,+0.00,+0.00,+6.00,+3.00,-1.00,-3.00,-2.00,-2.00
-3.00,-7.00,-3.00,-3.00,-2.00,+0.00,-1.00,-1.00,+3.00,+7.00,+6.00,-4.00,-2.00,-5.00,-3.00,+1.00
+4.00,+1.00,+1.00,+2.00,+0.00,-1.00,+0.00,-1.00,-2.00,+0.00,+0.00,+0.00,-1.00,-3.00,-2.00,+1.00
+2.00,+3.00,-1.00,-3.00,-2.00,-5.00,-1.00,+1.00,-3.00,+1.00,+3.00,-1.00,-1.00,+0.00,-3.00,-1.00
-1.00,-1.00,-1.00,-1.00,-3.00,-4.00,+0.00,-2.00,+1.00,-3.00,-6.00,-2.00,+0.00,+1.00,-2.00,-4.00
+0.00,+5.00,+2.00,+1.00,+2.00,-1.00,-1.00,+2.00,-6.00,-1.00,+1.00,+0.00,-1.00,+1.00,+0.00,+0.00
-3.00,+0.00,+0.00,+3.00,+2.00,+1.00,-2.00,-1.00,-1.00,-4.00,-2.00,-3.00,-1.00,-1.00,-2.00,-1.00
-1.00,-2.00,+1.00,-1.00,+1.00,-1.00,+0.00,-3.00,-6.00,-6.00,-2.00,-2.00,-4.00,-3.00,-1.00,-1.00
+0.00,-4.00,+2.00,+1.00,-2.00,-2.00,+1.00,-2.00,+10.00,+3.00,+2.00,-1.00,+0.00,-2.00,-3.00,-1.00
-2.00,-1.00,+0.00,+1.00,+2.00,-2.00,+0.00,-2.00,+3.00,+0.00,+1.00,+2.00,-1.00,-2.00,-3.00,+1.00
-1.00,+2.00,+0.00,+0.00,+2.00,-4.00,-2.00,-4.00,+1.00,-2.00,-2.00,-2.00,-1.00,+1.00,-3.00,-1.00
-1.00,+1.00,+2.00,+4.00,+3.00,+0.00,-1.00,-1.00,+2.00,-1.00,-2.00,-2.00,-2.00,+1.00,+2.00,+4.00
+1.00,+0.00,-5.00,-7.00,-3.00,+1.00,-2.00,+0.00,+2.00,+1.00,+1.00,+3.00,-3.00,+0.00,-3.00,+2.00
-2.00,+3.00,-1.00,-5.00,-5.00,-2.00,+0.00,+1.00,-11.00,-2.00,-3.00,-2.00,-1.00,-2.00,-3.00,-4.00
-1.00,-4.00,-3.00,+0.00,-3.00,+2.00,-3.00,+3.00,+6.00,-3.00,-9.00,-6.00,-3.00,-6.00,-1.00,-3.00
+0.00,+2.00,+3.00,-1.00,-5.00,-1.00,-2.00,-3.00,+1.00,-10.00,-17.00,-5.00,-1.00,-4.00,+1.00,-1.00
-4.00,-11.00,+1.00,+2.00,+0.00,-1.00,+0.00,-3.00,-3.00,-6.00,+10.00,+1.00,+2.00,+0.00,+4.00,+0.00
+1.00,+3.00,-8.00,-3.00,-1.00,-3.00,-1.00,-3.00,+0.00,-3.00,-6.00,-1.00,-1.00,+0.00,+0.00,-2.00
+2.00,+5.00,+3.00,+6.00,+3.00,-2.00,+1.00,+1.00,+0.00,+5.00,+3.00,+0.00,-3.00,+4.00,+1.00,+1.00
-13.00,-11.00,-3.00,-6.00,+2.00,+0.00,+2.00,-1.00,-6.00,-6.00,+3.00,+3.00,-5.00,+1.00,-1.00,-2.00
+3.00,+0.00,-9.00,-5.00,+0.00,+0.00,-1.00,+2.00,+5.00,+11.00,+3.00,+0.00,-3.00,+1.00,-1.00,-1.00
+4.00,-5.00,+2.00,-1.00,+1.00,-2.00,-2.00,-1.00,-10.00,-7.00,-8.00,-2.00,+1.00,+2.00,+1.00,-2.00
+0.00,+0.00,-1.00,-5.00,-4.00,-4.00,-3.00,-1.00,-6.00,-2.00,-1.00,-3.00,+1.00,+0.00,+1.00,+0.00
+2.00,+1.00,+1.00,+2.00,+0.00,-1.00,-1.00,+0.00,-16.00,+4.00,+1.00,-2.00,+4.00,+0.00,+0.00,-3.00
+0.00,+12.00,-1.00,-3.00,-3.00,-3.00,+0.00,-2.00,-3.00,-5.00,-5.00,+0.00,+2.00,-2.00,+1.00,-2.00
-5.00,-9.00,-8.00,-3.00,-5.00,-1.00,-3.00,-1.00,-5.00,+1.00,+2.00,-1.00,-2.00,-4.00,-3.00,+0.00
-4.00,+3.00,+0.00,-4.00,-3.00,+1.00,-2.00,-1.00,+18.00,-4.00,-5.00,-1.00,+0.00,-3.00,-2.00,-3.00
-4.00,-6.00,-2.00,-1.00,-2.00,+2.00,+0.00,+1.00,+2.00,+4.00,+11.00,+0.00,-3.00,-2.00,-1.00,-3.00
+3.00,+0.00,-2.00,+2.00,+1.00,+0.00,-1.00,-1.00,+1.00,-6.00,-16.00,-7.00,-4.00,-1.00,-2.00,-1.00
+1.00,-1.00,+2.00,+4.00,+0.00,-1.00,-1.00,+0.00,+1.00,-4.00,-4.00,+0.00,+1.00,-1.00,+0.00,-4.00
-2.00,+1.00,+4.00,+3.00,+2.00,-1.00,+0.00,-2.00,-11.00,+4.00,+2.00,+2.00,+0.00,+0.00,+0.00,+3.00
+3.00,-8.00,-5.00,-3.00,-5.00,-2.00,-2.00,-1.00,-3.00,-8.00,-2.00,-1.00,+0.00,-5.00,-5.00,-5.00
-8.00,+12.00,+3.00,-1.00,-1.00,-2.00,-4.00,+2.00,-1.00,-10.00,+1.00,-2.00,+1.00,-4.00,-2.00,+0.00
+2.00,-5.00,+2.00,-2.00,-2.00,-2.00,-3.00,-1.00,+11.00,+5.00,+6.00,-3.00,-3.00,-1.00,-2.00,+3.00
+3.00,+7.00,-1.00,-3.00,-1.00,-4.00,-1.00,+1.00,-14.00,-3.00,-3.00,+1.00,-1.00,+2.00,-2.00,+3.00
-1.00,+0.00,+3.00,+3.00,+2.00,-2.00,-1.00,-4.00,+8.00,+0.00,-5.00,-2.00,-1.00,+3.00,+0.00,+0.00
-1.00,-1.00,-7.00,-5.00,-2.00,+0.00,-1.00,-3.00,-10.00,+0.00,+0.00,-1.00,+0.00,+1.00,+0.00,-1.00
-1.00,+1.00,+4.00,+1.00,-2.00,+0.00,-1.00,+1.00,+7.00,+20.00,+16.00,+1.00,-2.00,-1.00,-3.00,-2.00
-4.00,-14.00,-9.00,-2.00,-1.00,-5.00,+0.00,-1.00,-6.00,-25.00,-17.00,-5.00,-3.00,-4.00,-3.00,-4.00
+5.00,+8.00,-4.00,-2.00,+1.00,-1.00,-1.00,-1.00,+5.00,+1.00,-7.00,-7.00,-4.00,-3.00,-1.00,+3.00
-4.00,-11.00,-4.00,-3.00,-2.00,+1.00,+0.00,-1.00,+0.00,+3.00,+8.00,+1.00,+2.00,+0.00,-3.00,-2.00
-13.00,-7.00,-1.00,+2.00,+3.00,+4.00,-1.00,-3.00,+0.00,-2.00,-7.00,-3.00,+0.00,+3.00,-2.00,+2.00
+10.00,+10.00,+2.00,-2.00,-2.00,+3.00,-1.00,-3.00,-1.00,+6.00,+6.00,+2.00,+3.00,+1.00,-2.00,-2.00
-1.00,+1.00,+0.00,-1.00,+1.00,-2.00,-7.00,-4.00,-1.00,+9.00,+7.00,+2.00,+3.00,-4.00,+1.00,-1.00
+5.00,-1.00,-1.00,-2.00,-1.00,+2.00,+2.00,+9.00,-5.00,-21.00,-19.00,-5.00,+3.00,+1.00,+3.00,+1.00
+3.00,+7.00,+4.00,+0.00,+4.00,+4.00,+6.00,+5.00,-4.00,-3.00,+1.00,-2.00,+0.00,-2.00,-2.00,-3.00
-9.00,-15.00,+3.00,+2.00,+2.00,-2.00,+1.00,+1.00,+9.00,-3.00,+16.00,+0.00,-3.00,-4.00,-4.00,+1.00
+14.00,+38.00,+5.00,+3.00,+1.00,+1.00,+2.00,+1.00,-25.00,-16.00,-17.00,-1.00,-2.00,+0.00,-3.00,-3.00
-3.00,-3.00,+2.00,+0.00,-3.00,-3.00,-4.00,-7.00,+39.00,+22.00,+9.00,+2.00,-3.00,-1.00,+1.00,+2.00
-11.00,-7.00,-7.00,-4.00,-7.00,-7.00,-10.00,-30.00,-16.00,-11.00,+0.00,+1.00,+0.00,+0.00,-3.00,-6.00
-1.00,-3.00,-7.00,-4.00,-5.00,+0.00,-3.00,-11.00,+3.00,+4.00,-4.00,+1.00,-1.00,+2.00,+6.00,-2.00
+9.00,-10.00,-1.00,-1.00,-2.00,+3.00,+11.00,+56.00,+1.00,+4.00,+8.00,+3.00,-2.00,+5.00,+24.00,+11.00
-3.00,-10.00,+5.00,+5.00,+2.00,+3.00,+1.00,+3.00,-16.00,-5.00,-7.00,-5.00,-7.00,-13.00,-22.00,-14.00
+12.00,+19.00,-2.00,-1.00,+1.00,+2.00,+2.00,+9.00,+10.00,+4.00,-4.00,-2.00,-1.00,-2.00,-5.00,-1.00
+0.00,+3.00,+1.00,-4.00,-1.00,-1.00,-5.00,-9.00,+12.00,+0.00,+0.00,+1.00,+2.00,-3.00,-8.00,+3.00
-13.00,-14.00,-3.00,-4.00,-4.00,-4.00,-8.00,-23.00,-5.00,-3.00,+3.00,+1.00,+1.00,+0.00,-4.00,-1.00
-1.00,+0.00,+0.00,+1.00,-2.00,-2.00,-5.00,-9.00,-16.00,+2.00,-4.00,-3.00,-1.00,+4.00,+11.00,+3.00
-5.00,-17.00,-5.00,-1.00,-1.00,-3.00,-3.00,+12.00,+6.00,-8.00,-4.00,-3.00,-1.00,+2.00,+6.00,+0.00
+2.00,+2.00,-2.00,+1.00,+1.00,+0.00,-1.00,+3.00,-12.00,-1.00,-2.00,-4.00,+1.00,+1.00,+1.00,-4.00
+3.00,+1.00,-2.00,+1.00,-1.00,-2.00,+2.00,-1.00,+13.00,-2.00,-1.00,-2.00,-2.00,-4.00,-8.00,-4.00
+0.00,+1.00,+4.00,+3.00,+2.00,+0.00,+2.00,+0.00,-19.00,-6.00,+1.00,+0.00,+2.00,+0.00,+1.00,-1.00
+8.00,+0.00,-1.00,-2.00,-3.00,+1.00,-3.00,-10.00,+5.00,+4.00,+4.00,+3.00,+0.00,-3.00,-3.00,+3.00
-30.00,-3.00,-4.00,-5.00,-3.00,+0.00,+1.00,+7.00,-9.00,+1.00,-2.00,+0.00,+0.00,+0.00,+3.00,-9.00
+3.00,-5.00,-3.00,-2.00,+0.00,+0.00,-3.00,-9.00,+8.00,+3.00,-3.00,-3.00,-1.00,-1.00,-3.00,+8.00
-6.00,-1.00,-2.00,-3.00,+0.00,+1.00,-2.00,-17.00,-14.00,-4.00,+2.00,-2.00,-4.00,-5.00,-6.00,-16.00
-10.00,-11.00,+1.00,+1.00,+3.00,+1.00,-2.00,+25.00,+7.00,-2.00,-2.00,-6.00,-4.00,-4.00,+0.00,+1.00
+20.00,+19.00,+2.00,-6.00,-7.00,+2.00,+5.00,-23.00,-3.00,+1.00,+3.00,-1.00,-4.00,+1.00,+12.00,+5.00
+13.00,+14.00,+6.00,+5.00,+3.00,+1.00,+2.00,+8.00,+11.00,+5.00,-6.00,-1.00,-4.00,-1.00,+2.00,+4.00
-13.00,-4.00,+0.00,+1.00,-1.00,-2.00,-1.00,-11.00,-26.00,-18.00,-4.00,-3.00,-4.00,-5.00,-17.00,-6.00
-11.00,-9.00,-8.00,-6.00,-7.00,-7.00,-6.00,-43.00,+25.00,+4.00,+4.00,+2.00,+4.00,+4.00,+3.00,+1.00
-24.00,-18.00,-6.00,+2.00,+0.00,-8.00,-12.00,+28.00,+2.00,-4.00,-1.00,+0.00,+2.00,+0.00,-1.00,+11.00
+37.00,+0.00,-4.00,-4.00,+4.00,+1.00,+5.00,+31.00,+1.00,-2.00,-2.00,-3.00,-1.00,+3.00,+1.00,-5.00
-4.00,-8.00,+2.00,+4.00,+6.00,+2.00,+4.00,-4.00,-3.00,+6.00,+7.00,-1.00,+0.00,-10.00,-4.00,-18.00
-22.00,+10.00,+3.00,+4.00,+2.00,+4.00,+7.00,+1.00,-6.00,-1.00,-6.00,+0.00,-4.00,-9.00,-35.00,-31.00
+1.00,+0.00,-1.00,+1.00,-7.00,+5.00,-4.00,-14.00,-4.00,+9.00,+7.00,+4.00,+1.00,+0.00,+0.00,+6.00
-68.00,-19.00,-8.00,-7.00,+1.00,-2.00,-13.00,-39.00,+6.00,+0.00,+4.00,+2.00,+4.00,+6.00,+9.00,+38.00
+56.00,+3.00,+1.00,+1.00,-1.00,-11.00,+1.00,+8.00,+23.00,+2.00,-4.00,+3.00,+0.00,+7.00,+13.00,+3.00
-14.00,-8.00,-6.00,-3.00,+0.00,+3.00,+7.00,+5.00,+2.00,-10.00,-5.00,-6.00,-3.00,-4.00,-3.00,-19.00
+42.00,+13.00,+4.00,+4.00,-3.00,-20.00,-88.00,-10.00,-41.00,-4.00,-3.00,-5.00,-3.00,-2.00,-4.00,-9.00
-29.00,+6.00,+5.00,+7.00,+2.00,+1.00,-9.00,+30.00,-28.00,-24.00,-12.00,-4.00,+1.00,-1.00,-6.00,-51.00
-7.00,+0.00,-3.00,-3.00,+2.00,+16.00,+83.00,+4.00,+9.00,+31.00,+9.00,+5.00,-5.00,+22.00,+50.00,-1.00
-37.00,-9.00,-3.00,-3.00,-5.00,-12.00,-2.00,-19.00,-5.00,+3.00,+2.00,-1.00,-6.00,+5.00,-10.00,+32.00
+1.00,-22.00,-16.00,-12.00,-7.00,+13.00,+13.00,-20.00,+16.00,+0.00,-8.00,-7.00,-9.00,-34.00,-36.00,-6.00
+7.00,+8.00,+6.00,-1.00,-10.00,-8.00,-14.00,-10.00,+12.00,-9.00,-7.00,-7.00,-7.00,-16.00,-18.00,+18.00
-35.00,+2.00,+2.00,+2.00,+0.00,-4.00,-44.00,-26.00,-19.00,-7.00,-3.00,-3.00,+6.00,+3.00,-5.00,-32.00
+45.00,+16.00,+9.00,+7.00,+5.00,+13.00,+18.00,+111.00,+3.00,+3.00,-3.00,-7.00,-8.00,-8.00,+7.00,-3.00
-49.00,-13.00,-2.00,+1.00,+3.00,+0.00,+12.00,-22.00,-8.00,+2.00,-1.00,+4.00,+5.00,+6.00,+22.00,+36.00
+8.00,-14.00,-6.00,-4.00,-3.00,-7.00,-12.00,-34.00,-8.00,+8.00,+4.00,+4.00,+6.00,+2.00,-18.00,-12.00
+4.00,+1.00,-2.00,-3.00,-6.00,-10.00,-14.00,+3.00,+10.00,-9.00,-9.00,-1.00,+2.00,-3.00,-2.00,+8.00
+10.00,-2.00,-1.00,+0.00,-2.00,+1.00,-17.00,-36.00,-4.00,-2.00,-5.00,+3.00,+0.00,+13.00,+14.00,+11.00
+6.00,+1.00,-1.00,+2.00,+3.00,-2.00,-4.00,+16.00,+7.00,+1.00,+0.00,-3.00,-4.00,-4.00,-8.00,-9.00
-8.00,-8.00,-6.00,-4.00,-4.00,-7.00,+11.00,+1.00,+2.00,-1.00,+2.00,-2.00,-3.00,-7.00,-32.00,-39.00
+14.00,+11.00,-1.00,-1.00,-9.00,+4.00,-9.00,+15.00,-4.00,-7.00,-3.00,-4.00,-1.00,+9.00,+51.00,+19.00
-2.00,-2.00,-3.00,+2.00,+14.00,-3.00,-13.00,-19.00,-8.00,-9.00,-4.00,-4.00,+2.00,-8.00,+1.00,+7.00
-11.00,+1.00,+1.00,-1.00,-1.00,-1.00,+11.00,-12.00,+9.00,+0.00,+1.00,-1.00,-1.00,+4.00,+9.00,-10.00
+7.00,+4.00,-3.00,-1.00,+3.00,+5.00,+14.00,+29.00,-17.00,-2.00,+0.00,-5.00,-7.00,-1.00,+1.00,-9.00
-81.00,-20.00,-7.00,-5.00,+0.00,-5.00,-15.00,-19.00,+29.00,+6.00,+2.00,-3.00,-4.00,+6.00,-27.00,+44.00
+36.00,+24.00,+9.00,+0.00,-4.00,-4.00,-9.00,-5.00,-9.00,-1.00,-2.00,-2.00,-5.00,-11.00,+15.00,-43.00
-19.00,-11.00,-4.00,-6.00,-7.00,-22.00,-6.00,-53.00,-33.00,-7.00,-1.00,+3.00,+3.00,+7.00,-2.00,+13.00
+46.00,+7.00,+5.00,+7.00,+10.00,+35.00,+36.00,+39.00,+25.00,+7.00,+4.00,+4.00,+9.00,+28.00,+28.00,+35.00
+3.00,-4.00,+1.00,+4.00,+3.00,+4.00,-10.00,-8.00,-3.00,-5.00,-2.00,-5.00,-7.00,-23.00,-79.00,-30.00
-12.00,-6.00,-4.00,-2.00,-6.00,-2.00,+8.00,-30.00,-8.00,+1.00,+2.00,+6.00,+0.00,-29.00,+25.00,-12.00
+24.00,-3.00,-4.00,-5.00,-5.00,-5.00,+2.00,+31.00,+35.00,+6.00,+0.00,-1.00,-2.00,+1.00,-9.00,+12.00
-54.00,-8.00,+0.00,+0.00,-4.00,-25.00,-21.00,-15.00,+0.00,+8.00,+3.00,+1.00,-5.00,+16.00,+21.00,+16.00
+65.00,+9.00,+3.00,+2.00,+5.00,+14.00,+17.00,+53.00,-37.00,-19.00,-10.00,-5.00,-18.00,-11.00,+9.00,-20.00
+15.00,+8.00,+2.00,+0.00,-2.00,-2.00,+6.00,-18.00,+10.00,+9.00,+7.00,+7.00,+20.00,-9.00,-10.00,+14.00
+18.00,+10.00,+3.00,-1.00,+2.00,+9.00,+7.00,+22.00,+0.00,-3.00,+0.00,+0.00,+7.00,+3.00,-1.00,-10.00
-20.00,-11.00,-6.00,-13.00,-83.00,-29.00,-79.00,-44.00,+20.00,+9.00,+6.00,+9.00,+10.00,-3.00,+0.00,+6.00
-5.00,-1.00,-1.00,+10.00,+97.00,+25.00,+63.00,+21.00,-24.00,-3.00,-1.00,-3.00,+10.00,+9.00,+1.00,+6.00
-7.00,-4.00,-1.00,+3.00,+9.00,+2.00,+6.00,+17.00,+28.00,+1.00,-1.00,+21.00,+1.00,+20.00,-5.00,-15.00
-8.00,-3.00,-1.00,+3.00,+17.00,-8.00,+14.00,+6.00,-9.00,-11.00,-8.00,-45.00,-44.00,-9.00,-5.00,-7.00
+12.00,-1.00,-3.00,-6.00,-1.00,+9.00,+19.00,+20.00,-10.00,-2.00,-2.00,-11.00,-7.00,-9.00,-6.00,-7.00
-8.00,-4.00,-4.00,-9.00,-41.00,-19.00,-23.00,-32.00,+10.00,+6.00,+3.00,-6.00,-5.00,-4.00,-12.00,+4.00
+4.00,-10.00,-6.00,-4.00,-6.00,-6.00,-28.00,-28.00,-27.00,-3.00,-4.00,-2.00,-7.00,+5.00,+10.00,+16.00
-41.00,-4.00,+4.00,+2.00,-4.00,-2.00,+13.00,+58.00,+15.00,+2.00,+1.00,+14.00,+21.00,+26.00,+18.00,+11.00
+42.00,+7.00,+6.00,+8.00,+16.00,+13.00,+4.00,+5.00,+25.00,-1.00,-3.00,-3.00,-12.00,+0.00,+5.00,+11.00
+19.00,+2.00,-3.00,-2.00,-13.00,+5.00,-11.00,+13.00,-11.00,-4.00,-4.00,-3.00,-7.00,-37.00,-2.00,-9.00
-4.00,-4.00,-1.00,-1.00,+7.00,+1.00,+10.00,+0.00,-4.00,-2.00,+4.00,+4.00,+8.00,+5.00,-4.00,+9.00
-2.00,-2.00,-2.00,-3.00,-20.00,-3.00,-13.00,-35.00,-6.00,-6.00,-3.00,+10.00,+8.00,-6.00,-13.00,-43.00
-35.00,-5.00,-4.00,-3.00,+2.00,-8.00,-2.00,-10.00,+7.00,+5.00,+2.00,+2.00,+6.00,+7.00,+3.00,-19.00
+15.00,-5.00,+0.00,+1.00,+0.00,-10.00,-22.00,-78.00,+24.00,-3.00,+1.00,+12.00,+13.00,+10.00,+26.00,+38.00
-11.00,+7.00,+10.00,+8.00,+0.00,+13.00,+31.00,+126.00,+5.00,+0.00,-3.00,-13.00,-9.00,+11.00,+22.00,+34.00
+35.00,+6.00,+1.00,+3.00,+12.00,+42.00,+12.00,+37.00,-16.00,+4.00,+4.00,-6.00,-16.00,-26.00,-20.00,-13.00
+13.00,+12.00,+2.00,+1.00,+5.00,-33.00,+9.00,-16.00,-23.00,-4.00,+2.00,+5.00,-3.00,-6.00,+10.00,-15.00
-13.00,-3.00,-5.00,-7.00,-22.00,-18.00,-44.00,-7.00,+15.00,+7.00,+5.00,+6.00,+4.00,+2.00,-12.00,-12.00
-20.00,-2.00,-6.00,-11.00,-49.00,-21.00,-4.00,-38.00,-17.00,-7.00,-5.00,-3.00,-1.00,+5.00,+2.00,-17.00
+1.00,-2.00,-1.00,-5.00,-14.00,+4.00,+11.00,-13.00,+34.00,+1.00,-1.00,+5.00,+16.00,+11.00,+19.00,+5.00
+6.00,-4.00,+0.00,+6.00,+89.00,+39.00,+95.00,+8.00,-15.00,-6.00,-2.00,+17.00,-9.00,-1.00,+5.00,+13.00
-8.00,+3.00,+0.00,-3.00,-2.00,-3.00,+7.00,+10.00,-6.00,+1.00,+0.00,+4.00,+5.00,+9.00,+9.00,-2.00
+2.00,-4.00,+0.00,+1.00,+10.00,+7.00,-4.00,-28.00,+5.00,+0.00,-3.00,-34.00,-14.00,-33.00,-86.00,+1.00
+4.00,+3.00,+3.00,-1.00,-10.00,-8.00,+1.00,+10.00,+1.00,-2.00,-3.00,+2.00,-13.00,-13.00,+10.00,+8.00
-4.00,-10.00,-5.00,-6.00,-19.00,-16.00,-24.00,-22.00,+19.00,+5.00,+2.00,+1.00,+17.00,-10.00,-13.00,+2.00
-16.00,-6.00,-3.00,-7.00,-13.00,-46.00,-41.00,-46.00,-9.00,+1.00,-1.00,+5.00,+22.00,+13.00,+5.00,-5.00
+13.00,-2.00,+0.00,-3.00,-4.00,+29.00,+26.00,+87.00,-14.00,-6.00,-4.00,+2.00,-11.00,+20.00,+10.00,-8.00
+31.00,+1.00,+3.00,+7.00,+0.00,+22.00,+12.00,-37.00,-7.00,-1.00,-1.00,-7.00,-2.00,+85.00,+8.00,-1.00
-8.00,-46.00,-7.00,-5.00,-18.00,-16.00,-25.00,-19.00,-6.00,+0.00,-2.00,-8.00,-27.00,-99.00,-23.00,-18.00
-3.00,-15.00,+5.00,+6.00,+3.00,+41.00,+27.00,+20.00,-34.00,-8.00,-1.00,+4.00,+2.00,-3.00,+23.00,-32.00
-6.00,-10.00,+0.00,+5.00,+10.00,+12.00,+5.00,-25.00,+40.00,+4.00,+1.00,-5.00,+9.00,+32.00,+17.00,+90.00
-14.00,+11.00,+1.00,+3.00,+10.00,-13.00,-24.00,-62.00,-20.00,+1.00,+1.00,+6.00,+1.00,-28.00,-10.00,-17.00
+20.00,+25.00,+5.00,+1.00,+6.00,+27.00,+7.00,+50.00,-34.00,-14.00,-8.00,+4.00,+7.00,+33.00,+17.00,-2.00
+1.00,+10.00,-2.00,-4.00,-10.00,+1.00,+8.00,+12.00,+13.00,+10.00,+4.00,+2.00,+48.00,-22.00,-14.00,-4.00
-6.00,+8.00,-4.00,-3.00,+0.00,-11.00,-14.00,-11.00,+6.00,+4.00,+10.00,+14.00,+2.00,-24.00,-14.00,-9.00
-20.00,-4.00,-1.00,-1.00,+7.00,-2.00,+3.00,-6.00,-39.00,-6.00,-4.00,-1.00,-1.00,-2.00,-14.00,-23.00
-26.00,+7.00,-3.00,+0.00,-14.00,-10.00,-19.00,-35.00,+12.00,+10.00,+8.00,-5.00,-14.00,+15.00,-9.00,+17.00
-24.00,+9.00,+1.00,-1.00,-38.00,-23.00,-46.00,-35.00,-33.00,-20.00,-18.00,-12.00,-21.00,-14.00,-18.00,-18.00
-4.00,+1.00,-3.00,-5.00,+35.00,-15.00,+31.00,+13.00,+15.00,+6.00,+4.00,+5.00,+8.00,+27.00,+28.00,+4.00
+2.00,+2.00,+1.00,-1.00,+5.00,+13.00,+3.00,+37.00,+79.00,+20.00,+6.00,+14.00,+7.00,-2.00,+18.00,+2.00
+29.00,-2.00,-3.00,+0.00,+4.00,-7.00,-14.00,-7.00,-23.00,+1.00,-3.00,-17.00,-16.00,+10.00,-39.00,+55.00
-3.00,-2.00,-2.00,-1.00,-7.00,+8.00,+10.00,+24.00,+23.00,+8.00,+4.00,-15.00,-22.00,-7.00,+1.00,+6.00
-2.00,-5.00,-4.00,-1.00,-7.00,-10.00,-21.00,-53.00,-29.00,-14.00,-8.00,-3.00,+3.00,+0.00,+4.00,-23.00
-15.00,-5.00,-2.00,-2.00,-5.00,-15.00,-3.00,+7.00,-19.00,-6.00,-3.00,+5.00,-1.00,-20.00,-13.00,-1.00
-14.00,-3.00,+0.00,+0.00,-6.00,+4.00,-1.00,-37.00,+10.00,-4.00,-5.00,-2.00,+8.00,+5.00,+7.00,-19.00
+9.00,+8.00,+3.00,+5.00,+13.00,+12.00,+14.00,+33.00,+14.00,-2.00,-3.00,-7.00,-10.00,+21.00,+2.00,+20.00
-1.00,-4.00,-2.00,-6.00,-10.00,-9.00,-15.00,-12.00,-13.00,-5.00,-4.00,-3.00,-6.00,-26.00,-23.00,-11.00
+9.00,-3.00,+0.00,-2.00,+3.00,-7.00,+4.00,+21.00,-2.00,-2.00,+3.00,-3.00,+8.00,-20.00,-1.00,-11.00
-8.00,+3.00,+1.00,-2.00,-23.00,+3.00,-2.00,-8.00,-1.00,-2.00,-4.00,-9.00,-4.00,+10.00,-9.00,-22.00
+9.00,-5.00,-2.00,+0.00,+28.00,+5.00,+1.00,+8.00,+0.00,-2.00,-1.00,+2.00,-7.00,+6.00,-1.00,+14.00
-7.00,-10.00,-5.00,-3.00,+0.00,-6.00,-16.00,-9.00,-13.00,+5.00,+2.00,+4.00,-6.00,-11.00,+6.00,-31.00
+1.00,+5.00,+0.00,+2.00,+9.00,-3.00,+0.00,-4.00,+6.00,-2.00,-4.00,-11.00,-5.00,+6.00,+4.00,+18.00
-13.00,-6.00,-4.00,-3.00,-2.00,-11.00,-23.00,-41.00,-15.00,-10.00,-6.00,-2.00,+8.00,+7.00,+9.00,-14.00
-1.00,+5.00,+1.00,+0.00,-5.00,-24.00,-1.00,+92.00,+4.00,-1.00,+0.00,+1.00,-10.00,-1.00,-4.00,-5.00
+33.00,+8.00,+4.00,+3.00,-3.00,+30.00,+19.00,+33.00,-15.00,-10.00,-10.00,-5.00,-1.00,+49.00,-13.00,-8.00
+2.00,+0.00,+0.00,-1.00,-2.00,+4.00,+2.00,-15.00,+5.00,+5.00,+6.00,+0.00,-8.00,-67.00,-47.00,-53.00
-15.00,-5.00,-3.00,-6.00,-9.00,-19.00,-14.00,-32.00,-8.00,-13.00,-6.00,+2.00,+6.00,+11.00,+2.00,-3.00
-14.00,-11.00,-8.00,-9.00,-16.00,-50.00,-41.00,-19.00,+21.00,+4.00,+2.00,+0.00,-5.00,-11.00,-8.00,-1.00
+46.00,+7.00,+6.00,+7.00,+11.00,+71.00,+30.00,+55.00,-43.00,-10.00,-4.00,-1.00,+2.00,+62.00,+15.00,-19.00
-16.00,-14.00,+1.00,+3.00,+2.00,+5.00,+6.00,+23.00,+41.00,-4.00,+1.00,-5.00,-26.00,-7.00,-17.00,+6.00
-11.00,-6.00,-3.00,+2.00,+7.00,+10.00,+4.00,+7.00,-8.00,+2.00,-1.00,-1.00,+14.00,-79.00,+4.00,+2.00
+11.00,+24.00,+4.00,+2.00,-1.00,+7.00,+7.00,-22.00,+16.00,+4.00,+3.00,+6.00,+10.00,+11.00,+0.00,-2.00
-4.00,+1.00,-3.00,-3.00,-12.00,-38.00,-23.00,-36.00,-4.00,-2.00,-3.00,-2.00,+4.00,-18.00,+7.00,+11.00
+1.00,-6.00,-7.00,-7.00,-6.00,-10.00,-4.00,-13.00,-39.00,-12.00,-5.00,+1.00,-1.00,+37.00,+20.00,+11.00
-3.00,-8.00,-1.00,-2.00,-1.00,+10.00,+3.00,+22.00,+4.00,+2.00,+2.00,+0.00,-11.00,+7.00,-1.00,-4.00
-14.00,-7.00,+0.00,-2.00,-6.00,+8.00,+8.00,-18.00,+2.00,-3.00,+0.00,-2.00,+2.00,+1.00,-5.00,-5.00
+17.00,+2.00,+0.00,-1.00,+10.00,-17.00,-10.00,-12.00,+19.00,+9.00,+2.00,-2.00,-13.00,-17.00,+3.00,+7.00
+13.00,-4.00,-2.00,-1.00,-2.00,+2.00,+0.00,+18.00,-19.00,-5.00,-5.00,+3.00,+9.00,-3.00,-4.00,+10.00
-17.00,+5.00,+5.00,+5.00,-3.00,-2.00,-1.00,-6.00,-9.00,-1.00,+1.00,-14.00,-10.00,+16.00,+0.00,-29.00
+25.00,+3.00,+2.00,+0.00,-16.00,+27.00,+13.00,+15.00,+38.00,+5.00,-2.00,-4.00,-12.00,-2.00,+3.00,+32.00
-19.00,-6.00,-7.00,-6.00,+18.00,-13.00,-16.00,-22.00,-44.00,-2.00,+2.00,+6.00,+12.00,-15.00,-7.00,-22.00
-8.00,-6.00,-5.00,-4.00,-1.00,-6.00,+0.00,-15.00,+69.00,+12.00,+3.00,+14.00,+6.00,+12.00,+11.00,+21.00
+4.00,+0.00,-8.00,-4.00,+8.00,-10.00,-10.00,+21.00,+7.00,+5.00,-1.00,+0.00,+4.00,+10.00,+1.00,-2.00
-5.00,-8.00,-3.00,-3.00,-14.00,-16.00,-18.00,-89.00,-15.00,-7.00,-5.00,-4.00,-6.00,+9.00,+4.00,+0.00
+33.00,+4.00,+5.00,+4.00,-13.00,+16.00,+24.00,+59.00,-2.00,-3.00,-6.00,-5.00,+2.00,+57.00,+46.00,+18.00
+12.00,+1.00,-2.00,-4.00,+0.00,-5.00,-8.00,-12.00,-16.00,-2.00,-3.00,-3.00,-20.00,-89.00,-60.00,-44.00
-6.00,+9.00,+2.00,+0.00,+0.00,+5.00,+11.00,+13.00,-9.00,-6.00,-2.00,+6.00,+22.00,+16.00,+5.00,-16.00
-9.00,-3.00,-5.00,-5.00,+5.00,-5.00,-10.00,-27.00,-12.00,-2.00,-3.00,+4.00,-7.00,-11.00,-15.00,-17.00
-40.00,-10.00,-5.00,-4.00,-10.00,-24.00,-15.00,-67.00,+39.00,+9.00,+5.00,+2.00,+7.00,-6.00,+10.00,+16.00
-11.00,+2.00,-3.00,-4.00,-6.00,-15.00,-30.00,+23.00,-31.00,-4.00,-4.00,-7.00,+6.00,+37.00,+18.00,+14.00
+25.00,+3.00,+9.00,+8.00,+7.00,+20.00,+16.00,-14.00,+9.00,+3.00,+2.00,+4.00,+5.00,+31.00,+9.00,-9.00
+6.00,-1.00,+1.00,+2.00,+9.00,+12.00,+7.00,+11.00,-12.00,-6.00,+9.00,-4.00,-27.00,-32.00,-60.00,-1.00
+44.00,+6.00,+1.00,+3.00,+4.00,-2.00,+1.00,+0.00,+6.00,-7.00,-16.00,-7.00,+23.00,-43.00,-5.00,-38.00
-7.00,+1.00,+2.00,+1.00,-13.00,+26.00,+7.00,-1.00,+6.00,-1.00,+1.00,-2.00,+5.00,+23.00,+18.00,+50.00
-12.00,-5.00,-4.00,-2.00,-3.00,-43.00,-1.00,-1.00,+8.00,+4.00,+0.00,-4.00,-9.00,-23.00,-4.00,+3.00
+3.00,+0.00,-2.00,-2.00,+17.00,+10.00,+5.00,+9.00,-1.00,+2.00,+0.00,+9.00,+12.00,+31.00,+18.00,+15.00
-23.00,-11.00,-5.00,-6.00,-22.00,-8.00,-7.00,-20.00,+2.00,+7.00,+1.00,-6.00,-30.00,-26.00,-4.00,-3.00
+4.00,+5.00,+2.00,+4.00,+17.00,-10.00,-3.00,-18.00,-3.00,+0.00,-4.00,-8.00,+2.00,-1.00,-14.00,-2.00
+11.00,+3.00,+0.00,+1.00,-13.00,+13.00,-3.00,+15.00,-5.00,-1.00,-2.00,+7.00,+9.00,+10.00,+5.00,-1.00
-2.00,-10.00,-3.00,+1.00,-22.00,+9.00,+20.00,+11.00,-10.00,-2.00,-3.00,-2.00,+5.00,+0.00,+5.00,-4.00
-10.00,+11.00,+8.00,+3.00,+49.00,-4.00,-20.00,-14.00,+31.00,+4.00,+7.00,+6.00,-5.00,-17.00,-8.00,+11.00
+3.00,+1.00,+5.00,+0.00,-1.00,-3.00,+6.00,-3.00,-62.00,-17.00,-9.00,+0.00,+6.00,+15.00,+25.00,-20.00
-24.00,-4.00,+0.00,-3.00,+4.00,+7.00,-3.00,+7.00,+80.00,+14.00,+8.00,-15.00,-29.00,-4.00,-10.00,+44.00
+9.00,+2.00,+3.00,+3.00,+0.00,-6.00,+23.00,+22.00,-10.00,+0.00,-1.00,-1.00,-1.00,-1.00,+12.00,-20.00
-20.00,-15.00,-4.00,-1.00,-18.00,-8.00,-19.00,+27.00,-30.00,-13.00,-10.00,-6.00,-20.00,-17.00,-16.00,+1.00
+12.00,+2.00,+0.00,+0.00,-3.00,+0.00,+7.00,+7.00,+7.00,+5.00,+4.00,+1.00,+6.00,+12.00,+31.00,-4.00
+45.00,+8.00,+2.00,+1.00,+11.00,+9.00,+8.00,-16.00,-28.00,-8.00,-4.00,+6.00,+14.00,+17.00,+0.00,-7.00
-19.00,-8.00,-4.00,-6.00,-7.00,-18.00,-25.00,+4.00,+37.00,+2.00,-2.00,-5.00,-12.00,-48.00,-2.00,+2.00
-69.00,-11.00,-7.00,-7.00,-17.00,-25.00,-23.00,-109.00,-2.00,+3.00,+5.00,+3.00,+11.00,+15.00,-6.00,-6.00
+52.00,+11.00,+7.00,+10.00,+18.00,+8.00,+18.00,+94.00,-6.00,-3.00,-1.00,-3.00,-1.00,+17.00,+14.00,+15.00
+6.00,+0.00,+0.00,+3.00,+4.00,+45.00,+47.00,+11.00,+0.00,-5.00,-7.00,-6.00,-20.00,+21.00,+10.00,+20.00
+0.00,-10.00,-1.00,+1.00,+6.00,+18.00,+3.00,+19.00,-9.00,+5.00,+5.00,-2.00,-24.00,-59.00,+21.00,+21.00
-1.00,-2.00,-3.00,-3.00,-40.00,+4.00,+8.00,+2.00,-5.00,-4.00,+1.00,+15.00,+33.00,-14.00,-20.00,-8.00
-35.00,+26.00,+0.00,-2.00,+15.00,-24.00,-18.00,-107.00,+11.00,+6.00,+1.00,+1.00,+15.00,+15.00,-1.00,+4.00
+7.00,+11.00,+2.00,+1.00,+51.00,-5.00,-25.00,-10.00,-3.00,-1.00,+2.00,+6.00,+13.00,+0.00,-2.00,-4.00
+29.00,+10.00,+4.00,+3.00,+16.00,+6.00,+20.00,+37.00,-12.00,-2.00,-4.00,-16.00,-6.00,+38.00,+17.00,+6.00
-21.00,-6.00,+0.00,+0.00,+6.00,-6.00,-3.00,+6.00,-27.00,-25.00,-4.00,-17.00,-41.00,-11.00,-16.00,+0.00
-9.00,-19.00,-9.00,-6.00,-33.00,+0.00,+1.00,-9.00,+38.00,+16.00,+5.00,+4.00,+20.00,+4.00,+25.00,+23.00
-2.00,+5.00,+1.00,-3.00,-16.00,-1.00,-5.00,+11.00,-11.00,+11.00,+1.00,+3.00,+8.00,+0.00,-1.00,-16.00
+7.00,+1.00,+1.00,+1.00,+13.00,+1.00,-1.00,-23.00,-14.00,-3.00,-3.00,+4.00,+4.00,+6.00,-9.00,-6.00
-3.00,-6.00,-6.00,-6.00,-11.00,+16.00,+1.00,-9.00,+14.00,-4.00,+0.00,+0.00,+2.00,-7.00,-4.00,+2.00
-16.00,-12.00,-10.00,-3.00,-6.00,-20.00,-5.00,-10.00,+8.00,+15.00,+0.00,-4.00,-2.00,+4.00,-4.00,+4.00
-2.00,+0.00,+5.00,+2.00,+1.00,+13.00,+3.00,-39.00,-6.00,-10.00,+2.00,+2.00,-8.00,-11.00,+3.00,-1.00
+14.00,+0.00,-4.00,+3.00,-4.00,-8.00,+14.00,+103.00,-14.00,+8.00,+11.00,+1.00,+1.00,+15.00,-11.00,-34.00
-30.00,+2.00,-1.00,+2.00,+1.00,+3.00,-17.00,-94.00,+15.00,-25.00,-44.00,-15.00,+0.00,-5.00,-10.00,+41.00
+21.00,+0.00,+3.00,+1.00,+3.00,+12.00,+20.00,-19.00,-18.00,-25.00,-13.00,-3.00,-7.00,-23.00,+49.00,+10.00
-6.00,-20.00,-13.00,-11.00,-15.00,-29.00,-33.00,+70.00,+11.00,-1.00,-1.00,-5.00,-2.00,+38.00,+12.00,+15.00
-4.00,+1.00,+2.00,+5.00,+5.00,+42.00,+28.00,+55.00,-18.00,-14.00,-21.00,-5.00,-6.00,-2.00,-29.00,-12.00
+17.00,+3.00,+0.00,+0.00,+7.00,-5.00,-3.00,+42.00,-5.00,+7.00,+12.00,+4.00,+24.00,-23.00,+70.00,+37.00
-21.00,+29.00,+0.00,-1.00,+1.00,-8.00,-14.00,-48.00,+6.00,+1.00,+12.00,+5.00,-15.00,-13.00,-36.00,-25.00
+21.00,+4.00,+2.00,-4.00,-20.00,-20.00,-1.00,+40.00,-16.00,-4.00,-14.00,+1.00,+4.00,-26.00,-25.00,-9.00
+14.00,+2.00,+4.00,-2.00,+4.00,+0.00,-1.00,-18.00,-6.00,-6.00,+7.00,+0.00,+2.00,+34.00,+27.00,+6.00
+5.00,-1.00,+0.00,+2.00,+15.00,-5.00,+9.00,+57.00,+7.00,+17.00,+14.00,+3.00,+4.00,+32.00,-17.00,-19.00
-21.00,-20.00,-2.00,-5.00,-9.00,-7.00,-8.00,-9.00,-16.00,-3.00,-5.00,-5.00,-8.00,-6.00,-15.00,-24.00
-12.00,-8.00,-7.00,-6.00,-7.00,-23.00,-34.00,-41.00,+13.00,+0.00,+5.00,-1.00,-4.00,-10.00,+17.00,+4.00
-26.00,-3.00,-7.00,-8.00,-25.00,-24.00,-12.00,-49.00,-7.00,+0.00,-5.00,+0.00,+10.00,+11.00,-20.00,-9.00
+37.00,+7.00,+8.00,+8.00,+28.00,+88.00,+80.00,+22.00,+11.00,+5.00,-1.00,-2.00,-10.00,+35.00,-8.00,-10.00
+8.00,-4.00,+4.00,+5.00,+0.00,+16.00,+5.00,-29.00,-20.00,-9.00,-8.00,-7.00,-28.00,-33.00,-22.00,-23.00
-34.00,-18.00,-4.00,+0.00,-6.00,+18.00,+21.00,+5.00,-10.00,-7.00,-1.00,+2.00,+47.00,-77.00,-37.00,-36.00
+34.00,+5.00,-7.00,-7.00,-7.00,-28.00,-37.00,-81.00,+39.00,+2.00,-1.00,+2.00,-7.00,+0.00,+14.00,+44.00
+5.00,+15.00,-1.00,-7.00,-42.00,-68.00,-40.00,+17.00,-23.00,+4.00,+3.00,+1.00,-10.00,-30.00,-37.00,-75.00
+1.00,-6.00,-3.00,+1.00,+49.00,+40.00,+34.00,+54.00,-5.00,-12.00,-14.00,-11.00,-18.00,+85.00,+48.00,+90.00
-21.00,+3.00,+3.00,+4.00,+10.00,+0.00,+5.00,-14.00,-15.00,+1.00,-2.00,-1.00,-18.00,+9.00,-6.00,-3.00
-20.00,-14.00,-3.00,+1.00,+1.00,-10.00,-10.00,-25.00,+9.00,+3.00,+1.00,-7.00,+11.00,-68.00,+8.00,-25.00
-9.00,-6.00,-1.00,-2.00,+5.00,-3.00,+0.00,-10.00,+5.00,+4.00,+10.00,+4.00,-6.00,+6.00,+3.00,-23.00
-11.00,+3.00,-2.00,-2.00,-19.00,-50.00,-55.00,+47.00,+11.00,+0.00,+1.00,+3.00,+14.00,-1.00,-25.00,+10.00
+40.00,-3.00,-2.00,-2.00,-1.00,+34.00,+53.00,+36.00,-1.00,+1.00,-1.00,+0.00,-14.00,+14.00,+18.00,+14.00
-47.00,-3.00,+4.00,+0.00,+3.00,+10.00,+6.00,-6.00,-23.00,+4.00,-2.00,+0.00,+9.00,+80.00,+3.00,-5.00
+4.00,-5.00,-6.00,-2.00,-6.00,-10.00,-10.00,-9.00,+33.00,+8.00,+9.00,+4.00,-10.00,-61.00,-16.00,-30.00
-90.00,-16.00,-5.00,-1.00,-4.00,+6.00,+6.00,-21.00,-6.00,-12.00,-10.00,+2.00,+7.00,+22.00,-19.00,-35.00
+69.00,+9.00,-2.00,+1.00,+2.00,-3.00,-7.00,-43.00,+14.00,+15.00,+6.00,-1.00,-2.00,-37.00,+4.00,-1.00
-37.00,+3.00,+0.00,+1.00,-1.00,+1.00,+2.00,-9.00,+34.00,-1.00,+0.00,-1.00,-1.00,+19.00,+16.00,+58.00
+15.00,+4.00,+0.00,+0.00,+3.00,+6.00,+2.00,+5.00,-61.00,+5.00,+3.00,-1.00,-9.00,+30.00,+25.00,-45.00
+14.00,-6.00,+2.00,+1.00,-5.00,+1.00,-9.00,-18.00,+25.00,+5.00,+5.00,-5.00,-5.00,-9.00,-8.00,+9.00
-30.00,-4.00,-3.00,-4.00,-10.00,-20.00,-16.00,-5.00,-20.00,-9.00,-3.00,-5.00,-5.00,-10.00,+15.00,-12.00
+4.00,+7.00,+4.00,+1.00,+8.00,-14.00,+1.00,-31.00,+24.00,-1.00,-2.00,+3.00,+9.00,+5.00,-16.00,+10.00
+38.00,-2.00,+0.00,-5.00,-10.00,-46.00,-73.00,-37.00,-18.00,-10.00,-9.00,-12.00,-26.00,+52.00,-7.00,-5.00
+1.00,+5.00,+7.00,+8.00,+14.00,+41.00,+77.00,+113.00,+11.00,+8.00,+7.00,+9.00,+36.00,-53.00,+12.00,+22.00
-21.00,-3.00,-2.00,-2.00,-1.00,+48.00,+17.00,-9.00,+11.00,-4.00,-5.00,-11.00,-94.00,+32.00,-13.00,+54.00
+57.00,-6.00,-4.00,-3.00,+2.00,-7.00,-22.00,+20.00,-16.00,+12.00,+13.00,+11.00,+4.00,-121.00,-14.00,-39.00
-38.00,-3.00,-2.00,-1.00,+1.00,+8.00,+1.00,-21.00,+16.00,-9.00,-6.00,+5.00,+74.00,-3.00,-8.00,+7.00
+12.00,-3.00,-2.00,-7.00,-16.00,-24.00,-26.00,-20.00,-4.00,-1.00,-1.00,-3.00,-5.00,+18.00,+3.00,+2.00
+22.00,+1.00,-1.00,-1.00,-6.00,-34.00,-23.00,+31.00,-5.00,-6.00,-3.00,+1.00,+33.00,+34.00,+0.00,+2.00
-33.00,-23.00,+0.00,+1.00,+4.00,+3.00,+7.00,+17.00,-16.00,-7.00,-6.00,-1.00,-17.00,+37.00,-7.00,-30.00
+0.00,+14.00,+0.00,+1.00,-2.00,+16.00,+18.00,+16.00,+21.00,+1.00,+3.00,-4.00,-32.00,-18.00,+2.00,+37.00
+49.00,-4.00,+5.00,-3.00,-5.00,+4.00,-5.00,+51.00,-20.00,+0.00,+3.00,-3.00,+6.00,+5.00,-23.00,-23.00
-25.00,+5.00,+1.00,+1.00,+7.00,-1.00,+0.00,+2.00,-2.00,+11.00,+6.00,+1.00,-3.00,-16.00,-14.00,-19.00
-5.00,-1.00,-4.00,-5.00,-4.00,+0.00,-11.00,-44.00,+23.00,-10.00,-12.00,-4.00,-19.00,+8.00,+12.00,-10.00
-8.00,-13.00,-5.00,-3.00,-3.00,-25.00,-10.00,+20.00,-8.00,-2.00,-4.00,-5.00,-9.00,-18.00,-6.00,+22.00
+6.00,-4.00,-8.00,-1.00,-4.00,-23.00,-25.00,-58.00,-6.00,-7.00,-6.00,+3.00,+17.00,+7.00,-8.00,-6.00
-37.00,-8.00,+0.00,+1.00,+13.00,+78.00,+70.00,-10.00,-3.00,-4.00,+1.00,-12.00,+1.00,+66.00,+20.00,+54.00
-1.00,-3.00,+0.00,-3.00,-17.00,-10.00,-11.00,-13.00,-27.00,-3.00,+2.00,+7.00,-9.00,-72.00,+1.00,-16.00
+21.00,+8.00,+6.00,+3.00,+8.00,+21.00,+27.00,+65.00,+17.00,+0.00,-4.00,+4.00,+24.00,+2.00,-8.00,+1.00
+2.00,+7.00,+2.00,-1.00,-33.00,-11.00,-7.00,-26.00,-38.00,-15.00,+2.00,+6.00,-16.00,-33.00,-13.00,-27.00
-17.00,-6.00,-2.00,-1.00,+23.00,-26.00,-30.00,-34.00,+12.00,+7.00,+3.00,+3.00,+1.00,-14.00,+23.00,+3.00
+11.00,+1.00,-4.00,-4.00,+1.00,+9.00,+8.00,+37.00,+2.00,+7.00,+5.00,+4.00,+16.00,+54.00,+19.00,+43.00
-37.00,-5.00,-1.00,-2.00,+3.00,-4.00,+3.00,-41.00,+2.00,-1.00,-2.00,-9.00,-21.00,-4.00,-12.00,-6.00
-13.00,-7.00,-3.00,-3.00,-10.00,+0.00,+3.00,+16.00,-29.00,-5.00,-7.00,-7.00,-12.00,-4.00,+6.00,-6.00
-50.00,-5.00,-4.00,-4.00,-16.00,-21.00,-18.00,-11.00,+25.00,-5.00,-6.00,-1.00,+17.00,-2.00,-18.00,-44.00
+23.00,+2.00,+0.00,+3.00,+8.00,+11.00,+15.00,+26.00,-14.00,-9.00,-7.00,-8.00,+2.00,+6.00,-7.00,+32.00
-37.00,-10.00,-4.00,-3.00,-10.00,-11.00,-7.00,-27.00,-19.00,+3.00,+5.00,+11.00,-2.00,-8.00,-1.00,-50.00
+7.00,+35.00,+5.00,+1.00,-13.00,-3.00,+2.00,-3.00,-1.00,-6.00,-7.00,+3.00,+22.00,-4.00,-15.00,-4.00
+11.00,-1.00,+2.00,+3.00,+3.00,+0.00,-7.00,-21.00,-11.00,-12.00,-3.00,-4.00,-9.00,-2.00,-2.00,-6.00
-8.00,-2.00,-5.00,-2.00,-3.00,-12.00,-7.00,-13.00,-7.00,+9.00,+0.00,+2.00,+8.00,-1.00,+6.00,+16.00
+6.00,-11.00,-8.00,-9.00,+6.00,-4.00,-3.00,+23.00,-2.00,-5.00,+9.00,+4.00,+2.00,+0.00,-5.00,-10.00
-11.00,-9.00,-10.00,-11.00,-27.00,-9.00,+4.00,+4.00,+28.00,+16.00,+6.00,+0.00,+2.00,+0.00,-3.00,-7.00
-8.00,-3.00,+0.00,-5.00,+7.00,+1.00,-5.00,-17.00,+17.00,-13.00,-27.00,-5.00,-1.00,+1.00,+15.00,+5.00
+9.00,+2.00,+13.00,+16.00,+40.00,+10.00,+17.00,+0.00,-10.00,-26.00,-31.00,+1.00,+2.00,-3.00,-6.00,-21.00
-6.00,-1.00,+5.00,+4.00,-1.00,+2.00,-18.00,-20.00,+26.00,+7.00,-5.00,-29.00,-22.00,+4.00,+5.00,+9.00
-11.00,-8.00,-1.00,+1.00,-6.00,+4.00,+1.00,-2.00,-33.00,+16.00,+10.00,+4.00,-4.00,-2.00,-2.00,+0.00
-30.00,+7.00,-4.00,-2.00,-20.00,-1.00,-11.00,-19.00,-18.00,+11.00,+16.00,-11.00,-38.00,-4.00,-10.00,-11.00
+2.00,-13.00,-9.00,-2.00,+0.00,+2.00,+4.00,-2.00,+23.00,+8.00,+9.00,-5.00,-24.00,-3.00,+2.00,+7.00
+9.00,-6.00,-4.00,-2.00,-15.00,-9.00,+0.00,-4.00,-2.00,-23.00,-12.00,+2.00,+36.00,-2.00,-2.00,+6.00
+26.00,+3.00,+2.00,-2.00,-23.00,-7.00,+0.00,+4.00,+6.00,-6.00,-4.00,-1.00,+45.00,-1.00,+5.00,+12.00
+6.00,-8.00,-1.00,+1.00,+9.00,+3.00,-4.00,+2.00,-6.00,+7.00,+4.00,+4.00,+7.00,+6.00,-3.00,-7.00
-28.00,-6.00,-2.00,-2.00,+3.00,-3.00,-4.00,-4.00,-10.00,+0.00,+9.00,+12.00,+13.00,+3.00,+1.00,+5.00
+22.00,+18.00,+5.00,+2.00,-2.00,-1.00,+3.00,-10.00,+11.00,-2.00,+1.00,-2.00,-12.00,+1.00,-2.00,+2.00
-45.00,-14.00,-12.00,-4.00,-2.00,+0.00,-3.00,+16.00,+6.00,-5.00,+3.00,-1.00,-22.00,-1.00,+3.00,+4.00
+18.00,-2.00,+0.00,+0.00,+11.00,+3.00,+8.00,-1.00,-17.00,-6.00,-10.00,+2.00,+33.00,-8.00,-16.00,-31.00
-2.00,+0.00,-4.00,-2.00,+3.00,+2.00,-6.00,-7.00,+7.00,+1.00,-10.00,-5.00,-7.00,-1.00,+6.00,+21.00
-27.00,+7.00,-4.00,+2.00,-2.00,-10.00,-2.00,+26.00,+3.00,+1.00,-3.00,+4.00,-6.00,-1.00,+2.00,-4.00
-9.00,-23.00,-6.00,-3.00,-1.00,-4.00,-1.00,-13.00,-30.00,-7.00,+0.00,-2.00,+3.00,+1.00,-5.00,-16.00
+27.00,+27.00,+11.00,+5.00,+0.00,+2.00,+1.00,+4.00,+13.00,+10.00,-6.00,+2.00,+2.00,+0.00,+9.00,+1.00
-9.00,+5.00,-4.00,-8.00,-7.00,+1.00,-4.00,+2.00,+4.00,+16.00,-5.00,-9.00,-6.00,-5.00,-6.00,+8.00
+8.00,+17.00,+0.00,-3.00,-62.00,-8.00,-3.00,-11.00,-26.00,-26.00,-11.00,-2.00,-8.00,+0.00,+3.00,+2.00
+5.00,-13.00,-1.00,+0.00,+83.00,+9.00,-1.00,-4.00,+14.00,-5.00,-3.00,+5.00,+10.00,-1.00,+4.00,+2.00
-59.00,-15.00,-6.00,-3.00,-28.00,+0.00,-8.00,-24.00,-8.00,-7.00,+17.00,+23.00,+6.00,+2.00,-5.00,+0.00
+20.00,+4.00,+7.00,+8.00,+36.00,-1.00,+0.00,+0.00,+0.00,+29.00,+3.00,-44.00,-37.00,-3.00,-2.00,-10.00
-5.00,+4.00,-1.00,-1.00,-15.00,+0.00,+2.00,-16.00,-14.00,-10.00,-5.00,+0.00,-1.00,-5.00,-2.00,+1.00
-2.00,+2.00,+1.00,+4.00,+3.00,-4.00,-1.00,-3.00,+0.00,-3.00,-4.00,-31.00,+9.00,-6.00,+0.00,+1.00
+22.00,+0.00,+1.00,-2.00,+20.00,+6.00,+2.00,+4.00,+6.00,+4.00,+4.00,+3.00,-14.00,-5.00,-6.00,+1.00
-6.00,-7.00,-2.00,-4.00,-16.00,-8.00,+0.00,+7.00,+1.00,-2.00,+8.00,+10.00,+9.00,-2.00,-2.00,-1.00
-5.00,-6.00,-6.00,+0.00,-5.00,-3.00,+3.00,+1.00,-6.00,-1.00,-1.00,+4.00,+26.00,+0.00,-7.00,-14.00
+3.00,+13.00,+10.00,-1.00,-25.00,-4.00,+1.00,+0.00,+21.00,+0.00,+8.00,+7.00,+2.00,+3.00,+7.00,+8.00
+4.00,-4.00,-7.00,+1.00,-6.00,-7.00,-3.00,-2.00,-1.00,+0.00,-19.00,-1.00,-2.00,-5.00,+0.00,-2.00
+44.00,+1.00,+0.00,-3.00,-6.00,+7.00,+4.00,-4.00,+0.00,-12.00,-5.00,+10.00,+9.00,+2.00,-1.00,+4.00
+6.00,+1.00,-1.00,+0.00,+25.00,+2.00,+2.00,+1.00,+3.00,+21.00,+10.00,-2.00,-15.00,-3.00,-2.00,+1.00
+6.00,+6.00,+8.00,+6.00,-21.00,-4.00,-1.00,-12.00,-7.00,-17.00,-5.00,+1.00,-12.00,-2.00,-1.00,-10.00
-11.00,-13.00,-9.00,-4.00,+9.00,-2.00,-2.00,+4.00,-25.00,+6.00,+23.00,+0.00,+9.00,+5.00,-2.00,-5.00
+4.00,+3.00,+5.00,+0.00,-6.00,+0.00,-3.00,-13.00,+34.00,-2.00,-20.00,+1.00,-3.00,+3.00,-2.00,+1.00
-14.00,-16.00,-1.00,-2.00,+20.00,+2.00,-4.00,-8.00,+13.00,+9.00,+13.00,-6.00,-10.00,-2.00,+6.00,+31.00
-13.00,+11.00,+2.00,+0.00,-10.00,-2.00,-1.00,+3.00,-19.00,-29.00,-26.00,+1.00,-2.00,+3.00,+1.00,-16.00
+16.00,-6.00,+4.00,+2.00,-2.00,+1.00,-2.00,-3.00,+11.00,-1.00,+1.00,-7.00,+2.00,-4.00,-4.00,+8.00
-14.00,-7.00,-1.00,-4.00,-3.00,+2.00,+2.00,+3.00,-24.00,-5.00,+6.00,+6.00,+5.00,-3.00,-2.00,+2.00
+1.00,-7.00,-7.00,-5.00,-24.00,-3.00,+0.00,-5.00,+12.00,+8.00,+1.00,+1.00,-6.00,-3.00,-2.00,-4.00
+6.00,-8.00,-8.00,+2.00,+15.00,+7.00,+2.00,+6.00,-3.00,+12.00,+8.00,+9.00,+5.00,+0.00,+0.00,+8.00
+5.00,+9.00,+3.00,+2.00,+21.00,+1.00,+0.00,+0.00,+7.00,+0.00,-5.00,+13.00,+17.00,+2.00,+0.00,+4.00
-13.00,-14.00,-3.00,-6.00,-54.00,-12.00,-4.00,+3.00,-16.00,+2.00,+7.00,-17.00,-21.00,+0.00,+1.00,-5.00
+5.00,+13.00,+10.00,+7.00,+91.00,+21.00,+3.00,+2.00,-2.00,-3.00,-5.00,-3.00,-12.00,-1.00,-1.00,-11.00
-5.00,-8.00,-7.00,-2.00,-16.00,+1.00,+1.00,+7.00,+7.00,+5.00,+2.00,+4.00,+15.00,-2.00,+1.00,+4.00
-26.00,+0.00,-3.00,-4.00,-1.00,-1.00,-6.00,-10.00,-4.00,-2.00,-9.00,-11.00,-20.00,-1.00,-3.00,-6.00
-4.00,+5.00,-2.00,+1.00,+1.00,-2.00,-6.00,+9.00,+7.00,+7.00,+11.00,+0.00,-6.00,-2.00,-1.00,+0.00
+10.00,-2.00,+0.00,-4.00,-25.00,-10.00,+2.00,-13.00,-12.00,-10.00,-13.00,-6.00,-7.00,-7.00,-7.00,-6.00
+2.00,+2.00,+2.00,+0.00,-12.00,-5.00,-1.00,+4.00,+1.00,-3.00,-5.00,+3.00,-1.00,+7.00,+21.00,+12.00
+17.00,-4.00,+2.00,+1.00,+7.00,+0.00,-1.00,-3.00,+10.00,+4.00,-1.00,+3.00,+9.00,-2.00,-26.00,-15.00
-6.00,+11.00,-1.00,-4.00,+1.00,-2.00,-2.00,-16.00,-8.00,+0.00,+8.00,+11.00,+14.00,-1.00,+1.00,-1.00
-19.00,-7.00,-6.00,-5.00,-10.00,-8.00,-3.00,+5.00,+1.00,+1.00,+4.00,-3.00,-7.00,-2.00,+0.00,-6.00
-9.00,-2.00,-1.00,-2.00,+5.00,+2.00,+4.00,+17.00,-5.00,-7.00,-10.00,-6.00,-2.00,-1.00,+8.00,+10.00
+14.00,+23.00,+6.00,+2.00,-12.00,-6.00,+3.00,+6.00,-1.00,+6.00,+10.00,-8.00,+0.00,-2.00,+3.00,+9.00
-19.00,-14.00,-6.00,-3.00,-15.00,-1.00,+3.00,+12.00,-11.00,-23.00,-12.00,-2.00,-2.00,-6.00,-9.00,-7.00
-5.00,-4.00,-1.00,+0.00,+56.00,+2.00,-3.00,-7.00,-21.00,-12.00,-8.00,+2.00,+2.00,-1.00,-5.00,-8.00
-3.00,-10.00,-7.00,-9.00,-28.00,-7.00,-3.00,-11.00,+57.00,+15.00,+3.00,+8.00,+5.00,+1.00,-3.00,+0.00
-3.00,-8.00,+1.00,+2.00,-5.00,+7.00,+2.00,+8.00,-8.00,-1.00,-5.00,-26.00,-30.00,+4.00,+8.00,+7.00
+17.00,+4.00,+2.00,+4.00,+32.00,+10.00,-1.00,-1.00,+3.00,+8.00,+8.00,+15.00,+10.00,+1.00,-5.00,-6.00
-15.00,+2.00,+5.00,+0.00,-22.00,-4.00,+2.00,-1.00,-20.00,+0.00,+8.00,-7.00,-2.00,+6.00,+3.00,+0.00
+4.00,-12.00,-10.00,-7.00,-28.00,-5.00,-3.00,+7.00,-17.00,-12.00,-5.00,-2.00,-3.00,+0.00,-4.00,+1.00
-20.00,-1.00,+2.00,-2.00,-30.00,-19.00,-4.00,-14.00,+11.00,-3.00,-6.00,+2.00,+4.00,+0.00,-1.00,+0.00
+7.00,+7.00,-2.00,+2.00,+39.00,+27.00,+2.00,-2.00,+8.00,+5.00,+4.00,+1.00,+18.00,+3.00,+0.00,+2.00
+5.00,+1.00,+3.00,+7.00,+12.00,+6.00,+2.00,+3.00,+3.00,-5.00,-9.00,+13.00,+25.00,-3.00,+0.00,+2.00
-1.00,+0.00,+4.00,+1.00,-35.00,-17.00,-4.00,-9.00,-16.00,+6.00,+6.00,+1.00,-24.00,-6.00,-4.00,-2.00
+9.00,+2.00,-6.00,-4.00,+5.00,+8.00,-1.00,+1.00,-3.00,-4.00,-2.00,-14.00,-18.00,-4.00,+0.00,-5.00
-11.00,-3.00,+2.00,+0.00,-8.00,-9.00,+0.00,+2.00,-12.00,-3.00,+4.00,+10.00,-12.00,+2.00,+3.00,-4.00
-6.00,-1.00,+3.00,+0.00,-12.00,-1.00,+0.00,+2.00,+18.00,+6.00,+5.00,+0.00,+16.00,-2.00,+0.00,+2.00
+25.00,+10.00,-6.00,-3.00,-4.00,-1.00,+1.00,-5.00,-6.00,-2.00,-1.00,-5.00,+0.00,-5.00,-9.00,-1.00
-2.00,-8.00,+0.00,+2.00,+9.00,-1.00,-1.00,+0.00,+1.00,+14.00,+1.00,+11.00,+10.00,+0.00,+4.00,+3.00
+0.00,+8.00,+1.00,-6.00,+4.00,-2.00,-1.00,+8.00,-5.00,-15.00,+3.00,-2.00,-3.00,+0.00,+1.00,+3.00
-6.00,+5.00,-1.00,-1.00,-12.00,+0.00,-4.00,-1.00,+9.00,+15.00,+12.00,-4.00,-9.00,-1.00,-4.00,-1.00
+19.00,-6.00,+0.00,+1.00,+13.00,+1.00,+0.00,+5.00,-5.00,-17.00,-30.00,-10.00,-2.00,+4.00,-3.00,-4.00
+20.00,+3.00,-2.00,+1.00,+10.00,-1.00,+1.00,-4.00,+2.00,+1.00,-3.00,+0.00,+9.00,-4.00,+1.00,+2.00
+0.00,-2.00,-2.00,+1.00,+3.00,-1.00,+0.00,+9.00,+3.00,-2.00,+9.00,+6.00,-8.00,-3.00,+0.00,-9.00
-21.00,-26.00,-2.00,-8.00,-41.00,-8.00,-2.00,+9.00,-5.00,+3.00,+1.00,-9.00,+2.00,-3.00,+0.00,-2.00
-8.00,+43.00,+7.00,+3.00,+34.00,-5.00,-6.00,-7.00,-14.00,-6.00,+1.00,+2.00,-4.00,-9.00,-9.00,-8.00
-4.00,+2.00,-4.00,+0.00,+4.00,+11.00,+1.00,+3.00,+18.00,+4.00,-3.00,+3.00,+10.00,+0.00,+2.00,+3.00
-2.00,-8.00,+3.00,+2.00,-11.00,-5.00,-3.00,-6.00,-13.00,+3.00,-9.00,-7.00,+0.00,+0.00,-2.00,-5.00
+15.00,+4.00,+2.00,+0.00,-4.00,+1.00,+0.00,-2.00,-3.00,-4.00,-1.00,+3.00,-15.00,-4.00,-1.00,-5.00
+1.00,-14.00,-2.00,-2.00,-16.00,-4.00,-2.00,-2.00,-6.00,+9.00,+8.00,+1.00,-3.00,+3.00,-1.00,-2.00
+2.00,-8.00,+1.00,-1.00,+23.00,+0.00,-1.00,-1.00,+0.00,-7.00,-4.00,+13.00,+12.00,+2.00,-1.00,-2.00
-14.00,+6.00,-1.00,+1.00,-58.00,-13.00,-2.00,+10.00,-3.00,+4.00,-2.00,-17.00,+0.00,+2.00,+0.00,+2.00
+4.00,-3.00,-6.00,+0.00,+52.00,+3.00,-2.00,-3.00,+22.00,+2.00,-7.00,+0.00,-1.00,+3.00,+1.00,-1.00
-13.00,-10.00,-5.00,-3.00,+16.00,+4.00,-1.00,-5.00,-12.00,-1.00,+5.00,+6.00,-3.00,+1.00,-1.00,-4.00
+17.00,+14.00,+5.00,+2.00,+1.00,+4.00,-1.00,-5.00,+8.00,-6.00,+3.00,-9.00,-9.00,+0.00,+2.00,+9.00
+13.00,+0.00,+4.00,+3.00,+13.00,+6.00,+4.00,+6.00,+3.00,-4.00,+0.00,+14.00,+15.00,-3.00,-2.00,-3.00
+5.00,+2.00,-7.00,-3.00,-34.00,-11.00,-3.00,-4.00,-12.00,-3.00,-5.00,-7.00,-18.00,-1.00,+1.00,+4.00
-20.00,-5.00,+1.00,+0.00,-5.00,+3.00,+2.00,+3.00,-3.00,+5.00,+5.00,-1.00,+5.00,-3.00,-4.00,-6.00
-1.00,-11.00,-7.00,-11.00,-8.00,-8.00,-3.00,-1.00,+0.00,-10.00,-5.00,+1.00,+2.00,-4.00,-3.00,-6.00
-9.00,-17.00,-5.00,-4.00,-19.00,-5.00,-4.00,-8.00,-9.00,+5.00,-8.00,-3.00,-6.00,-5.00,+2.00,+8.00
+0.00,+7.00,+5.00,+3.00,+11.00,+2.00,-1.00,+3.00,+10.00,+0.00,+0.00,+3.00,+5.00,-4.00,-3.00,-7.00
+1.00,+12.00,+2.00,+4.00,+10.00,+1.00,+0.00,-3.00,+11.00,+10.00,+6.00,+7.00,+5.00,-4.00,-5.00,-7.00
+2.00,-7.00,-3.00,+1.00,-3.00,-4.00,-4.00,+3.00,-26.00,-14.00,-6.00,-8.00,-6.00,+0.00,-1.00,+2.00
+12.00,-10.00,-8.00,-7.00,-1.00,-4.00,-1.00,-2.00,+16.00,+11.00,+8.00,+2.00,+2.00,+4.00,+1.00,+3.00
-23.00,-3.00,+2.00,-4.00,-6.00,-3.00,-1.00,-3.00,-2.00,-12.00,+13.00,+4.00,-4.00,+1.00,-2.00,-4.00
+7.00,-10.00,-2.00,-6.00,+2.00,+1.00,-1.00,-1.00,+4.00,+4.00,-6.00,-5.00,+1.00,+1.00,-3.00,-5.00
-18.00,+9.00,+3.00,+3.00,-23.00,-7.00,+2.00,+2.00,-4.00,-27.00,-36.00,-12.00,-3.00,+4.00,+1.00,+1.00
+15.00,+6.00,+0.00,+6.00,+34.00,+11.00,+0.00,+1.00,-2.00,-2.00,-5.00,-4.00,+0.00,+0.00,-2.00,+2.00
+14.00,+5.00,-6.00,-4.00,+3.00,+3.00,-1.00,-2.00,-3.00,-2.00,-2.00,+7.00,+0.00,+2.00,+1.00,-7.00
-10.00,-6.00,+1.00,-1.00,-5.00,-7.00,-3.00,-3.00,-6.00,+9.00,+10.00,-5.00,-6.00,-3.00,+0.00,-4.00
-5.00,-8.00,-3.00,-1.00,-34.00,+0.00,-2.00,-3.00,-1.00,+5.00,+11.00,+0.00,+1.00,-4.00,+2.00,-1.00
-10.00,+0.00,+1.00,+2.00,+50.00,-1.00,-1.00,-9.00,-1.00,+0.00,-2.00,-1.00,-1.00,-4.00,-2.00,-4.00
+5.00,+2.00,+5.00,+2.00,-49.00,-19.00,+0.00,+2.00,+4.00,+5.00,+0.00,+12.00,-3.00,+0.00,-2.00,+6.00
-1.00,-3.00,-2.00,+1.00,+22.00,+12.00,+2.00,+6.00,-2.00,-8.00,-4.00,-15.00,+18.00,-2.00,+1.00,+9.00
+5.00,-11.00,+3.00,+4.00,+28.00,+6.00,+2.00,+4.00,-6.00,+7.00,+4.00,+10.00,+9.00,+2.00,-3.00,-7.00
-6.00,-3.00,-3.00,+0.00,-2.00,+2.00,-2.00,-5.00,+5.00,+1.00,+2.00,-11.00,-17.00,+2.00,+4.00,+2.00
+7.00,+4.00,-9.00,-4.00,-8.00,+0.00,+0.00,+1.00,-4.00,-3.00,-2.00,-12.00,-7.00,-2.00,+0.00,-3.00
-4.00,-1.00,+1.00,+0.00,-8.00,-1.00,-1.00,+2.00,+10.00,-1.00,-4.00,-9.00,-15.00,-2.00,+0.00,+0.00
-1.00,+6.00,-4.00,-2.00,-12.00,-2.00,-1.00,-1.00,-5.00,+0.00,+5.00,+6.00,+0.00,-1.00,-2.00,-7.00
-9.00,-16.00,-8.00,-6.00,-8.00,-6.00,+3.00,+1.00,+6.00,+3.00,-1.00,+3.00,+8.00,+0.00,-4.00,-5.00
+3.00,-10.00,+5.00,+3.00,+8.00,+2.00,+0.00,-1.00,-15.00,-4.00,-7.00,-2.00,-1.00,-3.00,-2.00,+2.00
+8.00,+9.00,+1.00,+2.00,-12.00,+4.00,-1.00,-9.00,-15.00,-3.00,-5.00,+0.00,-2.00,-2.00,+1.00,+0.00
-2.00,-8.00,+3.00,+0.00,+14.00,-1.00,-1.00,+0.00,+15.00,+1.00,+2.00,-4.00,+2.00,-2.00,+2.00,+0.00
+26.00,+17.00,+2.00,-3.00,-6.00,-5.00,-1.00,-1.00,-7.00,-7.00,+3.00,+3.00,-5.00,-6.00,-4.00,-3.00
-2.00,-12.00,-9.00,-2.00,+5.00,+5.00,-1.00,-3.00,+3.00,-4.00,-4.00,-4.00,-2.00,+0.00,-3.00,-2.00
-2.00,-9.00,+0.00,-6.00,-10.00,-8.00,-4.00,-3.00,-10.00,+3.00,+2.00,+7.00,+5.00,+0.00,-1.00,+0.00
+5.00,-2.00,-3.00,+2.00,+16.00,+8.00,-3.00,-1.00,-14.00,-3.00,-6.00,-5.00,-5.00,-4.00,-2.00,-11.00
+8.00,+1.00,-1.00,+4.00,+5.00,+4.00,-1.00,-1.00,+18.00,+0.00,-5.00,-4.00,+8.00,+1.00,+0.00,+1.00
-18.00,+6.00,+4.00,-1.00,-28.00,-2.00,-2.00,-7.00,+0.00,+7.00,-3.00,-10.00,-13.00,-3.00,-3.00,-1.00
+11.00,-1.00,-5.00,-3.00,-14.00,-9.00,+3.00,+7.00,+3.00,+7.00,+23.00,+4.00,+11.00,+0.00,-2.00,+0.00
-1.00,+4.00,+7.00,-2.00,-31.00,-2.00,+4.00,-1.00,-2.00,-19.00,-29.00,+2.00,-12.00,-2.00,-3.00,+4.00
-13.00,+1.00,-5.00,+0.00,+85.00,+13.00,+0.00,-2.00,-22.00,-33.00,-2.00,-14.00,+0.00,-6.00,-5.00,-14.00
-4.00,-1.00,-1.00,+2.00,+34.00,+3.00,-2.00,-3.00,+7.00,-14.00,-17.00,+8.00,+14.00,-2.00,-3.00,+0.00
-8.00,+4.00,+2.00,+0.00,-15.00,-2.00,-5.00,-2.00,+3.00,+1.00,+3.00,-10.00,-28.00,-7.00,-1.00,+1.00
+2.00,+7.00,+4.00,+1.00,-7.00,-4.00,-2.00,-1.00,-8.00,+3.00,+8.00,-5.00,-5.00,-2.00,+1.00,+2.00
-6.00,-8.00,+1.00,-3.00,-33.00,-10.00,-2.00,-6.00,+0.00,+12.00,+5.00,+8.00,+1.00,+2.00,+2.00,-1.00
-2.00,-3.00,-8.00,-5.00,-20.00,-7.00,+1.00,+15.00,-3.00,+15.00,+4.00,+8.00,+5.00,+2.00,+2.00,-1.00
-16.00,-5.00,+0.00,+3.00,+14.00,+1.00,+0.00,-4.00,-1.00,-26.00,-13.00,+3.00,+6.00,+4.00,-1.00,-1.00
+9.00,-5.00,-2.00,+3.00,+3.00,-4.00,+3.00,+6.00,-9.00,+3.00,+5.00,+5.00,+11.00,+2.00,+1.00,+1.00
-4.00,-5.00,-10.00,-9.00,-17.00,+1.00,-1.00,+0.00,+11.00,+15.00,+0.00,+5.00,-5.00,-2.00,-1.00,+6.00
+4.00,+18.00,-3.00,-4.00,+12.00,-2.00,-3.00,-7.00,-1.00,-3.00,+4.00,-1.00,+1.00,+1.00,+0.00,-4.00
-12.00,-18.00,+0.00,+1.00,-10.00,+0.00,+0.00,-1.00,+14.00,+2.00,+2.00,+7.00,+0.00,+0.00,+1.00,-2.00
+2.00,+11.00,+0.00,+1.00,+12.00,-3.00,-2.00,+2.00,+3.00,-8.00,-5.00,-8.00,-9.00,-1.00,-6.00,-7.00
-4.00,+6.00,+8.00,+2.00,-17.00,-4.00,-2.00,+1.00,-23.00,-4.00,-1.00,+0.00,-2.00,+2.00,-1.00,+3.00
+2.00,-6.00,-2.00,+1.00,+3.00,+3.00,-3.00,-3.00,-1.00,+12.00,-5.00,-7.00,-6.00,+0.00,-3.00,-4.00
-2.00,-2.00,+0.00,+0.00,+3.00,+4.00,-3.00,-2.00,-3.00,-13.00,-7.00,-5.00,-3.00,-2.00,+2.00,+1.00
-8.00,-1.00,-7.00,-5.00,-1.00,-13.00,-3.00,-12.00,-1.00,+16.00,+11.00,+1.00,+5.00,-2.00,+0.00,+1.00
-5.00,-2.00,+0.00,+2.00,+4.00,+6.00,+1.00,+1.00,+6.00,+0.00,-8.00,+0.00,-23.00,-5.00,+1.00,+3.00
+9.00,+8.00,-3.00,-4.00,-7.00,-1.00,+3.00,+1.00,-8.00,-3.00,+1.00,+4.00,+17.00,+2.00,-3.00,-7.00
+3.00,+7.00,-1.00,-3.00,-17.00,+1.00,+3.00,-5.00,-3.00,-4.00,-8.00,-4.00,-7.00,-1.00,+0.00,+1.00
-11.00,-15.00,+0.00,+2.00,+47.00,+5.00,+2.00,+2.00,-45.00,-11.00,-1.00,-20.00,-11.00,-3.00,+0.00,-9.00
-29.00,-11.00,-8.00,-6.00,-51.00,-15.00,-7.00,-6.00,+39.00,+7.00,+3.00,+7.00,+6.00,-3.00,-1.00,+0.00
+3.00,+2.00,+8.00,+7.00,+26.00,+6.00,+0.00,+2.00,+24.00,-10.00,-1.00,-16.00,-22.00,-1.00,+2.00,+5.00
+2.00,+2.00,-5.00,+1.00,+12.00,-3.00,+0.00,+0.00,+0.00,+22.00,+3.00,+11.00,+5.00,-1.00,-4.00,-1.00
+1.00,+2.00,-6.00,-6.00,-19.00,+0.00,-3.00,-2.00,+6.00,-6.00,-3.00,+3.00,+8.00,-4.00,-3.00,+2.00
+4.00,-4.00,-6.00,-4.00,+0.00,-2.00,-3.00,-7.00,-29.00,-4.00,-3.00,-3.00,-4.00,+0.00,-3.00,-6.00
-4.00,-4.00,-3.00,-1.00,-20.00,-1.00,-3.00,-6.00,-7.00,-15.00,-6.00,+1.00,-8.00,-5.00,-5.00,-1.00
+1.00,-4.00,+3.00,-1.00,+0.00,-1.00,-1.00,+2.00,+9.00,+10.00,+9.00,-1.00,+18.00,+2.00,-4.00,+0.00
+2.00,+14.00,-6.00,-4.00,+1.00,+1.00,-1.00,-1.00,-1.00,+4.00,+6.00,+2.00,+6.00,-1.00,+0.00,+2.00
+4.00,+32.00,+13.00,+4.00,-9.00,-3.00,+0.00,-1.00,-8.00,+1.00,-2.00,-1.00,+8.00,+0.00,+2.00,-3.00
+0.00,-20.00,-6.00,-4.00,-3.00,-4.00,+0.00,-2.00,-5.00,+5.00,+4.00,-2.00,+6.00,+1.00,+2.00,+0.00
-2.00,-9.00,-10.00,-6.00,+6.00,+0.00,+1.00,+1.00,-12.00,-13.00,-12.00,-3.00,-9.00,+1.00,-1.00,-4.00
-2.00,-14.00,-6.00,-5.00,-13.00,-1.00,+2.00,+0.00,+18.00,+13.00,+4.00,+5.00,-20.00,+2.00,-1.00,+2.00
-3.00,-4.00,+5.00,+5.00,+16.00,+3.00,+3.00,-2.00,+6.00,-5.00,-3.00,-6.00,+4.00,+0.00,-3.00,+0.00
+5.00,+22.00,+9.00,+0.00,-10.00,-10.00,+0.00,-4.00,-27.00,-11.00,+1.00,+4.00,+1.00,+0.00,-3.00,-4.00
-3.00,-2.00,+1.00,-4.00,-11.00,-8.00,-4.00,-4.00,+18.00,+11.00,-1.00,-6.00,-13.00,-6.00,+2.00,+7.00
+2.00,+6.00,-1.00,+2.00,+29.00,+15.00,+1.00,-2.00,+15.00,+5.00,+10.00,+14.00,+9.00,-2.00,-1.00,-5.00
-7.00,-26.00,-3.00,+1.00,+1.00,-1.00,-1.00,-1.00,-30.00,-16.00,-9.00,-6.00,-4.00,-3.00,-1.00,-1.00
-3.00,+19.00,+2.00,+3.00,+17.00,+3.00,-1.00,+1.00,+30.00,+6.00,+1.00,-7.00,-10.00,-5.00,-1.00,+0.00
+4.00,-9.00,-1.00,-3.00,-24.00,-4.00,+0.00,+1.00,-13.00,+2.00,-5.00,-7.00,-5.00,-2.00,-5.00,-7.00
+2.00,+4.00,-3.00,-8.00,-26.00,-10.00,-4.00,+2.00,+3.00,-3.00,-2.00,-7.00,+0.00,+1.00,+0.00,+0.00
+6.00,+5.00,+2.00,+1.00,-30.00,+7.00,+3.00,+6.00,+10.00,+2.00,+0.00,+9.00,+13.00,+0.00,-3.00,+2.00
-4.00,-11.00,+3.00,+6.00,+48.00,+9.00,+1.00,-1.00,-38.00,-20.00,-5.00,+12.00,+22.00,-1.00,-3.00,-1.00
-2.00,+2.00,-5.00,-3.00,+8.00,+1.00,+0.00,-2.00,+23.00,+5.00,+1.00,-7.00,-9.00,+1.00,+2.00,+1.00
-6.00,-5.00,-4.00,-2.00,-2.00,-5.00,-5.00,-5.00,-7.00,-2.00,-4.00,-5.00,-15.00,-4.00,-1.00,+0.00
-3.00,+2.00,-3.00,-3.00,+6.00,+4.00,-4.00,-9.00,-2.00,+2.00,+0.00,+1.00,+5.00,+0.00,+1.00,-1.00
+3.00,-9.00,-5.00,-4.00,-25.00,-6.00,-1.00,+2.00,+8.00,-6.00,+0.00,+0.00,-14.00,-2.00,+0.00,+1.00
-12.00,+1.00,+3.00,+3.00,+11.00,+2.00,-2.00,+1.00,-4.00,-8.00,-1.00,+0.00,+6.00,-4.00,-3.00,-2.00
+5.00,-1.00,+2.00,+3.00,+2.00,-3.00,+0.00,+3.00,-18.00,-2.00,-1.00,+2.00,+9.00,+2.00,+1.00,-1.00
+0.00,-1.00,+1.00,-4.00,-7.00,-8.00,-3.00,+1.00,+5.00,+1.00,-1.00,-7.00,+0.00,+2.00,+1.00,-2.00
-5.00,+1.00,+2.00,+1.00,+0.00,+0.00,+1.00,-3.00,+7.00,+8.00,-4.00,+1.00,+1.00,+1.00,+0.00,-1.00
-10.00,-6.00,-5.00,-2.00,+17.00,+1.00,-2.00,-5.00,-7.00,-8.00,-1.00,+4.00,-1.00,-1.00,+0.00,+0.00
-12.00,+4.00,-1.00,-5.00,-22.00,-7.00,-2.00,+9.00,-2.00,-8.00,-2.00,+2.00,+2.00,+1.00,-4.00,-4.00
+5.00,-41.00,-2.00,-2.00,+24.00,+2.00,+0.00,+6.00,-11.00,+7.00,+6.00,+0.00,-10.00,-3.00,-3.00,-3.00
+3.00,+8.00,-1.00,-2.00,+3.00,-1.00,-2.00,-1.00,+11.00,+11.00,-3.00,+4.00,+6.00,+6.00,+2.00,+7.00
+7.00,+5.00,+1.00,-1.00,-6.00,-4.00,+0.00,-3.00,+23.00,-30.00,-6.00,-8.00,-12.00,-1.00,-2.00,+4.00
+5.00,+1.00,+1.00,-1.00,-29.00,-3.00,+1.00,-6.00,-2.00,+25.00,+1.00,-5.00,+3.00,-1.00,-5.00,-2.00
-3.00,+6.00,-5.00,+1.00,+34.00,+1.00,+1.00,-2.00,+27.00,+13.00,-2.00,-3.00,-9.00,-3.00,-3.00,+0.00
-10.00,-5.00,-4.00,+1.00,+9.00,+3.00,+0.00,-1.00,-16.00,-3.00,+1.00,+5.00,+2.00,-3.00,+0.00,+0.00
-5.00,-6.00,+6.00,+4.00,-25.00,-7.00,-2.00,-3.00,-26.00,-10.00,-8.00,-9.00,-5.00,-2.00,+2.00,-2.00
+10.00,+1.00,-3.00,-3.00,-4.00,+5.00,-1.00,-5.00,+44.00,-3.00,-2.00,-9.00,-14.00,-3.00,+2.00,+9.00
-21.00,-7.00,+4.00,+4.00,+27.00,-1.00,-1.00,+9.00,-33.00,-5.00,+4.00,+2.00,+2.00,+3.00,-2.00,-2.00
+11.00,-9.00,-9.00,-8.00,-3.00,+8.00,-2.00,-5.00,+1.00,+4.00,+0.00,-1.00,+4.00,-3.00,-2.00,-9.00
+3.00,+11.00,-2.00,-3.00,-8.00,+3.00,+7.00,+5.00,+8.00,+2.00,-2.00,-3.00,+7.00,+0.00,+2.00,+2.00
-7.00,-5.00,+0.00,+2.00,+7.00,-10.00,-17.00,-11.00,-4.00,-8.00,+2.00,+15.00,+2.00,+1.00,-1.00,-3.00
+2.00,+12.00,+5.00,-1.00,-30.00,-8.00,-1.00,-4.00,+9.00,+6.00,-2.00,-2.00,+13.00,+1.00,-2.00,-1.00
-5.00,+0.00,+3.00,+1.00,-7.00,-6.00,-1.00,-5.00,-13.00,-10.00,-5.00,-22.00,-29.00,-2.00,-2.00,-3.00
+3.00,+0.00,+0.00,+3.00,+17.00,+4.00,+4.00,+2.00,-26.00,-1.00,+0.00,+8.00,+7.00,-2.00,-4.00,-2.00
+2.00,-2.00,+0.00,-4.00,-15.00,+2.00,+4.00,+4.00,-4.00,+0.00,+1.00,+5.00,+8.00,-2.00,+0.00,-6.00
-4.00,-7.00,-7.00,-5.00,-9.00,-2.00,+1.00,-3.00,+9.00,-5.00,-4.00,-2.00,-7.00,-2.00,+1.00,-1.00
-8.00,-13.00,-2.00,-3.00,-3.00,-1.00,-2.00,+1.00,+2.00,+3.00,+0.00,+6.00,+7.00,+1.00,+1.00,-1.00
+16.00,+11.00,+2.00,+3.00,-5.00,+1.00,-3.00,-2.00,-4.00,-1.00,-4.00,+2.00,+0.00,-2.00,-6.00,-4.00
-9.00,-14.00,+1.00,+4.00,+9.00,+2.00,+1.00,-1.00,+8.00,-2.00,+0.00,-6.00,-6.00,+3.00,-1.00,+5.00
+19.00,+30.00,-2.00,-1.00,-3.00,+0.00,-1.00,-1.00,-27.00,-2.00,+4.00,+5.00,+5.00,+0.00,+1.00,-2.00
-10.00,-28.00,+2.00,-1.00,-6.00,-5.00,+1.00,+2.00,+16.00,-9.00,-7.00,-10.00,+1.00,-6.00,-3.00,+0.00
-2.00,-12.00,-1.00,-1.00,-17.00,+6.00,-4.00,+0.00,+3.00,+16.00,+2.00,+0.00,-2.00,+1.00,+3.00,+4.00
+17.00,+19.00,+1.00,+3.00,+28.00,+7.00,+1.00,-1.00,-17.00,-13.00,-4.00,+0.00,+4.00,+0.00,-1.00,-4.00
-9.00,+14.00,+2.00,-3.00,-4.00,-1.00,+1.00,-3.00,-4.00,-4.00,-5.00,-2.00,-7.00,-4.00,+1.00,+4.00
+10.00,+8.00,-2.00,-5.00,-38.00,-14.00,-2.00,-3.00,+21.00,+12.00,+6.00,+0.00,-10.00,-3.00,-2.00,+2.00
-9.00,-11.00,-2.00,-4.00,+4.00,-5.00,-2.00,-1.00,-45.00,-16.00,+1.00,+3.00,-3.00,-3.00,-5.00,-7.00
-5.00,-7.00,-4.00,-3.00,-28.00,-12.00,-1.00,-3.00,+39.00,+18.00,+7.00,+17.00,+16.00,+3.00,+0.00,+5.00
+16.00,+15.00,+3.00,+7.00,+42.00,+17.00,+1.00,-2.00,+8.00,+0.00,+3.00,-13.00,+17.00,+2.00,-1.00,+1.00
-12.00,-10.00,+1.00,+4.00,+8.00,+12.00,+0.00,+0.00,-62.00,-18.00,-7.00,-8.00,-17.00,+2.00,-2.00,-12.00
-2.00,+0.00,+0.00,-3.00,-4.00,-6.00,-2.00,+3.00,+12.00,+20.00,-1.00,-15.00,+4.00,-1.00,+2.00,+0.00
-2.00,-2.00,-4.00,-6.00,-7.00,-3.00,+13.00,+2.00,+38.00,-1.00,-5.00,+3.00,-10.00,-3.00,+1.00,-3.00
-2.00,-1.00,-3.00,-5.00,-22.00,-11.00,-23.00,-5.00,+5.00,-1.00,-3.00,+10.00,-3.00,+0.00,+0.00,-1.00
+7.00,+3.00,+0.00,+1.00,-8.00,-7.00,-3.00,-15.00,+7.00,-4.00,-2.00,-5.00,+10.00,-6.00,+1.00,+3.00
+3.00,+2.00,+1.00,+4.00,+21.00,+2.00,+0.00,+0.00,-26.00,-16.00,-2.00,+0.00,-8.00,-5.00,-4.00,-8.00
-8.00,-1.00,+1.00,-1.00,+1.00,+6.00,-1.00,-6.00,-26.00,-9.00,-1.00,-3.00,+2.00,-1.00,-5.00,-5.00
-21.00,-13.00,-6.00,-8.00,-25.00,-7.00,+5.00,+3.00,+20.00,+3.00,+0.00,+5.00,+2.00,+0.00,-3.00,+3.00
+2.00,+23.00,-4.00,-3.00,+16.00,+6.00,-4.00,+0.00,-46.00,-12.00,-1.00,+3.00,-5.00,-1.00,-5.00,-14.00
+4.00,+10.00,+2.00,+2.00,+6.00,+1.00,+1.00,-1.00,+30.00,+8.00,+7.00,+6.00,-1.00,+5.00,+6.00,+10.00
-11.00,-5.00,+6.00,+2.00,+7.00,+1.00,-1.00,-1.00,+1.00,+6.00,+2.00,-10.00,-4.00,-5.00,+0.00,+7.00
-1.00,-14.00,-3.00,+1.00,-32.00,-9.00,+1.00,-2.00,-12.00,-5.00,+11.00,+7.00,-10.00,-3.00,-3.00,-9.00
+2.00,+2.00,-2.00,+0.00,-20.00,-3.00,+0.00,+1.00,+16.00,+1.00,-18.00,-6.00,+6.00,-3.00,-1.00,+2.00
-10.00,+9.00,-2.00,+4.00,+70.00,+19.00,+0.00,-12.00,-5.00,-6.00,-6.00,+18.00,+16.00,-1.00,-2.00,-9.00
+7.00,+6.00,+3.00,+3.00,-4.00,-2.00,-2.00,+5.00,-2.00,-5.00,-6.00,-36.00,-31.00,-6.00,-3.00,+3.00
-2.00,-20.00,+0.00,+1.00,+19.00,+6.00,-2.00,-6.00,-13.00,+12.00,-1.00,-12.00,-16.00,-4.00,-1.00,+1.00
-4.00,-12.00,-6.00,-7.00,-24.00,-10.00,-1.00,-2.00,+10.00,+1.00,+3.00,+3.00,+11.00,+0.00,+1.00,+2.00
-12.00,-40.00,-1.00,-2.00,-43.00,-9.00,+0.00,+1.00,+0.00,-5.00,-2.00,-7.00,-7.00,+2.00,+0.00,-4.00
+26.00,+14.00,+4.00,+1.00,+11.00,-3.00,-1.00,+1.00,-9.00,+4.00,+0.00,+8.00,+6.00,+4.00,+2.00,-1.00
-9.00,+7.00,+2.00,+9.00,+70.00,+5.00,+5.00,+6.00,-59.00,-29.00,-3.00,+17.00,-1.00,-1.00,-1.00,-6.00
-6.00,-9.00,-2.00,-4.00,+3.00,-1.00,+0.00,+2.00,+17.00,+26.00,+10.00,-8.00,+26.00,+1.00,+0.00,-2.00
+6.00,+6.00,-1.00,-2.00,+22.00,+1.00,+0.00,-2.00,+43.00,+1.00,+1.00,-8.00,-11.00,+2.00,+0.00,+8.00
