-12.00,-4.00,-2.00,-2.00,-4.00,-3.00,+0.00,-3.00,+0.00,-3.00,+0.00,-1.00,-1.00,-1.00,+0.00,-1.00
+11.00,+5.00,+2.00,+0.00,+2.00,-2.00,+1.00,+16.00,-4.00,-8.00,+0.00,+4.00,+6.00,+0.00,-3.00,-9.00
+0.00,-4.00,-4.00,+2.00,+1.00,-1.00,+0.00,-5.00,-3.00,-6.00,-3.00,-3.00,-1.00,-3.00,+1.00,+5.00
-9.00,-3.00,-4.00,-2.00,+0.00,-1.00,+1.00,+0.00,+10.00,-1.00,-2.00,-6.00,-6.00,+0.00,+1.00,+6.00
+4.00,+3.00,+5.00,+4.00,+2.00,+1.00,-4.00,-2.00,-5.00,+14.00,+2.00,+0.00,+1.00,+0.00,-4.00,-6.00
-2.00,-17.00,-5.00,-4.00,-2.00,-1.00,+2.00,+7.00,+6.00,+19.00,+3.00,-5.00,-5.00,-1.00,+1.00,+1.00
+5.00,+10.00,+2.00,+0.00,-1.00,-4.00,-3.00,-11.00,-3.00,+3.00,-3.00,+2.00,+1.00,-1.00,-1.00,-11.00
-6.00,+3.00,+0.00,+1.00,-2.00,-1.00,+1.00,-1.00,-9.00,-15.00,-1.00,+5.00,+5.00,+0.00,-1.00,+4.00
-6.00,+1.00,+3.00,+2.00,+0.00,-1.00,-1.00,+3.00,+8.00,-2.00,-1.00,+1.00,+10.00,+0.00,-1.00,+1.00
-1.00,+10.00,+6.00,+3.00,-2.00,-3.00,-2.00,-3.00,+0.00,-3.00,+0.00,-3.00,-10.00,-3.00,-3.00,-2.00
-8.00,-8.00,+2.00,-2.00,-2.00,-1.00,+0.00,-1.00,+3.00,-9.00,-5.00,-9.00,+4.00,+0.00,+3.00,+3.00
-3.00,+5.00,-4.00,+2.00,+0.00,-1.00,-2.00,+2.00,-14.00,+1.00,-4.00,+5.00,+8.00,-3.00,+0.00,+0.00
-30.00,-14.00,+3.00,+5.00,+3.00,+0.00,-3.00,-7.00,-29.00,-15.00,-4.00,-3.00,-4.00,-2.00,-2.00,-5.00
+1.00,+3.00,+3.00,+2.00,+3.00,-2.00,-2.00,-1.00,+37.00,+8.00,+3.00,+0.00,+5.00,+3.00,+1.00,+8.00
-5.00,-10.00,-9.00,-13.00,-11.00,-10.00,-2.00,+0.00,-5.00,-3.00,-1.00,+6.00,-4.00,+0.00,+0.00,-1.00
-10.00,-25.00,-11.00,-12.00,-1.00,-3.00,-1.00,-8.00,+10.00,+2.00,-1.00,-10.00,-14.00,-1.00,+1.00,+3.00
+4.00,+40.00,+3.00,-4.00,-3.00,-3.00,-6.00,-6.00,-2.00,+8.00,+0.00,+6.00,-3.00,+0.00,-3.00,-1.00
+22.00,-6.00,-2.00,+4.00,-15.00,-1.00,+2.00,+12.00,-5.00,-10.00,-2.00,-2.00,+4.00,+1.00,+1.00,+0.00
-6.00,+1.00,+5.00,+3.00,+30.00,+6.00,-1.00,-1.00,-2.00,-4.00,-6.00,+2.00,+7.00,-1.00,-1.00,-1.00
-1.00,-8.00,+2.00,+4.00,-1.00,-2.00,-1.00,-5.00,-3.00,+1.00,-3.00,-1.00,+4.00,-1.00,-3.00,-9.00
+4.00,+2.00,-4.00,-1.00,+0.00,+1.00,+2.00,+2.00,-2.00,-1.00,+1.00,+0.00,+0.00,+0.00,+2.00,+7.00
-8.00,-8.00,-1.00,-1.00,+8.00,+0.00,-1.00,+6.00,-13.00,-19.00,-6.00,-4.00,+0.00,-1.00,-4.00,-7.00
+1.00,+36.00,+9.00,+6.00,-6.00,-1.00,+0.00,+2.00,-8.00,-7.00,-1.00,-1.00,-5.00,-2.00,-3.00,-6.00
-8.00,-7.00,+0.00,+0.00,+6.00,-1.00,-3.00,-6.00,-32.00,+14.00,+3.00,+7.00,+7.00,-1.00,-4.00,-5.00
+19.00,-2.00,+0.00,-2.00,-4.00,-2.00,+1.00,+2.00,+48.00,+19.00,+0.00,+0.00,-15.00,+2.00,+4.00,+5.00
-13.00,+2.00,-8.00,-9.00,-7.00,-5.00,-3.00,-1.00,-22.00,-11.00,-2.00,-2.00,+20.00,+0.00,+0.00,-5.00
+19.00,-15.00,+0.00,+2.00,-5.00,-1.00,+3.00,-12.00,+39.00,+23.00,+7.00,+1.00,+5.00,-2.00,+0.00,+9.00
-3.00,+2.00,+5.00,+2.00,+4.00,+5.00,-1.00,+7.00,-44.00,-22.00,+2.00,+1.00,+1.00,+1.00,-3.00,-14.00
+2.00,-5.00,-3.00,-3.00,-12.00,-3.00,+1.00,-1.00,+1.00,+3.00,-4.00,-1.00,+5.00,+1.00,+0.00,-2.00
-31.00,-7.00,-7.00,-9.00,-16.00,-5.00,-4.00,+1.00,-37.00,-8.00,+1.00,+18.00,+0.00,+1.00,+0.00,-3.00
-7.00,+16.00,+1.00,+3.00,+30.00,+9.00,-2.00,-7.00,-1.00,-11.00,-2.00,-10.00,+9.00,+2.00,-7.00,-10.00
+5.00,-14.00,+1.00,+0.00,-5.00,-2.00,+0.00,-4.00,-7.00,+3.00,-1.00,-10.00,-31.00,-7.00,+1.00,+5.00
-2.00,-5.00,-5.00,+0.00,+9.00,+5.00,+1.00,+4.00,+63.00,+19.00,+8.00,+3.00,-1.00,+4.00,+4.00,+6.00
+1.00,-26.00,-2.00,-5.00,-1.00,-1.00,-3.00,-10.00,-11.00,-5.00,-4.00,+1.00,+20.00,-4.00,-1.00,-4.00
-18.00,-4.00,+0.00,+3.00,-14.00,-4.00,-2.00,+11.00,-32.00,-2.00,+1.00,-9.00,-32.00,-2.00,-1.00,-3.00
-5.00,+6.00,+5.00,+2.00,-4.00,-4.00,-2.00,-3.00,+1.00,-8.00,-5.00,+24.00,+3.00,+1.00,-5.00,-3.00
+2.00,-10.00,-13.00,-11.00,-3.00,-5.00,-2.00,+1.00,-11.00,-10.00,-4.00,-24.00,+8.00,-8.00,-2.00,-5.00
+3.00,+4.00,-9.00,-6.00,+3.00,+1.00,+3.00,+5.00,+16.00,+3.00,-7.00,-11.00,-35.00,+3.00,+2.00,+8.00
-12.00,+22.00,+4.00,-1.00,-20.00,-4.00,-3.00,-2.00,-4.00,+1.00,+3.00,-10.00,+28.00,-3.00,-3.00,+0.00
+3.00,+12.00,+6.00,+4.00,+4.00,+5.00,-1.00,+3.00,+26.00,+2.00,+3.00,+5.00,+16.00,+2.00,+0.00,-2.00
-2.00,-5.00,+5.00,+8.00,+13.00,+5.00,+7.00,+4.00,-8.00,+7.00,-8.00,-10.00,-30.00,-6.00,-2.00,+5.00
-25.00,+11.00,+1.00,-3.00,-7.00,-12.00,-5.00,+9.00,-12.00,-35.00,-8.00,-1.00,+11.00,+5.00,+0.00,-3.00
-1.00,-19.00,-1.00,-1.00,+16.00,+4.00,-3.00,+2.00,+24.00,+3.00,+2.00,+7.00,-4.00,-1.00,+5.00,+14.00
-2.00,+4.00,-2.00,-3.00,-14.00,-10.00,+0.00,+5.00,-61.00,-8.00,-2.00,-6.00,-6.00,-4.00,-1.00,-8.00
-8.00,-10.00,+1.00,-3.00,-2.00,+1.00,-4.00,+12.00,+65.00,+29.00,+4.00,+9.00,+11.00,+1.00,+2.00,+14.00
-19.00,-2.00,-9.00,-4.00,-26.00,-9.00,+5.00,+11.00,+45.00,+38.00,+13.00,+7.00,+3.00,+0.00,+2.00,+4.00
+5.00,-5.00,-3.00,+0.00,+11.00,+5.00,+2.00,-3.00,-6.00,-48.00,-13.00,-6.00,-16.00,-4.00,-6.00,-13.00
+4.00,+7.00,+2.00,+3.00,+10.00,+11.00,+2.00,+5.00,+12.00,+11.00,-8.00,+2.00,+13.00,+3.00,+5.00,+0.00
+19.00,+13.00,+0.00,-4.00,+0.00,-1.00,+2.00,+0.00,-66.00,-31.00,-8.00,+4.00,+4.00,-1.00,-4.00,-5.00
+5.00,-6.00,+4.00,+6.00,+6.00,+6.00,-2.00,-9.00,+49.00,+23.00,+6.00,-12.00,-31.00,-1.00,-4.00,-7.00
+7.00,+16.00,-1.00,+1.00,-21.00,-8.00,-4.00,-4.00,-7.00,-4.00,+2.00,+29.00,+44.00,+1.00,-3.00,+0.00
-13.00,-47.00,+4.00,-4.00,-15.00,-8.00,+2.00,+2.00,+19.00,+18.00,-4.00,-33.00,-62.00,+8.00,-1.00,+3.00
+2.00,+37.00,-9.00,-8.00,+10.00,+0.00,-2.00,-7.00,-24.00,-12.00,-5.00,-15.00,+19.00,-32.00,-17.00,-20.00
+6.00,-1.00,-2.00,+2.00,+1.00,+0.00,-3.00,-10.00,-77.00,-10.00,-21.00,-19.00,-5.00,+4.00,-7.00,-20.00
+14.00,-1.00,-1.00,-2.00,-4.00,-2.00,+0.00,+0.00,+26.00,+22.00,+8.00,+7.00,+13.00,+3.00,+30.00,+2.00
-14.00,+8.00,-2.00,+0.00,+4.00,-4.00,-2.00,-8.00,+20.00,+10.00,+13.00,-2.00,-24.00,-15.00,-36.00,+13.00
-2.00,+0.00,+6.00,+0.00,-30.00,-18.00,-3.00,-6.00,-12.00,-45.00,-7.00,+6.00,+11.00,+0.00,-4.00,-3.00
+18.00,+14.00,+0.00,-5.00,+1.00,+11.00,+5.00,+0.00,-22.00,+18.00,+4.00,+12.00,+14.00,+4.00,+12.00,-5.00
-35.00,-11.00,-23.00,-10.00,+18.00,+38.00,-2.00,+20.00,-44.00,-7.00,-9.00,-16.00,-51.00,-4.00,-22.00,-12.00
+22.00,-3.00,+12.00,+6.00,+5.00,-34.00,-4.00,+5.00,-88.00,-45.00,-11.00,+7.00,+67.00,+6.00,+5.00,-22.00
-19.00,-38.00,-2.00,+2.00,+2.00,+24.00,+4.00,+3.00,+35.00,-43.00,+0.00,+9.00,-8.00,+16.00,+7.00,+12.00
+0.00,+37.00,+5.00,+3.00,+26.00,-18.00,+4.00,-5.00,+30.00,+49.00,+5.00,+6.00,+1.00,-5.00,-7.00,-4.00
+8.00,-8.00,-3.00,-8.00,-70.00,-48.00,-20.00,-14.00,+40.00,+53.00,+9.00,+0.00,+10.00,+0.00,+3.00,+8.00
-37.00,-7.00,-6.00,+2.00,+26.00,+21.00,+0.00,+13.00,-28.00,-26.00,+0.00,-4.00,-23.00,+14.00,+25.00,+7.00
-11.00,-23.00,-1.00,+1.00,+2.00,+35.00,+7.00,-4.00,+11.00,+19.00,+2.00,+14.00,+38.00,+5.00,-19.00,-20.00
+34.00,+7.00,+13.00,+11.00,+48.00,-23.00,-4.00,+3.00,-41.00,-40.00,-6.00,-13.00,-19.00,-20.00,+1.00,-2.00
+3.00,-11.00,+1.00,+1.00,+8.00,-86.00,-1.00,-3.00,+31.00,+3.00,-10.00,-41.00,-76.00,-2.00,-8.00,+5.00
-8.00,+46.00,-18.00,-15.00,-12.00,+53.00,+8.00,-5.00,+72.00,+34.00,+8.00,+18.00,+90.00,-12.00,+4.00,+14.00
-4.00,-61.00,-7.00,-2.00,-4.00,-33.00,-11.00,-9.00,-61.00,-22.00,-6.00,-19.00,-40.00,+0.00,+0.00,-24.00
+17.00,+7.00,+8.00,+6.00,+0.00,+50.00,+23.00,+16.00,+31.00,-9.00,-2.00,+13.00,+5.00,-20.00,-14.00,+29.00
+17.00,+57.00,+3.00,-3.00,-19.00,+5.00,-13.00,-3.00,-21.00,-8.00,-5.00,-4.00,-15.00,+49.00,+13.00,-1.00
+47.00,-30.00,+1.00,+3.00,+8.00,-9.00,-4.00,-2.00,+57.00,+13.00,+4.00,+4.00,-20.00,+5.00,+0.00,+10.00
-16.00,+51.00,+6.00,+6.00,+0.00,+15.00,+6.00,+1.00,+24.00,+21.00,+3.00,-1.00,-10.00,+4.00,+16.00,-2.00
-19.00,-79.00,-12.00,-6.00,-7.00,+14.00,-5.00,-11.00,-55.00,-12.00,-6.00,-11.00,+7.00,-6.00,-13.00,-25.00
-18.00,-20.00,-12.00,-10.00,-18.00,-8.00,+7.00,+39.00,+52.00,+8.00,+10.00,+5.00,-2.00,-14.00,-6.00,+7.00
-2.00,+25.00,+3.00,-3.00,-8.00,-8.00,+7.00,-8.00,-63.00,-27.00,-15.00,-3.00,+8.00,+3.00,+1.00,-6.00
+31.00,+33.00,+4.00,+4.00,+4.00,+3.00,-16.00,-1.00,-20.00,+44.00,+5.00,+23.00,+28.00,+11.00,+1.00,-17.00
-11.00,-31.00,-2.00,-2.00,-73.00,+69.00,-4.00,-1.00,-4.00,-10.00,+4.00,-12.00,-35.00,-1.00,-1.00,+18.00
+13.00,+1.00,-5.00,-1.00,+78.00,-50.00,-34.00,-23.00,+33.00,+31.00,-9.00,+34.00,+57.00,+8.00,+11.00,-25.00
-13.00,-20.00,-9.00,-1.00,+19.00,+12.00,+19.00,+17.00,-22.00,-12.00,-2.00,-36.00,-23.00,-23.00,+0.00,+18.00
-29.00,-16.00,-8.00,-5.00,+30.00,-7.00,+16.00,-5.00,-29.00,+8.00,+11.00,+12.00,-3.00,-2.00,-17.00,-4.00
-17.00,-5.00,+13.00,+10.00,+13.00,+26.00,+35.00,+0.00,+38.00,-1.00,-2.00,-8.00,-13.00,-11.00,+5.00,+5.00
-8.00,-27.00,+7.00,+7.00,-12.00,+8.00,-6.00,-18.00,-39.00,-31.00,-4.00,+23.00,+25.00,+1.00,-8.00,+20.00
+14.00,-16.00,-6.00,-9.00,-18.00,-78.00,-7.00,+2.00,+35.00,-6.00,-2.00,-14.00,-11.00,-14.00,-16.00,-26.00
-17.00,+28.00,-9.00,-7.00,-12.00,+7.00,-33.00,-19.00,-37.00,-13.00,-13.00,-8.00,-1.00,-2.00,-9.00,+7.00
+58.00,+76.00,+3.00,-3.00,-6.00,-60.00,+3.00,+19.00,-7.00,+3.00,+1.00,-18.00,-1.00,-10.00,+9.00,-13.00
-31.00,-80.00,-13.00,-2.00,+0.00,+101.00,+21.00,-6.00,-68.00,-15.00,-2.00,-8.00,-17.00,+25.00,+12.00,-27.00
+31.00,-48.00,+9.00,+6.00,-6.00,-48.00,-8.00,+1.00,+13.00,+11.00,+7.00,+22.00,-6.00,+5.00,-3.00,+38.00
+16.00,+42.00,+8.00,-1.00,-15.00,-4.00,-13.00,-2.00,+0.00,-24.00,-2.00,-5.00,+18.00,+16.00,+19.00,-19.00
+6.00,+2.00,-7.00,-2.00,+18.00,+9.00,+13.00,-3.00,-53.00,-22.00,-11.00,-4.00,+5.00,-22.00,-33.00,+28.00
+22.00,+45.00,+16.00,-1.00,-44.00,+1.00,-3.00,-23.00,+15.00,-2.00,+11.00,-2.00,-2.00,-4.00,+2.00,+15.00
+8.00,-5.00,+9.00,+14.00,+18.00,-74.00,+51.00,+14.00,+17.00,-59.00,-18.00,-6.00,+1.00,-10.00,-22.00,-16.00
-9.00,-39.00,+6.00,+2.00,-9.00,+76.00,+9.00,+4.00,+46.00,+98.00,+31.00,+11.00,-4.00,+29.00,+13.00,+17.00
-15.00,+4.00,-7.00,-1.00,+68.00,+3.00,-9.00,-6.00,-1.00,-7.00,-6.00,+13.00,+5.00,+9.00,+2.00,-23.00
+3.00,+26.00,+9.00,+5.00,+7.00,-18.00,-39.00,-22.00,-20.00,+0.00,-5.00,-9.00,-8.00,-21.00,-3.00,+8.00
-73.00,+5.00,-15.00,-9.00,-6.00,+53.00,+30.00,+17.00,+25.00,-12.00,-4.00,+3.00,-14.00,+1.00,-4.00,-24.00
+6.00,-40.00,-10.00,-14.00,-35.00,+40.00,+8.00,+3.00,-7.00,-45.00,-18.00,-13.00,+16.00,-9.00,+0.00,-20.00
-9.00,-17.00,+6.00,+5.00,-13.00,-81.00,+8.00,+0.00,-60.00,-32.00,-9.00,-7.00,-13.00,-2.00,-25.00,+30.00
+13.00,+45.00,+12.00,+6.00,-10.00,-36.00,-67.00,-8.00,+23.00,+46.00,+16.00,+17.00,+23.00,-3.00,+31.00,+55.00
+29.00,+18.00,-4.00,+0.00,+19.00,+35.00,+2.00,-14.00,-77.00,-21.00,+0.00,-8.00,-20.00,-6.00,+5.00,-33.00
-41.00,-50.00,-8.00,+0.00,+5.00,-60.00,+36.00,+1.00,+46.00,+29.00,-2.00,-7.00,+17.00,+13.00,+30.00,+13.00
-15.00,+10.00,-7.00,-7.00,-20.00,+7.00,-23.00,-10.00,+24.00,-5.00,+1.00,-7.00,-22.00,+3.00,-7.00,-22.00
+2.00,-114.00,-10.00,-5.00,+4.00,-11.00,+31.00,+9.00,+0.00,+12.00,-11.00,+9.00,-15.00,+16.00,+62.00,+21.00
+28.00,+116.00,+32.00,+10.00,-24.00,-20.00,-44.00,-5.00,+12.00,-20.00,+0.00,-15.00,-34.00,-14.00,-3.00,+10.00
+24.00,+41.00,+10.00,+5.00,+15.00,+59.00,+30.00,+15.00,+25.00,+66.00,+4.00,-18.00,-45.00,-47.00,-29.00,-10.00
-21.00,-80.00,-15.00,-11.00,-42.00,-53.00,-53.00,-25.00,-24.00,+5.00,+0.00,-1.00,+23.00,+18.00,+10.00,-21.00
-3.00,+12.00,+3.00,+9.00,+52.00,+70.00,+75.00,+29.00,+20.00,+2.00,+10.00,+10.00,+7.00,-20.00,-47.00,-9.00
-18.00,+15.00,+2.00,+1.00,+4.00,+100.00,+90.00,-30.00,-7.00,+35.00,+2.00,+4.00,-25.00,+9.00,+9.00,-10.00
-1.00,-2.00,-1.00,-4.00,-3.00,-56.00,-51.00,-13.00,-45.00,-70.00,-10.00,+5.00,+35.00,-3.00,-18.00,-14.00
-1.00,+16.00,-7.00,-9.00,-18.00,-30.00,+43.00,+16.00,-42.00,-16.00,-5.00,+0.00,-27.00,-7.00,-4.00,+29.00
+11.00,+50.00,+3.00,+0.00,+11.00,+4.00,+44.00,+12.00,+78.00,+41.00,+7.00,-12.00,+8.00,-17.00,-19.00,-29.00
-31.00,-118.00,-16.00,-9.00,-30.00,-105.00,-95.00,-8.00,-28.00,+15.00,+5.00,+10.00,+20.00,+4.00,-9.00,+33.00
+41.00,+44.00,+11.00,+10.00,+27.00,+81.00,+17.00,+0.00,-38.00,-17.00,+3.00,+5.00,-11.00,+9.00,+29.00,+27.00
+6.00,+42.00,+3.00,-1.00,-15.00,+47.00,-57.00,-10.00,+55.00,+5.00,+5.00,+8.00,+20.00,+11.00,+16.00,-28.00
-21.00,-12.00,-2.00,-4.00,-13.00,+54.00,+62.00,+11.00,-12.00,-101.00,-19.00,+7.00,+12.00,+6.00,-14.00,-22.00
+2.00,+39.00,+2.00,+2.00,-3.00,-41.00,-80.00,+13.00,+62.00,+67.00,+11.00,-24.00,-23.00,-18.00,+2.00,-3.00
-28.00,-55.00,-20.00,-7.00,-5.00,-86.00,+40.00,+20.00,+2.00,+15.00,+10.00,+3.00,+28.00,+5.00,+4.00,+30.00
+12.00,-47.00,-6.00,-4.00,-9.00,-1.00,-11.00,-18.00,-4.00,+8.00,+1.00,-6.00,-27.00,+1.00,-17.00,-19.00
+11.00,-14.00,+17.00,+3.00,-1.00,+6.00,-3.00,-5.00,-58.00,-55.00,-17.00,-22.00,-17.00,-29.00,-2.00,-15.00
+16.00,-7.00,-8.00,+5.00,-1.00,+26.00,+20.00,+14.00,+98.00,+33.00,-4.00,+3.00,+2.00,+14.00,+18.00,+29.00
-21.00,+1.00,+11.00,+1.00,-17.00,-15.00,-28.00,-21.00,-40.00,-12.00,-4.00,+5.00,-5.00,-14.00,-20.00,-31.00
+0.00,+18.00,+1.00,+0.00,+19.00,+14.00,-25.00,+12.00,+53.00,+26.00,+9.00,+8.00,+16.00,-5.00,+32.00,+43.00
-5.00,+4.00,-14.00,-6.00,-26.00,+41.00,+48.00,-1.00,-98.00,-14.00,-8.00,-18.00,-28.00,-2.00,-31.00,-8.00
-17.00,-22.00,-9.00,-11.00,+6.00,+15.00,-68.00,-61.00,+45.00,+28.00,-3.00,+15.00,+18.00,+1.00,+2.00,-42.00
+9.00,+89.00,+9.00,+6.00,+13.00,-29.00,-1.00,-7.00,+10.00,-49.00,-11.00,+8.00,+8.00,+1.00,-3.00,+7.00
-7.00,-89.00,+3.00,+9.00,-19.00,-9.00,+25.00,+46.00,+44.00,+38.00,+1.00,-8.00,-1.00,+0.00,+8.00,+16.00
+39.00,+36.00,+7.00,-1.00,+6.00,+17.00,-51.00,+17.00,-45.00,-11.00,+1.00,+2.00,-26.00,-9.00,-16.00,-41.00
-5.00,+39.00,+2.00,-1.00,-22.00,+77.00,+5.00,-10.00,-42.00,-24.00,-4.00,-6.00,+38.00,+9.00,+4.00,+22.00
+8.00,-28.00,-15.00,-5.00,+27.00,+38.00,+22.00,+7.00,+0.00,-17.00,+4.00,+14.00,-22.00,-26.00,-2.00,+16.00
-65.00,+8.00,-1.00,-1.00,-14.00,-28.00,+14.00,+8.00,+7.00,+27.00,+5.00,-24.00,-12.00,+42.00,-6.00,-23.00
+3.00,-24.00,+3.00,+13.00,+30.00,-48.00,-41.00,+3.00,+32.00,+14.00,+4.00,+0.00,+25.00,-5.00,+23.00,+27.00
-12.00,+21.00,-8.00,-5.00,+44.00,+101.00,-24.00,-1.00,-61.00,-24.00,-9.00,-8.00,-9.00,+23.00,+7.00,-35.00
+2.00,+6.00,+2.00,-1.00,-17.00,-95.00,-32.00,-10.00,+17.00,-5.00,-3.00,+1.00,+3.00,-13.00,-17.00,+16.00
+17.00,+24.00,+1.00,+4.00,+7.00,+4.00,-20.00,-19.00,-111.00,-81.00,-14.00,+3.00,-5.00,-12.00,+3.00,-9.00
-5.00,+7.00,-5.00,-8.00,-30.00,-41.00,-9.00,+3.00,-45.00,+17.00,+0.00,+0.00,+14.00,-2.00,-8.00,-32.00
-7.00,+50.00,-8.00,-11.00,-21.00,-1.00,+3.00,-6.00,+47.00,+6.00,+10.00,+12.00,+20.00,+25.00,+32.00,+67.00
-15.00,-75.00,-8.00,+2.00,+5.00,-18.00,+15.00,-3.00,+20.00,-5.00,-9.00,-11.00,-21.00,-9.00,-18.00,-19.00
+1.00,+38.00,-3.00,-6.00,+3.00,-39.00,-13.00,+0.00,-39.00,-12.00,-9.00,+6.00,+5.00,-8.00,-1.00,-12.00
-7.00,-89.00,-14.00,-3.00,-2.00,-9.00,-22.00,+1.00,+50.00,-7.00,+9.00,-7.00,-14.00,+14.00,+12.00,+6.00
+12.00,+19.00,+3.00,+1.00,-9.00,+9.00,+36.00,-37.00,+7.00,+11.00,+1.00,+16.00,+16.00,-20.00,-19.00,-16.00
+17.00,+65.00,+16.00,+6.00,+3.00,-17.00,-11.00,+27.00,-32.00,+15.00,+2.00,-2.00,-24.00,+8.00,+1.00,-13.00
-6.00,+35.00,+4.00,-4.00,-23.00,+19.00,+4.00,-16.00,+30.00,-3.00,-7.00,-29.00,-26.00,-14.00,-3.00,-2.00
-2.00,-43.00,-1.00,+7.00,+49.00,+44.00,+23.00,-4.00,-74.00,-30.00,-10.00,-1.00,-6.00,+3.00,-21.00,-29.00
+10.00,-7.00,+5.00,+2.00,-8.00,+14.00,-40.00,-2.00,-34.00,+22.00,+7.00,+10.00,+22.00,+2.00,-1.00,-12.00
-15.00,-25.00,-8.00,-3.00,-3.00,-75.00,+0.00,-9.00,+9.00,+5.00,+0.00,-1.00,-4.00,+1.00,+5.00,+37.00
+0.00,+41.00,-3.00,-4.00,+14.00,+24.00,+14.00,-24.00,+79.00,+28.00,+5.00,-3.00,-7.00,+2.00,-10.00,-5.00
-69.00,-17.00,-7.00,-8.00,-28.00,-31.00,-31.00,-42.00,-3.00,+15.00,-1.00,+14.00,-2.00,-5.00,-6.00,-1.00
+51.00,+45.00,+14.00,+5.00,-5.00,+6.00,+25.00,+8.00,+36.00,+27.00,-3.00,-10.00,-23.00,+0.00,-6.00,-14.00
+21.00,-13.00,-5.00,-1.00,-18.00,-1.00,-23.00,+43.00,-104.00,-36.00,-17.00,-20.00,-6.00,-9.00,-7.00,-40.00
+20.00,+24.00,+20.00,+10.00,+38.00,+11.00,+22.00,+20.00,+50.00,+9.00,+7.00,+19.00,+22.00,-2.00,-1.00,+23.00
-13.00,+46.00,-15.00,-13.00,-28.00,-6.00,-10.00,+9.00,-21.00,-61.00,-15.00,-23.00,+1.00,-4.00,+5.00,+1.00
+7.00,-44.00,+9.00,+5.00,-14.00,-53.00,+39.00,+16.00,+14.00,+37.00,+10.00,+9.00,-6.00,-2.00,-9.00,-7.00
-12.00,+12.00,-10.00,-7.00,+18.00,+34.00,-19.00,-20.00,-59.00,-11.00,+1.00,+7.00,-7.00,+8.00,+2.00,-12.00
+21.00,-18.00,+10.00,+12.00,+13.00,-3.00,-5.00,-19.00,+24.00,-17.00,-3.00,+4.00,+15.00,+0.00,-6.00,-28.00
+19.00,+10.00,-5.00,-3.00,-4.00,-36.00,-9.00,+9.00,+91.00,+108.00,+25.00,+36.00,+40.00,+5.00,-1.00,+24.00
-22.00,-25.00,-2.00,-3.00,-26.00,-65.00,-6.00,-10.00,+15.00,-2.00,-5.00,-22.00,-14.00,+10.00,+19.00,+7.00
+7.00,-3.00,+0.00,-3.00,+33.00,+8.00,+18.00,+1.00,+56.00,-20.00,-4.00,-3.00,-14.00,-27.00,-11.00,-1.00
-1.00,+7.00,-5.00,-5.00,+0.00,+49.00,-23.00,-8.00,-62.00,-53.00,-5.00,+2.00,+4.00,-3.00,+12.00,-16.00
+11.00,+20.00,+9.00,+12.00,+13.00,+43.00,-15.00,-6.00,-11.00,+15.00,-6.00,+0.00,+1.00,-9.00,-41.00,+14.00
-2.00,+12.00,-5.00,-8.00,+3.00,+67.00,+65.00,+33.00,-8.00,+16.00,+7.00,+14.00,+24.00,+11.00,+15.00,-11.00
-48.00,-24.00,-2.00,-4.00,-38.00,-62.00,-33.00,-35.00,-9.00,+48.00,-2.00,-13.00,-23.00,-3.00,+2.00,+8.00
+3.00,-44.00,-4.00,+1.00,-9.00,-18.00,+16.00,-8.00,+25.00,+2.00,+5.00,+4.00,-22.00,-6.00,-35.00,+18.00
+4.00,-29.00,-1.00,+4.00,-10.00,-12.00,-30.00,-8.00,+23.00,+4.00,-6.00,-21.00,+18.00,-6.00,+85.00,+13.00
-2.00,+29.00,+0.00,-5.00,+1.00,-12.00,+37.00,+11.00,-25.00,-46.00,-8.00,+4.00,-1.00,-2.00,+10.00,+24.00
-18.00,-50.00,-13.00,-5.00,-22.00,+51.00,-11.00,-15.00,+14.00,+56.00,+7.00,+11.00,+1.00,+6.00,+1.00,-34.00
+51.00,-1.00,+10.00,+6.00,+34.00,+74.00,-7.00,-6.00,-55.00,+15.00,-2.00,-3.00,+3.00,-3.00,+9.00,+45.00
+3.00,-6.00,-5.00,-6.00,-63.00,-74.00,+51.00,+5.00,-76.00,-7.00,-11.00,-8.00,-25.00,+3.00,-19.00,-8.00
+1.00,-38.00,-13.00,-9.00,+46.00,-2.00,-13.00,+3.00,+25.00,+8.00,-7.00,-2.00,-5.00,-7.00,-22.00,-14.00
-3.00,-8.00,+3.00,+6.00,+16.00,+48.00,-12.00,-13.00,-10.00,+7.00,+11.00,+7.00,+12.00,+10.00,+17.00,+4.00
-24.00,+27.00,-12.00,-5.00,+3.00,+49.00,-3.00,-26.00,+43.00,-48.00,-13.00,+1.00,+6.00,+0.00,-8.00,-9.00
+40.00,-37.00,+7.00,+3.00,-3.00,-44.00,-2.00,+28.00,-92.00,+78.00,+3.00,+0.00,-2.00,-1.00,-17.00,-28.00
-30.00,-32.00,-4.00,+0.00,-12.00,-5.00,-20.00,-13.00,-28.00,-68.00,-8.00,-8.00,+6.00,-1.00,+1.00,+14.00
+13.00,+29.00,+12.00,+4.00,-7.00,+2.00,+26.00,-21.00,+52.00,+38.00,+5.00,+7.00,+9.00,+0.00,-15.00,+9.00
-25.00,-12.00,-17.00,-11.00,-47.00,+6.00,+11.00,+17.00,-45.00,+5.00,+11.00,+26.00,+65.00,+39.00,+9.00,-27.00
+1.00,+22.00,+9.00,+4.00,+56.00,+115.00,-34.00,+0.00,+0.00,-113.00,-25.00,-44.00,-44.00,-39.00,-10.00,+2.00
-16.00,-28.00,-13.00,-4.00,+10.00,-61.00,+15.00,-1.00,-15.00,-18.00,-12.00,-4.00,-42.00,-39.00,-45.00,-20.00
+12.00,-35.00,+3.00,+0.00,-5.00,-16.00,-32.00,+7.00,+82.00,+59.00,+24.00,+6.00,-22.00,+22.00,+36.00,+24.00
-3.00,+36.00,-3.00,-2.00,+7.00,-47.00,+0.00,-5.00,+10.00,+17.00,-1.00,+2.00,-5.00,+1.00,+19.00,+1.00
-14.00,-5.00,-19.00,-16.00,-20.00,-4.00,+15.00,-17.00,-4.00,-40.00,-3.00,-2.00,-24.00,-1.00,-28.00,-12.00
+11.00,-76.00,+2.00,+5.00,-30.00,-10.00,-14.00,+8.00,+22.00,+11.00,+4.00,-14.00,+34.00,-4.00,+3.00,+3.00
+59.00,+108.00,+11.00,+2.00,+26.00,+40.00,+7.00,+11.00,+30.00,-78.00,-20.00,-21.00,-4.00,-5.00,-27.00,+11.00
+16.00,-38.00,+11.00,+6.00,-27.00,-55.00,-5.00,+9.00,-80.00,+3.00,-6.00,+2.00,-1.00,-2.00,+47.00,-26.00
-9.00,+4.00,-6.00,-7.00,+7.00,+22.00,-20.00,-7.00,-1.00,-4.00,+21.00,+22.00,+0.00,+4.00,-7.00,+4.00
+12.00,+5.00,+2.00,+5.00,+16.00,+32.00,+42.00,+2.00,+62.00,+13.00,-3.00,-4.00,-7.00,+7.00,+4.00,+17.00
-29.00,+26.00,-5.00,-6.00,-14.00,-7.00,+36.00,+15.00,+2.00,-14.00,-6.00,+2.00,+1.00,-12.00,-10.00,-19.00
-13.00,-61.00,-11.00,-7.00,+4.00,+0.00,+55.00,-5.00,+8.00,+30.00,-1.00,-5.00,-1.00,-5.00,-4.00,+12.00
-3.00,+12.00,+3.00,+0.00,-33.00,-27.00,+4.00,+6.00,+0.00,-24.00,-5.00,-8.00,-2.00,+5.00,+2.00,+17.00
-15.00,-45.00,+2.00,+3.00,-9.00,+37.00,-67.00,-12.00,+28.00,+42.00,+13.00,+15.00,+3.00,+5.00,+7.00,+5.00
-1.00,-29.00,+6.00,+10.00,+42.00,-50.00,-8.00,-9.00,+21.00,-54.00,-11.00,-7.00,+15.00,+8.00,+6.00,+8.00
-57.00,-4.00,-16.00,-10.00,+1.00,+52.00,+34.00,+24.00,+95.00,+8.00,+6.00,+7.00,-6.00,-3.00,-9.00,+13.00
-1.00,+36.00,+9.00,+4.00,+20.00,+18.00,-7.00,-6.00,+0.00,+55.00,+10.00,-1.00,+8.00,+6.00,+2.00,+6.00
+3.00,+54.00,+0.00,-4.00,-25.00,-21.00,+1.00,-16.00,-38.00,-10.00,+2.00,+17.00,+6.00,+0.00,-6.00,-11.00
-20.00,-75.00,-17.00,-4.00,-14.00,+1.00,-3.00,+15.00,-36.00,+21.00,-4.00,-19.00,-9.00,+0.00,-7.00,-11.00
+16.00,+53.00,+25.00,+4.00,+3.00,-37.00,-37.00,+0.00,+18.00,-42.00,-12.00,+17.00,+1.00,-14.00,+1.00,-7.00
+5.00,+22.00,-6.00,+6.00,+14.00,-10.00,+27.00,+35.00,+76.00,-47.00,+11.00,-9.00,+6.00,-28.00,-17.00,+20.00
-11.00,+14.00,+5.00,-1.00,-14.00,-1.00,-13.00,+1.00,-113.00,+44.00,+8.00,-30.00,-34.00,-10.00,-9.00,-12.00
+14.00,+85.00,+1.00,-6.00,-13.00,+11.00,-13.00,+2.00,-61.00,-51.00,-2.00,+7.00,+10.00,+3.00,+3.00,+0.00
-4.00,-53.00,-8.00,-1.00,+12.00,-20.00,-14.00,+5.00,-40.00,-13.00,-6.00,-8.00,-16.00,-5.00,-15.00,+4.00
-13.00,-71.00,-19.00,-8.00,-6.00,+4.00,+6.00,-15.00,+6.00,+50.00,+10.00,+18.00,+29.00,+4.00,+2.00,-20.00
+6.00,-66.00,+12.00,+7.00,+10.00,+17.00,-42.00,+8.00,+15.00,+30.00,+3.00,-2.00,-35.00,-2.00,+0.00,+8.00
+38.00,+61.00,+13.00,-3.00,-32.00,-30.00,+57.00,-1.00,-34.00,-55.00,-14.00,-5.00,+33.00,-3.00,-5.00,-23.00
-18.00,-19.00,-11.00,-3.00,+20.00,-8.00,-45.00,+2.00,+80.00,+1.00,+1.00,-1.00,-3.00,+5.00,-5.00,+17.00
-29.00,+57.00,-7.00,-7.00,-23.00,-26.00,+19.00,-23.00,-68.00,-19.00,-10.00,+6.00,-2.00,+8.00,-2.00,-15.00
+11.00,-30.00,+1.00,+11.00,+28.00,-14.00,+2.00,+24.00,+45.00,+4.00,+1.00,+2.00,+3.00,+3.00,+6.00,+30.00
-12.00,+20.00,-6.00,-3.00,-5.00,-46.00,-32.00,+7.00,+16.00,+19.00,-3.00,+5.00,-34.00,+8.00,+16.00,+5.00
+20.00,-12.00,+2.00,+0.00,+26.00,+73.00,+7.00,+3.00,-30.00,-78.00,-9.00,-6.00,+47.00,+6.00,-13.00,-26.00
-2.00,+88.00,+16.00,+8.00,+33.00,-4.00,+8.00,-7.00,-63.00,+110.00,+13.00,-7.00,-15.00,+0.00,+4.00,+22.00
-17.00,-62.00,-11.00,-2.00,+20.00,+35.00,-6.00,-10.00,+51.00,-41.00,-3.00,+6.00,+19.00,-5.00,-8.00,-20.00
-3.00,-38.00,-2.00,-1.00,-17.00,-9.00,-18.00,-8.00,-69.00,-39.00,-11.00,+5.00,-3.00,+4.00,+13.00,+17.00
+12.00,+21.00,-14.00,-1.00,-42.00,-49.00,+6.00,-4.00,-62.00,+46.00,+17.00,-7.00,-10.00,-17.00,-13.00,-17.00
-8.00,-62.00,+15.00,+8.00,+18.00,+24.00,-3.00,-3.00,+112.00,-5.00,-2.00,-1.00,+12.00,-23.00,+9.00,+22.00
-6.00,+122.00,+10.00,-7.00,-5.00,-62.00,-2.00,+16.00,-128.00,-92.00,-34.00,-4.00,-5.00,+48.00,-9.00,-53.00
-6.00,-119.00,-17.00,-2.00,+3.00,+32.00,+7.00,-1.00,+59.00,+52.00,+12.00,+23.00,+43.00,+17.00,-26.00,+24.00
-7.00,+48.00,-7.00,-4.00,-4.00,+4.00,-17.00,-18.00,+53.00,+5.00,-29.00,-55.00,-107.00,-58.00,-39.00,+15.00
+21.00,+16.00,+5.00,+4.00,+1.00,+33.00,+16.00,+7.00,+25.00,+20.00,+11.00,+16.00,+51.00,+47.00,+40.00,+1.00
-18.00,-67.00,-11.00,+0.00,-11.00,-12.00,-7.00,-10.00,-67.00,-24.00,-17.00,-13.00,-19.00,-3.00,+6.00,-35.00
+22.00,+53.00,+42.00,+15.00,+9.00,-7.00,+9.00,+30.00,+7.00,-105.00,-8.00,+1.00,+16.00,+6.00,+5.00,+12.00
+0.00,+99.00,+4.00,+3.00,-5.00,-22.00,-19.00,+2.00,+36.00,+114.00,+11.00,+1.00,-1.00,+3.00,+11.00,-7.00
+1.00,+37.00,+2.00,-4.00,-25.00,-28.00,+33.00,+5.00,+96.00,+1.00,-9.00,-11.00,-22.00,-5.00,-10.00,+10.00
-39.00,+67.00,-7.00,-10.00,+31.00,+28.00,+5.00,-10.00,+13.00,+2.00,-4.00,+8.00,+18.00,-12.00,+0.00,+13.00
+20.00,-103.00,-7.00,-1.00,-74.00,+76.00,-76.00,-10.00,-101.00,-30.00,-6.00,-5.00,-6.00,+4.00,+11.00,-2.00
-2.00,-12.00,+3.00,+7.00,+90.00,+13.00,-12.00,+1.00,-2.00,+81.00,+26.00,+12.00,+9.00,+3.00,-4.00,-12.00
-14.00,+46.00,-1.00,+3.00,+23.00,+74.00,+30.00,-4.00,-36.00,+11.00,-15.00,-15.00,-25.00,-16.00,-24.00,-53.00
-35.00,-72.00,-29.00,-11.00,-39.00,-93.00,+0.00,-13.00,+63.00,-27.00,+29.00,+18.00,+12.00,+5.00,+13.00,+38.00
+9.00,+73.00,+11.00,+1.00,+20.00,+63.00,+59.00,+11.00,-56.00,-38.00,-14.00,-16.00,-18.00,-29.00,-25.00,-15.00
+2.00,+4.00,+14.00,+3.00,-28.00,+7.00,-31.00,-32.00,+85.00,+69.00,+11.00,+10.00,+13.00,+30.00,+11.00,+3.00
+8.00,-94.00,-6.00,-1.00,+22.00,-42.00,-31.00,-1.00,-6.00,-21.00,-3.00,-10.00,-18.00,-6.00,-4.00,-8.00
+51.00,+16.00,-35.00,-18.00,-1.00,-6.00,+11.00,+9.00,-76.00,-93.00,-7.00,+9.00,+28.00,-8.00,-1.00,-3.00
-24.00,+103.00,+17.00,-1.00,-9.00,-12.00,-4.00,-23.00,-52.00,+24.00,+3.00,+7.00,-5.00,+13.00,+13.00,-10.00
+23.00,+30.00,-5.00,-6.00,-20.00,-16.00,+20.00,+12.00,+14.00,+30.00,+2.00,-4.00,-48.00,-45.00,-34.00,+16.00
-42.00,-7.00,-13.00,+2.00,+5.00,-12.00,+0.00,+13.00,-22.00,+42.00,-7.00,-30.00,+81.00,+10.00,+18.00,-16.00
+20.00,-31.00,+9.00,+0.00,+0.00,+113.00,+20.00,-1.00,-35.00,-54.00,-9.00,-29.00,-82.00,-33.00,-39.00,-10.00
-28.00,-59.00,-26.00,-6.00,-3.00,-125.00,-21.00,-5.00,+73.00,-13.00,+8.00,+5.00,+22.00,+20.00,+45.00,+19.00
-1.00,+97.00,+11.00,-12.00,-14.00,-27.00,+16.00,-10.00,-125.00,-77.00,-11.00,-3.00,+4.00,-5.00,-10.00,-37.00
-18.00,+65.00,+22.00,+2.00,-15.00,-43.00,-11.00,-1.00,+11.00,-116.00,-5.00,+16.00,-19.00,+16.00,+12.00,+57.00
-6.00,-71.00,-7.00,+5.00,-1.00,+2.00,-24.00,+2.00,+29.00,+61.00,+26.00,+15.00,+31.00,+5.00,-2.00,-16.00
-13.00,-40.00,-12.00,-2.00,+13.00,+77.00,-12.00,-14.00,+69.00,-74.00,-21.00,-10.00,-22.00,-24.00,-13.00,+15.00
-37.00,-58.00,+3.00,+3.00,-1.00,-44.00,-48.00,+9.00,+43.00,-10.00,+21.00,+11.00,+18.00,+25.00,+25.00,+0.00
+0.00,-16.00,-48.00,-29.00,-31.00,-3.00,+48.00,-21.00,+10.00,+17.00,-8.00,+4.00,-23.00,-6.00,-11.00,+20.00
+8.00,+59.00,+35.00,+8.00,-65.00,+18.00,-28.00,+27.00,+19.00,-49.00,-30.00,-1.00,+21.00,+3.00,+8.00,-11.00
-41.00,-54.00,-19.00,-6.00,+92.00,-66.00,+26.00,-19.00,+54.00,+121.00,+28.00,+4.00,-15.00,+2.00,+0.00,+4.00
+53.00,-128.00,+11.00,+13.00,-20.00,+55.00,+43.00,+21.00,-90.00,+16.00,+0.00,+8.00,+23.00,+1.00,+4.00,+12.00
+53.00,+35.00,+21.00,+6.00,+12.00,-22.00,-61.00,+2.00,-59.00,+59.00,-7.00,-11.00,-11.00,-5.00,-9.00,-23.00
-30.00,+15.00,-3.00,+0.00,+14.00,+34.00,-2.00,-9.00,-7.00,-75.00,-31.00,-6.00,-6.00,-13.00,-8.00,-2.00
+18.00,-39.00,-14.00,-14.00,-13.00,+8.00,+3.00,+9.00,-37.00,+78.00,+16.00,-7.00,-8.00,-5.00,-12.00,-30.00
+4.00,-118.00,+2.00,+2.00,-3.00,-3.00,+7.00,+5.00,-14.00,+9.00,+9.00,+11.00,+29.00,+10.00,+9.00,+8.00
-16.00,+7.00,-3.00,-11.00,-10.00,-3.00,-14.00,-4.00,-110.00,+46.00,+11.00,+2.00,-28.00,+11.00,-17.00,-51.00
-38.00,-91.00,-33.00,-1.00,-4.00,-49.00,-4.00,-26.00,+71.00,-39.00,-1.00,-1.00,-52.00,-30.00,+2.00,-16.00
+61.00,+46.00,+34.00,+14.00,-7.00,+27.00,+6.00,+34.00,-128.00,-62.00,-11.00,-23.00,+1.00,-36.00,-6.00,+27.00
+3.00,+107.00,-9.00,-10.00,+7.00,-2.00,+11.00,-5.00,-18.00,-104.00,-31.00,-13.00,-8.00,+12.00,+10.00,+11.00
+36.00,+96.00,+65.00,+24.00,+0.00,-13.00,-2.00,+6.00,-32.00,-93.00,-3.00,+1.00,-18.00,+8.00,-16.00,-3.00
-49.00,-53.00,-47.00,-22.00,-3.00,+0.00,+20.00,-1.00,-20.00,+96.00,+15.00,-3.00,+9.00,-2.00,+10.00,-11.00
+17.00,-68.00,+25.00,+22.00,-18.00,-14.00,-17.00,+12.00,-19.00,+49.00,+15.00,+8.00,-7.00,-5.00,-1.00,+5.00
-37.00,-53.00,-11.00,-4.00,+25.00,+11.00,+0.00,-11.00,+26.00,-63.00,-16.00,-12.00,+2.00,-6.00,-3.00,+3.00
+20.00,-24.00,-8.00,-7.00,-23.00,+27.00,-25.00,-13.00,-31.00,-98.00,-15.00,+2.00,-1.00,-12.00,-20.00,-5.00
-5.00,+16.00,-8.00,-6.00,-67.00,-28.00,+9.00,-5.00,+50.00,+30.00,+5.00,+8.00,+29.00,+20.00,+32.00,-18.00
+27.00,+93.00,+37.00,+4.00,+66.00,-87.00,-62.00,-5.00,+16.00,-85.00,-24.00,+0.00,-13.00,-10.00,-10.00,-24.00
-24.00,-41.00,-12.00,+3.00,+70.00,+86.00,+4.00,-27.00,-70.00,+38.00,+21.00,+7.00,+2.00,+3.00,+0.00,-10.00
-49.00,-128.00,-26.00,-2.00,+36.00,+4.00,+8.00,-15.00,+29.00,-54.00,-5.00,-4.00,+1.00,+5.00,+13.00,+13.00
+108.00,-12.00,+56.00,+27.00,+49.00,-2.00,+39.00,+40.00,+44.00,+119.00,+28.00,+3.00,-7.00,-1.00,-3.00,+43.00
-44.00,+0.00,-21.00,-12.00,-58.00,+71.00,+3.00,-13.00,+30.00,+15.00,-18.00,+1.00,+28.00,+16.00,-2.00,-5.00
+34.00,-128.00,+12.00,+6.00,-26.00,-56.00,-8.00,+18.00,-75.00,-107.00,-19.00,-15.00,-57.00,-12.00,+2.00,-39.00
+50.00,+68.00,+19.00,+23.00,+13.00,-12.00,-14.00,+14.00,-68.00,-91.00,-10.00,+9.00,+31.00,+3.00,+6.00,+31.00
-21.00,+106.00,-4.00,-18.00,-8.00,-4.00,-21.00,-21.00,+52.00,+39.00,+21.00,+1.00,+15.00,+1.00,-3.00,+23.00
+33.00,+28.00,-4.00,-5.00,-14.00,-7.00,+21.00,+5.00,+23.00,+28.00,+16.00,+0.00,+25.00,+16.00,-4.00,-5.00
+16.00,+127.00,+18.00,-1.00,-11.00,-20.00,-2.00,+17.00,+41.00,+112.00,+41.00,+5.00,-10.00,-23.00,-15.00,-11.00
-20.00,-93.00,-40.00,-14.00,-21.00,+28.00,+19.00,+7.00,-5.00,-15.00,+4.00,+4.00,-22.00,-3.00,+12.00,+11.00
+12.00,-27.00,+20.00,+10.00,+14.00,-10.00,+1.00,+9.00,-128.00,-128.00,-49.00,-13.00,+5.00,-10.00,-11.00,-33.00
-12.00,-34.00,-4.00,-4.00,-7.00,+5.00,+30.00,-11.00,-3.00,+18.00,-6.00,+18.00,-13.00,+5.00,+0.00,-1.00
-110.00,-47.00,-49.00,-27.00,-20.00,+0.00,-7.00,-29.00,+9.00,+31.00,+7.00,-6.00,+49.00,+28.00,+13.00,-11.00
+38.00,+57.00,+42.00,+11.00,-12.00,-37.00,+1.00,+14.00,+127.00,+64.00,+10.00,-7.00,-24.00,-27.00,-13.00,+17.00
-26.00,+89.00,+32.00,+10.00,+19.00,-48.00,-11.00,-12.00,+68.00,+112.00,+36.00,+9.00,-7.00,+28.00,+18.00,+24.00
-15.00,-128.00,-65.00,-10.00,+3.00,+30.00,-14.00,-13.00,-56.00,-73.00,-10.00,-18.00,+1.00,-22.00,-25.00,-11.00
-33.00,+82.00,+0.00,+2.00,-27.00,-52.00,-18.00,-8.00,-102.00,-86.00,-18.00,+3.00,+8.00,-8.00,-5.00,-36.00
-21.00,-72.00,-40.00,-21.00,-50.00,+28.00,+58.00,+14.00,+2.00,-1.00,+3.00,+1.00,+12.00,+7.00,+0.00,-13.00
-5.00,-16.00,+7.00,-4.00,+43.00,+5.00,-28.00,-22.00,-61.00,-20.00,-7.00,+4.00,+13.00,+8.00,+1.00,+30.00
-46.00,+61.00,+5.00,+3.00,+0.00,-61.00,-13.00,-20.00,-5.00,-45.00,+6.00,+0.00,-6.00,-13.00,-5.00,+7.00
+26.00,-76.00,-9.00,+18.00,+40.00,+26.00,+53.00,+18.00,-21.00,-6.00,-8.00,+4.00,+11.00,+3.00,-6.00,-11.00
+24.00,-71.00,+1.00,+4.00,+42.00,+12.00,-74.00,+13.00,-34.00,+21.00,+26.00,+7.00,-19.00,+7.00,+7.00,-15.00
+24.00,+79.00,+20.00,-3.00,-30.00,-48.00,+9.00,-13.00,-8.00,-45.00,-16.00,+7.00,+73.00,+10.00,-6.00,-16.00
-13.00,-90.00,-23.00,-19.00,-10.00,+39.00,+11.00,+12.00,+13.00,+112.00,-10.00,-24.00,-41.00,-8.00,+4.00,+9.00
+20.00,+22.00,-18.00,-10.00,-19.00,+18.00,-5.00,-6.00,-50.00,-78.00,-11.00,-3.00,-1.00,-8.00,-22.00,-34.00
-31.00,-57.00,-2.00,+11.00,+3.00,-41.00,+3.00,+7.00,+74.00,+40.00,-4.00,+31.00,+40.00,+16.00,+40.00,+50.00
-29.00,+47.00,-16.00,-10.00,-20.00,-10.00,-36.00,-11.00,-128.00,-101.00,-20.00,-42.00,-55.00,-26.00,-48.00,-56.00
-18.00,+94.00,+5.00,+6.00,-4.00,+21.00,-26.00,-50.00,-25.00,+3.00,+9.00,+6.00,-1.00,-15.00,+12.00,+1.00
+26.00,-62.00,+4.00,-1.00,-9.00,+3.00,+5.00,+22.00,+127.00,+36.00,-14.00,-8.00,-1.00,-10.00,+4.00,+35.00
-16.00,-3.00,+8.00,-7.00,-5.00,-6.00,+1.00,-8.00,+36.00,+34.00,-1.00,-3.00,-6.00,+1.00,-19.00,+14.00
+37.00,-38.00,+12.00,+17.00,+15.00,+53.00,-12.00,+20.00,+28.00,+36.00,+9.00,+20.00,+28.00,+3.00,+9.00,+0.00
-14.00,-71.00,-14.00,-17.00,-18.00,+78.00,+22.00,-1.00,+27.00,+21.00,+13.00,+10.00,+8.00,+18.00,+13.00,+36.00
-20.00,-94.00,-21.00,-4.00,-19.00,+18.00,-9.00,-8.00,-8.00,-8.00,-7.00,+1.00,-11.00,+11.00,+6.00,+13.00
+17.00,+127.00,+34.00,+9.00,+11.00,-58.00,-14.00,-16.00,+22.00,-59.00,-11.00,-9.00,+1.00,-7.00,-3.00,-35.00
+26.00,-71.00,-16.00,+4.00,+18.00,+32.00,+12.00,+11.00,-65.00,-32.00,+4.00,+15.00,+18.00,+12.00,+12.00,+28.00
+9.00,+127.00,+8.00,-6.00,-8.00,+32.00,+19.00,+38.00,-29.00,-63.00,+0.00,-5.00,-25.00,-9.00,-15.00,-28.00
+41.00,+11.00,-2.00,-6.00,-10.00,+50.00,+8.00,-9.00,+16.00,-76.00,-33.00,-17.00,-21.00,-1.00,+10.00,+35.00
-22.00,-58.00,-28.00,-14.00,-4.00,-5.00,-10.00,-8.00,-15.00,-34.00,+42.00,+13.00,+14.00,+4.00,-2.00,-13.00
-53.00,+126.00,-10.00,-22.00,-42.00,-49.00,-11.00,-18.00,+43.00,+0.00,-31.00,-5.00,-32.00,-11.00,-20.00,+1.00
+31.00,-41.00,-4.00,+13.00,+5.00,-11.00,+19.00,+20.00,+24.00,-85.00,-31.00,-40.00,-41.00,+15.00,+27.00,-3.00
-13.00,+84.00,+28.00,+11.00,+59.00,+35.00,+37.00,-13.00,-128.00,-26.00,+17.00,-8.00,+52.00,-16.00,-26.00,-34.00
+67.00,+89.00,+11.00,+3.00,+8.00,-71.00,-20.00,+21.00,+36.00,-70.00,-38.00,-31.00,-50.00,+3.00,-15.00,-8.00
+39.00,-51.00,-20.00,-1.00,+17.00,+53.00,+24.00,-6.00,+45.00,+64.00,+27.00,+5.00,-5.00,-9.00,-12.00,+20.00
+42.00,+76.00,+45.00,+10.00,-12.00,+5.00,+20.00,+17.00,+24.00,+32.00,+2.00,+3.00,+14.00,+2.00,-23.00,-6.00
+0.00,+46.00,+7.00,+9.00,-18.00,-100.00,-6.00,+18.00,-62.00,+82.00,-2.00,-2.00,-20.00,+20.00,+57.00,+30.00
-11.00,-95.00,-6.00,-6.00,+7.00,+116.00,+8.00,-23.00,+74.00,-41.00,-18.00,+27.00,+33.00,-15.00,+2.00,+13.00
-33.00,-110.00,-19.00,-5.00,-15.00,-96.00,+0.00,-22.00,-90.00,+59.00,+26.00,-13.00,-26.00,+15.00,-2.00,-49.00
-28.00,+53.00,+4.00,+1.00,-3.00,-29.00,-23.00,-7.00,+14.00,+56.00,-18.00,-15.00,-8.00,-17.00,-26.00,-4.00
+47.00,+69.00,+60.00,+14.00,+7.00,+8.00,+2.00,+36.00,-15.00,-28.00,-5.00,-6.00,+48.00,-7.00,-14.00,+13.00
-13.00,+110.00,+18.00,-8.00,-16.00,+118.00,+15.00,-9.00,+24.00,+53.00,-8.00,+7.00,+4.00,+1.00,-4.00,-49.00
-3.00,+62.00,-15.00,-9.00,-36.00,-39.00,-3.00,+3.00,-69.00,-118.00,-4.00,-3.00,-20.00,+1.00,+18.00,+53.00
+21.00,+30.00,+53.00,+40.00,+87.00,+29.00,+9.00,+20.00,+67.00,-8.00,-9.00,+4.00,+6.00,+4.00,+9.00,+8.00
-28.00,-114.00,-15.00,-26.00,-70.00,-66.00,-38.00,-38.00,+9.00,-5.00,-35.00,-15.00,-32.00,+6.00,-3.00,+10.00
-45.00,-6.00,-35.00,-7.00,+30.00,+52.00,+17.00,-5.00,-121.00,+4.00,-2.00,+8.00,+16.00,+3.00,+6.00,-6.00
+20.00,-66.00,-23.00,-2.00,+16.00,+26.00,+25.00,+30.00,-24.00,+96.00,+14.00,-15.00,-4.00,-17.00,-21.00,-45.00
+25.00,-42.00,+27.00,+15.00,-3.00,-21.00,+38.00,+9.00,+73.00,+99.00,+45.00,+38.00,+19.00,+32.00,+30.00,+28.00
+5.00,-18.00,-16.00,-6.00,-8.00,-7.00,+0.00,+8.00,+114.00,-82.00,-8.00,+104.00,+103.00,+30.00,+32.00,+24.00
-49.00,-81.00,-3.00,+0.00,-36.00,-53.00,-21.00,-3.00,-60.00,+105.00,+61.00,-85.00,-32.00,-29.00,-75.00,-4.00
+84.00,+106.00,+9.00,+3.00,+8.00,+23.00,+7.00,+10.00,+84.00,-32.00,-3.00,-39.00,-37.00,-5.00,+60.00,+11.00
-26.00,+69.00,-43.00,-33.00,-16.00,-5.00,-26.00,-9.00,+5.00,-48.00,-24.00,-34.00,-33.00,-2.00,+32.00,+6.00
+7.00,-75.00,+11.00,+11.00,-3.00,-50.00,-21.00,-3.00,+32.00,+81.00,-9.00,-15.00,+2.00,+19.00,+6.00,-17.00
+26.00,+12.00,-13.00,+16.00,+3.00,+45.00,+29.00,+25.00,-21.00,+54.00,-5.00,+40.00,+35.00,+14.00,+21.00,+5.00
-43.00,+22.00,+17.00,-3.00,+4.00,+44.00,-3.00,+7.00,-10.00,-31.00,+19.00,+29.00,-2.00,+2.00,-28.00,+32.00
-57.00,-128.00,-36.00,-9.00,-12.00,-2.00,+11.00,-24.00,-81.00,-55.00,+12.00,+8.00,+13.00,-7.00,-20.00,-15.00
+60.00,+102.00,+7.00,+6.00,+13.00,+22.00,-3.00,-5.00,-78.00,-76.00,-8.00,-8.00,-36.00,-13.00,-37.00,-14.00
-32.00,-111.00,-25.00,-20.00,-82.00,-125.00,-13.00,-18.00,-80.00,-5.00,-29.00,-6.00,-11.00,+2.00,+33.00,-31.00
+7.00,+55.00,+12.00,-13.00,+28.00,+83.00,+43.00,+15.00,+47.00,+54.00,+9.00,+14.00,+21.00,+21.00,+28.00,+17.00
-5.00,+99.00,+5.00,+14.00,+57.00,+79.00,-73.00,-22.00,+74.00,-15.00,-8.00,+22.00,-1.00,-27.00,-19.00,+16.00
-55.00,-45.00,-42.00,-9.00,+20.00,-17.00,+3.00,-3.00,-13.00,-57.00,-15.00,-35.00,-22.00,-21.00,-37.00,-36.00
+4.00,-102.00,-18.00,-1.00,-4.00,+5.00,-77.00,-15.00,-69.00,-67.00,+27.00,+16.00,-6.00,+3.00,+5.00,+2.00
+79.00,+74.00,+64.00,+28.00,+50.00,-10.00,+39.00,+20.00,-42.00,-53.00,-61.00,-21.00,+7.00,-1.00,-1.00,-5.00
-101.00,-128.00,-99.00,-58.00,-61.00,-67.00,-32.00,-55.00,-74.00,-54.00,-12.00,-5.00,+1.00,-1.00,+1.00,+0.00
+8.00,+99.00,+25.00,+7.00,-67.00,-46.00,-29.00,-23.00,+99.00,+117.00,+71.00,+9.00,-8.00,+3.00,+13.00,+40.00
+38.00,+120.00,+40.00,+14.00,+45.00,+64.00,+16.00,+19.00,-82.00,-14.00,-36.00,-23.00,-7.00,+2.00,-9.00,-16.00
-25.00,-107.00,-72.00,-35.00,-34.00,-44.00,+5.00,-29.00,+74.00,+19.00,+1.00,+19.00,+0.00,-12.00,+7.00,-4.00
+1.00,-91.00,-12.00,+0.00,+27.00,-12.00,+3.00,-3.00,+41.00,-20.00,-9.00,-11.00,+27.00,-11.00,-24.00,-13.00
+99.00,-30.00,+34.00,+24.00,+30.00,+40.00,+0.00,+22.00,+99.00,+14.00,-6.00,-10.00,-48.00,-14.00,+15.00,+49.00
-29.00,-47.00,-25.00,-14.00,-46.00,-45.00,-12.00,-38.00,+3.00,+11.00,+41.00,+54.00,-38.00,+43.00,+26.00,+1.00
-69.00,-97.00,-21.00,-14.00,-10.00,-9.00,-26.00,+7.00,+21.00,-20.00,+3.00,-41.00,+40.00,-37.00,-35.00,+27.00
-76.00,-128.00,-2.00,-9.00,-11.00,-23.00,+19.00,+19.00,+7.00,+75.00,+2.00,+0.00,-31.00,-9.00,-19.00,-15.00
+23.00,+58.00,-8.00,-6.00,-19.00,+8.00,+6.00,+7.00,-42.00,-59.00,-3.00,-13.00,+14.00,-10.00,+26.00,-5.00
-58.00,+11.00,-1.00,-4.00,-7.00,+19.00,+7.00,-15.00,+127.00,+69.00,+42.00,+9.00,+2.00,+6.00,+54.00,+29.00
+13.00,-59.00,+59.00,+50.00,+48.00,-73.00,+6.00,+30.00,-21.00,-94.00,-9.00,+15.00,+12.00,+15.00,-1.00,-2.00
+43.00,+39.00,+14.00,-15.00,-128.00,+34.00,-35.00,+20.00,-37.00,-44.00,+19.00,+16.00,+14.00,+1.00,-2.00,-6.00
-24.00,-17.00,+23.00,+8.00,+80.00,+106.00,+64.00,+3.00,-15.00,+76.00,+30.00,+10.00,-1.00,+21.00,-15.00,+17.00
-30.00,+1.00,-16.00,+7.00,+81.00,-42.00,+31.00,-15.00,-1.00,-39.00,-25.00,-6.00,+3.00,-16.00,-34.00,-17.00
+25.00,+38.00,+1.00,+10.00,+79.00,+98.00,+13.00,+15.00,-128.00,-79.00,-42.00,-15.00,-14.00,+2.00,+23.00,-23.00
+13.00,-57.00,+31.00,+18.00,-14.00,-104.00,+12.00,+10.00,+60.00,+46.00,+8.00,+12.00,+18.00,-3.00,+2.00,-6.00
-50.00,+34.00,-52.00,-50.00,-82.00,-59.00,-69.00,-42.00,+97.00,+82.00,+43.00,+44.00,-1.00,+8.00,+9.00,+43.00
+77.00,+108.00,+37.00,+13.00,-22.00,+16.00,+76.00,+51.00,-39.00,-76.00,-45.00,-53.00,+9.00,+12.00,+24.00,+10.00
-15.00,+15.00,-14.00,-9.00,-17.00,+20.00,-15.00,-29.00,+0.00,+35.00,+29.00,+24.00,-47.00,-43.00,-34.00,-19.00
-1.00,+3.00,-25.00,-21.00,-6.00,-19.00,-13.00,-27.00,-68.00,-15.00,-15.00,-1.00,+8.00,+8.00,+6.00,-34.00
-51.00,+71.00,+29.00,+21.00,+23.00,+18.00,+3.00,+30.00,-109.00,-92.00,-53.00,-21.00,+48.00,-29.00,-14.00,-13.00
+15.00,-57.00,+7.00,+5.00,-2.00,-5.00,-44.00,+9.00,+90.00,-9.00,+8.00,-33.00,-22.00,+23.00,-10.00,-21.00
+1.00,-76.00,-3.00,+0.00,-45.00,-33.00,+50.00,+1.00,+3.00,+41.00,+18.00,+8.00,+33.00,+11.00,+4.00,+2.00
-36.00,-21.00,-21.00,-12.00,-12.00,+30.00,+26.00,-47.00,-12.00,+19.00,+9.00,-12.00,-12.00,+7.00,-13.00,+1.00
-36.00,-22.00,-28.00,-8.00,-3.00,-41.00,-7.00,-31.00,-42.00,-56.00,-5.00,+9.00,+27.00,-4.00,-12.00,-32.00
+7.00,-90.00,+31.00,-2.00,+5.00,-5.00,+6.00,+10.00,-69.00,-28.00,-17.00,+23.00,+10.00,-25.00,-29.00,+3.00
-49.00,+6.00,+7.00,-6.00,-18.00,+2.00,-28.00,-19.00,-65.00,-62.00,-29.00,-4.00,+24.00,+28.00,+11.00,-6.00
+48.00,+15.00,+30.00,+13.00,+31.00,+19.00,+2.00,+37.00,+73.00,+63.00,+37.00,+9.00,+20.00,+0.00,-19.00,-12.00
+5.00,+72.00,-30.00,-26.00,-21.00,-7.00,-6.00,-15.00,+14.00,+79.00,+9.00,-20.00,-18.00,+11.00,+17.00,+32.00
-27.00,-53.00,-4.00,+6.00,+1.00,-26.00,+0.00,-3.00,-87.00,-115.00,-25.00,-12.00,-28.00,-35.00,-25.00,-80.00
-3.00,-10.00,-6.00,-5.00,-26.00,+74.00,-4.00,-20.00,+98.00,+106.00,+19.00,+15.00,+11.00,+21.00,+11.00,+48.00
+2.00,+97.00,+17.00,-3.00,-6.00,-96.00,-13.00,-37.00,-65.00,-49.00,-12.00,+5.00,+3.00,+7.00,+6.00,-6.00
+7.00,-128.00,+3.00,+10.00,-90.00,-81.00,-31.00,+1.00,-66.00,+5.00,+6.00,+1.00,-18.00,+9.00,+1.00,-10.00
+34.00,+104.00,+29.00,+25.00,+91.00,+98.00,-13.00,+41.00,-46.00,+64.00,-4.00,+9.00,+33.00,-11.00,-11.00,-11.00
-5.00,+118.00,-3.00,-8.00,-53.00,-28.00,+12.00,-3.00,+91.00,-27.00,+9.00,+27.00,-9.00,+18.00,+18.00,+5.00
-39.00,+18.00,-35.00,-28.00,-37.00,+34.00,-36.00,-24.00,-50.00,+4.00,+1.00,-5.00,+42.00,-21.00,-7.00,+11.00
+75.00,-115.00,+2.00,+40.00,+78.00,-30.00,+71.00,+66.00,-55.00,+48.00,-1.00,-45.00,-80.00,-2.00,-3.00,-37.00
-2.00,+49.00,-24.00,-8.00,-36.00,-45.00,-30.00,-16.00,+62.00,-112.00,+6.00,+0.00,+3.00,-7.00,-5.00,+46.00
+10.00,+32.00,-10.00,-15.00,-22.00,-23.00,-33.00,-6.00,+19.00,+37.00,+6.00,+14.00,+16.00,-18.00,+5.00,-15.00
+55.00,+127.00,+34.00,+21.00,+40.00,+5.00,+42.00,+24.00,-36.00,+66.00,-11.00,-19.00,-24.00,+4.00,+16.00,+3.00
+6.00,-96.00,-19.00,-2.00,-2.00,+39.00,-19.00,+15.00,+101.00,+14.00,-6.00,+12.00,-18.00,-8.00,-31.00,-18.00
-61.00,+20.00,-26.00,-28.00,-22.00,+9.00,+5.00,-39.00,+55.00,-7.00,-17.00,-9.00,+40.00,+0.00,+2.00,+25.00
+40.00,+72.00,+20.00,+22.00,+27.00,+14.00,-25.00,+17.00,-52.00,-54.00,-11.00,-17.00,-66.00,-44.00,-30.00,-16.00
+30.00,+33.00,+18.00,+15.00,-34.00,-37.00,+13.00,+51.00,-82.00,-15.00,+12.00,-13.00,-24.00,+20.00,+35.00,+5.00
-11.00,+19.00,-6.00,-24.00,+5.00,+11.00,-41.00,-20.00,+81.00,+92.00,+21.00,+22.00,+34.00,-1.00,-15.00,-35.00
+64.00,+67.00,+10.00,+16.00,+17.00,-37.00,+23.00,+11.00,+87.00,+127.00,+23.00,+15.00,-19.00,+25.00,+29.00,+30.00
+2.00,-115.00,-13.00,+11.00,-50.00,-4.00,+10.00,+3.00,-123.00,-17.00,-20.00,+1.00,+30.00,+5.00,-28.00,+3.00
-73.00,-21.00,-33.00,-28.00,+10.00,-40.00,+6.00,-35.00,+13.00,-88.00,-11.00,-8.00,-24.00,-13.00,-1.00,-4.00
+65.00,-48.00,+83.00,+43.00,+78.00,-58.00,+9.00,+24.00,-7.00,-76.00,+4.00,+1.00,+3.00,+12.00,+8.00,+39.00
-18.00,-97.00,-13.00,-2.00,+17.00,+92.00,-58.00,-14.00,-89.00,-56.00,-25.00,+11.00,+18.00,-24.00,-3.00,-15.00
-8.00,+5.00,-10.00,-2.00,+40.00,-53.00,+33.00,+31.00,+25.00,-9.00,-6.00,-20.00,-15.00,+42.00,-19.00,-10.00
-6.00,+24.00,-15.00,-1.00,-29.00,+86.00,+13.00,+8.00,-24.00,+2.00,+3.00,+8.00,+2.00,-12.00,+5.00,+30.00
-80.00,+73.00,-44.00,-40.00,-41.00,-62.00,+0.00,-28.00,-48.00,-34.00,+5.00,+0.00,+6.00,+13.00,+8.00,-3.00
-75.00,-62.00,-32.00,-26.00,-90.00,-68.00,-13.00,-29.00,+42.00,+17.00,-10.00,+10.00,-3.00,-21.00,-9.00,-4.00
+95.00,-42.00,+55.00,+30.00,+43.00,-78.00,-24.00,+34.00,+70.00,+64.00,+12.00,+10.00,+7.00,+8.00,+0.00,+10.00
-60.00,-97.00,-33.00,+1.00,+24.00,+41.00,+89.00,-3.00,-61.00,+22.00,-7.00,-25.00,-25.00,+25.00,+35.00,+19.00
-22.00,+114.00,-18.00,-15.00,+16.00,+71.00,+11.00,-19.00,-36.00,-57.00,-12.00,-9.00,+26.00,-37.00,-23.00,-9.00
-13.00,+100.00,+65.00,+21.00,+0.00,-17.00,+12.00,+26.00,-30.00,+8.00,-4.00,-12.00,-16.00,-25.00,-15.00,+39.00
-61.00,-35.00,-28.00,-25.00,-42.00,+31.00,-29.00,-33.00,+6.00,-32.00,-7.00,+14.00,+30.00,+21.00,+56.00,-10.00
+77.00,-30.00,+5.00,+14.00,+21.00,-31.00,-21.00,+27.00,+27.00,+33.00,+17.00,+23.00,-10.00,+9.00,-2.00,-10.00
-2.00,+52.00,+1.00,+5.00,-4.00,+29.00,-12.00,-22.00,+45.00,+88.00,-6.00,-12.00,-16.00,+6.00,+7.00,-16.00
+76.00,-110.00,-36.00,-28.00,-73.00,-39.00,+29.00,+22.00,+62.00,+92.00,+19.00,-5.00,+2.00,-17.00,-14.00,+20.00
-12.00,+62.00,+9.00,+4.00,+35.00,+9.00,-12.00,-5.00,+43.00,-22.00,+1.00,+2.00,+14.00,-8.00,+0.00,+15.00
+8.00,-61.00,+10.00,+17.00,+103.00,+96.00,-45.00,+6.00,-51.00,-44.00,+6.00,+29.00,+21.00,+13.00,+12.00,-37.00
-35.00,+58.00,-3.00,-15.00,-50.00,+49.00,+35.00,-7.00,+17.00,-83.00,-26.00,-17.00,-20.00,-7.00,-3.00,+12.00
+37.00,+26.00,+21.00,+27.00,+38.00,-44.00,-13.00,+6.00,+52.00,+117.00,+49.00,+2.00,-12.00,+11.00,+6.00,+15.00
-26.00,-3.00,+5.00,-7.00,-37.00,-28.00,-18.00,-6.00,+17.00,-49.00,-4.00,-9.00,-20.00,-10.00,-5.00,+15.00
-14.00,+43.00,+13.00,+5.00,+3.00,-79.00,+24.00,+16.00,-35.00,-91.00,-35.00,-9.00,+18.00,-10.00,-23.00,-31.00
+15.00,+19.00,-22.00,-8.00,+6.00,+31.00,-10.00,+3.00,+21.00,-52.00,+6.00,+30.00,+34.00,+33.00,+26.00,+1.00
+18.00,-19.00,-10.00,-14.00,-23.00,-81.00,+14.00,+11.00,-100.00,+11.00,-14.00,-7.00,-27.00,-24.00,-17.00,-8.00
-56.00,-70.00,-52.00,-23.00,+0.00,+1.00,-54.00,-75.00,-80.00,-16.00,-4.00,-38.00,-69.00,-26.00,-15.00,-21.00
+104.00,+27.00,+64.00,+46.00,+8.00,-33.00,+10.00,+51.00,+61.00,-8.00,-23.00,-23.00,+22.00,-12.00,-27.00,-16.00
-5.00,-128.00,+20.00,+10.00,-9.00,-67.00,-21.00,+33.00,+31.00,+37.00,+5.00,+51.00,+25.00,+5.00,+28.00,+3.00
-58.00,+28.00,-5.00,-5.00,-8.00,+22.00,+14.00,-13.00,+94.00,+39.00,+6.00,-34.00,-13.00,+17.00,+7.00,-1.00
-63.00,+55.00,+5.00,+2.00,+4.00,+40.00,+56.00,+18.00,-17.00,-45.00,-19.00,-10.00,+26.00,-7.00,-2.00,+7.00
+39.00,+8.00,+32.00,+14.00,-5.00,+9.00,-41.00,+17.00,-59.00,-47.00,-8.00,+3.00,-8.00,+1.00,-10.00,-10.00
-55.00,-113.00,-37.00,-15.00,-19.00,+41.00,+7.00,-42.00,-68.00,-95.00,-4.00,+1.00,-20.00,+2.00,-6.00,-10.00
-11.00,+23.00,+2.00,+7.00,+32.00,-7.00,-19.00,+8.00,+62.00,-85.00,-5.00,+14.00,+11.00,+5.00,+10.00,+3.00
+26.00,-47.00,-5.00,+0.00,-3.00,+19.00,-24.00,+10.00,-92.00,+1.00,-1.00,-3.00,-14.00,-11.00,-21.00,-25.00
-15.00,-120.00,-36.00,-20.00,-9.00,+1.00,+37.00,-19.00,+127.00,+32.00,+6.00,+6.00,+15.00,+9.00,+7.00,+22.00
-49.00,-21.00,-7.00,-8.00,-34.00,+60.00,-16.00,-10.00,+36.00,-17.00,+3.00,-3.00,+7.00,+10.00,+12.00,+26.00
-19.00,+101.00,+32.00,+6.00,-39.00,-72.00,-15.00,-8.00,-128.00,+53.00,+28.00,+20.00,+7.00,-5.00,-11.00,-29.00
+9.00,-5.00,+3.00,+1.00,+22.00,+80.00,-9.00,-19.00,-104.00,+47.00,-3.00,-22.00,-1.00,-12.00,-16.00,-32.00
-12.00,+13.00,-3.00,+2.00,+10.00,+14.00,+70.00,+0.00,-2.00,+24.00,+9.00,+2.00,-11.00,-3.00,-14.00,+6.00
+0.00,-76.00,+1.00,-1.00,+18.00,+15.00,-59.00,-13.00,-55.00,-20.00,-2.00,-11.00,-12.00,+3.00,+26.00,+0.00
+24.00,-78.00,-29.00,+2.00,-14.00,-85.00,+28.00,+7.00,-90.00,-75.00,-26.00,-12.00,+15.00,-20.00,-29.00,-21.00
+44.00,+33.00,+26.00,+14.00,-14.00,+35.00,+21.00,+9.00,+74.00,+28.00,-5.00,+11.00,-16.00,+6.00,+27.00,-6.00
-42.00,+36.00,-13.00,-18.00,-21.00,-7.00,-108.00,-46.00,-109.00,+1.00,-4.00,-23.00,-38.00,-10.00,-8.00,-14.00
+13.00,+39.00,-17.00,-12.00,-3.00,-6.00,+98.00,+32.00,+22.00,+7.00,+0.00,-2.00,+6.00,-18.00,-7.00,-7.00
+11.00,+51.00,+10.00,+4.00,+21.00,+38.00,-3.00,-21.00,-10.00,-32.00,-38.00,-33.00,-1.00,+32.00,-35.00,-31.00
+74.00,+46.00,+37.00,+26.00,-13.00,-51.00,+38.00,+36.00,+61.00,+51.00,+18.00,+16.00,+28.00,-26.00,-32.00,+14.00
-60.00,-83.00,-36.00,-13.00,-5.00,+11.00,-41.00,-36.00,+74.00,-5.00,+13.00,+7.00,-3.00,-9.00,+1.00,+15.00
+53.00,+56.00,+18.00,+12.00,+18.00,-22.00,-2.00,+22.00,-114.00,-58.00,-15.00,-15.00,-3.00,-10.00,-9.00,+0.00
+7.00,-27.00,+4.00,-14.00,-3.00,+39.00,+3.00,-8.00,-71.00,-65.00,-12.00,+9.00,+6.00,+8.00,+12.00,-23.00
-11.00,-108.00,-31.00,-7.00,-1.00,-8.00,-8.00,-3.00,+54.00,+53.00,+5.00,+1.00,+6.00,+13.00,+8.00,+20.00
+47.00,-3.00,+9.00,-2.00,-61.00,-19.00,-5.00,-2.00,-93.00,+2.00,-3.00,+8.00,+1.00,+7.00,+0.00,-24.00
-20.00,-36.00,-2.00,+4.00,+4.00,-13.00,+1.00,+6.00,-93.00,-2.00,-8.00,-5.00,-26.00,-8.00,-23.00,-17.00
+14.00,+40.00,-6.00,-1.00,+61.00,+30.00,+2.00,+0.00,-28.00,-16.00,+8.00,+10.00,+11.00,-12.00,+12.00,-4.00
-59.00,-37.00,-16.00,-12.00,-2.00,-6.00,-16.00,-14.00,-50.00,-10.00,-11.00,-21.00,-51.00,-6.00,-1.00,-6.00
-1.00,+117.00,+44.00,-1.00,-77.00,-45.00,-33.00,-4.00,+47.00,-22.00,+4.00,+4.00,+27.00,+11.00,+13.00,+30.00
+11.00,+1.00,+38.00,+38.00,+87.00,+55.00,+52.00,+38.00,+8.00,+98.00,+15.00,+4.00,+9.00,+11.00,+12.00,+2.00
-87.00,-4.00,-29.00,-22.00,+27.00,+14.00,-29.00,-14.00,-11.00,-45.00,-3.00,+17.00,+7.00,-11.00,+9.00,+16.00
+7.00,-62.00,+35.00,+19.00,+10.00,-12.00,-6.00,+14.00,-7.00,-20.00,-3.00,-4.00,+21.00,-2.00,+2.00,-16.00
+27.00,+3.00,-15.00,-9.00,-6.00,+16.00,+9.00,-22.00,+19.00,+45.00,+9.00,-8.00,-14.00,-27.00,+4.00,+5.00
-29.00,-1.00,-16.00,-18.00,-60.00,-24.00,-27.00,+14.00,-11.00,-53.00,-1.00,-6.00,-13.00,+26.00,-21.00,-2.00
-23.00,-79.00,-6.00,+6.00,-14.00,-20.00,+1.00,-12.00,-16.00,+73.00,+7.00,-14.00,-21.00,+11.00,+19.00,-16.00
+16.00,+127.00,+20.00,-6.00,+1.00,+49.00,+4.00,-11.00,+62.00,-18.00,+5.00,+14.00,+28.00,-6.00,-17.00,+30.00
-14.00,-71.00,+4.00,+1.00,-1.00,-16.00,-14.00,+6.00,+104.00,+55.00,+13.00,+11.00,+5.00,+23.00,+39.00,+13.00
+63.00,+9.00,+13.00,+22.00,+13.00,-22.00,+13.00,+26.00,+76.00,+101.00,+11.00,-2.00,+12.00,-14.00,-25.00,+17.00
+25.00,-11.00,-26.00,-15.00,-7.00,+29.00,+47.00,-4.00,+5.00,+6.00,-9.00,-11.00,-23.00,-6.00,+44.00,+17.00
-37.00,-20.00,-34.00,-27.00,-12.00,-44.00,-8.00,-28.00,-64.00,-21.00,-4.00,-6.00,-31.00,+3.00,-3.00,-29.00
-9.00,-99.00,-14.00,+11.00,+26.00,-24.00,+5.00,+17.00,-101.00,-36.00,-5.00,-2.00,+12.00,+1.00,-5.00,-14.00
-1.00,+57.00,-15.00,-22.00,-35.00,+65.00,-18.00,-45.00,+40.00,-46.00,-8.00,-1.00,-7.00,-14.00,-5.00,+1.00
-6.00,-80.00,-3.00,+8.00,-20.00,-37.00,+3.00,-3.00,-14.00,-38.00,-2.00,+5.00,+6.00,+5.00,-13.00,-12.00
-13.00,+127.00,+0.00,-4.00,+30.00,-59.00,+6.00,+24.00,+30.00,+42.00,+5.00,+15.00,+24.00,+13.00,+10.00,+5.00
-88.00,+113.00,-18.00,-22.00,-45.00,-86.00,-45.00,-40.00,-36.00,+4.00,-4.00,-3.00,-32.00,-4.00,-19.00,-19.00
-74.00,-95.00,-2.00,+25.00,+70.00,-14.00,+13.00,-13.00,+70.00,-9.00,+1.00,-3.00,+33.00,-12.00,-7.00,-24.00
+88.00,+33.00,+32.00,+16.00,+11.00,+86.00,+35.00,+33.00,+32.00,-21.00,-2.00,+3.00,-18.00,+1.00,+4.00,+61.00
-15.00,-50.00,-10.00,-1.00,-17.00,+6.00,+17.00,+8.00,+42.00,-7.00,+3.00,-10.00,-8.00,+11.00,+0.00,-13.00
-20.00,+17.00,-45.00,-24.00,+9.00,+58.00,+6.00,-1.00,+55.00,+16.00,+3.00,+14.00,+18.00,-6.00,+4.00,+13.00
+39.00,+111.00,+9.00,-24.00,-55.00,-77.00,-32.00,-8.00,-46.00,+5.00,-2.00,-2.00,-18.00,+12.00,+17.00,-2.00
-14.00,+18.00,-11.00,-3.00,-19.00,+23.00,-29.00,-1.00,-4.00,+29.00,-11.00,-16.00,+1.00,-9.00,-14.00,-9.00
+50.00,+12.00,+43.00,+39.00,+26.00,-6.00,+21.00,+28.00,-68.00,-14.00,-1.00,-1.00,-21.00,+0.00,+0.00,-18.00
+4.00,+36.00,+1.00,-3.00,-4.00,+51.00,-15.00,-12.00,-57.00,-32.00,-10.00,+3.00,+24.00,+11.00,-15.00,-16.00
-46.00,-7.00,-5.00,-5.00,-9.00,-17.00,-6.00,-27.00,-28.00,+8.00,-2.00,-8.00,-38.00,-18.00,-14.00,-15.00
-35.00,-22.00,-6.00,-5.00,+11.00,-20.00,-26.00,-17.00,+89.00,-15.00,-11.00,-17.00,-15.00,-12.00,-9.00,+3.00
-39.00,-43.00,-13.00,-14.00,-20.00,-48.00,-32.00,-28.00,-128.00,-77.00,-2.00,-4.00,+1.00,-9.00,-12.00,-16.00
+27.00,+54.00,+15.00,+13.00,+24.00,+61.00,+1.00,+33.00,+86.00,+22.00,+4.00,-4.00,-9.00,+6.00,+3.00,+5.00
+16.00,+33.00,+11.00,+2.00,-13.00,+44.00,+97.00,+16.00,+24.00,-32.00,-14.00,-2.00,-6.00,-16.00,-6.00,-3.00
+0.00,+64.00,+3.00,-3.00,+15.00,+15.00,-32.00,+12.00,-37.00,+22.00,+6.00,+10.00,+6.00,+26.00,+10.00,-17.00
-30.00,-27.00,-18.00,-1.00,-11.00,-87.00,-37.00,-10.00,-12.00,-12.00,-5.00,-3.00,+1.00,-7.00,-5.00,-25.00
+30.00,+4.00,+11.00,+6.00,+10.00,+23.00,+17.00,+7.00,-1.00,+38.00,-3.00,-7.00,-18.00,-13.00,-11.00,-10.00
-72.00,-99.00,-40.00,-9.00,+30.00,-58.00,-65.00,-45.00,+7.00,-81.00,-17.00,-7.00,+1.00,-3.00,-2.00,+1.00
+98.00,+36.00,+7.00,+11.00,+8.00,+46.00,+53.00,+43.00,-6.00,+6.00,+10.00,+7.00,+8.00,-2.00,-1.00,+10.00
-4.00,+71.00,+18.00,-7.00,-41.00,+29.00,-8.00,-8.00,+56.00,+58.00,+8.00,+2.00,+1.00,+0.00,-3.00,-11.00
+11.00,-63.00,-2.00,-2.00,+18.00,-44.00,-7.00,+20.00,-13.00,-30.00,-6.00,+9.00,+15.00,+5.00,+0.00,+4.00
-13.00,-3.00,+9.00,+4.00,+12.00,+29.00,-22.00,-9.00,-25.00,+33.00,+14.00,+2.00,+14.00,+7.00,+7.00,+9.00
-55.00,-31.00,-1.00,-1.00,-12.00,-34.00,-15.00,-28.00,+15.00,-3.00,-5.00,-10.00,+0.00,-5.00,+16.00,+2.00
-23.00,-92.00,-32.00,-2.00,+20.00,+60.00,-2.00,-20.00,+5.00,-2.00,+4.00,-8.00,-39.00,-9.00,-6.00,+20.00
+9.00,-13.00,+2.00,-10.00,-19.00,-19.00,-21.00,-6.00,-14.00,-33.00,-11.00,-7.00,-5.00,-14.00,-19.00,-30.00
+5.00,+96.00,-2.00,-11.00,-31.00,-28.00,+6.00,-23.00,+0.00,+39.00,+3.00,-5.00,-3.00,-1.00,+3.00,+13.00
-16.00,-58.00,+11.00,+11.00,+6.00,+52.00,-7.00,+10.00,-92.00,-53.00,+3.00,+9.00,+7.00,+9.00,+6.00,+12.00
+16.00,+28.00,-19.00,-17.00,-32.00,+73.00,-11.00,-3.00,+38.00,-18.00,-15.00,-3.00,+23.00,+5.00,+5.00,+13.00
-16.00,+15.00,-4.00,+0.00,+30.00,-20.00,+43.00,+17.00,+3.00,+79.00,+20.00,+9.00,+1.00,+9.00,+8.00,+3.00
+36.00,+65.00,+22.00,+7.00,-4.00,-32.00,-10.00,+2.00,-6.00,+10.00,-2.00,-6.00,-14.00,-17.00,-13.00,-32.00
+31.00,+30.00,-14.00,-12.00,+3.00,-22.00,-12.00,-4.00,+71.00,-6.00,+0.00,+0.00,+6.00,+2.00,-1.00,+48.00
-9.00,+55.00,+9.00,-4.00,-20.00,-21.00,-28.00,-19.00,-66.00,+16.00,-4.00,+6.00,+8.00,+3.00,+4.00,-9.00
+9.00,-27.00,-3.00,+2.00,+2.00,+28.00,+28.00,-9.00,+23.00,-11.00,-3.00,-1.00,-2.00,+4.00,+2.00,+13.00
+10.00,-4.00,+11.00,+4.00,+15.00,+27.00,-13.00,+11.00,-13.00,-16.00,+8.00,+4.00,+3.00,+7.00,+9.00,-7.00
-4.00,-13.00,+0.00,-1.00,-15.00,-38.00,+33.00,+13.00,-39.00,-17.00,-14.00,-7.00,-9.00,-7.00,-14.00,-21.00
-3.00,-23.00,-10.00,-2.00,+3.00,-15.00,-1.00,+12.00,-70.00,-24.00,-9.00,+3.00,+1.00,-4.00,-7.00,-16.00
+38.00,+54.00,+19.00,+11.00,-4.00,-29.00,-24.00,-1.00,+3.00,-11.00,+1.00,-6.00,-8.00,-5.00,+2.00,+13.00
-46.00,-68.00,-14.00,-5.00,+30.00,-31.00,+10.00,-13.00,-3.00,+15.00,+4.00,+4.00,+4.00,+7.00,+12.00,+8.00
-9.00,+44.00,-8.00,-11.00,-22.00,+6.00,-28.00,-57.00,+26.00,-7.00,-4.00,+5.00,-1.00,+3.00,-2.00,+0.00
+63.00,-65.00,+11.00,+17.00,+35.00,+9.00,+34.00,+51.00,+25.00,+13.00,+2.00,-2.00,-5.00,+31.00,+22.00,+28.00
-14.00,+53.00,+10.00,+1.00,+4.00,+17.00,+18.00,+44.00,-55.00,-19.00,-4.00,-5.00,-1.00,-26.00,-9.00,-30.00
+16.00,-32.00,-8.00,-5.00,-34.00,+2.00,-28.00,+9.00,-8.00,+3.00,-3.00,-3.00,+22.00,-29.00,-28.00,-3.00
-20.00,+26.00,-4.00,-6.00,+0.00,+39.00,-13.00,-20.00,+11.00,+39.00,+10.00,-1.00,-38.00,-15.00,-18.00,+1.00
-6.00,-3.00,+0.00,-3.00,+8.00,-16.00,-3.00,-23.00,+30.00,+14.00,+7.00,+4.00,+15.00,-2.00,-3.00,+8.00
-30.00,-44.00,+0.00,+4.00,-7.00,-28.00,+9.00,-4.00,+91.00,+22.00,+2.00,-2.00,+0.00,+15.00,+11.00,+28.00
+8.00,-4.00,+3.00,-1.00,-9.00,-3.00,-6.00,+0.00,-12.00,-5.00,-10.00,-4.00,-9.00,+13.00,+0.00,-10.00
+2.00,+55.00,+3.00,+0.00,+5.00,+23.00,+9.00,+0.00,-45.00,-15.00,+1.00,+0.00,+5.00,+2.00,-4.00,-29.00
+68.00,-33.00,-12.00,-12.00,-23.00,-29.00,+33.00,+36.00,+127.00,+46.00,+13.00,+5.00,+13.00,+6.00,+16.00,+19.00
+18.00,+34.00,+10.00,+9.00,+10.00,+81.00,-40.00,-10.00,-26.00,+32.00,-4.00,-1.00,-13.00,+0.00,-11.00,-9.00
-12.00,+7.00,+4.00,+7.00,+20.00,-95.00,-8.00,-6.00,-33.00,-9.00,+0.00,-3.00,-10.00,-5.00,+3.00,+0.00
-2.00,-25.00,+10.00,+7.00,+19.00,+10.00,+2.00,-6.00,-11.00,+18.00,+0.00,+2.00,+8.00,+1.00,-2.00,-13.00
-29.00,+16.00,-7.00,-6.00,-3.00,+1.00,-6.00,-39.00,-27.00,-53.00,-18.00,-11.00,-11.00,-11.00,-9.00,-8.00
-16.00,-10.00,-8.00,-2.00,-2.00,-64.00,+9.00,+29.00,-37.00,-28.00,+3.00,-4.00,+3.00,-7.00,-1.00,-6.00
+40.00,+24.00,+2.00,+1.00,-8.00,+21.00,+4.00,+24.00,-29.00,+6.00,-7.00,-5.00,-8.00,+2.00,+4.00,+4.00
-22.00,-100.00,-10.00,-5.00,-17.00,-16.00,+30.00,+19.00,+72.00,+38.00,+6.00,+2.00,+6.00,+5.00,+7.00,+11.00
+11.00,+95.00,+6.00,+3.00,+14.00,+3.00,-54.00,-10.00,-14.00,-5.00,-1.00,+2.00,+2.00,-5.00,-5.00,-8.00
-29.00,-62.00,-5.00,-1.00,+7.00,+34.00,+16.00,-23.00,+13.00,-13.00,-10.00,-6.00,-3.00,-4.00,+1.00,+12.00
+7.00,+51.00,-10.00,-10.00,-20.00,-7.00,-15.00,-5.00,-19.00,+5.00,-4.00,-5.00,-3.00,+3.00,+2.00,+2.00
+27.00,-6.00,+17.00,+12.00,+3.00,-14.00,+10.00,+14.00,+1.00,-23.00,-2.00,-2.00,+0.00,+2.00,-3.00,-4.00
+1.00,+76.00,+27.00,+14.00,+13.00,+18.00,+17.00,-3.00,-11.00,-3.00,+1.00,+0.00,-1.00,-6.00,-3.00,-6.00
+18.00,+47.00,-5.00,-2.00,+3.00,-16.00,+1.00,+14.00,-9.00,-8.00,-3.00,-3.00,+0.00,-2.00,+0.00,+3.00
-22.00,-58.00,-3.00,-3.00,-8.00,+34.00,+2.00,-1.00,+19.00,-3.00,+4.00,+2.00,-7.00,+2.00,+2.00,+2.00
-9.00,+63.00,+3.00,-8.00,-7.00,-5.00,-15.00,-4.00,-6.00,-10.00,-3.00,-1.00,+6.00,-1.00,+1.00,-7.00
-18.00,-45.00,-10.00,-5.00,+3.00,-21.00,-7.00,-9.00,+14.00,+1.00,-2.00,+1.00,+6.00,-1.00,+2.00,+5.00
+5.00,+2.00,+1.00,+1.00,+3.00,+9.00,+2.00,-20.00,-31.00,-24.00,-5.00,-6.00,-7.00,-6.00,-5.00,-6.00
-2.00,-4.00,+5.00,+1.00,-3.00,+0.00,-1.00,-16.00,-65.00,+0.00,+5.00,+2.00,+0.00,+1.00,-5.00,-9.00
-9.00,+0.00,-7.00,-5.00,-4.00,-13.00,-29.00,-78.00,+24.00,+3.00,+1.00,-1.00,+3.00,+0.00,-2.00,+3.00
-10.00,-7.00,-7.00,-5.00,-12.00,-7.00,-15.00,+32.00,+3.00,+12.00,+2.00,-1.00,+0.00,-1.00,+0.00,+3.00
+9.00,-10.00,+0.00,+0.00,+1.00,+37.00,+18.00,+6.00,-59.00,+5.00,+4.00,+4.00,+1.00,+4.00,-1.00,-11.00
+13.00,+3.00,+7.00,+4.00,+9.00,-10.00,+89.00,+50.00,+30.00,+25.00,+3.00,+3.00,+0.00,+2.00,+2.00,-2.00
-21.00,-24.00,-6.00,-2.00,+2.00,+36.00,+6.00,+21.00,-1.00,-22.00,-7.00,+2.00,+2.00,+0.00,+0.00,-3.00
+1.00,+39.00,+8.00,+4.00,+5.00,+21.00,+12.00,-17.00,-9.00,+4.00,+3.00,+1.00,-2.00,-3.00,+1.00,+4.00
+8.00,+1.00,-9.00,-7.00,-11.00,-22.00,-19.00,-22.00,-14.00,-20.00,-5.00,-1.00,+0.00,-3.00,+0.00,+3.00
-25.00,-74.00,-7.00,-5.00,-7.00,-7.00,-36.00,-20.00,+48.00,+7.00,-1.00,-1.00,-3.00,+0.00,+3.00,+4.00
+42.00,+97.00,+38.00,+11.00,-2.00,-16.00,-4.00,+5.00,-27.00,-2.00,+4.00,+2.00,+2.00,+0.00,-5.00,-13.00
-35.00,-116.00,-14.00,-1.00,+1.00,-18.00,+7.00,-2.00,-3.00,-2.00,-1.00,-3.00,-2.00,-4.00,+1.00,-1.00
+18.00,+32.00,-1.00,-2.00,+0.00,-9.00,+1.00,+3.00,+11.00,-9.00,-3.00,-5.00,-5.00,-3.00,-5.00,-5.00
-11.00,-34.00,-3.00,-3.00,-6.00,+10.00,-18.00,-13.00,-1.00,-8.00,-4.00,-3.00,-3.00,-5.00,-7.00,-13.00
-13.00,-7.00,-16.00,-14.00,-11.00,-17.00,-3.00,+12.00,+3.00,-2.00,+0.00,+0.00,+2.00,+7.00,+2.00,+21.00
-6.00,-3.00,-4.00,-5.00,+0.00,+14.00,-5.00,+6.00,-24.00,-7.00,-4.00,-3.00,+0.00,-8.00,+5.00,+0.00
-26.00,-69.00,-2.00,+5.00,+6.00,-13.00,+3.00,-12.00,+9.00,-4.00,-1.00,+0.00,+7.00,+2.00,+2.00,+7.00
+16.00,+55.00,+8.00,+3.00,+0.00,+28.00,-3.00,+2.00,-4.00,-4.00,-3.00,-3.00,-5.00,-2.00,+3.00,+1.00
-14.00,-15.00,-7.00,-3.00,-7.00,-9.00,-8.00,+9.00,+3.00,-8.00,-4.00,-3.00,-5.00,-5.00,-8.00,-16.00
+5.00,-1.00,-4.00,+0.00,+4.00,-8.00,+3.00,-1.00,-61.00,-7.00,-2.00,-1.00,-2.00,-1.00,-5.00,-13.00
-15.00,-12.00,+2.00,+3.00,+0.00,-4.00,+5.00,-14.00,+15.00,+13.00,+8.00,+4.00,+3.00,+4.00,+6.00,+16.00
+13.00,+19.00,+5.00,+4.00,-2.00,+3.00,-5.00,+11.00,+74.00,+10.00,+1.00,-2.00,-3.00,-1.00,-2.00,+12.00
-16.00,-36.00,-8.00,+3.00,+7.00,+2.00,-1.00,+5.00,-82.00,-32.00,-3.00,+1.00,+2.00,+2.00,-1.00,-12.00
-7.00,+8.00,-8.00,-9.00,-5.00,-3.00,+3.00,-5.00,+7.00,+2.00,-4.00,-3.00,-1.00,+2.00,-6.00,-10.00
-4.00,-31.00,-9.00,-6.00,+1.00,-4.00,+4.00,-1.00,+17.00,-4.00,-2.00,-1.00,-3.00,-4.00,-3.00,-1.00
+2.00,+37.00,+2.00,-2.00,-7.00,+13.00,-11.00,+0.00,-21.00,-7.00,+1.00,+0.00,+1.00,+0.00,-3.00,-6.00
+10.00,-14.00,+8.00,+7.00,+6.00,-3.00,+4.00,+5.00,-9.00,-5.00,-3.00,-2.00,-3.00,-2.00,+1.00,+2.00
-6.00,-12.00,-6.00,-1.00,+0.00,+4.00,+0.00,+2.00,+15.00,+4.00,-1.00,-1.00,+0.00,-1.00,-3.00,-4.00
+5.00,+21.00,+0.00,+1.00,+1.00,-2.00,+0.00,-17.00,-23.00,-12.00,-1.00,+1.00,-4.00,-1.00,-4.00,-4.00
+22.00,+18.00,+2.00,-1.00,+0.00,+1.00,-4.00,+10.00,+16.00,+10.00,-2.00,-3.00,-2.00,-2.00,+1.00,+3.00
-19.00,-75.00,-22.00,-12.00,-8.00,-10.00,-7.00,-10.00,+3.00,+0.00,-1.00,+0.00,+2.00,+0.00,+1.00,+0.00
+14.00,+8.00,-7.00,-7.00,-2.00,-6.00,+3.00,-2.00,-2.00,-2.00,+0.00,+0.00,-2.00,+0.00,-1.00,+2.00
+16.00,-56.00,+22.00,+17.00,+9.00,+5.00,+8.00,+19.00,+17.00,+3.00,-3.00,-3.00,-5.00,-2.00,-2.00,-3.00
-9.00,-18.00,-3.00,+1.00,-1.00,-2.00,-7.00,-13.00,-38.00,-15.00,-4.00,-1.00,-2.00,+0.00,+1.00,-6.00
+12.00,-10.00,+0.00,-1.00,-3.00,-5.00,-3.00,+4.00,+23.00,+13.00,+2.00,+0.00,+0.00,-2.00,-2.00,+9.00
+0.00,+10.00,-7.00,-2.00,-3.00,+0.00,-3.00,-4.00,+15.00,+7.00,+3.00,-3.00,-4.00,-3.00,+1.00,+1.00
-2.00,+11.00,-10.00,-9.00,-4.00,-9.00,-3.00,-4.00,+2.00,-1.00,-4.00,-1.00,-2.00,+1.00,+0.00,+4.00
+14.00,-22.00,-7.00,-5.00,-2.00,+4.00,-4.00,-2.00,-3.00,-12.00,-7.00,-3.00,-1.00,-1.00,+0.00,-2.00
-12.00,+17.00,-2.00,-4.00,-4.00,-3.00,-4.00,+8.00,-16.00,-6.00,-1.00,-4.00,-2.00,-3.00,-3.00,-5.00
-22.00,-7.00,-1.00,+3.00,+3.00,+4.00,+0.00,-12.00,+53.00,+20.00,+3.00,+1.00,-1.00,-1.00,+0.00,+14.00
-1.00,+20.00,+5.00,+2.00,-1.00,+0.00,+2.00,+10.00,-34.00,-19.00,-4.00,-4.00,+1.00,-1.00,-4.00,-21.00
-20.00,-15.00,+0.00,+1.00,-4.00,-74.00,-12.00,+3.00,+35.00,+15.00,+4.00,+0.00,+0.00,-2.00,+1.00,+7.00
-7.00,+21.00,-1.00,-2.00,-2.00,+35.00,+5.00,+15.00,+46.00,-1.00,-2.00,-3.00,-1.00,-2.00,+0.00,+4.00
+2.00,+4.00,+3.00,+3.00,+0.00,-3.00,+1.00,-5.00,-99.00,-19.00,-1.00,+0.00,+0.00,+2.00,-2.00,-13.00
+2.00,-2.00,+1.00,+0.00,+0.00,+9.00,+2.00,-2.00,+39.00,+8.00,+2.00,-1.00,-2.00,-2.00,-1.00,+4.00
-3.00,-3.00,-5.00,-5.00,-1.00,+17.00,+0.00,-5.00,-12.00,-10.00,-7.00,-2.00,+0.00,+1.00,+1.00,+0.00
+8.00,-2.00,-1.00,-1.00,+0.00,-13.00,-3.00,+4.00,+8.00,+5.00,+1.00,+0.00,-1.00,-1.00,+1.00,+3.00
-11.00,-21.00,+2.00,+3.00,+2.00,-6.00,+2.00,-3.00,+12.00,-3.00,-3.00,-2.00,-1.00,-1.00,-2.00,+0.00
-14.00,+10.00,-10.00,-8.00,-4.00,+3.00,-5.00,-8.00,-2.00,+1.00,-1.00,-4.00,-1.00,-1.00,-2.00,+1.00
+8.00,-5.00,+9.00,+5.00,+5.00,+23.00,+7.00,+17.00,-15.00,-2.00,+4.00,+4.00,-1.00,+1.00,+1.00,+4.00
+8.00,+28.00,+9.00,+4.00,+2.00,-15.00,+2.00,-3.00,+4.00,-1.00,-6.00,-1.00,-2.00,-2.00,-1.00,-5.00
-10.00,-27.00,+4.00,+1.00,+0.00,+8.00,+0.00,+3.00,+8.00,-3.00,-2.00,+1.00,-1.00,-3.00,-4.00,-6.00
+15.00,+38.00,-7.00,-6.00,-2.00,-13.00,-2.00,+0.00,+1.00,+2.00,+0.00,+0.00,-2.00,-2.00,-2.00,+1.00
+4.00,+62.00,-3.00,-6.00,-1.00,+11.00,-1.00,+2.00,-7.00,-5.00,-4.00,-2.00,-1.00,+0.00,-2.00,+0.00
-6.00,-51.00,-6.00,-2.00,-1.00,-4.00,-1.00,-8.00,-18.00,-2.00,-1.00,-2.00,-2.00,-2.00,+0.00,-7.00
+5.00,+4.00,+4.00,+0.00,+2.00,-3.00,-1.00,+8.00,+35.00,+2.00,-2.00,-1.00,+0.00,-1.00,-2.00,-3.00
+0.00,-12.00,+2.00,+1.00,-3.00,-5.00,-3.00,-7.00,+2.00,-5.00,+0.00,+2.00,+2.00,+2.00,+2.00,+6.00
-1.00,-3.00,-1.00,+2.00,-2.00,+3.00,-2.00,+2.00,-30.00,-2.00,+0.00,-2.00,-2.00,-2.00,-2.00,-10.00
+0.00,+16.00,+2.00,+1.00,+1.00,+0.00,-2.00,-4.00,-20.00,-3.00,-1.00,-1.00,-2.00,-2.00,-2.00,-7.00
+2.00,+17.00,-1.00,-4.00,-3.00,-4.00,-4.00,-4.00,-73.00,-25.00,-5.00,-4.00,-4.00,-2.00,-2.00,+4.00
-5.00,-5.00,+2.00,+0.00,+1.00,-1.00,+0.00,-8.00,+81.00,+25.00,+3.00,-4.00,+1.00,-2.00,+1.00,+13.00
-3.00,-17.00,+1.00,+3.00,+5.00,+13.00,+2.00,+13.00,+41.00,+4.00,+4.00,+3.00,+1.00,+2.00,+2.00,+3.00
