-16.00,-9.00,-7.00,-9.00,-26.00,-4.00,-11.00,-48.00,+3.00,-1.00,-3.00,+10.00,+5.00,+3.00,-5.00,+0.00
+2.00,-5.00,-1.00,+2.00,+28.00,+3.00,+2.00,+30.00,-20.00,-5.00,+1.00,+6.00,-1.00,+4.00,+4.00,-1.00
+38.00,+7.00,+8.00,+5.00,-27.00,-1.00,+1.00,-19.00,+33.00,-1.00,+0.00,+7.00,+9.00,+6.00,+11.00,+16.00
+44.00,+31.00,+5.00,+3.00,+24.00,-6.00,+2.00,-3.00,-20.00,-6.00,-13.00,-22.00,-22.00,-20.00,-22.00,-22.00
+0.00,-8.00,+0.00,+2.00,+23.00,+3.00,+2.00,+17.00,-14.00,-20.00,+1.00,+7.00,+17.00,+4.00,+1.00,+11.00
-6.00,+2.00,+4.00,+1.00,+6.00,+1.00,-2.00,-15.00,+19.00,+14.00,-1.00,-10.00,-14.00,-7.00,-3.00,-10.00
-5.00,+13.00,+0.00,-1.00,-20.00,-15.00,-11.00,-12.00,-10.00,+10.00,+1.00,-8.00,-3.00,+0.00,+0.00,-6.00
-7.00,-14.00,-3.00,-3.00,+7.00,+6.00,+5.00,-5.00,+11.00,-1.00,+0.00,-2.00,+1.00,+4.00,+9.00,+21.00
-12.00,-6.00,-5.00,-9.00,-116.00,-25.00,-2.00,-5.00,-1.00,+0.00,-1.00,+7.00,+7.00,-1.00,-4.00,-15.00
+13.00,-2.00,+4.00,+8.00,+123.00,+41.00,+4.00,+1.00,-9.00,-13.00,+0.00,-10.00,-1.00,+1.00,-3.00,+3.00
+9.00,+6.00,+2.00,-3.00,-19.00,-1.00,-3.00,+11.00,-1.00,-1.00,+0.00,+18.00,+20.00,+0.00,-5.00,-5.00
-5.00,-1.00,+3.00,+5.00,-3.00,+0.00,+0.00,-2.00,-8.00,-8.00,-3.00,-25.00,-56.00,-6.00,+2.00,+0.00
-1.00,+3.00,-2.00,+1.00,+4.00,-4.00,+0.00,+2.00,+0.00,-7.00,+1.00,+17.00,+34.00,-1.00,-7.00,-4.00
-6.00,-8.00,-5.00,-7.00,-51.00,-14.00,-1.00,-1.00,+2.00,+5.00,+0.00,-1.00,-5.00,-1.00,+6.00,+5.00
-4.00,-3.00,-3.00,-2.00,-8.00,-5.00,+0.00,+0.00,-2.00,-2.00,-7.00,+3.00,-14.00,-4.00,-9.00,-9.00
+1.00,+3.00,+4.00,+0.00,-1.00,+2.00,+4.00,-1.00,+5.00,-1.00,+0.00,-15.00,+27.00,+2.00,+1.00,+8.00
-11.00,-1.00,+2.00,+3.00,+8.00,+4.00,-2.00,+0.00,+0.00,+4.00,+1.00,-4.00,-1.00,+2.00,+1.00,+1.00
+6.00,+5.00,+1.00,+2.00,-6.00,-2.00,-4.00,-4.00,-3.00,+0.00,+2.00,+2.00,+0.00,+0.00,+1.00,+1.00
+9.00,+4.00,+4.00,+3.00,+16.00,+3.00,+0.00,+11.00,+5.00,+2.00,+2.00,-3.00,-10.00,-4.00,-4.00,-6.00
+3.00,-1.00,-4.00,-5.00,-15.00,-9.00,-2.00,+1.00,-3.00,-4.00,+5.00,+9.00,+1.00,+1.00,+1.00,+4.00
-7.00,-6.00,-6.00,-5.00,+6.00,+2.00,-1.00,+0.00,-1.00,-3.00,-4.00,-7.00,-10.00,-3.00,+0.00,+2.00
-8.00,+4.00,-1.00,-4.00,-9.00,-4.00,-5.00,-29.00,+8.00,+4.00,+1.00,+3.00,+11.00,+3.00,+0.00,+2.00
+19.00,+5.00,+3.00,+3.00,+5.00,+1.00,-2.00,+17.00,-2.00,+1.00,-6.00,-4.00,-4.00,-6.00,-3.00,+0.00
-5.00,-24.00,-4.00,+1.00,-11.00,+1.00,+3.00,+3.00,-16.00,+0.00,-1.00,+4.00,+1.00,+1.00,+12.00,+3.00
-11.00,+16.00,-5.00,-1.00,+12.00,+2.00,+1.00,+1.00,+36.00,-1.00,-11.00,-9.00,-2.00,+0.00,-4.00,-7.00
+12.00,-1.00,-2.00,-2.00,-24.00,-15.00,-6.00,-35.00,-13.00,-11.00,-4.00,+6.00,+2.00,+2.00,-4.00,-5.00
+29.00,-2.00,-6.00,-8.00,-28.00,+5.00,+1.00,+23.00,-4.00,+0.00,+4.00,-5.00,+0.00,+5.00,-4.00,+0.00
-23.00,-9.00,+2.00,+7.00,+51.00,+22.00,+2.00,+11.00,-8.00,-7.00,-2.00,+15.00,+21.00,+4.00,+1.00,+1.00
-30.00,-5.00,-1.00,-1.00,+8.00,+6.00,+2.00,-10.00,+4.00,+2.00,-1.00,+5.00,+0.00,-1.00,+6.00,+11.00
+1.00,+3.00,-4.00,-1.00,+2.00,+3.00,+2.00,+5.00,+10.00,+10.00,+1.00,-15.00,-11.00,-9.00,-11.00,-20.00
+11.00,+4.00,-3.00,-5.00,-35.00,-12.00,-3.00,-5.00,+18.00,+2.00,-1.00,-5.00,+2.00,-3.00,+2.00,+20.00
+29.00,+1.00,-1.00,-5.00,-32.00,-13.00,-3.00,+7.00,-5.00,-3.00,-1.00,+4.00,-18.00,-2.00,-3.00,-1.00
-3.00,+11.00,+5.00,+5.00,+17.00,+0.00,-2.00,+6.00,-25.00,-4.00,-2.00,-6.00,+30.00,+2.00,-1.00,-2.00
-17.00,-1.00,-2.00,-1.00,-27.00,-11.00,-1.00,+11.00,+21.00,+6.00,+4.00,+13.00,+9.00,+3.00,+2.00,+8.00
-18.00,-12.00,-2.00,-5.00,+2.00,-6.00,-5.00,-16.00,-12.00,-1.00,+4.00,+0.00,-1.00,+1.00,-6.00,-13.00
+5.00,+3.00,+3.00,-3.00,+4.00,+0.00,-4.00,-12.00,+4.00,+1.00,-4.00,+3.00,-1.00,+3.00,+1.00,-2.00
+27.00,-5.00,-1.00,+0.00,-7.00,+0.00,+0.00,+0.00,-11.00,-3.00,-2.00,-1.00,-14.00,+0.00,-2.00,-8.00
-17.00,-1.00,-2.00,-1.00,+1.00,-1.00,+3.00,+12.00,-8.00,-3.00,-2.00,-2.00,-4.00,+1.00,+1.00,+3.00
-9.00,+1.00,+5.00,+7.00,+16.00,+4.00,+2.00,-9.00,+2.00,+0.00,-2.00,+2.00,+5.00,+1.00,-1.00,+5.00
-12.00,+3.00,-1.00,+2.00,+4.00,+2.00,+2.00,-2.00,+10.00,-1.00,-4.00,-1.00,+1.00,-1.00,+3.00,-14.00
+30.00,+5.00,+1.00,-1.00,-10.00,+0.00,+1.00,+0.00,-2.00,+3.00,+2.00,-6.00,-14.00,-7.00,-2.00,-3.00
-18.00,+0.00,+3.00,+0.00,+2.00,+4.00,-1.00,+6.00,-2.00,+0.00,+0.00,-4.00,-2.00,-5.00,+2.00,+7.00
-3.00,-5.00,+0.00,-1.00,+18.00,+2.00,+0.00,+0.00,-13.00,-2.00,-1.00,+2.00,-3.00,-3.00,-4.00,-13.00
-5.00,-2.00,-6.00,-4.00,-23.00,-14.00,-2.00,-4.00,+14.00,+8.00,+3.00,+1.00,-1.00,+3.00,+0.00,+12.00
-10.00,-12.00,-8.00,-5.00,-5.00,-2.00,-3.00,+0.00,-5.00,-2.00,-5.00,-9.00,-9.00,+0.00,-7.00,-3.00
+13.00,+4.00,+3.00,+2.00,+25.00,+1.00,-1.00,+2.00,+0.00,+1.00,-1.00,+6.00,+7.00,+2.00,+0.00,-1.00
-11.00,-2.00,+0.00,+0.00,-7.00,-1.00,+2.00,-11.00,+3.00,-2.00,+1.00,+8.00,+1.00,-1.00,+2.00,+1.00
+2.00,+2.00,-3.00,-1.00,-2.00,-3.00,+0.00,-4.00,-7.00,-1.00,-2.00,-20.00,-21.00,-4.00,+1.00,+2.00
-17.00,-8.00,-5.00,-4.00,+0.00,-8.00,-2.00,+0.00,-2.00,+0.00,-1.00,+3.00,-1.00,-3.00,-1.00,-2.00
+6.00,-1.00,-2.00,-2.00,+2.00,+5.00,-3.00,+10.00,+0.00,-3.00,+0.00,-3.00,-5.00,-5.00,-4.00,+1.00
-8.00,+3.00,+3.00,+2.00,+2.00,-2.00,-1.00,-20.00,-4.00,+1.00,-9.00,-2.00,-4.00,+0.00,-3.00,-4.00
+10.00,+7.00,-1.00,+0.00,-7.00,+2.00,-1.00,+1.00,+4.00,+2.00,+1.00,+3.00,+15.00,+0.00,-3.00,+2.00
+15.00,-1.00,+0.00,-2.00,-6.00,+1.00,+1.00,-1.00,-1.00,+0.00,+3.00,+3.00,-5.00,+2.00,-3.00,-2.00
+2.00,-7.00,+0.00,+4.00,-4.00,-3.00,+0.00,+5.00,+4.00,-2.00,+0.00,-1.00,-10.00,-1.00,-1.00,+1.00
-8.00,-21.00,-15.00,-5.00,+0.00,-2.00,-3.00,-5.00,+2.00,-1.00,+4.00,+3.00,+0.00,+0.00,+1.00,-4.00
-16.00,+31.00,+6.00,+0.00,-16.00,-5.00,-8.00,-26.00,+8.00,+8.00,+2.00,-4.00,-2.00,+1.00,+0.00,+0.00
+0.00,+3.00,+5.00,-1.00,+13.00,-4.00,-4.00,-13.00,-5.00,-8.00,-11.00,-1.00,+0.00,-1.00,-3.00,-3.00
-13.00,-5.00,-9.00,-4.00,+0.00,+14.00,+6.00,-17.00,-15.00,-26.00,-15.00,-2.00,-1.00,+1.00,+1.00,+0.00
+29.00,+2.00,+1.00,-2.00,-3.00,-4.00,+0.00,+1.00,-12.00,-22.00,-19.00,-9.00,-1.00,-2.00,-1.00,-2.00
-15.00,-7.00,+5.00,+3.00,+17.00,+0.00,+5.00,+16.00,+7.00,-10.00,-6.00,-7.00,-10.00,-2.00,-5.00,+5.00
+10.00,-3.00,+2.00,-3.00,-22.00,+2.00,-1.00,+3.00,-11.00,+3.00,+10.00,+3.00,+2.00,-2.00,-2.00,-4.00
-18.00,-4.00,-2.00,-1.00,-5.00,-7.00,-2.00,+1.00,+2.00,+14.00,+5.00,+0.00,-1.00,-4.00,-1.00,-11.00
-2.00,-3.00,+3.00,+5.00,+4.00,+0.00,+0.00,-1.00,+2.00,+7.00,+2.00,+4.00,+2.00,-3.00,+3.00,+9.00
+11.00,+0.00,-6.00,-3.00,-6.00,+7.00,+1.00,+0.00,-9.00,-3.00,+2.00,+6.00,+3.00,-1.00,+0.00,-1.00
-3.00,-2.00,-4.00,+0.00,+6.00,+0.00,-3.00,-3.00,+3.00,+1.00,+0.00,-6.00,-3.00,+0.00,+3.00,-4.00
+18.00,+0.00,+1.00,-2.00,+3.00,-1.00,+1.00,+8.00,-10.00,-3.00,-1.00,+0.00,+3.00,-5.00,-5.00,-9.00
+10.00,+1.00,-3.00,-2.00,+5.00,+1.00,+1.00,+6.00,-2.00,+3.00,+6.00,-10.00,-4.00,+1.00,-2.00,-1.00
-5.00,-3.00,-2.00,-1.00,-11.00,-9.00,-2.00,-5.00,+6.00,+8.00,+2.00,+0.00,+2.00,+3.00,-1.00,+3.00
-9.00,-11.00,+2.00,+4.00,+9.00,-2.00,+3.00,+4.00,-1.00,+2.00,+4.00,-6.00,-1.00,+0.00,-2.00,-3.00
+5.00,+12.00,+3.00,+3.00,+10.00,+1.00,-2.00,+0.00,-6.00,-3.00,-3.00,+0.00,-1.00,-1.00,-1.00,+7.00
-11.00,+3.00,-2.00,-4.00,-13.00,-4.00,-4.00,+4.00,-12.00,-9.00,-2.00,-3.00,+1.00,+0.00,+0.00,-9.00
-2.00,-11.00,-4.00,-8.00,-1.00,+1.00,-1.00,-1.00,-19.00,-1.00,+1.00,-4.00,-7.00,-2.00,-2.00,+2.00
+0.00,-4.00,-6.00,-2.00,-5.00,-3.00,-2.00,-2.00,+3.00,-5.00,-4.00,-1.00,-4.00,+1.00,-1.00,-1.00
+8.00,-2.00,+1.00,+4.00,+15.00,+1.00,-1.00,+2.00,+0.00,-2.00,+1.00,-1.00,+3.00,+2.00,-1.00,-2.00
-35.00,-6.00,+1.00,+4.00,+2.00,+0.00,-3.00,-9.00,+7.00,+4.00,-3.00,+0.00,-7.00,-2.00,-3.00,+0.00
+5.00,+16.00,-1.00,+1.00,+1.00,-4.00,-1.00,+4.00,-1.00,-1.00,+0.00,-10.00,-6.00,-1.00,+0.00,-5.00
-10.00,-2.00,+1.00,+0.00,+10.00,+6.00,+1.00,+0.00,-6.00,-5.00,-3.00,-3.00,-1.00,-2.00,+1.00,+6.00
-1.00,-6.00,-3.00,-8.00,-41.00,-13.00,-1.00,+0.00,+3.00,+0.00,+0.00,+0.00,+4.00,+0.00,+0.00,-2.00
-7.00,-6.00,-4.00,+2.00,+31.00,+6.00,+2.00,+5.00,+1.00,+4.00,+0.00,+1.00,-3.00,-3.00,-1.00,-2.00
-3.00,-10.00,+6.00,+2.00,+5.00,+0.00,+2.00,-3.00,+9.00,+2.00,-1.00,+15.00,+7.00,-5.00,+1.00,-1.00
+1.00,+3.00,+4.00,-2.00,-25.00,-3.00,+1.00,+5.00,+8.00,+5.00,-4.00,-14.00,-4.00,-6.00,-2.00,+1.00
+0.00,+2.00,+1.00,+4.00,+25.00,+0.00,-3.00,-1.00,+4.00,+1.00,+1.00,-5.00,-7.00,-2.00,-3.00,+6.00
+1.00,+2.00,-5.00,-4.00,-4.00,-1.00,-2.00,-1.00,+2.00,+2.00,+1.00,-4.00,+3.00,+2.00,+0.00,-2.00
-1.00,-12.00,-10.00,-7.00,-7.00,-6.00,-3.00,-1.00,+3.00,+4.00,+7.00,+6.00,+3.00,+1.00,-3.00,+1.00
-5.00,+7.00,+2.00,-2.00,+2.00,+0.00,-1.00,+4.00,-3.00,-6.00,-1.00,+3.00,-2.00,+4.00,-1.00,+0.00
-5.00,-4.00,+2.00,-2.00,-9.00,+1.00,+0.00,-1.00,-19.00,-6.00,-2.00,+1.00,+3.00,-2.00,+1.00,-2.00
-7.00,+7.00,+2.00,+0.00,-4.00,-2.00,+0.00,-6.00,+18.00,-2.00,+0.00,+3.00,+4.00,-4.00,+0.00,-5.00
+7.00,-1.00,+2.00,+6.00,+7.00,+2.00,+0.00,+11.00,+2.00,-2.00,-4.00,-10.00,-9.00,-4.00,+0.00,+5.00
+5.00,-2.00,-2.00,+1.00,+3.00,+1.00,+0.00,+4.00,-9.00,+2.00,+8.00,+0.00,-1.00,-4.00,-4.00,-7.00
+3.00,-13.00,-3.00,-5.00,+3.00,-1.00,-2.00,+3.00,+5.00,+7.00,+4.00,+8.00,-5.00,+2.00,+1.00,-4.00
+2.00,+19.00,+8.00,+2.00,-3.00,+2.00,+0.00,-2.00,+3.00,+6.00,+1.00,+1.00,-5.00,+1.00,+1.00,-1.00
-3.00,+0.00,-1.00,-1.00,-3.00,-4.00,-3.00,-6.00,+0.00,-4.00,-7.00,-2.00,+4.00,+2.00,-2.00,-5.00
+3.00,+2.00,-9.00,-2.00,+4.00,+0.00,-1.00,-3.00,-1.00,-7.00,-7.00,+4.00,+0.00,+0.00,+0.00,+0.00
-6.00,-8.00,-1.00,+0.00,-2.00,-1.00,+1.00,-3.00,+3.00,+0.00,+3.00,+0.00,+0.00,-3.00,-1.00,+0.00
-1.00,-20.00,-2.00,-4.00,-12.00,-6.00,+1.00,-1.00,-9.00,-3.00,-6.00,-7.00,-3.00,-1.00,-3.00,-5.00
+1.00,-3.00,-8.00,-1.00,-12.00,-3.00,+1.00,-3.00,+4.00,-11.00,-4.00,+4.00,-2.00,-1.00,-1.00,-2.00
-1.00,-1.00,+2.00,+0.00,+9.00,+0.00,-1.00,-2.00,-10.00,+0.00,-1.00,+0.00,+1.00,+1.00,-2.00,-4.00
-2.00,+8.00,-1.00,-1.00,-2.00,-2.00,-4.00,-2.00,+2.00,+1.00,+2.00,-4.00,+2.00,+2.00,-3.00,+1.00
+1.00,-2.00,-1.00,-1.00,+1.00,+5.00,-1.00,+0.00,-1.00,-4.00,+0.00,+2.00,-5.00,-3.00,-3.00,+2.00
-6.00,+1.00,+2.00,-3.00,-6.00,+0.00,-3.00,-3.00,-13.00,-1.00,-1.00,-3.00,+24.00,-1.00,-3.00,-1.00
-3.00,-7.00,+1.00,+0.00,-7.00,+0.00,+0.00,+1.00,+11.00,+1.00,-2.00,+2.00,-4.00,-3.00,+1.00,+5.00
+7.00,+3.00,+5.00,+5.00,-3.00,+1.00,+0.00,+2.00,-3.00,-1.00,-4.00,+0.00,+2.00,-3.00,+2.00,+1.00
+1.00,+0.00,-2.00,+0.00,-14.00,+2.00,-2.00,+2.00,-5.00,+7.00,+3.00,+0.00,-4.00,-2.00,+0.00,-2.00
-1.00,-9.00,+5.00,-2.00,+16.00,+3.00,+2.00,+2.00,+0.00,-1.00,-1.00,+3.00,-3.00,-1.00,+1.00,-3.00
-8.00,+2.00,-12.00,-5.00,+2.00,-3.00,-1.00,-3.00,-7.00,+4.00,+8.00,+4.00,+4.00,-2.00,-5.00,+1.00
+10.00,+9.00,+2.00,-2.00,-9.00,-1.00,+2.00,+3.00,+11.00,-2.00,-14.00,-5.00,+2.00,+2.00,-3.00,+0.00
-1.00,-1.00,-2.00,+3.00,+11.00,+1.00,+1.00,+2.00,-11.00,-12.00,-3.00,-2.00,+0.00,+1.00,-4.00,-6.00
-2.00,-1.00,-5.00,-4.00,-5.00,-5.00,-2.00,+1.00,-1.00,-3.00,-1.00,-1.00,+1.00,-1.00,+1.00,+1.00
-6.00,-6.00,+4.00,+1.00,+2.00,+1.00,-2.00,-3.00,-6.00,-7.00,+3.00,-3.00,-2.00,-7.00,-1.00,-8.00
-5.00,-32.00,-5.00,-5.00,-29.00,-2.00,-2.00,+0.00,-24.00,-9.00,+2.00,-4.00,-2.00,+0.00,+4.00,+3.00
+2.00,+15.00,-1.00,+2.00,+21.00,+0.00,-3.00,-13.00,-5.00,+0.00,-4.00,-2.00,-2.00,-1.00,-2.00,-4.00
+1.00,+0.00,+0.00,+2.00,+3.00,+4.00,-1.00,-3.00,+6.00,+6.00,-1.00,+9.00,+5.00,+3.00,+0.00,-1.00
+0.00,+9.00,-1.00,+5.00,+7.00,+1.00,-1.00,-3.00,+19.00,+10.00,+1.00,-9.00,-15.00,+0.00,+3.00,+7.00
+1.00,+5.00,-4.00,-6.00,-32.00,-13.00,+1.00,-3.00,-6.00,+6.00,+3.00,-3.00,-2.00,-7.00,-3.00,-4.00
-2.00,-3.00,+4.00,-2.00,+19.00,+2.00,+2.00,-1.00,-3.00,-18.00,-8.00,-5.00,+2.00,-6.00,+0.00,+5.00
-2.00,-3.00,-4.00,+1.00,+6.00,+0.00,+0.00,+0.00,+6.00,+7.00,-5.00,+4.00,+6.00,+0.00,-2.00,+0.00
-2.00,-1.00,-2.00,-5.00,-6.00,-6.00,-2.00,-1.00,-10.00,-7.00,-7.00,-4.00,-8.00,-2.00,-3.00,-3.00
+8.00,+7.00,-3.00,+1.00,+11.00,+1.00,-2.00,-8.00,+9.00,-1.00,-2.00,+2.00,-8.00,-1.00,-4.00,-2.00
-7.00,-8.00,-3.00,-4.00,-14.00,-4.00,+0.00,+11.00,-5.00,+0.00,-1.00,+0.00,+2.00,+2.00,-3.00,-4.00
-2.00,+6.00,+1.00,+0.00,+2.00,-2.00,-2.00,-1.00,+0.00,-7.00,-6.00,-4.00,-10.00,-2.00,-5.00,-4.00
+9.00,+1.00,+5.00,+8.00,+2.00,+5.00,+2.00,+3.00,+5.00,-3.00,-5.00,-1.00,+1.00,+4.00,+0.00,-1.00
-14.00,-3.00,+2.00,-1.00,+6.00,+0.00,-2.00,+0.00,-3.00,-11.00,+0.00,+4.00,+8.00,+2.00,+1.00,+0.00
+0.00,-5.00,-10.00,-10.00,-10.00,-3.00,+0.00,+1.00,-13.00,+10.00,+6.00,-3.00,-4.00,+2.00,+0.00,-10.00
-2.00,-3.00,+0.00,-1.00,-11.00,-2.00,+0.00,-3.00,-6.00,-3.00,-3.00,-9.00,-10.00,-2.00,+0.00,+2.00
+3.00,-1.00,+0.00,+1.00,+5.00,+5.00,+2.00,-2.00,+18.00,+6.00,-4.00,-1.00,+3.00,-1.00,+4.00,+1.00
+6.00,+8.00,+4.00,+0.00,+13.00,+8.00,-1.00,-7.00,-6.00,-8.00,+2.00,+3.00,+7.00,-4.00,-1.00,-2.00
+0.00,+5.00,+5.00,+0.00,-21.00,-2.00,-3.00,-5.00,+12.00,+0.00,-2.00,-5.00,-7.00,-4.00,-1.00,+1.00
-8.00,-12.00,-11.00,-5.00,+20.00,-1.00,-5.00,-4.00,-17.00,-8.00,+0.00,-8.00,-6.00,-4.00,-4.00,+1.00
-3.00,-11.00,-6.00,-2.00,-2.00,-3.00,-3.00,-3.00,-5.00,-5.00,+2.00,+8.00,+6.00,-2.00,-3.00,-5.00
-36.00,+6.00,+2.00,+2.00,+4.00,-4.00,-4.00,-9.00,+9.00,+6.00,+1.00,-20.00,-16.00,-1.00,-4.00,+2.00
+1.00,+2.00,+6.00,+5.00,-1.00,+0.00,-1.00,+2.00,+6.00,-9.00,-2.00,+0.00,-1.00,-1.00,+1.00,+0.00
+5.00,-3.00,-1.00,-2.00,-6.00,+0.00,+0.00,-1.00,-5.00,+4.00,+3.00,-1.00,-10.00,-4.00,+2.00,+1.00
-6.00,+9.00,-1.00,-3.00,-1.00,-6.00,-1.00,+2.00,-5.00,-3.00,-12.00,+0.00,+24.00,-1.00,-3.00,-1.00
+4.00,-15.00,-15.00,-2.00,+10.00,-2.00,-2.00,+2.00,-5.00,-10.00,-7.00,+1.00,+1.00,+1.00,+0.00,-1.00
+2.00,+8.00,+7.00,+0.00,-14.00,+0.00,+0.00,+5.00,+5.00,+3.00,-3.00,-2.00,-2.00,+0.00,+0.00,+0.00
-3.00,+9.00,+10.00,+5.00,+0.00,+1.00,+1.00,-4.00,-2.00,+12.00,+8.00,+0.00,-2.00,-2.00,-4.00,-3.00
+2.00,+1.00,-6.00,-8.00,-5.00,-1.00,-2.00,-4.00,-11.00,+9.00,+9.00,+4.00,-5.00,-3.00,-1.00,-2.00
+0.00,-8.00,-5.00,-4.00,-4.00,-6.00,-4.00,+1.00,+14.00,+3.00,-6.00,-2.00,+1.00,-1.00,-2.00,-3.00
-2.00,-7.00,-1.00,+3.00,+8.00,+0.00,-1.00,-4.00,+7.00,-1.00,-4.00,-6.00,-1.00,-2.00,-1.00,+4.00
-4.00,-18.00,+5.00,+4.00,+0.00,-2.00,-1.00,+1.00,+2.00,-14.00,-4.00,+5.00,+1.00,-4.00,-1.00,-1.00
+11.00,+16.00,+6.00,+5.00,-2.00,+1.00,+1.00,+5.00,+4.00,-3.00,-1.00,-1.00,-8.00,-4.00,-2.00,+0.00
+5.00,+7.00,-5.00,-4.00,+9.00,+1.00,+3.00,+3.00,-5.00,+3.00,+2.00,+3.00,+4.00,-4.00,-1.00,+4.00
-9.00,-3.00,-5.00,+0.00,+7.00,+2.00,-3.00,+7.00,-15.00,+3.00,+1.00,-3.00,-9.00,-3.00,+2.00,-4.00
-1.00,+0.00,+3.00,+0.00,+1.00,+3.00,+3.00,+3.00,+2.00,-8.00,-8.00,-6.00,-1.00,+0.00,+1.00,-2.00
-8.00,-9.00,-5.00,-4.00,-14.00,-2.00,-1.00,-3.00,-9.00,-4.00,-2.00,-3.00,-1.00,+1.00,+0.00,-2.00
+0.00,+1.00,+1.00,+0.00,-6.00,-1.00,+1.00,+2.00,+7.00,+6.00,+3.00,-1.00,-8.00,+0.00,-1.00,+1.00
+6.00,-2.00,-1.00,-5.00,-23.00,-3.00,+3.00,-5.00,+4.00,-3.00,-2.00,+2.00,+10.00,+0.00,-2.00,+0.00
-1.00,+3.00,+1.00,+4.00,+37.00,+2.00,+2.00,-5.00,-4.00,+0.00,+1.00,+1.00,-2.00,+3.00,-1.00,-1.00
-3.00,-5.00,-1.00,-4.00,-1.00,-1.00,-1.00,-3.00,+9.00,-4.00,-2.00,-1.00,+20.00,+0.00,-1.00,+0.00
+3.00,+0.00,-5.00,-5.00,+6.00,-1.00,-4.00,+1.00,-16.00,-3.00,-2.00,-10.00,-12.00,-4.00,+0.00,-6.00
+5.00,+12.00,+4.00,+0.00,+4.00,-3.00,-2.00,-1.00,+9.00,+5.00,+4.00,+1.00,+0.00,-4.00,-2.00,+0.00
+6.00,-2.00,+1.00,+2.00,-24.00,-10.00,+0.00,+5.00,+2.00,-7.00,+0.00,-3.00,-1.00,+0.00,+1.00,-1.00
-5.00,-4.00,+4.00,+0.00,+27.00,+8.00,+0.00,+0.00,-21.00,-9.00,-3.00,+6.00,-12.00,+2.00,-1.00,-1.00
-3.00,-1.00,+4.00,+4.00,+1.00,+2.00,-2.00,-1.00,+25.00,+15.00,+3.00,+6.00,+7.00,+1.00,-3.00,-3.00
-4.00,-13.00,-7.00,-4.00,-7.00,-10.00,-6.00,-7.00,-9.00,-3.00,+0.00,-4.00,-2.00,+1.00,-3.00,+1.00
+1.00,-1.00,-6.00,-4.00,-13.00,-3.00,-1.00,-1.00,+4.00,+11.00,+1.00,-1.00,+2.00,-2.00,-2.00,-1.00
+3.00,-13.00,-4.00,+4.00,+13.00,+0.00,-2.00,-4.00,-1.00,-13.00,-6.00,+2.00,-8.00,-2.00,+2.00,-3.00
+1.00,+22.00,+3.00,+2.00,-11.00,-1.00,+3.00,+10.00,-21.00,-9.00,-2.00,-10.00,-2.00,-2.00,+4.00,-1.00
+8.00,+6.00,-1.00,+2.00,+6.00,-3.00,+1.00,-2.00,+3.00,+0.00,+0.00,-1.00,-4.00,-4.00,-3.00,-3.00
+1.00,+3.00,-4.00,-5.00,-11.00,+3.00,+1.00,-3.00,+3.00,-9.00,-1.00,+5.00,+3.00,+0.00,-3.00,-1.00
-11.00,-7.00,+7.00,+4.00,-5.00,-5.00,+0.00,-6.00,-2.00,+7.00,+2.00,-3.00,-17.00,-1.00,-1.00,+2.00
+4.00,-15.00,-3.00,-5.00,+2.00,+3.00,+1.00,+3.00,-4.00,-3.00,-3.00,+2.00,+5.00,-2.00,+0.00,-3.00
-5.00,-16.00,-14.00,-12.00,-2.00,+0.00,-4.00,-1.00,-7.00,-6.00,-7.00,+4.00,+8.00,+1.00,-2.00,-3.00
-2.00,+10.00,-1.00,+0.00,+3.00,+0.00,-2.00,+8.00,+21.00,+6.00,+7.00,-4.00,+2.00,+2.00,+3.00,+6.00
+0.00,+5.00,+2.00,+1.00,-10.00,+2.00,-2.00,-2.00,+0.00,-11.00,-6.00,-5.00,-5.00,-2.00,-1.00,-1.00
+1.00,-6.00,+1.00,+0.00,-9.00,-3.00,+1.00,-1.00,+7.00,+3.00,-3.00,+3.00,-3.00,+1.00,-1.00,-1.00
-3.00,+3.00,-2.00,-2.00,-6.00,-3.00,+0.00,-5.00,-12.00,+0.00,+4.00,-1.00,+1.00,+0.00,-1.00,-1.00
+1.00,-9.00,+2.00,-1.00,-15.00,+1.00,+0.00,-3.00,-9.00,-14.00,-3.00,+3.00,-1.00,+2.00,-1.00,-1.00
+13.00,+15.00,+5.00,+3.00,+14.00,-2.00,-1.00,-1.00,+14.00,+12.00,+3.00,-3.00,+5.00,-4.00,-3.00,+3.00
-8.00,+2.00,-1.00,-4.00,+3.00,+3.00,-5.00,-9.00,+12.00,+4.00,+5.00,+10.00,+10.00,-4.00,+0.00,-2.00
-4.00,-10.00,-1.00,-2.00,-8.00,-5.00,-2.00,+1.00,-16.00,+9.00,+2.00,+4.00,+5.00,+0.00,-5.00,-10.00
+5.00,+11.00,-2.00,-2.00,+1.00,+1.00,-2.00,-1.00,+8.00,+0.00,-5.00,-9.00,-11.00,+0.00,-2.00,+3.00
+2.00,+7.00,-3.00,-4.00,-20.00,-2.00,+0.00,-2.00,-8.00,-4.00,+0.00,-1.00,+4.00,+0.00,-1.00,-3.00
+10.00,-11.00,+2.00,+1.00,-7.00,-5.00,+0.00,-1.00,-9.00,-4.00,-3.00,+4.00,-1.00,+0.00,-1.00,+4.00
-13.00,+10.00,+1.00,+3.00,+13.00,+0.00,-1.00,-1.00,+18.00,-7.00,+4.00,+4.00,-4.00,+3.00,+2.00,+3.00
-6.00,-7.00,-3.00,-1.00,-26.00,-1.00,-4.00,-4.00,-32.00,+2.00,-6.00,-7.00,-7.00,+0.00,-1.00,-9.00
-4.00,-9.00,-6.00,-7.00,-1.00,-7.00,-1.00,+0.00,+10.00,+30.00,+1.00,-7.00,-7.00,+0.00,-6.00,-5.00
+0.00,+3.00,+0.00,+2.00,+30.00,+10.00,+1.00,-7.00,-26.00,+1.00,+2.00,+1.00,+3.00,-3.00,-4.00,-4.00
+3.00,+7.00,+1.00,-1.00,-20.00,-4.00,-3.00,-3.00,+37.00,+9.00,+1.00,+1.00,+0.00,-3.00,-1.00,+2.00
-2.00,+3.00,+0.00,+7.00,+42.00,+9.00,+2.00,-2.00,-14.00,-21.00,-3.00,-14.00,-9.00,-6.00,-3.00,-3.00
-7.00,-11.00,-5.00,-5.00,-19.00,-3.00,-3.00,-4.00,+1.00,-15.00,-1.00,+2.00,+0.00,-2.00,+2.00,-2.00
+5.00,+5.00,-4.00,-4.00,-7.00,-3.00,-1.00,-1.00,+3.00,+5.00,+1.00,-19.00,-12.00,-4.00,+0.00,-2.00
+7.00,-1.00,+7.00,+8.00,+13.00,+2.00,+0.00,+0.00,-11.00,-12.00,-5.00,-2.00,+3.00,+0.00,-1.00,+4.00
+3.00,+1.00,+2.00,-3.00,-5.00,-6.00,-1.00,+4.00,-5.00,-1.00,+0.00,-1.00,-6.00,+0.00,-1.00,-1.00
+2.00,+0.00,-10.00,-5.00,-8.00,+0.00,-3.00,+1.00,-11.00,-4.00,-2.00,+6.00,-2.00,+1.00,+0.00,-2.00
-6.00,-22.00,-5.00,-1.00,-3.00,-7.00,+0.00,-2.00,-9.00,-5.00,-11.00,+5.00,+0.00,+5.00,+2.00,-2.00
+8.00,+5.00,+4.00,+1.00,+6.00,+2.00,+4.00,+3.00,+23.00,+4.00,-2.00,-4.00,-1.00,-3.00,+1.00,+6.00
-6.00,+0.00,+2.00,-3.00,-9.00,-2.00,+1.00,-1.00,-15.00,-6.00,+5.00,+8.00,+2.00,-2.00,-6.00,-10.00
+3.00,-7.00,+1.00,+4.00,+4.00,-5.00,+1.00,-10.00,-1.00,+9.00,-4.00,-7.00,+3.00,+0.00,+0.00,+1.00
-4.00,+7.00,-1.00,-2.00,-4.00,+6.00,+1.00,+2.00,+19.00,+0.00,+6.00,+6.00,+4.00,+0.00,+1.00,+9.00
+18.00,+6.00,-3.00,-7.00,-31.00,-12.00,-2.00,-2.00,-18.00,-3.00,+0.00,+0.00,-7.00,-2.00,+3.00,-1.00
-6.00,+0.00,-2.00,+3.00,+33.00,+6.00,-1.00,-2.00,+16.00,+9.00,-3.00,-2.00,-5.00,-1.00,+0.00,+1.00
-1.00,+0.00,+6.00,-1.00,-3.00,+11.00,+2.00,+5.00,-10.00,-15.00,-1.00,+7.00,+15.00,+3.00,-1.00,+1.00
-3.00,+7.00,+3.00,+3.00,+18.00,+3.00,-1.00,-1.00,-23.00,-19.00,-12.00,-18.00,-21.00,+2.00,-4.00,-2.00
-5.00,-7.00,-2.00,-2.00,+0.00,+2.00,-1.00,-3.00,+39.00,+27.00,+10.00,+5.00,+5.00,-3.00,+1.00,+1.00
+3.00,-1.00,+0.00,-4.00,-19.00,-10.00,-3.00,-6.00,-24.00,+1.00,+4.00,+0.00,+1.00,-3.00,+0.00,-1.00
-6.00,-5.00,-2.00,-7.00,-10.00,-2.00,-2.00,+1.00,+2.00,-6.00,+2.00,-1.00,+3.00,-6.00,-1.00,-3.00
+5.00,-2.00,-6.00,-4.00,-22.00,-9.00,-1.00,+1.00,-8.00,-2.00,-3.00,+8.00,+9.00,-1.00,-3.00,-6.00
+0.00,-3.00,+2.00,+3.00,+36.00,+13.00,-1.00,-4.00,-18.00,-14.00,-5.00,-1.00,-7.00,-1.00,-2.00,-3.00
-7.00,-10.00,-3.00,-5.00,-22.00,-6.00,-3.00,+1.00,+10.00,+0.00,-4.00,+13.00,+18.00,+0.00,-1.00,+0.00
-3.00,+9.00,-1.00,+3.00,+15.00,-1.00,-1.00,+1.00,-4.00,+1.00,-7.00,-16.00,-8.00,+1.00,+1.00,-1.00
-1.00,-9.00,-2.00,+2.00,-12.00,-4.00,-3.00,+1.00,+11.00,+1.00,+0.00,+12.00,+9.00,+0.00,+1.00,-1.00
+6.00,+26.00,-3.00,-4.00,+5.00,+3.00,-3.00,-1.00,-18.00,-8.00,-3.00,-15.00,-11.00,-1.00,-2.00,-5.00
+1.00,+2.00,+1.00,+2.00,+12.00,+3.00,+0.00,-1.00,-6.00,+10.00,+0.00,+5.00,+12.00,-1.00,+0.00,+1.00
-9.00,-32.00,-1.00,+0.00,-2.00,-3.00,-1.00,-3.00,+5.00,-4.00,-5.00,-2.00,+16.00,-1.00,-5.00,-4.00
+7.00,+31.00,+4.00,+1.00,-19.00,-8.00,+0.00,-2.00,+8.00,+0.00,+2.00,-11.00,-17.00,-5.00,+0.00,-2.00
-17.00,-26.00,+2.00,+6.00,+36.00,-2.00,-1.00,-2.00,+5.00,+4.00,-3.00,-1.00,+4.00,+0.00,+2.00,+1.00
+10.00,+7.00,+4.00,+3.00,+0.00,-2.00,-1.00,-11.00,-16.00,-19.00,-1.00,+6.00,+2.00,-1.00,+3.00,-1.00
+3.00,+12.00,-9.00,-8.00,-5.00,-4.00,-3.00,+0.00,-5.00,+23.00,+2.00,-7.00,-19.00,-6.00,-3.00,-4.00
-3.00,-2.00,-5.00,-5.00,-36.00,-14.00,-4.00,-1.00,-2.00,-7.00,-1.00,-4.00,+3.00,-1.00,+1.00,-1.00
-8.00,-4.00,-8.00,-3.00,+45.00,+12.00,+0.00,+0.00,-1.00,-1.00,-2.00,+0.00,-4.00,-1.00,-1.00,-3.00
+2.00,+0.00,+4.00,-1.00,-20.00,-2.00,-1.00,+3.00,+5.00,-16.00,-6.00,+1.00,+7.00,+2.00,-1.00,-4.00
+0.00,+3.00,+6.00,+7.00,+40.00,+8.00,+0.00,-2.00,-8.00,-5.00,-3.00,-9.00,-19.00,-1.00,+0.00,-1.00
-4.00,-2.00,-2.00,-6.00,-10.00,-3.00,-3.00,-2.00,+33.00,+21.00,+8.00,+18.00,+6.00,+0.00,-1.00,+9.00
-2.00,-6.00,-2.00,-7.00,-14.00,-4.00,+1.00,-4.00,-17.00,-5.00,-6.00,-18.00,-9.00,-1.00,-1.00,+2.00
+4.00,+4.00,-7.00,-1.00,+4.00,-3.00,-6.00,-6.00,+12.00,+6.00,-1.00,-4.00,-17.00,-1.00,-5.00,-3.00
-2.00,-13.00,-2.00,-3.00,-16.00,-5.00,+1.00,+7.00,-12.00,-16.00,-4.00,+0.00,+29.00,+4.00,-1.00,-1.00
-4.00,+5.00,+5.00,+4.00,+16.00,+5.00,+2.00,+2.00,-18.00,-2.00,-4.00,-5.00,-13.00,-5.00,-6.00,-6.00
+4.00,-4.00,-1.00,+0.00,-34.00,-8.00,+0.00,+0.00,-2.00,-7.00,-3.00,+10.00,+8.00,+0.00,-2.00,-2.00
-3.00,-12.00,+1.00,+0.00,-5.00,+7.00,+3.00,+5.00,+8.00,+8.00,+1.00,-1.00,+1.00,-5.00,-3.00,+3.00
+7.00,+23.00,+0.00,+2.00,+14.00,+1.00,+3.00,+2.00,+1.00,-5.00,-1.00,+10.00,+1.00,-1.00,+1.00,+7.00
-2.00,-18.00,-4.00,-2.00,+11.00,+6.00,-2.00,-3.00,-12.00,-17.00,-5.00,-1.00,-5.00,-2.00,+0.00,-4.00
-18.00,-29.00,-5.00,-1.00,-8.00,-9.00,-2.00,-1.00,-8.00,+5.00,+2.00,+1.00,+3.00,-2.00,+1.00,-4.00
+7.00,+18.00,-1.00,-1.00,-22.00,+5.00,+1.00,+1.00,+13.00,+22.00,+0.00,-8.00,-1.00,-1.00,+2.00,-2.00
-11.00,+1.00,-3.00,-2.00,+10.00,-3.00,+0.00,-4.00,+12.00,+0.00,+5.00,+3.00,-7.00,-4.00,+1.00,+1.00
+10.00,+4.00,+3.00,+4.00,+6.00,+6.00,+0.00,+4.00,-8.00,-6.00,+1.00,+1.00,+9.00,-1.00,-2.00,-6.00
+1.00,-12.00,+3.00,-1.00,-9.00,-4.00,-6.00,-5.00,-2.00,-4.00,-4.00,-7.00,-11.00,+2.00,-2.00,+1.00
-4.00,+5.00,-4.00,-6.00,-10.00,-14.00,-2.00,+0.00,+4.00,+5.00,+1.00,-4.00,-6.00,-1.00,+0.00,+1.00
-3.00,+14.00,-3.00,-9.00,-15.00,-4.00,-3.00,-2.00,+10.00,-16.00,+0.00,+2.00,+7.00,+2.00,+1.00,+4.00
-6.00,-38.00,-1.00,+2.00,+17.00,+4.00,+1.00,+0.00,-7.00,+17.00,+5.00,+2.00,+1.00,+2.00,-2.00,-3.00
+8.00,+36.00,+7.00,+3.00,-12.00,+0.00,+1.00,+3.00,-40.00,-16.00,-4.00,+2.00,+22.00,+0.00,-7.00,-6.00
-3.00,+4.00,+1.00,+1.00,+13.00,-1.00,+3.00,+2.00,+58.00,+15.00,+1.00,-8.00,-10.00,-1.00,+2.00,+3.00
+1.00,+1.00,+3.00,+2.00,-6.00,-1.00,+2.00,-2.00,-12.00,+0.00,-2.00,+0.00,-9.00,-1.00,-2.00,-3.00
-13.00,+0.00,-8.00,-9.00,-40.00,-9.00,-10.00,-4.00,-2.00,-7.00,-2.00,-10.00,-3.00,+4.00,+0.00,+3.00
+7.00,+4.00,+0.00,+1.00,+27.00,+5.00,-2.00,+1.00,+2.00,+3.00,-2.00,+10.00,-1.00,-1.00,-2.00,+0.00
-5.00,-12.00,+0.00,-1.00,-38.00,-14.00,-6.00,-10.00,+14.00,-19.00,-6.00,+2.00,+3.00,-3.00,-2.00,+3.00
+26.00,+17.00,+4.00,+8.00,+50.00,+16.00,+7.00,+1.00,-5.00,+21.00,+2.00,-8.00,-10.00,-3.00,-2.00,-5.00
-1.00,+0.00,-1.00,-3.00,-1.00,+3.00,+3.00,-1.00,-18.00,-14.00,+0.00,+8.00,-9.00,+1.00,+0.00,-1.00
+1.00,-9.00,-3.00,-2.00,-6.00,-1.00,-1.00,-9.00,+22.00,+16.00,+0.00,-7.00,+10.00,+0.00,+0.00,+3.00
+2.00,+3.00,-3.00,-3.00,+11.00,-4.00,+5.00,+6.00,-49.00,-17.00,-5.00,+5.00,+9.00,+3.00,-3.00,-8.00
-10.00,-32.00,-6.00,-11.00,-72.00,-17.00,-7.00,-3.00,+36.00,+0.00,-2.00,-4.00,-7.00,-6.00,-4.00,+2.00
+6.00,+23.00,+5.00,+6.00,+74.00,-2.00,+2.00,+0.00,+8.00,+5.00,+1.00,+0.00,+8.00,+0.00,-2.00,-1.00
+0.00,+8.00,+3.00,+0.00,-28.00,-2.00,+2.00,+1.00,-14.00,-6.00,+0.00,+15.00,-4.00,-5.00,-3.00,-7.00
-12.00,-16.00,-2.00,+1.00,+38.00,+12.00,-1.00,-10.00,-2.00,+0.00,-3.00,-16.00,+1.00,-2.00,-1.00,-2.00
-6.00,-17.00,-3.00,+0.00,-16.00,+1.00,-3.00,-2.00,+12.00,+2.00,+2.00,-5.00,-5.00,+1.00,+0.00,-1.00
+3.00,-3.00,-2.00,-3.00,-4.00,+3.00,-4.00,-1.00,+6.00,+2.00,-1.00,-6.00,-1.00,+1.00,+4.00,+3.00
-9.00,+5.00,+0.00,-6.00,-13.00,-6.00,-1.00,+7.00,+7.00,-1.00,-3.00,-4.00,-13.00,-3.00,-2.00,-4.00
-2.00,-3.00,-3.00,+0.00,+1.00,+1.00,-3.00,+8.00,-8.00,-20.00,-6.00,+0.00,-3.00,-1.00,+0.00,-2.00
+4.00,-2.00,+1.00,-1.00,-20.00,-4.00,-5.00,+2.00,-28.00,+10.00,+0.00,+2.00,+0.00,-2.00,-2.00,-7.00
-7.00,-11.00,+1.00,+3.00,+14.00,+6.00,+2.00,-2.00,+5.00,-3.00,-3.00,-3.00,+17.00,-2.00,+0.00,-3.00
-9.00,-2.00,-4.00,-6.00,-11.00,-8.00,-2.00,+0.00,+7.00,-6.00,+6.00,+10.00,+12.00,-2.00,+1.00,+0.00
-19.00,-18.00,-3.00,-4.00,-33.00,-10.00,-4.00,-2.00,-7.00,+17.00,+2.00,-6.00,-17.00,-4.00,-6.00,+3.00
+7.00,-4.00,-1.00,+0.00,+19.00,+10.00,-1.00,-2.00,-10.00,+4.00,-2.00,+1.00,+9.00,+3.00,-6.00,-2.00
+8.00,+29.00,+4.00,+8.00,+28.00,-2.00,+1.00,+5.00,-8.00,-5.00,-1.00,+2.00,-6.00,+0.00,-6.00,-1.00
-2.00,-11.00,-1.00,-1.00,-3.00,+6.00,+2.00,+2.00,+13.00,-34.00,-5.00,-7.00,-70.00,-6.00,+0.00,+1.00
-5.00,-3.00,-6.00,-9.00,-1.00,-3.00,-4.00,-2.00,-21.00,+21.00,+3.00,-18.00,+52.00,+4.00,+0.00,-3.00
-5.00,+0.00,-1.00,-1.00,-15.00,-7.00,-7.00,-1.00,-15.00,-16.00,-3.00,+1.00,-1.00,+0.00,+3.00,-3.00
-1.00,-3.00,+3.00,-5.00,-16.00,-2.00,+1.00,-1.00,+25.00,-4.00,-1.00,+2.00,+12.00,-2.00,+3.00,+6.00
-7.00,+7.00,+0.00,+3.00,-1.00,+1.00,-1.00,+2.00,-4.00,+16.00,+0.00,-2.00,+1.00,-1.00,+0.00,-6.00
-1.00,-1.00,+2.00,+2.00,+13.00,+2.00,+7.00,-1.00,+9.00,-8.00,-1.00,+4.00,-14.00,-3.00,+0.00,+0.00
-7.00,+0.00,-4.00,-1.00,-10.00,-4.00,+1.00,-5.00,+3.00,-6.00,+1.00,+5.00,-3.00,-1.00,-1.00,+0.00
+0.00,-8.00,-2.00,+3.00,-8.00,+0.00,-2.00,+1.00,-26.00,-1.00,-3.00,-8.00,+6.00,-5.00,-5.00,-6.00
+5.00,-6.00,-4.00,+1.00,+10.00,+0.00,+0.00,+1.00,+0.00,-4.00,-4.00,-2.00,-1.00,-1.00,-2.00,+2.00
+4.00,+8.00,-9.00,-2.00,+2.00,+1.00,-8.00,-5.00,+9.00,+6.00,+0.00,+5.00,-10.00,-1.00,-3.00,-1.00
-6.00,+2.00,+6.00,+3.00,+7.00,+1.00,-4.00,+1.00,-2.00,+8.00,+2.00,-4.00,+9.00,+2.00,-1.00,+1.00
-7.00,-27.00,+1.00,-3.00,-13.00,-5.00,-2.00,+1.00,-14.00,-4.00,-3.00,-4.00,-10.00,-1.00,+0.00,+0.00
-7.00,-4.00,-7.00,-6.00,+2.00,+0.00,-1.00,+2.00,+9.00,+7.00,+2.00,-6.00,+6.00,+4.00,-1.00,+2.00
-4.00,+11.00,+2.00,-2.00,+0.00,+3.00,+1.00,-1.00,+0.00,-6.00,-2.00,+1.00,-1.00,-2.00,+3.00,-1.00
+19.00,+12.00,+2.00,+0.00,+11.00,-3.00,+3.00,+3.00,+4.00,-11.00,+0.00,-1.00,-12.00,-4.00,+0.00,-4.00
-8.00,+7.00,+3.00,+0.00,-3.00,+3.00,+4.00,-3.00,-20.00,-1.00,-5.00,-6.00,-11.00,-1.00,+0.00,-4.00
+5.00,-2.00,-3.00,-1.00,-7.00,-3.00,+0.00,-3.00,-3.00,-22.00,-1.00,+3.00,+8.00,+3.00,-1.00,-4.00
+6.00,-3.00,-3.00,-4.00,-11.00,+0.00,-2.00,-2.00,+11.00,+13.00,-1.00,+4.00,-6.00,+1.00,-3.00,+2.00
-14.00,-9.00,-8.00,-4.00,+32.00,+1.00,-3.00,-9.00,+10.00,-2.00,-2.00,-2.00,+0.00,-3.00,-1.00,+0.00
+4.00,+9.00,+1.00,-1.00,-11.00,-3.00,-6.00,-6.00,-3.00,+3.00,-4.00,+4.00,+2.00,+2.00,+0.00,+2.00
+3.00,-7.00,+5.00,+7.00,+8.00,+8.00,+0.00,-1.00,+22.00,+10.00,-4.00,-20.00,-13.00,-3.00,-3.00,+2.00
+2.00,+1.00,+1.00,+2.00,+6.00,-10.00,+0.00,+0.00,-10.00,-23.00,+0.00,+7.00,+8.00,-1.00,+1.00,+1.00
-8.00,+3.00,+4.00,+0.00,-31.00,-3.00,+2.00,+2.00,-1.00,+17.00,+5.00,-1.00,-4.00,-2.00,+1.00,-3.00
+7.00,+18.00,-4.00,-4.00,+9.00,+1.00,-1.00,-2.00,+15.00,+7.00,-1.00,-6.00,-3.00,+0.00,-2.00,-5.00
+1.00,-20.00,-1.00,+2.00,+15.00,+9.00,+1.00,+3.00,-35.00,-11.00,-4.00,+3.00,-10.00,+3.00,-6.00,-2.00
+0.00,-5.00,+0.00,+2.00,+25.00,+6.00,+0.00,-3.00,+29.00,-1.00,+2.00,+1.00,+8.00,+0.00,-1.00,-3.00
-6.00,-5.00,+4.00,+1.00,-5.00,-5.00,+0.00,+4.00,+1.00,-5.00,-3.00,+3.00,-11.00,-3.00,-2.00,-1.00
-2.00,+2.00,-1.00,-3.00,-16.00,-8.00,+0.00,-1.00,-11.00,-5.00,-4.00,-15.00,-4.00,-5.00,-5.00,-4.00
+2.00,+31.00,-3.00,-5.00,-11.00,-9.00,-2.00,-2.00,+3.00,-1.00,+0.00,+1.00,+15.00,-3.00,+2.00,+0.00
-6.00,-49.00,+7.00,+3.00,+1.00,-1.00,+0.00,-1.00,-12.00,-8.00,-3.00,-2.00,-17.00,-1.00,+0.00,-4.00
+5.00,+40.00,+1.00,+1.00,-1.00,+3.00,-2.00,+0.00,-6.00,-11.00,-2.00,+7.00,+10.00,-1.00,+1.00,+1.00
-6.00,-21.00,-7.00,-6.00,-3.00,-1.00,-3.00,-3.00,+15.00,-8.00,-2.00,+6.00,+0.00,-2.00,+3.00,+3.00
+2.00,+4.00,-5.00,-4.00,-4.00,-4.00,-1.00,-6.00,+1.00,+19.00,+3.00,-1.00,+7.00,-5.00,+0.00,-1.00
-1.00,-2.00,-4.00,+0.00,+2.00,+8.00,-1.00,-3.00,-25.00,+3.00,-1.00,-2.00,-5.00,+0.00,-2.00,-1.00
+1.00,+1.00,-2.00,-3.00,+6.00,+0.00,-1.00,-2.00,+19.00,+3.00,-5.00,-5.00,-4.00,+2.00,-1.00,-1.00
+2.00,+10.00,+3.00,+3.00,-6.00,-1.00,-1.00,-2.00,-10.00,-5.00,-4.00,-1.00,-8.00,-1.00,-2.00,-6.00
-11.00,-1.00,+0.00,+1.00,-3.00,-1.00,-6.00,-6.00,+4.00,+6.00,-2.00,-7.00,+3.00,+1.00,+4.00,+4.00
+0.00,-1.00,+0.00,+0.00,-3.00,+1.00,-2.00,+2.00,-11.00,+1.00,+2.00,+3.00,+0.00,-2.00,+0.00,-2.00
-1.00,-10.00,-3.00,+1.00,-1.00,-1.00,+1.00,+0.00,-8.00,-6.00,-1.00,+0.00,-3.00,-1.00,-3.00,-2.00
-2.00,+5.00,+3.00,+1.00,-3.00,+1.00,+1.00,+0.00,+15.00,-3.00,+1.00,+0.00,+0.00,-3.00,-4.00,+0.00
-3.00,-12.00,+1.00,-2.00,+0.00,+2.00,-1.00,+1.00,-14.00,-3.00,+2.00,+3.00,+9.00,-2.00,+0.00,-2.00
+4.00,+17.00,-3.00,-2.00,+2.00,-2.00,-1.00,-2.00,+2.00,+4.00,-2.00,-4.00,-10.00,-2.00,-1.00,+0.00
-5.00,+7.00,-1.00,-1.00,+2.00,-2.00,+3.00,+0.00,-8.00,-8.00,-2.00,-5.00,-2.00,+0.00,+0.00,+0.00
-2.00,-6.00,+0.00,-1.00,-5.00,-1.00,+4.00,-1.00,-4.00,+7.00,-1.00,+1.00,-3.00,+0.00,-1.00,-2.00
-1.00,+3.00,-3.00,-6.00,-35.00,-11.00,+3.00,+1.00,-12.00,-11.00,-3.00,-3.00,-2.00,+1.00,+0.00,-6.00
-1.00,+6.00,-1.00,+3.00,+40.00,+1.00,+2.00,+5.00,+13.00,-12.00,-5.00,+1.00,-2.00,+1.00,+1.00,+1.00
+3.00,-18.00,-6.00,-4.00,-7.00,+2.00,-4.00,-3.00,-19.00,-2.00,+0.00,+7.00,+7.00,-2.00,+0.00,-2.00
+8.00,+5.00,+2.00,+1.00,-6.00,+7.00,-2.00,+2.00,+21.00,+7.00,+1.00,-8.00,+8.00,+2.00,+1.00,+3.00
+7.00,+3.00,+5.00,+4.00,+35.00,+2.00,-1.00,+1.00,-8.00,+0.00,-1.00,+4.00,+14.00,-1.00,-2.00,-3.00
+1.00,+3.00,-3.00,-3.00,-16.00,+2.00,-2.00,-4.00,+6.00,+15.00,-1.00,-5.00,-14.00,-2.00,-1.00,+6.00
-2.00,-7.00,+0.00,-1.00,+8.00,+4.00,+0.00,-5.00,-3.00,-9.00,-3.00,+2.00,+3.00,-1.00,-1.00,-5.00
-1.00,-3.00,-3.00,-2.00,-14.00,-5.00,+0.00,+1.00,-8.00,-5.00,-1.00,+1.00,-7.00,+0.00,-2.00,-4.00
+0.00,+9.00,-3.00,+1.00,-6.00,-4.00,-1.00,-2.00,+9.00,+0.00,+2.00,-1.00,+0.00,-1.00,-6.00,+0.00
-2.00,-2.00,+0.00,-1.00,-4.00,-3.00,+0.00,+0.00,+4.00,-7.00,+0.00,+8.00,+15.00,+1.00,-1.00,+0.00
-6.00,-11.00,-2.00,-1.00,-3.00,-4.00,-4.00,-3.00,+3.00,-7.00,+0.00,-5.00,-15.00,-1.00,-2.00,-2.00
-3.00,+6.00,-1.00,-3.00,-4.00,+0.00,-4.00,-6.00,-22.00,+7.00,+3.00,+1.00,+3.00,-1.00,+2.00,+3.00
-4.00,-12.00,-4.00,-2.00,+0.00,+1.00,+0.00,-5.00,+5.00,+1.00,-5.00,+1.00,-4.00,-1.00,+0.00,-3.00
-1.00,+5.00,+0.00,-1.00,-4.00,-5.00,-1.00,+0.00,+5.00,-4.00,+1.00,-2.00,-4.00,-1.00,-2.00,+5.00
+4.00,+6.00,+3.00,+2.00,-5.00,-2.00,+2.00,+1.00,+32.00,+12.00,+1.00,-4.00,-7.00,-1.00,-3.00,+4.00
-2.00,-4.00,-5.00,-3.00,+11.00,+1.00,+1.00,+3.00,+11.00,-3.00,+2.00,-3.00,-2.00,-3.00,-3.00,-2.00
-4.00,-15.00,+0.00,-4.00,-1.00,+1.00,-3.00,-1.00,-14.00,-2.00,-2.00,+2.00,+2.00,-2.00,+1.00,+1.00
+2.00,+29.00,+1.00,+0.00,-12.00,-4.00,-6.00,-1.00,-12.00,-1.00,+1.00,+0.00,+1.00,-2.00,-2.00,-7.00
-16.00,-23.00,+3.00,+3.00,+0.00,-7.00,-2.00,+3.00,-7.00,+4.00,+0.00,-6.00,+2.00,+0.00,+1.00,+2.00
-7.00,-18.00,-4.00,+0.00,+2.00,-4.00,-1.00,-7.00,-22.00,-2.00,+1.00,+3.00,+2.00,+3.00,+1.00,-2.00
+3.00,+8.00,+1.00,+3.00,-3.00,-3.00,+0.00,-5.00,+17.00,-5.00,+0.00,+1.00,-1.00,+3.00,+1.00,+0.00
+1.00,+2.00,-1.00,-3.00,-48.00,-6.00,+5.00,-2.00,-11.00,-3.00,-4.00,-3.00,-11.00,-1.00,-2.00,-4.00
+0.00,+6.00,-6.00,+1.00,+59.00,+12.00,+6.00,-2.00,+23.00,-5.00,-2.00,+2.00,+8.00,+7.00,+5.00,+8.00
-6.00,-7.00,-4.00,+1.00,+31.00,-3.00,-11.00,-5.00,-16.00,+17.00,+3.00,+10.00,-14.00,-3.00,+1.00,-2.00
+2.00,+1.00,-1.00,-4.00,-4.00,+1.00,-2.00,+0.00,+7.00,+5.00,-3.00,-16.00,+1.00,+0.00,-1.00,+1.00
+3.00,-11.00,+2.00,-2.00,+11.00,+1.00,-1.00,+2.00,-23.00,-6.00,-3.00,-12.00,-8.00,-3.00,-2.00,-4.00
-1.00,+0.00,-1.00,-2.00,-23.00,-3.00,+1.00,-2.00,-6.00,-8.00,-1.00,+2.00,+4.00,-4.00,-2.00,-3.00
-2.00,-3.00,+0.00,-2.00,-10.00,+2.00,+0.00,-1.00,+16.00,-10.00,-3.00,-5.00,-5.00,-2.00,+2.00,+0.00
-5.00,-1.00,-4.00,+1.00,+2.00,-1.00,-4.00,-3.00,-3.00,-1.00,-1.00,+6.00,+5.00,-2.00,+1.00,-1.00
-2.00,+2.00,+0.00,+2.00,-1.00,+0.00,+1.00,-4.00,+2.00,+3.00,+0.00,+2.00,+6.00,-1.00,-1.00,-2.00
+4.00,+4.00,-2.00,-2.00,-8.00,-3.00,-4.00,+2.00,-36.00,-2.00,-1.00,-1.00,-2.00,-3.00,-3.00,-6.00
-3.00,-3.00,+0.00,+0.00,+1.00,-1.00,-1.00,+3.00,+34.00,-3.00,-1.00,+4.00,+0.00,+1.00,-2.00,+2.00
-2.00,-4.00,+4.00,-1.00,-5.00,-2.00,-1.00,+3.00,+1.00,+7.00,+3.00,-1.00,-8.00,+0.00,-4.00,-1.00
-1.00,+10.00,+0.00,-2.00,+3.00,+0.00,-1.00,+0.00,-18.00,-8.00,+0.00,-2.00,-1.00,+1.00,-3.00,-4.00
+0.00,-10.00,+1.00,-2.00,-2.00,-1.00,-3.00,-1.00,-8.00,+1.00,-1.00,-5.00,+0.00,-3.00,-3.00,+0.00
+0.00,-6.00,-2.00,-1.00,-6.00,+1.00,+0.00,-2.00,-2.00,-3.00,-2.00,-7.00,+5.00,-4.00,-4.00,-3.00
-1.00,-7.00,-2.00,+0.00,+1.00,+0.00,+2.00,-1.00,-13.00,-5.00,-5.00,+1.00,-1.00,+0.00,-2.00,+0.00
+1.00,+12.00,-2.00,+0.00,+5.00,+0.00,+2.00,+3.00,+10.00,+2.00,-2.00,+4.00,+5.00,+1.00,+2.00,+2.00
-3.00,+6.00,-5.00,-2.00,-4.00,-4.00,-2.00,+2.00,+5.00,+0.00,-3.00,+0.00,+0.00,-2.00,-1.00,-3.00
+6.00,+7.00,-2.00,-1.00,-9.00,-3.00,+3.00,+2.00,+3.00,-1.00,-1.00,+1.00,-2.00,-2.00,+0.00,+1.00
-1.00,-11.00,-2.00,+2.00,-24.00,-1.00,+1.00,-2.00,-3.00,-10.00,+1.00,+0.00,+0.00,-4.00,+2.00,+2.00
-2.00,-11.00,-2.00,-2.00,+31.00,+11.00,-1.00,-5.00,-8.00,-12.00,-1.00,+4.00,+2.00,+2.00,+0.00,-3.00
+3.00,-1.00,-1.00,+2.00,+14.00,-1.00,-5.00,-6.00,+4.00,+25.00,+4.00,+9.00,-2.00,+0.00,+2.00,-2.00
-1.00,+2.00,+2.00,+2.00,+0.00,-1.00,+3.00,+5.00,+0.00,-4.00,-3.00,-22.00,-15.00,-1.00,-5.00,-2.00
+5.00,+15.00,+0.00,+1.00,+9.00,-8.00,+0.00,+0.00,-66.00,-4.00,-6.00,-11.00,-25.00,-3.00,-11.00,-19.00
-1.00,-7.00,-1.00,-1.00,-18.00,+4.00,+0.00,-2.00,+45.00,+7.00,+3.00,+3.00,+30.00,+6.00,+3.00,+14.00
-5.00,-9.00,+1.00,-1.00,-12.00,-3.00,+3.00,-2.00,+10.00,+0.00,+3.00,-8.00,-10.00,+2.00,+1.00,+2.00
-7.00,-14.00,-2.00,-2.00,+6.00,+1.00,-2.00,-7.00,+0.00,-1.00,-1.00,+11.00,+19.00,-3.00,+0.00,-3.00
+4.00,+18.00,+0.00,-1.00,-8.00,-5.00,+0.00,+1.00,+7.00,-4.00,+0.00,+3.00,+4.00,-2.00,+1.00,+0.00
+1.00,-5.00,-2.00,-3.00,-5.00,-4.00,-4.00,+1.00,-8.00,+2.00,-6.00,-5.00,-10.00,-7.00,-3.00,-7.00
-1.00,-2.00,+0.00,-1.00,-1.00,+3.00,-1.00,+0.00,-10.00,-8.00,-4.00,+2.00,+3.00,-2.00,-2.00,-1.00
+2.00,+4.00,-1.00,-2.00,-7.00,+1.00,-2.00,-1.00,-5.00,-5.00,-2.00,+1.00,+0.00,-1.00,-2.00,+1.00
-1.00,-4.00,+0.00,-3.00,+1.00,+2.00,-3.00,+0.00,+10.00,+0.00,-2.00,+1.00,-2.00,-2.00,+1.00,+1.00
+0.00,-10.00,+1.00,+0.00,+1.00,-2.00,-2.00,+2.00,-10.00,+4.00,+2.00,+1.00,-6.00,-2.00,-4.00,-4.00
+0.00,+8.00,+1.00,+0.00,-2.00,+3.00,+0.00,+0.00,+7.00,+1.00,-1.00,-2.00,-4.00,-1.00,+0.00,-1.00
-2.00,-7.00,+0.00,-4.00,-10.00,-4.00,+0.00,+0.00,-4.00,-4.00,+0.00,+0.00,-7.00,+0.00,+0.00,-2.00
-12.00,-6.00,-4.00,-1.00,+7.00,+3.00,+3.00,+1.00,+6.00,+0.00,+0.00,-4.00,+3.00,+1.00,+3.00,+2.00
+3.00,+8.00,-1.00,+1.00,+3.00,-4.00,+2.00,-1.00,+6.00,+2.00,-3.00,-1.00,-5.00,-2.00,-1.00,+0.00
+0.00,-2.00,-2.00,+0.00,-11.00,-3.00,-1.00,-1.00,-11.00,-7.00,-1.00,-1.00,-1.00,+0.00,-2.00,-1.00
+1.00,+1.00,-4.00,+1.00,-4.00,-3.00,-1.00,+5.00,-7.00,-4.00,-1.00,-1.00,+2.00,+4.00,-4.00,-7.00
+1.00,-2.00,+0.00,+1.00,+6.00,+2.00,-2.00,-1.00,+12.00,+2.00,+1.00,+6.00,+4.00,+2.00,-1.00,+1.00
+2.00,+9.00,-2.00,-4.00,-3.00,-4.00,-5.00,-2.00,-12.00,-2.00,-2.00,-4.00,-3.00,-2.00,-3.00,-6.00
+2.00,-14.00,-2.00,-1.00,-5.00,-4.00,-1.00,+1.00,+6.00,+0.00,-1.00,-6.00,-1.00,-2.00,-1.00,+3.00
-4.00,-9.00,+3.00,-1.00,+1.00,-2.00,+1.00,-2.00,+1.00,+2.00,-1.00,+3.00,+0.00,-4.00,-3.00,+1.00
-4.00,-1.00,-1.00,-1.00,+2.00,+2.00,-1.00,-4.00,+14.00,+4.00,-2.00,-2.00,-2.00,-3.00,+2.00,+3.00
-5.00,-9.00,-1.00,-3.00,-8.00,-4.00,+0.00,-1.00,-7.00,-10.00,-2.00,-6.00,-7.00,-2.00,-2.00,-5.00
+2.00,+11.00,-2.00,-2.00,-5.00,-3.00,-2.00,-2.00,-9.00,-12.00,-6.00,-7.00,-1.00,-5.00,-5.00,-9.00
+0.00,-1.00,-2.00,-1.00,+2.00,-2.00,-3.00,-2.00,+11.00,+1.00,+1.00,+1.00,+2.00,+2.00,+3.00,+5.00
-2.00,-14.00,-4.00,-5.00,-15.00,-6.00,-4.00,-1.00,-8.00,-2.00,-1.00,+2.00,+2.00,-1.00,-2.00,-3.00
-5.00,+5.00,+2.00,+2.00,+16.00,+7.00,+0.00,-1.00,+5.00,+0.00,+1.00,+3.00,+0.00,-3.00,+1.00,+2.00
-5.00,-3.00,-2.00,-3.00,-1.00,-2.00,-1.00,-2.00,-9.00,-4.00,-2.00,+9.00,+11.00,+0.00,+1.00,-2.00
+1.00,+8.00,-1.00,-1.00,-7.00,-6.00,+1.00,-3.00,+7.00,+7.00,+3.00,-15.00,-20.00,-3.00,+2.00,+1.00
-8.00,-8.00,+3.00,+2.00,+6.00,+7.00,+4.00,+1.00,-5.00,+1.00,-1.00,-2.00,-2.00,-1.00,-2.00,-1.00
-2.00,-6.00,+0.00,-1.00,-8.00,-4.00,+2.00,-2.00,-8.00,-1.00,-3.00,-3.00,-4.00,+0.00,+0.00,-4.00
+0.00,+0.00,-1.00,-1.00,+0.00,+2.00,+3.00,-1.00,-3.00,-4.00,-1.00,-2.00,+1.00,-1.00,-3.00,-2.00
+3.00,+1.00,-1.00,+1.00,+2.00,+1.00,+2.00,+3.00,-3.00,-2.00,-4.00,+4.00,+2.00,-1.00,-3.00,-2.00
+5.00,+5.00,+1.00,+0.00,-4.00,+0.00,+0.00,+4.00,+8.00,-2.00,+0.00,-1.00,-3.00,+1.00,+0.00,-1.00
+7.00,-8.00,-3.00,-1.00,-3.00,-3.00,-1.00,-1.00,-21.00,-3.00,-3.00,-4.00,-4.00,+0.00,-4.00,-8.00
+0.00,-2.00,+1.00,+0.00,-3.00,-4.00,-2.00,-4.00,+2.00,+0.00,+1.00,-1.00,-2.00,+0.00,+0.00,+2.00
-5.00,-1.00,-5.00,-1.00,-3.00,-2.00,+0.00,-10.00,+1.00,-4.00,+1.00,+1.00,+1.00,-1.00,-2.00,-5.00
-1.00,+13.00,+4.00,+1.00,+6.00,+2.00,-2.00,-3.00,+0.00,-2.00,+0.00,-3.00,-3.00,-1.00,-4.00,+1.00
+1.00,-4.00,-1.00,-1.00,-1.00,+1.00,-3.00,+0.00,-3.00,-1.00,-1.00,+1.00,+1.00,-5.00,-1.00,-4.00
-7.00,-1.00,-1.00,-1.00,-2.00,-3.00,-4.00,+0.00,+8.00,+3.00,+0.00,-3.00,-3.00,-1.00,+3.00,+3.00
-2.00,+1.00,-1.00,-2.00,-2.00,+1.00,-2.00,+0.00,-3.00,+0.00,-1.00,+3.00,+5.00,+0.00,+1.00,-1.00
+1.00,-6.00,-2.00,-3.00,+1.00,-2.00,+2.00,-2.00,-1.00,+1.00,-4.00,+1.00,+2.00,-2.00,+0.00,-1.00
-1.00,-1.00,-2.00,+1.00,+0.00,-2.00,-3.00,+2.00,+7.00,+0.00,-2.00,-1.00,-6.00,+1.00,-2.00,-1.00
+3.00,+4.00,+0.00,+1.00,-1.00,-2.00,+0.00,+0.00,-1.00,+0.00,-4.00,-5.00,-4.00,+1.00,-4.00,-1.00
-2.00,-19.00,-2.00,+0.00,+2.00,+3.00,-3.00,-2.00,-3.00,-3.00,+0.00,-1.00,+1.00,+2.00,-1.00,-2.00
-2.00,+9.00,+0.00,+0.00,+1.00,+1.00,-1.00,-3.00,+3.00,+0.00,+4.00,-3.00,+0.00,+2.00,-2.00,+0.00
+1.00,+4.00,+0.00,+3.00,-1.00,+0.00,+1.00,-4.00,+3.00,+1.00,+1.00,-3.00,-2.00,+0.00,-1.00,+0.00
+0.00,-3.00,-1.00,-3.00,-3.00,-2.00,-1.00,+3.00,-5.00,-2.00,+1.00,-2.00,-2.00,-5.00,+0.00,-5.00
+4.00,+19.00,+0.00,+0.00,+3.00,-3.00,-2.00,-1.00,-7.00,-1.00,+0.00,+2.00,+2.00,-4.00,+0.00,-5.00
-3.00,-14.00,-4.00,+1.00,+4.00,+6.00,-3.00,-1.00,+6.00,-1.00,+0.00,+1.00,+0.00,+0.00,+3.00,+4.00
-3.00,-5.00,-3.00,-3.00,-2.00,-2.00,+0.00,+0.00,+3.00,+5.00,-3.00,+1.00,-4.00,+0.00,+1.00,+4.00
-6.00,-6.00,+2.00,-1.00,-1.00,-1.00,+1.00,+1.00,+10.00,-5.00,-5.00,-1.00,+14.00,+6.00,-3.00,-1.00
+0.00,+3.00,-1.00,-2.00,-3.00,-1.00,-1.00,+2.00,-1.00,+0.00,-2.00,+1.00,-1.00,+3.00,-4.00,+1.00
+2.00,+14.00,-2.00,-5.00,-3.00,-5.00,-4.00,-2.00,-1.00,-5.00,+0.00,-1.00,+0.00,+2.00,-2.00,-4.00
-1.00,-9.00,-3.00,-2.00,+0.00,-4.00,-1.00,-2.00,-6.00,-2.00,+4.00,+0.00,-2.00,+0.00,-2.00,-2.00
-5.00,-8.00,-3.00,-3.00,-2.00,-2.00,+3.00,-1.00,-4.00,+1.00,+1.00,-1.00,-6.00,-2.00,-2.00,-1.00
+2.00,+2.00,+2.00,+1.00,+2.00,-2.00,+1.00,-1.00,+2.00,-1.00,+0.00,+0.00,-1.00,-3.00,-2.00,+0.00
-1.00,-4.00,-1.00,+0.00,+0.00,-3.00,-3.00,-2.00,-1.00,+1.00,+0.00,+0.00,+1.00,-3.00,-4.00,+2.00
-6.00,-9.00,-3.00,+0.00,-2.00,+0.00,+0.00,+4.00,+1.00,+2.00,+0.00,+1.00,+0.00,-2.00,-1.00,+3.00
+4.00,+8.00,+0.00,-1.00,-2.00,+1.00,+0.00,-1.00,-5.00,-2.00,+3.00,-1.00,-2.00,-3.00,-2.00,-1.00
+5.00,-8.00,+1.00,-2.00,-3.00,+2.00,-3.00,+1.00,-3.00,-2.00,-1.00,-2.00,+1.00,+2.00,+0.00,-3.00
+10.00,+14.00,+1.00,+0.00,-2.00,+0.00,+2.00,+1.00,-3.00,+1.00,-4.00,+0.00,-2.00,-3.00,-1.00,-5.00
-1.00,-5.00,+1.00,-1.00,-5.00,+0.00,-1.00,-1.00,+3.00,-5.00,-3.00,-2.00,+1.00,-3.00,-2.00,-1.00
-2.00,-3.00,-2.00,+1.00,-1.00,+0.00,-3.00,-3.00,+1.00,-3.00,-2.00,-2.00,-4.00,-4.00,+0.00,+2.00
-6.00,-3.00,-1.00,-2.00,+3.00,-2.00,+0.00,-2.00,-6.00,-4.00,-1.00,+0.00,-3.00,-2.00,-1.00,-2.00
-3.00,+0.00,-2.00,-4.00,-1.00,-4.00,-4.00,-5.00,-6.00,-6.00,+1.00,-1.00,-4.00,+1.00,-2.00,-4.00
+1.00,+14.00,-1.00,-2.00,-2.00,-1.00,-1.00,-2.00,+6.00,+3.00,-1.00,+2.00,+0.00,+0.00,+1.00,+2.00
+0.00,-6.00,+0.00,-1.00,+1.00,+0.00,-3.00,-1.00,-7.00,-5.00,-2.00,+0.00,-3.00,-1.00,+1.00,+1.00
+0.00,+5.00,-1.00,-2.00,-1.00,+3.00,-1.00,+1.00,+12.00,-2.00,-6.00,+1.00,-2.00,-4.00,+1.00,+3.00
-3.00,-12.00,-1.00,+0.00,+5.00,+1.00,-2.00,-1.00,-13.00,+0.00,-2.00,+0.00,+1.00,-1.00,+0.00,+0.00
-3.00,+16.00,-3.00,-1.00,-3.00,+0.00,+1.00,-1.00,+6.00,+2.00,+2.00,+2.00,+5.00,+2.00,-3.00,+2.00
-7.00,-11.00,-3.00,+0.00,-2.00,+1.00,+0.00,+0.00,-7.00,-1.00,-2.00,-6.00,-5.00,+0.00,-5.00,-5.00
-4.00,+0.00,+1.00,+2.00,+0.00,-2.00,-1.00,+1.00,-2.00,+4.00,-2.00,-2.00,+1.00,+3.00,-2.00,+2.00
+0.00,-3.00,-2.00,+1.00,+0.00,-3.00,-1.00,+1.00,+18.00,+3.00,-1.00,+1.00,+3.00,-1.00,+1.00,+5.00
-3.00,-2.00,-3.00,-2.00,+1.00,-2.00,-4.00,-3.00,-4.00,-3.00,+0.00,-6.00,+17.00,+0.00,+1.00,-3.00
+1.00,+8.00,+0.00,-3.00,-1.00,-4.00,-2.00,-3.00,+2.00,+1.00,+1.00,-3.00,+1.00,+1.00,-1.00,-1.00
+0.00,+5.00,+0.00,+0.00,-2.00,-2.00,+2.00,-2.00,-8.00,-7.00,-2.00,-2.00,-2.00,-2.00,-4.00,-2.00
-6.00,-5.00,-3.00,+0.00,-3.00,+1.00,+2.00,-2.00,-3.00,-1.00,-5.00,+1.00,+2.00,-2.00,-3.00,+1.00
+2.00,-2.00,-1.00,-3.00,-1.00,-1.00,-1.00,+0.00,-4.00,-2.00,-3.00,+1.00,-9.00,-2.00,-3.00,+1.00
+1.00,+0.00,-2.00,-2.00,+0.00,+0.00,+0.00,+1.00,-1.00,+4.00,-1.00,-1.00,-2.00,+0.00,-1.00,-2.00
-4.00,-12.00,-2.00,+1.00,+2.00,-2.00,-1.00,-1.00,-1.00,-1.00,+2.00,-2.00,+6.00,+0.00,-3.00,+0.00
-3.00,-6.00,-3.00,-5.00,+1.00,-1.00,+0.00,-3.00,-1.00,+3.00,+3.00,-1.00,-15.00,-2.00,-2.00,+1.00
+1.00,-1.00,-2.00,-3.00,-12.00,-6.00,-4.00,-2.00,+3.00,+4.00,+2.00,-3.00,-3.00,-3.00,+1.00,-2.00
+0.00,-7.00,+3.00,+1.00,-12.00,+2.00,-2.00,+1.00,-2.00,-4.00,-2.00,+1.00,+0.00,-5.00,+0.00,-2.00
+5.00,+16.00,-1.00,+3.00,+27.00,+3.00,-3.00,+3.00,+1.00,+0.00,-5.00,+4.00,+0.00,-1.00,+2.00,-1.00
+1.00,+14.00,+0.00,-1.00,-1.00,+1.00,-1.00,+0.00,-5.00,-7.00,-1.00,+0.00,+6.00,-2.00,-1.00,-6.00
-6.00,-33.00,+0.00,+1.00,+4.00,+3.00,+1.00,+0.00,-4.00,-5.00,-1.00,-4.00,-5.00,+0.00,-1.00,+0.00
-4.00,-4.00,-2.00,-1.00,-11.00,+0.00,+0.00,-6.00,+1.00,+0.00,-2.00,-1.00,-7.00,+1.00,-1.00,-3.00
+7.00,-1.00,+1.00,-1.00,-10.00,-2.00,+1.00,+1.00,+4.00,-8.00,-3.00,-5.00,-2.00,-1.00,-2.00,-4.00
-2.00,-5.00,-1.00,-1.00,+2.00,+0.00,+0.00,-2.00,+3.00,-2.00,-1.00,+0.00,+7.00,+3.00,-2.00,+0.00
-2.00,+6.00,-1.00,-2.00,-2.00,-3.00,-1.00,-2.00,-5.00,-2.00,-5.00,+2.00,+1.00,+0.00,+1.00,+0.00
-1.00,+7.00,-2.00,+0.00,+7.00,-1.00,-1.00,-3.00,-1.00,+3.00,-1.00,+0.00,-4.00,-1.00,+1.00,+0.00
-2.00,+9.00,-3.00,-4.00,-8.00,-2.00,-4.00,-1.00,-4.00,+3.00,-2.00,+5.00,+0.00,+1.00,-1.00,-2.00
+0.00,-4.00,+3.00,-1.00,+1.00,-2.00,-3.00,+3.00,-5.00,-3.00,-1.00,-3.00,-4.00,+3.00,+0.00,-4.00
+1.00,+1.00,-1.00,-2.00,-1.00,+0.00,-1.00,-3.00,-13.00,-12.00,-2.00,+0.00,-5.00,-1.00,-4.00,-8.00
-2.00,-8.00,-3.00,-1.00,+3.00,-2.00,+2.00,+8.00,+10.00,+4.00,+2.00,+3.00,+1.00,+0.00,+1.00,+8.00
-6.00,-1.00,+1.00,-1.00,+1.00,+2.00,+0.00,-1.00,-6.00,+2.00,-2.00,-4.00,-7.00,-4.00,-2.00,-2.00
-2.00,+8.00,+0.00,-1.00,-8.00,-3.00,-1.00,-3.00,+7.00,+2.00,-2.00,-6.00,-2.00,-4.00,-3.00,+0.00
+0.00,+0.00,-3.00,+0.00,+1.00,-2.00,-1.00,-3.00,+0.00,-1.00,-1.00,-6.00,-5.00,-4.00,-5.00,+0.00
+2.00,+4.00,+0.00,+0.00,+5.00,-4.00,+0.00,-3.00,-7.00,-5.00,-2.00,-1.00,+2.00,-1.00,-2.00,-4.00
-2.00,-8.00,-3.00,-1.00,-4.00,+0.00,+0.00,-2.00,-2.00,-1.00,+4.00,+0.00,-1.00,+0.00,+1.00,-2.00
-2.00,-11.00,-2.00,-1.00,-1.00,+0.00,-1.00,+0.00,-6.00,+0.00,-3.00,-3.00,-6.00,+0.00,-3.00,-3.00
-2.00,-1.00,-1.00,-4.00,+1.00,+3.00,-3.00,-4.00,-3.00,-1.00,-1.00,+0.00,-1.00,-1.00,-3.00,-4.00
+1.00,+7.00,-1.00,-3.00,-1.00,+0.00,-4.00,+0.00,+4.00,+0.00,-2.00,-4.00,-3.00,-1.00,+0.00,-2.00
-3.00,-3.00,-4.00,-2.00,-8.00,-3.00,+0.00,-2.00,-4.00,+0.00,+1.00,-1.00,+0.00,-2.00,+4.00,+1.00
-3.00,-11.00,+2.00,+4.00,-2.00,+0.00,+3.00,+2.00,-4.00,-4.00,+1.00,+0.00,+2.00,-3.00,+2.00,-3.00
+2.00,+5.00,+0.00,+1.00,+5.00,+1.00,+2.00,-1.00,+6.00,+3.00,+5.00,+0.00,+3.00,-2.00,+2.00,+1.00
+1.00,+2.00,-1.00,+0.00,-1.00,-1.00,-3.00,-1.00,-14.00,-7.00,+0.00,-1.00,-2.00,-2.00,-6.00,-5.00
-4.00,+2.00,+0.00,-1.00,+2.00,+1.00,-2.00,-3.00,-2.00,+1.00,+0.00,-2.00,-2.00,-1.00,-5.00,-1.00
+0.00,-7.00,-4.00,-2.00,+1.00,-1.00,-3.00,-3.00,+7.00,-2.00,+1.00,+2.00,+5.00,+4.00,-1.00,+1.00
-2.00,-2.00,-2.00,-3.00,-7.00,-3.00,-3.00,+0.00,+3.00,+2.00,-3.00,-3.00,-6.00,+3.00,-1.00,+0.00
+0.00,+2.00,+0.00,+0.00,+7.00,-2.00,+1.00,-3.00,+2.00,-4.00,+2.00,-1.00,+0.00,+0.00,+1.00,+0.00
-7.00,-12.00,-2.00,-1.00,-6.00,+2.00,+1.00,+3.00,+2.00,+2.00,-1.00,+1.00,-2.00,-3.00,+0.00,+0.00
+5.00,+2.00,-1.00,+0.00,-6.00,+1.00,+3.00,+5.00,-2.00,-1.00,-1.00,-3.00,-3.00,-5.00,+1.00,-1.00
+2.00,+0.00,+2.00,+2.00,-3.00,+5.00,+0.00,+4.00,-2.00,-3.00,-6.00,-4.00,+1.00,-5.00,-2.00,-2.00
+0.00,+4.00,-2.00,-3.00,+6.00,-2.00,-2.00,+0.00,-2.00,+1.00,-1.00,+1.00,+9.00,+3.00,-2.00,-3.00
+1.00,+4.00,-1.00,-1.00,-1.00,-2.00,-3.00,-3.00,+0.00,-4.00,-1.00,-3.00,-2.00,+3.00,-3.00,-1.00
-1.00,-2.00,-2.00,-1.00,-3.00,-5.00,-4.00,-1.00,-6.00,+0.00,+0.00,+3.00,+0.00,-1.00,+1.00,+1.00
-4.00,+1.00,-1.00,+1.00,-8.00,-6.00,+1.00,-1.00,+6.00,-1.00,-1.00,+2.00,-6.00,-1.00,-3.00,+0.00
-1.00,-1.00,+1.00,+2.00,-2.00,-1.00,+1.00,-4.00,-7.00,-4.00,-5.00,-1.00,-3.00,-6.00,-1.00,-4.00
+7.00,+14.00,+0.00,-2.00,+1.00,+1.00,-1.00,-2.00,+2.00,-3.00,-3.00,-1.00,+2.00,-1.00,-1.00,+1.00
-10.00,-20.00,+0.00,+0.00,+0.00,+1.00,+1.00,-1.00,-1.00,-1.00,-3.00,-3.00,+1.00,-3.00,-3.00,-2.00
+0.00,-12.00,-4.00,-5.00,+1.00,-1.00,+1.00,+1.00,-3.00,+1.00,-4.00,+0.00,-5.00,+2.00,+0.00,+0.00
+5.00,+14.00,-1.00,-1.00,-16.00,-2.00,+0.00,+1.00,+0.00,-3.00,-2.00,+3.00,+0.00,+1.00,+1.00,-4.00
-6.00,-5.00,-2.00,-2.00,+10.00,-3.00,-2.00,-2.00,+6.00,+3.00,+2.00,-1.00,+2.00,+1.00,-2.00,-1.00
-1.00,+5.00,-4.00,-1.00,+1.00,-5.00,-5.00,-5.00,-17.00,-6.00,+0.00,+0.00,-4.00,+1.00,+0.00,-7.00
+2.00,+3.00,+2.00,-1.00,+3.00,+1.00,-2.00,+1.00,-3.00,+3.00,+3.00,-11.00,-4.00,-3.00,-2.00,-3.00
-6.00,-12.00,-2.00,-3.00,+4.00,+4.00,-2.00,-3.00,+3.00,-3.00,+0.00,-4.00,-5.00,-4.00,-4.00,-1.00
+3.00,+0.00,-1.00,-1.00,-19.00,-5.00,-2.00,+1.00,-3.00,-4.00,-2.00,-3.00,-5.00,+1.00,-2.00,-3.00
-3.00,+1.00,-1.00,-2.00,-18.00,+5.00,+0.00,+0.00,+1.00,-2.00,+0.00,-1.00,+3.00,-2.00,-2.00,+1.00
-3.00,-11.00,-1.00,+1.00,+31.00,+5.00,+1.00,-2.00,+1.00,+0.00,+0.00,+8.00,+4.00,+0.00,+3.00,+2.00
+0.00,+0.00,-1.00,-2.00,-4.00,-2.00,-1.00,+1.00,+3.00,+3.00,-1.00,+2.00,+10.00,-2.00,-2.00,+0.00
+0.00,-1.00,+1.00,-1.00,+8.00,+1.00,+0.00,-2.00,-1.00,+0.00,+1.00,-9.00,-3.00,-3.00,+2.00,-3.00
-1.00,-5.00,-3.00,-3.00,-8.00,-1.00,-1.00,-4.00,-2.00,+2.00,-3.00,-1.00,-1.00,+0.00,+0.00,+1.00
+1.00,+1.00,-3.00,-1.00,-14.00,-7.00,-2.00,-1.00,-2.00,-1.00,-1.00,-2.00,+1.00,-1.00,-2.00,-2.00
+1.00,+4.00,+0.00,+1.00,+3.00,-3.00,-3.00,+0.00,-1.00,-4.00,-2.00,+1.00,-5.00,+0.00,-2.00,+0.00
-4.00,-2.00,-1.00,+0.00,-9.00,-6.00,-2.00,+0.00,+2.00,+3.00,-3.00,+4.00,+4.00,-3.00,+0.00,+2.00
+2.00,+2.00,+0.00,+1.00,+0.00,-8.00,-4.00,-1.00,+4.00,-2.00,+0.00,-3.00,-4.00,+2.00,+0.00,+3.00
+0.00,+12.00,+0.00,-2.00,+6.00,+4.00,-4.00,-3.00,+1.00,-2.00,-1.00,+6.00,-2.00,-2.00,-3.00,+0.00
-3.00,-14.00,+0.00,+1.00,+8.00,+5.00,-4.00,-3.00,-5.00,+2.00,-2.00,+0.00,+14.00,+1.00,-1.00,+0.00
+3.00,-8.00,-1.00,-2.00,+2.00,+3.00,-2.00,+1.00,-8.00,-1.00,+0.00,-2.00,-4.00,-3.00,-3.00,-1.00
-1.00,+5.00,-3.00,-3.00,-4.00,-1.00,+2.00,+1.00,+3.00,+0.00,+0.00,+0.00,-2.00,-1.00,+1.00,+2.00
-2.00,-8.00,-3.00,+1.00,-4.00,-1.00,+2.00,+0.00,-9.00,-6.00,-3.00,-1.00,-2.00,-1.00,-1.00,+0.00
+0.00,-3.00,-2.00,-2.00,-6.00,+2.00,+4.00,+2.00,+7.00,-1.00,+0.00,+1.00,-7.00,-2.00,-2.00,-2.00
-2.00,+12.00,+3.00,+0.00,-6.00,-3.00,+2.00,+0.00,+3.00,+0.00,+0.00,+5.00,+3.00,-1.00,-1.00,-3.00
+2.00,+10.00,-1.00,-4.00,+10.00,-1.00,-2.00,+0.00,-4.00,+0.00,-1.00,-3.00,-3.00,+1.00,+0.00,-4.00
-8.00,-14.00,+2.00,+2.00,-2.00,+1.00,-1.00,+1.00,-6.00,-1.00,+1.00,+1.00,+6.00,+2.00,+0.00,+0.00
+0.00,-6.00,-4.00,-1.00,+3.00,-6.00,+1.00,-4.00,+1.00,+3.00,-2.00,-9.00,-18.00,-1.00,-1.00,+4.00
+2.00,-6.00,-2.00,-1.00,-15.00,-2.00,+1.00,-5.00,-2.00,-4.00,-5.00,-3.00,-5.00,-3.00,-1.00,-3.00
+3.00,+1.00,-2.00,+5.00,+27.00,+5.00,+3.00,-4.00,+8.00,+4.00,-1.00,+1.00,-2.00,+1.00,-1.00,+3.00
+3.00,+4.00,+1.00,-2.00,-6.00,-3.00,+0.00,+0.00,-3.00,+2.00,+0.00,+4.00,+4.00,-1.00,+1.00,-4.00
-4.00,+4.00,+1.00,-4.00,-3.00,-1.00,+3.00,+1.00,-5.00,-3.00,-2.00,-5.00,-4.00,-1.00,+2.00,+0.00
-1.00,-9.00,+0.00,-3.00,-1.00,-2.00,+1.00,+0.00,+1.00,+0.00,+1.00,-4.00,+2.00,+0.00,-2.00,+1.00
+2.00,+5.00,+4.00,-1.00,-5.00,-1.00,-1.00,-2.00,-1.00,-1.00,-2.00,-4.00,+2.00,-1.00,-6.00,-1.00
-3.00,+4.00,-2.00,-2.00,-7.00,-5.00,-1.00,-5.00,+4.00,-3.00,-2.00,-2.00,-2.00,-1.00,-3.00,+1.00
-2.00,-11.00,+1.00,+4.00,-3.00,-2.00,-3.00,+7.00,-4.00,-2.00,-2.00,+2.00,-2.00,+0.00,-1.00,-3.00
+1.00,+0.00,-2.00,+1.00,+5.00,-5.00,-1.00,+1.00,-1.00,-1.00,+1.00,+2.00,-4.00,-3.00,-2.00,+1.00
-3.00,-8.00,-2.00,-1.00,-2.00,-6.00,+0.00,+1.00,+8.00,+2.00,-2.00,+1.00,+1.00,-2.00,-3.00,+0.00
+0.00,+2.00,-1.00,+0.00,-1.00,+3.00,+0.00,+1.00,+3.00,+2.00,-1.00,-2.00,+0.00,-2.00,-1.00,+2.00
+2.00,+12.00,+2.00,+0.00,-3.00,+2.00,+0.00,-5.00,-2.00,-1.00,+0.00,+0.00,+0.00,+0.00,+0.00,-1.00
-1.00,-1.00,+0.00,+1.00,+2.00,+6.00,+0.00,-2.00,-7.00,-5.00,-4.00,+3.00,+1.00,+3.00,-1.00,-2.00
-6.00,-15.00,-1.00,-1.00,-18.00,-3.00,-3.00,-1.00,-7.00,-3.00,-1.00,-6.00,-12.00,-1.00,+1.00,-1.00
+5.00,+9.00,-1.00,-2.00,+10.00,+1.00,+0.00,+0.00,+2.00,+3.00,+0.00,+4.00,+5.00,-3.00,-4.00,-1.00
-1.00,-2.00,-1.00,-3.00,-3.00,-3.00,-3.00,-4.00,+7.00,+1.00,+0.00,-2.00,+7.00,-2.00,-2.00,+0.00
-5.00,-15.00,-6.00,-3.00,+2.00,-2.00,-5.00,-3.00,-13.00,-9.00,-1.00,-2.00,-2.00,-2.00,-2.00,-5.00
+4.00,+18.00,+1.00,+0.00,-5.00,-1.00,-4.00,-2.00,-3.00,-4.00,+0.00,+2.00,+0.00,-1.00,-2.00,-4.00
-5.00,+1.00,-5.00,-2.00,-9.00,-5.00,-7.00,-2.00,+1.00,-3.00,-1.00,-3.00,-7.00,+0.00,+1.00,-3.00
-4.00,+1.00,-2.00,-2.00,-5.00,-2.00,-3.00,+0.00,-5.00,-1.00,+2.00,+0.00,+1.00,+3.00,-3.00,-1.00
-3.00,-7.00,+3.00,+1.00,+5.00,+4.00,+1.00,+5.00,+7.00,+4.00,+0.00,+1.00,-2.00,+0.00,+1.00,+3.00
-6.00,-7.00,-1.00,-1.00,+11.00,+4.00,+4.00,+2.00,+5.00,+5.00,+1.00,+4.00,+7.00,+0.00,+2.00,+0.00
+0.00,-3.00,-4.00,+1.00,-2.00,+0.00,+0.00,+2.00,-7.00,-4.00,-3.00,-2.00,+0.00,-2.00,+2.00,-3.00
+3.00,+3.00,-1.00,+3.00,+6.00,-2.00,+0.00,-4.00,+1.00,+1.00,-3.00,-3.00,-5.00,-1.00,-2.00,+0.00
-1.00,+2.00,-2.00,-1.00,-8.00,-1.00,+3.00,-7.00,+0.00,-5.00,-2.00,+1.00,-3.00,+0.00,-1.00,-3.00
+0.00,-10.00,+1.00,-3.00,-3.00,-1.00,-1.00,+0.00,-2.00,-3.00,+0.00,-1.00,+0.00,-2.00,-2.00,+0.00
-1.00,-1.00,+4.00,+1.00,+7.00,+1.00,-1.00,-4.00,+0.00,-2.00,-3.00,-3.00,-8.00,+0.00,+0.00,-2.00
+0.00,-4.00,-1.00,+0.00,-5.00,-4.00,-1.00,+0.00,-2.00,-5.00,-2.00,+4.00,-1.00,+1.00,-1.00,-2.00
-3.00,+4.00,-2.00,-1.00,+2.00,-4.00,+1.00,-2.00,-2.00,-1.00,-4.00,-1.00,-1.00,-2.00,-1.00,+2.00
+2.00,+3.00,+0.00,+3.00,+6.00,+1.00,+0.00,+0.00,-9.00,+3.00,-3.00,-1.00,+1.00,-1.00,-2.00,-5.00
+5.00,+6.00,-1.00,+0.00,-5.00,-1.00,-2.00,-2.00,+9.00,+0.00,+1.00,-2.00,+0.00,+1.00,-2.00,+0.00
-4.00,-4.00,-3.00,-2.00,+0.00,-1.00,-2.00,-1.00,-3.00,-4.00,-3.00,-7.00,-4.00,-3.00,+1.00,-1.00
+3.00,+6.00,+1.00,+1.00,+1.00,+1.00,-1.00,+0.00,+2.00,+2.00,+1.00,-2.00,+1.00,+2.00,+1.00,-1.00
-2.00,-16.00,-2.00,-2.00,+2.00,+1.00,-4.00,-2.00,+0.00,-3.00,-2.00,-2.00,+0.00,-2.00,-2.00,-3.00
+2.00,+21.00,+4.00,+1.00,-7.00,-3.00,-3.00,+0.00,-4.00,-2.00,-1.00,+3.00,-2.00,+0.00,+0.00,+1.00
+0.00,+11.00,+0.00,-2.00,-2.00,+0.00,+0.00,-1.00,+9.00,+7.00,+1.00,-3.00,-8.00,-2.00,-1.00,+1.00
-1.00,-1.00,+0.00,-2.00,+2.00,+0.00,-4.00,-1.00,-9.00,-3.00,+0.00,+1.00,+3.00,+1.00,+2.00,-3.00
-1.00,+0.00,+1.00,-2.00,-6.00,+0.00,-3.00,+0.00,-5.00,-4.00,-1.00,-6.00,-2.00,-2.00,-1.00,-4.00
-1.00,-15.00,-3.00,-2.00,-2.00,-1.00,+3.00,+6.00,-2.00,-3.00,+1.00,-5.00,-3.00,-2.00,-1.00,-3.00
-3.00,-6.00,+0.00,+0.00,+9.00,+2.00,+0.00,+0.00,+1.00,-4.00,-1.00,+4.00,+5.00,-1.00,-2.00,-3.00
-1.00,+4.00,+0.00,+0.00,-4.00,-3.00,-2.00,+0.00,+0.00,+3.00,-2.00,-3.00,+2.00,-1.00,-3.00,+1.00
+1.00,+0.00,-2.00,+0.00,+4.00,-1.00,-1.00,-3.00,-4.00,-5.00,-3.00,-1.00,-4.00,-5.00,-1.00,+1.00
-3.00,-1.00,-1.00,+1.00,-4.00,-5.00,+0.00,-2.00,+6.00,-1.00,-2.00,+0.00,+2.00,+1.00,-1.00,+2.00
-1.00,-9.00,-1.00,-1.00,+2.00,+1.00,+1.00,-3.00,-4.00,+0.00,+3.00,+0.00,-3.00,+2.00,+1.00,+1.00
-4.00,-9.00,-2.00,-5.00,-4.00,+0.00,-1.00,-2.00,+2.00,+2.00,+0.00,-3.00,-3.00,+1.00,-1.00,+0.00
+0.00,+3.00,-2.00,-4.00,+0.00,-1.00,-4.00,+0.00,-5.00,-4.00,+1.00,+0.00,+1.00,-3.00,-4.00,-3.00
-4.00,-6.00,-2.00,-2.00,+1.00,+2.00,+0.00,-3.00,+1.00,+3.00,-4.00,-4.00,+0.00,-2.00,-1.00,+0.00
-1.00,+2.00,-1.00,+0.00,-4.00,+0.00,+0.00,+1.00,-2.00,-3.00,-1.00,-1.00,+5.00,+0.00,-2.00,-1.00
-2.00,-2.00,+0.00,+1.00,+1.00,+0.00,-1.00,+3.00,+0.00,-4.00,+0.00,-2.00,+1.00,+2.00,-4.00,-4.00
+0.00,+9.00,+0.00,-1.00,+1.00,-3.00,+0.00,+1.00,+2.00,+1.00,+0.00,+0.00,-1.00,+3.00,-3.00,+3.00
-4.00,-7.00,-2.00,-1.00,-5.00,-1.00,+1.00,-2.00,-2.00,+2.00,+0.00,-1.00,-1.00,+1.00,+0.00,-4.00
+1.00,-7.00,-2.00,-2.00,+8.00,+3.00,+0.00,+0.00,-14.00,+0.00,-7.00,-2.00,-5.00,-5.00,+0.00,-2.00
-2.00,+2.00,-1.00,-1.00,-4.00,-3.00,-1.00,+4.00,+9.00,-1.00,-5.00,+3.00,+1.00,-5.00,+1.00,-3.00
-1.00,+3.00,-1.00,+0.00,+2.00,+5.00,+3.00,-6.00,-1.00,-1.00,-3.00,-3.00,-2.00,-4.00,+1.00,-1.00
+0.00,-2.00,+1.00,+0.00,+0.00,-2.00,-2.00,+2.00,-2.00,-3.00,+0.00,+0.00,+4.00,-3.00,-2.00,-1.00
-1.00,-1.00,+0.00,+0.00,-3.00,-1.00,-3.00,-2.00,-1.00,+0.00,+2.00,-1.00,-10.00,-3.00,-2.00,-1.00
+1.00,-10.00,-1.00,-1.00,+2.00,+0.00,-1.00,+0.00,-5.00,-2.00,+2.00,-3.00,-2.00,-1.00,-1.00,-2.00
-1.00,+4.00,-2.00,+1.00,-5.00,-7.00,-4.00,+0.00,+8.00,+3.00,-2.00,-1.00,-2.00,+0.00,-2.00,-1.00
-6.00,-7.00,-1.00,-1.00,+1.00,-2.00,-2.00,+1.00,-11.00,-6.00,-5.00,-2.00,-3.00,-1.00,+0.00,-2.00
+2.00,+18.00,+0.00,+0.00,-4.00,-1.00,-2.00,+0.00,-9.00,-3.00,-3.00,-2.00,+1.00,+0.00,+0.00,-5.00
-2.00,-14.00,-1.00,+0.00,+1.00,+0.00,-3.00,-4.00,-4.00,-1.00,-3.00,+2.00,+0.00,-4.00,-3.00,-3.00
+1.00,+11.00,+0.00,+0.00,-3.00,+0.00,-1.00,-6.00,+11.00,+4.00,+2.00,-2.00,+1.00,-1.00,+1.00,+2.00
+0.00,-1.00,-2.00,-1.00,-1.00,+0.00,-4.00,-6.00,+2.00,+2.00,+0.00,-3.00,-2.00,+0.00,-3.00,-1.00
-3.00,-1.00,-2.00,+0.00,-16.00,-7.00,-2.00,-3.00,-5.00,-4.00,-1.00,+0.00,+1.00,-1.00,-3.00,-3.00
-5.00,+1.00,-4.00,+0.00,+4.00,+9.00,+1.00,-2.00,-6.00,+0.00,-1.00,-4.00,-3.00,+0.00,-2.00,-2.00
+1.00,-7.00,+2.00,+2.00,+9.00,+5.00,+1.00,+0.00,-1.00,-1.00,+0.00,+10.00,+11.00,+5.00,+0.00,+1.00
-4.00,-5.00,+0.00,+0.00,+4.00,+0.00,+2.00,+1.00,+1.00,-2.00,-5.00,-7.00,-15.00,+0.00,-2.00,+0.00
+1.00,+4.00,+0.00,-3.00,+3.00,-4.00,-2.00,+0.00,-2.00,-2.00,+1.00,-3.00,-12.00,+1.00,+2.00,+1.00
+0.00,+8.00,-2.00,-3.00,-10.00,-6.00,-4.00,+0.00,+2.00,-1.00,+1.00,-2.00,+20.00,+1.00,-2.00,+1.00
-3.00,-6.00,-1.00,-1.00,-10.00,-4.00,-2.00,-1.00,+0.00,+1.00,-3.00,-5.00,-3.00,+0.00,-1.00,+3.00
+1.00,+0.00,-2.00,-2.00,+5.00,+2.00,+1.00,-1.00,-1.00,+1.00,+1.00,+8.00,+16.00,+1.00,+0.00,+2.00
-7.00,-11.00,-3.00,-3.00,-2.00,+2.00,+3.00,+4.00,-2.00,-2.00,-2.00,-5.00,-15.00,-3.00,-5.00,-3.00
-2.00,+4.00,-3.00,+1.00,-4.00,-5.00,+2.00,+0.00,-5.00,+3.00,-1.00,-7.00,-12.00,-4.00,-2.00,-2.00
-1.00,-1.00,-3.00,-2.00,+1.00,+3.00,+2.00,+0.00,+3.00,-1.00,+0.00,+0.00,-5.00,-6.00,+1.00,+1.00
-1.00,-3.00,-1.00,-2.00,-11.00,-1.00,+0.00,-2.00,-6.00,-4.00,+2.00,-1.00,+5.00,-6.00,-2.00,-2.00
-2.00,-14.00,-1.00,+0.00,+0.00,-3.00,+2.00,-2.00,+0.00,-1.00,+1.00,+3.00,+5.00,-5.00,+0.00,-1.00
+3.00,+21.00,+2.00,-1.00,+6.00,-1.00,-1.00,+0.00,+1.00,-1.00,-2.00,+2.00,-2.00,-1.00,+1.00,-1.00
+0.00,-2.00,+1.00,-1.00,+0.00,-1.00,-3.00,+4.00,-8.00,-4.00,-3.00,-1.00,-2.00,+0.00,-1.00,-4.00
+3.00,+3.00,+3.00,+0.00,-2.00,-2.00,-3.00,+3.00,-7.00,-7.00,-1.00,+0.00,-6.00,+0.00,-2.00,-3.00
-4.00,+10.00,-1.00,-1.00,-6.00,-4.00,-4.00,-3.00,+2.00,-2.00,-2.00,-1.00,+8.00,+2.00,-1.00,+1.00
+0.00,-16.00,-1.00,-1.00,+7.00,+5.00,+0.00,-1.00,-6.00,-3.00,-3.00,+1.00,-2.00,+2.00,+0.00,-2.00
-7.00,-6.00,-1.00,-2.00,-2.00,-2.00,+0.00,+0.00,+10.00,+7.00,-1.00,-3.00,+2.00,+1.00,-1.00,+0.00
+0.00,+3.00,-5.00,-6.00,+0.00,+0.00,-1.00,-3.00,+1.00,+0.00,-2.00,-5.00,-9.00,-2.00,+1.00,-3.00
+0.00,-2.00,+1.00,+0.00,+4.00,+2.00,-2.00,+1.00,+0.00,-1.00,+0.00,+0.00,+5.00,-2.00,-2.00,-2.00
-2.00,-3.00,-3.00,+0.00,-7.00,+0.00,+0.00,-1.00,-2.00,-5.00,+2.00,-2.00,-1.00,-1.00,-3.00,-3.00
+1.00,+3.00,+0.00,+0.00,-2.00,-3.00,+0.00,-2.00,-7.00,-3.00,-3.00,+0.00,-3.00,-2.00,+0.00,-2.00
-3.00,-7.00,-1.00,+1.00,+3.00,-2.00,+1.00,-2.00,-3.00,+0.00,-2.00,+0.00,+3.00,-2.00,-3.00,-1.00
+0.00,+4.00,-3.00,+0.00,+2.00,-5.00,-1.00,-5.00,+0.00,-4.00,-3.00,-6.00,+1.00,+2.00,+2.00,+0.00
+1.00,+1.00,+2.00,-2.00,-11.00,-2.00,-1.00,-3.00,+1.00,-2.00,-2.00,+1.00,-1.00,+0.00,-2.00,+1.00
+0.00,-5.00,-1.00,+0.00,+20.00,+2.00,-1.00,-3.00,-7.00,-2.00,-1.00,-4.00,-4.00,+0.00,-4.00,-5.00
-6.00,-4.00,+1.00,-1.00,-3.00,+0.00,-4.00,-1.00,+2.00,+3.00,+1.00,+4.00,+2.00,+0.00,+0.00,+0.00
+3.00,-2.00,+1.00,+0.00,-3.00,+5.00,-1.00,-2.00,+1.00,+3.00,-1.00,-10.00,-5.00,-2.00,+1.00,-2.00
-5.00,-4.00,-4.00,+1.00,+8.00,+1.00,-1.00,+1.00,-4.00,-2.00,-2.00,-3.00,+0.00,-1.00,-4.00,-3.00
-2.00,+1.00,-1.00,-2.00,-7.00,-2.00,-1.00,+1.00,-6.00,+1.00,+3.00,+0.00,-11.00,-1.00,-1.00,+1.00
-4.00,-4.00,-4.00,-1.00,-1.00,-1.00,-2.00,-2.00,+3.00,+0.00,-1.00,+1.00,+22.00,-1.00,-3.00,-2.00
-2.00,-6.00,+0.00,-2.00,-2.00,-3.00,-3.00,-1.00,+2.00,-1.00,-2.00,-2.00,+1.00,-3.00,-3.00,-1.00
+2.00,+3.00,+3.00,+0.00,+0.00,-3.00,+0.00,-4.00,+5.00,-1.00,-1.00,+0.00,-1.00,+0.00,-2.00,+1.00
-5.00,-1.00,-3.00,-3.00,-10.00,-5.00,+1.00,+8.00,-7.00,-3.00,-1.00,-1.00,+1.00,-1.00,-1.00,-6.00
+0.00,-1.00,+0.00,-1.00,+4.00,+1.00,+0.00,+2.00,-3.00,+1.00,+1.00,-2.00,-10.00,+0.00,-1.00,-2.00
-2.00,-13.00,-4.00,-3.00,-1.00,+2.00,-1.00,-1.00,-1.00,-2.00,+0.00,+6.00,+4.00,+1.00,-1.00,+2.00
+3.00,+42.00,+0.00,-1.00,+1.00,+0.00,-2.00,+0.00,+0.00,+2.00,-2.00,-4.00,-9.00,-4.00,+0.00,+2.00
-7.00,-19.00,-3.00,+1.00,+1.00,-2.00,-1.00,-8.00,+0.00,-5.00,-4.00,-3.00,-5.00,-3.00,-1.00,-1.00
-2.00,+3.00,-3.00,-1.00,-6.00,-6.00,-1.00,-4.00,-5.00,-2.00,+0.00,-3.00,-6.00,-1.00,-4.00,+0.00
-2.00,-8.00,-2.00,-1.00,+2.00,+3.00,+2.00,+1.00,+2.00,-3.00,-2.00,+2.00,+6.00,-1.00,-3.00,-3.00
+2.00,-11.00,+1.00,+0.00,+0.00,+0.00,+2.00,+1.00,-6.00,-1.00,-2.00,+0.00,-1.00,-1.00,+1.00,-1.00
+2.00,+7.00,+0.00,-1.00,-2.00,-1.00,+1.00,+1.00,+5.00,-1.00,-1.00,-2.00,-1.00,-2.00,+1.00,+2.00
+4.00,+5.00,+2.00,-1.00,-3.00,-2.00,-1.00,+2.00,+4.00,+5.00,+0.00,-2.00,-2.00,+2.00,+2.00,+2.00
-3.00,+0.00,+0.00,+0.00,+0.00,-2.00,-3.00,-3.00,-8.00,+0.00,-1.00,+8.00,+3.00,+2.00,+1.00,-2.00
-3.00,-7.00,-5.00,-3.00,-1.00,-1.00,-4.00,-1.00,+14.00,+3.00,+1.00,-4.00,-9.00,-1.00,-1.00,+3.00
-3.00,-3.00,-3.00,+0.00,-4.00,+3.00,-2.00,-4.00,-6.00,-3.00,-1.00,+2.00,+3.00,+0.00,-4.00,-3.00
+0.00,-6.00,+2.00,-1.00,-1.00,+0.00,+0.00,+0.00,+1.00,-8.00,-5.00,-4.00,+0.00,-4.00,-3.00,-1.00
-1.00,+5.00,+0.00,+1.00,+1.00,+2.00,+0.00,-3.00,+3.00,-3.00,-1.00,-1.00,-5.00,-4.00,-1.00,+0.00
-2.00,-10.00,+0.00,+0.00,-4.00,-7.00,-1.00,-4.00,-1.00,-2.00,-3.00,+2.00,+2.00,-1.00,-3.00,-3.00
+2.00,-1.00,-1.00,-3.00,-2.00,+0.00,-1.00,-1.00,+0.00,-3.00,-1.00,+0.00,+1.00,+1.00,-1.00,-1.00
+3.00,+1.00,+2.00,+1.00,+4.00,-4.00,-1.00,-1.00,-1.00,+0.00,+2.00,-5.00,-3.00,-1.00,-1.00,-2.00
+0.00,+1.00,+0.00,-1.00,+3.00,+0.00,-1.00,+3.00,-1.00,-1.00,-1.00,+2.00,-1.00,+0.00,+0.00,-2.00
+0.00,-3.00,-4.00,-3.00,-4.00,+1.00,-2.00,+2.00,-9.00,-1.00,+3.00,-1.00,-2.00,-1.00,+1.00,-1.00
-1.00,+2.00,-2.00,+0.00,-1.00,-1.00,+1.00,-3.00,+6.00,+1.00,-1.00,+1.00,-3.00,-1.00,+0.00,+0.00
+1.00,+1.00,+1.00,+2.00,-1.00,-2.00,+2.00,-2.00,-3.00,-2.00,-4.00,+1.00,-3.00,-3.00,+0.00,-3.00
-1.00,-2.00,+0.00,-3.00,-5.00,-2.00,+2.00,+0.00,+0.00,-1.00,+2.00,-4.00,+0.00,-4.00,+0.00,+0.00
-6.00,-8.00,+1.00,+0.00,+7.00,-1.00,-1.00,+3.00,-4.00,-1.00,+0.00,+0.00,+0.00,-3.00,+1.00,-1.00
+8.00,+20.00,+1.00,+0.00,-3.00,+3.00,-3.00,+0.00,-6.00,+0.00,+2.00,-2.00,+0.00,-4.00,-1.00,-1.00
-3.00,-25.00,-4.00,-2.00,+0.00,+2.00,-3.00,+0.00,-1.00,+3.00,-1.00,-2.00,-4.00,+1.00,-1.00,-2.00
+5.00,+23.00,+0.00,-2.00,-3.00,-4.00,+0.00,+1.00,-3.00,+2.00,+1.00,+0.00,+0.00,+1.00,-1.00,-3.00
-2.00,-5.00,-2.00,+0.00,-2.00,+0.00,-2.00,-6.00,-1.00,-6.00,-2.00,-3.00,+0.00,+0.00,-3.00,-1.00
-1.00,-6.00,-3.00,-2.00,-2.00,-3.00,-2.00,+1.00,-4.00,-6.00,-3.00,+1.00,+3.00,+2.00,+1.00,+0.00
+0.00,+10.00,+2.00,+0.00,-1.00,-2.00,-1.00,-1.00,+3.00,-2.00,-2.00,-5.00,-3.00,+0.00,-3.00,-5.00
-3.00,-19.00,+1.00,+1.00,+3.00,+1.00,-3.00,-2.00,+0.00,+1.00,-4.00,-2.00,-3.00,+1.00,-2.00,+2.00
+5.00,+12.00,+2.00,-2.00,-6.00,-3.00,-1.00,+1.00,+6.00,+1.00,-1.00,+3.00,+2.00,+4.00,+2.00,+1.00
-4.00,-1.00,+3.00,+1.00,-9.00,+0.00,-2.00,-5.00,-3.00,-3.00,-5.00,+2.00,+0.00,-2.00,-3.00,-10.00
-1.00,+1.00,-3.00,-1.00,+10.00,+4.00,+3.00,-2.00,-7.00,-3.00,-1.00,-3.00,+2.00,+0.00,+0.00,+1.00
-3.00,-3.00,-3.00,-3.00,-1.00,+1.00,+0.00,-1.00,+7.00,+3.00,+2.00,+6.00,+7.00,-1.00,-3.00,-1.00
+1.00,-3.00,+0.00,+0.00,+3.00,-2.00,+1.00,-1.00,-1.00,+1.00,+0.00,-11.00,-11.00,-3.00,-3.00,-2.00
-7.00,-8.00,+0.00,-1.00,+0.00,-3.00,+0.00,+2.00,-2.00,+0.00,+1.00,-3.00,-2.00,-2.00,-3.00,+0.00
+2.00,+8.00,+1.00,-3.00,-4.00,-5.00,+1.00,+2.00,-2.00,+1.00,-1.00,+1.00,+2.00,+0.00,-3.00,-4.00
+0.00,+1.00,+2.00,+0.00,-1.00,-1.00,-2.00,+1.00,-2.00,-4.00,-11.00,-3.00,-5.00,-1.00,-1.00,-3.00
+0.00,-2.00,-2.00,-1.00,-2.00,-5.00,-1.00,-1.00,-1.00,-1.00,+0.00,+2.00,+5.00,+2.00,-1.00,-1.00
-1.00,-9.00,+1.00,+1.00,+0.00,-5.00,-2.00,+0.00,-7.00,-6.00,+0.00,+0.00,+1.00,+2.00,-1.00,-2.00
+0.00,-2.00,-2.00,-2.00,-4.00,+3.00,+0.00,+2.00,+3.00,-3.00,+0.00,+1.00,+2.00,-1.00,-2.00,-1.00
-2.00,-5.00,-2.00,-1.00,+1.00,-2.00,-2.00,-3.00,-2.00,-3.00,+1.00,-2.00,-4.00,-3.00,-2.00,-2.00
+1.00,+0.00,-2.00,+1.00,+4.00,+3.00,+2.00,-1.00,-3.00,-1.00,+1.00,+3.00,+1.00,-1.00,+1.00,+0.00
+3.00,+5.00,+0.00,+0.00,+1.00,-2.00,-2.00,+1.00,+1.00,+0.00,-2.00,-4.00,-8.00,-4.00,+1.00,-1.00
-5.00,-2.00,-3.00,-3.00,-3.00,+0.00,-3.00,-3.00,-5.00,-2.00,+2.00,+3.00,-16.00,-1.00,+1.00,+0.00
+3.00,+1.00,+0.00,+1.00,-5.00,-2.00,-2.00,+0.00,-2.00,-1.00,-3.00,-8.00,+12.00,+1.00,-1.00,+0.00
-4.00,-3.00,-1.00,-4.00,-1.00,+1.00,+0.00,+2.00,-2.00,-3.00,-3.00,-2.00,+1.00,-3.00,-1.00,+0.00
-2.00,-1.00,-1.00,-2.00,+0.00,-1.00,+2.00,-5.00,-2.00,+0.00,-2.00,+0.00,+3.00,-4.00,-2.00,-1.00
-7.00,-11.00,-3.00,+1.00,+1.00,+2.00,+1.00,-1.00,+3.00,+0.00,-2.00,+3.00,-4.00,-3.00,-1.00,-1.00
+4.00,+29.00,+0.00,-3.00,-5.00,-2.00,+1.00,-2.00,+3.00,+3.00,-1.00,-2.00,-2.00,-1.00,-1.00,+1.00
-3.00,-5.00,-1.00,-1.00,-1.00,-3.00,-4.00,-2.00,+1.00,+0.00,+1.00,+0.00,-1.00,-2.00,-1.00,-1.00
-1.00,-4.00,-4.00,-2.00,+0.00,-2.00,-1.00,-2.00,-1.00,-5.00,+2.00,-3.00,+3.00,+1.00,-1.00,+3.00
-1.00,-1.00,-1.00,-2.00,-3.00,-3.00,-3.00,+1.00,-2.00,-6.00,-3.00,+0.00,-1.00,+1.00,-2.00,-3.00
-3.00,-9.00,-2.00,+2.00,+3.00,-1.00,+0.00,-1.00,-4.00,-4.00,+0.00,+0.00,-5.00,+3.00,-2.00,-2.00
-2.00,+1.00,-3.00,+1.00,-2.00,+1.00,-2.00,-1.00,+3.00,+3.00,+0.00,+0.00,+5.00,+0.00,+1.00,+2.00
-1.00,+4.00,+0.00,+1.00,+3.00,+0.00,-4.00,+1.00,+1.00,-1.00,-2.00,+0.00,-4.00,-1.00,-3.00,+1.00
+0.00,+2.00,+0.00,+0.00,-1.00,+0.00,-3.00,+0.00,+1.00,+2.00,+1.00,+1.00,+6.00,+0.00,+2.00,+0.00
-3.00,-10.00,-1.00,+0.00,+1.00,-1.00,-1.00,-2.00,-3.00,+3.00,-2.00,+0.00,+2.00,+1.00,+0.00,-2.00
-2.00,-2.00,+1.00,+2.00,+2.00,-1.00,-1.00,-5.00,-4.00,-1.00,-3.00,+1.00,-4.00,-2.00,-1.00,-2.00
+2.00,+0.00,-1.00,-3.00,-3.00,+2.00,+0.00,-3.00,+0.00,-1.00,+1.00,-1.00,+1.00,-1.00,+0.00,-1.00
-4.00,+10.00,+0.00,+2.00,+2.00,+4.00,-1.00,-3.00,-3.00,-3.00,-2.00,-4.00,+1.00,-1.00,-4.00,+1.00
+1.00,-14.00,-1.00,+0.00,-2.00,-3.00,+0.00,+3.00,-8.00,+0.00,-3.00,-1.00,-5.00,-4.00,-3.00,-4.00
-3.00,+1.00,-1.00,-3.00,-1.00,-2.00,+1.00,-2.00,+3.00,+4.00,+3.00,+1.00,+0.00,-4.00,+0.00,+0.00
+1.00,-1.00,-2.00,+0.00,+1.00,+1.00,+1.00,-2.00,+0.00,-3.00,+0.00,+0.00,+0.00,-1.00,+1.00,+0.00
+0.00,+0.00,+1.00,-2.00,-3.00,-2.00,+0.00,+0.00,-2.00,-2.00,-1.00,-1.00,-2.00,-4.00,+2.00,+0.00
-3.00,+1.00,-2.00,-2.00,-9.00,-2.00,-1.00,-4.00,-7.00,-2.00,-1.00,+0.00,-7.00,-1.00,-1.00,-2.00
+2.00,-1.00,-4.00,-1.00,+0.00,-4.00,-1.00,-1.00,+6.00,-5.00,-3.00,+0.00,+2.00,+1.00,-3.00,-2.00
-5.00,-6.00,+1.00,+0.00,-3.00,-3.00,-2.00,+2.00,+0.00,-2.00,+0.00,+5.00,+5.00,+3.00,-1.00,-2.00
+4.00,-4.00,+2.00,+1.00,+24.00,+1.00,+0.00,+3.00,+4.00,+3.00,+3.00,-1.00,-5.00,-1.00,+0.00,+0.00
+0.00,+14.00,+2.00,-1.00,+1.00,-1.00,-1.00,+7.00,-2.00,+1.00,+2.00,+0.00,+6.00,-2.00,-2.00,-2.00
-2.00,-16.00,-2.00,-4.00,-18.00,+0.00,+0.00,-1.00,-9.00,+0.00,-3.00,-4.00,-4.00,-2.00,-3.00,-2.00
+2.00,-2.00,+1.00,-2.00,-2.00,-2.00,+1.00,-1.00,-5.00,+1.00,-1.00,-2.00,-4.00,-2.00,-1.00,+1.00
+0.00,-6.00,-1.00,+1.00,-7.00,-3.00,-1.00,-4.00,-3.00,-5.00,-5.00,+4.00,+3.00,-1.00,-1.00,-5.00
-1.00,-3.00,-1.00,-4.00,+0.00,-1.00,-5.00,-5.00,+10.00,-2.00,-2.00,-2.00,+1.00,-1.00,-1.00,+3.00
+3.00,+7.00,+3.00,+0.00,+2.00,-2.00,-3.00,+1.00,+1.00,-4.00,+1.00,-2.00,-1.00,+0.00,-1.00,+0.00
+0.00,+0.00,-4.00,+1.00,+2.00,+7.00,-2.00,+1.00,-5.00,-1.00,-3.00,-4.00,+3.00,+0.00,-3.00,-5.00
-1.00,+8.00,+0.00,-1.00,-8.00,-4.00,-1.00,-2.00,-4.00,+3.00,-3.00,+1.00,+5.00,-1.00,-4.00,-2.00
-5.00,-15.00,-1.00,+0.00,+7.00,-2.00,+4.00,-4.00,+0.00,-3.00,-1.00,-7.00,-17.00,-4.00,-4.00,-2.00
-2.00,-5.00,-2.00,+0.00,-5.00,+2.00,+0.00,-4.00,-3.00,-7.00,-2.00,-1.00,-1.00,+2.00,-3.00,-1.00
+0.00,+1.00,-1.00,+1.00,+1.00,-3.00,+0.00,-4.00,+1.00,+5.00,+0.00,-1.00,-7.00,-3.00,+1.00,+2.00
+1.00,+0.00,+0.00,+0.00,+0.00,+1.00,-1.00,-1.00,-5.00,-3.00,-2.00,-1.00,+0.00,-2.00,+2.00,-1.00
-2.00,+3.00,-2.00,+0.00,+0.00,-1.00,-3.00,+1.00,+0.00,-1.00,-2.00,+2.00,-1.00,+0.00,+3.00,-1.00
-2.00,-1.00,-1.00,-2.00,+5.00,-1.00,+0.00,+3.00,-1.00,-1.00,-1.00,-2.00,+0.00,+1.00,+1.00,-2.00
+1.00,-1.00,+2.00,+0.00,+1.00,-5.00,-1.00,-1.00,-10.00,-1.00,+1.00,+0.00,+0.00,+1.00,-1.00,-3.00
-3.00,-2.00,-1.00,-3.00,-7.00,-6.00,-2.00,-3.00,+14.00,+3.00,+2.00,-2.00,-3.00,+1.00,-1.00,+2.00
+0.00,+4.00,-1.00,+0.00,-7.00,-6.00,-1.00,-2.00,-2.00,+0.00,+0.00,-2.00,+3.00,+0.00,-1.00,-3.00
+1.00,+1.00,+0.00,-1.00,+9.00,+8.00,+1.00,-1.00,-4.00,-3.00,-3.00,+1.00,-2.00,-2.00,-3.00,-5.00
+0.00,+4.00,-2.00,-4.00,-4.00,+0.00,+1.00,-1.00,+1.00,-1.00,-3.00,+0.00,+5.00,-3.00,-1.00,+2.00
-2.00,-1.00,-3.00,+0.00,+4.00,+1.00,-2.00,-8.00,-6.00,-1.00,-1.00,-6.00,-13.00,-2.00,-1.00,-1.00
+3.00,-3.00,+0.00,+0.00,-2.00,+0.00,-3.00,-5.00,-2.00,-2.00,-1.00,-3.00,-3.00,-1.00,+2.00,-1.00
-4.00,-5.00,-2.00,-2.00,-1.00,-2.00,-2.00,-1.00,-3.00,+1.00,-1.00,+2.00,+3.00,-2.00,+3.00,-1.00
-3.00,+0.00,+0.00,+0.00,-2.00,+0.00,+0.00,+1.00,+1.00,-1.00,-2.00,+0.00,+0.00,+1.00,+0.00,+1.00
-1.00,-9.00,-1.00,-3.00,-5.00,-1.00,+1.00,-1.00,+1.00,-3.00,-2.00,-3.00,+6.00,+3.00,-1.00,-2.00
-2.00,+18.00,+2.00,+1.00,+3.00,+0.00,+0.00,-2.00,-5.00,-3.00,+1.00,+0.00,+0.00,-1.00,-3.00,+2.00
-2.00,+3.00,-3.00,+0.00,+1.00,-2.00,+0.00,-3.00,-2.00,+1.00,-1.00,-2.00,-5.00,+0.00,-4.00,-1.00
+1.00,-5.00,-1.00,+0.00,+1.00,-2.00,-2.00,-5.00,+0.00,+0.00,-2.00,-3.00,-3.00,+2.00,-2.00,+0.00
-1.00,+10.00,-4.00,+0.00,-5.00,-4.00,-1.00,+0.00,-2.00,-1.00,+2.00,-3.00,-5.00,-1.00,-2.00,-2.00
-5.00,-12.00,+0.00,+0.00,+3.00,+3.00,+0.00,-2.00,-1.00,-1.00,+2.00,+2.00,+3.00,+0.00,+1.00,-2.00
+1.00,-2.00,+0.00,+0.00,-5.00,-5.00,-2.00,+2.00,-2.00,-1.00,+1.00,+2.00,+2.00,-3.00,+0.00,-1.00
+2.00,+2.00,-1.00,-1.00,-3.00,-4.00,+1.00,+1.00,-1.00,-7.00,-1.00,-1.00,-6.00,-4.00,-3.00,-5.00
-1.00,-7.00,+0.00,-1.00,-1.00,+1.00,+2.00,+2.00,-3.00,-1.00,-3.00,-1.00,+4.00,-2.00,+0.00,+0.00
-3.00,-5.00,-5.00,-2.00,-3.00,+2.00,+0.00,-2.00,-5.00,-1.00,+1.00,-1.00,+0.00,-1.00,-2.00,-3.00
-3.00,-3.00,-1.00,+0.00,-2.00,+0.00,+0.00,-3.00,+13.00,+2.00,-1.00,-3.00,-1.00,-1.00,+1.00,+2.00
-1.00,+0.00,-1.00,-1.00,+2.00,+0.00,-3.00,-2.00,+1.00,+2.00,+1.00,+3.00,-2.00,+1.00,-2.00,-5.00
-1.00,+3.00,+0.00,-3.00,-1.00,+3.00,-2.00,+0.00,-2.00,+0.00,+1.00,+0.00,+0.00,-1.00,-1.00,+4.00
+7.00,+0.00,-3.00,-4.00,-1.00,-1.00,-2.00,+0.00,-5.00,-1.00,+0.00,+1.00,+1.00,-2.00,-1.00,-2.00
-2.00,-4.00,+1.00,+1.00,+1.00,-2.00,+0.00,-1.00,-3.00,-3.00,-4.00,-1.00,-6.00,-3.00,-1.00,-2.00
-2.00,+0.00,+1.00,+2.00,-2.00,-3.00,+1.00,+2.00,+1.00,+2.00,-1.00,-2.00,+0.00,+1.00,+2.00,+1.00
-1.00,+1.00,+1.00,+0.00,-5.00,-5.00,+0.00,+2.00,-2.00,-3.00,-2.00,-1.00,-3.00,+2.00,-1.00,-5.00
-3.00,-2.00,+0.00,+1.00,-3.00,-1.00,+1.00,+0.00,-3.00,-1.00,-3.00,+0.00,-2.00,+0.00,+0.00,-2.00
+0.00,-2.00,+2.00,+0.00,-1.00,-1.00,-4.00,-3.00,-3.00,+3.00,-1.00,-2.00,-4.00,-2.00,-1.00,+1.00
-2.00,+0.00,-1.00,-3.00,-2.00,+0.00,-2.00,-2.00,+3.00,+1.00,-1.00,-1.00,+2.00,-1.00,-1.00,-2.00
+2.00,+0.00,+1.00,+0.00,+1.00,+2.00,-2.00,-10.00,-5.00,-3.00,-2.00,-2.00,+0.00,-5.00,-1.00,-3.00
+0.00,-7.00,-1.00,-2.00,+0.00,+1.00,-2.00,+2.00,+3.00,+0.00,+0.00,-2.00,-1.00,+0.00,+1.00,+3.00
+0.00,+1.00,-2.00,-1.00,-2.00,-2.00,-1.00,+1.00,-5.00,-4.00,-3.00,-4.00,-8.00,+0.00,+0.00,-3.00
-1.00,-8.00,-2.00,+1.00,-3.00,+0.00,-1.00,+1.00,+1.00,-1.00,-2.00,+1.00,-2.00,+0.00,+0.00,+1.00
-1.00,+15.00,+0.00,-2.00,+1.00,-1.00,-1.00,+2.00,-3.00,+0.00,-2.00,+0.00,-4.00,-2.00,-1.00,-6.00
+3.00,-4.00,+1.00,+2.00,+11.00,+3.00,+3.00,+6.00,-4.00,+3.00,+0.00,+0.00,+0.00,+0.00,-2.00,+4.00
+0.00,+0.00,+1.00,-2.00,+1.00,+0.00,+1.00,+0.00,-6.00,-5.00,-1.00,-3.00,+9.00,-1.00,-4.00,-6.00
+0.00,+3.00,-3.00,-1.00,-2.00,-2.00,-2.00,-4.00,+2.00,+2.00,+1.00,-2.00,-8.00,-3.00,-3.00,+0.00
-6.00,-18.00,-5.00,-2.00,-5.00,-3.00,-2.00,-2.00,+1.00,+0.00,+0.00,+1.00,+0.00,+0.00,-2.00,+0.00
+1.00,+12.00,+0.00,-1.00,-4.00,-4.00,+0.00,-3.00,-5.00,-2.00,-2.00,+0.00,-4.00,-1.00,-3.00,-5.00
-2.00,+0.00,-1.00,+0.00,-3.00,-2.00,+2.00,-1.00,+12.00,+1.00,-3.00,+0.00,-2.00,+1.00,-3.00,-2.00
-1.00,-2.00,+0.00,-2.00,+0.00,-1.00,+1.00,+1.00,-7.00,-9.00,-3.00,-5.00,-1.00,-2.00,+0.00,-3.00
+2.00,+0.00,+0.00,+1.00,-2.00,-1.00,+0.00,-2.00,-2.00,-3.00,+1.00,-1.00,-2.00,-1.00,+0.00,+0.00
-3.00,-3.00,-3.00,-3.00,-2.00,+0.00,-1.00,+1.00,+0.00,-2.00,+1.00,+2.00,-1.00,-5.00,+1.00,-2.00
-1.00,-3.00,+0.00,-1.00,+0.00,+1.00,+0.00,-3.00,-5.00,+3.00,+2.00,+1.00,+1.00,+1.00,+1.00,+2.00
+0.00,+5.00,-3.00,-3.00,-4.00,-5.00,-3.00,-2.00,-1.00,+2.00,-1.00,-1.00,+0.00,-2.00,-3.00,-1.00
-4.00,-6.00,+2.00,+3.00,+6.00,+5.00,-1.00,+1.00,+0.00,+2.00,+0.00,+0.00,-2.00,-3.00,+0.00,+1.00
+4.00,+5.00,+3.00,-1.00,-5.00,-4.00,-4.00,+0.00,-3.00,-3.00,-3.00,+2.00,+7.00,+2.00,-4.00,-2.00
-2.00,+3.00,-1.00,+0.00,+0.00,+3.00,-2.00,-4.00,-4.00,-8.00,-1.00,-9.00,-11.00,-3.00,-1.00,-2.00
-1.00,-1.00,+1.00,+0.00,+2.00,-1.00,+0.00,-8.00,+6.00,+1.00,+0.00,+1.00,+3.00,+1.00,+0.00,+1.00
+0.00,+1.00,+0.00,-1.00,-2.00,-6.00,+3.00,+4.00,-1.00,-2.00,-4.00,-3.00,-11.00,-3.00,+0.00,+3.00
-5.00,-6.00,-1.00,-1.00,-1.00,-3.00,-1.00,-1.00,+3.00,-2.00,-2.00,-3.00,+2.00,-1.00,-3.00,-2.00
-1.00,-8.00,-1.00,-1.00,-1.00,+2.00,+0.00,+4.00,-1.00,+3.00,-1.00,+2.00,+2.00,-2.00,-3.00,-2.00
-2.00,+1.00,-1.00,+0.00,+1.00,+2.00,-1.00,+2.00,-3.00,-1.00,-2.00,-2.00,+3.00,+1.00,-3.00,-1.00
-1.00,-6.00,-3.00,-2.00,-4.00,+2.00,-1.00,+2.00,-5.00,-5.00,+0.00,-2.00,+2.00,+1.00,-1.00,-1.00
+0.00,+1.00,-2.00,+0.00,-4.00,-1.00,-2.00,-2.00,+2.00,-1.00,-1.00,-3.00,-2.00,-3.00,+0.00,+0.00
+0.00,+2.00,-1.00,-3.00,-2.00,-5.00,-2.00,-3.00,-1.00,+0.00,-1.00,+1.00,+0.00,-1.00,+1.00,+1.00
-3.00,-6.00,-4.00,-3.00,+0.00,+0.00,-1.00,+0.00,+0.00,+1.00,+0.00,-3.00,-4.00,-3.00,-1.00,-4.00
+4.00,+0.00,-2.00,-1.00,-2.00,-5.00,-2.00,-2.00,+0.00,+1.00,-1.00,+0.00,+2.00,+0.00,-1.00,+0.00
-1.00,+21.00,+2.00,+0.00,+0.00,+1.00,+2.00,+1.00,-12.00,-7.00,-3.00,-4.00,-6.00,-2.00,-1.00,-10.00
-5.00,-3.00,-1.00,+1.00,-1.00,-1.00,+1.00,-2.00,+18.00,+4.00,+5.00,+5.00,+4.00,+0.00,+2.00,+7.00
+4.00,-1.00,+1.00,-5.00,-2.00,+1.00,-1.00,+0.00,-7.00,-5.00,-1.00,-5.00,-5.00,+0.00,+0.00,+1.00
-2.00,-4.00,-2.00,-3.00,+0.00,-1.00,-2.00,-2.00,+4.00,+4.00,+0.00,+0.00,-3.00,+1.00,-1.00,-1.00
-1.00,-6.00,-3.00,-4.00,-1.00,-3.00,-2.00,-3.00,+2.00,+2.00,-1.00,-1.00,-3.00,+2.00,+0.00,-1.00
-3.00,-1.00,-3.00,-1.00,-1.00,+0.00,-2.00,-2.00,-6.00,-3.00,-4.00,-2.00,-2.00,-1.00,+1.00,-3.00
+0.00,+3.00,-2.00,-3.00,+3.00,+0.00,+0.00,-3.00,-1.00,-4.00,-1.00,+0.00,+3.00,-2.00,+0.00,-1.00
-4.00,-11.00,-1.00,-2.00,-6.00,-2.00,-2.00,-1.00,-2.00,-3.00,+0.00,+0.00,+1.00,-3.00,-2.00,-2.00
-9.00,-12.00,-4.00,-2.00,+0.00,-1.00,-2.00,+0.00,-1.00,+1.00,-3.00,-4.00,-4.00,-3.00,-2.00,+2.00
+6.00,-14.00,-1.00,+2.00,+0.00,-2.00,-2.00,+3.00,-9.00,-2.00,-3.00,+2.00,-1.00,+1.00,-5.00,-4.00
+1.00,+23.00,+0.00,+1.00,-3.00,-2.00,-2.00,+2.00,+7.00,+1.00,-1.00,+3.00,+3.00,+2.00,-1.00,+1.00
-6.00,-2.00,-1.00,-2.00,-2.00,+1.00,+2.00,+5.00,+1.00,-2.00,+0.00,-5.00,+3.00,+1.00,+0.00,+0.00
+4.00,+4.00,-2.00,-3.00,-2.00,-2.00,+2.00,-3.00,+4.00,+0.00,+0.00,+1.00,-1.00,+1.00,-3.00,-2.00
-2.00,-2.00,-1.00,-6.00,-2.00,+0.00,+0.00,-3.00,-6.00,-5.00,-2.00,-1.00,-9.00,-4.00,-1.00,+0.00
-5.00,-10.00,-1.00,-1.00,-1.00,-2.00,-1.00,-1.00,-7.00,-3.00,-2.00,+0.00,-2.00,-2.00,+0.00,-2.00
+2.00,+0.00,-3.00,-3.00,+1.00,+0.00,-3.00,-1.00,+3.00,+2.00,-2.00,+3.00,-3.00,-5.00,+0.00,-1.00
-1.00,+1.00,-1.00,+1.00,+0.00,+3.00,-2.00,+1.00,+4.00,+2.00,-1.00,-1.00,-7.00,-2.00,+1.00,+1.00
+0.00,-5.00,+1.00,+1.00,+1.00,+1.00,-1.00,+3.00,-3.00,-5.00,-1.00,-5.00,-3.00,+1.00,-3.00,-3.00
+0.00,-10.00,-2.00,+2.00,+0.00,-5.00,+1.00,+0.00,-9.00,+0.00,+1.00,-1.00,+1.00,+1.00,-1.00,-1.00
-1.00,+9.00,+0.00,-1.00,-2.00,+0.00,+2.00,-5.00,+16.00,+2.00,+1.00,+0.00,+3.00,+4.00,-2.00,+2.00
-5.00,-13.00,+1.00,-1.00,-2.00,-3.00,+1.00,-3.00,+0.00,-1.00,+3.00,+2.00,+2.00,-3.00,-2.00,+0.00
-1.00,+13.00,-2.00,-2.00,+2.00,-4.00,-1.00,-2.00,-3.00,+2.00,+0.00,-2.00,+1.00,-3.00,+1.00,-2.00
-4.00,-4.00,+1.00,-2.00,+1.00,-1.00,-1.00,+0.00,-2.00,-1.00,-2.00,-4.00,-6.00,-3.00,+0.00,+0.00
+2.00,-1.00,+1.00,+1.00,+1.00,-1.00,-3.00,+0.00,-3.00,-3.00,-2.00,+0.00,+0.00,-4.00,+0.00,-2.00
+2.00,-2.00,-2.00,-1.00,+1.00,+2.00,-1.00,+0.00,+0.00,-2.00,-2.00,-4.00,-2.00,-1.00,-2.00,-2.00
-1.00,+1.00,-2.00,-1.00,-4.00,-3.00,+1.00,-3.00,+0.00,+1.00,+2.00,+0.00,+5.00,+2.00,+0.00,+2.00
-1.00,+2.00,-2.00,-3.00,-2.00,-2.00,-2.00,+0.00,-4.00,-1.00,+0.00,+2.00,-1.00,+0.00,+0.00,-1.00
-2.00,+4.00,-1.00,-1.00,-4.00,-2.00,-3.00,-1.00,-4.00,-2.00,-3.00,+3.00,+0.00,+3.00,-2.00,-1.00
-10.00,-23.00,+1.00,+0.00,+9.00,+2.00,+1.00,-6.00,-1.00,-3.00,-5.00,-8.00,-6.00,+0.00,-3.00,-3.00
+0.00,+15.00,-1.00,-2.00,-2.00,-3.00,-3.00,+0.00,+3.00,+1.00,-1.00,+3.00,+1.00,-1.00,+0.00,+2.00
-1.00,-3.00,-3.00,-1.00,-5.00,+1.00,+1.00,-1.00,-2.00,-5.00,-3.00,-6.00,-3.00,+0.00,-1.00,+0.00
-4.00,+6.00,-1.00,+1.00,+3.00,+0.00,-3.00,-3.00,+0.00,-2.00,+1.00,-2.00,+0.00,-2.00,-1.00,-1.00
+1.00,-9.00,-2.00,+1.00,-3.00,-1.00,-1.00,-2.00,+3.00,-1.00,-2.00,+6.00,+6.00,-2.00,+2.00,+1.00
-11.00,-25.00,+1.00,+0.00,-1.00,-4.00,-1.00,+1.00,-5.00,-5.00,-3.00,-5.00,-3.00,-3.00,-4.00,-2.00
+2.00,+17.00,+1.00,-3.00,+1.00,-1.00,+0.00,-1.00,+2.00,+0.00,+3.00,+1.00,+0.00,-3.00,-3.00,-1.00
+5.00,+4.00,-2.00,+0.00,-3.00,+1.00,+0.00,+1.00,-1.00,-2.00,+1.00,-2.00,-1.00,-1.00,-2.00,-1.00
+0.00,+7.00,-3.00,-1.00,-5.00,+0.00,-2.00,-2.00,-6.00,-3.00,-1.00,-1.00,-1.00,+1.00,-1.00,-1.00
+0.00,+5.00,-1.00,+0.00,+2.00,+3.00,-1.00,+0.00,+3.00,+1.00,+2.00,-2.00,+0.00,+1.00,+1.00,-1.00
+0.00,-7.00,-1.00,-2.00,-3.00,+1.00,-3.00,-1.00,+8.00,+3.00,-4.00,+1.00,-4.00,-1.00,+1.00,+0.00
-1.00,-2.00,-3.00,+0.00,+2.00,-2.00,-2.00,-4.00,-12.00,-1.00,-4.00,-2.00,+7.00,-3.00,-1.00,-3.00
+0.00,+1.00,+0.00,+0.00,+1.00,+0.00,-1.00,+5.00,+0.00,+0.00,-3.00,-2.00,-8.00,+0.00,-2.00,-1.00
+1.00,+0.00,-3.00,-1.00,-4.00,-1.00,-1.00,+1.00,-4.00,-2.00,-3.00,-1.00,-1.00,-1.00,-2.00,-3.00
-3.00,-9.00,-1.00,+3.00,+2.00,+5.00,+0.00,+0.00,+2.00,+0.00,+1.00,+0.00,-2.00,-1.00,-3.00,-1.00
-2.00,-5.00,+1.00,-1.00,-1.00,-3.00,+1.00,+0.00,-9.00,-2.00,+1.00,-3.00,-1.00,-1.00,+3.00,-3.00
-1.00,-3.00,-1.00,-2.00,-1.00,-1.00,-2.00,-2.00,+6.00,+0.00,-2.00,-1.00,-2.00,+0.00,-1.00,-1.00
+2.00,+4.00,+1.00,+0.00,-4.00,-3.00,-2.00,+0.00,-1.00,-3.00,-2.00,+0.00,+0.00,+0.00,-1.00,+2.00
+0.00,-4.00,-1.00,-1.00,-3.00,-5.00,+0.00,-2.00,-2.00,-1.00,+0.00,-3.00,-3.00,-1.00,+2.00,+2.00
-4.00,-7.00,-2.00,-1.00,+0.00,-3.00,-2.00,-3.00,+5.00,-3.00,-3.00,+3.00,+2.00,+1.00,-2.00,-1.00
+7.00,+20.00,+0.00,+1.00,-3.00,-3.00,-2.00,+0.00,-2.00,+1.00,+1.00,-2.00,+2.00,+0.00,+1.00,+0.00
+1.00,+2.00,-1.00,+1.00,-2.00,-1.00,+1.00,+6.00,+0.00,+3.00,+0.00,+1.00,-3.00,+0.00,-2.00,-4.00
-2.00,+8.00,+0.00,+2.00,+8.00,-1.00,+1.00,-2.00,-5.00,-6.00,-1.00,+3.00,+4.00,+0.00,-1.00,-1.00
-5.00,-10.00,-2.00,-1.00,-2.00,+3.00,+0.00,-1.00,-4.00,-3.00,-1.00,-4.00,-5.00,-4.00,-2.00,+0.00
-1.00,-10.00,+0.00,-1.00,+1.00,+2.00,+0.00,+0.00,-9.00,+1.00,+0.00,-4.00,+0.00,-5.00,-2.00,-5.00
+3.00,+7.00,+0.00,+0.00,+1.00,+4.00,-4.00,-4.00,+4.00,-3.00,-3.00,-2.00,-1.00,-5.00,-1.00,+1.00
-1.00,-2.00,-1.00,-3.00,-3.00,+1.00,-3.00,+0.00,+2.00,-14.00,-2.00,+0.00,+0.00,-3.00,-2.00,-4.00
+0.00,+2.00,-1.00,-3.00,-7.00,-3.00,-3.00,+2.00,-3.00,-5.00,+0.00,+0.00,+0.00,+2.00,-3.00,-2.00
-11.00,-6.00,-3.00,-2.00,+7.00,-2.00,-2.00,-8.00,-1.00,-4.00,+1.00,+1.00,+0.00,+3.00,-3.00,-2.00
-3.00,+3.00,-2.00,+2.00,+1.00,-3.00,+0.00,+1.00,-7.00,+6.00,+1.00,+0.00,+1.00,+0.00,+2.00,-1.00
-4.00,-2.00,-1.00,+1.00,+0.00,-5.00,-3.00,-1.00,+9.00,+10.00,-3.00,-6.00,-5.00,-1.00,+1.00,+3.00
+1.00,-2.00,+3.00,+0.00,+3.00,-1.00,+2.00,-2.00,-6.00,+3.00,-2.00,+0.00,+1.00,-1.00,-1.00,+0.00
+1.00,+2.00,+3.00,+1.00,-11.00,-8.00,-2.00,+0.00,+2.00,+2.00,-1.00,+0.00,-10.00,-3.00,-2.00,+2.00
-2.00,+3.00,-1.00,-2.00,+3.00,+3.00,-1.00,-6.00,+0.00,+2.00,+0.00,+4.00,+1.00,-1.00,-1.00,-3.00
-7.00,-15.00,-1.00,+0.00,+2.00,-1.00,-2.00,-4.00,-6.00,+2.00,+0.00,-2.00,+0.00,-1.00,-1.00,-3.00
+2.00,+4.00,-1.00,+0.00,+0.00,-1.00,+1.00,+0.00,+1.00,+1.00,-2.00,+0.00,+1.00,-5.00,-1.00,+0.00
+4.00,+5.00,+1.00,+1.00,-1.00,+2.00,+1.00,+2.00,+1.00,+0.00,-2.00,-7.00,-3.00,+0.00,-1.00,-1.00
+0.00,+9.00,-1.00,-3.00,-2.00,-3.00,-1.00,+0.00,-3.00,-3.00,+1.00,+3.00,+4.00,+3.00,-3.00,+0.00
+1.00,-14.00,-1.00,+0.00,-4.00,+0.00,-1.00,+3.00,-2.00,+3.00,-1.00,+2.00,-4.00,+0.00,+1.00,+1.00
-3.00,-9.00,+0.00,-4.00,-3.00,-3.00,-3.00,-3.00,-8.00,+0.00,-1.00,-3.00,-4.00,-1.00,-2.00,-2.00
+1.00,+4.00,-2.00,-1.00,+1.00,+3.00,-2.00,+2.00,+17.00,-2.00,-1.00,+7.00,+6.00,-2.00,+1.00,+1.00
+3.00,-1.00,+2.00,-3.00,-2.00,+2.00,+1.00,+0.00,-11.00,-9.00,-3.00,-4.00,-5.00,-2.00,+0.00,-2.00
-1.00,-3.00,-1.00,+1.00,-3.00,+0.00,-1.00,-8.00,-1.00,-2.00,-3.00,-1.00,+2.00,-2.00,-3.00,-2.00
+0.00,+9.00,-1.00,+1.00,+10.00,+1.00,-1.00,-1.00,-4.00,-3.00,-4.00,-2.00,+3.00,-1.00,-1.00,-1.00
-4.00,-2.00,+0.00,+0.00,-2.00,-3.00,+0.00,-1.00,+5.00,+3.00,-1.00,+1.00,+0.00,-1.00,+1.00,+2.00
+0.00,-2.00,+0.00,+0.00,+2.00,-1.00,+2.00,-3.00,-5.00,-3.00,-3.00,-6.00,-3.00,-1.00,-1.00,-3.00
-1.00,-3.00,-1.00,+0.00,-2.00,-2.00,+1.00,-4.00,-1.00,-3.00,-2.00,-1.00,-1.00,-1.00,-1.00,-2.00
+4.00,-6.00,-1.00,+2.00,-2.00,+0.00,+0.00,+2.00,-3.00,-2.00,-3.00,-3.00,-6.00,-2.00,+1.00,-2.00
+0.00,+2.00,-1.00,-2.00,+1.00,+1.00,-4.00,-1.00,-6.00,-3.00,+2.00,-1.00,+0.00,-3.00,-1.00,-2.00
-1.00,+1.00,+0.00,-3.00,-3.00,-1.00,-3.00,-1.00,+1.00,-1.00,+1.00,+1.00,+0.00,-3.00,-1.00,-2.00
-1.00,+0.00,-1.00,-4.00,-7.00,-11.00,-2.00,+0.00,-2.00,-3.00,+2.00,+2.00,+0.00,+2.00,-2.00,-4.00
+1.00,+3.00,-1.00,+3.00,+9.00,+6.00,+1.00,-2.00,+0.00,+0.00,+0.00,+3.00,-6.00,+2.00,+2.00,+3.00
+2.00,+6.00,-4.00,-2.00,+0.00,+1.00,+1.00,+0.00,-5.00,-2.00,+0.00,+4.00,+7.00,+1.00,-1.00,-5.00
-6.00,-16.00,-5.00,+0.00,+2.00,+0.00,-1.00,-3.00,+9.00,+1.00,+0.00,-7.00,-13.00,-2.00,-2.00,+2.00
-4.00,+11.00,-3.00,-5.00,-4.00,+2.00,-2.00,-2.00,-7.00,-3.00,-1.00,-5.00,+1.00,-2.00,-4.00,-2.00
+2.00,-7.00,+1.00,-2.00,-3.00,-2.00,-1.00,+3.00,+4.00,-2.00,-3.00,-2.00,+0.00,-1.00,-4.00,+0.00
-2.00,-6.00,+1.00,+1.00,-2.00,-2.00,-2.00,-1.00,+0.00,+0.00,-4.00,+0.00,+0.00,-3.00,-2.00,-1.00
+0.00,-1.00,-1.00,+0.00,-2.00,-2.00,-2.00,+2.00,-2.00,-3.00,-3.00,+0.00,-1.00,-3.00,+1.00,-4.00
-8.00,+1.00,+1.00,-1.00,+0.00,-1.00,-2.00,-9.00,-1.00,+1.00,-3.00,-2.00,-2.00,+0.00,+1.00,-2.00
-1.00,+9.00,+0.00,-1.00,-3.00,-2.00,-1.00,-2.00,-5.00,-3.00,-2.00,-2.00,-3.00,+0.00,-1.00,-5.00
-4.00,-4.00,-2.00,-2.00,-2.00,+2.00,+0.00,-4.00,-10.00,-4.00,-1.00,-6.00,-1.00,+1.00,-1.00,+0.00
+0.00,-1.00,+2.00,+2.00,-3.00,-1.00,+0.00,-1.00,+5.00,+1.00,-1.00,-2.00,+7.00,+1.00,+0.00,+2.00
+5.00,+7.00,-3.00,+1.00,+2.00,+2.00,-1.00,+4.00,+2.00,-3.00,-3.00,-3.00,-8.00,-3.00,-1.00,+0.00
-1.00,-6.00,-1.00,-2.00,-4.00,-4.00,-3.00,+3.00,+0.00,+2.00,+2.00,+0.00,-4.00,-1.00,-4.00,-2.00
-2.00,-8.00,-2.00,-2.00,-4.00,-4.00,-2.00,+0.00,+3.00,+0.00,+1.00,+2.00,-2.00,+1.00,-2.00,-1.00
-2.00,-5.00,-3.00,+1.00,+2.00,+0.00,+0.00,-2.00,-9.00,-5.00,-4.00,-1.00,+1.00,+1.00,+1.00,+2.00
+5.00,+4.00,+0.00,-1.00,+1.00,+3.00,+1.00,+4.00,+0.00,+2.00,+0.00,+2.00,+3.00,-4.00,-1.00,+0.00
-1.00,-7.00,-2.00,-3.00,-2.00,-2.00,+0.00,-4.00,+2.00,+3.00,+0.00,+0.00,+2.00,-2.00,-1.00,-1.00
+2.00,+3.00,+0.00,+0.00,-3.00,-2.00,+1.00,+3.00,-3.00,+0.00,+3.00,+0.00,-3.00,-5.00,+0.00,+0.00
-2.00,-2.00,+0.00,-1.00,+0.00,-1.00,+1.00,-3.00,+0.00,+1.00,+2.00,-3.00,-3.00,-1.00,-1.00,-2.00
-3.00,-9.00,+1.00,-2.00,+2.00,-5.00,-1.00,+0.00,-1.00,-2.00,-1.00,-1.00,-2.00,-2.00,-1.00,+1.00
-4.00,+7.00,+0.00,-1.00,+4.00,+7.00,-1.00,+1.00,+2.00,-2.00,-2.00,-3.00,-2.00,+1.00,-3.00,+2.00
-2.00,+5.00,+0.00,-3.00,+1.00,+1.00,-2.00,-2.00,+2.00,-2.00,-1.00,+5.00,+10.00,+2.00,-4.00,+1.00
+0.00,-5.00,+0.00,-3.00,-4.00,-1.00,-3.00,+0.00,+1.00,+0.00,-2.00,-4.00,-13.00,-1.00,-3.00,-2.00
-4.00,-13.00,-1.00,+1.00,+5.00,+5.00,+1.00,+2.00,-3.00,-3.00,+0.00,+2.00,+3.00,+0.00,-1.00,-3.00
-1.00,-3.00,-3.00,-1.00,-7.00,-5.00,-1.00,-4.00,-5.00,-1.00,-3.00,-3.00,-5.00,+1.00,+0.00,-2.00
+0.00,-5.00,-2.00,+0.00,+6.00,+1.00,+0.00,+1.00,-2.00,-4.00,-5.00,-3.00,-6.00,-3.00,-1.00,-4.00
+3.00,+13.00,+0.00,+1.00,+0.00,+1.00,-2.00,-4.00,-2.00,-2.00,-1.00,+3.00,+4.00,-2.00,-3.00,+1.00
+4.00,+5.00,+0.00,-1.00,-2.00,+0.00,-3.00,+1.00,-2.00,+1.00,+1.00,-3.00,-7.00,+1.00,-3.00,-1.00
-6.00,-4.00,-2.00,-4.00,-3.00,-4.00,-4.00,-3.00,+6.00,+0.00,+0.00,+0.00,-2.00,-1.00,-3.00,-4.00
+8.00,+1.00,+0.00,-1.00,-1.00,-2.00,+1.00,+5.00,-4.00,-1.00,-2.00,-3.00,+2.00,-3.00,+0.00,-2.00
+0.00,-2.00,+0.00,-3.00,-4.00,-3.00,-1.00,-2.00,-2.00,-2.00,-3.00,+0.00,+7.00,-5.00,-1.00,-4.00
-1.00,-3.00,+0.00,-2.00,-3.00,+0.00,+0.00,+0.00,-2.00,+1.00,-3.00,-3.00,-2.00,-5.00,+2.00,+1.00
+0.00,+2.00,-1.00,+1.00,+2.00,-1.00,+1.00,+0.00,+1.00,-3.00,+1.00,-1.00,+1.00,-2.00,+3.00,-1.00
-2.00,-3.00,-3.00,+0.00,-1.00,-1.00,-2.00,-7.00,-2.00,-3.00,-1.00,-2.00,-6.00,+2.00,+1.00,+1.00
-1.00,+0.00,+0.00,+1.00,+0.00,+1.00,-4.00,+6.00,-1.00,+1.00,-2.00,-2.00,-1.00,+1.00,-2.00,-1.00
-1.00,-2.00,-2.00,+1.00,-1.00,-3.00,+0.00,+1.00,-3.00,-3.00,-2.00,+0.00,+1.00,+1.00,-2.00,-1.00
+2.00,+2.00,+1.00,-1.00,-12.00,+1.00,+0.00,-2.00,-1.00,+1.00,-2.00,-5.00,-3.00,+0.00,-1.00,+1.00
-2.00,+0.00,-1.00,-2.00,+20.00,-1.00,+0.00,-1.00,+2.00,+0.00,+0.00,-2.00,+0.00,+1.00,-1.00,-1.00
-1.00,-6.00,-1.00,+0.00,+5.00,-3.00,-1.00,-1.00,-9.00,-4.00,-1.00,+4.00,+1.00,-1.00,-2.00,-2.00
-7.00,-8.00,+0.00,-1.00,+3.00,-3.00,-1.00,-5.00,+4.00,+2.00,-4.00,-3.00,-5.00,+1.00,-2.00,-2.00
+4.00,+14.00,+0.00,-1.00,+0.00,-3.00,+0.00,+1.00,-2.00,-1.00,-1.00,-4.00,-5.00,-1.00,-2.00,-1.00
-3.00,-8.00,-1.00,-1.00,-8.00,-2.00,-3.00,-3.00,+4.00,+2.00,+3.00,-5.00,-5.00,+0.00,-3.00,+3.00
-4.00,-1.00,-1.00,-1.00,-1.00,+0.00,-2.00,-1.00,-3.00,-2.00,+1.00,+0.00,+4.00,-2.00,-3.00,+0.00
-1.00,-5.00,-2.00,-1.00,-3.00,-3.00,-1.00,+1.00,+2.00,-2.00,-1.00,+1.00,-2.00,-3.00,-1.00,-4.00
-3.00,-6.00,-1.00,-1.00,+3.00,+1.00,-1.00,-3.00,-6.00,+0.00,-1.00,-1.00,+0.00,-2.00,-2.00,-3.00
+1.00,+1.00,-3.00,-4.00,-12.00,-3.00,-2.00,-1.00,-4.00,+0.00,-4.00,-1.00,-3.00,-1.00,-1.00,+1.00
+0.00,+6.00,+0.00,+1.00,-1.00,-3.00,-1.00,-1.00,+4.00,+3.00,+2.00,-3.00,-3.00,+3.00,+0.00,+1.00
+0.00,-2.00,-3.00,-1.00,-4.00,+3.00,+0.00,-4.00,+1.00,-3.00,-1.00,+2.00,+1.00,-1.00,-1.00,+1.00
-1.00,-9.00,+0.00,+0.00,+2.00,-2.00,+1.00,+3.00,-7.00,+0.00,+1.00,-2.00,-6.00,-4.00,+0.00,-3.00
+0.00,+11.00,+1.00,-2.00,-2.00,-1.00,+0.00,+1.00,-9.00,-7.00,+0.00,+3.00,-2.00,-4.00,-2.00,-6.00
+0.00,-5.00,+0.00,-2.00,-4.00,-4.00,-1.00,-2.00,+11.00,+0.00,-3.00,-3.00,+0.00,-1.00,+0.00,+0.00
-9.00,+3.00,-1.00,-1.00,+0.00,-2.00,-2.00,-6.00,-1.00,-2.00,-2.00,-4.00,-1.00,-2.00,-1.00,+1.00
-2.00,-1.00,-2.00,+0.00,+0.00,-2.00,-2.00,-3.00,-2.00,-3.00,-2.00,+2.00,+2.00,+2.00,-2.00,-3.00
-4.00,-6.00,+0.00,+1.00,-3.00,-2.00,-1.00,-1.00,-2.00,-1.00,-1.00,-3.00,-1.00,-3.00,+2.00,-1.00
-4.00,-2.00,-2.00,-1.00,-1.00,-3.00,+0.00,-3.00,-5.00,-3.00,-1.00,+1.00,-3.00,-1.00,-2.00,-2.00
+4.00,+5.00,+1.00,-1.00,+1.00,+0.00,-1.00,+1.00,-1.00,-2.00,-1.00,-1.00,-3.00,-1.00,-3.00,-1.00
-1.00,+1.00,+0.00,+0.00,+2.00,+1.00,-1.00,+1.00,+3.00,-2.00,-4.00,-1.00,+1.00,-1.00,-3.00,+2.00
-4.00,+2.00,+1.00,+1.00,-5.00,+1.00,+0.00,-1.00,-6.00,-5.00,-2.00,+1.00,+1.00,-3.00,-2.00,-3.00
+2.00,-7.00,-2.00,-2.00,-2.00,+0.00,-1.00,-7.00,+1.00,+0.00,+0.00,+0.00,-1.00,-2.00,+0.00,-3.00
+1.00,-18.00,-2.00,+0.00,+0.00,+2.00,-2.00,-2.00,-4.00,+1.00,-2.00,+1.00,+1.00,+0.00,+1.00,-4.00
-7.00,+3.00,-2.00,-1.00,+0.00,-2.00,-1.00,-3.00,+4.00,+0.00,+3.00,+3.00,+6.00,+0.00,+1.00,+3.00
+1.00,-8.00,-3.00,+1.00,-1.00,-2.00,+2.00,+5.00,-5.00,-2.00,-1.00,-8.00,-9.00,+2.00,+1.00,+0.00
+5.00,+17.00,-1.00,-3.00,+0.00,-3.00,+0.00,+4.00,+3.00,+3.00,-1.00,-1.00,+4.00,+0.00,+0.00,+3.00
+0.00,-6.00,-6.00,-1.00,-6.00,+0.00,+0.00,+4.00,-1.00,-1.00,-2.00,-2.00,+2.00,-1.00,+0.00,-2.00
+1.00,+1.00,-1.00,-2.00,-1.00,-3.00,-2.00,-1.00,-3.00,-3.00,-3.00,+2.00,+2.00,-1.00,-1.00,-4.00
-2.00,-5.00,+0.00,-2.00,+0.00,-1.00,-1.00,-2.00,+1.00,+0.00,-1.00,+1.00,+4.00,+1.00,-4.00,-1.00
-2.00,-5.00,+0.00,+1.00,+0.00,+1.00,-1.00,-5.00,-3.00,-3.00,-1.00,+0.00,-4.00,-1.00,+0.00,-1.00
+3.00,+2.00,+4.00,+0.00,+1.00,+0.00,+1.00,+2.00,-3.00,-5.00,-3.00,+0.00,+0.00,-2.00,+0.00,-2.00
+2.00,+5.00,+0.00,-1.00,+0.00,+1.00,-3.00,-1.00,+4.00,+2.00,+0.00,-1.00,-1.00,-3.00,-2.00,-1.00
-5.00,-7.00,+1.00,+2.00,+2.00,+2.00,+1.00,-2.00,-4.00,-2.00,-4.00,+0.00,-2.00,-3.00,-2.00,-4.00
+4.00,+1.00,-3.00,+1.00,-2.00,-1.00,+0.00,+1.00,-9.00,-4.00,-2.00,-3.00,-4.00,-1.00,-4.00,-5.00
+7.00,+22.00,+1.00,-1.00,+0.00,+0.00,+0.00,-1.00,+10.00,+3.00,+3.00,+2.00,-3.00,+2.00,+0.00,+6.00
+2.00,-11.00,+0.00,-1.00,+3.00,+1.00,+1.00,-2.00,-2.00,-2.00,-2.00,-3.00,+2.00,+0.00,+1.00,-3.00
+2.00,-2.00,+1.00,-1.00,-1.00,-3.00,+1.00,+1.00,+4.00,+1.00,+3.00,+2.00,-6.00,-1.00,-2.00,+2.00
-4.00,-3.00,-2.00,+0.00,+0.00,-2.00,-1.00,+0.00,-4.00,+2.00,-2.00,-2.00,+1.00,-1.00,-2.00,-3.00
+5.00,+5.00,+1.00,+2.00,+3.00,-1.00,-1.00,+3.00,-2.00,-1.00,+1.00,-1.00,-1.00,-1.00,-2.00,-1.00
-3.00,+3.00,-3.00,-2.00,-5.00,-5.00,-3.00,+0.00,-1.00,-2.00,+1.00,-2.00,-5.00,-2.00,-3.00,+0.00
+1.00,-9.00,-4.00,-2.00,+0.00,+2.00,-2.00,-2.00,-1.00,+3.00,+0.00,+1.00,+1.00,-2.00,+1.00,-5.00
+1.00,+20.00,+3.00,+0.00,-5.00,-2.00,+1.00,-1.00,+5.00,-2.00,+0.00,+2.00,+1.00,-1.00,+0.00,+0.00
+3.00,+9.00,-2.00,+0.00,+3.00,+8.00,+0.00,-2.00,-4.00,-2.00,-3.00,-4.00,-5.00,-1.00,-2.00,-3.00
+1.00,-4.00,+3.00,+0.00,-1.00,-2.00,+0.00,-2.00,-5.00,-5.00,-4.00,+5.00,+3.00,+1.00,-4.00,-3.00
-5.00,+1.00,-1.00,+0.00,+0.00,+2.00,-1.00,+0.00,+3.00,-1.00,-2.00,-8.00,-2.00,-1.00,-1.00,+0.00
-2.00,-10.00,-2.00,-3.00,-2.00,+2.00,-2.00,-1.00,+3.00,+0.00,+1.00,-1.00,+2.00,-4.00,+2.00,+3.00
-2.00,-9.00,+0.00,+1.00,+2.00,-3.00,-4.00,-2.00,+4.00,+1.00,-1.00,-2.00,-2.00,-2.00,+1.00,+0.00
-2.00,+11.00,-3.00,-1.00,-4.00,-1.00,-1.00,+0.00,+0.00,+1.00,-3.00,-1.00,-3.00,-3.00,-1.00,+0.00
-1.00,-7.00,-4.00,-2.00,-2.00,-3.00,-1.00,-2.00,-3.00,-1.00,-4.00,+1.00,-2.00,-2.00,+0.00,-2.00
-3.00,-10.00,+0.00,+0.00,+3.00,-2.00,+1.00,+1.00,-5.00,-3.00,+0.00,-2.00,-3.00,+0.00,-1.00,-1.00
-1.00,+0.00,-1.00,-2.00,-3.00,-1.00,-1.00,+1.00,-2.00,+1.00,-2.00,-1.00,+1.00,-1.00,-2.00,+0.00
-1.00,-4.00,+0.00,-2.00,+1.00,-1.00,+0.00,-1.00,-2.00,+1.00,+3.00,-2.00,+1.00,+1.00,-1.00,+0.00
+1.00,+8.00,+1.00,-3.00,+0.00,-2.00,+0.00,+0.00,-9.00,-3.00,+0.00,-2.00,+0.00,+1.00,-1.00,-2.00
-2.00,-5.00,-1.00,-1.00,-1.00,+0.00,-2.00,+1.00,+5.00,+0.00,-1.00,-2.00,-1.00,+2.00,-2.00,+0.00
-1.00,-3.00,-3.00,-1.00,-3.00,-2.00,-4.00,-1.00,-1.00,-5.00,+0.00,+1.00,+2.00,+1.00,-2.00,-4.00
+3.00,-3.00,+0.00,+0.00,-3.00,-1.00,-1.00,+1.00,-1.00,-5.00,-2.00,-1.00,-3.00,-3.00,+0.00,-3.00
+3.00,+7.00,+1.00,+1.00,-1.00,-3.00,-4.00,-2.00,+6.00,+2.00,+2.00,+2.00,+2.00,+1.00,+1.00,+4.00
+0.00,-3.00,-1.00,-1.00,+1.00,-2.00,-1.00,-4.00,-3.00,+2.00,+0.00,-1.00,-2.00,+0.00,+1.00,+0.00
-1.00,+2.00,+0.00,-3.00,+0.00,+0.00,+0.00,-2.00,-7.00,-3.00,-2.00,-1.00,+0.00,-1.00,+0.00,+0.00
-6.00,-23.00,-2.00,-3.00,-2.00,+5.00,+0.00,+0.00,+3.00,-1.00,-2.00,-2.00,+2.00,-1.00,+1.00,+0.00
+4.00,+46.00,+3.00,+0.00,-2.00,+1.00,+1.00,+1.00,-3.00,-3.00,+0.00,-2.00,-3.00,-2.00,-3.00,-2.00
+1.00,-11.00,+0.00,+1.00,+1.00,+2.00,+0.00,+1.00,-8.00,+0.00,-2.00,+1.00,-1.00,-2.00,-2.00,-3.00
-1.00,+2.00,-3.00,+0.00,-6.00,-5.00,-1.00,+1.00,-7.00,-4.00,-2.00,+1.00,+0.00,+2.00,-3.00,-4.00
-6.00,-9.00,-1.00,+0.00,+3.00,+3.00,+0.00,-4.00,-1.00,-1.00,-3.00,+0.00,-5.00,-2.00,-2.00,-3.00
-1.00,-10.00,-2.00,-1.00,-3.00,-3.00,-1.00,-2.00,+1.00,+0.00,-1.00,-2.00,+4.00,-2.00,-1.00,+0.00
+6.00,+6.00,-2.00,+1.00,+4.00,+0.00,+0.00,-1.00,-5.00,-2.00,-4.00,-5.00,-7.00,-4.00,-5.00,-5.00
-7.00,-1.00,-2.00,+0.00,-3.00,-4.00,-1.00,-1.00,+11.00,+0.00,-1.00,+4.00,+1.00,+0.00,+2.00,+4.00
-3.00,+2.00,-2.00,+2.00,-2.00,-4.00,+0.00,-1.00,-4.00,+2.00,+0.00,-10.00,-8.00,+2.00,-3.00,-3.00
+2.00,-7.00,-3.00,-1.00,+4.00,+4.00,-1.00,+1.00,-2.00,-3.00,+0.00,+1.00,+3.00,+2.00,-3.00,-2.00
-1.00,+1.00,-2.00,-3.00,-1.00,+3.00,+0.00,-2.00,-4.00,-4.00,-1.00,-2.00,-7.00,-2.00,-3.00,+0.00
-6.00,-9.00,+1.00,+0.00,+2.00,+1.00,+2.00,-1.00,+3.00,+1.00,-1.00,-5.00,-2.00,+0.00,-1.00,-6.00
+3.00,+8.00,+1.00,-1.00,+2.00,+1.00,+0.00,-1.00,+7.00,+4.00,+1.00,+4.00,+4.00,-2.00,+4.00,+8.00
-3.00,-8.00,-3.00,-1.00,-5.00,-3.00,-5.00,-5.00,-1.00,-1.00,-5.00,+1.00,+1.00,-1.00,+0.00,-4.00
-3.00,-5.00,+0.00,+0.00,-3.00,-3.00,-2.00,-2.00,+1.00,+0.00,-1.00,+2.00,+1.00,+0.00,+2.00,+0.00
+0.00,-5.00,-2.00,+0.00,+0.00,-2.00,-3.00,-2.00,-7.00,-2.00,+0.00,+0.00,+1.00,-3.00,-3.00,-4.00
+2.00,+6.00,-2.00,-1.00,-3.00,-3.00,-1.00,-4.00,+4.00,-4.00,+1.00,+1.00,-1.00,-2.00,-2.00,+0.00
+3.00,-1.00,+1.00,-1.00,-2.00,-3.00,+1.00,+1.00,-1.00,-1.00,-2.00,-3.00,-6.00,-2.00,+0.00,-2.00
-5.00,-12.00,-2.00,-5.00,-1.00,+2.00,+0.00,+2.00,+2.00,+1.00,-1.00,+3.00,-4.00,-4.00,+1.00,+2.00
+0.00,-7.00,+0.00,-1.00,-1.00,+1.00,-1.00,+0.00,-4.00,+1.00,-1.00,-3.00,-4.00,+1.00,+0.00,+1.00
+1.00,+30.00,+3.00,+1.00,-1.00,-1.00,+1.00,-1.00,-4.00,-3.00,-3.00,-6.00,-3.00,+0.00,-1.00,-2.00
-4.00,-12.00,-3.00,+0.00,-1.00,-3.00,-1.00,-2.00,+1.00,+0.00,+0.00,-1.00,-1.00,+0.00,+0.00,+3.00
+1.00,+7.00,-2.00,-1.00,-2.00,-1.00,-2.00,-1.00,+0.00,-3.00,-1.00,-1.00,+3.00,+4.00,-4.00,-2.00
-2.00,-6.00,-4.00,-1.00,-1.00,+0.00,-1.00,-1.00,+2.00,-1.00,+2.00,+1.00,+3.00,-1.00,-3.00,-1.00
-2.00,-11.00,-1.00,+0.00,+4.00,+2.00,-4.00,+0.00,-5.00,-1.00,-1.00,+4.00,+1.00,+0.00,-1.00,-2.00
-4.00,+0.00,-1.00,-1.00,-1.00,-1.00,-2.00,+0.00,-1.00,-2.00,-2.00,-11.00,-7.00,-1.00,-1.00,-5.00
-5.00,-2.00,-4.00,-2.00,-3.00,-1.00,+1.00,-1.00,+6.00,+0.00,-2.00,-1.00,-3.00,-1.00,+0.00,-2.00
+2.00,-2.00,+1.00,-1.00,-3.00,-1.00,+0.00,-1.00,-12.00,-3.00,-3.00,-3.00,-4.00,+0.00,-1.00,+0.00
+4.00,+4.00,-2.00,+0.00,-1.00,-2.00,+1.00,+8.00,+7.00,-1.00,-5.00,+0.00,-1.00,+1.00,-2.00,-1.00
-10.00,-1.00,-2.00,+1.00,+1.00,-2.00,-1.00,-10.00,+2.00,+1.00,+0.00,+4.00,+0.00,-1.00,-1.00,-2.00
-4.00,-1.00,+0.00,+1.00,+0.00,-2.00,-1.00,-2.00,-3.00,-2.00,-1.00,-2.00,+1.00,+1.00,-1.00,+1.00
+1.00,+0.00,-1.00,-2.00,-6.00,-4.00,-1.00,+1.00,+0.00,-1.00,-1.00,-1.00,+3.00,-3.00,-3.00,-2.00
+0.00,+0.00,+0.00,-1.00,+3.00,-5.00,-3.00,+0.00,-4.00,-2.00,+1.00,+0.00,+1.00,-2.00,+0.00,+1.00
-1.00,-13.00,+0.00,-1.00,+0.00,+1.00,-1.00,+2.00,-2.00,-1.00,-3.00,+1.00,+0.00,-2.00,+0.00,+0.00
+2.00,-2.00,+0.00,+1.00,-1.00,+0.00,+0.00,+3.00,-1.00,-2.00,-1.00,-7.00,+0.00,-1.00,-2.00,-1.00
-2.00,+10.00,-1.00,-1.00,-1.00,-2.00,-1.00,-5.00,-3.00,+0.00,-2.00,+4.00,+0.00,+0.00,+0.00,-1.00
+1.00,-9.00,+1.00,+1.00,-3.00,+0.00,+0.00,-3.00,-6.00,+1.00,-2.00,-2.00,-1.00,+1.00,-1.00,-4.00
-2.00,+0.00,-1.00,-3.00,-6.00,-1.00,-1.00,-1.00,-5.00,-3.00,-1.00,-1.00,-4.00,-2.00,-1.00,-2.00
-5.00,-15.00,-2.00,-2.00,+0.00,-3.00,-3.00,-7.00,+2.00,+1.00,+1.00,+0.00,-1.00,-5.00,+0.00,+1.00
+6.00,+34.00,+5.00,+0.00,-3.00,+0.00,+2.00,+3.00,+4.00,+2.00,-1.00,-2.00,-1.00,+0.00,+1.00,+2.00
-1.00,-2.00,-2.00,-2.00,+0.00,+5.00,+1.00,-2.00,-1.00,-2.00,-2.00,-5.00,-4.00,-2.00,-4.00,-1.00
-1.00,-10.00,+0.00,+1.00,+1.00,+0.00,+2.00,+0.00,-7.00,-2.00,+0.00,+0.00,+7.00,+0.00,-2.00,-2.00
+2.00,+9.00,-1.00,+0.00,-4.00,-3.00,-1.00,+0.00,-1.00,-3.00,-2.00,+1.00,+6.00,-3.00,-1.00,-3.00
-6.00,-12.00,-2.00,-1.00,+2.00,+0.00,-1.00,-1.00,+1.00,+0.00,+0.00,-3.00,-3.00,-2.00,-1.00,-2.00
+0.00,-4.00,-2.00,-3.00,-2.00,-1.00,-2.00,-1.00,-3.00,-4.00,-1.00,-2.00,+3.00,-1.00,+0.00,-2.00
-2.00,-2.00,+0.00,+0.00,+0.00,+1.00,-3.00,+0.00,-2.00,-5.00,+1.00,+0.00,-2.00,+0.00,-2.00,-1.00
-1.00,-6.00,-1.00,-1.00,-1.00,-2.00,-1.00,+4.00,-3.00,-3.00,-1.00,+0.00,+3.00,+3.00,-1.00,-1.00
-3.00,-15.00,-2.00,-2.00,+1.00,-2.00,-2.00,-1.00,+6.00,-1.00,+1.00,+1.00,-8.00,-2.00,-1.00,+0.00
-1.00,+2.00,-1.00,-1.00,-2.00,-1.00,-1.00,+0.00,-15.00,+1.00,-1.00,-1.00,-2.00,+2.00,-1.00,+2.00
-1.00,-8.00,-3.00,+0.00,-4.00,-1.00,-1.00,+3.00,+16.00,+1.00,-2.00,+0.00,-3.00,+2.00,-3.00,+3.00
+3.00,+8.00,+1.00,+1.00,+4.00,+3.00,+0.00,+1.00,+0.00,-1.00,-1.00,+0.00,+0.00,+0.00,-1.00,-3.00
-1.00,+2.00,-1.00,+0.00,+0.00,+0.00,-1.00,+4.00,-2.00,-2.00,-2.00,-3.00,-6.00,-3.00,+0.00,-3.00
-2.00,-2.00,-1.00,-1.00,-3.00,-2.00,-2.00,-4.00,-3.00,-2.00,+0.00,-3.00,-3.00,-7.00,-2.00,-4.00
+4.00,+8.00,+1.00,+1.00,-3.00,-4.00,-1.00,-3.00,-7.00,-4.00,-2.00,-2.00,+1.00,-3.00,-1.00,-1.00
-2.00,+0.00,+0.00,-1.00,-1.00,+1.00,-1.00,-1.00,+2.00,+1.00,-1.00,+1.00,+1.00,+0.00,-2.00,+1.00
+3.00,+3.00,+1.00,-2.00,-3.00,-1.00,-1.00,+0.00,-4.00,-4.00,-3.00,-4.00,+2.00,-3.00,-3.00,-2.00
-2.00,-8.00,+1.00,-2.00,+4.00,+1.00,-3.00,-3.00,-4.00,-4.00,-2.00,-1.00,-5.00,-1.00,-2.00,-4.00
+0.00,+1.00,-1.00,-2.00,-5.00,-2.00,-2.00,+0.00,+3.00,+3.00,+0.00,+2.00,-6.00,+0.00,+0.00,+0.00
+3.00,+5.00,+2.00,+1.00,-3.00,-3.00,-1.00,+1.00,-1.00,+0.00,-2.00,-4.00,-6.00,-2.00,-1.00,-3.00
-8.00,-15.00,-1.00,+2.00,+4.00,+3.00,-3.00,-6.00,-8.00,-1.00,-1.00,-1.00,-1.00,+1.00,-1.00,-1.00
+1.00,-7.00,-4.00,-2.00,-7.00,-5.00,-2.00,-1.00,+8.00,+5.00,+5.00,+0.00,+2.00,+2.00,+1.00,-2.00
-2.00,+6.00,-2.00,+0.00,+5.00,+1.00,+2.00,+0.00,+6.00,+1.00,+3.00,-3.00,+0.00,+2.00,+0.00,+2.00
+1.00,+12.00,-4.00,-1.00,+1.00,-3.00,-1.00,+1.00,-9.00,-4.00,+1.00,+2.00,+1.00,+5.00,-1.00,+0.00
+6.00,-4.00,-3.00,+0.00,-2.00,-3.00,+0.00,+2.00,+1.00,-1.00,-3.00,-5.00,-9.00,+1.00,+0.00,+2.00
-5.00,-8.00,-2.00,-1.00,-1.00,-2.00,+1.00,+0.00,+0.00,+0.00,-1.00,+2.00,-3.00,-1.00,+1.00,-1.00
-1.00,-4.00,+0.00,-2.00,+1.00,+2.00,+1.00,+1.00,-4.00,+1.00,-2.00,+1.00,+1.00,-4.00,-1.00,-2.00
-4.00,-2.00,-1.00,-4.00,-3.00,+0.00,+1.00,+0.00,+0.00,-1.00,+1.00,-1.00,+0.00,-5.00,+0.00,-2.00
+1.00,+3.00,+1.00,-1.00,-2.00,-1.00,+1.00,-4.00,+1.00,-3.00,+0.00,-2.00,+2.00,-1.00,-2.00,+0.00
-3.00,-9.00,-2.00,-1.00,-1.00,+0.00,+0.00,+2.00,+2.00,-3.00,-5.00,-1.00,-1.00,-1.00,-1.00,+1.00
+3.00,+4.00,+0.00,-2.00,-1.00,-1.00,-2.00,-1.00,-4.00,-4.00,-2.00,+0.00,-1.00,+0.00,+2.00,-2.00
+0.00,+4.00,+2.00,-2.00,-3.00,+0.00,-1.00,-4.00,-11.00,-1.00,-4.00,-3.00,-2.00,-5.00,-1.00,-3.00
-1.00,-1.00,-2.00,-2.00,+1.00,-3.00,-1.00,+2.00,+10.00,-3.00,-3.00,+5.00,+3.00,-3.00,-1.00,-1.00
-1.00,-3.00,+1.00,+1.00,+1.00,-1.00,+2.00,-2.00,+2.00,-3.00,+0.00,-3.00,-1.00,-4.00,-2.00,+0.00
-1.00,+2.00,-2.00,-1.00,-4.00,-3.00,-1.00,+1.00,+2.00,-3.00,-3.00,-1.00,-3.00,-2.00,-6.00,-2.00
-2.00,-4.00,-2.00,+0.00,-8.00,-8.00,-1.00,+2.00,+1.00,+1.00,-1.00,-1.00,-3.00,+2.00,-1.00,-1.00
-3.00,-4.00,+0.00,+0.00,+6.00,+6.00,+1.00,-1.00,-8.00,-2.00,+1.00,-2.00,+2.00,+1.00,-2.00,-3.00
+0.00,+4.00,-1.00,-3.00,-4.00,-3.00,+0.00,-2.00,+1.00,+2.00,-1.00,+2.00,+1.00,+2.00,-1.00,+2.00
-1.00,-4.00,-2.00,+0.00,+10.00,+3.00,+2.00,+2.00,-5.00,-1.00,+0.00,-4.00,-2.00,+0.00,+1.00,-3.00
-7.00,-5.00,-3.00,+0.00,-2.00,+1.00,-3.00,-3.00,-1.00,-2.00,-3.00,-1.00,+0.00,+1.00,-3.00,-2.00
-1.00,-4.00,-1.00,-1.00,-1.00,+0.00,-2.00,+1.00,+1.00,-1.00,-2.00,-2.00,-7.00,+0.00,-1.00,-1.00
+5.00,+5.00,-2.00,+1.00,-4.00,-2.00,-4.00,-1.00,+0.00,-6.00,+0.00,+3.00,+7.00,+2.00,+0.00,+0.00
-1.00,+13.00,+1.00,+1.00,-1.00,+0.00,-2.00,-5.00,-3.00,-2.00,-3.00,-8.00,-10.00,-4.00,-2.00,-5.00
-3.00,-14.00,-1.00,+0.00,+0.00,+0.00,-2.00,-4.00,+5.00,+4.00,+1.00,+1.00,+5.00,-4.00,+1.00,+1.00
-1.00,+10.00,+0.00,-1.00,-2.00,-2.00,-1.00,-4.00,-9.00,-6.00,-2.00,+0.00,-1.00,-6.00,+0.00,-1.00
-4.00,+11.00,-2.00,-1.00,-1.00,+2.00,+1.00,-2.00,-10.00,-4.00,-1.00,-2.00,-2.00,-3.00,+0.00,-7.00
-3.00,-11.00,-2.00,-2.00,-2.00,-3.00,-1.00,-1.00,-1.00,-1.00,+1.00,+0.00,+1.00,-1.00,+2.00,-2.00
+1.00,-2.00,+1.00,-1.00,+1.00,+0.00,+0.00,-1.00,+5.00,-1.00,-1.00,-1.00,-1.00,-1.00,-1.00,+2.00
-3.00,-2.00,-4.00,-4.00,-5.00,-2.00,-3.00,+1.00,+0.00,+1.00,-2.00,+0.00,+2.00,+1.00,-1.00,+0.00
+0.00,-3.00,-1.00,+2.00,+4.00,+0.00,-2.00,+4.00,-4.00,+0.00,-1.00,+0.00,-2.00,-1.00,+2.00,+0.00
-1.00,-3.00,-3.00,+0.00,-3.00,-4.00,-1.00,+0.00,-4.00,-2.00,-3.00,-2.00,+3.00,-2.00,-2.00,-1.00
-4.00,-1.00,-1.00,+0.00,+3.00,+1.00,-2.00,-2.00,-1.00,+0.00,-3.00,-2.00,-5.00,-4.00,-2.00,-3.00
+5.00,-3.00,+0.00,-1.00,-5.00,-2.00,+1.00,+2.00,+0.00,+0.00,+0.00,+0.00,+1.00,-2.00,-3.00,-1.00
-2.00,+2.00,+0.00,-1.00,+0.00,+3.00,+1.00,+0.00,+4.00,+0.00,+1.00,-3.00,-1.00,-2.00,-1.00,+1.00
+2.00,-3.00,+0.00,+0.00,+0.00,+3.00,+0.00,-1.00,-4.00,-4.00,-2.00,-1.00,+8.00,+2.00,-1.00,+3.00
-4.00,+2.00,-2.00,-2.00,-1.00,-2.00,+2.00,+0.00,-3.00,-7.00,-3.00,+1.00,-7.00,-3.00,-2.00,-2.00
-1.00,-3.00,+0.00,-1.00,+0.00,-1.00,-2.00,-6.00,-2.00,+1.00,+2.00,-3.00,-2.00,+1.00,-2.00,-1.00
-14.00,-13.00,-3.00,-1.00,-2.00,-3.00,-1.00,-9.00,-3.00,+0.00,-2.00,+0.00,-6.00,-1.00,-1.00,-1.00
