-1.00,+1.00,+0.00,-1.00,+3.00,+6.00,+0.00,+3.00,-10.00,-5.00,-3.00,-2.00,+0.00,-1.00,-1.00,+1.00
-10.00,+3.00,+1.00,+1.00,-13.00,-3.00,-6.00,-9.00,-4.00,-1.00,-2.00,-1.00,-2.00,+0.00,+1.00,+6.00
+0.00,-4.00,-2.00,-2.00,+9.00,+1.00,+4.00,+7.00,+6.00,+2.00,-1.00,-2.00,-4.00,-2.00,-1.00,-1.00
+2.00,-2.00,-1.00,-2.00,-4.00,+1.00,+1.00,-1.00,-1.00,-4.00,-1.00,+2.00,+1.00,-1.00,-3.00,-12.00
-1.00,+1.00,-1.00,+2.00,+1.00,-5.00,-1.00,-2.00,+9.00,+3.00,+0.00,-1.00,-3.00,+0.00,-2.00,-5.00
-1.00,-2.00,-2.00,+0.00,+4.00,+1.00,+1.00,+0.00,-11.00,-19.00,-5.00,+2.00,+3.00,+0.00,-3.00,-16.00
+0.00,-1.00,+0.00,-1.00,-6.00,-1.00,+0.00,-1.00,+4.00,+13.00,-4.00,-11.00,-8.00,-1.00,+1.00,-5.00
-2.00,-2.00,+0.00,+0.00,+0.00,-2.00,-1.00,-3.00,-5.00,+8.00,+1.00,+8.00,+3.00,-2.00,-1.00,-8.00
+3.00,+5.00,+2.00,+0.00,+3.00,+1.00,+2.00,-2.00,+4.00,-6.00,-4.00,-14.00,-7.00,-2.00,+0.00,+0.00
-1.00,-2.00,-4.00,-2.00,+0.00,+0.00,-1.00,+1.00,-11.00,-11.00,-6.00,-6.00,-3.00,-1.00,-2.00,+9.00
-2.00,+0.00,-2.00,-2.00,-21.00,-5.00,-1.00,-2.00,+6.00,+7.00,+2.00,-2.00,-3.00,-4.00,-1.00,-4.00
+3.00,+1.00,+1.00,-1.00,+14.00,+0.00,-1.00,+0.00,+2.00,-3.00,-4.00,+4.00,+15.00,+0.00,-2.00,-5.00
-1.00,-6.00,-2.00,-5.00,-11.00,-3.00,+1.00,+3.00,-7.00,-1.00,+0.00,+1.00,-27.00,-1.00,+1.00,-10.00
+1.00,+0.00,-3.00,-2.00,-3.00,-9.00,-5.00,-2.00,+6.00,+3.00,+0.00,+0.00,+26.00,-1.00,-3.00,-8.00
-4.00,-3.00,-2.00,+2.00,-6.00,+2.00,-2.00,-2.00,-14.00,-13.00,-5.00,-4.00,-13.00,+0.00,+1.00,-4.00
-2.00,-6.00,-5.00,-5.00,+1.00,+2.00,+1.00,-1.00,-1.00,-1.00,+2.00,-8.00,-8.00,-1.00,-1.00,-5.00
+1.00,+0.00,+0.00,+1.00,+18.00,+8.00,+0.00,+1.00,+6.00,-1.00,+3.00,+1.00,+7.00,+0.00,-2.00,-1.00
-2.00,+1.00,+1.00,+1.00,+5.00,+2.00,-3.00,-2.00,+4.00,+0.00,-4.00,-6.00,-9.00,-2.00,+0.00,-6.00
+8.00,+3.00,+1.00,-1.00,-1.00,-4.00,+2.00,+3.00,-5.00,+1.00,+3.00,+6.00,+4.00,+0.00,+0.00,-1.00
-2.00,-2.00,+0.00,-1.00,-10.00,-5.00,-4.00,+1.00,-6.00,-1.00,-2.00,+1.00,-1.00,-2.00,+0.00,-5.00
-2.00,-2.00,-3.00,-3.00,-2.00,+0.00,-1.00,-2.00,+9.00,-3.00,-5.00,+3.00,+5.00,+0.00,+3.00,+8.00
+4.00,+3.00,-1.00,-3.00,-2.00,-1.00,+1.00,+4.00,-9.00,+2.00,-2.00,+3.00,-5.00,+0.00,-3.00,-10.00
-6.00,-2.00,+1.00,-2.00,+2.00,-2.00,+2.00,-1.00,-22.00,-23.00,-4.00,-6.00,+2.00,-1.00,-5.00,-10.00
+7.00,+1.00,-1.00,+0.00,-2.00,-1.00,-3.00,-7.00,+29.00,+22.00,+5.00,+3.00,-5.00,+0.00,+0.00,+7.00
+12.00,-7.00,-9.00,-5.00,-2.00,-2.00,+0.00,-7.00,-7.00,+6.00,-1.00,+1.00,+4.00,+0.00,-1.00,-3.00
-3.00,+24.00,+0.00,-1.00,-1.00,+1.00,+0.00,+8.00,+0.00,+5.00,+2.00,-4.00,-7.00,-1.00,+1.00,+1.00
-7.00,-36.00,+2.00,+3.00,+3.00,+0.00,-2.00,-3.00,+6.00,-7.00,+0.00,+11.00,+8.00,+3.00,-1.00,+5.00
+9.00,+25.00,-10.00,-7.00,-5.00,-4.00,+2.00,+18.00,-21.00,-12.00,-7.00,-8.00,-4.00,-4.00,-5.00,-2.00
-8.00,-10.00,+5.00,-2.00,-4.00,-6.00,-1.00,-4.00,+15.00,+0.00,-2.00,+0.00,+2.00,-2.00,-3.00,-4.00
+5.00,+6.00,-2.00,-7.00,-5.00,-2.00,-2.00,-6.00,-18.00,-11.00,-4.00,-3.00,-3.00,-2.00,-1.00,-1.00
-6.00,-10.00,-2.00,+1.00,+6.00,+4.00,-1.00,-2.00,+4.00,+10.00,+1.00,+0.00,-1.00,+0.00,-1.00,-4.00
-11.00,-5.00,+2.00,+1.00,-3.00,-1.00,-1.00,-4.00,-3.00,-13.00,-3.00,-1.00,-4.00,-3.00,-1.00,-2.00
+6.00,-2.00,+7.00,+5.00,+0.00,+1.00,+0.00,+4.00,-6.00,+15.00,+3.00,+0.00,+3.00,+1.00,-1.00,-1.00
-2.00,+1.00,+1.00,+5.00,+2.00,+2.00,+0.00,+0.00,+5.00,-4.00,-3.00,+2.00,+0.00,-1.00,-1.00,-1.00
-3.00,+4.00,-6.00,-10.00,-20.00,-6.00,-5.00,-4.00,-7.00,-5.00,-4.00,+3.00,+10.00,-2.00,-3.00,-5.00
-1.00,-12.00,-7.00,-2.00,+10.00,+1.00,-1.00,-9.00,+1.00,-3.00,-5.00,-7.00,-8.00,-1.00,+0.00,-2.00
-3.00,+17.00,-2.00,-4.00,-3.00,-14.00,-2.00,-1.00,+10.00,-5.00,+1.00,+8.00,+0.00,-1.00,+0.00,+2.00
-1.00,-15.00,+0.00,+3.00,+6.00,+12.00,+1.00,-4.00,+4.00,+10.00,+0.00,-27.00,-26.00,-3.00,-2.00,+1.00
+0.00,+5.00,+2.00,+1.00,-17.00,-8.00,-1.00,+0.00,-1.00,-9.00,-3.00,-11.00,-8.00,-3.00,+0.00,+5.00
+0.00,-2.00,+2.00,+3.00,+11.00,-1.00,-1.00,-1.00,+1.00,+6.00,+2.00,+1.00,+2.00,+1.00,+0.00,+9.00
-11.00,-1.00,-2.00,-2.00,+2.00,+9.00,+1.00,+1.00,-20.00,-11.00,+0.00,+2.00,+1.00,-2.00,-5.00,+1.00
-3.00,-9.00,-1.00,+0.00,+12.00,-4.00,-4.00,-3.00,+4.00,+0.00,-1.00,+6.00,+6.00,+0.00,-3.00,+1.00
+1.00,+3.00,-1.00,+1.00,+6.00,+0.00,-2.00,-8.00,-6.00,-1.00,+0.00,+2.00,+1.00,-2.00,-3.00,-3.00
+7.00,+0.00,-4.00,-6.00,-10.00,-2.00,+1.00,+4.00,+20.00,+0.00,-3.00,-2.00,+0.00,-1.00,-4.00,-7.00
-2.00,-8.00,-8.00,-6.00,+2.00,+1.00,-1.00,+2.00,+4.00,-11.00,+0.00,+5.00,+6.00,+3.00,+3.00,+14.00
+0.00,-5.00,-3.00,-4.00,-8.00,-4.00,+0.00,-2.00,+5.00,+25.00,+5.00,+5.00,+2.00,+1.00,+3.00,-1.00
-1.00,+23.00,+0.00,+2.00,+10.00,+2.00,-1.00,+0.00,+12.00,+9.00,+0.00,-1.00,-1.00,-2.00,-3.00,+0.00
+6.00,-31.00,+5.00,+2.00,-12.00,-2.00,+0.00,+2.00,-39.00,-16.00,-3.00,+3.00,+0.00,-3.00,-2.00,-8.00
+4.00,-10.00,+1.00,+2.00,-1.00,+0.00,-2.00,-2.00,+20.00,-2.00,-5.00,-5.00,+0.00,-2.00,-5.00,-8.00
+1.00,+22.00,+1.00,-2.00,-7.00,-1.00,+1.00,+1.00,-8.00,+0.00,-3.00,+0.00,-2.00,+0.00,+0.00,+1.00
-9.00,+11.00,-4.00,-3.00,+3.00,-1.00,-2.00,-4.00,-23.00,-28.00,-3.00,+9.00,+9.00,+2.00,-2.00,-13.00
+0.00,-2.00,+6.00,+5.00,+8.00,+6.00,+3.00,-3.00,-14.00,+16.00,+4.00,-9.00,-9.00,+0.00,+2.00,-5.00
-8.00,-12.00,+0.00,-1.00,-7.00,-3.00,+1.00,+10.00,+6.00,-14.00,-1.00,-5.00,+0.00,-2.00,+0.00,-2.00
-2.00,-16.00,-1.00,+3.00,-1.00,-3.00,+1.00,+2.00,+8.00,+1.00,-4.00,+6.00,+11.00,+0.00,+0.00,+14.00
+1.00,+3.00,+4.00,-5.00,+1.00,+1.00,-1.00,+1.00,+3.00,+6.00,-4.00,-8.00,-5.00,-4.00,+0.00,+12.00
-14.00,+6.00,-9.00,-5.00,-11.00,-5.00,-4.00,+6.00,-5.00,-17.00,-6.00,+6.00,+7.00,+11.00,+3.00,+19.00
-8.00,+6.00,+3.00,+1.00,+4.00,+1.00,-4.00,-7.00,-25.00,-7.00,-4.00,+1.00,+4.00,-19.00,+1.00,+6.00
+6.00,+4.00,+8.00,+2.00,-2.00,-1.00,+1.00,+0.00,+18.00,+1.00,+4.00,+14.00,+8.00,+3.00,-13.00,+1.00
-5.00,-12.00,-4.00,+2.00,+6.00,-1.00,+2.00,+2.00,+0.00,-2.00,-5.00,-27.00,-25.00,-8.00,+3.00,+12.00
+7.00,-3.00,+5.00,+1.00,-1.00,+0.00,+4.00,-1.00,+4.00,-3.00,+0.00,+6.00,+5.00,+18.00,+0.00,+4.00
+4.00,+14.00,-3.00,-3.00,-6.00,-5.00,-6.00,-4.00,-14.00,-3.00,-5.00,-26.00,-26.00,+0.00,+1.00,+2.00
-7.00,-14.00,-4.00,-5.00,-10.00,-3.00,-5.00,-1.00,-26.00,-8.00,-3.00,-3.00,-2.00,-4.00,+1.00,-5.00
+8.00,+25.00,+0.00,-3.00,-2.00,+3.00,+0.00,+0.00,+16.00,+8.00,+0.00,+9.00,+6.00,+4.00,-1.00,+9.00
-7.00,-1.00,+0.00,-2.00,-14.00,-10.00,-4.00,-5.00,+10.00,+9.00,+4.00,-3.00,-2.00,-4.00,+2.00,+9.00
-1.00,+11.00,+4.00,+5.00,+22.00,+0.00,-1.00,+1.00,+8.00,-9.00,-4.00,+10.00,+9.00,+2.00,-2.00,+0.00
+8.00,-1.00,+1.00,+5.00,+19.00,+6.00,+5.00,+0.00,-3.00,+3.00,+3.00,+1.00,+0.00,+2.00,+2.00,+2.00
-5.00,-14.00,-6.00,-4.00,-4.00,-4.00,-3.00,-4.00,+1.00,+3.00,+1.00,+2.00,+1.00,-2.00,-3.00,-6.00
-2.00,+4.00,-5.00,-3.00,-6.00,+2.00,+2.00,-3.00,+14.00,+5.00,+0.00,-4.00,-2.00,-7.00,+0.00,+3.00
+13.00,-2.00,-5.00,-9.00,-9.00,-3.00,+0.00,+3.00,-31.00,-17.00,-2.00,+4.00,+5.00,+0.00,-3.00,-14.00
+0.00,-8.00,-1.00,-1.00,-8.00,-4.00,-3.00,+1.00,+40.00,+13.00,+0.00,-4.00,-5.00,-4.00,+1.00,+0.00
-5.00,+19.00,+0.00,+0.00,-4.00,+0.00,-2.00,+1.00,-26.00,-6.00,-2.00,+0.00,-1.00,-1.00,-7.00,-20.00
-4.00,-9.00,+14.00,+8.00,+7.00,+5.00,+1.00,+3.00,+9.00,+14.00,+1.00,-2.00,-2.00,-6.00,-3.00,-6.00
+0.00,-10.00,-2.00,+2.00,-5.00,-1.00,-3.00,-6.00,-2.00,+3.00,-1.00,+2.00,+1.00,+2.00,-2.00,-6.00
-3.00,-5.00,-1.00,-2.00,+2.00,-2.00,-2.00,-4.00,-14.00,-9.00,+3.00,+3.00,+13.00,+6.00,-1.00,-12.00
-8.00,-12.00,-7.00,-7.00,-3.00,-5.00,+0.00,+1.00,-6.00,-10.00,-3.00,+6.00,-15.00,-1.00,-3.00,-20.00
+3.00,+1.00,+3.00,-3.00,-8.00,+1.00,-1.00,+0.00,+48.00,-2.00,+1.00,-5.00,+0.00,-7.00,-6.00,-5.00
-14.00,-12.00,-3.00,-1.00,+11.00,+1.00,+1.00,-4.00,+22.00,+8.00,+2.00,-2.00,-2.00,+0.00,+8.00,-8.00
+13.00,+32.00,+4.00,+3.00,-6.00,+6.00,+22.00,+13.00,-11.00,+17.00,+0.00,+2.00,-1.00,-2.00,+6.00,-16.00
+2.00,-15.00,+6.00,+7.00,+8.00,-7.00,-30.00,-11.00,-10.00,+0.00,+4.00,+5.00,+19.00,+10.00,+3.00,-5.00
-11.00,+1.00,-11.00,-8.00,-10.00,+5.00,-4.00,-8.00,-16.00,-6.00,-3.00,-6.00,-10.00,-13.00,-6.00,-19.00
-7.00,+15.00,+5.00,+2.00,+10.00,-1.00,-4.00,-6.00,-7.00,-4.00,-5.00,+3.00,+7.00,+1.00,-3.00,-9.00
-2.00,+31.00,-3.00,-1.00,+3.00,-1.00,+1.00,-4.00,+15.00,-8.00,-1.00,-8.00,-32.00,-23.00,-5.00,-7.00
-5.00,-32.00,-3.00,-4.00,-4.00,+25.00,+10.00,+1.00,+5.00,+5.00,+0.00,+2.00,+12.00,+19.00,+11.00,-8.00
+0.00,-6.00,-4.00,-3.00,-1.00,-24.00,-28.00,-19.00,-11.00,-9.00,-4.00,-3.00,+6.00,-3.00,-13.00,-3.00
-3.00,-21.00,-2.00,+0.00,-53.00,-11.00,+39.00,+20.00,+13.00,+12.00,+3.00,+1.00,+5.00,-2.00,-5.00,-4.00
-1.00,+1.00,+0.00,+3.00,+46.00,-19.00,-15.00,+3.00,-41.00,-11.00,-8.00,-3.00,+2.00,-2.00,-5.00,-6.00
+7.00,+4.00,+5.00,+4.00,-5.00,-6.00,-1.00,+7.00,+29.00,+2.00,+3.00,-2.00,-7.00,-6.00,+1.00,+16.00
-6.00,-4.00,-4.00,+0.00,+22.00,+9.00,+4.00,+1.00,-4.00,-9.00,-6.00,-4.00,-3.00,+2.00,+4.00,-2.00
+4.00,+2.00,-4.00,-2.00,+7.00,+6.00,-7.00,-16.00,+12.00,+5.00,+1.00,+10.00,+6.00,+5.00,+5.00,+2.00
+9.00,-7.00,-1.00,-3.00,-26.00,-7.00,+5.00,-3.00,+13.00,+11.00,+2.00,-6.00,-1.00,+3.00,-4.00,-3.00
-2.00,-2.00,-2.00,-2.00,+2.00,-4.00,-4.00,+0.00,+3.00,+3.00,-1.00,-10.00,-26.00,-15.00,-2.00,+0.00
-1.00,+6.00,-1.00,+0.00,-1.00,+6.00,+1.00,+4.00,+5.00,+7.00,+0.00,+2.00,+21.00,+8.00,+4.00,-6.00
+1.00,+3.00,+4.00,+2.00,-5.00,-8.00,-4.00,-6.00,-22.00,-9.00,+0.00,+6.00,-7.00,+2.00,-8.00,-7.00
-2.00,-3.00,+2.00,-1.00,-8.00,+6.00,-14.00,-5.00,-60.00,-42.00,-8.00,+5.00,+13.00,+7.00,+1.00,-8.00
-2.00,-30.00,-6.00,-1.00,+2.00,-1.00,+6.00,+0.00,+18.00,+3.00,+0.00,-6.00,-6.00,-5.00,+4.00,+4.00
+15.00,+104.00,-1.00,-4.00,-1.00,-2.00,-5.00,+2.00,+39.00,+6.00,+3.00,+5.00,-6.00,-5.00,-7.00,-8.00
+0.00,-3.00,-1.00,-2.00,-2.00,-2.00,-2.00,+4.00,-4.00,+12.00,+2.00,-4.00,-4.00,+0.00,+8.00,+2.00
-26.00,-85.00,-8.00,-4.00,-7.00,+3.00,+6.00,-4.00,+7.00,-16.00,+1.00,-1.00,+1.00,+0.00,-22.00,-4.00
+10.00,+37.00,+12.00,+5.00,+8.00,+2.00,-10.00,-1.00,-13.00,+9.00,-6.00,-8.00,+2.00,+3.00,-1.00,-1.00
+9.00,-22.00,-2.00,-1.00,-3.00,-2.00,+12.00,-2.00,-52.00,-3.00,-1.00,+5.00,+10.00,+7.00,+26.00,+7.00
-15.00,+46.00,+0.00,-4.00,-4.00,-4.00,-15.00,+11.00,+32.00,-1.00,-3.00,+2.00,-7.00,+20.00,-22.00,+5.00
-9.00,+27.00,+0.00,-4.00,-44.00,-11.00,-17.00,+5.00,-30.00,-7.00,+1.00,+19.00,+33.00,-16.00,-22.00,-16.00
+1.00,+1.00,+0.00,+4.00,+62.00,+19.00,+51.00,+8.00,-4.00,-11.00,+5.00,+5.00,-21.00,-9.00,-22.00,+8.00
-8.00,-26.00,-6.00,+0.00,+5.00,-1.00,+11.00,+6.00,+2.00,-3.00,-4.00,-18.00,-29.00,+1.00,+2.00,+13.00
-1.00,+2.00,-4.00,-3.00,-16.00,+2.00,-17.00,-14.00,-29.00,-5.00,-6.00,-23.00,-8.00,-17.00,-26.00,-11.00
-1.00,-27.00,-2.00,-2.00,+10.00,-11.00,-17.00,-6.00,+25.00,-7.00,-5.00,-16.00,-18.00,+10.00,+77.00,+18.00
-8.00,+5.00,+0.00,+0.00,-11.00,+1.00,+17.00,-2.00,-55.00,+0.00,-1.00,+8.00,+30.00,+4.00,-72.00,-43.00
-6.00,-7.00,+2.00,+1.00,-1.00,-9.00,-7.00,-5.00,+55.00,+20.00,+1.00,+16.00,+11.00,+13.00,+42.00,+43.00
+1.00,-26.00,-2.00,+0.00,+6.00,+9.00,-7.00,-3.00,-40.00,-11.00,+2.00,-12.00,-23.00,-36.00,-27.00,+5.00
-3.00,+9.00,-6.00,-4.00,+6.00,+9.00,+64.00,+3.00,+101.00,+24.00,+4.00,-6.00,-11.00,-33.00,-33.00,+15.00
+3.00,+2.00,-1.00,-3.00,-9.00,-4.00,-16.00,-3.00,-6.00,+30.00,+3.00,-1.00,-11.00,+17.00,-1.00,-6.00
-5.00,-7.00,+0.00,+1.00,+16.00,+12.00,+9.00,-3.00,+6.00,-10.00,+1.00,-1.00,-12.00,+6.00,+3.00,+6.00
+5.00,+12.00,-1.00,-2.00,-7.00,+16.00,+2.00,+0.00,+3.00,-19.00,-4.00,+13.00,+41.00,+12.00,-8.00,+0.00
+2.00,-3.00,+0.00,-2.00,+0.00,-1.00,-19.00,-4.00,+1.00,+39.00,+7.00,-1.00,-10.00,-1.00,+19.00,+22.00
-4.00,-14.00,-5.00,-2.00,-5.00,-35.00,-13.00,-4.00,+22.00,-24.00,-3.00,+7.00,+3.00,-26.00,+18.00,-2.00
+6.00,+5.00,+7.00,+3.00,-42.00,-9.00,+22.00,+6.00,-53.00,-11.00,+1.00,-1.00,-22.00,+9.00,+4.00,+15.00
-8.00,-35.00,-7.00,-1.00,+40.00,-13.00,-23.00,-11.00,+22.00,+11.00,+7.00,-10.00,-29.00,+14.00,+3.00,+7.00
+8.00,+64.00,-3.00,-5.00,+9.00,+20.00,-12.00,-3.00,-42.00,-19.00,-9.00,-10.00,-16.00,+9.00,-38.00,-41.00
-6.00,-40.00,-10.00,-5.00,-5.00,+16.00,+11.00,-1.00,+52.00,+6.00,-4.00,-4.00,+71.00,-1.00,-2.00,+12.00
-3.00,-37.00,+1.00,+1.00,-2.00,-17.00,-20.00,-1.00,-21.00,-22.00,-7.00,-5.00,+20.00,-13.00,-21.00,-64.00
+12.00,-2.00,+4.00,+1.00,-12.00,+12.00,+8.00,+2.00,+3.00,+12.00,+1.00,+13.00,-5.00,-6.00,+38.00,+63.00
+11.00,+32.00,+10.00,+5.00,-9.00,+3.00,-18.00,-17.00,+23.00,+8.00,+0.00,+8.00,+4.00,+20.00,-8.00,+2.00
+8.00,+29.00,+3.00,+1.00,+29.00,+0.00,+19.00,+10.00,-6.00,-2.00,-5.00,-14.00,-49.00,+2.00,+20.00,+36.00
-5.00,+7.00,+1.00,-3.00,-3.00,-6.00,-5.00,+1.00,+17.00,-1.00,-1.00,+3.00,+4.00,-26.00,-35.00,-28.00
-12.00,-20.00,+0.00,+6.00,+30.00,+4.00,-39.00,-17.00,-37.00,-24.00,-9.00,-9.00,+21.00,+3.00,-5.00,-6.00
-6.00,-13.00,-6.00,-1.00,-5.00,+0.00,+48.00,+9.00,+28.00,+22.00,-2.00,-3.00,-54.00,-5.00,-1.00,-17.00
-6.00,+23.00,-12.00,-9.00,-43.00,-26.00,-26.00,-7.00,-74.00,-37.00,-9.00,+9.00,-3.00,-6.00,+6.00,-19.00
-21.00,-72.00,-6.00,-4.00,-14.00,+18.00,-96.00,-38.00,+7.00,-39.00,-3.00,+19.00,+21.00,+6.00,-5.00,+10.00
+20.00,+28.00,+4.00,+2.00,+7.00,-4.00,+105.00,+38.00,+51.00,+52.00,+5.00,-4.00,-30.00,-23.00,-8.00,-17.00
-3.00,-55.00,+1.00,+2.00,+24.00,+55.00,-6.00,+10.00,-30.00,+1.00,+5.00,-21.00,+25.00,+11.00,+74.00,+36.00
-1.00,-5.00,+2.00,+1.00,-35.00,-57.00,-9.00,-11.00,+38.00,+8.00,-3.00,+10.00,-19.00,+10.00,+27.00,+34.00
-8.00,+17.00,-2.00,+4.00,+68.00,+44.00,-4.00,+1.00,-22.00,-47.00,-13.00,-13.00,+26.00,-21.00,-19.00,-43.00
-13.00,+27.00,-7.00,-4.00,-11.00,-7.00,-44.00,-15.00,-79.00,+40.00,+10.00,-4.00,-6.00,+19.00,+14.00,-17.00
-11.00,-41.00,-4.00,-1.00,-13.00,-38.00,-41.00,-5.00,+113.00,-14.00,+5.00,+4.00,-1.00,+5.00,-9.00,+53.00
+7.00,+21.00,+4.00,-7.00,-33.00,+19.00,+44.00,-5.00,-37.00,+20.00,-1.00,-2.00,+9.00,+3.00,+15.00,-34.00
+18.00,+57.00,+3.00,+5.00,+15.00,+8.00,+2.00,-3.00,+46.00,+12.00,-2.00,+0.00,-10.00,+3.00,-13.00,+54.00
+2.00,-12.00,-2.00,-6.00,+5.00,+1.00,-44.00,+13.00,-22.00,-46.00,-8.00,+7.00,+49.00,+7.00,+20.00,+0.00
-10.00,-6.00,-5.00,-8.00,+6.00,-10.00,+58.00,+5.00,-33.00,+3.00,-6.00,+5.00,-56.00,-10.00,-12.00,-5.00
-19.00,-20.00,-8.00,-4.00,-5.00,+6.00,+11.00,-16.00,+13.00,-7.00,+2.00,+12.00,+12.00,+0.00,-41.00,-4.00
+58.00,-39.00,-3.00,-3.00,-48.00,-43.00,-24.00,+1.00,-8.00,+13.00,-1.00,-28.00,-9.00,+12.00,+71.00,+14.00
+1.00,-7.00,-3.00,-1.00,-11.00,+30.00,+52.00,+9.00,-4.00,-13.00,-7.00,-13.00,-24.00,-26.00,-26.00,-54.00
-16.00,+63.00,+14.00,+7.00,+8.00,-30.00,-55.00,-17.00,-21.00,+10.00,-4.00,+10.00,+11.00,-2.00,+1.00,-5.00
+45.00,-13.00,+0.00,+4.00,+45.00,+30.00,-35.00,+9.00,+23.00,+18.00,+8.00,+9.00,-5.00,+11.00,+21.00,+33.00
-17.00,+19.00,-1.00,-6.00,+1.00,+39.00,+11.00,-2.00,+11.00,+17.00,+4.00,-15.00,-48.00,-16.00,-35.00,-15.00
-24.00,-33.00,-4.00,+2.00,+6.00,-52.00,+10.00,+21.00,-16.00,-24.00,-15.00,-18.00,-1.00,-16.00,-22.00,-16.00
+42.00,+15.00,-4.00,-4.00,-16.00,+6.00,-18.00,+5.00,-57.00,-33.00,+4.00,-11.00,-40.00,-25.00,+30.00,-24.00
-46.00,-3.00,+1.00,+2.00,-4.00,-10.00,-1.00,+8.00,+79.00,+9.00,-3.00,-4.00,+35.00,+1.00,-2.00,+38.00
-44.00,-23.00,-2.00,+2.00,+1.00,+2.00,+28.00,-13.00,-51.00,+59.00,+10.00,+18.00,-6.00,+1.00,+35.00,-8.00
+39.00,+38.00,+2.00,-4.00,-6.00,-14.00,-17.00,+13.00,-39.00,-35.00,+4.00,-1.00,+2.00,+11.00,+30.00,+23.00
+3.00,-36.00,-7.00,-5.00,-27.00,-8.00,-55.00,-44.00,+45.00,+43.00,-2.00,+3.00,+57.00,+5.00,-44.00,+10.00
+8.00,-30.00,+5.00,+6.00,+14.00,+58.00,+81.00,+5.00,-25.00,-20.00,+2.00,-12.00,-22.00,-5.00,+22.00,-17.00
+31.00,+37.00,+6.00,+7.00,+26.00,-16.00,+33.00,+45.00,+29.00,-27.00,-6.00,-13.00,-6.00,+0.00,-19.00,+27.00
+3.00,+18.00,+10.00,+2.00,+0.00,+9.00,-11.00,-21.00,-12.00,+21.00,-7.00,+10.00,+4.00,-17.00,-14.00,-21.00
-75.00,-47.00,-13.00,-5.00,-17.00,-3.00,-28.00,+12.00,+12.00,-16.00,+2.00,+10.00,+33.00,+24.00,+9.00,+11.00
+15.00,+42.00,-6.00,-7.00,-12.00,+37.00,-38.00,+9.00,+15.00,+41.00,-5.00,-15.00,-12.00,-6.00,-23.00,-11.00
-25.00,-10.00,-13.00,-4.00,+3.00,-21.00,-31.00,-31.00,-50.00,-26.00,-10.00,-10.00,+13.00,-3.00,+29.00,-39.00
+46.00,+8.00,+0.00,-10.00,+25.00,+78.00,+93.00,+54.00,-11.00,+10.00,+7.00,+8.00,-2.00,-5.00,-9.00,+4.00
+30.00,+31.00,-1.00,-2.00,+4.00,-72.00,-14.00,-37.00,+13.00,+3.00,-2.00,-29.00,-70.00,-11.00,-40.00,-3.00
-31.00,-89.00,-1.00,+4.00,-35.00,-57.00,-31.00,-29.00,-30.00,-15.00,-3.00,+1.00,+5.00,-1.00,+4.00,-15.00
+4.00,-6.00,+7.00,+11.00,+53.00,-3.00,+41.00,+54.00,+1.00,+1.00,+2.00,+8.00,+5.00,+1.00,-17.00,+0.00
-5.00,+53.00,+12.00,+3.00,-13.00,+31.00,-47.00,-22.00,+25.00,-15.00,-8.00,+4.00,-9.00,+13.00,+24.00,+1.00
-2.00,+33.00,+10.00,+3.00,+2.00,-17.00,+16.00,+22.00,-38.00,-17.00,-8.00,+13.00,+18.00,+13.00,+4.00,+10.00
-46.00,-7.00,-10.00,-11.00,-15.00,-14.00,-39.00,-23.00,-8.00,-13.00,-7.00,-18.00,-24.00,-11.00,-18.00,-37.00
-68.00,-19.00,-11.00,-7.00,-26.00,-39.00,+18.00,-4.00,-13.00,+0.00,+3.00,+2.00,-17.00,-6.00,-14.00,+10.00
-21.00,-53.00,-11.00,-3.00,-56.00,-49.00,-9.00,-25.00,+37.00,+12.00,+4.00,+2.00,-9.00,+7.00,-2.00,+7.00
+4.00,-20.00,-3.00,+5.00,+95.00,+46.00,+36.00,-3.00,-37.00,-26.00,-3.00,+14.00,+50.00,+1.00,-10.00,-2.00
-4.00,+37.00,+12.00,+6.00,-10.00,+32.00,-34.00,-8.00,-19.00,-17.00,-5.00,-14.00,-16.00,+4.00,+12.00,-6.00
+31.00,-34.00,+2.00,+4.00,+23.00,+17.00,+39.00,+20.00,-41.00,+5.00,+7.00,+17.00,+26.00,+4.00,-7.00,-9.00
-4.00,-11.00,-14.00,-8.00,-17.00,-30.00,-31.00,-39.00,-23.00,+18.00,+1.00,-1.00,+13.00,-4.00,-7.00,+13.00
-20.00,+11.00,-6.00,-11.00,-38.00,+44.00,-21.00,-22.00,-61.00,-9.00,-1.00,-3.00,+9.00,+5.00,+5.00,-35.00
+48.00,+10.00,+2.00,-4.00,+1.00,+38.00,+18.00,+54.00,+18.00,+12.00,+9.00,-4.00,-1.00,-5.00,+9.00,+22.00
+5.00,+15.00,+7.00,+1.00,+0.00,-18.00,-10.00,+28.00,+0.00,+6.00,-6.00,+1.00,-2.00,-2.00,-25.00,-20.00
-37.00,-16.00,+10.00,+29.00,+45.00,-25.00,-19.00,-13.00,-2.00,-48.00,-11.00,-1.00,-9.00,+0.00,+6.00,+33.00
+72.00,+24.00,+18.00,+13.00,-5.00,-47.00,-46.00,+12.00,+34.00,+29.00,+0.00,+2.00,-6.00,+1.00,+10.00,-8.00
-67.00,-38.00,-13.00,-13.00,-3.00,-2.00,-11.00,+7.00,+16.00,-2.00,+3.00,+29.00,+41.00,+1.00,-7.00,+7.00
+16.00,-64.00,-6.00,-21.00,-42.00,+26.00,-17.00,-14.00,+10.00,+36.00,+3.00,-35.00,-47.00,-10.00,-9.00,+5.00
-55.00,+28.00,-18.00,-22.00,-42.00,-29.00,+25.00,-17.00,+37.00,+24.00,+5.00,+13.00,+19.00,+14.00,+18.00,-9.00
-11.00,+19.00,-14.00,-4.00,+34.00,+44.00,+12.00,-3.00,-23.00,-20.00,+1.00,+11.00,-19.00,+1.00,-15.00,-6.00
+28.00,-81.00,+9.00,+17.00,+1.00,-23.00,-1.00,-12.00,+10.00,-14.00,-9.00,-3.00,-25.00,-19.00,+10.00,+4.00
-4.00,+118.00,+21.00,+6.00,-5.00,-16.00,-2.00,+1.00,-17.00,-28.00,+0.00,+6.00,+99.00,+0.00,-14.00,+12.00
+29.00,-21.00,-15.00,-8.00,-16.00,-5.00,-5.00,+2.00,+33.00,+24.00,-1.00,-13.00,-12.00,-13.00,-8.00,-17.00
-45.00,+1.00,-3.00,-5.00,-9.00,+1.00,+15.00,-2.00,-32.00,-12.00,-9.00,-4.00,-2.00,+18.00,+24.00,-24.00
+20.00,-17.00,-5.00,+2.00,+10.00,+33.00,-2.00,-9.00,-49.00,-1.00,+7.00,+9.00,+16.00,+1.00,-26.00,+16.00
-17.00,-9.00,+1.00,+3.00,-14.00,-27.00,+12.00,-17.00,+7.00,-27.00,-7.00,+5.00,-14.00,+0.00,+17.00,-9.00
+26.00,-19.00,+0.00,+9.00,+23.00,+14.00,-8.00,-21.00,+20.00,-16.00,+1.00,+10.00,+6.00,+2.00,-12.00,+12.00
+2.00,-19.00,-15.00,-9.00,-18.00,-27.00,+26.00,+7.00,+19.00,+1.00,-3.00,-7.00,+9.00,-10.00,-12.00,-17.00
-22.00,+38.00,+10.00,-14.00,+5.00,-22.00,+7.00,+6.00,+7.00,+31.00,+2.00,-6.00,-13.00,-6.00,-47.00,-13.00
+38.00,-11.00,-10.00,+0.00,-9.00,-7.00,-28.00,-4.00,-3.00,-1.00,+4.00,+0.00,-6.00,+4.00,+38.00,-10.00
+37.00,+30.00,+17.00,+3.00,-23.00,+0.00,-21.00,-11.00,-59.00,-38.00,-10.00,-13.00,-1.00,+5.00,-5.00,-21.00
-10.00,-40.00,+1.00,+11.00,+70.00,+25.00,-20.00,+1.00,+35.00,+9.00,+4.00,+3.00,-1.00,-3.00,+10.00,+31.00
+6.00,+39.00,+1.00,+5.00,+14.00,-14.00,-5.00,+36.00,-1.00,-8.00,-2.00,+4.00,+18.00,+9.00,+5.00,-5.00
+11.00,-18.00,-9.00,-10.00,-4.00,+29.00,+0.00,-12.00,-2.00,+17.00,+5.00,-16.00,-28.00,-10.00,-33.00,-12.00
-27.00,-22.00,+11.00,+2.00,+5.00,+3.00,+12.00,+22.00,-20.00,-7.00,+3.00,+10.00,+27.00,+13.00,+17.00,-9.00
-47.00,+26.00,+4.00,+0.00,-29.00,-8.00,-3.00,-35.00,+60.00,-1.00,-7.00,-28.00,-55.00,-11.00,-15.00,-11.00
+19.00,-42.00,+1.00,+5.00,+29.00,+54.00,-5.00,-16.00,-26.00,-21.00,-7.00,-13.00,-12.00,+3.00,+19.00,-1.00
-20.00,+18.00,-1.00,+3.00,-12.00,+7.00,-4.00,-1.00,+5.00,+22.00,+0.00,+9.00,+7.00,-8.00,-19.00,-1.00
-80.00,-31.00,-8.00,-5.00,-30.00,-13.00,-26.00,-31.00,+3.00,-3.00,+1.00,-8.00,-18.00,+1.00,-12.00,-23.00
+87.00,+51.00,+11.00,-10.00,+25.00,+49.00,+53.00,+39.00,-8.00,-13.00,-3.00,+13.00,+6.00,+34.00,+14.00,+20.00
-36.00,+0.00,-24.00,-9.00,-15.00,-57.00,-15.00,-12.00,-3.00,+14.00,-2.00,-26.00,-38.00,-31.00,-8.00,-9.00
+4.00,-24.00,-17.00,-9.00,-38.00,-19.00,-3.00,-12.00,+8.00,-17.00,-5.00,+8.00,-12.00,-11.00,-3.00,-13.00
-5.00,-40.00,+3.00,+4.00,+70.00,+15.00,+9.00,+9.00,+21.00,+40.00,+2.00,-7.00,+10.00,+23.00,-5.00,+11.00
-21.00,-11.00,+1.00,+5.00,-38.00,-22.00,-22.00,-7.00,-41.00,-11.00,+8.00,+9.00,+19.00,-29.00,-6.00,+1.00
+52.00,+68.00,+12.00,-1.00,-28.00,-19.00,+8.00,+18.00,+11.00,-12.00,-8.00,+8.00,+7.00,+14.00,+22.00,-6.00
+4.00,-50.00,+2.00,+3.00,+24.00,+14.00,+3.00,-10.00,-68.00,-11.00,+3.00,+24.00,+58.00,+26.00,-12.00,+24.00
+0.00,+17.00,-4.00,-7.00,-12.00,+30.00,-21.00,+1.00,+55.00,+37.00,+6.00,-17.00,-21.00,-14.00,+9.00,-18.00
-14.00,+3.00,-2.00,+5.00,+54.00,-31.00,-63.00,+20.00,+28.00,+7.00,+1.00,-18.00,+21.00,-6.00,-1.00,+15.00
+21.00,+2.00,-3.00,-3.00,-21.00,-41.00,+53.00,-1.00,-12.00,-16.00,+0.00,-3.00,+3.00,+2.00,+5.00,+1.00
-27.00,+14.00,+6.00,+5.00,+1.00,+24.00,+10.00,-1.00,+22.00,+0.00,+0.00,+5.00,+0.00,+0.00,+20.00,+12.00
+53.00,-1.00,+4.00,+0.00,+2.00,+20.00,-33.00,-6.00,-10.00,-3.00,+1.00,-1.00,-20.00,-12.00,-29.00,+2.00
-1.00,-50.00,-6.00,-4.00,-32.00,+13.00,+90.00,+17.00,-36.00,-22.00,-13.00,+9.00,+45.00,+4.00,-18.00,-28.00
-10.00,+39.00,-2.00,+0.00,-15.00,-33.00,-54.00,-15.00,+15.00,-15.00,+0.00,-11.00,-16.00,+3.00,+13.00,+22.00
+54.00,-11.00,-6.00,-5.00,+13.00,-10.00,-3.00,+15.00,-57.00,-5.00,-4.00,+0.00,-40.00,-5.00,+8.00,-30.00
-53.00,-1.00,-2.00,+1.00,-3.00,+15.00,+35.00,+7.00,+38.00,+7.00,+2.00,+2.00,+8.00,-19.00,-40.00,+12.00
+23.00,+35.00,+10.00,+7.00,-22.00,+0.00,-7.00,+0.00,-14.00,-9.00,-3.00,+23.00,+36.00,-6.00,+41.00,-39.00
+26.00,+22.00,-5.00,-3.00,+29.00,+2.00,-18.00,-8.00,-22.00,+7.00,+8.00,-13.00,-35.00,-6.00,+2.00,+8.00
+31.00,-55.00,-8.00,-5.00,-11.00,+0.00,+4.00,-2.00,+36.00,+10.00,-6.00,-17.00,-21.00,+5.00,+13.00,-13.00
+28.00,+26.00,+7.00,-1.00,+4.00,-17.00,+7.00,-11.00,-53.00,+0.00,-2.00,+9.00,+33.00,-7.00,-25.00,+13.00
-74.00,-34.00,-3.00,-2.00,-30.00,-13.00,-14.00,-22.00,+41.00,+9.00,+3.00,-20.00,-23.00,-12.00,-78.00,-16.00
+20.00,+16.00,+5.00,+1.00,+21.00,+37.00,+15.00,+7.00,+11.00,+12.00,+4.00,+12.00,+32.00,-1.00,+86.00,+9.00
-35.00,+5.00,-4.00,-4.00,-61.00,-22.00,-26.00,-4.00,+34.00,-14.00,+1.00,-7.00,-2.00,+0.00,+20.00,+43.00
+16.00,+16.00,-9.00,-3.00,+30.00,+31.00,+13.00,+11.00,-12.00,-31.00,-5.00,-5.00,-54.00,-5.00,+7.00,-9.00
+11.00,-49.00,+10.00,+12.00,+68.00,+46.00,+21.00,+7.00,-18.00,-11.00,+1.00,+31.00,+98.00,-7.00,+16.00,+16.00
-17.00,-8.00,-8.00,-5.00,+5.00,+14.00,-10.00,-8.00,-2.00,+23.00,-2.00,-33.00,-71.00,-8.00,-70.00,-23.00
-4.00,+35.00,+5.00,+1.00,-5.00,-40.00,-18.00,-19.00,+21.00,+7.00,-2.00,-12.00,-10.00,+0.00,+8.00,+9.00
+26.00,-1.00,-8.00,-8.00,-39.00,-31.00,+47.00,-2.00,-13.00,-7.00,+3.00,+17.00,-10.00,-5.00,+15.00,+6.00
+7.00,+9.00,-5.00,-3.00,+19.00,+49.00,+80.00,+34.00,-25.00,-28.00,-16.00,-25.00,+26.00,-22.00,+2.00,-39.00
-16.00,-17.00,-1.00,-1.00,+5.00,-4.00,-6.00,+1.00,-1.00,+12.00,+8.00,+34.00,+35.00,+22.00,-11.00,-5.00
-14.00,+18.00,+13.00,+8.00,+27.00,+46.00,-2.00,+8.00,+27.00,+17.00,-3.00,-10.00,+58.00,-7.00,-29.00,+6.00
-2.00,-12.00,-3.00,+0.00,-6.00,-39.00,-20.00,+9.00,-20.00,+0.00,+1.00,-26.00,-9.00,+6.00,-7.00,+13.00
+26.00,-9.00,-4.00,-3.00,-18.00,-8.00,-26.00,-4.00,+24.00,+23.00,+1.00,-8.00,-59.00,+10.00,+15.00,+6.00
+6.00,+13.00,-2.00,-1.00,-6.00,+6.00,-11.00,-31.00,-28.00,-38.00,-8.00,+6.00,+13.00,-18.00,-9.00,-16.00
+20.00,+8.00,+6.00,+3.00,+22.00,+2.00,+35.00,-15.00,+7.00,-2.00,-3.00,+6.00,-19.00,+2.00,-17.00,+0.00
+9.00,-20.00,-2.00,-1.00,-28.00,-1.00,-20.00,+23.00,-11.00,-62.00,-11.00,+17.00,+24.00,+10.00,+33.00,-20.00
-18.00,+13.00,-2.00,+3.00,+49.00,+13.00,-1.00,-7.00,+54.00,+72.00,+19.00,-3.00,-22.00,+25.00,+10.00,+42.00
-39.00,-13.00,-1.00,+0.00,+3.00,-11.00,-11.00,-9.00,+44.00,+10.00,+1.00,+16.00,+22.00,+15.00,-60.00,+19.00
-45.00,+18.00,-12.00,-9.00,-10.00,+14.00,-17.00,-18.00,-24.00,-3.00,+2.00,+9.00,-14.00,-11.00,+14.00,-9.00
-16.00,-16.00,-3.00,-5.00,-25.00,-31.00,-12.00,+3.00,+38.00,+7.00,-5.00,-9.00,+17.00,+16.00,+0.00,+20.00
+11.00,+9.00,-1.00,+0.00,-9.00,-34.00,-18.00,+1.00,-47.00,-28.00,-2.00,-8.00,-46.00,-6.00,+11.00,-10.00
+0.00,-23.00,-4.00,-4.00,-35.00,-10.00,+16.00,-3.00,+6.00,-14.00,-6.00,+20.00,+22.00,+13.00,-2.00,-2.00
+23.00,+5.00,+5.00,+3.00,+29.00,+15.00,-33.00,+13.00,-39.00,-6.00,-10.00,-36.00,-43.00,-11.00,-26.00,-24.00
-3.00,-59.00,-7.00,-2.00,-5.00,+2.00,+29.00,+11.00,+1.00,-10.00,+0.00,+0.00,+15.00,-3.00,+0.00,-13.00
-41.00,+18.00,-1.00,-1.00,-4.00,+36.00,-80.00,-15.00,-12.00,+22.00,+12.00,-2.00,+15.00,+37.00,+1.00,+2.00
+14.00,-2.00,-5.00,-4.00,-9.00,-4.00,+25.00,+14.00,+82.00,+30.00,+6.00,+24.00,+31.00,+1.00,+43.00,+57.00
-81.00,-25.00,-8.00,-1.00,+7.00,+29.00,+28.00,-15.00,-17.00,-4.00,-2.00,+0.00,-13.00,+7.00,-8.00,-12.00
+66.00,+72.00,+15.00,+4.00,+20.00,-26.00,+10.00,+30.00,+15.00,-12.00,-11.00,-26.00,-45.00,-26.00,+16.00,+4.00
-8.00,-9.00,-8.00,-7.00,-30.00,-33.00,-1.00,-3.00,-63.00,-50.00,-18.00,+18.00,+35.00,+15.00,+36.00,-21.00
+40.00,-2.00,-2.00,+2.00,+22.00,+2.00,-8.00,-3.00,-11.00,+19.00,+2.00,-16.00,-48.00,-24.00,+8.00,-12.00
-28.00,+7.00,+0.00,+2.00,-13.00,-3.00,+27.00,+8.00,+46.00,+13.00,-3.00,+1.00,+18.00,+23.00,-13.00,-17.00
-12.00,+1.00,-4.00,-1.00,+0.00,-14.00,-15.00,-13.00,-20.00,+13.00,-4.00,+1.00,-5.00,-9.00,+24.00,+24.00
+13.00,-25.00,-3.00,-5.00,-43.00,-13.00,-2.00,-4.00,-8.00,+5.00,+4.00,+17.00,-36.00,-3.00,+0.00,+5.00
-13.00,-14.00,+1.00,+11.00,+59.00,+10.00,-4.00,-9.00,-31.00,-36.00,-9.00,-43.00,-51.00,-40.00,+6.00,-10.00
+21.00,+14.00,-3.00,-12.00,-68.00,-38.00,-2.00,+11.00,+31.00,+14.00,+4.00,+11.00,+2.00,-3.00,-8.00,-17.00
-46.00,-10.00,-8.00,-1.00,+41.00,+31.00,-13.00,+4.00,-6.00,+21.00,+2.00,+4.00,+14.00,+6.00,-6.00,+0.00
+1.00,-27.00,+2.00,+4.00,-28.00,-36.00,-16.00,-3.00,+16.00,-57.00,-13.00,-4.00,-5.00,-19.00,-1.00,+9.00
-100.00,+4.00,+3.00,-1.00,-51.00,-8.00,-3.00,-25.00,-52.00,+17.00,+4.00,-2.00,-4.00,+26.00,+4.00,-30.00
+37.00,+0.00,-1.00,+2.00,+26.00,+22.00,-16.00,+17.00,-35.00,+5.00,+1.00,+2.00,-37.00,-52.00,-1.00,-45.00
-8.00,+32.00,+9.00,+2.00,-24.00,-24.00,+19.00,-4.00,+33.00,-15.00,-6.00,+10.00,+35.00,+40.00,+30.00,+44.00
-20.00,-10.00,-6.00,-5.00,-36.00,+11.00,-16.00,-11.00,+23.00,+10.00,+2.00,+0.00,-4.00,-15.00,-54.00,+14.00
+9.00,-18.00,+2.00,+2.00,+2.00,+1.00,+20.00,+11.00,-5.00,+31.00,+12.00,+16.00,+13.00,-13.00,-20.00,-7.00
-4.00,+73.00,-3.00,-7.00,-29.00,-45.00,-29.00,-13.00,-3.00,+9.00,-2.00,-29.00,+2.00,-12.00,+23.00,+27.00
-40.00,-7.00,-2.00,+5.00,+6.00,+10.00,-23.00,-10.00,-14.00,-1.00,-1.00,-6.00,-14.00,-10.00,-24.00,-14.00
+58.00,+16.00,+4.00,+0.00,-29.00,-17.00,+117.00,+26.00,-13.00,+20.00,+2.00,+10.00,+6.00,-16.00,+40.00,+17.00
-20.00,+52.00,+12.00,+5.00,-9.00,+6.00,-13.00,+10.00,+12.00,-34.00,-19.00,-21.00,+21.00,+17.00,-23.00,-28.00
-27.00,-24.00,-1.00,-4.00,-16.00,+8.00,+5.00,+2.00,-43.00,-17.00,-3.00,+18.00,+8.00,+1.00,-13.00,+10.00
-7.00,-45.00,-5.00,+2.00,+6.00,+17.00,-20.00,-21.00,+48.00,+38.00,+14.00,+2.00,-6.00,+0.00,-11.00,+43.00
-7.00,-29.00,-5.00,-8.00,-42.00,-36.00,-26.00,-9.00,+36.00,+10.00,+0.00,-10.00,-15.00,-4.00,+21.00,+21.00
+5.00,-18.00,-6.00,-3.00,+15.00,-11.00,-25.00,-2.00,-55.00,-18.00,-4.00,+14.00,+5.00,-4.00,+4.00,-31.00
+19.00,+33.00,+9.00,+12.00,+66.00,+106.00,+14.00,-2.00,-30.00,-15.00,-9.00,+41.00,+53.00,+17.00,+19.00,+6.00
-41.00,-15.00,-2.00,-1.00,-13.00,-20.00,-27.00,-26.00,-35.00,-17.00,-11.00,-43.00,-39.00,-20.00,-4.00,-11.00
+30.00,+27.00,+0.00,-5.00,-5.00,-69.00,+83.00,+24.00,+19.00,+19.00,+5.00,+1.00,+6.00,-3.00,-36.00,+4.00
+6.00,-8.00,-6.00,-5.00,+7.00,-10.00,-10.00,+28.00,+10.00,+0.00,-5.00,-4.00,+37.00,+3.00,+6.00,+14.00
-21.00,-27.00,-11.00,-8.00,-25.00,-19.00,+5.00,+2.00,+39.00,-2.00,+7.00,+28.00,-9.00,+5.00,+15.00,-1.00
+44.00,+53.00,-3.00,-11.00,-47.00,+13.00,-24.00,-23.00,-34.00,+17.00,+6.00,-16.00,-31.00,-14.00,-31.00,-26.00
-73.00,+27.00,+8.00,+8.00,+88.00,+28.00,-3.00,-4.00,-16.00,+12.00,-3.00,-4.00,+7.00,+0.00,+20.00,+7.00
+66.00,-39.00,-4.00,+0.00,+20.00,+18.00,+14.00,+8.00,+22.00,-16.00,-9.00,-19.00,-19.00,-10.00,+1.00,+7.00
-18.00,-48.00,-1.00,+0.00,-14.00,-37.00,+31.00,-10.00,-12.00,-36.00,-6.00,+2.00,-8.00,+2.00,-12.00,-20.00
+27.00,+26.00,+11.00,+9.00,+63.00,+21.00,+18.00,-14.00,+11.00,+25.00,+3.00,+35.00,+31.00,+31.00,+7.00,-3.00
+6.00,-11.00,-9.00,-8.00,+18.00,+26.00,-36.00,+2.00,-58.00,-15.00,-5.00,-71.00,-92.00,-10.00,-19.00,-23.00
-8.00,+28.00,+7.00,+10.00,-8.00,-24.00,+11.00,+11.00,+14.00,-52.00,-7.00,+21.00,+76.00,+3.00,+34.00,-1.00
+28.00,+4.00,+2.00,+7.00,+88.00,+11.00,-33.00,+16.00,+29.00,+55.00,+12.00,-25.00,-9.00,+34.00,-68.00,+11.00
+28.00,-38.00,-14.00,-13.00,-57.00,-21.00,+25.00,+1.00,+88.00,+13.00,+7.00,+27.00,-15.00,-10.00,+62.00,+19.00
+5.00,+77.00,+16.00,+3.00,-21.00,-49.00,-59.00,-24.00,-31.00,+5.00,-5.00,-2.00,+1.00,+9.00,-27.00,-21.00
+2.00,+2.00,-2.00,+1.00,+51.00,+61.00,-52.00,-11.00,+10.00,+22.00,-1.00,-26.00,-23.00,-45.00,-27.00,+3.00
+39.00,-15.00,-4.00,-3.00,-14.00,-13.00,+32.00,+4.00,-38.00,-24.00,-7.00,-14.00,-30.00,-8.00,-1.00,+1.00
-39.00,-65.00,-1.00,+3.00,+29.00,+0.00,-56.00,-21.00,-14.00,-40.00,-14.00,-5.00,+22.00,-18.00,-10.00,-33.00
+16.00,-24.00,-10.00,-7.00,-52.00,+3.00,-85.00,-15.00,+1.00,-8.00,+6.00,-7.00,-45.00,+7.00,-46.00,-9.00
-21.00,+8.00,+2.00,-6.00,-69.00,-70.00,+2.00,+3.00,-23.00,+6.00,+5.00,+26.00,-10.00,+10.00,-11.00,+20.00
-24.00,+7.00,-7.00,+4.00,+68.00,+44.00,+7.00,-20.00,+16.00,-23.00,-2.00,-17.00,-9.00,-2.00,+24.00,+27.00
+35.00,+32.00,-2.00,-7.00,-38.00,+6.00,-31.00,+19.00,+21.00,+55.00,+5.00,-43.00,-94.00,-10.00,+54.00,-11.00
-10.00,+44.00,+9.00,+7.00,+49.00,+18.00,+6.00,+0.00,-47.00,-55.00,-7.00,-4.00,+57.00,-3.00,-11.00,-15.00
-8.00,+13.00,+3.00,+4.00,+45.00,+56.00,+26.00,-6.00,+24.00,+27.00,+10.00,+4.00,-11.00,+11.00,+17.00,+4.00
+3.00,+45.00,+2.00,-5.00,-48.00,-34.00,-19.00,+13.00,-17.00,-35.00,-5.00,+16.00,+12.00,-3.00,+5.00,+21.00
+21.00,-44.00,-5.00,+2.00,-48.00,-87.00,-3.00,-20.00,-46.00,+6.00,-2.00,+25.00,+44.00,+1.00,-44.00,-15.00
+40.00,-12.00,-9.00,-9.00,-22.00,+71.00,+10.00,+27.00,+18.00,-10.00,+2.00,+14.00,+31.00,-9.00,+0.00,+0.00
+30.00,-38.00,-4.00,-7.00,-89.00,-21.00,+1.00,-5.00,-5.00,-54.00,-17.00,-2.00,+40.00,+43.00,+27.00,-5.00
-15.00,-3.00,+5.00,+4.00,+23.00,-42.00,-22.00,+17.00,-13.00,+95.00,+26.00,+12.00,+87.00,+38.00,+32.00,-10.00
+8.00,+6.00,+5.00,+5.00,+10.00,+3.00,-22.00,-17.00,+20.00,+21.00,+4.00,+15.00,+11.00,+13.00,+66.00,+40.00
-37.00,-3.00,-3.00,-4.00,-51.00,-22.00,-18.00,-17.00,+58.00,+28.00,+13.00,+19.00,+14.00,-2.00,+5.00,+6.00
+6.00,-10.00,-7.00,-2.00,-4.00,-19.00,-35.00,-4.00,-20.00,-16.00,-8.00,-13.00,-38.00,-29.00,+0.00,+13.00
-4.00,-18.00,+2.00,+2.00,+12.00,+41.00,-13.00,-15.00,+51.00,-32.00,+0.00,+30.00,+13.00,+14.00,-45.00,-15.00
-41.00,+11.00,+3.00,-1.00,-53.00,-11.00,+41.00,+2.00,+21.00,-2.00,-3.00,-9.00,-7.00,+0.00,-63.00,-10.00
+16.00,+24.00,-3.00,+4.00,-5.00,+51.00,-13.00,-8.00,-48.00,-18.00,-15.00,-18.00,-20.00,-13.00,+33.00,-2.00
-36.00,-59.00,-6.00,-8.00,-38.00,-39.00,-29.00,-11.00,+47.00,+29.00,+9.00,+26.00,+14.00,+11.00,+0.00,-44.00
+70.00,+52.00,+6.00,-9.00,-102.00,-95.00,+2.00,-1.00,+19.00,-2.00,+6.00,-17.00,-29.00,-24.00,-32.00,+54.00
-35.00,+15.00,+13.00,+5.00,+34.00,+70.00,+40.00,+16.00,+39.00,+6.00,-1.00,+12.00,+3.00,+6.00,+5.00,-3.00
-18.00,-20.00,-3.00,-2.00,-28.00,+1.00,-43.00,-35.00,+16.00,-18.00,-4.00,-2.00,-1.00,+19.00,-10.00,+17.00
+29.00,+22.00,+2.00,+6.00,+24.00,-88.00,+91.00,-16.00,-35.00,-18.00,-14.00,-14.00,+41.00,+33.00,-29.00,-33.00
-2.00,+3.00,-8.00,-9.00,-29.00,+25.00,-24.00,+7.00,-7.00,-17.00,-12.00,-7.00,-61.00,-3.00,+24.00,-19.00
-11.00,-10.00,-5.00,+1.00,-5.00,-9.00,+57.00,+25.00,+9.00,+37.00,+25.00,-7.00,+66.00,-4.00,-31.00,-31.00
-12.00,-34.00,-4.00,-3.00,-60.00,-45.00,-37.00,+15.00,-27.00,-55.00,-16.00,+3.00,-11.00,+3.00,+77.00,+14.00
+19.00,+59.00,+2.00,-1.00,-23.00,+21.00,+10.00,-4.00,-46.00,+4.00,+6.00,-29.00,-18.00,-10.00,+0.00,-14.00
-30.00,-75.00,-5.00,+3.00,+31.00,-10.00,+7.00,-8.00,+87.00,+6.00,-16.00,-28.00,-13.00,+15.00,-12.00,+27.00
+10.00,+46.00,-1.00,-2.00,+34.00,-5.00,-10.00,+15.00,-34.00,+11.00,-2.00,+18.00,-26.00,+24.00,+17.00,-12.00
-13.00,-9.00,+0.00,+3.00,-17.00,+19.00,+23.00,-24.00,+14.00,+35.00,+9.00,-35.00,+23.00,-47.00,-37.00,-25.00
-23.00,-21.00,-10.00,-7.00,+20.00,+38.00,-31.00,-4.00,+28.00,+28.00,+6.00,+52.00,+9.00,+15.00,+16.00,+12.00
+12.00,+55.00,+18.00,+10.00,+35.00,+59.00,+59.00,+29.00,-34.00,-27.00,-4.00,-15.00,-29.00,-38.00,+12.00,+4.00
-1.00,-20.00,-7.00,-12.00,-96.00,+31.00,-14.00,+16.00,+11.00,-55.00,-10.00,-7.00,+8.00,+9.00,-13.00,+9.00
-2.00,-5.00,-4.00,-1.00,+53.00,-24.00,+17.00,-8.00,+9.00,+12.00,+2.00,+20.00,+9.00,+16.00,+0.00,-44.00
-8.00,-6.00,+7.00,+10.00,+21.00,+0.00,+5.00,+6.00,+4.00,+1.00,+9.00,+12.00,+41.00,-45.00,+46.00,+27.00
+16.00,+9.00,-13.00,-19.00,-28.00,+41.00,-47.00,-38.00,-48.00,+7.00,-12.00,-1.00,+7.00,+25.00,-75.00,-84.00
-9.00,-76.00,-9.00,-5.00,-15.00,+88.00,+38.00,+8.00,-14.00,+0.00,+7.00,+26.00,-12.00,-24.00,-64.00,+30.00
+15.00,+10.00,+9.00,+15.00,+95.00,+41.00,-2.00,+4.00,-16.00,+80.00,+7.00,-1.00,-12.00,-5.00,-17.00,-40.00
-38.00,-36.00,-13.00,-19.00,-106.00,+7.00,+3.00,-3.00,+7.00,+2.00,+4.00,-19.00,-49.00,-2.00,+7.00,+44.00
-15.00,+10.00,+4.00,+18.00,+56.00,+59.00,+38.00,+3.00,-10.00,-20.00,-3.00,+16.00,+29.00,-5.00,+19.00,+2.00
-1.00,+24.00,-11.00,-10.00,-45.00,-25.00,-8.00,-16.00,-15.00,-124.00,-26.00,+2.00,+18.00,-7.00,-6.00,-45.00
-52.00,-1.00,+2.00,-1.00,+19.00,-38.00,+2.00,-2.00,-16.00,+15.00,-4.00,+21.00,+8.00,-1.00,-51.00,+33.00
+27.00,-8.00,-5.00,-10.00,-54.00,-48.00,-75.00,-18.00,-13.00,+23.00,+9.00,-6.00,-36.00,+3.00,-28.00,+0.00
-15.00,-9.00,+5.00,+12.00,+102.00,+20.00,+20.00,+1.00,+20.00,+36.00,+5.00,-1.00,+20.00,-16.00,+36.00,+32.00
-52.00,-10.00,-4.00,+0.00,+28.00,+15.00,+87.00,+13.00,-16.00,-58.00,-16.00,-19.00,-23.00,+6.00,-19.00,+5.00
+1.00,-6.00,+0.00,-5.00,-79.00,-32.00,+35.00,+16.00,+5.00,-29.00,+9.00,+40.00,+12.00,+10.00,+15.00,+27.00
+33.00,+17.00,+8.00,+17.00,+77.00,+10.00,-84.00,+19.00,+17.00,+11.00,-1.00,-13.00,-54.00,-19.00,+44.00,-1.00
-23.00,-2.00,-7.00,-17.00,-62.00,-65.00,+69.00,-31.00,+12.00,-17.00,-3.00,-15.00,-25.00,+12.00,-8.00,-6.00
+6.00,+29.00,-4.00,+2.00,+97.00,+12.00,-22.00,+0.00,+18.00,+40.00,+8.00,+8.00,+19.00,+12.00,+113.00,+70.00
+16.00,+68.00,-4.00,-19.00,-59.00,+6.00,+67.00,+4.00,+8.00,-20.00,-11.00,-20.00,+8.00,+16.00,-21.00,-16.00
-72.00,-96.00,-15.00,+11.00,+49.00,+44.00,+52.00,+3.00,-9.00,-27.00,-7.00,+18.00,+36.00,-10.00,-74.00,+6.00
+0.00,+99.00,+8.00,+1.00,+18.00,-7.00,-53.00,-5.00,-15.00,+2.00,+9.00,-23.00,-15.00,-7.00,+99.00,+18.00
+15.00,+14.00,+1.00,+6.00,+1.00,-1.00,+25.00,+6.00,+0.00,+46.00,-2.00,-22.00,-33.00,-7.00,-4.00,-51.00
+58.00,+16.00,+5.00,-7.00,-80.00,-59.00,-22.00,-7.00,+57.00,+20.00,-1.00,-8.00,-17.00,-1.00,+10.00,+38.00
-20.00,+37.00,-5.00,-1.00,+61.00,+86.00,+40.00,+23.00,-30.00,-49.00,+0.00,+3.00,+8.00,+18.00,+9.00,-3.00
+0.00,-32.00,-20.00,-16.00,-23.00,-28.00,+19.00,-15.00,-45.00,-66.00,-20.00,-15.00,-9.00,-13.00,-8.00,+11.00
+26.00,+7.00,+30.00,+28.00,+99.00,+27.00,-2.00,+12.00,-26.00,+27.00,+6.00,-11.00,-2.00,-18.00,-84.00,-38.00
+10.00,-51.00,-3.00,-3.00,+27.00,+31.00,-33.00,-4.00,+2.00,-54.00,-11.00,+0.00,+1.00,+5.00,+36.00,+10.00
-44.00,+15.00,+5.00,-1.00,+60.00,-99.00,-20.00,-53.00,+6.00,+32.00,+8.00,-11.00,-3.00,-12.00,-38.00,-14.00
+10.00,-43.00,+5.00,+6.00,+99.00,+10.00,-39.00,-7.00,-8.00,+32.00,+15.00,+26.00,+33.00,-51.00,-30.00,-9.00
+10.00,+11.00,-14.00,-15.00,+93.00,+25.00,-34.00,+8.00,+7.00,+4.00,+0.00,-7.00,+15.00,-11.00,+3.00,-16.00
-39.00,-25.00,-6.00,+3.00,+127.00,+50.00,+20.00,-14.00,+18.00,-20.00,-20.00,-14.00,-5.00,-2.00,-37.00,-14.00
+36.00,+44.00,-4.00,-10.00,+0.00,+6.00,+47.00,-7.00,-46.00,-3.00,-5.00,-14.00,+19.00,+11.00,-15.00,+19.00
-5.00,-35.00,-14.00,-8.00,-120.00,-30.00,-97.00,-4.00,-3.00,+3.00,-14.00,-17.00,-75.00,-8.00,+2.00,-29.00
-24.00,+55.00,+13.00,+22.00,+7.00,-38.00,-85.00,-26.00,+5.00,+7.00,+6.00,+15.00,+7.00,+37.00,+27.00,+21.00
-27.00,-21.00,+2.00,+2.00,-107.00,-15.00,+59.00,+23.00,+40.00,+27.00,+8.00,+1.00,-48.00,-23.00,-1.00,-10.00
-5.00,-3.00,-1.00,+0.00,-115.00,+1.00,-11.00,+17.00,-28.00,-1.00,-2.00,-9.00,+36.00,-2.00,+1.00,+11.00
-63.00,-125.00,-8.00,-5.00,-128.00,-75.00,-24.00,-10.00,+38.00,-21.00,-8.00,+11.00,-5.00,+44.00,-22.00,+14.00
+89.00,+86.00,+6.00,-1.00,-84.00,-5.00,+14.00,+21.00,-2.00,+20.00,-1.00,+38.00,+52.00,-3.00,-43.00,-12.00
-5.00,-116.00,-12.00,+7.00,-41.00,+25.00,-57.00,-1.00,-51.00,-22.00,-8.00,-43.00,-57.00,+3.00,-2.00,-37.00
-17.00,+58.00,+3.00,-2.00,-100.00,+20.00,-78.00,+2.00,+5.00,+14.00,-5.00,-9.00,-52.00,+8.00,-20.00,+24.00
+8.00,+56.00,-1.00,-1.00,-42.00,-20.00,+114.00,+15.00,-6.00,+13.00,-2.00,-18.00,-22.00,-24.00,+12.00,-9.00
-26.00,-101.00,-3.00,-10.00,-112.00,-34.00,-12.00,+8.00,+23.00,-15.00,+1.00,+7.00,-5.00,-28.00,+18.00,+6.00
-3.00,+61.00,+14.00,+11.00,+49.00,+54.00,+0.00,-18.00,-48.00,+32.00,+14.00,+15.00,+34.00,+8.00,-22.00,+2.00
+60.00,+17.00,-2.00,+2.00,+74.00,+17.00,+77.00,+26.00,-4.00,-44.00,-15.00,+1.00,-12.00,-20.00,-6.00,-33.00
-4.00,-24.00,+1.00,+3.00,-13.00,+60.00,-63.00,+2.00,+4.00,+29.00,+15.00,+18.00,+21.00,+2.00,-2.00,-8.00
+6.00,+31.00,-15.00,-13.00,-29.00,-87.00,-63.00,-29.00,-24.00,+10.00,-10.00,-25.00,-2.00,+9.00,+46.00,-24.00
+17.00,+52.00,-10.00,-11.00,+2.00,+68.00,+52.00,+26.00,+59.00,-8.00,-5.00,+4.00,-3.00,-36.00,+35.00,+11.00
-14.00,-50.00,+20.00,+18.00,+6.00,-2.00,-66.00,+55.00,-15.00,-31.00,-4.00,+2.00,+27.00,+34.00,-15.00,-10.00
-3.00,+24.00,+0.00,-2.00,+41.00,+30.00,+3.00,+7.00,+27.00,-27.00,-10.00,+24.00,+2.00,-5.00,+57.00,+5.00
+9.00,+14.00,+4.00,-2.00,-42.00,+7.00,-1.00,+31.00,-48.00,+2.00,+6.00,-86.00,-74.00,-16.00,-1.00,-11.00
+1.00,+6.00,-8.00,+5.00,+61.00,-36.00,-83.00,-17.00,+12.00,+17.00,-2.00,-12.00,+33.00,-10.00,-4.00,-4.00
-12.00,-92.00,-10.00,-12.00,-37.00,-47.00,+44.00,-12.00,+55.00,+2.00,-1.00,+13.00,+3.00,+10.00,-5.00,+4.00
+5.00,+100.00,+9.00,+2.00,+2.00,-48.00,-55.00,+16.00,+25.00,+19.00,+9.00,-4.00,-57.00,-12.00,+4.00,+60.00
-14.00,-71.00,-12.00,-9.00,+37.00,+51.00,-7.00,-23.00,-13.00,-13.00,-1.00,+12.00,+14.00,-12.00,-18.00,+3.00
+13.00,-8.00,+4.00,+7.00,-10.00,-99.00,-46.00,+18.00,-27.00,-26.00,-3.00,+13.00,-37.00,-53.00,+12.00,-4.00
-31.00,-12.00,+2.00,-15.00,-56.00,+28.00,-5.00,-24.00,+17.00,+2.00,-5.00,-23.00,-47.00,-16.00,+51.00,-2.00
+0.00,-1.00,+0.00,+3.00,+69.00,+26.00,-9.00,-15.00,-50.00,-13.00,-2.00,-33.00,-7.00,-1.00,-38.00,-34.00
-16.00,+29.00,+7.00,+16.00,-19.00,-54.00,-9.00,-12.00,+16.00,+1.00,-4.00,+3.00,+57.00,+17.00,+35.00,+18.00
+62.00,-15.00,-15.00,-16.00,+22.00,+33.00,+7.00,-5.00,+6.00,+33.00,+10.00,+19.00,+4.00,+51.00,-9.00,+16.00
-37.00,-100.00,+9.00,+13.00,-31.00,-8.00,+28.00,-17.00,+9.00,+30.00,-2.00,+5.00,-24.00,-16.00,-22.00,-12.00
+71.00,+11.00,-6.00,-5.00,-67.00,-50.00,+9.00,+27.00,+14.00,-4.00,+5.00,+15.00,+20.00,+11.00,+36.00,-4.00
+7.00,+16.00,+1.00,+2.00,+19.00,+16.00,+33.00,-2.00,+0.00,-3.00,+6.00,+12.00,-25.00,+3.00,-26.00,+3.00
-70.00,-52.00,-9.00,-9.00,-37.00,-25.00,-24.00,-11.00,-31.00,-5.00,-2.00,-7.00,+4.00,+4.00,-18.00,-4.00
+39.00,+127.00,+15.00,+6.00,+6.00,+6.00,+37.00,+0.00,+45.00,-28.00,+4.00,+40.00,+16.00,+10.00,+16.00,+13.00
+10.00,-25.00,-3.00,+1.00,+4.00,+80.00,-9.00,-5.00,+33.00,+35.00,-7.00,-61.00,-37.00,-9.00,-26.00,-6.00
-58.00,+12.00,+1.00,+4.00,+92.00,+67.00,-2.00,+7.00,+4.00,+6.00,+6.00,+8.00,-14.00,-4.00,-7.00,+12.00
-14.00,-47.00,+8.00,+5.00,-46.00,+28.00,-16.00,+29.00,-50.00,-15.00,+4.00,+8.00,+24.00,+20.00,+9.00,+11.00
+28.00,+79.00,-6.00,-7.00,-6.00,-53.00,-20.00,-9.00,-18.00,+10.00,+5.00,-6.00,-33.00,+10.00,+22.00,-7.00
-9.00,-39.00,+1.00,+5.00,-37.00,-49.00,-26.00,-13.00,+7.00,-79.00,-15.00,+16.00,+19.00,+0.00,-11.00,+20.00
-18.00,-92.00,-3.00,-3.00,+17.00,-14.00,+17.00,-8.00,+51.00,+24.00,+5.00,+13.00,+32.00,-16.00,+27.00,+5.00
+25.00,+82.00,+4.00,-1.00,-9.00,-35.00,+43.00,-34.00,+1.00,-25.00,-5.00,+10.00,+39.00,+19.00,-34.00,+46.00
+47.00,-66.00,-5.00,+4.00,+4.00,+17.00,-51.00,+33.00,+1.00,+86.00,+15.00,-2.00,+17.00,+2.00,+0.00,+2.00
-33.00,+16.00,-1.00,-5.00,+10.00,+26.00,-4.00,-5.00,-26.00,-24.00,-7.00,+0.00,+28.00,-19.00,-66.00,-46.00
-12.00,+7.00,+4.00,+2.00,+0.00,-29.00,+27.00,+22.00,-2.00,-7.00,-10.00,-3.00,-26.00,-12.00,-10.00,+5.00
+32.00,+45.00,-8.00,-10.00,+20.00,+18.00,-26.00,-6.00,+34.00,+11.00,+8.00,+37.00,+26.00,+35.00,+28.00,+10.00
+21.00,+19.00,+6.00,-11.00,-19.00,-6.00,+70.00,-1.00,-35.00,-12.00,-6.00,-15.00,-17.00,-11.00,+33.00,-30.00
-24.00,-113.00,-7.00,-6.00,-100.00,-86.00,+49.00,+2.00,+4.00,+11.00,+6.00,+5.00,+40.00,+13.00,-6.00,-4.00
+13.00,+73.00,+3.00,-7.00,-36.00,+10.00,-52.00,-6.00,-57.00,-44.00,-10.00,+4.00,+9.00,+9.00,+6.00,+19.00
-3.00,-29.00,-13.00,-4.00,-15.00,+20.00,-8.00,+30.00,+16.00,+22.00,+2.00,+0.00,+24.00,-12.00,+13.00,+6.00
-3.00,+32.00,-1.00,+13.00,+95.00,+2.00,-19.00,-5.00,-34.00,-36.00,-3.00,-12.00,-43.00,-2.00,-23.00,+0.00
+31.00,-31.00,+0.00,-8.00,-21.00,+49.00,-37.00,+9.00,-5.00,+26.00,+4.00,+12.00,-23.00,+18.00,+19.00,-25.00
-49.00,+6.00,-5.00,-12.00,-96.00,-76.00,-71.00,-41.00,-21.00,-12.00,-11.00,-14.00,+8.00,-5.00,+26.00,-32.00
+9.00,-5.00,+4.00,+14.00,+85.00,-16.00,+94.00,+23.00,+40.00,+36.00,+2.00,-28.00,-17.00,-10.00,-16.00,+19.00
-40.00,+18.00,-13.00,-20.00,-78.00,-47.00,-120.00,-77.00,+36.00,-1.00,-3.00,+8.00,+25.00,-2.00,-7.00,-5.00
-13.00,-9.00,+2.00,+13.00,+13.00,-15.00,+2.00,+42.00,-62.00,-6.00,+5.00,+8.00,+7.00,-1.00,-1.00,+2.00
+20.00,-13.00,-2.00,+6.00,+47.00,+1.00,-33.00,-15.00,-9.00,-8.00,-3.00,+2.00,-21.00,+8.00,-22.00,-26.00
+2.00,-21.00,-6.00,-5.00,+24.00,+1.00,-45.00,-25.00,-18.00,-26.00,+4.00,+15.00,+13.00,-46.00,-78.00,-27.00
+40.00,-4.00,+5.00,+6.00,+111.00,-8.00,+31.00,+31.00,-14.00,-28.00,-11.00,-17.00,-9.00,+0.00,+37.00,+10.00
+5.00,+47.00,+8.00,+8.00,+127.00,+20.00,+47.00,+9.00,+62.00,+80.00,+15.00,+25.00,+35.00,-19.00,+21.00,+33.00
+1.00,-41.00,-4.00,-3.00,+29.00,+103.00,+22.00,+9.00,-47.00,-40.00,-4.00,+7.00,+13.00,-7.00,-23.00,-3.00
+6.00,+56.00,+8.00,-2.00,-24.00,-22.00,-27.00,-29.00,+20.00,+1.00,-8.00,-24.00,-24.00,+14.00,+4.00,-14.00
+72.00,+4.00,+5.00,+1.00,+53.00,+3.00,-4.00,+24.00,-31.00,-16.00,+0.00,-12.00,-58.00,-5.00,-34.00,-30.00
-13.00,-68.00,-14.00,-6.00,-80.00,+2.00,-16.00,-18.00,-26.00,+0.00,+1.00,+29.00,+85.00,+8.00,+1.00,-4.00
+50.00,+11.00,-12.00,-13.00,-94.00,-99.00,+16.00,+14.00,+7.00,+6.00,-5.00,-41.00,-60.00,-30.00,-22.00,-21.00
-43.00,-19.00,-5.00,-1.00,-47.00,+37.00,+9.00,+22.00,-15.00,+4.00,+2.00,-9.00,-14.00,+19.00,+62.00,-3.00
-39.00,-59.00,-2.00,+6.00,-83.00,+22.00,+50.00,-7.00,+8.00,-5.00,-8.00,+5.00,+10.00,-19.00,-75.00,-13.00
-23.00,+46.00,+5.00,-3.00,-98.00,-36.00,-4.00,-17.00,-13.00,-8.00,+4.00,-3.00,+30.00,+29.00,+66.00,+19.00
+38.00,-2.00,+6.00,+11.00,+93.00,+15.00,-68.00,-8.00,-16.00,-13.00,-2.00,+9.00,-12.00,+2.00,-7.00,-33.00
+21.00,-12.00,+4.00,-6.00,-128.00,-116.00,+60.00,+11.00,-8.00,-12.00,-4.00,+2.00,+0.00,-21.00,-48.00,-2.00
-21.00,+26.00,-5.00,+5.00,+47.00,+37.00,-11.00,-10.00,-51.00,+31.00,+10.00,-5.00,+2.00,-3.00,+10.00,-47.00
-19.00,+4.00,-4.00,-3.00,-22.00,-17.00,-22.00,-26.00,+9.00,-29.00,-5.00,-1.00,-21.00,-15.00,-19.00,-39.00
+43.00,-4.00,-5.00,+5.00,+37.00,+30.00,+29.00,+23.00,+5.00,+12.00,-1.00,+1.00,+33.00,+10.00,-5.00,+52.00
-1.00,+13.00,+12.00,+7.00,+13.00,+43.00,+1.00,-3.00,+2.00,+1.00,-5.00,-8.00,-27.00,-12.00,-3.00,-16.00
-20.00,+9.00,-6.00,-12.00,-88.00,+1.00,-20.00,-7.00,-12.00,+25.00,+3.00,+15.00,+41.00,+6.00,-2.00,+22.00
-57.00,+17.00,-4.00,-7.00,-29.00,-73.00,-2.00,+13.00,+28.00,-12.00,-5.00,-17.00,-38.00,+5.00,-13.00,+14.00
-43.00,+6.00,-2.00,-6.00,-78.00,+2.00,-5.00,-4.00,-54.00,-38.00,-9.00,-3.00,-1.00,+4.00,+15.00,-16.00
-1.00,-80.00,-3.00,+10.00,+89.00,-7.00,-5.00,+11.00,+31.00,+43.00,+7.00,+1.00,-14.00,+15.00,+25.00,+4.00
-9.00,+47.00,+3.00,+2.00,-4.00,-42.00,-2.00,-26.00,-15.00,+0.00,-2.00,-1.00,+5.00,-14.00,+6.00,+28.00
+32.00,-72.00,-1.00,-1.00,+9.00,+111.00,-66.00,+35.00,+39.00,+10.00,-1.00,-8.00,-18.00,+12.00,+25.00,+16.00
-8.00,+26.00,+2.00,-4.00,-44.00,-32.00,+75.00,+6.00,+46.00,+13.00,-4.00,-39.00,-57.00,+12.00,+45.00,-6.00
+10.00,-33.00,-1.00,-5.00,-48.00,-24.00,-16.00,-9.00,+5.00,-47.00,-11.00,-13.00,-9.00,-8.00,+14.00,+26.00
-41.00,+4.00,+4.00,+2.00,+2.00,+15.00,+4.00,-8.00,+1.00,+36.00,-8.00,-23.00,+27.00,-9.00,-44.00,-30.00
+15.00,+44.00,+4.00,-3.00,-9.00,-13.00,-12.00,-20.00,-45.00,-3.00,+3.00,+12.00,-8.00,-18.00,-48.00,-21.00
-5.00,-16.00,-6.00,-1.00,+54.00,-21.00,-52.00,-9.00,-8.00,-83.00,-6.00,+7.00,-17.00,-32.00,+2.00,+9.00
+38.00,-24.00,-7.00,-3.00,-3.00,+0.00,+26.00,+3.00,-26.00,+35.00,+6.00,-12.00,-7.00,+11.00,+11.00,+17.00
-7.00,-16.00,-9.00,-7.00,+32.00,+10.00,-50.00,-25.00,+16.00,+15.00,+2.00,+2.00,-11.00,-1.00,+13.00,-2.00
+2.00,+67.00,+11.00,+4.00,+5.00,+15.00,+51.00,+19.00,+11.00,-2.00,+4.00,+20.00,+10.00,+12.00,+30.00,+24.00
+35.00,+18.00,+7.00,+0.00,-47.00,-13.00,-4.00,+16.00,+5.00,+50.00,+0.00,-15.00,-12.00,-3.00,-32.00,-9.00
-52.00,-3.00,-2.00,-16.00,-73.00,+3.00,-10.00,-6.00,+7.00,-60.00,+1.00,+23.00,+10.00,+61.00,+26.00,+11.00
+20.00,-31.00,+2.00,-13.00,-47.00,-2.00,-3.00,+17.00,+19.00,-24.00,-2.00,+14.00,+4.00,-9.00,+45.00,-18.00
-11.00,-26.00,-4.00,+13.00,+127.00,-35.00,+65.00,-23.00,-43.00,+44.00,+6.00,-6.00,+38.00,-3.00,+55.00,+1.00
-31.00,+45.00,+3.00,+2.00,+4.00,+1.00,+1.00,-8.00,+58.00,+105.00,+16.00,+26.00,+73.00,+9.00,-36.00,+48.00
-55.00,-5.00,-3.00,-3.00,+4.00,-11.00,-89.00,+11.00,-39.00,-97.00,-4.00,-16.00,-42.00,-18.00,+26.00,-41.00
+9.00,+68.00,+5.00,-2.00,-86.00,-47.00,+0.00,+17.00,-37.00,+8.00,-1.00,-4.00,-30.00,+7.00,+2.00,-17.00
+5.00,-28.00,-9.00,-8.00,-106.00,-20.00,+1.00,-28.00,+10.00,+0.00,-7.00,+1.00,+51.00,+17.00,-16.00,+3.00
-22.00,-89.00,-7.00,-1.00,+23.00,+93.00,-5.00,+5.00,+59.00,-3.00,-5.00,-9.00,-24.00,-23.00,-21.00,+0.00
+6.00,+87.00,+20.00,+12.00,+15.00,-59.00,-13.00,-3.00,-20.00,+87.00,+7.00,-10.00,-9.00,-10.00,-16.00,-47.00
-64.00,-57.00,-11.00,-12.00,-42.00,+1.00,-21.00,-37.00,+41.00,-29.00,-3.00,-6.00,-17.00,+20.00,+21.00,+39.00
+103.00,+38.00,+2.00,+0.00,+18.00,-27.00,+29.00,+20.00,-39.00,-66.00,-16.00,-16.00,-44.00,-31.00,-51.00,-21.00
-33.00,+13.00,+2.00,-1.00,+56.00,+58.00,-63.00,-24.00,+34.00,+37.00,+14.00,-2.00,-18.00,+9.00,+6.00,-18.00
-21.00,-100.00,-15.00,-5.00,+11.00,+4.00,-4.00,+2.00,+29.00,-21.00,-11.00,+6.00,-3.00,-12.00,-11.00,+5.00
+12.00,+3.00,+4.00,+0.00,+21.00,+45.00,+15.00,+42.00,+12.00,+0.00,+11.00,+18.00,+39.00,+3.00,-3.00,+44.00
-7.00,+106.00,+7.00,+5.00,+31.00,-12.00,-34.00,-14.00,+35.00,+15.00,-12.00,-26.00,-9.00,-12.00,+5.00,-6.00
+43.00,+15.00,-1.00,-5.00,-22.00,-46.00,-7.00,-5.00,-66.00,-26.00,-6.00,+20.00,+4.00,-19.00,-6.00,-2.00
-6.00,+7.00,+3.00,+3.00,+17.00,+8.00,+5.00,-7.00,+15.00,-7.00,-7.00,-7.00,-22.00,+21.00,+6.00,-32.00
+0.00,+31.00,-8.00,-8.00,+10.00,+16.00,+3.00,-1.00,-10.00,-12.00,+4.00,-5.00,+31.00,-17.00,-12.00,+4.00
-39.00,-54.00,+9.00,+9.00,-64.00,-6.00,+50.00,+38.00,+3.00,+8.00,+3.00,+13.00,-7.00,+4.00,+56.00,+13.00
-11.00,-32.00,-2.00,-3.00,+41.00,-4.00,-1.00,+6.00,-37.00,-11.00,+2.00,+8.00,+8.00,+7.00,+6.00,+0.00
+0.00,+84.00,+16.00,+6.00,-41.00,-23.00,+10.00,-13.00,-22.00,-4.00,-7.00,+8.00,+16.00,-23.00,-6.00,-12.00
-37.00,-20.00,+4.00,+15.00,+21.00,-61.00,-65.00,+0.00,-18.00,-20.00,+4.00,+14.00,+11.00,+0.00,-14.00,-18.00
+25.00,-39.00,-19.00,-11.00,+58.00,+17.00,-113.00,-5.00,-18.00,-36.00,-15.00,-14.00,-19.00,+6.00,-25.00,+7.00
-54.00,+33.00,-2.00,-5.00,-23.00,-64.00,+31.00,-7.00,+77.00,+39.00,+1.00,-11.00,-3.00,+11.00,-2.00,-24.00
+15.00,+40.00,+6.00,+3.00,-9.00,+39.00,+32.00,-14.00,+7.00,+30.00,+2.00,-7.00,-6.00,-9.00,+1.00,+9.00
-2.00,-43.00,-4.00,+2.00,+28.00,-60.00,-2.00,+0.00,-33.00,-44.00,-5.00,-2.00,+13.00,+8.00,+4.00,-10.00
+10.00,-41.00,-1.00,-1.00,-11.00,+26.00,-29.00,-23.00,+26.00,+9.00,+8.00,-3.00,-17.00,-3.00,-23.00,+2.00
-10.00,+29.00,-5.00,-5.00,-43.00,-66.00,-36.00,-35.00,-15.00,+17.00,-2.00,+11.00,+10.00,+15.00,+13.00,-13.00
+59.00,-37.00,-19.00,-9.00,+47.00,-2.00,-68.00,-3.00,-46.00,-62.00,-4.00,+24.00,+1.00,-12.00,-14.00,-12.00
+1.00,+30.00,+13.00,+5.00,-30.00,-5.00,+41.00,+23.00,+65.00,+32.00,+0.00,-25.00,-8.00,-5.00,-47.00,+6.00
-23.00,+21.00,-6.00,-7.00,+0.00,+26.00,-6.00,-15.00,-20.00,+2.00,-3.00,+4.00,+5.00,-20.00,-14.00,-13.00
-48.00,-83.00,-4.00,+6.00,+1.00,-8.00,+13.00,-10.00,-28.00,-7.00,+5.00,+36.00,+45.00,+23.00,+13.00,+9.00
+0.00,-1.00,-3.00,-8.00,+2.00,+42.00,+40.00,+5.00,+56.00,-16.00,-20.00,-34.00,-9.00,-11.00,-16.00,+26.00
+17.00,+53.00,+7.00,-1.00,+0.00,+47.00,+5.00,+20.00,-40.00,-14.00,-1.00,-2.00,-12.00,+30.00,+21.00,-25.00
-36.00,+40.00,+4.00,-3.00,-3.00,-23.00,-14.00,-11.00,+18.00,+12.00,+3.00,-5.00,-18.00,-4.00,+34.00,+1.00
+35.00,-24.00,-2.00,+0.00,+8.00,+27.00,+58.00,-3.00,-20.00,+8.00,+14.00,+2.00,-6.00,-19.00,-9.00,+17.00
+37.00,+43.00,-6.00,+1.00,+5.00,-9.00,+15.00,+25.00,+5.00,+4.00,-4.00,+5.00,+19.00,+3.00,+4.00,+13.00
+14.00,-7.00,-8.00,-3.00,+11.00,+7.00,+26.00,+1.00,+11.00,+13.00,-2.00,-4.00,-9.00,-18.00,-45.00,+4.00
-35.00,-31.00,-6.00,-7.00,-54.00,+3.00,+6.00,-14.00,-34.00,-111.00,-22.00,+12.00,+14.00,+6.00,-22.00,-15.00
+22.00,+52.00,+6.00,+4.00,+33.00,-26.00,-38.00,+19.00,-4.00,+52.00,+12.00,-8.00,-14.00,+1.00,+4.00,-13.00
-35.00,-42.00,-2.00,+2.00,+21.00,+55.00,+64.00,+5.00,-24.00,+2.00,+6.00,+2.00,+4.00,-10.00,+18.00,+1.00
+1.00,-18.00,-8.00,-6.00,-89.00,-19.00,+13.00,-26.00,-2.00,+3.00,-13.00,-10.00,-9.00,-4.00,-12.00,-21.00
-13.00,+46.00,+7.00,+4.00,+84.00,+12.00,-23.00,-10.00,-5.00,+16.00,+12.00,+4.00,-6.00,-3.00,-26.00,-1.00
-17.00,-45.00,+1.00,+2.00,-16.00,+21.00,-8.00,+0.00,+6.00,-67.00,-18.00,-5.00,-2.00,+3.00,+3.00,+9.00
+8.00,+65.00,+7.00,+1.00,+12.00,-7.00,-40.00,+41.00,-16.00,+40.00,+9.00,-8.00,-6.00,-1.00,-12.00,+2.00
-2.00,-6.00,-8.00,-2.00,+29.00,+31.00,-13.00,-2.00,+7.00,-31.00,-6.00,+11.00,+14.00,+16.00,+45.00,+4.00
-12.00,+23.00,+7.00,+4.00,+2.00,-42.00,+12.00,-3.00,+13.00,+62.00,+6.00,-1.00,+16.00,-6.00,-2.00,+0.00
+21.00,+8.00,+1.00,+0.00,-9.00,-5.00,+30.00,+0.00,+7.00,-13.00,+1.00,-4.00,+0.00,+1.00,+3.00,+6.00
-21.00,-25.00,+1.00,+3.00,+11.00,-11.00,-16.00,-30.00,+6.00,+14.00,+2.00,+6.00,+11.00,+8.00,+70.00,+16.00
-25.00,-16.00,-23.00,-16.00,+9.00,-8.00,+9.00,-14.00,-6.00,-12.00,-6.00,+14.00,+3.00,+5.00,+23.00,+17.00
+17.00,-59.00,+3.00,+4.00,-35.00,+5.00,+15.00,+13.00,+22.00,+17.00,+4.00,-14.00,+2.00,+0.00,-3.00,+11.00
+28.00,+24.00,+3.00,+1.00,+8.00,+13.00,+1.00,+8.00,-45.00,-39.00,-9.00,-33.00,-70.00,-1.00,-10.00,-11.00
+0.00,+0.00,+2.00,+4.00,-23.00,-15.00,+0.00,-13.00,+33.00,+14.00,+4.00,+0.00,+46.00,+9.00,-26.00,-5.00
+24.00,+33.00,+2.00,+3.00,+51.00,-3.00,-5.00,+9.00,-12.00,+16.00,+6.00,-5.00,-14.00,-23.00,+5.00,+21.00
+1.00,-79.00,-16.00,-13.00,-14.00,-5.00,+9.00,-9.00,+15.00,+8.00,+1.00,-10.00,-16.00,+4.00,-28.00,-2.00
+10.00,+38.00,+8.00,-1.00,-29.00,-5.00,+0.00,+5.00,+1.00,-24.00,-10.00,+13.00,+21.00,+7.00,+8.00,+18.00
-58.00,+2.00,-1.00,+0.00,-19.00,-18.00,+3.00,+11.00,-14.00,-18.00,-6.00,-1.00,-10.00,-18.00,+0.00,-7.00
+3.00,+3.00,+5.00,+8.00,+35.00,+22.00,+1.00,-6.00,+2.00,-8.00,-6.00,-11.00,-14.00,-6.00,-7.00,-11.00
+13.00,+51.00,-1.00,-11.00,-84.00,-32.00,-1.00,-8.00,-19.00,-1.00,+9.00,+18.00,+7.00,+3.00,-14.00,-5.00
-17.00,-79.00,-13.00,+14.00,+90.00,+28.00,+27.00,+18.00,+34.00,+5.00,-4.00,+1.00,+6.00,-5.00,-1.00,-1.00
-3.00,+26.00,+3.00,-2.00,-5.00,-7.00,+45.00,-11.00,+2.00,+16.00,+3.00,+7.00,-7.00,-1.00,-7.00,+3.00
+21.00,+0.00,-1.00,-2.00,-10.00,+10.00,-53.00,+4.00,-3.00,-23.00,-1.00,+1.00,+10.00,+1.00,+4.00,-3.00
-10.00,-9.00,+4.00,+8.00,+5.00,+11.00,+95.00,+1.00,+0.00,+41.00,+1.00,-3.00,-12.00,-1.00,+8.00,+1.00
+1.00,+22.00,+0.00,-11.00,-58.00,-17.00,-36.00,-4.00,+3.00,-4.00,-1.00,-1.00,+4.00,+0.00,+2.00,+2.00
+1.00,-58.00,-15.00,-7.00,-8.00,-2.00,-7.00,-3.00,-31.00,+12.00,-5.00,-11.00,-13.00,-3.00,-7.00,-8.00
-27.00,+24.00,+11.00,+6.00,+12.00,-3.00,+2.00,+10.00,+20.00,-32.00,-1.00,+0.00,+0.00,+4.00,-3.00,+3.00
+36.00,+45.00,+9.00,+9.00,+48.00,+5.00,-11.00,+1.00,-10.00,+19.00,+1.00,-4.00,-5.00,+6.00,+3.00,+7.00
-14.00,+29.00,-3.00,-7.00,-19.00,-18.00,+11.00,-16.00,-2.00,-16.00,+1.00,-4.00,+1.00,-1.00,-2.00,-5.00
-24.00,-59.00,-8.00,-1.00,+19.00,+12.00,-7.00,+7.00,-12.00,-23.00,-7.00,+4.00,+5.00,+0.00,-21.00,-8.00
-23.00,-13.00,+0.00,-3.00,-11.00,-1.00,+23.00,+0.00,-4.00,+42.00,+5.00,+4.00,+5.00,+26.00,+12.00,+0.00
+7.00,+8.00,-3.00,+0.00,+18.00,+3.00,-30.00,+13.00,-28.00,-32.00,-4.00,-5.00,-2.00,-5.00,+9.00,+4.00
-9.00,-17.00,-4.00,-7.00,-20.00,+2.00,+3.00,+7.00,-17.00,-16.00,-2.00,+8.00,+8.00,-8.00,-3.00,-11.00
+25.00,+25.00,-2.00,-1.00,-1.00,-13.00,-55.00,-40.00,-2.00,+15.00,+1.00,-13.00,-12.00,+23.00,-2.00,+5.00
+19.00,-11.00,+9.00,+1.00,-21.00,-6.00,+97.00,+40.00,+17.00,-5.00,-3.00,-6.00,+3.00,-12.00,+3.00,+7.00
-27.00,-18.00,+4.00,+6.00,+20.00,+7.00,+14.00,+9.00,-4.00,-13.00,-6.00,-1.00,-6.00,+2.00,-26.00,-4.00
+17.00,+43.00,+3.00,+2.00,+0.00,+8.00,-9.00,-1.00,-6.00,+17.00,+0.00,-1.00,-2.00,+6.00,-5.00,-8.00
-2.00,-24.00,-2.00,-2.00,-4.00,-8.00,-5.00,-6.00,+10.00,-14.00,-1.00,+8.00,+10.00,-2.00,-6.00,+2.00
+17.00,+25.00,-3.00,-12.00,-74.00,-62.00,-46.00,-25.00,+33.00,+15.00,+4.00,-1.00,-2.00,-5.00,+32.00,-2.00
-14.00,-111.00,-16.00,-2.00,-14.00,+18.00,-19.00,-6.00,-21.00,-13.00,-3.00,-1.00,-2.00,+2.00,-10.00,+5.00
+58.00,+93.00,+17.00,+7.00,+56.00,+7.00,+46.00,+27.00,-13.00,-7.00,-2.00,-2.00,-1.00,-7.00,-2.00,-4.00
-2.00,-46.00,-1.00,+2.00,+13.00,+10.00,-4.00,-8.00,+7.00,+24.00,+7.00,+6.00,-3.00,-4.00,-2.00,-5.00
+6.00,-17.00,-2.00,+5.00,+5.00,-2.00,-5.00,-8.00,-8.00,-16.00,-2.00,-1.00,+17.00,-5.00,-17.00,-2.00
+10.00,+16.00,+2.00,-5.00,-19.00,-6.00,-1.00,+18.00,+0.00,+4.00,-2.00,+1.00,+2.00,-4.00,+6.00,-11.00
-27.00,-62.00,-15.00,-9.00,-31.00,-7.00,-19.00,-23.00,-12.00,-39.00,-9.00,+0.00,+7.00,+3.00,+2.00,-1.00
+13.00,+57.00,+8.00,+0.00,-7.00,-13.00,-1.00,+10.00,+17.00,+32.00,+8.00,+1.00,+0.00,-4.00,+2.00,+4.00
+5.00,-16.00,-3.00,+3.00,+38.00,+21.00,+3.00,+0.00,-8.00,+30.00,-2.00,-2.00,-7.00,+2.00,-8.00,-9.00
-9.00,+43.00,-8.00,-7.00,+3.00,-3.00,-11.00,-10.00,-9.00,-39.00,+1.00,+1.00,-3.00,+3.00,+9.00,-3.00
-13.00,-45.00,+2.00,+3.00,-9.00,+7.00,-11.00,+2.00,+24.00,+40.00,-1.00,-2.00,-1.00,+5.00,+3.00,+7.00
+16.00,+24.00,+6.00,+5.00,+10.00,+2.00,+4.00,+5.00,-7.00,-27.00,-4.00,-1.00,-6.00,-6.00,-7.00,-5.00
-23.00,-23.00,-5.00,+1.00,+5.00,+12.00,+3.00,-12.00,-5.00,+3.00,+1.00,-1.00,-9.00,-9.00,-6.00,-1.00
+17.00,+21.00,-3.00,+2.00,+18.00,+3.00,-16.00,+1.00,-4.00,-10.00,-3.00,-1.00,-1.00,+1.00,+5.00,-7.00
-14.00,-9.00,-5.00,-8.00,-25.00,-6.00,-5.00,-5.00,+22.00,+6.00,+0.00,+3.00,+2.00,-9.00,-8.00,+8.00
-3.00,-52.00,-8.00,-5.00,-14.00,-6.00,+3.00,+4.00,-10.00,+10.00,+0.00,-8.00,-14.00,+0.00,+0.00,-7.00
-4.00,+56.00,+16.00,+4.00,+17.00,+8.00,-9.00,-22.00,-6.00,+0.00,-1.00,-7.00,-2.00,+5.00,+8.00,+2.00
+7.00,+77.00,-4.00,-3.00,+6.00,-3.00,-4.00,-1.00,+3.00,+10.00,+1.00,+5.00,-8.00,-14.00,-18.00,-9.00
-12.00,-83.00,-4.00,+0.00,+16.00,-1.00,+13.00,+10.00,-16.00,-15.00,-3.00,-19.00,-1.00,-8.00,-15.00,-10.00
-4.00,+30.00,+2.00,+2.00,+22.00,+23.00,-6.00,+13.00,-2.00,+0.00,-3.00,-5.00,-3.00,+31.00,+12.00,+4.00
-13.00,-18.00,-5.00,+2.00,+54.00,+9.00,+39.00,+11.00,+8.00,-8.00,-4.00,-1.00,-6.00,-9.00,-8.00,+1.00
-3.00,-14.00,-2.00,-4.00,+17.00,+10.00,-82.00,-25.00,+4.00,+13.00,+0.00,-1.00,+4.00,+12.00,-11.00,-11.00
+2.00,-5.00,-3.00,-10.00,-71.00,-27.00,+62.00,+21.00,-8.00,-6.00,+0.00,+2.00,-5.00,+4.00,-1.00,+12.00
+3.00,+30.00,+3.00,+6.00,+63.00,+5.00,-2.00,-9.00,+6.00,+1.00,-1.00,+7.00,+7.00,-13.00,-13.00,-9.00
+4.00,+20.00,-10.00,-7.00,-14.00,+17.00,-24.00,-10.00,-8.00,-3.00,-2.00,+1.00,-2.00,+2.00,+7.00,+7.00
-5.00,-61.00,+2.00,+1.00,-19.00,-35.00,-3.00,+4.00,-11.00,-9.00,-3.00,-2.00,-2.00,+1.00,+2.00,-7.00
+1.00,+27.00,+2.00,+1.00,-18.00,+10.00,-22.00,-3.00,-1.00,-10.00,-3.00,+0.00,+2.00,-1.00,+3.00,-4.00
+14.00,-4.00,+1.00,-2.00,-28.00,-25.00,-10.00,+2.00,+5.00,+10.00,+3.00,-1.00,+1.00,-9.00,+1.00,+4.00
+4.00,-5.00,+0.00,+2.00,-4.00,+7.00,-2.00,-6.00,-2.00,+0.00,-2.00,+1.00,-2.00,-3.00,-17.00,-4.00
-5.00,-11.00,-1.00,-2.00,+3.00,+9.00,+23.00,+5.00,-16.00,-6.00,-5.00,-6.00,-3.00,-5.00,+7.00,+4.00
+3.00,+18.00,-4.00,-4.00,-8.00,-10.00,-27.00,-17.00,+25.00,+6.00,+4.00,+0.00,+0.00,+2.00,+2.00,-4.00
-7.00,+4.00,+1.00,-1.00,-15.00,-2.00,-1.00,+2.00,-44.00,-10.00,-4.00,-2.00,-1.00,-3.00,-2.00,+1.00
+3.00,-24.00,-2.00,-2.00,-11.00,-3.00,-6.00,+1.00,+38.00,+15.00,+5.00,+1.00,-5.00,-2.00,-3.00,-5.00
+2.00,+16.00,+0.00,-1.00,+3.00,+6.00,+10.00,-3.00,-3.00,-15.00,-2.00,-1.00,+0.00,-1.00,+5.00,+2.00
-2.00,-8.00,-5.00,-1.00,+7.00,+0.00,-12.00,-4.00,-32.00,-16.00,-6.00,-2.00,-1.00,+4.00,+8.00,-5.00
-6.00,+4.00,+9.00,+2.00,-11.00,-1.00,-2.00,+2.00,+24.00,-8.00,+1.00,+0.00,-2.00,-4.00,-6.00,-1.00
-5.00,-45.00,-8.00,+0.00,+2.00,+9.00,-2.00,+8.00,+0.00,+20.00,+1.00,+0.00,+0.00,-3.00,-3.00,-2.00
-4.00,-4.00,+2.00,+0.00,-3.00,-1.00,+7.00,-2.00,+1.00,-1.00,-3.00,-1.00,+1.00,+3.00,+7.00,+2.00
+3.00,+8.00,-6.00,-2.00,+0.00,-32.00,-2.00,-3.00,+0.00,-1.00,-3.00,+0.00,-1.00,-1.00,-5.00,+0.00
-1.00,+2.00,-6.00,-2.00,-8.00,-8.00,+0.00,-4.00,+6.00,-5.00,-2.00,+0.00,-1.00,-9.00,-4.00,+2.00
+10.00,+13.00,+2.00,+0.00,-5.00,-15.00,-14.00,-3.00,-15.00,-17.00,-5.00,-2.00,-3.00,-2.00,-1.00,-4.00
-7.00,-20.00,+0.00,+2.00,+0.00,-2.00,+8.00,+8.00,+15.00,+17.00,+2.00,+4.00,+2.00,+2.00,+2.00,-2.00
-1.00,-5.00,-1.00,-2.00,+4.00,+19.00,+42.00,-6.00,-4.00,+2.00,-1.00,+1.00,+0.00,+3.00,+2.00,+0.00
+9.00,-7.00,-3.00,-5.00,-27.00,-20.00,-6.00,-7.00,-3.00,-1.00,-2.00,+0.00,+1.00,-6.00,-7.00,-7.00
-3.00,-16.00,+1.00,+2.00,-7.00,-2.00,+22.00,+14.00,-1.00,-7.00,-2.00,-5.00,-1.00,-1.00,+4.00,+7.00
+2.00,+2.00,-1.00,+1.00,+33.00,+18.00,+46.00,-10.00,-6.00,-2.00,-5.00,-4.00,-4.00,-3.00,-3.00,-4.00
+0.00,+9.00,+3.00,+5.00,+5.00,+5.00,-19.00,+6.00,+15.00,+7.00,+3.00,+4.00,-1.00,+1.00,+0.00,+1.00
-11.00,+0.00,-3.00,-4.00,+0.00,+1.00,+12.00,-15.00,-17.00,-13.00,-2.00,+1.00,+0.00,-1.00,+0.00,-2.00
+8.00,+0.00,-2.00,-2.00,-3.00,-4.00,-20.00,+20.00,+9.00,+4.00,+0.00,+0.00,-2.00,+0.00,-6.00,-7.00
+0.00,+6.00,+1.00,+0.00,-12.00,-7.00,-10.00,+1.00,+2.00,+8.00,+2.00,+0.00,-1.00,-2.00,+2.00,+2.00
-3.00,+11.00,+3.00,+2.00,+6.00,+11.00,-6.00,-6.00,-12.00,-2.00,+3.00,+4.00,+3.00,+0.00,-2.00,-9.00
-5.00,-9.00,-3.00,-2.00,-3.00,-7.00,-17.00,+4.00,+0.00,-1.00,-2.00,-3.00,-1.00,+0.00,+2.00,+5.00
+0.00,+2.00,-1.00,+1.00,-1.00,+2.00,-7.00,-12.00,-29.00,-24.00,-4.00,-2.00,-3.00,-2.00,-5.00,-4.00
-11.00,-5.00,-6.00,-5.00,-6.00,+5.00,-10.00,-9.00,+9.00,+6.00,-3.00,-4.00,-3.00,-2.00,+1.00,+1.00
+10.00,-5.00,+3.00,+4.00,+8.00,+0.00,-13.00,+3.00,+12.00,+16.00,+4.00,+4.00,+1.00,+1.00,+1.00,+0.00
-1.00,+33.00,-3.00,-4.00,-8.00,+2.00,-4.00,-8.00,-10.00,-11.00,-2.00,-2.00,-2.00,-2.00,-4.00,-9.00
-10.00,-30.00,-5.00,-4.00,+4.00,-1.00,+1.00,-7.00,+1.00,+10.00,+6.00,+3.00,+1.00,-2.00,-1.00,+1.00
