+3.00,-3.00,-3.00,-2.00,+3.00,+0.00,-13.00,+0.00,+3.00,+1.00,+0.00,-2.00,-1.00,+0.00,-5.00,-2.00
-4.00,-16.00,-4.00,+0.00,+2.00,-5.00,-5.00,+10.00,+11.00,+3.00,-3.00,+0.00,+0.00,-4.00,-4.00,+3.00
+6.00,+12.00,+0.00,+0.00,-1.00,+2.00,+57.00,+3.00,-3.00,-2.00,-1.00,+1.00,+3.00,+10.00,+13.00,-9.00
+1.00,+7.00,+0.00,+0.00,+1.00,-1.00,-2.00,-4.00,+3.00,-1.00,-3.00,-8.00,-8.00,-19.00,-7.00,+1.00
-7.00,+5.00,+0.00,-5.00,-2.00,+1.00,+6.00,-2.00,+4.00,+1.00,+0.00,-1.00,+1.00,+4.00,+12.00,+8.00
+0.00,+2.00,+0.00,-2.00,+0.00,+0.00,-4.00,-8.00,-2.00,-4.00,-1.00,-4.00,-4.00,-7.00,-14.00,-4.00
+3.00,-13.00,-2.00,-2.00,-1.00,+0.00,-8.00,-1.00,-4.00,-5.00,+0.00,-2.00,-1.00,+2.00,-10.00,-7.00
-12.00,-2.00,-1.00,+1.00,-1.00,+1.00,-11.00,-5.00,-5.00,-4.00,-3.00,+1.00,-1.00,+8.00,+0.00,-3.00
-2.00,+0.00,-1.00,-1.00,-1.00,+0.00,+11.00,+0.00,-9.00,-5.00,-3.00,-4.00,-1.00,+1.00,+3.00,-5.00
-2.00,-6.00,-3.00,-4.00,+2.00,-3.00,+11.00,+0.00,+0.00,-5.00,-7.00,+0.00,+4.00,-2.00,+1.00,-4.00
+5.00,+2.00,+2.00,+0.00,+3.00,-3.00,-33.00,-15.00,+0.00,+3.00,+2.00,+2.00,+2.00,-5.00,+0.00,+10.00
+3.00,+3.00,+0.00,-2.00,+3.00,+1.00,+2.00,+11.00,-9.00,-3.00,-1.00,+25.00,+29.00,+6.00,+1.00,-12.00
-9.00,-4.00,-1.00,+0.00,-2.00,-1.00,-1.00,+3.00,+9.00,-7.00,-2.00,-25.00,-18.00,-8.00,-4.00,+9.00
+1.00,-3.00,+2.00,-1.00,-3.00,+0.00,+12.00,+1.00,-6.00,-2.00,+3.00,+11.00,-10.00,+6.00,-1.00,+3.00
+2.00,-1.00,+0.00,+1.00,+0.00,+1.00,-22.00,-1.00,+3.00,-27.00,-7.00,-24.00,-25.00,-10.00,+2.00,-3.00
+5.00,+2.00,+0.00,+1.00,-3.00,-3.00,-10.00,+8.00,+7.00,+40.00,+0.00,-14.00,-7.00,-11.00,-16.00,-6.00
-1.00,+1.00,+1.00,+2.00,-5.00,-4.00,+4.00,-1.00,-2.00,+20.00,+1.00,+4.00,+4.00,+19.00,+17.00,-6.00
+7.00,+1.00,+0.00,+0.00,-8.00,+0.00,+3.00,+7.00,-6.00,+13.00,+0.00,-5.00,+0.00,-16.00,-11.00,+4.00
-7.00,-6.00,+1.00,-1.00,-6.00,-2.00,-5.00,+4.00,+0.00,-15.00,-5.00,+4.00,+6.00,-6.00,-7.00,-8.00
-21.00,-7.00,-1.00,+1.00,+0.00,+3.00,+10.00,+10.00,-8.00,-17.00,+0.00,+5.00,-2.00,-1.00,+1.00,-3.00
+18.00,+0.00,-4.00,+2.00,-5.00,-3.00,-33.00,-20.00,+9.00,-19.00,-7.00,+3.00,+6.00,-2.00,-3.00,-5.00
-39.00,+2.00,-3.00,-6.00,-5.00,-3.00,+25.00,+9.00,-1.00,-20.00,-3.00,+0.00,+3.00,+10.00,+3.00,+11.00
+21.00,+0.00,-5.00,-5.00,-7.00,-4.00,-12.00,+7.00,-2.00,+14.00,+3.00,+3.00,+3.00,+0.00,+2.00,+0.00
+1.00,-7.00,-2.00,-2.00,-8.00,-4.00,-19.00,-1.00,+13.00,-8.00,+1.00,-2.00,-2.00,+0.00,-2.00,+12.00
-2.00,-19.00,-2.00,-2.00,-9.00,+0.00,+56.00,-2.00,-12.00,+4.00,+2.00,+5.00,-3.00,-12.00,-8.00,-15.00
+1.00,+18.00,-3.00,-3.00,-13.00,-10.00,-25.00,-18.00,-3.00,-13.00,-3.00,-7.00,+0.00,+13.00,+6.00,-3.00
-8.00,+2.00,+0.00,-3.00,-10.00,+8.00,+38.00,+9.00,-12.00,-1.00,-2.00,+2.00,-2.00,-8.00,-8.00,+0.00
-5.00,-3.00,-5.00,-8.00,-34.00,+17.00,+0.00,-4.00,+9.00,-1.00,-2.00,-4.00,-8.00,+1.00,+1.00,-3.00
-8.00,+10.00,+1.00,+5.00,+44.00,-28.00,-15.00,+14.00,+1.00,-4.00,+2.00,+5.00,-1.00,-8.00,-8.00,+7.00
+14.00,-9.00,+9.00,+5.00,-17.00,-26.00,-15.00,-2.00,+4.00,+10.00,+2.00,+0.00,+0.00,-4.00,+5.00,-4.00
-11.00,+4.00,-2.00,+6.00,+81.00,+37.00,-4.00,-21.00,-6.00,+2.00,-5.00,-2.00,+1.00,+3.00,-5.00,+3.00
+8.00,+7.00,-6.00,-1.00,+6.00,-4.00,-1.00,-7.00,+1.00,-5.00,-6.00,-3.00,-6.00,+1.00,+3.00,-1.00
+5.00,-4.00,-1.00,+3.00,+1.00,+28.00,-43.00,-21.00,-5.00,-16.00,-5.00,-7.00,-7.00,+1.00,-3.00,-4.00
-39.00,+5.00,+1.00,+1.00,+6.00,+6.00,+82.00,+36.00,+20.00,-41.00,-3.00,+3.00,+22.00,+1.00,+3.00,+16.00
-11.00,-23.00,+1.00,-2.00,-21.00,-23.00,-32.00,-21.00,-26.00,+59.00,+12.00,+6.00,-17.00,+0.00,-2.00,-19.00
+1.00,+12.00,+0.00,-2.00,+7.00,+5.00,+13.00,+1.00,-4.00,+21.00,+5.00,-5.00,-9.00,-2.00,-3.00,-8.00
-21.00,-29.00,-8.00,-7.00,-13.00,-3.00,-3.00,-8.00,-11.00,-11.00,-11.00,-4.00,+1.00,-6.00,-5.00,-3.00
+53.00,+18.00,+7.00,+3.00,-2.00,+5.00,-34.00,-12.00,+23.00,+18.00,+8.00,+9.00,+16.00,+2.00,+4.00,+15.00
+8.00,+20.00,-2.00,-3.00,-20.00,-4.00,+13.00,+10.00,+4.00,-32.00,-7.00,-3.00,-1.00,+4.00,+4.00,+3.00
-2.00,-8.00,+4.00,+2.00,+9.00,-7.00,+5.00,-2.00,+1.00,-1.00,-2.00,-8.00,+0.00,+4.00,+2.00,-6.00
+2.00,+16.00,+0.00,-1.00,-5.00,-2.00,-39.00,-7.00,-23.00,-17.00,+3.00,+3.00,-2.00,-1.00,+0.00,+9.00
-8.00,-7.00,-4.00,-2.00,+7.00,+5.00,-14.00,-35.00,+14.00,+22.00,-3.00,-6.00,-7.00,-4.00,-2.00,-9.00
-11.00,-10.00,-2.00,-1.00,-3.00,-5.00,+1.00,+1.00,-7.00,-10.00,-4.00,+5.00,+11.00,+10.00,+7.00,+3.00
+13.00,-2.00,+0.00,-1.00,+2.00,-4.00,-5.00,-9.00,-23.00,+6.00,-1.00,+1.00,-1.00,+18.00,-4.00,-19.00
-2.00,+9.00,+7.00,-1.00,-7.00,-4.00,-1.00,+5.00,+32.00,+7.00,+3.00,+1.00,+3.00,+5.00,+2.00,+9.00
-12.00,-4.00,-5.00,-3.00,+3.00,+6.00,-16.00,-6.00,-14.00,+0.00,-3.00,+2.00,-1.00,-6.00,-3.00,-12.00
-20.00,+3.00,-1.00,-1.00,-9.00,-6.00,-9.00,-3.00,+0.00,-4.00,+0.00,-1.00,+0.00,-5.00,-7.00,-3.00
-11.00,-11.00,-3.00,-6.00,-7.00,+26.00,-12.00,+12.00,+6.00,-15.00,-1.00,-2.00,-4.00,-5.00,-5.00,+4.00
+31.00,+3.00,+7.00,+7.00,-3.00,-41.00,+39.00,+3.00,-2.00,+9.00,+3.00,+1.00,-1.00,-2.00,+0.00,-4.00
+39.00,-28.00,-9.00,-3.00,-5.00,-3.00,+13.00,+5.00,-7.00,+7.00,+2.00,+1.00,-10.00,-1.00,-5.00,-6.00
+37.00,-2.00,-6.00,-5.00,-31.00,-9.00,-2.00,+9.00,+11.00,+0.00,+0.00,-2.00,+8.00,-7.00,-6.00,-1.00
+15.00,+30.00,+8.00,+0.00,+40.00,-2.00,+8.00,+4.00,-4.00,-14.00,-2.00,-3.00,-2.00,-1.00,+0.00,+2.00
-25.00,-8.00,-1.00,-1.00,+2.00,+16.00,+11.00,+7.00,-8.00,+3.00,-2.00,+2.00,+7.00,-3.00,-6.00,-9.00
-16.00,+14.00,+1.00,-4.00,-20.00,+0.00,+2.00,+9.00,+6.00,+13.00,+3.00,+0.00,-5.00,-5.00,-2.00,-3.00
-16.00,-4.00,-11.00,-7.00,-4.00,-12.00,-16.00,+0.00,-16.00,-16.00,-7.00,-5.00,-3.00,+3.00,+3.00,+4.00
-28.00,-12.00,-4.00,+3.00,+16.00,+10.00,+7.00,+5.00,-5.00,-6.00,+2.00,+4.00,+4.00,-6.00,+5.00,+15.00
+0.00,+8.00,+0.00,-3.00,+6.00,+15.00,-20.00,+0.00,+44.00,+27.00,+4.00,+7.00,+10.00,+3.00,+3.00,+9.00
-7.00,-11.00,+1.00,+5.00,+17.00,+9.00,+63.00,+21.00,-12.00,-8.00,-4.00,-16.00,-26.00,+0.00,+0.00,-5.00
-6.00,+13.00,+1.00,+0.00,-15.00,-3.00,-41.00,-11.00,+7.00,-4.00,-4.00,-2.00,+2.00,-1.00,-1.00,+1.00
-5.00,-21.00,-1.00,+1.00,-12.00,+6.00,+15.00,-5.00,-3.00,-3.00,+0.00,+4.00,+11.00,-1.00,+0.00,+10.00
-10.00,-9.00,+1.00,+0.00,+1.00,-14.00,-1.00,+3.00,-10.00,-16.00,+0.00,-3.00,-24.00,+9.00,+7.00,-6.00
-10.00,-36.00,-5.00,-3.00,-5.00,+21.00,-28.00,-8.00,-1.00,+7.00,-5.00,-9.00,-5.00,+4.00,+8.00,+0.00
+27.00,+34.00,+8.00,+1.00,+3.00,-23.00,+3.00,-4.00,+13.00,-24.00,-3.00,+0.00,-1.00,-9.00,-11.00,-1.00
+24.00,+32.00,+6.00,+1.00,-2.00,-10.00,+0.00,-13.00,+5.00,+53.00,+5.00,-3.00,-7.00,-2.00,+2.00,-8.00
-5.00,-15.00,-5.00,-2.00,-6.00,+5.00,-4.00,-6.00,-15.00,-30.00,-7.00,+1.00,+8.00,+6.00,-5.00,+7.00
+3.00,+3.00,+0.00,-1.00,+3.00,-6.00,-11.00,-24.00,+2.00,+7.00,+5.00,+4.00,+3.00,+0.00,-3.00,-8.00
-12.00,-16.00,-1.00,+2.00,+10.00,+21.00,+32.00,+4.00,-6.00,-6.00,-5.00,-1.00,+0.00,-24.00,-3.00,+7.00
+5.00,-7.00,+1.00,+2.00,-4.00,-13.00,-43.00,-13.00,-13.00,-20.00,-6.00,-7.00,-2.00,+4.00,+11.00,-11.00
-6.00,+1.00,-2.00,-2.00,-9.00,+3.00,+18.00,+7.00,+5.00,+0.00,+2.00,-1.00,-2.00,-5.00,-3.00,-2.00
+5.00,+21.00,+3.00,+1.00,+9.00,+3.00,-21.00,-2.00,-8.00,-6.00,-2.00,-2.00,-7.00,+2.00,+0.00,-3.00
+5.00,-8.00,-5.00,-4.00,+8.00,+9.00,+7.00,+0.00,+12.00,+16.00,+8.00,+3.00,+12.00,+1.00,-3.00,+0.00
-6.00,-8.00,-3.00,-4.00,-17.00,-22.00,-1.00,-5.00,+0.00,-15.00,-3.00,+1.00,-5.00,-6.00,-10.00,-4.00
-6.00,+17.00,+5.00,+4.00,-11.00,+1.00,+15.00,+7.00,-4.00,+16.00,+1.00,+0.00,+0.00,-5.00,+0.00,-5.00
-43.00,-10.00,+2.00,+4.00,+15.00,-2.00,-6.00,-2.00,-7.00,-11.00,-4.00,-3.00,-1.00,-6.00,-2.00,+2.00
+2.00,-20.00,-9.00,-10.00,-6.00,+6.00,+4.00,+8.00,-4.00,+8.00,+2.00,+0.00,-4.00,+7.00,-1.00,-6.00
-5.00,-5.00,-12.00,-11.00,-10.00,+14.00,-5.00,-4.00,+6.00,-5.00,-2.00,+6.00,+3.00,-5.00,-3.00,+8.00
+17.00,-12.00,-4.00,-3.00,+0.00,-12.00,-5.00,-4.00,-3.00,+2.00,-2.00,-13.00,-15.00,-4.00,+1.00,-6.00
+12.00,+12.00,+0.00,+2.00,+24.00,+6.00,-14.00,-12.00,+2.00,+0.00,-1.00,-1.00,+6.00,-1.00,-6.00,-6.00
+10.00,+12.00,+8.00,+6.00,-8.00,-8.00,+65.00,+23.00,-17.00,+0.00,-3.00,+3.00,-1.00,+5.00,+4.00,-2.00
+7.00,+18.00,-3.00,+1.00,+8.00,+5.00,+1.00,+4.00,+14.00,-4.00,-3.00,-12.00,-18.00,+0.00,+6.00,+13.00
+3.00,-15.00,-2.00,-3.00,-4.00,+8.00,+0.00,+2.00,-6.00,-16.00,-6.00,-4.00,-6.00,-18.00,-5.00,+3.00
+33.00,+8.00,+3.00,-2.00,-7.00,-6.00,-13.00,-20.00,-42.00,+9.00,+1.00,-2.00,+0.00,+0.00,-4.00,-9.00
-5.00,-4.00,-1.00,+0.00,+5.00,+8.00,+14.00,+5.00,+57.00,+23.00,-2.00,-5.00,-7.00,-1.00,-5.00,-2.00
-15.00,-31.00,-3.00,+0.00,-8.00,-11.00,+4.00,+5.00,-17.00,-11.00,+1.00,+7.00,+8.00,-2.00,+2.00,+4.00
-5.00,+8.00,-3.00,-2.00,+2.00,+8.00,+16.00,+4.00,-9.00,+2.00,-3.00,+2.00,+5.00,+4.00,+0.00,-6.00
+1.00,-18.00,-2.00,+3.00,+3.00,-10.00,-23.00,+1.00,+8.00,+1.00,-1.00,+0.00,+1.00,+3.00,+2.00,+6.00
+20.00,+27.00,+2.00,+2.00,-2.00,+1.00,-21.00,-2.00,-18.00,-10.00,+1.00,-1.00,+1.00,-7.00,+7.00,+3.00
+10.00,+7.00,+6.00,+3.00,-5.00,-13.00,-5.00,-5.00,-2.00,-3.00,-2.00,+0.00,+0.00,+2.00,-9.00,-10.00
-3.00,+8.00,-2.00,-4.00,+0.00,-3.00,-2.00,-3.00,-7.00,-2.00,-3.00,-5.00,-6.00,-8.00,-6.00,-11.00
-12.00,-1.00,-4.00,-7.00,-4.00,+6.00,-5.00,+5.00,+8.00,-2.00,+1.00,+3.00,+2.00,+2.00,+6.00,+6.00
-1.00,-2.00,+5.00,+3.00,+1.00,+38.00,-4.00,-2.00,+0.00,+13.00,+3.00,+0.00,-1.00,+3.00,+0.00,+6.00
+10.00,+3.00,+6.00,+3.00,-5.00,-43.00,-8.00,+7.00,+7.00,-10.00,-2.00,-2.00,-3.00,-3.00,-5.00,-6.00
-4.00,-3.00,-2.00,-5.00,+7.00,+19.00,-7.00,-4.00,-24.00,-5.00,-3.00,+0.00,+2.00,+3.00,+4.00,+8.00
+0.00,-5.00,-6.00,-3.00,-11.00,-34.00,+9.00,+19.00,-4.00,-5.00,+0.00,+1.00,+5.00,+13.00,-5.00,-20.00
+12.00,+13.00,-2.00,-3.00,-30.00,-16.00,-13.00,-11.00,+3.00,-21.00,+1.00,+2.00,-3.00,+4.00,-3.00,-1.00
-35.00,-5.00,+5.00,+3.00,+44.00,+18.00,+6.00,+14.00,-10.00,+9.00,-4.00,+0.00,+4.00,-4.00,-1.00,+3.00
-3.00,+15.00,-4.00,-1.00,+1.00,+12.00,+9.00,+1.00,+8.00,+3.00,-2.00,-8.00,-9.00,+7.00,+0.00,+2.00
-6.00,-5.00,-7.00,-2.00,+0.00,+5.00,-2.00,-2.00,-3.00,-7.00,-7.00,+0.00,-10.00,-8.00,-3.00,+4.00
+12.00,-20.00,+3.00,+5.00,+4.00,-3.00,-8.00,-17.00,-13.00,+2.00,+4.00,+0.00,+5.00,-2.00,-5.00,-8.00
-39.00,-27.00,-6.00,-7.00,-19.00,-2.00,-4.00,-20.00,+30.00,-7.00,-6.00,-2.00,+0.00,+5.00,+9.00,+15.00
+9.00,+15.00,+1.00,-2.00,-5.00,-15.00,-37.00,-8.00,-1.00,+2.00,+1.00,+3.00,+11.00,-3.00,-3.00,+2.00
+7.00,+32.00,+0.00,-1.00,+5.00,+37.00,+67.00,+36.00,+2.00,-1.00,-1.00,-2.00,-4.00,-8.00,-6.00,-4.00
-12.00,-31.00,-1.00,+2.00,-1.00,-55.00,-1.00,-6.00,-5.00,+7.00,-2.00,-2.00,-9.00,+4.00,+6.00,+6.00
+8.00,-8.00,-8.00,+1.00,-7.00,+9.00,+8.00,+5.00,-9.00,-19.00,-5.00,+1.00,+2.00,-8.00,-4.00,-8.00
+20.00,+2.00,-2.00,-3.00,+5.00,+2.00,-8.00,-3.00,-3.00,+16.00,+4.00,+6.00,+8.00,+7.00,+5.00,+16.00
+2.00,-7.00,+0.00,-5.00,-11.00,-6.00,-8.00,-9.00,-32.00,-24.00,-6.00,-5.00,+0.00,+3.00,-5.00,-7.00
-33.00,+3.00,+0.00,-1.00,+6.00,+10.00,-16.00,-1.00,+27.00,+16.00,+3.00,+3.00,+3.00,-7.00,-3.00,+5.00
+13.00,-6.00,-1.00,-3.00,-4.00,-1.00,+8.00,+7.00,+32.00,+14.00,-6.00,-7.00,-7.00,-4.00,+4.00,-11.00
-25.00,-12.00,-5.00,+1.00,-6.00,-11.00,-20.00,-11.00,+5.00,+14.00,+11.00,+9.00,+6.00,+1.00,+2.00,+2.00
+41.00,+5.00,+2.00,+0.00,-3.00,+6.00,+29.00,-16.00,-27.00,+7.00,+5.00,+1.00,+0.00,-5.00,-4.00,-7.00
-18.00,+4.00,+3.00,+1.00,+9.00,-7.00,+11.00,+1.00,+9.00,-11.00,-7.00,-6.00,-2.00,+4.00,+0.00,+8.00
+9.00,-4.00,+0.00,+1.00,+0.00,+28.00,-41.00,-16.00,-18.00,-10.00,+1.00,+2.00,-2.00,-3.00,-5.00,-7.00
-17.00,-6.00,+3.00,+2.00,-4.00,-24.00,+1.00,+5.00,+19.00,-12.00,-8.00,-6.00,-4.00,-5.00,-3.00,-3.00
-24.00,-13.00,-7.00,-8.00,-8.00,-20.00,-20.00,+0.00,-17.00,-26.00,-11.00,+0.00,+1.00,+5.00,+14.00,+6.00
-7.00,-10.00,-10.00,-9.00,-17.00,+0.00,-14.00,-4.00,-16.00,+19.00,+5.00,-13.00,-10.00,-18.00,-12.00,-13.00
-29.00,-5.00,-6.00,-4.00,+24.00,-40.00,+13.00,-11.00,+43.00,+11.00,+4.00,+0.00,-3.00,+2.00,+8.00,+28.00
+15.00,+13.00,+1.00,-1.00,-3.00,+44.00,+17.00,+1.00,-8.00,-27.00,-7.00,-2.00,+8.00,-2.00,-4.00,-5.00
-7.00,+0.00,+6.00,+3.00,+5.00,+3.00,-11.00,+5.00,+12.00,+37.00,+6.00,+6.00,-2.00,-3.00,-5.00,-5.00
-15.00,-19.00,+0.00,+3.00,+7.00,+10.00,-2.00,-4.00,-15.00,-10.00,-2.00,+3.00,-6.00,+4.00,+5.00,-3.00
+27.00,+30.00,+3.00,+1.00,-17.00,-11.00,+8.00,+5.00,-18.00,-19.00,-3.00,+1.00,+2.00,+3.00,+0.00,+3.00
-3.00,+13.00,+0.00,-2.00,+7.00,+6.00,+2.00,+16.00,-5.00,+27.00,+9.00,+5.00,+0.00,-7.00,-4.00,-11.00
-20.00,-7.00,-2.00,-3.00,-2.00,+2.00,-23.00,-6.00,-6.00,-45.00,-8.00,+4.00,+12.00,-1.00,+2.00,+17.00
-4.00,-12.00,-6.00,-3.00,+0.00,-7.00,+8.00,+8.00,+16.00,+28.00,+5.00,+6.00,+1.00,+8.00,+3.00,+2.00
+13.00,-19.00,+4.00,+2.00,-5.00,+9.00,-23.00,-22.00,-64.00,-37.00,-8.00,-17.00,-14.00,-5.00,-13.00,-22.00
+9.00,+17.00,+5.00,+5.00,+6.00,-6.00,+64.00,+23.00,+50.00,+25.00,-1.00,-1.00,-12.00,+4.00,+2.00,+6.00
+16.00,+25.00,+0.00,-3.00,-6.00,+18.00,+1.00,+5.00,-21.00,-47.00,-11.00,-5.00,+5.00,-3.00,-8.00,-25.00
-7.00,-30.00,-6.00,-3.00,+7.00,-4.00,-17.00,+1.00,-13.00,-10.00,-5.00,+0.00,+4.00,+5.00,-11.00,-9.00
-1.00,-13.00,-6.00,-1.00,-6.00,+1.00,+8.00,+13.00,-11.00,+9.00,+9.00,+10.00,+14.00,+1.00,+1.00,+0.00
-1.00,-6.00,-4.00,-6.00,-5.00,+13.00,-6.00,-13.00,+21.00,+1.00,+4.00,-3.00,-10.00,-1.00,-6.00,-11.00
-37.00,-13.00,-7.00,-6.00,-10.00,-24.00,-17.00,-12.00,+4.00,+34.00,-1.00,+4.00,-7.00,+0.00,-1.00,+2.00
+11.00,+26.00,+1.00,+1.00,+17.00,+1.00,+50.00,-12.00,+22.00,-66.00,-13.00,-15.00,-16.00,-1.00,+1.00,+6.00
-27.00,-5.00,+1.00,-1.00,+1.00,-11.00,-4.00,+6.00,-16.00,+31.00,+2.00,-2.00,-1.00,+16.00,-1.00,-15.00
+4.00,-17.00,+2.00,+1.00,-7.00,-12.00,-17.00,-7.00,-35.00,+1.00,+2.00,+8.00,+9.00,-4.00,-2.00,-8.00
+30.00,+5.00,-1.00,+3.00,+0.00,+3.00,+15.00,+5.00,+11.00,-2.00,+1.00,+2.00,-16.00,+4.00,+1.00,-4.00
+20.00,-21.00,+3.00,+2.00,+3.00,+10.00,-20.00,-15.00,+8.00,+16.00,+7.00,-12.00,-2.00,+4.00,+4.00,+8.00
-1.00,+33.00,-5.00,-2.00,-8.00,+28.00,+22.00,+3.00,+27.00,+32.00,+9.00,-3.00,+3.00,-10.00,-3.00,+6.00
-8.00,-19.00,-7.00,-8.00,-30.00,-52.00,-24.00,-4.00,-6.00,-32.00,+0.00,-4.00,-6.00,+5.00,+5.00,+13.00
+4.00,+17.00,+7.00,+0.00,+14.00,-19.00,-8.00,+11.00,+5.00,-4.00,-8.00,-2.00,+18.00,+4.00,+0.00,-1.00
-8.00,+3.00,+6.00,+4.00,+2.00,+24.00,-17.00,-3.00,-24.00,-16.00,-11.00,-3.00,-5.00,-8.00,-6.00,-9.00
+15.00,+5.00,+0.00,+5.00,+43.00,+14.00,+13.00,+10.00,+22.00,+24.00,+14.00,+6.00,-1.00,-7.00,+3.00,+6.00
-27.00,-24.00,-9.00,-1.00,+2.00,+9.00,-1.00,-9.00,-37.00,-18.00,-5.00,+4.00,+7.00,+3.00,-3.00,-27.00
+35.00,-65.00,-4.00,-3.00,-4.00,+20.00,-65.00,-46.00,+10.00,+2.00,-4.00,+0.00,-2.00,-8.00,-1.00,-2.00
+7.00,+31.00,+4.00,-2.00,-6.00,+11.00,+69.00,+58.00,-9.00,+0.00,-2.00,+1.00,+1.00,+0.00,-9.00,+0.00
+15.00,-14.00,-6.00,-5.00,-14.00,-15.00,-7.00,-10.00,-35.00,-32.00,-8.00,+2.00,+15.00,-8.00,+12.00,+5.00
+0.00,+1.00,+4.00,+4.00,-3.00,+37.00,+2.00,+4.00,+41.00,-25.00,-7.00,+0.00,-4.00,-1.00,-16.00,+12.00
+4.00,+7.00,+6.00,+3.00,-1.00,-21.00,-5.00,-3.00,+75.00,+69.00,+13.00,-8.00,-9.00,+6.00,+12.00,+13.00
-22.00,+22.00,+3.00,+6.00,+22.00,+8.00,-82.00,-14.00,-36.00,-37.00,-8.00,+6.00,+11.00,+7.00,+4.00,+5.00
+6.00,-13.00,-2.00,-1.00,-23.00,+8.00,+25.00,+7.00,-14.00,-9.00,-7.00,+0.00,+3.00,+8.00,+7.00,-3.00
+4.00,-1.00,-5.00,-4.00,-12.00,-31.00,-13.00,-14.00,-1.00,+69.00,+15.00,+20.00,+25.00,+7.00,+6.00,-5.00
-11.00,+9.00,-4.00,+1.00,+41.00,+41.00,+25.00,+15.00,-35.00,-33.00,-6.00,-30.00,-20.00,-28.00,-19.00,-5.00
-2.00,+2.00,+9.00,+9.00,+6.00,-30.00,-23.00,-4.00,+18.00,+4.00,+0.00,+10.00,-12.00,+0.00,+11.00,-10.00
+7.00,+16.00,+11.00,+3.00,+3.00,-42.00,+5.00,+5.00,-32.00,-14.00,-9.00,-13.00,+3.00,-6.00,-25.00,-3.00
-61.00,-3.00,-5.00,-6.00,-8.00,-3.00,-20.00,+0.00,+37.00,-22.00,-6.00,+0.00,+27.00,-6.00,+2.00,+1.00
-22.00,-20.00,-10.00,-3.00,-15.00,-5.00,+17.00,+25.00,-26.00,-48.00,+5.00,+21.00,+6.00,+15.00,-1.00,-6.00
-19.00,+5.00,-11.00,-12.00,-11.00,-13.00,-3.00,-13.00,-4.00,+75.00,+7.00,-9.00,-15.00,-16.00,-2.00,-4.00
+23.00,+9.00,+7.00,+3.00,+0.00,+22.00,-5.00,-7.00,+8.00,-9.00,-3.00,-3.00,+2.00,-2.00,-4.00,+5.00
+26.00,+19.00,+9.00,+5.00,+10.00,-10.00,+8.00,+21.00,-49.00,-26.00,-19.00,-21.00,-29.00,-9.00,-9.00,-38.00
-5.00,-6.00,-6.00,-4.00,-23.00,+43.00,-15.00,-4.00,+16.00,+23.00,+13.00,+5.00,+6.00,+6.00,+1.00,+14.00
+13.00,+25.00,+6.00,-2.00,+6.00,-76.00,+15.00,+11.00,+41.00,+14.00,+8.00,+6.00,+6.00,+7.00,-12.00,+1.00
-27.00,-31.00,-16.00,-11.00,-7.00,+52.00,+17.00,-7.00,+2.00,-30.00,-4.00,+8.00,-5.00,-14.00,-25.00,-13.00
-4.00,-5.00,+8.00,+8.00,+18.00,-37.00,-18.00,-15.00,-2.00,+43.00,+8.00,-10.00,-7.00,+3.00,+42.00,+9.00
+8.00,+33.00,-2.00,+2.00,+0.00,-20.00,+4.00,+8.00,-6.00,-17.00,-2.00,+7.00,+7.00,-2.00,+3.00,+5.00
+2.00,+16.00,+3.00,+2.00,-1.00,+22.00,-30.00,-7.00,+11.00,-11.00,-11.00,+0.00,+2.00,-5.00,-3.00,-6.00
-4.00,+12.00,+0.00,-2.00,-11.00,+19.00,+35.00,-2.00,-2.00,+28.00,+3.00,-9.00,-18.00,-2.00,-2.00,+0.00
+30.00,-32.00,-10.00,-3.00,-19.00,-9.00,+35.00,+6.00,-14.00,-23.00,-5.00,+2.00,+29.00,+0.00,-14.00,+3.00
-24.00,+32.00,+2.00,+0.00,+15.00,-35.00,+17.00,-33.00,-81.00,+7.00,+3.00,-8.00,-20.00,-8.00,-4.00,+1.00
+1.00,-21.00,+0.00,-3.00,-20.00,+26.00,-8.00,-17.00,-27.00,-5.00,-3.00,+0.00,+17.00,+3.00,+12.00,+18.00
+13.00,+16.00,+3.00,+5.00,+16.00,+3.00,-12.00,+6.00,-62.00,+55.00,+7.00,+21.00,+11.00,+8.00,+3.00,-7.00
+3.00,-25.00,+5.00,+5.00,+7.00,+21.00,+0.00,-8.00,-102.00,-35.00,-11.00,-19.00,-27.00,-3.00,-4.00,-18.00
-5.00,-26.00,-4.00,+4.00,-40.00,-65.00,-2.00,+0.00,-14.00,-9.00,-3.00,+2.00,+3.00,-1.00,+2.00,+3.00
+12.00,+0.00,-9.00,-7.00,+37.00,-10.00,+25.00,+4.00,-77.00,-52.00,-29.00,-26.00,-28.00,-15.00,-14.00,-29.00
-2.00,-1.00,+4.00,-1.00,-19.00,-39.00,-53.00,-6.00,+79.00,+6.00,+10.00,+24.00,+10.00,+32.00,+19.00,+35.00
+6.00,-12.00,-4.00,-2.00,+27.00,+20.00,-21.00,-11.00,+37.00,+39.00,+1.00,+3.00,+20.00,+4.00,-2.00,-3.00
+17.00,+36.00,+12.00,+5.00,-6.00,+8.00,-22.00,-3.00,-18.00,+0.00,-3.00,-20.00,-15.00,-11.00,-4.00,+15.00
+22.00,-5.00,-2.00,+0.00,-9.00,+32.00,+74.00,+38.00,+56.00,+4.00,+8.00,+11.00,+8.00,+8.00,+13.00,+30.00
+0.00,-20.00,-3.00,-2.00,-8.00,-35.00,+1.00,+2.00,-47.00,-44.00,+0.00,-9.00,-12.00,-13.00,-9.00,-38.00
+30.00,+43.00,+7.00,+0.00,+1.00,+51.00,+2.00,-2.00,-4.00,+5.00,-2.00,+3.00,-16.00,-3.00,-5.00,+2.00
-7.00,-4.00,+0.00,+0.00,+6.00,+57.00,-6.00,-10.00,+24.00,+32.00,+10.00,+5.00,+7.00,+14.00,+6.00,+7.00
+17.00,-28.00,-11.00,-7.00,-16.00,-42.00,-28.00,-49.00,-34.00,-19.00,-4.00,+1.00,+3.00,-9.00,-7.00,-16.00
-12.00,-10.00,-2.00,-6.00,-1.00,+27.00,-4.00,+9.00,+3.00,-10.00,-9.00,-15.00,-4.00,-8.00,-3.00,-9.00
+9.00,+8.00,-3.00,-1.00,-13.00,-87.00,-6.00,+9.00,+12.00,+6.00,+10.00,+12.00,-1.00,+0.00,-9.00,+6.00
+11.00,+16.00,+11.00,+3.00,+12.00,+3.00,+9.00,+9.00,-11.00,+20.00,+0.00,-17.00,-10.00,-10.00,+1.00,-11.00
-40.00,-52.00,-9.00,-6.00,-34.00,+2.00,-16.00,-21.00,+9.00,+12.00,+11.00,+6.00,+5.00,-8.00,+7.00,-17.00
+37.00,+9.00,+0.00,+6.00,+38.00,+35.00,+9.00,+5.00,+46.00,-19.00,-13.00,-2.00,-14.00,+33.00,+9.00,-3.00
+15.00,+45.00,+6.00,-1.00,+10.00,+17.00,-4.00,+1.00,-55.00,-18.00,-7.00,+3.00,+12.00,-50.00,-7.00,-1.00
-23.00,-32.00,-10.00,-5.00,-16.00,+36.00,+10.00,+8.00,+36.00,+24.00,+3.00,-14.00,-10.00,+11.00,-16.00,+40.00
-45.00,-11.00,-18.00,-16.00,+14.00,-62.00,-58.00,-7.00,-5.00,+21.00,+7.00,+7.00,+4.00,+11.00,-11.00,-26.00
-30.00,+13.00,+3.00,+2.00,-19.00,+95.00,+13.00,-8.00,+1.00,+15.00,+8.00,-1.00,+2.00,-21.00,+6.00,+13.00
-53.00,+41.00,+18.00,+9.00,+21.00,-90.00,-17.00,-4.00,+62.00,+12.00,-4.00,-31.00,-60.00,-7.00,+11.00,+17.00
+4.00,-30.00,-7.00,-4.00,+9.00,+15.00,+20.00,+5.00,-38.00,-30.00,-14.00,+5.00,+41.00,-3.00,+2.00,-10.00
-3.00,+2.00,+0.00,+1.00,-8.00,+76.00,-3.00,+6.00,+12.00,+9.00,-4.00,+1.00,+13.00,+13.00,+14.00,+12.00
+4.00,-19.00,-6.00,-1.00,-16.00,-86.00,-13.00,-7.00,+29.00,+30.00,+9.00,+1.00,-10.00,-11.00,-28.00,+17.00
+35.00,-12.00,-11.00,-6.00,+5.00,+99.00,+11.00,-14.00,-31.00,-39.00,-11.00,-1.00,+9.00,-2.00,-5.00,-7.00
+36.00,+25.00,+9.00,+4.00,-1.00,+42.00,+1.00,+21.00,+41.00,+14.00,-5.00,+12.00,+1.00,+11.00,-36.00,-15.00
+54.00,+17.00,+2.00,+7.00,+2.00,+29.00,+13.00,-1.00,+4.00,-2.00,+2.00,-4.00,-10.00,+5.00,+46.00,+13.00
+0.00,-16.00,-12.00,-10.00,-10.00,-79.00,-20.00,-3.00,-2.00,-24.00,-13.00,-5.00,+11.00,+8.00,-8.00,-13.00
-3.00,-5.00,-5.00,-10.00,-18.00,+55.00,+0.00,-7.00,-1.00,+4.00,-3.00,+0.00,-12.00,-12.00,-3.00,-59.00
-65.00,+5.00,+4.00,+0.00,+14.00,-99.00,-18.00,-10.00,+14.00,-37.00,-16.00,-6.00,-1.00,+14.00,-2.00,+7.00
-17.00,-8.00,+3.00,+6.00,-20.00,-13.00,+3.00,-3.00,+19.00,-6.00,-4.00,-5.00,-7.00,-9.00,-26.00,+11.00
-5.00,-15.00,-8.00,-3.00,+49.00,+92.00,-26.00,+11.00,+37.00,+25.00,+7.00,-1.00,-3.00,+5.00,+13.00,+12.00
-2.00,+30.00,-1.00,-7.00,-49.00,-31.00,+7.00,-8.00,-54.00,-35.00,-24.00,-7.00,+14.00,+12.00,+9.00,+6.00
+21.00,-25.00,+7.00,+7.00,+32.00,+5.00,-2.00,-6.00,+9.00,-4.00,+17.00,+20.00,+12.00,-9.00,+5.00,-17.00
+6.00,+30.00,+12.00,+8.00,-2.00,-39.00,-14.00,+1.00,+97.00,-9.00,+3.00,+13.00,-20.00,+3.00,-14.00,+20.00
-18.00,-50.00,-2.00,-3.00,-42.00,-85.00,-20.00,-14.00,-83.00,+5.00,-6.00,-42.00,-4.00,-6.00,+14.00,-20.00
+7.00,-2.00,+8.00,+12.00,+64.00,+116.00,+77.00,+15.00,+28.00,+2.00,+5.00,+5.00,+7.00,+17.00,+34.00,-15.00
-4.00,+12.00,+1.00,-3.00,-9.00,-54.00,+2.00,+5.00,+16.00,-9.00,+3.00,+16.00,+25.00,-43.00,-27.00,+11.00
+5.00,+32.00,+0.00,-6.00,-6.00,-16.00,-58.00,-4.00,-119.00,-7.00,+3.00,-17.00,-14.00,+62.00,+87.00,+25.00
-14.00,-34.00,+5.00,-3.00,-17.00,+65.00,+57.00,-10.00,+43.00,+48.00,+26.00,+16.00,+16.00,-48.00,-76.00,-1.00
-7.00,-26.00,-6.00,-3.00,+4.00,-33.00,+63.00,+37.00,+32.00,+4.00,-1.00,-3.00,-21.00,+12.00,-11.00,+22.00
-14.00,+6.00,-8.00,-3.00,-10.00,+23.00,-31.00,+4.00,+53.00,+36.00,+8.00,-9.00,-18.00,+2.00,+27.00,+0.00
-28.00,+7.00,+0.00,-5.00,+17.00,+127.00,+37.00,-11.00,-27.00,-5.00,+3.00,+16.00,+27.00,-8.00,+3.00,-23.00
+10.00,+35.00,-6.00,-7.00,-10.00,-36.00,-73.00,-7.00,-77.00,-57.00,-22.00,-8.00,-35.00,+4.00,-7.00,-18.00
-41.00,-50.00,-10.00,-1.00,-4.00,-70.00,+5.00,-6.00,+36.00,+101.00,+24.00,+2.00,+44.00,-5.00,+21.00,+18.00
-10.00,+20.00,-9.00,-5.00,-12.00,-45.00,+4.00,+10.00,+38.00,-21.00,-6.00,+7.00,-10.00,+2.00,+13.00,+8.00
-14.00,-17.00,+4.00,-1.00,-20.00,+46.00,+29.00,+14.00,-3.00,+15.00,+2.00,+3.00,+12.00,-36.00,-36.00,-9.00
+24.00,+55.00,+5.00,+11.00,+48.00,+34.00,-21.00,+4.00,+36.00,-18.00,-14.00,-9.00,-11.00,+37.00,+6.00,+9.00
-13.00,-15.00,-4.00,-8.00,-21.00,-48.00,-35.00,-21.00,+5.00,-1.00,+0.00,+22.00,+22.00,+28.00,+3.00,+32.00
+34.00,+39.00,+6.00,+3.00,-4.00,+3.00,+9.00,+18.00,-77.00,-26.00,-22.00,-29.00,-31.00,+17.00,-19.00,-61.00
+24.00,+15.00,+14.00,+9.00,+12.00,+28.00,-31.00,+19.00,+83.00,+41.00,+4.00,-5.00,+14.00,-16.00,+13.00,+8.00
-2.00,+6.00,-2.00,+0.00,+0.00,-43.00,+70.00,+12.00,+3.00,-39.00,-22.00,-5.00,-6.00,-18.00,+22.00,+7.00
+17.00,+5.00,-18.00,-10.00,-7.00,-103.00,-106.00,-31.00,+37.00,-34.00,+5.00,-5.00,-4.00,-15.00,-52.00,-26.00
-15.00,-85.00,-6.00,-8.00,-8.00,+97.00,+49.00,+17.00,-62.00,+7.00,-14.00,+8.00,-1.00,+16.00,+10.00,-7.00
-37.00,+1.00,+12.00,+1.00,+13.00,+119.00,-43.00,-25.00,+60.00,+42.00,+21.00,-8.00,+20.00,-1.00,-29.00,+19.00
+83.00,+79.00,+21.00,+16.00,-20.00,-71.00,+51.00,+56.00,-44.00,-49.00,-9.00,+14.00,-3.00,-9.00,-7.00,-25.00
+6.00,-12.00,-8.00,-6.00,-3.00,+101.00,-15.00,+11.00,+25.00,+29.00,+12.00,+8.00,-9.00,-6.00,+36.00,+35.00
+18.00,-13.00,-5.00,-1.00,-11.00,-74.00,-1.00,-35.00,+19.00,+28.00,+13.00,+2.00,-7.00,-13.00,+7.00,-34.00
-20.00,-10.00,-13.00,-7.00,-33.00,-40.00,+26.00,+22.00,-50.00,-75.00,-18.00,+3.00,-1.00,-31.00,-46.00,+6.00
-85.00,+4.00,-20.00,-13.00,+31.00,-18.00,+1.00,-31.00,-7.00,+35.00,-20.00,-19.00,-10.00,+37.00,+40.00,-26.00
-16.00,+1.00,+24.00,+19.00,-14.00,-20.00,+36.00,+22.00,-47.00,+12.00,+22.00,+5.00,+5.00,+44.00,+18.00,+10.00
+5.00,+40.00,+2.00,-2.00,-12.00,-60.00,-44.00,-18.00,-56.00,-30.00,-7.00,-5.00,-25.00,-49.00,-54.00,-26.00
+26.00,-48.00,+2.00,+0.00,-34.00,-53.00,+69.00,+38.00,-50.00,-31.00,-10.00,+7.00,+17.00,+1.00,+5.00,-6.00
+3.00,-12.00,-14.00,-6.00,+48.00,+37.00,-38.00,-13.00,+55.00,-16.00,+2.00,+10.00,-13.00,-20.00,+4.00,+13.00
+4.00,+10.00,+2.00,-3.00,-29.00,-32.00,+17.00,-23.00,-50.00,-26.00,-13.00,-4.00,+0.00,-2.00,-45.00,-14.00
+81.00,-44.00,-10.00,+0.00,+57.00,+127.00,+47.00,+46.00,+1.00,+51.00,+22.00,+11.00,+7.00,+0.00,+61.00,+2.00
+15.00,+53.00,+9.00,+7.00,-25.00,-128.00,-29.00,-7.00,+2.00,+25.00,-3.00,-21.00,-33.00,-8.00,-47.00,+0.00
-24.00,-68.00,-11.00,-14.00,-15.00,+47.00,-22.00,-22.00,-27.00,-35.00,-15.00,+1.00,+3.00,-27.00,-29.00,-2.00
+11.00,+10.00,+4.00,+11.00,+8.00,+31.00,+15.00,+32.00,-29.00,-23.00,-8.00,-2.00,-7.00,+33.00,+45.00,-24.00
-16.00,-5.00,-16.00,-13.00,-36.00,+34.00,+0.00,-39.00,+62.00,-27.00,-14.00,-6.00,+1.00,+4.00,+5.00,+42.00
+11.00,+75.00,+10.00,+5.00,+51.00,-101.00,-20.00,+25.00,+17.00,-20.00,-21.00,-2.00,+6.00,-23.00,-21.00,-31.00
+51.00,-79.00,+10.00,+11.00,-13.00,+22.00,-28.00,+2.00,-17.00,+33.00,+21.00,+5.00,+9.00,+10.00,+57.00,-35.00
-31.00,-61.00,-6.00,-3.00,+3.00,+89.00,-7.00,+14.00,+9.00,+6.00,-2.00,-10.00,-26.00,-26.00,-19.00,+57.00
-19.00,+5.00,+4.00,+10.00,+19.00,+49.00,+70.00,-2.00,-57.00,+3.00,+11.00,+6.00,+9.00,+27.00,-12.00,+29.00
+9.00,-24.00,-25.00,-12.00,-18.00,-46.00,-66.00,-25.00,+85.00,+18.00,+10.00,+9.00,-4.00,-30.00,-18.00,+37.00
-38.00,+29.00,-7.00,-13.00,-29.00,-38.00,+71.00,-5.00,+46.00,+52.00,+20.00,+6.00,+10.00,-7.00,-5.00,+24.00
+28.00,+115.00,+27.00,+10.00,+29.00,+39.00,+58.00,-11.00,-19.00,-77.00,-22.00,-10.00,-18.00,-20.00,-23.00,-42.00
-9.00,-28.00,+2.00,+3.00,+3.00,-117.00,-12.00,-9.00,-10.00,+41.00,-18.00,+0.00,+14.00,+17.00,+21.00,-6.00
-29.00,-78.00,-8.00,+0.00,+16.00,+126.00,+25.00,-14.00,-16.00,+8.00,+3.00,+8.00,+18.00,+27.00,+20.00,+22.00
+17.00,+6.00,-5.00,+5.00,-17.00,-39.00,+17.00,+15.00,+33.00,+9.00,+0.00,-8.00,-8.00,-17.00,+2.00,+7.00
-42.00,-9.00,-19.00,-13.00,-8.00,+40.00,-38.00,-20.00,+36.00,-27.00,-6.00,+6.00,+18.00,-6.00,-20.00,-16.00
+46.00,+53.00,+9.00,+2.00,-21.00,+22.00,-2.00,+7.00,+25.00,-25.00,-3.00,-14.00,+10.00,-8.00,+59.00,+78.00
-66.00,-85.00,-18.00,-3.00,+36.00,-55.00,-4.00,-40.00,-72.00,-15.00,-4.00,+0.00,+27.00,+28.00,+21.00,-66.00
+81.00,+70.00,+29.00,+4.00,+5.00,+67.00,-1.00,+52.00,+90.00,+47.00,+14.00,+8.00,-9.00,+16.00,+3.00,-11.00
+16.00,-44.00,-13.00,-5.00,-6.00,-30.00,-2.00,-1.00,+40.00,-21.00,-5.00,-18.00,-7.00,-21.00,-83.00,+26.00
-27.00,+13.00,+10.00,+1.00,-4.00,+5.00,+8.00,-12.00,+1.00,+28.00,-1.00,-16.00,-29.00,-37.00,+25.00,-7.00
-6.00,+38.00,-7.00,-9.00,-27.00,+75.00,-12.00,+2.00,-56.00,-40.00,-13.00,-10.00,-22.00,+14.00,+13.00,-40.00
-38.00,-14.00,-2.00,-3.00,-14.00,+107.00,-27.00,-57.00,-9.00,+6.00,+1.00,+6.00,+24.00,-15.00,-4.00,+46.00
+9.00,-41.00,-4.00,-3.00,-10.00,-103.00,-61.00,-12.00,-108.00,-10.00,-8.00,+3.00,+0.00,+4.00,+4.00,-53.00
-46.00,-32.00,+3.00,+5.00,+6.00,-8.00,+32.00,+18.00,-29.00,+31.00,+12.00,+8.00,+2.00,+6.00,-28.00,-31.00
+82.00,+35.00,+3.00,+3.00,+2.00,+68.00,+6.00,-1.00,-49.00,-17.00,+1.00,-2.00,+14.00,+23.00,+19.00,+0.00
-57.00,-50.00,-5.00,-1.00,+3.00,-33.00,-1.00,+14.00,+21.00,-16.00,-2.00,+5.00,+10.00,-8.00,-60.00,-14.00
-12.00,+96.00,+2.00,-8.00,-5.00,+4.00,-26.00,-4.00,+4.00,-15.00,-13.00,-5.00,-12.00,-34.00,-9.00,-26.00
+2.00,-83.00,+2.00,+3.00,+3.00,-11.00,-48.00,-21.00,-26.00,+27.00,+13.00,-2.00,-2.00,+27.00,+32.00,+10.00
-2.00,+74.00,+1.00,-4.00,-1.00,+112.00,+12.00,-13.00,+89.00,+1.00,-8.00,-5.00,-26.00,-2.00,+22.00,+30.00
+40.00,+64.00,+4.00,-1.00,-18.00,-96.00,+11.00,+24.00,-64.00,+6.00,+9.00,-1.00,+2.00,+9.00,+1.00,-25.00
+19.00,-58.00,-10.00,-4.00,+23.00,+73.00,+43.00,+20.00,+15.00,-34.00,-1.00,-4.00,-5.00,+4.00,+29.00,+17.00
-3.00,+103.00,+15.00,-2.00,-46.00,-71.00,-36.00,-18.00,+80.00,+39.00,+24.00,+16.00,+10.00,+5.00,-13.00,+4.00
+6.00,-46.00,-2.00,-3.00,-31.00,-47.00,-53.00,-2.00,-90.00,-1.00,+7.00,-3.00,-23.00,-14.00,-38.00,-41.00
+43.00,+58.00,+14.00,+17.00,+77.00,+96.00,+22.00,+19.00,+72.00,+4.00,-11.00,-12.00,+11.00,-3.00,+14.00,+51.00
-20.00,-43.00,-20.00,-7.00,+30.00,+53.00,-51.00,-23.00,-100.00,-33.00,-17.00,+6.00,+19.00,-1.00,-7.00,-43.00
-4.00,+12.00,-6.00,-9.00,-17.00,-95.00,+46.00,+7.00,+91.00,+5.00,+2.00,-5.00,-13.00,-16.00,-44.00,+21.00
+4.00,-2.00,+2.00,+3.00,+12.00,-70.00,+36.00,+27.00,-8.00,+11.00,+5.00,+18.00,+1.00,+23.00,+67.00,+27.00
-42.00,-47.00,-1.00,-5.00,-27.00,+46.00,+1.00,-26.00,-12.00,-26.00,+2.00,-10.00,-30.00,+3.00,+10.00,-46.00
+5.00,-7.00,-4.00,-1.00,-10.00,+17.00,+3.00,+22.00,-28.00,+14.00,+0.00,-4.00,-6.00,-32.00,-4.00,+4.00
-5.00,-14.00,-8.00,-3.00,+25.00,+127.00,-11.00,-7.00,-53.00,-22.00,-11.00,+1.00,+33.00,-38.00,-102.00,-20.00
+35.00,+10.00,+12.00,+4.00,-26.00,-126.00,-81.00,-20.00,+74.00,+66.00,+6.00,-7.00,-20.00,+14.00,-26.00,+16.00
-38.00,-51.00,-1.00,-1.00,-6.00,-25.00,+48.00,+7.00,-9.00,+0.00,+2.00,+8.00,+3.00,+19.00,-3.00,-15.00
+65.00,+70.00,+11.00,+0.00,-5.00,-17.00,+11.00,+1.00,+11.00,-38.00,-6.00,-1.00,-7.00,+21.00,+17.00,+23.00
-33.00,-40.00,-7.00,-3.00,-10.00,-10.00,-41.00,-29.00,-26.00,-43.00,-24.00,+0.00,+6.00,+2.00,-2.00,-15.00
-106.00,-111.00,-29.00,-9.00,+18.00,+51.00,+43.00,-7.00,+30.00,-3.00,-6.00,+1.00,-1.00,-10.00,-7.00,-6.00
+11.00,+85.00,+14.00,+5.00,-14.00,+52.00,-40.00,-6.00,-74.00,-26.00,-17.00,-9.00,+1.00,-15.00,-36.00,-33.00
+24.00,+28.00,+17.00,+3.00,+1.00,+8.00,+10.00,+18.00,+77.00,+46.00,+16.00,+10.00,+3.00,+16.00,+19.00,+21.00
+8.00,+4.00,+4.00,+10.00,+4.00,-53.00,-23.00,+7.00,-54.00,-26.00,-6.00,-9.00,-15.00,-5.00,+15.00,-7.00
+30.00,+44.00,+10.00,+7.00,+9.00,+33.00,+55.00,+14.00,+4.00,-2.00,+13.00,+1.00,+3.00,+0.00,-9.00,+19.00
-58.00,-98.00,-33.00,-17.00,-10.00,-11.00,-62.00,-26.00,-53.00,+9.00,+5.00,+8.00,-7.00,-19.00,+29.00,+48.00
+30.00,-2.00,-4.00,-4.00,-25.00,-95.00,+15.00,-2.00,+48.00,+75.00,+13.00,+3.00,-6.00,-4.00,-19.00,+10.00
+25.00,+18.00,+0.00,-3.00,-21.00,+68.00,-24.00,+9.00,-25.00,-29.00,-20.00,-25.00,-7.00,+11.00,+27.00,-24.00
+13.00,+20.00,+9.00,+9.00,+68.00,+20.00,+57.00,-7.00,+22.00,+14.00,+15.00,+13.00,-9.00,+18.00,+15.00,-2.00
+16.00,+25.00,+8.00,+10.00,-41.00,-122.00,+28.00,+32.00,-19.00,+10.00,+16.00,+11.00,+19.00,-3.00,-22.00,+1.00
-58.00,-33.00,-10.00,-4.00,+45.00,+127.00,-30.00,-50.00,+36.00,+0.00,-5.00,-21.00,+6.00,+0.00,-37.00,-13.00
+8.00,+31.00,+10.00,+6.00,+43.00,-121.00,+12.00,+34.00,+24.00,-30.00,-18.00,-9.00,-5.00,+22.00,+3.00,-35.00
+5.00,-52.00,-7.00,-5.00,-11.00,+11.00,-10.00,+1.00,-57.00,-41.00,-15.00,-2.00,+7.00,-24.00,-17.00,+35.00
+11.00,+18.00,-4.00,-6.00,-4.00,+0.00,-27.00,-11.00,+6.00,-9.00,-3.00,+8.00,+20.00,+18.00,-14.00,+15.00
-6.00,+77.00,+14.00,+5.00,-2.00,+54.00,+5.00,+8.00,-54.00,+9.00,+7.00,+0.00,-4.00,+4.00,+27.00,-17.00
-26.00,-83.00,-21.00,-9.00,-17.00,-26.00,-8.00,-22.00,-5.00,+20.00,+3.00,+1.00,-10.00,+6.00,+18.00,-33.00
+0.00,+37.00,+15.00,+5.00,+2.00,+20.00,-11.00,+12.00,+14.00,-34.00,-10.00,-5.00,+8.00,-5.00,+13.00,+14.00
-40.00,-42.00,-21.00,-9.00,-1.00,-69.00,-27.00,-60.00,-8.00,-32.00,-13.00,-4.00,-1.00,+2.00,+11.00,+14.00
+48.00,-85.00,-3.00,+1.00,-16.00,+2.00,+22.00,+33.00,+44.00,+85.00,+24.00,-1.00,-7.00,+9.00,-11.00,+4.00
-100.00,-41.00,-22.00,-16.00,-3.00,+27.00,-56.00,-55.00,-34.00,-18.00,-5.00,+4.00,-6.00,-13.00,+3.00,-13.00
+95.00,+105.00,+55.00,+23.00,+14.00,+29.00,+36.00,+79.00,-101.00,-62.00,-32.00,-17.00,-17.00,-33.00,-34.00,-105.00
-61.00,-65.00,-11.00,-4.00,+3.00,+95.00,+8.00,-23.00,-90.00,+9.00,+18.00,-1.00,+2.00,+31.00,+55.00,+19.00
+19.00,-23.00,+5.00,+9.00,+3.00,-38.00,-42.00,+32.00,+43.00,+24.00,+14.00,+4.00,-5.00,+9.00,+17.00,+45.00
-89.00,-38.00,-2.00,-8.00,-38.00,-91.00,-45.00,-64.00,+83.00,+38.00,+19.00,+16.00,+24.00,-1.00,-33.00,+44.00
+12.00,-66.00,-11.00,-2.00,+2.00,+52.00,-30.00,-24.00,+25.00,+25.00,+7.00,-8.00,-3.00,+3.00,-2.00,+5.00
+1.00,+33.00,+12.00,+2.00,-20.00,-46.00,+42.00,-13.00,-61.00,-45.00,-34.00,-10.00,-18.00,-16.00,+17.00,-85.00
-41.00,-8.00,-5.00,-1.00,-17.00,-102.00,-61.00,+29.00,+23.00,+15.00,+2.00,+2.00,+11.00,+15.00,+41.00,+55.00
+16.00,-10.00,-21.00,-14.00,+23.00,+71.00,+25.00,+13.00,-24.00,-8.00,+1.00,+25.00,+25.00,+15.00,-14.00,-1.00
-23.00,+1.00,-6.00,-7.00,+18.00,-32.00,-12.00,-16.00,+20.00,+12.00,-5.00,-32.00,-33.00,+7.00,-16.00,-7.00
+27.00,+59.00,+12.00,+2.00,+5.00,+97.00,-4.00,+24.00,-34.00,-32.00,-21.00,-35.00,+22.00,-29.00,-5.00,-25.00
-60.00,-55.00,-9.00,+2.00,-12.00,-73.00,+6.00,-28.00,+45.00,-3.00,-7.00,-5.00,-37.00,-4.00,+0.00,+65.00
+86.00,+90.00,+15.00,+8.00,-6.00,+33.00,-10.00,+22.00,-8.00,-16.00,+19.00,+12.00,+4.00,-32.00,+54.00,-56.00
-12.00,-26.00,-22.00,-15.00,-31.00,-33.00,-2.00,+8.00,-35.00,-8.00,-1.00,-2.00,+2.00,+3.00,+10.00,+22.00
-3.00,-4.00,-21.00,-14.00,+3.00,+79.00,+1.00,-10.00,+46.00,+44.00,+20.00,+5.00,+9.00,+68.00,+9.00,+60.00
+41.00,+123.00,+40.00,+11.00,-5.00,-109.00,+2.00,-3.00,-22.00,+12.00,+1.00,+2.00,+12.00,-18.00,-36.00,-26.00
+14.00,-50.00,+12.00,+9.00,+12.00,+88.00,+24.00,+23.00,-81.00,-23.00,-2.00,-7.00,+3.00,+0.00,-31.00,-13.00
-52.00,-94.00,-21.00,-6.00,-6.00,-95.00,-7.00,-21.00,-49.00,-17.00,-15.00,+7.00,-17.00,-10.00,+41.00,-68.00
+88.00,+71.00,+11.00,+6.00,+14.00,+57.00,-58.00,+7.00,+104.00,+37.00,+3.00,+3.00,-1.00,-18.00,+0.00,-8.00
-11.00,+20.00,-4.00,-3.00,-12.00,+11.00,+7.00,-20.00,+16.00,-31.00,+0.00,+7.00,-4.00,-10.00,-8.00,+33.00
-13.00,+12.00,-2.00,-4.00,-1.00,+78.00,+16.00,+31.00,+35.00,+18.00,+2.00,-5.00,-9.00,+7.00,+3.00,+3.00
-15.00,+4.00,+3.00,-1.00,-11.00,-22.00,-18.00,-2.00,-58.00,+5.00,+8.00,-4.00,+3.00,-17.00,-33.00,-28.00
-76.00,-97.00,-25.00,-15.00,-8.00,+9.00,-67.00,-37.00,+68.00,-21.00,-4.00,+5.00,-7.00,+0.00,-10.00,+19.00
+34.00,+2.00,+6.00,+5.00,-2.00,+15.00,-18.00,+14.00,+27.00,+12.00,-23.00,-9.00,-3.00,-1.00,+11.00,-28.00
-8.00,+27.00,+8.00,-2.00,-26.00,+102.00,+82.00,+28.00,-36.00,-8.00,+3.00,+7.00,-8.00,+5.00,-18.00,+10.00
-37.00,-53.00,-16.00,-3.00,+15.00,-116.00,-54.00,-20.00,-47.00,+0.00,+7.00,-2.00,+2.00,-38.00,-30.00,+52.00
-40.00,-8.00,+3.00,+2.00,+28.00,-12.00,+22.00,+11.00,-39.00,+11.00,-1.00,+2.00,-6.00,-24.00,-21.00,+0.00
-12.00,-27.00,-28.00,-18.00,-17.00,+34.00,-6.00,-37.00,-20.00,-13.00,-3.00,+12.00,+6.00,+16.00,+6.00,-69.00
+73.00,+36.00,+13.00,+16.00,+28.00,+36.00,+44.00,+21.00,+23.00,-7.00,-7.00,-18.00,-3.00,-26.00,-11.00,+11.00
-59.00,+12.00,-5.00,-4.00,-15.00,+12.00,+29.00,-13.00,-63.00,-51.00,-42.00,-29.00,-46.00,+14.00,-29.00,-24.00
+58.00,+39.00,+19.00,+5.00,-12.00,-101.00,-29.00,+35.00,+48.00,+30.00,+18.00,+2.00,-1.00,+13.00,+16.00,+3.00
-13.00,+1.00,-5.00,-3.00,+5.00,+112.00,+75.00,+18.00,-60.00,-43.00,-21.00,-8.00,-16.00,-56.00,-61.00,-64.00
-23.00,-12.00,-10.00,-3.00,-9.00,-124.00,-56.00,-22.00,+61.00,+70.00,+13.00,+6.00,+7.00,+18.00,+86.00,+54.00
+9.00,-20.00,-11.00,-9.00,-8.00,+105.00,+28.00,-10.00,+87.00,+18.00,+10.00,+9.00,+14.00,+10.00,+2.00,+11.00
-25.00,-16.00,+0.00,+6.00,+1.00,-15.00,-9.00,-10.00,-53.00,-53.00,-16.00,+18.00,+12.00,-3.00,-5.00,+8.00
+43.00,-36.00,+11.00,+6.00,+4.00,-28.00,+31.00,-7.00,-27.00,-11.00,-2.00,-22.00,-12.00,+9.00,+20.00,+29.00
+3.00,-46.00,+4.00,+4.00,+5.00,+21.00,+12.00,+19.00,-72.00,-91.00,-22.00,-5.00,-8.00,+2.00,-17.00,-72.00
+25.00,+59.00,+4.00,+4.00,+9.00,+56.00,+6.00,+3.00,-87.00,+37.00,+10.00,+6.00,+12.00,+6.00,+25.00,+45.00
-19.00,-16.00,-9.00,-2.00,-12.00,-53.00,+15.00,-2.00,+74.00,+26.00,+10.00,+6.00,-4.00,-4.00,-21.00,-16.00
-39.00,-52.00,-28.00,-21.00,-15.00,-26.00,-19.00,+1.00,-54.00,+23.00,+4.00,+3.00,+11.00,+5.00,+19.00,-37.00
-46.00,-10.00,-6.00,-8.00,+10.00,-40.00,-88.00,-12.00,+31.00,-31.00,-4.00,+0.00,-13.00,+11.00,-11.00,+3.00
+86.00,+14.00,+27.00,+17.00,+2.00,+3.00,+80.00,+37.00,+84.00,+50.00,+37.00,+19.00,+27.00,+10.00,+4.00,+37.00
-47.00,+30.00,-12.00,-12.00,-22.00,+27.00,-17.00,-13.00,-26.00,-49.00,-18.00,-2.00,-12.00,-11.00,-19.00,-12.00
-7.00,+8.00,+6.00,+7.00,-25.00,-65.00,-29.00,+7.00,+2.00,+49.00,+4.00,-13.00,-26.00,-25.00,-22.00,+17.00
-24.00,+11.00,-12.00,+1.00,+30.00,-5.00,-3.00,-1.00,+32.00,-27.00,-8.00,-16.00,-8.00,-9.00,-2.00,-40.00
+5.00,-29.00,-16.00,-15.00,-33.00,+1.00,-6.00,-7.00,-58.00,-33.00,-25.00,+1.00,+16.00,-30.00,-8.00,-26.00
+47.00,+44.00,+37.00,+22.00,+66.00,-47.00,+34.00,+21.00,+52.00,+30.00,+28.00,-1.00,-12.00,+24.00,+11.00,+21.00
-60.00,-55.00,-21.00,-13.00,-14.00,+51.00,+32.00,-28.00,-10.00,+21.00,+19.00,+28.00,+2.00,+17.00,+33.00,-2.00
+29.00,+8.00,+12.00,+10.00,-16.00,-3.00,+0.00,+3.00,-116.00,-3.00,-10.00,-3.00,+49.00,+16.00,+2.00,-14.00
-60.00,-8.00,-10.00,-4.00,-3.00,+6.00,-30.00,-18.00,+27.00,-5.00,-14.00,-20.00,-23.00,-56.00,-80.00,-48.00
+37.00,+72.00,+5.00,+2.00,-7.00,+52.00,+33.00,+19.00,-22.00,-74.00,-37.00,-1.00,+1.00,-26.00,+1.00,+23.00
-49.00,-92.00,-4.00,+0.00,+3.00,-4.00,-40.00,-34.00,-76.00,+6.00,+10.00,-1.00,+9.00,+36.00,+43.00,-21.00
+19.00,+55.00,-3.00,-2.00,+8.00,-58.00,-5.00,+3.00,+93.00,+42.00,+25.00,+4.00,-10.00,+18.00,+9.00,+100.00
+27.00,-39.00,-6.00,-5.00,+6.00,+31.00,-11.00,-23.00,-11.00,-33.00,-4.00,+12.00,+12.00,+30.00,-1.00,-9.00
+5.00,+70.00,+3.00,-5.00,-13.00,-8.00,+12.00,+4.00,-128.00,-25.00,-17.00,-5.00,+5.00,-9.00,-4.00,-42.00
-28.00,-64.00,-11.00,+1.00,+16.00,+33.00,+31.00,+14.00,+127.00,+2.00,+4.00,+12.00,+14.00,+2.00,+2.00,+30.00
+8.00,+42.00,+12.00,+1.00,-2.00,-41.00,-28.00,-6.00,-67.00,-72.00,-21.00,+0.00,-15.00,-34.00,-30.00,-5.00
+2.00,+39.00,-1.00,+6.00,-1.00,-2.00,+9.00,+23.00,+23.00,+34.00,+16.00,+4.00,+7.00,+14.00,+42.00,+8.00
+10.00,-68.00,-6.00,-6.00,-11.00,+25.00,+4.00,-1.00,+115.00,+77.00,+17.00,+7.00,-8.00,+0.00,-17.00,+99.00
-24.00,+91.00,+1.00,-9.00,-23.00,+73.00,+6.00,-11.00,-27.00,-19.00,-12.00,-9.00,-3.00,+8.00,-24.00,+0.00
+54.00,-95.00,+1.00,+5.00,+43.00,+59.00,-73.00,+7.00,-106.00,-31.00,-24.00,-11.00,-13.00,-8.00,-16.00,-51.00
-26.00,-25.00,-17.00,-15.00,-30.00,-73.00,-76.00,-72.00,+41.00,-10.00,+0.00,+1.00,+10.00,+10.00,+10.00,+4.00
+24.00,-5.00,+24.00,+19.00,+32.00,-55.00,+76.00,+66.00,+45.00,+38.00,+7.00,+2.00,-8.00,+1.00,-3.00,-35.00
+24.00,+46.00,+4.00,+1.00,-28.00,+104.00,-12.00,+23.00,-128.00,-90.00,-39.00,-20.00,+5.00,-19.00,-60.00,-3.00
-35.00,-19.00,-21.00,-11.00,-2.00,+10.00,+69.00,-6.00,+86.00,+8.00,+11.00,-3.00,-24.00,-4.00,+20.00,+24.00
-6.00,+24.00,+11.00,+4.00,+36.00,-9.00,-35.00,-1.00,+64.00,+36.00,+8.00,+17.00,+25.00,+34.00,+28.00,+51.00
+53.00,-35.00,-21.00,-17.00,-2.00,+115.00,-32.00,-11.00,-111.00,+21.00,-1.00,-19.00,-22.00,+1.00,+0.00,-64.00
+54.00,+2.00,+11.00,+15.00,+18.00,-101.00,-35.00,-6.00,+30.00,+11.00,+10.00,+4.00,+17.00,-7.00,-36.00,+13.00
-4.00,+29.00,+7.00,-2.00,-26.00,+61.00,+15.00,+7.00,-28.00,-8.00,-3.00,+0.00,-8.00,+4.00,+22.00,-27.00
-20.00,+35.00,+2.00,+2.00,+9.00,+52.00,+13.00,+6.00,+72.00,+42.00,+1.00,-13.00,-34.00,-37.00,-40.00,+75.00
-34.00,-87.00,-17.00,-11.00,-25.00,-66.00,+7.00,-25.00,-38.00,-41.00,-1.00,-5.00,+1.00,+10.00,+3.00,-27.00
+41.00,+46.00,+15.00,+10.00,+21.00,+27.00,+9.00,+26.00,-15.00,+24.00,+5.00,+5.00,-4.00,-5.00,+10.00,-21.00
-43.00,-67.00,-30.00,-12.00,-9.00,+12.00,-12.00,-18.00,-3.00,+10.00,+6.00,-7.00,-8.00,+6.00,-14.00,+6.00
-10.00,+16.00,+8.00,+5.00,+0.00,-9.00,-2.00,+9.00,-114.00,-31.00,-7.00,+6.00,+3.00,-17.00,-3.00,-68.00
-40.00,+30.00,+10.00,+9.00,-6.00,-15.00,-29.00,-1.00,-29.00,-21.00,-9.00,+4.00,+7.00,+15.00,+15.00,+41.00
-36.00,-35.00,-10.00,-7.00,+13.00,+17.00,+16.00,-11.00,+60.00,+18.00,-4.00,-11.00,-12.00,+1.00,-7.00,+9.00
+10.00,+52.00,-3.00,-2.00,-11.00,+10.00,+8.00,-15.00,+121.00,+69.00,+41.00,+23.00,+24.00,+22.00,+60.00,+3.00
+30.00,-31.00,-9.00,-7.00,-15.00,-12.00,-30.00,+26.00,-3.00,-23.00,-13.00,-11.00,-15.00,-9.00,+7.00,+34.00
-48.00,-53.00,-23.00,-14.00,-40.00,-8.00,+85.00,+5.00,+45.00,-6.00,+9.00,+3.00,+12.00,-8.00,+0.00,-8.00
-57.00,-2.00,+5.00,-5.00,+37.00,-114.00,-36.00,-43.00,-62.00,+49.00,+13.00,-4.00,-13.00,-14.00,+1.00,-12.00
+83.00,+35.00,+15.00,+10.00,+18.00,+127.00,+28.00,+59.00,-93.00,-23.00,-17.00,-5.00,+2.00,-11.00,+16.00,-25.00
-31.00,-4.00,+9.00,+7.00,-31.00,-117.00,+3.00,-13.00,+20.00,+9.00,+3.00,-17.00,-8.00,+25.00,-7.00,-10.00
+52.00,+33.00,+15.00,+12.00,+48.00,-53.00,-51.00,+6.00,+60.00,+16.00,-1.00,-12.00,-10.00,-10.00,+10.00,-9.00
+10.00,+24.00,-22.00,-16.00,-34.00,+127.00,+16.00,-30.00,-6.00,-35.00,-8.00,+15.00,+20.00,+0.00,-8.00,-12.00
+10.00,+43.00,+12.00,+5.00,-2.00,-128.00,+25.00,+56.00,+17.00,+41.00,-3.00,-3.00,-5.00,-31.00,-15.00,+31.00
-3.00,-43.00,-7.00,-3.00,+21.00,+106.00,+32.00,+0.00,-45.00,+18.00,+15.00,+10.00,-5.00,-5.00,+21.00,-52.00
+62.00,-19.00,+13.00,+3.00,+1.00,-17.00,-25.00,+21.00,+32.00,+12.00,+11.00,+24.00,+16.00,+2.00,-23.00,+65.00
-7.00,+10.00,-2.00,-4.00,-9.00,+33.00,+37.00,+12.00,-5.00,-58.00,-5.00,-17.00,+3.00,+10.00,+16.00,-13.00
+7.00,+80.00,+16.00,+5.00,-1.00,-66.00,-38.00,-39.00,-25.00,+55.00,+2.00,-8.00,-18.00,+4.00,-37.00,+6.00
+65.00,-20.00,-2.00,-5.00,-28.00,-9.00,+28.00,+23.00,-81.00,-81.00,-36.00,-6.00,+22.00,+27.00,+4.00,-51.00
-81.00,-93.00,-26.00,-7.00,+6.00,+48.00,+7.00,-33.00,+93.00,+62.00,+30.00,+12.00,+15.00,-1.00,+19.00,+53.00
+26.00,+4.00,+3.00,+2.00,+8.00,-10.00,-48.00,-16.00,+11.00,-52.00,-13.00,-9.00,-10.00,+8.00,-12.00,+1.00
+38.00,+51.00,+30.00,+21.00,+2.00,+49.00,-10.00,+41.00,+0.00,-46.00,-21.00,-18.00,-52.00,+12.00,+26.00,-27.00
-54.00,-12.00,-5.00,-6.00,+5.00,+3.00,+15.00,-15.00,+29.00,+42.00,+32.00,+9.00,+8.00,-63.00,-48.00,+35.00
+27.00,+31.00,-2.00,-3.00,-35.00,+91.00,-9.00,-12.00,-18.00,+74.00,+22.00,+7.00,-1.00,+2.00,-24.00,-18.00
-9.00,+10.00,+15.00,+14.00,+35.00,-113.00,-29.00,+21.00,-58.00,-5.00,+10.00,+0.00,+1.00,-2.00,+51.00,+1.00
-51.00,-59.00,-22.00,-18.00,-6.00,-97.00,-63.00,-68.00,+33.00,+7.00,+6.00,+9.00,+29.00,+10.00,-20.00,+3.00
-49.00,+14.00,-2.00,-5.00,-10.00,-14.00,-55.00,-2.00,-9.00,-21.00,-18.00,-1.00,-11.00,+7.00,+16.00,-25.00
+40.00,-28.00,-9.00,-1.00,+11.00,+115.00,+51.00,+19.00,-54.00,-51.00,-7.00,-9.00,-21.00,-4.00,-17.00,-55.00
+5.00,+2.00,+1.00,-1.00,-14.00,-31.00,-7.00,+12.00,-5.00,+41.00,+7.00,-3.00,-11.00,-15.00,-6.00,+32.00
-33.00,-13.00,-1.00,-2.00,-31.00,-66.00,-13.00,-31.00,+69.00,+21.00,-3.00,+2.00,+9.00,-6.00,-15.00,+33.00
-5.00,+40.00,+13.00,+6.00,+16.00,+30.00,-8.00,-19.00,-27.00,-38.00,-1.00,+7.00,+2.00,+14.00,+22.00,+4.00
-12.00,+32.00,-2.00,-5.00,-7.00,+31.00,+8.00,-17.00,-47.00,+0.00,-6.00,-9.00,-14.00,-6.00,+0.00,-6.00
-1.00,-82.00,+6.00,+11.00,-3.00,-34.00,-39.00,+11.00,-30.00,-53.00,-24.00,+2.00,+2.00,+6.00,-5.00,-19.00
-4.00,+62.00,+5.00,-3.00,-32.00,+7.00,+21.00,-15.00,-80.00,-1.00,+2.00,-8.00,-1.00,+7.00,-28.00,-14.00
-32.00,-41.00,-8.00,-7.00,+41.00,+84.00,+9.00,-19.00,+3.00,+98.00,+21.00,+4.00,+17.00,+16.00,+28.00,+33.00
+26.00,+42.00,+4.00,+4.00,-12.00,-106.00,-19.00,+21.00,-70.00,-48.00,-21.00,-10.00,+8.00,-7.00,-3.00,-38.00
+69.00,-28.00,-15.00,-8.00,+54.00,+58.00,-43.00,+1.00,+68.00,+11.00,+12.00,+5.00,-3.00,+4.00,+12.00,+28.00
-59.00,-3.00,-5.00,+0.00,+2.00,-23.00,+71.00,+43.00,-84.00,-25.00,-13.00,+2.00,+9.00,-5.00,-25.00,-23.00
-58.00,-35.00,-22.00,-12.00,-26.00,-101.00,+58.00,-5.00,-18.00,-38.00,+11.00,-13.00,-17.00,+16.00,+8.00,-28.00
+57.00,+32.00,+43.00,+29.00,+16.00,+64.00,-24.00,+27.00,-43.00,+55.00,+16.00,-6.00,-19.00,-11.00,+5.00,-2.00
-7.00,+66.00,+9.00,+2.00,-8.00,-2.00,+14.00,-6.00,-8.00,-56.00,-21.00,-10.00,-7.00,-59.00,-47.00,-13.00
+6.00,-93.00,-14.00,-3.00,-2.00,+56.00,-7.00,+7.00,+104.00,+102.00,+56.00,+24.00,+17.00,+10.00,+16.00,+68.00
+19.00,-5.00,-10.00,-4.00,+2.00,+127.00,-3.00,+0.00,-98.00,-51.00,-29.00,+7.00,+40.00,+11.00,-6.00,-91.00
-92.00,-20.00,-11.00,-5.00,-2.00,-128.00,-19.00,-13.00,+50.00,-13.00,-24.00,-26.00,-52.00,+5.00,+48.00,+82.00
-8.00,+2.00,-3.00,-5.00,-21.00,+27.00,+37.00,-4.00,+86.00,+60.00,+12.00,+8.00,+5.00,-11.00,-17.00,+12.00
+14.00,-2.00,-7.00,-6.00,+5.00,+84.00,-4.00,-20.00,-83.00,-69.00,-23.00,-8.00,+1.00,+6.00,+3.00,-34.00
+1.00,-10.00,+11.00,+8.00,+3.00,+37.00,+27.00,+21.00,+101.00,+26.00,+16.00,-13.00,-6.00,+2.00,-11.00,+34.00
+26.00,+10.00,+0.00,+2.00,+1.00,-6.00,-42.00,+2.00,-36.00,-31.00,-15.00,-3.00,+20.00,+8.00,+66.00,+5.00
-79.00,-12.00,-15.00,-15.00,-69.00,-91.00,-38.00,-16.00,-27.00,-1.00,-3.00,+5.00,+13.00,+20.00,+2.00,-12.00
+93.00,+33.00,+12.00,+6.00,+63.00,+6.00,+23.00,-7.00,+59.00,+14.00,+5.00,-1.00,-19.00,-17.00,+11.00,+66.00
+3.00,+26.00,+15.00,+10.00,+9.00,-42.00,-9.00,+18.00,-8.00,+8.00,-8.00,+6.00,-4.00,+12.00,+27.00,-9.00
-55.00,-51.00,-19.00,-11.00,-13.00,-69.00,-27.00,-22.00,-24.00,-37.00,-10.00,+1.00,+36.00,-4.00,-34.00,-11.00
-31.00,+30.00,-2.00,+3.00,+6.00,-24.00,+14.00,+13.00,+37.00,+3.00,+8.00,-4.00,-8.00,+23.00,+22.00,+64.00
+1.00,-53.00,-3.00,-13.00,-56.00,-39.00,-18.00,-36.00,-80.00,+1.00,-24.00,-6.00,+1.00,-20.00,+11.00,-67.00
+33.00,+20.00,+6.00,+14.00,+27.00,+3.00,-54.00,+6.00,+80.00,+34.00,+3.00,+10.00,-1.00,-1.00,-7.00,+88.00
+9.00,+39.00,+4.00,+0.00,+1.00,-18.00,+43.00,+18.00,-79.00,-17.00,-6.00,+7.00,+0.00,-2.00,-30.00,-54.00
-65.00,+9.00,+1.00,-7.00,+12.00,+25.00,+82.00,-18.00,-54.00,-30.00,-9.00,+6.00,+17.00,+50.00,+67.00,-28.00
-28.00,-53.00,-30.00,-2.00,-13.00,+55.00,+4.00,-10.00,+34.00,-22.00,-7.00,-9.00,+3.00,-48.00,-80.00,+39.00
+73.00,+0.00,+9.00,-1.00,-33.00,-3.00,+6.00,-5.00,+127.00,+46.00,+2.00,-3.00,-21.00,-8.00,-17.00,+14.00
+55.00,+55.00,+17.00,+4.00,+34.00,+125.00,-3.00,+16.00,-14.00,+22.00,+11.00,+0.00,+6.00,-1.00,-11.00,-9.00
-1.00,-103.00,-27.00,-11.00,-18.00,+56.00,-14.00,-17.00,-123.00,-27.00,-36.00,-14.00,-3.00,+7.00,+7.00,-32.00
-18.00,+47.00,-1.00,-2.00,-1.00,-106.00,-42.00,+40.00,-43.00,-43.00,-11.00,-1.00,-6.00,+3.00,+7.00,-30.00
-26.00,-20.00,-7.00,-2.00,-50.00,-5.00,+10.00,-13.00,-6.00,-29.00,-9.00,+10.00,+25.00,+8.00,+3.00,+24.00
-18.00,+26.00,-13.00,-9.00,+44.00,+72.00,-39.00,-23.00,-16.00,+0.00,+1.00,-12.00,-5.00,-35.00,-8.00,-56.00
+77.00,+2.00,+11.00,+7.00,+19.00,-33.00,+81.00,+23.00,-4.00,+10.00,+15.00,-2.00,-24.00,+0.00,-22.00,+2.00
-35.00,-25.00,+8.00,+7.00,+15.00,-43.00,+2.00,-12.00,-3.00,-37.00,-9.00,+0.00,-35.00,-3.00,-8.00,-26.00
-73.00,+0.00,-4.00,-7.00,-33.00,+83.00,+3.00,-52.00,-52.00,+13.00,+5.00,+11.00,+14.00,-27.00,-17.00,+6.00
+30.00,-25.00,-2.00,-1.00,+2.00,-128.00,-14.00,-12.00,+85.00,-9.00,-1.00,+0.00,+12.00,+50.00,+31.00,+23.00
+39.00,+111.00,+20.00,+14.00,+32.00,+41.00,+7.00,+34.00,+23.00,+2.00,+7.00,+5.00,-2.00,-18.00,-19.00,-5.00
-29.00,-43.00,-24.00,-13.00,-6.00,+38.00,-14.00,-32.00,-55.00,-56.00,-8.00,-8.00,-13.00,+11.00,-3.00,-30.00
-6.00,+70.00,-1.00,-9.00,+0.00,-38.00,+3.00,+2.00,-37.00,+52.00,+7.00,-3.00,-14.00,+1.00,-31.00,-52.00
+50.00,-87.00,-17.00,-8.00,-16.00,+119.00,+66.00,+41.00,+75.00,-20.00,+6.00,+6.00,+3.00,-5.00,+4.00,+58.00
-25.00,+67.00,+16.00,+3.00,-7.00,-7.00,-117.00,-6.00,-42.00,+91.00,+42.00,+9.00,+7.00,-9.00,-22.00,-9.00
-18.00,-49.00,+2.00,-3.00,-10.00,-40.00,+96.00,+9.00,-13.00,-56.00,-53.00,+1.00,+32.00,-15.00,-7.00,-1.00
+33.00,+19.00,+10.00,+10.00,+19.00,-47.00,-16.00,+16.00,-44.00,-52.00,-7.00,-11.00,-21.00,+32.00,+10.00,-34.00
-66.00,-15.00,-1.00,-3.00,-11.00,+57.00,+9.00,-17.00,+51.00,+16.00,-7.00,-1.00,+2.00,+0.00,-18.00,+8.00
+42.00,+24.00,+1.00,+6.00,-3.00,-67.00,-28.00,+20.00,-4.00,-9.00,+7.00,+6.00,-16.00,+2.00,+7.00,+5.00
-22.00,+15.00,+2.00,-1.00,+1.00,+127.00,-35.00,-7.00,+0.00,+16.00,+4.00,-2.00,+25.00,-4.00,+0.00,+11.00
+11.00,-22.00,-10.00,-13.00,-34.00,+1.00,-32.00,-5.00,-55.00,-27.00,-7.00,-6.00,-1.00,-8.00,+3.00,+7.00
-12.00,+0.00,+11.00,+11.00,+27.00,-128.00,+62.00,+21.00,+11.00,+22.00,-4.00,-3.00,-6.00,-4.00,-1.00,-27.00
+5.00,+5.00,-5.00,-5.00,+2.00,+101.00,+8.00,+6.00,+15.00,+13.00,+10.00,-3.00,-12.00,-5.00,-43.00,-11.00
-3.00,-15.00,+1.00,+0.00,+4.00,+39.00,-19.00,-10.00,-1.00,+22.00,+20.00,+17.00,-2.00,+26.00,+35.00,+10.00
+33.00,+68.00,-1.00,+2.00,+1.00,+5.00,+23.00,+21.00,+25.00,-31.00,-9.00,-13.00,-25.00,-8.00,+13.00,-2.00
-22.00,+56.00,+8.00,+2.00,+14.00,+15.00,-59.00,-34.00,-26.00,+17.00,+9.00,+4.00,+2.00,-2.00,-32.00,+4.00
-16.00,-53.00,-4.00,+0.00,+9.00,+3.00,+7.00,-3.00,+1.00,+8.00,-4.00,+4.00,+13.00,-5.00,+29.00,-20.00
+1.00,-36.00,-8.00,-3.00,+3.00,-37.00,+33.00,+32.00,+25.00,+19.00,-1.00,-19.00,-21.00,-1.00,-3.00,-4.00
+23.00,+55.00,+17.00,+9.00,+15.00,+46.00,-17.00,-9.00,+33.00,+26.00,+9.00,+9.00,+4.00,+2.00,+9.00,+35.00
+22.00,+9.00,-7.00,-9.00,-32.00,+1.00,-9.00,+6.00,-126.00,-55.00,-17.00,-6.00,+1.00,+12.00,-7.00,-37.00
-31.00,-90.00,-12.00,+2.00,+6.00,-42.00,+12.00,-18.00,-2.00,-7.00,-13.00,-12.00,-6.00,-33.00,+10.00,-5.00
+39.00,+78.00,+26.00,-7.00,-15.00,-5.00,-5.00,-6.00,+44.00,+32.00,+19.00,+7.00,+12.00,+3.00,-3.00,+17.00
+14.00,-56.00,-17.00,+2.00,+21.00,-27.00,-6.00,+32.00,-20.00,-16.00,+4.00,-5.00,-10.00,+0.00,+5.00,-16.00
-34.00,+13.00,+11.00,+6.00,-16.00,-55.00,-14.00,-26.00,-106.00,-33.00,-16.00,-5.00,-10.00,-8.00,-9.00,-23.00
+12.00,-31.00,-13.00,-7.00,-7.00,+38.00,+18.00,+0.00,+16.00,-14.00,-18.00,-4.00,+6.00,+6.00,+4.00,+6.00
+14.00,-5.00,-12.00,-1.00,+6.00,+45.00,-26.00,-20.00,-29.00,-28.00,-15.00,-3.00,+7.00,-13.00,-4.00,-28.00
-19.00,+5.00,+1.00,-10.00,-12.00,-84.00,-35.00,-8.00,-5.00,+10.00,+10.00,+16.00,+11.00,+4.00,+11.00,+25.00
-14.00,+29.00,-2.00,+1.00,-15.00,+8.00,+8.00,-4.00,-36.00,+29.00,+9.00,-25.00,-29.00,-9.00,-6.00,-3.00
-29.00,-5.00,+0.00,+6.00,+20.00,+51.00,+26.00,-13.00,+4.00,-5.00,+8.00,+7.00,+7.00,+8.00,+5.00,-2.00
+24.00,-6.00,+4.00,+8.00,-23.00,-62.00,-32.00,+17.00,-3.00,+52.00,+11.00,-3.00,-17.00,-12.00,-13.00,-4.00
+16.00,+8.00,+10.00,+10.00,+82.00,+42.00,-13.00,+13.00,-11.00,-8.00,-4.00,-2.00,-2.00,-18.00,-6.00,-30.00
+40.00,-30.00,-2.00,+2.00,-24.00,-6.00,-12.00,-13.00,+21.00,-9.00,-3.00,+15.00,+14.00,-1.00,+5.00,+26.00
-11.00,+0.00,-6.00,-10.00,-23.00,-16.00,-12.00,-32.00,+5.00,-6.00,+2.00,+9.00,+25.00,-2.00,+6.00,+6.00
+12.00,+18.00,+0.00,+0.00,+28.00,+125.00,+10.00,+12.00,+8.00,+13.00,+3.00,-6.00,-44.00,-7.00,-30.00,-4.00
-64.00,-27.00,-8.00,-6.00,-54.00,-81.00,+0.00,-13.00,+31.00,-27.00,-4.00,-3.00,-4.00,+36.00,+10.00,+82.00
+56.00,-7.00,-5.00,+0.00,+29.00,-8.00,-33.00,+14.00,+88.00,+46.00,+5.00,-6.00,-32.00,-12.00,+8.00,+17.00
-56.00,+34.00,+8.00,+1.00,+5.00,+8.00,+13.00,+1.00,-12.00,+9.00,+0.00,-3.00,+20.00,-3.00,-8.00,-26.00
+63.00,+41.00,+10.00,+3.00,-1.00,-22.00,-14.00,+13.00,-18.00,+26.00,+27.00,+12.00,+11.00,+7.00,+0.00,+19.00
+3.00,-27.00,-16.00,-12.00,-6.00,+45.00,+9.00,-2.00,-24.00,+15.00,-18.00,-1.00,-2.00,-7.00,-7.00,-32.00
+30.00,-12.00,-3.00,+1.00,-7.00,+24.00,-12.00,-12.00,+22.00,-57.00,-22.00,-5.00,-4.00,-4.00,-14.00,+9.00
-9.00,-2.00,+6.00,-6.00,-14.00,-42.00,-11.00,-4.00,-67.00,-47.00,-24.00,-9.00,-25.00,+13.00,-1.00,-25.00
-11.00,-40.00,-10.00,-9.00,-3.00,-4.00,+21.00,+6.00,+47.00,+3.00,+5.00,-1.00,+30.00,-8.00,-1.00,+39.00
+30.00,-36.00,-2.00,+3.00,+2.00,+44.00,-10.00,+6.00,+21.00,+32.00,+12.00,-2.00,-6.00,-9.00,-11.00,-16.00
-35.00,+48.00,+12.00,+5.00,+0.00,+27.00,+60.00,+10.00,-18.00,-17.00,+5.00,+7.00,+10.00,+4.00,+11.00,+3.00
+0.00,-30.00,-7.00,+1.00,+7.00,+59.00,+12.00,+7.00,-7.00,+16.00,-13.00,-11.00,-14.00,-9.00,-2.00,-12.00
-18.00,-3.00,-8.00,-4.00,-7.00,-88.00,-21.00,-17.00,+7.00,+17.00,-1.00,-2.00,+6.00,+18.00,+11.00,-9.00
+8.00,-7.00,-8.00,-2.00,-4.00,+70.00,+16.00,-4.00,-17.00,-13.00,-5.00,+0.00,+8.00,-10.00,+4.00,+1.00
-45.00,-26.00,-2.00,-6.00,+1.00,-87.00,-28.00,-7.00,+10.00,-5.00,-6.00,-3.00,-11.00,-29.00,-19.00,-21.00
+28.00,+29.00,+4.00,+3.00,+0.00,-8.00,-42.00,-9.00,-41.00,-39.00,-5.00,+10.00,+33.00,+40.00,+3.00,-58.00
-29.00,-66.00,-20.00,-10.00,-20.00,+32.00,+19.00,-29.00,+83.00,+20.00,+16.00,-11.00,-16.00,-16.00,+3.00,+28.00
-1.00,+70.00,+25.00,+17.00,+54.00,+6.00,+1.00,+41.00,-19.00,+14.00,+9.00,+2.00,-3.00,-16.00,-10.00,+6.00
-14.00,-32.00,-6.00,-5.00,-8.00,+42.00,+24.00,-8.00,-62.00,-4.00,-13.00,-4.00,+2.00,-3.00,-38.00,-47.00
+15.00,-24.00,+1.00,+3.00,-6.00,-9.00,+0.00,+5.00,+50.00,+21.00,+16.00,+3.00,-11.00,+0.00,+52.00,+26.00
-13.00,+16.00,-3.00,-1.00,+4.00,+18.00,-16.00,-16.00,-25.00,-19.00,-7.00,+4.00,+13.00,+4.00,+2.00,+5.00
+26.00,-11.00,-6.00,-5.00,-16.00,-15.00,+23.00,+26.00,-36.00,-34.00,-15.00,-18.00,-1.00,-2.00,-8.00,-29.00
-17.00,+15.00,-1.00,-12.00,-22.00,+3.00,-25.00,-10.00,+9.00,+27.00,+11.00,+16.00,+30.00,+3.00,+11.00,-4.00
+49.00,+10.00,+4.00,+0.00,+7.00,-24.00,-16.00,+19.00,-7.00,+1.00,-4.00,-8.00,-32.00,-17.00,-23.00,+5.00
-15.00,+17.00,+7.00,+6.00,+1.00,-13.00,+38.00,+19.00,-2.00,-8.00,-9.00,-15.00,-3.00,-1.00,-3.00,-4.00
-1.00,+3.00,+1.00,+4.00,+0.00,-18.00,+8.00,-8.00,+26.00,+6.00,+5.00,-4.00,-13.00,+9.00,+9.00,+16.00
-30.00,-14.00,-11.00,-7.00,-4.00,+36.00,+0.00,-17.00,-24.00,-11.00,-5.00,+0.00,+8.00,+4.00,+2.00,-13.00
-10.00,+7.00,-5.00,-7.00,-16.00,-55.00,-6.00,-10.00,+106.00,+27.00,+16.00,+2.00,+4.00,+13.00,+5.00,+10.00
-2.00,+26.00,+6.00,+2.00,+4.00,-42.00,-16.00,+5.00,-11.00,-18.00,-31.00,-1.00,-4.00,+4.00,+5.00,+25.00
-3.00,+4.00,-3.00,-5.00,-7.00,+54.00,+4.00,-21.00,+40.00,+25.00,+9.00,+7.00,+8.00,+1.00,+3.00,+23.00
-36.00,-25.00,-10.00,-7.00,-18.00,-45.00,-2.00,-19.00,+33.00,-10.00,+4.00,-7.00,-12.00,-2.00,+5.00,+9.00
-30.00,+21.00,-7.00,-4.00,+4.00,-37.00,-20.00,+35.00,-45.00,-14.00,-16.00,-2.00,+0.00,-10.00,-9.00,+1.00
-14.00,-12.00,+18.00,+14.00,+24.00,+52.00,+51.00,+52.00,+12.00,+17.00,+5.00,+1.00,-1.00,+2.00,+1.00,-23.00
-45.00,-6.00,+0.00,-1.00,+1.00,-42.00,-24.00,-6.00,-59.00,-20.00,+7.00,+6.00,+4.00,+3.00,+2.00,-23.00
-27.00,-79.00,-20.00,-12.00,-33.00,+36.00,-15.00,-17.00,+48.00,+36.00,+15.00,+6.00,+3.00,+4.00,+5.00,+21.00
+33.00,+80.00,+20.00,+10.00,+28.00,+25.00,+30.00,+27.00,+35.00,+28.00,+20.00,+6.00,+0.00,-12.00,+0.00,+30.00
+3.00,+21.00,-4.00,-7.00,-5.00,+10.00,-27.00,-16.00,-26.00,-18.00,-8.00,-6.00,-3.00,+2.00,-7.00,-20.00
+49.00,-19.00,-5.00,-7.00,+1.00,-18.00,+15.00,+4.00,-15.00,-13.00,-8.00,-6.00,-2.00,-15.00,-3.00,+7.00
-16.00,-3.00,+0.00,+5.00,-10.00,-1.00,-11.00,+5.00,+36.00,+4.00,+5.00,+2.00,+0.00,+9.00,-4.00,+24.00
+35.00,-23.00,-5.00,-4.00,-6.00,+9.00,-10.00,-25.00,-51.00,-22.00,-7.00,-4.00,-4.00,-11.00,-2.00,-10.00
-6.00,-2.00,-2.00,+0.00,+11.00,+17.00,-53.00,-9.00,+23.00,+20.00,+7.00,+8.00,-9.00,+14.00,+7.00,-13.00
+15.00,+19.00,+1.00,+1.00,-4.00,-12.00,+13.00,+0.00,-8.00,-19.00,-10.00,-2.00,+21.00,-1.00,-4.00,-17.00
-2.00,-43.00,-9.00,-2.00,-1.00,-36.00,-27.00,-16.00,+8.00,+3.00,-5.00,-14.00,-44.00,-10.00,+0.00,-5.00
+16.00,+32.00,+0.00,+1.00,-5.00,+14.00,-8.00,+6.00,+3.00,-9.00,-8.00,-16.00,+6.00,+16.00,+8.00,-2.00
+30.00,-13.00,+11.00,+2.00,+3.00,-28.00,-9.00,+8.00,-30.00,-11.00,-1.00,-2.00,-7.00,-4.00,-14.00,-12.00
+26.00,-20.00,-9.00,-3.00,-17.00,+13.00,-1.00,-12.00,-4.00,+12.00,+5.00,+4.00,+4.00,+5.00,-3.00,-15.00
+11.00,+24.00,+4.00,-1.00,+26.00,+12.00,-7.00,+0.00,+4.00,-4.00,-3.00,+3.00,+6.00,-1.00,+6.00,+28.00
-7.00,-3.00,-3.00,-2.00,-7.00,-13.00,+9.00,-2.00,-26.00,-26.00,-6.00,+3.00,+0.00,-5.00,-7.00,+7.00
-72.00,-73.00,-11.00,-5.00,-9.00,+5.00,-7.00,-21.00,+51.00,+14.00,+3.00,+3.00,+3.00,-2.00,-2.00,+0.00
-6.00,+80.00,+20.00,+10.00,+3.00,-19.00,-3.00,+11.00,-12.00,-8.00,-4.00,-5.00,-3.00,-2.00,+2.00,-5.00
+0.00,+16.00,+10.00,+5.00,+1.00,-21.00,-5.00,+13.00,-29.00,-4.00,+2.00,+3.00,+8.00,+3.00,+4.00,-1.00
-32.00,-10.00,-10.00,+0.00,-4.00,+51.00,+19.00,-8.00,+1.00,+9.00,+2.00,+0.00,-9.00,-5.00,-13.00,+1.00
-9.00,+10.00,-11.00,-11.00,-7.00,-16.00,+10.00,-8.00,-29.00,-15.00,+5.00,-2.00,+2.00,+1.00,-1.00,-1.00
-24.00,-34.00,-12.00,-6.00,+0.00,+4.00,-10.00,-16.00,+10.00,-13.00,-29.00,-14.00,-15.00,-11.00,-2.00,-6.00
-41.00,+24.00,+9.00,+4.00,+3.00,-7.00,-45.00,-13.00,-19.00,-16.00,+7.00,+6.00,+4.00,+2.00,+4.00,+13.00
+8.00,-8.00,-3.00,-1.00,-27.00,+18.00,+63.00,+25.00,+2.00,+28.00,+4.00,-3.00,-4.00,-3.00,-8.00,+6.00
+6.00,+24.00,+5.00,+1.00,+9.00,+5.00,+5.00,+16.00,-5.00,-3.00,+7.00,+4.00,+3.00,+2.00,+5.00,+11.00
-47.00,-26.00,-7.00,-8.00,+21.00,-9.00,-1.00,+9.00,+26.00,+10.00,+7.00,+1.00,+2.00,+0.00,+8.00,+24.00
-38.00,+2.00,-3.00,-3.00,-23.00,-14.00,-8.00,-20.00,-5.00,-6.00,-7.00,+3.00,+5.00,-18.00,-18.00,-22.00
+31.00,-14.00,-2.00,+1.00,+27.00,+1.00,-15.00,+7.00,+0.00,-16.00,-10.00,-7.00,-5.00,-1.00,+19.00,+31.00
-2.00,+11.00,-4.00,-2.00,-5.00,-59.00,-18.00,-10.00,-34.00,-8.00,-7.00,-3.00,+3.00,-11.00,+1.00,+6.00
+9.00,+13.00,+6.00,+2.00,-8.00,-6.00,+7.00,+5.00,+18.00,+19.00,+15.00,+7.00,-2.00,+6.00,-14.00,-36.00
+10.00,+5.00,-2.00,-1.00,-2.00,+10.00,+6.00,+1.00,-15.00,-15.00,-7.00,+7.00,-3.00,-14.00,-1.00,+16.00
-4.00,-22.00,-2.00,+0.00,-1.00,-3.00,-2.00,-11.00,+12.00,-16.00,-19.00,-14.00,-6.00,+27.00,-14.00,+15.00
-39.00,+19.00,+0.00,+3.00,-12.00,-13.00,-7.00,-14.00,-24.00,+0.00,-2.00,-3.00,-2.00,+7.00,+61.00,+41.00
+41.00,-17.00,+9.00,+5.00,+4.00,+8.00,-2.00,+6.00,-6.00,-4.00,+0.00,-2.00,-9.00,-7.00,+5.00,-34.00
+22.00,+6.00,+1.00,+1.00,+4.00,+0.00,+12.00,+16.00,-16.00,+8.00,+5.00,-2.00,+3.00,+2.00,-24.00,+11.00
-9.00,+6.00,+2.00,-4.00,-8.00,+44.00,-8.00,-12.00,-39.00,-10.00,-12.00,+6.00,+1.00,-13.00,-17.00,-42.00
+64.00,-14.00,-25.00,-15.00,+3.00,+26.00,-6.00,-9.00,+102.00,+18.00,+18.00,-5.00,-5.00,-7.00,-4.00,+49.00
-10.00,-17.00,-7.00,-8.00,-17.00,-30.00,-10.00,-14.00,-47.00,+10.00,-12.00,-5.00,-3.00,+1.00,+2.00,-4.00
+36.00,-1.00,+6.00,+8.00,+12.00,+28.00,+16.00,+16.00,+18.00,-8.00,+0.00,-7.00,-4.00,+6.00,+18.00,+23.00
-23.00,-5.00,+2.00,+0.00,-2.00,-45.00,+0.00,-11.00,+20.00,-4.00,-2.00,+1.00,+0.00,-7.00,-4.00,+11.00
+29.00,+22.00,+4.00,+7.00,+1.00,-14.00,-38.00,-31.00,-47.00,-37.00,-17.00,-2.00,+1.00,+11.00,-15.00,-69.00
+46.00,+38.00,+7.00,+4.00,+4.00,+72.00,+47.00,-26.00,+30.00,+22.00,+6.00,+2.00,+1.00,-7.00,-4.00,+39.00
+24.00,-23.00,-1.00,-2.00,-26.00,-26.00,+42.00,+48.00,-2.00,+25.00,+15.00,+3.00,+4.00,+8.00,+1.00,-46.00
-67.00,-30.00,-9.00,-4.00,+34.00,+17.00,-16.00,-25.00,-8.00,-5.00,+1.00,-3.00,-5.00,-11.00,-5.00,+15.00
-122.00,-18.00,+4.00,-1.00,-6.00,-8.00,+1.00,-27.00,+11.00,-3.00,-2.00,+2.00,+11.00,-32.00,-12.00,-12.00
+106.00,+15.00,+11.00,+13.00,+12.00,+74.00,+13.00,+21.00,-14.00,-13.00,+2.00,+2.00,+7.00,+9.00,-35.00,-7.00
+65.00,+40.00,+6.00,+4.00,+9.00,-9.00,-8.00,-45.00,+22.00,+11.00,+0.00,-3.00,-10.00,+6.00,+44.00,-25.00
-15.00,-38.00,-14.00,-11.00,-19.00,-30.00,-9.00,-12.00,-33.00,+6.00,+7.00,+2.00,-5.00,-24.00,+42.00,-13.00
-37.00,+38.00,+4.00,+4.00,+7.00,+28.00,-4.00,+12.00,+43.00,+3.00,-4.00,+3.00,+14.00,+41.00,-25.00,+8.00
-51.00,-30.00,+2.00,-1.00,+1.00,-13.00,-3.00,+8.00,+12.00,-7.00,-4.00,-8.00,-17.00,-9.00,+1.00,+1.00
+15.00,-28.00,-20.00,-10.00,-6.00,+1.00,-9.00,-17.00,+1.00,+3.00,-5.00,-5.00,+6.00,-2.00,-3.00,+24.00
-1.00,-29.00,-6.00,-8.00,-26.00,+1.00,+3.00,+2.00,-14.00,-5.00,-1.00,+0.00,+5.00,-4.00,-8.00,-15.00
+64.00,+49.00,+6.00,+6.00,+23.00,-6.00,-5.00,+12.00,-23.00,+13.00,+5.00,+3.00,-3.00,-4.00,+6.00,-9.00
-26.00,+11.00,-11.00,-6.00,-11.00,-31.00,-13.00,+6.00,+9.00,-11.00,+0.00,+6.00,+8.00,+10.00,+10.00,+3.00
-40.00,-52.00,+4.00,-4.00,+8.00,+8.00,-13.00,-12.00,-64.00,-16.00,-3.00,+0.00,-3.00,+1.00,-20.00,+1.00
-24.00,-3.00,+0.00,+4.00,-8.00,-10.00,+3.00,-9.00,+37.00,-8.00,-8.00,+0.00,-5.00,-2.00,-3.00,+11.00
+16.00,-31.00,-6.00,-5.00,-12.00,-12.00,-25.00,+1.00,+38.00,+18.00,+13.00,+13.00,+17.00,+14.00,+3.00,+21.00
-50.00,-8.00,-6.00,+1.00,-5.00,-37.00,+3.00,-9.00,+26.00,-12.00,-8.00,-14.00,-26.00,+1.00,-3.00,-11.00
+26.00,+2.00,-1.00,+2.00,+11.00,+83.00,+18.00,+30.00,-62.00,-8.00,-4.00,+0.00,+2.00,-10.00,+2.00,-7.00
+36.00,+15.00,+0.00,-2.00,+3.00,-53.00,-27.00,+2.00,+41.00,+10.00,+2.00,-1.00,-2.00,+11.00,-2.00,+33.00
+26.00,-7.00,+2.00,+0.00,-11.00,-13.00,-62.00,-30.00,-22.00,-12.00,-10.00,-6.00,-6.00,-13.00,-1.00,-36.00
-84.00,-18.00,-14.00,-15.00,-8.00,+27.00,+56.00,+54.00,+1.00,-3.00,+10.00,+8.00,+5.00,-3.00,+4.00,-23.00
+24.00,+35.00,+5.00,+5.00,+32.00,-79.00,-22.00,+16.00,+2.00,-2.00,-4.00,-8.00,-1.00,+1.00,-4.00,-9.00
+6.00,-34.00,+5.00,-1.00,+0.00,+3.00,-5.00,+9.00,-7.00,-36.00,-10.00,-2.00,+1.00,+2.00,-15.00,-2.00
-38.00,+5.00,+9.00,+6.00,+10.00,+10.00,+6.00,+27.00,-14.00,+10.00,-2.00,+6.00,+4.00,+16.00,+4.00,-41.00
-4.00,-7.00,-1.00,-1.00,+5.00,+52.00,-21.00,-20.00,+17.00,+25.00,-2.00,-13.00,-5.00,-10.00,+0.00,+28.00
-44.00,+9.00,+0.00,-2.00,-6.00,-82.00,-8.00,+0.00,-18.00,-1.00,-3.00,-3.00,-7.00,+1.00,-4.00,-9.00
+25.00,+17.00,+1.00,+2.00,+2.00,+1.00,-2.00,+4.00,-24.00,+13.00,+5.00,+2.00,+3.00,-2.00,-15.00,-26.00
-35.00,-4.00,+0.00,-1.00,-19.00,-1.00,+39.00,+6.00,-3.00,-19.00,-9.00,-4.00,-5.00,-5.00,-3.00,+5.00
+9.00,+2.00,+2.00,+1.00,-18.00,-23.00,-33.00,+1.00,-6.00,-13.00,-5.00,-7.00,-2.00,-19.00,-2.00,+26.00
-23.00,+1.00,+0.00,+3.00,-10.00,+49.00,+18.00,-7.00,+1.00,-3.00,-5.00,+5.00,+12.00,+11.00,-8.00,-44.00
-29.00,-19.00,-4.00,-3.00,-28.00,+0.00,-3.00,-21.00,+35.00,+6.00,+0.00,-9.00,-8.00,-14.00,-20.00,+27.00
-17.00,+30.00,+8.00,+3.00,-15.00,-12.00,+13.00,-2.00,-28.00,-7.00,-5.00,-5.00,-2.00,+22.00,+33.00,-7.00
-11.00,-34.00,-6.00,-5.00,+9.00,+65.00,-14.00,-21.00,-36.00,-11.00,-2.00,+0.00,+1.00,-1.00,+0.00,-8.00
+31.00,+10.00,+11.00,+8.00,-5.00,+0.00,-31.00,-4.00,+44.00,-1.00,-5.00,-2.00,-2.00,+6.00,+3.00,+19.00
-7.00,+29.00,+11.00,+7.00,+12.00,-9.00,-6.00,-4.00,-18.00,+1.00,+5.00,+0.00,+0.00,-10.00,-2.00,-21.00
+51.00,+11.00,-6.00,-4.00,-2.00,+14.00,+34.00,+16.00,-7.00,+6.00,+1.00,-2.00,-14.00,-9.00,-15.00,+7.00
-31.00,-73.00,-15.00,-2.00,-3.00,-41.00,-12.00,-11.00,-9.00,-1.00,-4.00,+0.00,+17.00,-2.00,-2.00,-20.00
-9.00,+46.00,+5.00,-5.00,-27.00,-3.00,+7.00,-10.00,+7.00,+0.00,-3.00,+0.00,-4.00,+4.00,+11.00,+20.00
+39.00,+9.00,-1.00,+4.00,+42.00,+27.00,+5.00,+10.00,-13.00,+2.00,+5.00,+2.00,+4.00,+4.00,+9.00,-7.00
+66.00,+0.00,+1.00,-4.00,-6.00,-15.00,+6.00,+9.00,+5.00,+4.00,-1.00,+1.00,+8.00,-4.00,-6.00,+0.00
+11.00,+25.00,+6.00,+5.00,+13.00,-31.00,+28.00,+3.00,-4.00,-6.00,-3.00,+0.00,-26.00,+4.00,+6.00,+7.00
-34.00,-34.00,-10.00,-5.00,+1.00,-7.00,-21.00,-12.00,+3.00,-2.00,-3.00,-5.00,+7.00,-8.00,-10.00,-14.00
+1.00,+28.00,+6.00,+1.00,-11.00,-16.00,+3.00,+0.00,+5.00,+9.00,+3.00,-1.00,-2.00,-12.00,-1.00,+0.00
-19.00,-7.00,-1.00,+0.00,+10.00,+25.00,+4.00,-3.00,-34.00,-14.00,-7.00,-5.00,-3.00,-34.00,-2.00,-28.00
+44.00,-17.00,-11.00,-8.00,-6.00,-44.00,-36.00,-21.00,-68.00,-18.00,-7.00,-4.00,-5.00,+14.00,-17.00,-24.00
-7.00,+21.00,-2.00,-1.00,+3.00,+9.00,-1.00,+10.00,+53.00,+17.00,+3.00,+0.00,+1.00,-1.00,-4.00,+15.00
+28.00,-21.00,+3.00,+0.00,-2.00,+9.00,+25.00,+21.00,+54.00,+24.00,+9.00,+4.00,+2.00,+14.00,+9.00,+21.00
-5.00,-18.00,-6.00,-3.00,+6.00,+22.00,-14.00,-16.00,-48.00,-11.00,-8.00,-4.00,-7.00,-6.00,-5.00,-13.00
+11.00,+21.00,+0.00,-2.00,-7.00,-18.00,-13.00,-6.00,+11.00,+0.00,-7.00,-1.00,+9.00,+2.00,+8.00,-1.00
-7.00,-18.00,+0.00,+2.00,+8.00,+14.00,+8.00,+12.00,+10.00,+1.00,+1.00,-2.00,-5.00,-2.00,+3.00,+27.00
-16.00,+6.00,-1.00,+1.00,+2.00,+28.00,+0.00,-6.00,-22.00,+2.00,+1.00,+1.00,+1.00,+2.00,-7.00,-46.00
+10.00,-14.00,+4.00,+3.00,+2.00,-80.00,-35.00,-13.00,-5.00,-6.00,+4.00,+1.00,-5.00,-2.00,-10.00,+8.00
+17.00,+14.00,+0.00,-3.00,-4.00,-2.00,+3.00,-16.00,+11.00,+7.00,+4.00,+7.00,+7.00,-3.00,-18.00,-15.00
+11.00,+16.00,-6.00,-6.00,+9.00,-1.00,+7.00,+4.00,-24.00,-18.00,-5.00,+7.00,+15.00,+2.00,-5.00,-25.00
-18.00,-14.00,-1.00,-1.00,+1.00,+2.00,-24.00,-5.00,+17.00,+6.00,-1.00,-5.00,-13.00,-18.00,-1.00,+10.00
+23.00,-11.00,+1.00,+3.00,+3.00,-7.00,+35.00,+20.00,+20.00,+4.00,+3.00,-1.00,+1.00,+5.00,-2.00,+30.00
-5.00,+19.00,+4.00,+3.00,+3.00,-9.00,-4.00,-1.00,+7.00,-2.00,-3.00,-1.00,-3.00,+4.00,-1.00,-1.00
-11.00,-26.00,-7.00,-7.00,-1.00,+45.00,+2.00,-8.00,-2.00,+2.00,-3.00,-4.00,+0.00,-9.00,+0.00,-13.00
+28.00,+5.00,-4.00,-1.00,-18.00,-55.00,-9.00,-4.00,-25.00,-5.00,+2.00,+2.00,+3.00,+3.00,+0.00,-1.00
+14.00,+3.00,-2.00,-3.00,-2.00,+25.00,+17.00,-20.00,-4.00,+6.00,+8.00,+0.00,-5.00,-2.00,-11.00,+10.00
-18.00,+13.00,+0.00,-3.00,-6.00,-6.00,-7.00,-3.00,+20.00,-4.00,-4.00,+1.00,+5.00,+0.00,+6.00,+9.00
-7.00,-10.00,+3.00,+2.00,-5.00,+6.00,-4.00,-2.00,-6.00,-6.00,-1.00,-3.00,-8.00,-3.00,-1.00,-20.00
+6.00,+8.00,+7.00,+3.00,+0.00,+8.00,+13.00,+11.00,-16.00,-1.00,-2.00,+3.00,+3.00,+6.00,+4.00,-2.00
-4.00,-26.00,-8.00,-3.00,+3.00,+48.00,-3.00,-5.00,-12.00,-15.00,-2.00,-4.00,-3.00,+4.00,-9.00,-8.00
-5.00,-7.00,-2.00,-3.00,-7.00,-49.00,-24.00,-4.00,+10.00,+11.00,+3.00,-1.00,-1.00,+0.00,+12.00,-12.00
-12.00,-5.00,-1.00,-3.00,-2.00,-11.00,+13.00,+10.00,-10.00,-2.00,+1.00,-1.00,-2.00,+10.00,+6.00,+11.00
-11.00,+5.00,+2.00,-1.00,-1.00,+7.00,-17.00,-9.00,+2.00,+1.00,-1.00,-3.00,+0.00,+0.00,-3.00,-1.00
-1.00,-1.00,-1.00,+0.00,+0.00,+9.00,+8.00,+4.00,-5.00,+1.00,+1.00,+1.00,-3.00,+3.00,-2.00,-8.00
-8.00,+11.00,+3.00,+2.00,-6.00,+7.00,+0.00,-1.00,-4.00,-2.00,+0.00,-3.00,+0.00,-13.00,-2.00,+5.00
+14.00,+16.00,-2.00,-1.00,+10.00,+1.00,-9.00,-4.00,-10.00,-4.00,-6.00,-3.00,-1.00,+2.00,-16.00,-14.00
-8.00,+11.00,-1.00,+3.00,+2.00,+3.00,-8.00,+0.00,-3.00,-3.00,-1.00,+0.00,-5.00,+6.00,+28.00,+1.00
-26.00,-30.00,+2.00,+0.00,-15.00,+22.00,+13.00,+5.00,+23.00,+6.00,+0.00,+1.00,+1.00,-2.00,+4.00,+22.00
-1.00,+18.00,+0.00,+2.00,+5.00,-68.00,-1.00,+20.00,+4.00,-1.00,-9.00,-8.00,-5.00,-2.00,-5.00,+22.00
-9.00,+2.00,+2.00,+3.00,+10.00,+30.00,+10.00,-8.00,-5.00,+6.00,+10.00,+0.00,-4.00,-4.00,+2.00,+5.00
-15.00,-4.00,-4.00,-3.00,-5.00,+2.00,-1.00,+18.00,+1.00,-8.00,-5.00,-2.00,+1.00,+4.00,-5.00,+11.00
-21.00,+10.00,+1.00,+3.00,+8.00,-4.00,-4.00,-19.00,-4.00,-13.00,-23.00,-3.00,+4.00,-3.00,+0.00,-8.00
+16.00,+10.00,+1.00,-1.00,-11.00,+1.00,-1.00,-5.00,-6.00,-4.00,+6.00,+3.00,-1.00,+2.00,+5.00,+1.00
-20.00,-28.00,-5.00,-1.00,-3.00,-1.00,-13.00,-2.00,+15.00,-3.00,-3.00,-2.00,+1.00,-3.00,-3.00,+8.00
+17.00,+4.00,-2.00,+1.00,+1.00,-11.00,+4.00,-6.00,-15.00,+3.00,+3.00,+1.00,-2.00,-2.00,-12.00,-11.00
-23.00,+4.00,-4.00,-6.00,-8.00,-4.00,-4.00,-5.00,-9.00,+5.00,+5.00,-2.00,-3.00,+1.00,+4.00,+0.00
-10.00,-16.00,-3.00,-2.00,+4.00,+24.00,+8.00,-7.00,+11.00,+0.00,-1.00,+1.00,+0.00,+0.00,-4.00,-4.00
+33.00,+5.00,+2.00,-1.00,-3.00,-20.00,-1.00,+9.00,-1.00,-8.00,-3.00,-2.00,+4.00,+0.00,+3.00,+15.00
+24.00,+16.00,+1.00,-2.00,+2.00,+18.00,+7.00,+1.00,-1.00,-3.00,-3.00,+0.00,-1.00,+0.00,-4.00,-14.00
+20.00,+10.00,+1.00,+2.00,+1.00,+21.00,+7.00,+13.00,+11.00,+4.00,-1.00,-3.00,-3.00,+0.00,+0.00,+14.00
-8.00,-1.00,-4.00,-2.00,+0.00,-17.00,-2.00,-5.00,-2.00,-2.00,+1.00,+2.00,+3.00,-2.00,+2.00,+2.00
-3.00,-9.00,-4.00,-4.00,-1.00,-5.00,+1.00,+10.00,-10.00,-4.00,-4.00,-3.00,-8.00,-4.00,+2.00,-7.00
-25.00,-24.00,-4.00,-3.00,-8.00,+6.00,+4.00,+5.00,+24.00,+7.00,+2.00,+1.00,+0.00,+1.00,-3.00,+10.00
+9.00,+17.00,-2.00,-1.00,+3.00,-11.00,-34.00,-18.00,-11.00,-5.00,+0.00,-2.00,-3.00,+0.00,-4.00,-7.00
+24.00,+5.00,+4.00,+1.00,+7.00,+19.00,+45.00,+39.00,+0.00,+5.00,+5.00,+3.00,+0.00,+1.00,+0.00,-2.00
+3.00,-13.00,-1.00,+3.00,-4.00,-3.00,-8.00,-12.00,-11.00,-5.00,-5.00,+2.00,-3.00,-2.00,-3.00,-14.00
-5.00,+11.00,+1.00,-2.00,-2.00,-23.00,+3.00,+0.00,+24.00,+7.00,+0.00,+1.00,+4.00,+3.00,-2.00,+5.00
-14.00,-3.00,+2.00,-1.00,+2.00,-8.00,-11.00,+2.00,-13.00,-7.00,-2.00,-4.00,-2.00,-2.00,-3.00,-31.00
-16.00,-35.00,-9.00,-3.00,+3.00,+24.00,-5.00,+6.00,+7.00,+1.00,+1.00,-1.00,+1.00,-1.00,+3.00,+17.00
-9.00,+14.00,-1.00,-2.00,-6.00,-19.00,+4.00,-4.00,-4.00,-6.00,-3.00,-3.00,-4.00,-3.00,+0.00,-3.00
+8.00,+17.00,-4.00,-2.00,-2.00,+7.00,+1.00,-10.00,-16.00,-8.00,-1.00,-4.00,-3.00,-4.00,-6.00,+2.00
+11.00,-5.00,+3.00,+3.00,+4.00,+3.00,+17.00,+14.00,+13.00,+8.00,+2.00,-1.00,+0.00,+0.00,+2.00,+9.00
+13.00,+25.00,+8.00,+3.00,-1.00,-68.00,-14.00,-14.00,-8.00,+1.00,-7.00,-4.00,-3.00,-1.00,-2.00,-14.00
+13.00,-10.00,-3.00,-1.00,-1.00,+47.00,+9.00,+7.00,+7.00,+0.00,-1.00,-3.00,-3.00,+0.00,+1.00,+6.00
-14.00,-10.00,-2.00,-3.00,-1.00,+0.00,-7.00,-11.00,-10.00,+1.00,+2.00,+1.00,+0.00,+3.00,-2.00,-5.00
+4.00,+7.00,-3.00,-3.00,-3.00,-4.00,+4.00,+4.00,-24.00,-10.00,+0.00,+0.00,-1.00,-2.00,-1.00,-8.00
+1.00,-2.00,+1.00,+1.00,+0.00,-10.00,-7.00,-5.00,+10.00,+4.00,-4.00,-4.00,-1.00,-1.00,+0.00,-2.00
-32.00,-14.00,-7.00,-5.00,-5.00,-15.00,-19.00,-23.00,-17.00,-8.00,-3.00,-1.00,-6.00,-3.00,+2.00,+4.00
+10.00,+13.00,+4.00,+2.00,+3.00,+2.00,+9.00,+9.00,+36.00,+8.00,+0.00,-1.00,+0.00,+3.00,+5.00,-11.00
-12.00,-6.00,-2.00,-4.00,-1.00,-10.00,+5.00,-4.00,+7.00,-2.00,-5.00,-3.00,-3.00,-2.00,-1.00,+3.00
-16.00,-3.00,-1.00,-1.00,-1.00,+34.00,-2.00,-7.00,-5.00,-8.00,-3.00,-1.00,-3.00,-2.00,+5.00,-2.00
+25.00,+18.00,+11.00,+6.00,+1.00,-7.00,-3.00,-11.00,+10.00,+2.00,-2.00,-1.00,+2.00,+7.00,+6.00,+27.00
+6.00,-13.00,-1.00,-1.00,-2.00,+11.00,+3.00,+4.00,-17.00,+0.00,-3.00,+1.00,+2.00,-1.00,-1.00,-38.00
-30.00,-3.00,-3.00,-2.00,+0.00,-5.00,+4.00,+11.00,-2.00,-4.00,+0.00,-1.00,-2.00,+0.00,-5.00,+12.00
-20.00,-14.00,+2.00,+0.00,+0.00,+18.00,-11.00,-9.00,-1.00,+2.00,+2.00,-2.00,+0.00,-2.00,-1.00,-17.00
