+3.00,-2.00,+0.00,+1.00,+4.00,+0.00,-1.00,-6.00,-2.00,-8.00,-3.00,+2.00,+3.00,-2.00,-2.00,-3.00
+0.00,-7.00,-2.00,+1.00,+3.00,+5.00,+0.00,-6.00,-2.00,+7.00,-1.00,+2.00,+2.00,+1.00,+1.00,+3.00
-2.00,-3.00,-9.00,-6.00,-12.00,-4.00,+0.00,-10.00,-11.00,-3.00,-4.00,-9.00,-8.00,-5.00,-1.00,-6.00
+4.00,+4.00,+0.00,-1.00,-1.00,+0.00,+0.00,+15.00,+2.00,+1.00,+1.00,+2.00,+2.00,-1.00,-2.00,+3.00
-10.00,+3.00,-7.00,-5.00,-7.00,+0.00,+0.00,+1.00,-2.00,-8.00,-2.00,-2.00,+2.00,+0.00,+1.00,+0.00
+4.00,-9.00,+0.00,-1.00,+0.00,-4.00,+1.00,+1.00,+4.00,-2.00,-3.00,-2.00,-2.00,-2.00,-1.00,-1.00
-4.00,+6.00,+2.00,-1.00,-21.00,-2.00,-4.00,-2.00,+3.00,+0.00,-2.00,-3.00,-5.00,-1.00,-1.00,+1.00
+10.00,-9.00,+1.00,+2.00,+31.00,+4.00,+1.00,-1.00,-2.00,-2.00,+3.00,+7.00,+8.00,+0.00,+0.00,+0.00
-2.00,+11.00,+2.00,-1.00,-2.00,-1.00,+0.00,-2.00,+6.00,+13.00,+4.00,-1.00,-2.00,-3.00,-1.00,+5.00
+3.00,-12.00,-1.00,-2.00,+1.00,-3.00,+1.00,+6.00,-4.00,-23.00,-8.00,-1.00,-4.00,-3.00,+1.00,+2.00
-12.00,-16.00,+2.00,+3.00,+6.00,+3.00,+0.00,-5.00,+3.00,+34.00,+6.00,-3.00,-5.00,-2.00,-1.00,-2.00
+17.00,+46.00,+3.00,-1.00,-10.00,+0.00,-3.00,-9.00,+1.00,-1.00,-1.00,-7.00,-5.00,-3.00,-2.00,-2.00
-20.00,-13.00,-3.00,-1.00,-3.00,-2.00,-2.00,-7.00,-7.00,+2.00,+0.00,+10.00,+8.00,+3.00,+2.00,-1.00
-4.00,+19.00,+1.00,-3.00,+1.00,+0.00,+0.00,-1.00,-3.00,+0.00,+0.00,+1.00,+5.00,-1.00,-1.00,+0.00
-1.00,-5.00,-7.00,-6.00,-6.00,-11.00,-6.00,+1.00,+5.00,-16.00,-2.00,+0.00,-11.00,-2.00,-1.00,+1.00
+0.00,-2.00,+0.00,-2.00,-12.00,-4.00,-3.00,+1.00,+14.00,+4.00,-1.00,+11.00,+35.00,+0.00,+0.00,+3.00
+12.00,-1.00,-1.00,-3.00,+4.00,+6.00,+0.00,+1.00,-5.00,+2.00,-3.00,-27.00,-29.00,-4.00,-3.00,-3.00
+21.00,+4.00,+5.00,+4.00,+3.00,+0.00,-2.00,-15.00,-18.00,-2.00,-1.00,-6.00,-12.00,-2.00,-3.00,-6.00
-18.00,-6.00,-1.00,+2.00,+5.00,+4.00,-1.00,+0.00,-1.00,-9.00,-3.00,-4.00,+5.00,-4.00,-2.00,-4.00
+1.00,+2.00,+3.00,+0.00,-6.00,-2.00,-3.00,-15.00,-5.00,+8.00,-1.00,+0.00,-8.00,+0.00,+1.00,+0.00
+18.00,+3.00,+2.00,+0.00,-3.00,-2.00,+1.00,+0.00,+1.00,-1.00,+4.00,+9.00,+26.00,+2.00,+2.00,+5.00
-3.00,-8.00,+1.00,+1.00,+1.00,+0.00,-2.00,+0.00,+12.00,+7.00,+2.00,+0.00,-4.00,-4.00,-3.00,-4.00
+9.00,+17.00,+3.00,+0.00,+1.00,+2.00,-1.00,+2.00,-9.00,+2.00,-4.00,+18.00,-3.00,-1.00,-3.00,-5.00
-6.00,-15.00,-5.00,-1.00,-3.00,-2.00,-1.00,+0.00,+10.00,-14.00,-2.00,-18.00,+7.00,+2.00,-3.00,+0.00
+1.00,-4.00,-2.00,-1.00,-1.00,-1.00,-2.00,-1.00,-18.00,-11.00,-1.00,-8.00,-12.00,-4.00,-4.00,-10.00
-5.00,+20.00,+1.00,+2.00,-14.00,-5.00,-1.00,-1.00,+4.00,+25.00,+5.00,+5.00,+0.00,-2.00,-1.00,+6.00
+4.00,-21.00,-4.00,-3.00,+20.00,+4.00,-1.00,+1.00,+11.00,+5.00,+7.00,-7.00,+7.00,+0.00,-1.00,+4.00
-4.00,+13.00,+1.00,+0.00,-1.00,+4.00,+0.00,+3.00,+2.00,+4.00,-3.00,+0.00,-14.00,-3.00,-3.00,-2.00
+3.00,-16.00,-3.00,-1.00,+4.00,-1.00,+3.00,+3.00,-18.00,-21.00,-11.00,+0.00,-4.00,-2.00,-3.00,-9.00
-33.00,+20.00,-2.00,-4.00,-7.00,-3.00,-4.00,-1.00,-4.00,-5.00,+1.00,-4.00,+4.00,+0.00,+0.00,-1.00
-3.00,+14.00,+4.00,+1.00,-5.00,-2.00,-2.00,-3.00,-23.00,-17.00,-7.00,+0.00,+1.00,-2.00,-3.00,-6.00
-17.00,-4.00,-6.00,-2.00,-1.00,-1.00,+1.00,-3.00,+48.00,+27.00,+1.00,+20.00,+8.00,+2.00,+1.00,+4.00
-7.00,-8.00,+2.00,+0.00,-4.00,-3.00,-4.00,-1.00,-13.00,-3.00,+7.00,+25.00,+31.00,+3.00,+1.00,+1.00
+7.00,-14.00,-6.00,-3.00,+5.00,+3.00,+2.00,+2.00,-36.00,-36.00,-11.00,-36.00,-43.00,-11.00,-6.00,-9.00
+20.00,-2.00,-3.00,-5.00,-18.00,-9.00,-1.00,-9.00,+11.00,+14.00,-1.00,-10.00,+1.00,-1.00,+2.00,+0.00
+2.00,+2.00,-2.00,-3.00,+4.00,+11.00,+2.00,+5.00,-78.00,-26.00,-4.00,-7.00,+0.00,-2.00,-2.00,-13.00
-26.00,+5.00,+1.00,-3.00,+0.00,-2.00,-1.00,+12.00,+73.00,+17.00,-11.00,-10.00,-13.00,-7.00,-7.00,-9.00
-1.00,-10.00,+1.00,+0.00,+0.00,-3.00,-1.00,+0.00,+25.00,+23.00,+10.00,+25.00,+12.00,+4.00,+7.00,+23.00
-2.00,+9.00,+3.00,+4.00,+8.00,+4.00,+2.00,-1.00,+12.00,+26.00,+6.00,-15.00,-80.00,+2.00,+3.00,+5.00
-9.00,-12.00,-1.00,+0.00,-29.00,-7.00,-2.00,+11.00,-18.00,-74.00,-20.00,-1.00,+62.00,-9.00,-9.00,-23.00
+7.00,+0.00,-7.00,-5.00,+3.00,+0.00,-1.00,-2.00,+42.00,+52.00,+20.00,+46.00,+11.00,+8.00,+12.00,+43.00
+11.00,-10.00,-2.00,-4.00,-8.00,-5.00,-2.00,+2.00,-13.00,+5.00,-8.00,-67.00,-73.00,-13.00,-8.00,-14.00
-9.00,+5.00,+0.00,-1.00,+9.00,+2.00,-2.00,+4.00,+37.00,-6.00,-2.00,-4.00,+32.00,-2.00,+0.00,+6.00
+2.00,+10.00,+0.00,+4.00,+24.00,+6.00,+9.00,+0.00,-31.00,+22.00,+1.00,-10.00,-21.00,-1.00,-4.00,-8.00
-1.00,-23.00,-2.00,+1.00,+5.00,+3.00,-5.00,-3.00,-71.00,-57.00,-14.00,+17.00,+27.00,+0.00,-7.00,-18.00
+4.00,+30.00,-2.00,-5.00,-9.00,-6.00,-4.00,+1.00,+38.00,+24.00,-2.00,-17.00,+1.00,-3.00,-1.00,+4.00
+0.00,+1.00,+5.00,+3.00,-6.00,+0.00,+0.00,-5.00,-48.00,-34.00,-4.00,+16.00,+9.00,+3.00,-2.00,-8.00
-6.00,-27.00,-1.00,+2.00,-1.00,-3.00,-3.00,-3.00,+23.00,-16.00,-9.00,-23.00,-38.00,-4.00,+1.00,-1.00
+13.00,+11.00,+0.00,+0.00,-6.00,+2.00,+2.00,-8.00,-26.00,-1.00,-13.00,-27.00,+5.00,-9.00,-11.00,-22.00
-6.00,-12.00,-4.00,-2.00,-7.00,+0.00,+1.00,-3.00,-30.00,-7.00,+7.00,+28.00,+16.00,+8.00,+1.00,-4.00
-29.00,-14.00,+1.00,-2.00,-15.00,-11.00,-7.00,-3.00,+13.00,-1.00,-7.00,-3.00,+22.00,+1.00,+5.00,+15.00
+10.00,+6.00,-2.00,-3.00,+24.00,+4.00,+1.00,-5.00,-6.00,-19.00,+6.00,+9.00,-6.00,+1.00,+5.00,+18.00
+4.00,+5.00,-3.00,-2.00,-29.00,-5.00,+2.00,+6.00,+12.00,+19.00,+2.00,-2.00,-17.00,-1.00,-1.00,-4.00
+42.00,-4.00,+10.00,+9.00,+32.00,+5.00,-3.00,-2.00,+30.00,+18.00,+1.00,+11.00,+13.00,+6.00,+3.00,+5.00
-4.00,+16.00,-9.00,-10.00,-2.00,+8.00,+4.00,+18.00,-20.00,-20.00,+0.00,+12.00,-41.00,+7.00,+5.00,+7.00
-8.00,-1.00,+2.00,-3.00,-14.00,-10.00,-4.00,+1.00,+34.00,+10.00,+4.00,-26.00,-7.00,-7.00,-4.00,-5.00
-5.00,+13.00,+4.00,+4.00,+6.00,-1.00,+0.00,+1.00,-36.00,-3.00,-3.00,-20.00,-15.00,-7.00,+2.00,+1.00
-9.00,-32.00,-6.00,-4.00,-10.00,-2.00,-4.00,-8.00,+34.00,+0.00,-1.00,+23.00,+43.00,+8.00,-4.00,-14.00
-5.00,-27.00,-4.00,-3.00,-37.00,-29.00,-5.00,-12.00,-2.00,-15.00,+1.00,+21.00,+36.00,+10.00,+3.00,+12.00
+9.00,-25.00,-13.00,-11.00,-17.00,-4.00,-3.00,-4.00,-44.00,-6.00,-9.00,+0.00,-48.00,+6.00,+7.00,-6.00
+11.00,+27.00,+11.00,+7.00,+42.00,+16.00,+23.00,+14.00,+43.00,-3.00,+10.00,-23.00,+3.00,-29.00,-11.00,+2.00
+11.00,+27.00,+3.00,+4.00,+16.00,+17.00,-25.00,+3.00,-29.00,-13.00,-8.00,-2.00,+9.00,+1.00,+3.00,+2.00
+10.00,+16.00,+0.00,+3.00,-22.00,+3.00,+1.00,-3.00,-20.00,-7.00,-1.00,-6.00,+11.00,-7.00,-6.00,-14.00
-30.00,-59.00,-10.00,-11.00,+13.00,-1.00,-13.00,-7.00,+3.00,+29.00,+20.00,+35.00,+43.00,-11.00,-4.00,+17.00
+13.00,+55.00,+9.00,-1.00,-34.00,-1.00,+2.00,-7.00,+10.00,+17.00,-3.00,-33.00,-27.00,+33.00,+5.00,-9.00
-13.00,-36.00,-7.00,-1.00,+18.00,-18.00,+8.00,+5.00,-82.00,-44.00,-12.00,+5.00,-19.00,-25.00,-9.00,-34.00
-5.00,+39.00,-2.00,-3.00,+18.00,+3.00,+3.00,-1.00,+10.00,+17.00,+7.00,-4.00,+21.00,+2.00,-4.00,-2.00
+17.00,-26.00,+12.00,-1.00,-59.00,-47.00,-13.00,-4.00,+56.00,+13.00,+6.00,+8.00,+23.00,+14.00,+10.00,+18.00
+21.00,+13.00,+2.00,+9.00,+75.00,+26.00,+4.00,+5.00,-10.00,+19.00,-1.00,+8.00,+14.00,+1.00,+3.00,+13.00
-27.00,-26.00,+1.00,+1.00,-17.00,+22.00,+10.00,+18.00,+5.00,+7.00,+7.00,+23.00,+58.00,+2.00,-13.00,+7.00
+17.00,+52.00,-2.00,-3.00,+19.00,+11.00,+5.00,+5.00,-44.00,-4.00,-5.00,-25.00,-24.00,+5.00,-1.00,-14.00
+3.00,+3.00,+4.00,-4.00,-61.00,+14.00,+4.00,+8.00,-40.00,-21.00,-19.00,-19.00,-41.00,-10.00,-8.00,-25.00
+21.00,-6.00,-1.00,+0.00,+62.00,-34.00,-14.00,-19.00,-15.00,-17.00,-4.00,+2.00,-1.00,-5.00,-6.00,+7.00
-6.00,-71.00,-9.00,-3.00,-33.00,-17.00,+13.00,+0.00,-32.00,-15.00,-5.00,+13.00,+23.00,+13.00,+2.00,+4.00
+12.00,+54.00,+13.00,+2.00,+38.00,-21.00,-16.00,+7.00,+33.00,+35.00,+14.00,+4.00,-44.00,-1.00,+5.00,+8.00
-23.00,+23.00,-13.00,-4.00,+27.00,+25.00,+1.00,-14.00,+46.00,-13.00,-5.00,+3.00,+52.00,-2.00,-8.00,-13.00
-3.00,-12.00,-5.00,-5.00,-48.00,-24.00,-12.00,+2.00,+42.00,+6.00,+4.00,-23.00,-73.00,-5.00,+8.00,+10.00
+3.00,-18.00,+0.00,-4.00,+2.00,+13.00,+11.00,+2.00,-5.00,+4.00,-2.00,-10.00,-8.00,+5.00,-2.00,+9.00
-16.00,-87.00,-5.00,+2.00,-8.00,+15.00,+3.00,-9.00,-2.00,-10.00,-11.00,-3.00,-5.00,-12.00,+2.00,-2.00
+16.00,+90.00,+11.00,+5.00,-1.00,+2.00,+1.00,+2.00,-22.00,-20.00,-11.00,+6.00,+7.00,+2.00,-9.00,-11.00
-20.00,+9.00,-5.00,-6.00,-25.00,-7.00,-4.00,-8.00,+21.00,+43.00,+13.00,+10.00,-19.00,+3.00,+17.00,+37.00
-4.00,-3.00,+0.00,-3.00,-23.00,+11.00,+0.00,+1.00,-4.00,-48.00,+5.00,+21.00,+87.00,+11.00,+2.00,-14.00
+11.00,-49.00,+4.00,+13.00,+57.00,+27.00,+6.00,+2.00,+15.00,-26.00,-7.00,-14.00,+20.00,+8.00,-5.00,+0.00
-4.00,+21.00,-1.00,+5.00,+26.00,-11.00,+2.00,-2.00,+8.00,+25.00,+5.00,-8.00,-58.00,-4.00,-4.00,-7.00
-10.00,-29.00,-14.00,-10.00,-33.00,+14.00,-1.00,+0.00,+27.00,+41.00,+9.00,+39.00,+82.00,+13.00,+14.00,+15.00
-15.00,-11.00,+5.00,+0.00,-25.00,+1.00,+1.00,-1.00,+0.00,-14.00,+1.00,-5.00,-74.00,-2.00,+9.00,+24.00
+35.00,+64.00,-3.00,-6.00,-28.00,+44.00,+13.00,+14.00,+49.00,+34.00,+0.00,-17.00,+41.00,-4.00,-6.00,+28.00
+10.00,+49.00,+12.00,+8.00,+28.00,-51.00,-51.00,-3.00,-92.00,-32.00,-15.00,-30.00,-35.00,-28.00,-12.00,-32.00
-6.00,-41.00,-6.00,-1.00,+40.00,+4.00,-4.00,+3.00,+43.00,+9.00,+2.00,-7.00,+2.00,-8.00,-16.00,-5.00
+16.00,-5.00,-10.00,-6.00,+28.00,+56.00,-12.00,-21.00,-59.00,-22.00,-12.00,-1.00,-32.00,+24.00,+8.00,-22.00
-6.00,-24.00,+2.00,-2.00,-60.00,+20.00,+31.00,+1.00,+31.00,+36.00,+15.00,+23.00,-15.00,-3.00,+3.00,-5.00
+12.00,-7.00,-10.00,-1.00,+58.00,+15.00,-20.00,+9.00,+31.00,+9.00,-3.00,+9.00,+25.00,+9.00,-14.00,-33.00
-36.00,-48.00,-3.00,-8.00,-40.00,+11.00,+11.00,+1.00,-42.00,-47.00,-16.00,-21.00,+29.00,-3.00,+2.00,+1.00
+4.00,+123.00,+11.00,+5.00,+11.00,+5.00,-32.00,-1.00,+16.00,+25.00,+10.00,+0.00,+10.00,-9.00,+18.00,+66.00
-2.00,-12.00,-2.00,-1.00,+5.00,+48.00,-13.00,+3.00,+14.00,-14.00,-10.00,-6.00,-33.00,-10.00,-6.00,-11.00
+11.00,+15.00,+2.00,+2.00,-26.00,-98.00,+30.00,+22.00,-49.00,-2.00,+5.00,+4.00,+21.00,+14.00,+8.00,+18.00
+9.00,-21.00,+2.00,+2.00,-26.00,-5.00,-8.00,-10.00,+10.00,-8.00,+3.00,+15.00,-19.00,-6.00,+3.00,-4.00
+5.00,-9.00,-7.00,-4.00,+20.00,-29.00,+9.00,+10.00,+42.00,+4.00,-5.00,-2.00,-10.00,-12.00,-17.00,-26.00
-16.00,+4.00,-10.00,-7.00,+12.00,+40.00,-1.00,-8.00,-35.00,-25.00,-4.00,-14.00,+4.00,-1.00,-6.00,-24.00
-31.00,-36.00,-7.00,-2.00,-20.00,-9.00,-11.00,-17.00,+52.00,+12.00,+1.00,+6.00,-14.00,+4.00,+13.00,+37.00
-18.00,-63.00,-5.00,-5.00,-25.00,-13.00,+1.00,+0.00,-57.00,-48.00,-14.00,+10.00,+20.00,-11.00,-11.00,-34.00
+19.00,+45.00,+15.00,+9.00,+4.00,-75.00,+39.00,+32.00,+1.00,+44.00,+9.00,-32.00,-44.00,-12.00,-16.00,-18.00
-14.00,+28.00,-2.00,-4.00,-28.00,+50.00,-42.00,-13.00,-19.00,-14.00,-9.00,+15.00,+59.00,+0.00,-3.00,+11.00
+17.00,-44.00,+7.00,+11.00,+59.00,+98.00,+21.00,-4.00,+37.00,+36.00,+19.00,+3.00,-32.00,+4.00,+10.00,+20.00
+11.00,+35.00,-11.00,-7.00,-33.00,+46.00,-16.00,-9.00,-27.00,-14.00,-14.00,-28.00,+9.00,-9.00,+8.00,-37.00
-27.00,+30.00,-2.00,-5.00,-7.00,-11.00,-3.00,+7.00,+10.00,+12.00,-5.00,-9.00,-19.00,-4.00,-14.00,-9.00
-33.00,-45.00,-5.00,-3.00,-9.00,-106.00,-11.00,-13.00,-47.00,-31.00,-6.00,+15.00,-6.00,-7.00,+12.00,+8.00
+26.00,-114.00,+4.00,+6.00,-1.00,+77.00,+19.00,+1.00,+6.00,+12.00,+8.00,-23.00,-2.00,+9.00,-9.00,+23.00
+4.00,+83.00,+13.00,+3.00,-12.00,-36.00,-35.00,+4.00,-26.00,+9.00,+5.00,+2.00,+35.00,-16.00,+0.00,+10.00
+34.00,-13.00,-6.00,+0.00,+22.00,-17.00,+84.00,+14.00,+12.00,-7.00,-5.00,+4.00,+11.00,+16.00,+8.00,-21.00
+0.00,+0.00,+4.00,+7.00,+33.00,-55.00,+13.00,+1.00,+20.00,+7.00,+1.00,-11.00,+10.00,+5.00,-1.00,-21.00
-15.00,+29.00,+3.00,-7.00,-76.00,+19.00,-22.00,-19.00,+7.00,+7.00,+3.00,+15.00,-3.00,+6.00,+2.00,+9.00
-23.00,-77.00,-3.00,-2.00,+10.00,+67.00,-11.00,-15.00,-54.00,-22.00,-10.00,+3.00,-26.00,+19.00,-3.00,-26.00
+27.00,+40.00,+11.00,+4.00,+9.00,-37.00,+31.00,+1.00,-38.00,+20.00,-4.00,-7.00,+11.00,-13.00,-9.00,-16.00
+53.00,-37.00,-1.00,+7.00,+56.00,-98.00,+49.00,+6.00,-26.00,-3.00,+4.00,+12.00,-7.00,+0.00,-11.00,+5.00
-12.00,+59.00,-7.00,-6.00,-20.00,-49.00,-1.00,-2.00,+15.00,-13.00,-3.00,+1.00,-13.00,+3.00,+10.00,+15.00
-9.00,+3.00,-4.00,-7.00,+5.00,-24.00,-31.00,-5.00,-14.00,-6.00,+0.00,-6.00,-30.00,-2.00,-6.00,-10.00
-18.00,-18.00,-8.00,+0.00,-50.00,+1.00,-49.00,-22.00,+50.00,+12.00,+10.00,+21.00,+10.00,-5.00,+5.00,+20.00
-15.00,-6.00,+0.00,-7.00,-19.00,+112.00,-13.00,+6.00,-38.00,-20.00,-9.00,-20.00,-51.00,-4.00,-10.00,-29.00
-7.00,+48.00,+13.00,+3.00,+48.00,-68.00,+35.00,+31.00,-35.00,+29.00,-1.00,-17.00,-5.00,-8.00,+0.00,-13.00
-6.00,+12.00,+4.00,+11.00,+35.00,-34.00,+16.00,-49.00,+82.00,+7.00,+4.00,+2.00,+14.00,+2.00,+1.00,+44.00
-18.00,-85.00,-14.00,-7.00,+10.00,+0.00,-27.00,-15.00,-92.00,-47.00,-6.00,+12.00,-2.00,+7.00,-1.00,-23.00
+2.00,+76.00,+13.00,-2.00,-13.00,+34.00,-1.00,+14.00,+71.00,+46.00,+8.00,-2.00,-18.00,-10.00,+2.00,+0.00
-13.00,+13.00,-6.00,-2.00,-12.00,+23.00,+6.00,-7.00,-39.00,-35.00,-8.00,+5.00,+32.00,-10.00,-8.00,-12.00
-21.00,+29.00,-11.00,-9.00,-33.00,-4.00,-9.00,+11.00,-36.00,+59.00,+12.00,+2.00,-22.00,+7.00,-11.00,-5.00
+8.00,+2.00,+9.00,+8.00,+17.00,-32.00,-1.00,-5.00,+78.00,-9.00,-6.00,-2.00,+17.00,-1.00,+12.00,+15.00
-27.00,-128.00,-12.00,+3.00,-13.00,+11.00,-33.00,-11.00,-23.00,-37.00,-10.00,+2.00,-4.00,+2.00,+2.00,+7.00
-3.00,+40.00,-8.00,-11.00,-38.00,-71.00,-46.00,+12.00,-20.00,+3.00,+0.00,-9.00,-22.00,+1.00,+14.00,-30.00
+37.00,+56.00,+20.00,+13.00,+60.00,+87.00,+52.00,+14.00,-49.00,-19.00,-4.00,+1.00,+0.00,-6.00,-33.00,+4.00
-2.00,-11.00,-5.00,-6.00,-22.00,+12.00,+31.00,-11.00,+39.00,+6.00,-3.00,-21.00,-40.00,-18.00,-5.00,-6.00
+6.00,+11.00,+9.00,+2.00,-15.00,-128.00,-39.00,-14.00,+12.00,+18.00,+2.00,+1.00,+20.00,+10.00,-9.00,+21.00
-66.00,-28.00,-14.00,-6.00,+18.00,+61.00,-25.00,+19.00,-50.00,+30.00,+1.00,+15.00,+6.00,+11.00,-4.00,-18.00
+11.00,-68.00,-6.00,+1.00,+1.00,-21.00,+20.00,+8.00,+21.00,+14.00,+7.00,-16.00,-86.00,+10.00,+10.00,-15.00
-27.00,-25.00,-13.00,-14.00,-10.00,+79.00,-36.00,+20.00,+28.00,-16.00,-5.00,-16.00,+67.00,-7.00,-3.00,+17.00
+20.00,+49.00,+2.00,+1.00,+33.00,+87.00,-12.00,-3.00,+33.00,-8.00,-4.00,-7.00,+9.00,+1.00,+7.00,+16.00
+22.00,-76.00,+3.00,+11.00,-10.00,-29.00,+66.00,+11.00,-15.00,-42.00,-6.00,+5.00,+6.00,-12.00,-6.00,-8.00
-3.00,+1.00,+0.00,-4.00,-31.00,-10.00,-15.00,+11.00,-55.00,-91.00,-17.00,+8.00,+0.00,-2.00,-1.00,-7.00
-6.00,+43.00,-7.00,-3.00,+46.00,+84.00,+15.00,+3.00,+67.00,+115.00,+30.00,+23.00,-7.00,+14.00,+4.00,+19.00
-9.00,-38.00,-20.00,-9.00,-33.00,-60.00,-52.00,-22.00,-31.00,-14.00,-10.00,-19.00,-18.00,-5.00,-5.00,-49.00
+42.00,+4.00,+6.00,+5.00,+8.00,+56.00,+61.00,+0.00,-23.00,-12.00,-2.00,+13.00,+49.00,+11.00,-3.00,+29.00
-20.00,+22.00,-6.00,-8.00,-14.00,-32.00,+4.00,+0.00,+95.00,+24.00,+5.00,+6.00,-3.00,-3.00,+9.00,+2.00
+0.00,-22.00,-3.00,-4.00,-26.00,-76.00,-12.00,+1.00,-70.00,-76.00,-23.00,-15.00,-39.00,-19.00,-9.00,-19.00
+18.00,+24.00,+8.00,+5.00,+38.00,+41.00,+42.00,+18.00,-23.00,+7.00,+6.00,+17.00,+86.00,+11.00,+9.00,-8.00
+7.00,-27.00,+0.00,+7.00,+25.00,+11.00,-17.00,-9.00,+6.00,+27.00,+4.00,+4.00,+6.00,+0.00,-26.00,-10.00
+3.00,+11.00,+0.00,-2.00,-15.00,-12.00,+4.00,-8.00,-16.00,-39.00,-9.00,-23.00,-44.00,-22.00,-4.00,-16.00
+37.00,+47.00,+1.00,+0.00,-11.00,-84.00,-27.00,-24.00,-27.00,+2.00,-5.00,-10.00,-15.00,-15.00,-11.00,-6.00
-50.00,-38.00,-7.00,-6.00,+27.00,+35.00,+29.00,+29.00,-16.00,-17.00,-2.00,+8.00,-21.00,+19.00,+18.00,+12.00
-14.00,+3.00,+15.00,+7.00,-8.00,-7.00,-4.00,-10.00,+6.00,+26.00,+7.00,-15.00,-32.00,-15.00,+6.00,+5.00
+56.00,+34.00,-1.00,-3.00,-21.00,-68.00,-23.00,+0.00,+72.00,+20.00,+3.00,+0.00,+44.00,+4.00,-3.00,+34.00
+16.00,-12.00,+5.00,+4.00,+34.00,+11.00,-16.00,-9.00,+1.00,-7.00,+4.00,+13.00,-18.00,-2.00,+3.00,+4.00
+32.00,-4.00,+2.00,-1.00,-19.00,+54.00,+23.00,+6.00,-4.00,-30.00,-14.00,-3.00,+8.00,-6.00,-11.00,+0.00
-13.00,+51.00,-9.00,-9.00,-10.00,-7.00,-15.00,-19.00,+27.00,+30.00,+6.00,-1.00,-16.00,-6.00,+4.00,-5.00
-15.00,-36.00,+0.00,+4.00,+11.00,-24.00,+2.00,+17.00,-75.00,-25.00,-5.00,+9.00,+16.00,+8.00,+8.00,+9.00
-24.00,-40.00,-8.00,-6.00,-32.00,-18.00,-17.00,-16.00,+21.00,-6.00,-5.00,+2.00,+0.00,-4.00,+5.00,-17.00
-2.00,+19.00,-5.00,-2.00,+4.00,+60.00,-5.00,-17.00,-67.00,-9.00,-4.00,-6.00,-10.00,-16.00,-24.00,-15.00
+11.00,+21.00,-5.00,-9.00,-12.00,-25.00,+24.00,+24.00,+6.00,-78.00,-16.00,-8.00,+10.00,-9.00,+1.00,-9.00
-9.00,-1.00,-5.00,-4.00,+8.00,+19.00,+18.00,-2.00,+16.00,+56.00,+9.00,+37.00,-14.00,+8.00,+1.00,-11.00
-13.00,-20.00,+4.00,+9.00,+17.00,-23.00,-38.00,+14.00,+38.00,+14.00,-2.00,-30.00,-23.00,-6.00,-4.00,+7.00
+11.00,+56.00,+0.00,-2.00,-47.00,-55.00,+39.00,-9.00,-31.00,-16.00,-7.00,-10.00,-18.00,-13.00,+0.00,-13.00
+12.00,-2.00,-5.00,-3.00,+12.00,-37.00,-32.00,+7.00,+72.00,+33.00,+5.00,-4.00,+40.00,+7.00,+2.00,+3.00
+5.00,-49.00,+8.00,+10.00,+41.00,+18.00,-5.00,-19.00,-49.00,-44.00,-7.00,-12.00,-8.00,-7.00,-11.00,-17.00
-20.00,+7.00,+1.00,-1.00,-6.00,+44.00,-6.00,+2.00,-29.00,-45.00,-12.00,-3.00,+20.00,+12.00,+8.00,+18.00
-64.00,-25.00,-3.00,+8.00,+5.00,-63.00,-20.00,-24.00,+69.00,+90.00,+19.00,-2.00,-32.00,-9.00,-5.00,-11.00
+17.00,+94.00,-7.00,-14.00,-32.00,+13.00,-7.00,+4.00,-82.00,-67.00,-9.00,-3.00,-7.00,-3.00,-2.00,+8.00
-3.00,-73.00,-8.00,-6.00,-4.00,+52.00,+31.00,+40.00,+12.00,+50.00,-6.00,-2.00,+13.00,+4.00,+2.00,-4.00
-5.00,-3.00,-5.00,-6.00,-4.00,-14.00,-1.00,-9.00,-84.00,-21.00,+1.00,+4.00,+7.00,+0.00,-8.00,-26.00
+20.00,+30.00,-7.00,-13.00,-37.00,+91.00,-2.00,+11.00,+57.00,+6.00,-6.00,-8.00,+7.00,-8.00,+1.00,+20.00
-21.00,-74.00,-1.00,+7.00,+17.00,-10.00,-9.00,-38.00,-58.00,+31.00,+15.00,+26.00,-3.00,+10.00,+14.00,+12.00
+5.00,+43.00,+2.00,+1.00,+4.00,+11.00,-16.00,+10.00,+81.00,-46.00,-5.00,-15.00,+14.00,+2.00,+2.00,+7.00
+8.00,+64.00,+12.00,+0.00,-27.00,+22.00,-2.00,+5.00,+0.00,+29.00,+12.00,+5.00,+5.00,+2.00,-6.00,-19.00
-16.00,-97.00,-8.00,+4.00,+28.00,-35.00,+41.00,+9.00,+9.00,-29.00,+0.00,-4.00,-4.00,-1.00,+2.00,+14.00
-2.00,-6.00,+4.00,-3.00,-19.00,-65.00,+29.00,-5.00,+73.00,-11.00,-15.00,-2.00,-12.00,-12.00,-4.00,+0.00
+12.00,+24.00,-4.00,-5.00,-7.00,-8.00,+0.00,-1.00,-67.00,-28.00,-6.00,+8.00,-70.00,+13.00,-1.00,-10.00
-43.00,-67.00,-15.00,-9.00,-23.00,-53.00,-33.00,-16.00,+44.00,+7.00,-5.00,-24.00,-15.00,-11.00,-2.00,+17.00
+70.00,+79.00,+25.00,+12.00,+21.00,+0.00,+10.00,+30.00,+15.00,+46.00,+16.00,+13.00,+16.00,+28.00,+13.00,-3.00
-4.00,+11.00,+1.00,+5.00,+16.00,-12.00,-12.00,-2.00,-24.00,-75.00,-19.00,-1.00,-21.00,-25.00,-19.00,-8.00
+22.00,+34.00,+4.00,+3.00,-38.00,-36.00,-1.00,-22.00,+50.00,+67.00,+15.00,-20.00,-6.00,-18.00,+30.00,+16.00
+18.00,-30.00,+1.00,-2.00,-17.00,-2.00,+38.00,+13.00,-33.00,-75.00,-13.00,+23.00,+4.00,-11.00,-24.00,-5.00
-6.00,-16.00,+3.00,-3.00,-2.00,-57.00,-47.00,-17.00,+61.00,+81.00,+14.00,-33.00,-36.00,-17.00,-5.00,+13.00
-12.00,-5.00,-2.00,-4.00,-2.00,+69.00,-28.00,-8.00,+2.00,+73.00,+10.00,+11.00,+13.00,+36.00,+12.00,-6.00
-13.00,-26.00,-2.00,+2.00,-16.00,-40.00,+30.00,+7.00,+21.00,-70.00,-15.00,+1.00,+29.00,+8.00,+1.00,+22.00
-11.00,+61.00,+0.00,+0.00,+18.00,-64.00,-19.00,-8.00,-94.00,-7.00,-6.00,-5.00,-7.00,+8.00,+8.00,-10.00
+27.00,+73.00,+17.00,+10.00,+9.00,+28.00,+10.00,+6.00,-88.00,-86.00,-4.00,+21.00,+37.00,+3.00,+5.00,-4.00
-2.00,-58.00,-11.00,-9.00,-27.00,-58.00,+12.00,-8.00,+49.00,+93.00,+15.00,+0.00,-4.00,-3.00,-4.00,+3.00
-20.00,-20.00,-3.00,-2.00,-14.00,-17.00,-31.00,-11.00,+114.00,+31.00,+6.00,+2.00,+20.00,-1.00,+0.00,+10.00
-8.00,-40.00,+0.00,+2.00,-2.00,+120.00,+12.00,-7.00,-16.00,+12.00,-3.00,+5.00,+32.00,+6.00,+4.00,+8.00
-3.00,+1.00,-4.00,+4.00,+68.00,-105.00,-13.00,-9.00,-4.00,-19.00,-10.00,-6.00,-21.00,-10.00,-10.00,-5.00
-11.00,+13.00,+1.00,-4.00,+16.00,-83.00,-16.00,-3.00,-49.00,-117.00,-14.00,-6.00,-25.00,-9.00,-2.00,-8.00
-21.00,-48.00,-18.00,-10.00,-36.00,-9.00,-18.00,-6.00,-61.00,+97.00,+2.00,-8.00,-33.00,-5.00,-9.00,-11.00
+15.00,-6.00,+8.00,+13.00,+35.00,-31.00,+15.00,+9.00,+13.00,+41.00,+5.00,+4.00,+52.00,-11.00,+2.00,+0.00
-3.00,+35.00,+4.00,-3.00,-29.00,-14.00,-18.00,-17.00,-66.00,-95.00,-26.00,-16.00,-28.00,-10.00,-12.00,-31.00
+4.00,-94.00,-4.00,+1.00,-2.00,+90.00,+1.00,+3.00,+39.00,+12.00,+20.00,+47.00,+73.00,+14.00,+14.00,+30.00
-14.00,-13.00,+9.00,+4.00,+16.00,-16.00,+0.00,+11.00,-41.00,+21.00,+10.00,-50.00,-68.00,+6.00,-2.00,+13.00
-13.00,+28.00,-8.00,-9.00,-18.00,+26.00,-4.00,-25.00,+98.00,+102.00,+9.00,+16.00,+41.00,-7.00,+51.00,+14.00
+46.00,-65.00,+12.00,+7.00,-6.00,+13.00,+24.00,+34.00,-97.00,-54.00,-12.00,-6.00,+53.00,-33.00,-84.00,-5.00
-22.00,+59.00,+1.00,-4.00,-6.00,+24.00,-24.00,-18.00,+113.00,+13.00,-5.00,-5.00,-2.00,+21.00,+7.00,-8.00
+72.00,+5.00,+5.00,+8.00,+12.00,+20.00,+5.00,-2.00,-110.00,-72.00,-21.00,-25.00,-28.00,-6.00,-44.00,-33.00
-31.00,+72.00,+24.00,+12.00,+28.00,+20.00,+5.00,-11.00,+42.00,-66.00,+20.00,+2.00,-25.00,+25.00,+37.00,+31.00
-48.00,-109.00,-35.00,-21.00,-31.00,-34.00,-42.00,-14.00,+43.00,+127.00,+20.00,+20.00,+21.00,-13.00,+11.00,+4.00
+5.00,+11.00,+8.00,+0.00,-38.00,-42.00,+33.00,+7.00,+44.00,-25.00,-11.00,-15.00,-17.00,+16.00,+9.00,+8.00
+2.00,+14.00,+17.00,+17.00,+76.00,+33.00,+0.00,+1.00,-64.00,-10.00,+2.00,+23.00,+51.00,-3.00,-11.00,-10.00
+24.00,-26.00,-10.00,-7.00,-30.00,-53.00,-40.00,-7.00,-54.00,-67.00,-17.00,-21.00,-32.00,+6.00,-18.00,-13.00
-53.00,+0.00,-19.00,-15.00,-11.00,-32.00,+34.00,-24.00,+6.00,+35.00,-2.00,+20.00,+18.00,+8.00,+23.00,+2.00
+38.00,-81.00,+3.00,+18.00,+65.00,+0.00,+36.00,+23.00,-31.00,+73.00,-1.00,-6.00,-9.00,-17.00,-19.00,-19.00
-36.00,+62.00,-15.00,-19.00,-40.00,-30.00,+4.00,-16.00,+5.00,+59.00,+13.00,+11.00,+18.00,-1.00,+23.00,+16.00
+47.00,-23.00,+18.00,+12.00,+61.00,+73.00,+72.00,+36.00,-32.00,-13.00,+6.00,+8.00,-2.00,-4.00,-20.00,-7.00
+15.00,-8.00,-17.00,-10.00,-45.00,-47.00,-49.00,-13.00,+38.00,+13.00,+2.00,+36.00,+42.00,+27.00,+18.00,+11.00
-12.00,+69.00,+12.00,+1.00,-12.00,+26.00,-21.00,-2.00,-33.00,-65.00,-18.00,-59.00,-107.00,-13.00,-4.00,-19.00
+21.00,+3.00,+2.00,+6.00,+19.00,+10.00,+16.00,+18.00,+25.00,+58.00,+19.00,+16.00,+79.00,-19.00,-4.00,+8.00
-15.00,-74.00,-30.00,-17.00,-38.00,-15.00,-27.00,-2.00,-19.00,+67.00,-15.00,+12.00,-28.00,+11.00,-14.00,-15.00
-39.00,-74.00,+7.00,-1.00,-10.00,+16.00,+2.00,-2.00,+17.00,-20.00,-12.00,-19.00,-27.00,-29.00,+3.00,+18.00
+43.00,+10.00,+15.00,+15.00,+12.00,+34.00,-3.00,+12.00,-41.00,-4.00,+8.00,+28.00,+24.00,+24.00,+27.00,-17.00
-63.00,-42.00,-26.00,-19.00,-14.00,-9.00,-50.00,-17.00,+81.00,+20.00,+5.00,-48.00,-54.00,-35.00,-29.00,-6.00
+22.00,+94.00,+5.00,+1.00,-10.00,+28.00,+12.00,+7.00,-14.00,-51.00,-25.00,-40.00,-22.00,-20.00,-23.00,+11.00
+5.00,+69.00,+6.00,-2.00,+3.00,-8.00,-5.00,-5.00,+78.00,+88.00,+0.00,-2.00,-27.00,+6.00,+12.00,+10.00
-11.00,+8.00,-18.00,-13.00,-13.00,-4.00,+6.00,-13.00,-12.00,+42.00,+3.00,+7.00,+21.00,-17.00,-18.00,-7.00
-7.00,+101.00,+21.00,+3.00,+4.00,-15.00,-34.00,+3.00,+37.00,-69.00,-7.00,+23.00,+6.00,+21.00,+25.00,+16.00
+14.00,-60.00,-17.00,-3.00,+10.00,+8.00,+12.00,-12.00,+127.00,-16.00,+19.00,+25.00,+29.00,+13.00,+6.00,+18.00
-2.00,-12.00,+4.00,+0.00,-46.00,-6.00,-8.00,-1.00,-26.00,+8.00,+14.00,-11.00,-29.00,+3.00,-4.00,-23.00
-21.00,+7.00,-13.00,-2.00,+33.00,+15.00,-92.00,-12.00,+28.00,-13.00,+0.00,+4.00,+48.00,-7.00,-3.00,-1.00
+21.00,-97.00,+8.00,+1.00,+4.00,-30.00,+53.00,+5.00,+35.00,+8.00,-4.00,+10.00,+21.00,+13.00,+16.00,+19.00
-4.00,+10.00,+1.00,-2.00,-20.00,+3.00,-28.00,+10.00,-34.00,+2.00,-8.00,+12.00,+23.00,-21.00,-31.00,-26.00
+23.00,+127.00,+12.00,+4.00,+11.00,+19.00,+14.00,+7.00,-67.00,-111.00,-1.00,-48.00,-92.00,+26.00,+67.00,+5.00
-37.00,-124.00,-22.00,-2.00,+51.00,+62.00,-22.00,-10.00,+39.00,+104.00,+25.00,+16.00,-6.00,-18.00,-10.00,+12.00
+33.00,-13.00,+14.00,+11.00,+15.00,+18.00,-9.00,-10.00,-85.00,+11.00,+2.00,+17.00,+31.00,+24.00,-35.00,-17.00
-34.00,-21.00,-36.00,-17.00,-21.00,-4.00,-15.00,-20.00,+30.00,-10.00,+3.00,+7.00,+3.00,-3.00,+35.00,-3.00
+8.00,-58.00,+21.00,+7.00,+15.00,+4.00,+10.00,+7.00,-25.00,+17.00,-24.00,-34.00,-35.00,-2.00,+2.00,-43.00
-39.00,+127.00,+21.00,-5.00,-26.00,+2.00,+11.00,-14.00,-84.00,-84.00,-9.00,+4.00,+11.00,+12.00,+23.00,+60.00
-3.00,-58.00,-13.00,+1.00,+20.00,-1.00,-8.00,+10.00,-12.00,-91.00,+0.00,+27.00,+110.00,+1.00,-9.00,+2.00
-2.00,+40.00,+10.00,-1.00,-22.00,-5.00,+26.00,+16.00,+46.00,+66.00,+2.00,-25.00,-67.00,-13.00,+0.00,+10.00
-19.00,-60.00,-23.00,-7.00,-21.00,-10.00,-16.00,-7.00,+13.00,-85.00,-13.00,-2.00,+9.00,+11.00,-2.00,-10.00
+36.00,+42.00,+7.00,-1.00,+7.00,+23.00,+17.00,+5.00,-95.00,-102.00,-7.00,-20.00,+4.00,-19.00,-36.00,-31.00
-9.00,+8.00,+13.00,+3.00,-9.00,+5.00,+5.00,+8.00,-40.00,+27.00,-20.00,+56.00,+52.00,-3.00,-7.00,-16.00
-12.00,-81.00,-4.00,-4.00,-79.00,-83.00,-10.00,-1.00,-91.00,-83.00,-10.00,-33.00,-13.00,+2.00,-13.00,-15.00
-25.00,-28.00,-10.00,-2.00,+17.00,+41.00,-25.00,-15.00,+62.00,+64.00,+44.00,+31.00,-17.00,-2.00,+1.00,+20.00
+45.00,+58.00,+25.00,+21.00,+16.00,+47.00,-40.00,+59.00,-31.00,-8.00,-5.00,+53.00,+48.00,+10.00,-8.00,-24.00
-13.00,-41.00,-22.00,-13.00,-81.00,-84.00,+14.00,-3.00,+7.00,-108.00,-37.00,-84.00,-127.00,-11.00,+27.00,+37.00
-22.00,+2.00,+23.00,+12.00,+30.00,+2.00,-14.00,-9.00,-106.00,-43.00,-4.00,-25.00,-22.00,+7.00,-7.00,-35.00
+5.00,+64.00,+4.00,+2.00,-7.00,+6.00,-8.00,+0.00,+23.00,-21.00,-18.00,-10.00,+14.00,-25.00,-23.00,+6.00
-16.00,-128.00,-3.00,+11.00,+60.00,-39.00,+60.00,+14.00,+47.00,+74.00,+5.00,+2.00,+2.00,+23.00,+25.00,+4.00
-62.00,-33.00,-45.00,-17.00,+35.00,+92.00,+28.00,-22.00,+64.00,-15.00,+23.00,+25.00,-19.00,-22.00,-18.00,-37.00
-4.00,+52.00,+29.00,+9.00,+4.00,-8.00,+19.00,+16.00,+3.00,+18.00,+3.00,+33.00,+0.00,+30.00,+13.00,+22.00
-16.00,+18.00,+9.00,-5.00,-25.00,-39.00,+5.00,+0.00,+12.00,-74.00,+4.00,-5.00,+43.00,-26.00,+9.00,+10.00
+25.00,-36.00,-5.00,-1.00,-16.00,-37.00,-6.00,+5.00,-3.00,-27.00,-33.00,-59.00,-66.00,-34.00,-8.00,-57.00
+5.00,+45.00,+3.00,+2.00,-18.00,+32.00,-12.00,+2.00,+54.00,+1.00,+0.00,-7.00,-12.00,+10.00,+30.00,+64.00
+26.00,+65.00,-5.00,-2.00,+12.00,-14.00,+6.00,+3.00,+36.00,+55.00,-4.00,-8.00,-8.00,-7.00,-10.00,+30.00
-2.00,-19.00,+10.00,+8.00,-30.00,-2.00,-4.00,-8.00,-94.00,-35.00,-10.00,+41.00,+77.00,+8.00,+4.00,+8.00
+16.00,+36.00,+2.00,-3.00,+27.00,-2.00,-9.00,-20.00,-84.00,+33.00,+8.00,+10.00,+49.00,+18.00,-6.00,-21.00
-1.00,+80.00,-4.00,-20.00,-68.00,-18.00,+13.00,-11.00,+2.00,+79.00,+15.00,-51.00,-54.00,-2.00,+4.00,-6.00
+1.00,-28.00,-7.00,+6.00,+93.00,+37.00,-63.00,-9.00,-53.00,-22.00,-4.00,+16.00,+9.00,+10.00,+9.00,-25.00
+34.00,+89.00,+43.00,+28.00,+54.00,-6.00,+65.00,+31.00,+72.00,+18.00,-16.00,+3.00,+64.00,+12.00,-10.00,+14.00
-9.00,+49.00,-19.00,-16.00,-67.00,+29.00,+11.00,-17.00,+39.00,-50.00,+17.00,+42.00,+18.00,+11.00,+14.00,+63.00
+18.00,+127.00,+4.00,-10.00,-25.00,-2.00,+23.00,+5.00,-85.00,+50.00,+1.00,+34.00,+48.00,+10.00,-10.00,-33.00
-5.00,-36.00,-9.00,-1.00,+18.00,-20.00,+13.00,-32.00,+61.00,+127.00,+28.00,+3.00,+3.00,+3.00,+4.00,+13.00
-8.00,-110.00,-33.00,-16.00,+27.00,-59.00,-11.00,+23.00,+28.00,+1.00,+2.00,-37.00,+13.00,+3.00,+2.00,+11.00
-9.00,-102.00,-14.00,-10.00,-70.00,-34.00,+3.00,-9.00,+8.00,-32.00,-11.00,-24.00,-9.00,-28.00,-15.00,-7.00
+28.00,-114.00,+12.00,+21.00,+89.00,+54.00,+8.00,+8.00,-128.00,+0.00,+13.00,+19.00,+20.00,+1.00,-1.00,-43.00
-9.00,+35.00,+1.00,-13.00,-57.00,+22.00,-52.00,+0.00,+103.00,-69.00,-17.00,+13.00,+12.00,+9.00,+8.00,+20.00
+37.00,+2.00,+4.00,+0.00,-7.00,+10.00,+46.00,+3.00,-38.00,-8.00,-5.00,+1.00,-15.00,-16.00,-19.00,-25.00
-24.00,-65.00,-37.00,-27.00,-51.00,-24.00,+13.00,-10.00,-40.00,-48.00,-14.00,-2.00,-14.00,-1.00,-13.00,+3.00
-5.00,-25.00,-9.00,-2.00,-7.00,-24.00,-6.00,+7.00,-30.00,+58.00,+22.00,+20.00,+19.00,+17.00,+26.00,+30.00
+14.00,+21.00,+37.00,+25.00,+20.00,+69.00,+59.00,+32.00,-40.00,-4.00,+18.00,-15.00,-12.00,-20.00,-14.00,-14.00
-13.00,-23.00,-7.00,-17.00,-101.00,-65.00,-71.00,-29.00,-26.00,-91.00,-18.00,-1.00,-41.00,+1.00,-10.00,-18.00
-21.00,-53.00,-4.00,+15.00,+105.00,+56.00,+23.00,+6.00,+70.00,+14.00,+1.00,+7.00,+8.00,+10.00,+9.00,+15.00
-8.00,+65.00,-3.00,+7.00,+8.00,-2.00,-35.00,-20.00,+34.00,-26.00,+10.00,+43.00,+57.00,+10.00,-5.00,-21.00
-17.00,-67.00,-15.00,-10.00,+20.00,-10.00,+41.00,-9.00,-3.00,-8.00,-11.00,-17.00,-29.00,-3.00,-14.00,-43.00
-1.00,+24.00,+5.00,-4.00,-78.00,-40.00,-48.00,+1.00,+17.00,+71.00,+20.00,-47.00,-60.00,-13.00,-1.00,+22.00
+8.00,-27.00,+4.00,-1.00,+4.00,+80.00,+42.00,-3.00,-66.00,-70.00,-16.00,-31.00,-23.00,-15.00,-9.00,+6.00
-11.00,-36.00,+0.00,+4.00,-2.00,-68.00,-32.00,+8.00,+39.00,+38.00,-7.00,-21.00,+9.00,-3.00,-6.00,-18.00
+45.00,+94.00,+16.00,-3.00,-46.00,+46.00,-7.00,-11.00,+84.00,+57.00,+6.00,+2.00,+18.00,+7.00,+1.00,+14.00
-62.00,+55.00,-15.00,-8.00,+103.00,+19.00,+5.00,+9.00,-92.00,-78.00,+3.00,+34.00,+11.00,+20.00,+16.00,+10.00
+5.00,+10.00,-8.00,-6.00,-29.00,-48.00,-20.00,-54.00,+29.00,+61.00,-6.00,-43.00,-44.00,-18.00,-19.00,-42.00
-6.00,+10.00,+41.00,+20.00,+16.00,+10.00,-13.00,+21.00,+6.00,-99.00,-24.00,+15.00,+0.00,-3.00,+5.00,+25.00
+40.00,-30.00,-4.00,-5.00,-59.00,-59.00,-7.00,-44.00,-5.00,+82.00,+55.00,+35.00,+41.00,+18.00,+13.00,+70.00
+13.00,-43.00,-25.00,+2.00,+7.00,+66.00,-5.00,+16.00,-92.00,+51.00,-1.00,+9.00,-3.00,+1.00,-1.00,+4.00
+17.00,+114.00,+25.00,+12.00,+68.00,+12.00,+0.00,+28.00,-18.00,-30.00,-15.00,-3.00,+15.00,-3.00,-5.00,-21.00
+16.00,-117.00,-25.00,-12.00,-55.00,-6.00,-8.00,-6.00,+36.00,-84.00,-35.00,-15.00,-42.00,-15.00,-13.00,-11.00
-37.00,-19.00,-1.00,-6.00,-15.00,-28.00,-27.00,+6.00,+42.00,-39.00,-1.00,+4.00,+5.00,-2.00,+3.00,+4.00
+84.00,+55.00,+45.00,+26.00,+42.00,+39.00,+36.00,+36.00,+43.00,+123.00,+18.00,+18.00,+35.00,+23.00,+5.00,+17.00
-66.00,-39.00,-30.00,-23.00,-97.00,-120.00,-20.00,-36.00,-20.00,+57.00,+31.00,+56.00,+11.00,+27.00,+23.00,+12.00
+64.00,+79.00,+24.00,+12.00,+81.00,+94.00,-67.00,+17.00,+58.00,+29.00,-17.00,-81.00,-47.00,-36.00,-10.00,-4.00
-41.00,+28.00,-5.00,+0.00,+21.00,+85.00,+43.00,+22.00,-73.00,+0.00,+2.00,-42.00,+6.00,-46.00,-62.00,-31.00
-3.00,-74.00,-32.00,-6.00,+1.00,-43.00,-36.00,-26.00,+58.00,+1.00,-33.00,-2.00,-20.00,-5.00,-11.00,+13.00
+26.00,+91.00,+38.00,+14.00,-37.00,+0.00,+10.00,+21.00,-21.00,-42.00,-4.00,+14.00,+0.00,+8.00,-2.00,-11.00
-9.00,-62.00,+15.00,+0.00,-27.00,-65.00,-5.00,-4.00,-74.00,-5.00,-1.00,+21.00,+52.00,+7.00,+0.00,-30.00
+14.00,-79.00,-18.00,-6.00,+4.00,-39.00,-41.00,+2.00,+24.00,-36.00,-14.00,-8.00,-25.00,-2.00,+6.00,+4.00
-38.00,+57.00,-11.00,-13.00,-23.00,+2.00,+14.00,-17.00,-83.00,+31.00,+5.00,+19.00,+32.00,+0.00,-7.00,-34.00
-21.00,+20.00,+16.00,+8.00,-23.00,-2.00,-15.00,-10.00,-39.00,+10.00,+8.00,-11.00,-22.00,-11.00,+5.00,+37.00
-31.00,-32.00,-48.00,-23.00,-7.00,-21.00,-1.00,-37.00,+18.00,-3.00,+6.00,+38.00,+4.00,+22.00,+13.00,+33.00
+29.00,-56.00,-10.00,+3.00,+22.00,+5.00,-7.00,+15.00,-69.00,-74.00,-16.00,+30.00,-8.00,-6.00,+2.00,-3.00
+8.00,-51.00,+23.00,+16.00,-19.00,+22.00,+26.00,-9.00,-20.00,-1.00,+2.00,-60.00,-66.00,+2.00,-1.00,-23.00
+4.00,-119.00,-27.00,-6.00,-51.00,-23.00,-26.00,+44.00,-21.00,+7.00,+11.00,-35.00,+68.00,-6.00,+1.00,+28.00
+36.00,+98.00,+11.00,-9.00,-40.00,-59.00,+40.00,-3.00,+45.00,+41.00,+24.00,+10.00,+1.00,-4.00,-3.00,-26.00
-50.00,-50.00,-10.00,+12.00,+81.00,+49.00,+13.00,-14.00,-92.00,-128.00,-39.00,-3.00,+62.00,+7.00,-6.00,-51.00
-44.00,-11.00,-4.00,-11.00,-39.00,-1.00,-19.00,-27.00,+98.00,+102.00,+44.00,+57.00,-25.00,+25.00,+27.00,+83.00
-17.00,-117.00,-24.00,-6.00,+23.00,-34.00,-16.00,-14.00,+29.00,-29.00,+4.00,-19.00,-24.00,-1.00,-7.00,-15.00
-28.00,-49.00,+2.00,+7.00,-20.00,+16.00,-3.00,+4.00,-40.00,-88.00,-32.00,-23.00,-18.00,-7.00,-12.00,+0.00
+28.00,+52.00,+9.00,-3.00,-14.00,+27.00,+6.00,+12.00,-54.00,-12.00,-3.00,+30.00,+39.00,+12.00,+6.00,-24.00
-21.00,-111.00,-14.00,-4.00,+33.00,+46.00,+8.00,-1.00,-43.00,+5.00,-10.00,+0.00,+4.00,-18.00,-11.00,-40.00
-64.00,-34.00,-28.00,-29.00,-64.00,-28.00,-28.00,-28.00,-16.00,+40.00,+2.00,+4.00,-12.00,-1.00,+3.00,-5.00
+79.00,+57.00,+38.00,+26.00,-8.00,-15.00,+12.00,+23.00,-4.00,-34.00,-32.00,-21.00,-22.00,+1.00,-6.00,+8.00
+30.00,-21.00,+8.00,-2.00,-9.00,-25.00,+37.00,+22.00,+11.00,+59.00,+5.00,+8.00,+18.00,+16.00,+17.00,+28.00
-43.00,+1.00,-22.00,-11.00,-3.00,+11.00,-5.00,+4.00,+22.00,-25.00,-4.00,+9.00,-34.00,+7.00,-15.00,+14.00
-35.00,+50.00,-7.00,-15.00,-9.00,-9.00,-19.00,+23.00,-20.00,+26.00,+40.00,+27.00,+34.00,-7.00,+7.00,-10.00
+51.00,+109.00,+41.00,+7.00,+0.00,+17.00,-9.00,+1.00,-75.00,-90.00,-19.00,-5.00,+0.00,-40.00,-24.00,-2.00
-17.00,-48.00,+6.00,+4.00,-91.00,-45.00,-7.00,+3.00,-7.00,+120.00,+29.00,+34.00,+53.00,+24.00,+22.00,+20.00
+63.00,+69.00,+18.00,+12.00,+13.00,-25.00,-16.00,+15.00,+27.00,-93.00,-15.00,-37.00,-20.00,-8.00,+9.00,+9.00
-10.00,+38.00,+2.00,+16.00,+80.00,-6.00,+70.00,-8.00,-60.00,+101.00,-7.00,-28.00,-37.00,-13.00,-11.00,-49.00
-66.00,+71.00,-19.00,-13.00,+36.00,+88.00,-34.00,-77.00,+31.00,+67.00,+27.00,+1.00,-15.00,+8.00,+12.00,+51.00
-6.00,+16.00,-11.00,-1.00,-3.00,+70.00,+66.00,+30.00,-22.00,+22.00,+0.00,+44.00,+76.00,+0.00,-10.00,+23.00
+32.00,+16.00,+19.00,+5.00,-42.00,-43.00,+15.00,+17.00,+101.00,+13.00,-5.00,+13.00,-12.00,+14.00,+19.00,-21.00
+11.00,-62.00,+1.00,-4.00,-33.00,+21.00,-34.00,+1.00,-6.00,-42.00,-31.00,-59.00,-1.00,-51.00,-34.00,-8.00
-6.00,+74.00,-3.00,-9.00,+8.00,-11.00,-3.00,+6.00,-6.00,-55.00,+7.00,-19.00,-37.00,+25.00,-24.00,-47.00
-36.00,-62.00,-18.00,-11.00,-23.00,-70.00,-25.00,-20.00,-33.00,+31.00,+1.00,-36.00,-109.00,-13.00,+0.00,+8.00
-17.00,-53.00,-17.00,-1.00,-11.00,+34.00,+4.00,-35.00,-69.00,+33.00,+27.00,+43.00,+49.00,+0.00,-4.00,+17.00
+50.00,+50.00,+7.00,-3.00,+3.00,+6.00,-14.00,+21.00,+37.00,-43.00,-21.00,-27.00,-64.00,+16.00,+9.00,+1.00
-45.00,-128.00,-13.00,-2.00,-107.00,-67.00,-16.00,+2.00,+2.00,+1.00,-6.00,+2.00,+18.00,-10.00,+21.00,+45.00
+45.00,+106.00,-9.00,+3.00,+62.00,+24.00,-8.00,+10.00,-23.00,-58.00,-32.00,-19.00,-36.00,-11.00,-25.00,-40.00
+35.00,+127.00,+18.00,+17.00,+42.00,+43.00,+61.00,+21.00,-110.00,-47.00,+12.00,+16.00,+50.00,+4.00,+0.00,-6.00
+0.00,+11.00,+27.00,+14.00,-25.00,+31.00,-7.00,-11.00,+61.00,-84.00,-5.00,+22.00,+14.00,+8.00,+9.00,+14.00
-42.00,-128.00,-71.00,-42.00,-72.00,-35.00,-4.00,-38.00,-114.00,-13.00,+0.00,+9.00,-2.00,+6.00,-10.00,-21.00
+5.00,-49.00,+16.00,+9.00,-54.00,-42.00,-2.00,+32.00,+111.00,+0.00,-10.00,-11.00,-12.00,+1.00,-1.00,-37.00
+59.00,-9.00,+33.00,+28.00,+80.00,+19.00,-26.00,+28.00,-4.00,+44.00,+18.00,-8.00,+3.00,-15.00,-8.00,-14.00
+8.00,+76.00,-22.00,-18.00,-3.00,-13.00,+10.00,+1.00,+79.00,+27.00,-4.00,+31.00,+35.00,+8.00,+3.00,+27.00
-14.00,-61.00,+17.00,+11.00,+15.00,+15.00,+3.00,+2.00,-101.00,-105.00,+1.00,+25.00,-26.00,+28.00,+16.00,-48.00
-9.00,+23.00,-20.00,-10.00,-11.00,-61.00,-22.00,-23.00,-26.00,+5.00,-13.00,-10.00,+25.00,-6.00,-2.00,-38.00
-37.00,+81.00,-23.00,-24.00,-12.00,+47.00,-18.00,-27.00,+61.00,-33.00,-32.00,-75.00,-68.00,-38.00,-6.00,-4.00
-18.00,-128.00,-17.00,+1.00,-28.00,-35.00,+10.00,+9.00,+78.00,+55.00,+2.00,-12.00,-15.00,-31.00,-23.00,+40.00
+52.00,+83.00,+47.00,+25.00,+25.00,+36.00,+66.00,+30.00,-3.00,+62.00,+7.00,-12.00,-28.00,+24.00,+6.00,-8.00
-25.00,+28.00,+6.00,-19.00,-31.00,+42.00,-34.00,-21.00,-40.00,-20.00,+17.00,+51.00,+14.00,+17.00,+25.00,+34.00
+29.00,-48.00,+2.00,+3.00,-6.00,-37.00,+27.00,+21.00,+66.00,+32.00,+13.00,-12.00,-36.00,-3.00,-19.00,+11.00
+54.00,+62.00,+15.00,+12.00,-15.00,+28.00,+42.00,+6.00,-38.00,-53.00,-14.00,+10.00,+25.00,+28.00,+41.00,+8.00
-75.00,-7.00,-10.00,-10.00,-35.00,-18.00,+50.00,+7.00,+100.00,+74.00,+8.00,+4.00,+34.00,-14.00,-16.00,-24.00
-58.00,-13.00,-11.00,+2.00,+54.00,-29.00,-29.00,-27.00,-68.00,-36.00,-10.00,-17.00,-30.00,-7.00,+19.00,+3.00
-14.00,-63.00,+2.00,-2.00,+42.00,+57.00,+10.00,+8.00,-82.00,+46.00,+9.00,+13.00,+81.00,+27.00,+20.00,-14.00
+71.00,-1.00,-16.00,-5.00,+12.00,-2.00,-51.00,+7.00,-39.00,+20.00,+11.00,+25.00,+6.00,-7.00,-24.00,-1.00
+25.00,+51.00,+7.00,-1.00,-51.00,-10.00,-6.00,-5.00,+53.00,-11.00,+16.00,+9.00,+22.00,-8.00,+8.00,+48.00
-37.00,-19.00,-11.00,-14.00,-100.00,-75.00,-5.00,+33.00,-36.00,-14.00,-1.00,-17.00,+22.00,+0.00,-7.00,-36.00
-63.00,-128.00,-63.00,-21.00,+72.00,-22.00,-23.00,-8.00,+56.00,-128.00,-28.00,+28.00,+53.00,+2.00,+5.00,+29.00
-21.00,+101.00,+43.00,+24.00,+42.00,+85.00,+5.00,+20.00,-122.00,+37.00,-20.00,-20.00,-40.00,+8.00,-5.00,-32.00
-34.00,-18.00,-27.00,-2.00,-13.00,-38.00,-4.00,+0.00,-24.00,-21.00,-15.00,-2.00,+41.00,+4.00,+3.00,-21.00
+52.00,+80.00,+26.00,+6.00,+3.00,+4.00,-3.00,-3.00,+91.00,-63.00,+3.00,-69.00,-125.00,-44.00,-24.00,+19.00
-12.00,-58.00,-8.00,+3.00,+21.00,-104.00,-31.00,-19.00,-90.00,+25.00,+2.00,+79.00,+110.00,+8.00,-34.00,-4.00
-86.00,-60.00,-19.00,-19.00,-21.00,+72.00,+4.00,-17.00,-23.00,+26.00,+11.00,-48.00,-79.00,+10.00,+58.00,+4.00
+78.00,+73.00,+15.00,+4.00,+32.00,+16.00,+9.00,-9.00,+10.00,-52.00,-34.00,-52.00,+18.00,-46.00,-64.00,-5.00
+22.00,+66.00,-5.00,-1.00,-30.00,-4.00,-10.00,-12.00,+25.00,-4.00,-10.00,-5.00,-26.00,+14.00,-14.00,+1.00
-10.00,+12.00,-13.00,-18.00,-85.00,-28.00,+0.00,+14.00,+70.00,+16.00,-3.00,-11.00,+8.00,+2.00,-18.00,-32.00
+21.00,+65.00,+15.00,+11.00,+14.00,-20.00,-7.00,-6.00,+24.00,-28.00,-4.00,+43.00,+23.00,-36.00,-69.00,+8.00
+8.00,-65.00,-15.00,-8.00,+9.00,+1.00,+23.00,+18.00,-33.00,+37.00,+19.00,+43.00,-24.00,+40.00,+48.00,-12.00
-11.00,+105.00,-11.00,-6.00,+30.00,+20.00,+2.00,-12.00,+32.00,+77.00,+25.00,-32.00,-36.00,-16.00,-5.00,+42.00
+19.00,-1.00,+26.00,+3.00,-43.00,-3.00,+11.00,-15.00,-89.00,-112.00,-24.00,-35.00,-34.00,-11.00,+7.00,-18.00
+30.00,-14.00,-15.00,-11.00,-71.00,+1.00,+6.00,-1.00,+96.00,-46.00,+0.00,+1.00,+12.00,+15.00,-5.00,-5.00
-34.00,-60.00,-14.00,-12.00,+8.00,-68.00,-84.00,+10.00,+83.00,+16.00,+17.00,+15.00,+10.00,-8.00,-4.00,-20.00
-36.00,-27.00,+17.00,+21.00,+95.00,+63.00,+100.00,+13.00,+102.00,-2.00,-10.00,+34.00,+60.00,+19.00,+13.00,+48.00
-23.00,-69.00,+1.00,+16.00,+17.00,+35.00,-14.00,-3.00,+32.00,+88.00,+10.00,+4.00,-74.00,-11.00,-2.00,-11.00
+1.00,+95.00,+2.00,+3.00,+40.00,+44.00,-11.00,-24.00,-11.00,-83.00,-20.00,-19.00,+42.00,+9.00,-3.00,-15.00
-36.00,-125.00,-37.00,-27.00,-88.00,-19.00,-11.00,+1.00,-68.00,+9.00,-11.00,+0.00,-1.00,-21.00,-6.00,+6.00
+63.00,+0.00,+27.00,+19.00,+87.00,+12.00,+5.00,+37.00,-65.00,+42.00,+10.00,+7.00,+56.00,-1.00,+17.00,-13.00
+20.00,+101.00,+5.00,-14.00,-77.00,+9.00,+16.00,+10.00,-11.00,-38.00,-5.00,+33.00,+16.00,+29.00,+11.00,+23.00
-7.00,-44.00,+6.00,+6.00,+25.00,-57.00,-14.00,-23.00,-17.00,+10.00,-19.00,-17.00,-65.00,-20.00,+0.00,+1.00
-14.00,+116.00,-2.00,+5.00,+53.00,-20.00,-42.00,-5.00,-94.00,-46.00,+10.00,-68.00,-95.00,-8.00,+17.00,-28.00
+29.00,+33.00,+16.00,+12.00,+6.00,+43.00,-20.00,-15.00,-3.00,-8.00,-21.00,-13.00,+9.00,+5.00,+2.00,+7.00
+26.00,+49.00,-1.00,-4.00,-44.00,+9.00,+36.00,+13.00,-5.00,-107.00,-19.00,-27.00,-5.00,-9.00,+7.00,-13.00
+13.00,-50.00,+3.00,+2.00,-24.00,-26.00,+8.00,-52.00,+30.00,+42.00,+17.00,+36.00,+30.00,-24.00,-74.00,+9.00
+18.00,-22.00,-30.00,-22.00,+3.00,+19.00,+15.00,+11.00,-40.00,-67.00,-18.00,+19.00,+3.00,+34.00,+44.00,-4.00
-19.00,+5.00,-2.00,-14.00,-106.00,-32.00,-16.00,-10.00,+12.00,-23.00,+6.00,-10.00,-22.00,-12.00,+3.00,-29.00
-18.00,-22.00,-8.00,-10.00,+11.00,-23.00,-40.00,-19.00,-6.00,-45.00,-17.00,-16.00,-7.00,+1.00,-18.00,+1.00
-69.00,-30.00,-24.00,-14.00,+20.00,+25.00,+8.00,-31.00,-38.00,+6.00,+35.00,+20.00,-1.00,+20.00,+64.00,-47.00
+27.00,-84.00,-3.00,+32.00,+107.00,+63.00,-17.00,+39.00,+125.00,+91.00,-14.00,+17.00,+4.00,-14.00,-8.00,+53.00
+45.00,-3.00,+21.00,-4.00,-128.00,-109.00,-31.00,-25.00,+61.00,+48.00,+14.00,+26.00,+13.00,+25.00,+3.00,-53.00
-25.00,+32.00,+4.00,+5.00,+63.00,-30.00,+61.00,-5.00,+84.00,-64.00,-30.00,-20.00,-2.00,-25.00,+14.00,+43.00
-28.00,-87.00,+3.00,+13.00,+78.00,+77.00,-40.00,+11.00,+93.00,+33.00,+21.00,+15.00,-66.00,+12.00,+17.00,-21.00
+25.00,+7.00,+14.00,-2.00,-24.00,+89.00,-43.00,-22.00,+28.00,+72.00,-4.00,-31.00,-47.00,-19.00,-40.00,-14.00
+13.00,-104.00,-14.00,-2.00,-21.00,-62.00,+70.00,-14.00,-128.00,+41.00,-11.00,-19.00,-43.00,-14.00,+6.00,-12.00
+1.00,+91.00,+13.00,-2.00,-70.00,-30.00,-39.00,-5.00,+40.00,+9.00,+1.00,-21.00,+26.00,-6.00,+6.00,-13.00
+56.00,+102.00,+47.00,+14.00,-34.00,-53.00,+62.00,+59.00,-71.00,-2.00,+2.00,+22.00,-7.00,+0.00,-4.00,+7.00
+27.00,+112.00,+34.00,+26.00,+86.00,+35.00,+13.00,+38.00,-111.00,-68.00,-7.00,-63.00,-91.00,+8.00,-2.00,-2.00
-27.00,+33.00,-19.00,-8.00,+42.00,+69.00,-39.00,-74.00,+3.00,-84.00,-40.00,-39.00,-12.00,-23.00,-58.00,+15.00
+32.00,+11.00,-23.00,-19.00,-27.00,+39.00,-4.00,+12.00,+47.00,+75.00,+23.00,+10.00,+3.00,+31.00,+58.00,+45.00
+41.00,-61.00,+9.00,+5.00,-38.00,-53.00,+12.00,-10.00,+22.00,+56.00,-2.00,+17.00,+40.00,+24.00,+15.00,-4.00
-55.00,-99.00,-2.00,-3.00,-45.00,-18.00,+0.00,+41.00,+87.00,+0.00,+14.00,+43.00,+81.00,+2.00,-1.00,+48.00
-13.00,-33.00,+26.00,+7.00,-8.00,+34.00,-5.00,+18.00,-61.00,-8.00,+19.00,+17.00,-1.00,-2.00,+7.00,-15.00
-19.00,-20.00,-6.00,-5.00,+15.00,-61.00,-30.00,-8.00,-62.00,-18.00,-28.00,-14.00,-28.00,-21.00,-40.00,-68.00
-10.00,-66.00,-16.00,-10.00,+15.00,+1.00,-21.00,+9.00,-105.00,-108.00,+8.00,+8.00,+32.00,+23.00,+27.00,+4.00
+26.00,+13.00,+16.00,+5.00,-14.00,-51.00,-37.00,+3.00,+29.00,+0.00,-20.00,+4.00,+21.00,-70.00,-76.00,-43.00
-20.00,-92.00,-4.00,-4.00,-80.00,-24.00,+9.00,+7.00,+116.00,+34.00,+26.00,+17.00,+32.00,+34.00,+44.00,+74.00
-55.00,-81.00,-13.00,-2.00,+35.00,+57.00,-16.00,-41.00,-112.00,+40.00,-17.00,-14.00,-24.00,-31.00,-46.00,-84.00
+1.00,+81.00,+0.00,+18.00,+84.00,+79.00,-23.00,+13.00,+44.00,+102.00,-3.00,+17.00,+20.00,+11.00,+15.00,+65.00
-89.00,-80.00,-24.00,-17.00,-46.00,-13.00,+23.00,-32.00,-61.00,-44.00,+10.00,+56.00,+91.00,+41.00,+36.00,-10.00
+3.00,-74.00,-20.00,-11.00,+17.00,-34.00,+9.00,+25.00,+46.00,-31.00,-10.00,-41.00,-63.00,+14.00,+3.00,-8.00
+42.00,-83.00,+26.00,+25.00,-24.00,-50.00,-59.00,-29.00,+61.00,+26.00,+10.00,+46.00,+98.00,-34.00,-77.00,+0.00
+38.00,+44.00,+4.00,-15.00,-90.00,-75.00,+37.00,+40.00,+29.00,-21.00,+18.00,-27.00,-70.00,-27.00,+22.00,-17.00
+1.00,+95.00,-2.00,-2.00,+15.00,-9.00,+28.00,-21.00,-4.00,+4.00,+11.00,-8.00,+17.00,+34.00,+20.00,-20.00
-58.00,+20.00,-31.00,-15.00,+41.00,+32.00,-62.00,-52.00,-9.00,-41.00,-9.00,+18.00,+9.00,-38.00,+4.00,+33.00
+15.00,+11.00,+2.00,+0.00,-16.00,+8.00,+24.00,+35.00,-128.00,-106.00,-20.00,-27.00,-69.00,+52.00,+16.00,-47.00
-51.00,-16.00,+9.00,+5.00,-22.00,+1.00,-15.00,+2.00,+55.00,+113.00,+27.00,-4.00,+25.00,-24.00,-42.00,+24.00
+69.00,-13.00,-7.00,-11.00,-109.00,-102.00,+27.00,-15.00,+65.00,-54.00,+18.00,+37.00,+25.00,+11.00,+23.00,+29.00
-13.00,+61.00,+8.00,-6.00,+74.00,+43.00,-55.00,+1.00,+46.00,-51.00,-14.00,+19.00,+47.00,+11.00,+10.00,-10.00
+92.00,-5.00,+20.00,+19.00,+41.00,+62.00,-71.00,+40.00,-3.00,+36.00,-4.00,-27.00,-42.00,-12.00,+2.00,+7.00
-20.00,-48.00,-12.00,-5.00,-7.00,+19.00,+22.00,+2.00,-18.00,-65.00,-19.00,+7.00,+26.00,-1.00,-23.00,-4.00
-71.00,+70.00,-9.00,-3.00,+28.00,+30.00,+35.00,+41.00,+65.00,+21.00,+11.00,-12.00,-40.00,-27.00,-11.00,+46.00
-2.00,+78.00,-21.00,-12.00,+50.00,+95.00,-29.00,-46.00,-79.00,+96.00,+42.00,+9.00,+16.00,+8.00,-13.00,-51.00
-13.00,+32.00,-5.00,-9.00,-80.00,-91.00,+33.00,+19.00,-9.00,-82.00,-11.00,+111.00,+100.00,+18.00,+9.00,+7.00
-5.00,+1.00,-1.00,+18.00,+91.00,+42.00,-21.00,-14.00,+46.00,-84.00,-20.00,-74.00,-51.00,-27.00,+17.00,+69.00
-43.00,-51.00,-5.00,-8.00,+16.00,+29.00,-6.00,-33.00,-122.00,-19.00,-8.00,-59.00,-65.00,-44.00,-39.00,-85.00
+20.00,+9.00,+2.00,+3.00,-35.00,-42.00,+22.00,+29.00,+39.00,+52.00,-7.00,-37.00,-12.00,-2.00,-4.00,+32.00
-41.00,+9.00,-2.00,-6.00,-59.00,-2.00,+9.00,-19.00,+46.00,+47.00,+52.00,+54.00,+85.00,+15.00,+58.00,+55.00
+36.00,-25.00,+1.00,-19.00,-54.00,-11.00,-37.00,+21.00,-115.00,+35.00,+9.00,+36.00,+34.00,+36.00,+55.00,-28.00
-51.00,-36.00,+6.00,+15.00,-13.00,-8.00,+21.00,-13.00,-30.00,-30.00,+11.00,+108.00,+49.00,-12.00,-27.00,-27.00
+25.00,+1.00,-5.00,-1.00,-15.00,-45.00,+11.00,-9.00,-21.00,-58.00,-31.00,-114.00,-113.00,-46.00,-32.00,-40.00
+33.00,+75.00,+47.00,+26.00,+16.00,+37.00,+33.00,+19.00,+24.00,-56.00,+13.00,-11.00,+44.00,-3.00,+2.00,+13.00
+17.00,-40.00,-31.00,-27.00,-53.00,-58.00,-62.00,-8.00,+29.00,+58.00,-45.00,+43.00,+91.00,+11.00,+9.00,-1.00
+93.00,+62.00,+32.00,+22.00,+57.00,+47.00,+30.00,+26.00,+113.00,+1.00,+8.00,-22.00,-9.00,+14.00,+6.00,+47.00
-20.00,-82.00,-18.00,+4.00,-3.00,+36.00,+40.00,+17.00,-114.00,-100.00,-14.00,+64.00,+31.00,+6.00,-5.00,-37.00
+30.00,-23.00,+7.00,-2.00,-27.00,-18.00,+24.00,-8.00,+90.00,+81.00,+14.00,-33.00,-72.00,-12.00,-11.00,+66.00
+13.00,+127.00,+22.00,-25.00,-66.00,-57.00,-49.00,-17.00,-79.00,-112.00,-29.00,-34.00,-55.00,-7.00,-24.00,-66.00
-49.00,+12.00,-4.00,+7.00,+53.00,+51.00,+7.00,-22.00,+99.00,+92.00,+2.00,+23.00,+37.00,+10.00,+9.00,-17.00
-37.00,-106.00,-15.00,+4.00,-68.00,+83.00,-41.00,+44.00,+7.00,-90.00,-13.00,-15.00,-42.00,-6.00,-27.00,-6.00
+25.00,+72.00,-23.00,-3.00,+26.00,+18.00,+2.00,-34.00,+34.00,+66.00,+12.00,-35.00,-55.00,-1.00,+21.00,+26.00
-12.00,-123.00,+2.00,+20.00,-7.00,+19.00,+68.00,-3.00,+70.00,+6.00,-5.00,-7.00,+17.00,-8.00,-18.00,-13.00
+1.00,+78.00,+1.00,-10.00,-17.00,-51.00,-28.00,-19.00,-68.00,+113.00,+25.00,+32.00,+60.00,+42.00,+65.00,+60.00
-48.00,-6.00,-21.00,-19.00,-63.00,-64.00,-29.00,-26.00,-67.00,+44.00,+22.00,+87.00,+106.00,+2.00,-33.00,-25.00
-69.00,-62.00,-25.00,-19.00,+15.00,-24.00,-37.00,+21.00,-43.00,-22.00,-28.00,-76.00,-12.00,-26.00,-45.00,-59.00
+46.00,+127.00,+56.00,+15.00,-31.00,-38.00,+65.00,+9.00,-19.00,-11.00,+17.00,-1.00,+36.00,+4.00,+27.00,+31.00
-1.00,-118.00,+19.00,+10.00,-39.00,+56.00,+13.00,+11.00,-22.00,-69.00,-35.00,-109.00,-113.00,-38.00,+1.00,-17.00
+81.00,+22.00,+5.00,+8.00,+67.00,-16.00,-43.00,-17.00,+5.00,+89.00,+6.00,+24.00,-14.00,+4.00,+3.00,-4.00
-64.00,+6.00,+7.00,-2.00,-34.00,+38.00,+93.00,-13.00,-88.00,-40.00,+1.00,-39.00,+39.00,-4.00,+25.00,+20.00
+21.00,+66.00,-4.00,-2.00,+24.00,-24.00,-23.00,-23.00,+20.00,-51.00,-4.00,-25.00,-11.00,+0.00,-19.00,-32.00
+33.00,-70.00,+21.00,+22.00,+3.00,+10.00,-8.00,+10.00,-89.00,+24.00,+1.00,+5.00,+14.00,-10.00,-6.00,+17.00
-30.00,-48.00,+18.00,-18.00,-92.00,-40.00,-25.00,-17.00,+48.00,-43.00,-8.00,+13.00,+14.00,+10.00,+28.00,+14.00
-118.00,+20.00,-37.00,-26.00,+35.00,+9.00,+21.00,-36.00,-122.00,-66.00,-3.00,+31.00,-16.00,+9.00,-4.00,-92.00
+16.00,+28.00,-6.00,+12.00,+63.00,+49.00,+0.00,+0.00,+2.00,-4.00,+3.00,+4.00,-9.00,+5.00,-6.00,+35.00
-40.00,+46.00,-13.00,+5.00,+28.00,+57.00,+109.00,+3.00,-93.00,-44.00,-8.00,+25.00,+32.00,+7.00,+13.00,-18.00
+16.00,+24.00,+30.00,+14.00,-62.00,-22.00,-13.00,+29.00,+18.00,+47.00,+7.00,-15.00,-38.00,+5.00,+5.00,+25.00
+50.00,+42.00,+8.00,+0.00,+18.00,-45.00,-43.00,+34.00,+62.00,+30.00,+8.00,+32.00,+19.00,+0.00,+0.00,+37.00
-100.00,-128.00,-21.00,-17.00,-128.00,-70.00,-19.00,-43.00,-7.00,-22.00,-15.00,+8.00,-8.00,-5.00,-24.00,-16.00
-52.00,-72.00,-16.00,+15.00,+121.00,+70.00,-16.00,-4.00,-35.00,+26.00,+5.00,-36.00,-70.00,-13.00,+5.00,-27.00
-45.00,-49.00,-58.00,-16.00,+56.00,-74.00,+73.00,-33.00,-33.00,-27.00,-10.00,-41.00,-34.00,+6.00,+6.00,+5.00
+26.00,-128.00,-4.00,-2.00,-80.00,+16.00,+6.00,+32.00,+90.00,+0.00,-4.00,-2.00,-91.00,-37.00,-26.00,+14.00
-77.00,-8.00,+9.00,+15.00,+29.00,+9.00,-20.00,-5.00,-112.00,-20.00,+2.00,-86.00,-48.00,+3.00,-45.00,-27.00
+40.00,+42.00,+15.00,-19.00,-116.00,-83.00,-57.00,-12.00,+95.00,-29.00,+8.00,+33.00,+28.00,+31.00,+52.00,+19.00
+8.00,-17.00,-32.00,-8.00,+11.00,+36.00,+22.00,-23.00,-20.00,-72.00,-7.00,+11.00,+10.00,-13.00,+20.00,-15.00
+31.00,-106.00,-25.00,-2.00,+21.00,+30.00,-31.00,-8.00,-48.00,+6.00,+4.00,+18.00,+22.00,+14.00,-5.00,-7.00
+40.00,-21.00,-9.00,-8.00,-79.00,-58.00,-31.00,+8.00,+77.00,-6.00,+1.00,+26.00,-2.00,-1.00,-4.00,+44.00
+22.00,+54.00,-10.00,+0.00,+71.00,+41.00,+1.00,-53.00,-10.00,+38.00,-6.00,+2.00,+13.00,+11.00,-1.00,+13.00
+90.00,+127.00,+25.00,+2.00,+37.00,-21.00,+1.00,+2.00,+107.00,+11.00,+27.00,+16.00,+37.00,+1.00,+4.00,+28.00
-17.00,-2.00,+6.00,-3.00,-19.00,+6.00,-21.00,+15.00,+16.00,+30.00,-11.00,+1.00,-25.00,+6.00,+5.00,-22.00
+89.00,+113.00,+38.00,+25.00,-16.00,+1.00,+68.00,+97.00,-51.00,-8.00,-5.00,+9.00,+24.00,-13.00,-6.00,-31.00
-17.00,+2.00,-7.00,-28.00,-116.00,-115.00,-54.00,-28.00,+16.00,+8.00,+24.00,-4.00,+6.00,-8.00,-17.00,-17.00
-27.00,-58.00,-8.00,+18.00,+105.00,+89.00,-44.00,-6.00,+53.00,+1.00,-28.00,-4.00,+5.00,-6.00,+1.00,+37.00
+4.00,+2.00,+17.00,+8.00,-15.00,-7.00,-36.00,-21.00,-11.00,-7.00,-15.00,-13.00,-27.00,+0.00,-10.00,-14.00
-76.00,-128.00,-35.00,+1.00,+104.00,+56.00,+7.00,-30.00,-32.00,+4.00,+2.00,+29.00,+40.00,+18.00,+1.00,-43.00
+58.00,+16.00,-18.00,-22.00,+30.00,+19.00,+42.00,+9.00,-6.00,-9.00,-7.00,-7.00,+22.00,-14.00,-21.00,+29.00
-22.00,-24.00,+17.00,+10.00,+20.00,+64.00,-52.00,+11.00,+1.00,+47.00,+23.00,+1.00,-33.00,+2.00,-4.00,-26.00
+16.00,+2.00,+2.00,+14.00,+50.00,-27.00,+24.00,-3.00,+22.00,-18.00,+7.00,-19.00,-31.00,+7.00,+12.00,+8.00
+1.00,+11.00,-11.00,-7.00,-19.00,-61.00,-19.00,+7.00,-2.00,+4.00,-6.00,+9.00,+18.00,-5.00,+14.00,+10.00
-8.00,-108.00,-33.00,-14.00,-47.00,-52.00,-32.00,+14.00,-10.00,-8.00,-18.00,-33.00,-47.00,-8.00,-35.00,-75.00
-31.00,+15.00,+75.00,+31.00,-43.00,-46.00,+37.00,+34.00,+12.00,+0.00,+2.00,+7.00,+34.00,-13.00,-18.00,+60.00
+94.00,+96.00,+18.00,+2.00,-12.00,+38.00,+40.00,+36.00,+13.00,+16.00,+14.00,+20.00,+18.00,+17.00,+14.00,+60.00
+37.00,-15.00,-21.00,-18.00,-11.00,+5.00,-1.00,-37.00,+49.00,+5.00,+3.00,-10.00,-7.00,+2.00,+19.00,+8.00
-1.00,-104.00,-15.00,-7.00,-14.00,-6.00,-49.00,+10.00,-13.00,+4.00,-9.00,+13.00,+15.00,-3.00,-4.00,-8.00
+23.00,+96.00,-5.00,-8.00,-63.00,-13.00,+47.00,+18.00,-51.00,-47.00,-12.00,+6.00,+10.00,+3.00,-4.00,-12.00
-45.00,-101.00,-4.00,-3.00,-21.00,+39.00,-11.00,-31.00,-77.00,+10.00,+2.00,-2.00,-7.00,-9.00,-8.00,-63.00
+38.00,-15.00,+1.00,+13.00,+73.00,+65.00,-31.00,-11.00,-30.00,-29.00,-17.00,+0.00,-6.00,+1.00,+3.00,+40.00
-49.00,+6.00,-4.00,-7.00,+14.00,-67.00,-45.00,-37.00,-19.00,+14.00,+21.00,+13.00,+3.00,+10.00,-3.00,+0.00
-9.00,-33.00,+2.00,-6.00,-27.00,+92.00,+47.00,+73.00,+39.00,-2.00,-12.00,-16.00,+3.00,-5.00,+0.00,-8.00
-1.00,+18.00,+8.00,+25.00,+119.00,-87.00,+76.00,-2.00,-33.00,-5.00,-3.00,+3.00,+18.00,+2.00,+0.00,+1.00
-16.00,+39.00,-12.00,-14.00,-58.00,+42.00,+58.00,-17.00,+5.00,+8.00,-2.00,-7.00,-16.00,-4.00,-4.00,-16.00
+31.00,+28.00,+27.00,+18.00,-19.00,-18.00,-1.00,+29.00,-10.00,+9.00,-5.00,+1.00,-4.00,-1.00,-8.00,-6.00
-23.00,-101.00,-4.00,-6.00,-36.00,-22.00,-26.00,-85.00,-28.00,+5.00,+9.00,+6.00,+13.00,-3.00,+6.00,+0.00
-22.00,+12.00,-11.00,-17.00,-23.00,-16.00,-33.00,+38.00,+15.00,+8.00,+6.00,+11.00,+27.00,+0.00,-6.00,+2.00
+3.00,-73.00,-15.00,-10.00,-3.00,-28.00,-1.00,+69.00,+8.00,+3.00,-1.00,-19.00,-50.00,-2.00,+2.00,+2.00
+25.00,-12.00,+20.00,+30.00,+1.00,+9.00,+32.00,+50.00,+44.00,+5.00,-2.00,+16.00,+15.00,+13.00,+25.00,+50.00
-35.00,-114.00,-8.00,-10.00,-1.00,-44.00,-13.00,-2.00,-12.00,+6.00,+5.00,-11.00,-6.00,-3.00,+0.00,+12.00
+33.00,+4.00,-18.00,-23.00,-34.00,+33.00,-9.00,-35.00,+28.00,+3.00,-2.00,-8.00,+13.00,-3.00,-14.00,-5.00
-66.00,-4.00,-21.00,-5.00,+15.00,-15.00,-37.00,-55.00,-27.00,-5.00,+5.00,+8.00,+6.00,-5.00,-8.00,-14.00
+38.00,+38.00,+16.00,-3.00,+0.00,+34.00,+1.00,-23.00,+43.00,-9.00,-9.00,-15.00,-4.00,-3.00,-7.00,-4.00
-9.00,+27.00,+8.00,+4.00,+6.00,-31.00,+1.00,-12.00,-35.00,-10.00,-7.00,-5.00,+16.00,+4.00,-2.00,-30.00
-33.00,-43.00,-16.00,-13.00,-75.00,-75.00,-36.00,-20.00,-49.00,-5.00,+0.00,-10.00,-21.00,-4.00,+6.00,+21.00
-6.00,+44.00,+0.00,+2.00,+41.00,+84.00,+10.00,-1.00,+36.00,+21.00,+5.00,+3.00,-1.00,+0.00,+1.00,+10.00
-45.00,+11.00,-9.00,-1.00,+8.00,+21.00,+11.00,-4.00,+10.00,-11.00,-10.00,+1.00,+1.00,+1.00,-2.00,-9.00
+22.00,+27.00,+3.00,+4.00,+32.00,+14.00,+33.00,+6.00,-33.00,+11.00,+6.00,+16.00,+16.00,+3.00,-4.00,-24.00
-36.00,+18.00,+5.00,+5.00,-27.00,-11.00,-65.00,-79.00,+72.00,-5.00,+2.00,-5.00,-5.00,-1.00,+3.00,+11.00
-7.00,+5.00,+7.00,+14.00,+48.00,+5.00,-11.00,-2.00,-11.00,+33.00,+9.00,+12.00,+5.00,-2.00,-2.00,-9.00
-45.00,-39.00,-16.00,-22.00,-19.00,+2.00,+15.00,+40.00,+22.00,-26.00,-9.00,-1.00,+1.00,-2.00,-7.00,+2.00
+43.00,+53.00,+6.00,-4.00,-3.00,-23.00,+22.00,+47.00,+6.00,+2.00,+0.00,-8.00,-5.00,-3.00,+0.00,-10.00
+3.00,+1.00,+5.00,+2.00,-26.00,+39.00,+4.00,+22.00,-8.00,-5.00,-4.00,+6.00,-1.00,+2.00,+3.00,-12.00
-34.00,-32.00,-1.00,-2.00,-35.00,-33.00,-4.00,-12.00,-4.00,+2.00,-2.00,-7.00,-9.00,-5.00,-2.00,+1.00
-32.00,+3.00,-13.00,-21.00,-23.00,+5.00,-29.00,-40.00,+2.00,-3.00,-5.00,-1.00,-6.00,-2.00,-3.00,+4.00
-30.00,-78.00,-8.00,+0.00,+1.00,-23.00,-7.00,-11.00,-10.00,-3.00,-6.00,-3.00,-1.00,-1.00,-2.00,+7.00
+27.00,+63.00,+0.00,-1.00,-6.00,+3.00,+0.00,-3.00,-2.00,+2.00,+1.00,-3.00,-4.00,+2.00,+3.00,-22.00
-16.00,-41.00,+43.00,+21.00,+3.00,+0.00,+0.00,+23.00,+7.00,-9.00,+1.00,+7.00,-1.00,-1.00,-3.00,+26.00
+44.00,+58.00,-2.00,-9.00,+2.00,-8.00,+9.00,+17.00,-12.00,+11.00,+0.00,-11.00,+6.00,-3.00,+2.00,+0.00
+15.00,+16.00,-14.00,-1.00,+0.00,-11.00,-10.00,+5.00,+5.00,+1.00,+3.00,+3.00,-5.00,+2.00,+5.00,+1.00
+12.00,-21.00,-7.00,+10.00,+24.00,+20.00,-3.00,-1.00,+1.00,+8.00,-2.00,-6.00,-4.00,+0.00,+6.00,+17.00
+0.00,-22.00,-12.00,-11.00,-17.00,-14.00,-4.00,-13.00,-4.00,-2.00,-2.00,-2.00,-1.00,+0.00,-6.00,-14.00
+39.00,+16.00,+1.00,-4.00,-3.00,-22.00,-4.00,-2.00,-12.00,-6.00,-3.00,-2.00,+0.00,-2.00,-6.00,-4.00
-3.00,-18.00,-7.00,-3.00,-22.00,+42.00,-2.00,-34.00,-17.00,-6.00,+0.00,-1.00,+1.00,-1.00,-1.00,-2.00
-28.00,-29.00,-6.00,-1.00,+29.00,+54.00,+5.00,+22.00,+28.00,+8.00,+6.00,-1.00,+0.00,-2.00,+0.00,-9.00
+16.00,+40.00,+6.00,-1.00,-31.00,-32.00,+5.00,+24.00,-21.00,-10.00,-5.00,-4.00,+0.00,-2.00,+0.00,+0.00
-17.00,+2.00,+12.00,+15.00,+18.00,-74.00,+1.00,-36.00,+4.00,-3.00,-2.00,-1.00,-7.00,-5.00,-8.00,-10.00
+27.00,+26.00,+6.00,+15.00,+40.00,+67.00,+9.00,+14.00,+5.00,-9.00,-5.00,+5.00,+4.00,+2.00,+2.00,-10.00
-1.00,-6.00,+2.00,+0.00,-14.00,-86.00,+6.00,-10.00,-5.00,-5.00,+1.00,+2.00,+10.00,+2.00,+0.00,-4.00
-4.00,+3.00,-3.00,-10.00,-4.00,+4.00,+0.00,+17.00,-5.00,-3.00,+1.00,-5.00,-5.00,-2.00,+0.00,-7.00
-9.00,-2.00,-7.00,-4.00,-24.00,+13.00,-8.00,-9.00,-13.00,-11.00,-7.00,-4.00,-10.00,-2.00,-1.00,+6.00
-25.00,-17.00,-11.00,-4.00,+11.00,-24.00,-16.00,-28.00,-1.00,+12.00,+6.00,+4.00,+0.00,-1.00,-3.00,-1.00
+31.00,+60.00,+11.00,+1.00,-2.00,+33.00,+10.00,+15.00,-4.00,+0.00,-2.00,+2.00,-3.00,-1.00,-1.00,-1.00
-9.00,-37.00,+3.00,+4.00,-4.00,-12.00,-4.00,-19.00,+15.00,-2.00,-1.00,-1.00,+1.00,-2.00,-4.00,-3.00
-13.00,-8.00,-2.00,+5.00,-19.00,+23.00,-4.00,-8.00,-16.00,+2.00,-2.00,+3.00,+5.00,+2.00,-1.00,+1.00
+40.00,+57.00,+11.00,+7.00,+2.00,-26.00,+3.00,+14.00,+10.00,-4.00,-4.00,-3.00,-2.00,+0.00,-1.00,+2.00
-18.00,-14.00,-5.00,-8.00,-9.00,+16.00,-2.00,-3.00,-11.00,-5.00,-2.00,-1.00,-3.00,-1.00,-3.00,-7.00
+27.00,+2.00,-7.00,-12.00,-7.00,-20.00,-3.00,+1.00,-3.00,+2.00,+1.00,+2.00,+2.00,+2.00,+0.00,-5.00
+3.00,+15.00,-16.00,+0.00,+6.00,+19.00,+2.00,+3.00,+0.00,-4.00,-4.00,-2.00,-4.00,-1.00,+1.00,+6.00
-1.00,-24.00,-2.00,-3.00,-1.00,-20.00,-6.00,+8.00,-1.00,-4.00,-7.00,-6.00,-1.00,-1.00,+3.00,+0.00
-4.00,-20.00,-9.00,-7.00,+7.00,-7.00,-5.00,-7.00,-1.00,+2.00,-1.00,-4.00,-7.00,-3.00,-2.00,+1.00
-33.00,+9.00,-7.00,-7.00,-7.00,+0.00,-2.00,-6.00,-3.00,-3.00,+0.00,-1.00,-2.00,-2.00,+0.00,+2.00
-6.00,-12.00,+10.00,+8.00,+8.00,+20.00,+4.00,+0.00,+0.00,+0.00,+1.00,+2.00,+2.00,-1.00,-5.00,-5.00
-11.00,-3.00,-1.00,+0.00,-4.00,-26.00,-11.00,-2.00,-3.00,-1.00,+1.00,-1.00,+0.00,+0.00,-1.00,-6.00
-34.00,-21.00,+0.00,+4.00,-18.00,+2.00,-1.00,+3.00,-10.00,-1.00,-1.00,-3.00,-3.00,-2.00,+1.00,-1.00
-8.00,+11.00,-1.00,+0.00,+9.00,+0.00,+0.00,-5.00,+5.00,+1.00,-2.00,-2.00,-5.00,-2.00,+0.00,-1.00
-2.00,+6.00,+10.00,+2.00,-2.00,+15.00,+0.00,+6.00,-4.00,-1.00,-1.00,-1.00,+0.00,-1.00,-3.00,-2.00
-14.00,+2.00,-7.00,-3.00,+0.00,-15.00,+2.00,+37.00,-4.00,-1.00,-3.00,-2.00,+1.00,+0.00,+2.00,-2.00
-23.00,-4.00,-4.00,-6.00,-10.00,+5.00,+7.00,+9.00,+1.00,+2.00,+1.00,-2.00,-3.00,-2.00,-2.00,-3.00
+3.00,-8.00,-7.00,-3.00,-4.00,+1.00,-2.00,-12.00,+3.00,+0.00,+0.00,-1.00,+1.00,+1.00,-1.00,-2.00
+3.00,+12.00,+5.00,+5.00,+6.00,-2.00,-5.00,+0.00,+0.00,+2.00,+1.00,-1.00,-2.00,+1.00,-2.00,+2.00
