+16.00,+1.00,+4.00,+2.00,+0.00,-11.00,-1.00,-14.00,-1.00,-7.00,-6.00,-2.00,+3.00,+21.00,-7.00,+11.00
-14.00,-13.00,-4.00,-2.00,+3.00,+5.00,+4.00,+21.00,+11.00,+11.00,+3.00,+2.00,+14.00,+8.00,+9.00,+18.00
-10.00,+4.00,+2.00,+0.00,-2.00,+11.00,+1.00,-10.00,-5.00,+2.00,+0.00,+0.00,-5.00,-26.00,-7.00,-20.00
-6.00,+0.00,-3.00,-5.00,-3.00,-12.00,-2.00,+1.00,-3.00,+2.00,-3.00,-5.00,-9.00,-7.00,+1.00,+14.00
+3.00,-6.00,+1.00,+2.00,+2.00,-7.00,+3.00,+13.00,+6.00,-8.00,-6.00,-2.00,-6.00,-4.00,+4.00,+13.00
-7.00,+6.00,-4.00,-3.00,+0.00,-4.00,+2.00,-4.00,-4.00,-1.00,+1.00,+0.00,+0.00,+3.00,-10.00,-23.00
+7.00,+1.00,+1.00,+2.00,+4.00,+12.00,+1.00,-8.00,+1.00,-9.00,-8.00,-7.00,+4.00,+15.00,+6.00,+13.00
-5.00,+5.00,+1.00,-1.00,-4.00,-13.00,-6.00,-17.00,-6.00,+1.00,-1.00,-2.00,+0.00,+0.00,+3.00,-10.00
+17.00,+2.00,+2.00,+2.00,+2.00,+0.00,+0.00,+24.00,-1.00,+3.00,+2.00,+2.00,-1.00,-4.00,-8.00,-15.00
-16.00,-4.00,+3.00,+2.00,+0.00,-6.00,-3.00,-17.00,-7.00,+1.00,+3.00,+6.00,+1.00,+3.00,+6.00,-3.00
+28.00,+1.00,+0.00,+1.00,+2.00,+4.00,-4.00,+1.00,+5.00,-5.00,-1.00,+2.00,+3.00,+6.00,-11.00,+3.00
-35.00,+7.00,+1.00,+0.00,+4.00,+6.00,+21.00,+4.00,+15.00,-6.00,-3.00,-3.00,+2.00,+14.00,-4.00,+29.00
-13.00,-12.00,+2.00,+1.00,+1.00,+6.00,-5.00,+6.00,+3.00,+6.00,+0.00,-1.00,-3.00,+2.00,+20.00,+33.00
+16.00,-10.00,-10.00,-7.00,-5.00,-13.00,+3.00,-5.00,-7.00,+0.00,-2.00,-2.00,-15.00,-59.00,-24.00,-33.00
-28.00,-9.00,-7.00,-4.00,-4.00,-9.00,-14.00,-20.00,-16.00,-6.00,+2.00,+4.00,+7.00,+20.00,-9.00,-26.00
+14.00,-3.00,+5.00,+6.00,+6.00,+9.00,+6.00,-10.00,-3.00,+2.00,+4.00,+7.00,+8.00,-3.00,-3.00,+8.00
-32.00,-15.00,-2.00,-2.00,-1.00,-8.00,-3.00,+5.00,-1.00,-8.00,-6.00,+9.00,+21.00,+0.00,+13.00,+13.00
+7.00,+3.00,-1.00,+2.00,+1.00,-4.00,-11.00,-35.00,-17.00,-5.00,+0.00,-6.00,-4.00,+5.00,-8.00,+4.00
+38.00,+7.00,-1.00,-2.00,+5.00,-7.00,-5.00,+29.00,+15.00,-13.00,-6.00,-22.00,-20.00,-8.00,+8.00,+0.00
-35.00,-21.00,-9.00,-7.00,+5.00,-8.00,+3.00,-19.00,-4.00,+4.00,-4.00,-11.00,-30.00,-8.00,-13.00,+14.00
+16.00,+5.00,+0.00,-3.00,+7.00,+18.00,+8.00,+21.00,+25.00,+28.00,+11.00,-5.00,-6.00,-3.00,-6.00,+12.00
-7.00,-3.00,+7.00,+4.00,+10.00,+27.00,-2.00,-1.00,-21.00,-12.00,+1.00,+9.00,+5.00,+12.00,+11.00,-10.00
-40.00,-6.00,-5.00,-5.00,+3.00,-21.00,-8.00,-15.00,-5.00,-28.00,-4.00,+6.00,+4.00,-16.00,-5.00,-8.00
+23.00,+6.00,+3.00,+0.00,+2.00,-1.00,-11.00,-9.00,-19.00,+6.00,-4.00,+1.00,+5.00,-1.00,+2.00,-30.00
-3.00,-6.00,+2.00,+5.00,+2.00,-31.00,-5.00,-9.00,+2.00,-7.00,-5.00,+1.00,+4.00,-5.00,+4.00,-12.00
-16.00,+3.00,-3.00,-2.00,+0.00,+47.00,-34.00,+4.00,+14.00,+9.00,+0.00,-4.00,-3.00,+8.00,+1.00,+13.00
-16.00,+0.00,-1.00,+0.00,-10.00,-41.00,+67.00,+14.00,+0.00,+10.00,+1.00,+3.00,+2.00,+14.00,-2.00,+9.00
-1.00,-5.00,-2.00,-3.00,+1.00,-11.00,-43.00,-3.00,+2.00,+1.00,+4.00,+0.00,-6.00,-3.00,-2.00,-19.00
-10.00,-8.00,-4.00,-3.00,-6.00,-3.00,+57.00,-23.00,-9.00,-11.00,-8.00,-3.00,+0.00,-22.00,-4.00,+26.00
+5.00,+1.00,+1.00,+4.00,+5.00,-5.00,+18.00,+37.00,+3.00,-3.00,-8.00,-6.00,+3.00,-6.00,+3.00,+12.00
+26.00,+34.00,+6.00,+6.00,+6.00,-24.00,-10.00,+4.00,+3.00,-4.00,+0.00,+0.00,-9.00,+5.00,+5.00,+27.00
+9.00,+13.00,+0.00,+0.00,-12.00,+46.00,-3.00,-16.00,+9.00,-3.00,-10.00,+1.00,+16.00,+4.00,+4.00,+8.00
+22.00,+0.00,+5.00,-3.00,-29.00,-5.00,-17.00,-23.00,-7.00,+13.00,+6.00,-5.00,-16.00,+33.00,+5.00,-37.00
-9.00,+7.00,+3.00,+3.00,+27.00,+53.00,-14.00,-4.00,-3.00,-15.00,-1.00,-3.00,+8.00,-16.00,+9.00,+4.00
+13.00,-23.00,-4.00,-3.00,-5.00,-7.00,-8.00,+13.00,-8.00,+3.00,-13.00,-9.00,-1.00,+54.00,-3.00,-17.00
-51.00,-44.00,-13.00,-9.00,-1.00,-52.00,-11.00,+5.00,-19.00,-12.00,-4.00,-3.00,-27.00,-89.00,-20.00,-30.00
+66.00,+15.00,+5.00,+7.00,+7.00,+0.00,-22.00,+14.00,+53.00,+33.00,+7.00,+4.00,+13.00,-9.00,-3.00,+9.00
+15.00,+24.00,+3.00,-2.00,-22.00,-20.00,+17.00,+17.00,-36.00,-78.00,-17.00,+7.00,+11.00,+19.00,+16.00,-13.00
+16.00,+25.00,-4.00,-4.00,-3.00,-6.00,+3.00,-13.00,-41.00,+101.00,+17.00,+7.00,+6.00,-34.00,-15.00,-41.00
+12.00,-18.00,+8.00,+6.00,+5.00,+4.00,-3.00,-5.00,+1.00,-23.00,-5.00,+0.00,+3.00,+84.00,-17.00,+3.00
-12.00,-33.00,-6.00,-5.00,-13.00,+40.00,+11.00,+11.00,+11.00,+17.00,+0.00,+1.00,-9.00,+2.00,+29.00,-18.00
+18.00,-6.00,+2.00,+1.00,+3.00,-11.00,-15.00,-33.00,+22.00,-41.00,-12.00,+0.00,+13.00,-28.00,-16.00,+4.00
+0.00,-3.00,-2.00,-1.00,-2.00,+36.00,-2.00,+17.00,+10.00,-32.00,-5.00,+0.00,+1.00,+3.00,+22.00,+31.00
+68.00,+10.00,-3.00,+2.00,-12.00,-73.00,-1.00,+14.00,+1.00,+70.00,+5.00,-1.00,+4.00,+13.00,+0.00,-47.00
-7.00,-8.00,-7.00,-5.00,+1.00,+10.00,-8.00,-52.00,-37.00,-42.00,-7.00,-3.00,-11.00,-33.00,-8.00,-25.00
+85.00,+17.00,+4.00,+2.00,-1.00,+16.00,+24.00,+77.00,+31.00,+40.00,+9.00,+3.00,-17.00,+31.00,-9.00,+39.00
-7.00,+6.00,+4.00,+0.00,-1.00,+53.00,+17.00,-13.00,+5.00,-39.00,-8.00,+4.00,+4.00,-28.00,+11.00,+25.00
-16.00,+0.00,+2.00,+1.00,-9.00,-67.00,-43.00,-13.00,-3.00,-35.00,-15.00,-6.00,+19.00,+2.00,+14.00,+17.00
+12.00,-5.00,-1.00,+3.00,+9.00,+3.00,-41.00,-37.00,-12.00,+20.00,+6.00,-1.00,+4.00,+7.00,-8.00,-6.00
+16.00,+25.00,-13.00,-10.00,-15.00,-3.00,+64.00,+13.00,-17.00,+7.00,+1.00,-3.00,-8.00,+27.00,-23.00,-42.00
-6.00,-65.00,-5.00,-6.00,-5.00,-23.00,-37.00,+9.00,+22.00,+5.00,-3.00,-7.00,-12.00,-27.00,-6.00,+7.00
-14.00,+17.00,-10.00,-4.00,+4.00,-2.00,+68.00,+57.00,-25.00,+14.00,+13.00,+6.00,-13.00,-48.00,+3.00,-29.00
-2.00,-40.00,-4.00,+0.00,+4.00,-58.00,+5.00,+4.00,+44.00,+28.00,+2.00,-8.00,-9.00,-48.00,-35.00,+8.00
-105.00,+67.00,+14.00,+2.00,-19.00,+77.00,-68.00,-80.00,-71.00,-87.00,-14.00,-4.00,+15.00,-6.00,+9.00,-15.00
+12.00,-9.00,+6.00,+8.00,+30.00,+0.00,+35.00,+39.00,+4.00,+61.00,-4.00,-3.00,-12.00,-1.00,-3.00,+3.00
-45.00,+35.00,+13.00,-2.00,-29.00,+16.00,+35.00,-9.00,-64.00,-34.00,-2.00,+4.00,+20.00,+44.00,+6.00,-32.00
-19.00,+24.00,-5.00,-5.00,+15.00,-66.00,-37.00,-36.00,+35.00,-23.00,-11.00,+6.00,-3.00,-1.00,+16.00,+16.00
-7.00,-80.00,-10.00,-5.00,-6.00,+0.00,+54.00,-2.00,+11.00,+55.00,+7.00,-14.00,-33.00,+16.00,+1.00,-24.00
-43.00,+9.00,-9.00,-2.00,-7.00,-1.00,-48.00,-27.00,+31.00,-115.00,-13.00,-6.00,+12.00,-21.00,-37.00,-8.00
-12.00,-34.00,-13.00,-4.00,+7.00,+55.00,-30.00,-1.00,+22.00,+87.00,+4.00,+7.00,+4.00,-15.00,+20.00,+19.00
+31.00,+45.00,+18.00,+10.00,+3.00,+11.00,+23.00,+37.00,-30.00,-7.00,-3.00,-6.00,-1.00,+25.00,-54.00,-39.00
-12.00,-32.00,-2.00,-2.00,+2.00,-53.00,-42.00,+8.00,+14.00,+46.00,+3.00,-4.00,-8.00,+35.00,+47.00,+39.00
-9.00,+2.00,-8.00,-1.00,-6.00,-88.00,-22.00,+3.00,-39.00,-45.00,-2.00,+0.00,+7.00,-1.00,-26.00,-31.00
+3.00,-48.00,-12.00,-6.00,+7.00,+78.00,+23.00,-32.00,+70.00,+17.00,+0.00,-18.00,-30.00,-25.00,-25.00,+13.00
-9.00,+16.00,+6.00,+2.00,-10.00,-2.00,-57.00,+15.00,-32.00,-5.00,+9.00,+12.00,+18.00,+61.00,+33.00,+25.00
-6.00,-11.00,+1.00,+5.00,+3.00,-61.00,-12.00,+37.00,+23.00,+33.00,+2.00,+7.00,+13.00,-100.00,-41.00,-6.00
-36.00,-12.00,-5.00,-5.00,-15.00,+53.00,+41.00,-42.00,-26.00,-13.00,+9.00,-11.00,-19.00,+9.00,-29.00,+4.00
+62.00,+16.00,-8.00,-1.00,+8.00,+45.00,+53.00,+54.00,+1.00,-94.00,-13.00,+2.00,+1.00,+4.00,+15.00,+45.00
+14.00,-28.00,-10.00,-5.00,-6.00,-8.00,+38.00,-3.00,-23.00,+76.00,+0.00,-7.00,-3.00,+27.00,-24.00,-50.00
+14.00,+12.00,+25.00,+11.00,+9.00,+4.00,+5.00,+3.00,+28.00,+2.00,+3.00,+7.00,-8.00,+21.00,-3.00,+26.00
+5.00,+8.00,-8.00,-8.00,-4.00,+58.00,-8.00,+14.00,-21.00,+29.00,-1.00,+1.00,+4.00,-44.00,+35.00,-2.00
+65.00,+112.00,+14.00,+6.00,-8.00,-102.00,-42.00,+4.00,-34.00,-46.00,-7.00,+7.00,-9.00,+6.00,-18.00,-21.00
-13.00,-30.00,+1.00,+0.00,-3.00,+69.00,+0.00,+7.00,+16.00,-1.00,+5.00,-12.00,+9.00,-19.00,+23.00,+26.00
+0.00,-29.00,-16.00,-5.00,+7.00,-9.00,-13.00,-45.00,-12.00,-54.00,+5.00,+3.00,+5.00,+27.00,+59.00,+47.00
+13.00,-68.00,-7.00,-4.00,-3.00,+33.00,-8.00,+6.00,+36.00,+51.00,-4.00,+0.00,-2.00,+13.00,+12.00,+14.00
+1.00,+54.00,+34.00,+16.00,-2.00,+30.00,+25.00,+19.00,-14.00,+13.00,+13.00,+11.00,+3.00,+10.00,+1.00,-11.00
-11.00,+2.00,-6.00,-2.00,+17.00,-81.00,-48.00,+5.00,-34.00,-84.00,-31.00,-8.00,+14.00,+8.00,+6.00,+11.00
-44.00,+8.00,-12.00,-9.00,-23.00,-90.00,-7.00,-75.00,+7.00,+54.00,+20.00,+5.00,-7.00,-17.00,-20.00,-24.00
-2.00,-24.00,-15.00,-8.00,+14.00,+100.00,+6.00,-13.00,+21.00,-21.00,-2.00,+4.00,+1.00,+12.00,-12.00,+13.00
-40.00,-94.00,-13.00,+1.00,+6.00,-29.00,-24.00,-1.00,-8.00,-30.00,-8.00,-3.00,+1.00,+36.00,+1.00,+6.00
-6.00,+71.00,+4.00,-1.00,-12.00,+29.00,-61.00,+37.00,+6.00,+40.00,+12.00,+15.00,-27.00,-35.00,-38.00,-23.00
+12.00,-44.00,-1.00,+6.00,+1.00,+1.00,+57.00,-22.00,+8.00,+22.00,+4.00,-3.00,+41.00,+9.00,+24.00,+26.00
+54.00,+67.00,+22.00,+14.00,+15.00,-11.00,+85.00,+39.00,-35.00,+20.00,+6.00,+3.00,-56.00,-39.00,+11.00,-18.00
+3.00,-23.00,-4.00,-11.00,-6.00,+110.00,+10.00,-28.00,+64.00,-5.00,-4.00,-21.00,-5.00,+47.00,+10.00,+20.00
-22.00,-3.00,-8.00,-5.00,-13.00,-66.00,+17.00,-14.00,-18.00,-48.00,-6.00,-3.00,-9.00,-36.00,-42.00,+2.00
-3.00,-24.00,-4.00,+0.00,+6.00,+81.00,-29.00,+45.00,+3.00,-15.00,-10.00,-3.00,-12.00,-21.00,-33.00,-33.00
+3.00,+33.00,+14.00,+6.00,-18.00,-26.00,-44.00,-8.00,-3.00,+65.00,+10.00,-2.00,+6.00,+76.00,+66.00,+19.00
+14.00,+53.00,+2.00,-1.00,-2.00,-43.00,-38.00,-22.00,-31.00,-70.00,-20.00,+9.00,+30.00,+21.00,+0.00,-44.00
-14.00,-53.00,-18.00,-7.00,+0.00,+35.00,+73.00,+50.00,+25.00,+29.00,-3.00,-19.00,-3.00,-34.00,+10.00,+57.00
+54.00,+92.00,+8.00,+0.00,+10.00,+65.00,-1.00,-4.00,+4.00,-5.00,-7.00,-9.00,-9.00,-5.00,-27.00,-19.00
+24.00,-18.00,+1.00,+0.00,+6.00,+18.00,-18.00,-31.00,-2.00,+9.00,+15.00,+11.00,+17.00,-7.00,-3.00,+9.00
-6.00,+19.00,+24.00,+8.00,+15.00,+14.00,-25.00,+15.00,-41.00,-34.00,-23.00,-11.00,-15.00,-8.00,+21.00,-18.00
-36.00,+21.00,+7.00,+2.00,-16.00,-89.00,-17.00,-2.00,+24.00,-63.00,-16.00,+3.00,+13.00,+27.00,+23.00,+18.00
-22.00,+35.00,-4.00,-6.00,-1.00,+36.00,+10.00,+37.00,-10.00,+67.00,+19.00,+5.00,-20.00,-7.00,-24.00,-26.00
-33.00,-44.00,-18.00,-16.00,-10.00,-70.00,-83.00,+35.00,-7.00,+7.00,-7.00,-4.00,+6.00,-2.00,+2.00,+15.00
-37.00,+16.00,-15.00,-8.00,-18.00,+37.00,+46.00,-83.00,+35.00,+18.00,+11.00,+4.00,+4.00,-10.00,+29.00,+12.00
+17.00,-28.00,+6.00,+8.00,+7.00,+50.00,+57.00,+13.00,+3.00,+8.00,-9.00,+4.00,+2.00,-9.00,-17.00,-15.00
-22.00,+39.00,+11.00,+6.00,+0.00,-51.00,+4.00,+4.00,-17.00,-41.00,+9.00,-4.00,+4.00,+11.00,+66.00,+51.00
-20.00,+16.00,-3.00,+2.00,+5.00,+45.00,+30.00,-30.00,+4.00,-5.00,-15.00,+3.00,-2.00,-32.00,-17.00,+4.00
-22.00,-54.00,-16.00,-4.00,+15.00,-8.00,-60.00,-40.00,+1.00,+10.00,+16.00,-2.00,-8.00,-41.00,-17.00,-6.00
+2.00,+18.00,+0.00,-10.00,-13.00,-11.00,+20.00,+49.00,-11.00,-38.00,+0.00,+7.00,+1.00,+5.00,+13.00,-14.00
-14.00,-93.00,-9.00,+0.00,+5.00,+5.00,-73.00,+7.00,+36.00,+49.00,-2.00,-14.00,-10.00,-12.00,-15.00,-24.00
+30.00,+84.00,+6.00,-1.00,-2.00,-55.00,+14.00,+11.00,-3.00,-6.00,-2.00,+1.00,+2.00,+23.00,-9.00,-13.00
+1.00,-17.00,-2.00,-5.00,-11.00,-34.00,+6.00,+9.00,-10.00,+15.00,+12.00,+7.00,+5.00,-11.00,+33.00,+57.00
+1.00,+15.00,-24.00,-12.00,+6.00,+127.00,+28.00,-74.00,-31.00,-8.00,-1.00,+4.00,-4.00,-24.00,+6.00,-22.00
-50.00,-38.00,-7.00,-10.00,-7.00,+6.00,+8.00,+65.00,+28.00,-20.00,-17.00,-9.00,-4.00,+22.00,-13.00,-22.00
-14.00,-8.00,-2.00,+4.00,-3.00,-7.00,-10.00,+50.00,+34.00,+20.00,+21.00,+1.00,+7.00,-22.00,-21.00,-24.00
+60.00,-97.00,+2.00,+4.00,+9.00,+12.00,-3.00,-4.00,+1.00,+32.00,-5.00,-7.00,-22.00,-14.00,+9.00,+3.00
-9.00,+114.00,+27.00,+8.00,+10.00,-6.00,-28.00,-2.00,-22.00,+8.00,+16.00,+3.00,+25.00,+33.00,-18.00,-2.00
+0.00,+36.00,-2.00,+1.00,-8.00,+26.00,+17.00,-83.00,-28.00,-5.00,+29.00,+17.00,+16.00,+28.00,+37.00,+16.00
+1.00,-22.00,+13.00,+5.00,-6.00,-88.00,-23.00,+54.00,-7.00,-79.00,-58.00,-14.00,-1.00,-16.00,+19.00,-6.00
-46.00,-70.00,-31.00,-10.00,-3.00,-5.00,+3.00,+17.00,+1.00,+52.00,+15.00,+9.00,+36.00,+56.00,-10.00,+4.00
-35.00,+30.00,-2.00,-4.00,-1.00,+46.00,-18.00,-48.00,-27.00,+12.00,-9.00,+6.00,-6.00,-45.00,-71.00,-92.00
-11.00,-36.00,+8.00,+1.00,-2.00,-81.00,-15.00,-3.00,+10.00,-2.00,+4.00,-16.00,-26.00,-39.00,+32.00,+78.00
+9.00,+23.00,+14.00,+15.00,+20.00,+107.00,+67.00,-13.00,+45.00,+17.00,+55.00,+21.00,+1.00,+9.00,-31.00,+42.00
+8.00,+24.00,+6.00,-1.00,-6.00,-68.00,-17.00,+29.00,+2.00,-17.00,-33.00,-26.00,-24.00,-37.00,-2.00,+7.00
-2.00,-43.00,+3.00,+6.00,-4.00,-64.00,-13.00,+6.00,+8.00,+3.00,-10.00,-2.00,-5.00,+11.00,+14.00,-1.00
+16.00,+8.00,-19.00,-7.00,-11.00,-1.00,+31.00,+25.00,-16.00,-30.00,-20.00,+2.00,+15.00,+22.00,-30.00,-46.00
-14.00,-36.00,-2.00,+0.00,+35.00,+43.00,-10.00,-77.00,-27.00,-45.00,-9.00,-6.00,-3.00,+20.00,+1.00,-11.00
+59.00,+74.00,-8.00,-3.00,+4.00,+58.00,+1.00,+2.00,+41.00,+52.00,+7.00,+10.00,+3.00,-10.00,-21.00,+35.00
+75.00,-45.00,+8.00,+1.00,-15.00,-10.00,+17.00,+15.00,-4.00,+12.00,+24.00,-2.00,+6.00,+26.00,+38.00,-4.00
+35.00,+20.00,+6.00,+6.00,+34.00,+32.00,+9.00,+27.00,-7.00,+22.00,+2.00,+14.00,-3.00,-9.00,-15.00,-6.00
-11.00,-45.00,-3.00,-3.00,-13.00,-10.00,-22.00,-54.00,-6.00,+0.00,-4.00,-14.00,-9.00,-23.00,+3.00,-11.00
+5.00,+55.00,+8.00,+5.00,+3.00,-46.00,+0.00,-44.00,-23.00,-21.00,+3.00,+11.00,-5.00,-20.00,-16.00,-9.00
-61.00,-9.00,-12.00,+1.00,-1.00,-38.00,-6.00,+15.00,-37.00,-30.00,+1.00,-22.00,-24.00,+26.00,+12.00,-27.00
+28.00,-27.00,-10.00,-12.00,-5.00,+127.00,-4.00,+10.00,+31.00,+17.00,+3.00,+8.00,-5.00,-10.00,+32.00,+54.00
-25.00,-50.00,+1.00,-13.00,-17.00,-39.00,-64.00,-4.00,-11.00,+4.00,+20.00,+18.00,+21.00,+35.00,+11.00,+14.00
+33.00,+67.00,+2.00,+5.00,-7.00,-43.00,+35.00,+82.00,+60.00,+64.00,+6.00,-13.00,-3.00,-19.00,-36.00,-69.00
+35.00,-30.00,-3.00,-3.00,+1.00,+31.00,-12.00,-45.00,+46.00,-36.00,-48.00,-16.00,-14.00,-17.00,-5.00,+14.00
-25.00,+19.00,-5.00,+5.00,-1.00,-58.00,+13.00,-29.00,-23.00,-87.00,-54.00,-21.00,-8.00,-2.00,-36.00,-17.00
-18.00,-39.00,-33.00,+2.00,-9.00,+8.00,+6.00,+17.00,-8.00,+25.00,-2.00,+4.00,-1.00,-10.00,-24.00,-19.00
-14.00,+12.00,+23.00,-19.00,+1.00,+2.00,-15.00,+47.00,-7.00,+44.00,+48.00,+11.00,+10.00,+16.00,+18.00,+13.00
+14.00,-14.00,+4.00,-2.00,-3.00,+40.00,-3.00,+11.00,-101.00,-75.00,-53.00,-2.00,+6.00,+17.00,+4.00,+14.00
+24.00,-32.00,+8.00,+1.00,-1.00,-77.00,+4.00,+15.00,+55.00,+33.00,+50.00,+15.00,+15.00,+19.00,+19.00,+23.00
+18.00,+51.00,-1.00,-3.00,-7.00,+18.00,-12.00,-90.00,-46.00,-32.00,-55.00,-11.00,-7.00,-41.00,-11.00,+11.00
-10.00,+1.00,-21.00,+5.00,-13.00,-55.00,-10.00,+42.00,-8.00,+10.00,+25.00,+11.00,+10.00,+1.00,-15.00,-25.00
-5.00,-2.00,+12.00,-7.00,+1.00,+40.00,-7.00,-34.00,-16.00,+44.00,+15.00,+4.00,+8.00,-18.00,-10.00,-17.00
-4.00,-14.00,-3.00,+8.00,+4.00,+9.00,-9.00,-8.00,+23.00,-4.00,-14.00,+5.00,-5.00,+5.00,+4.00,+28.00
+17.00,+38.00,+5.00,-8.00,-24.00,-49.00,+36.00,+105.00,+7.00,-16.00,-8.00,-7.00,-20.00,+29.00,+20.00,-1.00
-84.00,-17.00,-14.00,-7.00,-3.00,-15.00,-9.00,-82.00,-6.00,-30.00,-8.00,-16.00,+14.00,-5.00,-41.00,-14.00
+23.00,-14.00,+3.00,+5.00,+20.00,+54.00,+17.00,+65.00,+15.00,+22.00,+2.00,-24.00,-35.00,-22.00,+13.00,+10.00
+0.00,-12.00,+2.00,+3.00,-15.00,-57.00,-29.00,-32.00,-20.00,+4.00,-4.00,+7.00,+14.00,-5.00,-18.00,-23.00
-12.00,-39.00,-1.00,+3.00,-31.00,-76.00,+0.00,-60.00,+12.00,+11.00,+14.00,-17.00,+1.00,-2.00,+24.00,+14.00
-3.00,+15.00,+2.00,+0.00,+36.00,+64.00,+43.00,-25.00,+15.00,-53.00,-18.00,+10.00,-11.00,+3.00,-8.00,-1.00
+15.00,+15.00,+3.00,-5.00,-6.00,-64.00,-11.00,+10.00,+38.00,+19.00,+13.00,+16.00,+15.00,-7.00,-31.00,-48.00
+9.00,+96.00,+40.00,-1.00,+11.00,-14.00,+10.00,-4.00,+3.00,+30.00,+4.00,-5.00,-5.00,+9.00,+27.00,+4.00
+51.00,-23.00,+6.00,+5.00,-10.00,+19.00,+15.00,+46.00,+12.00,+10.00,-3.00,+15.00,+13.00,+7.00,-15.00,-13.00
+12.00,-90.00,-18.00,-6.00,-21.00,+28.00,-13.00,-32.00,-5.00,-33.00,+2.00,-11.00,-1.00,-11.00,-4.00,+13.00
-20.00,+97.00,+10.00,+8.00,+0.00,+0.00,-15.00,+8.00,+10.00,+40.00,+4.00,+3.00,-3.00,+25.00,+34.00,+18.00
+1.00,-37.00,-3.00,+1.00,-3.00,+4.00,-3.00,+72.00,-22.00,-79.00,-35.00,-7.00,-9.00,-26.00,-49.00,-67.00
+8.00,+51.00,+16.00,-3.00,+4.00,+61.00,+23.00,-8.00,+2.00,+5.00,+20.00,+4.00,+10.00,+5.00,-6.00,+8.00
-19.00,-14.00,+1.00,+10.00,+2.00,-96.00,-23.00,-29.00,-19.00,+59.00,+71.00,+22.00,-16.00,+1.00,-25.00,+10.00
+65.00,-49.00,-3.00,+6.00,+7.00,+98.00,+17.00,-32.00,+30.00,-20.00,-10.00,-19.00,-31.00,+38.00,+20.00,+34.00
+24.00,-16.00,-31.00,-26.00,-30.00,+32.00,+2.00,+19.00,-8.00,+51.00,+20.00,-11.00,-18.00,-62.00,-45.00,-75.00
+1.00,+46.00,+13.00,+6.00,+3.00,-79.00,-10.00,+41.00,+4.00,-61.00,+14.00,+1.00,+21.00,-26.00,-22.00,-8.00
+11.00,-10.00,+19.00,+8.00,+32.00,+50.00,-5.00,-33.00,-7.00,+11.00,-29.00,-1.00,+17.00,-11.00,-28.00,-35.00
-48.00,-30.00,-31.00,-12.00,+3.00,-12.00,+4.00,-89.00,+36.00,+20.00,+28.00,+19.00,+19.00,+8.00,+34.00,+68.00
-9.00,-10.00,-2.00,+4.00,-36.00,-30.00,-12.00,-22.00,-21.00,+21.00,+6.00,+24.00,+12.00,+42.00,+3.00,-11.00
-19.00,-17.00,-10.00,+5.00,+33.00,+16.00,+12.00,-44.00,+2.00,+8.00,-35.00,-40.00,-56.00,-1.00,+10.00,+35.00
+9.00,+26.00,+4.00,-12.00,-16.00,+21.00,-15.00,+33.00,-15.00,-1.00,+4.00,+7.00,+33.00,+16.00,+43.00,+1.00
-5.00,-26.00,-1.00,+8.00,-8.00,-12.00,+36.00,-33.00,-16.00,-10.00,-1.00,+5.00,+2.00,+11.00,-1.00,+10.00
+0.00,+14.00,-3.00,-6.00,+16.00,+27.00,+19.00,+26.00,-34.00,+12.00,-11.00,-23.00,-15.00,-34.00,-24.00,-4.00
+25.00,+3.00,-2.00,-2.00,-6.00,+25.00,+11.00,+46.00,+4.00,+57.00,+29.00,+4.00,-6.00,+10.00,+50.00,-20.00
+6.00,-15.00,-2.00,-1.00,-18.00,-23.00,-8.00,-10.00,-33.00,-13.00,+0.00,-22.00,-2.00,+16.00,-15.00,+22.00
-19.00,-25.00,-37.00,-14.00,+0.00,-29.00,-26.00,+35.00,-12.00,-108.00,-68.00,-28.00,-9.00,-13.00,+67.00,+31.00
-16.00,+21.00,+7.00,-3.00,+4.00,-3.00,+4.00,+22.00,-10.00,+3.00,-15.00,-2.00,-2.00,+79.00,+44.00,+18.00
+46.00,-31.00,-30.00,+1.00,-1.00,-1.00,-14.00,-96.00,+24.00,+18.00,+15.00,+31.00,+30.00,-96.00,-18.00,-26.00
+40.00,+11.00,-11.00,+16.00,-4.00,+19.00,-5.00,+95.00,-10.00,-50.00,-30.00,-5.00,+15.00,+74.00,+28.00,-15.00
-27.00,+47.00,+54.00,-14.00,-5.00,-48.00,-22.00,-71.00,+3.00,+37.00,+26.00,+13.00,-16.00,-33.00,-15.00,+19.00
+0.00,-22.00,-8.00,+3.00,+4.00,-10.00,+61.00,+50.00,+8.00,+18.00,+16.00,-5.00,+22.00,+11.00,-26.00,-31.00
+13.00,+35.00,+8.00,-19.00,-3.00,+76.00,+26.00,+75.00,+0.00,-7.00,-9.00,-4.00,-10.00,+73.00,+1.00,+17.00
-30.00,-29.00,-17.00,+2.00,+8.00,+56.00,+9.00,-58.00,+20.00,-48.00,-30.00,-1.00,-37.00,-117.00,-16.00,-26.00
+19.00,-24.00,-25.00,-7.00,-18.00,-84.00,+2.00,+33.00,+7.00,+38.00,+37.00,+17.00,+23.00,+15.00,+28.00,-27.00
+4.00,-15.00,+14.00,+4.00,-24.00,+72.00,-9.00,+30.00,-3.00,+60.00,+29.00,+19.00,+2.00,+5.00,+14.00,+19.00
-14.00,+26.00,-2.00,+4.00,-1.00,-89.00,-37.00,+22.00,-8.00,-66.00,-32.00,-23.00,+0.00,+31.00,+0.00,-5.00
+9.00,-11.00,+6.00,-2.00,+16.00,+31.00,+1.00,-3.00,+0.00,-29.00,-24.00,+7.00,+1.00,-6.00,+26.00,+53.00
-3.00,-11.00,+10.00,+7.00,+14.00,+37.00,+2.00,+33.00,-3.00,+18.00,+34.00,+5.00,-5.00,+24.00,-35.00,-51.00
-22.00,+1.00,-9.00,-7.00,+0.00,+4.00,-16.00,-127.00,+17.00,+2.00,+18.00,-3.00,+32.00,-2.00,+31.00,+41.00
-8.00,-48.00,-33.00,+1.00,+2.00,+7.00,+17.00,+68.00,-12.00,+40.00,-6.00,-1.00,+0.00,-5.00,-19.00,+6.00
+2.00,+10.00,+11.00,-12.00,-18.00,-7.00,+0.00,-44.00,+11.00,+57.00,+42.00,-11.00,-30.00,+55.00,+86.00,+32.00
+29.00,+73.00,+35.00,+2.00,-19.00,-37.00,-27.00,+61.00,-9.00,-94.00,-62.00,-13.00,+13.00,-31.00,-96.00,-53.00
+52.00,-4.00,-14.00,-3.00,-6.00,-78.00,-66.00,-100.00,+5.00,-12.00,+12.00,-1.00,-28.00,-23.00,-7.00,-33.00
-47.00,-15.00,+11.00,+10.00,+5.00,+101.00,+92.00,-14.00,+14.00,+27.00,+13.00,+8.00,+13.00,+65.00,+11.00,+31.00
+35.00,+21.00,+15.00,+3.00,-12.00,-13.00,+12.00,+0.00,-10.00,+12.00,-11.00,-6.00,+22.00,-72.00,+0.00,-52.00
-3.00,-39.00,-1.00,+15.00,-18.00,+7.00,+4.00,+51.00,+12.00,+53.00,+18.00,-10.00,-23.00,-3.00,-9.00,+61.00
+48.00,+50.00,+8.00,+1.00,+3.00,+39.00,+2.00,+17.00,-6.00,-8.00,+28.00,-14.00,+1.00,-6.00,-64.00,-31.00
-24.00,-43.00,-11.00,-18.00,-13.00,-56.00,-60.00,+18.00,-2.00,-61.00,-37.00,-3.00,-5.00,-13.00,-36.00,+19.00
-53.00,-24.00,-9.00,-13.00,-10.00,+22.00,+21.00,-18.00,+15.00,+115.00,+29.00,-2.00,-40.00,+14.00,-13.00,-38.00
-4.00,-20.00,-9.00,+2.00,+4.00,+4.00,-11.00,-24.00,+1.00,-17.00,+13.00,+8.00,+18.00,+11.00,-16.00,-51.00
-24.00,-18.00,-15.00,+4.00,+8.00,-11.00,-13.00,-24.00,-25.00,-37.00,-45.00,-10.00,-12.00,-14.00,-37.00,+34.00
+0.00,+24.00,+11.00,+3.00,-3.00,-22.00,-55.00,-118.00,+6.00,-35.00,-34.00,-2.00,+9.00,-16.00,-35.00,-34.00
-42.00,+28.00,+13.00,+11.00,+9.00,+4.00,+27.00,+80.00,+0.00,+10.00,+16.00,+9.00,-7.00,-9.00,+2.00,-3.00
+12.00,-21.00,-8.00,-11.00,-1.00,-36.00,-67.00,+69.00,-11.00,+41.00,+3.00,+1.00,-21.00,-50.00,+11.00,-24.00
-21.00,-35.00,-10.00,+11.00,+23.00,+57.00,+80.00,+61.00,+9.00,-28.00,+12.00,+0.00,-39.00,+93.00,+55.00,+14.00
+2.00,+36.00,+20.00,+1.00,-13.00,-38.00,-20.00,-1.00,-23.00,+100.00,+18.00,-12.00,+35.00,-98.00,-22.00,-44.00
-40.00,-66.00,-33.00,-12.00,-7.00,-32.00,-44.00,-87.00,-12.00,-108.00,-48.00,-16.00,-8.00,+18.00,-43.00,-63.00
+17.00,+27.00,+15.00,+0.00,+1.00,+35.00,+18.00,+79.00,-15.00,+11.00,+5.00,+8.00,-17.00,+6.00,+46.00,+90.00
+6.00,-2.00,+4.00,-9.00,-5.00,-32.00,-24.00,-27.00,+25.00,+2.00,-14.00,+6.00,+43.00,-22.00,-23.00,+34.00
+46.00,+1.00,+27.00,+17.00,+13.00,+6.00,+0.00,+80.00,-4.00,+77.00,+73.00,+27.00,+14.00,+124.00,+127.00,+66.00
+22.00,+18.00,-16.00,-14.00,-18.00,+6.00,+15.00,+113.00,-7.00,-87.00,-77.00,-46.00,-80.00,-79.00,-114.00,-49.00
-38.00,-24.00,+4.00,+13.00,+41.00,+52.00,+39.00,-109.00,-3.00,+30.00,+27.00,+12.00,+103.00,-23.00,+5.00,-55.00
-10.00,-21.00,-51.00,-24.00,-6.00,-19.00,-10.00,+26.00,-28.00,-55.00,-21.00,-7.00,-11.00,-27.00,-54.00,-79.00
-47.00,+14.00,+16.00,-12.00,+1.00,+3.00,-13.00,-9.00,+39.00,+41.00,+65.00,+20.00,+15.00,+29.00,+63.00,+49.00
+74.00,-16.00,-12.00,+3.00,+11.00,-2.00,-14.00,-38.00,-2.00,+14.00,+1.00,+14.00,+30.00,+50.00,+105.00,+98.00
-83.00,-57.00,+5.00,+19.00,+8.00,+7.00,-8.00,+51.00,+27.00,+73.00,+47.00,+3.00,-30.00,+54.00,-12.00,-11.00
-37.00,+81.00,+1.00,-18.00,+2.00,-27.00,+15.00,-101.00,+4.00,+93.00,+55.00,+16.00,-15.00,-64.00,-58.00,-15.00
-1.00,+22.00,+16.00,+3.00,+10.00,-67.00,-51.00,-86.00,-35.00,-102.00,-104.00,-38.00,-43.00,-94.00,+32.00,+72.00
+23.00,+9.00,-16.00,-5.00,+8.00,+54.00,+0.00,+52.00,+10.00,+69.00,+40.00,+18.00,-8.00,+64.00,-32.00,-30.00
-19.00,-28.00,-28.00,-3.00,+0.00,+10.00,+52.00,-83.00,-8.00,-11.00,+17.00,+12.00,+39.00,+66.00,+53.00,-47.00
+32.00,+19.00,+33.00,+16.00,+15.00,-37.00,-118.00,-17.00,+23.00,+75.00,+26.00,+2.00,+22.00,-21.00,+25.00,+1.00
-87.00,-73.00,-47.00,-24.00,-12.00,+24.00,+65.00,-77.00,-24.00,-46.00,-23.00,-5.00,-12.00,+50.00,-42.00,-40.00
+47.00,+37.00,+34.00,+12.00,+18.00,+27.00,+44.00,+97.00,+3.00,-13.00,+0.00,+30.00,+44.00,-118.00,+102.00,+117.00
+11.00,-9.00,-22.00,-17.00,-6.00,-49.00,-51.00,-56.00,-4.00,-18.00,-21.00,+18.00,+30.00,+28.00,-32.00,-89.00
-14.00,-6.00,+30.00,+20.00,-4.00,-28.00,+46.00,+117.00,-2.00,-24.00,-12.00,+7.00,-26.00,-10.00,-19.00,+34.00
+17.00,-21.00,-42.00,-26.00,-17.00,+7.00,-36.00,+20.00,+23.00,+70.00,+42.00,+0.00,-4.00,-27.00,-59.00,+11.00
+22.00,+54.00,+35.00,+21.00,+11.00,+20.00,+32.00,+44.00,-11.00,-37.00,-24.00,-2.00,+26.00,+50.00,+64.00,+62.00
+12.00,+25.00,+3.00,+2.00,+4.00,+60.00,+97.00,-74.00,+12.00,-54.00,-8.00,+0.00,-14.00,+39.00,+50.00,-1.00
+28.00,+20.00,-17.00,-20.00,-12.00,-14.00,-37.00,+34.00,-11.00,-50.00,-39.00,-11.00,-46.00,+67.00,+83.00,+89.00
+93.00,+9.00,-14.00,+25.00,+13.00,+66.00,+63.00,+39.00,+20.00,+81.00,+53.00,+24.00,+56.00,-101.00,-54.00,-128.00
-55.00,-71.00,+5.00,-2.00,-15.00,-44.00,-16.00,-21.00,+0.00,-84.00,-30.00,-19.00,+8.00,+15.00,+13.00,+54.00
-31.00,+32.00,+10.00,-10.00,-16.00,-33.00,-47.00,-55.00,-1.00,+86.00,+41.00,+21.00,-7.00,-17.00,-33.00,+72.00
-20.00,-98.00,-78.00,+5.00,+13.00,+8.00,+9.00,+30.00,-32.00,-111.00,-113.00,-36.00,+4.00,+41.00,-3.00,-61.00
-38.00,+98.00,+89.00,+8.00,+12.00,+28.00,-10.00,-70.00,-1.00,+57.00,+37.00,+6.00,-27.00,+56.00,+10.00,+3.00
+19.00,+12.00,-5.00,-11.00,-16.00,-9.00,-11.00,+70.00,-12.00,+48.00,+30.00,-10.00,-7.00,+2.00,-76.00,+5.00
+38.00,+0.00,+19.00,-2.00,-11.00,-64.00,-42.00,-60.00,-2.00,-110.00,-38.00,-22.00,-21.00,-67.00,-10.00,-27.00
-37.00,-60.00,-62.00,-10.00,-2.00,+41.00,+68.00,-78.00,-24.00,-6.00,+1.00,+6.00,+5.00,-15.00,+5.00,-75.00
-36.00,-2.00,-9.00,-4.00,-22.00,-88.00,-113.00,-55.00,-4.00,+11.00,-12.00,-5.00,+0.00,+11.00,+39.00,+87.00
-80.00,-21.00,-13.00,-1.00,+46.00,+65.00,+40.00,-82.00,-12.00,+36.00,+14.00,+24.00,+24.00,+24.00,-75.00,-128.00
+99.00,+21.00,+8.00,+3.00,-80.00,-35.00,+27.00,+127.00,+18.00,+105.00,+44.00,-5.00,-13.00,+73.00,+39.00,+92.00
-5.00,-6.00,+26.00,+9.00,+64.00,+20.00,-7.00,-51.00,-18.00,-90.00,-87.00,-27.00,-3.00,-125.00,+68.00,+85.00
+0.00,-19.00,+22.00,+21.00,+53.00,+38.00,+36.00,-48.00,+26.00,-8.00,+31.00,+40.00,+25.00,+32.00,+97.00,+60.00
-17.00,-8.00,-27.00,-25.00,+0.00,-55.00,-101.00,-128.00,-3.00,+22.00,+13.00,+10.00,+8.00,+29.00,-19.00,+44.00
-6.00,-1.00,-4.00,+6.00,+22.00,+37.00,+17.00,-58.00,+9.00,-9.00,-16.00,-14.00,-48.00,+61.00,+89.00,+122.00
-36.00,+8.00,+33.00,+5.00,-36.00,-66.00,-99.00,+96.00,+13.00,+80.00,+31.00,-32.00,-27.00,-7.00,-5.00,-127.00
+93.00,-14.00,-29.00,-8.00,+49.00,+73.00,+127.00,+83.00,-1.00,-59.00,-7.00,-9.00,-7.00,-80.00,-17.00,+31.00
+6.00,+23.00,+49.00,+28.00,+53.00,-3.00,+11.00,+73.00,-5.00,-14.00,-9.00,-9.00,-14.00,-16.00,-3.00,+1.00
-4.00,-53.00,-42.00,-26.00,+23.00,+5.00,-2.00,+40.00,-16.00,-39.00,-40.00,-15.00,+12.00,-57.00,+18.00,-40.00
+9.00,+44.00,+14.00,-1.00,+30.00,+13.00,+6.00,-56.00,+6.00,+95.00,+96.00,+47.00,-6.00,+83.00,-65.00,+2.00
-53.00,-100.00,+5.00,+22.00,+28.00,-15.00,-62.00,-86.00,-16.00,-5.00,-61.00,-34.00,-33.00,-52.00,-125.00,-49.00
+52.00,+17.00,-88.00,-50.00,-8.00,-48.00,-45.00,-74.00,+19.00,-81.00,-45.00,-14.00,-1.00,+29.00,-13.00,-38.00
+42.00,+107.00,+46.00,+15.00,+21.00,+67.00,+79.00,+115.00,-74.00,-26.00,-31.00,-11.00,-18.00,-86.00,-65.00,-73.00
-9.00,-7.00,+25.00,+4.00,-29.00,+4.00,+18.00,-38.00,+34.00,+74.00,+23.00,-24.00,-48.00,-15.00,-32.00,+41.00
-28.00,+12.00,-6.00,-5.00,-39.00,-10.00,-13.00,-43.00,-27.00,-121.00,-24.00,-6.00,-11.00,-50.00,-64.00,-69.00
+27.00,-38.00,+12.00,+7.00,-28.00,-8.00,+7.00,+60.00,+40.00,+121.00,+63.00,+28.00,+24.00,+68.00,+77.00,+67.00
-83.00,-90.00,-73.00,-19.00,-31.00,-99.00,-123.00,-15.00,+2.00,-78.00,-51.00,-30.00,-62.00,-16.00,-21.00,+54.00
+32.00,+55.00,+48.00,+3.00,-9.00,+74.00,+13.00,-46.00,-3.00,+15.00,+27.00,+25.00,+118.00,+5.00,-38.00,-42.00
+60.00,+70.00,+5.00,+4.00,-63.00,+13.00,+89.00,+127.00,-1.00,-61.00,-34.00,-5.00,-70.00,-1.00,+78.00,-83.00
-37.00,-13.00,+3.00,-4.00,+61.00,-29.00,-60.00,-74.00,-29.00,+10.00,-30.00,-25.00,+30.00,-67.00,-68.00,-49.00
-83.00,-45.00,-16.00,-18.00,+17.00,-40.00,-77.00,-2.00,+1.00,+2.00,+17.00,+15.00,+12.00,+44.00,-76.00,-101.00
+31.00,-14.00,+25.00,+34.00,+70.00,-5.00,+50.00,+57.00,+2.00,+11.00,+13.00,+10.00,+32.00,+44.00,-34.00,+85.00
+9.00,+28.00,-16.00,-13.00,+11.00,+64.00,+67.00,+29.00,-25.00,+31.00,+2.00,-5.00,-62.00,+24.00,-54.00,-55.00
-47.00,-26.00,+7.00,+5.00,-63.00,-3.00,-9.00,-16.00,+42.00,-53.00,+20.00,+29.00,+50.00,+42.00,+90.00,-128.00
+14.00,+74.00,+33.00,-2.00,-15.00,+32.00,+31.00,+100.00,+13.00,+45.00,+19.00,-8.00,+17.00,-18.00,+73.00,+103.00
-12.00,-83.00,-29.00,+0.00,-29.00,-26.00,-43.00,-72.00,+4.00,+39.00,+40.00,+30.00,+27.00,+38.00,-20.00,-101.00
+14.00,-15.00,-60.00,-25.00,-40.00,-50.00,-59.00,+17.00,+3.00,-68.00,-58.00,-36.00,-28.00,-7.00,+4.00,+77.00
-55.00,+69.00,+82.00,+25.00,-40.00,-22.00,+1.00,+60.00,-54.00,+52.00,+16.00,+10.00,-62.00,-81.00,-83.00,-7.00
-60.00,-11.00,-21.00,+3.00,-27.00,+33.00,-4.00,-121.00,+70.00,+85.00,+62.00,+44.00,+61.00,+96.00,+67.00,-127.00
-15.00,-29.00,-24.00,-36.00,-104.00,-42.00,-63.00,-40.00,-20.00,-4.00,-49.00,-11.00,+33.00,+30.00,+107.00,+66.00
+17.00,+51.00,+30.00,+15.00,-43.00,+31.00,+34.00,+11.00,+28.00,-38.00,+17.00,+7.00,+27.00,+13.00,-50.00,+15.00
-39.00,-46.00,-32.00,-15.00,-84.00,-14.00,+3.00,-101.00,-58.00,-50.00,-64.00,-17.00,-13.00,-57.00,-110.00,-81.00
+39.00,+49.00,+30.00,+10.00,-38.00,-46.00,-52.00,-67.00,+3.00,-70.00,-42.00,-15.00,-19.00,-9.00,+29.00,+103.00
+27.00,-33.00,+7.00,+6.00,-32.00,-22.00,-18.00,+66.00,-3.00,+25.00,+30.00,+7.00,-20.00,-13.00,+70.00,-15.00
-60.00,+2.00,-9.00,-14.00,-17.00,-7.00,-26.00,-22.00,-9.00,+51.00,+26.00,+3.00,+13.00,+77.00,-9.00,-100.00
-11.00,-14.00,-1.00,+6.00,-7.00,+49.00,+47.00,-10.00,+12.00,-8.00,-30.00,-16.00,+4.00,+43.00,+17.00,+127.00
+37.00,+5.00,+11.00,+2.00,-39.00,-18.00,-22.00,-45.00,-22.00,+32.00,-1.00,-30.00,-33.00,-109.00,-128.00,-118.00
+31.00,-34.00,-16.00,-5.00,+25.00,+10.00,+74.00,+42.00,+25.00,-14.00,+1.00,+9.00,-25.00,-3.00,+8.00,+44.00
-52.00,-67.00,-37.00,-20.00,-8.00,-107.00,-128.00,-9.00,-22.00,+7.00,+0.00,+54.00,+97.00,+9.00,-20.00,-17.00
+119.00,+96.00,+46.00,+31.00,+25.00,+102.00,+110.00,+127.00,+17.00,-1.00,+9.00,-42.00,-55.00,+80.00,+82.00,+29.00
-54.00,-65.00,-8.00,-1.00,+17.00,+39.00,+7.00,-99.00,+14.00,-5.00,-19.00,-35.00,-29.00,+21.00,-89.00,-17.00
+53.00,+72.00,+1.00,+2.00,+37.00,+8.00,+56.00,+73.00,-6.00,+39.00,+49.00,+10.00,+6.00,-3.00,-97.00,-100.00
+13.00,-6.00,+29.00,-1.00,+15.00,-1.00,-23.00,+26.00,-4.00,-14.00,-59.00,-6.00,+8.00,-69.00,-32.00,-38.00
-81.00,-13.00,-12.00,+9.00,+24.00,-38.00,-101.00,-128.00,-28.00,-32.00,+2.00,-13.00,-40.00,-41.00,+117.00,+115.00
+5.00,-51.00,-42.00,+13.00,+30.00,+20.00,+54.00,+127.00,-18.00,-59.00,-41.00,-1.00,+13.00,-19.00,+43.00,+45.00
-7.00,+109.00,+45.00,-12.00,+9.00,+12.00,+27.00,-52.00,-11.00,+21.00,+19.00,+2.00,-17.00,-29.00,-75.00,-18.00
-18.00,+22.00,-7.00,+4.00,+32.00,+6.00,+49.00,-27.00,-15.00,+127.00,-11.00,-14.00,+10.00,+67.00,+57.00,+46.00
+35.00,-22.00,-17.00,-27.00,+7.00,-2.00,+0.00,-13.00,+61.00,-69.00,-13.00,+16.00,+17.00,+24.00,+69.00,-30.00
-12.00,-12.00,+19.00,+15.00,+50.00,-7.00,-32.00,+31.00,+28.00,-100.00,-41.00,-6.00,+4.00,-19.00,+25.00,+104.00
+12.00,+66.00,+4.00,+2.00,+31.00,+57.00,+72.00,+111.00,-36.00,-71.00,-36.00,-9.00,-13.00,-9.00,-54.00,-58.00
+4.00,-8.00,+0.00,+8.00,+22.00,-25.00,-57.00,-75.00,-24.00,+11.00,+34.00,+1.00,-12.00,+19.00,+94.00,+72.00
-81.00,-29.00,-21.00,-14.00,-5.00,-8.00,+35.00,-65.00,-35.00,+62.00,-8.00,-11.00,-1.00,+42.00,+46.00,+72.00
+7.00,-1.00,+23.00,+17.00,+25.00,+30.00,+33.00,+107.00,+48.00,+87.00,+65.00,+32.00,+32.00,-1.00,+110.00,-61.00
+54.00,-17.00,-3.00,+4.00,-19.00,+24.00,+38.00,+52.00,-11.00,-14.00,-15.00,+6.00,+3.00,-63.00,+44.00,+87.00
-27.00,+4.00,+7.00,-12.00,-73.00,-1.00,-4.00,-92.00,-28.00,-24.00,-5.00,-33.00,-52.00,-34.00,-84.00,-9.00
-57.00,-37.00,-16.00,+1.00,+60.00,+18.00,-35.00,-42.00,+4.00,+14.00,+20.00,+22.00,+64.00,+27.00,-40.00,-22.00
-10.00,+7.00,-6.00,-15.00,+10.00,-50.00,-17.00,-54.00,-12.00,+79.00,+24.00,+0.00,-44.00,-57.00,-96.00,-49.00
+48.00,-72.00,-40.00,+8.00,+32.00,+6.00,-50.00,-12.00,+8.00,-19.00,-35.00,-23.00,+8.00,+17.00,+63.00,+82.00
+127.00,+43.00,+21.00,+9.00,-4.00,+32.00,+108.00,-22.00,+22.00,-74.00,-29.00,-14.00,+16.00,+76.00,+98.00,+79.00
+54.00,-58.00,-8.00,-9.00,-24.00,-46.00,-74.00,-65.00,-21.00,-5.00,+3.00,+14.00,+5.00,-115.00,-108.00,-64.00
+127.00,+65.00,+35.00,+7.00,+17.00,+35.00,+31.00,+19.00,+15.00,+57.00,+32.00,+19.00,-6.00,+17.00,+6.00,-74.00
-20.00,-81.00,+6.00,-1.00,-31.00,-52.00,-83.00,+23.00,-15.00,-12.00,-13.00,-17.00,+12.00,-60.00,-63.00,-94.00
-127.00,-115.00,-74.00,-41.00,-7.00,-30.00,-41.00,-53.00,+31.00,-8.00,+9.00,-5.00,-29.00,+13.00,-84.00,-74.00
+25.00,+108.00,+100.00,+22.00,-3.00,+23.00,+50.00,+68.00,+9.00,+33.00,-4.00,-10.00,+43.00,+53.00,-38.00,-39.00
-63.00,+35.00,+10.00,-7.00,-3.00,+13.00,-1.00,-128.00,+27.00,+52.00,+49.00,+24.00,+10.00,-1.00,+82.00,+85.00
-82.00,+19.00,+33.00,+12.00,-15.00,-13.00,-13.00,-47.00,-5.00,-37.00,+7.00,+21.00,+5.00,+26.00,+7.00,-26.00
+15.00,-19.00,-1.00,+6.00,+10.00,+5.00,-24.00,-8.00,+24.00,+5.00,+38.00,+10.00,+2.00,+27.00,-2.00,-59.00
-112.00,-81.00,-59.00,-30.00,-39.00,-72.00,-92.00,-87.00,-47.00,-9.00,-8.00,-21.00,-56.00,-47.00,-85.00,+4.00
+116.00,+16.00,+22.00,+24.00,+19.00,+73.00,+95.00,+124.00,+16.00,-123.00,-39.00,+5.00,+25.00,+59.00,+79.00,+93.00
-99.00,-10.00,-28.00,-18.00,-27.00,-2.00,-17.00,-128.00,+6.00,+31.00,+10.00,-9.00,-40.00,-16.00,-10.00,+16.00
-100.00,-20.00,-4.00,-2.00,+9.00,-30.00,-62.00,-67.00,-28.00,-36.00,+9.00,+12.00,+61.00,-69.00,-86.00,-88.00
+0.00,+15.00,-8.00,+0.00,-4.00,+46.00,+33.00,+62.00,+63.00,+72.00,+38.00,+25.00,+2.00,+22.00,-43.00,-46.00
-124.00,-29.00,+8.00,+13.00,+0.00,-29.00,-33.00,-95.00,-32.00,-37.00,+3.00,-25.00,-10.00,+8.00,-127.00,-78.00
-47.00,+19.00,-50.00,-17.00,-4.00,-16.00,+37.00,-15.00,+21.00,-40.00,-20.00,-21.00,-64.00,+63.00,+120.00,+42.00
-36.00,+33.00,+25.00,+3.00,+9.00,-32.00,-36.00,+74.00,-49.00,-13.00,+10.00,-3.00,+12.00,-20.00,+42.00,+77.00
-53.00,-10.00,+6.00,+2.00,-10.00,+30.00,-22.00,-27.00,+65.00,+41.00,+43.00,+17.00,+50.00,+5.00,+71.00,-45.00
-20.00,-21.00,-19.00,+0.00,+11.00,+51.00,+89.00,+57.00,-35.00,+1.00,-16.00,+4.00,+7.00,+9.00,-74.00,-10.00
-25.00,+18.00,+29.00,+13.00,+15.00,+22.00,-5.00,+4.00,+6.00,-14.00,-24.00,-3.00,-23.00,-5.00,-35.00,+67.00
+39.00,+32.00,+25.00,+9.00,+16.00,+24.00,+63.00,+127.00,+1.00,+44.00,+1.00,-24.00,-27.00,-18.00,+72.00,+37.00
-28.00,-8.00,-28.00,-22.00,-22.00,-73.00,-46.00,+5.00,+5.00,+45.00,+34.00,+8.00,-20.00,-15.00,+49.00,+20.00
-40.00,-18.00,-6.00,-5.00,-9.00,-1.00,-23.00,-37.00,-16.00,+67.00,+33.00,+17.00,+14.00,+21.00,-95.00,-57.00
-15.00,-45.00,+59.00,+14.00,-15.00,-16.00,-14.00,+32.00,-2.00,-87.00,-77.00,-18.00,+13.00,-1.00,+79.00,+75.00
+45.00,+35.00,-74.00,-29.00,+51.00,+25.00,+26.00,+54.00,+19.00,+97.00,+84.00,+24.00,-10.00,-48.00,+12.00,-14.00
-22.00,-92.00,-34.00,-4.00,+8.00,-8.00,-17.00,-7.00,-13.00,-115.00,-67.00,-27.00,+0.00,+62.00,+23.00,-94.00
-55.00,+35.00,+39.00,-12.00,-1.00,-43.00,-52.00,+72.00,-40.00,+113.00,+32.00,-9.00,-45.00,-88.00,+86.00,+38.00
+2.00,-45.00,-2.00,+4.00,+2.00,+2.00,+40.00,+76.00,-38.00,-50.00,-23.00,-14.00,+6.00,+15.00,-34.00,-98.00
-33.00,-12.00,+28.00,+3.00,-23.00,+23.00,-1.00,+22.00,+94.00,+31.00,+14.00,+33.00,+36.00,+57.00,+33.00,+23.00
+58.00,-23.00,+5.00,+30.00,+28.00,+74.00,+127.00,+127.00,-28.00,+28.00,-28.00,-36.00,-78.00,+20.00,+6.00,+127.00
+84.00,-14.00,-43.00,-18.00,+3.00,-41.00,-66.00,-29.00,-4.00,+5.00,+10.00,+19.00,+47.00,-71.00,-80.00,-15.00
-69.00,+5.00,-26.00,-13.00,-2.00,-25.00,-56.00,-33.00,-6.00,+127.00,+73.00,+11.00,-14.00,+125.00,-6.00,-98.00
+50.00,+45.00,+46.00,+19.00,-2.00,+4.00,-2.00,+75.00,-17.00,-128.00,-78.00,+7.00,+49.00,-116.00,-115.00,+24.00
+100.00,+24.00,-20.00,+11.00,+20.00,+26.00,+78.00,+68.00,+30.00,+12.00,+39.00,-1.00,-38.00,+80.00,+86.00,+58.00
+0.00,-11.00,+5.00,-7.00,-23.00,-8.00,-1.00,-118.00,+6.00,+8.00,-17.00,-11.00,+34.00,+111.00,+78.00,+66.00
+6.00,+24.00,-12.00,-5.00,+0.00,+19.00,+8.00,+25.00,-15.00,+28.00,+34.00,+4.00,-50.00,+25.00,-98.00,-54.00
-47.00,-75.00,-3.00,+17.00,+3.00,-13.00,+29.00,-52.00,-42.00,+5.00,+36.00,+11.00,+29.00,+49.00,-6.00,+3.00
+4.00,+81.00,+19.00,-8.00,+3.00,-9.00,-8.00,+85.00,-15.00,-116.00,-74.00,-6.00,+20.00,-107.00,-2.00,+99.00
+5.00,-39.00,-6.00,+8.00,+2.00,-14.00,-15.00,-43.00,+36.00,+50.00,+4.00,+7.00,+23.00,+43.00,+38.00,+42.00
-5.00,+11.00,+23.00,+2.00,+2.00,-5.00,-43.00,-107.00,+2.00,-67.00,-37.00,+10.00,+21.00,-52.00,-39.00,-11.00
+45.00,-48.00,-83.00,-26.00,-8.00,+6.00,+22.00,-92.00,-14.00,+10.00,+56.00,+5.00,-28.00,+94.00,+63.00,-55.00
-18.00,+45.00,+62.00,-4.00,-12.00,-35.00,-32.00,-54.00,-14.00,+4.00,-15.00,-8.00,+5.00,-28.00,-50.00,-44.00
-54.00,-79.00,-80.00,-23.00,-12.00,+30.00,+25.00,-40.00,-30.00,-45.00,-44.00,-41.00,-87.00,-88.00,+26.00,+87.00
-85.00,+56.00,-4.00,-32.00,-17.00,-28.00,-17.00,-40.00,+90.00,+2.00,+1.00,+10.00,+75.00,+42.00,+91.00,+85.00
+1.00,+20.00,+63.00,+58.00,+35.00,+34.00,+22.00,-89.00,-3.00,-34.00,-6.00,-17.00,-65.00,-28.00,-34.00,+84.00
-73.00,-22.00,+2.00,+2.00,-6.00,-68.00,-89.00,-101.00,+0.00,+74.00,+119.00,+31.00,+23.00,-23.00,-60.00,+17.00
+34.00,+18.00,+8.00,-3.00,+12.00,+75.00,+85.00,+125.00,-46.00,-99.00,-88.00,-36.00,+7.00,-8.00,-20.00,-43.00
+15.00,-63.00,-69.00,-11.00,-8.00,-95.00,-114.00,-92.00,-51.00,-9.00,-31.00,-20.00,-51.00,-55.00,+6.00,-22.00
-57.00,+74.00,+16.00,-9.00,+43.00,+124.00,+121.00,+127.00,+21.00,-2.00,-6.00,+17.00,+19.00,+52.00,-35.00,-102.00
-2.00,-25.00,-9.00,+4.00,+6.00,+45.00,-1.00,-127.00,-2.00,-23.00,+51.00,+18.00,+4.00,-50.00,-45.00,-9.00
+8.00,+53.00,+45.00,+29.00,+23.00,+13.00,+22.00,+72.00,+3.00,-4.00,-51.00,-7.00,-15.00,-51.00,-17.00,+25.00
+59.00,-45.00,-12.00,-3.00,+0.00,-3.00,+9.00,+39.00,+19.00,+42.00,+32.00,+25.00,+108.00,+27.00,+80.00,+127.00
-40.00,-41.00,+2.00,-13.00,-19.00,-59.00,-53.00,+56.00,-3.00,+30.00,-38.00,-33.00,-61.00,+108.00,-76.00,-99.00
-49.00,+0.00,-2.00,-6.00,-6.00,-8.00,-32.00,-58.00,+4.00,+66.00,+5.00,-23.00,-113.00,+8.00,+9.00,-36.00
+88.00,-10.00,-19.00,-2.00,-14.00,+10.00,+37.00,+87.00,-53.00,-60.00,+4.00,+8.00,+103.00,-62.00,-128.00,-128.00
+32.00,+56.00,+32.00,+18.00,+2.00,+19.00,+33.00,-15.00,+54.00,-91.00,-31.00,-15.00,-44.00,-84.00,+58.00,+95.00
-64.00,-111.00,+6.00,-4.00,-27.00,-34.00,-30.00,+59.00,+7.00,+42.00,+24.00,+19.00,+29.00,+14.00,+57.00,+127.00
+53.00,+34.00,-66.00,-19.00,-23.00,+4.00,+39.00,+102.00,+6.00,-13.00,+15.00,-1.00,-39.00,+48.00,+25.00,-7.00
-64.00,+31.00,+15.00,-14.00,-14.00,-49.00,-122.00,-118.00,-26.00,+18.00,-39.00,-19.00,-55.00,+22.00,-55.00,-56.00
+71.00,+1.00,+37.00,+25.00,+6.00,+22.00,+20.00,+65.00,-23.00,-62.00,-54.00,-8.00,+0.00,+1.00,-4.00,-31.00
+6.00,+77.00,+33.00,+3.00,-20.00,-2.00,+35.00,-122.00,+79.00,+5.00,-25.00,-4.00,+64.00,-44.00,+53.00,+27.00
-2.00,-117.00,-44.00,-8.00,-9.00,+34.00,+34.00,+0.00,-51.00,+74.00,+16.00,+17.00,+29.00,+7.00,+1.00,+14.00
-51.00,+38.00,+0.00,-15.00,-17.00,-21.00,-57.00,-125.00,+56.00,-69.00,-37.00,-14.00,-18.00,+9.00,+50.00,-44.00
-41.00,+22.00,+25.00,+5.00,-50.00,-13.00,-15.00,+25.00,-47.00,+16.00,+25.00,+1.00,+7.00,-1.00,-72.00,-44.00
+72.00,+37.00,+11.00,+4.00,+71.00,+5.00,-25.00,+95.00,-33.00,+7.00,-10.00,-9.00,-34.00,-2.00,-39.00,-34.00
+31.00,-39.00,-2.00,+7.00,-6.00,-26.00,-37.00,-47.00,-4.00,+16.00,-4.00,+54.00,+78.00,+19.00,+54.00,-50.00
+9.00,+6.00,-1.00,+2.00,-2.00,+26.00,+14.00,-67.00,+35.00,+63.00,+75.00,+0.00,-20.00,+93.00,+90.00,+127.00
+6.00,-7.00,-12.00,-19.00,-23.00,+2.00,-4.00,+42.00,-19.00,-7.00,-10.00,-3.00,-52.00,-106.00,-48.00,-128.00
+12.00,-32.00,-4.00,-8.00,-9.00,-42.00,-70.00,-98.00,-10.00,-15.00,-1.00,+8.00,+52.00,+6.00,+40.00,+78.00
-28.00,+19.00,+14.00,+8.00,+8.00,-59.00,-52.00,-88.00,+20.00,+18.00,-11.00,-61.00,-62.00,+16.00,+27.00,+101.00
-62.00,-48.00,-52.00,-26.00,-9.00,+35.00,+31.00,+32.00,-55.00,-4.00,+18.00,-32.00,-81.00,+99.00,-83.00,-104.00
-19.00,+35.00,+26.00,+16.00,+10.00,+101.00,+94.00,-12.00,+40.00,-64.00,-6.00,+11.00,+51.00,-63.00,+63.00,+127.00
-80.00,-38.00,-15.00,-14.00,-32.00,-7.00,-29.00,-3.00,-19.00,+22.00,+15.00,+4.00,-23.00,+13.00,-6.00,+4.00
+73.00,+15.00,+13.00,+27.00,+35.00,-14.00,+20.00,+83.00,+11.00,+9.00,+34.00,+13.00,+51.00,+6.00,-51.00,-51.00
-39.00,-77.00,-6.00,-37.00,-46.00,-82.00,-100.00,-46.00,-20.00,-53.00,-56.00,+3.00,+4.00,+50.00,-32.00,+60.00
-23.00,+16.00,+8.00,+3.00,+28.00,+2.00,+57.00,+25.00,-18.00,+55.00,+10.00,-5.00,-24.00,+24.00,-56.00,-20.00
-28.00,-22.00,-11.00,-8.00,-11.00,+41.00,+15.00,-55.00,+31.00,+63.00,+26.00,+10.00,+7.00,-32.00,+39.00,+25.00
+8.00,+65.00,+59.00,+14.00,-11.00,-3.00,-14.00,-97.00,-42.00,-81.00,-52.00,-8.00,+1.00,+2.00,-91.00,-48.00
+86.00,+32.00,+45.00,+34.00,+37.00,+21.00,+74.00,+98.00,+46.00,-31.00,+13.00,+13.00,+0.00,-27.00,+73.00,+92.00
-22.00,-12.00,-46.00,-23.00,+4.00,-8.00,-41.00,-103.00,-14.00,+14.00,+14.00,+1.00,+3.00,+6.00,+4.00,+0.00
-46.00,+15.00,+17.00,+1.00,-24.00,-42.00,-45.00,-84.00,-11.00,+44.00,+2.00,+2.00,+5.00,+19.00,+81.00,+44.00
-65.00,-48.00,-26.00,-24.00,-45.00,-38.00,-50.00,-34.00,-15.00,-26.00,-7.00,-11.00,-21.00,-13.00,+23.00,-45.00
+16.00,+11.00,-5.00,+13.00,+31.00,-15.00,+31.00,+124.00,+24.00,+40.00,+64.00,+45.00,+58.00,-25.00,+45.00,+80.00
+46.00,-19.00,+2.00,+10.00,+47.00,+71.00,+61.00,+101.00,-11.00,-11.00,-8.00,+4.00,+31.00,+38.00,-22.00,-65.00
+55.00,+15.00,-6.00,+2.00,-22.00,-7.00,-16.00,-10.00,-13.00,-24.00,-24.00,-26.00,-87.00,-23.00,+14.00,-92.00
-63.00,-17.00,-16.00,-9.00,+107.00,-21.00,-6.00,+102.00,-1.00,+9.00,-21.00,-29.00,-28.00,-53.00,-75.00,+73.00
-13.00,-41.00,-9.00,+9.00,+70.00,-100.00,-84.00,-76.00,+44.00,+92.00,+58.00,+44.00,+74.00,+65.00,+82.00,+59.00
+15.00,+51.00,+12.00,-2.00,+65.00,+64.00,+58.00,+36.00,-2.00,-22.00,-6.00,-9.00,+1.00,+75.00,+48.00,+65.00
+2.00,-10.00,+0.00,+12.00,-12.00,-17.00,-36.00,-11.00,-5.00,+21.00,+36.00,-14.00,-40.00,-43.00,-104.00,-95.00
+16.00,-54.00,-16.00,-23.00,-54.00,-1.00,-7.00,+9.00,+23.00,-46.00,-34.00,-7.00,+11.00,-21.00,-22.00,+68.00
+1.00,+41.00,-7.00,-17.00,-48.00,-18.00,-15.00,+21.00,-13.00,+39.00,+15.00,-3.00,-25.00,-18.00,-47.00,-86.00
-60.00,-39.00,-43.00,-4.00,-36.00,-42.00,-49.00,-95.00,-14.00,-30.00,-19.00,+2.00,+5.00,+22.00,-14.00,-13.00
+63.00,+16.00,+6.00,-4.00,-22.00,+1.00,+5.00,-8.00,+13.00,+77.00,+52.00,+25.00,+32.00,+52.00,+22.00,+3.00
+57.00,+39.00,+18.00,+1.00,-27.00,+20.00,+34.00,+55.00,+16.00,-43.00,-48.00,-2.00,+1.00,-7.00,-12.00,-6.00
+2.00,+22.00,+7.00,+10.00,-3.00,+31.00,+33.00,-3.00,-34.00,-53.00,-9.00,-9.00,+2.00,-36.00,-38.00,-24.00
+10.00,-28.00,+4.00,-4.00,-28.00,-25.00,-38.00,-128.00,+24.00,+79.00,+47.00,-1.00,-24.00,+11.00,-1.00,-8.00
+1.00,-47.00,-33.00,-3.00,+34.00,+13.00,+27.00,+123.00,-14.00,-64.00,-46.00,+1.00,+32.00,-2.00,-58.00,-29.00
+8.00,+65.00,+23.00,+7.00,+100.00,+4.00,+24.00,-4.00,+20.00,+126.00,+42.00,+7.00,-1.00,-4.00,+73.00,+92.00
-17.00,-33.00,-7.00,-3.00,+108.00,+49.00,-24.00,+8.00,-5.00,-40.00,+7.00,+14.00,+9.00,+26.00,+17.00,-10.00
+22.00,+9.00,+0.00,-3.00,+127.00,-56.00,-16.00,+102.00,-18.00,-3.00,-27.00,-55.00,-109.00,-85.00,-62.00,-29.00
+12.00,+14.00,+21.00,+15.00,+127.00,-23.00,-24.00,+5.00,+43.00,+2.00,+30.00,+36.00,+84.00,+60.00,+82.00,+70.00
+1.00,-14.00,+1.00,+7.00,-53.00,-23.00,-30.00,+99.00,-10.00,-32.00,-35.00,+5.00,+52.00,+86.00,+32.00,-17.00
+26.00,+4.00,+7.00,+7.00,-88.00,+29.00,+47.00,-76.00,-5.00,-2.00,+2.00,+19.00,-30.00,-111.00,+12.00,-70.00
-42.00,+7.00,+7.00,-7.00,-126.00,-50.00,-49.00,+35.00,+13.00,+11.00,+17.00,-49.00,-43.00,+12.00,-22.00,+73.00
+54.00,+1.00,+8.00,+12.00,-98.00,+76.00,+67.00,-15.00,-15.00,-1.00,-3.00,-6.00,-15.00,+54.00,+44.00,-27.00
+7.00,+27.00,-2.00,+1.00,-108.00,+21.00,+48.00,+16.00,-4.00,+18.00,+35.00,-7.00,-22.00,-35.00,-6.00,-24.00
-54.00,-55.00,-36.00,-12.00,-117.00,-15.00,-11.00,-12.00,-39.00,-21.00,-7.00,-4.00,+34.00,+6.00,-47.00,+36.00
-29.00,+9.00,+15.00,+1.00,-96.00,+0.00,-10.00,-33.00,+39.00,-17.00,+1.00,+19.00,+13.00,+4.00,-7.00,+19.00
-84.00,-49.00,+11.00,+14.00,-60.00,-31.00,-16.00,-41.00,-32.00,+27.00,+0.00,-22.00,-28.00,-17.00,+12.00,+26.00
-17.00,+45.00,-22.00,-25.00,-32.00,+24.00,+6.00,-42.00,-8.00,+96.00,+75.00,+21.00,-8.00,-18.00,-78.00,-99.00
-68.00,+2.00,-8.00,-3.00,-39.00,-2.00,+4.00,-4.00,-46.00,-32.00,-2.00,-7.00,-13.00,-7.00,+21.00,+95.00
-3.00,-13.00,+3.00,+3.00,-9.00,-13.00,-11.00,-27.00,+8.00,+4.00,+5.00,+7.00,+4.00,-38.00,+67.00,-64.00
-93.00,+1.00,+16.00,-2.00,-36.00,-39.00,-60.00,-46.00,+33.00,-105.00,-27.00,-10.00,+8.00,+32.00,-21.00,-51.00
+79.00,+25.00,-43.00,-12.00,+20.00,+29.00,+61.00,+78.00,-14.00,-6.00,-6.00,+17.00,-8.00,-14.00,+23.00,+29.00
+49.00,+12.00,-6.00,-10.00,-26.00,-34.00,+3.00,-53.00,+30.00,+93.00,+42.00,+14.00,+40.00,+3.00,-62.00,-111.00
+28.00,-7.00,+6.00,+6.00,+21.00,-21.00,-90.00,-30.00,-5.00,+43.00,+20.00,+26.00,+61.00,+65.00,+66.00,+74.00
+40.00,+17.00,-6.00,+10.00,+26.00,+62.00,+87.00,+85.00,-27.00,-26.00,-49.00,-26.00,-65.00,-96.00,-43.00,+47.00
-41.00,-37.00,+17.00,+7.00,+7.00,-23.00,-41.00,-128.00,+41.00,-7.00,+10.00,+5.00,+2.00,+88.00,+38.00,-91.00
+9.00,+11.00,+8.00,+8.00,+15.00,+16.00,+75.00,+20.00,+7.00,-25.00,-33.00,+5.00,+23.00,+48.00,+62.00,+22.00
+0.00,-17.00,-5.00,+7.00,+88.00,+44.00,+14.00,+9.00,+1.00,+62.00,+22.00,-5.00,-6.00,-59.00,+4.00,+73.00
-11.00,-16.00,+9.00,-6.00,+9.00,-51.00,-55.00,-50.00,-18.00,-64.00,-22.00,+0.00,+13.00,-14.00,+30.00,-50.00
-13.00,+8.00,-27.00,-5.00,+102.00,+34.00,+6.00,-6.00,-46.00,-49.00,-11.00,+3.00,+23.00,-3.00,-2.00,+55.00
-43.00,-3.00,-12.00,-2.00,+62.00,-4.00,-10.00,+34.00,+86.00,+30.00,+45.00,-9.00,-18.00,+46.00,-14.00,-17.00
-34.00,+26.00,+40.00,+19.00,+32.00,+5.00,+27.00,-42.00,-2.00,-100.00,-80.00,-11.00,+9.00,+24.00,+17.00,-80.00
+23.00,+51.00,-29.00,-27.00,+36.00,-4.00,-18.00,-8.00,-36.00,-31.00,+12.00,+3.00,-9.00,-32.00,-128.00,-71.00
+28.00,-66.00,+29.00,+24.00,-36.00,-14.00,+15.00,+63.00,-20.00,-59.00,-63.00,-21.00,-9.00,-20.00,-50.00,+9.00
-74.00,-33.00,-72.00,-47.00,-59.00,-12.00,-35.00,-128.00,+2.00,-7.00,-59.00,-12.00,-2.00,+4.00,+4.00,+17.00
+97.00,-34.00,+12.00,+21.00,-58.00,-9.00,-14.00,+124.00,+0.00,-11.00,+22.00,+13.00,-7.00,-14.00,-37.00,-18.00
+64.00,+106.00,+58.00,+2.00,-42.00,+15.00,+40.00,-37.00,-59.00,-9.00,-1.00,+4.00,-15.00,-7.00,-12.00,-14.00
-7.00,-15.00,+18.00,+9.00,-22.00,-3.00,-7.00,+38.00,+94.00,+0.00,-8.00,-9.00,+35.00,-25.00,-53.00,-117.00
+4.00,-36.00,+10.00,+10.00,-13.00,+17.00,+0.00,-60.00,-10.00,+50.00,+33.00,+37.00,+11.00,-4.00,-32.00,-51.00
-61.00,-73.00,-44.00,-22.00,-50.00,-43.00,-44.00,-103.00,+34.00,+49.00,+17.00,+9.00,-27.00,+8.00,-21.00,-41.00
+10.00,-44.00,-39.00,-25.00,-18.00,+17.00,-72.00,-33.00,-27.00,-5.00,-18.00,-59.00,-49.00,+5.00,+26.00,+27.00
+20.00,-2.00,+24.00,+28.00,+39.00,+49.00,+72.00,+10.00,-15.00,-4.00,-1.00,-30.00,-24.00,+4.00,-61.00,+40.00
+24.00,+24.00,+29.00,+12.00,+10.00,-2.00,+19.00,-3.00,+5.00,-8.00,-11.00,-18.00,+5.00,-35.00,+55.00,+21.00
+1.00,-32.00,-45.00,-12.00,+39.00,+43.00,+20.00,-55.00,-6.00,+6.00,+17.00,+16.00,+22.00,+21.00,-48.00,+17.00
-38.00,+56.00,+37.00,+28.00,-10.00,-43.00,-34.00,-108.00,+33.00,+5.00,+8.00,+28.00,+42.00,-13.00,-50.00,-11.00
-60.00,+22.00,+14.00,-5.00,-24.00,-5.00,-18.00,-87.00,-15.00,-1.00,-4.00,-2.00,-23.00,-47.00,+27.00,+54.00
+10.00,-65.00,-22.00,-8.00,+9.00,-10.00,-25.00,+5.00,-3.00,+12.00,-1.00,-6.00,-27.00,+33.00,-15.00,-9.00
-52.00,+67.00,+38.00,-3.00,-23.00,-22.00,-27.00,-116.00,-40.00,-34.00,+2.00,+14.00,+28.00,+27.00,+14.00,+26.00
+38.00,-36.00,-63.00,-23.00,-1.00,+22.00,+74.00,+99.00,+23.00,-35.00,-67.00,-22.00,-11.00,-2.00,+41.00,-3.00
+1.00,-18.00,-36.00,-9.00,-12.00,+4.00,-9.00,-19.00,-5.00,-11.00,-1.00,+15.00,+19.00,+1.00,+10.00,+0.00
+4.00,+75.00,+70.00,+14.00,+1.00,-18.00,-15.00,-5.00,-26.00,-23.00,-12.00,-9.00,-18.00,-24.00,-14.00,+1.00
+16.00,-12.00,-4.00,-2.00,-1.00,+10.00,+11.00,+5.00,+5.00,+50.00,+24.00,-7.00,+3.00,+13.00,+15.00,+13.00
+34.00,-14.00,-7.00,+0.00,+8.00,+3.00,+10.00,-1.00,+2.00,+40.00,+15.00,-4.00,-13.00,-9.00,-48.00,+75.00
-9.00,+4.00,+25.00,+5.00,-60.00,-41.00,-24.00,+87.00,+14.00,-15.00,+9.00,+4.00,+1.00,-5.00,+24.00,-35.00
-7.00,-31.00,-27.00,-11.00,+18.00,+13.00,+1.00,+3.00,-13.00,-21.00,-13.00,+16.00,-9.00,-14.00,+0.00,+11.00
+7.00,-2.00,-9.00,+2.00,+7.00,+49.00,+38.00,-6.00,+4.00,+13.00,+9.00,-1.00,+6.00,-2.00,-14.00,+1.00
+24.00,-1.00,+22.00,+24.00,+77.00,-41.00,-25.00,+32.00,-17.00,+1.00,+1.00,+10.00,+65.00,-3.00,-35.00,+12.00
+42.00,+4.00,-21.00,-12.00,+39.00,-20.00,-2.00,+56.00,+5.00,+9.00,+5.00,-17.00,-90.00,+8.00,+1.00,+2.00
-18.00,+9.00,+5.00,+5.00,+19.00,+63.00,-26.00,+71.00,+17.00,+15.00,+15.00,-2.00,+29.00,-28.00,+1.00,+27.00
+28.00,+11.00,+7.00,-1.00,-21.00,-80.00,+47.00,+76.00,-13.00,+1.00,-8.00,-4.00,-9.00,+10.00,+20.00,+13.00
-17.00,-37.00,-18.00,-12.00,-43.00,+17.00,-7.00,-47.00,+13.00,+2.00,+4.00,+3.00,-13.00,+3.00,-28.00,+19.00
-28.00,-1.00,-4.00,-13.00,-21.00,-16.00,-47.00,-26.00,-19.00,-27.00,+0.00,+15.00,+25.00,-1.00,+9.00,+6.00
+60.00,-26.00,-6.00,+11.00,+13.00,-26.00,+24.00,+44.00,-9.00,-11.00,-7.00,-13.00,-9.00,-7.00,+14.00,-26.00
-73.00,+48.00,+9.00,-11.00,+1.00,+8.00,-28.00,+2.00,-25.00,-29.00,+4.00,+8.00,-8.00,-8.00,-18.00,-27.00
+42.00,+24.00,+10.00,+4.00,-7.00,+12.00,+17.00,+66.00,-3.00,+19.00,+2.00,+7.00,+5.00,+7.00,+14.00,-37.00
-4.00,+19.00,+15.00,+3.00,+8.00,-1.00,-8.00,-48.00,+12.00,+3.00,-21.00,+0.00,+17.00,+3.00,+9.00,-18.00
+8.00,+33.00,+16.00,+5.00,-9.00,+3.00,-23.00,+56.00,-5.00,+3.00,+14.00,-13.00,-34.00,-11.00,-28.00,+24.00
-27.00,-37.00,-30.00,-10.00,+1.00,+5.00,+8.00,-45.00,-5.00,-9.00,-18.00,+0.00,+19.00,-4.00,-16.00,-24.00
-25.00,-22.00,-4.00,-2.00,+9.00,-21.00,-1.00,+6.00,+4.00,+33.00,+30.00,+10.00,-19.00,-2.00,+11.00,-29.00
+3.00,-1.00,+7.00,+1.00,-7.00,+29.00,+9.00,+12.00,-9.00,-5.00,+3.00,-12.00,+3.00,-5.00,-5.00,+10.00
-24.00,-3.00,+16.00,+7.00,+14.00,+1.00,+7.00,-1.00,-17.00,-8.00,-12.00,-6.00,-6.00,-4.00,-9.00,+2.00
+8.00,-7.00,-8.00,-8.00,-64.00,-14.00,+15.00,+16.00,+39.00,+22.00,+13.00,+31.00,+27.00,-4.00,-7.00,-25.00
-15.00,+5.00,-4.00,-7.00,+43.00,+26.00,+6.00,-100.00,+1.00,-32.00,-17.00,-36.00,-11.00,+14.00,+42.00,+51.00
-27.00,-6.00,+6.00,+12.00,+57.00,+42.00,-30.00,-53.00,-15.00,-3.00,-8.00,-11.00,-14.00,+2.00,-14.00,-19.00
+34.00,+0.00,-7.00,-5.00,-13.00,-89.00,+0.00,+51.00,+4.00,-10.00,-2.00,-6.00,-4.00,-26.00,-4.00,+3.00
-19.00,-14.00,-8.00,-4.00,+30.00,+111.00,-13.00,+66.00,-17.00,+6.00,+2.00,+27.00,+21.00,-1.00,-13.00,-33.00
-44.00,-18.00,-12.00,-4.00,-45.00,-76.00,-17.00,+56.00,+18.00,+18.00,+1.00,-25.00,-66.00,+2.00,+7.00,+20.00
-63.00,-6.00,-6.00,-13.00,-28.00,-12.00,+27.00,+20.00,-10.00,+29.00,+5.00,-2.00,+30.00,-4.00,-4.00,-4.00
-30.00,+29.00,+21.00,+7.00,+9.00,+44.00,-25.00,-9.00,-17.00,-49.00,-3.00,-12.00,-10.00,+0.00,-45.00,+9.00
-25.00,+14.00,-28.00,-20.00,-17.00,-60.00,-7.00,+4.00,-18.00,-12.00,-6.00,-16.00,-7.00,-10.00,+54.00,+2.00
-33.00,-13.00,-4.00,-3.00,-1.00,+33.00,+11.00,+10.00,+16.00,+13.00,-17.00,+6.00,-6.00,-6.00,+4.00,-6.00
-4.00,+16.00,+14.00,+8.00,+6.00,-1.00,-5.00,-5.00,-12.00,-30.00,-10.00,-5.00,+8.00,+4.00,+12.00,+24.00
+14.00,+7.00,-11.00,+3.00,+1.00,+8.00,+1.00,-11.00,-2.00,+32.00,+6.00,-2.00,-19.00,+3.00,+1.00,-8.00
+13.00,-6.00,+4.00,+2.00,+5.00,+6.00,+7.00,-33.00,+7.00,-27.00,+16.00,-1.00,+4.00,-7.00,-20.00,-8.00
+33.00,-22.00,-3.00,+3.00,-5.00,-2.00,+6.00,+4.00,-42.00,-59.00,-23.00,+0.00,+10.00,+1.00,+3.00,-19.00
-25.00,-16.00,-10.00,-7.00,+6.00,-8.00,-6.00,-52.00,+3.00,+28.00,+19.00,+12.00,-11.00,-1.00,+12.00,+4.00
+1.00,+7.00,+5.00,+4.00,-21.00,-3.00,+2.00,-7.00,+23.00,+4.00,-1.00,+1.00,+44.00,-2.00,-12.00,-23.00
+64.00,+2.00,+9.00,+10.00,+18.00,+25.00,+12.00,-1.00,-2.00,-3.00,-20.00,-9.00,-40.00,+3.00,-17.00,+3.00
+15.00,-8.00,-7.00,-14.00,-19.00,-42.00,-36.00,-55.00,+8.00,+30.00,+19.00,-7.00,+29.00,-6.00,+7.00,+11.00
+38.00,-6.00,+2.00,+7.00,+19.00,+6.00,-18.00,+31.00,+4.00,-10.00,-14.00,-5.00,+2.00,-12.00,-23.00,-4.00
+40.00,+7.00,-1.00,+4.00,+34.00,+22.00,+73.00,-5.00,-21.00,+12.00,-2.00,-4.00,-27.00,+0.00,-1.00,-45.00
+39.00,-10.00,-4.00,-7.00,-64.00,-30.00,+3.00,+0.00,+1.00,-15.00,-18.00,-14.00,-5.00,+2.00,+3.00,+14.00
-12.00,-3.00,-6.00,+3.00,+51.00,+74.00,-35.00,-34.00,+35.00,+58.00,+30.00,+31.00,+40.00,+26.00,-3.00,+7.00
+10.00,-19.00,-9.00,+1.00,+9.00,-35.00,+44.00,+19.00,-29.00,-68.00,-16.00,+1.00,-25.00,+4.00,+7.00,-32.00
-39.00,+33.00,-5.00,-22.00,+0.00,+34.00,-39.00,+0.00,+10.00,-20.00,-12.00,-11.00,-1.00,-2.00,+3.00,+0.00
-76.00,-35.00,-19.00,-6.00,-5.00,-56.00,-6.00,-79.00,-3.00,+35.00,+11.00,-13.00,-15.00,-4.00,-10.00,+8.00
-53.00,+17.00,-3.00,-1.00,-21.00,+39.00,-2.00,+10.00,-4.00,+1.00,+7.00,+20.00,+7.00,-14.00,-5.00,+1.00
-89.00,-53.00,-10.00,-13.00,-21.00,-24.00,-36.00,-34.00,+3.00,+24.00,+3.00,-5.00,+13.00,+3.00,-3.00,-16.00
+58.00,+15.00,+7.00,+14.00,+9.00,-17.00,-8.00,+17.00,-11.00,-2.00,-1.00,+0.00,-7.00,+9.00,+17.00,+16.00
+34.00,+10.00,+2.00,-3.00,+6.00,+11.00,-11.00,+10.00,+15.00,-15.00,-9.00,-12.00,-1.00,-5.00,-11.00,+14.00
+33.00,+51.00,+17.00,+8.00,+5.00,+19.00,+7.00,+6.00,-17.00,+4.00,+3.00,+8.00,-4.00,-5.00,+8.00,+14.00
+40.00,-7.00,-14.00,-7.00,-27.00,-45.00,-5.00,-15.00,+3.00,+21.00,+8.00,+2.00,+7.00,+7.00,-1.00,+16.00
-8.00,-59.00,-11.00,-8.00,-13.00,-23.00,-9.00,-28.00,+7.00,+3.00,+4.00,+6.00,-5.00,-5.00,+3.00,-2.00
+12.00,-2.00,+11.00,+2.00,-4.00,+24.00,+18.00,+5.00,-6.00,-14.00,+2.00,+4.00,+10.00,-1.00,-2.00,+18.00
+11.00,-21.00,-6.00,+6.00,+45.00,-10.00,-42.00,-12.00,+5.00,-22.00,-9.00,-15.00,-16.00,-6.00,+1.00,-17.00
+35.00,+23.00,+10.00,+4.00,+16.00,+2.00,+50.00,+10.00,-6.00,+23.00,+13.00,+7.00,+4.00,+2.00,+10.00,+6.00
+18.00,-2.00,-8.00,-7.00,-6.00,-7.00,+0.00,-3.00,+4.00,-13.00,-8.00,+12.00,+19.00,-2.00,-4.00,+2.00
-8.00,+6.00,+4.00,+3.00,+12.00,-13.00,-53.00,+25.00,+0.00,+7.00,+2.00,+1.00,+14.00,+8.00,-1.00,+1.00
-6.00,-25.00,-5.00,-3.00,-32.00,-31.00,+53.00,+24.00,-10.00,-5.00,+1.00,-2.00,-29.00,-12.00,-10.00,-39.00
+24.00,+65.00,+21.00,+6.00,-4.00,+31.00,-42.00,-5.00,-10.00,-26.00,-18.00,-6.00,+6.00,-4.00,-1.00,+10.00
-44.00,-18.00,-11.00,-4.00,-3.00,+6.00,-5.00,-13.00,+35.00,+25.00,+9.00,-6.00,-2.00,+16.00,+2.00,+16.00
-32.00,-8.00,-3.00,+6.00,+37.00,+12.00,-15.00,-8.00,+9.00,+15.00,-15.00,-8.00,-15.00,-2.00,-8.00,-11.00
-26.00,-16.00,-11.00,-6.00,-37.00,-21.00,+0.00,+37.00,-8.00,+4.00,+11.00,+7.00,+15.00,-3.00,-4.00,-36.00
+16.00,+6.00,+7.00,+3.00,-6.00,-10.00,-13.00,-4.00,+23.00,-7.00,-5.00,+8.00,+15.00,+6.00,-8.00,+35.00
-19.00,-15.00,-12.00,-12.00,-11.00,+22.00,+6.00,-8.00,+3.00,+0.00,+0.00,-3.00,-21.00,-7.00,+10.00,-7.00
+16.00,+7.00,+0.00,+4.00,+12.00,-23.00,+26.00,+7.00,-14.00,+36.00,+28.00,+11.00,+8.00,-26.00,-11.00,-37.00
-13.00,-5.00,+15.00,+6.00,-9.00,-40.00,-17.00,-18.00,+22.00,+12.00,-17.00,-8.00,-2.00,+11.00,+2.00,+16.00
+30.00,+9.00,-7.00,-3.00,-5.00,+72.00,+20.00,+4.00,-14.00,-86.00,-53.00,-2.00,+3.00,-11.00,+6.00,-17.00
+10.00,+11.00,-6.00,+2.00,+11.00,-10.00,-12.00,+16.00,-7.00,-10.00,-19.00,-8.00,-1.00,+0.00,-12.00,+2.00
+16.00,+3.00,+16.00,+3.00,+12.00,+26.00,+9.00,+6.00,+9.00,+5.00,+6.00,+0.00,-5.00,+4.00,-9.00,-11.00
-4.00,-18.00,-6.00,-7.00,-12.00,-23.00,+13.00,-7.00,-8.00,+18.00,+12.00,-10.00,-15.00,-11.00,+1.00,+9.00
-12.00,+17.00,-3.00,-3.00,-23.00,-16.00,+4.00,-1.00,-8.00,+15.00,+28.00,+15.00,+7.00,+1.00,-4.00,-18.00
-17.00,-2.00,+4.00,+2.00,-22.00,-12.00,-19.00,-16.00,+21.00,-32.00,-53.00,-11.00,-5.00,-6.00,-2.00,-3.00
+19.00,-2.00,-3.00,+1.00,+36.00,+43.00,+11.00,+5.00,-52.00,-27.00,-18.00,-5.00,-22.00,+4.00,-1.00,-8.00
+2.00,+5.00,+1.00,+5.00,+11.00,-23.00,+11.00,+5.00,+11.00,-6.00,+5.00,+15.00,+35.00,-2.00,+2.00,+4.00
+23.00,+3.00,+6.00,+1.00,-12.00,-36.00,-28.00,-10.00,+19.00,+35.00,+10.00,-13.00,-23.00,-1.00,+4.00,+4.00
-13.00,+2.00,-3.00,-1.00,-1.00,+13.00,+63.00,+3.00,-12.00,-23.00,+11.00,-1.00,+11.00,-4.00,-3.00,-1.00
-3.00,-3.00,-3.00,-1.00,-3.00,-68.00,-22.00,-13.00,+0.00,+35.00,+9.00,+12.00,-5.00,+1.00,+3.00,+14.00
-29.00,+6.00,-6.00,-7.00,-4.00,+96.00,+21.00,-25.00,-19.00,-27.00,-10.00,-17.00,-16.00,-3.00,-10.00,-17.00
-43.00,-20.00,-6.00,-4.00,-10.00,-5.00,-37.00,-31.00,-2.00,-26.00,-4.00,+16.00,+33.00,+3.00,+3.00,+0.00
-17.00,+3.00,+9.00,+8.00,+17.00,+3.00,-3.00,+11.00,+12.00,+36.00,+18.00,-15.00,-16.00,+1.00,+3.00,-4.00
-1.00,-13.00,-27.00,-2.00,-6.00,-15.00,+1.00,+17.00,+13.00,-7.00,-8.00,-4.00,+0.00,-8.00,-9.00,+0.00
+12.00,+6.00,+20.00,-2.00,-17.00,-12.00,-2.00,+17.00,+2.00,-15.00,-2.00,-8.00,-10.00,+17.00,-2.00,+11.00
-16.00,-4.00,-10.00,-14.00,-1.00,+1.00,+8.00,-32.00,-15.00,+19.00,+1.00,-1.00,-2.00,-7.00,-2.00,-42.00
-8.00,+18.00,+6.00,+3.00,+6.00,-3.00,-11.00,-3.00,+7.00,-16.00,+4.00,+10.00,+1.00,+4.00,+2.00,+60.00
-17.00,+2.00,-3.00,+3.00,-3.00,+22.00,-3.00,+9.00,-30.00,-3.00,-11.00,-14.00,+9.00,+11.00,+0.00,-40.00
-40.00,+0.00,-7.00,-2.00,-5.00,-18.00,-6.00,-12.00,+17.00,+23.00,+13.00,+10.00,-6.00,-7.00,+0.00,+0.00
-2.00,-11.00,-3.00,+7.00,+11.00,+16.00,+18.00,+35.00,-9.00,+3.00,-2.00,+2.00,-1.00,-2.00,+2.00,+4.00
+16.00,-12.00,+4.00,-6.00,-7.00,-28.00,-23.00,-4.00,-22.00,+1.00,+22.00,+8.00,+7.00,+3.00,-3.00,-13.00
+15.00,+6.00,+2.00,-3.00,-22.00,+6.00,+11.00,-9.00,+2.00,-21.00,-25.00,-14.00,-7.00,-5.00,-2.00,+0.00
+15.00,+6.00,-5.00,-2.00,+17.00,-4.00,-11.00,+3.00,+12.00,+5.00,+0.00,+2.00,-4.00,-7.00,+5.00,+47.00
-11.00,-8.00,+8.00,+7.00,+11.00,+19.00,+8.00,-2.00,+4.00,+0.00,-4.00,-9.00,-7.00,+3.00,-2.00,+5.00
-43.00,-10.00,-7.00,-2.00,+1.00,-2.00,-6.00,-11.00,-25.00,+14.00,+12.00,+3.00,-13.00,-9.00,-1.00,+14.00
+16.00,-7.00,+8.00,+1.00,-19.00,-1.00,+12.00,+10.00,+22.00,+36.00,+16.00,+0.00,+9.00,+0.00,-1.00,+9.00
+8.00,+11.00,+1.00,-1.00,-23.00,+10.00,+1.00,+3.00,-31.00,-40.00,-6.00,-4.00,-4.00,-5.00,-5.00,-31.00
+6.00,-26.00,-8.00,-5.00,+44.00,-28.00,-17.00,-21.00,+23.00,+5.00,-5.00,+10.00,+3.00,+4.00,+5.00,+17.00
+41.00,+39.00,+3.00,+5.00,-13.00,+21.00,+2.00,+39.00,-9.00,-5.00,-3.00,+6.00,+1.00,-1.00,+0.00,-4.00
-39.00,-13.00,-2.00,-5.00,+7.00,+12.00,-54.00,-18.00,-2.00,+13.00,+7.00,+7.00,+6.00,+1.00,-1.00,+6.00
+1.00,+4.00,+2.00,+3.00,+10.00,-18.00,+31.00,+0.00,+3.00,+1.00,-6.00,-5.00,-20.00,-1.00,+4.00,+11.00
+4.00,-9.00,-9.00,-4.00,-14.00,+10.00,+18.00,-6.00,-17.00,+6.00,+11.00,-5.00,+13.00,-2.00,+1.00,-1.00
-90.00,-19.00,+1.00,-3.00,-21.00,+7.00,-2.00,-10.00,-12.00,-16.00,-17.00,-1.00,+1.00,+1.00,-4.00,-42.00
+33.00,+22.00,+7.00,+0.00,+19.00,-18.00,+1.00,+23.00,-12.00,-41.00,-14.00,-17.00,-10.00,+0.00,+1.00,+47.00
+6.00,+0.00,-15.00,-4.00,-6.00,-1.00,-5.00,+0.00,+31.00,+22.00,+6.00,+2.00,+25.00,-5.00,-2.00,+3.00
+33.00,+12.00,+0.00,+1.00,-4.00,-3.00,-1.00,+5.00,-28.00,+15.00,+1.00,-12.00,-30.00,-3.00,-5.00,-34.00
+64.00,+28.00,+13.00,-2.00,-10.00,-7.00,-8.00,-23.00,-6.00,-45.00,-8.00,-10.00,-3.00,-5.00,-3.00,-3.00
+21.00,+2.00,+5.00,+2.00,-2.00,+30.00,+11.00,-20.00,-4.00,+18.00,+7.00,+2.00,+7.00,+1.00,-4.00,-11.00
+32.00,-15.00,+5.00,+6.00,+7.00,-39.00,-8.00,+5.00,-23.00,-9.00,-15.00,-9.00,-7.00,-6.00,-7.00,+2.00
+30.00,-3.00,-8.00,-3.00,-17.00,-9.00,+13.00,-1.00,-2.00,+16.00,+5.00,+3.00,-1.00,+0.00,+2.00,+2.00
+27.00,-11.00,-2.00,+1.00,+2.00,-4.00,-10.00,-7.00,-19.00,+13.00,+16.00,-2.00,+3.00,+1.00,-1.00,-34.00
-6.00,-5.00,+3.00,-4.00,-7.00,+4.00,+21.00,+5.00,+32.00,-57.00,-18.00,-1.00,-7.00,-1.00,+2.00,+56.00
+19.00,+24.00,+0.00,-1.00,+35.00,+8.00,-14.00,-10.00,-10.00,+20.00,-2.00,+0.00,+1.00,-1.00,+0.00,-3.00
