-6.00,+6.00,+0.00,+1.00,-3.00,-15.00,-6.00,-2.00,-32.00,-14.00,-3.00,+1.00,-1.00,-3.00,-5.00,-29.00
-11.00,-13.00,-5.00,-3.00,-1.00,+0.00,+3.00,+0.00,-7.00,+9.00,-1.00,+1.00,-2.00,-1.00,-4.00,-15.00
+16.00,+10.00,+1.00,+2.00,-3.00,-2.00,-5.00,-9.00,+28.00,+4.00,+9.00,+2.00,-5.00,+0.00,+0.00,+16.00
+4.00,-8.00,+0.00,-2.00,-3.00,+3.00,+4.00,+2.00,-1.00,-5.00,-7.00,+9.00,+9.00,+0.00,-7.00,-2.00
+3.00,-1.00,-4.00,-2.00,+1.00,-12.00,-2.00,-8.00,-52.00,-32.00,-5.00,-16.00,-9.00,+2.00,+4.00,+5.00
-26.00,-9.00,-8.00,-6.00,-7.00,+5.00,-6.00,+1.00,+47.00,+10.00,-5.00,+0.00,-8.00,-5.00,-5.00,-5.00
-25.00,+12.00,+1.00,+0.00,+1.00,-7.00,-1.00,+12.00,-16.00,-6.00,-3.00,-3.00,-1.00,-4.00,-6.00,-9.00
+13.00,+5.00,+4.00,-2.00,-2.00,+1.00,-3.00,+0.00,-2.00,+4.00,-1.00,+0.00,+4.00,-6.00,-3.00,+3.00
-27.00,-13.00,-7.00,-4.00,-1.00,+6.00,-1.00,-1.00,+20.00,+6.00,-6.00,-1.00,-7.00,+1.00,+0.00,-3.00
-14.00,+3.00,+5.00,+5.00,+3.00,+2.00,+2.00,-7.00,-23.00,-12.00,-4.00,-5.00,+1.00,-1.00,-4.00,-6.00
-9.00,-7.00,+2.00,+4.00,+0.00,-8.00,-5.00,+32.00,-8.00,-12.00,-4.00,+0.00,-3.00,+1.00,+1.00,-2.00
+30.00,+14.00,-2.00,-3.00,+2.00,+6.00,+8.00,-2.00,+22.00,+6.00,+0.00,+3.00,+1.00,+0.00,+6.00,+21.00
-8.00,-4.00,+0.00,+0.00,-3.00,+2.00,+3.00,-1.00,+8.00,+0.00,+4.00,+3.00,-1.00,-4.00,-8.00,+1.00
-12.00,-4.00,-12.00,-19.00,-4.00,+13.00,+4.00,-4.00,-19.00,-1.00,-5.00,-1.00,+1.00,+1.00,+0.00,-20.00
-2.00,+12.00,+3.00,-1.00,-2.00,-21.00,-6.00,-25.00,+4.00,+8.00,+1.00,-5.00,-10.00,-5.00,+5.00,+37.00
+12.00,-19.00,+2.00,+3.00,+2.00,+2.00,-3.00,-5.00,-27.00,-18.00,-10.00,-6.00,+3.00,+0.00,+3.00,-38.00
-22.00,+0.00,-11.00,-6.00,-6.00,+8.00,-2.00,-7.00,+18.00,+25.00,+22.00,+11.00,+5.00,-1.00,+2.00,+21.00
+22.00,+6.00,+14.00,+9.00,-1.00,-20.00,-1.00,-7.00,+1.00,-38.00,-40.00,-15.00,-6.00,-7.00,-8.00,+15.00
-39.00,+10.00,+3.00,+1.00,+2.00,+11.00,-1.00,-4.00,-4.00,-6.00,+0.00,+1.00,+2.00,+7.00,+0.00,-13.00
-14.00,-22.00,-3.00,+0.00,-14.00,-33.00,+4.00,+3.00,-2.00,+0.00,+1.00,+0.00,-1.00,+10.00,-5.00,+0.00
+8.00,+5.00,-1.00,+0.00,+22.00,+28.00,+2.00,+9.00,+11.00,+16.00,+9.00,+3.00,-3.00,-16.00,+4.00,-8.00
-21.00,-14.00,-2.00,+1.00,-1.00,-2.00,-9.00,-9.00,-8.00,+7.00,+1.00,+1.00,+1.00,-2.00,-7.00,-5.00
+1.00,+5.00,+10.00,+1.00,-2.00,+15.00,-10.00,+0.00,+10.00,-3.00,+3.00,+0.00,-1.00,-5.00,+4.00,+1.00
+6.00,+8.00,+0.00,+0.00,+6.00,+4.00,+11.00,-4.00,-1.00,-12.00,-5.00,-3.00,+0.00,+2.00,-4.00,+0.00
-3.00,-8.00,-2.00,-3.00,-9.00,+7.00,+2.00,-10.00,+1.00,-4.00,-8.00,-1.00,+3.00,+5.00,+4.00,+10.00
-7.00,+6.00,-5.00,-2.00,-2.00,-42.00,-3.00,+15.00,-2.00,+7.00,+10.00,+4.00,-1.00,+0.00,+2.00,+19.00
-18.00,-2.00,+0.00,+1.00,-29.00,-37.00,-8.00,-23.00,-6.00,-13.00,-12.00,-5.00,-7.00,+1.00,+0.00,-16.00
+7.00,+5.00,+0.00,-1.00,+15.00,+32.00,+12.00,-8.00,+3.00,+8.00,+7.00,+11.00,+26.00,+4.00,-6.00,+2.00
+3.00,+2.00,+2.00,+2.00,+4.00,-2.00,+3.00,-10.00,-8.00,-5.00,-8.00,-19.00,-28.00,+0.00,+1.00,-9.00
+20.00,+6.00,-3.00,-1.00,+1.00,+10.00,-28.00,+4.00,+2.00,+7.00,+4.00,-2.00,-1.00,+9.00,+2.00,-6.00
+6.00,+3.00,-3.00,-3.00,+4.00,+4.00,-2.00,-28.00,-15.00,-12.00,-10.00,-5.00,-9.00,-12.00,-3.00,+21.00
+11.00,+7.00,+3.00,-3.00,-14.00,-8.00,-6.00,+5.00,+13.00,+11.00,+0.00,-6.00,+5.00,+10.00,+10.00,+21.00
-4.00,-7.00,-1.00,+2.00,-5.00,-14.00,-1.00,-7.00,-10.00,-13.00,-12.00,-1.00,+0.00,+8.00,-10.00,-22.00
-22.00,+9.00,+11.00,-1.00,-3.00,+4.00,+8.00,+36.00,+6.00,+9.00,+6.00,+0.00,+4.00,-4.00,-1.00,-1.00
+12.00,-9.00,-9.00,-1.00,+2.00,-7.00,+2.00,+20.00,-4.00,+5.00,+2.00,+1.00,+15.00,+49.00,-4.00,-24.00
-24.00,+1.00,-6.00,-5.00,-2.00,+3.00,-9.00,-6.00,-12.00,+1.00,+2.00,-4.00,+3.00,-21.00,-9.00,-17.00
+9.00,+2.00,+2.00,+5.00,-1.00,-10.00,+3.00,+5.00,+20.00,-4.00,-5.00,+5.00,-11.00,-64.00,-9.00,+24.00
-18.00,-22.00,+3.00,+4.00,+2.00,+17.00,+5.00,-33.00,-26.00,+20.00,+21.00,+2.00,-3.00,+10.00,+6.00,-20.00
+17.00,+35.00,+1.00,-4.00,+4.00,+6.00,+6.00,+8.00,+1.00,-21.00,-13.00,+8.00,+2.00,-32.00,+1.00,+3.00
+20.00,-2.00,-1.00,+2.00,+6.00,+1.00,+0.00,+20.00,-4.00,-9.00,-9.00,-6.00,-14.00,+1.00,+3.00,+6.00
+9.00,+8.00,+2.00,-3.00,-9.00,-6.00,-8.00,+7.00,+7.00,-21.00,-13.00,-1.00,+9.00,+33.00,+5.00,-9.00
+19.00,-6.00,-3.00,+0.00,-2.00,-10.00,-2.00,-11.00,+3.00,-1.00,+1.00,-1.00,+0.00,-3.00,-6.00,+0.00
+2.00,-7.00,-3.00,-2.00,+7.00,-26.00,-1.00,+6.00,-20.00,-25.00,-6.00,-3.00,+2.00,+10.00,+11.00,+10.00
-6.00,-10.00,-4.00,-3.00,-16.00,+74.00,+8.00,-3.00,+2.00,+8.00,-3.00,+0.00,-4.00,+10.00,+3.00,+21.00
+6.00,-1.00,+2.00,+2.00,+21.00,-50.00,-15.00,-15.00,-3.00,+5.00,+5.00,+9.00,+22.00,-4.00,-1.00,-10.00
+2.00,+2.00,-8.00,-4.00,-2.00,+9.00,+1.00,+1.00,-2.00,+5.00,+7.00,+14.00,-12.00,+2.00,+0.00,-6.00
+20.00,-18.00,-11.00,-10.00,+3.00,-14.00,-8.00,+3.00,-10.00,+9.00,-3.00,-18.00,-18.00,-2.00,-5.00,-15.00
-8.00,+15.00,+9.00,+5.00,-6.00,-11.00,+10.00,+16.00,+4.00,+7.00,+8.00,+1.00,-22.00,-13.00,-4.00,-8.00
-6.00,-15.00,-11.00,-10.00,-13.00,+15.00,+2.00,-29.00,+10.00,-4.00,-1.00,-16.00,+5.00,+0.00,-7.00,+2.00
+11.00,+3.00,-5.00,-4.00,-3.00,+17.00,-5.00,+22.00,+9.00,-14.00,+1.00,+6.00,+14.00,+2.00,+2.00,+35.00
+27.00,+3.00,+1.00,-2.00,-10.00,+24.00,+12.00,-6.00,+2.00,+29.00,+8.00,+2.00,-1.00,-10.00,-5.00,-16.00
+51.00,+12.00,+3.00,+6.00,+22.00,-46.00,-52.00,+4.00,-5.00,-14.00,-2.00,+4.00,-8.00,+6.00,+3.00,+7.00
-24.00,+3.00,+5.00,+4.00,+9.00,+88.00,+82.00,+8.00,+3.00,+11.00,+0.00,+9.00,+6.00,+31.00,+8.00,+7.00
+22.00,-9.00,-11.00,+0.00,+3.00,-50.00,+3.00,+18.00,-11.00,+2.00,-4.00,-10.00,-15.00,-40.00,+1.00,-23.00
+11.00,+25.00,+13.00,+6.00,-3.00,-25.00,+14.00,+28.00,-4.00,-5.00,+1.00,+1.00,+7.00,-11.00,-9.00,-21.00
-15.00,-10.00,-2.00,-1.00,+2.00,-3.00,+17.00,+7.00,-5.00,-8.00,-8.00,-6.00,+8.00,+83.00,+5.00,+2.00
-16.00,+10.00,+3.00,+0.00,-2.00,-42.00,-33.00,-18.00,+2.00,+6.00,+3.00,-1.00,-5.00,-46.00,+6.00,+20.00
-1.00,-10.00,-12.00,-8.00,+5.00,+23.00,-4.00,-41.00,-5.00,+0.00,+9.00,+5.00,+0.00,-49.00,-12.00,-11.00
+2.00,+28.00,-2.00,-3.00,+23.00,+7.00,-13.00,-27.00,+15.00,+4.00,-4.00,-3.00,-4.00,-13.00,-16.00,+13.00
-40.00,-54.00,+1.00,+1.00,+23.00,-2.00,-8.00,-12.00,+11.00,+23.00,+10.00,+7.00,+19.00,-5.00,-12.00,-11.00
-15.00,+1.00,+3.00,+1.00,-13.00,+4.00,-21.00,+12.00,+12.00,+38.00,+15.00,+11.00,-1.00,+33.00,+7.00,-11.00
+50.00,+37.00,+7.00,+3.00,+14.00,+18.00,+12.00,+2.00,-4.00,-7.00,+0.00,-16.00,-12.00,+20.00,+12.00,+46.00
+16.00,-6.00,-8.00,+0.00,+7.00,+1.00,+6.00,+7.00,-5.00,-75.00,-38.00,-15.00,-5.00,-9.00,+5.00,+11.00
-39.00,-39.00,-1.00,-2.00,-15.00,+15.00,-10.00,-9.00,-5.00,-4.00,-9.00,+1.00,-1.00,-7.00,-7.00,+7.00
+19.00,+19.00,-8.00,-5.00,+20.00,-42.00,-5.00,+2.00,-20.00,-50.00,-18.00,-4.00,+2.00,+11.00,+0.00,-19.00
-4.00,+16.00,+11.00,+4.00,-25.00,-13.00,-5.00,-10.00,-3.00,+25.00,+15.00,-7.00,-7.00,-9.00,-11.00,-22.00
+7.00,+19.00,-2.00,+0.00,-8.00,+13.00,-5.00,+1.00,+1.00,+40.00,+10.00,-4.00,-17.00,+11.00,+6.00,-2.00
-9.00,-6.00,-6.00,-5.00,-37.00,-33.00,-2.00,+3.00,+13.00,+8.00,-4.00,+0.00,+29.00,-10.00,+6.00,+11.00
+7.00,-39.00,-10.00,-6.00,-44.00,-2.00,-31.00,-6.00,+9.00,+13.00,+6.00,+8.00,-20.00,+6.00,+14.00,+15.00
-29.00,-7.00,+5.00,+7.00,+16.00,-13.00,-4.00,+16.00,-25.00,-13.00,-6.00,+1.00,+5.00,-34.00,-27.00,-26.00
+13.00,-3.00,+2.00,+3.00,-10.00,+3.00,+19.00,+20.00,+25.00,+5.00,+10.00,-4.00,-9.00,+46.00,+5.00,+3.00
-52.00,-10.00,-16.00,-12.00,-26.00,+25.00,-37.00,-92.00,+1.00,-2.00,+4.00,+3.00,+11.00,-36.00,-11.00,-10.00
-9.00,+11.00,+0.00,+0.00,-11.00,-43.00,+3.00,+40.00,-23.00,+5.00,+4.00,-9.00,-7.00,+67.00,+8.00,-26.00
-39.00,-13.00,-2.00,+5.00,+4.00,+55.00,+62.00,+77.00,+31.00,-13.00,-17.00,-4.00,-1.00,-25.00,-30.00,+39.00
+6.00,+4.00,+3.00,+1.00,-7.00,+44.00,+25.00,+47.00,-24.00,+1.00,+4.00,+13.00,+22.00,-39.00,+50.00,-36.00
+39.00,+36.00,+8.00,+3.00,-5.00,+5.00,+25.00,+34.00,-9.00,+4.00,+6.00,+4.00,-12.00,+38.00,-17.00,+20.00
+10.00,-42.00,-7.00,+3.00,+1.00,-33.00,-52.00,-2.00,+12.00,+2.00,+2.00,-8.00,+14.00,-25.00,+16.00,-3.00
-9.00,+42.00,-8.00,-10.00,-24.00,-79.00,-17.00,-38.00,-3.00,-22.00,-12.00,-6.00,-10.00,+35.00,+15.00,-12.00
-58.00,-103.00,-8.00,-2.00,+27.00,+24.00,-3.00,-16.00,-20.00,+12.00,+11.00,+7.00,+0.00,-25.00,-12.00,-21.00
+30.00,+34.00,-10.00,-10.00,-40.00,-18.00,-1.00,+3.00,-1.00,-31.00,-7.00,-16.00,-21.00,-16.00,+14.00,+13.00
+48.00,+54.00,+41.00,+17.00,+47.00,+25.00,+22.00,+10.00,+15.00,-17.00,-15.00,-4.00,-1.00,+25.00,-13.00,-14.00
-5.00,-19.00,+2.00,+8.00,+9.00,-30.00,-14.00,+4.00,-15.00,+26.00,+7.00,+3.00,+3.00,+15.00,+13.00,+34.00
+11.00,+10.00,-9.00,-8.00,-20.00,-38.00,-18.00,-20.00,-24.00,-3.00,-8.00,+16.00,+32.00,-15.00,-8.00,-1.00
-16.00,-22.00,-14.00,-2.00,+46.00,-4.00,-27.00,-69.00,-6.00,-12.00,-11.00,-17.00,-25.00,+35.00,+25.00,+11.00
-27.00,-30.00,-17.00,-8.00,-23.00,+104.00,-38.00,-23.00,+5.00,-16.00,-7.00,-12.00,-12.00,-32.00,-51.00,-5.00
+19.00,+4.00,-1.00,+0.00,+22.00,+82.00,+49.00,+48.00,+7.00,-4.00,+4.00,+2.00,-25.00,-60.00,+5.00,-20.00
-86.00,-16.00,+3.00,-2.00,-6.00,-79.00,-49.00,-17.00,-23.00,-15.00,+7.00,+18.00,+27.00,+42.00,-11.00,+12.00
+1.00,-4.00,+3.00,+2.00,+1.00,-16.00,+17.00,+62.00,+4.00,+6.00,-2.00,-12.00,-32.00,-39.00,-10.00,-78.00
+2.00,-3.00,-8.00,-5.00,-16.00,-29.00,-40.00,-52.00,+30.00,+26.00,+9.00,+7.00,+14.00,+9.00,+13.00,+57.00
+4.00,+2.00,+6.00,+1.00,-9.00,+13.00,-39.00,-43.00,+9.00,-4.00,-10.00,-8.00,+18.00,+79.00,+32.00,+19.00
+38.00,+19.00,+9.00,+7.00,+9.00,-40.00,+52.00,+18.00,+0.00,-12.00,-11.00,-18.00,-44.00,+13.00,-36.00,-5.00
-6.00,+11.00,-1.00,+0.00,-7.00,-33.00,+29.00,+55.00,-19.00,-15.00,-2.00,+4.00,-7.00,-68.00,-61.00,-65.00
-11.00,+5.00,-5.00,-2.00,+8.00,+49.00,+1.00,-25.00,-18.00,+4.00,+9.00,+10.00,+19.00,-56.00,+9.00,-15.00
-10.00,-67.00,+4.00,-2.00,-8.00,-8.00,-2.00,+24.00,+20.00,-9.00,-13.00,+3.00,+2.00,+2.00,-9.00,+59.00
+21.00,+95.00,+11.00,+2.00,-16.00,+68.00,-5.00,-23.00,+4.00,+0.00,+5.00,-4.00,+7.00,+34.00,+46.00,+32.00
-2.00,+19.00,-7.00,-8.00,+11.00,+2.00,-17.00,-37.00,+8.00,+32.00,+10.00,+5.00,-8.00,+21.00,-5.00,-7.00
-12.00,-74.00,-14.00,-7.00,-16.00,-79.00,-3.00,+20.00,-15.00,+9.00,-7.00,-21.00,-19.00,+68.00,-62.00,+0.00
-7.00,-51.00,-11.00,-4.00,+20.00,+39.00,+1.00,-12.00,+4.00,-52.00,-3.00,+14.00,+18.00,-75.00,-5.00,+0.00
+23.00,-2.00,-1.00,+1.00,-34.00,+109.00,+17.00,-12.00,+57.00,+89.00,+3.00,-10.00,-11.00,-17.00,+14.00,+4.00
-4.00,+32.00,+7.00,+4.00,+41.00,-77.00,-54.00,-39.00,-88.00,-89.00,-3.00,+8.00,+10.00,+0.00,+22.00,-10.00
-24.00,+28.00,+5.00,-2.00,-14.00,-71.00,+14.00,+15.00,+0.00,+13.00,-2.00,+7.00,-7.00,-29.00,+9.00,+12.00
+7.00,-8.00,-14.00,-2.00,+0.00,+43.00,+51.00,-8.00,-11.00,-5.00,+0.00,-1.00,+27.00,+76.00,-6.00,-35.00
-22.00,-9.00,-4.00,-6.00,-29.00,+23.00,-19.00,-15.00,+30.00,-19.00,+1.00,+9.00,-9.00,-11.00,+7.00,+61.00
+8.00,-19.00,+4.00,+8.00,+30.00,+30.00,+34.00,+46.00,+8.00,+18.00,-1.00,-28.00,-30.00,+14.00,+14.00,+25.00
-21.00,-10.00,+7.00,+9.00,+18.00,-7.00,-57.00,+6.00,-20.00,-13.00,-4.00,+2.00,+4.00,-37.00,-8.00,-27.00
+25.00,+30.00,+6.00,+0.00,-4.00,-12.00,-47.00,-89.00,-37.00,-37.00,-11.00,-9.00,-8.00,+22.00,-17.00,-57.00
-23.00,-29.00,-17.00,-12.00,-8.00,-50.00,-53.00,-18.00,+25.00,+48.00,+13.00,+3.00,-7.00,-38.00,-22.00,-1.00
+62.00,+4.00,+18.00,+12.00,-8.00,+40.00,+60.00,+84.00,+37.00,+22.00,+3.00,+35.00,+26.00,+44.00,+37.00,+16.00
+33.00,+26.00,+6.00,+4.00,+4.00,+127.00,+70.00,-4.00,-32.00,-27.00,-2.00,-8.00,+11.00,-21.00,+49.00,-14.00
-7.00,-21.00,-20.00,-13.00,+3.00,+36.00,-7.00,+31.00,+37.00,+30.00,-2.00,-9.00,-7.00,-14.00,-38.00,+32.00
+19.00,-14.00,+21.00,+10.00,-7.00,-65.00,-107.00,-23.00,-59.00,-34.00,+4.00,+0.00,-11.00,-44.00,+21.00,-63.00
+0.00,+24.00,+4.00,+1.00,+2.00,-105.00,-20.00,-20.00,+28.00,-41.00,+1.00,+1.00,-4.00,-48.00,+28.00,+42.00
-6.00,-8.00,-3.00,-1.00,+12.00,+88.00,+119.00,+11.00,+20.00,+61.00,+15.00,+17.00,+35.00,+37.00,+14.00,-34.00
-61.00,-18.00,-10.00,-7.00,-39.00,-38.00,-31.00,+15.00,+3.00,-25.00,-2.00,+10.00,+11.00,+22.00,+13.00,+9.00
-51.00,-48.00,-38.00,-19.00,+32.00,+20.00,+23.00,-10.00,+16.00,+20.00,-1.00,+0.00,+18.00,+60.00,+1.00,+16.00
-19.00,+13.00,+27.00,+7.00,+5.00,+115.00,-6.00,-36.00,-6.00,-15.00,-6.00,-1.00,+7.00,-20.00,-15.00,-21.00
+31.00,+37.00,+10.00,+3.00,-6.00,-111.00,-65.00,+14.00,+9.00,+3.00,-1.00,+5.00,-17.00,-25.00,+7.00,+27.00
+29.00,+41.00,+16.00,+6.00,-10.00,+78.00,+48.00,-16.00,-8.00,+17.00,+14.00,+4.00,+9.00,+29.00,-13.00,-8.00
-8.00,-16.00,-7.00,-1.00,+30.00,+6.00,+12.00,+11.00,+18.00,-19.00,-12.00,-11.00,-21.00,-24.00,-57.00,-50.00
-21.00,-18.00,-9.00,-2.00,-4.00,-40.00,-31.00,-13.00,+5.00,-4.00,-4.00,+8.00,+28.00,-13.00,-11.00,-5.00
-24.00,-20.00,-16.00,-7.00,-3.00,-65.00,+20.00,+9.00,+26.00,+21.00,+8.00,-5.00,-36.00,+54.00,+17.00,+31.00
-5.00,-22.00,-17.00,-13.00,-16.00,-52.00,-32.00,-30.00,-18.00,+6.00,-6.00,-21.00,-45.00,-47.00,+2.00,+13.00
-1.00,+14.00,+8.00,+8.00,+6.00,+72.00,+10.00,-4.00,+7.00,-35.00,-11.00,-1.00,+29.00,-3.00,-32.00,+18.00
-27.00,-42.00,-4.00,-12.00,-53.00,+127.00,+18.00,-18.00,-96.00,-20.00,+3.00,-7.00,+27.00,+2.00,-40.00,-14.00
+9.00,+5.00,+6.00,+8.00,+34.00,-99.00,-101.00,-41.00,-4.00,-39.00,-21.00,-10.00,+7.00,-15.00,+67.00,+1.00
+18.00,+58.00,+8.00,+2.00,-2.00,-89.00,+56.00,+68.00,+90.00,+92.00,+33.00,+34.00,-26.00,-67.00,-49.00,-52.00
+28.00,+41.00,+12.00,+9.00,+14.00,+61.00,-19.00,+49.00,+20.00,+0.00,+2.00,+5.00,+30.00,+0.00,-12.00,+70.00
-56.00,-34.00,-30.00,-12.00,-1.00,+75.00,+11.00,-34.00,+22.00,+52.00,+5.00,-8.00,-7.00,+10.00,-7.00,+7.00
+36.00,-23.00,-3.00,+1.00,-31.00,-5.00,+33.00,+11.00,-73.00,-63.00,-15.00,+33.00,+18.00,+44.00,-10.00,-10.00
-12.00,-43.00,+9.00,+3.00,+25.00,+71.00,-30.00,-46.00,-68.00,-46.00,-20.00,-47.00,+25.00,+21.00,+35.00,-10.00
+19.00,-6.00,+10.00,+8.00,+11.00,+18.00,-25.00,-3.00,+13.00,-16.00,-8.00,+7.00,-6.00,+22.00,-3.00,-47.00
+18.00,+89.00,-4.00,-12.00,-13.00,-57.00,-13.00,-20.00,+53.00,+36.00,-5.00,-21.00,-31.00,+6.00,-7.00,+54.00
+42.00,+19.00,-3.00,-4.00,-7.00,-56.00,-11.00,+11.00,-85.00,-95.00,-29.00,-18.00,-10.00,-30.00,-46.00,-96.00
+74.00,+9.00,+13.00,+11.00,+5.00,-91.00,-27.00,-20.00,+100.00,+59.00,+17.00,+12.00,+14.00,+14.00,+30.00,+49.00
-5.00,+4.00,+5.00,+3.00,-3.00,-27.00,+52.00,+35.00,-75.00,+60.00,+16.00,+4.00,-3.00,+1.00,+2.00,-43.00
-21.00,-20.00,-6.00,+0.00,-8.00,+2.00,-60.00,-1.00,+17.00,+32.00,+15.00,+2.00,-15.00,+17.00,+4.00,+53.00
+31.00,-8.00,-20.00,-13.00,-22.00,+93.00,+93.00,+73.00,-15.00,-28.00,+1.00,+0.00,-3.00,-16.00,-23.00,-18.00
-59.00,-12.00,-3.00,+2.00,+49.00,-6.00,-97.00,-108.00,-52.00,-61.00,-30.00,+4.00,+16.00,+26.00,-12.00,-56.00
+9.00,-57.00,+3.00,+1.00,-12.00,-73.00,-5.00,-45.00,+17.00,-38.00,-9.00,-28.00,-48.00,-34.00,+0.00,+1.00
+34.00,+94.00,+28.00,+19.00,-8.00,-128.00,-7.00,-15.00,+63.00,+47.00,+16.00,+17.00,+28.00,+39.00,+41.00,+75.00
+15.00,+60.00,+6.00,-7.00,-21.00,+52.00,-33.00,+52.00,+12.00,-11.00,-16.00,-9.00,-8.00,-39.00,-12.00,-19.00
+48.00,+3.00,+17.00,+12.00,-7.00,+126.00,-64.00,+127.00,-68.00,-7.00,-3.00,-22.00,-6.00,+1.00,-80.00,-77.00
-23.00,-20.00,-32.00,-11.00,+37.00,-9.00,+38.00,-16.00,+2.00,+33.00,+21.00,+11.00,+14.00,+21.00,+64.00,+27.00
-57.00,-74.00,-18.00,-13.00,-6.00,-23.00,-20.00,-12.00,+47.00,-24.00,-4.00,+11.00,-12.00,-5.00,-27.00,-89.00
-5.00,-48.00,-3.00,-10.00,-60.00,+27.00,-17.00,-69.00,+1.00,+35.00,+19.00,-4.00,-2.00,+3.00,-17.00,+32.00
+18.00,+118.00,+27.00,+19.00,+79.00,-128.00,-94.00,+5.00,+18.00,-27.00,-6.00,+19.00,-8.00,+3.00,+4.00,+42.00
-10.00,+40.00,+0.00,-7.00,-19.00,+111.00,+7.00,-49.00,-53.00,-28.00,-10.00,-3.00,+13.00,-23.00,-1.00,-35.00
+57.00,-29.00,+8.00,+4.00,-10.00,-107.00,+16.00,+64.00,-9.00,-50.00,-9.00,-25.00,-14.00,+0.00,+33.00,+32.00
-51.00,-38.00,-13.00,+1.00,+35.00,-22.00,+3.00,-21.00,+38.00,+29.00,-9.00,+2.00,+0.00,+29.00,-2.00,+20.00
-39.00,+33.00,-29.00,-22.00,-51.00,+17.00,+33.00,-51.00,-17.00,+43.00,+22.00,+6.00,+5.00,-29.00,+17.00,+10.00
+29.00,-116.00,+5.00,+7.00,+3.00,-8.00,-4.00,+91.00,+14.00,-51.00,-3.00,-1.00,-29.00,-2.00,-6.00,+43.00
+11.00,+89.00,+12.00,+4.00,+11.00,+37.00,-9.00,-75.00,-117.00,-26.00,-15.00,+5.00,+38.00,-5.00,-82.00,-69.00
-5.00,+8.00,+16.00,+9.00,+0.00,+38.00,+7.00,+74.00,+43.00,+62.00,+30.00,+12.00,+10.00,+3.00,+50.00,+23.00
-80.00,-69.00,-19.00,-11.00,-33.00,-98.00,+10.00,-97.00,+59.00,+15.00,+9.00,+12.00,-2.00,+43.00,+52.00,+48.00
-30.00,+3.00,-7.00,-8.00,+13.00,-27.00,+3.00,-3.00,+15.00,+26.00,+36.00,+8.00,+11.00,+68.00,-19.00,-37.00
+92.00,+42.00,+0.00,+0.00,-20.00,+31.00,-88.00,+18.00,-22.00,-41.00,-62.00,-21.00,-6.00,-26.00,+32.00,+34.00
-36.00,-67.00,-7.00,-5.00,+39.00,+101.00,+100.00,+6.00,-33.00,-42.00,-28.00,-14.00,-20.00,-77.00,-45.00,-21.00
-22.00,+24.00,-15.00,-8.00,-46.00,-58.00,-43.00,-49.00,-1.00,-4.00,-1.00,-7.00,-6.00,-16.00,-1.00,-31.00
-4.00,+44.00,+10.00,+5.00,-21.00,-13.00,+61.00,-14.00,+16.00,-20.00,+0.00,-2.00,-3.00,+5.00,-20.00,-39.00
-19.00,-83.00,+3.00,+4.00,-15.00,+103.00,+29.00,+79.00,-20.00,+4.00,+3.00,+4.00,+1.00,+10.00,+16.00,-32.00
-27.00,+30.00,+3.00,+7.00,+55.00,+69.00,-25.00,-8.00,+2.00,-44.00,-1.00,-4.00,+18.00,+17.00,-21.00,+2.00
-33.00,-17.00,-7.00,-11.00,-19.00,+127.00,+15.00,+30.00,-7.00,+101.00,+22.00,-15.00,-3.00,+1.00,+28.00,+22.00
+65.00,-31.00,-10.00,-3.00,+5.00,-61.00,-30.00,+11.00,+3.00,-25.00,-5.00,+3.00,-18.00,+3.00,-13.00,-29.00
-73.00,-11.00,+1.00,+0.00,-6.00,-90.00,+26.00,-48.00,-9.00,+35.00,+23.00,+0.00,-20.00,-66.00,-7.00,-65.00
+62.00,-55.00,-23.00,-13.00,+19.00,+0.00,-45.00,+40.00,+3.00,+34.00,+27.00,+10.00,-8.00,-8.00,+6.00,+33.00
+34.00,-18.00,+7.00,+5.00,-12.00,-34.00,+53.00,+29.00,+21.00,-2.00,+42.00,+16.00,+23.00,+15.00,+16.00,-12.00
-62.00,+59.00,-1.00,-5.00,+6.00,+73.00,-32.00,-39.00,-36.00,-54.00,-69.00,-43.00,-11.00,-5.00,-15.00,-9.00
+71.00,+70.00,+3.00,-1.00,-15.00,-42.00,+17.00,+28.00,+9.00,+8.00,+22.00,+1.00,-10.00,-10.00,-3.00,+11.00
+10.00,+26.00,+20.00,+9.00,-7.00,+21.00,-28.00,-58.00,+47.00,+31.00,-12.00,+1.00,+2.00,+20.00,+9.00,-4.00
-5.00,-23.00,+6.00,+5.00,+15.00,-50.00,+44.00,+45.00,-18.00,-45.00,-5.00,+26.00,+19.00,+31.00,+53.00,+64.00
+36.00,-14.00,-13.00,-4.00,-23.00,-104.00,-78.00,+72.00,-99.00,+36.00,-3.00,-34.00,-53.00,-35.00,-51.00,-57.00
-72.00,-98.00,-22.00,-16.00,+6.00,-15.00,+51.00,-20.00,+28.00,-48.00,-23.00,-9.00,+0.00,-8.00,+4.00,+87.00
-14.00,+28.00,+11.00,+3.00,+4.00,+27.00,+59.00,-47.00,+94.00,+81.00,+46.00,+21.00,+26.00,+27.00,+7.00,+13.00
+64.00,+36.00,+1.00,-7.00,-2.00,+60.00,+38.00,+34.00,-4.00,+11.00,-7.00,+10.00,-14.00,-15.00,-25.00,-21.00
-2.00,+21.00,+18.00,+5.00,+1.00,-5.00,-21.00,-50.00,-12.00,-35.00,-8.00,+5.00,+22.00,+26.00,+32.00,-42.00
-10.00,-23.00,-16.00,-3.00,+3.00,+49.00,-37.00,+53.00,+4.00,+29.00,+21.00,+6.00,+2.00,+32.00,+79.00,-10.00
-50.00,+13.00,-1.00,-3.00,-40.00,-128.00,-65.00,+3.00,-44.00,+7.00,+21.00,+8.00,-24.00,-30.00,-82.00,-9.00
-56.00,-4.00,-3.00,+5.00,+41.00,+70.00,+49.00,-7.00,-18.00,-81.00,-92.00,-40.00,-21.00,-38.00,-2.00,-21.00
+7.00,+18.00,+22.00,+16.00,+2.00,-60.00,-26.00,+59.00,+7.00,-8.00,+38.00,+39.00,+25.00,-1.00,+9.00,+31.00
+66.00,+17.00,-4.00,+17.00,+51.00,+85.00,+74.00,+85.00,+7.00,-29.00,-22.00,+4.00,-4.00,+7.00,-34.00,-41.00
+5.00,+9.00,-29.00,-6.00,-20.00,-8.00,-2.00,-6.00,+40.00,+27.00,-3.00,-11.00,+13.00,+23.00,+43.00,+38.00
-43.00,-33.00,+0.00,-24.00,-26.00,-69.00,-37.00,+15.00,-75.00,-25.00,-20.00,-13.00,-24.00,-3.00,-28.00,-49.00
-21.00,+20.00,+13.00,-3.00,-2.00,-4.00,+1.00,-5.00,+62.00,+60.00,+19.00,+1.00,+6.00,-6.00,+11.00,-9.00
+7.00,-29.00,-15.00,-7.00,+1.00,-5.00,-10.00,-19.00,-9.00,+29.00,+27.00,+7.00,+11.00,+5.00,+3.00,+51.00
-7.00,+25.00,+1.00,-2.00,-1.00,+37.00,-15.00,-16.00,-31.00,-11.00,+14.00,-4.00,-4.00,+4.00,-20.00,-60.00
-3.00,-55.00,-25.00,-10.00,-50.00,-78.00,-12.00,-51.00,-10.00,-42.00,-5.00,-14.00,-29.00,-6.00,-2.00,+2.00
+24.00,+17.00,-1.00,-1.00,+49.00,+100.00,+14.00,-36.00,+9.00,-45.00,-35.00,+30.00,+78.00,-27.00,-10.00,+36.00
-8.00,+8.00,+19.00,+10.00,-32.00,-66.00,-9.00,-14.00,+29.00,+9.00,+5.00,-43.00,-108.00,-12.00,+13.00,-35.00
-4.00,-56.00,-5.00,+10.00,+37.00,+32.00,+16.00,+54.00,-38.00,-18.00,-38.00,-31.00,+96.00,+2.00,+3.00,+2.00
+38.00,+114.00,+33.00,+15.00,+13.00,+58.00,-14.00,-3.00,-20.00,+33.00,+27.00,-14.00,-16.00,+28.00,+5.00,-10.00
-56.00,-8.00,+4.00,-3.00,-33.00,-82.00,+17.00,+42.00,+26.00,+30.00,+10.00,-3.00,-38.00,+13.00,+78.00,+99.00
+79.00,-16.00,-18.00,+5.00,+17.00,+67.00,-4.00,-43.00,-39.00,-38.00,-15.00,+15.00,+16.00,-16.00,-79.00,+5.00
+18.00,+56.00,+25.00,+3.00,-7.00,-18.00,-21.00,+16.00,-4.00,+48.00,+40.00,+15.00,-18.00,+2.00,+35.00,-30.00
-72.00,-70.00,-23.00,-1.00,+20.00,+49.00,+22.00,-57.00,+43.00,-25.00,-23.00,-1.00,+19.00,+11.00,-3.00,+73.00
+10.00,-12.00,-1.00,-9.00,-4.00,-24.00,+10.00,+56.00,+32.00,-18.00,-3.00,-2.00,-8.00,-6.00,+23.00,+44.00
-39.00,-3.00,-14.00,-13.00,+15.00,+76.00,+17.00,-83.00,-38.00,-8.00,-16.00,+8.00,+36.00,+7.00,+26.00,+0.00
+14.00,-16.00,+1.00,+3.00,-32.00,-109.00,-21.00,+1.00,-26.00,-23.00,-12.00,-6.00,-26.00,+8.00,+12.00,-6.00
+14.00,+47.00,+5.00,-1.00,+11.00,+50.00,+12.00,-18.00,+24.00,+42.00,+70.00,+22.00,-15.00,+16.00,+13.00,+38.00
+52.00,-22.00,-16.00,+12.00,-7.00,-28.00,-4.00,+51.00,-24.00,-31.00,-66.00,-22.00,-11.00,-28.00,-56.00,-77.00
-43.00,+5.00,+8.00,-1.00,+8.00,-3.00,-5.00,-19.00,+18.00,+47.00,+33.00,+6.00,+20.00,-11.00,+41.00,+48.00
+22.00,+16.00,-12.00,-7.00,-13.00,-28.00,-11.00,-5.00,-10.00,-27.00,-37.00,-3.00,+0.00,+13.00,+1.00,+54.00
+9.00,+10.00,+16.00,-4.00,+2.00,+103.00,+9.00,+40.00,-20.00,-26.00,+5.00,-2.00,-11.00,-49.00,-8.00,-128.00
-8.00,-36.00,-19.00,-12.00,-62.00,-1.00,-10.00,-59.00,-31.00,-32.00,-11.00,-7.00,+10.00,+2.00,-68.00,-107.00
-42.00,-28.00,+3.00,+1.00,+45.00,-75.00,-28.00,-7.00,+36.00,+19.00,+10.00,+12.00,+0.00,+20.00,-8.00,-16.00
-19.00,+12.00,-23.00,-14.00,-28.00,-34.00,-30.00,-64.00,-1.00,-30.00,-40.00,-29.00,-47.00,-5.00,-19.00,-27.00
+78.00,-55.00,+15.00,+16.00,+32.00,+7.00,+40.00,+87.00,-6.00,+19.00,+8.00,+22.00,+72.00,+3.00,-7.00,+61.00
-20.00,+79.00,+10.00,+3.00,-19.00,+3.00,-9.00,-79.00,+29.00,+65.00,+46.00,-7.00,-40.00,-12.00,+72.00,+104.00
+22.00,+21.00,+15.00,+11.00,+4.00,+85.00,+27.00,-34.00,+3.00,-24.00,-48.00,-15.00,+39.00,-25.00,-64.00,-118.00
-5.00,-49.00,-35.00,-7.00,-5.00,-53.00,-20.00,+4.00,+19.00,+9.00,+23.00,+20.00,-8.00,+16.00,+11.00,+66.00
+4.00,+36.00,+3.00,-19.00,-24.00,-37.00,-26.00,-22.00,-9.00,-17.00,-10.00,+36.00,+34.00,+20.00,-21.00,-60.00
-59.00,-62.00,-28.00,-14.00,+10.00,+33.00,+11.00,-66.00,-2.00,+26.00,-11.00,-31.00,-64.00,-15.00,+6.00,-8.00
+14.00,+33.00,+28.00,+12.00,-18.00,-10.00,+8.00,+34.00,-28.00,+11.00,+4.00,+1.00,+50.00,-9.00,+29.00,+25.00
-3.00,+69.00,+21.00,+12.00,+23.00,+2.00,-3.00,-18.00,+27.00,+11.00,+24.00,+4.00,-10.00,+6.00,-24.00,+18.00
-22.00,-51.00,-29.00,-8.00,-5.00,+21.00,-17.00,-53.00,+15.00,+20.00,+2.00,-9.00,-1.00,+47.00,+59.00,+41.00
+1.00,+33.00,+25.00,+9.00,+1.00,-10.00,-4.00,+77.00,-15.00,-2.00,+6.00,+23.00,+30.00,-54.00,-52.00,+36.00
-54.00,-44.00,-42.00,-17.00,-4.00,-32.00,-15.00,-47.00,+3.00,+10.00,+39.00,-2.00,-37.00,+17.00,+67.00,+47.00
+2.00,-12.00,+6.00,+11.00,-13.00,+16.00,+18.00,+54.00,+0.00,-102.00,-80.00,-11.00,-6.00,-68.00,-86.00,-119.00
-13.00,-8.00,+1.00,-9.00,+2.00,+51.00,-3.00,+53.00,-2.00,-22.00,+7.00,+2.00,-3.00,+5.00,+28.00,+106.00
+24.00,+2.00,+4.00,-3.00,-3.00,-85.00,-20.00,-54.00,+8.00,+18.00,+19.00,+10.00,+41.00,+73.00,+14.00,-41.00
-9.00,-21.00,+2.00,-10.00,-35.00,-32.00,-38.00,+3.00,-23.00,+49.00,-5.00,-13.00,-23.00,+12.00,+8.00,+34.00
-6.00,+13.00,+6.00,-13.00,+15.00,+50.00,-17.00,-70.00,+27.00,+28.00,+31.00,+11.00,-1.00,+11.00,-20.00,-55.00
-70.00,-32.00,-13.00,+0.00,-45.00,-107.00,-58.00,-76.00,+3.00,-16.00,-24.00,-14.00,-27.00,-43.00,+4.00,-19.00
+3.00,-3.00,+5.00,+25.00,+70.00,-35.00,+57.00,+8.00,-12.00,+6.00,+43.00,+16.00,+23.00,+1.00,-37.00,-28.00
+42.00,+0.00,-6.00,-10.00,-5.00,+27.00,+15.00,+22.00,+20.00,-41.00,-56.00,-10.00,-24.00,-9.00,+27.00,-15.00
-28.00,-32.00,+7.00,+2.00,-53.00,-2.00,+17.00,-37.00,-17.00,-19.00,-15.00,+8.00,+19.00,+8.00,-11.00,+60.00
+74.00,+66.00,+12.00,+8.00,+35.00,-41.00,+10.00,+66.00,-12.00,-7.00,-17.00,-16.00,+10.00,+8.00,-7.00,-78.00
+25.00,-35.00,-13.00,-5.00,-9.00,-34.00,-25.00,+7.00,+26.00,-13.00,-26.00,-27.00,+4.00,+119.00,+91.00,+127.00
-38.00,+25.00,+16.00,+11.00,+12.00,-11.00,-10.00,+19.00,+2.00,+3.00,+44.00,+28.00,+14.00,-95.00,-66.00,-68.00
-21.00,-15.00,-4.00,+6.00,+71.00,+21.00,+19.00,-25.00,-10.00,-25.00,-9.00,-13.00,-8.00,+23.00,+95.00,+24.00
-16.00,+27.00,+3.00,-12.00,-23.00,-6.00,-17.00,+0.00,-3.00,+51.00,+50.00,+14.00,-11.00,+0.00,+3.00,-46.00
+42.00,+11.00,-36.00,-3.00,-21.00,+40.00,+0.00,+49.00,+10.00,-63.00,-47.00,+2.00,+23.00,-3.00,+8.00,+33.00
+8.00,-25.00,+21.00,-1.00,+1.00,-20.00,+2.00,-68.00,-13.00,-41.00,-15.00,-35.00,-42.00,+35.00,-68.00,-59.00
+50.00,+49.00,+63.00,+14.00,-20.00,+79.00,+54.00,-35.00,+1.00,+56.00,+52.00,-4.00,-10.00,+13.00,+81.00,+97.00
-2.00,+8.00,-11.00,+2.00,-22.00,-76.00,+11.00,+84.00,-6.00,-55.00,-45.00,+15.00,+41.00,-10.00,-19.00,-14.00
-25.00,-25.00,-6.00,-15.00,-7.00,+104.00,+2.00,-108.00,+1.00,+35.00,+43.00,+0.00,-27.00,-31.00,-83.00,-128.00
+7.00,+7.00,-29.00,-3.00,-18.00,-36.00,-58.00,+31.00,-19.00,+37.00,+8.00,+25.00,+44.00,+4.00,-24.00,-10.00
-10.00,+12.00,+3.00,-4.00,+8.00,-11.00,-22.00,+34.00,+1.00,-8.00,-13.00,-20.00,-13.00,-53.00,+6.00,+11.00
+42.00,-20.00,+8.00,+22.00,+20.00,-1.00,+82.00,+90.00,-6.00,+84.00,+27.00,-1.00,-26.00,+89.00,-10.00,-61.00
+5.00,-16.00,+0.00,-12.00,-20.00,-32.00,-16.00,-72.00,-12.00,-52.00,+8.00,+8.00,+0.00,-104.00,+13.00,+38.00
+42.00,+11.00,+5.00,+13.00,+25.00,+78.00,+64.00,+115.00,+2.00,-115.00,-89.00,+4.00,+5.00,-21.00,+4.00,-114.00
-23.00,-11.00,+5.00,-8.00,-10.00,-56.00,-29.00,-48.00,-21.00,-5.00,-8.00,-14.00,-31.00,-31.00,-107.00,+26.00
-34.00,-26.00,-24.00,-19.00,+19.00,+0.00,-26.00,+6.00,+5.00,+6.00,+8.00,+6.00,+15.00,+39.00,+32.00,+75.00
-26.00,-15.00,-4.00,+0.00,-9.00,-6.00,-79.00,+62.00,+4.00,+96.00,+53.00,+30.00,-27.00,+125.00,+71.00,+42.00
+31.00,+20.00,+3.00,-2.00,+5.00,-5.00,+42.00,+45.00,-3.00,-30.00,+5.00,+3.00,-2.00,-108.00,-27.00,-79.00
-5.00,+8.00,+17.00,+18.00,+25.00,+28.00,+37.00,+63.00,-24.00,-39.00,-24.00,-6.00,+21.00,+23.00,+21.00,-67.00
+4.00,-29.00,-27.00,+1.00,-3.00,+39.00,-1.00,-75.00,+8.00,-7.00,-6.00,-21.00,-39.00,+12.00,+1.00,-2.00
-30.00,+9.00,+19.00,-6.00,-9.00,+55.00,+37.00,+95.00,-5.00,-3.00,-25.00,+4.00,+25.00,-30.00,-45.00,-49.00
+75.00,-2.00,-19.00,-19.00,+0.00,-53.00,-64.00,-108.00,+2.00,+116.00,+109.00,+20.00,-13.00,+10.00,-79.00,+79.00
-51.00,-50.00,-30.00,-10.00,-22.00,-73.00,-21.00,+26.00,+18.00,+43.00,-37.00,+2.00,-21.00,+89.00,+44.00,-104.00
+77.00,+31.00,+16.00,+18.00,-16.00,-58.00,-25.00,+15.00,-51.00,-74.00,+40.00,+1.00,-2.00,-128.00,-114.00,-32.00
+30.00,+50.00,+16.00,-2.00,-34.00,+75.00,+41.00,-8.00,-11.00,-68.00,-92.00,-44.00,-1.00,-42.00,+106.00,+76.00
-27.00,-35.00,-3.00,+14.00,+45.00,-57.00,+41.00,-59.00,+16.00,+68.00,+46.00,+15.00,+10.00,+90.00,-26.00,-13.00
+20.00,+26.00,+27.00,+7.00,-12.00,+19.00,+12.00,+70.00,-16.00,+67.00,+39.00,-14.00,+1.00,+14.00,-32.00,+18.00
-31.00,-65.00,-63.00,-31.00,-20.00,-95.00,-105.00,-76.00,+27.00,+3.00,-29.00,+23.00,-12.00,+37.00,-65.00,+57.00
-66.00,-18.00,-6.00,+4.00,+10.00,+6.00,+56.00,-128.00,-3.00,+55.00,+44.00,+9.00,-38.00,+5.00,-63.00,-10.00
+57.00,+88.00,+38.00,+0.00,-12.00,+82.00,+70.00,+127.00,+8.00,-55.00,-19.00,-16.00,+85.00,-52.00,+59.00,+127.00
+15.00,-12.00,+11.00,+8.00,+7.00,+18.00,+17.00,-90.00,+22.00,+18.00,+21.00,-5.00,-37.00,-30.00,+67.00,+103.00
-84.00,+8.00,+14.00,+6.00,-6.00,+34.00,-12.00,-83.00,-14.00,-37.00,-19.00,-6.00,+51.00,+47.00,-19.00,-86.00
+59.00,-37.00,-30.00,+10.00,+21.00,-43.00,-56.00,+33.00,+16.00,+61.00,+5.00,-28.00,-42.00,+47.00,-71.00,+80.00
-61.00,+0.00,+4.00,-9.00,-11.00,+109.00,+53.00,+25.00,-12.00,+27.00,+5.00,-1.00,-30.00,-46.00,+119.00,+76.00
+15.00,-10.00,-21.00,-13.00,-12.00,-61.00,-49.00,-44.00,+4.00,-83.00,-46.00,-1.00,-3.00,+75.00,-102.00,-112.00
+2.00,+1.00,+26.00,+7.00,+7.00,+53.00,+15.00,+84.00,+24.00,+35.00,+27.00,-4.00,+34.00,+48.00,+57.00,+112.00
-18.00,-6.00,-2.00,+15.00,+5.00,-10.00,-4.00,-21.00,-9.00,+8.00,-36.00,+17.00,-12.00,-116.00,-82.00,-128.00
-57.00,-74.00,-62.00,-9.00,-8.00,-18.00,-33.00,-86.00,-8.00,-13.00,+30.00,+23.00,+21.00,+60.00,+73.00,-14.00
+79.00,+33.00,+6.00,-4.00,-1.00,+34.00,+30.00,+61.00,-14.00,-89.00,-1.00,+11.00,+28.00,-55.00,-100.00,-28.00
-64.00,-31.00,-8.00,-23.00,+2.00,-19.00,-10.00,-60.00,+1.00,-24.00,-59.00,-27.00,-42.00,-4.00,+27.00,-22.00
+47.00,+66.00,+57.00,+10.00,+30.00,+53.00,+69.00,+6.00,-20.00,-46.00,-4.00,-17.00,-21.00,+23.00,-28.00,-3.00
+39.00,-11.00,+5.00,+7.00,-4.00,-4.00,-27.00,+127.00,+20.00,+87.00,+65.00,+3.00,+1.00,+8.00,-89.00,+19.00
-10.00,+2.00,-6.00,+2.00,-21.00,+3.00,-7.00,+18.00,-1.00,-91.00,-51.00,+14.00,+0.00,-36.00,+11.00,+91.00
-27.00,-36.00,-23.00,+4.00,-18.00,-16.00,-30.00,+42.00,+4.00,+17.00,+6.00,-4.00,+0.00,-1.00,+62.00,+39.00
+28.00,-20.00,+12.00,+0.00,+42.00,-47.00,-15.00,+125.00,+0.00,+3.00,+41.00,+16.00,+48.00,+38.00,+96.00,-47.00
-63.00,+21.00,-12.00,-11.00,-11.00,+70.00,+71.00,-96.00,+13.00,+33.00,-5.00,-12.00,-31.00,+61.00,-29.00,+74.00
-42.00,-36.00,-25.00,-6.00,+60.00,-31.00,+2.00,+80.00,-27.00,+47.00,+13.00,+0.00,+2.00,+13.00,+0.00,-111.00
+93.00,+65.00,+61.00,+25.00,-1.00,+33.00,+36.00,+18.00,-2.00,+2.00,-4.00,-2.00,-115.00,-75.00,+17.00,+58.00
-5.00,-10.00,+4.00,-6.00,-10.00,-55.00,-84.00,-100.00,-12.00,+18.00,+4.00,-3.00,+116.00,-42.00,-110.00,-66.00
+52.00,-75.00,-24.00,+12.00,+4.00,-13.00,+3.00,+15.00,+8.00,-24.00,-14.00,+12.00,-25.00,+1.00,+57.00,+31.00
+9.00,+75.00,+25.00,-5.00,-22.00,-36.00,-57.00,-36.00,+0.00,-3.00,+24.00,-8.00,+41.00,+64.00,+97.00,-26.00
+84.00,-26.00,-16.00,-9.00,-7.00,-30.00,-41.00,-18.00,+27.00,+103.00,+92.00,+9.00,-45.00,+43.00,+56.00,+46.00
+66.00,-15.00,+14.00,+12.00,+7.00,+94.00,+104.00,+43.00,-10.00,-128.00,-113.00,-55.00,-56.00,-103.00,-26.00,-66.00
+88.00,+23.00,+7.00,-1.00,-9.00,-14.00,-27.00,-88.00,-8.00,+37.00,-1.00,-9.00,+2.00,+42.00,-46.00,-23.00
+43.00,-70.00,-11.00,-7.00,-3.00,+56.00,+45.00,+41.00,-30.00,+100.00,+25.00,-16.00,-51.00,-27.00,-58.00,-27.00
+4.00,+52.00,-1.00,-22.00,-11.00,-15.00,-13.00,-63.00,-9.00,-51.00,-53.00,-25.00,-1.00,-56.00,-128.00,-114.00
-79.00,-49.00,-33.00,-11.00,-39.00,-101.00,-116.00,-41.00,-9.00,-52.00,-20.00,-1.00,-19.00,+1.00,+100.00,+84.00
-50.00,-18.00,-21.00,-5.00,+1.00,-49.00,-32.00,-76.00,+10.00,+38.00,+6.00,+19.00,+27.00,+87.00,-47.00,-109.00
+12.00,+75.00,+44.00,+4.00,+12.00,+62.00,+51.00,-8.00,-5.00,-11.00,+4.00,-6.00,-30.00,-2.00,+80.00,+113.00
-45.00,-56.00,-52.00,-27.00,-10.00,-8.00,+4.00,-27.00,+7.00,+113.00,+45.00,+3.00,+40.00,+21.00,-128.00,-93.00
+15.00,+13.00,-2.00,-17.00,-13.00,+2.00,+31.00,+76.00,-32.00,-46.00,-45.00,-6.00,-11.00,-93.00,-41.00,+69.00
-45.00,-1.00,+9.00,+4.00,-16.00,-53.00,-32.00,-24.00,+7.00,-117.00,-55.00,-18.00,+51.00,+6.00,-37.00,-128.00
+7.00,+5.00,-27.00,-1.00,-24.00,-53.00,-90.00,+15.00,+3.00,+106.00,+86.00,+42.00,-20.00,-28.00,-110.00,-113.00
-52.00,+0.00,+28.00,+19.00,+37.00,+64.00,+94.00,+21.00,+9.00,-108.00,-78.00,-14.00,+36.00,+24.00,+76.00,+79.00
-56.00,-32.00,-21.00,-11.00,-7.00,+29.00,+8.00,-66.00,-8.00,+127.00,+92.00,+34.00,+0.00,+127.00,+42.00,+113.00
-100.00,-52.00,-39.00,-15.00,-60.00,-51.00,-97.00,-59.00,-9.00,-128.00,-97.00,-20.00,-93.00,-87.00,+71.00,+66.00
+73.00,+61.00,+39.00,+13.00,+66.00,+2.00,+57.00,+113.00,+40.00,+10.00,+32.00,+25.00,+46.00,-6.00,-43.00,-60.00
-11.00,-48.00,-53.00,+10.00,-8.00,+7.00,-48.00,+3.00,-16.00,+14.00,+1.00,-10.00,-3.00,+26.00,-33.00,+30.00
-11.00,+108.00,+76.00,+6.00,+14.00,+62.00,+121.00,+52.00,+28.00,+27.00,+24.00,+1.00,+18.00,+61.00,+82.00,+27.00
-15.00,+2.00,+9.00,+1.00,+13.00,+19.00,+46.00,+12.00,-36.00,+0.00,+12.00,+5.00,-17.00,+89.00,+8.00,+30.00
-45.00,-65.00,-17.00,-11.00,-53.00,-76.00,-110.00,-128.00,+13.00,+25.00,-33.00,-11.00,-39.00,-49.00,+66.00,+25.00
+10.00,-19.00,+12.00,+12.00,+13.00,+19.00,-10.00,+68.00,-21.00,-62.00,-17.00,+12.00,+47.00,-115.00,+6.00,-29.00
-55.00,+8.00,-26.00,-22.00,+5.00,+3.00,+7.00,-97.00,+45.00,+65.00,+31.00,+34.00,+13.00,+50.00,+50.00,+20.00
+101.00,+71.00,+16.00,+0.00,+6.00,+7.00,-9.00,+77.00,-11.00,+54.00,+28.00,-23.00,+16.00,+19.00,-18.00,+70.00
-80.00,-102.00,-15.00,-12.00,-27.00,+6.00,+8.00,+6.00,-38.00,-97.00,-86.00,-18.00,+35.00,-55.00,-5.00,-3.00
+12.00,+48.00,-22.00,-7.00,+19.00,+2.00,+38.00,-72.00,+38.00,+89.00,+84.00,+35.00,-43.00,+65.00,+83.00,+7.00
-1.00,+9.00,+47.00,+27.00,+74.00,-8.00,-4.00,-88.00,+15.00,-35.00,-15.00,-27.00,+55.00,-125.00,-69.00,-14.00
+21.00,+27.00,+25.00,-9.00,+100.00,-10.00,+8.00,+76.00,-20.00,+2.00,+13.00,+2.00,-75.00,+52.00,+25.00,+17.00
+50.00,-31.00,-15.00,+6.00,+104.00,+50.00,+12.00,-2.00,+80.00,+76.00,+86.00,+24.00,+39.00,-88.00,-4.00,+86.00
-23.00,+62.00,+49.00,+8.00,+27.00,+3.00,+30.00,+99.00,-39.00,-115.00,-77.00,-41.00,-23.00,+8.00,+11.00,-61.00
-34.00,-37.00,-56.00,-14.00,-76.00,-82.00,-106.00,-77.00,-25.00,-14.00,-6.00,-12.00,-10.00,-50.00,-67.00,+32.00
+17.00,+27.00,+39.00,+21.00,-62.00,+61.00,+51.00,-73.00,+55.00,+57.00,+40.00,+32.00,+18.00,+59.00,+64.00,-128.00
+3.00,+41.00,+21.00,+11.00,-75.00,+71.00,+72.00,+4.00,-49.00,-110.00,-3.00,-35.00,-63.00,+127.00,-57.00,-14.00
-31.00,-14.00,+1.00,-12.00,-65.00,-6.00,-21.00,-76.00,+23.00,-28.00,+3.00,+42.00,+71.00,-112.00,-53.00,-76.00
+94.00,+10.00,-23.00,-5.00,-25.00,-10.00,-10.00,+79.00,+4.00,+12.00,+23.00,+16.00,-37.00,+72.00,-18.00,-12.00
-80.00,-50.00,-22.00,+1.00,-32.00,-61.00,-97.00,+8.00,-11.00,-4.00,-45.00,+19.00,+56.00,+30.00,+19.00,-9.00
-9.00,-4.00,+23.00,+13.00,-13.00,-12.00,-41.00,-59.00,-1.00,+10.00,+22.00,+8.00,+8.00,+17.00,+84.00,+77.00
+74.00,-1.00,-4.00,-6.00,-25.00,+71.00,+91.00,+45.00,+20.00,+42.00,+27.00,-6.00,-18.00,+36.00,+94.00,-47.00
-23.00,+7.00,-8.00,-4.00,-31.00,-58.00,-34.00,+62.00,-2.00,-56.00,-33.00,-26.00,-67.00,+1.00,-68.00,-128.00
+28.00,-11.00,-35.00,-14.00,-1.00,+21.00,-8.00,-67.00,-9.00,+6.00,-16.00,-34.00,-8.00,-40.00,-37.00,+59.00
-8.00,+12.00,+39.00,+31.00,-10.00,-12.00,-32.00,-62.00,+3.00,+55.00,+64.00,+39.00,-3.00,+127.00,+111.00,+77.00
+38.00,-49.00,-42.00,-10.00,+28.00,+18.00,+0.00,-22.00,+2.00,+73.00,-2.00,+18.00,+55.00,-114.00,-67.00,-12.00
+38.00,+32.00,-10.00,-22.00,+3.00,+11.00,+91.00,+16.00,-12.00,-72.00,-40.00,-11.00,-8.00,-8.00,+80.00,+9.00
+50.00,-16.00,-8.00,-3.00,+4.00,-36.00,-62.00,+88.00,-49.00,-48.00,-49.00,-34.00,-23.00,+29.00,-30.00,-43.00
-74.00,-63.00,-35.00,-5.00,+6.00,+82.00,+93.00,-50.00,+36.00,+86.00,+62.00,+9.00,-25.00,+85.00,+20.00,+3.00
-48.00,+3.00,+29.00,+11.00,+13.00,-35.00,-57.00,-121.00,-72.00,-128.00,-36.00,-17.00,+14.00,-71.00,-115.00,-70.00
-41.00,+26.00,+16.00,+22.00,+16.00,+18.00,-51.00,-84.00,-13.00,-28.00,-16.00,+5.00,-17.00,+44.00,+8.00,+57.00
+10.00,+12.00,+39.00,+23.00,+7.00,+29.00,+86.00,+113.00,+37.00,+34.00,+37.00,+6.00,+29.00,-20.00,-36.00,-37.00
-43.00,-7.00,-34.00,-9.00,-1.00,-99.00,-74.00,-57.00,-16.00,-8.00,-7.00,-55.00,-100.00,-41.00,-97.00,-62.00
+56.00,+18.00,+24.00,+14.00,+31.00,+88.00,+88.00,+127.00,-58.00,-24.00,-21.00,-12.00,+66.00,+5.00,+56.00,+71.00
-37.00,-56.00,-33.00,-32.00,-30.00,+8.00,-40.00,-14.00,+44.00,+97.00,+63.00,+15.00,+15.00,+1.00,-24.00,-111.00
-71.00,+37.00,+8.00,-7.00,-7.00,-35.00,-24.00,-37.00,-30.00,-49.00,-40.00,-16.00,+12.00,-12.00,-45.00,-17.00
-19.00,-37.00,-1.00,+7.00,-11.00,+1.00,-24.00,+90.00,-14.00,+45.00,+0.00,+36.00,-7.00,+53.00,-94.00,-116.00
-6.00,-6.00,+3.00,+4.00,+39.00,-53.00,-33.00,+43.00,+47.00,+65.00,+47.00,+2.00,-3.00,-20.00,+47.00,+106.00
+40.00,+50.00,+16.00,+16.00,+85.00,+46.00,+47.00,+24.00,-20.00,-33.00,+0.00,+15.00,+18.00,+36.00,-1.00,-14.00
-56.00,-40.00,-18.00,-19.00,-29.00,-53.00,-38.00,-107.00,+0.00,-26.00,-27.00,+71.00,+46.00,-45.00,-22.00,+48.00
-8.00,+54.00,-1.00,-5.00,+1.00,-94.00,-85.00,-80.00,-7.00,+4.00,-23.00,-96.00,-54.00,-44.00,-91.00,-96.00
+78.00,-73.00,-55.00,-5.00,-17.00,+78.00,+86.00,+61.00,-13.00,-30.00,-29.00,-13.00,-25.00,+60.00,-11.00,+10.00
-21.00,+36.00,+20.00,-1.00,+6.00,+50.00,+25.00,-39.00,+35.00,+42.00,+43.00,+35.00,+55.00,+61.00,+44.00,-28.00
-18.00,-22.00,+7.00,-5.00,-10.00,-31.00,-33.00,-31.00,+29.00,+63.00,+52.00,+5.00,-21.00,-102.00,-96.00,-74.00
+11.00,+54.00,-13.00,-6.00,-17.00,-67.00,-98.00,-73.00,+9.00,-66.00,-48.00,+8.00,+73.00,+26.00,+91.00,+127.00
+47.00,-10.00,+64.00,+24.00,+35.00,+59.00,+56.00,+21.00,+10.00,+77.00,+45.00,+4.00,-64.00,+40.00,-119.00,-125.00
-27.00,-56.00,-40.00,-22.00,-19.00,-24.00,-27.00,-128.00,-17.00,+26.00,-11.00,-25.00,-20.00,+60.00,+61.00,+83.00
-30.00,-47.00,-6.00,-7.00,-14.00,+28.00,+26.00,+17.00,+10.00,-37.00,+9.00,+10.00,+25.00,-89.00,-55.00,+101.00
+15.00,-52.00,-79.00,-45.00,-13.00,-42.00,-38.00,+45.00,-63.00,-128.00,-106.00,-28.00,+29.00,-104.00,-80.00,-128.00
-69.00,+76.00,+61.00,+31.00,+36.00,-42.00,-44.00,-128.00,+14.00,+30.00,-3.00,-12.00,-21.00,+84.00,+46.00,+12.00
+21.00,-64.00,-14.00,+7.00,+111.00,+15.00,+60.00,+110.00,+1.00,+69.00,+16.00,+26.00,-22.00,+103.00,+77.00,+93.00
-57.00,-30.00,-11.00,-35.00,+127.00,-32.00,-51.00,-45.00,+31.00,+127.00,+123.00,+24.00,+54.00,+96.00,-22.00,-123.00
+9.00,-11.00,-2.00,+22.00,+127.00,+30.00,+58.00,-61.00,-6.00,-128.00,-51.00,+10.00,-8.00,-128.00,-50.00,+5.00
+34.00,+7.00,-5.00,-11.00,+95.00,+26.00,+49.00,+30.00,+3.00,-24.00,-3.00,-13.00,-71.00,+14.00,-41.00,+55.00
+29.00,+9.00,+6.00,-4.00,-18.00,+5.00,+0.00,-34.00,-27.00,+10.00,+29.00,+3.00,+34.00,+30.00,-43.00,-85.00
-32.00,+11.00,-3.00,+2.00,-68.00,-52.00,-78.00,-91.00,+12.00,+13.00,-19.00,-9.00,-7.00,+25.00,+14.00,-59.00
-35.00,-32.00,-15.00,-1.00,-99.00,+34.00,+18.00,+65.00,+7.00,+71.00,+65.00,+30.00,+77.00,+120.00,+54.00,-48.00
-72.00,-15.00,-13.00,-24.00,-128.00,-40.00,-48.00,-20.00,-26.00,-8.00,-13.00,+1.00,-12.00,+127.00,+116.00,+25.00
+68.00,+39.00,+58.00,+68.00,-111.00,+18.00,-22.00,-53.00,+51.00,+78.00,+50.00,-14.00,-126.00,-128.00,-80.00,+18.00
+71.00,+0.00,-44.00,-20.00,-114.00,+63.00,+95.00,+110.00,-10.00,-90.00,-106.00,-53.00,+22.00,-99.00,-98.00,-47.00
+1.00,+6.00,-20.00,-24.00,-120.00,+27.00,+26.00,-10.00,-31.00,-52.00,-9.00,+31.00,-6.00,+88.00,+4.00,-49.00
-16.00,+49.00,-3.00,+9.00,-128.00,-51.00,-23.00,-31.00,-11.00,+50.00,+28.00,+10.00,+15.00,-30.00,+2.00,+41.00
-32.00,-59.00,+15.00,-12.00,-128.00,-98.00,-128.00,-77.00,-42.00,-93.00,-55.00,-46.00,+41.00,-56.00,-115.00,-80.00
+56.00,+33.00,+16.00,+21.00,-68.00,+94.00,+97.00,+75.00,+15.00,+60.00,-38.00,-25.00,-111.00,-3.00,+126.00,+127.00
+5.00,+113.00,+57.00,-7.00,-107.00,+36.00,+30.00,-6.00,-2.00,-16.00,+12.00,+8.00,-21.00,+3.00,+34.00,+48.00
+28.00,+26.00,+47.00,+27.00,-117.00,-8.00,-24.00,+0.00,+19.00,-5.00,-43.00,-6.00,+16.00,-59.00,+55.00,-21.00
-94.00,+6.00,-15.00,-9.00,-124.00,-45.00,-87.00,-119.00,-32.00,-13.00,+47.00,-8.00,-29.00,-9.00,-95.00,-116.00
-4.00,-105.00,-33.00,+12.00,-116.00,-118.00,-105.00,-34.00,-26.00,-109.00,-98.00,-36.00,-59.00,+23.00,+26.00,-12.00
+51.00,+97.00,+2.00,-7.00,-6.00,+127.00,+127.00,+103.00,+2.00,+97.00,+41.00,+16.00,+71.00,-40.00,+42.00,+57.00
-126.00,+12.00,+2.00,-19.00,-59.00,-64.00,-98.00,-108.00,+5.00,+110.00,+74.00,+16.00,-38.00,-26.00,-88.00,-85.00
-80.00,-27.00,-5.00,+5.00,-27.00,-2.00,+9.00,+44.00,-21.00,-7.00,-37.00,+31.00,+84.00,+127.00,+20.00,+37.00
+24.00,+62.00,+50.00,+15.00,-3.00,+19.00,+27.00,+60.00,+10.00,-39.00,+25.00,-21.00,-94.00,+8.00,-89.00,-91.00
-65.00,-92.00,-30.00,-5.00,-14.00,-42.00,-4.00,+73.00,+48.00,+59.00,+40.00,+17.00,+53.00,-58.00,+60.00,+38.00
-69.00,-52.00,-32.00,-23.00,+5.00,-68.00,-119.00,-64.00,-8.00,-46.00,-24.00,-5.00,+10.00,+57.00,-69.00,-48.00
+20.00,-13.00,-1.00,+29.00,+62.00,+96.00,+127.00,+127.00,-7.00,-34.00,-6.00,-1.00,-18.00,-54.00,+3.00,+61.00
-22.00,+56.00,+5.00,+11.00,+11.00,+102.00,+48.00,+76.00,-27.00,-40.00,-8.00,-22.00,-2.00,+65.00,-37.00,+46.00
+27.00,-52.00,+9.00,+2.00,+42.00,-42.00,-36.00,-49.00,+15.00,+74.00,+2.00,+0.00,+3.00,+69.00,+32.00,-14.00
+58.00,-41.00,-23.00,-11.00,+11.00,-8.00,-39.00,+12.00,+18.00,+3.00,+60.00,+5.00,+55.00,+14.00,+83.00,+112.00
+86.00,+39.00,-24.00,-30.00,+12.00,-4.00,+2.00,+0.00,+2.00,-109.00,-65.00,-22.00,-97.00,+3.00,-34.00,-91.00
-23.00,-47.00,-9.00,+20.00,+33.00,-32.00,-10.00,-116.00,+0.00,+2.00,+72.00,+25.00,+109.00,-67.00,-37.00,-28.00
+58.00,+68.00,+41.00,-2.00,+30.00,+16.00,-7.00,-19.00,-16.00,+33.00,-27.00,-7.00,-43.00,-14.00,+67.00,+87.00
+19.00,+6.00,-36.00,-23.00,-7.00,-12.00,+10.00,+44.00,-15.00,-72.00,+43.00,+28.00,+3.00,+25.00,-49.00,-12.00
+77.00,+67.00,+36.00,+14.00,+47.00,-5.00,+49.00,+109.00,+5.00,-82.00,-87.00,-76.00,-27.00,-59.00,+60.00,-70.00
+6.00,+102.00,+35.00,-9.00,+1.00,-32.00,+2.00,-17.00,-51.00,-1.00,+1.00,-3.00,-5.00,+77.00,+49.00,+94.00
-24.00,-43.00,-19.00,-14.00,+5.00,-18.00,-32.00,-70.00,+63.00,+69.00,+34.00,+31.00,-25.00,-7.00,-54.00,-64.00
-77.00,-120.00,-18.00,+5.00,+24.00,+55.00,+90.00,+44.00,+19.00,+67.00,+73.00,+35.00,+51.00,+28.00,+87.00,+67.00
-85.00,-26.00,-34.00,-32.00,-24.00,-105.00,-118.00,-86.00,-38.00,-56.00,-24.00,-3.00,+1.00,-51.00,-17.00,+33.00
+65.00,+17.00,+30.00,+32.00,+83.00,-4.00,-32.00,+98.00,+24.00,+99.00,+30.00,-17.00,-122.00,+58.00,+45.00,+6.00
+15.00,-27.00,+14.00,+37.00,+44.00,+82.00,+106.00,+79.00,+2.00,+38.00,+22.00,+45.00,+124.00,+90.00,-69.00,+55.00
+23.00,+24.00,+3.00,+8.00,+64.00,-13.00,-7.00,-18.00,+1.00,+45.00,-15.00,-62.00,-128.00,-85.00,-28.00,+47.00
-14.00,-22.00,-4.00,+1.00,+32.00,+106.00,+59.00,+7.00,+32.00,+63.00,+45.00,+60.00,+15.00,-59.00,+35.00,+60.00
+23.00,-20.00,-4.00,-22.00,-31.00,-70.00,-68.00,-128.00,+25.00,-5.00,+26.00,+29.00,+44.00,-20.00,+77.00,+74.00
+5.00,-96.00,-43.00,-17.00,-17.00,-56.00,-86.00,-89.00,-32.00,-58.00,-63.00,-36.00,-93.00,-31.00,+5.00,-42.00
-47.00,+44.00,-21.00,-17.00,-15.00,-21.00,-53.00,-60.00,-18.00,-68.00,-57.00,-23.00,+3.00,+24.00,-96.00,-128.00
+83.00,+64.00,+34.00,+18.00,-5.00,-48.00,-67.00,+63.00,+7.00,+127.00,+127.00,+58.00,+28.00,+127.00,+84.00,+127.00
+44.00,-2.00,-6.00,-25.00,+1.00,+72.00,+85.00,+34.00,-46.00,-92.00,-94.00,-47.00,-7.00,-128.00,-48.00,-118.00
-28.00,-56.00,+19.00,+41.00,+9.00,-8.00,-13.00,-44.00,+24.00,+75.00,+76.00,-13.00,-1.00,-1.00,+40.00,+98.00
+22.00,-95.00,-28.00,+4.00,+20.00,+27.00,-1.00,-71.00,+18.00,+47.00,-18.00,+35.00,+63.00,-14.00,-3.00,+49.00
+20.00,+40.00,+26.00,-16.00,+31.00,-7.00,+5.00,+3.00,+0.00,+33.00,+67.00,+15.00,+50.00,+87.00,+52.00,+73.00
-39.00,-13.00,-11.00,-39.00,-12.00,-37.00,-71.00,-105.00,-23.00,-50.00,-10.00,+0.00,-28.00,-55.00,-10.00,-34.00
-9.00,-11.00,-9.00,+6.00,+9.00,+23.00,-7.00,-14.00,+26.00,+16.00,+43.00,+21.00,+42.00,-19.00,+17.00,-49.00
+16.00,-78.00,-7.00,+14.00,+20.00,+67.00,+90.00,+26.00,+15.00,-60.00,-94.00,-4.00,-39.00,+24.00,-27.00,-79.00
-33.00,+21.00,+46.00,+11.00,+1.00,+24.00,+29.00,-77.00,+27.00,+127.00,+74.00,+4.00,+52.00,+120.00,+51.00,+49.00
+5.00,-10.00,+20.00,+25.00,+20.00,-69.00,-85.00,-9.00,-26.00,-31.00,-16.00,-2.00,-59.00,-28.00,-70.00,+52.00
+22.00,+17.00,+10.00,+10.00,-26.00,-33.00,+3.00,+52.00,-30.00,-85.00,-65.00,-25.00,+56.00,-13.00,+70.00,+27.00
-37.00,-17.00,-21.00,-4.00,+32.00,+6.00,-18.00,-18.00,-2.00,+14.00,+15.00,-37.00,-94.00,-65.00,-105.00,+18.00
-5.00,-56.00,-36.00,-6.00,+52.00,+85.00,+60.00,+122.00,-40.00,-20.00,-22.00,+31.00,+73.00,+89.00,+36.00,-71.00
+18.00,+28.00,+19.00,+29.00,+81.00,+86.00,+127.00,+63.00,+7.00,+17.00,+12.00,-4.00,-58.00,-81.00,-64.00,-43.00
-41.00,+8.00,-41.00,-32.00,-63.00,-70.00,-112.00,-74.00,-75.00,-66.00,-34.00,+28.00,+11.00,-9.00,-98.00,+64.00
+35.00,+40.00,+25.00,-2.00,+0.00,-83.00,-77.00,+11.00,+103.00,+27.00,+43.00,+16.00,+1.00,-53.00,+58.00,+58.00
+4.00,-112.00,-108.00,-51.00,-30.00,-74.00,-72.00,-27.00,+45.00,+63.00,+8.00,+5.00,+11.00,+1.00,-36.00,+46.00
-3.00,+61.00,+103.00,+62.00,+37.00,+40.00,+22.00,+98.00,-34.00,+98.00,+69.00,-23.00,+19.00,+59.00,+75.00,+34.00
-6.00,+2.00,-53.00,-27.00,+18.00,+25.00,+12.00,+14.00,+57.00,+21.00,+15.00,-11.00,-54.00,+34.00,-16.00,-1.00
+105.00,+64.00,+34.00,+35.00,-14.00,+8.00,+61.00,+91.00,-73.00,-100.00,-19.00,+18.00,+61.00,+28.00,-32.00,-101.00
-54.00,-128.00,-53.00,-31.00,-34.00,-47.00,-60.00,-128.00,-33.00,-71.00,-65.00,-22.00,-30.00,-74.00,-46.00,-45.00
-15.00,+41.00,+17.00,-20.00,-8.00,+27.00,+28.00,+25.00,+77.00,+126.00,+127.00,+54.00,+60.00,+107.00,+102.00,+111.00
+6.00,-35.00,-49.00,-38.00,-28.00,-33.00,-42.00,-21.00,-77.00,-113.00,-96.00,-48.00,-31.00,-22.00,-97.00,-106.00
-14.00,+73.00,+55.00,+29.00,+19.00,+30.00,+51.00,+101.00,+27.00,+31.00,+30.00,+6.00,+14.00,+39.00,+42.00,+50.00
-37.00,-128.00,-68.00,+5.00,-34.00,-108.00,-114.00,-78.00,+20.00,+45.00,+8.00,+2.00,-46.00,-5.00,-119.00,-118.00
+37.00,+11.00,-4.00,-8.00,-18.00,-86.00,-83.00,+71.00,+20.00,+69.00,+46.00,+60.00,+108.00,+2.00,+59.00,+37.00
+5.00,+42.00,+59.00,+0.00,+17.00,+90.00,+123.00,+111.00,+10.00,+89.00,+16.00,+7.00,-4.00,+9.00,-39.00,-17.00
+38.00,+15.00,-6.00,-13.00,-24.00,+52.00,+31.00,-38.00,+2.00,-6.00,-33.00,-35.00,-5.00,-53.00,-60.00,-77.00
+9.00,+41.00,+37.00,+38.00,+35.00,-87.00,-101.00,-3.00,-14.00,-62.00,-15.00,+9.00,+5.00,-5.00,+15.00,+42.00
-27.00,-54.00,-30.00,-1.00,-4.00,+46.00,+73.00,+46.00,-21.00,-51.00,-41.00,-66.00,-116.00,+81.00,+74.00,+64.00
+76.00,+5.00,+14.00,-3.00,-19.00,-9.00,-3.00,-120.00,+44.00,+33.00,+26.00,-17.00,+72.00,+62.00,-47.00,-60.00
+73.00,+3.00,+15.00,+22.00,+46.00,+40.00,+68.00,+98.00,-46.00,+86.00,+59.00,+12.00,+26.00,-37.00,-35.00,-28.00
+19.00,+6.00,+1.00,-7.00,-18.00,+40.00,+48.00,-23.00,+17.00,+24.00,-23.00,-9.00,-26.00,-78.00,+36.00,+7.00
-99.00,+24.00,-81.00,-56.00,-20.00,-51.00,-102.00,-128.00,+36.00,-87.00,-80.00,-7.00,+37.00,+30.00,-44.00,-96.00
-10.00,-8.00,+39.00,+50.00,+45.00,-18.00,+27.00,+111.00,-46.00,-30.00,-14.00,-7.00,-61.00,-36.00,+113.00,+1.00
+17.00,+61.00,+63.00,-6.00,-17.00,-42.00,-43.00,-48.00,+31.00,+101.00,+91.00,+22.00,-2.00,+71.00,+6.00,+25.00
-19.00,+39.00,+36.00,+8.00,-3.00,+32.00,+47.00,+14.00,-4.00,-85.00,-50.00,-68.00,-29.00,-7.00,+67.00,+70.00
-32.00,-128.00,-128.00,-29.00,-18.00,+6.00,+32.00,-16.00,-15.00,+87.00,+77.00,+19.00,+35.00,-23.00,-117.00,-124.00
+52.00,+118.00,+66.00,-17.00,-19.00,-90.00,-115.00,-96.00,+15.00,-102.00,-24.00,-31.00,-8.00,-13.00,+82.00,-28.00
-76.00,-11.00,-30.00,-25.00,-16.00,-58.00,-44.00,+74.00,-12.00,+56.00,+35.00,+34.00,+0.00,-2.00,+14.00,+38.00
-42.00,+32.00,+26.00,+10.00,+21.00,+49.00,-3.00,+92.00,-4.00,+23.00,+22.00,-5.00,-52.00,-58.00,-35.00,+23.00
-62.00,-110.00,-7.00,+22.00,+15.00,+49.00,+58.00,-50.00,-30.00,-41.00,-72.00,-19.00,+43.00,+41.00,-19.00,-74.00
-16.00,-37.00,-24.00,-11.00,-40.00,-58.00,-60.00,-11.00,-13.00,+37.00,+6.00,-20.00,-63.00,+73.00,+31.00,+120.00
-12.00,-8.00,+23.00,+16.00,+58.00,+65.00,+47.00,+79.00,-44.00,-47.00,-39.00,+26.00,+22.00,-94.00,-75.00,-107.00
+42.00,+3.00,-13.00,-14.00,-101.00,-52.00,-25.00,-34.00,+59.00,-2.00,+20.00,+60.00,+7.00,+15.00,+98.00,+103.00
-29.00,-33.00,+2.00,+3.00,+89.00,-47.00,-111.00,-67.00,+0.00,-2.00,+1.00,-60.00,-38.00,+76.00,+34.00,+36.00
-96.00,+24.00,+28.00,+33.00,+47.00,+15.00,+51.00,+127.00,+1.00,+30.00,+32.00,-2.00,-47.00,-41.00,-90.00,-9.00
+31.00,-91.00,-50.00,+1.00,+7.00,+33.00,+19.00,-19.00,-50.00,-35.00,-70.00,-57.00,-1.00,-12.00,-33.00,-32.00
+44.00,+80.00,-13.00,-14.00,+17.00,+96.00,+127.00,+127.00,+23.00,+88.00,+66.00,+13.00,+6.00,+19.00,+9.00,+39.00
+7.00,+52.00,+55.00,-7.00,-39.00,+10.00,+4.00,-4.00,-25.00,-49.00,-44.00,+48.00,+18.00,-109.00,-111.00,-118.00
+66.00,-25.00,+21.00,+12.00,+2.00,-3.00,+0.00,-20.00,+2.00,+1.00,-8.00,+8.00,+36.00,-4.00,+41.00,+60.00
-8.00,-90.00,-104.00,-58.00,-28.00,-88.00,-52.00,+5.00,+2.00,+4.00,-20.00,+5.00,-14.00,+104.00,+23.00,-53.00
-30.00,+27.00,+81.00,+57.00,+21.00,-10.00,-21.00,-6.00,+15.00,+40.00,+70.00,-26.00,+22.00,-47.00,-100.00,-108.00
-2.00,-13.00,-39.00,-19.00,+14.00,+16.00,+48.00,+36.00,-21.00,-25.00,-17.00,+9.00,+4.00,-30.00,-77.00,+104.00
-30.00,+123.00,+74.00,+10.00,+34.00,+28.00,+23.00,+53.00,+85.00,+58.00,+35.00,-7.00,-54.00,-24.00,-9.00,-88.00
-20.00,-48.00,-15.00,+8.00,-46.00,-18.00,-16.00,+6.00,+0.00,-27.00,-17.00,+4.00,+19.00,-43.00,-20.00,+106.00
+18.00,-31.00,-7.00,-2.00,+1.00,+28.00,+30.00,-2.00,-35.00,+21.00,+9.00,-3.00,-5.00,-8.00,+23.00,-67.00
+60.00,-5.00,+2.00,-21.00,-62.00,-69.00,-63.00,-52.00,+15.00,-5.00,+27.00,+0.00,-9.00,+39.00,+68.00,+45.00
-56.00,-79.00,-52.00,-14.00,-39.00,-90.00,-109.00,-108.00,-35.00,+3.00,-33.00,-3.00,+15.00,-3.00,-36.00,-81.00
+7.00,+53.00,+31.00,+17.00,-2.00,+125.00,+117.00,+25.00,+18.00,-57.00,+0.00,+25.00,+43.00,+45.00,-27.00,+19.00
-49.00,+18.00,-4.00,+6.00,+30.00,+17.00,+52.00,+1.00,-35.00,-47.00,-45.00,-50.00,-81.00,-50.00,-72.00,-58.00
+27.00,+25.00,+16.00,+11.00,+18.00,+19.00,-7.00,+22.00,+11.00,+3.00,+20.00,+38.00,+20.00,+82.00,+66.00,+123.00
-26.00,-64.00,-55.00,-20.00,+21.00,-6.00,-11.00,-82.00,+13.00,+26.00,+23.00,+35.00,-86.00,-85.00,-22.00,+33.00
+37.00,+27.00,+14.00,-14.00,+3.00,-47.00,-58.00,-118.00,+21.00,+10.00,-7.00,-43.00,+65.00,+81.00,+30.00,-20.00
-14.00,-52.00,-21.00,-42.00,-53.00,-64.00,-16.00,+34.00,-44.00,+19.00,-22.00,-18.00,-35.00,-27.00,-18.00,-21.00
+6.00,+32.00,+23.00,+21.00,-1.00,+50.00,+21.00,-37.00,-6.00,-90.00,-39.00,-7.00,+70.00,+3.00,+47.00,-21.00
-36.00,+5.00,-14.00,-23.00,+13.00,+51.00,+37.00,-38.00,-4.00,+6.00,+37.00,+42.00,+40.00,+7.00,-83.00,-40.00
-51.00,+13.00,-5.00,+9.00,-18.00,-111.00,-128.00,-106.00,-9.00,+67.00,+73.00,+13.00,-20.00,-20.00,+0.00,+40.00
+9.00,-72.00,-3.00,+4.00,+9.00,+11.00,+57.00,+83.00,-2.00,-58.00,-75.00,-23.00,-34.00,-30.00,+6.00,-62.00
+74.00,+61.00,-7.00,-4.00,-4.00,-11.00,-3.00,-70.00,+14.00,+45.00,+75.00,+13.00,-7.00,-32.00,+15.00,-23.00
-60.00,-15.00,-25.00,-20.00,-7.00,-2.00,+20.00,-32.00,-6.00,-64.00,-63.00,-11.00,+15.00,+10.00,-62.00,-17.00
+2.00,+14.00,+41.00,+22.00,+8.00,+17.00,+0.00,-72.00,+12.00,+21.00,+40.00,+13.00,+1.00,+23.00,+42.00,+22.00
+33.00,+14.00,-21.00,-7.00,+49.00,+24.00,+20.00,+11.00,-9.00,+17.00,-17.00,+8.00,+15.00,+30.00,-55.00,-29.00
-29.00,-51.00,+17.00,+12.00,+74.00,-28.00,-19.00,-21.00,+1.00,-10.00,-5.00,-13.00,-59.00,-51.00,+19.00,+72.00
+27.00,-14.00,-18.00,-5.00,+4.00,+43.00,+44.00,+70.00,-29.00,-10.00,+5.00,-14.00,+44.00,-38.00,+2.00,-85.00
+20.00,-1.00,-16.00,-16.00,-24.00,-57.00,-26.00,+123.00,-22.00,-25.00,-20.00,+10.00,+4.00,+23.00,+41.00,+71.00
-53.00,-2.00,+6.00,+18.00,+14.00,+33.00,-62.00,-114.00,+23.00,+44.00,+20.00,+2.00,+6.00,+55.00,-7.00,-43.00
+15.00,+28.00,+10.00,-8.00,-42.00,-70.00,-37.00,+55.00,-35.00,+6.00,-21.00,-6.00,-65.00,-17.00,-64.00,-23.00
+39.00,-4.00,+3.00,+34.00,+54.00,+115.00,+110.00,-16.00,+42.00,-1.00,+16.00,+35.00,+52.00,+70.00,+105.00,+88.00
-60.00,-7.00,+13.00,+16.00,+35.00,+42.00,+18.00,-62.00,-5.00,-21.00,-28.00,-45.00,-19.00,-12.00,-12.00,-37.00
-7.00,-20.00,-27.00,-25.00,-32.00,-67.00,-70.00,+32.00,-12.00,+22.00,+32.00,+35.00,+23.00,+29.00,+19.00,-4.00
+12.00,+55.00,+30.00,+4.00,-44.00,-8.00,-20.00,+25.00,+5.00,-54.00,-56.00,-48.00,-4.00,+11.00,-39.00,-51.00
-43.00,-21.00,+6.00,+10.00,-54.00,-7.00,+12.00,+12.00,-21.00,+48.00,+18.00,-7.00,+34.00,-44.00,-8.00,-71.00
+8.00,-10.00,-27.00,-10.00,+3.00,+28.00,+31.00,-31.00,+4.00,+8.00,-35.00,-23.00,-79.00,-68.00,+16.00,-12.00
+82.00,+47.00,+25.00,+21.00,+42.00,+26.00,+32.00,+79.00,-21.00,-128.00,-2.00,+24.00,+59.00,+31.00,+14.00,+52.00
-49.00,-25.00,-33.00,-21.00,-15.00,+6.00,+37.00,-17.00,+13.00,+93.00,+34.00,+15.00,-26.00,-14.00,-1.00,-15.00
+35.00,+13.00,+13.00,+0.00,+27.00,-19.00,-43.00,-28.00,+11.00,+22.00,-18.00,-24.00,-20.00,-22.00,-44.00,+8.00
-2.00,-52.00,+23.00,+4.00,-39.00,-3.00,+11.00,+10.00,-21.00,-128.00,-96.00,-25.00,-13.00,+25.00,+37.00,+92.00
-32.00,+71.00,-5.00,-15.00,-24.00,-28.00,-36.00,-102.00,-6.00,-36.00,-30.00,-10.00,-7.00,-26.00,-23.00,+34.00
-83.00,-61.00,+1.00,+9.00,-56.00,+1.00,+24.00,+21.00,-26.00,+43.00,+39.00,+20.00,+15.00,+2.00,+0.00,-55.00
+42.00,+28.00,-11.00,-13.00,-39.00,+15.00,+6.00,+10.00,+26.00,+5.00,-2.00,+3.00,+6.00,+4.00,+6.00,+33.00
-57.00,+0.00,-4.00,-15.00,-31.00,-37.00,-17.00,+34.00,+3.00,+55.00,+37.00,+11.00,+8.00,+35.00,+9.00,-38.00
+28.00,-37.00,-12.00,+4.00,-28.00,-7.00,-9.00,+27.00,+18.00,+3.00,-8.00,+24.00,+31.00,+7.00,-70.00,+21.00
+22.00,+3.00,+14.00,+10.00,+20.00,+2.00,-40.00,-86.00,-8.00,-21.00,-2.00,+6.00,-25.00,-62.00,+12.00,+37.00
-11.00,+19.00,+14.00,+22.00,+3.00,+93.00,+79.00,-21.00,-11.00,+2.00,+12.00,-47.00,-13.00,+28.00,+14.00,-12.00
-18.00,+23.00,+8.00,+17.00,+0.00,-15.00,-34.00,-55.00,+5.00,-6.00,-1.00,+23.00,+61.00,-13.00,-3.00,-28.00
+45.00,-17.00,-8.00,-2.00,+30.00,+47.00,+35.00,-2.00,+8.00,-2.00,-8.00,+55.00,-50.00,+57.00,+47.00,+55.00
+25.00,+32.00,-3.00,-5.00,+80.00,-28.00,-10.00,+0.00,-3.00,-5.00,-17.00,-85.00,-25.00,-58.00,-56.00,-74.00
+71.00,-20.00,-16.00,-11.00,-3.00,-39.00,-76.00,-65.00,-22.00,-15.00,-8.00,-2.00,-31.00,-69.00,-52.00,-6.00
-4.00,+2.00,+8.00,-5.00,+9.00,-9.00,+16.00,-77.00,-5.00,+3.00,-5.00,-22.00,-38.00,+5.00,+20.00,-4.00
-26.00,-6.00,+14.00,-3.00,-48.00,-24.00,-17.00,+1.00,+0.00,+21.00,+20.00,+13.00,+61.00,+3.00,+14.00,-14.00
+25.00,-42.00,-6.00,+7.00,-14.00,+14.00,+11.00,+47.00,+22.00,+25.00,+14.00,+48.00,+38.00,+50.00,+19.00,+0.00
+2.00,+44.00,-40.00,-1.00,+9.00,-31.00,-21.00,+32.00,-40.00,-86.00,+3.00,-6.00,-42.00,+19.00,+9.00,+23.00
+108.00,+47.00,+26.00,-24.00,-20.00,-22.00,-34.00,+19.00,+15.00,-16.00,-28.00,+2.00,+10.00,-7.00,-5.00,-22.00
+42.00,+18.00,+19.00,+11.00,+15.00,+1.00,-13.00,-36.00,-40.00,-36.00,-34.00,-26.00,+3.00,-11.00,-6.00,-45.00
+104.00,-35.00,-7.00,-1.00,-17.00,+16.00,+23.00,+40.00,+21.00,+22.00,+20.00,+10.00,-12.00,+30.00,+24.00,+24.00
+95.00,-28.00,+1.00,+6.00,+0.00,-12.00,+12.00,+77.00,+10.00,+49.00,+39.00,+8.00,+24.00,+14.00,+22.00,+40.00
+68.00,-28.00,-16.00,-13.00,-26.00,-26.00,-20.00,-32.00,-8.00,-28.00,+12.00,+3.00,-34.00,+16.00,-34.00,-54.00
+85.00,-23.00,-21.00,-14.00,-50.00,-25.00,-40.00,+52.00,+42.00,-4.00,+10.00,-26.00,-8.00,-79.00,-58.00,-4.00
+0.00,+24.00,+9.00,+13.00,+55.00,+75.00,+52.00,-87.00,-14.00,+1.00,+3.00,+0.00,+4.00,+14.00,-20.00,-30.00
-34.00,-27.00,-3.00,-6.00,+7.00,-29.00,-22.00,+37.00,+21.00,+19.00,-1.00,+22.00,+3.00,+30.00,-37.00,-18.00
-75.00,+20.00,-2.00,-1.00,-20.00,+41.00,-40.00,-7.00,-28.00,+41.00,+19.00,-1.00,+6.00,+52.00,+98.00,+64.00
-84.00,-14.00,+1.00,-6.00,+71.00,-74.00,+95.00,-19.00,+4.00,+57.00,+43.00,-23.00,-64.00,-48.00,-82.00,-98.00
-36.00,-11.00,-5.00,+9.00,+32.00,-27.00,-14.00,+56.00,+12.00,-74.00,-66.00,-18.00,-4.00,-12.00,+22.00,-8.00
-52.00,-5.00,+7.00,-2.00,-25.00,+30.00,-2.00,+64.00,-18.00,+39.00,+15.00,+18.00,+54.00,-13.00,+16.00,+63.00
-90.00,-3.00,-5.00,+6.00,-10.00,+12.00,+4.00,+50.00,+7.00,-23.00,-18.00,-3.00,-24.00,+2.00,+4.00,-3.00
-77.00,-4.00,-6.00,-7.00,-57.00,+10.00,-21.00,-28.00,-2.00,+19.00,+13.00,-19.00,+12.00,+32.00,+5.00,+8.00
-81.00,+10.00,+4.00,-4.00,-68.00,-12.00,-1.00,+38.00,+0.00,+35.00,+17.00,+9.00,+6.00,+13.00,+25.00,+33.00
-99.00,+2.00,-10.00,+1.00,+23.00,-23.00,-9.00,-40.00,-26.00,-79.00,-42.00,-43.00,-65.00,-12.00,-10.00,-44.00
-59.00,+53.00,+31.00,-1.00,-16.00,-13.00,+9.00,+14.00,+37.00,+34.00,-6.00,-5.00,+16.00,+4.00,+8.00,+21.00
-56.00,+41.00,+22.00,+8.00,+2.00,+31.00,-7.00,-22.00,-26.00,-21.00,+14.00,+15.00,+25.00,-3.00,-26.00,-32.00
-68.00,-20.00,-24.00,-16.00,-18.00,-9.00,-12.00,+2.00,+34.00,-8.00,-22.00,+9.00,-4.00,-7.00,+48.00,+46.00
-64.00,-64.00,-26.00,-14.00,-5.00,-3.00,+3.00,+18.00,-13.00,-8.00,-2.00,+5.00,+4.00,+2.00,+13.00,+19.00
-33.00,+74.00,+35.00,+24.00,+21.00,-4.00,+18.00,+82.00,-17.00,-36.00,-45.00,-18.00,-9.00,-29.00,-61.00,-81.00
-50.00,-23.00,-11.00,+9.00,+27.00,+44.00,+28.00,+31.00,+20.00,+2.00,-3.00,+8.00,+17.00,+32.00,+96.00,+91.00
-7.00,-22.00,-4.00,-12.00,-19.00,+5.00,+1.00,+56.00,+13.00,+35.00,+30.00,+12.00,+1.00,-10.00,-48.00,-21.00
+26.00,+6.00,+5.00,-1.00,-19.00,-36.00,-6.00,+51.00,-2.00,+29.00,+21.00,+25.00,+10.00,+22.00,+0.00,-5.00
-20.00,-31.00,-26.00,-8.00,+14.00,-19.00,-29.00,+23.00,-1.00,-8.00,+2.00,+8.00,+30.00,-11.00,-17.00,+23.00
+37.00,-4.00,+5.00,+6.00,+38.00,+33.00,+76.00,+26.00,-7.00,+2.00,-20.00,-15.00,+42.00,-27.00,+31.00,+84.00
+39.00,+48.00,+28.00,+21.00,+9.00,+46.00,+31.00,+48.00,-3.00,-10.00,+16.00,+26.00,-23.00,+45.00,+15.00,-9.00
+14.00,-5.00,+8.00,+3.00,-10.00,+6.00,-6.00,-14.00,+0.00,-13.00,-23.00,-23.00,-41.00,-25.00,+22.00,+44.00
+23.00,+9.00,-6.00,-2.00,+27.00,+1.00,+4.00,-56.00,-24.00,+8.00,+15.00,+15.00,-7.00,+35.00,-4.00,-22.00
+43.00,-13.00,-6.00,+5.00,+18.00,+4.00,-43.00,-23.00,-1.00,-27.00,-20.00,-32.00,-32.00,+0.00,+1.00,+20.00
-17.00,-8.00,-12.00,-9.00,+0.00,-21.00,-29.00,-74.00,-2.00,+57.00,+31.00,+22.00,+44.00,+6.00,+2.00,-18.00
+49.00,-9.00,+4.00,-4.00,+30.00,+6.00,+3.00,-32.00,-1.00,-28.00,+1.00,-7.00,-12.00,+13.00,+12.00,+15.00
+14.00,-9.00,-38.00,-9.00,-4.00,-4.00,-14.00,-95.00,+3.00,-67.00,-76.00,-26.00,-41.00,-26.00,+15.00,+15.00
-21.00,-23.00,-23.00,-22.00,-43.00,-14.00,-25.00,+38.00,+4.00,+7.00,+8.00,+10.00,+16.00,+6.00,+0.00,+0.00
-5.00,-32.00,+2.00,+3.00,-25.00,+11.00,+13.00,+15.00,-5.00,-22.00,-10.00,-15.00,+0.00,-3.00,-2.00,+0.00
-17.00,+51.00,+12.00,+4.00,-9.00,-9.00,-13.00,-28.00,+3.00,+26.00,+6.00,+18.00,+0.00,+16.00,-29.00,-15.00
+10.00,-4.00,-3.00,-3.00,-24.00,-3.00,+12.00,+35.00,-8.00,+26.00,+25.00,-15.00,-3.00,-25.00,+30.00,+50.00
-11.00,-7.00,-7.00,-4.00,-12.00,-1.00,-7.00,-24.00,+2.00,-3.00,-16.00,+10.00,-5.00,-5.00,-63.00,-70.00
-18.00,+6.00,-7.00,+1.00,-26.00,-18.00,-7.00,+16.00,-11.00,+12.00,+10.00,+0.00,+11.00,+6.00,+1.00,-14.00
+3.00,+0.00,+10.00,+0.00,+19.00,+11.00,+12.00,-24.00,+1.00,+8.00,+2.00,+0.00,+9.00,-8.00,-6.00,+3.00
-26.00,-63.00,-15.00,-1.00,+2.00,-10.00,-39.00,-49.00,+43.00,+2.00,+9.00,+19.00,+39.00,-2.00,+1.00,+6.00
+2.00,+25.00,+11.00,+5.00,+1.00,-48.00,+1.00,-32.00,-13.00,+0.00,+0.00,-27.00,-96.00,-2.00,-5.00,-26.00
+32.00,+23.00,+0.00,-3.00,+24.00,+28.00,-2.00,+0.00,-6.00,-11.00,+0.00,+34.00,+25.00,+15.00,+14.00,+16.00
-25.00,-22.00,-4.00,-7.00,-9.00,-32.00,-66.00,-96.00,+6.00,-7.00,-10.00,-34.00,-9.00,-6.00,+12.00,+26.00
+30.00,+9.00,-1.00,-5.00,-3.00,+23.00,+97.00,+57.00,-5.00,+23.00,+18.00,-11.00,-14.00,+0.00,-47.00,-38.00
+10.00,-2.00,+6.00,+10.00,+29.00,+0.00,-22.00,-71.00,+2.00,-1.00,+14.00,+13.00,+10.00,+7.00,-12.00,+16.00
-9.00,-26.00,+0.00,+3.00,-21.00,-23.00,-7.00,+14.00,+11.00,+0.00,-2.00,+2.00,+26.00,+0.00,-22.00,-46.00
+0.00,-19.00,-34.00,-27.00,-11.00,-16.00,-7.00,+63.00,-22.00,-29.00,-20.00,-7.00,-7.00,-7.00,+14.00,-2.00
+19.00,+19.00,+9.00,+2.00,+9.00,-3.00,-25.00,-16.00,-29.00,+39.00,+26.00,+11.00,-8.00,-1.00,+7.00,-13.00
+7.00,+22.00,+5.00,-2.00,-26.00,+24.00,-3.00,+13.00,+12.00,-42.00,-30.00,-2.00,+15.00,-8.00,+2.00,-10.00
-16.00,-13.00,-2.00,-4.00,-16.00,-43.00,-1.00,-15.00,+6.00,+21.00,-5.00,-15.00,-6.00,-4.00,+5.00,+4.00
+0.00,-3.00,+8.00,+7.00,+11.00,+18.00,+34.00,-11.00,+11.00,+22.00,+9.00,+10.00,+0.00,+0.00,-22.00,-3.00
+37.00,-23.00,+0.00,-2.00,+18.00,+5.00,-16.00,+46.00,-4.00,-38.00,+3.00,-3.00,-3.00,-1.00,+3.00,-9.00
-36.00,+6.00,-1.00,-10.00,-41.00,-16.00,+15.00,-13.00,-9.00,-8.00,-41.00,-4.00,+26.00,+3.00,+27.00,+38.00
+14.00,+12.00,+9.00,+14.00,+66.00,+36.00,-26.00,-24.00,-4.00,-33.00,-10.00,-27.00,-31.00,-7.00,-10.00,+25.00
+3.00,-12.00,-11.00,-6.00,-51.00,-8.00,-2.00,-9.00,-8.00,+6.00,-1.00,+13.00,+2.00,-2.00,-6.00,+4.00
-11.00,+3.00,-8.00,-10.00,+1.00,-10.00,+9.00,-20.00,+24.00,+28.00,+8.00,+18.00,-9.00,+6.00,+8.00,+3.00
+0.00,-6.00,+3.00,+8.00,+99.00,+13.00,-13.00,+10.00,-5.00,+29.00,+21.00,+8.00,+27.00,+9.00,+21.00,+1.00
+31.00,+12.00,+5.00,-7.00,-11.00,-4.00,-37.00,-11.00,+16.00,+5.00,-9.00,-11.00,+1.00,-10.00,-16.00,-32.00
-60.00,-17.00,-1.00,+5.00,+7.00,+64.00,+102.00,+3.00,+4.00,-3.00,-3.00,+1.00,-1.00,+6.00,+20.00,+28.00
-7.00,+7.00,+5.00,+8.00,+18.00,-26.00,-21.00,-68.00,-7.00,+4.00,+11.00,+5.00,-19.00,-26.00,+7.00,+3.00
-3.00,-30.00,-16.00,-6.00,-44.00,-11.00,-14.00,+24.00,-19.00,-13.00,-3.00,-7.00,-21.00,-5.00,-13.00,-24.00
-4.00,+28.00,-4.00,-14.00,-40.00,+7.00,+28.00,-5.00,-5.00,-8.00,-5.00,+4.00,-17.00,-15.00,-30.00,+17.00
+19.00,+20.00,+9.00,+4.00,-8.00,+1.00,-26.00,-17.00,-19.00,-5.00,+1.00,+0.00,+15.00,-8.00,-49.00,-57.00
-2.00,+3.00,-14.00,-4.00,-32.00,+9.00,-36.00,+6.00,-5.00,-17.00,-5.00,+3.00,+1.00,+3.00,+44.00,+12.00
+20.00,+2.00,+15.00,-2.00,-21.00,-5.00,+32.00,+13.00,+16.00,+37.00,+19.00,+2.00,-10.00,+0.00,-5.00,+6.00
+2.00,-43.00,-17.00,+1.00,-10.00,-18.00,-5.00,-21.00,-38.00,-56.00,-31.00,-2.00,+21.00,+7.00,+10.00,+16.00
+32.00,-7.00,+3.00,-3.00,-29.00,-13.00,-19.00,-20.00,+22.00,+15.00,+10.00,+3.00,-5.00,+5.00,+4.00,-33.00
-2.00,+39.00,+6.00,-4.00,+41.00,+47.00,+10.00,+8.00,+23.00,+1.00,-16.00,-16.00,-6.00,-1.00,-11.00,+65.00
-18.00,-23.00,-4.00,-2.00,-22.00,-77.00,-25.00,-6.00,-12.00,-1.00,+12.00,-2.00,+5.00,-2.00,+4.00,-25.00
-3.00,+24.00,+2.00,+0.00,+7.00,+20.00,+0.00,+26.00,-18.00,+15.00,+19.00,-1.00,+5.00,+10.00,+19.00,+13.00
+2.00,-14.00,+1.00,-1.00,-16.00,-15.00,-8.00,+10.00,+3.00,-76.00,-42.00,-11.00,+3.00,-7.00,-9.00,-6.00
+0.00,-21.00,-3.00,+0.00,-10.00,+1.00,+4.00,+4.00,+0.00,+30.00,+12.00,-4.00,-5.00,-1.00,-12.00,-23.00
-13.00,+9.00,-4.00,+0.00,+43.00,+58.00,-9.00,-14.00,+10.00,-2.00,+8.00,+1.00,+11.00,+1.00,+7.00,-11.00
-34.00,-9.00,-6.00,-5.00,-42.00,-68.00,-2.00,+17.00,-12.00,+17.00,+6.00,-10.00,-41.00,-1.00,-5.00,-22.00
+18.00,+16.00,+4.00,+7.00,+58.00,-10.00,+0.00,+65.00,+22.00,+18.00,+5.00,-4.00,-21.00,-3.00,-2.00,+36.00
+32.00,+4.00,+3.00,+6.00,-1.00,+9.00,-58.00,+4.00,-18.00,+9.00,+10.00,+3.00,+7.00,+3.00,-6.00,-33.00
+25.00,+4.00,-5.00,-3.00,-22.00,+33.00,-33.00,-7.00,+0.00,-8.00,-11.00,-8.00,-1.00,-2.00,+12.00,+11.00
-15.00,-26.00,-4.00,+0.00,+10.00,-3.00,-50.00,-76.00,-2.00,+2.00,-1.00,-2.00,+1.00,+15.00,+13.00,+39.00
+39.00,+21.00,+4.00,+3.00,+18.00,-1.00,+52.00,+40.00,+13.00,+18.00,+2.00,+5.00,+6.00,-6.00,+0.00,-6.00
+17.00,+15.00,+8.00,-4.00,-37.00,-7.00,+11.00,+15.00,-1.00,-4.00,-11.00,-8.00,+7.00,+2.00,-4.00,+0.00
+6.00,-2.00,-6.00,+1.00,+11.00,+7.00,+4.00,-11.00,-2.00,-16.00,-2.00,+9.00,+7.00,-19.00,-3.00,-14.00
+36.00,+3.00,-7.00,-11.00,-16.00,-2.00,+15.00,-12.00,-2.00,-16.00,-5.00,+1.00,+4.00,+20.00,+5.00,+3.00
-9.00,-3.00,+4.00,+3.00,-11.00,-15.00,-47.00,-13.00,-26.00,+15.00,+6.00,-4.00,+5.00,+2.00,+4.00,+16.00
+65.00,-16.00,+5.00,+6.00,+22.00,+1.00,+24.00,+9.00,-32.00,+0.00,+2.00,+3.00,-3.00,-6.00,-15.00,-14.00
+2.00,+43.00,+19.00,+12.00,-15.00,-7.00,+5.00,-5.00,+14.00,+7.00,+3.00,-3.00,-5.00,+2.00,+0.00,-3.00
-15.00,-8.00,-14.00,-16.00,+6.00,+23.00,+11.00,+13.00,-20.00,-10.00,+0.00,-2.00,+6.00,-12.00,-2.00,+8.00
-38.00,+4.00,-4.00,-4.00,-19.00,-14.00,-20.00,-5.00,+23.00,+15.00,+6.00,+7.00,+4.00,+11.00,+5.00,+14.00
-34.00,-14.00,+4.00,+3.00,+22.00,-10.00,+18.00,+9.00,-14.00,+6.00,+9.00,-9.00,-15.00,-16.00,-17.00,-17.00
-22.00,-18.00,-9.00,-6.00,-6.00,+6.00,-13.00,-4.00,+16.00,-19.00,-12.00,-2.00,-15.00,+4.00,+0.00,+7.00
+8.00,-3.00,-1.00,+3.00,-23.00,-14.00,-3.00,-42.00,+0.00,+26.00,+26.00,+8.00,+19.00,-5.00,-1.00,-35.00
+3.00,+3.00,+5.00,+7.00,+41.00,+19.00,-7.00,-19.00,-2.00,-39.00,-49.00,+2.00,+26.00,+2.00,-3.00,-7.00
+47.00,-6.00,-7.00,-4.00,-22.00,-16.00,+11.00,-15.00,+27.00,-13.00,-7.00,-5.00,-24.00,+6.00,+1.00,-11.00
-27.00,-7.00,-2.00,+5.00,+40.00,+11.00,+4.00,+49.00,+3.00,+7.00,+8.00,-11.00,-12.00,+1.00,+2.00,+7.00
-7.00,+5.00,-2.00,-2.00,+7.00,+16.00,+15.00,-1.00,+14.00,-8.00,-13.00,-2.00,-9.00,-12.00,+2.00,+1.00
-17.00,-15.00,-3.00,-4.00,-33.00,-12.00,-13.00,-9.00,+2.00,+5.00,+8.00,-2.00,-1.00,-4.00,+1.00,-22.00
-17.00,-2.00,-4.00,-1.00,+17.00,+0.00,+2.00,-13.00,+23.00,+7.00,+8.00,+11.00,+20.00,+6.00,-1.00,+33.00
+35.00,+7.00,-3.00,-8.00,-13.00,+0.00,-27.00,-4.00,-21.00,-9.00,-9.00,-2.00,-1.00,+2.00,-14.00,-24.00
+16.00,+3.00,+2.00,+1.00,+1.00,+3.00,+7.00,+36.00,+10.00,+8.00,-1.00,-1.00,+0.00,+1.00,+13.00,+27.00
+24.00,-9.00,-5.00,-5.00,+18.00,+2.00,-2.00,+0.00,+0.00,+3.00,+11.00,+14.00,+15.00,-3.00,-3.00,+10.00
-17.00,+1.00,-4.00,-4.00,-17.00,+6.00,+5.00,+14.00,-27.00,-6.00,-4.00,-5.00,-7.00,+1.00,-2.00,-16.00
+37.00,+20.00,+8.00,+2.00,-6.00,-33.00,-9.00,-4.00,-9.00,-9.00,-11.00,-19.00,-11.00,-4.00,-1.00,+6.00
-10.00,-4.00,+1.00,+0.00,+2.00,-1.00,+2.00,+5.00,+7.00,+6.00,+5.00,+2.00,-16.00,-3.00,-5.00,+8.00
+38.00,+9.00,+4.00,+0.00,+3.00,+15.00,-42.00,-10.00,+33.00,-2.00,+2.00,-13.00,+11.00,+1.00,+0.00,+2.00
-16.00,-9.00,-13.00,-4.00,-2.00,-4.00,+38.00,+9.00,-4.00,+1.00,-4.00,+0.00,+6.00,+1.00,-2.00,+4.00
+29.00,+6.00,+10.00,+3.00,-3.00,+7.00,+8.00,-13.00,+16.00,+27.00,+11.00,+13.00,+10.00,+0.00,+1.00,+7.00
+7.00,-10.00,-7.00,+6.00,-4.00,+11.00,+10.00,+10.00,-25.00,-17.00,-2.00,+4.00,+7.00,-5.00,-5.00,-9.00
+21.00,+19.00,+13.00,-7.00,-51.00,-21.00,+1.00,+8.00,-20.00,-6.00,-6.00,-6.00,-13.00,+2.00,+3.00,-8.00
+0.00,+0.00,-1.00,+6.00,+76.00,-4.00,-9.00,+1.00,+5.00,-3.00,+0.00,+5.00,+2.00,+1.00,+3.00,+33.00
+21.00,-5.00,-7.00,-4.00,+0.00,+35.00,+4.00,-7.00,-26.00,-17.00,+0.00,+5.00,+13.00,+0.00,-5.00,-43.00
+10.00,+5.00,+6.00,+3.00,+1.00,+19.00,+18.00,-12.00,+31.00,-3.00,-9.00,-16.00,-18.00,-6.00,-4.00,+35.00
-23.00,-9.00,-5.00,-1.00,-5.00,-26.00,-30.00,+1.00,-42.00,-13.00,+12.00,+3.00,-3.00,+3.00,+4.00,+1.00
-8.00,+8.00,+4.00,+0.00,-23.00,-7.00,-3.00,-25.00,+30.00,+30.00,+5.00,-1.00,-4.00,-4.00,-1.00,-16.00
+14.00,-5.00,-3.00,-3.00,-7.00,-8.00,+20.00,+25.00,-13.00,+2.00,+0.00,+1.00,+4.00,+2.00,-1.00,-6.00
-27.00,-5.00,-3.00,-3.00,+11.00,+14.00,-4.00,-14.00,+31.00,+11.00,-4.00,+0.00,+3.00,+0.00,+0.00,-13.00
-45.00,-11.00,-5.00,+1.00,-12.00,-32.00,+2.00,+3.00,-22.00,-7.00,+0.00,-3.00,-10.00,-4.00,-7.00,-27.00
-14.00,-6.00,-1.00,-8.00,-15.00,-16.00,-14.00,-6.00,+18.00,-12.00,-5.00,-3.00,+1.00,+4.00,+0.00,+6.00
+1.00,-3.00,+1.00,+6.00,+23.00,+11.00,+14.00,-2.00,+12.00,-1.00,-3.00,-8.00,-11.00,-2.00,-4.00,+12.00
+1.00,-7.00,+0.00,+0.00,-16.00,+2.00,+0.00,+7.00,-20.00,+3.00,+8.00,+2.00,-4.00,-1.00,-3.00,-23.00
-11.00,-1.00,-1.00,-1.00,+33.00,+20.00,+13.00,-5.00,-11.00,-6.00,+10.00,-3.00,+9.00,-6.00,-1.00,-23.00
-12.00,-3.00,-5.00,-1.00,-21.00,-9.00,-4.00,+10.00,-11.00,-46.00,-33.00,-11.00,-4.00,-5.00,-6.00,-12.00
-13.00,-22.00,+1.00,+1.00,-15.00,-7.00,-3.00,-14.00,-8.00,+5.00,+11.00,+10.00,+4.00,+2.00,+1.00,+8.00
+1.00,+38.00,+7.00,+2.00,-2.00,-4.00,-7.00,+5.00,+1.00,-4.00,-12.00,-1.00,+9.00,+3.00,-1.00,+5.00
+65.00,+13.00,-3.00,-3.00,+21.00,+8.00,+3.00,+16.00,-6.00,+9.00,+3.00,+14.00,-7.00,-2.00,-3.00,-7.00
+7.00,+1.00,-3.00,-3.00,-4.00,+5.00,+22.00,+2.00,-5.00,+1.00,+2.00,-19.00,-32.00,-6.00,-3.00,+2.00
+5.00,+12.00,-3.00,-4.00,-9.00,+4.00,-2.00,-4.00,-10.00,-4.00,-2.00,-15.00,-17.00,-6.00,-2.00,-25.00
+2.00,+0.00,+5.00,+0.00,+4.00,-13.00,-8.00,-5.00,-14.00,-16.00,-6.00,-4.00,+0.00,-5.00,-5.00,+19.00
-8.00,+21.00,+3.00,+4.00,+0.00,-1.00,-13.00,-8.00,+27.00,+21.00,+5.00,-1.00,-1.00,+0.00,+1.00,+18.00
