+6.00,+3.00,+0.00,-1.00,-1.00,-5.00,-2.00,-1.00,-2.00,+1.00,+3.00,+3.00,+2.00,+1.00,+0.00,+4.00
+1.00,+7.00,-1.00,-1.00,+0.00,-1.00,+0.00,+0.00,-17.00,+4.00,+7.00,-3.00,+3.00,-1.00,-4.00,-7.00
-1.00,-18.00,+0.00,+5.00,+3.00,+4.00,+3.00,-2.00,-9.00,-30.00,-13.00,-4.00,-5.00,-2.00,-3.00,-8.00
-2.00,+1.00,-4.00,-7.00,+2.00,+2.00,+1.00,+0.00,-26.00,-4.00,-8.00,-5.00,+5.00,-3.00,-5.00,-13.00
-3.00,-5.00,-4.00,-3.00,-2.00,-3.00,-1.00,-1.00,+7.00,+0.00,-1.00,+1.00,-6.00,+0.00,+4.00,+11.00
-2.00,+6.00,+8.00,-2.00,-3.00,+2.00,+1.00,-3.00,+14.00,+19.00,+4.00,+3.00,+1.00,+1.00,+3.00,+5.00
-2.00,+7.00,+2.00,+1.00,-1.00,-2.00,-2.00,-2.00,-1.00,+8.00,+2.00,+1.00,+0.00,+1.00,-3.00,-3.00
-1.00,+0.00,-9.00,-7.00,-1.00,-6.00,-3.00,+0.00,-3.00,-13.00,-2.00,-3.00,+8.00,+0.00,-1.00,+2.00
-1.00,-9.00,+16.00,+0.00,+4.00,+20.00,+1.00,+1.00,-31.00,-9.00,-1.00,-3.00,-3.00,-2.00,-4.00,-13.00
-4.00,-10.00,-7.00,-5.00,+0.00,+1.00,+2.00,+1.00,+3.00,-5.00,-5.00,-4.00,-6.00,-1.00,+0.00,+1.00
-6.00,+4.00,-4.00,-6.00,-2.00,-2.00,-2.00,-2.00,+5.00,-1.00,+0.00,+1.00,+27.00,-1.00,-2.00,-4.00
+0.00,-3.00,+1.00,+10.00,-7.00,+1.00,-2.00,-2.00,-28.00,-3.00,+0.00,-8.00,-45.00,+0.00,-1.00,+3.00
-3.00,+0.00,-10.00,-1.00,-2.00,-5.00,-3.00,-2.00,+18.00,+13.00,+2.00,+0.00,-17.00,-1.00,-2.00,-3.00
+1.00,-1.00,-2.00,+0.00,-3.00,-1.00,-2.00,-1.00,-12.00,-13.00,-3.00,+16.00,+2.00,+3.00,+0.00,-3.00
-1.00,+2.00,+5.00,-8.00,+4.00,-5.00,+1.00,+2.00,+6.00,+0.00,-2.00,+0.00,-17.00,-4.00,-3.00,-5.00
+0.00,+0.00,+1.00,-9.00,-1.00,+6.00,+2.00,-1.00,+2.00,+1.00,-4.00,-2.00,+38.00,+0.00,-2.00,+2.00
+0.00,+7.00,+0.00,-15.00,-8.00,-8.00,-6.00,-3.00,+0.00,-1.00,+0.00,+0.00,+2.00,-2.00,+0.00,+7.00
-2.00,-18.00,-12.00,+4.00,-1.00,-10.00,+0.00,-5.00,-24.00,-15.00,-3.00,-4.00,-4.00,-3.00,-1.00,-6.00
+2.00,+17.00,+9.00,-6.00,-5.00,-3.00,-2.00,-4.00,+3.00,+9.00,+1.00,-1.00,+0.00,+1.00,-1.00,-1.00
+2.00,-4.00,+4.00,+0.00,+5.00,-3.00,+1.00,-1.00,+34.00,+19.00,+2.00,+2.00,-3.00,-2.00,+1.00,+7.00
-1.00,+5.00,+5.00,-3.00,+9.00,+9.00,+6.00,+1.00,-2.00,-3.00,+0.00,-7.00,+51.00,+5.00,+0.00,-4.00
-1.00,+3.00,-4.00,-13.00,-5.00,-7.00,-3.00,-2.00,-8.00,-24.00,-10.00,-4.00,-41.00,-5.00,-6.00,-17.00
+0.00,-16.00,-11.00,-10.00,-5.00,-5.00,-8.00,-4.00,-67.00,-18.00,-4.00,-4.00,-5.00,-2.00,-1.00,-3.00
-1.00,+7.00,-1.00,-6.00,-4.00,-4.00,-2.00,+0.00,+68.00,+29.00,+3.00,-4.00,-20.00,-13.00,-1.00,+12.00
-2.00,-8.00,+1.00,-3.00,-3.00,-7.00,+0.00,-4.00,+5.00,+2.00,+8.00,+11.00,+8.00,+3.00,+6.00,+2.00
-1.00,+10.00,+0.00,-5.00,+2.00,+7.00,+4.00,+0.00,+5.00,+7.00,-8.00,-4.00,+24.00,+0.00,-2.00,+0.00
+1.00,-7.00,-6.00,+3.00,+1.00,+0.00,+2.00,+4.00,-2.00,-8.00,-3.00,-1.00,-13.00,-2.00,+0.00,-3.00
-3.00,+6.00,+1.00,-11.00,-1.00,+1.00,+0.00,-1.00,-12.00,-17.00,-2.00,+2.00,+9.00,+0.00,-4.00,-11.00
-4.00,+4.00,-2.00,-4.00,-3.00,-10.00,-3.00,+0.00,+1.00,-6.00,+0.00,-7.00,-1.00,-7.00,-3.00,+0.00
-1.00,+7.00,+4.00,-1.00,+4.00,+13.00,+1.00,-1.00,-1.00,+3.00,-5.00,-4.00,+13.00,+0.00,-1.00,+5.00
+0.00,-4.00,+3.00,+1.00,+1.00,+5.00,+0.00,-1.00,+16.00,+1.00,+1.00,+3.00,-29.00,-1.00,+0.00,+5.00
+0.00,-10.00,-5.00,-17.00,-11.00,-10.00,-9.00,-5.00,-7.00,+0.00,+3.00,+1.00,+13.00,-3.00,-1.00,-3.00
+5.00,+13.00,-2.00,+24.00,+5.00,+15.00,+2.00,+1.00,-2.00,-10.00,-8.00,-3.00,-6.00,-4.00,-4.00,-8.00
-1.00,-4.00,+3.00,-6.00,-2.00,-20.00,-5.00,+0.00,-7.00,-4.00,+2.00,-6.00,-9.00,+2.00,+4.00,+9.00
+1.00,+2.00,-1.00,+11.00,+9.00,+34.00,+4.00,+1.00,+5.00,+2.00,-3.00,+0.00,-1.00,-2.00,-2.00,-5.00
+5.00,-17.00,-6.00,+14.00,+1.00,+10.00,-2.00,-2.00,-2.00,+0.00,+6.00,+3.00,+22.00,+6.00,-1.00,-3.00
+1.00,-10.00,-4.00,+4.00,-3.00,-14.00,+0.00,-3.00,+0.00,+5.00,-1.00,+4.00,-23.00,+0.00,-1.00,+2.00
+2.00,+4.00,+4.00,+1.00,+1.00,-1.00,-1.00,+1.00,+7.00,+9.00,-2.00,-3.00,+16.00,-2.00,-3.00,-1.00
-2.00,-1.00,-6.00,+12.00,-6.00,-7.00,-3.00,+2.00,-5.00,-6.00,-2.00,-6.00,-12.00,-2.00,+1.00,+1.00
+1.00,-19.00,+1.00,+10.00,+1.00,-8.00,+0.00,-2.00,+1.00,-6.00,-5.00,+0.00,+6.00,-2.00,+0.00,+1.00
-2.00,+1.00,-10.00,+3.00,-9.00,-4.00,-6.00,-4.00,-54.00,-9.00,-2.00,-1.00,-8.00,+0.00,-5.00,-13.00
+1.00,-10.00,+0.00,+17.00,+4.00,-1.00,+0.00,+4.00,+26.00,+4.00,+3.00,-1.00,+8.00,-1.00,-1.00,+15.00
+1.00,-7.00,+2.00,+6.00,-6.00,-8.00,-4.00,-13.00,+3.00,+8.00,+2.00,-1.00,+13.00,+0.00,+3.00,+3.00
+1.00,+32.00,+0.00,+9.00,+4.00,+5.00,+4.00,+7.00,-14.00,-3.00,-3.00,+0.00,-2.00,+1.00,-2.00,-1.00
+4.00,-2.00,+2.00,+16.00,+3.00,+6.00,+7.00,-4.00,+17.00,-1.00,-4.00,+0.00,-15.00,-4.00,-2.00,+2.00
-5.00,-20.00,+3.00,-3.00,+1.00,+5.00,-4.00,-4.00,-12.00,-6.00,-6.00,+1.00,+5.00,-1.00,-4.00,-14.00
-2.00,+53.00,-6.00,+2.00,-2.00,-5.00,+1.00,+5.00,-6.00,+1.00,+0.00,-7.00,+9.00,-2.00,-4.00,-3.00
-4.00,+7.00,+5.00,-5.00,-2.00,-3.00,-1.00,-1.00,+29.00,+22.00,-2.00,-1.00,-20.00,-4.00,+2.00,+4.00
+0.00,-10.00,-3.00,-4.00,-3.00,-5.00,+1.00,-1.00,-1.00,-7.00,-1.00,-2.00,-22.00,+8.00,-9.00,-15.00
-3.00,-4.00,-9.00,+2.00,-8.00,-3.00,-4.00,-6.00,-25.00,-17.00,+9.00,+3.00,+25.00,+1.00,+4.00,+10.00
+4.00,-11.00,+0.00,+14.00,+0.00,-10.00,-1.00,+2.00,+84.00,+53.00,+8.00,+4.00,-14.00,+2.00,+3.00,+12.00
-6.00,-17.00,-5.00,-1.00,+2.00,+5.00,-2.00,-6.00,-21.00,-18.00,-1.00,+0.00,+9.00,-7.00,-2.00,-8.00
+2.00,+13.00,-1.00,+2.00,-2.00,-4.00,-3.00,+4.00,-8.00,+3.00,+0.00,-6.00,+13.00,-2.00,-2.00,+7.00
+1.00,-1.00,+2.00,-3.00,-2.00,+0.00,-1.00,+2.00,-22.00,-23.00,-15.00,-5.00,-54.00,-7.00,-6.00,-14.00
-3.00,-14.00,-1.00,-7.00,-1.00,-3.00,-1.00,+3.00,-13.00,-6.00,-1.00,-2.00,+11.00,-1.00,+0.00,+3.00
+4.00,+5.00,+2.00,+13.00,+4.00,+16.00,+2.00,-3.00,-8.00,+4.00,+3.00,-5.00,+15.00,+10.00,+11.00,+4.00
-1.00,-11.00,-4.00,+5.00,-4.00,-8.00,-4.00,-8.00,+22.00,-1.00,-4.00,+2.00,+8.00,-6.00,-3.00,+1.00
+0.00,+1.00,+0.00,+6.00,+2.00,+13.00,-1.00,-1.00,+2.00,+5.00,+4.00,+1.00,+9.00,+1.00,-1.00,-2.00
+1.00,-7.00,-1.00,-1.00,-5.00,-13.00,-3.00,+1.00,-15.00,-12.00,-2.00,-2.00,-5.00,-2.00,-4.00,-4.00
+2.00,+5.00,+0.00,-2.00,+4.00,+15.00,+3.00,+4.00,+4.00,+3.00,-6.00,-8.00,+12.00,+0.00,+3.00,+8.00
-5.00,-8.00,+2.00,-6.00,+1.00,+4.00,-1.00,+3.00,-14.00,-11.00,+2.00,-6.00,+17.00,-6.00,+2.00,-3.00
+5.00,+36.00,+5.00,+8.00,+1.00,+2.00,+2.00,+1.00,+8.00,+28.00,+6.00,+5.00,-27.00,-1.00,-1.00,+1.00
-3.00,-7.00,-4.00,+1.00,-3.00,-6.00,-3.00,-1.00,+0.00,-2.00,+6.00,+8.00,+18.00,+0.00,+3.00,-1.00
-2.00,-18.00,-7.00,+4.00,-4.00,-3.00,-2.00,-3.00,-7.00,-12.00,-4.00,+3.00,-25.00,+2.00,-3.00,-2.00
-2.00,+7.00,+3.00,-4.00,-4.00,-10.00,-5.00,-3.00,+6.00,+2.00,-1.00,-3.00,+10.00,-2.00,+0.00,+5.00
-1.00,-10.00,+0.00,-2.00,+0.00,-1.00,+0.00,-2.00,+1.00,-7.00,-6.00,-3.00,+25.00,+0.00,-3.00,+0.00
-3.00,+13.00,+1.00,-4.00,+1.00,+3.00,+0.00,-2.00,+2.00,+1.00,+0.00,-5.00,-18.00,-4.00,-5.00,-8.00
+2.00,-18.00,-8.00,-3.00,-6.00,-20.00,+0.00,-2.00,-16.00,-3.00,+0.00,+1.00,-6.00,-1.00,-2.00,+6.00
-3.00,+15.00,+0.00,-2.00,+2.00,-1.00,-7.00,+4.00,-39.00,-19.00,-7.00,-5.00,-19.00,-7.00,-4.00,-12.00
-1.00,-21.00,-4.00,-8.00,+1.00,-9.00,-1.00,-2.00,-15.00,-5.00,-3.00,-1.00,+0.00,-2.00,+4.00,+2.00
+2.00,-22.00,-1.00,+10.00,+0.00,-1.00,+5.00,-1.00,-2.00,+14.00,+6.00,-3.00,-20.00,+4.00,-1.00,-6.00
-2.00,+18.00,+14.00,-4.00,+7.00,+12.00,+4.00,+3.00,+47.00,+14.00,+9.00,+7.00,+25.00,+0.00,+2.00,+29.00
-1.00,-3.00,-1.00,-14.00,-7.00,+6.00,+0.00,-2.00,-35.00,+4.00,-7.00,+5.00,-15.00,+2.00,+7.00,+9.00
-3.00,-24.00,-13.00,+18.00,-3.00,-16.00,-5.00,+4.00,-34.00,-1.00,+2.00,-3.00,+18.00,+0.00,-3.00,-14.00
+3.00,+9.00,-2.00,+1.00,+2.00,+15.00,-5.00,-14.00,-15.00,-25.00,-12.00,-6.00,+37.00,-2.00,-2.00,+4.00
-3.00,+3.00,-3.00,+1.00,+2.00,-3.00,+2.00,+0.00,+10.00,+7.00,-3.00,-5.00,-30.00,+3.00,-3.00,-5.00
+0.00,+1.00,-2.00,+0.00,-1.00,-3.00,-3.00,-1.00,+15.00,-7.00,+3.00,+5.00,-30.00,-16.00,+6.00,-7.00
-3.00,-12.00,-6.00,-6.00,-5.00,-6.00,-3.00,-5.00,+30.00,+4.00,+8.00,+3.00,+19.00,-1.00,-23.00,-8.00
+1.00,+8.00,+15.00,+2.00,-4.00,-4.00,+1.00,+2.00,-3.00,-2.00,-11.00,-19.00,-72.00,-6.00,+0.00,+1.00
-5.00,-4.00,-6.00,-5.00,-6.00,-10.00,-2.00,+1.00,-15.00,-15.00,-6.00,+16.00,+45.00,-3.00,-9.00,-25.00
+2.00,-4.00,+5.00,-2.00,+0.00,-29.00,+3.00,+0.00,+18.00,+5.00,-2.00,+4.00,+4.00,+0.00,-5.00,+3.00
-4.00,+14.00,+1.00,-12.00,+0.00,+21.00,+2.00,+0.00,+24.00,+10.00,+0.00,+3.00,-6.00,-3.00,+8.00,+12.00
-2.00,-10.00,-7.00,-8.00,-1.00,-6.00,+0.00,+1.00,+5.00,-3.00,+2.00,-8.00,+26.00,+2.00,-2.00,-5.00
+0.00,-8.00,+5.00,-3.00,+2.00,+18.00,+1.00,-1.00,-21.00,-17.00,-1.00,-4.00,-21.00,-3.00,-7.00,-20.00
-3.00,-3.00,+5.00,-12.00,-3.00,-13.00,-1.00,+0.00,+18.00,+7.00,+0.00,+1.00,-15.00,-1.00,+2.00,-5.00
-5.00,+2.00,+1.00,-3.00,-3.00,-8.00,-3.00,-6.00,+24.00,+17.00,-3.00,-1.00,+0.00,-2.00,+0.00,-6.00
-2.00,+13.00,-1.00,-4.00,+0.00,+7.00,+2.00,+5.00,+0.00,-6.00,+9.00,-3.00,-8.00,+1.00,-3.00,-1.00
+0.00,-6.00,+0.00,-7.00,-5.00,-30.00,-9.00,-8.00,-34.00,-27.00,-16.00,-5.00,-2.00,-4.00,+1.00,+2.00
-3.00,-12.00,-8.00,-5.00,+4.00,+33.00,+1.00,+1.00,-5.00,+12.00,+7.00,+4.00,+0.00,+3.00,-5.00,+0.00
+0.00,+14.00,+4.00,-7.00,-1.00,+0.00,-2.00,-3.00,+3.00,-28.00,-10.00,-5.00,+1.00,+0.00,+3.00,+2.00
+3.00,-30.00,+0.00,+5.00,+2.00,+0.00,+3.00,+0.00,-44.00,-31.00,-5.00,+1.00,+7.00,-1.00,-6.00,-11.00
-3.00,+16.00,-8.00,+3.00,+0.00,+19.00,-2.00,-2.00,+19.00,+12.00,-2.00,-3.00,-10.00,-3.00,-6.00,-10.00
-1.00,-67.00,+6.00,-3.00,+5.00,+5.00,+3.00,-4.00,-11.00,+62.00,+26.00,-5.00,+45.00,+4.00,+12.00,+37.00
+1.00,+73.00,-3.00,+1.00,+2.00,+2.00,+3.00,+4.00,+15.00,+2.00,-1.00,+2.00,-47.00,+0.00,+1.00,+6.00
-2.00,+43.00,-5.00,-10.00,-8.00,-9.00,-3.00,+1.00,+13.00,+9.00,-3.00,+11.00,-2.00,-6.00,+0.00,+11.00
+4.00,-19.00,-4.00,-6.00,-7.00,-37.00,-6.00,-1.00,-3.00,-27.00,-11.00,-2.00,-2.00,-2.00,-1.00,-2.00
-2.00,+39.00,+1.00,-6.00,+4.00,+13.00,+5.00,+4.00,-48.00,-41.00,-8.00,+1.00,+51.00,+3.00,-7.00,-33.00
-5.00,-34.00,+2.00,-27.00,-8.00,-28.00,+1.00,-5.00,-27.00,-6.00,+3.00,-21.00,+27.00,-2.00,-2.00,-32.00
-4.00,-15.00,-3.00,+5.00,+6.00,+47.00,-3.00,+1.00,+94.00,+42.00,+14.00,+33.00,-54.00,-14.00,+14.00,+43.00
-1.00,+6.00,-12.00,+5.00,-10.00,-27.00,-6.00,-7.00,-7.00,-8.00,-4.00,-24.00,-47.00,+0.00,+5.00,+18.00
-2.00,-2.00,-2.00,-15.00,+3.00,+11.00,-2.00,-5.00,+11.00,-2.00,-5.00,+22.00,+14.00,+3.00,-3.00,+6.00
-1.00,-15.00,-1.00,+3.00,+3.00,+15.00,+4.00,-6.00,-34.00,-6.00,+0.00,-6.00,-10.00,-4.00,-2.00,-4.00
-4.00,-4.00,+3.00,-9.00,-2.00,-11.00,-4.00,+3.00,-20.00,-13.00,-6.00,-16.00,+58.00,+1.00,-7.00,-21.00
-5.00,+14.00,+5.00,-15.00,+1.00,+1.00,+0.00,+10.00,+10.00,+0.00,+16.00,+14.00,-18.00,-4.00,+1.00,+11.00
+1.00,-1.00,+0.00,-3.00,+1.00,+7.00,+4.00,-10.00,+17.00,-4.00,-6.00,-9.00,+30.00,-3.00,-5.00,-12.00
+0.00,+10.00,+1.00,+2.00,+5.00,+8.00,+2.00,+6.00,-29.00,-4.00,-2.00,-9.00,-59.00,+0.00,-3.00,+3.00
+3.00,-15.00,-3.00,-6.00,-5.00,-44.00,-5.00,-4.00,-20.00,-54.00,-21.00,+2.00,+11.00,-7.00,+1.00,+6.00
-1.00,-10.00,+7.00,+1.00,+7.00,+49.00,+3.00,+2.00,+36.00,+93.00,+13.00,-3.00,-26.00,+1.00,-7.00,-7.00
+1.00,-12.00,-12.00,+14.00,-6.00,-19.00,-4.00,+0.00,-33.00,-5.00,-5.00,-12.00,-45.00,-3.00,+2.00,+4.00
+0.00,+47.00,+11.00,-6.00,-2.00,+7.00,+0.00,+2.00,-20.00,+30.00,+10.00,+17.00,+65.00,+3.00,+4.00,+8.00
-1.00,-11.00,+5.00,+8.00,-3.00,-8.00,-5.00,-3.00,-7.00,+1.00,+0.00,-15.00,-21.00,+8.00,+0.00,-6.00
+1.00,-1.00,-2.00,-2.00,-4.00,-16.00,-2.00,-7.00,-47.00,-23.00,+1.00,+9.00,+36.00,+2.00,+0.00,-12.00
-1.00,+11.00,-1.00,+6.00,+1.00,+8.00,+3.00,+4.00,+8.00,-47.00,-13.00,-18.00,-28.00,-6.00,-7.00,-9.00
+2.00,-25.00,+3.00,+7.00,-9.00,-39.00,-5.00,-3.00,+54.00,+29.00,+6.00,+4.00,-16.00,-5.00,+0.00,+2.00
+0.00,+34.00,-9.00,+18.00,+3.00,+22.00,+6.00,-7.00,+22.00,+24.00,+13.00,+19.00,+73.00,+6.00,+3.00,+25.00
+2.00,-42.00,-4.00,+6.00,-3.00,-5.00,-2.00,-4.00,+22.00,-6.00,+0.00,-18.00,-7.00,-2.00,-3.00,-5.00
+6.00,+61.00,+5.00,+2.00,-4.00,-2.00,-5.00,-1.00,+4.00,+12.00,-5.00,+8.00,-6.00,+1.00,-1.00,+11.00
-1.00,-19.00,-5.00,-14.00,+1.00,+33.00,+1.00,-1.00,-72.00,-69.00,-25.00,-18.00,+9.00,-4.00,-2.00,-18.00
+6.00,+43.00,+10.00,+36.00,-3.00,-78.00,+4.00,+8.00,-1.00,+41.00,+8.00,+5.00,-20.00,+3.00,+0.00,+3.00
-7.00,+2.00,-9.00,-9.00,-4.00,+53.00,-4.00,-3.00,+25.00,+7.00,+10.00,+21.00,-7.00,-5.00,+3.00,+6.00
+2.00,-33.00,-8.00,+5.00,-6.00,+0.00,-10.00,-5.00,-42.00,-33.00,+3.00,-4.00,-21.00,+0.00,-2.00,-4.00
+0.00,-9.00,-2.00,+4.00,+0.00,+15.00,+1.00,+0.00,-12.00,+1.00,-5.00,-17.00,-26.00,-2.00,+2.00,+15.00
-2.00,-7.00,+1.00,-11.00,-3.00,-29.00,-3.00,-1.00,+44.00,-2.00,-3.00,+6.00,+49.00,+7.00,-9.00,-31.00
+4.00,-5.00,+8.00,+4.00,+3.00,-3.00,+7.00,-2.00,-18.00,-26.00,-12.00,-13.00,-58.00,-2.00,-2.00,+0.00
-3.00,-11.00,-3.00,-14.00,+2.00,-13.00,+0.00,+12.00,-3.00,+46.00,+1.00,+9.00,+24.00,+1.00,-1.00,-6.00
+1.00,-6.00,-13.00,+2.00,-6.00,+16.00,-1.00,-7.00,-6.00,-15.00,+1.00,+12.00,+12.00,+1.00,-3.00,-19.00
-4.00,-13.00,-21.00,+3.00,-5.00,-41.00,-9.00,-6.00,+1.00,+22.00,-15.00,-11.00,-16.00,-4.00,+5.00,+44.00
-4.00,-26.00,+2.00,-4.00,-4.00,+32.00,-4.00,-5.00,-8.00,-11.00,-7.00,-11.00,+62.00,-3.00,-5.00,-8.00
-3.00,+55.00,+4.00,+8.00,+14.00,+22.00,+3.00,+2.00,+32.00,+8.00,-7.00,-14.00,-39.00,-2.00,-3.00,-15.00
+3.00,+31.00,+9.00,+7.00,+8.00,-11.00,+3.00,+7.00,-8.00,-6.00,+16.00,+20.00,-54.00,-8.00,-1.00,+13.00
-3.00,-46.00,+2.00,-17.00,-11.00,-3.00,-3.00,-1.00,-42.00,+9.00,-3.00,-4.00,-39.00,-3.00,+3.00,+2.00
+3.00,+36.00,+1.00,+18.00,+9.00,+25.00,+4.00,+5.00,-13.00,-3.00,-9.00,-19.00,-10.00,-1.00,+2.00,+0.00
-3.00,-25.00,-6.00,-14.00,-13.00,-25.00,-6.00,-14.00,-21.00,-27.00,-6.00,+15.00,+82.00,-2.00,+2.00,+11.00
+4.00,-21.00,+5.00,+11.00,+4.00,+15.00,+2.00,+7.00,-21.00,+12.00,-8.00,-13.00,+22.00,+4.00,-6.00,-5.00
+0.00,+17.00,-5.00,+5.00,+13.00,+41.00,+1.00,-6.00,+11.00,+5.00,+16.00,+11.00,-30.00,-5.00,-3.00,-28.00
-1.00,+65.00,+8.00,-19.00,-8.00,-76.00,-8.00,+3.00,+31.00,+19.00,-7.00,-24.00,+41.00,-5.00,-8.00,-8.00
+5.00,-56.00,-7.00,+30.00,-1.00,+54.00,+9.00,-5.00,-27.00,-27.00,-2.00,+11.00,-47.00,-10.00,-14.00,-54.00
-5.00,-16.00,-14.00,-18.00,-16.00,-7.00,-18.00,-8.00,+30.00,+51.00,+25.00,+7.00,+4.00,+13.00,+20.00,+46.00
-1.00,-44.00,+1.00,+11.00,+11.00,+11.00,+5.00,+2.00,-21.00,-21.00,-15.00,+5.00,-8.00,+5.00,+2.00,+4.00
-5.00,+24.00,+7.00,+9.00,+10.00,+4.00,+0.00,+0.00,-48.00,-41.00,-19.00,-12.00,-14.00,-5.00,+0.00,+2.00
-3.00,-19.00,-1.00,-21.00,-1.00,-12.00,-2.00,-1.00,-67.00,-19.00,+5.00,+20.00,-3.00,-11.00,-27.00,-58.00
-1.00,-18.00,-5.00,-2.00,-2.00,+3.00,-2.00,+1.00,+44.00,+40.00,+19.00,+26.00,+36.00,+13.00,+26.00,+66.00
+2.00,-9.00,+9.00,-9.00,-7.00,-8.00,-4.00,+0.00,-22.00,-23.00,-8.00,-12.00,+3.00,-3.00,-2.00,+0.00
-4.00,-50.00,-7.00,-7.00,-1.00,-6.00,+4.00,-11.00,+1.00,+3.00,-2.00,-3.00,+52.00,+4.00,+5.00,+6.00
-1.00,+60.00,-2.00,-6.00,+1.00,-20.00,-1.00,+4.00,+9.00,-22.00,-16.00,-35.00,-51.00,+4.00,+0.00,+3.00
+1.00,+10.00,-24.00,+4.00,+2.00,-17.00,+2.00,+9.00,+18.00,-14.00,-7.00,+10.00,+4.00,-8.00,-10.00,-19.00
+0.00,+61.00,+28.00,-20.00,-1.00,+24.00,+1.00,+1.00,-54.00,-6.00,+6.00,-11.00,-102.00,-10.00,-2.00,-6.00
+0.00,+11.00,-5.00,+5.00,-6.00,-18.00,-1.00,-6.00,-28.00,-25.00,-3.00,+13.00,+15.00,-5.00,-7.00,-11.00
-1.00,-26.00,+5.00,-22.00,-14.00,-71.00,-14.00,-9.00,+36.00,-3.00,-3.00,-18.00,+37.00,+2.00,-2.00,-9.00
-1.00,+19.00,-9.00,-2.00,+3.00,-30.00,+3.00,+0.00,-24.00,+16.00,-6.00,-12.00,+17.00,-1.00,-10.00,-11.00
-5.00,-37.00,-25.00,-14.00,+5.00,+48.00,+4.00,+4.00,+37.00,+12.00,+0.00,+14.00,+32.00,-1.00,+6.00,+25.00
-1.00,+6.00,+3.00,+7.00,+2.00,+13.00,+0.00,+4.00,+32.00,+32.00,+19.00,+14.00,+75.00,+5.00,-5.00,-14.00
-5.00,-14.00,-3.00,-10.00,+3.00,-1.00,+1.00,-5.00,+20.00,+36.00,+12.00,+3.00,-10.00,-1.00,+4.00,+6.00
-2.00,+5.00,+11.00,-17.00,-19.00,-47.00,-15.00,-17.00,-79.00,-68.00,-37.00,-16.00,-79.00,-15.00,-20.00,-66.00
+1.00,-12.00,-10.00,+24.00,+16.00,+45.00,+14.00,+1.00,-8.00,-82.00,+1.00,-4.00,-26.00,+0.00,-2.00,-11.00
+0.00,-25.00,+4.00,-26.00,-20.00,-13.00,-11.00,-8.00,+5.00,+38.00,+6.00,+2.00,+15.00,+10.00,+8.00,+20.00
+4.00,-29.00,-4.00,+32.00,+10.00,-6.00,+6.00,+17.00,+19.00,+9.00,+6.00,+13.00,+38.00,+4.00,+7.00,+30.00
-4.00,-24.00,+9.00,+4.00,+16.00,+44.00,+13.00,+2.00,+19.00,+0.00,-2.00,-21.00,-2.00,-7.00,-5.00,-8.00
+0.00,+45.00,+5.00,-15.00,-11.00,-40.00,-5.00,-10.00,+3.00,-17.00,-17.00,+1.00,-77.00,+5.00,-9.00,-18.00
-3.00,-16.00,-17.00,-12.00,-4.00,+39.00,-3.00,-9.00,+13.00,+17.00,+8.00,+22.00,+19.00,+9.00,+6.00,+7.00
+3.00,-6.00,+5.00,+22.00,+9.00,+35.00,+2.00,-1.00,+20.00,+14.00,+16.00,+10.00,-22.00,+5.00,+13.00,+39.00
+5.00,+52.00,+36.00,+10.00,+13.00,+31.00,+14.00,+11.00,-19.00,-39.00,-18.00,-11.00,+1.00,+2.00,-7.00,-6.00
-5.00,+17.00,-13.00,-1.00,-2.00,+8.00,+1.00,-1.00,-15.00,+20.00,-7.00,+7.00,+29.00,-3.00,-4.00,-26.00
+2.00,-7.00,-7.00,+2.00,-8.00,-34.00,-5.00,+0.00,-41.00,-26.00,-2.00,-12.00,-10.00,+0.00,+1.00,-11.00
+2.00,+33.00,+0.00,-42.00,-24.00,-55.00,-12.00,-11.00,+44.00,+29.00,+1.00,-9.00,-14.00,+6.00,+12.00,+38.00
-1.00,-74.00,-7.00,+22.00,+9.00,+76.00,+5.00,+4.00,-19.00,+24.00,+19.00,+15.00,+49.00,-13.00,-8.00,-19.00
-1.00,+4.00,-5.00,-12.00,-1.00,-64.00,+0.00,+12.00,-20.00,-31.00,-17.00,-23.00,-6.00,-5.00,+1.00,+5.00
-3.00,+25.00,+19.00,+13.00,+18.00,+63.00,+13.00,+4.00,+17.00,+44.00,+1.00,-7.00,-93.00,-6.00,-14.00,-39.00
-7.00,+9.00,-7.00,-26.00,-14.00,+9.00,-7.00,-5.00,-25.00,-68.00,-14.00,-3.00,+66.00,-5.00,-6.00,-14.00
+4.00,-29.00,-3.00,-3.00,+0.00,-34.00,-10.00,-13.00,+58.00,+67.00,+19.00,+10.00,+3.00,+8.00,+13.00,+45.00
-4.00,-64.00,-3.00,+19.00,+4.00,+35.00,+4.00,-13.00,-10.00,+30.00,+17.00,+2.00,-31.00,+15.00,+3.00,+9.00
+3.00,+27.00,-4.00,-10.00,+17.00,+17.00,+11.00,+18.00,-10.00,-21.00,-2.00,+18.00,+14.00,-14.00,+6.00,+26.00
-2.00,-69.00,+4.00,+2.00,-2.00,-24.00,+4.00,-11.00,-34.00,-3.00,-11.00,-8.00,-38.00,-1.00,-5.00,-16.00
-10.00,+50.00,-24.00,-20.00,-20.00,+12.00,-20.00,-5.00,-7.00,-78.00,-12.00,-31.00,-37.00,+0.00,-11.00,-42.00
-1.00,-42.00,+5.00,+2.00,-9.00,+25.00,-7.00,-11.00,+55.00,+43.00,+18.00,+31.00,+110.00,-1.00,+18.00,+50.00
+1.00,+40.00,+1.00,+10.00,+1.00,-45.00,+1.00,+7.00,-15.00,+6.00,+8.00,+4.00,+6.00,-6.00,-2.00,-15.00
-6.00,-18.00,-12.00,-25.00,+2.00,+29.00,+4.00,-1.00,+37.00,+19.00,-3.00,-38.00,-59.00,-1.00,+1.00,+14.00
+0.00,+0.00,+25.00,-6.00,-4.00,-47.00,+0.00,+0.00,-26.00,-23.00,-13.00,+10.00,-16.00,-5.00,+2.00,-3.00
+0.00,+31.00,-4.00,-16.00,-17.00,-37.00,-8.00,+6.00,-32.00,-8.00,-14.00,-9.00,+113.00,-2.00,-13.00,-38.00
-7.00,-47.00,-5.00,+4.00,+25.00,+66.00,+15.00,-6.00,-12.00,-26.00,+8.00,+13.00,-74.00,-5.00,-1.00,+6.00
+2.00,+6.00,-5.00,-10.00,+0.00,-19.00,+1.00,+12.00,+38.00,+38.00,+7.00,-12.00,-3.00,-5.00,+3.00,+21.00
-4.00,-9.00,-3.00,-5.00,-8.00,-12.00,+0.00,-12.00,+21.00,-10.00,-6.00,+19.00,+24.00,+0.00,+7.00,+19.00
+4.00,-23.00,-12.00,+0.00,-6.00,-45.00,-10.00,-1.00,-11.00,+19.00,+0.00,-30.00,+63.00,-5.00,-10.00,-22.00
+0.00,+25.00,+2.00,+14.00,-4.00,-1.00,-3.00,+3.00,+8.00,+32.00,-10.00,+7.00,-90.00,-13.00,-7.00,-10.00
-4.00,-5.00,+0.00,-28.00,-6.00,-9.00,-8.00,-20.00,-22.00,-51.00,-4.00,-15.00,-9.00,-21.00,-13.00,-39.00
+2.00,-24.00,-4.00,+40.00,+14.00,+52.00,+10.00,+13.00,+31.00,+16.00,+11.00,+12.00,-23.00,+38.00,+9.00,+30.00
-4.00,+57.00,+13.00,+2.00,+0.00,-2.00,-3.00,+1.00,-36.00,+18.00,-5.00,-35.00,+64.00,-2.00,+11.00,-9.00
+6.00,-41.00,-13.00,+1.00,-15.00,-58.00,-12.00,-10.00,-20.00,+37.00,+11.00,+35.00,-42.00,-4.00,-29.00,-5.00
+0.00,+43.00,+1.00,+22.00,+18.00,+41.00,+5.00,+10.00,+3.00,-23.00,-24.00,-4.00,-33.00,-13.00,-22.00,-57.00
+2.00,-42.00,+3.00,+3.00,-6.00,-52.00,-1.00,-5.00,-28.00,+38.00,+16.00,-9.00,+27.00,-9.00,+12.00,+30.00
+0.00,+17.00,+9.00,+2.00,-5.00,+53.00,+1.00,-3.00,-3.00,-1.00,+22.00,+29.00,-32.00,+9.00,-3.00,+0.00
+1.00,-78.00,-9.00,+30.00,+6.00,-37.00,-3.00,-1.00,-42.00,-43.00,-23.00,-34.00,+33.00,+6.00,+5.00,-6.00
+0.00,+106.00,+10.00,+17.00,+2.00,+25.00,+5.00,-2.00,+27.00,+21.00,-5.00,+4.00,-4.00,-2.00,+6.00,+22.00
-3.00,+10.00,-1.00,-32.00,-20.00,-46.00,-13.00,-8.00,+17.00,-4.00,-9.00,-7.00,+17.00,-9.00,-7.00,-10.00
+8.00,-92.00,-19.00,+40.00,+25.00,+29.00,+10.00,+17.00,+5.00,-24.00,-12.00,-6.00,-39.00,+18.00,+14.00,+10.00
+1.00,+97.00,+19.00,-9.00,+1.00,+10.00,+7.00,+4.00,-19.00,-21.00,+5.00,+7.00,+64.00,+3.00,-1.00,-21.00
+4.00,-44.00,-6.00,+0.00,-11.00,-23.00,-8.00,-9.00,+70.00,+58.00,+15.00,+9.00,-28.00,+7.00,+11.00,+44.00
+2.00,+2.00,-15.00,+18.00,+9.00,+6.00,-6.00,-1.00,-18.00,+0.00,-10.00,-10.00,-53.00,-18.00,-3.00,-19.00
-3.00,-65.00,-7.00,-18.00,-14.00,-13.00,-8.00,-8.00,-15.00,-36.00,-5.00,-3.00,+78.00,-52.00,+13.00,-19.00
+6.00,+24.00,+5.00,+2.00,-14.00,-73.00,-5.00,+1.00,+39.00,+38.00,+12.00,+22.00,-73.00,+45.00,-30.00,+12.00
-9.00,-4.00,+9.00,+3.00,+7.00,+6.00,-2.00,-7.00,+4.00,-6.00,+2.00,+2.00,+88.00,+14.00,-4.00,+0.00
-1.00,+22.00,-3.00,+3.00,+7.00,+10.00,+9.00,+7.00,-34.00,-29.00,-21.00,-20.00,+6.00,+27.00,-11.00,-21.00
-2.00,+32.00,+8.00,-3.00,-3.00,-13.00,-4.00,-10.00,-85.00,-123.00,-6.00,-13.00,-94.00,-34.00,-14.00,-51.00
+0.00,+3.00,-5.00,-10.00,-15.00,+8.00,-6.00,-2.00,+73.00,+64.00,+18.00,+14.00,+47.00,-11.00,+31.00,+74.00
+0.00,-50.00,-4.00,-16.00,-14.00,-25.00,-22.00,-16.00,+12.00,+42.00,+5.00,-7.00,+29.00,+3.00,+5.00,+7.00
+3.00,+31.00,+8.00,+35.00,+20.00,-27.00,+26.00,-5.00,-23.00,-18.00,-21.00,-15.00,+16.00,-6.00,-4.00,-2.00
-8.00,-40.00,-7.00,-12.00,+14.00,+66.00,+7.00,+10.00,+14.00,-3.00,+5.00,+12.00,-15.00,+3.00,-13.00,+16.00
+1.00,-28.00,-6.00,+8.00,-11.00,-37.00,-3.00,-4.00,-30.00,-44.00,-12.00,-47.00,-10.00,-2.00,-1.00,-30.00
-7.00,-97.00,-11.00,-12.00,-4.00,-3.00,-8.00,-8.00,-61.00,+9.00,+9.00,+42.00,+73.00,+11.00,+0.00,+11.00
+3.00,-53.00,-12.00,-12.00,+1.00,+54.00,-1.00,+10.00,+62.00,+17.00,+12.00,+22.00,-67.00,-34.00,-2.00,-12.00
-6.00,+85.00,+27.00,+0.00,+5.00,-9.00,+3.00,+6.00,+24.00,-3.00,-18.00,-2.00,+41.00,+18.00,-11.00,+6.00
-1.00,-82.00,-10.00,-12.00,-1.00,+11.00,+0.00,-4.00,-57.00,-51.00,-1.00,-9.00,-37.00,-8.00,+5.00,-30.00
+3.00,-21.00,-16.00,+7.00,-3.00,-32.00,-2.00,+4.00,-36.00,+22.00,-4.00,-10.00,+0.00,-3.00,+5.00,-32.00
+10.00,-46.00,+10.00,-3.00,-11.00,-17.00,-8.00,+38.00,+32.00,-4.00,+6.00,+12.00,+78.00,-1.00,+0.00,-4.00
-2.00,+44.00,-5.00,-14.00,-16.00,-61.00,-14.00,-66.00,+37.00,+42.00,-4.00,-34.00,-57.00,-2.00,-7.00,-5.00
-5.00,+32.00,+7.00,-3.00,+12.00,+44.00,+4.00,+7.00,-9.00,-37.00,+2.00,+14.00,-47.00,+9.00,+7.00,+28.00
+0.00,+11.00,-1.00,+3.00,+0.00,+23.00,+3.00,+17.00,+1.00,-22.00,+7.00,+20.00,-68.00,-2.00,+5.00,+38.00
-2.00,-23.00,-12.00,-15.00,+5.00,+52.00,+0.00,-6.00,-20.00,-16.00,-4.00,-17.00,-5.00,-14.00,-8.00,-4.00
+2.00,+73.00,+5.00,+0.00,-2.00,+32.00,-1.00,+21.00,+53.00,+78.00,+13.00,+25.00,+21.00,+16.00,-6.00,+21.00
+10.00,+34.00,+5.00,+55.00,-1.00,-10.00,+10.00,+7.00,-77.00,-29.00,-17.00,-11.00,+109.00,-18.00,+7.00,+5.00
+3.00,-3.00,+2.00,-10.00,+6.00,+25.00,+10.00,-9.00,-54.00,-32.00,-15.00,-21.00,-119.00,-23.00,-4.00,-29.00
-10.00,-12.00,-16.00,-47.00,-24.00,-26.00,-13.00,-29.00,+89.00,+70.00,+18.00,+15.00,+73.00,+3.00,-1.00,+32.00
+12.00,-61.00,+3.00,+56.00,+13.00,-50.00,+5.00,+18.00,-20.00,-8.00,-11.00,-32.00,+55.00,-2.00,-7.00,-22.00
-10.00,+19.00,-11.00,-9.00,+5.00,+65.00,-4.00,+4.00,-30.00,+14.00,+7.00,+15.00,+73.00,-4.00,-4.00,-6.00
+0.00,+14.00,+12.00,-6.00,+6.00,+11.00,+8.00,+10.00,+45.00,+26.00,+0.00,+8.00,+57.00,+5.00,+3.00,+25.00
-7.00,-33.00,+2.00,-2.00,-10.00,+2.00,-4.00,-9.00,-29.00,+8.00,-4.00,-4.00,-39.00,-5.00,-4.00,-26.00
-2.00,+18.00,-5.00,-11.00,-13.00,-47.00,-8.00,+4.00,-22.00,-7.00,+12.00,+9.00,-23.00,+6.00,+11.00,+31.00
-4.00,+0.00,+1.00,-22.00,-7.00,-24.00,-10.00,-4.00,+55.00,+48.00,-6.00,-8.00,-26.00,-2.00,-6.00,-23.00
-1.00,+19.00,-4.00,+11.00,-4.00,-6.00,+9.00,+10.00,+9.00,-74.00,-9.00,-17.00,-2.00,+2.00,+10.00,+31.00
-1.00,-17.00,+22.00,+32.00,+10.00,-49.00,+1.00,-20.00,-1.00,+46.00,+8.00,+15.00,-81.00,-8.00,-5.00,-13.00
-6.00,-73.00,-17.00,-6.00,-23.00,+3.00,-13.00,-16.00,+10.00,+22.00,-8.00,+13.00,-3.00,+7.00,+3.00,+15.00
+4.00,+39.00,-3.00,+5.00,+7.00,-36.00,-3.00,-3.00,-14.00,-12.00,-12.00,-36.00,-30.00,+3.00,+1.00,-4.00
+1.00,+7.00,+5.00,+3.00,+11.00,+57.00,+3.00,+7.00,-16.00,-12.00,+12.00,+33.00,-33.00,-5.00,+1.00,+0.00
+4.00,+71.00,-6.00,+4.00,-4.00,-31.00,-5.00,-1.00,-44.00,-46.00,-9.00,-12.00,+63.00,+4.00,-2.00,-16.00
+1.00,+15.00,+9.00,-17.00,-1.00,-16.00,-1.00,+11.00,+59.00,+42.00,+23.00,+11.00,-43.00,-2.00,-16.00,-34.00
+3.00,-58.00,+7.00,+3.00,-16.00,+3.00,-2.00,+11.00,-11.00,-12.00,-18.00,+4.00,+57.00,+4.00,+7.00,+21.00
+6.00,+50.00,+1.00,+6.00,+16.00,+28.00,+7.00,+1.00,-22.00,+28.00,-7.00,-12.00,-51.00,-26.00,-18.00,-50.00
-8.00,-1.00,+5.00,+9.00,+5.00,+4.00,+5.00,+10.00,+28.00,-89.00,+1.00,+13.00,+59.00,+57.00,+23.00,+43.00
-1.00,-24.00,+6.00,-6.00,+3.00,+17.00,+4.00,+1.00,-42.00,+2.00,+6.00,+9.00,-119.00,-19.00,-9.00,-4.00
+3.00,-21.00,-14.00,+11.00,-4.00,-49.00,-4.00,-2.00,+41.00,+6.00,-12.00,-46.00,+83.00,+6.00,+0.00,+22.00
-2.00,-15.00,-12.00,-26.00,-35.00,-56.00,-41.00,-15.00,+24.00,+92.00,+32.00,+38.00,+0.00,+19.00,-5.00,-25.00
-1.00,-29.00,-1.00,+21.00,+28.00,+92.00,+55.00,-3.00,+17.00,+24.00,-7.00,-4.00,+10.00,-13.00,-3.00,-9.00
-6.00,+71.00,-2.00,-6.00,+9.00,+48.00,+6.00,+6.00,-39.00,-54.00,-16.00,-27.00,+88.00,+14.00,+5.00,+14.00
+5.00,-74.00,-1.00,+5.00,-1.00,-31.00,-3.00,+2.00,-10.00,-28.00,+3.00,+27.00,-62.00,-31.00,-11.00,-13.00
-9.00,+36.00,+16.00,-5.00,+3.00,-9.00,+13.00,+6.00,-51.00,-23.00,-19.00,-21.00,+61.00,+6.00,+15.00,+6.00
-3.00,-45.00,-9.00,-3.00,-8.00,-11.00,-20.00,-9.00,+31.00,+7.00,+5.00,-1.00,-8.00,-10.00,-1.00,-3.00
+0.00,-39.00,-4.00,-3.00,-6.00,-21.00,-6.00,+4.00,+19.00,+4.00,-13.00,-6.00,+75.00,+9.00,+2.00,+2.00
-6.00,+25.00,+1.00,-17.00,+1.00,+19.00,+4.00,-3.00,-5.00,-20.00,+4.00,+0.00,-45.00,+0.00,+0.00,-14.00
+1.00,-20.00,-4.00,-1.00,-5.00,-24.00,-6.00,-7.00,+8.00,-46.00,-1.00,+2.00,+61.00,+5.00,-8.00,-2.00
-2.00,-26.00,-24.00,-14.00,-13.00,-59.00,-18.00,-3.00,+4.00,+10.00,-7.00,-11.00,-84.00,-7.00,+1.00,+14.00
-1.00,+19.00,+7.00,+18.00,+13.00,+16.00,+11.00,-4.00,-23.00,+56.00,+20.00,+30.00,+16.00,+12.00,+14.00,+35.00
-10.00,+14.00,+8.00,-10.00,-8.00,+5.00,-8.00,-12.00,+7.00,-20.00,-8.00,-4.00,+26.00,+10.00,+0.00,-7.00
-1.00,+98.00,+20.00,+5.00,-2.00,-27.00,+10.00,+3.00,+35.00,-4.00,+10.00,+7.00,-42.00,-1.00,+6.00,+29.00
-6.00,-4.00,+2.00,-13.00,+19.00,+37.00,+1.00,+2.00,-65.00,-16.00,-7.00,-6.00,+30.00,-10.00,-19.00,-29.00
+1.00,-32.00,-10.00,-19.00,-14.00,-21.00,-7.00,+10.00,-38.00,-41.00,-12.00,-5.00,-27.00,-13.00,-5.00,-13.00
-4.00,-25.00,-6.00,+2.00,+4.00,+37.00,+6.00,-16.00,+103.00,+20.00,+5.00,-10.00,-8.00,-21.00,-7.00,-8.00
-1.00,+46.00,+1.00,+0.00,-13.00,-32.00,-4.00,-8.00,-49.00,-26.00,+7.00,+2.00,+17.00,+28.00,-5.00,-13.00
+0.00,-1.00,+7.00,+12.00,-1.00,+39.00,-29.00,-5.00,+14.00,+29.00,+8.00,+10.00,+33.00,+4.00,+14.00,+33.00
-1.00,+70.00,+12.00,+9.00,+5.00,+43.00,+44.00,+7.00,+13.00,+4.00,+0.00,-7.00,+77.00,+1.00,-9.00,-11.00
-4.00,-59.00,-22.00,-32.00,-6.00,+19.00,-11.00,-6.00,+2.00,+6.00,-4.00,+15.00,-97.00,-9.00,+1.00,+0.00
+6.00,+20.00,+16.00,+28.00,-2.00,-91.00,+1.00,+0.00,-20.00,-33.00,-12.00,-30.00,+14.00,-4.00,-7.00,-27.00
-2.00,+56.00,+10.00,+16.00,+19.00,+86.00,+19.00,+17.00,-64.00,-38.00,+14.00,+22.00,+77.00,+11.00,+0.00,-5.00
+5.00,-2.00,-19.00,-27.00,-9.00,-26.00,-14.00,-6.00,+47.00,-6.00,-6.00,-44.00,+94.00,+15.00,-1.00,+21.00
+2.00,+57.00,+15.00,+50.00,+9.00,+35.00,+10.00,+12.00,-7.00,-20.00,+4.00,+53.00,-94.00,-21.00,+8.00,+5.00
-1.00,-84.00,-18.00,-2.00,-1.00,+18.00,-13.00,-16.00,+40.00,+25.00,-8.00,-19.00,-26.00,+8.00,-5.00,+7.00
-2.00,-7.00,-17.00,-4.00,-11.00,-38.00,-9.00,-8.00,-11.00,-9.00,-5.00,+5.00,-31.00,-17.00,-2.00,-11.00
+1.00,+16.00,+15.00,+4.00,-1.00,-16.00,-8.00,+3.00,-10.00,-16.00,+1.00,+8.00,-27.00,+20.00,+0.00,-6.00
-1.00,-44.00,-8.00,-6.00,-8.00,-22.00,+1.00,-4.00,-9.00,+16.00,+1.00,-23.00,+115.00,+21.00,+1.00,-1.00
+2.00,+24.00,+5.00,+14.00,+14.00,+5.00,+2.00,+8.00,+13.00,-18.00,-4.00,+9.00,-24.00,-7.00,+2.00,+3.00
+1.00,+25.00,+7.00,-2.00,-15.00,-38.00,-6.00,-12.00,-10.00,+15.00,-4.00,+2.00,-5.00,+1.00,-5.00,-4.00
+4.00,-76.00,-12.00,-4.00,-1.00,+26.00,+5.00,+1.00,-14.00,-17.00,+7.00,+6.00,+37.00,-10.00,+1.00,-2.00
-4.00,+89.00,+19.00,+4.00,+22.00,+24.00,+2.00,+10.00,-8.00,+0.00,-7.00,-41.00,+3.00,-9.00,-12.00,-21.00
+5.00,-38.00,-2.00,+25.00,+4.00,+12.00,-2.00,-15.00,+0.00,+17.00,+4.00,+41.00,-56.00,-7.00,+8.00,+40.00
-2.00,-47.00,-9.00,-18.00,-11.00,-55.00,-5.00,-10.00,+26.00,+25.00,-12.00,-28.00,+24.00,-6.00,-5.00,-7.00
-6.00,-40.00,-13.00,-7.00,-2.00,+4.00,-3.00,-3.00,-1.00,-33.00,-5.00,+17.00,-64.00,-19.00,-5.00,-18.00
+4.00,-72.00,-11.00,+9.00,+7.00,+70.00,+3.00,+4.00,-38.00,-75.00,+4.00,-3.00,+33.00,+6.00,-8.00,-24.00
-1.00,+40.00,+10.00,-16.00,+2.00,+7.00,+1.00,+22.00,+22.00,+32.00,-4.00,-15.00,+25.00,+22.00,+9.00,+18.00
+0.00,-4.00,+6.00,+1.00,-5.00,-13.00,+7.00,+3.00,+11.00,+70.00,+18.00,-4.00,+39.00,+4.00,+2.00,+19.00
-1.00,-12.00,+0.00,+1.00,+3.00,-11.00,-11.00,-11.00,-27.00,+5.00,+3.00,+7.00,-104.00,-13.00,-7.00,-44.00
-2.00,-19.00,-4.00,-22.00,-22.00,-93.00,-7.00,-6.00,+15.00,+9.00,+8.00,+23.00,-23.00,+1.00,+7.00,+21.00
-1.00,+18.00,+0.00,-3.00,-2.00,+6.00,+0.00,-1.00,-3.00,-4.00,-10.00,-21.00,+104.00,+0.00,-12.00,-42.00
-3.00,-27.00,+13.00,-11.00,+11.00,+77.00,+12.00,+17.00,-5.00,-34.00,-4.00,-22.00,-7.00,-23.00,+1.00,-2.00
-4.00,-25.00,-5.00,-7.00,+4.00,+64.00,+6.00,+2.00,+10.00,+10.00,-8.00,+37.00,-87.00,+26.00,-16.00,-13.00
+11.00,+34.00,-11.00,+14.00,-12.00,-114.00,-20.00,-11.00,-30.00,-2.00,-7.00,-6.00,+90.00,-3.00,+20.00,-53.00
-17.00,+5.00,-7.00,-15.00,+6.00,+47.00,-2.00,-7.00,+5.00,+12.00,+1.00,-8.00,-70.00,+9.00,-44.00,-26.00
+7.00,+62.00,+6.00,-4.00,-10.00,-54.00,-6.00,-1.00,+5.00,-3.00,-3.00,+5.00,+20.00,+9.00,+1.00,-11.00
-3.00,-34.00,-2.00,+11.00,+6.00,+1.00,+1.00,-7.00,+1.00,+23.00,+5.00,-4.00,-14.00,-20.00,-3.00,+9.00
-2.00,-36.00,+3.00,-28.00,-6.00,-2.00,-4.00,-6.00,+7.00,+17.00,-3.00,-10.00,-1.00,-1.00,-5.00,+34.00
+5.00,-70.00,-9.00,-2.00,-6.00,-13.00,+2.00,+0.00,+6.00,-8.00,+0.00,+14.00,+18.00,-10.00,+10.00,+21.00
+2.00,+33.00,+6.00,-10.00,+4.00,-3.00,-10.00,+2.00,-21.00,-15.00,-4.00,-3.00,-29.00,+3.00,+3.00,+4.00
+3.00,-13.00,-3.00,-6.00,-5.00,-20.00,-1.00,+8.00,+13.00,+13.00,+0.00,-8.00,+9.00,-2.00,+5.00,+30.00
-9.00,+44.00,+8.00,-19.00,-7.00,-55.00,-6.00,+4.00,+35.00,+22.00,+9.00,+14.00,-21.00,+6.00,+2.00,+21.00
+2.00,-43.00,+3.00,+29.00,+8.00,+52.00,+12.00,-23.00,+3.00,+22.00,+4.00,-13.00,+34.00,-5.00,+10.00,+14.00
-4.00,-36.00,-10.00,-30.00,-10.00,-45.00,-8.00,-13.00,-4.00,-20.00,-14.00,-2.00,-39.00,-2.00,-10.00,-4.00
+6.00,-14.00,-3.00,+27.00,+11.00,+73.00,+6.00,+6.00,+7.00,+6.00,-4.00,+7.00,+26.00,-4.00,-2.00,-25.00
-1.00,-26.00,+5.00,-20.00,-3.00,+4.00,-3.00,+9.00,-49.00,-15.00,-11.00,-15.00,+8.00,+9.00,-3.00,+13.00
+5.00,-11.00,-5.00,-28.00,-11.00,-35.00,-9.00,+2.00,-8.00,+27.00,-4.00,-14.00,-34.00,-20.00,-1.00,+6.00
+8.00,+72.00,+26.00,+40.00,+16.00,+76.00,+25.00,+8.00,+29.00,-19.00,+5.00,+16.00,+109.00,+16.00,-4.00,-28.00
-1.00,+85.00,+9.00,-22.00,-20.00,-77.00,-9.00,+7.00,+22.00,+27.00,+8.00,-6.00,-69.00,-12.00,+10.00,+16.00
-9.00,+5.00,+5.00,+22.00,+25.00,+103.00,+13.00,-13.00,+10.00,+22.00,+7.00,+10.00,-115.00,+6.00,+0.00,+2.00
-5.00,-37.00,-10.00,-17.00,-4.00,+12.00,-4.00,+2.00,+4.00,-21.00,-6.00,+6.00,+39.00,-15.00,+0.00,+3.00
+5.00,-15.00,-3.00,-5.00,-7.00,-37.00,-10.00,-8.00,-11.00,-2.00,+0.00,+5.00,+0.00,+0.00,-3.00,-1.00
-4.00,-33.00,-1.00,+3.00,-14.00,-93.00,-22.00,-2.00,-14.00,-24.00,-5.00,-10.00,+26.00,-2.00,-1.00,-6.00
-5.00,-42.00,-20.00,-13.00,-5.00,+45.00,+11.00,-2.00,-5.00,-6.00,-4.00,-4.00,+20.00,-2.00,-8.00,-4.00
-5.00,+8.00,-2.00,+3.00,-5.00,-15.00,+6.00,+4.00,-25.00,-14.00,-2.00,-8.00,-5.00,+6.00,-2.00,-2.00
+0.00,+6.00,-2.00,+19.00,+13.00,+34.00,+5.00,+6.00,-40.00,+19.00,+6.00,+6.00,-43.00,-4.00,+15.00,+19.00
+1.00,+10.00,+8.00,+4.00,-2.00,-16.00,-9.00,-12.00,-99.00,+9.00,+1.00,-9.00,-7.00,-8.00,-4.00,-8.00
-4.00,-25.00,+1.00,-7.00,-1.00,+14.00,+2.00,-7.00,-62.00,+2.00,-6.00,+2.00,+107.00,+6.00,-2.00,-11.00
+4.00,-38.00,-11.00,+6.00,+1.00,+23.00,+5.00,-2.00,-61.00,-1.00,-10.00,-2.00,-80.00,-5.00,-8.00,-24.00
+0.00,+41.00,-9.00,-9.00,-2.00,-2.00,-10.00,+0.00,+1.00,-23.00,-3.00,-4.00,+21.00,-4.00,-10.00,-20.00
-6.00,-9.00,+4.00,+1.00,-2.00,+18.00,+0.00,-8.00,+114.00,+78.00,+7.00,-7.00,+40.00,+9.00,+9.00,+30.00
+3.00,+79.00,+11.00,-3.00,+5.00,-13.00,+0.00,+12.00,-9.00,-31.00,+8.00,+5.00,-69.00,-11.00,+2.00,+3.00
-3.00,-14.00,+2.00,-12.00,+4.00,-1.00,+10.00,+1.00,+52.00,-17.00,-3.00,+7.00,+31.00,-14.00,+1.00,+4.00
-4.00,-39.00,-15.00,-7.00,-10.00,-9.00,-2.00,+3.00,+42.00,-44.00,-6.00,-5.00,+2.00,+11.00,-4.00,-6.00
+0.00,-51.00,-9.00,+11.00,-7.00,-18.00,-10.00,-11.00,-7.00,-26.00,-11.00,-6.00,+26.00,+3.00,+3.00,-5.00
-6.00,+41.00,-3.00,-9.00,-1.00,-9.00,-3.00,-1.00,+60.00,+19.00,+3.00,+1.00,-19.00,+4.00,+3.00,+25.00
-2.00,-62.00,+0.00,+0.00,-1.00,+3.00,-4.00,-3.00,+13.00,-13.00,-4.00,-5.00,+16.00,-3.00,-3.00,-10.00
+4.00,+72.00,+4.00,-2.00,-5.00,-66.00,-7.00,+0.00,+10.00,+7.00,+2.00,+6.00,-56.00,-10.00,+0.00,+6.00
+0.00,+7.00,+2.00,+20.00,+15.00,+29.00,+17.00,-1.00,+7.00,-22.00,-9.00,-10.00,+17.00,+4.00,-7.00,-17.00
-2.00,-22.00,-5.00,-21.00,-13.00,-73.00,-11.00,-6.00,+11.00,+7.00,+1.00,-7.00,-11.00,-10.00,-4.00,-8.00
-7.00,+22.00,+3.00,+4.00,+19.00,+58.00,+7.00,+19.00,-15.00,-19.00,+3.00,+14.00,+6.00,+2.00,+3.00,-6.00
-3.00,-53.00,-10.00,-7.00,-9.00,+7.00,-2.00,-2.00,-9.00,+22.00,+5.00,-1.00,+3.00,-8.00,-3.00,-1.00
-4.00,+0.00,+0.00,-3.00,-1.00,-13.00,-2.00,+4.00,+3.00,-21.00,-21.00,-7.00,-14.00,+7.00,+0.00,-9.00
+1.00,+8.00,+0.00,+0.00,-5.00,-11.00,-3.00,-13.00,-2.00,+0.00,-6.00,+2.00,+14.00,+1.00,-2.00,-5.00
+4.00,+6.00,-2.00,-12.00,-4.00,-11.00,-15.00,+13.00,-16.00,+9.00,+21.00,+3.00,+8.00,+1.00,-3.00,-10.00
+2.00,-35.00,+0.00,+12.00,+1.00,-19.00,+7.00,-30.00,-3.00,-19.00,-43.00,-17.00,-18.00,+6.00,+2.00,+3.00
+1.00,+51.00,+5.00,-8.00,+3.00,+6.00,+1.00,+3.00,-21.00,-32.00,-23.00,-1.00,-7.00,-18.00,-13.00,-32.00
-3.00,-100.00,-13.00,-23.00,-15.00,-29.00,-15.00,-6.00,+3.00,-9.00,-3.00,-31.00,-44.00,+2.00,+6.00,+20.00
+2.00,+101.00,+7.00,+29.00,+14.00,+80.00,+23.00,+11.00,+55.00,+19.00,+7.00,+17.00,-6.00,+1.00,+0.00,+2.00
-2.00,-3.00,-9.00,-14.00,-16.00,-20.00,-19.00,-1.00,-24.00,-1.00,+13.00,-3.00,-52.00,-18.00,-3.00,-8.00
+1.00,-37.00,+0.00,+2.00,+4.00,+26.00,+3.00,-4.00,+7.00,-24.00,+10.00,+23.00,+15.00,+7.00,+4.00,+11.00
+8.00,-47.00,-2.00,+3.00,-12.00,-86.00,-3.00,-7.00,-13.00,+6.00,-12.00,+2.00,+40.00,+0.00,-9.00,-14.00
-5.00,-21.00,+4.00,-14.00,+9.00,+61.00,+0.00,-3.00,-24.00,+5.00,-1.00,-11.00,+30.00,+3.00,+6.00,+17.00
-4.00,-17.00,+2.00,-4.00,+0.00,-14.00,-8.00,+0.00,-9.00,-7.00,+6.00,+1.00,-17.00,+3.00,-3.00,-21.00
-4.00,-43.00,-8.00,-7.00,-1.00,+12.00,+3.00,+1.00,-21.00,+0.00,+3.00,-1.00,-10.00,-8.00,+1.00,+21.00
+5.00,+41.00,+4.00,+28.00,+0.00,-20.00,-4.00,-10.00,-24.00,+27.00,+5.00,+0.00,+27.00,+6.00,-2.00,-8.00
-1.00,-21.00,-9.00,-5.00,-6.00,-48.00,-8.00,+5.00,-39.00,-13.00,-7.00,-7.00,+10.00,+0.00,-1.00,-4.00
+1.00,+15.00,+4.00,+4.00,+5.00,+2.00,+6.00,+6.00,-76.00,+20.00,+5.00,+0.00,-40.00,-4.00,-4.00,+10.00
-3.00,-30.00,-3.00,-8.00,-5.00,-9.00,-4.00,-12.00,-43.00,-3.00,-3.00,-5.00,-8.00,+11.00,+6.00,+29.00
+2.00,+11.00,+2.00,+10.00,+10.00,+58.00,+7.00,+13.00,-34.00,-21.00,-9.00,-1.00,-34.00,-7.00,-8.00,-41.00
+5.00,+7.00,+1.00,+5.00,-3.00,-42.00,-3.00,-6.00,+33.00,+5.00,-1.00,-8.00,-24.00,+4.00,+1.00,+4.00
-8.00,-9.00,-10.00,-1.00,+1.00,+21.00,+2.00,+1.00,+81.00,+16.00,+1.00,+10.00,+54.00,+3.00,-3.00,+13.00
-1.00,+3.00,+12.00,+4.00,-6.00,-33.00,-11.00,+4.00,+19.00,-2.00,+8.00,-3.00,-7.00,-8.00,-4.00,-11.00
+0.00,+53.00,+5.00,+15.00,+10.00,+36.00,+5.00,-15.00,+93.00,+21.00,+14.00,+18.00,+32.00,+8.00,+7.00,+25.00
+3.00,-20.00,-43.00,-7.00,-2.00,-17.00,-8.00,-7.00,+16.00,-10.00,-9.00,-2.00,-8.00,+2.00,+3.00,-7.00
-3.00,+15.00,+47.00,-19.00,-1.00,-9.00,+3.00,-12.00,+20.00,+9.00,+1.00,-9.00,+5.00,+0.00,-4.00,-4.00
+0.00,-45.00,-15.00,+10.00,-1.00,-4.00,+0.00,-6.00,+7.00,-20.00,+4.00,+2.00,+75.00,+4.00,-2.00,-11.00
+4.00,-68.00,-16.00,-2.00,-15.00,-5.00,-5.00,+7.00,-57.00,-13.00,-7.00,+4.00,-77.00,+9.00,+1.00,-9.00
-7.00,-18.00,+19.00,+29.00,-1.00,-11.00,+6.00,-19.00,+4.00,+7.00,+6.00,+3.00,+58.00,-5.00,-5.00,-2.00
+6.00,-12.00,-30.00,+15.00,+13.00,+13.00,+3.00,+10.00,-14.00,-21.00,-17.00,-8.00,+8.00,+0.00,-4.00,-2.00
-3.00,+58.00,+2.00,-19.00,+6.00,+33.00,+10.00,+11.00,+29.00,-5.00,-7.00,+3.00,+0.00,-3.00,+2.00,+9.00
-1.00,-34.00,+2.00,+0.00,+4.00,+53.00,+2.00,+5.00,+32.00,+23.00,+0.00,-6.00,+31.00,-6.00,-5.00,-11.00
+3.00,-17.00,-10.00,-16.00,-14.00,-40.00,-10.00,-9.00,-29.00,+5.00,+4.00,+2.00,-9.00,+8.00,-2.00,-10.00
+1.00,-32.00,-2.00,-1.00,-8.00,-35.00,-4.00,+7.00,-15.00,-14.00,+9.00,+4.00,-37.00,-2.00,+6.00,+19.00
-4.00,+51.00,+15.00,+11.00,+12.00,+11.00,+5.00,-7.00,-4.00,+40.00,+0.00,-23.00,-30.00,-7.00,-8.00,-12.00
+0.00,+2.00,-6.00,-8.00,-3.00,-3.00,-2.00,+0.00,+3.00,-4.00,+8.00,+7.00,+40.00,-4.00,-6.00,-7.00
-1.00,+15.00,+0.00,+1.00,-8.00,-29.00,-7.00,-6.00,-35.00,-9.00,-11.00,+0.00,-17.00,-8.00,+4.00,+14.00
-3.00,-2.00,+1.00,-5.00,-12.00,-25.00,-7.00,-6.00,+14.00,+15.00,+2.00,-4.00,+4.00,+0.00,-1.00,+2.00
+1.00,-66.00,-8.00,-10.00,-1.00,+27.00,-3.00,+13.00,-33.00,-12.00,-3.00,-5.00,-111.00,-9.00,-3.00,-9.00
-8.00,+60.00,+12.00,-19.00,+8.00,-5.00,+2.00,-7.00,+36.00,+3.00,+2.00,-3.00,+3.00,-9.00,-3.00,+7.00
-1.00,+18.00,+16.00,+12.00,+6.00,+1.00,+6.00,-11.00,-11.00,-11.00,+1.00,-11.00,-12.00,+1.00,+1.00,+16.00
-2.00,-9.00,-3.00,+14.00,-2.00,+9.00,-1.00,-30.00,-22.00,+7.00,-3.00,-3.00,+29.00,-1.00,-5.00,-20.00
+0.00,+12.00,-11.00,-7.00,-4.00,+0.00,-4.00,+7.00,-2.00,+8.00,-1.00,+21.00,+33.00,-25.00,+3.00,+26.00
-4.00,-6.00,-2.00,+1.00,-2.00,-6.00,+1.00,+5.00,-6.00,-4.00,-2.00,+7.00,-12.00,+38.00,+8.00,+27.00
+2.00,-21.00,+8.00,-3.00,+1.00,-14.00,+1.00,+6.00,-23.00,-22.00,-5.00,-12.00,+15.00,-14.00,-13.00,-36.00
-1.00,-12.00,-4.00,-10.00,+7.00,+33.00,+1.00,+2.00,+24.00,+11.00,+8.00,-2.00,+10.00,+24.00,+7.00,+18.00
+0.00,-44.00,-13.00,-2.00,-9.00,-37.00,-10.00,-5.00,-33.00,-9.00,+4.00,+1.00,-24.00,-10.00,-4.00,-18.00
-1.00,+74.00,+12.00,+3.00,+5.00,-3.00,-1.00,+7.00,-30.00,-22.00,-17.00,-16.00,+27.00,-16.00,-9.00,-16.00
-3.00,-21.00,-6.00,+14.00,+7.00,+26.00,+5.00,-11.00,+34.00,+8.00,-10.00,-15.00,+26.00,-1.00,-2.00,-4.00
+0.00,+25.00,+3.00,-3.00,-9.00,+0.00,+1.00,+5.00,+5.00,+14.00,+6.00,+14.00,+27.00,-6.00,+0.00,+13.00
+3.00,+15.00,-8.00,-3.00,+3.00,-8.00,-1.00,+13.00,+9.00,+9.00,+15.00,+24.00,-5.00,+14.00,+6.00,-4.00
+1.00,-32.00,-2.00,-7.00,+1.00,+13.00,-4.00,-9.00,-43.00,-24.00,-12.00,-15.00,+64.00,+3.00,-12.00,-33.00
+4.00,-13.00,-2.00,-11.00,-5.00,-35.00,-5.00,+4.00,+8.00,+12.00,+3.00,+15.00,-44.00,+1.00,+16.00,+56.00
-3.00,+2.00,-3.00,+23.00,+0.00,-7.00,+1.00,-17.00,-22.00,-24.00,-4.00,+0.00,-12.00,-10.00,-6.00,+7.00
+1.00,-10.00,+3.00,-4.00,-5.00,+9.00,-1.00,-9.00,-16.00,-20.00,-6.00,-16.00,-2.00,+3.00,-4.00,+18.00
+0.00,+49.00,-4.00,+13.00,-3.00,-60.00,-3.00,+17.00,-26.00,+21.00,+3.00,+6.00,+2.00,-1.00,+2.00,+14.00
-1.00,+24.00,+3.00,-5.00,-1.00,+13.00,+2.00,+0.00,-30.00,-27.00,-8.00,-9.00,+2.00,-11.00,-15.00,-40.00
-2.00,-19.00,-6.00,-5.00,-4.00,+4.00,-10.00,+4.00,+38.00,+23.00,+5.00,-5.00,-13.00,+4.00,+14.00,+19.00
+0.00,+35.00,+4.00,+13.00,-9.00,-69.00,-3.00,-6.00,+4.00,+3.00,-1.00,+6.00,+13.00,-2.00,+0.00,-9.00
-3.00,-22.00,-5.00,-4.00,+6.00,+37.00,+2.00,+0.00,+6.00,-2.00,+4.00,-1.00,+8.00,-2.00,+1.00,+1.00
-4.00,-11.00,+6.00,-21.00,-5.00,+3.00,+0.00,+4.00,+9.00,+10.00,+3.00,+1.00,-13.00,+2.00,+0.00,-10.00
-1.00,+14.00,-3.00,+5.00,+5.00,+57.00,+7.00,+16.00,-18.00,-8.00,-2.00,+1.00,-9.00,-4.00,-6.00,-33.00
-3.00,+0.00,-6.00,+6.00,-3.00,-6.00,-2.00,-12.00,+18.00,+2.00,+2.00,-2.00,+22.00,+0.00,-2.00,-11.00
-5.00,-46.00,-6.00,+4.00,+7.00,+10.00,-1.00,-23.00,-14.00,-11.00,-4.00,+4.00,-36.00,-18.00,+3.00,+8.00
+6.00,+29.00,+10.00,-16.00,+1.00,+5.00,-1.00,+15.00,+24.00,+31.00,+8.00,-3.00,+59.00,+31.00,+2.00,+18.00
-2.00,-37.00,+0.00,-12.00,-10.00,-34.00,-8.00,-12.00,+11.00,-1.00,-5.00,+4.00,-73.00,+3.00,+5.00,+3.00
-3.00,+83.00,+6.00,+6.00,+6.00,+4.00,+2.00,+13.00,-1.00,-22.00,+0.00,-4.00,+7.00,+11.00,+11.00,+5.00
-4.00,-24.00,-8.00,+5.00,+1.00,+30.00,+5.00,-18.00,+32.00,+42.00,+1.00,-4.00,+4.00,-5.00,-4.00,+7.00
-2.00,-10.00,-13.00,-9.00,-11.00,-7.00,-9.00,-6.00,-23.00,-23.00,-8.00,-2.00,-33.00,-13.00,-3.00,-22.00
-1.00,+6.00,+6.00,+5.00,-5.00,-33.00,+1.00,+1.00,-25.00,+6.00,+11.00,-2.00,+21.00,+3.00,+1.00,-27.00
+7.00,+22.00,+12.00,+27.00,+20.00,+9.00,+13.00,+12.00,-2.00,-6.00,+3.00,-7.00,-21.00,-3.00,-8.00,-18.00
-7.00,-15.00,-4.00,-36.00,-13.00,-3.00,-5.00,+7.00,+22.00,-3.00,-4.00,+16.00,+13.00,+6.00,+16.00,+43.00
-3.00,+6.00,-9.00,+52.00,+23.00,+16.00,+5.00,-42.00,+44.00,-3.00,-4.00,-3.00,+5.00,-2.00,-3.00,-1.00
-3.00,+29.00,+13.00,-14.00,-2.00,+13.00,+3.00,+8.00,+6.00,+5.00,-6.00,-6.00,+8.00,-6.00,-12.00,-10.00
-2.00,-14.00,-3.00,-11.00,-6.00,-2.00,-5.00,-7.00,-34.00,+2.00,-1.00,+0.00,-10.00,-3.00,-6.00,-22.00
+1.00,+0.00,+8.00,-4.00,+7.00,+22.00,+9.00,+1.00,-20.00,-11.00,+8.00,-4.00,+2.00,-2.00,-3.00,-9.00
-1.00,-9.00,-11.00,-16.00,-14.00,-51.00,-8.00,+21.00,+1.00,+0.00,-11.00,-3.00,+77.00,-2.00,-3.00,+1.00
-1.00,-24.00,-13.00,+10.00,-4.00,-6.00,-4.00,+25.00,+21.00,-1.00,+2.00,+0.00,-85.00,-11.00,+8.00,+29.00
+1.00,-2.00,+6.00,+25.00,+12.00,+24.00,+0.00,-37.00,+14.00,+11.00,+1.00,-6.00,+44.00,+3.00,-1.00,+4.00
+0.00,-17.00,-3.00,-8.00,-1.00,-11.00,-2.00,+7.00,-33.00,-1.00,-5.00,+15.00,+62.00,+7.00,-1.00,-12.00
-4.00,+7.00,+7.00,-4.00,-2.00,+7.00,+3.00,-6.00,-23.00,-5.00,+1.00,-26.00,-107.00,-11.00,-9.00,-34.00
+1.00,-4.00,+0.00,-5.00,+2.00,-6.00,+0.00,+5.00,+25.00,+21.00,+10.00,+28.00,+73.00,+11.00,+17.00,+42.00
-1.00,-9.00,-6.00,-26.00,-9.00,-14.00,-6.00,+9.00,+15.00,+12.00,-4.00,-1.00,+31.00,-5.00,-1.00,+6.00
-5.00,-20.00,-9.00,-4.00,-9.00,-40.00,-7.00,+1.00,+11.00,-6.00,-1.00,-6.00,-24.00,-1.00,-7.00,-2.00
-2.00,-5.00,+2.00,-4.00,-2.00,+36.00,-18.00,+6.00,-17.00,-6.00,-1.00,-10.00,-25.00,-13.00,-4.00,-2.00
-5.00,+13.00,+0.00,-3.00,-4.00,-54.00,+8.00,-17.00,-4.00,-16.00,-7.00,-3.00,+25.00,-9.00,-2.00,-6.00
+0.00,+9.00,-1.00,+10.00,+7.00,+88.00,+6.00,-3.00,-24.00,-5.00,-2.00,-2.00,-24.00,+10.00,-6.00,-8.00
+3.00,+3.00,+4.00,-5.00,+0.00,-2.00,+4.00,+1.00,+50.00,+9.00,+9.00,+1.00,+14.00,+2.00,+2.00,-3.00
-1.00,-37.00,-5.00,-8.00,-3.00,+14.00,-7.00,-9.00,+25.00,+27.00,+1.00,+7.00,-39.00,+5.00,+8.00,+20.00
+7.00,-16.00,-15.00,+20.00,+18.00,+32.00,-6.00,+20.00,-12.00,+6.00,+1.00,-4.00,-20.00,-8.00,-4.00,-9.00
-1.00,+36.00,+23.00,+4.00,-12.00,-20.00,+2.00,-7.00,+8.00,+8.00,+4.00,+8.00,+23.00,+3.00,+1.00,+7.00
+4.00,-26.00,-4.00,+18.00,-2.00,+3.00,-9.00,-17.00,-19.00,-19.00,-13.00,-12.00,-54.00,-13.00,-10.00,-27.00
+4.00,-2.00,-3.00,+2.00,-10.00,-7.00,+3.00,-1.00,+12.00,-2.00,+2.00,+7.00,+25.00,+4.00,+4.00,+14.00
-1.00,-2.00,-4.00,+1.00,-3.00,-5.00,-1.00,-9.00,-9.00,-20.00,-9.00,-15.00,+7.00,-2.00,-9.00,-15.00
+1.00,-44.00,-4.00,-7.00,+0.00,-15.00,+2.00,+15.00,+11.00,+18.00,-2.00,+1.00,-26.00,-2.00,-1.00,+0.00
+3.00,+11.00,-6.00,+10.00,+0.00,+21.00,-1.00,+17.00,-5.00,-7.00,-1.00,-24.00,+10.00,-18.00,-6.00,-23.00
+2.00,-9.00,+5.00,-3.00,-4.00,-44.00,-1.00,-1.00,-25.00,-27.00,-10.00,+35.00,+71.00,+11.00,-16.00,-54.00
+4.00,-15.00,-6.00,+11.00,-9.00,-43.00,-4.00,-17.00,+12.00,+11.00,+0.00,-19.00,-76.00,-1.00,+4.00,+41.00
-7.00,+0.00,-4.00,+2.00,+8.00,+44.00,-3.00,+7.00,-9.00,-7.00,-1.00,+9.00,+18.00,+0.00,-1.00,-6.00
-5.00,+8.00,+3.00,+5.00,+4.00,+10.00,+5.00,+47.00,-9.00,-3.00,-3.00,-1.00,-2.00,-6.00,-3.00,-3.00
-5.00,-12.00,-3.00,+2.00,-8.00,-23.00,+0.00,-25.00,-14.00,-1.00,+2.00,+13.00,+70.00,+14.00,+6.00,+9.00
-1.00,+20.00,+8.00,-3.00,+0.00,+14.00,+4.00,+10.00,-43.00,-17.00,-5.00,-1.00,-20.00,-12.00,-19.00,-28.00
-6.00,-7.00,-6.00,+1.00,-5.00,-13.00,-20.00,-31.00,+4.00,+0.00,-5.00,-16.00,-20.00,-2.00,-13.00,-67.00
+1.00,-1.00,+0.00,+6.00,+8.00,+31.00,+44.00,-8.00,+8.00,-5.00,+0.00,-1.00,-21.00,-4.00,+2.00,+18.00
-4.00,+14.00,+3.00,-10.00,-4.00,+13.00,+0.00,+1.00,-71.00,-15.00,+0.00,-6.00,+12.00,-5.00,-5.00,-9.00
+3.00,+1.00,+2.00,-3.00,+3.00,+1.00,+1.00,-3.00,+78.00,+19.00,+6.00,+1.00,+18.00,+10.00,+4.00,+8.00
+1.00,-41.00,-5.00,-7.00,-8.00,-42.00,-1.00,+12.00,+42.00,-14.00,-1.00,-10.00,-17.00,-9.00,+3.00,+32.00
-5.00,+68.00,+6.00,-5.00,-10.00,-11.00,-6.00,+0.00,-31.00,+36.00,-3.00,+3.00,+31.00,+7.00,+4.00,+5.00
+4.00,-34.00,-4.00,-4.00,+8.00,+78.00,+2.00,+10.00,+26.00,-1.00,-7.00,-9.00,-23.00,-13.00,-9.00,-29.00
+0.00,+56.00,+5.00,+2.00,-6.00,+2.00,+2.00,-6.00,-25.00,-1.00,-2.00,-2.00,+21.00,-3.00,+1.00,+2.00
+2.00,+12.00,-8.00,-12.00,-1.00,-18.00,+1.00,+6.00,+12.00,-13.00,-3.00,+0.00,+0.00,-6.00,-6.00,-12.00
-1.00,-16.00,+2.00,+2.00,+3.00,+33.00,-4.00,-7.00,+30.00,-4.00,+6.00,-2.00,-4.00,+6.00,+11.00,+21.00
+0.00,+14.00,+3.00,-5.00,+4.00,+1.00,+5.00,+10.00,-15.00,+12.00,+1.00,-12.00,-31.00,+7.00,+6.00,+41.00
+3.00,-53.00,-9.00,+5.00,-3.00,+7.00,-8.00,-20.00,-35.00,-22.00,+1.00,+17.00,-29.00,-20.00,+0.00,-5.00
-4.00,+3.00,-3.00,+2.00,-2.00,-31.00,+0.00,-6.00,-11.00,+2.00,-3.00,+14.00,+28.00,-12.00,+2.00,+11.00
+1.00,+13.00,-2.00,+0.00,-1.00,-14.00,-4.00,-2.00,-22.00,-17.00,-5.00,-10.00,-16.00,-16.00,-12.00,-13.00
-2.00,+10.00,+4.00,-12.00,+3.00,-22.00,-9.00,+11.00,+13.00,+10.00,+5.00,+11.00,-27.00,+1.00,-6.00,-4.00
-2.00,-22.00,-1.00,+45.00,+19.00,-8.00,+4.00,-27.00,+13.00,-1.00,-3.00,-3.00,+47.00,+22.00,+35.00,+34.00
-2.00,+4.00,+2.00,-9.00,+3.00,+3.00,+8.00,+1.00,+12.00,+5.00,-3.00,-3.00,-4.00,-1.00,+3.00,+16.00
+2.00,-15.00,-2.00,-9.00,-14.00,-9.00,-23.00,-11.00,+16.00,-1.00,+1.00,+3.00,-9.00,-5.00,-1.00,-5.00
-3.00,+9.00,+0.00,-1.00,-1.00,-6.00,+15.00,+0.00,+7.00,-5.00,+2.00,-2.00,-1.00,-6.00,+1.00,+14.00
+2.00,+10.00,-2.00,-1.00,+8.00,+26.00,+12.00,+27.00,+3.00,-5.00,-4.00,-8.00,+8.00,-8.00,-19.00,-37.00
-10.00,-2.00,-5.00,-3.00,-2.00,+9.00,+1.00,-71.00,-33.00,-6.00,+5.00,-3.00,-23.00,+0.00,-3.00,-11.00
-2.00,-6.00,+0.00,+8.00,+6.00,-14.00,-14.00,-14.00,-18.00,+3.00,-7.00,-1.00,+9.00,+4.00,+3.00,-23.00
+2.00,+22.00,-1.00,-13.00,-7.00,-9.00,-3.00,-2.00,-11.00,-3.00,-4.00,-8.00,-29.00,-3.00,+6.00,+24.00
-3.00,+1.00,+13.00,-11.00,+5.00,+3.00,-1.00,-4.00,-22.00,+13.00,+2.00,-1.00,+3.00,+9.00,-5.00,-24.00
-2.00,-52.00,-13.00,-4.00,-12.00,-4.00,-2.00,+15.00,-40.00,-4.00,-3.00,-12.00,-3.00,-3.00,+5.00,+19.00
+3.00,-77.00,-10.00,+9.00,+0.00,+3.00,-5.00,-11.00,+13.00,-4.00,+5.00,+8.00,+39.00,+8.00,-10.00,-6.00
-8.00,+50.00,+4.00,+5.00,-4.00,+5.00,+7.00,+0.00,-29.00,-6.00,+1.00,-4.00,-62.00,-1.00,+7.00,+7.00
-4.00,-12.00,-1.00,-11.00,-4.00,+0.00,-2.00,-20.00,-31.00,-17.00,-8.00,+0.00,-14.00,-36.00,-18.00,-32.00
+4.00,+9.00,+2.00,+5.00,+5.00,+13.00,+3.00,+22.00,+11.00,+5.00,-3.00,-1.00,-9.00,+3.00,-1.00,+2.00
-5.00,-28.00,-1.00,-12.00,-4.00,-25.00,+1.00,+6.00,+1.00,-11.00,-4.00,+3.00,+20.00,+17.00,-4.00,+3.00
+0.00,-11.00,-4.00,-6.00,-9.00,-36.00,-5.00,+14.00,+27.00,-2.00,-4.00,-8.00,-3.00,-12.00,-10.00,+1.00
+3.00,+13.00,+3.00,+20.00,+13.00,+45.00,+5.00,+18.00,-6.00,-4.00,-2.00,-4.00,+7.00,+5.00,-4.00,+1.00
-2.00,+31.00,+1.00,-21.00,-4.00,+25.00,+8.00,+4.00,+11.00,-4.00,-4.00,-3.00,-4.00,-4.00,-2.00,+3.00
+1.00,+26.00,+0.00,+8.00,+7.00,+35.00,-2.00,-17.00,-2.00,-2.00,+1.00,-4.00,-34.00,+11.00,+4.00,+14.00
+3.00,-4.00,-3.00,-3.00,-5.00,-67.00,-8.00,+10.00,-26.00,-8.00,-6.00,-6.00,+49.00,+0.00,-6.00,-33.00
-5.00,+5.00,-1.00,-10.00,+3.00,+49.00,+0.00,-18.00,+23.00,+0.00,+2.00,-1.00,-7.00,+6.00,+0.00,+18.00
+2.00,-13.00,-5.00,+5.00,-9.00,-21.00,-5.00,+9.00,-34.00,-8.00,-4.00,+10.00,+10.00,+2.00,-2.00,-11.00
+1.00,+12.00,+2.00,-4.00,+1.00,-2.00,+1.00,-5.00,+67.00,+31.00,+8.00,+10.00,+7.00,-3.00,+3.00,+2.00
-1.00,-7.00,+1.00,-1.00,-1.00,-22.00,-3.00,-7.00,-3.00,+17.00,+10.00,-14.00,+6.00,-1.00,+13.00,+27.00
-2.00,-3.00,-1.00,-31.00,-13.00,-1.00,-5.00,+12.00,-35.00,-7.00,-8.00,+17.00,+25.00,+6.00,-5.00,-20.00
-1.00,-2.00,-4.00,-17.00,-2.00,-2.00,-2.00,+20.00,-10.00,-4.00,+2.00,-19.00,-45.00,-8.00,-1.00,+6.00
-2.00,+15.00,-7.00,-16.00,+0.00,-7.00,+9.00,+20.00,-42.00,-29.00,-21.00,-1.00,-41.00,-10.00,-14.00,-38.00
-1.00,-50.00,-9.00,-7.00,-6.00,+18.00,-2.00,+5.00,+47.00,+19.00,+10.00,+18.00,+17.00,+7.00,+12.00,+43.00
-1.00,+40.00,+1.00,+3.00,-4.00,-28.00,-3.00,+14.00,+21.00,+7.00,+2.00,-15.00,+4.00,-6.00,+3.00,+15.00
+2.00,+11.00,+7.00,+0.00,+3.00,+3.00,-1.00,+13.00,+21.00,+10.00,+3.00,+4.00,+7.00,+4.00,+4.00,+14.00
-2.00,+8.00,+4.00,-23.00,-12.00,-43.00,-3.00,+0.00,-1.00,-7.00,+3.00,-5.00,-4.00,-1.00,-5.00,-7.00
-2.00,-15.00,+0.00,-13.00,+6.00,+29.00,-10.00,-10.00,+3.00,-5.00,-5.00,-3.00,-9.00,-1.00,+0.00,+5.00
+0.00,-11.00,-6.00,+9.00,+0.00,-9.00,+10.00,+34.00,+64.00,+26.00,+10.00,+7.00,+10.00,+12.00,+16.00,+49.00
-2.00,-10.00,-2.00,+8.00,+1.00,-12.00,-6.00,-37.00,+22.00,+8.00,-1.00,-1.00,+5.00,+2.00,-3.00,-9.00
-3.00,-1.00,-2.00,-17.00,+0.00,-16.00,-5.00,-14.00,-7.00,+1.00,+1.00,-3.00,+3.00,-13.00,-1.00,-7.00
-3.00,+3.00,+1.00,+10.00,-6.00,+4.00,+10.00,+3.00,-22.00,-17.00,-5.00,+0.00,+5.00,-2.00,-4.00,-17.00
+5.00,-3.00,+1.00,-13.00,-7.00,-16.00,-13.00,+2.00,-24.00,-12.00,-5.00,-3.00,-16.00,-16.00,-3.00,-5.00
-1.00,+2.00,+1.00,+2.00,+0.00,+1.00,-4.00,-6.00,-5.00,-10.00,-3.00,+5.00,+15.00,+12.00,-5.00,-8.00
+3.00,-8.00,+0.00,+3.00,+4.00,+10.00,+4.00,-9.00,-10.00,+7.00,+4.00,-1.00,-4.00,-8.00,-14.00,-34.00
+0.00,+6.00,-5.00,-8.00,-3.00,+1.00,-12.00,-13.00,+33.00,+14.00,+7.00,+4.00,-7.00,-1.00,+6.00,+13.00
-6.00,-10.00,-4.00,-7.00,+1.00,-5.00,-2.00,-25.00,+7.00,-6.00,-4.00,-12.00,+12.00,+5.00,-5.00,-15.00
-2.00,+19.00,+0.00,-2.00,+0.00,-6.00,+3.00,+9.00,-9.00,+6.00,+3.00,+7.00,+61.00,-1.00,+5.00,+18.00
+2.00,-29.00,+0.00,+1.00,+1.00,+10.00,-3.00,-4.00,-42.00,-16.00,-6.00,-3.00,-72.00,+0.00,-4.00,-3.00
+2.00,+42.00,+8.00,-9.00,+3.00,+7.00,+4.00,-7.00,-12.00,-2.00,+0.00,+7.00,+14.00,+1.00,-1.00,-4.00
+1.00,+3.00,+0.00,+4.00,-6.00,-27.00,-6.00,+2.00,+11.00,+6.00,+0.00,-3.00,+5.00,-7.00,-6.00,-7.00
-1.00,+3.00,-2.00,+19.00,+12.00,+44.00,+8.00,+8.00,+24.00,+2.00,-2.00,-4.00,+3.00,+0.00,-3.00,-6.00
-8.00,-3.00,-7.00,-14.00,-1.00,-5.00,-11.00,+3.00,-6.00,+0.00,+2.00,+1.00,+12.00,+4.00,+6.00,+19.00
-1.00,-28.00,-10.00,+6.00,-6.00,-5.00,+1.00,+29.00,-50.00,-13.00,-7.00,-2.00,-1.00,-15.00,-21.00,-9.00
-4.00,-16.00,-7.00,-3.00,-10.00,+3.00,-1.00,+1.00,-8.00,-6.00,-3.00,-5.00,-11.00,+1.00,+18.00,+10.00
-1.00,+2.00,+2.00,-4.00,-8.00,-28.00,-9.00,+6.00,-6.00,+2.00,-2.00,-3.00,-1.00,+21.00,+2.00,+12.00
+4.00,+9.00,+3.00,+3.00,+6.00,+10.00,+3.00,+14.00,-5.00,+3.00,+6.00,-3.00,+16.00,-1.00,+9.00,+66.00
+3.00,-17.00,+0.00,+19.00,+3.00,-7.00,+6.00,+2.00,+56.00,+12.00,+1.00,+0.00,-30.00,-2.00,+0.00,-15.00
+3.00,+3.00,-3.00,-1.00,-6.00,-18.00,-12.00,-26.00,-58.00,-13.00,-6.00,-1.00,+20.00,+3.00,-16.00,-47.00
+1.00,-11.00,-3.00,+13.00,+3.00,-2.00,-1.00,+2.00,+27.00,+6.00,+0.00,-19.00,+14.00,+1.00,+4.00,-7.00
+0.00,+1.00,+2.00,+0.00,-3.00,+4.00,+5.00,+9.00,-9.00,-9.00,-7.00,+22.00,+10.00,-17.00,-6.00,-6.00
+4.00,+0.00,+3.00,+3.00,-1.00,+3.00,-14.00,+4.00,-8.00,-17.00,-3.00,+0.00,+5.00,-2.00,-9.00,-20.00
-1.00,+3.00,-2.00,+15.00,-6.00,-30.00,+20.00,+1.00,+9.00,+9.00,+4.00,+5.00,-8.00,+4.00,-1.00,+4.00
+0.00,-26.00,-6.00,+6.00,+5.00,+35.00,-2.00,-3.00,-18.00,-14.00,-11.00,-6.00,-14.00,-12.00,-10.00,-28.00
+9.00,+7.00,+1.00,-37.00,-9.00,-15.00,-1.00,+43.00,+3.00,-3.00,-1.00,-11.00,-3.00,-2.00,+4.00,+6.00
-3.00,-12.00,+1.00,+34.00,+17.00,+39.00,-3.00,-55.00,-6.00,-4.00,-4.00,+0.00,+46.00,+1.00,-5.00,-8.00
+1.00,-2.00,-2.00,-8.00,+0.00,+0.00,-7.00,+1.00,+2.00,-4.00,-3.00,-10.00,-77.00,-1.00,-9.00,-15.00
+0.00,+2.00,+1.00,-3.00,-7.00,-31.00,-3.00,+5.00,-10.00,+3.00,-1.00,+13.00,+20.00,+12.00,+13.00,+6.00
-1.00,+9.00,-3.00,+9.00,-17.00,-41.00,-4.00,+10.00,+7.00,-8.00,-1.00,+0.00,-30.00,+10.00,+1.00,-12.00
-7.00,+4.00,-5.00,-11.00,+8.00,+62.00,+8.00,+5.00,+34.00,+11.00,+2.00,+5.00,-6.00,+4.00,+16.00,+43.00
+2.00,+0.00,+2.00,-1.00,-3.00,+6.00,+9.00,+12.00,-19.00,+1.00,-2.00,-2.00,+19.00,+10.00,+0.00,+11.00
+6.00,-17.00,+2.00,+24.00,+6.00,+8.00,+11.00,+27.00,-8.00,-8.00,-2.00,-3.00,-14.00,-5.00,-6.00,-13.00
+6.00,-14.00,+1.00,+27.00,-4.00,-8.00,-8.00,-33.00,+2.00,+1.00,+0.00,+1.00,+4.00,-3.00,-4.00,-17.00
+0.00,+7.00,-2.00,+7.00,-5.00,-29.00,-14.00,-2.00,-18.00,-4.00,-5.00,-11.00,-28.00,-1.00,+0.00,-22.00
+2.00,-5.00,-2.00,+10.00,+5.00,+7.00,+2.00,-9.00,-22.00,+3.00,+2.00,-3.00,+58.00,+4.00,-11.00,-7.00
-4.00,+11.00,+0.00,+9.00,-8.00,-9.00,-10.00,+32.00,+57.00,+15.00,+5.00,+7.00,-49.00,-6.00,+6.00,+21.00
-2.00,+12.00,+1.00,+5.00,+2.00,+8.00,+7.00,+39.00,-25.00,-4.00,-3.00,-10.00,+0.00,+1.00,-6.00,-27.00
+8.00,+9.00,+2.00,+20.00,-1.00,-13.00,+8.00,-7.00,-47.00,-16.00,-2.00,+6.00,-26.00,-17.00,-6.00,+1.00
-5.00,-9.00,+0.00,+57.00,+3.00,+11.00,-12.00,-1.00,-66.00,-11.00,-8.00,-3.00,+20.00,+0.00,-5.00,-19.00
-2.00,-4.00,+0.00,+26.00,-10.00,-27.00,-18.00,-28.00,-68.00,+11.00,+4.00,+1.00,-20.00,-29.00,+0.00,+19.00
-7.00,+6.00,-3.00,+25.00,+1.00,+19.00,+36.00,-12.00,-14.00,+13.00,+2.00,+0.00,+2.00,+30.00,+9.00,+5.00
+2.00,+1.00,+2.00,-7.00,+13.00,+35.00,-7.00,-5.00,-25.00,-4.00,-4.00,-9.00,-4.00,-7.00,+1.00,-8.00
-1.00,-33.00,-7.00,+16.00,+3.00,-2.00,-1.00,+25.00,-17.00,-15.00,-3.00,-1.00,+11.00,-3.00,-9.00,-21.00
+0.00,+19.00,-1.00,-10.00,-7.00,-2.00,+4.00,+12.00,+10.00,-10.00,-5.00,-4.00,-24.00,-3.00,-11.00,-36.00
-4.00,-4.00,+3.00,+8.00,+9.00,+14.00,-6.00,-40.00,+93.00,+12.00,+0.00,+4.00,+10.00,-1.00,-9.00,-30.00
-3.00,+16.00,-2.00,-35.00,-13.00,-30.00,+2.00,+4.00,+44.00,-14.00,-3.00,+2.00,+13.00,+2.00,+11.00,-50.00
+2.00,-9.00,-3.00,-31.00,-3.00,-57.00,-7.00,-11.00,+85.00,+3.00,-2.00,+5.00,-4.00,-1.00,+2.00,-24.00
-5.00,-10.00,-1.00,-27.00,+8.00,+37.00,+5.00,+4.00,+44.00,-6.00,-4.00,-8.00,+1.00,-2.00,-5.00,+1.00
-1.00,+0.00,-1.00,-27.00,-2.00,-6.00,-7.00,-3.00,+10.00,-6.00,-1.00,-2.00,+11.00,-5.00,-1.00,+29.00
-3.00,-14.00,-7.00,+15.00,-3.00,+5.00,-15.00,-21.00,+11.00,+0.00,+2.00,-6.00,+6.00,+20.00,-3.00,+11.00
-5.00,+7.00,+1.00,-19.00,-1.00,-4.00,+9.00,-11.00,+43.00,+9.00,+3.00,-1.00,-31.00,-14.00,+2.00,+37.00
+1.00,-6.00,-3.00,+3.00,-1.00,-24.00,-13.00,-19.00,-32.00,-13.00,-6.00,+2.00,-14.00,-10.00,-3.00,-1.00
-2.00,+11.00,+3.00,-1.00,+7.00,+6.00,+4.00,-3.00,+1.00,+4.00,+0.00,-3.00,-21.00,+11.00,+14.00,+58.00
-6.00,-9.00,-1.00,-20.00,-3.00,-17.00,-9.00,-2.00,-37.00,-1.00,+2.00,+0.00,+26.00,+3.00,-5.00,+11.00
-1.00,+21.00,+0.00,-5.00,-2.00,+12.00,+7.00,-1.00,-24.00,+5.00,+1.00,+1.00,+1.00,+11.00,+0.00,-6.00
+1.00,-5.00,-1.00,+47.00,-8.00,-30.00,+3.00,-16.00,+16.00,+0.00,+4.00,+4.00,+13.00,+9.00,+3.00,+29.00
-5.00,-3.00,-4.00,+22.00,+9.00,+55.00,-1.00,-2.00,-4.00,-4.00,-1.00,+1.00,+14.00,-28.00,-12.00,-1.00
+2.00,+1.00,-1.00,+0.00,+1.00,-57.00,+3.00,+1.00,-12.00,-1.00,-4.00,-9.00,-13.00,+2.00,+23.00,-9.00
-3.00,+23.00,+0.00,-31.00,+7.00,+75.00,-2.00,-6.00,+42.00,+15.00,+8.00,+2.00,+3.00,+17.00,+23.00,+52.00
-1.00,-25.00,-1.00,-42.00,-2.00,+3.00,-9.00,-2.00,-18.00,+0.00,-4.00,-1.00,+10.00,-7.00,-17.00,-4.00
-1.00,+2.00,+1.00,+2.00,+2.00,-27.00,+1.00,-17.00,-13.00,-3.00,+0.00,-1.00,-10.00,-6.00,-3.00,+6.00
-4.00,-4.00,-2.00,-19.00,+0.00,-12.00,-11.00,-5.00,+34.00,+6.00,-2.00,-4.00,-9.00,-7.00,-10.00,-3.00
+3.00,-4.00,+1.00,-8.00,-4.00,-2.00,+31.00,+1.00,+1.00,-15.00,-7.00,-1.00,+21.00,+2.00,-2.00,-9.00
+3.00,+6.00,-1.00,-39.00,-9.00,-16.00,-10.00,+25.00,-14.00,+4.00,+3.00,+8.00,-3.00,+0.00,+3.00,+1.00
+10.00,-5.00,+3.00,+2.00,+6.00,+9.00,-14.00,-14.00,-1.00,-11.00,-4.00,-8.00,+1.00,+2.00,-2.00,-7.00
-3.00,+1.00,+5.00,-1.00,+4.00,+20.00,+24.00,-6.00,-50.00,+1.00,-5.00,-11.00,+24.00,-1.00,-14.00,-22.00
-5.00,-18.00,-2.00,-5.00,-3.00,-20.00,-22.00,-13.00,-9.00,+7.00,+2.00,+4.00,-58.00,-7.00,+3.00,+6.00
-1.00,+8.00,-5.00,-12.00,-1.00,+31.00,+9.00,+1.00,+33.00,+23.00,+6.00,+0.00,+22.00,+20.00,+10.00,+12.00
+0.00,-1.00,-5.00,-11.00,-9.00,-23.00,-4.00,+1.00,-15.00,+4.00,-1.00,-1.00,-3.00,-2.00,-4.00,-8.00
+2.00,-1.00,+0.00,-10.00,-16.00,-16.00,+3.00,+10.00,-20.00,-24.00,-10.00,-2.00,+3.00,+11.00,-21.00,-40.00
+3.00,+10.00,+4.00,+15.00,+13.00,+11.00,-7.00,+12.00,-31.00,-9.00,-4.00,-9.00,+19.00,-10.00,-10.00,-10.00
-4.00,+16.00,-4.00,-12.00,+0.00,-19.00,-14.00,-9.00,+11.00,+4.00,+3.00,+3.00,-3.00,-3.00,+2.00,+8.00
-2.00,-1.00,-2.00,+1.00,+3.00,+14.00,+15.00,+2.00,-2.00,+0.00,-4.00,-5.00,+13.00,-15.00,+4.00,-6.00
-2.00,+1.00,+5.00,+12.00,+8.00,+17.00,-1.00,+1.00,-28.00,-5.00,+3.00,+11.00,-19.00,+23.00,-2.00,-3.00
-1.00,-9.00,-1.00,-12.00,-10.00,-14.00,-7.00,+6.00,+2.00,-2.00,-5.00,-6.00,-6.00,-6.00,-6.00,-19.00
+0.00,+23.00,+1.00,-8.00,+2.00,+6.00,+9.00,-4.00,+14.00,+6.00,+1.00,-5.00,-7.00,-6.00,-9.00,-9.00
-1.00,-11.00,-4.00,+0.00,-6.00,-3.00,-13.00,-23.00,-2.00,-5.00,+1.00,+12.00,+46.00,+19.00,+32.00,-1.00
+1.00,-8.00,-4.00,-9.00,-4.00,+0.00,-8.00,+19.00,+27.00,+13.00,+10.00,-1.00,-4.00,-19.00,-6.00,+51.00
+0.00,-3.00,-3.00,-13.00,-1.00,-12.00,-2.00,+6.00,-6.00,+8.00,+7.00,+9.00,-11.00,+16.00,+17.00,+42.00
+1.00,-9.00,+0.00,+0.00,+1.00,+4.00,-15.00,-3.00,-5.00,+14.00,+8.00,-2.00,+5.00,+6.00,+10.00,+0.00
-3.00,+8.00,+0.00,-7.00,-8.00,-9.00,-2.00,-2.00,+9.00,+11.00,+0.00,-5.00,-4.00,-2.00,+5.00,+7.00
-2.00,+3.00,-1.00,+4.00,+2.00,+1.00,+10.00,-8.00,-7.00,-11.00,-9.00,-8.00,+31.00,-14.00,-6.00,-30.00
-1.00,+2.00,-1.00,-5.00,-5.00,-1.00,-37.00,-11.00,-12.00,-11.00,-3.00,+0.00,-60.00,+9.00,-11.00,-34.00
+1.00,-11.00,+0.00,+6.00,+3.00,-13.00,+32.00,-14.00,+19.00,+18.00,+5.00,-5.00,+19.00,-5.00,+21.00,+73.00
+0.00,+2.00,+0.00,-5.00,+8.00,+40.00,-3.00,+10.00,+12.00,+10.00,+5.00,-3.00,-16.00,+0.00,-6.00,-16.00
+0.00,-21.00,-6.00,-20.00,-5.00,+3.00,+5.00,+39.00,+13.00,+17.00,+4.00,+7.00,-10.00,+5.00,-1.00,+15.00
+1.00,-3.00,-2.00,-26.00,-5.00,+1.00,-2.00,+64.00,-4.00,-1.00,-3.00,-5.00,+18.00,-12.00,-8.00,-13.00
-3.00,-2.00,+2.00,+7.00,+0.00,-11.00,-2.00,-6.00,-54.00,-36.00,-15.00,-4.00,+2.00,+5.00,-14.00,-44.00
-3.00,-4.00,+0.00,+3.00,-3.00,-12.00,+5.00,-3.00,-31.00,-16.00,-6.00,-3.00,-20.00,-8.00,-13.00,-12.00
+1.00,+12.00,-1.00,+0.00,-2.00,-14.00,-5.00,+3.00,+64.00,+25.00,+8.00,+1.00,-4.00,-2.00,+20.00,+78.00
-1.00,+12.00,+2.00,-43.00,+0.00,+31.00,+4.00,+46.00,+2.00,+14.00,+6.00,+2.00,+27.00,-3.00,+7.00,+21.00
+0.00,-19.00,-1.00,+30.00,+6.00,+0.00,+1.00,-49.00,+27.00,-2.00,-2.00,+4.00,-16.00,-1.00,-8.00,-9.00
-1.00,+1.00,-2.00,+0.00,-8.00,-14.00,-27.00,-13.00,-27.00,-10.00,-3.00,-1.00,+3.00,-5.00,-6.00,-6.00
+4.00,+2.00,-1.00,+8.00,+7.00,-9.00,+31.00,+7.00,+15.00,-3.00,+0.00,+3.00,-10.00,-6.00,+2.00,-7.00
-12.00,-4.00,-9.00,-8.00,-11.00,-17.00,-3.00,-38.00,-10.00,-5.00,-3.00,-4.00,+6.00,-9.00,-6.00,+1.00
+3.00,-5.00,+1.00,-3.00,+2.00,+10.00,-16.00,+0.00,-19.00,-10.00,-1.00,-10.00,-6.00,-6.00,-1.00,-1.00
-4.00,-3.00,-2.00,-6.00,-8.00,-7.00,-10.00,+7.00,+4.00,-10.00,-7.00,+7.00,+8.00,+3.00,-12.00,-33.00
-4.00,+3.00,+0.00,-6.00,+0.00,+19.00,+16.00,+11.00,+12.00,+16.00,+9.00,-1.00,-45.00,+5.00,+1.00,+11.00
+2.00,-15.00,+7.00,+64.00,+13.00,-1.00,+5.00,-61.00,+1.00,-3.00,-4.00,-3.00,-1.00,+6.00,+10.00,-2.00
-4.00,+14.00,-1.00,-28.00,+5.00,+16.00,+9.00,+37.00,-14.00,-21.00,-11.00,-5.00,+1.00,+0.00,-17.00,-71.00
+2.00,-10.00,-3.00,+8.00,+0.00,-15.00,-8.00,-27.00,-23.00,-9.00,-1.00,-3.00,+3.00,-4.00,-2.00,-11.00
+1.00,+6.00,+3.00,-1.00,+2.00,+5.00,-3.00,+0.00,-11.00,-17.00,-9.00,+9.00,+11.00,-15.00,-7.00,+1.00
+2.00,+5.00,+0.00,-14.00,-20.00,-44.00,-2.00,+14.00,+56.00,+23.00,+10.00,+5.00,+7.00,+1.00,+21.00,+67.00
-1.00,-3.00,-7.00,-41.00,-1.00,-15.00,+1.00,+62.00,-12.00,-8.00,-7.00,-4.00,-10.00,+1.00,-12.00,-14.00
+2.00,+1.00,-1.00,-43.00,+6.00,+65.00,-11.00,+43.00,+6.00,+11.00,+5.00,-4.00,+2.00,+3.00,-2.00,-13.00
+3.00,+12.00,+6.00,+28.00,+8.00,+5.00,+24.00,-2.00,-43.00,-26.00,-14.00,-2.00,+5.00,-17.00,-2.00,-46.00
+1.00,+7.00,-2.00,+4.00,+1.00,+12.00,-1.00,-22.00,+0.00,-20.00,-8.00,-4.00,+7.00,-3.00,-21.00,-41.00
+0.00,-13.00,-1.00,+0.00,-9.00,-24.00,-4.00,-13.00,+1.00,-4.00,+1.00,+7.00,+6.00,+4.00,+4.00,+50.00
-7.00,+10.00,+1.00,-11.00,-5.00,-21.00,+2.00,+18.00,-18.00,-27.00,-8.00,+12.00,-30.00,-25.00,-5.00,-14.00
+1.00,-16.00,-7.00,+0.00,-3.00,+3.00,-18.00,-2.00,+46.00,+27.00,+8.00,-10.00,+5.00,+19.00,+13.00,+105.00
+0.00,-8.00,-3.00,+8.00,-3.00,-1.00,-1.00,+2.00,+14.00,+11.00,+5.00,+0.00,+9.00,+2.00,+1.00,-40.00
-1.00,+5.00,+0.00,+12.00,+2.00,+9.00,+7.00,-16.00,-17.00,-7.00,-5.00,-6.00,-6.00,-26.00,-7.00,-38.00
-3.00,+2.00,-4.00,-7.00,-3.00,-11.00,-3.00,+8.00,+8.00,+2.00,+5.00,+1.00,+3.00,+34.00,+5.00,+34.00
-6.00,-7.00,+4.00,+14.00,+1.00,+7.00,-14.00,-39.00,+6.00,+19.00,+8.00,-1.00,-8.00,+3.00,+9.00,+22.00
+0.00,-2.00,-6.00,+9.00,+2.00,-4.00,+1.00,-10.00,-32.00,-23.00,-8.00,-7.00,+5.00,-6.00,-9.00,-24.00
-8.00,+20.00,+1.00,-3.00,-2.00,+12.00,+1.00,-3.00,+3.00,+6.00,+6.00,+8.00,+2.00,+15.00,+4.00,+7.00
-6.00,+12.00,+5.00,-5.00,-2.00,-4.00,+11.00,+0.00,+73.00,+28.00,+6.00,-7.00,-5.00,-16.00,+13.00,+12.00
+4.00,-1.00,-6.00,-31.00,-20.00,-52.00,-44.00,+44.00,-41.00,-42.00,-21.00,-5.00,+1.00,-30.00,-28.00,-95.00
+0.00,-15.00,-3.00,+1.00,+7.00,+33.00,-3.00,-5.00,+15.00,+13.00,+7.00,+3.00,-1.00,+19.00,+15.00,+77.00
-3.00,+3.00,+5.00,+14.00,+3.00,+11.00,+13.00,+18.00,+16.00,-7.00,-6.00,-1.00,-2.00,-13.00,-1.00,-3.00
-5.00,-8.00,+1.00,+12.00,+5.00,-3.00,+14.00,-10.00,-7.00,+10.00,+1.00,-3.00,+11.00,+2.00,+2.00,+15.00
-2.00,+2.00,+5.00,-21.00,+5.00,+5.00,+3.00,-4.00,-24.00,-1.00,-4.00,-9.00,-15.00,+5.00,-14.00,-51.00
-5.00,-26.00,+5.00,+61.00,+16.00,+0.00,-6.00,-79.00,-11.00,-11.00,-8.00,-5.00,-2.00,-6.00,-6.00,+9.00
-2.00,-10.00,-3.00,+15.00,-4.00,-2.00,-10.00,-32.00,-25.00,-12.00,-5.00,-1.00,-5.00,+1.00,+2.00,+20.00
-2.00,+0.00,-2.00,-1.00,-3.00,-9.00,+11.00,-16.00,+17.00,+13.00,+3.00,+1.00,+2.00,-1.00,-3.00,+13.00
-5.00,-14.00,-3.00,+1.00,-5.00,-4.00,-45.00,-18.00,+9.00,+8.00,+5.00,+8.00,+4.00,+10.00,+5.00,-3.00
+5.00,+12.00,-2.00,-35.00,-4.00,-11.00,+53.00,+23.00,-50.00,-29.00,-7.00,+0.00,-6.00,-32.00,-33.00,-79.00
-9.00,-6.00,-2.00,-13.00,+1.00,+11.00,+0.00,-28.00,-6.00,+6.00,+2.00,+1.00,+4.00,+35.00,+34.00,-2.00
+1.00,+3.00,+6.00,+27.00,+6.00,-7.00,+2.00,-21.00,-5.00,-1.00,+0.00,-8.00,-1.00,-14.00,-5.00,-1.00
-5.00,-14.00,-1.00,+65.00,+7.00,+14.00,+15.00,-66.00,-6.00,-1.00,-2.00,-2.00,-4.00,-29.00,-15.00,-30.00
+3.00,-10.00,-6.00,-4.00,-8.00,-13.00,-24.00,+13.00,+45.00,+9.00,+4.00,+14.00,+1.00,+24.00,+13.00,-9.00
-1.00,-4.00,-4.00,-7.00,-5.00,-7.00,-12.00,+6.00,-20.00,-4.00,-5.00,-7.00,+28.00,+4.00,-24.00,-15.00
+4.00,+11.00,+0.00,-18.00,-4.00,-5.00,-7.00,+3.00,-29.00,-21.00,-12.00,-16.00,-36.00,+10.00,-6.00,-33.00
-3.00,+9.00,-2.00,-21.00,-3.00,-1.00,-1.00,+9.00,-6.00,+1.00,+6.00,+14.00,+11.00,+11.00,+12.00,+4.00
-8.00,+3.00,+0.00,+0.00,-2.00,+1.00,-1.00,-1.00,-16.00,-7.00,-5.00,-3.00,-7.00,-20.00,+0.00,-7.00
+2.00,-3.00,-6.00,+7.00,-4.00,-4.00,+12.00,+12.00,+7.00,+22.00,+9.00,-2.00,-16.00,-23.00,-5.00,+33.00
-1.00,-10.00,-5.00,-4.00,-5.00,-6.00,-28.00,+5.00,-32.00,+0.00,-2.00,-2.00,+10.00,+3.00,+15.00,-19.00
+4.00,+11.00,-1.00,-9.00,-1.00,+6.00,+51.00,+23.00,-29.00,-5.00,-2.00,-6.00,-2.00,-5.00,+0.00,+0.00
+2.00,-11.00,+5.00,+26.00,+13.00,+8.00,-14.00,-68.00,-19.00,-4.00,-3.00,+0.00,-2.00,+2.00,-11.00,-7.00
-1.00,+15.00,+5.00,-10.00,+2.00,+2.00,-11.00,-25.00,+5.00,-4.00,-1.00,+5.00,+4.00,+1.00,+2.00,-17.00
-3.00,+0.00,-2.00,-17.00,-2.00,-2.00,+9.00,-6.00,-3.00,-13.00,-3.00,+1.00,+10.00,-3.00,-12.00,-17.00
+3.00,-1.00,-15.00,-46.00,-13.00,-11.00,-8.00,+22.00,+62.00,+39.00,+12.00,-9.00,-23.00,-2.00,+11.00,+43.00
-4.00,+0.00,-6.00,+14.00,+0.00,-3.00,-2.00,-12.00,+12.00,+12.00,+2.00,+0.00,+7.00,-7.00,+20.00,-23.00
+1.00,+2.00,-2.00,+14.00,+5.00,-2.00,-6.00,-56.00,-21.00,-9.00,-4.00,-5.00,-6.00,-21.00,-9.00,-24.00
+1.00,-31.00,-3.00,+20.00,+3.00,+0.00,-1.00,-18.00,+4.00,+14.00,+4.00,+3.00,+4.00,+10.00,+5.00,+18.00
-2.00,+8.00,+1.00,+2.00,-1.00,+4.00,+3.00,-8.00,-13.00,-32.00,-4.00,+6.00,+6.00,+1.00,-9.00,+5.00
+0.00,+17.00,+3.00,-28.00,-6.00,+3.00,-9.00,+64.00,-2.00,+33.00,+10.00,-4.00,+1.00,-1.00,+3.00,+19.00
+4.00,-15.00,+0.00,+23.00,+1.00,-3.00,+3.00,+28.00,+12.00,+15.00,+9.00,+0.00,-7.00,-8.00,-2.00,-9.00
+0.00,+1.00,-3.00,-1.00,-5.00,+0.00,-4.00,-14.00,-28.00,+0.00,+3.00,+0.00,-4.00,-11.00,-6.00,+13.00
-12.00,+9.00,-1.00,-17.00,-6.00,-10.00,-23.00,-1.00,-39.00,-22.00,-11.00,-6.00,+5.00,+11.00,-8.00,-60.00
-4.00,+2.00,+1.00,-12.00,+5.00,+25.00,+39.00,+26.00,-10.00,-16.00,-6.00,+0.00,+1.00,+9.00,-3.00,+13.00
-3.00,-8.00,+2.00,-4.00,+2.00,+2.00,+3.00,+21.00,+8.00,-7.00,-7.00,-1.00,-7.00,-45.00,+5.00,+8.00
-3.00,-2.00,-6.00,-4.00,-14.00,-41.00,-17.00,+6.00,-8.00,-4.00,-1.00,+0.00,-2.00,-2.00,-12.00,-1.00
-1.00,-14.00,+5.00,+20.00,+22.00,+41.00,+6.00,-2.00,+2.00,-8.00,-4.00,+0.00,+2.00,+21.00,+3.00,-12.00
-3.00,+7.00,-3.00,+2.00,-6.00,-13.00,-20.00,-7.00,+10.00,+3.00,+4.00,+7.00,+5.00,+7.00,-4.00,+2.00
-3.00,-8.00,-6.00,-20.00,-2.00,-1.00,-2.00,+37.00,-4.00,+2.00,-7.00,-9.00,-10.00,-11.00,-8.00,-19.00
+3.00,+7.00,+0.00,-1.00,+2.00,+4.00,+18.00,+8.00,+35.00,+21.00,+9.00,+3.00,+2.00,-1.00,+17.00,+51.00
-5.00,+1.00,-1.00,-1.00,-5.00,-12.00,-6.00,-4.00,+10.00,+8.00,-1.00,-1.00,-3.00,-10.00,-5.00,-5.00
-2.00,+8.00,+3.00,-18.00,+0.00,-1.00,-2.00,+36.00,+1.00,-4.00,-1.00,-1.00,-1.00,-1.00,+0.00,+6.00
+5.00,-2.00,+3.00,+6.00,+1.00,+3.00,-2.00,-23.00,-9.00,-9.00,-2.00,+3.00,+2.00,+0.00,-13.00,-10.00
-3.00,+7.00,+3.00,+0.00,-1.00,-4.00,-3.00,-7.00,-20.00,-10.00,-6.00,-6.00,-3.00,-1.00,-6.00,-21.00
-3.00,+8.00,-18.00,-42.00,-23.00,-10.00,-8.00,+60.00,+25.00,+16.00,+8.00,+9.00,+7.00,-4.00,+10.00,+27.00
-3.00,-17.00,-3.00,+13.00,+4.00,+11.00,+17.00,-8.00,+13.00,+4.00,+0.00,-5.00,-2.00,+14.00,+1.00,+17.00
-3.00,+0.00,+1.00,-8.00,-2.00,+0.00,+1.00,+10.00,+17.00,-1.00,+0.00,+1.00,+1.00,+25.00,+19.00,+8.00
+1.00,+3.00,+1.00,+8.00,+10.00,+10.00,+5.00,-16.00,-28.00,-13.00,-3.00,+1.00,-1.00,-10.00,-14.00,-12.00
+3.00,+9.00,-1.00,-31.00,+2.00,+1.00,+3.00,+28.00,+5.00,-6.00,-2.00,+3.00,+0.00,-9.00,+2.00,-4.00
+1.00,+7.00,-4.00,+12.00,-5.00,-13.00,-16.00,-52.00,+15.00,-9.00,-11.00,-6.00,-2.00,-12.00,-10.00,-24.00
+2.00,-5.00,+4.00,-1.00,+5.00,+1.00,-14.00,+24.00,-21.00,-11.00,-3.00,-2.00,-1.00,+3.00,-5.00,-38.00
+2.00,+1.00,+1.00,-2.00,+2.00,+8.00,+25.00,+4.00,+53.00,+9.00,+2.00,+3.00,-5.00,+5.00,+3.00,+24.00
+2.00,+8.00,+3.00,-13.00,-6.00,+4.00,-9.00,+22.00,-11.00,-13.00,-6.00,-1.00,+8.00,+5.00,-22.00,-28.00
-2.00,-7.00,-1.00,+12.00,-4.00,-7.00,-11.00,-27.00,-13.00,-10.00,+2.00,+4.00,-17.00,-24.00,+0.00,+37.00
+1.00,+1.00,-5.00,-1.00,-5.00,-1.00,-21.00,-7.00,+7.00,+0.00,-5.00,-7.00,-6.00,-57.00,-8.00,+32.00
+0.00,+12.00,+6.00,+16.00,+12.00,+8.00,+34.00,+4.00,+4.00,+0.00,+0.00,-1.00,+0.00,+49.00,-2.00,-37.00
-5.00,+0.00,+2.00,+13.00,+3.00,-1.00,+5.00,-62.00,-20.00,+7.00,+4.00,+6.00,+13.00,+2.00,-2.00,-2.00
+0.00,-15.00,-3.00,-8.00,-2.00,-1.00,-2.00,+37.00,-13.00,-8.00,-3.00,-3.00,+3.00,+15.00,-11.00,-17.00
-2.00,+6.00,-7.00,-2.00,-14.00,-5.00,+5.00,-24.00,+12.00,-5.00,-2.00,-4.00,-24.00,-8.00,+3.00,+11.00
+1.00,+1.00,-4.00,-11.00,-5.00,-3.00,-13.00,+3.00,+3.00,-4.00,-5.00,-1.00,+5.00,-25.00,-1.00,+13.00
+0.00,-8.00,+2.00,+19.00,+3.00,-1.00,+5.00,-35.00,-39.00,-14.00,-3.00,+9.00,-14.00,+9.00,+2.00,-11.00
-2.00,+6.00,-1.00,-19.00,+0.00,+2.00,+3.00,+19.00,-3.00,-18.00,-10.00,+1.00,+19.00,-22.00,+6.00,+2.00
+2.00,+7.00,-1.00,-13.00,+1.00,-1.00,+6.00,+1.00,+23.00,+18.00,+8.00,+3.00,-3.00,+22.00,+8.00,+47.00
-5.00,-7.00,-10.00,-48.00,-13.00,-5.00,-9.00,+77.00,-24.00,-10.00,-6.00,-7.00,+9.00,-7.00,-7.00,-24.00
+4.00,-27.00,+0.00,+36.00,+4.00,+3.00,+1.00,-45.00,+19.00,+5.00,+0.00,-5.00,+5.00,+21.00,+2.00,+16.00
+1.00,-12.00,-7.00,+9.00,-6.00,-9.00,-17.00,-20.00,+24.00,+9.00,+1.00,-2.00,-2.00,+6.00,-5.00,-30.00
-3.00,+4.00,+0.00,-11.00,+2.00,+0.00,+7.00,-18.00,-13.00,-8.00,-2.00,+0.00,+16.00,+22.00,-3.00,-10.00
-1.00,-3.00,-5.00,+4.00,-1.00,+2.00,+11.00,+1.00,-12.00,-3.00,-2.00,-1.00,-9.00,+1.00,+1.00,+8.00
-1.00,+4.00,+2.00,+14.00,+4.00,+2.00,+3.00,-13.00,+3.00,-3.00,-3.00,-7.00,-9.00,-23.00,+0.00,+9.00
-4.00,-24.00,+0.00,-16.00,-6.00,-4.00,-15.00,-2.00,+14.00,+6.00,+1.00,-8.00,-7.00,+0.00,-6.00,+9.00
-1.00,+10.00,+4.00,+2.00,+5.00,+5.00,+14.00,-3.00,-26.00,-11.00,-2.00,+3.00,-3.00,+33.00,+11.00,-38.00
+1.00,-12.00,+3.00,+20.00,+9.00,+6.00,-4.00,-38.00,+40.00,+16.00,+5.00,+2.00,+1.00,-3.00,+15.00,+36.00
-1.00,-3.00,+1.00,-4.00,-1.00,-3.00,-2.00,+6.00,-4.00,+2.00,-1.00,-2.00,+25.00,-8.00,+0.00,-3.00
-1.00,+8.00,+1.00,+12.00,+5.00,-10.00,-4.00,-20.00,-1.00,-2.00,-2.00,-2.00,-5.00,+4.00,-6.00,-14.00
-2.00,-7.00,-1.00,+3.00,-4.00,-1.00,-21.00,+48.00,-8.00,-5.00,-4.00,-9.00,-40.00,+4.00,-10.00,-16.00
+2.00,+11.00,+8.00,+12.00,+11.00,+8.00,+24.00,+2.00,-23.00,-8.00,-3.00,+4.00,-11.00,-5.00,-2.00,-1.00
+0.00,+5.00,+3.00,+2.00,+7.00,+6.00,+4.00,+7.00,-9.00,-16.00,-8.00,+1.00,-6.00,+1.00,-2.00,-13.00
+0.00,+10.00,+2.00,-18.00,-11.00,-9.00,+1.00,+21.00,+25.00,+24.00,+11.00,+4.00,+13.00,+4.00,+21.00,+70.00
-2.00,-15.00,-5.00,+7.00,+9.00,-5.00,-1.00,-10.00,-11.00,-8.00,-1.00,+4.00,+20.00,+0.00,-12.00,-6.00
-1.00,-16.00,-6.00,-15.00,-13.00,-8.00,-24.00,-24.00,+11.00,+11.00,+1.00,+1.00,-1.00,+0.00,+6.00,+8.00
+6.00,+16.00,+3.00,+14.00,+4.00,+22.00,+4.00,+18.00,+17.00,+11.00,+4.00,-2.00,-2.00,+4.00,+6.00,+24.00
-1.00,+0.00,+1.00,+4.00,-1.00,+9.00,+7.00,-2.00,-36.00,-13.00,-4.00,-2.00,+0.00,-11.00,-10.00,-35.00
-2.00,-11.00,+5.00,+21.00,+4.00,-18.00,-35.00,-57.00,+12.00,+3.00,+1.00,+5.00,+4.00,+5.00,+3.00,+6.00
-4.00,+0.00,-2.00,+0.00,+0.00,+2.00,+8.00,+0.00,+0.00,-9.00,+1.00,-9.00,-3.00,-2.00,-6.00,-9.00
+1.00,-6.00,+2.00,+3.00,+2.00,-10.00,-1.00,-6.00,+5.00,-11.00,-4.00,-2.00,-13.00,-19.00,-6.00,-12.00
+2.00,+7.00,+2.00,-6.00,+1.00,+1.00,+2.00,-25.00,-6.00,-1.00,-11.00,-18.00,+18.00,-9.00,-12.00,-6.00
-1.00,-3.00,-1.00,-9.00,-4.00,+2.00,+5.00,+5.00,-18.00,+1.00,-4.00,+15.00,+17.00,+15.00,+27.00,-4.00
-1.00,-5.00,-3.00,-7.00,-5.00,-9.00,-17.00,-5.00,-1.00,-11.00,-6.00,+3.00,-2.00,+4.00,-10.00,-5.00
-2.00,-8.00,-3.00,-4.00,-5.00,-7.00,+1.00,+4.00,+2.00,+9.00,+3.00,+4.00,+8.00,-4.00,+5.00,+3.00
+0.00,+1.00,-11.00,-23.00,-11.00,-3.00,-2.00,+34.00,-4.00,-7.00,+0.00,-4.00,-32.00,-12.00,-7.00,-10.00
+1.00,+2.00,-1.00,-2.00,-2.00,-6.00,+7.00,-5.00,+22.00,+0.00,+0.00,-11.00,+16.00,-5.00,-8.00,-9.00
+1.00,-5.00,+2.00,+6.00,+5.00,+7.00,-6.00,-23.00,+1.00,+0.00,+0.00,+4.00,+18.00,+1.00,+0.00,-1.00
-4.00,-12.00,-2.00,-1.00,+1.00,-5.00,-2.00,-9.00,+16.00,+11.00,+1.00,-1.00,-22.00,-1.00,+6.00,+11.00
-4.00,+9.00,+1.00,-13.00,-12.00,-12.00,+2.00,+12.00,-15.00,-5.00,-1.00,-1.00,+3.00,+3.00,-2.00,-30.00
-3.00,+4.00,-2.00,+4.00,+0.00,+6.00,+1.00,-5.00,-2.00,-6.00,+0.00,-2.00,+10.00,-2.00,-10.00,-18.00
-5.00,-6.00,-6.00,-2.00,+3.00,-24.00,-31.00,-3.00,-6.00,-1.00,-5.00,-1.00,-29.00,-1.00,-1.00,-7.00
-4.00,+0.00,-4.00,-4.00,+2.00,+24.00,+18.00,+17.00,+17.00,+6.00,-3.00,-5.00,+7.00,+3.00,-1.00,+2.00
-5.00,-15.00,-4.00,+5.00,+2.00,+4.00,+19.00,+28.00,-15.00,-6.00,-4.00,+0.00,-17.00,-2.00,-9.00,-23.00
+2.00,+5.00,-2.00,-8.00,-6.00,-2.00,+11.00,+12.00,+22.00,+4.00,+3.00,-2.00,+2.00,-2.00,-6.00,+6.00
-6.00,+7.00,+2.00,-1.00,-4.00,-9.00,-11.00,-1.00,-9.00,-3.00,-2.00,-1.00,+5.00,-10.00,-6.00,-10.00
-1.00,-6.00,+0.00,-16.00,+1.00,-11.00,-5.00,-15.00,+8.00,-5.00,-3.00,-13.00,-34.00,+1.00,+1.00,+6.00
-1.00,+11.00,+2.00,-10.00,+5.00,+5.00,+3.00,+12.00,-3.00,+4.00,+4.00,+14.00,+81.00,+14.00,+6.00,+7.00
+2.00,+3.00,+1.00,-12.00,-1.00,+1.00,+6.00,+3.00,-9.00,-9.00,-12.00,-33.00,-28.00,-19.00,-8.00,-1.00
+1.00,-3.00,-2.00,+7.00,+3.00,+4.00,+0.00,+1.00,+3.00,+2.00,+3.00,+17.00,-36.00,+17.00,+2.00,+7.00
+1.00,-1.00,-10.00,-4.00,-14.00,-6.00,-7.00,+16.00,-9.00,+6.00,+0.00,+21.00,+21.00,-4.00,+1.00,+7.00
-3.00,+3.00,-1.00,+9.00,-5.00,+3.00,-19.00,-35.00,+29.00,-16.00,-3.00,-2.00,-37.00,-7.00,-2.00,-9.00
+2.00,-10.00,+0.00,+15.00,+8.00,+5.00,+35.00,-8.00,+50.00,+8.00,+6.00,+2.00,+18.00,-2.00,-2.00,+16.00
-3.00,+3.00,+3.00,+4.00,+2.00,+10.00,+0.00,+23.00,-5.00,+40.00,+26.00,+4.00,+23.00,-2.00,-1.00,+5.00
+7.00,-12.00,+0.00,+0.00,+4.00,+1.00,+1.00,+39.00,-28.00,-32.00,-11.00,-12.00,-10.00,+4.00,+0.00,-7.00
-2.00,+6.00,-1.00,-6.00,-5.00,-19.00,-7.00,+5.00,-44.00,-12.00,-27.00,-15.00,-5.00,+1.00,+7.00,+57.00
-2.00,+4.00,+1.00,-3.00,+9.00,+32.00,-2.00,-2.00,-39.00,-7.00,-12.00,+5.00,+6.00,+3.00,+1.00,+4.00
-1.00,+9.00,+1.00,-10.00,-10.00,-6.00,+6.00,+7.00,-46.00,-15.00,-14.00,-11.00,-11.00,-10.00,-4.00,-15.00
-6.00,-21.00,+5.00,+11.00,+4.00,+8.00,+3.00,-8.00,-37.00,+14.00,+17.00,+13.00,+11.00,+8.00,+5.00,-15.00
+0.00,+0.00,-5.00,-12.00,-3.00,+20.00,-7.00,+23.00,-56.00,+1.00,+9.00,+0.00,-10.00,-5.00,-4.00,-16.00
-2.00,+1.00,-3.00,-18.00,-12.00,-9.00,-3.00,+2.00,-27.00,+8.00,-6.00,+4.00,-12.00,+2.00,-1.00,+9.00
+3.00,-5.00,+1.00,+9.00,-5.00,-14.00,-3.00,-20.00,-6.00,+0.00,+4.00,+3.00,+5.00,-7.00,-1.00,-10.00
-3.00,+2.00,-3.00,+5.00,-1.00,-10.00,-23.00,-34.00,+20.00,-1.00,-1.00,-8.00,-21.00,-25.00,-8.00,+3.00
-2.00,+10.00,+2.00,+4.00,+0.00,-11.00,+0.00,-1.00,+30.00,-4.00,-1.00,+2.00,+5.00,+29.00,+1.00,-15.00
-4.00,+2.00,-2.00,-10.00,-3.00,-2.00,-1.00,+4.00,-19.00,-26.00,-2.00,+1.00,+1.00,-6.00,-13.00,-20.00
-3.00,-2.00,-2.00,-8.00,+0.00,+13.00,+3.00,+10.00,+35.00,+24.00,+5.00,-1.00,+27.00,+5.00,+21.00,+35.00
-4.00,+7.00,+4.00,-4.00,-11.00,-20.00,-4.00,-15.00,+32.00,+4.00,-6.00,-25.00,-28.00,+10.00,-5.00,+13.00
+6.00,+2.00,-2.00,+12.00,+12.00,-2.00,+1.00,+0.00,+2.00,+6.00,+4.00,+4.00,-33.00,-18.00,-3.00,+5.00
-3.00,-18.00,-7.00,-10.00,-24.00,-20.00,-7.00,+5.00,-11.00,+7.00,+12.00,+27.00,-11.00,+4.00,-4.00,+4.00
+0.00,+4.00,+3.00,+35.00,+19.00,-4.00,+0.00,-7.00,-31.00,-42.00,-25.00,-16.00,+12.00,-10.00,-13.00,-14.00
-2.00,+3.00,+1.00,+20.00,+13.00,+75.00,+5.00,-5.00,+2.00,+4.00,-5.00,-20.00,-13.00,+1.00,+5.00,+15.00
+3.00,+1.00,-1.00,-3.00,+7.00,+1.00,+3.00,-1.00,-33.00,-2.00,-1.00,-20.00,+107.00,+2.00,+0.00,+4.00
-3.00,+11.00,+0.00,-8.00,-6.00,+8.00,-8.00,-11.00,-77.00,+3.00,+3.00,+22.00,-110.00,+1.00,+5.00,+5.00
-5.00,-3.00,-11.00,-29.00,-25.00,-24.00,-7.00,-2.00,-74.00,-7.00,-3.00,+2.00,+14.00,-1.00,-5.00,-7.00
+1.00,+1.00,+3.00,+1.00,+22.00,-24.00,+6.00,-5.00,-40.00,+3.00,+1.00,+7.00,+3.00,-3.00,-4.00,-16.00
-4.00,-25.00,-4.00,+1.00,-9.00,+2.00,+0.00,-12.00,-17.00,-9.00,-1.00,+0.00,-11.00,-7.00,-8.00,-21.00
+1.00,-8.00,-3.00,+7.00,+2.00,-6.00,+1.00,-8.00,+119.00,+33.00,+10.00,-8.00,+35.00,+7.00,+9.00,+10.00
-1.00,-10.00,+0.00,-2.00,+0.00,+7.00,+5.00,+18.00,+48.00,-10.00,-10.00,-5.00,-8.00,+0.00,-9.00,-20.00
+5.00,+8.00,+2.00,-12.00,-11.00,-22.00,-1.00,-7.00,+120.00,-9.00,-5.00,+4.00,+16.00,+1.00,-2.00,-14.00
-5.00,-9.00,+0.00,-7.00,+4.00,+8.00,+2.00,-4.00,+108.00,+21.00,+3.00,+5.00,-23.00,+0.00,+2.00,-8.00
-2.00,-11.00,+3.00,+3.00,+8.00,-8.00,-2.00,+3.00,+20.00,-12.00,-1.00,+0.00,+35.00,+1.00,-2.00,-14.00
-6.00,-21.00,-1.00,+0.00,-11.00,-11.00,+1.00,+5.00,+12.00,+2.00,+0.00,+1.00,-19.00,-4.00,+2.00,+2.00
+3.00,+3.00,-1.00,+6.00,-5.00,+25.00,+1.00,+7.00,-46.00,-11.00,-4.00,-3.00,+0.00,+1.00,-2.00,-8.00
+0.00,+13.00,+2.00,+9.00,+3.00,-5.00,-7.00,-2.00,-4.00,-5.00,-1.00,+1.00,-13.00,-9.00,-1.00,+27.00
+0.00,+9.00,-2.00,-1.00,+1.00,+4.00,-3.00,+19.00,-63.00,-12.00,-7.00,-2.00,+31.00,+20.00,-8.00,-18.00
-3.00,+38.00,+5.00,-2.00,-3.00,+6.00,-35.00,-88.00,+11.00,+10.00,+7.00,+4.00,-12.00,-3.00,+8.00,+45.00
-11.00,-7.00,-6.00,-13.00,-18.00,-37.00,+15.00,+28.00,+26.00,+18.00,+8.00,-24.00,+58.00,+3.00,+1.00,-1.00
+4.00,+10.00,+5.00,+22.00,+21.00,+2.00,+4.00,+9.00,-36.00,-8.00,+8.00,+42.00,-83.00,-1.00,+3.00,-7.00
-4.00,+15.00,+4.00,-16.00,-42.00,-31.00,-6.00,-8.00,-15.00,+3.00,+0.00,-1.00,+50.00,+1.00,-2.00,+0.00
+5.00,+13.00,-10.00,+19.00,+55.00,+44.00,+2.00,+7.00,-30.00,-14.00,-13.00,-19.00,-70.00,-5.00,-3.00,-15.00
+1.00,-15.00,-2.00,-8.00,-6.00,-70.00,-9.00,-34.00,-20.00,-7.00,-10.00,+10.00,+57.00,+6.00,+1.00,+8.00
-2.00,-3.00,-7.00,-9.00,-6.00,+88.00,+3.00,-20.00,+0.00,+8.00,+5.00,-9.00,-19.00,-7.00,+0.00,+9.00
+3.00,+5.00,+0.00,+3.00,-3.00,-69.00,-4.00,-2.00,+62.00,-5.00,-4.00,-15.00,+8.00,-12.00,+0.00,+4.00
-1.00,-12.00,+3.00,-1.00,+4.00,+78.00,+26.00,+25.00,+47.00,-1.00,+5.00,+7.00,+14.00,-2.00,-7.00,-14.00
-1.00,+10.00,-2.00,-10.00,-8.00,-18.00,-13.00,-2.00,+25.00,+7.00,+18.00,+8.00,-22.00,+0.00,+2.00,+7.00
-3.00,-2.00,-4.00,-3.00,+9.00,-21.00,-1.00,+15.00,-4.00,-11.00,-9.00,-18.00,+17.00,+5.00,-12.00,-20.00
+0.00,-70.00,-1.00,-7.00,-7.00,-3.00,-6.00,+1.00,+67.00,-17.00,-23.00,-6.00,+14.00,-5.00,+1.00,-7.00
-2.00,-62.00,-11.00,-16.00,-26.00,-28.00,-4.00,+17.00,+69.00,+13.00,-1.00,-6.00,+10.00,+3.00,+7.00,+10.00
+2.00,-9.00,+2.00,+20.00,+16.00,+12.00,+5.00,-1.00,-34.00,+4.00,-1.00,+24.00,+16.00,-6.00,-1.00,+7.00
-2.00,+36.00,-9.00,-9.00,-15.00,-15.00,-8.00,-4.00,-39.00,+4.00,+7.00,-4.00,-42.00,-3.00,+0.00,+6.00
+0.00,+76.00,+7.00,-1.00,+11.00,+33.00,+5.00,+5.00,-34.00,-1.00,+5.00,+0.00,-6.00,-1.00,-5.00,+14.00
+0.00,+37.00,+3.00,-11.00,-9.00,-34.00,+5.00,+11.00,-60.00,-2.00,+5.00,-5.00,+25.00,-1.00,-4.00,-4.00
-5.00,+21.00,-7.00,-9.00,-1.00,+24.00,-1.00,+0.00,-67.00,-16.00,-1.00,+2.00,+6.00,+5.00,-4.00,-6.00
+2.00,+4.00,+1.00,-2.00,-10.00,-24.00,-1.00,+2.00,+13.00,+23.00,+2.00,+14.00,+30.00,-1.00,+4.00,+4.00
+0.00,+11.00,-7.00,-2.00,+6.00,+23.00,+0.00,+1.00,-17.00,+3.00,-2.00,-7.00,-12.00,+2.00,+4.00,-8.00
+1.00,+10.00,+1.00,+0.00,+11.00,+17.00,+10.00,+41.00,-18.00,-8.00,-2.00,+1.00,+7.00,-2.00,-3.00,-23.00
+4.00,-11.00,+7.00,-10.00,-12.00,-1.00,-8.00,-11.00,-38.00,-10.00,-3.00,-3.00,-28.00,-1.00,-3.00,-15.00
+1.00,-7.00,+9.00,+13.00,+10.00,-37.00,+2.00,+6.00,+13.00,-1.00,+6.00,-2.00,+21.00,+2.00,+1.00,+0.00
-6.00,-38.00,-22.00,-9.00,+8.00,+19.00,+7.00,+0.00,+5.00,+7.00,-2.00,-3.00,-18.00,-1.00,-1.00,+3.00
+6.00,+22.00,+18.00,+5.00,-5.00,+9.00,-4.00,-4.00,-14.00,-20.00,-6.00,+2.00,+1.00,-3.00,-7.00,-12.00
-3.00,-20.00,-10.00,-2.00,-1.00,-16.00,-6.00,-6.00,+98.00,+17.00,+1.00,-6.00,-6.00,-5.00,+2.00,+22.00
+5.00,-21.00,+0.00,+4.00,-4.00,+57.00,+6.00,+7.00,+100.00,+0.00,+1.00,+10.00,+30.00,+13.00,+2.00,-11.00
+0.00,+1.00,-2.00,-1.00,+9.00,+3.00,+2.00,+11.00,+70.00,-26.00,-20.00,-11.00,-6.00,-7.00,-2.00,+9.00
+1.00,-17.00,+5.00,-1.00,+0.00,-19.00,+3.00,-5.00,+116.00,+3.00,-8.00,-17.00,-3.00,-3.00,-3.00,+6.00
-4.00,+6.00,+0.00,-2.00,-10.00,-16.00,-3.00,+7.00,+3.00,-12.00,-13.00,+4.00,-51.00,-10.00,-2.00,+0.00
-3.00,-43.00,-14.00,-6.00,+2.00,-3.00,+0.00,+7.00,-57.00,+4.00,+1.00,-8.00,+5.00,-1.00,-2.00,+0.00
+2.00,+20.00,+13.00,+4.00,-12.00,-37.00,-11.00,-15.00,-97.00,+14.00,+18.00,+11.00,-34.00,+0.00,+2.00,+17.00
-5.00,-19.00,-15.00,-7.00,-2.00,+30.00,+2.00,-8.00,-48.00,-8.00,-3.00,-3.00,+32.00,+3.00,-3.00,-19.00
+1.00,+6.00,+5.00,+10.00,+8.00,+11.00,+1.00,+2.00,-48.00,+5.00,-3.00,-5.00,-9.00,-4.00,-4.00,-40.00
-6.00,-9.00,+1.00,-11.00,-13.00,-29.00,-2.00,+9.00,-46.00,-15.00,-6.00,-2.00,-2.00,-4.00,-3.00,-28.00
-2.00,-6.00,+1.00,+6.00,+9.00,+47.00,+6.00,+6.00,-64.00,+3.00,+3.00,-3.00,-9.00,-21.00,-6.00,+33.00
-2.00,-4.00,+4.00,-9.00,-9.00,-10.00,-3.00,+0.00,-61.00,-10.00,+7.00,+1.00,-19.00,+4.00,-10.00,-43.00
-3.00,-1.00,-2.00,-7.00,+5.00,+3.00,-3.00,-1.00,+69.00,+39.00,+15.00,+3.00,-2.00,+6.00,+8.00,+28.00
-1.00,+25.00,+0.00,-1.00,-2.00,+76.00,+6.00,-2.00,-41.00,-11.00,-7.00,-12.00,+13.00,-2.00,+1.00,-38.00
-3.00,-11.00,-2.00,-6.00,-2.00,-17.00,-5.00,+3.00,-11.00,+1.00,+3.00,+9.00,-21.00,-2.00,-2.00,-27.00
-2.00,-20.00,-15.00,+0.00,+8.00,-7.00,-2.00,-6.00,-30.00,+4.00,+8.00,+5.00,+2.00,-2.00,+2.00,+0.00
-5.00,+16.00,+12.00,-10.00,-6.00,-4.00,-2.00,+0.00,-38.00,-17.00,-16.00,+1.00,-10.00,-5.00,-8.00,-26.00
-2.00,-4.00,-3.00,-7.00,-1.00,-17.00,-2.00,-9.00,-20.00,-16.00,-4.00,-15.00,-14.00,-4.00,-1.00,+7.00
+4.00,+12.00,+9.00,+1.00,+5.00,-3.00,+2.00,+11.00,+26.00,+7.00,-11.00,-12.00,+10.00,+0.00,+3.00,-3.00
+0.00,+14.00,-6.00,-9.00,-7.00,-19.00,-9.00,-23.00,-5.00,+4.00,-5.00,-1.00,+0.00,-2.00,+1.00,+20.00
+5.00,+3.00,-8.00,-1.00,+2.00,+17.00,+3.00,-1.00,-6.00,-9.00,-5.00,-2.00,+15.00,+0.00,-2.00,+23.00
+0.00,-29.00,-23.00,-15.00,-25.00,-43.00,-7.00,-6.00,+2.00,+13.00,+6.00,-3.00,-1.00,-4.00,-5.00,+33.00
-9.00,+37.00,+18.00,+0.00,+22.00,+26.00,+5.00,-3.00,-40.00,+0.00,+12.00,+8.00,-26.00,+1.00,+9.00,+3.00
-3.00,-25.00,+4.00,+3.00,+8.00,-32.00,-9.00,-11.00,+4.00,-5.00,+2.00,+16.00,+3.00,+6.00,+5.00,-12.00
-3.00,+0.00,-2.00,+13.00,+7.00,+2.00,+1.00,-1.00,+2.00,+2.00,+9.00,+0.00,+0.00,+0.00,-1.00,-15.00
-4.00,+1.00,-4.00,-1.00,-2.00,-12.00,-6.00,-12.00,+1.00,-2.00,-21.00,-9.00,-6.00,-3.00,-3.00,-5.00
-1.00,-7.00,-9.00,-8.00,-8.00,+0.00,+0.00,-1.00,+7.00,-14.00,-5.00,-9.00,+53.00,+4.00,-8.00,-13.00
+0.00,+17.00,+2.00,-6.00,-9.00,-2.00,+5.00,+7.00,+56.00,+10.00,-2.00,+0.00,-66.00,-8.00,+2.00,+16.00
+1.00,-5.00,-9.00,+20.00,+4.00,-9.00,-5.00,-3.00,+35.00,-13.00,+0.00,-2.00,+7.00,+2.00,+4.00,+29.00
-1.00,+0.00,+8.00,+1.00,+5.00,-5.00,+0.00,-2.00,+39.00,+6.00,-5.00,+3.00,-4.00,+0.00,-4.00,+16.00
+3.00,-24.00,-5.00,-3.00,-2.00,-3.00,+0.00,-17.00,+10.00,-1.00,+8.00,+2.00,+25.00,+2.00,+0.00,+11.00
+2.00,+29.00,+6.00,-15.00,-8.00,-23.00,-4.00,+8.00,-50.00,-16.00,-7.00,-11.00,-49.00,-2.00,-2.00,+8.00
-5.00,-16.00,+1.00,-13.00,-3.00,+4.00,+0.00,-37.00,+37.00,+18.00,-1.00,-7.00,+11.00,-2.00,-2.00,+10.00
-1.00,+3.00,+6.00,+3.00,-2.00,-14.00,-1.00,-4.00,+16.00,+0.00,+3.00,+5.00,-14.00,-3.00,+0.00,+2.00
+1.00,+12.00,+5.00,+2.00,+1.00,+3.00,-4.00,+1.00,+0.00,+3.00,+2.00,-1.00,-8.00,+1.00,-5.00,-3.00
-2.00,-20.00,-4.00,-8.00,+0.00,+3.00,+5.00,-7.00,+19.00,+5.00,+5.00,+5.00,+22.00,-2.00,+7.00,+29.00
+0.00,-6.00,-26.00,-6.00,-9.00,-4.00,-4.00,+3.00,-37.00,-7.00,+4.00,-1.00,-19.00,+0.00,-2.00,-9.00
+2.00,+19.00,+2.00,+2.00,-1.00,-13.00,-7.00,+0.00,-21.00,-10.00,-8.00,-6.00,+8.00,+1.00,-1.00,-4.00
-3.00,-24.00,-4.00,+9.00,-5.00,-8.00,+0.00,-10.00,+5.00,+4.00,-2.00,+4.00,+12.00,-10.00,-1.00,-11.00
+2.00,-2.00,-4.00,+7.00,-1.00,+4.00,-1.00,+0.00,-10.00,-7.00,+1.00,+0.00,-3.00,+18.00,-3.00,-11.00
+1.00,+4.00,+7.00,+4.00,+5.00,+10.00,+5.00,+31.00,-18.00,+5.00,+6.00,+13.00,+15.00,+5.00,-1.00,-15.00
+3.00,-4.00,+2.00,-9.00,-5.00,-10.00,-2.00,+1.00,+1.00,+6.00,+6.00,-8.00,-8.00,-2.00,+2.00,+5.00
+1.00,+7.00,-3.00,+29.00,-1.00,-52.00,-14.00,-22.00,+4.00,-7.00,-5.00,-8.00,-10.00,+2.00,-3.00,-5.00
-1.00,+4.00,+2.00,+21.00,-19.00,+12.00,+1.00,+6.00,+1.00,-6.00,-14.00,-10.00,+10.00,-8.00,-4.00,-2.00
-2.00,-11.00,-7.00,-9.00,+11.00,+4.00,+0.00,+5.00,-2.00,-11.00,-14.00,-11.00,+1.00,+0.00,-3.00,-1.00
+0.00,+13.00,+17.00,-13.00,+23.00,+40.00,+11.00,-4.00,+2.00,+7.00,+9.00,+12.00,-11.00,-1.00,+3.00,+5.00
+0.00,-1.00,-12.00,-9.00,+2.00,+2.00,-3.00,-3.00,+36.00,+11.00,+6.00,-1.00,-16.00,+1.00,+3.00,+3.00
+1.00,-17.00,-17.00,-10.00,-27.00,-19.00,-10.00,-9.00,+19.00,+3.00,+5.00,+5.00,+27.00,-1.00,+1.00,+8.00
-5.00,+1.00,+10.00,-50.00,-3.00,+7.00,+3.00,-15.00,-17.00,+18.00,+11.00,-3.00,+9.00,-8.00,-7.00,-10.00
-5.00,+6.00,+0.00,-20.00,+5.00,-9.00,-3.00,+4.00,-10.00,-20.00,-16.00,+3.00,-23.00,-5.00,+0.00,-6.00
-2.00,+4.00,+6.00,-28.00,-9.00,+21.00,+6.00,+6.00,-1.00,-6.00,-14.00,-15.00,+2.00,+0.00,-1.00,-6.00
-5.00,-28.00,-13.00,-26.00,+6.00,-15.00,+0.00,-7.00,+34.00,+4.00,+2.00,+3.00,-23.00,+1.00,+4.00,+18.00
+4.00,+49.00,+0.00,+35.00,-8.00,-14.00,-10.00,+5.00,-19.00,-9.00,-2.00,+0.00,+5.00,-13.00,-7.00,-5.00
-2.00,-1.00,+2.00,+12.00,+3.00,+0.00,+1.00,-2.00,-5.00,-1.00,+4.00,+3.00,+24.00,+25.00,+3.00,+2.00
+1.00,-1.00,-10.00,+7.00,-8.00,-4.00,-3.00,+12.00,-40.00,+9.00,+7.00,+9.00,+48.00,+5.00,-2.00,-1.00
+3.00,+15.00,+19.00,+13.00,+8.00,+18.00,+7.00,+1.00,-9.00,+0.00,+7.00,+1.00,-6.00,-2.00,-5.00,-8.00
+0.00,+2.00,+7.00,-4.00,+2.00,-3.00,+0.00,-1.00,-21.00,-8.00,-11.00,-5.00,-14.00,-1.00,-1.00,+1.00
+0.00,-6.00,+1.00,+13.00,-8.00,-3.00,-3.00,+3.00,-15.00,-6.00,-5.00,+1.00,-5.00,-5.00,-1.00,-6.00
-5.00,-5.00,-11.00,+5.00,-5.00,-13.00,-2.00,-3.00,+2.00,-11.00,-6.00,-5.00,-16.00,-4.00,-5.00,-33.00
-2.00,-3.00,-4.00,-10.00,+5.00,+19.00,+1.00,+1.00,-55.00,-2.00,-2.00,-1.00,+24.00,-1.00,+0.00,+24.00
+1.00,-6.00,+5.00,+3.00,-44.00,-20.00,-3.00,-4.00,+55.00,+3.00,+16.00,+4.00,-18.00,+1.00,+3.00,+9.00
-2.00,+5.00,-5.00,-9.00,+23.00,+18.00,+10.00,+13.00,-4.00,-1.00,+3.00,-9.00,+3.00,-4.00,+0.00,-3.00
+1.00,+0.00,+13.00,-4.00,+7.00,+22.00,+2.00,-24.00,+0.00,-17.00,-36.00,-14.00,-16.00,-2.00,-4.00,-2.00
+1.00,-1.00,-5.00,+4.00,+2.00,-7.00,-7.00,-23.00,-9.00,-1.00,-5.00,-6.00,-7.00,-10.00,-10.00,-37.00
-2.00,-13.00,-5.00,-7.00,-19.00,-12.00,-8.00,-13.00,-7.00,-4.00,+12.00,+14.00,+6.00,+7.00,+7.00,+39.00
+1.00,-9.00,-11.00,+19.00,-6.00,-9.00,-2.00,-3.00,+6.00,-6.00,-9.00,-8.00,-1.00,-3.00,+1.00,+5.00
-6.00,-5.00,-1.00,-8.00,+8.00,-1.00,+3.00,+32.00,-16.00,+1.00,+9.00,-2.00,-14.00,-1.00,-2.00,-5.00
-3.00,+12.00,+7.00,-27.00,-8.00,-5.00,+3.00,+14.00,+13.00,+6.00,-5.00,-1.00,+13.00,+1.00,-2.00,-7.00
-2.00,+10.00,+11.00,-12.00,-16.00,-18.00,-1.00,-6.00,-33.00,-10.00,-7.00,-5.00,-2.00,+2.00,-1.00,-13.00
+3.00,-7.00,+3.00,+59.00,+23.00,+17.00,+0.00,+7.00,+30.00,+13.00,+9.00,+11.00,+12.00,-2.00,-6.00,-12.00
-3.00,-7.00,-10.00,-17.00,-8.00,+14.00,-1.00,-9.00,+4.00,+7.00,+8.00,+6.00,-29.00,+0.00,+4.00,+21.00
-4.00,+4.00,-3.00,+0.00,-2.00,+12.00,-2.00,-6.00,-3.00,-1.00,-4.00,-3.00,+11.00,-5.00,-4.00,+55.00
-3.00,-11.00,-6.00,+4.00,+15.00,+24.00,+2.00,+1.00,-7.00,-5.00,-5.00,-3.00,-8.00,-2.00,+0.00,+29.00
+1.00,+11.00,+2.00,-15.00,-19.00,-26.00,-5.00,-5.00,-7.00,-4.00,+6.00,-3.00,-19.00,-3.00,-2.00,+15.00
-3.00,-13.00,+10.00,+0.00,-7.00,-3.00,+4.00,+0.00,+4.00,+0.00,-8.00,-4.00,+77.00,+1.00,-4.00,-14.00
+0.00,+2.00,-11.00,+10.00,+10.00,-3.00,-7.00,+9.00,-3.00,-4.00,+2.00,+1.00,-76.00,-6.00,+1.00,-29.00
+1.00,+5.00,+3.00,-9.00,-2.00,-10.00,-4.00,-2.00,+8.00,-1.00,-6.00,-6.00,-4.00,-11.00,-1.00,-24.00
-3.00,-17.00,+6.00,-5.00,-11.00,-4.00,+0.00,+4.00,-4.00,-8.00,-5.00,-4.00,+4.00,+14.00,+3.00,-14.00
+1.00,+22.00,-4.00,+9.00,+5.00,+6.00,-2.00,+1.00,-3.00,+5.00,+10.00,+2.00,+2.00,-2.00,-2.00,-13.00
+1.00,+8.00,+5.00,-17.00,-4.00,-13.00,+0.00,-4.00,-13.00,-14.00,-4.00,-4.00,+23.00,-2.00,-3.00,-38.00
-2.00,+11.00,+9.00,+6.00,+21.00,+19.00,+9.00,+6.00,+43.00,+13.00,-9.00,-4.00,-3.00,-1.00,-1.00,-1.00
-1.00,-13.00,-23.00,-11.00,-7.00,-13.00,+2.00,+2.00,+15.00,+8.00,+4.00,+1.00,+2.00,-7.00,+0.00,+1.00
-1.00,-18.00,+6.00,+9.00,-4.00,+0.00,-5.00,-5.00,-4.00,+2.00,+13.00,+5.00,-14.00,+0.00,-3.00,-17.00
-1.00,-11.00,+1.00,-5.00,-4.00,-14.00,-4.00,+0.00,+0.00,+3.00,-10.00,-4.00,+3.00,-1.00,-2.00,-7.00
+0.00,-5.00,+2.00,-9.00,-10.00,-9.00,-5.00,-1.00,-15.00,-14.00,-5.00,-8.00,-10.00,-3.00,-8.00,-27.00
-4.00,-11.00,-14.00,-1.00,+19.00,+25.00,+6.00,-5.00,-12.00,-15.00,-10.00,-6.00,+33.00,-2.00,-1.00,+0.00
-2.00,-6.00,+1.00,-13.00,-7.00,-13.00,-2.00,-6.00,+13.00,+9.00,+3.00,-5.00,-33.00,+2.00,-1.00,+4.00
-2.00,+0.00,+3.00,-1.00,+0.00,+5.00,+0.00,-5.00,+12.00,-1.00,+8.00,+8.00,+97.00,-1.00,-2.00,+1.00
+0.00,-6.00,-6.00,-4.00,+10.00,-3.00,+1.00,-5.00,-13.00,+4.00,+1.00,+6.00,-83.00,-5.00,+1.00,-1.00
-5.00,-10.00,+4.00,-12.00,-12.00,-4.00,-5.00,-10.00,-12.00,-3.00,-8.00,-1.00,-1.00,-4.00,-5.00,-3.00
+2.00,+1.00,+0.00,-11.00,+2.00,-6.00,-2.00,-1.00,-14.00,-1.00,+0.00,-2.00,-16.00,-1.00,+2.00,+18.00
+0.00,+2.00,+1.00,+7.00,+11.00,+26.00,+4.00,-2.00,+10.00,+5.00,+6.00,-4.00,+20.00,-3.00,-1.00,-9.00
-2.00,-4.00,-2.00,-2.00,+1.00,-3.00,-1.00,-4.00,-11.00,-2.00,-2.00,+5.00,+30.00,+6.00,+3.00,+2.00
-1.00,+10.00,+4.00,-7.00,-8.00,-8.00,+1.00,+0.00,+6.00,+3.00,+0.00,+1.00,-24.00,+8.00,+0.00,+1.00
-4.00,-8.00,-9.00,-10.00,-2.00,-5.00,-2.00,-3.00,+2.00,-4.00,+0.00,+6.00,+4.00,-2.00,-2.00,+2.00
+0.00,+2.00,+3.00,-2.00,-5.00,-24.00,-3.00,+1.00,+6.00,+3.00,+1.00,-4.00,+1.00,+11.00,+3.00,+1.00
+2.00,-10.00,-13.00,+3.00,+5.00,+14.00,+0.00,-1.00,-4.00,-3.00,-2.00,-1.00,+4.00,+0.00,+1.00,-10.00
+3.00,-2.00,+1.00,+0.00,-9.00,-3.00,-6.00,-4.00,-15.00,-5.00,-4.00,-2.00,-24.00,-9.00,-2.00,-7.00
+1.00,+3.00,+1.00,-5.00,+6.00,-1.00,-1.00,+4.00,+4.00,-4.00,-3.00,-4.00,+8.00,-3.00,+2.00,+7.00
-4.00,+5.00,-4.00,-20.00,-8.00,-11.00,+0.00,+3.00,-18.00,-3.00,-6.00,-4.00,-22.00,-5.00,-3.00,-5.00
-5.00,+4.00,+1.00,+12.00,+5.00,+7.00,+1.00,-16.00,+19.00,+5.00,+4.00,-2.00,+14.00,+3.00,+0.00,+3.00
+2.00,+5.00,+3.00,-1.00,-1.00,-13.00,-5.00,-4.00,-13.00,-7.00,+3.00,+2.00,+8.00,-5.00,+0.00,-8.00
-3.00,-4.00,-9.00,-7.00,-16.00,+0.00,-1.00,+6.00,+11.00,-1.00,-6.00,+0.00,-16.00,+0.00,-3.00,+2.00
+1.00,-3.00,-4.00,+15.00,+16.00,+9.00,+5.00,+1.00,+10.00,+2.00,+1.00,+2.00,-7.00,-2.00,-2.00,-3.00
-4.00,+6.00,+5.00,+1.00,+4.00,+18.00,+4.00,+11.00,-25.00,-5.00,-9.00,-5.00,+2.00,+2.00,-4.00,-8.00
-4.00,-6.00,+3.00,-9.00,-17.00,+7.00,-1.00,-5.00,-13.00,-8.00,-6.00,-2.00,+31.00,-7.00,-3.00,-15.00
+1.00,-5.00,-1.00,+8.00,+19.00,-10.00,-4.00,-6.00,+7.00,+8.00,+5.00,-2.00,-36.00,+0.00,+3.00,-23.00
+0.00,-4.00,+0.00,+9.00,-8.00,+14.00,+0.00,+2.00,-1.00,-5.00,-9.00,-7.00,+23.00,+0.00,-5.00,-15.00
+0.00,-1.00,-11.00,+8.00,-7.00,-34.00,-2.00,+0.00,+3.00,+0.00,+2.00,+1.00,-53.00,-8.00,-1.00,-6.00
-1.00,-7.00,-7.00,+9.00,+1.00,+1.00,-5.00,-1.00,+12.00,+5.00,+6.00,+3.00,+0.00,-9.00,-2.00,+11.00
+1.00,+7.00,-5.00,+12.00,-2.00,+0.00,+1.00,+4.00,-15.00,-8.00,+0.00,-6.00,+5.00,+2.00,-4.00,-10.00
-1.00,-10.00,+7.00,+1.00,+2.00,-2.00,+2.00,+0.00,-2.00,+3.00,+2.00,+9.00,-7.00,-2.00,+1.00,+17.00
+2.00,-6.00,-5.00,+6.00,-1.00,-19.00,+1.00,-4.00,-13.00,-8.00,-6.00,-5.00,+25.00,+0.00,-3.00,-5.00
+2.00,+8.00,+6.00,+15.00,+0.00,+4.00,-9.00,-4.00,+8.00,+3.00,+3.00,-2.00,-13.00,+0.00,-1.00,+11.00
+2.00,+1.00,-2.00,+5.00,-3.00,-13.00,-1.00,+3.00,+5.00,-4.00,-1.00,+2.00,+2.00,-2.00,+0.00,+10.00
-1.00,+7.00,+4.00,+6.00,-1.00,-1.00,-3.00,-4.00,+5.00,+4.00,+2.00,-1.00,-3.00,-1.00,+2.00,+4.00
+3.00,-9.00,-1.00,+2.00,-1.00,+11.00,+7.00,+39.00,-3.00,-5.00,-4.00,-6.00,+13.00,+1.00,-3.00,+2.00
-4.00,+6.00,+0.00,-4.00,+4.00,-8.00,+3.00,+14.00,-3.00,+3.00,-5.00,-5.00,-15.00,-5.00,-2.00,-2.00
-1.00,+1.00,-4.00,-1.00,-4.00,+12.00,+0.00,+4.00,-3.00,-3.00,+1.00,+2.00,+12.00,-1.00,+1.00,+11.00
+1.00,-5.00,-6.00,+10.00,-4.00,-8.00,-4.00,-4.00,+7.00,+12.00,+5.00,+3.00,-6.00,+1.00,-1.00,+12.00
-7.00,-6.00,-2.00,+2.00,+1.00,+14.00,-3.00,-6.00,-6.00,-17.00,-4.00,+1.00,+6.00,+2.00,+1.00,+3.00
+0.00,+10.00,+10.00,-4.00,+1.00,-8.00,+4.00,+1.00,+6.00,+7.00,+13.00,+4.00,+4.00,+0.00,+0.00,-2.00
-1.00,+11.00,+1.00,-2.00,+2.00,+8.00,+5.00,+10.00,-8.00,-5.00,-14.00,-10.00,-14.00,-3.00,+1.00,+8.00
+2.00,+4.00,+6.00,+10.00,+0.00,+8.00,+1.00,-3.00,-1.00,-7.00,-14.00,-5.00,-14.00,-2.00,+0.00,+4.00
+2.00,-15.00,-1.00,+4.00,-5.00,-25.00,-5.00,+1.00,-14.00,-3.00,-11.00,-6.00,+9.00,-2.00,-4.00,-6.00
-4.00,+3.00,-4.00,+1.00,+0.00,+9.00,-2.00,-6.00,-9.00,-8.00,+1.00,+0.00,+2.00,+1.00,-5.00,-12.00
-3.00,-7.00,-11.00,-2.00,-14.00,+3.00,+3.00,-7.00,+40.00,+26.00,+12.00,+10.00,+6.00,+4.00,+3.00,+20.00
-2.00,-4.00,-1.00,-4.00,+4.00,+10.00,-1.00,-3.00,-14.00,-5.00,+2.00,+3.00,-11.00,-3.00,-1.00,+31.00
+5.00,+4.00,+4.00,+1.00,+0.00,-28.00,-4.00,-8.00,-3.00,+1.00,+0.00,-4.00,+13.00,+1.00,+0.00,+15.00
-2.00,+6.00,+3.00,-2.00,+8.00,+29.00,+6.00,+4.00,-11.00,-6.00,-8.00,-6.00,+6.00,-13.00,-6.00,+6.00
+0.00,+1.00,+3.00,+1.00,-6.00,+19.00,+4.00,-1.00,-16.00,-8.00,-1.00,+5.00,-22.00,+12.00,+10.00,+16.00
-3.00,+2.00,-3.00,+12.00,+0.00,-26.00,-2.00,-2.00,+7.00,-1.00,+0.00,-2.00,-3.00,-2.00,+1.00,-16.00
-3.00,-7.00,-4.00,-6.00,+5.00,+6.00,-6.00,-10.00,-5.00,+1.00,+2.00,+0.00,-2.00,+0.00,-4.00,-12.00
-3.00,-2.00,-1.00,-3.00,-9.00,-17.00,-6.00,-1.00,+5.00,+4.00,-2.00,-2.00,-1.00,+1.00,-1.00,-7.00
-1.00,-2.00,-1.00,+4.00,+7.00,+2.00,+1.00,+2.00,+1.00,-3.00,+4.00,+2.00,+9.00,-5.00,-6.00,-8.00
-1.00,+7.00,+4.00,+0.00,-4.00,-2.00,-1.00,-12.00,+4.00,-1.00,+4.00,-2.00,-2.00,-1.00,-1.00,-8.00
+1.00,-3.00,-2.00,+12.00,+2.00,+11.00,+1.00,-2.00,+0.00,-2.00,-11.00,-3.00,+6.00,+0.00,-1.00,-4.00
+4.00,-8.00,-6.00,+5.00,-6.00,-15.00,-1.00,-9.00,+5.00,-5.00,-8.00,-7.00,-10.00,-3.00,+0.00,-3.00
+0.00,+1.00,+1.00,-1.00,+3.00,-3.00,-3.00,-8.00,-2.00,+2.00,-2.00,-2.00,+4.00,-4.00,-5.00,-2.00
+1.00,-7.00,-13.00,-2.00,+3.00,-5.00,+0.00,+14.00,-8.00,-3.00,+3.00,+2.00,-3.00,+1.00,+2.00,-10.00
+2.00,+24.00,+25.00,-5.00,-4.00,+13.00,-3.00,-17.00,-1.00,-1.00,+4.00,-1.00,+0.00,-5.00,+0.00,-6.00
-1.00,-7.00,-4.00,-8.00,-3.00,+10.00,+2.00,+3.00,+11.00,+11.00,+3.00,-2.00,+23.00,+3.00,+0.00,+3.00
+2.00,-5.00,+8.00,+10.00,+14.00,+0.00,+0.00,-3.00,-6.00,-3.00,-2.00,+2.00,-47.00,-5.00,-7.00,-2.00
+0.00,-16.00,-11.00,-4.00,-9.00,+6.00,-1.00,-2.00,+0.00,-3.00,+0.00,+3.00,+1.00,+0.00,-5.00,+4.00
-2.00,-14.00,-11.00,+4.00,-1.00,+11.00,+3.00,+31.00,+3.00,+5.00,+0.00,-2.00,+3.00,-3.00,+10.00,+2.00
-1.00,+14.00,+4.00,-6.00,+1.00,-17.00,-4.00,+2.00,+3.00,+1.00,+3.00,+0.00,-9.00,+2.00,+0.00,+1.00
-1.00,-5.00,+5.00,-4.00,+2.00,+0.00,+2.00,-3.00,-5.00,-3.00,-2.00,-4.00,+20.00,+0.00,+2.00,-2.00
-1.00,-7.00,-3.00,-24.00,-3.00,+4.00,+1.00,-6.00,-2.00,-2.00,+0.00,-4.00,-3.00,+0.00,-3.00,-5.00
-1.00,+3.00,+0.00,-2.00,+6.00,+7.00,+1.00,-2.00,+8.00,+0.00,+0.00,+4.00,-5.00,+0.00,-2.00,+7.00
+2.00,+2.00,+2.00,-8.00,-3.00,-9.00,-2.00,-6.00,-2.00,+0.00,+4.00,+2.00,-2.00,+2.00,+5.00,-1.00
-1.00,+0.00,-1.00,-6.00,-6.00,-28.00,-13.00,-22.00,-7.00,-2.00,-5.00,-3.00,+8.00,-5.00,-5.00,+10.00
-3.00,+10.00,+6.00,-8.00,+2.00,+23.00,+3.00,+10.00,+1.00,+2.00,+2.00,+0.00,-6.00,-4.00,-2.00,+11.00
-1.00,-4.00,-7.00,-2.00,-1.00,+2.00,+0.00,-6.00,-5.00,-7.00,-8.00,-6.00,+6.00,-2.00,-1.00,+32.00
+1.00,+1.00,+0.00,+2.00,+1.00,-3.00,+0.00,+4.00,+8.00,+4.00,+2.00,+2.00,-9.00,+0.00,-3.00,+13.00
-4.00,-6.00,-1.00,-5.00,-2.00,-1.00,+2.00,+3.00,-8.00,-6.00,-1.00,-2.00,+3.00,-3.00,-8.00,+5.00
-2.00,+12.00,-3.00,-14.00,-4.00,-10.00,+1.00,-3.00,-1.00,-3.00,-5.00,-5.00,-4.00,-1.00,+13.00,+5.00
-1.00,-12.00,-12.00,+1.00,-5.00,+0.00,-5.00,-16.00,+3.00,+4.00,+7.00,+3.00,+4.00,+2.00,-4.00,+27.00
-1.00,-9.00,-4.00,+2.00,+1.00,-3.00,-4.00,-10.00,+10.00,-12.00,-4.00,+0.00,-7.00,+4.00,+9.00,+67.00
-6.00,-9.00,-4.00,-4.00,-1.00,+0.00,-2.00,+9.00,+0.00,+13.00,+4.00,-1.00,+1.00,-2.00,-2.00,-10.00
+0.00,+17.00,+10.00,-11.00,+0.00,-16.00,-6.00,-7.00,-2.00,-11.00,-5.00,-3.00,+1.00,-1.00,-5.00,-28.00
-1.00,-6.00,+8.00,+3.00,+7.00,+35.00,+5.00,+9.00,-3.00,+9.00,+2.00,-3.00,-3.00,-3.00,-2.00,-37.00
+1.00,+8.00,+1.00,-3.00,-3.00,-7.00,+0.00,-5.00,-5.00,-1.00,-4.00,-5.00,-7.00,-3.00,-1.00,-39.00
+2.00,-3.00,-2.00,-9.00,-7.00,-20.00,-2.00,+16.00,+1.00,-4.00,+4.00,+5.00,+8.00,+0.00,+0.00,-35.00
-5.00,+1.00,+2.00,+2.00,+6.00,+37.00,-3.00,+5.00,-3.00,-2.00,-2.00,+1.00,+0.00,-1.00,-1.00,-6.00
