+2.00,+0.00,+0.00,-4.00,-1.00,+3.00,+2.00,+2.00,+0.00,+1.00,+0.00,+2.00,-5.00,+0.00,-1.00,-6.00
-1.00,-4.00,+2.00,-1.00,-1.00,-4.00,-2.00,-2.00,-1.00,+4.00,+6.00,+3.00,-11.00,-4.00,-1.00,-3.00
-1.00,-1.00,-3.00,-1.00,+1.00,+2.00,+0.00,+1.00,+2.00,-2.00,-1.00,+1.00,+4.00,-3.00,-2.00,-2.00
-3.00,-1.00,-4.00,-1.00,-8.00,-5.00,-1.00,-3.00,-5.00,-7.00,-3.00,-2.00,-9.00,-2.00,-1.00,-3.00
+1.00,-4.00,-5.00,-6.00,-5.00,-8.00,-5.00,-6.00,-3.00,+0.00,-4.00,-1.00,+7.00,-1.00,+0.00,+2.00
-2.00,-1.00,-4.00,-2.00,-3.00,+0.00,-3.00,-2.00,-1.00,-2.00,+2.00,+2.00,+1.00,+0.00,-2.00,-3.00
+1.00,-2.00,+1.00,+1.00,-2.00,-3.00,+0.00,-2.00,-2.00,+0.00,-6.00,-2.00,-5.00,+0.00,-1.00,-2.00
+1.00,+1.00,+3.00,-1.00,+3.00,+2.00,+1.00,+0.00,+0.00,-3.00,-1.00,-2.00,-2.00,-3.00,-3.00,-3.00
+2.00,-2.00,-1.00,-3.00,+0.00,+2.00,+1.00,+4.00,+2.00,+1.00,-3.00,-1.00,+1.00,-1.00,-1.00,+1.00
-3.00,-1.00,-4.00,-3.00,+2.00,+1.00,-1.00,+0.00,-1.00,+0.00,-1.00,+1.00,-4.00,-2.00,+0.00,+1.00
+3.00,+0.00,+12.00,-1.00,+1.00,+0.00,+1.00,+1.00,-8.00,-1.00,+4.00,+2.00,-5.00,-2.00,-1.00,-5.00
-2.00,-1.00,-1.00,+0.00,+2.00,+4.00,-2.00,-1.00,-17.00,-19.00,+0.00,-2.00,+10.00,+3.00,-1.00,+3.00
-3.00,+0.00,-4.00,-3.00,-3.00,-3.00,+1.00,+0.00,+18.00,+13.00,+1.00,+0.00,+2.00,+2.00,+1.00,+3.00
-2.00,+1.00,-3.00,-7.00,-2.00,-1.00,-2.00,-1.00,+2.00,+8.00,+0.00,-4.00,+0.00,-1.00,-1.00,-1.00
-4.00,-2.00,-5.00,+1.00,-4.00,-7.00,-1.00,-1.00,+5.00,+1.00,+0.00,+3.00,-7.00,-2.00,-2.00,+2.00
+3.00,-4.00,+2.00,+1.00,+2.00,+2.00,-2.00,-3.00,-17.00,-13.00,-11.00,-2.00,-3.00,-4.00,-4.00,-11.00
-4.00,+2.00,+2.00,-2.00,-1.00,-1.00,+2.00,+0.00,-19.00,-12.00,-6.00,-5.00,-11.00,-5.00,-2.00,-2.00
-8.00,+8.00,-3.00,+1.00,-2.00,+7.00,-1.00,-2.00,+8.00,-1.00,-6.00,-4.00,+9.00,+2.00,-3.00,-4.00
-5.00,-11.00,-8.00,-9.00,-5.00,-13.00,-4.00,-5.00,-1.00,+0.00,+3.00,-4.00,-9.00,-3.00,+1.00,+2.00
+1.00,+3.00,+0.00,+2.00,-4.00,-19.00,-3.00,+0.00,+8.00,+2.00,+2.00,+2.00,+1.00,-1.00,-1.00,-5.00
-4.00,-5.00,-1.00,+2.00,+3.00,+1.00,+0.00,-1.00,-5.00,-2.00,+0.00,+0.00,-6.00,+0.00,+0.00,-1.00
-1.00,-4.00,+2.00,+0.00,+5.00,+10.00,+3.00,+2.00,-1.00,+2.00,+2.00,-1.00,+44.00,+0.00,-1.00,+3.00
+3.00,+4.00,+2.00,+0.00,+0.00,+5.00,+1.00,-1.00,+8.00,+10.00,+1.00,-4.00,-46.00,+10.00,+1.00,+4.00
+3.00,-3.00,+1.00,+0.00,+0.00,-4.00,-1.00,+0.00,-4.00,+1.00,+6.00,+8.00,+22.00,+0.00,+0.00,+2.00
+0.00,+3.00,+0.00,-3.00,-1.00,+7.00,+0.00,+0.00,+1.00,-1.00,-2.00,+6.00,+17.00,-2.00,-5.00,-8.00
+0.00,-3.00,-3.00,-6.00,-5.00,-10.00,-4.00,-4.00,-12.00,-4.00,-2.00,+1.00,-16.00,-1.00,-2.00,-5.00
-3.00,-2.00,-4.00,+0.00,-2.00,-5.00,-5.00,-4.00,+3.00,-2.00,-1.00,-1.00,+21.00,-1.00,-1.00,-2.00
+0.00,-3.00,-3.00,-6.00,-3.00,+5.00,-1.00,+1.00,+1.00,-5.00,-4.00,-10.00,-14.00,-1.00,+0.00,-1.00
-7.00,+1.00,+1.00,+1.00,+0.00,-6.00,+0.00,-2.00,-48.00,-19.00,-10.00,-8.00,-17.00,-2.00,+0.00,-3.00
-2.00,+3.00,+1.00,-1.00,+1.00,+0.00,+1.00,-1.00,-3.00,-15.00,-3.00,-3.00,+0.00,-4.00,-3.00,-2.00
+2.00,-2.00,+0.00,+0.00,+1.00,+3.00,+1.00,-1.00,+54.00,+38.00,+9.00,+7.00,+15.00,+2.00,+4.00,+11.00
-6.00,+14.00,+3.00,-6.00,+0.00,-3.00,+0.00,-1.00,+19.00,+17.00,+4.00,+2.00,-13.00,-1.00,+0.00,+1.00
+2.00,+1.00,-5.00,-2.00,-1.00,+0.00,+1.00,+2.00,+12.00,-1.00,+1.00,+3.00,+8.00,-2.00,+1.00,+3.00
+3.00,-7.00,+0.00,-2.00,+2.00,+0.00,+0.00,+2.00,-21.00,-4.00,+5.00,-1.00,-19.00,+0.00,-2.00,-10.00
-2.00,+8.00,+7.00,-4.00,-1.00,+7.00,+3.00,+3.00,-24.00,-20.00,-9.00,-4.00,+42.00,-1.00,-4.00,-8.00
-1.00,-4.00,-5.00,+2.00,-7.00,-17.00,-8.00,-6.00,-2.00,-6.00,-11.00,-8.00,-38.00,-4.00,-3.00,-1.00
-13.00,-6.00,-1.00,-4.00,-10.00,-6.00,-8.00,-11.00,-2.00,-2.00,-2.00,-5.00,+7.00,+0.00,+0.00,+3.00
+0.00,-10.00,-5.00,-1.00,-2.00,-33.00,-6.00,-2.00,-3.00,+3.00,-2.00,+1.00,-17.00,-3.00,+0.00,-1.00
+9.00,+1.00,-3.00,+4.00,+6.00,+29.00,+3.00,+2.00,+3.00,-1.00,+4.00,-1.00,+29.00,-5.00,-4.00,-4.00
+7.00,+1.00,+3.00,-6.00,+1.00,+6.00,+1.00,+2.00,+0.00,+4.00,+4.00,+7.00,-6.00,-3.00,+4.00,+4.00
+14.00,+4.00,+2.00,+0.00,+3.00,+0.00,+2.00,+2.00,+0.00,+1.00,+0.00,-4.00,-35.00,-2.00,-4.00,-10.00
-3.00,-7.00,-2.00,-6.00,-7.00,+6.00,-3.00,-5.00,+1.00,+5.00,+4.00,+3.00,-10.00,+1.00,-2.00,+1.00
+12.00,-14.00,+1.00,-3.00,-8.00,-70.00,-1.00,+2.00,-2.00,-5.00,-1.00,+1.00,+13.00,-4.00,+0.00,+5.00
+0.00,+5.00,-1.00,+5.00,+7.00,+29.00,-2.00,+1.00,-10.00,-6.00,-5.00,-17.00,+7.00,-5.00,-2.00,+1.00
+1.00,-5.00,-4.00,+2.00,+0.00,+5.00,-2.00,-1.00,+1.00,-1.00,-2.00,+11.00,+2.00,+2.00,-3.00,-4.00
+6.00,+7.00,+0.00,+2.00,+3.00,+14.00,+3.00,+1.00,-38.00,-17.00,-2.00,+5.00,+32.00,+1.00,+0.00,-6.00
+0.00,+0.00,+0.00,-5.00,-5.00,-1.00,-3.00,-1.00,+49.00,+9.00,-2.00,+0.00,-44.00,-7.00,-3.00,-1.00
+3.00,-7.00,-8.00,-4.00,-8.00,-6.00,+2.00,+0.00,+6.00,+14.00,+2.00,+1.00,+9.00,+3.00,+2.00,+5.00
-5.00,+5.00,-1.00,-1.00,-1.00,-11.00,-5.00,-6.00,-26.00,+4.00,+2.00,-4.00,+4.00,-1.00,-1.00,-3.00
-1.00,-17.00,-2.00,-2.00,-2.00,-11.00,-2.00,-3.00,+36.00,-2.00,+0.00,-1.00,-1.00,+0.00,+0.00,+1.00
+4.00,+10.00,-1.00,+5.00,+4.00,+12.00,+3.00,+3.00,-43.00,-13.00,-7.00,-3.00,+1.00,+5.00,+4.00,+5.00
+4.00,-8.00,+0.00,+2.00,+2.00,+6.00,+1.00,+1.00,-11.00,-4.00,+0.00,+1.00,+2.00,-4.00,-9.00,-22.00
+5.00,+14.00,+12.00,+2.00,+7.00,+12.00,+5.00,+5.00,-2.00,-3.00,-1.00,-7.00,+2.00,-1.00,-2.00,-1.00
+3.00,+5.00,-1.00,-6.00,-2.00,-1.00,+2.00,+2.00,-6.00,-5.00,-6.00,-4.00,-13.00,-3.00,+1.00,+11.00
-6.00,-6.00,-15.00,-9.00,-4.00,+4.00,-8.00,-7.00,-29.00,-4.00,-3.00,-4.00,-8.00,-3.00,-8.00,-20.00
+2.00,-9.00,-8.00,+0.00,-5.00,-3.00,-3.00,-5.00,+70.00,-6.00,+4.00,+5.00,+13.00,-4.00,+21.00,+11.00
-1.00,-9.00,-1.00,+0.00,-5.00,-10.00,-3.00,-3.00,-5.00,+13.00,+1.00,+2.00,+1.00,+14.00,-5.00,+2.00
+5.00,+0.00,+6.00,+4.00,+4.00,+10.00,+2.00,-1.00,+41.00,+16.00,+4.00,-1.00,-7.00,-2.00,-2.00,-3.00
-5.00,+0.00,-1.00,-2.00,-5.00,-6.00,-2.00,-4.00,+27.00,+2.00,-4.00,-10.00,+18.00,+2.00,-3.00,+4.00
+6.00,+5.00,+3.00,+4.00,+3.00,+24.00,+0.00,+3.00,-51.00,+7.00,+1.00,+8.00,+2.00,+1.00,+2.00,-3.00
+2.00,-9.00,-3.00,-3.00,+4.00,-1.00,+2.00,-1.00,-2.00,-19.00,-5.00,-1.00,-24.00,-7.00,-2.00,-19.00
-3.00,+4.00,+3.00,+0.00,+3.00,+4.00,+6.00,+0.00,+12.00,+7.00,+4.00,+5.00,+14.00,-3.00,+1.00,+21.00
-10.00,+3.00,+1.00,-4.00,-3.00,+9.00,-6.00,-1.00,-17.00,-9.00,-3.00,+0.00,-7.00,-5.00,+3.00,-6.00
+2.00,+0.00,-1.00,-2.00,+3.00,-1.00,+2.00,-2.00,-2.00,-10.00,-1.00,+2.00,-5.00,+7.00,-6.00,+6.00
-4.00,-2.00,-3.00,-1.00,-8.00,-29.00,-2.00,+1.00,+37.00,+6.00,-2.00,-11.00,-29.00,-7.00,+9.00,+17.00
-3.00,-21.00,-4.00,-1.00,+2.00,+9.00,-4.00,-2.00,+13.00,+2.00,-4.00,+0.00,+27.00,+13.00,-3.00,-6.00
+2.00,+1.00,-4.00,+3.00,+3.00,+15.00,+2.00,-2.00,-43.00,-15.00,+0.00,+4.00,+14.00,+0.00,-3.00,-9.00
-1.00,-4.00,+2.00,-2.00,-2.00,-11.00,-1.00,-1.00,+40.00,-4.00,-4.00,-8.00,-8.00,+3.00,-5.00,+1.00
+5.00,+2.00,+3.00,-1.00,-1.00,-2.00,-1.00,+1.00,-9.00,+1.00,-2.00,+7.00,+2.00,-7.00,-12.00,-12.00
-5.00,-16.00,-5.00,-4.00,-1.00,-2.00,+2.00,+0.00,+6.00,+7.00,+10.00,-2.00,-14.00,-9.00,-8.00,+3.00
+10.00,-6.00,+1.00,-2.00,-1.00,-6.00,-1.00,+3.00,-3.00,-32.00,-5.00,-5.00,-13.00,-18.00,+37.00,+10.00
-3.00,+1.00,-7.00,-4.00,-8.00,-23.00,-7.00,-6.00,-6.00,+28.00,+0.00,-10.00,+33.00,+47.00,-10.00,+9.00
-11.00,-3.00,-6.00,-2.00,-4.00,+10.00,-2.00,-3.00,+46.00,+17.00,+2.00,+6.00,+14.00,+2.00,+4.00,+16.00
+4.00,+15.00,-1.00,+0.00,-5.00,-9.00,-4.00,-3.00,-51.00,-13.00,-7.00,+0.00,-15.00,-7.00,-11.00,-39.00
-4.00,+8.00,+4.00,+1.00,+3.00,+5.00,-1.00,-4.00,+47.00,+13.00,+7.00,+5.00,+5.00,+10.00,+3.00,+46.00
-2.00,-27.00,+2.00,+2.00,-1.00,-10.00,+6.00,+2.00,-30.00,-12.00,+0.00,-2.00,-26.00,-15.00,-1.00,+5.00
-2.00,+19.00,+0.00,-2.00,+3.00,+7.00,+0.00,+3.00,-47.00,-17.00,-5.00,-4.00,+19.00,-5.00,+16.00,-19.00
-2.00,-9.00,-1.00,-3.00,-1.00,-8.00,-2.00,-1.00,+3.00,+9.00,+1.00,+3.00,+8.00,+6.00,-3.00,+26.00
-1.00,-7.00,-3.00,-5.00,+5.00,+3.00,+0.00,+0.00,+0.00,+4.00,-1.00,+3.00,+12.00,+3.00,-15.00,-13.00
-9.00,+24.00,+3.00,-3.00,-9.00,-29.00,-1.00,-1.00,-53.00,-30.00,-14.00,-15.00,-34.00,-15.00,-13.00,-49.00
+13.00,-5.00,-6.00,-2.00,+4.00,+44.00,+6.00,+5.00,-16.00,-12.00,+8.00,+3.00,-13.00,-22.00,-13.00,+16.00
-5.00,+9.00,-1.00,-2.00,-3.00,-9.00,-6.00,-10.00,+86.00,+55.00,+8.00,+1.00,+1.00,+6.00,+13.00,+25.00
+13.00,-8.00,-2.00,-2.00,+4.00,+9.00,+1.00,-1.00,-57.00,-29.00,-2.00,-6.00,-31.00,+3.00,-4.00,-11.00
-27.00,+18.00,+3.00,+5.00,-3.00,+10.00,+0.00,-11.00,-2.00,+0.00,-2.00,-9.00,+43.00,+0.00,-1.00,-1.00
-4.00,-17.00,-4.00,-4.00,-2.00,-2.00,+0.00,-2.00,+12.00,+21.00,+3.00,+25.00,+30.00,-5.00,-12.00,-16.00
+12.00,+21.00,+1.00,-2.00,+1.00,+7.00,+1.00,+2.00,-52.00,-21.00,-5.00,-4.00,-20.00,-7.00,+1.00,-15.00
-3.00,-18.00,-4.00,+0.00,-3.00,-12.00,-14.00,-8.00,+40.00,+12.00,-1.00,+4.00,+13.00,+1.00,-7.00,-5.00
+10.00,-38.00,-7.00,-3.00,+0.00,-18.00,-8.00,-1.00,-48.00,-3.00,-4.00,-2.00,-1.00,-5.00,-2.00,+10.00
-8.00,-37.00,-2.00,-7.00,-7.00,-8.00,+3.00,+12.00,+33.00,-6.00,+2.00,-8.00,-16.00,+3.00,+7.00,+8.00
-21.00,+83.00,+10.00,+3.00,+7.00,-6.00,+3.00,-4.00,+11.00,-5.00,-4.00,+0.00,+5.00,-2.00,+2.00,+4.00
-10.00,-43.00,-4.00,-1.00,-5.00,+0.00,+8.00,-5.00,-29.00,+9.00,-3.00,-7.00,-9.00,-2.00,-13.00,-31.00
+5.00,+106.00,-2.00,-3.00,+4.00,-8.00,-12.00,+4.00,+42.00,-13.00,-1.00,+4.00,-14.00,-8.00,+5.00,+25.00
+2.00,-17.00,-3.00,-1.00,+0.00,-4.00,-4.00,-10.00,-45.00,-55.00,-32.00,-20.00,+4.00,+2.00,-20.00,-62.00
+36.00,-23.00,+1.00,-11.00,-5.00,-7.00,+1.00,+18.00,+26.00,+80.00,+19.00,+6.00,-17.00,+2.00,+21.00,+75.00
-19.00,-2.00,+6.00,+4.00,+0.00,-3.00,-14.00,-6.00,-12.00,+27.00,+16.00,+6.00,+10.00,+7.00,-9.00,+18.00
-12.00,-13.00,+1.00,-1.00,+3.00,+14.00,+6.00,+1.00,+5.00,+12.00,+5.00,+9.00,-1.00,-11.00,+29.00,+11.00
-12.00,+11.00,+0.00,-5.00,-1.00,-20.00,+1.00,-2.00,-25.00,-6.00,+1.00,-1.00,+3.00,-9.00,+2.00,+10.00
+2.00,-18.00,+0.00,-2.00,+2.00,+11.00,+6.00,+0.00,-36.00,-45.00,-17.00,-11.00,+8.00,+10.00,-22.00,-56.00
+2.00,+3.00,-3.00,-3.00,-6.00,-17.00,-2.00,+3.00,+4.00,-14.00,-9.00,-24.00,+31.00,+0.00,-3.00,-12.00
-2.00,-27.00,-7.00,-17.00,-7.00,+9.00,-18.00,+29.00,+9.00,+13.00,+10.00,+26.00,-62.00,-1.00,+4.00,+13.00
-8.00,+19.00,+6.00,+23.00,+14.00,+26.00,+13.00,-41.00,-8.00,-12.00,-8.00,-10.00,-11.00,-11.00,-4.00,+10.00
+1.00,-59.00,-2.00,+1.00,-2.00,+7.00,-1.00,-7.00,-80.00,-63.00,-21.00,-16.00,+10.00,-28.00,-5.00,-62.00
+4.00,+56.00,+4.00,+2.00,+10.00,-21.00,+1.00,-1.00,+60.00,+61.00,+15.00,+9.00,-36.00,+4.00,+5.00,+56.00
-4.00,-4.00,+1.00,-3.00,-9.00,-53.00,-12.00,-12.00,-9.00,-8.00,+4.00,+9.00,+44.00,+14.00,-14.00,-6.00
+1.00,+24.00,+4.00,-5.00,+3.00,+22.00,+0.00,+16.00,+5.00,+3.00,+4.00,-5.00,-13.00,+19.00,+11.00,+8.00
-5.00,-7.00,-3.00,-6.00,+0.00,+23.00,+4.00,-2.00,-11.00,-3.00,-2.00,+7.00,+21.00,-19.00,-13.00,-5.00
+0.00,-17.00,-11.00,-7.00,-8.00,-11.00,-1.00,+0.00,-38.00,-27.00,-9.00,-6.00,-8.00,+0.00,+5.00,-37.00
+3.00,-5.00,+3.00,-2.00,-2.00,+0.00,+7.00,-3.00,+18.00,-7.00,-7.00,-11.00,-7.00,-12.00,-10.00,-19.00
+0.00,+20.00,+1.00,-3.00,-4.00,-11.00,-5.00,+0.00,+4.00,+2.00,+2.00,+1.00,+5.00,-4.00,-14.00,+9.00
-9.00,+5.00,-1.00,+3.00,-4.00,-18.00,-7.00,-11.00,+15.00,+3.00,-1.00,-8.00,-5.00,+12.00,+24.00,+45.00
-4.00,+5.00,-2.00,-4.00,-5.00,+8.00,+1.00,+10.00,+10.00,-4.00,+0.00,+9.00,+6.00,-14.00,-6.00,-13.00
-2.00,-26.00,-3.00,+3.00,+5.00,+20.00,+12.00,-8.00,-17.00,-1.00,-2.00,-3.00,-24.00,-7.00,-22.00,-8.00
-2.00,-79.00,-18.00,-21.00,-14.00,-15.00,-13.00,-1.00,+17.00,-4.00,+3.00,+2.00,+20.00,-10.00,+12.00,-13.00
+6.00,+48.00,+21.00,+21.00,+9.00,-4.00,+3.00,+15.00,+17.00,+14.00,+0.00,+1.00,-23.00,+7.00,+0.00,+4.00
+1.00,-14.00,+6.00,+1.00,+5.00,+16.00,+10.00,+4.00,-5.00,-3.00,-9.00,-2.00,-5.00,+4.00,+9.00,+13.00
+2.00,-22.00,-2.00,+4.00,+3.00,+23.00,+6.00,-1.00,+37.00,+25.00,+1.00,-5.00,+56.00,-2.00,-16.00,+10.00
-1.00,+25.00,+3.00,-1.00,-4.00,-11.00,+1.00,+2.00,-36.00,-20.00,+3.00,+0.00,-74.00,+4.00,+6.00,+7.00
-3.00,-36.00,-13.00,-9.00,-12.00,-17.00,-22.00,-3.00,-19.00,-6.00,-3.00,+0.00,+8.00,-9.00,-10.00,-26.00
+5.00,-3.00,-2.00,-4.00,-15.00,-39.00,+0.00,+0.00,+31.00,-3.00,-1.00,-1.00,-11.00,-14.00,-7.00,+18.00
+0.00,+17.00,+4.00,+20.00,+19.00,+85.00,+21.00,+11.00,+25.00,-17.00,-6.00,+0.00,+29.00,-6.00,+3.00,-22.00
-2.00,-8.00,-10.00,-17.00,-11.00,-12.00,-32.00,-3.00,-26.00,-4.00,-8.00,-27.00,-40.00,-46.00,+27.00,+12.00
-3.00,-44.00,-9.00,-21.00,-21.00,-97.00,+37.00,+7.00,+17.00,-1.00,+6.00,+15.00,+50.00,+73.00,-45.00,-6.00
-1.00,-31.00,+8.00,+30.00,+30.00,+118.00,+26.00,-10.00,-21.00,-18.00,-1.00,+6.00,-46.00,+9.00,-11.00,+8.00
-2.00,+21.00,+1.00,-7.00,+0.00,-5.00,+0.00,-9.00,+32.00,-25.00,+5.00,+0.00,-6.00,-15.00,+33.00,+13.00
+2.00,+32.00,+6.00,+1.00,+5.00,+0.00,+6.00,+2.00,+35.00,+16.00,+5.00,+14.00,+7.00,+13.00,-3.00,+9.00
+0.00,-2.00,-4.00,-4.00,-1.00,+20.00,-19.00,-4.00,-49.00,+14.00,+7.00,+3.00,-13.00,-18.00,+10.00,-13.00
+0.00,+28.00,-4.00,-8.00,-12.00,-49.00,-11.00,+2.00,-13.00,-6.00,-9.00,-11.00,-17.00,-21.00,-26.00,-47.00
+0.00,-21.00,-2.00,-1.00,-4.00,-26.00,+2.00,+8.00,+42.00,+17.00,+1.00,-8.00,-10.00,+42.00,+37.00,+45.00
-5.00,-9.00,-1.00,+3.00,-1.00,+8.00,-4.00,-8.00,+23.00,+9.00,+1.00,+7.00,+27.00,-2.00,-26.00,+5.00
-3.00,-22.00,+0.00,-4.00,+0.00,+0.00,+0.00,-4.00,+25.00,+8.00,-4.00,-10.00,-11.00,-15.00,+11.00,-4.00
+2.00,+60.00,+5.00,-3.00,-5.00,-6.00,-5.00,-3.00,-58.00,-26.00,-5.00,+0.00,+17.00,-2.00,-3.00,-28.00
-2.00,-1.00,+0.00,+6.00,+9.00,+31.00,-11.00,+3.00,+4.00,+5.00,-1.00,-4.00,-28.00,-14.00,-5.00,+1.00
-2.00,+10.00,+1.00,-9.00,-6.00,-8.00,+11.00,+3.00,-33.00,+1.00,-7.00,-24.00,-7.00,+7.00,-11.00,-40.00
-4.00,-5.00,-7.00,-6.00,+2.00,+14.00,-6.00,+2.00,+57.00,+5.00,-3.00,+17.00,-16.00,-15.00,-2.00,+63.00
+0.00,-89.00,-11.00,+0.00,-6.00,-9.00,-6.00,+0.00,+4.00,+8.00,+7.00,+10.00,+12.00,+8.00,-4.00,-26.00
-2.00,+62.00,+4.00,-2.00,-16.00,-42.00,-16.00,-7.00,-21.00,-11.00,-8.00,+2.00,-3.00,-6.00,+7.00,-35.00
+2.00,+5.00,+3.00,+10.00,+12.00,-2.00,+8.00,+1.00,+33.00,+27.00,+14.00,+9.00,+51.00,+42.00,-12.00,+17.00
-2.00,+13.00,-1.00,-5.00,+5.00,+29.00,+5.00,+1.00,+11.00,-28.00,-6.00,-15.00,-14.00,-17.00,-11.00,-15.00
-1.00,+10.00,+1.00,-5.00,+6.00,-1.00,-4.00,+1.00,-27.00,-6.00,-8.00,-1.00,-37.00,-22.00,+16.00,+20.00
-1.00,-56.00,-8.00,-12.00,-13.00,-18.00,-9.00,-1.00,-50.00,+8.00,+2.00,+4.00,+50.00,+37.00,+8.00,-20.00
-1.00,-61.00,-6.00,-8.00,-6.00,-32.00,+3.00,-2.00,-8.00,+9.00,-2.00,+9.00,+5.00,-16.00,-4.00,+0.00
-5.00,+117.00,+14.00,+5.00,-6.00,-1.00,-32.00,-12.00,+10.00,+3.00,-5.00,-5.00,-14.00,+3.00,+16.00,+12.00
-3.00,-82.00,-5.00,+0.00,-3.00,+21.00,+15.00,-17.00,+36.00,-10.00,+4.00,+6.00,+32.00,+14.00,+5.00,+22.00
-7.00,+62.00,+10.00,+6.00,+6.00,-1.00,-14.00,-1.00,-60.00,-19.00,-8.00,-14.00,-21.00,-20.00,-18.00,-18.00
+2.00,-18.00,-6.00,+1.00,+6.00,+21.00,+16.00,+38.00,+29.00,+7.00,-1.00,+4.00,+1.00,-7.00,+9.00,+40.00
+0.00,-40.00,-4.00,-1.00,+5.00,+8.00,-2.00,-5.00,-28.00,-21.00,+1.00,-1.00,+17.00,+5.00,+4.00,-20.00
+3.00,-6.00,-6.00,-17.00,-13.00,-24.00,-42.00,+5.00,-31.00,+18.00,-7.00,-19.00,-15.00,+5.00,-4.00,-14.00
+1.00,-51.00,-4.00,+14.00,+6.00,-25.00,+21.00,-25.00,+11.00,-31.00,+6.00,+14.00,-24.00,-19.00,-17.00,+33.00
-8.00,+11.00,+2.00,+4.00,+2.00,+18.00,+43.00,+41.00,-27.00,+13.00,+1.00,-3.00,+9.00,-4.00,-8.00,-28.00
+1.00,+17.00,-3.00,+2.00,-2.00,+21.00,+5.00,-16.00,-46.00,-4.00,+1.00,-6.00,+33.00,-3.00,+3.00,-4.00
+0.00,+24.00,+2.00,-2.00,-3.00,-1.00,-6.00,+3.00,-46.00,-4.00,-5.00,-7.00,-18.00,+3.00,+5.00,-19.00
+0.00,-19.00,-4.00,-7.00,+1.00,-6.00,-2.00,-11.00,+23.00,+19.00,+1.00,+8.00,-10.00,+9.00,-21.00,+11.00
+0.00,+28.00,+3.00,-12.00,-18.00,-72.00,-31.00,-13.00,-56.00,-16.00,-6.00,+6.00,+12.00,+17.00,+34.00,-49.00
-3.00,-50.00,-6.00,+7.00,+11.00,+59.00,+14.00,-5.00,+49.00,-6.00,+1.00,-1.00,-16.00,-22.00,+14.00,+47.00
+4.00,+6.00,+6.00,+5.00,+3.00,+10.00,+12.00,-5.00,+2.00,+14.00,+0.00,-7.00,+3.00,+26.00,+1.00,+19.00
-1.00,+10.00,-4.00,-9.00,-2.00,+4.00,+10.00,+19.00,+21.00,+15.00,+2.00,-10.00,-12.00,-7.00,-4.00,-16.00
+0.00,+38.00,+14.00,+8.00,+4.00,-4.00,-17.00,-17.00,-5.00,-2.00,+4.00,+7.00,+11.00,-6.00,-7.00,+13.00
+2.00,-15.00,-8.00,-8.00,-7.00,-21.00,-2.00,-2.00,+1.00,-12.00,-19.00,-13.00,-18.00,+2.00,-11.00,-25.00
+3.00,+11.00,-4.00,+4.00,+6.00,-7.00,-6.00,+0.00,+42.00,+10.00,+5.00,+4.00,+17.00,-2.00,+5.00,+8.00
-1.00,-23.00,+0.00,+3.00,+2.00,-2.00,-6.00,+6.00,-59.00,+11.00,+2.00,+0.00,+20.00,-1.00,+2.00,+21.00
-3.00,-22.00,-8.00,-4.00,-7.00,+13.00,-12.00,-14.00,+56.00,+12.00,+6.00,-6.00,-43.00,-13.00,-13.00,+0.00
+2.00,+77.00,+11.00,-4.00,+3.00,-12.00,+1.00,+3.00,-42.00,-9.00,+3.00,+2.00,-26.00,+0.00,-6.00,-51.00
-3.00,+39.00,+4.00,+4.00,+1.00,+4.00,+4.00,+7.00,+47.00,+0.00,-4.00,+1.00,+0.00,-21.00,-4.00,+25.00
+1.00,-43.00,-9.00,-12.00,-9.00,-19.00,-17.00,-4.00,-4.00,-7.00,-8.00,-5.00,+49.00,+20.00,-11.00,-19.00
-3.00,+8.00,+3.00,+0.00,+4.00,+18.00,+9.00,-14.00,+10.00,-2.00,+2.00,+7.00,-4.00,+13.00,+7.00,+6.00
+3.00,+7.00,+2.00,-1.00,-4.00,-8.00,-8.00,+15.00,-31.00,-10.00,-3.00,+2.00,+27.00,-5.00,-11.00,-14.00
-1.00,-24.00,-3.00,-7.00,-5.00,-35.00,+17.00,+19.00,+43.00,-5.00,+2.00,-10.00,-74.00,-38.00,-9.00,-3.00
-2.00,+28.00,+5.00,+4.00,+2.00,+52.00,+0.00,-8.00,+32.00,+7.00,-4.00,+5.00,+18.00,-4.00,+21.00,-3.00
+5.00,-31.00,-7.00,-5.00,-6.00,-9.00,-6.00,-12.00,-27.00,+8.00,-2.00,-3.00,+18.00,+12.00,+1.00,+15.00
-1.00,-20.00,-4.00,-4.00,-2.00,+23.00,+2.00,-2.00,+21.00,+0.00,-1.00,-1.00,-21.00,+3.00,-5.00,-5.00
-2.00,+20.00,+2.00,-4.00,+2.00,-47.00,-3.00,+0.00,-36.00,-9.00,-1.00,+5.00,+36.00,+2.00,-14.00,-29.00
-1.00,-32.00,-5.00,+1.00,+2.00,+15.00,+4.00,-1.00,-16.00,-33.00,-9.00,-16.00,-32.00,-19.00,+1.00,-4.00
+4.00,+5.00,-2.00,-2.00,-1.00,+30.00,-5.00,-5.00,-57.00,+1.00,-11.00,-8.00,-7.00,+0.00,-8.00,+1.00
-1.00,-20.00,-1.00,+2.00,+7.00,+5.00,+21.00,-6.00,+81.00,+17.00,+20.00,+9.00,-3.00,-4.00,+13.00,+37.00
+2.00,+15.00,-6.00,-4.00,-3.00,-1.00,+5.00,-5.00,-17.00,+3.00,-11.00,-3.00,+18.00,+6.00,+9.00,+20.00
+3.00,-6.00,+3.00,-5.00,-5.00,-7.00,+7.00,+3.00,+40.00,+29.00,+7.00,+6.00,+3.00,+1.00,-6.00,-9.00
+4.00,+9.00,+1.00,-3.00,+4.00,-2.00,-1.00,-6.00,-4.00,-23.00,-9.00,-6.00,-13.00,-4.00,-5.00,-12.00
-1.00,-46.00,-10.00,-12.00,-4.00,-19.00,-13.00,-5.00,-30.00,+0.00,+1.00,-3.00,-4.00,-2.00,-8.00,-24.00
+3.00,-5.00,+6.00,+7.00,+1.00,+16.00,+0.00,+5.00,-11.00,-15.00,-9.00,+0.00,+16.00,+8.00,+7.00,+24.00
-3.00,+9.00,+4.00,+7.00,+0.00,+1.00,+12.00,-15.00,-14.00,-18.00,-3.00,-1.00,-19.00,-8.00,-16.00,-41.00
+2.00,-10.00,-3.00,-5.00,+2.00,+28.00,-11.00,+4.00,+44.00,+1.00,-8.00,-10.00,+22.00,-17.00,+1.00,+45.00
+0.00,-5.00,+2.00,+3.00,+2.00,+9.00,-1.00,-4.00,+71.00,+36.00,+1.00,-8.00,-27.00,+13.00,-16.00,+7.00
-3.00,-22.00,-8.00,-2.00,+2.00,+7.00,-19.00,-14.00,+14.00,+0.00,+11.00,+14.00,-12.00,+2.00,+2.00,-7.00
+2.00,+24.00,-2.00,-7.00,-5.00,-38.00,+32.00,+9.00,-38.00,-5.00,+1.00,+4.00,+3.00,-8.00,-9.00,-10.00
-6.00,+0.00,+3.00,+3.00,+1.00,+35.00,+12.00,+0.00,-2.00,-3.00,+1.00,-3.00,-3.00,-4.00,+0.00,-7.00
-3.00,-12.00,-7.00,-7.00,-4.00,-1.00,-1.00,+0.00,-40.00,-18.00,-7.00,-4.00,+4.00,-3.00,-1.00,-3.00
-3.00,+9.00,+4.00,-3.00,+5.00,+2.00,+0.00,-3.00,+49.00,+20.00,+2.00,-20.00,+66.00,-1.00,-22.00,-22.00
+0.00,-23.00,-2.00,-1.00,-6.00,+15.00,-9.00,+3.00,-8.00,+24.00,+3.00,+19.00,-82.00,-34.00,+15.00,+5.00
+1.00,+35.00,+0.00,-1.00,+1.00,-16.00,-4.00,-2.00,-6.00,-8.00,+3.00,+9.00,+23.00,+13.00,-12.00,-11.00
+1.00,+1.00,-1.00,-5.00,-2.00,-8.00,+5.00,+6.00,-14.00,-13.00,-7.00,+0.00,-8.00,+0.00,+6.00,-5.00
-8.00,+10.00,-2.00,-3.00,-8.00,+12.00,-3.00,+0.00,-59.00,-28.00,-15.00,-12.00,+12.00,-4.00,-8.00,-29.00
-1.00,+6.00,-7.00,-13.00,-8.00,-13.00,-14.00,+0.00,+52.00,+9.00,-2.00,-9.00,+18.00,-4.00,+2.00,+26.00
-1.00,-93.00,-2.00,-5.00,-3.00,-17.00,+0.00,+7.00,+50.00,+76.00,+20.00,+9.00,-7.00,+3.00,+1.00,-10.00
-1.00,-39.00,-6.00,+4.00,+2.00,+5.00,-5.00,-15.00,-8.00,+0.00,-5.00,-1.00,+1.00,-3.00,+10.00,+19.00
+1.00,+106.00,+25.00,+10.00,+8.00,-3.00,+8.00,+4.00,-66.00,-25.00,-3.00,+2.00,-11.00,-5.00,+1.00,-13.00
-2.00,-35.00,-2.00,-1.00,+4.00,-4.00,-5.00,-1.00,+25.00,-33.00,-4.00,-6.00,+4.00,+6.00,-8.00,+8.00
-3.00,-3.00,-22.00,-9.00,-4.00,-11.00,-6.00,-5.00,-40.00,-47.00,-10.00,-5.00,-8.00,+0.00,+1.00,-5.00
+2.00,-16.00,+25.00,-1.00,-3.00,-16.00,-7.00,-1.00,+76.00,+83.00,+12.00,+2.00,-2.00,+0.00,+2.00,+11.00
-1.00,-57.00,-13.00,-6.00,-5.00,+11.00,+2.00,+0.00,+26.00,+3.00,+1.00,+8.00,-18.00,+0.00,+4.00,+3.00
-3.00,+28.00,-3.00,-2.00,-2.00,-2.00,+0.00,+11.00,-10.00,+17.00,+1.00,-1.00,+6.00,+9.00,-2.00,-1.00
-6.00,+16.00,+7.00,-3.00,-2.00,-1.00,-5.00,-13.00,-3.00,-49.00,+2.00,+3.00,+18.00,+5.00,+1.00,+5.00
+2.00,-5.00,-16.00,-1.00,+0.00,-19.00,+6.00,-2.00,-46.00,-8.00,-13.00,-11.00,-3.00,-14.00,-9.00,-30.00
-2.00,+17.00,+0.00,+2.00,+5.00,+1.00,+9.00,+1.00,+2.00,-8.00,+8.00,+4.00,-6.00,+10.00,+15.00,+32.00
-6.00,+3.00,+8.00,+0.00,+1.00,+4.00,-9.00,-2.00,+14.00,+47.00,+6.00,+4.00,-31.00,+1.00,-16.00,-41.00
-1.00,+0.00,-4.00,-4.00,-2.00,-7.00,+5.00,-1.00,+7.00,+15.00,+6.00,+1.00,+22.00,-8.00,+6.00,+29.00
+0.00,-13.00,-5.00,-8.00,-8.00,-6.00,-11.00,+3.00,-60.00,-83.00,-15.00,-3.00,-12.00,-8.00,-12.00,-31.00
+3.00,-13.00,+1.00,-13.00,-20.00,-61.00,-8.00,-15.00,+80.00,+76.00,+10.00,+8.00,-7.00,+10.00,+22.00,+51.00
+3.00,+26.00,-4.00,+21.00,+28.00,+83.00,+19.00,+4.00,-42.00,+11.00,+5.00,-3.00,+86.00,+11.00,-1.00,+5.00
-1.00,+5.00,+5.00,-1.00,-7.00,-15.00,-12.00,-3.00,+24.00,+12.00,-1.00,+8.00,-3.00,+14.00,-1.00,-11.00
-6.00,+8.00,-9.00,-11.00,+3.00,-4.00,-1.00,+6.00,-12.00,-14.00,-1.00,-2.00,-11.00,+4.00,-1.00,-14.00
-2.00,-65.00,-6.00,-5.00,-7.00,+14.00,-1.00,-9.00,-12.00,-14.00,-9.00,-7.00,-1.00,+7.00,+1.00,+6.00
-1.00,-34.00,-3.00,-4.00,-12.00,-30.00,-8.00,-10.00,-126.00,-62.00,-4.00,-8.00,-21.00,-10.00,-11.00,-53.00
+3.00,+92.00,+14.00,+10.00,+7.00,-7.00,+5.00,+1.00,+112.00,+45.00,+8.00,-2.00,+13.00,-2.00,-15.00,+71.00
+3.00,-24.00,-5.00,-3.00,-3.00,+9.00,-6.00,+0.00,-68.00,+12.00,+7.00,-3.00,+45.00,+10.00,+3.00,+11.00
-2.00,+2.00,-8.00,-5.00,-2.00,+6.00,+2.00,+8.00,-40.00,-13.00,-7.00,+11.00,-92.00,-6.00,-2.00,-4.00
-7.00,-30.00,+0.00,-7.00,-5.00,-17.00,-9.00,-1.00,+54.00,+10.00,-4.00,-3.00,-17.00,-6.00,-7.00,+2.00
-1.00,-1.00,+4.00,-1.00,+3.00,+4.00,+0.00,+2.00,-11.00,-23.00,-4.00,-2.00,-5.00,-7.00,+7.00,-1.00
+0.00,+16.00,+1.00,+3.00,-2.00,-6.00,+8.00,+5.00,-15.00,-13.00,-13.00,-5.00,-16.00,-7.00,-1.00,-13.00
+0.00,-38.00,-9.00,+0.00,+5.00,+24.00,-2.00,+4.00,+62.00,+49.00,+14.00,+3.00,+36.00,-1.00,-2.00,+24.00
-1.00,+28.00,+1.00,+4.00,+0.00,-2.00,-3.00,-1.00,+2.00,-32.00,-1.00,-7.00,+0.00,-5.00,+0.00,+4.00
-4.00,+15.00,+2.00,-6.00,-4.00,-11.00,-1.00,-1.00,-57.00,-38.00,-3.00,-1.00,-45.00,+6.00,+3.00,-25.00
+0.00,-44.00,-12.00,-10.00,-8.00,-6.00,-9.00,-8.00,+38.00,+0.00,+0.00,-5.00,+1.00,+1.00,+6.00,+20.00
-2.00,+66.00,+8.00,+9.00,+12.00,+29.00,+12.00,+5.00,-8.00,-14.00,-10.00,-1.00,+17.00,-6.00,-8.00,-10.00
-1.00,-26.00,+3.00,-4.00,-5.00,-22.00,-7.00,+6.00,-9.00,-5.00,+10.00,+8.00,+0.00,+7.00,+9.00,+36.00
-6.00,-57.00,-13.00,-4.00,+2.00,+12.00,-2.00,-16.00,-23.00,-31.00,-19.00,-13.00,+3.00,-6.00,-5.00,-26.00
+3.00,-1.00,+5.00,-6.00,-6.00,-7.00,-7.00,-2.00,-4.00,+3.00,-15.00,-8.00,-13.00,-5.00,-12.00,-11.00
-8.00,-69.00,+0.00,+8.00,+5.00,+6.00,+10.00,+5.00,+8.00,+27.00,+11.00,+7.00,+18.00,+10.00,+19.00,+28.00
-1.00,-8.00,-8.00,-7.00,-8.00,-33.00,-3.00,-2.00,+29.00,+9.00,-12.00,-7.00,+14.00,+3.00,-6.00,-5.00
+1.00,-17.00,+4.00,+11.00,+0.00,-8.00,-4.00,-8.00,-7.00,+33.00,+2.00,-13.00,-45.00,-23.00,-7.00,-22.00
-4.00,-51.00,-14.00,-3.00,-1.00,-9.00,-4.00,-14.00,-19.00,-50.00,-3.00,+14.00,+2.00,+15.00,-4.00,-23.00
+3.00,-37.00,-15.00,-9.00,-4.00,-2.00,-21.00,-8.00,-36.00,-6.00,-2.00,+0.00,-11.00,-10.00,-11.00,-38.00
-1.00,+19.00,+15.00,-1.00,-1.00,+2.00,+9.00,+9.00,+0.00,-33.00,-10.00,-14.00,+87.00,+3.00,+11.00,+51.00
-1.00,-76.00,-8.00,+2.00,+1.00,-8.00,-13.00,-3.00,-54.00,+45.00,+12.00,-1.00,-91.00,+9.00,+4.00,-26.00
-6.00,+46.00,+11.00,+6.00,+4.00,+14.00,+14.00,+2.00,+2.00,+34.00,+6.00,+13.00,+14.00,-10.00,-4.00,-20.00
+6.00,-15.00,-2.00,+3.00,-4.00,-10.00,-7.00,-6.00,-14.00,-23.00,+2.00,+2.00,+8.00,+3.00,+4.00,+4.00
+1.00,+6.00,-9.00,-4.00,+2.00,+23.00,+6.00,+5.00,-35.00,+13.00,-9.00,-3.00,-14.00,-14.00,-12.00,-30.00
+2.00,+20.00,+1.00,-9.00,+2.00,+2.00,-6.00,-5.00,+85.00,-60.00,-15.00,-13.00,+72.00,+23.00,-1.00,-1.00
-1.00,+5.00,+2.00,-6.00,-5.00,-12.00,-9.00,-5.00,+31.00,+66.00,+25.00,+7.00,-55.00,+7.00,+12.00,+11.00
+1.00,+67.00,+8.00,+6.00,-1.00,+20.00,+15.00,+10.00,-47.00,-32.00,+8.00,+6.00,+22.00,+7.00,+4.00,+9.00
-5.00,+22.00,+8.00,-7.00,+4.00,-31.00,-11.00,-3.00,-8.00,+34.00,+1.00,+6.00,-40.00,-8.00,-1.00,-7.00
-3.00,-25.00,+7.00,-5.00,-1.00,+16.00,+10.00,+8.00,-63.00,-6.00,-9.00,+3.00,+27.00,-4.00,-4.00,-12.00
-5.00,+20.00,+1.00,+2.00,+5.00,-3.00,+0.00,+8.00,+55.00,-16.00,-4.00,-8.00,-28.00,-5.00,+2.00,+16.00
-2.00,-37.00,-15.00,-11.00,-9.00,-23.00,-9.00,-14.00,-85.00,-28.00,-2.00,-12.00,+3.00,-5.00,-24.00,-84.00
+6.00,-37.00,-30.00,+3.00,-4.00,+8.00,-1.00,-7.00,+64.00,+2.00,+16.00,+13.00,+36.00,+5.00,+16.00,+61.00
-1.00,-17.00,+22.00,-6.00,-5.00,-5.00,-4.00,+8.00,-14.00,+31.00,+0.00,-4.00,-28.00,-8.00,+0.00,+3.00
-6.00,-52.00,-2.00,-2.00,-2.00,-1.00,+0.00,+0.00,-94.00,-68.00,-22.00,-9.00,+0.00,+5.00,-16.00,-48.00
-5.00,+101.00,+12.00,+7.00,+4.00,+7.00,+3.00,+20.00,+86.00,+67.00,-6.00,-10.00,-11.00,-9.00,+12.00,+62.00
-1.00,+10.00,+4.00,-10.00,-9.00,-25.00,-8.00,-3.00,+3.00,-15.00,-10.00,-4.00,-4.00,-2.00,-15.00,-41.00
+2.00,-62.00,-22.00,-7.00,+8.00,+23.00,+11.00,+0.00,-77.00,+99.00,+32.00,+22.00,+30.00,+12.00,+41.00,+96.00
+0.00,+105.00,+11.00,-3.00,-14.00,-46.00,-14.00,+4.00,+33.00,-53.00,+1.00,-4.00,+4.00,-5.00,-10.00,-15.00
+1.00,-91.00,-2.00,+8.00,+8.00,+63.00,+3.00,-6.00,+38.00,-20.00,-11.00,+4.00,+12.00,-5.00,-5.00,-9.00
+0.00,+17.00,+1.00,-13.00,-9.00,+7.00,-4.00,-9.00,+14.00,+2.00,+7.00,+5.00,-6.00,+8.00,-8.00,-31.00
+0.00,+100.00,+10.00,+10.00,+5.00,-54.00,-2.00,+6.00,+38.00,-24.00,-15.00,-7.00,-20.00,-10.00,-13.00,-22.00
-3.00,-25.00,-4.00,-1.00,+5.00,+30.00,+2.00,-8.00,+124.00,+69.00,+1.00,-3.00,-1.00,-1.00,+15.00,+52.00
-4.00,-28.00,+0.00,+5.00,+4.00,+24.00,+3.00,-4.00,-77.00,-83.00,-10.00,-12.00,+13.00,+0.00,-5.00,-16.00
-2.00,+3.00,-3.00,+1.00,-1.00,+4.00,-4.00,-12.00,-126.00,-37.00,-28.00,-20.00,-1.00,-12.00,-15.00,-62.00
+4.00,-33.00,-15.00,-7.00,-20.00,-22.00,-14.00,-13.00,+98.00,+73.00,+32.00,+18.00,-14.00,+6.00,+11.00,+38.00
-2.00,+84.00,+24.00,+14.00,+17.00,-14.00,+10.00,+19.00,-108.00,-34.00,+16.00,+12.00,+27.00,+6.00,+13.00,+48.00
-2.00,+20.00,+5.00,-11.00,+3.00,-4.00,+4.00,-3.00,+51.00,+53.00,-9.00,-5.00,-20.00,-17.00,-21.00,-41.00
+3.00,-35.00,+0.00,-15.00,+1.00,+5.00,-3.00,-4.00,-17.00,+4.00,-3.00,+5.00,-11.00,+3.00,+6.00,+13.00
-1.00,-63.00,-14.00,-14.00,-14.00,-3.00,-2.00,+2.00,+42.00,-12.00,-12.00,-4.00,-29.00,+0.00,-3.00,-6.00
+2.00,-113.00,-27.00,+1.00,+1.00,+36.00,-5.00,-18.00,-69.00,-31.00,+5.00,-19.00,-20.00,-12.00,+9.00,+24.00
-3.00,+75.00,+23.00,-3.00,-5.00,-28.00,-6.00,+8.00,+98.00,+27.00,+19.00,+19.00,-46.00,+9.00,+2.00,-19.00
-5.00,-3.00,+14.00,+2.00,+9.00,+24.00,+11.00,-1.00,-16.00,-96.00,-21.00,-6.00,-13.00,-8.00,-8.00,-10.00
+1.00,+47.00,+1.00,-14.00,-2.00,-27.00,+3.00,+8.00,+8.00,+27.00,+4.00,-2.00,+37.00,-2.00,-4.00,+8.00
-1.00,-56.00,-17.00,-14.00,-5.00,+4.00,-10.00,-1.00,+105.00,-40.00,-40.00,-12.00,+7.00,-15.00,-36.00,-99.00
-5.00,-128.00,-3.00,+14.00,+4.00,-10.00,+5.00,-10.00,-65.00,-29.00,+30.00,+8.00,+10.00,+15.00,+28.00,+71.00
+0.00,+95.00,-12.00,-3.00,-7.00,+13.00,-8.00,+3.00,+2.00,+122.00,+16.00,+1.00,-3.00,+5.00,+9.00,+27.00
-8.00,-35.00,+17.00,+22.00,+17.00,+26.00,+24.00,-2.00,+24.00,-69.00,-13.00,-8.00,+10.00,-7.00,-12.00,-18.00
-2.00,+24.00,+4.00,-5.00,-5.00,-20.00,+0.00,+0.00,+75.00,+72.00,-22.00,-8.00,+4.00,-1.00,-6.00,-10.00
-4.00,+70.00,-9.00,-11.00,-8.00,-3.00,-4.00,+4.00,-102.00,-107.00,+0.00,+1.00,+12.00,-3.00,-10.00,-54.00
+1.00,-13.00,+6.00,-2.00,-1.00,-26.00,-5.00,-4.00,+52.00,+79.00,+37.00,+11.00,-16.00,+6.00,+10.00,+35.00
-5.00,-70.00,-31.00,-14.00,-6.00,-5.00,-15.00,-16.00,-109.00,-91.00,+13.00,+1.00,+30.00,+4.00,-8.00,-40.00
+3.00,-74.00,+2.00,-5.00,-1.00,+1.00,+4.00,+0.00,-92.00,-27.00,+6.00,+3.00,-31.00,-9.00,-6.00,-37.00
-9.00,-13.00,+0.00,-6.00,-11.00,-17.00,-6.00,+3.00,+8.00,+106.00,+4.00,+4.00,+21.00,+11.00,+24.00,+78.00
-5.00,-128.00,-16.00,-10.00,-4.00,-11.00,-5.00,-1.00,-53.00,-19.00,-2.00,-2.00,-26.00,-3.00,-13.00,-34.00
+0.00,+127.00,+37.00,+15.00,+8.00,+2.00,+11.00,+9.00,-47.00,+18.00,-16.00,-6.00,+8.00,-4.00,-6.00,-11.00
-1.00,-81.00,+8.00,+15.00,+9.00,+41.00,+17.00,-10.00,-58.00,-17.00,-3.00,+1.00,+18.00,-1.00,-2.00,-21.00
+6.00,-56.00,-21.00,-1.00,-2.00,-26.00,-19.00,-16.00,+79.00,+46.00,+11.00,+4.00,+8.00,+0.00,-13.00,-6.00
+0.00,-29.00,-9.00,-17.00,-8.00,+5.00,-5.00,-9.00,+29.00,-58.00,+9.00,+6.00,+7.00,+8.00,+16.00,+22.00
-6.00,-112.00,-9.00,-7.00,+13.00,-1.00,-1.00,-1.00,-80.00,-24.00,+5.00,+6.00,-3.00,-3.00,+2.00,-2.00
-7.00,+13.00,-3.00,-5.00,-5.00,+26.00,+6.00,+0.00,+45.00,-3.00,-15.00,-9.00,+2.00,+4.00,+13.00,+52.00
+11.00,+80.00,+26.00,+31.00,+29.00,+63.00,+24.00,+15.00,-50.00,-15.00,+6.00,+11.00,+12.00,+6.00,+16.00,+64.00
+0.00,-66.00,-22.00,-3.00,-7.00,-8.00,-7.00,-8.00,+127.00,+121.00,-19.00,-14.00,-14.00,-8.00,-7.00,+8.00
+2.00,-73.00,-38.00,-7.00,-7.00,+0.00,-8.00,-3.00,+42.00,-10.00,+12.00,+6.00,+1.00,+1.00,-6.00,-48.00
-5.00,+119.00,+47.00,-11.00,-13.00,-19.00,-14.00,-2.00,-64.00,-69.00,-1.00,+0.00,+1.00,-2.00,+8.00,+45.00
-1.00,+18.00,-6.00,+4.00,-1.00,-31.00,+4.00,-14.00,+51.00,-19.00,+1.00,-13.00,-11.00,+0.00,-4.00,-17.00
+9.00,+44.00,+12.00,+22.00,+15.00,+11.00,+6.00,-10.00,-26.00,-33.00,+0.00,+9.00,-15.00,-2.00,-4.00,+4.00
-4.00,-62.00,-13.00,-9.00,-11.00,+16.00,-3.00,-6.00,+117.00,+75.00,-20.00,-9.00,+1.00,-2.00,-4.00,+42.00
+6.00,-45.00,-36.00,-10.00,-11.00,-42.00,-16.00,+0.00,-94.00,-88.00,-6.00,-4.00,-9.00,-8.00,-21.00,-62.00
-8.00,+88.00,+33.00,-7.00,-4.00,-4.00,-3.00,+20.00,+50.00,+29.00,-7.00,-2.00,+34.00,-1.00,-3.00,-16.00
+8.00,+56.00,+22.00,+16.00,+11.00,+4.00,+12.00,+7.00,-109.00,-117.00,-15.00,-12.00,-7.00,-3.00,-2.00,-31.00
-7.00,+53.00,+15.00,+4.00,-6.00,-25.00,-8.00,-4.00,+59.00,-98.00,-10.00,-6.00,-7.00,-4.00,-6.00,+24.00
+3.00,+24.00,-24.00,+6.00,+3.00,+37.00,+1.00,+14.00,+22.00,-10.00,+46.00,+29.00,+23.00,+15.00,+36.00,+87.00
+8.00,+15.00,+4.00,-1.00,+5.00,+5.00,+10.00,-1.00,-3.00,-4.00,+15.00,+7.00,-9.00,-1.00,+2.00,+6.00
-6.00,+31.00,-1.00,-1.00,-4.00,+4.00,-1.00,+4.00,-45.00,+11.00,-40.00,-10.00,-3.00,+3.00,+1.00,-13.00
+4.00,+3.00,+0.00,-3.00,-4.00,+1.00,-6.00,-3.00,-70.00,-81.00,+11.00,-7.00,-4.00,-7.00,-4.00,-28.00
-4.00,-74.00,-14.00,-9.00,-5.00,-11.00,-3.00,+18.00,+98.00,+90.00,-6.00,-7.00,+6.00,+0.00,-5.00,-8.00
-11.00,-98.00,-26.00,-7.00,-9.00,-9.00,-14.00,-20.00,-120.00,-61.00,+38.00,+18.00,+6.00,+7.00,+14.00,+12.00
+6.00,+83.00,+9.00,+12.00,+8.00,+3.00,+14.00,+25.00,+90.00,+92.00,-43.00,-14.00,-4.00,-5.00,+0.00,+28.00
-1.00,+26.00,-10.00,-10.00,-5.00,+5.00,+1.00,+3.00,+65.00,-55.00,+20.00,+14.00,+3.00,+1.00,-3.00,-16.00
+6.00,+71.00,+74.00,+25.00,+7.00,-8.00,+3.00,-18.00,+20.00,+15.00,-9.00,-10.00,-5.00,-7.00,-14.00,-31.00
+2.00,-126.00,+8.00,+8.00,+7.00,+4.00,+9.00,-3.00,-51.00,-105.00,-59.00,-18.00,-13.00,-12.00,-26.00,-99.00
-13.00,-43.00,-16.00,-19.00,-20.00,-19.00,-13.00,-7.00,-85.00,+8.00,+33.00,+9.00,+6.00,+0.00,-2.00,-16.00
-7.00,+95.00,+18.00,+12.00,+22.00,+17.00,+8.00,+22.00,+27.00,+22.00,+20.00,+10.00,+10.00,+10.00,+31.00,+76.00
+1.00,-68.00,-33.00,-5.00,-7.00,-20.00,-2.00,-12.00,+66.00,-17.00,+33.00,+18.00,+10.00,+11.00,+13.00,+51.00
-9.00,-46.00,+5.00,-4.00,-4.00,-16.00,-9.00,+3.00,+40.00,+11.00,-15.00,-7.00,-7.00,-10.00,-21.00,-27.00
+0.00,+22.00,-6.00,+8.00,+5.00,+37.00,-4.00,-4.00,-29.00,-120.00,-25.00,-19.00,-11.00,-15.00,-28.00,-71.00
+10.00,-77.00,+1.00,+0.00,-3.00,+11.00,+2.00,-1.00,-115.00,+40.00,-21.00,+6.00,+9.00,+14.00,+38.00,+68.00
+5.00,+33.00,+5.00,+5.00,+3.00,-8.00,-1.00,+14.00,+6.00,+14.00,+22.00,+8.00,+0.00,-3.00,-14.00,-44.00
-1.00,+102.00,+15.00,-14.00,-10.00,-8.00,+1.00,-3.00,+127.00,+61.00,+1.00,-17.00,-12.00,-9.00,+4.00,+18.00
-10.00,-101.00,-12.00,-12.00,-3.00,-18.00,-9.00,-4.00,-19.00,-107.00,-19.00,-4.00,+1.00,+7.00,+12.00,+39.00
+0.00,-51.00,-7.00,-4.00,+0.00,-4.00,+0.00,-13.00,+93.00,+116.00,-7.00,-2.00,-9.00,-9.00,-12.00,+15.00
+2.00,+98.00,+23.00,+16.00,+19.00,+4.00,+23.00,+9.00,+41.00,+48.00,+1.00,-13.00,-4.00,-4.00,-2.00,+41.00
+0.00,+39.00,-8.00,+1.00,-11.00,+1.00,+8.00,+13.00,-13.00,+49.00,-62.00,-30.00,-16.00,-16.00,-26.00,-43.00
+5.00,-60.00,+42.00,+0.00,+37.00,+9.00,+5.00,+11.00,-6.00,-90.00,-5.00,+5.00,+4.00,-2.00,-9.00,-24.00
-10.00,-65.00,+13.00,+5.00,-1.00,+4.00,-6.00,-8.00,+13.00,+46.00,+11.00,+11.00,+9.00,+7.00,+2.00,-3.00
-14.00,-128.00,-40.00,-14.00,-17.00,-21.00,-21.00,-16.00,-82.00,+103.00,+64.00,+12.00,+0.00,+0.00,+10.00,+45.00
-4.00,+106.00,-30.00,-12.00,+4.00,+1.00,+6.00,+14.00,-90.00,-74.00,-46.00,-27.00,-18.00,-16.00,-32.00,-77.00
+5.00,-100.00,+1.00,+8.00,-2.00,-4.00,+3.00,-27.00,+48.00,+127.00,+66.00,+32.00,+22.00,+27.00,+59.00,+127.00
-2.00,+86.00,+73.00,+41.00,+17.00,+13.00,+13.00,-13.00,-18.00,-17.00,-77.00,-18.00,-16.00,-17.00,-25.00,-128.00
+1.00,-104.00,-22.00,-3.00,-6.00,-5.00,-7.00,+3.00,-57.00,-85.00,-33.00,-8.00,-1.00,+1.00,-3.00,-37.00
+0.00,-89.00,-40.00,-19.00,-20.00,-17.00,-22.00,-52.00,+65.00,+46.00,+29.00,+11.00,+4.00,+2.00,-6.00,+27.00
+5.00,+64.00,+38.00,+15.00,-6.00,-7.00,+0.00,+4.00,-79.00,-101.00,+62.00,+26.00,+10.00,+9.00,+6.00,-5.00
+19.00,+28.00,+13.00,+15.00,+13.00,+18.00,+19.00,+34.00,-2.00,-61.00,-47.00,-16.00,-9.00,-10.00,-15.00,-29.00
-4.00,-6.00,+21.00,+18.00,+11.00,+21.00,+15.00,-1.00,-45.00,+59.00,-111.00,-7.00,+9.00,+14.00,+37.00,+63.00
+0.00,-54.00,-33.00,-14.00,-4.00,-6.00,-14.00,-3.00,+58.00,+44.00,+32.00,-1.00,-5.00,-4.00,-3.00,+6.00
-8.00,-104.00,-51.00,-47.00,-39.00,-38.00,-31.00,-17.00,+67.00,+66.00,+22.00,+1.00,-1.00,+0.00,+2.00,+18.00
+6.00,+108.00,+61.00,+16.00,+32.00,+23.00,+32.00,+38.00,-122.00,-85.00,+29.00,-6.00,-7.00,-11.00,-20.00,-58.00
-6.00,-56.00,-33.00,-25.00,-9.00,-2.00,-2.00,+66.00,+11.00,+5.00,-37.00,-23.00,-2.00,-2.00,-7.00,-99.00
+10.00,-128.00,-91.00,-17.00,-8.00,-7.00,-2.00,-15.00,+20.00,-120.00,-53.00,-10.00,+0.00,-2.00,-2.00,-3.00
-5.00,+82.00,+93.00,+22.00,+12.00,-2.00,+3.00,-1.00,-35.00,-3.00,+77.00,+4.00,-8.00,-7.00,-9.00,-11.00
-1.00,-11.00,+10.00,+12.00,-10.00,-3.00,-3.00,+3.00,-42.00,-110.00,+47.00,-2.00,-2.00,-5.00,-14.00,-56.00
+2.00,-91.00,-33.00,-15.00,-12.00,-11.00,-6.00,-21.00,+115.00,+56.00,-39.00,-29.00,-20.00,-18.00,-14.00,+38.00
+0.00,-63.00,-37.00,-13.00,-10.00,-18.00,-18.00,-1.00,-128.00,-128.00,+38.00,+36.00,+23.00,+16.00,+13.00,-5.00
-9.00,+38.00,+7.00,-20.00,-5.00,+0.00,+3.00,+9.00,+21.00,+96.00,-30.00,-14.00,-4.00,-3.00,+1.00,-11.00
-7.00,-128.00,-99.00,-34.00,-17.00,-10.00,-5.00,+2.00,-90.00,-81.00,+28.00,-50.00,-26.00,-27.00,-57.00,-83.00
-12.00,+127.00,+51.00,+16.00,+13.00,+6.00,+3.00,-39.00,+87.00,+2.00,+35.00,+26.00,+5.00,+10.00,+17.00,+89.00
+5.00,-124.00,-19.00,-19.00,-29.00,-25.00,-25.00,+1.00,+62.00,+75.00,+84.00,+27.00,+13.00,+10.00,+36.00,+43.00
+3.00,+51.00,-4.00,+40.00,+36.00,+33.00,+45.00,+40.00,-79.00,-128.00,-86.00,+5.00,+10.00,+4.00,+3.00,-15.00
-14.00,-54.00,+30.00,-13.00,-15.00,-20.00,-27.00,-43.00,-60.00,+127.00,-66.00,+0.00,-4.00,+0.00,+8.00,+44.00
+8.00,-54.00,-23.00,-3.00,-4.00,-1.00,+0.00,+13.00,-107.00,+5.00,-26.00,-35.00,-26.00,-29.00,-57.00,-94.00
-9.00,+2.00,-46.00,-14.00,-7.00,-6.00,-14.00,-38.00,+70.00,+46.00,+0.00,+3.00,+7.00,+15.00,+18.00,+24.00
-13.00,+28.00,+22.00,+13.00,+3.00,+11.00,+13.00,+38.00,+12.00,+79.00,+42.00,+15.00,+2.00,-1.00,-5.00,-75.00
-1.00,-72.00,-62.00,-12.00,-26.00,-21.00,-27.00,-56.00,-36.00,-90.00,-7.00,+15.00,+14.00,+13.00,+31.00,+100.00
+18.00,-5.00,+31.00,+70.00,+29.00,+20.00,+16.00,-30.00,+32.00,-111.00,+39.00,+2.00,+0.00,-3.00,-1.00,-13.00
-2.00,-87.00,-12.00,+40.00,+3.00,+1.00,-4.00,-35.00,-45.00,-14.00,-35.00,-16.00,-18.00,-16.00,-21.00,-41.00
-5.00,-64.00,-29.00,+10.00,-4.00,-3.00,+0.00,-10.00,-36.00,-68.00,+73.00,+33.00,+38.00,+14.00,+16.00,+15.00
+2.00,+45.00,-72.00,-28.00,-4.00,-5.00,-11.00,-5.00,+17.00,+127.00,-28.00,-30.00,-65.00,-7.00,+0.00,+0.00
-6.00,-23.00,+23.00,-64.00,-16.00,-8.00,-8.00,+20.00,+2.00,+54.00,+100.00,+47.00,-52.00,+15.00,+65.00,+104.00
+16.00,+79.00,+68.00,-25.00,+13.00,+7.00,+11.00,+78.00,+0.00,+39.00,-32.00,-14.00,+72.00,+17.00,-24.00,-66.00
+2.00,+27.00,+46.00,+12.00,+5.00,-5.00,+2.00,+4.00,+10.00,-45.00,-111.00,-19.00,-13.00,-13.00,-14.00,-3.00
-7.00,+86.00,-75.00,-50.00,-19.00,-7.00,-7.00,+23.00,+5.00,-11.00,+116.00,+54.00,+93.00,+30.00,+26.00,+8.00
+0.00,-76.00,+24.00,+10.00,+3.00,-3.00,-2.00,-4.00,-116.00,-103.00,-30.00,-46.00,+84.00,-41.00,-50.00,-71.00
-11.00,+96.00,+22.00,+11.00,+15.00,+17.00,+9.00,+14.00,-121.00,-15.00,+16.00,+7.00,-128.00,+14.00,-11.00,-40.00
-3.00,-128.00,+13.00,-33.00,-19.00,-21.00,-24.00,-44.00,+38.00,-8.00,+57.00,+33.00,+25.00,+6.00,+19.00,+20.00
+12.00,+103.00,-6.00,-41.00,-19.00,-22.00,-14.00,+26.00,-67.00,-79.00,-56.00,-13.00,-23.00,-14.00,-48.00,-112.00
-3.00,+31.00,+38.00,+35.00,+20.00,+23.00,+32.00,+60.00,+28.00,+70.00,+35.00,+4.00,+3.00,-1.00,+11.00,+24.00
+13.00,+90.00,-6.00,+20.00,+19.00,+22.00,+24.00,-6.00,+33.00,+75.00,-3.00,+25.00,+50.00,+20.00,+22.00,+33.00
-2.00,-76.00,-11.00,-13.00,-2.00,+4.00,+2.00,+18.00,-81.00,+105.00,+3.00,-23.00,-18.00,-7.00,-47.00,+13.00
-12.00,-23.00,-4.00,+18.00,-10.00,-10.00,-9.00,-10.00,+40.00,-10.00,-40.00,-24.00,-27.00,-22.00,-16.00,-64.00
-4.00,-70.00,+53.00,-28.00,-31.00,-42.00,-54.00,-92.00,+86.00,+24.00,-102.00,-40.00,-19.00,-15.00,-30.00,-57.00
-6.00,+111.00,+113.00,+20.00,+15.00,+12.00,+22.00,+40.00,+64.00,+23.00,+46.00,-9.00,-13.00,-44.00,-48.00,-36.00
+1.00,-113.00,-128.00,-16.00,-19.00,-15.00,-16.00,-12.00,+105.00,-21.00,-3.00,-7.00,-24.00,+17.00,+6.00,+14.00
-6.00,+1.00,+10.00,+17.00,+21.00,+24.00,+27.00,-5.00,-40.00,+44.00,-1.00,+7.00,+11.00,-2.00,+1.00,-21.00
-10.00,+9.00,-78.00,-25.00,-19.00,-8.00,-11.00,-10.00,-37.00,-65.00,+19.00,+12.00,-1.00,+11.00,-17.00,-80.00
-8.00,+47.00,+35.00,+15.00,-7.00,-12.00,-8.00,+24.00,+50.00,-25.00,-95.00,-36.00,-16.00,-12.00,+32.00,+114.00
-11.00,+21.00,+33.00,+2.00,+13.00,+25.00,+19.00,+0.00,-62.00,-116.00,-25.00,-17.00,-6.00,-9.00,+3.00,-40.00
-4.00,-128.00,+24.00,+4.00,-21.00,-35.00,-27.00,-29.00,-85.00,-77.00,+61.00,+5.00,+7.00,+3.00,+0.00,-20.00
+1.00,-32.00,-128.00,-8.00,+23.00,+27.00,+33.00,+31.00,-103.00,+49.00,+49.00,+20.00,+1.00,+6.00,+6.00,-4.00
-8.00,-128.00,+63.00,+3.00,-11.00,+0.00,-26.00,-39.00,-34.00,+17.00,+34.00,-6.00,-5.00,-4.00,-1.00,+26.00
-4.00,+46.00,+1.00,+14.00,+0.00,+30.00,-13.00,-35.00,+79.00,+127.00,+52.00,-10.00,+2.00,-3.00,+3.00,+29.00
-15.00,+62.00,+112.00,+37.00,+19.00,-52.00,+26.00,+46.00,+127.00,+85.00,-77.00,-43.00,-27.00,-21.00,-35.00,-27.00
+4.00,-64.00,-52.00,-21.00,-35.00,+63.00,-30.00,-22.00,-15.00,-4.00,+80.00,+48.00,+17.00,+31.00,+29.00,+58.00
+12.00,+71.00,+41.00,+18.00,+7.00,-109.00,+12.00,+42.00,+23.00,-51.00,+4.00,+3.00,+12.00,+6.00,+30.00,+9.00
+6.00,+21.00,+3.00,-11.00,+12.00,+97.00,+7.00,-66.00,+9.00,+29.00,-40.00,-20.00,-14.00,-11.00,-9.00,-25.00
-4.00,+33.00,-81.00,-6.00,-10.00,+13.00,-11.00,+3.00,+78.00,-10.00,-14.00,-5.00,-13.00,-14.00,-18.00,-17.00
+16.00,+88.00,+74.00,-1.00,+1.00,-13.00,+0.00,+14.00,+10.00,-76.00,-64.00,-4.00,-1.00,+4.00,+1.00,-20.00
-6.00,-99.00,-37.00,+17.00,+8.00,+19.00,+1.00,-12.00,-36.00,-17.00,-39.00,-16.00,+0.00,-6.00,-8.00,-3.00
+11.00,-119.00,-9.00,+21.00,-20.00,-50.00,-1.00,+79.00,-61.00,-120.00,+63.00,+23.00,+9.00,+10.00,+15.00,+22.00
+17.00,-122.00,-80.00,-3.00,-11.00,-12.00,-18.00,+8.00,+18.00,+13.00,+10.00,+19.00,+1.00,+3.00,+10.00,+39.00
+10.00,-33.00,-15.00,-11.00,-12.00,-23.00,-10.00,+11.00,-16.00,-24.00,+7.00,-8.00,+0.00,+1.00,+1.00,-4.00
+0.00,-128.00,-77.00,-29.00,-6.00,+21.00,+4.00,+17.00,-17.00,+53.00,+13.00,+13.00,+7.00,+5.00,+8.00,-1.00
-8.00,-83.00,-20.00,-7.00,-5.00,-54.00,-11.00,-22.00,-4.00,+52.00,-55.00,-35.00,-23.00,-20.00,-28.00,-44.00
+10.00,-24.00,-2.00,-15.00,+2.00,+33.00,-3.00,-7.00,+92.00,+116.00,-56.00,+4.00,+26.00,+32.00,+62.00,+127.00
-14.00,+48.00,-67.00,-17.00,-13.00,-35.00,-20.00,-15.00,-17.00,+11.00,-12.00,-12.00,-19.00,-11.00,-20.00,-38.00
+19.00,+77.00,+114.00,+45.00,+26.00,+23.00,+21.00,-25.00,-48.00,-128.00,-8.00,-13.00,-3.00,-2.00,-4.00,-5.00
+1.00,+119.00,+39.00,+9.00,+8.00,+13.00,+5.00,-11.00,-17.00,+127.00,+42.00,+1.00,-11.00,-10.00,-6.00,-38.00
-4.00,-128.00,-82.00,-22.00,-12.00,-1.00,-4.00,-18.00,-25.00,+0.00,+24.00,+7.00,+4.00,+3.00,+11.00,+0.00
-4.00,-42.00,+102.00,+80.00,+46.00,+35.00,+44.00,-23.00,+68.00,-64.00,-19.00,-5.00,-4.00,-5.00,-17.00,-24.00
-13.00,-86.00,-60.00,-14.00,-16.00,-5.00,-23.00,-20.00,-74.00,-37.00,+37.00,-7.00,-6.00,-1.00,-5.00,-34.00
+26.00,+22.00,-68.00,-36.00,-10.00,-13.00,-6.00,+22.00,-63.00,-13.00,+15.00,+18.00,+14.00,+7.00,+10.00,+37.00
+2.00,-73.00,+45.00,-30.00,-15.00,-12.00,-17.00,+5.00,+14.00,-102.00,+15.00,+6.00,+0.00,-1.00,-3.00,-18.00
-22.00,-3.00,+19.00,+6.00,+21.00,+4.00,+26.00,+11.00,+44.00,+79.00,+18.00,+11.00,+4.00,+11.00,+22.00,+12.00
+3.00,-99.00,-27.00,-8.00,+1.00,+24.00,+5.00,-7.00,+31.00,+1.00,+12.00,+2.00,+3.00,-5.00,-1.00,+1.00
+0.00,-62.00,-31.00,-6.00,+1.00,-13.00,-8.00,-7.00,-20.00,+11.00,+0.00,+20.00,+11.00,+8.00,+10.00,+43.00
-1.00,-116.00,-94.00,-40.00,-18.00,-12.00,-27.00,-24.00,+30.00,+115.00,+26.00,-8.00,-10.00,-10.00,-14.00,-36.00
-13.00,-3.00,+85.00,-8.00,+6.00,-2.00,+8.00,+7.00,-54.00,+30.00,+19.00,+17.00,+10.00,+12.00,+15.00,+67.00
+9.00,+21.00,+14.00,-14.00,-10.00,+5.00,-4.00,-12.00,-35.00,+13.00,-38.00,-8.00,-5.00,-10.00,-21.00,-41.00
-23.00,-23.00,+4.00,-4.00,+9.00,-2.00,+6.00,+3.00,+64.00,-33.00,-6.00,-3.00,+0.00,+1.00,+3.00,+6.00
-7.00,-37.00,-11.00,+1.00,+12.00,+15.00,+8.00,-4.00,-20.00,-29.00,-57.00,-9.00,-4.00,-8.00,-11.00,-15.00
+8.00,+91.00,-3.00,+10.00,-3.00,-6.00,+0.00,+22.00,-35.00,-57.00,+30.00,+14.00,+4.00,+3.00,+1.00,-23.00
+2.00,+35.00,-29.00,-9.00,-5.00,+5.00,+5.00,+10.00,-38.00,+12.00,-7.00,-6.00,-6.00,-7.00,-9.00,-22.00
+23.00,+5.00,-90.00,-22.00,-18.00,-25.00,-19.00,+22.00,+21.00,-74.00,-76.00,-37.00,-22.00,-22.00,-36.00,-69.00
+12.00,-9.00,+127.00,+63.00,+51.00,+42.00,+47.00,-12.00,-27.00,-22.00,+123.00,+40.00,+14.00,+19.00,+21.00,+17.00
+8.00,-128.00,-37.00,-4.00,+0.00,+3.00,-11.00,-29.00,+11.00,-13.00,-16.00,-9.00,-5.00,-3.00,+4.00,+17.00
-14.00,-90.00,-75.00,-29.00,-10.00,-2.00,-11.00,-17.00,-31.00,-69.00,+14.00,+4.00,-5.00,-6.00,-10.00,-22.00
+5.00,+55.00,+56.00,+11.00,-5.00,-2.00,-4.00,-11.00,+1.00,-15.00,-38.00,-33.00,-19.00,-16.00,-23.00,-14.00
-1.00,+37.00,+5.00,+1.00,+7.00,+4.00,-2.00,-17.00,-112.00,-28.00,+23.00,+15.00,+13.00,+18.00,+39.00,+107.00
-8.00,-94.00,-90.00,-35.00,-18.00,-15.00,-18.00,-36.00,+103.00,+76.00,+14.00,+23.00,+17.00,+16.00,+29.00,+63.00
-14.00,+35.00,+62.00,+15.00,+2.00,+1.00,+4.00,+58.00,-9.00,+44.00,+18.00,+8.00,+3.00,+1.00,+4.00,+1.00
-2.00,-128.00,+8.00,+13.00,+12.00,+11.00,+19.00,+14.00,+35.00,-66.00,+8.00,-5.00,-6.00,-8.00,-23.00,-73.00
-9.00,-2.00,-16.00,-5.00,-3.00,-2.00,-9.00,-11.00,-40.00,+88.00,-8.00,-7.00,-2.00,+1.00,+13.00,+43.00
-1.00,+38.00,+6.00,+1.00,-1.00,-7.00,+10.00,+20.00,-30.00,-5.00,-20.00,-10.00,-7.00,-8.00,-7.00,-20.00
+1.00,-119.00,-87.00,-30.00,-10.00,-1.00,-12.00,-16.00,+0.00,+10.00,-5.00,+3.00,+3.00,+2.00,+2.00,+9.00
-11.00,+56.00,+81.00,+28.00,+20.00,+8.00,+11.00,+30.00,+47.00,-14.00,-5.00,-2.00,-2.00,+1.00,+9.00,+25.00
+18.00,+104.00,+43.00,+16.00,+5.00,+0.00,+12.00,+32.00,+32.00,-28.00,-3.00,+1.00,-1.00,+2.00,+0.00,-7.00
+4.00,-74.00,-11.00,+9.00,+6.00,+1.00,+2.00,+25.00,+2.00,+5.00,-19.00,-12.00,-6.00,-24.00,-15.00,-65.00
+1.00,-114.00,-30.00,-22.00,-11.00,-12.00,-10.00,+5.00,+34.00,+29.00,-14.00,-2.00,+2.00,+22.00,-2.00,+2.00
-4.00,-70.00,-60.00,-36.00,-9.00,-9.00,-5.00,-1.00,-101.00,-81.00,-29.00,-5.00,-5.00,-6.00,-12.00,-32.00
-15.00,-96.00,+13.00,-14.00,-12.00,-10.00,-18.00,-29.00,+93.00,+67.00,+3.00,+14.00,+10.00,+11.00,+23.00,+58.00
-10.00,+93.00,+1.00,-6.00,-3.00,+2.00,+3.00,+13.00,+14.00,+34.00,+6.00,+1.00,+2.00,+12.00,+27.00,+85.00
-3.00,-16.00,+1.00,+9.00,+1.00,-6.00,-9.00,-28.00,+56.00,-1.00,-7.00,-2.00,-3.00,-10.00,-1.00,+3.00
-8.00,-128.00,-113.00,-31.00,-36.00,-36.00,-36.00,-45.00,-35.00,-35.00,-9.00,-4.00,+0.00,+1.00,+9.00,+17.00
-36.00,-23.00,+21.00,+20.00,+9.00,+17.00,+19.00,+33.00,-115.00,-128.00,+32.00,+1.00,+0.00,-3.00,-7.00,-27.00
+10.00,-46.00,+0.00,+4.00,+3.00,+1.00,+2.00,-3.00,-34.00,+46.00,+0.00,-4.00,-7.00,-9.00,-18.00,-60.00
-7.00,-51.00,-4.00,+7.00,-6.00,-3.00,-7.00,+3.00,+8.00,+40.00,+5.00,+9.00,+7.00,+5.00,+19.00,+72.00
-4.00,+51.00,+66.00,-12.00,-25.00,-26.00,-25.00,-26.00,+111.00,+39.00,+2.00,+5.00,+2.00,+8.00,+13.00,+40.00
+2.00,+57.00,+53.00,+26.00,+9.00,+11.00,+18.00,+31.00,-6.00,-4.00,-5.00,-9.00,-5.00,-11.00,-20.00,-35.00
-12.00,+21.00,+15.00,+14.00,+12.00,+5.00,+9.00,+16.00,-40.00,-53.00,-3.00,-3.00,-5.00,+1.00,-13.00,-19.00
+6.00,-30.00,+26.00,+10.00,+3.00,+6.00,+0.00,-13.00,-49.00,-20.00,+6.00,+0.00,+7.00,-1.00,+2.00,+39.00
-3.00,+16.00,-59.00,-24.00,-10.00,-6.00,-8.00,+17.00,+32.00,-26.00,-14.00,-9.00,-12.00,-8.00,-19.00,-45.00
+9.00,+58.00,-1.00,+1.00,-2.00,+0.00,+1.00,-14.00,+36.00,+34.00,+40.00,+18.00,+11.00,+13.00,+28.00,+65.00
+8.00,+35.00,+33.00,+9.00,+1.00,-3.00,+0.00,-3.00,+22.00,+36.00,-1.00,+0.00,-2.00,-2.00,-7.00,-10.00
+5.00,+58.00,-7.00,+32.00,+8.00,+6.00,+6.00,+12.00,-26.00,-36.00,-16.00,-6.00,-6.00,-7.00,-9.00,-9.00
-3.00,-62.00,+3.00,+23.00,+5.00,+1.00,+3.00,-23.00,+16.00,+85.00,+16.00,+10.00,+5.00,+5.00,+14.00,+19.00
+11.00,+89.00,-1.00,+6.00,+10.00,+10.00,+5.00,+8.00,+0.00,+39.00,-26.00,-19.00,-10.00,-13.00,-26.00,-51.00
+4.00,-77.00,-50.00,-13.00,-14.00,-18.00,-18.00,-39.00,-8.00,-36.00,-7.00,-5.00,-4.00,-9.00,-8.00,-14.00
-8.00,-83.00,-1.00,-23.00,+5.00,+8.00,+0.00,+0.00,-32.00,-18.00,+0.00,+9.00,+1.00,-2.00,+2.00,+24.00
+10.00,+127.00,+24.00,+0.00,+0.00,+11.00,+14.00,+22.00,-56.00,-19.00,+19.00,+8.00,+13.00,+19.00,+46.00,+93.00
+0.00,-128.00,-42.00,+3.00,+13.00,+0.00,-13.00,-59.00,+77.00,-63.00,-34.00,-19.00,-15.00,-15.00,-30.00,-72.00
-1.00,+75.00,+25.00,-12.00,-1.00,+6.00,+14.00,+24.00,-40.00,+56.00,+25.00,+11.00,+6.00,+9.00,+12.00,+30.00
+0.00,-18.00,+31.00,-10.00,-4.00,-6.00,-3.00,-14.00,-3.00,-21.00,-9.00,-5.00,-10.00,-4.00,-14.00,-47.00
+0.00,+9.00,-4.00,+3.00,-1.00,-2.00,+0.00,+29.00,+20.00,+39.00,-1.00,+0.00,-2.00,-25.00,-5.00,-7.00
-3.00,+38.00,+47.00,-8.00,+1.00,+2.00,+11.00,+54.00,+9.00,+1.00,-13.00,-2.00,+7.00,+51.00,-1.00,+9.00
+3.00,-15.00,-15.00,+0.00,-6.00,-6.00,-9.00,+9.00,+0.00,-90.00,-11.00,-6.00,-7.00,-8.00,-4.00,-5.00
+2.00,-15.00,-4.00,+4.00,+6.00,+4.00,+4.00,-7.00,-2.00,+48.00,+2.00,-1.00,+2.00,+7.00,-2.00,-77.00
-5.00,-96.00,-8.00,+0.00,+5.00,+6.00,+7.00,-6.00,+9.00,+18.00,+5.00,+5.00,+3.00,+6.00,+4.00,+21.00
+1.00,-18.00,-11.00,-12.00,-12.00,-6.00,-8.00,-5.00,-4.00,-5.00,+0.00,+1.00,+14.00,-21.00,-6.00,-21.00
-3.00,-11.00,-4.00,+1.00,-2.00,-12.00,-8.00,-3.00,-11.00,-38.00,-15.00,-8.00,-13.00,+3.00,-9.00,-21.00
-3.00,+83.00,+12.00,+10.00,+1.00,+4.00,+7.00,+29.00,-27.00,+58.00,+3.00,-4.00,-4.00,-3.00,+0.00,+3.00
-8.00,-95.00,-24.00,-8.00,-12.00,-13.00,-20.00,-17.00,+92.00,+69.00,+9.00,+6.00,+0.00,-2.00,-6.00,-1.00
-4.00,+88.00,+32.00,+27.00,+20.00,+20.00,+24.00,+6.00,+31.00,+53.00,+15.00,+15.00,+8.00,-3.00,+11.00,+24.00
-1.00,-48.00,-6.00,+1.00,+1.00,+2.00,-6.00,-16.00,-26.00,-8.00,+7.00,-4.00,-1.00,+1.00,+0.00,-1.00
+1.00,-79.00,-34.00,-17.00,-11.00,-5.00,-6.00,-11.00,+20.00,+16.00,-14.00,-14.00,-1.00,-5.00,+2.00,+20.00
+2.00,+103.00,+26.00,+20.00,+16.00,+9.00,+14.00,-13.00,-24.00,-10.00,-8.00,-8.00,-3.00,-5.00,-17.00,+18.00
+5.00,-73.00,-19.00,-29.00,-16.00,-12.00,-14.00,+0.00,-90.00,-81.00,-43.00,-21.00,-19.00,-18.00,-23.00,-59.00
-3.00,-12.00,-20.00,+2.00,-6.00,-7.00,-13.00,-6.00,+30.00,+73.00,+19.00,+14.00,+7.00,-11.00,+6.00,+16.00
+3.00,-36.00,+42.00,-22.00,-1.00,+1.00,+11.00,+57.00,+34.00,-20.00,+24.00,+21.00,+21.00,+40.00,+36.00,+78.00
+12.00,+93.00,+35.00,+31.00,+25.00,+21.00,+23.00,-10.00,-15.00,+3.00,-10.00,+1.00,+0.00,-1.00,-6.00,-42.00
+6.00,-62.00,-22.00,-14.00,-17.00,-15.00,-14.00,-13.00,-30.00,-13.00,+9.00,-2.00,-30.00,-14.00,-4.00,+1.00
-4.00,-68.00,-13.00,+0.00,+5.00,+10.00,+3.00,-3.00,-50.00,-32.00,-17.00,-13.00,+10.00,-16.00,-14.00,-18.00
-3.00,+6.00,-28.00,-3.00,-8.00,-6.00,-12.00,+1.00,-5.00,-17.00,-7.00,-4.00,+8.00,+19.00,-18.00,-38.00
-3.00,-45.00,-2.00,-2.00,+1.00,+0.00,+6.00,+3.00,+13.00,+14.00,+5.00,+9.00,+6.00,+3.00,+9.00,+8.00
-3.00,-5.00,-5.00,-9.00,-10.00,-13.00,-24.00,+0.00,+12.00,+10.00,+1.00,-3.00,-6.00,-17.00,-6.00,+13.00
+2.00,+19.00,-11.00,-4.00,-3.00,+0.00,-3.00,+1.00,+36.00,+1.00,-9.00,-3.00,-6.00,+1.00,+13.00,-9.00
-3.00,+3.00,-1.00,+4.00,+2.00,+1.00,-5.00,-41.00,+30.00,-9.00,-5.00,-8.00,+0.00,+8.00,-19.00,-21.00
-7.00,-11.00,+18.00,-1.00,+2.00,+5.00,+12.00,+19.00,-71.00,+18.00,+5.00,+4.00,+7.00,+16.00,+16.00,+32.00
-4.00,+12.00,-14.00,+5.00,-2.00,+2.00,+2.00,-8.00,-53.00,-18.00,+6.00,+1.00,-6.00,-3.00,-3.00,+12.00
+0.00,-39.00,-10.00,-15.00,-6.00,-10.00,-7.00,+3.00,-86.00,-53.00,-8.00,-12.00,-25.00,-19.00,-15.00,-12.00
+7.00,+21.00,-13.00,+6.00,+1.00,+0.00,-3.00,-20.00,+32.00,+79.00,+12.00,+6.00,-1.00,-26.00,+21.00,+10.00
-6.00,-81.00,-19.00,+4.00,+4.00,+0.00,-6.00,+4.00,-50.00,-31.00,-8.00,-9.00,-2.00,+7.00,-33.00,-17.00
-14.00,-53.00,-16.00,+0.00,+5.00,+6.00,+8.00,+18.00,+35.00,+51.00,-4.00,+3.00,+8.00,+2.00,-5.00,+21.00
-3.00,-50.00,+33.00,-17.00,-8.00,-4.00,-2.00,-14.00,-12.00,-34.00,-2.00,+4.00,+10.00,+4.00,-2.00,+1.00
-5.00,-25.00,-5.00,+4.00,+1.00,-3.00,+5.00,+3.00,-93.00,-34.00,-14.00,-12.00,-17.00,-11.00,-6.00,+36.00
-4.00,-31.00,-15.00,-15.00,-9.00,-12.00,-13.00,-14.00,+60.00,-25.00,+21.00,+10.00,+7.00,+13.00,+27.00,+9.00
+4.00,-97.00,-30.00,+0.00,-13.00,-12.00,-14.00,-8.00,+78.00,+15.00,+0.00,+3.00,-2.00,-8.00,+5.00,+10.00
-6.00,+42.00,+29.00,+12.00,+14.00,+16.00,+11.00,+26.00,+55.00,+4.00,-4.00,-4.00,+27.00,+9.00,-3.00,-2.00
-3.00,+98.00,+11.00,+9.00,+9.00,+5.00,+17.00,+33.00,+25.00,-16.00,-8.00,-2.00,-21.00,-32.00,-27.00,-41.00
+2.00,-8.00,+14.00,-7.00,-2.00,+2.00,+4.00,+29.00,+18.00,+8.00,-14.00,-7.00,-25.00,-36.00,-12.00,-13.00
-2.00,-17.00,+2.00,-7.00,-1.00,+7.00,+9.00,-11.00,+0.00,-34.00,-2.00,+4.00,+64.00,+68.00,+59.00,-5.00
-7.00,+20.00,-11.00,-14.00,-12.00,-22.00,-20.00,-87.00,-6.00,+10.00,+6.00,+9.00,-24.00,+16.00,+1.00,+1.00
-1.00,-1.00,-4.00,-3.00,-5.00,-28.00,-16.00,+13.00,+10.00,-17.00,-1.00,+3.00,+5.00,+7.00,-19.00,-9.00
-1.00,+25.00,+5.00,+10.00,+9.00,+33.00,+28.00,+1.00,-33.00,-6.00,-3.00,-5.00,-6.00,-3.00,-6.00,-13.00
+9.00,+49.00,+14.00,-5.00,+2.00,+5.00,+5.00,-6.00,-18.00,-17.00,-10.00,-9.00,-19.00,-20.00,+4.00,-4.00
+3.00,-24.00,-14.00,+11.00,+5.00,+8.00,-2.00,+12.00,+41.00,+81.00,-3.00,-2.00,+26.00,-4.00,-3.00,+0.00
+0.00,+22.00,-11.00,-10.00,-6.00,-9.00,-8.00,+16.00,-3.00,+1.00,+16.00,+5.00,-14.00,+3.00,+11.00,+41.00
+1.00,-51.00,+6.00,+10.00,+5.00,-9.00,-10.00,-22.00,-11.00,+0.00,-2.00,-3.00,+7.00,+12.00,-1.00,+20.00
+2.00,+72.00,+1.00,-15.00,-5.00,-11.00,+5.00,-26.00,-21.00,-2.00,-7.00,-2.00,-5.00,-13.00,-9.00,-11.00
+0.00,-42.00,-4.00,-4.00,-3.00,+13.00,+2.00,+11.00,+14.00,-22.00,-18.00,-11.00,-4.00,+0.00,-14.00,-22.00
-2.00,-33.00,+14.00,+13.00,+7.00,+10.00,+0.00,-9.00,-29.00,-9.00,+10.00,+3.00,-5.00,-11.00,+11.00,+23.00
+0.00,+57.00,-1.00,-16.00,-5.00,-14.00,-7.00,+0.00,+54.00,-20.00,-4.00,-5.00,-7.00,-1.00,+11.00,+12.00
+4.00,-25.00,+6.00,+10.00,+6.00,+11.00,+4.00,+30.00,+11.00,+18.00,+1.00,-1.00,-6.00,-4.00,-13.00,+5.00
-4.00,+20.00,+1.00,-1.00,-4.00,-6.00,+6.00,+20.00,-8.00,-16.00,+0.00,-9.00,+12.00,-17.00,-23.00,+7.00
+0.00,-83.00,-24.00,-8.00,-11.00,-3.00,-6.00,-31.00,+17.00,+15.00,-5.00,-8.00,-46.00,-8.00,+44.00,+39.00
+6.00,+73.00,+53.00,+23.00,+14.00,+6.00,+3.00,+31.00,-36.00,-31.00,+1.00,+29.00,+0.00,+21.00,+20.00,-30.00
-8.00,+2.00,+5.00,+0.00,+3.00,+13.00,+22.00,-2.00,-17.00,+37.00,+3.00,+8.00,+15.00,+21.00,-29.00,-18.00
+0.00,-40.00,-10.00,-5.00,-6.00,-13.00,-18.00,+0.00,-21.00,-21.00,+3.00,+10.00,-23.00,-13.00,+33.00,-4.00
+0.00,-18.00,+5.00,-1.00,-2.00,+4.00,+19.00,-10.00,+37.00,-5.00,-1.00,-8.00,+30.00,+1.00,-54.00,-33.00
-4.00,-114.00,-30.00,-13.00,-2.00,+2.00,-12.00,+41.00,+2.00,+38.00,-8.00,-15.00,-1.00,-11.00,-7.00,-16.00
+8.00,+82.00,+16.00,+10.00,+1.00,-3.00,-17.00,+9.00,-12.00,-14.00,-15.00,-6.00,-28.00,-21.00,-2.00,+5.00
+0.00,+16.00,+4.00,+4.00,+2.00,-15.00,+12.00,+21.00,-99.00,+66.00,+27.00,+14.00,+11.00,+27.00,+39.00,+84.00
-2.00,+25.00,+5.00,-7.00,+5.00,+24.00,-9.00,-11.00,-16.00,-18.00,-3.00,-5.00,-8.00,-18.00,-8.00,+17.00
-2.00,-91.00,-11.00,-17.00,-10.00,-7.00,+1.00,-2.00,+9.00,+16.00,+1.00,+1.00,+5.00,-6.00,+4.00,-3.00
-1.00,-83.00,-3.00,-10.00,-6.00,-8.00,-13.00,-28.00,-3.00,-6.00,+5.00,+0.00,+7.00,-5.00,-7.00,-11.00
+1.00,-4.00,+20.00,+8.00,+0.00,-1.00,+8.00,+3.00,+17.00,-55.00,-18.00,-14.00,-14.00,-2.00,-18.00,-22.00
+3.00,+55.00,+1.00,-28.00,+10.00,-7.00,+13.00,+54.00,-43.00,+22.00,-5.00,-1.00,+10.00,+8.00,+16.00,-28.00
-1.00,+42.00,-16.00,-41.00,-1.00,+9.00,-5.00,-23.00,-67.00,+19.00,+4.00,-3.00,-6.00,-6.00,-12.00,-7.00
-3.00,-4.00,-17.00,-25.00,-5.00,-6.00,-1.00,+4.00,+48.00,-6.00,-1.00,-8.00,+9.00,-8.00,+8.00,+24.00
+2.00,+29.00,+3.00,-2.00,-2.00,-3.00,-6.00,-3.00,-4.00,-5.00,-3.00,-1.00,-33.00,+3.00,+0.00,-4.00
-3.00,+38.00,+14.00,+10.00,-3.00,-4.00,+1.00,-11.00,-21.00,-25.00,-5.00,+5.00,+28.00,-21.00,+4.00,+10.00
-1.00,+0.00,-8.00,+19.00,-1.00,-3.00,-10.00,-19.00,+2.00,-13.00,-6.00,+1.00,+15.00,+31.00,-7.00,-33.00
-8.00,+2.00,-6.00,+16.00,+0.00,+3.00,+1.00,-70.00,-17.00,-5.00,+0.00,-1.00,+0.00,+16.00,-1.00,+1.00
+4.00,+69.00,+5.00,-7.00,+1.00,+29.00,+8.00,+11.00,+0.00,+3.00,+0.00,+1.00,+0.00,-3.00,-4.00,-7.00
-1.00,+16.00,+6.00,-2.00,-13.00,-79.00,-14.00,-9.00,-46.00,-32.00,-17.00,-13.00,+86.00,+17.00,-1.00,+2.00
+2.00,-5.00,-10.00,+22.00,+14.00,+73.00,+21.00,-10.00,-4.00,+9.00,+4.00,-4.00,-77.00,-47.00,-11.00,+6.00
-3.00,-37.00,-7.00,+13.00,-4.00,-3.00,-17.00,+12.00,-58.00,+1.00,+4.00,+13.00,+5.00,-19.00,-20.00,+2.00
-2.00,-17.00,-1.00,+15.00,+4.00,+6.00,+7.00,-27.00,+22.00,-4.00,+0.00,+9.00,+4.00,+27.00,-27.00,-4.00
-9.00,+22.00,+0.00,+8.00,-4.00,+21.00,-26.00,-87.00,-7.00,-26.00,-6.00,+3.00,-1.00,-18.00,-12.00,-43.00
-4.00,-22.00,+2.00,-1.00,-13.00,-46.00,-13.00,-17.00,+126.00,-19.00,-7.00,-9.00,+14.00,+6.00,+2.00,+20.00
-2.00,-6.00,+0.00,+2.00,-2.00,-24.00,-7.00,+18.00,+4.00,+53.00,+6.00,-2.00,-12.00,-1.00,+5.00,+27.00
+11.00,-13.00,-7.00,+12.00,+8.00,+25.00,-10.00,+7.00,+7.00,-28.00,-3.00,-4.00,-2.00,-21.00,-4.00,-13.00
-2.00,+16.00,-1.00,+4.00,+0.00,+12.00,+53.00,+18.00,+76.00,-34.00,+8.00,+0.00,-24.00,+10.00,+8.00,-18.00
-3.00,+0.00,+11.00,+8.00,-1.00,-13.00,-5.00,-7.00,+5.00,+5.00,-1.00,-5.00,+10.00,-3.00,-20.00,-8.00
-1.00,+9.00,-6.00,-4.00,+5.00,+15.00,+4.00,+11.00,+21.00,-11.00,-8.00,-6.00,-11.00,-1.00,+12.00,-11.00
-6.00,-43.00,-22.00,-16.00,-16.00,-27.00,-27.00,-4.00,+9.00,-9.00,-6.00,+0.00,+7.00,-42.00,-13.00,-5.00
+6.00,-60.00,-4.00,+10.00,-2.00,+2.00,-14.00,+2.00,+20.00,+22.00,+1.00,-5.00,-28.00,+46.00,-12.00,-32.00
-8.00,+107.00,+10.00,+2.00,-1.00,-9.00,+10.00,+37.00,-12.00,-14.00,-3.00,-9.00,+72.00,+16.00,+0.00,-7.00
-1.00,-33.00,-9.00,-11.00,-3.00,+14.00,+3.00,+30.00,-3.00,-11.00,+4.00,+11.00,-57.00,-27.00,+30.00,-5.00
+1.00,+2.00,+5.00,-1.00,+2.00,-11.00,-5.00,-2.00,-19.00,+9.00,-1.00,+2.00,-12.00,+5.00,-24.00,+2.00
+0.00,-36.00,-2.00,+3.00,+2.00,-10.00,+35.00,+24.00,-13.00,+6.00,+3.00,+6.00,-34.00,-40.00,-23.00,-6.00
-3.00,-15.00,-1.00,-4.00,-3.00,+10.00,-3.00,-18.00,-37.00,+0.00,-2.00,-5.00,+4.00,+26.00,+16.00,-7.00
+3.00,-5.00,+1.00,-8.00,-3.00,-11.00,-4.00,+11.00,-77.00,-21.00,-15.00,-13.00,+28.00,+17.00,-6.00,+3.00
-2.00,-9.00,-6.00,-5.00,-1.00,-11.00,+7.00,+6.00,-95.00,+24.00,+11.00,+6.00,+7.00,+7.00,+14.00,-3.00
+7.00,+41.00,-1.00,-14.00,-7.00,+22.00,-33.00,+7.00,-60.00,+24.00,+4.00,-1.00,-22.00,-3.00,+6.00,+8.00
+8.00,-11.00,-4.00,-3.00,-3.00,-65.00,+3.00,-6.00,+17.00,-7.00,-5.00,-6.00,-2.00,-10.00,+0.00,+1.00
-3.00,+15.00,+4.00,+8.00,+6.00,+15.00,+27.00,-5.00,+27.00,+40.00,+15.00,+4.00,+3.00,-4.00,+3.00,+17.00
-3.00,+3.00,-1.00,-1.00,+2.00,+26.00,+0.00,-6.00,-52.00,-20.00,-6.00,-4.00,-10.00,-7.00,+4.00,-10.00
-1.00,+14.00,+5.00,+7.00,+2.00,+17.00,-12.00,-5.00,-4.00,+1.00,-2.00,+0.00,+18.00,+36.00,+8.00,-3.00
-5.00,-26.00,-3.00,-11.00,-2.00,-11.00,-20.00,-29.00,-37.00,-55.00,-21.00,-12.00,-15.00,-28.00,-4.00,-41.00
+5.00,+23.00,-16.00,+3.00,-3.00,-17.00,-4.00,+3.00,+102.00,+18.00,+17.00,+6.00,+2.00,+12.00,+14.00,+58.00
-12.00,-41.00,-4.00,+1.00,+1.00,-1.00,+14.00,+4.00,+54.00,-10.00,-8.00,-7.00,-3.00,-11.00,-11.00,-48.00
-5.00,+70.00,+2.00,+2.00,-5.00,-3.00,-13.00,-4.00,+96.00,+31.00,+9.00,+7.00,+2.00,-34.00,+8.00,+38.00
-2.00,-37.00,-4.00,-5.00,-2.00,+6.00,+0.00,+12.00,+48.00,+8.00,+12.00,+8.00,+60.00,+46.00,+60.00,+75.00
+5.00,-28.00,-1.00,-4.00,-5.00,-9.00,-5.00,+2.00,-17.00,-39.00,-23.00,-51.00,-32.00,-53.00,-38.00,-41.00
+3.00,+8.00,+0.00,-2.00,+1.00,+2.00,-9.00,-11.00,+85.00,+24.00,+14.00,+33.00,-14.00,+75.00,+53.00,+59.00
+0.00,-11.00,+3.00,+5.00,+3.00,-5.00,+5.00,+2.00,+98.00,-9.00,-6.00,+11.00,+47.00,+7.00,+4.00,-39.00
-7.00,-20.00,-2.00,-10.00,-6.00,-3.00,+24.00,-59.00,+109.00,-14.00,-7.00,-9.00,+66.00,-15.00,-86.00,-64.00
+0.00,+5.00,+3.00,+7.00,+11.00,+15.00,+1.00,-8.00,+66.00,-21.00,-6.00,-7.00,-56.00,-84.00,-39.00,+8.00
-4.00,+6.00,-3.00,+2.00,+6.00,+25.00,+8.00,+2.00,+52.00,+5.00,+0.00,-1.00,-15.00,+25.00,+16.00,+21.00
-3.00,-24.00,+0.00,-1.00,+3.00,+5.00,-9.00,-18.00,-57.00,-9.00,-6.00,-18.00,-42.00,+6.00,+6.00,-6.00
-1.00,+19.00,-3.00,-3.00,-4.00,+15.00,-13.00,-13.00,-32.00,+25.00,+10.00,+12.00,-26.00,-17.00,-2.00,+26.00
-1.00,+17.00,-6.00,-13.00,-11.00,-20.00,-12.00,-4.00,+41.00,-3.00,+2.00,+20.00,+49.00,+35.00,+11.00,-4.00
+3.00,-2.00,+9.00,+4.00,-3.00,-18.00,-1.00,+2.00,-88.00,-9.00,-7.00,-14.00,+4.00,-1.00,-20.00,-22.00
-3.00,-15.00,-14.00,-2.00,+2.00,+6.00,+6.00,+9.00,-88.00,+2.00,-4.00,+10.00,-22.00,-7.00,+3.00,-2.00
-1.00,-8.00,-2.00,+2.00,+0.00,-4.00,-10.00,+13.00,-128.00,+6.00,+0.00,-13.00,-11.00,-2.00,+16.00,+3.00
+2.00,+35.00,+10.00,+7.00,+6.00,-3.00,+2.00,+2.00,-62.00,-6.00,-4.00,-8.00,-16.00,-9.00,+7.00,-11.00
-3.00,-8.00,-5.00,-11.00,-5.00,-11.00,-5.00,+9.00,-2.00,-4.00,-6.00,+0.00,-4.00,-21.00,-19.00,-16.00
-1.00,-11.00,-8.00,-2.00,+2.00,+5.00,+12.00,+18.00,-55.00,+0.00,+5.00,-2.00,+31.00,+12.00,-2.00,+4.00
+11.00,+75.00,-15.00,-15.00,-16.00,-18.00,-18.00,-7.00,+0.00,+6.00,-1.00,-4.00,-20.00,-15.00,-6.00,+6.00
-1.00,-125.00,+24.00,+23.00,+21.00,+18.00,+20.00,+12.00,+57.00,+4.00,+10.00,+7.00,-3.00,+33.00,+0.00,-43.00
-4.00,+34.00,+6.00,-12.00,-7.00,-1.00,-3.00,-4.00,-18.00,-3.00,-2.00,+0.00,+16.00,+2.00,+8.00,+3.00
+0.00,+2.00,+7.00,-1.00,+5.00,+12.00,+16.00,+12.00,-6.00,-1.00,+0.00,-10.00,-4.00,-21.00,-5.00,-2.00
-5.00,-43.00,-5.00,+0.00,+5.00,+10.00,-20.00,+0.00,-82.00,-19.00,-9.00,+3.00,-39.00,-25.00,-9.00,-65.00
+0.00,-25.00,-14.00,-29.00,-25.00,-34.00,-25.00,-13.00,+28.00,+18.00,+2.00,+2.00,+62.00,+29.00,+13.00,+31.00
+7.00,+2.00,+5.00,+9.00,+13.00,-61.00,+5.00,+5.00,-42.00,+3.00,+0.00,-22.00,-30.00,+7.00,-4.00,-13.00
-2.00,-36.00,-7.00,-54.00,+2.00,+55.00,-34.00,-27.00,-23.00,+5.00,+3.00,+22.00,-52.00,-7.00,-34.00,+11.00
+0.00,+5.00,+1.00,-31.00,+0.00,+6.00,+91.00,+42.00,-11.00,+7.00,+5.00,+16.00,-21.00,+56.00,+25.00,+15.00
+2.00,+18.00,-3.00,-24.00,-12.00,-33.00,-38.00,+77.00,+15.00,-20.00,-7.00,-1.00,+18.00,+16.00,-6.00,-4.00
+8.00,-2.00,+0.00,+28.00,+4.00,-2.00,+37.00,+21.00,+48.00,-8.00,-6.00,-19.00,+15.00,-4.00,+23.00,-14.00
-11.00,+8.00,-4.00,+27.00,+2.00,+21.00,-15.00,-17.00,+41.00,+3.00,-4.00,-24.00,+33.00,-40.00,-23.00,+24.00
+2.00,-6.00,+4.00,+24.00,+4.00,+6.00,-2.00,+11.00,-36.00,+4.00,+5.00,+18.00,+28.00,+13.00,-10.00,+30.00
-1.00,+14.00,-1.00,+17.00,+3.00,+20.00,-6.00,-1.00,-113.00,-8.00,-4.00,+11.00,-10.00,-4.00,-9.00,-4.00
+0.00,+14.00,-10.00,+0.00,-8.00,-16.00,-28.00,-12.00,-3.00,-6.00,-3.00,+2.00,+3.00,-14.00,+3.00,+15.00
+4.00,+8.00,+4.00,+16.00,-1.00,-16.00,+3.00,-3.00,+6.00,-2.00,+2.00,+5.00,+0.00,+19.00,+9.00,-22.00
-1.00,+10.00,+2.00,+1.00,-4.00,+8.00,-19.00,-3.00,+11.00,+3.00,-2.00,-13.00,-7.00,-21.00,-3.00,-1.00
-4.00,-1.00,-11.00,+0.00,-7.00,-33.00,-14.00,-32.00,-58.00,+4.00,-2.00,-6.00,+0.00,+5.00,+10.00,+2.00
-2.00,+30.00,+2.00,+5.00,+2.00,+27.00,+3.00,+12.00,-100.00,-48.00,-9.00,+0.00,-5.00,-12.00,-11.00,-16.00
-5.00,-26.00,-5.00,+2.00,-2.00,+1.00,+8.00,-15.00,+41.00,+90.00,+9.00,+2.00,+9.00,+13.00,+13.00,-8.00
+2.00,-4.00,+4.00,-1.00,-3.00,-17.00,-2.00,+1.00,+55.00,+35.00,+6.00,-5.00,-20.00,-6.00,-2.00,+63.00
-1.00,+37.00,+5.00,+3.00,+3.00,-13.00,-3.00,-16.00,-7.00,-5.00,-4.00,+4.00,-11.00,+7.00,+16.00,+1.00
-3.00,-37.00,-5.00,-3.00,+2.00,+16.00,+0.00,-11.00,+18.00,-9.00,+1.00,+0.00,+7.00,-9.00,-8.00,-2.00
+0.00,-25.00,-2.00,-1.00,-10.00,-35.00,-19.00,-9.00,+5.00,-21.00,-6.00,-9.00,-10.00,-26.00,-2.00,-1.00
-8.00,+0.00,+3.00,-2.00,-4.00,-4.00,-5.00,-88.00,+19.00,-10.00,-3.00,-1.00,+7.00,-1.00,-5.00,-2.00
-3.00,-28.00,-1.00,-6.00,-3.00,+21.00,-3.00,-9.00,-22.00,-7.00,-3.00,-3.00,-61.00,-18.00,-29.00,-27.00
-7.00,-20.00,-5.00,-11.00,-10.00,-81.00,-12.00,-22.00,-33.00,-22.00,-4.00,-8.00,+0.00,+13.00,+39.00,-12.00
+6.00,-1.00,+4.00,+20.00,+14.00,+67.00,+30.00,+8.00,+66.00,+40.00,+6.00,+15.00,+35.00,-1.00,+27.00,+19.00
-1.00,-27.00,-3.00,+7.00,+9.00,+25.00,+27.00,+32.00,+32.00,+3.00,+2.00,+8.00,-12.00,+0.00,-29.00,+5.00
-1.00,+8.00,-2.00,-6.00,+4.00,+23.00,+16.00,+29.00,-15.00,-13.00,-1.00,-3.00,+28.00,-4.00,-6.00,-17.00
-1.00,-2.00,+0.00,-11.00,-15.00,+0.00,-46.00,-15.00,+27.00,+7.00,+2.00,-2.00,+4.00,-9.00,-18.00,-3.00
-2.00,+5.00,+3.00,-7.00,+0.00,-66.00,+42.00,+19.00,-22.00,-33.00,-9.00,-7.00,-33.00,+19.00,+3.00,-8.00
+0.00,+2.00,-2.00,-4.00,+0.00,-22.00,-26.00,+11.00,-26.00,-16.00,-2.00,-3.00,-2.00,-22.00,+9.00,+17.00
-1.00,+0.00,-4.00,+4.00,+0.00,+54.00,+29.00,+6.00,-27.00,+29.00,+2.00,+1.00,+2.00,+6.00,+6.00,+1.00
+2.00,+19.00,+0.00,-1.00,-2.00,+15.00,-18.00,+5.00,-38.00,-14.00,-15.00,-10.00,+7.00,+22.00,-18.00,-21.00
-4.00,+16.00,-2.00,-3.00,-8.00,-31.00,-21.00,-7.00,-22.00,-2.00,+11.00,+10.00,+7.00,+13.00,+25.00,+40.00
-1.00,+14.00,+4.00,-1.00,+3.00,+9.00,-8.00,+13.00,-67.00,+8.00,+8.00,-2.00,-6.00,-10.00,+2.00,-28.00
-6.00,+2.00,-1.00,-4.00,-3.00,-21.00,+0.00,-31.00,+64.00,+23.00,+4.00,+0.00,+3.00,+2.00,+4.00,+16.00
-2.00,+66.00,-9.00,-5.00,-4.00,-2.00,-3.00,-15.00,+38.00,+25.00,+9.00,+7.00,-3.00,-9.00,+1.00,+11.00
-2.00,-40.00,-5.00,+0.00,+3.00,+9.00,+0.00,+0.00,+10.00,-36.00,-16.00,-10.00,+3.00,-6.00,-15.00,-18.00
-2.00,+15.00,+1.00,+4.00,-1.00,-3.00,+10.00,+4.00,+5.00,-10.00,-5.00,-1.00,-10.00,+4.00,+5.00,-8.00
+0.00,-6.00,+3.00,-2.00,+0.00,-4.00,-12.00,-28.00,+15.00,-24.00,-4.00,-3.00,-7.00,+4.00,+2.00,-9.00
+0.00,-26.00,+0.00,+2.00,+3.00,+19.00,+18.00,+2.00,+16.00,-10.00,-4.00,-2.00,+8.00,-12.00,-21.00,-21.00
-1.00,-3.00,+1.00,-7.00,-6.00,-8.00,-3.00,+12.00,+6.00,+19.00,+3.00,+1.00,-8.00,+6.00,+7.00,+24.00
-1.00,-36.00,-6.00,-7.00,-10.00,+5.00,-38.00,+3.00,+26.00,+13.00,+5.00,-2.00,+15.00,-10.00,+4.00,+7.00
+2.00,-6.00,+0.00,+0.00,-1.00,-89.00,+1.00,+4.00,-4.00,-8.00,+2.00,-1.00,+1.00,+8.00,-3.00,+15.00
-1.00,-11.00,-3.00,-1.00,+14.00,+74.00,+43.00,+23.00,+8.00,+4.00,-3.00,+5.00,-30.00,+2.00,+24.00,+6.00
+3.00,+23.00,+8.00,+0.00,-8.00,-11.00,-5.00,+6.00,-39.00,-39.00,-5.00,-9.00,-28.00,-18.00,-7.00,-30.00
+8.00,-21.00,+1.00,+4.00,+4.00,+9.00,-15.00,-21.00,+6.00,+4.00,-3.00,+1.00,-14.00,-7.00,-3.00,-9.00
-2.00,+11.00,+1.00,-4.00,-4.00,+9.00,-6.00,-3.00,-10.00,-5.00,-3.00,+4.00,+15.00,+4.00,-17.00,-1.00
-2.00,+22.00,+0.00,-1.00,-5.00,-15.00,+9.00,+7.00,+6.00,+7.00,+2.00,+2.00,+3.00,-12.00,-10.00,+1.00
-2.00,+4.00,-3.00,-5.00,-3.00,-10.00,-15.00,-3.00,-4.00,+0.00,+0.00,-2.00,+5.00,+13.00,-2.00,-9.00
-1.00,+4.00,-2.00,+1.00,-3.00,-5.00,+6.00,-1.00,-2.00,-5.00,-4.00,-4.00,-16.00,-13.00,+4.00,-7.00
-1.00,-24.00,-4.00,+0.00,+5.00,+12.00,+6.00,-6.00,-25.00,-1.00,-1.00,-5.00,+3.00,-1.00,+3.00,-2.00
+4.00,-18.00,-7.00,-7.00,-4.00,-14.00,-14.00,+24.00,+39.00,+4.00,+3.00,-1.00,+2.00,-4.00,-5.00,+22.00
+1.00,+32.00,+8.00,+4.00,+8.00,+17.00,+13.00,-8.00,-34.00,-15.00,-3.00,+1.00,+1.00,+1.00,-2.00,-11.00
+0.00,+16.00,+5.00,-4.00,-2.00,-9.00,-5.00,-33.00,+0.00,+1.00,-5.00,-6.00,-5.00,+1.00,-9.00,-4.00
-1.00,-13.00,+6.00,+5.00,+3.00,+15.00,+4.00,-1.00,-19.00,-12.00,-2.00,-1.00,-10.00,-3.00,-5.00,-14.00
-2.00,-24.00,+4.00,-1.00,-1.00,+2.00,+2.00,+16.00,-1.00,+3.00,+1.00,+0.00,+13.00,+4.00,+3.00,+1.00
+3.00,-7.00,-9.00,-7.00,-9.00,-16.00,-11.00,+4.00,-31.00,-19.00,-5.00,-2.00,+3.00,+2.00,-6.00,-2.00
-2.00,+11.00,-1.00,+1.00,-1.00,-7.00,+1.00,+19.00,+31.00,+10.00,+2.00,+2.00,-1.00,+3.00,+5.00,+14.00
-1.00,+9.00,-3.00,-2.00,+2.00,+15.00,+4.00,-4.00,-3.00,+5.00,+4.00,+1.00,+6.00,+8.00,+3.00,-6.00
+1.00,-6.00,+0.00,-6.00,-6.00,-9.00,-12.00,-22.00,-7.00,+10.00,+1.00,+1.00,+3.00,-10.00,-1.00,+16.00
-1.00,+19.00,+1.00,-1.00,-1.00,-1.00,-4.00,-4.00,+7.00,-11.00,-6.00,-2.00,-1.00,-13.00,-33.00,+21.00
-5.00,-25.00,-3.00,-4.00,-2.00,-23.00,+6.00,+2.00,-1.00,+1.00,+1.00,-2.00,-3.00,+23.00,+57.00,+9.00
-3.00,+10.00,+1.00,+2.00,-2.00,+15.00,-5.00,+6.00,-15.00,-16.00,-3.00,+1.00,+0.00,+8.00,+0.00,-4.00
-2.00,+0.00,+1.00,+2.00,+5.00,-14.00,+0.00,+2.00,-40.00,-9.00,-1.00,-5.00,+5.00,-3.00,-11.00,-20.00
-8.00,+8.00,+0.00,-3.00,-1.00,+5.00,-23.00,-45.00,+56.00,+34.00,+9.00,+4.00,+7.00,-5.00,+5.00,+18.00
-1.00,-6.00,-3.00,-4.00,-1.00,+12.00,-3.00,+17.00,+8.00,-8.00,-3.00,-6.00,-23.00,+32.00,-13.00,-9.00
-1.00,+7.00,-3.00,-3.00,-2.00,-8.00,+16.00,+10.00,+0.00,+10.00,+1.00,+3.00,+11.00,-9.00,+6.00,-4.00
-2.00,+12.00,+3.00,+3.00,-1.00,-6.00,+0.00,-15.00,-21.00,-11.00,-2.00,+4.00,-11.00,-2.00,+2.00,+0.00
-3.00,-26.00,-7.00,-3.00,-1.00,-7.00,+1.00,+10.00,+26.00,+6.00,-6.00,-1.00,-8.00,+0.00,+0.00,-11.00
-1.00,+2.00,-4.00,-4.00,+0.00,+1.00,+4.00,+1.00,-29.00,-13.00,-3.00,-7.00,+5.00,-19.00,-10.00,-3.00
-5.00,+10.00,-4.00,-5.00,-2.00,-5.00,-3.00,-10.00,-15.00,+1.00,+1.00,-5.00,+15.00,-2.00,+0.00,-12.00
+0.00,-12.00,+5.00,+3.00,+0.00,+6.00,+2.00,-3.00,+0.00,-1.00,-2.00,-4.00,-21.00,+4.00,-7.00,+8.00
-1.00,-14.00,-2.00,-4.00,-3.00,+0.00,+6.00,+8.00,-7.00,+7.00,-2.00,-2.00,+3.00,-8.00,+3.00,-10.00
-1.00,-19.00,-6.00,-3.00,-1.00,+3.00,+1.00,+16.00,+14.00,-2.00,+1.00,+0.00,+5.00,-5.00,-7.00,-9.00
+2.00,+25.00,+2.00,-2.00,+0.00,+2.00,+0.00,+0.00,-57.00,-17.00,-4.00,-5.00,-11.00,+3.00,-4.00,+4.00
+0.00,-23.00,+0.00,-3.00,-2.00,+4.00,-2.00,+5.00,+8.00,+23.00,+2.00,+0.00,+21.00,-4.00,+6.00,+3.00
-3.00,+42.00,+3.00,+1.00,-1.00,-1.00,-11.00,+3.00,-5.00,-14.00,-1.00,-2.00,-4.00,-1.00,-1.00,-13.00
-1.00,-20.00,-2.00,+0.00,+1.00,+0.00,+15.00,+14.00,+2.00,-4.00,-3.00,+0.00,-8.00,-1.00,-5.00,-5.00
-5.00,-11.00,+0.00,+1.00,+2.00,+8.00,-1.00,-4.00,+32.00,+0.00,-1.00,-3.00,+0.00,+0.00,+3.00,+1.00
-4.00,-25.00,-4.00,+1.00,+1.00,+2.00,-5.00,-28.00,-13.00,+0.00,-2.00,-1.00,+4.00,-5.00,-5.00,+1.00
+5.00,-20.00,-5.00,-2.00,-3.00,-6.00,+15.00,+99.00,+1.00,+1.00,+6.00,+2.00,-5.00,+3.00,+7.00,+3.00
+3.00,+46.00,+5.00,+0.00,-1.00,-10.00,-28.00,+26.00,-7.00,-1.00,-1.00,+2.00,+13.00,-2.00,-7.00,-3.00
-6.00,-19.00,+0.00,-1.00,-2.00,+2.00,+6.00,+25.00,+64.00,-1.00,-3.00,+2.00,-3.00,-10.00,-11.00,+0.00
-3.00,+24.00,-1.00,-4.00,-5.00,-1.00,-3.00,+10.00,+112.00,+10.00,+2.00,+3.00,+5.00,+4.00,+36.00,+16.00
-2.00,-47.00,-3.00,-1.00,-3.00,+1.00,+1.00,-7.00,-59.00,-13.00,-2.00,-4.00,-8.00,-8.00,-7.00,-13.00
-5.00,+5.00,+3.00,+3.00,+0.00,-20.00,-5.00,-6.00,-16.00,-9.00,-4.00,+1.00,+0.00,+22.00,+1.00,+4.00
+2.00,-5.00,-5.00,-4.00,+2.00,+6.00,+5.00,-9.00,+20.00,+31.00,+2.00,-3.00,+1.00,-8.00,+1.00,-2.00
+1.00,+8.00,+3.00,+0.00,+0.00,-6.00,-3.00,-2.00,-32.00,-12.00,-2.00,-6.00,-17.00,+2.00,-14.00,-7.00
-1.00,+2.00,+2.00,+3.00,+5.00,+35.00,-1.00,-35.00,+9.00,+0.00,-3.00,-1.00,+64.00,-21.00,-2.00,+0.00
+0.00,+7.00,-1.00,-8.00,-2.00,+2.00,+7.00,-8.00,-14.00,-10.00,-1.00,+5.00,-66.00,+25.00,+7.00,+24.00
-2.00,+10.00,-5.00,-4.00,-6.00,-8.00,-12.00,-21.00,-21.00,-11.00,-4.00,-1.00,+0.00,+4.00,-5.00,+1.00
+0.00,-14.00,+0.00,+0.00,-5.00,-18.00,+3.00,-2.00,+3.00,+3.00,-2.00,+1.00,+1.00,+5.00,-10.00,-7.00
-3.00,+20.00,+0.00,+0.00,-1.00,-4.00,+2.00,-17.00,-11.00,-8.00,-4.00,-2.00,-4.00,-13.00,+1.00,-9.00
+0.00,+9.00,+4.00,-2.00,+1.00,+5.00,+2.00,+0.00,-5.00,+10.00,+3.00,-4.00,+23.00,-18.00,-12.00,-8.00
+2.00,-12.00,-3.00,-2.00,-5.00,-5.00,-18.00,+8.00,+4.00,-13.00,-6.00,-3.00,-7.00,+0.00,-3.00,-3.00
+3.00,+2.00,+2.00,+5.00,+2.00,+7.00,+31.00,+3.00,-5.00,+5.00,+0.00,-3.00,+0.00,-5.00,+2.00,+1.00
-3.00,+2.00,+1.00,-6.00,-3.00,-14.00,-7.00,-11.00,-32.00,-11.00,-6.00,-1.00,-9.00,+5.00,+1.00,+29.00
-1.00,-10.00,-7.00,-3.00,+0.00,+3.00,-3.00,-3.00,+22.00,+7.00,+3.00,+0.00,+11.00,-6.00,-2.00,-6.00
+0.00,-2.00,-2.00,+1.00,-1.00,-1.00,+2.00,-3.00,-13.00,+0.00,+0.00,+0.00,-12.00,-2.00,-3.00,-1.00
-5.00,+5.00,-1.00,-2.00,-1.00,+5.00,-8.00,-4.00,-8.00,+5.00,+0.00,-7.00,+16.00,-11.00,-25.00,-15.00
+0.00,-3.00,+0.00,+1.00,+2.00,-5.00,-5.00,-11.00,+8.00,-2.00,+1.00,+6.00,-38.00,+26.00,+3.00,-3.00
+0.00,-9.00,-2.00,+0.00,+0.00,+5.00,+5.00,+15.00,+14.00,-3.00,-1.00,+1.00,+3.00,-9.00,-3.00,+7.00
+4.00,+5.00,-1.00,-1.00,-2.00,+0.00,-1.00,+23.00,-9.00,-3.00,+1.00,+0.00,+2.00,-11.00,+3.00,-5.00
+1.00,-3.00,-3.00,-2.00,+1.00,+4.00,-6.00,+2.00,-11.00,-4.00,-4.00,+0.00,+9.00,-5.00,-15.00,-5.00
-5.00,-7.00,-5.00,-3.00,-5.00,-6.00,+2.00,+0.00,+4.00,-7.00,-3.00,-5.00,+2.00,+1.00,+4.00,+2.00
-2.00,-7.00,+1.00,+2.00,-1.00,-11.00,-11.00,-2.00,-25.00,-1.00,-2.00,-1.00,+39.00,+3.00,+2.00,-4.00
+0.00,+17.00,+1.00,+0.00,+1.00,+12.00,+9.00,-3.00,+24.00,+2.00,+2.00,+0.00,-43.00,+0.00,-1.00,+6.00
-1.00,+5.00,-1.00,+0.00,-1.00,+1.00,-4.00,-1.00,+29.00,+1.00,-1.00,+2.00,+4.00,+2.00,+7.00,+33.00
+4.00,-35.00,-5.00,-7.00,-5.00,-12.00,+1.00,-5.00,+45.00,+0.00,+0.00,-2.00,-14.00,+6.00,+2.00,-51.00
+5.00,+37.00,+4.00,+4.00,+3.00,+14.00,+6.00,+6.00,+21.00,-3.00,-2.00,-2.00,+10.00,-10.00,+0.00,-13.00
-1.00,-7.00,-2.00,-5.00,-1.00,-3.00,-2.00,-23.00,+3.00,-1.00,+1.00,-2.00,+16.00,+0.00,+5.00,+30.00
+0.00,+3.00,-1.00,+0.00,+3.00,+2.00,-1.00,+1.00,-66.00,-10.00,-3.00,-1.00,-10.00,+5.00,+0.00,-30.00
-2.00,+7.00,+2.00,-2.00,-1.00,-4.00,+0.00,+5.00,+6.00,+12.00,-2.00,-2.00,+1.00,+0.00,+1.00,+8.00
-2.00,-28.00,-11.00,-5.00,-2.00,-13.00,-1.00,-21.00,-15.00,+1.00,-1.00,-4.00,-4.00,-12.00,-21.00,+6.00
-5.00,+13.00,+9.00,-2.00,-1.00,+13.00,+1.00,+2.00,-7.00,-2.00,+0.00,+0.00,+3.00,+1.00,+2.00,-8.00
-1.00,+1.00,-2.00,-3.00,-4.00,+5.00,-2.00,-1.00,-14.00,-2.00,+0.00,+1.00,-9.00,-4.00,+0.00,+6.00
+0.00,-1.00,+0.00,+0.00,-2.00,+0.00,-5.00,+36.00,-12.00,-2.00,+5.00,+1.00,+8.00,+3.00,+0.00,+56.00
-1.00,-6.00,-2.00,+0.00,-4.00,-12.00,-9.00,-1.00,+7.00,-3.00,-5.00,-2.00,-7.00,-8.00,+2.00,-59.00
+2.00,-3.00,+0.00,+0.00,+0.00,-9.00,+6.00,+5.00,+27.00,+6.00,+3.00,+4.00,-9.00,+1.00,+1.00,-3.00
-2.00,-6.00,-2.00,-5.00,-5.00,-4.00,-4.00,-11.00,+3.00,+6.00,+5.00,+0.00,+15.00,+4.00,+5.00,-6.00
-5.00,+12.00,+1.00,+8.00,+8.00,+36.00,-2.00,-4.00,-22.00,-8.00,-8.00,-4.00,-3.00,-2.00,-3.00,-8.00
-1.00,+3.00,+0.00,-3.00,+0.00,+9.00,-7.00,-12.00,-13.00,-3.00,-1.00,-2.00,-10.00,-2.00,-2.00,+0.00
-2.00,+0.00,-4.00,+1.00,+0.00,-6.00,-3.00,-10.00,-25.00,-3.00,-4.00,-4.00,+10.00,+4.00,+1.00,-8.00
-1.00,-3.00,-1.00,-4.00,+0.00,-3.00,+5.00,+12.00,+65.00,+1.00,-1.00,-2.00,-8.00,+1.00,+3.00,+9.00
-2.00,+7.00,-1.00,-5.00,-1.00,-12.00,-1.00,-18.00,+47.00,-3.00,+2.00,+4.00,+0.00,+2.00,-5.00,-18.00
-3.00,-1.00,+2.00,+1.00,-1.00,+2.00,-4.00,-1.00,+12.00,+0.00,-1.00,+2.00,+1.00,-2.00,-9.00,+10.00
+0.00,-11.00,+0.00,+6.00,+3.00,+3.00,+7.00,-3.00,-10.00,-3.00,+2.00,-1.00,-5.00,-6.00,-9.00,-19.00
-3.00,-6.00,-4.00,-1.00,-3.00,-3.00,-4.00,+4.00,-17.00,-2.00,-3.00,-2.00,+10.00,-2.00,+3.00,+5.00
-5.00,+13.00,+0.00,-1.00,-2.00,-8.00,-7.00,-52.00,-27.00,-2.00,-2.00,-3.00,-16.00,+2.00,-1.00,-11.00
-4.00,-3.00,+5.00,-5.00,-2.00,+2.00,+1.00,-4.00,-17.00,-4.00,-2.00,+0.00,+1.00,-7.00,+3.00,+5.00
-1.00,-3.00,-6.00,-5.00,-1.00,-5.00,+0.00,-1.00,-23.00,+0.00,-5.00,-4.00,+4.00,-2.00,-1.00,+4.00
+3.00,+4.00,-4.00,+3.00,+2.00,+1.00,-5.00,-3.00,+29.00,+5.00,+0.00,-3.00,+6.00,-1.00,-1.00,-8.00
+2.00,-9.00,-1.00,-2.00,+1.00,-7.00,+3.00,+17.00,+98.00,-5.00,-2.00,-2.00,-11.00,-2.00,-2.00,-18.00
+3.00,-11.00,-6.00,-6.00,-3.00,+5.00,+10.00,+52.00,+42.00,-6.00,-6.00,+0.00,-1.00,-4.00,+2.00,+39.00
-1.00,-1.00,-1.00,+0.00,-6.00,-5.00,-8.00,+23.00,-9.00,-2.00,-1.00,+0.00,+2.00,+1.00,+4.00,+5.00
+3.00,-5.00,+1.00,-1.00,-1.00,+3.00,+1.00,+14.00,+12.00,+13.00,+19.00,+3.00,-5.00,+1.00,+1.00,+1.00
-6.00,+6.00,-2.00,-1.00,-2.00,+0.00,+3.00,-10.00,-48.00,-16.00,-22.00,-9.00,+8.00,-1.00,-4.00,-8.00
-4.00,+2.00,+1.00,-2.00,-3.00,-2.00,-7.00,-33.00,-83.00,-2.00,+0.00,+0.00,-6.00,-5.00,-1.00,-1.00
+0.00,-7.00,+2.00,-3.00,+3.00,+7.00,+1.00,-4.00,-101.00,-9.00,-6.00,-2.00,-2.00,+0.00,+0.00,-6.00
-4.00,+10.00,-6.00,-3.00,-2.00,-3.00,-9.00,-98.00,-116.00,-3.00,-3.00,+0.00,+0.00,-5.00,-4.00,-1.00
+2.00,-2.00,-1.00,-1.00,-2.00,-5.00,+3.00,+12.00,-80.00,+4.00,+8.00,+0.00,+2.00,-1.00,-1.00,+7.00
-2.00,+1.00,-2.00,-1.00,+1.00,-1.00,-9.00,-9.00,-24.00,+3.00,+3.00,-4.00,-5.00,+0.00,+3.00,-4.00
+3.00,+1.00,-2.00,-4.00,+0.00,-10.00,-1.00,+36.00,-24.00,-3.00,+0.00,+0.00,+4.00,+1.00,+1.00,+1.00
+2.00,-3.00,+4.00,+1.00,+3.00,+17.00,+4.00,+22.00,-8.00,-3.00,-3.00,+1.00,-6.00,-3.00,-11.00,-15.00
-2.00,-2.00,-3.00,-3.00,-1.00,-4.00,-2.00,+0.00,-11.00,+3.00,+3.00,+2.00,+2.00,+1.00,+0.00,+3.00
-4.00,-1.00,+1.00,-1.00,+0.00,-3.00,+4.00,-3.00,-25.00,-4.00,-2.00,-2.00,-5.00,+0.00,+20.00,+27.00
-6.00,-1.00,-3.00,+0.00,-2.00,+13.00,-4.00,-61.00,+15.00,+2.00,+3.00,-1.00,+2.00,-1.00,+1.00,-8.00
-1.00,+2.00,+3.00,-2.00,+0.00,-4.00,+1.00,+20.00,-1.00,-3.00,-8.00,+0.00,-4.00,-1.00,-3.00,+5.00
+5.00,+2.00,+3.00,-5.00,-2.00,-1.00,-1.00,+3.00,-38.00,+0.00,+0.00,-1.00,-2.00,-1.00,-6.00,-11.00
-1.00,-7.00,+1.00,+4.00,-1.00,+0.00,+2.00,+24.00,-7.00,+3.00,+0.00,-2.00,-10.00,-4.00,-6.00,-6.00
+2.00,+2.00,-6.00,-4.00,-2.00,-7.00,+0.00,+4.00,+8.00,-3.00,-4.00,-2.00,+9.00,+0.00,-5.00,+6.00
-3.00,-2.00,-1.00,+2.00,-1.00,-3.00,-1.00,+7.00,+6.00,-4.00,+0.00,-2.00,-11.00,-2.00,+0.00,-9.00
+0.00,+3.00,-3.00,+0.00,-3.00,-12.00,-4.00,-16.00,-5.00,+2.00,+3.00,+2.00,+3.00,+0.00,-5.00,+1.00
-2.00,-5.00,+0.00,-1.00,+0.00,+11.00,+6.00,+8.00,+16.00,+1.00,+4.00,+3.00,+0.00,+1.00,+0.00,-1.00
-4.00,+3.00,+3.00,+2.00,+2.00,+0.00,-2.00,-4.00,+27.00,-2.00,-6.00,-4.00,-5.00,+0.00,+4.00,+3.00
-3.00,-1.00,-22.00,-2.00,-1.00,+0.00,+0.00,+4.00,+7.00,-4.00,-8.00,-6.00,-2.00,-1.00,-5.00,-8.00
+1.00,-5.00,+14.00,-1.00,-3.00,-6.00,-2.00,+9.00,-5.00,-1.00,-1.00,+2.00,+5.00,-1.00,+0.00,-9.00
+1.00,-4.00,-2.00,-3.00,-1.00,+0.00,+0.00,-6.00,+13.00,+4.00,+3.00,-4.00,-7.00,-2.00,-5.00,-10.00
-3.00,+6.00,+2.00,-1.00,+0.00,-2.00,-2.00,+5.00,+9.00,+1.00,+3.00,+2.00,+5.00,-4.00,-2.00,+0.00
+3.00,-5.00,+2.00,-1.00,+0.00,-2.00,+2.00,+20.00,+13.00,-3.00,-1.00,+0.00,+0.00,+1.00,+0.00,+13.00
-2.00,-3.00,-5.00,-4.00,+1.00,+0.00,-3.00,-2.00,+0.00,+1.00,+2.00,+1.00,-3.00,-2.00,+1.00,+1.00
+2.00,-2.00,-2.00,-4.00,-2.00,-1.00,+3.00,-7.00,-7.00,-19.00,-7.00,+0.00,+4.00,+1.00,+5.00,-6.00
+0.00,-3.00,+2.00,-5.00,-3.00,+3.00,+0.00,-4.00,+3.00,+9.00,-1.00,-2.00,-4.00,-1.00,-5.00,-35.00
+0.00,-5.00,+1.00,-1.00,-4.00,-8.00,-1.00,+8.00,-30.00,-12.00,-2.00,-2.00,-1.00,+5.00,+1.00,-16.00
+2.00,-4.00,-4.00,+0.00,+2.00,+3.00,+3.00,+41.00,+61.00,+14.00,+3.00,-7.00,+28.00,-2.00,+0.00,+2.00
-1.00,-7.00,+0.00,+2.00,-2.00,-2.00,+1.00,-1.00,+17.00,+1.00,-2.00,-3.00,-33.00,+4.00,-3.00,-8.00
+3.00,-6.00,-5.00,+1.00,-3.00,-3.00,+1.00,+12.00,+3.00,-10.00,-1.00,+9.00,-11.00,-5.00,-5.00,+0.00
+0.00,-4.00,+5.00,+0.00,-1.00,-2.00,-1.00,+3.00,+0.00,-4.00,-2.00,+3.00,+0.00,+0.00,+1.00,+3.00
+0.00,+0.00,-1.00,+0.00,-2.00,+0.00,+0.00,+3.00,-29.00,-11.00,+1.00,+0.00,-8.00,-2.00,-8.00,-30.00
-1.00,+5.00,-1.00,+0.00,+2.00,+0.00,-2.00,-10.00,+0.00,+0.00,-4.00,-8.00,+19.00,-4.00,-3.00,-6.00
+1.00,-5.00,+0.00,+2.00,-1.00,-8.00,+0.00,+28.00,+8.00,-3.00,-2.00,-4.00,-2.00,-3.00,-16.00,+27.00
-1.00,-8.00,+3.00,+3.00,+2.00,+13.00,-4.00,+0.00,+8.00,+4.00,-2.00,-1.00,-14.00,-13.00,+4.00,+17.00
-2.00,-1.00,-6.00,-5.00,+0.00,+1.00,-3.00,-16.00,-18.00,-7.00,-2.00,+1.00,+7.00,+5.00,+11.00,-2.00
-1.00,+14.00,+2.00,-4.00,+0.00,+1.00,+1.00,-11.00,+4.00,+8.00,-1.00,+1.00,+2.00,+2.00,+0.00,+2.00
-3.00,-2.00,+2.00,+4.00,+1.00,+1.00,-2.00,-15.00,-1.00,-1.00,-1.00,-1.00,+1.00,+5.00,+1.00,-10.00
-5.00,-1.00,-4.00,+1.00,-2.00,-6.00,-3.00,-8.00,+6.00,-1.00,+3.00,+1.00,+2.00,-10.00,-10.00,-38.00
-1.00,-4.00,-1.00,+6.00,-1.00,-1.00,-3.00,-8.00,+0.00,+0.00,-3.00,-2.00,-11.00,-5.00,+0.00,+4.00
-2.00,+3.00,-2.00,-4.00,-2.00,-3.00,+1.00,+5.00,-1.00,-1.00,-1.00,-2.00,+2.00,-4.00,-7.00,+8.00
+0.00,-2.00,-1.00,-4.00,-2.00,-1.00,-2.00,+1.00,-1.00,-2.00,-1.00,-4.00,-3.00,-6.00,+0.00,+4.00
-2.00,-1.00,+3.00,-1.00,+0.00,-19.00,-1.00,+6.00,+13.00,+2.00,+0.00,-3.00,+6.00,+3.00,-9.00,+9.00
-3.00,+4.00,+1.00,+0.00,+2.00,+12.00,+1.00,+17.00,-7.00,+5.00,+5.00,+1.00,-10.00,+2.00,+5.00,-2.00
+4.00,+8.00,-3.00,-1.00,-3.00,-5.00,-4.00,-14.00,+1.00,-8.00,-6.00,+2.00,+0.00,+0.00,-3.00,-10.00
-3.00,-18.00,+4.00,+4.00,+0.00,+4.00,+1.00,-3.00,+4.00,-3.00,-2.00,-1.00,+18.00,+3.00,+2.00,+12.00
-3.00,-3.00,-1.00,-5.00,-1.00,-5.00,-8.00,-23.00,+4.00,+0.00,-3.00,-4.00,-23.00,-3.00,+0.00,+2.00
+1.00,-4.00,-3.00,-7.00,-5.00,-2.00,-1.00,+3.00,-13.00,-7.00,-4.00,+0.00,+13.00,+1.00,+2.00,+5.00
-3.00,-3.00,+0.00,+0.00,-5.00,-63.00,-12.00,-9.00,+16.00,+13.00,+6.00,+2.00,-16.00,-5.00,-1.00,+5.00
-6.00,+5.00,-2.00,+2.00,+7.00,+54.00,+5.00,-9.00,+3.00,+3.00,+3.00,-1.00,+2.00,-1.00,+3.00,-5.00
+4.00,+4.00,-1.00,-4.00,-2.00,+5.00,+1.00,+13.00,+1.00,-2.00,-3.00,-3.00,+5.00,+2.00,+0.00,+10.00
-4.00,+0.00,+0.00,+2.00,+1.00,+3.00,-2.00,-36.00,-3.00,+1.00,+1.00,+0.00,-2.00,-5.00,-2.00,-58.00
-5.00,-5.00,-3.00,-3.00,-4.00,-1.00,+2.00,+12.00,-3.00,-3.00,-1.00,-2.00,-5.00,-3.00,-5.00,-14.00
+3.00,+3.00,+1.00,-6.00,-5.00,-24.00,-4.00,-18.00,+5.00,-5.00,-2.00,-6.00,+11.00,-2.00,-2.00,-10.00
-1.00,-2.00,+1.00,+1.00,+2.00,+3.00,+0.00,+17.00,+5.00,+4.00,+2.00,+4.00,-13.00,-1.00,+0.00,+5.00
+0.00,+1.00,-1.00,-2.00,-2.00,-2.00,-5.00,-32.00,-10.00,-8.00,-5.00,-1.00,-17.00,-24.00,-3.00,+10.00
-2.00,-8.00,-2.00,-3.00,-1.00,+11.00,-3.00,-8.00,+4.00,+3.00,-2.00,-3.00,+5.00,+38.00,+10.00,-22.00
-3.00,-1.00,+0.00,+0.00,-2.00,-10.00,-1.00,+20.00,-1.00,+0.00,+0.00,+13.00,+8.00,+4.00,+13.00,-4.00
-1.00,+3.00,-1.00,+2.00,-1.00,+11.00,+5.00,+6.00,+2.00,+1.00,-2.00,+0.00,+14.00,+5.00,+11.00,+13.00
-3.00,-1.00,+2.00,+2.00,-1.00,-12.00,-2.00,-13.00,+0.00,-4.00,-3.00,-2.00,+1.00,-2.00,-5.00,+24.00
+0.00,+0.00,+0.00,-1.00,+3.00,+16.00,+4.00,-2.00,-21.00,-3.00,+0.00,-1.00,+0.00,-15.00,-7.00,-3.00
+3.00,-4.00,-3.00,+0.00,+1.00,-2.00,+0.00,+7.00,+7.00,+0.00,-1.00,-7.00,-13.00,-3.00,-2.00,-4.00
-1.00,+10.00,+4.00,-7.00,-2.00,-9.00,+1.00,+56.00,+13.00,+9.00,+11.00,+2.00,+9.00,+3.00,+2.00,-7.00
-1.00,-3.00,-9.00,-3.00,-2.00,-3.00,+1.00,+9.00,+5.00,-3.00,-12.00,-7.00,+0.00,-1.00,-4.00,+4.00
-1.00,-1.00,+7.00,+1.00,+1.00,+10.00,+0.00,-6.00,+6.00,+0.00,-5.00,-1.00,+6.00,-1.00,+0.00,-12.00
-3.00,+5.00,-1.00,-3.00,-2.00,-4.00,+3.00,+17.00,-13.00,-9.00,-4.00,-3.00,-22.00,-1.00,+1.00,-5.00
+3.00,-4.00,-2.00,+1.00,+0.00,+7.00,+1.00,+0.00,-3.00,+0.00,+3.00,+2.00,+2.00,-5.00,-4.00,+5.00
+0.00,+1.00,-1.00,-2.00,+1.00,-12.00,-4.00,-21.00,-7.00,+0.00,+5.00,+0.00,-13.00,-14.00,-4.00,-60.00
-4.00,-3.00,-1.00,-2.00,+3.00,+18.00,+7.00,+20.00,+12.00,+1.00,+0.00,+1.00,+20.00,+34.00,+2.00,+17.00
+2.00,+3.00,+0.00,-4.00,-2.00,-11.00,-5.00,-16.00,-2.00,+4.00,+5.00,+0.00,+5.00,-2.00,-1.00,-20.00
-4.00,-9.00,-5.00,-1.00,-1.00,+2.00,+2.00,-26.00,+2.00,-9.00,-9.00,-7.00,-2.00,-2.00,-5.00,+21.00
-2.00,+7.00,+3.00,-1.00,-3.00,-3.00,-5.00,+14.00,+5.00,+2.00,+0.00,+1.00,+1.00,+8.00,+5.00,+42.00
-4.00,-2.00,-1.00,-3.00,-4.00,-10.00,-3.00,-7.00,-9.00,-6.00,-3.00,-1.00,+1.00,-16.00,-9.00,+2.00
-3.00,-1.00,-2.00,-3.00,-4.00,+1.00,-5.00,-9.00,+2.00,+1.00,+1.00,-3.00,+1.00,+0.00,+3.00,+2.00
+0.00,-1.00,+0.00,+1.00,+7.00,-6.00,+2.00,-8.00,-4.00,+0.00,-3.00,-3.00,-20.00,+0.00,-5.00,+2.00
-2.00,-7.00,+0.00,-5.00,+0.00,+6.00,-4.00,-1.00,-9.00,-3.00,-3.00,+0.00,+9.00,+4.00,-4.00,+8.00
+0.00,+1.00,-3.00,+0.00,-2.00,+0.00,-2.00,+39.00,-12.00,-1.00,+3.00,+4.00,-5.00,-13.00,-11.00,+3.00
+3.00,+3.00,-1.00,+2.00,+1.00,+6.00,+2.00,-30.00,+1.00,-5.00,-2.00,+0.00,+0.00,+4.00,-6.00,+13.00
-3.00,-1.00,-1.00,-1.00,-4.00,-2.00,-4.00,-12.00,+19.00,+11.00,-3.00,-3.00,+5.00,-3.00,+4.00,+5.00
+0.00,-7.00,-2.00,-3.00,+1.00,-3.00,+4.00,+26.00,+1.00,-1.00,+1.00,-1.00,+17.00,+7.00,+2.00,+7.00
+1.00,+6.00,+0.00,-5.00,+2.00,+12.00,-1.00,+5.00,-2.00,+0.00,+0.00,-6.00,-28.00,-9.00,-1.00,-9.00
+0.00,-7.00,-11.00,-4.00,-3.00,-13.00,-7.00,+22.00,-1.00,-1.00,+1.00,+0.00,-5.00,+0.00,+12.00,+12.00
+0.00,+25.00,+11.00,-1.00,-1.00,+0.00,-2.00,-20.00,-12.00,-6.00,-6.00,+1.00,+14.00,+2.00,-3.00,-18.00
-4.00,-10.00,-4.00,+0.00,-5.00,+3.00,+0.00,-3.00,-14.00,-11.00,+2.00,+0.00,-20.00,-1.00,-3.00,-7.00
-3.00,-8.00,-5.00,-3.00,-6.00,-21.00,-4.00,-22.00,+5.00,+5.00,-6.00,-3.00,+10.00,-5.00,-6.00,+4.00
-1.00,+4.00,-1.00,+4.00,+4.00,+31.00,+4.00,+8.00,-6.00,-7.00,-1.00,-3.00,-6.00,-5.00,-12.00,+10.00
-7.00,-4.00,-4.00,+2.00,-3.00,-4.00,+0.00,-3.00,+22.00,+4.00,-2.00,-3.00,-4.00,-1.00,+4.00,-5.00
-3.00,+2.00,-1.00,-3.00,+5.00,+5.00,-1.00,-12.00,-1.00,+4.00,+3.00,+0.00,-1.00,+2.00,-13.00,+5.00
-2.00,-2.00,+2.00,+1.00,-1.00,-2.00,+0.00,+8.00,-10.00,-11.00,-1.00,+0.00,-1.00,-4.00,+13.00,+6.00
+2.00,-7.00,+0.00,-4.00,-4.00,-16.00,-4.00,-5.00,-8.00,+0.00,+0.00,+1.00,-4.00,+5.00,+29.00,+5.00
-1.00,-4.00,-2.00,+0.00,-2.00,+1.00,+2.00,-6.00,-12.00,-5.00,-3.00,+1.00,+6.00,+0.00,-8.00,-16.00
-1.00,+3.00,+1.00,-1.00,-3.00,+0.00,+1.00,+3.00,+8.00,+2.00,-1.00,-4.00,-2.00,+1.00,+4.00,-25.00
+2.00,-5.00,-3.00,-3.00,+0.00,+0.00,+0.00,-12.00,+0.00,-1.00,+0.00,-1.00,+0.00,-6.00,-4.00,+1.00
-3.00,-4.00,+0.00,-4.00,-3.00,-8.00,-3.00,-9.00,+7.00,+4.00,+5.00,+0.00,+0.00,-2.00,-8.00,-2.00
-5.00,-7.00,+0.00,+1.00,-2.00,+0.00,-1.00,+22.00,-2.00,-6.00,-4.00,+0.00,+4.00,+1.00,-1.00,+4.00
+0.00,+3.00,-1.00,+0.00,+1.00,-2.00,+1.00,+11.00,-1.00,-3.00,-8.00,-6.00,-6.00,+2.00,+11.00,-6.00
+0.00,+4.00,-2.00,+1.00,+1.00,+7.00,+0.00,-14.00,-1.00,-2.00,+0.00,-3.00,-2.00,-6.00,-8.00,-5.00
-4.00,+10.00,+2.00,+0.00,-2.00,+0.00,+1.00,-12.00,+1.00,+2.00,-3.00,-3.00,+2.00,-3.00,-14.00,-8.00
+5.00,-13.00,-6.00,-2.00,-4.00,-2.00,-2.00,+5.00,-4.00,-3.00,+4.00,+1.00,-4.00,-15.00,-3.00,+17.00
-2.00,+1.00,-1.00,-1.00,-2.00,-3.00,-2.00,-21.00,-5.00,-9.00,-2.00,+2.00,-6.00,+33.00,+22.00,+47.00
+1.00,+1.00,-1.00,+1.00,-1.00,-2.00,-4.00,-2.00,+8.00,+14.00,-1.00,-1.00,+5.00,+1.00,+12.00,+8.00
-3.00,+6.00,+2.00,-1.00,+3.00,+6.00,+4.00,+8.00,+2.00,-6.00,-5.00,-3.00,-2.00,-1.00,-7.00,+13.00
-2.00,+1.00,-5.00,-1.00,+0.00,-10.00,-3.00,-6.00,-7.00,+5.00,+12.00,-3.00,+0.00,+0.00,-5.00,-12.00
+2.00,+1.00,-1.00,+4.00,+4.00,+25.00,+1.00,+1.00,+6.00,-7.00,-16.00,-5.00,-4.00,-11.00,-9.00,+5.00
-3.00,+10.00,-2.00,-7.00,-2.00,+2.00,-2.00,-14.00,-3.00,+5.00,+3.00,+0.00,+3.00,-4.00,-2.00,-17.00
+3.00,-9.00,-4.00,-2.00,-2.00,-7.00,+5.00,+21.00,-3.00,-2.00,-4.00,-4.00,-4.00,+2.00,-2.00,-9.00
-4.00,-10.00,+1.00,+1.00,-1.00,-1.00,-1.00,-9.00,-1.00,+2.00,-2.00,-2.00,-3.00,-4.00,+0.00,-2.00
-2.00,-4.00,-1.00,-1.00,-4.00,-8.00,+0.00,+7.00,+1.00,-2.00,+9.00,+1.00,+0.00,-5.00,-5.00,-6.00
-2.00,-2.00,+1.00,-1.00,+2.00,+4.00,-1.00,-11.00,-1.00,-10.00,-2.00,+0.00,+3.00,-1.00,-6.00,+3.00
-4.00,-4.00,+0.00,+2.00,+1.00,-2.00,-4.00,-6.00,-3.00,-1.00,-5.00,-1.00,-3.00,-6.00,-7.00,-8.00
-4.00,-6.00,-2.00,-3.00,+1.00,+3.00,-4.00,-52.00,-5.00,-9.00,+0.00,-2.00,-18.00,+2.00,+10.00,-2.00
-2.00,+17.00,+1.00,-3.00,-6.00,-13.00,-13.00,-56.00,-1.00,+2.00,-2.00,-1.00,+24.00,-3.00,-7.00,+4.00
-3.00,-6.00,-3.00,+1.00,-2.00,+2.00,+2.00,+14.00,+0.00,-1.00,-1.00,+3.00,-25.00,-1.00,+3.00,-2.00
-1.00,-1.00,-2.00,-3.00,-1.00,-7.00,-1.00,-14.00,-1.00,+2.00,+2.00,+0.00,+7.00,+2.00,+0.00,-1.00
+4.00,-12.00,+0.00,+2.00,+2.00,+3.00,+2.00,+52.00,-1.00,-3.00,-6.00,+0.00,+3.00,+4.00,+1.00,+6.00
-1.00,-2.00,+2.00,-4.00,-2.00,-4.00,-6.00,-35.00,+1.00,+4.00,+0.00,+0.00,-8.00,-3.00,-1.00,-3.00
-1.00,-4.00,-2.00,-3.00,+0.00,+3.00,+0.00,+0.00,-1.00,+0.00,+0.00,-3.00,+7.00,-3.00,+0.00,+11.00
-6.00,+0.00,-3.00,-1.00,-3.00,-3.00,-2.00,+5.00,+1.00,+0.00,+5.00,+2.00,+2.00,-1.00,-4.00,-5.00
+2.00,-3.00,-6.00,+0.00,-2.00,+1.00,-2.00,-2.00,-3.00,-3.00,-6.00,-2.00,-1.00,+3.00,+0.00,-1.00
+0.00,-2.00,+3.00,-6.00,-1.00,-8.00,-2.00,+25.00,+5.00,-1.00,+4.00,-1.00,-2.00,-4.00,-8.00,+7.00
+4.00,+5.00,+8.00,+6.00,+2.00,+11.00,+3.00,-7.00,-2.00,-4.00,+2.00,-4.00,+4.00,-3.00,-9.00,-10.00
-5.00,-3.00,-6.00,-4.00,-2.00,-4.00,+0.00,-2.00,-2.00,-3.00,-6.00,-3.00,-7.00,-1.00,+8.00,+1.00
-5.00,-8.00,-31.00,-3.00,-4.00,-4.00,-4.00,-11.00,-4.00,-5.00,+0.00,+0.00,+4.00,+1.00,+3.00,-9.00
-2.00,+14.00,+20.00,+3.00,+3.00,+1.00,+3.00,+13.00,+1.00,+10.00,+8.00,+1.00,-6.00,-2.00,-4.00,+7.00
+2.00,-4.00,-3.00,-1.00,+0.00,-2.00,-4.00,-18.00,-5.00,-12.00,-10.00,+1.00,+0.00,-1.00,+3.00,-7.00
+1.00,+3.00,+5.00,-1.00,-1.00,-4.00,-4.00,-2.00,-3.00,+1.00,+3.00,+1.00,-2.00,-2.00,-6.00,-1.00
-3.00,+5.00,+0.00,-4.00,-1.00,+2.00,-1.00,-10.00,+5.00,-6.00,-5.00,+0.00,+4.00,-1.00,+0.00,-33.00
+0.00,-3.00,-9.00,-1.00,+1.00,+0.00,-1.00,-2.00,-2.00,-3.00,-2.00,-3.00,-4.00,-4.00,-4.00,-5.00
-2.00,-1.00,-1.00,-5.00,-2.00,-1.00,+2.00,+16.00,-1.00,-3.00,+1.00,+2.00,-3.00,-2.00,-4.00,-2.00
+5.00,-3.00,-1.00,+2.00,-2.00,-12.00,+1.00,+54.00,-2.00,-1.00,-4.00,-2.00,+1.00,-5.00,-4.00,-12.00
+0.00,+9.00,+2.00,+0.00,+2.00,+15.00,-5.00,-41.00,-3.00,-2.00,-2.00,-2.00,+1.00,+1.00,-10.00,+1.00
-1.00,-9.00,-3.00,-1.00,+1.00,-1.00,+3.00,+17.00,-1.00,+0.00,-1.00,-2.00,-4.00,-2.00,+4.00,+1.00
+0.00,+2.00,+3.00,+0.00,+3.00,-6.00,+2.00,+3.00,+1.00,+2.00,-1.00,-2.00,+3.00,+0.00,-3.00,+1.00
