-2.00,-1.00,-1.00,-1.00,-1.00,+0.00,-1.00,-2.00,-1.00,+1.00,-3.00,+0.00,-2.00,-2.00,-2.00,+2.00
-5.00,-1.00,-2.00,+0.00,-2.00,-1.00,+1.00,+0.00,-2.00,-3.00,+0.00,-1.00,+0.00,-2.00,-1.00,+0.00
-2.00,+0.00,+0.00,-2.00,-2.00,-2.00,-1.00,-1.00,+2.00,+0.00,-1.00,+0.00,+4.00,+0.00,+0.00,+0.00
-3.00,-1.00,-1.00,+0.00,+2.00,-1.00,-1.00,-3.00,-3.00,+0.00,-2.00,-1.00,-7.00,+0.00,+1.00,+1.00
-3.00,-3.00,-1.00,+0.00,-1.00,+0.00,+0.00,+1.00,-2.00,-3.00,-2.00,-3.00,-1.00,-2.00,-2.00,-1.00
-1.00,+0.00,-1.00,-2.00,-2.00,-1.00,-1.00,-1.00,-1.00,-1.00,-2.00,-1.00,+9.00,-3.00,+0.00,-1.00
-1.00,-2.00,+0.00,-2.00,-1.00,-1.00,+0.00,-1.00,-1.00,+1.00,-1.00,-1.00,-11.00,-2.00,+0.00,-4.00
-5.00,+0.00,-2.00,+2.00,-2.00,-1.00,+0.00,-4.00,+1.00,-1.00,-1.00,-1.00,+1.00,+0.00,+1.00,-1.00
+1.00,-2.00,+0.00,-1.00,+0.00,+1.00,+0.00,+0.00,-12.00,-10.00,-3.00,-2.00,-1.00,-1.00,-4.00,-8.00
-6.00,-2.00,+0.00,-4.00,+0.00,+0.00,+1.00,+2.00,-57.00,-22.00,-7.00,-2.00,-5.00,+0.00,-3.00,-5.00
-6.00,+1.00,-2.00,-2.00,-3.00,-2.00,-1.00,-1.00,+90.00,+45.00,+5.00,-3.00,+12.00,-1.00,+2.00,+11.00
+0.00,-3.00,+0.00,-2.00,-1.00,+1.00,-2.00,-2.00,+16.00,+19.00,+4.00,+10.00,-16.00,+0.00,+3.00,+7.00
-3.00,-2.00,-4.00,+0.00,-4.00,-3.00,-3.00,-2.00,+10.00,+12.00,+0.00,+0.00,-3.00,-1.00,-2.00,+0.00
+1.00,-1.00,+0.00,+0.00,-2.00,-1.00,-2.00,+0.00,-23.00,-36.00,-8.00,-4.00,-2.00,-8.00,-9.00,-17.00
+1.00,+0.00,-1.00,-2.00,+0.00,-1.00,+0.00,+0.00,-70.00,-33.00,-26.00,-15.00,-35.00,-4.00,-7.00,-16.00
-5.00,-2.00,+1.00,+0.00,+0.00,-1.00,+1.00,+0.00,+30.00,+64.00,+33.00,+14.00,+38.00,+16.00,+16.00,+22.00
-1.00,+1.00,+0.00,-4.00,+3.00,+0.00,+1.00,+1.00,-2.00,-3.00,+3.00,+0.00,-29.00,-5.00,+1.00,-1.00
-2.00,-1.00,-2.00,-1.00,+0.00,+0.00,+0.00,+0.00,+7.00,+10.00,+4.00,+3.00,+2.00,-1.00,+1.00,+3.00
+0.00,+0.00,+1.00,-2.00,-1.00,+0.00,-1.00,-2.00,-30.00,-28.00,-1.00,-1.00,-2.00,-3.00,-3.00,-7.00
-4.00,+1.00,-2.00,-3.00,-2.00,+0.00,+1.00,+0.00,+1.00,-21.00,-16.00,-10.00,+3.00,-6.00,-8.00,-15.00
-5.00,-1.00,-1.00,-1.00,-1.00,-1.00,+0.00,-3.00,-12.00,-2.00,-2.00,-3.00,+4.00,+3.00,+1.00,+1.00
-3.00,-1.00,+0.00,-1.00,-3.00,-4.00,-2.00,-4.00,+11.00,+5.00,+0.00,-2.00,+2.00,+2.00,+1.00,+1.00
-1.00,-2.00,+1.00,-1.00,-1.00,-3.00,+0.00,+0.00,+8.00,+1.00,-1.00,+2.00,+9.00,-1.00,-4.00,-3.00
+1.00,-3.00,-2.00,-1.00,-1.00,+13.00,+0.00,+1.00,-12.00,-14.00,-7.00,-5.00,-12.00,-2.00,-3.00,-5.00
-3.00,-1.00,-1.00,-1.00,-1.00,+0.00,-2.00,-3.00,+6.00,+1.00,+3.00,+4.00,+12.00,+0.00,-1.00,+1.00
-4.00,-1.00,-2.00,-2.00,+0.00,-1.00,-3.00,-3.00,+9.00,+0.00,-6.00,-5.00,-12.00,-2.00,-2.00,-1.00
-2.00,-1.00,-1.00,-1.00,+0.00,+1.00,+1.00,-2.00,+13.00,+8.00,+4.00,+1.00,+6.00,+2.00,+3.00,+9.00
-4.00,+1.00,+2.00,+0.00,+2.00,-5.00,+0.00,-3.00,-19.00,-10.00,-2.00,-1.00,-4.00,-3.00,-2.00,-2.00
-2.00,+5.00,-1.00,-1.00,-2.00,-1.00,-2.00,+0.00,-7.00,-6.00,-3.00,-3.00,-3.00,-1.00,-2.00,-1.00
-2.00,+8.00,+1.00,-3.00,-1.00,+3.00,-1.00,+0.00,+20.00,+12.00,+2.00,-1.00,+7.00,+1.00,-2.00,-2.00
-4.00,-31.00,-5.00,-1.00,-2.00,-6.00,-1.00,-1.00,-14.00,+1.00,+6.00,+4.00,-4.00,+1.00,+1.00,+2.00
-8.00,-14.00,+5.00,+4.00,+4.00,+15.00,+4.00,+4.00,-9.00,-15.00,-7.00,-3.00,-6.00,-3.00,-2.00,+0.00
-1.00,-3.00,-1.00,-1.00,+0.00,+2.00,+0.00,+1.00,+6.00,+3.00,-4.00,-6.00,+7.00,-4.00,-4.00,-7.00
-6.00,+24.00,-7.00,-12.00,-15.00,-10.00,-4.00,-10.00,-4.00,-7.00,-5.00,+0.00,+5.00,+0.00,-1.00,-7.00
-7.00,-90.00,-12.00,-10.00,+1.00,-21.00,-21.00,-10.00,+13.00,+1.00,+2.00,+1.00,+4.00,-1.00,+1.00,+5.00
+46.00,+51.00,+19.00,+28.00,+15.00,+10.00,+19.00,+27.00,-11.00,+1.00,-3.00,-5.00,-11.00,+1.00,-1.00,-1.00
+2.00,-45.00,+4.00,+1.00,+3.00,+21.00,+6.00,+2.00,+5.00,+0.00,-1.00,-4.00,+35.00,-2.00,-2.00,+4.00
+5.00,-24.00,+4.00,+1.00,+4.00,+14.00,+4.00,+2.00,+6.00,+13.00,+4.00,+6.00,-48.00,-9.00,+0.00,+0.00
+1.00,+23.00,+1.00,-3.00,-6.00,-6.00,+0.00,-4.00,-29.00,-21.00,-2.00,+0.00,+17.00,-4.00,-5.00,-11.00
-11.00,-36.00,-13.00,-13.00,-10.00,-22.00,-10.00,-11.00,-16.00,-22.00,-10.00,-1.00,+4.00,-3.00,-4.00,-9.00
+9.00,+3.00,-3.00,+1.00,+1.00,-4.00,-3.00,+1.00,+56.00,+23.00,+5.00,+1.00,+1.00,+3.00,+2.00,+12.00
+10.00,+10.00,+1.00,+0.00,-2.00,-13.00,+2.00,+0.00,-8.00,-18.00,-4.00,-4.00,-5.00,+1.00,-2.00,+0.00
+9.00,-1.00,-5.00,+0.00,-1.00,+5.00,+1.00,+0.00,-68.00,-39.00,-11.00,-11.00,-10.00,-5.00,-4.00,-9.00
-4.00,+0.00,-2.00,-5.00,-3.00,-5.00,-5.00,-3.00,+97.00,+51.00,+11.00,+4.00,-10.00,-4.00,+3.00,+19.00
+3.00,+21.00,-3.00,-1.00,-1.00,-2.00,+1.00,-2.00,-32.00,-4.00,+0.00,+5.00,+47.00,+8.00,-2.00,-6.00
+0.00,-16.00,-1.00,-3.00,-1.00,-1.00,-5.00,-4.00,+5.00,-3.00,-2.00,-10.00,-11.00,-2.00,+0.00,+1.00
+3.00,+23.00,+5.00,+5.00,+0.00,+5.00,+4.00,+1.00,-30.00,-6.00,+2.00,+16.00,-34.00,-5.00,+1.00,+9.00
-5.00,-3.00,-6.00,-5.00,-5.00,+4.00,-5.00,-6.00,-47.00,-14.00,-1.00,+0.00,+20.00,+1.00,-4.00,-19.00
-9.00,+5.00,-2.00,-5.00,-5.00,-12.00,-3.00,-3.00,-9.00,-17.00,-6.00,-6.00,-17.00,-9.00,-1.00,-4.00
+7.00,-14.00,-1.00,+3.00,+2.00,-2.00,-2.00,+0.00,-15.00,-7.00,-2.00,-5.00,+12.00,+5.00,+1.00,+3.00
+1.00,+16.00,+8.00,+1.00,+5.00,+9.00,+6.00,+5.00,+2.00,+13.00,-13.00,-25.00,+20.00,+7.00,-11.00,-13.00
-10.00,+1.00,-2.00,-5.00,+0.00,-9.00,-1.00,-2.00,+69.00,+19.00,+8.00,+18.00,+10.00,-28.00,+18.00,+12.00
-6.00,-35.00,-14.00,-5.00,-7.00,-7.00,-6.00,-4.00,-29.00,+3.00,+7.00,+12.00,+3.00,-1.00,-28.00,+0.00
-7.00,+25.00,+0.00,+2.00,-1.00,-5.00,-2.00,-3.00,-11.00,+2.00,-4.00,+3.00,-7.00,+2.00,-2.00,-6.00
+0.00,+16.00,+0.00,+0.00,-1.00,-11.00,+0.00,+0.00,+30.00,-12.00,-2.00,-1.00,-14.00,-2.00,+1.00,-5.00
-9.00,-19.00,-4.00,+0.00,+0.00,-5.00,+1.00,-3.00,-40.00,+2.00,-4.00,-8.00,+54.00,+7.00,-1.00,+4.00
-6.00,-3.00,+1.00,-3.00,-3.00,+1.00,-3.00,+0.00,-2.00,+0.00,-1.00,-8.00,-83.00,+3.00,+10.00,+0.00
+6.00,-10.00,+1.00,+1.00,+4.00,-1.00,+0.00,+2.00,+18.00,-6.00,+1.00,+6.00,+19.00,-17.00,-9.00,-2.00
+8.00,+17.00,-1.00,+0.00,+5.00,+32.00,+3.00,+0.00,-40.00,-1.00,+3.00,+1.00,-13.00,+10.00,-12.00,-15.00
-11.00,-7.00,-5.00,-6.00,-3.00,-10.00,-6.00,-6.00,+8.00,+3.00,+0.00,-2.00,-1.00,+7.00,+2.00,+20.00
-8.00,-8.00,+2.00,+1.00,+2.00,+8.00,+3.00,+3.00,-17.00,+19.00,+1.00,+8.00,+19.00,+0.00,+1.00,-14.00
-3.00,+56.00,+0.00,-3.00,-7.00,-6.00,-3.00,-1.00,-26.00,-19.00,-1.00,-7.00,-2.00,+3.00,+2.00,+4.00
+8.00,-84.00,-5.00,-6.00,-4.00,-10.00,-2.00,-1.00,+127.00,-10.00,-12.00,-6.00,-5.00,-7.00,+1.00,-2.00
-19.00,+60.00,+9.00,+8.00,-4.00,+2.00,+8.00,+4.00,-42.00,+17.00,+7.00,+2.00,-4.00,-3.00,-5.00,+3.00
-1.00,+0.00,+2.00,+1.00,-3.00,-19.00,-7.00,-1.00,-30.00,-16.00,-2.00,-7.00,-15.00,+0.00,+5.00,-2.00
-4.00,-28.00,-6.00,+0.00,+9.00,-1.00,-5.00,-7.00,+11.00,+16.00,+0.00,+0.00,+1.00,-3.00,-5.00,+11.00
-5.00,+4.00,+4.00,+2.00,+3.00,-12.00,+3.00,+1.00,-23.00,-8.00,+2.00,+4.00,+13.00,-3.00,-2.00,+2.00
+13.00,-3.00,-6.00,-7.00,-2.00,+12.00,-3.00,+3.00,-11.00,-31.00,-17.00,-14.00,-16.00,-2.00,-20.00,-33.00
+3.00,+0.00,-1.00,-2.00,-8.00,-2.00,-5.00,-4.00,-18.00,-16.00,-10.00,-8.00,-19.00,-19.00,+18.00,-5.00
-11.00,-12.00,-3.00,-5.00,-8.00,-15.00,-2.00,-2.00,-60.00,-16.00,+4.00,+7.00,+34.00,+32.00,-19.00,-9.00
+8.00,-31.00,-8.00,-9.00,-9.00,-39.00,-12.00,-4.00,+16.00,+16.00,-2.00,-2.00,+4.00,-18.00,-7.00,+22.00
+10.00,+25.00,+0.00,+6.00,+4.00,+24.00,+16.00,+6.00,-7.00,+31.00,+14.00,+2.00,-4.00,+7.00,+39.00,+17.00
-9.00,+14.00,+2.00,+4.00,+11.00,+3.00,-3.00,-2.00,+20.00,+18.00,+4.00,+11.00,-12.00,-1.00,-22.00,-7.00
+10.00,-20.00,-4.00,-3.00,+0.00,+26.00,+1.00,+1.00,-18.00,-21.00,-5.00,-4.00,+27.00,-17.00,-1.00,-22.00
-8.00,+6.00,-5.00,-2.00,-5.00,-5.00,-4.00,-7.00,-12.00,+21.00,+4.00,+3.00,-28.00,-1.00,+5.00,+0.00
+0.00,-27.00,-1.00,-8.00,-6.00,-19.00,-7.00,-2.00,+9.00,-35.00,-9.00,-6.00,-2.00,-1.00,-18.00,-9.00
-15.00,+15.00,+6.00,+3.00,+2.00,-15.00,-14.00,-4.00,-12.00,-13.00,-4.00,-8.00,+18.00,-4.00,+1.00,-1.00
-17.00,-26.00,-4.00,-3.00,-2.00,+1.00,+23.00,-4.00,+21.00,+17.00,-2.00,-2.00,-21.00,+0.00,+13.00,+9.00
+18.00,+49.00,+1.00,+4.00,+0.00,-4.00,+17.00,+7.00,-12.00,-5.00,+0.00,-1.00,+27.00,-5.00,-7.00,-13.00
-11.00,+2.00,+2.00,+1.00,+11.00,+14.00,+5.00,-3.00,-10.00,-20.00,-1.00,-4.00,-19.00,-4.00,+0.00,+14.00
+18.00,-32.00,+0.00,-2.00,-1.00,+5.00,+7.00,+5.00,-24.00,+10.00,-2.00,+2.00,+3.00,+9.00,+6.00,+5.00
+1.00,+2.00,-6.00,-9.00,-6.00,+0.00,-10.00,+2.00,+0.00,-22.00,-6.00,+0.00,-5.00,-1.00,-10.00,-1.00
-17.00,-68.00,-13.00,-8.00,-8.00,+0.00,-7.00,-10.00,-30.00,+38.00,+4.00,+1.00,-5.00,+3.00,+5.00,-32.00
+15.00,+72.00,+14.00,+8.00,+3.00,-7.00,-5.00,+4.00,+38.00,-22.00,-2.00,-6.00,-5.00,+5.00,-4.00,+27.00
+12.00,+3.00,-7.00,-7.00,-5.00,-6.00,-2.00,-2.00,+79.00,+16.00,-5.00,-4.00,-39.00,-6.00,+4.00,+10.00
-6.00,+0.00,-1.00,+1.00,-7.00,-15.00,-7.00,-8.00,-47.00,+13.00,+8.00,-3.00,+25.00,-1.00,-16.00,+5.00
-7.00,+17.00,+1.00,+0.00,-2.00,+8.00,+1.00,-4.00,-75.00,-14.00,+11.00,+16.00,+1.00,+17.00,+36.00,+24.00
+8.00,-59.00,-13.00,-11.00,-12.00,-16.00,-15.00,-7.00,+19.00,-23.00,-17.00,-19.00,+38.00,-3.00,-18.00,-43.00
+17.00,+20.00,+4.00,-6.00,-1.00,-19.00,-12.00,+1.00,-5.00,-18.00,-3.00,+4.00,-35.00,-20.00,+17.00,+9.00
+13.00,-1.00,+6.00,-3.00,+8.00,+16.00,+18.00,+15.00,+29.00,+26.00,+6.00,+11.00,+21.00,-7.00,+1.00,-2.00
-13.00,+4.00,-4.00,-1.00,+1.00,+29.00,-8.00,-10.00,+19.00,+3.00,-3.00,-2.00,-11.00,-43.00,+28.00,+26.00
-3.00,+23.00,+14.00,+9.00,+7.00,-18.00,+27.00,+8.00,-128.00,-2.00,+3.00,+10.00,+12.00,+96.00,-57.00,-19.00
-8.00,-6.00,-3.00,+1.00,+3.00,-23.00,+10.00,+0.00,+47.00,-4.00,+5.00,-2.00,+24.00,+11.00,+10.00,+34.00
+21.00,-8.00,-5.00,-3.00,+2.00,+17.00,-10.00,+3.00,-29.00,-20.00,-8.00,-8.00,-28.00,+0.00,+2.00,-14.00
+37.00,+13.00,+2.00,+2.00,+5.00,+16.00,+2.00,+4.00,+93.00,+48.00,+5.00,+0.00,+21.00,+5.00,+3.00,+3.00
-39.00,-33.00,-7.00,-10.00,-8.00,-12.00,-23.00,-10.00,-23.00,-31.00,-8.00,-3.00,-29.00,-30.00,+7.00,-14.00
-17.00,+14.00,-2.00,-6.00,-7.00,+1.00,+5.00,-1.00,-32.00,-3.00,-7.00,-9.00,+12.00,-2.00,-10.00,-4.00
-7.00,-6.00,+2.00,+0.00,-1.00,-24.00,-3.00,+0.00,+64.00,-6.00,+2.00,+0.00,-1.00,+5.00,+10.00,+18.00
-12.00,-17.00,+0.00,-1.00,+0.00,+0.00,-8.00,-4.00,-15.00,+30.00,+8.00,+3.00,-25.00,+6.00,-20.00,-16.00
-4.00,+25.00,-4.00,-1.00,-2.00,+9.00,-5.00,-10.00,+40.00,+6.00,+1.00,+1.00,-59.00,-28.00,+6.00,+3.00
-7.00,+29.00,+1.00,+0.00,+4.00,+5.00,+6.00,-2.00,-19.00,+2.00,-2.00,-1.00,+29.00,+12.00,-8.00,-8.00
-15.00,-12.00,-4.00,-5.00,-5.00,+10.00,-5.00,-2.00,+16.00,-9.00,-8.00,+2.00,-25.00,-20.00,+2.00,-33.00
+51.00,+25.00,-2.00,+0.00,-3.00,-8.00,-5.00,+8.00,-9.00,-4.00,-7.00,-11.00,+27.00,+7.00,+1.00,+33.00
-16.00,-80.00,+0.00,+0.00,+1.00,+0.00,-10.00,-7.00,+47.00,+55.00,+15.00,+13.00,+5.00,-1.00,+22.00,+39.00
+0.00,+16.00,-1.00,+3.00,-4.00,-1.00,+31.00,+3.00,+0.00,+10.00,+4.00,+1.00,-8.00,-3.00,-2.00,-12.00
+41.00,+76.00,+17.00,+3.00,+1.00,-5.00,-10.00,+2.00,+49.00,-6.00,-4.00,-7.00,+22.00,+17.00,+3.00,+2.00
-25.00,+48.00,+4.00,+7.00,+9.00,+25.00,+13.00,-5.00,-43.00,-11.00,-2.00,-2.00,+4.00,+3.00,-10.00,-17.00
+11.00,-48.00,-19.00,-22.00,-20.00,-37.00,-20.00,-8.00,-77.00,-45.00,-9.00,-1.00,-9.00,-10.00,+4.00,-6.00
+23.00,+37.00,+9.00,+16.00,+17.00,+46.00,+8.00,+18.00,+19.00,+4.00,+2.00,-2.00,+6.00,-6.00,-3.00,-12.00
-8.00,-25.00,-5.00,-5.00,-4.00,-11.00,+6.00,+10.00,-24.00,-19.00,-9.00,-9.00,-12.00,+4.00,+3.00,+15.00
-60.00,-24.00,+0.00,+2.00,-3.00,-2.00,-26.00,-22.00,+32.00,-2.00,+4.00,-3.00,-6.00,-19.00,-17.00,-2.00
-5.00,+21.00,+10.00,+11.00,+10.00,+41.00,+33.00,+12.00,+19.00,+10.00,+3.00,+11.00,-2.00,+10.00,+22.00,+16.00
-48.00,-54.00,-4.00,-5.00,-6.00,-11.00,-8.00,-11.00,-19.00,-19.00,-5.00,-2.00,+18.00,+3.00,-13.00,-21.00
+6.00,-28.00,-5.00,-4.00,-3.00,-15.00,+0.00,+1.00,-27.00,-12.00,-3.00,+0.00,-7.00,-14.00,-8.00,-16.00
+13.00,+9.00,+2.00,-2.00,+1.00,+8.00,-8.00,+11.00,-11.00,+6.00,-6.00,-21.00,+62.00,+24.00,+4.00,+15.00
+7.00,-21.00,-3.00,-6.00,-3.00,-20.00,-8.00,-6.00,-34.00,-15.00,-1.00,+14.00,-79.00,-21.00,-4.00,-20.00
+20.00,-40.00,-12.00,-13.00,-9.00,-2.00,-4.00,+1.00,+21.00,-11.00,-2.00,-2.00,-18.00,-12.00,-7.00,-15.00
-46.00,-30.00,-3.00,+0.00,+0.00,+7.00,+0.00,-16.00,+4.00,+27.00,+4.00,+22.00,+4.00,+11.00,+3.00,+1.00
+11.00,+69.00,+13.00,+2.00,-11.00,-46.00,+8.00,+2.00,+8.00,-24.00,-11.00,+1.00,-2.00,-11.00,-9.00,-13.00
+4.00,+21.00,-1.00,+10.00,+19.00,+90.00,-7.00,+3.00,-21.00,+24.00,-2.00,-12.00,+31.00,-11.00,-7.00,-14.00
-1.00,-35.00,-5.00,-4.00,-1.00,+2.00,+1.00,-4.00,+49.00,-2.00,+2.00,-5.00,-10.00,+8.00,+0.00,-6.00
+61.00,-29.00,-9.00,-9.00,-2.00,+8.00,-15.00,+11.00,+24.00,+31.00,+9.00,-3.00,-7.00,-7.00,+7.00,+20.00
-54.00,-31.00,-4.00,+3.00,-3.00,-5.00,+4.00,-21.00,+28.00,-1.00,+3.00,+3.00,-4.00,+6.00,-2.00,+13.00
+8.00,+4.00,-4.00,+5.00,+1.00,-19.00,+9.00,+4.00,-13.00,-12.00,-12.00,-9.00,+4.00,-1.00,-11.00,-23.00
-3.00,-13.00,+0.00,-2.00,-1.00,+12.00,-10.00,-2.00,+15.00,-24.00,-15.00,-4.00,-11.00,+1.00,-9.00,-12.00
+2.00,-21.00,-3.00,-1.00,-1.00,-4.00,-2.00,-4.00,+15.00,+0.00,+7.00,-3.00,+13.00,+3.00,+11.00,+26.00
+40.00,+18.00,+6.00,-4.00,-1.00,-7.00,+9.00,+20.00,+67.00,+58.00,+8.00,+8.00,+8.00,-22.00,-16.00,-24.00
+8.00,+26.00,-3.00,-6.00,-2.00,-9.00,-4.00,+10.00,-4.00,-6.00,+8.00,+3.00,-45.00,+41.00,+21.00,+16.00
-58.00,-55.00,+4.00,+8.00,+6.00,+0.00,+0.00,-9.00,-19.00,-11.00,-6.00,-3.00,+36.00,-9.00,-10.00,-25.00
+5.00,-43.00,-5.00,+4.00,-5.00,-15.00,-7.00,-14.00,-13.00,-4.00,-8.00,-10.00,+1.00,-6.00,-3.00,-1.00
+45.00,+67.00,+10.00,+1.00,+2.00,+5.00,-23.00,+21.00,-9.00,-54.00,-12.00,-17.00,-49.00,-22.00,-6.00,-24.00
-19.00,-4.00,+3.00,+3.00,-1.00,-50.00,+7.00,+37.00,-57.00,+12.00,+8.00,+16.00,+33.00,-4.00,-12.00,+1.00
+21.00,+34.00,-2.00,-11.00,-6.00,-3.00,+0.00,+3.00,+6.00,+12.00,-2.00,-6.00,-30.00,+17.00,+10.00,-7.00
-22.00,+1.00,+0.00,+0.00,+2.00,+59.00,+10.00,+0.00,+12.00,-5.00,+4.00,+1.00,-7.00,-29.00,+16.00,+32.00
-16.00,-89.00,-11.00,-5.00,-1.00,-22.00,-21.00,-17.00,-8.00,-25.00,-3.00,+5.00,-27.00,+11.00,-17.00,-16.00
+22.00,+41.00,+11.00,+2.00,+1.00,-11.00,-1.00,-2.00,-12.00,+2.00,-4.00,-11.00,+31.00,-20.00,-8.00,-8.00
+0.00,+1.00,-3.00,-1.00,+5.00,+43.00,+3.00,-6.00,-35.00,+4.00,+0.00,-8.00,+0.00,+0.00,-8.00,+17.00
-10.00,+26.00,+3.00,+3.00,+3.00,-12.00,-6.00,-1.00,-65.00,+19.00,+4.00,+5.00,+6.00,+14.00,+7.00,+17.00
+5.00,-9.00,-10.00,-9.00,-3.00,+9.00,-1.00,-5.00,-64.00,-20.00,-3.00,+9.00,-7.00,+5.00,+10.00,-12.00
+0.00,-86.00,-7.00,-8.00,-9.00,-7.00,-3.00,-18.00,+9.00,-13.00,-7.00,+4.00,+13.00,-12.00,-15.00,-25.00
+2.00,+79.00,+4.00,-1.00,-3.00,-22.00,+1.00,+4.00,-62.00,+61.00,+2.00,+7.00,+15.00,-17.00,-1.00,+13.00
-27.00,+2.00,+5.00,+5.00,+6.00,+3.00,+7.00,-6.00,+70.00,+23.00,+13.00,+1.00,-22.00,+11.00,+16.00,+6.00
+14.00,+4.00,-7.00,-1.00,+0.00,+5.00,+6.00,+8.00,-4.00,-5.00,+1.00,-1.00,+15.00,+5.00,-2.00,-13.00
+3.00,-56.00,-13.00,-12.00,-6.00,-12.00,-7.00,+1.00,+50.00,-6.00,-6.00,-6.00,-15.00,+2.00,-1.00,+32.00
+9.00,+18.00,+2.00,-3.00,-4.00,+1.00,-12.00,+3.00,-65.00,-12.00,-2.00,-2.00,+0.00,-25.00,+0.00,-35.00
+10.00,-8.00,-7.00,-3.00,-2.00,-18.00,-2.00,+6.00,-11.00,-31.00,-12.00,-9.00,+12.00,+21.00,-16.00,-39.00
-9.00,-51.00,-1.00,+0.00,-1.00,-5.00,+5.00,+1.00,+60.00,+28.00,+8.00,+10.00,-14.00,+11.00,+16.00,+69.00
-8.00,+21.00,+9.00,+14.00,+12.00,+35.00,+17.00,-6.00,+29.00,-7.00,-13.00,-15.00,+4.00,-22.00,-6.00,-46.00
+15.00,-24.00,-9.00,-11.00,-12.00,-7.00,+3.00,+1.00,+41.00,+33.00,+6.00,+3.00,+37.00,+5.00,-1.00,+25.00
-14.00,-3.00,-4.00,-7.00,-6.00,-18.00,+2.00,+1.00,-10.00,-30.00,-1.00,-4.00,-45.00,-16.00,+17.00,+16.00
-10.00,-42.00,-9.00,-3.00,+5.00,-20.00,-2.00,-8.00,+55.00,+13.00,+5.00,+3.00,+68.00,+16.00,-46.00,-8.00
-13.00,+59.00,+2.00,+0.00,-6.00,+12.00,-5.00,+4.00,+26.00,-5.00,+7.00,+9.00,-32.00,-17.00,-11.00,-3.00
+4.00,+2.00,-2.00,-1.00,-1.00,-13.00,-20.00,-44.00,+41.00,-8.00,-2.00,+2.00,-22.00,+3.00,-1.00,+8.00
+1.00,+34.00,+8.00,+2.00,+8.00,+16.00,+15.00,-4.00,+17.00,-1.00,-11.00,-8.00,-15.00,+3.00,-12.00,-29.00
+1.00,+14.00,-2.00,-1.00,-7.00,-12.00,+6.00,-5.00,-12.00,-6.00,+1.00,+2.00,+9.00,-1.00,+20.00,+11.00
+3.00,-10.00,+1.00,-5.00,-6.00,-11.00,-7.00,-12.00,-1.00,-8.00,-13.00,-24.00,+23.00,-43.00,-1.00,-22.00
-7.00,-53.00,-6.00,-7.00,-7.00,-27.00,-2.00,+3.00,+25.00,+14.00,+12.00,+19.00,-28.00,+16.00,-7.00,+52.00
+3.00,+42.00,+9.00,+7.00,+6.00,-12.00,-1.00,-7.00,-33.00,+32.00,+4.00,-3.00,+51.00,+2.00,+30.00,-18.00
-7.00,-13.00,+3.00,-2.00,+3.00,+18.00,+9.00,+4.00,-34.00,-17.00,-4.00,-1.00,-48.00,+11.00,-26.00,+8.00
-6.00,+52.00,-7.00,+1.00,-5.00,-8.00,-11.00,-12.00,-22.00,+5.00,+1.00,-3.00,+4.00,+7.00,-1.00,-12.00
-8.00,-53.00,-7.00,-6.00,-3.00,+13.00,-7.00,-1.00,+30.00,-15.00,-10.00,-5.00,-1.00,-19.00,-4.00,+0.00
+1.00,+25.00,+8.00,+8.00,+7.00,-20.00,+4.00,-7.00,-103.00,-70.00,+2.00,+2.00,+9.00,+19.00,-14.00,-31.00
+0.00,+67.00,+10.00,-5.00,+2.00,+17.00,+6.00,+23.00,+69.00,+74.00,+8.00,+8.00,-3.00,+3.00,+40.00,+64.00
-5.00,-65.00,-6.00,-4.00,+0.00,+6.00,+0.00,+24.00,-78.00,-12.00,+5.00,-3.00,+4.00,-2.00,-7.00,-19.00
-3.00,+16.00,-3.00,+0.00,-4.00,-13.00,-12.00,-51.00,-20.00,-30.00,-4.00,-6.00,-7.00,+16.00,+3.00,+20.00
+6.00,+37.00,-1.00,-8.00,-5.00,-12.00,-9.00,+10.00,+14.00,+39.00,-2.00,+3.00,-10.00,-9.00,-38.00,-30.00
-4.00,-62.00,+7.00,+10.00,+10.00,+22.00,+17.00,-6.00,+8.00,-33.00,-8.00,-4.00,+1.00,-1.00,+20.00,-15.00
-3.00,-47.00,-15.00,-12.00,-9.00,-8.00,-15.00,-21.00,+57.00,+22.00,+5.00,+5.00,+2.00,+8.00,+6.00,+24.00
-2.00,-21.00,+6.00,+0.00,+4.00,-4.00,-2.00,+13.00,-72.00,-36.00,-11.00,-10.00,+8.00,+9.00,+12.00,-61.00
-7.00,-97.00,-7.00,-2.00,-2.00,+6.00,+26.00,+9.00,+74.00,+36.00,+11.00,+0.00,-5.00,-29.00,-5.00,+47.00
+6.00,+81.00,+13.00,+10.00,-1.00,-7.00,-16.00,-1.00,-66.00,-59.00,+3.00,-7.00,+46.00,-3.00,+42.00,-21.00
-4.00,-31.00,+1.00,+9.00,+12.00,+48.00,+6.00,-15.00,+43.00,+0.00,-4.00,+25.00,-9.00,+15.00,-3.00,+11.00
+0.00,-35.00,-5.00,-3.00,+1.00,+16.00,+0.00,+16.00,+28.00,-12.00,+1.00,-10.00,-35.00,-4.00,-8.00,-12.00
+1.00,+0.00,-4.00,-6.00,-9.00,-24.00,-11.00,-9.00,+17.00,+6.00,-10.00,+1.00,+30.00,-23.00,-7.00,-8.00
-2.00,-27.00,-8.00,-3.00,-2.00,-9.00,+0.00,+5.00,-13.00,+0.00,-10.00,-6.00,-31.00,-18.00,-10.00,-14.00
-2.00,+16.00,-5.00,-17.00,-18.00,-26.00,-22.00,-14.00,+23.00,+0.00,+3.00,-5.00,+29.00,+19.00,+46.00,+37.00
+2.00,+1.00,+2.00,+12.00,+10.00,-56.00,+8.00,+12.00,-40.00,-31.00,-6.00,-1.00,+1.00,-7.00,-7.00,-22.00
+1.00,+12.00,+1.00,+1.00,+0.00,+38.00,+52.00,+0.00,+23.00,-23.00,-5.00,-5.00,-6.00,+3.00,-3.00,+12.00
-4.00,-22.00,-4.00,-2.00,+2.00,+5.00,+7.00,-6.00,+69.00,+65.00,+8.00,-6.00,+3.00,-7.00,-1.00,+24.00
-3.00,+47.00,+2.00,-2.00,+3.00,-11.00,-4.00,+3.00,-28.00,-18.00,+0.00,+2.00,+20.00,-4.00,-13.00,-17.00
-9.00,-35.00,-7.00,-8.00,-13.00,-7.00,-6.00,-37.00,+2.00,+8.00,+3.00,+5.00,-18.00,+8.00,+2.00,+31.00
-1.00,+69.00,+11.00,-3.00,-1.00,-14.00,-27.00,+18.00,-21.00,-11.00,-10.00,-11.00,-16.00,-5.00,-3.00,-28.00
+1.00,-73.00,-9.00,+4.00,+0.00,+0.00,+11.00,+2.00,-49.00,-53.00,-9.00,-1.00,-22.00,-17.00,-9.00,-3.00
+0.00,+60.00,+14.00,+6.00,+2.00,+2.00,+17.00,-8.00,+17.00,+56.00,+0.00,-5.00,+6.00,+48.00,+0.00,+20.00
-3.00,+14.00,-7.00,-5.00,-2.00,+6.00,-13.00,+22.00,+67.00,-20.00,+1.00,-5.00,+11.00,+1.00,+11.00,-6.00
+5.00,+45.00,-1.00,+3.00,+4.00,-10.00,-20.00,-1.00,-13.00,+31.00,-3.00,+6.00,-1.00,+0.00,-7.00,+3.00
+0.00,+15.00,-5.00,-11.00,-5.00,+16.00,+2.00,+44.00,+14.00,+21.00,+22.00,+1.00,+5.00,-1.00,-1.00,-1.00
-4.00,-127.00,-4.00,-2.00,+3.00,-7.00,-7.00,-45.00,+46.00,-12.00,-3.00,-11.00,-17.00,-21.00,-15.00,-6.00
-5.00,+97.00,+8.00,-3.00,-7.00,-4.00,-23.00,-4.00,-111.00,-48.00,-9.00,+8.00,-32.00,-5.00,+4.00,-65.00
+5.00,-5.00,+4.00,+7.00,+5.00,-3.00,+20.00,+2.00,-9.00,+4.00,+0.00,+3.00,+36.00,+21.00,+1.00,+15.00
-6.00,+102.00,+12.00,-4.00,-4.00,-60.00,-29.00,-7.00,-16.00,-17.00,-12.00,-1.00,-83.00,-28.00,+8.00,-23.00
+0.00,-45.00,-6.00,+3.00,-6.00,+24.00,+31.00,+11.00,-22.00,+2.00,-1.00,-10.00,+48.00,-5.00,-19.00,+9.00
+3.00,+0.00,+0.00,+2.00,+18.00,+49.00,+18.00,+12.00,-5.00,+8.00,-2.00,+4.00,-23.00,-8.00,-16.00,-13.00
-2.00,-55.00,-14.00,-12.00,-12.00,-12.00,-19.00,-36.00,+17.00,-1.00,+0.00,-1.00,+29.00,-4.00,+0.00,+17.00
-3.00,-19.00,-6.00,+1.00,+0.00,+22.00,+3.00,-12.00,-47.00,+2.00,-9.00,-2.00,+1.00,+11.00,-1.00,-32.00
-1.00,-5.00,-1.00,-1.00,-6.00,-31.00,-2.00,+2.00,+11.00,-10.00,+1.00,-8.00,-64.00,-35.00,-4.00,-6.00
-1.00,-9.00,+0.00,-2.00,-7.00,+0.00,+3.00,-2.00,-8.00,-17.00,-8.00,-4.00,+44.00,+11.00,-11.00,+14.00
+5.00,+2.00,-4.00,+0.00,-2.00,+9.00,-15.00,+17.00,+28.00,+69.00,+11.00,+9.00,-19.00,+17.00,+20.00,+32.00
-5.00,-28.00,-1.00,+3.00,+0.00,+0.00,+9.00,-17.00,-4.00,-8.00,-1.00,-1.00,+36.00,+6.00,-15.00,-9.00
-1.00,+68.00,+10.00,+1.00,-1.00,-4.00,-3.00,+5.00,-18.00,-3.00,-7.00,-4.00,-16.00,-4.00,+6.00,-3.00
-2.00,-26.00,-1.00,+5.00,+8.00,+32.00,+14.00,+3.00,+38.00,+23.00,+10.00,+3.00,+15.00,-4.00,+7.00,+18.00
+1.00,-25.00,-10.00,-7.00,-1.00,-8.00,-13.00,-7.00,-16.00,+7.00,+1.00,-1.00,-15.00,-2.00,-6.00,-21.00
-8.00,-25.00,-3.00,-7.00,-6.00,+6.00,+4.00,-46.00,+36.00,-11.00,-6.00,-4.00,+3.00,+12.00,-5.00,+26.00
-3.00,-60.00,-7.00,+1.00,+2.00,-5.00,-27.00,+22.00,-8.00,-14.00,-1.00,+1.00,-5.00,+1.00,+7.00,-14.00
-4.00,+20.00,+3.00,+1.00,-4.00,-14.00,+9.00,-5.00,-39.00,+2.00,-13.00,-10.00,+5.00,-9.00,-10.00,-25.00
+0.00,-75.00,-13.00,-2.00,-4.00,+1.00,+7.00,-3.00,+48.00,+17.00,+17.00,+8.00,+10.00,-16.00,+5.00,+44.00
-4.00,+103.00,+34.00,+11.00,+3.00,+23.00,+9.00,+24.00,-46.00,-38.00,-9.00,-16.00,-11.00,+6.00,-3.00,-31.00
+4.00,-56.00,-6.00,-10.00,-7.00,-40.00,-27.00,-3.00,-12.00,+13.00,+12.00,+22.00,-22.00,+28.00,-14.00,+48.00
+6.00,+5.00,+2.00,+7.00,+14.00,+66.00,+33.00,+22.00,+53.00,+21.00,+3.00,+3.00,+49.00,+3.00,+9.00,+28.00
-5.00,-51.00,-4.00,-5.00,+2.00,+7.00,-8.00,+25.00,-44.00,-39.00,-14.00,-19.00,-16.00,+0.00,+7.00,-20.00
+6.00,-28.00,-17.00,-7.00,-10.00,-25.00,+0.00,-15.00,+0.00,+0.00,+5.00,+19.00,-12.00,+10.00,-28.00,-28.00
+1.00,+31.00,-2.00,-1.00,-2.00,+77.00,+6.00,+15.00,+31.00,+7.00,-2.00,-6.00,+15.00,-9.00,+3.00,-4.00
+3.00,-2.00,+2.00,+2.00,+4.00,+6.00,-6.00,+12.00,-14.00,-11.00,+0.00,+2.00,+26.00,+21.00,+1.00,-13.00
+0.00,+21.00,+3.00,-1.00,+5.00,+17.00,+5.00,-8.00,-6.00,-17.00,-7.00,-8.00,-88.00,-10.00,+6.00,-5.00
+0.00,-14.00,-6.00,-8.00,-7.00,-19.00,-7.00,-5.00,+9.00,+8.00,+2.00,+0.00,+21.00,-12.00,-2.00,+13.00
+0.00,+41.00,+2.00,+5.00,+4.00,-9.00,-16.00,-11.00,+0.00,-50.00,-15.00,-12.00,-5.00,-3.00,-12.00,-44.00
-1.00,-38.00,-10.00,-9.00,-10.00,-39.00,+15.00,+0.00,-28.00,+37.00,+6.00,+1.00,-15.00,-13.00,+8.00,+42.00
+0.00,-20.00,+15.00,+14.00,+11.00,+40.00,-2.00,-2.00,+70.00,+25.00,+2.00,+2.00,+25.00,-5.00,-17.00,-23.00
+0.00,-22.00,-6.00,-3.00,+0.00,-3.00,-6.00,+3.00,-54.00,+19.00,+2.00,+0.00,+3.00,+21.00,+5.00,+13.00
-3.00,+13.00,-6.00,-6.00,-4.00,-16.00,+1.00,-5.00,-6.00,-16.00,-3.00,-2.00,-11.00,-8.00,-3.00,-13.00
-3.00,+47.00,+3.00,-2.00,-2.00,-13.00,-14.00,+1.00,+24.00,-31.00,-5.00,-2.00,+12.00,-3.00,+9.00,+21.00
+4.00,+8.00,-4.00,-5.00,-3.00,-23.00,-7.00,-6.00,-35.00,+6.00,+2.00,+4.00,+2.00,+16.00,+2.00,+3.00
+4.00,-77.00,-10.00,+0.00,-4.00,+1.00,+7.00,+42.00,+68.00,-21.00,-3.00,-13.00,+14.00,-12.00,-14.00,-7.00
+1.00,+10.00,+2.00,+3.00,+5.00,+1.00,+5.00,+3.00,-14.00,+27.00,-5.00,+14.00,-5.00,+30.00,+4.00,-14.00
-1.00,-30.00,-13.00,-10.00,-10.00,-15.00,-13.00,-15.00,+52.00,-8.00,+8.00,-2.00,-24.00,-18.00,+13.00,+48.00
-6.00,+4.00,+9.00,+6.00,+3.00,+4.00,+6.00,+3.00,+41.00,+44.00,-1.00,-3.00,+39.00,+15.00,+3.00,+4.00
-3.00,+34.00,+3.00,-9.00,-5.00,-5.00,-41.00,+7.00,-38.00,-15.00,+7.00,+14.00,-23.00,+13.00,-11.00,-5.00
+4.00,+20.00,+6.00,+12.00,+8.00,-15.00,+44.00,+7.00,-22.00,-23.00,-4.00,-19.00,+26.00,-36.00,+2.00,-24.00
-3.00,-32.00,+0.00,-2.00,+2.00,+14.00,+46.00,+7.00,-16.00,+4.00,-1.00,-3.00,-32.00,+15.00,-9.00,-3.00
-1.00,-6.00,-4.00,-15.00,-16.00,-64.00,-5.00,-1.00,-32.00,-32.00,-6.00,+6.00,-2.00,-9.00,-11.00,-33.00
+1.00,+34.00,+0.00,+10.00,+17.00,+83.00,-4.00,-33.00,-18.00,+0.00,-2.00,-5.00,-2.00,+7.00,+17.00,+13.00
-2.00,-23.00,-7.00,-9.00,-7.00,-19.00,-15.00,-6.00,+35.00,+17.00,+3.00,-5.00,+7.00,-7.00,-10.00,+22.00
-4.00,-5.00,+4.00,-1.00,-13.00,-35.00,-26.00,-38.00,-42.00,+1.00,-1.00,+1.00,-8.00,+12.00,-12.00,-29.00
+1.00,-3.00,-4.00,+4.00,+2.00,+33.00,+4.00,+4.00,+7.00,+10.00,-5.00,-10.00,+6.00,+11.00,+31.00,+5.00
-4.00,-20.00,-2.00,-1.00,+1.00,-5.00,+13.00,+5.00,-16.00,+14.00,-2.00,+0.00,+7.00,-4.00,+0.00,-3.00
+2.00,-40.00,-10.00,-6.00,-6.00,-7.00,-14.00,-9.00,+0.00,-15.00,-6.00,+1.00,-15.00,-4.00,-4.00,-18.00
+7.00,+46.00,+14.00,+8.00,+6.00,+23.00,+1.00,+4.00,-12.00,-53.00,-9.00,-13.00,-9.00,-31.00,-18.00,-9.00
-5.00,-33.00,-2.00,-9.00,-5.00,-14.00,-9.00,-10.00,+37.00,+49.00,+15.00,+14.00,+4.00,-19.00,-13.00,+28.00
-4.00,-34.00,-2.00,+2.00,-1.00,-20.00,+0.00,-6.00,-50.00,-19.00,-6.00,-3.00,+20.00,-3.00,+2.00,-1.00
+1.00,+24.00,-1.00,+0.00,+4.00,+18.00,+5.00,+6.00,-7.00,+7.00,-4.00,-8.00,-36.00,+9.00,+9.00,+25.00
-3.00,-38.00,-10.00,-10.00,-5.00,-16.00,-14.00,+14.00,-26.00,-10.00,+2.00,+4.00,+7.00,-8.00,-4.00,-39.00
-2.00,-5.00,+4.00,+3.00,+3.00,-3.00,-8.00,-4.00,-56.00,-38.00,-2.00,-9.00,-19.00,-16.00,-4.00,-2.00
-6.00,+3.00,+0.00,-4.00,-1.00,-15.00,+5.00,-22.00,+15.00,+0.00,-4.00,+6.00,+27.00,+36.00,+1.00,+0.00
-1.00,-45.00,-10.00,-4.00,-9.00,-3.00,-22.00,+5.00,+1.00,+7.00,+2.00,-1.00,+23.00,-5.00,-13.00,+2.00
+2.00,-8.00,+7.00,+6.00,+10.00,+29.00,+5.00,+7.00,+16.00,+23.00,-2.00,+1.00,-55.00,+5.00,-1.00,-5.00
+2.00,-39.00,-6.00,-2.00,-6.00,-14.00,-19.00,-17.00,-40.00,-48.00,-6.00,-3.00,-23.00,+13.00,+0.00,-5.00
-1.00,+39.00,+8.00,+10.00,+12.00,+55.00,+45.00,+14.00,+15.00,+18.00,-2.00,+1.00,-35.00,-26.00,+1.00,-16.00
-4.00,+31.00,+2.00,-14.00,-7.00,-16.00,+2.00,+4.00,-56.00,-15.00,-3.00,-10.00,+10.00,-1.00,+2.00,+2.00
-3.00,+4.00,-4.00,-1.00,-3.00,+3.00,-6.00,-2.00,-1.00,+14.00,+3.00,+12.00,+23.00,+2.00,+12.00,+7.00
-4.00,-5.00,-4.00,-7.00,-4.00,-2.00,+3.00,+9.00,+17.00,+26.00,+3.00,+2.00,+7.00,-19.00,-8.00,-10.00
+1.00,-19.00,-5.00,+1.00,-3.00,+3.00,-15.00,-1.00,+37.00,+18.00,-1.00,-4.00,-8.00,+13.00,-2.00,+25.00
+0.00,+8.00,+2.00,+0.00,+4.00,+2.00,+12.00,+8.00,+17.00,-14.00,-1.00,-1.00,+3.00,-6.00,+0.00,+2.00
-2.00,-3.00,+1.00,-1.00,+0.00,-5.00,-7.00,+2.00,+12.00,+7.00,+3.00,-3.00,+9.00,-5.00,+8.00,+6.00
+4.00,-35.00,-5.00,-4.00,-3.00,-7.00,-6.00,-4.00,-11.00,-26.00,-3.00,-6.00,-7.00,+1.00,-5.00,-7.00
-2.00,+50.00,+8.00,-3.00,-5.00,-23.00,-6.00,+9.00,-13.00,-14.00,-16.00,-7.00,+0.00,-17.00,-6.00,-22.00
-1.00,+66.00,+6.00,-7.00,+1.00,+4.00,+1.00,+30.00,+7.00,-2.00,-2.00,-1.00,-10.00,+9.00,-4.00,-7.00
+2.00,+7.00,-2.00,-9.00,-8.00,-10.00,-24.00,-18.00,+25.00,+43.00,+13.00,+2.00,+25.00,+16.00,+20.00,+50.00
+0.00,+30.00,+0.00,+11.00,+8.00,+19.00,+37.00,+8.00,-38.00,-26.00,-4.00,+3.00,+9.00,+5.00,-17.00,-22.00
+5.00,-28.00,-6.00,-3.00,-1.00,-10.00,-3.00,+4.00,+8.00,+1.00,+2.00,-1.00,-25.00,-12.00,-2.00,+3.00
-2.00,-61.00,-5.00,+1.00,-2.00,-9.00,+3.00,+0.00,+1.00,-2.00,-3.00,+1.00,+13.00,+10.00,+2.00,-19.00
-4.00,+62.00,+2.00,-3.00,-1.00,+0.00,-14.00,+6.00,-3.00,+4.00,-7.00,-8.00,-14.00,-8.00,-12.00,-26.00
-5.00,+7.00,+2.00,-2.00,+2.00,+3.00,+3.00,-7.00,+6.00,-15.00,+0.00,-3.00,+3.00,+5.00,+0.00,-4.00
-1.00,-5.00,+0.00,-3.00,-5.00,-34.00,-21.00,+0.00,-8.00,+5.00,-5.00,-18.00,+76.00,-13.00,-3.00,-7.00
-3.00,-21.00,-4.00,-1.00,+2.00,+15.00,+19.00,-13.00,-12.00,+2.00,+2.00,+13.00,-68.00,-39.00,-7.00,+18.00
-1.00,-41.00,-6.00,-4.00,-4.00,-1.00,+0.00,-3.00,-3.00,+11.00,+1.00,+2.00,+15.00,+9.00,-14.00,-21.00
-4.00,+63.00,+7.00,-3.00,-6.00,-28.00,-13.00,-4.00,-7.00,-23.00,-3.00,+3.00,-30.00,-3.00,-9.00,-19.00
-1.00,+11.00,-6.00,+2.00,+2.00,+61.00,+11.00,-10.00,-26.00,+4.00,-6.00,-2.00,+23.00,+2.00,+21.00,+9.00
+6.00,-34.00,+0.00,+1.00,+0.00,-27.00,-8.00,+9.00,-1.00,+11.00,+1.00,-3.00,+24.00,+2.00,+6.00,+5.00
+3.00,-20.00,+2.00,+5.00,+1.00,+3.00,-5.00,-16.00,-14.00,-15.00,-6.00,-5.00,-3.00,+2.00,-2.00,-5.00
-4.00,+34.00,+4.00,+0.00,+3.00,+24.00,+7.00,+7.00,-5.00,+13.00,+0.00,-5.00,+5.00,-17.00,-3.00,+7.00
+0.00,-35.00,-6.00,-3.00,-4.00,-29.00,-4.00,+3.00,+25.00,-2.00,+6.00,+8.00,-19.00,+24.00,-15.00,-8.00
-3.00,+70.00,+5.00,+1.00,-2.00,+2.00,-4.00,+0.00,+12.00,+10.00,+11.00,+2.00,+8.00,+7.00,+5.00,+4.00
+3.00,-22.00,-5.00,+0.00,+3.00,-3.00,+6.00,+5.00,-53.00,-8.00,-9.00,+2.00,-6.00,-5.00,-2.00,-9.00
+2.00,-3.00,-4.00,-8.00,-7.00,-11.00,-4.00,-1.00,-34.00,-52.00,-16.00,-13.00,-2.00,-1.00,-11.00,-31.00
-5.00,-23.00,+3.00,-3.00,-6.00,-11.00,+2.00,-11.00,+20.00,+58.00,+8.00,+5.00,-17.00,-7.00,+19.00,+37.00
+4.00,-20.00,-5.00,+4.00,-2.00,+5.00,-13.00,-2.00,+9.00,+1.00,-1.00,-1.00,+4.00,+13.00,+4.00,+10.00
-5.00,+67.00,+16.00,+10.00,+5.00,-8.00,+12.00,+9.00,+34.00,+3.00,+0.00,+1.00,+8.00,+9.00,+12.00,+6.00
-5.00,+3.00,+0.00,-3.00,-1.00,+0.00,-9.00,-6.00,+16.00,-1.00,+1.00,-4.00,-5.00,+2.00,-19.00,+8.00
+1.00,+4.00,-6.00,-1.00,+5.00,+2.00,+11.00,+6.00,+9.00,-18.00,-4.00,+0.00,-21.00,-32.00,-7.00,-23.00
-4.00,-16.00,-2.00,-1.00,+0.00,+5.00,-3.00,+0.00,+33.00,-6.00,+1.00,-1.00,-5.00,-17.00,-4.00,-9.00
-2.00,-14.00,-6.00,-6.00,-4.00,-10.00,-6.00,+10.00,+87.00,+9.00,-1.00,-10.00,-32.00,+14.00,+9.00,+17.00
-2.00,+3.00,-1.00,+1.00,-3.00,+2.00,-3.00,-7.00,+34.00,+13.00,+0.00,+4.00,+5.00,+14.00,-3.00,-8.00
+0.00,-22.00,-3.00,-12.00,-20.00,-35.00,-8.00,-8.00,-117.00,-47.00,-6.00,+0.00,-17.00,-21.00,-15.00,-24.00
+1.00,+14.00,+4.00,+16.00,+23.00,+81.00,+10.00,-2.00,+13.00,+50.00,+8.00,+5.00,+19.00,+2.00,+17.00,+9.00
-2.00,-7.00,-4.00,-6.00,+3.00,-7.00,-19.00,-4.00,-84.00,-1.00,+0.00,-3.00,+29.00,-8.00,-13.00,+6.00
+0.00,-3.00,-4.00,-2.00,+1.00,+10.00,+20.00,+24.00,-27.00,+10.00,-4.00,-14.00,+15.00,-24.00,-5.00,+8.00
+0.00,-8.00,+3.00,-1.00,-1.00,+3.00,-1.00,+6.00,-90.00,-62.00,-14.00,-1.00,-33.00,-10.00,+2.00,-60.00
-3.00,-1.00,-3.00,-5.00,-6.00,-25.00,+0.00,-22.00,+55.00,+38.00,+14.00,+8.00,+106.00,+30.00,+37.00,+26.00
+0.00,+4.00,-4.00,-6.00,-4.00,-12.00,-3.00,+2.00,+26.00,+8.00,+5.00,+14.00,-79.00,+4.00,+12.00,+11.00
-4.00,-29.00,+1.00,+3.00,+3.00,+19.00,-12.00,+14.00,+21.00,-2.00,+0.00,+3.00,+21.00,+2.00,-1.00,+12.00
+1.00,+25.00,+4.00,+3.00,+1.00,-18.00,-10.00,-1.00,+37.00,+9.00,+0.00,-4.00,+22.00,+4.00,+19.00,-6.00
-3.00,+11.00,-3.00,-3.00,-1.00,-1.00,+1.00,+1.00,-24.00,-27.00,-9.00,+0.00,-6.00,+1.00,-15.00,-20.00
-3.00,-6.00,+2.00,+0.00,+5.00,+9.00,+10.00,+0.00,+19.00,+0.00,-5.00,-28.00,+19.00,-25.00,-12.00,-6.00
+3.00,-6.00,-10.00,-13.00,-12.00,-23.00,-6.00,-10.00,+1.00,+9.00,+3.00,+20.00,-20.00,-3.00,+28.00,+10.00
+5.00,+28.00,+2.00,+11.00,+5.00,+12.00,+12.00,+5.00,+22.00,-11.00,-4.00,-16.00,+71.00,+3.00,-32.00,+21.00
-2.00,+4.00,+4.00,+0.00,-7.00,-26.00,-6.00,-14.00,-16.00,-12.00,-3.00,+16.00,-51.00,-9.00,-2.00,+0.00
-1.00,-7.00,-2.00,-1.00,-3.00,-4.00,+5.00,-3.00,-12.00,+0.00,-2.00,-35.00,-41.00,-30.00,+1.00,-2.00
-1.00,+25.00,+0.00,+1.00,+1.00,+4.00,-2.00,+2.00,-19.00,-3.00,+3.00,+27.00,-41.00,+13.00,+22.00,+0.00
-4.00,-15.00,-4.00,-2.00,-1.00,-10.00,+0.00,-4.00,+23.00,+14.00,+2.00,+0.00,-11.00,+1.00,-4.00,+18.00
-3.00,+14.00,+1.00,-1.00,+0.00,+21.00,+2.00,-1.00,-14.00,-8.00,-9.00,-58.00,+47.00,-13.00,-39.00,-13.00
-1.00,-4.00,-1.00,-5.00,-10.00,-91.00,-15.00,-1.00,-32.00,+1.00,+5.00,+53.00,+13.00,+2.00,+40.00,-3.00
+1.00,-10.00,+1.00,+8.00,+7.00,+38.00,+11.00,-2.00,+26.00,-3.00,-4.00,-14.00,+31.00,+9.00,-6.00,+17.00
-4.00,+15.00,-4.00,-11.00,-4.00,+26.00,+8.00,+1.00,+20.00,+22.00,+8.00,+14.00,-62.00,-11.00,-5.00,+4.00
+0.00,-52.00,+2.00,+1.00,+2.00,-8.00,+2.00,+3.00,-10.00,-4.00,-2.00,-2.00,+0.00,-18.00,+6.00,+11.00
-4.00,-1.00,-3.00,-8.00,-4.00,+1.00,+12.00,+2.00,-12.00,-12.00,-10.00,-51.00,+6.00,+16.00,-18.00,-9.00
-3.00,-1.00,+1.00,-7.00,-15.00,-80.00,-39.00,-38.00,-40.00,-6.00,-1.00,+27.00,-38.00,+15.00,+2.00,-20.00
+0.00,+0.00,-8.00,+6.00,+10.00,+79.00,-4.00,+6.00,-6.00,-15.00,-6.00,-27.00,+127.00,-6.00,-9.00,+0.00
-2.00,+17.00,+4.00,-2.00,+0.00,+26.00,+17.00,-5.00,+19.00,+10.00,+6.00,+31.00,-128.00,+37.00,+8.00,+9.00
+2.00,+4.00,+2.00,+8.00,+7.00,+20.00,-16.00,-7.00,+11.00,+4.00,+2.00,+10.00,-22.00,-25.00,-9.00,+19.00
+2.00,+4.00,+1.00,-1.00,+4.00,-16.00,+10.00,+39.00,+26.00,+9.00,+0.00,-25.00,+40.00,-15.00,-4.00,-4.00
+0.00,-12.00,-3.00,-5.00,+2.00,-16.00,-15.00,-41.00,-10.00,-15.00,-11.00,-20.00,+33.00,-18.00,-9.00,-26.00
-2.00,-1.00,-3.00,-4.00,-2.00,-5.00,-13.00,+1.00,-43.00,-22.00,-4.00,+12.00,+127.00,+20.00,+0.00,-16.00
-3.00,-6.00,-4.00,-9.00,-8.00,-7.00,+5.00,+2.00,+12.00,+18.00,+8.00,+11.00,-81.00,-21.00,+7.00,+10.00
-1.00,+5.00,+0.00,+7.00,-6.00,-18.00,-18.00,+1.00,-6.00,+8.00,+0.00,-14.00,+73.00,+7.00,+1.00,-2.00
+1.00,-8.00,-1.00,-5.00,-10.00,-69.00,+32.00,+6.00,+23.00,+15.00,+6.00,+35.00,-128.00,-23.00,+7.00,+13.00
-1.00,+2.00,-1.00,+6.00,+8.00,+32.00,+10.00,+0.00,-24.00,-21.00,-17.00,-84.00,-30.00,-19.00,-14.00,-30.00
+0.00,-1.00,-4.00,-9.00,+9.00,-12.00,+9.00,-16.00,+1.00,+4.00,+9.00,+40.00,+9.00,-38.00,+11.00,+9.00
+3.00,+6.00,+4.00,+14.00,+5.00,+98.00,+25.00,-5.00,-2.00,-1.00,-3.00,+5.00,+114.00,+23.00,-3.00,+27.00
-4.00,-9.00,-4.00,-7.00,-6.00,-18.00,-22.00,+11.00,+2.00,+7.00,+5.00,+6.00,-77.00,+30.00,-12.00,-12.00
-4.00,+4.00,-5.00,-19.00,-22.00,-82.00,-22.00,-38.00,+5.00,-3.00,-1.00,+29.00,+2.00,+4.00,+9.00,-10.00
-3.00,-2.00,+0.00,+18.00,+18.00,+92.00,+29.00,+20.00,-14.00,-20.00,-11.00,-32.00,+59.00,+4.00,-32.00,-33.00
-2.00,+0.00,-2.00,-12.00,-4.00,+11.00,-9.00,-10.00,-2.00,+4.00,-3.00,-15.00,-128.00,-39.00,+11.00,-84.00
+0.00,-5.00,+2.00,+13.00,+10.00,+6.00,+5.00,+5.00,+20.00,+9.00,+3.00,+9.00,+79.00,+47.00,+5.00,+2.00
-1.00,+4.00,-4.00,-2.00,-5.00,-11.00,-3.00,+1.00,-17.00,-6.00,-2.00,+2.00,-22.00,-30.00,-4.00,-2.00
-1.00,-6.00,-5.00,-11.00,-18.00,-84.00,-16.00,+5.00,-8.00,-12.00,-9.00,-33.00,+35.00,+9.00,-13.00,-29.00
-1.00,+9.00,+2.00,+10.00,+18.00,+91.00,+9.00,+10.00,-21.00,-8.00,+0.00,+19.00,-55.00,+20.00,+15.00,+22.00
-5.00,-9.00,-2.00,-23.00,-19.00,-29.00,-2.00,-9.00,+31.00,+14.00,+6.00,+25.00,-61.00,-15.00,+9.00,+27.00
+0.00,+1.00,+5.00,+22.00,+15.00,+29.00,-5.00,+21.00,+0.00,+2.00,+1.00,-6.00,+81.00,-9.00,-16.00,-29.00
+0.00,-6.00,-1.00,-1.00,+2.00,+42.00,-1.00,-7.00,+1.00,+4.00,+1.00,+5.00,-7.00,-4.00,+10.00,-1.00
-3.00,-1.00,-2.00,-8.00,+1.00,-31.00,+2.00,-9.00,-27.00,-9.00,-2.00,-7.00,+6.00,-13.00,-24.00,-19.00
-4.00,-2.00,-8.00,-30.00,-48.00,-78.00,-58.00,-8.00,+44.00,-16.00,-16.00,-106.00,+75.00,+7.00,-10.00,-12.00
+6.00,+3.00,+3.00,+11.00,+27.00,+58.00,+73.00,+35.00,-44.00,+6.00,+7.00,+30.00,+40.00,+19.00,+17.00,+55.00
+3.00,-10.00,+1.00,+10.00,+16.00,-5.00,+7.00,+6.00,+13.00,+6.00,+4.00,+41.00,-8.00,-22.00,-2.00,+17.00
-2.00,-12.00,+0.00,-4.00,+6.00,+32.00,+3.00,-2.00,+3.00,-2.00,+0.00,-30.00,+53.00,-14.00,-13.00,+19.00
-5.00,+10.00,+4.00,+11.00,+5.00,-10.00,+6.00,-45.00,-38.00,-4.00,+4.00,+82.00,-63.00,+19.00,-49.00,-3.00
-2.00,-7.00,-10.00,-33.00,-34.00,-8.00,-33.00,-22.00,+19.00,-9.00,-6.00,-29.00,+109.00,+27.00,-7.00,+1.00
-2.00,+7.00,+5.00,+24.00,+35.00,+115.00,+4.00,+8.00,+14.00,-8.00,-5.00,-1.00,-39.00,+15.00,+12.00,+9.00
-4.00,-11.00,-5.00,-12.00,-11.00,-78.00,+36.00,+19.00,+27.00,+5.00,+8.00,+29.00,-46.00,-41.00,-10.00,-1.00
+3.00,+7.00,+3.00,+17.00,+21.00,-27.00,-13.00,-68.00,-9.00,-2.00,-2.00,-17.00,-25.00,+26.00,+18.00,+7.00
+0.00,-3.00,-3.00,-5.00,-10.00,-11.00,-10.00,-5.00,+1.00,-2.00,-7.00,-33.00,-57.00,-6.00,-6.00,-38.00
-4.00,-10.00,-8.00,-21.00,-28.00,-61.00,-14.00,+39.00,-3.00,+12.00,-1.00,+1.00,-35.00,+57.00,-13.00,-21.00
+4.00,+5.00,+2.00,+9.00,+6.00,+23.00,-19.00,-43.00,+10.00,-1.00,-5.00,-5.00,-4.00,-38.00,+3.00,+25.00
-4.00,-1.00,+0.00,+4.00,-2.00,-7.00,+10.00,+15.00,+0.00,+0.00,+2.00,-11.00,+55.00,-17.00,+25.00,-15.00
+0.00,+2.00,-2.00,+5.00,+8.00,-2.00,-5.00,+14.00,-4.00,+2.00,+2.00,+36.00,-87.00,-4.00,-11.00,+3.00
+2.00,+7.00,+0.00,-14.00,-11.00,-36.00,-37.00,-9.00,-22.00,-15.00,-9.00,-47.00,+127.00,-7.00,-28.00,-32.00
-1.00,-5.00,-2.00,-4.00,-14.00,-109.00,-4.00,+0.00,-32.00,-19.00,-13.00,-58.00,+1.00,+6.00,+4.00,-7.00
-2.00,-7.00,+3.00,+9.00,+17.00,+106.00,+33.00,+39.00,-3.00,+26.00,+14.00,+55.00,-16.00,+38.00,+40.00,+80.00
+0.00,-8.00,-2.00,-8.00,-26.00,-119.00,-15.00,-4.00,-30.00,-8.00,+0.00,+27.00,+12.00,+4.00,-5.00,+23.00
-5.00,+5.00,+0.00,+18.00,+45.00,+64.00,+21.00,-15.00,+37.00,+7.00,+0.00,+4.00,+127.00,-7.00,-14.00,-32.00
-6.00,+0.00,-3.00,-7.00,+1.00,+24.00,-10.00,+23.00,+5.00,+18.00,+9.00,+44.00,-64.00,+23.00,-39.00,-12.00
-1.00,+0.00,-7.00,-29.00,-24.00,-92.00,-33.00,-6.00,+4.00,-5.00,-2.00,-18.00,+71.00,+38.00,-13.00,-3.00
-2.00,-13.00,+1.00,+9.00,+4.00,+95.00,+7.00,+16.00,+29.00,+0.00,+0.00,-18.00,+58.00,-20.00,+32.00,+15.00
+1.00,-5.00,+2.00,+13.00,+5.00,+89.00,+27.00,-12.00,-37.00,-7.00,+1.00,+37.00,-60.00,-38.00,+17.00,+23.00
-1.00,-5.00,-5.00,-15.00,-6.00,-13.00,-14.00,-26.00,+4.00,-3.00,-2.00,+23.00,-58.00,+36.00,-7.00,+14.00
+1.00,+7.00,+1.00,+26.00,+12.00,+120.00,+24.00,+39.00,-10.00,-6.00,+2.00,-2.00,+80.00,+35.00,-12.00,-22.00
+0.00,+13.00,-1.00,-16.00,-16.00,-113.00,-15.00,-6.00,+10.00,-11.00,-14.00,-38.00,+66.00,+15.00,-11.00,-16.00
-6.00,+2.00,-4.00,-14.00,-25.00,-28.00,-4.00,+11.00,-7.00,-2.00,+4.00,+32.00,+56.00,+42.00,-42.00,-47.00
-1.00,+9.00,+1.00,+18.00,+39.00,+127.00,+35.00,+8.00,-11.00,+0.00,+0.00,-4.00,+49.00,-7.00,+22.00,+14.00
+5.00,-5.00,+1.00,-4.00,+2.00,-96.00,-14.00,+11.00,-49.00,-6.00,+2.00,+2.00,-128.00,-39.00,+4.00,-30.00
-4.00,-2.00,-10.00,-29.00,-7.00,-36.00,-19.00,+3.00,+19.00,+3.00,-2.00,-25.00,+82.00,+17.00,+80.00,+8.00
+7.00,-5.00,+3.00,-3.00,-40.00,-121.00,-7.00,-37.00,-5.00,+6.00,+3.00,+18.00,-28.00,+23.00,-73.00,-4.00
-5.00,-7.00,-3.00,+5.00,+16.00,+30.00,+6.00,+84.00,+8.00,+1.00,+0.00,-11.00,-4.00,-14.00,+21.00,+2.00
+1.00,-12.00,-6.00,-1.00,-14.00,-76.00,-2.00,+58.00,+36.00,+4.00,-6.00,-3.00,+36.00,-10.00,-10.00,+57.00
+0.00,+3.00,+2.00,+25.00,+25.00,+50.00,+24.00,+4.00,-3.00,+11.00,+14.00,+16.00,-128.00,-59.00,+26.00,-4.00
-4.00,-12.00,-11.00,-55.00,-52.00,-125.00,-37.00,+7.00,-4.00,-14.00,-11.00,-36.00,+55.00,+55.00,+49.00,+22.00
+1.00,+5.00,+2.00,-2.00,-10.00,-40.00,-38.00,+23.00,+10.00,+5.00,+2.00,+24.00,+39.00,-36.00,+4.00,-6.00
-4.00,+1.00,+8.00,+41.00,+47.00,+84.00,+9.00,+10.00,-25.00,-7.00,-2.00,-23.00,-18.00,-90.00,+33.00,-15.00
-1.00,+0.00,+1.00,+9.00,+2.00,-83.00,+36.00,-13.00,+1.00,-21.00,-12.00,-76.00,-4.00,+33.00,-35.00,-69.00
-8.00,-3.00,-2.00,-23.00,-18.00,-88.00,-42.00,-1.00,+16.00,+19.00,+3.00,+31.00,-101.00,-56.00,+42.00,+74.00
+5.00,-1.00,+2.00,+41.00,+6.00,+12.00,+35.00,-26.00,-39.00,-22.00,-8.00,+5.00,+56.00,+2.00,-108.00,-40.00
+3.00,+3.00,-4.00,-4.00,-12.00,-51.00,-20.00,+1.00,+44.00,+13.00,+6.00,+1.00,+46.00,+40.00,+40.00,+42.00
-3.00,-2.00,+0.00,-15.00,+0.00,-4.00,-72.00,-40.00,-44.00,-12.00,-7.00,+23.00,+80.00,-31.00,+34.00,-6.00
-6.00,-1.00,+0.00,+4.00,+11.00,-21.00,+25.00,-11.00,-45.00,-3.00,-3.00,-38.00,+9.00,-31.00,-8.00,-15.00
+10.00,-4.00,+3.00,+6.00,-5.00,+22.00,+73.00,+0.00,-11.00,-1.00,-5.00,-9.00,+89.00,-15.00,+7.00,-22.00
-5.00,+5.00,-2.00,+2.00,+31.00,+104.00,+18.00,+1.00,-17.00,-6.00,-10.00,-58.00,-105.00,-70.00,+72.00,-18.00
-2.00,+0.00,-7.00,-28.00,-41.00,-95.00,-77.00,-10.00,+11.00,-8.00,-8.00,+28.00,+48.00,+44.00,-82.00,-38.00
-4.00,+17.00,+4.00,+19.00,+19.00,+35.00,+38.00,+46.00,+2.00,-5.00,+2.00,-18.00,-19.00,-3.00,+25.00,-11.00
-7.00,-5.00,-6.00,-32.00,-23.00,-87.00,-63.00,-49.00,+27.00,+3.00,-7.00,-8.00,+117.00,+24.00,+53.00,-38.00
+3.00,-9.00,-4.00,-3.00,-11.00,-41.00,+21.00,+5.00,-2.00,-16.00,-3.00,+2.00,-18.00,+15.00,-105.00,-56.00
+0.00,-7.00,-3.00,-23.00,-30.00,-97.00,-113.00,-50.00,+33.00,+17.00,+8.00,+34.00,+44.00,+21.00,-18.00,+76.00
-10.00,+18.00,+6.00,+17.00,+28.00,+125.00,+49.00,-86.00,+19.00,-5.00,-2.00,+11.00,-5.00,+6.00,+24.00,-3.00
-1.00,-8.00,-4.00,-1.00,+5.00,-24.00,+20.00,-92.00,+6.00,-10.00,-3.00,-41.00,-101.00,-12.00,-11.00,-32.00
-9.00,-8.00,-4.00,-23.00,-33.00,-83.00,-17.00,-98.00,-17.00,-8.00,-12.00,-76.00,+79.00,+22.00,-28.00,-37.00
-6.00,+4.00,+11.00,+35.00,+53.00,+43.00,-20.00,+23.00,-13.00,+0.00,-5.00,+20.00,-45.00,-49.00,-26.00,+5.00
+16.00,-8.00,-1.00,-19.00,-30.00,-72.00,+39.00,+19.00,-34.00,-19.00,-2.00,+29.00,+95.00,+8.00,-128.00,-66.00
-5.00,+1.00,+0.00,+8.00,+28.00,+71.00,+0.00,+27.00,+4.00,+9.00,+4.00,-2.00,+27.00,+63.00,+127.00,+44.00
+0.00,+7.00,+0.00,-3.00,+23.00,+67.00,-21.00,-2.00,+20.00,-6.00,-5.00,-15.00,+84.00,+79.00,+92.00,+63.00
+5.00,-12.00,-4.00,+5.00,-13.00,+21.00,+70.00,+78.00,-5.00,+1.00,+2.00,+49.00,-69.00,-70.00,+33.00,+48.00
+2.00,-17.00,-1.00,-8.00,+3.00,-16.00,-107.00,-71.00,+27.00,-4.00,-2.00,-7.00,+122.00,+7.00,+119.00,-27.00
-15.00,-11.00,-12.00,-52.00,-17.00,-45.00,-10.00,+24.00,+16.00,+0.00,-3.00,-28.00,+23.00,+36.00,-61.00,+4.00
+4.00,+6.00,+6.00,+16.00,-1.00,+49.00,-19.00,+8.00,+13.00,+13.00,+16.00,+61.00,-38.00,-99.00,-12.00,+20.00
-1.00,+12.00,-5.00,-36.00,-30.00,-71.00,+47.00,-59.00,-20.00,-13.00,-8.00,-12.00,+99.00,+30.00,-48.00,-62.00
-1.00,-8.00,-9.00,-4.00,+27.00,+96.00,-24.00,+21.00,+51.00,+20.00,+1.00,-62.00,-96.00,+55.00,+116.00,+125.00
-1.00,-3.00,-5.00,-28.00,-24.00,-88.00,-55.00,+43.00,-18.00,+4.00,+10.00,+70.00,+29.00,-8.00,+63.00,+27.00
+11.00,+2.00,-1.00,-14.00,-48.00,-128.00,+29.00,-23.00,-27.00,-3.00,-4.00,+8.00,+65.00,+91.00,-13.00,-14.00
-22.00,-4.00,-7.00,-20.00,+16.00,+8.00,-21.00,+1.00,+1.00,+1.00,+0.00,-29.00,-62.00,+1.00,+27.00,-23.00
-9.00,+8.00,+5.00,-34.00,+5.00,-53.00,+64.00,+63.00,-42.00,+2.00,+0.00,+14.00,+76.00,-44.00,-16.00,+23.00
+10.00,-5.00,-3.00,-6.00,-16.00,-41.00,-74.00,-50.00,-16.00,+1.00,+3.00,+34.00,-88.00,-99.00,-67.00,+55.00
-10.00,-10.00,-4.00,-26.00,-12.00,-99.00,+50.00,+50.00,+5.00,+4.00,+7.00,+29.00,+124.00,-36.00,-67.00,-1.00
-8.00,+0.00,+4.00,+6.00,+7.00,+20.00,-96.00,+71.00,-25.00,-11.00,-5.00,-22.00,+67.00,+53.00,+105.00,-18.00
+9.00,-1.00,+0.00,+32.00,+2.00,-29.00,-40.00,+50.00,+24.00,-7.00,-5.00,-1.00,+53.00,-16.00,-9.00,+4.00
-14.00,-3.00,-1.00,-32.00,-24.00,-51.00,-90.00,-67.00,+30.00,-6.00,-12.00,-90.00,+120.00,+24.00,+32.00,-3.00
+1.00,+2.00,-3.00,-43.00,-22.00,-78.00,-47.00,+31.00,-39.00,-5.00,+4.00,+41.00,-97.00,-70.00,-45.00,-47.00
-9.00,-19.00,-10.00,-13.00,+10.00,+43.00,-11.00,-34.00,+7.00,+25.00,+20.00,+55.00,-88.00,+59.00,-128.00,-14.00
-10.00,-3.00,-10.00,-31.00,+8.00,+18.00,-34.00,+18.00,-3.00,-7.00,-5.00,-24.00,+85.00,+34.00,+74.00,+5.00
+16.00,+13.00,+8.00,+30.00,-12.00,-107.00,+65.00,+34.00,+24.00,+24.00,+21.00,+50.00,+119.00,+16.00,+49.00,+47.00
-2.00,-18.00,-5.00,-25.00,-49.00,-67.00,-104.00,-22.00,+20.00,+1.00,-7.00,-23.00,-69.00,-39.00,+32.00,-27.00
+3.00,+9.00,+11.00,+55.00,+38.00,+102.00,+86.00,+24.00,+20.00,+9.00,+1.00,-5.00,-40.00,-30.00,+1.00,+26.00
-3.00,+7.00,+0.00,-49.00,-6.00,+18.00,+1.00,-8.00,+14.00,+3.00,+2.00,+5.00,-90.00,-18.00,-16.00,+6.00
-1.00,-7.00,-9.00,-25.00,-26.00,-78.00,-39.00,-42.00,+12.00,-15.00,-13.00,-45.00,-101.00,-3.00,-71.00,-8.00
+7.00,+25.00,+18.00,+99.00,+73.00,+127.00,+109.00,-3.00,-23.00,-12.00,-7.00,+36.00,+7.00,-52.00,-54.00,-44.00
+7.00,-11.00,-7.00,-15.00,+10.00,+0.00,+50.00,+17.00,+14.00,+4.00,+4.00,+33.00,-115.00,-57.00,-28.00,+12.00
+11.00,+3.00,+5.00,+30.00,-71.00,-128.00,+66.00,-27.00,+10.00,-1.00,+1.00,+19.00,+32.00,-25.00,-33.00,-19.00
+2.00,+16.00,+15.00,+94.00,+106.00,+127.00,+127.00,+73.00,-24.00,-8.00,-3.00,+1.00,-128.00,-35.00,+92.00,+42.00
-6.00,-10.00,-6.00,-24.00,-6.00,-96.00,-71.00,+0.00,+12.00,-5.00,-7.00,-59.00,+127.00,+104.00,+105.00,+20.00
+4.00,+11.00,+2.00,-1.00,-20.00,-39.00,-27.00,-24.00,-13.00,-5.00,+2.00,+61.00,-71.00,-39.00,+43.00,+46.00
-8.00,-16.00,-8.00,-23.00,-4.00,-84.00,+13.00,+5.00,-25.00,-7.00,-2.00,-16.00,-2.00,-37.00,-9.00,-35.00
-4.00,-27.00,-9.00,+6.00,+6.00,+25.00,-128.00,-62.00,-29.00,-22.00,-13.00,-30.00,-22.00,+16.00,-113.00,-110.00
-8.00,-4.00,-4.00,-3.00,+21.00,-8.00,+105.00,+65.00,+34.00,+2.00,-13.00,-33.00,+72.00,+43.00,-14.00,+26.00
+4.00,+21.00,+2.00,+8.00,-14.00,-79.00,-109.00,-124.00,+9.00,+0.00,-1.00,-70.00,+13.00,-27.00,+40.00,+24.00
-7.00,-10.00,-8.00,+0.00,-30.00,-110.00,-68.00,-27.00,+41.00,+13.00,+12.00,+75.00,+92.00,+43.00,+65.00,+49.00
+3.00,-7.00,-10.00,-19.00,-42.00,-85.00,-116.00,-29.00,-24.00,-5.00,+0.00,+35.00,-85.00,+33.00,+22.00,-23.00
+0.00,+3.00,+2.00,+47.00,+75.00,+127.00,+70.00,+40.00,+56.00,+11.00,+9.00,+16.00,+41.00,+6.00,+68.00,+44.00
+11.00,+13.00,+9.00,+67.00,+24.00,+38.00,+127.00,+44.00,+20.00,+0.00,-5.00,-48.00,+127.00,-35.00,-112.00,-27.00
-1.00,-9.00,-6.00,-25.00,-16.00,-80.00,-110.00,-40.00,-24.00,-6.00,-7.00,-18.00,-20.00,+53.00,+80.00,-10.00
-4.00,+24.00,+16.00,+7.00,+1.00,-53.00,+127.00,+26.00,+0.00,-4.00,-5.00,-3.00,+108.00,-3.00,-32.00,-16.00
-7.00,-2.00,-6.00,+8.00,-7.00,-31.00,-104.00,-36.00,-31.00,-1.00,+4.00,+37.00,+3.00,-16.00,-93.00,-20.00
+4.00,+3.00,+0.00,+25.00,+5.00,+60.00,+10.00,+21.00,+1.00,+0.00,-3.00,-20.00,+1.00,-10.00,+45.00,-11.00
-5.00,+10.00,+7.00,+5.00,+27.00,+85.00,-21.00,-5.00,-46.00,-6.00,-4.00,-12.00,-30.00,-90.00,-87.00,-23.00
+6.00,-7.00,-7.00,-9.00,-40.00,-73.00,-105.00,-10.00,+23.00,+10.00,+7.00,+21.00,+52.00,-54.00,-27.00,+34.00
-1.00,+2.00,+0.00,-15.00,+1.00,+24.00,+70.00,+11.00,-24.00,-11.00,-6.00,-6.00,-11.00,-23.00,-9.00,-33.00
+8.00,-9.00,+0.00,+31.00,+19.00,+28.00,-24.00,+25.00,+14.00,-1.00,+2.00,+12.00,+54.00,-1.00,+48.00,-4.00
-1.00,-2.00,-2.00,-7.00,+1.00,-41.00,-44.00,+32.00,+0.00,+3.00,-2.00,-35.00,-79.00,+26.00,-123.00,+4.00
+7.00,+1.00,+0.00,+51.00,+36.00,+71.00,-53.00,+53.00,-17.00,+13.00,+10.00,+29.00,-42.00,+54.00,-15.00,+19.00
+3.00,+9.00,-3.00,-46.00,-38.00,-103.00,+40.00,-37.00,-11.00,-2.00,+3.00,+20.00,+99.00,-25.00,-32.00,-25.00
+1.00,+12.00,+2.00,+34.00,+44.00,+93.00,-69.00,-9.00,-22.00,-1.00,+1.00,-13.00,-48.00,+5.00,+22.00,-16.00
+2.00,-2.00,-5.00,-7.00,-20.00,-57.00,-32.00,-16.00,-6.00,-6.00,-2.00,+47.00,+73.00,-23.00,+5.00,-31.00
-10.00,-7.00,-7.00,-40.00,-1.00,+17.00,+109.00,+22.00,+18.00,+3.00,+0.00,-33.00,+14.00,+53.00,+58.00,+59.00
+6.00,-22.00,-8.00,-22.00,-61.00,-106.00,-128.00,-38.00,-19.00,-8.00,-10.00,-8.00,-42.00,+67.00,+62.00,+3.00
-19.00,-1.00,+2.00,-42.00,+47.00,-14.00,+39.00,+19.00,-22.00,-4.00,-5.00,-23.00,+39.00,+66.00,+20.00,+32.00
+11.00,+28.00,+20.00,+49.00,-6.00,-118.00,+48.00,-4.00,-31.00,-13.00,-5.00,+16.00,-120.00,+19.00,-12.00,-40.00
-8.00,-13.00,+0.00,-22.00,+25.00,+41.00,-47.00,+13.00,+19.00,+9.00,-1.00,-7.00,+82.00,-36.00,-4.00,+3.00
-7.00,+1.00,+2.00,+7.00,-2.00,+27.00,-111.00,-35.00,-19.00,-3.00,-4.00,+13.00,-19.00,+4.00,-18.00,-40.00
+8.00,-2.00,+1.00,-25.00,-50.00,-128.00,-6.00,+24.00,+1.00,-5.00,-3.00,-3.00,-11.00,-46.00,-28.00,-17.00
+0.00,-9.00,-3.00,+4.00,+17.00,+72.00,-29.00,+67.00,+7.00,-1.00,-3.00,-32.00,-55.00,+5.00,+103.00,+36.00
-4.00,-4.00,-7.00,-36.00,-29.00,-58.00,-44.00,-48.00,-3.00,-3.00,-7.00,+3.00,+79.00,+10.00,-43.00,-19.00
+5.00,+10.00,+7.00,+42.00,+20.00,+3.00,+43.00,+42.00,-33.00,-2.00,+3.00,-18.00,-88.00,-5.00,+25.00,+1.00
-1.00,-14.00,-5.00,-26.00,-25.00,+21.00,-114.00,-38.00,+3.00,+9.00,+4.00,+34.00,-73.00,+63.00,+29.00,+65.00
+9.00,+9.00,+9.00,+44.00,+51.00,+116.00,+66.00,+25.00,-22.00,+4.00,+4.00,-24.00,+29.00,-71.00,-88.00,-16.00
+4.00,-4.00,+2.00,+37.00,+8.00,+62.00,+1.00,+12.00,-24.00,-9.00,-4.00,-3.00,+5.00,+34.00,-1.00,-79.00
-8.00,-15.00,-11.00,-30.00,-25.00,-49.00,-108.00,-39.00,+5.00,+0.00,-1.00,-12.00,+56.00,-67.00,+21.00,+22.00
-11.00,-1.00,-2.00,-29.00,-17.00,-61.00,+67.00,+29.00,+5.00,-4.00,-2.00,+11.00,+13.00,-11.00,+20.00,-17.00
+9.00,-2.00,+0.00,+34.00,+31.00,+92.00,+110.00,+5.00,+11.00,-7.00,-9.00,-16.00,+39.00,+24.00,+108.00,-10.00
-8.00,+7.00,+1.00,+1.00,+18.00,+12.00,-40.00,+4.00,+25.00,+6.00,+0.00,-24.00,+52.00,+0.00,+80.00,+36.00
-1.00,-6.00,+1.00,+7.00,+10.00,-77.00,+80.00,-11.00,-6.00,+10.00,+7.00,+3.00,-106.00,-76.00,+28.00,+12.00
-10.00,+4.00,+0.00,-14.00,-13.00,-43.00,-63.00,-66.00,-10.00,-8.00,-6.00,+0.00,+83.00,+1.00,-8.00,-41.00
-9.00,+2.00,-4.00,-30.00,-9.00,-24.00,-19.00,-1.00,+25.00,+5.00,+5.00,-25.00,+38.00,+7.00,-6.00,-4.00
+8.00,+6.00,+3.00,+28.00,-4.00,+19.00,+16.00,+6.00,+10.00,+13.00,+6.00,-1.00,+72.00,-4.00,+35.00,+55.00
+6.00,+1.00,-3.00,+10.00,+14.00,+77.00,+54.00,+41.00,+11.00,+4.00,+3.00,+8.00,+24.00,+47.00,+35.00,-33.00
+6.00,-1.00,-1.00,+7.00,-9.00,-126.00,+22.00,+11.00,+3.00,-2.00,-4.00,-21.00,-24.00,+0.00,+14.00,+6.00
-8.00,+0.00,-3.00,-3.00,+37.00,+101.00,-54.00,-18.00,+18.00,-3.00,-9.00,-14.00,+66.00,+2.00,-33.00,+3.00
-1.00,+4.00,+2.00,-2.00,-6.00,-112.00,+21.00,-11.00,+3.00,-4.00,+4.00,+37.00,-82.00,+43.00,+70.00,-3.00
-4.00,-10.00,-1.00,+4.00,-6.00,-72.00,-71.00,-25.00,-6.00,+2.00,+0.00,-24.00,-51.00,+4.00,-21.00,+32.00
-1.00,-10.00,-4.00,-12.00,+6.00,+65.00,+127.00,+31.00,-1.00,+1.00,+4.00,+42.00,+23.00,+0.00,+4.00,+14.00
+3.00,+1.00,+0.00,+21.00,-10.00,-9.00,-63.00,-5.00,-20.00,-6.00,+0.00,-5.00,+2.00,+42.00,+63.00,+2.00
+5.00,-13.00,-5.00,-17.00,-9.00,-23.00,-37.00,+2.00,+5.00,+3.00,+1.00,-9.00,-93.00,-36.00,-18.00,+18.00
+0.00,+2.00,+2.00,-7.00,+10.00,+99.00,+59.00,+51.00,+11.00,+17.00,+6.00,+13.00,-9.00,+4.00,+46.00,+47.00
+1.00,+5.00,+3.00,+25.00,-24.00,-94.00,-128.00,+0.00,+16.00,-1.00,-4.00,-34.00,+117.00,-23.00,-40.00,+8.00
-3.00,-1.00,+2.00,-1.00,+30.00,+65.00,+43.00,+17.00,-21.00,+12.00,+6.00,+36.00,-128.00,-100.00,-34.00,-7.00
-2.00,+0.00,-4.00,-26.00,-23.00,-105.00,-22.00,-10.00,-39.00,-13.00,-8.00,-8.00,+57.00,-28.00,+2.00,-43.00
+2.00,-9.00,-5.00,-25.00,-3.00,-2.00,+74.00,+87.00,+25.00,-1.00,-1.00,+1.00,+93.00,-13.00,+0.00,+7.00
+10.00,-6.00,-3.00,+13.00,+12.00,-21.00,-26.00,+23.00,+44.00,+2.00,-4.00,-16.00,+81.00,-13.00,-8.00,+6.00
+11.00,+8.00,+0.00,+7.00,-41.00,-128.00,+39.00,+14.00,-36.00,-11.00,-7.00,+1.00,+127.00,-23.00,-86.00,-10.00
-11.00,-3.00,+2.00,-34.00,-5.00,-83.00,-6.00,-1.00,+10.00,-5.00,+0.00,+14.00,+1.00,-22.00,-21.00,+6.00
+1.00,+7.00,+8.00,+78.00,+36.00,+126.00,+23.00,+2.00,+8.00,-11.00,-9.00,-15.00,+69.00,-2.00,+77.00,-3.00
-10.00,-3.00,-4.00,-42.00,-24.00,-78.00,+4.00,-32.00,-16.00,+1.00,+6.00,+9.00,-86.00,+14.00,-56.00,-43.00
-1.00,+1.00,+2.00,+8.00,+14.00,+61.00,+58.00,+10.00,+24.00,+1.00,+0.00,+1.00,-29.00,+7.00,-2.00,+24.00
+9.00,+17.00,+8.00,+46.00,+33.00,+109.00,+34.00,-16.00,-20.00,-2.00,-2.00,-5.00,-25.00,-18.00,-51.00,-53.00
-5.00,+10.00,+2.00,-19.00,-27.00,-88.00,-75.00,-51.00,+0.00,-3.00,-7.00,-11.00,-11.00,+1.00,+11.00,+11.00
+4.00,-8.00,-5.00,+4.00,-7.00,-14.00,+50.00,-11.00,-17.00,-3.00,+2.00,+4.00,-14.00,-11.00,+11.00,+2.00
+5.00,-14.00,-6.00,-10.00,-42.00,-92.00,-15.00,-39.00,+19.00,+1.00,-1.00,-15.00,+70.00,+20.00,+27.00,-14.00
-6.00,+4.00,-2.00,-28.00,-35.00,-128.00,+46.00,+29.00,-32.00,-6.00,-3.00,-4.00,-40.00,-21.00,+48.00,-7.00
-11.00,+6.00,-3.00,-8.00,+33.00,+84.00,+28.00,+0.00,-3.00,-2.00,-3.00,+0.00,+33.00,-16.00,-36.00,-5.00
+3.00,+3.00,+6.00,+28.00,+14.00,+27.00,-27.00,+14.00,-36.00,+1.00,-2.00,+5.00,-15.00,+9.00,+39.00,-7.00
-13.00,-1.00,-5.00,-17.00,-29.00,-92.00,-123.00,-21.00,-11.00,-5.00,-3.00,-9.00,+2.00,+54.00,+5.00,-14.00
+5.00,+1.00,+1.00,+39.00,+31.00,+72.00,+76.00,+29.00,+25.00,-4.00,-5.00,-6.00,+124.00,+46.00,+3.00,+3.00
-4.00,-18.00,-2.00,+1.00,-5.00,-27.00,-123.00,-44.00,-5.00,-4.00,-1.00,+0.00,-88.00,+17.00,+49.00,+2.00
-2.00,-3.00,-5.00,-33.00,-36.00,-96.00,+96.00,+28.00,-12.00,-13.00,-9.00,+0.00,+53.00,+26.00,+24.00,-29.00
-11.00,-7.00,-3.00,+23.00,+47.00,+88.00,+30.00,-14.00,+26.00,+8.00,+4.00,+11.00,-112.00,+30.00,+18.00,+30.00
+2.00,+4.00,-2.00,-1.00,-8.00,-39.00,-17.00,-13.00,-17.00,-11.00,-6.00,-13.00,+31.00,-42.00,+5.00,-26.00
+0.00,+3.00,+0.00,+13.00,+1.00,-55.00,-16.00,-26.00,+44.00,+14.00,+10.00,+24.00,-65.00,+29.00,-70.00,+28.00
+9.00,-2.00,+3.00,+43.00,-11.00,+19.00,-64.00,-16.00,-5.00,-9.00,-8.00,-14.00,+57.00,-12.00,+80.00,-5.00
-2.00,-10.00,-5.00,-26.00,-8.00,-95.00,-78.00,-23.00,+9.00,+1.00,-3.00,+5.00,-33.00,+18.00,-76.00,+2.00
-3.00,+2.00,+4.00,+21.00,-4.00,-31.00,+24.00,+21.00,+8.00,+6.00,+2.00,-4.00,-27.00,-55.00,+13.00,+21.00
+0.00,-10.00,-10.00,+9.00,-15.00,-113.00,-128.00,-44.00,-3.00,-1.00,+0.00,+18.00,+51.00,+31.00,-13.00,-26.00
-8.00,-2.00,+0.00,-13.00,+6.00,+91.00,+27.00,+22.00,-2.00,-3.00,-6.00,-12.00,+9.00,+13.00,+60.00,-9.00
-5.00,+6.00,+0.00,+2.00,+11.00,+68.00,-42.00,-93.00,+1.00,-3.00,-1.00,+7.00,+13.00,-20.00,-1.00,-3.00
+1.00,+3.00,+0.00,-5.00,-7.00,+16.00,-45.00,+21.00,-21.00,+1.00,+2.00,-16.00,+60.00,+12.00,-38.00,-29.00
+9.00,-5.00,-6.00,-10.00,-22.00,-115.00,-2.00,+1.00,-27.00,-6.00,-4.00,+27.00,+30.00,-27.00,-53.00,-1.00
-12.00,-5.00,-4.00,-15.00,+0.00,+6.00,-23.00,-19.00,-15.00,+3.00,+2.00,+16.00,+23.00,-67.00,-77.00,-2.00
-3.00,-4.00,-2.00,-24.00,-18.00,-88.00,+17.00,+25.00,-77.00,-11.00,-10.00,-36.00,-77.00,+7.00,-36.00,-16.00
-7.00,-10.00,-7.00,-11.00,+18.00,+110.00,-26.00,-19.00,-62.00,+0.00,-3.00,+15.00,+23.00,+43.00,-49.00,+8.00
-6.00,-2.00,+2.00,-32.00,-30.00,-87.00,+4.00,-25.00,-11.00,+3.00,+2.00,-23.00,-15.00,+27.00,+48.00,+30.00
-3.00,+2.00,+2.00,+5.00,+40.00,+99.00,+96.00,+32.00,-3.00,+0.00,+2.00,+5.00,+5.00,-10.00,-57.00,-28.00
+4.00,-5.00,+2.00,+25.00,+5.00,-49.00,-54.00,+26.00,+67.00,+6.00,+1.00,+21.00,+11.00,-27.00,+18.00,+20.00
+2.00,+0.00,+0.00,-21.00,-34.00,-128.00,+8.00,-11.00,+55.00,-10.00,-4.00,-10.00,-94.00,-43.00,-32.00,-22.00
+1.00,+4.00,+3.00,+20.00,+4.00,+72.00,+49.00,+33.00,+22.00,+3.00,-3.00,-9.00,-60.00,-58.00,-23.00,-20.00
+8.00,-3.00,-3.00,-7.00,-5.00,-2.00,-17.00,+0.00,+37.00,+2.00,-1.00,+3.00,-27.00,-2.00,-23.00,+21.00
+2.00,-8.00,-2.00,+2.00,-17.00,+6.00,-85.00,-22.00,+35.00,-4.00,+3.00,+1.00,+32.00,+12.00,+30.00,-22.00
-4.00,-11.00,-6.00,-38.00,-7.00,-23.00,+0.00,+40.00,+37.00,+1.00,+0.00,-5.00,-1.00,+47.00,+26.00,+44.00
+10.00,+10.00,+7.00,+59.00,+42.00,+127.00,+20.00,+24.00,+8.00,-9.00,-6.00,-2.00,+74.00,-41.00,-13.00,-26.00
+5.00,-5.00,-2.00,-17.00,-8.00,-57.00,+62.00,+18.00,+59.00,+2.00,+0.00,-14.00,-81.00,-6.00,+2.00,+12.00
+2.00,-3.00,-4.00,-1.00,+3.00,+3.00,+16.00,+18.00,+7.00,-5.00,-3.00,-1.00,-67.00,-62.00,+27.00,+2.00
-3.00,+0.00,+2.00,+36.00,-1.00,+1.00,-15.00,-23.00,-22.00,-7.00,-1.00,+34.00,+20.00,-47.00,-21.00,-26.00
+1.00,-4.00,+1.00,-17.00,-9.00,-55.00,+17.00,+6.00,-55.00,-12.00,-4.00,+6.00,+59.00,-9.00,-20.00,-12.00
-5.00,-8.00,-8.00,-10.00,-11.00,-22.00,-77.00,-28.00,-53.00,-1.00,+7.00,+7.00,-56.00,+26.00,-3.00,-8.00
-6.00,-1.00,-1.00,-15.00,-1.00,+6.00,-67.00,+3.00,+9.00,+10.00,-2.00,-7.00,+29.00,-8.00,+47.00,+7.00
-4.00,+1.00,-2.00,-17.00,-13.00,-56.00,-9.00,-6.00,-36.00,-7.00,+1.00,-2.00,-21.00,+22.00,-2.00,+8.00
-6.00,+2.00,-4.00,-25.00,-5.00,+75.00,+6.00,-15.00,+3.00,+22.00,+7.00,+2.00,-44.00,+15.00,-6.00,+6.00
+3.00,+3.00,+2.00,+11.00,-25.00,-76.00,+5.00,-8.00,+22.00,+9.00,-1.00,-10.00,+39.00,+14.00,-6.00,-4.00
-5.00,-8.00,-6.00,-27.00,+8.00,-12.00,+61.00,+6.00,+13.00,+4.00,+1.00,-5.00,-4.00,-75.00,-14.00,+21.00
-4.00,-4.00,-4.00,-12.00,+10.00,+4.00,+12.00,-2.00,-2.00,-1.00,-6.00,+1.00,+17.00,+14.00,+20.00,+9.00
-2.00,+1.00,+2.00,+7.00,-6.00,-105.00,+3.00,-12.00,-8.00,-6.00,-1.00,-4.00,-12.00,+16.00,-18.00,+14.00
+2.00,+10.00,+1.00,+6.00,+13.00,+69.00,+13.00,+10.00,-17.00,-9.00,-3.00,-1.00,+21.00,+19.00,+2.00,-6.00
+1.00,-6.00,+0.00,+6.00,-13.00,+5.00,+27.00,-7.00,-14.00,-4.00,+4.00,+5.00,+24.00,+6.00,-13.00,-6.00
+12.00,+0.00,+0.00,+14.00,-1.00,-26.00,-20.00,+2.00,+19.00,+5.00,+1.00,-6.00,+10.00,-34.00,-22.00,+6.00
-6.00,-6.00,-5.00,-17.00,+1.00,+36.00,-49.00,+5.00,+55.00,-6.00,-4.00,+1.00,+68.00,+13.00,-8.00,-5.00
-8.00,-9.00,-6.00,+0.00,+5.00,+27.00,-59.00,-17.00,+14.00,+4.00,+0.00,-16.00,+71.00,+25.00,+74.00,+13.00
-2.00,+11.00,+4.00,-12.00,+3.00,-9.00,+28.00,+22.00,-32.00,-3.00,-1.00,+12.00,+44.00,+44.00,+61.00,+2.00
+1.00,-2.00,+2.00,+13.00,+0.00,-4.00,-42.00,-18.00,-15.00,+0.00,-2.00,+2.00,-15.00,+23.00,+30.00,-14.00
-2.00,-3.00,+0.00,-6.00,+5.00,+19.00,+57.00,+20.00,-28.00,-14.00,-2.00,+2.00,+10.00,+44.00,+14.00,-1.00
-8.00,+1.00,-2.00,-29.00,-10.00,-81.00,-29.00,-17.00,+0.00,+7.00,+2.00,-12.00,+60.00,+22.00,-22.00,+17.00
+10.00,+5.00,+1.00,+21.00,+13.00,+56.00,+107.00,+22.00,-23.00,+14.00,+5.00,-5.00,+20.00,+13.00,-18.00,+13.00
-1.00,+2.00,-2.00,+12.00,+9.00,+41.00,+26.00,+1.00,-7.00,-7.00,-3.00,-5.00,+2.00,-6.00,+2.00,+0.00
-6.00,-1.00,-5.00,-34.00,-12.00,-67.00,-26.00,-4.00,-23.00,-20.00,-4.00,-6.00,-16.00,-36.00,-3.00,-29.00
+1.00,+16.00,+8.00,+37.00,+41.00,+119.00,+19.00,+19.00,+62.00,+48.00,+6.00,+9.00,-12.00,-3.00,-9.00,+23.00
+0.00,-8.00,+0.00,-10.00,-9.00,-63.00,+2.00,-3.00,+0.00,-4.00,-2.00,-9.00,+3.00,+5.00,-24.00,-7.00
-3.00,+16.00,+3.00,+9.00,-1.00,-10.00,+0.00,-2.00,+23.00,+12.00,+2.00,+17.00,+6.00,-47.00,-4.00,+17.00
+0.00,-26.00,+3.00,+9.00,+12.00,+15.00,+12.00,+6.00,-20.00,-14.00,-2.00,+7.00,-58.00,-14.00,-44.00,-21.00
-5.00,-4.00,+2.00,-44.00,-28.00,-68.00,-59.00,-17.00,-21.00,-20.00,-3.00,+4.00,-73.00,-31.00,-18.00,-1.00
-7.00,+8.00,-3.00,+6.00,+5.00,+33.00,-2.00,-5.00,+35.00,-1.00,+1.00,+4.00,+11.00,-4.00,-19.00,+3.00
-4.00,-12.00,-6.00,+2.00,+10.00,+85.00,+12.00,-10.00,+49.00,-1.00,+1.00,-5.00,-20.00,+0.00,+3.00,-17.00
-3.00,+10.00,-2.00,-6.00,-3.00,-20.00,-16.00,-4.00,+10.00,+6.00,+1.00,-6.00,+21.00,+9.00,+12.00,+2.00
+2.00,-7.00,-7.00,-8.00,-4.00,+17.00,-88.00,-17.00,-20.00,-6.00,+4.00,+8.00,-10.00,-8.00,+2.00,+3.00
-6.00,-4.00,-1.00,-22.00,-6.00,-53.00,-23.00,-2.00,-32.00,-20.00,-9.00,+5.00,+37.00,-5.00,-17.00,-36.00
-2.00,+2.00,+2.00,+10.00,+14.00,+85.00,+0.00,+8.00,+13.00,+11.00,-3.00,-12.00,-30.00,+14.00,-1.00,+20.00
+1.00,+5.00,+1.00,-4.00,+2.00,-23.00,+14.00,+4.00,+20.00,+20.00,+13.00,-3.00,+8.00,-9.00,+4.00,+7.00
+3.00,+0.00,+3.00,+14.00,+2.00,-32.00,-83.00,-14.00,+60.00,-31.00,-24.00,-18.00,-10.00,-17.00,-19.00,-37.00
+1.00,+9.00,+6.00,+5.00,+6.00,+10.00,+106.00,+31.00,-7.00,-10.00,-5.00,-19.00,+1.00,+50.00,-25.00,+14.00
+3.00,-3.00,-1.00,+8.00,-6.00,-26.00,-29.00,-10.00,-25.00,+3.00,+3.00,+6.00,-115.00,-3.00,+1.00,+41.00
+7.00,-2.00,-2.00,-8.00,-3.00,-12.00,-50.00,+3.00,-32.00,+10.00,+1.00,+14.00,+91.00,+10.00,-15.00,-13.00
-3.00,+4.00,+4.00,+13.00,-20.00,-77.00,+17.00,-13.00,-73.00,-4.00,+6.00,+0.00,+18.00,-20.00,-7.00,-28.00
+0.00,-11.00,-3.00,+5.00,+2.00,+36.00,-20.00,-8.00,+30.00,-5.00,+2.00,+1.00,+29.00,+2.00,+5.00,-4.00
-4.00,+6.00,-2.00,-9.00,-12.00,-65.00,-11.00,-4.00,+36.00,+0.00,-2.00,-18.00,+10.00,+2.00,+3.00,-3.00
-1.00,+15.00,+2.00,+9.00,+8.00,+17.00,+12.00,-2.00,-24.00,+5.00,+1.00,-5.00,-33.00,-5.00,+4.00,+12.00
-3.00,-44.00,-1.00,-5.00,-3.00,-29.00,+32.00,+9.00,-32.00,-1.00,+4.00,+8.00,-25.00,+5.00,-2.00,+4.00
+0.00,+2.00,-2.00,-10.00,-11.00,-31.00,-21.00,-4.00,-35.00,-4.00,-5.00,-5.00,-21.00,-7.00,-19.00,-18.00
+3.00,-2.00,-1.00,+22.00,+7.00,+33.00,+21.00,-3.00,+2.00,+9.00,+3.00,+3.00,+3.00,+7.00,+0.00,+12.00
-6.00,+10.00,-2.00,+0.00,+2.00,+77.00,-12.00,-6.00,+3.00,-7.00,-1.00,-3.00,-19.00,-12.00,-8.00,-12.00
-2.00,+8.00,-5.00,-11.00,+2.00,+38.00,+38.00,+1.00,+109.00,-1.00,+12.00,+5.00,+9.00,-2.00,+3.00,+13.00
-2.00,-5.00,+1.00,+7.00,+0.00,-8.00,-33.00,-9.00,+9.00,+3.00,-32.00,-2.00,-14.00,-6.00,+1.00,-1.00
+0.00,+1.00,+2.00,-8.00,-2.00,-28.00,+5.00,+8.00,+26.00,+0.00,-2.00,-12.00,+16.00,-7.00,-4.00,-11.00
+6.00,-2.00,-6.00,+12.00,+1.00,-16.00,+3.00,+0.00,-39.00,-38.00,-15.00,-8.00,-9.00,-2.00,+4.00,+9.00
-1.00,+11.00,+7.00,+9.00,+7.00,+3.00,+11.00,+10.00,-57.00,+38.00,+6.00,+3.00,-2.00,-8.00,+1.00,+1.00
+1.00,-5.00,+1.00,-3.00,-9.00,-4.00,-15.00,+8.00,+8.00,+14.00,+19.00,+4.00,-6.00,-9.00,-1.00,+2.00
+1.00,-12.00,-20.00,-4.00,-12.00,-41.00,-5.00,-6.00,+60.00,-10.00,-7.00,-12.00,+88.00,+20.00,-9.00,-16.00
+0.00,-5.00,+7.00,+20.00,+4.00,+8.00,+3.00,+0.00,+118.00,-32.00,-9.00,-21.00,+36.00,-61.00,-3.00,-19.00
+3.00,+18.00,+15.00,-9.00,-20.00,-93.00,-28.00,+2.00,+102.00,+12.00,-4.00,+4.00,-27.00,+6.00,-6.00,+27.00
-10.00,-4.00,-10.00,-31.00,-30.00,-86.00,-20.00,-21.00,-64.00,+27.00,+11.00,+27.00,+16.00,-28.00,-3.00,-2.00
+7.00,+24.00,+16.00,+61.00,+67.00,+105.00,+49.00,+8.00,-30.00,+1.00,-2.00,-3.00,+34.00,+17.00,+2.00,+4.00
-1.00,-11.00,-14.00,+3.00,+2.00,-38.00,-42.00,-6.00,-93.00,+9.00,+2.00,+3.00,+1.00,-5.00,-1.00,+2.00
-1.00,-6.00,-8.00,-3.00,+3.00,-17.00,+30.00,+6.00,-107.00,-27.00,-7.00,-2.00,-51.00,-13.00,+0.00,-6.00
+2.00,+11.00,+5.00,+5.00,-3.00,-18.00,-21.00,-8.00,-33.00,-7.00,-7.00,-8.00,+46.00,+16.00,+5.00,+15.00
-2.00,-46.00,-6.00,-16.00,-19.00,-43.00,-16.00,-8.00,+58.00,+7.00,+8.00,+0.00,-28.00,-15.00,-11.00,-16.00
-2.00,+8.00,+2.00,-7.00,-7.00,-8.00,+1.00,-1.00,-1.00,+2.00,-1.00,+13.00,-12.00,+21.00,-2.00,-19.00
-2.00,+14.00,+1.00,+5.00,+13.00,+39.00,+16.00,-2.00,-27.00,+6.00,+2.00,+5.00,+33.00,+7.00,+14.00,+40.00
+2.00,+4.00,-2.00,+6.00,+3.00,+16.00,-2.00,+1.00,-102.00,-1.00,+6.00,-3.00,-8.00,+14.00,-7.00,-13.00
-7.00,-5.00,-4.00,-15.00,-7.00,-7.00,+2.00,-8.00,-119.00,-9.00,-7.00,+2.00,-17.00,-3.00,+4.00,+20.00
+2.00,-60.00,-38.00,-5.00,+2.00,+7.00,+5.00,+2.00,-34.00,+11.00,-6.00,-8.00,+30.00,+21.00,-7.00,-4.00
-2.00,+23.00,+21.00,-9.00,+1.00,+14.00,+7.00,+0.00,-113.00,-11.00,+1.00,+17.00,-21.00,-11.00,+1.00,-13.00
-3.00,-7.00,+26.00,+28.00,+7.00,+26.00,+7.00,+8.00,-15.00,-6.00,+6.00,+1.00,-60.00,-10.00,+3.00,+3.00
-3.00,-12.00,-2.00,-6.00,-13.00,-35.00,-12.00,-4.00,-28.00,+3.00,+6.00,+5.00,+2.00,+0.00,+5.00,+6.00
+1.00,-7.00,+2.00,-11.00,-8.00,-7.00,+3.00,-4.00,-21.00,+10.00,+6.00,+0.00,-17.00,+0.00,-1.00,-6.00
-2.00,-72.00,-25.00,-2.00,+8.00,+27.00,+10.00,+2.00,-19.00,-17.00,-20.00,-15.00,+41.00,+5.00,+2.00,+3.00
+3.00,+25.00,-6.00,+2.00,+8.00,+41.00,-14.00,+7.00,+23.00,-10.00,-6.00,-12.00,+60.00,+8.00,-2.00,-9.00
+0.00,+18.00,+8.00,-22.00,-39.00,-118.00,-20.00,+4.00,-1.00,-56.00,-8.00,+21.00,-44.00,+6.00,-8.00,-22.00
-4.00,+9.00,+3.00,-11.00,+18.00,+88.00,+31.00,+5.00,+6.00,+66.00,+7.00,+5.00,+17.00,+16.00,-4.00,+20.00
+2.00,+0.00,-7.00,-3.00,+17.00,+25.00,+16.00,-4.00,+32.00,+0.00,+9.00,-32.00,+68.00,+0.00,-2.00,+1.00
+6.00,-4.00,+5.00,+12.00,+7.00,+10.00,+8.00,+0.00,+26.00,-7.00,+6.00,+15.00,-76.00,-63.00,+3.00,+25.00
-4.00,-15.00,-1.00,-24.00,-19.00,-42.00,-8.00,-7.00,-18.00,-12.00,-11.00,-4.00,-9.00,+10.00,+17.00,-34.00
-1.00,+7.00,+3.00,+11.00,+1.00,-10.00,+4.00,-5.00,-41.00,-25.00,-5.00,-2.00,-12.00,-4.00,+1.00,-2.00
-3.00,+9.00,+1.00,-4.00,+3.00,-9.00,-2.00,-5.00,-27.00,-16.00,-9.00,-4.00,-4.00,+0.00,-2.00,-8.00
-1.00,-31.00,-11.00,+3.00,-4.00,+4.00,-37.00,-15.00,+8.00,-7.00,-5.00,-10.00,-1.00,-10.00,-9.00,-20.00
-1.00,+49.00,-7.00,-3.00,+5.00,+18.00,+11.00,-6.00,-28.00,-11.00,-4.00,-14.00,+6.00,-21.00,-8.00,-8.00
+6.00,+12.00,+6.00,-4.00,-9.00,-26.00,-9.00,+6.00,+35.00,+3.00,+3.00,+7.00,-70.00,+3.00,+7.00,+7.00
-3.00,+10.00,-10.00,+12.00,+10.00,+26.00,+14.00,-17.00,+15.00,+4.00,-3.00,+8.00,-1.00,+0.00,+5.00,-1.00
+3.00,+14.00,+15.00,-7.00,-5.00,-39.00,-9.00,-4.00,+65.00,+7.00,-3.00,-9.00,+32.00,+16.00,-2.00,+7.00
-2.00,-26.00,+2.00,+1.00,+4.00,+30.00,+1.00,+5.00,+9.00,+32.00,+3.00,+5.00,-13.00,-8.00,-5.00,-6.00
-3.00,-8.00,+4.00,-19.00,-18.00,-83.00,-14.00,+0.00,+6.00,-16.00,-1.00,-9.00,+6.00,+10.00,+2.00,-4.00
-3.00,+24.00,+1.00,+0.00,+11.00,+54.00,+9.00,+14.00,+16.00,-6.00,+1.00,+7.00,-44.00,-5.00,-4.00,+4.00
-4.00,+32.00,-10.00,-5.00,+5.00,+13.00,+15.00,+8.00,-35.00,-26.00,-1.00,+5.00,+15.00,+11.00,-3.00,-9.00
+2.00,-8.00,-2.00,+4.00,+7.00,+9.00,-4.00,+2.00,-66.00,-40.00,-5.00,-7.00,+23.00,-1.00,-10.00,-15.00
-5.00,+0.00,+8.00,-8.00,-4.00,-16.00,+2.00,-3.00,+78.00,+79.00,+7.00,-21.00,+59.00,-1.00,+7.00,+24.00
+3.00,-1.00,-3.00,-7.00,-12.00,-38.00,-11.00,-3.00,+33.00,+6.00,+2.00,+19.00,-48.00,+3.00,+0.00,+9.00
+3.00,-38.00,-11.00,-2.00,-8.00,-59.00,-4.00,+2.00,+23.00,+12.00,+3.00,+3.00,-6.00,+9.00,+4.00,+13.00
-2.00,+16.00,+6.00,+0.00,+4.00,+79.00,+14.00,+1.00,-2.00,-30.00,-6.00,-3.00,-12.00,-3.00,-1.00,+0.00
+1.00,-10.00,+0.00,+10.00,-4.00,-35.00,-11.00,+2.00,-42.00,-13.00,-15.00,-34.00,+29.00,+2.00,-4.00,-4.00
-7.00,+24.00,+8.00,-22.00,-2.00,-39.00,-3.00,+3.00,-17.00,+2.00,+1.00,+14.00,-51.00,-31.00,-9.00,-39.00
+2.00,+29.00,+1.00,+9.00,+11.00,+86.00,+27.00,+1.00,-3.00,-18.00,-4.00,+11.00,+46.00,+81.00,-1.00,-16.00
-1.00,-10.00,-5.00,-7.00,+2.00,-21.00,-4.00,-10.00,-1.00,+47.00,+8.00,-3.00,-7.00,+8.00,+8.00,+32.00
+0.00,-22.00,-6.00,+8.00,+1.00,+16.00,+3.00,-9.00,+11.00,-27.00,+1.00,+13.00,+7.00,-3.00,-2.00,-2.00
+2.00,-16.00,-6.00,-6.00,-14.00,-30.00,-13.00,-9.00,-26.00,-3.00,-9.00,-17.00,+7.00,+10.00,+2.00,-4.00
-1.00,-16.00,-3.00,-14.00,-7.00,-32.00,+3.00,+0.00,-29.00,-22.00,+2.00,-2.00,-25.00,-29.00,-10.00,-30.00
+3.00,+0.00,-3.00,+10.00,-7.00,-59.00,-6.00,-7.00,+99.00,+76.00,+7.00,+1.00,+10.00,-7.00,+0.00,+8.00
-1.00,+18.00,+9.00,+12.00,+19.00,+93.00,+21.00,+7.00,-49.00,+2.00,-5.00,+7.00,-27.00,+16.00,+4.00,+21.00
+3.00,+0.00,-1.00,-1.00,+1.00,-2.00,+0.00,-4.00,-4.00,-2.00,+0.00,-3.00,+8.00,-6.00,-6.00,-20.00
-4.00,-30.00,-7.00,-1.00,-1.00,-11.00,-8.00,-8.00,+28.00,+4.00,+3.00,-3.00,-11.00,-10.00,+1.00,+15.00
+3.00,-75.00,-8.00,+6.00,+7.00,+40.00,+9.00,+6.00,+11.00,-1.00,-10.00,-9.00,+5.00,-3.00,-9.00,-8.00
-5.00,+105.00,+13.00,-5.00,-8.00,-49.00,-12.00,+6.00,+60.00,+9.00,+7.00,+10.00,+19.00,-10.00,+4.00,+6.00
+1.00,+2.00,-1.00,+7.00,+2.00,+40.00,+7.00,+5.00,-12.00,-11.00,+5.00,-1.00,+18.00,+12.00,+1.00,+8.00
-1.00,+22.00,-6.00,-8.00,+0.00,+6.00,+7.00,+8.00,-6.00,+6.00,-2.00,-2.00,+7.00,-20.00,-2.00,-6.00
-5.00,+14.00,+5.00,-11.00,-5.00,-27.00,-19.00,+4.00,-22.00,+15.00,+3.00,+5.00,-19.00,+24.00,+3.00,-6.00
+3.00,-26.00,-5.00,-5.00,-16.00,-51.00,-4.00,-8.00,+27.00,-29.00,-9.00,-3.00,-11.00,-16.00,-4.00,-5.00
-3.00,-38.00,-7.00,+4.00,+12.00,+62.00,+7.00,+1.00,-55.00,-11.00,-6.00,-1.00,+87.00,+4.00,+1.00,+14.00
-2.00,-25.00,+4.00,-5.00,+3.00,+5.00,-2.00,-5.00,+18.00,-8.00,+2.00,-21.00,-115.00,-20.00,+2.00,-1.00
-2.00,+31.00,+1.00,-6.00,+4.00,+18.00,+3.00,+0.00,+62.00,+11.00,+1.00,+11.00,-5.00,-19.00,-8.00,+5.00
-6.00,-17.00,-7.00,-15.00,-25.00,-51.00,-13.00,-19.00,-95.00,-14.00,-11.00,-3.00,-7.00,-13.00,-12.00,-48.00
-3.00,-11.00,-1.00,+7.00,+12.00,+66.00,+25.00,-3.00,+95.00,+26.00,+10.00,+0.00,-22.00,+8.00,+14.00,+58.00
-2.00,-17.00,-3.00,-1.00,-5.00,-53.00,-23.00,-6.00,-58.00,+12.00,-6.00,-9.00,+42.00,-1.00,+4.00,+20.00
+3.00,+71.00,+6.00,+2.00,+12.00,+29.00,+1.00,-1.00,+32.00,-18.00,-3.00,-9.00,+5.00,-5.00,-5.00,+3.00
-2.00,-6.00,-3.00,-20.00,-1.00,+16.00,+0.00,-7.00,-30.00,-1.00,+5.00,+10.00,-38.00,-29.00,-12.00,-33.00
+0.00,-18.00,-6.00,-14.00,-10.00,-23.00,-12.00,-6.00,-27.00,-10.00,-3.00,-7.00,+10.00,+34.00,-5.00,-14.00
+1.00,+35.00,+7.00,-4.00,+2.00,+9.00,+5.00,-4.00,+21.00,+15.00,+0.00,+4.00,+4.00,+1.00,+3.00,+7.00
-2.00,+14.00,+2.00,+8.00,-9.00,-35.00,+2.00,-11.00,-23.00,-24.00,-6.00,-5.00,+1.00,-4.00,+2.00,-3.00
-3.00,+39.00,+3.00,+13.00,+12.00,+17.00,+7.00,+3.00,+35.00,-6.00,-1.00,+0.00,-16.00,+0.00,-2.00,+8.00
+0.00,-1.00,-5.00,-8.00,-11.00,-25.00,-9.00,+2.00,-59.00,-18.00,-6.00,-1.00,+14.00,-9.00,-9.00,-43.00
+0.00,-28.00,-20.00,+2.00,+4.00,+12.00,+0.00,-5.00,+103.00,+20.00,+4.00,+3.00,-11.00,+3.00,+7.00,+33.00
+1.00,-84.00,+5.00,-2.00,-7.00,-18.00,-8.00,+2.00,-49.00,-7.00,+1.00,+3.00,+44.00,+3.00,-2.00,-6.00
-1.00,+15.00,+5.00,+37.00,+11.00,+23.00,+6.00,+9.00,+21.00,-1.00,+0.00,-5.00,-65.00,+2.00,+2.00,+9.00
+0.00,+88.00,+16.00,+8.00,-5.00,-41.00,-6.00,+8.00,-37.00,+7.00,-11.00,-4.00,+10.00,-8.00,-10.00,-36.00
-2.00,-2.00,-3.00,+8.00,-4.00,+20.00,+3.00,+11.00,-6.00,-32.00,+10.00,+1.00,-15.00,+20.00,+14.00,+35.00
+3.00,+6.00,-10.00,+6.00,+2.00,+3.00,-3.00,+5.00,-29.00,-7.00,-2.00,-12.00,-44.00,-66.00,-14.00,-7.00
+1.00,-70.00,-9.00,+20.00,+4.00,+12.00,-2.00,+2.00,+26.00,+4.00,+7.00,+25.00,+52.00,+102.00,+14.00,+18.00
+1.00,+0.00,-4.00,-11.00,-17.00,-43.00,-12.00,-9.00,+12.00,-23.00,-9.00,+3.00,-3.00,-22.00,-13.00,-31.00
+4.00,+19.00,+4.00,+22.00,+10.00,+3.00,+12.00,+5.00,-52.00,-3.00,-28.00,-14.00,-14.00,-19.00,-28.00,-69.00
-5.00,-27.00,-6.00,+13.00,+9.00,+66.00,-2.00,-5.00,+45.00,+29.00,+33.00,+8.00,+27.00,+25.00,+34.00,+80.00
+9.00,+27.00,+2.00,+13.00,+2.00,+19.00,+1.00,+0.00,-5.00,-23.00,-5.00,-7.00,-2.00,-27.00,-6.00,+8.00
-4.00,-13.00,+3.00,+25.00,+0.00,+1.00,+4.00,-10.00,-13.00,+21.00,+3.00,-4.00,-43.00,-3.00,+2.00,+4.00
+0.00,-10.00,-4.00,-9.00,-4.00,-25.00,-12.00,-11.00,-11.00,-19.00,-8.00,-2.00,+44.00,+7.00,-13.00,-40.00
+4.00,+12.00,+5.00,+22.00,-11.00,-30.00,-3.00,-12.00,-35.00,-21.00,-11.00,+2.00,+6.00,+2.00,-1.00,+3.00
+3.00,+44.00,+1.00,+17.00,+0.00,+13.00,+7.00,-7.00,+13.00,+13.00,+3.00,-3.00,+7.00,-13.00,-9.00,-23.00
+0.00,-17.00,-7.00,-7.00,+18.00,-11.00,-9.00,+1.00,+19.00,-10.00,+3.00,-3.00,-7.00,+0.00,+2.00,+6.00
+2.00,+19.00,+8.00,-8.00,-4.00,-7.00,+2.00,+1.00,+1.00,-1.00,+1.00,+2.00,-22.00,-15.00,+2.00,+14.00
+0.00,-26.00,-8.00,-4.00,+0.00,-2.00,+4.00,+12.00,+4.00,+7.00,-3.00,+4.00,+50.00,+18.00,-1.00,-7.00
-3.00,-7.00,-2.00,+8.00,-6.00,-21.00,-2.00,-5.00,-42.00,-26.00,-2.00,-3.00,+71.00,-12.00,+2.00,-8.00
-1.00,+18.00,-2.00,+4.00,-8.00,-13.00,-6.00,+3.00,+74.00,+23.00,+3.00,-12.00,-93.00,-10.00,+5.00,+12.00
-1.00,-16.00,+2.00,+10.00,+5.00,+13.00,+4.00,+0.00,+36.00,+20.00,+9.00,+13.00,+39.00,+5.00,+6.00,+20.00
+1.00,-3.00,-4.00,-10.00,-5.00,-21.00,-3.00,+9.00,-32.00,-3.00,-2.00,+6.00,-21.00,-9.00,-6.00,-24.00
+0.00,-33.00,-6.00,-3.00,+7.00,+24.00,-2.00,+8.00,-13.00,-5.00,-4.00,-3.00,+44.00,+4.00,-3.00,-2.00
+2.00,-74.00,-10.00,+2.00,-6.00,-21.00,-7.00,+0.00,+3.00,-3.00,-1.00,-2.00,+37.00,+0.00,+0.00,+13.00
-6.00,+93.00,+18.00,-3.00,-1.00,-13.00,+9.00,+12.00,+6.00,+12.00,+4.00,+7.00,-59.00,+4.00,+4.00,+5.00
-4.00,-15.00,+0.00,-18.00,-12.00,-22.00,-14.00,-12.00,-8.00,-14.00,-5.00,-7.00,-19.00,+4.00,-7.00,-32.00
-1.00,-10.00,+0.00,+24.00,+22.00,+77.00,+19.00,+16.00,+3.00,+2.00,-6.00,-2.00,-39.00,-18.00,+1.00,+12.00
-3.00,-42.00,-7.00,-11.00,-6.00,+2.00,-2.00,-3.00,-35.00,-9.00,+6.00,+3.00,+54.00,+9.00,+8.00,+17.00
+5.00,-29.00,-12.00,-7.00,-10.00,+1.00,-9.00,-11.00,+44.00,+15.00,+1.00,-5.00,+10.00,-1.00,-2.00,+5.00
+1.00,+117.00,+22.00,+19.00,+10.00,-3.00,+15.00,+4.00,-2.00,+10.00,+4.00,+0.00,-30.00,+2.00,-1.00,-10.00
-2.00,-18.00,-3.00,-16.00,-9.00,-40.00,-13.00,-14.00,-16.00,-15.00,-7.00,-5.00,-9.00,-4.00,-1.00,+0.00
+1.00,-8.00,+1.00,+6.00,+4.00,+17.00,+3.00,+3.00,+3.00,+8.00,-3.00,+0.00,-16.00,-6.00,-6.00,-1.00
-4.00,-20.00,-9.00,-10.00,-7.00,-5.00,-10.00,-3.00,-48.00,-16.00,-3.00,-2.00,+28.00,-2.00,-8.00,-22.00
-3.00,+1.00,-5.00,+1.00,+3.00,+0.00,+0.00,+10.00,-53.00,-33.00,-11.00,-5.00,-5.00,-1.00,-6.00,-16.00
+4.00,-14.00,-2.00,-8.00,-6.00,-9.00,-2.00,+3.00,+28.00,+6.00,+15.00,+1.00,-12.00,-1.00,+7.00,+20.00
+0.00,+29.00,+3.00,+11.00,-1.00,+12.00,+3.00,+0.00,+0.00,+4.00,-10.00,-1.00,+10.00,+2.00,-1.00,-4.00
-2.00,-17.00,+0.00,+7.00,+0.00,-3.00,+2.00,+1.00,+6.00,-4.00,+0.00,+3.00,-9.00,-3.00,+0.00,+4.00
+0.00,-25.00,-5.00,-1.00,-4.00,-8.00,-4.00,-3.00,+11.00,+8.00,+0.00,+2.00,+63.00,+7.00,-4.00,-3.00
+0.00,-4.00,-3.00,-15.00,-8.00,-4.00,-7.00,+0.00,-17.00,-15.00,+1.00,+0.00,-54.00,-13.00,-3.00,-15.00
+2.00,+0.00,+3.00,+12.00,+12.00,+65.00,+11.00,+7.00,+0.00,-10.00,-3.00,-3.00,+22.00,-5.00,-3.00,-6.00
+2.00,+6.00,+4.00,+10.00,+2.00,-42.00,+1.00,-2.00,-12.00,+1.00,-4.00,-4.00,-9.00,-11.00,+4.00,+4.00
-5.00,-13.00,-5.00,+0.00,+9.00,+65.00,+10.00,+5.00,-46.00,-3.00,-7.00,-3.00,+13.00,-5.00,-22.00,-24.00
+0.00,+6.00,-3.00,-14.00,-5.00,-6.00,-6.00,-7.00,+22.00,-5.00,+5.00,-1.00,-17.00,+10.00,+4.00,+6.00
-3.00,+2.00,+3.00,-12.00,-11.00,-66.00,-5.00,-6.00,+11.00,+9.00,+7.00,+14.00,-8.00,+0.00,+9.00,+23.00
-2.00,-18.00,-2.00,+8.00,+13.00,+66.00,+5.00,+2.00,-15.00,+8.00,-1.00,-6.00,+32.00,-2.00,-2.00,-14.00
+2.00,-16.00,-3.00,+2.00,-4.00,-7.00,+2.00,-6.00,+4.00,-5.00,+3.00,+3.00,+15.00,+2.00,-2.00,-12.00
-3.00,+17.00,+0.00,+1.00,+0.00,-18.00,-1.00,-2.00,+3.00,+11.00,-6.00,-7.00,-26.00,-8.00,+0.00,+6.00
-2.00,+23.00,+11.00,+4.00,-6.00,-20.00,-5.00,+0.00,-35.00,-12.00,-2.00,+2.00,-1.00,-4.00,-3.00,+4.00
+3.00,-15.00,-5.00,+1.00,-2.00,-8.00,+1.00,-2.00,+36.00,+6.00,+9.00,+3.00,-12.00,-1.00,+2.00,+8.00
-3.00,-4.00,-2.00,-4.00,+0.00,-10.00,-5.00,-1.00,-6.00,-1.00,-11.00,-4.00,-13.00,-6.00,+5.00,+4.00
-3.00,+3.00,-2.00,-5.00,+1.00,+4.00,-3.00,-1.00,+49.00,+23.00,+4.00,-1.00,+3.00,-2.00,-3.00,+2.00
+2.00,+1.00,-2.00,-6.00,-3.00,+1.00,-4.00,+2.00,-52.00,-17.00,+1.00,-6.00,-12.00,-5.00,-8.00,-33.00
-3.00,-33.00,-5.00,-5.00,-3.00,-9.00,-8.00,+0.00,+64.00,-28.00,-19.00,-3.00,+8.00,-1.00,+1.00,+31.00
-6.00,+45.00,-15.00,-13.00,-3.00,+0.00,-5.00,+3.00,-10.00,+45.00,+14.00,+2.00,+12.00,+10.00,+1.00,+0.00
-5.00,-82.00,+19.00,-4.00,+3.00,-9.00,+5.00,-1.00,+26.00,+19.00,-4.00,-4.00,+24.00,-4.00,+0.00,+12.00
+0.00,+82.00,+9.00,-2.00,+0.00,+7.00,+5.00,+4.00,-49.00,-18.00,-5.00,-4.00,-52.00,+0.00,-5.00,-4.00
+2.00,-15.00,-18.00,+3.00,-7.00,-25.00,-5.00,-8.00,+28.00,-33.00,-2.00,-1.00,-5.00,-18.00,-11.00,-28.00
-1.00,-3.00,+7.00,-4.00,-2.00,-3.00,-4.00,-3.00,+36.00,+75.00,+13.00,+3.00,+16.00,+8.00,+12.00,+25.00
-4.00,+9.00,-11.00,-7.00,+6.00,+22.00,+5.00,+8.00,-25.00,-40.00,-4.00,-4.00,+4.00,+14.00,-8.00,-5.00
-5.00,-31.00,-3.00,-11.00,-3.00,-4.00,-5.00,-6.00,+12.00,+29.00,+1.00,+4.00,-5.00,-12.00,-2.00,-7.00
-1.00,-8.00,+1.00,-7.00,+5.00,-5.00,-14.00,-10.00,-37.00,+10.00,-1.00,+0.00,+7.00,+1.00,-5.00,-14.00
+2.00,-50.00,-8.00,-1.00,-7.00,+4.00,+31.00,+2.00,+14.00,-33.00,-9.00,-6.00,-28.00,+1.00,+4.00,+11.00
+1.00,+75.00,+13.00,-2.00,+4.00,-13.00,-8.00,+0.00,-62.00,-2.00,-7.00,-10.00,+3.00,-19.00,-10.00,-21.00
-5.00,-29.00,-1.00,+2.00,+3.00,+14.00,+5.00,-2.00,+78.00,+35.00,+7.00,+4.00,+26.00,+6.00,+3.00,+1.00
-3.00,+11.00,+0.00,-6.00,-1.00,+15.00,-3.00,+2.00,-34.00,-4.00,+1.00,-1.00,-11.00,+10.00,+6.00,+11.00
+0.00,+14.00,+2.00,-7.00,-8.00,-6.00,-17.00,-12.00,+10.00,-4.00,-9.00,-4.00,-17.00,-21.00,-7.00,-9.00
+2.00,-25.00,-4.00,+11.00,+8.00,+10.00,+5.00,-1.00,-29.00,-7.00,+0.00,+4.00,-2.00,+0.00,-2.00,-15.00
+1.00,+14.00,-6.00,-9.00,-7.00,-16.00,-2.00,-5.00,+24.00,-19.00,-2.00,-4.00,+2.00,+0.00,+2.00,+20.00
-3.00,+8.00,+2.00,+3.00,+6.00,+27.00,+5.00,+3.00,-17.00,+19.00,+20.00,+5.00,+0.00,+1.00,-3.00,-5.00
+1.00,-27.00,+9.00,-6.00,+1.00,-8.00,-4.00,-1.00,-17.00,-61.00,-32.00,-7.00,-6.00,+4.00,+0.00,-14.00
+1.00,+27.00,-2.00,-11.00,-6.00,-22.00,-4.00,-3.00,-3.00,+23.00,+10.00,+1.00,-3.00,-3.00,+0.00,-3.00
+0.00,-9.00,-11.00,-4.00,-4.00,-4.00,-9.00,+1.00,+3.00,-9.00,-2.00,-7.00,+36.00,+9.00,+5.00,+18.00
+1.00,-12.00,+22.00,+5.00,-2.00,+5.00,+4.00,+0.00,+27.00,+64.00,+9.00,+6.00,-55.00,+10.00,+5.00,-3.00
+3.00,+59.00,+5.00,+5.00,+3.00,-38.00,-3.00,+7.00,+40.00,-24.00,+10.00,+4.00,+3.00,-4.00,-2.00,+8.00
+0.00,-11.00,-6.00,-7.00,-4.00,+34.00,+2.00,-9.00,-35.00,-8.00,-6.00,+10.00,+27.00,+0.00,-3.00,-7.00
-4.00,-20.00,-3.00,+2.00,+5.00,+5.00,-21.00,-4.00,+79.00,+19.00,-6.00,-10.00,-62.00,-14.00,-5.00,-1.00
-1.00,-68.00,-11.00,-14.00,-7.00,+2.00,+32.00,+4.00,-47.00,-41.00,+1.00,+6.00,+72.00,+14.00,-1.00,-13.00
+3.00,-33.00,-5.00,+19.00,+6.00,+7.00,-5.00,-3.00,-37.00,-2.00,-2.00,-7.00,-21.00,-1.00,+9.00,+25.00
-6.00,+11.00,+7.00,-13.00,-15.00,-58.00,-3.00,+8.00,+58.00,+11.00,-3.00,+1.00,-15.00,-3.00,+3.00,+7.00
+1.00,-19.00,-3.00,+4.00,+13.00,+62.00,+6.00,+3.00,-44.00,-25.00,+2.00,-7.00,+18.00,+3.00,-7.00,-15.00
+2.00,+18.00,-2.00,+0.00,-5.00,-5.00,-7.00,-5.00,-15.00,-5.00,-9.00,-5.00,-39.00,-12.00,-3.00,-6.00
+1.00,-40.00,-5.00,-3.00,-17.00,-17.00,-11.00,+1.00,+20.00,+1.00,-1.00,+3.00,+2.00,+3.00,+3.00,+6.00
-3.00,-10.00,-10.00,-10.00,+8.00,+20.00,+2.00,-2.00,-20.00,+2.00,+0.00,-2.00,+5.00,-3.00,-3.00,-4.00
+5.00,-22.00,+0.00,+1.00,+0.00,+9.00,+11.00,+2.00,-13.00,-15.00,+1.00,+3.00,+12.00,+4.00,+1.00,+2.00
-3.00,+28.00,+4.00,+3.00,+4.00,-1.00,-5.00,+0.00,-16.00,-18.00,-14.00,-16.00,+41.00,-8.00,-6.00,-12.00
-2.00,-18.00,-5.00,-7.00,-8.00,+4.00,+4.00,-4.00,+87.00,+57.00,+13.00,+5.00,-80.00,+2.00,+10.00,+22.00
+0.00,+25.00,+0.00,+0.00,-5.00,-13.00,-8.00,-5.00,-19.00,-7.00,+2.00,-3.00,+28.00,+13.00,+0.00,-13.00
-2.00,+8.00,+4.00,+1.00,-2.00,-16.00,+3.00,-4.00,+32.00,-3.00,+1.00,+13.00,-17.00,+12.00,-8.00,-2.00
-1.00,-15.00,-51.00,-4.00,-3.00,+5.00,-3.00,-4.00,-35.00,+6.00,-1.00,-5.00,+10.00,-2.00,+3.00,+7.00
+0.00,+22.00,+50.00,+3.00,+6.00,-7.00,-9.00,-3.00,-13.00,-27.00,+6.00,+2.00,+27.00,-2.00,-6.00,-6.00
-3.00,-30.00,-7.00,-1.00,-4.00,-3.00,+2.00,+1.00,+28.00,-4.00,-5.00,-4.00,-12.00,-4.00,+3.00,+10.00
-1.00,-73.00,-9.00,-2.00,-7.00,-11.00,-1.00,-5.00,-86.00,-9.00,-2.00,-6.00,+7.00,-3.00,-3.00,-15.00
+0.00,+58.00,+30.00,+26.00,+5.00,-67.00,+5.00,+18.00,+43.00,+0.00,-6.00,-7.00,-2.00,-1.00,-6.00,-16.00
-7.00,-17.00,-23.00,-11.00,+6.00,+24.00,+4.00,-4.00,+14.00,+18.00,+0.00,+3.00,+7.00,+0.00,+2.00,+15.00
-2.00,-39.00,-3.00,-8.00,-5.00,-2.00,-6.00,-3.00,-17.00,-7.00,-2.00,-6.00,-10.00,-1.00,+1.00,+2.00
-3.00,-12.00,+0.00,-3.00,-3.00,+1.00,+5.00,-1.00,+7.00,-12.00,-10.00,+5.00,+11.00,-8.00,-7.00,-26.00
+2.00,-3.00,-4.00,-7.00,-5.00,-13.00,-8.00,-1.00,-21.00,+7.00,+10.00,+2.00,-13.00,-3.00,-5.00,-3.00
-1.00,+0.00,-8.00,-1.00,+3.00,+6.00,+2.00,-4.00,+25.00,+13.00,-17.00,-8.00,+88.00,+5.00,+6.00,+28.00
-2.00,-10.00,+8.00,+2.00,+3.00,+8.00,+3.00,-1.00,+46.00,+20.00,-3.00,-7.00,-52.00,-5.00,+4.00,+8.00
+2.00,+67.00,-3.00,-16.00,-13.00,-58.00,-15.00,-11.00,-47.00,+8.00,+0.00,+9.00,+7.00,+1.00,+5.00,+7.00
-1.00,+6.00,+7.00,-1.00,+7.00,+48.00,+6.00,+5.00,+5.00,+8.00,+1.00,+1.00,-3.00,-2.00,-6.00,-18.00
-5.00,-49.00,-6.00,-6.00,+0.00,-3.00,-2.00,-1.00,-35.00,-22.00,-4.00,-24.00,+42.00,+4.00,-6.00,-21.00
+3.00,+80.00,-19.00,-3.00,-1.00,+4.00,-1.00,-3.00,+7.00,+17.00,+5.00,+28.00,+5.00,+0.00,+0.00,+1.00
+1.00,+19.00,+20.00,-9.00,-3.00,-12.00,+5.00,+2.00,+67.00,-7.00,-4.00,-11.00,+26.00,-1.00,+2.00,+17.00
-1.00,-1.00,+3.00,-6.00,-5.00,-22.00,-8.00,-7.00,-35.00,-7.00,+5.00,+10.00,-38.00,+5.00,+3.00,+2.00
-4.00,-4.00,-3.00,+12.00,+8.00,+18.00,+11.00,+2.00,-58.00,-34.00,-4.00,-2.00,-14.00,-13.00,-7.00,-16.00
-2.00,-40.00,-12.00,-3.00,-11.00,-10.00,-5.00,-7.00,-48.00,-46.00,-13.00,-11.00,+1.00,-5.00,-8.00,-17.00
+3.00,+0.00,+0.00,+13.00,+7.00,+4.00,-5.00,+2.00,+51.00,+78.00,+10.00,-5.00,-20.00,-7.00,-2.00,-20.00
-4.00,-37.00,+1.00,+1.00,+4.00,+10.00,+0.00,-7.00,-17.00,+13.00,+4.00,+9.00,+16.00,+3.00,+5.00,+21.00
+1.00,+14.00,+1.00,+0.00,-7.00,-12.00,-4.00,+1.00,-7.00,-16.00,+3.00,-3.00,-32.00,-2.00,-8.00,-22.00
+2.00,+12.00,+2.00,-4.00,-12.00,-16.00,-1.00,+3.00,-12.00,-7.00,-4.00,-9.00,-7.00,-3.00,-3.00,-14.00
-3.00,+8.00,+7.00,+2.00,+21.00,+8.00,+2.00,+4.00,+1.00,-37.00,-6.00,-1.00,+0.00,-3.00,-3.00,-7.00
-3.00,+47.00,+4.00,-4.00,-7.00,+10.00,-4.00,+1.00,-41.00,-10.00,-8.00,-10.00,+10.00,+0.00,-2.00,-8.00
+2.00,+7.00,-7.00,+0.00,-5.00,-4.00,-1.00,-7.00,+79.00,+60.00,+2.00,-1.00,+26.00,+3.00,+3.00,+20.00
-1.00,-28.00,-11.00,-2.00,+5.00,-14.00,+2.00,+4.00,-42.00,+14.00,+5.00,+5.00,-51.00,+8.00,+2.00,+4.00
-5.00,+8.00,+13.00,-5.00,-6.00,+7.00,-2.00,-4.00,-91.00,-48.00,-9.00,+2.00,+15.00,-6.00,-6.00,-8.00
+0.00,-51.00,-29.00,-7.00,-5.00,-2.00,-8.00,-3.00,+86.00,+35.00,+21.00,+15.00,+6.00,+4.00,+7.00,+35.00
-1.00,+58.00,+35.00,-2.00,-6.00,-22.00,-1.00,+0.00,-42.00,-62.00,-29.00,-4.00,-21.00,-8.00,-8.00,-24.00
+1.00,-39.00,+7.00,+7.00,+17.00,-24.00,+2.00,-1.00,+24.00,+20.00,+3.00,-5.00,+10.00,-2.00,+6.00,+18.00
-8.00,+20.00,-10.00,-3.00,-5.00,-4.00,+2.00,+3.00,-42.00,-8.00,-4.00,-7.00,-5.00,-1.00,-5.00,-23.00
-3.00,-8.00,+4.00,+3.00,+4.00,+12.00,+0.00,-6.00,-11.00,-19.00,-9.00,-2.00,-12.00,+0.00,+9.00,+27.00
-4.00,-7.00,-17.00,-16.00,-12.00,-29.00,-12.00,-6.00,-15.00,+5.00,+11.00,+7.00,-10.00,-1.00,-12.00,-29.00
+1.00,-34.00,+1.00,+12.00,+9.00,+27.00,+1.00,+0.00,+35.00,-15.00,+1.00,-4.00,+25.00,+3.00,+7.00,+33.00
+5.00,-32.00,-6.00,-6.00,-10.00,-15.00,+1.00,+8.00,-29.00,+22.00,+1.00,+3.00,-11.00,-10.00,-2.00,-5.00
-1.00,+18.00,+10.00,+7.00,+1.00,-2.00,+4.00,-8.00,+58.00,+4.00,-4.00,-6.00,+1.00,-7.00,-10.00,-13.00
+0.00,-43.00,-16.00,-7.00,+6.00,+22.00,-10.00,+2.00,-15.00,-11.00,+3.00,-9.00,-44.00,-33.00,-4.00,+9.00
+4.00,+89.00,+5.00,-8.00,-9.00,-15.00,-6.00,+2.00,-51.00,+0.00,-3.00,-4.00,+85.00,+34.00,+4.00,-2.00
-2.00,-12.00,-4.00,+4.00,+4.00,+8.00,+4.00,-2.00,+54.00,+1.00,+3.00,+13.00,-86.00,-13.00,-11.00,-4.00
-2.00,+16.00,+3.00,+2.00,+0.00,+15.00,+3.00,-1.00,-56.00,-40.00,-9.00,-4.00,+30.00,+0.00,-1.00,-8.00
+2.00,+12.00,+0.00,-2.00,+2.00,-17.00,-4.00,+0.00,+14.00,+39.00,+8.00,+6.00,-48.00,+9.00,+9.00,+14.00
-5.00,-36.00,-1.00,-11.00,-2.00,+2.00,+0.00,-7.00,+77.00,+16.00,+5.00,+6.00,+20.00,-14.00,-8.00,+3.00
+0.00,-40.00,-22.00,-8.00,-5.00,+3.00,-3.00,+2.00,-4.00,-23.00,-7.00,-12.00,+28.00,+2.00,+0.00,+2.00
+1.00,+56.00,+18.00,-7.00,-9.00,-31.00,-7.00,+2.00,+16.00,+21.00,-7.00,-8.00,-12.00,+0.00,+0.00,-1.00
-3.00,-35.00,-9.00,-4.00,-5.00,-21.00,-2.00,-4.00,-38.00,-20.00,+4.00,+5.00,+7.00,+7.00,-4.00,-17.00
+3.00,-19.00,+2.00,+2.00,+10.00,-16.00,+5.00,+11.00,-6.00,-13.00,-12.00,+0.00,+6.00,-13.00,-8.00,-21.00
-4.00,-26.00,-5.00,-4.00,-8.00,+5.00,-2.00,-7.00,+55.00,+24.00,+5.00,-1.00,+5.00,+11.00,+12.00,+38.00
-4.00,+53.00,+0.00,+6.00,+4.00,+5.00,+7.00,+9.00,-44.00,-18.00,-6.00,-3.00,-12.00,-8.00,-5.00,-7.00
-1.00,+5.00,+11.00,-1.00,+0.00,+12.00,+0.00,+0.00,+83.00,+15.00,+13.00,-1.00,+10.00,+3.00,+0.00,+0.00
+1.00,+41.00,+5.00,-5.00,-5.00,-32.00,-5.00,-3.00,+0.00,+26.00,+5.00,+1.00,-12.00,-3.00,+1.00,+5.00
+0.00,-8.00,-1.00,-5.00,-5.00,-6.00,-2.00,-6.00,-24.00,-4.00,-6.00,-4.00,+0.00,-2.00,+3.00,+12.00
+0.00,-48.00,-6.00,-6.00,-2.00,+6.00,-1.00,+2.00,-53.00,+23.00,-4.00,-6.00,+7.00,-2.00,+3.00,+13.00
-3.00,+6.00,-2.00,-3.00,-1.00,-3.00,-2.00,+3.00,+23.00,-6.00,+4.00,-8.00,-17.00,-2.00,-7.00,-13.00
-2.00,-11.00,-2.00,-9.00,-5.00,+1.00,-1.00,-9.00,-9.00,-17.00,-3.00,+8.00,+2.00,-5.00,-4.00,-10.00
-1.00,+18.00,+6.00,+10.00,+8.00,+3.00,-2.00,-2.00,-5.00,-3.00,+2.00,-2.00,+72.00,+1.00,+1.00,+3.00
-2.00,-22.00,-2.00,+2.00,-1.00,+5.00,-6.00,+0.00,+18.00,+3.00,+0.00,-11.00,-55.00,-25.00,-6.00,-5.00
+2.00,+21.00,-11.00,-3.00,-7.00,+2.00,-5.00,-5.00,-62.00,-11.00,-8.00,+8.00,+20.00,+13.00,-12.00,-35.00
+2.00,-24.00,+2.00,+0.00,-4.00,-35.00,+0.00,+5.00,+5.00,+16.00,+5.00,-16.00,+43.00,+25.00,+21.00,+38.00
-3.00,+15.00,-4.00,+1.00,+6.00,+32.00,+5.00,+3.00,-12.00,-10.00,+2.00,+21.00,-18.00,-11.00,-8.00,-16.00
+0.00,+37.00,+8.00,-11.00,+0.00,+8.00,-3.00,-5.00,+0.00,-19.00,-2.00,-1.00,+4.00,+4.00,+3.00,+6.00
-2.00,-82.00,-3.00,-3.00,+3.00,-25.00,+8.00,+1.00,-43.00,-4.00,-3.00,+1.00,-34.00,-7.00,-2.00,-3.00
-3.00,+7.00,+1.00,-4.00,+2.00,+26.00,-6.00,-8.00,-54.00,-21.00,-13.00,-15.00,+5.00,-11.00,-10.00,-20.00
+0.00,-26.00,-1.00,-10.00,-7.00,-22.00,-5.00,-2.00,-50.00,+29.00,+9.00,-3.00,+0.00,+11.00,+12.00,+24.00
+2.00,+31.00,-14.00,-3.00,+0.00,+2.00,+4.00,+1.00,+45.00,-9.00,-3.00,+2.00,+2.00,+5.00,-6.00,-21.00
+4.00,+60.00,+17.00,+2.00,+1.00,-30.00,-7.00,-1.00,-30.00,-9.00,+1.00,+0.00,+0.00,-2.00,+5.00,+16.00
-3.00,-29.00,-12.00,-12.00,-8.00,+10.00,-5.00,+3.00,-20.00,-1.00,+0.00,+4.00,-19.00,-5.00,-6.00,-14.00
+3.00,-68.00,-4.00,+9.00,+6.00,+36.00,+5.00,-10.00,+29.00,+0.00,-1.00,-9.00,-2.00,+2.00,+4.00,+23.00
-2.00,-18.00,-9.00,+0.00,+0.00,+6.00,-3.00,-1.00,+1.00,-12.00,-6.00,+3.00,-5.00,-2.00,-9.00,-16.00
-4.00,+3.00,-1.00,-11.00,+1.00,+10.00,+4.00,+6.00,-37.00,-13.00,-12.00,-7.00,+36.00,-2.00,-6.00,-19.00
-4.00,+46.00,+13.00,+6.00,+1.00,+5.00,+5.00,+3.00,-10.00,-59.00,-14.00,-9.00,-4.00,-17.00,-24.00,-66.00
-2.00,-67.00,-24.00,-8.00,+0.00,+11.00,-1.00,-6.00,+44.00,+101.00,+38.00,+22.00,-12.00,+17.00,+38.00,+51.00
+5.00,-72.00,+7.00,+16.00,-1.00,-19.00,-2.00,-6.00,-10.00,-15.00,+9.00,+5.00,+15.00,+4.00,+1.00,-4.00
-6.00,-33.00,-9.00,+0.00,+2.00,+3.00,+1.00,+2.00,+14.00,-27.00,-10.00,-1.00,-1.00,+0.00,+3.00,+9.00
-3.00,-27.00,+0.00,-3.00,-5.00,+18.00,-1.00,-8.00,-40.00,+16.00,+0.00,-6.00,-18.00,-9.00,-6.00,-11.00
+1.00,+37.00,+4.00,-11.00,-19.00,-92.00,-13.00,-5.00,-54.00,-56.00,-16.00,-15.00,-10.00,-7.00,-15.00,-34.00
-5.00,-38.00,-11.00,+3.00,+25.00,+74.00,+10.00,+2.00,+29.00,+19.00,+1.00,-9.00,+0.00,+11.00,+7.00,+5.00
+1.00,+15.00,-7.00,+1.00,-8.00,+22.00,+4.00,-2.00,-22.00,+14.00,+11.00,-5.00,-25.00,-27.00,+5.00,+11.00
-1.00,+5.00,+1.00,-6.00,-4.00,-54.00,-20.00,-5.00,+22.00,-4.00,+6.00,+29.00,-5.00,+27.00,+2.00,+11.00
-5.00,+12.00,+1.00,+10.00,+13.00,+74.00,+9.00,+6.00,-3.00,-22.00,-11.00,-8.00,-4.00,+2.00,-6.00,-8.00
-3.00,+15.00,+4.00,-5.00,-8.00,-20.00,-2.00,-2.00,-10.00,+14.00,+7.00,+7.00,-16.00,-5.00,+4.00,+7.00
+0.00,+28.00,+1.00,+4.00,+4.00,+9.00,+3.00,-4.00,+15.00,-10.00,-6.00,-10.00,-58.00,-19.00,-5.00,-2.00
-3.00,-76.00,-9.00,-10.00,-7.00,+8.00,-2.00,-4.00,+14.00,+0.00,-1.00,-4.00,+3.00,+0.00,+0.00,+14.00
+6.00,+66.00,+15.00,+5.00,+2.00,-3.00,+6.00,+3.00,+9.00,-3.00,-3.00,-1.00,+32.00,+1.00,-8.00,-6.00
-3.00,+6.00,+8.00,-2.00,-6.00,-29.00,-3.00,+10.00,-27.00,-13.00,-12.00,-4.00,+12.00,+4.00,-6.00,-23.00
-2.00,+10.00,-3.00,+3.00,+5.00,+30.00,+0.00,-1.00,+37.00,+20.00,+1.00,+0.00,+21.00,+8.00,+1.00,+6.00
+0.00,-3.00,-2.00,-4.00,-2.00,-1.00,+2.00,+1.00,-4.00,-3.00,+5.00,+0.00,-8.00,-7.00,+8.00,+18.00
-1.00,-6.00,-3.00,-4.00,-1.00,-20.00,-1.00,+3.00,-19.00,+14.00,+3.00,+0.00,+3.00,+4.00,-1.00,-5.00
+1.00,-20.00,-5.00,+0.00,+0.00,-2.00,-5.00,-4.00,+52.00,-12.00,-2.00,-1.00,+8.00,-7.00,-2.00,+13.00
+2.00,-24.00,-8.00,-6.00,-8.00,-28.00,-9.00,-2.00,+12.00,-1.00,-4.00,+2.00,+11.00,+7.00,+3.00,+14.00
-9.00,+68.00,+10.00,-12.00,-1.00,+23.00,-4.00,+6.00,-26.00,+8.00,+5.00,+0.00,-11.00,-3.00,+5.00,+16.00
+1.00,+26.00,+15.00,+18.00,+13.00,+19.00,+17.00,+3.00,+30.00,-13.00,-7.00,-7.00,-11.00,-9.00,-9.00,-20.00
-3.00,+56.00,-21.00,-6.00,-6.00,-8.00,-2.00,+0.00,-24.00,-3.00,+1.00,+0.00,+2.00,+0.00,-2.00,-8.00
+2.00,-64.00,+9.00,-1.00,-1.00,+14.00,-1.00,-2.00,-49.00,-8.00,-5.00,+0.00,+9.00,+5.00,-2.00,-2.00
+1.00,+47.00,+5.00,+11.00,-1.00,+1.00,+1.00,-6.00,+60.00,+12.00,+0.00,+1.00,-15.00,-5.00,+1.00,+3.00
-1.00,+7.00,-3.00,-9.00,-1.00,-8.00,-9.00,+1.00,-16.00,-12.00,+0.00,-8.00,-3.00,-5.00,-3.00,-12.00
-1.00,-13.00,+5.00,-1.00,-16.00,-37.00,-3.00,-10.00,-4.00,-20.00,-11.00,-3.00,+39.00,-3.00,-6.00,+1.00
-1.00,+24.00,-11.00,+2.00,+8.00,-11.00,+8.00,-10.00,-7.00,-4.00,-2.00,-10.00,+30.00,+9.00,-3.00,-10.00
-1.00,-27.00,-6.00,+8.00,-2.00,+8.00,-1.00,+0.00,-1.00,+30.00,+4.00,+11.00,-87.00,-10.00,+6.00,+22.00
-7.00,+1.00,+3.00,-13.00,-17.00,-70.00,-33.00,-11.00,+19.00,+4.00,+2.00,+2.00,+22.00,-2.00,+4.00,+12.00
+2.00,-22.00,-3.00,+6.00,+11.00,+21.00,+50.00,+11.00,+10.00,+7.00,+4.00,+4.00,-17.00,-1.00,-8.00,-23.00
+0.00,+16.00,+3.00,-2.00,+5.00,+13.00,+2.00,+2.00,-15.00,-1.00,+0.00,+1.00,+16.00,+2.00,+0.00,-6.00
+4.00,-2.00,-1.00,-2.00,+3.00,-5.00,+0.00,-3.00,+20.00,-1.00,-3.00,-9.00,+17.00,-3.00,+0.00,+4.00
-4.00,-9.00,+1.00,+0.00,-7.00,-4.00,-3.00,-7.00,+13.00,-4.00,+4.00,-2.00,-7.00,-2.00,-6.00,-12.00
-1.00,-8.00,+2.00,-7.00,-10.00,-25.00,-23.00,-3.00,-16.00,-4.00,-3.00,-3.00,-7.00,+2.00,+5.00,+15.00
+2.00,-6.00,+0.00,+3.00,-2.00,-10.00,+0.00,+6.00,+48.00,+16.00,+3.00,-1.00,+2.00,+1.00,-1.00,+5.00
-3.00,-34.00,-6.00,-1.00,+5.00,+9.00,+11.00,+7.00,-10.00,-19.00,+0.00,-1.00,+6.00,-2.00,-3.00,-12.00
+3.00,+72.00,+6.00,+2.00,-3.00,+0.00,+0.00,+4.00,-55.00,-17.00,-3.00,+1.00,+9.00,+4.00,-2.00,-6.00
-1.00,-16.00,+6.00,+1.00,+2.00,+10.00,-3.00,-7.00,+39.00,+18.00,+5.00,+0.00,-6.00,-7.00,+4.00,+13.00
-5.00,+4.00,-4.00,+2.00,+1.00,+6.00,+2.00,+1.00,-1.00,-21.00,-3.00,+5.00,-2.00,+4.00,+7.00,+21.00
-3.00,-16.00,-9.00,-2.00,-1.00,+11.00,-4.00,+0.00,+2.00,+23.00,+0.00,-4.00,+9.00,-4.00,-10.00,-20.00
+3.00,-41.00,-6.00,-5.00,-2.00,+4.00,+3.00,+0.00,+8.00,-20.00,-4.00,-12.00,+56.00,-1.00,-1.00,+5.00
-2.00,+27.00,+8.00,+0.00,+0.00,+0.00,-6.00,+2.00,-35.00,+0.00,-1.00,+6.00,-15.00,+3.00,+2.00,-3.00
+0.00,-23.00,-2.00,-1.00,-1.00,+3.00,-6.00,+1.00,+18.00,-18.00,-5.00,+6.00,-42.00,-6.00,-1.00,+11.00
+0.00,+2.00,+0.00,-3.00,-1.00,+3.00,+2.00,-2.00,+32.00,+19.00,-2.00,-3.00,-3.00,+5.00,+0.00,+3.00
-2.00,-23.00,-8.00,-8.00,-7.00,-1.00,+1.00,+3.00,-1.00,-11.00,-5.00,+2.00,+22.00,+0.00,-5.00,-10.00
-3.00,-5.00,+12.00,-1.00,+0.00,+0.00,-6.00,-8.00,+24.00,+20.00,+2.00,-6.00,-5.00,-7.00,-8.00,-2.00
-1.00,+12.00,-7.00,-8.00,-12.00,-33.00,-13.00,-3.00,-11.00,-2.00,+4.00,+4.00,+10.00,+1.00,+4.00,-12.00
+5.00,+4.00,+7.00,+15.00,+20.00,+53.00,+17.00,+4.00,-11.00,-17.00,+5.00,-2.00,+15.00,+2.00,+0.00,+0.00
-5.00,+14.00,+1.00,+1.00,+5.00,+16.00,+7.00,-7.00,+12.00,+3.00,-17.00,-11.00,-35.00,-9.00,-3.00,-5.00
-1.00,-14.00,-5.00,+1.00,-2.00,-2.00,-10.00,-9.00,-3.00,+3.00,+5.00,+2.00,+13.00,+2.00,-4.00,-2.00
+0.00,+24.00,+3.00,-1.00,+0.00,+4.00,-1.00,+2.00,-35.00,-6.00,+5.00,+3.00,-4.00,+0.00,-7.00,-12.00
-2.00,-22.00,-7.00,-8.00,-7.00,-28.00,-5.00,-5.00,+19.00,+9.00,+5.00,-4.00,+1.00,+0.00,+2.00,+3.00
+0.00,+6.00,+0.00,-4.00,+0.00,-1.00,+0.00,+2.00,+10.00,+3.00,-9.00,+2.00,-14.00,-1.00,+2.00,+4.00
+1.00,-4.00,-9.00,+3.00,+0.00,+7.00,-2.00,-1.00,-18.00,-7.00,-6.00,-2.00,-6.00,-1.00,+1.00,+3.00
-3.00,-70.00,+8.00,-1.00,-3.00,-10.00,-2.00,-5.00,+27.00,+6.00,+0.00,+1.00,+9.00,+2.00,+0.00,-4.00
-4.00,+100.00,+16.00,+2.00,-2.00,-1.00,+4.00,+2.00,-33.00,-12.00,-9.00,-2.00,+0.00,-7.00,-1.00,-8.00
-1.00,+1.00,-7.00,-2.00,+5.00,+4.00,-1.00,-2.00,+1.00,+12.00,+8.00,-3.00,-15.00,-2.00,-3.00,-2.00
+0.00,-7.00,-3.00,-2.00,-2.00,-7.00,-3.00,+1.00,-12.00,-24.00,-11.00,-6.00,+17.00,-4.00,-7.00,-20.00
+1.00,+4.00,-4.00,+1.00,+2.00,+11.00,+4.00,+2.00,-20.00,+14.00,+9.00,+4.00,-30.00,-2.00,+4.00,+5.00
-1.00,-55.00,-7.00,-6.00,-4.00,-7.00,-7.00,-6.00,-36.00,-4.00,-4.00,-9.00,-11.00,-1.00,+1.00,+3.00
-4.00,+43.00,+11.00,-3.00,-11.00,-42.00,+4.00,-1.00,-26.00,-2.00,+0.00,+15.00,+16.00,-2.00,-5.00,+4.00
+0.00,-22.00,-1.00,+3.00,+9.00,+49.00,-5.00,+4.00,-47.00,-14.00,-9.00,-11.00,-16.00,+3.00,-4.00,-15.00
+0.00,+27.00,-5.00,+3.00,+5.00,+16.00,+2.00,+0.00,-30.00,+10.00,+3.00,+3.00,+2.00,+2.00,+10.00,+27.00
+0.00,-30.00,+1.00,-4.00,+2.00,-6.00,-6.00,-3.00,+23.00,-9.00,-2.00,+0.00,+0.00,-2.00,-2.00,-3.00
-1.00,-13.00,-1.00,-4.00,-8.00,-22.00,-3.00,-3.00,+52.00,-2.00,-1.00,-6.00,-8.00,-2.00,-2.00,-5.00
+2.00,-17.00,-2.00,-3.00,+4.00,+5.00,+3.00,+0.00,+27.00,+10.00,+4.00,+3.00,+2.00,+1.00,+1.00,+6.00
-2.00,+10.00,-30.00,+0.00,+2.00,-3.00,+2.00,+4.00,+45.00,-9.00,-7.00,-6.00,+10.00,+1.00,-4.00,-2.00
-1.00,+1.00,+13.00,-10.00,-5.00,-5.00,-2.00,-4.00,+27.00,+5.00,-1.00,+1.00,+3.00,+0.00,-2.00,-9.00
+3.00,+2.00,+0.00,+3.00,-1.00,+7.00,-1.00,-4.00,+43.00,+4.00,+9.00,+1.00,-11.00,+2.00,+0.00,+12.00
+1.00,+31.00,+7.00,+0.00,-2.00,-20.00,-3.00,-2.00,-4.00,+12.00,+6.00,+4.00,+4.00,+2.00,+5.00,+5.00
-1.00,+17.00,-1.00,-3.00,-1.00,+7.00,+0.00,+0.00,-56.00,-9.00,-8.00,-9.00,-5.00,-2.00,-8.00,-12.00
+0.00,-10.00,-14.00,-6.00,-2.00,-4.00,+4.00,+1.00,-49.00,-2.00,+1.00,-1.00,+6.00,-7.00,-12.00,-8.00
+0.00,-14.00,+4.00,+5.00,+1.00,+11.00,-2.00,+0.00,-107.00,-5.00,-6.00,-3.00,-10.00,+1.00,+19.00,-9.00
+0.00,-3.00,-8.00,-2.00,-5.00,-7.00,+0.00,-2.00,-35.00,-6.00,+0.00,+3.00,-1.00,+0.00,-2.00,+1.00
+2.00,+8.00,+11.00,+0.00,-2.00,-3.00,-1.00,+0.00,+18.00,+5.00,+6.00,+0.00,+8.00,-1.00,-3.00,-7.00
-2.00,+5.00,+1.00,+1.00,-4.00,+1.00,-1.00,+1.00,+84.00,+4.00,+2.00,+5.00,+3.00,+2.00,+2.00,+26.00
-5.00,-22.00,-4.00,-5.00,-2.00,+4.00,-4.00,-3.00,+55.00,-1.00,-1.00,-1.00,-10.00,-1.00,-5.00,-6.00
-2.00,+13.00,+1.00,-5.00,-6.00,-17.00,-7.00,-3.00,+35.00,+3.00,+5.00,-2.00,-2.00,-2.00,+0.00,-3.00
+0.00,+1.00,+2.00,+8.00,+14.00,+39.00,+8.00,+2.00,+92.00,+0.00,-9.00,-4.00,+4.00,-1.00,+1.00,-4.00
-1.00,-1.00,-6.00,-5.00,-3.00,-13.00,-2.00,+1.00,+102.00,-15.00,-6.00,-5.00,-3.00,-3.00,-2.00,-7.00
-1.00,+10.00,+1.00,-4.00,+1.00,+5.00,-1.00,-1.00,-10.00,-19.00,+9.00,+1.00,-9.00,+0.00,-2.00,-2.00
+1.00,-21.00,-8.00,-6.00,-5.00,-23.00,-3.00,+7.00,-65.00,+12.00,-22.00,-5.00,+2.00,-3.00,+0.00,+2.00
-1.00,+4.00,+6.00,+6.00,+4.00,+27.00,+3.00,-10.00,-75.00,-6.00,-14.00,+1.00,+2.00,+0.00,-3.00,-10.00
+1.00,+16.00,+3.00,-2.00,+1.00,+4.00,+0.00,+0.00,-105.00,-6.00,+0.00,+0.00,-2.00,-3.00,-2.00,-3.00
-4.00,-11.00,-7.00,-3.00,-1.00,+5.00,-2.00,-1.00,-94.00,-6.00,-9.00,-6.00,-5.00,-3.00,-6.00,-10.00
+3.00,-8.00,+1.00,+2.00,-5.00,-9.00,-3.00,-3.00,-5.00,-10.00,-3.00,-1.00,+0.00,+0.00,-4.00,+17.00
-1.00,+6.00,+5.00,-4.00,-4.00,-16.00,-4.00,+3.00,-69.00,-1.00,-3.00,-3.00,+4.00,+2.00,+7.00,-8.00
-4.00,+15.00,-1.00,+1.00,+1.00,+4.00,+2.00,+0.00,-42.00,+0.00,+7.00,+7.00,+1.00,+1.00,-2.00,+6.00
+1.00,-11.00,-24.00,+0.00,+0.00,+3.00,+1.00,-1.00,-103.00,-1.00,-8.00,-1.00,-7.00,-2.00,-17.00,-10.00
-1.00,-7.00,+11.00,+1.00,+2.00,+1.00,+0.00,-1.00,-71.00,-7.00,+5.00,+2.00,+1.00,+2.00,+10.00,+24.00
+2.00,+20.00,+13.00,-1.00,-3.00,-7.00,+0.00,+0.00,-25.00,+13.00,+3.00,-1.00,-3.00,-1.00,-1.00,+4.00
+4.00,-16.00,-11.00,+3.00,-1.00,+2.00,-3.00,-5.00,-30.00,-14.00,-6.00,-1.00,+1.00,-3.00,+4.00,-5.00
+1.00,+4.00,-4.00,-3.00,+0.00,-4.00,-1.00,+1.00,+39.00,+2.00,+2.00,-4.00,-5.00,-4.00,-12.00,-10.00
-2.00,+0.00,-4.00,+0.00,-3.00,-1.00,+1.00,-2.00,+43.00,-3.00,+3.00,-3.00,-3.00,-2.00,-3.00,-12.00
-1.00,-12.00,-7.00,-1.00,+2.00,+6.00,-1.00,+0.00,+29.00,-5.00,+1.00,+1.00,+3.00,+3.00,-3.00,-6.00
-4.00,-7.00,+1.00,-3.00,+0.00,+1.00,+0.00,-6.00,+0.00,-2.00,-3.00,-5.00,+3.00,-2.00,-3.00,-8.00
+5.00,+3.00,+4.00,+2.00,+3.00,-1.00,+0.00,+1.00,+24.00,+5.00,+0.00,+0.00,+36.00,+1.00,+3.00,+4.00
-4.00,-10.00,-6.00,-5.00,+2.00,+8.00,+1.00,+0.00,+31.00,+4.00,+0.00,-1.00,-44.00,-3.00,+2.00,+0.00
-3.00,+2.00,+5.00,-3.00,-10.00,-18.00,-2.00,+0.00,+27.00,+6.00,+5.00,+2.00,+1.00,+2.00,+2.00,+14.00
-1.00,+2.00,-1.00,+0.00,+3.00,-1.00,-1.00,+2.00,+0.00,-7.00,-7.00,-4.00,-6.00,-4.00,-23.00,-30.00
-6.00,+0.00,-11.00,-2.00,+3.00,+5.00,-1.00,+2.00,+46.00,+8.00,+1.00,+0.00,-3.00,+1.00,+13.00,+16.00
+2.00,+3.00,+6.00,-6.00,-3.00,+3.00,+1.00,+0.00,+30.00,-3.00,+3.00,+0.00,+14.00,+0.00,+8.00,-10.00
+0.00,-16.00,+22.00,+4.00,-1.00,-8.00,-2.00,+2.00,+5.00,-1.00,+0.00,-7.00,+5.00,-6.00,-1.00,-3.00
-1.00,+8.00,-7.00,-1.00,-2.00,+1.00,-1.00,-1.00,+10.00,+2.00,-1.00,+4.00,-14.00,+11.00,+2.00,+13.00
+0.00,+7.00,+14.00,-2.00,-2.00,-1.00,-1.00,+1.00,+44.00,-3.00,-2.00,+0.00,-3.00,+2.00,+6.00,-10.00
-4.00,-2.00,-4.00,+1.00,+0.00,+1.00,-1.00,-5.00,+15.00,-1.00,+4.00,+4.00,+10.00,-1.00,-3.00,+7.00
-2.00,+4.00,-20.00,-11.00,-6.00,-6.00,-4.00,+4.00,+7.00,-16.00,-6.00,-2.00,-10.00,-5.00,-8.00,-9.00
-2.00,-13.00,+5.00,+4.00,+2.00,+3.00,+2.00,-8.00,-21.00,-20.00,-8.00,-5.00,+7.00,-7.00,+3.00,-4.00
+0.00,-3.00,+8.00,+2.00,+0.00,+0.00,-2.00,+2.00,+30.00,+11.00,-1.00,-3.00,-12.00,-3.00,-2.00,+0.00
+0.00,+18.00,-3.00,+5.00,+1.00,+0.00,+3.00,-2.00,+101.00,+22.00,+2.00,-1.00,-1.00,+0.00,-6.00,+6.00
+1.00,-3.00,-3.00,-1.00,-2.00,-3.00,+1.00,-1.00,-38.00,+1.00,+1.00,-3.00,+0.00,-4.00,-10.00,-20.00
+2.00,+8.00,-4.00,-6.00,-4.00,-3.00,-2.00,+0.00,-17.00,+8.00,+7.00,+2.00,+3.00,+3.00,+22.00,+35.00
-2.00,-1.00,-5.00,-5.00,-2.00,-1.00,-2.00,+2.00,-48.00,-8.00,-2.00,-1.00,-10.00,-2.00,-6.00,-8.00
+1.00,-2.00,+3.00,-1.00,+0.00,+0.00,+1.00,+4.00,-82.00,-19.00,-7.00,-3.00,-5.00,-7.00,+0.00,-18.00
-1.00,+15.00,-4.00,-2.00,-2.00,-8.00,-1.00,-4.00,-17.00,+1.00,-2.00,-2.00,+6.00,-7.00,-13.00,-14.00
+1.00,-5.00,+2.00,-2.00,+0.00,+1.00,-1.00,-2.00,-29.00,-8.00,-4.00,-2.00,-2.00,+0.00,+0.00,-3.00
+0.00,-2.00,-1.00,-9.00,-5.00,-13.00,-4.00,-10.00,-20.00,-2.00,+2.00,+1.00,-6.00,+0.00,+5.00,-2.00
-5.00,-1.00,+1.00,+6.00,+7.00,+30.00,+2.00,-5.00,+3.00,+4.00,+1.00,+1.00,+6.00,+4.00,-1.00,+7.00
+0.00,+4.00,-2.00,+1.00,+0.00,-1.00,+0.00,-8.00,+6.00,+4.00,-1.00,+4.00,-2.00,-1.00,+6.00,-3.00
-2.00,-2.00,-1.00,-5.00,-2.00,-5.00,-3.00,+4.00,-9.00,+2.00,-1.00,+2.00,+10.00,-3.00,-1.00,-7.00
-3.00,-3.00,+3.00,+2.00,+0.00,+6.00,+3.00,-5.00,+9.00,-1.00,-2.00,-1.00,-13.00,+4.00,+12.00,+13.00
-1.00,-1.00,-1.00,-1.00,-6.00,-17.00,-8.00,-7.00,-14.00,+4.00,+1.00,-2.00,+3.00,-3.00,-8.00,-12.00
-1.00,-6.00,-6.00,-5.00,-3.00,-1.00,-1.00,-2.00,+14.00,+5.00,+3.00,+2.00,-3.00,+2.00,-3.00,+17.00
-3.00,+1.00,+2.00,+3.00,+1.00,-6.00,-1.00,+0.00,+8.00,+6.00,+0.00,-1.00,-1.00,-2.00,+8.00,-4.00
-1.00,+1.00,-3.00,-2.00,+1.00,+4.00,+2.00,-4.00,+16.00,-1.00,-4.00,-5.00,+10.00,-3.00,-5.00,+4.00
-1.00,+7.00,+1.00,-1.00,-1.00,-7.00,+2.00,+0.00,-9.00,-16.00,-4.00,+1.00,-8.00,-3.00,-12.00,-7.00
+1.00,-3.00,-1.00,+4.00,+2.00,-2.00,-2.00,+3.00,-6.00,-7.00,-1.00,-4.00,-7.00,+0.00,-24.00,-6.00
-3.00,+17.00,-4.00,-14.00,-4.00,-5.00,-4.00,+2.00,+3.00,+18.00,+5.00,+1.00,+1.00,+0.00,+25.00,-2.00
-6.00,-29.00,-28.00,+1.00,+1.00,+5.00,+4.00,+6.00,-10.00,-3.00,-11.00,-4.00,-2.00,+1.00,+6.00,+3.00
+0.00,-6.00,+22.00,+2.00,-3.00,-1.00,-1.00,+6.00,+70.00,+30.00,+9.00,+0.00,+5.00,+1.00,+8.00,+14.00
-1.00,-7.00,+0.00,+1.00,-1.00,-4.00,-1.00,+9.00,-18.00,+8.00,+5.00,+3.00,+4.00,+2.00,-1.00,+8.00
-2.00,+7.00,-4.00,-2.00,-2.00,+0.00,+2.00,-10.00,+1.00,-11.00,-6.00,-3.00,-6.00,-3.00,-11.00,-7.00
+3.00,+9.00,+0.00,+1.00,+1.00,+2.00,-2.00,+1.00,+4.00,+3.00,+5.00,+2.00,-3.00,-2.00,-10.00,-1.00
-3.00,+3.00,-7.00,-4.00,-3.00,+0.00,+0.00,+5.00,-22.00,-20.00,-9.00,-4.00,+3.00,-1.00,+5.00,-7.00
-3.00,-13.00,-6.00,-5.00,-3.00,-8.00,-5.00,+2.00,+2.00,-3.00,-5.00,-1.00,-1.00,+0.00,+4.00,+3.00
-3.00,+12.00,+4.00,-1.00,-3.00,-5.00,+2.00,+6.00,+3.00,-4.00,+0.00,-3.00,+1.00,-5.00,-12.00,-11.00
+3.00,+0.00,+2.00,+0.00,+3.00,+19.00,+9.00,+5.00,-7.00,+0.00,+1.00,-2.00,-2.00,-1.00,+5.00,-8.00
+2.00,-12.00,-4.00,-1.00,+2.00,-5.00,-1.00,+0.00,-7.00,+3.00,+0.00,+1.00,+0.00,-15.00,-4.00,+4.00
-4.00,+4.00,+4.00,-3.00,+0.00,+1.00,-3.00,-8.00,+6.00,+3.00,+1.00,-1.00,-7.00,-1.00,+5.00,+1.00
-1.00,-7.00,-5.00,-1.00,+2.00,+6.00,-2.00,-8.00,-6.00,-5.00,+0.00,+6.00,+10.00,+11.00,-10.00,-6.00
-2.00,+2.00,+7.00,-2.00,+0.00,-12.00,+1.00,-12.00,+13.00,-9.00,-2.00,+0.00,+3.00,-6.00,-4.00,+5.00
-2.00,+0.00,-4.00,-3.00,-2.00,+2.00,+2.00,+0.00,-15.00,-11.00,-3.00,-1.00,+1.00,+2.00,+9.00,-10.00
-1.00,+5.00,-7.00,-1.00,-2.00,-2.00,+0.00,-9.00,+3.00,+22.00,+13.00,-2.00,-2.00,-1.00,+26.00,+6.00
-1.00,-7.00,+4.00,-2.00,-1.00,+8.00,+3.00,-2.00,+2.00,-5.00,-14.00,-5.00,-12.00,-15.00,-10.00,+5.00
+3.00,+2.00,+4.00,+0.00,-7.00,-19.00,-8.00,-5.00,+15.00,+20.00,+13.00,+3.00,+10.00,+21.00,-4.00,+5.00
-1.00,+5.00,-8.00,-1.00,+2.00,-1.00,+1.00,-3.00,-9.00,-21.00,-10.00,-1.00,+3.00,+2.00,-1.00,-2.00
+1.00,-2.00,-4.00,+1.00,-1.00,+3.00,-5.00,+4.00,-15.00,-9.00,-8.00,+2.00,+2.00,+2.00,+1.00,-4.00
+1.00,-21.00,-5.00,-4.00,+4.00,+9.00,-2.00,-3.00,+19.00,-5.00,+2.00,-4.00,-4.00,-2.00,-3.00,+2.00
+1.00,+1.00,+8.00,-3.00,-2.00,+0.00,+1.00,+1.00,-3.00,+4.00,-2.00,-1.00,-6.00,-10.00,-9.00,-3.00
-3.00,-11.00,-4.00,+3.00,-5.00,-6.00,-2.00,-3.00,-8.00,-5.00,-3.00,-3.00,-4.00,+0.00,+3.00,-3.00
-2.00,-9.00,+1.00,+1.00,+3.00,+3.00,+4.00,+2.00,+4.00,-3.00,-1.00,+0.00,+2.00,+0.00,-3.00,-4.00
+2.00,-1.00,+1.00,+0.00,-2.00,-5.00,-2.00,+7.00,-2.00,+0.00,-1.00,-2.00,-5.00,-2.00,-3.00,-8.00
-5.00,+6.00,-4.00,-5.00,+0.00,+5.00,-2.00,+2.00,-14.00,-16.00,-5.00,-3.00,-7.00,-6.00,-1.00,-2.00
-6.00,-6.00,-3.00,-3.00,-1.00,-3.00,-2.00,-1.00,+52.00,+23.00,+4.00,+2.00,+3.00,+4.00,-5.00,+8.00
-3.00,+4.00,+2.00,+1.00,-1.00,-5.00,+0.00,+0.00,+18.00,-1.00,-4.00,+0.00,-2.00,+0.00,+10.00,+2.00
+4.00,+3.00,-3.00,-3.00,-1.00,+0.00,+0.00,-1.00,+0.00,+2.00,+2.00,-4.00,-1.00,-2.00,-4.00,+12.00
+0.00,-3.00,+2.00,-2.00,+0.00,+0.00,-2.00,+1.00,-8.00,+1.00,-3.00,-1.00,-3.00,-4.00,-11.00,-9.00
