-1.00,+6.00,+6.00,-3.00,+2.00,+4.00,+1.00,+0.00,+0.00,+3.00,+5.00,+3.00,+3.00,+1.00,+1.00,+3.00
-1.00,-3.00,-9.00,-2.00,+3.00,+1.00,-1.00,-1.00,-3.00,-5.00,-4.00,-5.00,+0.00,+1.00,-2.00,-4.00
-1.00,-1.00,+4.00,+2.00,-7.00,-1.00,-2.00,-2.00,+3.00,+2.00,-2.00,-4.00,-3.00,-3.00,+1.00,+3.00
+2.00,-12.00,-11.00,+1.00,-6.00,-8.00,-6.00,-8.00,-6.00,-3.00,-2.00,+0.00,-1.00,-1.00,-1.00,-4.00
+3.00,-2.00,-3.00,+4.00,-1.00,-2.00,-2.00,-2.00,-9.00,+1.00,+5.00,+0.00,-1.00,-2.00,-1.00,-6.00
-4.00,+2.00,+2.00,+5.00,+0.00,+2.00,+1.00,+1.00,+12.00,+1.00,-1.00,+2.00,-2.00,+1.00,-1.00,+4.00
+2.00,+2.00,+0.00,-5.00,+4.00,+2.00,+2.00,+1.00,-2.00,+3.00,-1.00,+2.00,+1.00,-2.00,+2.00,+8.00
-5.00,+3.00,-1.00,-7.00,+0.00,+2.00,+2.00,+1.00,-1.00,-1.00,-2.00,+1.00,+2.00,-1.00,-1.00,+1.00
+0.00,-4.00,-3.00,+1.00,-2.00,-4.00,-2.00,+1.00,-1.00,-7.00,+3.00,-5.00,-2.00,+0.00,+0.00,-1.00
+1.00,-1.00,+1.00,+1.00,+0.00,-2.00,-1.00,-3.00,-8.00,-4.00,-7.00,-2.00,+0.00,-3.00,-4.00,-7.00
-1.00,-2.00,+2.00,-4.00,+5.00,+0.00,+4.00,+2.00,-2.00,-2.00,-2.00,-6.00,-8.00,-2.00,-2.00,-3.00
-1.00,+4.00,+2.00,+4.00,-5.00,-2.00,-1.00,-1.00,-5.00,-2.00,-7.00,-3.00,+38.00,+0.00,-2.00,+0.00
-2.00,-8.00,-8.00,-7.00,-7.00,-3.00,-3.00,-5.00,+1.00,+3.00,+1.00,+3.00,-31.00,-2.00,-2.00,-3.00
-2.00,+1.00,+4.00,-6.00,+2.00,-1.00,+1.00,-1.00,-2.00,-2.00,+3.00,+3.00,-1.00,+1.00,+2.00,-6.00
+1.00,+1.00,-2.00,-3.00,-4.00,-1.00,-3.00,-1.00,+1.00,+0.00,+1.00,+1.00,-2.00,-2.00,-2.00,-6.00
-1.00,-1.00,-2.00,+2.00,+1.00,-8.00,-4.00,-2.00,-2.00,+1.00,-1.00,+0.00,-5.00,+0.00,+2.00,+7.00
-3.00,-4.00,-7.00,+6.00,-5.00,-14.00,-2.00,-3.00,+5.00,+2.00,-1.00,-4.00,+6.00,-2.00,+0.00,+6.00
-6.00,+1.00,-4.00,+2.00,-5.00,+8.00,-4.00,-4.00,+1.00,-12.00,+4.00,+1.00,+2.00,+2.00,-1.00,+1.00
-1.00,+1.00,+0.00,-2.00,-3.00,-5.00,+0.00,-3.00,+4.00,+3.00,-2.00,+1.00,-3.00,-1.00,-2.00,-4.00
-1.00,+1.00,+5.00,+1.00,+9.00,+19.00,+7.00,+5.00,-6.00,-5.00,-4.00,-6.00,-8.00,-2.00,-1.00,-4.00
+0.00,+3.00,+4.00,-1.00,+2.00,+2.00,+0.00,-1.00,+6.00,-7.00,-5.00,-6.00,+23.00,-4.00,-2.00,-3.00
-3.00,-5.00,+0.00,-2.00,+2.00,-1.00,+0.00,+3.00,-8.00,+10.00,-1.00,+4.00,-25.00,-3.00,+0.00,-7.00
+3.00,+1.00,-2.00,+8.00,-2.00,+0.00,-1.00,+3.00,+2.00,-6.00,+4.00,+0.00,+2.00,+0.00,-1.00,+6.00
-2.00,-1.00,-4.00,-5.00,-5.00,-6.00,-4.00,-5.00,+11.00,-4.00,+3.00,+3.00,-12.00,+0.00,+2.00,+7.00
+2.00,+0.00,+1.00,+2.00,+2.00,+3.00,+2.00,-1.00,+6.00,+8.00,-3.00,-1.00,+1.00,-2.00,-2.00,+1.00
+1.00,-5.00,+0.00,+4.00,-1.00,-1.00,+1.00,-1.00,-16.00,+0.00,-2.00,-4.00,+53.00,+1.00,-5.00,-5.00
-2.00,-5.00,-2.00,-2.00,-5.00,-4.00,-4.00,-5.00,-19.00,-11.00,-2.00,+4.00,-44.00,-5.00,-6.00,-11.00
-2.00,-3.00,+0.00,+3.00,-3.00,-12.00,-3.00,-2.00,+46.00,-1.00,+2.00,+0.00,+40.00,+0.00,+1.00,+3.00
+0.00,+6.00,+0.00,+9.00,+5.00,+17.00,-1.00,+0.00,+7.00,+15.00,-4.00,-3.00,-47.00,-1.00,+1.00,+9.00
-2.00,-13.00,+0.00,+5.00,-1.00,-1.00,+3.00,+4.00,-3.00,-1.00,+1.00,-2.00,+0.00,-5.00,-1.00,+1.00
-1.00,-2.00,-1.00,+2.00,+5.00,-1.00,+1.00,-2.00,-7.00,+0.00,-4.00,-3.00,+4.00,+0.00,-1.00,-3.00
+2.00,+1.00,-1.00,-1.00,-3.00,+4.00,-1.00,-3.00,-22.00,-12.00,-2.00,-4.00,-15.00,-4.00,-6.00,-11.00
-2.00,+4.00,+2.00,-12.00,-7.00,-8.00,-7.00,-4.00,+0.00,-6.00,-1.00,+3.00,+22.00,+3.00,+0.00,-1.00
+3.00,-2.00,+0.00,-2.00,+3.00,-1.00,-2.00,+3.00,-2.00,+4.00,-3.00,+0.00,-2.00,+2.00,-1.00,+6.00
-5.00,-20.00,-12.00,-4.00,-6.00,+2.00,-2.00,-5.00,-1.00,+1.00,+1.00,-3.00,+6.00,-3.00,-2.00,-3.00
-1.00,+4.00,+2.00,+10.00,+6.00,-13.00,+5.00,+2.00,-19.00,-1.00,-2.00,-2.00,-9.00,+1.00,-2.00,+0.00
-1.00,-1.00,+5.00,-1.00,+2.00,+16.00,+5.00,-2.00,-10.00,-3.00,-1.00,-1.00,+10.00,-2.00,-1.00,-6.00
+1.00,+10.00,+0.00,-17.00,-8.00,-11.00,-6.00,-4.00,-1.00,+1.00,+1.00,-5.00,-11.00,-2.00,-2.00,+0.00
+1.00,-3.00,-1.00,-3.00,-2.00,+2.00,-3.00,-3.00,+14.00,+5.00,+1.00,+5.00,+7.00,+1.00,+2.00,+7.00
-4.00,+0.00,+3.00,-4.00,+2.00,-3.00,+1.00,+2.00,-17.00,-1.00,+9.00,+5.00,-24.00,-1.00,+0.00,+1.00
-3.00,-7.00,-4.00,-4.00,-2.00,-8.00,-1.00,-2.00,-2.00,-4.00,-14.00,-2.00,+1.00,-1.00,-2.00,-9.00
-4.00,-5.00,-4.00,-21.00,-3.00,-3.00,-4.00,-5.00,+6.00,-2.00,-3.00,-1.00,-9.00,-2.00,-1.00,-1.00
-2.00,+3.00,-3.00,+0.00,+1.00,-6.00,-3.00,-3.00,+48.00,-3.00,-1.00,-3.00,+9.00,+0.00,+0.00,+6.00
+1.00,+1.00,-1.00,-7.00,-4.00,+3.00,-1.00,+2.00,+0.00,+20.00,+8.00,+2.00,-3.00,+1.00,+2.00,+4.00
-5.00,+3.00,+0.00,-3.00,+4.00,+1.00,+2.00,+1.00,-6.00,-7.00,+6.00,+1.00,+6.00,+2.00,-2.00,+0.00
-2.00,-5.00,-2.00,-10.00,-5.00,-8.00,+2.00,-2.00,+8.00,+20.00,+4.00,-1.00,-34.00,-7.00,-2.00,-6.00
-2.00,+7.00,-1.00,-6.00,-4.00,+2.00,-2.00,-1.00,-62.00,-57.00,-17.00,-9.00,+10.00,-4.00,-8.00,-21.00
+2.00,-11.00,-5.00,+2.00,-4.00,+2.00,-3.00,-3.00,+27.00,+15.00,-11.00,-3.00,-21.00,-2.00,+2.00,+20.00
+1.00,-6.00,+0.00,-5.00,+3.00,+2.00,+2.00,-1.00,+19.00,+32.00,+8.00,-8.00,+11.00,+0.00,+0.00,-6.00
+0.00,-2.00,+2.00,-2.00,+1.00,+0.00,+1.00,+0.00,-2.00,-13.00,-3.00,+6.00,+18.00,+2.00,-6.00,-8.00
-7.00,+31.00,+11.00,-1.00,+5.00,+5.00,+6.00,+5.00,-39.00,+21.00,+5.00,-2.00,+0.00,+1.00,-3.00,-3.00
-3.00,-17.00,-12.00,-16.00,-8.00,-26.00,-9.00,-3.00,-13.00,-29.00,-2.00,-1.00,-5.00,-4.00,-5.00,-11.00
-1.00,-2.00,-3.00,+16.00,-7.00,-4.00,-6.00,-5.00,+1.00,+2.00,+8.00,+5.00,+22.00,+0.00,+5.00,+18.00
-1.00,-11.00,-9.00,-11.00,-9.00,+0.00,-9.00,-6.00,+4.00,+8.00,-7.00,-6.00,+9.00,+0.00,+0.00,+3.00
+1.00,-21.00,+6.00,+31.00,+7.00,+0.00,+11.00,+4.00,+8.00,-14.00,-3.00,+1.00,-7.00,-3.00,+1.00,-2.00
-3.00,+11.00,+0.00,-3.00,+1.00,+9.00,+3.00,-1.00,-14.00,-3.00,-1.00,+7.00,+13.00,-2.00,+0.00,-5.00
+3.00,+18.00,+0.00,-4.00,-2.00,-14.00,-4.00,-4.00,-15.00,-12.00,-4.00,-3.00,-39.00,-3.00,-5.00,-12.00
-3.00,-18.00,+7.00,-7.00,+5.00,-7.00,+2.00,+0.00,+8.00,-4.00,+6.00,+4.00,-32.00,-4.00,+2.00,+12.00
-1.00,-33.00,-7.00,-13.00,-4.00,+7.00,-7.00,+0.00,+11.00,+11.00,-5.00,-4.00,+25.00,+1.00,+1.00,+2.00
-5.00,-7.00,-6.00,-1.00,+3.00,+1.00,+2.00,-3.00,-1.00,-2.00,-6.00,-7.00,+8.00,-3.00,-3.00,-9.00
+1.00,-11.00,-4.00,-6.00,+0.00,-5.00,+1.00,+2.00,+10.00,+5.00,+1.00,+2.00,+3.00,+6.00,+0.00,-1.00
-2.00,+12.00,+4.00,+6.00,+4.00,-1.00,+0.00,+0.00,-31.00,-20.00,-3.00,-2.00,+0.00,-4.00,-5.00,-21.00
+4.00,+7.00,+3.00,+1.00,-4.00,+6.00,+2.00,+0.00,+29.00,+10.00,+6.00,+2.00,-6.00,+3.00,+1.00,+15.00
+0.00,-1.00,+2.00,+4.00,-1.00,+1.00,-4.00,+5.00,+11.00,+21.00,+6.00,+8.00,-14.00,+0.00,+6.00,+14.00
-3.00,+5.00,-5.00,-2.00,-5.00,+2.00,-1.00,-7.00,-10.00,-36.00,-14.00,-11.00,+17.00,-3.00,-5.00,-10.00
-2.00,+3.00,-1.00,+7.00,-4.00,+0.00,+0.00,-7.00,-44.00,+14.00,-7.00,-5.00,-22.00,-1.00,-1.00,+2.00
-2.00,+3.00,-7.00,+6.00,-4.00,-11.00,-6.00,-5.00,+86.00,+30.00,+12.00,+5.00,+6.00,+1.00,+7.00,+12.00
+5.00,+4.00,+4.00,+18.00,+5.00,+7.00,+0.00,+3.00,-1.00,-7.00,+1.00,-2.00,-8.00,+0.00,-4.00,-11.00
-2.00,+1.00,+8.00,+0.00,+7.00,+22.00,+4.00,+6.00,+15.00,-13.00,+0.00,+2.00,+31.00,-1.00,-2.00,+2.00
+2.00,+2.00,-1.00,-12.00,-1.00,-17.00,+1.00,+1.00,-85.00,-50.00,-13.00,-8.00,+8.00,-6.00,-12.00,-31.00
+1.00,+1.00,-8.00,+7.00,-3.00,+10.00,-3.00,-3.00,-29.00,-4.00,+0.00,-4.00,-30.00,+13.00,+3.00,-3.00
+2.00,-8.00,-4.00,+2.00,-17.00,-35.00,-9.00,-8.00,+89.00,+54.00,+10.00,+1.00,+27.00,+7.00,+12.00,+48.00
+0.00,-11.00,+1.00,+7.00,+6.00,+1.00,+2.00,+4.00,-13.00,+8.00,+5.00,+10.00,-31.00,-5.00,-4.00,-10.00
-8.00,+20.00,+1.00,+2.00,+5.00,+28.00,+7.00,+2.00,-3.00,+12.00,+6.00,+1.00,+22.00,+0.00,+1.00,+2.00
+0.00,+10.00,+1.00,-4.00,-2.00,-6.00,-2.00,-5.00,-65.00,-33.00,-12.00,-5.00,-1.00,-4.00,+2.00,-3.00
+1.00,-13.00,-4.00,-2.00,-2.00,-1.00,-5.00,-1.00,-39.00,-6.00,-9.00,-10.00,-9.00,-3.00,-9.00,-20.00
+0.00,+78.00,+8.00,-5.00,-4.00,-12.00,-2.00,+2.00,-14.00,-6.00,-9.00,+0.00,-2.00,-2.00,+0.00,-4.00
+2.00,-96.00,-5.00,+19.00,+4.00,-2.00,+3.00,+0.00,+23.00,+0.00,+1.00,+3.00,-15.00,-3.00,-6.00,-13.00
+0.00,-17.00,-5.00,-6.00,-1.00,-2.00,+2.00,-4.00,-34.00,-11.00,+2.00,+4.00,+28.00,-4.00,-2.00,+0.00
-2.00,-12.00,-5.00,+0.00,+2.00,+12.00,+1.00,+1.00,-19.00,+7.00,+2.00,+2.00,-19.00,+2.00,+3.00,-12.00
+7.00,-4.00,+16.00,-3.00,+0.00,+3.00,+3.00,+3.00,-2.00,+12.00,+1.00,-3.00,-5.00,-4.00,-2.00,+0.00
+0.00,+24.00,+2.00,+2.00,-8.00,+0.00,-5.00,-7.00,-1.00,-6.00,+3.00,+0.00,+2.00,+3.00,+5.00,+5.00
+1.00,+16.00,-11.00,+0.00,-2.00,-33.00,-6.00,-6.00,+2.00,+8.00,-1.00,-3.00,-3.00,-6.00,-7.00,-5.00
-2.00,-7.00,-1.00,+6.00,+0.00,+27.00,+1.00,-6.00,-1.00,-1.00,+0.00,-2.00,+6.00,-3.00,-6.00,-9.00
-4.00,-18.00,-12.00,-7.00,-3.00,-20.00,-5.00,-8.00,-33.00,-25.00,-3.00,-4.00,-9.00,-4.00,-5.00,-23.00
-1.00,+22.00,+2.00,-18.00,+0.00,+7.00,+0.00,+0.00,+35.00,+13.00,+3.00,+2.00,+3.00,+5.00,+9.00,+34.00
+0.00,-16.00,+7.00,+3.00,+10.00,+11.00,+2.00,+4.00,+4.00,-17.00,-1.00,-3.00,+10.00,+2.00,+2.00,+12.00
+0.00,+16.00,+1.00,-4.00,+1.00,-2.00,+1.00,-1.00,+10.00,+19.00,-4.00,+2.00,-18.00,-4.00,-6.00,-12.00
-4.00,+14.00,+1.00,+7.00,-1.00,-2.00,-1.00,-3.00,+33.00,+29.00,+10.00,+0.00,-10.00,-13.00,-1.00,-26.00
+2.00,+2.00,+0.00,-5.00,-2.00,+2.00,-1.00,-1.00,+94.00,+16.00,-2.00,-4.00,-24.00,+17.00,+8.00,+18.00
+3.00,-2.00,-5.00,-5.00,-4.00,-12.00,-1.00,+1.00,-4.00,+8.00,-10.00,-2.00,+32.00,+11.00,-1.00,-5.00
-4.00,+24.00,+7.00,-11.00,-1.00,+5.00,-5.00,+4.00,-9.00,-40.00,+2.00,+1.00,-25.00,-2.00,-5.00,-12.00
+3.00,-47.00,-11.00,-6.00,-2.00,+13.00,+2.00,-5.00,-15.00,-22.00,-22.00,-8.00,+7.00,-5.00,-1.00,+18.00
+0.00,+42.00,-1.00,+1.00,-2.00,-13.00,-4.00,+1.00,+25.00,+8.00,-2.00,+1.00,+13.00,-7.00,-5.00,-4.00
+2.00,-14.00,+9.00,-8.00,+3.00,+6.00,+2.00,+3.00,-23.00,-13.00,+1.00,+1.00,-16.00,-6.00,-8.00,-25.00
-2.00,+53.00,-5.00,-6.00,-12.00,-25.00,-4.00,+2.00,+20.00,-17.00,+9.00,+8.00,+37.00,+6.00,+14.00,+52.00
+1.00,-44.00,-13.00,+19.00,+1.00,+14.00,+1.00,-10.00,+12.00,+10.00,-1.00,+1.00,+13.00,+11.00,-3.00,+13.00
-4.00,+12.00,-7.00,-13.00,-4.00,-16.00,-4.00,-7.00,-4.00,-2.00,-13.00,-4.00,+18.00,+0.00,+4.00,+12.00
-1.00,-1.00,+5.00,-5.00,+7.00,+25.00,+0.00,+4.00,+11.00,+11.00,-3.00,-3.00,-29.00,-6.00,-3.00,-4.00
-4.00,-22.00,+7.00,-10.00,+2.00,+5.00,+2.00,-2.00,-38.00,-12.00,+4.00,-3.00,+1.00,-8.00,-5.00,-19.00
+2.00,+12.00,+1.00,+3.00,+3.00,-3.00,+0.00,-1.00,-7.00,-3.00,+10.00,+8.00,-8.00,+1.00,+3.00,+15.00
-5.00,-5.00,-5.00,-12.00,-4.00,-25.00,-8.00,+0.00,+0.00,-14.00,-3.00,-6.00,-13.00,-2.00,-1.00,-7.00
+0.00,+3.00,+0.00,-1.00,+7.00,+29.00,+3.00,-1.00,+3.00,-44.00,-12.00,-6.00,+11.00,-9.00,-9.00,-24.00
-2.00,-17.00,-8.00,+3.00,-5.00,-14.00,+2.00,-3.00,+74.00,+64.00,-7.00,-9.00,-4.00,-1.00,-4.00,+3.00
-4.00,-4.00,-7.00,-12.00,-9.00,-15.00,-10.00,-4.00,+22.00,+15.00,+7.00,+5.00,+42.00,+6.00,+8.00,+34.00
+2.00,-18.00,+1.00,+6.00,+1.00,+21.00,+0.00,+0.00,-23.00,-17.00,+5.00,-3.00,-60.00,-3.00,-1.00,-2.00
-5.00,+51.00,+13.00,-10.00,+5.00,+1.00,+6.00,+5.00,+19.00,+22.00,+14.00,+14.00,+7.00,+4.00,+3.00,+3.00
-2.00,-2.00,-6.00,-5.00,-3.00,+4.00,+1.00,+0.00,-65.00,-36.00,-8.00,-1.00,-10.00,-4.00,-6.00,-14.00
-5.00,-15.00,-7.00,+1.00,-9.00,-19.00,-10.00,-9.00,-5.00,-3.00,-1.00,-5.00,+2.00,-2.00,-7.00,-22.00
-1.00,+11.00,-5.00,-6.00,-8.00,-3.00,-3.00,-5.00,+30.00,+10.00,-9.00,-1.00,+27.00,+2.00,+1.00,+7.00
+0.00,-20.00,-6.00,+6.00,-5.00,-16.00,-5.00,-3.00,-5.00,+6.00,+1.00,-1.00,-12.00,-4.00,+1.00,+6.00
+2.00,-40.00,+10.00,+4.00,+6.00,+12.00,+9.00,-1.00,-28.00,-21.00,-1.00,+1.00,+27.00,+3.00,-9.00,-15.00
-2.00,+13.00,+8.00,-12.00,+10.00,+10.00,+6.00,+10.00,+26.00,+2.00,+15.00,+1.00,-28.00,-4.00,+4.00,+14.00
-4.00,+36.00,+4.00,-11.00,+1.00,+3.00,-1.00,+2.00,-20.00,-11.00,-13.00,-8.00,+3.00,-6.00,-4.00,-14.00
+1.00,-26.00,-14.00,+0.00,-7.00,-8.00,-4.00,-1.00,+14.00,+3.00,-12.00,-14.00,+8.00,-3.00,-2.00,-4.00
-2.00,-12.00,+1.00,-3.00,+0.00,-2.00,-2.00,-2.00,+5.00,-13.00,-8.00,-1.00,-2.00,+3.00,+5.00,-15.00
-2.00,-24.00,+3.00,-4.00,-5.00,+4.00,+1.00,+1.00,-73.00,+2.00,+6.00,+4.00,-1.00,-3.00,-6.00,-29.00
+1.00,+6.00,+3.00,-12.00,+2.00,-1.00,+2.00,+1.00,+49.00,+28.00,+22.00,+14.00,+13.00,+7.00,+10.00,+35.00
-3.00,+9.00,+13.00,-19.00,-1.00,-32.00,+0.00,+3.00,+6.00,+21.00,+3.00,-1.00,-1.00,+0.00,-1.00,+4.00
-5.00,-14.00,-15.00,+1.00,+2.00,+46.00,-2.00,-9.00,+1.00,-4.00,+1.00,+0.00,+2.00,-3.00,-3.00,+3.00
-2.00,-20.00,-25.00,-3.00,-19.00,-28.00,-16.00,-13.00,-32.00,-26.00,-11.00,-9.00,-4.00,+5.00,+2.00,+7.00
+1.00,-12.00,-1.00,-4.00,+0.00,-6.00,-1.00,-3.00,-27.00,-3.00,-1.00,-4.00,-13.00,-11.00,-5.00,-5.00
-2.00,+12.00,+2.00,+1.00,+0.00,-2.00,+2.00,+5.00,-45.00,+0.00,+11.00,+11.00,+16.00,+2.00,+0.00,-3.00
+0.00,+6.00,+13.00,-8.00,+8.00,+9.00,+5.00,+10.00,+53.00,+28.00,+2.00,-5.00,-5.00,-2.00,+1.00,+1.00
-2.00,+22.00,+9.00,-8.00,+9.00,+9.00,+6.00,-4.00,+28.00,-11.00,-9.00,-1.00,-20.00,-2.00,-3.00,-5.00
+0.00,-41.00,-14.00,-11.00,-8.00,-20.00,-6.00,-2.00,-94.00,-39.00,-4.00,-8.00,-4.00,-3.00,-12.00,-61.00
-1.00,+48.00,-1.00,+9.00,-7.00,+3.00,+2.00,+1.00,+66.00,-18.00,-8.00,+3.00,+36.00,+3.00,+7.00,+30.00
+0.00,+0.00,-5.00,-8.00,+0.00,-16.00,-6.00,-4.00,-41.00,+11.00,-5.00,-5.00,+21.00,-21.00,-13.00,-51.00
+3.00,+1.00,+8.00,-3.00,+9.00,+12.00,+3.00,+10.00,+16.00,+7.00,+7.00,-10.00,-70.00,+18.00,+21.00,+59.00
-4.00,+21.00,+1.00,-6.00,-1.00,-1.00,+2.00,+2.00,+9.00,+10.00,+2.00,+12.00,+73.00,+7.00,-4.00,+6.00
+1.00,-16.00,-7.00,-5.00,-12.00,-11.00,-8.00,-9.00,-29.00,+1.00,+6.00,+7.00,-50.00,-3.00,+3.00,+13.00
+1.00,+10.00,-8.00,+3.00,+1.00,+4.00,-4.00,-2.00,-9.00,-5.00,+1.00,+2.00,-1.00,+0.00,-7.00,-12.00
-1.00,+7.00,+1.00,-6.00,-6.00,-3.00,+0.00,+5.00,-2.00,-9.00,-8.00,-2.00,+22.00,-10.00,-2.00,+12.00
+1.00,-21.00,+3.00,-2.00,-8.00,+0.00,-1.00,-7.00,+36.00,+2.00,+10.00,+5.00,+1.00,+1.00,+3.00,+17.00
+0.00,+4.00,-4.00,+14.00,-1.00,+27.00,+3.00,+1.00,-4.00,+11.00,+2.00,-10.00,-12.00,-1.00,-5.00,-1.00
-1.00,-20.00,+1.00,-5.00,+7.00,-6.00,-5.00,-4.00,-6.00,-28.00,-23.00,-11.00,+2.00,-4.00,+1.00,+9.00
-2.00,-28.00,-5.00,-9.00,-3.00,-13.00,-7.00,-2.00,-9.00,+15.00,-7.00,+1.00,-7.00,-9.00,-7.00,-25.00
-2.00,+42.00,+7.00,+13.00,+13.00,+64.00,+12.00,+15.00,+26.00,-6.00,+0.00,-9.00,-6.00,-2.00,-2.00,+5.00
-2.00,-37.00,-6.00,+3.00,-8.00,-16.00,-7.00,-16.00,+4.00,+2.00,+3.00,+10.00,-5.00,-5.00,+1.00,-2.00
-1.00,+64.00,+11.00,+12.00,-4.00,-20.00,-3.00,+3.00,-42.00,-14.00,-3.00,-3.00,-16.00,+0.00,-2.00,+0.00
+2.00,-14.00,+0.00,+4.00,+10.00,+24.00,+11.00,+2.00,+33.00,+26.00,+0.00,-1.00,+8.00,+3.00,-1.00,+2.00
+3.00,-18.00,-10.00,+23.00,-10.00,-25.00,-7.00,-5.00,-57.00,-16.00,+3.00,+4.00,+5.00,+2.00,+4.00,+0.00
+2.00,-11.00,-9.00,+7.00,-5.00,-11.00,-8.00,-7.00,+31.00,+18.00,-2.00,-8.00,+59.00,-3.00,-6.00,-4.00
+5.00,-17.00,-4.00,+18.00,-3.00,+3.00,+0.00,+1.00,-22.00,-25.00,-3.00,-10.00,-106.00,-6.00,-1.00,-10.00
-4.00,+27.00,+9.00,+9.00,+5.00,-15.00,+3.00,-1.00,-25.00,-20.00,+0.00,+11.00,-5.00,+0.00,+2.00,-1.00
+1.00,-3.00,+7.00,+15.00,+7.00,+9.00,+2.00,+0.00,+64.00,+22.00,-3.00,+0.00,+1.00,-7.00,-5.00,-3.00
+1.00,-15.00,-7.00,+2.00,-6.00,-1.00,-2.00,+0.00,-67.00,-1.00,+0.00,+1.00,+5.00,+4.00,-1.00,-17.00
+4.00,-41.00,+0.00,+13.00,+5.00,+2.00,+6.00,+4.00,+44.00,+10.00,-4.00,+1.00,+65.00,+15.00,+4.00,+13.00
-2.00,+53.00,+1.00,+9.00,-10.00,+1.00,-1.00,-2.00,-24.00,-9.00,-2.00,-6.00,-18.00,-8.00,-8.00,-17.00
-5.00,+7.00,-4.00,-10.00,-9.00,-38.00,-8.00,-12.00,-72.00,-24.00,+5.00,+4.00,-11.00,+2.00,-2.00,-8.00
+2.00,+16.00,+8.00,+27.00,+23.00,+37.00,+8.00,+9.00,+19.00,+11.00,+3.00,+0.00,-30.00,-1.00,-1.00,+6.00
-1.00,-7.00,-6.00,-9.00,-6.00,-30.00,-4.00,-1.00,+13.00,-5.00,+1.00,+3.00,+9.00,+2.00,-2.00,-6.00
-3.00,-14.00,-8.00,+6.00,+3.00,-5.00,+1.00,-7.00,+36.00,+8.00,-5.00,-6.00,+2.00,-1.00,+1.00,+6.00
-4.00,-28.00,-9.00,-4.00,-12.00,-10.00,-6.00,-9.00,-33.00,-20.00,-13.00,-3.00,+29.00,-1.00,-2.00,-8.00
+9.00,-14.00,-1.00,+15.00,+6.00,+45.00,+3.00,+7.00,-20.00,-26.00,-11.00,-9.00,-14.00,+8.00,+0.00,-2.00
-6.00,+35.00,+6.00,+0.00,+3.00,+14.00,+9.00,+1.00,-60.00,+26.00,+1.00,-2.00,+1.00,-5.00,+1.00,+8.00
+2.00,+2.00,+5.00,-10.00,+0.00,-7.00,-1.00,+1.00,+63.00,+16.00,+11.00,+17.00,-7.00,-2.00,+0.00,+3.00
-4.00,+8.00,-7.00,+2.00,+5.00,+3.00,-1.00,+3.00,+8.00,-13.00,+1.00,-17.00,-44.00,-18.00,-5.00,-1.00
-6.00,-25.00,+0.00,-20.00,-7.00,-30.00,-4.00,-3.00,-31.00,-44.00,-2.00,+16.00,+62.00,+5.00,-2.00,-16.00
-4.00,-29.00,-12.00,+9.00,-6.00,-8.00,-2.00,-5.00,-11.00,-30.00,-11.00,-13.00,-54.00,-19.00,-16.00,-26.00
-6.00,+22.00,-3.00,-13.00,-11.00,+7.00,-7.00,+3.00,+0.00,+66.00,+18.00,+16.00,+76.00,+35.00,+31.00,+65.00
+7.00,-18.00,+1.00,+11.00,+2.00,-20.00,-1.00,-7.00,+50.00,+14.00,+9.00,+6.00,-42.00,-5.00,+1.00,+11.00
-1.00,-4.00,+0.00,-3.00,+4.00,+26.00,-1.00,-2.00,+5.00,+2.00,-8.00,-8.00,-31.00,-12.00,-2.00,-4.00
+4.00,+25.00,+4.00,+5.00,+7.00,+7.00,+3.00,+5.00,-20.00,-42.00,-4.00,+6.00,+2.00,-4.00,+1.00,+2.00
-1.00,-40.00,+1.00,+6.00,+8.00,+33.00,+6.00,+5.00,-86.00,-12.00,-12.00,-19.00,-13.00,-17.00,-22.00,-60.00
+0.00,+56.00,+8.00,+7.00,-6.00,-22.00,-5.00,+10.00,-27.00,+36.00,+7.00,+6.00,+9.00,+2.00,+1.00,-9.00
-6.00,+8.00,-2.00,-12.00,+5.00,+4.00,+4.00,-2.00,+14.00,-37.00,+3.00,-3.00,-3.00,+1.00,+6.00,+27.00
+2.00,-25.00,+3.00,-6.00,-3.00,+2.00,+1.00,-7.00,+49.00,+42.00,+5.00,+8.00,+39.00,+7.00,+6.00,+21.00
-4.00,-12.00,-10.00,+0.00,-11.00,-30.00,-7.00,-6.00,-63.00,-64.00,-15.00,-14.00,-4.00,-2.00,-6.00,-25.00
+4.00,-25.00,-2.00,+16.00,+3.00,-6.00,+1.00,-7.00,+27.00,+10.00,-2.00,+4.00,-68.00,+0.00,+6.00,+17.00
+0.00,+20.00,-6.00,-17.00,-9.00,+31.00,-4.00,+7.00,-11.00,+55.00,+2.00,-5.00,-19.00,-7.00,-5.00,-12.00
+4.00,-95.00,-5.00,+9.00,-1.00,-12.00,-2.00,-10.00,-28.00,-24.00,+2.00,-2.00,-1.00,-2.00,+1.00,-3.00
-3.00,+63.00,+5.00,-1.00,+3.00,+4.00,+1.00,+0.00,-18.00,-37.00,-9.00,+5.00,+9.00,+8.00,-9.00,-11.00
-2.00,+6.00,+4.00,-5.00,-3.00,+4.00,+3.00,+5.00,-2.00,+17.00,-6.00,-1.00,+66.00,+4.00,-8.00,-25.00
-5.00,+12.00,+5.00,-2.00,-3.00,-27.00,+0.00,-2.00,+10.00,+43.00,+1.00,-5.00,-59.00,+4.00,+19.00,+50.00
-5.00,+1.00,-3.00,-12.00,-9.00,-46.00,-9.00,-4.00,-12.00,-2.00,+0.00,-3.00,+10.00,-14.00,+0.00,+20.00
+3.00,-67.00,-11.00,+8.00,+7.00,+53.00,+1.00,+3.00,-73.00,-26.00,-9.00,-7.00,-8.00,-11.00,-19.00,-77.00
+2.00,+55.00,+8.00,+13.00,+4.00,+13.00,+8.00,+1.00,-33.00,-1.00,+11.00,+1.00,+9.00,+8.00,+21.00,+59.00
-2.00,-13.00,-2.00,-4.00,+1.00,-10.00,-3.00,-3.00,+43.00,+21.00,+9.00,+7.00,+74.00,-2.00,-9.00,-17.00
-2.00,+38.00,+1.00,-4.00,-2.00,+7.00,-3.00,-1.00,+24.00,+33.00,+6.00,-12.00,-32.00,+4.00,+9.00,+25.00
-3.00,-2.00,-2.00,-10.00,-12.00,-30.00,-5.00,+1.00,+7.00,-20.00,-3.00,-3.00,-59.00,-21.00,-9.00,-16.00
+0.00,-38.00,-7.00,+9.00,-2.00,-26.00,-6.00,-14.00,+27.00,+3.00,-5.00,-18.00,+57.00,-1.00,-2.00,+7.00
+1.00,-20.00,-3.00,-8.00,-4.00,-21.00,+4.00,-4.00,-32.00,-9.00,-4.00,+23.00,-56.00,-9.00,-2.00,-11.00
-3.00,+38.00,-2.00,-3.00,+1.00,+51.00,-8.00,+14.00,+39.00,+6.00,+0.00,+6.00,+24.00,+4.00,+1.00,+6.00
-4.00,+11.00,+14.00,+1.00,+6.00,-10.00,-1.00,-4.00,-31.00,-69.00,-12.00,-13.00,-5.00,-5.00,-5.00,-6.00
-5.00,-5.00,-1.00,-23.00,+2.00,+25.00,+1.00,+5.00,+71.00,+52.00,+3.00,+3.00,+5.00,-9.00,-14.00,-18.00
+5.00,+8.00,+2.00,+20.00,-12.00,-35.00,-8.00,-6.00,+15.00,+13.00,+14.00,-2.00,+7.00,+20.00,+14.00,+46.00
-4.00,-4.00,-8.00,-10.00,+2.00,+23.00,-5.00,-2.00,+21.00,+5.00,-4.00,+4.00,+0.00,+3.00,-5.00,-81.00
-1.00,-13.00,-15.00,-14.00,-7.00,-18.00,+0.00,-5.00,-10.00,-6.00,+3.00,-2.00,-10.00,-2.00,+3.00,-18.00
-2.00,-28.00,-6.00,+12.00,+13.00,+58.00,+5.00,+3.00,-42.00,-13.00,-9.00,-8.00,-7.00,+9.00,-2.00,-47.00
-4.00,+35.00,+2.00,+2.00,-3.00,-22.00,-1.00,-2.00,-30.00,-22.00,-6.00,+1.00,-5.00,-10.00,-5.00,-16.00
+1.00,-23.00,-6.00,-24.00,-7.00,-17.00,-11.00,+2.00,-80.00,-37.00,-3.00,-13.00,+36.00,+3.00,+2.00,+39.00
+2.00,-2.00,+7.00,+13.00,+10.00,+3.00,+5.00,-2.00,+20.00,+83.00,-8.00,+8.00,+9.00,-20.00,-6.00,-7.00
-5.00,+2.00,-5.00,-19.00,-8.00,-28.00,+0.00,-6.00,+56.00,+53.00,+17.00,+8.00,+13.00,+33.00,+22.00,+82.00
-4.00,-13.00,-11.00,-1.00,-3.00,-10.00,-8.00,-7.00,-75.00,-32.00,-6.00,+8.00,-89.00,-11.00,-11.00,-39.00
-2.00,+35.00,+11.00,+0.00,-2.00,+11.00,+8.00,-1.00,-13.00,-29.00,+1.00,-2.00,+6.00,+4.00,+7.00,+32.00
+3.00,-62.00,-5.00,-14.00,+7.00,+30.00,+0.00,+11.00,+30.00,+16.00,+7.00,+2.00,+26.00,-17.00,-12.00,-10.00
+2.00,+56.00,+9.00,-7.00,+3.00,+21.00,+2.00,-5.00,-68.00,-37.00,-19.00,-1.00,+10.00,-3.00,-7.00,-16.00
-2.00,-26.00,-5.00,-20.00,-12.00,-52.00,-10.00,-10.00,+88.00,+16.00,+0.00,-13.00,+2.00,-3.00,-9.00,+8.00
-3.00,+77.00,+5.00,+19.00,+2.00,+45.00,+0.00,+7.00,-67.00,-2.00,+3.00,+4.00,+12.00,+9.00,-2.00,-15.00
+2.00,-19.00,-7.00,-7.00,-9.00,-24.00,-7.00,-7.00,+15.00,+11.00,+9.00,-3.00,-1.00,+2.00,+5.00,+35.00
-1.00,+2.00,+7.00,+8.00,+16.00,+89.00,+15.00,+9.00,-47.00,-22.00,-1.00,+13.00,-26.00,-9.00,-6.00,-17.00
-3.00,+35.00,+2.00,-17.00,+9.00,+28.00,+2.00,+2.00,+9.00,-26.00,-17.00,-23.00,+47.00,+18.00,+2.00,+2.00
-3.00,+29.00,+1.00,-13.00,-13.00,-70.00,-24.00,-10.00,+31.00,+9.00,-7.00,+2.00,-4.00,-5.00,-16.00,-36.00
+0.00,-61.00,-9.00,-6.00,-3.00,-12.00,+19.00,+3.00,+45.00,-1.00,+0.00,+1.00,+84.00,+18.00,+4.00,+27.00
-5.00,+20.00,+7.00,-7.00,+9.00,+7.00,+14.00,+3.00,-13.00,-31.00,-11.00,-16.00,-34.00,-23.00,-13.00,-37.00
+1.00,-5.00,+7.00,+11.00,+1.00,-17.00,-5.00,-18.00,+13.00,+12.00,+4.00,+6.00,-40.00,-18.00,+1.00,-2.00
+7.00,-6.00,+5.00,-2.00,+6.00,+4.00,+16.00,-3.00,+40.00,+4.00,+4.00,+9.00,+9.00,+15.00,-4.00,+17.00
-2.00,+37.00,-3.00,-15.00,-2.00,+11.00,-6.00,-7.00,+28.00,+42.00,+6.00,+7.00,-24.00,+7.00,+10.00,+27.00
+5.00,-45.00,-17.00,-12.00,-17.00,-31.00,-20.00,-5.00,-71.00,-42.00,-15.00,-2.00,+62.00,-7.00,-9.00,-26.00
-2.00,-6.00,-5.00,+15.00,-13.00,-9.00,+4.00,-5.00,-7.00,-10.00,-8.00,-25.00,-61.00,-19.00,-24.00,-62.00
+1.00,-26.00,-5.00,+9.00,+0.00,-42.00,-3.00,-6.00,-109.00,+25.00,+4.00,+2.00,-17.00,-20.00,+9.00,+16.00
-2.00,+10.00,+12.00,+2.00,+4.00,+46.00,+0.00,-1.00,+82.00,-1.00,+8.00,+14.00,+36.00,+35.00,+23.00,+69.00
+1.00,+23.00,-1.00,-1.00,+6.00,+12.00,+2.00,+7.00,+58.00,-4.00,-3.00,-7.00,-29.00,-7.00,-4.00,+6.00
+4.00,+28.00,+12.00,+16.00,+19.00,+32.00,+15.00,+7.00,-30.00,+18.00,-4.00,-2.00,+0.00,+5.00,+0.00,-9.00
-3.00,-49.00,-8.00,+3.00,-2.00,-3.00,+3.00,-2.00,-48.00,-73.00,+2.00,-1.00,-31.00,-12.00,-3.00,-19.00
+2.00,+33.00,+3.00,+1.00,-7.00,-42.00,-6.00,-1.00,+47.00,+84.00,+4.00,-9.00,+21.00,+0.00,+5.00,-2.00
-8.00,+25.00,-3.00,-7.00,-10.00,-40.00,-7.00,-12.00,-71.00,-55.00,-13.00,+1.00,-24.00,-10.00,-10.00,-35.00
+2.00,+4.00,-4.00,+26.00,+3.00,+36.00,-6.00,+16.00,+8.00,+6.00,+13.00,+10.00,+46.00,+5.00,+18.00,+41.00
+0.00,-43.00,+1.00,+10.00,+5.00,+20.00,+8.00,-15.00,+65.00,+30.00,-5.00,-4.00,-30.00,+10.00,+8.00,-96.00
-1.00,-72.00,-8.00,+18.00,+3.00,-13.00,+5.00,-14.00,+26.00,-39.00,-2.00,-7.00,-14.00,-3.00,+7.00,-20.00
+5.00,+48.00,+9.00,+18.00,+2.00,-6.00,-7.00,+11.00,-26.00,-3.00,-7.00,-6.00,+15.00,-5.00,-4.00,-7.00
-6.00,+48.00,+4.00,-10.00,-5.00,-7.00,+0.00,-3.00,+9.00,+17.00,-3.00,-7.00,+23.00,-10.00,-12.00,+11.00
+2.00,-46.00,-8.00,+10.00,-6.00,-7.00,+1.00,-1.00,+25.00,-4.00,+5.00,+14.00,-16.00,-3.00,-6.00,+46.00
+5.00,+70.00,-6.00,+4.00,-9.00,-1.00,-15.00,+3.00,-78.00,-31.00,-6.00,+2.00,-69.00,+4.00,-9.00,-11.00
+1.00,-24.00,+1.00,+6.00,+2.00,-11.00,+4.00,+3.00,+82.00,+36.00,+2.00,-11.00,-3.00,-6.00,+4.00,+59.00
-2.00,-31.00,-3.00,-21.00,-6.00,-29.00,-3.00,+2.00,+83.00,+25.00,+14.00,+17.00,+20.00,+18.00,+14.00,+75.00
+0.00,+50.00,+4.00,+16.00,+6.00,+84.00,-6.00,+6.00,-21.00,-2.00,+3.00,-9.00,+31.00,-19.00,-29.00,-11.00
-1.00,-6.00,-6.00,+8.00,-5.00,-52.00,+14.00,-11.00,-35.00,-15.00,+4.00,+12.00,+8.00,-5.00,+8.00,+16.00
-6.00,-51.00,-10.00,-23.00,-15.00,-23.00,-12.00,-2.00,+25.00,-22.00,-1.00,+4.00,-23.00,+36.00,+8.00,+20.00
-3.00,+4.00,+3.00,+14.00,+20.00,+92.00,+15.00,-5.00,-65.00,-9.00,-17.00,-20.00,-12.00,-14.00,-14.00,-63.00
-2.00,+13.00,-3.00,-13.00,+1.00,+11.00,-6.00,+10.00,+13.00,+21.00,+8.00,-4.00,+25.00,+0.00,-4.00,+20.00
+0.00,-61.00,-6.00,-7.00,+4.00,-9.00,-6.00,-1.00,-9.00,-19.00,-31.00,-21.00,-39.00,-12.00,-35.00,-64.00
+2.00,+24.00,+13.00,+8.00,+5.00,+7.00,+12.00,+0.00,+19.00,+25.00,+7.00,+10.00,+33.00,-23.00,-11.00,+27.00
-5.00,-33.00,-6.00,-9.00,-2.00,-15.00,-4.00,-11.00,-81.00,-32.00,+14.00,+11.00,+68.00,+25.00,+34.00,+15.00
+4.00,-13.00,+2.00,+1.00,-3.00,-28.00,+8.00,+5.00,-44.00,+0.00,+5.00,+9.00,-33.00,+19.00,+18.00,+34.00
-6.00,+17.00,-2.00,-3.00,+4.00,+18.00,-1.00,+9.00,-18.00,-8.00,+4.00,-13.00,+14.00,-17.00,-17.00,-30.00
+5.00,-66.00,-26.00,+1.00,-10.00,-13.00,-9.00,-6.00,-86.00,-13.00,-10.00,+2.00,+1.00,+7.00,-17.00,-72.00
+6.00,+60.00,-9.00,-14.00,-22.00,-15.00,-15.00,-1.00,+9.00,+9.00,+0.00,+4.00,+49.00,+16.00,+23.00,+17.00
+7.00,-78.00,-4.00,+59.00,+8.00,-25.00,-8.00,+3.00,+28.00,+25.00,+2.00,+4.00,-45.00,-9.00,-9.00,-25.00
-5.00,+99.00,+10.00,-13.00,+17.00,+68.00,+17.00,+11.00,-6.00,-31.00,-4.00,-6.00,-22.00,-23.00,+11.00,+37.00
-8.00,-29.00,+12.00,-14.00,+7.00,+12.00,+22.00,-6.00,+22.00,+33.00,-6.00,-7.00,-17.00,-2.00,-16.00,-51.00
+3.00,-18.00,-3.00,+1.00,+7.00,-9.00,+10.00,+2.00,-23.00,-6.00,-2.00,-5.00,+40.00,-8.00,-6.00,-25.00
-6.00,+16.00,+3.00,-28.00,-14.00,-51.00,-15.00,-11.00,+79.00,-11.00,-4.00,+2.00,+6.00,+7.00,+17.00,+43.00
-4.00,+1.00,-4.00,-17.00,-19.00,-25.00,-24.00,-6.00,+86.00,+20.00,-8.00,-30.00,-60.00,-30.00,-18.00,-35.00
+4.00,-34.00,-5.00,+23.00,+8.00,-18.00,-2.00,-1.00,+6.00,+36.00,+37.00,+40.00,+50.00,+36.00,+26.00,+55.00
-4.00,-1.00,-2.00,-2.00,+4.00,+35.00,+1.00,+10.00,-25.00,-28.00,-20.00,-23.00,-43.00,-7.00,-10.00,-9.00
-3.00,-22.00,-1.00,-17.00,-4.00,-32.00,+5.00,-1.00,+20.00,+21.00,-7.00,-8.00,-1.00,-20.00,-21.00,-56.00
-1.00,-60.00,+0.00,+9.00,+5.00,-35.00,-4.00,-5.00,-128.00,-69.00,-12.00,-12.00,+2.00,+0.00,-7.00,-4.00
-2.00,+105.00,+6.00,-19.00,-3.00,+55.00,-2.00,+14.00,+2.00,-1.00,+9.00,+15.00,+29.00,+3.00,+5.00,+9.00
-1.00,-48.00,+3.00,+4.00,+0.00,-24.00,+10.00,-8.00,+44.00,+4.00,+4.00,-8.00,+3.00,-3.00,-7.00,+21.00
-1.00,+7.00,-10.00,-8.00,-1.00,+9.00,-2.00,+0.00,-6.00,+10.00,+1.00,+14.00,-43.00,+0.00,-2.00,-10.00
-3.00,+9.00,-1.00,+11.00,+1.00,+8.00,+6.00,-12.00,-27.00,-3.00,-7.00,-10.00,+11.00,-3.00,+14.00,+24.00
+4.00,-2.00,+2.00,+3.00,-9.00,-50.00,-9.00,-2.00,-70.00,-41.00,-8.00,+0.00,-50.00,-21.00,-5.00,-14.00
-6.00,-101.00,-9.00,+8.00,+10.00,+12.00,+1.00,-11.00,+49.00,+30.00,-2.00,+2.00,+35.00,-20.00,-18.00,-26.00
+6.00,+111.00,+10.00,-21.00,-6.00,+14.00,+10.00,+5.00,-31.00,-29.00,-14.00,-15.00,-30.00,+1.00,-16.00,-55.00
+4.00,-56.00,+5.00,+6.00,+14.00,-21.00,-5.00,+7.00,+27.00,+55.00,+9.00,+14.00,+98.00,+22.00,+30.00,+79.00
-5.00,-2.00,+4.00,-15.00,-10.00,-26.00,+5.00,-17.00,-17.00,+0.00,-10.00,-13.00,-94.00,+2.00,-35.00,-78.00
-2.00,+6.00,-10.00,+5.00,+6.00,+55.00,-1.00,+7.00,-58.00,+34.00,+11.00,+13.00,+44.00,+16.00,+28.00,+42.00
-3.00,-30.00,-16.00,-16.00,-6.00,-7.00,-19.00,-10.00,-78.00,-44.00,-3.00,-2.00,+60.00,-15.00,-3.00,-6.00
+2.00,+6.00,+5.00,+9.00,-3.00,+41.00,+40.00,+9.00,+22.00,-8.00,+8.00,+13.00,-28.00,+1.00,-6.00,-13.00
+4.00,-24.00,+13.00,+18.00,+2.00,-42.00,-16.00,-1.00,-35.00,-103.00,-37.00,-30.00,-24.00,-13.00,-8.00,-50.00
-5.00,-18.00,-7.00,-20.00,-6.00,-15.00,-1.00,-7.00,+58.00,+75.00,+28.00,+14.00,+9.00,+5.00,+7.00,+31.00
-3.00,+1.00,-14.00,-30.00,-3.00,-9.00,+6.00,+1.00,-56.00,-8.00,-3.00,-2.00,+21.00,+3.00,+6.00,+7.00
+7.00,+6.00,+11.00,+29.00,+13.00,+24.00,-6.00,+5.00,-92.00,+52.00,-6.00,+4.00,+20.00,-6.00,-23.00,-87.00
-1.00,+58.00,+4.00,+2.00,-12.00,-36.00,-9.00,-5.00,+86.00,-58.00,+15.00,-12.00,+92.00,-3.00,+22.00,+77.00
+2.00,+44.00,+2.00,-15.00,-4.00,-14.00,-6.00,+8.00,+65.00,-36.00,-10.00,+3.00,-128.00,+2.00,-7.00,+1.00
-5.00,-83.00,+6.00,+10.00,+14.00,+36.00,+14.00,-4.00,+35.00,+19.00,+4.00,+12.00,+91.00,-11.00,+9.00,+55.00
-2.00,+53.00,+0.00,-27.00,-17.00,-27.00,-18.00,-4.00,-58.00,-18.00,-2.00,+13.00,+6.00,+44.00,+2.00,-6.00
-1.00,-43.00,-15.00,-11.00,-9.00,-47.00,-4.00,+0.00,+62.00,+76.00,+17.00,+5.00,+9.00,-13.00,-13.00,-35.00
-5.00,-57.00,-11.00,-3.00,-6.00,+21.00,-7.00,+1.00,-59.00,-34.00,-8.00,-9.00,+27.00,-2.00,+0.00,-30.00
-2.00,+25.00,-4.00,+3.00,-4.00,+30.00,-3.00,-4.00,+41.00,+0.00,+0.00,-10.00,-64.00,+0.00,-7.00,+17.00
-6.00,+60.00,+18.00,-40.00,-14.00,-40.00,-15.00,-16.00,+35.00,-16.00,-9.00,+3.00,-20.00,-10.00,+4.00,+8.00
+2.00,-47.00,+9.00,+44.00,+36.00,+71.00,+20.00,+0.00,+51.00,+96.00,+13.00,+0.00,+28.00,+15.00,+22.00,+38.00
-4.00,+39.00,+12.00,+9.00,-10.00,-80.00,+0.00,+3.00,-94.00,-84.00,-22.00,-20.00,-39.00,-31.00,-42.00,-90.00
-7.00,-41.00,-12.00,-20.00,+13.00,+77.00,+15.00,+17.00,-72.00,+14.00,-2.00,+1.00,+7.00,+7.00,+20.00,+13.00
-5.00,-26.00,-11.00,-10.00,-5.00,-12.00,+2.00,-2.00,+37.00,-1.00,+12.00,+4.00,+16.00,+6.00,+10.00,+25.00
-1.00,+40.00,-2.00,-22.00,-4.00,-4.00,-11.00,+2.00,-6.00,-14.00,+4.00,+3.00,-15.00,+2.00,+10.00,+33.00
+1.00,-11.00,-4.00,-6.00,-8.00,-20.00,-14.00,-4.00,-42.00,-7.00,-20.00,-16.00,-18.00,-16.00,-20.00,-64.00
+0.00,+20.00,-4.00,+7.00,-10.00,-16.00,-2.00,-8.00,+10.00,-44.00,-2.00,-1.00,+5.00,+4.00,+7.00,+29.00
+3.00,-15.00,-8.00,+6.00,-9.00,-25.00,-16.00,-1.00,-126.00,-38.00,+6.00,-1.00,-16.00,+1.00,-6.00,-22.00
-5.00,-51.00,-1.00,-5.00,+6.00,+24.00,+0.00,-11.00,+62.00,+19.00,+10.00,+4.00,-12.00,-11.00,-18.00,-33.00
+3.00,+7.00,-1.00,-11.00,+3.00,+1.00,+1.00,+10.00,-72.00,+12.00,-12.00,-10.00,+31.00,-6.00,-12.00,-18.00
-5.00,+19.00,+3.00,-13.00,-6.00,-41.00,-1.00,+0.00,+79.00,+39.00,+6.00,+4.00,-87.00,-3.00,+26.00,+83.00
+4.00,+41.00,+10.00,+21.00,+7.00,+39.00,+4.00,-13.00,-3.00,-32.00,-2.00,-3.00,+84.00,+15.00,+0.00,+11.00
+0.00,-2.00,-5.00,-10.00,-8.00,-3.00,-11.00,+2.00,-10.00,+15.00,-2.00,+4.00,-11.00,-7.00,-19.00,+3.00
-5.00,-46.00,+0.00,-17.00,+3.00,+5.00,+12.00,+0.00,+20.00,-26.00,+4.00,+13.00,+26.00,+10.00,-5.00,-36.00
+10.00,+102.00,+30.00,+9.00,+10.00,+6.00,+13.00,+7.00,+73.00,+51.00,+4.00,-9.00,+63.00,+10.00,+13.00,+24.00
-4.00,-91.00,-9.00,+2.00,-9.00,-22.00,-12.00,-8.00,+42.00,+9.00,+6.00,-13.00,-119.00,-33.00,+1.00,+2.00
+6.00,-53.00,-22.00,+13.00,-10.00,+16.00,-2.00,-9.00,-42.00,+15.00,+0.00,+5.00,-12.00,-28.00,+7.00,+18.00
+11.00,+49.00,+1.00,+31.00,+14.00,+20.00,+9.00,-9.00,+15.00,+1.00,+0.00,+24.00,+38.00,+17.00,-1.00,+10.00
+0.00,-47.00,+2.00,-16.00,-13.00,-69.00,-33.00,-2.00,-108.00,-44.00,-18.00,-15.00,+25.00,-3.00,-21.00,-42.00
+6.00,+31.00,+0.00,+26.00,+19.00,+107.00,+52.00,+16.00,+127.00,+3.00,+3.00,+9.00,+42.00,+5.00,-9.00,-23.00
-6.00,+14.00,-3.00,-24.00,-6.00,+11.00,-22.00,+5.00,-128.00,-2.00,+5.00,-10.00,-62.00,-14.00,+2.00,-27.00
+1.00,-9.00,+3.00,+8.00,-4.00,-15.00,+8.00,+6.00,-15.00,-10.00,+9.00,-2.00,-34.00,+9.00,+18.00,+51.00
-2.00,+1.00,-6.00,+7.00,+2.00,+20.00,+2.00,+2.00,-9.00,+1.00,-10.00,+6.00,+21.00,+19.00,-26.00,-9.00
-3.00,-14.00,-5.00,+14.00,+12.00,+32.00,-8.00,-11.00,-91.00,-13.00,-15.00,-12.00,+0.00,+1.00,+16.00,-38.00
+2.00,-27.00,-2.00,+16.00,-2.00,-14.00,-22.00,-5.00,+103.00,+32.00,-6.00,-15.00,+32.00,-9.00,+7.00,+3.00
+1.00,+12.00,+1.00,-22.00,-12.00,-24.00,-1.00,+4.00,+55.00,+24.00,+14.00,+17.00,-7.00,+20.00,+32.00,+66.00
-1.00,-62.00,+5.00,-1.00,+7.00,-28.00,-1.00,-1.00,-68.00,-43.00,-13.00,-18.00,-25.00,-22.00,-29.00,-61.00
-2.00,+4.00,-12.00,-18.00,-1.00,-16.00,-2.00,+13.00,+44.00,+3.00,+28.00,+9.00,-17.00,+33.00,+19.00,+88.00
-3.00,+82.00,-4.00,+12.00,+6.00,+19.00,-1.00,-8.00,-61.00,-24.00,-13.00,-2.00,+37.00,-23.00,-4.00,-35.00
-1.00,+21.00,+5.00,+18.00,-3.00,-9.00,+11.00,+0.00,+15.00,+28.00,-13.00,-14.00,+21.00,-11.00,-13.00,+6.00
-2.00,-22.00,-7.00,-10.00,-8.00,-15.00,-13.00,-6.00,+61.00,-7.00,-3.00,+3.00,-55.00,+20.00,+21.00,-31.00
+0.00,+9.00,-7.00,+12.00,-7.00,-21.00,-6.00,-10.00,-35.00,-26.00,-15.00,-30.00,+89.00,-25.00,-10.00,-22.00
-2.00,-2.00,+8.00,-17.00,+6.00,+9.00,+15.00,+10.00,+36.00,+0.00,+11.00,+43.00,-68.00,+0.00,+3.00,+11.00
+1.00,-47.00,+0.00,-29.00,-13.00,-7.00,-10.00,-11.00,+13.00,+4.00,+0.00,+1.00,+10.00,-5.00,-21.00,-20.00
-1.00,+56.00,+3.00,+47.00,+0.00,-47.00,+1.00,-8.00,-52.00,-35.00,-8.00,-4.00,+7.00,+0.00,-8.00,-53.00
-3.00,-8.00,-7.00,-14.00,-4.00,+51.00,+2.00,-4.00,+19.00,+28.00,+11.00,+11.00,-7.00,+15.00,+19.00,+54.00
+3.00,-23.00,-2.00,-10.00,-13.00,-78.00,-1.00,+2.00,-64.00,-27.00,+7.00,-8.00,+14.00,+8.00,-6.00,-4.00
-4.00,+0.00,-1.00,+8.00,+12.00,+76.00,-1.00,+5.00,+53.00,+33.00,-15.00,-9.00,-30.00,-16.00,+3.00,+9.00
+9.00,-37.00,-1.00,-13.00,-9.00,-19.00,-17.00,-4.00,-60.00,-11.00,+5.00,+2.00,+5.00,-1.00,+2.00,-7.00
-5.00,-7.00,+6.00,+21.00,+10.00,-10.00,-5.00,-4.00,-22.00,+7.00,-4.00,-7.00,-11.00,-5.00,+0.00,+5.00
-1.00,-10.00,-4.00,-12.00,-5.00,+7.00,+35.00,+8.00,+25.00,-2.00,-12.00,-9.00,+7.00,+18.00,+16.00,+39.00
-8.00,+1.00,+2.00,-7.00,-5.00,-28.00,-15.00,-4.00,-116.00,-127.00,-10.00,+0.00,-31.00,-14.00,-14.00,-31.00
-5.00,-5.00,-5.00,-13.00,+2.00,-14.00,+8.00,-3.00,-21.00,+79.00,+29.00,+5.00,+17.00,+1.00,+17.00,+28.00
+0.00,-4.00,+5.00,-11.00,-4.00,+1.00,-14.00,+7.00,-53.00,+35.00,-8.00,+4.00,+16.00,-32.00,-20.00,+8.00
+4.00,-97.00,-29.00,+2.00,-7.00,+12.00,-12.00,-9.00,-6.00,-45.00,-25.00,-16.00,-14.00,+65.00,-2.00,-39.00
-3.00,-8.00,+13.00,+23.00,-2.00,-23.00,+0.00,-13.00,+30.00,+36.00,+15.00,+5.00,-27.00,-5.00,+2.00,+20.00
-4.00,+84.00,+12.00,-2.00,-2.00,+35.00,+10.00,+10.00,+49.00,-1.00,+0.00,-4.00,+52.00,-20.00,-8.00,+6.00
+0.00,-60.00,-5.00,-21.00,-1.00,-24.00,-4.00,-4.00,+12.00,-9.00,+4.00,-12.00,-127.00,-9.00,+1.00,-12.00
+1.00,-25.00,+22.00,+20.00,+4.00,+24.00,+13.00,+3.00,-25.00,+2.00,-12.00,+19.00,+9.00,+3.00,-17.00,-30.00
+0.00,+50.00,-23.00,-10.00,-7.00,-23.00,-14.00,+14.00,+27.00,+24.00,+8.00,+2.00,+45.00,+7.00,+5.00,+18.00
-1.00,-14.00,-14.00,-14.00,-24.00,-3.00,-9.00,-22.00,+15.00,+6.00,+7.00,+11.00,-12.00,+1.00,-1.00,-5.00
+13.00,-10.00,+15.00,+61.00,+20.00,+4.00,+13.00,+2.00,+30.00,-13.00,-20.00,-16.00,+23.00,-6.00,-14.00,-12.00
-6.00,+40.00,+3.00,-15.00,+13.00,-22.00,+5.00,-3.00,+23.00,+19.00,-7.00,-20.00,+30.00,-8.00,+13.00,+37.00
+1.00,+1.00,+4.00,-26.00,-6.00,-40.00,-9.00,-4.00,-35.00,-6.00,+1.00,+0.00,-26.00,+4.00,+7.00,-9.00
+5.00,-1.00,+7.00,+37.00,+7.00,+41.00,-8.00,+6.00,+127.00,+26.00,+17.00,+9.00,+9.00,-6.00,+10.00,+74.00
-5.00,-36.00,-7.00,-10.00,-5.00,-32.00,+24.00,+2.00,-86.00,-30.00,-11.00,-1.00,+0.00,-2.00,-17.00,-44.00
+2.00,-20.00,+1.00,-3.00,+2.00,+27.00,+12.00,+5.00,-22.00,+17.00,-6.00,-12.00,-7.00,-5.00,+4.00,+14.00
+5.00,+16.00,+4.00,+19.00,+8.00,+31.00,+5.00,+4.00,-43.00,-9.00,+12.00,+8.00,+33.00,-24.00,+4.00,+2.00
-1.00,-56.00,-22.00,-17.00,-14.00,-41.00,-7.00,-4.00,-24.00,+14.00,-11.00,-5.00,-46.00,+36.00,+3.00,+5.00
-1.00,-10.00,-2.00,-12.00,-8.00,-23.00,-17.00,-10.00,-23.00,-46.00,-11.00,+10.00,+52.00,+21.00,-11.00,-54.00
+2.00,+101.00,+21.00,+27.00,-1.00,+15.00,-6.00,+9.00,+31.00,+48.00,+22.00,+10.00,-77.00,-10.00,+8.00,+53.00
-5.00,-25.00,-4.00,+0.00,+3.00,-9.00,+5.00,-28.00,-90.00,+3.00,-12.00,-28.00,-5.00,-29.00,-15.00,-74.00
-5.00,-37.00,-13.00,+3.00,-2.00,+0.00,-4.00,+4.00,+25.00,+13.00,+5.00,+10.00,+38.00,+6.00,+22.00,+40.00
+4.00,+45.00,+0.00,+5.00,-4.00,-6.00,-6.00,+3.00,+74.00,+47.00,+0.00,+3.00,-13.00,-48.00,-5.00,+26.00
-10.00,-44.00,-2.00,-22.00,-3.00,+16.00,+5.00,-12.00,-45.00,-53.00,-2.00,-4.00,+35.00,+19.00,-4.00,-29.00
+9.00,-78.00,-11.00,+21.00,+9.00,+29.00,-5.00,+16.00,+74.00,-2.00,-20.00,-23.00,+84.00,+23.00,-16.00,-3.00
-5.00,-8.00,-3.00,-23.00,-2.00,+25.00,+4.00,-4.00,-20.00,+23.00,+3.00,+8.00,-122.00,-10.00,+4.00,-9.00
-5.00,-13.00,+12.00,+9.00,+2.00,-20.00,-1.00,+2.00,+44.00,+4.00,-2.00,+8.00,-4.00,-21.00,-6.00,+2.00
+10.00,+65.00,-1.00,+14.00,-2.00,+32.00,-6.00,+1.00,-4.00,+11.00,+2.00,-4.00,+79.00,+7.00,+6.00,-2.00
-4.00,-15.00,-9.00,-5.00,-1.00,+7.00,+9.00,-11.00,-24.00,-30.00,+4.00,+0.00,-67.00,+0.00,+1.00,+21.00
+5.00,-10.00,+8.00,+16.00,+0.00,+2.00,+4.00,-10.00,-53.00,-107.00,-15.00,-3.00,+37.00,-8.00,-28.00,-80.00
-2.00,-11.00,-13.00,-36.00,-4.00,+22.00,-9.00,+8.00,+67.00,+106.00,+35.00,+13.00,+29.00,+27.00,+45.00,+112.00
+5.00,-46.00,-9.00,+8.00,-9.00,-51.00,-18.00,-16.00,+3.00,+26.00,-5.00,+3.00,-6.00,-36.00,-6.00,-5.00
-9.00,-13.00,+0.00,+17.00,+8.00,+7.00,-25.00,+6.00,-17.00,-16.00,-3.00,+6.00,-34.00,+26.00,+10.00,-14.00
+1.00,+59.00,+4.00,+3.00,+10.00,+6.00,+37.00,+18.00,-31.00,-48.00,-13.00,-12.00,+2.00,+30.00,-21.00,-39.00
+1.00,-3.00,+3.00,-21.00,-10.00,-30.00,-4.00,+4.00,-1.00,+22.00,-8.00,-18.00,+3.00,+14.00,-6.00,-13.00
-6.00,-57.00,-8.00,-2.00,+3.00,+24.00,-8.00,+4.00,-6.00,-4.00,+22.00,+8.00,-24.00,-30.00,+3.00,+10.00
-4.00,+15.00,+7.00,-19.00,-3.00,+10.00,-12.00,+3.00,+49.00,+58.00,+25.00,+37.00,+4.00,+13.00,+7.00,+36.00
+0.00,+15.00,+13.00,+15.00,+1.00,-45.00,+4.00,-14.00,-44.00,+3.00,-20.00,-21.00,+21.00,-25.00,-17.00,-29.00
+1.00,-15.00,-13.00,-4.00,-10.00,-8.00,+3.00,-5.00,+38.00,-63.00,-13.00,+0.00,+1.00,+3.00,+0.00,-11.00
-2.00,-22.00,-13.00,-7.00,+0.00,+10.00,-9.00,+1.00,-60.00,+33.00,+7.00,-11.00,+40.00,+21.00,+14.00,+21.00
+2.00,+10.00,-3.00,-5.00,-4.00,-8.00,+7.00,+9.00,-14.00,-36.00,-22.00,-2.00,-21.00,+2.00,-4.00,+18.00
-5.00,-121.00,-15.00,-27.00,-6.00,-50.00,-8.00,-8.00,-24.00,+14.00,+18.00,+12.00,-4.00,-20.00,-6.00,-14.00
-5.00,+114.00,+20.00,+13.00,+17.00,+89.00,+14.00,+19.00,-42.00,-3.00,-4.00,+4.00,+19.00,+15.00,-4.00,-27.00
-1.00,+73.00,+12.00,-2.00,+0.00,+26.00,+10.00,-1.00,-6.00,-63.00,-11.00,-5.00,-12.00,-8.00,-5.00,-19.00
+3.00,-12.00,-9.00,-6.00,-20.00,-34.00,-15.00,-9.00,+0.00,+8.00,-17.00,-17.00,-65.00,-25.00,-8.00,-22.00
-7.00,-23.00,+1.00,+1.00,+11.00,+23.00,+2.00,-10.00,+81.00,+33.00,+19.00,+10.00,+81.00,+25.00,+39.00,+68.00
-4.00,+16.00,-13.00,-25.00,-19.00,-23.00,-16.00,-14.00,-3.00,-11.00,+1.00,-2.00,-57.00,-21.00,-17.00,-12.00
+6.00,-24.00,+12.00,+25.00,+24.00,-24.00,+5.00,+5.00,+15.00,-8.00,-7.00,-1.00,+47.00,+11.00,+5.00,-15.00
-4.00,+14.00,+2.00,-19.00,+6.00,+43.00,+6.00,+2.00,+77.00,+2.00,+18.00,+9.00,+24.00,-13.00,+15.00,+33.00
+6.00,-21.00,-12.00,+2.00,-8.00,+0.00,-14.00,-6.00,-20.00,+3.00,-20.00,-11.00,+2.00,+0.00,-8.00,-23.00
-5.00,-38.00,-9.00,-11.00,-20.00,-46.00,-17.00,-9.00,-43.00,-4.00,+19.00,+13.00,-17.00,+20.00,+6.00,-3.00
+5.00,-30.00,-14.00,+13.00,-1.00,+16.00,-2.00,+20.00,+84.00,+7.00,-1.00,-2.00,-11.00,+0.00,-4.00,+12.00
-1.00,+97.00,+23.00,+26.00,+10.00,-13.00,+24.00,+7.00,-34.00,-13.00,-40.00,-32.00,-13.00,-28.00,-38.00,-107.00
+1.00,+38.00,+10.00,+21.00,+12.00,+9.00,+10.00,+13.00,-65.00,+50.00,+31.00,+18.00,+52.00,+3.00,+21.00,+39.00
+2.00,-25.00,-4.00,-4.00,+1.00,-33.00,-13.00,-17.00,-52.00,-30.00,-2.00,-7.00,-31.00,-10.00,-2.00,-11.00
-4.00,+2.00,-7.00,-13.00,-4.00,-6.00,+1.00,-8.00,-51.00,-22.00,+1.00,+10.00,+35.00,+5.00,-12.00,-8.00
+5.00,-72.00,-10.00,+2.00,-4.00,-26.00,-9.00,+4.00,-23.00,-23.00,-9.00,-24.00,-38.00,+3.00,+1.00,-6.00
-8.00,+54.00,+10.00,+8.00,+9.00,+53.00,+13.00,+7.00,+43.00,-5.00,-19.00,+3.00,+67.00,-17.00,-3.00,+13.00
-6.00,-9.00,-9.00,-12.00,-14.00,-30.00,-15.00,+8.00,+12.00,+10.00,+2.00,-3.00,-71.00,+4.00,+0.00,-6.00
+4.00,-64.00,-5.00,+25.00,+8.00,+8.00,+6.00,-10.00,-100.00,-18.00,-4.00,+1.00,-25.00,-12.00,-10.00,+4.00
-8.00,+9.00,+9.00,-9.00,-10.00,-41.00,+5.00,-10.00,-38.00,-4.00,+11.00,+3.00,+14.00,-5.00,+3.00,+1.00
-1.00,+86.00,+14.00,-13.00,+3.00,+10.00,-9.00,-5.00,+57.00,+53.00,+6.00,+2.00,+19.00,+20.00,+17.00,+59.00
+2.00,+34.00,+3.00,+3.00,-9.00,-6.00,+9.00,+3.00,-1.00,-4.00,+4.00,+7.00,+11.00,-2.00,+4.00,+9.00
-5.00,-28.00,-17.00,-13.00,-22.00,-32.00,-17.00,-6.00,-11.00,+14.00,-12.00,-11.00,-14.00,+3.00,-9.00,-9.00
+0.00,-4.00,-13.00,+9.00,-5.00,-18.00,-14.00,-28.00,+15.00,-7.00,-4.00,-2.00,+14.00,-2.00,+4.00,+2.00
+0.00,+3.00,+4.00,+10.00,+16.00,+73.00,+6.00,+10.00,-22.00,-2.00,+22.00,+10.00,-35.00,+6.00,+8.00,-5.00
+4.00,+8.00,+8.00,+15.00,+16.00,+22.00,+9.00,+7.00,-36.00,+14.00,-7.00,-4.00,+51.00,-10.00,-18.00,-39.00
-2.00,+37.00,+4.00,-30.00,-9.00,-62.00,-5.00,-3.00,+3.00,-15.00,+4.00,-1.00,+1.00,+3.00,+11.00,+15.00
+8.00,+31.00,+3.00,+1.00,-1.00,+33.00,+3.00,+7.00,-36.00,+10.00,-17.00,-15.00,-25.00,-3.00,-14.00,-35.00
-2.00,-9.00,-10.00,-11.00,-1.00,+6.00,+1.00,+0.00,+83.00,-68.00,+0.00,+17.00,+4.00,+12.00,+17.00,+41.00
+0.00,-61.00,-20.00,-18.00,-10.00,-17.00,-25.00,-14.00,+17.00,+81.00,+0.00,-12.00,-40.00,-2.00,+1.00,+13.00
+5.00,-1.00,+26.00,+27.00,+7.00,+13.00,+31.00,+8.00,-50.00,-37.00,-9.00,-6.00,+46.00,-3.00,-3.00,-19.00
-8.00,+51.00,+10.00,-17.00,+4.00,-4.00,+3.00,-7.00,-36.00,-35.00,+4.00,+3.00,-72.00,+0.00,+7.00,+17.00
+5.00,-97.00,-8.00,-1.00,-8.00,-64.00,-9.00,+2.00,+39.00,+82.00,-7.00,-21.00,+14.00,-23.00,-29.00,-61.00
-8.00,+72.00,+10.00,-15.00,+5.00,+28.00,+15.00,+6.00,+3.00,-32.00,+12.00,+14.00,-31.00,+1.00,+9.00,+20.00
+1.00,-90.00,-16.00,+4.00,-6.00,-29.00,-20.00,-7.00,-28.00,-66.00,-15.00,-29.00,-11.00,-37.00,-9.00,-16.00
-2.00,-16.00,-10.00,+7.00,-9.00,+37.00,-2.00,-11.00,+43.00,+61.00,+15.00,+39.00,+16.00,+48.00,+12.00,+19.00
+2.00,+9.00,-13.00,+28.00,+8.00,-55.00,+1.00,-5.00,-72.00,-48.00,-12.00,-19.00,+6.00,-21.00,-17.00,-29.00
-3.00,+14.00,+2.00,-8.00,-4.00,-22.00,-13.00,-10.00,-80.00,-77.00,-16.00,+6.00,+12.00,-3.00,+1.00,-67.00
-1.00,+27.00,+1.00,-2.00,+7.00,+43.00,+7.00,+10.00,+29.00,+91.00,+23.00,+5.00,-2.00,+1.00,+16.00,+70.00
+0.00,-35.00,+5.00,-33.00,+0.00,-25.00,+2.00,+8.00,+51.00,+28.00,+21.00,+8.00,+39.00,-4.00,+29.00,+80.00
-3.00,-18.00,-3.00,-16.00,-4.00,+74.00,+6.00,-3.00,-20.00,-2.00,-6.00,-14.00,-58.00,-6.00,-16.00,-59.00
+10.00,-77.00,-10.00,+35.00,-5.00,-42.00,-22.00,-8.00,-49.00,-34.00,-14.00,+4.00,+53.00,-10.00,-7.00,-6.00
-1.00,+120.00,+19.00,+6.00,+16.00,+40.00,-1.00,+5.00,-22.00,-28.00,-18.00,-9.00,-9.00,-23.00,-9.00,-27.00
-4.00,-43.00,-1.00,-7.00,-2.00,-16.00,+4.00,-1.00,+14.00,+14.00,-8.00,-7.00,+10.00,+33.00,+2.00,-2.00
-4.00,+25.00,+0.00,-9.00,-11.00,+10.00,-8.00,+5.00,-69.00,-32.00,-10.00,-18.00,-29.00,-4.00,-13.00,-16.00
+3.00,-15.00,+6.00,+0.00,+12.00,-3.00,+23.00,-3.00,+57.00,+60.00,+4.00,+2.00,-63.00,-9.00,+7.00,+56.00
-3.00,-30.00,-6.00,-24.00,-8.00,-2.00,-8.00,-8.00,+10.00,+13.00,+13.00,+10.00,+5.00,+17.00,+0.00,-12.00
-2.00,-49.00,-8.00,+12.00,+6.00,-9.00,-5.00,+2.00,+23.00,+6.00,+13.00,+10.00,+69.00,-2.00,-1.00,+6.00
-9.00,+32.00,-3.00,-16.00,-18.00,-29.00,-2.00,+6.00,-77.00,-40.00,-13.00,-9.00,-63.00,-44.00,-16.00,-34.00
+0.00,+27.00,-13.00,+2.00,-4.00,+8.00,-12.00,-12.00,+52.00,+28.00,+9.00,+6.00,+94.00,-6.00,+1.00,-20.00
-3.00,-36.00,-4.00,+1.00,-4.00,-10.00,-10.00,+2.00,+30.00,-2.00,-14.00,-13.00,-13.00,+16.00,-8.00,-20.00
+3.00,+24.00,+1.00,-4.00,-7.00,-34.00,-1.00,+1.00,-6.00,+21.00,+9.00,+2.00,+66.00,+64.00,+30.00,+16.00
-2.00,-77.00,-6.00,-12.00,+13.00,+51.00,+8.00,-1.00,-63.00,-49.00,-9.00,+16.00,-6.00,+22.00,+10.00,+26.00
+5.00,+83.00,+33.00,+8.00,+4.00,-14.00,+14.00,+15.00,+84.00,+69.00,-6.00,+2.00,+8.00,+5.00,-19.00,-1.00
-5.00,-32.00,+1.00,-2.00,-5.00,-26.00,+10.00,-6.00,+51.00,+8.00,+7.00,+12.00,+6.00,+2.00,+17.00,+43.00
+3.00,+15.00,-2.00,-3.00,+9.00,+70.00,+6.00,+13.00,-81.00,-29.00,-5.00,-15.00,-2.00,-37.00,-28.00,-56.00
-6.00,-29.00,-8.00,-13.00,-11.00,-4.00,-14.00,-17.00,+109.00,+54.00,+19.00,+11.00,-25.00,+8.00,+24.00,+72.00
+9.00,+40.00,+2.00,+15.00,+0.00,-19.00,+33.00,+2.00,+18.00,-70.00,-4.00,+0.00,-11.00,+9.00,-9.00,+5.00
-6.00,+49.00,-12.00,-25.00,-24.00,-36.00,-23.00,-14.00,-82.00,-5.00,-5.00,-8.00,-38.00,+0.00,-4.00,-22.00
+7.00,+65.00,+6.00,+42.00,+12.00,+11.00,-1.00,+11.00,+44.00,+7.00,-16.00,-9.00,+30.00,-3.00,-15.00,-7.00
+3.00,-29.00,-5.00,-15.00,-2.00,-20.00,-8.00,+0.00,+10.00,-4.00,-5.00,-4.00,+17.00,-2.00,-3.00,+4.00
-12.00,-109.00,-15.00,-27.00,-2.00,+26.00,+4.00,+3.00,-58.00,-13.00,+5.00,-26.00,-11.00,-9.00,-7.00,-21.00
-1.00,+81.00,+19.00,-2.00,+1.00,-23.00,+4.00,-4.00,+15.00,-23.00,-2.00,+29.00,-20.00,+5.00,+3.00,+4.00
+0.00,-25.00,+1.00,+6.00,+3.00,+10.00,+11.00,-1.00,-36.00,-30.00,-7.00,-15.00,-28.00,-24.00,-10.00,-17.00
+2.00,+47.00,-2.00,+5.00,-5.00,-1.00,-6.00,-11.00,+32.00,+0.00,-5.00,+12.00,+27.00,+3.00,-3.00,-3.00
-1.00,-31.00,-13.00,+9.00,-2.00,+16.00,-6.00,-7.00,+18.00,-20.00,+7.00,-5.00,+5.00,+10.00,+9.00,+19.00
+7.00,-58.00,-5.00,+0.00,-3.00,-27.00,-1.00,-1.00,-30.00,+14.00,-11.00,-5.00,+50.00,+7.00,-15.00,-39.00
-3.00,-18.00,+6.00,-13.00,+10.00,-7.00,+0.00,+3.00,-101.00,-23.00,+10.00,+5.00,-40.00,-25.00,-3.00,+1.00
-3.00,+45.00,+8.00,-10.00,-6.00,-73.00,+1.00,+5.00,+28.00,+22.00,+1.00,-5.00,+5.00,+0.00,+1.00,-22.00
-4.00,-86.00,-11.00,+0.00,-7.00,+47.00,-9.00,-8.00,-88.00,-24.00,+6.00,-1.00,+11.00,+38.00,+11.00,+29.00
-8.00,+25.00,-7.00,-7.00,+7.00,+38.00,+9.00,-4.00,+127.00,+89.00,+15.00,+16.00,-43.00,+15.00,+19.00,+87.00
-1.00,-46.00,-3.00,-3.00,+1.00,+9.00,-5.00,-2.00,-81.00,-60.00,-8.00,-1.00,+1.00,-14.00,-9.00,-22.00
-5.00,+19.00,+12.00,+3.00,+7.00,-12.00,+4.00,-4.00,-38.00,-20.00,+8.00,-5.00,+20.00,-6.00,-4.00,-1.00
+0.00,-77.00,-14.00,-13.00,+2.00,-42.00,-9.00,-1.00,+23.00,+42.00,-6.00,+3.00,-9.00,+1.00,+16.00,+15.00
-4.00,+68.00,-1.00,-18.00,-3.00,+36.00,+1.00,-2.00,-43.00,+17.00,-16.00,-30.00,-7.00,-15.00,-21.00,-56.00
-5.00,+85.00,+9.00,-12.00,-7.00,-29.00,-7.00,-6.00,-20.00,-73.00,+4.00,+8.00,-9.00,-7.00,-2.00,-3.00
+7.00,+34.00,+8.00,+10.00,+8.00,+5.00,-12.00,+1.00,-25.00,-25.00,-2.00,+3.00,-87.00,-6.00,+11.00,+18.00
-1.00,+27.00,+8.00,+12.00,+16.00,+23.00,+20.00,-9.00,-30.00,+2.00,-6.00,+7.00,+34.00,-7.00,-10.00,-9.00
-6.00,-48.00,+4.00,-5.00,-2.00,+12.00,-3.00,+3.00,-25.00,-35.00,-3.00,+1.00,+61.00,+3.00,-2.00,-3.00
-2.00,+5.00,-18.00,-15.00,-18.00,-22.00,-4.00,-3.00,+98.00,+45.00,+0.00,+4.00,-49.00,-3.00,+0.00,+1.00
+1.00,-36.00,-15.00,+12.00,-2.00,+30.00,-2.00,-1.00,-23.00,+22.00,+3.00,-8.00,+7.00,-22.00,-6.00,-1.00
+5.00,-64.00,-7.00,-12.00,-9.00,-13.00,-18.00,-11.00,-6.00,-18.00,-6.00,+3.00,+9.00,+11.00,-20.00,-52.00
+1.00,+34.00,+12.00,+10.00,+1.00,+0.00,+11.00,-3.00,-11.00,-3.00,+4.00,-3.00,-4.00,-7.00,+17.00,+23.00
+6.00,+9.00,+4.00,+30.00,+15.00,+41.00,+0.00,+7.00,+24.00,-46.00,-7.00,-1.00,-56.00,-13.00,+4.00,+22.00
+1.00,-23.00,+2.00,+0.00,+0.00,-10.00,+4.00,+2.00,+17.00,+65.00,-1.00,+0.00,+43.00,+8.00,-15.00,-28.00
+1.00,+11.00,+8.00,-23.00,-5.00,-14.00,-6.00,+4.00,-74.00,-22.00,+1.00,-3.00,-11.00,-10.00,-2.00,+1.00
+3.00,-62.00,-13.00,+24.00,+6.00,+16.00,-6.00,+1.00,-58.00,-41.00,+5.00,+3.00,+9.00,+5.00,+1.00,-4.00
+3.00,-15.00,-11.00,+9.00,-18.00,-20.00,-7.00,-2.00,+4.00,-5.00,-16.00,-13.00,+4.00,-11.00,-26.00,-58.00
+0.00,-18.00,+4.00,+8.00,+0.00,-16.00,-17.00,-17.00,+68.00,+51.00,-11.00,-9.00,-7.00,+2.00,+8.00,+12.00
-3.00,+62.00,+2.00,-5.00,-2.00,+21.00,+50.00,+23.00,+54.00,+10.00,+7.00,+3.00,+0.00,+1.00,+0.00,-6.00
+12.00,-4.00,+16.00,+28.00,+21.00,+38.00,+8.00,+0.00,-12.00,+17.00,+4.00,-4.00,+2.00,+8.00,+8.00,+9.00
+7.00,-75.00,-9.00,+12.00,-10.00,-24.00,-13.00,-6.00,+18.00,-8.00,+7.00,+18.00,+8.00,-13.00,+4.00,+15.00
-2.00,+64.00,+14.00,-11.00,+8.00,+23.00,+16.00,+8.00,-21.00,-23.00,-9.00,-16.00,+28.00,+17.00,-12.00,-22.00
-9.00,+108.00,+11.00,-1.00,-5.00,-28.00,-21.00,-10.00,+17.00,-17.00,-5.00,-12.00,-73.00,-18.00,+6.00,+1.00
+9.00,-62.00,-8.00,+18.00,-6.00,-13.00,+1.00,-4.00,-32.00,-4.00,+4.00,+18.00,-31.00,-12.00,-21.00,-33.00
-2.00,-64.00,-21.00,-16.00,-1.00,-1.00,+11.00,+4.00,+34.00,+45.00,+11.00,+12.00,+57.00,+6.00,+20.00,+24.00
+1.00,-35.00,+3.00,-1.00,-2.00,+13.00,-2.00,+1.00,-49.00,-34.00,-1.00,+2.00,+28.00,+28.00,-8.00,+0.00
+1.00,+52.00,+5.00,-3.00,-5.00,-1.00,-11.00,+2.00,+1.00,-5.00,-3.00,+0.00,+43.00,+7.00,+24.00,+40.00
-5.00,+7.00,-7.00,-16.00,+13.00,-17.00,+1.00,-1.00,+97.00,-5.00,+10.00,+2.00,-68.00,+4.00,+11.00,+80.00
+2.00,+18.00,+0.00,-21.00,-14.00,-51.00,-13.00,-11.00,-23.00,+28.00,-1.00,-4.00,-5.00,+2.00,+0.00,-11.00
+13.00,-65.00,-6.00,+36.00,+4.00,+29.00,+15.00,+14.00,-16.00,+46.00,-3.00,-5.00,-14.00,-11.00,-12.00,+18.00
+4.00,+103.00,+26.00,+19.00,+16.00,+1.00,+4.00,+9.00,+60.00,+12.00,+6.00,+8.00,+41.00,+8.00,-11.00,+88.00
-6.00,-13.00,-16.00,-5.00,-4.00,-17.00,-5.00,-1.00,-49.00,+7.00,+1.00,-5.00,-24.00,-8.00,-5.00,-3.00
-6.00,-37.00,-1.00,-19.00,+1.00,+10.00,+15.00,+63.00,+30.00,+31.00,-9.00,-14.00,+22.00,-5.00,-7.00,-104.00
+7.00,+98.00,+29.00,-27.00,-15.00,-27.00,-10.00,+0.00,-14.00,-56.00,+11.00,+8.00,-2.00,-1.00,+15.00,+51.00
-12.00,-60.00,-13.00,+30.00,+10.00,+23.00,-1.00,-56.00,+16.00,+13.00,+5.00,+7.00,-29.00,-4.00,-11.00,-6.00
-3.00,+1.00,-17.00,-9.00,-8.00,+20.00,-1.00,+35.00,+25.00,-23.00,-24.00,-20.00,+1.00,-7.00,+2.00,-16.00
+3.00,-81.00,+14.00,-6.00,-1.00,-23.00,-8.00,+10.00,+34.00,+11.00,-2.00,-16.00,+48.00,+3.00,-2.00,+46.00
-25.00,+7.00,-24.00,-6.00,-4.00,-10.00,-5.00,-73.00,-17.00,-61.00,-12.00,+18.00,-11.00,-24.00,-8.00,-57.00
+4.00,-80.00,+13.00,+13.00,+4.00,+25.00,+26.00,+94.00,-9.00,-34.00,+0.00,-12.00,-14.00,+30.00,+20.00,-15.00
+6.00,+33.00,+12.00,-20.00,-7.00,-43.00,-26.00,+17.00,-52.00,+13.00,-11.00,-1.00,-14.00,-10.00,-12.00,-47.00
-9.00,+66.00,-9.00,-4.00,+10.00,+28.00,+5.00,+39.00,-22.00,+19.00,+0.00,+6.00,+90.00,+25.00,+12.00,+31.00
+1.00,+16.00,+3.00,+6.00,+0.00,-4.00,+8.00,+3.00,+12.00,+22.00,-3.00,+0.00,-70.00,-13.00,+1.00,+0.00
+3.00,-103.00,-24.00,+1.00,+5.00,+2.00,-7.00,-15.00,-43.00,-14.00,-5.00,+4.00,+20.00,-23.00,-3.00,-35.00
-14.00,+33.00,+5.00,-16.00,-19.00,-58.00,-11.00,-58.00,+20.00,+24.00,+6.00,+7.00,+17.00,+9.00,-2.00,+1.00
+0.00,+34.00,-2.00,+6.00,+2.00,+80.00,+24.00,-6.00,-21.00,-25.00,-2.00,-3.00,-6.00,+6.00,-9.00,+13.00
+2.00,-35.00,-21.00,-15.00,+2.00,+39.00,+0.00,+16.00,-3.00,+29.00,+14.00,+3.00,+27.00,-6.00,+11.00,+10.00
+1.00,+34.00,+4.00,+1.00,-2.00,-30.00,-18.00,-10.00,-15.00,+23.00,-8.00,-7.00,-8.00,-5.00,-12.00,+6.00
-2.00,-60.00,-15.00,-18.00,-19.00,-59.00,-23.00,-10.00,-60.00,-7.00,-19.00,-18.00,+4.00,-2.00,+5.00,-22.00
-2.00,+40.00,+16.00,+10.00,+18.00,+44.00,+34.00,-10.00,+5.00,-12.00,+9.00,+5.00,-49.00,-33.00,-14.00,-46.00
-2.00,-5.00,+1.00,-15.00,+2.00,+3.00,+14.00,+17.00,+30.00,+0.00,+5.00,-7.00,+22.00,+8.00,+8.00,+21.00
-3.00,-12.00,-8.00,-19.00,-6.00,-9.00,-23.00,-69.00,-45.00,+10.00,-2.00,+2.00,+18.00,+3.00,+6.00,-10.00
+0.00,-23.00,+12.00,+3.00,+5.00,+20.00,+2.00,+15.00,+68.00,-15.00,+3.00,-7.00,-39.00,+1.00,+1.00,+0.00
-2.00,+34.00,+6.00,+2.00,-5.00,-38.00,-15.00,-8.00,-17.00,+27.00,+5.00,+5.00,-5.00,-4.00,-2.00,+19.00
-1.00,-30.00,-3.00,+5.00,-4.00,-24.00,-1.00,+12.00,-57.00,-30.00,-13.00,-6.00,-1.00,-3.00,-17.00,-53.00
+6.00,+72.00,+0.00,-8.00,-6.00,-27.00,+2.00,+40.00,+8.00,+48.00,-1.00,+5.00,+8.00,+5.00,+3.00,+11.00
-1.00,-23.00,-1.00,+0.00,+3.00,+33.00,+5.00,+9.00,+86.00,+53.00,+8.00,-7.00,+61.00,-16.00,-1.00,-27.00
+1.00,+27.00,-8.00,-9.00,-5.00,-27.00,-16.00,-27.00,-110.00,-78.00,+8.00,+14.00,-75.00,+23.00,+7.00,-20.00
+7.00,+20.00,+8.00,+0.00,+5.00,-5.00,+5.00,+3.00,-36.00,+33.00,-2.00,-11.00,+30.00,-1.00,-29.00,+4.00
-4.00,-61.00,-12.00,-13.00,-2.00,+3.00,-8.00,-8.00,+44.00,+10.00,+14.00,+11.00,-61.00,+0.00,+19.00,+35.00
-1.00,+47.00,+6.00,-5.00,-2.00,+25.00,+10.00,+4.00,+0.00,-15.00,+1.00,+8.00,+17.00,+2.00,-8.00,+6.00
-2.00,-36.00,-14.00,-4.00,-1.00,-41.00,-19.00,-26.00,-4.00,+28.00,-6.00,-21.00,+27.00,-11.00,+0.00,-18.00
-2.00,-124.00,-14.00,-1.00,-11.00,+1.00,-9.00,+15.00,-97.00,-64.00,-16.00,-12.00,-71.00,-26.00,-19.00,-63.00
+6.00,+82.00,+30.00,-16.00,-5.00,-35.00,+2.00,+13.00,+50.00,+18.00,+10.00,+17.00,+50.00,+14.00,+24.00,+58.00
+1.00,+2.00,-4.00,+36.00,+3.00,-6.00,-33.00,-25.00,-26.00,+5.00,+1.00,+4.00,-6.00,+2.00,-2.00,+32.00
-10.00,-64.00,-1.00,-33.00,-2.00,+52.00,+14.00,-6.00,+34.00,+13.00,+3.00,+0.00,-38.00,-2.00,-11.00,+109.00
-3.00,+0.00,-3.00,+1.00,+9.00,+10.00,+8.00,+18.00,-5.00,-43.00,-6.00,-1.00,+27.00,+4.00,+10.00,-39.00
-2.00,-70.00,-17.00,-24.00,-1.00,+24.00,-3.00,-15.00,-64.00,+3.00,-16.00,-17.00,-12.00,-17.00,-18.00,-39.00
+2.00,+9.00,-8.00,-2.00,-12.00,-9.00,+0.00,+4.00,+51.00,-5.00,+4.00,-11.00,+63.00,+2.00,-2.00,-18.00
+6.00,+15.00,+0.00,+11.00,-13.00,-38.00,-25.00,-8.00,+28.00,-32.00,-2.00,+17.00,-62.00,-10.00,+4.00,+29.00
+0.00,-24.00,+2.00,+0.00,+0.00,-17.00,-1.00,-14.00,+38.00,+15.00,-1.00,-2.00,+22.00,-2.00,+2.00,+14.00
-3.00,+15.00,-1.00,-5.00,+1.00,+37.00,+2.00,+0.00,-58.00,+19.00,-6.00,-4.00,-21.00,+15.00,-14.00,-60.00
-8.00,+2.00,+3.00,-7.00,+16.00,+48.00,+33.00,+28.00,-66.00,-57.00,+11.00,+6.00,+36.00,+7.00,+7.00,+17.00
+1.00,+4.00,+2.00,-5.00,-4.00,-7.00,-2.00,+2.00,+2.00,-10.00,+2.00,+6.00,+19.00,+0.00,+4.00,-1.00
+3.00,+34.00,+1.00,-13.00,+2.00,+7.00,+5.00,-8.00,-8.00,-23.00,-16.00,-15.00,-50.00,-1.00,-1.00,-3.00
-8.00,-60.00,-6.00,-10.00,-12.00,-60.00,-10.00,+12.00,+47.00,-10.00,-12.00,-11.00,+19.00,-17.00,-19.00,-44.00
+0.00,+86.00,+4.00,+3.00,+7.00,+3.00,+13.00,+2.00,-68.00,-16.00,-7.00,-2.00,-33.00,-2.00,+0.00,-14.00
-4.00,-53.00,-7.00,+6.00,-2.00,+2.00,-8.00,-20.00,+47.00,+18.00,+5.00,-6.00,+50.00,+3.00,+9.00,+17.00
-2.00,-28.00,+8.00,+3.00,+6.00,-11.00,-8.00,+1.00,-19.00,+41.00,+23.00,+21.00,-17.00,+1.00,+8.00,+14.00
-9.00,+51.00,+7.00,-21.00,+0.00,-26.00,+12.00,+8.00,-41.00,-33.00,-2.00,-2.00,-16.00,-12.00,-10.00,-6.00
-7.00,-18.00,-9.00,-4.00,-2.00,+2.00,-1.00,-6.00,+48.00,+15.00,-10.00,-3.00,-53.00,-6.00,-6.00,-18.00
-1.00,-28.00,-22.00,+10.00,-13.00,-5.00,-8.00,-16.00,-59.00,-6.00,-10.00,-12.00,-8.00,-5.00,-10.00,-44.00
-6.00,-23.00,-8.00,-12.00,-12.00,-5.00,-8.00,-10.00,+81.00,-2.00,+3.00,+1.00,+31.00,+15.00,+20.00,+71.00
-1.00,+9.00,-3.00,-6.00,-6.00,-9.00,-7.00,-9.00,+6.00,+33.00,+6.00,+1.00,+13.00,-2.00,+0.00,+11.00
+5.00,-63.00,+5.00,-1.00,+7.00,-5.00,+7.00,-14.00,+33.00,-20.00,+4.00,+8.00,+6.00,+10.00,-3.00,-11.00
+2.00,+98.00,+26.00,-9.00,+5.00,+15.00,+7.00,+1.00,-3.00,+43.00,+9.00,+2.00,-2.00,-1.00,+17.00,-49.00
-6.00,+5.00,-4.00,+3.00,+8.00,-13.00,-6.00,-7.00,+2.00,+1.00,-14.00,-8.00,-21.00,-3.00,-11.00,-29.00
+1.00,+1.00,-4.00,+9.00,+7.00,+40.00,+9.00,+23.00,-76.00,-47.00,-4.00,-10.00,-9.00,-11.00,-17.00,-62.00
-1.00,-25.00,-3.00,-6.00,-5.00,-20.00,-5.00,+25.00,+44.00,-3.00,+6.00,+9.00,-4.00,+9.00,+28.00,+97.00
+3.00,-34.00,-5.00,+24.00,+7.00,-3.00,+5.00,-12.00,-78.00,+1.00,-4.00,+0.00,+17.00,-5.00,-13.00,+86.00
+1.00,+22.00,+11.00,+2.00,-2.00,+3.00,+3.00,-5.00,+35.00,+34.00,+1.00,+2.00,-3.00,+12.00,+0.00,+22.00
+0.00,+18.00,+5.00,+23.00,+5.00,-7.00,+13.00,+61.00,-34.00,-48.00,+1.00,+2.00,+9.00,-2.00,+12.00,-22.00
+4.00,-55.00,-12.00,+16.00,-10.00,+8.00,-10.00,+18.00,-83.00,+12.00,-21.00,-21.00,-19.00,-12.00,-42.00,-21.00
+9.00,+1.00,-6.00,+5.00,-3.00,-25.00,-6.00,+7.00,+112.00,+40.00,-1.00,-1.00,+16.00,+20.00,+39.00,+37.00
-8.00,+93.00,-4.00,+5.00,-6.00,-5.00,-2.00,+7.00,+31.00,-1.00,+7.00,+15.00,+0.00,-7.00,+50.00,+58.00
+4.00,-31.00,-9.00,+20.00,+4.00,+1.00,-5.00,-19.00,+19.00,-11.00,+7.00,-1.00,-19.00,-8.00,-13.00,-28.00
-5.00,-2.00,+16.00,+11.00,-2.00,+26.00,+17.00,-4.00,+8.00,-1.00,-11.00,-4.00,-27.00,-10.00,-5.00,-66.00
-7.00,-34.00,-43.00,-3.00,+4.00,+11.00,+1.00,+58.00,-42.00,-40.00,-17.00,-21.00,-32.00,-10.00,-28.00,-67.00
+9.00,-18.00,+43.00,+8.00,-3.00,-12.00,-1.00,+56.00,+68.00,+44.00,+2.00,+11.00,+66.00,-21.00,-33.00,+55.00
-6.00,+61.00,+6.00,+9.00,+1.00,+33.00,-11.00,-66.00,+105.00,+21.00,+29.00,+20.00,+31.00,+43.00,+24.00,+99.00
+6.00,-21.00,-4.00,+11.00,+2.00,-16.00,+31.00,+41.00,-10.00,-4.00,+8.00,+11.00,-18.00,+7.00,+32.00,+20.00
+1.00,-4.00,+10.00,+3.00,+1.00,+23.00,+13.00,+38.00,+10.00,+6.00,+0.00,-9.00,+3.00,-3.00,-14.00,+1.00
-6.00,-3.00,-27.00,+3.00,+0.00,-70.00,-1.00,-52.00,-62.00,-38.00,-18.00,-12.00,-9.00,-6.00,+2.00,-34.00
-3.00,-8.00,-10.00,-7.00,-7.00,+55.00,-1.00,-2.00,+53.00,+47.00,-6.00,-11.00,+3.00,-16.00,-15.00,-13.00
-3.00,-22.00,-7.00,-3.00,-16.00,-65.00,-11.00,+0.00,+15.00,+28.00,+8.00,+9.00,-1.00,-11.00,-17.00,+29.00
+0.00,-23.00,+11.00,+2.00,+11.00,+21.00,-9.00,-23.00,-9.00,-34.00,-5.00,+1.00,-7.00,+3.00,-9.00,+21.00
-9.00,+4.00,+9.00,-9.00,+8.00,-7.00,-1.00,+8.00,-22.00,-7.00,+0.00,-6.00,+1.00,+2.00,-6.00,-96.00
+4.00,-35.00,-10.00,-13.00,-1.00,-5.00,+0.00,-8.00,-48.00,-7.00,-2.00,-1.00,+3.00,+2.00,+33.00,+12.00
+4.00,+14.00,-17.00,-14.00,-2.00,-1.00,-10.00,-32.00,+48.00,-13.00,+3.00,-1.00,+5.00,+12.00,+9.00,-78.00
-1.00,-40.00,+1.00,-1.00,-7.00,-30.00,-9.00,-7.00,-38.00,+48.00,+5.00,+5.00,+4.00,-5.00,+6.00,-70.00
+2.00,+44.00,-1.00,-3.00,-13.00,-45.00,-10.00,-9.00,-24.00,-24.00,+10.00,-6.00,-15.00,+0.00,-15.00,-14.00
-3.00,+6.00,+9.00,-1.00,+6.00,+6.00,+1.00,-9.00,-12.00,-33.00,-38.00,-13.00,-5.00,-8.00,-6.00,-67.00
-1.00,-7.00,-10.00,-3.00,-1.00,+19.00,-10.00,-11.00,-13.00,+6.00,+4.00,+2.00,+42.00,-5.00,-8.00,-9.00
-2.00,-52.00,+4.00,+6.00,-5.00,-10.00,-7.00,-30.00,+8.00,-16.00,+7.00,+3.00,-44.00,-9.00,-29.00,+10.00
+1.00,+15.00,+2.00,-10.00,+3.00,+29.00,+11.00,-1.00,+48.00,+10.00,+5.00,+2.00,-6.00,+4.00,+4.00,+5.00
-3.00,-7.00,+3.00,-1.00,+4.00,-10.00,+3.00,+1.00,+4.00,-7.00,-9.00,-4.00,-4.00,-18.00,-7.00,+53.00
+3.00,-32.00,-34.00,+9.00,+0.00,-1.00,-3.00,-16.00,-51.00,-45.00,-4.00,+0.00,-9.00,+2.00,+3.00,+62.00
-1.00,+27.00,+48.00,+0.00,+1.00,-4.00,+8.00,-2.00,+54.00,+53.00,+3.00,+1.00,+45.00,+34.00,+8.00,+11.00
+1.00,-1.00,-6.00,-4.00,-2.00,+18.00,-6.00,-7.00,+2.00,+8.00,+6.00,+11.00,-33.00,-4.00,+4.00,+30.00
+2.00,+13.00,+4.00,-17.00,-1.00,-10.00,-8.00,+8.00,-14.00,-1.00,+12.00,-2.00,-16.00,-5.00,-10.00,-6.00
-7.00,+5.00,+1.00,-15.00,-1.00,+1.00,-14.00,-41.00,-18.00,-21.00,-10.00,+0.00,+9.00,-12.00,-12.00,-3.00
-2.00,+16.00,-16.00,-7.00,-9.00,-27.00,-4.00,-6.00,-15.00,-14.00,-4.00,-4.00,+10.00,-9.00,+5.00,+8.00
-1.00,-23.00,-8.00,-3.00,+1.00,+42.00,+3.00,-9.00,-24.00,+7.00,-7.00,-12.00,-7.00,+3.00,-5.00,-6.00
-5.00,+2.00,+1.00,+3.00,+1.00,+28.00,-3.00,-76.00,+62.00,+0.00,+1.00,-3.00,+5.00,-5.00,+10.00,+29.00
-1.00,+39.00,+8.00,-5.00,-5.00,-56.00,-6.00,+8.00,+13.00,+14.00,+7.00,+0.00,-14.00,-6.00,+1.00,+66.00
-1.00,+2.00,+8.00,-3.00,+20.00,+78.00,+15.00,-6.00,-53.00,+1.00,+2.00,+6.00,+7.00,+29.00,+10.00,-19.00
+5.00,+7.00,-4.00,-12.00,-7.00,-10.00,-3.00,+11.00,-49.00,-32.00,-5.00,+4.00,-1.00,+16.00,-6.00,-16.00
+1.00,-26.00,-12.00,-1.00,-11.00,-7.00,-10.00,+9.00,-29.00,+8.00,+14.00,-4.00,-8.00,+1.00,-9.00,-7.00
-5.00,-22.00,+3.00,-1.00,+3.00,+3.00,-1.00,-26.00,-41.00,+4.00,-17.00,-13.00,-7.00,-7.00,-12.00,-69.00
+1.00,+43.00,-6.00,+2.00,-9.00,-34.00,-2.00,-21.00,-7.00,-25.00,-23.00,-10.00,-23.00,-27.00,-25.00,-49.00
-2.00,-21.00,-3.00,-12.00,+2.00,+19.00,+10.00,+11.00,+11.00,-34.00,-12.00,-10.00,+18.00,-13.00,+2.00,+1.00
-3.00,-46.00,+2.00,-7.00,+5.00,-2.00,+1.00,-7.00,+77.00,+71.00,+13.00,-3.00,+73.00,+33.00,+18.00,+59.00
-1.00,+54.00,+9.00,+4.00,-4.00,+10.00,-1.00,+12.00,+25.00,+0.00,+23.00,+18.00,-68.00,-4.00,+49.00,+8.00
+4.00,+33.00,+2.00,-1.00,+1.00,+0.00,-4.00,+3.00,-3.00,+24.00,+5.00,+9.00,+15.00,-7.00,-7.00,+13.00
+1.00,-25.00,-16.00,-6.00,+2.00,+20.00,+5.00,+11.00,-7.00,+5.00,+2.00,+3.00,+9.00,+1.00,+3.00,-24.00
+4.00,+13.00,+2.00,+0.00,-11.00,-28.00,-3.00,+15.00,-64.00,-39.00,-11.00,-3.00,+8.00,-20.00,-15.00,-11.00
-1.00,-31.00,+4.00,-1.00,+3.00,+13.00,-3.00,-5.00,-20.00,-9.00,-15.00,-12.00,+8.00,+2.00,-52.00,-32.00
+0.00,-13.00,+2.00,-14.00,+3.00,-1.00,-5.00,-20.00,+41.00,-8.00,+2.00,-2.00,-8.00,+8.00,+48.00,+87.00
+1.00,-11.00,+0.00,-14.00,-22.00,-97.00,-33.00,-12.00,-19.00,+7.00,+0.00,+0.00,+10.00,-2.00,+10.00,-5.00
-4.00,+5.00,+1.00,+11.00,+24.00,+88.00,+55.00,+14.00,+6.00,+6.00,+2.00,+1.00,-29.00,-1.00,+3.00,+41.00
+0.00,-2.00,+2.00,-1.00,+6.00,+41.00,+0.00,-2.00,-14.00,+9.00,-1.00,-3.00,+9.00,+3.00,-13.00,-43.00
-1.00,+10.00,-23.00,-7.00,+1.00,+24.00,+1.00,+16.00,-7.00,+12.00,+22.00,+4.00,-12.00,-12.00,-12.00,+7.00
-6.00,+4.00,+12.00,-7.00,-5.00,+12.00,-7.00,-9.00,-56.00,-57.00,-22.00,-15.00,-6.00,+0.00,-24.00,-20.00
+1.00,-7.00,-6.00,-2.00,-13.00,-53.00,-21.00,+17.00,+54.00,+61.00,-20.00,-3.00,-4.00,+0.00,+16.00,+34.00
+1.00,+1.00,-1.00,+4.00,-1.00,+1.00,+2.00,-46.00,-29.00,-28.00,+3.00,-4.00,+6.00,+6.00,+5.00,-5.00
-4.00,-29.00,+4.00,+2.00,-15.00,-11.00,+2.00,+4.00,-7.00,+17.00,+1.00,+5.00,+20.00,-5.00,-6.00,+24.00
-4.00,+12.00,+3.00,-3.00,+15.00,+25.00,+7.00,-9.00,+18.00,+13.00,+9.00,+2.00,+25.00,+5.00,+9.00,-10.00
+0.00,+3.00,-12.00,-17.00,-7.00,-21.00,-7.00,+34.00,-51.00,-24.00,+5.00,+8.00,-50.00,-10.00,-23.00,-41.00
-7.00,+15.00,+19.00,+5.00,+7.00,+17.00,+12.00,+4.00,-54.00,-6.00,-3.00,-4.00,+24.00,-6.00,+1.00,-10.00
-2.00,-20.00,-21.00,-14.00,-14.00,-40.00,-22.00,-15.00,-8.00,-12.00,-15.00,-17.00,-2.00,+1.00,-2.00,-7.00
+5.00,-17.00,-16.00,+14.00,-5.00,+10.00,-1.00,-14.00,-17.00,+24.00,+8.00,+5.00,-40.00,-5.00,+16.00,+42.00
-6.00,+38.00,+8.00,+5.00,-4.00,-19.00,-1.00,-16.00,-55.00,-44.00,-11.00,-3.00,+1.00,+3.00,-20.00,-50.00
+0.00,-16.00,-3.00,-9.00,+2.00,+23.00,+5.00,+39.00,+11.00,+28.00,+12.00,+9.00,+24.00,+24.00,+11.00,+21.00
+3.00,+11.00,-1.00,-6.00,+0.00,-26.00,+4.00,+16.00,+11.00,-27.00,-2.00,+3.00,+21.00,-10.00,-24.00,-19.00
-1.00,+1.00,+16.00,-13.00,+10.00,+34.00,+5.00,+2.00,+52.00,+32.00,+6.00,-3.00,-1.00,+2.00,-1.00,+16.00
+0.00,-4.00,-4.00,-1.00,-10.00,-51.00,-17.00,-22.00,-42.00,-14.00,+3.00,-8.00,-7.00,-21.00,-13.00,-24.00
-1.00,-3.00,+0.00,-2.00,+1.00,+25.00,+0.00,-3.00,+3.00,-25.00,-18.00,+0.00,-18.00,-9.00,-6.00,-20.00
+1.00,-7.00,+0.00,+7.00,-5.00,-15.00,+6.00,-14.00,+29.00,-15.00,-14.00,-11.00,-4.00,+4.00,+2.00,-57.00
+1.00,+9.00,-4.00,+3.00,+11.00,+12.00,-3.00,+9.00,+56.00,+54.00,+17.00,+0.00,+16.00,+3.00,-1.00,+7.00
+0.00,-15.00,+2.00,-4.00,-7.00,-12.00,-5.00,-5.00,+37.00,+8.00,+11.00,+19.00,-42.00,-1.00,+8.00,+25.00
-3.00,+1.00,-1.00,-6.00,-1.00,-24.00,-2.00,-9.00,+13.00,+2.00,-6.00,-9.00,+19.00,-1.00,+11.00,+22.00
-6.00,+1.00,+13.00,+4.00,+3.00,+26.00,+3.00,+7.00,-19.00,-14.00,-6.00,-3.00,-18.00,-9.00,-13.00,-12.00
-5.00,+7.00,-15.00,+1.00,-6.00,-18.00,+1.00,-15.00,+3.00,-14.00,-5.00,-4.00,-9.00,-2.00,+10.00,+14.00
+1.00,+1.00,+6.00,-1.00,+1.00,+10.00,-5.00,+8.00,-17.00,-2.00,+4.00,+5.00,+30.00,+6.00,+7.00,-21.00
+2.00,-45.00,+3.00,+26.00,-2.00,-16.00,-5.00,-8.00,+17.00,+14.00,+3.00,+4.00,+45.00,-2.00,-9.00,+19.00
+3.00,+73.00,-7.00,-1.00,-4.00,-18.00,-1.00,-5.00,-8.00,+10.00,+12.00,+1.00,-67.00,-3.00,-18.00,+13.00
-1.00,+5.00,+7.00,+18.00,-11.00,+16.00,+2.00,-5.00,-20.00,-7.00,+7.00,+7.00,+9.00,-9.00,+3.00,-54.00
+3.00,-14.00,-17.00,+16.00,+10.00,+40.00,+3.00,+1.00,-18.00,-23.00,-18.00,-12.00,-45.00,-2.00,-7.00,+7.00
-5.00,+25.00,+12.00,-15.00,-4.00,-10.00,-2.00,-13.00,+10.00,-2.00,-2.00,+3.00,-5.00,+3.00,+52.00,+27.00
+1.00,-30.00,+4.00,+8.00,+4.00,+4.00,-1.00,+14.00,-25.00,-4.00,-3.00,-1.00,+29.00,+2.00,+6.00,-8.00
-1.00,+6.00,+3.00,+1.00,+5.00,+13.00,+6.00,+29.00,+54.00,+18.00,+8.00,+3.00,+93.00,+37.00,+1.00,+50.00
+4.00,-7.00,-9.00,+7.00,-6.00,-4.00,-6.00,+28.00,-14.00,-8.00,+2.00,+17.00,-46.00,-11.00,-14.00,-23.00
+3.00,+3.00,+3.00,+3.00,-3.00,-32.00,-3.00,-4.00,+22.00,+12.00,-1.00,-15.00,-29.00,-12.00,-16.00,-11.00
-3.00,-5.00,+4.00,+8.00,+4.00,+42.00,-8.00,-40.00,-10.00,+1.00,-15.00,-9.00,-20.00,-5.00,+4.00,+15.00
-2.00,-14.00,-12.00,-2.00,-3.00,-17.00,+4.00,-7.00,-19.00,-35.00,-22.00,-14.00,-10.00,-13.00,-33.00,-32.00
-1.00,-19.00,+3.00,+7.00,+3.00,-3.00,-6.00,-16.00,-72.00,-29.00,-8.00,-12.00,+32.00,+1.00,+10.00,-26.00
+5.00,+26.00,-1.00,-12.00,-9.00,-9.00,-10.00,+12.00,+100.00,+33.00,+11.00,+5.00,-18.00,-1.00,-12.00,-45.00
+0.00,+6.00,+13.00,+7.00,+4.00,-94.00,+3.00,+11.00,-1.00,+9.00,+22.00,+11.00,+18.00,+6.00,+18.00,+6.00
-1.00,-12.00,-2.00,+15.00,+23.00,+95.00,+10.00,-8.00,-41.00,-11.00,-4.00,+1.00,-23.00,-6.00,-12.00,-11.00
-1.00,+2.00,-13.00,+10.00,-10.00,-14.00,-1.00,-4.00,+15.00,-1.00,+6.00,-3.00,+14.00,+0.00,-1.00,-20.00
+0.00,+2.00,-33.00,+6.00,-1.00,+5.00,+1.00,+3.00,-42.00,-29.00,-5.00,+0.00,+1.00,-7.00,-20.00,-14.00
-1.00,+16.00,+26.00,-8.00,-3.00,-8.00,-8.00,+1.00,-5.00,-1.00,-8.00,-6.00,-15.00,+6.00,+1.00,-19.00
+0.00,+2.00,-2.00,-27.00,-11.00,-24.00,-10.00,-3.00,-9.00,+7.00,-5.00,-1.00,-24.00,-6.00,-4.00,+7.00
+2.00,-77.00,+15.00,+34.00,+16.00,+13.00,+22.00,-12.00,-15.00,-9.00,-5.00,+1.00,+5.00,-5.00,-5.00,-1.00
-5.00,+58.00,+1.00,-3.00,+3.00,+19.00,+0.00,+0.00,-7.00,+2.00,-5.00,-7.00,-7.00,-1.00,-7.00,+5.00
+1.00,-22.00,-23.00,-16.00,-3.00,+6.00,+1.00,+10.00,-1.00,+1.00,-3.00,+0.00,+46.00,-5.00,+29.00,-1.00
+1.00,+19.00,+21.00,-11.00,-2.00,-18.00,-5.00,-1.00,+19.00,+1.00,+3.00,+0.00,-40.00,+23.00,+24.00,+48.00
-3.00,-1.00,-9.00,-19.00,-12.00,+0.00,-8.00,-4.00,-39.00,-14.00,+2.00,-7.00,-32.00,-3.00,-5.00,-31.00
+2.00,-32.00,-6.00,+5.00,-11.00,-49.00,-1.00,+8.00,+19.00,+14.00,-3.00,+10.00,+22.00,+6.00,+10.00,+58.00
-2.00,-9.00,-8.00,-7.00,+4.00,+21.00,-1.00,-6.00,+32.00,+16.00,+5.00,+8.00,+25.00,+0.00,-6.00,-12.00
+0.00,-14.00,-10.00,-9.00,-10.00,-18.00,-5.00,-8.00,-46.00,-11.00,-5.00,-2.00,+20.00,-20.00,-12.00,-24.00
+1.00,+34.00,+3.00,-6.00,+1.00,-5.00,-4.00,-7.00,+63.00,+8.00,+5.00,-7.00,-18.00,+6.00,+2.00,+42.00
-1.00,-5.00,+8.00,-1.00,-3.00,-2.00,-4.00,+9.00,+35.00,+18.00,+12.00,+13.00,-1.00,+5.00,+16.00,+15.00
-5.00,+19.00,+7.00,+3.00,+4.00,+1.00,+3.00,-22.00,-13.00,-22.00,-18.00,-16.00,+9.00,-10.00,-50.00,-18.00
-6.00,-9.00,-17.00,-6.00,+1.00,+17.00,+6.00,+11.00,-9.00,-11.00,-9.00,+1.00,-31.00,+0.00,+21.00,-17.00
+3.00,+9.00,+4.00,-13.00,+2.00,-2.00,-4.00,+4.00,+1.00,+11.00,-7.00,-3.00,+46.00,+0.00,+7.00,+2.00
+3.00,-3.00,+1.00,+9.00,+3.00,+6.00,+4.00,+8.00,-14.00,-8.00,+0.00,-3.00,-36.00,-4.00,+23.00,-4.00
+0.00,-7.00,+3.00,-10.00,-3.00,+22.00,-5.00,+14.00,+26.00,+6.00,+5.00,+0.00,+2.00,+3.00,+3.00,+1.00
+1.00,+10.00,-3.00,-7.00,-2.00,-14.00,-4.00,-9.00,-12.00,-20.00,-8.00,-4.00,+44.00,-13.00,-16.00,-6.00
-6.00,+4.00,-6.00,+4.00,-10.00,-20.00,-4.00,-22.00,-1.00,-3.00,+0.00,-3.00,-37.00,-3.00,-2.00,+21.00
+0.00,+20.00,+18.00,+5.00,+5.00,+0.00,+2.00,+12.00,+8.00,+19.00,+13.00,+4.00,+14.00,+3.00,-5.00,+51.00
-1.00,-6.00,-11.00,-7.00,-3.00,+10.00,-3.00,-3.00,-18.00,-6.00,+2.00,+0.00,-7.00,+1.00,+3.00,-17.00
-3.00,-18.00,+9.00,+3.00,-5.00,-26.00,-2.00,-16.00,+21.00,+8.00,+5.00,+1.00,-1.00,-3.00,-4.00,-18.00
-4.00,-4.00,-18.00,-15.00,+1.00,+31.00,+3.00,+7.00,+32.00,+5.00,-3.00,-1.00,-9.00,-17.00,-6.00,-41.00
+1.00,-8.00,+6.00,+2.00,+0.00,-6.00,-4.00,-7.00,-7.00,-40.00,-25.00,-14.00,+1.00,-1.00,-12.00,-48.00
-1.00,+9.00,-2.00,-2.00,-5.00,-4.00,-1.00,-3.00,+75.00,+16.00,+7.00,-9.00,+15.00,+3.00,+12.00,+44.00
+5.00,-16.00,+8.00,+3.00,+8.00,+3.00,+2.00,+3.00,+11.00,-1.00,-1.00,+0.00,-52.00,+13.00,-19.00,-2.00
-2.00,-3.00,-1.00,-8.00,-1.00,-6.00,+3.00,-17.00,+17.00,+6.00,+4.00,+18.00,-7.00,+7.00,+27.00,-13.00
-1.00,+4.00,-1.00,-8.00,-3.00,+0.00,-5.00,-2.00,-45.00,+13.00,+14.00,+6.00,-7.00,-7.00,-8.00,-3.00
-1.00,+11.00,-4.00,+6.00,-1.00,+31.00,+5.00,+14.00,-18.00,+2.00,+2.00,+10.00,-6.00,-9.00,+12.00,+13.00
-5.00,-22.00,-21.00,+13.00,-7.00,-23.00,-12.00,-14.00,-21.00,-4.00,-7.00,-12.00,+10.00,+0.00,-9.00,-3.00
+2.00,+12.00,+9.00,-3.00,-1.00,-2.00,-4.00,+6.00,-7.00,-34.00,-16.00,-18.00,+26.00,-3.00,-17.00,-48.00
-4.00,-38.00,-8.00,-11.00,-1.00,-28.00,-13.00,-2.00,+65.00,+26.00,+2.00,+2.00,+1.00,+9.00,+7.00,+65.00
-1.00,+3.00,+5.00,+7.00,+8.00,-13.00,+30.00,+11.00,-31.00,+9.00,+7.00,+6.00,-14.00,+5.00,+23.00,+34.00
+2.00,+14.00,+6.00,+2.00,+18.00,+86.00,+2.00,+2.00,-7.00,+11.00,+15.00,+2.00,+2.00,-7.00,-3.00,+3.00
-7.00,+10.00,+10.00,-9.00,-1.00,+10.00,+6.00,+0.00,-20.00,-13.00,-12.00,-5.00,+6.00,-4.00,-23.00,-15.00
+3.00,+4.00,-11.00,-5.00,-6.00,+7.00,+0.00,-7.00,-23.00,-30.00,-11.00,-14.00,+29.00,-10.00,-16.00,-55.00
-2.00,-8.00,+1.00,-4.00,-8.00,-25.00,-18.00,-6.00,+7.00,-6.00,-9.00,-4.00,-36.00,+2.00,+10.00,+6.00
+2.00,-9.00,-4.00,-12.00,-10.00,-38.00,-5.00,+10.00,-1.00,+2.00,+1.00,+3.00,+4.00,+7.00,+26.00,+6.00
+3.00,-6.00,+6.00,+7.00,+8.00,-1.00,+6.00,+12.00,-9.00,-3.00,+0.00,-4.00,+4.00,-4.00,-11.00,-7.00
+2.00,-3.00,-9.00,-6.00,-1.00,+19.00,-8.00,-19.00,-25.00,+6.00,+2.00,+3.00,-19.00,+2.00,+6.00,+6.00
-1.00,-23.00,-14.00,-7.00,-7.00,-23.00,-12.00,+6.00,+4.00,+9.00,+1.00,-2.00,+6.00,-5.00,-28.00,-16.00
-4.00,+36.00,+14.00,-2.00,-8.00,-12.00,+1.00,+10.00,+13.00,-3.00,-6.00,+3.00,-10.00,-7.00,-13.00,+25.00
-2.00,+3.00,-6.00,-2.00,-4.00,-5.00,-13.00,+15.00,-15.00,+0.00,+0.00,+1.00,+22.00,+3.00,+14.00,+2.00
-2.00,-1.00,+10.00,+11.00,+10.00,-2.00,+8.00,-16.00,-15.00,+0.00,+3.00,-1.00,-4.00,-2.00,-25.00,-24.00
-7.00,+2.00,-11.00,-11.00,-5.00,+9.00,+9.00,-70.00,-26.00,-8.00,+6.00,+7.00,-3.00,+2.00,+10.00,+11.00
-1.00,+2.00,+1.00,-8.00,+4.00,-6.00,-1.00,-12.00,-2.00,+12.00,-2.00,-5.00,-15.00,-5.00,-1.00,-7.00
-1.00,-2.00,+2.00,-3.00,+3.00,-6.00,+5.00,+0.00,+7.00,-13.00,-17.00,-11.00,+0.00,+1.00,-2.00,+42.00
+2.00,-7.00,-10.00,+3.00,-5.00,-3.00,+1.00,+21.00,-36.00,-14.00,-13.00,-11.00,-13.00,-7.00,-5.00,-38.00
+0.00,-9.00,+3.00,+3.00,-4.00,-6.00,-6.00,+8.00,+30.00,-31.00,-12.00,-8.00,+10.00,+6.00,-8.00,-10.00
+1.00,+17.00,+6.00,-2.00,+5.00,+15.00,+6.00,+10.00,-60.00,+24.00,+6.00,+2.00,-35.00,-7.00,+0.00,-15.00
-2.00,+11.00,+12.00,-8.00,+5.00,-8.00,+1.00,+0.00,+46.00,+43.00,+19.00,+23.00,+39.00,+2.00,+3.00,+61.00
-3.00,-9.00,-15.00,-1.00,-3.00,+17.00,+4.00,+14.00,-16.00,+4.00,+1.00,+0.00,+6.00,-1.00,-11.00,-19.00
+4.00,-13.00,-7.00,+2.00,-10.00,-21.00,-10.00,+13.00,-55.00,-24.00,-4.00,+1.00,-30.00,+5.00,+18.00,-13.00
-2.00,+13.00,+19.00,+11.00,-5.00,-2.00,+3.00,-17.00,+29.00,-1.00,-4.00,-8.00,+3.00,-13.00,+10.00,-1.00
+3.00,+11.00,-6.00,+1.00,-4.00,-6.00,-12.00,-6.00,-81.00,-13.00,+1.00,-4.00,-1.00,+24.00,-5.00,-40.00
-3.00,-1.00,+17.00,-6.00,+6.00,-20.00,+4.00,-5.00,-25.00,-4.00,-1.00,+2.00,+1.00,-2.00,+8.00,+29.00
-3.00,-18.00,-11.00,+1.00,+7.00,+44.00,+5.00,+17.00,-7.00,+8.00,+5.00,+0.00,+11.00,-10.00,-11.00,+13.00
-1.00,-17.00,-8.00,-3.00,-3.00,-3.00,-1.00,-7.00,+8.00,-4.00,-6.00,+1.00,+16.00,+0.00,-19.00,-5.00
-2.00,+18.00,+11.00,-1.00,+5.00,-6.00,+0.00,-26.00,-8.00,+1.00,+2.00,-1.00,-60.00,+10.00,+5.00,+0.00
-1.00,+17.00,-1.00,+10.00,-2.00,+16.00,+1.00,+22.00,-10.00,-11.00,-7.00,-8.00,+20.00,+2.00,-6.00,-2.00
+4.00,+0.00,+2.00,+3.00,-7.00,-19.00,-9.00,-5.00,-23.00,+3.00,-2.00,+6.00,+1.00,+2.00,-9.00,-10.00
+3.00,-8.00,-3.00,+8.00,-1.00,-8.00,-1.00,+6.00,+0.00,+0.00,-4.00,+1.00,+12.00,+0.00,+4.00,-3.00
-5.00,+2.00,-1.00,-11.00,-10.00,-10.00,+2.00,+9.00,-6.00,-1.00,-1.00,+3.00,+22.00,-15.00,-23.00,-17.00
+4.00,+3.00,-1.00,+7.00,+2.00,+1.00,+0.00,+9.00,-26.00,+7.00,+10.00,+8.00,-1.00,+4.00,-8.00,-12.00
-1.00,-4.00,+0.00,+2.00,-1.00,+8.00,-3.00,+8.00,-33.00,-11.00,+0.00,-3.00,-14.00,-5.00,+11.00,+7.00
+1.00,+8.00,+0.00,+14.00,+8.00,-2.00,+0.00,-18.00,-13.00,+8.00,-1.00,-6.00,+8.00,+5.00,+16.00,-11.00
-2.00,-9.00,-11.00,+2.00,-8.00,-16.00,-7.00,-6.00,+10.00,+10.00,+4.00,+1.00,+9.00,+2.00,+12.00,+26.00
+0.00,-9.00,+1.00,+17.00,-2.00,-4.00,-3.00,-45.00,+1.00,+9.00,-2.00,-4.00,-23.00,-7.00,-8.00,-17.00
-3.00,+2.00,+0.00,-8.00,+4.00,+1.00,+3.00,+9.00,-14.00,-27.00,-16.00,-6.00,-2.00,-9.00,-16.00,-20.00
+1.00,-1.00,+2.00,-8.00,-5.00,-17.00,-6.00,+10.00,-22.00,-5.00,-6.00,+1.00,+17.00,+7.00,-10.00,+31.00
+2.00,+11.00,+3.00,+0.00,-4.00,+4.00,+13.00,+4.00,+0.00,+16.00,+6.00,+0.00,-7.00,-5.00,-1.00,-3.00
-2.00,-2.00,-5.00,+0.00,+2.00,+7.00,+6.00,+21.00,+19.00,+20.00,+5.00,+5.00,-5.00,+3.00,+1.00,+11.00
+6.00,+2.00,+1.00,+8.00,-1.00,-5.00,-3.00,-4.00,-6.00,+7.00,+9.00,+1.00,+3.00,-5.00,+3.00,-10.00
-6.00,-21.00,-18.00,-17.00,-9.00,-14.00,-6.00,-2.00,+26.00,-14.00,-10.00,-3.00,-3.00,-2.00,-8.00,+1.00
+0.00,+12.00,+12.00,-2.00,-1.00,-1.00,-6.00,-10.00,+24.00,-7.00,-10.00,-7.00,-2.00,-3.00,+6.00,+10.00
-4.00,+7.00,+4.00,-2.00,-3.00,+6.00,-3.00,+5.00,+18.00,-16.00,-3.00,-2.00,+11.00,+3.00,+9.00,-13.00
-1.00,-12.00,-2.00,-9.00,+1.00,-9.00,-2.00,+0.00,+55.00,+18.00,+2.00,+0.00,+1.00,+3.00,+0.00,+52.00
+0.00,+4.00,+3.00,-5.00,-1.00,+7.00,+4.00,-12.00,+21.00,-15.00,-3.00,-5.00,+15.00,-6.00,-5.00,-26.00
+5.00,-9.00,+2.00,+20.00,+14.00,+15.00,+6.00,+18.00,+16.00,-2.00,-1.00,+0.00,+23.00,+7.00,+1.00,-2.00
-2.00,+0.00,-6.00,-16.00,+2.00,+6.00,+1.00,+0.00,-17.00,-12.00,-8.00,-4.00,-49.00,-9.00,-2.00,-30.00
-1.00,-15.00,-12.00,+0.00,-9.00,-13.00,-11.00,-4.00,-42.00,+9.00,+3.00,-3.00,-9.00,+0.00,-13.00,-15.00
-3.00,-4.00,-4.00,+0.00,-1.00,+0.00,-1.00,-4.00,-105.00,+1.00,+0.00,+4.00,-3.00,+2.00,+17.00,+34.00
+0.00,+6.00,-2.00,-5.00,-6.00,-10.00,-6.00,-4.00,-78.00,-8.00,-2.00,-6.00,-9.00,-7.00,-11.00,-10.00
+1.00,+9.00,+16.00,+8.00,+3.00,+8.00,+8.00,-3.00,-18.00,+1.00,+2.00,+3.00,+38.00,+12.00,+19.00,+50.00
+1.00,+12.00,+2.00,+3.00,+3.00,-20.00,+0.00,-1.00,+31.00,+6.00,-6.00,-3.00,+4.00,-5.00,-5.00,-19.00
-6.00,-16.00,-6.00,-7.00,-12.00,-8.00,-2.00,+2.00,+2.00,+4.00,+8.00,+3.00,+10.00,-1.00,-13.00,-12.00
-4.00,-11.00,-9.00,-1.00,+3.00,+0.00,-3.00,-5.00,+109.00,-9.00,-6.00,-7.00,-26.00,-9.00,+0.00,-9.00
+5.00,-15.00,-4.00,-1.00,+3.00,+5.00,+0.00,+38.00,-59.00,-7.00,+0.00,+1.00,-19.00,-2.00,-21.00,-19.00
-5.00,+15.00,+7.00,-11.00,+4.00,+8.00,-2.00,-40.00,-56.00,+0.00,+0.00,-2.00,-1.00,+1.00,+11.00,+20.00
-2.00,+18.00,+4.00,-3.00,+2.00,-6.00,-1.00,+5.00,-109.00,-1.00,-4.00,+1.00,+4.00,+4.00,-2.00,-9.00
-3.00,-15.00,-1.00,-3.00,-10.00,+5.00,+2.00,-3.00,-128.00,+6.00,+5.00,-2.00,+18.00,-2.00,+3.00,+6.00
+1.00,-19.00,-14.00,-1.00,-7.00,+2.00,-5.00,-5.00,-69.00,-21.00,-28.00,-16.00,-24.00,-14.00,-21.00,-19.00
+2.00,-2.00,-1.00,+1.00,-2.00,-15.00,+2.00,+6.00,-23.00,-3.00,+3.00,+1.00,+8.00,+2.00,+16.00,-13.00
-1.00,+9.00,-6.00,-10.00,-3.00,+0.00,-6.00,+1.00,+51.00,-7.00,-1.00,+2.00,-16.00,+2.00,+10.00,+3.00
+3.00,+0.00,+24.00,+15.00,+7.00,+10.00,+5.00,-2.00,+91.00,+6.00,+7.00,+4.00,+5.00,-1.00,-6.00,+12.00
-3.00,+5.00,+9.00,-3.00,+0.00,-4.00,+3.00,-12.00,+57.00,+5.00,+12.00,+1.00,+2.00,+3.00,+20.00,-23.00
-3.00,-5.00,-21.00,-10.00,-4.00,+1.00,-3.00,+5.00,+55.00,+3.00,-4.00,-5.00,-6.00,-3.00,-17.00,-84.00
+3.00,-22.00,+7.00,+15.00,-1.00,-6.00,+2.00,-8.00,+65.00,+0.00,+0.00,-2.00,-8.00,-2.00,-10.00,+5.00
-2.00,+10.00,-9.00,+4.00,-4.00,-5.00,-5.00,+16.00,+37.00,+1.00,-4.00,+0.00,-1.00,-1.00,+17.00,+66.00
+3.00,-2.00,-5.00,+2.00,-1.00,-2.00,-1.00,-11.00,+52.00,+0.00,+4.00,+1.00,+0.00,-3.00,-6.00,-7.00
-3.00,+17.00,+21.00,-4.00,+7.00,+10.00,+4.00,+3.00,+32.00,-3.00,-1.00,-2.00,-9.00,+4.00,-4.00,+13.00
+1.00,-12.00,-15.00,-3.00,+0.00,+3.00,+0.00,+17.00,+33.00,-5.00,+2.00,-3.00,-8.00,-3.00,-1.00,-34.00
+3.00,-6.00,-3.00,-3.00,-2.00,+4.00,-2.00,+8.00,+5.00,-1.00,+1.00,+0.00,+10.00,+3.00,-12.00,-26.00
-1.00,+0.00,-3.00,-2.00,-8.00,-11.00,-7.00,-5.00,+34.00,+0.00,+0.00,-3.00,+51.00,+4.00,+2.00,+30.00
-4.00,-8.00,-7.00,+1.00,+3.00,+5.00,+2.00,+12.00,+113.00,+1.00,-5.00,+5.00,-71.00,-9.00,+4.00,+4.00
-1.00,+6.00,+2.00,-1.00,-1.00,-4.00,+0.00,-1.00,+127.00,-1.00,+1.00,-5.00,-18.00,-7.00,-9.00,+4.00
-6.00,-5.00,-15.00,+2.00,+0.00,+15.00,+7.00,+24.00,+121.00,-1.00,-2.00,+1.00,+15.00,+1.00,-1.00,+1.00
-1.00,+3.00,+19.00,+9.00,-2.00,-5.00,-9.00,-10.00,-24.00,-1.00,-1.00,+1.00,+2.00,+1.00,+19.00,+13.00
+2.00,+10.00,+12.00,-2.00,+6.00,+10.00,+2.00,+2.00,-2.00,-7.00,+0.00,-2.00,+32.00,+0.00,-11.00,-24.00
+0.00,+0.00,-4.00,-18.00,-7.00,-7.00,+4.00,-11.00,-96.00,-4.00,-2.00,-6.00,-27.00,+2.00,+5.00,+20.00
+0.00,-1.00,-6.00,-16.00,-15.00,-25.00,-9.00,-10.00,-37.00,+19.00,+11.00,+5.00,-16.00,-4.00,+5.00,-1.00
+1.00,-15.00,-15.00,+11.00,+15.00,+60.00,+10.00,+10.00,-27.00,+0.00,-11.00,-4.00,-5.00,+0.00,-10.00,+6.00
+2.00,+1.00,+5.00,+2.00,-5.00,-3.00,-3.00,-2.00,-89.00,-1.00,+2.00,-1.00,+4.00,-3.00,-7.00,-9.00
+1.00,+1.00,+9.00,-2.00,+5.00,-1.00,+1.00,+12.00,+12.00,-3.00,-3.00,+0.00,-1.00,-1.00,+7.00,+41.00
-2.00,-1.00,-9.00,-11.00,-4.00,+2.00,-3.00,-14.00,-68.00,-8.00,+3.00,-2.00,-2.00,-2.00,+7.00,-12.00
-1.00,-2.00,-6.00,-5.00,-8.00,-21.00,-8.00,+2.00,+7.00,+0.00,+3.00,-1.00,-11.00,-7.00,-17.00,-3.00
-3.00,-4.00,-4.00,-1.00,-2.00,-4.00,+2.00,-14.00,+10.00,+1.00,+3.00,+2.00,+13.00,+0.00,-17.00,+17.00
-1.00,-10.00,-1.00,-3.00,+1.00,+11.00,+2.00,-1.00,+21.00,-4.00,+1.00,-1.00,+3.00,+5.00,+14.00,+4.00
+0.00,-3.00,-4.00,+8.00,+2.00,-24.00,-2.00,-13.00,-15.00,-5.00,-4.00,-3.00,+6.00,+3.00,+5.00,-43.00
-2.00,+10.00,+10.00,-4.00,+2.00,-4.00,+2.00,-5.00,+23.00,+0.00,+3.00,+0.00,-7.00,-3.00,-2.00,+13.00
+1.00,+5.00,+12.00,+5.00,+9.00,+11.00,+9.00,+6.00,+0.00,-4.00,-8.00,-3.00,+7.00,-2.00,+11.00,+0.00
+3.00,-12.00,-9.00,-14.00,-6.00,-4.00,-3.00,+5.00,+12.00,-1.00,+0.00,-3.00,+2.00,+2.00,-15.00,-12.00
+0.00,+7.00,+5.00,-3.00,+2.00,+1.00,-8.00,-33.00,+1.00,-6.00,-9.00,-8.00,+30.00,+1.00,-5.00,+3.00
+1.00,+1.00,-3.00,-7.00,-2.00,-11.00,-1.00,+2.00,+8.00,-1.00,-1.00,-5.00,-56.00,-5.00,+3.00,-15.00
-5.00,-8.00,-4.00,-3.00,+0.00,+10.00,+3.00,-10.00,-4.00,+0.00,-4.00,+5.00,+20.00,-9.00,-11.00,-5.00
-1.00,+5.00,+4.00,+0.00,+4.00,-2.00,+1.00,-2.00,+95.00,+7.00,+3.00,+1.00,+3.00,-2.00,-7.00,-38.00
+1.00,-5.00,-1.00,+1.00,-2.00,+3.00,-1.00,+10.00,+100.00,+5.00,+1.00,+7.00,+0.00,+4.00,+26.00,+38.00
-6.00,-1.00,-8.00,-6.00,-3.00,-3.00,+3.00,+17.00,+116.00,-2.00,+2.00,+4.00,+5.00,+4.00,+4.00,-4.00
+2.00,+0.00,-3.00,+4.00,-6.00,-17.00,-9.00,-13.00,+5.00,-5.00,+7.00,+1.00,+12.00,+6.00,+21.00,+23.00
-2.00,+2.00,+0.00,-7.00,+1.00,+0.00,-2.00,-13.00,-83.00,+4.00,-12.00,-7.00,-1.00,-6.00,-1.00,-15.00
+2.00,+5.00,+2.00,+7.00,+8.00,+27.00,+4.00,+11.00,-50.00,-13.00,-17.00,-10.00,-1.00,-6.00,-18.00,-26.00
-4.00,-14.00,-11.00,-1.00,-8.00,-10.00,-4.00,-6.00,-101.00,+12.00,+12.00,+3.00,+0.00,-3.00,+0.00,+15.00
+1.00,-5.00,-7.00,+6.00,-1.00,-19.00,+1.00,+11.00,-76.00,+0.00,-6.00,-2.00,-9.00,+0.00,-2.00,+5.00
-3.00,+20.00,+20.00,+0.00,+8.00,+10.00,+0.00,-5.00,-128.00,+0.00,-1.00,+1.00,+4.00,-2.00,-8.00,-14.00
-1.00,-6.00,+0.00,-3.00,+4.00,+5.00,+6.00,+8.00,-109.00,-3.00,+3.00,+0.00,-9.00,+0.00,-7.00,-1.00
-1.00,+2.00,-8.00,+6.00,-10.00,-12.00,-4.00,-13.00,-106.00,-5.00,-7.00,-2.00,+1.00,-2.00,+1.00,-2.00
-1.00,-5.00,-7.00,+7.00,-6.00,-2.00,-7.00,-8.00,-37.00,+4.00,+1.00,-1.00,+7.00,+2.00,-3.00,+6.00
-1.00,-14.00,-22.00,+3.00,-7.00,-20.00,-9.00,-6.00,-28.00,-5.00,+1.00,+1.00,-1.00,-2.00,+0.00,-7.00
+3.00,+0.00,+12.00,+8.00,+0.00,+3.00,-1.00,-3.00,-11.00,+2.00,+0.00,+0.00,-4.00,-2.00,-9.00,-44.00
+0.00,-1.00,+0.00,+13.00,+5.00,+4.00,+3.00,-8.00,+111.00,-4.00,+1.00,+1.00,+2.00,+0.00,+0.00,-14.00
+0.00,+1.00,+3.00,+5.00,-2.00,+6.00,+1.00,+4.00,+73.00,+3.00,+2.00,+0.00,-3.00,-2.00,-10.00,+9.00
+2.00,+2.00,-2.00,+9.00,+0.00,+3.00,-1.00,+0.00,+109.00,-10.00,-8.00,-9.00,-1.00,-2.00,+14.00,-2.00
+4.00,-2.00,+0.00,+7.00,+0.00,-5.00,-2.00,+4.00,+70.00,-5.00,-4.00,-1.00,-10.00,-1.00,+5.00,+11.00
+2.00,+0.00,-2.00,-4.00,-1.00,-2.00,-2.00,-11.00,+79.00,-3.00,-7.00,-3.00,+4.00,-3.00,-4.00,-1.00
+0.00,-4.00,+0.00,-5.00,+0.00,+5.00,+0.00,-11.00,+73.00,-8.00,-3.00,-3.00,-6.00,+2.00,+3.00,-11.00
+2.00,+9.00,+5.00,-1.00,+3.00,+6.00,+4.00,+4.00,+54.00,+15.00,+11.00,+9.00,+4.00,+2.00,+1.00,+19.00
-3.00,-1.00,-6.00,-7.00,-2.00,-4.00,-2.00,+0.00,-29.00,+1.00,-3.00,-2.00,-8.00,-2.00,+7.00,+9.00
-1.00,-1.00,-1.00,+9.00,-1.00,-2.00,+1.00,+33.00,-35.00,-5.00,-2.00,-3.00,+1.00,-2.00,-4.00,-5.00
-1.00,-1.00,-7.00,+3.00,-2.00,+3.00,-4.00,-5.00,-35.00,+1.00,-8.00,-3.00,-1.00,-3.00,-6.00,+2.00
-2.00,-11.00,-7.00,-9.00,-8.00,-10.00,-2.00,-6.00,+7.00,-6.00,-1.00,+0.00,+0.00,-1.00,-7.00,-12.00
-3.00,-1.00,-2.00,+7.00,-2.00,-8.00,-4.00,-6.00,+22.00,-4.00,+2.00,+0.00,+5.00,-3.00,-11.00,-5.00
-1.00,+4.00,+8.00,-8.00,+12.00,+9.00,+8.00,-5.00,+13.00,-2.00,-2.00,+0.00,-4.00,+2.00,+6.00,+11.00
-1.00,+4.00,+10.00,+2.00,+1.00,+14.00,+4.00,+8.00,+0.00,-1.00,-2.00,-1.00,-3.00,-3.00,+1.00,-24.00
+0.00,-4.00,-9.00,-6.00,-9.00,-10.00,-7.00,-7.00,-24.00,-1.00,+0.00,-1.00,-3.00,+1.00,+6.00,+14.00
+1.00,-9.00,-6.00,+4.00,+1.00,-8.00,-2.00,+6.00,-23.00,+0.00,+2.00,-2.00,-2.00,+1.00,-4.00,-4.00
-1.00,-9.00,-7.00,-2.00,-7.00,+3.00,-1.00,-5.00,-26.00,-6.00,-1.00,-3.00,+1.00,-1.00,-1.00,+1.00
+0.00,+5.00,+0.00,-5.00,+4.00,-1.00,-1.00,+7.00,-45.00,+5.00,+0.00,+0.00,+2.00,+2.00,+3.00,+6.00
-2.00,+2.00,+1.00,-6.00,+0.00,+1.00,+2.00,-4.00,-31.00,-1.00,+3.00,+1.00,-4.00,-2.00,+2.00,-5.00
-1.00,-2.00,-2.00,-5.00,-2.00,+2.00,+0.00,+6.00,-18.00,-4.00,-5.00,-3.00,-5.00,-2.00,-5.00,+1.00
-5.00,-1.00,+3.00,+0.00,+2.00,-5.00,+0.00,+4.00,-37.00,+2.00,-4.00,-2.00,+2.00,-1.00,+6.00,+5.00
+1.00,+2.00,+2.00,-4.00,-1.00,+3.00,+2.00,+8.00,-14.00,-1.00,-1.00,-4.00,-7.00,-1.00,-5.00,+7.00
-2.00,+1.00,+1.00,-6.00,-1.00,+2.00,-1.00,+7.00,+5.00,-2.00,-1.00,+5.00,+0.00,-5.00,-9.00,-15.00
-5.00,-1.00,+0.00,-2.00,-1.00,-1.00,-2.00,-7.00,-24.00,-7.00,+1.00,-1.00,+4.00,+3.00,-1.00,+9.00
+0.00,+4.00,+2.00,-2.00,+1.00,-6.00,-2.00,+4.00,+8.00,+8.00,-3.00,+2.00,-2.00,+3.00,+3.00,-12.00
+0.00,-1.00,-3.00,-13.00,-3.00,+8.00,+0.00,+2.00,+119.00,+2.00,-8.00,-4.00,-1.00,-1.00,+9.00,-13.00
+2.00,-1.00,-1.00,+7.00,-1.00,+3.00,-3.00,+0.00,+40.00,-4.00,+0.00,-1.00,+0.00,+0.00,-1.00,+6.00
+0.00,-3.00,-2.00,-2.00,-3.00,+0.00,+4.00,+15.00,+10.00,+5.00,+3.00,+0.00,-3.00,-6.00,-15.00,+3.00
+0.00,+8.00,+2.00,+4.00,-2.00,-1.00,-5.00,-7.00,-63.00,-5.00,-1.00,-1.00,+4.00,+0.00,+9.00,+3.00
-2.00,-3.00,+0.00,-8.00,-1.00,-7.00,-7.00,-9.00,-38.00,-6.00,-1.00,-4.00,-4.00,-3.00,-8.00,-4.00
+0.00,-12.00,-8.00,-4.00,-2.00,+1.00,-1.00,+0.00,+1.00,+5.00,+5.00,+1.00,-2.00,+1.00,-6.00,-7.00
-1.00,+9.00,+2.00,+7.00,-2.00,-14.00,-2.00,-17.00,-27.00,-5.00,-6.00,+0.00,-6.00,+3.00,+13.00,+2.00
+1.00,-1.00,-4.00,+9.00,-2.00,+0.00,-2.00,-20.00,-14.00,-5.00,+2.00,-1.00,+5.00,+2.00,+14.00,+9.00
-3.00,+2.00,+2.00,-7.00,+0.00,+0.00,+3.00,-3.00,-73.00,-1.00,-6.00,-2.00,-1.00,+1.00,+0.00,+13.00
+0.00,+1.00,+1.00,-6.00,+3.00,+4.00,+0.00,+5.00,-66.00,-5.00,-4.00,-2.00,-1.00,-3.00,-2.00,+2.00
+1.00,-3.00,-3.00,+1.00,-3.00,-5.00,-2.00,+0.00,-50.00,+0.00,+0.00,+1.00,-5.00,-4.00,-15.00,-16.00
+0.00,-1.00,+0.00,-1.00,+1.00,+0.00,-4.00,+0.00,-39.00,+0.00,+3.00,+2.00,+0.00,-2.00,-8.00,+9.00
-2.00,+7.00,+5.00,-3.00,+3.00,-1.00,+4.00,+5.00,-27.00,+1.00,+3.00,+3.00,+0.00,-1.00,+1.00,-1.00
-2.00,-5.00,-5.00,-2.00,-6.00,-6.00,-2.00,-11.00,-25.00,-4.00,+0.00,-3.00,+2.00,-1.00,-4.00,+1.00
+0.00,-4.00,-4.00,+1.00,-4.00,-7.00,-5.00,-15.00,-13.00,-1.00,-11.00,-2.00,-4.00,-3.00,-1.00,+0.00
-2.00,+1.00,+1.00,+9.00,+4.00,+14.00,+2.00,-5.00,+0.00,-5.00,-2.00,-4.00,-1.00,-2.00,-4.00,-13.00
-2.00,-3.00,+0.00,+0.00,-4.00,+2.00,-1.00,-1.00,-2.00,+2.00,+1.00,-3.00,-4.00,+1.00,-6.00,+4.00
+0.00,+6.00,+4.00,-4.00,+0.00,+1.00,+0.00,+5.00,+4.00,+0.00,+0.00,-1.00,+1.00,+1.00,+0.00,+3.00
-2.00,+0.00,+4.00,+1.00,+5.00,+2.00,+1.00,-3.00,+5.00,+6.00,+6.00,-1.00,-3.00,-1.00,+7.00,-1.00
-1.00,-3.00,-6.00,-7.00,-4.00,-5.00,-1.00,+3.00,+13.00,-8.00,-10.00,+0.00,+0.00,-1.00,-8.00,-4.00
+3.00,+1.00,-4.00,-1.00,-1.00,-6.00,-2.00,-1.00,-1.00,-10.00,-5.00,+2.00,+0.00,-1.00,+1.00,+1.00
-3.00,-7.00,+1.00,-1.00,-1.00,+0.00,-2.00,-1.00,-3.00,+4.00,-1.00,-3.00,-2.00,-1.00,-2.00,+7.00
-1.00,-3.00,-5.00,-1.00,-2.00,+1.00,+0.00,+1.00,+12.00,+3.00,+1.00,-4.00,-1.00,-1.00,-4.00,+0.00
+0.00,-8.00,+0.00,+2.00,-1.00,-4.00,-2.00,-17.00,+17.00,+0.00,+3.00,+1.00,-1.00,-2.00,-9.00,-6.00
-4.00,+8.00,-1.00,-10.00,-2.00,+2.00,-3.00,-2.00,+7.00,+1.00,+0.00,+1.00,+0.00,-2.00,+11.00,+3.00
-1.00,+11.00,-3.00,-3.00,-1.00,-5.00,-1.00,-6.00,+0.00,-9.00,-8.00,-3.00,-2.00,-1.00,-1.00,-4.00
-1.00,+0.00,+2.00,-4.00,+2.00,+6.00,+2.00,+3.00,+29.00,-2.00,-2.00,+0.00,+18.00,+1.00,-1.00,+2.00
+2.00,+3.00,-2.00,-9.00,-8.00,-7.00,-3.00,-1.00,+30.00,+5.00,+2.00,-3.00,-23.00,-5.00,-4.00,-8.00
-2.00,-10.00,-3.00,+2.00,-4.00,-2.00,-1.00,-4.00,+3.00,-3.00,+1.00,+2.00,+0.00,+2.00,-7.00,+1.00
-2.00,-3.00,-3.00,-1.00,+0.00,+2.00,-1.00,-1.00,-1.00,-3.00,-2.00,-2.00,-2.00,+0.00,+10.00,+12.00
-3.00,+0.00,-1.00,-3.00,-1.00,+3.00,-3.00,+5.00,-9.00,+2.00,+1.00,+0.00,+0.00,-4.00,-7.00,+2.00
+0.00,-5.00,+1.00,+1.00,-2.00,+0.00,+1.00,-3.00,-9.00,-6.00,-6.00,-2.00,+7.00,-1.00,-14.00,-7.00
-2.00,-4.00,-2.00,-4.00,-3.00,-3.00,-1.00,+0.00,-8.00,+2.00,+5.00,+1.00,-6.00,+2.00,+6.00,-11.00
+0.00,+2.00,+1.00,-1.00,-2.00,-20.00,-1.00,+3.00,-6.00,-4.00,-5.00,+0.00,+0.00,-4.00,-7.00,-8.00
-2.00,-3.00,-3.00,+0.00,+3.00,+28.00,+1.00,+7.00,-6.00,-3.00,+0.00,-1.00,-6.00,-1.00,+6.00,+1.00
+0.00,-2.00,-1.00,+2.00,+0.00,-4.00,-2.00,+7.00,+0.00,-1.00,-1.00,+1.00,+1.00,-3.00,-4.00,-4.00
