-8.00,+1.00,-1.00,-1.00,+1.00,+0.00,-1.00,-1.00,-1.00,+20.00,+1.00,+3.00,-7.00,-2.00,-1.00,-4.00
+1.00,-2.00,-1.00,+0.00,+0.00,+1.00,-3.00,+0.00,+6.00,+4.00,+1.00,-1.00,+3.00,+2.00,+3.00,+10.00
-4.00,+2.00,+1.00,-2.00,-1.00,+1.00,+0.00,-1.00,-15.00,-6.00,-4.00,-2.00,-2.00,-3.00,-4.00,-7.00
-5.00,-3.00,-2.00,-3.00,-2.00,-2.00,-3.00,-5.00,+33.00,+19.00,+2.00,-2.00,+2.00,+1.00,+1.00,+2.00
+1.00,-12.00,-4.00,+0.00,+0.00,+0.00,+2.00,+4.00,-4.00,-8.00,-1.00,+0.00,-4.00,-3.00,-1.00,+1.00
-8.00,+2.00,-2.00,-1.00,-1.00,-2.00,-1.00,-4.00,+1.00,+2.00,-5.00,-2.00,-5.00,-2.00,-3.00,-5.00
-1.00,-1.00,+1.00,-1.00,+2.00,+0.00,+2.00,+1.00,+1.00,+6.00,+1.00,-4.00,+3.00,-2.00,-2.00,+3.00
-2.00,+3.00,+0.00,+2.00,+0.00,-3.00,+0.00,+0.00,-25.00,-18.00,-2.00,-3.00,-5.00,-1.00,-5.00,-13.00
-5.00,+0.00,-1.00,-2.00,-3.00,-4.00,-3.00,-4.00,-23.00,-26.00,+5.00,+3.00,-5.00,-2.00,+0.00,+9.00
+1.00,-12.00,-1.00,-4.00,-2.00,-2.00,-4.00,-1.00,+16.00,+46.00,+6.00,+1.00,+5.00,+3.00,+3.00,+4.00
-11.00,-12.00,-3.00,-2.00,-3.00,-4.00,-5.00,-4.00,+4.00,-8.00,-1.00,+1.00,-4.00,-2.00,+1.00,+7.00
+0.00,+6.00,+0.00,-6.00,-3.00,-5.00,+0.00,-3.00,-7.00,+12.00,-3.00,-2.00,+0.00,-1.00,-1.00,-1.00
-3.00,+2.00,+1.00,-4.00,-7.00,-71.00,-11.00,+1.00,-1.00,-7.00,-4.00,-4.00,+31.00,+0.00,-3.00,-10.00
-10.00,+16.00,+2.00,+7.00,+16.00,+71.00,+10.00,+2.00,-9.00,-19.00,-6.00,-5.00,-20.00,-14.00,-4.00,-2.00
-1.00,+0.00,-1.00,-2.00,+0.00,+7.00,+1.00,-2.00,+8.00,+8.00,+3.00,+6.00,-22.00,+11.00,+1.00,-3.00
-5.00,-6.00,-1.00,+0.00,+1.00,+3.00,+1.00,-2.00,-15.00,-8.00,+2.00,+0.00,-17.00,-2.00,-1.00,-3.00
-7.00,-18.00,-6.00,-9.00,-7.00,-3.00,-4.00,-2.00,-6.00,-1.00,-8.00,-2.00,+5.00,+0.00,-3.00,-7.00
+8.00,-7.00,-4.00,-4.00,-6.00,-22.00,-5.00,+2.00,-3.00,-9.00,-3.00,-19.00,-26.00,-3.00,-1.00,-2.00
-6.00,+6.00,+1.00,+2.00,-2.00,-7.00,-1.00,-3.00,+7.00,+1.00,-3.00,+6.00,+15.00,+0.00,+1.00,-1.00
-7.00,-3.00,-1.00,-2.00,+0.00,+8.00,+1.00,+0.00,-6.00,+0.00,-2.00,+3.00,+21.00,+6.00,+28.00,+5.00
+5.00,+16.00,+2.00,+0.00,+5.00,+17.00,+4.00,+2.00,-10.00,-29.00,+0.00,-15.00,-14.00,-4.00,-25.00,+0.00
-9.00,-7.00,-4.00,-4.00,-4.00,-17.00,-4.00,-5.00,+17.00,+19.00,+3.00,+31.00,+23.00,+3.00,-1.00,+0.00
+1.00,-6.00,-6.00,-4.00,-4.00,+4.00,-4.00,-3.00,+8.00,+8.00,+3.00,-3.00,-21.00,-5.00,-6.00,+4.00
+4.00,+4.00,-1.00,-2.00,-4.00,-12.00,-4.00,+1.00,+6.00,+7.00,-2.00,-1.00,-11.00,+0.00,+3.00,-1.00
-7.00,+1.00,-8.00,+0.00,+1.00,+16.00,+2.00,-4.00,-2.00,-1.00,-1.00,+4.00,+7.00,-1.00,+8.00,+1.00
+2.00,+8.00,+11.00,-5.00,-2.00,-7.00,+2.00,+2.00,-16.00,-23.00,-3.00,-12.00,+10.00,+3.00,-2.00,-1.00
-8.00,-35.00,-3.00,-3.00,-4.00,-9.00,+1.00,+0.00,-28.00,-18.00,-9.00,-10.00,-12.00,-19.00,-1.00,-9.00
+5.00,+63.00,-1.00,-2.00,-2.00,-1.00,-3.00,+0.00,-9.00,-12.00,+5.00,-1.00,+19.00,+18.00,-8.00,-3.00
-8.00,-45.00,+5.00,+4.00,+6.00,+12.00,+5.00,+1.00,+74.00,+18.00,+4.00,+3.00,-10.00,+1.00,+5.00,+11.00
-11.00,-4.00,-8.00,+1.00,-2.00,-2.00,+1.00,-2.00,+25.00,+30.00,+6.00,-1.00,+7.00,+2.00,+1.00,+2.00
+3.00,+36.00,+4.00,-2.00,+6.00,+0.00,+1.00,+0.00,-1.00,-11.00,-1.00,+0.00,+2.00,+1.00,+1.00,-4.00
-6.00,-16.00,-3.00,-3.00,-2.00,+0.00,+1.00,-3.00,-34.00,-52.00,-18.00,-13.00,-10.00,-13.00,-12.00,-15.00
+1.00,+10.00,-3.00,-3.00,-5.00,+2.00,-5.00,-5.00,+61.00,+57.00,+4.00,+4.00,-1.00,+6.00,+0.00,-7.00
-10.00,-12.00,+0.00,-2.00,-4.00,-7.00,+2.00,-6.00,-15.00,-30.00,+2.00,-1.00,-19.00,+0.00,+10.00,+22.00
+13.00,+1.00,+5.00,+4.00,+9.00,+14.00,-6.00,+6.00,+35.00,+35.00,+6.00,+3.00,+16.00,+0.00,-1.00,+2.00
-2.00,-13.00,-5.00,+2.00,+1.00,+0.00,+1.00,-1.00,-17.00,-9.00,-1.00,+2.00,-1.00,-4.00,-11.00,-6.00
-7.00,+6.00,-3.00,-7.00,-7.00,-4.00,-6.00,-9.00,-63.00,-39.00,-14.00,-22.00,+66.00,-3.00,-6.00,-16.00
-2.00,-24.00,-5.00,-8.00,-7.00,-15.00,-5.00,-4.00,+16.00,+19.00,+1.00,+7.00,-77.00,+0.00,+7.00,+21.00
+0.00,+19.00,-3.00,-4.00,-1.00,-17.00,+0.00,-3.00,+17.00,-8.00,-1.00,+8.00,+52.00,+9.00,+4.00,-2.00
+2.00,-12.00,-2.00,+2.00,+5.00,+33.00,-18.00,-3.00,-7.00,+3.00,+1.00,+7.00,-47.00,-15.00,-18.00,+7.00
-4.00,+17.00,+6.00,-1.00,-6.00,-21.00,+30.00,+3.00,+13.00,+15.00,-2.00,+1.00,+0.00,-3.00,+1.00,+1.00
+2.00,+18.00,+1.00,+9.00,+11.00,+56.00,+5.00,+4.00,+3.00,+1.00,+1.00,-13.00,+1.00,+1.00,+3.00,-14.00
-11.00,-30.00,-1.00,-2.00,+1.00,+17.00,+9.00,+2.00,-6.00,+9.00,-5.00,-3.00,+9.00,+0.00,-10.00,-12.00
+7.00,-41.00,-2.00,-3.00,-1.00,-17.00,-10.00,+2.00,-38.00,+3.00,+9.00,+9.00,+16.00,+0.00,+13.00,+3.00
-17.00,+4.00,+2.00,+0.00,-1.00,+14.00,-7.00,-1.00,-3.00,+10.00,-2.00,+0.00,-23.00,-2.00,+2.00,+6.00
-2.00,+22.00,+0.00,-9.00,-5.00,-24.00,-2.00,+1.00,-37.00,-29.00,-6.00,-9.00,+34.00,+0.00,-12.00,-13.00
-8.00,-75.00,-8.00,-7.00,-10.00,-15.00,-4.00,-5.00,-19.00,+0.00,-1.00,-3.00,-27.00,-4.00,+3.00,-28.00
+14.00,+91.00,+4.00,+6.00,+3.00,+4.00,-3.00,+6.00,+0.00,-19.00,-7.00,-2.00,+20.00,-2.00,-2.00,+32.00
-5.00,-40.00,+0.00,+0.00,+4.00,+2.00,-6.00,+2.00,-5.00,+13.00,-3.00,-1.00,-29.00,-2.00,+1.00,+4.00
+7.00,+26.00,-2.00,-3.00,+0.00,-13.00,+2.00,+7.00,+49.00,-32.00,-6.00,-2.00,+10.00,+0.00,-2.00,+2.00
-1.00,+28.00,+0.00,-4.00,-1.00,+5.00,-4.00,+3.00,+35.00,+34.00,-1.00,-3.00,+3.00,-1.00,-1.00,+11.00
-1.00,-84.00,-5.00,-14.00,-11.00,-15.00,+0.00,-5.00,-33.00,-4.00,+5.00,-2.00,-12.00,+3.00,+0.00,-3.00
+13.00,+18.00,-2.00,+5.00,+2.00,+11.00,+4.00,+10.00,-72.00,-31.00,+2.00,+6.00,-9.00,+4.00,-1.00,-12.00
-22.00,+28.00,+10.00,+3.00,+3.00,-14.00,-7.00,-6.00,+20.00,+33.00,-1.00,+4.00,+12.00,-10.00,-5.00,-3.00
+5.00,-31.00,-5.00,+1.00,-2.00,+5.00,+2.00,-4.00,-22.00,-31.00,-7.00,-8.00,-9.00,-1.00,-10.00,-19.00
+2.00,+28.00,+0.00,-1.00,+2.00,-1.00,+5.00,+0.00,+90.00,+18.00,-1.00,-6.00,-2.00,-6.00,+2.00,+16.00
+12.00,+7.00,-6.00,-20.00,-17.00,-24.00,-14.00,-6.00,+11.00,+8.00,-1.00,+3.00,+17.00,-4.00,+2.00,+18.00
+15.00,-29.00,-5.00,+8.00,+14.00,+19.00,+8.00,-3.00,-37.00,-18.00,-3.00,+4.00,-4.00,+3.00,+4.00,+2.00
-4.00,+11.00,-1.00,-2.00,-6.00,-35.00,-5.00,-10.00,-79.00,-19.00,+0.00,-9.00,+9.00,-4.00,-4.00,-19.00
-2.00,+2.00,+1.00,+8.00,+10.00,+3.00,+8.00,-6.00,+107.00,+22.00,-6.00,+4.00,+7.00,+6.00,-15.00,+1.00
-6.00,-15.00,-5.00,-1.00,+5.00,+21.00,-5.00,-13.00,-55.00,-13.00,+6.00,+8.00,-15.00,+15.00,+33.00,-3.00
+12.00,+19.00,+5.00,-3.00,-6.00,-27.00,-3.00,-2.00,-4.00,-12.00,-9.00,-6.00,-2.00,-2.00,-6.00,+5.00
+11.00,-14.00,+1.00,-1.00,-7.00,-3.00,-1.00,+1.00,+8.00,+24.00,+4.00,-6.00,-4.00,+6.00,+6.00,+22.00
-5.00,+22.00,+5.00,+2.00,-1.00,+9.00,+7.00,+5.00,-1.00,-34.00,-20.00,-8.00,+43.00,-12.00,-23.00,-37.00
-6.00,-20.00,-3.00,-2.00,+0.00,-13.00,-3.00,-1.00,+80.00,+81.00,+28.00,+4.00,-75.00,-2.00,+36.00,+52.00
+11.00,+10.00,+0.00,-6.00,-5.00,-8.00,-5.00,+4.00,-39.00,-16.00,+5.00,+10.00,+29.00,+7.00,-14.00,-24.00
+8.00,+8.00,-1.00,+2.00,+1.00,+2.00,+3.00,+4.00,-22.00,-16.00,+1.00,+7.00,-1.00,+1.00,+7.00,+29.00
+3.00,-20.00,-3.00,-10.00,-9.00,-6.00,+1.00,+9.00,-4.00,+21.00,+1.00,-1.00,+1.00,-1.00,+5.00,+6.00
-8.00,-17.00,+0.00,+1.00,+1.00,+7.00,+0.00,+2.00,-45.00,-52.00,-15.00,-4.00,+3.00,-9.00,-24.00,-21.00
-9.00,-22.00,-5.00,-3.00,-4.00,-6.00,-3.00,-8.00,+61.00,+60.00,+0.00,-4.00,-4.00,-5.00,+13.00,-26.00
-7.00,-1.00,-4.00,+3.00,+3.00,+17.00,+0.00,+2.00,+74.00,-21.00,+4.00,+2.00,-19.00,-7.00,-9.00,+17.00
+3.00,+74.00,+14.00,+4.00,+4.00,-3.00,+3.00,+4.00,-71.00,+4.00,+7.00,-2.00,-8.00,+11.00,+34.00,-8.00
+7.00,+30.00,+3.00,+2.00,+3.00,-3.00,-23.00,-2.00,-19.00,-8.00,-14.00,-12.00,-7.00,-9.00,-13.00,-21.00
-10.00,-49.00,-3.00,-2.00,+2.00,+10.00,+25.00,+6.00,-6.00,-17.00,+4.00,+9.00,+11.00,-4.00,+6.00,+18.00
+1.00,+15.00,-2.00,-8.00,-5.00,-13.00,-5.00,-3.00,-14.00,-16.00,-6.00,-15.00,+20.00,-3.00,-10.00,-14.00
+0.00,-60.00,-9.00,-1.00,-3.00,-8.00,-11.00,-9.00,-11.00,+6.00,+3.00,+9.00,-13.00,-11.00,+0.00,-3.00
+12.00,-6.00,-2.00,+0.00,+4.00,+7.00,+0.00,-1.00,+70.00,-5.00,+1.00,+6.00,+15.00,+3.00,-3.00,+5.00
+7.00,+7.00,+0.00,+1.00,-8.00,-4.00,-9.00,-3.00,-19.00,-4.00,-6.00,-4.00,+14.00,+12.00,-6.00,-10.00
+15.00,+27.00,+4.00,-3.00,-9.00,-53.00,-1.00,-2.00,-10.00,-30.00,-10.00,-6.00,-5.00,-10.00,-1.00,-5.00
+4.00,-11.00,-3.00,+0.00,+1.00,+36.00,-3.00,-4.00,-7.00,+41.00,+2.00,-7.00,+9.00,-3.00,-4.00,+11.00
-20.00,-2.00,+6.00,+8.00,+9.00,+16.00,+11.00,+4.00,-50.00,-18.00,+2.00,-2.00,-19.00,+9.00,-13.00,-32.00
+5.00,-26.00,-5.00,-6.00,+0.00,+18.00,-6.00,-8.00,+29.00,-4.00,+2.00,+1.00,+3.00,-11.00,-12.00,+1.00
-25.00,-20.00,-2.00,+1.00,+1.00,-1.00,-3.00,-7.00,-17.00,-5.00,+0.00,+3.00,-12.00,+3.00,+3.00,+13.00
-7.00,-102.00,-20.00,-14.00,-16.00,-28.00,-15.00,-12.00,-10.00,-16.00,-6.00,-9.00,-9.00,+2.00,+2.00,-11.00
+17.00,+103.00,+28.00,+22.00,+15.00,+5.00,-2.00,+7.00,+34.00,+47.00,+8.00,+3.00,+40.00,+2.00,+16.00,+47.00
+15.00,-43.00,+0.00,-7.00,-4.00,+2.00,+40.00,+20.00,-20.00,-24.00,+3.00,-3.00,+9.00,-12.00,-17.00,-13.00
-5.00,+4.00,+5.00,+3.00,+6.00,+16.00,+1.00,+15.00,-6.00,+46.00,+3.00,+4.00,-13.00,+7.00,+27.00,-7.00
-27.00,-20.00,-4.00,-2.00,-5.00,-9.00,-3.00,-33.00,-51.00,-8.00,-2.00,+7.00,-25.00,-14.00,-2.00,-11.00
-13.00,-43.00,-11.00,-15.00,-3.00,+4.00,+3.00,+30.00,-26.00,-43.00,-12.00,+1.00,+17.00,+14.00,-20.00,-9.00
+3.00,-46.00,-3.00,+1.00,-3.00,-20.00,-29.00,-81.00,-29.00,-28.00,+8.00,-6.00,-25.00,+6.00,+29.00,+12.00
+2.00,+80.00,+6.00,+4.00,+5.00,+20.00,+6.00,+12.00,+9.00,+20.00,-9.00,+3.00,+1.00,-10.00,-18.00,-29.00
+0.00,-9.00,+1.00,+1.00,-3.00,-41.00,+5.00,+9.00,-22.00,+9.00,+3.00,-3.00,-2.00,+0.00,-6.00,-14.00
-3.00,-39.00,-11.00,-5.00,-3.00,+34.00,+7.00,-7.00,+69.00,+51.00,+8.00,-11.00,+71.00,+38.00,+12.00,+25.00
+0.00,+120.00,+13.00,+4.00,+5.00,+4.00,-8.00,+5.00,-48.00,+0.00,-5.00,+15.00,-86.00,+1.00,-35.00,+22.00
+10.00,-16.00,-4.00,-5.00,-8.00,-58.00,-4.00,-2.00,-17.00,-33.00,-5.00,+1.00,-12.00,-4.00,-2.00,-24.00
-1.00,+50.00,+4.00,+10.00,+13.00,+91.00,+5.00,-9.00,+24.00,-6.00,-1.00,-4.00,-6.00,+1.00,+2.00,+4.00
+0.00,-28.00,-4.00,-6.00,-4.00,-6.00,+4.00,-10.00,-22.00,-37.00,-14.00,-7.00,+3.00,-7.00,-14.00,-21.00
+4.00,-36.00,-7.00,-5.00,-2.00,+1.00,-16.00,+17.00,-4.00,+13.00,-5.00,-11.00,+23.00,-23.00,-7.00,-20.00
+1.00,-12.00,-7.00,-4.00,-4.00,+14.00,-11.00,-20.00,+75.00,+45.00,+10.00,+3.00,-11.00,+13.00,+8.00,+30.00
-5.00,-74.00,+5.00,+0.00,-5.00,-24.00,+14.00,+41.00,-41.00,-40.00,-7.00,-4.00,+3.00,-3.00,-5.00,-3.00
-3.00,+63.00,+0.00,+1.00,-2.00,-17.00,-1.00,-1.00,+11.00,-17.00,+2.00,+0.00,-25.00,-8.00,+5.00,-6.00
-8.00,+7.00,-1.00,-3.00,-1.00,+6.00,+0.00,+13.00,-29.00,-2.00,+6.00,+0.00,+13.00,+6.00,+13.00,+16.00
+5.00,-45.00,-7.00,+0.00,-1.00,+2.00,+2.00,+35.00,-26.00,-51.00,-11.00,-3.00,-14.00,-12.00,-14.00,-30.00
+2.00,+18.00,+0.00,+2.00,-1.00,-11.00,-3.00,-14.00,+99.00,+70.00,+6.00,-8.00,+11.00,+9.00,+0.00,+32.00
-1.00,+17.00,+3.00,+2.00,+2.00,+6.00,-1.00,-34.00,+21.00,-13.00,+8.00,-2.00,+3.00,+3.00,+11.00,+21.00
+0.00,+23.00,+0.00,-5.00,-6.00,-31.00,-6.00,+4.00,+74.00,+33.00,-14.00,-17.00,-81.00,-44.00,-1.00,+5.00
+0.00,-36.00,+1.00,-1.00,+11.00,+37.00,-2.00,+5.00,-98.00,-19.00,-9.00,+19.00,+57.00,+49.00,-31.00,-29.00
+0.00,-37.00,-9.00,-2.00,+1.00,-2.00,+8.00,+5.00,+101.00,-50.00,+24.00,+14.00,-28.00,+1.00,+33.00,+30.00
+0.00,-45.00,-5.00,-7.00,-10.00,-6.00,-11.00,-3.00,-65.00,+7.00,-4.00,+6.00,+40.00,-3.00,-44.00,-45.00
+2.00,+80.00,+21.00,+14.00,+11.00,+20.00,+6.00,+6.00,+32.00,-52.00,-1.00,-5.00,+21.00,-31.00,+7.00,+6.00
-1.00,-59.00,-2.00,-5.00,-3.00,+8.00,-11.00,-12.00,-26.00,-67.00,-14.00,-19.00,-26.00,-12.00,-13.00,+7.00
-4.00,+94.00,+3.00,-5.00,-10.00,-13.00,-4.00,-21.00,+36.00,+89.00,+3.00,-7.00,+103.00,-1.00,-6.00,+44.00
-2.00,+2.00,+5.00,-1.00,-3.00,-11.00,-3.00,+25.00,-54.00,+14.00,+9.00,+16.00,-125.00,-1.00,+10.00,-12.00
+0.00,-72.00,-14.00,+7.00,+11.00,+7.00,+1.00,+18.00,-37.00,-21.00,-8.00,-5.00,+55.00,+18.00,-6.00,-21.00
-3.00,+27.00,+2.00,-2.00,-1.00,+22.00,+8.00,+27.00,-96.00,-21.00,-10.00,-9.00,-1.00,-19.00,-12.00,-19.00
-4.00,+18.00,+1.00,-2.00,+0.00,-5.00,-5.00,-19.00,-45.00,+2.00,+9.00,+4.00,+1.00,+4.00,+11.00,+17.00
+2.00,-17.00,-10.00,-8.00,-8.00,-14.00,-18.00,-8.00,+26.00,+28.00,-2.00,-8.00,-14.00,-15.00,+4.00,-14.00
-2.00,-7.00,-6.00,-14.00,-10.00,-13.00,+11.00,-2.00,-33.00,-4.00,-9.00,+13.00,+45.00,-5.00,-13.00,-15.00
+2.00,+31.00,+1.00,+4.00,+3.00,+3.00,+5.00,-13.00,+99.00,-10.00,+10.00,+9.00,+9.00,+30.00,+24.00,+19.00
-4.00,-37.00,-6.00,-4.00,+0.00,-7.00,-1.00,+12.00,-61.00,+3.00,-4.00,+0.00,-37.00,-6.00,-17.00,-52.00
-2.00,+48.00,-1.00,-4.00,-2.00,-14.00,-10.00,-30.00,-4.00,-2.00,-2.00,-1.00,+2.00,-7.00,+4.00,+24.00
-4.00,+49.00,+11.00,+5.00,+4.00,+5.00,+2.00,-1.00,+62.00,+39.00,+7.00,-3.00,-15.00,+32.00,+7.00,+55.00
+1.00,+15.00,-3.00,-8.00,-4.00,-8.00,-7.00,-15.00,-10.00,+25.00,+4.00,-4.00,+14.00,-16.00,+3.00,-4.00
+0.00,-84.00,-5.00,-1.00,+2.00,+2.00,+0.00,+13.00,-2.00,-39.00,-16.00,-10.00,+9.00,+3.00,-4.00,-2.00
-5.00,+87.00,+14.00,+4.00,-6.00,-45.00,+9.00,-7.00,-48.00,-85.00,-3.00,+4.00,-16.00,-13.00,-9.00,-5.00
-4.00,-104.00,-16.00,-12.00,-4.00,-1.00,-4.00,+4.00,-14.00,-12.00,-10.00,-3.00,+21.00,+7.00,-13.00,-50.00
+3.00,+1.00,-3.00,+5.00,-2.00,+74.00,-9.00,-6.00,+24.00,+48.00,+18.00,+6.00,-8.00,-32.00,+16.00,+47.00
-3.00,+72.00,+24.00,+5.00,+14.00,-11.00,+25.00,+13.00,-55.00,-10.00,-26.00,-27.00,-12.00,-2.00,-16.00,-36.00
+0.00,-112.00,-7.00,+0.00,-5.00,-23.00,-35.00,-1.00,+2.00,+11.00,+24.00,+29.00,+17.00,+11.00,+14.00,+19.00
-6.00,+22.00,-5.00,-3.00,-2.00,+5.00,+16.00,+8.00,+29.00,-7.00,+8.00,+14.00,+28.00,+12.00,+12.00,+38.00
-2.00,+10.00,-9.00,-17.00,-10.00,-30.00,-11.00,-3.00,+37.00,+18.00,+0.00,-3.00,-2.00,+1.00,-6.00,+32.00
+6.00,-45.00,-6.00,-1.00,-2.00,-12.00,-2.00,+0.00,+4.00,-22.00,-7.00,+7.00,-4.00,-5.00,-6.00,-20.00
+2.00,+38.00,+6.00,+10.00,+18.00,+16.00,+29.00,+27.00,-7.00,-8.00,-14.00,-18.00,+25.00,-12.00,+7.00,-9.00
-2.00,+0.00,-7.00,-17.00,-10.00,-16.00,-30.00,-25.00,-73.00,+15.00,-1.00,-7.00,-21.00,-1.00,+7.00,-12.00
+7.00,-6.00,-13.00,-8.00,-6.00,-17.00,-7.00,-13.00,+61.00,-18.00,+3.00,+7.00,+5.00,+13.00,+11.00,+25.00
+0.00,+28.00,+12.00,+12.00,+6.00,+20.00,+15.00,+26.00,+17.00,-30.00,-5.00,-16.00,-12.00,-34.00,-19.00,+7.00
-2.00,-82.00,-8.00,-8.00,-9.00,-36.00,-5.00,-19.00,+42.00,+76.00,+15.00,+9.00,-5.00,+2.00,+23.00,+16.00
+2.00,-13.00,-6.00,-1.00,-5.00,+13.00,+0.00,+2.00,-29.00,+26.00,+14.00,+9.00,-4.00,+13.00,+2.00,-3.00
-5.00,-15.00,+4.00,+1.00,+0.00,+0.00,+1.00,-1.00,-44.00,-11.00,-7.00,-7.00,-9.00,-10.00,-8.00,-19.00
+3.00,+39.00,+2.00,-1.00,+0.00,-14.00,-7.00,+0.00,-5.00,-28.00,-19.00,-7.00,-8.00,+1.00,+1.00,-13.00
+1.00,+55.00,+1.00,-2.00,+4.00,+22.00,+11.00,+11.00,-20.00,+15.00,-11.00,-10.00,+42.00,-13.00,-16.00,-27.00
+3.00,-56.00,-8.00,+1.00,+4.00,-19.00,-2.00,-9.00,+9.00,-54.00,-9.00,-10.00,-56.00,-17.00,-6.00,-14.00
+1.00,-51.00,+4.00,+2.00,-2.00,-1.00,+13.00,+18.00,+9.00,+41.00,+7.00,+1.00,+77.00,-12.00,+2.00,-2.00
-1.00,-18.00,-11.00,-8.00,-12.00,-37.00,-22.00,-26.00,-17.00,+23.00,+13.00,+13.00,-58.00,+9.00,+6.00,+9.00
-1.00,+47.00,+11.00,+7.00,+0.00,+56.00,+17.00,+37.00,+17.00,-34.00,-16.00,-7.00,-7.00,-5.00,-5.00,-45.00
-3.00,+22.00,-5.00,-7.00,-1.00,+24.00,-2.00,-4.00,+26.00,+51.00,+10.00,-1.00,+7.00,+6.00,+17.00,+37.00
+7.00,+1.00,+16.00,+18.00,+15.00,+5.00,+12.00,-4.00,-29.00,-17.00,-6.00,-11.00,-34.00,+9.00,-6.00,-16.00
+6.00,-111.00,-28.00,-23.00,-13.00,-7.00,-17.00,+4.00,-34.00,+16.00,+7.00,+9.00,+27.00,+7.00,+11.00,+33.00
-4.00,+64.00,+23.00,+15.00,+7.00,-87.00,-7.00,+17.00,-53.00,-36.00,-2.00,-8.00,-25.00,-18.00,-9.00,-45.00
-3.00,+58.00,+10.00,+14.00,+6.00,+50.00,+17.00,-13.00,-35.00,+21.00,-3.00,-5.00,-1.00,-27.00,+0.00,-3.00
+2.00,-35.00,-3.00,-3.00,-5.00,-8.00,-2.00,-9.00,+41.00,+15.00,+2.00,+5.00,-5.00,+45.00,+9.00,-4.00
-2.00,+12.00,-5.00,+3.00,+2.00,+33.00,+6.00,+48.00,-6.00,+1.00,-8.00,-2.00,+23.00,+0.00,-4.00,-20.00
+0.00,-48.00,-12.00,-18.00,-10.00,-6.00,-12.00,+6.00,+41.00,-27.00,+4.00,-2.00,+18.00,+2.00,-8.00,+32.00
+2.00,-45.00,-5.00,-12.00,-6.00,-28.00,-6.00,+9.00,+12.00,-38.00,-7.00,-3.00,-25.00,-8.00,-22.00,-57.00
+1.00,+44.00,+6.00,+9.00,+6.00,-12.00,-12.00,-5.00,-2.00,+46.00,+7.00,+1.00,+2.00,+3.00,+22.00,+36.00
-1.00,-2.00,-5.00,-5.00,-8.00,-39.00,-13.00,-18.00,-10.00,+13.00,+2.00,-1.00,-26.00,+3.00,-7.00,-6.00
+2.00,+30.00,+6.00,+12.00,+7.00,+47.00,+33.00,+14.00,+5.00,-86.00,-14.00,-20.00,+2.00,-45.00,-3.00,+17.00
-1.00,-42.00,-2.00,-3.00,+4.00,+6.00,-5.00,-2.00,+46.00,+49.00,+3.00,+15.00,-21.00,+68.00,-21.00,-11.00
-3.00,-7.00,-6.00,-2.00,-1.00,+3.00,+8.00,+19.00,-25.00,-14.00,+2.00,-6.00,-8.00,+4.00,+8.00,+6.00
-6.00,-17.00,+8.00,-10.00,-9.00,-10.00,-3.00,-1.00,-26.00,-2.00,-4.00,+11.00,+73.00,+9.00,-16.00,-44.00
+3.00,-1.00,-5.00,-2.00,-9.00,+6.00,-12.00,-13.00,+31.00,+6.00,-1.00,-8.00,-101.00,-23.00,+18.00,+60.00
-3.00,+6.00,+3.00,+3.00,+0.00,-19.00,-1.00,-12.00,-4.00,+21.00,-12.00,+1.00,+44.00,-18.00,-13.00,-31.00
-3.00,-7.00,-5.00,-3.00,+1.00,-2.00,-1.00,-12.00,-27.00,-39.00,-3.00,-7.00,-19.00,-19.00,-5.00,-31.00
+4.00,+81.00,+6.00,+13.00,+9.00,+10.00,+11.00,+53.00,+9.00,-11.00,+14.00,+11.00,-7.00,+10.00,+1.00,-2.00
+0.00,-97.00,-11.00,-15.00,-9.00,-21.00,-15.00,-60.00,+1.00,+24.00,-8.00,-4.00,+26.00,+2.00,-5.00,-4.00
+0.00,+56.00,+8.00,+4.00,+7.00,+40.00,-8.00,+8.00,-16.00,-6.00,-2.00,-7.00,+57.00,+1.00,+15.00,-8.00
-5.00,+6.00,-8.00,-8.00,-5.00,-19.00,-6.00,-9.00,-12.00,-20.00,-12.00,-8.00,-101.00,-27.00,-24.00,-39.00
-4.00,-66.00,+4.00,+3.00,+2.00,+5.00,-2.00,-6.00,+43.00,-42.00,-4.00,-8.00,+20.00,-13.00,+33.00,+17.00
-12.00,+8.00,+0.00,-7.00,+0.00,+8.00,+9.00,-4.00,+26.00,+62.00,+8.00,+9.00,+21.00,+10.00,-7.00,-15.00
+4.00,+19.00,+0.00,-10.00,-10.00,-41.00,-12.00,-44.00,-11.00,-33.00,-4.00,-13.00,+13.00,+24.00,-24.00,+12.00
-5.00,-25.00,+3.00,+6.00,+5.00,+2.00,-2.00,-5.00,-17.00,+17.00,-1.00,-3.00,-24.00,-21.00,-9.00,-19.00
+0.00,-28.00,-11.00,-5.00,-3.00,+20.00,+4.00,-5.00,+30.00,-55.00,+3.00,+25.00,-37.00,+27.00,+12.00,+3.00
+3.00,-22.00,-6.00,+3.00,-3.00,+0.00,-9.00,+9.00,-10.00,+58.00,+2.00,+2.00,+3.00,+22.00,-26.00,+3.00
+1.00,-21.00,-1.00,-6.00,-2.00,-9.00,-11.00,-11.00,-11.00,+0.00,-3.00,-5.00,+25.00,-26.00,+20.00,+12.00
-1.00,-46.00,+6.00,+8.00,+1.00,+12.00,+32.00,+0.00,-33.00,+1.00,-3.00,-5.00,+10.00,-13.00,-6.00,-21.00
-4.00,+40.00,+6.00,-1.00,+3.00,-2.00,-1.00,-27.00,+26.00,+28.00,+11.00,-6.00,-13.00,+14.00,-2.00,+74.00
+0.00,-9.00,-10.00,-14.00,-5.00,+6.00,-19.00,-18.00,+23.00,-34.00,-4.00,+8.00,+22.00,+7.00,+28.00,+66.00
+1.00,+37.00,+8.00,+18.00,+0.00,-52.00,-12.00,+39.00,-1.00,+20.00,+10.00,+3.00,-26.00,-26.00,-17.00,-38.00
+2.00,+25.00,+0.00,-8.00,-6.00,+0.00,+23.00,+4.00,-18.00,-11.00,-6.00,-7.00,+10.00,-1.00,-5.00,+4.00
-1.00,-43.00,-5.00,-2.00,-2.00,+15.00,-16.00,-13.00,-44.00,-20.00,+6.00,+5.00,-13.00,-10.00,-3.00,-8.00
+4.00,-5.00,+0.00,+7.00,+12.00,+22.00,+20.00,+18.00,+13.00,+17.00,-5.00,+2.00,-1.00,-1.00,-10.00,+6.00
-2.00,-79.00,-10.00,-9.00,-8.00,-13.00,-11.00,-18.00,-27.00,-8.00,-2.00,-5.00,-4.00,+24.00,+33.00,-8.00
+2.00,+127.00,+14.00,+3.00,+1.00,-7.00,-16.00,-3.00,+37.00,-24.00,-7.00,-2.00,-2.00,+8.00,+2.00,+6.00
-10.00,+6.00,+10.00,+1.00,+1.00,+3.00,+3.00,-24.00,-55.00,+29.00,-1.00,-16.00,+48.00,-7.00,-1.00,-9.00
-2.00,-43.00,-11.00,-12.00,-7.00,-11.00,+0.00,-10.00,-24.00,+10.00,+13.00,+8.00,-34.00,+3.00,+9.00,+28.00
-4.00,-24.00,+0.00,-6.00,-8.00,-11.00,-8.00,-21.00,-32.00,-20.00,-5.00,+3.00,-51.00,-12.00,-19.00,-40.00
-2.00,-54.00,-12.00,-5.00,+1.00,-2.00,-4.00,+4.00,+0.00,-4.00,+7.00,+10.00,+21.00,+10.00,+5.00,+10.00
+2.00,+46.00,+0.00,+0.00,+3.00,-2.00,+4.00,-7.00,+35.00,+18.00,-9.00,-31.00,-50.00,-28.00,+5.00,+5.00
-3.00,+5.00,+2.00,-1.00,+1.00,+2.00,+4.00,+13.00,-10.00,-7.00,-1.00,+20.00,-5.00,+24.00,-31.00,-25.00
+0.00,+12.00,-4.00,-9.00,-9.00,-7.00,-6.00,+16.00,+16.00,-10.00,+1.00,+1.00,+28.00,-9.00,-1.00,+37.00
-7.00,-27.00,-2.00,-5.00,+7.00,+27.00,-4.00,-13.00,-2.00,-2.00,-3.00,+1.00,-13.00,-3.00,+6.00,-10.00
-3.00,+58.00,+4.00,+1.00,-9.00,-85.00,+20.00,-51.00,-1.00,+3.00,-6.00,-5.00,+15.00,+12.00,-20.00,-34.00
-14.00,-50.00,-9.00,+2.00,+10.00,+64.00,+26.00,-4.00,+4.00,+33.00,-5.00,-16.00,-5.00,-7.00,+1.00,-1.00
+1.00,-5.00,-10.00,-6.00,-7.00,-13.00,+4.00,+7.00,-16.00,-13.00,+5.00,+7.00,-8.00,+16.00,+8.00,+18.00
-1.00,-41.00,-5.00,+0.00,-4.00,-1.00,-4.00,+10.00,+24.00,+9.00,-1.00,+0.00,+27.00,-5.00,+4.00,+31.00
-1.00,+84.00,+12.00,+9.00,+5.00,+5.00,-3.00,-15.00,-63.00,-17.00,-7.00,-2.00,-22.00,-16.00,-13.00,-67.00
+0.00,-45.00,-6.00,-4.00,+0.00,-5.00,-10.00,-11.00,-17.00,-13.00,-18.00,-13.00,+4.00,+9.00,+0.00,-30.00
+0.00,+75.00,+4.00,+4.00,+3.00,-3.00,+8.00,+12.00,+4.00,+32.00,+10.00,+2.00,+1.00,-7.00,+9.00,+18.00
+2.00,+39.00,-7.00,-7.00,-6.00,-14.00,-3.00,+0.00,+41.00,+6.00,+5.00,-1.00,+16.00,-1.00,+4.00,+18.00
-5.00,+20.00,+2.00,+1.00,+5.00,+34.00,-4.00,-2.00,-14.00,-15.00,+7.00,+10.00,-6.00,+3.00,-4.00,-3.00
+6.00,-16.00,-3.00,-4.00,-5.00,-6.00,+7.00,+10.00,-37.00,-47.00,-15.00,-4.00,-10.00,-4.00,+0.00,-13.00
+0.00,-12.00,+0.00,-7.00,+3.00,+20.00,-7.00,+1.00,-29.00,-17.00,-13.00,-13.00,+6.00,-8.00,+0.00,-6.00
+1.00,-21.00,-6.00,-7.00,-11.00,-23.00,-12.00,-30.00,-4.00,+29.00,-13.00,-12.00,-9.00,-12.00,-20.00,-22.00
+0.00,-73.00,-4.00,-2.00,-6.00,+9.00,-16.00,+2.00,+1.00,+19.00,+9.00,+11.00,+37.00,+15.00,+1.00,+20.00
-5.00,-14.00,+4.00,+4.00,+11.00,-5.00,+1.00,-7.00,-22.00,-18.00,+4.00,-3.00,-80.00,+18.00,+12.00,-33.00
-2.00,-23.00,-1.00,-4.00,+5.00,+41.00,+19.00,+11.00,-24.00,-8.00,-2.00,+1.00,+26.00,-16.00,-16.00,+11.00
-3.00,+21.00,+7.00,-2.00,-2.00,-17.00,+0.00,-18.00,-18.00,-21.00,-2.00,+7.00,+5.00,-13.00,-2.00,-6.00
+3.00,-108.00,-18.00,-15.00,-14.00,-64.00,-50.00,-28.00,+19.00,-10.00,-17.00,-6.00,+23.00,+15.00,-20.00,-46.00
+1.00,+79.00,+8.00,+13.00,+13.00,+88.00,+61.00,+9.00,-29.00,-5.00,+8.00,-3.00,+42.00,+14.00,+14.00,+32.00
-3.00,-4.00,+2.00,-8.00,-1.00,-5.00,+2.00,+19.00,+16.00,+10.00,+3.00,-7.00,+53.00,+12.00,+19.00,+24.00
-5.00,+14.00,+0.00,-1.00,-2.00,-7.00,+5.00,+6.00,-2.00,+0.00,+8.00,+11.00,-92.00,-5.00,-17.00,-15.00
-4.00,-11.00,+0.00,-5.00,-3.00,+12.00,-4.00,+12.00,+32.00,+24.00,-4.00,-2.00,-10.00,-14.00,+0.00,+8.00
+1.00,-16.00,-9.00,-10.00,-11.00,-44.00,-27.00,-25.00,+7.00,-1.00,+2.00,+3.00,+13.00,-9.00,+5.00,-2.00
+0.00,+78.00,+8.00,+7.00,+4.00,-4.00,+5.00,+1.00,+26.00,-16.00,-10.00,-11.00,-25.00,+1.00,+0.00,+15.00
-1.00,-27.00,-3.00,-4.00,-2.00,+15.00,+3.00,+11.00,-6.00,-8.00,+3.00,-1.00,+36.00,+2.00,+2.00,+5.00
+5.00,+41.00,+1.00,+1.00,-2.00,-3.00,+0.00,+30.00,+42.00,+29.00,+3.00,-1.00,-18.00,-6.00,+4.00,+21.00
+7.00,-28.00,-8.00,-11.00,-6.00,-18.00,-15.00,-6.00,-42.00,-40.00,-12.00,-7.00,+5.00,-18.00,-27.00,-55.00
-7.00,-22.00,+0.00,+5.00,+1.00,+9.00,+7.00,-2.00,+22.00,+26.00,+6.00,+11.00,-11.00,+19.00,+37.00,+39.00
-1.00,+50.00,+10.00,+3.00,-1.00,-17.00,-10.00,-5.00,-30.00,-10.00,-1.00,-5.00,+20.00,-1.00,+7.00,+41.00
-1.00,+60.00,+2.00,+2.00,+6.00,+24.00,+16.00,+37.00,-10.00,+1.00,-1.00,+0.00,-6.00,-7.00,-2.00,-9.00
-5.00,-14.00,-7.00,-7.00,-6.00,-14.00,-14.00,-4.00,-14.00,+9.00,+5.00,+2.00,-7.00,-4.00,-8.00,-19.00
-4.00,-75.00,-4.00,-7.00,-8.00,-10.00,-11.00,-9.00,+8.00,-9.00,-1.00,-2.00,-7.00,-3.00,-15.00,-19.00
+11.00,-35.00,-7.00,+5.00,-6.00,-31.00,-1.00,+10.00,-5.00,-3.00,-13.00,-16.00,+30.00,-7.00,+1.00,-1.00
-8.00,+37.00,+4.00,+1.00,+5.00,+30.00,+6.00,-18.00,-5.00,-15.00,+1.00,+13.00,+0.00,+21.00,+5.00,+10.00
+2.00,+28.00,+4.00,-1.00,-2.00,-40.00,-1.00,-9.00,+12.00,-7.00,+2.00,-10.00,+5.00,+1.00,-2.00,+41.00
-1.00,-22.00,-4.00,-1.00,+8.00,+39.00,+4.00,-8.00,-25.00,-15.00,-2.00,+3.00,-43.00,-14.00,-8.00,-23.00
-1.00,-26.00,-4.00,-3.00,+0.00,+4.00,-4.00,+19.00,+15.00,+10.00,+5.00,+7.00,-10.00,-2.00,+9.00,+6.00
+4.00,-56.00,-13.00,-3.00,-6.00,+22.00,+17.00,+22.00,+5.00,+0.00,-5.00,-4.00,+2.00,-18.00,-6.00,-8.00
-1.00,+36.00,+14.00,-2.00,-5.00,-54.00,-34.00,+6.00,+14.00,+36.00,-4.00,-15.00,+89.00,-5.00,-3.00,+2.00
+5.00,-2.00,-3.00,-1.00,-6.00,-33.00,-19.00,+0.00,-20.00,-5.00,+4.00,+10.00,-82.00,-32.00,-6.00,-11.00
-5.00,+37.00,+7.00,+9.00,+13.00,+10.00,+27.00,+5.00,+19.00,+8.00,+0.00,+1.00,-9.00,+37.00,-8.00,-2.00
-3.00,-30.00,-9.00,-6.00,-6.00,-10.00,-2.00,+9.00,+10.00,+8.00,+0.00,+1.00,-6.00,-10.00,+40.00,+13.00
+1.00,-9.00,+2.00,-1.00,+1.00,+17.00,+1.00,-2.00,+9.00,-11.00,+1.00,+9.00,-7.00,-9.00,-7.00,-5.00
+2.00,-23.00,-5.00,-5.00,-4.00,-9.00,-4.00,-1.00,-49.00,-28.00,-9.00,-14.00,+28.00,-10.00,+8.00,-20.00
-8.00,+9.00,+0.00,-1.00,+0.00,+6.00,-7.00,-7.00,+95.00,+63.00,+14.00,-5.00,+9.00,+9.00,-28.00,+19.00
-1.00,-10.00,-3.00,+3.00,+1.00,-7.00,+2.00,-9.00,-13.00,-7.00,-2.00,+5.00,-69.00,+12.00,-6.00,-13.00
-1.00,-83.00,-12.00,-10.00,-7.00,-4.00,-11.00,-3.00,+2.00,-2.00,-6.00,+4.00,+11.00,-2.00,-2.00,-87.00
-6.00,+93.00,+22.00,+9.00,+8.00,+4.00,+17.00,+8.00,-10.00,-2.00,+3.00,-1.00,+29.00,+14.00,-6.00,-12.00
-2.00,-35.00,+0.00,-2.00,-2.00,+3.00,-1.00,+37.00,-26.00,-25.00,-9.00,+2.00,+8.00,-16.00,+7.00,-18.00
-2.00,-1.00,+2.00,+7.00,+6.00,+11.00,+6.00,+1.00,+25.00,-15.00,-5.00,-19.00,+0.00,-16.00,-9.00,+10.00
-5.00,-5.00,-3.00,-4.00,-2.00,+8.00,+4.00,+8.00,+8.00,+22.00,+6.00,+10.00,-9.00,-1.00,-9.00,+8.00
+0.00,-22.00,-7.00,-6.00,-4.00,-5.00,-1.00,-6.00,+19.00,+2.00,-5.00,-25.00,+82.00,+10.00,+0.00,+20.00
+0.00,-65.00,-13.00,-7.00,-11.00,-41.00,-6.00,-33.00,-14.00,-3.00,+5.00,+23.00,-82.00,-22.00,+4.00,-3.00
+1.00,+99.00,+16.00,+12.00,+10.00,+47.00,-5.00,+3.00,+14.00,+10.00,+8.00,+22.00,+32.00,+12.00,-19.00,+43.00
+1.00,+33.00,+5.00,+1.00,+5.00,+39.00,+0.00,-1.00,-37.00,-19.00,-7.00,+5.00,+19.00,-4.00,+2.00,+4.00
+1.00,-17.00,-3.00,+3.00,+4.00,+34.00,+12.00,+15.00,-19.00,+2.00,-3.00,+1.00,+62.00,-32.00,-25.00,+2.00
-5.00,-3.00,-1.00,+0.00,+1.00,+9.00,+0.00,-9.00,-65.00,-5.00,+0.00,-37.00,-26.00,+61.00,+50.00,+20.00
+1.00,-46.00,-8.00,-4.00,-4.00,-13.00,+4.00,-17.00,-59.00,-7.00,-6.00,-1.00,+14.00,-6.00,-11.00,-10.00
-3.00,-19.00,+1.00,-12.00,-10.00,-19.00,-18.00,-9.00,+24.00,+4.00,+2.00,-5.00,-52.00,+0.00,+3.00,+26.00
-3.00,+13.00,+6.00,+12.00,+6.00,-21.00,+1.00,+9.00,+42.00,+10.00,+2.00,+22.00,-30.00,+2.00,-4.00,-9.00
-5.00,-6.00,-2.00,-4.00,-6.00,-16.00,+10.00,-3.00,+25.00,-10.00,-3.00,-4.00,+23.00,-12.00,-8.00,-17.00
+0.00,-20.00,-3.00,-2.00,-1.00,+2.00,+0.00,-10.00,-18.00,-9.00,+0.00,-1.00,-30.00,-16.00,+6.00,+41.00
+0.00,+38.00,+5.00,+2.00,+6.00,+19.00,+9.00,+10.00,-44.00,+4.00,-6.00,-20.00,+35.00,-13.00,-14.00,-37.00
+2.00,-16.00,-8.00,-14.00,-11.00,-31.00,-14.00,-15.00,-65.00,+0.00,+4.00,+16.00,-35.00,+31.00,+22.00,+52.00
-2.00,-40.00,+6.00,+8.00,+4.00,-39.00,-17.00,+0.00,-10.00,+30.00,+10.00,+13.00,+28.00,-5.00,-10.00,+3.00
+1.00,-7.00,-3.00,+9.00,+1.00,-21.00,+1.00,-4.00,+15.00,-2.00,-10.00,-14.00,+3.00,+0.00,+10.00,-11.00
-2.00,-3.00,-12.00,-5.00,-7.00,-3.00,-7.00,+3.00,+28.00,-8.00,-6.00,-10.00,-52.00,-28.00,-16.00,+21.00
+0.00,-11.00,-2.00,-7.00,-2.00,+6.00,-2.00,-12.00,+60.00,-11.00,-11.00,-29.00,-28.00,-6.00,-10.00,-20.00
+2.00,+45.00,+5.00,-2.00,+0.00,+17.00,-2.00,+2.00,+22.00,-12.00,-1.00,+8.00,+49.00,+0.00,-1.00,-5.00
-3.00,+9.00,+2.00,-9.00,-3.00,-16.00,+1.00,+3.00,+12.00,+10.00,+10.00,+20.00,-9.00,+44.00,+24.00,+1.00
+2.00,-27.00,+2.00,+4.00,+2.00,-37.00,+3.00,+65.00,+16.00,-2.00,-1.00,-12.00,-1.00,+0.00,-12.00,-2.00
-4.00,-10.00,-5.00,-10.00,-4.00,+29.00,+8.00,-2.00,+14.00,-1.00,-4.00,+2.00,-11.00,-6.00,+6.00,-7.00
+2.00,+15.00,+3.00,+7.00,+16.00,+53.00,-20.00,-1.00,+4.00,-20.00,-4.00,+3.00,+17.00,+17.00,-5.00,-5.00
-1.00,-4.00,+3.00,+8.00,+4.00,-10.00,+51.00,+29.00,+19.00,+5.00,-3.00,-9.00,-84.00,-46.00,-1.00,+3.00
-1.00,+19.00,-2.00,-4.00,-5.00,-9.00,-3.00,+2.00,+14.00,+4.00,+4.00,-4.00,+21.00,+1.00,-4.00,+8.00
+2.00,-12.00,-1.00,-11.00,-15.00,-28.00,-32.00,-5.00,+19.00,-1.00,+1.00,-19.00,+55.00,+20.00,-6.00,-12.00
+2.00,+14.00,-2.00,+8.00,+14.00,+51.00,+25.00,-50.00,+31.00,+9.00,+4.00,+34.00,+22.00,+18.00,+16.00,+34.00
-2.00,-17.00,-6.00,-10.00,-10.00,+10.00,-18.00,+5.00,-19.00,-7.00,-2.00,+3.00,+21.00,-41.00,-18.00,-47.00
+1.00,+13.00,+1.00,+1.00,-6.00,-66.00,+8.00,-34.00,+2.00,-2.00,+3.00,+16.00,-36.00,+30.00,+49.00,+0.00
-1.00,-7.00,+3.00,+14.00,+14.00,+84.00,+23.00,+14.00,+4.00,-2.00,-1.00,-11.00,+18.00,-8.00,+5.00,-8.00
-2.00,+1.00,-5.00,-6.00,-6.00,-1.00,-17.00,+2.00,-30.00,-9.00,-7.00,-23.00,-112.00,-30.00,-7.00,-34.00
-3.00,-8.00,-2.00,-3.00,+7.00,-3.00,-10.00,+3.00,-12.00,-12.00,-5.00,-9.00,+0.00,-18.00,-15.00,-17.00
-2.00,+0.00,+2.00,-15.00,-8.00,+13.00,+10.00,-14.00,+46.00,+33.00,+14.00,+16.00,+65.00,+22.00,+47.00,+60.00
+1.00,-21.00,+6.00,+7.00,+7.00,-11.00,-4.00,+0.00,-3.00,+5.00,+0.00,-5.00,-28.00,-12.00,-23.00,-6.00
-3.00,+13.00,-8.00,-8.00,-21.00,-32.00,-3.00,+14.00,-25.00,-6.00,-4.00,-22.00,-5.00,-15.00,+3.00,+16.00
+0.00,-19.00,-10.00,+2.00,-8.00,+24.00,-17.00,-17.00,-1.00,-7.00,-1.00,-28.00,+114.00,+15.00,-18.00,-88.00
-3.00,+4.00,-5.00,+5.00,+6.00,-8.00,+15.00,-20.00,-30.00,-17.00,-3.00,+41.00,-90.00,-13.00,-14.00,-16.00
-1.00,+2.00,-2.00,-10.00,-2.00,-36.00,-10.00,-1.00,-17.00,-14.00,-11.00,+0.00,+33.00,+1.00,-17.00,-19.00
-3.00,+2.00,+12.00,-5.00,+2.00,-55.00,-25.00,+19.00,+13.00,+8.00,-2.00,-10.00,+53.00,-40.00,+9.00,+11.00
-4.00,+0.00,+4.00,+4.00,+4.00,+70.00,+35.00,+9.00,+23.00,+17.00,+4.00,-11.00,+72.00,+5.00,+9.00,+36.00
+4.00,+5.00,-1.00,-3.00,+7.00,+25.00,-15.00,-6.00,-49.00,-14.00,-9.00,-10.00,-96.00,-6.00,-27.00,-42.00
+2.00,+1.00,-5.00,-4.00,-7.00,+5.00,+11.00,+23.00,+3.00,+7.00,+14.00,+69.00,-22.00,+32.00,-5.00,-3.00
+2.00,+7.00,+2.00,-8.00,-18.00,-7.00,-11.00,-8.00,+2.00,-2.00,+3.00,+2.00,+67.00,-12.00,+31.00,+38.00
+3.00,-8.00,-6.00,+5.00,+21.00,+36.00,-6.00,-6.00,+9.00,+9.00,+6.00,+22.00,+17.00,+17.00,-9.00,+22.00
+0.00,+6.00,+5.00,+7.00,+4.00,+6.00,-3.00,-6.00,+10.00,+1.00,+0.00,-6.00,+72.00,-3.00,-8.00,+18.00
-2.00,-7.00,-9.00,-8.00,+3.00,-16.00,+2.00,+19.00,+9.00,+6.00,+2.00,+5.00,-128.00,-6.00,+6.00,+34.00
+1.00,+5.00,+1.00,+18.00,-11.00,-22.00,-32.00,-41.00,+2.00,+2.00,-3.00,-27.00,+3.00,+4.00,+8.00,+29.00
-1.00,-3.00,-2.00,+2.00,-3.00,-1.00,+13.00,+82.00,+5.00,+5.00,-1.00,-18.00,-30.00,+18.00,-7.00,-6.00
+3.00,-6.00,+0.00,+1.00,-5.00,+41.00,+12.00,-15.00,-2.00,-5.00,+3.00,+40.00,-9.00,+2.00,+21.00,+9.00
-3.00,-6.00,-5.00,-19.00,-18.00,-95.00,-5.00,-20.00,-8.00,-3.00,-1.00,-2.00,+96.00,+6.00,+6.00,-93.00
+3.00,+6.00,+0.00,+3.00,+9.00,+51.00,+12.00,+12.00,+2.00,-12.00,-9.00,-19.00,+36.00,+68.00,+11.00,-22.00
-5.00,+2.00,+4.00,+10.00,+7.00,-22.00,-33.00,-46.00,+3.00,+8.00,+6.00,+9.00,+72.00,+12.00,-73.00,+5.00
-2.00,-9.00,-1.00,+3.00,+8.00,+10.00,+1.00,-11.00,-12.00,-6.00,-1.00,-1.00,-38.00,+29.00,+1.00,-12.00
-2.00,+5.00,+3.00,-4.00,-11.00,-36.00,+33.00,+10.00,+1.00,-2.00,-3.00,-14.00,-8.00,-37.00,-22.00,+19.00
+2.00,-8.00,-2.00,+7.00,+10.00,+65.00,+18.00,+1.00,-18.00,-8.00,-3.00,+3.00,+57.00,+6.00,-29.00,-30.00
+3.00,+7.00,+3.00,-31.00,-15.00,-111.00,-37.00,-17.00,-8.00,-1.00,+1.00,+14.00,-85.00,-22.00,+97.00,+23.00
+0.00,+4.00,-1.00,+18.00,+12.00,+76.00,+14.00,+18.00,-16.00,-15.00,-9.00,-10.00,+86.00,+0.00,-45.00,-45.00
+0.00,+3.00,-5.00,-6.00,-3.00,-6.00,-14.00,-31.00,+2.00,+1.00,-4.00,-30.00,+18.00,-19.00,-11.00,+6.00
-2.00,-11.00,-2.00,-4.00,-4.00,-82.00,-19.00,+10.00,-40.00,-1.00,-2.00,+14.00,-34.00,+38.00,-16.00,+8.00
+0.00,+1.00,+3.00,-12.00,-2.00,-10.00,+16.00,-12.00,-29.00,+9.00,+3.00,-7.00,-108.00,-18.00,+9.00,+6.00
-3.00,-2.00,-3.00,-2.00,-5.00,-10.00,-56.00,-5.00,-21.00,-9.00,-7.00,-18.00,+42.00,+2.00,+2.00,-18.00
+1.00,+2.00,+2.00,+31.00,+4.00,+25.00,+38.00,+23.00,-5.00,+10.00,+5.00,+8.00,-55.00,-11.00,+33.00,+60.00
-9.00,+16.00,+3.00,-2.00,+5.00,-30.00,-1.00,-60.00,+22.00,-5.00,-1.00,+9.00,-30.00,-24.00,+11.00,-11.00
+4.00,-1.00,+2.00,+21.00,+5.00,-60.00,+0.00,+14.00,+6.00,-7.00,-8.00,-41.00,+6.00,+12.00,-15.00,-48.00
-5.00,-3.00,-1.00,-12.00,+4.00,+21.00,+8.00,-1.00,-30.00,-7.00,-2.00,+13.00,+103.00,-11.00,+0.00,-10.00
-2.00,-5.00,+3.00,-6.00,+3.00,-36.00,-14.00,-11.00,-24.00,-2.00,-1.00,+2.00,-28.00,+4.00,-7.00,-8.00
+1.00,+6.00,+0.00,+6.00,+3.00,-13.00,+10.00,+13.00,+7.00,+14.00,+16.00,+40.00,-117.00,+20.00,+45.00,+20.00
+3.00,+3.00,-2.00,-7.00,-36.00,-118.00,-14.00,+18.00,-97.00,-10.00,-7.00,-30.00,+83.00,+45.00,-15.00,+4.00
-4.00,+3.00,+1.00,+6.00,+21.00,+54.00,+6.00,-1.00,-26.00,+4.00,-1.00,-9.00,-113.00,-10.00,+19.00,-38.00
+1.00,+4.00,-5.00,-1.00,+1.00,-28.00,-14.00,-22.00,+60.00,+0.00,+2.00,+14.00,-14.00,+34.00,-28.00,+29.00
+3.00,-9.00,-8.00,-33.00,-25.00,-105.00,-47.00,+82.00,+50.00,-2.00,-2.00,-6.00,-7.00,-75.00,+40.00,+4.00
-5.00,+0.00,+4.00,-1.00,+10.00,+115.00,+8.00,-66.00,+51.00,-11.00,-8.00,-11.00,-72.00,-75.00,-31.00,-30.00
+1.00,+5.00,+0.00,+9.00,-2.00,-12.00,-23.00,+5.00,+49.00,+8.00,+5.00,+2.00,-5.00,+28.00,-15.00,+58.00
-2.00,-6.00,+0.00,-6.00,+2.00,+27.00,+12.00,+4.00,+15.00,-7.00,-8.00,-28.00,+69.00,+2.00,+1.00,+33.00
-3.00,-13.00,-6.00,-23.00,-11.00,-46.00,-48.00,-3.00,+14.00,-3.00,-2.00,+10.00,-16.00,-7.00,-10.00,-85.00
+4.00,-5.00,+2.00,+28.00,+4.00,+60.00,+65.00,+2.00,+19.00,-6.00,+2.00,+23.00,+123.00,-32.00,-25.00,-5.00
-4.00,+5.00,-6.00,-27.00,-15.00,-42.00,+18.00,-54.00,+42.00,+11.00,+3.00,-18.00,-37.00,-24.00,-21.00,+24.00
-3.00,-12.00,-2.00,-14.00,-13.00,-9.00,-70.00,-51.00,-8.00,-4.00,-4.00,-26.00,+22.00,+33.00,+53.00,-31.00
+2.00,+1.00,+2.00,+18.00,+19.00,+44.00,+48.00,-13.00,+2.00,+9.00,+9.00,+33.00,+35.00,-10.00,-128.00,+63.00
+3.00,-6.00,+0.00,+19.00,+37.00,+79.00,-17.00,+12.00,+0.00,-1.00,-3.00,-2.00,-30.00,-38.00,+83.00,-23.00
+4.00,+0.00,-4.00,-24.00,-31.00,-128.00,-37.00,+3.00,+6.00,-4.00,-1.00,+6.00,+9.00,+8.00,-27.00,-28.00
-3.00,-2.00,+2.00,+9.00,+23.00,+119.00,+63.00,+31.00,+20.00,+7.00,+2.00,-3.00,+7.00,+49.00,-1.00,-7.00
-6.00,+4.00,-5.00,-8.00,-9.00,-15.00,-67.00,-25.00,-31.00,-8.00,-8.00,-13.00,-65.00,-18.00,-14.00,-16.00
+0.00,+9.00,+2.00,-12.00,-18.00,-128.00,+60.00,+23.00,-1.00,-5.00,-1.00,-14.00,+6.00,+13.00,-16.00,+28.00
-12.00,+5.00,+0.00,-25.00,-18.00,+1.00,-28.00,+9.00,+10.00,+1.00,+2.00,+23.00,+54.00,-7.00,-21.00,+27.00
-1.00,+7.00,-2.00,+11.00,+24.00,+71.00,-21.00,+16.00,+15.00,+5.00,+2.00,-39.00,-60.00,-80.00,+15.00,+17.00
+6.00,+5.00,+15.00,+59.00,+48.00,+127.00,+97.00,+43.00,-15.00,-9.00,+1.00,+44.00,+73.00,+73.00,+8.00,+11.00
-2.00,+2.00,-6.00,-14.00,-22.00,-87.00,-128.00,-69.00,-4.00,-3.00,-8.00,-46.00,-37.00,-86.00,-41.00,+37.00
-5.00,-6.00,-3.00,-11.00,+5.00,-17.00,+127.00,+70.00,-16.00,+1.00,+9.00,+59.00,-47.00,-79.00,+52.00,+26.00
-2.00,+9.00,+5.00,+22.00,+13.00,+22.00,-82.00,-19.00,-9.00,-5.00,-4.00,+19.00,+98.00,-27.00,-1.00,-12.00
+3.00,-11.00,-3.00,-6.00,+5.00,+11.00,+98.00,+96.00,+16.00,+2.00,-14.00,-63.00,+111.00,+61.00,+65.00,+18.00
-2.00,-4.00,-8.00,-20.00,-11.00,+7.00,-23.00,-5.00,+8.00,+8.00,+11.00,+61.00,+32.00,+56.00,-58.00,-4.00
-1.00,+3.00,+6.00,+17.00,+7.00,-5.00,-18.00,-43.00,-23.00,-7.00,-4.00,-40.00,-46.00,-4.00,-14.00,-75.00
+0.00,-9.00,-5.00,-24.00,-38.00,-128.00,-54.00,+16.00,-25.00,-18.00,-8.00,+8.00,+35.00,+30.00,+67.00,-32.00
-3.00,+3.00,-1.00,+4.00,+25.00,+101.00,+80.00,-13.00,+6.00,+17.00,+13.00,+20.00,-106.00,-26.00,+29.00,+23.00
-6.00,-2.00,-3.00,-9.00,-16.00,-15.00,-9.00,-3.00,-13.00,-4.00,-4.00,+12.00,+96.00,-3.00,+52.00,-13.00
+0.00,-1.00,+1.00,+11.00,+31.00,+69.00,+5.00,+15.00,+27.00,+2.00,-5.00,-39.00,+61.00,+47.00,+6.00,+38.00
-6.00,-9.00,-4.00,-38.00,-29.00,-105.00,-73.00,-34.00,-21.00,+0.00,+8.00,+56.00,-124.00,-6.00,+70.00,-27.00
+1.00,+10.00,+7.00,+29.00,+18.00,+41.00,+71.00,+15.00,-16.00,-10.00,-9.00,-56.00,+67.00,-117.00,-19.00,-35.00
+3.00,-6.00,+2.00,+10.00,+9.00,-16.00,-20.00,+56.00,+22.00,+6.00,+3.00,+1.00,+59.00,+75.00,+17.00,+27.00
+1.00,-4.00,-1.00,-9.00,-13.00,-74.00,+10.00,-2.00,-28.00,-17.00,-7.00,+25.00,+86.00,-93.00,+40.00,+47.00
+1.00,-2.00,-3.00,-3.00,+4.00,+61.00,-14.00,-21.00,+8.00,+8.00,+4.00,-9.00,+20.00,+38.00,-57.00,+60.00
-4.00,-10.00,-4.00,-2.00,+11.00,-24.00,-125.00,-31.00,-9.00,+3.00,+2.00,+6.00,-71.00,-3.00,-9.00,+14.00
-8.00,+2.00,-1.00,-30.00,-12.00,-18.00,-3.00,-36.00,+14.00,+1.00,+1.00,+25.00,+44.00,+4.00,+69.00,+44.00
-4.00,+6.00,+5.00,-12.00,+22.00,+107.00,+27.00,+31.00,-23.00,-3.00,-3.00,-26.00,-51.00,-30.00,-51.00,-20.00
+0.00,+8.00,+7.00,+24.00,+14.00,-22.00,-19.00,-27.00,+10.00,-14.00,-10.00,-78.00,-21.00,-55.00,+67.00,-30.00
-3.00,+2.00,+0.00,-9.00,-41.00,-128.00,+42.00,-14.00,-43.00,-2.00,+2.00,+75.00,+109.00,+15.00,-49.00,-13.00
-3.00,-17.00,-12.00,-19.00,+3.00,-11.00,-82.00,-18.00,+13.00,+15.00,+15.00,+32.00,+13.00,+19.00,-69.00,+30.00
-2.00,+18.00,+14.00,+30.00,+31.00,+60.00,-36.00,-44.00,+81.00,+28.00,+11.00,-28.00,-52.00,+22.00,+76.00,+65.00
-2.00,-8.00,-3.00,-40.00,+2.00,-12.00,+41.00,+46.00,-52.00,-15.00,-11.00,+10.00,+98.00,-44.00,-12.00,-58.00
+0.00,+2.00,-4.00,-36.00,-65.00,-78.00,-74.00,-89.00,+9.00,-12.00,-10.00,-27.00,+63.00,+0.00,+64.00,+20.00
-10.00,+15.00,+6.00,+22.00,+25.00,+11.00,+46.00,+11.00,+51.00,+33.00,+27.00,+67.00,-95.00,+19.00,+59.00,+83.00
+1.00,+6.00,-7.00,-20.00,-5.00,-50.00,+98.00,+58.00,-36.00,-4.00,+7.00,+17.00,+127.00,+90.00,-97.00,-13.00
+18.00,+0.00,+2.00,+26.00,-9.00,-70.00,+16.00,+39.00,-7.00,+3.00,+2.00,-8.00,+48.00,-29.00,+33.00,-15.00
-6.00,+11.00,+8.00,+9.00,+26.00,+86.00,+71.00,+69.00,+14.00,+3.00,+2.00,+6.00,+29.00,+60.00,-83.00,-8.00
+2.00,-2.00,-3.00,-27.00,-8.00,+30.00,-44.00,+4.00,+26.00,+4.00,-11.00,-44.00,-4.00,+28.00,+17.00,-1.00
+4.00,-8.00,-5.00,-4.00,-27.00,-88.00,-101.00,-6.00,-31.00,-4.00,+1.00,+15.00,-57.00,-4.00,+49.00,-100.00
-2.00,+15.00,+6.00,+25.00,+25.00,+98.00,+4.00,+21.00,-8.00,+13.00,+5.00,+33.00,+119.00,-9.00,-62.00,+67.00
+10.00,-18.00,-9.00,-3.00,-11.00,-14.00,+15.00,-22.00,+38.00,-9.00,-12.00,-44.00,+34.00,+8.00,+74.00,+13.00
+3.00,+4.00,+5.00,+29.00,+5.00,-62.00,+6.00,+4.00,-55.00,-12.00,-5.00,+23.00,-63.00,-18.00,+105.00,-11.00
+4.00,-16.00,-7.00,-11.00,+13.00,+92.00,-26.00,+51.00,-3.00,+2.00,+0.00,+19.00,+54.00,+36.00,-32.00,-25.00
-5.00,+3.00,+2.00,-2.00,-26.00,-93.00,-20.00,-50.00,-36.00,-14.00,-4.00,-7.00,+74.00,-3.00,-65.00,-48.00
+4.00,+9.00,+8.00,+35.00,+15.00,+70.00,+32.00,+20.00,-5.00,-9.00,-3.00,+9.00,-6.00,-62.00,-49.00,+8.00
+6.00,-11.00,+2.00,+24.00,+5.00,-60.00,-8.00,+68.00,+29.00,+4.00,+4.00,-4.00,-110.00,-40.00,-61.00,+18.00
-4.00,-2.00,-2.00,-3.00,+5.00,+51.00,+26.00,-33.00,-6.00,-17.00,-17.00,-29.00,+82.00,-15.00,+88.00,-9.00
-5.00,-2.00,-3.00,-51.00,-19.00,-92.00,+40.00,-4.00,-24.00,-6.00,-2.00,-22.00,-87.00,+20.00,+0.00,-34.00
+8.00,-15.00,-9.00,+66.00,+2.00,+6.00,-4.00,-3.00,+9.00,+11.00,+14.00,+55.00,-5.00,-15.00,-70.00,+3.00
-14.00,+7.00,+3.00,-38.00,-18.00,-98.00,+83.00,+22.00,-47.00,-33.00,-13.00,-13.00,+10.00,-18.00,-5.00,-86.00
+14.00,+14.00,+18.00,+118.00,+28.00,+3.00,-24.00,-12.00,+38.00,+2.00,-6.00,-7.00,+5.00,-9.00,-4.00,+28.00
-1.00,+5.00,-6.00,-6.00,+9.00,-37.00,-49.00,-12.00,-16.00,-28.00,-22.00,-3.00,-50.00,-74.00,-79.00,-66.00
-11.00,-17.00,-15.00,-95.00,-44.00,-128.00,-119.00,-38.00,+20.00,+11.00,-3.00,-25.00,+25.00,-24.00,+120.00,-58.00
+2.00,+22.00,+17.00,+82.00,+61.00,+110.00,-100.00,-9.00,-3.00,-14.00,-3.00,-17.00,+43.00,-21.00,-128.00,-60.00
-9.00,+4.00,-2.00,-33.00,+3.00,-67.00,+59.00,+34.00,+12.00,+14.00,+10.00,+37.00,-21.00,+17.00,+62.00,+46.00
-3.00,+1.00,-1.00,-47.00,+1.00,-1.00,+6.00,-1.00,+59.00,+28.00,+18.00,+29.00,-61.00,-2.00,+63.00,-5.00
-7.00,-19.00,-3.00,+17.00,-13.00,-110.00,-128.00,-85.00,-31.00,-21.00,-7.00,-18.00,+63.00,-30.00,-12.00,-31.00
-12.00,-14.00,-15.00,-41.00,-41.00,-13.00,-97.00,-72.00,+2.00,-3.00,-4.00,+7.00,+69.00,+7.00,-67.00,-62.00
+6.00,+21.00,+6.00,+42.00,+41.00,+36.00,+30.00,+42.00,+20.00,+2.00,+3.00,-35.00,-38.00,+5.00,-33.00,-21.00
-3.00,-8.00,-5.00,+30.00,+43.00,+8.00,+4.00,+7.00,+47.00,+29.00,+15.00,+28.00,+13.00,+24.00,+0.00,+98.00
+0.00,-14.00,-10.00,-48.00,-66.00,-128.00,-99.00,-9.00,-39.00,-9.00,-4.00,-10.00,+21.00,+42.00,+49.00,-68.00
-8.00,-10.00,-3.00,-28.00,+20.00,+114.00,+127.00,+44.00,+74.00,+14.00,+5.00,+13.00,+96.00,+89.00,+127.00,+82.00
-1.00,-19.00,-4.00,+3.00,-18.00,+12.00,-34.00,-63.00,-35.00,-15.00,-14.00,-56.00,-44.00,+2.00,-17.00,-19.00
+1.00,-18.00,-9.00,-19.00,-41.00,-59.00,-21.00,+18.00,+24.00,+8.00,+1.00,+26.00,+98.00,+28.00,+33.00,+46.00
-15.00,+2.00,-7.00,-55.00,+26.00,+37.00,-89.00,-34.00,-19.00,-14.00,-6.00,-9.00,+13.00,+41.00,-3.00,-15.00
+9.00,+9.00,+10.00,+74.00,+13.00,+65.00,+34.00,+16.00,+12.00,+0.00,-14.00,-114.00,+112.00,+67.00,+79.00,+10.00
+1.00,-28.00,-15.00,-60.00,-53.00,-128.00,-74.00,-47.00,-86.00,+2.00,+6.00,+83.00,-72.00,-128.00,+46.00,+7.00
-1.00,-7.00,-14.00,+15.00,+17.00,+106.00,-80.00,-43.00,-123.00,-24.00,-7.00,-13.00,-48.00,-11.00,-59.00,-43.00
-8.00,+9.00,+9.00,+8.00,+46.00,+89.00,+82.00,+55.00,-25.00,+17.00,+7.00,+7.00,+17.00,+10.00,+37.00,+48.00
+4.00,-7.00,-5.00,-17.00,-26.00,-100.00,-19.00,-13.00,-46.00,-26.00,-20.00,-57.00,+56.00,-21.00,-32.00,-92.00
+4.00,-3.00,+3.00,-5.00,-28.00,-111.00,-26.00,-17.00,-5.00,+4.00,-2.00,-17.00,+48.00,+42.00,+35.00,+38.00
-2.00,-12.00,-11.00,-10.00,+14.00,+73.00,+19.00,+8.00,-21.00,-14.00,-9.00,-10.00,-29.00,-22.00,+0.00,+6.00
+3.00,+2.00,-1.00,+2.00,-32.00,-120.00,-27.00,-23.00,-7.00,-14.00,-13.00,+8.00,-58.00,-8.00,-79.00,-42.00
-7.00,+18.00,-4.00,+18.00,+7.00,-9.00,-32.00,-20.00,+9.00,-10.00,-8.00,-14.00,+13.00,+19.00,-68.00,-31.00
-5.00,+3.00,+4.00,+13.00,+18.00,+42.00,+17.00,-64.00,+2.00,-6.00,-2.00,+5.00,-45.00,-69.00,+73.00,+15.00
+6.00,+29.00,+21.00,+100.00,+22.00,+34.00,-6.00,+0.00,+40.00,+0.00,-1.00,-21.00,+127.00,-3.00,+32.00,+14.00
+8.00,+7.00,-2.00,-11.00,+38.00,-34.00,+121.00,+38.00,+51.00,+1.00,-6.00,-30.00,+54.00,+0.00,-21.00,+11.00
-9.00,-14.00,-20.00,-36.00,-62.00,-128.00,-95.00,-108.00,-55.00,-4.00,+0.00,+29.00,-68.00,-94.00,-35.00,+49.00
-3.00,+10.00,+1.00,+10.00,+20.00,-6.00,-90.00,-4.00,+7.00,+0.00,-2.00,-37.00,-19.00,+65.00,+38.00,-1.00
+2.00,+14.00,+17.00,+25.00,+3.00,+64.00,+127.00,+74.00,+29.00,+14.00,+4.00,+9.00,+91.00,+24.00,+4.00,+44.00
-3.00,+14.00,+1.00,+5.00,-1.00,-22.00,+67.00,+21.00,+52.00,-4.00,-6.00,-78.00,+20.00,+50.00,+68.00,+7.00
+3.00,+7.00,+6.00,-8.00,-12.00,-65.00,+2.00,+3.00,-68.00,+11.00,+6.00,+92.00,-25.00,+17.00,+38.00,-25.00
-8.00,+1.00,-9.00,-27.00,-11.00,-14.00,-3.00,+36.00,+56.00,+11.00,+9.00,+10.00,+97.00,+20.00,-10.00,+44.00
+1.00,-11.00,+1.00,+9.00,+20.00,-23.00,+99.00,+22.00,-19.00,-5.00,-3.00,-5.00,-88.00,+10.00,-5.00,-50.00
-3.00,-4.00,-2.00,-23.00,-24.00,-84.00,-49.00,+18.00,+24.00,+4.00,-3.00,-25.00,+95.00,+31.00,-5.00,+19.00
+10.00,-13.00,-1.00,-16.00,-48.00,-110.00,+97.00,+37.00,+3.00,-6.00,+0.00,+18.00,+19.00,-79.00,-66.00,+2.00
-6.00,-5.00,-1.00,+27.00,+47.00,+22.00,+94.00,+1.00,-15.00,-10.00,-10.00,-40.00,+127.00,+9.00,-79.00,-54.00
+7.00,+4.00,-1.00,-6.00,+4.00,-7.00,-51.00,+12.00,-16.00,+1.00,-5.00,-1.00,+26.00,+44.00,-54.00,+47.00
-3.00,+0.00,+0.00,+5.00,+5.00,+3.00,-44.00,-25.00,-47.00,-7.00,-4.00,+8.00,-85.00,-99.00,-117.00,-15.00
+11.00,-1.00,+2.00,+21.00,-38.00,-92.00,+110.00,+61.00,+24.00,+11.00,+16.00,+38.00,-32.00,+25.00,+46.00,+45.00
-16.00,-18.00,-9.00,-57.00,-21.00,-67.00,-98.00,+49.00,-26.00,-17.00,-3.00,+15.00,+97.00,-76.00,-86.00,-51.00
-8.00,+1.00,-3.00,-32.00,+8.00,+25.00,+31.00,-27.00,+37.00,+11.00,+4.00,+0.00,-22.00,+3.00,+21.00,+29.00
+8.00,-12.00,-11.00,+27.00,+1.00,+122.00,-57.00,-54.00,-39.00,+1.00,+4.00,+24.00,+0.00,-40.00,+23.00,-24.00
-18.00,-15.00,-18.00,-78.00,-14.00,+37.00,-107.00,-55.00,+50.00,+9.00,-2.00,-57.00,+48.00,+23.00,-24.00,+43.00
-1.00,-13.00,-4.00,-13.00,-2.00,+18.00,+0.00,+55.00,-6.00,-6.00,-6.00,+2.00,+53.00,+47.00,+56.00,+18.00
-1.00,-4.00,-4.00,-4.00,-26.00,-128.00,-78.00,-40.00,+2.00,-2.00,+6.00,+23.00,+101.00,+39.00,-24.00,+3.00
+2.00,+3.00,+0.00,-6.00,+8.00,+70.00,-70.00,+0.00,-12.00,+5.00,+6.00,+25.00,-32.00,-3.00,+46.00,+23.00
-7.00,-18.00,-4.00,-37.00,+40.00,+83.00,+76.00,+21.00,+5.00,-8.00,-9.00,-29.00,+3.00,-5.00,+38.00,-10.00
+2.00,+8.00,-4.00,+1.00,-22.00,-46.00,+8.00,-27.00,+6.00,+15.00,+10.00,+6.00,-83.00,-7.00,-42.00,+11.00
+1.00,+4.00,+2.00,-4.00,-31.00,-100.00,-43.00,-65.00,+26.00,-2.00,+0.00,+4.00,+80.00,-4.00,-2.00,-15.00
+18.00,+18.00,+14.00,+56.00,+18.00,-3.00,+64.00,+72.00,+1.00,+2.00,+5.00,+3.00,-9.00,-40.00,-50.00,+2.00
+1.00,-15.00,+0.00,+35.00,+39.00,+5.00,-52.00,-46.00,-30.00,-18.00,-17.00,-49.00,-58.00,-56.00,+45.00,-43.00
+1.00,+7.00,+9.00,+0.00,-23.00,-128.00,+7.00,-30.00,-12.00,-10.00,-6.00,+25.00,+61.00,-25.00,-61.00,-42.00
+1.00,-3.00,-1.00,-1.00,+10.00,-20.00,+30.00,+27.00,-13.00,+5.00,+4.00,+5.00,-56.00,+10.00,-8.00,+15.00
-2.00,-6.00,-7.00,-20.00,-35.00,-128.00,-83.00,-20.00,+15.00,-6.00,-2.00,-15.00,-42.00,-19.00,-23.00,+36.00
+11.00,+11.00,+6.00,+25.00,+18.00,+49.00,+4.00,+15.00,-6.00,-1.00,-8.00,-25.00,+28.00,+8.00,+29.00,+18.00
+1.00,-5.00,-8.00,-24.00,-21.00,-84.00,-80.00,-32.00,-53.00,-6.00,+1.00,+41.00,-107.00,-47.00,-71.00,-31.00
-11.00,+8.00,+0.00,-40.00,-19.00,+12.00,+82.00,-82.00,+28.00,-1.00,-7.00,-23.00,+38.00,-40.00,+10.00,-26.00
-1.00,-14.00,-8.00,-4.00,-5.00,-34.00,+1.00,-17.00,-65.00,-7.00,+8.00,+47.00,+42.00,-17.00,-53.00,-32.00
+4.00,+17.00,+13.00,+65.00,+59.00,+118.00,+25.00,+36.00,+5.00,+4.00,+3.00,+40.00,-41.00,+23.00,+73.00,+23.00
+2.00,-10.00,-2.00,-23.00,-16.00,-65.00,+9.00,-7.00,+39.00,+7.00,+3.00,-38.00,-34.00,+34.00,+18.00,+42.00
-2.00,-6.00,-3.00,+7.00,+0.00,-50.00,-13.00,-28.00,-23.00,+2.00,+2.00,+25.00,-87.00,+22.00,+81.00,+23.00
-11.00,+1.00,-1.00,-30.00,-2.00,-30.00,-25.00,-2.00,-7.00,-3.00,-4.00,-12.00,-33.00,-35.00,+36.00,-41.00
+5.00,+11.00,+4.00,+8.00,-29.00,-128.00,+13.00,+18.00,-15.00,-6.00,+0.00,+30.00,-69.00,-68.00,-25.00,-23.00
-1.00,+9.00,+1.00,-3.00,-20.00,-86.00,-70.00,-16.00,+65.00,-2.00,-5.00,-29.00,+66.00,+44.00,-52.00,+8.00
+1.00,-6.00,+4.00,+13.00,+6.00,+72.00,+76.00,+123.00,-20.00,+1.00,+1.00,-2.00,+38.00,+39.00,-46.00,+2.00
+2.00,+10.00,+6.00,+25.00,+19.00,+87.00,+127.00,+48.00,+14.00,+2.00,-1.00,-9.00,+48.00,+41.00,+25.00,-2.00
-9.00,-16.00,-14.00,-86.00,-54.00,-128.00,-127.00,-18.00,+37.00,+10.00,+12.00,+14.00,+103.00,+80.00,+64.00,+30.00
-4.00,+9.00,+1.00,+1.00,+45.00,+127.00,+74.00,+13.00,-23.00,-13.00,-15.00,+8.00,+127.00,+56.00,+92.00,-51.00
+9.00,-11.00,-6.00,+5.00,-12.00,-41.00,-45.00,-7.00,-9.00,-6.00,-5.00,-10.00,-8.00,+28.00,-34.00,-12.00
-6.00,-9.00,-1.00,+13.00,-1.00,-34.00,-50.00,-45.00,-10.00,+6.00,+7.00,+25.00,+10.00,+54.00,-2.00,+11.00
+10.00,-9.00,-9.00,-7.00,-36.00,-43.00,-14.00,-43.00,-31.00,+10.00,+5.00,-36.00,-20.00,-52.00,-65.00,+39.00
+0.00,-11.00,-5.00,-6.00,+18.00,+83.00,-29.00,+2.00,-4.00,+3.00,+2.00,+24.00,-51.00,-14.00,-11.00,+11.00
+0.00,-14.00,-4.00,+6.00,+6.00,-21.00,-70.00,-21.00,-15.00,-5.00,+0.00,+10.00,-76.00,-53.00,+30.00,-37.00
+5.00,+9.00,+5.00,+12.00,-3.00,-48.00,+21.00,+30.00,+28.00,-17.00,-10.00,-23.00,+119.00,+54.00,-6.00,-42.00
-4.00,-9.00,-11.00,-12.00,-3.00,-84.00,-34.00,-30.00,-32.00,+1.00,+3.00,+14.00,-116.00,+58.00,+60.00,+9.00
-4.00,+7.00,+2.00,+25.00,-12.00,+9.00,+80.00,+17.00,+15.00,+5.00,+1.00,-37.00,+54.00,+19.00,-45.00,-60.00
+2.00,-8.00,-10.00,-49.00,-44.00,-128.00,+17.00,+23.00,-42.00,-24.00,-13.00,-19.00,-45.00,-52.00,-23.00,-98.00
-11.00,+7.00,-1.00,+1.00,+81.00,+121.00,-33.00,+9.00,+20.00,+0.00,-2.00,+9.00,+97.00,+23.00,+89.00,+55.00
-3.00,-5.00,-4.00,-12.00,+1.00,-53.00,+59.00,+23.00,+15.00,-3.00,-4.00,-15.00,+10.00,-32.00,-18.00,-7.00
+6.00,-3.00,-1.00,+8.00,-7.00,-96.00,-41.00,+8.00,-3.00,+10.00,+5.00,+7.00,-32.00,+21.00,-5.00,+50.00
-12.00,-4.00,-3.00,+9.00,+18.00,+63.00,-43.00,+35.00,-10.00,-13.00,-7.00,-9.00,-65.00,-33.00,-16.00,-24.00
+1.00,-11.00,-5.00,-49.00,-39.00,-84.00,+44.00,-35.00,+9.00,+9.00,+2.00,-6.00,-60.00,+35.00,+28.00,+13.00
-3.00,+10.00,+6.00,+35.00,+44.00,+127.00,+30.00,-19.00,+5.00,-3.00,-1.00,+12.00,+50.00,-13.00,-36.00,-45.00
+11.00,-6.00,-8.00,-5.00,-40.00,-79.00,-62.00,-20.00,-11.00,-4.00,-7.00,-41.00,-13.00,-39.00,+121.00,-13.00
-3.00,+6.00,+4.00,-19.00,+5.00,-61.00,+46.00,-20.00,+27.00,+4.00,+0.00,+1.00,+48.00,+34.00,+33.00,+11.00
-5.00,+0.00,+1.00,+6.00,-16.00,-107.00,-58.00,-17.00,-6.00,+4.00,+1.00,-3.00,-30.00,-20.00,+2.00,+30.00
+17.00,+12.00,+24.00,+78.00,+17.00,-29.00,+105.00,+123.00,-13.00,+1.00,+2.00,+11.00,-53.00,-23.00,-49.00,-13.00
+6.00,-9.00,-5.00,-9.00,+1.00,-9.00,+2.00,-30.00,+30.00,+10.00,+5.00,-11.00,+42.00,+15.00,-26.00,+64.00
-2.00,+11.00,+3.00,-6.00,-16.00,-65.00,-79.00,-18.00,+9.00,+10.00,+7.00,+24.00,+16.00,+9.00,-11.00,+26.00
-3.00,+11.00,+5.00,+45.00,+19.00,+31.00,-4.00,-42.00,+11.00,+3.00,+1.00,+9.00,+62.00,+25.00,-37.00,+4.00
-2.00,-4.00,+0.00,-33.00,+5.00,+23.00,+75.00,+34.00,+0.00,-8.00,-3.00,-2.00,+62.00,-38.00,-63.00,+4.00
-1.00,-6.00,-2.00,+4.00,-3.00,-27.00,-34.00,-2.00,-2.00,+2.00,+3.00,+9.00,-42.00,-35.00,+11.00,+0.00
+7.00,+12.00,+3.00,+30.00,+16.00,+73.00,+7.00,-14.00,+0.00,+7.00,+2.00,-7.00,-92.00,-15.00,+15.00,+17.00
-5.00,-8.00,-4.00,-31.00,-25.00,-48.00,-37.00,+28.00,-31.00,-7.00,-4.00,-1.00,+6.00,-57.00,-16.00,-19.00
+1.00,-2.00,+0.00,+10.00,-12.00,-1.00,-30.00,-23.00,+41.00,+9.00,+3.00,+7.00,-31.00,-10.00,+6.00,+29.00
+0.00,+2.00,+1.00,+14.00,-10.00,+9.00,-14.00,-2.00,+2.00,-1.00,-5.00,+3.00,+35.00,-29.00,-81.00,+27.00
+2.00,-11.00,-7.00,-26.00,+9.00,+53.00,+69.00,+50.00,+25.00,+5.00,+1.00,+8.00,+93.00,+34.00,+7.00,+11.00
-1.00,+5.00,+0.00,-19.00,-15.00,-47.00,+81.00,+17.00,-39.00,-13.00,-7.00,-15.00,-128.00,-43.00,+25.00,-33.00
-8.00,-11.00,-10.00,-25.00,-10.00,-34.00,-113.00,-51.00,-14.00,-8.00,-5.00,-6.00,+32.00,+29.00,-63.00,-32.00
+2.00,+16.00,+11.00,+24.00,+41.00,+84.00,+97.00,+37.00,-13.00,-7.00,-2.00,-5.00,-80.00,-36.00,+34.00,-41.00
-6.00,-15.00,-9.00,-13.00,-16.00,-76.00,-76.00,-56.00,+31.00,+7.00,+1.00,-30.00,+84.00,+13.00,+43.00,+49.00
+4.00,+6.00,-2.00,+12.00,-3.00,+5.00,-35.00,+11.00,-21.00,+0.00,+0.00,+23.00,-99.00,-59.00,-38.00,-5.00
-9.00,+2.00,+1.00,-13.00,+5.00,-29.00,-10.00,-51.00,+25.00,-1.00,-5.00,-4.00,+125.00,+20.00,+116.00,-2.00
+1.00,-4.00,-5.00,-22.00,-28.00,-128.00,-58.00,-15.00,-9.00,-1.00,+2.00,+18.00,+5.00,+24.00,-59.00,+13.00
-5.00,+7.00,+3.00,+7.00,+2.00,+25.00,-4.00,+4.00,-1.00,-3.00,+0.00,-3.00,+79.00,-19.00,-14.00,-5.00
+2.00,-4.00,+4.00,-8.00,+12.00,+20.00,-5.00,+13.00,+40.00,-1.00,-2.00,+0.00,+85.00,+27.00,-29.00,-14.00
+1.00,-6.00,-8.00,+10.00,+19.00,+105.00,-50.00,+0.00,-3.00,-6.00,-4.00,-9.00,+49.00,+29.00,+38.00,-8.00
-2.00,+10.00,+7.00,+0.00,-8.00,-66.00,-10.00,-10.00,-17.00,+4.00,+1.00,+6.00,+14.00,-17.00,+55.00,+26.00
+7.00,+9.00,+11.00,+31.00,+9.00,-38.00,+58.00,+6.00,-16.00,-5.00,-3.00,+1.00,-42.00,-15.00,-73.00,-23.00
+1.00,-10.00,-3.00,+9.00,+9.00,-11.00,-18.00,-9.00,-45.00,+2.00,-1.00,-13.00,+27.00,+4.00,+21.00,+19.00
-7.00,+3.00,-3.00,-33.00,+0.00,-25.00,+17.00,+10.00,-43.00,-2.00,-3.00,+2.00,-68.00,-26.00,-11.00,-9.00
-2.00,-2.00,-4.00,-17.00,-3.00,+34.00,+26.00,+14.00,-4.00,-7.00,-5.00,-12.00,+24.00,+20.00,+11.00,+2.00
+5.00,+3.00,-3.00,+6.00,+7.00,+9.00,-7.00,-2.00,+7.00,-2.00,-9.00,-34.00,+79.00,-6.00,+16.00,-17.00
+0.00,+2.00,+0.00,-5.00,+0.00,+3.00,+32.00,+1.00,-18.00,+1.00,+0.00,+15.00,+13.00,+1.00,-7.00,+6.00
+1.00,-2.00,+2.00,+18.00,-1.00,+2.00,-2.00,-10.00,+10.00,+6.00,+3.00,+4.00,-24.00,+15.00,-14.00,+29.00
-3.00,-11.00,-6.00,+0.00,+0.00,+35.00,-13.00,-1.00,+15.00,-2.00,-2.00,-8.00,-103.00,-20.00,+59.00,-14.00
+5.00,+4.00,-1.00,+19.00,-13.00,-40.00,-64.00,-19.00,+19.00,-9.00,-5.00,-14.00,-20.00,+22.00,+36.00,-19.00
+2.00,+0.00,-9.00,+0.00,-1.00,+98.00,-9.00,+6.00,+23.00,-5.00,+0.00,-6.00,-25.00,-20.00,-3.00,-23.00
+4.00,+7.00,-3.00,-3.00,+1.00,+4.00,-42.00,-4.00,-13.00,+4.00,+1.00,+17.00,-31.00,-3.00,+2.00,-1.00
+0.00,-4.00,-2.00,-16.00,+7.00,+27.00,+105.00,+29.00,+42.00,-2.00,-3.00,-2.00,+6.00,+8.00,-13.00,+11.00
+6.00,-1.00,-3.00,+18.00,-13.00,-51.00,-42.00,-18.00,-29.00,-15.00,+2.00,+7.00,-44.00,+2.00,+14.00,+1.00
-1.00,-4.00,+1.00,+9.00,+23.00,+89.00,+23.00,+5.00,+56.00,+24.00,+4.00,-3.00,+17.00,+45.00,+17.00,+15.00
+5.00,+3.00,+0.00,-4.00,-30.00,-84.00,-53.00,-20.00,-1.00,-7.00,-1.00,+1.00,+20.00,-31.00,-8.00,-5.00
-2.00,+7.00,+2.00,-14.00,+15.00,+30.00,+6.00,+5.00,-14.00,-5.00,-5.00,-15.00,-9.00,+4.00,+5.00,+1.00
-3.00,-11.00,-6.00,-27.00,-12.00,-63.00,+11.00,+0.00,-18.00,+6.00,+5.00,+22.00,-7.00,-15.00,-1.00,+16.00
+7.00,-2.00,+3.00,+36.00,-21.00,-78.00,+18.00,+17.00,+14.00,-3.00,+2.00,+3.00,-3.00,-7.00,+7.00,+21.00
-2.00,-6.00,-4.00,-21.00,+2.00,-42.00,-45.00,-30.00,+12.00,-2.00,-5.00,-12.00,-9.00,-5.00,-34.00,-18.00
-4.00,-4.00,+0.00,-8.00,-13.00,-71.00,-73.00,-18.00,+10.00,+3.00,+2.00,+6.00,+34.00,+2.00,-4.00,+2.00
-4.00,+6.00,+2.00,+0.00,+15.00,+11.00,+42.00,+27.00,+9.00,-8.00,-2.00,+7.00,-28.00,-6.00,+1.00,+2.00
-4.00,-4.00,+0.00,-14.00,-19.00,-63.00,-10.00,-17.00,+38.00,-2.00,-3.00,-5.00,+9.00,-14.00,+4.00,-4.00
-4.00,-1.00,+0.00,-8.00,+7.00,+34.00,+4.00,+13.00,+22.00,+2.00,+1.00,-6.00,-12.00,+7.00,+2.00,+2.00
+3.00,-5.00,-1.00,+14.00,+5.00,+52.00,+1.00,-6.00,-26.00,-5.00,-2.00,-14.00,+18.00,-8.00,-3.00,-8.00
-1.00,+3.00,-5.00,-33.00,-40.00,-103.00,-34.00,-6.00,-37.00,-1.00,-5.00,-4.00,+50.00,-10.00,+4.00,-7.00
-8.00,-8.00,-6.00,-1.00,+27.00,+71.00,-18.00,-3.00,-46.00,+0.00,-1.00,+4.00,+0.00,+8.00,-18.00,+5.00
+5.00,+10.00,+7.00,+17.00,+8.00,+1.00,+102.00,+12.00,-33.00,-5.00,-2.00,+1.00,+2.00,+0.00,+2.00,-1.00
+3.00,-4.00,+1.00,+23.00,+15.00,+27.00,+4.00,+1.00,-21.00,-5.00,-1.00,+10.00,+10.00,+5.00,+8.00,+6.00
-4.00,-5.00,-2.00,-20.00,-19.00,-46.00,-30.00,-6.00,-3.00,+1.00,-3.00,-7.00,+85.00,+6.00,-2.00,-5.00
-4.00,+3.00,-1.00,-21.00,-9.00,-21.00,-15.00,+0.00,+27.00,+9.00,+3.00,-17.00,-93.00,-14.00,+35.00,+9.00
+1.00,+0.00,-1.00,+14.00,+27.00,+82.00,+17.00,+15.00,+49.00,-7.00,+1.00,+23.00,-43.00,-50.00,+5.00,-9.00
+1.00,-5.00,-4.00,-13.00,-14.00,-21.00,+0.00,-10.00,+41.00,+0.00,+1.00,+2.00,+42.00,+17.00,-8.00,-7.00
+3.00,+6.00,+0.00,+11.00,+10.00,+48.00,+2.00,+4.00,+22.00,+4.00,+4.00,+12.00,-28.00,+5.00,+2.00,+68.00
+3.00,-28.00,+1.00,+6.00,-8.00,-16.00,+7.00,-1.00,+11.00,-5.00,-6.00,-5.00,-26.00,-4.00,+8.00,-3.00
-3.00,+8.00,-3.00,-11.00,+10.00,+4.00,+4.00,+3.00,-31.00,+4.00,+1.00,-10.00,-2.00,+6.00,-5.00,+43.00
+2.00,+2.00,-1.00,+2.00,-19.00,-113.00,-63.00,-21.00,-55.00,+1.00,-2.00,-3.00,-23.00,-9.00,+8.00,+49.00
-6.00,+8.00,+4.00,+15.00,+28.00,+127.00,+20.00,-3.00,-65.00,+1.00,-1.00,-6.00,-50.00,-2.00,-5.00,+55.00
-3.00,+10.00,+3.00,+9.00,-1.00,-47.00,+3.00,-15.00,-121.00,-31.00,-5.00,+1.00,+25.00,-8.00,+2.00,-72.00
+1.00,-4.00,-4.00,+10.00,+1.00,+7.00,+1.00,+5.00,-40.00,+29.00,+14.00,+5.00,+57.00,+11.00,-9.00,-6.00
-1.00,-1.00,-1.00,-4.00,-10.00,-4.00,+10.00,-4.00,+65.00,+10.00,+3.00,+3.00,-12.00,-3.00,+0.00,-39.00
+2.00,+4.00,+0.00,+23.00,+7.00,-19.00,+17.00,+9.00,+11.00,-19.00,-17.00,-1.00,-14.00,-6.00,-9.00,-47.00
-1.00,-3.00,-4.00,-10.00,-3.00,-12.00,+5.00,+3.00,+61.00,+7.00,-3.00,-10.00,+21.00,-4.00,+1.00,+48.00
+0.00,-7.00,+0.00,-3.00,-3.00,-2.00,-16.00,+1.00,+6.00,-22.00,-3.00,-5.00,-28.00,+3.00,+0.00,-20.00
-4.00,+4.00,+0.00,-2.00,-5.00,+2.00,+5.00,-5.00,+16.00,+0.00,-2.00,+6.00,+30.00,+22.00,+1.00,+5.00
-1.00,-6.00,-2.00,-3.00,+5.00,-19.00,+16.00,+2.00,+21.00,+7.00,+6.00,+0.00,-38.00,+0.00,-1.00,-29.00
-3.00,+1.00,-2.00,-2.00,-3.00,+54.00,+0.00,+0.00,-10.00,-17.00,-8.00,+5.00,+15.00,-6.00,-11.00,-28.00
-3.00,+0.00,+0.00,+10.00,+10.00,-3.00,-12.00,+0.00,+51.00,+4.00,+7.00,-27.00,+29.00,+11.00,-1.00,+3.00
-2.00,+4.00,+2.00,+0.00,+6.00,+0.00,+14.00,+3.00,-32.00,-1.00,-1.00,+9.00,-27.00,-4.00,+5.00,+6.00
+1.00,-16.00,-9.00,-34.00,-28.00,-107.00,-13.00,-2.00,+10.00,-4.00,-6.00,+2.00,+23.00,-50.00,+0.00,-18.00
+3.00,+18.00,+10.00,+61.00,+54.00,+63.00,+20.00,+19.00,-26.00,-8.00,-5.00,+3.00,+36.00,+4.00,-3.00,+1.00
-2.00,+1.00,+1.00,-16.00,-4.00,-42.00,+7.00,-5.00,+17.00,-12.00,-6.00,-1.00,+11.00,+4.00,+0.00,-3.00
+1.00,-4.00,+1.00,-2.00,+5.00,-50.00,-5.00,-10.00,+0.00,+11.00,+8.00,-7.00,+28.00,+17.00,+3.00,-9.00
+0.00,-4.00,+2.00,-4.00,-31.00,-27.00,+0.00,+29.00,+20.00,-1.00,+2.00,-2.00,-13.00,-3.00,-2.00,-5.00
+0.00,-7.00,-7.00,-2.00,+49.00,+20.00,+6.00,-10.00,+19.00,+6.00,+2.00,+1.00,-8.00,-4.00,+3.00,+0.00
+1.00,+1.00,+4.00,-3.00,-12.00,-2.00,-1.00,+9.00,-24.00,-13.00,+4.00,+6.00,+13.00,-4.00,-3.00,-22.00
+0.00,+1.00,-1.00,+13.00,+6.00,+62.00,+12.00,-16.00,-21.00,-29.00,-34.00,-13.00,-8.00,-22.00,-10.00,-38.00
+2.00,-1.00,-2.00,+4.00,+2.00,+18.00,+7.00,+45.00,+19.00,+10.00,+3.00,-2.00,-20.00,+13.00,+6.00,+34.00
-4.00,+17.00,-9.00,-18.00,-32.00,-42.00,-42.00,-126.00,-9.00,+7.00,-8.00,-4.00,+24.00,-5.00,+1.00,+5.00
-1.00,-11.00,-4.00,+9.00,-1.00,+18.00,+6.00,+64.00,-7.00,-4.00,-8.00,+10.00,-1.00,+6.00,+7.00,+2.00
-4.00,+11.00,+14.00,-5.00,-2.00,-11.00,+4.00,+47.00,+50.00,+3.00,+13.00,+6.00,-7.00,-7.00,-3.00,+4.00
-5.00,-5.00,-4.00,-10.00,+13.00,+42.00,+2.00,+3.00,+4.00,-9.00,-7.00,+0.00,+6.00,+2.00,-5.00,-24.00
-2.00,-15.00,-5.00,-13.00,-23.00,-56.00,+4.00,+27.00,+18.00,-11.00,+3.00,-9.00,-32.00,+2.00,+15.00,-34.00
-3.00,+14.00,+0.00,-3.00,+14.00,+32.00,-4.00,-25.00,-11.00,+35.00,+10.00,+5.00,-3.00,-1.00,+2.00,-4.00
+0.00,-9.00,-15.00,+3.00,-18.00,-40.00,-5.00,-31.00,-45.00,+12.00,+20.00,-3.00,-42.00,-15.00,-8.00,-11.00
+1.00,+0.00,+10.00,+15.00,+12.00,+20.00,+4.00,-7.00,+15.00,-6.00,+1.00,-6.00,+111.00,+12.00,+5.00,+1.00
-1.00,+18.00,-3.00,-18.00,-9.00,-12.00,+2.00,+28.00,+20.00,+11.00,-17.00,-1.00,-88.00,-27.00,-5.00,-4.00
-3.00,-21.00,-2.00,-25.00,-27.00,-91.00,-21.00,-23.00,-14.00,-14.00,-15.00,+5.00,-38.00,-3.00,-2.00,-3.00
-1.00,+28.00,+32.00,+18.00,+15.00,+40.00,+6.00,+12.00,-28.00,+2.00,-10.00,-4.00,+17.00,-4.00,-1.00,-8.00
-1.00,+5.00,-8.00,-11.00,+16.00,+39.00,+20.00,-23.00,+9.00,-6.00,+8.00,-3.00,-77.00,-7.00,-8.00,-14.00
+2.00,+0.00,+2.00,-12.00,-18.00,-20.00,+4.00,+8.00,+16.00,+35.00,+18.00,+9.00,+46.00,+29.00,+7.00,+34.00
-5.00,-1.00,-5.00,-5.00,+6.00,+10.00,+6.00,-13.00,-55.00,-18.00,-4.00,-2.00,-19.00,-5.00,+0.00,-6.00
-2.00,-11.00,-8.00,+5.00,+6.00,-4.00,-5.00,+2.00,+17.00,-3.00,-16.00,-33.00,+36.00,+9.00,+0.00,+9.00
+1.00,-3.00,+0.00,-5.00,-1.00,-10.00,-10.00,-22.00,+12.00,+7.00,+6.00,+27.00,-38.00,-6.00,+4.00,+15.00
+0.00,-9.00,-21.00,+5.00,-20.00,+0.00,-2.00,+1.00,-13.00,+3.00,+9.00,+2.00,+4.00,-5.00,-4.00,+4.00
+1.00,+5.00,+17.00,-1.00,-5.00,-5.00,-7.00,-5.00,-2.00,+8.00,-9.00,-4.00,-24.00,-4.00,+0.00,-9.00
+0.00,+12.00,-10.00,-38.00,-5.00,-4.00,+7.00,+19.00,-19.00,-24.00,-3.00,-1.00,+16.00,+2.00,-1.00,-6.00
-3.00,+2.00,+7.00,+36.00,+11.00,+6.00,-1.00,-31.00,-16.00,+0.00,-8.00,-17.00,-11.00,+5.00,-5.00,-17.00
+2.00,-10.00,+6.00,+1.00,-5.00,-11.00,+0.00,+14.00,+60.00,-1.00,+0.00,+2.00,+11.00,-1.00,-2.00,+13.00
+1.00,-2.00,-23.00,+9.00,+7.00,+19.00,+1.00,+13.00,+99.00,-1.00,+4.00,+3.00,+43.00,+8.00,-3.00,-2.00
+0.00,-23.00,+13.00,-8.00,-3.00,-2.00,+1.00,+7.00,-34.00,-17.00,+1.00,+4.00,-28.00,-9.00,-6.00,-12.00
-1.00,+17.00,+6.00,-8.00,+5.00,+30.00,-6.00,-4.00,+10.00,+27.00,+17.00,+2.00,-11.00,+0.00,+0.00,-8.00
-4.00,+36.00,-2.00,-14.00,-14.00,-52.00,-21.00,-76.00,-60.00,+13.00,-5.00,+1.00,+23.00,-3.00,+2.00,+19.00
-5.00,-26.00,+0.00,+14.00,+7.00,+4.00,+1.00,+24.00,-114.00,-75.00,-30.00,-14.00,+9.00,+4.00,-6.00,-10.00
+0.00,-33.00,-60.00,-13.00,-7.00,+3.00,-2.00,+10.00,-23.00,-12.00,-13.00,+6.00,-22.00,-1.00,-2.00,+5.00
-4.00,-12.00,+46.00,-30.00,-21.00,-83.00,-15.00,+6.00,-89.00,-29.00,+4.00,+0.00,+1.00,-1.00,-11.00,-28.00
-2.00,+8.00,+12.00,+21.00,+26.00,+104.00,+21.00,+11.00,-8.00,+20.00,+3.00,-39.00,+69.00,+15.00,+0.00,-1.00
+1.00,+21.00,-1.00,-5.00,+0.00,+13.00,+3.00,+0.00,-3.00,+6.00,+2.00,+13.00,-31.00,-21.00,-4.00,+6.00
-1.00,+5.00,-9.00,-23.00,-8.00,-42.00,-10.00,-27.00,+5.00,+1.00,-1.00,+6.00,+5.00,-6.00,+2.00,-3.00
-3.00,-20.00,-23.00,+17.00,+13.00,+50.00,+6.00,-3.00,-64.00,-16.00,-3.00,+5.00,+16.00,+7.00,-1.00,-15.00
+0.00,-46.00,+0.00,-3.00,-2.00,-37.00,-2.00,+14.00,+56.00,-16.00,+0.00,-6.00,+12.00,+3.00,+0.00,+3.00
+0.00,+21.00,+4.00,-11.00,-12.00,-26.00,-6.00,-22.00,+52.00,+31.00,-2.00,-10.00,-1.00,+3.00,+4.00,+12.00
-1.00,-13.00,+0.00,+9.00,+6.00,+55.00,+7.00,-1.00,+0.00,+5.00,+9.00,+6.00,-23.00,-3.00,+4.00,+31.00
+5.00,+3.00,-5.00,+13.00,+18.00,+25.00,+8.00,+1.00,-10.00,+10.00,+0.00,-14.00,-11.00,-2.00,-6.00,+9.00
+1.00,+8.00,+6.00,-5.00,-2.00,-1.00,+1.00,+7.00,-28.00,-12.00,+0.00,+10.00,-22.00,-11.00,-12.00,-34.00
+2.00,-11.00,-16.00,-6.00,+3.00,+16.00,-3.00,-17.00,+91.00,-17.00,-12.00,-4.00,+25.00,+2.00,+3.00,+10.00
+3.00,+24.00,+23.00,+9.00,-8.00,-33.00,-7.00,-10.00,+33.00,+21.00,+13.00,+12.00,-85.00,-12.00,+0.00,-7.00
-2.00,-2.00,-9.00,+4.00,-8.00,-20.00,+1.00,-10.00,+43.00,+16.00,+4.00,+0.00,+14.00,+7.00,-1.00,+1.00
-3.00,-5.00,-3.00,-1.00,+1.00,+10.00,+4.00,+19.00,-12.00,-21.00,-13.00,+2.00,-15.00,-5.00,-3.00,-14.00
+0.00,-4.00,-3.00,-9.00,-5.00,-32.00,-7.00,+4.00,-22.00,+4.00,+8.00,+6.00,+8.00,+1.00,-3.00,-9.00
-7.00,+14.00,-2.00,-4.00,-4.00,-7.00,+1.00,-1.00,-8.00,-2.00,-6.00,-11.00,+18.00,-3.00,-11.00,-27.00
-1.00,-51.00,-42.00,-22.00,+1.00,+14.00,-4.00,+2.00,+29.00,-15.00,+3.00,+0.00,-32.00,+6.00,+18.00,+61.00
+2.00,-18.00,+59.00,+10.00,-7.00,-30.00,+0.00,+33.00,-37.00,+27.00,+17.00,+17.00,-18.00,-3.00,-3.00,-9.00
-4.00,+82.00,+23.00,+10.00,-2.00,-1.00,-1.00,+5.00,-80.00,-40.00,-15.00,-13.00,+5.00,-2.00,-2.00,-13.00
-1.00,-7.00,-1.00,+11.00,+0.00,-17.00,+1.00,+6.00,+60.00,-9.00,+1.00,-26.00,+90.00,-15.00,+0.00,+25.00
-8.00,+63.00,-7.00,-13.00,-4.00,+16.00,-1.00,+21.00,-28.00,+36.00,-5.00,+22.00,-103.00,+10.00,-5.00,-22.00
+4.00,-86.00,-28.00,+2.00,-28.00,-119.00,-26.00,+2.00,+13.00,-17.00,+0.00,+2.00,+26.00,+4.00,+6.00,+26.00
-9.00,-15.00,-1.00,-22.00,+9.00,+20.00,+9.00,+0.00,+30.00,+25.00,+16.00,+5.00,-6.00,+4.00,+2.00,-4.00
-2.00,-3.00,+6.00,+6.00,+14.00,+80.00,+11.00,-4.00,-58.00,-13.00,-7.00,-2.00,+44.00,-1.00,-6.00,-15.00
+2.00,-9.00,-7.00,+6.00,-1.00,-26.00,-4.00,-11.00,+3.00,+10.00,-5.00,-10.00,+2.00,-3.00,-9.00,-41.00
-3.00,+8.00,-5.00,+0.00,-2.00,-20.00,-1.00,-1.00,+15.00,+25.00,+1.00,+1.00,-6.00,+0.00,+2.00,+17.00
+0.00,-54.00,+4.00,+15.00,-10.00,-10.00,+1.00,-16.00,+45.00,+14.00,+2.00,+0.00,-6.00,+0.00,+0.00,+5.00
+3.00,+66.00,+2.00,+13.00,+2.00,-22.00,+0.00,-12.00,+104.00,-1.00,-8.00,+4.00,-16.00,+2.00,-3.00,-13.00
-2.00,-32.00,+7.00,-1.00,-4.00,-9.00,+0.00,+8.00,+106.00,+1.00,+0.00,-8.00,+7.00,-4.00,+10.00,+40.00
+2.00,+44.00,-2.00,+16.00,+3.00,+39.00,+5.00,+24.00,-25.00,-19.00,-6.00,+1.00,-22.00,-4.00,-4.00,-13.00
+2.00,+22.00,-7.00,+1.00,-2.00,-3.00,-2.00,+2.00,-14.00,+7.00,+6.00,-3.00,+7.00,-2.00,+1.00,+0.00
+0.00,-85.00,-7.00,+8.00,+6.00,+19.00,+5.00,-7.00,-38.00,+15.00,-1.00,+8.00,-13.00,+4.00,+0.00,-1.00
-4.00,+1.00,-7.00,+7.00,+0.00,-16.00,-5.00,-8.00,+72.00,-9.00,+0.00,-2.00,+22.00,+0.00,+0.00,+0.00
+1.00,-4.00,+9.00,-13.00,+5.00,+17.00,+3.00,+4.00,-22.00,-43.00,-6.00,-1.00,+6.00,-4.00,-1.00,+1.00
-1.00,+33.00,-7.00,+4.00,+5.00,+13.00,-3.00,-3.00,-94.00,+5.00,-3.00,-2.00,-9.00,+1.00,+0.00,-1.00
-5.00,-15.00,-2.00,-18.00,-25.00,-55.00,-13.00,+5.00,-41.00,+23.00,+7.00,-12.00,+58.00,+5.00,+0.00,+13.00
+1.00,+22.00,+16.00,+25.00,+19.00,+65.00,+18.00,+9.00,+28.00,+22.00,+1.00,+5.00,+33.00,-17.00,-1.00,+10.00
-1.00,-24.00,-51.00,-12.00,+2.00,+16.00,+0.00,+6.00,-34.00,-11.00,-1.00,-10.00,-75.00,-9.00,-9.00,-18.00
-1.00,-19.00,+28.00,-8.00,-5.00,-12.00,-8.00,-3.00,-33.00,-6.00,+5.00,+10.00,+0.00,+3.00,+4.00,+4.00
-3.00,-45.00,+2.00,-19.00,-28.00,-84.00,-5.00,-11.00,-122.00,-33.00,-9.00,+14.00,+7.00,+10.00,-11.00,-59.00
-4.00,+17.00,+1.00,+27.00,+45.00,+83.00,+14.00,+9.00,+50.00,+7.00,+6.00,+3.00,+46.00,+12.00,+22.00,+43.00
-2.00,+32.00,-8.00,-9.00,-2.00,+6.00,+3.00,-7.00,-1.00,+13.00,-5.00,-8.00,+9.00,-1.00,-5.00,-6.00
+4.00,-18.00,-4.00,+7.00,+15.00,+14.00,+2.00,-3.00,+3.00,+1.00,+5.00,-6.00,-7.00,-2.00,-2.00,+4.00
-5.00,-20.00,+3.00,-14.00,-8.00,-20.00,-5.00,-9.00,+19.00,-5.00,-4.00,-6.00,-28.00,+0.00,+4.00,-1.00
+0.00,+45.00,+4.00,+4.00,-13.00,-19.00,-7.00,-1.00,-66.00,-23.00,-14.00,-9.00,+3.00,-5.00,-6.00,-11.00
-1.00,-13.00,-1.00,+24.00,+0.00,+0.00,+2.00,+4.00,+27.00,-1.00,+14.00,+8.00,-4.00,-2.00,-5.00,-3.00
+2.00,-15.00,-7.00,+2.00,-2.00,+0.00,-2.00,-6.00,-18.00,-10.00,-16.00,-6.00,+16.00,+5.00,+5.00,-3.00
-2.00,+4.00,+2.00,+4.00,-3.00,-1.00,-7.00,-1.00,+17.00,-18.00,+13.00,+6.00,-18.00,-5.00,+0.00,+8.00
+3.00,-11.00,+1.00,+5.00,-2.00,-25.00,-1.00,-23.00,-7.00,-23.00,-39.00,-18.00,-17.00,-5.00,-7.00,-7.00
+0.00,+26.00,+8.00,-13.00,+4.00,+17.00,+1.00,-2.00,+8.00,+50.00,+7.00,+3.00,+22.00,+3.00,+6.00,+19.00
+2.00,-28.00,-3.00,+0.00,-6.00,-12.00,+2.00,+2.00,+14.00,-8.00,+4.00,+1.00,-5.00,-8.00,-6.00,-6.00
+1.00,+35.00,-3.00,+7.00,+10.00,+22.00,+0.00,+6.00,+21.00,+9.00,+4.00,-11.00,-4.00,-6.00,-3.00,-9.00
+1.00,+16.00,+4.00,-13.00,-18.00,-40.00,-6.00,+8.00,-13.00,+2.00,+11.00,+19.00,-3.00,+7.00,-1.00,+0.00
-4.00,+15.00,+3.00,-7.00,+3.00,+23.00,-2.00,-31.00,-19.00,-30.00,-12.00,+2.00,+6.00,-5.00,-2.00,-17.00
-4.00,-9.00,-6.00,+2.00,+2.00,-2.00,-3.00,+3.00,+48.00,+29.00,-4.00,-17.00,+41.00,+5.00,+0.00,+8.00
+1.00,+7.00,-1.00,-1.00,-1.00,+9.00,-2.00,+3.00,-1.00,+0.00,+6.00,+38.00,-42.00,-19.00,+13.00,+26.00
+2.00,-46.00,+3.00,-2.00,-14.00,-1.00,-1.00,+0.00,-74.00,-13.00,+1.00,-9.00,+30.00,+20.00,-8.00,-19.00
+0.00,+39.00,+8.00,-2.00,+2.00,-71.00,-1.00,+11.00,+26.00,+14.00,-2.00,-5.00,+43.00,+1.00,-3.00,+2.00
-1.00,-2.00,-6.00,-2.00,-15.00,+24.00,+2.00,+1.00,+9.00,+16.00,+6.00,+14.00,-21.00,+4.00,+4.00,-4.00
+3.00,+20.00,+0.00,+13.00,+41.00,-17.00,-30.00,-9.00,+26.00,-3.00,-1.00,-12.00,+0.00,-5.00,+3.00,+29.00
-5.00,-41.00,-5.00,-5.00,-11.00,+25.00,+32.00,+2.00,-17.00,-11.00,-9.00,-9.00,-20.00,-4.00,+1.00,-3.00
-2.00,-26.00,-5.00,-17.00,-16.00,-21.00,-9.00,-1.00,-6.00,+10.00,+2.00,+5.00,+9.00,-3.00,-5.00,-19.00
+1.00,+24.00,-16.00,-2.00,+0.00,+2.00,+4.00,-1.00,+22.00,-23.00,-2.00,-6.00,-14.00,-2.00,-2.00,+8.00
+0.00,+20.00,+14.00,+6.00,-9.00,-18.00,-1.00,-6.00,-8.00,+41.00,+0.00,-5.00,+11.00,+13.00,+5.00,+11.00
+1.00,+7.00,-3.00,-11.00,-4.00,-44.00,-18.00,-4.00,-53.00,-4.00,+2.00,+7.00,-30.00,-13.00,-2.00,-15.00
-2.00,-12.00,-11.00,-1.00,+6.00,+12.00,+1.00,+9.00,+18.00,-5.00,-4.00,-4.00,-8.00,+4.00,-1.00,+6.00
-4.00,-33.00,-13.00,-9.00,-3.00,-21.00,-7.00,-4.00,-50.00,-22.00,-8.00,-2.00,+0.00,-7.00,-7.00,-17.00
+0.00,+35.00,+11.00,-5.00,-5.00,+31.00,+11.00,+18.00,-3.00,-3.00,-4.00,-9.00,+62.00,+1.00,-4.00,-1.00
-4.00,-47.00,+33.00,+12.00,+3.00,-17.00,-9.00,-2.00,+18.00,+27.00,+7.00,+6.00,-75.00,-7.00,+1.00,-7.00
-5.00,-5.00,+2.00,+5.00,+3.00,+25.00,+10.00,+3.00,-115.00,-36.00,-9.00,-8.00,+53.00,-9.00,-6.00,-27.00
-3.00,+28.00,+4.00,+3.00,+2.00,-2.00,-1.00,+5.00,+64.00,+22.00,+11.00,+2.00,+29.00,+8.00,+14.00,+50.00
-6.00,-24.00,-30.00,-4.00,-4.00,+7.00,+3.00,-22.00,+24.00,+10.00,+3.00,+18.00,-41.00,-8.00,-1.00,-1.00
+2.00,+28.00,-3.00,+1.00,-15.00,-34.00,-1.00,+11.00,-16.00,+1.00,-1.00,-5.00,+16.00,+0.00,-7.00,-11.00
+0.00,-24.00,+1.00,+0.00,+3.00,+41.00,-2.00,+1.00,-7.00,-8.00,-5.00,+4.00,-13.00,+1.00,-7.00,-24.00
-1.00,-41.00,-5.00,-10.00,-14.00,-77.00,-10.00,-7.00,-20.00,+4.00,+0.00,+5.00,-13.00,-8.00,-1.00,+4.00
+5.00,+79.00,+21.00,+21.00,+23.00,+111.00,+34.00,+22.00,+3.00,-7.00,-5.00,-10.00,-19.00,+10.00,+3.00,+17.00
-3.00,-14.00,-10.00,-23.00,-4.00,-6.00,-19.00,-10.00,-17.00,-54.00,-3.00,-7.00,+15.00,-15.00,-11.00,-13.00
+4.00,-21.00,-1.00,-6.00,-10.00,-30.00,-5.00,-1.00,+20.00,+61.00,+12.00,+5.00,-30.00,+3.00,-1.00,-4.00
-1.00,+21.00,+5.00,+16.00,+14.00,+46.00,-2.00,-44.00,+39.00,-7.00,-10.00,-2.00,+16.00,+3.00,+4.00,+21.00
-2.00,-15.00,-5.00,-3.00,-10.00,-16.00,+1.00,-8.00,+15.00,+45.00,+0.00,-3.00,-20.00,-1.00,+1.00,-2.00
-1.00,-68.00,-8.00,+0.00,+1.00,-13.00,-3.00,-5.00,-38.00,-62.00,+5.00,+2.00,+11.00,-4.00,+1.00,-5.00
+1.00,+97.00,-1.00,-7.00,-2.00,+9.00,-8.00,+10.00,+45.00,-5.00,-1.00,-2.00,+9.00,-1.00,+5.00,+42.00
-3.00,-26.00,+8.00,-7.00,+2.00,+5.00,+10.00,+13.00,-23.00,+4.00,+0.00,-8.00,-21.00,-6.00,-12.00,-28.00
+1.00,-20.00,-1.00,-7.00,-10.00,-35.00,-3.00,-8.00,-17.00,+1.00,+5.00,+8.00,-3.00,+2.00,+2.00,+8.00
+0.00,+28.00,-10.00,-1.00,+10.00,+45.00,-6.00,-8.00,-9.00,-2.00,-10.00,-10.00,+26.00,-3.00,+1.00,+3.00
+0.00,-60.00,+7.00,-12.00,-4.00,-21.00,+2.00,-7.00,+4.00,-11.00,-1.00,-7.00,-22.00,+12.00,+2.00,-1.00
-7.00,+13.00,+4.00,-7.00,-20.00,-23.00,-4.00,+4.00,-12.00,-8.00,-1.00,+5.00,+37.00,-8.00,-7.00,-13.00
+1.00,-1.00,-2.00,+1.00,+19.00,+3.00,-1.00,+3.00,-12.00,-25.00,-4.00,-3.00,-75.00,+7.00,-6.00,-9.00
+4.00,+1.00,-4.00,+12.00,+6.00,+2.00,+15.00,+12.00,+36.00,+29.00,+4.00,+5.00,+30.00,+7.00,+0.00,+7.00
-1.00,-9.00,-2.00,-6.00,-1.00,+14.00,-2.00,-4.00,-16.00,-30.00,-1.00,-5.00,-9.00,-3.00,+0.00,-6.00
+0.00,+43.00,+6.00,-2.00,+7.00,-22.00,+7.00,+8.00,-17.00,+21.00,+3.00,+5.00,+7.00,-5.00,-3.00,-7.00
+2.00,-12.00,-3.00,+1.00,-3.00,+8.00,-3.00,+6.00,+18.00,-13.00,-6.00,-6.00,+21.00,-5.00,-1.00,-5.00
+0.00,+9.00,-2.00,-10.00,-11.00,-13.00,-4.00,-2.00,+17.00,+18.00,-1.00,-6.00,-3.00,+3.00,+0.00,+2.00
-4.00,-22.00,+0.00,+0.00,+2.00,-10.00,-3.00,+7.00,-3.00,-18.00,-9.00,-3.00,-8.00,-4.00,-4.00,+0.00
+2.00,-24.00,-4.00,+0.00,-1.00,+22.00,-5.00,+0.00,+9.00,+22.00,+3.00,+2.00,-4.00,+3.00,-1.00,-17.00
-5.00,+12.00,+0.00,-2.00,-9.00,-51.00,-7.00,-6.00,-14.00,-11.00,+3.00,-1.00,+14.00,-4.00,-6.00,-4.00
-4.00,+7.00,-3.00,-8.00,-3.00,-19.00,-6.00,-1.00,+48.00,+24.00,+5.00,-1.00,-22.00,+2.00,+4.00,+9.00
-2.00,-17.00,-14.00,-4.00,-1.00,+9.00,+2.00,+5.00,+5.00,-17.00,-7.00,+2.00,+8.00,-6.00,+9.00,+8.00
+0.00,+12.00,+13.00,-1.00,+3.00,-6.00,-2.00,+4.00,+1.00,-17.00,-2.00,-12.00,-34.00,-2.00,-2.00,+5.00
-1.00,-89.00,+0.00,+0.00,-4.00,+4.00,+2.00,+3.00,+6.00,-27.00,-8.00,+8.00,+79.00,+7.00,-4.00,-13.00
-3.00,+79.00,+4.00,+0.00,+3.00,+13.00,+8.00,+16.00,-6.00,+22.00,+1.00,-9.00,-26.00,-16.00,-4.00,+2.00
-2.00,-16.00,-10.00,+2.00,-1.00,+4.00,-2.00,-7.00,+13.00,-15.00,-1.00,-5.00,-19.00,-1.00,-4.00,-8.00
+3.00,+6.00,-5.00,-3.00,+2.00,+0.00,-1.00,+2.00,+3.00,+12.00,+0.00,+11.00,-9.00,-2.00,-1.00,-2.00
+4.00,-16.00,-1.00,+3.00,-20.00,+8.00,-1.00,+1.00,-32.00,-24.00,+2.00,+1.00,-4.00,+2.00,-1.00,-3.00
+0.00,-6.00,-2.00,-8.00,-1.00,+8.00,+0.00,-6.00,+7.00,-13.00,-11.00,-9.00,+31.00,+3.00,+0.00,+5.00
+0.00,+4.00,+6.00,+1.00,+2.00,-19.00,+2.00,-1.00,-29.00,+29.00,+1.00,-1.00,+16.00,-34.00,-7.00,-3.00
-1.00,-4.00,-5.00,-6.00,-4.00,-5.00,+5.00,-4.00,+20.00,+26.00,+4.00,+2.00,-46.00,+42.00,-5.00,-1.00
+0.00,-10.00,+1.00,+5.00,+3.00,+17.00,-7.00,-2.00,-49.00,-6.00,-5.00,-4.00,-1.00,-11.00,-7.00,-29.00
-2.00,+3.00,-5.00,-2.00,-4.00,-7.00,-2.00,+1.00,+9.00,+21.00,+4.00,+0.00,-4.00,+7.00,+7.00,+27.00
+2.00,+17.00,+3.00,+3.00,+1.00,+9.00,-1.00,-6.00,+67.00,+20.00,+0.00,-4.00,-10.00,-6.00,+3.00,+1.00
+1.00,+11.00,-12.00,-4.00,-11.00,+9.00,+5.00,+1.00,+96.00,-30.00,+0.00,-1.00,+14.00,-27.00,-5.00,+10.00
-2.00,+12.00,+5.00,-6.00,+24.00,-8.00,-1.00,-1.00,+40.00,+3.00,-2.00,+0.00,-11.00,+12.00,-1.00,-10.00
+0.00,-13.00,-4.00,+1.00,-4.00,-14.00,-7.00,-5.00,+32.00,+29.00,+2.00,+3.00,+1.00,+0.00,+5.00,+6.00
-4.00,-14.00,-1.00,+1.00,+3.00,+3.00,+4.00,+13.00,-43.00,-26.00,-2.00,+2.00,-1.00,+7.00,-6.00,-3.00
-1.00,-3.00,+1.00,+4.00,+1.00,+5.00,-4.00,+5.00,-105.00,-20.00,-5.00,-4.00,+39.00,-6.00,+0.00,-10.00
-4.00,+24.00,-3.00,-3.00,-11.00,-14.00,-4.00,-4.00,-12.00,+8.00,+1.00,-5.00,-78.00,-10.00,-1.00,+11.00
+1.00,-9.00,+3.00,+6.00,+9.00,+8.00,+1.00,+0.00,-57.00,-25.00,-7.00,-5.00,+6.00,-7.00,-5.00,-21.00
-4.00,-4.00,+2.00,-3.00,-4.00,-7.00,-3.00,-4.00,-16.00,-35.00,-7.00,-4.00,+5.00,+4.00,+3.00,+15.00
-1.00,+20.00,-3.00,-1.00,+1.00,+1.00,+0.00,+1.00,-9.00,+71.00,+11.00,+5.00,-16.00,+0.00,+3.00,-10.00
-3.00,-22.00,-9.00,-5.00,-10.00,+2.00,-1.00,+1.00,+16.00,+14.00,+7.00,-4.00,+52.00,+0.00,+6.00,+23.00
+1.00,+40.00,+7.00,+4.00,-4.00,-22.00,+2.00,+0.00,-38.00,-11.00,-1.00,-1.00,-10.00,+0.00,-7.00,-10.00
+4.00,+52.00,-1.00,+1.00,+10.00,+56.00,+3.00,+6.00,+8.00,+4.00,+3.00,+20.00,-1.00,+7.00,-18.00,-4.00
-4.00,-39.00,-2.00,+3.00,+10.00,+15.00,+1.00,+3.00,-78.00,-37.00,-8.00,-8.00,-17.00,-7.00,+3.00,-6.00
-3.00,+18.00,+4.00,+4.00,-4.00,+2.00,+4.00,-4.00,+78.00,+18.00,-1.00,+2.00,+17.00,+2.00,-1.00,+1.00
-4.00,-38.00,-10.00,-13.00,-14.00,-14.00,-9.00,-11.00,-31.00,+0.00,+0.00,-4.00,+2.00,+0.00,+2.00,-7.00
+7.00,-8.00,+1.00,+1.00,-6.00,-30.00,-7.00,-5.00,+22.00,+9.00,+0.00,-7.00,+3.00,+6.00,+0.00,+8.00
-4.00,+24.00,+7.00,+10.00,+21.00,+59.00,+35.00,+15.00,-23.00,-3.00,-2.00,-1.00,-1.00,-6.00,-5.00,-4.00
-1.00,+3.00,-6.00,-8.00,-6.00,-9.00,-2.00,-1.00,-22.00,-2.00,+0.00,-1.00,-13.00,-3.00,+3.00,+9.00
-2.00,-63.00,-5.00,-2.00,+2.00,+11.00,-1.00,+4.00,+9.00,-17.00,-7.00,-1.00,-1.00,-2.00,-13.00,-21.00
-3.00,+60.00,+9.00,+0.00,-1.00,-5.00,-3.00,-15.00,+9.00,+1.00,-3.00,-6.00,-12.00,+1.00,+7.00,+0.00
+5.00,-28.00,-2.00,-5.00,-4.00,-13.00,-12.00,-6.00,-5.00,-11.00,-3.00,+3.00,+18.00,-10.00,-6.00,-11.00
-2.00,+11.00,-10.00,-1.00,-4.00,-7.00,-3.00,+5.00,-21.00,-1.00,+2.00,-4.00,-23.00,-2.00,-1.00,+0.00
+0.00,-18.00,-1.00,+1.00,+1.00,+2.00,+4.00,-2.00,+36.00,+26.00,-5.00,+0.00,+22.00,-9.00,+1.00,-10.00
-2.00,-12.00,+0.00,-4.00,+1.00,-11.00,+0.00,-5.00,+12.00,+35.00,+12.00,+5.00,-21.00,-1.00,+11.00,+23.00
+2.00,-10.00,+0.00,-6.00,-7.00,-15.00,-8.00,-7.00,+39.00,-7.00,+1.00,-2.00,+9.00,-4.00,+7.00,+24.00
-2.00,-9.00,+0.00,+0.00,+4.00,-20.00,+2.00,-2.00,-9.00,-15.00,-7.00,-13.00,-36.00,+8.00,-8.00,-14.00
+3.00,-1.00,-5.00,-5.00,-4.00,-10.00,-9.00,-4.00,-22.00,-21.00,+1.00,+17.00,-2.00,-11.00,-6.00,+6.00
-5.00,-47.00,-8.00,-5.00,-8.00,+13.00,+0.00,-5.00,-7.00,+0.00,-3.00,+2.00,-5.00,-2.00,+2.00,-16.00
+3.00,+12.00,+9.00,+9.00,+7.00,+15.00,+5.00,+6.00,-3.00,-10.00,-1.00,-4.00,-1.00,+4.00,-1.00,-4.00
-4.00,+27.00,+5.00,-3.00,+0.00,+2.00,+2.00,-6.00,+8.00,+12.00,+0.00,+3.00,-1.00,-10.00,-4.00,-7.00
+0.00,+15.00,+2.00,+1.00,+6.00,-36.00,-3.00,+0.00,+6.00,-5.00,-2.00,-9.00,-3.00,+4.00,-1.00,+1.00
-3.00,+1.00,-1.00,+0.00,-4.00,-17.00,+2.00,-1.00,+20.00,+3.00,-3.00,-4.00,+5.00,+4.00,+1.00,+7.00
+1.00,-36.00,-10.00,-8.00,-8.00,-3.00,-5.00,-5.00,-10.00,-10.00,+3.00,-1.00,+5.00,+1.00,-3.00,-7.00
+0.00,-16.00,-3.00,+0.00,+1.00,+18.00,+4.00,+4.00,-2.00,-11.00,-9.00,-4.00,+6.00,-3.00,+0.00,+2.00
+1.00,+35.00,+4.00,-4.00,-3.00,-3.00,-2.00,-1.00,+4.00,+10.00,+1.00,+0.00,-2.00,+4.00,-5.00,-15.00
-6.00,-24.00,+1.00,+0.00,+1.00,-17.00,-1.00,-1.00,-7.00,+1.00,+0.00,+0.00,+10.00,-9.00,-4.00,-7.00
-1.00,-17.00,-9.00,-5.00,-2.00,-12.00,-12.00,-3.00,-34.00,-27.00,-2.00,-1.00,-9.00,+1.00,-1.00,-12.00
+4.00,+16.00,+7.00,-6.00,+0.00,-4.00,+0.00,+4.00,-42.00,+15.00,+5.00,+4.00,+3.00,-6.00,-2.00,-12.00
-6.00,+5.00,+0.00,-3.00,-2.00,+13.00,-2.00,-4.00,-8.00,+14.00,+10.00,+3.00,-9.00,+7.00,+6.00,+17.00
-2.00,-2.00,-3.00,-3.00,-6.00,+1.00,-2.00,+0.00,+6.00,-14.00,-13.00,-6.00,+5.00,+0.00,-1.00,+3.00
-5.00,+11.00,+4.00,+1.00,-2.00,-3.00,-3.00,-2.00,-9.00,-9.00,-9.00,-7.00,-1.00,-3.00,-5.00,-12.00
+1.00,-26.00,-3.00,+3.00,+1.00,+9.00,+2.00,-3.00,+30.00,+3.00,-5.00,-4.00,+5.00,-10.00,+0.00,+16.00
+2.00,+29.00,-2.00,-4.00,-10.00,-22.00,-5.00,-1.00,+15.00,-4.00,+4.00,+4.00,-14.00,+6.00,+4.00,+4.00
+2.00,-17.00,+2.00,+8.00,+10.00,+4.00,+2.00,+2.00,-37.00,-7.00,+2.00,-4.00,+8.00,+7.00,+1.00,-9.00
-8.00,-25.00,-4.00,-1.00,+2.00,+25.00,+6.00,+3.00,+29.00,+4.00,+0.00,-2.00,-15.00,-10.00,-7.00,+7.00
+0.00,+17.00,-3.00,-7.00,-10.00,-40.00,-13.00,-2.00,-27.00,-9.00,+1.00,+7.00,+22.00,+0.00,+1.00,+4.00
-1.00,-13.00,-1.00,+5.00,+8.00,+40.00,+5.00,-1.00,-13.00,+0.00,+1.00,-5.00,+11.00,+3.00,-1.00,-5.00
-1.00,+14.00,-4.00,-6.00,-7.00,-18.00,-5.00,-3.00,+3.00,-6.00,-2.00,+2.00,+27.00,+1.00,-3.00,-2.00
+2.00,+9.00,+4.00,-1.00,-2.00,-14.00,-5.00,-2.00,-8.00,-1.00,-9.00,-5.00,-19.00,+1.00,+1.00,-21.00
-2.00,-20.00,-5.00,-5.00,+0.00,+5.00,-1.00,-4.00,+6.00,-1.00,+0.00,+0.00,-23.00,-2.00,-4.00,-8.00
-4.00,-22.00,-4.00,-1.00,-5.00,-8.00,+1.00,-2.00,+8.00,-12.00,-2.00,-3.00,+8.00,-7.00,-1.00,+4.00
-2.00,+12.00,-2.00,+2.00,+0.00,-2.00,+0.00,+0.00,-15.00,+5.00,+2.00,-1.00,-4.00,+8.00,-3.00,-8.00
+1.00,+4.00,+13.00,-4.00,-2.00,+0.00,-5.00,-5.00,-10.00,-6.00,-3.00,-2.00,+17.00,-4.00,-3.00,-7.00
+1.00,-3.00,-1.00,-1.00,-3.00,+2.00,+0.00,+1.00,-9.00,-7.00,-2.00,-5.00,-2.00,+6.00,-3.00,-3.00
-4.00,+9.00,+2.00,+2.00,-2.00,-3.00,-1.00,-7.00,+25.00,-6.00,-5.00,-5.00,+0.00,-6.00,+2.00,+6.00
+2.00,-18.00,-3.00,-3.00,+1.00,+6.00,-1.00,+1.00,-11.00,+8.00,+4.00,+0.00,-1.00,-2.00,+1.00,+1.00
-2.00,+31.00,-2.00,-3.00,-1.00,-15.00,-5.00,-4.00,+14.00,+2.00,-5.00,-4.00,-16.00,+1.00,+6.00,+18.00
-1.00,+12.00,+0.00,+1.00,-1.00,-10.00,-2.00,+5.00,-48.00,-29.00,-3.00,-4.00,+4.00,-11.00,-4.00,-13.00
-7.00,-15.00,-12.00,-3.00,+5.00,+10.00,+0.00,+1.00,+47.00,+27.00,+3.00,+1.00,-29.00,+19.00,+3.00,+6.00
+2.00,-19.00,+19.00,-3.00,+0.00,+17.00,+1.00,-1.00,+1.00,-8.00,-1.00,-4.00,+3.00,-6.00,-3.00,+1.00
+0.00,+3.00,-9.00,-5.00,-9.00,-9.00,-5.00,-1.00,-18.00,+15.00,+3.00,+5.00,-5.00,+2.00,+0.00,+7.00
-3.00,+3.00,+2.00,-1.00,+1.00,-10.00,+1.00,-1.00,+50.00,+12.00,-5.00,+0.00,+15.00,+3.00,+1.00,-2.00
+3.00,-16.00,+1.00,+5.00,+2.00,+15.00,+1.00,+0.00,-75.00,-40.00,-4.00,-1.00,-2.00,-16.00,-4.00,-20.00
-2.00,+9.00,-6.00,-6.00,-3.00,-20.00,-1.00,-1.00,+26.00,-2.00,+0.00,-11.00,+3.00,+5.00,-4.00,+12.00
-5.00,-30.00,-4.00,+0.00,+3.00,+0.00,-7.00,-2.00,+28.00,+17.00,+5.00,+7.00,-23.00,+16.00,+18.00,-4.00
-2.00,+55.00,+4.00,+0.00,-2.00,-9.00,-1.00,-1.00,-8.00,-8.00,-4.00,-3.00,-11.00,-2.00,-6.00,-6.00
+0.00,+9.00,+0.00,+0.00,-5.00,+1.00,-4.00,+2.00,-3.00,+5.00,+2.00,+17.00,+8.00,+1.00,-4.00,-7.00
-1.00,+4.00,-4.00,-4.00,-3.00,-8.00,+0.00,+1.00,-4.00,+0.00,-2.00,+0.00,-22.00,-2.00,+7.00,+0.00
+0.00,-8.00,-2.00,-4.00,-3.00,+17.00,+0.00,+6.00,-8.00,-25.00,-2.00,-4.00,+27.00,+8.00,-7.00,-2.00
-1.00,-11.00,-4.00,+4.00,+1.00,-2.00,+0.00,-4.00,-10.00,+26.00,+1.00,-8.00,-18.00,-12.00,+1.00,-1.00
+1.00,+21.00,+5.00,+1.00,-1.00,-7.00,+4.00,+0.00,+10.00,-2.00,-3.00,-6.00,+3.00,+15.00,-2.00,-3.00
-4.00,+4.00,-2.00,+2.00,+5.00,+31.00,-3.00,+0.00,-48.00,-15.00,-3.00,-5.00,+4.00,-9.00,-1.00,+17.00
+0.00,+3.00,-4.00,+0.00,-1.00,-6.00,+7.00,-1.00,+31.00,+16.00,+2.00,-4.00,+2.00,-7.00,-4.00,+3.00
+1.00,-29.00,+1.00,+0.00,+1.00,+13.00,-4.00,-1.00,-6.00,-8.00,+3.00,+8.00,+2.00,+10.00,+7.00,+6.00
-3.00,+1.00,+0.00,-3.00,+0.00,-3.00,-1.00,-2.00,-35.00,+4.00,-1.00,-4.00,+8.00,-2.00,-1.00,+1.00
-2.00,-32.00,+6.00,-1.00,-2.00,-2.00,+1.00,+0.00,-41.00,-9.00,-10.00,-2.00,-7.00,-6.00,-5.00,-17.00
+1.00,+41.00,+2.00,+0.00,-2.00,-18.00,-3.00,-2.00,+17.00,-5.00,+10.00,+6.00,+36.00,+7.00,+5.00,+18.00
-3.00,+24.00,+0.00,-2.00,+1.00,+21.00,+1.00,+1.00,-28.00,-5.00,-4.00,-1.00,-22.00,-6.00,-1.00,-1.00
+2.00,-3.00,+6.00,+5.00,+0.00,-8.00,-1.00,-1.00,-28.00,+0.00,-2.00,-3.00,-7.00,-9.00,-2.00,-4.00
-4.00,-2.00,-10.00,-5.00,-3.00,-9.00,-1.00,-2.00,+20.00,+10.00,+4.00,+1.00,-24.00,-1.00,+1.00,-5.00
+2.00,-31.00,-2.00,+0.00,+1.00,+19.00,+1.00,+2.00,+3.00,-6.00,-7.00,+2.00,+14.00,-7.00,-6.00,-6.00
-2.00,-29.00,-5.00,-1.00,-6.00,-1.00,+0.00,-6.00,+24.00,+13.00,-1.00,-1.00,+40.00,+4.00,-2.00,-1.00
+0.00,+16.00,+3.00,+0.00,+4.00,+1.00,-9.00,+8.00,+15.00,-24.00,-3.00,-17.00,-25.00,+0.00,-6.00,+4.00
+1.00,+3.00,-1.00,-5.00,-11.00,-33.00,-33.00,-11.00,+52.00,+18.00,+5.00,+28.00,-2.00,-8.00,+6.00,-3.00
-4.00,+14.00,+4.00,+7.00,+7.00,+9.00,+33.00,+5.00,-35.00,+6.00,+3.00,-11.00,-18.00,-2.00,-9.00,-9.00
-1.00,-10.00,-5.00,-3.00,+6.00,+50.00,-2.00,-3.00,-6.00,-15.00,+0.00,+10.00,+18.00,-4.00,+1.00,+5.00
+6.00,-32.00,-2.00,+3.00,-2.00,+3.00,+3.00,+1.00,+4.00,+18.00,-2.00,-3.00,+2.00,+11.00,+3.00,-4.00
-6.00,+13.00,+0.00,+2.00,+4.00,+21.00,+0.00,+2.00,+17.00,-8.00,-3.00,-8.00,+5.00,+5.00,-7.00,-7.00
-2.00,+0.00,-1.00,-7.00,-9.00,-28.00,-18.00,-9.00,+26.00,+0.00,-5.00,+0.00,-2.00,-3.00,+7.00,+1.00
-1.00,-11.00,+1.00,+0.00,+2.00,-1.00,+11.00,+1.00,+5.00,-8.00,-6.00,-6.00,-6.00,+0.00,-4.00,-14.00
-2.00,+0.00,-3.00,-3.00,-3.00,-16.00,-16.00,-6.00,+7.00,-2.00,+0.00,+0.00,+12.00,-6.00,+3.00,+20.00
+2.00,+8.00,+1.00,+1.00,+0.00,-1.00,+9.00,+2.00,+21.00,-1.00,+7.00,+0.00,-1.00,+2.00,+3.00,+6.00
-2.00,+12.00,-2.00,-2.00,-2.00,-3.00,-5.00,-1.00,-16.00,+5.00,-3.00,+2.00,-5.00,-1.00,-2.00,-3.00
+0.00,+11.00,+0.00,+2.00,+2.00,+3.00,+2.00,-1.00,-18.00,-3.00,-2.00,-7.00,+2.00,+1.00,-4.00,-7.00
+1.00,-37.00,-7.00,-4.00,-2.00,+1.00,-4.00,-2.00,+24.00,-19.00,+3.00,+4.00,-10.00,-7.00,+6.00,+14.00
+1.00,-4.00,-1.00,-1.00,-2.00,-7.00,+3.00,+0.00,-10.00,-2.00,-1.00,+0.00,+3.00,+1.00,-2.00,+2.00
-4.00,+16.00,+1.00,+1.00,-1.00,-2.00,+1.00,-3.00,-18.00,-11.00,-14.00,-8.00,-8.00,-4.00,-2.00,-2.00
+0.00,-5.00,+0.00,+0.00,-1.00,+9.00,-7.00,+0.00,+28.00,+11.00,+1.00,-1.00,-2.00,+3.00,+2.00,+9.00
-3.00,-9.00,-2.00,-2.00,+1.00,+1.00,+4.00,-3.00,-11.00,+8.00,+0.00,+0.00,+10.00,-7.00,-6.00,-10.00
-2.00,+30.00,-5.00,+0.00,+3.00,+7.00,+5.00,+3.00,-11.00,-18.00,-14.00,-5.00,+0.00,+5.00,+5.00,-6.00
-1.00,-32.00,-1.00,-4.00,-1.00,-3.00,-7.00,-6.00,+3.00,+3.00,+4.00,-9.00,+6.00,-15.00,-7.00,+1.00
-1.00,-12.00,+0.00,-3.00,-9.00,-24.00,-7.00,+0.00,-1.00,-9.00,-4.00,+3.00,+36.00,+1.00,-2.00,-9.00
-9.00,+19.00,+1.00,-2.00,+0.00,-7.00,+3.00,+0.00,-25.00,-8.00,-6.00,+15.00,-32.00,+14.00,+1.00,+0.00
+0.00,+3.00,+0.00,+10.00,+5.00,+60.00,+11.00,+1.00,-7.00,+7.00,+5.00,+1.00,+14.00,-2.00,-6.00,-11.00
+2.00,+11.00,-4.00,-2.00,+0.00,-7.00,-10.00,-2.00,+18.00,+7.00,+2.00,+2.00,-11.00,+1.00,-4.00,+0.00
+2.00,-19.00,-1.00,+0.00,+3.00,+0.00,+2.00,+1.00,+23.00,+10.00,+3.00,-6.00,-2.00,+0.00,+0.00,+5.00
-4.00,-14.00,-2.00,-3.00,-1.00,-6.00,-2.00,-2.00,-11.00,+0.00,+0.00,-7.00,+11.00,-9.00,-4.00,-10.00
-2.00,+9.00,+2.00,-5.00,-10.00,-27.00,-5.00,+0.00,-17.00,+1.00,-1.00,-3.00,-3.00,+0.00,-2.00,+1.00
+2.00,+12.00,+0.00,-1.00,+3.00,+2.00,-2.00,-3.00,-28.00,-17.00,-4.00,-1.00,+1.00,+6.00,+0.00,-1.00
+0.00,-28.00,-10.00,-4.00,-5.00,-3.00,-4.00,+3.00,+20.00,+3.00,+6.00,-1.00,-11.00,+1.00,-2.00,+5.00
+2.00,+22.00,+8.00,+1.00,+0.00,+3.00,+5.00,-5.00,+11.00,+5.00,+2.00,+0.00,+8.00,-5.00,-7.00,-6.00
-1.00,+11.00,+1.00,+2.00,+4.00,-5.00,+4.00,+1.00,-19.00,-12.00,-9.00,-3.00,-11.00,-2.00,-1.00,+0.00
-4.00,-28.00,-2.00,-2.00,-3.00,+1.00,-5.00,-3.00,-5.00,+5.00,+8.00,+2.00,+1.00,-2.00,+1.00,-4.00
-2.00,-23.00,-2.00,+0.00,-2.00,-30.00,-3.00,-3.00,-4.00,-8.00,-12.00,-2.00,-17.00,-2.00,-2.00,-7.00
-9.00,+36.00,-5.00,-1.00,+3.00,+26.00,+6.00,+3.00,+7.00,+11.00,+0.00,-2.00,-3.00,-4.00,-3.00,-6.00
+0.00,+0.00,+15.00,-1.00,+1.00,+9.00,-1.00,-1.00,+12.00,-3.00,-3.00,-8.00,+9.00,-1.00,-2.00,+1.00
-1.00,-5.00,-2.00,-2.00,-3.00,-2.00,-1.00,-2.00,-9.00,+1.00,+2.00,+0.00,-8.00,-3.00,-4.00,-6.00
-4.00,-8.00,+0.00,+0.00,+1.00,-4.00,-2.00,-2.00,-2.00,+11.00,+5.00,+5.00,-7.00,+3.00,+6.00,+12.00
+3.00,-7.00,-16.00,-2.00,-2.00,-5.00,-2.00,-1.00,-2.00,-2.00,+8.00,+2.00,+10.00,-2.00,-3.00,-9.00
+0.00,-6.00,+10.00,-1.00,-1.00,-9.00,+1.00,-5.00,-7.00,-12.00,-20.00,-5.00,+0.00,-2.00,-3.00,+0.00
-3.00,+0.00,-2.00,-7.00,-2.00,-6.00,-10.00,+0.00,-10.00,+8.00,+5.00,+0.00,-2.00,+0.00,-4.00,-6.00
+5.00,+13.00,+3.00,-2.00,-6.00,-22.00,+2.00,-2.00,+0.00,-18.00,-16.00,-3.00,-9.00,+1.00,+0.00,+2.00
+0.00,+7.00,-1.00,+4.00,+4.00,+25.00,+5.00,+2.00,-12.00,-3.00,-7.00,-2.00,+6.00,-4.00,+2.00,-2.00
+0.00,-12.00,-4.00,+0.00,+1.00,-10.00,+1.00,-2.00,-22.00,+0.00,+7.00,-1.00,-7.00,+3.00,+0.00,-3.00
-1.00,-4.00,+0.00,-1.00,+5.00,+18.00,+2.00,+2.00,-37.00,-6.00,-5.00,-1.00,-8.00,-9.00,-6.00,-7.00
-7.00,+4.00,-2.00,-4.00,-4.00,+2.00,-4.00,-1.00,+60.00,+10.00,+3.00,+0.00,-3.00,-3.00,+1.00,+6.00
+1.00,-2.00,-4.00,-4.00,-6.00,-15.00,-5.00,-2.00,-43.00,-7.00,-1.00,+1.00,+2.00,-1.00,+2.00,+3.00
-1.00,-18.00,+0.00,-5.00,-5.00,-15.00,-3.00,-2.00,+33.00,-1.00,+2.00,+0.00,-4.00,-5.00,-3.00,-4.00
+2.00,+21.00,-1.00,-1.00,-2.00,-6.00,+1.00,+2.00,+20.00,+11.00,-8.00,-5.00,+40.00,+20.00,+9.00,+4.00
+3.00,+12.00,-10.00,+1.00,+2.00,+2.00,-6.00,-2.00,+111.00,-2.00,+7.00,+10.00,-71.00,-4.00,-7.00,-4.00
-3.00,+0.00,+8.00,-4.00,-3.00,-3.00,+2.00,+3.00,+127.00,-3.00,-6.00,-3.00,+7.00,+4.00,+1.00,-5.00
-2.00,-8.00,-6.00,-3.00,+1.00,+3.00,-1.00,+2.00,-14.00,+1.00,+6.00,+1.00,-2.00,-6.00,+0.00,+2.00
+1.00,-18.00,-7.00,-2.00,-2.00,-7.00,+0.00,+1.00,-77.00,-7.00,-3.00,-2.00,-10.00,-6.00,-4.00,+0.00
-2.00,+5.00,+3.00,-3.00,+0.00,+10.00,+2.00,+0.00,-128.00,-1.00,+0.00,-7.00,+12.00,-1.00,+0.00,-2.00
+3.00,-4.00,+3.00,+2.00,-2.00,-6.00,-4.00,-5.00,-96.00,-1.00,+0.00,-2.00,+0.00,+1.00,+4.00,+7.00
-2.00,-8.00,-9.00,-4.00,-3.00,-4.00,-2.00,-2.00,-43.00,+5.00,+4.00,-1.00,-8.00,+1.00,+0.00,-4.00
-4.00,+45.00,+3.00,+1.00,-4.00,-12.00,-2.00,+0.00,-31.00,+0.00,+14.00,+1.00,+0.00,-1.00,+3.00,-3.00
-3.00,+3.00,-1.00,+0.00,+6.00,+20.00,+2.00,-1.00,-67.00,-50.00,-43.00,-10.00,+9.00,+0.00,-4.00,-5.00
+4.00,-18.00,-22.00,-6.00,-1.00,+1.00,-1.00,+1.00,-40.00,+22.00,+8.00,+3.00,-4.00,-1.00,+2.00,+7.00
-1.00,+24.00,+35.00,+2.00,+1.00,-7.00,-1.00,-4.00,-29.00,+31.00,+5.00,+0.00,+7.00,-2.00,-1.00,+1.00
+5.00,-25.00,-11.00,-4.00,-4.00,-3.00,+0.00,+2.00,+44.00,+3.00,+0.00,+0.00,-12.00,-5.00,-7.00,+6.00
-1.00,+24.00,+35.00,+2.00,+2.00,-4.00,-3.00,-5.00,-28.00,+3.00,+6.00,-1.00,+11.00,-2.00,-2.00,-8.00
-2.00,-1.00,-7.00,-2.00,+0.00,-1.00,+0.00,-2.00,+5.00,-11.00,-8.00,-6.00,-3.00,-1.00,+0.00,-4.00
+3.00,-2.00,-14.00,-5.00,-5.00,-4.00,-1.00,+1.00,-12.00,+0.00,+1.00,+3.00,+4.00,+1.00,+6.00,+13.00
-5.00,-9.00,-3.00,+1.00,+2.00,+6.00,-3.00,+0.00,-5.00,+2.00,-1.00,+3.00,-9.00,-6.00,+0.00,+2.00
+1.00,+0.00,-4.00,+3.00,-2.00,+0.00,+4.00,+1.00,-32.00,-3.00,+6.00,+0.00,-1.00,-3.00,-4.00,-8.00
-2.00,+2.00,+15.00,-1.00,+0.00,-3.00,-1.00,+1.00,+0.00,-12.00,-9.00,-5.00,+3.00,-2.00,-2.00,-3.00
-1.00,-11.00,-16.00,-4.00,-5.00,-5.00,+0.00,-3.00,+37.00,+9.00,+9.00,+2.00,+15.00,-23.00,-8.00,+6.00
-1.00,+4.00,+3.00,-3.00,-5.00,-14.00,-26.00,-12.00,+33.00,-3.00,-5.00,+1.00,-25.00,+7.00,+9.00,+17.00
+1.00,-11.00,-6.00,+4.00,+10.00,+8.00,+37.00,+12.00,+22.00,+5.00,+6.00,+0.00,+18.00,+15.00,+0.00,+4.00
-1.00,-7.00,+3.00,-3.00,-4.00,-5.00,-6.00,-3.00,+6.00,+3.00,+0.00,-4.00,-7.00,-6.00,-5.00,-12.00
-1.00,+22.00,-2.00,+0.00,+4.00,+3.00,+10.00,+5.00,-5.00,+2.00,+0.00,-1.00,-1.00,+3.00,-1.00,-6.00
+1.00,-9.00,-3.00,-3.00,-1.00,+1.00,-1.00,-3.00,+6.00,-26.00,-15.00,-2.00,+1.00,-8.00,+2.00,-7.00
+5.00,+0.00,+0.00,-4.00,-1.00,-10.00,-14.00,-4.00,+16.00,+26.00,+2.00,-3.00,-4.00,-9.00,-12.00,-13.00
+2.00,-1.00,+1.00,+0.00,-1.00,+1.00,+3.00,+0.00,+1.00,+0.00,-2.00,+0.00,+1.00,+5.00,-2.00,+5.00
-5.00,-6.00,-11.00,-3.00,-3.00,-9.00,-5.00,-3.00,-21.00,-18.00,-6.00,-3.00,-8.00,+5.00,+12.00,-2.00
+0.00,-18.00,-6.00,-3.00,-1.00,+3.00,+6.00,+4.00,-76.00,-3.00,+3.00,+0.00,+3.00,+3.00,+4.00,+4.00
-3.00,+8.00,-7.00,-5.00,-5.00,+3.00,-7.00,-3.00,-24.00,+25.00,+10.00,+0.00,-4.00,+0.00,+8.00,+11.00
+1.00,+16.00,+37.00,+8.00,+7.00,-1.00,+4.00,-1.00,-52.00,-39.00,-6.00,+2.00,+0.00,-7.00,-11.00,-12.00
-4.00,+0.00,-5.00,-3.00,-2.00,-2.00,-9.00,-2.00,+10.00,+32.00,-1.00,+0.00,-4.00,+0.00,-18.00,-13.00
-1.00,-4.00,-4.00,+2.00,+0.00,-1.00,+6.00,-2.00,+55.00,-8.00,-3.00,-1.00,+1.00,-1.00,-4.00,-15.00
+0.00,-2.00,-11.00,-2.00,-6.00,+5.00,-1.00,+0.00,+36.00,-5.00,+0.00,-3.00,+3.00,+0.00,+3.00,+14.00
+2.00,-26.00,-14.00,-5.00,+1.00,+2.00,-7.00,+0.00,+47.00,+4.00,+4.00,-1.00,-3.00,-7.00,-10.00,+1.00
-3.00,+22.00,+5.00,+2.00,+2.00,+1.00,+2.00,-5.00,+94.00,-16.00,-4.00,-2.00,-2.00,+4.00,+30.00,+9.00
