-1.00,+3.00,+1.00,-2.00,-1.00,+1.00,-2.00,-2.00,+2.00,-2.00,-2.00,-4.00,+4.00,+4.00,+0.00,+1.00
+1.00,+0.00,-1.00,-3.00,+1.00,+0.00,-2.00,+0.00,+2.00,-3.00,-2.00,-1.00,-26.00,-5.00,+0.00,+1.00
-2.00,+0.00,-4.00,-3.00,+0.00,-2.00,-2.00,-4.00,-5.00,-4.00,+0.00,-8.00,-21.00,-1.00,+0.00,-1.00
+0.00,+3.00,+0.00,+0.00,+2.00,-2.00,-1.00,-2.00,-10.00,-1.00,+1.00,+2.00,-6.00,-3.00,+0.00,+0.00
-3.00,-2.00,-2.00,-1.00,-3.00,-1.00,+0.00,+0.00,-22.00,-8.00,-3.00,-3.00,+9.00,-4.00,-5.00,-16.00
+1.00,-1.00,+1.00,+0.00,-3.00,+0.00,+1.00,-1.00,+35.00,+10.00,+1.00,-3.00,+9.00,+2.00,+1.00,+7.00
-1.00,-3.00,+0.00,+1.00,+0.00,-1.00,+1.00,+1.00,-1.00,+3.00,-1.00,+0.00,-12.00,+0.00,-2.00,-5.00
-2.00,-2.00,+0.00,+0.00,-1.00,-1.00,-1.00,-2.00,+9.00,-3.00,+2.00,+6.00,+10.00,-1.00,-1.00,+3.00
-1.00,+2.00,-2.00,-2.00,+0.00,-1.00,+0.00,+0.00,+1.00,+6.00,-1.00,-4.00,-2.00,+0.00,+0.00,+0.00
+0.00,-3.00,-2.00,-1.00,-5.00,-11.00,-1.00,+1.00,-13.00,-1.00,+0.00,-2.00,+2.00,-2.00,-3.00,-4.00
-3.00,-3.00,-2.00,-7.00,-6.00,+11.00,-2.00,-4.00,-35.00,-26.00,-2.00,-6.00,-16.00,-3.00,+0.00,-7.00
+1.00,-1.00,+1.00,+0.00,-1.00,-51.00,+0.00,+2.00,+68.00,+32.00,+0.00,+4.00,+15.00,-3.00,+0.00,+4.00
-3.00,+4.00,-2.00,+3.00,+7.00,+36.00,+4.00,+0.00,-29.00,-10.00,-2.00,-5.00,-20.00,-2.00,+0.00,-7.00
+1.00,-3.00,-4.00,-2.00,+0.00,+0.00,-3.00,-4.00,-26.00,+3.00,-3.00,+2.00,+0.00,-6.00,-2.00,-3.00
+3.00,-6.00,+6.00,+1.00,+3.00,+1.00,+2.00,+4.00,-7.00,-6.00,-5.00,-8.00,+35.00,+10.00,-4.00,+4.00
-3.00,-14.00,-2.00,-3.00,-5.00,-3.00,-5.00,-2.00,+22.00,-10.00,+1.00,-3.00,-27.00,+2.00,+1.00,+5.00
-2.00,+14.00,+1.00,-1.00,-2.00,-15.00,-3.00,+0.00,+41.00,-24.00,-6.00,-1.00,-72.00,-7.00,-2.00,+3.00
-5.00,+13.00,+0.00,-1.00,+1.00,-1.00,-1.00,+0.00,-7.00,+87.00,+13.00,+2.00,+27.00,+0.00,+1.00,+9.00
+2.00,-2.00,-7.00,-3.00,-5.00,-5.00,-2.00,-2.00,-15.00,-6.00,+0.00,+5.00,+62.00,+0.00,-1.00,-2.00
+0.00,-7.00,-3.00,+0.00,+0.00,+12.00,-2.00,-3.00,-57.00,+0.00,-3.00,-2.00,-79.00,-7.00,+12.00,-19.00
+2.00,+8.00,+1.00,+2.00,-4.00,-23.00,-3.00,+2.00,+3.00,-9.00,+1.00,+10.00,+26.00,+5.00,-5.00,-1.00
+0.00,-8.00,+0.00,+2.00,+1.00,+23.00,+4.00,+0.00,-12.00,-33.00,-7.00,-6.00,-17.00,-3.00,-5.00,-9.00
-3.00,+2.00,+1.00,-1.00,+2.00,-5.00,+1.00,+1.00,+14.00,+8.00,+0.00,-5.00,-2.00,-3.00,-4.00,+2.00
-3.00,+2.00,+0.00,+1.00,-2.00,+8.00,-1.00,+0.00,-16.00,-11.00,-2.00,-1.00,+35.00,+2.00,+4.00,-2.00
-1.00,-9.00,-2.00,-3.00,-1.00,-4.00,-4.00,-3.00,+6.00,+7.00,-3.00,-3.00,+3.00,-2.00,+6.00,+8.00
+1.00,+1.00,+0.00,-1.00,-3.00,-9.00,-1.00,-1.00,+4.00,-16.00,-2.00,-3.00,-2.00,+2.00,-4.00,-8.00
+0.00,-4.00,-1.00,+0.00,-2.00,-1.00,-2.00,-3.00,-5.00,+8.00,-3.00,-3.00,-10.00,+0.00,+6.00,-10.00
-3.00,+5.00,-2.00,+2.00,+0.00,+7.00,+0.00,-3.00,+9.00,-9.00,-1.00,-1.00,+12.00,-4.00,-8.00,+0.00
-3.00,-2.00,+0.00,-2.00,-3.00,-1.00,+0.00,+1.00,+0.00,+5.00,+2.00,-3.00,-9.00,-2.00,-1.00,+2.00
+1.00,-4.00,-2.00,-2.00,-3.00,-4.00,+0.00,-3.00,+5.00,-4.00,-7.00,+1.00,+19.00,+1.00,-1.00,+5.00
-2.00,+14.00,+0.00,-3.00,+1.00,-2.00,-1.00,+0.00,+7.00,-8.00,+3.00,+2.00,-21.00,-1.00,+4.00,+13.00
-2.00,-45.00,-3.00,-2.00,+2.00,+7.00,+0.00,-5.00,-28.00,-18.00,-1.00,+1.00,-7.00,-4.00,-11.00,-20.00
-1.00,+4.00,+0.00,-2.00,-1.00,-4.00,-1.00,-2.00,-9.00,+10.00,-2.00,-5.00,+22.00,-3.00,-7.00,-2.00
-5.00,+5.00,+3.00,-3.00,-1.00,+4.00,+4.00,-1.00,+25.00,+16.00,+1.00,-3.00,-13.00,+3.00,+8.00,+15.00
+1.00,-6.00,-2.00,-2.00,-4.00,-11.00,-2.00,-4.00,-12.00,-7.00,-3.00,+4.00,-19.00,-5.00,-4.00,-13.00
+0.00,+49.00,+7.00,+0.00,+1.00,-36.00,-3.00,+1.00,-13.00,-7.00,+5.00,+4.00,+20.00,+2.00,-3.00,-10.00
-1.00,-94.00,-11.00,+2.00,+13.00,+72.00,+8.00,+0.00,-3.00,+23.00,+1.00,-8.00,+23.00,-3.00,+36.00,+18.00
+4.00,+56.00,+13.00,+8.00,+5.00,+14.00,+7.00,+11.00,-13.00,-19.00,-1.00,-4.00,+16.00,+10.00,-58.00,-13.00
-2.00,+9.00,+0.00,-6.00,-10.00,-49.00,-9.00,-6.00,+22.00,-10.00,-2.00,+6.00,-107.00,-2.00,-3.00,+6.00
+2.00,-14.00,+0.00,+5.00,+9.00,+56.00,+7.00,+7.00,-37.00,+10.00,+8.00,+7.00,+52.00,+6.00,-3.00,+0.00
-5.00,+24.00,+0.00,-3.00,-4.00,-11.00,+0.00,-6.00,+3.00,+5.00,-4.00,-13.00,-48.00,-12.00,-12.00,-17.00
-3.00,-25.00,-8.00,-6.00,+1.00,+0.00,-4.00,-2.00,-33.00,-27.00,-4.00,+11.00,+77.00,+5.00,+14.00,-16.00
-2.00,-12.00,-4.00,+0.00,-1.00,+28.00,+3.00,-1.00,+32.00,+11.00,-2.00,-4.00,+27.00,+12.00,-1.00,-2.00
+1.00,+12.00,+2.00,-8.00,-8.00,-32.00,-5.00,-1.00,+6.00,-13.00,-6.00,+2.00,-58.00,-15.00,-6.00,-4.00
+2.00,-4.00,+0.00,-2.00,-4.00,-19.00,-1.00,-2.00,-66.00,-4.00,-4.00,+0.00,-12.00,-7.00,+16.00,-17.00
+0.00,-15.00,-6.00,-2.00,-2.00,+2.00,-6.00,-8.00,+38.00,-7.00,+0.00,-13.00,-6.00,+7.00,-15.00,+29.00
-3.00,+0.00,+1.00,+1.00,-2.00,-24.00,-5.00,-1.00,-13.00,+9.00,+5.00,+16.00,-3.00,-9.00,-5.00,-6.00
+1.00,-8.00,-6.00,-2.00,-2.00,+3.00,+0.00,-1.00,+14.00,-28.00,+1.00,-5.00,+13.00,+6.00,+1.00,-5.00
-3.00,+17.00,+4.00,+2.00,-1.00,+0.00,-2.00,+2.00,-35.00,+12.00,-2.00,+2.00,+2.00,+1.00,-1.00,-1.00
-4.00,-12.00,+2.00,-4.00,-2.00,-7.00,-2.00,+3.00,-2.00,-21.00,-7.00,-14.00,-12.00,-9.00,+5.00,-24.00
+2.00,+20.00,+8.00,+2.00,+1.00,+9.00,+3.00,-1.00,-53.00,-34.00,-6.00,+5.00,+12.00,-2.00,+3.00,+14.00
-3.00,+4.00,-3.00,-3.00,+0.00,+8.00,-4.00,-4.00,+62.00,+74.00,+3.00,+1.00,-2.00,-1.00,-2.00,+19.00
-1.00,-10.00,-8.00,-5.00,-4.00,-5.00,-5.00,-4.00,-46.00,-23.00,-2.00,+2.00,+21.00,+2.00,-16.00,-4.00
+6.00,-4.00,-4.00,+3.00,-1.00,-15.00,-3.00,-2.00,-2.00,+16.00,-6.00,-2.00,+5.00,+2.00,+12.00,+23.00
-2.00,+17.00,+0.00,-4.00,+3.00,+10.00,+3.00,+5.00,-12.00,-18.00,-11.00,-17.00,-49.00,-9.00,-9.00,-33.00
+0.00,-16.00,+4.00,+2.00,-1.00,+19.00,+9.00,+8.00,+34.00,+18.00,+13.00,+9.00,+17.00,+5.00,+22.00,+72.00
+1.00,+2.00,+1.00,-5.00,-9.00,-25.00,-4.00,-5.00,-3.00,-16.00,+0.00,+1.00,+38.00,+3.00,-21.00,-39.00
+1.00,-41.00,-7.00,-5.00,-7.00,-9.00,-6.00,-14.00,-19.00,-14.00,-1.00,-7.00,-66.00,-11.00,+15.00,+3.00
+0.00,+12.00,-2.00,+2.00,+3.00,-18.00,-1.00,-4.00,+30.00,+5.00,+5.00,+0.00,+36.00,-9.00,-2.00,+0.00
-1.00,+17.00,+5.00,+5.00,+9.00,+43.00,+3.00,+4.00,-33.00,-12.00,-15.00,-14.00,-53.00,-4.00,-25.00,-20.00
-5.00,-6.00,+0.00,-2.00,+3.00,-2.00,+2.00,-2.00,+73.00,+28.00,+8.00,+10.00,+38.00,+11.00,+34.00,+7.00
-2.00,+7.00,+0.00,-1.00,-2.00,+7.00,-2.00,+1.00,+1.00,+5.00,+2.00,+4.00,-33.00,-4.00,-13.00,+17.00
-1.00,-25.00,-5.00,-11.00,-13.00,-75.00,-20.00,-7.00,-13.00,-5.00,-4.00,+8.00,+24.00,-5.00,-4.00,+0.00
-2.00,+0.00,-5.00,+5.00,+4.00,+60.00,+10.00,-1.00,+11.00,-16.00,-6.00,-4.00,+3.00,-3.00,-17.00,-12.00
-1.00,-41.00,-3.00,-4.00,-1.00,-5.00,+2.00,+3.00,+16.00,+8.00,-2.00,-7.00,-10.00,-5.00,+3.00,+14.00
-3.00,+49.00,+8.00,-3.00,+0.00,-38.00,-3.00,-2.00,+25.00,-2.00,-5.00,-3.00,+11.00,-1.00,+8.00,-28.00
-3.00,-42.00,-1.00,+3.00,+4.00,+80.00,+14.00,+4.00,+20.00,+2.00,-3.00,-5.00,-4.00,+3.00,-1.00,+17.00
-1.00,+65.00,+2.00,-5.00,-1.00,+1.00,-11.00,-2.00,-4.00,+28.00,+5.00,+4.00,+35.00,+4.00,+6.00,-26.00
-1.00,-11.00,-2.00,+8.00,+1.00,+8.00,-2.00,+0.00,-47.00,-36.00,-12.00,-14.00,-28.00,-7.00,-20.00,-22.00
-1.00,-1.00,-5.00,-3.00,-7.00,-11.00,-5.00,-5.00,+26.00,+1.00,+7.00,+11.00,-12.00,+9.00,+23.00,+40.00
+3.00,-32.00,+2.00,-1.00,+1.00,+6.00,-3.00,+6.00,+11.00,+31.00,+6.00,+4.00,+21.00,+11.00,-10.00,-13.00
+4.00,-27.00,+1.00,-4.00,-3.00,-30.00,+1.00,+1.00,+64.00,+17.00,+2.00,+8.00,-27.00,-6.00,+10.00,+22.00
+0.00,-25.00,-4.00,-5.00,-7.00,+9.00,-4.00,+3.00,-3.00,+8.00,+3.00,+6.00,+21.00,+5.00,-4.00,+18.00
+0.00,-85.00,-17.00,-3.00,-3.00,-7.00,-7.00,-8.00,-57.00,-44.00,-9.00,-5.00,-17.00,-5.00,-17.00,-47.00
+7.00,+21.00,+1.00,+2.00,+7.00,-5.00,+4.00,+29.00,+56.00,+63.00,+5.00,-7.00,+2.00,-2.00,+3.00,+47.00
-5.00,-58.00,+7.00,+4.00,+3.00,+2.00,+2.00,-11.00,-58.00,-46.00,-11.00,-9.00,+5.00,-4.00,+9.00,-24.00
+0.00,+1.00,+3.00,-3.00,-6.00,-39.00,+0.00,+9.00,+78.00,+35.00,+4.00,+1.00,+2.00,+9.00,-5.00,+21.00
-1.00,+102.00,+14.00,+1.00,+3.00,+15.00,-15.00,+14.00,-11.00,-14.00,+4.00,-1.00,+31.00,-1.00,+13.00,-2.00
-4.00,-28.00,-5.00,+1.00,-2.00,+17.00,+5.00,-24.00,-8.00,-32.00,-6.00,-2.00,-33.00,-11.00,-5.00,-14.00
-3.00,-23.00,-8.00,-7.00,-1.00,-8.00,-7.00,-9.00,-35.00,-6.00,-5.00,-4.00,+94.00,+2.00,-14.00,-33.00
+3.00,+38.00,+2.00,+6.00,+6.00,+5.00,+5.00,+3.00,-25.00,-3.00,+7.00,+3.00,-53.00,+11.00,+3.00,+24.00
-5.00,-31.00,-6.00,-2.00,-2.00,+8.00,+7.00,+1.00,+20.00,+31.00,-6.00,-16.00,+60.00,+2.00,-3.00,-14.00
-4.00,+21.00,+0.00,-4.00,+1.00,+33.00,-1.00,-3.00,-8.00,+9.00,+6.00,+21.00,-92.00,-12.00,+0.00,-16.00
-1.00,+7.00,+1.00,-3.00,-7.00,-30.00,-2.00,+3.00,-15.00,-6.00,-4.00,-2.00,+8.00,+0.00,+17.00,-3.00
-1.00,+9.00,-5.00,-6.00,-4.00,-10.00,-4.00,-11.00,-31.00,-37.00,-6.00,-8.00,+8.00,+1.00,-13.00,-20.00
-1.00,-37.00,-6.00,-2.00,-1.00,+8.00,+0.00,-4.00,+47.00,+12.00,+3.00,+8.00,-7.00,-4.00,-3.00,-6.00
+0.00,+63.00,+2.00,-1.00,-2.00,-17.00,+0.00,-3.00,-1.00,+11.00,+4.00,-12.00,+18.00,+5.00,-3.00,-10.00
-2.00,-26.00,+0.00,+1.00,-5.00,-32.00,-7.00,-7.00,-62.00,-23.00,-8.00,+4.00,-16.00,-24.00,-1.00,+5.00
+1.00,-8.00,-6.00,-14.00,-9.00,-3.00,-16.00,+11.00,+10.00,-7.00,-10.00,-6.00,+12.00,-25.00,-44.00,-61.00
+2.00,+21.00,+10.00,+7.00,+10.00,+5.00,+11.00,-1.00,-128.00,+35.00,+20.00,+15.00,-10.00,+34.00,+35.00,+29.00
-2.00,+19.00,-3.00,+0.00,+6.00,+5.00,-11.00,+1.00,+8.00,-14.00,-1.00,-2.00,+21.00,+7.00,+6.00,+4.00
+1.00,-9.00,-3.00,+5.00,+4.00,+27.00,+4.00,+3.00,+11.00,+1.00,-1.00,-13.00,-50.00,-2.00,-1.00,+17.00
-1.00,+3.00,-1.00,+2.00,+3.00,+17.00,+6.00,-1.00,+0.00,-30.00,-6.00,-8.00,-2.00,-14.00,-12.00,-13.00
-4.00,-3.00,-2.00,-9.00,-9.00,-15.00,-9.00,+8.00,-47.00,-39.00,-8.00,+2.00,+33.00,-7.00,-19.00,-25.00
+4.00,-3.00,+0.00,+4.00,+0.00,-19.00,-4.00,-11.00,+43.00,+33.00,+0.00,-8.00,-36.00,-9.00,+27.00,+9.00
-3.00,-1.00,-8.00,-6.00,-2.00,-3.00,-1.00,-3.00,-26.00,-25.00,+3.00,+7.00,-66.00,-2.00,-46.00,-4.00
-1.00,+11.00,+0.00,+2.00,+0.00,-13.00,-6.00,-2.00,+48.00,+29.00,+3.00,+10.00,-13.00,-2.00,+0.00,+15.00
-1.00,+10.00,+5.00,-3.00,+2.00,+15.00,-2.00,-39.00,-7.00,-13.00,-8.00,+0.00,+10.00,-14.00,+20.00,-15.00
-1.00,-15.00,-4.00,-1.00,-3.00,+1.00,+4.00,+2.00,-7.00,-21.00,-2.00,-4.00,+73.00,+9.00,+4.00,+18.00
-1.00,+17.00,-1.00,-5.00,-10.00,-4.00,-4.00,+3.00,+3.00,-18.00,-4.00,-11.00,-21.00,+2.00,-6.00,-5.00
+1.00,-4.00,+3.00,+7.00,+6.00,-24.00,+2.00,+3.00,+47.00,+43.00,+4.00,-1.00,+9.00,+1.00,+7.00,+16.00
+2.00,-35.00,-9.00,-9.00,-6.00,-27.00,-1.00,+1.00,+72.00,+45.00,-2.00,-7.00,-33.00,-9.00,-15.00,+3.00
-2.00,-28.00,+6.00,+12.00,+11.00,+75.00,-10.00,-2.00,-88.00,-46.00,-1.00,-16.00,-6.00,+3.00,-7.00,-43.00
+1.00,-2.00,-2.00,+2.00,+3.00,+12.00,+18.00,+0.00,+26.00,+17.00,+1.00,+18.00,+34.00,-2.00,-1.00,-36.00
-2.00,+47.00,+3.00,-4.00,-1.00,+3.00,+2.00,-8.00,-25.00,-5.00,-3.00,+4.00,+1.00,+5.00,+2.00,-13.00
-1.00,-3.00,+0.00,-1.00,-3.00,+24.00,+9.00,+15.00,-10.00,+14.00,+1.00,+1.00,+40.00,-8.00,-8.00,+18.00
-5.00,-14.00,-5.00,-5.00,-4.00,-31.00,-24.00,-21.00,-20.00,+11.00,-2.00,+1.00,-67.00,-14.00,-2.00,+60.00
+3.00,-18.00,-4.00,-5.00,-5.00,-17.00,+6.00,+4.00,-37.00,-5.00,+3.00,-10.00,+15.00,+3.00,-2.00,+31.00
-5.00,+42.00,+6.00,+2.00,-3.00,+3.00,-8.00,-1.00,+64.00,-21.00,-3.00,-12.00,+27.00,+19.00,+8.00,+36.00
+3.00,-31.00,+5.00,+10.00,+8.00,-11.00,+15.00,+7.00,+25.00,+17.00,+0.00,-5.00,-49.00,-58.00,+10.00,-16.00
-8.00,+22.00,+2.00,-6.00,-1.00,-10.00,+5.00,+72.00,-65.00,-35.00,-2.00,+22.00,+18.00,+40.00,-20.00,-61.00
+0.00,+11.00,-2.00,-4.00,-6.00,-26.00,-12.00,+3.00,+36.00,+5.00,+5.00,+6.00,+14.00,+6.00,+17.00,-22.00
-3.00,+19.00,-1.00,-2.00,+0.00,+17.00,+8.00,+5.00,+15.00,+3.00,-1.00,+4.00,-12.00,-2.00,+6.00,-25.00
-7.00,+3.00,-5.00,-11.00,-19.00,-32.00,-20.00,-16.00,-9.00,-25.00,-1.00,-4.00,+19.00,+17.00,-7.00,-7.00
+2.00,-81.00,+0.00,+7.00,+17.00,+41.00,+24.00,+3.00,+15.00,+5.00,-6.00,-15.00,-2.00,-17.00,-1.00,-3.00
+0.00,+29.00,+3.00,+3.00,+7.00,+8.00,-10.00,-2.00,-17.00,+6.00,+1.00,+1.00,-2.00,-3.00,+8.00,+2.00
+2.00,+37.00,+4.00,+1.00,-1.00,-15.00,-5.00,-2.00,-20.00,-14.00,-5.00,+2.00,+19.00,+5.00,-12.00,-9.00
+1.00,+2.00,-5.00,-2.00,+4.00,+41.00,-1.00,+22.00,-18.00,-15.00,-3.00,-3.00,-31.00,-2.00,-7.00,-12.00
+1.00,-5.00,-6.00,-10.00,-10.00,-17.00,+3.00,-20.00,+39.00,+13.00,+0.00,+1.00,+29.00,-1.00,+3.00,+19.00
+1.00,-19.00,-4.00,-5.00,-3.00,-41.00,-8.00,-1.00,+14.00,-4.00,-1.00,-8.00,+4.00,+8.00,-1.00,-3.00
-1.00,-39.00,-5.00,+3.00,+4.00,+18.00,+0.00,-20.00,+15.00,+24.00,-3.00,-6.00,-21.00,-11.00,+5.00,+8.00
-8.00,-41.00,-6.00,-3.00,+3.00,-11.00,-1.00,-2.00,+0.00,-41.00,-2.00,-6.00,+1.00,-3.00,-6.00,+5.00
-1.00,+106.00,+15.00,-1.00,-9.00,-37.00,+2.00,-22.00,-9.00,+17.00,+8.00,+5.00,-29.00,-6.00,+1.00,-5.00
-2.00,+4.00,-1.00,+2.00,-3.00,+6.00,-1.00,-9.00,-7.00,+15.00,-2.00,+1.00,+35.00,+2.00,-3.00,+12.00
-4.00,-47.00,-6.00,-2.00,-5.00,-13.00,-7.00,-5.00,-42.00,+4.00,-6.00,-6.00,-17.00,-17.00,-10.00,-9.00
+1.00,-12.00,-2.00,-1.00,-2.00,-34.00,+3.00,+4.00,+56.00,-31.00,+1.00,+23.00,-35.00,+17.00,+16.00,+22.00
-4.00,-3.00,-2.00,+1.00,+11.00,+47.00,+10.00,-1.00,+51.00,+11.00,-4.00,-8.00,+10.00,+6.00,-2.00,-1.00
-5.00,+32.00,-1.00,-9.00,-9.00,+5.00,-13.00,+3.00,-49.00,-7.00,+0.00,-7.00,+1.00,-1.00,+3.00,+8.00
+4.00,-21.00,-9.00,-7.00,-7.00,-16.00,-12.00,-13.00,-17.00,+10.00,+10.00,+5.00,+6.00,-1.00,+3.00,-12.00
+2.00,+58.00,+7.00,+10.00,+18.00,+29.00,+16.00,+12.00,+41.00,+43.00,+3.00,-4.00,+5.00,+7.00,-1.00,+33.00
-1.00,-8.00,-4.00,+1.00,-1.00,+36.00,-15.00,-6.00,-5.00,-31.00,-5.00,-6.00,+18.00,+3.00,-6.00,-14.00
+2.00,+6.00,+6.00,+2.00,+4.00,+8.00,+15.00,-1.00,-17.00,+9.00,-1.00,+0.00,-4.00,-5.00,-1.00,-3.00
-3.00,-48.00,-5.00,-3.00,+0.00,+19.00,-17.00,+7.00,-32.00,-21.00,-7.00,-7.00,+30.00,+11.00,-2.00,+3.00
+1.00,+94.00,+9.00,+0.00,-5.00,-19.00,-1.00,-1.00,-9.00,+6.00,-5.00,-11.00,-52.00,-10.00,-2.00,+6.00
+2.00,-25.00,-6.00,-9.00,-6.00,-49.00,+0.00,-5.00,+28.00,-4.00,-1.00,+6.00,+57.00,-8.00,-3.00,-4.00
+0.00,+1.00,+0.00,-1.00,+6.00,+23.00,-13.00,-12.00,+9.00,-3.00,+1.00,-1.00,-90.00,-11.00,+1.00,-8.00
-1.00,-5.00,-2.00,-5.00,-5.00,-19.00,+8.00,-14.00,-25.00,-15.00,-2.00,+9.00,+11.00,+12.00,+2.00,+21.00
-3.00,-31.00,-2.00,-1.00,-5.00,+4.00,-8.00,-10.00,-56.00,-13.00,-2.00,-5.00,+19.00,-3.00,-2.00,-12.00
-2.00,-7.00,+1.00,+2.00,+0.00,-6.00,+6.00,+0.00,+17.00,-5.00,-1.00,+3.00,+42.00,+7.00,-7.00,-1.00
-4.00,-31.00,-9.00,-5.00,-7.00,-22.00,-6.00,-3.00,+18.00,+13.00,-10.00,-17.00,+9.00,+15.00,+11.00,+15.00
+5.00,-30.00,+0.00,-1.00,-4.00,-5.00,+4.00,+5.00,-14.00,-5.00,+9.00,+7.00,-33.00,-9.00,+7.00,-12.00
-14.00,-9.00,+3.00,-5.00,-3.00,-13.00,-2.00,-4.00,+29.00,+31.00,+4.00,+9.00,+5.00,+8.00,-2.00,+2.00
+3.00,+51.00,+11.00,+7.00,+12.00,+36.00,+6.00,-2.00,-61.00,-6.00,-7.00,-11.00,-22.00,-13.00,-6.00,-26.00
+1.00,-15.00,+0.00,-2.00,+1.00,+4.00,+0.00,-7.00,+6.00,-13.00,+2.00,+0.00,+23.00,+3.00,-2.00,+7.00
-1.00,-50.00,-10.00,-7.00,-3.00,-11.00,+2.00,-4.00,+17.00,-6.00,+1.00,+3.00,-6.00,+2.00,+5.00,+19.00
-2.00,+81.00,+17.00,+17.00,+15.00,+88.00,-7.00,+10.00,-48.00,-23.00,-12.00,-3.00,+10.00,-5.00,-28.00,-30.00
+0.00,-18.00,-9.00,-10.00,-3.00,-38.00,+6.00,+6.00,-8.00,-13.00,-7.00,-17.00,-24.00,-2.00,+6.00,+19.00
+0.00,-20.00,+2.00,-1.00,+2.00,-6.00,+5.00,+11.00,+21.00,-16.00,+0.00,+4.00,+69.00,+5.00,-2.00,-9.00
-3.00,+38.00,+4.00,+0.00,-5.00,+22.00,+0.00,-41.00,+46.00,+57.00,+0.00,-17.00,-36.00,-14.00,+0.00,-11.00
+3.00,-56.00,-7.00,-4.00,-6.00,-37.00,+3.00,-4.00,+37.00,+17.00,+18.00,+29.00,-64.00,-5.00,+4.00,+45.00
-7.00,-33.00,-6.00,-6.00,-9.00,-21.00,-16.00,-17.00,-4.00,-9.00,-2.00,+4.00,+10.00,+7.00,+9.00,+1.00
-2.00,+62.00,+3.00,+1.00,+2.00,+10.00,+4.00,+1.00,-9.00,-9.00,-2.00,-2.00,+4.00,+7.00,+2.00,+0.00
-3.00,+7.00,+0.00,-3.00,-5.00,-13.00,-3.00,+18.00,-7.00,-8.00,-4.00,-4.00,+55.00,-7.00,-20.00,-9.00
+3.00,-13.00,-6.00,-1.00,+4.00,-2.00,+2.00,-10.00,-8.00,-13.00,-7.00,-11.00,-43.00,+12.00,-3.00,-11.00
-1.00,-26.00,-6.00,-3.00,-9.00,+9.00,+0.00,-12.00,+5.00,+5.00,-4.00,+1.00,-12.00,-10.00,-1.00,-26.00
-1.00,+7.00,+0.00,+1.00,-4.00,-37.00,-30.00,+4.00,+24.00,+49.00,-9.00,+0.00,+7.00,-3.00,-4.00,+19.00
-2.00,+29.00,+4.00,+7.00,+14.00,+38.00,+46.00,+16.00,-40.00,-5.00,+8.00,+5.00,-13.00,+3.00,+25.00,+46.00
-1.00,+0.00,-5.00,-10.00,-11.00,-26.00,+2.00,-8.00,+9.00,+23.00,+1.00,-9.00,+17.00,+3.00,-10.00,-31.00
-1.00,-35.00,-5.00,-4.00,-1.00,-18.00,-13.00,+12.00,-9.00,+2.00,+12.00,+7.00,+30.00,+2.00,+5.00,+32.00
-5.00,-98.00,-8.00,-2.00,-2.00,+7.00,-7.00,-10.00,-54.00,-12.00,-4.00,-4.00,-36.00,-18.00,-7.00,-48.00
+2.00,+101.00,+16.00,+15.00,+10.00,+34.00,+5.00,+20.00,+1.00,-3.00,-8.00,+0.00,-5.00,+2.00,+1.00,+27.00
-2.00,-9.00,-4.00,-3.00,+0.00,+13.00,+3.00,+1.00,-8.00,-38.00,-10.00,-9.00,+5.00,-2.00,+8.00,+12.00
+1.00,-5.00,+0.00,-6.00,-6.00,-14.00,-1.00,-2.00,-21.00,+40.00,-3.00,+1.00,+15.00,-8.00,-5.00,-15.00
+3.00,-1.00,-4.00,-7.00,-10.00,-7.00,-3.00,-5.00,+107.00,+3.00,+6.00,+0.00,-19.00,-1.00,-1.00,+12.00
-1.00,-24.00,-9.00,-3.00,+1.00,-14.00,-13.00,-4.00,+44.00,-10.00,+1.00,-15.00,+66.00,+4.00,+6.00,+25.00
+1.00,-43.00,-5.00,-2.00,-4.00,+12.00,+4.00,+2.00,-30.00,-15.00,+1.00,+18.00,-48.00,+6.00,+2.00,+3.00
+1.00,+33.00,+0.00,-2.00,-6.00,-20.00,-7.00,-1.00,+10.00,+15.00,+4.00,+3.00,-28.00,-1.00,+4.00,+4.00
-2.00,-45.00,-6.00,-1.00,-4.00,-4.00,+4.00,+3.00,-33.00,-15.00,-8.00,+3.00,+12.00,-3.00,-4.00,+1.00
-2.00,+78.00,+15.00,-1.00,+5.00,-49.00,-2.00,+27.00,-7.00,-50.00,+0.00,+7.00,-4.00,-4.00,-3.00,-11.00
-4.00,+5.00,+5.00,+17.00,+16.00,+66.00,+3.00,-5.00,-31.00,+21.00,-9.00,-16.00,+22.00,-6.00,-6.00,-38.00
+1.00,-16.00,-2.00,+0.00,+2.00,-4.00,+26.00,-1.00,+40.00,+37.00,-4.00,-7.00,-11.00,-6.00,-9.00,-17.00
-1.00,-4.00,-3.00,+2.00,+4.00,+8.00,+1.00,-4.00,-37.00,+3.00,+1.00,-6.00,-16.00,-3.00,+3.00,+8.00
-4.00,-44.00,-12.00,-11.00,-18.00,-32.00,-31.00,-11.00,+39.00,-19.00,+2.00,+5.00,-3.00,+1.00,+3.00,+1.00
+3.00,-6.00,-1.00,+0.00,+6.00,+20.00,+9.00,+8.00,-6.00,+8.00,-8.00,-12.00,+16.00,-14.00,-5.00,-28.00
-1.00,+14.00,-8.00,-8.00,-5.00,+4.00,-12.00,-5.00,-2.00,-40.00,-11.00,-5.00,-25.00,+5.00,-4.00,+0.00
+1.00,-65.00,-2.00,+1.00,-2.00,+13.00,+13.00,-1.00,-54.00,+6.00,+0.00,+2.00,+18.00,-1.00,+0.00,+9.00
-3.00,+28.00,+21.00,+12.00,+7.00,+15.00,+10.00,+4.00,-50.00,-27.00,+14.00,+8.00,-10.00,+9.00,+16.00,+42.00
+0.00,+47.00,-1.00,-7.00,-8.00,-44.00,-13.00,-1.00,-18.00,+36.00,+4.00,+1.00,+30.00,-2.00,+10.00,+26.00
-4.00,+99.00,+18.00,+2.00,+1.00,+9.00,+5.00,+2.00,+11.00,+30.00,+9.00,-4.00,-46.00,-7.00,-7.00,-16.00
+2.00,+36.00,-6.00,-4.00,+2.00,+25.00,+5.00,+18.00,-20.00,-68.00,-11.00,-5.00,+53.00,+20.00,-1.00,-20.00
+1.00,-61.00,-10.00,-6.00,-5.00,-28.00,-11.00,-11.00,+28.00,+34.00,+0.00,+2.00,-25.00,-9.00,-20.00,-63.00
-2.00,-60.00,-8.00,-2.00,+2.00,+4.00,-4.00,-4.00,+108.00,-50.00,-3.00,-9.00,-69.00,-44.00,-15.00,+7.00
-1.00,-23.00,-7.00,-5.00,-5.00,+6.00,-2.00,+1.00,-40.00,-4.00,+11.00,+22.00,+29.00,+46.00,+58.00,+14.00
+1.00,+48.00,+11.00,+2.00,-2.00,-22.00,-2.00,-2.00,-42.00,-32.00,-5.00,+1.00,+3.00,-10.00,-55.00,-11.00
-3.00,+13.00,-3.00,-7.00,+0.00,-18.00,-2.00,-6.00,-30.00,-3.00,+1.00,-7.00,+0.00,+7.00,-17.00,-59.00
+3.00,+14.00,-1.00,+0.00,-8.00,-28.00,+7.00,+4.00,+34.00,+35.00,+12.00,+3.00,+41.00,+23.00,+25.00,+64.00
-6.00,-15.00,+3.00,+10.00,+13.00,+63.00,+7.00,-2.00,-9.00,-4.00,-6.00,+1.00,+20.00,-14.00,-17.00,+3.00
-4.00,+7.00,-7.00,-1.00,+1.00,-7.00,-6.00,-7.00,-25.00,-27.00,-6.00,-3.00,-20.00,-4.00,+8.00,-14.00
-2.00,+7.00,+8.00,+3.00,+0.00,+35.00,+5.00,+9.00,-85.00,+51.00,+1.00,+10.00,+12.00,+5.00,+7.00,-2.00
+0.00,-29.00,-10.00,-11.00,-11.00,-62.00,-13.00,-3.00,+39.00,+8.00,-8.00,-9.00,+12.00,+3.00,-21.00,-36.00
-4.00,-32.00,-2.00,-1.00,-3.00,-35.00,-6.00,-2.00,-19.00,-53.00,-4.00,-11.00,-18.00,-8.00,-1.00,+15.00
+3.00,+80.00,+12.00,+10.00,+5.00,+14.00,+8.00,-7.00,+72.00,+68.00,+20.00,+8.00,+1.00,+10.00,+24.00,+43.00
-1.00,+31.00,+6.00,+1.00,-1.00,+7.00,+1.00,-5.00,-21.00,-84.00,-19.00,-10.00,-23.00,-20.00,-20.00,-23.00
-5.00,-18.00,-6.00,-9.00,-5.00,-15.00,-3.00,+3.00,+10.00,+98.00,+1.00,-3.00,+8.00,+5.00,+7.00,-16.00
+1.00,-48.00,-12.00,-6.00,-4.00,-10.00,-8.00,-2.00,+18.00,-24.00,-1.00,-7.00,+7.00,+0.00,+8.00,+63.00
-5.00,-45.00,+1.00,+0.00,+3.00,+9.00,+6.00,+4.00,+40.00,+40.00,+10.00,+0.00,-51.00,-19.00,-1.00,-6.00
+3.00,-31.00,-17.00,-1.00,-2.00,-7.00,-3.00,+4.00,-33.00,-25.00,-8.00,-2.00,-13.00,-3.00,-4.00,-11.00
+0.00,+27.00,+20.00,+5.00,+8.00,+29.00,+7.00,+0.00,-62.00,-51.00,-5.00,+4.00,+6.00,+5.00,-4.00,-18.00
+0.00,-26.00,-10.00,-9.00,-7.00,-9.00,-4.00,-10.00,+53.00,+30.00,-13.00,-7.00,+2.00,-13.00,-21.00,-41.00
+2.00,+122.00,+7.00,-9.00,-14.00,-37.00,-3.00,+5.00,-37.00,+29.00,-13.00,-13.00,+3.00,+4.00,+6.00,+12.00
+6.00,-128.00,-11.00,+2.00,+8.00,+6.00,+0.00,-21.00,+58.00,+26.00,+26.00,-1.00,-21.00,+18.00,+18.00,+31.00
+4.00,+44.00,-3.00,+4.00,+5.00,+47.00,-12.00,-7.00,-58.00,-72.00,-10.00,+18.00,+81.00,-2.00,+6.00,+33.00
-4.00,-1.00,-4.00,+5.00,+16.00,+44.00,+53.00,+7.00,+16.00,-15.00,-11.00,-11.00,-63.00,-22.00,-22.00,-30.00
-2.00,-54.00,-10.00,-8.00,-6.00,-5.00,-14.00,-12.00,+89.00,+77.00,+2.00,-11.00,-39.00,-4.00,-3.00,-36.00
-7.00,+16.00,+2.00,-4.00,-4.00,-13.00,-7.00,-2.00,+51.00,+4.00,-12.00,+11.00,+73.00,+9.00,+12.00,+50.00
-2.00,-63.00,-5.00,+3.00,-3.00,-30.00,+8.00,-6.00,-45.00,-84.00,+2.00,-17.00,-36.00,+3.00,+1.00,-7.00
-4.00,-32.00,+1.00,-4.00,-11.00,-28.00,-23.00,-6.00,-50.00,+50.00,-2.00,+5.00,+60.00,+2.00,-6.00,-15.00
-7.00,-32.00,-6.00,-7.00,-1.00,-7.00,-2.00,+5.00,+40.00,+30.00,+17.00,+13.00,+12.00,+6.00,+13.00,+35.00
+1.00,+69.00,-1.00,+4.00,-1.00,+11.00,+6.00,+3.00,+52.00,+70.00,+3.00,-9.00,-81.00,-10.00,-10.00,-18.00
+1.00,-57.00,-4.00,-8.00,-4.00,-29.00,-12.00,-3.00,+41.00,+96.00,+2.00,+8.00,+10.00,+21.00,+3.00,+3.00
+0.00,+67.00,+8.00,-4.00,-2.00,-13.00,-4.00,+15.00,-64.00,-99.00,+1.00,+10.00,+37.00,-15.00,+2.00,+23.00
-1.00,+67.00,+11.00,+10.00,+7.00,+12.00,+8.00,-6.00,-80.00,-128.00,-12.00,-8.00,+68.00,+14.00,-23.00,-78.00
+2.00,-60.00,-5.00,-4.00,-4.00,-4.00,-10.00,-7.00,-42.00,+31.00,+8.00,+21.00,-47.00,+6.00,+28.00,+65.00
-1.00,+57.00,-8.00,-4.00,-2.00,+5.00,-4.00,+5.00,+14.00,-91.00,-27.00,-21.00,-35.00,-11.00,-19.00,-59.00
-5.00,-34.00,+11.00,+8.00,+1.00,-4.00,+4.00,+4.00,-101.00,+56.00,+14.00,-4.00,-43.00,+0.00,-6.00,-42.00
+6.00,+4.00,+1.00,+10.00,+11.00,+3.00,+10.00,+2.00,+81.00,+32.00,-3.00,+11.00,+17.00,-5.00,+19.00,+79.00
-6.00,+39.00,+1.00,-4.00,-5.00,+11.00,+0.00,+1.00,+87.00,-32.00,-1.00,-13.00,-3.00,-7.00,-13.00,-27.00
-4.00,-57.00,-4.00,+2.00,+6.00,+4.00,+0.00,-6.00,-35.00,+12.00,-2.00,+0.00,+4.00,-3.00,-5.00,-22.00
+2.00,-26.00,-21.00,-20.00,-16.00,-14.00,-20.00,-2.00,+17.00,-7.00,-3.00,+0.00,+20.00,+0.00,+0.00,+12.00
+4.00,-51.00,+4.00,-1.00,-3.00,-15.00,-1.00,+5.00,-91.00,+21.00,-5.00,-4.00,-8.00,-12.00,-4.00,-7.00
-1.00,-18.00,+12.00,+7.00,+2.00,-87.00,+0.00,+14.00,-22.00,-85.00,-15.00,-4.00,+21.00,+0.00,-5.00,-19.00
-8.00,+11.00,-2.00,-3.00,-1.00,+48.00,+6.00,-9.00,+29.00,-7.00,+24.00,-20.00,+17.00,-10.00,+5.00,+29.00
+3.00,+62.00,+1.00,+1.00,+1.00,+23.00,-7.00,-4.00,+37.00,-73.00,-3.00,+18.00,-70.00,+5.00,+0.00,-8.00
-4.00,-114.00,-29.00,-14.00,-14.00,-19.00,-10.00,-4.00,-64.00,-55.00,-12.00,-5.00,-8.00,-16.00,-29.00,-70.00
+1.00,+99.00,-1.00,+4.00,+0.00,+41.00,+2.00,+1.00,-76.00,-55.00,-15.00,-1.00,-3.00,+3.00,+10.00,+21.00
-6.00,-77.00,+1.00,-9.00,-2.00,-10.00,-4.00,-2.00,-12.00,+110.00,+13.00,-4.00,+105.00,+4.00,+9.00,+33.00
+4.00,+101.00,+15.00,+1.00,-8.00,-61.00,-10.00,-2.00,+46.00,+36.00,-2.00,-3.00,-87.00,-19.00,+11.00,+4.00
-5.00,-81.00,-5.00,+7.00,+8.00,+57.00,+8.00,-7.00,-45.00,-74.00,+2.00,+8.00,+10.00,-4.00,-6.00,-20.00
+4.00,-40.00,-14.00,-2.00,-2.00,+36.00,-2.00,-9.00,-45.00,+50.00,-9.00,+5.00,+20.00,-5.00,-7.00,-25.00
-1.00,-38.00,-10.00,-5.00,-3.00,-52.00,-5.00,+8.00,+29.00,+23.00,-9.00,-2.00,-10.00,-4.00,-8.00,-11.00
-11.00,-36.00,+11.00,+4.00,+7.00,+20.00,+14.00,-6.00,-17.00,-66.00,+0.00,-11.00,+21.00,+9.00,-8.00,-40.00
-9.00,+74.00,+13.00,-10.00,-15.00,-44.00,-21.00,+0.00,+13.00,+51.00,+6.00,-3.00,-20.00,-5.00,+4.00,+9.00
-1.00,-2.00,+6.00,+8.00,+9.00,+34.00,+13.00,+10.00,-90.00,-16.00,-1.00,-2.00,+22.00,+2.00,-1.00,+2.00
-4.00,-22.00,-7.00,-7.00,-5.00,+32.00,-3.00,-4.00,-36.00,+30.00,+20.00,+17.00,-31.00,+15.00,+14.00,-6.00
+9.00,-97.00,-11.00,+4.00,+0.00,-12.00,-2.00,+3.00,+28.00,+61.00,-34.00,-22.00,+3.00,-7.00,-18.00,-27.00
+0.00,+23.00,+10.00,+20.00,+10.00,+22.00,+10.00,-2.00,-64.00,-28.00,+31.00,+22.00,+3.00,+10.00,+16.00,+12.00
-7.00,-82.00,-8.00,+3.00,-3.00,-21.00,-9.00,-6.00,+11.00,-63.00,-7.00,-16.00,+14.00,-4.00,+1.00,+26.00
-1.00,+80.00,-1.00,+0.00,-10.00,-18.00,-7.00,+9.00,+69.00,+71.00,-5.00,-1.00,-79.00,-6.00,-2.00,+6.00
+2.00,-11.00,-4.00,+1.00,+2.00,+17.00,-3.00,+10.00,-68.00,-83.00,+3.00,+14.00,+46.00,-7.00,-9.00,-10.00
-2.00,-64.00,-16.00,-21.00,-10.00,-19.00,-5.00,+17.00,+0.00,+39.00,-15.00,-11.00,+46.00,-4.00,+1.00,+6.00
-2.00,+98.00,+16.00,-2.00,+0.00,+9.00,+6.00,+14.00,-88.00,+30.00,-16.00,-15.00,-73.00,-4.00,-21.00,-59.00
+5.00,-44.00,+5.00,+7.00,-7.00,-13.00,+1.00,+7.00,-2.00,+18.00,+17.00,-2.00,-21.00,+25.00,+14.00,+27.00
+3.00,-26.00,-4.00,+17.00,+13.00,+55.00,+5.00,+13.00,-58.00,+34.00,-27.00,+3.00,+24.00,-33.00,-13.00,+10.00
+5.00,+94.00,+5.00,+4.00,+5.00,+9.00,+1.00,+32.00,+27.00,+74.00,+27.00,+17.00,+19.00,+7.00,+9.00,+15.00
-9.00,-81.00,+6.00,+2.00,+4.00,+14.00,+7.00,-8.00,+63.00,+100.00,-3.00,+6.00,+5.00,-4.00,+2.00,+19.00
+1.00,+127.00,+17.00,-9.00,-6.00,-3.00,+4.00,-32.00,-33.00,-52.00,+17.00,+18.00,+36.00,-5.00,-16.00,-38.00
+5.00,-75.00,-10.00,+1.00,+10.00,+30.00,-1.00,-48.00,+63.00,+65.00,+1.00,-23.00,-19.00,+11.00,+3.00,+39.00
-2.00,+77.00,+20.00,+20.00,+3.00,-13.00,+2.00,-27.00,-22.00,+83.00,-5.00,-10.00,-50.00,-5.00,-6.00,-17.00
-2.00,-128.00,-31.00,-5.00,+1.00,+4.00,-5.00,+2.00,-85.00,-30.00,-43.00,-25.00,+21.00,-18.00,-24.00,-67.00
+9.00,-26.00,-10.00,+22.00,-7.00,-16.00,-7.00,+2.00,+104.00,+44.00,+68.00,+38.00,+15.00,+13.00,+24.00,+28.00
-16.00,+19.00,+19.00,+66.00,-5.00,-42.00,-5.00,-4.00,+30.00,+9.00,-12.00,-8.00,+20.00,+11.00,+15.00,+74.00
-2.00,+29.00,+4.00,+23.00,+3.00,+8.00,+3.00,-8.00,+44.00,+14.00,-16.00,-13.00,-18.00,-9.00,-4.00,-6.00
+6.00,+20.00,+0.00,-9.00,-8.00,-46.00,+3.00,+8.00,+39.00,+127.00,+39.00,+19.00,+15.00,+11.00,+20.00,+51.00
-4.00,-128.00,-7.00,-15.00,+9.00,+35.00,-1.00,-26.00,-61.00,-24.00,-83.00,-43.00,-27.00,-29.00,-28.00,-28.00
+7.00,-38.00,-61.00,-53.00,-26.00,-34.00,-20.00,-3.00,-27.00,-70.00,+26.00,+16.00,+8.00,+10.00,-4.00,-60.00
+5.00,+66.00,+68.00,+14.00,+16.00,+34.00,+21.00,+32.00,+81.00,+86.00,-29.00,-23.00,-15.00,-9.00,-18.00,-23.00
-6.00,-75.00,+5.00,-20.00,+0.00,-8.00,+5.00,-7.00,-71.00,-86.00,-30.00,-16.00,-23.00,-18.00,-33.00,-96.00
+4.00,-91.00,-8.00,-16.00,+7.00,-39.00,+1.00,+22.00,+47.00,+108.00,+74.00,+55.00,+42.00,+36.00,+67.00,+94.00
-1.00,+53.00,+1.00,-22.00,+3.00,+14.00,+1.00,+0.00,-62.00,-64.00,+4.00,-7.00,+13.00,-5.00,-3.00,-31.00
+1.00,-98.00,-39.00,-36.00,-19.00,-5.00,-10.00,-10.00,-12.00,+25.00,+2.00,+0.00,-20.00,+16.00,+6.00,+7.00
+9.00,+71.00,+23.00,-9.00,-2.00,-14.00,-11.00,+2.00,+109.00,-120.00,-31.00,-31.00,-52.00,-14.00,-18.00,+2.00
-2.00,-57.00,-4.00,-9.00,-15.00,-111.00,-15.00,+3.00,-98.00,-128.00,+8.00,+22.00,+24.00,-7.00,-9.00,-12.00
-2.00,-101.00,-14.00,+2.00,+21.00,+97.00,+22.00,-18.00,-14.00,+9.00,+24.00,+10.00,+5.00,+11.00,+2.00,+13.00
-12.00,+27.00,+5.00,-6.00,+3.00,-13.00,+0.00,-7.00,+43.00,+12.00,-25.00,-9.00,+0.00,-2.00,+7.00,+32.00
-1.00,-122.00,-46.00,-16.00,-9.00,+6.00,-5.00,-24.00,+38.00,-46.00,+32.00,+17.00,+23.00,+16.00,+34.00,+84.00
-12.00,+50.00,+47.00,+13.00,+8.00,+29.00,+1.00,+10.00,-34.00,+80.00,-40.00,-35.00,-23.00,-13.00,-19.00,-15.00
+6.00,+102.00,-4.00,-22.00,-8.00,-53.00,-2.00,+18.00,-7.00,+54.00,-10.00,-5.00,-7.00,-3.00,-9.00,-63.00
-2.00,-128.00,-17.00,+5.00,+2.00,-21.00,-8.00,-18.00,+84.00,+42.00,+0.00,-12.00,-5.00,-3.00,+12.00,+63.00
+2.00,-51.00,-97.00,+44.00,-23.00,-1.00,-35.00,-26.00,+53.00,+108.00,+63.00,+33.00,+24.00,+11.00,+13.00,+8.00
-10.00,+127.00,+90.00,+50.00,+31.00,+53.00,+40.00,+33.00,+2.00,-32.00,-40.00,-24.00,-20.00,-19.00,-28.00,-47.00
+3.00,-128.00,+15.00,-3.00,-9.00,-21.00,-9.00,-13.00,+80.00,+70.00,-7.00,+0.00,+5.00,-1.00,-7.00,-12.00
+1.00,-81.00,-3.00,-18.00,+7.00,+7.00,+1.00,-8.00,-6.00,+40.00,-69.00,-18.00,-1.00,+3.00,+20.00,+56.00
+0.00,+74.00,+20.00,-11.00,+2.00,+0.00,+2.00,+4.00,-41.00,-86.00,+28.00,+17.00,+16.00,+11.00,+17.00,+38.00
+14.00,-108.00,-54.00,-33.00,-10.00,+4.00,-11.00,-16.00,-111.00,+9.00,-6.00,+4.00,-2.00,-2.00,-14.00,-61.00
-16.00,+125.00,+28.00,-15.00,+2.00,-12.00,+3.00,+25.00,+41.00,+71.00,+20.00,-14.00,-13.00,-10.00,-11.00,-26.00
+2.00,-98.00,-71.00,-36.00,-32.00,-32.00,-30.00,-16.00,-54.00,-10.00,+48.00,+11.00,+0.00,-1.00,+1.00,+18.00
-15.00,-17.00,+63.00,+15.00,+12.00,+1.00,+9.00,+8.00,-63.00,+121.00,+0.00,-5.00,-6.00,-20.00,-3.00,-17.00
-8.00,+87.00,+53.00,+25.00,+23.00,+50.00,+34.00,+40.00,+100.00,+93.00,-69.00,-11.00,+4.00,+12.00,+6.00,+24.00
-4.00,-70.00,+5.00,-3.00,-7.00,-14.00,-6.00,-2.00,-44.00,-39.00,-8.00,-5.00,-6.00,-6.00,-12.00,-25.00
-2.00,-76.00,-10.00,+6.00,+2.00,-12.00,-3.00,-27.00,-53.00,-77.00,+4.00,+4.00,+0.00,-8.00,-22.00,-55.00
-4.00,-128.00,-106.00,-47.00,-28.00,-19.00,-35.00,-48.00,+58.00,+105.00,-38.00,+5.00,+16.00,+5.00,+12.00,+50.00
+6.00,+102.00,+80.00,+23.00,+31.00,+52.00,+38.00,+57.00,+33.00,-118.00,+55.00,-11.00,-23.00,-21.00,-15.00,-26.00
-6.00,-112.00,-24.00,-3.00,+1.00,-10.00,-10.00,-66.00,-29.00,+13.00,-41.00,+7.00,+8.00,+8.00,+2.00,-33.00
-2.00,+43.00,-4.00,-11.00,-13.00,-19.00,-14.00,+2.00,+41.00,-8.00,+95.00,+27.00,+10.00,+11.00,+18.00,+16.00
-6.00,+6.00,+13.00,-6.00,+15.00,+17.00,+18.00,+17.00,+104.00,+65.00,+74.00,+33.00,+23.00,+24.00,+41.00,+84.00
+14.00,+68.00,-14.00,-16.00,-12.00,-15.00,-16.00,-25.00,-110.00,-128.00,-42.00,-15.00,-6.00,-9.00,-12.00,-2.00
-2.00,-59.00,+7.00,+8.00,-8.00,-6.00,+3.00,+28.00,-74.00,-95.00,+41.00,+25.00,+15.00,+19.00,+34.00,+115.00
+9.00,+75.00,-2.00,+12.00,+25.00,+31.00,+26.00,+15.00,+62.00,+19.00,+92.00,-17.00,-12.00,-4.00,+10.00,+75.00
+9.00,+64.00,+50.00,+19.00,+19.00,+16.00,+18.00,+6.00,+1.00,-118.00,-96.00,-29.00,-16.00,-19.00,-46.00,-70.00
-3.00,-128.00,-82.00,-32.00,-26.00,-19.00,-35.00,-29.00,-80.00,-46.00,-37.00,-24.00,-16.00,-21.00,-46.00,-78.00
-9.00,+87.00,-2.00,-18.00,-11.00,-14.00,-9.00,+53.00,+77.00,+73.00,+40.00,+17.00,+12.00,+13.00,+34.00,+127.00
+15.00,-60.00,+32.00,+12.00,+6.00,+10.00,+13.00,+5.00,+52.00,-3.00,-42.00,+4.00,+4.00,+7.00,+5.00,+29.00
-15.00,-48.00,+30.00,+13.00,+9.00,+12.00,+14.00,+1.00,+29.00,-97.00,+15.00,-15.00,-9.00,-5.00,-8.00,-52.00
-11.00,-100.00,-122.00,-53.00,-38.00,-30.00,-33.00,-36.00,-83.00,+62.00,-88.00,-5.00,+3.00,+2.00,+14.00,-24.00
+5.00,+59.00,+88.00,+35.00,+20.00,+1.00,+0.00,-11.00,-4.00,-60.00,-3.00,-9.00,-4.00,-3.00,-1.00,+15.00
-3.00,-81.00,-32.00,-2.00,-6.00,-2.00,-1.00,+20.00,-42.00,-69.00,-38.00,-9.00,-8.00,-14.00,-26.00,-114.00
+23.00,+112.00,-9.00,-15.00,-6.00,-1.00,+4.00,+26.00,-26.00,-35.00,-4.00,-4.00,+7.00,+4.00,-8.00,-7.00
-7.00,-85.00,+79.00,+33.00,+8.00,+6.00,-9.00,-39.00,+121.00,+9.00,+95.00,+29.00,+2.00,-2.00,+7.00,+28.00
-1.00,-68.00,-44.00,-19.00,-14.00,-18.00,-10.00,-10.00,-37.00,-44.00,-83.00,-28.00,-12.00,-15.00,-30.00,-86.00
-4.00,-78.00,-15.00,-11.00,-10.00,-11.00,-10.00,+20.00,+59.00,+53.00,+52.00,+57.00,+47.00,+54.00,+94.00,+127.00
-1.00,-126.00,-42.00,-13.00,+0.00,+11.00,+9.00,+62.00,+39.00,-115.00,+42.00,-6.00,-2.00,-2.00,+7.00,+9.00
+1.00,+54.00,+4.00,+19.00,+11.00,+8.00,+29.00,+33.00,+12.00,+10.00,+24.00,-5.00,-9.00,-13.00,-26.00,-71.00
+4.00,+37.00,+19.00,+5.00,+20.00,+12.00,+8.00,+3.00,+21.00,-21.00,-17.00,-2.00,+1.00,+6.00,+14.00,+62.00
-25.00,+41.00,+19.00,+1.00,-3.00,-8.00,-17.00,-74.00,-94.00,-128.00,+5.00,+6.00,-4.00,-1.00,-8.00,+31.00
+4.00,+6.00,+68.00,+45.00,+36.00,+36.00,+35.00,+10.00,+91.00,+127.00,+14.00,+11.00,+6.00,-10.00,+19.00,+48.00
+0.00,-117.00,-80.00,-41.00,-27.00,-19.00,-20.00,+3.00,+21.00,-54.00,-70.00,-8.00,+3.00,+16.00,+8.00,-7.00
-4.00,+47.00,+113.00,+35.00,+16.00,+12.00,+20.00,+8.00,-18.00,+5.00,+16.00,+0.00,-6.00,-6.00,-12.00,-34.00
+0.00,-5.00,+7.00,+11.00,+2.00,+7.00,+9.00,+0.00,-57.00,+40.00,-86.00,-5.00,-2.00,-3.00,-6.00,-59.00
+4.00,+106.00,+12.00,-6.00,-7.00,-11.00,-5.00,-35.00,-33.00,-77.00,-91.00,-39.00,-14.00,-12.00,-17.00,-28.00
-1.00,-79.00,-62.00,-30.00,-15.00,-14.00,-20.00,+17.00,-27.00,+115.00,+55.00,+0.00,-3.00,-5.00,+6.00,+61.00
+7.00,+69.00,+25.00,+49.00,+28.00,+24.00,+38.00,+33.00,+29.00,+14.00,+21.00,+16.00,+13.00,+9.00,+14.00,+7.00
+6.00,+34.00,-33.00,-10.00,+0.00,+8.00,+5.00,+20.00,+32.00,-17.00,+56.00,+2.00,+0.00,-5.00,-13.00,-19.00
-6.00,-60.00,-46.00,-9.00,-23.00,-16.00,-12.00,-9.00,-128.00,-34.00,-9.00,-4.00,-7.00,+0.00,-10.00,-17.00
+14.00,+124.00,+98.00,+80.00,+32.00,+23.00,+18.00,+18.00,-2.00,-47.00,-40.00,-20.00,-13.00,-14.00,-20.00,-13.00
+5.00,-128.00,-120.00,-43.00,-37.00,-24.00,-22.00,-7.00,+66.00,+87.00,-5.00,-9.00,-4.00,-1.00,-4.00,+42.00
+1.00,-60.00,-40.00,-7.00,-2.00,-14.00,-17.00,-11.00,-17.00,-101.00,+11.00,-8.00,-9.00,-21.00,-29.00,-45.00
-15.00,-70.00,+71.00,-4.00,+24.00,+16.00,+16.00,-6.00,-19.00,+45.00,+6.00,-1.00,-8.00,-17.00,-1.00,-32.00
-23.00,+90.00,-32.00,-16.00,-10.00,-4.00,-11.00,-60.00,-11.00,-54.00,+31.00,+19.00,+20.00,+68.00,-7.00,+69.00
+5.00,-113.00,-75.00,-37.00,-27.00,-35.00,-44.00,-22.00,-73.00,-14.00,+2.00,-1.00,+1.00,+3.00,-4.00,-27.00
+9.00,+82.00,+127.00,+108.00,+89.00,+90.00,+106.00,+84.00,-65.00,-98.00,-15.00,-13.00,-9.00,-3.00,-17.00,-45.00
+2.00,-108.00,-80.00,-19.00,-6.00,+0.00,-13.00,-72.00,-86.00,-12.00,-22.00,-15.00,-13.00,-22.00,-50.00,-90.00
+1.00,-128.00,-118.00,-42.00,-25.00,-21.00,-27.00,-26.00,-61.00,-104.00,-61.00,+4.00,+27.00,+11.00,+51.00,+21.00
-19.00,-48.00,+73.00,+3.00,-6.00,-11.00,-17.00,-14.00,+23.00,+83.00,+117.00,+30.00,+7.00,+5.00,+18.00,+35.00
-4.00,+68.00,-27.00,-27.00,-18.00,-13.00,+0.00,+1.00,-29.00,+4.00,-7.00,-12.00,-13.00,-13.00,-33.00,-26.00
+3.00,+41.00,+20.00,+1.00,-8.00,-4.00,-3.00,+47.00,+50.00,+6.00,-68.00,-10.00,-2.00,+6.00,+29.00,+50.00
+10.00,-57.00,+9.00,+23.00,+26.00,+20.00,+17.00,-16.00,-70.00,-93.00,+67.00,-15.00,-11.00,-23.00,-17.00,-39.00
+8.00,-28.00,-103.00,-5.00,+3.00,+3.00,+2.00,+17.00,-61.00,+31.00,+73.00,+28.00,+15.00,+24.00,+29.00,+52.00
-13.00,-40.00,+17.00,-26.00,-35.00,-31.00,-28.00,-48.00,+18.00,+15.00,-32.00,-7.00,-5.00,-7.00,+11.00,+8.00
+11.00,+59.00,+40.00,+17.00,+8.00,+6.00,+7.00,-4.00,-42.00,-48.00,+47.00,+23.00,+10.00,+13.00,+7.00,+8.00
-5.00,+63.00,-11.00,-4.00,-14.00,-16.00,-14.00,+8.00,-34.00,-49.00,+16.00,+4.00,+3.00,-6.00,-12.00,-50.00
+8.00,+111.00,+5.00,+14.00,+16.00,+22.00,+20.00,-9.00,+87.00,-16.00,-31.00,-13.00,-11.00,-4.00,+8.00,+81.00
+10.00,-111.00,+7.00,-3.00,+15.00,+13.00,+3.00,-37.00,-16.00,-46.00,-19.00,+0.00,+0.00,-1.00,-7.00,-51.00
-7.00,+127.00,+37.00,+12.00,-3.00,-12.00,-4.00,-4.00,-62.00,-11.00,+19.00,-2.00,-8.00,-14.00,-6.00,+32.00
+0.00,-111.00,-35.00,-26.00,-17.00,-13.00,-6.00,-30.00,-42.00,+86.00,+6.00,+4.00,+1.00,+11.00,-9.00,-28.00
+11.00,+1.00,+15.00,+3.00,+4.00,+4.00,+5.00,+9.00,-58.00,-42.00,-34.00,-25.00,-10.00,-15.00,-18.00,-62.00
-8.00,-16.00,-24.00,-15.00,-9.00,+2.00,-2.00,+22.00,-14.00,+2.00,+8.00,+1.00,+2.00,+6.00,+3.00,-27.00
-10.00,-34.00,-20.00,-16.00,-19.00,-23.00,-39.00,+48.00,-86.00,-86.00,-1.00,-25.00,-17.00,-13.00,-45.00,-88.00
+15.00,+20.00,-11.00,+1.00,+12.00,+17.00,+15.00,+31.00,+31.00,+99.00,+44.00,+3.00,-6.00,-18.00,+1.00,+47.00
-14.00,-87.00,+3.00,-5.00,+1.00,-1.00,+1.00,-6.00,+47.00,+98.00,+29.00,+21.00,+2.00,+4.00,+19.00,+8.00
-7.00,-71.00,-21.00,-7.00,-12.00,-15.00,-20.00,-6.00,+5.00,-15.00,-17.00,-4.00,-4.00,-1.00,+0.00,+13.00
+4.00,-41.00,-67.00,-19.00,-23.00,-18.00,-19.00,+13.00,+74.00,+6.00,-52.00,-29.00,-19.00,-11.00,-20.00,+8.00
-17.00,-82.00,+105.00,+5.00,+9.00,+8.00,+6.00,-5.00,-42.00,-30.00,+92.00,+50.00,+28.00,+20.00,+39.00,+57.00
-9.00,-44.00,-3.00,+14.00,+4.00,+9.00,+16.00,+8.00,-73.00,-106.00,-58.00,-17.00,-6.00,-6.00,-24.00,-76.00
+5.00,-8.00,-43.00,-9.00,-15.00,-12.00,-18.00,+66.00,-63.00,-78.00,-28.00,-12.00,-9.00,-9.00,-6.00,+12.00
-5.00,-117.00,+29.00,+4.00,-5.00,-14.00,-21.00,-68.00,+89.00,+127.00,+34.00,+39.00,+27.00,+22.00,+20.00,+21.00
+3.00,+85.00,-52.00,-34.00,-16.00,-10.00,-7.00,+1.00,-54.00,+54.00,+30.00,-2.00,-2.00,-3.00,+12.00,+6.00
-13.00,+89.00,+121.00,+41.00,+21.00,+13.00,+24.00,-15.00,-15.00,+52.00,-11.00,-13.00,-1.00,-6.00,-8.00,-10.00
+2.00,-74.00,-48.00,-4.00,-11.00,-12.00,-7.00,+0.00,-71.00,-44.00,+13.00,+4.00,+6.00,+1.00,-7.00,-57.00
-10.00,-82.00,-62.00,-13.00,-2.00,+4.00,-4.00,-36.00,-86.00,-62.00,-4.00,+0.00,-11.00,-10.00,-33.00,-107.00
-10.00,+46.00,+115.00,+35.00,+26.00,+21.00,+21.00,-1.00,+90.00,+96.00,-51.00,-5.00,-2.00,+4.00,+39.00,+100.00
+4.00,-24.00,-14.00,+1.00,+1.00,+2.00,-12.00,-22.00,-13.00,-77.00,-23.00,-12.00,-10.00,-13.00,-30.00,-74.00
-2.00,-30.00,-11.00,-8.00,-14.00,-11.00,-11.00,+7.00,+116.00,+127.00,+44.00,+6.00,+2.00,+1.00,-2.00,+15.00
-6.00,-45.00,+17.00,+7.00,+5.00,+3.00,+7.00,-65.00,+41.00,-53.00,+37.00,+16.00,+8.00,+11.00,+10.00,+9.00
+8.00,-7.00,-67.00,-13.00,-7.00,-4.00,-6.00,+38.00,+39.00,-33.00,-21.00,-23.00,-18.00,-23.00,-32.00,-104.00
-2.00,-128.00,-3.00,-3.00,-1.00,-3.00,-10.00,-39.00,-55.00,+3.00,+16.00,+3.00,+1.00,-2.00,+26.00,+69.00
-13.00,-17.00,+21.00,+3.00,+7.00,+6.00,+2.00,-12.00,+20.00,+19.00,-22.00,-5.00,-4.00,+10.00,-11.00,-19.00
+6.00,+116.00,-47.00,-41.00,-21.00,-24.00,-9.00,-7.00,-73.00,-27.00,+39.00,+20.00,+16.00,+16.00,+24.00,+28.00
-8.00,-68.00,+1.00,+16.00,-6.00,-5.00,-12.00,-6.00,+66.00,-48.00,-28.00,-2.00,-3.00,-8.00,-18.00,+0.00
-3.00,-57.00,-23.00,+16.00,+12.00,+13.00,+16.00,+57.00,+33.00,-54.00,-51.00,-39.00,-18.00,-17.00,-39.00,-88.00
+1.00,+17.00,-30.00,-4.00,-8.00,-9.00,-10.00,-29.00,-11.00,-35.00,-15.00,-13.00,-6.00,-10.00,-1.00,+13.00
+4.00,-128.00,-87.00,-22.00,-21.00,-21.00,-27.00,-22.00,+44.00,+127.00,+31.00,+11.00,-1.00,+0.00,+2.00,+38.00
-18.00,-34.00,+54.00,+7.00,+14.00,+13.00,+18.00,+22.00,+65.00,+108.00,-48.00,-12.00,-4.00,-1.00,+0.00,+48.00
-2.00,+91.00,+52.00,+1.00,-7.00,+6.00,+4.00,+24.00,-14.00,-91.00,+0.00,+2.00,+1.00,-4.00,-7.00,-42.00
-3.00,-65.00,-27.00,-28.00,-18.00,-34.00,-28.00,-42.00,-12.00,-33.00,-48.00,-14.00,-5.00,-7.00,-2.00,+19.00
+7.00,+35.00,+78.00,+39.00,+29.00,+23.00,+24.00,+40.00,-56.00,-27.00,+5.00,-6.00,-3.00,-2.00,-13.00,-30.00
-1.00,-61.00,-6.00,-7.00,-3.00,+3.00,+3.00,-12.00,+48.00,+24.00,-5.00,+0.00,-4.00,-7.00,-4.00,-13.00
+4.00,-4.00,-42.00,-28.00,-18.00,-16.00,-5.00,+51.00,-45.00,+12.00,+10.00,+4.00,+4.00,+4.00,+2.00,+24.00
+7.00,+54.00,+23.00,+4.00,+9.00,+8.00,+3.00,+10.00,+51.00,+89.00,+1.00,+4.00,-2.00,+1.00,+5.00,+23.00
-3.00,+115.00,+9.00,+1.00,-8.00,-5.00,+1.00,+105.00,-25.00,-39.00,-30.00,-18.00,-10.00,-3.00,-1.00,-12.00
+27.00,+127.00,+49.00,+23.00,+21.00,+15.00,+16.00,-22.00,-101.00,+17.00,+4.00,-10.00,+1.00,-3.00,-1.00,+36.00
-4.00,-124.00,-28.00,-21.00,-20.00,-23.00,-23.00,-46.00,+46.00,-41.00,+44.00,+20.00,+9.00,+10.00,+11.00,-18.00
+1.00,+78.00,+2.00,+5.00,+3.00,+11.00,+7.00,+4.00,-29.00,-42.00,+1.00,+0.00,-5.00,+1.00,+9.00,-42.00
-5.00,-72.00,-14.00,+13.00,+10.00,+13.00,+17.00,+50.00,+29.00,+0.00,-12.00,+1.00,+2.00,+3.00,+5.00,-11.00
+2.00,+29.00,+29.00,-15.00,-13.00,-12.00,-14.00,-1.00,+26.00,-27.00,-11.00,-6.00,-7.00,-9.00,-14.00,-19.00
-13.00,+47.00,-29.00,-13.00,-9.00,-6.00,-4.00,-9.00,+7.00,-93.00,-18.00,-13.00,-9.00,-5.00,-6.00,-23.00
+0.00,-110.00,-43.00,-11.00,-13.00,-13.00,-15.00,-15.00,-3.00,+66.00,+10.00,+7.00,+1.00,-14.00,+0.00,+7.00
-2.00,+87.00,+57.00,+39.00,+28.00,+25.00,+28.00,+7.00,+6.00,-20.00,-10.00,-2.00,+4.00,+22.00,-4.00,+1.00
-6.00,-105.00,+17.00,-6.00,-13.00,-13.00,-14.00,-19.00,-114.00,-63.00,-24.00,-12.00,-8.00,-7.00,-12.00,-48.00
+13.00,-71.00,-65.00,-36.00,-15.00,-13.00,-8.00,-7.00,+86.00,+127.00,+19.00,-2.00,+2.00,+4.00,+14.00,+54.00
-7.00,+24.00,+68.00,+20.00,+13.00,+7.00,+10.00,+6.00,-76.00,-68.00,+46.00,+21.00,+4.00,+3.00,-11.00,-50.00
-2.00,-23.00,+17.00,+9.00,+3.00,+0.00,-3.00,-20.00,+70.00,+54.00,+28.00,+11.00,+7.00,+6.00,+35.00,+88.00
+17.00,+22.00,-33.00,+3.00,+5.00,+8.00,+13.00,+26.00,+6.00,-90.00,+24.00,+6.00,+3.00,+0.00,+1.00,-1.00
+1.00,-18.00,-12.00,-2.00,-6.00,-10.00,-6.00,+4.00,+43.00,-16.00,-48.00,-10.00,-11.00,-7.00,-17.00,-68.00
+10.00,+45.00,+65.00,+5.00,+7.00,+9.00,+6.00,+10.00,-59.00,-93.00,-60.00,-21.00,-10.00,-15.00,-21.00,-50.00
+1.00,+22.00,-12.00,-14.00,-12.00,-9.00,-4.00,-9.00,-39.00,+127.00,+22.00,+4.00,-1.00,-1.00,+5.00,-17.00
+4.00,-18.00,-3.00,-9.00,-4.00,-6.00,-4.00,-17.00,-7.00,-72.00,+5.00,+7.00,+3.00,+7.00,+8.00,-1.00
+1.00,-8.00,+1.00,-3.00,+0.00,+2.00,+1.00,-9.00,+28.00,+66.00,+13.00,+6.00,+4.00,+3.00,+13.00,+66.00
-4.00,-88.00,-17.00,+15.00,+6.00,+7.00,+6.00,+3.00,-5.00,+11.00,+3.00,+0.00,-3.00,+1.00,-3.00,-16.00
+7.00,-47.00,-38.00,-23.00,-9.00,-5.00,-11.00,-34.00,+61.00,-57.00,-8.00,+5.00,+9.00,+1.00,+9.00,+58.00
+16.00,+5.00,+15.00,+17.00,+13.00,+15.00,+20.00,+27.00,+6.00,-49.00,-25.00,-12.00,-9.00,-7.00,-8.00,+0.00
-7.00,-58.00,-13.00,+9.00,+7.00,-4.00,-1.00,-5.00,-5.00,+18.00,+5.00,+6.00,+2.00,+1.00,-9.00,-29.00
-6.00,-51.00,-44.00,-11.00,-6.00,+0.00,-7.00,-74.00,+0.00,-14.00,-3.00,-4.00,-4.00,-13.00,+15.00,+20.00
-7.00,-57.00,+19.00,+4.00,+3.00,+4.00,+8.00,+34.00,+30.00,+34.00,-4.00,-1.00,+0.00,+9.00,-19.00,-1.00
-8.00,-73.00,-63.00,-14.00,-13.00,-11.00,-14.00,+7.00,-95.00,-1.00,-46.00,-19.00,-11.00,-13.00,-18.00,-24.00
-2.00,+25.00,-1.00,+2.00,+0.00,-1.00,+0.00,-12.00,+13.00,+15.00,+0.00,+14.00,+8.00,+12.00,+24.00,+76.00
+3.00,-15.00,+15.00,+6.00,+2.00,+3.00,+5.00,+15.00,+5.00,+30.00,+30.00,+3.00,+1.00,+4.00,-7.00,+5.00
-4.00,+45.00,-12.00,-10.00,-10.00,-5.00,-7.00,-18.00,-39.00,+17.00,-22.00,-15.00,-12.00,-18.00,-5.00,-28.00
-12.00,-36.00,-13.00,-9.00,-10.00,-13.00,-17.00,-12.00,+77.00,-7.00,+19.00,+14.00,+4.00,+3.00,+6.00,-16.00
+9.00,+66.00,+18.00,+0.00,+1.00,+5.00,+2.00,-31.00,-19.00,-56.00,-10.00,-3.00,+0.00,+2.00,-4.00,-37.00
-15.00,+5.00,+0.00,-3.00,-2.00,-5.00,-3.00,+16.00,+85.00,+12.00,-16.00,-7.00,-3.00,-2.00,+2.00,+25.00
+5.00,-63.00,+19.00,+7.00,+11.00,+14.00,+10.00,-17.00,+19.00,+9.00,-5.00,-3.00,+0.00,-16.00,-3.00,-34.00
-7.00,-42.00,-57.00,-10.00,-4.00,-5.00,+0.00,+11.00,+51.00,-19.00,-2.00,-2.00,+0.00,+8.00,+12.00,+24.00
+0.00,-38.00,-2.00,+3.00,-2.00,-3.00,-11.00,+1.00,-74.00,+62.00,+8.00,+3.00,+1.00,-2.00,+15.00,+32.00
+1.00,-46.00,+10.00,+2.00,-7.00,-5.00,-5.00,+7.00,+9.00,+25.00,+23.00,+11.00,+5.00,+7.00,+16.00,+14.00
-9.00,+37.00,+28.00,+12.00,+2.00,-5.00,+1.00,+0.00,-41.00,-22.00,+5.00,+1.00,-5.00,-2.00,-19.00,-34.00
-15.00,+7.00,-7.00,+1.00,-4.00,-3.00,-7.00,-26.00,-42.00,+28.00,-26.00,-6.00,+5.00,+38.00,-27.00,-7.00
+3.00,-69.00,-25.00,+2.00,+1.00,+2.00,-3.00,-14.00,+69.00,+33.00,+3.00,-4.00,-4.00,-2.00,-4.00,-1.00
+0.00,+13.00,-24.00,-7.00,+4.00,+3.00,+3.00,-8.00,-33.00,+29.00,-3.00,+8.00,+6.00,+4.00,+5.00,+22.00
+11.00,+63.00,+35.00,+5.00,+4.00,-1.00,+12.00,+23.00,+77.00,+8.00,+19.00,+11.00,+7.00,+0.00,+22.00,+52.00
-11.00,-11.00,-16.00,-5.00,-3.00,+3.00,-9.00,-26.00,-30.00,+8.00,-13.00,-13.00,-12.00,-26.00,-17.00,-79.00
+4.00,+31.00,-2.00,-7.00,-3.00,-7.00,+4.00,+21.00,-36.00,-79.00,-19.00,-13.00,-5.00,+2.00,-10.00,-9.00
-1.00,+27.00,+5.00,-6.00,-7.00,-5.00,+0.00,+18.00,+4.00,+29.00,-7.00,-5.00,-3.00,-2.00,-6.00,-9.00
-3.00,-44.00,-11.00,-5.00,-7.00,-12.00,-31.00,-28.00,-29.00,+1.00,-6.00,-6.00,-5.00,-4.00,-2.00,-5.00
+13.00,+45.00,-1.00,-2.00,+4.00,+4.00,+9.00,+8.00,+28.00,+1.00,+23.00,+12.00,+2.00,-10.00,+11.00,+15.00
-11.00,-71.00,+2.00,-1.00,+3.00,+8.00,+0.00,-2.00,-9.00,-19.00,-4.00,-4.00,-1.00,+14.00,+0.00,-19.00
-3.00,+69.00,+19.00,+2.00,+2.00,+0.00,+4.00,+30.00,-21.00,-4.00,-3.00,+0.00,+0.00,-6.00,-19.00,+33.00
+6.00,-62.00,-26.00,-9.00,-8.00,-4.00,+0.00,+32.00,+33.00,-70.00,-24.00,-12.00,-7.00,-1.00,-4.00,-40.00
-9.00,-36.00,+4.00,+4.00,+1.00,-6.00,-8.00,-16.00,+77.00,+60.00,+20.00,+9.00,+10.00,+3.00,+15.00,+10.00
-9.00,+5.00,+5.00,-1.00,+0.00,-2.00,-15.00,-4.00,-106.00,-121.00,+2.00,+2.00,-1.00,-11.00,-13.00,-49.00
+6.00,-60.00,-23.00,-8.00,-7.00,-3.00,+9.00,+17.00,+80.00,-29.00,+5.00,+9.00,+7.00,+12.00,+24.00,+86.00
-5.00,+1.00,-8.00,-4.00,+3.00,+3.00,-1.00,+12.00,-52.00,+50.00,+6.00,+4.00,-1.00,+1.00,-5.00,+37.00
+1.00,-19.00,-20.00,-12.00,-17.00,-13.00,-13.00,-48.00,+37.00,+12.00,+3.00,+0.00,-6.00,-16.00,+14.00,+14.00
-1.00,+98.00,+24.00,+5.00,+0.00,+3.00,+18.00,+31.00,+5.00,+44.00,-9.00,-3.00,-3.00,-9.00,-45.00,-17.00
-2.00,+4.00,+20.00,+14.00,+13.00,+14.00,+4.00,-3.00,-7.00,-27.00,-3.00,-1.00,+1.00,+13.00,+23.00,-25.00
+2.00,-17.00,-2.00,+1.00,+3.00,+7.00,+8.00,-8.00,-44.00,-78.00,-13.00,-9.00,-3.00,-4.00,-4.00,-7.00
+10.00,+32.00,+3.00,+1.00,-3.00,-9.00,-11.00,+17.00,+30.00,+33.00,+13.00,+8.00,+4.00,+1.00,-3.00,-5.00
-4.00,-80.00,-19.00,-14.00,-12.00,-15.00,-21.00,-18.00,+4.00,+61.00,+13.00,+2.00,-9.00,-7.00,+16.00,+16.00
+10.00,+56.00,+28.00,+5.00,+9.00,+6.00,+7.00,+0.00,+7.00,-21.00,-8.00,-11.00,+3.00,-8.00,-16.00,-12.00
-1.00,+2.00,+14.00,+1.00,+9.00,+17.00,+20.00,-16.00,+20.00,+7.00,+2.00,+5.00,+12.00,+6.00,+5.00,-15.00
-3.00,-72.00,-12.00,+2.00,+4.00,+1.00,+6.00,+5.00,+9.00,-34.00,-9.00,-6.00,-4.00,-5.00,-9.00,-17.00
+4.00,-33.00,-22.00,-14.00,-11.00,-7.00,-6.00,-2.00,+9.00,+88.00,-1.00,+1.00,+3.00,-6.00,-5.00,+19.00
-2.00,+35.00,+10.00,+5.00,+1.00,-2.00,-6.00,+10.00,+13.00,-14.00,+15.00,+11.00,+15.00,+10.00,+15.00,+28.00
+0.00,-61.00,-18.00,-4.00,-4.00,-4.00,+1.00,-4.00,-14.00,+12.00,+1.00,-1.00,-19.00,+4.00,+21.00,+1.00
-7.00,+29.00,+16.00,+7.00,+1.00,-1.00,-15.00,-51.00,-7.00,-23.00,+8.00,+6.00,+10.00,-6.00,-5.00,+9.00
+4.00,+41.00,+12.00,+3.00,+3.00,+0.00,-3.00,+3.00,+25.00,-44.00,-14.00,-6.00,+10.00,+4.00,-10.00,+9.00
-9.00,-65.00,-24.00,-7.00,-6.00,-2.00,+11.00,+40.00,-39.00,+11.00,-12.00,-12.00,-16.00,-3.00,-10.00,-70.00
+1.00,+54.00,-12.00,-5.00,-9.00,-12.00,-15.00,+2.00,-2.00,-40.00,-5.00,-1.00,+7.00,+4.00,-9.00,-46.00
-5.00,+12.00,-10.00,+3.00,+3.00,+2.00,+19.00,+22.00,+5.00,+29.00,+9.00,+4.00,-1.00,+5.00,+26.00,+70.00
-5.00,+120.00,+54.00,+17.00,+8.00,+9.00,+7.00,+18.00,-38.00,-21.00,+5.00,+1.00,-6.00,-16.00,-7.00,+7.00
+4.00,-77.00,-16.00,+0.00,-3.00,+0.00,-2.00,-30.00,-66.00,+12.00,+1.00,+6.00,-1.00,+1.00,-2.00,+2.00
-7.00,-58.00,-6.00,-2.00,+1.00,-10.00,-4.00,-13.00,-61.00,-31.00,-1.00,-14.00,-2.00,-2.00,-15.00,-25.00
-2.00,+8.00,+5.00,+1.00,+4.00,+11.00,+5.00,+20.00,-28.00,-13.00,-9.00,-10.00,-44.00,-12.00,-4.00,-39.00
+5.00,-21.00,-23.00,-9.00,-1.00,-5.00,-14.00,+16.00,-20.00,-14.00,-7.00,-2.00,+8.00,+1.00,+9.00,-13.00
+1.00,+39.00,+1.00,-3.00,-3.00,-3.00,-12.00,-58.00,-74.00,-5.00,+1.00,+3.00,+6.00,+5.00,-8.00,-1.00
-1.00,+15.00,-1.00,-6.00,-7.00,-5.00,+1.00,+4.00,-29.00,+14.00,+2.00,+8.00,+13.00,-4.00,-7.00,+5.00
+7.00,+1.00,+21.00,+1.00,+2.00,-1.00,-2.00,-2.00,-79.00,-17.00,-2.00,-4.00,+18.00,+5.00,+15.00,+11.00
-5.00,+10.00,-15.00,-9.00,-1.00,+6.00,-3.00,-56.00,+17.00,+3.00,+8.00,+9.00,-8.00,+6.00,+4.00,+9.00
+2.00,+20.00,-9.00,-2.00,-8.00,-27.00,-23.00,-8.00,+52.00,-25.00,-9.00,-14.00,+4.00,-10.00,-8.00,-12.00
-7.00,-14.00,+2.00,+6.00,+4.00,+21.00,+13.00,+6.00,+15.00,+6.00,-14.00,-15.00,-7.00,-9.00,-3.00,+3.00
-9.00,-66.00,-21.00,-18.00,-15.00,-12.00,+1.00,+36.00,-97.00,-30.00,+5.00,+8.00,+6.00,+13.00,+12.00,+14.00
+7.00,+96.00,+20.00,+13.00,+6.00,+12.00,+25.00,+23.00,-99.00,+15.00,-1.00,-1.00,-6.00,-4.00,-10.00,-87.00
-6.00,-29.00,+0.00,+0.00,+2.00,+3.00,-15.00,+5.00,-118.00,-11.00,-7.00,-1.00,-7.00,-7.00,-12.00,-72.00
+5.00,-86.00,-7.00,-3.00,-1.00,-14.00,-6.00,-55.00,-39.00,-30.00,+8.00,+8.00,+1.00,+8.00,+23.00,+39.00
-5.00,-2.00,+20.00,+9.00,+5.00,+10.00,+10.00,+21.00,+89.00,+28.00,+6.00,+1.00,-11.00,+3.00,-5.00,-7.00
+3.00,-79.00,-15.00,-6.00,-5.00,-2.00,-10.00,-14.00,+64.00,-1.00,-3.00,-1.00,+11.00,+0.00,+8.00,+7.00
-2.00,-46.00,-10.00,-4.00,+0.00,+0.00,+2.00,+22.00,+100.00,-1.00,+11.00,+3.00,-47.00,-20.00,+8.00,+0.00
-2.00,+84.00,+26.00,+8.00,+3.00,-1.00,-3.00,+17.00,+94.00,+18.00,-11.00,-8.00,-16.00,+18.00,-33.00,-19.00
+2.00,-60.00,-11.00,-7.00,+1.00,+3.00,+5.00,-10.00,+67.00,-18.00,-13.00,-10.00,+11.00,-1.00,-8.00,-15.00
+3.00,+27.00,+5.00,-1.00,+1.00,-3.00,+4.00,-7.00,+35.00,-30.00,-9.00,-17.00,+8.00,-12.00,+5.00,-24.00
-2.00,+7.00,-2.00,-5.00,-2.00,+10.00,+8.00,-6.00,+64.00,+8.00,-5.00,-5.00,+1.00,+15.00,+1.00,+7.00
-3.00,-3.00,-7.00,+0.00,-10.00,-11.00,-1.00,+26.00,+31.00,+3.00,+13.00,+17.00,+39.00,-1.00,+18.00,+11.00
+5.00,+28.00,+8.00,+6.00,+8.00,+1.00,-6.00,-3.00,+28.00,+9.00,+7.00,+5.00,+17.00,-8.00,-9.00,+4.00
-3.00,-50.00,-7.00,+2.00,+1.00,-8.00,-2.00,+16.00,+16.00,-5.00,-1.00,+4.00,-61.00,-9.00,-6.00,+24.00
-4.00,+1.00,+4.00,-4.00,-4.00,-10.00,-17.00,+14.00,+26.00,+0.00,+0.00,+3.00,+1.00,+19.00,-3.00,-3.00
-1.00,-28.00,-2.00,+6.00,+5.00,+1.00,+28.00,+7.00,+15.00,+14.00,+5.00,+6.00,+7.00,+34.00,+12.00,+4.00
+2.00,+22.00,-1.00,-13.00,-3.00,+5.00,+5.00,-1.00,-25.00,-5.00,-2.00,+2.00,+12.00,+5.00,-2.00,+0.00
-3.00,+29.00,+11.00,+15.00,+1.00,+1.00,+8.00,+3.00,-23.00,-21.00,+2.00,-4.00,-6.00,-5.00,+4.00,-7.00
-3.00,+9.00,-12.00,-28.00,-2.00,+8.00,+1.00,-10.00,-53.00,-14.00,-14.00,-15.00,+1.00,-18.00,-19.00,-8.00
-1.00,-99.00,-20.00,-6.00,-14.00,-23.00,-25.00,-25.00,+79.00,+68.00,-7.00,-11.00,-25.00,-11.00,-4.00,+37.00
-9.00,+101.00,+36.00,+22.00,+9.00,+0.00,+4.00,-5.00,-42.00,+41.00,-10.00,-7.00,+4.00,+5.00,+9.00,-54.00
-1.00,-50.00,-12.00,-13.00,-3.00,-2.00,+0.00,+16.00,+41.00,+58.00,+2.00,+0.00,+4.00,+2.00,-5.00,+3.00
+3.00,+79.00,+8.00,+9.00,-2.00,-7.00,-9.00,-15.00,+89.00,-52.00,+9.00,+8.00,+1.00,+0.00,+18.00,+1.00
-4.00,-15.00,-13.00,-3.00,+1.00,+14.00,+3.00,+50.00,+26.00,-17.00,+6.00,+5.00,+21.00,-13.00,-12.00,-40.00
-4.00,-32.00,+1.00,+3.00,-2.00,-4.00,+0.00,+7.00,+47.00,+1.00,+8.00,+1.00,-19.00,-8.00,-33.00,+0.00
-5.00,-29.00,+7.00,-9.00,+0.00,+11.00,-5.00,+7.00,+58.00,-17.00,-8.00,-3.00,+7.00,+0.00,+25.00,+8.00
-3.00,-28.00,-12.00,-11.00,-4.00,-13.00,+2.00,-8.00,-47.00,+3.00,-10.00,-19.00,+30.00,-4.00,-8.00,-19.00
+4.00,+14.00,-6.00,-7.00,+6.00,+4.00,-10.00,+6.00,-41.00,+0.00,-4.00,+8.00,-17.00,-9.00,+8.00,+2.00
-1.00,-6.00,-7.00,+5.00,-6.00,+3.00,-9.00,-23.00,-31.00,-33.00,-4.00,+0.00,+2.00,+6.00,-7.00,-6.00
-3.00,-14.00,+0.00,-7.00,-1.00,-18.00,-10.00,-66.00,+12.00,-20.00,-3.00,-6.00,-12.00,+2.00,-34.00,+7.00
+5.00,-29.00,-3.00,+0.00,-3.00,-26.00,-2.00,+7.00,+56.00,+19.00,+4.00,+17.00,-16.00,+15.00,+32.00,+27.00
-2.00,+13.00,+13.00,-3.00,+6.00,+36.00,+4.00,-24.00,-17.00,-25.00,-1.00,-3.00,-19.00,-25.00,-8.00,-13.00
-5.00,-4.00,-2.00,-11.00,-5.00,-16.00,+21.00,-62.00,+21.00,+5.00,+0.00,-2.00,-21.00,+0.00,+0.00,+18.00
-2.00,-19.00,-3.00,-27.00,-8.00,-12.00,+8.00,+2.00,-7.00,-4.00,+6.00,+11.00,-19.00,+17.00,+8.00,+5.00
+1.00,+15.00,+5.00,-31.00,+8.00,-3.00,+5.00,+4.00,-11.00,+20.00,-3.00,-10.00,+5.00,-7.00,-2.00,+23.00
-2.00,+43.00,+9.00,-18.00,+6.00,+8.00,-18.00,-18.00,-10.00,+2.00,-2.00,-6.00,-16.00,-5.00,+1.00,+1.00
-3.00,+27.00,-6.00,-12.00,+5.00,+3.00,-7.00,+8.00,-11.00,-14.00,-7.00,-1.00,+13.00,+2.00,-3.00,+1.00
+0.00,+63.00,+2.00,-12.00,-3.00,+0.00,-2.00,+10.00,-15.00,-21.00,-6.00,-10.00,+16.00,-13.00,+3.00,-4.00
-10.00,-33.00,-15.00,+16.00,-14.00,-7.00,-4.00,-10.00,-14.00,-3.00,-2.00,-2.00,-14.00,-4.00,-14.00,+53.00
+0.00,+5.00,+1.00,+18.00,-3.00,-13.00,+9.00,+2.00,-53.00,+6.00,+4.00,+5.00,+11.00,+3.00,-7.00,-1.00
+5.00,+31.00,-16.00,-11.00,-8.00,+0.00,-9.00,+21.00,+32.00,-31.00,-5.00,-9.00,+4.00,-12.00,+0.00,-29.00
+3.00,-55.00,-8.00,-14.00,+0.00,-7.00,+2.00,+27.00,-66.00,-12.00,-4.00,-1.00,+8.00,+4.00,+9.00,+14.00
-6.00,+44.00,+23.00,-87.00,+8.00,+24.00,+11.00,-6.00,-7.00,+30.00,+4.00,+6.00,-2.00,+0.00,-2.00,+5.00
+2.00,-37.00,+7.00,-68.00,+2.00,-2.00,-5.00,-4.00,+10.00,-24.00,-3.00,-4.00,+19.00,+3.00,-1.00,+5.00
-6.00,-85.00,+0.00,-19.00,+4.00,-1.00,+0.00,+5.00,+0.00,+2.00,+0.00,-4.00,-29.00,-7.00,+0.00,+3.00
-1.00,-50.00,-13.00,+13.00,-2.00,+9.00,-10.00,+0.00,-9.00,-15.00,-2.00,+2.00,+7.00,+1.00,-11.00,+9.00
+2.00,-24.00,-7.00,+64.00,-5.00,-33.00,-13.00,+7.00,-5.00,-17.00,-7.00,+0.00,+7.00,-3.00,-9.00,-26.00
-1.00,-3.00,-4.00,+67.00,+6.00,+14.00,+16.00,+21.00,+11.00,+31.00,-1.00,-2.00,+0.00,-5.00,-6.00,+25.00
-3.00,-9.00,+0.00,+36.00,-4.00,+5.00,-18.00,-28.00,-10.00,-4.00,+3.00,+2.00,+46.00,-17.00,+31.00,+6.00
-3.00,+4.00,-1.00,+40.00,-7.00,-49.00,+12.00,-9.00,+19.00,+12.00,+0.00,+5.00,+10.00,+9.00,-43.00,-5.00
+1.00,-13.00,+0.00,+51.00,+3.00,+81.00,-17.00,-7.00,-13.00,+6.00,+7.00,-17.00,-75.00,-4.00,-7.00,-14.00
-1.00,+10.00,+2.00,+18.00,+1.00,-2.00,-3.00,-10.00,-7.00,-16.00,-6.00,+5.00,+47.00,-14.00,-16.00,-15.00
+1.00,+3.00,+1.00,+7.00,-9.00,-37.00,-2.00,+8.00,-25.00,+5.00,-5.00,+15.00,-29.00,+19.00,-18.00,+6.00
-3.00,+21.00,+9.00,+21.00,+15.00,+55.00,-16.00,+9.00,-9.00,+4.00,+0.00,-4.00,+17.00,-14.00,+38.00,+19.00
+2.00,+11.00,-8.00,+2.00,-3.00,-20.00,+3.00,+0.00,-51.00,+3.00,-4.00,+2.00,+25.00,+10.00,-7.00,-11.00
-2.00,+5.00,-9.00,+5.00,-3.00,-18.00,-3.00,-10.00,-122.00,-57.00,-13.00,-16.00,-37.00,-6.00,+1.00,-9.00
+0.00,+9.00,+1.00,+0.00,-1.00,+23.00,-9.00,+1.00,+78.00,+78.00,+30.00,+6.00,+3.00,-1.00,+12.00,+76.00
-5.00,+21.00,-4.00,-7.00,-5.00,-9.00,+10.00,+2.00,+10.00,-18.00,-11.00,-2.00,+1.00,-3.00,-12.00,-39.00
-2.00,+84.00,+11.00,+3.00,-2.00,-17.00,+2.00,-5.00,+51.00,+25.00,+11.00,+10.00,+3.00,+9.00,+12.00,+95.00
-3.00,+5.00,+0.00,+0.00,-1.00,+16.00,+9.00,+41.00,-60.00,-26.00,-2.00,-4.00,-12.00,-2.00,+4.00,-49.00
-3.00,+5.00,-3.00,-4.00,-2.00,-14.00,-7.00,+17.00,-36.00,+36.00,+3.00,-2.00,+12.00,+6.00,+0.00,+7.00
+4.00,-9.00,+1.00,-6.00,+2.00,-4.00,+4.00,+63.00,-5.00,-4.00,+0.00,-1.00,-5.00,+3.00,+1.00,-2.00
+2.00,-61.00,+2.00,+12.00,+5.00,+14.00,+12.00,+6.00,+99.00,-6.00,-8.00,-5.00,+8.00,-12.00,-26.00,-36.00
-5.00,+12.00,+6.00,-6.00,-6.00,-10.00,-11.00,+1.00,+102.00,-1.00,-2.00,-2.00,-19.00,-17.00,+24.00,+0.00
+3.00,-16.00,+1.00,-1.00,+1.00,+5.00,+2.00,+9.00,-21.00,-36.00,-8.00,+2.00,+15.00,+21.00,-15.00,-33.00
+3.00,-7.00,-4.00,-4.00,+2.00,+0.00,-1.00,-19.00,-75.00,+6.00,+4.00,-3.00,-1.00,+1.00,+7.00,-5.00
-3.00,-30.00,-5.00,+2.00,-1.00,+10.00,+5.00,+25.00,-128.00,-20.00,-4.00,+0.00,+10.00,-8.00,-8.00,-17.00
+0.00,-1.00,-4.00,-4.00,-6.00,-12.00,-26.00,-20.00,-3.00,+12.00,+5.00,+1.00,+86.00,-1.00,-6.00,-7.00
+2.00,+2.00,+1.00,-5.00,-3.00,+3.00,+34.00,+15.00,+30.00,-16.00,-8.00,-16.00,-92.00,+1.00,+4.00,-1.00
-3.00,-5.00,+7.00,+9.00,+1.00,-5.00,-12.00,-10.00,+38.00,+12.00,+5.00,+17.00,-46.00,-7.00,+5.00,+19.00
+2.00,-9.00,-7.00,-12.00,+9.00,+2.00,+3.00,-5.00,+2.00,-3.00,-1.00,+5.00,+34.00,+13.00,-3.00,-10.00
-3.00,-11.00,+1.00,+0.00,-7.00,+0.00,+1.00,-24.00,+26.00,+8.00,+2.00,+6.00,-7.00,+4.00,+7.00,-1.00
-3.00,+10.00,-2.00,+1.00,+6.00,-2.00,-12.00,-3.00,+8.00,-9.00,-4.00,-3.00,+18.00,-22.00,-37.00,+3.00
-3.00,-3.00,-2.00,+0.00,-7.00,+19.00,+11.00,-12.00,-6.00,-11.00,-5.00,-11.00,+12.00,+15.00,+0.00,+6.00
+0.00,-4.00,-1.00,+3.00,-7.00,-20.00,-4.00,+4.00,+2.00,-3.00,-4.00,-4.00,-25.00,-9.00,+4.00,-16.00
-1.00,+29.00,-4.00,-14.00,-6.00,-10.00,-4.00,+10.00,+7.00,+13.00,+5.00,-3.00,-14.00,+6.00,-6.00,+8.00
+3.00,-56.00,+1.00,+11.00,+10.00,+13.00,+12.00,+6.00,-45.00,-37.00,-6.00,+1.00,+9.00,-7.00,-1.00,-22.00
-4.00,+20.00,-3.00,-17.00,-7.00,-11.00,-7.00,-26.00,+43.00,+40.00,+7.00,+0.00,-2.00,-1.00,+8.00,+18.00
-2.00,+1.00,+2.00,+9.00,+4.00,+7.00,+11.00,+37.00,+7.00,-2.00,-8.00,-8.00,+3.00,-5.00,-8.00,-25.00
-4.00,+19.00,-2.00,-12.00,-6.00,-3.00,-6.00,-41.00,+52.00,+17.00,+2.00,+3.00,-13.00,+5.00,+6.00,+15.00
-3.00,-20.00,-3.00,+5.00,+0.00,+2.00,+2.00,+4.00,-2.00,-21.00,-4.00,+2.00,+3.00,-14.00,+0.00,-9.00
-4.00,-31.00,-8.00,-3.00,-6.00,-24.00,-25.00,+3.00,+32.00,+6.00,+2.00,+5.00,+7.00,+10.00,-5.00,-13.00
+1.00,+42.00,+3.00,+3.00,-2.00,+19.00,-13.00,+1.00,+20.00,+5.00,+2.00,+1.00,+14.00,-3.00,+12.00,+0.00
+2.00,-10.00,+1.00,+2.00,+3.00,+14.00,+30.00,+5.00,-26.00,-22.00,-11.00,-8.00,-18.00,-3.00,-13.00,-11.00
-5.00,+31.00,+0.00,-11.00,-5.00,-16.00,-21.00,-34.00,-15.00,+16.00,+8.00,+8.00,-3.00,+3.00,+7.00,+7.00
+1.00,-9.00,+1.00,+1.00,+5.00,+7.00,+9.00,+3.00,-58.00,-40.00,-11.00,-7.00,+7.00,-9.00,-9.00,-26.00
-1.00,-8.00,-5.00,-7.00,-6.00,-9.00,-8.00,-13.00,-24.00,+32.00,+6.00,+0.00,+2.00,+0.00,+3.00,+10.00
-4.00,-16.00,-2.00,-2.00,+0.00,+11.00,-3.00,-29.00,-55.00,+3.00,+4.00,+3.00,-16.00,+7.00,+6.00,+16.00
-1.00,+11.00,+4.00,-1.00,+0.00,-48.00,-14.00,-3.00,+38.00,+18.00,+6.00,+2.00,+3.00,+1.00,+7.00,+23.00
+6.00,+2.00,-3.00,+5.00,+11.00,+33.00,+20.00,-2.00,-37.00,-13.00,+1.00,-2.00,+6.00,-4.00,+3.00,-1.00
-5.00,-17.00,-3.00,-2.00,-1.00,-6.00,-6.00,-24.00,-53.00,-22.00,-7.00,-4.00,-4.00,-3.00,-1.00,-14.00
-3.00,-5.00,+2.00,+2.00,+4.00,+2.00,+5.00,+8.00,-25.00,-4.00,-1.00,-3.00,-11.00,-3.00,-5.00,-9.00
+3.00,+4.00,+1.00,-2.00,-1.00,+12.00,-1.00,+5.00,-15.00,-13.00,-7.00,-4.00,+9.00,+0.00,+1.00,-16.00
+1.00,+4.00,+0.00,-3.00,-6.00,-13.00,-2.00,-6.00,+7.00,+2.00,+1.00,-3.00,+4.00,-2.00,+2.00,+10.00
+2.00,-3.00,-7.00,+0.00,-6.00,-8.00,+8.00,-2.00,+30.00,-5.00,-1.00,+0.00,-9.00,-4.00,-4.00,-16.00
-2.00,+0.00,-2.00,-2.00,-2.00,-3.00,-3.00,-3.00,+44.00,+13.00,+2.00,+1.00,-3.00,+3.00,-1.00,+4.00
-1.00,+25.00,+1.00,-10.00,-3.00,+2.00,-4.00,+5.00,-4.00,-5.00,+0.00,-2.00,+2.00,+1.00,+2.00,+12.00
-1.00,+1.00,+1.00,+5.00,-4.00,-3.00,+3.00,-3.00,+7.00,-6.00,-4.00,-1.00,-4.00,-5.00,-1.00,-2.00
-1.00,-10.00,-5.00,-3.00,-5.00,-7.00,-1.00,-14.00,+13.00,-4.00,-3.00,+0.00,+1.00,-2.00,-2.00,+4.00
+4.00,-7.00,-1.00,+0.00,+3.00,+2.00,-3.00,+6.00,+23.00,+7.00,+0.00,+0.00,+4.00,+3.00,+0.00,+2.00
-2.00,-12.00,+1.00,-5.00,-3.00,+6.00,+4.00,-3.00,-4.00,-10.00,-3.00,-3.00,-7.00,-3.00,+0.00,-10.00
-5.00,+2.00,+1.00,-2.00,+3.00,+8.00,-10.00,+11.00,+47.00,+1.00,+5.00,-1.00,+31.00,-3.00,-3.00,+0.00
-4.00,-12.00,-1.00,-3.00,-3.00,+1.00,+7.00,+4.00,+120.00,+1.00,-5.00,+0.00,-17.00,-1.00,+3.00,+10.00
-3.00,+5.00,-1.00,-3.00,-3.00,-16.00,-6.00,+13.00,+65.00,+2.00,-6.00,-2.00,+11.00,-1.00,-3.00,+5.00
+1.00,-19.00,+2.00,-1.00,+5.00,+12.00,+10.00,+6.00,+2.00,-11.00,-6.00,-9.00,-9.00,+0.00,-6.00,-10.00
-3.00,+18.00,-2.00,-4.00,-4.00,-3.00,-2.00,-1.00,-52.00,-21.00,-2.00,-2.00,-1.00,-6.00,-3.00,-13.00
+0.00,-38.00,-1.00,+3.00,-1.00,-3.00,-3.00,-3.00,+25.00,+44.00,+13.00,+11.00,-13.00,-7.00,-1.00,+21.00
-3.00,-3.00,+1.00,+3.00,+2.00,-3.00,-1.00,+0.00,-40.00,+18.00,+2.00,+4.00,-7.00,+6.00,+11.00,+10.00
-2.00,-10.00,-5.00,-3.00,+0.00,+13.00,+4.00,-2.00,-38.00,+0.00,-1.00,+0.00,+10.00,+1.00,-3.00,-6.00
-1.00,+20.00,+3.00,-3.00,-1.00,-3.00,-2.00,+1.00,-83.00,-16.00,-7.00,-6.00,+4.00,-3.00,-3.00,-10.00
-2.00,+8.00,+0.00,-3.00,-1.00,-5.00,-2.00,+0.00,-49.00,-17.00,-5.00,-5.00,+2.00,-5.00,-7.00,-14.00
+2.00,+1.00,+1.00,-3.00,+0.00,-3.00,-2.00,+1.00,-25.00,+1.00,-1.00,-2.00,-13.00,-2.00,-5.00,-7.00
-3.00,-6.00,-8.00,-6.00,-8.00,-5.00,-5.00,+6.00,+5.00,+8.00,+8.00,+2.00,+11.00,-2.00,-2.00,-3.00
-1.00,-4.00,+0.00,-1.00,+0.00,-2.00,+0.00,-8.00,-10.00,+1.00,+2.00,-1.00,-11.00,-1.00,+6.00,+15.00
+0.00,+11.00,+0.00,+1.00,+2.00,+2.00,+4.00,-7.00,-37.00,-10.00,-12.00,-7.00,+1.00,+0.00,-2.00,-14.00
-2.00,-8.00,-1.00,-2.00,-2.00,-1.00,+0.00,-5.00,-7.00,-6.00,-1.00,-3.00,-1.00,-2.00,-3.00,+0.00
-4.00,+7.00,-1.00,+2.00,+3.00,+2.00,-4.00,-9.00,-63.00,-14.00,-5.00,-2.00,-3.00,+0.00,-3.00,-10.00
+5.00,-5.00,-3.00,-3.00,-2.00,-3.00,-2.00,-7.00,+30.00,+10.00,-1.00,+0.00,-11.00,-1.00,-2.00,+1.00
-7.00,+1.00,-2.00,-3.00,+1.00,+2.00,+0.00,-6.00,-19.00,-5.00,+3.00,+0.00,+6.00,+2.00,+0.00,+3.00
-2.00,-7.00,+1.00,+1.00,-1.00,-4.00,-3.00,-9.00,-29.00,-3.00,+1.00,+2.00,+4.00,-1.00,-2.00,-2.00
+0.00,+8.00,-1.00,-6.00,-5.00,+2.00,-3.00,-5.00,-23.00,-8.00,-2.00,-4.00,-3.00,-2.00,-1.00,-1.00
-6.00,-5.00,-4.00,-6.00,-3.00,+0.00,+0.00,-5.00,+11.00,+4.00,-3.00,+0.00,-14.00,-1.00,-2.00,-2.00
+0.00,+7.00,-1.00,+4.00,+5.00,+0.00,+4.00,-1.00,-74.00,-5.00,-1.00,-1.00,+5.00,+4.00,+2.00,-1.00
-3.00,-1.00,-2.00,+0.00,-2.00,+0.00,-3.00,-6.00,-48.00,-15.00,-6.00,-6.00,+4.00,-8.00,-5.00,-12.00
-2.00,+31.00,-2.00,-9.00,-7.00,-22.00,-2.00,-2.00,-13.00,+14.00,+4.00,+9.00,-9.00,-1.00,+4.00,+5.00
-1.00,+27.00,+1.00,-5.00,-5.00,-16.00,-3.00,+3.00,+29.00,+13.00,+4.00,+6.00,-5.00,+1.00,+2.00,+11.00
+0.00,-35.00,+0.00,+5.00,+7.00,+18.00,+5.00,-1.00,-12.00,-10.00,-2.00,-2.00,+1.00,+2.00,-1.00,-6.00
-4.00,-10.00,-2.00,-2.00,+2.00,+3.00,+4.00,+1.00,-4.00,-2.00,+4.00,-3.00,-5.00,-2.00,-5.00,-9.00
-1.00,+8.00,-2.00,-1.00,+0.00,+2.00,-2.00,-15.00,+28.00,-13.00,-9.00,-3.00,-6.00,-1.00,+0.00,+6.00
-1.00,-1.00,+1.00,-3.00,-5.00,-5.00,-2.00,-1.00,+31.00,+10.00,-6.00,-6.00,+10.00,-1.00,-2.00,+3.00
-2.00,+7.00,+2.00,-5.00,-3.00,-9.00,-5.00,+4.00,+75.00,+8.00,-1.00,+1.00,-1.00,-3.00,+0.00,+9.00
-5.00,+4.00,-3.00,-11.00,-2.00,-3.00,-1.00,+6.00,+21.00,-7.00,-2.00,-4.00,+20.00,+2.00,-1.00,-3.00
+2.00,-17.00,+0.00,+5.00,-3.00,+5.00,-1.00,+4.00,+37.00,-2.00,-2.00,-3.00,-25.00,-3.00,+1.00,-6.00
-1.00,+0.00,-3.00,+0.00,+0.00,+1.00,+2.00,-1.00,+16.00,-16.00,+0.00,+5.00,+7.00,-1.00,-2.00,-1.00
+2.00,+4.00,+0.00,+1.00,-2.00,-2.00,-1.00,-4.00,+3.00,+7.00,+3.00,-6.00,-22.00,-7.00,+0.00,-3.00
+2.00,-8.00,-2.00,+1.00,+0.00,+2.00,+1.00,+12.00,+20.00,+6.00,+1.00,+2.00,+6.00,+2.00,-1.00,+3.00
-3.00,-9.00,+0.00,-3.00,+1.00,+0.00,-2.00,+7.00,+18.00,+6.00,+1.00,-1.00,-6.00,-1.00,-2.00,+5.00
-2.00,-20.00,+0.00,+5.00,+4.00,+4.00,+0.00,-8.00,-3.00,-5.00,-2.00,-2.00,-2.00,-1.00,-2.00,-2.00
+2.00,+5.00,+3.00,-3.00,-2.00,-2.00,-2.00,-1.00,-19.00,-6.00,+7.00,+2.00,-9.00,+1.00,-2.00,-6.00
+0.00,+10.00,+0.00,-4.00,+0.00,-13.00,-4.00,-1.00,-11.00,-16.00,-12.00,-3.00,+8.00,-1.00,-2.00,-1.00
-1.00,+2.00,+0.00,-1.00,+0.00,+5.00,-2.00,-14.00,-17.00,+4.00,-4.00,-1.00,+8.00,-1.00,-1.00,+3.00
+0.00,-9.00,+0.00,-1.00,-2.00,+4.00,-1.00,+3.00,-19.00,+4.00,-2.00,-2.00,-13.00,-1.00,+0.00,-1.00
-2.00,+4.00,-3.00,-5.00,-5.00,-1.00,+0.00,+3.00,-4.00,-3.00,+5.00,+1.00,+20.00,+1.00,-1.00,-4.00
+0.00,+1.00,-3.00,-3.00,-2.00,-19.00,-4.00,-9.00,+14.00,-3.00,+0.00,-3.00,-21.00,+0.00,-1.00,+0.00
-2.00,+11.00,+2.00,+2.00,+9.00,+30.00,+6.00,+8.00,+31.00,-7.00,-11.00,-6.00,+5.00,-1.00,-2.00,-4.00
-1.00,-30.00,+4.00,+1.00,+4.00,+5.00,+3.00,-5.00,+29.00,+6.00,+0.00,-2.00,-4.00,-2.00,+0.00,-1.00
-2.00,+9.00,-4.00,-4.00,-6.00,-6.00,-5.00,-7.00,+28.00,-1.00,+0.00,+0.00,+10.00,+0.00,-1.00,-2.00
+1.00,-9.00,-4.00,-2.00,-4.00,+0.00,-4.00,-1.00,+55.00,+3.00,+2.00,+3.00,-10.00,-3.00,+1.00,+6.00
-2.00,+17.00,+1.00,-4.00,-3.00,-8.00,+0.00,+4.00,+42.00,-2.00,+2.00,+1.00,-3.00,-2.00,-1.00,-2.00
-5.00,-19.00,-9.00,-5.00,-2.00,+1.00,-2.00,+1.00,+9.00,+0.00,+1.00,+0.00,+10.00,-1.00,-1.00,+3.00
-4.00,-13.00,-1.00,+3.00,+2.00,+4.00,+2.00,+2.00,+9.00,-6.00,-2.00,-1.00,+0.00,-3.00,+0.00,-3.00
+0.00,+1.00,+2.00,+4.00,-2.00,+10.00,-1.00,-2.00,+30.00,+3.00,+2.00,-1.00,-12.00,+1.00,+0.00,+2.00
-2.00,+5.00,+2.00,+1.00,-1.00,-30.00,-3.00,+4.00,-3.00,+1.00,+1.00,-3.00,+11.00,+0.00,+0.00,-3.00
+2.00,+9.00,-2.00,-8.00,-4.00,-1.00,-2.00,-2.00,-10.00,+2.00,-5.00,-3.00,-4.00,+0.00,-1.00,-4.00
+2.00,-3.00,-2.00,+1.00,+8.00,+32.00,+4.00,+2.00,-19.00,-8.00,-4.00,-3.00,+3.00,+1.00,-1.00,-1.00
+2.00,-11.00,-1.00,+1.00,-1.00,+1.00,-1.00,-5.00,-11.00,-2.00,+0.00,-2.00,-8.00,-3.00,-3.00,-2.00
