+3.00,-2.00,+1.00,-2.00,-1.00,-1.00,+0.00,-1.00,-8.00,-2.00,-2.00,-2.00,-3.00,+6.00,+21.00,-4.00
+4.00,-5.00,-3.00,+3.00,+3.00,+1.00,-1.00,-1.00,+2.00,+2.00,-1.00,+0.00,-2.00,+2.00,-11.00,-7.00
-5.00,+6.00,+1.00,-6.00,+0.00,-1.00,+1.00,-1.00,-2.00,-2.00,+1.00,+2.00,+2.00,-4.00,+3.00,+3.00
-3.00,-3.00,-1.00,-3.00,-2.00,-4.00,-1.00,-3.00,-6.00,-1.00,-2.00,-1.00,+5.00,+0.00,-1.00,-3.00
-4.00,-3.00,-5.00,+0.00,-5.00,-8.00,-4.00,-5.00,-27.00,-15.00,-4.00,-1.00,-9.00,-10.00,-6.00,-7.00
+0.00,+0.00,-2.00,+0.00,-2.00,-4.00,-1.00,-4.00,+21.00,+14.00,-2.00,-1.00,-2.00,+1.00,-9.00,-2.00
-1.00,-2.00,+0.00,+0.00,-2.00,-1.00,-1.00,+1.00,-14.00,+5.00,+4.00,+2.00,+1.00,+0.00,+6.00,+2.00
-2.00,+0.00,+3.00,-1.00,+0.00,+1.00,+1.00,-2.00,-7.00,-5.00,-4.00,-1.00,-3.00,-4.00,-3.00,-5.00
+0.00,+0.00,-1.00,-2.00,+1.00,+1.00,-1.00,-1.00,+21.00,+7.00,+1.00,+0.00,+2.00,+0.00,-2.00,+8.00
-1.00,+0.00,+0.00,+0.00,-2.00,+1.00,-1.00,+2.00,-17.00,-5.00,+0.00,-1.00,+0.00,+3.00,-2.00,-8.00
+1.00,+0.00,-2.00,+0.00,-1.00,+3.00,+0.00,-1.00,+3.00,-3.00,-2.00,-1.00,-4.00,-6.00,-4.00,-4.00
-1.00,+2.00,-2.00,-1.00,+1.00,-2.00,+0.00,-3.00,+9.00,+1.00,-1.00,-2.00,+64.00,+1.00,-1.00,+1.00
-6.00,-4.00,+0.00,+0.00,-1.00,-4.00,+0.00,+0.00,-8.00,-13.00,-6.00,-18.00,-44.00,-10.00,-5.00,-9.00
-1.00,+2.00,+1.00,-2.00,+1.00,+4.00,+4.00,+0.00,-12.00,+1.00,-3.00,-1.00,-44.00,+4.00,+0.00,+2.00
+0.00,+0.00,+0.00,-3.00,+0.00,+1.00,+1.00,+0.00,-10.00,-15.00,+1.00,+3.00,-15.00,-9.00,-2.00,-7.00
+3.00,+2.00,-1.00,-1.00,+1.00,-2.00,-2.00,+1.00,-9.00,-2.00,+6.00,+9.00,-1.00,-8.00,+1.00,+2.00
-1.00,+0.00,-2.00,-1.00,-3.00,-5.00,-3.00,-3.00,+7.00,+5.00,-1.00,+2.00,+7.00,+17.00,-2.00,+1.00
+2.00,+0.00,+1.00,+0.00,-9.00,-23.00,-4.00,-1.00,+22.00,+10.00,-3.00,-4.00,+7.00,-2.00,-2.00,-1.00
-8.00,-5.00,+1.00,+0.00,+5.00,+38.00,+7.00,+1.00,-8.00,-6.00,-6.00,-8.00,+13.00,-1.00,-3.00,-11.00
-7.00,-4.00,-3.00,+1.00,-3.00,-3.00,-3.00,-3.00,-13.00,-20.00,-5.00,-4.00,-39.00,-5.00,-1.00,+0.00
+4.00,-4.00,-6.00,-3.00,-1.00,-2.00,-7.00,-8.00,+7.00,+9.00,+2.00,+3.00,+15.00,-3.00,-2.00,+7.00
-1.00,-5.00,-2.00,+0.00,+1.00,+0.00,-1.00,+0.00,-5.00,+7.00,+5.00,+2.00,+3.00,-1.00,+0.00,+3.00
+3.00,+1.00,+1.00,-1.00,+0.00,-13.00,+0.00,+1.00,-26.00,-13.00,-9.00,-7.00,+0.00,-4.00,-4.00,-13.00
+0.00,-3.00,+0.00,-3.00,-2.00,-9.00,+2.00,+1.00,+28.00,-6.00,+0.00,+1.00,-2.00,+0.00,-6.00,-1.00
+2.00,+15.00,+2.00,+0.00,+1.00,+26.00,+5.00,+3.00,+2.00,+10.00,+0.00,+1.00,+12.00,+1.00,+7.00,+6.00
-1.00,+6.00,+0.00,-4.00,-1.00,+1.00,-3.00,+0.00,-16.00,-10.00,+0.00,-4.00,-7.00,-5.00,-1.00,+4.00
-4.00,+6.00,-1.00,+0.00,+0.00,-8.00,-2.00,+0.00,+35.00,+9.00,+1.00,+3.00,-38.00,-2.00,-2.00,-2.00
+3.00,-9.00,-2.00,-1.00,+0.00,+5.00,+0.00,-1.00,-24.00,-16.00,-4.00,+0.00,+14.00,+4.00,-2.00,-4.00
+1.00,-11.00,+1.00,+1.00,+0.00,-12.00,-2.00,+2.00,-1.00,-9.00,-4.00,+2.00,+26.00,-2.00,-8.00,-11.00
+3.00,+12.00,+1.00,+1.00,+1.00,+4.00,-2.00,+1.00,-25.00,-21.00,-10.00,-4.00,-7.00,+0.00,-6.00,-12.00
-1.00,+3.00,-2.00,-2.00,-1.00,-4.00,+2.00,-2.00,-28.00,+39.00,+9.00,+3.00,+3.00,-2.00,+10.00,+16.00
-3.00,-2.00,-2.00,-5.00,-6.00,-1.00,-3.00,-5.00,+56.00,+30.00,+2.00,-10.00,-6.00,+3.00,-3.00,+6.00
-3.00,-16.00,-4.00,-6.00,+3.00,+1.00,+1.00,-3.00,+6.00,+4.00,+5.00,+14.00,-24.00,-15.00,-7.00,-7.00
+11.00,-30.00,-5.00,+1.00,-2.00,+3.00,-5.00,+3.00,-28.00,-32.00,-3.00,+8.00,+27.00,+4.00,+0.00,-7.00
+4.00,+60.00,+6.00,+4.00,+10.00,-12.00,+0.00,+3.00,+24.00,-20.00,-9.00,-15.00,+3.00,-5.00,-5.00,-7.00
-7.00,-3.00,+3.00,-1.00,+2.00,+4.00,+6.00,+0.00,+7.00,+14.00,-2.00,+6.00,-23.00,-33.00,-8.00,-13.00
-4.00,-10.00,-6.00,-2.00,-5.00,+18.00,-6.00,-4.00,+9.00,-7.00,+2.00,-3.00,+27.00,+23.00,-3.00,+11.00
-5.00,+0.00,-4.00,-6.00,-8.00,-28.00,-4.00,-7.00,+31.00,+8.00,-1.00,-1.00,-16.00,+2.00,-2.00,-2.00
+10.00,-6.00,-4.00,-2.00,-1.00,+21.00,-3.00,+0.00,+10.00,-6.00,-1.00,+5.00,+10.00,+9.00,+1.00,+13.00
-3.00,-28.00,+1.00,-1.00,+2.00,+3.00,+2.00,+0.00,-36.00,+14.00,-1.00,-8.00,-1.00,-9.00,+2.00,+1.00
-1.00,+65.00,+10.00,+3.00,+4.00,-2.00,+6.00,+6.00,-13.00,-9.00,-6.00,-9.00,-8.00,-12.00,-5.00,-14.00
-1.00,-18.00,+1.00,-1.00,+1.00,+2.00,+2.00,+0.00,-8.00,-3.00,-1.00,+1.00,+2.00,-4.00,+2.00,+7.00
-14.00,-19.00,-8.00,-6.00,-10.00,-16.00,-7.00,-5.00,+21.00,+2.00,+0.00,-3.00,+10.00,+1.00,-3.00,+3.00
-12.00,-5.00,-5.00,+0.00,+0.00,-6.00,-3.00,-3.00,-50.00,-38.00,-4.00,-5.00,-5.00,+6.00,-2.00,-12.00
-5.00,-5.00,+3.00,+0.00,-4.00,-9.00,-3.00,-2.00,+20.00,+46.00,+8.00,+4.00,-8.00,-1.00,+3.00,+7.00
-6.00,+10.00,-1.00,+2.00,+3.00,+16.00,-1.00,-3.00,+49.00,+4.00,-1.00,-4.00,+12.00,+0.00,-14.00,+12.00
-2.00,-6.00,+1.00,+1.00,+7.00,+2.00,+1.00,+0.00,-5.00,+6.00,-5.00,-3.00,-3.00,-8.00,+19.00,-1.00
+0.00,-21.00,+1.00,-4.00,-2.00,-5.00,-3.00,+0.00,+14.00,-59.00,-9.00,-4.00,-11.00,+6.00,+0.00,-3.00
-6.00,+15.00,+0.00,-6.00,-8.00,-15.00,-4.00,-2.00,+15.00,+78.00,+7.00,+2.00,+5.00,+5.00,+10.00,+0.00
+5.00,-32.00,-5.00,-3.00,+2.00,+23.00,+5.00,+1.00,+13.00,-10.00,+4.00,+1.00,+1.00,-9.00,-8.00,+66.00
+0.00,+39.00,+4.00,+1.00,-3.00,-3.00,+1.00,+5.00,-34.00,+24.00,+0.00,+1.00,-3.00,-7.00,-10.00,-79.00
-4.00,+40.00,+4.00,-2.00,-4.00,-42.00,-23.00,-8.00,+10.00,-27.00,-4.00,+0.00,-6.00,-2.00,-11.00,+6.00
+6.00,+7.00,+3.00,+8.00,+8.00,+8.00,+25.00,+4.00,-8.00,+18.00,+6.00,+3.00,+22.00,-5.00,+30.00,+12.00
-8.00,+16.00,-1.00,-5.00,+2.00,+20.00,+0.00,-4.00,+9.00,+18.00,+6.00,+0.00,-12.00,+23.00,-27.00,-7.00
-11.00,-44.00,-7.00,-10.00,-5.00,+3.00,-15.00,-11.00,-1.00,-14.00,-10.00,-1.00,-9.00,-7.00,-16.00,+37.00
+12.00,-7.00,+0.00,+0.00,-6.00,+13.00,+12.00,+12.00,-21.00,+24.00,+3.00,-14.00,+45.00,-24.00,+34.00,-12.00
-17.00,+13.00,+1.00,+1.00,-2.00,-29.00,-11.00,-8.00,+25.00,-34.00,+4.00,+17.00,-76.00,+14.00,-22.00,+18.00
+8.00,+27.00,+1.00,+1.00,+4.00,-2.00,+2.00,+0.00,-20.00,-8.00,-3.00,-3.00,+9.00,-5.00,+1.00,-22.00
-11.00,-36.00,-6.00,-2.00,-3.00,-5.00,-7.00,-8.00,-30.00,-26.00,-4.00,-8.00,+51.00,+12.00,-4.00,-4.00
+4.00,+30.00,+1.00,-3.00,+1.00,-1.00,+8.00,+1.00,+11.00,+6.00,-1.00,+10.00,-41.00,+0.00,-9.00,+2.00
+5.00,-31.00,-6.00,-7.00,-4.00,+1.00,-13.00,-4.00,-13.00,-28.00,-8.00,-9.00,+16.00,-16.00,-2.00,-1.00
-7.00,-14.00,+1.00,+3.00,-1.00,-7.00,+18.00,+0.00,-51.00,-7.00,-2.00,-1.00,-17.00,-4.00,+7.00,-11.00
+3.00,-17.00,-2.00,-6.00,-2.00,-7.00,-8.00,-5.00,+94.00,+24.00,+6.00,+5.00,+5.00,-8.00,-5.00,+16.00
-1.00,-12.00,+0.00,-5.00,+0.00,+5.00,-2.00,-1.00,+26.00,+36.00,+1.00,-6.00,+2.00,+1.00,+9.00,+1.00
+24.00,-26.00,+2.00,+1.00,+5.00,+9.00,+10.00,+7.00,-22.00,-27.00,-3.00,-5.00,+3.00,+1.00,-5.00,-12.00
-1.00,+11.00,+1.00,-2.00,-8.00,-12.00,-23.00,-7.00,-18.00,-14.00,-10.00,-5.00,+1.00,-1.00,-3.00,-17.00
+7.00,-21.00,-6.00,-4.00,-3.00,-5.00,+3.00,-1.00,-33.00,-6.00,+6.00,+2.00,-4.00,-2.00,+4.00,+2.00
+4.00,+1.00,-5.00,-3.00,-1.00,+3.00,-11.00,-8.00,-19.00,+16.00,+4.00,+4.00,+1.00,+18.00,+6.00,+22.00
+8.00,-60.00,-1.00,+6.00,+0.00,+4.00,-1.00,+8.00,-23.00,+10.00,-1.00,-6.00,-6.00,+3.00,-6.00,-12.00
+10.00,+80.00,+7.00,+1.00,+3.00,+5.00,+7.00,+17.00,-23.00,-6.00,-1.00,+3.00,+18.00,-5.00,+9.00,+9.00
+88.00,-9.00,+1.00,-4.00,-9.00,-11.00,-19.00,-81.00,-30.00,-21.00,-9.00,-9.00,-23.00,-18.00,-4.00,-6.00
-15.00,+40.00,-1.00,-1.00,-1.00,+5.00,+1.00,+83.00,-11.00,+12.00,+9.00,+11.00,-18.00,+35.00,+8.00,-4.00
+1.00,-35.00,-6.00,-4.00,+1.00,+5.00,-4.00,-15.00,+3.00,-42.00,-10.00,-8.00,+74.00,-5.00,-23.00,+12.00
+4.00,-65.00,-3.00,+2.00,-2.00,-19.00,-10.00,+12.00,+9.00,+57.00,+0.00,-7.00,-82.00,+2.00,+0.00,-19.00
-45.00,-25.00,-7.00,-1.00,+0.00,+9.00,+4.00,+0.00,+11.00,-11.00,+10.00,+8.00,+6.00,+5.00,+4.00,+20.00
+18.00,+1.00,+7.00,+2.00,-4.00,+5.00,+1.00,-10.00,-20.00,-8.00,-6.00,+0.00,-29.00,-4.00,-3.00,+1.00
-4.00,+94.00,+8.00,+8.00,+11.00,-12.00,+16.00,+0.00,-84.00,-25.00,-2.00,+9.00,+37.00,-21.00,-16.00,-32.00
-89.00,-23.00,-4.00,-2.00,+4.00,+66.00,+9.00,+8.00,+44.00,+5.00,-3.00,-4.00,-15.00,-7.00,-8.00,-23.00
+18.00,+18.00,-4.00,-6.00,-2.00,-19.00,+6.00,+23.00,-18.00,-11.00,-1.00,+9.00,-1.00,+16.00,+2.00,+7.00
-4.00,-36.00,-3.00,+0.00,+1.00,+20.00,-6.00,-17.00,-1.00,-4.00,-5.00,-12.00,+5.00,-3.00,-15.00,-12.00
+21.00,-37.00,-4.00,-7.00,-10.00,-10.00,-7.00,-2.00,-47.00,-45.00,-13.00,-11.00,-15.00,-3.00,+14.00,-10.00
+26.00,+81.00,+6.00,+4.00,-5.00,-29.00,+8.00,-12.00,+52.00,+62.00,+17.00,+5.00,+22.00,+4.00,+15.00,+8.00
-15.00,-12.00,-1.00,-1.00,+4.00,+17.00,-7.00,+2.00,+40.00,+13.00,+1.00,-2.00,+8.00,-1.00,+5.00,+30.00
+19.00,+0.00,-2.00,-3.00,-2.00,-4.00,+3.00,-23.00,+9.00,-21.00,+0.00,+5.00,+1.00,-7.00,+2.00,+20.00
-12.00,+29.00,+2.00,-1.00,+0.00,-2.00,+1.00,+9.00,+0.00,+45.00,-8.00,-6.00,-22.00,+1.00,-1.00,-13.00
-10.00,-28.00,-7.00,-8.00,-1.00,-11.00,-14.00,+0.00,+2.00,-23.00,-1.00,+1.00,+49.00,-2.00,+4.00,-2.00
-18.00,-24.00,+3.00,+3.00,+0.00,+0.00,+8.00,+13.00,+14.00,+21.00,-1.00,-4.00,-34.00,-12.00,+0.00,-14.00
+6.00,+7.00,+2.00,-2.00,-1.00,-10.00,+7.00,-3.00,-25.00,-27.00,+14.00,+8.00,+35.00,+24.00,-5.00,-9.00
-5.00,-54.00,-3.00,-3.00,-1.00,+8.00,-1.00,+9.00,+22.00,-22.00,+2.00,+1.00,-25.00,-1.00,+2.00,+15.00
-1.00,+21.00,+0.00,+1.00,-2.00,-5.00,-4.00,-18.00,+12.00,+9.00,-7.00,-8.00,+19.00,-20.00,-12.00,+33.00
-10.00,+6.00,-1.00,-3.00,-4.00,-11.00,+6.00,+11.00,-16.00,+1.00,-3.00,-8.00,-8.00,+22.00,-1.00,-13.00
-15.00,-31.00,+0.00,+3.00,+3.00,-2.00,-27.00,-16.00,-16.00,-15.00,-10.00,-5.00,+37.00,-30.00,+0.00,-13.00
+36.00,+9.00,-6.00,-12.00,-14.00,+1.00,-6.00,-10.00,+69.00,+29.00,+7.00,+4.00,-48.00,+18.00,+17.00,+22.00
+34.00,+3.00,+2.00,+5.00,+8.00,-51.00,-4.00,+7.00,-19.00,-31.00,+0.00,+7.00,+38.00,-28.00,-28.00,-7.00
-6.00,+12.00,+2.00,+4.00,+13.00,+36.00,+12.00,+8.00,-12.00,-3.00,-6.00,-1.00,-4.00,+54.00,-15.00,-16.00
-10.00,-19.00,-6.00,+0.00,-3.00,-21.00,+0.00,-3.00,-6.00,-13.00,-9.00,-8.00,-23.00,-12.00,-35.00,-16.00
-21.00,+49.00,-1.00,-2.00,-2.00,+21.00,-17.00,-6.00,-42.00,+31.00,+10.00,+2.00,+14.00,+13.00,+20.00,+13.00
+2.00,-75.00,-7.00,-7.00,-10.00,-39.00,+19.00,+0.00,-78.00,-16.00,+4.00,-4.00,+41.00,+8.00,+2.00,-10.00
-16.00,+89.00,+9.00,-1.00,-2.00,+4.00,+1.00,+7.00,+34.00,-1.00,+3.00,+9.00,-32.00,-23.00,+5.00,+11.00
-4.00,+22.00,-4.00,-3.00,+2.00,-9.00,-1.00,-1.00,-26.00,-5.00,-9.00,-3.00,+7.00,+2.00,-11.00,-21.00
-5.00,-46.00,-4.00,-6.00,-6.00,-8.00,-11.00,-40.00,-28.00,-31.00,-15.00,-14.00,-13.00,-17.00,-3.00,-34.00
-6.00,+6.00,+4.00,+6.00,+4.00,+17.00,+5.00,+3.00,+19.00,+6.00,+16.00,+13.00,+0.00,+18.00,+22.00,+52.00
-12.00,-12.00,-2.00,-2.00,+0.00,-16.00,+0.00,+23.00,-63.00,+19.00,-1.00,-3.00,+35.00,-10.00,-5.00,-20.00
+2.00,-30.00,+0.00,-1.00,+3.00,+17.00,+11.00,-6.00,+44.00,+32.00,+0.00,-5.00,-65.00,-48.00,+20.00,+17.00
-3.00,+1.00,-11.00,-5.00,-1.00,-21.00,-3.00,+10.00,-21.00,-19.00,-4.00,+10.00,+25.00,+59.00,-37.00,-15.00
-3.00,+32.00,+2.00,+2.00,+3.00,+20.00,-11.00,-18.00,-25.00,-44.00,-13.00,-10.00,-37.00,-3.00,+3.00,-26.00
-5.00,-71.00,-4.00,-5.00,-5.00,-6.00,+8.00,-17.00,-40.00,-8.00,-2.00,-8.00,-7.00,-14.00,-8.00,+7.00
+7.00,+113.00,+26.00,+5.00,-4.00,-15.00,+6.00,+10.00,+14.00,-1.00,+3.00,-9.00,+5.00,+16.00,+48.00,+26.00
-7.00,-27.00,+3.00,+9.00,+7.00,+41.00,+8.00,+6.00,+66.00,+33.00,+6.00,+11.00,-18.00,+3.00,-31.00,-4.00
-11.00,-64.00,-11.00,-8.00,-2.00,-8.00,-4.00,-21.00,+39.00,-21.00,-6.00,+7.00,-34.00,-31.00,+57.00,-11.00
+0.00,-44.00,-2.00,-3.00,-5.00,-8.00,-16.00,+1.00,-7.00,+15.00,+3.00,+3.00,-5.00,+33.00,-39.00,+31.00
+6.00,-10.00,-9.00,-6.00,-1.00,+14.00,+42.00,-19.00,+26.00,-25.00,-7.00,-5.00,-1.00,+1.00,-7.00,-1.00
-6.00,-48.00,+0.00,+3.00,+5.00,-18.00,+1.00,-9.00,-38.00,+6.00,+2.00,-5.00,+25.00,-21.00,+3.00,+11.00
-2.00,-20.00,-3.00,-4.00,-2.00,+15.00,+2.00,-4.00,+81.00,-1.00,-4.00,-3.00,-4.00,+9.00,+10.00,+26.00
+4.00,+56.00,+3.00,+1.00,-7.00,+0.00,+13.00,+12.00,+42.00,-1.00,-4.00,-6.00,+13.00,-33.00,-8.00,-19.00
-3.00,-21.00,-9.00,-10.00,-6.00,-16.00,-25.00,-10.00,-20.00,-20.00,-7.00,+0.00,+6.00,+4.00,+12.00,-8.00
+1.00,-36.00,+4.00,+11.00,+7.00,+3.00,+0.00,+4.00,+47.00,+10.00,+14.00,+1.00,+0.00,-1.00,+13.00,+51.00
+3.00,+93.00,+19.00,+6.00,+1.00,-1.00,+4.00,+7.00,-54.00,-21.00,-9.00,-5.00,-4.00,-10.00,-28.00,-18.00
-1.00,+0.00,+2.00,+3.00,+5.00,-18.00,-7.00,+0.00,+3.00,-3.00,+6.00,+4.00,+34.00,+2.00,+27.00,-43.00
+3.00,-10.00,+0.00,-5.00,-1.00,+5.00,-16.00,+14.00,-5.00,+26.00,+13.00,+7.00,-18.00,+28.00,-16.00,+23.00
-5.00,-70.00,-20.00,-12.00,-9.00,-8.00,-2.00,-62.00,-36.00,-25.00,-12.00,-3.00,+1.00,+4.00,+2.00,-19.00
-1.00,+64.00,+18.00,+16.00,+6.00,+22.00,+1.00,+5.00,-5.00,-26.00,-1.00,-4.00,-5.00,+8.00,-10.00,+0.00
-2.00,-13.00,-2.00,-6.00,-8.00,-47.00,-41.00,-23.00,+4.00,+28.00,+5.00,-3.00,+14.00,-3.00,+12.00,+32.00
+1.00,+2.00,-3.00,+5.00,+16.00,+61.00,+66.00,+16.00,-64.00,+3.00,-5.00,+12.00,+15.00,+7.00,+8.00,-5.00
-2.00,+24.00,-2.00,-9.00,-4.00,+0.00,+2.00,+22.00,+25.00,+11.00,-1.00,+2.00,+30.00,-39.00,-10.00,-21.00
+0.00,-40.00,-7.00,-11.00,-8.00,-23.00,-13.00,-1.00,-50.00,-20.00,-9.00,-6.00,-1.00,+1.00,-28.00,-23.00
-6.00,-43.00,-11.00,-8.00,-8.00,+25.00,-2.00,-6.00,+52.00,+3.00,-7.00,-6.00,-56.00,+10.00,-21.00,+4.00
+2.00,+80.00,+20.00,+4.00,-7.00,-92.00,-36.00,-6.00,+5.00,-14.00,-3.00,-3.00,+18.00,-11.00,-15.00,-16.00
-4.00,+4.00,+0.00,+8.00,+16.00,+76.00,+32.00,+25.00,+22.00,+10.00,+7.00,+0.00,-15.00,-4.00,+22.00,+25.00
-5.00,-61.00,-5.00,-1.00,+2.00,+40.00,+14.00,-12.00,-14.00,+10.00,-1.00,-2.00,+6.00,-7.00,-9.00,-10.00
-1.00,-2.00,-1.00,-4.00,-2.00,+11.00,+12.00,-16.00,-34.00,-31.00,-2.00,-5.00,-11.00,-18.00,+6.00,-3.00
+0.00,-60.00,-8.00,+1.00,-2.00,-4.00,-17.00,-11.00,+2.00,+6.00,+2.00,+5.00,+15.00,-18.00,-12.00,+5.00
-3.00,+0.00,+7.00,-1.00,-8.00,-27.00,+0.00,+9.00,+6.00,-24.00,-6.00,-2.00,-6.00,+32.00,+2.00,-6.00
-4.00,+44.00,+0.00,+1.00,+4.00,+3.00,-23.00,+8.00,-10.00,+7.00,-4.00,-5.00,-16.00,+11.00,+17.00,-1.00
+0.00,-4.00,-5.00,-4.00,+0.00,+2.00,+28.00,-12.00,-24.00,+20.00,-1.00,+2.00,-6.00,-28.00,-9.00,+18.00
-1.00,-76.00,-12.00,-8.00,-6.00,-1.00,-9.00,-22.00,+6.00,-22.00,-4.00,-11.00,+0.00,+24.00,-14.00,-19.00
-4.00,+114.00,+25.00,+12.00,+8.00,-13.00,-11.00,-11.00,+18.00,+13.00,-1.00,-1.00,-20.00,-28.00,-1.00,+4.00
-1.00,-12.00,-15.00,-4.00,-8.00,+6.00,+7.00,+22.00,-17.00,+25.00,-4.00,-5.00,+19.00,-2.00,+0.00,+1.00
+3.00,+11.00,+6.00,+5.00,+3.00,-23.00,-12.00,+11.00,-7.00,-56.00,+6.00,+6.00,+19.00,-4.00,+8.00,-4.00
-11.00,+8.00,+2.00,-1.00,+1.00,+8.00,-7.00,-6.00,+13.00,+5.00,-6.00,-1.00,-1.00,-5.00,-12.00,+7.00
+4.00,+50.00,+0.00,-9.00,-11.00,-27.00,+0.00,+16.00,+14.00,-5.00,-2.00,-14.00,-24.00,-36.00,+16.00,+18.00
+0.00,-37.00,-6.00,+0.00,+4.00,+8.00,-16.00,-10.00,-7.00,+19.00,+3.00,-3.00,+16.00,+3.00,-16.00,-5.00
-2.00,+36.00,+0.00,+5.00,+5.00,+0.00,+5.00,+0.00,+4.00,-8.00,-9.00,+16.00,-28.00,+10.00,+12.00,+18.00
+1.00,-20.00,-3.00,-2.00,-1.00,-17.00,-17.00,+14.00,+5.00,+22.00,+7.00,+7.00,+4.00,+27.00,-2.00,-12.00
-3.00,-51.00,-10.00,-2.00,-3.00,+34.00,+19.00,+13.00,-70.00,-24.00,-7.00,-3.00,+14.00,+14.00,+7.00,-22.00
+1.00,-19.00,-5.00,-11.00,-20.00,-53.00,-6.00,-3.00,+109.00,+22.00,+4.00,+2.00,-13.00,-55.00,-9.00,+22.00
+3.00,-10.00,-3.00,+14.00,+17.00,+34.00,+3.00,+6.00,-27.00,-8.00,-5.00,-12.00,+13.00,+49.00,+2.00,-22.00
-8.00,-2.00,-9.00,-11.00,-1.00,+15.00,+4.00,+4.00,-13.00,+6.00,-1.00,-3.00,+27.00,+5.00,+12.00,+27.00
-3.00,-10.00,+6.00,+3.00,+6.00,-32.00,-33.00,-7.00,-32.00,-9.00,-10.00,-9.00,-43.00,-8.00,-31.00,-27.00
+2.00,-33.00,-4.00,-2.00,+0.00,+17.00,+49.00,+11.00,+1.00,+8.00,+11.00,+8.00,+4.00,+2.00,+15.00,+23.00
+1.00,+41.00,+4.00,-3.00,-2.00,-7.00,+3.00,+2.00,+30.00,-12.00,-4.00,-5.00,+4.00,-25.00,+6.00,+34.00
+5.00,-40.00,-7.00,-4.00,-7.00,-8.00,-19.00,-19.00,+27.00,-13.00,-4.00,-4.00,-7.00,+4.00,-18.00,-53.00
+1.00,+22.00,-1.00,+0.00,+1.00,+8.00,+4.00,+7.00,-60.00,+0.00,+4.00,+3.00,+10.00,-5.00,+5.00,-21.00
-3.00,-28.00,+0.00,-10.00,-2.00,-10.00,-6.00,+18.00,+25.00,-9.00,-3.00,+1.00,+7.00,+12.00,+17.00,-7.00
-6.00,-8.00,-2.00,+3.00,-4.00,-4.00,-6.00,-35.00,-30.00,+29.00,-1.00,+0.00,+0.00,-2.00,+11.00,+11.00
+0.00,+7.00,-2.00,+3.00,+2.00,+1.00,+1.00,-1.00,+28.00,+12.00,+11.00,+6.00,-12.00,+3.00,+8.00,+38.00
-5.00,-38.00,-5.00,-1.00,-8.00,-30.00,+6.00,+8.00,+49.00,+5.00,-10.00,-10.00,-1.00,-23.00,-16.00,+4.00
-5.00,-40.00,-2.00,-6.00,+0.00,+18.00,+2.00,-6.00,-18.00,-2.00,-1.00,-5.00,+0.00,+27.00,+3.00,-14.00
+0.00,+106.00,+24.00,+5.00,+1.00,+1.00,+6.00,+22.00,+10.00,+8.00,+0.00,+6.00,+4.00,-18.00,-12.00,-34.00
+2.00,-18.00,-6.00,-4.00,-3.00,-8.00,+4.00,-4.00,-10.00,+10.00,-5.00,-12.00,-74.00,-22.00,+6.00,+0.00
+4.00,-18.00,-2.00,+0.00,-3.00,-13.00,+0.00,+4.00,+41.00,+7.00,+4.00,+16.00,+10.00,+11.00,-6.00,-4.00
-3.00,-2.00,-4.00,-1.00,+11.00,+62.00,-43.00,+27.00,-33.00,-15.00,-5.00,+6.00,+40.00,+35.00,+3.00,-72.00
-1.00,-49.00,-6.00,-2.00,-9.00,-44.00,+63.00,+33.00,+40.00,+1.00,-1.00,-2.00,-19.00,-15.00,-2.00,+7.00
-4.00,+10.00,-1.00,+5.00,+6.00,+34.00,-4.00,+4.00,+11.00,+6.00,-7.00,-5.00,+1.00,-13.00,-15.00,-12.00
-2.00,+19.00,-3.00,-11.00,-13.00,-19.00,-48.00,-24.00,+14.00,-17.00,+2.00,-9.00,+10.00,+18.00,+51.00,+18.00
+2.00,+1.00,+0.00,+11.00,+2.00,-7.00,+56.00,+27.00,+26.00,-17.00,-5.00,-4.00,-39.00,-2.00,-33.00,-5.00
-5.00,+5.00,-6.00,-7.00,-2.00,-8.00,-28.00,+13.00,-27.00,+27.00,-2.00,-7.00,+25.00,-13.00,+12.00,-10.00
+1.00,-5.00,-3.00,-2.00,-1.00,+5.00,-4.00,-6.00,-11.00,-9.00,+8.00,+12.00,+5.00,+16.00,-3.00,-4.00
+3.00,-40.00,-10.00,-2.00,+1.00,-1.00,+18.00,+7.00,-30.00,-1.00,-4.00,-10.00,+0.00,-13.00,-23.00,+14.00
-2.00,+72.00,+11.00,+6.00,+1.00,-15.00,-23.00,-15.00,-29.00,+7.00,+3.00,+11.00,+2.00,+5.00,+4.00,+15.00
+0.00,-42.00,-9.00,-10.00,-5.00,+13.00,-3.00,+0.00,-19.00,-38.00,-6.00,-4.00,+2.00,-5.00,-2.00,-13.00
-1.00,+9.00,-1.00,-2.00,-6.00,-14.00,-10.00,-6.00,+22.00,+13.00,-2.00,-2.00,+4.00,-7.00,+10.00,+13.00
-6.00,+13.00,+7.00,+5.00,+5.00,+18.00,-12.00,+1.00,+44.00,+37.00,-1.00,-2.00,-6.00,-1.00,-6.00,-8.00
-2.00,-91.00,-15.00,-5.00,-4.00,-23.00,-11.00,-20.00,-18.00,-4.00,+0.00,-4.00,-2.00,-12.00,-11.00,-5.00
-1.00,-40.00,+4.00,-2.00,+5.00,+8.00,-7.00,-40.00,-3.00,-18.00,+3.00,+3.00,+0.00,+35.00,+10.00,+0.00
-3.00,+26.00,+14.00,+6.00,+6.00,+17.00,+6.00,+9.00,-55.00,+13.00,+5.00,-1.00,+5.00,+6.00,+2.00,-10.00
-2.00,+28.00,-5.00,-7.00,-5.00,-21.00,-2.00,+5.00,-60.00,-15.00,-2.00,+1.00,+16.00,-2.00,-11.00,-9.00
+3.00,-7.00,+0.00,-4.00,-4.00,-25.00,+13.00,-15.00,+68.00,+28.00,+0.00,-5.00,-25.00,-7.00,+8.00,+15.00
+1.00,+26.00,+0.00,-1.00,-2.00,+56.00,-8.00,+7.00,+2.00,-14.00,-2.00,-6.00,-5.00,+0.00,-3.00,-15.00
+2.00,-63.00,-9.00,-5.00,-3.00,-22.00,+12.00,-5.00,+7.00,+9.00,-4.00,+0.00,+22.00,-6.00,-7.00,+1.00
+0.00,+47.00,+4.00,+5.00,+6.00,+23.00,+4.00,-2.00,+31.00,-46.00,-3.00,+1.00,-7.00,+5.00,+8.00,+8.00
-8.00,+26.00,+1.00,-4.00,-10.00,-18.00,-55.00,-52.00,-4.00,+7.00,-2.00,-15.00,-8.00,-4.00,+12.00,+23.00
+1.00,-44.00,-8.00,+0.00,+4.00,+9.00,+41.00,+8.00,+7.00,+15.00,+2.00,+13.00,-30.00,-15.00,-21.00,-4.00
-3.00,+3.00,-1.00,-2.00,-1.00,+0.00,+12.00,+3.00,-4.00,+4.00,-2.00,-3.00,+35.00,-3.00,+6.00,+0.00
-2.00,+25.00,+4.00,-1.00,-3.00,-4.00,-7.00,-1.00,-4.00,+2.00,-1.00,+11.00,+1.00,+17.00,-9.00,-12.00
+1.00,-3.00,-8.00,-6.00,+0.00,-8.00,-10.00,+4.00,-28.00,-21.00,-6.00,-4.00,+25.00,+29.00,-3.00,-7.00
-1.00,-98.00,-6.00,-4.00,-7.00,-7.00,-7.00,-1.00,-29.00,-7.00,-9.00,-7.00,-2.00,+4.00,-19.00,-31.00
-1.00,+119.00,+19.00,+11.00,+6.00,+29.00,-8.00,-2.00,-11.00,+7.00,+5.00,+1.00,-12.00,+8.00,+11.00,+24.00
+0.00,-50.00,-5.00,-5.00,+0.00,-14.00,+10.00,+2.00,+9.00,-9.00,+7.00,-5.00,+8.00,-13.00,-1.00,+1.00
-1.00,+14.00,+6.00,+1.00,-1.00,+22.00,+4.00,+3.00,+22.00,+7.00,+0.00,+6.00,-14.00,-8.00,+3.00,+8.00
-4.00,+13.00,-4.00,-4.00,-4.00,-8.00,-12.00,-5.00,-12.00,-3.00,+0.00,-4.00,+33.00,+2.00,+0.00,-11.00
-2.00,-26.00,-8.00,-3.00,-3.00,-13.00,+8.00,+8.00,-4.00,-10.00,-6.00,-5.00,-42.00,-30.00,-8.00,-8.00
+1.00,-36.00,-4.00,+1.00,+1.00,+3.00,-11.00,-4.00,-11.00,+8.00,+0.00,+1.00,+1.00,+30.00,+17.00,+3.00
-4.00,+11.00,+0.00,-3.00,-2.00,-6.00,+9.00,+4.00,-36.00,-5.00,-1.00,+1.00,+33.00,+20.00,-1.00,-7.00
+0.00,-5.00,+2.00,-1.00,+1.00,-9.00,-21.00,-16.00,-40.00,-19.00,-5.00,-32.00,-97.00,-12.00,+2.00,+13.00
+4.00,+45.00,+5.00,+1.00,-1.00,-2.00,-2.00,+5.00,+16.00,+17.00,+2.00,+24.00,-2.00,-12.00,+0.00,+9.00
-6.00,-10.00,-3.00,-7.00,-7.00,-16.00,+2.00,+3.00,-11.00,+7.00,+0.00,-7.00,-16.00,-5.00,-7.00,+9.00
+4.00,-28.00,-2.00,+2.00,+3.00,+21.00,+13.00,-4.00,-76.00,-6.00,-1.00,+13.00,-11.00,-6.00,+0.00,-7.00
+0.00,+23.00,-2.00,-2.00,-1.00,-6.00,-11.00,+3.00,+41.00,-4.00,-2.00,-2.00,+43.00,+0.00,+4.00,+0.00
-3.00,-54.00,-7.00,-5.00,-3.00,-16.00,-6.00,-6.00,+97.00,-8.00,-3.00,-6.00,+10.00,+7.00,-4.00,-2.00
+3.00,+61.00,+11.00,+4.00,+5.00,+22.00,+13.00,+13.00,+12.00,+9.00,-1.00,-6.00,+5.00,+2.00,-4.00,-8.00
-6.00,+19.00,-2.00,-10.00,-12.00,-40.00,-26.00,-46.00,+52.00,-2.00,+1.00,+1.00,-28.00,-13.00,+0.00,+8.00
-4.00,-1.00,-1.00,+10.00,+13.00,+50.00,+14.00,+7.00,+2.00,+3.00,+0.00,+2.00,-1.00,-9.00,+2.00,+3.00
-1.00,-35.00,-4.00,-4.00,-5.00,-3.00,+1.00,-1.00,-27.00,-4.00,-2.00,-8.00,-8.00,-1.00,-7.00,-7.00
+2.00,-20.00,-4.00,-1.00,-4.00,-7.00,+7.00,+1.00,-8.00,-29.00,-16.00,-5.00,+4.00,-9.00,-6.00,-15.00
-1.00,+2.00,+0.00,-6.00,-1.00,-1.00,-13.00,+10.00,+87.00,-3.00,+1.00,-9.00,+23.00,-5.00,-5.00,-5.00
-4.00,-34.00,-5.00,-13.00,-11.00,-27.00,-17.00,-4.00,-19.00,+48.00,+15.00,-3.00,+46.00,+11.00,+21.00,+15.00
+2.00,+55.00,+6.00,+3.00,+4.00,+4.00,+10.00,-3.00,-85.00,+1.00,+4.00,+23.00,-49.00,+3.00,+1.00,-9.00
-8.00,-3.00,+3.00,-1.00,-1.00,+5.00,-3.00,+3.00,-66.00,-1.00,+3.00,-1.00,+17.00,-4.00,-4.00,-6.00
+1.00,+8.00,+2.00,+5.00,+7.00,+5.00,+13.00,+14.00,-128.00,-16.00,-7.00,+1.00,-5.00,-15.00,-4.00,+4.00
-4.00,+9.00,-1.00,-7.00,-8.00,-15.00,-11.00,-7.00,-59.00,-28.00,-10.00,-30.00,-10.00,-7.00,-20.00,-30.00
+0.00,-54.00,-8.00,-8.00,-5.00,-39.00,+3.00,+2.00,+18.00,+5.00,+0.00,-4.00,+1.00,+14.00,+46.00,+34.00
+0.00,-18.00,-5.00,+0.00,+1.00,+18.00,-28.00,-10.00,-56.00,+6.00,-3.00,+6.00,+25.00,+13.00,+2.00,-32.00
-4.00,+13.00,+1.00,-1.00,+0.00,+3.00,+19.00,+18.00,-16.00,+2.00,+5.00,+21.00,-89.00,+1.00,+18.00,+19.00
+0.00,+0.00,+1.00,-9.00,-11.00,-45.00,+0.00,-1.00,-12.00,-3.00,+4.00,+12.00,+11.00,+2.00,-6.00,-12.00
+0.00,-2.00,+0.00,+9.00,+11.00,+75.00,+0.00,-2.00,-14.00,-11.00,-5.00,-15.00,+88.00,+9.00,-13.00,-11.00
+3.00,+4.00,-2.00,+0.00,+4.00,-6.00,+5.00,-1.00,+103.00,+1.00,-1.00,+4.00,-79.00,-13.00,+4.00,+15.00
+2.00,-2.00,+2.00,+0.00,-2.00,-2.00,+0.00,+1.00,+75.00,+5.00,-2.00,-26.00,+24.00,+0.00,+1.00,-2.00
+1.00,+12.00,-1.00,-3.00,+3.00,+10.00,-7.00,+2.00,+48.00,-2.00,-1.00,+9.00,+1.00,+18.00,+4.00,+22.00
-2.00,-2.00,-1.00,-3.00,-7.00,-10.00,+0.00,+2.00,+37.00,-13.00,-4.00,+3.00,-57.00,-18.00,-12.00,-29.00
-6.00,-5.00,+1.00,-4.00,-6.00,-32.00,-2.00,-3.00,+44.00,+10.00,+4.00,-2.00,+96.00,+7.00,-7.00,+18.00
+5.00,-11.00,+2.00,+9.00,+11.00,+31.00,+7.00,+7.00,-1.00,+13.00,+4.00,+4.00,-43.00,-1.00,-12.00,-23.00
-1.00,+10.00,-2.00,-2.00,+0.00,-19.00,-9.00,-2.00,-15.00,-18.00,-5.00,+13.00,-25.00,-11.00,+1.00,+4.00
+0.00,-8.00,-7.00,-5.00,-8.00,-7.00,-7.00,-6.00,+16.00,+7.00,+0.00,-19.00,+69.00,+9.00,-2.00,+34.00
+0.00,+12.00,-10.00,-4.00,-5.00,+16.00,+1.00,-1.00,-25.00,-1.00,+1.00,+16.00,-69.00,-46.00,+21.00,+3.00
-1.00,-14.00,+5.00,+0.00,-2.00,-30.00,+2.00,+8.00,-16.00,+6.00,-5.00,-7.00,+15.00,+31.00,-18.00,-15.00
-2.00,-1.00,+6.00,+6.00,+6.00,+8.00,+4.00,+4.00,+18.00,+5.00,+0.00,-11.00,+12.00,+21.00,+17.00,+24.00
+0.00,-6.00,+2.00,+7.00,+6.00,+22.00,+8.00,+2.00,-43.00,-3.00,+3.00,+12.00,+74.00,+24.00,-14.00,-13.00
-1.00,-7.00,+0.00,-2.00,+8.00,+15.00,+5.00,+1.00,-62.00,-16.00,-11.00,-32.00,-23.00,-13.00,-5.00,+8.00
+0.00,+10.00,-6.00,-11.00,-11.00,-41.00,-11.00,-3.00,+62.00,+15.00,+4.00,+24.00,+76.00,+3.00,+13.00,-5.00
-2.00,+6.00,-10.00,-4.00,-1.00,+22.00,-1.00,+43.00,+40.00,+1.00,+0.00,+13.00,-4.00,-29.00,-18.00,-19.00
+4.00,-25.00,-1.00,+0.00,+2.00,+25.00,-28.00,-58.00,+13.00,+0.00,-1.00,-1.00,-47.00,-11.00,+9.00,-7.00
+1.00,+9.00,+5.00,+4.00,-9.00,-93.00,+14.00,+15.00,-3.00,-1.00,-2.00,-18.00,+26.00,+8.00,-11.00,+16.00
-5.00,+6.00,+3.00,+12.00,+17.00,+92.00,+15.00,-69.00,-38.00,-19.00,-9.00,-14.00,+12.00,+0.00,-9.00,-8.00
-1.00,+2.00,+1.00,-3.00,+1.00,+0.00,-3.00,-2.00,+52.00,+8.00,+1.00,+16.00,-65.00,-8.00,+0.00,+19.00
-1.00,+2.00,-2.00,-11.00,-8.00,-31.00,+1.00,+8.00,+13.00,-5.00,-3.00,-19.00,+74.00,-15.00,-7.00,-13.00
+2.00,-10.00,-1.00,+1.00,+2.00,+4.00,-3.00,-4.00,+6.00,-1.00,+2.00,-6.00,-91.00,-74.00,-23.00,-24.00
-3.00,-8.00,-3.00,-9.00,-10.00,-22.00,-4.00,+20.00,-46.00,-5.00,-1.00,+8.00,+94.00,+83.00,+13.00,+34.00
+0.00,+9.00,+2.00,+7.00,+1.00,-30.00,+2.00,-4.00,-42.00,+3.00,+4.00,+18.00,-9.00,-9.00,+5.00,-21.00
-3.00,-2.00,-3.00,-2.00,+2.00,+20.00,-7.00,-1.00,-55.00,-3.00,-4.00,-5.00,-48.00,-11.00,-12.00,-10.00
-2.00,-9.00,-4.00,-4.00,-3.00,-3.00,+0.00,-30.00,+0.00,+1.00,-5.00,-24.00,+105.00,+36.00,+2.00,+14.00
+0.00,-4.00,+0.00,+10.00,+4.00,+0.00,+5.00,+26.00,-10.00,-2.00,-1.00,-13.00,-108.00,-71.00,-11.00,+5.00
-4.00,+5.00,-1.00,-3.00,+2.00,+27.00,+0.00,-4.00,-3.00,-2.00,-2.00,+15.00,+46.00,+18.00,+13.00,+35.00
-2.00,+7.00,+5.00,-6.00,-12.00,-102.00,-13.00,+5.00,+6.00,-7.00,-1.00,+2.00,-102.00,+4.00,+1.00,-10.00
+4.00,-7.00,-5.00,+11.00,+16.00,+106.00,-6.00,+18.00,+12.00,+9.00,+8.00,+23.00,+58.00,+27.00,-7.00,-19.00
+2.00,-6.00,-4.00,-5.00,-4.00,-11.00,+38.00,+17.00,+2.00,+1.00,+1.00,+4.00,+34.00,-11.00,-2.00,-26.00
+1.00,+28.00,+6.00,-3.00,+0.00,-22.00,-6.00,-8.00,+13.00,+0.00,-3.00,-19.00,-61.00,-9.00,-24.00,-4.00
+0.00,-5.00,-2.00,+2.00,-1.00,+6.00,+10.00,+5.00,+5.00,-3.00,-3.00,+4.00,+28.00,-11.00,+23.00,-7.00
-1.00,+4.00,-2.00,-18.00,-19.00,-38.00,+2.00,+6.00,+10.00,+6.00,+0.00,+7.00,-11.00,+2.00,+15.00,+24.00
+1.00,-21.00,-1.00,+7.00,-5.00,-69.00,-17.00,-6.00,-6.00,-9.00,-6.00,-47.00,+20.00,-7.00,+0.00,-14.00
-1.00,-8.00,-3.00,+0.00,-1.00,+36.00,-16.00,-14.00,-34.00,-4.00,+1.00,+21.00,-25.00,-25.00,-4.00,-10.00
-3.00,-2.00,-3.00,-1.00,-2.00,+0.00,+9.00,+14.00,+36.00,+13.00,+3.00,+10.00,+33.00,+28.00,-6.00,+9.00
-1.00,+1.00,-4.00,-4.00,+3.00,-30.00,-21.00,-10.00,+17.00,-3.00,-1.00,+16.00,-71.00,+0.00,-5.00,-4.00
+2.00,-4.00,-1.00,-10.00,-5.00,-25.00,-6.00,+16.00,+17.00,+8.00,+4.00,-5.00,+16.00,-11.00,+2.00,+0.00
-1.00,-5.00,+2.00,+6.00,+3.00,+33.00,+10.00,-5.00,-5.00,-11.00,-10.00,-35.00,-40.00,-7.00,-15.00,-49.00
-2.00,-6.00,-2.00,-12.00,-8.00,-15.00,-20.00,-7.00,-12.00,-11.00,-5.00,-9.00,-112.00,-31.00,-3.00,-24.00
-4.00,-11.00,+0.00,-2.00,-1.00,+31.00,+14.00,+34.00,+21.00,+6.00,+3.00,+35.00,+123.00,+36.00,-5.00,-9.00
-4.00,+5.00,-3.00,+0.00,-6.00,+4.00,-21.00,-33.00,+1.00,-10.00,-6.00,-25.00,-99.00,-27.00,-11.00,-37.00
+4.00,+3.00,+3.00,+7.00,+13.00,-1.00,+19.00,-3.00,-1.00,-8.00,-5.00,-3.00,+103.00,-18.00,-14.00,-32.00
+2.00,+7.00,+1.00,-4.00,+1.00,+27.00,+0.00,+5.00,-1.00,+6.00,+3.00,+26.00,+11.00,+43.00,+8.00,+60.00
+0.00,-8.00,-3.00,-14.00,-23.00,-86.00,-11.00,-7.00,-7.00,-3.00,-1.00,-5.00,+12.00,-28.00,+5.00,+4.00
-3.00,+9.00,-2.00,-3.00,+4.00,+94.00,+23.00,+11.00,-3.00,-2.00,-1.00,-2.00,-5.00,-7.00,-12.00,+4.00
+4.00,-6.00,-2.00,+9.00,+7.00,+32.00,-4.00,-8.00,+6.00,+2.00,+2.00,-3.00,+91.00,-13.00,-15.00,-8.00
-1.00,+4.00,+1.00,+12.00,+6.00,+38.00,+10.00,+4.00,-63.00,-22.00,-11.00,-22.00,-77.00,-18.00,-11.00,-116.00
+3.00,-10.00,+0.00,-1.00,-4.00,-39.00,+0.00,-4.00,-53.00,+24.00,+8.00,+16.00,-43.00,+13.00,+15.00,+79.00
-10.00,-2.00,-5.00,-12.00,-10.00,-49.00,-21.00,-16.00,-114.00,-2.00,+3.00,+22.00,+8.00,-3.00,+1.00,-18.00
-5.00,+1.00,-1.00,-2.00,-2.00,+12.00,+2.00,+4.00,+5.00,-4.00,-2.00,-10.00,+36.00,+22.00,+10.00,+23.00
+0.00,-6.00,-2.00,-3.00,+2.00,+16.00,-34.00,-38.00,+43.00,-1.00,-3.00,-29.00,+127.00,+17.00,-18.00,+19.00
-2.00,+0.00,+2.00,+6.00,+9.00,+15.00,+57.00,+12.00,+80.00,-7.00,-5.00,+10.00,-1.00,-33.00,-14.00,-15.00
-1.00,+4.00,-2.00,-16.00,-17.00,-68.00,-21.00,+9.00,+47.00,-8.00,-7.00,-46.00,+105.00,+22.00,+3.00,+7.00
+4.00,-2.00,+2.00,+6.00,+1.00,+46.00,+21.00,+44.00,+38.00,+12.00,+8.00,+31.00,-103.00,-64.00,-11.00,+45.00
-3.00,-10.00,-1.00,+1.00,+2.00,-2.00,+1.00,-61.00,+22.00,-6.00,-3.00,+32.00,+51.00,+6.00,+7.00,-12.00
+3.00,+7.00,+3.00,+13.00,+18.00,+56.00,-16.00,+9.00,+33.00,+3.00,+2.00,-19.00,-128.00,-19.00,+30.00,+11.00
-1.00,-8.00,+3.00,-7.00,+0.00,-58.00,-13.00,-3.00,+47.00,+4.00,+2.00,+29.00,+15.00,+65.00,-2.00,+34.00
-7.00,-9.00,-7.00,-31.00,-38.00,-116.00,-28.00,-16.00,-5.00,-10.00,-6.00,-45.00,-38.00,+30.00,+20.00,-15.00
-3.00,+0.00,+0.00,-4.00,-10.00,-83.00,-1.00,+33.00,-10.00,-7.00,-7.00,-30.00,+29.00,-50.00,-67.00,+3.00
-4.00,+2.00,+3.00,+13.00,+9.00,+38.00,+1.00,-33.00,-4.00,+5.00,+4.00,+33.00,-22.00,+36.00,+42.00,+58.00
-2.00,+1.00,+3.00,+5.00,+15.00,+24.00,-12.00,+16.00,+11.00,+6.00,+7.00,+36.00,-15.00,-37.00,+12.00,-8.00
-5.00,+12.00,-1.00,-12.00,+14.00,+105.00,+47.00,+18.00,+14.00,+4.00,+0.00,-2.00,-34.00,+23.00,+64.00,+4.00
+2.00,-2.00,+5.00,+3.00,-15.00,-105.00,-2.00,+24.00,-1.00,-3.00,+3.00,+15.00,-40.00,-47.00,-32.00,-7.00
-7.00,+5.00,-4.00,-8.00,-12.00,-13.00,-17.00,-47.00,-29.00,-15.00,-8.00,-25.00,+64.00,+38.00,-11.00,-45.00
+2.00,+0.00,-2.00,-14.00,-21.00,-47.00,-7.00,+26.00,+21.00,-4.00,-5.00,-16.00,+30.00,-32.00,-1.00,+7.00
+1.00,-6.00,-4.00,+2.00,+7.00,-10.00,+0.00,+64.00,-21.00,-6.00,-3.00,+16.00,+34.00,+21.00,-12.00,-21.00
-6.00,-11.00,-11.00,-7.00,+5.00,+66.00,+0.00,-29.00,+13.00,+15.00,+3.00,-31.00,-40.00,-20.00,+67.00,+53.00
-4.00,+2.00,+3.00,+9.00,+20.00,+68.00,+22.00,+8.00,+10.00,+4.00,+0.00,-10.00,-82.00,+6.00,-4.00,-16.00
+2.00,+4.00,+2.00,+8.00,+11.00,+70.00,+17.00,+6.00,-9.00,-8.00,-5.00,+5.00,+5.00,+2.00,-9.00,+9.00
-3.00,-9.00,-6.00,-13.00,-21.00,-83.00,-24.00,-11.00,-12.00,+10.00,+9.00,+33.00,+66.00,+21.00,-30.00,-51.00
-3.00,-1.00,-3.00,-10.00,-21.00,-75.00,-4.00,+5.00,-19.00,-6.00,-1.00,+12.00,+23.00,+54.00,-28.00,-12.00
-4.00,-7.00,-3.00,+7.00,+10.00,+41.00,-2.00,-7.00,-1.00,+5.00,+4.00,-13.00,-24.00,+9.00,-18.00,-8.00
-3.00,+11.00,-3.00,-22.00,-11.00,-77.00,-18.00,-30.00,-23.00,-9.00,-4.00,-4.00,+49.00,+2.00,-43.00,-11.00
-1.00,+1.00,+4.00,+20.00,+43.00,+108.00,+36.00,-3.00,-7.00,+6.00,+1.00,-13.00,+38.00,-7.00,+17.00,+32.00
-5.00,-2.00,-3.00,-9.00,-11.00,-53.00,-22.00,+22.00,+1.00,+11.00,+6.00,-14.00,-25.00,+54.00,+89.00,+26.00
+6.00,+0.00,+3.00,+10.00,+6.00,-1.00,+13.00,+4.00,-26.00,-10.00,-5.00,+25.00,+88.00,-1.00,+34.00,-31.00
-2.00,+2.00,+2.00,-3.00,-21.00,-100.00,+22.00,-4.00,-26.00,-9.00,-7.00,-6.00,-51.00,-52.00,-48.00,-45.00
+7.00,-1.00,+1.00,-5.00,+3.00,-64.00,-32.00,-29.00,-1.00,-3.00,-1.00,+2.00,-52.00,-31.00,-52.00,+24.00
-5.00,+5.00,+1.00,-18.00,+48.00,+127.00,+63.00,+23.00,+9.00,+4.00,+2.00,+11.00,+83.00,+14.00,-12.00,-21.00
+3.00,-7.00,-2.00,+21.00,-7.00,+4.00,-9.00,-7.00,-29.00,-16.00,-10.00,-25.00,+5.00,-28.00,+3.00,-35.00
+4.00,+0.00,-3.00,+16.00,+3.00,-7.00,-26.00,-23.00,-1.00,-3.00,+2.00,-13.00,-70.00,-11.00,-17.00,+2.00
-5.00,+16.00,-1.00,+7.00,-33.00,-128.00,-74.00,-49.00,+2.00,+2.00,+2.00,+7.00,-103.00,+38.00,+13.00,+1.00
+5.00,+10.00,+1.00,+9.00,+8.00,+40.00,+105.00,+45.00,-7.00,+7.00,+3.00,+11.00,-80.00,-68.00,-31.00,+16.00
-3.00,+1.00,-4.00,-26.00,-11.00,-40.00,-14.00,-46.00,+26.00,+2.00,-3.00,-19.00,+12.00,-21.00,-28.00,+7.00
+0.00,-9.00,-1.00,-6.00,+1.00,+48.00,-32.00,+8.00,+13.00,-3.00,-4.00,-12.00,-39.00,+44.00,+41.00,+6.00
-2.00,-5.00,+0.00,-12.00,-19.00,-24.00,+13.00,+16.00,+31.00,+9.00,+5.00,+7.00,-34.00,-16.00,+106.00,+56.00
+7.00,-15.00,-2.00,+0.00,-16.00,-103.00,-36.00,-51.00,-50.00,-24.00,-15.00,-18.00,+68.00,+25.00,-16.00,-69.00
-6.00,-11.00,-1.00,+9.00,+13.00,+57.00,+4.00,+11.00,+9.00,+13.00,+12.00,+26.00,+1.00,+36.00,+2.00,-4.00
-4.00,-16.00,-7.00,-16.00,-21.00,-65.00,-83.00,-18.00,+16.00,+18.00,+11.00,+43.00,-66.00,+5.00,+33.00,+74.00
-2.00,+7.00,+12.00,+29.00,+46.00,+107.00,+91.00,+78.00,-12.00,-2.00,-1.00,-3.00,+114.00,-35.00,+33.00,+4.00
+8.00,+12.00,+5.00,+2.00,-12.00,-65.00,+37.00,+32.00,-10.00,-4.00,-1.00,+17.00,-59.00,-24.00,+37.00,+31.00
+1.00,-6.00,+1.00,+9.00,-2.00,-44.00,-44.00,+2.00,-5.00,-5.00,-9.00,-20.00,+48.00,+15.00,+88.00,-37.00
-2.00,-10.00,-6.00,-25.00,-8.00,-52.00,-45.00,-21.00,-7.00,-8.00,-6.00,-4.00,+36.00,-15.00,+1.00,-22.00
-6.00,+7.00,-3.00,-17.00,-21.00,-14.00,-19.00,-17.00,-13.00,-2.00,+0.00,-28.00,+55.00,+82.00,-102.00,-13.00
+8.00,+11.00,+9.00,+40.00,+29.00,+100.00,+33.00,+20.00,+18.00,+6.00,+5.00,+23.00,+27.00,-73.00,+22.00,+50.00
-5.00,-13.00,-6.00,-28.00,-17.00,-107.00,-45.00,-10.00,+14.00,+7.00,+2.00,-13.00,+61.00,+55.00,-16.00,+36.00
+3.00,+15.00,+3.00,+28.00,+33.00,+104.00,-24.00,+10.00,+9.00,+2.00,-3.00,+6.00,+87.00,-65.00,+41.00,+10.00
-4.00,-8.00,-5.00,-11.00,+7.00,+47.00,+87.00,-37.00,-26.00,-12.00,-6.00,-14.00,-12.00,-3.00,-64.00,-38.00
-1.00,-2.00,-1.00,-11.00,-6.00,-14.00,+26.00,+24.00,+24.00,+10.00,+6.00,+9.00,-10.00,+86.00,+59.00,+47.00
+0.00,+11.00,-7.00,-22.00,-25.00,-82.00,-5.00,-66.00,-14.00,-4.00,-1.00,-3.00,-38.00,-70.00,+36.00,+15.00
+3.00,+2.00,+3.00,+10.00,+14.00,+84.00,+38.00,+22.00,-16.00,-3.00,-1.00,+11.00,+91.00,+97.00,-43.00,+1.00
+3.00,-7.00,-5.00,+10.00,+5.00,+35.00,+5.00,-8.00,+8.00,-2.00,-3.00,-26.00,-74.00,-13.00,+36.00,-19.00
-6.00,-5.00,+0.00,+0.00,+12.00,+42.00,-38.00,-25.00,+6.00,+4.00,-1.00,+6.00,-45.00,-21.00,+1.00,-4.00
-1.00,-1.00,-4.00,-21.00,-22.00,-88.00,-37.00,+17.00,-12.00,-6.00,-7.00,+1.00,-47.00,-69.00,+67.00,-10.00
+1.00,-8.00,-2.00,+22.00,+24.00,+77.00,+43.00,-2.00,+21.00,+14.00,+7.00,+3.00,+86.00,-8.00,-85.00,+36.00
+10.00,+3.00,+11.00,+40.00,-3.00,-14.00,-94.00,-17.00,+10.00,+7.00,+1.00,+11.00,+114.00,+26.00,+69.00,-31.00
-10.00,-12.00,-14.00,-51.00,-21.00,-86.00,-103.00,-78.00,-35.00,-19.00,-5.00,-5.00,+20.00,-48.00,-117.00,-70.00
-7.00,+11.00,+0.00,+2.00,+20.00,+77.00,+93.00,+81.00,+19.00,+13.00,+3.00,-5.00,-51.00,+13.00,-57.00,+9.00
+7.00,+17.00,+15.00,+63.00,+40.00,+87.00,+43.00,+18.00,-13.00,+4.00,+6.00,+16.00,+16.00,+47.00,-22.00,-4.00
-2.00,-6.00,-1.00,-24.00,-8.00,-66.00,-77.00,-26.00,+3.00,-4.00,-5.00,-9.00,+61.00,-41.00,-7.00,-16.00
-6.00,-2.00,-2.00,-6.00,-5.00,-31.00,-38.00,+17.00,-7.00,-7.00,-4.00,-3.00,-1.00,+4.00,-7.00,-31.00
+5.00,+7.00,-1.00,+4.00,-27.00,-110.00,-78.00,+22.00,-20.00,-8.00,-4.00,-14.00,+108.00,-38.00,-47.00,-29.00
-2.00,-8.00,-8.00,-16.00,-8.00,+33.00,-67.00,+17.00,+10.00,-5.00,+0.00,+0.00,-110.00,-48.00,-46.00,+10.00
-8.00,-1.00,-5.00,-29.00,-1.00,+50.00,+0.00,-12.00,-8.00,-1.00,-2.00,+31.00,-118.00,-42.00,+12.00,+16.00
-1.00,+3.00,+0.00,+10.00,+6.00,+37.00,-24.00,+6.00,-7.00,-14.00,-10.00,-12.00,+88.00,-24.00,-1.00,-32.00
+1.00,-6.00,-3.00,-8.00,-16.00,-97.00,-32.00,-32.00,-3.00,-14.00,-14.00,-32.00,+6.00,+3.00,-76.00,+4.00
-10.00,-14.00,-10.00,-47.00,-33.00,-116.00,-64.00,-25.00,-34.00,-5.00,-5.00,-3.00,-98.00,-77.00,-10.00,-47.00
-8.00,-2.00,-4.00,-1.00,+13.00,+38.00,-11.00,+12.00,+35.00,+8.00,+3.00,-9.00,+54.00,-17.00,-33.00,+50.00
-3.00,+22.00,+19.00,+33.00,-5.00,-53.00,+1.00,+44.00,-9.00,+5.00,+9.00,-6.00,-46.00,-65.00,+47.00,-80.00
+8.00,+3.00,+8.00,+18.00,+33.00,+93.00,+123.00,+54.00,-42.00,-30.00,-17.00,-6.00,+9.00,+73.00,+62.00,-76.00
-9.00,-4.00,-10.00,-24.00,-25.00,-114.00,-4.00,-34.00,-15.00,+2.00,-2.00,-3.00,+25.00,+32.00,+3.00,-18.00
+2.00,+5.00,+0.00,+8.00,-7.00,-19.00,-40.00,+17.00,-26.00,-2.00,+1.00,+29.00,-21.00,+34.00,+60.00,+19.00
-4.00,-9.00,-5.00,-10.00,+6.00,+38.00,-8.00,-7.00,+18.00,+14.00,+3.00,-12.00,+44.00,+8.00,-41.00,+79.00
+0.00,+5.00,+5.00,+35.00,+18.00,+53.00,-9.00,-8.00,-20.00,-1.00,+4.00,+15.00,+40.00,-82.00,-12.00,-14.00
-8.00,+2.00,+5.00,-3.00,+10.00,-48.00,+127.00,-62.00,-66.00,-18.00,-9.00,-8.00,-35.00,+32.00,-24.00,-59.00
+10.00,+3.00,+1.00,+50.00,-21.00,-57.00,-9.00,+12.00,-11.00,-8.00,-6.00,+0.00,-68.00,-68.00,-5.00,-21.00
-8.00,+2.00,-1.00,-1.00,+11.00,+28.00,-56.00,+23.00,+41.00,+19.00,+10.00,+0.00,-98.00,+26.00,+34.00,+94.00
-7.00,+8.00,+2.00,-9.00,-29.00,-90.00,-47.00,-65.00,-19.00,-4.00,+4.00,+10.00,+35.00,-28.00,+30.00,+20.00
+5.00,+4.00,+5.00,+16.00,+56.00,+127.00,+120.00,+85.00,+15.00,+3.00,+0.00,+26.00,-60.00,+17.00,+56.00,+4.00
-2.00,-4.00,-2.00,-35.00,-21.00,-128.00,-46.00,-52.00,-31.00,-11.00,-7.00,-3.00,+127.00,-12.00,-36.00,-3.00
+3.00,-15.00,-9.00,-19.00,-14.00,-44.00,-13.00,-3.00,-15.00,-23.00,-10.00,-25.00,-21.00,-14.00,+53.00,+28.00
-5.00,-10.00,-11.00,-38.00,-9.00,-29.00,-88.00,+2.00,+60.00,+44.00,+19.00,+15.00,-59.00,-25.00,-1.00,+103.00
-1.00,+10.00,+4.00,-2.00,-4.00,+38.00,+44.00,+105.00,+49.00,+9.00,+7.00,-8.00,+45.00,-20.00,+99.00,+28.00
-5.00,-5.00,-3.00,-26.00,+17.00,+1.00,-3.00,-23.00,+17.00,-16.00,-14.00,-13.00,+51.00,+3.00,-4.00,-21.00
+4.00,+0.00,-4.00,-31.00,-22.00,-44.00,+84.00,+38.00,+62.00,+8.00,-7.00,+7.00,+115.00,-6.00,+35.00,+1.00
-2.00,-11.00,-8.00,-19.00,-21.00,-97.00,-70.00,+16.00,-5.00,-15.00,-11.00,+9.00,-97.00,-76.00,+80.00,-59.00
-2.00,+5.00,+0.00,+10.00,+16.00,+65.00,+46.00,+36.00,+55.00,+13.00,+7.00,-27.00,-2.00,+46.00,-72.00,+53.00
+1.00,-19.00,-1.00,-27.00,+11.00,-18.00,+1.00,-63.00,-8.00,-3.00,+9.00,+12.00,-36.00,-3.00,-4.00,-24.00
+4.00,+8.00,+7.00,+5.00,+3.00,+19.00,+47.00,+15.00,-35.00,-15.00,-10.00,-24.00,+50.00,-13.00,-87.00,-12.00
+0.00,-22.00,-17.00,-29.00,-26.00,-54.00,+39.00,+47.00,-14.00,-4.00,+1.00,+0.00,-93.00,-24.00,-118.00,-48.00
+2.00,+4.00,+0.00,+10.00,-18.00,-58.00,-13.00,-44.00,+29.00,+5.00,-3.00,-21.00,+111.00,-44.00,+52.00,+67.00
-10.00,+19.00,-4.00,-17.00,+7.00,+34.00,-62.00,+3.00,-12.00,-5.00,-5.00,+6.00,+51.00,+48.00,+63.00,+26.00
+0.00,-10.00,-3.00,-8.00,-25.00,-63.00,+82.00,-18.00,-2.00,+9.00,+1.00,+3.00,+93.00,+60.00,-48.00,-12.00
+0.00,+24.00,+5.00,-5.00,+29.00,+127.00,-4.00,-18.00,+5.00,-1.00,-2.00,-1.00,-20.00,+38.00,+10.00,-20.00
-2.00,-9.00,-7.00,-20.00,-30.00,-116.00,-100.00,-41.00,-23.00,-12.00,-4.00,+41.00,+13.00,+17.00,-67.00,-40.00
-8.00,-2.00,-8.00,-55.00,-48.00,-102.00,+10.00,-31.00,-50.00,-10.00,-11.00,-31.00,-72.00,-77.00,+61.00,-46.00
+8.00,-8.00,+5.00,+73.00,+66.00,+123.00,+16.00,+24.00,+33.00,+15.00,+6.00,-10.00,-31.00,-6.00,+91.00,+16.00
-4.00,-10.00,+1.00,+2.00,+31.00,+55.00,+61.00,+10.00,-39.00,-1.00,+3.00,+23.00,-5.00,-32.00,+3.00,+62.00
+7.00,+0.00,+5.00,+25.00,+21.00,+45.00,+44.00,+8.00,-6.00,-9.00,-8.00,-10.00,-24.00,-9.00,+104.00,-42.00
+10.00,-11.00,-3.00,-11.00,-36.00,-128.00,+24.00,+4.00,-8.00,+11.00,+2.00,+10.00,+65.00,+4.00,-40.00,+22.00
-7.00,-15.00,-9.00,-28.00,-12.00,+69.00,-70.00,+5.00,+21.00,+6.00,+2.00,-7.00,-31.00,-45.00,-25.00,+13.00
-2.00,+14.00,+12.00,+47.00,+28.00,+89.00,+58.00,+56.00,-10.00,-13.00,+1.00,-6.00,+23.00,-12.00,-30.00,-18.00
+1.00,+5.00,+7.00,-4.00,+3.00,-29.00,+17.00,+4.00,+8.00,-2.00,-4.00,-16.00,+9.00,-1.00,+0.00,-11.00
+3.00,-19.00,-7.00,+9.00,-14.00,-28.00,-61.00,+16.00,+39.00,+1.00,+1.00,-11.00,+33.00,+9.00,+53.00,+28.00
+2.00,-6.00,-14.00,-8.00,-29.00,-99.00,-82.00,-14.00,-43.00,-12.00,-3.00,+18.00,+17.00,+29.00,-15.00,-18.00
-2.00,-27.00,-18.00,-23.00,-26.00,+65.00,-87.00,-29.00,+87.00,+0.00,-8.00,-43.00,+127.00,+36.00,+32.00,-1.00
-3.00,-1.00,+2.00,+4.00,-24.00,-82.00,-128.00,+32.00,-83.00,-10.00,+0.00,+28.00,+20.00,-52.00,+34.00,+51.00
+0.00,+17.00,+8.00,+17.00,+44.00,+116.00,+49.00,+5.00,+87.00,+6.00,-1.00,-24.00,+127.00,+76.00,-13.00,+28.00
+0.00,-16.00,-9.00,-14.00,-29.00,-111.00,-89.00,-44.00,-7.00,+3.00,+3.00,+8.00,-66.00,+34.00,+31.00,-10.00
-3.00,-13.00,-2.00,-2.00,+1.00,+49.00,+63.00,+8.00,-14.00,-8.00,-1.00,+10.00,+27.00,+16.00,-36.00,+10.00
+5.00,+6.00,+1.00,-10.00,-21.00,-107.00,-115.00,-13.00,+29.00,+2.00,-6.00,-54.00,+90.00,+19.00,+112.00,-17.00
-4.00,-6.00,-7.00,-6.00,+6.00,+51.00,-53.00,+24.00,-14.00,+3.00,+0.00,+6.00,-63.00,-56.00,-11.00,+10.00
-3.00,+0.00,+0.00,-2.00,+12.00,-3.00,-49.00,-29.00,-14.00,-8.00,-2.00,+6.00,-4.00,+18.00,-3.00,+27.00
+10.00,+0.00,+5.00,+37.00,-6.00,-78.00,+20.00,-9.00,-9.00,-2.00,-3.00,-9.00,+9.00,-10.00,-80.00,-1.00
+1.00,-5.00,-5.00,-6.00,-3.00,+5.00,-42.00,-10.00,+32.00,-6.00,-8.00,-10.00,+98.00,+17.00,-3.00,-2.00
+3.00,-12.00,-6.00,-40.00,+8.00,+34.00,+66.00,+20.00,-46.00,-10.00,+0.00,+15.00,+25.00,-77.00,-47.00,-42.00
-8.00,+13.00,+6.00,+21.00,+15.00,+18.00,-7.00,-35.00,-4.00,-5.00,+0.00,-23.00,+17.00,+4.00,-79.00,-19.00
-1.00,+14.00,+8.00,+26.00,+12.00,+57.00,+65.00,+19.00,+8.00,+5.00,-3.00,-17.00,+52.00,-59.00,-56.00,+24.00
-4.00,-16.00,-4.00,-13.00,-33.00,-84.00,+21.00,+8.00,+15.00,-6.00,-6.00,+18.00,-87.00,-43.00,-4.00,-5.00
+2.00,+9.00,+2.00,+19.00,+15.00,+48.00,+47.00,-27.00,-19.00,-5.00,-2.00,+10.00,+51.00,+47.00,-15.00,-21.00
+3.00,+1.00,+4.00,-1.00,-11.00,-56.00,-13.00,-8.00,-1.00,+0.00,-3.00,-12.00,+92.00,+20.00,+3.00,-13.00
-9.00,+2.00,+1.00,-24.00,+12.00,-2.00,-37.00,-1.00,+6.00,+6.00,+0.00,+0.00,-25.00,+17.00,+44.00,+33.00
-4.00,-13.00,-7.00,-27.00,-8.00,-67.00,+7.00,-13.00,+16.00,+15.00,+6.00,-5.00,-86.00,-43.00,+40.00,+75.00
+6.00,+13.00,+10.00,+39.00,-21.00,-64.00,-67.00,+8.00,-2.00,-3.00,-4.00,-11.00,-92.00,+4.00,+52.00,-13.00
-6.00,+14.00,+1.00,-18.00,+13.00,-15.00,+57.00,+17.00,-31.00,-17.00,-8.00,+1.00,-3.00,-39.00,+35.00,-35.00
+8.00,-5.00,+1.00,-11.00,-18.00,-128.00,-17.00,-7.00,+22.00,+6.00,+1.00,+9.00,+100.00,+89.00,+95.00,+25.00
-7.00,+3.00,+2.00,+3.00,+50.00,+127.00,+17.00,-65.00,-11.00,+3.00,+6.00,-6.00,-87.00,-32.00,-111.00,-14.00
-9.00,-14.00,-3.00,-26.00,-32.00,-94.00,-96.00,-2.00,-10.00,+2.00,+7.00,+9.00,+15.00,+1.00,+7.00,+11.00
-1.00,+7.00,+4.00,+15.00,+9.00,+14.00,+73.00,+62.00,-16.00,-3.00,-2.00,+2.00,+12.00,-6.00,-42.00,-11.00
+3.00,-2.00,-4.00,+6.00,-16.00,-41.00,+15.00,-4.00,+16.00,-4.00,-4.00,-13.00,-14.00,-43.00,+25.00,+3.00
-4.00,+9.00,-3.00,-50.00,-33.00,-105.00,+96.00,-7.00,-12.00,+7.00,+3.00,+5.00,+59.00,+2.00,-37.00,+0.00
-2.00,-14.00,-2.00,+14.00,+40.00,+97.00,+72.00,+4.00,+2.00,+0.00,+1.00,+11.00,+14.00,+6.00,-21.00,+13.00
+2.00,+4.00,-3.00,+27.00,+1.00,+29.00,-27.00,+3.00,-22.00,-1.00,-6.00,-17.00,-30.00,-1.00,-78.00,-34.00
-2.00,-2.00,-5.00,-42.00,-22.00,-53.00,-65.00,-16.00,-23.00,-7.00,+2.00,+2.00,+0.00,-32.00,-6.00,-40.00
+10.00,+6.00,+3.00,+45.00,-2.00,+52.00,-17.00,-28.00,+1.00,+6.00,+1.00,-1.00,+127.00,+13.00,+42.00,-8.00
-11.00,+4.00,+1.00,-26.00,+19.00,-10.00,-11.00,-66.00,+14.00,-7.00,-6.00,-8.00,+18.00,-22.00,-13.00,-13.00
-5.00,-5.00,+2.00,-15.00,-2.00,-101.00,+60.00,+28.00,+2.00,-1.00,-7.00,-1.00,-10.00,-19.00,+41.00,+23.00
+1.00,-11.00,-4.00,-9.00,+9.00,-90.00,-88.00,-23.00,-27.00,+1.00,+6.00,+27.00,-82.00,+10.00,-33.00,-16.00
+6.00,-4.00,-6.00,+1.00,+3.00,+81.00,+9.00,+12.00,+6.00,-8.00,-5.00,-7.00,+15.00,+55.00,+38.00,-6.00
+1.00,-8.00,-6.00,-16.00,+4.00,+31.00,-29.00,+5.00,+12.00,+3.00,-1.00,-4.00,-30.00,+7.00,+3.00,+67.00
+2.00,+2.00,-3.00,-8.00,-2.00,+33.00,-29.00,-38.00,+4.00,-1.00,-2.00,-19.00,+16.00,-2.00,+29.00,-65.00
-5.00,-4.00,-3.00,-5.00,-9.00,-10.00,-53.00,-33.00,-7.00,+7.00,+6.00,+15.00,-101.00,+25.00,+48.00,+11.00
-5.00,+4.00,+4.00,-1.00,+2.00,-59.00,-24.00,-6.00,-18.00,-7.00,-2.00,+5.00,+55.00,-23.00,-41.00,-13.00
-1.00,-7.00,+0.00,+6.00,+8.00,+24.00,+59.00,+87.00,+6.00,-3.00,-1.00,-5.00,+21.00,+38.00,+7.00,+0.00
-4.00,-6.00,-5.00,-7.00,-8.00,-26.00,+5.00,+61.00,-14.00,-6.00,-1.00,+35.00,+114.00,-8.00,+84.00,+26.00
+10.00,+1.00,-3.00,+6.00,-23.00,-60.00,+86.00,+17.00,+19.00,+3.00,-2.00,-24.00,+127.00,+89.00,-44.00,-20.00
-2.00,-4.00,+1.00,+18.00,+67.00,+101.00,-32.00,+9.00,-33.00,-16.00,+7.00,+21.00,+35.00,+53.00,+6.00,-63.00
-2.00,+8.00,+3.00,-17.00,-15.00,-122.00,-60.00,+8.00,-13.00,+24.00,+4.00,+4.00,-39.00,+10.00,-14.00,+2.00
+1.00,-1.00,+0.00,-7.00,-41.00,-104.00,+63.00,-6.00,+82.00,+26.00,+5.00,-23.00,-43.00,+2.00,+15.00,+64.00
-6.00,+3.00,+1.00,-9.00,-2.00,-54.00,+34.00,-6.00,-22.00,+0.00,+2.00,+12.00,+32.00,-8.00,-72.00,-30.00
-4.00,+2.00,-2.00,-27.00,-6.00,-45.00,+46.00,+4.00,-11.00,-6.00,-3.00,-11.00,-80.00,-14.00,+10.00,-19.00
-4.00,+2.00,+1.00,-19.00,-8.00,-2.00,+89.00,+26.00,-12.00,-14.00,-4.00,-4.00,-59.00,-12.00,-21.00,-2.00
+4.00,-3.00,-5.00,+2.00,+12.00,+105.00,-6.00,-22.00,+6.00,-9.00,-6.00,-10.00,+17.00,+1.00,+44.00,+4.00
+2.00,+1.00,-1.00,+11.00,+5.00,+11.00,-6.00,+8.00,-14.00,+4.00,-5.00,+7.00,-7.00,-40.00,-47.00,+22.00
-3.00,+3.00,-2.00,-18.00,-8.00,-48.00,+6.00,-5.00,-14.00,-25.00,-7.00,+9.00,-69.00,+4.00,-18.00,-13.00
+3.00,-12.00,-8.00,+17.00,-8.00,+13.00,-15.00,-4.00,-5.00,+18.00,+1.00,-2.00,+7.00,+31.00,-56.00,-14.00
+2.00,-4.00,-4.00,-31.00,-19.00,-98.00,+6.00,-21.00,-3.00,-4.00,+5.00,+11.00,-4.00,+18.00,-28.00,+14.00
-4.00,+5.00,+4.00,+10.00,+34.00,+127.00,+30.00,+23.00,+11.00,-9.00,-3.00,+4.00,+10.00,-20.00,+45.00,+2.00
+2.00,-15.00,-6.00,+3.00,+2.00,+38.00,-32.00,-7.00,+19.00,+11.00,+5.00,+15.00,+77.00,+23.00,-51.00,-39.00
-4.00,-8.00,-1.00,-2.00,-10.00,-54.00,-4.00,-24.00,-1.00,-18.00,-7.00,-13.00,+50.00,+6.00,-39.00,-31.00
-7.00,-2.00,-2.00,-9.00,-25.00,-88.00,-99.00,-24.00,-19.00,-1.00,-6.00,-25.00,+35.00,+9.00,+87.00,+3.00
+5.00,+17.00,+8.00,+83.00,+84.00,+102.00,-70.00,+40.00,-13.00,-10.00,-15.00,-34.00,+66.00,+37.00,+11.00,-19.00
+0.00,+1.00,+2.00,+2.00,-2.00,-94.00,+52.00,-16.00,+1.00,+4.00,-2.00,+21.00,+23.00,+58.00,-61.00,-17.00
+1.00,+5.00,-1.00,-12.00,-21.00,-128.00,-30.00,-42.00,-3.00,-1.00,+3.00,+6.00,+4.00,+11.00,+48.00,-57.00
-6.00,-2.00,+4.00,-7.00,+0.00,-54.00,+39.00,-12.00,+8.00,+5.00,+6.00,+12.00,+8.00,+55.00,+8.00,+11.00
-3.00,-10.00,+1.00,-11.00,-26.00,-109.00,-3.00,+14.00,+8.00,-4.00,+1.00,+0.00,+98.00,+11.00,+33.00,+24.00
-4.00,+40.00,+13.00,+3.00,-7.00,-25.00,+34.00,-12.00,-6.00,+9.00,+3.00,-10.00,-109.00,-22.00,-62.00,+38.00
+2.00,-6.00,-1.00,+10.00,+10.00,-47.00,+15.00,+7.00,-5.00,-1.00,-3.00,-8.00,-5.00,-11.00,+10.00,+30.00
+2.00,-6.00,+0.00,+8.00,+4.00,+44.00,-104.00,-20.00,-9.00,+0.00,-2.00,+14.00,+30.00,+1.00,-23.00,+3.00
-5.00,-18.00,-5.00,-2.00,+1.00,+58.00,+30.00,-7.00,+2.00,-3.00,+1.00,-5.00,-28.00,+8.00,-12.00,+8.00
+4.00,-16.00,-1.00,-12.00,-13.00,-5.00,+32.00,+25.00,-4.00,+2.00,-2.00,-8.00,-35.00,-36.00,+69.00,+24.00
+1.00,+17.00,+6.00,+10.00,+8.00,+23.00,+4.00,+8.00,-3.00,-8.00,-1.00,-3.00,+42.00,+5.00,+32.00,-5.00
+7.00,+16.00,-3.00,-22.00,-22.00,-116.00,+6.00,-28.00,-11.00,+1.00,+9.00,+42.00,-101.00,-73.00,-25.00,-13.00
+0.00,-27.00,+3.00,+6.00,+11.00,+72.00,+20.00,-4.00,-21.00,+10.00,+8.00,+7.00,-21.00,-30.00,-25.00,+28.00
-9.00,+27.00,-11.00,-37.00,+9.00,+111.00,-82.00,-3.00,+28.00,+16.00,+5.00,-21.00,+97.00,+68.00,+7.00,+6.00
+4.00,+21.00,+3.00,+29.00,-7.00,-50.00,+13.00,-14.00,-35.00,-20.00,-4.00,+14.00,+0.00,-17.00,-13.00,-42.00
+3.00,+0.00,+2.00,+23.00,+10.00,-21.00,+29.00,+30.00,+14.00,+6.00,+2.00,-8.00,-77.00,+11.00,-20.00,+9.00
-4.00,-11.00,-6.00,-8.00,-12.00,-60.00,-101.00,-20.00,-14.00,-6.00,-3.00,+6.00,+13.00,+13.00,+26.00,-29.00
+7.00,+8.00,+7.00,+26.00,-3.00,-41.00,+6.00,-23.00,-9.00,-2.00,-2.00,-7.00,-1.00,-14.00,+21.00,+22.00
+4.00,-12.00,-3.00,+12.00,+2.00,+21.00,-34.00,-12.00,+29.00,+14.00,+2.00,-9.00,-2.00,-4.00,-39.00,+63.00
+7.00,-3.00,+1.00,+17.00,+24.00,+31.00,+34.00,+20.00,-22.00,-11.00,-6.00,-6.00,-17.00,+25.00,-23.00,-4.00
+14.00,+8.00,-3.00,+2.00,-28.00,-3.00,-66.00,-33.00,-3.00,-2.00,-6.00,-2.00,-70.00,-14.00,-9.00,-44.00
-4.00,-30.00,-7.00,+3.00,-10.00,-120.00,+51.00,-31.00,-19.00,+2.00,-2.00,-10.00,-22.00,-49.00,+22.00,+17.00
-2.00,+7.00,-1.00,-10.00,+3.00,+0.00,+6.00,+5.00,+26.00,+0.00,+2.00,-5.00,+2.00,+19.00,+19.00,+23.00
+0.00,+3.00,+6.00,+17.00,+20.00,+55.00,-18.00,-16.00,-17.00,+4.00,-3.00,+3.00,+5.00,-31.00,-4.00,-20.00
-3.00,+9.00,-1.00,-15.00,-26.00,-128.00,+12.00,-19.00,+8.00,+0.00,-2.00,-17.00,-10.00,+17.00,-27.00,+3.00
+2.00,-5.00,+0.00,+9.00,+14.00,+97.00,-44.00,+33.00,-1.00,-17.00,-8.00,+11.00,+83.00,-2.00,+17.00,-7.00
-4.00,-10.00,-4.00,-5.00,+5.00,+35.00,+12.00,-6.00,-38.00,-12.00,-5.00,-1.00,-95.00,-28.00,+14.00,-15.00
-4.00,-4.00,-5.00,-11.00,-1.00,+51.00,-17.00,-5.00,+29.00,+17.00,-1.00,+6.00,+33.00,-12.00,-59.00,+19.00
-2.00,+7.00,-2.00,-8.00,-9.00,-44.00,+10.00,-2.00,+10.00,+0.00,+2.00,+7.00,-49.00,+16.00,+27.00,-1.00
-4.00,-2.00,-4.00,-1.00,-10.00,-22.00,-53.00,-5.00,+4.00,+0.00,-1.00,-9.00,-53.00,-59.00,+21.00,-19.00
-4.00,-7.00,-5.00,-35.00,-30.00,-64.00,+86.00,+36.00,+21.00,-7.00,-4.00,-8.00,+29.00,+3.00,-26.00,-14.00
-7.00,+9.00,+6.00,+29.00,+58.00,+127.00,+53.00,+25.00,-53.00,-7.00,-3.00,-3.00,+81.00,+8.00,+33.00,-27.00
-5.00,+10.00,+3.00,-2.00,-1.00,-62.00,-31.00,-4.00,-9.00,+7.00,+2.00,-14.00,-3.00,+2.00,+4.00,+4.00
+4.00,+5.00,+8.00,+30.00,+17.00,+3.00,+94.00,+50.00,-15.00,-5.00,-2.00,+15.00,-15.00,-42.00,+44.00,+0.00
-8.00,-8.00,-5.00,-26.00,-1.00,+42.00,-11.00,+3.00,-16.00,-10.00,-5.00,-27.00,+30.00,-7.00,-34.00,-16.00
+3.00,-2.00,-4.00,+42.00,-12.00,+19.00,-58.00,-3.00,-37.00,-10.00,-4.00,+13.00,-61.00,+10.00,-63.00,-13.00
-7.00,+9.00,-2.00,+0.00,+11.00,+63.00,+29.00,+7.00,+65.00,+17.00,+2.00,+11.00,+89.00,-9.00,-29.00,+24.00
-4.00,-17.00,-6.00,-30.00,-17.00,-102.00,-62.00,+61.00,+17.00,+9.00,+10.00,+19.00,-46.00,+2.00,+27.00,+28.00
+6.00,+5.00,+6.00,+22.00,+20.00,+81.00,-8.00,-5.00,+1.00,+6.00,+2.00,+2.00,+121.00,-22.00,+6.00,+3.00
-3.00,+6.00,-1.00,-8.00,-13.00,-40.00,-5.00,+18.00,+12.00,+9.00,+2.00,+0.00,+16.00,+0.00,+21.00,-4.00
-4.00,-6.00,-2.00,+3.00,+1.00,+11.00,-36.00,-18.00,-48.00,-8.00,-2.00,+2.00,+7.00,-16.00,-21.00,-8.00
+0.00,-3.00,-7.00,-7.00,-13.00,+1.00,-53.00,-15.00,-115.00,-11.00,-6.00,-7.00,-33.00,+15.00,-4.00,-27.00
+1.00,+2.00,+4.00,+0.00,-5.00,-38.00,-10.00,+3.00,-45.00,-4.00,+1.00,+8.00,-29.00,-19.00,+5.00,+47.00
-2.00,+0.00,-3.00,-14.00,+3.00,+13.00,-33.00,-13.00,+45.00,+17.00,+3.00,-8.00,-6.00,-13.00,-11.00,+4.00
+2.00,-17.00,-2.00,-2.00,-2.00,+0.00,-8.00,-2.00,+44.00,+2.00,+1.00,+27.00,+15.00,-17.00,+36.00,+23.00
+4.00,-5.00,-1.00,-13.00,-5.00,-24.00,+13.00,-18.00,+80.00,-8.00,-4.00,-14.00,+20.00,-17.00,-18.00,+33.00
+1.00,+8.00,-1.00,-4.00,+9.00,+4.00,+12.00,+3.00,+17.00,-27.00,-5.00,-1.00,-28.00,+6.00,-14.00,-39.00
-3.00,-32.00,-2.00,+0.00,+12.00,+33.00,-55.00,-35.00,+82.00,+28.00,-3.00,-15.00,+47.00,+9.00,+11.00,+7.00
-5.00,+19.00,-1.00,+6.00,-5.00,-14.00,+6.00,-2.00,-68.00,-53.00,+0.00,+1.00,-49.00,-9.00,+3.00,-32.00
+2.00,+4.00,+3.00,+9.00,+15.00,+99.00,+5.00,-13.00,+125.00,+96.00,+17.00,+22.00,+35.00,+51.00,+39.00,+32.00
+0.00,+3.00,-3.00,-18.00,-12.00,-60.00,-20.00,-13.00,+15.00,+10.00,+3.00,-3.00,-102.00,+31.00,+45.00,+18.00
-3.00,-27.00,-5.00,-6.00,-1.00,+17.00,+18.00,+22.00,-8.00,-23.00,-7.00,-4.00,-69.00,-28.00,-9.00,-15.00
+0.00,+46.00,+4.00,+7.00,-1.00,-31.00,-2.00,+2.00,-3.00,+2.00,-3.00,-3.00,+4.00,-26.00,-16.00,-12.00
-4.00,-2.00,-1.00,-10.00,-2.00,-1.00,-3.00,-19.00,-39.00,-37.00,-10.00,-17.00,+26.00,-7.00,-22.00,-23.00
+7.00,+5.00,+0.00,+16.00,-6.00,-91.00,+30.00,+14.00,+0.00,-3.00,+1.00,-1.00,+44.00,-2.00,+66.00,-17.00
-2.00,-32.00,-3.00,-18.00,-2.00,+5.00,-70.00,-15.00,+13.00,+1.00,+2.00,+1.00,+34.00,+61.00,+36.00,+20.00
+3.00,-18.00,-1.00,+16.00,+4.00,+73.00,-15.00,+9.00,-27.00,-7.00,-1.00,-21.00,+7.00,+17.00,-8.00,+9.00
-4.00,+8.00,+4.00,+28.00,+34.00,+97.00,+31.00,-6.00,-37.00,-13.00,-7.00,-7.00,+21.00,-22.00,-12.00,-13.00
-3.00,-5.00,-4.00,-6.00,-5.00,-27.00,-29.00,+1.00,+9.00,+16.00,+3.00,+2.00,-43.00,-16.00,-13.00,-12.00
-1.00,+15.00,-1.00,-7.00,+6.00,+15.00,+12.00,-6.00,-9.00,-3.00,+1.00,+0.00,-3.00,-19.00,+6.00,+20.00
+1.00,-10.00,-3.00,-14.00,-2.00,-10.00,+11.00,+2.00,+85.00,+8.00,+0.00,+1.00,+8.00,-5.00,+8.00,-2.00
-2.00,-6.00,-7.00,-21.00,-18.00,-50.00,-3.00,+1.00,+51.00,-6.00,-2.00,-5.00,-17.00,-10.00,-9.00,-6.00
-7.00,-7.00,+0.00,-1.00,+1.00,+23.00,-33.00,+23.00,+27.00,+5.00,-3.00,-27.00,+46.00,+5.00,-42.00,-8.00
+1.00,+5.00,+4.00,+9.00,-4.00,-94.00,+75.00,-4.00,-26.00,-18.00,-4.00,-3.00,-7.00,-55.00,-26.00,-1.00
+1.00,-1.00,+4.00,+10.00,+13.00,+81.00,+25.00,+45.00,-29.00,-2.00,-4.00,-9.00,+48.00,+50.00,+16.00,-14.00
-1.00,+7.00,-3.00,-21.00,-10.00,-9.00,-25.00,+22.00,-8.00,-30.00,-3.00,+10.00,-123.00,-27.00,-19.00,-26.00
-4.00,+11.00,-3.00,-6.00,+2.00,+13.00,-7.00,+0.00,-66.00,+18.00,+4.00,+1.00,+28.00,+11.00,-8.00,-6.00
-1.00,-28.00,-4.00,-16.00,-22.00,-45.00,+12.00,+7.00,+95.00,+7.00,+6.00,-1.00,+75.00,+5.00,+6.00,+55.00
-3.00,-4.00,-1.00,+12.00,+2.00,+31.00,+0.00,-10.00,+31.00,+85.00,+17.00,+8.00,-45.00,+10.00,-16.00,+18.00
+6.00,-26.00,+6.00,+24.00,+20.00,+43.00,+13.00,+23.00,-80.00,-50.00,-8.00,-10.00,+28.00,-15.00,-19.00,-24.00
+1.00,+23.00,+2.00,-14.00,+7.00,+36.00,-27.00,-22.00,+18.00,+22.00,+10.00,+17.00,+45.00,+38.00,+22.00,+24.00
+0.00,+10.00,-10.00,-22.00,-17.00,-21.00,-106.00,-17.00,-107.00,-37.00,-5.00,+2.00,+6.00,-20.00,-2.00,-48.00
-3.00,+12.00,+2.00,+0.00,+16.00,+30.00,+90.00,+10.00,-53.00,-22.00,-12.00,-6.00,+19.00,-9.00,+10.00,+2.00
-1.00,-19.00,-8.00,-19.00,-21.00,-45.00,-38.00,-23.00,-37.00,+0.00,-10.00,-20.00,+26.00,+27.00,+8.00,+2.00
-1.00,+4.00,+2.00,-3.00,+2.00,+13.00,-1.00,-2.00,-11.00,-18.00,-9.00,+14.00,-114.00,-19.00,-20.00,-5.00
-3.00,+13.00,+0.00,-1.00,-2.00,-41.00,-34.00,-3.00,-29.00,-1.00,-4.00,-12.00,+19.00,+11.00,+3.00,-10.00
+1.00,-19.00,-4.00,-3.00,-2.00,-1.00,+30.00,-2.00,-8.00,-18.00,+0.00,+16.00,-11.00,-9.00,-1.00,-14.00
-7.00,+12.00,-2.00,-19.00,-11.00,-21.00,-3.00,-26.00,-38.00,+10.00,+3.00,-2.00,+50.00,+7.00,+1.00,-9.00
-2.00,-23.00,+1.00,+7.00,+13.00,+33.00,+15.00,+13.00,+19.00,-3.00,-2.00,-1.00,-4.00,-10.00,-6.00,+6.00
-1.00,+15.00,+5.00,-4.00,-1.00,+26.00,+15.00,+0.00,+16.00,+6.00,+7.00,+0.00,-16.00,-6.00,+9.00,-3.00
-1.00,-1.00,+1.00,-8.00,-4.00,-36.00,-9.00,-14.00,-4.00,-4.00,-8.00,-13.00,-41.00,-11.00,-2.00,-13.00
+0.00,+1.00,-2.00,-2.00,-4.00,-7.00,-3.00,-4.00,+121.00,+13.00,-1.00,-2.00,-3.00,-58.00,-19.00,-4.00
+5.00,-3.00,+1.00,-8.00,-25.00,-68.00,-20.00,+5.00,+20.00,-21.00,+2.00,+6.00,+28.00,+17.00,-11.00,+3.00
-1.00,+1.00,+0.00,+9.00,+11.00,+68.00,+78.00,+1.00,+106.00,+65.00,+24.00,+14.00,-6.00,+13.00,+13.00,-9.00
+0.00,+6.00,-2.00,+3.00,+9.00,-15.00,-28.00,-6.00,+96.00,-31.00,-16.00,-5.00,-21.00,-29.00,+30.00,+58.00
-5.00,+13.00,+1.00,+1.00,-1.00,+44.00,+53.00,+16.00,+6.00,-39.00,-19.00,-4.00,+113.00,+20.00,+16.00,+75.00
+4.00,-6.00,+0.00,+4.00,-7.00,-27.00,-30.00,-7.00,-73.00,-55.00,+7.00,+10.00,-45.00,-68.00,+44.00,+45.00
+1.00,-74.00,+1.00,-2.00,-12.00,-39.00,+12.00,+1.00,-45.00,-21.00,-5.00,-10.00,+83.00,+7.00,+5.00,+36.00
+3.00,+30.00,+5.00,+10.00,+14.00,+13.00,-14.00,-5.00,-97.00,+48.00,+25.00,+28.00,-44.00,+70.00,+17.00,-60.00
+1.00,-30.00,-6.00,-14.00,-10.00,+41.00,-20.00,-19.00,-26.00,+24.00,+9.00,-15.00,+7.00,+49.00,+2.00,-29.00
+8.00,+71.00,+13.00,+51.00,+17.00,+39.00,+30.00,+12.00,-43.00,+14.00,-3.00,+20.00,+11.00,+6.00,+0.00,-50.00
-6.00,+35.00,-15.00,-7.00,+1.00,-3.00,+12.00,+12.00,-60.00,-56.00,-9.00,-3.00,-27.00,+5.00,+8.00,-36.00
-2.00,-5.00,+10.00,-4.00,-7.00,-20.00,+3.00,-5.00,-14.00,-9.00,-4.00,-12.00,+9.00,-18.00,-14.00,-61.00
-1.00,-33.00,-6.00,+6.00,-13.00,-101.00,-32.00,-16.00,-18.00,-6.00,-2.00,-6.00,-28.00,-4.00,+5.00,+0.00
-1.00,-13.00,-2.00,+9.00,+7.00,+79.00,+14.00,-5.00,+19.00,+29.00,-1.00,-13.00,+22.00,+27.00,-16.00,-17.00
+6.00,-2.00,-1.00,+34.00,+18.00,+0.00,-4.00,+8.00,-24.00,+6.00,+2.00,+5.00,-59.00,-7.00,-20.00,+6.00
-1.00,-6.00,-5.00,+0.00,-9.00,+1.00,+6.00,-7.00,-14.00,-9.00,-10.00,-15.00,+52.00,-6.00,-24.00,-7.00
+3.00,+4.00,-1.00,+4.00,+3.00,-26.00,+10.00,+6.00,-60.00,+7.00,+0.00,+3.00,-13.00,-3.00,-11.00,-28.00
-5.00,-22.00,-3.00,-5.00,-7.00,-8.00,-10.00,-9.00,+10.00,-2.00,-8.00,-8.00,+9.00,-17.00,-19.00,-21.00
+0.00,+6.00,-1.00,+11.00,-5.00,-10.00,-1.00,-3.00,+22.00,+11.00,+1.00,+6.00,+3.00,+7.00,+13.00,+25.00
-1.00,-23.00,-12.00,-5.00,-12.00,-33.00,+1.00,-9.00,-39.00,-47.00,-3.00,-4.00,-7.00,-22.00,+1.00,-12.00
+2.00,-10.00,-2.00,+0.00,-1.00,+7.00,-49.00,-8.00,-16.00,+32.00,+1.00,-14.00,+64.00,+7.00,-2.00,+4.00
-3.00,+66.00,-8.00,-6.00,+6.00,+1.00,+78.00,+19.00,+6.00,+13.00,-5.00,+0.00,-88.00,-15.00,-3.00,+5.00
+3.00,-102.00,-19.00,-4.00,-1.00,+9.00,+0.00,-7.00,-30.00,-26.00,-13.00,-3.00,-6.00,-1.00,-5.00,-19.00
-8.00,+40.00,+47.00,-14.00,-17.00,-58.00,-64.00,-9.00,+16.00,-3.00,+6.00,+6.00,+5.00,-1.00,-8.00,+17.00
-2.00,-22.00,-15.00,-26.00,-30.00,-67.00,-1.00,-14.00,+45.00,-13.00,+4.00,+1.00,-7.00,-8.00,-16.00,-2.00
-5.00,+18.00,+10.00,+9.00,+38.00,+69.00,+20.00,+11.00,-17.00,+19.00,-2.00,-8.00,+46.00,+5.00,-20.00,-36.00
-7.00,+38.00,-12.00,-25.00,-15.00,-74.00,-75.00,-21.00,-32.00,+3.00,+7.00,+4.00,-10.00,+7.00,+9.00,+19.00
+1.00,-42.00,-16.00,+40.00,+41.00,+44.00,+65.00,+23.00,+13.00,-23.00,-21.00,-10.00,+34.00,+3.00,+0.00,+21.00
-3.00,-58.00,+6.00,+8.00,-8.00,-61.00,-21.00,-5.00,+15.00,+15.00,-1.00,+4.00,-38.00,-14.00,-4.00,-18.00
-2.00,-6.00,-5.00,-21.00,-6.00,-10.00,-9.00,-2.00,-14.00,+7.00,+16.00,-6.00,+21.00,+7.00,-4.00,+1.00
+3.00,-8.00,-4.00,+4.00,-3.00,+39.00,+2.00,+2.00,-12.00,-14.00,+10.00,+1.00,-19.00,+0.00,-3.00,-14.00
+1.00,-9.00,-11.00,-10.00,-22.00,-27.00,-17.00,+3.00,+19.00,-17.00,-57.00,-15.00,+80.00,+12.00,+1.00,+23.00
-3.00,+28.00,+3.00,+9.00,+7.00,+16.00,+12.00,+13.00,-23.00,-17.00,-23.00,-44.00,-90.00,-22.00,-6.00,-5.00
+2.00,-21.00,-4.00,-1.00,-7.00,-25.00,-10.00,+6.00,+0.00,-10.00,-9.00,+13.00,-8.00,-14.00,-16.00,+6.00
-2.00,+0.00,+4.00,+13.00,+5.00,+10.00,+6.00,+5.00,-7.00,+2.00,+7.00,+8.00,+37.00,-9.00,-7.00,-4.00
+2.00,+19.00,+4.00,-22.00,-12.00,-36.00,-12.00,-7.00,-10.00,+0.00,+22.00,+0.00,-9.00,+0.00,-3.00,+9.00
+3.00,+27.00,+0.00,+10.00,+8.00,+5.00,+10.00,+2.00,+20.00,+29.00,+5.00,+11.00,+9.00,+1.00,-5.00,-12.00
-3.00,-35.00,-2.00,-16.00,-13.00,-22.00,-33.00,-19.00,+45.00,+9.00,-2.00,-7.00,+16.00,+4.00,+11.00,+33.00
+5.00,+39.00,+3.00,+5.00,+0.00,+22.00,+19.00,-5.00,-17.00,-22.00,-12.00,-12.00,-15.00,-3.00,-10.00,-21.00
+2.00,-6.00,-13.00,-4.00,+3.00,+26.00,+7.00,-12.00,-1.00,+3.00,+10.00,+4.00,-21.00,-13.00,+1.00,+14.00
-2.00,-17.00,-1.00,-18.00,-15.00,-87.00,-23.00,-10.00,+34.00,+30.00,+36.00,+17.00,-24.00,+2.00,+5.00,+2.00
+0.00,-16.00,+0.00,+21.00,+15.00,+89.00,+7.00,-17.00,+6.00,-36.00,-43.00,-9.00,+11.00,+7.00,+4.00,+2.00
-3.00,+37.00,+6.00,-5.00,+7.00,+39.00,+17.00,+12.00,+15.00,+32.00,-10.00,+4.00,+3.00,+3.00,+6.00,+16.00
+1.00,-6.00,-10.00,-5.00,-1.00,-14.00,-1.00,-10.00,-5.00,-20.00,+3.00,-2.00,+8.00,-4.00,-8.00,-16.00
-3.00,-15.00,+0.00,-15.00,+1.00,-14.00,-11.00,-15.00,-3.00,-15.00,+5.00,+8.00,-7.00,-10.00,-6.00,-7.00
+3.00,-42.00,-18.00,-15.00,-15.00,-64.00,-21.00,-3.00,+49.00,+35.00,+15.00,+4.00,+1.00,+4.00,-2.00,+3.00
+0.00,+20.00,+17.00,+4.00,+2.00,-2.00,+15.00,+6.00,-13.00,-2.00,-10.00,-4.00,+36.00,+4.00,-4.00,-13.00
-4.00,+18.00,+15.00,+3.00,-4.00,-34.00,-11.00,-1.00,-33.00,+7.00,+7.00,+1.00,-7.00,-7.00,+0.00,+1.00
-5.00,-3.00,-47.00,-11.00,-2.00,+22.00,-1.00,-5.00,+37.00,+11.00,+15.00,+7.00,+43.00,+7.00,-2.00,+4.00
+1.00,-94.00,-33.00,-5.00,-10.00,-24.00,-8.00,-7.00,+3.00,-1.00,+12.00,-7.00,-26.00,+4.00,+9.00,+30.00
+6.00,+57.00,+87.00,+2.00,+7.00,+6.00,+4.00,+4.00,+10.00,-23.00,-30.00,-23.00,+87.00,+10.00,-4.00,-23.00
-2.00,+2.00,+35.00,+8.00,-25.00,-65.00,-14.00,-7.00,-14.00,+0.00,+10.00,+22.00,-83.00,-49.00,-9.00,-9.00
+9.00,+45.00,+0.00,+2.00,+1.00,-20.00,+1.00,-13.00,-17.00,+12.00,-9.00,+9.00,+33.00,+3.00,-1.00,+0.00
-10.00,+8.00,-20.00,-12.00,+9.00,+37.00,+12.00,-3.00,-10.00,+19.00,+9.00,+4.00,+27.00,+9.00,-1.00,+3.00
+0.00,-35.00,-47.00,-10.00,+6.00,-18.00,-1.00,-9.00,+0.00,+17.00,-5.00,-5.00,+0.00,+5.00,-4.00,-5.00
+5.00,-27.00,-6.00,-4.00,-4.00,-18.00,+1.00,+2.00,-22.00,-20.00,-5.00,-16.00,-8.00,+0.00,-6.00,-15.00
+2.00,+21.00,+25.00,+9.00,+0.00,+6.00,-1.00,-6.00,-5.00,+29.00,+8.00,+11.00,-13.00,+0.00,+12.00,+34.00
-1.00,-7.00,-6.00,-6.00,-3.00,-10.00,-5.00,+2.00,-9.00,+22.00,-6.00,-3.00,+17.00,-3.00,-7.00,-21.00
+5.00,+12.00,-1.00,-12.00,-14.00,-27.00,+0.00,+3.00,-32.00,-8.00,+32.00,+10.00,-45.00,-8.00,+4.00,+12.00
-2.00,+55.00,-28.00,-18.00,+2.00,+20.00,+1.00,+5.00,+98.00,+20.00,-1.00,+1.00,+11.00,+14.00,+12.00,+48.00
-2.00,-58.00,-10.00,-3.00,+11.00,+55.00,+6.00,+8.00,-32.00,+1.00,-24.00,-6.00,-42.00,-8.00,-8.00,-19.00
+0.00,+31.00,+53.00,-8.00,-7.00,-28.00,-6.00,+4.00,-29.00,-30.00,+8.00,-1.00,+15.00,+2.00,-5.00,-16.00
-4.00,-8.00,-1.00,+21.00,+3.00,+9.00,+6.00,-3.00,-14.00,-2.00,-7.00,+5.00,-26.00,-5.00,-5.00,-11.00
-5.00,+20.00,-12.00,-4.00,-5.00,-18.00,-2.00,+6.00,-13.00,+17.00,+13.00,-7.00,+11.00,+7.00,+5.00,+18.00
-5.00,-3.00,-21.00,+1.00,+11.00,+41.00,+7.00,+8.00,-22.00,-12.00,+4.00,-2.00,+48.00,+10.00,-3.00,-10.00
-2.00,-15.00,+2.00,-1.00,-1.00,-4.00,-6.00,-1.00,+9.00,-31.00,-3.00,+10.00,-5.00,-15.00,-3.00,+3.00
-1.00,+14.00,+11.00,-1.00,-4.00,-6.00,+4.00,+19.00,-2.00,-24.00,-7.00,-10.00,-62.00,-10.00,-2.00,-4.00
+1.00,-42.00,-23.00,-3.00,+0.00,+21.00,-2.00,-25.00,-2.00,+16.00,+2.00,+3.00,-1.00,+0.00,-11.00,-26.00
-6.00,+21.00,+9.00,-19.00,-10.00,-37.00,-4.00,+3.00,-50.00,-46.00,-14.00,-42.00,+8.00,-1.00,-7.00,-16.00
-1.00,-34.00,+13.00,-7.00,-8.00,-37.00,-7.00,-2.00,+74.00,+65.00,+7.00,+22.00,+23.00,-9.00,+3.00,+3.00
-5.00,+37.00,-5.00,+12.00,+0.00,-23.00,-2.00,-5.00,+54.00,+18.00,-3.00,-4.00,-16.00,-4.00,+6.00,+31.00
-3.00,-5.00,-2.00,+7.00,+19.00,+76.00,+5.00,+4.00,+32.00,+28.00,+6.00,+7.00,+8.00,+5.00,-3.00,-7.00
+4.00,-27.00,+9.00,-1.00,+7.00,+6.00,+3.00,-8.00,-21.00,-27.00,+0.00,+1.00,-15.00,-4.00,+1.00,-3.00
+9.00,+71.00,+3.00,+5.00,+5.00,-18.00,-1.00,-7.00,-59.00,-50.00,-16.00,-16.00,-5.00,+6.00,-3.00,-23.00
-4.00,-6.00,-7.00,-6.00,-6.00,-30.00,-8.00,-12.00,+33.00,+22.00,+13.00,+5.00,+2.00,+3.00,+3.00,+17.00
+2.00,+25.00,+10.00,-5.00,-8.00,-30.00,+2.00,-2.00,-18.00,-10.00,-11.00,-10.00,-9.00,-2.00,+0.00,+3.00
-2.00,-37.00,-16.00,+1.00,+3.00,+34.00,+6.00,-7.00,+21.00,-15.00,-13.00,+7.00,+12.00,-1.00,-2.00,-6.00
+0.00,-7.00,-23.00,-10.00,-11.00,-21.00,-14.00,-3.00,-4.00,-16.00,-1.00,-9.00,-13.00,+3.00,-1.00,+3.00
-4.00,-25.00,+3.00,-6.00,-2.00,+11.00,+4.00,+3.00,+17.00,+27.00,+3.00,+8.00,+8.00,-1.00,-1.00,+1.00
+5.00,-7.00,+9.00,+9.00,+4.00,+6.00,+9.00,+4.00,-20.00,-19.00,+5.00,+1.00,+7.00,+5.00,-3.00,-11.00
-4.00,+5.00,+11.00,+12.00,+6.00,+17.00,+0.00,+4.00,-15.00,+29.00,+6.00,+5.00,+34.00,-3.00,+0.00,-11.00
-1.00,-31.00,+4.00,-5.00,-1.00,-10.00,-1.00,+6.00,+63.00,+20.00,+7.00,+5.00,-59.00,+2.00,+12.00,+36.00
+2.00,+0.00,-10.00,+7.00,-3.00,-3.00,-4.00,+3.00,-59.00,-14.00,-10.00,-1.00,+44.00,+8.00,-4.00,-23.00
+3.00,+51.00,-10.00,+4.00,+3.00,+1.00,-1.00,+10.00,+6.00,-8.00,+2.00,-2.00,-8.00,-2.00,+5.00,+19.00
+1.00,+18.00,+0.00,-4.00,-14.00,-72.00,-13.00,+10.00,-3.00,+21.00,+9.00,+9.00,-28.00,-7.00,-5.00,-11.00
-6.00,-8.00,+2.00,+9.00,+4.00,+76.00,+11.00,+12.00,-35.00,-4.00,+1.00,+0.00,+11.00,+1.00,+1.00,+2.00
+1.00,-6.00,-2.00,+6.00,+10.00,+21.00,+2.00,+17.00,+24.00,-24.00,-8.00,-6.00,-10.00,-7.00,-5.00,-5.00
+2.00,-39.00,-9.00,+9.00,-5.00,-5.00,-5.00,+7.00,-15.00,+19.00,-1.00,+0.00,-11.00,+3.00,+0.00,-2.00
-1.00,+10.00,+10.00,-8.00,-19.00,-104.00,-19.00,-8.00,+31.00,-7.00,-3.00,-2.00,-22.00,+0.00,-2.00,-5.00
-6.00,+24.00,+2.00,+14.00,+6.00,+32.00,+14.00,-9.00,-17.00,-5.00,-11.00,-6.00,+25.00,+3.00,-5.00,-13.00
+3.00,-16.00,-10.00,+5.00,-1.00,-15.00,+7.00,-19.00,+26.00,+2.00,+3.00,+2.00,-11.00,-6.00,+0.00,+13.00
-4.00,+8.00,-17.00,-1.00,-13.00,-25.00,+0.00,-22.00,-11.00,+16.00,+1.00,+3.00,+11.00,-2.00,-6.00,-23.00
+2.00,-20.00,+23.00,+10.00,+7.00,+41.00,+8.00,-10.00,+30.00,-11.00,+4.00,+1.00,-11.00,-3.00,+1.00,-4.00
-4.00,+35.00,-7.00,+3.00,-9.00,-38.00,-9.00,-15.00,+42.00,-2.00,-6.00,-8.00,-1.00,+0.00,+4.00,+19.00
+0.00,-36.00,-1.00,+11.00,+3.00,+14.00,-1.00,-7.00,+42.00,+28.00,-3.00,+3.00,+1.00,+2.00,-5.00,-15.00
-1.00,-2.00,+2.00,-4.00,+1.00,-6.00,+1.00,-6.00,-2.00,-29.00,-3.00,-2.00,+8.00,+3.00,+4.00,+8.00
+1.00,+26.00,+5.00,+7.00,-5.00,+25.00,+2.00,+4.00,-4.00,+34.00,+8.00,+2.00,-15.00,-4.00,+4.00,-3.00
-1.00,-33.00,-3.00,+3.00,-3.00,-19.00,-7.00,-1.00,-5.00,-11.00,-8.00,-38.00,-5.00,+6.00,-1.00,-4.00
+2.00,+30.00,-9.00,+1.00,-1.00,+7.00,+0.00,+4.00,-14.00,-20.00,-5.00,+29.00,-74.00,-16.00,-3.00,-25.00
-5.00,-18.00,-1.00,-22.00,-1.00,-8.00,-5.00,+8.00,-28.00,+1.00,-2.00,+9.00,+29.00,+5.00,-8.00,-50.00
+0.00,+72.00,+7.00,-10.00,+0.00,+16.00,+1.00,+11.00,+16.00,-37.00,-3.00,+4.00,-10.00,-1.00,+4.00,+21.00
+3.00,-57.00,+2.00,+27.00,+14.00,+36.00,+10.00,+7.00,-34.00,-17.00,+2.00,+1.00,+37.00,-3.00,-8.00,-23.00
-3.00,-45.00,-16.00,-2.00,+3.00,+39.00,-1.00,+6.00,-1.00,+34.00,+6.00,-10.00,+16.00,+8.00,+16.00,+58.00
-6.00,+22.00,+19.00,+4.00,+2.00,+7.00,+6.00,+15.00,-23.00,-19.00,-3.00,-8.00,-5.00,-5.00,-6.00,+8.00
+3.00,+3.00,-6.00,+12.00,+11.00,+46.00,+5.00,+3.00,+52.00,+7.00,-1.00,+5.00,-25.00,+2.00,+8.00,+40.00
+0.00,+39.00,+7.00,-6.00,-9.00,-40.00,-4.00,+5.00,-42.00,-3.00,+16.00,+4.00,+10.00,+2.00,-1.00,-2.00
+3.00,-25.00,-2.00,+4.00,-1.00,-1.00,-4.00,-5.00,+45.00,+9.00,-36.00,-18.00,+1.00,+0.00,-7.00,-2.00
-2.00,-10.00,-7.00,-12.00,+1.00,+13.00,-3.00,+2.00,-14.00,+1.00,+2.00,+3.00,-14.00,-4.00,+0.00,-7.00
-2.00,+8.00,-2.00,+0.00,+1.00,+10.00,+1.00,-1.00,-10.00,-34.00,-8.00,-2.00,+13.00,+2.00,-3.00,-23.00
-1.00,-22.00,+0.00,-13.00,-11.00,-31.00,-11.00,-7.00,+8.00,-9.00,+0.00,+3.00,+2.00,+1.00,+2.00,+5.00
+2.00,+15.00,+2.00,+5.00,-3.00,-17.00,-2.00,-1.00,+5.00,-2.00,+5.00,-4.00,+3.00,-1.00,-6.00,-28.00
-2.00,-53.00,-36.00,-5.00,+6.00,+0.00,-2.00,-5.00,+34.00,+37.00,-10.00,-8.00,-3.00,-4.00,+2.00,+14.00
-6.00,-10.00,+24.00,-9.00,+1.00,+0.00,+3.00,+0.00,-43.00,-1.00,-3.00,+0.00,+47.00,-2.00,-5.00,+3.00
+0.00,+67.00,-3.00,+0.00,+1.00,-16.00,-1.00,-2.00,-19.00,-32.00,+0.00,+3.00,-102.00,-10.00,-4.00,-2.00
-2.00,-59.00,-2.00,-2.00,-19.00,-17.00,-3.00,-2.00,-48.00,-23.00,+11.00,+7.00,+30.00,+0.00,+2.00,+8.00
+0.00,+16.00,+3.00,+10.00,+23.00,+42.00,+5.00,+2.00,-38.00,+40.00,-10.00,-7.00,+34.00,-2.00,-11.00,-19.00
-4.00,-56.00,-12.00,-11.00,-6.00,+6.00,+0.00,+1.00,+98.00,+9.00,+17.00,+3.00,-88.00,+14.00,+17.00,+50.00
+0.00,-15.00,-11.00,-10.00,-2.00,-43.00,-7.00,-3.00,-55.00,+19.00,-10.00,-2.00,+16.00,-11.00,-4.00,-2.00
+0.00,-5.00,+0.00,+27.00,+20.00,+26.00,+9.00,+8.00,-38.00,-48.00,-1.00,+1.00,+26.00,+1.00,-5.00,-6.00
-1.00,-43.00,-2.00,-9.00,-8.00,-35.00,-7.00,-5.00,-40.00,-48.00,+5.00,+1.00,-25.00,-5.00,-4.00,-6.00
-3.00,+20.00,+6.00,+7.00,+9.00,+31.00,+13.00,+8.00,-33.00,+46.00,-8.00,+1.00,+19.00,+1.00,+0.00,+0.00
-1.00,+6.00,+4.00,+6.00,-1.00,+3.00,-8.00,-2.00,-11.00,+17.00,-6.00,-6.00,+43.00,+2.00,+1.00,+5.00
+0.00,-18.00,-3.00,-1.00,-7.00,-45.00,-3.00,-4.00,+47.00,-27.00,+1.00,-7.00,-50.00,-1.00,+1.00,+14.00
-1.00,-27.00,+0.00,-3.00,-11.00,-17.00,-5.00,+6.00,+15.00,-9.00,-1.00,-2.00,+9.00,-1.00,-5.00,-18.00
-1.00,-4.00,-13.00,-2.00,+5.00,+8.00,+3.00,+23.00,-26.00,-8.00,-5.00,-1.00,-2.00,-5.00,-3.00,-3.00
+6.00,-10.00,-3.00,-3.00,-7.00,-20.00,-3.00,-11.00,+25.00,-66.00,-10.00,-2.00,+9.00,+2.00,-4.00,-11.00
-11.00,-25.00,+18.00,-20.00,-4.00,-5.00,-6.00,-5.00,-45.00,+80.00,+10.00,-1.00,+24.00,-5.00,-5.00,-28.00
+1.00,+56.00,+5.00,+2.00,+6.00,+9.00,+0.00,+5.00,+22.00,-51.00,+5.00,-1.00,+7.00,+5.00,+8.00,+37.00
-2.00,+70.00,+1.00,-14.00,-7.00,-9.00,-2.00,+15.00,+7.00,+2.00,+2.00,+4.00,-84.00,-14.00,+2.00,+0.00
-3.00,-23.00,-6.00,-1.00,+2.00,+11.00,+0.00,-2.00,-6.00,+7.00,-8.00,-4.00,+27.00,+2.00,-3.00,-14.00
+1.00,+3.00,-11.00,-11.00,-5.00,+3.00,-3.00,+7.00,-34.00,-24.00,-3.00,-34.00,+84.00,+3.00,-12.00,-26.00
+0.00,-43.00,+9.00,-2.00,-2.00,+3.00,-2.00,-5.00,+79.00,+18.00,+5.00,+34.00,-76.00,-15.00,-3.00,+28.00
+1.00,+17.00,-3.00,+4.00,-2.00,-11.00,-5.00,-6.00,-30.00,-8.00,-5.00,+4.00,-15.00,-3.00,+15.00,-27.00
+3.00,-63.00,-1.00,+8.00,+2.00,-19.00,-2.00,+4.00,+26.00,+13.00,+4.00,+10.00,-4.00,+4.00,+4.00,+13.00
+0.00,+80.00,-10.00,-6.00,+3.00,+11.00,+1.00,-6.00,-33.00,-15.00,-2.00,+3.00,-9.00,-9.00,-11.00,-19.00
-1.00,-46.00,+15.00,-20.00,-27.00,-39.00,-9.00,-4.00,+5.00,+27.00,+5.00,-17.00,+24.00,+0.00,+2.00,+9.00
-1.00,+40.00,+0.00,+16.00,+26.00,+16.00,+15.00,-10.00,-88.00,-85.00,-14.00,-8.00,+27.00,-4.00,-14.00,-24.00
+1.00,-30.00,-1.00,+5.00,+2.00,+30.00,-2.00,-8.00,+40.00,+62.00,-2.00,+8.00,+6.00,+5.00,+11.00,+38.00
-4.00,+52.00,+0.00,+0.00,-1.00,+11.00,-3.00,-10.00,+47.00,+0.00,-4.00,-4.00,-4.00,+7.00,+10.00,+18.00
+4.00,+1.00,+7.00,+5.00,-2.00,-7.00,-1.00,-10.00,-36.00,+0.00,-4.00,-8.00,-12.00,+1.00,+0.00,-6.00
+1.00,-7.00,+2.00,-1.00,-9.00,-12.00,-2.00,-12.00,-12.00,-17.00,-1.00,+4.00,+9.00,+2.00,-10.00,-9.00
+0.00,+2.00,+0.00,-4.00,+2.00,+0.00,+2.00,-10.00,-11.00,-13.00,+0.00,-5.00,+9.00,-5.00,-9.00,-28.00
-4.00,-11.00,-4.00,-4.00,-2.00,-13.00,+3.00,+0.00,+33.00,-3.00,+5.00,+5.00,-24.00,-1.00,-1.00,+11.00
-4.00,+27.00,-10.00,+0.00,-3.00,-1.00,-1.00,-5.00,+23.00,+25.00,-3.00,+2.00,-1.00,+6.00,+7.00,+14.00
+1.00,-47.00,-4.00,-1.00,-3.00,-11.00,-8.00,-14.00,+14.00,+16.00,-4.00,-6.00,+17.00,-3.00,-8.00,-9.00
-2.00,+22.00,+5.00,-4.00,-2.00,-1.00,-3.00,-1.00,-32.00,-1.00,+2.00,+0.00,+32.00,+1.00,-7.00,-25.00
+2.00,-42.00,-11.00,-5.00,-1.00,-4.00,+1.00,+1.00,+32.00,+2.00,+8.00,+6.00,-45.00,-4.00,+10.00,+33.00
-4.00,+83.00,+25.00,-1.00,+6.00,+3.00,-1.00,+7.00,-34.00,-24.00,-2.00,-1.00,+48.00,+15.00,-1.00,-10.00
+1.00,+7.00,-1.00,+4.00,-2.00,+11.00,+7.00,+2.00,-24.00,-22.00,-10.00,-19.00,-81.00,-6.00,-3.00,-11.00
-1.00,-55.00,-11.00,-4.00,-2.00,+17.00,+2.00,+4.00,+33.00,+53.00,+12.00,+3.00,+14.00,+0.00,+4.00,+17.00
-4.00,+21.00,+1.00,-23.00,-18.00,-43.00,-39.00,-9.00,-25.00,-5.00,-5.00,+8.00,+25.00,-5.00,-7.00,-30.00
+5.00,-11.00,-2.00,+22.00,+15.00,-10.00,+58.00,+19.00,+25.00,+6.00,-1.00,-9.00,-35.00,-7.00,+2.00,+9.00
-6.00,-12.00,-4.00,-3.00,+7.00,+88.00,+5.00,+2.00,-7.00,+1.00,+5.00,+11.00,+27.00,+14.00,+1.00,+7.00
-1.00,+37.00,+3.00,-2.00,-3.00,-6.00,-1.00,+4.00,+0.00,-12.00,-9.00,-4.00,+1.00,+3.00,+1.00,-11.00
-1.00,-8.00,-2.00,-6.00,+0.00,+15.00,+2.00,+24.00,-29.00,-14.00,-3.00,+1.00,-30.00,+12.00,-8.00,-11.00
+0.00,-25.00,-6.00,-15.00,-6.00,-19.00,-13.00,-21.00,-29.00,-1.00,-10.00,-7.00,+17.00,+2.00,-10.00,-11.00
+6.00,+54.00,+2.00,+1.00,-10.00,-37.00,-12.00,-2.00,+34.00,+32.00,+12.00,+2.00,+29.00,-6.00,+4.00,+13.00
-2.00,+47.00,+41.00,+10.00,+7.00,+13.00,+15.00,+1.00,-44.00,-21.00,-1.00,+0.00,-21.00,+0.00,-2.00,-6.00
-2.00,-1.00,-2.00,-1.00,+0.00,-13.00,+0.00,-7.00,+47.00,+53.00,+8.00,+2.00,+16.00,+5.00,+9.00,+14.00
+0.00,+5.00,-9.00,+2.00,-2.00,+6.00,-9.00,+1.00,+11.00,-23.00,+2.00,-4.00,-14.00,-7.00,+2.00,+4.00
-2.00,-31.00,-7.00,+2.00,-2.00,-22.00,-3.00,+11.00,+55.00,+39.00,-9.00,-5.00,+3.00,-1.00,-2.00,+16.00
+1.00,+9.00,-7.00,-5.00,-4.00,-4.00,-12.00,+2.00,+3.00,-43.00,-5.00,-3.00,-1.00,-3.00,-1.00,-5.00
-1.00,+18.00,+1.00,+1.00,+1.00,-5.00,+5.00,+7.00,-38.00,-28.00,-5.00,-4.00,-14.00,-9.00,-3.00,-5.00
-2.00,-33.00,-3.00,-5.00,+0.00,+11.00,-8.00,-2.00,-7.00,+5.00,+1.00,+3.00,+25.00,+2.00,-1.00,-12.00
-3.00,-41.00,-8.00,-10.00,-5.00,+0.00,-3.00,-5.00,+16.00,+6.00,+2.00,-4.00,-37.00,-7.00,-2.00,+1.00
+3.00,+13.00,-3.00,-7.00,-6.00,-16.00,-3.00,+6.00,-5.00,-5.00,+2.00,+5.00,+22.00,-2.00,-7.00,-16.00
+3.00,-63.00,+4.00,+9.00,+7.00,+20.00,+11.00,-8.00,+32.00,+8.00,-6.00,-5.00,-11.00,-7.00,-7.00,-9.00
-5.00,+65.00,-1.00,-8.00,-7.00,+5.00,-4.00,+5.00,-12.00,+3.00,+3.00,+3.00,+28.00,+6.00,+8.00,+6.00
+0.00,-52.00,+1.00,-10.00,-5.00,-19.00,-6.00,-8.00,+17.00,+7.00,+2.00,-5.00,-20.00,+1.00,+8.00,+42.00
-7.00,+38.00,-1.00,+8.00,+9.00,+29.00,+5.00,+2.00,-3.00,+6.00,+0.00,+6.00,-7.00,-4.00,-7.00,-2.00
-3.00,-17.00,+0.00,-8.00,-5.00,+10.00,+2.00,+2.00,-65.00,-26.00,-2.00,-3.00,-24.00,-5.00,-8.00,-20.00
-1.00,-22.00,-3.00,-3.00,-2.00,-25.00,-8.00,-10.00,+29.00,+28.00,+0.00,-2.00,-13.00,+0.00,+2.00,+4.00
+1.00,-4.00,+3.00,+5.00,-2.00,+9.00,-13.00,-7.00,-26.00,-12.00,-4.00,+2.00,+96.00,+4.00,-4.00,-14.00
+3.00,-22.00,-9.00,-4.00,-7.00,-29.00,+11.00,-12.00,+19.00,+4.00,+2.00,-6.00,-65.00,+7.00,+5.00,+11.00
+2.00,+27.00,-2.00,+3.00,+5.00,+25.00,-10.00,+3.00,-19.00,-3.00,-1.00,+2.00,-16.00,-24.00,-2.00,-5.00
+4.00,+9.00,-4.00,-7.00,-6.00,+7.00,-1.00,-4.00,+21.00,+5.00,-1.00,-4.00,-11.00,+8.00,+1.00,+2.00
+0.00,-27.00,+4.00,+3.00,+3.00,-18.00,+9.00,-6.00,+7.00,-3.00,+0.00,+2.00,+18.00,+11.00,-4.00,-10.00
-1.00,+0.00,-9.00,-1.00,-8.00,-18.00,-10.00,+1.00,-73.00,-8.00,-3.00,-4.00,+2.00,+1.00,-5.00,-18.00
+2.00,+26.00,+7.00,+7.00,+11.00,+24.00,+6.00,+0.00,+98.00,+26.00,+2.00,+2.00,+21.00,+6.00,+8.00,+44.00
-2.00,-8.00,-5.00,-3.00,-6.00,-1.00,+4.00,+6.00,-28.00,-35.00,-9.00,-6.00,-24.00,-2.00,-3.00,-6.00
-2.00,-36.00,-4.00,-3.00,+1.00,-14.00,-13.00,-9.00,-32.00,+51.00,-3.00,-3.00,-1.00,-10.00,-14.00,-29.00
-2.00,+23.00,-6.00,-6.00,-6.00,+1.00,-3.00,+6.00,-8.00,-4.00,+17.00,+9.00,+21.00,+0.00,+5.00,+11.00
+1.00,+18.00,+3.00,-2.00,-3.00,-19.00,-1.00,-1.00,-51.00,-29.00,-8.00,-16.00,+4.00,+5.00,-1.00,-12.00
-2.00,+12.00,+0.00,-4.00,+1.00,+8.00,-3.00,+3.00,+52.00,+15.00,+4.00,+13.00,-21.00,-17.00,-8.00,-9.00
+0.00,-5.00,-6.00,+2.00,-4.00,-8.00,+3.00,+3.00,-17.00,+5.00,-3.00,-2.00,+14.00,+1.00,+6.00,+4.00
+0.00,+8.00,+2.00,+2.00,+2.00,+6.00,-2.00,+5.00,+29.00,+17.00,-4.00,-5.00,-27.00,-9.00,-10.00,+3.00
-3.00,-23.00,-7.00,-5.00,-4.00,-4.00,+1.00,-8.00,-20.00,-4.00,+1.00,+3.00,+2.00,+1.00,-6.00,-16.00
+4.00,+39.00,+5.00,+0.00,+3.00,-1.00,-2.00,+3.00,-13.00,-8.00,-6.00,-3.00,-1.00,-1.00,+2.00,+1.00
+5.00,+6.00,+4.00,+7.00,+6.00,+28.00,+4.00,-9.00,-22.00,-28.00,-4.00,+4.00,+4.00,-2.00,-1.00,-12.00
+0.00,-17.00,-4.00,-4.00,-7.00,-13.00,-3.00,-1.00,-17.00,-18.00,-5.00,-3.00,+10.00,-1.00,+1.00,-2.00
-3.00,+6.00,-1.00,-5.00,-6.00,-9.00,-3.00,-5.00,+7.00,+9.00,+2.00,+1.00,+1.00,+6.00,+3.00,+6.00
-3.00,-19.00,-5.00,+0.00,-2.00,+3.00,-2.00,-5.00,+6.00,+8.00,-2.00,-4.00,+10.00,+0.00,+0.00,+10.00
-6.00,+1.00,-1.00,-8.00,-4.00,-26.00,-4.00,-7.00,+9.00,-22.00,-2.00,+0.00,-30.00,-3.00,-2.00,-1.00
-3.00,-8.00,+2.00,+3.00,+9.00,-4.00,+4.00,+2.00,+12.00,+12.00,-2.00,-7.00,+11.00,-4.00,-1.00,+8.00
+0.00,+16.00,+1.00,+3.00,-2.00,+7.00,+4.00,-1.00,-50.00,+11.00,+0.00,+6.00,+11.00,+1.00,-1.00,-7.00
-4.00,-51.00,-5.00,-3.00,-2.00,-6.00,+1.00,-8.00,+28.00,+17.00,+5.00,+1.00,-11.00,-6.00,+4.00,+11.00
-2.00,+34.00,+3.00,+2.00,+2.00,+16.00,-13.00,+5.00,-15.00,-13.00,+0.00,+0.00,+9.00,-12.00,-4.00,+4.00
+2.00,-1.00,-7.00,-3.00,-6.00,+0.00,-3.00,-3.00,+4.00,+0.00,-4.00,-1.00,-7.00,-1.00,-1.00,-2.00
-2.00,-30.00,-2.00,-1.00,-4.00,-14.00,+2.00,-5.00,-71.00,-11.00,+0.00,-2.00,+2.00,+1.00,-1.00,-12.00
+1.00,-33.00,-8.00,+1.00,-1.00,+1.00,-4.00,+1.00,-16.00,+0.00,-1.00,-3.00,-2.00,-4.00,-5.00,-10.00
+2.00,+26.00,+0.00,+0.00,-4.00,-11.00,+2.00,-1.00,-18.00,-9.00,-5.00,-4.00,-15.00,-4.00,+0.00,-1.00
-7.00,+96.00,+22.00,+7.00,+5.00,+5.00,+3.00,+9.00,+76.00,+5.00,+1.00,+0.00,+44.00,+6.00,+3.00,+5.00
+0.00,+10.00,+1.00,-11.00,-8.00,-26.00,-10.00,+1.00,+40.00,-12.00,-1.00,+2.00,-34.00,-5.00,-1.00,+1.00
-1.00,-53.00,-7.00,+4.00,+3.00,+62.00,+8.00,+6.00,-25.00,-21.00,-5.00,-2.00,+2.00,-5.00,-4.00,-3.00
-1.00,-18.00,-5.00,-3.00,+4.00,-21.00,-3.00,-6.00,+20.00,+7.00,+7.00,-12.00,-13.00,-7.00,+2.00,+7.00
+2.00,-34.00,-3.00,-2.00,+3.00,+13.00,-3.00,+0.00,+14.00,+0.00,-1.00,+12.00,-73.00,+8.00,+2.00,-1.00
+2.00,+18.00,-4.00,+1.00,+5.00,+12.00,+2.00,-1.00,+8.00,+2.00,-1.00,+7.00,+38.00,+4.00,-3.00,-4.00
-6.00,-11.00,-1.00,-5.00,-4.00,-9.00,-5.00,-4.00,-11.00,-10.00,-1.00,-2.00,-6.00,+1.00,+2.00,+0.00
-4.00,+19.00,+0.00,-3.00,-8.00,-11.00,+1.00,+1.00,-10.00,-12.00,-3.00,+2.00,+18.00,+2.00,-3.00,-16.00
-5.00,-13.00,-4.00,-3.00,-3.00,+8.00,-4.00,-3.00,+32.00,-3.00,-6.00,-7.00,+32.00,-1.00,+0.00,+2.00
-2.00,-1.00,+1.00,+0.00,-3.00,-9.00,+3.00,+2.00,-26.00,-4.00,-4.00,-7.00,-7.00,-3.00,-5.00,-19.00
+0.00,-1.00,-1.00,-1.00,+3.00,-9.00,-4.00,-6.00,-17.00,+5.00,+7.00,+6.00,-10.00,+8.00,+10.00,+27.00
-3.00,-4.00,+0.00,-2.00,+1.00,+9.00,+3.00,+0.00,+6.00,-2.00,-3.00,-2.00,+11.00,+3.00,+2.00,+11.00
+3.00,-62.00,-5.00,+0.00,-1.00,-16.00,-2.00,-3.00,-26.00,-14.00,+1.00,-1.00,-2.00,-6.00,-7.00,-7.00
-5.00,+31.00,+0.00,+1.00,-4.00,-3.00,+0.00,+0.00,+60.00,+16.00,-4.00,+1.00,-1.00,+1.00,-1.00,+2.00
+0.00,+26.00,+10.00,+5.00,+7.00,+6.00,+7.00,+5.00,-25.00,-22.00,-11.00,-9.00,-1.00,-6.00,-13.00,-39.00
-4.00,+9.00,-4.00,-5.00,-3.00,+0.00,-5.00,+1.00,+20.00,+9.00,+1.00,+2.00,-1.00,-7.00,+5.00,+8.00
+0.00,-17.00,-4.00,-3.00,-2.00,+0.00,-3.00,-4.00,-16.00,-2.00,-4.00,-4.00,+13.00,+20.00,-2.00,-4.00
-2.00,-11.00,-2.00,+0.00,-2.00,-10.00,-4.00,-1.00,+3.00,-1.00,-4.00,-10.00,+68.00,-3.00,-1.00,+3.00
+1.00,+4.00,-4.00,-9.00,+1.00,+0.00,+0.00,-1.00,+5.00,+19.00,+6.00,+5.00,-84.00,+4.00,+5.00,-1.00
+0.00,-16.00,+1.00,+1.00,-3.00,-2.00,+2.00,+0.00,-16.00,-19.00,-2.00,+5.00,+36.00,+1.00,-7.00,-9.00
-2.00,-12.00,-5.00,-7.00,-6.00,-4.00,-5.00,-4.00,-6.00,+9.00,-1.00,+0.00,-24.00,-20.00,-1.00,-8.00
+7.00,-3.00,+1.00,+5.00,+2.00,+4.00,+4.00,+3.00,-9.00,-12.00,+0.00,-11.00,-15.00,-1.00,-3.00,+1.00
-3.00,-3.00,+3.00,-4.00,-4.00,+13.00,-4.00,-4.00,+5.00,+2.00,-2.00,+3.00,+30.00,+7.00,+1.00,+5.00
+2.00,+36.00,+3.00,-1.00,+10.00,+32.00,+10.00,+1.00,-18.00,-4.00,-2.00,-2.00,+4.00,+1.00,-3.00,-10.00
-1.00,-7.00,-4.00,+0.00,-3.00,-14.00,-1.00,+1.00,-31.00,+10.00,+1.00,+1.00,-4.00,-9.00,-2.00,-5.00
-2.00,-10.00,-2.00,-1.00,-1.00,-22.00,-2.00,-5.00,-23.00,-17.00,+0.00,+0.00,-19.00,+2.00,+7.00,+6.00
-2.00,-14.00,-3.00,-1.00,+0.00,+15.00,+2.00,+1.00,-31.00,+9.00,+0.00,-3.00,+18.00,-4.00,+1.00,+7.00
-1.00,+0.00,+0.00,-8.00,-2.00,-3.00,+0.00,-1.00,+63.00,+14.00,+3.00,+1.00,-31.00,+0.00,-2.00,+3.00
-3.00,-33.00,-12.00,-9.00,-10.00,-7.00,-3.00,-3.00,-5.00,-2.00,-7.00,-6.00,+14.00,-3.00,-3.00,-1.00
+3.00,-21.00,+0.00,+5.00,+7.00,+17.00,+1.00,-1.00,+27.00,-4.00,+4.00,+5.00,-15.00,-1.00,+3.00,+18.00
-8.00,+5.00,+10.00,+0.00,+4.00,-9.00,+6.00,+1.00,-54.00,-1.00,-3.00,-3.00,+2.00,-10.00,-7.00,-13.00
-3.00,-18.00,-4.00,-5.00,-7.00,-11.00,-3.00,-3.00,-43.00,-10.00,-1.00,+3.00,+15.00,+18.00,-3.00,-12.00
+1.00,+12.00,+3.00,+2.00,+3.00,+4.00,+0.00,-3.00,-15.00,-2.00,-3.00,-4.00,-11.00,-4.00,-1.00,-3.00
-1.00,-42.00,-5.00,-1.00,-4.00,-5.00,-4.00,-4.00,-48.00,+5.00,+4.00,+5.00,-1.00,+3.00,+5.00,+8.00
-1.00,+15.00,-1.00,-3.00,-2.00,-11.00,-8.00,+1.00,+46.00,+1.00,-1.00,-5.00,+12.00,+1.00,+0.00,+3.00
+2.00,+17.00,+0.00,+3.00,-1.00,+0.00,+6.00,+4.00,+11.00,+3.00,+1.00,+3.00,-19.00,-4.00,-1.00,+0.00
-1.00,-2.00,+1.00,-7.00,-1.00,-3.00,+0.00,+2.00,+0.00,-4.00,-4.00,-4.00,+38.00,-10.00,-9.00,-11.00
-3.00,-14.00,-5.00,-9.00,-14.00,-1.00,-10.00,-8.00,+23.00,-23.00,+2.00,+9.00,-24.00,+19.00,+6.00,+3.00
+9.00,+11.00,+5.00,+19.00,+22.00,+36.00,+4.00,+8.00,+41.00,+4.00,-2.00,-3.00,-9.00,-2.00,+7.00,+0.00
-2.00,-1.00,-4.00,-8.00,-2.00,+4.00,-1.00,-3.00,-5.00,+2.00,+1.00,+2.00,-14.00,-16.00,-16.00,-2.00
+0.00,+2.00,-1.00,+5.00,+6.00,+25.00,+4.00,-1.00,+29.00,+9.00,-2.00,-2.00,-8.00,+1.00,+5.00,+7.00
-3.00,+13.00,+3.00,-4.00,+2.00,+8.00,+1.00,+0.00,+1.00,+4.00,-3.00,+1.00,+24.00,-9.00,-6.00,-6.00
+3.00,-4.00,-4.00,-8.00,-19.00,-36.00,-7.00,-3.00,-12.00,-12.00,-1.00,-8.00,+6.00,+3.00,+0.00,+1.00
+0.00,+3.00,+0.00,+3.00,-5.00,-19.00,-6.00,-4.00,-27.00,-1.00,-3.00,-7.00,-8.00,-2.00,-1.00,-17.00
-2.00,+1.00,+1.00,+8.00,+4.00,+23.00,+1.00,+0.00,+46.00,-4.00,-3.00,-2.00,-2.00,-17.00,-14.00,+15.00
-2.00,+15.00,+0.00,-2.00,-2.00,-15.00,+0.00,-3.00,-12.00,+16.00,+2.00,-3.00,-3.00,+37.00,+29.00,+4.00
-4.00,-8.00,-2.00,-3.00,-4.00,-6.00,-3.00,-5.00,+0.00,-4.00,+0.00,+5.00,+9.00,+7.00,-1.00,+0.00
+1.00,-42.00,-1.00,+2.00,+2.00,+2.00,+2.00,-1.00,-17.00,-18.00,-5.00,+1.00,+1.00,+3.00,+4.00,-4.00
-1.00,+31.00,+2.00,-2.00,-7.00,-15.00,-3.00,+2.00,-8.00,+15.00,+2.00,-3.00,-2.00,-15.00,-5.00,-14.00
-3.00,+11.00,+2.00,+4.00,+8.00,+3.00,+3.00,+0.00,-14.00,-16.00,-9.00,-22.00,+67.00,-5.00,-17.00,-17.00
+1.00,-6.00,-6.00,-6.00,-2.00,-9.00,+1.00,-6.00,+33.00,+21.00,+2.00,+20.00,-76.00,+7.00,+10.00,+4.00
+0.00,-4.00,-2.00,-4.00,+1.00,-1.00,-19.00,-1.00,-8.00,+7.00,+5.00,+4.00,-21.00,-13.00,-11.00,+2.00
+0.00,-23.00,-5.00,-5.00,-1.00,-1.00,-3.00,+2.00,-17.00,-15.00,+5.00,+11.00,-3.00,+9.00,+11.00,+8.00
+2.00,+17.00,+6.00,+10.00,+2.00,+9.00,+5.00,+6.00,+23.00,+8.00,-3.00,-4.00,-1.00,-8.00,-8.00,-8.00
-5.00,-32.00,-1.00,-7.00,-2.00,-10.00,+0.00,-2.00,-17.00,-19.00,-7.00,-10.00,+34.00,-15.00,-14.00,-13.00
-1.00,+18.00,+2.00,+4.00,+0.00,+5.00,+6.00,-1.00,+10.00,+4.00,-3.00,-10.00,+4.00,+10.00,-4.00,-4.00
-1.00,-27.00,-5.00,-3.00,-8.00,-12.00,-5.00,-5.00,-27.00,+3.00,+6.00,+5.00,-11.00,+11.00,+9.00,+12.00
+0.00,+65.00,+7.00,+4.00,+2.00,+8.00,-4.00,+3.00,+24.00,-4.00,-10.00,-2.00,-32.00,-14.00,-10.00,+2.00
+0.00,-3.00,-3.00,-2.00,+5.00,+1.00,-19.00,-4.00,+19.00,-10.00,-2.00,-5.00,+12.00,-8.00,-5.00,+0.00
+1.00,+6.00,+4.00,+3.00,+4.00,+18.00,+46.00,+8.00,-1.00,+16.00,-1.00,+4.00,-8.00,-2.00,+5.00,+5.00
+1.00,-19.00,-3.00,-3.00,+2.00,-3.00,-1.00,-7.00,-31.00,+1.00,-7.00,-5.00,+4.00,+2.00,-4.00,-11.00
-2.00,-22.00,-5.00,-3.00,-2.00,-1.00,+3.00,-3.00,+4.00,+1.00,-5.00,+3.00,-10.00,-7.00,-3.00,-9.00
-4.00,+22.00,+0.00,-8.00,-7.00,-21.00,-4.00,-3.00,-25.00,+0.00,+0.00,-2.00,+1.00,+2.00,-4.00,+3.00
-3.00,-26.00,-4.00,-4.00,-2.00,-4.00,-10.00,-6.00,+25.00,-20.00,+3.00,-3.00,+15.00,+4.00,+4.00,+13.00
-3.00,+2.00,-2.00,+1.00,+0.00,+1.00,+10.00,-6.00,+5.00,-1.00,+2.00,+3.00,+29.00,+9.00,+3.00,+4.00
-2.00,+13.00,+1.00,-3.00,-3.00,-4.00,-1.00,+4.00,-25.00,+3.00,+2.00,+2.00,-28.00,-4.00,-6.00,-6.00
+1.00,+0.00,-5.00,-2.00,-3.00,-7.00,-4.00,+0.00,+22.00,+8.00,+0.00,-2.00,+7.00,-22.00,-2.00,+3.00
-1.00,+15.00,+2.00,-1.00,+1.00,-9.00,-8.00,-2.00,-11.00,-8.00,-4.00,-7.00,+41.00,+13.00,+1.00,-3.00
-4.00,-2.00,-3.00,-3.00,-2.00,+1.00,+4.00,+1.00,+9.00,-2.00,-2.00,-2.00,-63.00,-2.00,+1.00,+0.00
-2.00,-17.00,-6.00,-14.00,-10.00,-45.00,-17.00,-7.00,+2.00,+1.00,+4.00,+11.00,-15.00,-2.00,+0.00,+0.00
-3.00,-22.00,+0.00,+2.00,-4.00,-20.00,-8.00,-5.00,-36.00,-7.00,+0.00,-5.00,+20.00,+4.00,-4.00,-2.00
-3.00,-37.00,-4.00,+13.00,+15.00,+83.00,+14.00,+13.00,+25.00,-3.00,-6.00,-1.00,-11.00,-8.00,-4.00,-15.00
-2.00,+42.00,+8.00,+3.00,+2.00,+10.00,-1.00,+2.00,+17.00,+14.00,+3.00,-1.00,+7.00,+5.00,+3.00,+13.00
-6.00,-18.00,-6.00,-3.00,+2.00,+1.00,-3.00,-4.00,-7.00,+6.00,+2.00,-1.00,-7.00,-4.00,-1.00,-1.00
+1.00,-2.00,-9.00,-12.00,-6.00,+2.00,+2.00,-5.00,-8.00,-15.00,+6.00,+3.00,+3.00,+4.00,+2.00,-3.00
+2.00,-30.00,-18.00,-13.00,-12.00,-46.00,-16.00,-9.00,+3.00,-4.00,-26.00,-10.00,+5.00,-6.00,+1.00,+9.00
-1.00,+58.00,+24.00,+6.00,+2.00,-1.00,-2.00,+5.00,+3.00,-6.00,-6.00,-4.00,-5.00,+5.00,-1.00,-7.00
+2.00,-5.00,-1.00,+3.00,+2.00,+16.00,+9.00,+4.00,-37.00,-15.00,+0.00,+1.00,-8.00,-10.00,-4.00,-10.00
+2.00,-11.00,-3.00,-1.00,-1.00,-10.00,+5.00,-2.00,+29.00,+21.00,+4.00,+0.00,+13.00,+0.00,-5.00,-5.00
-4.00,+12.00,+3.00,-7.00,+1.00,-12.00,-6.00,+0.00,+20.00,-9.00,+5.00,+2.00,-12.00,+2.00,+3.00,+7.00
+1.00,-3.00,-10.00,-1.00,+2.00,-2.00,-6.00,+2.00,-19.00,+7.00,-2.00,-2.00,-2.00,-14.00,-1.00,-8.00
+0.00,+4.00,-3.00,-5.00,-5.00,-7.00,+1.00,+0.00,+16.00,-1.00,+1.00,+2.00,+1.00,+1.00,+1.00,+9.00
-2.00,-21.00,+4.00,+5.00,+4.00,+8.00,+6.00,+4.00,+11.00,-9.00,-7.00,-4.00,-2.00,+12.00,-9.00,-11.00
-4.00,+18.00,+1.00,-4.00,-3.00,-10.00,-7.00,-2.00,-3.00,+3.00,+4.00,+3.00,-6.00,+0.00,-1.00,+2.00
+1.00,+18.00,-1.00,-1.00,+1.00,-12.00,-4.00,+0.00,-8.00,-7.00,-1.00,-1.00,-2.00,-1.00,-4.00,-1.00
-3.00,-20.00,-1.00,+0.00,-4.00,-16.00,+1.00,-2.00,+1.00,-2.00,+1.00,-1.00,+4.00,-5.00,-1.00,+6.00
-4.00,+4.00,-3.00,-3.00,+5.00,+36.00,+4.00,+1.00,-15.00,-3.00,-7.00,-5.00,+13.00,-2.00,-3.00,-8.00
-1.00,+5.00,+0.00,-13.00,-12.00,-16.00,-6.00,-8.00,-15.00,+8.00,+5.00,+0.00,-21.00,-3.00,+1.00,+0.00
+1.00,-26.00,-2.00,+4.00,+1.00,+0.00,+2.00,+1.00,+8.00,-2.00,+8.00,-2.00,+9.00,-10.00,-4.00,-1.00
-2.00,-3.00,-1.00,+1.00,+3.00,+4.00,+0.00,-2.00,-74.00,-6.00,-15.00,-5.00,-7.00,-3.00,-5.00,-5.00
+2.00,+9.00,-5.00,-2.00,-5.00,-4.00,+1.00,-1.00,-3.00,+7.00,-3.00,-1.00,-1.00,+3.00,+10.00,+2.00
-1.00,+11.00,+3.00,-2.00,+1.00,+0.00,-1.00,-4.00,+26.00,-4.00,+9.00,+2.00,+2.00,-4.00,+2.00,+2.00
-6.00,-8.00,-1.00,-1.00,-4.00,-13.00,-3.00,-8.00,-10.00,-1.00,-14.00,-5.00,+0.00,+0.00,+1.00,+2.00
-2.00,-11.00,-19.00,-1.00,+2.00,+3.00,-1.00,+1.00,+6.00,-5.00,-4.00,-6.00,-8.00,-4.00,-2.00,-4.00
-1.00,+44.00,+9.00,-4.00,+1.00,-2.00,-3.00,+2.00,-128.00,+1.00,-2.00,+1.00,-5.00,-4.00,-5.00,-3.00
-3.00,-7.00,+14.00,+4.00,+0.00,-2.00,-2.00,-6.00,-111.00,+14.00,-4.00,+0.00,+5.00,+2.00,-1.00,+2.00
-1.00,+1.00,-5.00,-6.00,-7.00,-9.00,-1.00,-1.00,+1.00,-9.00,+6.00,+3.00,-7.00,+2.00,-3.00,-1.00
-2.00,+3.00,+3.00,+0.00,+1.00,+13.00,-1.00,-1.00,+65.00,+8.00,+7.00,+3.00,+2.00,+0.00,-2.00,+2.00
-3.00,-10.00,-7.00,+0.00,-4.00,-8.00,+0.00,-1.00,+98.00,-1.00,+0.00,-2.00,-2.00,-1.00,-4.00,-1.00
-4.00,-12.00,-7.00,+0.00,+1.00,-9.00,-3.00,+0.00,+70.00,-11.00,-2.00,-1.00,+0.00,-1.00,+8.00,-4.00
+0.00,+3.00,-1.00,-1.00,+1.00,+8.00,+8.00,-1.00,+51.00,-5.00,-3.00,+0.00,+1.00,+2.00,-2.00,+1.00
+1.00,+13.00,+3.00,+0.00,+0.00,+7.00,-5.00,+3.00,+113.00,+8.00,-1.00,-4.00,+1.00,+2.00,+1.00,+0.00
+0.00,-12.00,-1.00,-8.00,-1.00,-6.00,-1.00,+0.00,+127.00,-9.00,+2.00,-3.00,-7.00,-3.00,+3.00,-1.00
+0.00,+21.00,+5.00,+0.00,+1.00,-3.00,+0.00,-2.00,+127.00,-3.00,-3.00,+0.00,+2.00,-1.00,-7.00,-1.00
-1.00,-15.00,-6.00,-1.00,+0.00,+9.00,+0.00,-1.00,+113.00,-4.00,-5.00,-1.00,+0.00,+0.00,+10.00,-3.00
+0.00,-6.00,+2.00,-3.00,+1.00,-7.00,+1.00,-5.00,-76.00,+9.00,+0.00,+0.00,+1.00,-3.00,-2.00,-18.00
-2.00,-8.00,+2.00,-3.00,+0.00,-5.00,-4.00,-1.00,-112.00,+4.00,+3.00,+1.00,-2.00,+3.00,+5.00,+41.00
-3.00,-9.00,-5.00,+2.00,+1.00,+13.00,+3.00,+2.00,-128.00,-15.00,-1.00,+1.00,+0.00,-4.00,-3.00,-11.00
+1.00,-4.00,-10.00,-5.00,-3.00,-6.00,-5.00,+0.00,-128.00,+32.00,+5.00,-3.00,+3.00,+3.00,+2.00,+12.00
+1.00,+2.00,-1.00,-4.00,-2.00,-1.00,+1.00,-2.00,-113.00,-4.00,+1.00,+1.00,-2.00,-3.00,-4.00,-3.00
-3.00,+1.00,+7.00,-4.00,-3.00,-8.00,-2.00,-3.00,-91.00,+6.00,+0.00,-2.00,-3.00,-2.00,-6.00,-16.00
+1.00,-13.00,+10.00,+0.00,+1.00,-1.00,-1.00,-5.00,-83.00,+4.00,+1.00,-3.00,-3.00,-3.00,-12.00,-6.00
-2.00,+16.00,+8.00,+2.00,+0.00,+3.00,-2.00,-1.00,-44.00,-14.00,+2.00,+2.00,-1.00,+1.00,+12.00,+3.00
-2.00,-10.00,-14.00,+2.00,-1.00,+1.00,+0.00,-1.00,+6.00,-5.00,-3.00,-3.00,-1.00,+0.00,+2.00,-3.00
+0.00,+14.00,+12.00,-3.00,-2.00,+0.00,+3.00,-1.00,+8.00,-2.00,-2.00,-2.00,-2.00,-3.00,+2.00,-7.00
-3.00,-7.00,-13.00,-4.00,-5.00,-10.00,-3.00,-1.00,+42.00,-2.00,+0.00,-1.00,+0.00,-2.00,-3.00,+2.00
-1.00,-9.00,-1.00,+2.00,-2.00,-2.00,-3.00,-1.00,+27.00,-8.00,-6.00,-1.00,-6.00,-3.00,-9.00,-16.00
-2.00,-5.00,+4.00,+4.00,+4.00,+1.00,+1.00,+0.00,+25.00,+3.00,+1.00,-2.00,-3.00,-1.00,+1.00,+17.00
+1.00,-10.00,-11.00,-4.00,-2.00,+2.00,-1.00,-1.00,+23.00,-6.00,-3.00,-1.00,+0.00,-3.00,-4.00,-8.00
-1.00,+26.00,+3.00,-3.00,-3.00,-18.00,-2.00,+5.00,+14.00,+0.00,-1.00,-1.00,-1.00,+1.00,+3.00,-1.00
+0.00,-9.00,+4.00,-1.00,+3.00,+10.00,+1.00,-3.00,-6.00,-2.00,-1.00,+1.00,-1.00,+0.00,-5.00,+1.00
-1.00,-3.00,-1.00,+1.00,-5.00,+0.00,+2.00,+0.00,+7.00,+1.00,+0.00,+1.00,+0.00,-1.00,-2.00,-1.00
-3.00,-6.00,-6.00,-3.00,+0.00,+4.00,+2.00,-2.00,+17.00,-4.00,-3.00,-1.00,-3.00,-3.00,-1.00,-3.00
-2.00,+3.00,+1.00,-3.00,-3.00,-5.00,-3.00,-3.00,+40.00,+3.00,+0.00,+0.00,+1.00,+0.00,+1.00,+1.00
+3.00,-4.00,-3.00,-1.00,-1.00,-3.00,-2.00,+1.00,+22.00,+1.00,+1.00,-2.00,-1.00,-1.00,-8.00,-5.00
