+4.00,+1.00,-2.00,-4.00,+0.00,-2.00,+1.00,-1.00,+11.00,+3.00,-2.00,-2.00,-3.00,-2.00,+1.00,+1.00
+5.00,-4.00,-2.00,+0.00,+1.00,+2.00,+1.00,+0.00,-5.00,+2.00,+1.00,-1.00,+0.00,-2.00,+1.00,+0.00
+3.00,-2.00,+0.00,+2.00,-3.00,+1.00,+0.00,+0.00,+2.00,-3.00,+0.00,-1.00,-1.00,+0.00,-1.00,+2.00
+4.00,-2.00,-2.00,-3.00,-1.00,-1.00,-2.00,-2.00,-1.00,+2.00,+0.00,+1.00,+0.00,-1.00,-2.00,+0.00
+4.00,-2.00,-2.00,-1.00,-1.00,-1.00,-2.00,-1.00,-4.00,+0.00,+1.00,-1.00,-2.00,-1.00,-1.00,-3.00
+5.00,+0.00,-3.00,-1.00,-1.00,-1.00,-2.00,-1.00,-19.00,-19.00,-5.00,-2.00,-1.00,-1.00,-4.00,-4.00
+3.00,+1.00,+0.00,+1.00,+0.00,-1.00,-1.00,+0.00,+19.00,+7.00,-3.00,-1.00,+14.00,+1.00,-2.00,+2.00
+6.00,-1.00,+1.00,+2.00,-2.00,+0.00,+0.00,+0.00,-3.00,-1.00,+2.00,+0.00,-13.00,+1.00,+3.00,+4.00
+3.00,+1.00,-1.00,-2.00,+0.00,+0.00,+0.00,-1.00,-5.00,+5.00,-1.00,-2.00,+0.00,-3.00,-3.00,-5.00
+7.00,+0.00,+1.00,-4.00,+0.00,+0.00,-2.00,+0.00,-8.00,-4.00,+1.00,-6.00,-11.00,-2.00,-3.00,-5.00
+3.00,-3.00,-3.00,-2.00,-1.00,-4.00,-1.00,-2.00,-7.00,+3.00,-1.00,+3.00,-1.00,-2.00,-1.00,-1.00
+4.00,-7.00,-3.00,-1.00,-2.00,-1.00,-1.00,-1.00,+15.00,-6.00,-3.00,+0.00,+18.00,+0.00,-2.00,-5.00
-5.00,+6.00,+2.00,+1.00,-1.00,-2.00,+0.00,-3.00,-20.00,+2.00,-1.00,-5.00,+0.00,-3.00,-1.00,+0.00
-6.00,-1.00,-2.00,-2.00,+0.00,-2.00,+2.00,-3.00,+2.00,-1.00,+0.00,+3.00,-21.00,-9.00,-1.00,+2.00
+4.00,+2.00,+1.00,+0.00,+1.00,-2.00,-7.00,+1.00,+4.00,+1.00,+2.00,-1.00,-9.00,+0.00,+2.00,+3.00
-5.00,-8.00,-3.00,-2.00,-1.00,-2.00,-1.00,-1.00,+0.00,+6.00,+3.00,+1.00,-27.00,+0.00,+0.00,-2.00
+4.00,+12.00,+0.00,+1.00,+1.00,-8.00,+0.00,+1.00,-5.00,-9.00,-6.00,+1.00,+17.00,+0.00,-1.00,-9.00
-4.00,+0.00,-1.00,-1.00,-1.00,+0.00,+1.00,-2.00,-9.00,-15.00,-6.00,-18.00,-10.00,-4.00,-7.00,-15.00
-1.00,-1.00,-2.00,+0.00,-1.00,+0.00,+1.00,-1.00,-27.00,-4.00,+5.00,+16.00,+15.00,-2.00,+5.00,+20.00
+2.00,+3.00,-1.00,-2.00,-1.00,+1.00,-2.00,-1.00,-44.00,-30.00,-12.00,-2.00,-1.00,+3.00,-4.00,-10.00
-3.00,-10.00,-2.00,-2.00,+0.00,-12.00,-2.00,-3.00,+59.00,+42.00,+18.00,-3.00,-29.00,-6.00,+8.00,+26.00
+0.00,-2.00,+1.00,+0.00,+2.00,+8.00,-2.00,-1.00,+9.00,+12.00,-13.00,+0.00,-23.00,-4.00,-1.00,+3.00
-4.00,+0.00,+0.00,+2.00,-1.00,-1.00,-1.00,-2.00,+3.00,+13.00,-5.00,-4.00,+49.00,-2.00,-5.00,-22.00
-2.00,+2.00,+0.00,+0.00,+1.00,-2.00,-1.00,-1.00,-25.00,+3.00,+7.00,-3.00,-17.00,+0.00,+0.00,+6.00
-2.00,-2.00,-1.00,-3.00,-2.00,+4.00,+0.00,+0.00,-35.00,-22.00,-6.00,-8.00,-10.00,-1.00,-5.00,-19.00
-5.00,-5.00,+2.00,-3.00,-3.00,-6.00,-3.00,+0.00,-3.00,-6.00,+6.00,+5.00,-20.00,-4.00,+3.00,+2.00
+4.00,+2.00,-2.00,-6.00,-2.00,+1.00,+0.00,+0.00,-7.00,+13.00,-2.00,+4.00,+25.00,+1.00,-4.00,-6.00
-7.00,-3.00,-2.00,+2.00,+0.00,-2.00,+1.00,-2.00,+46.00,+12.00,-3.00,-7.00,+18.00,+1.00,-2.00,+4.00
-3.00,-15.00,+0.00,+0.00,+0.00,+3.00,+0.00,+0.00,+1.00,+7.00,-5.00,+1.00,-60.00,-2.00,-3.00,-6.00
-9.00,+0.00,-3.00,+1.00,-1.00,-3.00,+0.00,+1.00,-4.00,-9.00,+8.00,+7.00,+32.00,+7.00,+0.00,-4.00
-1.00,+0.00,-2.00,+1.00,-1.00,-1.00,+1.00,-1.00,-4.00,-12.00,-8.00,-6.00,-11.00,-1.00,-2.00,+1.00
-5.00,+3.00,-1.00,-2.00,-3.00,+1.00,-3.00,-3.00,-20.00,-16.00,+0.00,-6.00,-6.00,-5.00,-2.00,-8.00
+0.00,-10.00,+1.00,-6.00,-7.00,-49.00,-5.00,-4.00,+22.00,-9.00,-1.00,+2.00,+7.00,-2.00,-2.00,+6.00
+1.00,+4.00,+0.00,+5.00,+12.00,+69.00,+7.00,+3.00,-11.00,+4.00,-5.00,-1.00,+14.00,+0.00,+0.00,+1.00
+2.00,-1.00,-2.00,+0.00,+2.00,+2.00,+0.00,+3.00,-23.00,-2.00,+1.00,-2.00,-15.00,-1.00,+0.00,-2.00
+3.00,+3.00,-2.00,-3.00,+0.00,+0.00,+0.00,+1.00,+19.00,+12.00,-2.00,-1.00,-20.00,-3.00,-3.00,+0.00
-3.00,+0.00,+1.00,-6.00,-4.00,+5.00,-3.00,-2.00,-7.00,-26.00,-2.00,-3.00,+7.00,-1.00,-2.00,-3.00
+29.00,-13.00,-10.00,-14.00,-11.00,-52.00,-12.00,+6.00,-17.00,+10.00,-9.00,+2.00,+47.00,+1.00,+0.00,-2.00
-16.00,+4.00,+0.00,+3.00,-2.00,+28.00,+1.00,-9.00,+27.00,+8.00,+0.00,-14.00,-49.00,+5.00,-1.00,+3.00
+2.00,+3.00,-4.00,-4.00,-7.00,-64.00,-8.00,-3.00,+1.00,+13.00,+7.00,+12.00,+36.00,-1.00,+2.00,+4.00
+3.00,+31.00,+3.00,+14.00,+20.00,+86.00,+15.00,+11.00,+6.00,-7.00,-7.00,+1.00,-1.00,-1.00,-4.00,-13.00
-19.00,-7.00,+10.00,+0.00,-1.00,-6.00,-1.00,-3.00,+4.00,-8.00,-5.00,-9.00,-5.00,+1.00,+0.00,+0.00
+16.00,-25.00,-7.00,-1.00,+2.00,+6.00,+0.00,+6.00,-13.00,-20.00,-2.00,+0.00,-15.00,-5.00,-1.00,+6.00
+15.00,+53.00,+4.00,-2.00,-9.00,-18.00,-4.00,+1.00,-6.00,-6.00,-9.00,-5.00,+19.00,-2.00,-4.00,-7.00
-24.00,-13.00,-2.00,-4.00,+3.00,-31.00,-5.00,-8.00,-1.00,-22.00,-2.00,+4.00,+11.00,+3.00,-1.00,+6.00
-4.00,-11.00,-3.00,+4.00,+8.00,+61.00,+6.00,-2.00,+0.00,+18.00,+5.00,-10.00,-28.00,-3.00,-2.00,-1.00
-2.00,+2.00,+2.00,-3.00,-9.00,-29.00,-5.00,-2.00,-8.00,-7.00,-5.00,+7.00,+2.00,-3.00,-4.00,-10.00
-17.00,-52.00,-4.00,-3.00,+0.00,+23.00,+0.00,-7.00,+28.00,+8.00,+5.00,+3.00,+9.00,+2.00,+6.00,+26.00
+19.00,-60.00,-6.00,-1.00,+2.00,+20.00,+2.00,+5.00,+13.00,-12.00,-8.00,-2.00,+30.00,+11.00,+3.00,+2.00
-3.00,+73.00,+8.00,-1.00,+1.00,-7.00,+2.00,+2.00,+0.00,+36.00,+8.00,+4.00,-5.00,+2.00,+1.00,+6.00
-14.00,-30.00,-2.00,-3.00,-2.00,-15.00,-4.00,-8.00,-30.00,-4.00,+6.00,+4.00,-32.00,-5.00,-6.00,-19.00
+8.00,+16.00,+3.00,+1.00,+3.00,+17.00,+2.00,+5.00,+12.00,+17.00,-2.00,+10.00,+5.00,-4.00,-4.00,-9.00
-11.00,+14.00,+0.00,-5.00,-5.00,-12.00,-3.00,-2.00,+47.00,-24.00,+3.00,-7.00,+7.00,-3.00,+1.00,+7.00
-12.00,-45.00,-7.00,-1.00,-3.00,-16.00,-3.00,-7.00,+62.00,-14.00,-5.00,-3.00,+2.00,+3.00,+4.00,+11.00
+2.00,+20.00,+1.00,-2.00,+0.00,+7.00,+0.00,+1.00,-13.00,+43.00,+1.00,-3.00,+11.00,+1.00,+1.00,-4.00
-8.00,-31.00,-3.00,-1.00,+0.00,-11.00,+1.00,+1.00,+15.00,-16.00,+9.00,-1.00,+6.00,-1.00,+5.00,+8.00
-4.00,-3.00,-4.00,-4.00,-4.00,-10.00,-5.00,-3.00,-55.00,-4.00,-13.00,-7.00,-6.00,-6.00,-7.00,-16.00
-2.00,-13.00,-3.00,+0.00,-6.00,-9.00,-5.00,-10.00,+11.00,+10.00,+4.00,+0.00,+0.00,+0.00,+0.00,+9.00
-9.00,+46.00,+5.00,+4.00,+5.00,-19.00,+3.00,-1.00,+20.00,-12.00,-4.00,-1.00,+6.00,+0.00,+0.00,-6.00
-9.00,-21.00,-1.00,-4.00,-1.00,+17.00,+2.00,-1.00,-32.00,-9.00,-10.00,-11.00,-18.00,-7.00,-7.00,-10.00
+5.00,+30.00,+11.00,-2.00,+4.00,+12.00,+5.00,+0.00,+15.00,+31.00,+7.00,+5.00,+3.00,+0.00,+5.00,+24.00
-1.00,+24.00,+2.00,-6.00,-7.00,-13.00,-5.00,-2.00,+14.00,-33.00,-5.00,+2.00,+2.00,-1.00,-1.00,+0.00
-24.00,-13.00,+6.00,-2.00,-3.00,+3.00,-2.00,-10.00,-25.00,+13.00,+7.00,-2.00,+2.00,+2.00,+3.00,+1.00
-23.00,+7.00,+5.00,+1.00,+0.00,-2.00,-4.00,-7.00,-66.00,-43.00,-2.00,-2.00,-10.00,-15.00,-8.00,-19.00
-4.00,-10.00,-12.00,+0.00,-7.00,-22.00,-9.00,-6.00,+13.00,+44.00,+7.00,+7.00,+0.00,+22.00,+2.00,-8.00
+5.00,+2.00,+1.00,-4.00,+2.00,-17.00,+0.00,+3.00,-37.00,-26.00,-5.00,-1.00,+9.00,-2.00,-2.00,+2.00
+17.00,-3.00,-7.00,-6.00,+0.00,+7.00,+1.00,+7.00,-25.00,-13.00,-10.00,-9.00,-10.00,+0.00,-7.00,-15.00
-20.00,-11.00,-4.00,-3.00,-1.00,-18.00,-1.00,-8.00,+29.00,+37.00,+8.00,+5.00,+32.00,-3.00,+9.00,+25.00
-2.00,-53.00,-4.00,-8.00,-6.00,+13.00,-4.00,-3.00,-51.00,-11.00,-2.00,-2.00,-34.00,-9.00,-6.00,-28.00
+13.00,+32.00,+7.00,+9.00,+3.00,-7.00,+4.00,+4.00,+64.00,+24.00,+7.00,+7.00,+6.00,-2.00,+10.00,+68.00
+5.00,+21.00,+7.00,+4.00,+9.00,+23.00,+5.00,+4.00,+7.00,-35.00,-3.00,+0.00,+2.00,+4.00,+9.00,-2.00
+14.00,-17.00,-5.00,-4.00,+2.00,+25.00,+2.00,+2.00,+4.00,+8.00,+0.00,+3.00,-5.00,+2.00,-2.00,+3.00
-18.00,-5.00,+3.00,-1.00,-3.00,-12.00,-4.00,-6.00,+18.00,+15.00,-6.00,-7.00,+10.00,-5.00,-2.00,+4.00
+0.00,-4.00,-8.00,-10.00,-9.00,-11.00,-7.00,-10.00,-42.00,-17.00,+7.00,+1.00,-3.00,-2.00,-4.00,-23.00
+36.00,-30.00,-4.00,+0.00,-4.00,-2.00,-6.00,+11.00,-30.00,-23.00,-5.00,-6.00,-11.00,-4.00,-7.00,-10.00
+10.00,+48.00,+7.00,+1.00,+4.00,-13.00,+2.00,+2.00,-15.00,-42.00,-8.00,-7.00,-5.00,+1.00,-5.00,-8.00
+10.00,+0.00,+3.00,-6.00,-3.00,+3.00,-1.00,-5.00,+57.00,+34.00,+4.00,+4.00,+33.00,-2.00,+5.00,+21.00
-5.00,-37.00,-1.00,+3.00,+3.00,+0.00,+3.00,+1.00,-24.00,-7.00,-3.00,-3.00,-41.00,-1.00,-7.00,-27.00
-14.00,-12.00,+0.00,-6.00,-1.00,-11.00,-3.00,+3.00,-16.00,+20.00,+0.00,+1.00,+7.00,-4.00,-1.00,+6.00
-10.00,-34.00,-8.00,+1.00,+4.00,+9.00,-3.00,+0.00,+37.00,+6.00,-2.00,-1.00,-10.00,+0.00,-4.00,+15.00
-1.00,+30.00,-3.00,-1.00,-2.00,-6.00,+0.00,-10.00,-3.00,-41.00,-8.00,-14.00,+42.00,+0.00,+22.00,-15.00
+6.00,-67.00,-6.00,-6.00,-5.00,+2.00,-2.00,-9.00,+29.00,+48.00,+10.00,+9.00,-12.00,+0.00,+6.00,+4.00
+22.00,+101.00,+8.00,+8.00,+2.00,-3.00,+6.00,+7.00,+4.00,-29.00,-3.00,+9.00,+17.00,+1.00,-5.00,-10.00
-23.00,+50.00,+6.00,-1.00,-3.00,+10.00,+4.00,+6.00,-30.00,+47.00,+1.00,+0.00,-44.00,-13.00,+3.00,+2.00
-9.00,-21.00,-3.00,-3.00,-1.00,+2.00,-5.00,+9.00,+23.00,-27.00,+4.00,+9.00,+26.00,+13.00,-1.00,+21.00
-4.00,+0.00,-2.00,-5.00,-2.00,-13.00,-6.00,-9.00,-4.00,-11.00,-6.00,-5.00,+18.00,+0.00,-2.00,-7.00
-3.00,-43.00,-9.00,-2.00,-8.00,-1.00,-5.00,-9.00,+39.00,+9.00,+1.00,-3.00,-5.00,+0.00,+6.00,+18.00
+10.00,+0.00,+2.00,+4.00,+1.00,+0.00,-3.00,+3.00,-38.00,-20.00,-8.00,-2.00,-2.00,-3.00,-3.00,-17.00
+6.00,+21.00,+2.00,-8.00,+4.00,-28.00,+2.00,+20.00,+63.00,+25.00,+0.00,-8.00,-14.00,-8.00,-6.00,+0.00
+5.00,-19.00,-2.00,+9.00,+4.00,+13.00,+0.00,-23.00,-28.00,-9.00,-9.00,-7.00,+22.00,-3.00,-6.00,-30.00
-4.00,-3.00,-3.00,-3.00,+0.00,-7.00,-5.00,-6.00,+81.00,+51.00,+10.00,+7.00,-40.00,+7.00,+5.00,+31.00
-1.00,-19.00,-1.00,+2.00,+3.00,+10.00,+6.00,+0.00,+20.00,-15.00,+0.00,-1.00,+8.00,+4.00,-6.00,-28.00
+5.00,-93.00,-10.00,-7.00,-8.00,-15.00,-5.00,-3.00,-48.00,+9.00,+0.00,+6.00,-15.00,-6.00,-4.00,+26.00
+3.00,+82.00,+18.00,+3.00,+4.00,-3.00,+5.00,+15.00,-11.00,-31.00,-4.00,-4.00,+2.00,-5.00,+4.00,-2.00
-9.00,-56.00,-2.00,-3.00,-3.00,-2.00,-3.00,-5.00,+22.00,-16.00,-7.00,-10.00,+7.00,-8.00,-9.00,-35.00
-2.00,-2.00,+0.00,-3.00,-5.00,-15.00,-4.00,-4.00,+6.00,-4.00,-12.00,-8.00,+31.00,+6.00,+1.00,-1.00
+4.00,+24.00,-2.00,+0.00,+3.00,+13.00,+2.00,-6.00,-128.00,-44.00,+11.00,-12.00,-66.00,+2.00,-5.00,-21.00
+7.00,-43.00,-12.00,-5.00,-3.00,-4.00,-5.00,+5.00,+74.00,+68.00,+4.00,+16.00,+26.00,-7.00,-4.00,-32.00
-3.00,-28.00,-2.00,-3.00,-3.00,+2.00,+1.00,+11.00,-27.00,-16.00,+2.00,+2.00,-18.00,-5.00,+1.00,+0.00
-5.00,+37.00,-1.00,+0.00,-3.00,+0.00,-4.00,-11.00,+53.00,-4.00,+1.00,+8.00,+17.00,+2.00,-7.00,-27.00
+5.00,+15.00,-2.00,-5.00,-3.00,+20.00,-12.00,-8.00,+25.00,+14.00,-7.00,-1.00,+14.00,-9.00,-4.00,+11.00
+2.00,+15.00,+2.00,+12.00,+14.00,+18.00,+15.00,+13.00,-56.00,-18.00,-6.00,+2.00,-22.00,-18.00,-13.00,-9.00
-12.00,+6.00,-3.00,-8.00,-9.00,-18.00,-5.00,-1.00,+14.00,+2.00,+7.00,-9.00,-3.00,+22.00,-4.00,-2.00
+13.00,-69.00,-5.00,+3.00,+7.00,+17.00,+8.00,+6.00,+8.00,+16.00,+5.00,+14.00,+24.00,+5.00,+28.00,-11.00
-5.00,+7.00,+4.00,+3.00,+5.00,-5.00,+3.00,-6.00,-4.00,-15.00,+0.00,+0.00,+22.00,+6.00,-9.00,-3.00
-4.00,-2.00,-5.00,-9.00,-6.00,-13.00,-9.00,+0.00,+11.00,+34.00,+5.00,-7.00,-6.00,+5.00,-11.00,+56.00
-6.00,-2.00,-2.00,+0.00,-1.00,-2.00,-3.00,-9.00,-18.00,-24.00,-15.00,-2.00,+6.00,-16.00,+3.00,-78.00
+3.00,+2.00,-4.00,+0.00,-1.00,-10.00,-2.00,-1.00,-49.00,-7.00,+1.00,-8.00,-15.00,+3.00,+14.00,+19.00
-4.00,-34.00,-4.00,-1.00,-4.00,-1.00,-2.00,-8.00,+77.00,-1.00,+7.00,+4.00,+2.00,-1.00,+8.00,+24.00
-1.00,-24.00,-6.00,-7.00,-1.00,-2.00,-3.00,+6.00,-1.00,-18.00,-2.00,-5.00,-19.00,+0.00,-2.00,-49.00
-2.00,+31.00,+8.00,+7.00,+12.00,+0.00,+11.00,-7.00,+26.00,-8.00,+1.00,-1.00,+39.00,-1.00,-6.00,+19.00
-3.00,+49.00,+1.00,-8.00,-7.00,-10.00,-4.00,+14.00,-5.00,+11.00,-8.00,-16.00,-12.00,+4.00,-5.00,+16.00
+3.00,-7.00,-2.00,+1.00,+1.00,+4.00,+13.00,+39.00,-44.00,-17.00,-9.00,-5.00,-71.00,-7.00,-3.00,-9.00
+3.00,+5.00,-1.00,-4.00,-7.00,-6.00,-12.00,-47.00,+11.00,-22.00,+2.00,+19.00,+77.00,-5.00,-28.00,+3.00
+0.00,+36.00,-3.00,-4.00,-9.00,-7.00,-7.00,+2.00,-31.00,-24.00,-5.00,-9.00,-45.00,+9.00,+26.00,+30.00
-3.00,-74.00,-10.00,-5.00,-3.00,+0.00,-6.00,-4.00,+19.00,+33.00,+1.00,+4.00,-44.00,-11.00,-5.00,+0.00
-4.00,+113.00,+20.00,-2.00,-16.00,-80.00,-7.00,+7.00,-59.00,+30.00,+0.00,+6.00,+30.00,-11.00,+5.00,-51.00
+5.00,-63.00,-2.00,+15.00,+18.00,+96.00,+20.00,+20.00,+22.00,+7.00,+2.00,-6.00,-18.00,+12.00,-16.00,+49.00
+4.00,+14.00,+3.00,+6.00,+7.00,+16.00,+6.00,+0.00,-83.00,-3.00,+4.00,-18.00,-41.00,-42.00,-22.00,-3.00
-1.00,+17.00,-4.00,-9.00,-6.00,-1.00,-6.00,-5.00,-12.00,-29.00,-1.00,+16.00,+63.00,+43.00,-1.00,+16.00
+0.00,-97.00,-13.00,-8.00,-1.00,-13.00,+1.00,-13.00,-54.00,-8.00,-5.00,+0.00,-12.00,-6.00,-8.00,-27.00
+1.00,+53.00,+1.00,-3.00,-10.00,-27.00,-7.00,+33.00,-54.00,-17.00,-5.00,-5.00,+5.00,+3.00,+3.00,-18.00
-1.00,-6.00,+0.00,+9.00,+6.00,-26.00,+12.00,+6.00,-8.00,+27.00,-4.00,-1.00,+7.00,-14.00,-5.00,+3.00
+2.00,-32.00,-5.00,+7.00,+3.00,+30.00,+14.00,+5.00,+12.00,+9.00,+13.00,+2.00,-11.00,-17.00,+22.00,+76.00
+0.00,+111.00,+11.00,-2.00,-1.00,+2.00,+0.00,+21.00,+25.00,-1.00,-6.00,-7.00,+19.00,-1.00,-3.00,-1.00
-4.00,-37.00,-4.00,-5.00,-4.00,-25.00,+3.00,-34.00,+45.00,-7.00,-1.00,+3.00,+3.00,-23.00,+12.00,-30.00
-6.00,-81.00,-9.00,-9.00,-6.00,+3.00,-31.00,+15.00,-11.00,+5.00,-3.00,-4.00,-10.00,+39.00,-11.00,+9.00
-4.00,+71.00,+5.00,+1.00,-2.00,-17.00,+0.00,+21.00,+56.00,-2.00,-1.00,-2.00,-31.00,-21.00,-17.00,-47.00
+1.00,+11.00,+0.00,+8.00,+6.00,+23.00,+12.00,-31.00,-3.00,-26.00,+1.00,+2.00,-11.00,+3.00,+3.00,-4.00
-5.00,+11.00,+4.00,-5.00,-2.00,-15.00,-7.00,+1.00,+35.00,-6.00,-8.00,-27.00,+20.00,-6.00,-4.00,+6.00
-3.00,-19.00,-5.00,-7.00,-2.00,+6.00,-1.00,-12.00,-3.00,-4.00,+4.00,+24.00,-8.00,+2.00,+38.00,+17.00
+0.00,-67.00,-7.00,-6.00,-11.00,-23.00,-11.00,-33.00,-4.00,-2.00,-1.00,+2.00,-24.00,-9.00,-13.00,-17.00
+4.00,+30.00,+1.00,+7.00,+7.00,+1.00,-2.00,+7.00,-9.00,-10.00,-7.00,+4.00,+11.00,+10.00,-3.00,+4.00
-5.00,+57.00,+3.00,-5.00,-3.00,-30.00,-2.00,-2.00,+30.00,+25.00,+9.00,-1.00,-40.00,-40.00,-9.00,+4.00
-3.00,-28.00,-2.00,+0.00,-1.00,+37.00,-6.00,-8.00,+32.00,-12.00,-6.00,-4.00,+26.00,+5.00,+4.00,-12.00
+1.00,+8.00,+8.00,+5.00,+12.00,+33.00,+9.00,+10.00,-24.00,-21.00,-2.00,-2.00,+1.00,-10.00,-12.00,-19.00
+4.00,-11.00,-7.00,-6.00,-5.00,+21.00,-2.00,+8.00,+7.00,+18.00,-10.00,-11.00,+9.00,+17.00,-3.00,-16.00
-1.00,-57.00,-9.00,-4.00,-2.00,-27.00,-3.00,-11.00,-67.00,-13.00,+1.00,-4.00,-8.00,+5.00,+9.00,-20.00
+1.00,+20.00,+10.00,-1.00,-4.00,-48.00,-8.00,-13.00,+57.00,+15.00,+5.00,+8.00,+17.00,+5.00,+3.00,+29.00
+0.00,+56.00,+2.00,-1.00,+1.00,+12.00,-30.00,+5.00,+15.00,-11.00,-7.00,-6.00,+7.00,-1.00,+1.00,+29.00
-5.00,-18.00,+1.00,-1.00,-1.00,+31.00,+43.00,+3.00,-42.00,+4.00,+1.00,+1.00,+6.00,-16.00,-3.00,-8.00
+7.00,-9.00,-6.00,-8.00,-7.00,+1.00,-1.00,+18.00,-73.00,-4.00,-10.00,+6.00,+31.00,+31.00,+5.00,-29.00
+4.00,-70.00,-4.00,-4.00,-3.00,-2.00,+11.00,-6.00,+39.00,+28.00,+3.00,-3.00,-33.00,-30.00,-2.00,-37.00
-6.00,+38.00,+8.00,+11.00,+6.00,+3.00,-9.00,-4.00,-54.00,-19.00,-1.00,-8.00,-4.00,+52.00,+5.00,-2.00
+1.00,-23.00,-5.00,-5.00,-2.00,-18.00,-21.00,-20.00,+36.00,+18.00,+9.00,+7.00,+24.00,-2.00,+0.00,+38.00
+4.00,+41.00,+6.00,+0.00,-4.00,+26.00,+3.00,-40.00,-39.00,-21.00,-4.00,+3.00,-24.00,+9.00,-2.00,-4.00
+3.00,+32.00,+2.00,+5.00,+0.00,-24.00,+0.00,+10.00,-41.00,-27.00,+1.00,-5.00,+19.00,-1.00,+5.00,+8.00
-3.00,-27.00,-7.00,-7.00,+1.00,+25.00,+0.00,-8.00,+14.00,+43.00,+1.00,-8.00,+55.00,-30.00,-8.00,-48.00
+0.00,+56.00,+7.00,+1.00,+4.00,+17.00,-1.00,+8.00,-6.00,-37.00,+2.00,+3.00,-55.00,-18.00,-1.00,-12.00
-3.00,-31.00,-6.00,-11.00,-9.00,-71.00,-7.00,+9.00,-19.00,+7.00,-8.00,-9.00,-10.00,+24.00,+4.00,+17.00
+0.00,+65.00,+4.00,+8.00,+8.00,+15.00,+7.00,-3.00,-21.00,-4.00,+2.00,-6.00,+0.00,-20.00,-7.00,-7.00
-5.00,+3.00,-1.00,-3.00,-4.00,+0.00,+5.00,-15.00,-27.00,-1.00,-4.00,+5.00,-2.00,+8.00,-3.00,-1.00
-1.00,-56.00,-7.00,-9.00,-11.00,-32.00,-57.00,-11.00,+45.00,-2.00,-3.00,+2.00,+23.00,-19.00,-7.00,+8.00
-2.00,-16.00,+4.00,+5.00,+11.00,+55.00,+79.00,-3.00,-13.00,-9.00,-4.00,+0.00,-27.00,+21.00,+8.00,+6.00
-2.00,-37.00,-7.00,-2.00,-1.00,+0.00,-2.00,-5.00,-27.00,-40.00,-3.00,-6.00,-8.00,+3.00,-12.00,-12.00
+0.00,+30.00,+4.00,-1.00,-2.00,-11.00,+15.00,+25.00,+28.00,+31.00,+5.00,+4.00,-44.00,-2.00,+7.00,+26.00
+1.00,-69.00,-12.00,-13.00,-8.00,-10.00,-19.00,-18.00,-49.00,-15.00,-5.00,-8.00,+7.00,-1.00,+8.00,+30.00
-1.00,-27.00,+9.00,+3.00,-1.00,-20.00,-27.00,+14.00,+78.00,+72.00,+9.00,+5.00,+14.00,+4.00,+29.00,-2.00
-1.00,+58.00,+0.00,+1.00,+0.00,+10.00,+4.00,+1.00,+0.00,+3.00,-1.00,-4.00,+11.00,+6.00,+0.00,+30.00
+4.00,-43.00,-5.00,-3.00,+0.00,-13.00,+15.00,+11.00,+15.00,-16.00,-10.00,-11.00,+34.00,-12.00,-7.00,-6.00
-6.00,+15.00,+1.00,-6.00,-1.00,+14.00,-4.00,-77.00,-32.00,+20.00,+12.00,+23.00,-63.00,+5.00,-25.00,+35.00
-4.00,-55.00,-5.00,-3.00,-12.00,-35.00,-25.00,+4.00,+29.00,-13.00,-9.00,-6.00,+48.00,-9.00,-22.00,+4.00
-5.00,+3.00,+1.00,+3.00,+8.00,+10.00,+6.00,+15.00,+10.00,+3.00,+1.00,+5.00,-39.00,-21.00,+15.00,+14.00
-1.00,-7.00,-1.00,-1.00,-1.00,-10.00,-13.00,+3.00,-37.00,-23.00,-4.00,-25.00,-23.00,+23.00,+0.00,-12.00
-1.00,+23.00,-1.00,+5.00,+4.00,+1.00,+13.00,+18.00,+48.00,+13.00,-5.00,+17.00,+34.00,+0.00,-5.00,-16.00
+3.00,+46.00,+0.00,+5.00,+6.00,+21.00,-2.00,+18.00,-29.00,-33.00,-4.00,-3.00,+1.00,-14.00,-4.00,+1.00
+1.00,-76.00,-8.00,-8.00,-8.00,-3.00,-5.00,-1.00,+62.00,+5.00,+1.00,+8.00,+13.00,+1.00,-8.00,+25.00
-3.00,+12.00,+2.00,-8.00,-14.00,-107.00,-9.00,-20.00,-11.00,+12.00,+1.00,+0.00,-21.00,+4.00,-1.00,+13.00
-4.00,-42.00,-3.00,+13.00,+16.00,+99.00,+7.00,+29.00,+37.00,+27.00,-3.00,-17.00,+3.00,-3.00,+5.00,-27.00
+5.00,+108.00,+2.00,-10.00,+6.00,+49.00,+1.00,-11.00,+44.00,-25.00,+4.00,+2.00,-31.00,+13.00,+5.00,+22.00
-4.00,+0.00,+4.00,+3.00,-2.00,+2.00,-3.00,+3.00,-28.00,-11.00,-11.00,-4.00,+5.00,+0.00,-17.00,-24.00
-1.00,+1.00,-2.00,-3.00,-4.00,+6.00,-1.00,-4.00,+70.00,+18.00,+5.00,-1.00,-7.00,-1.00,+39.00,+43.00
+2.00,-40.00,-6.00,-1.00,-3.00,-14.00,+18.00,+9.00,-23.00,-7.00,+5.00,+4.00,-3.00,+8.00,-3.00,+4.00
+1.00,-26.00,-4.00,-3.00,-7.00,-37.00,-29.00,+3.00,-6.00,+4.00,+4.00,+7.00,+8.00,-7.00,-2.00,-24.00
-6.00,+73.00,+4.00,-3.00,-2.00,+31.00,-28.00,-66.00,-26.00,-45.00,-6.00,-7.00,+6.00,-2.00,-7.00,-17.00
+5.00,+27.00,+8.00,+8.00,+7.00,+2.00,+54.00,+20.00,-17.00,+27.00,-2.00,-6.00,+7.00,-20.00,-28.00,-33.00
-4.00,-5.00,-1.00,-3.00,+0.00,-19.00,+1.00,-11.00,-10.00,-3.00,-1.00,+3.00,-19.00,+5.00,+6.00,+6.00
-1.00,+49.00,+3.00,+7.00,+5.00,+18.00,-18.00,-48.00,+31.00,-29.00,-9.00,-10.00,-28.00,-6.00,+2.00,+4.00
-1.00,-58.00,-4.00,-6.00,+0.00,-31.00,+4.00,+14.00,-8.00,+33.00,+3.00,+3.00,+26.00,+3.00,-9.00,-13.00
+2.00,-34.00,-5.00,-14.00,-16.00,-28.00,-18.00,+13.00,-25.00,+7.00,+0.00,+5.00,+6.00,+0.00,-7.00,-10.00
+0.00,+11.00,+3.00,+17.00,+11.00,+52.00,+1.00,+1.00,-5.00,-8.00,+1.00,-9.00,+3.00,+4.00,+8.00,-5.00
-1.00,-102.00,-18.00,-15.00,-15.00,-18.00,+4.00,+13.00,-44.00,-17.00,-14.00,-7.00,+10.00,-11.00,-14.00,-59.00
+1.00,+97.00,+10.00,+8.00,+7.00,+8.00,-7.00,-4.00,+53.00,+57.00,+15.00,+9.00,+20.00,+48.00,+19.00,+70.00
-5.00,-23.00,-4.00,-6.00,-2.00,-43.00,-8.00,-8.00,-23.00,-39.00,-3.00,-1.00,+3.00,-7.00,-2.00,+5.00
+3.00,-14.00,-5.00,-4.00,+1.00,+18.00,+11.00,+1.00,+12.00,+20.00,+12.00,+2.00,-26.00,+3.00,+14.00,+24.00
-6.00,-3.00,+6.00,-5.00,-3.00,+0.00,-12.00,-35.00,-12.00,+18.00,+4.00,+9.00,-19.00,-10.00,-9.00,-6.00
-2.00,-38.00,-7.00,+4.00,-1.00,+16.00,+14.00,+7.00,+9.00,+4.00,-11.00,-17.00,+11.00,+1.00,+12.00,-24.00
+3.00,-53.00,-5.00,-3.00,+2.00,+1.00,-24.00,-11.00,-18.00,-5.00,-2.00,+18.00,-52.00,+1.00,+19.00,-11.00
-3.00,+14.00,+1.00,-6.00,-7.00,-23.00,+3.00,+2.00,-12.00,-41.00,-4.00,-7.00,+20.00,+56.00,-24.00,-12.00
+1.00,+1.00,-1.00,+0.00,+2.00,-9.00,+9.00,+9.00,-19.00,+30.00,+2.00,-3.00,-6.00,-6.00,+5.00,+11.00
+1.00,-35.00,-9.00,-12.00,-9.00,-11.00,-15.00,+23.00,+18.00,+21.00,+1.00,-2.00,+8.00,-2.00,-10.00,-4.00
+2.00,-25.00,+1.00,+9.00,+4.00,+6.00,-28.00,-30.00,-7.00,-25.00,+0.00,+4.00,+16.00,+1.00,+2.00,-8.00
+4.00,+45.00,+6.00,+7.00,+0.00,+10.00,+42.00,+16.00,+2.00,+45.00,-14.00,-13.00,+8.00,-27.00,-5.00,-20.00
-1.00,+34.00,+5.00,+0.00,+7.00,+14.00,-6.00,+14.00,+23.00,-7.00,+11.00,+7.00,+10.00,+9.00,+8.00,+29.00
-1.00,-22.00,-7.00,-7.00,-6.00,-12.00,+5.00,+10.00,-19.00,-8.00,-3.00,-1.00,-9.00,-8.00,-3.00,-7.00
-1.00,+24.00,-5.00,-5.00,+1.00,+21.00,+3.00,+46.00,-21.00,-24.00,-3.00,-3.00,+3.00,-9.00,-15.00,-15.00
+1.00,-21.00,+0.00,-5.00,-5.00,-23.00,-10.00,+2.00,-17.00,-6.00,-21.00,-9.00,+1.00,-23.00,-22.00,-74.00
-4.00,+11.00,-3.00,-3.00,-3.00,-11.00,-5.00,+10.00,+49.00,+24.00,+18.00,+6.00,+7.00,+13.00,+26.00,+82.00
+0.00,-56.00,+5.00,+2.00,-1.00,+7.00,+7.00,+8.00,+6.00,-5.00,+1.00,+3.00,-1.00,-7.00,-7.00,-3.00
-1.00,-10.00,-4.00,-1.00,-2.00,+6.00,+6.00,-15.00,+12.00,+3.00,+2.00,+0.00,-5.00,-5.00,-5.00,+5.00
-6.00,+34.00,+5.00,-5.00,-4.00,-29.00,-8.00,-5.00,-3.00,-2.00,+1.00,+0.00,+2.00,-2.00,+6.00,+7.00
-4.00,-42.00,-14.00,-7.00,-6.00,+10.00,-11.00,-1.00,-25.00,-15.00,-16.00,-13.00,-5.00,-3.00,-5.00,-17.00
+3.00,+56.00,+19.00,+9.00,+4.00,-2.00,+6.00,+22.00,-10.00,-23.00,-4.00,-2.00,-5.00,-7.00,-4.00,-4.00
-6.00,-26.00,-3.00,-7.00,-5.00,-35.00,-9.00,-4.00,+3.00,+10.00,-2.00,-5.00,+6.00,-4.00,-8.00,-3.00
+1.00,+45.00,+12.00,+13.00,+10.00,-1.00,-5.00,-17.00,+7.00,+29.00,+2.00,+1.00,+9.00,-6.00,+0.00,-5.00
-2.00,-32.00,-4.00,-2.00,+0.00,+25.00,+2.00,+15.00,-46.00,-37.00,-1.00,-2.00,+40.00,-5.00,-9.00,-30.00
-1.00,-27.00,-13.00,-11.00,-8.00,-14.00,-5.00,-18.00,+38.00,+17.00,+4.00,+6.00,-31.00,+0.00,+6.00,+32.00
+2.00,-13.00,-1.00,+7.00,+9.00,+46.00,+18.00,+1.00,-10.00,+0.00,-2.00,-5.00,-39.00,-1.00,-4.00,+2.00
-6.00,+27.00,+3.00,-9.00,-5.00,-19.00,-18.00,+4.00,-42.00,-5.00,+4.00,+6.00,+30.00,+2.00,+6.00,+18.00
+4.00,-9.00,-1.00,+1.00,-5.00,-24.00,+4.00,+26.00,-28.00,-1.00,-3.00,-3.00,-22.00,+1.00,+0.00,+1.00
-4.00,-9.00,-3.00,-5.00,+3.00,+2.00,-2.00,-17.00,-46.00,+0.00,-5.00,-4.00,-5.00,-8.00,-7.00,-24.00
-2.00,+11.00,+4.00,+5.00,-5.00,+16.00,+7.00,+1.00,-44.00,-9.00,-2.00,-8.00,+31.00,-1.00,-2.00,+2.00
+0.00,-74.00,-11.00,-11.00,-6.00,-13.00,-10.00,-1.00,+20.00,-14.00,-7.00,-11.00,-8.00,-3.00,+4.00,+9.00
+4.00,+91.00,+15.00,+7.00,+6.00,+16.00,+11.00,+27.00,+59.00,+6.00,+2.00,+16.00,-20.00,-9.00,+0.00,-2.00
-1.00,+10.00,-1.00,-3.00,-2.00,-22.00,+0.00,-8.00,+96.00,-10.00,-2.00,+2.00,+12.00,-1.00,-2.00,-8.00
+0.00,-11.00,-10.00,-6.00,-1.00,+25.00,-5.00,-12.00,+66.00,+0.00,-1.00,-1.00,-10.00,-1.00,-4.00,-3.00
-1.00,-43.00,-10.00,-14.00,-12.00,-17.00,-14.00,-2.00,+6.00,-12.00,-3.00,-2.00,+11.00,-2.00,+5.00,+13.00
-4.00,+6.00,+8.00,+12.00,+7.00,+2.00,+14.00,-3.00,+85.00,-2.00,-2.00,-15.00,+1.00,-1.00,-5.00,-16.00
-4.00,-6.00,-5.00,-1.00,+0.00,+2.00,+2.00,+4.00,-40.00,-5.00,-8.00,-2.00,-19.00,-9.00,-5.00,-6.00
-2.00,+25.00,-6.00,-2.00,+2.00,+6.00,+1.00,-3.00,-76.00,-1.00,-1.00,+3.00,+5.00,-19.00,-4.00,+6.00
+2.00,-14.00,+3.00,-1.00,+1.00,+6.00,-1.00,-2.00,+84.00,+0.00,+4.00,-2.00,+0.00,+15.00,+3.00,-1.00
-6.00,-1.00,+1.00,-4.00,-4.00,-13.00,-4.00,-4.00,+45.00,+4.00,+3.00,+1.00,+17.00,-1.00,-1.00,+0.00
-5.00,+0.00,-1.00,+2.00,+1.00,+4.00,+0.00,+2.00,-4.00,-8.00,-3.00,-23.00,+50.00,+19.00,-2.00,-2.00
-5.00,-10.00,-2.00,-1.00,+1.00,+15.00,-3.00,-9.00,-30.00,-2.00,+0.00,+25.00,-81.00,-28.00,-7.00,-28.00
+2.00,-44.00,-6.00,-5.00,-3.00,-8.00,+1.00,+0.00,-79.00,-1.00,+11.00,+10.00,+5.00,-13.00,+6.00,+18.00
-4.00,+35.00,+5.00,-7.00,-8.00,-27.00,-2.00,-6.00,-127.00,-3.00,-7.00,-25.00,-32.00,+1.00,-1.00,+2.00
+3.00,-25.00,+0.00,+5.00,+6.00,+27.00,-8.00,+2.00,-81.00,+2.00,-3.00,+7.00,+16.00,+6.00,-10.00,-31.00
-5.00,+14.00,+0.00,+3.00,+7.00,+33.00,+5.00,+1.00,-128.00,-32.00,-9.00,-16.00,+56.00,+4.00,-20.00,-34.00
+1.00,+5.00,+1.00,-2.00,+4.00,+2.00,+1.00,+1.00,-4.00,+27.00,+2.00,+8.00,-12.00,-2.00,+9.00,+15.00
-2.00,-25.00,-5.00,+1.00,+0.00,-11.00,-4.00,-11.00,-26.00,+4.00,+7.00,+2.00,+1.00,+6.00,+5.00,+21.00
+1.00,-2.00,-5.00,-5.00,-7.00,-9.00,+0.00,-5.00,-88.00,-4.00,-2.00,-5.00,-12.00,+4.00,-15.00,+7.00
+3.00,+1.00,+1.00,-6.00,-6.00,-23.00,+0.00,+0.00,+39.00,+1.00,-1.00,-7.00,+7.00,+1.00,+4.00,+9.00
-3.00,+14.00,+1.00,+1.00,+6.00,+2.00,+1.00,+4.00,+10.00,-26.00,-7.00,+5.00,-27.00,-18.00,+0.00,-16.00
-1.00,-20.00,+2.00,+7.00,+7.00,+76.00,+8.00,-5.00,+39.00,-6.00,-4.00,-10.00,+34.00,+17.00,-24.00,-16.00
-2.00,+16.00,-5.00,-7.00,-5.00,-2.00,+3.00,+2.00,+50.00,+11.00,+8.00,+8.00,-31.00,+11.00,+27.00,+30.00
+1.00,+2.00,+5.00,+0.00,-3.00,+2.00,-3.00,-5.00,+94.00,-3.00,-2.00,-10.00,+22.00,-8.00,-11.00,+1.00
-2.00,+19.00,+4.00,-2.00,-4.00,-5.00,+2.00,+2.00,+45.00,-2.00,+0.00,-4.00,+17.00,+2.00,+41.00,+4.00
+5.00,-9.00,-6.00,-4.00,-6.00,-29.00,-10.00,-3.00,-29.00,+0.00,-9.00,-2.00,+31.00,-3.00,-48.00,-21.00
-1.00,-2.00,-5.00,+2.00,+2.00,+13.00,+2.00,+1.00,-19.00,-6.00,+1.00,+18.00,-72.00,-7.00,+4.00,-11.00
+0.00,+2.00,+2.00,-5.00,+4.00,+8.00,+3.00,-1.00,+16.00,+11.00,+3.00,+5.00,+52.00,+4.00,+13.00,+12.00
-1.00,+9.00,+1.00,-5.00,-11.00,-13.00,-2.00,+3.00,-44.00,-3.00,+3.00,-7.00,+30.00,+27.00,-24.00,-2.00
-5.00,-11.00,-3.00,-3.00,+0.00,-38.00,+0.00,-6.00,-34.00,-10.00,-5.00,-8.00,-34.00,-30.00,+18.00,-11.00
+0.00,-4.00,-3.00,-10.00,-7.00,-44.00,-11.00,+0.00,+49.00,+17.00,-4.00,-34.00,-4.00,+4.00,+22.00,+35.00
+3.00,+1.00,+5.00,+23.00,+25.00,+82.00,+19.00,+14.00,+5.00,-2.00,-2.00,+0.00,+81.00,+31.00,-52.00,-4.00
+1.00,+13.00,+0.00,-2.00,+0.00,+3.00,+3.00,+4.00,+12.00,+8.00,+5.00,+28.00,-99.00,-52.00,+15.00,+0.00
+0.00,-9.00,-9.00,-14.00,-10.00,-32.00,-5.00,-3.00,-7.00,-15.00,-1.00,+17.00,+53.00,+22.00,+7.00,-14.00
+0.00,+10.00,-1.00,+8.00,-2.00,-8.00,-1.00,-1.00,+19.00,-11.00,-6.00,+4.00,+51.00,-5.00,-8.00,-8.00
-1.00,+8.00,-3.00,-9.00,-16.00,-44.00,-11.00,-5.00,+18.00,+3.00,-2.00,-12.00,+32.00,-11.00,+18.00,-5.00
+1.00,-10.00,+4.00,+8.00,+13.00,+21.00,+2.00,+20.00,+7.00,-6.00,-3.00,-5.00,-19.00,+22.00,-13.00,-6.00
+3.00,-1.00,+3.00,+7.00,+4.00,+24.00,+6.00,-1.00,+15.00,+6.00,+1.00,-3.00,-55.00,-14.00,+4.00,+10.00
-4.00,-1.00,+1.00,-8.00,-3.00,+10.00,+2.00,+1.00,+2.00,-11.00,-4.00,+7.00,-11.00,-19.00,-15.00,-18.00
+1.00,-8.00,-1.00,-4.00,+3.00,+15.00,-6.00,-2.00,+3.00,+8.00,+5.00,+0.00,-62.00,-4.00,+8.00,+14.00
-3.00,+11.00,-3.00,-1.00,-1.00,+1.00,-9.00,+22.00,+7.00,+0.00,-4.00,-1.00,+119.00,+14.00,-15.00,-41.00
-4.00,-6.00,+0.00,-2.00,-7.00,-29.00,+14.00,-1.00,-3.00,+5.00,-1.00,-9.00,-121.00,-20.00,+23.00,+3.00
-1.00,-3.00,+1.00,+4.00,+11.00,+6.00,+9.00,-39.00,+5.00,-4.00,+0.00,+13.00,+30.00,-22.00,-63.00,-4.00
-4.00,+1.00,-1.00,-9.00,-9.00,-67.00,-17.00,-16.00,+14.00,-7.00,-4.00,+1.00,-39.00,+2.00,+12.00,-5.00
-2.00,+1.00,-3.00,+0.00,-2.00,+45.00,+7.00,-18.00,-17.00,-11.00,-5.00,-24.00,+23.00,-11.00,-12.00,+15.00
+0.00,-6.00,-4.00,-2.00,-2.00,-8.00,-18.00,-18.00,-1.00,+8.00,+4.00,+5.00,-33.00,+9.00,+0.00,+13.00
+6.00,+12.00,+14.00,+32.00,+22.00,+17.00,+14.00,+4.00,+12.00,+3.00,+7.00,+16.00,+31.00,+17.00,+71.00,+8.00
-4.00,-5.00,-7.00,-12.00,-6.00,+19.00,+13.00,+4.00,+11.00,-4.00,-6.00,-9.00,+69.00,+51.00,+57.00,-3.00
+1.00,-2.00,-8.00,-14.00,-15.00,-70.00,-20.00,-22.00,-1.00,+4.00,+0.00,-9.00,+9.00,+18.00,-38.00,+8.00
+4.00,+9.00,+1.00,+1.00,+2.00,+35.00,+3.00,+4.00,-10.00,-6.00,-2.00,+15.00,+67.00,-45.00,-5.00,-13.00
+5.00,-36.00,-1.00,-5.00,-2.00,-48.00,-44.00,-2.00,+10.00,+6.00,+7.00,+2.00,-59.00,-18.00,+13.00,+13.00
-1.00,+2.00,+1.00,-6.00,-8.00,+0.00,+64.00,+14.00,+7.00,+6.00,+2.00,+26.00,+60.00,-40.00,+2.00,+14.00
+1.00,+7.00,+8.00,+15.00,+8.00,-64.00,+22.00,-4.00,-37.00,-20.00,-11.00,-34.00,-75.00,-6.00,-31.00,-38.00
-5.00,+1.00,-5.00,-2.00,+13.00,+57.00,+8.00,+1.00,+2.00,+10.00,+6.00,+21.00,+85.00,-5.00,+40.00,+47.00
+0.00,+0.00,-4.00,-18.00,-14.00,-34.00,-7.00,-5.00,-23.00,-7.00,-8.00,-32.00,+21.00,-47.00,+67.00,-29.00
+2.00,+2.00,+0.00,-5.00,+0.00,-44.00,-24.00,-12.00,-19.00,-2.00,-5.00,+14.00,+82.00,+32.00,-39.00,-6.00
+1.00,-4.00,-1.00,+2.00,+0.00,+17.00,-1.00,-3.00,-22.00,-7.00,-2.00,+9.00,-37.00,-18.00,-1.00,-4.00
-5.00,-4.00,+1.00,-8.00,-6.00,-39.00,+4.00,+10.00,-25.00,-3.00,-1.00,-10.00,-32.00,-7.00,-32.00,-7.00
-6.00,+8.00,-2.00,-1.00,+1.00,+35.00,+1.00,+12.00,-22.00,-4.00,-5.00,+0.00,+82.00,-9.00,-2.00,-7.00
-4.00,-3.00,-1.00,-1.00,-4.00,+12.00,-7.00,-4.00,+10.00,+5.00,-1.00,-17.00,-98.00,-14.00,-4.00,-4.00
-1.00,+0.00,-3.00,+13.00,-3.00,+5.00,-6.00,-8.00,+13.00,+0.00,+2.00,+11.00,-37.00,-3.00,+15.00,+7.00
+2.00,-10.00,-5.00,+13.00,+8.00,-24.00,-20.00,-8.00,+18.00,+0.00,-5.00,-13.00,+14.00,+10.00,+24.00,+8.00
-5.00,+6.00,-5.00,+12.00,+1.00,+59.00,+3.00,+12.00,+35.00,-5.00,-2.00,+4.00,-70.00,+39.00,-24.00,-12.00
+0.00,+2.00,-1.00,-1.00,-6.00,-57.00,-8.00,-2.00,+31.00,+4.00,+0.00,-6.00,-11.00,+4.00,+15.00,-2.00
-3.00,+0.00,-1.00,-21.00,-5.00,+7.00,-5.00,+3.00,+15.00,+1.00,-8.00,-32.00,+89.00,+22.00,+19.00,+26.00
+0.00,-8.00,+0.00,+4.00,+12.00,+68.00,-30.00,+18.00,-39.00,+1.00,+3.00,+21.00,-59.00,+33.00,-95.00,+9.00
+1.00,+13.00,+2.00,+6.00,-3.00,-20.00,+22.00,-4.00,-33.00,+0.00,+3.00,+8.00,-41.00,-4.00,-38.00,-7.00
-4.00,-8.00,-4.00,-10.00,-19.00,-55.00,-70.00,-11.00,+22.00,+0.00,+2.00,+7.00,-47.00,+30.00,+2.00,-9.00
-2.00,+9.00,+6.00,+5.00,-12.00,-15.00,+59.00,+4.00,+34.00,-6.00,+0.00,-3.00,-35.00,-44.00,+16.00,-14.00
+3.00,+0.00,+1.00,+6.00,+24.00,+74.00,+21.00,+9.00,+121.00,-3.00,-7.00,-6.00,+58.00,+39.00,-24.00,-13.00
-7.00,-1.00,+2.00,+1.00,-4.00,+2.00,-17.00,-20.00,+20.00,+0.00,+1.00,+10.00,-1.00,-9.00,-13.00,-6.00
+0.00,+0.00,+1.00,+8.00,+17.00,+93.00,+67.00,+8.00,-24.00,-4.00,-5.00,+1.00,-128.00,-43.00,-12.00,+13.00
-4.00,+3.00,-9.00,-33.00,-8.00,-10.00,-18.00,+13.00,+41.00,+7.00,+0.00,+1.00,+54.00,+27.00,+50.00,-2.00
+0.00,+5.00,+4.00,+4.00,-21.00,-59.00,-17.00,-24.00,-23.00,-8.00,-6.00,-8.00,+82.00,-32.00,-25.00,-27.00
+2.00,+1.00,-1.00,-4.00,-13.00,-85.00,-9.00,-5.00,-54.00,-3.00,-1.00,-10.00,-52.00,+41.00,-74.00,-8.00
-4.00,-3.00,-3.00,+1.00,+13.00,+66.00,+8.00,-2.00,-69.00,+2.00,+2.00,+5.00,+0.00,+0.00,+26.00,+32.00
-1.00,-8.00,-3.00,-7.00,+5.00,-14.00,-25.00,-5.00,-77.00,-1.00,+3.00,+21.00,+32.00,-7.00,-52.00,-56.00
-4.00,+1.00,+2.00,+3.00,-1.00,-12.00,+38.00,+14.00,-58.00,-5.00,+0.00,-3.00,+1.00,-16.00,+79.00,-22.00
-4.00,-4.00,-5.00,-11.00,-7.00,-33.00,-35.00,+1.00,+0.00,-3.00,-6.00,-30.00,-16.00,-16.00,+3.00,+4.00
-1.00,-6.00,-2.00,-10.00,-20.00,-11.00,-3.00,+9.00,-31.00,+1.00,+0.00,-4.00,+44.00,+20.00,+44.00,-4.00
+3.00,+4.00,+1.00,+20.00,+28.00,+91.00,+21.00,+11.00,-23.00,+3.00,+2.00,-1.00,-22.00,+51.00,+41.00,+72.00
-3.00,-3.00,-2.00,-21.00,-11.00,-40.00,-36.00,-18.00,-15.00,+0.00,+2.00,+19.00,+39.00,-32.00,-14.00,-44.00
-3.00,+0.00,-3.00,+5.00,+10.00,+49.00,+6.00,+4.00,-25.00,-5.00,-5.00,-6.00,+34.00,-37.00,+1.00,-20.00
+1.00,+0.00,+0.00,+4.00,-1.00,-64.00,-42.00,-1.00,+9.00,+7.00,+4.00,+3.00,+13.00,+18.00,+31.00,+12.00
+0.00,-5.00,+1.00,-13.00,-16.00,-99.00,-3.00,-7.00,+7.00,+3.00,+4.00,+6.00,-64.00,-8.00,-24.00,+0.00
-10.00,+4.00,+3.00,+20.00,+23.00,+77.00,+71.00,+13.00,-20.00,-5.00,-2.00,-16.00,+57.00,+32.00,+60.00,+37.00
+5.00,-5.00,-2.00,+7.00,+11.00,+51.00,+18.00,+4.00,-14.00,+2.00,+0.00,-2.00,+2.00,-76.00,-64.00,-1.00
+2.00,+2.00,+2.00,+9.00,+3.00,-68.00,+23.00,+2.00,+20.00,-2.00,-3.00,-7.00,+74.00,-66.00,-44.00,+0.00
+0.00,-2.00,-1.00,+3.00,+3.00,-40.00,-81.00,-17.00,-10.00,-9.00,-6.00,+6.00,-31.00,-33.00,-17.00,-6.00
-7.00,-5.00,-6.00,-21.00,-18.00,-86.00,-80.00,-13.00,-26.00,-3.00,-2.00,-9.00,-62.00,+18.00,+32.00,+11.00
-3.00,+5.00,+2.00,-1.00,-4.00,-21.00,-10.00,+1.00,+26.00,+13.00,+7.00,+21.00,+36.00,+3.00,-14.00,+26.00
+5.00,+3.00,+1.00,+17.00,+13.00,+68.00,+57.00,+4.00,+16.00,-1.00,-5.00,-18.00,+31.00,+66.00,+52.00,-21.00
+0.00,-4.00,-2.00,-7.00,-8.00,-21.00,+28.00,-9.00,-12.00,-4.00,-3.00,+5.00,+2.00,-43.00,-28.00,-74.00
+7.00,-1.00,-1.00,-12.00,-6.00,-17.00,+65.00,-6.00,-5.00,+0.00,+2.00,+5.00,-18.00,-49.00,-54.00,+0.00
-5.00,-3.00,-6.00,-9.00,-9.00,+33.00,-3.00,+11.00,+17.00,+0.00,+0.00,-7.00,+22.00,+57.00,+70.00,+19.00
+4.00,-2.00,-1.00,+14.00,+13.00,+45.00,-73.00,-7.00,+1.00,-5.00,-4.00,-6.00,+20.00,+4.00,-4.00,-5.00
-1.00,+3.00,-1.00,-8.00,-5.00,+24.00,+41.00,+16.00,-5.00,+2.00,-3.00,-8.00,+84.00,-6.00,+20.00,+18.00
+8.00,+2.00,-3.00,+0.00,-13.00,-29.00,+45.00,+28.00,+10.00,+4.00,+4.00,+23.00,+51.00,+61.00,-41.00,+14.00
+0.00,-7.00,-6.00,-4.00,+6.00,-14.00,-63.00,-20.00,-5.00,-9.00,-2.00,+7.00,-3.00,+25.00,+46.00,-43.00
-1.00,+1.00,+3.00,+2.00,-2.00,-31.00,+62.00,+44.00,+9.00,+4.00,+1.00,-8.00,+44.00,+21.00,-8.00,+16.00
+0.00,+1.00,+3.00,+11.00,+2.00,-56.00,-32.00,-78.00,+12.00,+2.00,-1.00,+7.00,-10.00,+75.00,+51.00,+25.00
-3.00,+5.00,+5.00,+12.00,+2.00,-3.00,-62.00,-31.00,+15.00,+7.00,+4.00,+0.00,-32.00,-65.00,+2.00,+19.00
+5.00,-9.00,-6.00,-29.00,-21.00,-111.00,-50.00,-39.00,-4.00,-14.00,-10.00,-15.00,+96.00,+46.00,-8.00,+1.00
-6.00,+6.00,-1.00,+8.00,+15.00,+68.00,+2.00,-6.00,+25.00,+18.00,+14.00,+28.00,-128.00,-116.00,-30.00,-6.00
+10.00,+7.00,+8.00,+31.00,+22.00,+4.00,+127.00,+73.00,-20.00,-9.00,-7.00,-14.00,+107.00,-13.00,-23.00,-31.00
-1.00,-11.00,-7.00,-28.00,+6.00,+47.00,-81.00,+3.00,-7.00,-5.00,-7.00,+4.00,+53.00,+63.00,+69.00,-20.00
-4.00,+4.00,-2.00,-12.00,-12.00,-29.00,-80.00,-54.00,+2.00,+12.00,+10.00,-9.00,+21.00,-41.00,-92.00,+14.00
+2.00,+3.00,+8.00,+2.00,+1.00,-57.00,+85.00,+49.00,+1.00,-8.00,-2.00,+39.00,+33.00,+37.00,+50.00,+0.00
-6.00,-10.00,-6.00,-26.00,+4.00,+88.00,-54.00,-18.00,+7.00,+1.00,-2.00,-1.00,-22.00,-68.00,+13.00,+78.00
+0.00,+2.00,-2.00,-5.00,-8.00,-35.00,-22.00,-21.00,-19.00,+1.00,+0.00,-8.00,-23.00,+5.00,+7.00,+1.00
+0.00,+9.00,+7.00,+30.00,+5.00,-30.00,+35.00,-15.00,-3.00,+0.00,+2.00,+19.00,+54.00,+68.00,+85.00,+60.00
-3.00,-3.00,-8.00,-33.00,-12.00,-29.00,-25.00,-21.00,-9.00,-8.00,-10.00,-34.00,+116.00,+37.00,+32.00,-12.00
+1.00,-9.00,-5.00,-12.00,+2.00,+28.00,+42.00,+14.00,+25.00,+18.00,+16.00,+31.00,-80.00,-9.00,-56.00,+40.00
-4.00,-1.00,-2.00,+3.00,-4.00,-44.00,-43.00,-69.00,+3.00,-7.00,-9.00,-34.00,-128.00,-74.00,+3.00,-13.00
-4.00,+2.00,+1.00,+10.00,-5.00,+48.00,+49.00,+84.00,-3.00,-4.00,-4.00,+10.00,+33.00,+16.00,-20.00,-36.00
+7.00,+0.00,+6.00,+38.00,+7.00,-9.00,-45.00,+14.00,+6.00,-2.00,+2.00,+2.00,-14.00,-88.00,-99.00,+10.00
-2.00,+7.00,+0.00,-11.00,-2.00,-3.00,+0.00,-14.00,-1.00,-4.00,-5.00,+6.00,-49.00,+72.00,+93.00,+4.00
-2.00,+11.00,+8.00,+4.00,+6.00,+3.00,+59.00,+57.00,+10.00,+10.00,+4.00,-33.00,-18.00,+53.00,+75.00,+47.00
-4.00,-8.00,-2.00,-19.00,+15.00,+37.00,-7.00,+19.00,-3.00,-1.00,-3.00,+3.00,-6.00,-71.00,-52.00,-19.00
-2.00,+0.00,-3.00,-4.00,-22.00,-101.00,+20.00,-7.00,-18.00,-9.00,-3.00,+18.00,-86.00,-75.00,-128.00,-41.00
-6.00,-14.00,-7.00,+2.00,-4.00,+3.00,-92.00,-3.00,-10.00,-9.00,-5.00,-9.00,+3.00,-18.00,-32.00,-43.00
-1.00,-5.00,-2.00,-7.00,-10.00,-41.00,+63.00,+0.00,-3.00,-9.00,-8.00,-17.00,+65.00,-4.00,-59.00,-29.00
+4.00,-2.00,-2.00,-18.00,-15.00,-5.00,-10.00,+9.00,+25.00,+10.00,+4.00,-5.00,-71.00,+21.00,+24.00,+18.00
+0.00,+4.00,+10.00,+42.00,+47.00,+104.00,+54.00,+75.00,-11.00,-11.00,-7.00,-11.00,-8.00,+22.00,+87.00,-26.00
-6.00,-3.00,-7.00,-23.00,+0.00,-1.00,-29.00,-52.00,+22.00,+5.00,+0.00,+2.00,+98.00,+11.00,+82.00,+25.00
+3.00,-15.00,-11.00,-2.00,-24.00,-79.00,-85.00,-70.00,-23.00,-2.00,+0.00,+13.00,-71.00,-12.00,-126.00,-31.00
-6.00,+10.00,+9.00,-6.00,+9.00,-5.00,+127.00,+45.00,-8.00,+8.00,+6.00,-1.00,+46.00,-33.00,+101.00,+28.00
-3.00,-6.00,-3.00,-12.00,-20.00,-5.00,-36.00,+12.00,+9.00,+5.00,+6.00,+17.00,-50.00,-20.00,+89.00,+32.00
+4.00,+7.00,+3.00,-9.00,+10.00,+66.00,+4.00,+103.00,-19.00,-6.00,-9.00,-49.00,+38.00,+52.00,-35.00,-39.00
-1.00,-9.00,-1.00,+8.00,-5.00,-71.00,-26.00,+69.00,+2.00,+12.00,+10.00,+34.00,-37.00,+0.00,-18.00,+11.00
+1.00,+8.00,+1.00,+42.00,+6.00,+11.00,+76.00,+19.00,-21.00,-20.00,-16.00,-20.00,+4.00,-10.00,+4.00,-63.00
+2.00,-10.00,-7.00,-24.00,-41.00,-115.00,-102.00,-81.00,-4.00,+9.00,+3.00,-2.00,+20.00,+25.00,+9.00,+61.00
-7.00,+9.00,+8.00,+13.00,+31.00,+2.00,+47.00,+8.00,-24.00,-10.00,-5.00,-8.00,+14.00,-33.00,-62.00,-17.00
+8.00,+1.00,+2.00,+43.00,+26.00,+127.00,-55.00,-33.00,+20.00,-12.00,-15.00,-57.00,-21.00,+66.00,+106.00,+24.00
-5.00,-13.00,-9.00,-31.00,-4.00,-92.00,-62.00,-23.00,-4.00,+5.00,+6.00,+26.00,-43.00,+29.00,-112.00,+6.00
-2.00,-2.00,-6.00,+4.00,+21.00,+94.00,-27.00,+2.00,+17.00,+6.00,+0.00,-20.00,+63.00,+17.00,+1.00,+11.00
+2.00,+2.00,-4.00,+3.00,-17.00,-32.00,+8.00,-14.00,+11.00,-3.00,-1.00,+11.00,-18.00,-18.00,+3.00,-11.00
+3.00,+3.00,+3.00,+20.00,+14.00,+53.00,-90.00,-1.00,+5.00,+2.00,+1.00,+4.00,-1.00,-35.00,+55.00,+8.00
+8.00,+7.00,+2.00,+11.00,+7.00,+27.00,+74.00,+16.00,+30.00,+5.00,+4.00,-3.00,+30.00,-14.00,+81.00,+30.00
-4.00,-8.00,-6.00,-24.00,+10.00,+1.00,+18.00,-26.00,+0.00,-6.00,-7.00,-10.00,-52.00,+4.00,-2.00,-16.00
-3.00,-7.00,-5.00,-19.00,-15.00,-43.00,-38.00,-10.00,-15.00,-7.00,-2.00,-1.00,-58.00,-67.00,+1.00,-18.00
+2.00,+11.00,+0.00,-19.00,-35.00,-118.00,-47.00,-24.00,-5.00,-14.00,-10.00,-20.00,+19.00,+13.00,+13.00,-30.00
+4.00,+3.00,+5.00,+51.00,+10.00,+31.00,+44.00,+47.00,+6.00,-11.00,-9.00,-11.00,+16.00,-31.00,+105.00,+2.00
-3.00,-6.00,-4.00,-44.00,-13.00,-81.00,-73.00,+28.00,+1.00,+14.00,+10.00,+23.00,+26.00,+21.00,-63.00,+14.00
+7.00,+15.00,+6.00,+1.00,+13.00,+59.00,+62.00,+37.00,-1.00,+0.00,+5.00,+15.00,-70.00,-52.00,-23.00,-9.00
-5.00,+1.00,-1.00,-20.00,+16.00,+60.00,-7.00,+19.00,-7.00,+0.00,+2.00,+2.00,+43.00,-29.00,-80.00,-8.00
+2.00,+14.00,+6.00,+48.00,+5.00,+10.00,+52.00,+25.00,+4.00,+1.00,-5.00,-16.00,-93.00,-24.00,+60.00,+6.00
+1.00,+9.00,+11.00,+24.00,+16.00,+52.00,-25.00,-4.00,-16.00,-17.00,-12.00,-27.00,+93.00,+81.00,-99.00,-44.00
-1.00,-10.00,-9.00,+5.00,-10.00,-89.00,-128.00,-97.00,-35.00,-5.00,-6.00,-5.00,+78.00,-33.00,-47.00,-18.00
-6.00,+10.00,+11.00,+9.00,+0.00,-7.00,+127.00,+64.00,+23.00,+9.00,+8.00,+25.00,+80.00,-25.00,+71.00,+26.00
-5.00,-9.00,-8.00,-46.00,+9.00,+84.00,-109.00,-84.00,-56.00,-11.00,-9.00,-11.00,-27.00,+33.00,+56.00,-24.00
+9.00,+22.00,+14.00,+61.00,-7.00,-38.00,+75.00,+13.00,+64.00,+6.00,+2.00,-5.00,-54.00,-57.00,+43.00,+44.00
-7.00,-8.00,-9.00,-57.00,-26.00,-107.00,-45.00,-21.00,+19.00,+5.00,-3.00,-21.00,+51.00,+48.00,-25.00,-3.00
+7.00,-6.00,+3.00,+15.00,-32.00,-32.00,-53.00,-15.00,-15.00,-10.00,-5.00,+33.00,+77.00,-15.00,-25.00,-21.00
-11.00,+1.00,+4.00,-38.00,+51.00,+15.00,+80.00,+50.00,+31.00,+3.00,+0.00,+6.00,+126.00,+31.00,+24.00,+40.00
-7.00,-8.00,-9.00,-28.00,-11.00,-115.00,+19.00,-40.00,+0.00,-2.00,+5.00,-4.00,-79.00,+18.00,-55.00,+3.00
-1.00,-12.00,+1.00,-17.00,-4.00,-64.00,-53.00,+12.00,-9.00,+1.00,+0.00,-3.00,-27.00,-35.00,+0.00,-23.00
-9.00,-5.00,-6.00,-44.00,-20.00,-99.00,+3.00,+2.00,-8.00,-7.00,-10.00,-45.00,+77.00,-41.00,-63.00,-20.00
-1.00,+2.00,+1.00,-1.00,-38.00,-125.00,-25.00,-4.00,-19.00,+5.00,+14.00,+44.00,+53.00,-39.00,-47.00,-19.00
-7.00,-4.00,-6.00,-33.00,+10.00,+24.00,-52.00,-32.00,-48.00,-17.00,-16.00,-20.00,+127.00,-19.00,-3.00,-45.00
+0.00,-10.00,+0.00,+8.00,+7.00,+70.00,+127.00,+47.00,+9.00,+16.00,+16.00,-9.00,-107.00,-21.00,-12.00,+70.00
+2.00,-16.00,-11.00,-21.00,+1.00,-14.00,+10.00,+11.00,-71.00,-21.00,-8.00,+30.00,+61.00,-60.00,+19.00,-73.00
+0.00,-12.00,-7.00,-10.00,-24.00,-49.00,-128.00,-43.00,-25.00,+0.00,-9.00,-35.00,-6.00,+9.00,-114.00,+13.00
-9.00,+3.00,-1.00,-33.00,-18.00,-17.00,+51.00,+23.00,+10.00,+10.00,+3.00,-1.00,-57.00,+48.00,+46.00,+14.00
-2.00,-3.00,+4.00,+39.00,+37.00,+64.00,+87.00,+58.00,+31.00,+6.00,+3.00,-9.00,+52.00,-32.00,-19.00,-1.00
+6.00,+12.00,+0.00,-14.00,-46.00,-83.00,+50.00,-35.00,+0.00,-3.00,-2.00,+22.00,-123.00,+6.00,-71.00,-11.00
+1.00,+5.00,+3.00,+19.00,+32.00,+80.00,+38.00,+10.00,+25.00,+9.00,+3.00,-28.00,+84.00,+87.00,-20.00,-9.00
-2.00,-12.00,-11.00,-48.00,-48.00,-128.00,-3.00,-19.00,+13.00,+8.00,+12.00,+86.00,-54.00,-97.00,+44.00,-16.00
-4.00,-10.00,-10.00,-31.00,+12.00,+78.00,-128.00,-41.00,+0.00,-11.00,-6.00,-3.00,+69.00,+55.00,+12.00,+0.00
+1.00,+19.00,+11.00,+11.00,+11.00,-86.00,+127.00,+106.00,+30.00,+14.00,+9.00,+6.00,+65.00,+35.00,+41.00,+54.00
-1.00,+0.00,-4.00,-10.00,-1.00,+32.00,-23.00,-6.00,+4.00,-7.00,-2.00,+6.00,+17.00,+48.00,-9.00,-19.00
-2.00,-7.00,-1.00,+15.00,+24.00,+115.00,-109.00,-54.00,-1.00,+1.00,-10.00,-80.00,-9.00,-78.00,-35.00,+5.00
+7.00,+11.00,+3.00,-5.00,-78.00,-105.00,-19.00,-4.00,-26.00,-7.00,-2.00,+41.00,+0.00,-14.00,+31.00,-3.00
-8.00,-3.00,-4.00,+5.00,+68.00,+102.00,+70.00,+4.00,-14.00,-9.00,-6.00,-11.00,-7.00,+53.00,+58.00,-6.00
+3.00,-14.00,-10.00,-11.00,-26.00,-128.00,-98.00,-46.00,-29.00,-8.00,-1.00,+11.00,-98.00,-93.00,-83.00,-19.00
-1.00,+7.00,+5.00,+38.00,+30.00,-36.00,+55.00,+70.00,+35.00,+0.00,-2.00,-4.00,+127.00,+53.00,-13.00,+12.00
-3.00,+3.00,+2.00,+6.00,+2.00,+8.00,+62.00,+5.00,+7.00,-4.00,-9.00,-28.00,-30.00,-42.00,-14.00,+10.00
-3.00,-18.00,-14.00,-34.00,-31.00,-77.00,-123.00,-66.00,-3.00,+10.00,+9.00,+29.00,-111.00,-7.00,+3.00,+11.00
+0.00,+11.00,+11.00,+23.00,+38.00,+127.00,+127.00,+91.00,+6.00,-8.00,-6.00,-1.00,+4.00,-30.00,-20.00,-11.00
-2.00,-10.00,-16.00,-80.00,-81.00,-123.00,-103.00,-51.00,-13.00,+0.00,+3.00,+13.00,-37.00,-27.00,-80.00,-18.00
-4.00,+6.00,+10.00,+51.00,+60.00,+40.00,+26.00,+11.00,+18.00,+0.00,-3.00,-32.00,+127.00,+6.00,-48.00,-12.00
-1.00,-14.00,-5.00,-17.00,-5.00,-68.00,-54.00,+20.00,+2.00,+1.00,-2.00,+30.00,+35.00,-38.00,+19.00,-5.00
-2.00,-21.00,-15.00,-16.00,-9.00,-75.00,-27.00,-59.00,+27.00,+11.00,+8.00,+27.00,-93.00,+5.00,+46.00,+31.00
+5.00,+6.00,+5.00,+29.00,+8.00,+11.00,-76.00,-16.00,-20.00,-5.00,+1.00,+19.00,-2.00,+55.00,+104.00,-17.00
-2.00,+6.00,-2.00,+9.00,+8.00,+54.00,+62.00,+5.00,+12.00,+4.00,+6.00,+6.00,+51.00,-11.00,+113.00,+14.00
+6.00,-5.00,-3.00,+31.00,+35.00,+57.00,-93.00,-9.00,+7.00,-2.00,-1.00,-23.00,-26.00,+21.00,+35.00,+4.00
-2.00,+3.00,+0.00,-20.00,-28.00,-128.00,+29.00,-32.00,+36.00,+18.00,+14.00,+33.00,-42.00,+16.00,+74.00,+87.00
+4.00,+4.00,+10.00,+73.00,+72.00,+127.00,+101.00,+30.00,-26.00,-15.00,-16.00,-57.00,+127.00,+60.00,+43.00,-78.00
+1.00,+1.00,-4.00,-22.00,+2.00,-97.00,-81.00,-20.00,+1.00,+3.00,+8.00,+50.00,-128.00,+18.00,-82.00,-12.00
+1.00,+7.00,+4.00,+47.00,+15.00,+21.00,+111.00,+14.00,-1.00,+1.00,-2.00,-1.00,+125.00,+10.00,+3.00,-41.00
-6.00,-2.00,-5.00,-19.00,-28.00,-55.00,-101.00,-17.00,-2.00,-8.00,-5.00,-17.00,+45.00,-27.00,-16.00,-32.00
-4.00,-5.00,-5.00,-27.00,-20.00,-110.00,+79.00,-12.00,+6.00,+7.00,+4.00,+1.00,+3.00,-11.00,-1.00,+31.00
-6.00,+6.00,+1.00,+6.00,+5.00,-15.00,-11.00,+10.00,-19.00,-8.00,-8.00,-40.00,+81.00,+46.00,-22.00,-11.00
-5.00,-7.00,-9.00,-23.00,-29.00,-121.00,-128.00,-65.00,-7.00,-7.00,-3.00,+8.00,+14.00,-22.00,-78.00,-32.00
-2.00,+1.00,+2.00,+9.00,+5.00,+82.00,-26.00,+11.00,-1.00,-3.00,-4.00,+18.00,+46.00,-54.00,-94.00,+6.00
-1.00,-12.00,-3.00,-28.00,-22.00,-91.00,-25.00,+8.00,-19.00,-9.00,-6.00,-13.00,-21.00,-34.00,+28.00,+13.00
-2.00,-22.00,-10.00,-23.00,-9.00,+12.00,+11.00,-13.00,-6.00,-1.00,-1.00,+6.00,-95.00,-20.00,-61.00,-3.00
-1.00,+3.00,+5.00,-4.00,+41.00,+84.00,+35.00,+4.00,-9.00,-5.00,-10.00,-32.00,+44.00,+52.00,-70.00,-11.00
-2.00,-13.00,-11.00,-1.00,-10.00,-78.00,-74.00,-59.00,+11.00,-2.00,-4.00,+3.00,-99.00,-66.00,+46.00,-11.00
-4.00,+0.00,-3.00,-14.00,-5.00,+0.00,-66.00,-10.00,-5.00,-1.00,+3.00,+24.00,+39.00,+26.00,-91.00,+13.00
+4.00,+1.00,-2.00,-14.00,-55.00,-128.00,-12.00,-18.00,+8.00,+3.00,+0.00,+30.00,+71.00,+89.00,+75.00,+7.00
-4.00,-5.00,-4.00,-15.00,+15.00,+67.00,+5.00,-11.00,-3.00,-1.00,+5.00,-19.00,-112.00,+14.00,+71.00,-14.00
+0.00,+11.00,+7.00,+25.00,-3.00,-51.00,+47.00,-2.00,+15.00,-2.00,-4.00,-7.00,-30.00,+38.00,+24.00,-3.00
+1.00,+10.00,-1.00,+14.00,+12.00,+99.00,-20.00,-72.00,+2.00,-2.00,-1.00,-2.00,-34.00,+59.00,+72.00,+26.00
-4.00,-6.00,-1.00,+5.00,+2.00,+13.00,-58.00,-10.00,+0.00,+4.00,+6.00,+0.00,-23.00,-19.00,+102.00,+18.00
-2.00,+17.00,+3.00,-2.00,-26.00,+8.00,-5.00,+1.00,+22.00,+2.00,+0.00,+21.00,-1.00,-58.00,-44.00,+24.00
-3.00,+2.00,+7.00,+43.00,+30.00,+57.00,+87.00,+55.00,-29.00,-18.00,-12.00,-35.00,+48.00,+51.00,+87.00,-43.00
-1.00,-14.00,-16.00,-57.00,-71.00,-128.00,-128.00,-47.00,+1.00,+5.00,+3.00,+21.00,+12.00,+18.00,-2.00,+20.00
-1.00,+42.00,+20.00,+86.00,+43.00,+123.00,+58.00,+104.00,-1.00,+1.00,-3.00,+0.00,-80.00,-4.00,-67.00,+6.00
-4.00,-13.00,+0.00,-7.00,+25.00,-70.00,-9.00,-12.00,+5.00,+6.00,+3.00,+7.00,+12.00,+8.00,-20.00,+23.00
-6.00,+1.00,+0.00,-9.00,-5.00,-85.00,+28.00,+14.00,+7.00,+0.00,+0.00,-43.00,+67.00,+26.00,+26.00,+18.00
-22.00,-2.00,+4.00,+22.00,+7.00,-50.00,-7.00,+20.00,-20.00,-9.00,-4.00,+38.00,+120.00,+17.00,-58.00,-25.00
-2.00,-11.00,-4.00,+3.00,-4.00,-69.00,-19.00,-26.00,+9.00,+6.00,+1.00,-13.00,+49.00,+18.00,+103.00,+11.00
-8.00,-4.00,-4.00,-1.00,-18.00,-43.00,-83.00,+7.00,+4.00,+5.00,+4.00,+9.00,-71.00,+44.00,+57.00,+11.00
+5.00,-4.00,-1.00,-12.00,-12.00,-87.00,+32.00,+19.00,-14.00,-4.00,-4.00,+9.00,+105.00,+15.00,-20.00,-8.00
+8.00,-3.00,-3.00,-10.00,+20.00,+82.00,-21.00,-9.00,-2.00,+0.00,-4.00,-22.00,-2.00,+27.00,+79.00,-1.00
-1.00,-10.00,-5.00,-24.00,-19.00,+15.00,-75.00,-37.00,-12.00,-13.00,-10.00,-12.00,+52.00,+65.00,+21.00,-38.00
+6.00,-7.00,-7.00,-17.00,-35.00,-60.00,-26.00,-18.00,-7.00,-2.00,-2.00,-11.00,-24.00,-6.00,+9.00,+15.00
+10.00,+1.00,+3.00,+23.00,+21.00,+124.00,+64.00,+12.00,-7.00,-2.00,-1.00,-12.00,+5.00,-26.00,-29.00,-7.00
+5.00,+2.00,-1.00,+7.00,+12.00,+50.00,+15.00,+18.00,+12.00,-3.00,-5.00,-3.00,+27.00,-11.00,+26.00,+19.00
-5.00,-5.00,-2.00,-33.00,-4.00,-34.00,+14.00,+10.00,-18.00,-9.00,-3.00,+7.00,-7.00,-29.00,+10.00,-12.00
+2.00,+4.00,+3.00,+33.00,+15.00,+126.00,+65.00,+15.00,+20.00,+10.00,+4.00,-15.00,+77.00,+26.00,+27.00,+34.00
+5.00,-7.00,-5.00,-21.00,-21.00,+2.00,-64.00,-21.00,-21.00,-10.00,-6.00,+8.00,+85.00,-62.00,-60.00,-29.00
+5.00,-1.00,-1.00,-22.00,-7.00,-31.00,+127.00,+47.00,-27.00,-15.00,-4.00,-7.00,-12.00,-5.00,-34.00,-42.00
+21.00,+10.00,+3.00,+72.00,+67.00,+108.00,+19.00,-80.00,+35.00,+15.00,+1.00,-30.00,+88.00,+11.00,+13.00,+49.00
+9.00,+3.00,+3.00,+20.00,-3.00,-88.00,+55.00,+34.00,-27.00,-3.00,-1.00,+16.00,+8.00,+42.00,+15.00,-4.00
+2.00,-1.00,-8.00,-43.00,-37.00,-128.00,-72.00,-16.00,-22.00,+3.00,+3.00,+0.00,-46.00,+26.00,+7.00,+0.00
+112.00,+8.00,+8.00,+28.00,+22.00,+113.00,-66.00,-8.00,+1.00,-5.00,-6.00,-10.00,-111.00,-27.00,+65.00,-6.00
+93.00,-14.00,-7.00,-20.00,-25.00,-128.00,+25.00,+59.00,+16.00,-11.00,-7.00,-19.00,+48.00,-1.00,-62.00,-21.00
+85.00,+7.00,+0.00,-7.00,+10.00,+81.00,+44.00,+4.00,+26.00,+4.00,+2.00,-9.00,-63.00,-55.00,-12.00,+11.00
+33.00,+14.00,+9.00,+30.00,+6.00,-27.00,+41.00,+13.00,+11.00,-1.00,-3.00,+6.00,-33.00,+46.00,-50.00,-8.00
-46.00,+6.00,+1.00,+6.00,+7.00,+11.00,-37.00,+5.00,+2.00,+1.00,-2.00,-16.00,-27.00,+3.00,-18.00,+4.00
-68.00,+1.00,+2.00,+0.00,-32.00,-28.00,-46.00,-8.00,-12.00,-4.00,+0.00,+12.00,-68.00,+1.00,+6.00,-16.00
-54.00,+1.00,+4.00,+20.00,+13.00,+22.00,+24.00,+25.00,+7.00,+4.00,+3.00,+2.00,+93.00,+5.00,+34.00,+6.00
-45.00,-2.00,-7.00,-10.00,-14.00,-48.00,-102.00,-5.00,-12.00,-1.00,+3.00,+18.00,-121.00,+44.00,-33.00,-2.00
-29.00,+10.00,+9.00,+13.00,+5.00,-64.00,+127.00,+83.00,+5.00,+3.00,+2.00,+0.00,+84.00,-13.00,-27.00,+12.00
-31.00,+2.00,-2.00,-35.00,-11.00,-51.00,-36.00,-9.00,-4.00,+6.00,+5.00,+15.00,+47.00,-20.00,+15.00,+15.00
-40.00,-9.00,-3.00,-2.00,+0.00,-12.00,-40.00,-23.00,-6.00,-5.00,-1.00,+16.00,-8.00,-2.00,+29.00,-4.00
-9.00,+1.00,-4.00,+10.00,+13.00,+43.00,+8.00,+1.00,-10.00,+0.00,-3.00,-6.00,+63.00,+4.00,+9.00,-11.00
-17.00,-7.00,-5.00,+16.00,-20.00,-128.00,-61.00,-41.00,+14.00,+8.00,+3.00,-6.00,-18.00,-22.00,-78.00,+7.00
-22.00,-11.00,-8.00,-37.00,-6.00,+43.00,-4.00,-5.00,-13.00,-4.00,+0.00,+21.00,-13.00,-58.00,-68.00,-8.00
-9.00,-3.00,+5.00,+40.00,+4.00,-82.00,-66.00,-14.00,-1.00,-4.00,-3.00,-16.00,+57.00,+6.00,-28.00,+2.00
-20.00,-6.00,-3.00,-19.00,+9.00,+33.00,+20.00,-8.00,+1.00,-3.00,+0.00,+5.00,-44.00,-6.00,-17.00,+0.00
+7.00,-3.00,-1.00,+23.00,+29.00,+100.00,-46.00,+15.00,+26.00,+3.00,+1.00,+1.00,-30.00,+18.00,-36.00,+4.00
-4.00,+4.00,+4.00,+12.00,-8.00,-70.00,-53.00,-14.00,+100.00,-2.00,-4.00,-13.00,+81.00,+24.00,+20.00,+0.00
+2.00,+1.00,-4.00,-16.00,-12.00,-30.00,-26.00,-11.00,+22.00,+0.00,+1.00,+7.00,-109.00,-44.00,-30.00,+1.00
+7.00,-1.00,-2.00,+13.00,+1.00,-2.00,-66.00,-14.00,-21.00,-1.00,-2.00,+4.00,+35.00,-17.00,-22.00,-14.00
+7.00,+8.00,+1.00,+10.00,+11.00,+13.00,+90.00,+36.00,-59.00,+5.00,+2.00,-4.00,+37.00,-34.00,+7.00,+6.00
+19.00,+6.00,-1.00,-14.00,-17.00,-67.00,-27.00,-4.00,-78.00,+0.00,-1.00,+6.00,-80.00,-23.00,+15.00,-3.00
+108.00,+6.00,+3.00,+9.00,-2.00,+90.00,+34.00,+11.00,-40.00,+2.00,-2.00,-5.00,-44.00,+39.00,-5.00,-8.00
+127.00,+0.00,+0.00,+5.00,+8.00,+48.00,-10.00,+0.00,-31.00,+3.00,+0.00,-4.00,+2.00,-10.00,+17.00,+12.00
+74.00,-17.00,-10.00,-25.00,-14.00,-33.00,-84.00,-36.00,-31.00,+0.00,+1.00,+1.00,-22.00,-8.00,+13.00,-3.00
-11.00,+3.00,-2.00,-3.00,-13.00,-42.00,+11.00,-3.00,-26.00,+0.00,-2.00,-12.00,-60.00,+11.00,-8.00,-3.00
-67.00,+2.00,+1.00,+0.00,+8.00,-3.00,-3.00,-3.00,-11.00,-4.00,-1.00,-3.00,+21.00,+3.00,+32.00,+2.00
-48.00,+0.00,+3.00,+17.00,+27.00,+109.00,-50.00,+27.00,-6.00,+0.00,+0.00,-7.00,+13.00,-25.00,+43.00,-2.00
-71.00,-3.00,-5.00,-22.00,-6.00,-27.00,-20.00,-13.00,+9.00,-3.00,-2.00,+6.00,+49.00,-8.00,-58.00,-8.00
-51.00,-5.00,-4.00,+14.00,+11.00,+44.00,+89.00,+7.00,+9.00,-2.00,+2.00,+3.00,+22.00,-6.00,-1.00,-5.00
-55.00,-4.00,-4.00,-15.00,-13.00,-70.00,-7.00,+1.00,+43.00,+0.00,-1.00,-12.00,+22.00,-20.00,-20.00,+0.00
-27.00,-3.00,-4.00,-11.00,-17.00,+45.00,-36.00,-39.00,+74.00,-1.00,+0.00,-4.00,+48.00,-21.00,-37.00,+0.00
-31.00,-9.00,-5.00,+2.00,-5.00,-44.00,-34.00,-21.00,+39.00,-8.00,-7.00,+5.00,+51.00,+14.00,+51.00,+8.00
+1.00,-1.00,+1.00,+10.00,+16.00,+95.00,-15.00,+2.00,+49.00,+2.00,+7.00,+11.00,+26.00,+10.00,-37.00,-31.00
-3.00,-3.00,-3.00,-24.00,-7.00,-30.00,-11.00,-3.00,+89.00,+0.00,-3.00,-3.00,+18.00,-5.00,-4.00,+12.00
-17.00,-2.00,-1.00,-5.00,-9.00,-37.00,+25.00,+7.00,+45.00,+5.00,-2.00,-7.00,+28.00,+9.00,+4.00,+10.00
-18.00,+2.00,+1.00,-4.00,-2.00,-33.00,-13.00,-1.00,-29.00,-2.00,+0.00,-4.00,-39.00,-9.00,+2.00,-26.00
+6.00,-3.00,-2.00,-2.00,-13.00,-57.00,-28.00,-11.00,-90.00,-4.00,-7.00,-2.00,-27.00,-11.00,+11.00,-2.00
-8.00,+2.00,-1.00,+18.00,+22.00,+116.00,+33.00,+15.00,-77.00,+4.00,+3.00,-7.00,-6.00,+22.00,-47.00,-3.00
-20.00,-4.00,-1.00,-19.00,-5.00,-33.00,-6.00,-3.00,-78.00,-4.00,-1.00,+2.00,+0.00,+14.00,+0.00,+1.00
-17.00,+3.00,+2.00,-2.00,+5.00,+21.00,+16.00,-11.00,-71.00,-3.00,+2.00,-6.00,-46.00,-9.00,+9.00,+0.00
-4.00,-13.00,-4.00,-28.00,-22.00,-94.00,-29.00,-8.00,-47.00,-1.00,-3.00,+1.00,-17.00,+5.00,-4.00,-4.00
-9.00,+2.00,+0.00,+5.00,+14.00,+75.00,+34.00,+14.00,-51.00,+0.00,-6.00,-16.00,-32.00,-48.00,+4.00,-32.00
-7.00,-1.00,-1.00,+6.00,+4.00,-7.00,+19.00,+10.00,-3.00,-2.00,-2.00,+15.00,-29.00,-5.00,+45.00,-4.00
+0.00,+0.00,+0.00,-8.00,+2.00,+23.00,+40.00,+10.00,-12.00,+0.00,-3.00,-9.00,+3.00,+4.00,-17.00,+4.00
+5.00,+0.00,+0.00,+0.00,-1.00,-41.00,-14.00,+5.00,-6.00,-9.00,-5.00,-11.00,-32.00,-13.00,-10.00,-1.00
+6.00,-1.00,-3.00,-9.00,-16.00,-6.00,+8.00,-1.00,-6.00,-1.00,-2.00,+11.00,-13.00,+13.00,+30.00,+1.00
-3.00,+0.00,-1.00,-7.00,-3.00,-8.00,-24.00,+4.00,-28.00,-9.00,-6.00,-8.00,-10.00,-12.00,+15.00,-24.00
-2.00,+0.00,-1.00,-6.00,-17.00,-61.00,-4.00,-4.00,+17.00,+6.00,+5.00,+4.00,-12.00,+11.00,-24.00,+2.00
+3.00,-2.00,+1.00,+14.00,+31.00,+118.00,+23.00,+7.00,+10.00,-3.00,-1.00,+6.00,+16.00,+4.00,+2.00,+3.00
+0.00,-1.00,+0.00,-27.00,-5.00,-36.00,-6.00,-4.00,-10.00,-7.00,-2.00,-2.00,+23.00,-17.00,-1.00,+7.00
+1.00,-9.00,-4.00,-8.00,-1.00,-53.00,+8.00,+2.00,-1.00,-4.00,-2.00,-9.00,-12.00,+20.00,-9.00,-3.00
-6.00,+8.00,+6.00,+13.00,+11.00,-10.00,-9.00,-8.00,+6.00,-2.00,+2.00,+10.00,-26.00,-5.00,-9.00,-8.00
+7.00,-20.00,-25.00,-4.00,-6.00,-25.00,+1.00,-4.00,+25.00,+5.00,+4.00,-3.00,+12.00,+8.00,+15.00,+34.00
+3.00,+20.00,+22.00,+13.00,-6.00,-25.00,+56.00,+9.00,+8.00,-6.00,-11.00,-8.00,+3.00,+5.00,-23.00,-17.00
-3.00,-2.00,-5.00,-4.00,+4.00,-6.00,+1.00,-2.00,+17.00,+4.00,-5.00,-5.00,+13.00,+3.00,+3.00,+35.00
-1.00,+7.00,+2.00,+2.00,-4.00,+14.00,-1.00,+3.00,+29.00,-1.00,-5.00,-16.00,+26.00,+1.00,+15.00,+10.00
-4.00,+6.00,+4.00,+0.00,-3.00,+2.00,+10.00,-6.00,-24.00,-4.00,-1.00,+19.00,-66.00,-6.00,-5.00,-10.00
-3.00,-12.00,-9.00,+0.00,-4.00,-7.00,-38.00,-12.00,+8.00,-1.00,+5.00,+2.00,-3.00,-4.00,+4.00,-1.00
-7.00,+0.00,-1.00,-13.00,-6.00,-18.00,+6.00,+1.00,+21.00,+6.00,+3.00,+1.00,-16.00,-4.00,-9.00,+4.00
+6.00,-5.00,-6.00,-9.00,-30.00,+10.00,+18.00,+2.00,-26.00,-7.00,-6.00,-19.00,+12.00,-22.00,+6.00,-4.00
-4.00,-5.00,-4.00,-13.00,+31.00,-32.00,-1.00,-3.00,-2.00,-1.00,-3.00,+0.00,-31.00,+24.00,+6.00,-6.00
-4.00,-6.00,-2.00,-6.00,+18.00,+43.00,-4.00,+11.00,+31.00,+2.00,-1.00,+4.00,+26.00,-5.00,+2.00,+14.00
+1.00,+5.00,+8.00,+6.00,+5.00,+16.00,+36.00,+17.00,-12.00,-7.00,-1.00,+13.00,+32.00,+12.00,-2.00,-9.00
+2.00,-10.00,-4.00,-7.00,+9.00,+39.00,+26.00,+0.00,+9.00,+2.00,-2.00,-20.00,+2.00,+21.00,+0.00,+0.00
+3.00,+1.00,+3.00,-15.00,-22.00,-45.00,-5.00,-7.00,+21.00,+7.00,+3.00,-3.00,-43.00,-57.00,+14.00,-1.00
+3.00,-4.00,-1.00,-2.00,-12.00,-43.00,-23.00,-13.00,-9.00,-3.00,-3.00,+2.00,+11.00,+31.00,+23.00,-8.00
-2.00,-4.00,-6.00,-5.00,+3.00,+22.00,+14.00,-2.00,-3.00,-1.00,-1.00,-5.00,-10.00,-5.00,+11.00,-6.00
+1.00,+0.00,+0.00,-7.00,+17.00,+48.00,+7.00,-3.00,-5.00,+3.00,+4.00,+8.00,-10.00,-16.00,+35.00,-8.00
+6.00,+1.00,-1.00,+1.00,-11.00,-7.00,-13.00,-7.00,-4.00,-8.00,-4.00,-2.00,+36.00,+3.00,-34.00,-12.00
+0.00,-2.00,-4.00,-9.00,-2.00,-26.00,-1.00,-7.00,+2.00,+7.00,+11.00,+1.00,-3.00,-4.00,-5.00,+21.00
+4.00,+0.00,-3.00,-10.00,-13.00,-21.00,+2.00,+0.00,+4.00,-4.00,-4.00,-3.00,+14.00,-2.00,-9.00,-4.00
+16.00,-2.00,-3.00,-5.00,+4.00,+21.00,-7.00,+0.00,+9.00,+7.00,-3.00,+2.00,-8.00,+4.00,+11.00,-2.00
-14.00,+7.00,+11.00,+12.00,+3.00,+16.00,-4.00,-10.00,-6.00,+6.00,+11.00,-3.00,-5.00,+3.00,+6.00,+3.00
+3.00,-10.00,-11.00,-7.00,-12.00,-16.00,-12.00,+1.00,-19.00,-11.00,-13.00,-8.00,-1.00,-5.00,-14.00,-22.00
+10.00,+4.00,+2.00,+10.00,-2.00,-8.00,-10.00,-14.00,+15.00,-25.00,+27.00,+4.00,+7.00,+10.00,-7.00,+7.00
-32.00,-3.00,-2.00,-5.00,+1.00,-51.00,-6.00,+0.00,+20.00,+20.00,-60.00,-14.00,-21.00,-6.00,-7.00,+8.00
+2.00,-1.00,-1.00,-7.00,-7.00,+34.00,+5.00,+7.00,-19.00,-3.00,-10.00,-8.00,+17.00,+8.00,-2.00,-12.00
-6.00,+1.00,-2.00,-6.00,+0.00,-29.00,-4.00,+2.00,+12.00,+1.00,-1.00,-13.00,+27.00,-2.00,-4.00,+7.00
+12.00,-9.00,-4.00,-5.00,+10.00,+52.00,+9.00,+7.00,+10.00,+16.00,+12.00,+2.00,+15.00,-8.00,-3.00,-12.00
+16.00,+7.00,+11.00,-27.00,-17.00,-110.00,-9.00,-9.00,+5.00,-8.00,+23.00,+11.00,-6.00,+7.00,+4.00,-5.00
+5.00,+1.00,-5.00,+1.00,+6.00,+70.00,+11.00,+12.00,-22.00,-2.00,-4.00,+4.00,+42.00,+16.00,+9.00,+13.00
+7.00,-2.00,+3.00,-2.00,-8.00,-4.00,-19.00,-6.00,+10.00,+2.00,-2.00,+6.00,+13.00,-38.00,-3.00,-11.00
+3.00,+1.00,-3.00,-9.00,-4.00,-13.00,-15.00,+0.00,+5.00,+5.00,-9.00,-10.00,-43.00,+4.00,-20.00,+16.00
+1.00,-11.00,-6.00,-17.00,+0.00,-62.00,-4.00,-9.00,-12.00,-14.00,+11.00,+10.00,+40.00,+33.00,-9.00,-7.00
+6.00,-3.00,+1.00,-2.00,+10.00,+67.00,-6.00,+0.00,+39.00,+6.00,-6.00,-3.00,+12.00,+11.00,+1.00,+4.00
+5.00,+1.00,-6.00,+7.00,+5.00,+3.00,-10.00,-11.00,+5.00,-16.00,+4.00,+2.00,-9.00,+2.00,-7.00,+2.00
-2.00,-8.00,+1.00,+1.00,-4.00,-11.00,+12.00,-7.00,+5.00,+31.00,-7.00,-13.00,+11.00,-4.00,+2.00,+9.00
+3.00,+9.00,+0.00,+14.00,+3.00,+58.00,+8.00,+3.00,+21.00,+2.00,+1.00,+9.00,-17.00,-15.00,+1.00,+17.00
+11.00,-11.00,+1.00,-13.00,-8.00,-52.00,-17.00,+11.00,-6.00,-3.00,+2.00,-3.00,-5.00,-3.00,+2.00,-9.00
+4.00,+10.00,+6.00,+21.00,+2.00,+7.00,+5.00,-17.00,-13.00,-9.00,-7.00,-2.00,+3.00,+5.00,-6.00,-17.00
-7.00,+8.00,-1.00,+12.00,-6.00,-28.00,-9.00,-9.00,+4.00,-1.00,-4.00,+1.00,-8.00,-5.00,+8.00,+22.00
+2.00,-15.00,-17.00,+10.00,-10.00,-25.00,-12.00,+0.00,-10.00,+1.00,+10.00,+5.00,-23.00,-2.00,+1.00,-5.00
+2.00,-21.00,-11.00,+10.00,-1.00,+16.00,+2.00,+6.00,+1.00,-14.00,-5.00,+1.00,+11.00,-1.00,+8.00,+8.00
-3.00,-18.00,-68.00,-10.00,-6.00,+4.00,+0.00,+12.00,-13.00,+7.00,+0.00,+0.00,+11.00,+5.00,-4.00,-6.00
-5.00,+15.00,+87.00,+17.00,+0.00,-16.00,+0.00,+11.00,-30.00,-11.00,+0.00,-2.00,+22.00,+2.00,-12.00,-42.00
+3.00,+8.00,+31.00,+29.00,+11.00,+41.00,+8.00,+5.00,+11.00,-17.00,-7.00,+3.00,-105.00,-17.00,-2.00,+3.00
+3.00,+8.00,-9.00,+14.00,-4.00,-22.00,+0.00,+3.00,+17.00,+27.00,+9.00,-9.00,+57.00,+3.00,-5.00,-5.00
-4.00,-11.00,-5.00,+1.00,-3.00,-22.00,-3.00,+9.00,+6.00,-15.00,-13.00,+13.00,-53.00,+3.00,+11.00,+31.00
+0.00,-22.00,-46.00,-22.00,-9.00,-14.00,-9.00,+3.00,-40.00,-9.00,-17.00,-22.00,+3.00,+1.00,-5.00,-22.00
+7.00,-6.00,-8.00,+54.00,+30.00,+67.00,+21.00,+31.00,+78.00,+6.00,+3.00,-4.00,+104.00,-1.00,-2.00,+6.00
+1.00,+14.00,+13.00,-9.00,-5.00,-47.00,-2.00,+2.00,+1.00,+9.00,+10.00,+30.00,-90.00,-3.00,+2.00,-2.00
-2.00,-29.00,-4.00,-8.00,-2.00,-10.00,+15.00,-10.00,-20.00,+4.00,+2.00,-12.00,+2.00,+2.00,-2.00,-2.00
+3.00,-11.00,-7.00,+13.00,+6.00,-22.00,+27.00,+3.00,+14.00,-6.00,-1.00,+5.00,+1.00,-1.00,+1.00,+0.00
-1.00,+16.00,+12.00,-17.00,-7.00,-17.00,-5.00,-14.00,-39.00,-5.00,+0.00,-5.00,-14.00,-11.00,-4.00,-7.00
-2.00,+1.00,-8.00,+12.00,-4.00,-11.00,-8.00,-22.00,-8.00,-10.00,-8.00,-10.00,+28.00,+7.00,+1.00,+3.00
+1.00,+24.00,+16.00,+7.00,+3.00,+16.00,+4.00,-10.00,-18.00,+0.00,+5.00,-5.00,+14.00,+1.00,-8.00,-17.00
-4.00,-19.00,-6.00,-14.00,-8.00,-21.00,-9.00,-14.00,-21.00,-11.00,-2.00,+3.00,-20.00,-4.00,+6.00,+33.00
-3.00,-7.00,-9.00,-7.00,+1.00,+27.00,+2.00,-16.00,-21.00,+0.00,+1.00,-3.00,-15.00,-7.00,-5.00,-20.00
+4.00,+5.00,-6.00,+1.00,-2.00,-13.00,-3.00,-19.00,+2.00,-7.00,-5.00,-3.00,+15.00,+12.00,+2.00,+2.00
+1.00,-1.00,+8.00,-25.00,-9.00,-16.00,-14.00,+0.00,+29.00,-3.00,-3.00,-6.00,+14.00,-3.00,-4.00,-7.00
-6.00,+18.00,-2.00,+13.00,+3.00,+20.00,-2.00,-22.00,+33.00,-13.00,-12.00,-8.00,-52.00,-3.00,-4.00,-4.00
-2.00,-5.00,-8.00,-4.00,-2.00,+2.00,-1.00,-1.00,-19.00,+58.00,+12.00,+7.00,-34.00,+4.00,+2.00,+5.00
+3.00,-2.00,+2.00,+0.00,-1.00,+3.00,-1.00,+5.00,-34.00,-13.00,+2.00,+7.00,+18.00,-42.00,+11.00,-3.00
-2.00,+9.00,+17.00,+1.00,-6.00,-29.00,-7.00,+8.00,-26.00,-8.00,+4.00,+1.00,-47.00,+65.00,-30.00,+9.00
-7.00,+7.00,-13.00,-18.00,+2.00,+1.00,-8.00,+18.00,+51.00,+53.00,+0.00,+1.00,+30.00,+4.00,-13.00,+4.00
-2.00,-6.00,-10.00,-1.00,+6.00,+39.00,+7.00,+10.00,+24.00,-27.00,-1.00,-8.00,+27.00,+2.00,-7.00,+12.00
+1.00,-34.00,-1.00,-18.00,-23.00,-56.00,-16.00,-1.00,-19.00,+18.00,-2.00,-1.00,+5.00,+17.00,+24.00,-26.00
+4.00,+29.00,+33.00,+39.00,+26.00,+51.00,+20.00,+25.00,-17.00,+10.00,+9.00,-3.00,+12.00,-29.00,+12.00,+2.00
+1.00,+26.00,-9.00,-18.00,+4.00,-43.00,-7.00,+5.00,+15.00,-13.00,+0.00,+2.00,+0.00,-5.00,+2.00,-1.00
+1.00,-38.00,-3.00,-17.00,-10.00,-19.00,-8.00,-5.00,-27.00,-13.00,-2.00,+3.00,-31.00,+7.00,+0.00,+6.00
-7.00,+88.00,+11.00,+23.00,+16.00,+78.00,+17.00,+6.00,-21.00,+17.00,+1.00,-6.00,+12.00,-10.00,-5.00,+4.00
+3.00,-23.00,-13.00,-15.00,-10.00,-8.00,-11.00,-12.00,+33.00,+2.00,-8.00,-6.00,+15.00,-7.00,+4.00,+3.00
+3.00,+16.00,-3.00,-9.00,+1.00,+6.00,-1.00,-13.00,-17.00,-7.00,+2.00,+6.00,+13.00,+5.00,-6.00,-30.00
-5.00,-19.00,-7.00,+1.00,-1.00,-1.00,-2.00,-5.00,-6.00,-7.00,-5.00,-1.00,-39.00,-23.00,-4.00,-16.00
+3.00,-18.00,-4.00,-3.00,-8.00,-44.00,-2.00,-5.00,+12.00,-23.00,-4.00,-2.00,-60.00,+2.00,-9.00,+0.00
-6.00,-2.00,+0.00,-12.00,-7.00,-8.00,-6.00,+5.00,+14.00,-5.00,-2.00,-11.00,+14.00,-13.00,+16.00,+52.00
-3.00,+3.00,+4.00,+5.00,+5.00,+16.00,+0.00,-8.00,+5.00,+20.00,+2.00,-11.00,+34.00,-2.00,-13.00,-26.00
+2.00,-4.00,-6.00,-16.00,-4.00,-14.00,+4.00,+1.00,-11.00,-18.00,-3.00,+18.00,-20.00,+18.00,+2.00,-5.00
+2.00,+4.00,-2.00,-10.00,+1.00,-31.00,-8.00,-2.00,+2.00,+2.00,-5.00,-5.00,+13.00,-4.00,-11.00,-10.00
-6.00,-14.00,-4.00,-9.00,+2.00,+25.00,-1.00,+0.00,-59.00,-1.00,+0.00,+2.00,-12.00,+15.00,+9.00,-7.00
-1.00,-126.00,-14.00,-12.00,-29.00,-22.00,-10.00,+4.00,+68.00,-24.00,-1.00,-2.00,+9.00,-31.00,+16.00,+64.00
+0.00,+114.00,+10.00,+7.00,+17.00,+15.00,-2.00,+16.00,+19.00,+15.00,+1.00,-3.00,+9.00,+34.00,-4.00,-27.00
-7.00,+86.00,+13.00,-9.00,+9.00,+66.00,+56.00,+14.00,+14.00,+17.00,-8.00,-10.00,+3.00,+14.00,-2.00,+6.00
+0.00,-32.00,+2.00,+10.00,+6.00,-2.00,-18.00,+10.00,-49.00,-61.00,-10.00,+2.00,+13.00,-14.00,-17.00,-67.00
-2.00,+25.00,-6.00,-7.00,-3.00,-1.00,-1.00,+2.00,+37.00,+40.00,+13.00,+11.00,+5.00,+9.00,+29.00,+88.00
-5.00,-108.00,-13.00,-15.00,-15.00,-44.00,-31.00,-13.00,+51.00,+60.00,+9.00,-11.00,+70.00,+1.00,-1.00,+3.00
+1.00,-11.00,-3.00,+4.00,-2.00,+22.00,-6.00,-4.00,+44.00,+21.00,+7.00,+23.00,-20.00,-3.00,-1.00,+20.00
+4.00,+106.00,+16.00,+11.00,+1.00,-22.00,+1.00,-1.00,+8.00,-2.00,-4.00,-9.00,-5.00,-8.00,-5.00,-30.00
-4.00,-82.00,-16.00,+6.00,-7.00,+10.00,-14.00,-9.00,-44.00,-31.00,-7.00,+10.00,+1.00,+8.00,-12.00,-38.00
-1.00,-56.00,+6.00,+8.00,+6.00,+20.00,+46.00,+7.00,-13.00,-34.00,-9.00,-14.00,-19.00,-36.00,-14.00,+2.00
-4.00,+13.00,+1.00,-13.00,+5.00,-17.00,-16.00,-8.00,+16.00,-18.00,-2.00,-8.00,+38.00,+12.00,-3.00,-1.00
+1.00,-61.00,-13.00,-13.00,-8.00,-39.00,-4.00,-15.00,-10.00,+2.00,+0.00,-3.00,-58.00,-15.00,-6.00,-14.00
-3.00,+17.00,+4.00,-1.00,+3.00,+6.00,-11.00,-6.00,-65.00,-3.00,-2.00,+6.00,+4.00,+12.00,+3.00,-33.00
-2.00,+43.00,-4.00,-5.00,+4.00,+41.00,-2.00,-4.00,-9.00,-1.00,-4.00,-1.00,+1.00,-19.00,-4.00,+14.00
-2.00,-55.00,-8.00,-13.00,-4.00,-19.00,-10.00,+11.00,-4.00,-7.00,-1.00,-7.00,+0.00,-5.00,+5.00,+37.00
-2.00,+41.00,-3.00,-3.00,-2.00,+18.00,+15.00,-8.00,-1.00,+20.00,+11.00,+10.00,+11.00,+3.00,+5.00,+16.00
-3.00,+17.00,+3.00,-6.00,-8.00,-26.00,+10.00,-4.00,-5.00,+13.00,-5.00,-5.00,-13.00,-4.00,-9.00,-17.00
-5.00,-13.00,-6.00,-7.00,+2.00,-7.00,-6.00,+1.00,-29.00,-31.00,-7.00,+1.00,-7.00,-3.00,+7.00,-7.00
-2.00,-33.00,-1.00,+10.00,-1.00,+23.00,+5.00,+4.00,-1.00,-14.00,-2.00,-6.00,-10.00,-3.00,-11.00,-35.00
-1.00,+34.00,+1.00,-13.00,-1.00,-5.00,-10.00,-4.00,-13.00,-7.00,-4.00,-5.00,+57.00,-12.00,+9.00,+29.00
+1.00,+56.00,+5.00,-1.00,+12.00,+19.00,+14.00,+5.00,+21.00,+8.00,-2.00,-8.00,-59.00,+24.00,-4.00,+0.00
+1.00,-41.00,-3.00,+2.00,-8.00,-2.00,-2.00,-11.00,-28.00,+17.00,+0.00,+7.00,-2.00,-31.00,-7.00,-10.00
+1.00,-35.00,-5.00,+2.00,-4.00,-34.00,-15.00,-10.00,+82.00,-19.00,-12.00,-9.00,+18.00,+46.00,+36.00,-13.00
+0.00,+74.00,-3.00,-9.00,-6.00,+3.00,-2.00,-1.00,+67.00,+15.00,+6.00,+16.00,+1.00,+11.00,-14.00,+16.00
+4.00,-59.00,+1.00,+15.00,+2.00,-13.00,+12.00,-3.00,-28.00,+62.00,+0.00,-7.00,-8.00,-16.00,-31.00,-23.00
+1.00,-22.00,+8.00,+1.00,-8.00,-51.00,+6.00,-1.00,-40.00,-63.00,+15.00,+1.00,+36.00,-6.00,+31.00,+9.00
-3.00,-43.00,+3.00,+22.00,+24.00,+64.00,-1.00,+2.00,-21.00,+6.00,-5.00,-1.00,+10.00,-36.00,-14.00,-26.00
-3.00,-59.00,-12.00,-10.00,-6.00,-1.00,+5.00,-3.00,-6.00,+2.00,+5.00,-1.00,-2.00,+26.00,-26.00,+7.00
+0.00,+25.00,-2.00,-7.00,+5.00,-9.00,-1.00,+2.00,+20.00,+1.00,-5.00,+5.00,-1.00,+3.00,+10.00,-26.00
-2.00,-15.00,-7.00,-8.00,-10.00,-5.00,-12.00,-6.00,+13.00,+20.00,-4.00,-7.00,+1.00,+11.00,+2.00,+13.00
+1.00,-16.00,-4.00,-8.00,-11.00,-53.00,-7.00,-7.00,-80.00,-7.00,+10.00,+1.00,+12.00,-22.00,-11.00,+0.00
-3.00,-49.00,-4.00,+2.00,+0.00,+22.00,+1.00,+6.00,+32.00,-21.00,-10.00,-1.00,-1.00,+5.00,+10.00,-11.00
-7.00,+75.00,+12.00,+1.00,-1.00,+10.00,-32.00,+1.00,-38.00,-1.00,+5.00,+3.00,+16.00,-6.00,-12.00,-4.00
-5.00,+5.00,-3.00,-2.00,-2.00,-3.00,+26.00,+11.00,+8.00,+7.00,-9.00,-9.00,-16.00,-4.00,-8.00,-16.00
+0.00,-3.00,-11.00,+9.00,+1.00,-8.00,-6.00,-18.00,-42.00,-26.00,-9.00,-5.00,-11.00,+1.00,+3.00,-1.00
-1.00,+32.00,-6.00,+2.00,+2.00,-1.00,+5.00,+3.00,+64.00,+13.00,-2.00,+1.00,-3.00,-15.00,+3.00,+48.00
+1.00,-23.00,+15.00,-10.00,-2.00,-2.00,-8.00,+2.00,-52.00,-90.00,-5.00,-5.00,-6.00,+31.00,+7.00,-1.00
+3.00,-22.00,+13.00,-6.00,-7.00,+6.00,-15.00,+5.00,+63.00,+60.00,+5.00,+4.00,-8.00,+5.00,-3.00,-10.00
-2.00,+25.00,+9.00,-2.00,-1.00,-12.00,+6.00,+8.00,+5.00,-1.00,+10.00,+3.00,-6.00,+8.00,-7.00,+0.00
-2.00,+40.00,-2.00,+4.00,-5.00,+2.00,+4.00,-6.00,-25.00,-36.00,-4.00,-9.00,+6.00,-3.00,+25.00,-2.00
-1.00,+11.00,-11.00,+8.00,-8.00,-15.00,+1.00,+4.00,+5.00,-6.00,+2.00,+4.00,+2.00,-38.00,-58.00,-4.00
+1.00,-9.00,-10.00,+4.00,+13.00,+29.00,-15.00,-10.00,+43.00,-7.00,-3.00,+0.00,+51.00,+17.00,-5.00,+1.00
-4.00,-99.00,-8.00,-4.00,+1.00,-32.00,-32.00,+4.00,-2.00,-9.00,-5.00,-5.00,-64.00,-26.00,-8.00,+13.00
-6.00,-76.00,-7.00,-2.00,+4.00,-17.00,+27.00,-3.00,-26.00,+3.00,-5.00,-2.00,+26.00,+10.00,+4.00,-24.00
+1.00,-55.00,-20.00,+2.00,+5.00,+37.00,-5.00,+3.00,+16.00,-7.00,-1.00,+3.00,-17.00,+14.00,+18.00,-11.00
-11.00,-41.00,+26.00,-7.00,-11.00,-9.00,+7.00,-1.00,-30.00,-16.00,-1.00,+0.00,-13.00,+4.00,-9.00,-3.00
-3.00,-104.00,-11.00,-5.00,-9.00,-23.00,-11.00,-2.00,+6.00,+16.00,+5.00,+1.00,+16.00,-7.00,+3.00,+12.00
+2.00,-43.00,+5.00,+9.00,+3.00,+6.00,+22.00,-1.00,-8.00,-14.00,+1.00,-12.00,-3.00,-22.00,-33.00,-41.00
-1.00,-77.00,-18.00,-17.00,-6.00,-6.00,+12.00,-8.00,-23.00,-22.00,-8.00,+2.00,-10.00,-11.00,+7.00,+30.00
+2.00,-20.00,-15.00,-13.00,-2.00,-5.00,-16.00,-4.00,-23.00,+10.00,-2.00,-1.00,-12.00,-4.00,+3.00,+14.00
-1.00,+79.00,+12.00,-1.00,-4.00,-1.00,+1.00,+0.00,+34.00,-29.00,+1.00,+6.00,+22.00,+17.00,+0.00,-2.00
-4.00,-43.00,-11.00,-11.00,-3.00,-11.00,-18.00,+1.00,+63.00,+72.00,-2.00,-3.00,-19.00,-8.00,+13.00,+40.00
+1.00,+11.00,+15.00,-6.00,+1.00,+5.00,-3.00,+0.00,-35.00,-50.00,-3.00,-8.00,+19.00,-4.00,+0.00,-10.00
+5.00,+23.00,-22.00,+3.00,-2.00,-12.00,+1.00,+5.00,-30.00,+8.00,+9.00,+3.00,-18.00,+4.00,+7.00,+19.00
-8.00,+66.00,+29.00,+2.00,+0.00,+6.00,+14.00,-3.00,+40.00,-15.00,-6.00,-5.00,-7.00,-12.00,-2.00,+2.00
+8.00,+7.00,+5.00,+8.00,+1.00,+10.00,-1.00,+2.00,+57.00,+103.00,-5.00,+1.00,-1.00,+3.00,-3.00,+0.00
+0.00,+20.00,-4.00,+0.00,+4.00,+6.00,+2.00,+5.00,-82.00,-52.00,+9.00,+0.00,-1.00,+5.00,+8.00,-12.00
+3.00,-2.00,-8.00,+10.00,+3.00,+16.00,-7.00,+2.00,+30.00,-6.00,-1.00,-4.00,-13.00,-30.00,+1.00,-1.00
-2.00,+1.00,-3.00,-3.00,-3.00,-1.00,+11.00,+8.00,-12.00,+3.00,-7.00,-9.00,+35.00,+35.00,+16.00,+1.00
-3.00,+24.00,+6.00,-3.00,+0.00,-11.00,-43.00,-1.00,-43.00,-23.00,-1.00,+4.00,-44.00,-22.00,-36.00,-18.00
-1.00,+24.00,+7.00,-1.00,+0.00,+13.00,+54.00,+20.00,-7.00,+11.00,-3.00,+0.00,+0.00,+62.00,+30.00,+0.00
+0.00,-13.00,-5.00,-2.00,-5.00,-11.00,-5.00,-3.00,-13.00,-10.00,+2.00,+3.00,-13.00,+0.00,-4.00,-13.00
+1.00,-10.00,-3.00,+0.00,+7.00,+19.00,+11.00,+7.00,+22.00,-11.00,-3.00,-6.00,+96.00,-16.00,-29.00,-4.00
+1.00,-38.00,+2.00,-6.00,-5.00,-29.00,-10.00,-5.00,+4.00,-9.00,+1.00,+8.00,-33.00,-10.00,+19.00,-1.00
+1.00,-18.00,-5.00,+6.00,+12.00,+42.00,-3.00,+1.00,+13.00,-13.00,-9.00,-7.00,-7.00,-28.00,+7.00,-6.00
-1.00,+71.00,+13.00,+6.00,+2.00,+5.00,+3.00,-17.00,-23.00,+17.00,+5.00,-1.00,+0.00,+9.00,-6.00,+5.00
+1.00,-17.00,-4.00,-2.00,-4.00,-6.00,-4.00,-14.00,+26.00,+61.00,+2.00,-3.00,-29.00,-5.00,+1.00,+3.00
-2.00,+0.00,-1.00,-7.00,-6.00,-7.00,+1.00,-7.00,-54.00,-1.00,-8.00,-4.00,+23.00,+6.00,+11.00,-8.00
-5.00,+2.00,-3.00,-5.00,-3.00,-41.00,-22.00,-22.00,+54.00,-15.00,+2.00,-2.00,+4.00,-13.00,-5.00,+12.00
-3.00,-5.00,-4.00,+7.00,+6.00,+9.00,+17.00,-5.00,-24.00,-3.00,-4.00,-5.00,-6.00,+5.00,+7.00,+16.00
-2.00,+15.00,-4.00,-2.00,-3.00,+1.00,-11.00,-5.00,-27.00,-6.00,-7.00,+3.00,-15.00,+1.00,-4.00,-7.00
-3.00,-79.00,+0.00,+7.00,+3.00,+10.00,+9.00,+0.00,-15.00,+18.00,+10.00,+3.00,-2.00,+0.00,-1.00,-13.00
-4.00,+68.00,+5.00,-1.00,-3.00,-12.00,-17.00,+0.00,-31.00,-19.00,-27.00,-7.00,-4.00,-8.00,-4.00,+3.00
+0.00,+81.00,+16.00,+1.00,+7.00,+2.00,+2.00,+11.00,+99.00,+34.00,+7.00,+5.00,+10.00,+8.00,-5.00,-3.00
-4.00,-24.00,-9.00,-1.00,-5.00,-3.00,+1.00,-4.00,-51.00,+7.00,-7.00,-7.00,-26.00,-21.00,-6.00,-18.00
+5.00,-34.00,-17.00,-3.00,-12.00,-10.00,-9.00,+1.00,-81.00,-78.00,+4.00,-4.00,+19.00,+25.00,+9.00,+26.00
-11.00,-45.00,+22.00,-1.00,-3.00,-4.00,+4.00,+11.00,+3.00,+26.00,+2.00,+3.00,+12.00,-13.00,-11.00,-22.00
-3.00,-58.00,-7.00,-4.00,+6.00,+30.00,+2.00,+0.00,-49.00,+14.00,-2.00,+1.00,-19.00,-6.00,+29.00,+9.00
+4.00,-56.00,-1.00,-8.00,-15.00,-51.00,-19.00,+3.00,+8.00,+9.00,+7.00,-7.00,+4.00,+12.00,-5.00,+4.00
-1.00,-23.00,-3.00,+8.00,+16.00,+76.00,+17.00,+6.00,+33.00,+12.00,+1.00,+15.00,-38.00,-47.00,+8.00,+4.00
+6.00,+65.00,-2.00,+1.00,-2.00,-2.00,-18.00,+0.00,-9.00,+13.00,+1.00,-5.00,+53.00,+42.00,-1.00,+8.00
-2.00,+58.00,+10.00,-1.00,+5.00,-16.00,+3.00,+3.00,-3.00,-39.00,-9.00,-7.00,-22.00,-13.00,+5.00,-14.00
+0.00,-17.00,-11.00,-18.00,-20.00,-27.00,-46.00,-18.00,-17.00,-4.00,+1.00,+16.00,+18.00,+20.00,-18.00,-21.00
-1.00,+29.00,+3.00,+9.00,+5.00,+30.00,+58.00,-3.00,+32.00,-3.00,-2.00,-15.00,-32.00,-9.00,+30.00,+23.00
+2.00,-42.00,-5.00,-5.00,+1.00,+9.00,+1.00,-10.00,+34.00,+15.00,+8.00,+7.00,-2.00,-17.00,-15.00,+9.00
-7.00,+14.00,+1.00,-1.00,+1.00,+6.00,-1.00,-5.00,+11.00,-31.00,-9.00,-4.00,+39.00,+9.00,-24.00,-20.00
+0.00,+58.00,-1.00,+8.00,+5.00,+8.00,+13.00,-3.00,-3.00,+12.00,-3.00,-8.00,-40.00,-1.00,+13.00,+23.00
+3.00,-21.00,-1.00,-7.00,-8.00,-31.00,-27.00,-3.00,-7.00,-4.00,+5.00,+13.00,+39.00,+9.00,-12.00,-37.00
+0.00,+59.00,-12.00,+5.00,+3.00,+2.00,+8.00,+1.00,+36.00,+34.00,+2.00,-1.00,-14.00,-13.00,+7.00,+10.00
-2.00,-36.00,+8.00,-5.00,-6.00,-22.00,-2.00,+1.00,+3.00,-18.00,+0.00,+1.00,+3.00,+5.00,-1.00,+2.00
-1.00,+28.00,+5.00,+2.00,+3.00,+19.00,+9.00,+3.00,-13.00,+15.00,-1.00,-3.00,-15.00,-1.00,+2.00,-2.00
+1.00,+47.00,-14.00,-7.00,-2.00,-16.00,-9.00,+8.00,-21.00,-3.00,-10.00,-10.00,-5.00,+4.00,-13.00,-17.00
-6.00,-51.00,+15.00,-6.00,-6.00,+3.00,-2.00,-4.00,+10.00,-23.00,+2.00,-1.00,-3.00,-4.00,+5.00,-5.00
+3.00,-19.00,-8.00,+2.00,-4.00,-12.00,-10.00,-1.00,-46.00,-27.00,+0.00,-6.00,-16.00,-18.00,-20.00,-18.00
-3.00,-66.00,-8.00,-7.00,+1.00,+7.00,+9.00,+3.00,+4.00,+23.00,+13.00,+11.00,+62.00,-10.00,+18.00,+51.00
+0.00,+79.00,+17.00,+0.00,+1.00,+5.00,-6.00,+3.00,-1.00,-5.00,-1.00,-1.00,+37.00,+17.00,-15.00,-14.00
-4.00,-57.00,-14.00,-13.00,-5.00,-13.00,+4.00,+1.00,-29.00,+20.00,-2.00,-5.00,-70.00,+12.00,+8.00,-12.00
+4.00,-13.00,-4.00,+7.00,+0.00,-4.00,-16.00,-4.00,-16.00,-39.00,-7.00,+5.00,+8.00,-6.00,-9.00,-5.00
-2.00,+21.00,+11.00,-9.00,-2.00,-63.00,+16.00,+12.00,-18.00,+18.00,-4.00,+0.00,-21.00,-4.00,-10.00,-26.00
-4.00,-32.00,-1.00,+8.00,+3.00,+67.00,-26.00,-12.00,+11.00,+9.00,+3.00,-3.00,+11.00,-4.00,+12.00,+16.00
+0.00,-5.00,-3.00,-10.00,-7.00,-28.00,+9.00,-2.00,+3.00,+6.00,+0.00,-4.00,+31.00,+7.00,+0.00,+6.00
-2.00,-13.00,-2.00,-2.00,+4.00,+24.00,+14.00,-1.00,+5.00,+12.00,-3.00,+2.00,-35.00,-6.00,+16.00,+3.00
+3.00,+11.00,-6.00,+6.00,+10.00,+58.00,-12.00,-1.00,+21.00,-27.00,-5.00,-3.00,-8.00,+2.00,-24.00,-12.00
-5.00,+2.00,+3.00,-10.00,-5.00,-43.00,-42.00,-12.00,-22.00,-4.00,+0.00,+2.00,+34.00,+12.00,-4.00,+7.00
-5.00,+4.00,+3.00,+5.00,+6.00,+14.00,+20.00,-1.00,+24.00,+15.00,+1.00,+1.00,-28.00,-14.00,+5.00,+1.00
-7.00,-18.00,-9.00,-9.00,-17.00,-11.00,-7.00,-10.00,-12.00,+7.00,+0.00,+0.00,+30.00,+3.00,-8.00,-22.00
+2.00,-10.00,-4.00,+7.00,+0.00,-33.00,+5.00,+0.00,-43.00,-36.00,+0.00,-3.00,-28.00,+6.00,-4.00,+2.00
-9.00,+34.00,+12.00,+0.00,+5.00,+14.00,-4.00,+1.00,+6.00,+4.00,-7.00,-3.00,-8.00,+5.00,-1.00,-7.00
+5.00,-4.00,-2.00,+2.00,+3.00,+15.00,-7.00,+1.00,-7.00,-10.00,+1.00,-5.00,+11.00,-2.00,-4.00,-4.00
+1.00,+6.00,-2.00,-3.00,+0.00,-14.00,+4.00,+4.00,+25.00,+38.00,-4.00,-2.00,+2.00,-2.00,+14.00,+20.00
+1.00,+21.00,+4.00,+1.00,-3.00,+8.00,+2.00,+2.00,-6.00,-35.00,+5.00,+3.00,-7.00,-6.00,+1.00,+8.00
+1.00,-54.00,-2.00,-3.00,-6.00,-28.00,+7.00,+3.00,-9.00,+35.00,+2.00,-3.00,+20.00,+7.00,-1.00,+5.00
+0.00,+61.00,+6.00,+1.00,+2.00,-7.00,+1.00,+7.00,+26.00,-2.00,-1.00,+1.00,-35.00,-22.00,+5.00,+1.00
+0.00,+45.00,+2.00,-10.00,-5.00,-3.00,-21.00,-5.00,-28.00,-4.00,+0.00,+2.00,-7.00,-1.00,-4.00,+0.00
-1.00,-54.00,-2.00,+6.00,+0.00,-13.00,+21.00,+2.00,+29.00,-8.00,-3.00,+2.00,-7.00,+4.00,+6.00,-7.00
+0.00,+9.00,+2.00,+2.00,+6.00,+11.00,-2.00,+8.00,+48.00,+10.00,-4.00,-5.00,-3.00,-11.00,+11.00,+31.00
+2.00,-41.00,-6.00,+4.00,+3.00,-7.00,-5.00,+3.00,+22.00,+9.00,-2.00,-3.00,+3.00,-4.00,-18.00,-10.00
-3.00,+5.00,-1.00,-3.00,+0.00,+6.00,-8.00,+2.00,+7.00,-9.00,+1.00,-6.00,-6.00,-4.00,+2.00,+2.00
+1.00,+8.00,-1.00,-1.00,+1.00,+26.00,+1.00,+1.00,+2.00,-3.00,-3.00,+0.00,+9.00,+7.00,+6.00,+3.00
-2.00,-31.00,-4.00,-2.00,-3.00,-19.00,+13.00,-3.00,-18.00,-28.00,-5.00,-3.00,-42.00,-1.00,-12.00,-15.00
-1.00,-17.00,-6.00,-6.00,-4.00,-17.00,-36.00,-14.00,-34.00,+6.00,+3.00,+6.00,+31.00,-9.00,-12.00,+7.00
+3.00,+12.00,+2.00,+7.00,+5.00,-1.00,+38.00,+4.00,-15.00,+3.00,+4.00,+3.00,+6.00,+26.00,+47.00,+7.00
+0.00,-28.00,-4.00,+0.00,-3.00,+5.00,+2.00,-10.00,+25.00,+11.00,-5.00,-5.00,-4.00,+0.00,+2.00,-3.00
-3.00,+30.00,+5.00,-5.00,-5.00,-17.00,-4.00,-6.00,-5.00,-40.00,-2.00,-2.00,+9.00,+2.00,-9.00,-17.00
+1.00,-56.00,-6.00,+0.00,-4.00,+9.00,+3.00,-3.00,-11.00,+0.00,-2.00,+0.00,+0.00,-1.00,+10.00,+9.00
+8.00,+27.00,-2.00,-4.00,-1.00,-4.00,-6.00,-7.00,-23.00,+5.00,+1.00,-1.00,-14.00,+5.00,-13.00,+4.00
-8.00,+51.00,+3.00,+0.00,-2.00,+10.00,-3.00,+2.00,-14.00,+4.00,+0.00,-4.00,+5.00,-13.00,+2.00,+2.00
+0.00,-10.00,+0.00,+1.00,-2.00,-13.00,+5.00,-4.00,-27.00,-34.00,-11.00,-7.00,-14.00,+0.00,-1.00,-25.00
-3.00,+9.00,-1.00,-5.00,+1.00,-9.00,-14.00,-4.00,-28.00,+4.00,-3.00,-2.00,+9.00,-3.00,+2.00,+4.00
-2.00,-81.00,-10.00,-1.00,+1.00,+17.00,-7.00,-1.00,-20.00,-38.00,+4.00,-4.00,-21.00,-11.00,-21.00,+4.00
+2.00,+71.00,+9.00,+3.00,+4.00,+8.00,+1.00,+3.00,+13.00,+14.00,+1.00,+9.00,-6.00,+9.00,+8.00,+4.00
+0.00,-21.00,-2.00,-3.00,-4.00,-11.00,+0.00,+2.00,+5.00,+5.00,+0.00,-4.00,-21.00,+24.00,-3.00,+14.00
+3.00,+18.00,-2.00,+6.00,+5.00,+12.00,+11.00,+3.00,-36.00,+0.00,-5.00,-3.00,+78.00,+2.00,-5.00,-13.00
-5.00,-22.00,+3.00,-5.00,+1.00,-3.00,+0.00,+1.00,-10.00,-3.00,-4.00,-2.00,-54.00,-9.00,-6.00,-14.00
+3.00,-7.00,+3.00,+0.00,+1.00,+12.00,-2.00,+5.00,+48.00,+7.00,+4.00,+3.00,+4.00,-2.00,+1.00,+6.00
+2.00,-4.00,-1.00,+0.00,-4.00,-1.00,-1.00,-11.00,+6.00,-19.00,+0.00,+1.00,-15.00,-11.00,+0.00,-3.00
+0.00,+1.00,-1.00,-2.00,-4.00,-9.00,-3.00,+2.00,+16.00,+22.00,+1.00,-1.00,+13.00,-5.00,+4.00,+2.00
+2.00,+0.00,-2.00,-1.00,-3.00,+8.00,+18.00,+5.00,+42.00,+22.00,-7.00,-4.00,+17.00,+7.00,-11.00,+20.00
-4.00,-14.00,-5.00,-3.00,-4.00,-6.00,-9.00,-9.00,-14.00,-10.00,+1.00,-3.00,-17.00,-10.00,+13.00,-24.00
-2.00,-27.00,-4.00,-6.00,-2.00,-16.00,+3.00,+0.00,-1.00,+8.00,+5.00,+6.00,+15.00,+2.00,+3.00,+9.00
-2.00,+41.00,+8.00,-3.00,+0.00,-10.00,+10.00,+0.00,+7.00,-10.00,-3.00,+0.00,-28.00,+0.00,+8.00,+2.00
-1.00,+33.00,+1.00,+6.00,+2.00,+12.00,-22.00,+0.00,+10.00,+8.00,+4.00,-1.00,+10.00,-4.00,-11.00,-2.00
-1.00,+12.00,-1.00,-1.00,+2.00,+6.00,+8.00,+0.00,+23.00,-6.00,-8.00,-5.00,-19.00,+3.00,-6.00,+10.00
+3.00,+16.00,-4.00,-4.00,+0.00,-11.00,-1.00,+3.00,-9.00,+17.00,+6.00,+1.00,+15.00,-5.00,-2.00,-1.00
+1.00,-17.00,-3.00,+0.00,-3.00,+2.00,-3.00,-4.00,+6.00,-3.00,+2.00,+1.00,-18.00,+0.00,+4.00,+2.00
-9.00,-26.00,-2.00,-1.00,+3.00,-1.00,+3.00,-2.00,+21.00,+2.00,-3.00,-3.00,-3.00,-1.00,-3.00,-12.00
-1.00,-28.00,-9.00,-4.00,-3.00,-6.00,+1.00,-1.00,-30.00,-26.00,-3.00,-1.00,+17.00,-4.00,-7.00,+2.00
+3.00,+13.00,+1.00,+4.00,-5.00,-4.00,-8.00,-2.00,+2.00,+0.00,-4.00,-4.00,+14.00,-13.00,+7.00,-7.00
-3.00,-10.00,-4.00,-11.00,-3.00,-1.00,-5.00,-9.00,+14.00,+16.00,+3.00,+0.00,-37.00,-40.00,-22.00,-4.00
-3.00,+1.00,+4.00,-1.00,-2.00,-24.00,+2.00,+3.00,+2.00,-7.00,-2.00,+2.00,+22.00,-4.00,-11.00,-3.00
+0.00,-17.00,-4.00,+6.00,+12.00,+32.00,+7.00,-4.00,-24.00,+1.00,+0.00,+1.00,-34.00,+27.00,+0.00,-2.00
-3.00,-15.00,-2.00,-3.00,+1.00,-24.00,-17.00,+1.00,-15.00,-1.00,-1.00,-3.00,+29.00,-3.00,-4.00,-11.00
+2.00,-30.00,-8.00,-6.00,-6.00,-4.00,-20.00,-10.00,+1.00,-15.00,-2.00,+4.00,-10.00,-10.00,-17.00,-6.00
+5.00,+12.00,+3.00,+2.00,-3.00,+2.00,+42.00,+11.00,-2.00,+25.00,+1.00,-4.00,-9.00,-6.00,+16.00,+4.00
+1.00,+13.00,+1.00,+0.00,+1.00,+10.00,-5.00,-7.00,-29.00,-1.00,+2.00,-4.00,-9.00,-10.00,-4.00,-3.00
-5.00,-36.00,-5.00,-3.00,-1.00,+4.00,+6.00,+1.00,+21.00,+22.00,+2.00,+0.00,-14.00,-1.00,-7.00,-12.00
+2.00,+18.00,+1.00,+1.00,+0.00,+4.00,+1.00,+0.00,-2.00,-2.00,+0.00,-1.00,+9.00,+15.00,+3.00,+6.00
+2.00,+32.00,+4.00,-9.00,-7.00,-15.00,-19.00,-4.00,+26.00,+5.00,-1.00,+2.00,+15.00,+10.00,+4.00,-3.00
-5.00,+11.00,+1.00,+1.00,+3.00,-8.00,-2.00,+2.00,-15.00,-18.00,-3.00,-4.00,+2.00,+3.00,-4.00,+7.00
-5.00,-2.00,-5.00,-2.00,+0.00,+14.00,+8.00,+2.00,+22.00,+19.00,-4.00,-2.00,-13.00,-6.00,-1.00,+3.00
+0.00,+7.00,+1.00,+2.00,-2.00,+2.00,+1.00,+0.00,-23.00,-2.00,+3.00,+0.00,+3.00,+8.00,+10.00,-4.00
-4.00,+11.00,+0.00,-2.00,+0.00,+2.00,-3.00,-2.00,-12.00,-16.00,-6.00,-4.00,-1.00,-4.00,-11.00,-5.00
+3.00,-19.00,-7.00,-3.00,-6.00,-3.00,-2.00,-2.00,-10.00,+9.00,-4.00,-2.00,-2.00,-19.00,-3.00,-12.00
+0.00,+20.00,+2.00,+1.00,+1.00,+1.00,-1.00,+0.00,-9.00,-15.00,+1.00,-1.00,+19.00,-9.00,-5.00,-1.00
-3.00,-15.00,-3.00,+1.00,+5.00,+6.00,+6.00,-2.00,+19.00,+3.00,-1.00,-7.00,+9.00,+3.00,-6.00,-6.00
-1.00,-24.00,+1.00,-6.00,-2.00,-2.00,-8.00,-4.00,-26.00,-8.00,-1.00,+6.00,-38.00,+18.00,-2.00,-5.00
-3.00,-7.00,+1.00,-7.00,-5.00,-8.00,-3.00,-3.00,-6.00,-4.00,+0.00,+3.00,-8.00,+0.00,-2.00,-6.00
+3.00,+0.00,-1.00,-5.00,-10.00,-54.00,-25.00,-6.00,+5.00,-3.00,+0.00,+4.00,+20.00,+4.00,+1.00,-6.00
-4.00,+53.00,+7.00,+3.00,+9.00,+53.00,+66.00,+13.00,+1.00,-2.00,-1.00,-4.00,-22.00,-9.00,+7.00,+3.00
+3.00,-17.00,-6.00,+1.00,+4.00,+33.00,+0.00,-7.00,-3.00,-4.00,+1.00,-5.00,+9.00,+3.00,-1.00,-1.00
+0.00,+15.00,+0.00,+3.00,-5.00,-6.00,-1.00,+4.00,+4.00,-4.00,-3.00,-1.00,+20.00,-5.00,-4.00,-14.00
-2.00,-1.00,-1.00,-1.00,+0.00,-8.00,+2.00,-4.00,-7.00,+7.00,-6.00,-1.00,-22.00,-3.00,-3.00,+12.00
+1.00,-35.00,-5.00,-4.00,-7.00,+3.00,-4.00,+0.00,-52.00,+4.00,+4.00,+2.00,-2.00,+7.00,+6.00,+3.00
-5.00,+17.00,-2.00,-1.00,-1.00,-2.00,-4.00,-1.00,-35.00,-13.00,+0.00,+0.00,+11.00,-6.00,+0.00,-1.00
-1.00,+10.00,-5.00,-2.00,+0.00,+17.00,+1.00,-4.00,+17.00,+12.00,+1.00,-3.00,-1.00,-5.00,+0.00,-1.00
-4.00,-38.00,-4.00,-3.00,+0.00,+18.00,+7.00,+2.00,+71.00,+2.00,+2.00,+0.00,-5.00,+2.00,+3.00,+2.00
-2.00,+58.00,+7.00,+1.00,+0.00,-12.00,-11.00,+2.00,+57.00,-20.00,-18.00,-7.00,-9.00,+2.00,-5.00,-17.00
+0.00,-41.00,-3.00,-3.00,-4.00,-10.00,-6.00,-1.00,+54.00,+14.00,+3.00,+1.00,+4.00,+0.00,+6.00,+12.00
-5.00,-2.00,+0.00,+1.00,-1.00,-15.00,-4.00,+2.00,-40.00,+10.00,+2.00,-1.00,+9.00,+3.00,+4.00,+16.00
-5.00,-18.00,-4.00,-2.00,+2.00,+12.00,-3.00,+1.00,-118.00,+0.00,-1.00,-1.00,-15.00,+4.00,-2.00,-2.00
+0.00,-19.00,-5.00,-4.00,-1.00,-8.00,-10.00,-3.00,-52.00,-7.00,+5.00,+2.00,-1.00,-4.00,-9.00,-6.00
-2.00,-6.00,-5.00,-4.00,-3.00,-15.00,-10.00,-3.00,-16.00,-11.00,-6.00,+0.00,+7.00,+2.00,+22.00,-13.00
+1.00,-3.00,+1.00,-2.00,+0.00,-5.00,+3.00,-1.00,+22.00,-4.00,-1.00,-2.00,+0.00,-7.00,+3.00,+13.00
+1.00,+21.00,+1.00,-1.00,-4.00,+8.00,-11.00,-7.00,+32.00,+0.00,+3.00,+0.00,-7.00,-28.00,-20.00,-21.00
-6.00,-39.00,-3.00,-8.00,-4.00,-18.00,+14.00,-1.00,+25.00,+4.00,-1.00,+1.00,+6.00,+15.00,+9.00,+1.00
-1.00,+12.00,+1.00,+5.00,+4.00,+19.00,-7.00,+0.00,+6.00,-11.00,-2.00,-1.00,-7.00,-8.00,-11.00,-4.00
+2.00,-2.00,-1.00,+0.00,+0.00,-1.00,-2.00,-1.00,+19.00,+11.00,-1.00,-4.00,-4.00,+1.00,-1.00,+4.00
+0.00,+13.00,+0.00,-2.00,-8.00,-10.00,-3.00,-5.00,+15.00,+0.00,+3.00,+0.00,-11.00,-2.00,+11.00,+5.00
+1.00,-3.00,+0.00,+3.00,+9.00,+31.00,-14.00,-2.00,-3.00,+8.00,+16.00,-1.00,+7.00,-5.00,-6.00,+4.00
+2.00,-4.00,-3.00,-2.00,-1.00,-16.00,+4.00,-3.00,+13.00,-22.00,-33.00,-10.00,+1.00,-3.00,-7.00,+0.00
-2.00,+5.00,-2.00,-4.00,-8.00,-17.00,-7.00,-3.00,-1.00,-9.00,-3.00,-3.00,-3.00,-5.00,+0.00,-11.00
+2.00,-10.00,-1.00,-1.00,+0.00,+3.00,+9.00,+5.00,-44.00,-23.00,-10.00,-3.00,-1.00,+2.00,-10.00,-3.00
-4.00,+16.00,+1.00,+2.00,-3.00,-3.00,-6.00,-2.00,+42.00,+30.00,+8.00,+1.00,-2.00,+3.00,+4.00,+0.00
-4.00,+15.00,+0.00,+0.00,+1.00,+0.00,+1.00,+2.00,-21.00,-2.00,+8.00,+1.00,+10.00,+3.00,-2.00,+1.00
-4.00,-20.00,-2.00,+1.00,-1.00,+12.00,-4.00,+2.00,-9.00,-1.00,-6.00,-4.00,-6.00,-3.00,-3.00,-7.00
+0.00,+23.00,+10.00,-4.00,-2.00,-7.00,+6.00,+1.00,-26.00,-3.00,-2.00,-3.00,-22.00,+5.00,+0.00,-4.00
+2.00,-31.00,-6.00,-6.00,-7.00,-22.00,-6.00,-1.00,-38.00,-16.00,-7.00,-2.00,-6.00,-3.00,-1.00,-1.00
+2.00,+24.00,+1.00,+8.00,+7.00,+8.00,+1.00,-2.00,-53.00,+9.00,+3.00,+3.00,+2.00,+4.00,-2.00,+1.00
-3.00,-12.00,-4.00,+0.00,-3.00,-10.00,-1.00,-3.00,+9.00,-7.00,-4.00,-2.00,+9.00,+0.00,-7.00,-4.00
-1.00,+7.00,+3.00,+2.00,+5.00,+18.00,+7.00,+2.00,+33.00,+9.00,+6.00,+1.00,-4.00,+7.00,+3.00,+5.00
-4.00,+7.00,-4.00,-4.00,-3.00,-11.00,-6.00,+1.00,+46.00,-8.00,-5.00,-1.00,-1.00,-1.00,+5.00,+6.00
+3.00,-12.00,-1.00,-1.00,-4.00,-8.00,-10.00,-6.00,+39.00,+6.00,+1.00,+0.00,+7.00,-8.00,-10.00,-12.00
+2.00,-23.00,-2.00,-2.00,+1.00,-2.00,-11.00,-6.00,+5.00,-5.00,+1.00,+2.00,-7.00,-2.00,-4.00,-8.00
+1.00,-3.00,-7.00,+2.00,+0.00,-2.00,+17.00,+9.00,+3.00,-3.00,-5.00,-2.00,-2.00,+5.00,+2.00,+1.00
+0.00,+32.00,+4.00,-1.00,+0.00,+15.00,-8.00,-1.00,+24.00,-2.00,-8.00,-3.00,-7.00,-4.00,-2.00,+2.00
-1.00,+2.00,-3.00,+1.00,-3.00,+5.00,+5.00,-1.00,+14.00,-8.00,-2.00,-6.00,+5.00,-4.00,+2.00,+2.00
+2.00,-1.00,+1.00,+2.00,+0.00,+3.00,-5.00,+0.00,-41.00,-2.00,+1.00,-2.00,+2.00,+6.00,+3.00,-2.00
-3.00,-21.00,-19.00,-1.00,+0.00,+4.00,-5.00,-3.00,+14.00,+12.00,+9.00,+2.00,+5.00,-7.00,-1.00,+10.00
+0.00,-20.00,+19.00,-7.00,-4.00,-9.00,+2.00,+2.00,-22.00,-7.00,-4.00,-1.00,+0.00,+1.00,-1.00,-5.00
-2.00,+5.00,+14.00,+3.00,-1.00,-10.00,-6.00,-6.00,-7.00,+3.00,+0.00,+0.00,-4.00,-8.00,-3.00,+2.00
-3.00,+7.00,-2.00,+0.00,+1.00,+3.00,+4.00,+0.00,-7.00,-5.00,+0.00,-4.00,-1.00,-15.00,-21.00,-7.00
+1.00,+14.00,+11.00,+2.00,+1.00,+3.00,-3.00,-4.00,+0.00,-14.00,-7.00,-2.00,+3.00,+14.00,+43.00,-8.00
-3.00,-10.00,-21.00,+1.00,+1.00,-2.00,+0.00,+0.00,-27.00,+12.00,+6.00,+2.00,+8.00,-4.00,+4.00,+8.00
+3.00,-2.00,-7.00,-6.00,-2.00,-6.00,-2.00,+0.00,+1.00,-6.00,+0.00,-3.00,-20.00,-12.00,-8.00,+3.00
+1.00,-14.00,+5.00,-3.00,-2.00,+8.00,+2.00,-1.00,+25.00,+9.00,-1.00,-1.00,-1.00,+22.00,+6.00,-1.00
-1.00,+9.00,-8.00,+4.00,+3.00,+1.00,+2.00,+2.00,-29.00,-1.00,+2.00,+1.00,+8.00,+1.00,-14.00,-3.00
-3.00,+3.00,+0.00,+0.00,-5.00,-10.00,+0.00,-5.00,-23.00,-4.00,-4.00,+1.00,-7.00,+1.00,-1.00,-1.00
-1.00,-16.00,-1.00,-2.00,+3.00,+7.00,-18.00,-1.00,-24.00,-2.00,-7.00,+0.00,+2.00,-10.00,+6.00,+2.00
+0.00,+9.00,-3.00,+4.00,+3.00,+4.00,+3.00,+0.00,-5.00,+20.00,+12.00,+0.00,-2.00,-9.00,-7.00,+1.00
+2.00,+8.00,+2.00,-3.00,-2.00,+1.00,-1.00,+2.00,+6.00,-16.00,-11.00,-2.00,+1.00,+4.00,-6.00,+3.00
-3.00,-1.00,+1.00,-2.00,+2.00,+3.00,+1.00,-2.00,+7.00,-22.00,-3.00,+1.00,-1.00,+3.00,+4.00,-3.00
-6.00,-3.00,-3.00,+0.00,-1.00,-17.00,+4.00,+2.00,+0.00,+5.00,-11.00,-6.00,-1.00,+0.00,-7.00,-3.00
+3.00,+11.00,+4.00,-4.00,-2.00,+4.00,+4.00,+5.00,+20.00,-5.00,-9.00,-4.00,-1.00,+0.00,+0.00,-2.00
-2.00,+3.00,-2.00,-2.00,+2.00,+9.00,-1.00,+0.00,+2.00,+4.00,+4.00,+0.00,+0.00,-1.00,-7.00,-6.00
+2.00,-10.00,-1.00,+0.00,-3.00,+2.00,-3.00,-4.00,+71.00,+25.00,+8.00,+0.00,+0.00,-6.00,+8.00,+23.00
-3.00,-5.00,-10.00,-5.00,-7.00,-13.00,+1.00,-3.00,-7.00,+7.00,+7.00,+2.00,+7.00,+8.00,+3.00,+9.00
-1.00,+3.00,+4.00,+3.00,+2.00,-7.00,-29.00,-6.00,+2.00,-2.00,+2.00,+2.00,+0.00,-2.00,+1.00,+0.00
-2.00,+8.00,+5.00,-1.00,+2.00,+8.00,+48.00,+11.00,-14.00,-2.00,-5.00,-2.00,-5.00,-8.00,-5.00,-3.00
+1.00,+1.00,-6.00,-3.00,+0.00,-3.00,-5.00,-1.00,-16.00,-20.00,-9.00,-1.00,-3.00,+1.00,-6.00,-1.00
-2.00,-10.00,-3.00,+0.00,-1.00,+2.00,+5.00,-5.00,+3.00,+0.00,+5.00,+0.00,+1.00,+2.00,-5.00,+3.00
-5.00,-9.00,-5.00,+0.00,-2.00,-2.00,-2.00,+2.00,-2.00,+0.00,+1.00,+2.00,+2.00,-1.00,+3.00,+5.00
-2.00,+14.00,+4.00,-1.00,-2.00,+5.00,-18.00,-4.00,+16.00,+4.00,+7.00,+1.00,+1.00,-4.00,-8.00,-1.00
-6.00,-27.00,-1.00,-1.00,+3.00,+4.00,+4.00,-3.00,-11.00,-9.00,-10.00,-5.00,-1.00,+4.00,-2.00,-13.00
+2.00,+11.00,+2.00,-4.00,-2.00,-11.00,-10.00,+2.00,+7.00,+5.00,-1.00,-2.00,-3.00,+2.00,+1.00,-3.00
-1.00,-8.00,-1.00,+0.00,+2.00,+12.00,+12.00,-3.00,-13.00,-13.00,-7.00,-1.00,-2.00,-7.00,-1.00,+13.00
-3.00,-2.00,-5.00,-3.00,-5.00,-18.00,-13.00,-5.00,+1.00,-1.00,-9.00,+0.00,+1.00,+0.00,-7.00,+25.00
-3.00,+4.00,+0.00,-2.00,+3.00,+2.00,+4.00,-1.00,-9.00,+12.00,+9.00,-1.00,+8.00,+1.00,+0.00,+26.00
-1.00,-10.00,-21.00,-4.00,+0.00,+2.00,-4.00,-2.00,-7.00,-3.00,+2.00,+1.00,-12.00,-1.00,+3.00,+46.00
-2.00,-5.00,-18.00,-9.00,-4.00,-9.00,+4.00,+2.00,+1.00,-2.00,-8.00,-3.00,-4.00,-1.00,-1.00,+22.00
+1.00,+20.00,+37.00,+2.00,+1.00,+2.00,-2.00,+0.00,+0.00,+7.00,+6.00,+8.00,+3.00,+1.00,+0.00,+4.00
-1.00,-6.00,-26.00,-2.00,-3.00,-9.00,-2.00,-2.00,+6.00,-4.00,-6.00,-10.00,-14.00,-4.00,-3.00,-4.00
-2.00,+3.00,+28.00,+2.00,-1.00,+6.00,+5.00,+1.00,+11.00,-5.00,-1.00,-9.00,+0.00,-3.00,-4.00,-21.00
+2.00,+5.00,-10.00,+0.00,-2.00,-8.00,-1.00,-1.00,+21.00,-7.00,-4.00,-3.00,-2.00,-2.00,+3.00,-28.00
-7.00,-8.00,-14.00,-4.00,-3.00,+0.00,-4.00,-2.00,+18.00,-11.00,-5.00,-1.00,-2.00,-1.00,-2.00,-35.00
+1.00,-15.00,+8.00,+5.00,+4.00,+3.00,+2.00,+2.00,-14.00,+16.00,+4.00,+4.00,+7.00,-3.00,-1.00,-42.00
-2.00,-7.00,-3.00,-2.00,+1.00,+2.00,+2.00,-1.00,+16.00,-3.00,+5.00,+3.00,+5.00,+3.00,+0.00,-32.00
+3.00,-5.00,+3.00,-1.00,-2.00,+2.00,+4.00,+0.00,+2.00,+2.00,+4.00,+0.00,-5.00,-2.00,-1.00,-20.00
+2.00,-1.00,+3.00,-4.00,-3.00,-3.00,-8.00,-5.00,-6.00,-21.00,+1.00,-3.00,+2.00,+0.00,+1.00,-14.00
+1.00,+9.00,+2.00,-5.00,-7.00,-6.00,-18.00,-5.00,+9.00,-4.00,-22.00,-3.00,-2.00,-1.00,+0.00,+2.00
-3.00,+1.00,-6.00,-2.00,-2.00,-2.00,+10.00,+3.00,-17.00,+10.00,+3.00,+0.00,-2.00,-1.00,-5.00,-9.00
+0.00,-1.00,+8.00,+1.00,+10.00,+15.00,+0.00,-1.00,-30.00,+0.00,-1.00,+0.00,+2.00,-1.00,-2.00,-16.00
-1.00,-12.00,-31.00,-8.00,-2.00,-1.00,+0.00,+0.00,-9.00,+8.00,+2.00,-2.00,-2.00,-1.00,+6.00,+13.00
-2.00,+19.00,+18.00,-1.00,-5.00,+5.00,-10.00,-3.00,-30.00,-9.00,-2.00,-2.00,-3.00,+0.00,-5.00,-3.00
-1.00,-13.00,-7.00,+2.00,-3.00,-1.00,-1.00,-7.00,-24.00,-5.00,+0.00,-3.00,-2.00,-2.00,-3.00,-6.00
+1.00,+19.00,+3.00,-3.00,-3.00,-11.00,+2.00,-4.00,-20.00,-5.00,-4.00,+0.00,+3.00,+0.00,+6.00,+1.00
+1.00,-4.00,+0.00,+5.00,+2.00,-3.00,-7.00,-6.00,-18.00,+5.00,-1.00,+1.00,+1.00,+1.00,-4.00,-1.00
-2.00,+0.00,-2.00,-7.00,+3.00,-3.00,+5.00,+0.00,-12.00,-2.00,+5.00,+1.00,-2.00,+1.00,+3.00,+4.00
+2.00,+1.00,+1.00,-1.00,-5.00,+6.00,-1.00,-2.00,+12.00,-2.00,-2.00,+2.00,+3.00,-1.00,+0.00,+0.00
+4.00,-2.00,-4.00,-4.00,+2.00,+0.00,+4.00,-2.00,-1.00,-1.00,+0.00,-2.00,-2.00,-3.00,-5.00,+0.00
+3.00,-8.00,-4.00,-1.00,-30.00,-15.00,-7.00,-1.00,-3.00,+3.00,-4.00,-5.00,-5.00,-1.00,-1.00,+3.00
-1.00,-3.00,-1.00,-4.00,+15.00,+3.00,+8.00,-1.00,+8.00,+1.00,+2.00,+2.00,-1.00,-2.00,-4.00,-3.00
