-1.00,-3.00,-3.00,-2.00,-2.00,-5.00,-2.00,+1.00,+1.00,-10.00,-3.00,+0.00,+3.00,-1.00,+0.00,-1.00
-4.00,-1.00,+7.00,+5.00,-1.00,-15.00,-2.00,+1.00,+8.00,+19.00,+7.00,+1.00,-7.00,+0.00,+0.00,-2.00
-1.00,+1.00,-2.00,-9.00,+2.00,+12.00,-1.00,-1.00,+2.00,+1.00,-2.00,-3.00,+3.00,-1.00,+0.00,+4.00
-2.00,+2.00,-1.00,-2.00,+0.00,-2.00,-1.00,-1.00,+1.00,+0.00,-8.00,-6.00,+17.00,+2.00,-1.00,+0.00
-2.00,+0.00,-4.00,-1.00,-1.00,+0.00,-1.00,-2.00,+0.00,-1.00,+2.00,-3.00,-17.00,-2.00,-1.00,+0.00
+2.00,-10.00,-2.00,+1.00,+0.00,-2.00,-1.00,-2.00,-5.00,-11.00,+1.00,+3.00,-7.00,-2.00,-2.00,-4.00
-2.00,-4.00,+3.00,+2.00,-4.00,-9.00,+0.00,+0.00,-11.00,-1.00,+0.00,+1.00,+3.00,-1.00,+0.00,-4.00
+1.00,+2.00,+1.00,-3.00,-1.00,+1.00,+1.00,+0.00,-5.00,+3.00,+1.00,+1.00,+0.00,-2.00,+0.00,-1.00
-2.00,-1.00,-1.00,-3.00,-2.00,-6.00,-2.00,-1.00,+10.00,-2.00,+0.00,-1.00,+3.00,+1.00,-2.00,+3.00
+1.00,+2.00,-1.00,-3.00,-4.00,+5.00,+1.00,-1.00,+22.00,-13.00,-2.00,+1.00,-2.00,+2.00,+1.00,+6.00
+1.00,-1.00,+2.00,+1.00,+0.00,-51.00,-6.00,+3.00,-6.00,+25.00,-1.00,+0.00,-3.00,+0.00,-3.00,-2.00
-1.00,-4.00,-4.00,+2.00,+7.00,+31.00,+5.00,+1.00,+12.00,-7.00,+2.00,+2.00,-4.00,+2.00,-1.00,-1.00
-7.00,-2.00,+0.00,+2.00,-1.00,+7.00,+0.00,-4.00,-30.00,-8.00,-2.00,-1.00,+6.00,-2.00,-3.00,-8.00
-5.00,+4.00,-1.00,-2.00,+1.00,+3.00,-1.00,+0.00,-38.00,-2.00,+4.00,+0.00,-12.00,+0.00,+0.00,+2.00
-1.00,+0.00,+1.00,-9.00,-6.00,+4.00,+0.00,-2.00,+39.00,-1.00,-2.00,-2.00,-3.00,-3.00,+1.00,+8.00
+1.00,+2.00,+0.00,-3.00,-6.00,-18.00,-6.00,-5.00,+6.00,+12.00,-7.00,-6.00,-4.00,-1.00,-1.00,+4.00
-3.00,-4.00,-1.00,+1.00,-1.00,-15.00,-3.00,+0.00,+12.00,+5.00,+4.00,+1.00,+20.00,+7.00,-1.00,-3.00
+0.00,-2.00,-2.00,-4.00,-3.00,+3.00,-3.00,-1.00,-22.00,-7.00,-2.00,-1.00,+8.00,-1.00,-1.00,-10.00
+2.00,-3.00,+2.00,+7.00,+4.00,+8.00,+1.00,-1.00,-15.00,-10.00,-1.00,+2.00,-11.00,-3.00,-2.00,-6.00
-1.00,+3.00,-2.00,-5.00,+2.00,-1.00,+1.00,+0.00,+1.00,-1.00,+2.00,+3.00,-9.00,+1.00,-1.00,-4.00
-2.00,+4.00,+1.00,-4.00,-2.00,+7.00,+2.00,+0.00,-2.00,+1.00,-3.00,-4.00,-9.00,-3.00,-3.00,+1.00
+1.00,-4.00,-5.00,+0.00,+3.00,+1.00,+1.00,+2.00,+5.00,+4.00,-1.00,-1.00,+8.00,-2.00,+1.00,+0.00
-4.00,-1.00,-4.00,-2.00,-5.00,+3.00,-1.00,-1.00,+3.00,-6.00,-6.00,-1.00,+8.00,+1.00,-2.00,-3.00
+1.00,-4.00,-3.00,-4.00,-6.00,-8.00,-3.00,-5.00,-15.00,-14.00,-2.00,-4.00,-5.00,-5.00,+0.00,-2.00
+2.00,-2.00,-3.00,-2.00,+0.00,+2.00,-3.00,-1.00,+13.00,+21.00,+0.00,-3.00,+7.00,+0.00,-1.00,-2.00
+1.00,+3.00,+1.00,+1.00,+0.00,-6.00,-2.00,+0.00,+2.00,-1.00,-1.00,-3.00,-8.00,-1.00,-2.00,-2.00
-1.00,+2.00,+2.00,+0.00,+3.00,+2.00,+1.00,+0.00,+3.00,+2.00,+1.00,-2.00,-5.00,-1.00,-1.00,-4.00
-4.00,-4.00,+0.00,-2.00,+1.00,+2.00,-1.00,+0.00,-8.00,-3.00,+2.00,+0.00,+12.00,-4.00,-3.00,+0.00
+3.00,-9.00,+1.00,-2.00,-4.00,-8.00,-1.00,+1.00,-21.00,-17.00,-7.00,-2.00,-23.00,-2.00,+0.00,-6.00
-2.00,+4.00,+3.00,+2.00,+1.00,+4.00,+0.00,-5.00,-5.00,+7.00,-3.00,-2.00,+0.00,-4.00,-3.00,-6.00
+0.00,-4.00,-1.00,-2.00,-1.00,+10.00,+1.00,+0.00,-11.00,+5.00,+6.00,+2.00,-4.00,+0.00,+3.00,+12.00
+0.00,-7.00,-1.00,-1.00,-1.00,-2.00,+0.00,+0.00,-34.00,-9.00,-7.00,-7.00,+3.00,+1.00,-4.00,-7.00
-1.00,+35.00,+1.00,-4.00,-3.00,-3.00,-1.00,-1.00,+16.00,-7.00,-1.00,-2.00,+4.00,+2.00,+1.00,+1.00
+2.00,-23.00,-11.00,-5.00,-4.00,-18.00,-5.00,-4.00,+21.00,+3.00,-1.00,+2.00,-16.00,-2.00,+1.00,+4.00
+2.00,+31.00,+3.00,+4.00,+2.00,+16.00,-2.00,+1.00,-10.00,-6.00,-2.00,-1.00,+7.00,-6.00,-2.00,-4.00
-2.00,-76.00,-7.00,-3.00,-4.00,+0.00,-3.00,-7.00,+9.00,-3.00,+5.00,+3.00,-1.00,+13.00,-2.00,-5.00
+1.00,+98.00,+7.00,+7.00,-3.00,-25.00,-3.00,+2.00,-9.00,-31.00,-5.00,-3.00,+13.00,-3.00,-4.00,-3.00
-1.00,+11.00,+4.00,+0.00,+5.00,+29.00,+3.00,+1.00,-17.00,+8.00,-8.00,-6.00,-8.00,-1.00,-2.00,+4.00
+1.00,-4.00,-1.00,-3.00,+0.00,-2.00,+1.00,-1.00,-8.00,+2.00,+13.00,+2.00,+27.00,-1.00,+2.00,+9.00
-3.00,-6.00,+2.00,-2.00,+6.00,-3.00,+1.00,+3.00,+6.00,+11.00,+0.00,-5.00,-20.00,-1.00,+3.00,+1.00
+0.00,-43.00,-3.00,-5.00,-3.00,+10.00,-2.00,-3.00,-21.00,+1.00,+2.00,+10.00,-3.00,-5.00,-2.00,-4.00
-2.00,-2.00,-2.00,-6.00,-5.00,-11.00,-2.00,-2.00,+10.00,-19.00,-5.00,+0.00,-4.00,-3.00,-5.00,-9.00
-2.00,-11.00,-1.00,-2.00,-1.00,-6.00,-2.00,-1.00,-9.00,-8.00,-9.00,-2.00,+4.00,-1.00,-3.00,-9.00
+3.00,+17.00,+0.00,+2.00,-2.00,+7.00,+1.00,+0.00,+11.00,-3.00,-3.00,-7.00,-11.00,-5.00,+0.00,+6.00
-1.00,-33.00,-3.00,-3.00,+1.00,-13.00,+0.00,-2.00,+5.00,-4.00,+6.00,-1.00,-1.00,+2.00,+1.00,+1.00
+0.00,+13.00,+1.00,+1.00,-2.00,+7.00,+3.00,-5.00,+19.00,+20.00,+6.00,+6.00,+1.00,+1.00,+3.00,+12.00
-4.00,-15.00,-3.00,-3.00,+0.00,-11.00,-1.00,-1.00,-11.00,-4.00,-4.00,-5.00,+4.00,-2.00,-5.00,-14.00
-2.00,+20.00,-3.00,-1.00,+1.00,+17.00,+0.00,+2.00,+40.00,-3.00,-5.00,+1.00,-14.00,+1.00,-1.00,+6.00
-1.00,-4.00,+2.00,+0.00,-1.00,+3.00,+1.00,-1.00,-25.00,+12.00,-3.00,-17.00,+11.00,+1.00,+2.00,-5.00
-5.00,-33.00,+6.00,+4.00,+2.00,+0.00,+1.00,+3.00,-39.00,-16.00,-3.00,+7.00,-18.00,-3.00,-3.00,-8.00
-3.00,+12.00,-12.00,-14.00,-4.00,-1.00,-3.00,-1.00,+16.00,-10.00,-3.00,+3.00,-4.00,-5.00,-2.00,-2.00
-1.00,+21.00,-9.00,-5.00,-14.00,-32.00,-10.00,-9.00,+7.00,+12.00,+1.00,+6.00,+18.00,+2.00,+4.00,+8.00
-4.00,-14.00,-4.00,+6.00,+1.00,-3.00,+0.00,+0.00,-40.00,+10.00,-1.00,-6.00,-14.00,-23.00,+28.00,+5.00
-2.00,-45.00,+0.00,+6.00,+7.00,+21.00,+3.00,+3.00,+73.00,+27.00,+6.00,-4.00,+19.00,+29.00,-53.00,-11.00
+0.00,-15.00,+5.00,+5.00,-1.00,+3.00,+9.00,+1.00,-42.00,-2.00,-1.00,+6.00,-31.00,-1.00,-5.00,-15.00
-4.00,+27.00,+7.00,+1.00,+5.00,+4.00,+0.00,+7.00,-45.00,-23.00,-4.00,+3.00,-5.00,-8.00,-7.00,-15.00
-3.00,-23.00,-5.00,-11.00,-6.00,-3.00,-6.00,-4.00,+21.00,-16.00,+0.00,+5.00,-11.00,+5.00,+4.00,+6.00
-1.00,-7.00,-3.00,-5.00,-6.00,-22.00,+0.00,+1.00,+8.00,+15.00,-7.00,-12.00,+10.00,-5.00,+16.00,+17.00
+1.00,+91.00,+8.00,+6.00,-1.00,-1.00,+5.00,+4.00,+40.00,-30.00,-2.00,-3.00,+11.00,+3.00,+0.00,+5.00
+0.00,-1.00,+0.00,-2.00,+0.00,-14.00,-2.00,-2.00,+7.00,+49.00,+7.00,-4.00,+31.00,+4.00,+0.00,-6.00
+1.00,-8.00,-1.00,+3.00,+4.00,+31.00,+1.00,-1.00,-31.00,-16.00,-3.00,-2.00,-8.00,-5.00,-14.00,-12.00
+0.00,+2.00,-4.00,-7.00,-3.00,-5.00,-5.00,-4.00,-105.00,-58.00,-11.00,-3.00,-10.00,-1.00,+5.00,-37.00
-3.00,-25.00,-5.00,-5.00,-3.00,+1.00,-5.00,-4.00,+105.00,+60.00,+11.00,+9.00,+37.00,+9.00,+9.00,+29.00
-1.00,+2.00,+2.00,-1.00,+2.00,+6.00,+2.00,+1.00,-29.00,-13.00,-7.00,-5.00,-39.00,-10.00,-12.00,-13.00
+1.00,+1.00,+3.00,-2.00,-2.00,-4.00,+0.00,+1.00,+5.00,-5.00,-3.00,+2.00,+12.00,+7.00,+17.00,+4.00
-1.00,-1.00,-2.00,+2.00,+1.00,+2.00,+0.00,-1.00,-59.00,+0.00,+0.00,-5.00,+1.00,-3.00,-1.00,-15.00
+2.00,-9.00,-1.00,-5.00,-7.00,-1.00,-7.00,-3.00,+16.00,-19.00,-6.00,-7.00,+0.00,-21.00,+1.00,+9.00
+2.00,+4.00,-6.00,-4.00,-2.00,-14.00,+1.00,-1.00,-25.00,+11.00,+6.00,+3.00,-48.00,-11.00,+16.00,-12.00
-4.00,-37.00,-9.00,-5.00,-3.00,-14.00,-4.00,-7.00,+24.00,-9.00,-7.00,+3.00,+19.00,+21.00,-56.00,-35.00
-1.00,+30.00,+1.00,+2.00,-8.00,-68.00,-11.00,-5.00,+33.00,+2.00,-1.00,-2.00,+35.00,+6.00,+6.00,+35.00
+0.00,-9.00,+0.00,+9.00,+11.00,+76.00,+8.00,+7.00,-26.00,+5.00,-5.00,-9.00,-73.00,-10.00,-10.00,+4.00
-4.00,-11.00,+13.00,+1.00,+7.00,+26.00,+10.00,-5.00,-1.00,+10.00,+4.00,+6.00,+16.00,+11.00,+15.00,+16.00
-1.00,+49.00,-5.00,-7.00,-10.00,-2.00,-29.00,-4.00,-16.00,-38.00,-5.00,+2.00,+1.00,-4.00,-24.00,-29.00
+1.00,+22.00,+3.00,+10.00,+4.00,+24.00,+23.00,-1.00,+5.00,+11.00,+0.00,+1.00,-18.00,-16.00,+8.00,-18.00
-2.00,-8.00,-1.00,-1.00,+2.00,-24.00,-1.00,+1.00,-2.00,-1.00,+9.00,-9.00,+13.00,+14.00,+10.00,+63.00
-2.00,-14.00,+2.00,-1.00,+3.00,+3.00,+6.00,+4.00,+3.00,-25.00,-10.00,-3.00,+34.00,-9.00,-14.00,-10.00
-2.00,+6.00,-3.00,-4.00,+1.00,+9.00,+5.00,+8.00,+2.00,+59.00,+4.00,-4.00,-5.00,+12.00,+22.00,+42.00
+1.00,-48.00,-6.00,-10.00,-7.00,+1.00,-14.00,-8.00,+23.00,+2.00,+7.00,+9.00,-40.00,-10.00,-6.00,+1.00
+0.00,+23.00,+0.00,+0.00,-4.00,-19.00,-5.00,-7.00,-52.00,-19.00,-7.00,+1.00,+5.00,-3.00,-1.00,-20.00
+3.00,+9.00,-2.00,+1.00,+1.00,+11.00,+1.00,+2.00,+40.00,+6.00,+3.00,-1.00,-1.00,-3.00,+5.00,+19.00
-1.00,+5.00,+4.00,+1.00,+2.00,-19.00,-7.00,+2.00,+14.00,+3.00,+0.00,-2.00,+17.00,-11.00,-2.00,-2.00
-2.00,+19.00,-4.00,-10.00,-6.00,-39.00,-1.00,+11.00,+33.00,+7.00,+1.00,-12.00,-15.00,-4.00,+4.00,+33.00
+4.00,-36.00,-3.00,+3.00,+6.00,+31.00,+5.00,-3.00,-37.00,-8.00,-7.00,+6.00,+28.00,+7.00,+24.00,-40.00
-1.00,-2.00,-2.00,-5.00,-6.00,-14.00,-8.00,-1.00,+9.00,-19.00,-2.00,-4.00,+15.00,+22.00,+15.00,+16.00
+3.00,+23.00,+3.00,+2.00,-2.00,-6.00,+10.00,-1.00,-14.00,-5.00,-5.00,+2.00,-21.00,-18.00,+12.00,-10.00
+0.00,-10.00,+0.00,-4.00,-4.00,-15.00,-5.00,+2.00,+30.00,+5.00,+2.00,+11.00,+37.00,+13.00,-4.00,+5.00
-8.00,+3.00,+0.00,-5.00,-3.00,+8.00,-1.00,-4.00,-15.00,-7.00,-2.00,-8.00,+18.00,-15.00,-10.00,-14.00
-2.00,-5.00,-1.00,+1.00,+0.00,-21.00,-10.00,-3.00,-17.00,-12.00,+2.00,+4.00,-69.00,-5.00,-18.00,-9.00
+4.00,-18.00,-2.00,+0.00,+0.00,-30.00,+1.00,-15.00,+47.00,+31.00,+0.00,+1.00,+12.00,-2.00,+17.00,+3.00
-1.00,-4.00,-4.00,-4.00,-2.00,+39.00,+17.00,-5.00,-25.00,-28.00,+0.00,-1.00,+2.00,+14.00,+10.00,+17.00
+4.00,-3.00,-2.00,+3.00,+5.00,-33.00,+1.00,-2.00,+90.00,+52.00,+8.00,+8.00,+57.00,+7.00,-6.00,+7.00
-1.00,-26.00,-2.00,+2.00,-3.00,+5.00,-7.00,-2.00,+24.00,+10.00,+1.00,-7.00,-30.00,+4.00,+9.00,+4.00
-6.00,+23.00,+4.00,-1.00,+1.00,-6.00,+2.00,+1.00,-19.00,-11.00,+0.00,-4.00,-11.00,-9.00,-16.00,-14.00
+1.00,+29.00,+0.00,-5.00,-2.00,+15.00,-6.00,+16.00,+30.00,+1.00,-12.00,-7.00,-13.00,-13.00,-11.00,-18.00
+0.00,-30.00,+0.00,+5.00,+0.00,-14.00,+2.00,-24.00,+28.00,-20.00,-5.00,-3.00,-4.00,+13.00,+6.00,+20.00
-4.00,-41.00,-12.00,-11.00,-6.00,-11.00,-13.00,-6.00,+31.00,+16.00,-3.00,-1.00,+13.00,-15.00,-2.00,+13.00
+0.00,+13.00,-2.00,+3.00,+0.00,-25.00,+10.00,-2.00,-45.00,-19.00,+7.00,+7.00,-15.00,+12.00,-13.00,-11.00
-6.00,-21.00,+0.00,+1.00,+7.00,+66.00,+2.00,+12.00,+11.00,+37.00,+4.00,-6.00,-29.00,-24.00,+31.00,+13.00
+0.00,+3.00,-3.00,-10.00,-4.00,+4.00,-6.00,+16.00,-59.00,-18.00,-17.00,-9.00,-22.00,+12.00,-9.00,-15.00
-2.00,+7.00,+3.00,-2.00,+3.00,-1.00,+1.00,-1.00,+39.00,+19.00,+18.00,+9.00,+15.00,-4.00,+7.00,-19.00
-1.00,-40.00,-3.00,-3.00,-3.00,+18.00,-2.00,-3.00,-32.00,-31.00,+1.00,+3.00,+37.00,+5.00,-13.00,+27.00
-3.00,+10.00,-2.00,-3.00,-8.00,-41.00,+0.00,-12.00,-42.00,+6.00,-2.00,+9.00,-42.00,-7.00,+26.00,-18.00
+0.00,-1.00,-5.00,-5.00,-2.00,+22.00,-51.00,-2.00,-89.00,-22.00,-7.00,-20.00,+49.00,-21.00,-34.00,-54.00
-2.00,-17.00,+4.00,+6.00,+12.00,+37.00,+50.00,+17.00,+66.00,+13.00,-1.00,+10.00,-77.00,-9.00,+46.00,+46.00
-2.00,+4.00,-3.00,-2.00,-3.00,-28.00,-4.00,+1.00,+13.00,+5.00,-4.00,+0.00,+15.00,+4.00,-3.00,-8.00
-5.00,+0.00,+1.00,+3.00,+3.00,+16.00,+1.00,-5.00,+1.00,-31.00,-3.00,-9.00,+4.00,-1.00,-13.00,+10.00
-5.00,-26.00,-6.00,-11.00,-16.00,-12.00,-14.00,-12.00,+71.00,+20.00,-1.00,+0.00,-22.00,-15.00,+31.00,+20.00
+7.00,+82.00,+10.00,+9.00,+11.00,-18.00,-1.00,+24.00,-39.00,-16.00,-7.00,-9.00,+58.00,+14.00,-39.00,+5.00
-1.00,-71.00,-8.00,-11.00,+3.00,+6.00,-10.00,+12.00,+47.00,+15.00,+6.00,+4.00,-31.00,-14.00,-4.00,-5.00
+4.00,+13.00,+8.00,+8.00,+9.00,+8.00,-12.00,+0.00,-11.00,-6.00,-7.00,-1.00,+0.00,+2.00,-17.00,-6.00
-7.00,-20.00,+3.00,+0.00,-1.00,+4.00,+20.00,-3.00,-103.00,-8.00,+0.00,-9.00,-25.00,-4.00,-17.00,-59.00
+0.00,-10.00,-4.00,-7.00,-9.00,-19.00,-12.00,-16.00,+29.00,+36.00,+7.00,+5.00,+54.00,+1.00,+13.00,+51.00
-5.00,+2.00,+1.00,+1.00,-4.00,-1.00,+13.00,+6.00,-30.00,+7.00,-1.00,-11.00,-32.00,+3.00,-3.00,+6.00
+5.00,-22.00,-10.00,-3.00,-2.00,-1.00,-24.00,-2.00,-83.00,-19.00,+2.00,+7.00,+30.00,-4.00,-9.00,-49.00
+1.00,-3.00,+2.00,+2.00,-2.00,-31.00,+0.00,+12.00,-104.00,-22.00,-3.00,-1.00,-57.00,-32.00,+6.00,+4.00
-3.00,-1.00,+2.00,-8.00,-5.00,+4.00,+10.00,+2.00,-39.00,-14.00,-7.00,-5.00,+4.00,+21.00,-30.00,+90.00
-1.00,+19.00,+3.00,+2.00,+4.00,+23.00,-4.00,-1.00,+47.00,+22.00,-2.00,-18.00,+24.00,+6.00,-8.00,+17.00
+1.00,-21.00,+3.00,+5.00,+3.00,+4.00,+4.00,-18.00,+47.00,-4.00,+2.00,+11.00,-59.00,-9.00,+0.00,+32.00
+0.00,-88.00,-17.00,-16.00,-9.00,-30.00,-3.00,-9.00,+25.00,+4.00,+7.00,+8.00,+15.00,+16.00,+2.00,-26.00
+6.00,+89.00,+27.00,+19.00,+9.00,-12.00,-9.00,+8.00,-30.00,-22.00,-15.00,-6.00,+37.00,-12.00,-20.00,-110.00
+1.00,-23.00,-1.00,-2.00,+2.00,+29.00,-1.00,-6.00,+14.00,+11.00,+4.00,+10.00,-9.00,-4.00,+28.00,-14.00
+1.00,+6.00,-2.00,+1.00,+4.00,+0.00,+7.00,+3.00,+47.00,-11.00,-1.00,-12.00,-3.00,-56.00,-33.00,-43.00
+0.00,+19.00,-5.00,-15.00,-11.00,+10.00,+2.00,+0.00,+73.00,+13.00,-3.00,+7.00,-23.00,+6.00,+6.00,+12.00
+1.00,-62.00,-9.00,+2.00,+4.00,-42.00,-35.00,-14.00,-53.00,-10.00,+1.00,-13.00,+21.00,+5.00,-10.00,-68.00
-2.00,+5.00,+2.00,+2.00,+1.00,+23.00,+17.00,+3.00,-5.00,-10.00,-5.00,+4.00,-11.00,-10.00,+3.00,+3.00
-1.00,+44.00,+2.00,-1.00,-3.00,+0.00,+2.00,-2.00,-33.00,-9.00,-1.00,-14.00,+9.00,+3.00,+18.00,+28.00
+0.00,-31.00,-3.00,+6.00,+11.00,+15.00,+12.00,-7.00,-17.00,+4.00,-4.00,+13.00,+22.00,-17.00,-28.00,-30.00
-3.00,-18.00,-8.00,-13.00,-11.00,-24.00,-18.00,-14.00,-3.00,-37.00,-5.00,-11.00,+26.00,-1.00,+34.00,-15.00
-1.00,-10.00,+5.00,+1.00,+5.00,+5.00,+5.00,+8.00,-76.00,+7.00,+3.00,+1.00,-43.00,-2.00,-17.00,-41.00
-4.00,+4.00,-10.00,-5.00,-5.00,-16.00,-8.00,-47.00,+91.00,+40.00,+16.00,+8.00,+23.00,+23.00,+36.00,+84.00
+6.00,+59.00,+14.00,+5.00,+1.00,-26.00,-15.00,+19.00,+21.00,-7.00,-5.00,-7.00,-13.00,+6.00,-11.00,-21.00
-2.00,-61.00,-10.00,-2.00,-6.00,+20.00,+25.00,-16.00,-28.00,-10.00,+1.00,-2.00,-14.00,+4.00,-17.00,+12.00
-6.00,+41.00,-1.00,-5.00,-8.00,-54.00,-2.00,+16.00,-19.00,-13.00,+0.00,+10.00,-18.00,-12.00,+2.00,-10.00
-4.00,+10.00,+5.00,+1.00,+3.00,+41.00,+5.00,+21.00,-5.00,+9.00,-3.00,-12.00,+98.00,+29.00,-18.00,-7.00
+1.00,+1.00,-4.00,-1.00,+7.00,+27.00,+8.00,+5.00,-4.00,-11.00,+0.00,+13.00,-76.00,+19.00,+12.00,+15.00
-4.00,+15.00,-2.00,-4.00,-1.00,+7.00,-4.00,-23.00,-16.00,+39.00,+6.00,+0.00,-10.00,-9.00,+5.00,-24.00
+1.00,-17.00,-6.00,+0.00,-3.00,+5.00,-8.00,-11.00,-14.00,-13.00,-8.00,-4.00,+18.00,-11.00,-5.00,-10.00
+2.00,-34.00,-5.00,-4.00,-9.00,+28.00,+4.00,-6.00,+9.00,+10.00,+0.00,-6.00,+5.00,+7.00,-12.00,-1.00
-4.00,+26.00,+3.00,+5.00,+6.00,-5.00,+6.00,-9.00,-14.00,-35.00,-10.00,-11.00,+17.00,+2.00,-17.00,-37.00
-2.00,-66.00,-13.00,-13.00,-6.00,+19.00,-3.00,+39.00,+31.00,+31.00,+8.00,+5.00,+0.00,-13.00,+11.00,+3.00
+0.00,-1.00,+5.00,+3.00,-4.00,-5.00,-30.00,-25.00,+8.00,+7.00,-4.00,-12.00,-13.00,+10.00,+39.00,+29.00
+1.00,+67.00,+9.00,+4.00,+3.00,-32.00,+45.00,+21.00,+1.00,-10.00,-5.00,+16.00,-18.00,-2.00,-10.00,-22.00
-1.00,-57.00,-7.00,+2.00,-1.00,+23.00,+6.00,-3.00,-6.00,-6.00,+1.00,-2.00,-6.00,-1.00,-8.00,+1.00
+0.00,+43.00,+2.00,-6.00,-11.00,-31.00,-4.00,-5.00,-17.00,-21.00,-8.00,-1.00,-12.00,-2.00,+7.00,+9.00
+1.00,-24.00,+0.00,+1.00,+5.00,+63.00,+12.00,+8.00,+48.00,+10.00,-2.00,-11.00,+16.00,-2.00,-13.00,+8.00
-2.00,+20.00,+3.00,-2.00,+1.00,-2.00,-17.00,-12.00,-8.00,-21.00,-9.00,+4.00,+28.00,-2.00,+1.00,+0.00
-2.00,+0.00,-6.00,-4.00,-5.00,-19.00,-11.00,-6.00,+57.00,+34.00,+5.00,-1.00,-49.00,+8.00,+17.00,+22.00
-3.00,-22.00,-3.00,-5.00,-5.00,+6.00,+4.00,+6.00,+8.00,-18.00,-4.00,-5.00,+2.00,-7.00,-24.00,-36.00
+1.00,+25.00,+8.00,+5.00,-1.00,-29.00,-16.00,-2.00,+29.00,-9.00,+5.00,-3.00,+11.00,+4.00,+3.00,+39.00
-2.00,-37.00,-10.00,+2.00,+11.00,+8.00,+14.00,+60.00,-11.00,+13.00,+2.00,-2.00,-39.00,+6.00,+3.00,-5.00
+0.00,+17.00,+2.00,+0.00,-9.00,-22.00,+12.00,+16.00,+17.00,-6.00,-5.00,+9.00,+53.00,+11.00,-22.00,+29.00
-1.00,+7.00,+1.00,+6.00,+12.00,+85.00,+4.00,-8.00,+34.00,-39.00,-4.00,-2.00,+5.00,+1.00,+0.00,+4.00
+2.00,-2.00,-4.00,-1.00,-2.00,-2.00,+4.00,-25.00,+43.00,+65.00,+6.00,+1.00,-35.00,-9.00,-3.00,-11.00
-2.00,-46.00,-9.00,-12.00,-19.00,-53.00,-41.00,-19.00,-75.00,-13.00,+1.00,+3.00,+23.00,+7.00,+1.00,-34.00
+5.00,-24.00,+5.00,+15.00,+26.00,+54.00,+52.00,+21.00,-22.00,+1.00,+7.00,-3.00,+7.00,-3.00,+10.00,+54.00
-6.00,+4.00,+6.00,-5.00,-7.00,-55.00,-7.00,-10.00,+16.00,+7.00,+1.00,+3.00,-18.00,-3.00,-22.00,-3.00
+0.00,-7.00,-3.00,-4.00,+3.00,+25.00,+6.00,+5.00,-30.00,-53.00,-13.00,+0.00,+75.00,+6.00,-6.00,-27.00
-5.00,-6.00,-1.00,-4.00,-2.00,+13.00,+3.00,-7.00,-43.00,+24.00,+5.00,+0.00,-76.00,+14.00,+11.00,+41.00
-2.00,+39.00,+0.00,-10.00,-8.00,-34.00,-25.00,-20.00,+61.00,+21.00,+3.00,-11.00,+18.00,-15.00,+4.00,-4.00
+1.00,-11.00,-2.00,+0.00,-3.00,-16.00,+0.00,-3.00,-31.00,+16.00,+0.00,+9.00,-33.00,+0.00,-33.00,+9.00
-1.00,-10.00,-4.00,-1.00,+5.00,-12.00,+12.00,-5.00,-44.00,-31.00,-5.00,-3.00,+10.00,+22.00,+6.00,-9.00
-6.00,-26.00,-3.00,+1.00,-6.00,-9.00,-15.00,-7.00,+50.00,+9.00,-1.00,+4.00,-10.00,-9.00,-11.00,-27.00
-4.00,+58.00,+7.00,-3.00,-6.00,-9.00,-5.00,+26.00,-28.00,-4.00,+4.00,-9.00,+14.00,+5.00,+4.00,+29.00
-1.00,+22.00,-2.00,+0.00,+1.00,+12.00,+3.00,+3.00,+2.00,+3.00,-2.00,+6.00,-23.00,-18.00,+4.00,-23.00
-5.00,-54.00,-11.00,-7.00,-8.00,-25.00,-6.00,+2.00,+32.00,+15.00,+4.00,-1.00,-4.00,-7.00,-2.00,+51.00
+4.00,+15.00,-2.00,+1.00,-8.00,-12.00,-5.00,-7.00,-41.00,-26.00,-9.00,-9.00,-15.00,-11.00,-18.00,-44.00
-6.00,+18.00,+3.00,-1.00,+0.00,-30.00,-6.00,-5.00,-10.00,-18.00,-7.00,-6.00,+49.00,+3.00,+13.00,-13.00
-2.00,-39.00,-4.00,-3.00,+1.00,+56.00,+7.00,+1.00,+4.00,+49.00,-5.00,+0.00,+2.00,-6.00,+6.00,+1.00
+2.00,+27.00,+8.00,-1.00,-3.00,-40.00,-16.00,+1.00,-17.00,-1.00,-4.00,-8.00,-15.00,+0.00,-7.00,-18.00
-1.00,+15.00,+8.00,+14.00,+15.00,+17.00,+23.00,+15.00,+55.00,+9.00,+3.00,+15.00,+60.00,-3.00,+8.00,+24.00
-2.00,-22.00,-9.00,-6.00,-10.00,+9.00,-20.00,-23.00,-1.00,-22.00,+2.00,+2.00,-71.00,-2.00,-2.00,-1.00
+4.00,+17.00,+1.00,-2.00,-4.00,-21.00,+7.00,+1.00,-9.00,-1.00,+2.00,-1.00,+4.00,+1.00,+3.00,+3.00
+0.00,+1.00,-1.00,-1.00,+2.00,+20.00,+5.00,+9.00,+3.00,-5.00,+2.00,+2.00,-10.00,-1.00,-6.00,-2.00
-2.00,-2.00,+2.00,-1.00,-4.00,-14.00,-5.00,-7.00,-12.00,-9.00,-11.00,-7.00,+3.00,-4.00,+0.00,-9.00
+0.00,-1.00,+0.00,-5.00,+0.00,-19.00,-5.00,-5.00,-73.00,-18.00,-9.00,-8.00,-3.00,-7.00,-19.00,-47.00
-4.00,+10.00,-1.00,+0.00,+2.00,+12.00,-3.00,-16.00,+20.00,+1.00,-1.00,-2.00,-2.00,+1.00,+5.00,+26.00
+1.00,-24.00,-4.00,-10.00,-12.00,-20.00,-4.00,+3.00,+23.00,+0.00,+6.00,-3.00,-22.00,-1.00,+18.00,+38.00
-3.00,+17.00,+3.00,+1.00,+11.00,+37.00,-9.00,+2.00,-15.00,-1.00,+3.00,-9.00,-10.00,-3.00,-7.00,-15.00
-4.00,-32.00,-5.00,-4.00,+0.00,+5.00,+8.00,-17.00,+7.00,+3.00,-4.00,+11.00,-5.00,-9.00,-4.00,-4.00
+0.00,-14.00,+2.00,+2.00,+2.00,+24.00,-3.00,-3.00,-53.00,-11.00,-9.00,-5.00,-3.00,-5.00,-11.00,-47.00
+1.00,+43.00,+0.00,-4.00,-4.00,-41.00,+2.00,+5.00,+43.00,-40.00,+5.00,+9.00,+8.00,-2.00,-2.00,+0.00
+2.00,-10.00,+4.00,-4.00,-1.00,+5.00,+0.00,-4.00,+1.00,+52.00,+4.00,-1.00,+97.00,+9.00,-3.00,+2.00
+1.00,-6.00,-1.00,-3.00,-4.00,-24.00,-2.00,+16.00,+5.00,+12.00,+9.00,-3.00,-101.00,+4.00,+7.00,+24.00
+1.00,+6.00,-7.00,-4.00,-1.00,+8.00,+0.00,+0.00,-57.00,-30.00,-5.00,+1.00,+2.00,-7.00,+1.00,-17.00
+4.00,-21.00,+3.00,+4.00,+5.00,+14.00,+0.00,-10.00,+39.00,-19.00,-9.00,+4.00,+38.00,+4.00,-2.00,+28.00
-1.00,+5.00,-9.00,-9.00,-5.00,-18.00,-13.00,-7.00,+35.00,+22.00,+1.00,-6.00,-16.00,-5.00,-2.00,-5.00
+2.00,-27.00,-8.00,-7.00,-14.00,-19.00,-2.00,+0.00,+4.00,-8.00,-4.00,-17.00,-42.00,-13.00,-10.00,-14.00
-2.00,+78.00,+10.00,+4.00,+1.00,-19.00,+0.00,+8.00,+2.00,-1.00,+5.00,+4.00,-2.00,-8.00,+9.00,+35.00
-6.00,-37.00,-9.00,-4.00,-4.00,+23.00,+1.00,-7.00,-42.00,+25.00,+2.00,+9.00,-4.00,+16.00,+7.00,-40.00
+7.00,+30.00,-1.00,+1.00,+0.00,-11.00,+4.00,-3.00,+10.00,-56.00,-18.00,+0.00,-25.00,+1.00,-10.00,-12.00
-6.00,-26.00,+3.00,+2.00,+5.00,+39.00,+4.00,+0.00,-37.00,+22.00,+9.00,+1.00,+65.00,+9.00,+7.00,+29.00
+2.00,-26.00,-2.00,-2.00,-1.00,-18.00,-8.00,-8.00,-34.00,+1.00,-11.00,-14.00,-13.00,-2.00,+9.00,+6.00
-2.00,+55.00,+3.00,+2.00,+4.00,+18.00,+3.00,+9.00,-13.00,+26.00,+14.00,+8.00,-12.00,-6.00,-8.00,-1.00
+1.00,-73.00,-13.00,-8.00,-9.00,-6.00,-6.00,-3.00,+1.00,-37.00,-16.00,-17.00,-14.00,-9.00,-9.00,-25.00
-1.00,+98.00,+16.00,+2.00,-4.00,-19.00,-9.00,+6.00,+54.00,+37.00,+32.00,+24.00,+30.00,+11.00,+13.00,+11.00
-1.00,-41.00,-6.00,-2.00,-1.00,-4.00,+0.00,-4.00,-14.00,-20.00,-4.00,-1.00,+3.00,+2.00,-8.00,-10.00
+0.00,-2.00,+3.00,+5.00,+6.00,+22.00,+11.00,+2.00,+51.00,+15.00,+2.00,-1.00,+2.00,-1.00,+7.00,+35.00
-4.00,-26.00,-3.00,-8.00,-8.00,-42.00,-8.00,-7.00,-42.00,-14.00,-11.00,-6.00,-19.00,-1.00,-7.00,-29.00
+3.00,-29.00,-12.00,+0.00,-1.00,+34.00,-2.00,-13.00,-54.00,-43.00,-6.00,-3.00,+12.00,-4.00,+4.00,+18.00
-5.00,+16.00,+2.00,-8.00,-7.00,-20.00,-7.00,+6.00,+77.00,+57.00,+14.00,+7.00,+19.00,+8.00,+4.00,+4.00
-1.00,-30.00,+6.00,+6.00,+11.00,+22.00,+8.00,+2.00,-31.00,+35.00,-4.00,-4.00,-27.00,-2.00,-12.00,-29.00
+2.00,+93.00,+18.00,+0.00,-7.00,-60.00,-7.00,-6.00,-21.00,-97.00,-5.00,-11.00,-27.00,-14.00,-5.00,-22.00
-5.00,+21.00,+4.00,+9.00,+18.00,+27.00,+9.00,+6.00,-32.00,+62.00,-4.00,+2.00,+18.00,+2.00,+5.00,+9.00
-1.00,+3.00,-12.00,-5.00,+3.00,+55.00,+1.00,-3.00,+1.00,-10.00,+3.00,-20.00,+6.00,+13.00,+5.00,+21.00
+0.00,-37.00,-8.00,+1.00,-3.00,-6.00,-2.00,-9.00,-17.00,-33.00,-7.00,+10.00,+21.00,-1.00,+0.00,-9.00
+0.00,-30.00,-4.00,-1.00,+3.00,+28.00,+1.00,-1.00,-48.00,+37.00,-15.00,-6.00,-14.00,-11.00,-33.00,-94.00
-1.00,-2.00,+6.00,-8.00,-15.00,-115.00,-6.00,-6.00,-59.00,-39.00,+18.00,+11.00,+31.00,+3.00,+30.00,+44.00
-7.00,-30.00,+6.00,+12.00,+4.00,+26.00,+16.00,+0.00,+48.00,+1.00,-3.00,+16.00,-4.00,+22.00,+4.00,-9.00
-1.00,+6.00,-9.00,-6.00,+1.00,+29.00,-4.00,+0.00,-116.00,-16.00,+12.00,+6.00,-3.00,-12.00,-6.00,-29.00
+0.00,-96.00,-17.00,-9.00,-5.00,+2.00,-5.00,-3.00,+22.00,-9.00,+7.00,+2.00,+11.00,+3.00,+12.00,+35.00
-1.00,+104.00,+15.00,+3.00,+6.00,+14.00,+2.00,-3.00,+8.00,+11.00,-15.00,-6.00,+20.00,-5.00,-19.00,-41.00
+7.00,-67.00,-5.00,-9.00,-11.00,-32.00,-4.00,+7.00,+8.00,-3.00,-4.00,-6.00,-14.00,-10.00,-6.00,-15.00
-4.00,+48.00,+7.00,-4.00,-2.00,-14.00,+2.00,+2.00,-108.00,-67.00,-38.00,-30.00,-13.00,-17.00,-26.00,-70.00
+3.00,+37.00,-4.00,-4.00,-3.00,+3.00,-7.00,+4.00,+69.00,+66.00,+38.00,+24.00,-8.00,+20.00,+31.00,+90.00
-3.00,+56.00,+5.00,+6.00,+4.00,+18.00,+7.00,+11.00,-7.00,+51.00,+1.00,-5.00,-5.00,-5.00,-7.00,-14.00
+5.00,+13.00,-4.00,-6.00,-4.00,-20.00,-11.00,+0.00,-43.00,-84.00,+6.00,+3.00,+8.00,+0.00,+8.00,+23.00
+3.00,+19.00,+1.00,+5.00,+5.00,+8.00,+2.00,-3.00,+5.00,+18.00,-3.00,-7.00,-16.00,-3.00,-14.00,-27.00
-4.00,-35.00,-14.00,-10.00,-8.00,-11.00,-10.00,+2.00,-12.00,+26.00,-14.00,-21.00,-19.00,-11.00,-2.00,-12.00
+3.00,-17.00,-4.00,-2.00,+0.00,+30.00,+5.00,+6.00,+31.00,-17.00,-14.00,+8.00,-5.00,-7.00,-8.00,-17.00
+2.00,-2.00,+5.00,+2.00,+4.00,+0.00,+1.00,+2.00,-78.00,-42.00,-9.00,-4.00,+12.00,-5.00,-12.00,-32.00
-2.00,-80.00,-10.00,-6.00,-11.00,-36.00,-9.00,-3.00,+76.00,+4.00,-4.00,+5.00,+21.00,-1.00,+7.00,+17.00
-2.00,+95.00,+8.00,+6.00,+1.00,+13.00,+8.00,+5.00,-22.00,+36.00,+27.00,+6.00,+3.00,+18.00,+33.00,+85.00
+4.00,-128.00,-11.00,-7.00,-3.00,-5.00,-5.00,-7.00,-46.00,-17.00,-2.00,-8.00,-2.00,+9.00,-6.00,-17.00
-5.00,+59.00,-4.00,-8.00,-7.00,-31.00,-7.00,-5.00,+12.00,+14.00,+0.00,+6.00,-15.00,-9.00,+1.00,+4.00
+0.00,-20.00,+7.00,+8.00,-5.00,+4.00,+5.00,-5.00,-47.00,+34.00,-20.00,-9.00,-1.00,-5.00,-15.00,-53.00
+2.00,-31.00,-9.00,-3.00,-7.00,-17.00,-13.00,+6.00,+85.00,-47.00,+11.00,+14.00,+48.00,+2.00,-1.00,+3.00
-10.00,+82.00,+11.00,+6.00,+12.00,+70.00,+19.00,-7.00,-62.00,-102.00,-36.00,-20.00,-26.00,-13.00,-17.00,-34.00
+0.00,-34.00,-7.00,-1.00,+6.00,+0.00,-19.00,-9.00,-8.00,-30.00,+29.00,+8.00,+4.00,+10.00,+10.00,+17.00
-5.00,+53.00,+9.00,+4.00,+2.00,+2.00,+2.00,-10.00,+92.00,+73.00,+6.00,+0.00,-7.00,-1.00,+8.00,+39.00
-1.00,-31.00,-6.00,-1.00,-1.00,-28.00,-4.00,-12.00,-3.00,-79.00,+1.00,+3.00,-5.00,-5.00,-11.00,-25.00
-2.00,-45.00,-17.00,-10.00,-5.00,-7.00,-16.00,-7.00,-16.00,-6.00,-11.00,-1.00,-14.00,-15.00,-27.00,-79.00
-3.00,+12.00,-6.00,-8.00,-7.00,-18.00,-1.00,-3.00,-6.00,-50.00,-24.00,-11.00,-12.00,+3.00,+1.00,+37.00
+0.00,-38.00,-9.00,-11.00,-15.00,-15.00,-14.00,+3.00,+4.00,+22.00,-2.00,-10.00,+58.00,-1.00,-4.00,-20.00
+1.00,+86.00,+23.00,+23.00,+14.00,+35.00,+18.00,+2.00,+37.00,+24.00,+0.00,-6.00,-110.00,-9.00,+7.00,+21.00
-2.00,-14.00,-6.00,-3.00,-2.00,-18.00,+0.00,-7.00,+93.00,+63.00,+16.00,+11.00,+58.00,+7.00,+2.00,-1.00
-7.00,+39.00,+17.00,+6.00,+5.00,+12.00,+13.00,+12.00,-88.00,-33.00,-11.00,+2.00,+26.00,-5.00,-7.00,-16.00
+0.00,-58.00,-14.00,-10.00,-7.00,-18.00,-14.00,+0.00,+68.00,+16.00,-11.00,-11.00,-9.00,-1.00,+0.00,+20.00
+2.00,-58.00,-8.00,-7.00,+1.00,+9.00,+0.00,-5.00,+32.00,+67.00,+12.00,+10.00,+30.00,+2.00,+23.00,+68.00
+7.00,-4.00,-6.00,+1.00,+0.00,-12.00,-4.00,+1.00,-26.00,-18.00,+17.00,-7.00,-32.00,+19.00,+13.00,+23.00
-4.00,+17.00,+6.00,+0.00,-5.00,+17.00,-2.00,-2.00,+127.00,+54.00,-5.00,+5.00,+89.00,+29.00,+9.00,+24.00
+6.00,+7.00,-8.00,+3.00,+4.00,+12.00,+1.00,+1.00,+32.00,+46.00,-7.00,+16.00,-16.00,-22.00,-10.00,-13.00
-12.00,-6.00,+14.00,+0.00,+8.00,+11.00,+11.00,+1.00,-30.00,-73.00,-9.00,+4.00,-2.00,-8.00,-16.00,-28.00
-1.00,-40.00,-8.00,-7.00,-9.00,-64.00,-12.00,-1.00,+81.00,-42.00,-2.00,-1.00,-9.00,-4.00,-3.00,-10.00
+2.00,-75.00,-6.00,+5.00,+13.00,+23.00,+9.00,-4.00,-67.00,-49.00,+10.00,-1.00,+1.00,-2.00,+13.00,+34.00
-3.00,-74.00,-18.00,-12.00,-12.00,-10.00,-11.00,-7.00,+48.00,-50.00,+19.00,-3.00,-21.00,+11.00,+8.00,+29.00
-3.00,+60.00,+29.00,+10.00,+8.00,+21.00,+12.00,+7.00,-63.00,+27.00,-6.00,+4.00,+23.00,+0.00,-6.00,-8.00
+0.00,-48.00,-14.00,-17.00,-7.00,-4.00,-13.00,-14.00,-18.00,+26.00,+1.00,-2.00,+0.00,-9.00,-1.00,+19.00
-7.00,-24.00,+24.00,+7.00,+6.00,-31.00,+7.00,+9.00,-52.00,-14.00,-55.00,-29.00,-40.00,-17.00,-29.00,-59.00
-6.00,-96.00,-14.00,-6.00,-2.00,+22.00,+4.00,-4.00,+45.00,+50.00,+49.00,+20.00,+37.00,+20.00,+44.00,+99.00
+4.00,+66.00,+27.00,+9.00,+7.00,+11.00,+1.00,+4.00,-118.00,-13.00,-15.00,-15.00,-25.00,-10.00,-16.00,-50.00
-2.00,-48.00,-13.00,-9.00,-9.00,+25.00,-5.00,+13.00,+15.00,+90.00,+15.00,+7.00,+31.00,+8.00,+12.00,+44.00
+2.00,-72.00,-22.00,-8.00,-10.00,-43.00,-9.00,+0.00,+20.00,+59.00,-15.00,+3.00,-24.00,-15.00,-31.00,-89.00
-1.00,+44.00,+5.00,-9.00,-1.00,+14.00,+0.00,+13.00,-93.00,-90.00,-15.00,-7.00,-29.00,-2.00,-7.00,-11.00
+2.00,+44.00,+7.00,+11.00,+5.00,-2.00,+8.00,+8.00,+56.00,+87.00,+12.00,+4.00,+63.00,+12.00,+13.00,+40.00
-2.00,-52.00,-2.00,+6.00,+6.00,+24.00,-1.00,-5.00,+6.00,-94.00,-30.00,-22.00,-35.00,-21.00,-18.00,-24.00
+7.00,-54.00,+0.00,+1.00,+1.00,+8.00,-2.00,+2.00,+77.00,+70.00,+29.00,+16.00,-23.00,+9.00,+3.00,-13.00
-2.00,+26.00,+1.00,+0.00,-5.00,-16.00,-6.00,+13.00,-94.00,-87.00,-35.00,-25.00,-7.00,-17.00,-32.00,-92.00
-3.00,-28.00,-14.00,-5.00,+1.00,+2.00,+10.00,-2.00,+1.00,-42.00,+32.00,+13.00,+15.00,+17.00,+22.00,+51.00
+1.00,+22.00,+22.00,+5.00,-3.00,+15.00,+5.00,-9.00,-37.00,+29.00,-10.00,+5.00,-45.00,-9.00,-5.00,-7.00
+5.00,+6.00,-3.00,-3.00,-8.00,-94.00,-11.00,-22.00,+89.00,+80.00,-10.00,-11.00,+15.00,-16.00,-6.00,-4.00
-6.00,-122.00,-34.00,-9.00,+9.00,+52.00,+5.00,-19.00,+20.00,+41.00,+30.00,+9.00,-8.00,+10.00,+13.00,+31.00
+5.00,+62.00,-11.00,+0.00,-2.00,-21.00,-8.00,-25.00,-103.00,-68.00,-26.00,-13.00,-80.00,-9.00,-14.00,-74.00
+0.00,+74.00,+19.00,+6.00,+10.00,+14.00,+8.00,-3.00,+127.00,+91.00,-12.00,-6.00,+13.00,-3.00,-5.00,+12.00
-6.00,+38.00,+16.00,+1.00,-5.00,+4.00,+9.00,+50.00,-83.00,+49.00,+34.00,+16.00,+8.00,+9.00,+22.00,+31.00
+8.00,+69.00,+28.00,+42.00,+10.00,-19.00,+16.00,+11.00,-68.00,-11.00,-20.00,-11.00,+25.00,-8.00,-21.00,-58.00
-7.00,-128.00,-27.00,+10.00,-9.00,-11.00,-8.00,+1.00,-57.00,-43.00,-31.00,-15.00,+6.00,-14.00,-18.00,-37.00
+0.00,-42.00,-40.00,-7.00,-15.00,-32.00,-18.00,-17.00,-29.00,+95.00,+22.00,+12.00,+12.00,+8.00,+10.00,+9.00
+3.00,-1.00,+6.00,+7.00,-1.00,+24.00,+0.00,+11.00,-7.00,-124.00,+16.00,+6.00,-32.00,-3.00,+3.00,+25.00
+0.00,+117.00,+49.00,+30.00,+17.00,+10.00,+21.00,+8.00,+23.00,-28.00,-19.00,-12.00,+23.00,+2.00,-17.00,-19.00
+6.00,-74.00,-10.00,-12.00,-5.00,+4.00,-11.00,-6.00,-111.00,-48.00,-27.00,-8.00,-8.00,-5.00,-12.00,-47.00
-1.00,+2.00,+7.00,+8.00,+8.00,-5.00,+8.00,+5.00,-77.00,-41.00,+16.00,+13.00,+13.00,+11.00,+21.00,+24.00
-6.00,-71.00,-39.00,-11.00,-13.00,+22.00,-19.00,-22.00,-40.00,+49.00,-40.00,-22.00,-10.00,-18.00,-35.00,-91.00
+7.00,+127.00,+10.00,+33.00,+10.00,+0.00,+9.00,+29.00,+22.00,+108.00,+57.00,+27.00,-1.00,+25.00,+56.00,+123.00
-5.00,-109.00,+0.00,+69.00,+1.00,+10.00,+3.00,-20.00,+33.00,+127.00,+0.00,-1.00,+18.00,-1.00,-15.00,-31.00
+5.00,+58.00,-37.00,-3.00,-13.00,-15.00,-5.00,+1.00,-74.00,-69.00,-35.00,-24.00,-1.00,-16.00,-32.00,-83.00
-2.00,+124.00,+59.00,+21.00,+18.00,+46.00,+10.00,+7.00,-110.00,-105.00,+7.00,+5.00,+22.00,+5.00,+9.00,-8.00
+0.00,-98.00,-36.00,-57.00,-15.00,-18.00,-16.00,-22.00,+88.00,-69.00,-34.00,-19.00,+6.00,-9.00,+7.00,-26.00
+2.00,+127.00,+57.00,-40.00,+3.00,-66.00,+5.00,+25.00,-20.00,+96.00,+44.00,+30.00,-70.00,+4.00,+3.00,-4.00
+3.00,+47.00,+15.00,-12.00,+14.00,+91.00,+14.00,-2.00,+0.00,-98.00,+3.00,+10.00,+17.00,+3.00,+2.00,+12.00
+10.00,-23.00,-28.00,-33.00,-5.00,+1.00,-6.00,-41.00,+47.00,-38.00,-17.00,-11.00,+9.00,-7.00,-14.00,-21.00
-9.00,-91.00,+14.00,-21.00,-7.00,-16.00,+2.00,+21.00,-44.00,+21.00,+31.00,+20.00,-8.00,+7.00,+5.00,+19.00
+0.00,-127.00,-26.00,-9.00,-4.00,+20.00,-19.00,-35.00,-34.00,-116.00,-25.00,-20.00,+18.00,-7.00,-13.00,-21.00
+5.00,+26.00,+14.00,-3.00,-4.00,-25.00,+4.00,+15.00,-26.00,-17.00,-42.00,-26.00,-17.00,-22.00,-52.00,-107.00
-13.00,-49.00,-8.00,-8.00,-5.00,-13.00,+1.00,+5.00,-85.00,-58.00,+50.00,+30.00,-9.00,+22.00,+40.00,+43.00
+4.00,+127.00,-3.00,-18.00,-5.00,+5.00,-8.00,-6.00,-28.00,-6.00,-21.00,-13.00,-19.00,-10.00,-20.00,-66.00
+1.00,-88.00,-44.00,-34.00,-11.00,-15.00,-15.00,-16.00,+49.00,+12.00,+5.00,-5.00,+15.00,-2.00,+5.00,+21.00
-4.00,+50.00,+34.00,-6.00,+5.00,-14.00,+9.00,+27.00,+16.00,+57.00,+6.00,+2.00,-7.00,+5.00,+14.00,+81.00
-5.00,-8.00,+15.00,-9.00,+9.00,+35.00,+10.00,-20.00,-64.00,-83.00,-41.00,-19.00,-5.00,-13.00,-19.00,-40.00
+3.00,-81.00,-40.00,+3.00,-22.00,-37.00,-20.00,-13.00,+50.00,+105.00,-82.00,-45.00,-47.00,-23.00,-26.00,-39.00
-9.00,+32.00,-8.00,+22.00,-8.00,+6.00,-10.00,+26.00,-42.00,-24.00,+76.00,+38.00,+42.00,+25.00,+29.00,+4.00
-7.00,-12.00,+2.00,+60.00,+4.00,-2.00,-4.00,-66.00,+99.00,+3.00,-21.00,-15.00,-14.00,-8.00,-9.00,-11.00
+9.00,+127.00,-11.00,+13.00,-20.00,-19.00,-13.00,+11.00,+109.00,+92.00,+41.00,+16.00,+6.00,+8.00,+25.00,+78.00
+0.00,+77.00,+50.00,+37.00,+27.00,+31.00,+27.00,+14.00,-57.00,-72.00,-6.00,-6.00,-10.00,-6.00,-11.00,-5.00
+3.00,-67.00,-31.00,-31.00,-7.00,-18.00,-8.00,-2.00,+30.00,+35.00,-65.00,-35.00,-18.00,-23.00,-37.00,-59.00
+2.00,+68.00,+53.00,-9.00,+5.00,-3.00,+4.00,+35.00,-42.00,+82.00,+30.00,+25.00,+21.00,+8.00,-1.00,-35.00
-2.00,-16.00,-8.00,-12.00,+0.00,-7.00,-3.00,-15.00,-39.00,-69.00,-53.00,-26.00,-17.00,-7.00,-11.00,-20.00
+6.00,+56.00,-19.00,-40.00,-13.00,-20.00,-16.00,-40.00,-2.00,+61.00,+41.00,+25.00,+0.00,+7.00,+1.00,+6.00
+9.00,+89.00,+11.00,-3.00,+17.00,+40.00,+19.00,+11.00,-24.00,-88.00,-43.00,-24.00,+1.00,-6.00,+1.00,+26.00
-10.00,-101.00,-10.00,-13.00,-5.00,-15.00,-5.00,-7.00,-20.00,-18.00,+32.00,+8.00,-4.00,+2.00,+6.00,+6.00
+1.00,-103.00,-30.00,-13.00,-9.00,-10.00,-7.00,+14.00,-31.00,-24.00,-16.00,+2.00,+14.00,+2.00,+3.00,+7.00
-1.00,-86.00,+10.00,+12.00,+13.00,+13.00,+15.00,+8.00,+37.00,+44.00,+7.00,+1.00,-34.00,+5.00,+8.00,+19.00
-10.00,-128.00,-53.00,-32.00,-23.00,-19.00,-25.00,-22.00,-63.00,-33.00,+2.00,+3.00,+2.00,+0.00,+0.00,-16.00
+3.00,+73.00,+35.00,-26.00,-15.00,-21.00,-14.00,+23.00,+33.00,+93.00,+2.00,-2.00,+5.00,+4.00,+16.00,+53.00
-4.00,+15.00,+23.00,+5.00,+13.00,+27.00,+12.00,-14.00,+31.00,-12.00,+5.00,-3.00,-10.00,-3.00,-4.00,+3.00
-4.00,-112.00,-38.00,-7.00,-5.00,+1.00,-7.00,-12.00,+52.00,-52.00,-33.00,-6.00,+8.00,+1.00,+4.00,+18.00
-3.00,+75.00,+32.00,+22.00,+6.00,+4.00,+7.00,+11.00,-49.00,-40.00,+37.00,+0.00,+3.00,-5.00,-16.00,-49.00
+0.00,-128.00,-38.00,-6.00,-4.00,-10.00,-7.00,-10.00,-47.00,+40.00,+67.00,+31.00,+9.00,+19.00,+32.00,+37.00
-11.00,-16.00,-28.00,-17.00,-17.00,-18.00,+9.00,-13.00,+35.00,+127.00,+52.00,+26.00,+21.00,+27.00,+63.00,+82.00
+17.00,+67.00,+3.00,-9.00,+4.00,+0.00,-3.00,-18.00,-37.00,-41.00,-1.00,+4.00,+5.00,+1.00,+1.00,+12.00
-21.00,-50.00,+28.00,+8.00,+11.00,+17.00,+16.00,+41.00,-3.00,-10.00,-30.00,-11.00,+0.00,-3.00,-6.00,-33.00
+9.00,-69.00,-59.00,-18.00,-6.00,-9.00,-8.00,+21.00,-44.00,+22.00,+10.00,+4.00,+9.00,+3.00,-6.00,-20.00
-7.00,-21.00,+2.00,+8.00,+12.00,+11.00,+12.00,-12.00,-41.00,+11.00,-16.00,-13.00,-15.00,-14.00,-29.00,-45.00
+0.00,+39.00,+22.00,+3.00,-3.00,-5.00,-1.00,+14.00,-64.00,+48.00,+2.00,+1.00,+2.00,-3.00,-7.00,-34.00
+13.00,+39.00,-23.00,-16.00,-5.00,-2.00,+1.00,-18.00,+57.00,+127.00,+42.00,+27.00,+22.00,+20.00,+42.00,+95.00
-9.00,-34.00,-14.00,-3.00,+5.00,+8.00,-2.00,-59.00,+103.00,+66.00,-22.00,-19.00,-6.00,-8.00,-6.00,+2.00
-1.00,+27.00,+57.00,+8.00,+1.00,-7.00,+4.00,+26.00,+71.00,+57.00,+18.00,+11.00,+7.00,+15.00,+30.00,+76.00
-2.00,+98.00,-9.00,+4.00,-1.00,+0.00,-4.00,+5.00,+29.00,-4.00,+1.00,-1.00,-12.00,-12.00,-9.00,-10.00
+16.00,+87.00,+57.00,+9.00,+12.00,+19.00,+17.00,+1.00,+50.00,+50.00,-3.00,+3.00,+9.00,+1.00,-1.00,+2.00
-9.00,-94.00,-51.00,-9.00,-5.00,-8.00,-8.00,-19.00,-53.00,-107.00,-27.00,-5.00,-4.00,+0.00,-2.00,-18.00
-1.00,+69.00,+36.00,+4.00,-3.00,-1.00,-6.00,+9.00,-11.00,+50.00,+5.00,-6.00,-10.00,-11.00,-21.00,-40.00
-6.00,-128.00,-50.00,-5.00,-6.00,-12.00,-11.00,-33.00,-14.00,+55.00,-8.00,-7.00,+2.00,+2.00,+1.00,-1.00
-6.00,+121.00,+64.00,+24.00,+19.00,+15.00,+26.00,+44.00,-45.00,-72.00,-8.00,-5.00,-3.00,-8.00,-1.00,+10.00
-4.00,-126.00,-47.00,-11.00,+0.00,+1.00,-6.00,-32.00,-30.00,-57.00,-7.00,+1.00,+5.00,+2.00,+12.00,+15.00
+8.00,+54.00,-38.00,-6.00,-2.00,+0.00,-6.00,+5.00,+80.00,+102.00,-3.00,-16.00,-14.00,-11.00,-15.00,-11.00
-4.00,-96.00,-1.00,-14.00,-6.00,-5.00,+4.00,+5.00,-81.00,-46.00,+30.00,+24.00,+12.00,+4.00,+4.00,-17.00
-18.00,-77.00,-37.00,-19.00,-25.00,-28.00,-31.00,-32.00,-68.00,+9.00,-11.00,-4.00,-5.00,-2.00,-7.00,-22.00
-1.00,+127.00,+95.00,+32.00,+19.00,+15.00,+26.00,+56.00,+40.00,+29.00,-16.00,-11.00,-6.00,+4.00,+16.00,+33.00
+6.00,+0.00,+1.00,+26.00,+22.00,+24.00,+19.00,-6.00,-31.00,+69.00,+1.00,-2.00,+1.00,+0.00,-4.00,-5.00
-2.00,-68.00,-38.00,-6.00,-3.00,+0.00,-6.00,-13.00,-101.00,-57.00,-2.00,+2.00,+3.00,-2.00,-13.00,-51.00
+9.00,+25.00,+10.00,-14.00,-6.00,-6.00,-1.00,+15.00,+81.00,+37.00,+9.00,+2.00,+1.00,+4.00,+8.00,+66.00
-1.00,-72.00,+14.00,+8.00,+2.00,+2.00,-5.00,+7.00,-10.00,-4.00,-10.00,-5.00,-3.00,-2.00,-4.00,-30.00
+8.00,+11.00,+5.00,+4.00,-5.00,-6.00,-4.00,+16.00,+5.00,-24.00,+1.00,-4.00,-4.00,-6.00,-11.00,-26.00
-7.00,-88.00,-8.00,-7.00,-16.00,-15.00,-18.00,-2.00,+25.00,-77.00,+1.00,-1.00,-2.00,+0.00,+1.00,+14.00
+5.00,+80.00,+71.00,+22.00,+20.00,+24.00,+25.00,+30.00,+89.00,+87.00,-5.00,-7.00,-3.00,-1.00,-4.00,-1.00
+12.00,-20.00,-38.00,-7.00,-8.00,-8.00,-6.00,-12.00,-24.00,-128.00,-20.00,-13.00,-11.00,-16.00,-21.00,-45.00
-12.00,-100.00,-3.00,+3.00,+9.00,+0.00,+10.00,+3.00,-9.00,+5.00,-6.00,-3.00,-4.00,-4.00,-7.00,-4.00
-8.00,-97.00,-16.00,-4.00,-1.00,+10.00,-4.00,-5.00,-7.00,+18.00,+6.00,+4.00,+0.00,+0.00,+4.00,+16.00
-8.00,-57.00,-32.00,-3.00,-1.00,-3.00,-2.00,-17.00,+14.00,-83.00,-33.00,-23.00,-14.00,-13.00,-17.00,-35.00
+11.00,+58.00,+32.00,-1.00,-2.00,+2.00,+4.00,+42.00,-59.00,-28.00,+10.00,+10.00,+7.00,+7.00,+13.00,+32.00
-1.00,-111.00,-33.00,-16.00,-14.00,-17.00,-14.00,-6.00,+8.00,-34.00,+2.00,+3.00,-9.00,-12.00,-9.00,+17.00
+8.00,+127.00,+31.00,+22.00,+6.00,-1.00,+8.00,+19.00,+99.00,-52.00,-21.00,-6.00,+5.00,+22.00,-3.00,-18.00
-2.00,-1.00,-18.00,+1.00,-6.00,+0.00,-3.00,-9.00,+46.00,+23.00,+14.00,+6.00,+6.00,+3.00,+12.00,+44.00
+9.00,+44.00,+28.00,+12.00,+10.00,+7.00,+17.00,+8.00,+71.00,+42.00,-11.00,-9.00,-6.00,-5.00,-11.00,-5.00
+13.00,+62.00,+3.00,+7.00,+3.00,+1.00,-4.00,-2.00,+36.00,-74.00,-7.00,-3.00,-1.00,+0.00,-6.00,+14.00
-4.00,+42.00,+13.00,+3.00,+7.00,+7.00,+5.00,-6.00,-76.00,+14.00,-7.00,-8.00,-8.00,-10.00,+0.00,+15.00
+5.00,-115.00,-39.00,-19.00,-19.00,-19.00,-21.00,-12.00,+27.00,-72.00,+5.00,+10.00,+12.00,+12.00,+22.00,+51.00
-3.00,-66.00,-10.00,+0.00,+2.00,-2.00,-1.00,-19.00,+9.00,-19.00,+5.00,+3.00,+3.00,+5.00,+5.00,+5.00
-1.00,-105.00,-44.00,-13.00,-9.00,-7.00,-11.00,+9.00,+48.00,-84.00,-26.00,-17.00,-11.00,-11.00,-14.00,-42.00
-8.00,+87.00,+25.00,-3.00,-6.00,-2.00,-2.00,+26.00,-23.00,-37.00,+21.00,+10.00,+5.00,+5.00,+13.00,+25.00
+0.00,-82.00,-38.00,-2.00,+0.00,-1.00,-4.00,+10.00,-43.00,-65.00,-10.00,-1.00,+0.00,-2.00,-10.00,-43.00
-6.00,+71.00,+21.00,-4.00,-3.00,-1.00,+1.00,-20.00,-80.00,-36.00,+3.00,+0.00,-4.00,-5.00,+2.00,+17.00
-7.00,-6.00,-3.00,-1.00,-2.00,-3.00,-5.00,-13.00,-24.00,+55.00,+13.00,+5.00,+2.00,+5.00,+6.00,+2.00
-5.00,-74.00,-12.00,-3.00,-5.00,-5.00,-6.00,-7.00,-2.00,+43.00,+6.00,-1.00,-2.00,-5.00,-2.00,-6.00
-2.00,-87.00,-17.00,-5.00,+2.00,+5.00,+6.00,-9.00,-126.00,-65.00,-12.00,-3.00,-1.00,-4.00,-11.00,-41.00
-11.00,-3.00,-6.00,+1.00,+0.00,-4.00,+1.00,-16.00,-31.00,+5.00,-15.00,-3.00,-1.00,-1.00,+1.00,-13.00
+10.00,-21.00,-4.00,+0.00,-2.00,+1.00,-5.00,-6.00,+6.00,+27.00,+15.00,+7.00,+7.00,+8.00,+16.00,+31.00
+1.00,-19.00,+19.00,+7.00,+6.00,+4.00,+7.00,+3.00,+1.00,-6.00,+13.00,+7.00,+7.00,+1.00,+4.00,+23.00
-6.00,-124.00,-62.00,-24.00,-27.00,-29.00,-26.00,-19.00,+5.00,-5.00,-4.00,+0.00,-9.00,-3.00,-3.00,-5.00
-9.00,+69.00,+28.00,+10.00,+8.00,+23.00,+7.00,+12.00,-58.00,-3.00,+4.00,+3.00,+0.00,+1.00,+0.00,+9.00
-5.00,+14.00,+3.00,-1.00,-1.00,-8.00,+3.00,-10.00,-28.00,-8.00,-10.00,-5.00,-4.00,-1.00,-8.00,-31.00
+5.00,-56.00,-2.00,-2.00,-3.00,+4.00,-2.00,-4.00,+0.00,-55.00,+3.00,+1.00,-1.00,-1.00,+1.00,+7.00
+6.00,+36.00,+15.00,+6.00,+8.00,+11.00,+11.00,-7.00,+13.00,+53.00,+7.00,-3.00,-6.00,-19.00,-2.00,-9.00
-2.00,-35.00,-48.00,-20.00,-12.00,-12.00,-7.00,+27.00,-52.00,-106.00,-37.00,-21.00,-4.00,+6.00,-28.00,-79.00
-4.00,-102.00,-9.00,+1.00,+1.00,+0.00,-3.00,-7.00,+75.00,+74.00,+29.00,+12.00,+5.00,+6.00,+10.00,+17.00
+5.00,+74.00,+2.00,-2.00,-1.00,-4.00,-1.00,+8.00,+13.00,-78.00,+7.00,-2.00,-3.00,-5.00,-13.00,-40.00
-2.00,+89.00,+26.00,+10.00,+13.00,+15.00,+13.00,+0.00,+50.00,+118.00,+10.00,+5.00,+6.00,+1.00,+7.00,+32.00
-6.00,-26.00,-26.00,-9.00,-12.00,-12.00,-7.00,+4.00,-16.00,-25.00,+19.00,+9.00,+0.00,-1.00,+8.00,+15.00
+1.00,+9.00,+18.00,+1.00,-1.00,+1.00,-2.00,-20.00,-46.00,-20.00,-19.00,-8.00,-11.00,-8.00,-13.00,-33.00
+6.00,+70.00,+87.00,+30.00,+22.00,+15.00,+26.00,+29.00,+10.00,+50.00,-12.00,-8.00,+1.00,-1.00,-4.00,-4.00
+5.00,+1.00,+7.00,+2.00,+0.00,+4.00,+0.00,+3.00,-24.00,-9.00,-6.00,-1.00,+10.00,+5.00,-2.00,-12.00
-5.00,-125.00,-15.00,-3.00,-5.00,-7.00,-5.00,-19.00,-19.00,-6.00,-15.00,-13.00,-15.00,-15.00,-15.00,-27.00
-8.00,+48.00,-1.00,-1.00,-1.00,-1.00,-2.00,+11.00,+27.00,-20.00,-11.00,-10.00,-2.00,+8.00,-23.00,-78.00
-8.00,-56.00,-26.00,-7.00,-6.00,-2.00,-7.00,-15.00,-51.00,+77.00,+57.00,+36.00,+18.00,+23.00,+49.00,+56.00
-1.00,+108.00,+18.00,-1.00,+1.00,-3.00,+1.00,+14.00,-5.00,+7.00,-2.00,+2.00,+2.00,+4.00,-1.00,-18.00
+3.00,-5.00,-15.00,-13.00,-12.00,-10.00,-21.00,-48.00,+38.00,+43.00,+6.00,+4.00,-18.00,-1.00,+5.00,+9.00
-4.00,-100.00,+16.00,+16.00,+15.00,+19.00,+20.00,+1.00,-63.00,-47.00,-25.00,-10.00,-5.00,-19.00,-20.00,-39.00
-6.00,-7.00,-6.00,-1.00,-3.00,+4.00,-1.00,-6.00,-5.00,-39.00,-22.00,-13.00,-7.00,-7.00,-10.00,-19.00
+4.00,+20.00,-2.00,-3.00,-1.00,-10.00,-4.00,+4.00,+20.00,-65.00,-4.00,-1.00,-5.00,-1.00,-5.00,-10.00
+1.00,-4.00,-13.00,+2.00,-1.00,-5.00,-3.00,+7.00,+30.00,+114.00,+24.00,+9.00,+34.00,+5.00,+9.00,+20.00
+6.00,-29.00,-16.00,-15.00,-7.00,-18.00,-8.00,+2.00,-33.00,-17.00,+11.00,-1.00,+25.00,+6.00,+15.00,+34.00
-11.00,+78.00,+7.00,+4.00,+8.00,+13.00,+3.00,-2.00,+19.00,+7.00,-11.00,-1.00,-65.00,-14.00,-9.00,-6.00
-7.00,-101.00,-21.00,-9.00,-8.00,+2.00,-3.00,-14.00,-11.00,-2.00,+2.00,+3.00,+12.00,+1.00,-6.00,-14.00
-3.00,-33.00,-20.00,-14.00,-12.00,-15.00,-16.00,-4.00,-35.00,-89.00,-40.00,-24.00,-19.00,-19.00,-31.00,-68.00
+12.00,+115.00,+74.00,+25.00,+21.00,+24.00,+32.00,+31.00,+65.00,+59.00,+18.00,+15.00,+24.00,+10.00,+22.00,+50.00
+0.00,-89.00,+15.00,+8.00,+2.00,-8.00,+2.00,-15.00,-41.00,-32.00,+0.00,-2.00,+13.00,+0.00,+2.00,+14.00
+0.00,-78.00,-28.00,-1.00,-5.00,-2.00,-1.00,+5.00,-44.00,+45.00,-1.00,-8.00,-29.00,-11.00,-9.00,-17.00
-6.00,+81.00,+38.00,+13.00,+8.00,+7.00,+6.00,-22.00,+12.00,-20.00,+8.00,-4.00,-22.00,-2.00,+7.00,+24.00
+0.00,+4.00,-30.00,-10.00,-10.00,-7.00,-15.00,-9.00,-22.00,-4.00,-5.00,+14.00,-14.00,-6.00,-6.00,-18.00
-1.00,-2.00,-30.00,-9.00,-10.00,-19.00,-12.00,-6.00,+4.00,-1.00,-13.00,-8.00,+5.00,-3.00,-7.00,-6.00
-7.00,+9.00,+19.00,+6.00,+4.00,-3.00,+5.00,-7.00,-12.00,-98.00,-33.00,-9.00,-15.00,-9.00,-22.00,-56.00
+3.00,-95.00,-31.00,-14.00,-14.00,+2.00,-6.00,-4.00,+110.00,+82.00,+12.00,+6.00,+15.00,+3.00,+7.00,+18.00
+3.00,+56.00,+17.00,-4.00,-6.00,-6.00,-14.00,+19.00,-128.00,-24.00,-1.00,-28.00,-75.00,-14.00,-9.00,-22.00
-10.00,+3.00,+23.00,+7.00,+11.00,+16.00,+11.00,+4.00,+80.00,+55.00,-12.00,-7.00,+33.00,-7.00,+1.00,+19.00
-5.00,-55.00,-10.00,-7.00,-4.00,-1.00,-9.00,-15.00,+2.00,-39.00,-1.00,+6.00,-33.00,+18.00,+1.00,+7.00
-3.00,+11.00,+16.00,+2.00,+0.00,-12.00,+10.00,+22.00,-2.00,+49.00,+16.00,+16.00,+35.00,+2.00,+5.00,+7.00
-1.00,-15.00,-31.00,-14.00,-13.00,-2.00,-15.00,-10.00,-42.00,-92.00,-13.00,+23.00,+38.00,+1.00,-7.00,-24.00
-1.00,-66.00,-14.00,-2.00,-2.00,-6.00,-5.00,+2.00,+54.00,-20.00,-33.00,-13.00,+23.00,-8.00,-14.00,-14.00
+7.00,+123.00,+35.00,+3.00,+6.00,+0.00,+3.00,+8.00,+64.00,+48.00,+8.00,-10.00,-12.00,-1.00,+3.00,-7.00
+1.00,+19.00,-14.00,-8.00,-5.00,+14.00,-5.00,-1.00,-64.00,-76.00,-3.00,-5.00,-5.00,-7.00,+15.00,+32.00
-6.00,-27.00,-5.00,-1.00,-4.00,-17.00,-1.00,-16.00,-82.00,+28.00,+10.00,-6.00,-11.00,+35.00,+16.00,+41.00
+0.00,-15.00,-12.00,-1.00,-1.00,-8.00,-1.00,+2.00,-116.00,-24.00,-1.00,-5.00,-3.00,-11.00,-5.00,-4.00
-10.00,-27.00,-9.00,+1.00,-1.00,+19.00,-1.00,-5.00,-58.00,+25.00,+1.00,+10.00,+15.00,+4.00,+3.00,+5.00
+0.00,-28.00,-38.00,-19.00,-14.00,-24.00,-17.00,+4.00,-3.00,-2.00,+7.00,+2.00,-5.00,+3.00,+11.00,+57.00
-3.00,+90.00,+55.00,+18.00,+15.00,+25.00,+20.00,+14.00,+87.00,+35.00,-6.00,-11.00,+12.00,-11.00,+1.00,-3.00
+1.00,-5.00,-5.00,-6.00,-5.00,-8.00,-1.00,+4.00,-23.00,-21.00,-4.00,-7.00,-25.00,-2.00,-6.00,-15.00
+2.00,-24.00,+0.00,-8.00,-2.00,-5.00,-3.00,-3.00,-39.00,-35.00,-2.00,-4.00,+19.00,+2.00,+5.00,+14.00
-6.00,+23.00,+13.00,+1.00,+2.00,+10.00,+5.00,+11.00,+53.00,+48.00,-2.00,-4.00,-23.00,-12.00,-11.00,-41.00
-1.00,-15.00,-26.00,-2.00,-5.00,-15.00,-6.00,-6.00,+7.00,+63.00,+22.00,+6.00,+65.00,+9.00,+14.00,+45.00
+2.00,-29.00,-13.00,-4.00,-11.00,-23.00,-9.00,-6.00,+26.00,-1.00,+5.00,+15.00,-12.00,+0.00,-3.00,-3.00
-1.00,+40.00,+1.00,+2.00,+6.00,+12.00,-1.00,-8.00,+41.00,-6.00,+4.00,+1.00,-17.00,+16.00,+2.00,+5.00
+0.00,-42.00,+12.00,+8.00,+11.00,+69.00,+15.00,+6.00,-17.00,-19.00,-4.00,+6.00,+0.00,+3.00,-5.00,-18.00
-6.00,-33.00,-10.00,-10.00,+0.00,-6.00,-11.00,-11.00,-77.00,-109.00,-28.00,-17.00,-7.00,-25.00,-24.00,-40.00
+7.00,+64.00,+14.00,-4.00,-2.00,+14.00,+4.00,+5.00,+51.00,+50.00,+15.00,-2.00,-7.00,+3.00,+4.00,+19.00
-2.00,-29.00,-1.00,+4.00,-16.00,-69.00,-9.00,+1.00,-26.00,+17.00,-2.00,-12.00,+15.00,-12.00,+0.00,+2.00
-2.00,+27.00,+20.00,+15.00,+11.00,+21.00,+11.00,+8.00,-11.00,-5.00,+5.00,+5.00,+82.00,+11.00,+6.00,+17.00
-1.00,-5.00,-35.00,-3.00,+2.00,+23.00,+8.00,+6.00,-11.00,-12.00,-8.00,+4.00,-57.00,-1.00,+0.00,-10.00
+2.00,+91.00,+16.00,+1.00,+0.00,+10.00,-12.00,-8.00,-23.00,-6.00,+2.00,+2.00,-3.00,-4.00,-2.00,-5.00
+0.00,-32.00,-9.00,-4.00,-4.00,-13.00,-5.00,-20.00,-16.00,-13.00,+0.00,+1.00,-2.00,-9.00,-1.00,-4.00
-4.00,+33.00,+18.00,+4.00,+2.00,-29.00,-1.00,-6.00,-23.00,+23.00,-3.00,-3.00,-11.00,+0.00,-2.00,-71.00
+1.00,-59.00,-11.00,-2.00,-5.00,+3.00,-2.00,-5.00,+13.00,+5.00,+0.00,-4.00,-6.00,-7.00,-4.00,-17.00
-1.00,-59.00,-17.00,-8.00,-1.00,-12.00,-2.00,-4.00,+4.00,+55.00,+9.00,+5.00,+0.00,+8.00,-4.00,-19.00
+1.00,-4.00,+2.00,-3.00,-1.00,+18.00,+2.00,+28.00,+12.00,+10.00,+6.00,-1.00,+5.00,-7.00,+4.00,+14.00
+2.00,-42.00,+4.00,+3.00,+2.00,-22.00,+6.00,-7.00,-8.00,-21.00,-3.00,-3.00,-16.00,-7.00,-7.00,+11.00
-4.00,-40.00,-13.00,-12.00,-8.00,-4.00,-16.00,-73.00,+1.00,+3.00,-3.00,+2.00,+10.00,-7.00,-3.00,+4.00
-8.00,-12.00,-10.00,-4.00,+0.00,-9.00,+0.00,+10.00,-12.00,+12.00,-15.00,-8.00,-12.00,+17.00,-10.00,-15.00
+4.00,-40.00,-5.00,+1.00,+0.00,+4.00,-5.00,-1.00,-38.00,+9.00,-15.00,-8.00,-6.00,-8.00,-9.00,-26.00
+0.00,+57.00,-5.00,-10.00,-5.00,-3.00,+0.00,+10.00,+40.00,+47.00,+30.00,+15.00,+11.00,+17.00,+16.00,+60.00
-3.00,-22.00,+8.00,-1.00,-3.00,-35.00,+0.00,+15.00,+8.00,+26.00,+13.00,+7.00,-7.00,-4.00,+9.00,+21.00
+2.00,-11.00,-3.00,+5.00,+5.00,+1.00,+6.00,+1.00,-14.00,-55.00,-12.00,-18.00,-20.00,-10.00,-18.00,+1.00
-5.00,-31.00,-5.00,+1.00,+9.00,+35.00,+8.00,-7.00,+47.00,+23.00,+1.00,-4.00,-15.00,-8.00,+0.00,+12.00
+5.00,-5.00,-6.00,-3.00,-5.00,-5.00,-7.00,+1.00,-10.00,-42.00,-8.00,+13.00,-13.00,-25.00,-7.00,-14.00
-1.00,-52.00,+5.00,+2.00,+4.00,+7.00,+7.00,+6.00,+15.00,-8.00,-4.00,-1.00,-20.00,+36.00,-7.00,-12.00
-4.00,-11.00,+0.00,+2.00,-2.00,+8.00,+0.00,-5.00,-38.00,-21.00,-2.00,+0.00,+9.00,-6.00,+9.00,-2.00
-2.00,+20.00,-6.00,-5.00,-2.00,-4.00,-2.00,+5.00,+35.00,-5.00,+5.00,+3.00,+37.00,+8.00,-5.00,-15.00
-3.00,-31.00,+8.00,+4.00,-2.00,-16.00,+4.00,+2.00,+4.00,+0.00,-1.00,-14.00,-66.00,-8.00,+0.00,-7.00
-1.00,+36.00,-1.00,-1.00,+1.00,-42.00,-13.00,-12.00,-20.00,+4.00,-2.00,-42.00,-26.00,-24.00,+5.00,+54.00
+0.00,-20.00,-7.00,+1.00,+3.00,+44.00,-5.00,+1.00,-19.00,+3.00,+8.00,+41.00,+20.00,-31.00,+2.00,+29.00
-3.00,+12.00,+5.00,+3.00,+2.00,+7.00,+19.00,+58.00,-32.00,-1.00,+4.00,+16.00,-2.00,+25.00,+11.00,+7.00
+10.00,-5.00,-2.00,-6.00,-6.00,+2.00,-10.00,-25.00,-11.00,-13.00,-7.00,+2.00,+26.00,+29.00,-7.00,+0.00
-7.00,+1.00,-4.00,-5.00,-10.00,-16.00,-1.00,+5.00,-17.00,+2.00,-1.00,+6.00,+30.00,+18.00,+8.00,-12.00
-1.00,-4.00,-10.00,-5.00,-4.00,-10.00,-7.00,-4.00,-73.00,-8.00,-2.00,-23.00,-23.00,+3.00,+0.00,-18.00
-4.00,+35.00,+3.00,+0.00,+1.00,+2.00,-6.00,-1.00,+4.00,+6.00,-2.00,-4.00,+0.00,-21.00,-2.00,+26.00
-2.00,-8.00,+4.00,+5.00,+8.00,-2.00,+11.00,+8.00,-111.00,+2.00,+6.00,+3.00,+9.00,-19.00,-7.00,-5.00
+2.00,-57.00,-8.00,-5.00,-3.00,+13.00,-4.00,+14.00,-31.00,+11.00,-4.00,-7.00,-16.00,-9.00,-7.00,-6.00
+1.00,-54.00,-14.00,-4.00,-8.00,-27.00,-3.00,-4.00,+58.00,-80.00,-3.00,-4.00,-4.00,-3.00,+6.00,-11.00
+2.00,+75.00,+14.00,-5.00,-10.00,+8.00,-5.00,-8.00,+96.00,+16.00,+3.00,+8.00,+16.00,-9.00,+5.00,+34.00
-1.00,-15.00,-4.00,+6.00,+6.00,-7.00,+6.00,-7.00,+73.00,+7.00,-1.00,-12.00,-9.00,+13.00,-2.00,+0.00
-7.00,+18.00,+1.00,+5.00,+7.00,+26.00,+4.00,-2.00,+89.00,-19.00,-8.00,+5.00,-24.00,-8.00,-3.00,-11.00
-4.00,+4.00,+4.00,-5.00,-3.00,-13.00,+5.00,+34.00,+69.00,-6.00,+2.00,-6.00,+42.00,-1.00,-4.00,-7.00
-1.00,-35.00,-8.00,-3.00,+0.00,-35.00,-10.00,+1.00,+23.00,-9.00,-3.00,-20.00,+73.00,+11.00,-2.00,-4.00
-4.00,+7.00,+3.00,+2.00,+2.00,+58.00,+0.00,+21.00,+89.00,+2.00,+0.00,+12.00,-94.00,+10.00,+5.00,+7.00
-1.00,+4.00,+0.00,-2.00,-6.00,-1.00,-3.00,+7.00,+15.00,-2.00,+8.00,+18.00,+33.00,-5.00,-5.00,-5.00
-2.00,-11.00,-8.00,-7.00,-3.00,-3.00,+0.00,+20.00,-8.00,+12.00,-4.00,-1.00,-1.00,+1.00,-5.00,-18.00
-5.00,-36.00,+0.00,-4.00,-1.00,+25.00,+1.00,-11.00,-12.00,-18.00,-3.00,-6.00,-26.00,-3.00,+1.00,+21.00
-2.00,-16.00,+2.00,-17.00,-11.00,-58.00,-19.00,-20.00,-2.00,+14.00,-6.00,-22.00,+15.00,+4.00,+7.00,-53.00
-2.00,+4.00,-3.00,-9.00,+0.00,-27.00,-4.00,-47.00,-56.00,+7.00,+8.00,+12.00,-2.00,-8.00,+4.00,+17.00
-1.00,+11.00,+10.00,+17.00,+10.00,+3.00,+19.00,-5.00,-10.00,+26.00,+3.00,+14.00,+40.00,+5.00,-7.00,+4.00
-3.00,+8.00,-1.00,+11.00,+13.00,+77.00,-7.00,-22.00,-54.00,-1.00,-2.00,-6.00,-40.00,-2.00,+2.00,+3.00
+4.00,+6.00,+2.00,+4.00,-1.00,-4.00,+3.00,-11.00,-66.00,-21.00,-5.00,+6.00,+32.00,-3.00,+4.00,+12.00
+3.00,-3.00,-8.00,-1.00,-5.00,-2.00,-17.00,-2.00,-63.00,-7.00,-10.00,-4.00,-10.00,-8.00,+2.00,-17.00
-5.00,+43.00,+0.00,-9.00,-10.00,-33.00,-11.00,-11.00,+36.00,-30.00,-10.00,-16.00,-17.00,+21.00,+4.00,-15.00
-6.00,+18.00,+5.00,+4.00,+1.00,-23.00,+1.00,-71.00,+47.00,+63.00,+11.00,+7.00,-6.00,+0.00,+0.00,+9.00
-5.00,-36.00,-1.00,+1.00,+0.00,+10.00,-4.00,+11.00,+7.00,+11.00,-1.00,-2.00,+28.00,-12.00,-2.00,+40.00
+1.00,+52.00,-13.00,-7.00,-7.00,+3.00,+3.00,+19.00,-51.00,-28.00,+0.00,+4.00,-10.00,+1.00,-4.00,-18.00
+8.00,+34.00,+8.00,+4.00,+2.00,+6.00,+2.00,-1.00,+8.00,+29.00,+3.00,+0.00,-11.00,-9.00,-3.00,+0.00
-4.00,-29.00,+3.00,+5.00,+1.00,-3.00,+9.00,+26.00,+34.00,-26.00,-6.00,+6.00,-1.00,-2.00,-8.00,-29.00
-3.00,-34.00,+1.00,+2.00,+1.00,+0.00,+0.00,+5.00,+111.00,+10.00,-5.00,-6.00,+5.00,+1.00,+4.00,+47.00
+2.00,-9.00,+9.00,+5.00,+1.00,-15.00,+6.00,+9.00,+72.00,-7.00,+2.00,-9.00,+30.00,+2.00,-1.00,+3.00
+0.00,-45.00,-7.00,-5.00,-2.00,+29.00,-3.00,+3.00,+17.00,+13.00,-2.00,-1.00,-54.00,-9.00,+0.00,+5.00
+4.00,-17.00,-4.00,-12.00,-13.00,-15.00,-10.00,+22.00,-2.00,+3.00,+3.00,+2.00,-8.00,+4.00,+1.00,-7.00
+3.00,+9.00,+4.00,+9.00,+18.00,-37.00,+10.00,+26.00,-30.00,-25.00,-6.00,-7.00,+5.00,-5.00,-11.00,-33.00
-3.00,-29.00,-1.00,+0.00,+2.00,+25.00,+9.00,+28.00,+2.00,-14.00,-2.00,+8.00,+9.00,-11.00,-5.00,-2.00
-8.00,+3.00,-5.00,-6.00,-5.00,+2.00,-6.00,-16.00,+4.00,+19.00,+4.00,-5.00,-6.00,+29.00,+2.00,+11.00
+1.00,-23.00,-2.00,-5.00,-1.00,-18.00,+3.00,+23.00,-26.00,+18.00,+5.00,+0.00,+44.00,-10.00,-3.00,-10.00
+3.00,+33.00,-3.00,-11.00,-12.00,-8.00,-9.00,-10.00,-35.00,-9.00,-1.00,-1.00,-85.00,+2.00,+7.00,+10.00
+3.00,-1.00,+8.00,+7.00,+1.00,-28.00,+3.00,-16.00,+8.00,+4.00,-3.00,+8.00,+8.00,-1.00,-11.00,-8.00
-2.00,-7.00,-2.00,+3.00,+5.00,+42.00,+5.00,-13.00,-11.00,+0.00,+1.00,-4.00,-1.00,-12.00,+2.00,-60.00
-3.00,+5.00,-2.00,-2.00,-3.00,-29.00,-5.00,-16.00,-51.00,-12.00,-3.00,-1.00,-6.00,+3.00,+1.00,-10.00
-1.00,+5.00,+2.00,-2.00,-2.00,+13.00,+1.00,-9.00,-36.00,-18.00,-2.00,-5.00,+26.00,+3.00,-5.00,-2.00
-2.00,+23.00,-1.00,-6.00,-2.00,-2.00,-5.00,-6.00,+69.00,+20.00,+1.00,-2.00,-13.00,+2.00,+0.00,+5.00
+1.00,-1.00,-6.00,-7.00,-6.00,-26.00,-8.00,-20.00,-54.00,-1.00,-2.00,-2.00,-2.00,-4.00,+1.00,+29.00
+5.00,+19.00,-4.00,+3.00,+0.00,-5.00,+3.00,-6.00,-25.00,-1.00,+0.00,+3.00,+26.00,-1.00,+1.00,+2.00
+1.00,+6.00,-4.00,-3.00,-1.00,+21.00,+3.00,+2.00,+47.00,+18.00,-1.00,-11.00,+0.00,-6.00,-11.00,-32.00
-2.00,+21.00,+6.00,+9.00,+5.00,+23.00,+2.00,+4.00,-20.00,+1.00,+0.00,+4.00,-23.00,-7.00,-16.00,+0.00
+1.00,+8.00,-1.00,-7.00,+1.00,-18.00,+0.00,+6.00,-21.00,-3.00,-2.00,+6.00,+49.00,+0.00,+12.00,+9.00
-1.00,-9.00,-8.00,-5.00,-8.00,-9.00,-3.00,+6.00,-28.00,-6.00,+1.00,+1.00,-39.00,+0.00,+6.00,+0.00
+0.00,-30.00,+4.00,+5.00,+11.00,+19.00,+11.00,+7.00,-40.00,-15.00,-3.00,+5.00,+22.00,-4.00,-2.00,+2.00
-2.00,+22.00,+5.00,+1.00,-6.00,-22.00,-4.00,+14.00,-4.00,+3.00,-6.00,-21.00,+24.00,+16.00,-5.00,-6.00
+1.00,-24.00,+2.00,+5.00,+1.00,+1.00,+2.00,+10.00,-5.00,-1.00,+5.00,+7.00,-41.00,-24.00,+0.00,+9.00
-5.00,-9.00,+0.00,+0.00,+3.00,+3.00,-4.00,+2.00,-38.00,+1.00,-2.00,+4.00,+2.00,-4.00,+1.00,-20.00
-1.00,-7.00,-4.00,-4.00,-9.00,-11.00,-6.00,-9.00,-25.00,+7.00,+1.00,+4.00,-7.00,+2.00,-15.00,+26.00
-2.00,-41.00,-3.00,-1.00,+0.00,+13.00,+2.00,+18.00,-96.00,+3.00,-3.00,-4.00,-1.00,-1.00,+5.00,-6.00
+2.00,+12.00,-1.00,+2.00,+1.00,-20.00,-5.00,-7.00,-53.00,+3.00,+0.00,-4.00,+4.00,+4.00,-1.00,+1.00
+2.00,-5.00,+0.00,-3.00,-8.00,+14.00,+2.00,-9.00,+20.00,-2.00,+1.00,-4.00,-19.00,+0.00,-4.00,+8.00
-4.00,+7.00,+4.00,+2.00,-1.00,-52.00,-6.00,-7.00,+39.00,-8.00,-2.00,+3.00,+11.00,-4.00,+2.00,-20.00
-4.00,-8.00,-5.00,-4.00,+2.00,+12.00,+8.00,+48.00,+124.00,+1.00,-1.00,-4.00,-3.00,+2.00,+13.00,+27.00
-1.00,+1.00,+3.00,+0.00,-2.00,+14.00,-2.00,-12.00,+98.00,-4.00,-3.00,-3.00,+4.00,+3.00,-5.00,+16.00
+0.00,+16.00,-2.00,+2.00,+0.00,-5.00,-2.00,-5.00,+47.00,-2.00,+1.00,+3.00,-7.00,-12.00,+15.00,+4.00
+3.00,+20.00,-3.00,-2.00,-2.00,+3.00,-3.00,+16.00,+4.00,+11.00,+1.00,-1.00,+7.00,+24.00,-20.00,-4.00
+3.00,+3.00,+2.00,+0.00,-3.00,-3.00,+0.00,-1.00,-47.00,-6.00,+1.00,+3.00,-1.00,-4.00,-3.00,-4.00
-5.00,-4.00,-2.00,-1.00,-1.00,-4.00,-1.00,+2.00,-17.00,-1.00,-1.00,-6.00,-11.00,-1.00,+1.00,+1.00
-3.00,-5.00,+1.00,-1.00,-3.00,-2.00,+1.00,+0.00,-89.00,-40.00,-14.00,-10.00,-4.00,-1.00,-5.00,-17.00
-1.00,+20.00,-4.00,-7.00,-2.00,-4.00,+0.00,-1.00,+24.00,+11.00,+0.00,-5.00,+55.00,-30.00,+26.00,+19.00
+2.00,+29.00,+0.00,+8.00,+2.00,-18.00,-6.00,-10.00,-33.00,+19.00,+5.00,+4.00,-89.00,+5.00,-28.00,-1.00
-2.00,+22.00,-1.00,-3.00,+1.00,+26.00,-10.00,+6.00,+16.00,+5.00,+4.00,+7.00,+13.00,+2.00,-11.00,-3.00
+4.00,+8.00,-1.00,-2.00,+1.00,+7.00,+17.00,+2.00,+26.00,-10.00,-4.00,-1.00,-14.00,+6.00,-9.00,+4.00
-8.00,-10.00,-2.00,-3.00,-4.00,+16.00,+2.00,-2.00,-72.00,-12.00,-5.00,-27.00,+25.00,+4.00,+6.00,-8.00
+0.00,-33.00,-5.00,-9.00,-12.00,-69.00,-14.00,-19.00,+25.00,+2.00,+2.00,+23.00,-35.00,-32.00,+7.00,-9.00
+4.00,-18.00,+7.00,+13.00,+17.00,+90.00,+20.00,+9.00,-18.00,-12.00,-2.00,+0.00,-5.00,+27.00,+5.00,+21.00
-4.00,-18.00,-2.00,-3.00,+2.00,-13.00,-9.00,+3.00,+10.00,+15.00,+2.00,+4.00,-21.00,-2.00,-3.00,-3.00
-2.00,-30.00,-5.00,-3.00,-4.00,-10.00,-2.00,-7.00,+7.00,-17.00,-3.00,+5.00,-21.00,-1.00,-11.00,-5.00
+1.00,-12.00,-2.00,-1.00,+1.00,+39.00,+1.00,-9.00,+28.00,-4.00,-3.00,-15.00,+29.00,-22.00,+10.00,+4.00
-3.00,-13.00,-2.00,-4.00,-10.00,-40.00,-10.00,-10.00,-4.00,+5.00,+0.00,-2.00,+20.00,+28.00,+1.00,-7.00
-1.00,-8.00,-3.00,+0.00,+1.00,-2.00,+1.00,-1.00,-1.00,+1.00,-2.00,+0.00,+39.00,+1.00,+2.00,-1.00
-2.00,+12.00,+2.00,+3.00,+1.00,+23.00,+1.00,-3.00,-2.00,-2.00,+2.00,-2.00,-46.00,+3.00,-3.00,-3.00
-2.00,-3.00,-5.00,-5.00,-2.00,+7.00,+3.00,-11.00,-52.00,-4.00,-3.00,+0.00,+11.00,+6.00,+9.00,+15.00
+0.00,+1.00,-1.00,+0.00,-2.00,-17.00,-10.00,+7.00,-4.00,+3.00,+1.00,+1.00,-13.00,-21.00,-4.00,-8.00
+2.00,+4.00,+2.00,+1.00,+3.00,+18.00,+13.00,+3.00,-10.00,+6.00,-1.00,-1.00,+16.00,+3.00,-7.00,+10.00
+0.00,+1.00,+1.00,+1.00,-1.00,-17.00,-5.00,-1.00,-4.00,+3.00,+2.00,+6.00,-7.00,-4.00,-1.00,-10.00
-4.00,+8.00,+1.00,+2.00,+0.00,+14.00,+3.00,+0.00,+7.00,-16.00,-6.00,-3.00,+20.00,+8.00,+3.00,-10.00
+5.00,-3.00,-5.00,-6.00,-5.00,-18.00,-1.00,+0.00,+4.00,+1.00,-1.00,-7.00,-4.00,-8.00,+0.00,+5.00
-2.00,+32.00,-3.00,-6.00,-8.00,-17.00,-28.00,-4.00,-13.00,+22.00,+4.00,-4.00,-18.00,-2.00,+0.00,+41.00
-4.00,-54.00,+8.00,+6.00,+1.00,+9.00,+41.00,+7.00,-6.00,-8.00,+1.00,+8.00,+5.00,+3.00,+7.00,-13.00
-5.00,-8.00,+0.00,+5.00,+15.00,+34.00,-4.00,+0.00,+2.00,-4.00,-2.00,+2.00,+11.00,-1.00,-3.00,-10.00
-4.00,-3.00,+2.00,-3.00,-2.00,-2.00,+5.00,-6.00,+10.00,+13.00,-3.00,-7.00,+2.00,-5.00,+0.00,+5.00
+0.00,-11.00,-4.00,-2.00,-2.00,-13.00,-8.00,-5.00,+3.00,-24.00,-1.00,-4.00,-11.00,-5.00,-7.00,-1.00
-3.00,+9.00,-7.00,-16.00,-18.00,-37.00,-26.00,-8.00,+38.00,+36.00,-2.00,+4.00,-6.00,-2.00,-2.00,+2.00
+1.00,+4.00,+2.00,+11.00,+13.00,+80.00,+22.00,+9.00,-15.00,+7.00,+2.00,-7.00,+17.00,+8.00,-2.00,-10.00
-1.00,-15.00,-3.00,+0.00,-5.00,-36.00,-3.00,+6.00,+25.00,+22.00,+5.00,+0.00,-2.00,-7.00,+6.00,+17.00
+2.00,+22.00,+3.00,+6.00,+8.00,+31.00,+4.00,-18.00,-1.00,-3.00,-1.00,+1.00,+16.00,+2.00,-2.00,-4.00
-6.00,+15.00,+2.00,-1.00,+3.00,+8.00,-13.00,-24.00,-8.00,-22.00,-7.00,-8.00,-72.00,-19.00,-4.00,+1.00
-3.00,-3.00,-3.00,-6.00,-10.00,-30.00,+0.00,-11.00,-6.00,-9.00,-2.00,+6.00,-13.00,+11.00,-1.00,-14.00
-1.00,+1.00,-1.00,+0.00,-2.00,-18.00,-7.00,-7.00,-23.00,-6.00,-4.00,+0.00,-2.00,-11.00,-6.00,-10.00
+0.00,-14.00,+0.00,-1.00,-3.00,-22.00,+2.00,-1.00,+7.00,+3.00,+1.00,+1.00,+38.00,+3.00,+3.00,-3.00
+0.00,+1.00,-2.00,+5.00,+1.00,+4.00,-13.00,-2.00,-4.00,-6.00,-1.00,-13.00,-38.00,+5.00,+1.00,+6.00
+1.00,+4.00,-2.00,-7.00,-1.00,-32.00,+4.00,-10.00,-6.00,+3.00,+1.00,+15.00,+24.00,-3.00,-2.00,-4.00
-2.00,+2.00,-3.00,+3.00,+2.00,+13.00,+7.00,-6.00,-9.00,-8.00,-2.00,-2.00,-17.00,-3.00,-3.00,-5.00
-5.00,-5.00,+1.00,-1.00,-7.00,-10.00,-5.00,+0.00,+0.00,+6.00,+0.00,+6.00,+15.00,+5.00,-3.00,-3.00
-1.00,+6.00,-2.00,-2.00,+2.00,+10.00,+4.00,+3.00,-14.00,-8.00,+1.00,-2.00,+14.00,-1.00,-1.00,-2.00
+1.00,+11.00,-4.00,-7.00,-8.00,-14.00,-13.00,+4.00,+12.00,+0.00,+2.00,-9.00,+5.00,-1.00,-6.00,-12.00
-2.00,+1.00,+2.00,+1.00,+1.00,-2.00,-2.00,+1.00,-26.00,-10.00,-3.00,+1.00,-15.00,+4.00,+4.00,-7.00
+2.00,-11.00,+5.00,-1.00,+3.00,+2.00,+17.00,+39.00,+35.00,+21.00,+2.00,-6.00,-8.00,-20.00,-6.00,-4.00
+2.00,+9.00,-6.00,-4.00,-6.00,-4.00,-9.00,+31.00,-62.00,-9.00,-2.00,+9.00,+16.00,+17.00,-2.00,-22.00
-1.00,-5.00,-1.00,+0.00,-2.00,+6.00,-6.00,+3.00,+71.00,-5.00,-2.00,-7.00,-16.00,+0.00,+5.00,+23.00
+1.00,-15.00,+0.00,+0.00,-3.00,-11.00,+4.00,+5.00,+15.00,+9.00,+2.00,+1.00,+17.00,-4.00,-2.00,+4.00
+0.00,-28.00,-1.00,+2.00,+3.00,+3.00,-4.00,-3.00,-35.00,-8.00,-8.00,-8.00,-22.00,-2.00,+0.00,-13.00
+2.00,+21.00,+1.00,+0.00,+3.00,+8.00,+6.00,+5.00,+23.00,+16.00,+6.00,+6.00,+11.00,-4.00,+2.00,+14.00
+1.00,+19.00,+6.00,-6.00,-3.00,-5.00,+1.00,-2.00,+26.00,+9.00,+0.00,-6.00,+17.00,+1.00,-2.00,-1.00
-2.00,-10.00,-2.00,+3.00,-2.00,+4.00,+4.00,-12.00,-32.00,-18.00,-7.00,-5.00,-6.00,-5.00,-5.00,-13.00
-2.00,-10.00,-1.00,-5.00,-3.00,-2.00,-6.00,-4.00,+65.00,+25.00,+4.00,+2.00,-20.00,+2.00,+4.00,+12.00
+0.00,+31.00,+0.00,-9.00,-8.00,-37.00,-2.00,-9.00,-10.00,-9.00,+1.00,+8.00,+21.00,-1.00,-4.00,-19.00
-1.00,-9.00,-5.00,+0.00,+10.00,+40.00,+4.00,-5.00,-23.00,-10.00,-4.00,-5.00,+27.00,+5.00,+5.00,+11.00
+0.00,+4.00,-1.00,-5.00,-5.00,-1.00,-7.00,+0.00,+10.00,+1.00,-2.00,-3.00,-63.00,-11.00,-8.00,-19.00
-1.00,-14.00,-4.00,-2.00,-5.00,+5.00,-1.00,-12.00,-24.00,-14.00,-4.00,-1.00,+20.00,-1.00,-3.00,-7.00
-2.00,+0.00,+0.00,+3.00,+3.00,-27.00,-1.00,-5.00,-5.00,-9.00,-3.00,-11.00,-30.00,-8.00,-2.00,+4.00
+0.00,-5.00,+0.00,+5.00,-3.00,+10.00,-1.00,-1.00,-11.00,+0.00,+2.00,-5.00,-80.00,-7.00,+1.00,-1.00
-4.00,+3.00,+1.00,+3.00,+0.00,+0.00,+2.00,+5.00,-7.00,-5.00,-1.00,+17.00,+81.00,+3.00,-2.00,+2.00
-2.00,+0.00,-2.00,+2.00,-2.00,+4.00,-1.00,-20.00,-13.00,-7.00,-1.00,-3.00,-36.00,+1.00,-3.00,-3.00
-1.00,-11.00,-2.00,-1.00,+0.00,+9.00,+0.00,-3.00,-13.00,-2.00,+0.00,+5.00,+24.00,-3.00,-1.00,-7.00
-1.00,-1.00,-3.00,+0.00,-4.00,-19.00,-10.00,-1.00,+25.00,+3.00,-3.00,-8.00,+7.00,+1.00,-1.00,+9.00
+0.00,+5.00,-3.00,-1.00,+5.00,+5.00,-3.00,-16.00,-4.00,-6.00,-3.00,-8.00,-7.00,+0.00,+2.00,+7.00
+3.00,+0.00,-5.00,-4.00,+0.00,-18.00,+3.00,-3.00,-10.00,+11.00,+1.00,+4.00,-9.00,+3.00,-3.00,-13.00
+1.00,+7.00,+4.00,+3.00,+0.00,+9.00,-7.00,-2.00,+1.00,-1.00,+0.00,-2.00,+17.00,-4.00,+1.00,+11.00
-2.00,-9.00,+0.00,+1.00,+0.00,+1.00,+6.00,-7.00,-20.00,+7.00,+4.00,-2.00,-5.00,-2.00,-5.00,-21.00
-2.00,-2.00,-4.00,+2.00,-9.00,-4.00,-5.00,+5.00,-25.00,+0.00,-1.00,+1.00,+8.00,+1.00,+2.00,+11.00
-1.00,-17.00,-3.00,-2.00,-1.00,-6.00,-1.00,+10.00,-12.00,-17.00,+6.00,+1.00,+1.00,-3.00,+0.00,+0.00
-2.00,+26.00,+4.00,+4.00,+1.00,+16.00,+9.00,+1.00,+41.00,+13.00,-11.00,-2.00,-6.00,-4.00,-2.00,+1.00
+2.00,-10.00,-4.00,-6.00,-3.00,-5.00,-7.00,+7.00,-17.00,-6.00,-6.00,+1.00,+19.00,+0.00,+0.00,+0.00
-4.00,-22.00,-3.00,-5.00,+0.00,-8.00,-1.00,+4.00,+9.00,+1.00,-2.00,-8.00,-9.00,-7.00,-10.00,-14.00
-1.00,-16.00,+1.00,+2.00,+7.00,+3.00,+4.00,+10.00,-20.00,-7.00,-3.00,-1.00,-7.00,+12.00,+12.00,+12.00
-3.00,+9.00,+1.00,+0.00,+2.00,+13.00,-1.00,+1.00,-2.00,-12.00,+1.00,+2.00,+15.00,+7.00,-3.00,-2.00
+0.00,+7.00,+4.00,-4.00,-10.00,-11.00,-4.00,-9.00,-19.00,+11.00,-1.00,+4.00,-5.00,-7.00,-1.00,-4.00
+0.00,+9.00,-3.00,+0.00,+0.00,-8.00,+2.00,+0.00,+6.00,+5.00,+1.00,-3.00,+2.00,-1.00,+0.00,-2.00
-1.00,-2.00,-1.00,+0.00,-5.00,-19.00,-10.00,-8.00,-4.00,-6.00,-2.00,-2.00,-16.00,-5.00,-1.00,+2.00
-1.00,-23.00,-3.00,-1.00,+4.00,+4.00,+0.00,-5.00,+11.00,-4.00,-2.00,-1.00,+29.00,+4.00,+2.00,+5.00
-4.00,+8.00,-2.00,-2.00,+3.00,+21.00,+0.00,-3.00,-1.00,-3.00,-2.00,+1.00,-18.00,-2.00,-2.00,-3.00
-1.00,-9.00,+1.00,-1.00,-1.00,+6.00,+7.00,+1.00,+3.00,-6.00,-2.00,-3.00,-14.00,-2.00,-2.00,+0.00
-1.00,+16.00,+0.00,-2.00,-2.00,-1.00,+0.00,-5.00,-9.00,+0.00,-2.00,-2.00,+9.00,-4.00,-9.00,-10.00
+1.00,-3.00,-1.00,+0.00,-4.00,-10.00,-4.00,-3.00,+2.00,-2.00,+1.00,+0.00,-11.00,-5.00,+2.00,+3.00
+0.00,-5.00,-2.00,-5.00,-2.00,-12.00,-1.00,-5.00,-2.00,-5.00,-1.00,+1.00,-4.00,-2.00,-7.00,-6.00
+0.00,+10.00,+3.00,-1.00,+0.00,-3.00,-1.00,-2.00,-13.00,-5.00,-3.00,-1.00,+1.00,-1.00,+1.00,-4.00
-4.00,+22.00,+4.00,-1.00,-2.00,+1.00,-3.00,-2.00,-17.00,+8.00,+0.00,-3.00,-24.00,+0.00,-5.00,-3.00
-3.00,-4.00,-1.00,-3.00,+1.00,+10.00,+1.00,-5.00,-24.00,-4.00,-3.00,+1.00,+1.00,-2.00,-3.00,-6.00
+0.00,-27.00,-2.00,-1.00,-1.00,-11.00,+0.00,+4.00,+16.00,+5.00,+0.00,-11.00,+8.00,-7.00,+0.00,+0.00
-3.00,+5.00,-3.00,-3.00,-1.00,-1.00,-1.00,+10.00,+10.00,-5.00,-1.00,+8.00,-5.00,+16.00,+5.00,+5.00
+2.00,+10.00,+2.00,+2.00,+0.00,+2.00,+3.00,+2.00,+6.00,-4.00,-2.00,+3.00,+14.00,-1.00,-2.00,+6.00
+3.00,-9.00,-3.00,-1.00,-1.00,+4.00,+1.00,+2.00,-20.00,-7.00,-1.00,-1.00,+2.00,-1.00,-3.00,-4.00
-1.00,+13.00,+2.00,+4.00,+0.00,-5.00,-3.00,-3.00,-7.00,-14.00,-3.00,-2.00,-5.00,-1.00,-4.00,-11.00
-2.00,-2.00,+0.00,-3.00,-1.00,-6.00,-17.00,+1.00,-8.00,+15.00,+3.00,-2.00,+3.00,-5.00,-1.00,+0.00
+3.00,+7.00,-1.00,-1.00,-1.00,+6.00,+24.00,-2.00,+24.00,-4.00,+0.00,-6.00,+6.00,+0.00,-2.00,+4.00
-4.00,-21.00,-3.00,-3.00,-2.00,+0.00,-9.00,-3.00,+2.00,+2.00,-3.00,-2.00,+18.00,-1.00,-4.00,-4.00
+3.00,+13.00,+1.00,-2.00,+1.00,+1.00,+0.00,+8.00,-11.00,-10.00,-3.00,-4.00,-40.00,-1.00,-1.00,+1.00
-1.00,+2.00,+0.00,-1.00,-1.00,-1.00,-1.00,+0.00,+5.00,+8.00,+4.00,-1.00,-4.00,-3.00,+3.00,+7.00
-1.00,-1.00,+0.00,-1.00,+0.00,+8.00,-8.00,-5.00,-14.00,-3.00,-2.00,+3.00,-5.00,-8.00,-4.00,-10.00
+1.00,-7.00,-1.00,-2.00,-4.00,+3.00,+1.00,-3.00,+5.00,+9.00,+10.00,+3.00,-8.00,-3.00,+0.00,+3.00
-2.00,-8.00,-4.00,+0.00,-1.00,-6.00,+4.00,-2.00,-9.00,+2.00,-4.00,+1.00,+33.00,+5.00,+0.00,+1.00
+0.00,+9.00,-2.00,+1.00,-1.00,-2.00,-5.00,-3.00,+23.00,-1.00,-7.00,-8.00,+1.00,-2.00,-2.00,+0.00
-4.00,+3.00,-2.00,-4.00,-6.00,-4.00,-8.00,-3.00,+26.00,-19.00,-8.00,-3.00,-11.00,-1.00,-3.00,-4.00
+2.00,-5.00,+0.00,+4.00,+7.00,+23.00,+9.00,+2.00,-17.00,+26.00,+5.00,+4.00,+6.00,+5.00,+6.00,+12.00
-1.00,+6.00,+0.00,-3.00,-4.00,-28.00,-5.00,+0.00,+2.00,-1.00,+5.00,+4.00,+13.00,+2.00,-1.00,-5.00
+0.00,-3.00,+0.00,+1.00,+4.00,+13.00,+7.00,-1.00,-8.00,-4.00,+3.00,+0.00,-5.00,-2.00,-1.00,-4.00
-5.00,+2.00,-2.00,-7.00,-1.00,+1.00,-4.00,-1.00,-6.00,-12.00,-3.00,-3.00,+7.00,-3.00,+0.00,-7.00
-1.00,-11.00,-5.00,-5.00,-6.00,-16.00,-3.00,+0.00,+7.00,-11.00,-3.00,-3.00,-10.00,-2.00,-2.00,-1.00
-2.00,+12.00,-1.00,+1.00,-4.00,-3.00,+2.00,-5.00,-9.00,-2.00,-2.00,+0.00,+10.00,+1.00,+0.00,-3.00
+2.00,-4.00,-2.00,+5.00,+5.00,+26.00,-5.00,+0.00,-12.00,-6.00,-3.00,-1.00,-16.00,-4.00,-3.00,-3.00
+2.00,+8.00,-2.00,+5.00,+5.00,-1.00,+2.00,+0.00,-3.00,+5.00,-1.00,+1.00,+17.00,+1.00,-1.00,+1.00
-2.00,-15.00,+1.00,-2.00,-2.00,-6.00,-5.00,-3.00,-9.00,-8.00,-3.00,+0.00,-19.00,-1.00,-1.00,-5.00
-4.00,+2.00,-3.00,-2.00,-3.00,+7.00,-1.00,-1.00,+1.00,+3.00,-1.00,-2.00,+8.00,+2.00,+0.00,+0.00
-1.00,+9.00,-2.00,-1.00,-4.00,-14.00,+3.00,+0.00,+0.00,-8.00,-6.00,-7.00,+69.00,-5.00,-5.00,-5.00
-2.00,+2.00,+0.00,+2.00,+0.00,+0.00,-4.00,-2.00,+8.00,+10.00,+8.00,+4.00,-68.00,+7.00,-2.00,+8.00
-1.00,+3.00,-3.00,-5.00,-8.00,-14.00,-2.00,-1.00,+13.00,+0.00,+3.00,+5.00,-6.00,-4.00,+2.00,-4.00
+2.00,-10.00,+1.00,+4.00,+1.00,+29.00,+4.00,+5.00,-3.00,-4.00,-1.00,-1.00,+17.00,+0.00,-1.00,-5.00
-2.00,-4.00,+1.00,-2.00,+3.00,+13.00,+7.00,-2.00,+14.00,-2.00,+3.00,-2.00,-5.00,-4.00,+1.00,-1.00
-4.00,-6.00,-2.00,-3.00,+1.00,-7.00,-6.00,+1.00,+8.00,-4.00,-10.00,-9.00,+16.00,-1.00,+1.00,-1.00
-3.00,-5.00,-12.00,-7.00,+6.00,+9.00,+4.00,+1.00,+2.00,-21.00,-8.00,-8.00,-1.00,-4.00,-5.00,-16.00
-3.00,+2.00,+15.00,-9.00,-4.00,-17.00,-1.00,+3.00,-7.00,-23.00,-4.00,-2.00,-5.00,-2.00,-1.00,-8.00
-1.00,+10.00,-7.00,-4.00,-6.00,-14.00,-2.00,-22.00,+76.00,+36.00,+10.00,+7.00,+4.00,+6.00,+1.00,+11.00
+0.00,-6.00,-1.00,+1.00,+0.00,+13.00,+1.00,-10.00,-4.00,-6.00,+3.00,+0.00,-2.00,-2.00,+0.00,-3.00
-5.00,-11.00,+2.00,+7.00,+1.00,-2.00,+0.00,-7.00,+8.00,+19.00,+1.00,+1.00,-3.00,+3.00,+0.00,+11.00
-2.00,-2.00,-5.00,-1.00,+0.00,+0.00,-2.00,-1.00,-35.00,-13.00,-3.00,-2.00,+9.00,-3.00,-6.00,-15.00
-3.00,-8.00,-1.00,+0.00,+0.00,-4.00,-1.00,+8.00,-20.00,-12.00,-3.00,-3.00,-23.00,-11.00,-1.00,+9.00
+2.00,+4.00,+0.00,-1.00,+1.00,-10.00,-3.00,+2.00,-26.00,+0.00,+0.00,+2.00,+9.00,+11.00,-1.00,-1.00
-1.00,+11.00,+0.00,+0.00,-3.00,-4.00,-4.00,-1.00,-5.00,-5.00,-3.00,-4.00,+3.00,-3.00,-3.00,+0.00
+0.00,-9.00,-4.00,+0.00,-1.00,-7.00,-2.00,-2.00,-11.00,+2.00,-3.00,+0.00,-3.00,-2.00,-1.00,+0.00
-2.00,+1.00,+3.00,+1.00,-6.00,-5.00,-1.00,+2.00,-17.00,-7.00,-3.00,-2.00,-11.00,+1.00,-3.00,-3.00
-2.00,+0.00,-4.00,-4.00,-1.00,-2.00,-1.00,+0.00,+10.00,+5.00,-4.00,-1.00,-2.00,-6.00,-1.00,+0.00
+1.00,+9.00,+7.00,-2.00,+1.00,+1.00,+3.00,+0.00,-18.00,-9.00,-2.00,-2.00,+12.00,+1.00,-4.00,-7.00
-3.00,-9.00,-6.00,-5.00,-2.00,-8.00,-3.00,-2.00,+13.00,+10.00,+0.00,+3.00,-3.00,+4.00,+5.00,+21.00
+2.00,+2.00,+1.00,-3.00,-8.00,+19.00,-4.00,-4.00,-15.00,-7.00,-3.00,-8.00,+14.00,+2.00,+0.00,-1.00
+3.00,+4.00,-3.00,+3.00,+14.00,-15.00,+4.00,+4.00,-5.00,+2.00,-2.00,+5.00,-44.00,-8.00,-1.00,-2.00
-2.00,+0.00,-3.00,+4.00,+3.00,+23.00,+3.00,-3.00,+12.00,-2.00,-1.00,+1.00,-25.00,+6.00,-2.00,-5.00
-3.00,+2.00,-3.00,+0.00,-4.00,-1.00,+0.00,-2.00,+24.00,+3.00,+1.00,-1.00,+1.00,-2.00,+2.00,-1.00
+3.00,+1.00,+16.00,-1.00,+3.00,+5.00,+2.00,+5.00,+16.00,-3.00,+0.00,+2.00,-15.00,-1.00,-1.00,-5.00
+1.00,-1.00,+0.00,-2.00,-10.00,-16.00,-3.00,+0.00,-3.00,-4.00,+0.00,-3.00,+37.00,-2.00,-4.00,-16.00
+0.00,+15.00,+1.00,-5.00,-4.00,-8.00,-3.00,-2.00,+3.00,-9.00,-6.00,-3.00,+7.00,-5.00,-1.00,-6.00
-1.00,-20.00,+0.00,-1.00,+2.00,+3.00,+3.00,+1.00,+92.00,+18.00,+5.00,+1.00,-18.00,+0.00,+2.00,+2.00
+0.00,-30.00,-5.00,-9.00,+0.00,-23.00,+1.00,-1.00,+0.00,-12.00,-9.00,-3.00,+9.00,+4.00,+0.00,-8.00
-3.00,+7.00,+0.00,-9.00,-2.00,+8.00,+0.00,-2.00,-36.00,-2.00,-3.00,-2.00,+5.00,-3.00,-3.00,-4.00
+1.00,+7.00,+6.00,-20.00,+2.00,-7.00,+0.00,+1.00,-20.00,+1.00,-3.00,-2.00,-6.00,-2.00,-3.00,+2.00
-3.00,+8.00,-6.00,-8.00,-4.00,+2.00,-4.00,-19.00,-71.00,-13.00,+0.00,-2.00,+10.00,+0.00,-1.00,-2.00
+2.00,+0.00,-3.00,+0.00,-1.00,-4.00,+6.00,+2.00,-15.00,+9.00,+7.00,+1.00,-7.00,+1.00,+1.00,+4.00
-1.00,-17.00,+0.00,+6.00,-1.00,+6.00,-8.00,+1.00,-16.00,-4.00,-6.00,-4.00,+0.00,-3.00,-2.00,+3.00
+1.00,+1.00,-1.00,+13.00,-2.00,+8.00,-1.00,-3.00,-10.00,-9.00,-6.00,+0.00,-3.00,-2.00,+1.00,+15.00
+2.00,+3.00,-2.00,+5.00,-1.00,-10.00,-2.00,+4.00,-25.00,-7.00,-3.00,-2.00,+5.00,+0.00,-3.00,+5.00
+1.00,+3.00,-4.00,+5.00,-1.00,-2.00,+1.00,+1.00,-10.00,+4.00,-3.00,+0.00,-8.00,-2.00,-3.00,+9.00
-4.00,-2.00,+0.00,+6.00,-1.00,+4.00,+0.00,-3.00,+2.00,+1.00,+2.00,+1.00,-5.00,-2.00,+0.00,+11.00
-1.00,-7.00,-1.00,+6.00,-1.00,-12.00,-4.00,+2.00,-11.00,+1.00,+2.00,-2.00,+12.00,+0.00,-2.00,+2.00
+0.00,+6.00,+3.00,+1.00,+0.00,-4.00,+0.00,-1.00,-3.00,+1.00,-1.00,-4.00,-4.00,-2.00,-1.00,-1.00
-3.00,-3.00,-6.00,+0.00,-1.00,-5.00,-6.00,-3.00,-39.00,-11.00,-4.00,+0.00,-3.00,+1.00,+2.00,+1.00
-1.00,+0.00,-1.00,+3.00,-12.00,-36.00,-1.00,+0.00,-21.00,-2.00,+1.00,-2.00,+15.00,-11.00,-5.00,-23.00
-2.00,-5.00,-1.00,+5.00,+4.00,+17.00,+0.00,-1.00,+21.00,-16.00,-6.00,-1.00,+19.00,+10.00,-5.00,-3.00
-1.00,-3.00,+0.00,+3.00,+1.00,+3.00,-1.00,+0.00,+53.00,+51.00,+13.00,+8.00,-11.00,+8.00,+9.00,+21.00
-3.00,+4.00,-4.00,-1.00,+1.00,+1.00,-3.00,-2.00,+4.00,-4.00,+0.00,-7.00,-21.00,-4.00,+1.00,+0.00
-1.00,+6.00,+0.00,-9.00,-5.00,-5.00,-5.00,-1.00,+25.00,+1.00,-3.00,+1.00,+12.00,+1.00,+0.00,+8.00
-1.00,-13.00,-1.00,-3.00,-5.00,-11.00,+0.00,-1.00,-9.00,-12.00,-3.00,-4.00,-4.00,-7.00,-5.00,-14.00
+2.00,-2.00,-2.00,-1.00,+2.00,+1.00,+1.00,+1.00,+1.00,-13.00,-4.00,-3.00,+0.00,+1.00,-4.00,-11.00
-2.00,+5.00,+3.00,-1.00,-2.00,-6.00,-4.00,+2.00,+4.00,-5.00,-6.00,-2.00,+13.00,+1.00,-2.00,-5.00
+0.00,-10.00,-5.00,-3.00,-1.00,+10.00,+1.00,-2.00,+18.00,-6.00,+0.00,-5.00,-18.00,+5.00,+0.00,+0.00
+0.00,+8.00,+1.00,+1.00,-2.00,-4.00,-2.00,-3.00,+14.00,+15.00,+5.00,-1.00,-62.00,-18.00,+0.00,-2.00
-2.00,-3.00,-1.00,+5.00,+0.00,+8.00,+0.00,+6.00,-10.00,-9.00,-6.00,+0.00,+36.00,-1.00,-2.00,-6.00
+0.00,-5.00,-9.00,+0.00,-1.00,-2.00,-1.00,+1.00,+4.00,+6.00,+2.00,-2.00,-32.00,+0.00,+0.00,-2.00
+0.00,-1.00,+2.00,-2.00,-1.00,+8.00,+2.00,+1.00,-11.00,-5.00,+1.00,+0.00,+25.00,+0.00,+0.00,-2.00
+1.00,-1.00,+0.00,+1.00,-1.00,+0.00,-1.00,-3.00,-16.00,-1.00,-1.00,-17.00,+8.00,-1.00,+0.00,+0.00
+0.00,+1.00,-2.00,-2.00,-3.00,-7.00,-3.00,-2.00,+79.00,+15.00,+3.00,+16.00,-9.00,+9.00,+5.00,+18.00
-3.00,-6.00,-1.00,+2.00,+0.00,-1.00,+2.00,-1.00,-47.00,-15.00,-2.00,-2.00,+9.00,-12.00,-11.00,-13.00
-1.00,+0.00,+1.00,+0.00,+2.00,+9.00,-1.00,-1.00,+14.00,-4.00,+1.00,+13.00,+14.00,+4.00,-2.00,+5.00
-3.00,-2.00,-1.00,-2.00,-2.00,-2.00,-1.00,+0.00,+18.00,+22.00,+1.00,+4.00,-2.00,-20.00,+3.00,+0.00
-3.00,-3.00,-2.00,-2.00,-5.00,-2.00,-3.00,+0.00,-13.00,-5.00,-4.00,-5.00,+7.00,+27.00,-1.00,-8.00
-2.00,+0.00,-1.00,-3.00,-5.00,-13.00,-2.00,-2.00,-22.00,-9.00,-1.00,-1.00,+8.00,+2.00,+0.00,-7.00
-6.00,-4.00,-5.00,-3.00,-3.00,+12.00,+3.00,-6.00,+57.00,-3.00,+0.00,-3.00,-23.00,+1.00,+3.00,+18.00
+0.00,+25.00,+4.00,-3.00,+5.00,+0.00,-5.00,+1.00,-22.00,+3.00,-2.00,+0.00,+8.00,+2.00,+0.00,+0.00
+4.00,-12.00,+0.00,+1.00,+3.00,-6.00,+4.00,+2.00,-29.00,+21.00,+6.00,-2.00,+1.00,-15.00,+2.00,+9.00
+1.00,+2.00,-2.00,+1.00,+0.00,+3.00,+0.00,+0.00,+5.00,+3.00,+2.00,+1.00,-9.00,+2.00,+1.00,+2.00
-1.00,-1.00,+5.00,+0.00,-1.00,-1.00,+3.00,+0.00,-6.00,+11.00,+3.00,-2.00,-6.00,-3.00,+1.00,+1.00
-3.00,+5.00,-3.00,-3.00,-5.00,+1.00,+1.00,+2.00,-25.00,-19.00,-6.00,-1.00,+9.00,+4.00,-6.00,-19.00
+0.00,+1.00,-3.00,-5.00,-2.00,-4.00,-3.00,-1.00,+16.00,-10.00,-6.00,-6.00,-3.00,-10.00,-4.00,-2.00
-1.00,-1.00,+2.00,-2.00,-3.00,+1.00,-3.00,-1.00,+6.00,+1.00,+1.00,+3.00,+43.00,+7.00,+0.00,+1.00
-4.00,+3.00,+0.00,-4.00,-9.00,-37.00,-6.00,-2.00,-19.00,+1.00,+1.00,-7.00,-56.00,-13.00,+0.00,-5.00
+0.00,-9.00,-2.00,+5.00,+12.00,+39.00,+8.00,+2.00,+17.00,+0.00,+1.00,-1.00,-1.00,+1.00,-2.00,+2.00
-2.00,-2.00,-2.00,-1.00,-2.00,+13.00,-1.00,-1.00,-34.00,-12.00,-3.00,+4.00,+3.00,+5.00,-1.00,-9.00
-1.00,-5.00,+2.00,+5.00,+5.00,+0.00,+0.00,-1.00,+12.00,+2.00,-1.00,-1.00,+14.00,-4.00,-3.00,-4.00
-2.00,+4.00,+1.00,-1.00,-2.00,+3.00,-4.00,-2.00,-2.00,-6.00,-3.00,-3.00,+15.00,-2.00,-1.00,-3.00
+1.00,-7.00,-3.00,-9.00,-4.00,-11.00,-6.00,-5.00,+1.00,+1.00,+2.00,+2.00,+2.00,+5.00,+1.00,+5.00
-3.00,-5.00,+2.00,+5.00,-6.00,-28.00,+2.00,+1.00,-19.00,-5.00,+0.00,-7.00,-9.00,-9.00,-2.00,-5.00
+4.00,+15.00,-1.00,+0.00,+4.00,+20.00,-1.00,+0.00,+11.00,+4.00,-1.00,-1.00,-6.00,+1.00,+3.00,+5.00
+2.00,-22.00,-2.00,+0.00,+0.00,-2.00,+1.00,+0.00,-6.00,+3.00,-1.00,+0.00,-1.00,+0.00,-1.00,+0.00
+2.00,+14.00,+0.00,+0.00,-4.00,-4.00,-1.00,-1.00,+0.00,+1.00,+1.00,+3.00,+20.00,+4.00,+3.00,+5.00
-2.00,+2.00,-1.00,-2.00,+0.00,-7.00,-4.00,+0.00,+1.00,-13.00,-6.00,-2.00,-26.00,-9.00,-6.00,-7.00
+0.00,+7.00,-2.00,+0.00,-3.00,-13.00,-2.00,+1.00,+0.00,-1.00,+1.00,+2.00,-6.00,-2.00,-2.00,+1.00
-3.00,-3.00,-3.00,-1.00,+5.00,+12.00,+1.00,+1.00,-25.00,-3.00,-7.00,-4.00,-1.00,+2.00,-1.00,-7.00
-1.00,-7.00,+0.00,-4.00,-3.00,-11.00,-1.00,+2.00,+10.00,+4.00,+6.00,+2.00,+8.00,+2.00,+3.00,+11.00
+0.00,-15.00,-5.00,-1.00,+2.00,+13.00,+1.00,-1.00,-20.00,-7.00,-9.00,-4.00,+3.00,-6.00,-3.00,-7.00
-1.00,+6.00,+4.00,-4.00,-3.00,-8.00,-1.00,-1.00,-4.00,-1.00,+3.00,+2.00,-11.00,-2.00,-2.00,-6.00
+0.00,+4.00,+0.00,-2.00,+3.00,+19.00,+2.00,-2.00,+49.00,+6.00,-7.00,-3.00,+7.00,-1.00,+1.00,+1.00
-4.00,+3.00,+2.00,-6.00,-7.00,-3.00,-2.00,-2.00,-10.00,+0.00,+1.00,-3.00,-6.00,+0.00,-3.00,+1.00
-1.00,+4.00,-1.00,-4.00,-4.00,-22.00,-4.00,-5.00,-2.00,-4.00,-3.00,-2.00,+4.00,-2.00,-3.00,-3.00
-2.00,-6.00,-1.00,-4.00,-5.00,+6.00,-1.00,-2.00,-2.00,+4.00,+1.00,-1.00,-13.00,+1.00,+1.00,+3.00
+1.00,+1.00,+1.00,+3.00,+12.00,+32.00,+3.00,+3.00,-32.00,-3.00,+1.00,+1.00,+15.00,-1.00,-1.00,-2.00
+0.00,-12.00,-3.00,-1.00,-1.00,-1.00,+0.00,-5.00,-12.00,-1.00,-1.00,+1.00,+7.00,+4.00,-2.00,-6.00
+2.00,+6.00,+1.00,-2.00,+0.00,-1.00,-2.00,-1.00,-5.00,-7.00,+3.00,+0.00,-35.00,-6.00,+1.00,+0.00
-5.00,-7.00,-1.00,-5.00,-3.00,-5.00,-2.00,-2.00,-2.00,+8.00,+2.00,-2.00,+2.00,-4.00,-2.00,+0.00
+1.00,+2.00,-2.00,-5.00,-3.00,-11.00,-3.00,+0.00,+3.00,-8.00,-8.00,-1.00,+3.00,+2.00,-1.00,+5.00
+0.00,-8.00,+0.00,+0.00,+1.00,-8.00,-2.00,-2.00,+4.00,-6.00,-7.00,-4.00,-1.00,+0.00,-2.00,-6.00
-2.00,+0.00,-1.00,-1.00,-3.00,+12.00,-2.00,-4.00,-22.00,-6.00,-7.00,-6.00,+12.00,-4.00,+0.00,+2.00
-1.00,+1.00,+0.00,-3.00,-4.00,-18.00,-2.00,-1.00,+8.00,-7.00,-8.00,-1.00,-8.00,-1.00,-1.00,-3.00
-1.00,+2.00,-2.00,+1.00,+0.00,+7.00,+1.00,+0.00,+1.00,+7.00,+6.00,+1.00,+0.00,+0.00,+3.00,-2.00
+0.00,-15.00,-3.00,-2.00,+1.00,+1.00,-2.00,+0.00,-15.00,-8.00,+5.00,+2.00,-3.00,+0.00,+0.00,-6.00
+2.00,+18.00,+6.00,-1.00,+1.00,+5.00,+3.00,+2.00,+10.00,+0.00,+1.00,-1.00,+6.00,-2.00,+1.00,+4.00
-2.00,-1.00,-3.00,-3.00,+0.00,-1.00,-1.00,+0.00,+7.00,-3.00,-5.00,-3.00,-7.00,-2.00,+1.00,-2.00
-1.00,+5.00,+1.00,+0.00,-2.00,-8.00,-2.00,-1.00,-3.00,+4.00,+1.00,-1.00,+0.00,+0.00,-4.00,-3.00
-2.00,-18.00,-3.00,+1.00,+0.00,+2.00,+2.00,+1.00,-4.00,-2.00,-3.00,+0.00,-1.00,-2.00,-4.00,-3.00
-3.00,-1.00,+1.00,-2.00,-1.00,+4.00,-2.00,-1.00,+0.00,+3.00,+4.00,-3.00,+2.00,-1.00,+0.00,+0.00
+1.00,-2.00,-3.00,+1.00,+0.00,+2.00,-1.00,+2.00,-5.00,+2.00,-1.00,-3.00,-4.00,-1.00,+1.00,+1.00
+2.00,-4.00,+1.00,-1.00,+1.00,+0.00,-2.00,+0.00,-6.00,-1.00,+2.00,-2.00,+0.00,-2.00,+0.00,+5.00
+1.00,+3.00,+2.00,-1.00,-2.00,-9.00,-2.00,-2.00,+10.00,-2.00,+0.00,+0.00,-5.00,+0.00,+0.00,-1.00
+0.00,+1.00,-2.00,-2.00,-1.00,+0.00,-2.00,+2.00,+18.00,+1.00,-2.00,+1.00,+0.00,+0.00,-2.00,+0.00
+1.00,-2.00,-1.00,-2.00,+2.00,+5.00,-1.00,+0.00,+35.00,-4.00,+0.00,+1.00,-2.00,+0.00,-2.00,-3.00
-2.00,+5.00,-1.00,-3.00,-2.00,-3.00,-3.00,-4.00,+92.00,-2.00,-2.00,-1.00,+1.00,-1.00,-3.00,-3.00
+1.00,-5.00,+2.00,+2.00,-3.00,-19.00,-5.00,-4.00,+122.00,+4.00,+1.00,+0.00,-2.00,-3.00,-2.00,-1.00
+0.00,-8.00,-8.00,+0.00,+2.00,+4.00,+1.00,+0.00,+110.00,-4.00,+7.00,+2.00,+0.00,-2.00,-1.00,-8.00
+0.00,-6.00,+7.00,-1.00,+0.00,+9.00,+1.00,-2.00,+6.00,-8.00,-18.00,-6.00,-3.00,-1.00,-1.00,-1.00
+1.00,+10.00,+5.00,+2.00,-4.00,-4.00,+0.00,-3.00,+20.00,+1.00,-2.00,+1.00,-2.00,-3.00,-3.00,-6.00
-1.00,+1.00,+8.00,-2.00,+0.00,+0.00,+1.00,-3.00,-13.00,+2.00,-3.00,-4.00,-4.00,+1.00,+0.00,+9.00
+0.00,+2.00,-1.00,-1.00,+0.00,-1.00,+0.00,-4.00,-94.00,-5.00,-3.00,-3.00,+1.00,-2.00,-1.00,-2.00
-1.00,-9.00,-11.00,+2.00,+0.00,-4.00,+0.00,-2.00,-97.00,+1.00,+3.00,+3.00,-1.00,+0.00,+0.00,-2.00
-2.00,-2.00,+0.00,-4.00,-1.00,+0.00,-1.00,+1.00,-126.00,-6.00,+1.00,-2.00,-2.00,+1.00,-2.00,-7.00
