-1.00,+1.00,-1.00,-2.00,+0.00,+6.00,-1.00,-1.00,-6.00,+3.00,+2.00,+1.00,+5.00,+0.00,-1.00,-2.00
-4.00,-4.00,+0.00,-3.00,-4.00,-21.00,-3.00,-2.00,+4.00,-5.00,+8.00,+0.00,-8.00,-1.00,+0.00,+6.00
+4.00,-3.00,-3.00,+0.00,+2.00,+19.00,+1.00,+0.00,+1.00,+0.00,-20.00,-5.00,+18.00,-1.00,-2.00,-1.00
+2.00,+5.00,+0.00,+0.00,+0.00,-1.00,+0.00,-1.00,-10.00,-5.00,+4.00,-2.00,-21.00,-1.00,+1.00,-2.00
-6.00,-1.00,-1.00,-3.00,-5.00,-2.00,-1.00,-4.00,-3.00,+6.00,+0.00,+1.00,+11.00,+0.00,+1.00,-1.00
-6.00,+10.00,+0.00,+0.00,+1.00,+3.00,+2.00,-1.00,+9.00,+5.00,+4.00,+1.00,-8.00,+0.00,+1.00,-2.00
-3.00,-16.00,-1.00,+1.00,-1.00,-6.00,+1.00,-1.00,-11.00,-13.00,+8.00,+4.00,+4.00,+1.00,-3.00,+0.00
+3.00,+2.00,-1.00,-1.00,-1.00,+4.00,+0.00,+1.00,+2.00,-3.00,+0.00,-5.00,-4.00,-3.00,-2.00,-1.00
+2.00,+2.00,-2.00,-2.00,+1.00,+1.00,-2.00,+0.00,-4.00,+6.00,-9.00,-5.00,-8.00,-2.00,-2.00,-1.00
+2.00,+4.00,-2.00,-4.00,-3.00,-2.00,-4.00,-1.00,-23.00,-16.00,-5.00,-1.00,+6.00,+0.00,-5.00,-8.00
-2.00,+0.00,+0.00,-2.00,+0.00,-1.00,-2.00,+0.00,+63.00,+37.00,+6.00,+4.00,+2.00,+1.00,+2.00,+10.00
-4.00,-12.00,-1.00,-4.00,-3.00,-7.00,-2.00,-1.00,-18.00,-14.00,+1.00,+2.00,+4.00,+0.00,+0.00,-3.00
+3.00,+18.00,+1.00,-3.00,+2.00,+3.00,+2.00,+0.00,+1.00,+4.00,+3.00,-12.00,+19.00,+4.00,-1.00,-1.00
-7.00,+1.00,+3.00,-2.00,-2.00,-1.00,+0.00,-2.00,+0.00,+6.00,+0.00,+5.00,-48.00,-12.00,+1.00,-1.00
-5.00,-4.00,-4.00,-2.00,-1.00,-24.00,-7.00,-7.00,-29.00,-18.00,-7.00,+4.00,+15.00,-5.00,-4.00,-12.00
-5.00,-14.00,-7.00,-4.00,-5.00,-1.00,-3.00,-3.00,-20.00,-13.00,-6.00,-6.00,-16.00,-3.00,-1.00,-6.00
+3.00,+6.00,+5.00,-1.00,+4.00,+25.00,+2.00,+1.00,+8.00,+19.00,-2.00,+2.00,+34.00,+2.00,+3.00,+7.00
+1.00,-2.00,-4.00,+2.00,+1.00,+3.00,+1.00,+0.00,+4.00,-13.00,+1.00,-5.00,+1.00,+3.00,+1.00,+4.00
-4.00,-4.00,+2.00,-4.00,-6.00,-7.00,-2.00,-5.00,-30.00,+5.00,+3.00,-2.00,-17.00,-1.00,-2.00,-10.00
-6.00,+5.00,+0.00,-2.00,+2.00,-4.00,+0.00,-1.00,+26.00,-4.00,-1.00,+0.00,+15.00,-1.00,+1.00,+8.00
+2.00,+8.00,+5.00,+2.00,-1.00,-5.00,-1.00,+2.00,-16.00,-10.00,-6.00,-3.00,-13.00,-6.00,-10.00,-29.00
-6.00,-10.00,-6.00,-6.00,+2.00,-1.00,+0.00,+0.00,+31.00,+6.00,-4.00,-4.00,+18.00,+5.00,+10.00,+39.00
-8.00,-3.00,+4.00,-2.00,-4.00,-5.00,-4.00,-1.00,-19.00,-3.00,+9.00,+4.00,-16.00,-3.00,-2.00,-5.00
+3.00,+21.00,+0.00,+4.00,+1.00,+5.00,+3.00,+2.00,+9.00,+6.00,+1.00,-1.00,-4.00,+4.00,-2.00,-2.00
-2.00,-7.00,-3.00,-1.00,-1.00,-1.00,+0.00,-2.00,-12.00,-8.00,+7.00,+8.00,+48.00,-2.00,-3.00,-8.00
+4.00,-5.00,-2.00,+1.00,+0.00,+3.00,+1.00,+1.00,+2.00,-11.00,-23.00,-5.00,-61.00,-5.00,-3.00,-9.00
-7.00,+7.00,+20.00,-5.00,-1.00,+0.00,-1.00,+0.00,-5.00,-12.00,-5.00,-3.00,+5.00,+0.00,-2.00,-2.00
-6.00,-6.00,-10.00,-6.00,-1.00,-5.00,+0.00,-2.00,-2.00,+2.00,-3.00,-3.00,+28.00,+0.00,-1.00,+1.00
-5.00,+3.00,-6.00,-1.00,-2.00,-9.00,-3.00,-5.00,-7.00,-30.00,-4.00,-8.00,-54.00,-9.00,+2.00,+1.00
+5.00,+6.00,-5.00,+0.00,-4.00,-6.00,-4.00,-5.00,-52.00,+5.00,-1.00,-4.00,-17.00,+4.00,+0.00,-11.00
+0.00,-18.00,-13.00,+1.00,+1.00,+5.00,+1.00,+1.00,-20.00,+8.00,+8.00,+9.00,+54.00,+20.00,-2.00,+3.00
+19.00,+17.00,+10.00,+4.00,+4.00,+2.00,+2.00,+4.00,+7.00,+10.00,+1.00,-1.00,-12.00,-8.00,-3.00,-5.00
+0.00,-7.00,+3.00,-11.00,-11.00,-40.00,-1.00,-1.00,+0.00,+3.00,+6.00,+13.00,+31.00,+6.00,+0.00,+1.00
+4.00,-7.00,-4.00,+8.00,+11.00,+71.00,+3.00,-2.00,+4.00,-20.00,+0.00,-4.00,+8.00,-3.00,-4.00,-2.00
-1.00,+6.00,-11.00,-8.00,-11.00,+0.00,-7.00,-8.00,-2.00,-20.00,-7.00,-9.00,-69.00,-18.00,-1.00,-1.00
+6.00,-5.00,-2.00,+1.00,-5.00,-13.00,-4.00,-2.00,-5.00,+6.00,-7.00,-1.00,+5.00,+0.00,+0.00,-1.00
-18.00,-37.00,+0.00,+2.00,+1.00,+14.00,+2.00,-2.00,-1.00,-13.00,-10.00,-16.00,-15.00,-4.00,-2.00,-1.00
+16.00,-27.00,+10.00,+6.00,+5.00,-14.00,+2.00,+6.00,+3.00,+11.00,-1.00,-7.00,+20.00,-1.00,-7.00,-17.00
+9.00,+23.00,-5.00,-2.00,+1.00,+0.00,+3.00,+5.00,+39.00,+14.00,+6.00,+3.00,-19.00,-2.00,+8.00,+29.00
-14.00,+1.00,+1.00,-6.00,-2.00,+11.00,-1.00,-1.00,+36.00,+3.00,+8.00,+9.00,+13.00,+5.00,+3.00,+9.00
+32.00,-2.00,-5.00,-5.00,-6.00,-9.00,-3.00,+7.00,+0.00,-3.00,+0.00,+3.00,-2.00,-1.00,-1.00,+1.00
-41.00,-17.00,+2.00,-2.00,-2.00,-16.00,+0.00,-12.00,+16.00,+12.00,+3.00,+3.00,+12.00,-2.00,-5.00,-3.00
+15.00,+4.00,+1.00,+12.00,+6.00,+8.00,+0.00,+1.00,-20.00,-3.00,-3.00,-7.00,+9.00,-2.00,-6.00,-11.00
-5.00,-7.00,-4.00,+0.00,+4.00,-19.00,-4.00,-4.00,+1.00,-8.00,-4.00,-6.00,-19.00,-6.00,-4.00,-5.00
+15.00,+6.00,+1.00,-5.00,+0.00,-13.00,-4.00,+3.00,-3.00,+0.00,+2.00,-1.00,-2.00,+10.00,+19.00,+12.00
+2.00,+24.00,+15.00,-3.00,-1.00,+11.00,+2.00,+1.00,-35.00,-13.00,+3.00,+8.00,+19.00,-1.00,-18.00,-21.00
-5.00,-42.00,-6.00,-2.00,-6.00,-17.00,-3.00,-3.00,-24.00,-3.00,-5.00,-5.00,+13.00,-3.00,+2.00,-4.00
-3.00,-3.00,+4.00,+1.00,-3.00,+4.00,-2.00,-1.00,+5.00,+11.00,-3.00,-4.00,-7.00,-4.00,+3.00,+12.00
-8.00,+9.00,-10.00,-1.00,-1.00,-3.00,-1.00,-5.00,-22.00,-30.00,-12.00,-5.00,-64.00,-47.00,-6.00,-46.00
-3.00,-60.00,-8.00,-2.00,-5.00,-15.00,-2.00,-3.00,+98.00,+24.00,+14.00,+10.00,+24.00,+59.00,-5.00,+46.00
+4.00,+107.00,+15.00,+5.00,-1.00,-39.00,-2.00,+5.00,+18.00,+21.00,-1.00,-2.00,+32.00,+15.00,-10.00,+1.00
+7.00,-31.00,+4.00,+8.00,+18.00,+91.00,+12.00,+5.00,+4.00,+4.00,+4.00,+0.00,-14.00,-19.00,-2.00,+25.00
-6.00,+7.00,+18.00,+5.00,+4.00,+5.00,+7.00,+3.00,-16.00,-5.00,+3.00,+0.00,-8.00,+28.00,+6.00,+1.00
-5.00,+0.00,-12.00,-20.00,-10.00,-74.00,-9.00,-6.00,-43.00,-20.00,-8.00,-9.00,-19.00,-26.00,-5.00,-18.00
-11.00,-39.00,-17.00,-10.00,-6.00,+98.00,-1.00,-8.00,+16.00,-6.00,-4.00,+16.00,-1.00,+1.00,+20.00,-8.00
-10.00,+1.00,-14.00,-4.00,-13.00,-22.00,-7.00,-8.00,-11.00,-3.00,+1.00,+0.00,+12.00,+12.00,-2.00,-11.00
-5.00,-2.00,-5.00,+3.00,+2.00,+10.00,-1.00,-2.00,-5.00,-15.00,-1.00,-2.00,+25.00,-11.00,-19.00,-12.00
+5.00,+32.00,+9.00,+1.00,-3.00,-4.00,-2.00,+2.00,-34.00,-16.00,-23.00,-17.00,-2.00,-12.00,+2.00,-38.00
+6.00,-25.00,+4.00,+5.00,+5.00,-21.00,+5.00,+8.00,+25.00,+3.00,+5.00,+1.00,-11.00,-7.00,+11.00,+66.00
-10.00,+0.00,+2.00,+0.00,+6.00,-13.00,+1.00,+0.00,+13.00,+4.00,-8.00,-5.00,+2.00,+2.00,+0.00,-11.00
-8.00,-9.00,-1.00,-3.00,+0.00,+18.00,-2.00,-2.00,+30.00,+29.00,+8.00,+6.00,+4.00,+5.00,+3.00,+20.00
-23.00,+7.00,-4.00,-3.00,+0.00,-1.00,-1.00,+0.00,+3.00,+2.00,+0.00,+3.00,+2.00,-3.00,-11.00,-16.00
+10.00,-21.00,-5.00,-5.00,+0.00,-5.00,+0.00,-1.00,-29.00,-6.00,+1.00,-3.00,-1.00,-9.00,+3.00,-14.00
-7.00,-24.00,-1.00,-2.00,-7.00,-9.00,-7.00,+1.00,-39.00,-14.00,+0.00,+1.00,-13.00,-1.00,+5.00,+5.00
-9.00,+64.00,+5.00,+2.00,+1.00,-6.00,+3.00,+1.00,+7.00,-8.00,-6.00,-4.00,+18.00,+3.00,-6.00,+14.00
+4.00,-3.00,-1.00,-1.00,+1.00,+2.00,-4.00,+2.00,-6.00,+20.00,+2.00,-4.00,-19.00,-3.00,+6.00,-5.00
+4.00,-15.00,-4.00,-6.00,+0.00,-1.00,-1.00,+1.00,-26.00,-31.00,+5.00,-1.00,-2.00,-3.00,-1.00,+16.00
+11.00,+25.00,+0.00,+3.00,-4.00,-13.00,+1.00,-6.00,+61.00,+36.00,+2.00,+2.00,+5.00,+2.00,-1.00,-6.00
+16.00,+3.00,-10.00,-9.00,-10.00,-18.00,-45.00,-20.00,-39.00,+7.00,-3.00,-2.00,-1.00,+5.00,-8.00,-5.00
-11.00,-66.00,+5.00,+9.00,+6.00,+19.00,+41.00,+13.00,+13.00,-24.00,-5.00,-5.00,+12.00,-13.00,-3.00,-5.00
+3.00,+0.00,+3.00,-5.00,-5.00,-29.00,-2.00,+1.00,+18.00,+15.00,+1.00,-4.00,+36.00,+5.00,-8.00,-6.00
-12.00,-34.00,-1.00,+1.00,+9.00,+44.00,+16.00,-4.00,-39.00,-13.00,-2.00,+1.00,-44.00,-10.00,-14.00,-43.00
+11.00,-34.00,-11.00,-3.00,+0.00,+29.00,-14.00,-1.00,+0.00,+4.00,+0.00,+6.00,+8.00,+28.00,+11.00,+22.00
+2.00,+100.00,+3.00,-9.00,-14.00,-38.00,-17.00,-6.00,-7.00,+0.00,+0.00,+4.00,-6.00,-28.00,-4.00,-12.00
+1.00,-23.00,+7.00,+11.00,+10.00,+44.00,+6.00,+4.00,+14.00,-7.00,-6.00,-6.00,+16.00,+0.00,-16.00,-17.00
+9.00,+14.00,-1.00,-7.00,+1.00,+7.00,+1.00,+6.00,+42.00,-5.00,-2.00,-9.00,-11.00,-15.00,-2.00,+6.00
+28.00,-50.00,-15.00,-16.00,-9.00,-17.00,-5.00,-2.00,+9.00,-1.00,-6.00,-9.00,-10.00,+1.00,+1.00,-5.00
+58.00,-19.00,-20.00,-20.00,-19.00,-7.00,-49.00,-7.00,+11.00,+2.00,+8.00,+8.00,+19.00,+9.00,+36.00,+22.00
-16.00,+28.00,+2.00,+17.00,+3.00,-14.00,+68.00,+1.00,-13.00,+9.00,-1.00,-7.00,-42.00,+11.00,-40.00,-19.00
+6.00,+8.00,+2.00,-2.00,-1.00,-21.00,-3.00,-2.00,-74.00,-14.00,-2.00,+3.00,+82.00,+2.00,-9.00,-12.00
-13.00,-13.00,+6.00,+5.00,+10.00,+21.00,+17.00,+5.00,+15.00,-3.00,-1.00,+4.00,-42.00,-19.00,+0.00,+5.00
+20.00,+3.00,-3.00,-6.00,-3.00,+2.00,+1.00,+8.00,+0.00,+16.00,+5.00,-4.00,-4.00,-4.00,-25.00,+22.00
+20.00,-16.00,-2.00,-7.00,-1.00,-12.00,-25.00,+1.00,-15.00,+0.00,-7.00,-6.00,-10.00,+6.00,+32.00,-2.00
-15.00,+9.00,+5.00,+2.00,-1.00,-1.00,-9.00,-4.00,-13.00,-15.00,-3.00,-2.00,+23.00,+11.00,+3.00,-10.00
+1.00,-8.00,-2.00,-6.00,-4.00,-9.00,+24.00,+1.00,+83.00,+37.00,+7.00,+5.00,-2.00,+3.00,+4.00,+24.00
+4.00,-51.00,+1.00,+1.00,+4.00,-1.00,+1.00,-3.00,+26.00,+25.00,+11.00,+1.00,+2.00,+2.00,+10.00,+69.00
-14.00,+56.00,+4.00,-1.00,+4.00,+13.00,-5.00,+0.00,+11.00,-3.00,-2.00,-3.00,-7.00,-13.00,+1.00,-7.00
-10.00,+23.00,-1.00,-1.00,-3.00,-11.00,+0.00,-1.00,-32.00,-19.00,-4.00,-7.00,-17.00,-36.00,-12.00,-6.00
-13.00,+6.00,-3.00,-4.00,-1.00,-9.00,-8.00,-2.00,-24.00,-4.00,+0.00,+2.00,-11.00,+11.00,-12.00,+14.00
-5.00,-1.00,-5.00,-10.00,-2.00,-10.00,-5.00,-5.00,-10.00,-5.00,-5.00,-2.00,-20.00,+1.00,+4.00,-28.00
-15.00,-14.00,+0.00,-1.00,-7.00,+11.00,-7.00,-9.00,+13.00,+0.00,+5.00,+2.00,-3.00,-1.00,+12.00,+34.00
+53.00,-4.00,-5.00,-3.00,+1.00,+0.00,+2.00,+17.00,-11.00,+2.00,-2.00,-6.00,+1.00,+4.00,-6.00,+29.00
+5.00,+25.00,+7.00,+2.00,+0.00,-16.00,-63.00,-11.00,-37.00,-18.00,+0.00,+6.00,-1.00,-3.00,+28.00,-62.00
+30.00,+28.00,+3.00,+5.00,+6.00,+27.00,+80.00,+11.00,+54.00,+34.00,-2.00,-10.00,-25.00,-20.00,-10.00,-27.00
+39.00,-41.00,-8.00,-9.00,-7.00,-28.00,-13.00,-5.00,+26.00,+16.00,+4.00,+8.00,+33.00,+4.00,-12.00,-13.00
-22.00,-4.00,-6.00,-2.00,-9.00,-37.00,+0.00,-14.00,+10.00,-9.00,+1.00,+0.00,-8.00,+13.00,+2.00,-4.00
-100.00,-8.00,-3.00,+1.00,+1.00,+20.00,+6.00,-3.00,-3.00,+6.00,+3.00,+6.00,+41.00,-1.00,-2.00,+35.00
-79.00,+7.00,+4.00,+7.00,+7.00,+36.00,-21.00,-9.00,-44.00,-36.00,-10.00,-6.00,-4.00,+6.00,-10.00,-30.00
-13.00,+18.00,+2.00,+0.00,+5.00,-11.00,+4.00,+8.00,-4.00,-8.00,-5.00,-3.00,-2.00,-35.00,+14.00,-5.00
+17.00,-11.00,+1.00,-8.00,-14.00,-37.00,-12.00,-2.00,-14.00,-2.00,-3.00,-5.00,-15.00,+1.00,+4.00,-17.00
-4.00,-15.00,+0.00,+3.00,+8.00,+67.00,+23.00,+8.00,+74.00,+13.00,+2.00,-10.00,-11.00,-30.00,-11.00,+2.00
-46.00,+1.00,+0.00,+7.00,+0.00,-10.00,-1.00,-9.00,-14.00,+3.00,+0.00,+10.00,+23.00,+13.00,+19.00,+8.00
-27.00,+4.00,-4.00,-4.00,-2.00,+1.00,+0.00,-8.00,-39.00,-34.00,-8.00,-9.00,-26.00,-5.00,-20.00,-44.00
+21.00,-30.00,-4.00,-5.00,-4.00,+3.00,-14.00,-1.00,+11.00,+27.00,+3.00,+5.00,+1.00,+18.00,+14.00,+23.00
+71.00,+25.00,+3.00,-1.00,+0.00,-15.00,+10.00,+21.00,-25.00,-31.00,-4.00,-8.00,+1.00,-4.00,-9.00,+6.00
-50.00,-11.00,+2.00,+16.00,+10.00,+15.00,+1.00,-35.00,+44.00,+12.00,+5.00,-5.00,+21.00,-42.00,-19.00,+26.00
+21.00,+22.00,+0.00,-1.00,-6.00,+2.00,-23.00,-8.00,-14.00,-9.00,-8.00,-11.00,+52.00,+62.00,+63.00,+6.00
+21.00,-6.00,-2.00,-7.00,-2.00,-8.00,-16.00,-7.00,+0.00,-13.00,-5.00,+12.00,-81.00,+24.00,-71.00,+4.00
+66.00,+4.00,+4.00,+4.00,+4.00,-3.00,+51.00,+10.00,+18.00,+36.00,+4.00,+8.00,+37.00,+8.00,+9.00,+4.00
+86.00,-21.00,-3.00,-19.00,-7.00,-19.00,-22.00,+12.00,-8.00,-13.00,-4.00,-4.00,-1.00,-8.00,-10.00,-3.00
-36.00,-6.00,+0.00,+1.00,+9.00,+32.00,+6.00,-1.00,-52.00,-9.00,-2.00,+4.00,+11.00,-23.00,-27.00,-27.00
-65.00,-28.00,-1.00,+2.00,-4.00,-32.00,-13.00,-15.00,+26.00,-15.00,-4.00,-5.00,-43.00,-9.00,+22.00,+3.00
-34.00,+34.00,+0.00,-1.00,-5.00,-5.00,+12.00,+0.00,+8.00,+27.00,-1.00,-5.00,-8.00,+6.00,-8.00,-2.00
+18.00,-6.00,-3.00,-9.00,-6.00,-2.00,-16.00,+4.00,+4.00,-8.00,+4.00,+7.00,-6.00,+17.00,-3.00,-1.00
+3.00,-36.00,-3.00,+4.00,+1.00,-2.00,+13.00,+5.00,-11.00,-16.00,-1.00,-6.00,+3.00,-7.00,-1.00,+6.00
+3.00,+12.00,+0.00,-2.00,-6.00,-4.00,-10.00,+7.00,+13.00,+6.00,+2.00,-3.00,+19.00,-5.00,+12.00,-30.00
-27.00,-27.00,-2.00,+3.00,+3.00,-6.00,-15.00,-19.00,+2.00,-1.00,+0.00,-1.00,-16.00,-5.00,-14.00,-6.00
+18.00,+20.00,+0.00,-4.00,-7.00,-20.00,+10.00,+6.00,+12.00,+8.00,+3.00,+1.00,+16.00,+5.00,+20.00,+14.00
-9.00,+0.00,-2.00,-4.00,-3.00,+3.00,-9.00,-8.00,-2.00,-5.00,-3.00,+1.00,-16.00,-2.00,-12.00,-6.00
+2.00,+21.00,+1.00,+7.00,+6.00,+28.00,-6.00,+10.00,+40.00,+22.00,+0.00,-3.00,+13.00,-6.00,-1.00,-3.00
-18.00,-66.00,-2.00,+0.00,-5.00,-25.00,-10.00,-8.00,-44.00,-14.00,-5.00,-4.00,-3.00,+2.00,-1.00,-12.00
-5.00,-19.00,-3.00,-3.00,+3.00,+18.00,+50.00,+12.00,-7.00,-3.00,-2.00,-2.00,+1.00,-5.00,+2.00,+3.00
+3.00,+18.00,+3.00,+3.00,+1.00,-2.00,-11.00,-1.00,-66.00,-26.00,-8.00,-4.00,-22.00,+1.00,-28.00,-57.00
+10.00,+15.00,-2.00,+1.00,+1.00,+12.00,+20.00,+3.00,+83.00,+52.00,+11.00,+8.00,+10.00,+11.00,+26.00,+82.00
-5.00,+58.00,+4.00,+2.00,+0.00,-6.00,-28.00,-14.00,-77.00,-12.00,-5.00,-5.00,+5.00,-13.00,-1.00,-8.00
+9.00,+6.00,-1.00,+6.00,+6.00,+6.00,+27.00,+6.00,+34.00,-11.00,-4.00,-3.00,-3.00,+11.00,-1.00,-15.00
-2.00,-21.00,-5.00,-18.00,-23.00,-39.00,-22.00,-12.00,-29.00,-11.00,-4.00,+6.00,-2.00,-4.00,+20.00,+10.00
+16.00,-19.00,-2.00,+20.00,+24.00,+46.00,+8.00,+4.00,-26.00,-24.00,-7.00,-11.00,+3.00,-3.00,-20.00,-25.00
-7.00,+8.00,-6.00,-4.00,-3.00,-15.00,+0.00,-3.00,+2.00,+11.00,+1.00,-1.00,-4.00,-3.00,-22.00,+0.00
+5.00,+5.00,-1.00,-6.00,+0.00,-22.00,-26.00,-8.00,-71.00,-30.00,-9.00,-1.00,-12.00,+13.00,+0.00,-64.00
+18.00,+2.00,-3.00,-6.00,-4.00,-3.00,+10.00,+3.00,+32.00,+36.00,+18.00,+10.00,+20.00,-2.00,+17.00,+75.00
+10.00,+6.00,+1.00,-2.00,+3.00,-14.00,-7.00,-8.00,-47.00,-1.00,-3.00,-8.00,+2.00,+33.00,+17.00,-9.00
+20.00,-35.00,+0.00,-3.00,+1.00,-2.00,+27.00,+3.00,+16.00,-11.00,-4.00,-2.00,-19.00,+2.00,-5.00,+12.00
+0.00,+24.00,+0.00,+3.00,+4.00,+21.00,-13.00,-2.00,-51.00,-19.00,-6.00,-1.00,+29.00,-21.00,-6.00,-20.00
+4.00,+26.00,+3.00,-2.00,-6.00,-13.00,-7.00,+4.00,+42.00,+4.00,-1.00,+1.00,-68.00,-22.00,-13.00,-16.00
-33.00,-5.00,+0.00,-7.00,-8.00,-10.00,+3.00,+2.00,-14.00,+8.00,-10.00,-7.00,+4.00,+3.00,-12.00,-42.00
+8.00,-3.00,+5.00,+2.00,-1.00,+2.00,+1.00,+1.00,+15.00,-2.00,+7.00,+1.00,+14.00,+20.00,+24.00,+82.00
-10.00,-12.00,-1.00,-1.00,+0.00,+1.00,-10.00,-8.00,-4.00,+1.00,+6.00,+0.00,+5.00,+7.00,+6.00,+15.00
-2.00,-27.00,-5.00,-2.00,+4.00,+0.00,-3.00,+0.00,+14.00,+9.00,-3.00,-2.00,+0.00,-12.00,-7.00,+3.00
+8.00,+42.00,+0.00,-3.00,-9.00,-6.00,+1.00,+7.00,+8.00,-15.00,+2.00,+0.00,+7.00,-30.00,+26.00,+17.00
-17.00,-10.00,-4.00,-2.00,+1.00,+10.00,+6.00,+4.00,-49.00,-17.00,-11.00,-7.00,-11.00,+3.00,+29.00,-42.00
-8.00,+8.00,+0.00,-3.00,-6.00,-12.00,-42.00,-9.00,+19.00,+28.00,-2.00,+4.00,-4.00,-5.00,+15.00,+32.00
+1.00,+13.00,-3.00,-4.00,+2.00,+2.00,+40.00,+12.00,+102.00,+28.00,+8.00,+3.00,+79.00,+50.00,-12.00,+7.00
-3.00,-53.00,+3.00,+5.00,+6.00,+15.00,+16.00,-3.00,-4.00,-9.00,+0.00,+0.00,-28.00,-16.00,-18.00,-12.00
-4.00,-33.00,-3.00,-9.00,-4.00,-10.00,-2.00,-4.00,-31.00,-17.00,-3.00,-12.00,-15.00,-7.00,-7.00,-20.00
+10.00,+71.00,+6.00,-2.00,-2.00,+2.00,-2.00,+2.00,+11.00,-7.00,+3.00,+16.00,-6.00,-18.00,+13.00,+12.00
+1.00,+9.00,-1.00,+2.00,+2.00,-1.00,-16.00,-4.00,+1.00,-3.00,-10.00,-6.00,-18.00,-27.00,-10.00,+13.00
-5.00,+9.00,-1.00,-6.00,-8.00,-1.00,+18.00,+9.00,-69.00,-16.00,-5.00,-1.00,+19.00,+21.00,-7.00,-52.00
-1.00,-1.00,-2.00,+6.00,+4.00,+4.00,+0.00,-10.00,+80.00,+38.00,+8.00,+2.00,+37.00,-18.00,-1.00,-5.00
+3.00,-1.00,-4.00,-8.00,-1.00,+12.00,-10.00,+12.00,-15.00,-20.00,+0.00,-12.00,+14.00,+35.00,-38.00,-14.00
+4.00,-12.00,+7.00,+11.00,+10.00,+18.00,+3.00,-10.00,-10.00,+13.00,+0.00,+3.00,-51.00,-13.00,+0.00,+3.00
-10.00,+10.00,+2.00,-5.00,-7.00,-38.00,-5.00,-5.00,-13.00,-11.00,+2.00,+10.00,+65.00,+22.00,+9.00,+11.00
+2.00,-1.00,-5.00,-11.00,-3.00,+2.00,-6.00,+2.00,-33.00,-13.00,-6.00,-19.00,-46.00,-22.00,+1.00,+10.00
+3.00,-6.00,-5.00,-5.00,-3.00,+8.00,-27.00,-9.00,-42.00,-13.00,-7.00,+3.00,-26.00,-32.00,-27.00,-56.00
-4.00,+9.00,+1.00,+0.00,+3.00,-11.00,+14.00,+1.00,+44.00,+22.00,+9.00,+8.00,+16.00,+29.00,+14.00,+13.00
-5.00,-85.00,-20.00,-19.00,-7.00,+13.00,+1.00,+6.00,+21.00,-1.00,+1.00,+0.00,-4.00,-9.00,+18.00,+28.00
-1.00,+47.00,+10.00,+11.00,+5.00,-10.00,-6.00,-16.00,-17.00,-13.00,-3.00,-2.00,+64.00,+12.00,-20.00,-18.00
-3.00,+0.00,+10.00,-1.00,+5.00,-2.00,+7.00,-2.00,+7.00,-10.00,-5.00,-9.00,-53.00,-6.00,-3.00,+19.00
-3.00,-10.00,+0.00,-4.00,-5.00,-1.00,-17.00,-9.00,-45.00,-12.00,-9.00,-9.00,-13.00,-10.00,+9.00,-33.00
-4.00,+0.00,-1.00,-2.00,-1.00,-7.00,-11.00,+0.00,-13.00,-9.00,+10.00,+5.00,-16.00,-7.00,+2.00,+25.00
+2.00,-24.00,-9.00,-12.00,-8.00,-3.00,+0.00,+15.00,-16.00,+7.00,+3.00,+4.00,+2.00,-2.00,+1.00,-13.00
-2.00,-37.00,-5.00,-3.00,-2.00,+1.00,+10.00,+4.00,+41.00,+25.00,+0.00,-1.00,+3.00,-1.00,+0.00,+3.00
+6.00,+42.00,+4.00,+2.00,-4.00,-43.00,-16.00,-2.00,-43.00,-24.00,-7.00,-4.00,-8.00,-16.00,-9.00,-17.00
-5.00,+10.00,-1.00,+2.00,+3.00,+0.00,+10.00,+1.00,-1.00,+10.00,-4.00,-5.00,-6.00,-29.00,-16.00,-4.00
-3.00,+15.00,-1.00,-8.00,+1.00,+20.00,-1.00,+0.00,-16.00,-16.00,-1.00,+7.00,+2.00,+27.00,+24.00,-24.00
+4.00,-18.00,+8.00,+8.00,+2.00,-11.00,+11.00,-4.00,+2.00,+15.00,+3.00,-1.00,+11.00,+0.00,+12.00,+12.00
-2.00,-43.00,-11.00,-8.00,+0.00,+32.00,-4.00,-4.00,-16.00,-17.00,-7.00,-12.00,+11.00,+2.00,-22.00,-38.00
+0.00,+11.00,+1.00,-3.00,-5.00,-20.00,-7.00,-4.00,-23.00,+0.00,+0.00,+5.00,-18.00,-28.00,+10.00,+14.00
+0.00,-5.00,+1.00,-4.00,-6.00,-24.00,-31.00,-8.00,-3.00,-10.00,+0.00,+6.00,+13.00,+0.00,-7.00,-8.00
+1.00,+4.00,+2.00,+1.00,-3.00,-8.00,+40.00,+6.00,+54.00,+28.00,+2.00,+2.00,-19.00,+5.00,+5.00,+14.00
+2.00,+46.00,+7.00,+9.00,+14.00,+47.00,+3.00,+21.00,-11.00,-15.00,-2.00,-1.00,+25.00,-25.00,+5.00,-5.00
-4.00,+16.00,+3.00,-1.00,-3.00,+1.00,+3.00,-9.00,+38.00,-3.00,+0.00,+2.00,-10.00,+40.00,-2.00,+2.00
-2.00,+0.00,-3.00,-5.00,-1.00,+4.00,-18.00,-7.00,+22.00,+2.00,-2.00,-5.00,-22.00,-21.00,-16.00,+6.00
-2.00,-52.00,-11.00,-4.00,+0.00,+20.00,-24.00,-14.00,-18.00,-10.00,+1.00,-2.00,+0.00,+20.00,+4.00,-8.00
-2.00,+13.00,+5.00,+8.00,+3.00,-6.00,+11.00,+10.00,+12.00,+6.00,-3.00,-4.00,+11.00,-19.00,-6.00,+5.00
+0.00,+23.00,+4.00,+2.00,+2.00,+5.00,-9.00,-3.00,-29.00,-4.00,-1.00,+0.00,-2.00,+23.00,+7.00,-7.00
-1.00,+3.00,-1.00,-8.00,-9.00,-23.00,+5.00,+7.00,+19.00,-16.00,-2.00,-1.00,-10.00,+9.00,-16.00,-6.00
+3.00,-4.00,-8.00,-3.00,+0.00,-10.00,-7.00,-5.00,-20.00,+13.00,+1.00,-5.00,+26.00,+13.00,+7.00,+0.00
-2.00,-46.00,-5.00,-12.00,-5.00,-8.00,-1.00,-3.00,+27.00,-6.00,+1.00,-3.00,-27.00,-33.00,-15.00,+10.00
+3.00,+49.00,+10.00,+10.00,+6.00,+17.00,+9.00,-4.00,-20.00,+16.00,+2.00,+1.00,+1.00,+17.00,-2.00,-8.00
-3.00,+3.00,+0.00,-7.00,+0.00,-9.00,-5.00,+2.00,-11.00,-4.00,-2.00,+1.00,-8.00,-11.00,+3.00,+0.00
-1.00,-10.00,-2.00,-4.00,-3.00,-5.00,-1.00,+6.00,-27.00,-10.00,-1.00,-2.00,+3.00,+3.00,-11.00,-8.00
+1.00,+5.00,-2.00,-2.00,-6.00,+0.00,-9.00,-11.00,-14.00,-14.00,-4.00,+2.00,-6.00,+4.00,+5.00,-1.00
+0.00,-22.00,-6.00,-3.00,-3.00,+0.00,+2.00,+0.00,-20.00,-2.00,-9.00,-7.00,-3.00,-15.00,-19.00,-26.00
+1.00,+18.00,+5.00,+5.00,+1.00,-2.00,+4.00,+2.00,+45.00,-5.00,+4.00,+3.00,-3.00,-22.00,+6.00,+17.00
+0.00,+13.00,-2.00,-3.00,+2.00,+2.00,+2.00,+0.00,-38.00,-17.00,-4.00,+0.00,+12.00,+45.00,+13.00,-3.00
-1.00,-23.00,-7.00,-9.00,-11.00,-39.00,-12.00,+1.00,-31.00,+4.00,+0.00,+5.00,+6.00,+15.00,+5.00,+6.00
-8.00,+17.00,+1.00,+3.00,+9.00,+31.00,+11.00,-1.00,+42.00,+5.00,-1.00,-3.00,+37.00,-10.00,+1.00,+3.00
-1.00,+16.00,+1.00,+5.00,+2.00,+9.00,-8.00,-3.00,+2.00,-1.00,-4.00,-26.00,-99.00,-7.00,-8.00,-8.00
+0.00,-27.00,-2.00,-4.00,-4.00,-13.00,-1.00,+1.00,+4.00,+1.00,+1.00,+22.00,-4.00,-34.00,-11.00,-2.00
+3.00,+19.00,+3.00,-1.00,-3.00,-7.00,+4.00,-6.00,-1.00,+1.00,-3.00,-4.00,-13.00,+17.00,-7.00,+3.00
-3.00,-7.00,-2.00,+8.00,+9.00,+13.00,-2.00,-7.00,-17.00,-4.00,-3.00,+2.00,+24.00,-26.00,+29.00,+0.00
-4.00,-13.00,-2.00,-5.00,-1.00,-16.00,-5.00,-1.00,+50.00,+10.00,+0.00,+3.00,+34.00,+17.00,-10.00,+29.00
+0.00,+21.00,+0.00,-1.00,+6.00,+31.00,-3.00,+1.00,-10.00,-22.00,-1.00,-11.00,-6.00,-1.00,+3.00,+8.00
-2.00,-25.00,-8.00,-5.00,-2.00,-2.00,+15.00,+3.00,-17.00,+18.00,+3.00,-4.00,-3.00,+6.00,-14.00,-21.00
-1.00,-3.00,+0.00,+1.00,-10.00,-13.00,-11.00,-6.00,-10.00,+7.00,+5.00,+1.00,-11.00,-9.00,+7.00,+22.00
+2.00,-13.00,-2.00,+4.00,-2.00,+3.00,+3.00,+0.00,-12.00,+7.00,+1.00,+5.00,+6.00,+1.00,-4.00,-18.00
+0.00,+5.00,-1.00,+1.00,-7.00,-19.00,+0.00,-3.00,-5.00,-8.00,-3.00,-6.00,-3.00,-6.00,+7.00,+16.00
+1.00,+14.00,+3.00,+2.00,+3.00,+5.00,-23.00,-2.00,-9.00,-10.00,-6.00,-3.00,-1.00,+10.00,+4.00,-9.00
+1.00,-25.00,-6.00,-7.00,+2.00,+6.00,+15.00,+8.00,+7.00,-15.00,+0.00,+1.00,-11.00,-3.00,-15.00,-24.00
+1.00,-19.00,-1.00,-6.00,+1.00,+5.00,+22.00,+4.00,-72.00,-14.00,-11.00,+0.00,+9.00,+3.00,-7.00,-48.00
+2.00,+7.00,+3.00,+3.00,-1.00,-12.00,-18.00,-7.00,+50.00,+14.00,+14.00,+10.00,+15.00,+10.00,+13.00,+49.00
-4.00,-4.00,-4.00,-3.00,-1.00,+7.00,-2.00,+0.00,+50.00,+19.00,+2.00,-6.00,+17.00,-5.00,-1.00,+10.00
-5.00,-60.00,-6.00,-8.00,-6.00,-15.00,-3.00,-2.00,+8.00,+13.00,+2.00,+2.00,-31.00,+2.00,-2.00,+6.00
-6.00,+48.00,+10.00,+2.00,+0.00,-8.00,+0.00,+1.00,-24.00,+2.00,-4.00,+5.00,+6.00,-2.00,-7.00,-8.00
+0.00,+17.00,-1.00,-4.00,+1.00,+5.00,-10.00,+6.00,+9.00,-13.00,-7.00,-5.00,+3.00,-14.00,-12.00,-31.00
+0.00,-53.00,-4.00,+0.00,-5.00,-7.00,+0.00,-5.00,-39.00,-50.00,-19.00,-10.00,+19.00,-2.00,-5.00,-14.00
+1.00,+53.00,+8.00,-2.00,-9.00,-29.00,-2.00,-1.00,+88.00,+57.00,+16.00,-9.00,+43.00,+25.00,+15.00,+44.00
-1.00,+27.00,-1.00,-4.00,+7.00,+24.00,+3.00,-7.00,+0.00,-13.00,+5.00,+11.00,-26.00,-42.00,-7.00,-15.00
+1.00,+1.00,+0.00,+7.00,+6.00,+81.00,+14.00,+2.00,-58.00,+5.00,+1.00,+5.00,-69.00,+20.00,+27.00,-6.00
-2.00,-4.00,-4.00,-4.00,-1.00,-1.00,-40.00,-5.00,-3.00,+3.00,+4.00,+6.00,-12.00,+22.00,+14.00,+20.00
-3.00,-4.00,-3.00,-6.00,-4.00,-8.00,+36.00,+2.00,-24.00,-22.00,-11.00,-2.00,+0.00,-6.00,-26.00,-36.00
+0.00,-20.00,-2.00,-1.00,-4.00,-4.00,+4.00,-3.00,+2.00,+1.00,-2.00,-10.00,+32.00,+1.00,+1.00,+6.00
-3.00,-1.00,+0.00,-7.00,-3.00,-35.00,+0.00,-4.00,-1.00,+3.00,+0.00,-9.00,+19.00,-11.00,-7.00,+0.00
-1.00,+31.00,-5.00,+1.00,-1.00,-2.00,-10.00,-2.00,+18.00,+9.00,-2.00,-2.00,-44.00,-10.00,+0.00,+11.00
-1.00,-12.00,+2.00,+6.00,+3.00,+12.00,-14.00,+0.00,-43.00,-27.00,-11.00,-7.00,+3.00,-13.00,-3.00,-17.00
-1.00,+0.00,+0.00,-1.00,-3.00,-12.00,+5.00,+2.00,+22.00,+15.00,+6.00,+4.00,+4.00,+7.00,+7.00,+28.00
-2.00,-8.00,-1.00,-8.00,-1.00,-16.00,+2.00,+2.00,-12.00,+0.00,-4.00,-3.00,+11.00,-9.00,-12.00,-14.00
+0.00,+3.00,-4.00,-3.00,-3.00,-5.00,+5.00,-2.00,+4.00,+6.00,+4.00,+4.00,-1.00,+14.00,+8.00,+22.00
-4.00,-1.00,-4.00,-2.00,+0.00,-9.00,-18.00,-8.00,+7.00,-14.00,+0.00,-1.00,-7.00,-6.00,-9.00,+12.00
+1.00,-20.00,-7.00,-4.00,-3.00,+0.00,+5.00,+6.00,+11.00,+15.00,+1.00,+3.00,-1.00,+0.00,+3.00,+8.00
-8.00,+9.00,+10.00,+7.00,+3.00,-7.00,+1.00,+0.00,+3.00,-7.00,-9.00,-2.00,+4.00,-2.00,-9.00,-9.00
+1.00,+44.00,+1.00,+2.00,+0.00,+8.00,+10.00,+2.00,-40.00,-35.00,-5.00,-5.00,-3.00,-9.00,-14.00,-51.00
-2.00,+64.00,+7.00,-2.00,+2.00,-23.00,-1.00,+5.00,+52.00,+60.00,+10.00,+5.00,-6.00,+5.00,+13.00,+35.00
-3.00,-27.00,-6.00,-3.00,+2.00,+52.00,-3.00,-4.00,-1.00,-45.00,+0.00,+2.00,+9.00,+10.00,+2.00,+13.00
-1.00,-20.00,-5.00,-7.00,-6.00,-6.00,-5.00,-8.00,+6.00,+35.00,+2.00,-3.00,+48.00,-20.00,-1.00,+10.00
+0.00,-54.00,-16.00,-13.00,-8.00,-18.00,-1.00,-5.00,+16.00,+3.00,+7.00,+6.00,-59.00,+5.00,-8.00,-10.00
+3.00,-15.00,+17.00,+7.00,+3.00,+3.00,-7.00,-4.00,-44.00,-33.00,-14.00,-3.00,-14.00,-10.00,-27.00,-27.00
+4.00,+68.00,+13.00,+7.00,-1.00,-108.00,+22.00,+10.00,-6.00,+2.00,-6.00,-2.00,+1.00,-20.00,-4.00,-7.00
+1.00,+12.00,-2.00,+12.00,+33.00,+88.00,+29.00,+11.00,+10.00,-5.00,+2.00,-2.00,+9.00,+25.00,+15.00,+26.00
-1.00,-10.00,+1.00,-2.00,+4.00,+0.00,+16.00,+3.00,+0.00,+10.00,+3.00,+2.00,+24.00,+9.00,+9.00,+16.00
+1.00,-21.00,-12.00,-5.00,-2.00,-8.00,-20.00,-10.00,-15.00,-14.00,-3.00,-3.00,-10.00,-10.00,-14.00,-25.00
-3.00,-23.00,-5.00,-10.00,-6.00,-5.00,-1.00,-2.00,+2.00,+13.00,+0.00,-3.00,-4.00,+8.00,+9.00,+11.00
+1.00,+2.00,+3.00,-2.00,-9.00,-36.00,-4.00,-1.00,-11.00,-17.00,-6.00,-5.00,+0.00,-6.00,-13.00,-17.00
-2.00,-19.00,+2.00,+0.00,+2.00,-1.00,+3.00,+2.00,+22.00,+20.00,+1.00,+0.00,+18.00,-9.00,-2.00,+12.00
-4.00,-2.00,-9.00,-11.00,-7.00,+15.00,-7.00,+0.00,-23.00,-14.00,+0.00,-3.00,-45.00,-15.00,+11.00,+4.00
-1.00,-15.00,+1.00,+5.00,+0.00,+6.00,-9.00,-17.00,+1.00,-1.00,-1.00,+7.00,+19.00,+6.00,-8.00,-18.00
-1.00,+1.00,-4.00,-5.00,-10.00,-24.00,-13.00,-4.00,+6.00,-2.00,-1.00,+0.00,-20.00,-7.00,-4.00,-1.00
-1.00,+16.00,+3.00,+3.00,+6.00,+21.00,+13.00,+1.00,+8.00,+7.00,+2.00,+1.00,+21.00,+5.00,-5.00,+3.00
+0.00,+2.00,+1.00,-2.00,-1.00,-9.00,+1.00,+3.00,-7.00,-15.00,-1.00,-2.00,+6.00,-1.00,+15.00,+1.00
-2.00,-18.00,-6.00,-2.00,-4.00,+21.00,+0.00,+1.00,+14.00,-2.00,-12.00,-5.00,-8.00,+13.00,-1.00,+3.00
+1.00,-24.00,-5.00,-6.00,-7.00,-18.00,-10.00,+0.00,+45.00,+7.00,+0.00,-5.00,-1.00,-19.00,-2.00,+4.00
-4.00,+41.00,+2.00,-6.00,-6.00,-11.00,-3.00,-4.00,+7.00,-1.00,+2.00,+5.00,+1.00,+8.00,-7.00,-1.00
+1.00,-58.00,+10.00,+9.00,+8.00,+12.00,+9.00,+5.00,+16.00,+2.00,+3.00,-2.00,+5.00,+14.00,+0.00,+0.00
-1.00,+20.00,-3.00,-4.00,+5.00,+5.00,-2.00,+3.00,+75.00,+5.00,+0.00,+1.00,+6.00,-16.00,-15.00,-4.00
+3.00,-16.00,+7.00,-8.00,-7.00,-27.00,+6.00,-5.00,+94.00,-3.00,-1.00,-1.00,-22.00,-8.00,-4.00,-10.00
-2.00,-4.00,+1.00,+8.00,-3.00,-21.00,-10.00,+3.00,+4.00,+0.00,+0.00,-1.00,+4.00,+10.00,-3.00,+6.00
+1.00,-9.00,-13.00,-9.00,-5.00,+5.00,+3.00,-5.00,-46.00,-6.00,-1.00,+2.00,+0.00,-3.00,-2.00,-7.00
-1.00,-17.00,-9.00,-7.00,+0.00,+8.00,-19.00,-8.00,-83.00,+4.00,+2.00,+0.00,+3.00,+19.00,+2.00,-9.00
-2.00,+6.00,+0.00,+1.00,+1.00,-24.00,-3.00,+1.00,-80.00,-9.00,-5.00,-4.00,+3.00,-12.00,-15.00,-8.00
+1.00,-7.00,+3.00,+0.00,+0.00,-5.00,+7.00,-5.00,+9.00,+4.00,+3.00,+1.00,+0.00,-6.00,+18.00,+24.00
-1.00,+13.00,-5.00,-5.00,-4.00,-7.00,-9.00,-2.00,-22.00,+0.00,+0.00,-1.00,+8.00,+4.00,-10.00,-13.00
+3.00,-17.00,+3.00,-2.00,-2.00,+6.00,+1.00,+2.00,-48.00,+5.00,+1.00,-3.00,-1.00,-1.00,+8.00,+7.00
-3.00,+11.00,-4.00,-5.00,-5.00,-11.00,-1.00,-6.00,-75.00,-5.00,+0.00,+1.00,+5.00,+4.00,+12.00,-7.00
-1.00,-13.00,+2.00,-2.00,-2.00,-12.00,-7.00,-7.00,-44.00,+5.00,+0.00,+0.00,-5.00,-1.00,+2.00,+3.00
+1.00,+22.00,-2.00,+5.00,+4.00,+26.00,-2.00,+0.00,-46.00,-16.00,-6.00,-4.00,-1.00,-3.00,-2.00,-5.00
+0.00,-5.00,+2.00,+2.00,+2.00,+4.00,+2.00,+0.00,-1.00,+19.00,+1.00,+2.00,+11.00,-33.00,-26.00,-3.00
+0.00,+6.00,-1.00,-6.00,-3.00,+3.00,-3.00,+2.00,-103.00,-6.00,+1.00,-1.00,-8.00,+14.00,-1.00,-6.00
+1.00,-5.00,-5.00,-2.00,+2.00,+13.00,+2.00,+3.00,-49.00,-6.00,-1.00,-3.00,-4.00,-26.00,+1.00,-16.00
+0.00,+6.00,-2.00,-4.00,-2.00,-14.00,-4.00,-1.00,+15.00,+1.00,-4.00,+0.00,+10.00,+35.00,-7.00,+0.00
-1.00,+0.00,+1.00,+0.00,-1.00,-3.00,+2.00,-8.00,+40.00,-5.00,+2.00,+0.00,-6.00,+8.00,-1.00,-12.00
+1.00,+6.00,+0.00,+1.00,-2.00,+4.00,+8.00,-5.00,+29.00,-1.00,-3.00,-1.00,+5.00,-1.00,-13.00,-12.00
-2.00,-11.00,+2.00,+1.00,+1.00,-1.00,-11.00,-2.00,+56.00,-3.00,+1.00,-1.00,+3.00,-15.00,-6.00,-26.00
+1.00,-8.00,-8.00,-5.00,-5.00,-10.00,+0.00,+0.00,+89.00,-1.00,-1.00,-5.00,+60.00,-18.00,+5.00,+14.00
-4.00,+42.00,+0.00,+3.00,-3.00,+8.00,-10.00,+4.00,+67.00,+16.00,+1.00,-12.00,-92.00,+20.00,-16.00,-3.00
-1.00,+0.00,-2.00,-2.00,-1.00,-2.00,-5.00,+0.00,+28.00,-2.00,+0.00,+19.00,+21.00,-10.00,+9.00,-4.00
+0.00,+6.00,+1.00,+1.00,-1.00,+10.00,+5.00,+4.00,+14.00,-5.00,+0.00,+0.00,+15.00,-12.00,-1.00,+3.00
-1.00,-2.00,+2.00,+0.00,+1.00,-16.00,+0.00,+3.00,-11.00,-3.00,-1.00,+7.00,-10.00,-17.00,-6.00,-64.00
-3.00,-16.00,-1.00,-4.00,+1.00,+0.00,-17.00,-3.00,-32.00,-9.00,-2.00,-7.00,+33.00,+50.00,+5.00,+8.00
-1.00,-6.00,-4.00,-2.00,-6.00,-11.00,-5.00,+5.00,+4.00,+1.00,+0.00,-11.00,+11.00,+18.00,+21.00,-6.00
+0.00,+17.00,+0.00,+3.00,+3.00,+3.00,+9.00,+4.00,+14.00,+8.00,-1.00,-1.00,-84.00,+4.00,-5.00,-2.00
-4.00,-4.00,-1.00,+1.00,-4.00,-1.00,-9.00,-9.00,-18.00,-3.00,-1.00,-4.00,+43.00,-4.00,-12.00,-1.00
-1.00,-10.00,-2.00,+0.00,+1.00,+1.00,+5.00,-4.00,-13.00,+0.00,-1.00,+6.00,-22.00,-15.00,+4.00,+18.00
-1.00,+7.00,-1.00,-1.00,+2.00,-1.00,-3.00,-4.00,+18.00,+2.00,+0.00,+2.00,-14.00,-11.00,+16.00,+13.00
-5.00,-18.00,-2.00,-2.00,+2.00,+6.00,+6.00,+0.00,-1.00,-4.00,-4.00,-27.00,+64.00,+7.00,-5.00,-5.00
-1.00,-6.00,-4.00,-3.00,-4.00,+4.00,+1.00,+4.00,-2.00,-1.00,+0.00,+7.00,-15.00,-16.00,-22.00,+11.00
+4.00,+10.00,-2.00,+3.00,-3.00,-1.00,+9.00,+5.00,+6.00,+4.00,+8.00,+19.00,-6.00,+63.00,+32.00,-38.00
-2.00,-11.00,-2.00,+0.00,-5.00,-7.00,-1.00,+2.00,+9.00,-3.00,+0.00,+16.00,-31.00,-1.00,+2.00,-1.00
-4.00,-1.00,+0.00,+3.00,+2.00,+16.00,+8.00,+1.00,-23.00,+0.00,-2.00,+3.00,+26.00,+4.00,-8.00,-3.00
-2.00,+3.00,-1.00,-4.00,+0.00,+0.00,-4.00,+7.00,-22.00,-2.00,-2.00,-3.00,-16.00,+0.00,+9.00,+15.00
-2.00,-18.00,-5.00,-5.00,+1.00,-3.00,+17.00,+15.00,-48.00,-12.00,-6.00,-15.00,+41.00,-21.00,-14.00,+13.00
-3.00,+6.00,+0.00,-4.00,-2.00,-2.00,-6.00,+7.00,+48.00,+12.00,+2.00,-6.00,-17.00,+9.00,-9.00,+12.00
+0.00,+2.00,-2.00,+1.00,+0.00,-4.00,+7.00,+47.00,+21.00,+4.00,+2.00,+9.00,-6.00,-24.00,+3.00,+13.00
+1.00,-22.00,-4.00,-7.00,-11.00,-11.00,-34.00,-15.00,+14.00,-3.00,-2.00,-7.00,-1.00,+49.00,+2.00,-11.00
+3.00,-17.00,+2.00,+5.00,+11.00,-17.00,+22.00,+17.00,+6.00,-10.00,-3.00,-4.00,+5.00,+0.00,+7.00,+10.00
-2.00,+4.00,-1.00,+3.00,-1.00,+31.00,-5.00,-4.00,-39.00,+1.00,+0.00,-14.00,+35.00,-17.00,-9.00,-34.00
-1.00,-4.00,+0.00,-2.00,+0.00,+2.00,-5.00,+26.00,+26.00,-3.00,-2.00,+5.00,-87.00,-23.00,+12.00,+9.00
-8.00,+22.00,+1.00,+0.00,+8.00,+25.00,+29.00,-82.00,-5.00,+13.00,+9.00,+33.00,-11.00,+12.00,-26.00,+37.00
-5.00,-1.00,-1.00,-11.00,-13.00,-25.00,-12.00,-38.00,-10.00,-12.00,-10.00,-11.00,+99.00,-9.00,+17.00,-5.00
+2.00,+5.00,+3.00,+0.00,-3.00,-16.00,-7.00,+1.00,-5.00,-2.00,-1.00,-34.00,-37.00,-22.00,-19.00,+13.00
+0.00,+4.00,+2.00,+5.00,+2.00,-26.00,-11.00,-25.00,-21.00,-2.00,+5.00,+27.00,-56.00,+39.00,+18.00,-3.00
-1.00,-4.00,-5.00,-4.00,-6.00,-4.00,+0.00,+10.00,-6.00,-11.00,-6.00,+0.00,+78.00,-5.00,+2.00,-19.00
-1.00,-6.00,-1.00,+2.00,+0.00,+13.00,-10.00,-12.00,-27.00,-7.00,+0.00,-6.00,-116.00,-22.00,-6.00,+2.00
-2.00,+5.00,+2.00,-1.00,+2.00,-1.00,+8.00,-26.00,+20.00,+2.00,-4.00,-24.00,+127.00,-9.00,-13.00,+2.00
-1.00,-6.00,-5.00,-12.00,-17.00,-68.00,-20.00,-27.00,+5.00,-2.00,-3.00,+19.00,-44.00,+3.00,+0.00,-16.00
-6.00,+3.00,+0.00,+1.00,-2.00,-13.00,-49.00,+5.00,+4.00,+1.00,-3.00,-27.00,-96.00,-18.00,+40.00,+30.00
-2.00,+0.00,+2.00,+15.00,+19.00,+53.00,+66.00,+27.00,+3.00,+9.00,-1.00,+22.00,+12.00,-12.00,+12.00,-54.00
+0.00,-5.00,-4.00,+4.00,+8.00,+31.00,-8.00,+8.00,-2.00,-5.00,+4.00,+23.00,+25.00,+16.00,+8.00,+1.00
-1.00,-5.00,-5.00,-7.00,-5.00,+1.00,-2.00,-9.00,+1.00,-2.00,-4.00,-10.00,+52.00,-1.00,-14.00,-10.00
+1.00,+6.00,+0.00,-4.00,-3.00,-21.00,+5.00,+16.00,-4.00,-6.00,-5.00,-13.00,+2.00,-4.00,+12.00,-22.00
-4.00,-5.00,-1.00,-12.00,-11.00,-34.00,-34.00,-10.00,-4.00,-3.00,-4.00,-30.00,+50.00,-3.00,-9.00,+6.00
+2.00,+3.00,+3.00,+4.00,+4.00,-10.00,-4.00,-6.00,+3.00,-2.00,-4.00,+13.00,-64.00,+5.00,-6.00,+5.00
+0.00,+0.00,+2.00,+1.00,+3.00,+23.00,+15.00,-6.00,-15.00,+0.00,+0.00,+3.00,+31.00,+2.00,+1.00,+12.00
+1.00,+6.00,+0.00,+0.00,+0.00,-13.00,+5.00,+30.00,+10.00,+3.00,+4.00,+7.00,+31.00,+0.00,-3.00,+36.00
+0.00,-2.00,-1.00,-10.00,-14.00,-21.00,-21.00,-15.00,+12.00,+11.00,+8.00,-1.00,-27.00,-6.00,-3.00,-3.00
-3.00,-14.00,-6.00,-6.00,+2.00,+55.00,+6.00,-60.00,+30.00,+6.00,+4.00,+3.00,-45.00,+4.00,+25.00,+32.00
+2.00,+4.00,+2.00,+14.00,+9.00,+71.00,+2.00,+0.00,-41.00,-13.00,-8.00,-33.00,+111.00,+12.00,-13.00,-21.00
+0.00,-1.00,+7.00,+12.00,+9.00,-46.00,-2.00,+19.00,+13.00,-9.00,-6.00,+15.00,-106.00,-49.00,-8.00,-21.00
-3.00,-5.00,-9.00,-16.00,+0.00,+17.00,-30.00,-4.00,-15.00,+0.00,-3.00,-24.00,-36.00,+2.00,+3.00,+14.00
-4.00,+2.00,-2.00,-17.00,-24.00,-112.00,+5.00,+0.00,-11.00,+1.00,+0.00,+37.00,+98.00,+24.00,-45.00,-23.00
-2.00,+3.00,+3.00,+21.00,+33.00,+108.00,+20.00,+10.00,-12.00,-5.00,-5.00,-22.00,-33.00,+15.00,-31.00,+0.00
-5.00,+3.00,-4.00,-19.00,-25.00,-63.00,-5.00,-15.00,-2.00,+4.00,+6.00,+34.00,-101.00,+9.00,+57.00,+3.00
+3.00,+3.00,+1.00,+13.00,+19.00,+90.00,+6.00,+33.00,+21.00,-8.00,-4.00,+6.00,-20.00,-8.00,-12.00,-27.00
-4.00,-1.00,-4.00,-23.00,-8.00,-91.00,-20.00,-53.00,+3.00,-2.00,+1.00,-5.00,-78.00,-5.00,-8.00,+19.00
+0.00,+1.00,+2.00,+0.00,-4.00,-53.00,+1.00,+8.00,-6.00,+1.00,-1.00,-2.00,+68.00,+13.00,+11.00,+9.00
-5.00,+9.00,+2.00,+0.00,+1.00,+18.00,+17.00,-4.00,-6.00,-10.00,-9.00,-23.00,+37.00,-8.00,-15.00,-5.00
-3.00,-2.00,+0.00,+12.00,+0.00,+67.00,-20.00,-25.00,+17.00,+18.00,+17.00,+9.00,-31.00,+16.00,+50.00,+41.00
+1.00,+8.00,+3.00,+12.00,+11.00,+76.00,+11.00,+41.00,-24.00,-2.00,-2.00,-20.00,-60.00,-29.00,-12.00,-33.00
-1.00,+1.00,-2.00,-10.00,-9.00,-38.00,-10.00,-13.00,+45.00,+5.00,-5.00,-20.00,+33.00,+64.00,-13.00,-3.00
-2.00,-7.00,-8.00,-9.00,-3.00,-34.00,+0.00,+15.00,-6.00,-2.00,+5.00,+42.00,+15.00,+5.00,-7.00,+18.00
-4.00,+4.00,-2.00,-11.00,-5.00,-28.00,-9.00,+6.00,-12.00,-7.00,-6.00,-14.00,+11.00,+22.00,+21.00,+2.00
+4.00,+0.00,+2.00,+0.00,-24.00,-47.00,-2.00,+18.00,-11.00,-13.00,-8.00,-52.00,-108.00,-39.00,-32.00,-18.00
-3.00,-2.00,-1.00,+5.00,+8.00,+61.00,+6.00,+5.00,-9.00,+10.00,+11.00,+65.00,+38.00,-36.00,+12.00,+15.00
+3.00,+5.00,+3.00,+4.00,-7.00,-9.00,-6.00,-3.00,-13.00,-2.00,-2.00,-29.00,+100.00,+36.00,+0.00,-1.00
-2.00,-2.00,+1.00,+9.00,+10.00,+24.00,+33.00,+1.00,-2.00,-15.00,-9.00,-26.00,-28.00,-7.00,-18.00,+9.00
-2.00,-6.00,+1.00,+10.00,+22.00,+75.00,+6.00,+22.00,-23.00,-1.00,+3.00,+27.00,+110.00,+0.00,+17.00,-10.00
-5.00,-9.00,-8.00,-30.00,-29.00,-98.00,-27.00,-12.00,+5.00,-18.00,-7.00,+13.00,-104.00,-1.00,-4.00,-4.00
-1.00,-3.00,-1.00,-1.00,-8.00,-18.00,+22.00,+11.00,+8.00,+13.00,-2.00,-53.00,+67.00,+9.00,-3.00,-10.00
+2.00,-9.00,-5.00,+2.00,+12.00,+66.00,+10.00,+1.00,+53.00,+12.00,-5.00,-30.00,+81.00,-3.00,-30.00,+24.00
+0.00,+2.00,-1.00,-9.00,+5.00,-14.00,+4.00,-5.00,+18.00,+19.00,+11.00,+64.00,-128.00,-27.00,+0.00,+32.00
+1.00,-9.00,-7.00,-11.00,-16.00,-62.00,-18.00,+5.00,-14.00,-9.00,-2.00,-31.00,-12.00,-63.00,+10.00,+58.00
+11.00,+4.00,+7.00,+29.00,+48.00,+88.00,+3.00,+42.00,-28.00,-28.00,-11.00,-3.00,-33.00,-60.00,-26.00,-33.00
+1.00,+1.00,+1.00,-18.00,-13.00,-128.00,-8.00,-18.00,-5.00,+11.00,+4.00,+38.00,-83.00,-19.00,-38.00,-5.00
+3.00,-3.00,+1.00,+2.00,+3.00,+6.00,+6.00,+20.00,-14.00,-16.00,-13.00,-71.00,+127.00,+61.00,-12.00,+32.00
-1.00,+3.00,+0.00,-10.00,-35.00,-93.00,-25.00,-31.00,+3.00,-15.00,-1.00,+33.00,-115.00,-78.00,-5.00,-37.00
+1.00,-3.00,-8.00,+1.00,+18.00,+63.00,-57.00,-8.00,+23.00,+35.00,+8.00,-41.00,-58.00,-22.00,-3.00,-5.00
+5.00,-1.00,+12.00,+21.00,+15.00,+36.00,+86.00,+16.00,+40.00,-7.00,-8.00,-21.00,+102.00,+29.00,-17.00,+2.00
+3.00,+8.00,+0.00,+0.00,+1.00,-62.00,-5.00,+33.00,-53.00,-19.00,-5.00,+55.00,-59.00,-94.00,+25.00,-11.00
-2.00,-9.00,+0.00,-9.00,+19.00,+31.00,-14.00,+34.00,+1.00,-10.00,+0.00,-6.00,+127.00,+73.00,+16.00,+6.00
-1.00,-6.00,-2.00,+10.00,-19.00,+52.00,+20.00,+30.00,-22.00,-1.00,-12.00,-66.00,-50.00,+72.00,+91.00,+11.00
+5.00,+0.00,-5.00,-12.00,-19.00,-89.00,-114.00,-27.00,-47.00,-6.00,+5.00,+98.00,-73.00,-57.00,-77.00,-60.00
-7.00,-10.00,-10.00,-30.00,-23.00,-41.00,+42.00,+17.00,+3.00,+4.00,-1.00,-45.00,+54.00,+40.00,+80.00,+21.00
+1.00,+13.00,+7.00,+30.00,+25.00,+127.00,+61.00,+54.00,-108.00,-23.00,-14.00,-44.00,+90.00,-22.00,-62.00,-112.00
-2.00,+2.00,-1.00,-9.00,+2.00,-57.00,-1.00,-29.00,+93.00,-3.00,-7.00,+81.00,-12.00,-77.00,+65.00,+19.00
-4.00,-9.00,-9.00,-21.00,-15.00,-46.00,-20.00,+8.00,-2.00,+5.00,+11.00,+38.00,-40.00,-39.00,-65.00,-10.00
-3.00,+2.00,-4.00,+6.00,-7.00,+54.00,-9.00,+19.00,+92.00,+19.00,+2.00,+4.00,-9.00,+87.00,+59.00,+31.00
+3.00,+5.00,+2.00,+8.00,+9.00,-25.00,-5.00,+10.00,-10.00,+14.00,+7.00,+31.00,-48.00,-1.00,-44.00,-28.00
-1.00,+0.00,+3.00,-12.00,+3.00,-16.00,+2.00,-21.00,-10.00,-19.00,-5.00,-19.00,+102.00,-12.00,-86.00,-20.00
-3.00,-34.00,-16.00,-51.00,-48.00,-116.00,-54.00,-36.00,-30.00,-12.00,-9.00,-18.00,+127.00,-12.00,+27.00,-23.00
+0.00,+22.00,+17.00,+58.00,+46.00,+122.00,+89.00,-14.00,-24.00,-5.00,+7.00,+15.00,-19.00,+18.00,-26.00,-22.00
+0.00,+8.00,+1.00,-26.00,-16.00,-113.00,-25.00,+48.00,+58.00,+30.00,+6.00,-87.00,+3.00,+75.00,+16.00,+66.00
+0.00,+13.00,-1.00,-7.00,+1.00,+83.00,-34.00,+1.00,-36.00,+4.00,+11.00,+85.00,-45.00,-39.00,+8.00,+23.00
+1.00,+18.00,+7.00,+36.00,+41.00,+102.00,+120.00,+35.00,-7.00,-2.00,+5.00,+33.00,+65.00,+42.00,-79.00,+47.00
+0.00,-11.00,-11.00,-45.00,-57.00,-128.00,-97.00,-11.00,-48.00,-7.00,-3.00,-25.00,-62.00,-18.00,+6.00,-49.00
-3.00,+1.00,+4.00,+25.00,+51.00,+101.00,+90.00,+5.00,-5.00,+1.00,-6.00,-5.00,+47.00,+31.00,+127.00,+5.00
-7.00,-12.00,-2.00,-10.00,+3.00,-16.00,+15.00,-6.00,-1.00,-12.00,-3.00,-64.00,-34.00,+66.00,-13.00,+6.00
+2.00,-9.00,-4.00,-30.00,-73.00,-115.00,-86.00,-34.00,+51.00,+13.00,-11.00,-3.00,+127.00,+21.00,-48.00,-42.00
-10.00,+3.00,-7.00,+10.00,+50.00,+73.00,+2.00,+4.00,+0.00,+2.00,-5.00,-38.00,-47.00,-15.00,+74.00,-12.00
+0.00,+7.00,+1.00,-3.00,-21.00,-68.00,-9.00,-54.00,+18.00,+12.00,+2.00,+3.00,+54.00,-101.00,-58.00,+54.00
-1.00,-30.00,-19.00,-27.00,-42.00,-127.00,-58.00,-84.00,-2.00,-4.00,+5.00,+68.00,-102.00,-45.00,-19.00,+19.00
-8.00,+3.00,-1.00,+37.00,+78.00,+118.00,+70.00,+39.00,-35.00,+3.00,+15.00,+3.00,+14.00,+47.00,+93.00,+61.00
+6.00,-6.00,-5.00,-3.00,-11.00,-123.00,-31.00,-17.00,-16.00,-11.00,-8.00,-3.00,+127.00,+70.00,+18.00,-16.00
-2.00,-9.00,-11.00,-32.00,-31.00,-96.00,-111.00,-47.00,-20.00,-17.00,-4.00,+34.00,-62.00,-74.00,+17.00,+26.00
-7.00,-25.00,-16.00,-38.00,-78.00,-112.00,-113.00,-72.00,+3.00,+24.00,+10.00,-12.00,+45.00,+57.00,-15.00,+36.00
-7.00,+7.00,+8.00,+40.00,+74.00,+76.00,+66.00,+119.00,-31.00,-1.00,-1.00,-11.00,-128.00,-95.00,-30.00,-33.00
-2.00,-16.00,+0.00,-3.00,+20.00,-88.00,-95.00,-48.00,+2.00,-3.00,+5.00,+20.00,+97.00,-48.00,-1.00,-25.00
-5.00,+2.00,-4.00,-4.00,-15.00,-72.00,-19.00,-91.00,+13.00,+12.00,+7.00,+23.00,-78.00,+28.00,+14.00,+31.00
+2.00,-5.00,-5.00,-9.00,-23.00,-128.00,+57.00,+47.00,+28.00,-11.00,-2.00,-18.00,+7.00,-8.00,+42.00,+5.00
-4.00,+12.00,-1.00,-21.00,-40.00,-43.00,+25.00,-11.00,-4.00,-10.00,-6.00,+15.00,-128.00,-108.00,+63.00,+8.00
+7.00,+15.00,+13.00,+39.00,+23.00,+4.00,-85.00,-24.00,+19.00,+21.00,+7.00,+24.00,-65.00,+57.00,+56.00,+25.00
-6.00,-14.00,-4.00,-40.00,-64.00,-93.00,-62.00,-12.00,-13.00,-16.00,-4.00,-12.00,+116.00,+25.00,-59.00,-47.00
+3.00,+18.00,+21.00,+62.00,+108.00,+113.00,+68.00,+51.00,-22.00,-3.00,-8.00,-40.00,+127.00,+13.00,-79.00,-21.00
+4.00,+4.00,+0.00,+25.00,+15.00,+1.00,-114.00,-61.00,-12.00,-3.00,-10.00,-68.00,+31.00,+68.00,+124.00,+50.00
-1.00,-6.00,-1.00,-12.00,-22.00,-71.00,+98.00,+28.00,-39.00,+2.00,+10.00,+42.00,-6.00,+48.00,+47.00,-41.00
+4.00,-7.00,-6.00,-11.00,-16.00,-34.00,-36.00,+3.00,-13.00,+2.00,-4.00,+6.00,+48.00,+31.00,+51.00,-19.00
+10.00,+11.00,+12.00,+14.00,-42.00,-26.00,-33.00,+7.00,+59.00,+15.00,-1.00,+1.00,+93.00,-28.00,+82.00,+17.00
-3.00,-18.00,-7.00,-44.00,-32.00,-128.00,-27.00,+11.00,-3.00,-10.00,-3.00,-16.00,+66.00,+64.00,+14.00,-30.00
-6.00,-3.00,-7.00,+5.00,+9.00,+12.00,+87.00,+0.00,+13.00,-10.00,+1.00,+18.00,+102.00,-8.00,-128.00,+31.00
+7.00,-12.00,-3.00,+21.00,+17.00,-17.00,-57.00,+5.00,+13.00,+0.00,-10.00,-56.00,-4.00,-43.00,+16.00,-25.00
-13.00,-4.00,-1.00,-4.00,+28.00,+42.00,-119.00,-72.00,-37.00,+9.00,+10.00,+80.00,-32.00,-19.00,+7.00,-60.00
-3.00,+33.00,+23.00,+29.00,+16.00,-51.00,+98.00,+74.00,-13.00,-14.00,-7.00,-3.00,+127.00,+32.00,-29.00,-16.00
+3.00,+3.00,-7.00,-29.00,-52.00,-102.00,-107.00,+16.00,+33.00,+0.00,-2.00,-6.00,+6.00,-94.00,+44.00,+54.00
-2.00,-3.00,-1.00,+13.00,+42.00,+91.00,+43.00,+20.00,+30.00,+11.00,+10.00,+65.00,+39.00,+59.00,+21.00,-10.00
+6.00,-14.00,+2.00,+23.00,+39.00,+51.00,-93.00,-4.00,-39.00,-17.00,-10.00,-42.00,+31.00,-16.00,-40.00,-50.00
+0.00,+22.00,-1.00,+15.00,-5.00,+35.00,-87.00,-29.00,-2.00,+0.00,+3.00,+39.00,-69.00,-55.00,+43.00,-9.00
-5.00,-5.00,-3.00,-11.00,+3.00,-84.00,+119.00,+36.00,+1.00,-20.00,-17.00,-27.00,+51.00,+21.00,-14.00,-56.00
+1.00,+22.00,+12.00,+28.00,+10.00,+90.00,+3.00,+22.00,+36.00,+12.00,+1.00,-28.00,+35.00,+73.00,-72.00,+92.00
-5.00,-6.00,-5.00,-25.00,-44.00,-117.00,-77.00,-31.00,-8.00,+17.00,+21.00,+77.00,-63.00,-4.00,-2.00,+87.00
-2.00,-11.00,-6.00,+8.00,+32.00,+111.00,-54.00,-42.00,-37.00,-7.00,+2.00,-3.00,+117.00,-2.00,+103.00,-58.00
+16.00,+20.00,+16.00,+36.00,+1.00,+43.00,+24.00,+41.00,-4.00,-3.00,-12.00,-66.00,+102.00,+39.00,-32.00,+8.00
-3.00,-16.00,-6.00,-22.00,-15.00,-115.00,-32.00,-11.00,-48.00,-14.00,-8.00,+48.00,+38.00,-28.00,+100.00,-12.00
-12.00,+1.00,-7.00,-53.00,-31.00,-107.00,+34.00,+24.00,+5.00,+5.00,-1.00,+3.00,-14.00,+105.00,+60.00,+20.00
+4.00,+0.00,+2.00,+9.00,-10.00,-45.00,+11.00,-2.00,-27.00,+3.00,+4.00,+15.00,-118.00,+8.00,-77.00,-43.00
-3.00,+22.00,+13.00,+33.00,+30.00,+124.00,+41.00,-48.00,+3.00,-5.00,+1.00,+4.00,+107.00,+23.00,+123.00,+50.00
-3.00,-14.00,-6.00,-11.00,-6.00,-65.00,-23.00,+25.00,+34.00,+4.00,+0.00,-53.00,+44.00,-48.00,+120.00,+12.00
-1.00,+7.00,+4.00,-1.00,-25.00,-58.00,+38.00,-38.00,+0.00,-9.00,-9.00,+11.00,-78.00,+101.00,+124.00,-21.00
-10.00,-3.00,-11.00,-51.00,-18.00,-59.00,-48.00,-6.00,+34.00,+0.00,+0.00,-32.00,-54.00,+51.00,+69.00,+53.00
-8.00,-15.00,-1.00,-9.00,-4.00,-29.00,-128.00,-80.00,+35.00,+8.00,-6.00,-11.00,-45.00,-44.00,-127.00,+6.00
+1.00,-18.00,-9.00,-38.00,-11.00,-54.00,-49.00,-65.00,-33.00,-12.00,-1.00,+32.00,-98.00,-58.00,-118.00,-2.00
-9.00,+29.00,+10.00,+35.00,+88.00,+70.00,+113.00,+31.00,+12.00,-7.00,-6.00,-45.00,+40.00,-24.00,-39.00,-24.00
+5.00,-14.00,-7.00,-48.00,-21.00,-122.00,-56.00,-17.00,+7.00,+1.00,-6.00,-19.00,+82.00,+3.00,+71.00,-1.00
+0.00,-3.00,+2.00,+8.00,-22.00,-99.00,-53.00,-38.00,-29.00,-5.00,+6.00,+42.00,-45.00,-41.00,+25.00,-27.00
-7.00,-9.00,+0.00,+5.00,+31.00,+83.00,+45.00,+26.00,-3.00,-4.00,-2.00,+4.00,+42.00,-48.00,-22.00,-20.00
+5.00,-11.00,-7.00,-15.00,-15.00,+0.00,+105.00,+32.00,-17.00,-12.00,-11.00,-17.00,+86.00,-35.00,-88.00,-7.00
+15.00,+11.00,+13.00,+35.00,+1.00,+6.00,+17.00,+1.00,+29.00,+9.00,+6.00,+49.00,-17.00,-46.00,+58.00,-55.00
-12.00,-22.00,-20.00,-58.00,+15.00,+64.00,+31.00,+44.00,-1.00,+16.00,+4.00,-19.00,-25.00,+55.00,-56.00,-5.00
+2.00,+13.00,+4.00,+17.00,-80.00,-128.00,-64.00,-34.00,+55.00,+19.00,+3.00,+8.00,+56.00,+24.00,-43.00,+25.00
-1.00,+6.00,+21.00,+49.00,+47.00,+127.00,+62.00,+78.00,-13.00,+6.00,+14.00,+23.00,-111.00,-108.00,-83.00,-29.00
-6.00,+7.00,+6.00,+2.00,+14.00,+22.00,+39.00,-8.00,-23.00,-16.00,-10.00,-32.00,+120.00,+23.00,+63.00,-6.00
+8.00,-12.00,-9.00,-39.00,-30.00,-128.00,-49.00,+33.00,+30.00,+0.00,-1.00,+17.00,-21.00,+55.00,+118.00,+18.00
-11.00,-6.00,-7.00,-3.00,-11.00,-67.00,+64.00,-40.00,-8.00,+2.00,+4.00,-13.00,+48.00,+86.00,+28.00,-15.00
+15.00,+6.00,+3.00,+53.00,-48.00,-128.00,-58.00,-37.00,-35.00,-8.00,-10.00,-26.00,+42.00,+21.00,+8.00,+3.00
-11.00,-2.00,+5.00,-20.00,+15.00,-46.00,+57.00,+51.00,+36.00,-5.00,-8.00,-14.00,+82.00,-67.00,-4.00,+23.00
-1.00,-13.00,+3.00,-32.00,+4.00,-93.00,-88.00,+0.00,-20.00,+2.00,+4.00,+14.00,-93.00,-50.00,-86.00,-1.00
+0.00,+12.00,+5.00,+13.00,-5.00,-72.00,-3.00,+19.00,+0.00,-7.00,+2.00,-7.00,+1.00,-4.00,+46.00,-15.00
+9.00,-9.00,-10.00,+18.00,-51.00,-99.00,-44.00,-4.00,+38.00,+4.00,+5.00,+28.00,+92.00,-30.00,+84.00,+48.00
-4.00,+5.00,-3.00,+24.00,+26.00,+76.00,+32.00,-35.00,+8.00,+6.00,+0.00,-16.00,-21.00,+1.00,+17.00,+13.00
+1.00,-8.00,-9.00,-32.00,-14.00,-42.00,-24.00,+9.00,-10.00,-9.00,-6.00,+8.00,+85.00,-39.00,+59.00,-29.00
+0.00,-10.00,+0.00,+35.00,+55.00,+127.00,+69.00,+3.00,+26.00,+10.00,+6.00,+37.00,+11.00,+4.00,-36.00,-17.00
-8.00,+1.00,-10.00,-57.00,-18.00,-72.00,-119.00,-81.00,-23.00,-11.00,-9.00,-31.00,-23.00,+50.00,+46.00,-38.00
+0.00,-16.00,-12.00,-14.00,-35.00,-69.00,+12.00,+8.00,-4.00,+1.00,-7.00,-7.00,-71.00,-28.00,-128.00,-42.00
-5.00,-1.00,-2.00,+32.00,+8.00,+127.00,-69.00,+10.00,+26.00,+11.00,+4.00,+14.00,-81.00,-18.00,-15.00,+6.00
-4.00,-3.00,-3.00,-36.00,+5.00,+28.00,-28.00,+36.00,+8.00,+4.00,+1.00,-18.00,+13.00,-60.00,-8.00,+11.00
-1.00,-11.00,-14.00,-12.00,+5.00,-5.00,-41.00,+30.00,-15.00,-12.00,-10.00,-24.00,+51.00,+22.00,+127.00,-56.00
+4.00,-5.00,-1.00,-5.00,-27.00,-7.00,-67.00,-28.00,-1.00,+11.00,+7.00,-25.00,-65.00,-1.00,-55.00,+65.00
-3.00,+4.00,-3.00,+17.00,+45.00,+92.00,+49.00,-20.00,+28.00,+9.00,+6.00,+6.00,+31.00,+63.00,+13.00,+15.00
+4.00,+1.00,+0.00,+25.00,+0.00,+40.00,-97.00,-4.00,-41.00,-24.00,-15.00,-27.00,-67.00,-3.00,-19.00,-83.00
+2.00,+29.00,+17.00,+29.00,+87.00,+127.00,+127.00,+127.00,+6.00,-5.00,-3.00,-7.00,+45.00,-81.00,-27.00,-17.00
-6.00,-9.00,-10.00,-75.00,-50.00,-128.00,-128.00,-11.00,-23.00,-8.00,-8.00,-25.00,-94.00,-6.00,+3.00,-12.00
+3.00,+7.00,+6.00,+22.00,-15.00,-13.00,-12.00,-1.00,-19.00,+1.00,+0.00,-1.00,+35.00,-48.00,-15.00,+10.00
+0.00,+10.00,+4.00,+29.00,+24.00,+13.00,-24.00,+26.00,-10.00,+0.00,-1.00,+5.00,-29.00,+8.00,+39.00,+32.00
-3.00,-3.00,-1.00,-8.00,-4.00,-5.00,-13.00,-9.00,+42.00,+7.00,+0.00,+6.00,+103.00,+76.00,+38.00,-5.00
-8.00,-11.00,-7.00,-36.00,-37.00,-55.00,-95.00,-61.00,-10.00,+4.00,+8.00,+12.00,+87.00,+27.00,+7.00,+66.00
-2.00,+1.00,+5.00,+12.00,+36.00,+119.00,+98.00,+91.00,-24.00,-17.00,-9.00,-10.00,+37.00,-22.00,-44.00,-35.00
+5.00,+8.00,+1.00,-4.00,+21.00,+16.00,+30.00,+5.00,-24.00,-3.00,-1.00,+0.00,-113.00,-17.00,-71.00,-16.00
+2.00,-5.00,-5.00,-1.00,-27.00,-59.00,-128.00,-35.00,+4.00,-12.00,-12.00,-54.00,+3.00,-25.00,-53.00,-7.00
+1.00,-3.00,+0.00,+17.00,+14.00,+13.00,-42.00,-3.00,-9.00,+1.00,-3.00,+25.00,+6.00,+51.00,+75.00,+11.00
-4.00,+1.00,-10.00,-4.00,-1.00,+41.00,-52.00,-31.00,-19.00,+0.00,+1.00,-6.00,+5.00,+59.00,+50.00,-18.00
+1.00,+6.00,+7.00,+8.00,+4.00,-57.00,-16.00,+26.00,+44.00,+16.00,+8.00,+2.00,+72.00,+13.00,+69.00,+70.00
+11.00,+13.00,+8.00,+4.00,-20.00,-85.00,+6.00,+64.00,-34.00,-5.00,-2.00,-8.00,-79.00,-31.00,+36.00,-19.00
+4.00,-26.00,-6.00,-9.00,+9.00,+73.00,-67.00,-42.00,+33.00,-2.00,-2.00,-10.00,+35.00,+8.00,+49.00,+22.00
+4.00,+6.00,+10.00,+44.00,+1.00,-13.00,+12.00,+13.00,-6.00,+10.00,+6.00,+22.00,+5.00,-44.00,-12.00,+38.00
+4.00,+1.00,+4.00,+8.00,-3.00,-86.00,+78.00,+66.00,-14.00,-5.00,-4.00,+0.00,-32.00,+32.00,+91.00,+0.00
-12.00,+11.00,-11.00,-49.00,-17.00,-69.00,-104.00,-80.00,-4.00,+4.00,+2.00,-2.00,+59.00,+12.00,-17.00,-5.00
+2.00,+3.00,+7.00,+48.00,+28.00,+97.00,-35.00,+12.00,+21.00,+4.00,+6.00,+24.00,-68.00,-17.00,-66.00,+1.00
-3.00,+1.00,+0.00,+10.00,-25.00,-64.00,+3.00,-6.00,+5.00,+5.00,+1.00,-6.00,-19.00,-7.00,-9.00,+21.00
+2.00,-2.00,-7.00,+3.00,-20.00,-85.00,-22.00,-6.00,+4.00,+1.00,-1.00,-2.00,+38.00,-28.00,+17.00,-3.00
-6.00,-15.00,-6.00,-46.00,-11.00,-68.00,+40.00,-6.00,-6.00,-11.00,-7.00,+21.00,+63.00,+8.00,-93.00,-2.00
+15.00,+2.00,+0.00,+67.00,+9.00,+36.00,+54.00,+41.00,-27.00,-3.00,-2.00,-36.00,-8.00,-25.00,-82.00,-3.00
+1.00,+4.00,-1.00,-25.00,+3.00,-25.00,+79.00,-5.00,+3.00,-7.00,-5.00,-5.00,+75.00,-86.00,+60.00,-31.00
-7.00,-8.00,-2.00,-10.00,+1.00,+42.00,-62.00,-29.00,-25.00,-7.00,-3.00,-5.00,-8.00,+28.00,+49.00,-39.00
+2.00,-8.00,+1.00,-14.00,-34.00,-36.00,-2.00,-1.00,+30.00,+9.00,+3.00,-22.00,-7.00,+44.00,+17.00,+40.00
-8.00,+20.00,+8.00,-3.00,-8.00,-126.00,+19.00,+5.00,-14.00,-12.00,-7.00,+20.00,+36.00,-10.00,+62.00,-34.00
+1.00,-9.00,-6.00,-27.00,-29.00,-128.00,-48.00,-10.00,+10.00,+1.00,-5.00,-13.00,-90.00,+12.00,+23.00,+51.00
-7.00,-2.00,-2.00,-5.00,+15.00,+2.00,+16.00,+6.00,-29.00,-5.00,-3.00,+2.00,-25.00,-23.00,-17.00,-17.00
-7.00,-19.00,-17.00,-63.00,-25.00,-7.00,-101.00,-18.00,+18.00,-7.00,-7.00,-16.00,+49.00,+21.00,+13.00,-27.00
+4.00,-2.00,-3.00,+6.00,+30.00,+93.00,+5.00,+6.00,-15.00,+4.00,-1.00,-11.00,+3.00,+3.00,-10.00,+30.00
-4.00,+0.00,-4.00,-12.00,+1.00,-1.00,+19.00,+8.00,-17.00,-5.00,-5.00,-12.00,-5.00,-18.00,-26.00,-34.00
+2.00,+18.00,+10.00,+18.00,+4.00,+33.00,+14.00,-22.00,+15.00,-3.00,-5.00,-11.00,+60.00,+26.00,+43.00,-7.00
-3.00,-4.00,-6.00,-3.00,+14.00,+4.00,+96.00,+39.00,+1.00,+6.00,+5.00,+26.00,+54.00,+82.00,-46.00,+21.00
-5.00,+5.00,-3.00,-31.00,-40.00,-128.00,+5.00,-17.00,+11.00,-3.00,-1.00,-5.00,+54.00,+19.00,+2.00,-5.00
-7.00,-4.00,+7.00,-13.00,+6.00,-4.00,-31.00,-17.00,-13.00,-17.00,-9.00,+6.00,+5.00,-41.00,-71.00,-27.00
+1.00,-6.00,-1.00,+9.00,+12.00,+80.00,+13.00,+8.00,+11.00,+4.00,+7.00,+0.00,+34.00,+38.00,-82.00,+8.00
+0.00,-3.00,+1.00,-4.00,+10.00,+15.00,+9.00,+2.00,-21.00,-4.00,-1.00,+19.00,+39.00,-39.00,-8.00,+15.00
-4.00,+3.00,+0.00,+6.00,-17.00,-45.00,-38.00,-14.00,+6.00,+6.00,+5.00,+7.00,-44.00,+49.00,-50.00,+6.00
+3.00,+9.00,+10.00,+32.00,+28.00,+42.00,+50.00,+65.00,-1.00,-2.00,-4.00,-4.00,+26.00,+10.00,-16.00,+12.00
-2.00,+0.00,-4.00,-25.00,-10.00,-60.00,-27.00,-36.00,+22.00,-3.00,-4.00,+11.00,+82.00,-17.00,+72.00,-5.00
+5.00,-8.00,-1.00,+3.00,-43.00,-33.00,-88.00,+10.00,-15.00,+6.00,+3.00,-8.00,-128.00,-43.00,+43.00,-42.00
-14.00,-7.00,-5.00,-67.00,+4.00,-73.00,-24.00,+5.00,-16.00,-5.00,-1.00,+14.00,+38.00,-35.00,+41.00,-11.00
-2.00,+4.00,-3.00,-8.00,-24.00,-89.00,-53.00,+4.00,+24.00,+4.00,+4.00,-16.00,+6.00,+12.00,+14.00,+20.00
+1.00,+0.00,-1.00,+15.00,+2.00,-53.00,-78.00,-5.00,-23.00,-8.00,-5.00,+8.00,-36.00,-2.00,+7.00,+10.00
-4.00,+1.00,+2.00,+13.00,-5.00,-83.00,+25.00,+3.00,+1.00,+3.00,+2.00,+7.00,+10.00,-9.00,-1.00,+28.00
+0.00,-14.00,-8.00,+6.00,+6.00,+15.00,-27.00,+3.00,-5.00,-1.00,-3.00,-7.00,+27.00,-27.00,-13.00,-7.00
-8.00,-8.00,-4.00,+0.00,+0.00,+59.00,-37.00,-34.00,+18.00,+0.00,+0.00,-8.00,+18.00,+41.00,-24.00,-8.00
+1.00,+0.00,-5.00,-7.00,-1.00,+5.00,+85.00,+27.00,-19.00,-3.00,-1.00,+9.00,+12.00,+1.00,+0.00,-1.00
+3.00,+0.00,-1.00,-23.00,-33.00,-99.00,-14.00,-17.00,-28.00,-6.00,+3.00,-9.00,-82.00,-30.00,-40.00,+0.00
-1.00,+7.00,+5.00,+21.00,+29.00,+100.00,+28.00,+10.00,+34.00,+2.00,+1.00,+3.00,+104.00,+50.00,+60.00,+12.00
-1.00,+2.00,+0.00,-4.00,+6.00,-7.00,-28.00,-25.00,-5.00,+9.00,+10.00,+34.00,-30.00,-12.00,+49.00,+49.00
-3.00,-4.00,-2.00,-22.00,-26.00,-60.00,-99.00,-14.00,-13.00,+2.00,-1.00,-15.00,-33.00,-23.00,-8.00,+5.00
+0.00,+9.00,+9.00,+60.00,+51.00,+90.00,-15.00,+20.00,-5.00,-3.00,-1.00,-3.00,+40.00,+10.00,+26.00,+14.00
+1.00,-4.00,+0.00,-3.00,-2.00,-90.00,+12.00,+4.00,+7.00,+1.00,+2.00,+3.00,-55.00,-31.00,+19.00,+7.00
-4.00,-14.00,-14.00,-17.00,-21.00,-39.00,-83.00,-31.00,-6.00,-13.00,-8.00,-8.00,+69.00,-10.00,-56.00,-42.00
+5.00,+12.00,+6.00,+35.00,+6.00,-31.00,+37.00,+19.00,-15.00,+7.00,+4.00,+11.00,-83.00,+10.00,-11.00,+31.00
-6.00,-12.00,-1.00,-8.00,+13.00,-61.00,+25.00,-14.00,-15.00,-3.00,-1.00,+4.00,-57.00,-19.00,-19.00,-9.00
+2.00,+12.00,+8.00,+30.00,+7.00,+18.00,+67.00,+12.00,-11.00,-8.00,-4.00,-7.00,+12.00,-23.00,-68.00,-25.00
+2.00,+0.00,-1.00,+4.00,-16.00,-37.00,-31.00,-17.00,-11.00,+2.00,-1.00,-8.00,+5.00,+18.00,+21.00,+6.00
+4.00,+0.00,-3.00,-6.00,-31.00,-90.00,-35.00,-8.00,+15.00,+1.00,-4.00,-16.00,+31.00,+2.00,-7.00,-8.00
-4.00,-4.00,-3.00,+26.00,+42.00,+124.00,+77.00,-5.00,+11.00,+2.00,-3.00,-9.00,+14.00,+0.00,-76.00,+12.00
+3.00,-2.00,-3.00,+2.00,-2.00,+11.00,-22.00,-14.00,-10.00,-5.00,-1.00,+4.00,+48.00,-50.00,-35.00,-18.00
+0.00,+1.00,-1.00,+0.00,-12.00,-49.00,+31.00,+17.00,-10.00,-2.00,-4.00,+1.00,-56.00,+29.00,+40.00,+17.00
-3.00,-2.00,-5.00,-15.00,+1.00,+54.00,+18.00,+9.00,-9.00,-4.00,-2.00,-6.00,-23.00,-6.00,-12.00,-29.00
+2.00,+9.00,+5.00,+9.00,-9.00,-85.00,+19.00,-1.00,+9.00,+2.00,+1.00,+4.00,+25.00,-21.00,+19.00,+13.00
+2.00,+1.00,-2.00,-5.00,+12.00,+85.00,-12.00,+0.00,+27.00,+1.00,-5.00,-8.00,+80.00,+18.00,+29.00,+3.00
+6.00,+1.00,+2.00,+49.00,-11.00,-83.00,-67.00,-23.00,+10.00,+2.00,+2.00,+9.00,+15.00,+44.00,-42.00,-11.00
-4.00,-1.00,-4.00,-20.00,+3.00,-59.00,-8.00,-4.00,+6.00,+4.00,+0.00,-24.00,-80.00,-4.00,+61.00,+12.00
-6.00,+3.00,-1.00,+2.00,+31.00,+73.00,+2.00,-3.00,-31.00,-15.00,-5.00,+0.00,+49.00,+16.00,+4.00,-38.00
+9.00,-3.00,+1.00,+8.00,-34.00,-128.00,+66.00,+28.00,+54.00,+5.00,+4.00,+17.00,-54.00,+2.00,+12.00,+28.00
+3.00,+4.00,+8.00,+38.00,+44.00,+62.00,+41.00,+3.00,+2.00,+11.00,+3.00,-14.00,+14.00,-13.00,+37.00,+17.00
-4.00,-10.00,-5.00,-16.00,+9.00,+30.00,-2.00,-16.00,+8.00,+0.00,+0.00,+16.00,+52.00,-7.00,-33.00,-2.00
-1.00,-3.00,-2.00,+0.00,-5.00,+2.00,+16.00,+2.00,+1.00,+0.00,-3.00,-6.00,-8.00,+27.00,+41.00,+0.00
-4.00,-5.00,-4.00,+1.00,-15.00,-43.00,+5.00,-8.00,-11.00,-10.00,-3.00,-11.00,-19.00,+16.00,-6.00,-11.00
-3.00,-4.00,-7.00,-20.00,-5.00,-12.00,+2.00,+6.00,+62.00,-10.00,-7.00,-11.00,-60.00,-27.00,-7.00,-25.00
+4.00,+4.00,+6.00,+32.00,+29.00,+92.00,+33.00,+13.00,+18.00,-3.00,+0.00,-1.00,-5.00,+5.00,-23.00,-1.00
+2.00,+0.00,-1.00,-24.00,-4.00,-75.00,+27.00,+5.00,+15.00,+2.00,+0.00,+2.00,-17.00,-17.00,+5.00,+12.00
-2.00,-13.00,-6.00,-8.00,+1.00,+5.00,-73.00,-3.00,-35.00,-1.00,-1.00,+12.00,+32.00,+5.00,+0.00,+0.00
-6.00,+6.00,+2.00,-18.00,-6.00,-25.00,+32.00,-1.00,-14.00,+4.00,+1.00,-3.00,-55.00,-9.00,+63.00,+15.00
-5.00,+1.00,-1.00,-2.00,-8.00,+11.00,+9.00,+2.00,-51.00,-7.00,-5.00,+12.00,+47.00,+16.00,-10.00,-28.00
+1.00,-1.00,-3.00,-10.00,-2.00,-22.00,-95.00,-17.00,-19.00,+11.00,+7.00,+7.00,+52.00,+3.00,+24.00,+26.00
-6.00,-6.00,-2.00,-23.00,+2.00,+13.00,+54.00,+6.00,-27.00,+1.00,+3.00,+5.00,-32.00,-3.00,+7.00,+0.00
+1.00,-9.00,-1.00,+5.00,+0.00,+29.00,-2.00,-4.00,-14.00,-10.00,-4.00,-19.00,+39.00,+2.00,-12.00,-9.00
-1.00,+4.00,-4.00,-11.00,-6.00,-27.00,-15.00,-4.00,+51.00,+37.00,+11.00,+0.00,-1.00,-9.00,-4.00,+39.00
+2.00,-4.00,+0.00,-3.00,+1.00,-21.00,+4.00,+5.00,-33.00,-5.00,-1.00,-3.00,-13.00,+3.00,-3.00,-18.00
+1.00,-11.00,-7.00,-1.00,-20.00,-76.00,-97.00,-46.00,+0.00,+0.00,-5.00,-8.00,-30.00,+2.00,-1.00,+5.00
-6.00,-4.00,+0.00,-14.00,-5.00,-66.00,-84.00,-2.00,-1.00,-5.00,-3.00,+1.00,+24.00,-24.00,+14.00,-9.00
-1.00,+3.00,+1.00,+10.00,-3.00,-80.00,-8.00,+0.00,+0.00,-14.00,-4.00,+2.00,-43.00,-9.00,-17.00,-4.00
-5.00,+7.00,-4.00,-18.00,-1.00,+43.00,-32.00,-2.00,+42.00,+1.00,-1.00,-8.00,+1.00,-3.00,+3.00,-3.00
+0.00,+4.00,-1.00,-3.00,+3.00,-1.00,-14.00,-16.00,+12.00,-3.00,-1.00,+2.00,-5.00,+2.00,+3.00,-7.00
+6.00,-3.00,-1.00,-2.00,-15.00,-76.00,+5.00,-7.00,+6.00,-14.00,-9.00,-24.00,+109.00,+16.00,-4.00,-15.00
-4.00,-12.00,-3.00,-8.00,+8.00,-2.00,+7.00,+1.00,-10.00,-8.00,+0.00,+27.00,-64.00,-76.00,-7.00,+3.00
-3.00,-1.00,-1.00,-8.00,-6.00,-8.00,-10.00,-10.00,+36.00,+11.00,-1.00,-3.00,-36.00,+18.00,-6.00,-7.00
-1.00,+6.00,+2.00,-14.00,-3.00,-8.00,+33.00,+7.00,+56.00,-2.00,-6.00,-6.00,+10.00,+1.00,-2.00,-3.00
-2.00,-1.00,-4.00,+7.00,+5.00,+75.00,+12.00,+3.00,+1.00,-3.00,-1.00,-5.00,+6.00,-5.00,-16.00,-18.00
-4.00,-1.00,-2.00,-8.00,-4.00,-3.00,+9.00,+1.00,+69.00,+5.00,-2.00,-22.00,+40.00,+4.00,-5.00,+13.00
-2.00,-3.00,-2.00,+3.00,+2.00,+2.00,+16.00,-1.00,-2.00,-4.00,+1.00,+6.00,-19.00,-16.00,+0.00,+22.00
+1.00,+5.00,+4.00,+6.00,+2.00,+48.00,+19.00,+12.00,+15.00,+0.00,+1.00,+1.00,-9.00,-11.00,-3.00,-17.00
+9.00,+11.00,+7.00,+42.00,-2.00,-16.00,+9.00,+11.00,-25.00,-7.00,-6.00,+14.00,-25.00,-21.00,-15.00,-22.00
-5.00,-4.00,-4.00,-27.00,+3.00,+8.00,-72.00,-3.00,-2.00,-11.00,-7.00,-11.00,+14.00,+16.00,+4.00,+6.00
-5.00,+10.00,+3.00,+19.00,+4.00,+12.00,-31.00,-16.00,+62.00,+36.00,+19.00,+7.00,-25.00,-7.00,+0.00,-5.00
+0.00,-3.00,+0.00,+5.00,+10.00,-1.00,+51.00,+22.00,-17.00,-14.00,+8.00,-1.00,-26.00,+17.00,+6.00,+8.00
+1.00,-12.00,-3.00,-29.00,-11.00,-32.00,-13.00,-7.00,-45.00,-20.00,-30.00,-33.00,-22.00,-4.00,-8.00,+5.00
-1.00,+7.00,+4.00,+18.00,+10.00,+34.00,+20.00,-7.00,-54.00,+3.00,-2.00,+6.00,-60.00,-22.00,-1.00,-3.00
-1.00,+5.00,+2.00,-1.00,-6.00,-21.00,+7.00,+6.00,-74.00,-16.00,-14.00,-8.00,+16.00,+7.00,-4.00,-5.00
+1.00,-4.00,-3.00,+0.00,-10.00,-8.00,-21.00,-8.00,-51.00,+15.00,+11.00,-6.00,-17.00,-9.00,-4.00,+0.00
-1.00,+1.00,-2.00,-6.00,+4.00,+46.00,+13.00,-2.00,-48.00,+6.00,+11.00,+7.00,-7.00,-8.00,-8.00,+1.00
+1.00,-9.00,-2.00,-17.00,-15.00,-48.00,+6.00,+1.00,-52.00,-21.00,-7.00,-8.00,+29.00,+22.00,-6.00,-11.00
+0.00,-4.00,+2.00,-2.00,+13.00,+63.00,+51.00,+14.00,-52.00,-5.00,-2.00,-8.00,-5.00,-12.00,+0.00,+4.00
-1.00,+1.00,-1.00,-2.00,-8.00,-30.00,-17.00,-11.00,-26.00,+16.00,+5.00,+3.00,-1.00,-5.00,+2.00,+7.00
-4.00,+1.00,-7.00,-63.00,-36.00,-83.00,-53.00,-11.00,+10.00,+12.00,+17.00,+12.00,-16.00,+0.00,+2.00,+8.00
-2.00,-2.00,+3.00,+13.00,+49.00,+101.00,+84.00,+14.00,-2.00,-16.00,-30.00,-28.00,+74.00,+15.00,+3.00,+3.00
-2.00,-22.00,-6.00,-12.00,-19.00,-86.00,-8.00,-8.00,-29.00,-11.00,-3.00,+25.00,-63.00,+1.00,-2.00,-4.00
-9.00,+27.00,-2.00,+10.00,+2.00,+2.00,-2.00,-3.00,-18.00,-26.00,-9.00,-2.00,-35.00,-4.00,-5.00,-7.00
+0.00,-3.00,-2.00,-2.00,-1.00,-28.00,-2.00,+7.00,+20.00,+16.00,-2.00,+5.00,+24.00,-4.00,-4.00,-15.00
+0.00,-4.00,-3.00,-3.00,-19.00,-42.00,-26.00,-16.00,+25.00,+8.00,+12.00,+2.00,-4.00,+29.00,+0.00,+25.00
+1.00,-2.00,+1.00,-1.00,+6.00,+15.00,+7.00,+0.00,+15.00,-14.00,-5.00,+4.00,+10.00,-18.00,-11.00,-12.00
+1.00,-11.00,-4.00,+0.00,+7.00,-7.00,+3.00,+3.00,+14.00,-5.00,-7.00,-4.00,-11.00,-5.00,-3.00,-15.00
-1.00,+6.00,-1.00,-4.00,+4.00,+29.00,+8.00,-1.00,+64.00,+10.00,+7.00,+5.00,+5.00,+0.00,-4.00,+14.00
-2.00,-1.00,-3.00,-4.00,-9.00,-15.00,-14.00,-10.00,-15.00,+9.00,+23.00,+5.00,+6.00,+3.00,-8.00,-32.00
+2.00,-35.00,-35.00,+8.00,+15.00,+55.00,+24.00,+12.00,+23.00,+40.00,+10.00,+3.00,+1.00,+3.00,+6.00,+20.00
+4.00,+31.00,+39.00,+4.00,-6.00,-16.00,-11.00,+5.00,-18.00,-5.00,+4.00,-1.00,+51.00,+11.00,+1.00,+5.00
-5.00,+16.00,+8.00,-21.00,-30.00,-73.00,-8.00,-3.00,+95.00,-16.00,-32.00,-4.00,+64.00,+16.00,+3.00,-1.00
+6.00,-3.00,+9.00,+38.00,+45.00,+93.00,+28.00,+13.00,+14.00,-14.00,-14.00,-9.00,-58.00,-5.00,-6.00,-16.00
-3.00,+10.00,-6.00,-17.00,-14.00,-104.00,-43.00,-11.00,-20.00,-7.00,+6.00,-1.00,-19.00,-1.00,+2.00,+9.00
-5.00,-9.00,-16.00,-7.00,+1.00,+5.00,-2.00,-5.00,-90.00,+11.00,+22.00,+6.00,+12.00,-11.00,-13.00,-46.00
-1.00,-9.00,-16.00,+3.00,+12.00,+8.00,+6.00,-8.00,-67.00,+34.00,+37.00,+14.00,+15.00,+11.00,+16.00,+44.00
-3.00,+2.00,+8.00,-24.00,-37.00,-113.00,-19.00,-5.00,-48.00,-49.00,-44.00,-15.00,+58.00,+13.00,+9.00,+13.00
+0.00,+7.00,+5.00,+10.00,+11.00,+76.00,+7.00,-1.00,+13.00,-10.00,-4.00,+3.00,-11.00,-3.00,+1.00,+1.00
+2.00,-21.00,-26.00,+8.00,+11.00,+25.00,+2.00,+6.00,-2.00,+4.00,-18.00,-9.00,+16.00,+4.00,+0.00,+10.00
+2.00,-16.00,+16.00,+25.00,+7.00,+33.00,+15.00,+5.00,-65.00,-6.00,+6.00,+11.00,-7.00,-8.00,-10.00,-26.00
-3.00,+19.00,+6.00,-9.00,-19.00,-56.00,-25.00,-15.00,-7.00,-2.00,+13.00,+4.00,+36.00,+0.00,-4.00,+8.00
+3.00,+0.00,+0.00,+22.00,+17.00,+21.00,+15.00,+5.00,+57.00,+39.00,+14.00,-7.00,-53.00,-5.00,+2.00,-4.00
-2.00,-1.00,+16.00,+7.00,+0.00,+44.00,+2.00,+2.00,+70.00,-40.00,-9.00,+0.00,+5.00,+3.00,+8.00,+26.00
-1.00,-6.00,-18.00,+3.00,-2.00,-24.00,+8.00,+8.00,+88.00,+41.00,+5.00,-4.00,-21.00,-2.00,-1.00,+9.00
+4.00,-20.00,-17.00,+11.00,-13.00,-12.00,-7.00,-12.00,-32.00,+1.00,+27.00,+3.00,+24.00,-6.00,-3.00,-15.00
-2.00,+11.00,+14.00,-7.00,-1.00,+20.00,+2.00,-1.00,+1.00,-35.00,-33.00,-16.00,+10.00,+0.00,-9.00,-25.00
-4.00,-11.00,-17.00,+1.00,-7.00,-27.00,+1.00,-3.00,+36.00,+1.00,-17.00,-5.00,-31.00,-6.00,+2.00,+26.00
+1.00,-5.00,-1.00,-1.00,+12.00,+26.00,+3.00,-3.00,+35.00,+7.00,+12.00,+2.00,-16.00,-6.00,-7.00,-15.00
+2.00,-34.00,-42.00,-12.00,-6.00,-10.00,-6.00,+2.00,-11.00,-7.00,+6.00,+2.00,-12.00,-3.00,-2.00,-6.00
+3.00,-13.00,-12.00,+11.00,+0.00,-5.00,+9.00,+3.00,-12.00,-27.00,-17.00,-29.00,+51.00,+19.00,-2.00,+8.00
-3.00,+20.00,+46.00,-11.00,-7.00,-53.00,-9.00,+2.00,-11.00,+27.00,+3.00,+3.00,-41.00,-10.00,-5.00,-15.00
-2.00,-4.00,+16.00,+20.00,-4.00,-3.00,+2.00,+2.00,-50.00,-21.00,-18.00,+0.00,-19.00,-8.00,-2.00,+2.00
-4.00,+45.00,+4.00,-13.00,-12.00,+6.00,-5.00,+2.00,+17.00,+32.00,+19.00,+8.00,+8.00,+3.00,-1.00,-1.00
+3.00,-9.00,-17.00,+7.00,+1.00,-23.00,+5.00,+0.00,-57.00,-16.00,+2.00,-10.00,-55.00,-22.00,-11.00,-24.00
-1.00,-41.00,-69.00,-24.00,-1.00,+2.00,-10.00,-4.00,-30.00,+10.00,-1.00,-9.00,+66.00,+32.00,+10.00,+29.00
+2.00,+9.00,+70.00,+9.00,+3.00,+0.00,+1.00,-1.00,-43.00,-20.00,+6.00,-5.00,-21.00,-5.00,+0.00,-4.00
-1.00,+32.00,+15.00,+25.00,-4.00,-41.00,-9.00,+4.00,-52.00,-16.00,+4.00,+2.00,-41.00,-8.00,-3.00,-3.00
-5.00,-4.00,+2.00,+0.00,+4.00,+38.00,+7.00,+1.00,+45.00,+6.00,-14.00,-22.00,+50.00,-2.00,-4.00,+4.00
+2.00,-2.00,+10.00,+3.00,-1.00,-28.00,-4.00,-11.00,+26.00,+37.00,-18.00,+9.00,-37.00,-24.00,-3.00,-6.00
+2.00,+3.00,-37.00,+2.00,+6.00,+36.00,+4.00,-4.00,-39.00,-59.00,-5.00,+0.00,-1.00,-3.00,-4.00,-14.00
-4.00,-68.00,-24.00,-28.00,-18.00,-63.00,-14.00,-9.00,-21.00,+8.00,+1.00,-1.00,+10.00,+3.00,+0.00,-2.00
+4.00,+34.00,+42.00,+18.00,+8.00,+44.00,+13.00,+15.00,-23.00,-19.00,+0.00,+11.00,+35.00,+0.00,-1.00,+10.00
-1.00,+105.00,+20.00,+10.00,+4.00,+7.00,+10.00,+0.00,+6.00,-6.00,+6.00,-2.00,-5.00,+3.00,-3.00,-19.00
-3.00,-45.00,-32.00,-7.00,+8.00,+9.00,+1.00,-8.00,-4.00,+11.00,+2.00,+9.00,+31.00,+15.00,+9.00,+20.00
-2.00,-25.00,-2.00,-20.00,+5.00,+11.00,-4.00,+0.00,+45.00,+12.00,-8.00,+5.00,-18.00,-15.00,-7.00,-13.00
-3.00,+14.00,+4.00,-19.00,-22.00,-46.00,-7.00,-2.00,+5.00,+4.00,+4.00,+7.00,+32.00,+8.00,+6.00,+13.00
+1.00,-57.00,+8.00,+15.00,+4.00,+34.00,+3.00,-2.00,+15.00,-14.00,-1.00,-8.00,+3.00,-1.00,-4.00,-11.00
-3.00,+17.00,-45.00,-9.00,+0.00,+0.00,+1.00,+6.00,-7.00,-14.00,-6.00,+3.00,-29.00,+3.00,-7.00,-14.00
+2.00,-8.00,+32.00,+3.00,+4.00,+27.00,+3.00,+3.00,+28.00,+6.00,-1.00,-3.00,+8.00,+4.00,+5.00,+18.00
-3.00,-11.00,-8.00,-16.00,-26.00,-114.00,-20.00,-3.00,-1.00,+33.00,+19.00,+17.00,-29.00,-3.00,+2.00,+3.00
+2.00,-24.00,+0.00,-3.00,+12.00,+50.00,+11.00,+4.00,-14.00,-67.00,-27.00,-12.00,+21.00,+2.00,-5.00,-17.00
-4.00,-23.00,-11.00,-2.00,+6.00,+4.00,+3.00,+0.00,+2.00,+57.00,-2.00,-12.00,-3.00,-6.00,+0.00,+7.00
+0.00,+15.00,-1.00,+0.00,+1.00,-13.00,+0.00,+0.00,-59.00,+3.00,+7.00,+14.00,+53.00,+20.00,+4.00,-11.00
-5.00,+56.00,+4.00,-9.00,-2.00,-7.00,-2.00,-3.00,+11.00,+15.00,-4.00,-3.00,-46.00,-8.00,-6.00,-13.00
+2.00,-6.00,+9.00,+1.00,-2.00,-28.00,-1.00,-5.00,+17.00,+36.00,+17.00,+3.00,-5.00,-5.00,+7.00,+14.00
-3.00,-13.00,-32.00,-7.00,+2.00,+2.00,-4.00,-6.00,-29.00,-15.00,-9.00,-13.00,-39.00,-12.00,-2.00,-1.00
+3.00,-27.00,+3.00,-11.00,-6.00,+18.00,+3.00,+0.00,+16.00,+4.00,-4.00,+13.00,+21.00,+2.00,+0.00,-3.00
-1.00,-4.00,+40.00,+1.00,-17.00,-96.00,-18.00,-19.00,-7.00,+5.00,+4.00,-3.00,+39.00,+2.00,+5.00,+17.00
-5.00,-21.00,-17.00,+2.00,+12.00,+87.00,+18.00,+6.00,-63.00,-31.00,-15.00,-26.00,+96.00,+6.00,-8.00,-39.00
+5.00,+35.00,+11.00,+10.00,+14.00,-4.00,+4.00,+0.00,+23.00,-21.00,-4.00,+12.00,-60.00,-69.00,-16.00,-17.00
-6.00,+14.00,-10.00,-12.00,+3.00,-11.00,-3.00,-1.00,-4.00,+39.00,+7.00,-8.00,+46.00,+45.00,+12.00,+32.00
-2.00,-4.00,-8.00,-10.00,+1.00,+8.00,-2.00,-12.00,-74.00,-36.00,-9.00,-3.00,+6.00,-6.00,+1.00,-13.00
+2.00,-25.00,-7.00,-2.00,-8.00,-57.00,-12.00,-5.00,+3.00,+2.00,+7.00,+5.00,+4.00,+0.00,-4.00,+13.00
+4.00,-9.00,+15.00,+18.00,-4.00,+19.00,+2.00,+3.00,+46.00,+32.00,+8.00,-4.00,+26.00,+16.00,+16.00,+30.00
-2.00,+14.00,+5.00,+3.00,+5.00,+11.00,+2.00,+4.00,-1.00,-17.00,-12.00,-11.00,-36.00,-16.00,-6.00,-13.00
+0.00,-20.00,-11.00,+4.00,+11.00,+36.00,+6.00,-3.00,-9.00,-10.00,+2.00,+4.00,-7.00,-11.00,-5.00,-11.00
-1.00,-17.00,-7.00,-16.00,-12.00,-23.00,-13.00,-2.00,-36.00,-14.00,-4.00,-3.00,-52.00,-3.00,-7.00,-18.00
-3.00,+37.00,+12.00,+7.00,-3.00,+45.00,+4.00,+6.00,-30.00,-33.00,-17.00,-6.00,+24.00,+12.00,+0.00,-11.00
+0.00,+19.00,+3.00,-7.00,-3.00,-8.00,+0.00,+6.00,+3.00,+7.00,+4.00,+2.00,+8.00,-3.00,+2.00,+2.00
+0.00,-44.00,-26.00,-4.00,+9.00,+49.00,+8.00,+3.00,-19.00,-2.00,+0.00,+7.00,-30.00,+17.00,+5.00,+16.00
-1.00,-39.00,+10.00,-1.00,-12.00,-36.00,-14.00,+5.00,+35.00,-18.00,+16.00,+10.00,+1.00,-5.00,+1.00,+20.00
-1.00,+61.00,+23.00,-10.00,-9.00,-38.00,+0.00,+9.00,-5.00,+24.00,-12.00,-4.00,+10.00,+9.00,-5.00,-16.00
-2.00,+4.00,+7.00,+10.00,+2.00,-23.00,+2.00,-7.00,+77.00,+63.00,-2.00,-9.00,-11.00,-11.00,+0.00,+9.00
-4.00,-52.00,-16.00,-12.00,+3.00,+33.00,+0.00,+5.00,+46.00,+18.00,+2.00,+2.00,+14.00,+2.00,+2.00,+23.00
+0.00,+17.00,+3.00,+4.00,+3.00,-8.00,+4.00,-12.00,+88.00,+38.00,+20.00,+15.00,+9.00,+16.00,+20.00,+58.00
-3.00,+53.00,+9.00,-8.00,+5.00,+4.00,-4.00,-6.00,-40.00,-32.00,-3.00,-17.00,-39.00,-6.00,-8.00,-10.00
-1.00,+12.00,-5.00,+2.00,+1.00,+20.00,+2.00,+5.00,-28.00,-24.00,-13.00,-4.00,-16.00,-19.00,-13.00,-13.00
+0.00,-24.00,-4.00,+8.00,-3.00,-22.00,-3.00,-13.00,-10.00,+4.00,+1.00,+14.00,+46.00,-38.00,+2.00,-19.00
+1.00,-15.00,-14.00,-23.00,-30.00,-120.00,-36.00,-11.00,-7.00,+7.00,-8.00,-1.00,-36.00,+4.00,-5.00,-21.00
-8.00,-11.00,+5.00,+15.00,+26.00,+99.00,+31.00,+7.00,-97.00,-46.00,-10.00,-3.00,+7.00,+35.00,-9.00,-22.00
-1.00,-17.00,-7.00,-3.00,+3.00,-20.00,-7.00,-13.00,+93.00,+50.00,+8.00,+3.00,-2.00,-1.00,+13.00,+55.00
+0.00,+6.00,-3.00,-10.00,+9.00,+22.00,+7.00,-1.00,+30.00,+12.00,+16.00,+7.00,+47.00,+16.00,-7.00,-15.00
+3.00,+47.00,+10.00,+0.00,-6.00,+4.00,+1.00,-2.00,-37.00,-10.00,-6.00,-9.00,-61.00,-1.00,+1.00,-6.00
-1.00,+1.00,+2.00,-10.00,-9.00,-48.00,+0.00,-6.00,+5.00,+20.00,+3.00,+10.00,+27.00,-15.00,-6.00,-11.00
-8.00,+12.00,-1.00,-11.00,-5.00,+3.00,-7.00,-6.00,-36.00,-123.00,-13.00,-12.00,-23.00,-6.00,-12.00,-23.00
-2.00,-33.00,-9.00,-7.00,+4.00,+13.00,-5.00,-2.00,+39.00,+18.00,+0.00,+0.00,+0.00,+8.00,+2.00,+7.00
+3.00,+17.00,-13.00,+12.00,+0.00,+7.00,+1.00,-2.00,+9.00,+40.00,+1.00,+0.00,+9.00,-2.00,-6.00,+12.00
-1.00,-35.00,+8.00,-12.00,-12.00,-34.00,-19.00,-5.00,-31.00,-12.00,+3.00,-2.00,+8.00,+9.00,+4.00,+6.00
-1.00,+67.00,+1.00,+4.00,+5.00,+23.00,+11.00,+19.00,-46.00,-43.00,-14.00,-3.00,-27.00,-11.00,-9.00,-20.00
-1.00,+15.00,+8.00,+6.00,+3.00,+8.00,+4.00,+7.00,+62.00,+53.00,+1.00,-2.00,-12.00,-1.00,-2.00,+0.00
-3.00,-58.00,-26.00,-4.00,+6.00,+26.00,+2.00,-12.00,-43.00,-18.00,-4.00,+2.00,+20.00,-7.00,-7.00,-26.00
+3.00,+63.00,+22.00,-3.00,-3.00,-15.00,-2.00,+12.00,+57.00,-6.00,-3.00,-3.00,-13.00,-8.00,-3.00,+0.00
+2.00,-99.00,-6.00,-8.00,-3.00,-1.00,-3.00,-1.00,+46.00,+23.00,-4.00,-1.00,+19.00,+2.00,+8.00,+33.00
+3.00,+91.00,+19.00,+0.00,+1.00,-8.00,+10.00,+15.00,-63.00,-26.00,-6.00,-16.00,+0.00,+6.00,-4.00,-4.00
-5.00,-44.00,+1.00,-6.00,+10.00,+22.00,+13.00,+12.00,-53.00,+7.00,+2.00,+9.00,-64.00,-16.00,-3.00,-18.00
-2.00,-52.00,-21.00,-32.00,-7.00,-58.00,-16.00,-3.00,+33.00,+2.00,-11.00,-7.00,+20.00,-3.00,-16.00,-69.00
-6.00,-11.00,+0.00,-5.00,-7.00,+18.00,+3.00,+1.00,-9.00,+63.00,+29.00,-5.00,+69.00,+36.00,+39.00,+79.00
-1.00,-11.00,-4.00,+24.00,+5.00,+13.00,+2.00,-3.00,+25.00,-8.00,+7.00,+25.00,-96.00,+41.00,+27.00,+30.00
+0.00,-8.00,-1.00,+3.00,+3.00,+16.00,-6.00,+2.00,+5.00,-7.00,-3.00,+17.00,+66.00,+24.00,+9.00,-11.00
+0.00,+3.00,-3.00,-6.00,-3.00,-23.00,+31.00,-5.00,-16.00,+4.00,+1.00,+2.00,+5.00,-2.00,+3.00,+11.00
+4.00,-46.00,+3.00,+5.00,+5.00,+1.00,+7.00,-7.00,-13.00,-22.00,-10.00,+0.00,-3.00,-16.00,-24.00,-57.00
-1.00,+101.00,+12.00,+13.00,-3.00,-49.00,+2.00,-6.00,-36.00,-42.00,-8.00,-21.00,+8.00,-3.00,+0.00,-7.00
-5.00,+32.00,+13.00,+10.00,-2.00,-3.00,+3.00,-5.00,+18.00,+2.00,+4.00,-6.00,-1.00,-13.00,-3.00,-9.00
-3.00,-44.00,-17.00,+5.00,+0.00,+50.00,-8.00,-12.00,+57.00,-10.00,-3.00,+5.00,+7.00,-4.00,+1.00,+18.00
-1.00,+20.00,-15.00,-12.00,-3.00,-22.00,-15.00,-27.00,+55.00,+27.00,-4.00,-10.00,-19.00,-6.00,+2.00,+4.00
+3.00,-49.00,+4.00,-1.00,-3.00,+0.00,+3.00,-10.00,-14.00,-16.00,-4.00,+0.00,+5.00,-15.00,-10.00,-2.00
-1.00,-22.00,+5.00,-5.00,+3.00,-2.00,+1.00,-6.00,+20.00,-14.00,-7.00,-3.00,-13.00,-6.00,-7.00,+5.00
+0.00,+38.00,+3.00,-8.00,-1.00,-5.00,-7.00,+9.00,+23.00,-13.00,+4.00,-6.00,+10.00,-6.00,-6.00,-10.00
+0.00,-19.00,-3.00,-11.00,-7.00,+0.00,-3.00,-7.00,+12.00,+8.00,-3.00,-2.00,-29.00,-7.00,-1.00,+10.00
-1.00,-7.00,-1.00,-2.00,-2.00,+3.00,-6.00,+5.00,-50.00,-13.00,-8.00,-2.00,+0.00,-6.00,-17.00,-38.00
-1.00,+20.00,+0.00,-1.00,+1.00,+4.00,+0.00,+6.00,-56.00,-48.00,-5.00,-5.00,+9.00,-7.00,-8.00,-28.00
+2.00,-26.00,-8.00,-6.00,-6.00,-13.00,-6.00,+2.00,-17.00,+40.00,+22.00,+8.00,+11.00,+22.00,+30.00,+65.00
-1.00,-37.00,-3.00,-5.00,+1.00,+15.00,+4.00,+8.00,-76.00,+5.00,-6.00,+2.00,-28.00,-12.00,-12.00,-46.00
-5.00,-7.00,-4.00,-16.00,-25.00,-77.00,-14.00,-3.00,-8.00,-65.00,-28.00,-13.00,+6.00,-15.00,-17.00,-28.00
-5.00,-9.00,+0.00,+19.00,+16.00,+38.00,+4.00,+17.00,-1.00,+38.00,+31.00,+1.00,+81.00,+5.00,+25.00,+67.00
-2.00,+20.00,-12.00,-8.00,-3.00,+17.00,-8.00,-3.00,-31.00,-4.00,+1.00,+12.00,-75.00,+32.00,+13.00,+17.00
+2.00,-9.00,+10.00,+3.00,+9.00,-23.00,+2.00,-3.00,-31.00,-27.00,+2.00,+15.00,+30.00,-62.00,-9.00,-30.00
+5.00,+6.00,+5.00,+22.00,+18.00,+19.00,-9.00,+12.00,-4.00,-12.00,-4.00,-14.00,+21.00,+77.00,+19.00,-17.00
-4.00,+25.00,-1.00,-1.00,-13.00,-30.00,+2.00,-10.00,+5.00,-14.00,-18.00,+2.00,-41.00,-14.00,-15.00,-29.00
+0.00,-41.00,-4.00,+0.00,-4.00,-22.00,-10.00,-7.00,+34.00,+40.00,+3.00,-10.00,+53.00,-2.00,+0.00,+19.00
-3.00,+22.00,-2.00,-2.00,-2.00,+19.00,+0.00,+5.00,+19.00,-25.00,-6.00,-5.00,-32.00,-9.00,-3.00,-16.00
-2.00,-47.00,-6.00,-16.00,-10.00,-21.00,-14.00,-4.00,+37.00,+15.00,+0.00,-1.00,+4.00,-20.00,-6.00,-2.00
-1.00,+42.00,-16.00,-2.00,-4.00,-8.00,-6.00,+5.00,+26.00,+2.00,-6.00,-5.00,-1.00,-2.00,-3.00,+6.00
+3.00,-69.00,+12.00,+0.00,+5.00,+11.00,+1.00,+5.00,-44.00,+21.00,+0.00,-8.00,+16.00,-9.00,-11.00,-46.00
-4.00,+114.00,+4.00,+4.00,-3.00,-23.00,-5.00,+3.00,+16.00,+32.00,+0.00,+14.00,-15.00,+17.00,+23.00,+54.00
-4.00,-16.00,-1.00,+0.00,+3.00,+25.00,+10.00,+9.00,+1.00,+17.00,-3.00,+0.00,+0.00,-31.00,-12.00,-8.00
+1.00,+43.00,+7.00,+1.00,-1.00,+9.00,+3.00,+6.00,-23.00,-19.00,-11.00,-10.00,-68.00,+6.00,-1.00,-15.00
-4.00,-28.00,-13.00,-11.00,-8.00,-8.00,-5.00,-3.00,-8.00,+2.00,-12.00,-3.00,-9.00,-25.00,-11.00,-2.00
+1.00,-25.00,-4.00,-6.00,-2.00,-4.00,-2.00,-3.00,-64.00,-18.00,-10.00,-11.00,+7.00,+3.00,-26.00,-73.00
-2.00,-34.00,-7.00,-7.00,-3.00,+15.00,-3.00,-1.00,+78.00,+16.00,+13.00,+5.00,-20.00,-17.00,+0.00,+28.00
-4.00,+55.00,+3.00,-2.00,-1.00,+9.00,-6.00,+10.00,-33.00,+69.00,+0.00,+2.00,+22.00,+13.00,+19.00,+42.00
+1.00,-7.00,+2.00,+7.00,+3.00,-25.00,-1.00,+2.00,-17.00,-71.00,+6.00,-19.00,+59.00,+1.00,-7.00,+18.00
-3.00,-78.00,-22.00,-10.00,-10.00,+10.00,-6.00,+2.00,+90.00,+15.00,+7.00,+19.00,-81.00,-12.00,+27.00,+4.00
-3.00,+33.00,+3.00,-9.00,+6.00,+29.00,+1.00,+6.00,-79.00,+21.00,+4.00,+5.00,+37.00,-10.00,-3.00,-2.00
+2.00,+78.00,+30.00,+0.00,+2.00,-18.00,+11.00,+1.00,-51.00,-77.00,-14.00,-5.00,+14.00,-9.00,-22.00,-54.00
+0.00,+18.00,+7.00,+7.00,+8.00,-14.00,+9.00,+7.00,+36.00,+67.00,-1.00,-2.00,+43.00,-5.00,+19.00,+41.00
-6.00,+3.00,+7.00,+1.00,+8.00,+42.00,-8.00,-5.00,-42.00,-19.00,+0.00,-34.00,-44.00,-22.00,-19.00,-5.00
-3.00,-7.00,-19.00,-7.00,-4.00,+8.00,+16.00,-7.00,-10.00,-4.00,-3.00,+10.00,-40.00,+36.00,+1.00,+4.00
+0.00,-68.00,-9.00,+0.00,-5.00,+21.00,-3.00,-4.00,-6.00,-2.00,-1.00,+6.00,+22.00,-14.00,+21.00,-18.00
-4.00,+1.00,+3.00,-7.00,-9.00,-36.00,-8.00,-21.00,-12.00,-3.00,+3.00,+4.00,-11.00,+0.00,+1.00,-4.00
+0.00,-36.00,-15.00,-11.00,-1.00,+10.00,+10.00,-11.00,+7.00,-18.00,-11.00,+4.00,+36.00,+26.00,-7.00,-18.00
+9.00,+65.00,+7.00,+8.00,+1.00,+7.00,-13.00,-3.00,-1.00,+23.00,+5.00,-1.00,-3.00,-23.00,-4.00,+6.00
-4.00,-100.00,-5.00,+2.00,-3.00,-22.00,-5.00,-17.00,-29.00,-23.00,+2.00,-5.00,-22.00,-7.00,-5.00,-4.00
+1.00,-4.00,-12.00,-9.00,-6.00,+11.00,+1.00,+5.00,-10.00,+7.00,-1.00,+9.00,-12.00,+14.00,+5.00,+6.00
-14.00,+59.00,+48.00,+16.00,+12.00,-2.00,+8.00,+3.00,-2.00,+4.00,-3.00,+3.00,+3.00,-6.00,-2.00,+15.00
-1.00,-19.00,-4.00,-3.00,-4.00,+0.00,-1.00,-6.00,-13.00,-10.00,-2.00,-3.00,+3.00,-16.00,+5.00,+3.00
+0.00,-16.00,-2.00,+1.00,+0.00,-5.00,+6.00,+12.00,-5.00,-29.00,-1.00,+9.00,-1.00,+8.00,-2.00,+16.00
-4.00,-12.00,-18.00,-7.00,-6.00,+2.00,-13.00,-12.00,+2.00,+60.00,-6.00,+2.00,-23.00,-15.00,-1.00,-4.00
+2.00,-17.00,-11.00,-11.00,-9.00,-12.00,-10.00,+11.00,-4.00,+26.00,+3.00,-10.00,+26.00,+9.00,-4.00,+23.00
-9.00,-29.00,+3.00,+8.00,+5.00,-2.00,+4.00,-4.00,-7.00,+12.00,-3.00,+3.00,+33.00,+11.00,+0.00,-2.00
+4.00,-87.00,-11.00,-6.00,-7.00,-28.00,-1.00,-3.00,+84.00,+3.00,-2.00,-17.00,-40.00,+1.00,-5.00,+18.00
-11.00,+0.00,+26.00,-3.00,-2.00,-13.00,+5.00,+8.00,+13.00,-65.00,-1.00,+4.00,-2.00,-3.00,-9.00,-11.00
+8.00,-27.00,-1.00,+20.00,+27.00,+95.00,+18.00,+10.00,-5.00,+31.00,-1.00,+0.00,-15.00,-21.00,+2.00,-7.00
-2.00,-45.00,+2.00,-2.00,-1.00,+10.00,+9.00,+2.00,-18.00,-2.00,+3.00,+7.00,+28.00,+13.00,+2.00,+11.00
-5.00,-74.00,-27.00,-9.00,-12.00,-24.00,-45.00,-14.00,+53.00,+24.00,+1.00,-10.00,-29.00,-28.00,-12.00,-1.00
+0.00,-2.00,-4.00,-5.00,-13.00,+12.00,+31.00,+8.00,-78.00,-41.00,-2.00,+0.00,+27.00,+42.00,-6.00,-18.00
-1.00,+56.00,+10.00,+0.00,+5.00,-120.00,+13.00,+1.00,-17.00,-30.00,+0.00,+2.00,-31.00,-4.00,-12.00,-17.00
-14.00,+25.00,-3.00,-7.00,+0.00,-13.00,-9.00,-3.00,+7.00,-8.00,+0.00,-12.00,-18.00,+20.00,+8.00,+13.00
+0.00,+41.00,+6.00,+8.00,+15.00,+72.00,+17.00,+1.00,+41.00,+51.00,+1.00,-1.00,+1.00,-3.00,-8.00,-20.00
+7.00,+2.00,+6.00,+13.00,+6.00,+1.00,-12.00,-22.00,+51.00,-9.00,-3.00,+2.00,-12.00,-20.00,-7.00,+14.00
+1.00,-17.00,-11.00,-15.00,-25.00,-56.00,-20.00,-7.00,-45.00,-15.00,+0.00,+10.00,+57.00,+26.00,+0.00,-9.00
+0.00,-6.00,-2.00,+2.00,+4.00,-1.00,+3.00,-2.00,-27.00,+0.00,+3.00,-4.00,-28.00,-20.00,-2.00,-5.00
+0.00,+38.00,+7.00,-1.00,-1.00,-15.00,+1.00,+2.00,-30.00,-2.00,-5.00,-5.00,+25.00,-6.00,-5.00,+10.00
-1.00,-34.00,+0.00,+3.00,-2.00,+3.00,-7.00,+8.00,+46.00,+0.00,-4.00,+0.00,-12.00,+15.00,+7.00,-10.00
-1.00,-69.00,-18.00,-10.00,-6.00,+3.00,+6.00,-2.00,+44.00,+17.00,+0.00,-11.00,-9.00,+1.00,-2.00,+0.00
+3.00,+76.00,+4.00,-1.00,-2.00,-8.00,-13.00,-6.00,-65.00,-54.00,-6.00,+10.00,+7.00,-27.00,-6.00,-14.00
-3.00,+109.00,+19.00,+2.00,+4.00,+13.00,+6.00,+6.00,+60.00,-28.00,+10.00,+11.00,+9.00,+17.00,+4.00,+16.00
-1.00,+9.00,-5.00,+8.00,+13.00,+11.00,+5.00,-2.00,-94.00,-23.00,+4.00,+4.00,-13.00,-17.00,-2.00,+4.00
+3.00,-52.00,+7.00,-5.00,-11.00,+14.00,-3.00,-2.00,-23.00,-18.00,-5.00,-7.00,-20.00,+6.00,-1.00,-5.00
+7.00,-20.00,-6.00,+3.00,-3.00,-18.00,-2.00,+2.00,+59.00,+56.00,-1.00,+1.00,-11.00,-5.00,-6.00,+11.00
-2.00,-25.00,-14.00,-4.00,-1.00,+17.00,+3.00,+1.00,-68.00,-56.00,-6.00,-6.00,-4.00,-6.00,-6.00,-25.00
+3.00,-7.00,-2.00,-3.00,+0.00,-59.00,-8.00,+0.00,+69.00,+52.00,+7.00,+2.00,-2.00,-7.00,-2.00,-17.00
-4.00,+41.00,-3.00,-15.00,+2.00,+28.00,-8.00,+2.00,+27.00,+3.00,-4.00,-10.00,+32.00,+5.00,-4.00,-2.00
-8.00,-22.00,-2.00,-15.00,-6.00,-18.00,+1.00,-1.00,-82.00,-12.00,+1.00,+1.00,-37.00,-6.00,+7.00,+8.00
+0.00,-20.00,-2.00,-2.00,-6.00,-10.00,-13.00,-10.00,+21.00,+7.00,+3.00,+9.00,+13.00,-7.00,-3.00,+14.00
+0.00,-33.00,-1.00,+6.00,+8.00,+39.00,+47.00,+10.00,-7.00,-13.00,-7.00,-15.00,+6.00,-29.00,-16.00,-10.00
-4.00,+27.00,+0.00,+8.00,-2.00,-4.00,-12.00,+1.00,-28.00,+1.00,+2.00,+15.00,-20.00,+19.00,+39.00,+4.00
+2.00,-41.00,+4.00,+2.00,-5.00,-4.00,-6.00,-2.00,+44.00,-14.00,-5.00,-5.00,-38.00,-21.00,-7.00,-21.00
-2.00,-23.00,-3.00,+2.00,+4.00,-14.00,+9.00,-3.00,-60.00,-12.00,-7.00,-13.00,+44.00,+3.00,-5.00,-9.00
-5.00,+24.00,+1.00,-3.00,-4.00,+6.00,-21.00,-7.00,+2.00,+49.00,+12.00,+10.00,-33.00,+21.00,+8.00,+19.00
+2.00,-2.00,-1.00,+0.00,-8.00,-24.00,-1.00,+3.00,+26.00,-14.00,-1.00,+7.00,+16.00,-14.00,-8.00,+9.00
+4.00,+17.00,+0.00,+13.00,+14.00,+29.00,+12.00,+1.00,-34.00,-27.00,-3.00,-2.00,+22.00,+0.00,-4.00,-12.00
-5.00,-46.00,-5.00,-3.00,-1.00,+2.00,+0.00,-5.00,+43.00,+58.00,-1.00,+4.00,-20.00,+7.00,+4.00,+9.00
+2.00,+0.00,-5.00,-2.00,-6.00,+3.00,-14.00,+0.00,+18.00,-20.00,+6.00,-5.00,+12.00,-7.00,+6.00,+11.00
+1.00,-72.00,-5.00,-5.00,+5.00,+20.00,+3.00,-8.00,-31.00,-7.00,-2.00,-2.00,+15.00,-5.00,-14.00,-16.00
+5.00,+42.00,-2.00,-4.00,-11.00,-30.00,-6.00,+0.00,+85.00,+32.00,+0.00,+0.00,+2.00,+7.00,+6.00,+4.00
+2.00,+61.00,+13.00,+14.00,+6.00,-4.00,+4.00,+0.00,-48.00,-9.00,-7.00,-9.00,-6.00,-4.00,-13.00,-34.00
-3.00,+24.00,+1.00,+0.00,+8.00,+13.00,+1.00,+2.00,+30.00,-22.00,-4.00,+4.00,+1.00,+4.00,+12.00,+28.00
-8.00,+37.00,-1.00,-3.00,-4.00,+2.00,+0.00,+0.00,-32.00,-32.00,+0.00,-1.00,-11.00,+3.00,-7.00,-9.00
+0.00,-82.00,-7.00,-2.00,+2.00,+13.00,+1.00,-7.00,-49.00,-10.00,+1.00,-3.00,+14.00,-1.00,-6.00,+0.00
-1.00,-19.00,-7.00,-4.00,-2.00,-17.00,-2.00,+7.00,+41.00,+34.00,+5.00,+0.00,+9.00,+4.00,+4.00,+2.00
+2.00,+28.00,+1.00,+2.00,-3.00,+3.00,-6.00,+2.00,-52.00,-22.00,-10.00,-8.00,-47.00,-18.00,-10.00,-34.00
-1.00,-13.00,+0.00,-5.00,-3.00,-8.00,-10.00,-7.00,+80.00,+0.00,+0.00,+0.00,+39.00,+5.00,+3.00,+27.00
-4.00,-14.00,-4.00,+2.00,+0.00,+4.00,+5.00,+1.00,-13.00,+5.00,+1.00,+4.00,+6.00,-1.00,-3.00,+10.00
+1.00,-10.00,+1.00,+1.00,+3.00,+19.00,+10.00,-4.00,-17.00,-5.00,-2.00,+2.00,-46.00,-11.00,+27.00,-1.00
-5.00,-17.00,-6.00,-13.00,-16.00,-25.00,-6.00,-6.00,-60.00,-5.00,+2.00,+4.00,+28.00,+27.00,-17.00,-10.00
+6.00,+14.00,+4.00,+13.00,+6.00,-25.00,-29.00,+2.00,-22.00,-3.00,-7.00,-2.00,+6.00,+0.00,-9.00,-2.00
-7.00,-6.00,-2.00,-4.00,+3.00,+68.00,+26.00,+3.00,+45.00,-8.00,+0.00,-5.00,+33.00,+4.00,+2.00,-3.00
+7.00,+38.00,+2.00,-6.00,+2.00,-23.00,-6.00,-6.00,+5.00,-9.00,+1.00,-1.00,+5.00,-1.00,-5.00,-4.00
+1.00,-55.00,+1.00,+5.00,+2.00,-29.00,+0.00,+3.00,-22.00,+32.00,-14.00,-9.00,-21.00,-16.00,+3.00,+8.00
-5.00,+37.00,-1.00,+0.00,-5.00,+21.00,-1.00,-4.00,+27.00,+12.00,+11.00,+1.00,-10.00,+3.00,+2.00,-10.00
-3.00,+25.00,+0.00,-6.00,-7.00,-16.00,-7.00,-1.00,+13.00,+6.00,+0.00,-3.00,+1.00,+5.00,-4.00,+13.00
+1.00,-86.00,-6.00,+7.00,-4.00,+3.00,+1.00,-6.00,-12.00,-12.00,+10.00,+11.00,-3.00,+2.00,+0.00,+12.00
-6.00,+59.00,+11.00,-6.00,-2.00,-27.00,-7.00,+5.00,-13.00,-24.00,+2.00,-2.00,+1.00,-6.00,+0.00,-12.00
-2.00,+22.00,+2.00,-3.00,+1.00,+0.00,+10.00,+3.00,+7.00,+4.00,-14.00,-9.00,+0.00,+1.00,-8.00,+0.00
-6.00,-30.00,-5.00,+2.00,-1.00,-18.00,-11.00,-1.00,+11.00,-21.00,+2.00,-2.00,-17.00,-7.00,-1.00,-11.00
-5.00,-39.00,-6.00,-7.00,-8.00,-3.00,+2.00,-1.00,+60.00,+21.00,-3.00,-5.00,+22.00,+8.00,+1.00,+16.00
+0.00,+37.00,-2.00,+8.00,+7.00,+18.00,-5.00,-3.00,+55.00,+0.00,+0.00,+1.00,-44.00,+2.00,-2.00,-5.00
-1.00,+19.00,+0.00,-2.00,-2.00,-5.00,+4.00,+4.00,-28.00,+14.00,+6.00,+11.00,+31.00,-22.00,-17.00,-9.00
-4.00,+28.00,+9.00,+2.00,+3.00,+18.00,+6.00,+2.00,-7.00,-19.00,-5.00,-19.00,-27.00,-15.00,+25.00,-9.00
+1.00,+12.00,-2.00,-1.00,-6.00,-18.00,-11.00,-3.00,-36.00,-4.00,+6.00,+18.00,-14.00,+7.00,+5.00,+18.00
+2.00,-16.00,-3.00,-6.00,+2.00,+21.00,-2.00,+5.00,-12.00,-14.00,-2.00,-8.00,+5.00,-1.00,-1.00,-7.00
+4.00,-22.00,-9.00,-4.00,-5.00,-22.00,+12.00,-4.00,-15.00,+5.00,+0.00,-2.00,-19.00,-9.00,-6.00,-2.00
+0.00,-27.00,+3.00,+4.00,+7.00,+22.00,-1.00,-2.00,+9.00,+11.00,-5.00,-1.00,-13.00,-4.00,-10.00,-8.00
-2.00,+44.00,+6.00,-1.00,+1.00,-6.00,-10.00,-6.00,-21.00,+11.00,+2.00,-10.00,+17.00,+1.00,-3.00,-1.00
-1.00,-12.00,-2.00,+5.00,+8.00,+17.00,+26.00,+8.00,-4.00,-7.00,-19.00,-3.00,-2.00,-6.00,+6.00,-2.00
-6.00,+3.00,-3.00,-6.00,-1.00,+1.00,-1.00,-5.00,-21.00,-30.00,-9.00,-5.00,-15.00,+3.00,+1.00,-11.00
+0.00,-34.00,+0.00,-4.00,-7.00,-30.00,-7.00,-2.00,-59.00,-4.00,+2.00,+5.00,+19.00,+2.00,+0.00,+9.00
-6.00,-49.00,-21.00,-4.00,-3.00,-9.00,-5.00,+5.00,+25.00,+23.00,-2.00,-1.00,-5.00,+2.00,-2.00,+1.00
+3.00,+1.00,+10.00,-5.00,-6.00,+10.00,-4.00,-9.00,-3.00,+19.00,+19.00,+12.00,+13.00,+3.00,-5.00,-1.00
-10.00,+64.00,+19.00,+7.00,+10.00,+10.00,+5.00,+9.00,-43.00,-9.00,-13.00,-7.00,-16.00,+1.00,+1.00,+2.00
+1.00,-27.00,-2.00,-6.00,-11.00,-16.00,-4.00,-8.00,+10.00,+6.00,-7.00,-3.00,+12.00,+6.00,-6.00,-5.00
-3.00,-1.00,+2.00,+7.00,+9.00,+26.00,+8.00,+4.00,-7.00,-33.00,-4.00,-2.00,-6.00,-2.00,-6.00,-4.00
+0.00,-73.00,-23.00,-10.00,-10.00,-22.00,-16.00,-10.00,-14.00,+1.00,-6.00,-5.00,-5.00,-6.00,-3.00,-17.00
+1.00,-34.00,+2.00,+2.00,+2.00,-1.00,-1.00,-3.00,+6.00,+9.00,+8.00,-6.00,-4.00,+2.00,+4.00,+11.00
+2.00,+63.00,+5.00,-3.00,-2.00,-3.00,-2.00,-1.00,+12.00,-7.00,+0.00,+1.00,+68.00,+8.00,+3.00,+12.00
-1.00,+25.00,+2.00,-1.00,-3.00,+5.00,+5.00,+2.00,-12.00,-4.00,-1.00,-2.00,-23.00,-3.00,-3.00,-9.00
-1.00,-9.00,-4.00,+0.00,-7.00,-87.00,-8.00,-2.00,+23.00,+0.00,+5.00,+7.00,-26.00,-6.00,+4.00,+10.00
-6.00,-5.00,-4.00,+1.00,+7.00,+36.00,+6.00,+8.00,-39.00,-11.00,+0.00,-2.00,+0.00,+2.00,-6.00,-15.00
-2.00,+34.00,+1.00,-4.00,+2.00,+0.00,-2.00,-6.00,+11.00,+15.00,+2.00,+3.00,-14.00,+0.00,+0.00,+1.00
+3.00,-4.00,+2.00,+6.00,+0.00,+1.00,+6.00,+2.00,+21.00,-4.00,-3.00,-2.00,+34.00,+1.00,-7.00,+0.00
-3.00,+27.00,+2.00,-4.00,+2.00,-18.00,-4.00,-4.00,-32.00,-11.00,-6.00,-4.00,+15.00,+13.00,+5.00,+0.00
-2.00,-15.00,-6.00,-4.00,+2.00,+48.00,+9.00,+2.00,+15.00,+2.00,+2.00,-1.00,-13.00,+0.00,+3.00,+7.00
+0.00,-29.00,-7.00,-5.00,-5.00,-15.00,-5.00,+0.00,-32.00,+3.00,+1.00,-1.00,-3.00,-9.00,-10.00,-9.00
+2.00,+25.00,+9.00,-5.00,+0.00,+9.00,+3.00,+4.00,-8.00,-2.00,-1.00,+0.00,-2.00,+0.00,-2.00,-2.00
-5.00,-37.00,+3.00,-2.00,-3.00,+7.00,-5.00,-4.00,-14.00,-34.00,-15.00,-8.00,-3.00,-10.00,-6.00,-21.00
+4.00,+20.00,-10.00,-7.00,-12.00,-23.00,-10.00,-6.00,-101.00,+5.00,-6.00,-2.00,+0.00,+0.00,-3.00,-14.00
+2.00,+60.00,+20.00,+8.00,+3.00,+7.00,+4.00,+4.00,+1.00,+14.00,+12.00,+4.00,-3.00,+9.00,+11.00,+36.00
+3.00,+19.00,-3.00,-2.00,-4.00,-11.00,-4.00,-6.00,-47.00,+21.00,+9.00,-1.00,-7.00,+0.00,+3.00,+7.00
+2.00,-40.00,+0.00,+3.00,+10.00,+39.00,+3.00,+6.00,+27.00,-10.00,-11.00,+3.00,+8.00,-5.00,-6.00,-5.00
+3.00,-25.00,-4.00,+1.00,-2.00,-12.00,-1.00,-5.00,+54.00,-26.00,-12.00,-10.00,+4.00,+0.00,+0.00,-3.00
+1.00,-12.00,-9.00,+0.00,-6.00,-15.00,-6.00,-5.00,+50.00,-16.00,-11.00,-2.00,-9.00,+0.00,-8.00,-12.00
-2.00,-2.00,-3.00,-7.00,+0.00,-8.00,-1.00,+2.00,+21.00,-2.00,-3.00,-1.00,-8.00,-2.00,-2.00,-6.00
-4.00,+6.00,+5.00,+1.00,+0.00,+24.00,-1.00,-2.00,-28.00,-11.00,+4.00,-2.00,+23.00,-1.00,+2.00,+3.00
+1.00,-6.00,-5.00,-5.00,+0.00,-10.00,-2.00,-6.00,+102.00,+24.00,+7.00,+1.00,+10.00,+9.00,+1.00,+9.00
-1.00,-25.00,-2.00,-5.00,-6.00,-18.00,-5.00,-3.00,+16.00,+0.00,+0.00,-5.00,-61.00,-5.00,-1.00,-6.00
-4.00,-13.00,-2.00,+5.00,-2.00,+37.00,+2.00,+1.00,+26.00,-1.00,-1.00,+14.00,-1.00,+2.00,+0.00,+6.00
+0.00,-6.00,-6.00,+5.00,+14.00,+32.00,+7.00,+2.00,+2.00,+4.00,+3.00,-1.00,+5.00,+1.00,+2.00,+0.00
+1.00,-33.00,-2.00,-2.00,-2.00,-16.00,-7.00,-4.00,-8.00,-1.00,+6.00,+2.00,-3.00,-5.00,+3.00,+0.00
+6.00,+41.00,+8.00,-1.00,+2.00,+4.00,+1.00,+1.00,+2.00,+5.00,-3.00,-5.00,+14.00,+0.00,-6.00,-1.00
-3.00,+22.00,+3.00,-6.00,-3.00,-6.00,-4.00,-2.00,-20.00,-8.00,-8.00,-8.00,-6.00,-13.00,-4.00,-12.00
+1.00,+0.00,-1.00,-2.00,-5.00,-21.00,-5.00,-7.00,-8.00,+7.00,-1.00,-3.00,+9.00,+16.00,+1.00,-2.00
+1.00,-6.00,+2.00,+0.00,-2.00,-6.00,+2.00,-2.00,-16.00,+7.00,+10.00,+5.00,+9.00,+1.00,-2.00,+2.00
-2.00,-38.00,-14.00,-2.00,+0.00,-10.00,-9.00,-1.00,-26.00,+0.00,+1.00,-2.00,+5.00,+0.00,-3.00,-9.00
-1.00,+12.00,+10.00,+1.00,-2.00,-8.00,+0.00,+1.00,-55.00,-56.00,-11.00,-3.00,-2.00,-3.00,+3.00,+0.00
-1.00,+26.00,+6.00,-2.00,-7.00,+3.00,-7.00,-3.00,-8.00,+47.00,-7.00,-2.00,-2.00,-8.00,-2.00,+7.00
+1.00,-74.00,-8.00,-7.00,-5.00,-18.00,-2.00,-3.00,-77.00,-5.00,-1.00,+2.00,-4.00,-3.00,+4.00,+7.00
-7.00,+25.00,-7.00,+4.00,+4.00,+13.00,+8.00,+1.00,-114.00,-17.00,-7.00,-2.00,-3.00,-2.00,-6.00,-22.00
-3.00,+1.00,-3.00,-1.00,+1.00,-15.00,+1.00,+0.00,+82.00,+21.00,+15.00,+0.00,-1.00,+4.00,+5.00,+30.00
+1.00,+5.00,+2.00,-2.00,-2.00,+11.00,-5.00,-5.00,-20.00,+9.00,+9.00,+4.00,+1.00,-1.00,+1.00,-1.00
-3.00,+25.00,+30.00,-3.00,-10.00,-8.00,-2.00,-2.00,+59.00,-1.00,-3.00,+1.00,-6.00,+2.00,-2.00,+8.00
-3.00,-14.00,-1.00,+0.00,+5.00,+2.00,+1.00,-2.00,+44.00,+17.00,+5.00,-1.00,+0.00,-6.00,-1.00,-4.00
+1.00,-5.00,+4.00,-1.00,-1.00,-1.00,+2.00,+6.00,-12.00,-17.00,-9.00,-7.00,-1.00,-9.00,-6.00,-10.00
+0.00,+9.00,-18.00,+2.00,-4.00,+3.00,-1.00,-17.00,+34.00,-17.00,-4.00,-3.00,+1.00,+0.00,-4.00,-10.00
+1.00,+4.00,-5.00,-2.00,-1.00,-21.00,-22.00,-2.00,+31.00,+14.00,+6.00,+7.00,-5.00,-4.00,+3.00,+5.00
+5.00,-11.00,+3.00,-3.00,+4.00,-31.00,+1.00,+1.00,+10.00,-22.00,-11.00,-4.00,+5.00,+1.00,-3.00,-5.00
-3.00,-14.00,-5.00,+3.00,+3.00,+12.00,+4.00,-3.00,+2.00,+18.00,-1.00,-8.00,-1.00,+1.00,-2.00,-6.00
-4.00,-2.00,+4.00,-1.00,+2.00,+15.00,+4.00,+6.00,+25.00,-11.00,+3.00,-3.00,-3.00,-3.00,-1.00,+5.00
-1.00,+28.00,+0.00,-3.00,+2.00,+8.00,+4.00,+2.00,-12.00,-3.00,+5.00,-2.00,-4.00,-3.00,-2.00,-5.00
-4.00,-20.00,-5.00,-4.00,-5.00,-6.00,+0.00,-3.00,+27.00,+4.00,-3.00,+2.00,+3.00,-2.00,-2.00,+10.00
+1.00,-9.00,-8.00,-3.00,-5.00,-17.00,-8.00,-2.00,-9.00,+8.00,-4.00,-2.00,+0.00,+2.00,-4.00,-9.00
+1.00,+2.00,-1.00,-1.00,-5.00,-5.00,+0.00,+3.00,-6.00,+5.00,+6.00,+1.00,-7.00,-6.00,-2.00,+0.00
-5.00,-1.00,-8.00,+1.00,+1.00,-1.00,+1.00,-3.00,-23.00,-9.00,-4.00,+0.00,+22.00,+6.00,+4.00,-3.00
-2.00,-1.00,-20.00,-6.00,-1.00,+7.00,-3.00,+2.00,-6.00,-3.00,+7.00,+1.00,-14.00,-4.00,-1.00,-1.00
+0.00,+23.00,-7.00,-9.00,+1.00,+4.00,+7.00,+4.00,+107.00,+20.00,-15.00,-4.00,+14.00,+3.00,+0.00,+0.00
+0.00,-14.00,+48.00,+13.00,+3.00,+4.00,-2.00,-3.00,+93.00,-22.00,-2.00,+2.00,-22.00,-2.00,-1.00,-6.00
+1.00,+14.00,-8.00,+3.00,+2.00,+1.00,+4.00,-1.00,-50.00,+2.00,-2.00,-4.00,-6.00,-4.00,-3.00,+1.00
-4.00,-18.00,-9.00,-7.00,-8.00,-1.00,-7.00,-6.00,-95.00,+6.00,+2.00,-1.00,+5.00,-1.00,-1.00,-3.00
+3.00,-16.00,-5.00,+9.00,+3.00,+9.00,+3.00,-2.00,-128.00,-8.00,+4.00,-2.00,-10.00,+2.00,-2.00,-8.00
+3.00,-4.00,-14.00,-4.00,+1.00,-2.00,+0.00,+2.00,-128.00,-5.00,-4.00,-2.00,+8.00,-7.00,-1.00,+2.00
+0.00,-2.00,-3.00,-2.00,+0.00,+3.00,+1.00,+2.00,-66.00,-3.00,-7.00,-2.00,-5.00,+12.00,-3.00,-2.00
-3.00,-13.00,+11.00,+2.00,+1.00,+6.00,+3.00,+3.00,-37.00,-5.00,+0.00,+1.00,-2.00,+0.00,-3.00,-4.00
-1.00,+2.00,+7.00,-7.00,-1.00,+0.00,-2.00,+2.00,-36.00,-10.00,-5.00,-4.00,-1.00,+1.00,+0.00,+4.00
-1.00,+3.00,-14.00,-8.00,-5.00,-13.00,-3.00,+3.00,+41.00,+14.00,+3.00,-4.00,+3.00,+2.00,+1.00,+0.00
+0.00,-14.00,+1.00,-2.00,+3.00,+15.00,+2.00,+4.00,-15.00,-5.00,+4.00,+1.00,-6.00,-8.00,-5.00,-6.00
-2.00,+20.00,-6.00,-2.00,-2.00,+5.00,+1.00,+2.00,+74.00,-1.00,-4.00,-5.00,+30.00,+2.00,+6.00,+11.00
-2.00,-16.00,-13.00,+3.00,+1.00,-9.00,-4.00,-2.00,+30.00,-1.00,+3.00,+0.00,-31.00,-14.00,-2.00,+3.00
+0.00,+19.00,+14.00,+0.00,-1.00,+5.00,+0.00,+4.00,+11.00,+14.00,+5.00,+2.00,-8.00,-2.00,-4.00,+0.00
-5.00,-1.00,-5.00,-1.00,-3.00,-6.00,+0.00,+0.00,+9.00,-5.00,-4.00,-4.00,-1.00,-5.00,-4.00,-8.00
+1.00,-1.00,+7.00,-1.00,+0.00,+2.00,-1.00,-4.00,+8.00,-10.00,-8.00,-1.00,+0.00,-2.00,-5.00,-23.00
-1.00,-5.00,-2.00,-2.00,-3.00,-5.00,-4.00,-4.00,+2.00,-22.00,-6.00,+0.00,+10.00,+1.00,+2.00,+5.00
-1.00,-3.00,-8.00,-3.00,-1.00,+3.00,+1.00,-1.00,+21.00,+22.00,+4.00,+1.00,+0.00,+0.00,+6.00,+22.00
+0.00,+9.00,+3.00,-2.00,-3.00,-19.00,-2.00,-5.00,+43.00,-14.00,-4.00,-1.00,-5.00,-2.00,-1.00,+0.00
+4.00,-16.00,-2.00,-5.00,+2.00,+27.00,-1.00,-2.00,+14.00,+46.00,+8.00,-4.00,-16.00,-15.00,-6.00,-13.00
-3.00,-4.00,+16.00,+3.00,-3.00,-1.00,-2.00,-9.00,-5.00,+13.00,+13.00,+2.00,+10.00,+22.00,+4.00,-5.00
-1.00,-2.00,-14.00,+2.00,+2.00,+2.00,-1.00,-6.00,-30.00,-13.00,-6.00,-1.00,+4.00,+0.00,-2.00,-7.00
-1.00,+9.00,+9.00,+1.00,-2.00,-4.00,+2.00,-6.00,+11.00,-2.00,+4.00,+0.00,+0.00,+3.00,+4.00,+0.00
-1.00,-15.00,-7.00,-4.00,+0.00,-4.00,-4.00,-4.00,+1.00,-5.00,-2.00,+0.00,-7.00,-8.00,-3.00,+4.00
+0.00,-4.00,-3.00,-5.00,-2.00,-9.00,-1.00,-3.00,-9.00,-7.00,-3.00,-1.00,-5.00,-18.00,-9.00,-4.00
-3.00,+2.00,-6.00,-7.00,-5.00,-3.00,+3.00,-2.00,-6.00,+0.00,+1.00,-2.00,+8.00,+11.00,+3.00,-1.00
-1.00,-8.00,-4.00,+1.00,+6.00,+15.00,+4.00,+1.00,+12.00,+3.00,-1.00,-1.00,+1.00,+0.00,-1.00,-3.00
+0.00,+1.00,+5.00,-3.00,+0.00,-3.00,+2.00,-1.00,+9.00,-5.00,-3.00,-1.00,+9.00,+17.00,+3.00,+11.00
+2.00,-15.00,+1.00,-2.00,-3.00,-5.00,-4.00,+0.00,-28.00,+11.00,+1.00,+1.00,+13.00,-21.00,-8.00,-9.00
-1.00,+6.00,-1.00,+1.00,+1.00,-5.00,+4.00,+2.00,-3.00,-16.00,+0.00,+5.00,-34.00,+9.00,+0.00,+7.00
+3.00,+0.00,-2.00,-5.00,-3.00,-1.00,-2.00,+3.00,-1.00,+0.00,+0.00,+1.00,-5.00,-5.00,-6.00,-10.00
-4.00,+10.00,-1.00,-4.00,-4.00,-1.00,+2.00,+1.00,+3.00,-5.00,-3.00,+1.00,-4.00,+2.00,+5.00,+16.00
+2.00,-7.00,+2.00,+2.00,+5.00,+18.00,+4.00,+4.00,+17.00,+8.00,+1.00,-3.00,+6.00,+8.00,-5.00,-8.00
-2.00,-3.00,-9.00,-2.00,-3.00,+4.00,+0.00,+5.00,+28.00,-16.00,-5.00,-3.00,+5.00,-8.00,+1.00,+15.00
-1.00,+4.00,-6.00,-1.00,-2.00,-4.00,-1.00,+1.00,+13.00,+12.00,+3.00,+1.00,+0.00,-2.00,+0.00,-2.00
+0.00,+7.00,+21.00,+0.00,-4.00,-1.00,-5.00,-1.00,+36.00,-32.00,+3.00,-1.00,-3.00,+0.00,+1.00,+1.00
+3.00,+8.00,-6.00,-1.00,-3.00,-13.00,-3.00,+1.00,+25.00,+13.00,-24.00,+1.00,+0.00,+0.00,+2.00,+5.00
-7.00,-5.00,+4.00,+1.00,+2.00,+1.00,+2.00,-5.00,-32.00,-7.00,-4.00,-4.00,+3.00,-8.00,-4.00,-5.00
+1.00,+1.00,-7.00,-6.00,-1.00,+1.00,-3.00,-5.00,-18.00,+9.00,+3.00,-2.00,-7.00,-3.00,+0.00,-4.00
-3.00,-18.00,-10.00,-2.00,-3.00,-6.00,-1.00,-5.00,-7.00,+0.00,+2.00,+0.00,+2.00,-2.00,-3.00,+16.00
-2.00,-1.00,+3.00,+5.00,-2.00,-7.00,-5.00,-8.00,-43.00,-6.00,+4.00,+1.00,-7.00,+6.00,+2.00,+4.00
-2.00,+3.00,+3.00,+0.00,-1.00,+3.00,-2.00,-2.00,-50.00,-10.00,-4.00,-6.00,+4.00,-2.00,-14.00,-16.00
+0.00,+5.00,+1.00,-2.00,-1.00,-2.00,+2.00,-4.00,-25.00,-5.00,-6.00,-2.00,+2.00,+1.00,+7.00,+0.00
+0.00,-4.00,-7.00,-2.00,+3.00,+4.00,+4.00,-2.00,-31.00,+0.00,+0.00,-4.00,-10.00,-11.00,+5.00,+10.00
-2.00,+3.00,-2.00,-4.00,-8.00,-3.00,-3.00,-4.00,+8.00,+1.00,+2.00,+4.00,+3.00,+11.00,-1.00,+1.00
+0.00,-4.00,-6.00,-1.00,-1.00,-12.00,-8.00,-6.00,-2.00,+2.00,-2.00,+0.00,+10.00,+16.00,-2.00,-5.00
-1.00,+4.00,+6.00,-1.00,-2.00,+5.00,+2.00,-1.00,-5.00,-6.00,-2.00,-1.00,-2.00,-6.00,-9.00,-4.00
+0.00,-16.00,-3.00,-3.00,-2.00,-5.00,+4.00,-3.00,+7.00,+1.00,-5.00,+2.00,-2.00,-3.00,-7.00,-9.00
+2.00,+3.00,-1.00,-1.00,-2.00,+6.00,-2.00,+1.00,+22.00,-9.00,+3.00,-1.00,-5.00,-4.00,+1.00,-2.00
+2.00,+7.00,+3.00,+4.00,+9.00,+21.00,+4.00,+4.00,+14.00,+7.00,-1.00,+0.00,-2.00,+1.00,+10.00,+12.00
+0.00,-1.00,-8.00,-5.00,-1.00,-4.00,-4.00,+2.00,+30.00,+7.00,-3.00,-7.00,-6.00,-4.00,-2.00,+4.00
-1.00,+8.00,+5.00,-1.00,+1.00,+3.00,+0.00,-5.00,-3.00,+0.00,+3.00,+0.00,-9.00,-3.00,-7.00,-12.00
-2.00,-7.00,-21.00,-1.00,+0.00,-8.00,-4.00,+2.00,-12.00,-8.00,-6.00,-2.00,-7.00,-24.00,-12.00,-19.00
+1.00,+5.00,+18.00,-3.00,-3.00,-8.00,-4.00,-1.00,-14.00,-17.00,-7.00,+1.00,+16.00,+31.00,+14.00,-3.00
-2.00,-4.00,-7.00,-1.00,-1.00,-4.00,-1.00,+3.00,+9.00,+4.00,-3.00,+0.00,-2.00,+5.00,+4.00,+9.00
-1.00,-7.00,-8.00,-7.00,-2.00,+0.00,-3.00,+7.00,-3.00,+5.00,+1.00,-1.00,+1.00,-2.00,+1.00,-9.00
-4.00,+12.00,+35.00,+8.00,+1.00,-4.00,+3.00,+1.00,-12.00,-2.00,+4.00,-4.00,-3.00,-4.00,-7.00,-15.00
-3.00,+5.00,-9.00,-2.00,-6.00,-3.00,-5.00,+0.00,+9.00,-3.00,+0.00,+0.00,-6.00,-16.00,-4.00,-9.00
+2.00,-13.00,+1.00,+4.00,-1.00,+1.00,+1.00,-1.00,-9.00,-9.00,-1.00,-2.00,-4.00,+1.00,+3.00,+13.00
+0.00,-5.00,-3.00,+0.00,-2.00,-5.00,-5.00,+1.00,+54.00,+18.00,+1.00,+4.00,+14.00,+4.00,+1.00,+5.00
+1.00,+1.00,-9.00,-4.00,+0.00,+2.00,+1.00,+1.00,+7.00,+4.00,+3.00,+0.00,-24.00,+7.00,+0.00,-4.00
-1.00,+1.00,-6.00,-1.00,-2.00,-1.00,-1.00,+3.00,-9.00,-4.00,-5.00,-3.00,+0.00,-13.00,-17.00,-30.00
+2.00,+0.00,+5.00,-4.00,+0.00,+1.00,-2.00,+2.00,-13.00,+10.00,+0.00,-5.00,-5.00,-7.00,-7.00,-10.00
-4.00,+6.00,-2.00,+3.00,+2.00,+3.00,+2.00,-19.00,-3.00,-11.00,+10.00,+4.00,-3.00,-3.00,+15.00,+72.00
-3.00,-2.00,+1.00,+2.00,+0.00,-1.00,-6.00,+4.00,+6.00,+9.00,-17.00,-3.00,+14.00,+12.00,+11.00,+9.00
-3.00,-5.00,-5.00,-2.00,-2.00,-3.00,-1.00,-2.00,-3.00,+1.00,+5.00,+0.00,+2.00,-2.00,-24.00,-10.00
+1.00,+7.00,-2.00,-2.00,+0.00,-4.00,-2.00,+1.00,-22.00,-20.00,-4.00,+0.00,-1.00,-3.00,+10.00,+5.00
-2.00,+4.00,+5.00,+1.00,-2.00,-3.00,+1.00,+1.00,-3.00,+3.00,-5.00,+0.00,-5.00,-13.00,+1.00,-17.00
-2.00,+7.00,-5.00,-4.00,-3.00,-13.00,-2.00,-6.00,+25.00,-3.00,+5.00,-4.00,+11.00,+29.00,-4.00,-2.00
-1.00,-7.00,-2.00,+1.00,+0.00,+20.00,-24.00,-22.00,-9.00,+22.00,+10.00,+5.00,+35.00,-24.00,-1.00,+21.00
-1.00,+3.00,+1.00,+2.00,-1.00,-18.00,+27.00,+4.00,+0.00,-7.00,-7.00,-3.00,-36.00,+11.00,-7.00,-13.00
-2.00,+0.00,-1.00,+0.00,+1.00,+19.00,-4.00,+1.00,-13.00,-1.00,-6.00,-19.00,-7.00,-20.00,+13.00,-11.00
-3.00,-7.00,-1.00,-6.00,+1.00,+0.00,+1.00,+1.00,-5.00,-2.00,+3.00,+10.00,-35.00,-24.00,+3.00,+1.00
+3.00,+1.00,-7.00,-4.00,-4.00,-12.00,-1.00,-1.00,-37.00,-30.00,-10.00,+3.00,+17.00,+47.00,-12.00,-30.00
-1.00,+1.00,+3.00,-2.00,+1.00,-1.00,-10.00,-9.00,+22.00,+16.00,+3.00,-1.00,+0.00,-3.00,-5.00,+8.00
-1.00,-4.00,-3.00,+2.00,-1.00,-5.00,-2.00,+2.00,+12.00,-10.00,-2.00,+3.00,+17.00,+16.00,+1.00,-6.00
-2.00,+5.00,-6.00,-1.00,-2.00,-4.00,+3.00,+4.00,-5.00,+13.00,+6.00,-4.00,+0.00,-7.00,+28.00,+27.00
+0.00,-2.00,+1.00,-3.00,-2.00,-4.00,-1.00,+6.00,+16.00,+4.00,+0.00,-4.00,-15.00,-18.00,-13.00,+10.00
-2.00,-1.00,+2.00,-1.00,+0.00,+6.00,-5.00,-6.00,-22.00,-15.00,-3.00,+3.00,+13.00,-6.00,+2.00,-5.00
-1.00,-8.00,-2.00,+3.00,-5.00,-5.00,+4.00,+2.00,-12.00,-5.00,-4.00,-6.00,-6.00,+8.00,-15.00,-12.00
+1.00,-4.00,-6.00,-6.00,+0.00,+1.00,-4.00,+2.00,-1.00,+0.00,+0.00,-3.00,+13.00,-5.00,-8.00,-14.00
+1.00,-4.00,-1.00,-2.00,+0.00,-11.00,+7.00,+9.00,-7.00,-8.00,+0.00,+0.00,-16.00,-9.00,+9.00,-5.00
-3.00,-12.00,+4.00,+1.00,-5.00,-1.00,-8.00,-1.00,+13.00,+1.00,-4.00,-5.00,+8.00,+5.00,-2.00,+0.00
+0.00,+26.00,-8.00,-1.00,+0.00,+3.00,+1.00,+11.00,-15.00,-1.00,-6.00,-3.00,-8.00,-10.00,-18.00,-25.00
+1.00,-9.00,+14.00,+1.00,+4.00,+2.00,-5.00,-10.00,+12.00,+9.00,+4.00,+1.00,+0.00,+5.00,-3.00,+14.00
-1.00,-2.00,-13.00,-2.00,-4.00,+3.00,+9.00,-5.00,+6.00,+5.00,-5.00,-2.00,-6.00,-2.00,+14.00,-2.00
-2.00,+1.00,-7.00,-2.00,+1.00,+3.00,+2.00,-4.00,+9.00,+1.00,+0.00,+0.00,-5.00,-18.00,-16.00,-1.00
+0.00,-20.00,+4.00,-1.00,+3.00,+1.00,-1.00,-4.00,-60.00,-19.00,-6.00,+1.00,+9.00,+2.00,-16.00,-26.00
-3.00,+7.00,-6.00,-1.00,-10.00,-9.00,-2.00,-2.00,+10.00,-10.00,+8.00,+5.00,-3.00,+10.00,+18.00,+17.00
-1.00,-10.00,+1.00,+0.00,+7.00,+3.00,-2.00,+6.00,+63.00,+40.00,+4.00,-3.00,-7.00,-3.00,+13.00,+13.00
+0.00,+16.00,+0.00,-4.00,-3.00,-2.00,-8.00,+2.00,+3.00,+9.00,-1.00,-1.00,+9.00,+1.00,+4.00,+7.00
+0.00,-14.00,+2.00,-7.00,-6.00,-30.00,-1.00,-4.00,-24.00,-3.00,-1.00,+3.00,-4.00,+4.00,-8.00,-7.00
-2.00,+5.00,+0.00,+5.00,+8.00,+15.00,+13.00,+6.00,-38.00,-19.00,-7.00,-9.00,+7.00,-1.00,-16.00,-8.00
-3.00,+5.00,+0.00,-5.00,-6.00,+1.00,-4.00,+2.00,-15.00,-11.00,-1.00,-3.00,-10.00,-11.00,-2.00,-9.00
-4.00,-10.00,+0.00,+0.00,+1.00,-1.00,+1.00,+6.00,+16.00,-2.00,-1.00,+2.00,-3.00,+1.00,+0.00,+4.00
-2.00,+15.00,+0.00,-3.00,-2.00,+0.00,-7.00,-9.00,+13.00,+5.00,+0.00,+2.00,+2.00,+2.00,+15.00,-4.00
+0.00,-3.00,+0.00,+0.00,+2.00,-4.00,+1.00,-13.00,-5.00,+1.00,-2.00,-6.00,-5.00,-12.00,-16.00,-16.00
+1.00,-1.00,-3.00,+2.00,+2.00,-3.00,+11.00,-2.00,-4.00,-5.00,-1.00,-1.00,-11.00,+0.00,+1.00,-11.00
