+1.00,-3.00,+1.00,-2.00,+0.00,-1.00,-1.00,+1.00,+6.00,-3.00,-11.00,-1.00,+0.00,+0.00,-1.00,-1.00
+0.00,-2.00,+1.00,-1.00,-1.00,-2.00,-1.00,-2.00,-9.00,-10.00,-4.00,-4.00,+36.00,-1.00,-2.00,+1.00
-1.00,-2.00,-3.00,-1.00,+0.00,+2.00,+0.00,+0.00,+2.00,+8.00,+3.00,-2.00,-28.00,-3.00,+0.00,-1.00
-4.00,-1.00,+1.00,-4.00,-1.00,-5.00,-2.00,-2.00,+27.00,+6.00,+3.00,+5.00,+6.00,+4.00,+2.00,+9.00
-1.00,-2.00,-1.00,+2.00,+1.00,+0.00,-1.00,-3.00,-15.00,+5.00,+0.00,-8.00,+20.00,+7.00,-2.00,-10.00
-2.00,-1.00,-3.00,-1.00,-1.00,+2.00,-3.00,-1.00,+3.00,-4.00,+0.00,+3.00,+9.00,-1.00,-1.00,+0.00
+0.00,+0.00,-1.00,-1.00,-2.00,-5.00,-1.00,+0.00,-11.00,-9.00,-5.00,-7.00,-27.00,-3.00,-4.00,-5.00
-2.00,-2.00,-1.00,-2.00,-2.00,-1.00,+1.00,-1.00,-15.00,-10.00,-4.00,-2.00,-3.00,-4.00,-2.00,-3.00
+1.00,-4.00,-1.00,-2.00,-2.00,+1.00,+0.00,+2.00,-8.00,-8.00,-2.00,-2.00,-26.00,-5.00,-3.00,-3.00
+4.00,+1.00,-1.00,+0.00,+1.00,-5.00,-1.00,-3.00,-9.00,+23.00,+6.00,+5.00,+22.00,+7.00,+2.00,+4.00
-2.00,-1.00,+3.00,-1.00,+3.00,+4.00,-1.00,-6.00,+60.00,+7.00,+1.00,+6.00,+33.00,+4.00,+3.00,+6.00
-1.00,-8.00,-3.00,-1.00,-1.00,-2.00,-2.00,-2.00,-21.00,+2.00,-3.00,-8.00,-30.00,-1.00,+0.00,-1.00
-3.00,+17.00,+2.00,-2.00,+1.00,-10.00,-2.00,+0.00,+7.00,+6.00,+0.00,+4.00,+13.00,-2.00,+1.00,+5.00
+1.00,+0.00,-3.00,-5.00,-1.00,+12.00,+0.00,+2.00,-17.00,-6.00,-3.00,-12.00,-2.00,-6.00,-5.00,-17.00
-1.00,-2.00,-1.00,+0.00,-2.00,+2.00,-1.00,-1.00,-14.00,-24.00,-4.00,-4.00,-8.00,+8.00,-3.00,+3.00
-1.00,-7.00,-1.00,-1.00,+0.00,+1.00,-2.00,-1.00,+2.00,+12.00,+4.00,-4.00,+27.00,-4.00,-1.00,-1.00
-3.00,-6.00,-3.00,-6.00,-7.00,+1.00,-3.00,-2.00,+3.00,-3.00,-4.00,+16.00,-51.00,+4.00,+1.00,+5.00
+1.00,+2.00,-2.00,+0.00,-1.00,-30.00,-2.00,+1.00,+13.00,+0.00,+0.00,+6.00,+15.00,-1.00,-1.00,-2.00
+1.00,-4.00,-2.00,+0.00,+3.00,+5.00,+0.00,-2.00,-8.00,+7.00,+1.00,-4.00,+10.00,-2.00,+0.00,-1.00
+3.00,+5.00,+0.00,-1.00,-1.00,+0.00,+1.00,+1.00,-13.00,-22.00,-11.00,-3.00,+2.00,+0.00,-3.00,-5.00
+0.00,-9.00,-3.00,+4.00,+3.00,+6.00,+1.00,-2.00,-2.00,+2.00,+6.00,-6.00,-12.00,-7.00,-1.00,-2.00
+0.00,-19.00,-2.00,-6.00,-6.00,-3.00,-5.00,-6.00,+4.00,-2.00,+0.00,+2.00,-3.00,-5.00,-2.00,-2.00
+1.00,+21.00,+1.00,+0.00,+6.00,-13.00,+0.00,+5.00,-11.00,-4.00,-14.00,-9.00,-19.00,-7.00,-3.00,-7.00
-4.00,+5.00,+1.00,-1.00,-3.00,-5.00,+4.00,+1.00,-7.00,-1.00,-1.00,-2.00,+0.00,+4.00,+3.00,+1.00
+0.00,-16.00,-7.00,-9.00,-7.00,-9.00,-10.00,-6.00,+1.00,+4.00,+1.00,-3.00,+8.00,-3.00,+0.00,+5.00
-1.00,+4.00,-4.00,-3.00,+0.00,+16.00,-1.00,-2.00,+18.00,-4.00,+0.00,+1.00,-24.00,-1.00,-4.00,+1.00
+3.00,-14.00,-3.00,+1.00,-4.00,+17.00,+1.00,-3.00,+9.00,+5.00,-1.00,-2.00,+20.00,+1.00,+0.00,+6.00
+4.00,+12.00,+2.00,+0.00,+4.00,+3.00,-1.00,+0.00,-11.00,-56.00,-13.00,-5.00,-7.00,-4.00,-2.00,+0.00
-2.00,-22.00,+0.00,-1.00,+3.00,+5.00,+2.00,+1.00,-1.00,-4.00,+18.00,-8.00,+27.00,-5.00,-5.00,-11.00
+2.00,+30.00,+1.00,-1.00,+0.00,-5.00,+4.00,+6.00,-10.00,-3.00,+5.00,+18.00,-23.00,-4.00,+1.00,+7.00
-1.00,+0.00,+4.00,-4.00,-4.00,+0.00,-3.00,-4.00,+11.00,+26.00,+5.00,+7.00,-7.00,-3.00,+0.00,+2.00
+1.00,-36.00,-5.00,-3.00,-2.00,-24.00,-3.00,+0.00,-12.00,-1.00,-8.00,-1.00,-8.00,-3.00,-5.00,-9.00
-4.00,+23.00,+1.00,+4.00,+2.00,+30.00,+3.00,+1.00,-13.00,-33.00,-14.00,-7.00,-8.00,-2.00,-5.00,-3.00
+0.00,-38.00,-3.00,-3.00,-8.00,-5.00,+2.00,+3.00,+63.00,+36.00,+8.00,-6.00,+31.00,+10.00,+6.00,+12.00
+1.00,+15.00,+6.00,-4.00,-2.00,-44.00,-3.00,+3.00,-27.00,-11.00,+0.00,-1.00,-40.00,-10.00,+1.00,-2.00
-3.00,+83.00,+3.00,-1.00,+4.00,+7.00,+3.00,+1.00,-6.00,+9.00,-1.00,+1.00,-1.00,+3.00,-4.00,-10.00
+1.00,-20.00,-7.00,+2.00,+0.00,+16.00,-6.00,-5.00,-13.00,+0.00,-9.00,-9.00,-14.00,+0.00,+0.00,+0.00
-1.00,-34.00,-5.00,-1.00,+2.00,+13.00,+3.00,-1.00,-39.00,-14.00,-2.00,+4.00,+73.00,+0.00,-2.00,-8.00
-1.00,+31.00,+1.00,-1.00,-6.00,+0.00,-1.00,-2.00,+3.00,+48.00,+1.00,+6.00,-18.00,-3.00,+6.00,+1.00
+1.00,-27.00,-1.00,-3.00,-5.00,+0.00,-6.00,-4.00,+11.00,+2.00,+4.00,-1.00,+3.00,-1.00,+22.00,+5.00
+1.00,+10.00,+2.00,-2.00,+2.00,-17.00,+3.00,+3.00,+7.00,+8.00,-1.00,+5.00,-2.00,+5.00,-7.00,+7.00
-1.00,+15.00,+0.00,-3.00,-3.00,-7.00,-2.00,-1.00,-33.00,-37.00,-8.00,-14.00,-14.00,-1.00,-8.00,-14.00
+3.00,-25.00,-4.00,-1.00,-1.00,+13.00,+0.00,-4.00,+41.00,-1.00,-2.00,+2.00,-10.00,-2.00,-6.00,+22.00
+1.00,-9.00,-2.00,+2.00,+2.00,-10.00,-3.00,-4.00,-28.00,-3.00,+1.00,-6.00,+41.00,-3.00,+1.00,-10.00
-3.00,+13.00,+1.00,+2.00,+2.00,-1.00,+0.00,+1.00,+24.00,+12.00,-2.00,+8.00,-38.00,-6.00,+1.00,+0.00
-3.00,-8.00,-4.00,+0.00,+1.00,-1.00,-3.00,-2.00,-14.00,+2.00,+5.00,+4.00,-12.00,-1.00,+0.00,+4.00
-1.00,-29.00,-7.00,-7.00,-3.00,-3.00,-3.00,+0.00,-58.00,-25.00,-10.00,-14.00,+2.00,+2.00,-2.00,-18.00
-2.00,-79.00,-7.00,-4.00,-5.00,+6.00,-3.00,-4.00,+69.00,+30.00,+4.00,+8.00,+58.00,+4.00,-6.00,+16.00
+0.00,+97.00,+12.00,+7.00,+0.00,-6.00,+3.00,+7.00,+44.00,+29.00,+4.00,-5.00,-94.00,-8.00,+1.00,+1.00
-5.00,+7.00,+7.00,+0.00,+2.00,-8.00,+2.00,+1.00,-19.00,-4.00,-6.00,-5.00,-1.00,-9.00,-6.00,-14.00
-3.00,-8.00,-4.00,+3.00,+10.00,+41.00,+5.00,+1.00,-22.00,-4.00,+3.00,+4.00,+32.00,+4.00,+2.00,-11.00
-2.00,-24.00,-5.00,-7.00,-6.00,+2.00,-4.00,-5.00,-25.00,-17.00,-4.00,-10.00,+5.00,+3.00,-4.00,+1.00
+3.00,-40.00,-3.00,-5.00,-6.00,+1.00,-5.00,+0.00,+0.00,-6.00,-2.00,+2.00,+36.00,-1.00,-3.00,-6.00
-3.00,+12.00,-1.00,-3.00,-4.00,-10.00,+0.00,-1.00,+0.00,-10.00,-4.00,+3.00,-2.00,-5.00,+5.00,+5.00
-1.00,+13.00,+0.00,+2.00,+2.00,-7.00,+3.00,+2.00,-19.00,+1.00,+2.00,-5.00,+0.00,-4.00,-1.00,+4.00
+1.00,+5.00,-2.00,-1.00,+6.00,+5.00,-1.00,-3.00,-3.00,+6.00,+2.00,+0.00,-38.00,-6.00,-3.00,+5.00
-8.00,-7.00,-3.00,-8.00,-8.00,-24.00,-7.00,-8.00,+10.00,-1.00,+2.00,+2.00,+61.00,+3.00,+5.00,+6.00
+4.00,-28.00,+3.00,+6.00,+5.00,+22.00,-2.00,-3.00,-19.00,-8.00,-5.00,+1.00,-33.00,+12.00,-23.00,-9.00
-2.00,-15.00,-5.00,-1.00,-5.00,-3.00,+2.00,-3.00,+49.00,-30.00,-5.00,-6.00,+18.00,+5.00,+27.00,+43.00
-4.00,+10.00,+3.00,+1.00,-1.00,+3.00,+2.00,+5.00,+41.00,+30.00,+6.00,+6.00,-40.00,+4.00,+0.00,+0.00
+0.00,-12.00,+0.00,-1.00,+4.00,+4.00,+2.00,-1.00,-17.00,+30.00,+0.00,-4.00,+40.00,-4.00,-10.00,-39.00
-1.00,+51.00,+2.00,-8.00,-3.00,-24.00,-4.00,-3.00,+14.00,+4.00,+0.00,-5.00,-39.00,-6.00,-3.00,+6.00
+2.00,-43.00,-1.00,+2.00,-3.00,+9.00,-1.00,-3.00,-50.00,-59.00,-10.00,-6.00,-6.00,-3.00,-10.00,-17.00
-3.00,+37.00,+4.00,-2.00,-3.00,+30.00,+0.00,+3.00,+35.00,+24.00,-1.00,-5.00,+53.00,+8.00,+6.00,+19.00
+1.00,-20.00,+0.00,+3.00,+3.00,+0.00,+5.00,+2.00,-10.00,-11.00,-1.00,+2.00,-24.00,+2.00,-1.00,-3.00
-3.00,-25.00,-9.00,-1.00,+1.00,+7.00,-1.00,-4.00,+24.00,+4.00,-7.00,+3.00,+5.00,-2.00,+5.00,+4.00
-1.00,+16.00,-2.00,-6.00,-4.00,-10.00,-4.00,+1.00,-12.00,+7.00,+3.00,+9.00,+26.00,+4.00,-5.00,-15.00
-1.00,-16.00,+0.00,+0.00,-5.00,-33.00,-4.00,-1.00,-37.00,-38.00,-8.00,-18.00,-54.00,-9.00,+5.00,-2.00
+2.00,+3.00,-2.00,+8.00,+11.00,+32.00,-14.00,-2.00,-1.00,+14.00,+5.00,+12.00,-16.00,+3.00,-15.00,+7.00
+1.00,+0.00,+4.00,-2.00,+4.00,+24.00,+41.00,+10.00,+3.00,+0.00,+0.00,+4.00,-11.00,+3.00,+5.00,-3.00
-1.00,+1.00,-2.00,-5.00,+1.00,-8.00,-4.00,-4.00,+15.00,+11.00,-1.00,+6.00,+2.00,-3.00,-1.00,+4.00
-1.00,+20.00,-3.00,-4.00,-2.00,-7.00,+1.00,+0.00,+1.00,-2.00,-1.00,+1.00,+23.00,+1.00,-14.00,-10.00
+0.00,-7.00,-4.00,-2.00,-10.00,-31.00,-7.00,-7.00,-31.00,-10.00,-8.00,-11.00,+2.00,-8.00,-17.00,-6.00
-1.00,-35.00,+1.00,+2.00,+4.00,+3.00,-19.00,+2.00,+16.00,+6.00,+5.00,-5.00,-1.00,+0.00,+31.00,+53.00
-5.00,-24.00,+0.00,-3.00,-3.00,+27.00,+1.00,-2.00,-69.00,-4.00,-3.00,-19.00,-39.00,-19.00,-34.00,-98.00
+1.00,+6.00,+0.00,+1.00,-1.00,+4.00,+2.00,+0.00,+82.00,+15.00,+6.00,+27.00,+22.00,+8.00,+14.00,+43.00
-1.00,+25.00,+2.00,-7.00,-9.00,-60.00,+2.00,+1.00,+14.00,-8.00,-1.00,+4.00,+5.00,+0.00,+0.00,+9.00
-2.00,+47.00,-3.00,-2.00,+6.00,+38.00,-3.00,+3.00,+61.00,+21.00,-2.00,+1.00,+4.00,-1.00,-1.00,+4.00
-3.00,-26.00,+4.00,-2.00,+0.00,-12.00,+4.00,-5.00,-27.00,-2.00,+4.00,-2.00,+19.00,+3.00,+4.00,+15.00
+2.00,-37.00,-8.00,+0.00,+0.00,+1.00,-10.00,-6.00,-29.00,-5.00,-5.00,-15.00,-26.00,-12.00,-11.00,-12.00
-4.00,-26.00,-6.00,-3.00,-3.00,+7.00,+2.00,+2.00,-17.00,-10.00,-4.00,-1.00,-25.00,-1.00,+8.00,-13.00
-2.00,-17.00,+2.00,-1.00,-4.00,-28.00,-3.00,-7.00,-8.00,-27.00,-2.00,-17.00,+85.00,+5.00,-5.00,-2.00
-3.00,+25.00,-6.00,-8.00,+0.00,-6.00,-10.00,+0.00,+33.00,+22.00,-1.00,+16.00,-101.00,+1.00,-1.00,-8.00
+5.00,+59.00,+7.00,+2.00,-4.00,-49.00,-2.00,-2.00,-31.00,+9.00,+0.00,+5.00,+1.00,-9.00,-9.00,-32.00
-5.00,-6.00,+2.00,+0.00,+0.00,+3.00,+4.00,-2.00,+63.00,-15.00,-3.00,-13.00,+43.00,+8.00,+20.00,+56.00
+1.00,+0.00,-5.00,+0.00,+8.00,+40.00,+11.00,+0.00,-1.00,+23.00,+0.00,+6.00,-2.00,-13.00,-6.00,-30.00
-1.00,-28.00,-4.00,-2.00,-1.00,+4.00,-13.00,+1.00,-9.00,-23.00,-6.00,-1.00,+3.00,+7.00,-18.00,-11.00
-3.00,+10.00,-5.00,-13.00,-4.00,-18.00,-27.00,-4.00,-18.00,+5.00,+8.00,+6.00,-11.00,+1.00,-14.00,-6.00
-2.00,+3.00,+7.00,+11.00,+5.00,+23.00,+41.00,+7.00,-8.00,+5.00,+0.00,+10.00,+29.00,+0.00,+8.00,-26.00
-4.00,-4.00,-4.00,-4.00,-3.00,+6.00,-7.00,-4.00,+10.00,-4.00,+3.00,-3.00,-19.00,-2.00,-1.00,-4.00
+2.00,+5.00,+5.00,+1.00,-1.00,-3.00,+6.00,-5.00,+40.00,-3.00,-8.00,-10.00,+22.00,-8.00,+9.00,+2.00
-3.00,-20.00,-5.00,-3.00,-1.00,+15.00,-4.00,-4.00,+21.00,+6.00,+3.00,+2.00,+5.00,+27.00,-16.00,-7.00
+3.00,-20.00,-6.00,-10.00,-8.00,-22.00,-10.00,+8.00,-10.00,-12.00,-3.00,-3.00,+6.00,-4.00,+3.00,-15.00
-4.00,+2.00,+1.00,+2.00,-1.00,-15.00,+1.00,-15.00,-10.00,+0.00,-3.00,+2.00,-20.00,+1.00,+2.00,+9.00
+3.00,+37.00,-4.00,-8.00,-10.00,-39.00,-11.00,-4.00,-14.00,+4.00,+2.00,+8.00,+40.00,-6.00,-5.00,+2.00
+0.00,-15.00,+5.00,+16.00,+17.00,+69.00,+16.00,+5.00,-41.00,-1.00,-5.00,-21.00,+0.00,-4.00,+4.00,-8.00
-1.00,-25.00,-8.00,-3.00,+3.00,+14.00,-1.00,-5.00,-23.00,-9.00,-6.00,-1.00,-24.00,-10.00,-1.00,-4.00
-4.00,+6.00,+1.00,-2.00,-5.00,-18.00,-1.00,+18.00,-85.00,-23.00,-2.00,+1.00,-23.00,+3.00,+3.00,+3.00
-1.00,+51.00,+4.00,-3.00,-1.00,+6.00,+0.00,+1.00,+31.00,+40.00,+5.00,+7.00,+15.00,+2.00,-5.00,+19.00
-2.00,-41.00,-4.00,-6.00,-5.00,-16.00,-7.00,-6.00,-22.00,-24.00,-3.00,-12.00,+38.00,-10.00,+2.00,+0.00
+1.00,+13.00,-7.00,-1.00,-1.00,+1.00,-2.00,-1.00,+66.00,-11.00,-9.00,+1.00,-25.00,+11.00,+1.00,+9.00
-3.00,-17.00,-2.00,-13.00,-11.00,-37.00,-9.00,-20.00,+40.00,+36.00,+6.00,+1.00,-10.00,-24.00,+24.00,+13.00
+0.00,-44.00,+3.00,+11.00,+14.00,+4.00,+6.00,+6.00,+66.00,+3.00,+8.00,+4.00,+10.00,+37.00,-47.00,+35.00
-2.00,+43.00,+5.00,+5.00,+1.00,+16.00,+10.00,-3.00,-5.00,+26.00,+3.00,+11.00,-10.00,+11.00,+14.00,-12.00
+3.00,-18.00,-5.00,-5.00,-1.00,+27.00,+2.00,+15.00,+62.00,+11.00,+0.00,-13.00,+23.00,-1.00,-27.00,+1.00
+0.00,-2.00,-2.00,+0.00,-4.00,-31.00,-48.00,-15.00,-30.00,-10.00,-10.00,-28.00,-44.00,-11.00,-13.00,-33.00
-1.00,-3.00,-3.00,+0.00,+5.00,+20.00,+26.00,+7.00,+3.00,-11.00,+2.00,+27.00,+25.00,-11.00,+14.00,+0.00
-1.00,+8.00,+2.00,+3.00,+1.00,+3.00,+10.00,+3.00,-35.00,-9.00,-3.00,+8.00,-6.00,+11.00,+8.00,+4.00
-3.00,+1.00,-1.00,-3.00,-5.00,+5.00,-5.00,-1.00,-52.00,-8.00,-1.00,-1.00,-2.00,+2.00,-4.00,-4.00
+6.00,+7.00,+3.00,-5.00,-2.00,-15.00,-6.00,+23.00,+5.00,-6.00,-3.00,-8.00,+52.00,+2.00,-8.00,-10.00
+3.00,-6.00,-8.00,-15.00,-16.00,-18.00,-20.00,-12.00,-10.00,-2.00,-3.00,-20.00,-89.00,-13.00,+13.00,+11.00
-2.00,-1.00,+0.00,+9.00,+4.00,-22.00,+15.00,+1.00,-6.00,-1.00,+3.00,+9.00,-40.00,-30.00,-11.00,-19.00
-4.00,+17.00,+3.00,-1.00,-1.00,+6.00,-9.00,-9.00,-93.00,-14.00,-4.00,+0.00,+19.00,+2.00,+13.00,-40.00
+0.00,+2.00,-2.00,-2.00,+1.00,+9.00,+8.00,+7.00,+46.00,+15.00,+10.00,+10.00,+1.00,+41.00,-7.00,+43.00
-2.00,+12.00,+0.00,-2.00,-2.00,-5.00,-1.00,+0.00,-28.00,-3.00,-6.00,-10.00,+14.00,-17.00,+11.00,-13.00
+2.00,-14.00,-7.00,-11.00,-13.00,-55.00,-7.00,+1.00,+40.00,+7.00,-4.00,-1.00,-10.00,+18.00,+36.00,+18.00
-4.00,-27.00,-2.00,+1.00,+5.00,+33.00,-3.00,-6.00,-23.00,-18.00,+3.00,-6.00,-30.00,-3.00,-5.00,+4.00
-4.00,-1.00,+4.00,+9.00,+1.00,-8.00,+0.00,-7.00,+17.00,+39.00,+2.00,+5.00,-1.00,-12.00,-10.00,-28.00
-4.00,+69.00,+8.00,+5.00,+4.00,+2.00,+4.00,-1.00,-43.00,-26.00,-8.00,-12.00,+15.00,+5.00,-1.00,-27.00
-3.00,+9.00,-3.00,-11.00,-5.00,-12.00,-10.00,-5.00,+24.00,+0.00,+5.00,+1.00,+13.00,-4.00,-2.00,+39.00
+1.00,-36.00,-5.00,+0.00,-3.00,-26.00,-5.00,-2.00,-12.00,+2.00,+4.00,+15.00,-20.00,-4.00,+11.00,+14.00
+2.00,-39.00,+3.00,+7.00,+7.00,+56.00,+16.00,-2.00,-86.00,-9.00,-17.00,-8.00,+3.00,-3.00,-8.00,-60.00
-4.00,-59.00,-6.00,+2.00,+0.00,-3.00,-25.00,+11.00,+54.00,-43.00,+2.00,-16.00,+13.00,+22.00,+23.00,+32.00
+0.00,+20.00,+1.00,+6.00,+6.00,+24.00,+29.00,-17.00,+0.00,+34.00,+6.00,+21.00,-14.00,-14.00,-10.00,-17.00
+0.00,+16.00,+3.00,-6.00,-4.00,-42.00,-4.00,-2.00,-8.00,+7.00,+1.00,+5.00,+4.00,-14.00,-1.00,+8.00
-1.00,-1.00,-9.00,-9.00,-5.00,-2.00,+2.00,-2.00,+19.00,-10.00,-3.00,+3.00,-11.00,+9.00,+0.00,+35.00
+1.00,-4.00,-1.00,+6.00,+6.00,+39.00,+5.00,-7.00,-36.00,-9.00,-10.00,-8.00,-10.00,-7.00,-12.00,-4.00
-4.00,-14.00,-4.00,+0.00,-2.00,+13.00,-10.00,+7.00,-63.00,-17.00,-5.00,-14.00,+40.00,+3.00,-5.00,+51.00
-2.00,-25.00,-2.00,-2.00,-2.00,-22.00,-8.00,-5.00,-4.00,+8.00,+1.00,-5.00,+6.00,+4.00,+1.00,+61.00
-6.00,+36.00,-1.00,-7.00,-7.00,-33.00,-11.00,-18.00,-25.00,-8.00,+4.00,+3.00,-90.00,-10.00,-7.00,-1.00
+1.00,+10.00,+3.00,-2.00,-8.00,-55.00,+2.00,+5.00,-20.00,+5.00,-1.00,+11.00,+53.00,-5.00,-4.00,-21.00
-6.00,-6.00,+0.00,+5.00,+7.00,+39.00,+4.00,+3.00,+29.00,-3.00,-8.00,-10.00,-35.00,-5.00,+10.00,-12.00
-2.00,+19.00,+2.00,-4.00,-1.00,-1.00,-6.00,+8.00,+10.00,-1.00,-1.00,+2.00,+6.00,-1.00,-13.00,-30.00
+1.00,+6.00,+3.00,+9.00,+6.00,+23.00,+2.00,-5.00,-11.00,-7.00,-5.00,-6.00,+16.00,+3.00,+38.00,-5.00
-1.00,-9.00,-4.00,-7.00,-2.00,-4.00,-3.00,-5.00,+24.00,+8.00,+2.00,-7.00,-15.00,-7.00,-3.00,-44.00
+2.00,-22.00,-4.00,-1.00,-5.00,-14.00,-1.00,+25.00,+9.00,-5.00,-3.00,+4.00,+3.00,+8.00,-7.00,-32.00
+3.00,+54.00,+8.00,-1.00,-1.00,-14.00,-4.00,-19.00,-25.00,-21.00,-11.00,-9.00,+5.00,-2.00,-3.00,-32.00
+0.00,+1.00,-5.00,-4.00,+0.00,+8.00,+2.00,-2.00,+61.00,+12.00,+8.00,+3.00,+0.00,+33.00,+21.00,+20.00
-2.00,-4.00,-4.00,-5.00,-10.00,-12.00,-8.00,-32.00,-12.00,+5.00,-2.00,+7.00,+104.00,+6.00,-33.00,+10.00
+4.00,+21.00,+6.00,+1.00,-3.00,-2.00,-4.00,+0.00,-14.00,-8.00,-8.00,-8.00,-84.00,-22.00,-6.00,-28.00
-2.00,-23.00,-7.00,+5.00,+5.00,-12.00,+1.00,-9.00,+51.00,-30.00,+1.00,-2.00,+21.00,+10.00,+3.00,+30.00
-1.00,-63.00,-13.00,-15.00,-11.00,-12.00,-4.00,+11.00,+31.00,+29.00,+4.00,-3.00,-10.00,-4.00,-3.00,-8.00
-2.00,+93.00,+15.00,+6.00,+6.00,-35.00,-2.00,-18.00,+27.00,+22.00,+4.00,+4.00,+31.00,+2.00,+14.00,+22.00
-3.00,-19.00,-4.00,-1.00,+3.00,+28.00,-13.00,+5.00,-18.00,-15.00,-3.00,+4.00,+29.00,-10.00,-22.00,-32.00
+2.00,+5.00,+6.00,+7.00,+0.00,+11.00,+1.00,-14.00,+19.00,+11.00,+0.00,-2.00,-5.00,+5.00,-8.00,-5.00
+5.00,-11.00,-6.00,-3.00,-1.00,-15.00,-1.00,-4.00,-46.00,-26.00,-2.00,+2.00,+5.00,-20.00,-12.00,+9.00
+0.00,-46.00,-10.00,-5.00,+4.00,+52.00,+7.00,+14.00,+17.00,+15.00,+3.00,-3.00,-23.00,+3.00,+6.00,+10.00
-4.00,+9.00,+2.00,-5.00,-5.00,-16.00,-6.00,-3.00,+0.00,-10.00,-4.00,-6.00,+9.00,-5.00,-5.00,+13.00
-1.00,-4.00,-4.00,-4.00,-5.00,-9.00,+1.00,-3.00,+7.00,+10.00,-3.00,-20.00,-52.00,-11.00,+3.00,-8.00
-3.00,+33.00,+6.00,+2.00,+4.00,+14.00,-6.00,-11.00,-5.00,-16.00,-4.00,+20.00,+36.00,-9.00,-16.00,+3.00
+4.00,-14.00,-3.00,-4.00,-3.00,+25.00,+3.00,+16.00,-23.00,+6.00,+1.00,+0.00,-8.00,+3.00,+5.00,-4.00
-1.00,-11.00,-4.00,+1.00,+3.00,+1.00,+3.00,-11.00,-17.00,-18.00,-3.00,-2.00,-41.00,+3.00,+1.00,-8.00
-1.00,-6.00,+3.00,+2.00,-1.00,+11.00,+1.00,+9.00,+11.00,+17.00,+1.00,-4.00,+59.00,-4.00,+0.00,+10.00
+0.00,+66.00,+6.00,+2.00,+0.00,-5.00,-6.00,+10.00,-20.00,-24.00,-10.00,-13.00,-51.00,-12.00,-13.00,-14.00
+0.00,-15.00,-4.00,-2.00,-4.00,-10.00,+15.00,+5.00,-11.00,+15.00,+11.00,+9.00,-45.00,-7.00,+9.00,+18.00
-2.00,-11.00,-2.00,-2.00,-4.00,-2.00,-10.00,-25.00,+30.00,-2.00,+1.00,+2.00,+16.00,+5.00,+1.00,-1.00
-2.00,-28.00,-5.00,-2.00,+1.00,+19.00,+7.00,+3.00,+43.00,+16.00,+0.00,-4.00,+14.00,-1.00,+6.00,+17.00
+0.00,+37.00,+8.00,+3.00,+6.00,+4.00,+6.00,-4.00,-54.00,-13.00,+0.00,-1.00,+13.00,-20.00,-7.00,-15.00
-5.00,-20.00,-7.00,-8.00,-15.00,-20.00,-8.00,-2.00,-12.00,+7.00,-8.00,-1.00,+2.00,+22.00,+10.00,+6.00
+5.00,-23.00,-2.00,+3.00,+6.00,-5.00,-9.00,-18.00,+14.00,+6.00,+4.00,+1.00,+18.00,-10.00,-23.00,+1.00
-7.00,+39.00,+9.00,-1.00,+5.00,+45.00,+7.00,+6.00,-40.00,-7.00,-2.00,+1.00,-32.00,+3.00,-1.00,-17.00
+1.00,+47.00,+6.00,+7.00,+13.00,+31.00,+9.00,-2.00,+17.00,-14.00,-4.00,-5.00,+29.00,-3.00,-2.00,-1.00
+1.00,-5.00,+0.00,+0.00,+1.00,-2.00,+1.00,+8.00,+6.00,-9.00,-3.00,-6.00,-28.00,+8.00,+0.00,-9.00
-1.00,+0.00,-2.00,-3.00,-8.00,-21.00,+1.00,+10.00,-27.00,-1.00,+0.00,-18.00,-33.00,-15.00,+4.00,+20.00
-2.00,+5.00,-6.00,-5.00,-5.00,-23.00,-28.00,-10.00,-1.00,+10.00,-2.00,+14.00,+85.00,+1.00,-11.00,-10.00
-2.00,-34.00,-2.00,+0.00,+2.00,+26.00,+21.00,-1.00,+1.00,-17.00,-2.00,-4.00,-52.00,-7.00,-8.00,-14.00
-10.00,-5.00,+1.00,-3.00,+1.00,-16.00,+1.00,-5.00,-9.00,+3.00,+3.00,+9.00,-9.00,-29.00,-3.00,+2.00
-3.00,+7.00,+2.00,+0.00,-1.00,-2.00,+3.00,+2.00,-1.00,-7.00,-3.00,+0.00,-8.00,+21.00,-10.00,-5.00
+0.00,-1.00,-1.00,-4.00,-5.00,-17.00,+1.00,-12.00,+14.00,+0.00,+2.00,+5.00,-11.00,+4.00,+35.00,+10.00
-2.00,-14.00,-1.00,+2.00,+2.00,+8.00,-22.00,-3.00,-23.00,-13.00,-5.00,-12.00,+39.00,+12.00,+1.00,+5.00
+3.00,-19.00,-2.00,-2.00,-2.00,+1.00,-1.00,-1.00,-5.00,-7.00,-2.00,-4.00,-7.00,+3.00,+0.00,+0.00
-1.00,+20.00,+0.00,-1.00,+0.00,+9.00,+1.00,+7.00,+3.00,+2.00,-3.00,+1.00,+12.00,-13.00,+4.00,-3.00
-3.00,-4.00,-1.00,-8.00,-2.00,+5.00,-12.00,+6.00,-58.00,-11.00,-4.00,-4.00,-34.00,-1.00,-13.00,-37.00
-2.00,-34.00,-9.00,-7.00,-8.00,-35.00,+20.00,+19.00,+25.00,+3.00,+5.00,+7.00,+17.00,+6.00,+3.00,+32.00
+1.00,-15.00,-2.00,+7.00,+7.00,+30.00,+3.00,-9.00,-25.00,+7.00,-6.00,-10.00,-14.00,-10.00,+1.00,-9.00
-4.00,+15.00,+6.00,+3.00,+1.00,+14.00,+3.00,+2.00,+26.00,-9.00,+1.00,+4.00,+7.00,+3.00,-2.00,-4.00
+1.00,+1.00,+1.00,-1.00,-1.00,-33.00,+0.00,-4.00,-29.00,+8.00,+1.00,+1.00,-6.00,-2.00,+7.00,+18.00
-6.00,-18.00,-7.00,-3.00,-3.00,-12.00,-3.00,-3.00,+11.00,+13.00,+7.00,-1.00,+3.00,+0.00,-1.00,+1.00
+4.00,-4.00,+0.00,+0.00,+3.00,-4.00,-1.00,+1.00,-20.00,-33.00,+0.00,-2.00,+4.00,-1.00,+7.00,+8.00
+0.00,-6.00,+0.00,+1.00,+2.00,-3.00,+5.00,-3.00,-49.00,-7.00,-8.00,-13.00,+103.00,+0.00,-21.00,-22.00
+1.00,+6.00,-4.00,+1.00,-1.00,-4.00,+4.00,+3.00,+1.00,-23.00,-5.00,+13.00,-105.00,-6.00,+22.00,-30.00
-5.00,-7.00,-3.00,-9.00,-9.00,-19.00,-5.00,-28.00,+14.00,+26.00,+5.00,+2.00,+11.00,+8.00,-8.00,-15.00
+0.00,-12.00,+1.00,+0.00,-1.00,+14.00,+4.00,+15.00,+4.00,+6.00,+0.00,+2.00,-12.00,+0.00,-1.00,-14.00
+4.00,-16.00,-2.00,-1.00,-2.00,-10.00,-5.00,+1.00,-18.00,-5.00,-2.00,+5.00,+15.00,+5.00,+0.00,+3.00
+0.00,+31.00,+0.00,-2.00,-11.00,-11.00,-17.00,-8.00,+7.00,+5.00,+2.00,-10.00,-14.00,+0.00,-8.00,+4.00
+2.00,+1.00,+3.00,+4.00,+11.00,+18.00,+25.00,+11.00,+44.00,+0.00,-7.00,-7.00,-17.00,-21.00,-8.00,-15.00
-2.00,+0.00,-1.00,+1.00,+2.00,+30.00,+12.00,-9.00,+62.00,+30.00,+6.00,+10.00,+27.00,+21.00,+0.00,+7.00
+0.00,-5.00,-1.00,-2.00,+2.00,-3.00,-10.00,+5.00,+17.00,+2.00,+2.00,+1.00,-8.00,+11.00,+12.00,+16.00
-3.00,-6.00,-2.00,-1.00,-2.00,+15.00,-6.00,-1.00,-20.00,-9.00,+0.00,+0.00,+10.00,-8.00,-12.00,-11.00
+5.00,-1.00,-2.00,-8.00,-4.00,-46.00,-14.00,+4.00,+16.00,-8.00,-2.00,+3.00,-5.00,-2.00,+3.00,-10.00
-4.00,+13.00,+3.00,+2.00,-3.00,-17.00,-3.00,-2.00,-3.00,+7.00,-7.00,-13.00,+8.00,-13.00,-24.00,-32.00
-2.00,-14.00,-1.00,-1.00,+0.00,+7.00,+4.00,+3.00,-3.00,+8.00,+5.00,-1.00,-54.00,+3.00,+16.00,+23.00
-1.00,-10.00,-2.00,-1.00,+1.00,+10.00,+6.00,+3.00,-23.00,-10.00,-6.00,-1.00,-4.00,-6.00,-4.00,+8.00
+2.00,-17.00,+0.00,+0.00,-5.00,-10.00,-4.00,-2.00,-32.00,-8.00,-5.00,-3.00,+17.00,-1.00,-10.00,-13.00
+0.00,+20.00,+1.00,-3.00,-3.00,-14.00,-1.00,+2.00,-31.00,-21.00,-4.00,-1.00,-19.00,-3.00,+5.00,-5.00
+1.00,-37.00,-5.00,+1.00,-3.00,+7.00,+0.00,+15.00,+17.00,+10.00,+0.00,+0.00,+1.00,-2.00,-2.00,-7.00
-1.00,-19.00,+1.00,-3.00,-2.00,-16.00,+1.00,-37.00,-15.00,-22.00,-5.00,-2.00,+14.00,-2.00,-6.00,+7.00
-2.00,+0.00,-5.00,-2.00,-3.00,-1.00,-2.00,+0.00,-18.00,+33.00,-4.00,-4.00,+18.00,-4.00,-2.00,-18.00
-3.00,+78.00,+8.00,+5.00,+4.00,+3.00,-11.00,-3.00,+32.00,-42.00,+1.00,+0.00,+0.00,-4.00,-1.00,+8.00
-1.00,+11.00,-3.00,-11.00,-17.00,-24.00,-8.00,+5.00,-1.00,+31.00,+6.00,+5.00,-6.00,-7.00,-17.00,-8.00
+1.00,-18.00,-4.00,-2.00,+12.00,+47.00,+30.00,+43.00,+3.00,+6.00,-1.00,-7.00,+4.00,+3.00,-3.00,+2.00
+4.00,-10.00,-5.00,+12.00,+5.00,+23.00,-13.00,-32.00,+23.00,-14.00,+1.00,-5.00,+28.00,+6.00,+10.00,+36.00
-5.00,-41.00,-4.00,+1.00,+0.00,+1.00,-3.00,-14.00,-19.00,-27.00,-9.00,+4.00,-22.00,+2.00,+5.00,-2.00
-1.00,+14.00,-1.00,-4.00,-4.00,-8.00,-26.00,-15.00,+15.00,+7.00,+2.00,+8.00,-2.00,-8.00,-7.00,-4.00
-2.00,+10.00,+0.00,+3.00,+3.00,-19.00,+31.00,+16.00,+42.00,+2.00,-1.00,-3.00,+9.00,-5.00,-3.00,+3.00
-3.00,-32.00,-4.00,-10.00,-2.00,-13.00,+0.00,+0.00,-22.00,+11.00,-12.00,-4.00,-21.00,+1.00,-5.00,-25.00
-1.00,-22.00,-1.00,+2.00,+1.00,+12.00,+2.00,+8.00,+49.00,+57.00,+26.00,+11.00,+24.00,+7.00,+5.00,+16.00
-4.00,+14.00,+3.00,+0.00,+0.00,-33.00,+2.00,-7.00,-22.00,-3.00,-5.00,-7.00,-13.00,-5.00,+5.00,+3.00
+0.00,+4.00,+1.00,+4.00,+5.00,+33.00,-6.00,+2.00,-22.00,+15.00,+0.00,+9.00,+39.00,-7.00,-11.00,-17.00
-5.00,+68.00,+9.00,-9.00,-6.00,-2.00,+1.00,+14.00,+28.00,-26.00,+1.00,+3.00,-12.00,+20.00,+4.00,+11.00
+7.00,-19.00,-5.00,-6.00,-10.00,-8.00,-10.00,-8.00,-16.00,-30.00,-19.00,-15.00,-11.00,-6.00,-5.00,-5.00
+2.00,-27.00,-2.00,+1.00,+4.00,-66.00,+6.00,+4.00,+17.00,+9.00,+5.00,+2.00,+47.00,-3.00,+5.00,-5.00
-9.00,+23.00,-1.00,+5.00,+6.00,+26.00,-1.00,-6.00,+2.00,+10.00,+13.00,+8.00,-93.00,+13.00,+13.00,+32.00
-3.00,-41.00,-5.00,-6.00,-3.00,+4.00,-4.00,-4.00,+10.00,+18.00,-3.00,-1.00,+14.00,-7.00,-7.00,+2.00
-2.00,+29.00,-2.00,-4.00,-6.00,-9.00,-4.00,+1.00,-20.00,+2.00,-5.00,-2.00,+5.00,-8.00,-7.00,-3.00
+2.00,-27.00,-4.00,-2.00,+2.00,+20.00,+4.00,-4.00,-10.00,-15.00,-12.00,-3.00,-21.00,-1.00,+1.00,-33.00
+2.00,+31.00,-6.00,-3.00,-6.00,-24.00,-3.00,+2.00,+33.00,-75.00,-15.00,-29.00,+16.00,-4.00,-9.00,-9.00
+2.00,-37.00,+4.00,-1.00,-2.00,+3.00,-12.00,+0.00,-11.00,+32.00,+10.00,+12.00,-19.00,-15.00,+11.00,+27.00
-3.00,+58.00,+14.00,+3.00,+6.00,-10.00,+3.00,+1.00,+11.00,-3.00,+7.00,+11.00,-65.00,-1.00,+3.00,+9.00
-2.00,+7.00,-2.00,-1.00,-1.00,+21.00,+7.00,+3.00,-47.00,-30.00,+2.00,-1.00,+22.00,-7.00,-9.00,-33.00
+3.00,-4.00,-4.00,-3.00,-5.00,-15.00,-10.00,-5.00,-5.00,+11.00,-2.00,-4.00,+13.00,+4.00,-5.00,-10.00
-4.00,+33.00,-1.00,-8.00,-8.00,-4.00,-1.00,-1.00,-31.00,+16.00,-8.00,-13.00,-33.00,-8.00,-1.00,+1.00
+7.00,-16.00,-8.00,+2.00,-2.00,-32.00,-4.00,+0.00,+33.00,+3.00,-6.00,-5.00,+31.00,+1.00,+2.00,-5.00
+0.00,+11.00,+9.00,+7.00,+8.00,+37.00,+9.00,+0.00,-1.00,+27.00,+1.00,-2.00,-19.00,+1.00,+3.00,+12.00
-2.00,-29.00,+0.00,-5.00,+3.00,+5.00,-5.00,-4.00,-20.00,-10.00,-6.00,-22.00,-10.00,-4.00,-2.00,-6.00
+1.00,+29.00,-9.00,-12.00,-14.00,-20.00,-11.00,-3.00,-33.00,-14.00,+8.00,+22.00,+31.00,-4.00,-9.00,-12.00
+3.00,+23.00,+7.00,+11.00,+10.00,-2.00,+8.00,+1.00,-25.00,+35.00,+9.00,+3.00,+13.00,+10.00,+10.00,+14.00
+2.00,+2.00,-2.00,+1.00,+2.00,+11.00,+1.00,-6.00,+62.00,-14.00,-7.00,-1.00,+9.00,+14.00,+6.00,+59.00
-2.00,-25.00,-5.00,-4.00,-3.00,+6.00,-1.00,+3.00,-20.00,+25.00,+3.00,+19.00,-2.00,+10.00,+21.00,-4.00
-1.00,-25.00,-9.00,-3.00,-1.00,-18.00,-4.00,-5.00,-29.00,+3.00,-5.00,-4.00,+8.00,+3.00,-7.00,-29.00
-4.00,-22.00,-13.00,-11.00,-8.00,-5.00,-7.00,-6.00,-4.00,-46.00,-7.00,-9.00,+1.00,-22.00,-21.00,-32.00
-5.00,+1.00,+5.00,-8.00,-7.00,+5.00,+7.00,+6.00,+51.00,+40.00,+11.00,-2.00,-20.00,+31.00,+14.00,-1.00
+4.00,+4.00,+2.00,+12.00,+6.00,+6.00,+5.00,+1.00,+61.00,+8.00,+8.00,+17.00,+21.00,+1.00,+1.00,+39.00
-2.00,+0.00,+2.00,+2.00,+0.00,+9.00,-8.00,+7.00,+53.00,+23.00,+10.00,+1.00,+3.00,+7.00,+4.00,+18.00
-4.00,-43.00,-10.00,-6.00,-1.00,+12.00,-4.00,+0.00,-61.00,-41.00,-17.00,-9.00,-7.00,-13.00,-13.00,-42.00
-2.00,+18.00,-7.00,-6.00,-3.00,+11.00,-5.00,-1.00,-38.00,-15.00,+3.00,-3.00,+21.00,-4.00,+12.00,+56.00
-1.00,+15.00,+0.00,-11.00,-14.00,-66.00,+3.00,-10.00,+21.00,-19.00,-9.00,-8.00,-9.00,-7.00,-12.00,-28.00
-4.00,-37.00,-2.00,+9.00,+12.00,+31.00,+13.00,+3.00,-49.00,-51.00,+1.00,+3.00,-43.00,-7.00,-8.00,-55.00
-2.00,+23.00,+7.00,+5.00,+14.00,+100.00,+16.00,+12.00,+20.00,+78.00,+5.00,-4.00,+35.00,+3.00,+4.00,+9.00
+3.00,+36.00,-2.00,-8.00,-4.00,-7.00,+3.00,+5.00,-34.00,-41.00,-6.00,-12.00,+3.00,-8.00,+1.00,-11.00
-7.00,-40.00,+8.00,+5.00,-4.00,+1.00,-8.00,-9.00,+0.00,-2.00,+6.00,+14.00,+10.00,+4.00,+11.00,+38.00
-3.00,-5.00,-9.00,-6.00,-2.00,-4.00,+8.00,-6.00,+40.00,+16.00,-8.00,+7.00,-47.00,-10.00,-4.00,+8.00
-1.00,-63.00,-11.00,-7.00,-13.00,-40.00,-10.00,-8.00,-79.00,-26.00,-5.00,-8.00,+13.00,+3.00,-5.00,-17.00
-6.00,+39.00,+2.00,+5.00,-1.00,+10.00,+5.00,+1.00,+44.00,-2.00,-2.00,+7.00,-3.00,-1.00,+11.00,+31.00
+1.00,-32.00,-6.00,-8.00,+4.00,-2.00,-5.00,-1.00,+77.00,+50.00,+14.00,-1.00,+44.00,-2.00,-8.00,-6.00
+2.00,+35.00,+8.00,+8.00,+8.00,+16.00,+6.00,+5.00,-32.00,-4.00,-7.00,-19.00,+4.00,+11.00,-8.00,-2.00
+0.00,-32.00,-2.00,-3.00,-6.00,-39.00,-5.00,-10.00,+33.00,+15.00,+5.00,-5.00,-50.00,-2.00,+9.00,+44.00
-2.00,+8.00,+0.00,+0.00,-8.00,-50.00,-41.00,-10.00,-14.00,-15.00,-15.00,+2.00,-58.00,+30.00,+1.00,-18.00
-3.00,-2.00,-3.00,+3.00,+7.00,+64.00,+40.00,+18.00,-45.00,+18.00,+6.00,+15.00,+19.00,-9.00,-7.00,+14.00
-3.00,+1.00,-3.00,-9.00,-8.00,-13.00,-10.00,-5.00,-69.00,-43.00,-12.00,-3.00,+10.00,-6.00,+8.00,-10.00
+4.00,-64.00,-11.00,-5.00,+1.00,-7.00,+4.00,-13.00,+54.00,-9.00,+3.00,-6.00,+4.00,-11.00,-18.00,-15.00
-2.00,+61.00,+10.00,+2.00,-6.00,-42.00,-4.00,+7.00,-89.00,-9.00,+9.00,+10.00,+35.00,+21.00,-4.00,+16.00
-2.00,+7.00,-2.00,+3.00,+4.00,+13.00,-7.00,-3.00,-41.00,+38.00,+5.00,+3.00,-9.00,+8.00,+20.00,+43.00
+4.00,-63.00,+0.00,+3.00,+3.00,+3.00,+10.00,-6.00,-63.00,-67.00,-9.00,-5.00,+17.00,+5.00,-10.00,-30.00
-3.00,+72.00,-3.00,-12.00,-9.00,+11.00,-9.00,+2.00,-117.00,-66.00,-29.00,-15.00,-17.00,-15.00,-11.00,-56.00
+0.00,-121.00,+1.00,+6.00,+9.00,+11.00,+13.00,-7.00,+66.00,+48.00,+18.00,+8.00,+13.00,-8.00,+12.00,+45.00
-2.00,-16.00,-8.00,-7.00,-4.00,-38.00,-18.00,+0.00,+79.00,+94.00,-9.00,-10.00,-46.00,-18.00,-10.00,-1.00
-3.00,+65.00,-6.00,-4.00,+5.00,+22.00,+6.00,+9.00,-31.00,-50.00,+34.00,+17.00,+97.00,+10.00,+24.00,+52.00
+3.00,-72.00,+3.00,+7.00,+0.00,+4.00,+1.00,+1.00,-28.00,+13.00,+2.00,-16.00,-56.00,-14.00,-17.00,-29.00
-4.00,+12.00,-1.00,-4.00,-6.00,-5.00,-3.00,+0.00,+15.00,+36.00,-6.00,-10.00,-102.00,-5.00,+8.00,-24.00
+0.00,+1.00,+3.00,+6.00,+4.00,+39.00,+7.00,+5.00,-42.00,-29.00,-3.00,+31.00,+86.00,+4.00,-17.00,-60.00
+5.00,-9.00,+0.00,+0.00,-6.00,-12.00,-11.00,+0.00,+8.00,+0.00,-23.00,-9.00,+2.00,-10.00,-4.00,-11.00
-6.00,+38.00,-6.00,-1.00,+1.00,-16.00,-6.00,-13.00,+116.00,+53.00,+39.00,+33.00,+54.00,+23.00,+28.00,+86.00
+4.00,-13.00,+8.00,+6.00,+10.00,+33.00,+17.00,+7.00,-59.00,-52.00,-7.00,-12.00,+1.00,-9.00,-4.00,-12.00
+3.00,-3.00,+2.00,+0.00,+1.00,-5.00,-5.00,-9.00,+42.00,+14.00,-15.00,-31.00,-49.00,-17.00,-6.00,+0.00
-1.00,-32.00,+0.00,-6.00,-7.00,-26.00,-7.00,-5.00,-71.00,+9.00,+20.00,+5.00,+4.00,+18.00,+2.00,+0.00
-2.00,+5.00,+1.00,-8.00,-6.00,-40.00,-4.00,+8.00,-19.00,-14.00,+9.00,+13.00,-13.00,+2.00,-1.00,-27.00
+1.00,-3.00,-13.00,+1.00,+6.00,+26.00,-8.00,+8.00,-22.00,-31.00,-17.00,-9.00,-8.00,-8.00,-13.00,-29.00
+1.00,+27.00,+2.00,+1.00,-1.00,+34.00,+2.00,-5.00,-16.00,+46.00,-1.00,-10.00,+1.00,-4.00,-15.00,-25.00
+1.00,-68.00,-7.00,-2.00,-1.00,+1.00,-4.00,-12.00,-17.00,-83.00,-25.00,-11.00,-11.00,-10.00,-8.00,+6.00
+0.00,+116.00,+41.00,+5.00,-1.00,-20.00,+3.00,+12.00,+94.00,+123.00,+9.00,-6.00,+23.00,-8.00,+10.00,+64.00
-3.00,-40.00,-6.00,+2.00,+3.00,+3.00,+6.00,+2.00,+5.00,-46.00,+2.00,-5.00,+32.00,+6.00,-4.00,-19.00
+0.00,-53.00,-8.00,-2.00,-2.00,-26.00,-4.00,-13.00,-50.00,-54.00,-11.00,+11.00,-56.00,+0.00,-7.00,-10.00
-2.00,+53.00,+10.00,+0.00,+2.00,+16.00,-1.00,+4.00,+40.00,+82.00,+12.00,+2.00,+12.00,-7.00,+3.00,+11.00
+0.00,-57.00,-17.00,-18.00,-12.00,-14.00,-13.00,+3.00,-88.00,-89.00,-18.00,-20.00,-59.00,-4.00,+0.00,-24.00
-5.00,+25.00,-3.00,+1.00,-3.00,-2.00,+8.00,-6.00,-124.00,-56.00,+5.00,+26.00,+58.00,-6.00,-12.00,-16.00
+1.00,-90.00,-47.00,-15.00,-14.00,-25.00,-28.00,-11.00,+45.00,+45.00,+4.00,-2.00,+19.00,-17.00,+0.00,+4.00
+4.00,+115.00,+74.00,+28.00,+14.00,+28.00,+28.00,+30.00,+6.00,+16.00,+0.00,-7.00,+74.00,+19.00,+4.00,-20.00
-5.00,-56.00,-14.00,-19.00,-21.00,-86.00,-17.00,-13.00,+55.00,+8.00,-9.00,+2.00,-71.00,-6.00,-7.00,-11.00
+8.00,-69.00,+8.00,+19.00,+21.00,+12.00,+8.00,+18.00,-90.00,+37.00,-29.00,-16.00,-27.00,-23.00,-21.00,-44.00
-11.00,-38.00,-6.00,-5.00,+1.00,+62.00,+3.00,-2.00,-65.00,-106.00,+13.00,-3.00,-18.00,+10.00,+5.00,+23.00
+1.00,+21.00,-36.00,-25.00,-15.00,-28.00,-32.00,-4.00,-24.00,-71.00,-22.00,-15.00,-20.00,-31.00,-27.00,-83.00
+1.00,-70.00,+22.00,+30.00,+29.00,+65.00,+54.00,+0.00,+51.00,+1.00,+40.00,+25.00,+44.00,+18.00,+44.00,+108.00
-3.00,+57.00,-13.00,-14.00,-16.00,-25.00,-5.00,-14.00,+13.00,-19.00,-23.00,-18.00,-20.00,-19.00,-32.00,-70.00
+3.00,-61.00,-7.00,-5.00,-5.00,-46.00,+0.00,-16.00,+3.00,+69.00,+26.00,+16.00,+25.00,+8.00,+35.00,+61.00
+1.00,+30.00,+12.00,+8.00,+1.00,+1.00,-5.00,-29.00,-13.00,+40.00,-5.00,-6.00,-24.00,+8.00,-4.00,-7.00
-1.00,+64.00,+6.00,+9.00,+9.00,+14.00,-4.00,-19.00,-69.00,-49.00,-7.00,+3.00,+21.00,+17.00,-11.00,-29.00
+2.00,+3.00,-17.00,-8.00,-7.00,-9.00,-10.00,-20.00,+35.00,+32.00,-2.00,-3.00,-38.00,-15.00,+12.00,+6.00
+0.00,+22.00,+8.00,-3.00,-1.00,-14.00,-4.00,+6.00,-49.00,-26.00,-14.00,-16.00,+35.00,+3.00,+4.00,+3.00
-1.00,-91.00,-11.00,-8.00,-10.00,-10.00,-6.00,+4.00,+25.00,-17.00,+0.00,+6.00,-31.00,+2.00,+11.00,+21.00
-2.00,-77.00,-21.00,-4.00,-4.00,+17.00,-13.00,-14.00,-45.00,-34.00,-19.00,-6.00,-21.00,-27.00,-21.00,-29.00
-5.00,+70.00,+17.00,+6.00,+6.00,-41.00,-1.00,+8.00,+5.00,+49.00,+24.00,+6.00,+11.00,+32.00,+6.00,+6.00
-4.00,+115.00,+12.00,+3.00,+3.00,+42.00,+8.00,+9.00,-91.00,-10.00,-36.00,-22.00,-36.00,-36.00,-52.00,-87.00
+0.00,-119.00,-9.00,-3.00,-3.00,-4.00,-5.00,-9.00,-3.00,+41.00,+28.00,+6.00,+63.00,+5.00,+93.00,+62.00
-6.00,-21.00,+0.00,-6.00,-5.00,-59.00,-13.00,+7.00,-31.00,+8.00,+19.00,+30.00,-25.00,+47.00,-17.00,+70.00
+1.00,+49.00,+13.00,+5.00,-8.00,+34.00,+3.00,+11.00,+59.00,+35.00,+5.00,-3.00,-5.00,-19.00,-14.00,-15.00
-1.00,-2.00,+13.00,-2.00,+2.00,+0.00,+4.00,+13.00,-86.00,-121.00,-19.00,-14.00,-8.00,+6.00,-23.00,-77.00
-7.00,-10.00,-13.00,-16.00,-4.00,+12.00,-15.00,+5.00,-2.00,+54.00,-16.00,-3.00,-15.00,-11.00,-2.00,+23.00
+1.00,-11.00,-16.00,-1.00,+5.00,-39.00,+28.00,+8.00,-6.00,+110.00,+23.00,+4.00,+31.00,-18.00,+3.00,-22.00
+0.00,-88.00,-2.00,-9.00,+2.00,+40.00,-1.00,-7.00,+86.00,-8.00,-17.00,-31.00,+10.00,-4.00,-6.00,+31.00
-6.00,-46.00,+12.00,+5.00,+2.00,-25.00,+2.00,-4.00,-43.00,-103.00,+22.00,+14.00,-106.00,+9.00,+21.00,+10.00
+2.00,+48.00,-6.00,-4.00,-12.00,+1.00,-4.00,+4.00,+17.00,-37.00,-9.00,+14.00,-15.00,+1.00,-25.00,+3.00
-3.00,+92.00,+28.00,+23.00,+19.00,+33.00,+12.00,+10.00,+76.00,+78.00,-14.00,-4.00,+113.00,-3.00,+10.00,+13.00
-3.00,-77.00,-33.00,-28.00,-19.00,-26.00,-19.00,+6.00,-59.00,-19.00,-8.00,-7.00,-113.00,-4.00,-18.00,-30.00
+1.00,+40.00,+18.00,+18.00,+12.00,+15.00,+15.00,+2.00,+70.00,+77.00,+17.00,+22.00,+98.00,-11.00,+36.00,+84.00
-1.00,-13.00,-5.00,-2.00,-2.00,-33.00,+4.00,-2.00,+58.00,-37.00,+4.00,-21.00,-57.00,+9.00,-2.00,+34.00
-1.00,-49.00,-32.00,-10.00,-6.00,+16.00,-23.00,+11.00,-95.00,+8.00,-32.00,+4.00,+11.00,-24.00,-27.00,-71.00
-2.00,-23.00,-7.00,-8.00,-12.00,+0.00,+4.00,-10.00,+105.00,+36.00,-5.00,-4.00,+43.00,+18.00,-2.00,-37.00
+4.00,-53.00,+4.00,+12.00,+2.00,-61.00,-21.00,-5.00,+127.00,-88.00,+27.00,+15.00,+24.00,+17.00,+36.00,+74.00
-1.00,+26.00,+15.00,+10.00,+11.00,+34.00,+36.00,+10.00,-102.00,-109.00,-16.00,-11.00,-43.00,-9.00,-28.00,-65.00
+1.00,-63.00,-8.00,-11.00,-7.00,+22.00,-22.00,+1.00,+64.00,+61.00,-18.00,-21.00,+4.00,+0.00,+9.00,+15.00
-5.00,+69.00,+22.00,+8.00,+11.00,+25.00,+59.00,+10.00,+12.00,+96.00,+26.00,+17.00,+13.00,-12.00,+12.00,+31.00
+1.00,-109.00,-42.00,-35.00,-27.00,-36.00,-37.00,-7.00,-33.00,-7.00,+9.00,+0.00,-10.00,+12.00,-5.00,+0.00
+0.00,+101.00,+31.00,+15.00,+9.00,+1.00,+15.00,+10.00,+28.00,+99.00,-2.00,+0.00,-1.00,-6.00,-27.00,-15.00
+8.00,-20.00,+30.00,+25.00,+16.00,+52.00,+26.00,+5.00,-102.00,-127.00,+4.00,-5.00,+17.00,+7.00,+20.00,+20.00
-2.00,-26.00,-13.00,-6.00,-9.00,-5.00,-27.00,+29.00,-71.00,-77.00,-13.00,-1.00,-17.00,-30.00,-9.00,-47.00
-2.00,-58.00,-12.00,-11.00,-18.00,-64.00,-18.00,+14.00,-55.00,+66.00,-19.00,-16.00,+29.00,+14.00,-33.00,-84.00
-1.00,+75.00,+16.00,+3.00,+5.00,+13.00,+9.00,+13.00,-42.00,+125.00,+43.00,+15.00,-49.00,+41.00,+25.00,+80.00
-7.00,-21.00,-13.00,-18.00,-8.00,+21.00,-13.00,+5.00,-87.00,-65.00,-31.00,-4.00,+4.00,-4.00,+13.00,-27.00
+2.00,-100.00,-34.00,-20.00,-22.00,-64.00,-22.00,-25.00,-70.00,+49.00,+16.00,+16.00,+12.00,-7.00,+0.00,+15.00
-4.00,+127.00,+59.00,+31.00,+32.00,+88.00,+32.00,+27.00,+38.00,+71.00,+5.00,-4.00,+20.00,+8.00,+8.00,+2.00
+0.00,-80.00,-21.00,-10.00,-1.00,+20.00,-12.00,-10.00,-56.00,-115.00,-24.00,-19.00,-28.00,-22.00,-32.00,-66.00
+8.00,+2.00,-12.00,+0.00,-4.00,+5.00,-3.00,-22.00,+60.00,+91.00,+11.00,-17.00,+7.00,-20.00,+12.00,+29.00
-1.00,+57.00,+11.00,-8.00,+0.00,-64.00,-17.00,-7.00,-128.00,-88.00,+11.00,+18.00,+2.00,+26.00,+3.00,+10.00
-6.00,-39.00,+4.00,+2.00,+7.00,+38.00,+31.00,-10.00,+53.00,+107.00,-16.00,-7.00,-5.00,-18.00,+0.00,+37.00
-4.00,-77.00,-18.00,-1.00,+3.00,-15.00,-9.00,-21.00,+10.00,-28.00,+16.00,+2.00,+2.00,+13.00,+2.00,+9.00
+11.00,+53.00,+11.00,+4.00,-11.00,+15.00,-3.00,-1.00,+97.00,+29.00,+17.00,-6.00,+13.00,+6.00,-2.00,+16.00
+0.00,-128.00,-30.00,-13.00,-8.00,-28.00,-18.00,-2.00,-17.00,-128.00,-7.00,+14.00,+21.00,-5.00,+9.00,+4.00
-10.00,+73.00,+35.00,-2.00,+4.00,+2.00,+8.00,-8.00,-33.00,-54.00,-28.00,-11.00,+10.00,+4.00,-38.00,-95.00
-5.00,-80.00,-13.00,+2.00,-9.00,-20.00,-13.00,+3.00,+75.00,-34.00,-6.00,+6.00,+15.00,+3.00,+21.00,+65.00
+7.00,+22.00,+4.00,+7.00,-2.00,-12.00,-1.00,+9.00,-79.00,-21.00,+6.00,-1.00,-21.00,+0.00,+4.00,+4.00
-2.00,-128.00,+29.00,+25.00,+18.00,+46.00,+14.00,-6.00,+44.00,+58.00,+31.00,-1.00,+8.00,+6.00,+4.00,-7.00
-7.00,-31.00,-11.00,-6.00,+1.00,-15.00,-4.00,-4.00,+14.00,-66.00,-12.00,-9.00,-29.00,-7.00,-4.00,-5.00
-2.00,-90.00,-25.00,-5.00,-5.00,+1.00,-27.00,-14.00,+56.00,+127.00,+0.00,+2.00,+36.00,-5.00,-4.00,-30.00
-10.00,+49.00,+7.00,-5.00,-8.00,-10.00,-1.00,+9.00,+8.00,-128.00,-17.00,-12.00,-48.00,-1.00,-22.00,-53.00
+4.00,+15.00,+4.00,+12.00,+0.00,-5.00,-2.00,+4.00,-50.00,-24.00,-76.00,-41.00,-3.00,-26.00,-20.00,-36.00
+4.00,-77.00,-14.00,+4.00,-14.00,-4.00,-36.00,-11.00,-128.00,-41.00,+100.00,+56.00,+12.00,+29.00,+40.00,+66.00
+4.00,+39.00,+7.00,+24.00,+8.00,-17.00,+37.00,+10.00,+42.00,+58.00,+6.00,+5.00,+8.00,-5.00,+2.00,-3.00
-1.00,-128.00,-32.00,-2.00,-1.00,+25.00,-6.00,-9.00,+6.00,-4.00,-14.00,-1.00,+10.00,-2.00,-12.00,-20.00
+2.00,-11.00,+4.00,+31.00,+13.00,+61.00,+17.00,+23.00,-24.00,-84.00,-22.00,-20.00,-51.00,-25.00,-30.00,-23.00
+12.00,+36.00,+13.00,+70.00,+3.00,-4.00,+8.00,-43.00,-63.00,+8.00,+2.00,+10.00,+45.00,+4.00,+25.00,-43.00
-3.00,-128.00,-35.00,-14.00,-21.00,-67.00,-27.00,-23.00,-21.00,+1.00,-13.00,-27.00,-20.00,-33.00,-13.00,+5.00
+9.00,+33.00,+16.00,+16.00,+17.00,+55.00,+27.00,+15.00,-13.00,+39.00,+17.00,+27.00,-1.00,+41.00,+20.00,+15.00
-11.00,-31.00,-16.00,-57.00,-10.00,-19.00,-13.00,+8.00,+74.00,+33.00,-2.00,+17.00,+11.00,+4.00,-9.00,-1.00
+22.00,-7.00,-37.00,-40.00,+5.00,-37.00,+4.00,-25.00,+60.00,-34.00,-30.00,-21.00,-36.00,+3.00,-13.00,-11.00
-11.00,-75.00,+3.00,-24.00,-2.00,+28.00,-3.00,-9.00,-29.00,-51.00,+9.00,+10.00,-8.00,-3.00,+3.00,+33.00
-3.00,+85.00,+22.00,-36.00,+0.00,-19.00,-3.00,-13.00,+39.00,-67.00,-9.00,-7.00,-28.00,-4.00,-7.00,-3.00
+2.00,+33.00,+16.00,+3.00,+10.00,-13.00,+8.00,-8.00,-48.00,+30.00,-21.00,-24.00,+11.00,-19.00,-19.00,-40.00
+5.00,+13.00,-23.00,-34.00,-17.00,-2.00,-21.00,-1.00,+29.00,+93.00,+66.00,+40.00,+28.00,+30.00,+60.00,+116.00
-5.00,+33.00,-9.00,-14.00,-2.00,+4.00,+6.00,+7.00,+9.00,+12.00,-4.00,-1.00,-4.00,-6.00,-23.00,-80.00
+4.00,-120.00,-80.00,-18.00,-21.00,-18.00,-14.00,+3.00,+43.00,-19.00,-16.00,-11.00,-6.00,-12.00,-18.00,-30.00
-4.00,+115.00,+72.00,-2.00,+0.00,+7.00,+5.00,+10.00,-29.00,-22.00,+4.00,+2.00,-12.00,+14.00,+17.00,+22.00
-5.00,-76.00,+0.00,-21.00,-12.00,-21.00,-5.00,+29.00,-3.00,-91.00,-36.00,-22.00,-1.00,-20.00,-31.00,-48.00
+7.00,-30.00,-9.00,-8.00,+2.00,+20.00,+8.00,-13.00,-37.00,-84.00,+2.00,-5.00,-11.00,+2.00,+7.00,+15.00
-18.00,-22.00,-22.00,-8.00,-16.00,-40.00,-28.00,-9.00,+16.00,+86.00,+36.00,+28.00,+37.00,+20.00,+17.00,+21.00
+19.00,-47.00,-109.00,-18.00,-26.00,-17.00,-32.00,-65.00,+53.00,+92.00,+3.00,+15.00,+42.00,-7.00,+7.00,+22.00
-15.00,+127.00,+109.00,+46.00,+44.00,+52.00,+49.00,+50.00,+13.00,+100.00,-36.00,-30.00,+0.00,-13.00,-32.00,-71.00
-4.00,-128.00,-5.00,-6.00,-3.00,-16.00,-8.00,-2.00,-33.00,+72.00,+17.00,+1.00,-9.00,-1.00,+26.00,+69.00
-2.00,-70.00,-3.00,-4.00,-6.00,-5.00,-1.00,+4.00,-58.00,-105.00,-13.00,+3.00,-70.00,-17.00,+4.00,-36.00
-12.00,-71.00,-48.00,-7.00,-1.00,+16.00,-13.00,-50.00,+53.00,-77.00,+4.00,+4.00,+19.00,+17.00,-48.00,-6.00
+2.00,+60.00,+31.00,+8.00,+1.00,-1.00,+7.00,+11.00,+60.00,+22.00,+8.00,+3.00,-7.00,+3.00,+11.00,+20.00
+8.00,+29.00,+5.00,+2.00,+0.00,-22.00,+1.00,-5.00,+63.00,+70.00,-3.00,+8.00,+39.00,+19.00,+15.00,+42.00
-9.00,-47.00,+23.00,+7.00,+4.00,-6.00,-1.00,-11.00,-83.00,-38.00,-5.00,-17.00,-4.00,-27.00,-19.00,-45.00
+1.00,-70.00,-2.00,+8.00,+1.00,+56.00,-2.00,+16.00,-2.00,-41.00,-17.00,-15.00,-14.00,-9.00,+3.00,-17.00
-10.00,-52.00,-39.00,+0.00,-8.00,+30.00,-12.00,-9.00,-83.00,-11.00,-6.00,-10.00,+9.00,-5.00,-9.00,-13.00
+0.00,+53.00,+29.00,+17.00,+3.00,+13.00,+16.00,+17.00,-68.00,-58.00,-17.00,-2.00,-34.00,-3.00,-9.00,-31.00
-2.00,-25.00,+12.00,+8.00,+7.00,-13.00,-10.00,-3.00,+98.00,-51.00,-18.00,-10.00,-6.00,-8.00,-9.00,-1.00
-2.00,-128.00,-43.00,-21.00,-19.00,-21.00,-15.00,-16.00,-2.00,+24.00,+32.00,+12.00,-4.00,+6.00,+28.00,+39.00
+8.00,+62.00,+56.00,+52.00,+42.00,+35.00,+55.00,+33.00,-22.00,-96.00,-30.00,-23.00,-19.00,-12.00,-34.00,-43.00
+2.00,+101.00,+16.00,+5.00,+5.00,+2.00,+7.00,+11.00,+43.00,+50.00,+15.00,+9.00,-33.00,+10.00,+15.00,+16.00
-8.00,-57.00,-22.00,-21.00,-10.00,+0.00,-6.00,+2.00,-88.00,-38.00,-17.00,-2.00,+36.00,+0.00,-9.00,-16.00
-4.00,-27.00,+18.00,+9.00,+4.00,-8.00,-4.00,+7.00,-31.00,-34.00,+17.00,+0.00,+6.00,+14.00,+26.00,+18.00
-13.00,-126.00,-58.00,-39.00,-27.00,-17.00,-24.00,-23.00,-28.00,+94.00,-3.00,-6.00,-27.00,-23.00,+0.00,-7.00
-7.00,+22.00,+1.00,-9.00,-2.00,-23.00,-8.00,+8.00,+46.00,-16.00,-6.00,+12.00,+0.00,-4.00,-31.00,-43.00
-9.00,-2.00,+25.00,+10.00,+13.00,-28.00,+14.00,+1.00,+22.00,+1.00,-2.00,-3.00,-45.00,+3.00,+5.00,+48.00
+17.00,+125.00,+32.00,+14.00,+20.00,+67.00,+25.00,+24.00,+30.00,+27.00,+11.00,+5.00,-4.00,-12.00,+19.00,+9.00
-7.00,-114.00,-49.00,-42.00,-25.00,-26.00,-32.00,-23.00,+39.00,-58.00,-33.00,-27.00,-5.00,-6.00,-24.00,-29.00
+7.00,-40.00,+18.00,+11.00,+12.00,+34.00,+22.00,+8.00,+108.00,-43.00,+6.00,+12.00,+15.00,-1.00,+21.00,+6.00
-4.00,+11.00,+9.00,+1.00,-8.00,-23.00,+2.00,+24.00,-21.00,-39.00,-16.00,-12.00,+26.00,-8.00,-31.00,-41.00
+1.00,-41.00,+13.00,+6.00,+1.00,-13.00,-6.00,-26.00,+110.00,+118.00,+32.00,+15.00,-3.00,+2.00,+38.00,+95.00
-3.00,+116.00,+19.00,-6.00,-1.00,-15.00,+7.00,+18.00,-85.00,-24.00,-30.00,-11.00,-8.00,-5.00,-9.00,-8.00
+3.00,-77.00,-10.00,+0.00,+6.00,+34.00,-3.00,-23.00,+17.00,+22.00,+28.00,+15.00,+51.00,+3.00,-7.00,-16.00
-2.00,+12.00,-5.00,+0.00,-3.00,-15.00,+2.00,-16.00,+52.00,+49.00,+6.00,-1.00,-33.00,-6.00,+1.00,+17.00
-5.00,-47.00,-13.00,-9.00,-7.00,-17.00,-3.00,-6.00,-54.00,-18.00,-10.00,-7.00,+3.00,-2.00,+0.00,-3.00
-6.00,-93.00,-21.00,-15.00,-14.00,-23.00,-21.00,-15.00,+85.00,+7.00,+2.00,-4.00,-9.00,+9.00,+1.00,+29.00
-5.00,+89.00,+9.00,+0.00,+5.00,-5.00,-20.00,-24.00,-30.00,+3.00,-17.00,-16.00,+5.00,-25.00,-18.00,-22.00
+0.00,+99.00,+2.00,+4.00,+10.00,+20.00,+21.00,-55.00,-4.00,+14.00,+5.00,+6.00,-9.00,+22.00,+7.00,-8.00
-11.00,-41.00,-5.00,+5.00,+4.00,-8.00,+12.00,+2.00,-11.00,+13.00,-16.00,+1.00,-4.00,+9.00,-9.00,-9.00
+8.00,+80.00,+14.00,-6.00,-6.00,+15.00,+16.00,+13.00,-23.00,+22.00,+5.00,+4.00,+19.00,-8.00,+0.00,-5.00
+0.00,-63.00,-10.00,+4.00,-2.00,-39.00,-12.00,-16.00,-128.00,-128.00,+0.00,+4.00,+22.00,+4.00,-18.00,-35.00
-4.00,-60.00,-15.00,-4.00,-13.00,+6.00,-11.00,+4.00,+21.00,+76.00,+14.00,-9.00,-29.00,+10.00,+33.00,+25.00
-15.00,+62.00,+25.00,+4.00,+4.00,+17.00,+1.00,+12.00,-21.00,-32.00,+4.00,+13.00,-5.00,-5.00,+6.00,+1.00
+8.00,-77.00,-21.00,-6.00,-2.00,-37.00,-6.00,-22.00,-35.00,-13.00,+2.00,+6.00,+10.00,-11.00,-10.00,-8.00
-6.00,+4.00,-5.00,+46.00,-10.00,+3.00,+6.00,+23.00,-60.00,+7.00,-44.00,-23.00,-59.00,-16.00,-20.00,-48.00
+6.00,-42.00,+1.00,+35.00,+6.00,+68.00,+4.00,+3.00,-9.00,+49.00,+9.00,-1.00,+28.00,-8.00,-17.00,-4.00
+4.00,+34.00,+14.00,+15.00,+4.00,-21.00,+11.00,+8.00,+9.00,-81.00,+17.00,+10.00,+24.00,+18.00,+8.00,+30.00
+1.00,-122.00,-35.00,-22.00,-15.00,-28.00,-42.00,-13.00,+53.00,-6.00,+3.00,-2.00,-33.00,-3.00,+6.00,+9.00
-6.00,+66.00,+19.00,-15.00,+7.00,+35.00,+39.00,+24.00,+46.00,-40.00,-6.00,-4.00,+20.00,+4.00,+9.00,+14.00
+5.00,+21.00,+22.00,-15.00,-1.00,+5.00,+0.00,+17.00,-4.00,-14.00,-12.00,-9.00,+12.00,-12.00,-8.00,-4.00
+4.00,-35.00,+5.00,+8.00,+14.00,+10.00,+16.00,+5.00,+7.00,+32.00,-4.00,-16.00,-51.00,-3.00,-1.00,-30.00
-2.00,+10.00,-14.00,-17.00,-6.00,+10.00,-3.00,+5.00,-44.00,-42.00,+5.00,+12.00,-9.00,-11.00,+0.00,+14.00
-7.00,+62.00,+5.00,-11.00,+3.00,-12.00,-10.00,+0.00,+21.00,+7.00,-5.00,-2.00,+1.00,+32.00,-7.00,-24.00
+6.00,-29.00,-16.00,-11.00,-3.00,-17.00,-7.00,-3.00,-3.00,-30.00,-9.00,+10.00,+57.00,-31.00,-18.00,-23.00
+6.00,+85.00,+15.00,+26.00,+4.00,+6.00,+12.00,+6.00,-28.00,-45.00,+9.00,+0.00,-24.00,+16.00,+5.00,-6.00
+2.00,-14.00,-6.00,+2.00,+3.00,-2.00,-1.00,-2.00,-26.00,-15.00,-12.00,-2.00,-1.00,-1.00,-21.00,-22.00
+1.00,-93.00,-22.00,-15.00,-10.00,-19.00,-4.00,-13.00,+62.00,+16.00,+7.00,-3.00,-6.00,+9.00,+32.00,+71.00
+7.00,+78.00,+14.00,-5.00,+3.00,+18.00,-6.00,+11.00,-39.00,-63.00,+29.00,+14.00,+6.00,+5.00,+28.00,+45.00
-1.00,-26.00,-6.00,-18.00,-6.00,-38.00,-13.00,+1.00,+6.00,+127.00,+15.00,-1.00,+35.00,-6.00,+4.00,+3.00
+2.00,-83.00,-36.00,-2.00,+5.00,+39.00,+2.00,-10.00,-2.00,-5.00,+2.00,+3.00,-6.00,+3.00,+19.00,+38.00
-20.00,+47.00,+27.00,+5.00,-3.00,-2.00,-4.00,+11.00,-2.00,+0.00,-12.00,-8.00,+9.00,-19.00,-35.00,-43.00
-5.00,-105.00,-10.00,-5.00,-8.00,-51.00,-19.00,-5.00,-22.00,-36.00,+4.00,+0.00,-13.00,+9.00,+4.00,-1.00
+2.00,+44.00,+16.00,+7.00,+15.00,+48.00,+27.00,+11.00,+39.00,-20.00,-24.00,-10.00,+15.00,-13.00,-13.00,-4.00
+3.00,+69.00,+4.00,+0.00,-8.00,+3.00,-6.00,-8.00,+38.00,+7.00,-2.00,-9.00,-21.00,+4.00,-2.00,-19.00
+12.00,+5.00,-26.00,-25.00,-12.00,-26.00,-7.00,+5.00,-34.00,+40.00,+12.00,+8.00,+8.00,-3.00,+3.00,+12.00
+3.00,-48.00,-30.00,-2.00,+5.00,+11.00,+6.00,+1.00,-34.00,-6.00,-6.00,-4.00,-3.00,+8.00,+2.00,-5.00
-10.00,-47.00,+29.00,+1.00,+3.00,-9.00,+0.00,-2.00,-25.00,-20.00,-10.00,-8.00,-15.00,+2.00,-10.00,-19.00
-5.00,+4.00,+16.00,+1.00,+4.00,-17.00,+9.00,+4.00,+33.00,+22.00,-6.00,+0.00,+6.00,-9.00,-2.00,-7.00
+4.00,+40.00,-6.00,-9.00,-5.00,+3.00,-16.00,-9.00,-10.00,+8.00,-2.00,-4.00,-14.00,-11.00,+0.00,-7.00
-2.00,+6.00,-10.00,-4.00,+0.00,-5.00,-7.00,-3.00,-15.00,+14.00,+5.00,+0.00,-6.00,+4.00,-10.00,-41.00
-4.00,+46.00,-2.00,-3.00,-4.00,+3.00,-8.00,+2.00,-2.00,-45.00,-38.00,-9.00,+14.00,-7.00,-2.00,+46.00
+1.00,+10.00,+4.00,-4.00,-2.00,-11.00,+3.00,-1.00,-32.00,+44.00,+32.00,+14.00,+15.00,+6.00,+10.00,+11.00
-5.00,-82.00,-10.00,-1.00,-1.00,-2.00,-10.00,-2.00,+26.00,+32.00,-12.00,-6.00,-33.00,+2.00,-4.00,-11.00
-2.00,-11.00,+1.00,+4.00,-3.00,+4.00,+12.00,-6.00,-26.00,-54.00,+6.00,+1.00,-16.00,+1.00,+1.00,-3.00
-7.00,+66.00,+14.00,+0.00,+8.00,-6.00,-10.00,+13.00,-25.00,-17.00,+0.00,+2.00,+18.00,-5.00,-11.00,-31.00
-6.00,-57.00,-17.00,-11.00,-11.00,+10.00,-4.00,-8.00,-4.00,-2.00,+8.00,+0.00,-24.00,+2.00,+2.00,+13.00
-5.00,-83.00,-7.00,+7.00,+8.00,+1.00,+11.00,+4.00,-14.00,+2.00,-13.00,-4.00,+18.00,-7.00,-7.00,-14.00
-6.00,+119.00,+46.00,+9.00,+5.00,-5.00,+9.00,-27.00,+111.00,+15.00,-8.00,-6.00,-9.00,+0.00,+6.00,+44.00
-1.00,-42.00,-1.00,-5.00,-7.00,+10.00,-6.00,-9.00,-41.00,-96.00,+11.00,+3.00,+27.00,+4.00,+3.00,-9.00
-1.00,-37.00,-12.00,+0.00,-3.00,-36.00,+5.00,+12.00,+41.00,+9.00,+1.00,+1.00,-22.00,-1.00,-5.00,+2.00
+9.00,+31.00,-7.00,-3.00,-6.00,-4.00,-5.00,-3.00,+28.00,+94.00,+12.00,-1.00,-23.00,-6.00,+8.00,+18.00
-3.00,+9.00,-4.00,-6.00,-2.00,+3.00,-5.00,+12.00,-3.00,+25.00,-6.00,+2.00,+54.00,+1.00,-4.00,+7.00
+2.00,+25.00,-17.00,-3.00,-7.00,-9.00,-9.00,-1.00,-3.00,+7.00,+9.00,+12.00,+11.00,+7.00,+5.00,-10.00
+5.00,+56.00,+27.00,+5.00,+7.00,+8.00,+8.00,+3.00,-22.00,-29.00,-9.00,+2.00,-4.00,+22.00,+5.00,+7.00
-6.00,-103.00,-11.00,-9.00,+0.00,+4.00,+2.00,-11.00,-31.00,-21.00,-17.00,-10.00,-2.00,-12.00,-23.00,-45.00
+2.00,+11.00,+5.00,+4.00,+1.00,+8.00,-1.00,+4.00,+0.00,+6.00,+5.00,+2.00,+7.00,+5.00,-6.00,+41.00
+2.00,+7.00,-6.00,-6.00,-8.00,-30.00,-6.00,-7.00,-9.00,-25.00,+10.00,-2.00,-13.00,+7.00,+31.00,-3.00
+0.00,-30.00,-11.00,-1.00,+2.00,+8.00,+3.00,+6.00,-12.00,-19.00,-15.00,-8.00,+11.00,-26.00,-18.00,-49.00
+2.00,+18.00,+8.00,+5.00,+3.00,+2.00,-2.00,-3.00,+1.00,-6.00,+6.00,+8.00,-42.00,-2.00,+6.00,-2.00
-5.00,-96.00,-18.00,-8.00,-6.00,-13.00,-17.00,+4.00,-24.00,+30.00,-11.00,-9.00,-17.00,-3.00,-11.00,-20.00
+8.00,+3.00,+4.00,+3.00,+0.00,+7.00,+9.00,+4.00,+12.00,+26.00,-1.00,-3.00,+7.00,-10.00,-16.00,-15.00
-11.00,+39.00,+15.00,+0.00,+2.00,+11.00,+4.00,-3.00,-10.00,-20.00,-1.00,-3.00,+15.00,+4.00,+8.00,+16.00
-2.00,-92.00,+2.00,-2.00,-10.00,-25.00,-8.00,-7.00,+33.00,-51.00,-6.00,-6.00,+17.00,-8.00,-2.00,-1.00
-8.00,+0.00,-5.00,+8.00,+7.00,+3.00,+3.00,+6.00,-9.00,+53.00,+3.00,+3.00,-7.00,-1.00,+2.00,-17.00
+1.00,-81.00,-27.00,+1.00,-11.00,-20.00,-14.00,-4.00,-19.00,+20.00,+2.00,+1.00,-5.00,-2.00,-11.00,-2.00
-1.00,-78.00,-18.00,-22.00,-7.00,+15.00,-11.00,-6.00,+11.00,+8.00,-11.00,-6.00,-5.00,+2.00,+4.00,+3.00
+3.00,+127.00,+45.00,+7.00,+6.00,+6.00,+11.00,+14.00,+27.00,+1.00,-6.00,-5.00,+14.00,+7.00,-3.00,+9.00
-8.00,-111.00,-9.00,+0.00,-5.00,-14.00,+5.00,-26.00,+3.00,-26.00,+1.00,-2.00,-19.00,-10.00,-7.00,-16.00
+1.00,+118.00,+27.00,+12.00,+6.00,+12.00,+5.00,-1.00,+21.00,+20.00,-2.00,-6.00,-18.00,+1.00,+12.00,+7.00
+0.00,-33.00,+2.00,+9.00,+5.00,-18.00,+2.00,-3.00,-45.00,+13.00,+5.00,+10.00,+19.00,+8.00,-4.00,+5.00
-1.00,-96.00,-32.00,-15.00,-10.00,-3.00,-10.00,+1.00,+72.00,-19.00,-7.00,+1.00,+48.00,-18.00,-12.00,-16.00
+3.00,-42.00,-3.00,-2.00,+0.00,+4.00,+6.00,-3.00,-62.00,+46.00,+27.00,+6.00,-6.00,+47.00,+21.00,+28.00
-6.00,+35.00,+16.00,+5.00,+3.00,+22.00,-2.00,-21.00,-2.00,+7.00,-4.00,-8.00,-7.00,-13.00,-16.00,-4.00
-5.00,+10.00,+1.00,+2.00,-4.00,-10.00,-13.00,-6.00,+27.00,-5.00,+1.00,+0.00,-8.00,-7.00,-3.00,-10.00
-3.00,-105.00,-47.00,-20.00,-16.00,-7.00,-16.00,+0.00,-71.00,-125.00,-10.00,-2.00,+2.00,+5.00,+5.00,+44.00
+1.00,+127.00,+67.00,+33.00,+30.00,+20.00,+28.00,+4.00,+41.00,+82.00,+8.00,+2.00,+5.00,-12.00,+5.00,+2.00
-9.00,-128.00,-22.00,-15.00,-11.00,-20.00,+2.00,+6.00,+6.00,-21.00,+0.00,-2.00,+8.00,-16.00,-15.00,+4.00
+3.00,-42.00,-4.00,-1.00,+1.00,-27.00,-4.00,+3.00,-4.00,+11.00,-2.00,-8.00,-30.00,+38.00,-18.00,-1.00
-5.00,-38.00,-4.00,+9.00,+8.00,+61.00,+14.00,-16.00,-43.00,+8.00,+8.00,+13.00,+19.00,+16.00,+16.00,+4.00
-3.00,-36.00,-19.00,-11.00,-11.00,-7.00,-11.00,+12.00,+5.00,-35.00,-17.00,-7.00,-13.00,-10.00,-8.00,-20.00
+0.00,-14.00,-12.00,-9.00,-3.00,+3.00,+0.00,-2.00,+11.00,+1.00,+0.00,-1.00,-12.00,-9.00,-5.00,+6.00
+0.00,+58.00,+17.00,+7.00,+2.00,-1.00,+2.00,-3.00,+11.00,+18.00,-1.00,-9.00,-22.00,-15.00,-2.00,+4.00
-3.00,+23.00,+1.00,-1.00,-2.00,-16.00,+4.00,+14.00,+0.00,+39.00,+6.00,-14.00,+59.00,-5.00,-12.00,-20.00
+3.00,+22.00,+3.00,-3.00,-4.00,-1.00,-7.00,+3.00,+16.00,-31.00,-3.00,+1.00,-77.00,+5.00,+22.00,+10.00
-1.00,+45.00,-6.00,-4.00,+0.00,+4.00,+4.00,+6.00,+13.00,+16.00,+3.00,+33.00,+24.00,+12.00,-23.00,-5.00
-1.00,-10.00,-13.00,-3.00,-2.00,+0.00,-3.00,-4.00,-17.00,-23.00,+0.00,+5.00,+3.00,-6.00,+7.00,+3.00
+6.00,+44.00,+4.00,-1.00,+1.00,-8.00,-2.00,-2.00,-6.00,+28.00,+7.00,+3.00,-16.00,+1.00,+0.00,-3.00
-3.00,+58.00,+12.00,+3.00,-3.00,+3.00,-26.00,-11.00,-27.00,+6.00,-12.00,-15.00,+19.00,-23.00,+3.00,-14.00
-7.00,-12.00,+1.00,-3.00,+0.00,-30.00,+27.00,+1.00,-39.00,-25.00,-1.00,-6.00,-9.00,+6.00,+2.00,-3.00
-1.00,-42.00,-9.00,+3.00,+2.00,+24.00,+1.00,+6.00,+95.00,-18.00,-29.00,-18.00,+0.00,-11.00,-28.00,-27.00
+4.00,+61.00,-5.00,-2.00,-7.00,+12.00,-12.00,-12.00,-27.00,-4.00,+21.00,+9.00,+1.00,+20.00,+49.00,+19.00
+7.00,+42.00,+25.00,+10.00,+13.00,-11.00,+20.00,+23.00,+2.00,-4.00,-1.00,-5.00,+2.00,-10.00,-15.00,+0.00
-1.00,-44.00,-6.00,+4.00,+6.00,+30.00,-4.00,+8.00,-1.00,+5.00,-5.00,-2.00,-5.00,+2.00,+13.00,+13.00
-3.00,-3.00,+3.00,-6.00,-7.00,-11.00,+4.00,-5.00,-17.00,-32.00,-5.00,+0.00,+9.00,-3.00,-2.00,-7.00
+0.00,+11.00,-2.00,-3.00,-6.00,-16.00,-6.00,+1.00,-15.00,-3.00,-4.00,-5.00,-19.00,-13.00,-18.00,-46.00
-3.00,-43.00,+1.00,+3.00,-1.00,+8.00,+2.00,+21.00,+25.00,-36.00,-6.00,+0.00,-5.00,+3.00,-3.00,-7.00
-2.00,+20.00,+2.00,+0.00,-4.00,-7.00,-12.00,-2.00,-2.00,+8.00,-2.00,+1.00,+4.00,+0.00,-1.00,-18.00
+4.00,+4.00,+0.00,+1.00,+1.00,-24.00,+6.00,+4.00,-2.00,+21.00,+14.00,+3.00,+1.00,-11.00,+10.00,+23.00
-6.00,-31.00,+5.00,+5.00,+6.00,+29.00,-6.00,-31.00,-13.00,-17.00,-8.00,-7.00,+3.00,-13.00,+8.00,+18.00
-5.00,-19.00,-16.00,-12.00,-4.00,-10.00,-4.00,+5.00,-15.00,+4.00,-7.00,-9.00,+23.00,+21.00,-17.00,-7.00
-4.00,-70.00,-12.00,-7.00,-3.00,-1.00,+2.00,-8.00,+17.00,+12.00,-1.00,+1.00,-26.00,+3.00,-1.00,-14.00
-4.00,+15.00,-8.00,-3.00,-2.00,+2.00,-20.00,-12.00,+6.00,-4.00,-2.00,+5.00,-4.00,-9.00,+0.00,-8.00
+6.00,+67.00,+30.00,-4.00,-8.00,-17.00,+5.00,+23.00,-12.00,+10.00,+3.00,+2.00,-13.00,-2.00,-8.00,-4.00
+3.00,-65.00,-11.00,+3.00,+6.00,-34.00,-5.00,-8.00,-11.00,+4.00,-7.00,+2.00,+13.00,+1.00,+0.00,-11.00
-1.00,-41.00,+0.00,+8.00,+9.00,+51.00,+18.00,+4.00,+11.00,-10.00,-2.00,-7.00,+11.00,-13.00,+2.00,+1.00
+0.00,+7.00,+9.00,+7.00,+3.00,+11.00,+13.00,+3.00,-12.00,+14.00,+13.00,+12.00,+15.00,+5.00,+6.00,+8.00
-1.00,-26.00,-8.00,+8.00,+3.00,+9.00,+6.00,+0.00,-48.00,-39.00,-10.00,-4.00,-12.00,-7.00,-11.00,-54.00
+2.00,+6.00,-6.00,-9.00,-10.00,-11.00,-17.00,-8.00,-50.00,+12.00,-3.00,+0.00,+3.00,-6.00,+14.00,+40.00
+1.00,-3.00,+2.00,-7.00,-5.00,-24.00,-4.00,+3.00,+37.00,-1.00,+13.00,-3.00,-3.00,-42.00,-17.00,-4.00
+3.00,-25.00,-14.00,-7.00,-4.00,-3.00,-14.00,-3.00,-25.00,+65.00,+3.00,+5.00,+2.00,+9.00,+20.00,-6.00
-3.00,+89.00,+11.00,+5.00,+2.00,-22.00,+12.00,+2.00,-3.00,+0.00,+0.00,+1.00,-16.00,-5.00,-4.00,+25.00
-1.00,-41.00,-4.00,-5.00,-4.00,+17.00,+2.00,-3.00,+12.00,-6.00,+0.00,+0.00,+30.00,+23.00,-4.00,-23.00
+0.00,-5.00,-1.00,+5.00,+1.00,-7.00,-17.00,-13.00,+11.00,+3.00,-10.00,-8.00,+12.00,-13.00,-26.00,+2.00
-6.00,+36.00,+9.00,-4.00,-5.00,+6.00,+5.00,+2.00,-35.00,-26.00,+2.00,+1.00,-43.00,+6.00,+15.00,-9.00
-2.00,-90.00,-10.00,-12.00,+2.00,-10.00,-9.00,+2.00,+56.00,+0.00,-3.00,-1.00,-17.00,-7.00,+4.00,-21.00
+3.00,+28.00,-7.00,-8.00,-2.00,+11.00,-1.00,+3.00,+24.00,-2.00,+0.00,+0.00,-4.00,-17.00,+4.00,+4.00
+6.00,+76.00,+9.00,+2.00,+2.00,+7.00,-1.00,+11.00,-3.00,-2.00,-5.00,-10.00,-17.00,-10.00,-9.00,+8.00
+0.00,-10.00,-9.00,-16.00,-5.00,+0.00,+3.00,-1.00,+2.00,-17.00,-6.00,-14.00,+6.00,+14.00,+23.00,-7.00
-4.00,-18.00,-3.00,+10.00,-3.00,-10.00,-4.00,-12.00,-5.00,+12.00,+1.00,+8.00,+13.00,+20.00,+3.00,+18.00
-3.00,-18.00,-13.00,-3.00,-9.00,-14.00,-19.00,-2.00,-4.00,-19.00,+4.00,+11.00,+0.00,-8.00,-4.00,-9.00
+3.00,-25.00,+4.00,+12.00,+4.00,+17.00,+1.00,-1.00,-17.00,+8.00,-1.00,-4.00,+6.00,-6.00,+8.00,-2.00
+0.00,-18.00,+7.00,+8.00,+2.00,-35.00,-9.00,+1.00,-4.00,-19.00,-2.00,-7.00,+9.00,-9.00,-8.00,+19.00
-7.00,-41.00,-6.00,+5.00,+6.00,+26.00,+1.00,-19.00,-10.00,+8.00,+7.00,+2.00,-20.00,+33.00,-6.00,+34.00
+8.00,+52.00,-2.00,-8.00,-1.00,+10.00,+10.00,+31.00,-37.00,-18.00,-11.00,-10.00,-1.00,-16.00,-8.00,-16.00
-4.00,-16.00,-5.00,-5.00,+1.00,+9.00,-4.00,-68.00,-58.00,+20.00,+15.00,+14.00,-2.00,+13.00,+9.00,+19.00
-7.00,+19.00,+12.00,-7.00,+3.00,-6.00,-18.00,-51.00,+73.00,-11.00,-11.00,-13.00,+5.00,-13.00,-6.00,+33.00
+3.00,-2.00,+2.00,-12.00,-3.00,-2.00,-10.00,+4.00,-47.00,+11.00,+3.00,+0.00,+10.00,-4.00,-1.00,-4.00
-3.00,-84.00,-10.00,-2.00,-1.00,-5.00,+5.00,+0.00,-2.00,+9.00,-6.00,-4.00,-8.00,-14.00,-16.00,-14.00
-14.00,-8.00,+4.00,+1.00,+0.00,-10.00,+14.00,-4.00,-17.00,-23.00,-9.00,-4.00,-9.00,+20.00,+15.00,-2.00
-2.00,-81.00,-4.00,+3.00,+5.00,+14.00,-5.00,+11.00,+8.00,-14.00,+6.00,+3.00,+11.00,-9.00,-19.00,-8.00
+0.00,+76.00,+12.00,+0.00,+0.00,-8.00,+22.00,+5.00,+30.00,+7.00,-1.00,-6.00,-15.00,-14.00,+13.00,+17.00
-1.00,-25.00,-3.00,+3.00,+0.00,+14.00,-16.00,-15.00,+15.00,-13.00,-2.00,+0.00,-49.00,+26.00,+3.00,-14.00
+7.00,+7.00,-7.00,-10.00,-16.00,-27.00,-9.00,+24.00,+10.00,-14.00,-3.00,+3.00,+3.00,+17.00,-42.00,-22.00
-3.00,+5.00,+1.00,-41.00,+4.00,-20.00,-6.00,+4.00,-4.00,+18.00,+5.00,-10.00,-35.00,-19.00,-8.00,-17.00
-2.00,-47.00,-2.00,-31.00,+0.00,+6.00,-4.00,+20.00,+34.00,-4.00,+3.00,+11.00,+28.00,+20.00,-15.00,+11.00
-5.00,+14.00,-5.00,-33.00,-2.00,+10.00,+0.00,-5.00,+6.00,-1.00,+1.00,+7.00,+24.00,+27.00,+55.00,+6.00
+5.00,+0.00,-3.00,-12.00,-9.00,-14.00,-12.00,+1.00,+9.00,+1.00,-5.00,+1.00,-25.00,-9.00,-19.00,+3.00
-1.00,+12.00,-1.00,+24.00,-2.00,-23.00,-2.00,+5.00,-23.00,-3.00,-4.00,+1.00,+25.00,+7.00,+5.00,-1.00
-1.00,+0.00,+2.00,+17.00,+1.00,-59.00,-6.00,-33.00,-25.00,-4.00,-4.00,-6.00,-21.00,-9.00,-3.00,-3.00
-5.00,+15.00,+2.00,+19.00,+4.00,+36.00,+23.00,-4.00,+2.00,-3.00,+5.00,-1.00,+57.00,-12.00,-8.00,+23.00
-3.00,-28.00,-3.00,+0.00,+3.00,+0.00,-18.00,+1.00,+15.00,+11.00,-3.00,-8.00,-92.00,+22.00,+16.00,-12.00
+3.00,+15.00,-2.00,+5.00,-6.00,+28.00,-14.00,-16.00,-75.00,-6.00,+3.00,+12.00,+22.00,-5.00,-11.00,+2.00
+3.00,+6.00,+6.00,-21.00,+8.00,-11.00,+31.00,+14.00,-92.00,-8.00,-6.00,-4.00,+13.00,-27.00,-3.00,-16.00
-7.00,-41.00,+1.00,-46.00,-3.00,-5.00,-10.00,-14.00,-72.00,+7.00,+3.00,+3.00,+0.00,+18.00,-5.00,-2.00
-5.00,+33.00,+5.00,-42.00,+6.00,+2.00,+13.00,+19.00,-101.00,-37.00,-13.00,-12.00,+41.00,+9.00,+10.00,-3.00
+4.00,+34.00,-1.00,-6.00,+0.00,+11.00,+13.00,+12.00,-66.00,+67.00,+18.00,+10.00,-7.00,-9.00,+7.00,+28.00
+0.00,-12.00,-3.00,+19.00,+0.00,+26.00,-11.00,-1.00,-16.00,+1.00,+3.00,-3.00,-17.00,-7.00,-15.00,+4.00
+3.00,-33.00,-6.00,+39.00,-7.00,-31.00,+1.00,+6.00,+44.00,-3.00,+0.00,+2.00,-33.00,+0.00,+17.00,-12.00
+0.00,+3.00,+0.00,+18.00,-5.00,+2.00,-7.00,+7.00,+77.00,-6.00,-4.00,-3.00,+30.00,+6.00,+12.00,-3.00
+2.00,+23.00,+5.00,+13.00,-2.00,+11.00,+9.00,+25.00,+75.00,-24.00,-4.00,+2.00,+0.00,-2.00,-9.00,-15.00
-1.00,-6.00,+0.00,+20.00,-6.00,-23.00,-20.00,-2.00,+17.00,-2.00,+1.00,-4.00,-8.00,-6.00,-1.00,-5.00
-2.00,+12.00,+0.00,+21.00,+0.00,+17.00,+32.00,+10.00,+15.00,-5.00,-11.00,+0.00,+7.00,-13.00,-16.00,+25.00
+2.00,-32.00,-9.00,+21.00,+0.00,+1.00,-10.00,+20.00,+25.00,+10.00,+4.00,+1.00,-11.00,-8.00,+7.00,-12.00
-5.00,+38.00,+6.00,+18.00,-4.00,-12.00,+3.00,-60.00,+22.00,-12.00,-6.00,-10.00,+70.00,-20.00,+5.00,+1.00
-1.00,-29.00,-1.00,+16.00,+9.00,+80.00,-5.00,+2.00,+54.00,+5.00,+3.00,+4.00,-28.00,+14.00,+3.00,+5.00
+4.00,+10.00,+0.00,+3.00,-5.00,-78.00,-25.00,-5.00,+16.00,-8.00,+1.00,+3.00,-69.00,-15.00,-19.00,-11.00
-4.00,-10.00,+2.00,+11.00,+4.00,+58.00,+45.00,+2.00,+13.00,+14.00,+2.00,+4.00,-3.00,+11.00,+4.00,+32.00
+1.00,-43.00,-6.00,-5.00,-2.00,+11.00,-2.00,+10.00,-9.00,-17.00,-5.00,-7.00,+13.00,-18.00,-10.00,-4.00
+1.00,+3.00,-2.00,-3.00,+0.00,+0.00,+5.00,+7.00,+27.00,+0.00,-1.00,-6.00,+27.00,+37.00,+11.00,+7.00
-1.00,+22.00,+1.00,-7.00,-7.00,-2.00,-10.00,+3.00,-24.00,-2.00,-1.00,-4.00,+1.00,-2.00,-5.00,-10.00
-1.00,-1.00,+4.00,+3.00,-5.00,-78.00,-24.00,-9.00,-20.00,+29.00,+8.00,+5.00,+19.00,-19.00,+8.00,+19.00
-4.00,-2.00,-2.00,+0.00,+5.00,+22.00,+12.00,+9.00,-26.00,-28.00,-5.00,-1.00,-30.00,+19.00,-3.00,-5.00
+2.00,+10.00,-7.00,-13.00,-5.00,-17.00,-11.00,-29.00,-45.00,-19.00,-10.00,-4.00,+6.00,-9.00,-6.00,-9.00
+2.00,-1.00,+1.00,+2.00,+5.00,+19.00,-7.00,+14.00,+89.00,+15.00,+0.00,-1.00,-6.00,-7.00,-9.00,-17.00
-1.00,-22.00,-4.00,-8.00,-13.00,-36.00,-19.00,-13.00,+55.00,+21.00,+0.00,-6.00,+10.00,-6.00,+0.00,-3.00
+3.00,+46.00,+10.00,+8.00,+10.00,+30.00,+23.00,+28.00,+3.00,-11.00,-2.00,+1.00,-14.00,+7.00,+5.00,+37.00
+3.00,-25.00,+1.00,-7.00,-1.00,-18.00,+1.00,+15.00,-8.00,+0.00,-3.00,+0.00,-6.00,-11.00,+3.00,-19.00
+0.00,-17.00,-7.00,-4.00,-3.00,+26.00,+7.00,-7.00,-28.00,-20.00,-1.00,-7.00,+8.00,+5.00,+0.00,+23.00
+3.00,+8.00,-5.00,-8.00,-1.00,+21.00,-10.00,+1.00,-1.00,-3.00,+1.00,+4.00,+44.00,+5.00,+0.00,-23.00
-2.00,+2.00,+4.00,-4.00,-3.00,-23.00,+4.00,+0.00,+9.00,+7.00,-5.00,-14.00,-17.00,+10.00,+6.00,-9.00
-5.00,-2.00,-5.00,-4.00,+9.00,+24.00,+3.00,+15.00,-2.00,-7.00,+1.00,+21.00,-10.00,-45.00,-36.00,-4.00
+0.00,-19.00,-2.00,-5.00,-3.00,-2.00,+2.00,+10.00,+15.00,+7.00,+2.00,-3.00,+33.00,+17.00,-3.00,-9.00
+4.00,+10.00,-2.00,+4.00,+4.00,-21.00,-11.00,+5.00,+48.00,-4.00,-2.00,+3.00,-34.00,+6.00,+4.00,+15.00
-4.00,-8.00,+1.00,-9.00,+0.00,+10.00,-3.00,+7.00,+42.00,+3.00,+4.00,+2.00,+22.00,-8.00,+0.00,-6.00
+2.00,+0.00,+5.00,+3.00,-3.00,+3.00,-8.00,-4.00,+52.00,-2.00,-9.00,-12.00,+24.00,+16.00,-4.00,+5.00
+0.00,+2.00,-1.00,+5.00,+9.00,+65.00,+22.00,+8.00,+21.00,+3.00,+0.00,-7.00,-32.00,-17.00,+3.00,-3.00
-2.00,-12.00,-4.00,-7.00,-1.00,-7.00,+1.00,-9.00,-8.00,-6.00,-2.00,-4.00,+19.00,+5.00,+2.00,-3.00
+3.00,-22.00,-3.00,+2.00,-1.00,+1.00,+1.00,-12.00,-19.00,-7.00,-1.00,-1.00,-18.00,+2.00,-2.00,-9.00
+1.00,+43.00,-1.00,-2.00,-3.00,-11.00,-11.00,-2.00,+8.00,+7.00,+3.00,-8.00,-13.00,-18.00,+1.00,-1.00
-2.00,+56.00,+6.00,+0.00,+0.00,-36.00,-9.00,-15.00,-11.00,+3.00,+1.00,+11.00,+23.00,+10.00,-5.00,-3.00
-1.00,-25.00,-2.00,+7.00,-1.00,+10.00,+16.00,+2.00,-24.00,-9.00,-9.00,-8.00,-7.00,-5.00,+2.00,+19.00
+3.00,+22.00,-3.00,+0.00,+4.00,+8.00,-2.00,-2.00,-64.00,+8.00,+12.00,+10.00,-6.00,+5.00,+8.00,+13.00
-2.00,-81.00,-12.00,-8.00,-16.00,-24.00,-10.00,-2.00,+6.00,+17.00,+5.00,+0.00,-2.00,+5.00,+3.00,+2.00
+2.00,-8.00,-3.00,+1.00,-2.00,-8.00,-6.00,-7.00,-22.00,+6.00,+0.00,-3.00,+6.00,-3.00,-1.00,-7.00
-6.00,+32.00,+7.00,+5.00,+2.00,-4.00,+12.00,+3.00,-26.00,-1.00,+5.00,+2.00,-5.00,-14.00,-10.00,-23.00
+2.00,-35.00,+2.00,+6.00,+2.00,-5.00,+0.00,+7.00,-35.00,-18.00,-7.00,-1.00,-10.00,+5.00,-8.00,-21.00
+1.00,+1.00,+0.00,-4.00,+0.00,+2.00,+5.00,+4.00,+60.00,+19.00,-6.00,-6.00,+18.00,+17.00,+7.00,+6.00
+1.00,-16.00,-1.00,-2.00,-2.00,+2.00,+5.00,-3.00,-15.00,+1.00,+1.00,-4.00,-19.00,-28.00,-24.00,+19.00
-1.00,-18.00,-5.00,-6.00,-4.00,+17.00,-6.00,-7.00,+9.00,+8.00,+1.00,-1.00,+54.00,-12.00,-1.00,-4.00
-3.00,+2.00,+0.00,-11.00,-9.00,-104.00,-17.00,-6.00,+7.00,+0.00,-2.00,-4.00,-76.00,+23.00,+1.00,+1.00
-5.00,+8.00,-3.00,+10.00,+15.00,+95.00,+41.00,+69.00,-26.00,-11.00,-1.00,+1.00,+40.00,-1.00,+4.00,-14.00
-3.00,+10.00,+2.00,-3.00,-1.00,-2.00,-5.00,-62.00,-18.00,-8.00,-4.00,+5.00,+13.00,-8.00,-14.00,-14.00
+1.00,-4.00,+0.00,+0.00,-3.00,-56.00,+1.00,-4.00,-12.00,-8.00,-4.00,-2.00,-20.00,+2.00,+6.00,+3.00
-4.00,-1.00,-6.00,-2.00,-4.00,+12.00,-22.00,+28.00,-10.00,-2.00,-3.00,+4.00,+33.00,-3.00,-10.00,-22.00
+1.00,+3.00,+1.00,-4.00,-8.00,-37.00,-4.00,-27.00,+7.00,+2.00,+1.00,-5.00,-20.00,-26.00,-3.00,+18.00
+0.00,+0.00,-4.00,+5.00,+7.00,+5.00,+7.00,+15.00,-8.00,+3.00,+2.00,-5.00,-24.00,+34.00,+16.00,-3.00
-3.00,+6.00,+0.00,-9.00,-1.00,+3.00,-10.00,+0.00,-18.00,-10.00,-6.00,-3.00,+23.00,+24.00,+1.00,-2.00
-2.00,+4.00,+3.00,+5.00,-2.00,+15.00,+12.00,+4.00,-11.00,+11.00,-1.00,+3.00,-42.00,-9.00,+5.00,+2.00
-3.00,+10.00,-4.00,-11.00,-3.00,-21.00,-2.00,-2.00,-37.00,-5.00,-3.00,-2.00,-2.00,+1.00,-9.00,-6.00
-2.00,+4.00,-5.00,-3.00,-5.00,+3.00,-7.00,+4.00,-18.00,-1.00,-2.00,-1.00,+10.00,-28.00,-6.00,-20.00
+6.00,-21.00,-8.00,-5.00,-3.00,+5.00,-6.00,-12.00,-46.00,-9.00,-3.00,-3.00,-24.00,-4.00,+4.00,-1.00
+4.00,+57.00,+14.00,+7.00,+7.00,+21.00,+14.00,+8.00,+64.00,+15.00,+1.00,+0.00,+13.00,+1.00,-7.00,-5.00
-1.00,-35.00,+3.00,+4.00,+2.00,+4.00,+1.00,+13.00,+7.00,-11.00,+1.00,+1.00,-17.00,+3.00,+1.00,-3.00
+3.00,+18.00,+4.00,-2.00,-2.00,-18.00,-9.00,-16.00,+27.00,+1.00,-1.00,-4.00,+11.00,-3.00,+5.00,+14.00
-3.00,-10.00,-2.00,-5.00,+1.00,+12.00,+0.00,+3.00,-5.00,-3.00,-4.00,-2.00,-29.00,+0.00,-5.00,-19.00
+0.00,-24.00,-12.00,-3.00,-4.00,+8.00,-3.00,-8.00,+17.00,+2.00,+1.00,+0.00,+7.00,-2.00,+0.00,+7.00
-2.00,+11.00,-5.00,-5.00,-5.00,-25.00,-27.00,-7.00,+0.00,-3.00,-3.00,-2.00,+8.00,+20.00,+7.00,+7.00
-3.00,-13.00,+0.00,+1.00,+1.00,+9.00,+33.00,+21.00,-23.00,-11.00,+0.00,-2.00,+0.00,-3.00,-10.00,-35.00
+1.00,-9.00,-2.00,+2.00,+0.00,+21.00,-1.00,-1.00,+36.00,-8.00,-1.00,+1.00,-5.00,-5.00,+0.00,+15.00
-2.00,-4.00,-1.00,-7.00,-5.00,-64.00,+7.00,-5.00,+37.00,+9.00,+3.00,+3.00,+23.00,-10.00,-2.00,+16.00
-1.00,+18.00,-3.00,+0.00,+5.00,+5.00,-9.00,-22.00,+23.00,+13.00,-2.00,-2.00,+20.00,-2.00,+0.00,-2.00
-3.00,-12.00,-4.00,-3.00,+1.00,+10.00,-6.00,+4.00,-17.00,-2.00,+0.00,+2.00,-44.00,+0.00,+1.00,+6.00
-4.00,+16.00,+3.00,+1.00,+4.00,+18.00,+8.00,-5.00,-39.00,-27.00,-6.00,-1.00,-2.00,-8.00,-8.00,-14.00
-2.00,-6.00,-1.00,-6.00,-6.00,-1.00,-6.00,-19.00,+39.00,+14.00,+1.00,+1.00,-4.00,-10.00,-1.00,-7.00
-1.00,-5.00,+0.00,-1.00,-5.00,-24.00,+10.00,-9.00,-21.00,-3.00,+3.00,+0.00,+29.00,+26.00,+3.00,+5.00
+3.00,+1.00,+2.00,+2.00,+1.00,-11.00,-11.00,+8.00,+14.00,+5.00,-4.00,-2.00,-12.00,-8.00,-2.00,+2.00
-2.00,+0.00,-3.00,-7.00,-6.00,-4.00,-4.00,+12.00,+0.00,+4.00,+1.00,-3.00,+20.00,+1.00,+3.00,+9.00
-1.00,-11.00,-5.00,-1.00,+1.00,+16.00,-14.00,+1.00,-40.00,-27.00,-8.00,-7.00,-8.00,-7.00,-12.00,-16.00
+2.00,-3.00,-4.00,-2.00,+1.00,+1.00,+26.00,+5.00,-21.00,-4.00,-4.00,-5.00,-50.00,-25.00,-5.00,-23.00
-3.00,+16.00,+3.00,-2.00,-2.00,+4.00,-8.00,-15.00,-14.00,+1.00,+1.00,+9.00,+28.00,+35.00,-1.00,-5.00
+4.00,+2.00,+0.00,-2.00,+0.00,-1.00,-9.00,-4.00,+18.00,+8.00,+1.00,+0.00,-20.00,-3.00,+0.00,-1.00
-4.00,+10.00,+2.00,-2.00,+1.00,+15.00,+7.00,+1.00,-14.00,+4.00,+0.00,-1.00,+25.00,+6.00,+7.00,+13.00
+0.00,+9.00,+2.00,-1.00,+0.00,+4.00,-8.00,-9.00,-6.00,+1.00,-6.00,-6.00,+11.00,-4.00,-1.00,-9.00
-2.00,-14.00,-2.00,+5.00,-2.00,-11.00,-2.00,+1.00,+19.00,-1.00,+0.00,-4.00,-46.00,-2.00,+2.00,+11.00
-4.00,-10.00,-6.00,-5.00,-1.00,-22.00,-2.00,-1.00,-7.00,+3.00,+2.00,+8.00,+23.00,+3.00,-7.00,-4.00
-3.00,+6.00,+0.00,+6.00,+3.00,+19.00,+0.00,-12.00,-5.00,-5.00,-5.00,-2.00,-6.00,+1.00,+3.00,-2.00
-2.00,+2.00,+1.00,-3.00,-2.00,-8.00,-11.00,-4.00,-1.00,-3.00,+3.00,+2.00,-7.00,+3.00,-11.00,+4.00
+1.00,-3.00,-5.00,-6.00,-3.00,-10.00,-5.00,+6.00,-25.00,-15.00,-7.00,-8.00,+22.00,-17.00,+26.00,-2.00
-3.00,+8.00,-4.00,+2.00,+0.00,-2.00,+4.00,-3.00,+0.00,+6.00,-1.00,-3.00,-18.00,+1.00,+5.00,+5.00
-7.00,-47.00,+2.00,+0.00,+2.00,+8.00,-8.00,-31.00,+23.00,+10.00,-1.00,-2.00,+10.00,-4.00,-1.00,+4.00
-2.00,+16.00,+3.00,-2.00,-6.00,-11.00,+2.00,-6.00,-15.00,-3.00,-2.00,+2.00,-13.00,-2.00,+7.00,+6.00
+2.00,+1.00,-1.00,+4.00,+8.00,+34.00,+9.00,+5.00,-23.00,-3.00,-3.00,-5.00,+10.00,-13.00,-11.00,-6.00
+4.00,+6.00,-2.00,-4.00,+0.00,+3.00,-2.00,+0.00,-2.00,-13.00,-4.00,-3.00,-5.00,-6.00,-14.00,-7.00
+1.00,-28.00,+0.00,+1.00,+2.00,+4.00,+2.00,+3.00,+19.00,+16.00,+6.00,+2.00,-5.00,+10.00,+11.00,+4.00
-3.00,+15.00,+3.00,-4.00,-5.00,-6.00,-5.00,-8.00,+16.00,-8.00,-6.00,-2.00,+8.00,-6.00,-10.00,+11.00
+1.00,-11.00,+2.00,-2.00,-2.00,-34.00,-5.00,-1.00,+21.00,+8.00,+3.00,+0.00,-11.00,-6.00,+1.00,-11.00
-6.00,+4.00,+1.00,+0.00,+1.00,+8.00,-1.00,+4.00,-4.00,-3.00,-1.00,-1.00,-6.00,+6.00,+2.00,-4.00
+2.00,+4.00,-5.00,-6.00,-2.00,+3.00,+5.00,+4.00,-12.00,-15.00,-6.00,-3.00,-14.00,-5.00,-11.00,-6.00
+0.00,-10.00,-1.00,-2.00,-5.00,-10.00,-15.00,-9.00,+8.00,-1.00,+0.00,+0.00,-29.00,-22.00,-2.00,-3.00
+0.00,-10.00,-3.00,-1.00,-3.00,+22.00,+1.00,+3.00,-3.00,-4.00,-2.00,-5.00,+15.00,+25.00,+2.00,+7.00
-3.00,+8.00,+4.00,-3.00,+2.00,+3.00,+3.00,+2.00,+10.00,-1.00,-3.00,-2.00,+2.00,-17.00,-2.00,-8.00
-2.00,+31.00,-3.00,-1.00,-5.00,-7.00,-4.00,-3.00,-44.00,-11.00,-1.00,+5.00,+4.00,+18.00,-1.00,-10.00
-2.00,-12.00,-1.00,-1.00,-1.00,-8.00,+3.00,-6.00,+26.00,+15.00,+5.00,-6.00,+0.00,-24.00,+1.00,+12.00
-4.00,+8.00,+1.00,-3.00,+0.00,-13.00,-3.00,+0.00,-2.00,-4.00,-1.00,+11.00,+3.00,+40.00,-24.00,-2.00
+3.00,-14.00,-5.00,-5.00,+2.00,+4.00,+6.00,+0.00,+4.00,+10.00,+1.00,-6.00,-34.00,-18.00,+13.00,+4.00
-3.00,-10.00,-6.00,-8.00,-8.00,+10.00,-3.00,+0.00,-8.00,-26.00,-5.00,+0.00,+15.00,+7.00,-9.00,-6.00
-1.00,+5.00,+2.00,+8.00,+1.00,-1.00,+3.00,+2.00,-20.00,-9.00,-3.00,+1.00,-1.00,+12.00,+5.00,-12.00
-2.00,+3.00,-4.00,-3.00,-4.00,-6.00,-4.00,-5.00,+44.00,+29.00,-1.00,-5.00,+21.00,-12.00,-10.00,+2.00
-1.00,+0.00,+3.00,+6.00,+3.00,+3.00,-5.00,+2.00,+11.00,-8.00,+5.00,-2.00,-13.00,-3.00,-5.00,+11.00
+2.00,+1.00,+4.00,-2.00,-2.00,-3.00,+4.00,+7.00,+31.00,-8.00,-2.00,-2.00,-23.00,-12.00,-2.00,-10.00
+4.00,-1.00,-4.00,-3.00,+4.00,+1.00,-23.00,-2.00,-43.00,-4.00,+3.00,-3.00,-10.00,+15.00,+3.00,-3.00
+5.00,-1.00,+1.00,+1.00,+0.00,+6.00,+50.00,+11.00,+36.00,+6.00,-6.00,-2.00,+14.00,-16.00,+3.00,+9.00
+0.00,+16.00,+3.00,-3.00,-2.00,-2.00,-14.00,+0.00,+10.00,+13.00,-2.00,-2.00,-11.00,+1.00,+1.00,-7.00
+0.00,-26.00,-5.00,-2.00,+3.00,+5.00,+0.00,-3.00,+36.00,+17.00,+2.00,+0.00,+12.00,-6.00,+0.00,+1.00
-3.00,-5.00,+0.00,+0.00,-2.00,+0.00,+4.00,+15.00,-7.00,-4.00,-4.00,+8.00,+39.00,+4.00,-4.00,-6.00
-1.00,-4.00,+1.00,+1.00,+2.00,+4.00,-15.00,-8.00,-27.00,-17.00,+2.00,+1.00,-48.00,-10.00,+8.00,-11.00
-2.00,+6.00,-5.00,-4.00,-11.00,-12.00,+1.00,-1.00,-16.00,-4.00,-3.00,+0.00,+21.00,+6.00,+0.00,-12.00
+1.00,+2.00,+0.00,-2.00,+4.00,+26.00,+6.00,+6.00,-28.00,-5.00,-4.00,-5.00,-11.00,-4.00,-8.00,+2.00
+1.00,-6.00,-3.00,+2.00,+4.00,+10.00,+4.00,+1.00,+67.00,+13.00,+0.00,-4.00,+6.00,+12.00,+3.00,+5.00
-2.00,+11.00,-2.00,-2.00,-4.00,-14.00,-16.00,+3.00,-8.00,-1.00,+1.00,+5.00,+8.00,-13.00,+4.00,+4.00
-2.00,+5.00,+4.00,+2.00,+1.00,+15.00,+3.00,-5.00,-3.00,-5.00,+1.00,-1.00,-7.00,+9.00,-3.00,+0.00
+1.00,+3.00,+1.00,-2.00,-3.00,-24.00,-11.00,+4.00,-9.00,+6.00,+0.00,+1.00,+13.00,-9.00,+6.00,-4.00
-4.00,-12.00,-6.00,-5.00,-6.00,+2.00,+9.00,-8.00,-20.00,-11.00,-1.00,+0.00,-12.00,+5.00,+1.00,-5.00
+2.00,+5.00,-1.00,+2.00,-1.00,+11.00,-14.00,+1.00,-4.00,-4.00,+3.00,-2.00,+0.00,-7.00,+3.00,+4.00
+0.00,-11.00,-3.00,-1.00,+0.00,-12.00,-19.00,-11.00,-8.00,+5.00,+1.00,-2.00,+5.00,-4.00,-10.00,-6.00
-2.00,+10.00,+0.00,+1.00,+5.00,+23.00,+35.00,+6.00,-25.00,-18.00,-9.00,-6.00,-1.00,+4.00,+3.00,+7.00
+0.00,-20.00,-3.00,-4.00,-1.00,+4.00,+2.00,-4.00,+19.00,+0.00,+1.00,+4.00,-2.00,-1.00,+2.00,+0.00
-6.00,+13.00,+4.00,+3.00,-3.00,-12.00,-10.00,-2.00,+9.00,+11.00,+2.00,-1.00,+1.00,-6.00,+0.00,+13.00
-2.00,+3.00,+2.00,+0.00,+6.00,+4.00,+4.00,+4.00,-14.00,-5.00,-6.00,+0.00,+6.00,+0.00,+1.00,+2.00
+0.00,+4.00,-5.00,-7.00,-7.00,-6.00,-8.00,-3.00,-11.00,-4.00,-2.00,-3.00,+6.00,-8.00,-5.00,-9.00
+0.00,+12.00,+1.00,+5.00,+1.00,+1.00,-1.00,-6.00,-6.00,-6.00,+0.00,+2.00,-14.00,+3.00,-7.00,-8.00
+2.00,-40.00,-9.00,-6.00,-8.00,-10.00,-10.00,-6.00,-22.00,-13.00,-1.00,-3.00,+2.00,-8.00,-4.00,-10.00
+3.00,-4.00,-1.00,+6.00,+1.00,+1.00,+6.00,+9.00,+44.00,+19.00,+3.00,+1.00,-7.00,+1.00,+3.00,+6.00
-4.00,+14.00,+1.00,+1.00,-1.00,+0.00,-5.00,-3.00,-16.00,-4.00,-2.00,-1.00,+94.00,+2.00,-2.00,-4.00
+2.00,-3.00,-2.00,-5.00,-6.00,-31.00,-14.00,-4.00,-1.00,+1.00,+0.00,+3.00,-90.00,+1.00,+3.00,+1.00
+0.00,+12.00,+2.00,+1.00,+5.00,+14.00,+15.00,+4.00,-4.00,-14.00,-1.00,-2.00,+19.00,+1.00,-2.00,-2.00
+0.00,-8.00,-2.00,-5.00,-4.00,-4.00,-2.00,-6.00,-27.00,-9.00,-2.00,+0.00,+11.00,+10.00,-4.00,-8.00
+1.00,-1.00,+1.00,-2.00,+1.00,-6.00,+1.00,-8.00,+8.00,+6.00,+3.00,+1.00,-10.00,-7.00,-2.00,+8.00
-4.00,-3.00,+0.00,-1.00,-1.00,-3.00,-10.00,-3.00,-11.00,+2.00,+1.00,+0.00,+25.00,+0.00,+4.00,+1.00
+1.00,-2.00,+2.00,+0.00,+1.00,+2.00,-8.00,-18.00,-2.00,-3.00,-7.00,-5.00,-7.00,-1.00,-1.00,-2.00
-2.00,+0.00,-1.00,+0.00,-2.00,+0.00,-4.00,+0.00,-4.00,-2.00,-4.00,-1.00,-9.00,+0.00,-3.00,+1.00
-2.00,-5.00,-5.00,-1.00,-5.00,-5.00,-3.00,+0.00,+10.00,+6.00,+0.00,+0.00,-19.00,+6.00,+8.00,+4.00
+0.00,+6.00,+0.00,-2.00,-3.00,-16.00,+1.00,+0.00,-10.00,-1.00,-1.00,-4.00,+7.00,-5.00,-7.00,-15.00
-5.00,+5.00,+0.00,-3.00,-2.00,+0.00,-19.00,-2.00,-8.00,-3.00,-1.00,+0.00,-24.00,-8.00,+1.00,+0.00
-1.00,-6.00,-6.00,-2.00,+1.00,+5.00,+26.00,+5.00,+11.00,-2.00,-4.00,-5.00,+18.00,-1.00,-2.00,-6.00
-2.00,+4.00,-1.00,-3.00,-4.00,-3.00,-12.00,-6.00,-37.00,-14.00,-3.00,-6.00,-10.00,-2.00,-5.00,-9.00
+0.00,+10.00,-1.00,+1.00,+3.00,+7.00,+9.00,+1.00,-2.00,+6.00,+7.00,+2.00,-9.00,-13.00,+1.00,+13.00
-1.00,-15.00,-7.00,-3.00,-1.00,-6.00,-2.00,+1.00,+7.00,-8.00,-4.00,-1.00,+14.00,+13.00,-1.00,-5.00
-1.00,+11.00,+6.00,-3.00,-3.00,-2.00,-8.00,-7.00,+6.00,+13.00,+7.00,+5.00,+2.00,-4.00,-4.00,+10.00
-2.00,-7.00,-4.00,-2.00,-1.00,-8.00,+1.00,+4.00,+0.00,-4.00,-6.00,-5.00,-12.00,+5.00,+3.00,-6.00
+0.00,+4.00,+1.00,+2.00,+3.00,-1.00,+2.00,+0.00,-6.00,-6.00,-9.00,-6.00,+7.00,-4.00,-4.00,-3.00
-5.00,+6.00,-1.00,-4.00,+0.00,-1.00,+3.00,+3.00,-5.00,-1.00,+1.00,+0.00,+7.00,-4.00,-2.00,+1.00
-1.00,-4.00,+0.00,-3.00,-2.00,+2.00,-2.00,-1.00,-8.00,-8.00,-4.00,-1.00,-1.00,-1.00,+4.00,+3.00
+1.00,-4.00,-2.00,-7.00,-8.00,-7.00,-4.00,-3.00,+9.00,+4.00,+3.00,+2.00,-25.00,-3.00,-8.00,+2.00
+4.00,-1.00,+0.00,+9.00,+12.00,+22.00,+9.00,+5.00,+7.00,-4.00,-3.00,-7.00,+20.00,+1.00,-3.00,-1.00
-2.00,+4.00,-3.00,-3.00,+1.00,-7.00,-3.00,+0.00,-11.00,-1.00,-3.00,-4.00,+1.00,-9.00,+0.00,+7.00
-1.00,-2.00,-1.00,-1.00,+0.00,-4.00,+3.00,+1.00,-2.00,-1.00,+3.00,+3.00,-59.00,-1.00,-1.00,-8.00
-2.00,-7.00,+2.00,-1.00,+1.00,+9.00,-7.00,-1.00,+6.00,+3.00,-3.00,+4.00,+2.00,+1.00,-2.00,-1.00
+1.00,-1.00,-3.00,-6.00,-6.00,-5.00,-2.00,-1.00,+6.00,-2.00,+0.00,+3.00,+61.00,+5.00,+1.00,-5.00
-3.00,-2.00,-4.00,+1.00,-5.00,-10.00,+4.00,+0.00,+34.00,+1.00,-2.00,-3.00,-49.00,-12.00,+0.00,-4.00
+0.00,-4.00,-2.00,-1.00,+0.00,-4.00,-2.00,-6.00,+74.00,-4.00,-2.00,-6.00,+10.00,-4.00,-1.00,-7.00
+2.00,-4.00,-3.00,-2.00,+1.00,-4.00,-1.00,+0.00,+23.00,+0.00,+0.00,+3.00,+23.00,-1.00,-1.00,+6.00
+1.00,-3.00,-4.00,-2.00,-3.00,+6.00,-3.00,-1.00,+12.00,+4.00,+1.00,+0.00,-40.00,+2.00,+3.00,+3.00
+0.00,-1.00,+2.00,+0.00,-1.00,+0.00,+5.00,+2.00,-20.00,+5.00,+3.00,-1.00,+16.00,+0.00,-4.00,+4.00
-4.00,+1.00,+7.00,-7.00,-7.00,-11.00,-20.00,-5.00,-48.00,-8.00,+9.00,+3.00,+14.00,+0.00,+2.00,-3.00
+7.00,+13.00,+1.00,+1.00,-1.00,-16.00,+16.00,+4.00,-48.00,-23.00,-31.00,-11.00,-18.00,-2.00,-3.00,-5.00
-4.00,-1.00,+3.00,+1.00,+5.00,+26.00,+4.00,-1.00,-37.00,-12.00,-9.00,-3.00,+7.00,-3.00,-6.00,-14.00
-2.00,-1.00,-4.00,-3.00,-1.00,+16.00,+2.00,+3.00,-5.00,+7.00,+5.00,+2.00,+3.00,+2.00,+3.00,+15.00
-2.00,-18.00,-5.00,+0.00,+0.00,+3.00,+8.00,-1.00,-11.00,+11.00,+3.00,+1.00,-1.00,-2.00,-2.00,+0.00
-3.00,-3.00,-2.00,-6.00,+1.00,-5.00,-12.00,-3.00,+7.00,+4.00,+9.00,+2.00,-3.00,+2.00,+1.00,-3.00
-4.00,-4.00,-2.00,-3.00,-3.00,+1.00,+0.00,+4.00,-11.00,+1.00,+0.00,-3.00,-7.00,-1.00,+0.00,+5.00
+2.00,+2.00,+4.00,+1.00,-2.00,-16.00,+2.00,-6.00,-29.00,-11.00,-4.00,-5.00,+1.00,+0.00,-3.00,-10.00
-3.00,+0.00,-2.00,-3.00,+1.00,+3.00,-7.00,-3.00,+5.00,-6.00,-5.00,+0.00,+9.00,-1.00,+5.00,+9.00
-2.00,-6.00,-1.00,+3.00,+0.00,+8.00,+1.00,+0.00,-19.00,+4.00,+1.00,-2.00,-5.00,-6.00,-6.00,-4.00
-1.00,+1.00,+1.00,-2.00,-6.00,-28.00,-4.00,-3.00,+37.00,+4.00,+1.00,+1.00,-18.00,+0.00,+14.00,+10.00
-3.00,-3.00,-3.00,-4.00,+1.00,+11.00,-3.00,+0.00,+25.00,+3.00,+1.00,-2.00,+6.00,+7.00,-6.00,-1.00
+3.00,+4.00,-4.00,-5.00,-4.00,-10.00,+4.00,+2.00,-4.00,+3.00,-6.00,+1.00,+19.00,+6.00,+0.00,-4.00
-2.00,-2.00,-3.00,+0.00,+2.00,+8.00,-3.00,-1.00,+13.00,+4.00,+6.00,+3.00,-35.00,-11.00,+3.00,+10.00
-3.00,+0.00,-4.00,-4.00,-5.00,-7.00,+1.00,-2.00,+3.00,-8.00,-1.00,-1.00,+7.00,+2.00,-7.00,-10.00
+0.00,-1.00,+1.00,+1.00,+2.00,+2.00,-3.00,+1.00,+8.00,+0.00,-3.00,+0.00,+1.00,-1.00,+2.00,-2.00
-2.00,+4.00,-1.00,+0.00,+2.00,+7.00,+6.00,+1.00,-22.00,-10.00,-4.00,-5.00,+8.00,+0.00,+0.00,-5.00
+0.00,-3.00,+1.00,-1.00,-2.00,-2.00,+0.00,-2.00,+13.00,-1.00,+1.00,+1.00,-6.00,-7.00,-20.00,+2.00
+6.00,-1.00,+1.00,+0.00,+1.00,+1.00,-6.00,-2.00,+10.00,+11.00,-1.00,-3.00,-3.00,+2.00,+32.00,+5.00
-1.00,-11.00,-14.00,-5.00,-3.00,-9.00,+1.00,+0.00,-9.00,-8.00,+1.00,+4.00,-2.00,-2.00,+0.00,-4.00
-2.00,+2.00,+9.00,-5.00,-1.00,-1.00,+1.00,+2.00,-10.00,+4.00,-2.00,-1.00,-2.00,-2.00,-2.00,+0.00
-1.00,+5.00,+4.00,+5.00,+0.00,+1.00,-3.00,-4.00,-26.00,-5.00,+5.00,+0.00,-3.00,+2.00,+0.00,-16.00
-2.00,-3.00,+0.00,+2.00,-1.00,-2.00,-1.00,-18.00,+40.00,-2.00,-4.00,-6.00,+3.00,-6.00,-9.00,+16.00
+2.00,-3.00,+2.00,+3.00,+1.00,+2.00,+2.00,+0.00,-2.00,+4.00,-4.00,-5.00,+4.00,-4.00,-2.00,-6.00
+1.00,-4.00,-8.00,+0.00,-1.00,-3.00,-2.00,-1.00,+12.00,-8.00,+0.00,+1.00,-7.00,-2.00,+4.00,+3.00
+0.00,-5.00,-1.00,-3.00,+1.00,-3.00,-2.00,-1.00,-9.00,+13.00,+7.00,+6.00,+5.00,+4.00,+6.00,+5.00
-1.00,+2.00,-1.00,-3.00,+2.00,+5.00,+0.00,+3.00,-6.00,+6.00,-1.00,+2.00,+8.00,-12.00,-11.00,-4.00
+3.00,-3.00,-2.00,-3.00,-3.00,-10.00,-4.00,-2.00,+5.00,+0.00,-3.00,-4.00,-8.00,+8.00,+1.00,-6.00
+0.00,-2.00,-2.00,-2.00,-3.00,+4.00,-2.00,-2.00,-1.00,-1.00,+1.00,+1.00,-3.00,-3.00,-9.00,+0.00
-3.00,-2.00,+4.00,-2.00,-2.00,-9.00,-14.00,-1.00,+4.00,+0.00,+4.00,-2.00,-1.00,+1.00,+2.00,-4.00
+3.00,+5.00,+2.00,+6.00,+1.00,+25.00,+18.00,+9.00,-19.00,-11.00,-4.00,+0.00,+1.00,+0.00,-5.00,-7.00
+0.00,-5.00,-2.00,-3.00,-4.00,-3.00,-3.00,-3.00,-10.00,+1.00,-4.00,-3.00,-5.00,-3.00,-5.00,-2.00
-4.00,-5.00,-2.00,-2.00,-6.00,-34.00,-8.00,+0.00,-4.00,-8.00,-6.00,-7.00,-1.00,-6.00,-5.00,-13.00
-3.00,+5.00,-4.00,+4.00,+9.00,+60.00,+11.00,+5.00,-11.00,-3.00,-6.00,-4.00,+11.00,+0.00,-1.00,+4.00
-1.00,+0.00,+1.00,-4.00,-3.00,-25.00,-10.00,-1.00,-13.00,-1.00,+4.00,+0.00,-16.00,+6.00,-5.00,-14.00
-2.00,+0.00,+2.00,-1.00,+0.00,+6.00,+0.00,-1.00,+4.00,+2.00,-4.00,-2.00,+2.00,-2.00,+0.00,+1.00
+1.00,+1.00,-3.00,-4.00,-4.00,+4.00,-7.00,-4.00,-6.00,+4.00,+4.00,-3.00,+0.00,+2.00,-1.00,+2.00
-2.00,-12.00,-2.00,-1.00,-5.00,-20.00,-1.00,-2.00,+1.00,+0.00,-3.00,-2.00,+57.00,+4.00,-2.00,-12.00
-2.00,-12.00,+1.00,+0.00,+1.00,+2.00,+1.00,+0.00,-15.00,-1.00,+2.00,+7.00,-62.00,-5.00,+0.00,+18.00
+1.00,+17.00,+4.00,+0.00,+2.00,+8.00,+2.00,+2.00,+18.00,+2.00,+3.00,+2.00,+12.00,+0.00,-3.00,-2.00
+0.00,-9.00,-3.00,+1.00,+2.00,-1.00,-2.00,-5.00,+13.00,+7.00,-3.00,-1.00,-9.00,-5.00,-5.00,-2.00
-3.00,+9.00,-3.00,-7.00,-1.00,-4.00,-2.00,+5.00,+11.00,-8.00,-1.00,-3.00,-3.00,+0.00,-2.00,-4.00
-3.00,-5.00,-3.00,+0.00,-1.00,+3.00,+1.00,-5.00,-19.00,-7.00,-7.00,-8.00,+18.00,+3.00,+4.00,+0.00
-1.00,+14.00,+2.00,-3.00,-4.00,-14.00,-3.00,+0.00,-6.00,-7.00,+2.00,-2.00,-3.00,-1.00,+2.00,-5.00
-1.00,+9.00,-3.00,+0.00,+3.00,+9.00,+1.00,+1.00,-18.00,-5.00,-5.00,+0.00,-2.00,-3.00,+4.00,+5.00
+0.00,-39.00,+4.00,-1.00,+3.00,-7.00,+1.00,+0.00,+66.00,+5.00,+1.00,+1.00,-8.00,+2.00,+3.00,+16.00
-1.00,-5.00,-2.00,-2.00,+0.00,+4.00,-3.00,+2.00,+25.00,+4.00,+5.00,+3.00,+12.00,-2.00,-10.00,-15.00
-1.00,-10.00,-3.00,+0.00,-1.00,-4.00,-4.00,+1.00,+40.00,-6.00,+4.00,+0.00,-11.00,-3.00,+1.00,+16.00
+2.00,+2.00,+2.00,+6.00,+0.00,+4.00,+2.00,+1.00,-23.00,+0.00,-22.00,+0.00,+13.00,+2.00,-8.00,-16.00
+0.00,+6.00,-6.00,-5.00,-2.00,-3.00,+0.00,-1.00,+10.00,+7.00,+1.00,+0.00,-18.00,-1.00,+1.00,+19.00
-4.00,+3.00,+1.00,-6.00,-5.00,-6.00,-5.00,+1.00,+3.00,+3.00,+1.00,+1.00,+4.00,+1.00,+7.00,+7.00
+0.00,-9.00,+3.00,+1.00,+0.00,+8.00,-1.00,-1.00,-14.00,+2.00,-3.00,-2.00,+8.00,-2.00,-6.00,-18.00
-4.00,-5.00,+0.00,-2.00,+3.00,+3.00,+4.00,+2.00,+1.00,-3.00,+2.00,-1.00,-2.00,+1.00,+2.00,+9.00
+0.00,+7.00,+3.00,+0.00,+0.00,-15.00,-1.00,-6.00,-12.00,-6.00,-2.00,-2.00,-12.00,-3.00,-2.00,-14.00
-1.00,+1.00,-2.00,+3.00,+0.00,+6.00,-1.00,-2.00,-21.00,-3.00,-2.00,-3.00,+9.00,-1.00,-4.00,-9.00
+0.00,+1.00,-2.00,-2.00,-1.00,+1.00,+0.00,-4.00,-17.00,-4.00,-4.00,-7.00,-2.00,+1.00,-6.00,+3.00
-2.00,+1.00,+0.00,-2.00,+0.00,+1.00,+4.00,+0.00,+6.00,-2.00,+3.00,+4.00,+0.00,-13.00,-1.00,-9.00
-2.00,-4.00,-4.00,-5.00,-7.00,-1.00,-8.00,-3.00,-16.00,+1.00,-1.00,+1.00,-14.00,+12.00,+0.00,-10.00
+0.00,+10.00,+6.00,+8.00,+7.00,+13.00,+3.00,+4.00,-8.00,-4.00,-1.00,-1.00,+9.00,-5.00,-6.00,+2.00
-5.00,-8.00,-3.00,-1.00,+3.00,-3.00,+0.00,-1.00,-21.00,-3.00,-6.00,-3.00,+19.00,-2.00,-2.00,-8.00
-2.00,-16.00,-5.00,-3.00,-1.00,+0.00,-2.00,-1.00,+2.00,+2.00,+4.00,-4.00,-23.00,-6.00,-7.00,+2.00
+2.00,+14.00,+4.00,+0.00,-1.00,+0.00,+0.00,+4.00,-9.00,-2.00,+3.00,+2.00,+3.00,-4.00,-5.00,-18.00
-4.00,-4.00,-5.00,-5.00,-6.00,-8.00,-5.00,-1.00,+7.00,-8.00,-4.00,-1.00,+6.00,+7.00,+35.00,+25.00
-3.00,+2.00,+0.00,-2.00,-3.00,-7.00,-1.00,-2.00,+24.00,+8.00,-2.00,+0.00,-1.00,-1.00,-3.00,+10.00
-2.00,+3.00,+0.00,-2.00,+0.00,+7.00,+2.00,-3.00,-17.00,-1.00,+1.00,-1.00,+3.00,+4.00,+1.00,-10.00
+1.00,+2.00,-1.00,+2.00,+2.00,-5.00,+3.00,-3.00,+29.00,-1.00,-7.00,-2.00,-11.00,-3.00,-6.00,+7.00
-2.00,+1.00,-8.00,-2.00,-2.00,-2.00,-4.00,+6.00,-9.00,-8.00,-1.00,-3.00,-4.00,-8.00,-18.00,-17.00
-4.00,+2.00,+4.00,-1.00,-1.00,-3.00,+0.00,+0.00,+53.00,+0.00,-2.00,+2.00,-3.00,-1.00,+9.00,+13.00
-3.00,-2.00,+8.00,-8.00,-5.00,-7.00,-4.00,+8.00,-12.00,+7.00,-1.00,+0.00,+5.00,+3.00,+5.00,+5.00
-5.00,+3.00,-1.00,+6.00,+2.00,+1.00,+0.00,-11.00,-22.00,-3.00,+4.00,+2.00,-4.00,-1.00,-3.00,-1.00
+1.00,+3.00,-3.00,+0.00,+1.00,-1.00,+0.00,-3.00,-18.00,-2.00,-12.00,-4.00,+2.00,+0.00,-11.00,-12.00
-3.00,-3.00,-9.00,-4.00,-4.00,-2.00,-5.00,-2.00,-53.00,-7.00,-1.00,-3.00,-6.00,-1.00,-1.00,-11.00
-1.00,-8.00,-5.00,-4.00,-1.00,+1.00,+1.00,+1.00,+1.00,-2.00,+3.00,+0.00,+9.00,+2.00,+0.00,+15.00
-5.00,+10.00,+6.00,-3.00,-1.00,-1.00,-2.00,+4.00,-12.00,-7.00,-2.00,-7.00,-12.00,-6.00,+7.00,-4.00
+1.00,-4.00,-1.00,-3.00,-1.00,-1.00,-1.00,+0.00,-4.00,+3.00,+0.00,+2.00,+33.00,-1.00,-4.00,-3.00
+2.00,-1.00,-2.00,-3.00,-3.00,-14.00,+1.00,-3.00,-26.00,-1.00,+1.00,+4.00,-24.00,+7.00,-1.00,-12.00
+3.00,+0.00,+2.00,+2.00,+0.00,-1.00,+0.00,-1.00,-1.00,-3.00,+0.00,-2.00,-12.00,+0.00,-2.00,-5.00
+1.00,-6.00,-4.00,-3.00,+0.00,+3.00,-2.00,-2.00,-28.00,-7.00,-9.00,-3.00,-4.00,-4.00,-13.00,-32.00
-1.00,+9.00,+3.00,+1.00,-2.00,-2.00,+0.00,-1.00,+25.00,+8.00,+7.00,+2.00,-2.00,+5.00,+10.00,+35.00
-2.00,-7.00,-2.00,-2.00,-2.00,+2.00,-2.00,-2.00,+3.00,+5.00,-6.00,+0.00,+6.00,-1.00,+6.00,+10.00
-1.00,+7.00,-1.00,-2.00,-3.00,-5.00,+2.00,-4.00,+4.00,+4.00,-1.00,-2.00,+5.00,-1.00,-3.00,+5.00
+2.00,-6.00,-4.00,-2.00,-2.00,-1.00,-2.00,-4.00,+6.00,+3.00,+1.00,-2.00,+13.00,-2.00,+3.00,+12.00
-2.00,-4.00,-1.00,-3.00,+0.00,+2.00,-2.00,-2.00,-8.00,+6.00,+0.00,-10.00,-5.00,-8.00,-22.00,-27.00
-1.00,-2.00,+0.00,-2.00,+2.00,-2.00,-2.00,-3.00,+6.00,-6.00,-2.00,+9.00,-9.00,-9.00,+4.00,-2.00
-1.00,+7.00,-3.00,-2.00,+0.00,+3.00,-2.00,-7.00,+10.00,-6.00,-2.00,+0.00,+2.00,+19.00,+2.00,+7.00
-3.00,+0.00,-4.00,-3.00,-6.00,-11.00,+2.00,+1.00,+4.00,-4.00,-2.00,-2.00,+2.00,-4.00,+8.00,-8.00
+1.00,+7.00,+3.00,+0.00,-2.00,+0.00,-6.00,-3.00,+18.00,+0.00,+6.00,+2.00,-2.00,+2.00,-6.00,+1.00
+1.00,-1.00,+3.00,+6.00,+3.00,+2.00,+3.00,+1.00,+52.00,+1.00,-8.00,-6.00,+0.00,-7.00,+6.00,+1.00
-2.00,-10.00,+2.00,-4.00,+2.00,+4.00,+0.00,-2.00,+124.00,+10.00,+5.00,-2.00,-2.00,-7.00,-3.00,-12.00
-1.00,-7.00,-3.00,-3.00,-1.00,-2.00,-1.00,+1.00,+85.00,+3.00,+0.00,-1.00,-3.00,-1.00,-1.00,-1.00
+1.00,-4.00,-3.00,-2.00,-4.00,-6.00,-1.00,+5.00,+22.00,-6.00,+0.00,+3.00,-3.00,+2.00,-3.00,-5.00
-4.00,-14.00,-4.00,+0.00,-4.00,-1.00,-4.00,+3.00,-24.00,-1.00,+0.00,-2.00,+1.00,+0.00,-3.00,-2.00
-4.00,+5.00,+1.00,+2.00,-1.00,+0.00,+0.00,-2.00,-1.00,-10.00,-4.00,-1.00,+1.00,-4.00,-2.00,-2.00
-1.00,+0.00,-3.00,-1.00,+2.00,+5.00,+1.00,+0.00,+112.00,+2.00,-1.00,-1.00,-2.00,+1.00,+5.00,+11.00
-1.00,-2.00,-1.00,-5.00,-3.00,-3.00,-7.00,-1.00,+99.00,+1.00,+0.00,+1.00,-11.00,-2.00,+5.00,+7.00
-3.00,+4.00,-1.00,+0.00,-2.00,+1.00,+1.00,+2.00,-57.00,-7.00,+0.00,-2.00,+2.00,-15.00,-23.00,-30.00
-3.00,-5.00,+0.00,+2.00,+2.00,+5.00,+1.00,+0.00,-119.00,+0.00,+0.00,-2.00,+3.00,+19.00,+13.00,+37.00
-3.00,+0.00,-4.00,-8.00,+0.00,-5.00,-5.00,+4.00,-128.00,+3.00,+5.00,+0.00,-3.00,-2.00,-6.00,-2.00
-1.00,+1.00,-1.00,-3.00,+2.00,+9.00,+7.00,-5.00,-116.00,-9.00,-6.00,-3.00,-5.00,+0.00,-3.00,-6.00
-1.00,-3.00,-1.00,-2.00,-2.00,-2.00,+0.00,-6.00,-73.00,+2.00,+4.00,-1.00,+1.00,+4.00,+0.00,+8.00
+2.00,+1.00,+0.00,+0.00,-1.00,-7.00,-3.00,-8.00,-72.00,-1.00,+0.00,-3.00,+31.00,-7.00,-6.00,-8.00
+3.00,+3.00,-3.00,+3.00,-2.00,+2.00,+0.00,+0.00,-76.00,+1.00,+2.00,-1.00,-36.00,+1.00,+0.00,-1.00
+0.00,-5.00,-1.00,-2.00,-4.00,-10.00,+2.00,+5.00,-68.00,-5.00,-5.00,-2.00,-7.00,+2.00,-5.00,-9.00
+2.00,+5.00,+1.00,+5.00,+4.00,+9.00,-5.00,-5.00,-37.00,-3.00,+0.00,-2.00,-1.00,-4.00,-9.00,-15.00
+0.00,-1.00,+0.00,-3.00,-4.00,-16.00,-2.00,-2.00,-20.00,-4.00,-5.00,+1.00,-7.00,-6.00,+0.00,-3.00
