-5.00,+0.00,+0.00,-2.00,-2.00,+1.00,-1.00,+0.00,+19.00,-6.00,-1.00,+0.00,-12.00,-8.00,+0.00,+7.00
+1.00,-2.00,-2.00,+0.00,+1.00,+0.00,-1.00,-1.00,+3.00,-2.00,-3.00,+0.00,-6.00,-6.00,-3.00,-5.00
+0.00,-1.00,-2.00,-3.00,-1.00,-1.00,-1.00,+1.00,+13.00,+10.00,+0.00,+0.00,-3.00,-2.00,+3.00,+9.00
+1.00,+0.00,+2.00,-1.00,-3.00,-2.00,+1.00,-1.00,-3.00,+4.00,+2.00,-3.00,+25.00,+6.00,+7.00,+8.00
-2.00,-3.00,-4.00,-2.00,-3.00,-3.00,-3.00,-3.00,-18.00,-13.00,+1.00,-1.00,-7.00,-2.00,-4.00,-8.00
+0.00,-1.00,-1.00,-2.00,-6.00,-25.00,-3.00,-2.00,-2.00,+5.00,-5.00,-8.00,+40.00,+1.00,-2.00,+0.00
-2.00,+0.00,+2.00,-2.00,-1.00,+12.00,+3.00,+0.00,+0.00,-13.00,-1.00,+5.00,-63.00,-5.00,+0.00,+2.00
-2.00,-3.00,-3.00,-1.00,-3.00,+2.00,-2.00,+0.00,-12.00,+11.00,-1.00,+0.00,+11.00,-4.00,-4.00,-7.00
-3.00,+1.00,+0.00,-1.00,+2.00,+4.00,+1.00,-1.00,-6.00,-12.00,-2.00,+1.00,-16.00,+2.00,-1.00,-3.00
+1.00,-3.00,-1.00,+0.00,+0.00,-2.00,-2.00,-1.00,+5.00,+8.00,-1.00,-3.00,-8.00,-2.00,-2.00,-9.00
-3.00,-2.00,-2.00,-2.00,-3.00,-8.00,-2.00,-3.00,-16.00,-2.00,-3.00,-8.00,+0.00,-1.00,-4.00,-12.00
+1.00,+0.00,-2.00,+0.00,-1.00,-1.00,-1.00,-2.00,+22.00,+0.00,-3.00,+2.00,+40.00,-13.00,+21.00,-2.00
+2.00,-10.00,-1.00,-1.00,+0.00,-1.00,+0.00,-1.00,-41.00,-32.00,-6.00,-2.00,-2.00,+21.00,-39.00,-6.00
-1.00,+7.00,+2.00,-5.00,+0.00,+5.00,-2.00,-1.00,+37.00,+34.00,+7.00,+3.00,-36.00,+5.00,+3.00,+16.00
+1.00,+4.00,+0.00,-1.00,-2.00,-19.00,-3.00,+1.00,-21.00,-4.00,+4.00,+24.00,-3.00,-7.00,-4.00,-5.00
-5.00,+0.00,-6.00,-5.00,+2.00,+23.00,+0.00,-1.00,+9.00,+12.00,+5.00,+1.00,+1.00,+1.00,+2.00,+5.00
+1.00,-93.00,-7.00,+2.00,+1.00,+3.00,+6.00,+0.00,-51.00,-20.00,-6.00,-4.00,+11.00,-6.00,+3.00,-16.00
-7.00,+49.00,+8.00,+4.00,+2.00,+11.00,+3.00,+6.00,+20.00,-14.00,-4.00,-7.00,+0.00,-6.00,+0.00,+5.00
+0.00,-8.00,-1.00,-5.00,-7.00,-6.00,-5.00,+0.00,+16.00,+20.00,+3.00,-11.00,+14.00,+0.00,-1.00,+7.00
-2.00,+10.00,+1.00,+5.00,+1.00,-3.00,-3.00,-1.00,-12.00,-32.00,-6.00,-5.00,-18.00,-1.00,-4.00,+6.00
-2.00,-6.00,+1.00,+0.00,+0.00,+0.00,+2.00,-6.00,+23.00,+48.00,+2.00,-1.00,+16.00,-4.00,+6.00,-2.00
+4.00,-22.00,-4.00,-4.00,+2.00,+0.00,-3.00,-1.00,-11.00,-5.00,+1.00,-2.00,-20.00,-3.00,-5.00,-7.00
+0.00,-5.00,+0.00,-2.00,+1.00,+7.00,+2.00,-1.00,-6.00,-11.00,-10.00,-7.00,+5.00,-5.00,-1.00,-22.00
-4.00,+12.00,+3.00,+3.00,+0.00,-9.00,+1.00,-15.00,-28.00,-23.00,-8.00,-6.00,+0.00,+1.00,-11.00,-14.00
+0.00,+26.00,+5.00,+1.00,+1.00,+4.00,+1.00,+5.00,+12.00,-34.00,-9.00,-6.00,-16.00,-3.00,+4.00,+9.00
-1.00,-12.00,-3.00,-7.00,-8.00,-7.00,+0.00,+1.00,+34.00,+26.00,+11.00,+9.00,+14.00,+6.00,+13.00,+18.00
+5.00,+8.00,-5.00,+5.00,+3.00,+3.00,-7.00,-3.00,-10.00,+14.00,+6.00,+5.00,+3.00,+1.00,-3.00,+0.00
+6.00,-21.00,-6.00,-3.00,+1.00,-3.00,-3.00,-1.00,+10.00,+18.00,-4.00,-7.00,-13.00,-2.00,-10.00,-16.00
-4.00,+18.00,-4.00,-3.00,-3.00,-15.00,-4.00,+2.00,+20.00,-15.00,-1.00,+0.00,+15.00,-1.00,+1.00,+2.00
+0.00,-2.00,+1.00,-2.00,+1.00,+3.00,-1.00,-4.00,+9.00,-12.00,-12.00,-19.00,-25.00,+6.00,-1.00,-5.00
-3.00,-12.00,-1.00,-3.00,-2.00,-6.00,+1.00,+4.00,-8.00,-17.00,+8.00,+3.00,+50.00,+2.00,+3.00,+10.00
-2.00,-2.00,-2.00,-4.00,-13.00,-61.00,-3.00,+2.00,-18.00,+16.00,+5.00,+25.00,-51.00,-15.00,-10.00,-9.00
-1.00,+30.00,-1.00,+3.00,+7.00,+65.00,+0.00,+6.00,-30.00,+5.00,+2.00,+5.00,+10.00,-10.00,-9.00,-3.00
-3.00,-43.00,-1.00,+1.00,-4.00,-29.00,-1.00,-4.00,+21.00,-11.00,-3.00,+14.00,+2.00,+4.00,+32.00,+8.00
-6.00,+74.00,+7.00,+6.00,+8.00,+60.00,+10.00,+0.00,-3.00,-24.00,-9.00,-17.00,-4.00,+0.00,-8.00,-24.00
+1.00,+26.00,+1.00,-3.00,+1.00,+2.00,+0.00,+2.00,+12.00,+21.00,-2.00,-10.00,+7.00,-4.00,-4.00,-6.00
+3.00,+7.00,-2.00,-5.00,-7.00,-21.00,-6.00,-2.00,+2.00,-16.00,-2.00,+0.00,+2.00,+2.00,+6.00,-1.00
-1.00,+7.00,+1.00,-1.00,-2.00,-5.00,-1.00,+1.00,-30.00,+6.00,+4.00,-4.00,+0.00,-11.00,-9.00,-8.00
-3.00,-18.00,-2.00,-4.00,-2.00,-11.00,-3.00,-4.00,+2.00,+4.00,-3.00,-2.00,-13.00,-6.00,-9.00,-4.00
-3.00,-23.00,-2.00,+1.00,-2.00,+10.00,-3.00,-2.00,-17.00,-27.00,+3.00,-1.00,+9.00,+6.00,+5.00,+7.00
+3.00,+23.00,+3.00,+5.00,+1.00,-15.00,+2.00,-2.00,+29.00,+47.00,+3.00,+0.00,-8.00,+2.00,+3.00,+2.00
-2.00,+5.00,-8.00,-1.00,+2.00,+15.00,-1.00,-2.00,-54.00,-21.00,-8.00,-1.00,-3.00,-2.00,-13.00,-22.00
-1.00,-15.00,+6.00,-3.00,-2.00,-19.00,-1.00,+7.00,+30.00,+5.00,-2.00,+0.00,-6.00,-3.00,+2.00,+2.00
+0.00,+14.00,-10.00,-10.00,-4.00,+3.00,-4.00,+0.00,-7.00,-13.00,+0.00,-2.00,+8.00,+6.00,+2.00,+19.00
+3.00,-93.00,-10.00,-3.00,-6.00,-12.00,-4.00,-7.00,-13.00,-22.00,-7.00,-7.00,+5.00,+1.00,+0.00,-9.00
-1.00,+81.00,+14.00,+12.00,+6.00,-14.00,+5.00,+7.00,-38.00,-12.00,+2.00,-2.00,-23.00,-14.00,-9.00,-11.00
-2.00,+24.00,-2.00,-5.00,-3.00,+7.00,+0.00,-4.00,-51.00,-22.00,-11.00,-2.00,+1.00,-12.00,-10.00,-31.00
-1.00,-26.00,-3.00,-2.00,+1.00,-5.00,-4.00,+1.00,+84.00,+43.00,+16.00,+1.00,+38.00,+29.00,+15.00,+56.00
-5.00,+33.00,-1.00,-4.00,-9.00,+4.00,+0.00,-3.00,+21.00,-15.00,-6.00,+1.00,-19.00,-7.00,-4.00,+9.00
+2.00,-84.00,-12.00,-8.00,-6.00,-65.00,-16.00,-4.00,+6.00,+36.00,-2.00,-17.00,-24.00,-8.00,+0.00,+0.00
-2.00,+82.00,+11.00,+5.00,+1.00,+17.00,+6.00,+7.00,-17.00,-10.00,+4.00,+18.00,-11.00,-1.00,-1.00,-7.00
-1.00,-30.00,+6.00,+7.00,+12.00,+36.00,+7.00,+3.00,-13.00,-3.00,-4.00,-1.00,+3.00,-5.00,-3.00,-7.00
-1.00,+1.00,-2.00,+4.00,+9.00,+30.00,+5.00,+1.00,-4.00,+1.00,+4.00,+2.00,+33.00,+0.00,+3.00,-3.00
-2.00,-15.00,-2.00,-6.00,+0.00,+28.00,+8.00,-3.00,+11.00,-13.00,-4.00,+0.00,-4.00,-1.00,-11.00,+1.00
+8.00,-37.00,-4.00,-2.00,-5.00,-17.00,-6.00,-16.00,+4.00,-23.00,-10.00,-10.00,-13.00,+3.00,-13.00,-6.00
-4.00,+1.00,-1.00,-1.00,-4.00,-10.00,-2.00,-2.00,+24.00,+18.00,+1.00,-5.00,-4.00,-3.00,+3.00,+5.00
-5.00,+11.00,-1.00,-8.00,-6.00,-29.00,-30.00,-7.00,-7.00,+29.00,+5.00,+0.00,+4.00,+1.00,+2.00,-7.00
-2.00,-11.00,+1.00,+11.00,+5.00,+27.00,+37.00,+5.00,+9.00,-7.00,-2.00,+3.00,+8.00,+3.00,+7.00,+21.00
-3.00,-28.00,-8.00,-2.00,-2.00,-11.00,-3.00,-7.00,-16.00,+6.00,+0.00,-8.00,+1.00,+2.00,-2.00,+6.00
-1.00,+8.00,+1.00,+1.00,-2.00,+3.00,+5.00,+6.00,+41.00,-3.00,-2.00,-4.00,+13.00,-5.00,-6.00,-12.00
-2.00,+26.00,+1.00,-1.00,+2.00,-8.00,-6.00,+6.00,-33.00,-13.00,-2.00,+0.00,+8.00,+5.00,+0.00,-10.00
-3.00,+17.00,-3.00,-7.00,-5.00,+6.00,-16.00,-3.00,-54.00,-22.00,-11.00,+4.00,-43.00,-13.00,-17.00,-40.00
+3.00,-19.00,-5.00,-7.00,-2.00,-6.00,+1.00,+3.00,+109.00,+28.00,+6.00,-4.00,+18.00,+2.00,+15.00,+71.00
-2.00,-26.00,+0.00,+1.00,-1.00,-4.00,+0.00,-4.00,-51.00,-24.00,-4.00,-4.00,-25.00,-13.00,-2.00,-18.00
-1.00,-29.00,-5.00,-5.00,-3.00,-9.00,-1.00,-1.00,+22.00,-6.00,-1.00,-3.00,+10.00,-6.00,+0.00,+0.00
-1.00,+73.00,+8.00,-1.00,+4.00,+22.00,-4.00,-3.00,+4.00,+18.00,+3.00,+12.00,+19.00,-27.00,-24.00,-6.00
+0.00,-28.00,-6.00,-8.00,-6.00,-11.00,+2.00,+0.00,-73.00,-48.00,-6.00,+0.00,+38.00,+30.00,+19.00,-26.00
+2.00,+41.00,+10.00,+9.00,+10.00,+4.00,+1.00,+4.00,+71.00,+92.00,+4.00,-9.00,-22.00,+5.00,+19.00,+3.00
-1.00,-39.00,-5.00,-6.00,-5.00,-26.00,+2.00,-4.00,+7.00,-6.00,-2.00,+4.00,-5.00,+4.00,+9.00,+30.00
+2.00,-26.00,-7.00,-3.00,+1.00,+14.00,+0.00,+0.00,-73.00,-24.00,-5.00,-3.00,+11.00,+6.00,-11.00,-21.00
-4.00,-28.00,-3.00,-1.00,+0.00,+26.00,+0.00,-3.00,+67.00,+18.00,+3.00,-2.00,-5.00,-17.00,+5.00,+6.00
+0.00,+11.00,-1.00,-1.00,-4.00,+6.00,-2.00,-1.00,+14.00,-23.00,-5.00,-2.00,+28.00,+0.00,-4.00,+13.00
-4.00,+57.00,+8.00,+3.00,-1.00,-5.00,+6.00,+2.00,+2.00,-5.00,-1.00,-9.00,-61.00,+2.00,-2.00,-13.00
+0.00,-29.00,-9.00,-5.00,-3.00,-31.00,-4.00,-8.00,-7.00,+12.00,+5.00,+11.00,+23.00,+8.00,+18.00,+34.00
-1.00,-5.00,-5.00,-9.00,-2.00,-12.00,-10.00,+2.00,-6.00,+9.00,-2.00,-8.00,-20.00,-4.00,-10.00,-20.00
+1.00,-38.00,-2.00,+4.00,+3.00,-2.00,+5.00,+4.00,-101.00,-37.00,-10.00,-7.00,+57.00,+3.00,+13.00,-17.00
-2.00,+44.00,+0.00,+0.00,+0.00,+3.00,+7.00,+3.00,+92.00,+31.00,-1.00,-1.00,-23.00,-15.00,-11.00,-3.00
+1.00,-2.00,+2.00,+1.00,-2.00,+6.00,-3.00,+11.00,-18.00,-28.00,-11.00,-19.00,+53.00,+4.00,-3.00,+6.00
+2.00,+14.00,-3.00,-1.00,+0.00,-6.00,-1.00,-3.00,+15.00,+48.00,+20.00,+31.00,-62.00,+16.00,-8.00,+19.00
-2.00,-29.00,-3.00,-4.00,-4.00,+3.00,-5.00,-3.00,+19.00,+9.00,+0.00,+17.00,+23.00,+4.00,+26.00,+2.00
+3.00,-3.00,+0.00,+4.00,-5.00,-34.00,-3.00,+0.00,-62.00,-24.00,+3.00,+4.00,+7.00,-6.00,+3.00,-7.00
-2.00,-21.00,-7.00,-4.00,-1.00,+35.00,-26.00,-3.00,+78.00,-4.00,-3.00,-8.00,+7.00,-12.00,-8.00,+14.00
+1.00,+13.00,+4.00,+9.00,+10.00,-5.00,+54.00,+5.00,-68.00,-24.00,-20.00,-25.00,-20.00,-45.00,+9.00,-15.00
-1.00,+58.00,+5.00,-5.00,-4.00,-30.00,-25.00,-1.00,-37.00,+0.00,+4.00,+8.00,+10.00,+33.00,-40.00,-2.00
-2.00,-15.00,-4.00,+3.00,+6.00,+15.00,+17.00,+9.00,-93.00,-10.00,-4.00,+4.00,-12.00,+3.00,-8.00,-34.00
-3.00,-10.00,+0.00,-2.00,-4.00,+7.00,+4.00,-2.00,+66.00,+22.00,+10.00,+9.00,+2.00,+20.00,+23.00,+20.00
-4.00,-52.00,-6.00,-4.00,-2.00,-11.00,-22.00,+0.00,-33.00,+20.00,+1.00,-2.00,-15.00,-1.00,-13.00,+4.00
+2.00,+30.00,+1.00,+0.00,-1.00,-6.00,+5.00,-1.00,+11.00,-72.00,-13.00,-18.00,-18.00,-25.00,-6.00,-29.00
-3.00,+10.00,+4.00,-3.00,-1.00,-7.00,-1.00,+11.00,+81.00,+54.00,+1.00,-23.00,+27.00,-9.00,-26.00,-12.00
+3.00,-9.00,-3.00,+0.00,-4.00,-15.00,+6.00,+35.00,-57.00,-11.00,-2.00,+22.00,-38.00,-1.00,-5.00,-17.00
-2.00,+8.00,+4.00,+0.00,-3.00,+4.00,-11.00,-1.00,+77.00,+30.00,+9.00,+0.00,+32.00,-2.00,+15.00,+16.00
+0.00,-25.00,-8.00,+0.00,+0.00,+5.00,+12.00,+19.00,+16.00,-9.00,+0.00,-9.00,-5.00,+17.00,+17.00,+14.00
+5.00,+5.00,-2.00,-1.00,-1.00,+3.00,-13.00,-29.00,-6.00,-24.00,-9.00,+2.00,-22.00,+3.00,+4.00,+24.00
-1.00,+2.00,-1.00,+1.00,+3.00,+20.00,+13.00,-5.00,-62.00,+25.00,+11.00,-3.00,+43.00,-6.00,-9.00,-16.00
+1.00,-12.00,+1.00,-7.00,-2.00,-19.00,-19.00,-3.00,-53.00,+21.00,+0.00,+5.00,-12.00,+6.00,-6.00,-30.00
-3.00,+17.00,-1.00,-8.00,-11.00,+7.00,-7.00,-5.00,+8.00,-18.00,+8.00,+8.00,+38.00,-1.00,+2.00,+80.00
+2.00,-66.00,-7.00,+7.00,+12.00,+30.00,-14.00,+9.00,+13.00,+28.00,+5.00,+2.00,-65.00,-6.00,-10.00,-28.00
-1.00,-73.00,-2.00,-9.00,-11.00,-8.00,+36.00,-2.00,+35.00,-12.00,-4.00,-13.00,+14.00,+13.00,+12.00,+24.00
+3.00,+71.00,+21.00,+23.00,+18.00,+9.00,-2.00,-9.00,-48.00,-32.00,-9.00,+4.00,+18.00,-2.00,-2.00,-10.00
+1.00,-74.00,-7.00,+0.00,+1.00,+35.00,+7.00,-13.00,-45.00,-2.00,+5.00,+5.00,-43.00,-6.00,-23.00,-30.00
-2.00,+93.00,+11.00,+0.00,-6.00,-5.00,+3.00,+1.00,-10.00,-29.00,-9.00,-12.00,+72.00,+2.00,+12.00,+7.00
-3.00,-23.00,-5.00,-5.00,-1.00,+14.00,-14.00,-18.00,+15.00,+7.00,+3.00,+9.00,-100.00,-7.00,-6.00,-9.00
+2.00,-12.00,-14.00,-14.00,-12.00,+7.00,+13.00,+16.00,+7.00,-15.00,+0.00,-2.00,+30.00,-10.00,-13.00,-23.00
-3.00,-7.00,+8.00,+4.00,-3.00,-69.00,-23.00,+6.00,-12.00,+9.00,-6.00,-11.00,-17.00,-10.00,+33.00,+16.00
-2.00,-10.00,-3.00,-1.00,+5.00,+33.00,+8.00,+7.00,-9.00,-17.00,+6.00,+14.00,+2.00,+4.00,-35.00,-4.00
-2.00,+21.00,+4.00,+6.00,+4.00,-13.00,-9.00,-17.00,-1.00,-10.00,-3.00,+0.00,+8.00,+5.00,+46.00,+36.00
+1.00,-42.00,-8.00,-1.00,-5.00,-15.00,+0.00,-1.00,+96.00,+30.00,+9.00,+2.00,-8.00,+8.00,-4.00,+32.00
+0.00,+62.00,-2.00,-8.00,-5.00,-15.00,-9.00,+2.00,-11.00,+25.00,+1.00,-4.00,+13.00,-11.00,+7.00,-30.00
-9.00,-30.00,-7.00,-12.00,-8.00,+0.00,-6.00,-72.00,-28.00,-7.00,-6.00,-7.00,-19.00,-12.00,-10.00,-20.00
-1.00,-8.00,-1.00,+8.00,-2.00,+24.00,+0.00,+39.00,+2.00,-33.00,-7.00,-6.00,-6.00,-6.00,-21.00,-45.00
-3.00,+57.00,+2.00,+1.00,-2.00,-2.00,-10.00,-44.00,+12.00,+23.00,-2.00,-6.00,+5.00,+5.00,+27.00,+68.00
+0.00,-27.00,-7.00,-7.00,-7.00,-20.00,-1.00,-22.00,-58.00,-32.00,-9.00,-6.00,-28.00,-16.00,-34.00,-63.00
+7.00,-42.00,-3.00,-3.00,-4.00,-10.00,-18.00,+10.00,+28.00,+44.00,+10.00,+6.00,+14.00,+6.00,+17.00,+19.00
-2.00,+92.00,+8.00,-2.00,-1.00,-48.00,+6.00,+11.00,-43.00,-38.00,-13.00,-3.00,-1.00,-7.00,-17.00,-20.00
+1.00,-83.00,-6.00,+0.00,+4.00,+33.00,-1.00,-9.00,+37.00,+10.00,+9.00,+2.00,+10.00,+11.00,+23.00,+26.00
-8.00,+43.00,+4.00,+2.00,+7.00,+27.00,+20.00,+17.00,-41.00,+18.00,-2.00,+1.00,-29.00,+1.00,-20.00,-17.00
+2.00,-18.00,-7.00,-3.00,+1.00,-17.00,+5.00,+7.00,-58.00,-102.00,-15.00,-9.00,-24.00,-10.00,+2.00,-15.00
-2.00,+12.00,+2.00,-5.00,-5.00,-56.00,-32.00,-22.00,+33.00,+110.00,+11.00,-18.00,+32.00,+5.00,+12.00,+9.00
-4.00,-33.00,-4.00,-2.00,+0.00,+32.00,+5.00,+27.00,+53.00,-3.00,+1.00,+16.00,-52.00,-15.00,-31.00,+22.00
-6.00,+10.00,+1.00,+3.00,+2.00,+1.00,-6.00,-17.00,+9.00,+16.00,-1.00,+8.00,-1.00,+0.00,+13.00,+10.00
+0.00,-21.00,-3.00,-9.00,-3.00,-24.00,-2.00,+12.00,-21.00,-13.00,+0.00,+8.00,+4.00,+5.00,+15.00,-3.00
+1.00,+2.00,+2.00,+5.00,+3.00,+41.00,+6.00,-12.00,+4.00,-24.00,-9.00,-10.00,+32.00,-7.00,-8.00,+6.00
+1.00,+38.00,+4.00,-7.00,-6.00,-4.00,-8.00,+1.00,-83.00,-29.00,-13.00,-16.00,-29.00,-4.00,-21.00,-75.00
+5.00,-40.00,-5.00,-10.00,-11.00,-88.00,-18.00,-7.00,+57.00,+54.00,+18.00,+11.00,+3.00,+11.00,+31.00,+85.00
-4.00,+46.00,+11.00,+23.00,+19.00,+70.00,+50.00,+3.00,+4.00,+4.00,-2.00,+2.00,+24.00,+13.00,+5.00,+26.00
-1.00,-25.00,-7.00,-10.00,-1.00,+22.00,+3.00,-5.00,+48.00,-4.00,-1.00,+3.00,-20.00,+1.00,-9.00,+3.00
-4.00,-47.00,+2.00,+4.00,+3.00,-7.00,+0.00,-11.00,-60.00,-2.00,+4.00,-2.00,+35.00,+12.00,+4.00,-1.00
-4.00,-17.00,-2.00,-6.00,-1.00,+16.00,-15.00,-55.00,-3.00,-25.00,-2.00,+9.00,-37.00,-18.00,-4.00,-14.00
+2.00,-33.00,-2.00,-6.00,-12.00,-38.00,-13.00,+7.00,-5.00,+6.00,-1.00,-15.00,+2.00,-9.00,+2.00,-4.00
-1.00,+17.00,-6.00,-9.00,+0.00,-8.00,-4.00,+12.00,-11.00,-12.00,-2.00,+17.00,+29.00,-9.00,-18.00,-25.00
-3.00,+19.00,-4.00,+2.00,-1.00,-5.00,+3.00,-9.00,-48.00,-57.00,-14.00,-17.00,+3.00,+15.00,+7.00,-10.00
-1.00,-7.00,-5.00,-1.00,+0.00,+16.00,-3.00,+11.00,+3.00,+40.00,+0.00,-14.00,+1.00,+8.00,-22.00,-26.00
-2.00,+8.00,-3.00,+0.00,+0.00,-2.00,+1.00,+9.00,-15.00,-27.00,+7.00,+13.00,-58.00,-11.00,-9.00,-10.00
+2.00,-74.00,-10.00,-10.00,-2.00,+7.00,-4.00,-8.00,+63.00,+36.00,-6.00,+3.00,+17.00,-3.00,+30.00,-12.00
-3.00,+101.00,+19.00,+4.00,+4.00,-8.00,+1.00,+13.00,-28.00,-3.00,+8.00,+8.00,+10.00,-4.00,+3.00,+6.00
-2.00,-24.00,-7.00,-3.00,-6.00,-18.00,+6.00,+13.00,-42.00,-3.00,-5.00,-6.00,+15.00,+0.00,-13.00,-7.00
+1.00,+50.00,-2.00,-4.00,+0.00,+43.00,-5.00,-12.00,+35.00,+28.00,-1.00,-8.00,+18.00,+3.00,-1.00,+8.00
-1.00,+19.00,+6.00,-3.00,-13.00,-38.00,-19.00,-5.00,+23.00,-19.00,-1.00,-3.00,-24.00,-3.00,+0.00,+9.00
+1.00,-55.00,-5.00,+12.00,+21.00,+77.00,+32.00,+20.00,+12.00,+9.00,-3.00,-7.00,+4.00,-6.00,-6.00,+1.00
-2.00,+5.00,+0.00,+3.00,+4.00,+29.00,+8.00,-6.00,+17.00,-14.00,+2.00,-4.00,+2.00,+4.00,-1.00,+2.00
-2.00,+4.00,+2.00,-2.00,-1.00,-15.00,-17.00,+11.00,+2.00,-39.00,-1.00,+3.00,+7.00,-2.00,+5.00,+4.00
+3.00,-13.00,-3.00,-3.00,+1.00,+0.00,-7.00,-18.00,-54.00,+28.00,+0.00,-3.00,-12.00,-1.00,-7.00,+0.00
+0.00,-12.00,-10.00,-15.00,-12.00,-43.00,-15.00,-6.00,+24.00,+2.00,-2.00,+0.00,+16.00,+9.00,+9.00,+34.00
+0.00,-37.00,+1.00,+10.00,+11.00,+29.00,+15.00,+9.00,+9.00,-10.00,-9.00,-8.00,-34.00,-10.00,-18.00,-17.00
-10.00,+6.00,-1.00,-10.00,-5.00,-4.00,+1.00,-2.00,-2.00,+5.00,-7.00,-2.00,+36.00,+3.00,+7.00,+0.00
+2.00,-17.00,-3.00,+2.00,+1.00,-25.00,-2.00,-3.00,-25.00,-33.00,+3.00,+1.00,-27.00,-1.00,-9.00,+0.00
+1.00,+42.00,+5.00,-6.00,-5.00,-20.00,-9.00,+2.00,+66.00,+46.00,+11.00,+6.00,+19.00,+10.00,+3.00,+9.00
+0.00,+9.00,+2.00,+4.00,+8.00,+38.00,-5.00,+4.00,-14.00,-33.00,-8.00,+6.00,-28.00,-13.00,-8.00,-30.00
+2.00,-13.00,-2.00,-6.00,-5.00,-9.00,+11.00,+5.00,+4.00,+2.00,-7.00,-4.00,+9.00,-7.00,-7.00,-4.00
-5.00,+11.00,-1.00,+2.00,-7.00,-14.00,-1.00,-6.00,+57.00,-20.00,-11.00,-9.00,-12.00,-3.00,-10.00,-18.00
+1.00,-1.00,-5.00,-6.00,-7.00,-13.00,-6.00,+2.00,-32.00,-17.00,+28.00,+15.00,+24.00,+9.00,+26.00,+46.00
-2.00,-71.00,+0.00,-9.00,-11.00,-19.00,-8.00,+2.00,+37.00,+32.00,+0.00,+0.00,+17.00,+3.00,+0.00,+8.00
+1.00,+29.00,+6.00,+10.00,+6.00,-47.00,-4.00,+3.00,+7.00,+10.00,+4.00,-2.00,-25.00,+10.00,+5.00,+3.00
-3.00,-10.00,-8.00,+0.00,+9.00,+79.00,+13.00,-2.00,-44.00,+6.00,-4.00,-1.00,-13.00,-8.00,-10.00,+0.00
+3.00,+20.00,-3.00,-2.00,-4.00,-12.00,-4.00,+4.00,-29.00,-55.00,-14.00,-8.00,-22.00,-13.00,-16.00,-52.00
+2.00,+8.00,-5.00,+0.00,+2.00,+14.00,-2.00,-2.00,+80.00,+33.00,+2.00,+5.00,+19.00,+2.00,+7.00,+35.00
+2.00,-22.00,-2.00,-5.00,-6.00,-23.00,-6.00,+0.00,-20.00,+29.00,-2.00,-14.00,-13.00,+22.00,+7.00,-1.00
-3.00,+9.00,+2.00,-5.00,+0.00,-20.00,+4.00,+9.00,-33.00,-39.00,+1.00,+8.00,+20.00,-5.00,-4.00,-4.00
+2.00,-3.00,+0.00,+1.00,-2.00,-13.00,-10.00,-7.00,+18.00,+12.00,-1.00,+0.00,-17.00,-4.00,-1.00,+9.00
+0.00,+36.00,+5.00,+8.00,+1.00,-2.00,+8.00,-19.00,-37.00,-20.00,-4.00,+4.00,+28.00,-20.00,-7.00,-13.00
-3.00,-63.00,-13.00,-7.00,-4.00,+8.00,+0.00,+0.00,-71.00,-40.00,-11.00,-5.00,-3.00,+21.00,-5.00,-16.00
+5.00,+53.00,+7.00,+6.00,+3.00,+4.00,+0.00,+1.00,-7.00,+54.00,+6.00,-2.00,+17.00,+9.00,+8.00,+15.00
-6.00,-66.00,-4.00,-5.00,-3.00,-3.00,-5.00,-9.00,+37.00,+81.00,+10.00,+4.00,-16.00,-6.00,-20.00,-71.00
-2.00,+9.00,+1.00,+3.00,-1.00,-1.00,+7.00,+12.00,+21.00,-1.00,+0.00,+0.00,-4.00,+9.00,+11.00,+29.00
+1.00,-4.00,-4.00,-3.00,-5.00,+5.00,-6.00,-5.00,-1.00,+33.00,+10.00,+13.00,+25.00,-13.00,+3.00,+23.00
-3.00,-2.00,+2.00,-1.00,+9.00,+14.00,+1.00,+3.00,+56.00,-1.00,+14.00,+6.00,-13.00,+4.00,+4.00,+18.00
+0.00,-7.00,-2.00,+6.00,-3.00,+4.00,+1.00,+1.00,-24.00,-41.00,-18.00,-13.00,+13.00,-6.00,-9.00,-20.00
+2.00,-3.00,-7.00,+0.00,+5.00,+33.00,+1.00,+10.00,-29.00,+16.00,-1.00,+1.00,-28.00,-1.00,-12.00,-27.00
-3.00,-61.00,-14.00,-7.00,-7.00,-3.00,-8.00,-7.00,-66.00,-29.00,-17.00,-7.00,+3.00,-15.00,-12.00,-26.00
+3.00,+70.00,+17.00,-2.00,-4.00,-8.00,-1.00,+4.00,+72.00,+0.00,-1.00,-9.00,-12.00,+0.00,-1.00,-17.00
-3.00,+88.00,+12.00,+7.00,+3.00,+4.00,+12.00,+7.00,-43.00,+67.00,+21.00,+15.00,+18.00,-2.00,+12.00,+33.00
-2.00,-60.00,-10.00,-10.00,-9.00,-8.00,-3.00,+2.00,-18.00,-23.00,-10.00,-33.00,+15.00,+12.00,+6.00,+18.00
-2.00,+89.00,+16.00,+7.00,+5.00,-44.00,-2.00,-1.00,+13.00,-7.00,+8.00,+22.00,+6.00,-19.00,-2.00,-8.00
-6.00,-44.00,-12.00,-3.00,-3.00,+33.00,-4.00,-4.00,-23.00,-20.00,-14.00,-7.00,-62.00,-2.00,-13.00,-38.00
+2.00,-15.00,-8.00,-9.00,-2.00,-21.00,-10.00,-2.00,-64.00,-38.00,-20.00,-5.00,+1.00,-16.00,-12.00,-33.00
+1.00,-15.00,+1.00,-3.00,-9.00,+13.00,-1.00,+1.00,-94.00,-59.00,-11.00,-2.00,+19.00,+1.00,-2.00,+6.00
+4.00,+6.00,+13.00,+4.00,+6.00,-58.00,-4.00,+11.00,+82.00,+68.00,+19.00,+6.00,+47.00,+9.00,+23.00,+68.00
+1.00,-17.00,-4.00,-3.00,-9.00,-38.00,+4.00,-2.00,-74.00,+59.00,+25.00,+6.00,-14.00,+5.00,+3.00,+5.00
-2.00,-2.00,-2.00,+3.00,+9.00,+38.00,+5.00,-9.00,-18.00,-36.00,-16.00,-9.00,-13.00,-2.00,-6.00,-6.00
+0.00,-19.00,-11.00,-6.00,-3.00,+16.00,+9.00,+1.00,+6.00,+62.00,-1.00,+1.00,-43.00,-5.00,+1.00,+22.00
+1.00,+56.00,+5.00,-4.00,-8.00,-8.00,-18.00,-5.00,+22.00,-35.00,-6.00,-14.00,-14.00,-12.00,-13.00,-43.00
-1.00,-6.00,-10.00,-6.00,-3.00,-19.00,-5.00,-4.00,-104.00,-41.00,-10.00,+4.00,+9.00,-4.00,+1.00,+8.00
+7.00,-28.00,-2.00,+11.00,+6.00,-2.00,+2.00,+0.00,+67.00,+35.00,+3.00,-3.00,-9.00,+9.00,+18.00,+61.00
-8.00,-5.00,-3.00,-14.00,-3.00,-23.00,+5.00,+21.00,+41.00,-77.00,-19.00,-9.00,-5.00,-15.00,-26.00,-72.00
+1.00,-35.00,+6.00,+8.00,+6.00,+26.00,+4.00,-15.00,-29.00,+22.00,+14.00,+2.00,-10.00,+4.00,+17.00,+43.00
+0.00,+5.00,+5.00,+5.00,+5.00,+1.00,+0.00,+2.00,-22.00,-28.00,-4.00,-21.00,+99.00,+1.00,+5.00,+10.00
-9.00,-25.00,-7.00,-12.00,-12.00,-16.00,-10.00,+7.00,-4.00,-27.00,+0.00,+9.00,-29.00,+0.00,-4.00,-20.00
+3.00,+26.00,-1.00,+4.00,-1.00,-35.00,-3.00,+31.00,-14.00,-40.00,+4.00,+16.00,-12.00,-21.00,-12.00,-27.00
-6.00,-19.00,-20.00,-13.00,-9.00,+18.00,+3.00,+25.00,+20.00,+57.00,-1.00,+0.00,-45.00,+10.00,+6.00,+19.00
+2.00,-53.00,-1.00,+2.00,+4.00,+32.00,+0.00,+3.00,-46.00,-22.00,-6.00,-8.00,+59.00,+22.00,+2.00,+2.00
+3.00,+42.00,+14.00,+7.00,+3.00,+3.00,+7.00,+1.00,+56.00,-1.00,-14.00,-19.00,-54.00,-6.00,+2.00,+25.00
-1.00,+2.00,+2.00,-5.00,-6.00,-48.00,-5.00,-11.00,+9.00,-48.00,+15.00,+23.00,+24.00,+5.00,+4.00,+3.00
+0.00,+26.00,+4.00,+2.00,+8.00,+75.00,+11.00,+5.00,+2.00,-46.00,-12.00,+0.00,+33.00,-8.00,-13.00,-46.00
+2.00,-11.00,-8.00,-5.00,-14.00,-119.00,-14.00,-11.00,+127.00,+103.00,+13.00,+9.00,-2.00,+3.00,+18.00,+81.00
-4.00,+44.00,+7.00,-2.00,+4.00,+56.00,+8.00,+16.00,-37.00,-49.00,-1.00,-9.00,-12.00,+1.00,-5.00,-27.00
-3.00,-7.00,-13.00,-7.00,-4.00,+16.00,-10.00,-19.00,+29.00,-47.00,-2.00,-6.00,-4.00,+5.00,+5.00,+32.00
+0.00,+38.00,+8.00,+3.00,+5.00,+19.00,+12.00,-10.00,+3.00,-80.00,+0.00,+4.00,-7.00,-6.00,-3.00,-5.00
+2.00,+75.00,+16.00,+5.00,+4.00,-3.00,+3.00,-3.00,-30.00,+45.00,-8.00,-9.00,-3.00,-10.00,-16.00,-41.00
-6.00,-87.00,-15.00,-17.00,-14.00,-36.00,-13.00,-5.00,-86.00,+31.00,+9.00,+6.00,-40.00,+6.00,+0.00,-15.00
+4.00,+73.00,+7.00,+4.00,+6.00,-14.00,+1.00,-1.00,-57.00,-27.00,+5.00,+0.00,-6.00,-4.00,+5.00,+2.00
-9.00,-42.00,-10.00,-7.00,-9.00,-7.00,-7.00,-5.00,+14.00,+9.00,-12.00,-22.00,+29.00,-1.00,-13.00,-24.00
-2.00,-73.00,-6.00,+6.00,+7.00,+18.00,+2.00,-2.00,+3.00,-57.00,-14.00,+4.00,-39.00,-10.00,-8.00,+0.00
-2.00,+20.00,+1.00,+3.00,+1.00,-15.00,+1.00,+2.00,-32.00,+16.00,+0.00,+7.00,+26.00,-12.00,-9.00,-26.00
+1.00,+4.00,-8.00,-7.00,-5.00,+12.00,-11.00,-7.00,-9.00,-18.00,-14.00,-13.00,+0.00,+16.00,-4.00,-32.00
+5.00,-1.00,+17.00,+14.00,+8.00,-4.00,+9.00,+5.00,+2.00,+82.00,+12.00,-2.00,-50.00,-11.00,+2.00,+27.00
-7.00,+45.00,+5.00,-8.00,-6.00,+17.00,-1.00,+7.00,-41.00,-16.00,-10.00,-3.00,-36.00,-9.00,-17.00,-27.00
-2.00,-61.00,-7.00,+3.00,+1.00,-10.00,+2.00,-5.00,+68.00,+20.00,-14.00,-2.00,+37.00,+12.00,-4.00,-3.00
-6.00,-1.00,-3.00,-2.00,+5.00,+56.00,+8.00,+0.00,-41.00,-21.00,+7.00,+6.00,-7.00,+8.00,+4.00,-12.00
+1.00,-20.00,-3.00,-5.00,+2.00,-55.00,-11.00,-6.00,-11.00,-20.00,-1.00,+3.00,+40.00,+5.00,+15.00,+30.00
-9.00,-3.00,-7.00,-10.00,-10.00,+16.00,-12.00,+1.00,-31.00,-13.00,+8.00,+1.00,-48.00,-15.00,+29.00,-8.00
+5.00,-62.00,-2.00,+7.00,+14.00,+19.00,+1.00,-11.00,-49.00,+76.00,-10.00,-32.00,-7.00,-3.00,-38.00,-15.00
-6.00,+87.00,+22.00,+10.00,+6.00,+16.00,+8.00,+2.00,-48.00,+45.00,+27.00,+40.00,-10.00,+21.00,+19.00,+69.00
-9.00,+19.00,-13.00,-21.00,-10.00,-11.00,-9.00,-7.00,-5.00,-60.00,-25.00,-9.00,+1.00,-24.00,-27.00,-62.00
+4.00,-59.00,-6.00,+2.00,+9.00,+29.00,+14.00,-1.00,-102.00,-34.00,-11.00,+6.00,+37.00,+6.00,+17.00,-38.00
-9.00,+7.00,+3.00,-4.00,-11.00,-42.00,-14.00,-7.00,+3.00,+45.00,+44.00,+20.00,-16.00,+9.00,+16.00,+3.00
+4.00,-69.00,-17.00,+3.00,+1.00,-9.00,+2.00,+4.00,+40.00,-31.00,+7.00,-8.00,+1.00,-9.00,-1.00,+1.00
+9.00,+30.00,+22.00,+13.00,+2.00,+23.00,+3.00,-7.00,+0.00,+115.00,-10.00,-13.00,+26.00,-21.00,-15.00,-9.00
-3.00,-52.00,-8.00,-4.00,+1.00,-24.00,+0.00,-18.00,+50.00,+24.00,+10.00,+15.00,-43.00,+11.00,-13.00,-12.00
+0.00,+127.00,+11.00,+6.00,-1.00,-22.00,-2.00,+11.00,+98.00,-112.00,-48.00,-22.00,+37.00,+18.00,-1.00,-12.00
+5.00,-24.00,+8.00,+2.00,+5.00,+15.00,+6.00,+5.00,+3.00,+126.00,+22.00,+5.00,+29.00,+11.00,+16.00,+84.00
-7.00,-26.00,-20.00,-14.00,-6.00,-11.00,-8.00,+2.00,+74.00,-66.00,+30.00,+26.00,-11.00,+20.00,+29.00,+112.00
-2.00,-30.00,-6.00,-1.00,-5.00,+7.00,-6.00,+0.00,+56.00,-2.00,-11.00,-28.00,+0.00,-5.00,-13.00,+65.00
+6.00,-34.00,+1.00,+3.00,-2.00,+13.00,+13.00,-14.00,-8.00,+27.00,+13.00,+27.00,+8.00,+4.00,+14.00,+54.00
+1.00,+56.00,+3.00,-9.00,-9.00,-15.00,-54.00,-8.00,+54.00,-19.00,-17.00,-14.00,-53.00,-19.00,-20.00,-64.00
+1.00,-79.00,-12.00,+2.00,+1.00,-9.00,+14.00,+6.00,-127.00,-117.00,-27.00,-16.00,+23.00,-1.00,+3.00,-35.00
-5.00,+53.00,+4.00,-3.00,-3.00,+21.00,+3.00,+8.00,+55.00,-5.00,-28.00,-18.00,+9.00,-13.00,-27.00,-46.00
+4.00,-92.00,-14.00,+2.00,-5.00,+17.00,-1.00,-5.00,-1.00,-35.00,-1.00,-2.00,+80.00,-13.00,-4.00,-12.00
-2.00,-51.00,-15.00,+5.00,-3.00,-22.00,+2.00,-11.00,-66.00,-86.00,-21.00,-19.00,-7.00,-6.00,-1.00,-41.00
-5.00,+49.00,+19.00,+4.00,+3.00,+27.00,+4.00,+5.00,+44.00,+41.00,+22.00,+10.00,-35.00,+10.00,-6.00,-42.00
+1.00,+103.00,+12.00,-7.00,-2.00,-12.00,+28.00,+7.00,+0.00,-73.00,-31.00,+1.00,-2.00,-18.00,-17.00,-17.00
+0.00,-91.00,-23.00,-19.00,-14.00,-46.00,-23.00,-3.00,-61.00,+41.00,+0.00,+8.00,-8.00,-10.00,-4.00,-43.00
-5.00,+74.00,+10.00,+23.00,+20.00,+65.00,+20.00,+15.00,+66.00,+109.00,+14.00,+0.00,+29.00,-1.00,+12.00,+49.00
+1.00,-99.00,-2.00,+2.00,-6.00,-18.00,-15.00,-9.00,-29.00,+62.00,-19.00,-20.00,-21.00,+5.00,-3.00,-13.00
+7.00,+73.00,-6.00,+12.00,-5.00,+35.00,-4.00,-6.00,-56.00,-80.00,+4.00,-5.00,-5.00,-6.00,-6.00,-27.00
+6.00,+26.00,+14.00,+14.00,+4.00,-91.00,-2.00,+9.00,+38.00,+15.00,+4.00,-3.00,-19.00,-7.00,+5.00,+13.00
-9.00,-13.00,+16.00,-2.00,+5.00,+55.00,+21.00,+5.00,-52.00,-42.00,-40.00,-23.00,-1.00,-15.00,-32.00,-60.00
+4.00,-68.00,-28.00,-21.00,-14.00,-16.00,-2.00,-20.00,+57.00,+6.00,+22.00,+14.00,-14.00,+6.00,-2.00,+8.00
-5.00,+70.00,+15.00,+0.00,+3.00,-13.00,-8.00,-8.00,-55.00,+67.00,-3.00,+4.00,+13.00,+6.00,+9.00,+6.00
-5.00,-113.00,-62.00,-38.00,-28.00,-31.00,-39.00,-29.00,-62.00,-128.00,-39.00,-21.00,-16.00,-8.00,-5.00,-16.00
+17.00,+39.00,+77.00,+62.00,+28.00,-7.00,+33.00,+72.00,-62.00,-38.00,+31.00,+8.00,+11.00,+3.00,+12.00,+22.00
+0.00,+9.00,+6.00,+15.00,+9.00,+22.00,+16.00,-21.00,+41.00,+46.00,-18.00,-12.00,-36.00,-18.00,-35.00,-94.00
-2.00,-128.00,-44.00,-13.00,-7.00,-21.00,-13.00,-21.00,-10.00,+70.00,+60.00,+36.00,+12.00,+27.00,+43.00,+87.00
-5.00,+127.00,+43.00,+37.00,+13.00,+39.00,+9.00,+11.00,-25.00,-87.00,+5.00,+5.00,+9.00,+5.00,+9.00,+43.00
-8.00,-118.00,-23.00,-6.00,-7.00,-28.00,+2.00,-29.00,+108.00,+29.00,-10.00,-8.00,+8.00,-10.00,-13.00,-49.00
+4.00,+26.00,-32.00,-8.00,-7.00,+1.00,-14.00,+4.00,-93.00,-21.00,-5.00,+12.00,+2.00,+2.00,+6.00,-15.00
-4.00,-107.00,-23.00,-10.00,-5.00,+8.00,-5.00,-5.00,+6.00,-67.00,+4.00,-4.00,-5.00,-1.00,-6.00,-22.00
-2.00,+91.00,+60.00,+95.00,+5.00,+9.00,+25.00,+38.00,+122.00,+105.00,+28.00,+10.00,-1.00,-1.00,+12.00,+34.00
-10.00,-97.00,-24.00,+13.00,-15.00,-24.00,-21.00,-25.00,-94.00,-48.00,+33.00,+24.00,+10.00,+13.00,+19.00,+28.00
+0.00,+127.00,+32.00,+23.00,+6.00,-70.00,+3.00,+22.00,-48.00,-103.00,-13.00,-7.00,-3.00,-10.00,-8.00,+16.00
-7.00,-108.00,-28.00,-28.00,-1.00,+47.00,-10.00,-38.00,+84.00,+57.00,+21.00,+9.00,-1.00,+6.00,+9.00,-29.00
-1.00,+33.00,-12.00,-61.00,-1.00,+22.00,+1.00,+15.00,-34.00,-16.00,+0.00,-1.00,-6.00,-10.00,-19.00,-42.00
+7.00,-6.00,-8.00,-20.00,+1.00,-1.00,+8.00,-16.00,+72.00,-47.00,-30.00,-14.00,-11.00,-8.00,-9.00,+5.00
-13.00,-110.00,-52.00,-30.00,-14.00,-7.00,-17.00,-27.00,+34.00,+53.00,+2.00,+0.00,-3.00,+6.00,+7.00,+19.00
+8.00,+127.00,+112.00,+22.00,+23.00,+0.00,+29.00,+52.00,-71.00,-63.00,+2.00,+2.00,+14.00,+3.00,+5.00,+31.00
+6.00,-46.00,-42.00,-39.00,-4.00,+17.00,-8.00,-11.00,-30.00,-49.00,+12.00,+0.00,-12.00,-1.00,+11.00,+49.00
-5.00,-3.00,+5.00,-34.00,+2.00,-14.00,-6.00,-13.00,-90.00,+125.00,+21.00,+14.00,+4.00,+8.00,+7.00,-28.00
-4.00,+43.00,+11.00,-26.00,+1.00,+18.00,+6.00,+51.00,-8.00,-46.00,+20.00,+3.00,+5.00,+1.00,+7.00,+30.00
+7.00,+1.00,-17.00,+0.00,-5.00,-14.00,+1.00,-6.00,+127.00,+72.00,+20.00,+6.00,+4.00,+6.00,+15.00,+72.00
+1.00,-19.00,-4.00,-10.00,+1.00,-2.00,+3.00,+4.00,-61.00,-95.00,-43.00,-17.00,-9.00,-8.00,-5.00,-23.00
-17.00,-27.00,-7.00,-8.00,-8.00,-15.00,-9.00,-33.00,-87.00,-82.00,-24.00,-28.00,-23.00,-20.00,-41.00,-126.00
+15.00,+77.00,+31.00,+36.00,+8.00,+18.00,+1.00,+7.00,-128.00,+73.00,+45.00,+25.00,+7.00,+8.00,+19.00,+15.00
-16.00,-108.00,-10.00,+24.00,+12.00,+11.00,+4.00,+10.00,+18.00,-66.00,-25.00,-12.00,-3.00,-5.00,-20.00,-49.00
-12.00,+5.00,+7.00,+1.00,-8.00,-14.00,-9.00,-17.00,+0.00,+42.00,+8.00,+13.00,+2.00,+11.00,+7.00,+5.00
-2.00,+108.00,+28.00,-13.00,-8.00,-15.00,-3.00,+24.00,-80.00,+45.00,+7.00,-6.00,+1.00,-3.00,+2.00,+10.00
+2.00,-109.00,-39.00,-14.00,-6.00,+21.00,-5.00,-18.00,+21.00,+116.00,-69.00,-39.00,-23.00,-21.00,-31.00,-51.00
-5.00,+61.00,+5.00,+9.00,-3.00,-19.00,-2.00,+11.00,-96.00,-55.00,+35.00,+18.00,+7.00,+4.00,+5.00,-13.00
-8.00,-128.00,-67.00,-10.00,-5.00,+13.00,-8.00,-21.00,+14.00,-11.00,-20.00,-21.00,-16.00,-12.00,-16.00,-35.00
-2.00,+50.00,+86.00,+37.00,+25.00,+18.00,+30.00,+19.00,+127.00,+29.00,-8.00,-3.00,-9.00,-13.00,-30.00,-23.00
-6.00,-128.00,-31.00,+36.00,-10.00,+5.00,-9.00,-22.00,+42.00,-17.00,+6.00,+9.00,+10.00,-6.00,+8.00,+31.00
-5.00,+77.00,+51.00,+15.00,+4.00,-16.00,-10.00,-59.00,-13.00,-106.00,-43.00,-14.00,-1.00,+17.00,-21.00,-34.00
+6.00,-44.00,-27.00,-16.00,-1.00,+7.00,-4.00,+9.00,+35.00,-56.00,-32.00,-14.00,-1.00,+1.00,+15.00,+90.00
-2.00,-128.00,-47.00,-43.00,-15.00,-11.00,-19.00,-27.00,-58.00,+120.00,+28.00,+11.00,+5.00,+6.00,+13.00,+48.00
-8.00,-56.00,-7.00,-22.00,-2.00,-4.00,-4.00,-41.00,-80.00,-126.00,+2.00,-1.00,-3.00,-2.00,-8.00,-56.00
-3.00,+53.00,+11.00,-17.00,-4.00,-5.00,+3.00,+32.00,-14.00,+71.00,-79.00,-38.00,-28.00,-38.00,-55.00,-100.00
+12.00,+37.00,+17.00,+9.00,+18.00,+23.00,+13.00,-24.00,+17.00,-50.00,+30.00,+38.00,+23.00,+21.00,+37.00,+47.00
-12.00,-110.00,-37.00,-8.00,-6.00,-15.00,-20.00,-37.00,+127.00,+66.00,+11.00,-3.00,-5.00,-1.00,+7.00,+65.00
-13.00,+0.00,+42.00,-9.00,+8.00,+11.00,+6.00,+6.00,+3.00,-58.00,-5.00,-8.00,+0.00,+3.00,+5.00,+24.00
-3.00,-90.00,-26.00,-1.00,-4.00,-1.00,+7.00,+11.00,+20.00,+44.00,-49.00,-24.00,-15.00,-18.00,-23.00,-56.00
-8.00,-114.00,-20.00,-16.00,-12.00,-9.00,-11.00,-17.00,-30.00,+52.00,+69.00,+24.00,+9.00,+13.00,+17.00,+16.00
+12.00,-15.00,-57.00,-14.00,-22.00,-33.00,-17.00,+29.00,+50.00,+29.00,-5.00,+9.00,+7.00,+0.00,-3.00,+62.00
-8.00,-99.00,-2.00,-3.00,+7.00,+18.00,-1.00,-17.00,+32.00,-35.00,+23.00,+10.00,+7.00,+9.00,+18.00,-9.00
-8.00,-102.00,-40.00,-21.00,-17.00,-1.00,-14.00,+0.00,+37.00,-59.00,-61.00,-32.00,-19.00,-22.00,-36.00,-105.00
+6.00,+96.00,+48.00,+2.00,+13.00,+5.00,+8.00,+21.00,-105.00,+97.00,+77.00,+19.00,+5.00,+4.00,+12.00,-20.00
+13.00,+48.00,-6.00,-6.00,-4.00,-3.00,-2.00,-2.00,-53.00,+42.00,+8.00,+15.00,+14.00,+15.00,+28.00,+16.00
+18.00,-16.00,-72.00,-36.00,-18.00,-20.00,-20.00,+1.00,+121.00,-11.00,-33.00,-29.00,-17.00,-13.00,-23.00,-10.00
-8.00,+62.00,+51.00,+11.00,+14.00,+4.00,+11.00,-5.00,-26.00,+78.00,-10.00,-6.00,-2.00,-3.00,-1.00,+26.00
+1.00,-61.00,-30.00,-18.00,-18.00,-9.00,-16.00,-6.00,+29.00,-36.00,-47.00,-15.00,-5.00,-7.00,-5.00,+21.00
+10.00,-39.00,-44.00,-11.00,-2.00,+3.00,-5.00,-16.00,-68.00,-61.00,+7.00,+3.00,+1.00,+1.00,-2.00,-28.00
-24.00,-2.00,+25.00,+3.00,+5.00,+6.00,+6.00,-33.00,+35.00,+11.00,-2.00,+0.00,+2.00,+2.00,+1.00,+22.00
+6.00,+60.00,-25.00,-19.00,-6.00,-14.00,-7.00,+22.00,+28.00,+64.00,+72.00,+32.00,+19.00,+19.00,+48.00,+127.00
-1.00,-84.00,+79.00,+34.00,+12.00,+11.00,+12.00,-6.00,+23.00,+88.00,-63.00,-17.00,-9.00,-10.00,-18.00,-17.00
+11.00,+74.00,+31.00,+20.00,+10.00,+8.00,+9.00,-5.00,+40.00,-3.00,-58.00,-27.00,-14.00,-12.00,-26.00,-77.00
-3.00,-69.00,-8.00,+6.00,-10.00,-9.00,-5.00,+14.00,-37.00,-41.00,+81.00,+25.00,+11.00,+13.00,+25.00,+49.00
+12.00,-113.00,-123.00,-34.00,-33.00,-37.00,-37.00,+33.00,+20.00,-53.00,+19.00,+14.00,+5.00,+4.00,+4.00,-12.00
-8.00,+84.00,+87.00,+41.00,+27.00,+28.00,+34.00,+10.00,-88.00,+60.00,+3.00,-10.00,-10.00,-12.00,-32.00,-102.00
+0.00,-85.00,-8.00,+5.00,-2.00,+0.00,-13.00,-20.00,+34.00,-67.00,+18.00,+4.00,+1.00,+6.00,+21.00,+67.00
+6.00,-40.00,-6.00,+12.00,+3.00,+4.00,+11.00,-3.00,+41.00,-37.00,-64.00,-17.00,-11.00,-14.00,-30.00,+12.00
-2.00,-30.00,-8.00,-5.00,-4.00,-11.00,-10.00,-5.00,+54.00,+67.00,+52.00,+13.00,+4.00,+8.00,+11.00,+39.00
+5.00,+20.00,-16.00,+16.00,+15.00,+15.00,+17.00,+16.00,+39.00,-28.00,-21.00,-20.00,-17.00,-32.00,-25.00,-68.00
-26.00,-37.00,-11.00,-5.00,+2.00,+3.00,+1.00,-14.00,-64.00,+43.00,-35.00,-12.00,+2.00,+22.00,+0.00,-16.00
+9.00,+127.00,+40.00,+0.00,+8.00,+6.00,+6.00,-10.00,-10.00,+73.00,+21.00,+18.00,+17.00,+14.00,+23.00,+53.00
+9.00,-57.00,-89.00,-42.00,-21.00,-25.00,-24.00,-4.00,-35.00,-23.00,+7.00,+2.00,-7.00,-10.00,+2.00,+31.00
-14.00,+107.00,+7.00,+1.00,+2.00,+3.00,-1.00,-15.00,+80.00,+14.00,-45.00,-26.00,-17.00,-24.00,-41.00,-70.00
-8.00,-34.00,+12.00,-5.00,+0.00,+10.00,+8.00,+18.00,+69.00,-43.00,+49.00,+21.00,+15.00,+9.00,+14.00,+37.00
+4.00,-103.00,-35.00,-22.00,-14.00,-13.00,-17.00,-6.00,-92.00,+12.00,+16.00,+23.00,+6.00,+7.00,+3.00,+32.00
+11.00,+114.00,+7.00,+5.00,+8.00,+13.00,+21.00,+25.00,-25.00,+31.00,-49.00,-27.00,-17.00,-35.00,-33.00,-11.00
+1.00,-112.00,+16.00,-4.00,+10.00,+6.00,+4.00,-12.00,+16.00,-28.00,+26.00,+2.00,-6.00,-13.00,+20.00,-31.00
-4.00,+73.00,+11.00,-3.00,-1.00,-2.00,+3.00,+21.00,-83.00,+2.00,-11.00,-5.00,-12.00,-20.00,-19.00,-20.00
-4.00,-51.00,-18.00,-15.00,-5.00,-5.00,-4.00,+14.00,+4.00,+10.00,-28.00,-9.00,-1.00,+13.00,+28.00,+10.00
+20.00,+31.00,+61.00,+49.00,+41.00,+39.00,+37.00,+8.00,-51.00,+85.00,+50.00,+24.00,+17.00,+29.00,+37.00,+107.00
+3.00,-128.00,-44.00,-21.00,-12.00,-10.00,-13.00,-12.00,-89.00,-35.00,-23.00,-12.00,-5.00,-18.00,-13.00,-16.00
-2.00,-90.00,-116.00,-72.00,-45.00,-30.00,-28.00,-3.00,-15.00,-16.00,-1.00,-2.00,-1.00,+4.00,+11.00,-26.00
-22.00,+43.00,+67.00,+50.00,+20.00,+14.00,+21.00,+12.00,+13.00,+12.00,-20.00,-8.00,-19.00,-33.00,-18.00,-61.00
-27.00,-104.00,+32.00,+2.00,-1.00,-2.00,-1.00,-13.00,+19.00,-111.00,-14.00,-9.00,-11.00,-26.00,+8.00,+10.00
+15.00,+114.00,+22.00,+1.00,-5.00,-6.00,-8.00,+27.00,+1.00,-74.00,+5.00,+23.00,+33.00,+60.00,+31.00,+95.00
+3.00,-76.00,-54.00,-6.00,-5.00,-3.00,-3.00,-34.00,+75.00,-120.00,-23.00,-30.00,-21.00,-30.00,-37.00,-79.00
-3.00,-39.00,-37.00,-26.00,-11.00,-6.00,-7.00,+49.00,+42.00,+127.00,-18.00,+5.00,+14.00,+9.00,+6.00,+5.00
-7.00,+7.00,+49.00,+25.00,+12.00,+10.00,+7.00,-11.00,+19.00,-51.00,+46.00,+32.00,+15.00,+20.00,+20.00,+3.00
-9.00,+16.00,-49.00,-30.00,-28.00,-24.00,-25.00,+10.00,-6.00,-92.00,+42.00,+7.00,-1.00,+3.00,-6.00,-8.00
+14.00,+122.00,+45.00,+17.00,+7.00,-1.00,+1.00,-9.00,+22.00,-43.00,-28.00,-9.00,-8.00,-12.00,-12.00,-14.00
+14.00,+80.00,+28.00,+5.00,+13.00,+18.00,+15.00,-9.00,+5.00,-50.00,-6.00,+1.00,+5.00,+1.00,-7.00,-37.00
-1.00,-128.00,-40.00,-5.00,-7.00,-7.00,-7.00,-3.00,-55.00,-10.00,+8.00,+7.00,+8.00,+19.00,+8.00,-26.00
+9.00,-1.00,-53.00,-54.00,-34.00,-31.00,-34.00,+3.00,+15.00,+31.00,-15.00,-5.00,-5.00,-10.00,-7.00,+2.00
-8.00,-78.00,+2.00,+40.00,+29.00,+25.00,+35.00,+77.00,-128.00,+55.00,+20.00,+15.00,+8.00,+8.00,+26.00,+16.00
+2.00,+99.00,+83.00,+31.00,+25.00,+20.00,+9.00,+36.00,+52.00,-78.00,+21.00,+6.00,+5.00,+8.00,+10.00,+40.00
+20.00,+58.00,-23.00,-28.00,-12.00,+4.00,+29.00,+111.00,-60.00,+39.00,-1.00,+1.00,+3.00,-2.00,-6.00,-40.00
-9.00,-78.00,-64.00,-6.00,-16.00,-13.00,-7.00,-18.00,+43.00,+85.00,+6.00,+3.00,-1.00,+0.00,+5.00,+9.00
+11.00,+73.00,+92.00,+27.00,+11.00,+7.00,+9.00,+53.00,+64.00,-43.00,+1.00,-16.00,-14.00,-10.00,-11.00,+36.00
+9.00,+0.00,+24.00,-4.00,-2.00,-2.00,+27.00,+29.00,+39.00,+92.00,-92.00,-21.00,+0.00,+6.00,+20.00,+63.00
-7.00,-128.00,-27.00,+7.00,+4.00,+3.00,-18.00,-69.00,+6.00,-69.00,+65.00,+28.00,+15.00,+14.00,+22.00,+42.00
-12.00,-128.00,-53.00,-9.00,-6.00,-5.00,-5.00,-9.00,+51.00,+50.00,-5.00,+7.00,+5.00,+4.00,+8.00,+13.00
+1.00,+68.00,+75.00,+24.00,+21.00,+19.00,+17.00,+28.00,+89.00,+10.00,-87.00,-46.00,-25.00,-21.00,-41.00,-79.00
-6.00,-111.00,-23.00,-11.00,-15.00,-21.00,-29.00,-59.00,+23.00,-128.00,+68.00,+11.00,+1.00,-3.00,+3.00,-52.00
-4.00,-8.00,+27.00,+12.00,+8.00,+9.00,-4.00,-17.00,+82.00,+46.00,-1.00,+2.00,+6.00,+6.00,+7.00,+47.00
+2.00,+30.00,+20.00,+12.00,+22.00,+24.00,+21.00,-6.00,+29.00,-61.00,-12.00,-7.00,-6.00,+3.00,+6.00,+21.00
-7.00,-12.00,-27.00,-23.00,-30.00,-31.00,-29.00,-40.00,-23.00,-98.00,+5.00,-3.00,-6.00,-11.00,-8.00,-4.00
+16.00,+64.00,-54.00,-28.00,-14.00,-6.00,-7.00,-5.00,-100.00,+27.00,+58.00,+21.00,+11.00,+8.00,+17.00,+25.00
-1.00,+71.00,+76.00,+64.00,+42.00,+25.00,+37.00,+7.00,+2.00,-45.00,-24.00,-11.00,-4.00,+0.00,-19.00,-59.00
-8.00,+5.00,+10.00,+18.00,+10.00,+8.00,+15.00,+7.00,-66.00,-115.00,-18.00,-17.00,-16.00,-13.00,-34.00,-100.00
-5.00,-126.00,-83.00,-17.00,-9.00,-6.00,-12.00,-9.00,-18.00,-29.00,+21.00,+21.00,+15.00,+26.00,+52.00,+100.00
-2.00,+31.00,+16.00,+0.00,-2.00,+0.00,-1.00,+14.00,+31.00,-14.00,-7.00,-4.00,+3.00,-3.00,-17.00,-42.00
+6.00,-48.00,-22.00,-11.00,-11.00,-13.00,-9.00,-18.00,+43.00,-65.00,-9.00,-15.00,-8.00,-8.00,-4.00,-52.00
-1.00,-93.00,-12.00,-5.00,-3.00,+0.00,-16.00,-26.00,-67.00,-49.00,+25.00,+10.00,+6.00,+2.00,+8.00,+15.00
+11.00,+103.00,+79.00,+25.00,+22.00,+16.00,+25.00,+22.00,-67.00,-34.00,-69.00,-34.00,-17.00,-16.00,-30.00,-63.00
+3.00,+4.00,-12.00,+3.00,+14.00,+15.00,+15.00,+49.00,-56.00,-58.00,+37.00,+12.00,+0.00,-2.00,-18.00,-66.00
+1.00,-9.00,+1.00,-13.00,-12.00,-10.00,-15.00,-53.00,-21.00,-37.00,+11.00,-1.00,-5.00,-5.00,-7.00,+39.00
+0.00,-1.00,+40.00,+16.00,+8.00,+4.00,+10.00,-29.00,+16.00,+11.00,-3.00,-10.00,-6.00,-3.00,-1.00,-2.00
-11.00,-108.00,-95.00,-38.00,-27.00,-22.00,-21.00,-14.00,+55.00,+31.00,+27.00,+11.00,+9.00,+7.00,+9.00,+7.00
+13.00,-55.00,+50.00,+33.00,+17.00,+16.00,+16.00,-5.00,-71.00,+20.00,+0.00,-10.00,-8.00,-2.00,+6.00,+18.00
-23.00,-57.00,+31.00,+20.00,+16.00,+18.00,+9.00,+17.00,-3.00,+9.00,-29.00,-10.00,-5.00,-11.00,-2.00,+1.00
-9.00,-121.00,-9.00,-2.00,-1.00,-8.00,-4.00,-1.00,-2.00,-52.00,-6.00,+0.00,+1.00,+1.00,-2.00,-8.00
+11.00,-128.00,-91.00,-55.00,-28.00,-24.00,-44.00,-53.00,+60.00,+125.00,+61.00,+33.00,+17.00,+15.00,+32.00,+44.00
-15.00,+48.00,+77.00,+23.00,+22.00,+17.00,+5.00,-14.00,+21.00,+45.00,-33.00,-9.00,-8.00,-3.00,-11.00,-5.00
-2.00,-85.00,-58.00,-15.00,-13.00,+1.00,+8.00,-12.00,-55.00,-33.00,+13.00,+9.00,+2.00,-2.00,-2.00,-22.00
+4.00,+26.00,-18.00,+9.00,+1.00,-6.00,+1.00,-5.00,+33.00,+86.00,-20.00,-12.00,-6.00,-5.00,-1.00,+23.00
-13.00,-89.00,-74.00,-24.00,-24.00,-27.00,-30.00,-48.00,-106.00,-109.00,+32.00,+15.00,+6.00,-2.00,-13.00,-62.00
-11.00,+80.00,+67.00,+31.00,+18.00,+18.00,+24.00,+35.00,+47.00,+103.00,-13.00,-7.00,-6.00,-5.00,+12.00,+54.00
-5.00,-128.00,-19.00,-14.00,-13.00,-21.00,-26.00,-19.00,-6.00,-58.00,+19.00,-2.00,-1.00,+0.00,-5.00,-7.00
-6.00,-56.00,-20.00,-20.00,-20.00,-13.00,-22.00,+9.00,+14.00,+26.00,-26.00,-9.00,-5.00,-5.00,-8.00,+2.00
-9.00,+89.00,+36.00,+17.00,+11.00,+14.00,+21.00,+18.00,+48.00,+111.00,-30.00,-10.00,-4.00,-2.00,-8.00,-12.00
+3.00,+38.00,-21.00,-12.00,-6.00,-8.00,-11.00,-18.00,-22.00,-57.00,-2.00,-3.00,+1.00,+4.00,-2.00,-10.00
-3.00,-5.00,-40.00,-15.00,-12.00,-14.00,-14.00,-33.00,+26.00,-48.00,-40.00,-20.00,-16.00,-14.00,-22.00,-36.00
-11.00,+83.00,+95.00,+16.00,+10.00,+8.00,+9.00,+33.00,-5.00,+77.00,+22.00,+11.00,+6.00,+9.00,+9.00,+16.00
+3.00,-27.00,+19.00,+1.00,-3.00,-11.00,-7.00,-11.00,+86.00,+109.00,+17.00,+11.00,+9.00,+10.00,+30.00,+92.00
-7.00,-69.00,-61.00,-17.00,-15.00,-10.00,-10.00,-2.00,-61.00,-62.00,+3.00,-4.00,-3.00,-6.00,-12.00,-3.00
-9.00,-19.00,-7.00,-14.00,-9.00,-12.00,-16.00,-3.00,+61.00,+53.00,-14.00,-4.00,+1.00,+5.00,+18.00,+11.00
-6.00,-87.00,-44.00,-7.00,-11.00,-13.00,-18.00,-91.00,+29.00,+18.00,+3.00,+4.00,+0.00,-1.00,+6.00,+23.00
+9.00,+81.00,+33.00,+22.00,+23.00,+22.00,+27.00,+57.00,-35.00,-13.00,-24.00,-5.00,-8.00,-21.00,-12.00,-27.00
+13.00,+0.00,+1.00,-5.00,-7.00,-8.00,-4.00,-11.00,-33.00,-67.00,+12.00,+4.00,+9.00,+19.00,+4.00,-30.00
+9.00,-34.00,+9.00,-3.00,-1.00,-1.00,-8.00,-7.00,-66.00,-77.00,-9.00,-9.00,-5.00,-6.00,-11.00,+2.00
-4.00,-1.00,-18.00,-12.00,-13.00,-7.00,-4.00,+41.00,-3.00,-88.00,+5.00,+1.00,-3.00,-2.00,-5.00,-12.00
+5.00,+39.00,+62.00,+40.00,+26.00,+21.00,+17.00,-2.00,-57.00,-19.00,-59.00,-16.00,-7.00,-3.00,+15.00,+50.00
+3.00,-39.00,-61.00,-15.00,-9.00,-13.00,-9.00,-11.00,+94.00,+118.00,+20.00,+8.00,+2.00,+1.00,+12.00,+53.00
+2.00,+114.00,+20.00,+9.00,+10.00,+23.00,+3.00,+12.00,-38.00,+33.00,-2.00,-5.00,-4.00,-3.00,-7.00,-21.00
+14.00,-80.00,-37.00,-5.00,+1.00,-2.00,+2.00,+12.00,+9.00,-39.00,-30.00,-9.00,-5.00,-4.00,-9.00,-16.00
-7.00,+59.00,+40.00,-2.00,-2.00,-4.00,+6.00,+38.00,-14.00,+78.00,+19.00,+4.00,+6.00,+13.00,+16.00,+51.00
+10.00,-107.00,+7.00,+20.00,+17.00,+13.00,+12.00,-5.00,+7.00,-44.00,-6.00,-8.00,-9.00,-12.00,-17.00,-38.00
-7.00,+44.00,-3.00,-8.00,-5.00,-5.00,-3.00,-3.00,-25.00,+16.00,-12.00,-3.00,+1.00,+6.00,+4.00,+9.00
-5.00,-45.00,-3.00,+4.00,+0.00,-2.00,-2.00,-5.00,-23.00,-8.00,-5.00,-10.00,-9.00,-8.00,-6.00,+0.00
+7.00,-88.00,-39.00,-11.00,-9.00,-3.00,-9.00,-18.00,+53.00,-46.00,+29.00,+19.00,+12.00,+6.00,+0.00,-40.00
-23.00,-21.00,+1.00,+3.00,-6.00,-4.00,+1.00,+26.00,-31.00,-14.00,-7.00,-6.00,-4.00,-8.00,-10.00,-13.00
-1.00,-74.00,+15.00,+6.00,-5.00,-16.00,-8.00,-6.00,+7.00,+4.00,+27.00,+13.00,+6.00,+5.00,+12.00,+30.00
+15.00,+127.00,+39.00,+14.00,+12.00,+13.00,+13.00,+29.00,-21.00,-11.00,-26.00,-17.00,-10.00,-11.00,-18.00,-33.00
+0.00,-128.00,-41.00,+1.00,+8.00,+9.00,+8.00,-24.00,+18.00,-128.00,-13.00,-1.00,-5.00,-3.00,+8.00,+21.00
-5.00,-35.00,-20.00,-10.00,-6.00,-4.00,-6.00,-6.00,-32.00,-104.00,+21.00,+15.00,+9.00,+19.00,+8.00,+7.00
+6.00,+6.00,-7.00,-5.00,-5.00,-7.00,-5.00,-30.00,-7.00,+28.00,+4.00,-2.00,-1.00,-7.00,-16.00,-43.00
-2.00,+27.00,-11.00,-10.00,-1.00,+1.00,+3.00,+9.00,-63.00,-17.00,-9.00,+0.00,+2.00,+0.00,-4.00,-14.00
-1.00,-65.00,-30.00,-11.00,-5.00,-4.00,-8.00,+28.00,-14.00,-9.00,+16.00,-2.00,-1.00,+4.00,-4.00,-7.00
+5.00,+91.00,+46.00,+3.00,-2.00,-4.00,-2.00,-7.00,-87.00,-46.00,-20.00,-13.00,-11.00,-21.00,-24.00,-70.00
+5.00,-96.00,-1.00,-6.00,-1.00,-2.00,+3.00,+9.00,+89.00,-6.00,+4.00,+12.00,+12.00,+16.00,+31.00,+72.00
-11.00,-88.00,-38.00,-16.00,-9.00,+9.00,-1.00,+1.00,-30.00,-37.00,+21.00,+10.00,+7.00,+8.00,+13.00,+24.00
+9.00,+64.00,+81.00,+44.00,+23.00,+21.00,+19.00,-7.00,-7.00,-33.00,+12.00,+2.00,-2.00,-6.00,-5.00,-3.00
-8.00,-128.00,-43.00,-10.00,-5.00,+3.00,-4.00,-19.00,-16.00,-32.00,-37.00,-20.00,-12.00,-12.00,-5.00,-41.00
+2.00,-57.00,-30.00,-6.00,-3.00,-7.00,-5.00,+9.00,-27.00,+4.00,-6.00,-2.00,-4.00,-2.00,-6.00,-43.00
+5.00,+11.00,-39.00,-14.00,-11.00,-13.00,-12.00,-7.00,+5.00,+29.00,+12.00,+7.00,+10.00,-11.00,+5.00,+19.00
+13.00,-17.00,+54.00,+25.00,+14.00,+10.00,+20.00,+7.00,-17.00,-78.00,-21.00,-5.00,-9.00,+22.00,-6.00,-12.00
-3.00,-90.00,-44.00,-20.00,-14.00,-12.00,-16.00,-16.00,+29.00,+83.00,+5.00,-1.00,+0.00,+0.00,+7.00,+90.00
+2.00,+15.00,+20.00,+8.00,+3.00,+4.00,+7.00,+10.00,-14.00,-29.00,-8.00,-5.00,-1.00,+3.00,+3.00,-17.00
-9.00,-47.00,-30.00,-11.00,-3.00,-4.00,-5.00,-36.00,-28.00,-22.00,+20.00,+8.00,+3.00,+0.00,+6.00,+15.00
-13.00,+31.00,-7.00,-3.00,-7.00,-9.00,-15.00,-83.00,-37.00,-5.00,+3.00,+0.00,+0.00,-7.00,-2.00,+9.00
-3.00,+5.00,-16.00,-4.00,-5.00,+0.00,-6.00,+0.00,-23.00,+14.00,-2.00,-4.00,-2.00,-1.00,-6.00,+5.00
-1.00,+103.00,+4.00,+3.00,+9.00,+5.00,+12.00,+19.00,-23.00,+13.00,-2.00,-5.00,-5.00,-7.00,-5.00,-37.00
-2.00,-118.00,-22.00,-10.00,-10.00,-10.00,-15.00,+4.00,-28.00,-45.00,-10.00,-5.00,+0.00,+1.00,+3.00,+15.00
-14.00,-90.00,-69.00,-26.00,-9.00,-4.00,-2.00,+3.00,-66.00,+71.00,+10.00,+1.00,+0.00,-5.00,-12.00,-45.00
-13.00,-34.00,+33.00,+9.00,+9.00,+5.00,+9.00,-10.00,-16.00,+9.00,-11.00,-7.00,-7.00,-6.00,-3.00,-31.00
-2.00,-84.00,-25.00,-12.00,-9.00,-8.00,-18.00,-44.00,-44.00,-53.00,-17.00,-2.00,+0.00,-1.00,+2.00,+44.00
+3.00,-16.00,+17.00,+9.00,+2.00,+2.00,+7.00,+26.00,-1.00,+8.00,-12.00,-8.00,-9.00,-1.00,-12.00,-27.00
+7.00,-11.00,+8.00,+6.00,-7.00,-7.00,-6.00,-11.00,+20.00,-6.00,+5.00,+4.00,+2.00,+3.00,+3.00,-18.00
+4.00,+87.00,+0.00,-8.00,-14.00,-22.00,-19.00,+23.00,+31.00,+0.00,+4.00,+2.00,-6.00,-26.00,+3.00,+3.00
-7.00,-52.00,-8.00,+6.00,+9.00,+5.00,+16.00,+13.00,+6.00,+52.00,-10.00,-4.00,+1.00,+35.00,-5.00,-11.00
-2.00,+60.00,+31.00,+12.00,+11.00,+23.00,+10.00,+6.00,-15.00,-24.00,+1.00,-2.00,+4.00,+13.00,+7.00,+17.00
-9.00,-45.00,-12.00,-12.00,-7.00,-7.00,-4.00,+63.00,+66.00,+27.00,+8.00,+7.00,+7.00,+11.00,+22.00,+68.00
+6.00,+43.00,-20.00,-13.00,-8.00,-8.00,-8.00,-17.00,+0.00,-26.00,+14.00,+1.00,-27.00,-11.00,-21.00,-24.00
+1.00,+51.00,+31.00,+3.00,+0.00,+1.00,-3.00,-22.00,-18.00,-4.00,-7.00,-1.00,+17.00,-14.00,+14.00,-6.00
+1.00,+53.00,+29.00,+11.00,+9.00,+9.00,+10.00,+6.00,+25.00,+19.00,+8.00,+7.00,-15.00,+1.00,+2.00,+9.00
+8.00,+52.00,-6.00,-10.00,-7.00,-31.00,-16.00,+12.00,+1.00,-17.00,-18.00,-14.00,-20.00,-22.00,-14.00,-68.00
+5.00,-4.00,-37.00,-6.00,+5.00,+28.00,+2.00,-28.00,+13.00,+41.00,-14.00,-11.00,+22.00,+22.00,-36.00,-41.00
+0.00,+21.00,+32.00,+8.00,+3.00,+3.00,+18.00,+78.00,+24.00,+43.00,+18.00,+13.00,+7.00,-4.00,+12.00,+48.00
-8.00,+47.00,+17.00,+7.00,+4.00,+4.00,+12.00,-12.00,+59.00,+15.00,+12.00,+9.00,+13.00,+7.00,+15.00,+22.00
+0.00,+0.00,+11.00,+6.00,+2.00,+6.00,+10.00,+4.00,-32.00,+3.00,+7.00,-1.00,-10.00,+0.00,+18.00,-4.00
+0.00,-71.00,-25.00,-5.00,-4.00,-10.00,+2.00,+56.00,+17.00,+15.00,-9.00,-14.00,+0.00,-5.00,+2.00,+25.00
+1.00,+8.00,-10.00,-4.00,-5.00,-9.00,-17.00,-6.00,-42.00,-88.00,-8.00,-6.00,-2.00,+3.00,-12.00,-56.00
-1.00,-65.00,+9.00,+3.00,+1.00,-4.00,-4.00,-46.00,+23.00,+82.00,+7.00,+8.00,+4.00,-35.00,-11.00,-14.00
-5.00,+29.00,+10.00,+0.00,+2.00,+5.00,+2.00,-4.00,-24.00,-35.00,+3.00,+3.00,-20.00,+31.00,+14.00,+23.00
-4.00,-128.00,-32.00,-14.00,-14.00,-16.00,-16.00,-20.00,+1.00,-14.00,-1.00,-8.00,-18.00,-36.00,+2.00,+15.00
+6.00,+104.00,+59.00,+20.00,+18.00,+26.00,+9.00,+1.00,+24.00,+0.00,-5.00,+9.00,+4.00,+52.00,+0.00,-4.00
+2.00,-90.00,-1.00,-1.00,-9.00,-14.00,+6.00,+40.00,+2.00,-26.00,+4.00,+2.00,-17.00,-2.00,+11.00,+50.00
-5.00,-76.00,-6.00,+1.00,+1.00,-1.00,-18.00,-65.00,+15.00,-5.00,-5.00,+4.00,+17.00,-8.00,-3.00,-26.00
-5.00,-98.00,-7.00,-1.00,-2.00,-3.00,-8.00,-30.00,-29.00,-3.00,-7.00,-5.00,-1.00,-2.00,-23.00,-63.00
-2.00,+73.00,-10.00,-5.00,-5.00,-15.00,-24.00,+4.00,-83.00,-28.00,+8.00,-7.00,-19.00,-26.00,+0.00,-4.00
+6.00,+54.00,-11.00,+0.00,+5.00,+2.00,-10.00,-52.00,-117.00,+8.00,+11.00,+4.00,+19.00,+20.00,-6.00,-29.00
-1.00,-3.00,+13.00,+0.00,+1.00,+6.00,+18.00,+16.00,-100.00,+34.00,-3.00,+0.00,+15.00,-13.00,-19.00,-11.00
-6.00,+39.00,+10.00,-1.00,+0.00,+13.00,+0.00,+8.00,-21.00,+37.00,-1.00,+3.00,+0.00,+15.00,+28.00,+21.00
-5.00,-71.00,-21.00,-12.00,-13.00,-27.00,-5.00,-11.00,+5.00,-16.00,-2.00,-4.00,-3.00,-50.00,-22.00,-29.00
+3.00,-13.00,+10.00,+3.00,-6.00,+10.00,+3.00,+35.00,+88.00,-25.00,+3.00,-1.00,+14.00,+46.00,+3.00,-8.00
-7.00,-90.00,-34.00,-15.00,+18.00,+6.00,-2.00,+28.00,+35.00,-8.00,-3.00,-1.00,-25.00,-5.00,+15.00,-1.00
+5.00,+100.00,+6.00,+0.00,-2.00,-27.00,-15.00,-4.00,+90.00,-31.00,+0.00,+3.00,+4.00,+8.00,+12.00,-3.00
-7.00,-53.00,-12.00,+3.00,-1.00,+28.00,+12.00,-3.00,+51.00,+50.00,-9.00,+3.00,-27.00,-2.00,-10.00,-11.00
+4.00,+67.00,+5.00,-3.00,+4.00,-9.00,+9.00,+43.00,+28.00,-10.00,-8.00,-13.00,-16.00,-49.00,+5.00,+18.00
-2.00,+24.00,+4.00,-1.00,-13.00,-5.00,-9.00,-75.00,+86.00,+2.00,+5.00,-15.00,-40.00,-17.00,-2.00,+15.00
-4.00,-63.00,-14.00,-7.00,-1.00,+14.00,+1.00,+31.00,-5.00,-9.00,-2.00,+9.00,+11.00,+58.00,-4.00,-37.00
+3.00,+69.00,+7.00,-2.00,-11.00,-38.00,-8.00,-20.00,+16.00,+10.00,+1.00,+1.00,+13.00,-12.00,+5.00,+50.00
+2.00,-20.00,-1.00,+0.00,-9.00,-9.00,-32.00,-24.00,+5.00,-11.00,-4.00,-3.00,-19.00,+2.00,-7.00,-12.00
-5.00,+31.00,+16.00,+7.00,+15.00,+48.00,+38.00,+14.00,-40.00,-28.00,-10.00,-10.00,+22.00,-19.00,-8.00,-30.00
+3.00,-2.00,+0.00,-2.00,+1.00,-22.00,+3.00,-13.00,+58.00,+10.00,+12.00,+7.00,+11.00,-2.00,+26.00,+59.00
+3.00,-62.00,-26.00,-2.00,+5.00,+2.00,-2.00,-19.00,-28.00,+32.00,-1.00,-13.00,-13.00,+20.00,-22.00,+26.00
-7.00,-5.00,+7.00,-1.00,+3.00,+4.00,+3.00,-8.00,+42.00,-5.00,+1.00,+13.00,+18.00,-3.00,+8.00,-10.00
-3.00,+59.00,+13.00,+2.00,-5.00,-7.00,-8.00,+16.00,+4.00,-8.00,-5.00,+0.00,-11.00,+2.00,-9.00,+10.00
+1.00,-94.00,-18.00,-12.00,-8.00,+12.00,-2.00,-30.00,-16.00,+0.00,+0.00,+17.00,-21.00,+9.00,+6.00,-23.00
-8.00,+68.00,+4.00,-3.00,-1.00,+8.00,+7.00,+22.00,-25.00,-5.00,-3.00,-4.00,+1.00,-12.00,-4.00,-7.00
-2.00,-80.00,+2.00,+7.00,+5.00,-16.00,+2.00,+3.00,+52.00,-39.00,-17.00,-17.00,+4.00,+1.00,-10.00,+1.00
+3.00,+91.00,+8.00,+0.00,-2.00,+1.00,+3.00,+27.00,-39.00,+16.00,+21.00,+8.00,+24.00,+0.00,+12.00,+8.00
-3.00,-55.00,-19.00,-3.00,-7.00,-21.00,-14.00,-66.00,-51.00,-1.00,-4.00,-16.00,-10.00,-26.00,-3.00,-10.00
-2.00,+63.00,+19.00,-1.00,-3.00,+3.00,-17.00,-11.00,+14.00,+52.00,+4.00,+1.00,-20.00,+4.00,+19.00,-33.00
-6.00,+15.00,+3.00,+2.00,+11.00,+11.00,+22.00,+40.00,-29.00,-19.00,-5.00,-3.00,-13.00,-10.00,-14.00,-20.00
+3.00,-63.00,-16.00,-10.00,-13.00,-12.00,-13.00,-5.00,+7.00,-19.00,-8.00,-8.00,-24.00,-35.00,-22.00,-18.00
-4.00,-4.00,+23.00,+6.00,+0.00,-14.00,+7.00,+33.00,-16.00,+5.00,+3.00,+14.00,+18.00,+26.00,-7.00,+34.00
+5.00,-46.00,-19.00,-8.00,+5.00,+13.00,+2.00,+9.00,-64.00,-34.00,-5.00,-2.00,+22.00,+40.00,+29.00,-2.00
-1.00,-40.00,-11.00,-6.00,-10.00,-1.00,-19.00,-48.00,-20.00,+29.00,-2.00,-7.00,+2.00,-18.00,-26.00,-21.00
-4.00,-33.00,-1.00,+1.00,+1.00,-23.00,+7.00,-5.00,+23.00,+6.00,+0.00,+8.00,-20.00,+16.00,+1.00,+25.00
+1.00,+50.00,+8.00,+6.00,+4.00,+35.00,+5.00,-14.00,+23.00,-4.00,+4.00,+5.00,-35.00,-52.00,-7.00,+15.00
-3.00,-73.00,-7.00,-2.00,-1.00,+7.00,+11.00,+21.00,+48.00,+8.00,-6.00,-6.00,+23.00,+22.00,-14.00,-2.00
+3.00,+26.00,+7.00,+3.00,+2.00,-13.00,-3.00,+19.00,-20.00,+5.00,-7.00,-2.00,+25.00,+8.00,+0.00,-34.00
-6.00,-105.00,-17.00,-15.00,-16.00,+3.00,-26.00,-18.00,+10.00,+36.00,+8.00,-1.00,+7.00,+0.00,-7.00,-15.00
+1.00,+127.00,+39.00,+10.00,+8.00,+0.00,+6.00,+16.00,-35.00,-1.00,+0.00,-1.00,+3.00,+15.00,+44.00,+25.00
-1.00,-104.00,-14.00,-4.00,+2.00,-4.00,+6.00,+0.00,+35.00,+45.00,+4.00,+6.00,-15.00,-15.00,+1.00,+6.00
+0.00,+10.00,-2.00,+0.00,-2.00,+14.00,+6.00,-3.00,-26.00,-16.00,+8.00,-1.00,-4.00,+0.00,+3.00,+4.00
-3.00,+60.00,+3.00,+2.00,-5.00,-49.00,-15.00,-5.00,-10.00,-21.00,-11.00,-17.00,+14.00,+0.00,-2.00,-16.00
+5.00,+15.00,+6.00,+17.00,+19.00,+34.00,+3.00,+20.00,-34.00,-10.00,-7.00,+6.00,+77.00,-36.00,-26.00,-21.00
-4.00,-5.00,-23.00,-14.00,-7.00,+14.00,+3.00,-3.00,-54.00,-5.00,+1.00,+5.00,-77.00,-7.00,+0.00,+20.00
-1.00,-79.00,-14.00,-6.00,-12.00,-20.00,-6.00,-1.00,-126.00,-8.00,-4.00,+6.00,+6.00,+13.00,+7.00,-28.00
-2.00,+46.00,+39.00,+16.00,+10.00,+34.00,+0.00,+14.00,+0.00,-67.00,-2.00,-19.00,+43.00,-21.00,-26.00,+10.00
-5.00,-3.00,+3.00,-11.00,-13.00,-37.00,-19.00,-65.00,+18.00,+2.00,-3.00,-51.00,-113.00,-33.00,+26.00,+0.00
+1.00,-11.00,+2.00,-1.00,-4.00,-19.00,-5.00,-51.00,+3.00,+37.00,+8.00,+32.00,+74.00,+44.00,-41.00,+13.00
-5.00,-32.00,-5.00,-7.00,+0.00,+25.00,+19.00,+18.00,+23.00,-13.00,-2.00,+3.00,+90.00,-22.00,-13.00,-19.00
-4.00,-26.00,-13.00,-2.00,-5.00,-14.00,+4.00,+14.00,+5.00,-70.00,-18.00,-13.00,-71.00,+7.00,-30.00,-64.00
+3.00,-11.00,-1.00,+8.00,+8.00,+64.00,+9.00,+13.00,+42.00,+39.00,+6.00,+23.00,+80.00,-24.00,+19.00,+35.00
-2.00,+5.00,+5.00,+1.00,-6.00,-22.00,-28.00,-49.00,+22.00,-32.00,-5.00,+13.00,+44.00,+11.00,+14.00,-9.00
+5.00,+46.00,+5.00,+1.00,-3.00,-5.00,+19.00,-6.00,+56.00,+42.00,+6.00,+9.00,-10.00,+12.00,+22.00,+65.00
+1.00,-14.00,-3.00,-1.00,+1.00,-21.00,+1.00,-7.00,-22.00,-67.00,+3.00,+8.00,+77.00,+13.00,-11.00,-15.00
-3.00,+16.00,-1.00,+0.00,+4.00,+25.00,+21.00,+29.00,+32.00,+2.00,-6.00,-23.00,-46.00,+3.00,-36.00,+19.00
+0.00,-14.00,-8.00,+1.00,-3.00,+3.00,-17.00,+3.00,-16.00,+28.00,-2.00,-18.00,-29.00,-33.00,+4.00,-19.00
+3.00,-36.00,-12.00,-5.00,-3.00,-5.00,-23.00,+10.00,-16.00,-16.00,-6.00,+2.00,-5.00,+10.00,-22.00,-10.00
-4.00,+68.00,+7.00,-2.00,+0.00,-6.00,+23.00,+4.00,+63.00,+72.00,+1.00,-2.00,-11.00,-6.00,+16.00,+28.00
-2.00,-40.00,-8.00,+0.00,-4.00,-15.00,+0.00,+1.00,-78.00,-40.00,-7.00,+2.00,-8.00,+15.00,-16.00,-7.00
+1.00,-16.00,+0.00,-4.00,+9.00,+10.00,+15.00,+19.00,+11.00,-36.00,+1.00,-7.00,-5.00,-11.00,+4.00,+11.00
-8.00,+50.00,+9.00,+4.00,+9.00,+7.00,+6.00,-2.00,-18.00,+13.00,+2.00,-9.00,-27.00,-11.00,+3.00,-6.00
+0.00,-8.00,-3.00,+0.00,-1.00,+0.00,-19.00,+6.00,+23.00,+33.00,+4.00,+15.00,-8.00,+5.00,+5.00,+20.00
+1.00,-24.00,-6.00,-14.00,-12.00,-16.00,-17.00,+9.00,+42.00,+18.00,+5.00,+7.00,+10.00,+18.00,+1.00,-40.00
+0.00,-13.00,-1.00,+5.00,-6.00,-36.00,-8.00,+22.00,-46.00,-14.00,-11.00,-7.00,+14.00,-26.00,+1.00,-3.00
-5.00,+25.00,+0.00,+4.00,+13.00,+71.00,+8.00,+24.00,+12.00,+2.00,-3.00,-10.00,-17.00,-5.00,-18.00,-39.00
+3.00,-57.00,-17.00,-17.00,-2.00,+35.00,-11.00,+38.00,-39.00,-3.00,+1.00,-9.00,+15.00,+16.00,+13.00,+3.00
+3.00,+42.00,+12.00,+0.00,-10.00,-71.00,+21.00,+33.00,-10.00,+13.00,+3.00,+25.00,-27.00,-4.00,-9.00,+17.00
-1.00,+5.00,+10.00,+2.00,+6.00,-15.00,+8.00,-2.00,+17.00,+12.00,+1.00,-4.00,-9.00,+2.00,+25.00,-27.00
+3.00,-4.00,-11.00,-27.00,-8.00,+39.00,-2.00,-4.00,+19.00,-53.00,-1.00,+3.00,-42.00,+4.00,+0.00,+15.00
-5.00,+49.00,+13.00,-1.00,-22.00,-83.00,+0.00,+2.00,+20.00,+30.00,+8.00,+9.00,+16.00,+8.00,+0.00,-5.00
-3.00,-21.00,+0.00,+25.00,+30.00,+72.00,+46.00,-11.00,+55.00,-13.00,-12.00,-14.00,-5.00,-1.00,-1.00,-40.00
+1.00,+7.00,-1.00,+14.00,+8.00,+30.00,+18.00,+43.00,-26.00,-24.00,-1.00,-15.00,+2.00,-17.00,-4.00,+4.00
+0.00,+16.00,+15.00,+12.00,+14.00,+21.00,-4.00,-45.00,-9.00,+13.00,+8.00,+7.00,-3.00,+9.00,+13.00,+13.00
-2.00,-68.00,-13.00,-19.00,-2.00,+56.00,-3.00,-49.00,+31.00,+15.00,+2.00,+13.00,+3.00,+8.00,+2.00,+24.00
+3.00,+78.00,-11.00,-20.00,-17.00,-80.00,-51.00,+5.00,+5.00,-18.00,+0.00,-8.00,+27.00,-17.00,-5.00,-5.00
-1.00,+7.00,+1.00,+5.00,+4.00,+4.00,+52.00,-7.00,+6.00,-5.00,-5.00,-8.00,-13.00,+23.00,-14.00,+2.00
-3.00,+10.00,+1.00,+11.00,-2.00,-19.00,-2.00,+27.00,+14.00,+4.00,-10.00,-7.00,+7.00,-3.00,-10.00,-9.00
-3.00,+25.00,+0.00,-2.00,-6.00,-14.00,-8.00,+20.00,+4.00,+0.00,-8.00,-17.00,+39.00,-6.00,-10.00,+12.00
-2.00,-33.00,-16.00,-24.00,-11.00,-24.00,-16.00,+13.00,-27.00,+13.00,+5.00,+22.00,-73.00,+31.00,+13.00,+4.00
-5.00,+24.00,+5.00,-13.00,+2.00,+10.00,-7.00,+24.00,+0.00,-13.00,+7.00,+1.00,+20.00,-10.00,-5.00,+3.00
+4.00,+21.00,+8.00,-58.00,-8.00,-25.00,-8.00,-7.00,+17.00,+31.00,+3.00,+5.00,-13.00,-18.00,+17.00,-26.00
+1.00,-46.00,-5.00,-29.00,+9.00,+14.00,+5.00,+10.00,-35.00,+7.00,+4.00,+15.00,-22.00,+12.00,-6.00,+3.00
-1.00,-69.00,-7.00,-10.00,+0.00,+3.00,+9.00,+57.00,-24.00,-7.00,-4.00,-7.00,+41.00,+1.00,+7.00,-4.00
-2.00,+36.00,+0.00,-3.00,-4.00,+19.00,-2.00,-6.00,+43.00,+1.00,-3.00,-6.00,+12.00,-28.00,-19.00,+29.00
+0.00,-6.00,+4.00,+12.00,-4.00,-41.00,-3.00,+9.00,+27.00,+8.00,+3.00,-2.00,-12.00,+41.00,+16.00,+28.00
+5.00,-32.00,-3.00,+13.00,-7.00,-6.00,-3.00,-5.00,+56.00,+10.00,+0.00,+3.00,-15.00,-10.00,+3.00,+13.00
-4.00,-2.00,+0.00,+9.00,+9.00,-11.00,+15.00,+0.00,+36.00,-40.00,-11.00,-7.00,+26.00,+6.00,-14.00,-32.00
-6.00,-37.00,-5.00,-6.00,-9.00,-44.00,-43.00,+2.00,+94.00,-11.00,+3.00,+1.00,-25.00,-10.00,-7.00,+16.00
-6.00,-22.00,-6.00,-12.00,+4.00,+41.00,+6.00,-20.00,-37.00,-14.00,+6.00,+3.00,+18.00,-4.00,+2.00,+2.00
-4.00,+67.00,+1.00,-53.00,+9.00,+34.00,+8.00,+1.00,-63.00,+22.00,+6.00,+8.00,-5.00,+4.00,+4.00,+15.00
-1.00,-49.00,-3.00,-91.00,-14.00,-13.00,-16.00,-33.00,-40.00,+5.00,-2.00,-6.00,+0.00,+6.00,-4.00,+2.00
+0.00,+73.00,+4.00,-53.00,-10.00,-25.00,-7.00,-10.00,-7.00,-5.00,-9.00,-9.00,-19.00,-17.00,+2.00,-7.00
-4.00,-18.00,-3.00,+10.00,+5.00,-19.00,-3.00,-18.00,-15.00,+6.00,-7.00,-9.00,+28.00,-3.00,-11.00,+2.00
+2.00,+12.00,+1.00,+48.00,+3.00,-6.00,-18.00,-19.00,-67.00,-20.00,-6.00,-4.00,-55.00,-10.00,-1.00,-26.00
-2.00,-9.00,+0.00,+62.00,+0.00,+17.00,+43.00,-4.00,-32.00,+18.00,+5.00,+10.00,+25.00,+18.00,-5.00,+8.00
+1.00,-26.00,-9.00,+36.00,-3.00,-2.00,-8.00,+4.00,-29.00,+14.00,-7.00,+3.00,+55.00,-20.00,-13.00,-10.00
+1.00,+17.00,-6.00,+45.00,-4.00,-14.00,+1.00,+16.00,+10.00,+8.00,-1.00,+0.00,-41.00,+11.00,+17.00,+40.00
-8.00,-60.00,-12.00,+28.00,-6.00,+4.00,-4.00,+5.00,-13.00,+0.00,-6.00,-4.00,+28.00,+1.00,+2.00,+5.00
+5.00,+71.00,+9.00,+28.00,+10.00,-1.00,+6.00,+88.00,+4.00,-4.00,+2.00,+2.00,-12.00,-17.00,+31.00,-12.00
-2.00,-29.00,-1.00,+10.00,+2.00,+10.00,-5.00,-2.00,-13.00,-11.00,+1.00,-7.00,-4.00,+34.00,-3.00,-34.00
-3.00,+49.00,+12.00,+21.00,-4.00,-21.00,-18.00,-80.00,+5.00,+22.00,+5.00,+2.00,-20.00,-14.00,-3.00,-4.00
+6.00,+8.00,+4.00,+25.00,+11.00,+38.00,+3.00,+1.00,+22.00,-11.00,-6.00,+5.00,+29.00,+8.00,-2.00,-5.00
-4.00,-21.00,-5.00,+7.00,-5.00,+5.00,-8.00,-14.00,-32.00,-7.00,+0.00,-6.00,-11.00,-14.00,-22.00,+1.00
+0.00,-15.00,-4.00,+4.00,-8.00,-6.00,-3.00,-33.00,-53.00,+20.00,-6.00,-10.00,-27.00,-15.00,+4.00,+13.00
+0.00,-8.00,-3.00,+6.00,-2.00,-12.00,+13.00,+4.00,+1.00,+17.00,-2.00,+0.00,+14.00,-6.00,+10.00,-7.00
-1.00,-39.00,+2.00,+14.00,+6.00,+1.00,+3.00,+0.00,-57.00,+38.00,+8.00,+10.00,-9.00,+21.00,+5.00,+19.00
-3.00,+46.00,-1.00,-2.00,-3.00,+5.00,-9.00,-33.00,-29.00,-23.00,-6.00,-8.00,+8.00,-16.00,-31.00,-12.00
-1.00,-22.00,+2.00,+3.00,+2.00,+23.00,+0.00,+9.00,-64.00,+15.00,+4.00,+8.00,-3.00,+30.00,+52.00,+7.00
-3.00,-19.00,-4.00,-7.00,-2.00,-24.00,-11.00,+24.00,+30.00,+29.00,+1.00,-2.00,+5.00,-1.00,-8.00,+34.00
-2.00,-30.00,-3.00,+3.00,+3.00,-1.00,+11.00,-7.00,+61.00,-37.00,-1.00,-7.00,+73.00,+0.00,+0.00,+12.00
-3.00,-14.00,-5.00,-4.00,-3.00,+1.00,-14.00,-4.00,+16.00,+18.00,+3.00,+3.00,-100.00,-18.00,-1.00,+9.00
+0.00,+3.00,-4.00,-4.00,-3.00,+2.00,-2.00,-4.00,+37.00,-21.00,-5.00,-5.00,+42.00,+10.00,-3.00,-7.00
+3.00,+33.00,-5.00,-3.00,-2.00,-3.00,+2.00,+24.00,-7.00,-23.00,-3.00,+10.00,+32.00,-3.00,-20.00,+15.00
-2.00,+37.00,+3.00,-8.00,-11.00,-37.00,+6.00,-7.00,+4.00,-1.00,+0.00,+0.00,+13.00,+1.00,+20.00,+32.00
-2.00,-23.00,+0.00,+0.00,+6.00,-50.00,-31.00,-18.00,+22.00,-5.00,+1.00,-8.00,+55.00,+19.00,-3.00,-17.00
-4.00,+9.00,-1.00,+0.00,+4.00,+50.00,+22.00,-4.00,+13.00,-15.00,+0.00,+0.00,-38.00,-31.00,-2.00,-12.00
+6.00,-24.00,+2.00,+1.00,+11.00,-2.00,-2.00,+31.00,+27.00,+3.00,+0.00,-17.00,-21.00,+7.00,-5.00,-16.00
+2.00,-2.00,-10.00,-6.00,-5.00,-24.00,-1.00,-10.00,-26.00,-15.00,-9.00,+11.00,-43.00,+7.00,-17.00,-25.00
+2.00,-16.00,-3.00,-5.00,-10.00,-6.00,-15.00,-10.00,+11.00,+16.00,+3.00,+0.00,+25.00,+10.00,+32.00,+31.00
+3.00,-17.00,+1.00,-4.00,+0.00,-11.00,+10.00,+18.00,+11.00,-4.00,-1.00,+1.00,-2.00,-3.00,+3.00,+11.00
-4.00,+19.00,+5.00,-3.00,+1.00,+7.00,-4.00,+16.00,-16.00,-5.00,-3.00,+3.00,+2.00,-15.00,+2.00,-2.00
-2.00,-8.00,-7.00,-7.00,-8.00,-12.00,-7.00,+9.00,-11.00,-2.00,+2.00,-6.00,-21.00,-21.00,-11.00,-24.00
+0.00,-5.00,+3.00,-2.00,+2.00,+10.00,+12.00,-8.00,-6.00,-17.00,+0.00,-2.00,-17.00,-6.00,-6.00,-8.00
+3.00,-1.00,-2.00,-2.00,-1.00,-19.00,-18.00,-17.00,-17.00,-9.00,-12.00,-1.00,+2.00,+22.00,-10.00,-43.00
-5.00,+22.00,+2.00,-6.00,-7.00,+12.00,+1.00,-10.00,+47.00,+12.00,+0.00,-6.00,+4.00,+5.00,-2.00,-5.00
+3.00,-11.00,+1.00,+5.00,+6.00,-13.00,-1.00,-15.00,+71.00,-7.00,-5.00,-13.00,-25.00,-10.00,-4.00,-12.00
-3.00,+23.00,+1.00,-3.00,-2.00,+17.00,+1.00,-14.00,-33.00,+4.00,+3.00,+5.00,+23.00,+2.00,+7.00,+2.00
+2.00,-31.00,-7.00,-2.00,+0.00,+10.00,-16.00,-4.00,-26.00,-7.00,+2.00,+0.00,-5.00,-15.00,-8.00,-26.00
-2.00,-40.00,-4.00,-4.00,-4.00,-22.00,+2.00,-1.00,-36.00,-1.00,-6.00,-6.00,-3.00,-7.00,-11.00,-19.00
+0.00,+58.00,+1.00,-9.00,-10.00,+5.00,-5.00,+8.00,-39.00,+28.00,-5.00,-1.00,-5.00,+4.00,+2.00,-17.00
+7.00,-10.00,+7.00,+10.00,+18.00,-19.00,+13.00,+16.00,+58.00,-9.00,+2.00,+0.00,+5.00,+2.00,+2.00,+36.00
-6.00,+12.00,-1.00,-5.00,+2.00,-16.00,+7.00,+5.00,+54.00,-1.00,+4.00,-1.00,-4.00,-13.00,-8.00,+12.00
-4.00,-1.00,-5.00,-1.00,+2.00,-19.00,+5.00,+28.00,-1.00,-16.00,+2.00,+9.00,-1.00,+18.00,+10.00,+2.00
-2.00,-21.00,-5.00,+1.00,+5.00,+42.00,+6.00,+4.00,-3.00,+14.00,+1.00,-5.00,-31.00,-20.00,+1.00,-22.00
-1.00,+4.00,-1.00,-12.00,-17.00,-31.00,-9.00,-17.00,-13.00,+4.00,-5.00,+7.00,+28.00,+0.00,-6.00,-11.00
+1.00,+10.00,+6.00,+0.00,+2.00,+6.00,-4.00,+10.00,-16.00,-8.00,+0.00,-4.00,-20.00,+1.00,+0.00,+8.00
+3.00,-8.00,-3.00,-1.00,-8.00,-24.00,+6.00,-6.00,-27.00,-15.00,-7.00,-4.00,-6.00,-6.00,-7.00,-22.00
-2.00,-23.00,+0.00,+1.00,-2.00,-28.00,-6.00,+3.00,+27.00,+28.00,+4.00,-1.00,+21.00,+4.00,+9.00,+56.00
-5.00,+16.00,+0.00,+3.00,+10.00,+86.00,+14.00,+10.00,-11.00,-11.00,-2.00,-6.00,-6.00,-1.00,-12.00,-4.00
+1.00,+24.00,+3.00,+0.00,+0.00,-10.00,+1.00,+0.00,-1.00,+5.00,+3.00,+10.00,-37.00,-13.00,-10.00,+23.00
-3.00,+25.00,-1.00,+1.00,+1.00,+30.00,-8.00,-12.00,-17.00,-11.00,-7.00,-12.00,+52.00,+9.00,-7.00,+16.00
-1.00,+26.00,-2.00,-7.00,+2.00,+17.00,+3.00,+3.00,-13.00,-21.00,-1.00,+9.00,-18.00,-4.00,-2.00,-20.00
-1.00,+9.00,-2.00,-8.00,-8.00,-23.00,+6.00,-11.00,+1.00,-8.00,-6.00,-5.00,+55.00,+0.00,-6.00,-2.00
-3.00,-22.00,-5.00,-1.00,-4.00,+6.00,-14.00,-15.00,-2.00,+16.00,+8.00,+2.00,-54.00,-13.00,-5.00,-4.00
-5.00,-2.00,+4.00,+1.00,-1.00,-1.00,-1.00,-1.00,+113.00,-14.00,+1.00,+6.00,-12.00,-7.00,-2.00,+1.00
-4.00,+9.00,+5.00,-1.00,+0.00,-20.00,+0.00,-7.00,-5.00,-7.00,-7.00,-6.00,+5.00,+1.00,+1.00,-15.00
-1.00,-33.00,+1.00,+0.00,+0.00,+13.00,+0.00,+3.00,-71.00,+0.00,-4.00,-4.00,+21.00,-7.00,-8.00,+12.00
-1.00,-21.00,-3.00,-4.00,-4.00,-2.00,+2.00,-9.00,-122.00,-2.00,-4.00,+0.00,+11.00,-25.00,-2.00,+12.00
+0.00,-65.00,-8.00,-3.00,-2.00,-15.00,-6.00,+9.00,-122.00,-7.00,-2.00,-10.00,-23.00,+23.00,-9.00,-14.00
-1.00,-14.00,+0.00,-5.00,+2.00,+6.00,+6.00,+26.00,-128.00,-50.00,+2.00,+0.00,-10.00,-3.00,+13.00,-42.00
-5.00,+99.00,+16.00,-2.00,-1.00,+8.00,-10.00,-51.00,-38.00,+38.00,+2.00,+6.00,-13.00,+1.00,+5.00,-18.00
+2.00,-13.00,-2.00,-4.00,-7.00,-9.00,+5.00,+25.00,+2.00,+14.00,-1.00,-3.00,+14.00,+7.00,+3.00,+13.00
+4.00,-17.00,-3.00,-8.00,-7.00,-4.00,-3.00,-4.00,-17.00,-1.00,+0.00,-2.00,-20.00,-20.00,-6.00,-12.00
-1.00,-36.00,-3.00,-2.00,+10.00,+8.00,-10.00,-22.00,+17.00,+12.00,-4.00,-1.00,+38.00,-6.00,-6.00,-28.00
+0.00,-36.00,-9.00,+0.00,-2.00,+0.00,+2.00,+44.00,-14.00,-27.00,-4.00,-14.00,-92.00,+0.00,+7.00,-1.00
-4.00,+15.00,+5.00,+2.00,+1.00,-12.00,+1.00,-12.00,+10.00,-20.00,+0.00,+0.00,+26.00,-1.00,-6.00,+5.00
-3.00,+18.00,+0.00,+2.00,-1.00,+8.00,+0.00,-23.00,+16.00,+11.00,+6.00,+6.00,+33.00,+9.00,-4.00,-44.00
-2.00,-25.00,-3.00,-4.00,-2.00,+0.00,+0.00,-2.00,-7.00,-4.00,+1.00,+3.00,+5.00,+0.00,-5.00,+10.00
-2.00,-8.00,-7.00,-8.00,-9.00,-38.00,+1.00,+4.00,+11.00,-1.00,-1.00,-3.00,-15.00,-17.00,-3.00,+6.00
-3.00,+12.00,-1.00,+13.00,+11.00,+59.00,-3.00,-1.00,+42.00,+10.00,-4.00,-2.00,+55.00,+10.00,-2.00,+7.00
+1.00,+2.00,+0.00,-4.00,-3.00,-33.00,-3.00,+44.00,-9.00,-6.00,-3.00,-6.00,-35.00,+3.00,+13.00,+18.00
+2.00,+13.00,+2.00,+8.00,+7.00,+33.00,+18.00,+10.00,-4.00,+5.00,+3.00,-6.00,-75.00,+11.00,-27.00,+5.00
-2.00,-8.00,+2.00,-4.00,-3.00,+38.00,-3.00,+6.00,+15.00,-5.00,-3.00,+12.00,+19.00,+9.00,+2.00,-9.00
+2.00,+1.00,+1.00,+0.00,+6.00,-26.00,+10.00,-4.00,+19.00,-5.00,+0.00,-2.00,-1.00,-7.00,-4.00,+0.00
-3.00,-2.00,-4.00,+2.00,+3.00,+16.00,+2.00,-1.00,-18.00,-2.00,-2.00,+2.00,+5.00,-15.00,+9.00,+8.00
-4.00,+12.00,-2.00,-7.00,-9.00,-26.00,-15.00,-7.00,-14.00,-27.00,-5.00,-9.00,+6.00,-7.00,-16.00,-30.00
-1.00,+6.00,-3.00,-2.00,+0.00,+1.00,+7.00,-8.00,+37.00,-15.00,-14.00,-9.00,+7.00,-5.00,-8.00,-5.00
+2.00,-6.00,+0.00,-1.00,-7.00,-13.00,+1.00,+76.00,+62.00,+62.00,+19.00,+12.00,-10.00,+15.00,+22.00,+43.00
+1.00,-6.00,-2.00,+1.00,+5.00,+5.00,-10.00,+13.00,-2.00,+1.00,+1.00,-1.00,+4.00,-7.00,-4.00,-5.00
+1.00,+11.00,+0.00,-2.00,-3.00,+0.00,+4.00,+7.00,+26.00,+7.00,-1.00,+0.00,+6.00,+0.00,+2.00,+19.00
-1.00,-8.00,-1.00,-1.00,+0.00,-9.00,+0.00,-9.00,-8.00,-19.00,-4.00,-7.00,+0.00,+1.00,-7.00,-24.00
-1.00,-5.00,-5.00,-4.00,-3.00,-7.00,+1.00,-9.00,-10.00,-33.00,-6.00,-5.00,+27.00,+3.00,+0.00,-16.00
+0.00,+3.00,+0.00,+0.00,+3.00,-2.00,-2.00,+7.00,+15.00,+19.00,+3.00,+2.00,-34.00,-2.00,+4.00,+20.00
+2.00,-53.00,-15.00,-8.00,-8.00,-1.00,-7.00,+26.00,-11.00,-10.00,-4.00,+1.00,+7.00,-8.00,-8.00,-23.00
+5.00,+8.00,+4.00,-1.00,-1.00,-34.00,-4.00,+2.00,+4.00,+6.00,+5.00,+3.00,+8.00,+6.00,+14.00,+19.00
-1.00,+0.00,+2.00,+0.00,+1.00,+3.00,+12.00,+41.00,-11.00,-9.00,-3.00,-2.00,-31.00,-7.00,-2.00,-25.00
-3.00,+25.00,+7.00,+1.00,-2.00,-29.00,-19.00,-28.00,+2.00,+3.00,+2.00,-2.00,+18.00,+4.00,+0.00,+12.00
-7.00,+5.00,+1.00,+0.00,+2.00,+26.00,+13.00,-41.00,-13.00,-9.00,+0.00,+4.00,-20.00,-8.00,+15.00,-16.00
+1.00,-31.00,-5.00,-4.00,-2.00,-31.00,-7.00,-2.00,+1.00,+11.00,+3.00,+0.00,+9.00,+6.00,-1.00,-11.00
-4.00,-10.00,-5.00,-1.00,-1.00,+22.00,-3.00,-23.00,+7.00,-3.00,-6.00,-5.00,-29.00,-10.00,-6.00,-5.00
+0.00,+2.00,-1.00,+0.00,-2.00,+19.00,+17.00,-33.00,-10.00,-12.00,-5.00,+2.00,-16.00,+9.00,+3.00,-14.00
-2.00,-1.00,+2.00,-2.00,-6.00,-55.00,-23.00,-1.00,+12.00,+13.00,+3.00,+5.00,+24.00,+12.00,+4.00,+24.00
+3.00,+3.00,-3.00,+4.00,+5.00,+24.00,+1.00,-7.00,+7.00,+7.00,-1.00,-3.00,-21.00,-6.00,+1.00,+11.00
-3.00,+6.00,-3.00,-4.00,-4.00,+0.00,+2.00,-31.00,-44.00,-32.00,-4.00,-3.00,+0.00,+3.00,-3.00,-18.00
+0.00,-2.00,-1.00,+2.00,+1.00,+15.00,-1.00,+11.00,+1.00,+14.00,+2.00,+1.00,+12.00,-8.00,-4.00,+7.00
+0.00,+32.00,-4.00,-5.00,-2.00,-12.00,-9.00,-10.00,+3.00,-31.00,-1.00,-2.00,+9.00,+1.00,+0.00,+23.00
-3.00,-32.00,+15.00,+3.00,+2.00,+11.00,+3.00,+2.00,+34.00,+54.00,+7.00,+3.00,+5.00,+3.00,+1.00,+9.00
-3.00,-17.00,-2.00,+0.00,+3.00,-12.00,+3.00,-50.00,-5.00,-8.00,-5.00,-5.00,+6.00,+3.00,-4.00,+4.00
-3.00,-6.00,-4.00,-5.00,-5.00,+2.00,-2.00,+0.00,+23.00,+2.00,-1.00,-2.00,-4.00,+6.00,+0.00,-11.00
+4.00,+1.00,+2.00,+3.00,+5.00,+0.00,+6.00,+8.00,+27.00,-3.00,-1.00,-4.00,+39.00,+1.00,+4.00,-1.00
-1.00,+5.00,-4.00,-7.00,-6.00,-4.00,-9.00,-7.00,-14.00,-13.00,-2.00,+1.00,-48.00,-6.00,-4.00,-10.00
+3.00,+8.00,+0.00,-1.00,-2.00,-5.00,-7.00,+8.00,+0.00,-7.00,-3.00,+1.00,+18.00,-4.00,-8.00,-3.00
-1.00,+3.00,+3.00,+0.00,+4.00,+4.00,+3.00,+2.00,+22.00,-8.00,+0.00,-7.00,+47.00,-7.00,-17.00,+9.00
-1.00,-20.00,-7.00,-11.00,-5.00,-2.00,+9.00,+48.00,-11.00,+15.00,+1.00,+12.00,-43.00,-6.00,+14.00,+11.00
-1.00,+0.00,-3.00,-1.00,+3.00,+25.00,-3.00,-7.00,+9.00,-8.00,+1.00,+0.00,+22.00,+8.00,-14.00,+1.00
-3.00,+22.00,+2.00,-2.00,-4.00,-8.00,-6.00,+5.00,-13.00,-3.00,-2.00,-2.00,-6.00,-2.00,+15.00,-40.00
+0.00,-8.00,-4.00,-2.00,-2.00,-9.00,+1.00,+3.00,-27.00,+6.00,-1.00,+0.00,-11.00,+12.00,+1.00,+12.00
+0.00,+13.00,+6.00,+2.00,+8.00,+12.00,-7.00,-31.00,+5.00,-4.00,+0.00,-12.00,+3.00,-2.00,-2.00,-10.00
-2.00,-20.00,-5.00,-6.00,-7.00,+3.00,-6.00,-4.00,-24.00,+2.00,+1.00,+9.00,+12.00,-6.00,-1.00,+5.00
+0.00,-6.00,-2.00,-2.00,-2.00,-37.00,-1.00,+0.00,-2.00,-7.00,-1.00,-2.00,-11.00,+0.00,-1.00,+4.00
-2.00,+3.00,-2.00,-2.00,+2.00,+19.00,-2.00,-17.00,-47.00,-2.00,+2.00,+2.00,-12.00,-12.00,+1.00,-12.00
-5.00,-6.00,+2.00,-1.00,-2.00,+8.00,-1.00,-11.00,-5.00,+8.00,-6.00,+0.00,+5.00,+1.00,+1.00,+17.00
-2.00,-10.00,-4.00,+2.00,+3.00,+9.00,-4.00,+5.00,+10.00,-15.00,+1.00,-4.00,-6.00,+6.00,-5.00,-20.00
-4.00,+32.00,+0.00,-2.00,-6.00,-10.00,-8.00,-33.00,+22.00,-8.00,-7.00,-5.00,-1.00,-1.00,-9.00,-13.00
-3.00,+11.00,+3.00,+3.00,+0.00,-12.00,+0.00,+9.00,-7.00,-7.00,+0.00,+2.00,+1.00,-2.00,+8.00,+21.00
+0.00,+21.00,-2.00,-1.00,-4.00,-8.00,-1.00,-4.00,-18.00,+7.00,-1.00,-3.00,+2.00,+0.00,-11.00,-1.00
-4.00,-42.00,-2.00,+0.00,+0.00,+0.00,+3.00,+5.00,+12.00,-22.00,-1.00,-5.00,-14.00,-10.00,-6.00,-7.00
-1.00,+1.00,-4.00,-2.00,-4.00,+3.00,+0.00,+9.00,+24.00,+39.00,+3.00,+2.00,+6.00,+6.00,-6.00,+32.00
+2.00,-9.00,-3.00,+1.00,-3.00,-2.00,-8.00,-4.00,-14.00,-17.00,-3.00,-4.00,-16.00,-8.00,+0.00,-17.00
-3.00,+4.00,+0.00,-1.00,+0.00,+2.00,+7.00,-3.00,-10.00,-1.00,+1.00,-4.00,-10.00,-8.00,-8.00,-3.00
+4.00,-2.00,-4.00,+1.00,+6.00,+1.00,+0.00,-3.00,-15.00,-3.00,-2.00,-5.00,+26.00,-4.00,+2.00,+2.00
-7.00,+4.00,+2.00,+0.00,+2.00,+9.00,+0.00,+15.00,-9.00,-13.00,+0.00,+6.00,+10.00,+33.00,+4.00,-6.00
+0.00,-2.00,+1.00,-6.00,-9.00,-52.00,-10.00,+4.00,+5.00,-3.00,-2.00,+5.00,-5.00,-3.00,-3.00,+3.00
-3.00,-6.00,+0.00,+7.00,+9.00,+50.00,+10.00,+11.00,+15.00,+15.00,+2.00,+3.00,-8.00,+6.00,+5.00,+7.00
-7.00,+4.00,+0.00,-7.00,+2.00,+6.00,+5.00,+7.00,+9.00,-4.00,-5.00,-20.00,-56.00,-1.00,-3.00,+14.00
+2.00,-14.00,-1.00,-1.00,-5.00,-8.00,-10.00,-80.00,-5.00,+7.00,+4.00,+15.00,+10.00,-11.00,-22.00,-1.00
+1.00,+26.00,+0.00,+0.00,+1.00,+11.00,+1.00,-3.00,-42.00,-12.00,-7.00,-4.00,+0.00,-8.00,+7.00,-20.00
+1.00,-11.00,+2.00,-3.00,-2.00,-19.00,-11.00,+13.00,+37.00,+9.00,+7.00,+8.00,+19.00,+9.00,+13.00,+18.00
-2.00,+11.00,+0.00,+2.00,+0.00,+1.00,+1.00,+22.00,-17.00,-3.00,-4.00,-5.00,+8.00,-1.00,+6.00,+1.00
+3.00,-8.00,-5.00,-5.00,-2.00,+8.00,+5.00,+23.00,-2.00,-3.00,-2.00,-7.00,-8.00,-6.00,-7.00,+1.00
+3.00,-17.00,-6.00,+1.00,+2.00,+3.00,-2.00,-11.00,+0.00,-9.00,-4.00,-3.00,-13.00,-3.00,-5.00,-1.00
-3.00,+6.00,+3.00,-4.00,-5.00,-11.00,-5.00,-28.00,+1.00,+2.00,-2.00,-5.00,-2.00,-5.00,-6.00,-12.00
-2.00,+14.00,-2.00,-2.00,-3.00,+3.00,+1.00,-7.00,-16.00,-3.00,-3.00,+3.00,+14.00,+5.00,+5.00,+1.00
+1.00,+2.00,-2.00,-4.00,-3.00,-10.00,-6.00,+5.00,+15.00,+2.00,-3.00,-6.00,+29.00,-3.00,+11.00,+12.00
-4.00,-19.00,+3.00,+1.00,+5.00,+10.00,+9.00,-7.00,+13.00,-24.00,-2.00,+2.00,-30.00,-15.00,-10.00,-15.00
-2.00,+9.00,-1.00,-4.00,-1.00,-13.00,-2.00,+11.00,-16.00,+18.00,-5.00,-4.00,-2.00,+4.00,+1.00,+0.00
-2.00,+7.00,+0.00,+0.00,+0.00,+14.00,+3.00,+9.00,+37.00,+10.00,+2.00,+4.00,+10.00,+4.00,-3.00,+3.00
-8.00,-4.00,+3.00,+3.00,+2.00,+3.00,+2.00,+9.00,+66.00,-8.00,-3.00,-4.00,+5.00,+0.00,+3.00,-21.00
-3.00,+5.00,-1.00,-1.00,+4.00,+9.00,+4.00,+22.00,+28.00,+8.00,+3.00,-2.00,+0.00,+0.00,+2.00,+4.00
-10.00,+2.00,+1.00,-5.00,-1.00,+0.00,+0.00,-33.00,-47.00,-15.00,-5.00,-3.00,-3.00,-11.00,-11.00,-9.00
-3.00,-13.00,-1.00,-3.00,-8.00,-21.00,-6.00,-7.00,-68.00,-1.00,-1.00,+0.00,+51.00,+4.00,-3.00,-41.00
+2.00,+22.00,+1.00,+2.00,+1.00,+6.00,-13.00,+4.00,-58.00,-2.00,-2.00,-2.00,-102.00,-27.00,+9.00,+4.00
+0.00,+4.00,-2.00,-5.00,-4.00,-14.00,+2.00,-18.00,-3.00,+5.00,-3.00,-3.00,+29.00,+7.00,-13.00,+3.00
-4.00,-10.00,-2.00,+1.00,+3.00,-9.00,-18.00,+1.00,-29.00,-8.00,-2.00,-3.00,-37.00,-2.00,-5.00,-7.00
+2.00,+8.00,-3.00,-8.00,-11.00,-40.00,-2.00,-7.00,-20.00,+0.00,-2.00,+5.00,+14.00,+0.00,-6.00,+8.00
-2.00,-18.00,+1.00,+10.00,+16.00,+62.00,+10.00,+16.00,+0.00,+6.00,+2.00,-5.00,+11.00,+4.00,+9.00,+25.00
-1.00,-4.00,-4.00,-7.00,-5.00,+1.00,+6.00,+41.00,+0.00,+3.00,-2.00,-1.00,-5.00,-1.00,-3.00,-3.00
+3.00,+10.00,+3.00,+1.00,-1.00,-6.00,+0.00,-6.00,-14.00,-5.00,-1.00,+1.00,+5.00,-2.00,+2.00,-11.00
+0.00,-3.00,-1.00,-5.00,-2.00,+4.00,-2.00,-3.00,-26.00,-1.00,-1.00,-3.00,-6.00,-6.00,-2.00,+0.00
-1.00,-6.00,-3.00,+0.00,-8.00,-29.00,-1.00,+16.00,-9.00,+5.00,+2.00,+0.00,+0.00,+3.00,-7.00,+3.00
+1.00,-23.00,-2.00,-2.00,-2.00,+1.00,-4.00,+1.00,-39.00,+16.00,+1.00,+3.00,-1.00,+4.00,+9.00,+4.00
+4.00,+18.00,-1.00,-1.00,+0.00,+9.00,-1.00,+0.00,+43.00,-1.00,-1.00,-5.00,+8.00,-2.00,-2.00,+7.00
-4.00,+9.00,+0.00,+1.00,+3.00,-3.00,-22.00,-13.00,+61.00,+0.00,-2.00,+4.00,-14.00,-4.00,-4.00,+3.00
+1.00,-13.00,-4.00,-6.00,-4.00,-10.00,+40.00,+4.00,+14.00,+3.00,-1.00,-1.00,+10.00,+2.00,-3.00,-4.00
+1.00,+16.00,-2.00,-1.00,+2.00,+15.00,+3.00,+50.00,-34.00,-11.00,+1.00,+0.00,+10.00,+4.00,+3.00,+3.00
+6.00,-32.00,-2.00,+2.00,+1.00,+3.00,-3.00,-3.00,-35.00,-8.00,-3.00,-3.00,+38.00,-5.00,-3.00,-5.00
-2.00,+1.00,-3.00,+3.00,+0.00,-1.00,+7.00,+8.00,+6.00,-9.00,-2.00,-4.00,-48.00,-6.00,-1.00,+7.00
-1.00,+18.00,+1.00,-7.00,-1.00,-8.00,-20.00,+1.00,-13.00,-3.00,-3.00,-1.00,-13.00,-3.00,-4.00,-4.00
-4.00,-18.00,-3.00,-2.00,+0.00,+7.00,-2.00,-22.00,+22.00,+16.00,+0.00,-6.00,-7.00,+2.00,+1.00,-5.00
-2.00,+3.00,+1.00,-3.00,-5.00,-12.00,+6.00,+24.00,+14.00,-13.00,+0.00,+4.00,-6.00,-1.00,-4.00,+1.00
-2.00,+2.00,+0.00,-6.00,-10.00,-1.00,-7.00,-6.00,-2.00,-3.00,-1.00,+1.00,+20.00,-2.00,-4.00,-1.00
+3.00,-3.00,+1.00,+7.00,+12.00,+16.00,+4.00,+4.00,-16.00,-10.00,-2.00,-1.00,-8.00,-10.00,-4.00,-6.00
-3.00,+9.00,-1.00,+2.00,+4.00,+9.00,+10.00,-12.00,+16.00,-2.00,-1.00,-1.00,+14.00,+2.00,+0.00,+3.00
+1.00,-6.00,-2.00,-4.00,-2.00,-5.00,+1.00,-2.00,+20.00,+0.00,+0.00,-4.00,+0.00,-1.00,-2.00,+2.00
+2.00,+10.00,-4.00,+1.00,+5.00,+14.00,+4.00,-17.00,+19.00,+14.00,-1.00,+0.00,+14.00,+4.00,+2.00,+5.00
+0.00,+0.00,+4.00,-2.00,-6.00,-17.00,-6.00,-2.00,-4.00,-2.00,+1.00,+1.00,+11.00,-4.00,+1.00,+3.00
-1.00,-1.00,-1.00,-1.00,-3.00,-4.00,-6.00,-71.00,+1.00,-1.00,+2.00,+2.00,-19.00,+4.00,-4.00,-5.00
-4.00,-6.00,+2.00,+1.00,+1.00,+8.00,-1.00,-30.00,+19.00,-8.00,-7.00,-3.00,-5.00,-2.00,-2.00,+2.00
-1.00,-8.00,+2.00,-2.00,+1.00,-6.00,+5.00,+28.00,-15.00,+0.00,+1.00,-2.00,-5.00,-8.00,+0.00,-6.00
+2.00,-5.00,-7.00,-6.00,-3.00,-4.00,-3.00,-3.00,-15.00,-2.00,-2.00,-5.00,+8.00,+5.00,-4.00,+16.00
+1.00,-4.00,-1.00,+2.00,-1.00,-6.00,-7.00,+10.00,-2.00,+2.00,-3.00,-2.00,-14.00,-5.00,-2.00,-4.00
-1.00,+0.00,-3.00,-3.00,-1.00,+14.00,+3.00,+5.00,-7.00,-1.00,+1.00,+3.00,+5.00,+1.00,+2.00,+13.00
+0.00,-21.00,+1.00,+1.00,+1.00,-7.00,-1.00,-17.00,+7.00,-4.00,-2.00,+1.00,-9.00,-1.00,-3.00,-43.00
-3.00,+6.00,+0.00,+0.00,+1.00,-1.00,-7.00,-7.00,+15.00,-3.00,+0.00,-1.00,+2.00,+8.00,+10.00,+7.00
-2.00,+7.00,+3.00,-1.00,-2.00,+6.00,+1.00,+0.00,+16.00,-5.00,+0.00,+2.00,+3.00,-9.00,-4.00,+23.00
+1.00,-2.00,-2.00,-6.00,-7.00,-13.00,-1.00,+8.00,-16.00,+3.00,+0.00,+0.00,-2.00,+2.00,-7.00,-12.00
+2.00,+12.00,+3.00,+0.00,-7.00,-37.00,+1.00,+10.00,-18.00,+8.00,-1.00,+0.00,+3.00,-1.00,+1.00,+34.00
-5.00,-36.00,-4.00,+4.00,+10.00,+56.00,-1.00,+10.00,-31.00,+0.00,-1.00,-5.00,+21.00,+4.00,+8.00,-18.00
+4.00,+11.00,-1.00,-2.00,-2.00,+1.00,+3.00,+9.00,+4.00,-14.00,+0.00,+0.00,-33.00,-3.00,+1.00,-9.00
+1.00,+12.00,+2.00,-2.00,+4.00,+9.00,+5.00,+4.00,-5.00,+2.00,+0.00,-1.00,-1.00,+0.00,+4.00,+9.00
-6.00,-1.00,-2.00,-5.00,-3.00,-13.00,-6.00,-16.00,-4.00,+3.00,+0.00,+3.00,+13.00,-1.00,-2.00,+5.00
-2.00,-7.00,-2.00,-3.00,-9.00,-2.00,+3.00,+12.00,+1.00,-6.00,-6.00,-3.00,-6.00,-17.00,-13.00,-14.00
-5.00,-5.00,-1.00,+3.00,+1.00,-3.00,-2.00,+0.00,-6.00,+1.00,-1.00,+0.00,-17.00,+17.00,+6.00,+4.00
-4.00,+2.00,-1.00,-2.00,-2.00,-2.00,-3.00,-14.00,-9.00,-8.00,+0.00,+0.00,-3.00,+1.00,-1.00,+0.00
+2.00,-14.00,-2.00,-4.00,+5.00,+12.00,-1.00,-2.00,+18.00,+2.00,+1.00,-3.00,+9.00,-6.00,-1.00,-4.00
+5.00,+41.00,-1.00,-1.00,+0.00,-25.00,-2.00,+1.00,+0.00,-4.00,-4.00,-1.00,+14.00,+14.00,-1.00,-9.00
-2.00,-13.00,-3.00,-1.00,+1.00,+17.00,-2.00,+10.00,-7.00,-7.00,-4.00,-4.00,-29.00,-9.00,+1.00,-11.00
+2.00,+3.00,+1.00,-3.00,-1.00,-4.00,+3.00,-11.00,+20.00,+15.00,+2.00,-3.00,-16.00,-2.00,-4.00,+11.00
-1.00,+6.00,-2.00,-3.00,+1.00,+11.00,+1.00,-6.00,-15.00,-8.00,+1.00,+1.00,+20.00,+6.00,+16.00,+2.00
-4.00,-8.00,+1.00,+0.00,-4.00,-12.00,-6.00,+2.00,-14.00,-2.00,+0.00,-2.00,-1.00,-3.00,-12.00,-7.00
+0.00,-1.00,+1.00,-3.00,-5.00,-11.00,-4.00,+5.00,+9.00,-8.00,-1.00,+1.00,+21.00,-1.00,+5.00,+5.00
-1.00,-6.00,-3.00,-2.00,-2.00,-5.00,+0.00,+2.00,+3.00,-3.00,-2.00,-4.00,+13.00,-2.00,-2.00,-10.00
-1.00,+3.00,-1.00,+2.00,+1.00,+8.00,+3.00,+13.00,-1.00,-1.00,+0.00,+1.00,-26.00,-7.00,-6.00,+21.00
+1.00,-2.00,+1.00,-5.00,-3.00,-14.00,-19.00,-55.00,-21.00,-7.00,+1.00,-2.00,-3.00,-4.00,-2.00,-14.00
-6.00,+8.00,+1.00,+1.00,+1.00,+9.00,+12.00,-37.00,+35.00,+16.00,+0.00,+2.00,+1.00,-7.00,+0.00,+20.00
-2.00,-12.00,-4.00,-5.00,-3.00,+0.00,+5.00,+8.00,+12.00,+3.00,-2.00,+1.00,+7.00,-3.00,-1.00,-11.00
+0.00,-5.00,-4.00,+1.00,+2.00,+2.00,-8.00,+8.00,-6.00,-4.00,+0.00,+0.00,-2.00,+5.00,+0.00,-1.00
+3.00,+7.00,+0.00,-1.00,+2.00,+4.00,+1.00,+12.00,+7.00,+3.00,+0.00,+2.00,-14.00,+1.00,-3.00,+5.00
-3.00,+9.00,+0.00,+1.00,-1.00,-22.00,-5.00,+5.00,-36.00,-8.00,-4.00,-3.00,+24.00,+3.00,-3.00,-3.00
-2.00,-24.00,-4.00,-6.00,-4.00,-9.00,+0.00,-1.00,+44.00,+15.00,+2.00,+1.00,-10.00,-2.00,-1.00,+0.00
