-7.00,-42.00,-4.00,-4.00,+1.00,+4.00,+0.00,+3.00,-44.00,-20.00,-3.00,-2.00,-22.00,-3.00,-2.00,-14.00
-2.00,+3.00,+2.00,-3.00,-3.00,-7.00,-1.00,-1.00,+17.00,+20.00,+8.00,+5.00,-14.00,+1.00,+6.00,+21.00
+2.00,+22.00,-2.00,-1.00,+1.00,+0.00,-1.00,+0.00,+21.00,+4.00,+1.00,-1.00,+1.00,-4.00,-6.00,+2.00
+0.00,-8.00,-3.00,-4.00,-2.00,-5.00,+0.00,-2.00,-34.00,-19.00,-8.00,-2.00,-2.00,-2.00,-2.00,-11.00
+2.00,+3.00,+0.00,+2.00,+2.00,+4.00,-1.00,-1.00,+1.00,-8.00,-3.00,-6.00,+9.00,+0.00,-4.00,+3.00
+1.00,+4.00,-4.00,-6.00,-5.00,-20.00,-8.00,-5.00,-9.00,-6.00,-6.00,-2.00,+5.00,+0.00,-6.00,-15.00
-2.00,+1.00,+2.00,-4.00,-1.00,+13.00,+1.00,-1.00,+15.00,-2.00,+1.00,-5.00,+41.00,-3.00,-7.00,-21.00
+0.00,+26.00,+0.00,+6.00,+1.00,-30.00,-2.00,+7.00,+14.00,+8.00,+6.00,+5.00,-44.00,+1.00,+9.00,+24.00
-2.00,-9.00,+4.00,+2.00,+7.00,+19.00,+6.00,+3.00,+9.00,+13.00,+0.00,-2.00,+5.00,+3.00,+2.00,+6.00
-2.00,-14.00,-5.00,-6.00,-3.00,-2.00,-2.00,+3.00,-7.00,-8.00,-1.00,+2.00,+4.00,-4.00,+2.00,+9.00
+0.00,+27.00,+0.00,-2.00,-1.00,-3.00,-3.00,-6.00,-27.00,-3.00,-2.00,-1.00,-5.00,+3.00,-5.00,-9.00
-2.00,-18.00,-6.00,-7.00,-11.00,-15.00,-3.00,-1.00,-18.00,-14.00,-2.00,-5.00,+0.00,-6.00,-5.00,-11.00
+3.00,-2.00,-2.00,-3.00,+1.00,+6.00,-8.00,-1.00,-10.00,-5.00,+0.00,+0.00,+7.00,-8.00,-15.00,-7.00
+0.00,-7.00,-3.00,-6.00,-2.00,-11.00,-14.00,-3.00,-16.00,-8.00,-10.00,-2.00,-22.00,+12.00,+30.00,-19.00
-6.00,-15.00,+0.00,-1.00,-5.00,-13.00,+22.00,+7.00,+51.00,+35.00,+10.00,-15.00,-20.00,-9.00,+38.00,+46.00
-7.00,+30.00,+5.00,+6.00,+9.00,+54.00,+3.00,-3.00,-36.00,-24.00,+2.00,+13.00,+33.00,+4.00,-64.00,-26.00
+0.00,-11.00,-1.00,-3.00,-4.00,-8.00,+4.00,-3.00,+43.00,+17.00,+2.00,+8.00,-41.00,+13.00,+12.00,+24.00
-2.00,-19.00,-5.00,-3.00,-3.00,+6.00,-9.00,-4.00,-20.00,-4.00,+1.00,-2.00,-3.00,-9.00,-5.00,+4.00
-2.00,-57.00,-14.00,-8.00,-7.00,-12.00,-15.00,-6.00,+52.00,+17.00,-1.00,-1.00,+36.00,+7.00,-7.00,-3.00
-6.00,-24.00,+9.00,-1.00,+0.00,-20.00,+8.00,+3.00,-10.00,-16.00,-7.00,-5.00,+11.00,-6.00,+14.00,-5.00
-3.00,+22.00,+1.00,+3.00,+2.00,-2.00,-5.00,-8.00,-37.00,-7.00,-5.00,-12.00,-2.00,-7.00,-9.00,-16.00
+4.00,+24.00,+6.00,+7.00,+6.00,+28.00,+12.00,-1.00,+47.00,-6.00,-3.00,+5.00,-21.00,+1.00,-9.00,+19.00
+1.00,-3.00,-1.00,-3.00,+0.00,+1.00,-3.00,-1.00,+4.00,+26.00,+10.00,+10.00,-30.00,+2.00,+2.00,+10.00
+3.00,-24.00,-7.00,-6.00,-2.00,-2.00,-2.00,-4.00,+13.00,-7.00,-5.00,-3.00,+5.00,-10.00,-4.00,-30.00
+0.00,-15.00,-3.00,-6.00,-7.00,-13.00,-4.00,+3.00,-40.00,-31.00,-12.00,-5.00,+25.00,-2.00,-5.00,+40.00
+1.00,-10.00,-6.00,-5.00,-7.00,-11.00,-2.00,+0.00,+32.00,+9.00,+5.00,-3.00,-30.00,-16.00,+3.00,+19.00
+1.00,-7.00,+2.00,+2.00,+3.00,-5.00,+2.00,-5.00,-35.00,-14.00,+5.00,+1.00,+14.00,+30.00,+7.00,+25.00
-2.00,+9.00,+2.00,+3.00,+7.00,+15.00,-11.00,-1.00,-7.00,-5.00,+2.00,+1.00,-8.00,-5.00,+0.00,-17.00
+3.00,-6.00,+0.00,+0.00,-1.00,+2.00,+2.00,-4.00,+24.00,-4.00,-3.00,-2.00,-5.00,+6.00,+2.00,-18.00
-2.00,+9.00,-2.00,-3.00,-3.00,+1.00,+6.00,+2.00,-51.00,-24.00,-8.00,-25.00,+3.00,-18.00,-11.00,-25.00
-3.00,+7.00,-1.00,-4.00,-5.00,-29.00,-8.00,-1.00,+33.00,-11.00,-8.00,+9.00,+22.00,-32.00,-14.00,-9.00
+0.00,+20.00,+0.00,+0.00,-1.00,+6.00,+2.00,-1.00,-22.00,+12.00,+0.00,+3.00,-88.00,+24.00,+24.00,+31.00
-2.00,+21.00,-2.00,-4.00,-2.00,+5.00,+4.00,+2.00,-5.00,+2.00,-2.00,-3.00,+40.00,-6.00,-3.00,-40.00
-6.00,-6.00,-7.00,-8.00,-3.00,-12.00,-36.00,-5.00,-59.00,+8.00,+0.00,-2.00,-59.00,-8.00,-15.00,+38.00
+4.00,-13.00,+6.00,+8.00,+4.00,-17.00,+40.00,+10.00,-29.00,-17.00,-5.00,+5.00,+14.00,+4.00,-1.00,-5.00
-7.00,+19.00,+3.00,-3.00,-7.00,+5.00,-5.00,-1.00,-7.00,+14.00,-3.00,-8.00,+21.00,+1.00,+12.00,-10.00
+3.00,-32.00,-5.00,+7.00,+11.00,+4.00,+15.00,+4.00,-24.00,-2.00,+4.00,+2.00,+23.00,-2.00,+3.00,-6.00
-1.00,+18.00,+2.00,+0.00,+5.00,+36.00,+11.00,+3.00,-28.00,+18.00,-3.00,-1.00,-21.00,+2.00,+2.00,+15.00
-6.00,+0.00,-4.00,-6.00,-6.00,-1.00,-19.00,-8.00,-16.00,+8.00,-1.00,-8.00,-2.00,+4.00,-9.00,-51.00
+4.00,-29.00,-7.00,-1.00,+0.00,+27.00,+1.00,-5.00,-2.00,-19.00,+3.00,-9.00,-12.00,-17.00,+5.00,+32.00
+0.00,+16.00,-3.00,-9.00,-9.00,-24.00,-10.00,+8.00,+37.00,+4.00,+3.00,+15.00,-5.00,+15.00,+2.00,+1.00
+2.00,-2.00,+4.00,+3.00,+3.00,+4.00,+6.00,-2.00,+5.00,-13.00,-2.00,+8.00,+42.00,+4.00,-2.00,-27.00
+1.00,+3.00,+1.00,+7.00,+10.00,+37.00,+5.00,+1.00,+38.00,+8.00,-6.00,-5.00,-15.00,+3.00,-12.00,+1.00
-1.00,-14.00,-7.00,-9.00,-4.00,-18.00,-3.00,+5.00,+3.00,-37.00,-5.00,-6.00,+39.00,-6.00,+2.00,+18.00
+2.00,-52.00,-7.00,-12.00,-10.00,-2.00,-15.00,-8.00,+7.00,+40.00,+12.00,+1.00,-22.00,-2.00,+5.00,-3.00
-5.00,-46.00,-1.00,+6.00,+1.00,-8.00,+10.00,-8.00,+15.00,+2.00,+3.00,-5.00,+38.00,+6.00,-3.00,+8.00
+4.00,+99.00,+11.00,+6.00,+1.00,-5.00,-29.00,+2.00,-34.00,-21.00,-9.00,+1.00,-29.00,-11.00,+3.00,-13.00
-2.00,+28.00,+4.00,+0.00,+2.00,-9.00,+38.00,-15.00,+30.00,+26.00,+1.00,+5.00,-10.00,+10.00,-9.00,-39.00
-2.00,-21.00,-3.00,-5.00,-3.00,-2.00,-8.00,-4.00,-35.00,-47.00,-8.00,-11.00,-11.00,+2.00,+6.00,+31.00
-4.00,+15.00,-5.00,-12.00,-12.00,-19.00,+2.00,-11.00,+74.00,+43.00,+3.00,+10.00,+13.00,-6.00,-8.00,-27.00
+2.00,-30.00,-6.00,-1.00,-1.00,+48.00,-10.00,+2.00,+14.00,-20.00,+5.00,-1.00,-6.00,+3.00,+8.00,+31.00
+0.00,-28.00,-2.00,-1.00,-2.00,-85.00,-21.00,-16.00,-44.00,-26.00,-11.00,-19.00,+53.00,-42.00,-11.00,-29.00
-5.00,+18.00,+0.00,-2.00,+1.00,+34.00,+5.00,-2.00,+63.00,+22.00,-1.00,+5.00,-53.00,+32.00,-14.00,+44.00
+0.00,-20.00,-2.00,+0.00,+1.00,+10.00,-11.00,-23.00,-3.00,+3.00,+3.00,+16.00,+6.00,+19.00,+10.00,-29.00
-6.00,+19.00,+1.00,+1.00,+2.00,+15.00,+17.00,+25.00,-17.00,-13.00,-11.00,-13.00,-29.00,-4.00,+17.00,-6.00
+2.00,-15.00,-3.00,-2.00,-3.00,-6.00,-8.00,+10.00,+31.00,-6.00,+1.00,+1.00,+23.00,+5.00,-29.00,+14.00
-1.00,-25.00,+1.00,+2.00,-5.00,-4.00,+6.00,-6.00,-51.00,-6.00,-1.00,+0.00,-10.00,-36.00,-11.00,-25.00
-2.00,+17.00,+1.00,-3.00,+0.00,-33.00,-2.00,+13.00,+50.00,+13.00,-7.00,-14.00,+11.00,-2.00,-7.00,-4.00
-1.00,-41.00,-8.00,-7.00,-5.00,-38.00,-31.00,-15.00,-63.00,+2.00,+10.00,+11.00,-10.00,+9.00,+12.00,+47.00
-1.00,+40.00,+6.00,+6.00,+10.00,+51.00,+48.00,+10.00,+9.00,+15.00,-3.00,-5.00,+2.00,+8.00,+9.00,+2.00
-4.00,+17.00,+1.00,+3.00,+4.00,+19.00,-8.00,-1.00,-28.00,-11.00,-3.00,-7.00,+18.00,-5.00,+5.00,-24.00
+0.00,-2.00,+1.00,-1.00,-4.00,+11.00,+11.00,+11.00,+32.00,-9.00,-4.00,-9.00,-16.00,+1.00,-9.00,-1.00
-4.00,-15.00,-7.00,-9.00,-6.00,-23.00,-7.00,-44.00,+7.00,+25.00,+1.00,+3.00,+3.00,-10.00,-2.00,-44.00
+3.00,-26.00,+3.00,-1.00,+2.00,+20.00,-7.00,+7.00,+44.00,-9.00,-4.00,+1.00,-8.00,+10.00,+12.00,+50.00
-2.00,+8.00,+7.00,+7.00,+1.00,-12.00,-2.00,+2.00,+24.00,+36.00,+4.00,-3.00,+9.00,-4.00,+4.00,+12.00
+2.00,-4.00,+3.00,+0.00,+5.00,+11.00,+3.00,-4.00,-40.00,+0.00,-3.00,-1.00,-2.00,-8.00,-3.00,-16.00
-4.00,+13.00,-4.00,-5.00,-8.00,-42.00,+1.00,+4.00,+15.00,-13.00,-5.00,-4.00,+27.00,+1.00,-16.00,-17.00
-3.00,-10.00,-1.00,+1.00,-2.00,+17.00,-14.00,+20.00,-6.00,-1.00,+5.00,+6.00,-37.00,+1.00,-8.00,-7.00
-3.00,-2.00,-6.00,-9.00,+0.00,+6.00,+6.00,+9.00,+24.00,+22.00,-3.00,-4.00,-2.00,+4.00,+7.00,-35.00
+4.00,-21.00,-2.00,+8.00,+0.00,+5.00,-9.00,-10.00,-17.00,-8.00,+2.00,-3.00,+20.00,+0.00,-19.00,-5.00
-1.00,+13.00,+4.00,+4.00,+5.00,-7.00,+8.00,+5.00,+56.00,-12.00,-4.00,-13.00,+25.00,+0.00,+8.00,-6.00
-9.00,+1.00,-8.00,-17.00,-14.00,+0.00,-21.00,-6.00,-6.00,+37.00,+0.00,+15.00,-24.00,+21.00,+9.00,-41.00
+7.00,+8.00,+4.00,+5.00,-1.00,-59.00,+7.00,+8.00,-17.00,-12.00,+1.00,+15.00,+35.00,-6.00,-13.00,-16.00
-4.00,+11.00,+0.00,+5.00,+3.00,+0.00,+11.00,+8.00,-72.00,-24.00,-3.00,-10.00,-28.00,-8.00,-4.00,-33.00
+0.00,-77.00,-13.00,-8.00,+0.00,+18.00,-8.00,+26.00,+42.00,+2.00,-4.00,-6.00,+13.00,-20.00,+5.00,+25.00
+3.00,+86.00,+9.00,+2.00,-5.00,-26.00,-2.00,-19.00,-21.00,+27.00,+10.00,+9.00,-52.00,+26.00,-17.00,+40.00
-4.00,+6.00,-2.00,+0.00,+6.00,+78.00,-2.00,-7.00,-15.00,-9.00,-4.00,-8.00,+0.00,-17.00,-1.00,+18.00
+2.00,+27.00,-1.00,-6.00,-7.00,-23.00,-8.00,+7.00,-24.00,-13.00,-6.00,-2.00,+9.00,+7.00,+10.00,+9.00
-1.00,+16.00,+12.00,+10.00,+7.00,+16.00,+24.00,+25.00,-76.00,-14.00,+5.00,+4.00,+17.00,+3.00,-8.00,-8.00
-4.00,-30.00,-10.00,-7.00,-5.00,-14.00,-20.00,-15.00,+17.00,+34.00,-15.00,-24.00,-50.00,-35.00,-14.00,-11.00
-3.00,-4.00,+0.00,-5.00,-8.00,-20.00,-9.00,-23.00,+50.00,-7.00,+15.00,+12.00,+26.00,+17.00,+30.00,+27.00
+4.00,-13.00,-3.00,-2.00,-3.00,-16.00,+2.00,+24.00,-8.00,-18.00,+2.00,+4.00,+10.00,-1.00,-6.00,-5.00
-3.00,+8.00,-4.00,+2.00,+4.00,+36.00,-3.00,+7.00,-24.00,-14.00,-7.00,+4.00,-13.00,-4.00,-20.00,-32.00
-1.00,-76.00,-4.00,+1.00,+2.00,-4.00,+3.00,+4.00,+43.00,-8.00,-6.00,-22.00,+14.00,-1.00,+17.00,-9.00
-1.00,+25.00,+1.00,+3.00,+4.00,-7.00,+0.00,-11.00,-5.00,+9.00,+2.00,+13.00,-32.00,-10.00,-20.00,+52.00
-7.00,-2.00,+1.00,-6.00,-1.00,+6.00,+6.00,+26.00,-8.00,-2.00,-3.00,+4.00,+18.00,-3.00,+10.00,-29.00
-1.00,+31.00,-2.00,-5.00,-4.00,-16.00,+1.00,+3.00,+3.00,-4.00,+7.00,+0.00,-20.00,-13.00,+5.00,+50.00
-5.00,+11.00,-1.00,+4.00,+8.00,+11.00,-5.00,-64.00,-10.00,+9.00,+3.00,+1.00,+106.00,+33.00,-15.00,-17.00
-4.00,-30.00,-4.00,+1.00,-2.00,-6.00,+5.00,+24.00,+8.00,-6.00,-5.00,-10.00,-105.00,+4.00,+5.00,+6.00
-2.00,-5.00,+2.00,+1.00,+0.00,-7.00,-4.00,+31.00,+29.00,+1.00,+8.00,+3.00,-5.00,+3.00,+10.00,+12.00
-8.00,-4.00,-4.00,-10.00,-6.00,-17.00,-4.00,-71.00,-19.00,+9.00,-5.00,-6.00,-3.00,-20.00,-13.00,-13.00
+2.00,-13.00,-5.00,+6.00,-1.00,+10.00,-25.00,+19.00,-25.00,-43.00,-5.00,+0.00,-31.00,-9.00,+1.00,-28.00
-5.00,+13.00,+4.00,+0.00,-3.00,-31.00,+31.00,+10.00,+30.00,+68.00,-1.00,-1.00,+42.00,+3.00,+3.00,+13.00
-1.00,+14.00,-2.00,-3.00,+0.00,+66.00,+0.00,-30.00,-97.00,-39.00,-2.00,-4.00,-10.00,-2.00,-9.00,-31.00
+1.00,-7.00,-6.00,-5.00,-3.00,-10.00,+2.00,+6.00,+7.00,+13.00,+2.00,-6.00,+7.00,-1.00,-2.00,+6.00
+2.00,+52.00,+10.00,-2.00,+9.00,+17.00,+11.00,+21.00,+56.00,+36.00,+9.00,+13.00,-21.00,+1.00,+52.00,+88.00
+0.00,+2.00,-1.00,-6.00,-3.00,-10.00,-13.00,-16.00,-12.00,-63.00,-14.00,-3.00,+16.00,-15.00,-21.00,-15.00
+0.00,-19.00,-4.00,-2.00,-7.00,-23.00,-29.00,-3.00,+13.00,+61.00,+5.00,+7.00,-17.00,-7.00,-8.00,+3.00
+1.00,+26.00,+5.00,+5.00,-1.00,-5.00,+13.00,+5.00,-30.00,-57.00,-2.00,+3.00,+5.00,+15.00,-1.00,-10.00
-3.00,-110.00,-17.00,-13.00,-11.00,-10.00,-4.00,+3.00,-31.00,+9.00,-8.00,-17.00,-8.00,-15.00,-8.00,-39.00
+3.00,+97.00,+12.00,+17.00,+9.00,+7.00,-5.00,-4.00,-1.00,-8.00,+1.00,+6.00,+0.00,+0.00,+18.00,+10.00
-2.00,+13.00,+4.00,-4.00,+2.00,-10.00,+2.00,-12.00,+32.00,+6.00,-2.00,-3.00,+38.00,-11.00,+3.00,+36.00
+1.00,-1.00,-1.00,+0.00,-5.00,+6.00,-19.00,-9.00,+17.00,+8.00,+1.00,+9.00,+34.00,+11.00,+38.00,-9.00
+0.00,-14.00,-6.00,-6.00,-4.00,-35.00,-27.00,-14.00,-41.00,+0.00,+1.00,+1.00,-68.00,+0.00,-46.00,+16.00
+1.00,-58.00,-3.00,-2.00,+6.00,+4.00,+31.00,+6.00,+18.00,-13.00,-3.00,-3.00,+6.00,+11.00,+1.00,-27.00
+2.00,-41.00,-8.00,-3.00,-2.00,+1.00,+3.00,+5.00,-34.00,-11.00,-4.00,-7.00,-29.00,-2.00,-6.00,-13.00
+0.00,+46.00,+10.00,+8.00,+0.00,+1.00,+10.00,-27.00,+104.00,+30.00,+0.00,-4.00,+6.00,-3.00,-3.00,+9.00
-1.00,+5.00,-4.00,-1.00,-11.00,-22.00,+2.00,+39.00,-66.00,-22.00,+2.00,+5.00,+9.00,+2.00,+17.00,+38.00
-1.00,-48.00,-6.00,+4.00,+4.00,+15.00,-6.00,+43.00,+8.00,+30.00,+12.00,+3.00,+39.00,+6.00,+0.00,-29.00
-1.00,+29.00,+6.00,+7.00,+4.00,-5.00,+1.00,-4.00,+14.00,-15.00,-3.00,-3.00,+6.00,+1.00,+3.00,+10.00
-2.00,-25.00,-5.00,-4.00,-4.00,+9.00,+19.00,+25.00,+8.00,+10.00,-2.00,+2.00,-29.00,+13.00,-14.00,+3.00
-6.00,+16.00,-1.00,+0.00,-2.00,-12.00,+3.00,-15.00,-13.00,+3.00,+0.00,+8.00,-1.00,-6.00,+6.00,-21.00
-2.00,-48.00,-5.00,-1.00,+0.00,+24.00,-10.00,-15.00,+8.00,-19.00,-8.00,-10.00,+19.00,-8.00,+0.00,+3.00
-4.00,+35.00,+3.00,+0.00,-4.00,-13.00,+7.00,+8.00,+61.00,+17.00,+2.00,-6.00,+8.00,+28.00,+15.00,+22.00
+0.00,+3.00,-5.00,-3.00,-1.00,+7.00,-24.00,-2.00,-90.00,-42.00,-10.00,+5.00,-13.00,-8.00,-24.00,-55.00
+4.00,-46.00,+3.00,+9.00,+9.00,-20.00,+33.00,+17.00,+97.00,+42.00,-2.00,+0.00,+15.00,-3.00,+8.00,+82.00
-2.00,+41.00,-6.00,-6.00,-3.00,+23.00,-1.00,-31.00,-37.00,-13.00,-1.00,-8.00,-8.00,-4.00,-15.00,-35.00
-6.00,-31.00,-2.00,+3.00,+1.00,+8.00,-6.00,-13.00,-48.00,+7.00,+0.00,-3.00,-16.00,-26.00,+10.00,-10.00
-2.00,+22.00,+5.00,+2.00,+1.00,+0.00,+3.00,+3.00,+53.00,+49.00,+5.00,+3.00,+8.00,+27.00,+4.00,+13.00
-3.00,+0.00,-3.00,-12.00,-8.00,-10.00,-10.00,+24.00,-17.00,-49.00,-6.00,-7.00,+6.00,-3.00,-8.00,-45.00
-2.00,+42.00,+7.00,+4.00,+1.00,-7.00,-20.00,-87.00,-17.00,-16.00,-10.00,-1.00,+18.00,-12.00,-9.00,+1.00
-1.00,-28.00,-11.00,-5.00,+1.00,-1.00,-16.00,-13.00,+14.00,-1.00,-3.00,-4.00,+84.00,+8.00,+1.00,+10.00
+3.00,-10.00,+3.00,+1.00,-8.00,-53.00,+16.00,-1.00,-15.00,-15.00,-2.00,+5.00,-111.00,-35.00,-16.00,-5.00
+3.00,+9.00,+1.00,+7.00,+15.00,+80.00,+23.00,+2.00,-22.00,+2.00,+3.00,+3.00,+49.00,-1.00,-1.00,-31.00
-5.00,-27.00,-3.00,-6.00,-10.00,-15.00,-11.00,+21.00,-18.00,+2.00,-5.00,-32.00,-32.00,+13.00,+0.00,+46.00
+2.00,+2.00,+0.00,+1.00,+6.00,+13.00,-12.00,-5.00,-23.00,-12.00,+1.00,+2.00,-16.00,-33.00,-37.00,+13.00
-4.00,+0.00,-4.00,-6.00,-4.00,-18.00,+1.00,+21.00,-40.00,+3.00,+3.00,+18.00,+55.00,+39.00,+27.00,-20.00
+5.00,-3.00,+5.00,+4.00,+8.00,+33.00,-5.00,-41.00,+20.00,+6.00,+0.00,+8.00,+1.00,+21.00,-31.00,-25.00
-4.00,+14.00,+5.00,+2.00,-2.00,+1.00,+11.00,+17.00,-23.00,+3.00,+5.00,+1.00,-14.00,-8.00,+22.00,+25.00
+1.00,+31.00,+8.00,+0.00,-2.00,-16.00,+1.00,-24.00,-16.00,-3.00,-5.00,+3.00,-11.00,+9.00,+6.00,-12.00
+1.00,-15.00,-5.00,-1.00,+0.00,-8.00,-16.00,+17.00,+14.00,-21.00,+4.00,-14.00,-5.00,-7.00,-4.00,+45.00
-7.00,+7.00,+3.00,+0.00,-3.00,+2.00,-10.00,-8.00,-74.00,-2.00,-3.00,+0.00,-13.00,-29.00,-4.00,-48.00
+3.00,-37.00,-7.00,-6.00,-2.00,-3.00,+0.00,+16.00,+97.00,+13.00,+2.00,+1.00,+14.00,+15.00,+4.00,+29.00
+3.00,+28.00,+2.00,-1.00,+0.00,-9.00,+11.00,+5.00,+4.00,+11.00,-1.00,+1.00,-19.00,+5.00,+9.00,+61.00
+1.00,-4.00,-4.00,-5.00,-2.00,+16.00,-10.00,-19.00,-9.00,-15.00,-4.00,-4.00,-4.00,-11.00,-7.00,-27.00
-7.00,-22.00,-8.00,-5.00,-3.00,-17.00,+1.00,+38.00,+9.00,-19.00,-3.00,-4.00,+12.00,+0.00,+12.00,+2.00
+2.00,-4.00,-2.00,-3.00,-5.00,-12.00,-20.00,-20.00,-47.00,-18.00,-4.00,+0.00,-4.00,-4.00,-8.00,-55.00
-2.00,+31.00,+5.00,+1.00,-3.00,+0.00,+18.00,+29.00,+26.00,-8.00,+0.00,+2.00,-7.00,+2.00,+18.00,-23.00
+5.00,-13.00,-3.00,+5.00,+5.00,+3.00,-4.00,+6.00,-20.00,-1.00,-7.00,-11.00,-8.00,-10.00,-15.00,-27.00
-5.00,+27.00,+1.00,-12.00,-7.00,-6.00,-2.00,+10.00,+46.00,+23.00,+1.00,-2.00,+29.00,-3.00,-2.00,+2.00
-1.00,-20.00,-5.00,-5.00,-3.00,-4.00,+0.00,+17.00,-19.00,+7.00,+1.00,+3.00,-25.00,-8.00,-8.00,-16.00
+1.00,-22.00,-7.00,-5.00,-7.00,-4.00,-12.00,-15.00,+11.00,-10.00,-2.00,+2.00,-14.00,-1.00,-5.00,+0.00
+1.00,+4.00,+2.00,+10.00,+13.00,+52.00,+44.00,+4.00,-3.00,-10.00,-5.00,-10.00,+4.00,+4.00,+1.00,-2.00
+0.00,-11.00,-1.00,-2.00,-4.00,-18.00,-7.00,-1.00,-67.00,+20.00,+1.00,+2.00,+14.00,-1.00,+5.00,-5.00
-4.00,+4.00,-3.00,-12.00,-8.00,-68.00,-24.00,-20.00,+96.00,-3.00,-1.00,+1.00,+3.00,+3.00,+13.00,-20.00
+0.00,-32.00,-6.00,+2.00,+9.00,+33.00,-3.00,-5.00,+2.00,-6.00,+5.00,-4.00,-39.00,-2.00,-4.00,-9.00
-4.00,+21.00,+6.00,+3.00,-2.00,-3.00,-2.00,-8.00,+10.00,+6.00,+1.00,+6.00,+12.00,-42.00,+22.00,+2.00
-2.00,+24.00,-1.00,+2.00,+2.00,-5.00,-17.00,-12.00,-71.00,-23.00,+0.00,+1.00,+12.00,+38.00,-10.00,-4.00
+4.00,+11.00,+1.00,-1.00,+0.00,+23.00,+14.00,+25.00,-3.00,+4.00,-6.00,+0.00,-2.00,-8.00,-10.00,-8.00
+2.00,-9.00,-4.00,-7.00,-8.00,-34.00,-14.00,-44.00,+10.00,+4.00,+1.00,-8.00,+5.00,+3.00,-10.00,+1.00
-1.00,-24.00,+8.00,+3.00,+0.00,-10.00,-18.00,-6.00,+12.00,+5.00,-2.00,-7.00,-7.00,+6.00,+4.00,+38.00
+1.00,+19.00,-5.00,-1.00,-3.00,+10.00,+14.00,+2.00,+27.00,-16.00,-4.00,-3.00,-37.00,-25.00,+2.00,+36.00
-6.00,+43.00,+6.00,-3.00,+2.00,-8.00,-1.00,+18.00,-50.00,-13.00,-9.00,-4.00,+28.00,+0.00,-7.00,-24.00
+0.00,-27.00,-4.00,+1.00,+0.00,-5.00,+1.00,-2.00,-39.00,+8.00,+2.00,+3.00,+5.00,+8.00,+1.00,-16.00
-2.00,+21.00,+1.00,-5.00,+1.00,+9.00,-3.00,+7.00,+39.00,+6.00,+1.00,+0.00,-1.00,+3.00,-7.00,+38.00
-3.00,-26.00,-1.00,-4.00,-4.00,-5.00,-15.00,-19.00,+35.00,-9.00,-5.00,-5.00,+3.00,-16.00,-1.00,-24.00
+1.00,-14.00,-3.00,-3.00,+0.00,-1.00,+17.00,+25.00,-46.00,+13.00,+5.00,+0.00,-7.00,+4.00,+2.00,+42.00
+0.00,-2.00,-1.00,+1.00,+1.00,+2.00,+5.00,-38.00,-17.00,-15.00,-5.00,+0.00,+3.00,+3.00,+20.00,+21.00
-5.00,-22.00,-8.00,-6.00,-4.00,+5.00,-4.00,-20.00,-14.00,-1.00,+2.00,+5.00,-7.00,+3.00,-12.00,-4.00
+5.00,+17.00,+5.00,-1.00,-3.00,-16.00,-3.00,-8.00,-7.00,-25.00,-8.00,-6.00,-2.00,-2.00,-8.00,-22.00
+0.00,-21.00,-4.00,-5.00,+1.00,+8.00,-2.00,+5.00,+14.00,+6.00,+1.00,+0.00,-7.00,+2.00,+3.00,+11.00
+0.00,+7.00,+0.00,-2.00,+1.00,-1.00,+7.00,+33.00,+19.00,-2.00,-3.00,-1.00,-14.00,-5.00,+1.00,+14.00
-4.00,+11.00,-3.00,-7.00,-5.00,-12.00,-12.00,+8.00,-22.00,+6.00,-4.00,-4.00,+14.00,+3.00,-13.00,-18.00
+0.00,-25.00,+0.00,+0.00,-1.00,-1.00,-1.00,+23.00,+7.00,-10.00,-1.00,-3.00,-11.00,+2.00,+21.00,-2.00
-2.00,-15.00,-5.00,+0.00,-10.00,-47.00,-7.00,-31.00,-23.00,-3.00,-5.00,-13.00,+70.00,-7.00,-28.00,-39.00
-2.00,+53.00,+7.00,+4.00,+5.00,+44.00,-33.00,+0.00,+34.00,+16.00,+7.00,+21.00,-86.00,+2.00,+25.00,+25.00
-6.00,+11.00,+0.00,+4.00,+11.00,+39.00,+54.00,+8.00,-3.00,+1.00,+3.00,+0.00,+15.00,-5.00,-10.00,-13.00
+0.00,+9.00,-2.00,-2.00,+1.00,-18.00,-4.00,-4.00,+9.00,+23.00,+3.00,+6.00,+9.00,+17.00,+2.00,-1.00
-5.00,-17.00,-3.00,-6.00,-5.00,-22.00,-2.00,-4.00,-11.00,-10.00,-3.00,+1.00,-11.00,-5.00,-7.00,-2.00
-4.00,-19.00,-3.00,-1.00,-2.00,+0.00,+1.00,+2.00,-1.00,-9.00,-5.00,-11.00,+29.00,-2.00,-15.00,-25.00
+1.00,-5.00,-2.00,-3.00,-5.00,-16.00,-19.00,-3.00,-60.00,-27.00,-8.00,-8.00,-15.00,+3.00,+2.00,+5.00
+2.00,+17.00,-1.00,-3.00,-1.00,+12.00,+10.00,-13.00,+92.00,+30.00,+4.00,+9.00,-15.00,-11.00,-3.00,-12.00
-2.00,-2.00,-6.00,-7.00,-4.00,+2.00,-8.00,+4.00,-27.00,-9.00,+3.00,-1.00,-7.00,+0.00,+7.00,-3.00
+0.00,+7.00,+6.00,+4.00,-1.00,-27.00,+6.00,-6.00,+18.00,+15.00,-1.00,+0.00,+19.00,+8.00,-6.00,-2.00
-1.00,-23.00,-3.00,-3.00,+1.00,+4.00,-8.00,+8.00,-7.00,-6.00,-1.00,-1.00,-15.00,-1.00,+3.00,+6.00
+4.00,+21.00,+0.00,-2.00,-3.00,-4.00,+7.00,-26.00,-37.00,-16.00,-2.00,-5.00,+16.00,-2.00,-1.00,+5.00
+2.00,-44.00,-4.00,-2.00,+1.00,+17.00,-13.00,+36.00,+13.00,-1.00,-6.00,-1.00,-20.00,+1.00,-2.00,-3.00
+5.00,+45.00,+5.00,+0.00,-1.00,-3.00,+8.00,-17.00,-40.00,-18.00,-8.00,-8.00,+55.00,-18.00,-22.00,-60.00
-6.00,+1.00,+6.00,+0.00,-3.00,-3.00,-4.00,+13.00,+52.00,+69.00,+11.00,+12.00,-57.00,+23.00,+4.00,+9.00
-1.00,+4.00,-5.00,-5.00,-3.00,-4.00,-7.00,-10.00,+1.00,-18.00,+2.00,-3.00,+22.00,-7.00,-2.00,+1.00
+4.00,+26.00,+2.00,+6.00,+6.00,+12.00,-1.00,+5.00,-4.00,+0.00,+4.00,+8.00,-16.00,+3.00,+0.00,-13.00
-3.00,-54.00,-4.00,+0.00,-1.00,-3.00,+13.00,+3.00,+2.00,+7.00,+0.00,-1.00,-1.00,+3.00,+7.00,+30.00
+0.00,-11.00,-4.00,-5.00,-5.00,-11.00,-13.00,-10.00,+3.00,-7.00,-7.00,-9.00,+30.00,-4.00,-9.00,-10.00
-3.00,+8.00,-1.00,+1.00,+0.00,-2.00,-1.00,-13.00,-44.00,-4.00,+2.00,-1.00,-9.00,-3.00,-1.00,-7.00
+2.00,-15.00,+1.00,-9.00,-9.00,+2.00,-4.00,-25.00,-75.00,-13.00,-3.00,+1.00,-25.00,-9.00,+5.00,-9.00
+0.00,+25.00,+5.00,+6.00,+13.00,-4.00,+27.00,+26.00,+36.00,-14.00,-8.00,-5.00,+20.00,+8.00,+8.00,-23.00
+2.00,+6.00,-1.00,+1.00,+0.00,+7.00,-8.00,-19.00,-9.00,-7.00,-1.00,-21.00,-20.00,-12.00,-3.00,-26.00
+0.00,+1.00,+0.00,+2.00,+4.00,+1.00,-3.00,+16.00,+35.00,+26.00,+12.00,+27.00,+4.00,+25.00,-11.00,+42.00
-4.00,-15.00,-6.00,+3.00,+2.00,+22.00,+5.00,-7.00,+4.00,-8.00,-4.00,-1.00,-1.00,-9.00,+3.00,-38.00
-2.00,-3.00,-7.00,-7.00,-9.00,-28.00,-11.00,+11.00,+14.00,+5.00,+4.00,+6.00,-2.00,-2.00,+2.00,+21.00
-1.00,-15.00,+0.00,-4.00,-2.00,-17.00,-7.00,+6.00,+6.00,+0.00,-4.00,-17.00,+8.00,+23.00,+23.00,+4.00
+2.00,-16.00,-2.00,+1.00,+1.00,+12.00,+5.00,-2.00,-5.00,-36.00,-10.00,+0.00,+63.00,-15.00,-35.00,-4.00
+2.00,+41.00,+4.00,+1.00,-2.00,-15.00,-4.00,-4.00,-10.00,-11.00,+1.00,-6.00,-63.00,+10.00,-1.00,+18.00
-6.00,-5.00,-2.00,-1.00,-3.00,-2.00,-1.00,+0.00,+22.00,+22.00,+5.00,-11.00,-87.00,-15.00,-26.00,+9.00
+1.00,+7.00,-2.00,+1.00,+0.00,+1.00,-4.00,-7.00,+11.00,+0.00,+1.00,+19.00,+86.00,+8.00,+20.00,+5.00
-1.00,-10.00,-2.00,-6.00,-3.00,-1.00,+0.00,+1.00,-8.00,-6.00,-2.00,+11.00,-62.00,-13.00,+5.00,+4.00
-6.00,-24.00,-2.00,+0.00,-1.00,+3.00,-3.00,-14.00,+23.00,+7.00,-1.00,+4.00,+27.00,+4.00,+3.00,+10.00
+3.00,+1.00,-7.00,-8.00,-9.00,+3.00,+4.00,+15.00,-15.00,-7.00,+2.00,+2.00,+11.00,-3.00,-6.00,-5.00
+3.00,-10.00,+2.00,+6.00,+5.00,-13.00,+2.00,+0.00,-9.00,-3.00,-3.00,-5.00,+7.00,-16.00,-22.00,-26.00
-3.00,+12.00,+2.00,+1.00,+4.00,+11.00,+2.00,+4.00,-13.00,-1.00,-2.00,-10.00,+18.00,+6.00,+17.00,+14.00
+2.00,+15.00,+1.00,+3.00,+6.00,+7.00,+1.00,+8.00,+17.00,+8.00,+3.00,-2.00,-42.00,-8.00,-7.00,+3.00
-5.00,-20.00,-4.00,+0.00,+0.00,+13.00,+5.00,-8.00,-2.00,+5.00,-2.00,-4.00,-6.00,+2.00,+13.00,+70.00
-3.00,-14.00,-6.00,-6.00,-6.00,-20.00,-9.00,-14.00,+4.00,-4.00,-1.00,+1.00,+1.00,-2.00,-9.00,+7.00
-1.00,+8.00,+1.00,+0.00,-2.00,-9.00,-2.00,-14.00,-14.00,-2.00,+1.00,-6.00,-3.00,-2.00,+11.00,-4.00
-1.00,+14.00,+1.00,-3.00,+1.00,+2.00,-3.00,+24.00,+1.00,+0.00,-2.00,-5.00,-5.00,-21.00,-17.00,-12.00
+0.00,-27.00,-4.00,-6.00,-5.00,-7.00,-7.00,-21.00,-8.00,-13.00,-7.00,-14.00,+111.00,+43.00,+38.00,+12.00
-1.00,+27.00,+2.00,-6.00,-4.00,+5.00,-29.00,-5.00,+2.00,+2.00,+3.00,+22.00,-105.00,-34.00,-14.00,-32.00
-2.00,-27.00,+8.00,+13.00,+11.00,+4.00,+44.00,+46.00,-13.00,-7.00,-8.00,-8.00,-6.00,-3.00,-2.00,-30.00
-1.00,-1.00,-2.00,-3.00,+0.00,+23.00,+3.00,-4.00,+36.00,+8.00,+3.00,+6.00,+19.00,+3.00,+10.00,+43.00
-1.00,-9.00,+0.00,+5.00,+0.00,-11.00,-16.00,+5.00,+29.00,-43.00,-12.00,-8.00,-1.00,-10.00,-16.00,-26.00
-1.00,-31.00,-8.00,-10.00,-9.00,-19.00,-24.00,-17.00,+104.00,+71.00,+10.00,-12.00,+95.00,+19.00,+3.00,+23.00
+1.00,+53.00,-1.00,-6.00,-6.00,+9.00,+3.00,+2.00,-10.00,+11.00,+5.00,-1.00,-47.00,-10.00,+17.00,-42.00
-1.00,+2.00,+0.00,+1.00,+2.00,-55.00,-8.00,-10.00,+12.00,+2.00,+2.00,+10.00,-17.00,-4.00,-4.00,-3.00
-4.00,+7.00,+1.00,+1.00,+8.00,+24.00,+1.00,+8.00,-51.00,-3.00,-3.00,+11.00,+3.00,+2.00,-1.00,-7.00
+0.00,-6.00,+2.00,+8.00,+6.00,+75.00,+34.00,+18.00,-65.00,-24.00,-3.00,-6.00,-5.00,+4.00,-2.00,-5.00
+3.00,-20.00,-4.00,+1.00,+0.00,+7.00,-8.00,-13.00,-27.00,-8.00,-7.00,-18.00,+14.00,-10.00,-15.00,+11.00
+0.00,+5.00,+0.00,-3.00,-2.00,-23.00,+3.00,-10.00,-31.00,+8.00,-1.00,-4.00,-18.00,+11.00,+3.00,+5.00
-1.00,+3.00,+2.00,-2.00,-4.00,-6.00,-1.00,-7.00,-27.00,-6.00,-2.00,-1.00,+32.00,+2.00,+2.00,+45.00
-2.00,+4.00,-1.00,-4.00,-3.00,-7.00,-4.00,+7.00,-29.00,-3.00,+5.00,+18.00,-53.00,-14.00,-24.00,-24.00
-4.00,+3.00,+1.00,-6.00,-5.00,-28.00,-7.00,-6.00,-19.00,+4.00,+0.00,+6.00,+3.00,-3.00,+29.00,-22.00
-3.00,+1.00,+1.00,+6.00,+1.00,+20.00,-1.00,-19.00,-19.00,-13.00,-4.00,-7.00,+0.00,+1.00,+4.00,+12.00
+5.00,-9.00,+0.00,+4.00,+5.00,+2.00,+10.00,+67.00,+9.00,+11.00,+1.00,+3.00,-22.00,-16.00,+7.00,-2.00
+1.00,+0.00,-1.00,-3.00,-3.00,-11.00,+3.00,+0.00,-23.00,-23.00,-8.00,-10.00,+9.00,+16.00,-14.00,-12.00
-2.00,+1.00,+0.00,-3.00,+0.00,-3.00,-9.00,-3.00,+40.00,+8.00,-2.00,-11.00,-22.00,-8.00,-1.00,+38.00
+0.00,-6.00,-2.00,-4.00,-6.00,-7.00,-3.00,-3.00,+26.00,+20.00,+5.00,+2.00,-13.00,+20.00,+7.00,+1.00
-2.00,-8.00,-4.00,-8.00,-13.00,-44.00,-47.00,-6.00,+30.00,+16.00,+5.00,+9.00,-101.00,-23.00,+11.00,-20.00
-1.00,+12.00,+5.00,+20.00,+24.00,+62.00,+61.00,+9.00,-2.00,-4.00,-4.00,-10.00,+12.00,-18.00,-31.00,+44.00
-6.00,+2.00,-5.00,-3.00,-4.00,-3.00,-8.00,-4.00,-12.00,-17.00,-1.00,+3.00,+6.00,+31.00,-11.00,+28.00
+2.00,+0.00,-1.00,+1.00,+4.00,+32.00,+9.00,+1.00,-21.00,-18.00,-6.00,-3.00,+38.00,+1.00,-1.00,-28.00
-1.00,+24.00,-2.00,-10.00,-9.00,-18.00,+0.00,-25.00,+1.00,-7.00,-2.00,-17.00,+32.00,+4.00,-3.00,+23.00
+2.00,-17.00,+2.00,-6.00,-11.00,-54.00,-25.00,+44.00,+23.00,+22.00,+9.00,+20.00,-31.00,+3.00,+14.00,-31.00
-2.00,-23.00,+0.00,+7.00,+15.00,+5.00,+9.00,-36.00,-2.00,+1.00,+0.00,+3.00,-5.00,-5.00,-4.00,+9.00
-4.00,+2.00,+2.00,+5.00,-1.00,-1.00,+4.00,-6.00,+12.00,-2.00,-4.00,-4.00,+22.00,-16.00,-7.00,-10.00
-3.00,+5.00,-3.00,-2.00,-5.00,-21.00,-4.00,-45.00,-33.00,-13.00,-2.00,-5.00,-5.00,+1.00,-19.00,-44.00
-2.00,+11.00,-2.00,-6.00,-1.00,-5.00,-9.00,+4.00,+26.00,-22.00,-10.00,-8.00,-8.00,-6.00,+8.00,+33.00
-4.00,+0.00,-1.00,-9.00,-11.00,-34.00,-6.00,+10.00,+30.00,+28.00,+4.00,-9.00,+25.00,+3.00,+1.00,+2.00
+2.00,+0.00,-1.00,-3.00,+3.00,+39.00,-4.00,+2.00,+6.00,+9.00,+1.00,+2.00,+16.00,-19.00,-6.00,-6.00
+0.00,-20.00,-3.00,+2.00,+13.00,+52.00,+20.00,-10.00,+7.00,+5.00,+3.00,+24.00,+23.00,+15.00,-11.00,-12.00
+0.00,+12.00,+3.00,+4.00,+5.00,+12.00,-7.00,-57.00,+11.00,-16.00,-6.00,-12.00,+60.00,+14.00,+7.00,+16.00
-2.00,+3.00,-2.00,-4.00,-10.00,-1.00,-11.00,-34.00,+21.00,+1.00,+0.00,+3.00,-61.00,-8.00,+1.00,-8.00
-4.00,+8.00,+1.00,-3.00,-5.00,-10.00,-3.00,-10.00,-2.00,-10.00,-6.00,-7.00,+23.00,-8.00,+6.00,+14.00
-1.00,-10.00,+1.00,+1.00,+1.00,+2.00,+6.00,+8.00,-9.00,+1.00,+1.00,-6.00,-5.00,+16.00,-14.00,-10.00
-2.00,-3.00,-6.00,-9.00,-7.00,-3.00,+3.00,+32.00,-42.00,-5.00,-9.00,-24.00,+35.00,-7.00,+7.00,-61.00
+3.00,-1.00,-3.00,-9.00,-11.00,-11.00,-5.00,+9.00,-32.00,-6.00,+2.00,+17.00,+18.00,+27.00,+17.00,+19.00
+2.00,+9.00,+4.00,+10.00,+15.00,-7.00,-9.00,+2.00,-25.00,+0.00,-1.00,+7.00,-67.00,-17.00,-15.00,-11.00
-2.00,-3.00,+3.00,+3.00,-4.00,-23.00,+1.00,-4.00,+1.00,-1.00,+1.00,-8.00,+1.00,-1.00,-7.00,-18.00
-4.00,-9.00,-6.00,-3.00,+4.00,+31.00,+9.00,+34.00,-13.00,-1.00,+2.00,+18.00,+33.00,+1.00,+6.00,-8.00
+6.00,+6.00,-1.00,+0.00,+2.00,+11.00,+0.00,+10.00,+0.00,-1.00,+4.00,+9.00,+106.00,-7.00,-6.00,-47.00
+0.00,-5.00,-3.00,-8.00,-7.00,-18.00,+0.00,+10.00,+7.00,-2.00,+1.00,-1.00,-80.00,-2.00,+0.00,-26.00
-1.00,-11.00,-3.00,-7.00,-9.00,-24.00,+3.00,+20.00,+23.00,+6.00,-2.00,+0.00,+13.00,+0.00,-1.00,-4.00
+1.00,+10.00,+4.00,+8.00,+7.00,+5.00,+1.00,-20.00,-2.00,+0.00,-1.00,-1.00,-37.00,-20.00,-10.00,+2.00
+0.00,-5.00,+1.00,+1.00,+1.00,-8.00,-3.00,+8.00,-29.00,-7.00,-7.00,-21.00,+11.00,+8.00,+17.00,-14.00
-6.00,-7.00,-2.00,-6.00,-9.00,+3.00,+0.00,-20.00,-25.00,-4.00,-1.00,+25.00,+35.00,-9.00,-5.00,+4.00
+0.00,+6.00,-4.00,+0.00,+3.00,+11.00,+0.00,+6.00,-4.00,-3.00,-4.00,-12.00,+4.00,-11.00,-2.00,-10.00
-4.00,-16.00,-6.00,-11.00,-18.00,-44.00,-12.00,-31.00,+33.00,+1.00,+2.00,-22.00,+8.00,-10.00,-6.00,+14.00
-6.00,+16.00,+2.00,+0.00,+5.00,+35.00,-5.00,-50.00,+40.00,-13.00,-5.00,-5.00,-110.00,-26.00,-20.00,-12.00
+6.00,-5.00,-1.00,-5.00,-10.00,-111.00,+6.00,-7.00,+21.00,-4.00,-3.00,+4.00,+75.00,+12.00,+10.00,+36.00
-8.00,+3.00,-3.00,+12.00,+21.00,+101.00,+17.00,+26.00,+17.00,+13.00,+2.00,+6.00,-2.00,-2.00,+0.00,-1.00
+3.00,+4.00,-2.00,-9.00,-6.00,-58.00,-8.00,+6.00,-1.00,-3.00,-3.00,-29.00,-20.00,-6.00,-5.00,+5.00
-2.00,-3.00,-3.00,+3.00,+11.00,+53.00,+6.00,+14.00,-9.00,+2.00,+2.00,+9.00,-53.00,+4.00,-9.00,+5.00
-5.00,-6.00,-3.00,-8.00,-9.00,+3.00,-7.00,-38.00,-8.00,-7.00,-1.00,+9.00,+54.00,+4.00,-8.00,+40.00
-2.00,-6.00,-2.00,-5.00,-3.00,-21.00,+0.00,-11.00,-21.00,-5.00,+1.00,-2.00,+21.00,-15.00,-18.00,-55.00
+3.00,-9.00,-4.00,-15.00,-19.00,-34.00,-13.00,-7.00,-11.00,+2.00,+4.00,+31.00,-35.00,+10.00,+2.00,-52.00
+3.00,+8.00,+5.00,+12.00,+1.00,+7.00,-12.00,+17.00,-27.00,-12.00,-9.00,-31.00,+46.00,-6.00,-8.00,-8.00
+0.00,-13.00,+1.00,+8.00,+16.00,+115.00,+15.00,+20.00,+29.00,+9.00,+1.00,+0.00,-28.00,+6.00,+1.00,-3.00
+1.00,-2.00,-1.00,-7.00,-13.00,-46.00,-5.00,-12.00,-11.00,-1.00,+0.00,+8.00,-4.00,-8.00,+4.00,+17.00
-4.00,+1.00,+2.00,+15.00,+32.00,+70.00,+6.00,+1.00,+3.00,-1.00,+2.00,+0.00,+66.00,+19.00,+12.00,+28.00
+1.00,+5.00,+1.00,-3.00,-4.00,-34.00,-1.00,+7.00,+6.00,+8.00,+4.00,-10.00,+33.00,-17.00,-13.00,-21.00
+1.00,+2.00,-2.00,-1.00,-1.00,-9.00,-2.00,+5.00,-10.00,+1.00,+2.00,+9.00,-73.00,-17.00,-1.00,-25.00
-1.00,-6.00,-1.00,-4.00,-8.00,+0.00,-1.00,-1.00,-1.00,+3.00,-3.00,-6.00,+93.00,-10.00,-2.00,+9.00
+1.00,+6.00,+1.00,+2.00,-6.00,-9.00,+4.00,-33.00,-5.00,+0.00,+3.00,+13.00,-127.00,+3.00,+6.00,+12.00
-2.00,-7.00,-4.00,-16.00,-19.00,-54.00,-10.00,+3.00,+6.00,+2.00,+2.00,-16.00,+30.00,-2.00,-9.00,+18.00
+0.00,+0.00,-2.00,+15.00,+25.00,+120.00,+11.00,+8.00,+0.00,-16.00,-14.00,-19.00,+64.00,+13.00,+0.00,-2.00
-1.00,-2.00,+2.00,-6.00,-5.00,-32.00,-2.00,-12.00,-8.00,-9.00,-4.00,-15.00,-96.00,-7.00,-1.00,+11.00
-4.00,+4.00,-3.00,-7.00,-6.00,-37.00,-6.00,+2.00,-5.00,-4.00,-9.00,-11.00,+98.00,-30.00,-19.00,-4.00
-1.00,-8.00,-5.00,+2.00,+7.00,+71.00,+14.00,+17.00,+4.00,+6.00,+5.00,+50.00,-42.00,+44.00,+22.00,+36.00
-3.00,+6.00,+2.00,-5.00,-2.00,-13.00,-8.00,+13.00,-12.00,+6.00,+8.00,-8.00,-100.00,-38.00,+1.00,-27.00
+5.00,-5.00,-2.00,+2.00,-9.00,-37.00,-1.00,+37.00,-9.00,-2.00,-4.00,+2.00,-7.00,+43.00,+7.00,+18.00
+0.00,-6.00,-2.00,-2.00,+3.00,+24.00,+0.00,+10.00,-12.00,-15.00,-14.00,-55.00,+44.00,+40.00,+1.00,+29.00
+2.00,-4.00,+0.00,+2.00,-3.00,-27.00,-2.00,+17.00,-88.00,-11.00,-7.00,+11.00,-32.00,-25.00,-8.00,+17.00
+7.00,-2.00,-3.00,-8.00,-7.00,-10.00,+7.00,+54.00,-65.00,-2.00,-4.00,-10.00,+78.00,-30.00,-1.00,+17.00
-4.00,+4.00,+0.00,+5.00,+9.00,+38.00,+2.00,-19.00,+13.00,+10.00,+8.00,+52.00,+25.00,+9.00,-11.00,-21.00
-4.00,+8.00,+2.00,+9.00,+10.00,+58.00,+7.00,+15.00,+22.00,-2.00,+1.00,-3.00,-10.00,+4.00,+30.00,-2.00
-2.00,-6.00,-9.00,-13.00,-6.00,-5.00,-7.00,-7.00,+71.00,-11.00,-8.00,+4.00,+60.00,-6.00,+6.00,-45.00
-1.00,+4.00,+3.00,-5.00,-23.00,-128.00,-17.00,-5.00,+36.00,-3.00,-1.00,-9.00,-12.00,+24.00,-3.00,-24.00
-2.00,-5.00,-2.00,+10.00,+12.00,+43.00,+9.00,+5.00,+21.00,+0.00,-4.00,-32.00,+40.00,-11.00,-7.00,+16.00
-2.00,-5.00,-1.00,-3.00,-4.00,+0.00,-4.00,-5.00,+29.00,+5.00,+1.00,+31.00,+20.00,-1.00,-7.00,-2.00
-2.00,+1.00,+4.00,-8.00,+0.00,-54.00,-11.00,-13.00,+17.00,-1.00,+3.00,+6.00,-20.00,+10.00,+1.00,+20.00
-6.00,+1.00,+1.00,+18.00,+28.00,+94.00,+19.00,+8.00,-2.00,-2.00,+7.00,+7.00,+27.00,-3.00,+0.00,-64.00
+5.00,+0.00,-5.00,-7.00,-5.00,-32.00,-8.00,-11.00,+16.00,+4.00,-2.00,+4.00,+18.00,+3.00,-3.00,-4.00
+1.00,+6.00,+4.00,+7.00,-6.00,-31.00,-5.00,-7.00,-14.00,+0.00,-5.00,-3.00,+12.00,-16.00,-8.00,-13.00
-1.00,-5.00,+0.00,-2.00,+6.00,+0.00,+10.00,+31.00,-6.00,-4.00,-9.00,-15.00,+29.00,+1.00,-6.00,-22.00
-1.00,+1.00,+12.00,-13.00,-19.00,-53.00,-11.00,-20.00,+19.00,+17.00,+11.00,+13.00,-55.00,+15.00,+14.00,+5.00
+2.00,+2.00,+0.00,-1.00,-5.00,-84.00,-3.00,-6.00,-4.00,-4.00,+3.00,+0.00,-85.00,-13.00,+0.00,+10.00
-6.00,-5.00,-6.00,-13.00,-18.00,-7.00,-34.00,-35.00,-28.00,-3.00,-3.00,+4.00,-1.00,+0.00,-3.00,-21.00
+5.00,+2.00,+3.00,+26.00,+24.00,-18.00,+47.00,+65.00,-1.00,-5.00,-4.00,-26.00,+94.00,+18.00,-15.00,+5.00
-2.00,+2.00,-7.00,+1.00,+13.00,+74.00,+4.00,-19.00,+12.00,-6.00,-3.00,-3.00,-93.00,-27.00,-18.00,+18.00
-2.00,-1.00,+1.00,-8.00,-7.00,-40.00,-7.00,-24.00,-31.00,-4.00,-3.00,+22.00,+86.00,-17.00,+49.00,-7.00
+0.00,-11.00,-10.00,-17.00,-13.00,-89.00,-11.00,+32.00,-9.00,+2.00,+6.00,+20.00,-29.00,-9.00,+1.00,+16.00
-7.00,-5.00,-3.00,-15.00,-13.00,-92.00,-32.00,-31.00,-5.00,-4.00,-4.00,-61.00,+26.00,-13.00,-7.00,-1.00
-1.00,-7.00,-8.00,+8.00,+10.00,+80.00,+14.00,-13.00,+0.00,-1.00,-3.00,+43.00,-16.00,+2.00,-2.00,+5.00
-9.00,+6.00,-1.00,+6.00,+17.00,+89.00,-2.00,+1.00,+12.00,+11.00,+5.00,+3.00,-31.00,-27.00,+1.00,+60.00
+5.00,-9.00,-4.00,-1.00,-11.00,-79.00,-30.00,-22.00,-1.00,+4.00,+1.00,-5.00,+12.00,+4.00,-15.00,+3.00
-6.00,-4.00,-2.00,-11.00,-13.00,+11.00,+32.00,-9.00,-12.00,-6.00,-4.00,-5.00,+29.00,-6.00,+10.00,-68.00
+0.00,+0.00,-1.00,-6.00,-4.00,-54.00,-7.00,+0.00,-23.00,-24.00,-13.00,-35.00,+51.00,+26.00,+0.00,-18.00
+3.00,-6.00,-4.00,-5.00,-13.00,-24.00,-8.00,-14.00,+16.00,+28.00,+10.00,+16.00,-128.00,+1.00,-6.00,-14.00
-1.00,+1.00,+5.00,+3.00,-12.00,-60.00,-1.00,+12.00,-3.00,+2.00,+3.00,+21.00,-27.00,+7.00,+7.00,+8.00
+0.00,-6.00,+5.00,+5.00,+4.00,+4.00,-1.00,-72.00,+10.00,+2.00,-2.00,-11.00,+77.00,+19.00,-4.00,+18.00
-9.00,+3.00,-2.00,-16.00,-5.00,+8.00,+1.00,-5.00,-16.00,-8.00,-3.00,-5.00,+61.00,-23.00,-6.00,-34.00
+4.00,+5.00,+4.00,+2.00,-4.00,-7.00,+1.00,+16.00,-8.00,-18.00,-10.00,-25.00,+115.00,+12.00,-21.00,-30.00
+1.00,-1.00,-1.00,-7.00,+0.00,+21.00,+10.00,-7.00,+6.00,+4.00,+3.00,+16.00,+7.00,-17.00,+8.00,+7.00
+5.00,-4.00,-6.00,-3.00,-5.00,-7.00,-41.00,-4.00,+1.00,+2.00,+1.00,+17.00,-31.00,+10.00,+3.00,+12.00
+4.00,+24.00,+8.00,+21.00,+20.00,-56.00,+19.00,-62.00,-2.00,+1.00,-2.00,-20.00,+10.00,+13.00,+0.00,+23.00
-4.00,-1.00,+1.00,-6.00,+6.00,-4.00,+12.00,+15.00,-14.00,-6.00,-6.00,-21.00,+44.00,-7.00,-10.00,-36.00
-2.00,+2.00,-2.00,-1.00,+9.00,+9.00,+16.00,+3.00,+4.00,+6.00,+6.00,+34.00,-32.00,-13.00,+10.00,+19.00
-4.00,+0.00,-6.00,-25.00,-38.00,-68.00,-29.00,+36.00,-5.00,-5.00,-2.00,-17.00,-15.00,-2.00,-8.00,+17.00
+4.00,-11.00,-1.00,+1.00,-10.00,+26.00,-9.00,+31.00,+0.00,+6.00,+1.00,+20.00,+92.00,-39.00,-8.00,-39.00
-4.00,-3.00,-2.00,+14.00,+40.00,+87.00,+30.00,+35.00,-12.00,-12.00,-9.00,-28.00,-39.00,+39.00,-5.00,-54.00
+0.00,+9.00,+7.00,+9.00,+12.00,+18.00,+11.00,-20.00,-5.00,-8.00,-5.00,-9.00,+79.00,-10.00,-8.00,-5.00
-4.00,-4.00,-4.00,-16.00,-7.00,-35.00,-7.00,+5.00,-6.00,-7.00,+1.00,+27.00,-102.00,-34.00,+1.00,+21.00
+1.00,+0.00,-1.00,-5.00,-19.00,-76.00,-3.00,-16.00,+8.00,+4.00,+1.00,-8.00,+60.00,+21.00,+1.00,+30.00
-1.00,+0.00,+0.00,+11.00,+7.00,+35.00,+3.00,-31.00,-8.00,-7.00,-3.00,-8.00,-14.00,-13.00,+2.00,+17.00
+0.00,-2.00,+1.00,-2.00,+1.00,+24.00,-12.00,+19.00,-26.00,-4.00,-3.00,-19.00,+53.00,+10.00,-11.00,-17.00
-6.00,-2.00,-5.00,-8.00,+9.00,+9.00,+1.00,-5.00,+5.00,+18.00,+6.00,+12.00,-49.00,-8.00,-9.00,+11.00
-1.00,-4.00,-10.00,-26.00,-28.00,-119.00,-18.00,-43.00,-22.00,-9.00,-8.00,-23.00,-3.00,-8.00,-13.00,-32.00
-1.00,+8.00,+6.00,+22.00,+13.00,+77.00,-1.00,-31.00,+1.00,+12.00,+7.00,+32.00,-101.00,-24.00,+27.00,+67.00
+2.00,+2.00,+1.00,+9.00,+14.00,+86.00,+14.00,+10.00,+4.00,-1.00,-1.00,-24.00,+58.00,+9.00,-4.00,-2.00
+5.00,-1.00,-1.00,-9.00,-27.00,-51.00,-14.00,+1.00,-12.00,-8.00,+0.00,+21.00,-15.00,-2.00,+2.00,-6.00
-2.00,-5.00,-2.00,+7.00,+23.00,+82.00,+8.00,+59.00,+38.00,+6.00,-3.00,-37.00,+13.00,+20.00,+13.00,+19.00
-5.00,-11.00,-8.00,-26.00,-43.00,-128.00,-14.00,-5.00,+6.00,-8.00,-1.00,+19.00,-7.00,-18.00,-15.00,-7.00
-6.00,+18.00,+4.00,+12.00,+23.00,+99.00,+13.00,-31.00,+1.00,-5.00,-3.00,-5.00,+69.00,+28.00,-12.00,+22.00
+0.00,+3.00,+2.00,+5.00,+5.00,+32.00,+8.00,-11.00,-1.00,+4.00,+2.00,+2.00,-89.00,-20.00,+9.00,+14.00
-1.00,-8.00,-2.00,-7.00,-12.00,-5.00,-8.00,+21.00,+22.00,+4.00,+4.00,+7.00,+59.00,+42.00,+10.00,+60.00
+1.00,-6.00,-7.00,-17.00,-17.00,-75.00,-20.00,-11.00,-11.00,-10.00,-8.00,-13.00,-50.00,-3.00,+4.00,-21.00
+5.00,+0.00,+5.00,+27.00,+28.00,+49.00,+43.00,+8.00,+0.00,+2.00,+2.00,-1.00,-107.00,-45.00,+2.00,+10.00
+0.00,+4.00,+2.00,+3.00,-4.00,-79.00,-6.00,-13.00,+10.00,+2.00,+5.00,+0.00,+75.00,-7.00,+3.00,+25.00
-11.00,-3.00,-2.00,+3.00,+23.00,+46.00,+9.00,+29.00,+4.00,+4.00,+0.00,-7.00,+38.00,-28.00,+2.00,+31.00
+0.00,-3.00,-4.00,-16.00,-31.00,-98.00,-27.00,+3.00,+20.00,+7.00,+2.00,+2.00,+127.00,+26.00,-29.00,+23.00
+2.00,-5.00,-4.00,+5.00,+25.00,+35.00,+29.00,+18.00,+0.00,-6.00,-13.00,-70.00,-84.00,+0.00,+18.00,-5.00
-2.00,-5.00,+1.00,+8.00,+13.00,+27.00,-17.00,-7.00,-16.00,-12.00,-4.00,+51.00,+116.00,-11.00,+0.00,-9.00
+2.00,+2.00,-1.00,-5.00,-12.00,-53.00,+14.00,+1.00,-1.00,+0.00,+2.00,+13.00,-11.00,-11.00,-13.00,-30.00
-2.00,-5.00,-4.00,-4.00,+0.00,+18.00,+7.00,+1.00,+7.00,+1.00,+5.00,-3.00,+24.00,-9.00,+4.00,-8.00
+3.00,-1.00,-2.00,-9.00,-20.00,-57.00,-18.00,-15.00,+2.00,-4.00,-7.00,-13.00,+13.00,+19.00,-1.00,-17.00
+1.00,+5.00,+7.00,+8.00,+10.00,+15.00,+4.00,+51.00,+1.00,+5.00,+0.00,-19.00,-17.00,+19.00,+2.00,-31.00
-8.00,+0.00,-6.00,-26.00,-37.00,-67.00,-34.00,+45.00,-2.00,+5.00,+1.00,-6.00,-27.00,+2.00,-26.00,+38.00
+8.00,+8.00,+5.00,+48.00,+70.00,+122.00,+42.00,+4.00,-7.00,-3.00,-3.00,+3.00,+60.00,-1.00,+1.00,-11.00
-1.00,-9.00,-6.00,-23.00,-26.00,-128.00,-27.00,-19.00,-35.00,-12.00,+3.00,+21.00,-68.00,-11.00,-11.00,-47.00
-3.00,+4.00,+0.00,+12.00,+18.00,+92.00,+21.00,-21.00,+29.00,+2.00,-4.00,-23.00,+17.00,-18.00,+16.00,+4.00
-1.00,-5.00,+0.00,-10.00,+5.00,-57.00,-18.00,-28.00,-25.00,+2.00,+2.00,+34.00,-59.00,+26.00,+38.00,+47.00
-2.00,-1.00,+2.00,+0.00,-6.00,+25.00,+5.00,+4.00,+1.00,+3.00,+4.00,-9.00,-36.00,-12.00,-16.00,+29.00
-5.00,-4.00,-5.00,-6.00,-11.00,-48.00,-17.00,+2.00,+16.00,-5.00,-1.00,+17.00,-14.00,-14.00,-22.00,-2.00
+4.00,-5.00,-1.00,+8.00,+9.00,+15.00,+12.00,+21.00,-41.00,-5.00,-3.00,+8.00,-18.00,-15.00,-8.00,-24.00
+13.00,-3.00,+1.00,+2.00,-18.00,-52.00,+4.00,+40.00,+19.00,+9.00,+4.00,+19.00,-38.00,+30.00,+29.00,-17.00
-2.00,-3.00,-5.00,-23.00,-34.00,-108.00,+6.00,-1.00,-16.00,-1.00,-5.00,-55.00,+96.00,-23.00,-41.00,+0.00
+2.00,+1.00,+3.00,+34.00,+78.00,+100.00,+45.00,+49.00,-20.00,-5.00,-4.00,+37.00,+14.00,+0.00,+30.00,-8.00
-1.00,+7.00,+4.00,-2.00,+3.00,-72.00,-2.00,-41.00,-1.00,-10.00,-5.00,-5.00,+13.00,+0.00,+13.00,-22.00
-2.00,-1.00,-2.00,-7.00,+1.00,-67.00,-7.00,-14.00,-5.00,-9.00,-7.00,-44.00,-75.00,+9.00,-12.00,-1.00
-2.00,+1.00,+1.00,-6.00,-19.00,-114.00,-23.00,+3.00,-32.00,-10.00,-2.00,+9.00,-64.00,+1.00,-7.00,-17.00
-7.00,-8.00,-6.00,-26.00,-64.00,-113.00,-13.00,-11.00,+27.00,-4.00,+2.00,+28.00,-21.00,-7.00,-29.00,-10.00
-10.00,+0.00,-4.00,+5.00,+26.00,+27.00,+19.00,-16.00,+37.00,+10.00,+2.00,+10.00,+84.00,+6.00,+9.00,+4.00
-5.00,-3.00,-3.00,+7.00,+18.00,+6.00,+4.00,-59.00,+7.00,+15.00,+1.00,-3.00,+24.00,+5.00,-15.00,-24.00
+1.00,+1.00,+2.00,-4.00,+3.00,-20.00,+0.00,-11.00,+12.00,+0.00,+0.00,+22.00,-68.00,-25.00,+0.00,-43.00
-4.00,-4.00,-6.00,-20.00,-36.00,-59.00,-28.00,-16.00,-10.00,-6.00,-7.00,-27.00,+2.00,+34.00,+24.00,+7.00
+3.00,-2.00,+0.00,-3.00,-1.00,+40.00,-9.00,+6.00,-8.00,-5.00,+0.00,+19.00,-48.00,-3.00,-20.00,+57.00
-1.00,-1.00,-2.00,-1.00,-9.00,-66.00,-30.00,-31.00,+7.00,-7.00,-3.00,-21.00,+99.00,+0.00,+8.00,+25.00
-4.00,-10.00,-2.00,+3.00,+11.00,+57.00,+42.00,+81.00,+29.00,+0.00,+2.00,+4.00,+92.00,+11.00,+26.00,+31.00
+1.00,-2.00,-2.00,+1.00,+2.00,+58.00,-18.00,+22.00,-29.00,+0.00,-5.00,-37.00,+64.00,+52.00,-48.00,-23.00
-5.00,+1.00,-2.00,-17.00,-25.00,-87.00,-3.00,-62.00,-40.00,-29.00,-7.00,+20.00,-22.00,-31.00,-26.00,-35.00
+3.00,+0.00,+0.00,+11.00,+11.00,+48.00,+8.00,+1.00,+75.00,+6.00,+8.00,+19.00,+57.00,-33.00,+9.00,+50.00
-3.00,+2.00,+5.00,+6.00,+18.00,+68.00,+9.00,+7.00,+6.00,+34.00,+3.00,+39.00,+15.00,+8.00,+2.00,+11.00
+0.00,+6.00,+2.00,-2.00,-1.00,-57.00,+3.00,+4.00,-2.00,+1.00,-10.00,-20.00,+45.00,-28.00,-83.00,-31.00
-3.00,-15.00,-10.00,-5.00,-1.00,-21.00,-8.00,+2.00,-31.00,+10.00,+6.00,+5.00,+57.00,+29.00,-3.00,-27.00
+7.00,+9.00,+9.00,+22.00,+13.00,+58.00,+18.00,-1.00,-56.00,-59.00,-23.00,-52.00,-45.00,+5.00,-9.00,-81.00
-4.00,+1.00,-4.00,-30.00,-24.00,-94.00,-48.00,-58.00,+42.00,+5.00,+11.00,+65.00,+5.00,+44.00,+46.00,+13.00
-4.00,+4.00,+2.00,+20.00,+19.00,+99.00,+79.00,+4.00,+13.00,+12.00,+7.00,+8.00,+11.00,-43.00,+8.00,+4.00
-1.00,-11.00,-7.00,-7.00,-10.00,+8.00,-14.00,+24.00,+15.00,+14.00,-4.00,-38.00,+90.00,+24.00,+4.00,-9.00
-2.00,-7.00,-7.00,-17.00,-38.00,-128.00,-50.00,-8.00,-39.00,-13.00,-7.00,+25.00,-29.00,+19.00,+29.00,-58.00
-7.00,+4.00,+3.00,+11.00,+26.00,+108.00,+9.00,+16.00,+7.00,+2.00,+5.00,-16.00,-110.00,+46.00,+1.00,+12.00
-3.00,-1.00,+2.00,-3.00,+9.00,-84.00,-8.00,-9.00,-27.00,-27.00,-5.00,-3.00,-10.00,-13.00,+2.00,-67.00
-1.00,-34.00,-2.00,-12.00,-22.00,-16.00,-17.00,+23.00,+80.00,+20.00,+3.00,+14.00,+60.00,-2.00,+8.00,+42.00
-11.00,+5.00,-1.00,-10.00,-13.00,-25.00,-3.00,-28.00,-40.00,+8.00,+4.00,+2.00,+47.00,+17.00,-16.00,+24.00
+7.00,+3.00,+2.00,+17.00,+33.00,-25.00,-6.00,+7.00,+24.00,-16.00,-12.00,-47.00,+18.00,+18.00,+53.00,+1.00
-2.00,-5.00,-7.00,-22.00,-19.00,-94.00,-24.00,+33.00,-10.00,-12.00,-5.00,+8.00,+77.00,-12.00,+34.00,+46.00
-4.00,+25.00,+5.00,+19.00,+36.00,+112.00,+49.00,-20.00,+36.00,+21.00,+6.00,-28.00,-113.00,-39.00,-7.00,+45.00
+0.00,-6.00,-2.00,-9.00,+2.00,-6.00,-27.00,+78.00,-37.00,-4.00,-3.00,-19.00,+32.00,-12.00,+35.00,-32.00
-4.00,-7.00,-2.00,-16.00,-21.00,-60.00,+19.00,-37.00,-46.00,-45.00,-16.00,-9.00,+41.00,-27.00,-36.00,-20.00
+2.00,+5.00,+2.00,-13.00,-38.00,-93.00,-48.00,-44.00,+74.00,+64.00,+22.00,+6.00,+63.00,+19.00,+83.00,+57.00
-6.00,+24.00,+1.00,+7.00,+29.00,+81.00,+16.00,+26.00,-7.00,+11.00,+9.00,-6.00,-59.00,+101.00,+44.00,+25.00
+6.00,-32.00,-1.00,+2.00,-9.00,+1.00,+8.00,-7.00,+48.00,+24.00,+7.00,+25.00,-85.00,-29.00,+3.00,+71.00
+0.00,-4.00,-3.00,-11.00,-21.00,-63.00,-128.00,-47.00,-56.00,-4.00,+3.00,+12.00,+9.00,+3.00,-48.00,-57.00
-1.00,-22.00,-12.00,-16.00,-32.00,-96.00,-74.00,-85.00,-19.00,-20.00,-8.00,-22.00,+16.00,+2.00,+65.00,-25.00
-9.00,+17.00,+8.00,+27.00,+61.00,+59.00,+108.00,+54.00,+74.00,-6.00,-20.00,-95.00,-34.00,-32.00,+84.00,+46.00
-2.00,+17.00,-10.00,-35.00,-36.00,-94.00,-61.00,-34.00,-64.00,-28.00,-7.00,+87.00,+48.00,-35.00,+30.00,-39.00
+7.00,-8.00,+5.00,+26.00,+4.00,+37.00,+10.00,+42.00,+19.00,+33.00,+1.00,-29.00,+127.00,+25.00,+10.00,+25.00
-9.00,-10.00,+1.00,-17.00,+23.00,-15.00,-1.00,+15.00,-41.00,+1.00,+3.00,+8.00,-103.00,-84.00,+47.00,-9.00
+0.00,+8.00,-2.00,-29.00,-74.00,-128.00,-113.00,-96.00,-65.00,-18.00,-17.00,-44.00,+127.00,+29.00,-27.00,-52.00
+0.00,+5.00,+2.00,+23.00,+38.00,+72.00,-11.00,-19.00,-47.00,-14.00,-9.00,+12.00,-1.00,-48.00,-5.00,-8.00
+8.00,+18.00,+9.00,+21.00,-26.00,-15.00,+100.00,+52.00,-3.00,-19.00,-11.00,-17.00,-17.00,+50.00,-32.00,-26.00
-2.00,+2.00,-4.00,+37.00,+40.00,+113.00,+12.00,+19.00,+47.00,+15.00,-1.00,-3.00,-24.00,-3.00,+55.00,+24.00
+11.00,-6.00,-1.00,+66.00,-19.00,-86.00,-68.00,+12.00,-41.00,-9.00,+8.00,+33.00,+9.00,-36.00,-19.00,-21.00
-3.00,-8.00,+1.00,+47.00,+33.00,+109.00,+14.00,+29.00,+4.00,-1.00,-3.00,-52.00,-61.00,+15.00,-59.00,+30.00
+3.00,-19.00,-12.00,-11.00,-38.00,-121.00,-88.00,-36.00,+20.00,+9.00,+6.00,+57.00,+63.00,-78.00,+59.00,+69.00
+5.00,+3.00,-1.00,-12.00,-13.00,+18.00,-79.00,+77.00,-13.00,+7.00,+9.00,+18.00,+19.00,+74.00,+60.00,-70.00
-7.00,-9.00,+1.00,-18.00,+33.00,+37.00,+69.00,-50.00,+42.00,+13.00,+9.00,+17.00,-2.00,+20.00,-25.00,+17.00
-6.00,+1.00,-5.00,-30.00,-6.00,-34.00,+5.00,-2.00,+24.00,+7.00,+2.00,+9.00,+27.00,-23.00,+4.00,-9.00
-6.00,+14.00,-10.00,-34.00,+2.00,-16.00,-8.00,-11.00,-2.00,+0.00,-1.00,-9.00,+19.00,-15.00,-54.00,-7.00
+15.00,-36.00,+20.00,+29.00,+0.00,+8.00,+64.00,+47.00,-47.00,-16.00,-11.00,-50.00,+119.00,+52.00,-44.00,+45.00
+0.00,+22.00,+12.00,+12.00,+47.00,+38.00,+59.00,+25.00,-51.00,-23.00,-12.00,+35.00,+28.00,-97.00,-57.00,-12.00
+9.00,+2.00,+3.00,+17.00,+12.00,+25.00,+12.00,+62.00,+2.00,+3.00,-1.00,+3.00,-29.00,-12.00,+58.00,-9.00
-5.00,+7.00,+2.00,+1.00,+37.00,+10.00,+19.00,-4.00,-9.00,+4.00,+6.00,-10.00,-76.00,+41.00,-26.00,-47.00
+5.00,+19.00,-1.00,-11.00,-32.00,-5.00,-66.00,-24.00,+46.00,-6.00,-4.00,-15.00,+14.00,+61.00,-27.00,+70.00
+14.00,-9.00,-4.00,-25.00,-28.00,-44.00,+16.00,+15.00,-19.00,+2.00,+5.00,+17.00,-55.00,+32.00,+16.00,-4.00
-11.00,+2.00,+1.00,+2.00,+61.00,+69.00,+73.00,+27.00,+4.00,+4.00,+0.00,+16.00,+117.00,+34.00,-31.00,-57.00
-4.00,-19.00,-5.00,-18.00,-15.00,-120.00,-29.00,-31.00,+2.00,+16.00,+17.00,+38.00,-128.00,-25.00,-3.00,+32.00
+6.00,+27.00,+1.00,+21.00,+2.00,-34.00,-20.00,-60.00,+6.00,-6.00,-9.00,-35.00,+63.00,+30.00,-60.00,+32.00
-3.00,-33.00,-22.00,-48.00,-80.00,-128.00,-128.00,-1.00,-6.00,+3.00,+4.00,+37.00,+9.00,+19.00,+41.00,+46.00
-14.00,+5.00,-8.00,-4.00,+27.00,+46.00,+9.00,+13.00,-2.00,+5.00,+3.00,-13.00,+0.00,-63.00,+14.00,+11.00
-4.00,-27.00,-9.00,-25.00,-48.00,-110.00,-41.00,-2.00,-1.00,-13.00,-4.00,+26.00,+127.00,+76.00,-47.00,-6.00
-5.00,+5.00,+0.00,+18.00,+38.00,+119.00,+10.00,-20.00,+57.00,+20.00,+4.00,-54.00,+49.00,-65.00,-10.00,+39.00
-5.00,+5.00,+4.00,-1.00,+21.00,+16.00,-71.00,-48.00,-41.00,-16.00,-1.00,+93.00,-29.00,+3.00,-50.00,-92.00
-3.00,-5.00,-3.00,-48.00,-58.00,-128.00,-22.00,-42.00,-66.00,-29.00,-15.00,-51.00,+108.00,-9.00,+4.00,-89.00
-3.00,+13.00,+9.00,+44.00,+52.00,+127.00,-1.00,+12.00,+34.00,-16.00,-20.00,-91.00,+125.00,+8.00,-42.00,-25.00
+9.00,+31.00,+12.00,+47.00,+42.00,+23.00,+9.00,-44.00,-17.00,+26.00,+12.00,+73.00,+19.00,-89.00,-72.00,-38.00
-5.00,-25.00,-9.00,-29.00,-15.00,-116.00,-47.00,+18.00,+5.00,-5.00,-7.00,-33.00,+58.00,+6.00,-34.00,+63.00
+2.00,-10.00,+7.00,+8.00,-8.00,+53.00,-83.00,-42.00,+22.00,+13.00,+5.00,-6.00,-48.00,-11.00,+13.00,-60.00
-6.00,+8.00,-2.00,-10.00,+1.00,+4.00,-4.00,+4.00,-20.00,-11.00,-13.00,-33.00,+8.00,-42.00,+62.00,-3.00
-10.00,-10.00,-13.00,-66.00,-95.00,-128.00,-72.00,-29.00,-13.00,-20.00,-3.00,+33.00,-27.00,+68.00,-48.00,-1.00
+3.00,-2.00,-1.00,+25.00,+71.00,+120.00,+110.00,+35.00,+41.00,+11.00,+7.00,-10.00,+66.00,+25.00,+8.00,+46.00
-2.00,-11.00,-9.00,+4.00,-5.00,+52.00,-13.00,-56.00,+36.00,+20.00,+8.00,-35.00,-22.00,-23.00,-35.00,+106.00
+6.00,+10.00,+8.00,+12.00,+3.00,+14.00,-49.00,+19.00,-56.00,-10.00,+2.00,+63.00,+1.00,-34.00,+51.00,+65.00
-9.00,-5.00,-6.00,-14.00,-19.00,-98.00,+72.00,+19.00,-33.00,-4.00,+1.00,+25.00,+40.00,+20.00,+56.00,-16.00
+9.00,-10.00,+3.00,+30.00,+6.00,-49.00,-73.00,+21.00,-18.00,+10.00,+5.00,+12.00,+30.00,+17.00,+6.00,-4.00
-5.00,-12.00,-6.00,-41.00,-22.00,-128.00,-88.00,-2.00,+9.00,+12.00,+6.00,-14.00,-25.00,-9.00,+29.00,+15.00
+9.00,+28.00,+23.00,+85.00,+62.00,+71.00,+95.00,+82.00,+54.00,+15.00,+17.00,+51.00,+24.00,+32.00,+25.00,+1.00
+0.00,-7.00,-4.00,-30.00,+3.00,-83.00,-4.00,-23.00,-26.00,-7.00,+0.00,+23.00,+5.00,-8.00,+26.00,+9.00
-5.00,+13.00,+2.00,+12.00,-10.00,-65.00,-72.00,-23.00,+19.00,+2.00,-12.00,-102.00,+101.00,+36.00,+10.00,-26.00
+8.00,+19.00,+10.00,+20.00,-9.00,-88.00,-16.00,+5.00,+5.00,-2.00,+0.00,+58.00,+62.00,-1.00,-41.00,+24.00
-2.00,-11.00,-9.00,-9.00,-10.00,+45.00,-12.00,+5.00,+1.00,-6.00,-3.00,-7.00,+32.00,-21.00,+59.00,-49.00
+0.00,-8.00,-2.00,-28.00,-30.00,-120.00,-56.00,+4.00,-1.00,-10.00,-5.00,+19.00,-8.00,-22.00,-37.00,-71.00
+16.00,+2.00,+9.00,-41.00,+34.00,+125.00,+17.00,+26.00,+14.00,-5.00,-3.00,-29.00,-34.00,+33.00,+80.00,+27.00
+1.00,-5.00,-7.00,-86.00,-48.00,-128.00,-14.00,+69.00,+43.00,+12.00,+9.00,+40.00,-57.00,+53.00,+27.00,+25.00
-2.00,-2.00,-17.00,-48.00,-40.00,-128.00,+32.00,-25.00,-56.00,-6.00,-8.00,-24.00,+2.00,+2.00,+63.00,-27.00
-15.00,-43.00,-3.00,+70.00,+49.00,+95.00,+75.00,+95.00,-33.00,-14.00,-9.00,-51.00,-79.00,-24.00,+5.00,-61.00
-1.00,-26.00,-9.00,-9.00,-32.00,-51.00,+13.00,+42.00,-13.00,+0.00,+2.00,-2.00,-85.00,-11.00,-65.00,-39.00
+10.00,+15.00,+6.00,+49.00,+5.00,+2.00,+54.00,+17.00,-31.00,-2.00,+5.00,+38.00,-94.00,+21.00,-17.00,-20.00
+6.00,-5.00,-9.00,-14.00,-21.00,-48.00,-64.00,-35.00,-14.00,-5.00,-7.00,-14.00,+10.00,-1.00,-41.00,-3.00
-7.00,-1.00,-9.00,+2.00,+6.00,+24.00,-128.00,-30.00,+29.00,+0.00,-3.00,+12.00,+79.00,-80.00,+25.00,+7.00
-9.00,+6.00,+7.00,-9.00,-31.00,-107.00,+74.00,+82.00,-2.00,-8.00,-9.00,-67.00,-24.00,-28.00,-13.00,-31.00
+3.00,+9.00,+9.00,+33.00,+17.00,+32.00,+45.00,-26.00,-23.00,-3.00,+2.00,+71.00,-7.00,-17.00,+44.00,+14.00
-7.00,+7.00,+7.00,+45.00,+70.00,+99.00,+52.00,+24.00,-3.00,-4.00,-1.00,-10.00,+27.00,-35.00,-36.00,-12.00
-2.00,+23.00,+4.00,-20.00,+1.00,-74.00,+11.00,-16.00,+8.00,+8.00,+4.00,-5.00,+4.00,+19.00,+9.00,+8.00
-5.00,+11.00,+2.00,-19.00,-26.00,-21.00,+69.00,-28.00,+21.00,-13.00,-16.00,-14.00,+52.00,-67.00,+65.00,-25.00
-4.00,+6.00,-1.00,+4.00,+33.00,+82.00,+19.00,+6.00,+16.00,+4.00,+0.00,-19.00,-51.00,-14.00,-10.00,-5.00
+15.00,+20.00,+24.00,+79.00,+12.00,+2.00,+78.00,+48.00,+19.00,+0.00,-7.00,-30.00,+7.00,+23.00,+16.00,+38.00
-4.00,-9.00,+5.00,+2.00,+20.00,-17.00,+82.00,+38.00,-9.00,-5.00,+1.00,+32.00,-116.00,-7.00,+30.00,-62.00
+5.00,+12.00,-5.00,-47.00,-39.00,-113.00,-5.00,-35.00,-16.00,-8.00,-4.00,+14.00,+5.00,-43.00,+20.00,-21.00
-3.00,-5.00,+2.00,+33.00,+36.00,+78.00,+42.00,-28.00,-4.00,-2.00,-4.00,-23.00,-59.00,-14.00,+44.00,-34.00
+7.00,-12.00,-6.00,-13.00,-32.00,-23.00,-19.00,+6.00,-7.00,-8.00,-4.00,-5.00,-18.00,+40.00,-6.00,-10.00
-2.00,+2.00,-4.00,-24.00,+4.00,+2.00,+4.00,-22.00,+25.00,+15.00,+7.00,-15.00,-54.00,-22.00,-17.00,+76.00
-1.00,-7.00,-5.00,+7.00,-9.00,-73.00,-56.00,-23.00,-3.00,+0.00,+7.00,+54.00,+29.00,+32.00,-18.00,-19.00
+9.00,-7.00,+11.00,+4.00,-40.00,-97.00,+0.00,+4.00,+28.00,-3.00,+0.00,+3.00,-31.00,+32.00,-31.00,+8.00
-8.00,-10.00,-4.00,-20.00,+15.00,+59.00,-21.00,-17.00,-14.00,+4.00,+1.00,-6.00,+36.00,-28.00,-49.00,-32.00
-5.00,+4.00,-6.00,-37.00,-13.00,+28.00,-84.00,-25.00,-7.00,-13.00,-10.00,+0.00,+86.00,+18.00,-28.00,+39.00
-8.00,-5.00,-4.00,-5.00,+7.00,-31.00,-54.00,-33.00,+7.00,+5.00,+7.00,+15.00,-59.00,+78.00,-11.00,-5.00
+5.00,-1.00,+6.00,+47.00,+49.00,+74.00,+51.00,+95.00,-16.00,-12.00,-11.00,-27.00,-46.00,+24.00,-25.00,-13.00
-7.00,+6.00,-4.00,-34.00,-27.00,-128.00,-68.00,-50.00,-30.00,+6.00,+7.00,+7.00,+41.00,+14.00,-18.00,+1.00
+2.00,+6.00,+0.00,-6.00,-24.00,-61.00,-13.00,-15.00,+24.00,+16.00,+14.00,+25.00,-27.00,+36.00,+55.00,+36.00
-10.00,-6.00,-9.00,-53.00,-32.00,-24.00,-34.00,-24.00,+3.00,+6.00,+6.00,+16.00,-48.00,+22.00,+6.00,+21.00
-13.00,+1.00,-1.00,+3.00,+44.00,+56.00,+10.00,-3.00,+14.00,+1.00,-5.00,-30.00,+113.00,+37.00,-6.00,+2.00
-10.00,-17.00,-8.00,-22.00,-22.00,-128.00,-70.00,-84.00,+17.00,+5.00,-1.00,-6.00,-95.00,-34.00,+6.00,-15.00
-7.00,+1.00,+1.00,+4.00,+0.00,-35.00,+8.00,+20.00,-6.00,-9.00,-8.00,-35.00,-51.00,-5.00,+18.00,+15.00
-1.00,-5.00,-11.00,-25.00,-64.00,-112.00,-128.00,-52.00,-17.00,-6.00,-3.00,+23.00,-31.00,-70.00,+56.00,-5.00
-12.00,-10.00,-1.00,-9.00,+42.00,+22.00,+79.00,+8.00,+16.00,+2.00,-3.00,-60.00,-18.00,+14.00,+9.00,+10.00
-4.00,-15.00,-9.00,-37.00,-30.00,-91.00,-68.00,-13.00,-2.00,-3.00,-5.00,+1.00,-51.00,-27.00,-7.00,-3.00
+1.00,+16.00,+1.00,+29.00,+24.00,+80.00,+34.00,-45.00,+0.00,+1.00,-1.00,+17.00,+45.00,+41.00,-54.00,+22.00
-1.00,-13.00,-8.00,+1.00,+1.00,-35.00,-51.00,+10.00,-28.00,-9.00,+0.00,-4.00,-31.00,-50.00,+38.00,-23.00
+0.00,+7.00,-4.00,+3.00,-19.00,+21.00,+1.00,+2.00,+34.00,+6.00,-1.00,-3.00,+127.00,+78.00,-13.00,+31.00
-3.00,-10.00,-4.00,-17.00,+2.00,+60.00,+15.00,+37.00,-18.00,+13.00,+3.00,-8.00,+10.00,-3.00,-23.00,-25.00
+4.00,+2.00,+5.00,+31.00,+12.00,+54.00,-4.00,+12.00,+24.00,-3.00,-4.00,-3.00,+2.00,+16.00,-24.00,+13.00
+6.00,+13.00,+11.00,+44.00,+15.00,-1.00,+65.00,+33.00,-18.00,+10.00,+7.00,+7.00,-43.00,-43.00,-45.00,-5.00
-2.00,-4.00,+0.00,+9.00,-9.00,-16.00,+36.00,-27.00,-14.00,-9.00,+7.00,+31.00,+64.00,-22.00,+69.00,-39.00
+0.00,+4.00,-2.00,+2.00,+5.00,-27.00,+14.00,+5.00,+15.00,+5.00,+5.00,+7.00,+37.00,+25.00,-51.00,+27.00
+2.00,-13.00,-7.00,-22.00,-29.00,-93.00,-37.00,+13.00,-18.00,-11.00,-3.00,+22.00,+61.00,+9.00,+8.00,-10.00
-8.00,+18.00,+10.00,-2.00,+6.00,-21.00,+46.00,-35.00,-34.00,-4.00,-5.00,-5.00,-29.00,+13.00,-23.00,-11.00
-5.00,-8.00,-7.00,-27.00,-16.00,-34.00,-63.00,-15.00,+18.00,+7.00,+0.00,-13.00,-11.00,-9.00,-27.00,+18.00
-3.00,+1.00,+1.00,+21.00,+8.00,-16.00,-5.00,+5.00,-5.00,-1.00,+1.00,-4.00,-53.00,-30.00,+40.00,+13.00
+5.00,+9.00,+13.00,+28.00,+14.00,+16.00,+100.00,+58.00,-13.00,-1.00,+0.00,+6.00,-35.00,-2.00,-34.00,+0.00
+11.00,+6.00,+11.00,+52.00,+45.00,+86.00,-7.00,+28.00,-1.00,-14.00,-3.00,-8.00,+5.00,-1.00,-8.00,+13.00
+2.00,-4.00,-8.00,-15.00,-21.00,-112.00,-68.00,-32.00,+5.00,+14.00,+7.00,-8.00,-16.00,-3.00,-5.00,+12.00
-2.00,-2.00,+0.00,-2.00,+12.00,+12.00,+6.00,-30.00,-42.00,-17.00,-9.00,-7.00,+26.00,-41.00,-16.00,-34.00
+3.00,-7.00,-6.00,-1.00,+6.00,+27.00,-2.00,-3.00,+4.00,-20.00,-7.00,-16.00,+29.00,-8.00,+27.00,+1.00
+5.00,-5.00,-1.00,+17.00,+10.00,+50.00,-5.00,+11.00,+20.00,-7.00,-3.00,+4.00,+31.00,+11.00,-17.00,-10.00
+5.00,+3.00,+1.00,-4.00,+1.00,-9.00,+10.00,+7.00,+22.00,+25.00,+1.00,-5.00,+23.00,-6.00,-38.00,-18.00
+1.00,-11.00,-3.00,+4.00,+5.00,-3.00,-9.00,+5.00,+22.00,+3.00,+1.00,+2.00,-72.00,-3.00,+35.00,+22.00
-3.00,-13.00,-4.00,-10.00,-10.00,-18.00,+10.00,-12.00,-11.00,+0.00,-8.00,-32.00,+33.00,-12.00,-36.00,-18.00
-6.00,+30.00,+3.00,-20.00,+18.00,+62.00,+30.00,-88.00,-33.00,-1.00,-1.00,+7.00,-44.00,-54.00,-46.00,-5.00
+3.00,-21.00,-5.00,-9.00,-58.00,-128.00,-115.00,-39.00,-50.00,-27.00,-7.00,-5.00,+97.00,+5.00,-11.00,-8.00
-10.00,+14.00,+0.00,-29.00,+0.00,-18.00,+43.00,+25.00,+3.00,-33.00,-10.00,+2.00,-15.00,+6.00,+7.00,-7.00
-8.00,-10.00,-6.00,-20.00,-9.00,-70.00,+2.00,+14.00,+16.00,+7.00,-2.00,-15.00,+64.00,-15.00,+1.00,+9.00
-1.00,+5.00,+4.00,+49.00,+48.00,+99.00,+19.00,+42.00,+9.00,+17.00,+4.00,-7.00,-22.00,+6.00,+26.00,+25.00
+5.00,+24.00,+4.00,+19.00,-3.00,+22.00,+62.00,+42.00,-8.00,-8.00,-9.00,-18.00,+27.00,-2.00,-43.00,-8.00
-1.00,+7.00,+2.00,+19.00,+6.00,+4.00,+31.00,-4.00,-31.00,-7.00,-2.00,-3.00,-9.00,-15.00,+22.00,-13.00
+1.00,+5.00,-1.00,-2.00,+16.00,+25.00,+31.00,+15.00,-86.00,-40.00,-9.00,+0.00,-70.00,+14.00,-29.00,-48.00
-3.00,-6.00,-7.00,-18.00,-9.00,-8.00,-22.00,+3.00,+105.00,+6.00,+0.00,+1.00,+2.00,-1.00,-2.00,+34.00
-1.00,-18.00,-8.00,-17.00,-20.00,-81.00,-63.00,-20.00,+13.00,+53.00,+16.00,+18.00,-9.00,-10.00,+16.00,+25.00
+1.00,-8.00,+0.00,+17.00,+3.00,+60.00,-5.00,+66.00,+4.00,-23.00,-9.00,-30.00,+48.00,+16.00,+19.00,-2.00
+7.00,+7.00,+3.00,+18.00,+21.00,+77.00,+51.00,+9.00,-3.00,+23.00,-2.00,+24.00,-97.00,-10.00,+16.00,+27.00
-4.00,-1.00,-2.00,-37.00,-32.00,-62.00,-27.00,+10.00,-25.00,-25.00,-9.00,-11.00,+26.00,+44.00,-9.00,-32.00
+11.00,+15.00,+13.00,+69.00,+57.00,+46.00,+77.00,+29.00,-40.00,-38.00,-11.00,-3.00,-20.00,-22.00,-18.00,-24.00
-1.00,-8.00,-7.00,-33.00,-2.00,-10.00,-12.00,-11.00,+51.00,+18.00,+4.00,+13.00,+93.00,+46.00,-47.00,+78.00
-4.00,+4.00,-1.00,-26.00,-15.00,-92.00,-56.00,-65.00,+10.00,+0.00,-3.00,-12.00,+10.00,-4.00,-2.00,+23.00
-8.00,-2.00,-3.00,-10.00,+12.00,-19.00,+23.00,+17.00,-47.00,-11.00,-2.00,-7.00,+1.00,-7.00,-6.00,+24.00
-2.00,-12.00,-4.00,-31.00,-30.00,-99.00,-30.00,+7.00,+72.00,+22.00,+5.00,+0.00,-12.00,+6.00,+39.00,+47.00
-4.00,+1.00,+3.00,+6.00,-12.00,+42.00,-10.00,-34.00,+3.00,+8.00,+1.00,+0.00,-28.00,-27.00,+36.00,-13.00
-12.00,-14.00,-13.00,-54.00,-45.00,-71.00,-69.00,-24.00,-32.00,-1.00,+12.00,+51.00,-83.00,-15.00,+0.00,-40.00
+4.00,+5.00,+2.00,+54.00,+82.00,+112.00,+79.00,+36.00,+8.00,-16.00,-4.00,-4.00,+102.00,+16.00,-42.00,-23.00
-4.00,+13.00,-4.00,-30.00,-3.00,-111.00,+67.00,+8.00,+24.00,-11.00,-7.00,-12.00,+48.00,-15.00,-39.00,-61.00
+3.00,+13.00,-4.00,+3.00,-5.00,-49.00,-32.00,+4.00,+101.00,+42.00,+10.00,+16.00,-17.00,-24.00,+77.00,+77.00
-3.00,-37.00,-2.00,-12.00,+6.00,-29.00,-14.00,+5.00,+35.00,+38.00,+8.00,-4.00,+16.00,+8.00,+5.00,-9.00
-6.00,+28.00,+0.00,-2.00,-15.00,-8.00,-32.00,+3.00,-7.00,+18.00,+6.00,-11.00,-26.00,-7.00,+26.00,-12.00
-2.00,+0.00,-3.00,-12.00,-16.00,-76.00,-3.00,-21.00,-56.00,-18.00,-6.00,+24.00,-62.00,-23.00,-14.00,-26.00
-1.00,+11.00,+2.00,-2.00,+10.00,-32.00,+15.00,-1.00,-43.00,-29.00,-6.00,-11.00,-20.00,-8.00,-24.00,-55.00
+3.00,+23.00,+0.00,+5.00,-1.00,+92.00,+23.00,+24.00,+8.00,-17.00,-8.00,-6.00,+22.00,+65.00,+26.00,-13.00
+2.00,-11.00,-1.00,-16.00,-10.00,-1.00,-5.00,-11.00,-4.00,+12.00,+1.00,+10.00,+15.00,+8.00,+6.00,+5.00
-1.00,-67.00,+4.00,+8.00,+12.00,+59.00,-24.00,+1.00,-32.00,-12.00,-3.00,-14.00,+44.00,-2.00,+13.00,+10.00
+1.00,+20.00,-4.00,-24.00,-36.00,-54.00,-25.00,-9.00,+23.00,+18.00,+3.00,-4.00,+3.00,+19.00,+0.00,-9.00
+0.00,+10.00,-1.00,+22.00,+4.00,-54.00,-16.00,-17.00,-4.00,-8.00,+2.00,-6.00,-37.00,-30.00,-37.00,+16.00
-3.00,-10.00,-6.00,-53.00,-48.00,-125.00,-40.00,-20.00,-45.00,-17.00,-7.00,+2.00,+4.00,+0.00,-40.00,-43.00
-15.00,+14.00,-10.00,-48.00,-3.00,+33.00,-67.00,-22.00,+10.00,-8.00,-4.00,-10.00,+8.00,+24.00,+11.00,+24.00
-2.00,-25.00,+1.00,+16.00,+13.00,+83.00,+71.00,-2.00,-63.00,+10.00,+1.00,+1.00,-52.00,-7.00,-30.00,-42.00
-2.00,+1.00,-3.00,-3.00,-7.00,-54.00,-11.00,+17.00,+87.00,+28.00,+9.00,+4.00,+28.00,-18.00,+8.00,+64.00
+3.00,-11.00,+1.00,-6.00,-3.00,-26.00,-10.00,-6.00,-16.00,+18.00,+8.00,-3.00,+15.00,-34.00,+26.00,-4.00
+6.00,-19.00,+4.00,+29.00,-6.00,+67.00,+3.00,-7.00,-38.00,-18.00,-5.00,-11.00,-95.00,-10.00,-55.00,-4.00
+4.00,-39.00,-4.00,+5.00,+11.00,-54.00,-46.00,-9.00,-24.00,-11.00,-6.00,+1.00,+58.00,+14.00,+18.00,-5.00
+3.00,+39.00,+14.00,+44.00,+46.00,+118.00,+3.00,+23.00,-31.00,-22.00,-6.00,-4.00,+38.00,-30.00,+12.00,-40.00
-5.00,+16.00,-3.00,-20.00,-7.00,-7.00,+64.00,+25.00,+15.00,-11.00,-1.00,-9.00,+49.00,-4.00,+1.00,-4.00
-2.00,+3.00,-12.00,-21.00,-18.00,-64.00,-24.00,+26.00,-9.00,+6.00,-4.00,-23.00,+55.00,+19.00,+7.00,+12.00
-4.00,-55.00,+4.00,+20.00,+12.00,+2.00,-7.00,-9.00,-38.00,-22.00,-8.00,+22.00,-102.00,-48.00,-21.00,-30.00
-1.00,+9.00,+3.00,-17.00,-14.00,+6.00,+7.00,+9.00,+74.00,+35.00,-2.00,-8.00,+16.00,+10.00,+5.00,+23.00
-1.00,-13.00,+1.00,+13.00,+3.00,-32.00,-35.00,-10.00,+17.00,-1.00,-2.00,+4.00,+7.00,+15.00,+4.00,+8.00
-8.00,+19.00,+0.00,-12.00,+1.00,+65.00,-27.00,-9.00,-27.00,-26.00,+0.00,-6.00,+31.00,+0.00,+0.00,-23.00
+0.00,+29.00,-1.00,-21.00,-15.00,-29.00,+61.00,+8.00,-47.00,-28.00,-2.00,-10.00,+14.00,+3.00,-15.00,-50.00
-1.00,-21.00,-8.00,-15.00,-11.00,-28.00,-35.00,-9.00,+33.00,+1.00,-9.00,+1.00,-39.00,+7.00,+15.00,+46.00
-1.00,-15.00,+1.00,-9.00,-6.00,+10.00,+2.00,+10.00,-1.00,+30.00,+4.00,+4.00,+3.00,-29.00,+21.00,+36.00
-4.00,+31.00,+1.00,-3.00,-4.00,-25.00,-13.00,-20.00,+24.00,+3.00,+0.00,+3.00,-61.00,-23.00,-8.00,+13.00
+6.00,+7.00,+1.00,+22.00,-13.00,-20.00,-20.00,-1.00,-26.00,+4.00,-1.00,-1.00,+31.00,+27.00,+6.00,+1.00
-3.00,+4.00,+1.00,+10.00,+29.00,+63.00,+50.00,+19.00,+9.00,-26.00,-1.00,+12.00,+98.00,-6.00,-23.00,-19.00
+0.00,+5.00,-1.00,+0.00,+1.00,+0.00,+49.00,+2.00,-3.00,-14.00,-4.00,-7.00,+82.00,+18.00,-4.00,-11.00
+2.00,-40.00,-3.00,+11.00,-12.00,-54.00,-10.00,-19.00,-25.00,+3.00,+5.00,+16.00,+6.00,+11.00,+17.00,+2.00
-1.00,+66.00,+5.00,+11.00,+2.00,+46.00,-28.00,+8.00,+127.00,+19.00,+5.00,+1.00,+34.00,+7.00,+8.00,+52.00
-3.00,-18.00,+2.00,+10.00,-9.00,-49.00,-15.00,-23.00,-83.00,-13.00,+3.00,-17.00,+22.00,-6.00,-21.00,-34.00
-4.00,+53.00,-2.00,+7.00,-15.00,-22.00,-61.00,-22.00,+89.00,+49.00,-1.00,+2.00,+51.00,+34.00,+10.00,+34.00
-4.00,+19.00,+1.00,+21.00,+47.00,+88.00,+91.00,+16.00,-36.00,-29.00,-3.00,+2.00,-15.00,-23.00,+4.00,-14.00
-1.00,-30.00,-6.00,-9.00,-8.00,-59.00,-9.00,+3.00,-32.00,+7.00,-3.00,-11.00,+36.00,-19.00,-23.00,-11.00
-1.00,+9.00,-1.00,-5.00,+4.00,+27.00,-7.00,+1.00,-50.00,-15.00,+1.00,+5.00,-4.00,+5.00,+0.00,-19.00
+3.00,-30.00,-10.00,-4.00,-11.00,-28.00,-14.00,-5.00,+13.00,-13.00,+2.00,+1.00,+8.00,-12.00,-7.00,-4.00
-1.00,-17.00,+1.00,-23.00,-44.00,-106.00,-43.00,-22.00,+127.00,-4.00,-4.00,-9.00,-65.00,-24.00,-6.00,-12.00
-6.00,+45.00,-4.00,+23.00,+24.00,+72.00,-2.00,+5.00,+94.00,+3.00,+1.00,+11.00,+14.00,-1.00,-3.00,+7.00
-2.00,-37.00,-2.00,+8.00,+12.00,+11.00,+26.00,+9.00,-78.00,-23.00,-7.00,-10.00,-4.00,-27.00,+0.00,-26.00
+6.00,-24.00,-1.00,+14.00,-10.00,-44.00,-27.00,-1.00,-105.00,-28.00,-6.00,+2.00,-32.00,-3.00,-3.00,-17.00
-4.00,+15.00,-8.00,-8.00,-9.00,-6.00,-11.00,-4.00,+3.00,+93.00,+15.00,+2.00,+49.00,+14.00,+13.00,+31.00
+1.00,-57.00,-8.00,-23.00,-10.00,-23.00,-17.00,+2.00,-67.00,+6.00,+7.00,+0.00,-60.00,-5.00,+6.00,+10.00
+0.00,+32.00,+21.00,-2.00,-27.00,-108.00,-14.00,+4.00,-93.00,-8.00,-8.00,-8.00,+6.00,+0.00,-14.00,-39.00
-5.00,+87.00,+21.00,+10.00,+7.00,-15.00,+2.00,+0.00,+13.00,-48.00,-15.00,-17.00,-62.00,-8.00,-1.00,-11.00
+1.00,+24.00,+9.00,+29.00,+27.00,+98.00,+16.00,+1.00,-37.00,+38.00,+10.00,+6.00,-21.00,+17.00,+22.00,+26.00
+0.00,-4.00,-10.00,-6.00,+8.00,+45.00,-8.00,-8.00,-14.00,+0.00,-6.00,-25.00,-28.00,-25.00,-23.00,-23.00
+8.00,-41.00,-15.00,+2.00,-30.00,-100.00,-16.00,+20.00,+8.00,+0.00,+11.00,+59.00,+36.00,-7.00,-6.00,+0.00
-3.00,-34.00,+1.00,-23.00,+1.00,+3.00,+2.00,+10.00,-31.00,-12.00,-2.00,+3.00,-11.00,-4.00,+27.00,+1.00
+1.00,-6.00,-1.00,+16.00,+13.00,+1.00,-3.00,+2.00,-10.00,-25.00,-11.00,-3.00,+56.00,+14.00,-4.00,-8.00
-1.00,-17.00,-8.00,+5.00,-12.00,-95.00,-6.00,-6.00,-53.00,+10.00,+3.00,-17.00,-47.00,+17.00,+7.00,+2.00
+0.00,+13.00,+6.00,-22.00,-5.00,+26.00,-16.00,-10.00,+57.00,-4.00,+9.00,-3.00,-39.00,+2.00,+4.00,+34.00
+2.00,-78.00,-2.00,+27.00,-7.00,-36.00,+0.00,+0.00,+1.00,+13.00,+8.00,+8.00,-4.00,+6.00,-6.00,-1.00
+2.00,+34.00,-3.00,-14.00,-13.00,-3.00,-43.00,-14.00,+22.00,+10.00,-6.00,+7.00,+40.00,-2.00,+1.00,+13.00
-6.00,-2.00,+2.00,-5.00,+7.00,+51.00,+56.00,+7.00,-23.00,-18.00,+2.00,-2.00,+32.00,-5.00,+10.00,+5.00
-2.00,-18.00,-8.00,-6.00,-10.00,-43.00,-4.00,-5.00,+20.00,-23.00,-28.00,-27.00,-26.00,-9.00,-4.00,-26.00
-4.00,+21.00,-2.00,+2.00,-18.00,-51.00,+8.00,-2.00,-17.00,+19.00,+2.00,-7.00,-30.00,+5.00,-7.00,-4.00
+0.00,-6.00,-1.00,+2.00,+24.00,+87.00,+14.00,-2.00,+31.00,-3.00,+5.00,-14.00,-59.00,-13.00,+13.00,+8.00
+1.00,+15.00,+6.00,+5.00,-15.00,-43.00,-19.00,-7.00,-8.00,-24.00,-11.00,+20.00,-66.00,-15.00,-12.00,-23.00
-3.00,+18.00,-7.00,-14.00,+10.00,+3.00,+10.00,-4.00,+11.00,+10.00,+9.00,+6.00,+56.00,-33.00,+14.00,+16.00
-2.00,-62.00,-10.00,+3.00,+3.00,+8.00,+0.00,-6.00,-53.00,+9.00,+0.00,-1.00,+30.00,+22.00,-30.00,-32.00
+0.00,+46.00,+8.00,+18.00,-19.00,-76.00,-20.00,+14.00,-55.00,-26.00,-6.00,-7.00,+25.00,+0.00,-10.00,-18.00
+2.00,-1.00,-6.00,-1.00,+9.00,+25.00,-3.00,-3.00,-21.00,+16.00,+4.00,+8.00,+66.00,+12.00,+15.00,+28.00
-17.00,+12.00,+10.00,-10.00,-2.00,-6.00,-3.00,-11.00,-39.00,+11.00,+7.00,-6.00,-77.00,-12.00,+6.00,+4.00
-16.00,+45.00,-3.00,+11.00,+26.00,+119.00,+6.00,+10.00,-18.00,-22.00,-5.00,+4.00,-8.00,-10.00,+2.00,-12.00
+2.00,-40.00,+9.00,+35.00,+9.00,-31.00,-9.00,-3.00,+22.00,+16.00,+1.00,-1.00,+51.00,+3.00,-7.00,-12.00
+2.00,+18.00,-2.00,-3.00,-4.00,-27.00,-12.00,-4.00,-3.00,+6.00,-4.00,-17.00,+83.00,+4.00,-10.00,-19.00
+20.00,-5.00,-3.00,+19.00,+15.00,+22.00,+8.00,+2.00,+76.00,+15.00,-2.00,-14.00,-18.00,+13.00,+12.00,-1.00
+7.00,+3.00,-2.00,-5.00,+6.00,+18.00,+6.00,-18.00,-8.00,-11.00,+4.00,+3.00,-28.00,-3.00,+3.00,-2.00
+1.00,-21.00,-10.00,-24.00,-22.00,-68.00,-55.00,-18.00,-24.00,-16.00,-3.00,+10.00,-30.00,+3.00,+0.00,-16.00
+2.00,-70.00,+7.00,+26.00,+12.00,+28.00,+31.00,+17.00,+82.00,+12.00,-1.00,+0.00,+3.00,+13.00,-13.00,+41.00
-7.00,+83.00,+4.00,+8.00,+0.00,-21.00,-10.00,-8.00,-49.00,-8.00,-4.00,+0.00,+36.00,+6.00,+7.00,-27.00
+11.00,-39.00,-5.00,+6.00,+3.00,+3.00,+0.00,+12.00,-47.00,-7.00,-8.00,-3.00,+0.00,-10.00,-12.00,-6.00
+4.00,+25.00,-11.00,-3.00,-12.00,+4.00,-4.00,-6.00,+54.00,-18.00,+1.00,-3.00,+10.00,-1.00,+5.00,+21.00
-9.00,+4.00,-7.00,-18.00,-20.00,-65.00,-30.00,-11.00,+54.00,+54.00,+6.00,+5.00,+19.00,-4.00,+8.00,+28.00
-12.00,-34.00,+20.00,-6.00,-7.00,+14.00,+4.00,-1.00,-29.00,+18.00,+26.00,-2.00,+21.00,+11.00,-12.00,-15.00
-6.00,+74.00,+6.00,-17.00,-8.00,-27.00,+2.00,+8.00,+7.00,-13.00,-13.00,-4.00,-99.00,-5.00,+4.00,-2.00
-8.00,+24.00,+3.00,+0.00,+24.00,+80.00,+34.00,+15.00,-13.00,+27.00,-10.00,+3.00,+17.00,-1.00,-2.00,-9.00
+6.00,+17.00,-6.00,+3.00,+14.00,+37.00,-3.00,+4.00,-70.00,-54.00,-10.00,-11.00,+16.00,-3.00,-1.00,-9.00
+11.00,-47.00,-12.00,+24.00,+17.00,+45.00,+26.00,+2.00,+45.00,-17.00,-4.00,-6.00,-93.00,-12.00,-6.00,-5.00
+8.00,-23.00,-16.00,-30.00,-3.00,-29.00,-11.00,-12.00,+49.00,+14.00,+3.00,-17.00,+52.00,-4.00,+4.00,+33.00
+9.00,-68.00,-3.00,-8.00,-16.00,-63.00,-7.00,-1.00,-65.00,+0.00,-4.00,-6.00,+32.00,-33.00,-13.00,-35.00
-4.00,+103.00,+16.00,-8.00,-7.00,-22.00,-4.00,+0.00,+10.00,+3.00,-6.00,+14.00,-42.00,+13.00,+1.00,-1.00
-3.00,-15.00,-6.00,+11.00,+25.00,+58.00,+6.00,+4.00,-54.00,-7.00,+3.00,+0.00,-6.00,-10.00,-1.00,-2.00
-1.00,-33.00,-1.00,-7.00,-5.00,-14.00,-10.00,-8.00,+9.00,-12.00,+7.00,+8.00,+127.00,+26.00,-32.00,-4.00
-2.00,+0.00,-8.00,-10.00,-6.00,-21.00,+0.00,+2.00,-81.00,-65.00,-4.00,+12.00,-74.00,-7.00,+27.00,+19.00
-7.00,-35.00,+4.00,-18.00,-14.00,-16.00,-10.00,-8.00,+100.00,+89.00,+11.00,+7.00,+27.00,-1.00,+7.00,+2.00
-8.00,-28.00,+1.00,-26.00,-17.00,-8.00,+0.00,+8.00,-43.00,-3.00,-1.00,-4.00,+66.00,+9.00,+1.00,+3.00
-1.00,+81.00,+11.00,+41.00,+48.00,+121.00,+12.00,+13.00,+31.00,+28.00,+15.00,+7.00,-16.00,-8.00,+0.00,+7.00
+2.00,-15.00,-3.00,+1.00,+8.00,+69.00,-13.00,-3.00,-23.00,-1.00,+9.00,-1.00,-9.00,+1.00,-12.00,-17.00
+1.00,-14.00,+2.00,+16.00,-8.00,-75.00,-13.00,-18.00,-46.00,-49.00,-30.00,-24.00,+6.00,+0.00,-2.00,-24.00
-3.00,-5.00,-17.00,-30.00,+0.00,-12.00,-13.00,-9.00,-17.00,-23.00,-5.00,+3.00,+30.00,+36.00,+11.00,+19.00
-2.00,-54.00,-5.00,-22.00,-10.00,-15.00,+9.00,+4.00,+127.00,+20.00,-7.00,-7.00,-60.00,-24.00,+2.00,-33.00
-6.00,+2.00,+5.00,-2.00,-4.00,-32.00,-6.00,-4.00,+99.00,-2.00,+8.00,+7.00,-23.00,+4.00,-6.00,-6.00
+0.00,-1.00,-11.00,+0.00,+1.00,-11.00,-6.00,+1.00,+1.00,-8.00,+16.00,-2.00,-4.00,-7.00,+9.00,+25.00
+1.00,-26.00,-37.00,-15.00,-10.00,-28.00,-9.00,-3.00,-8.00,+15.00,-13.00,+23.00,+95.00,+29.00,-8.00,-7.00
-1.00,+21.00,+41.00,+1.00,+2.00,+11.00,-3.00,+1.00,-99.00,-19.00,-4.00,-10.00,-21.00,-4.00,+5.00,+6.00
-8.00,-43.00,-15.00,-15.00,-5.00,-41.00,+4.00,-9.00,-69.00,-3.00,+1.00,-6.00,+39.00,+2.00,-6.00,-16.00
+3.00,-68.00,+0.00,+2.00,-15.00,-4.00,-9.00,-4.00,-112.00,-45.00,-7.00,-3.00,-4.00,-10.00,-13.00,-30.00
-7.00,+106.00,+15.00,-9.00,+9.00,-23.00,+15.00,+20.00,+89.00,+53.00,+3.00,+7.00,+21.00,+3.00,+7.00,+30.00
-9.00,-66.00,-21.00,-32.00,-30.00,-91.00,-19.00,-24.00,-25.00,+0.00,+3.00,-7.00,+6.00,+3.00,+11.00,+17.00
+1.00,+29.00,-3.00,+21.00,+39.00,+97.00,+29.00,+4.00,+8.00,+0.00,-3.00,+5.00,-36.00,-5.00,-7.00,-4.00
-1.00,-40.00,-6.00,-5.00,+1.00,+9.00,-4.00,-2.00,-5.00,+0.00,-2.00,-8.00,-6.00,+1.00,+0.00,+5.00
+6.00,-43.00,-4.00,+15.00,-1.00,-21.00,+4.00,+1.00,-21.00,-31.00,-13.00,-32.00,+28.00,+2.00,-13.00,-22.00
-1.00,+65.00,+6.00,-3.00,-2.00,-39.00,-8.00,+5.00,-38.00,-2.00,-3.00,+26.00,+49.00,+31.00,+16.00,+21.00
-1.00,-20.00,+7.00,+14.00,+6.00,+42.00,+10.00,+4.00,-2.00,+8.00,-10.00,-18.00,+89.00,-3.00,-16.00,-29.00
+0.00,-1.00,-5.00,+19.00,+5.00,+4.00,-2.00,+4.00,-18.00,-25.00,+10.00,+7.00,+99.00,+9.00,+0.00,+1.00
+2.00,+33.00,+23.00,-3.00,-4.00,-15.00,-2.00,-8.00,+16.00,+30.00,-1.00,-15.00,-74.00,-24.00,+0.00,+11.00
+1.00,-17.00,-39.00,-9.00,-9.00,-11.00,+0.00,+2.00,+22.00,+28.00,+1.00,+12.00,+52.00,-7.00,-7.00,-5.00
+2.00,-46.00,-27.00,+4.00,-11.00,-36.00,-5.00,-5.00,-50.00,-14.00,+0.00,+6.00,-6.00,+3.00,+4.00,+15.00
+0.00,+13.00,+55.00,+10.00,+0.00,+12.00,-4.00,-3.00,+42.00,+24.00,+1.00,+2.00,+27.00,+8.00,+1.00,-2.00
+6.00,+29.00,-4.00,+15.00,-24.00,-88.00,-11.00,-8.00,-6.00,-7.00,-6.00,-10.00,-4.00,-3.00,-4.00,-12.00
-2.00,+31.00,+14.00,+14.00,+25.00,+109.00,+20.00,+20.00,-15.00,+1.00,-3.00,-7.00,-51.00,-8.00,+7.00,+15.00
+1.00,-2.00,-24.00,-13.00,-5.00,-20.00,-9.00,-3.00,+6.00,+8.00,+3.00,+2.00,+2.00,+7.00,+5.00,+20.00
+3.00,-3.00,-15.00,-8.00,+6.00,+2.00,-2.00,-15.00,-46.00,-28.00,-8.00,-4.00,-45.00,-14.00,-12.00,-22.00
+3.00,-37.00,+6.00,+3.00,-33.00,-95.00,-28.00,-5.00,+37.00,+1.00,+7.00,-1.00,-22.00,-8.00,-2.00,-19.00
-6.00,-32.00,-16.00,-11.00,+3.00,+1.00,+6.00,+3.00,+28.00,+53.00,+6.00,+8.00,-34.00,-5.00,-1.00,-2.00
+0.00,+41.00,+14.00,-8.00,-10.00,-59.00,-2.00,+6.00,-32.00,-16.00,-4.00,-5.00,+7.00,-1.00,-3.00,-14.00
-1.00,+11.00,-4.00,-3.00,+1.00,-4.00,+1.00,+14.00,-18.00,-42.00,+0.00,+2.00,+41.00,-1.00,+1.00,-7.00
+2.00,-58.00,+6.00,+5.00,-1.00,-11.00,+0.00,-9.00,-24.00,-1.00,-4.00,+1.00,-58.00,-15.00,-8.00,-31.00
+3.00,+11.00,+0.00,-2.00,+0.00,-20.00,+2.00,+17.00,+51.00,-11.00,-3.00,-13.00,+109.00,+17.00,+7.00,+35.00
-1.00,-14.00,+1.00,+3.00,+2.00,+42.00,-1.00,-11.00,+71.00,+23.00,+6.00,-3.00,+38.00,+22.00,+11.00,+25.00
-1.00,-8.00,+9.00,+0.00,-9.00,-20.00,-3.00,-2.00,-46.00,+33.00,+7.00,+4.00,-61.00,+0.00,+1.00,-13.00
+0.00,+14.00,-10.00,-26.00,-5.00,-17.00,-12.00,-13.00,+11.00,-37.00,-1.00,+18.00,+19.00,-10.00,-1.00,+18.00
+10.00,-26.00,+7.00,+32.00,+3.00,-56.00,-5.00,-2.00,-44.00,-20.00,-7.00,-5.00,+10.00,-5.00,-6.00,-25.00
-9.00,+24.00,+14.00,-14.00,+7.00,+2.00,+4.00,-9.00,+18.00,-13.00,-5.00,-8.00,-12.00,+1.00,+0.00,+11.00
+7.00,+22.00,-15.00,+2.00,-19.00,-98.00,-16.00,-3.00,-5.00,-3.00,+0.00,+0.00,-19.00,-5.00,+8.00,+7.00
-3.00,-5.00,-8.00,+7.00,+34.00,+125.00,+10.00,-2.00,-34.00,-8.00,-4.00,-10.00,+8.00,-2.00,-8.00,-17.00
+1.00,-56.00,+4.00,+1.00,-13.00,-6.00,-4.00,-20.00,-28.00,-4.00,-6.00,-2.00,-49.00,-6.00,+1.00,-4.00
+3.00,+16.00,+6.00,-4.00,-9.00,-41.00,-9.00,-4.00,+21.00,-1.00,-3.00,-4.00,-5.00,-2.00,+1.00,+19.00
-5.00,-59.00,-10.00,-8.00,+0.00,-2.00,-2.00,-7.00,-21.00,-12.00,-5.00,+0.00,-3.00,+5.00,+3.00,+19.00
+7.00,+31.00,+3.00,+0.00,-10.00,-20.00,-1.00,+8.00,-3.00,-1.00,-1.00,-3.00,+6.00,+0.00,+2.00,+5.00
+0.00,+7.00,-13.00,-10.00,-2.00,+2.00,+0.00,-14.00,+59.00,+38.00,+10.00,+6.00,-13.00,-6.00,-8.00,-24.00
-2.00,-8.00,+28.00,+4.00,-3.00,-10.00,+1.00,-4.00,+6.00,+1.00,+9.00,-2.00,+44.00,+9.00,+13.00,+39.00
-9.00,+14.00,-9.00,-13.00,-1.00,+19.00,+2.00,+4.00,-67.00,-57.00,-9.00,+11.00,-18.00,-11.00,-19.00,-64.00
-5.00,-26.00,-21.00,-8.00,+6.00,+18.00,+2.00,+6.00,+91.00,+47.00,-5.00,-6.00,-2.00,-2.00,+8.00,+44.00
-1.00,+6.00,+21.00,+18.00,+7.00,+29.00,+4.00,+0.00,-55.00,-57.00,+13.00,-4.00,-11.00,+6.00,+12.00,+31.00
+1.00,+63.00,-11.00,-1.00,-7.00,-18.00,-2.00,+7.00,-33.00,+39.00,+10.00,+11.00,-48.00,-22.00,-6.00,-28.00
-1.00,+7.00,+1.00,-3.00,+6.00,+17.00,+0.00,+6.00,+48.00,+9.00,+3.00,+9.00,-8.00,+27.00,+8.00,+18.00
-3.00,+30.00,-1.00,+0.00,-1.00,-18.00,+0.00,+6.00,-25.00,-14.00,-6.00,-23.00,+17.00,-20.00,+11.00,-29.00
+1.00,-67.00,-12.00,-25.00,-26.00,-99.00,-12.00,-11.00,+9.00,-26.00,-9.00,+16.00,-79.00,-28.00,-37.00,-23.00
-2.00,-64.00,+0.00,+11.00,+14.00,+40.00,-2.00,+11.00,+11.00,-13.00,-11.00,-6.00,+30.00,+2.00,+4.00,+1.00
+0.00,+85.00,+11.00,+10.00,+11.00,+12.00,+7.00,+7.00,+13.00,+11.00,-8.00,-12.00,+9.00,-5.00,-9.00,-17.00
+0.00,-45.00,-10.00,+1.00,+15.00,+90.00,+9.00,-4.00,-13.00,-13.00,+4.00,+10.00,-10.00,+4.00,+7.00,-8.00
-5.00,-28.00,-6.00,-10.00,-11.00,-8.00,-3.00,-11.00,-1.00,+13.00,-12.00,-22.00,+25.00,-14.00,-1.00,-9.00
+4.00,-1.00,+5.00,+5.00,-12.00,-47.00,-5.00,-5.00,+45.00,-10.00,+6.00,+5.00,-5.00,+1.00,+4.00,+19.00
-1.00,-1.00,-1.00,-3.00,+9.00,+13.00,+5.00,-7.00,+44.00,+58.00,+12.00,+1.00,-25.00,-10.00,+1.00,+18.00
-5.00,-12.00,-3.00,-23.00,-3.00,-12.00,-7.00,-12.00,-40.00,-6.00,+11.00,+0.00,+43.00,+3.00,-14.00,-18.00
-1.00,-15.00,-7.00,+2.00,+4.00,+7.00,-2.00,-4.00,+11.00,-8.00,-48.00,-17.00,-16.00,-2.00,+2.00,-2.00
+1.00,-35.00,+5.00,-1.00,-6.00,-5.00,+0.00,-4.00,+4.00,-34.00,-4.00,-1.00,-23.00,-2.00,-7.00,-19.00
+0.00,+53.00,-1.00,+10.00,+2.00,+9.00,-1.00,-14.00,-52.00,+6.00,-7.00,-6.00,+20.00,-1.00,+11.00,+17.00
-1.00,-10.00,-1.00,-3.00,-4.00,-15.00,+2.00,-2.00,-68.00,+26.00,+12.00,+5.00,-11.00,+9.00,+0.00,+9.00
+4.00,+42.00,+19.00,+19.00,+8.00,+31.00,+3.00,+8.00,+16.00,-15.00,-15.00,-9.00,-14.00,-8.00,-21.00,-51.00
-2.00,+38.00,-4.00,+1.00,-3.00,-34.00,+2.00,-1.00,+31.00,+30.00,+29.00,+11.00,+89.00,+24.00,+30.00,+78.00
-5.00,-57.00,-21.00,-27.00,-12.00,-4.00,-5.00,+6.00,+2.00,-2.00,-1.00,-10.00,-53.00,-24.00,+0.00,+4.00
+1.00,-16.00,+8.00,+11.00,+5.00,+22.00,+4.00,+4.00,-11.00,-4.00,+0.00,+13.00,+31.00,-6.00,+0.00,+7.00
-5.00,+84.00,+12.00,-8.00,-4.00,+22.00,+8.00,+9.00,-38.00,-27.00,+4.00,+7.00,+36.00,-8.00,-10.00,-36.00
+2.00,+75.00,+3.00,+30.00,+13.00,+74.00,+22.00,+21.00,+2.00,-29.00,-22.00,-18.00,+35.00,+6.00,-11.00,-24.00
+1.00,+9.00,+6.00,-1.00,+3.00,-35.00,-5.00,+6.00,+5.00,+14.00,+3.00,+10.00,+17.00,+1.00,-4.00,-3.00
-7.00,-32.00,-8.00,-14.00,-6.00,-22.00,-21.00,-8.00,+32.00,+7.00,-1.00,-7.00,+10.00,+7.00,+18.00,-2.00
+5.00,-28.00,-5.00,+15.00,-27.00,-86.00,+1.00,+6.00,-8.00,-4.00,+5.00,+4.00,-16.00,+17.00,-47.00,+7.00
-7.00,-40.00,-5.00,-23.00,+12.00,+25.00,+9.00,-6.00,-43.00,+7.00,-6.00,-4.00,-46.00,-8.00,+7.00,-24.00
-3.00,+42.00,+3.00,-7.00,-6.00,+0.00,-1.00,+1.00,+5.00,-52.00,-19.00,-15.00,-2.00,-5.00,-14.00,-20.00
-1.00,-6.00,-5.00,-2.00,+2.00,+9.00,+8.00,-2.00,-31.00,+52.00,+3.00,+4.00,-25.00,+3.00,+4.00,+8.00
-1.00,+3.00,-7.00,-23.00,-9.00,-27.00,-24.00,-17.00,+77.00,+17.00,+19.00,+4.00,+68.00,+7.00,+24.00,+52.00
-3.00,+3.00,+3.00,-13.00,-8.00,-39.00,-5.00,+2.00,-67.00,+0.00,+6.00,+7.00,-106.00,-10.00,-9.00,-16.00
-7.00,-71.00,-17.00,-11.00,+10.00,+31.00,+16.00,-3.00,-41.00,-32.00,-18.00,-10.00,-5.00,-2.00,-12.00,-27.00
-4.00,+36.00,-2.00,-32.00,-14.00,-22.00,-13.00,-3.00,+48.00,+20.00,-5.00,+3.00,+20.00,-1.00,-7.00,+7.00
+0.00,-28.00,+29.00,-6.00,+8.00,+25.00,-2.00,-4.00,-107.00,-30.00,+3.00,-7.00,-25.00,-3.00,+5.00,-31.00
-5.00,+22.00,+3.00,+5.00,-4.00,-12.00,-4.00,+2.00,+99.00,-11.00,-5.00,-4.00,+15.00,+7.00,+3.00,+38.00
+2.00,-43.00,-8.00,-3.00,+1.00,+23.00,+1.00,+10.00,-21.00,+34.00,+4.00,-5.00,+109.00,+6.00,+13.00,+23.00
-3.00,+3.00,-3.00,+10.00,-1.00,-13.00,+4.00,+3.00,-13.00,-28.00,+3.00,+11.00,-103.00,-6.00,-17.00,-17.00
+1.00,-80.00,-34.00,-11.00,-4.00,+18.00,-13.00,-6.00,+17.00,+48.00,+15.00,+10.00,+33.00,+3.00,+6.00,-7.00
-3.00,+83.00,+27.00,+6.00,-11.00,-30.00,+9.00,+10.00,-39.00,-20.00,-15.00,-5.00,-14.00,-13.00,-16.00,-45.00
+1.00,-24.00,+3.00,+18.00,+22.00,+56.00,+10.00,+9.00,-2.00,-20.00,-3.00,-2.00,+23.00,+1.00,-1.00,+6.00
-1.00,-10.00,+6.00,+3.00,+6.00,+22.00,+4.00,+2.00,+21.00,+2.00,-10.00,-18.00,-16.00,+9.00,+1.00,+27.00
-3.00,+24.00,-11.00,-12.00,-6.00,-13.00,+0.00,+8.00,+17.00,-26.00,+2.00,-2.00,-5.00,-1.00,+0.00,-26.00
-3.00,-79.00,-18.00,-21.00,+1.00,+11.00,-15.00,-11.00,+19.00,+30.00,-7.00,-5.00,-58.00,-10.00,-17.00,-12.00
-2.00,+37.00,-1.00,-13.00,-14.00,-38.00,-9.00,-2.00,+41.00,+37.00,+11.00,+7.00,-16.00,+2.00,-4.00,+14.00
+6.00,+42.00,+10.00,+24.00,+3.00,-16.00,+21.00,+14.00,-13.00,-25.00,-2.00,+1.00,+10.00,-6.00,+9.00,+6.00
-1.00,+9.00,-1.00,+6.00,+12.00,+52.00,+0.00,-10.00,-43.00,+12.00,-4.00,-4.00,-32.00,+14.00,+12.00,-5.00
+1.00,+6.00,-9.00,-11.00,-10.00,-41.00,-10.00,-9.00,+43.00,+16.00,+2.00,+3.00,+37.00,+0.00,+4.00,+17.00
-1.00,+5.00,-4.00,-10.00,-11.00,-22.00,-6.00,-15.00,+2.00,+31.00,+5.00,+2.00,-12.00,-4.00,-6.00,+6.00
+0.00,-66.00,+2.00,+6.00,+8.00,+14.00,-2.00,-10.00,+11.00,-38.00,-11.00,-7.00,+5.00,+11.00,-2.00,-2.00
-4.00,+63.00,+14.00,+7.00,+1.00,+0.00,+11.00,+6.00,-65.00,-33.00,-3.00,-2.00,+10.00,-17.00,-3.00,-5.00
+5.00,+10.00,-4.00,+11.00,+11.00,-7.00,+8.00,+0.00,+20.00,+25.00,-4.00,+1.00,+27.00,-2.00,-10.00,-7.00
-4.00,+18.00,-2.00,-7.00,-10.00,-12.00,-13.00,-5.00,+27.00,-4.00,-5.00,-4.00,-28.00,-6.00,+1.00,-4.00
-4.00,-80.00,-8.00,-12.00,-7.00,-16.00,-12.00,-11.00,-94.00,-32.00,+7.00,+2.00,+34.00,+7.00,-3.00,-23.00
+3.00,+65.00,+0.00,+5.00,+10.00,+25.00,+4.00,+7.00,+82.00,-26.00,+1.00,+7.00,-39.00,+7.00,+26.00,+74.00
-5.00,-105.00,-3.00,-5.00,-10.00,-22.00,-4.00,-7.00,-37.00,+42.00,+8.00,-16.00,+34.00,+9.00,-9.00,-25.00
+0.00,-12.00,-15.00,-15.00,-18.00,-53.00,-6.00,+3.00,-38.00,-24.00,-3.00,-8.00,-38.00,-28.00,+16.00,-24.00
+0.00,+88.00,+30.00,+27.00,+31.00,+65.00,+16.00,+13.00,+56.00,-2.00,-9.00,+2.00,+36.00,+0.00,-32.00,-7.00
-6.00,-42.00,-25.00,-2.00,+5.00,+7.00,+2.00,-1.00,-54.00,+54.00,+9.00,+10.00,-16.00,+7.00,+15.00,+36.00
+1.00,-2.00,+2.00,-14.00,-5.00,+1.00,-12.00,-2.00,-39.00,-57.00,-17.00,-4.00,+28.00,-1.00,-8.00,-10.00
-2.00,-18.00,+1.00,-5.00,-4.00,-11.00,-4.00,+0.00,+24.00,+7.00,+6.00,+0.00,+3.00,+0.00,+4.00,-12.00
-4.00,+6.00,-7.00,-16.00,-15.00,-38.00,-6.00,-3.00,-9.00,-21.00,+13.00,-4.00,+0.00,+0.00,+11.00,+19.00
+1.00,-15.00,-8.00,+2.00,+0.00,-7.00,-1.00,+7.00,-66.00,-33.00,-43.00,-15.00,-10.00,-14.00,-15.00,-54.00
+2.00,+9.00,-10.00,+1.00,-6.00,-27.00,-14.00,-10.00,+70.00,+7.00,+11.00,+7.00,-9.00,+5.00,+25.00,+76.00
+0.00,-62.00,-1.00,+7.00,+12.00,+62.00,+13.00,-1.00,+78.00,+61.00,+15.00,+6.00,+10.00,+9.00,-2.00,+25.00
-4.00,+74.00,+4.00,+2.00,+2.00,+4.00,+2.00,-3.00,-1.00,+12.00,-2.00,-2.00,-18.00,-10.00,-3.00,-2.00
+2.00,+7.00,+3.00,+9.00,+3.00,+19.00,+1.00,-2.00,+20.00,-65.00,+10.00,+2.00,+11.00,+5.00,-5.00,-13.00
+3.00,-59.00,-2.00,+7.00,-7.00,-18.00,+4.00,-3.00,-103.00,+7.00,-8.00,-7.00,-27.00,-18.00,-1.00,-22.00
+1.00,-47.00,+1.00,-1.00,+0.00,-1.00,+3.00,+0.00,+11.00,-15.00,-1.00,+3.00,+9.00,+15.00,+2.00,+19.00
-1.00,-2.00,-9.00,-17.00,-11.00,-49.00,-31.00,-11.00,-13.00,-14.00,-5.00,+2.00,-1.00,-11.00,-6.00,-18.00
-6.00,+8.00,+11.00,-5.00,+6.00,+25.00,+37.00,+14.00,-10.00,-1.00,+3.00,-4.00,+0.00,-10.00,-2.00,-24.00
+2.00,-24.00,-12.00,-10.00,-8.00,+1.00,-8.00,-9.00,-47.00,+17.00,+2.00,+6.00,+39.00,+8.00,+2.00,+4.00
+1.00,-37.00,+3.00,+4.00,+2.00,-6.00,-2.00,-3.00,-10.00,-28.00,+0.00,-4.00,-29.00,-10.00,-7.00,-10.00
-1.00,+66.00,+5.00,-7.00,-1.00,+8.00,-6.00,+2.00,-2.00,+5.00,-3.00,+5.00,+8.00,-1.00,+2.00,+13.00
-4.00,-39.00,+7.00,-3.00,-1.00,-57.00,-9.00,-5.00,-37.00,+41.00,-5.00,-8.00,+4.00,-3.00,-2.00,-10.00
-3.00,+34.00,+0.00,-13.00,-11.00,-35.00,-4.00,+0.00,-44.00,-38.00,+1.00,-3.00,-3.00,-11.00,-4.00,-6.00
-4.00,+50.00,+3.00,+9.00,+16.00,+96.00,+19.00,+13.00,+25.00,-7.00,-8.00,-30.00,+14.00,-5.00,-13.00,-21.00
+4.00,-42.00,-11.00,-4.00,-10.00,-12.00,-2.00,-6.00,-48.00,+12.00,-2.00,+2.00,-75.00,-91.00,+8.00,+18.00
+1.00,-46.00,+2.00,+10.00,+3.00,+11.00,-8.00,-6.00,+20.00,+7.00,+0.00,+30.00,+52.00,+74.00,-35.00,-16.00
-2.00,+17.00,-9.00,-8.00,-1.00,+23.00,+2.00,+4.00,-9.00,-17.00,-3.00,+1.00,+24.00,+6.00,-3.00,-10.00
+3.00,+19.00,-2.00,-8.00,-9.00,-38.00,-7.00,-1.00,+46.00,+23.00,+2.00,+15.00,+19.00,+14.00,+2.00,-6.00
-1.00,-52.00,-5.00,-6.00,-6.00,-10.00,+4.00,-4.00,+17.00,-23.00,-9.00,-23.00,+41.00,+2.00,+0.00,+24.00
-1.00,+59.00,+7.00,+0.00,-5.00,+5.00,-10.00,-8.00,+38.00,+43.00,+11.00,-5.00,-17.00,-28.00,+7.00,+3.00
+2.00,-44.00,+8.00,+14.00,+11.00,+19.00,+10.00,+15.00,-18.00,-75.00,-4.00,+1.00,-22.00,-7.00,-10.00,-34.00
-5.00,+66.00,+11.00,+4.00,+2.00,-27.00,-3.00,-13.00,+8.00,+27.00,+0.00,-7.00,+11.00,-2.00,-8.00,+3.00
-3.00,+23.00,+2.00,-3.00,+5.00,+14.00,+6.00,-2.00,-36.00,+30.00,-11.00,-3.00,-20.00,+11.00,-2.00,-28.00
+1.00,-28.00,-12.00,-13.00,-3.00,-2.00,-11.00,-4.00,-9.00,+3.00,+5.00,+4.00,-10.00,-8.00,+22.00,+64.00
+1.00,+3.00,-1.00,-8.00,+0.00,-9.00,+1.00,+1.00,-37.00,+8.00,+9.00,+3.00,+4.00,+15.00,+3.00,+15.00
-3.00,-3.00,+1.00,-4.00,-2.00,-13.00,-8.00,-1.00,-55.00,-39.00,-10.00,+0.00,-22.00,-14.00,-3.00,-19.00
+3.00,-7.00,-8.00,+5.00,+0.00,+24.00,+4.00,+6.00,+92.00,+36.00,+11.00,+8.00,+17.00,+22.00,+1.00,+7.00
-1.00,-38.00,-1.00,+8.00,+0.00,-2.00,-3.00,-2.00,+45.00,+26.00,-5.00,-9.00,-5.00,-6.00,+0.00,-19.00
-6.00,+55.00,+4.00,+4.00,-1.00,-3.00,-3.00,-4.00,-20.00,-15.00,-13.00,-11.00,-8.00,-14.00,-12.00,-30.00
+0.00,+16.00,+5.00,+4.00,+0.00,+18.00,+5.00,+4.00,+25.00,+19.00,+11.00,+11.00,+6.00,+7.00,+13.00,+38.00
-6.00,-13.00,-4.00,+6.00,+3.00,+12.00,+3.00,-6.00,-13.00,-15.00,-5.00,-3.00,+6.00,+11.00,-7.00,-21.00
-2.00,-50.00,-8.00,-4.00,-7.00,-16.00,-7.00,-3.00,-4.00,-15.00,+3.00,-10.00,+1.00,-5.00,-3.00,-6.00
-5.00,+62.00,+7.00,-5.00,-8.00,+4.00,-3.00,-1.00,+6.00,+16.00,-3.00,+0.00,-16.00,-15.00,+4.00,+4.00
-3.00,+3.00,-8.00,-18.00,-1.00,-76.00,-16.00,-14.00,-23.00,-8.00,+3.00,+3.00,+1.00,+8.00,+1.00,-3.00
+6.00,-20.00,+8.00,+15.00,+14.00,-14.00,+22.00,+7.00,+8.00,-17.00,-6.00,-2.00,-5.00,+12.00,-4.00,-1.00
-7.00,-9.00,-8.00,+12.00,+19.00,+85.00,+15.00,-2.00,+3.00,-17.00,+7.00,-3.00,-13.00,-11.00,+3.00,-1.00
-2.00,-3.00,-3.00,-4.00,+0.00,+2.00,-2.00,-9.00,+44.00,+54.00,+21.00,+12.00,+2.00,+6.00,+5.00,+10.00
+5.00,-42.00,-4.00,-2.00,-9.00,-5.00,-5.00,-4.00,-20.00,-89.00,-33.00,-9.00,+6.00,+4.00,-5.00,-19.00
+0.00,-14.00,-5.00,-15.00,-12.00,-47.00,-19.00,-15.00,+6.00,+41.00,-19.00,-14.00,+3.00,-5.00,-4.00,+13.00
+4.00,+82.00,+7.00,+1.00,+0.00,-28.00,-4.00,+1.00,-4.00,-2.00,-5.00,-7.00,-10.00,-8.00,+0.00,+8.00
-2.00,-50.00,-7.00,-6.00,+1.00,+16.00,+5.00,+13.00,-33.00,-5.00,-6.00,-5.00,-10.00,-5.00,-14.00,-36.00
-6.00,-57.00,-8.00,-8.00,-8.00,-17.00,-6.00,+0.00,+4.00,+3.00,-3.00,-3.00,+3.00,-7.00,-8.00,+6.00
-3.00,-41.00,-28.00,-11.00,-7.00,+2.00,-4.00,+8.00,-53.00,-20.00,+22.00,+11.00,+54.00,+8.00,+17.00,+40.00
+5.00,+90.00,+41.00,+16.00,+7.00,+8.00,+9.00,-4.00,+95.00,+41.00,+2.00,+2.00,-39.00,-6.00,+0.00,+6.00
-3.00,+22.00,-4.00,+3.00,+1.00,+6.00,+1.00,+2.00,-12.00,-1.00,+1.00,+0.00,+1.00,+14.00,+24.00,-12.00
+1.00,+2.00,-5.00,-1.00,-4.00,+3.00,-2.00,+4.00,-43.00,+0.00,+2.00,+10.00,-17.00,-20.00,-4.00,-14.00
-5.00,-54.00,-1.00,+5.00,+0.00,+12.00,+3.00,+6.00,+12.00,-19.00,-6.00,+0.00,+25.00,+9.00,+10.00,-15.00
+0.00,+19.00,-12.00,-7.00,-7.00,-6.00,-7.00,+5.00,-7.00,-8.00,+0.00,-1.00,+16.00,-5.00,-38.00,-18.00
-3.00,-25.00,-4.00,-9.00,-4.00,-14.00,-12.00,-5.00,+12.00,-2.00,-8.00,-4.00,-9.00,-7.00,-6.00,+5.00
+1.00,+15.00,+13.00,+8.00,+10.00,+17.00,+10.00,+3.00,-33.00,+1.00,+1.00,-2.00,-6.00,-4.00,-2.00,-9.00
-2.00,+7.00,-3.00,-8.00,-3.00,+6.00,+0.00,-2.00,-1.00,+7.00,-2.00,-2.00,-17.00,+1.00,+5.00,+1.00
+0.00,+37.00,-3.00,-6.00,-4.00,-24.00,-1.00,-1.00,-26.00,+2.00,+5.00,+0.00,+20.00,-8.00,+8.00,+6.00
+1.00,-13.00,-1.00,-1.00,-1.00,+2.00,-5.00,-3.00,+2.00,-5.00,-10.00,-6.00,-8.00,-3.00,-13.00,-7.00
-3.00,+9.00,-5.00,+2.00,-3.00,+11.00,-5.00,+0.00,+2.00,+11.00,+5.00,+2.00,-5.00,-4.00,+6.00,+3.00
-1.00,+14.00,+7.00,+0.00,-3.00,+1.00,-2.00,-7.00,+15.00,+1.00,-2.00,+2.00,+0.00,+12.00,+0.00,+1.00
+0.00,-46.00,-9.00,-1.00,+6.00,-21.00,-3.00,+1.00,-37.00,-35.00,-10.00,-8.00,-3.00,+1.00,+11.00,-11.00
+0.00,-15.00,+2.00,+2.00,+5.00,+21.00,+4.00,-3.00,+2.00,-1.00,-2.00,-2.00,-2.00,+0.00,-2.00,+15.00
-1.00,+19.00,+13.00,-26.00,-16.00,-9.00,-4.00,-5.00,+15.00,+11.00,+6.00,+0.00,-8.00,-2.00,-7.00,-14.00
-5.00,+24.00,+33.00,+20.00,-15.00,-10.00,-5.00,-15.00,+6.00,+7.00,+8.00,+3.00,+9.00,+2.00,-8.00,+3.00
-3.00,-22.00,-4.00,+4.00,+1.00,-5.00,-2.00,-8.00,-22.00,-7.00,-1.00,-1.00,-3.00,-1.00,+8.00,+7.00
+4.00,-4.00,-15.00,+0.00,+3.00,+7.00,+0.00,+1.00,+30.00,-7.00,-9.00,-7.00,-9.00,-6.00,-2.00,-5.00
-1.00,-37.00,-29.00,-6.00,+0.00,-9.00,-2.00,+4.00,-85.00,-26.00,+1.00,-2.00,+9.00,+4.00,-5.00,-17.00
-3.00,-5.00,+10.00,-3.00,+2.00,+0.00,+8.00,+4.00,+110.00,+65.00,+10.00,+2.00,-13.00,+6.00,+9.00,+31.00
+3.00,-72.00,+0.00,+2.00,-5.00,+6.00,-9.00,+0.00,-52.00,-11.00,+4.00,-3.00,+6.00,+0.00,+0.00,-1.00
-2.00,+36.00,-4.00,+3.00,+6.00,+28.00,+30.00,+8.00,-29.00,-12.00,+1.00,+4.00,+10.00,-3.00,-6.00,-2.00
-1.00,-9.00,+6.00,-2.00,-5.00,-24.00,+1.00,+0.00,+17.00,+12.00,-4.00,+2.00,-29.00,+6.00,+7.00,+20.00
+0.00,+9.00,-5.00,-4.00,+6.00,+30.00,+4.00,+4.00,-39.00,-53.00,-3.00,+1.00,-7.00,-2.00,-13.00,-23.00
-1.00,-9.00,-7.00,-5.00,-5.00,-9.00,+1.00,-2.00,+97.00,+18.00,-10.00,-5.00,+6.00,-2.00,+4.00,+7.00
+2.00,-42.00,-5.00,-6.00,-9.00,-28.00,-14.00,-3.00,+71.00,+23.00,+0.00,-5.00,-5.00,-3.00,-2.00,-7.00
+1.00,+18.00,+8.00,+10.00,+9.00,+40.00,+3.00,+0.00,+122.00,-8.00,-5.00,-2.00,+1.00,+1.00,+0.00,+2.00
+2.00,+3.00,-3.00,-5.00,+3.00,-7.00,+4.00,-2.00,+43.00,-14.00,+5.00,-3.00,-11.00,-4.00,-8.00,-22.00
-4.00,-12.00,-10.00,-7.00,-6.00,-7.00,-8.00,+0.00,-22.00,+10.00,+3.00,+4.00,-7.00,+0.00,+7.00,+16.00
+1.00,+11.00,+6.00,-3.00,-3.00,-5.00,-5.00,-7.00,-85.00,-18.00,-10.00,-1.00,+15.00,-1.00,-4.00,-10.00
+4.00,+15.00,-2.00,+2.00,+0.00,+0.00,+3.00,-1.00,-16.00,-2.00,-2.00,+1.00,+11.00,+2.00,+1.00,+12.00
+3.00,-15.00,+0.00,-5.00,-2.00,-11.00,-10.00,-2.00,-2.00,+35.00,+3.00,-1.00,-10.00,-9.00,-1.00,+2.00
-3.00,+57.00,+3.00,-5.00,-4.00,+4.00,+2.00,+5.00,-34.00,+5.00,+9.00,+0.00,+22.00,+19.00,+6.00,+2.00
+2.00,-38.00,+6.00,+3.00,+2.00,-6.00,-1.00,+1.00,-34.00,+7.00,+4.00,+0.00,-6.00,+2.00,-3.00,+3.00
-5.00,+6.00,-4.00,+2.00,+2.00,+7.00,+0.00,+0.00,-61.00,-6.00,+9.00,+4.00,+0.00,+2.00,+1.00,-1.00
