+1.00,-3.00,-8.00,+1.00,-5.00,-3.00,-3.00,-5.00,-2.00,+3.00,+1.00,+0.00,+0.00,-1.00,-2.00,-6.00
-3.00,-3.00,-3.00,+0.00,-1.00,-2.00,-1.00,-2.00,+0.00,-3.00,+2.00,+1.00,+0.00,+1.00,-1.00,+0.00
-3.00,-2.00,-1.00,-1.00,-1.00,-1.00,-1.00,-2.00,-1.00,-1.00,+3.00,-5.00,-2.00,-2.00,+0.00,-3.00
-1.00,-2.00,+0.00,-2.00,-3.00,-2.00,+0.00,+1.00,+0.00,-8.00,-7.00,-3.00,+1.00,-1.00,+1.00,-2.00
+1.00,-1.00,+2.00,-3.00,+1.00,+2.00,+1.00,+1.00,-16.00,-3.00,-3.00,-3.00,-2.00,-2.00,-3.00,-4.00
+0.00,+4.00,+1.00,+0.00,+0.00,-1.00,+0.00,+1.00,+24.00,+2.00,-2.00,+0.00,-1.00,-1.00,-2.00,+5.00
-1.00,-3.00,-2.00,-6.00,+2.00,-2.00,-2.00,-5.00,+9.00,+4.00,+2.00,+1.00,+1.00,+1.00,+0.00,+6.00
-4.00,-2.00,-4.00,-4.00,-2.00,-2.00,-1.00,-1.00,-3.00,+2.00,+2.00,-2.00,-3.00,-1.00,-2.00,-5.00
+0.00,-4.00,-4.00,+1.00,-7.00,-5.00,-5.00,-4.00,+3.00,+2.00,+0.00,+2.00,+0.00,+1.00,+1.00,+8.00
-4.00,-1.00,-3.00,-6.00,+1.00,-1.00,+1.00,-2.00,-14.00,-6.00,-4.00,-2.00,-1.00,-1.00,-1.00,-14.00
+0.00,-5.00,+2.00,+2.00,-2.00,+0.00,-2.00,-1.00,-4.00,-4.00,-4.00,-5.00,-4.00,-1.00,-1.00,-6.00
+1.00,+1.00,-1.00,+0.00,-2.00,+0.00,-2.00,-1.00,+5.00,+1.00,+0.00,-2.00,-1.00,-2.00,-2.00,+0.00
+1.00,-2.00,+2.00,+5.00,+4.00,+2.00,+0.00,-1.00,-14.00,-22.00,-3.00,+0.00,-1.00,-2.00,-4.00,-11.00
-2.00,+3.00,+1.00,+1.00,+2.00,+1.00,+0.00,-1.00,-36.00,-5.00,-7.00,-5.00,-6.00,-3.00,-4.00,-11.00
+0.00,+1.00,-3.00,+7.00,-2.00,-1.00,+1.00,+3.00,+80.00,+36.00,+11.00,+8.00,+4.00,+2.00,+9.00,+24.00
+0.00,-5.00,-2.00,+11.00,-1.00,+0.00,-1.00,+2.00,+14.00,+1.00,-2.00,-3.00,+7.00,+0.00,-2.00,-1.00
-2.00,+0.00,-4.00,+6.00,-3.00,-3.00,-3.00,-1.00,+6.00,+6.00,+4.00,+3.00,-17.00,-2.00,+0.00,+2.00
+2.00,-2.00,+1.00,+9.00,+0.00,-5.00,-5.00,-4.00,-5.00,-8.00,+0.00,+0.00,+1.00,-2.00,-3.00,-2.00
-1.00,-3.00,-4.00,+14.00,-2.00,-1.00,+1.00,-3.00,-37.00,-22.00,-5.00,-8.00,+28.00,-4.00,-6.00,-16.00
+1.00,+8.00,-4.00,+3.00,-2.00,-4.00,-3.00,-4.00,+1.00,+0.00,+2.00,-6.00,-81.00,+2.00,+3.00,+7.00
+2.00,+7.00,+1.00,+14.00,-1.00,-1.00,-1.00,-1.00,+15.00,+2.00,+0.00,+10.00,+5.00,-4.00,-2.00,-2.00
-1.00,-5.00,+1.00,+7.00,+1.00,+1.00,+4.00,+1.00,+2.00,+1.00,-2.00,+0.00,-2.00,-2.00,+0.00,+7.00
-1.00,-1.00,-2.00,+5.00,+0.00,-13.00,-4.00,-2.00,-15.00,-11.00,+0.00,+1.00,-12.00,+2.00,-3.00,-6.00
+0.00,+0.00,+0.00,+2.00,-1.00,+5.00,+2.00,+1.00,-5.00,-6.00,-9.00,-3.00,+40.00,-1.00,-1.00,+5.00
-2.00,-9.00,-2.00,-2.00,-1.00,-1.00,-3.00,-1.00,-2.00,+9.00,-6.00,-8.00,-4.00,-2.00,+0.00,-3.00
+1.00,+7.00,-1.00,-4.00,-1.00,+14.00,+0.00,+3.00,-4.00,-5.00,-4.00,+0.00,-19.00,+0.00,+0.00,-3.00
+4.00,+12.00,+10.00,+10.00,+3.00,-32.00,+3.00,+4.00,-4.00,-5.00,+4.00,+2.00,+14.00,-1.00,-2.00,-1.00
-4.00,-5.00,-7.00,-2.00,-4.00,+5.00,-5.00,-6.00,-15.00,+2.00,+7.00,+6.00,+6.00,+0.00,+0.00,-7.00
+0.00,-5.00,-5.00,+5.00,-10.00,-3.00,-3.00,-5.00,+19.00,+8.00,-2.00,-3.00,+5.00,+1.00,+1.00,+11.00
-1.00,-7.00,-8.00,+5.00,+0.00,-8.00,-2.00,-6.00,+5.00,+13.00,+0.00,+2.00,+2.00,-2.00,-2.00,-1.00
-3.00,-13.00,-5.00,-1.00,-4.00,+5.00,+0.00,+1.00,-22.00,-13.00,-11.00,-14.00,-19.00,-5.00,-4.00,-14.00
-1.00,-6.00,+2.00,+3.00,+2.00,-3.00,+1.00,+0.00,-17.00,-2.00,-5.00,-1.00,+0.00,-3.00,-5.00,-15.00
+0.00,-1.00,+0.00,-4.00,+4.00,+4.00,+3.00,+1.00,+73.00,+9.00,+5.00,-1.00,-2.00,+0.00,+2.00,+15.00
-1.00,-1.00,+17.00,-6.00,+10.00,+3.00,+5.00,+6.00,-33.00,-8.00,+11.00,+8.00,+17.00,+7.00,+8.00,+19.00
-5.00,+10.00,-12.00,-14.00,-9.00,+4.00,-8.00,-3.00,-26.00,-5.00,+3.00,+5.00,-5.00,-2.00,-1.00,+3.00
-5.00,-7.00,-10.00,+2.00,-14.00,-13.00,-9.00,-13.00,-2.00,+7.00,+0.00,+0.00,-5.00,-1.00,-2.00,-6.00
-5.00,-6.00,-3.00,+4.00,-1.00,-15.00,-2.00,-4.00,-54.00,-31.00,-14.00,-10.00,+64.00,-7.00,-11.00,-27.00
-1.00,+2.00,-4.00,-3.00,-2.00,+1.00,-2.00,+1.00,-15.00,-35.00,-6.00,-6.00,-28.00,+2.00,-4.00,-8.00
+2.00,-2.00,+6.00,-8.00,+6.00,+11.00,+0.00,-1.00,+101.00,+66.00,+12.00,+6.00,-39.00,+2.00,+4.00,+19.00
+2.00,-39.00,+5.00,-1.00,+5.00,+6.00,+5.00,+3.00,-13.00,+1.00,-6.00,+1.00,+6.00,-2.00,-1.00,-2.00
-3.00,+40.00,+4.00,-12.00,+0.00,-7.00,-1.00,+2.00,+11.00,+12.00,+2.00,-2.00,-5.00,+0.00,-2.00,-3.00
+2.00,+12.00,+5.00,-1.00,-1.00,-1.00,+1.00,+3.00,-4.00,-12.00,-3.00,-3.00,+4.00,-4.00,-4.00,-7.00
-2.00,-17.00,-6.00,-2.00,-1.00,+3.00,-2.00,-8.00,-36.00,-21.00,-8.00,-17.00,-15.00,-2.00,-5.00,-11.00
+0.00,+20.00,-1.00,-6.00,-16.00,-12.00,-7.00,-1.00,+15.00,+5.00,+1.00,+10.00,-6.00,-3.00,-2.00,+3.00
+3.00,-10.00,-3.00,+5.00,+6.00,+0.00,+2.00,+0.00,-16.00,-9.00,-4.00,-2.00,-9.00,+0.00,-2.00,-5.00
+4.00,-11.00,-5.00,+10.00,+8.00,+13.00,+3.00,-1.00,+23.00,+13.00,+1.00,-5.00,+0.00,-3.00,-2.00,+4.00
-2.00,+6.00,+6.00,+4.00,+4.00,+18.00,+5.00,+5.00,-16.00,-11.00,-1.00,+4.00,+11.00,-1.00,-1.00,-4.00
-1.00,-8.00,+0.00,-5.00,+6.00,+2.00,+1.00,-1.00,+28.00,+0.00,+3.00,-5.00,+6.00,+2.00,+2.00,+7.00
+1.00,+12.00,+4.00,-12.00,-13.00,+1.00,-2.00,-2.00,+14.00,-6.00,-4.00,-3.00,-17.00,+0.00,+2.00,+4.00
-1.00,-2.00,-13.00,-10.00,-19.00,-47.00,-10.00,-6.00,-34.00,+2.00,+5.00,+1.00,+6.00,-4.00,-1.00,-11.00
-1.00,-27.00,-14.00,+19.00,+0.00,+22.00,-5.00,-6.00,+8.00,-4.00,-4.00,-1.00,+4.00,-2.00,-2.00,+4.00
+0.00,+19.00,+3.00,+8.00,+0.00,+0.00,+1.00,+0.00,-37.00,-7.00,-1.00,-3.00,-1.00,+0.00,-2.00,-1.00
-3.00,-38.00,+6.00,+3.00,+6.00,+0.00,+3.00,+1.00,-31.00,+1.00,+8.00,+3.00,-8.00,+1.00,+0.00,-3.00
-3.00,+29.00,+5.00,-4.00,-1.00,+8.00,+3.00,+4.00,+37.00,+17.00,+4.00,+2.00,+4.00,+0.00,+1.00,+13.00
+1.00,+2.00,+4.00,-4.00,-3.00,-5.00,+0.00,-4.00,-31.00,-15.00,-13.00,-5.00,+14.00,-2.00,-2.00,-10.00
-4.00,-7.00,+2.00,+0.00,+1.00,-6.00,+0.00,-2.00,+24.00,-8.00,-2.00,-4.00,-16.00,-2.00,-2.00,+3.00
-1.00,+3.00,-5.00,-5.00,-2.00,+4.00,-5.00,-5.00,-107.00,-31.00,-4.00,-1.00,-8.00,-3.00,-4.00,-16.00
-4.00,-10.00,-1.00,+7.00,+1.00,+0.00,+1.00,+0.00,+4.00,+32.00,-1.00,-2.00,+3.00,+0.00,-3.00,-11.00
+2.00,-2.00,+7.00,-4.00,+5.00,-1.00,+3.00,+7.00,+36.00,+23.00,+11.00,+10.00,-1.00,+5.00,+13.00,+45.00
-1.00,+9.00,+2.00,+0.00,+3.00,+8.00,+2.00,+2.00,+3.00,-3.00,-3.00,-8.00,+11.00,-1.00,-3.00,-15.00
+2.00,-15.00,-8.00,-3.00,-1.00,-6.00,-1.00,-3.00,+35.00,+7.00,-7.00,-3.00,-15.00,+0.00,+0.00,+6.00
-2.00,-9.00,-11.00,+9.00,-12.00,-3.00,-9.00,-5.00,-53.00,-22.00,-8.00,-3.00,+22.00,-2.00,-4.00,-13.00
+0.00,+6.00,+1.00,+4.00,+3.00,-1.00,+2.00,+3.00,-56.00,-19.00,-1.00,-1.00,-26.00,-3.00,-5.00,-17.00
+1.00,+16.00,+9.00,-23.00,+3.00,+4.00,+2.00,+1.00,-19.00,+12.00,+6.00,+1.00,+16.00,+0.00,-1.00,-3.00
-2.00,-55.00,-4.00,+4.00,-2.00,-4.00,-6.00,+1.00,-27.00,-7.00,+12.00,+3.00,+57.00,+6.00,+0.00,-2.00
+0.00,+3.00,-10.00,-5.00,-2.00,+3.00,+2.00,-8.00,+20.00,-5.00,-7.00,-1.00,-60.00,-3.00,+0.00,+5.00
+0.00,-8.00,-6.00,+2.00,-7.00,-4.00,-2.00,-6.00,+18.00,+1.00,-10.00,-4.00,-13.00,+2.00,-2.00,-7.00
-2.00,+9.00,-1.00,+6.00,+2.00,-4.00,+1.00,+0.00,+16.00,-4.00,+1.00,+3.00,+5.00,-3.00,-1.00,-1.00
-2.00,+10.00,+5.00,-9.00,+5.00,+4.00,+1.00,+0.00,+33.00,+10.00,+3.00,-3.00,-9.00,-3.00,-4.00,+2.00
+1.00,-6.00,+8.00,-3.00,+2.00,+1.00,+1.00,+0.00,+46.00,-3.00,+0.00,-5.00,+38.00,+4.00,+4.00,+7.00
-3.00,+1.00,+6.00,-12.00,-1.00,+2.00,+0.00,+2.00,+9.00,-2.00,-7.00,+0.00,+0.00,-3.00,-6.00,-9.00
-5.00,+3.00,-4.00,-11.00,-11.00,-29.00,-7.00,-5.00,-10.00,-6.00,-5.00,-5.00,-8.00,-1.00,-4.00,-3.00
-1.00,+5.00,-5.00,+7.00,+2.00,+27.00,+2.00,+0.00,+1.00,-3.00,-3.00,-1.00,-8.00,-3.00,-1.00,+3.00
-4.00,-4.00,+2.00,+2.00,+6.00,+7.00,+2.00,+3.00,+18.00,-4.00,+6.00,+2.00,-2.00,+0.00,-1.00,+7.00
-2.00,+16.00,+5.00,-14.00,+6.00,+9.00,+6.00,+3.00,+10.00,-5.00,+2.00,+3.00,+5.00,+0.00,+1.00,+3.00
-4.00,-8.00,-6.00,-6.00,-12.00,-27.00,-10.00,-8.00,+9.00,+10.00,+9.00,+4.00,+7.00,-1.00,-1.00,+1.00
+0.00,+4.00,-11.00,-3.00,-3.00,+29.00,-3.00,-6.00,-8.00,+8.00,+1.00,+0.00,-16.00,-2.00,+0.00,+3.00
+1.00,-5.00,-10.00,+7.00,-3.00,-4.00,-2.00,-6.00,+7.00,-7.00,-13.00,-9.00,-3.00,-3.00,-4.00,-10.00
-2.00,+4.00,+6.00,-8.00,+3.00,+4.00,+1.00,+0.00,-38.00,-22.00,+5.00,+3.00,+8.00,-2.00,-3.00,-6.00
+1.00,-4.00,+1.00,-13.00,+4.00,+4.00,+3.00,+2.00,-26.00,-8.00,-18.00,-9.00,-6.00,+0.00,+1.00,+1.00
+1.00,-10.00,+14.00,+1.00,+4.00,-17.00,+4.00,+2.00,-6.00,-28.00,-6.00,-8.00,+25.00,-5.00,-6.00,-13.00
-3.00,+23.00,-1.00,-11.00,+3.00,+5.00,+1.00,+3.00,+56.00,+52.00,+9.00,+3.00,-35.00,+4.00,+11.00,+25.00
-3.00,-7.00,-25.00,-15.00,-8.00,-12.00,-7.00,-3.00,-3.00,+6.00,-2.00,-3.00,-7.00,+0.00,+1.00,-2.00
-1.00,-2.00,+18.00,+12.00,+4.00,+10.00,+4.00,+1.00,-2.00,-4.00,+4.00,+1.00,-14.00,-3.00,-3.00,-2.00
-2.00,+14.00,-2.00,+1.00,-1.00,-7.00,+0.00,-1.00,-8.00,+3.00,+5.00,+4.00,-11.00,+0.00,-3.00,-5.00
-2.00,+1.00,+4.00,-6.00,+2.00,+5.00,-1.00,-3.00,-34.00,-20.00,+0.00,-4.00,+30.00,-3.00,-5.00,-13.00
-2.00,-14.00,-11.00,-1.00,-17.00,-23.00,-12.00,-10.00,+8.00,-2.00,-9.00,-6.00,-16.00,-3.00,-4.00,-4.00
-1.00,-35.00,-11.00,+7.00,+4.00,+10.00,+0.00,+2.00,-15.00,-15.00,-6.00,-3.00,-16.00,-5.00,-3.00,-4.00
+1.00,+78.00,+5.00,+7.00,+3.00,+1.00,+9.00,+0.00,-3.00,+8.00,-7.00,-4.00,-22.00,-2.00,+2.00,-1.00
+3.00,-3.00,+0.00,+9.00,-6.00,-7.00,-6.00,-4.00,-8.00,+5.00,+4.00,+9.00,+28.00,-1.00,-4.00,-3.00
+2.00,+16.00,+9.00,+12.00,+1.00,-4.00,+1.00,+2.00,+26.00,+6.00,+6.00,-3.00,-9.00,-3.00,-1.00,+18.00
+2.00,-3.00,-3.00,-5.00,+1.00,+11.00,+1.00,+3.00,-21.00,-2.00,+5.00,+12.00,+1.00,+0.00,+3.00,+4.00
+4.00,-14.00,-3.00,+1.00,-7.00,-16.00,-6.00,+0.00,+25.00,-4.00,-1.00,-4.00,-2.00,+2.00,+0.00,+7.00
+4.00,-18.00,-6.00,+14.00,+2.00,-5.00,-1.00,+1.00,+7.00,+4.00,-8.00,-9.00,-4.00,+0.00,-1.00,+3.00
-2.00,+7.00,-2.00,+7.00,-8.00,-23.00,-2.00,+0.00,-21.00,-14.00,-11.00,-5.00,+15.00,-5.00,-5.00,-19.00
+3.00,+12.00,-2.00,+17.00,+10.00,+46.00,+4.00,-1.00,+14.00,+12.00,-5.00,-8.00,-2.00,-2.00,-3.00,-3.00
+2.00,-22.00,+2.00,-5.00,+0.00,+0.00,+0.00,-2.00,+38.00,+4.00,+6.00,+6.00,-8.00,+0.00,+4.00,+8.00
+0.00,+37.00,+12.00,+2.00,+4.00,-6.00,+6.00,+4.00,-6.00,+4.00,+11.00,+10.00,+2.00,+5.00,+8.00,+23.00
+1.00,-19.00,-3.00,+1.00,+0.00,+20.00,-5.00,+0.00,-32.00,-29.00,-6.00,-5.00,+2.00,-4.00,-8.00,-26.00
+2.00,+8.00,-11.00,-1.00,-14.00,-12.00,-6.00,-10.00,+51.00,+30.00,+6.00,+7.00,+29.00,+7.00,+12.00,+38.00
+0.00,-6.00,-12.00,+11.00,-6.00,-16.00,-4.00,-6.00,-37.00,-28.00,-10.00,-6.00,+0.00,+0.00,-2.00,-14.00
+0.00,-9.00,+2.00,-7.00,+5.00,+7.00,+0.00,+5.00,+8.00,+26.00,-7.00,-7.00,-31.00,-2.00,-3.00,-9.00
-2.00,-7.00,+10.00,-2.00,+0.00,-1.00,+6.00,+2.00,-17.00,-22.00,+5.00,+6.00,-7.00,-8.00,+0.00,+5.00
+0.00,-7.00,-3.00,+2.00,+1.00,-7.00,-1.00,-2.00,+20.00,+29.00,+13.00,+2.00,+12.00,+1.00,+2.00,-11.00
+0.00,-11.00,-4.00,-1.00,-6.00,+3.00,-3.00,-4.00,-14.00,+5.00,-2.00,-8.00,+13.00,-7.00,-6.00,-7.00
+2.00,-11.00,-3.00,-16.00,-5.00,-10.00,-6.00,+3.00,+29.00,-17.00,-11.00,+7.00,-6.00,-7.00,-4.00,-14.00
+3.00,-14.00,+5.00,+17.00,+6.00,+13.00,+6.00,-1.00,-3.00,+8.00,-1.00,+2.00,-1.00,+6.00,+1.00,+55.00
-1.00,-35.00,-9.00,-11.00,-2.00,-11.00,-6.00,-6.00,-23.00,-29.00,-11.00,-7.00,+17.00,-1.00,-6.00,+86.00
+3.00,+83.00,+12.00,+3.00,-1.00,+3.00,+8.00,+5.00,+21.00,+13.00,+5.00,+5.00,-3.00,+3.00,+2.00,+99.00
-3.00,-2.00,+5.00,+4.00,-1.00,-16.00,-2.00,-5.00,-21.00,-9.00,+8.00,-2.00,+26.00,-4.00,-3.00,+75.00
-5.00,-5.00,+3.00,-2.00,+1.00,-14.00,-1.00,-3.00,-7.00,+13.00,+4.00,+4.00,-26.00,-3.00,+1.00,+19.00
-1.00,-4.00,-11.00,-12.00,-10.00,+7.00,-2.00,-8.00,+8.00,-16.00,-7.00,-2.00,-6.00,-1.00,-2.00,-3.00
+3.00,-27.00,-3.00,+9.00,+11.00,+9.00,-5.00,-2.00,+11.00,+12.00,+0.00,-1.00,-12.00,-1.00,+0.00,-14.00
-1.00,+0.00,-5.00,-1.00,-4.00,-2.00,+0.00,-8.00,-20.00,-29.00,-15.00,-8.00,-4.00,-4.00,-7.00,-55.00
-3.00,-8.00,+0.00,-11.00,-4.00,-8.00,-2.00,-4.00,+67.00,+30.00,+13.00,+4.00,+8.00,+4.00,+5.00,-26.00
-3.00,+6.00,+10.00,+5.00,+5.00,-2.00,+3.00,+1.00,-33.00,-30.00,+2.00,-6.00,+7.00,-1.00,-2.00,-33.00
-5.00,+5.00,+5.00,-28.00,+3.00,-11.00,+4.00,+2.00,-24.00,+23.00,-15.00,-10.00,+0.00,-12.00,-25.00,-87.00
+1.00,+1.00,+1.00,+13.00,-1.00,+24.00,-1.00,+1.00,+32.00,+17.00,+16.00,+16.00,-20.00,+20.00,+23.00,+32.00
+0.00,-16.00,-19.00,-4.00,-10.00,-10.00,-15.00,-10.00,+40.00,+7.00,-4.00,-3.00,+18.00,-5.00,+0.00,-41.00
+0.00,+2.00,-13.00,+3.00,-7.00,-5.00,-3.00,+0.00,+23.00,+11.00,+8.00,+3.00,-17.00,-2.00,+3.00,-76.00
-3.00,+2.00,+8.00,-2.00,-3.00,+5.00,-3.00,-2.00,+21.00,-9.00,+7.00,+8.00,+3.00,+1.00,+0.00,-74.00
+1.00,-13.00,+4.00,+3.00,+6.00,-2.00,+4.00,+5.00,-31.00,-24.00,-8.00,-10.00,+11.00,-3.00,-11.00,-46.00
-2.00,+37.00,+9.00,-6.00,+8.00,+10.00,+7.00,+11.00,-82.00,+4.00,-11.00,-10.00,+0.00,+1.00,-4.00,-23.00
-3.00,+12.00,+0.00,+0.00,-8.00,-1.00,-9.00,+5.00,+13.00,-1.00,+12.00,+13.00,-13.00,-6.00,+4.00,+17.00
+0.00,+10.00,-12.00,+5.00,-1.00,-16.00,-8.00,-9.00,+8.00,+7.00,-8.00,-7.00,-1.00,+0.00,-1.00,+17.00
-1.00,-14.00,-4.00,-17.00,-6.00,+2.00,-2.00,-2.00,-18.00,-7.00,-12.00,-10.00,+15.00,-4.00,-5.00,-17.00
+1.00,-7.00,+10.00,+4.00,+12.00,+11.00,+8.00,+5.00,-15.00,-20.00,-1.00,-3.00,+11.00,-12.00,-2.00,-1.00
+2.00,+10.00,+4.00,-5.00,+0.00,-7.00,+0.00,+6.00,-12.00,-4.00,-3.00,-5.00,-42.00,+19.00,-6.00,-26.00
-4.00,-40.00,-10.00,-23.00,-12.00,-8.00,-7.00,-3.00,-14.00,-11.00,+1.00,+4.00,+2.00,+1.00,+0.00,-6.00
+0.00,+2.00,+2.00,+9.00,-2.00,-18.00,-3.00,+1.00,-42.00,-4.00,+3.00,-1.00,-13.00,-7.00,-1.00,+3.00
-3.00,+11.00,-4.00,+0.00,+3.00,+20.00,+3.00,+0.00,+65.00,+24.00,+5.00,+0.00,+18.00,+4.00,+4.00,+15.00
-3.00,-5.00,+0.00,+6.00,+4.00,-5.00,+4.00,-5.00,+26.00,+16.00,-1.00,+2.00,+1.00,-4.00,-4.00,-3.00
-3.00,-35.00,-1.00,+2.00,-7.00,+2.00,-8.00,-3.00,+27.00,-6.00,+2.00,+2.00,-10.00,+1.00,+1.00,-13.00
-3.00,+25.00,-1.00,-5.00,-10.00,-24.00,+2.00,+1.00,-48.00,-12.00,-6.00,-5.00,-2.00,+1.00,-4.00,-29.00
+1.00,+13.00,+0.00,+6.00,+6.00,+11.00,-5.00,+3.00,-77.00,-18.00,-4.00,-6.00,-2.00,-9.00,-16.00,-92.00
-1.00,+6.00,+7.00,-5.00,+11.00,+5.00,+7.00,+2.00,+44.00,+29.00,+8.00,+10.00,+11.00,+1.00,+16.00,+48.00
-1.00,-11.00,-3.00,-7.00,+1.00,-7.00,+0.00,+6.00,+36.00,+18.00,+10.00,+3.00,-8.00,+7.00,+13.00,+50.00
-1.00,-19.00,+1.00,-5.00,+2.00,+14.00,+6.00,-5.00,+7.00,-15.00,-10.00,-9.00,+3.00,+7.00,-3.00,+6.00
-1.00,-4.00,-3.00,-1.00,-4.00,-11.00,+1.00,-1.00,-54.00,-32.00,-17.00,-7.00,-1.00,+2.00,-4.00,+22.00
-2.00,+11.00,+1.00,+4.00,+1.00,+7.00,+0.00,+0.00,-4.00,-6.00,-10.00,-13.00,+3.00,-6.00,-7.00,+3.00
-3.00,-33.00,-5.00,-4.00,-1.00,-6.00,+0.00,+3.00,-16.00,-11.00,+7.00,+4.00,+4.00,+9.00,+1.00,-3.00
-5.00,+8.00,+11.00,-4.00,+6.00,+10.00,+1.00,+4.00,+51.00,+12.00,+21.00,+11.00,-10.00,-3.00,+11.00,+60.00
-5.00,+21.00,-4.00,-10.00,-10.00,-4.00,-5.00,-8.00,+26.00,+4.00,-6.00,+2.00,+14.00,+5.00,+0.00,+23.00
-4.00,-30.00,-24.00,-6.00,-17.00,-19.00,-9.00,-13.00,-16.00,-13.00,-7.00,-13.00,-6.00,-9.00,-6.00,-7.00
-2.00,+5.00,-2.00,+0.00,+3.00,+1.00,-3.00,-8.00,-38.00,-31.00,-10.00,-1.00,-34.00,+4.00,-4.00,-2.00
-1.00,-27.00,-9.00,-10.00,-3.00,+2.00,-5.00,-3.00,+57.00,+59.00,+11.00,+10.00,+2.00,-7.00,-6.00,-14.00
-3.00,-24.00,+8.00,-2.00,+1.00,+3.00,+5.00,+0.00,-1.00,-1.00,-2.00,+1.00,-3.00,+4.00,+5.00,+17.00
-4.00,+46.00,+11.00,-8.00,+3.00,-25.00,+0.00,+1.00,-51.00,-22.00,-11.00,-6.00,+7.00,-7.00,-9.00,-16.00
-6.00,+11.00,-2.00,-13.00,+6.00,+29.00,+7.00,+1.00,-67.00,+14.00,+0.00,-2.00,+22.00,-2.00,+1.00,+5.00
+2.00,-14.00,-4.00,+5.00,-1.00,+6.00,+0.00,-8.00,-24.00,-30.00,-3.00,-5.00,-11.00,-5.00,-23.00,-28.00
+0.00,+1.00,-5.00,-23.00,-7.00,+1.00,-5.00,-4.00,+40.00,+50.00,+11.00,+0.00,-13.00,+0.00,+16.00,-35.00
+1.00,-12.00,+4.00,-3.00,+3.00,-24.00,-2.00,+3.00,+4.00,-4.00,-11.00,-4.00,+16.00,+4.00,+11.00,+27.00
+2.00,+62.00,-1.00,+16.00,+2.00,+5.00,+2.00,+7.00,-9.00,+1.00,-4.00,-3.00,-16.00,-7.00,-4.00,-7.00
-7.00,+16.00,-8.00,-9.00,-1.00,-2.00,-4.00,-5.00,+27.00,-23.00,+8.00,+2.00,-6.00,-2.00,+7.00,-2.00
+0.00,+2.00,+2.00,-6.00,-2.00,-1.00,+1.00,-3.00,-25.00,+6.00,+10.00,+10.00,+20.00,+4.00,-5.00,+18.00
+0.00,+22.00,+4.00,-23.00,-2.00,+2.00,-17.00,-35.00,-37.00,-16.00,-6.00,-6.00,-7.00,-2.00,-5.00,-14.00
+5.00,-59.00,-7.00,+5.00,-7.00,-4.00,+21.00,+107.00,-18.00,+0.00,-17.00,-15.00,-13.00,-1.00,-2.00,-18.00
+6.00,+33.00,-11.00,-3.00,-7.00,-13.00,-13.00,-40.00,-4.00,-27.00,-14.00,-11.00,+6.00,-12.00,-7.00,-10.00
+6.00,+15.00,+7.00,+6.00,+1.00,-14.00,+2.00,+13.00,+82.00,+37.00,+9.00,+4.00,+4.00,+0.00,-4.00,+9.00
+1.00,-59.00,+12.00,+9.00,+6.00,+20.00,+15.00,+6.00,+72.00,+23.00,+9.00,+4.00,-52.00,+7.00,+2.00,-2.00
+0.00,+10.00,+19.00,-15.00,+6.00,-8.00,-6.00,-10.00,+36.00,+2.00,-1.00,+10.00,+45.00,-35.00,-7.00,+2.00
+0.00,-15.00,-10.00,-2.00,+9.00,+13.00,-9.00,-3.00,-16.00,+2.00,-15.00,-9.00,-20.00,+24.00,-5.00,-17.00
-3.00,+0.00,-3.00,+15.00,-14.00,-7.00,-1.00,-12.00,+21.00,+0.00,+1.00,-3.00,-24.00,+14.00,+10.00,+41.00
+3.00,-55.00,-5.00,+9.00,-10.00,-40.00,-17.00,-8.00,-48.00,-9.00,+13.00,+11.00,+32.00,+6.00,-1.00,-1.00
+0.00,+73.00,+5.00,-5.00,-1.00,+17.00,-1.00,-32.00,+7.00,+14.00,-2.00,+1.00,+19.00,-2.00,-5.00,-11.00
-4.00,-11.00,+8.00,+2.00,-4.00,+0.00,+7.00,+9.00,-29.00,+2.00,+9.00,+0.00,-12.00,-17.00,-4.00,+5.00
+0.00,+8.00,+4.00,+11.00,+19.00,-5.00,-2.00,-7.00,+0.00,-29.00,-10.00,-2.00,+9.00,-4.00,-4.00,-13.00
-5.00,-5.00,-11.00,-4.00,-16.00,-10.00,-22.00,+5.00,-22.00,+6.00,-10.00,-8.00,+26.00,-3.00,-9.00,-11.00
+1.00,-59.00,-15.00,+24.00,+2.00,+35.00,+39.00,-9.00,-8.00,-19.00,+5.00,-7.00,-62.00,-3.00,-2.00,+9.00
+1.00,+48.00,+6.00,-1.00,+9.00,+27.00,+19.00,+8.00,-10.00,+12.00,+0.00,+7.00,+11.00,+2.00,+11.00,+9.00
+2.00,+34.00,+0.00,+14.00,+8.00,+0.00,+6.00,+15.00,+0.00,-10.00,-7.00,-5.00,-23.00,+0.00,-6.00,+10.00
+4.00,+31.00,+5.00,+9.00,+0.00,+13.00,+9.00,-5.00,-14.00,-3.00,-1.00,+0.00,+19.00,-6.00,-5.00,-15.00
-2.00,+0.00,+3.00,+15.00,-3.00,-16.00,-13.00,-18.00,-23.00,-54.00,-9.00,-1.00,-2.00,+4.00,+6.00,+17.00
+1.00,-28.00,-1.00,-4.00,-2.00,-9.00,-10.00,+5.00,+9.00,+33.00,+9.00,+4.00,+9.00,+8.00,+8.00,+11.00
+1.00,-47.00,-3.00,-8.00,-5.00,-13.00,-1.00,+1.00,-82.00,-29.00,-3.00,-7.00,-10.00,-11.00,-6.00,-32.00
+6.00,+44.00,-4.00,+11.00,+5.00,+20.00,+7.00,+15.00,+108.00,+27.00,+6.00,+3.00,+4.00,+10.00,+13.00,+61.00
-2.00,-12.00,-7.00,-10.00,-10.00,-15.00,-17.00,-25.00,+19.00,+1.00,-3.00,+3.00,+6.00,-1.00,-4.00,-7.00
-2.00,-26.00,-6.00,+11.00,-7.00,-11.00,+2.00,+4.00,-36.00,-22.00,-5.00,-8.00,-45.00,-10.00,+9.00,+24.00
+2.00,-5.00,-7.00,-1.00,-9.00,-19.00,-14.00,-3.00,+32.00,+4.00,+0.00,+8.00,+63.00,-23.00,-11.00,-8.00
-1.00,-76.00,-2.00,-2.00,+7.00,+16.00,+10.00,+6.00,-40.00,+6.00,-1.00,-10.00,+1.00,+29.00,+15.00,-7.00
-5.00,-18.00,+7.00,+1.00,+9.00,+2.00,+5.00,+13.00,+12.00,+16.00,+3.00,-4.00,-11.00,-2.00,+2.00,-1.00
+1.00,-5.00,-1.00,-3.00,-16.00,-19.00,-18.00,-22.00,+39.00,-11.00,-3.00,+9.00,+40.00,+14.00,+7.00,+56.00
+0.00,+3.00,+3.00,+24.00,+9.00,-15.00,+9.00,+0.00,-60.00,-44.00,-13.00,-7.00,-31.00,+14.00,+5.00,-10.00
-5.00,-19.00,-7.00,-20.00,+0.00,+15.00,+2.00,-6.00,+25.00,+26.00,-3.00,-9.00,+58.00,-1.00,-6.00,-27.00
+3.00,+0.00,+5.00,-3.00,-2.00,-32.00,-16.00,-12.00,+1.00,+0.00,+5.00,+5.00,-66.00,-12.00,-11.00,-4.00
-3.00,-55.00,-8.00,+6.00,-3.00,+13.00,+14.00,+61.00,+37.00,+8.00,+3.00,-2.00,+7.00,-9.00,+14.00,-32.00
+0.00,+7.00,-5.00,+9.00,-4.00,+18.00,-9.00,+10.00,+0.00,+3.00,-2.00,+1.00,-5.00,-7.00,+3.00,+35.00
+2.00,+29.00,+1.00,-3.00,+2.00,+9.00,-13.00,+0.00,-37.00,-9.00,-4.00,+1.00,-27.00,-12.00,-8.00,-14.00
-2.00,-19.00,-1.00,+15.00,+0.00,-7.00,+22.00,-19.00,+28.00,+19.00,+1.00,-5.00,+36.00,+16.00,+7.00,+17.00
+2.00,+8.00,-5.00,-3.00,-3.00,+6.00,+7.00,+32.00,-92.00,-31.00,+0.00,-3.00,+4.00,-6.00,-12.00,-14.00
-5.00,+51.00,+4.00,-14.00,-14.00,-62.00,-13.00,-8.00,+14.00,+13.00,+8.00,+1.00,-8.00,-1.00,-3.00,-8.00
-2.00,+17.00,-1.00,+11.00,+17.00,+84.00,+23.00,+0.00,+21.00,-8.00,+5.00,-5.00,+35.00,-3.00,-3.00,-14.00
+1.00,+3.00,-4.00,-3.00,+0.00,+11.00,-7.00,+6.00,-20.00,-18.00,-14.00,-4.00,-46.00,-21.00,-2.00,+6.00
-1.00,-84.00,-8.00,-11.00,+0.00,-12.00,-10.00,-15.00,-36.00,-12.00,-21.00,-8.00,-35.00,-14.00,-26.00,-51.00
-2.00,+67.00,+5.00,-2.00,+1.00,+24.00,+11.00,+3.00,+67.00,+24.00,+3.00,-4.00,+9.00,+24.00,-12.00,+17.00
-2.00,+3.00,-3.00,+1.00,-6.00,-36.00,-12.00,-2.00,-2.00,-8.00,+0.00,+5.00,-13.00,+7.00,+39.00,+35.00
+0.00,+17.00,+6.00,+6.00,+0.00,-11.00,-9.00,-3.00,-28.00,-28.00,+9.00,+5.00,+27.00,+5.00,-3.00,-14.00
-4.00,+25.00,+21.00,-13.00,+19.00,+23.00,+11.00,-1.00,-67.00,+32.00,-4.00,-9.00,+5.00,-6.00,-9.00,-25.00
-2.00,-49.00,-18.00,-13.00,-18.00,-14.00,-12.00,-6.00,+44.00,+3.00,+5.00,+9.00,+6.00,-6.00,+3.00,-11.00
+0.00,-6.00,-24.00,+14.00,-25.00,-61.00,-25.00,-12.00,+18.00,-5.00,-4.00,-6.00,-9.00,-1.00,-17.00,-8.00
+7.00,-40.00,-9.00,+14.00,+6.00,+65.00,+41.00,+23.00,-19.00,-6.00,-1.00,+0.00,+9.00,-10.00,+1.00,-10.00
-4.00,+14.00,+1.00,+4.00,+2.00,-13.00,-14.00,-72.00,-3.00,-2.00,-1.00,-1.00,+5.00,+9.00,+2.00,-16.00
+4.00,+15.00,+15.00,-3.00,+13.00,+31.00,+10.00,+4.00,-28.00,-6.00,-5.00,-14.00,+41.00,-7.00,-7.00,-19.00
-5.00,-3.00,+9.00,-11.00,+3.00,-6.00,+10.00,+13.00,-46.00,-19.00,+1.00,+18.00,-84.00,-12.00,-10.00,-6.00
+2.00,-47.00,-6.00,-10.00,-8.00,-20.00,-18.00,-1.00,+38.00,+34.00,-5.00,-6.00,+36.00,+7.00,+3.00,-3.00
-5.00,+75.00,+7.00,+1.00,+2.00,+5.00,+6.00,+1.00,+29.00,-3.00,+1.00,+8.00,-23.00,-3.00,-9.00,-3.00
+7.00,-32.00,-3.00,-7.00,+0.00,-22.00,-2.00,-10.00,-78.00,-29.00,-9.00,-15.00,-10.00,-5.00,-6.00,-4.00
-3.00,+17.00,-4.00,+0.00,-3.00,+33.00,-2.00,-8.00,+59.00,+27.00,-2.00,-5.00,-18.00,-21.00,+3.00,-17.00
-5.00,+14.00,-2.00,-10.00,-4.00,-29.00,-23.00,-6.00,+81.00,+13.00,+6.00,+12.00,+36.00,+19.00,-3.00,-13.00
-2.00,-1.00,+0.00,+10.00,-3.00,-18.00,+7.00,+5.00,-23.00,+10.00,+6.00,+3.00,+22.00,-4.00,-7.00,-50.00
-4.00,-57.00,-12.00,+8.00,+12.00,+50.00,-3.00,+2.00,+27.00,-15.00,-4.00,+0.00,-11.00,+7.00,+6.00,-111.00
+8.00,+4.00,+4.00,+3.00,+0.00,-8.00,+6.00,+23.00,+14.00,+5.00,-7.00,-2.00,+0.00,-22.00,-5.00,-37.00
-5.00,+12.00,-1.00,+8.00,+1.00,-9.00,-14.00,-2.00,-28.00,+6.00,-6.00,-12.00,-14.00,+25.00,+2.00,+4.00
-3.00,-13.00,-5.00,+4.00,-5.00,-33.00,+4.00,+69.00,+62.00,+5.00,-8.00,-8.00,+7.00,-41.00,-9.00,+34.00
-1.00,-13.00,-1.00,+7.00,+1.00,+18.00,-4.00,+23.00,-55.00,-23.00,+3.00,+1.00,-21.00,+25.00,+33.00,+39.00
-1.00,+39.00,+20.00,+0.00,+12.00,+0.00,+16.00,+15.00,+1.00,+32.00,+1.00,+7.00,+10.00,+0.00,-11.00,+90.00
-6.00,+34.00,+3.00,-23.00,-7.00,+10.00,-6.00,+0.00,-45.00,-1.00,+9.00,+5.00,+13.00,+1.00,+6.00,+43.00
+3.00,-13.00,-13.00,+4.00,-3.00,+12.00,-14.00,-13.00,+32.00,-40.00,-4.00,-2.00,-1.00,+7.00,+14.00,+82.00
+1.00,-43.00,-18.00,-1.00,-14.00,-19.00,-14.00,-19.00,-31.00,+18.00,-3.00,-2.00,+10.00,-30.00,-21.00,-1.00
-4.00,-68.00,-7.00,+1.00,-2.00,+5.00,+2.00,+1.00,-42.00,-31.00,-2.00,+1.00,-5.00,-3.00,-13.00,-21.00
+5.00,+77.00,+10.00,+6.00,+6.00,+25.00,+2.00,-7.00,-87.00,-28.00,-12.00,-15.00,-18.00,+0.00,-9.00,-25.00
-2.00,-13.00,+1.00,+1.00,+2.00,-14.00,-35.00,+2.00,+81.00,+24.00,+16.00,+11.00,-1.00,+10.00,+23.00,+90.00
-10.00,+25.00,+7.00,-3.00,+9.00,+22.00,+44.00,-10.00,-8.00,-10.00,-2.00,+0.00,-20.00,+2.00,+0.00,+23.00
-5.00,+7.00,+3.00,-16.00,+1.00,+7.00,-2.00,-19.00,-41.00,-20.00,-9.00,-8.00,+9.00,+7.00,-1.00,-4.00
+1.00,-26.00,-5.00,-3.00,-2.00,-22.00,+2.00,-8.00,-53.00,-2.00,-6.00,+4.00,+38.00,-4.00,-6.00,-11.00
+0.00,-39.00,-10.00,-4.00,-8.00,+6.00,-7.00,-15.00,+37.00,+1.00,-6.00,-9.00,-28.00,+9.00,-15.00,-42.00
-4.00,+16.00,+5.00,-11.00,+2.00,+22.00,-3.00,-2.00,+34.00,-12.00,+7.00,+11.00,+6.00,-6.00,-1.00,+57.00
+5.00,+66.00,+9.00,+9.00,-5.00,-38.00,-4.00,-7.00,+36.00,+22.00,+0.00,+2.00,+4.00,+27.00,+14.00,-4.00
-8.00,+18.00,+1.00,-4.00,+9.00,+29.00,+2.00,-8.00,+13.00,-15.00,-6.00,-15.00,-51.00,-45.00,-19.00,-47.00
+1.00,+2.00,-7.00,+7.00,-14.00,-24.00,-1.00,-12.00,-40.00,-8.00,+3.00,+8.00,+46.00,+26.00,+0.00,-23.00
+0.00,-13.00,-3.00,-6.00,+1.00,-21.00,-7.00,-4.00,+23.00,+43.00,+9.00,+5.00,+19.00,+17.00,+28.00,+53.00
-2.00,-11.00,-2.00,-9.00,-8.00,-33.00,-23.00,+2.00,-30.00,-16.00,-5.00,-10.00,-39.00,-15.00,-18.00,-35.00
+0.00,-56.00,-5.00,-1.00,-9.00,-46.00,+16.00,+13.00,-40.00,-46.00,-7.00,-3.00,+21.00,+1.00,-5.00,-39.00
+0.00,+61.00,+9.00,+1.00,+14.00,+115.00,+22.00,-14.00,+77.00,+65.00,+17.00,+11.00,-32.00,-3.00,+18.00,+67.00
-2.00,-8.00,-2.00,-5.00,-3.00,-7.00,-9.00,-33.00,+70.00,+14.00,-8.00,-8.00,-11.00,-14.00,-9.00,-1.00
-1.00,-2.00,+5.00,-3.00,+1.00,+0.00,+5.00,+10.00,-103.00,-70.00,-12.00,-3.00,-4.00,+13.00,-11.00,-46.00
-2.00,+17.00,-3.00,-9.00,-6.00,-7.00,-18.00,-6.00,+107.00,+80.00,+18.00,+7.00,+4.00,+5.00,+15.00,+42.00
-2.00,-14.00,-7.00,+4.00,-9.00,-53.00,+8.00,-5.00,-88.00,-26.00,-8.00,-8.00,+7.00,-18.00,-18.00,-37.00
+0.00,-6.00,+2.00,+2.00,+0.00,+13.00,-4.00,-8.00,-77.00,-5.00,-8.00,-7.00,-33.00,-12.00,+14.00,-17.00
-2.00,+8.00,-4.00,-2.00,-1.00,+32.00,-2.00,-1.00,+115.00,+30.00,+11.00,+8.00,+54.00,+6.00,-10.00,+45.00
+0.00,-18.00,+0.00,+17.00,+9.00,+5.00,+4.00,-14.00,+61.00,+4.00,-3.00,-3.00,-18.00,-20.00,-21.00,-5.00
+2.00,-15.00,-9.00,-7.00,-5.00,-6.00,-3.00,-9.00,-50.00,-11.00,+6.00,+4.00,-20.00,+42.00,+4.00,-11.00
+3.00,-20.00,+3.00,-1.00,-1.00,-14.00,-7.00,+17.00,+6.00,+12.00,+0.00,+4.00,+0.00,-2.00,-22.00,-5.00
-2.00,+8.00,+4.00,+18.00,-1.00,-19.00,+7.00,-8.00,-63.00,-60.00,-8.00,-7.00,-5.00,-18.00,+2.00,-22.00
-1.00,-14.00,-7.00,-2.00,-4.00,+7.00,-31.00,-10.00,+11.00,+25.00,+4.00,+3.00,-6.00,+1.00,+4.00,+21.00
+3.00,+12.00,+2.00,+15.00,+3.00,-3.00,+38.00,+3.00,+4.00,-1.00,-9.00,-5.00,+16.00,-6.00,-14.00,-34.00
+7.00,-11.00,+2.00,+22.00,-6.00,-45.00,+6.00,+5.00,-19.00,-23.00,-2.00,-5.00,+5.00,-14.00,+3.00,+6.00
-4.00,-48.00,-2.00,-3.00,+5.00,+35.00,-4.00,-8.00,+59.00,-17.00,-7.00,-6.00,-40.00,-2.00,+4.00,+25.00
+1.00,+60.00,+12.00,+20.00,+5.00,-27.00,+12.00,+2.00,+43.00,+30.00,+2.00,+1.00,+15.00,+21.00,+12.00,+28.00
-4.00,+5.00,-4.00,-19.00,+1.00,+15.00,-11.00,+6.00,+25.00,+22.00,+5.00,+1.00,+29.00,-6.00,+16.00,-1.00
-4.00,+1.00,-3.00,-12.00,-10.00,-32.00,-11.00,-3.00,+56.00,-35.00,+0.00,+7.00,-37.00,-16.00,-20.00,-41.00
+1.00,-12.00,-6.00,-2.00,-1.00,-4.00,+12.00,+9.00,-90.00,-18.00,-6.00,-14.00,+14.00,+0.00,-2.00,+24.00
+0.00,-18.00,+1.00,+8.00,-1.00,+4.00,-13.00,-30.00,+1.00,+41.00,+4.00,-5.00,-15.00,-3.00,+13.00,+25.00
-3.00,+21.00,+7.00,-5.00,-3.00,-14.00,-17.00,-4.00,-45.00,-7.00,+3.00,+11.00,-21.00,+5.00,+11.00,+17.00
-4.00,-2.00,-8.00,+5.00,+2.00,+11.00,+6.00,-5.00,-26.00,+4.00,-4.00,+0.00,+20.00,-4.00,-18.00,-14.00
+1.00,-46.00,-9.00,+4.00,+0.00,-6.00,-2.00,+26.00,-17.00,+46.00,+2.00,+4.00,+16.00,-15.00,-24.00,-57.00
+0.00,+67.00,+5.00,-9.00,+1.00,+23.00,-3.00,+5.00,-38.00,-38.00,-3.00,-7.00,+18.00,+9.00,+20.00,-26.00
-3.00,-9.00,+5.00,+14.00,+1.00,-6.00,-16.00,-47.00,+13.00,+5.00,-6.00,-9.00,-17.00,-28.00,-6.00,+16.00
-7.00,-4.00,-6.00,-7.00,-7.00,+7.00,+11.00,-11.00,-26.00,-12.00,-2.00,+2.00,+36.00,+50.00,+25.00,+1.00
+7.00,+2.00,-8.00,+8.00,-4.00,-17.00,-4.00,-15.00,+4.00,-12.00,-3.00,-7.00,-10.00,-15.00,+3.00,-4.00
+4.00,-14.00,+2.00,+4.00,+2.00,+23.00,+10.00,+13.00,-14.00,-9.00,+4.00,+4.00,-82.00,+4.00,+0.00,+13.00
-2.00,+14.00,+1.00,-16.00,-2.00,-18.00,-8.00,-13.00,-15.00,-17.00,-7.00,+2.00,+76.00,-10.00,-10.00,-40.00
-1.00,-12.00,+1.00,-4.00,-2.00,+20.00,-13.00,+12.00,-14.00,+12.00,+1.00,-26.00,-10.00,-1.00,-3.00,+9.00
+1.00,+12.00,-10.00,-7.00,-6.00,-41.00,-5.00,-5.00,+43.00,+19.00,+7.00,+27.00,-29.00,-4.00,+12.00,+24.00
-3.00,+17.00,+2.00,-3.00,+3.00,+18.00,+9.00,+6.00,+43.00,-20.00,-10.00,+1.00,+33.00,-4.00,-13.00,-10.00
+1.00,+28.00,+3.00,-4.00,-1.00,-13.00,-3.00,+18.00,-38.00,+0.00,+5.00,-2.00,+2.00,+6.00,-1.00,-4.00
-6.00,-4.00,-1.00,-17.00,+0.00,-9.00,-1.00,+4.00,-20.00,+14.00,+1.00,+0.00,+2.00,-8.00,-2.00,+2.00
-2.00,-14.00,+1.00,-10.00,+9.00,+9.00,+6.00,-3.00,-4.00,-15.00,-2.00,-11.00,+14.00,+6.00,+0.00,-10.00
+1.00,-12.00,-5.00,-8.00,-6.00,+15.00,+1.00,-3.00,-20.00,-28.00,-6.00,-1.00,+20.00,-14.00,-12.00,-16.00
-2.00,+9.00,-1.00,-17.00,-4.00,-14.00,+0.00,+9.00,+57.00,+62.00,+8.00,+5.00,-41.00,+14.00,-6.00,-20.00
+6.00,-13.00,-5.00,+7.00,+11.00,+72.00,+7.00,+7.00,+101.00,+20.00,+2.00,+4.00,-8.00,-8.00,-7.00,+26.00
+2.00,-5.00,+5.00,+11.00,+4.00,+11.00,-2.00,-8.00,-7.00,-9.00,-11.00,-17.00,+39.00,-8.00,-9.00,-71.00
-6.00,-19.00,-4.00,-13.00,-5.00,-17.00,+0.00,+10.00,+2.00,-33.00,+17.00,+16.00,-42.00,+24.00,+40.00,+107.00
-3.00,-7.00,-2.00,+7.00,+0.00,-11.00,-4.00,-35.00,-7.00,-21.00,-12.00,-12.00,-16.00,-1.00,+24.00,-24.00
+1.00,+13.00,+3.00,-15.00,-5.00,-13.00,-26.00,-5.00,-15.00,+16.00,+2.00,+4.00,-4.00,+1.00,-15.00,+16.00
+1.00,-17.00,+1.00,-5.00,+0.00,+2.00,+44.00,+23.00,-27.00,-24.00,-2.00,+1.00,-15.00,-5.00,-6.00,-17.00
-3.00,-36.00,-8.00,-7.00,-1.00,-7.00,-6.00,-10.00,-14.00,-5.00,-7.00,-5.00,+34.00,-11.00,-33.00,-41.00
+9.00,+2.00,-7.00,+5.00,+2.00,+38.00,+14.00,+22.00,-9.00,-29.00,-2.00,-7.00,-4.00,+1.00,+1.00,-29.00
-6.00,-63.00,-12.00,-1.00,-26.00,-57.00,-30.00,-25.00,-67.00,-5.00,-3.00,+1.00,-20.00,+0.00,+5.00,-21.00
-5.00,+76.00,+18.00,+26.00,+20.00,+104.00,+15.00,-15.00,+52.00,-10.00,-10.00,-5.00,+17.00,-8.00,+3.00,+41.00
+1.00,-5.00,+0.00,+9.00,+2.00,+16.00,+31.00,+20.00,+67.00,+30.00,+12.00,+0.00,-10.00,-28.00,+9.00,+1.00
+5.00,-13.00,+2.00,-3.00,+4.00,-2.00,+6.00,-18.00,-25.00,-6.00,-6.00,+10.00,+20.00,+49.00,+11.00,+1.00
-2.00,+16.00,-3.00,-13.00,+3.00,+16.00,+3.00,+6.00,+24.00,+23.00,+2.00,+10.00,-15.00,-8.00,-22.00,-16.00
-5.00,-34.00,-4.00,-19.00,-12.00,-11.00,-18.00,-7.00,-23.00,+7.00,-5.00,-10.00,-38.00,+18.00,-6.00,+4.00
+2.00,-20.00,-1.00,+18.00,-3.00,-29.00,-7.00,-11.00,+28.00,+26.00,+0.00,-4.00,-28.00,-12.00,-2.00,-19.00
+1.00,-4.00,-2.00,-3.00,-6.00,-3.00,-8.00,+21.00,-3.00,-32.00,-4.00,-13.00,-4.00,-34.00,-28.00,-53.00
+2.00,-17.00,+2.00,-8.00,+4.00,+7.00,-6.00,-2.00,-5.00,-2.00,+3.00,+3.00,+16.00,-4.00,-3.00,-21.00
-1.00,+47.00,+1.00,+15.00,+10.00,+11.00,+28.00,+5.00,-98.00,-8.00,+3.00,+6.00,+1.00,+3.00,+12.00,-9.00
-4.00,+7.00,+0.00,-1.00,-2.00,-24.00,-8.00,-1.00,+27.00,+37.00,+8.00,+9.00,+23.00,+18.00,+2.00,+19.00
-2.00,-38.00,-11.00,-2.00,+4.00,+26.00,-1.00,+14.00,-122.00,-118.00,-35.00,-27.00,-17.00,-25.00,-33.00,-64.00
+0.00,+7.00,-5.00,-7.00,-10.00,-29.00,-18.00,+2.00,+39.00,+88.00,+2.00,+7.00,+32.00,-1.00,+12.00,+9.00
+0.00,+8.00,+9.00,+7.00,+10.00,-32.00,-3.00,+6.00,+9.00,+5.00,+12.00,-6.00,+22.00,+3.00,+13.00,+49.00
-5.00,-25.00,+2.00,-18.00,+1.00,+16.00,+3.00,+7.00,-46.00,-9.00,+1.00,+8.00,-63.00,-20.00,-7.00,-25.00
+2.00,+9.00,+9.00,+5.00,+4.00,+12.00,+1.00,-43.00,-13.00,-15.00,-7.00,-4.00,+13.00,+5.00,-43.00,-21.00
+0.00,-6.00,+5.00,-2.00,+3.00,-6.00,+10.00,+7.00,-12.00,-16.00,+3.00,-4.00,+14.00,-2.00,+17.00,+9.00
-2.00,-33.00,-12.00,-27.00,-6.00,-12.00,-18.00,-9.00,+2.00,-8.00,-2.00,+4.00,-24.00,-18.00,-1.00,-10.00
+2.00,-28.00,-17.00,-2.00,-20.00,-23.00,-20.00,-8.00,-20.00,-8.00,-1.00,-15.00,+38.00,+25.00,-8.00,+6.00
+0.00,+24.00,+13.00,+10.00,+1.00,-40.00,+3.00,+7.00,-16.00,+32.00,+3.00,+18.00,-47.00,-18.00,+10.00,+35.00
-9.00,+22.00,+1.00,-1.00,+4.00,+13.00,-26.00,-22.00,-4.00,-49.00,-12.00,-6.00,-12.00,-3.00,-6.00,-14.00
+2.00,+12.00,-7.00,+11.00,+5.00,+28.00,+42.00,-3.00,-4.00,-2.00,+2.00,+5.00,+8.00,+2.00,-2.00,+0.00
-3.00,-16.00,+4.00,-12.00,+4.00,+0.00,-8.00,-6.00,+44.00,+2.00,-6.00,-8.00,+17.00,+6.00,+6.00,+24.00
+2.00,-43.00,-9.00,-16.00,-6.00,-5.00,+2.00,+16.00,+53.00,+16.00,+6.00,-13.00,+93.00,+11.00,+17.00,+24.00
+7.00,+32.00,+11.00,+14.00,+9.00,+36.00,+12.00,+12.00,-63.00,+24.00,-3.00,-11.00,-100.00,-41.00,-11.00,-49.00
+1.00,+18.00,+4.00,+9.00,+0.00,-39.00,-20.00,-12.00,-3.00,+12.00,+19.00,+31.00,+97.00,+45.00,+19.00,+64.00
-5.00,-49.00,-15.00,-2.00,-3.00,+8.00,-4.00,-7.00,+11.00,+4.00,-2.00,+1.00,+20.00,-1.00,+2.00,-8.00
+3.00,+44.00,+9.00,-6.00,+1.00,+8.00,-2.00,+13.00,-16.00,-65.00,-10.00,-7.00,+8.00,-15.00,-10.00,-21.00
-3.00,+10.00,-2.00,-4.00,-3.00,-9.00,+12.00,+5.00,-66.00,+45.00,+2.00,-1.00,+5.00,+9.00,+17.00,+42.00
+1.00,-22.00,-6.00,-22.00,-15.00,-25.00,-15.00,+42.00,+70.00,+63.00,+7.00,-1.00,-61.00,+21.00,-16.00,-16.00
+0.00,+4.00,+0.00,-26.00,-15.00,-80.00,-13.00,-7.00,-9.00,+3.00,-5.00,-2.00,-17.00,-5.00,+4.00,+23.00
+1.00,-5.00,-2.00,+29.00,+17.00,+75.00,+5.00,+23.00,+18.00,+29.00,+1.00,+0.00,-11.00,+2.00,+4.00,+13.00
-12.00,+29.00,+4.00,-29.00,+6.00,+9.00,+14.00,+1.00,-20.00,-46.00,+0.00,-5.00,+18.00,+20.00,-2.00,-19.00
-4.00,-22.00,+3.00,+10.00,+0.00,+2.00,-6.00,-5.00,+17.00,+12.00,-10.00,-8.00,-30.00,-25.00,-9.00,-22.00
-1.00,-58.00,-6.00,-13.00,-6.00,-12.00,-8.00,-13.00,-12.00,-13.00,+6.00,+9.00,+18.00,+9.00,-5.00,-11.00
-9.00,+48.00,-8.00,-17.00,-16.00,-46.00,-20.00,+12.00,+9.00,+51.00,+15.00,+3.00,+4.00,+15.00,+13.00,+35.00
+10.00,+23.00,-8.00,+42.00,-1.00,+28.00,+36.00,+17.00,+35.00,-51.00,-9.00,-2.00,+15.00,-8.00,-12.00,+1.00
-6.00,+1.00,-3.00,+2.00,+0.00,+18.00,-13.00,-24.00,-57.00,-25.00,-4.00,-5.00,-6.00,-11.00,+2.00,-7.00
+6.00,+22.00,+8.00,+11.00,+6.00,+2.00,+1.00,-2.00,-19.00,-45.00,-25.00,-8.00,+35.00,+13.00,-7.00,-19.00
-5.00,-43.00,-5.00,+0.00,-9.00,-29.00,-3.00,-1.00,+61.00,+68.00,+20.00,+1.00,-43.00,-8.00,+3.00,+15.00
+6.00,-55.00,-10.00,+3.00,-1.00,-3.00,+1.00,+5.00,+1.00,-42.00,-7.00,+5.00,+53.00,-10.00,-11.00,-29.00
-1.00,+100.00,+18.00,-6.00,+0.00,-29.00,-6.00,-11.00,+74.00,+77.00,+13.00,+8.00,+4.00,+34.00,+7.00,+8.00
+4.00,+1.00,+1.00,+17.00,+3.00,+12.00,+7.00,+1.00,-69.00,-28.00,-2.00,+2.00,+13.00,+2.00,+3.00,+4.00
+2.00,-3.00,-4.00,+9.00,-4.00,-6.00,+0.00,+3.00,-31.00,-30.00,-22.00,-11.00,-93.00,-37.00,+4.00,-25.00
-2.00,+5.00,-5.00,-3.00,-7.00,-18.00,-9.00,-11.00,+7.00,-57.00,-6.00,-8.00,+44.00,+20.00,+14.00,+46.00
+4.00,-69.00,-12.00,-3.00,-4.00,+3.00,-2.00,-9.00,+71.00,+46.00,+1.00,+6.00,-23.00,-6.00,+11.00,+24.00
+4.00,+22.00,+5.00,+12.00,+9.00,+18.00,+5.00,+1.00,-59.00,-7.00,-2.00,-15.00,-3.00,-40.00,-2.00,-47.00
-3.00,-6.00,+15.00,-7.00,+9.00,+26.00,+13.00,-2.00,+76.00,+65.00,+21.00,+23.00,+17.00,+49.00,+1.00,+44.00
-2.00,+10.00,-8.00,-17.00,-21.00,-75.00,-4.00,+3.00,+21.00,+14.00,+10.00,+13.00,+6.00,+0.00,+7.00,-3.00
+0.00,+86.00,-1.00,+6.00,+4.00,+65.00,-8.00,-17.00,-11.00,-33.00,-3.00,-5.00,+14.00,-7.00,-11.00,-11.00
-1.00,-43.00,-7.00,+5.00,-2.00,+30.00,-1.00,-7.00,-59.00,+28.00,-25.00,-11.00,+14.00,+1.00,+5.00,+1.00
-1.00,-3.00,-4.00,+6.00,+10.00,-47.00,-6.00,-6.00,-9.00,-45.00,-2.00,+3.00,-5.00,-5.00,+10.00,+15.00
-7.00,-16.00,-4.00,-23.00,+4.00,+75.00,-5.00,+7.00,+21.00,+52.00,+8.00,+0.00,-32.00,+6.00,-6.00,-12.00
+3.00,-23.00,+2.00,-13.00,-12.00,-33.00,-23.00,+14.00,-11.00,-32.00,+9.00,+0.00,+28.00,+2.00,+0.00,+0.00
-5.00,+6.00,-4.00,+1.00,+1.00,-19.00,+9.00,-4.00,-37.00,+23.00,+0.00,-4.00,-34.00,-4.00,-7.00,-10.00
-4.00,-22.00,-7.00,-11.00,+1.00,+10.00,+8.00,+6.00,+42.00,+17.00,-5.00,-2.00,+14.00,-6.00,+0.00,-1.00
+3.00,-60.00,+6.00,+0.00,+1.00,-29.00,-11.00,-6.00,+22.00,-13.00,-4.00,-3.00,+9.00,+2.00,-10.00,+0.00
-2.00,-39.00,-3.00,-11.00,-3.00,+12.00,-9.00,-4.00,-52.00,-29.00,-11.00,-1.00,-10.00,-16.00,-23.00,-48.00
-4.00,+100.00,+13.00,+6.00,+5.00,+7.00,-5.00,+9.00,+25.00,-39.00,+7.00,+5.00,-5.00,-4.00,+37.00,+58.00
-3.00,-2.00,+2.00,+15.00,-5.00,-7.00,-4.00,-9.00,-30.00,+16.00,+0.00,-3.00,+23.00,+13.00,+0.00,+9.00
-1.00,-5.00,-7.00,-9.00,-6.00,-34.00,+3.00,-1.00,-8.00,-19.00,+6.00,-3.00,-31.00,-1.00,-8.00,-17.00
-4.00,-38.00,-11.00,-5.00,+3.00,+43.00,-1.00,-8.00,-12.00,+9.00,-10.00,+0.00,-30.00,-18.00,-6.00,-25.00
+0.00,-23.00,-9.00,-14.00,-8.00,-7.00,+2.00,+7.00,-16.00,+50.00,-4.00,-6.00,-8.00,+4.00,-12.00,+3.00
+3.00,-24.00,-3.00,-7.00,-9.00,-13.00,-3.00,-2.00,-81.00,-58.00,+10.00,+5.00,+33.00,+4.00,+0.00,-1.00
-2.00,+1.00,+7.00,+18.00,+15.00,+46.00,+9.00,+6.00,+53.00,+22.00,-3.00,-13.00,-68.00,-7.00,+8.00,+30.00
-1.00,+15.00,+4.00,-7.00,-2.00,-11.00,+6.00,-2.00,-44.00,-16.00,-3.00,+4.00,+56.00,-13.00,+8.00,+20.00
+1.00,+15.00,-2.00,-14.00,-1.00,+4.00,-2.00,+14.00,-16.00,+27.00,-3.00,+1.00,+0.00,+9.00,-28.00,-47.00
-3.00,-15.00,-4.00,+5.00,-1.00,-7.00,-1.00,+2.00,-19.00,-22.00,-10.00,-12.00,+46.00,-3.00,+12.00,+8.00
-3.00,+48.00,+3.00,-1.00,+3.00,-3.00,-4.00,-6.00,-27.00,+22.00,+2.00,+7.00,+9.00,+5.00,-7.00,-8.00
+3.00,-50.00,-12.00,-10.00,-14.00,-55.00,-9.00,-13.00,-16.00,-30.00,+7.00,-1.00,-31.00,+1.00,+2.00,+21.00
+1.00,+0.00,-4.00,+18.00,-3.00,-3.00,+6.00,+6.00,-22.00,+0.00,+8.00,+6.00,-42.00,-13.00,-4.00,-7.00
-6.00,+36.00,+12.00,-2.00,+7.00,-36.00,+4.00,-4.00,+8.00,-2.00,-7.00,-7.00,+22.00,-12.00,-17.00,-10.00
-3.00,+14.00,+2.00,-10.00,-6.00,+5.00,+1.00,-11.00,-40.00,-20.00,-16.00,-7.00,+13.00,-5.00,+0.00,-19.00
-1.00,-86.00,-14.00,+5.00,-2.00,+0.00,-3.00,-2.00,+63.00,+7.00,-1.00,-7.00,-21.00,+14.00,+1.00,+3.00
-5.00,+71.00,+6.00,-28.00,-4.00,-62.00,-5.00,+8.00,+21.00,+6.00,+10.00,+15.00,+70.00,-6.00,-11.00,-31.00
+9.00,-78.00,+5.00,+5.00,-5.00,+28.00,+0.00,+3.00,-30.00,-2.00,-14.00,-15.00,-14.00,-12.00,-12.00,-12.00
-1.00,+66.00,+18.00,+10.00,+14.00,+15.00,+8.00,+5.00,+80.00,+37.00,+4.00,+9.00,-54.00,+22.00,+31.00,+23.00
-6.00,+30.00,+4.00,-6.00,-2.00,+1.00,+1.00,+1.00,+18.00,+31.00,+1.00,-7.00,+12.00,-13.00,-6.00,+5.00
+0.00,-25.00,-5.00,-11.00,-5.00,-8.00,-1.00,-5.00,+3.00,-44.00,-8.00,-10.00,-64.00,+20.00,-11.00,-17.00
-1.00,-1.00,-6.00,-11.00,-4.00,+3.00,-11.00,+9.00,+18.00,-4.00,-1.00,+12.00,+27.00,-10.00,+7.00,+12.00
+1.00,-23.00,+2.00,+4.00,+2.00,-4.00,+14.00,-1.00,-7.00,+23.00,-5.00,+6.00,+32.00,+15.00,+3.00,-2.00
-2.00,-26.00,+0.00,-13.00,-11.00,-15.00,-6.00,-3.00,+68.00,-37.00,+20.00,+12.00,-3.00,+45.00,+16.00,+20.00
+0.00,-32.00,-9.00,+19.00,-1.00,+22.00,-6.00,+1.00,+55.00,+72.00,+6.00,-14.00,+6.00,+0.00,-6.00,+0.00
+2.00,+79.00,+9.00,+11.00,+5.00,+36.00,+6.00,-10.00,-14.00,+23.00,-16.00,-3.00,-38.00,+12.00,+12.00,+14.00
+3.00,-29.00,-12.00,-11.00,-9.00,-30.00,-17.00,-4.00,-98.00,-39.00,-5.00,-4.00,+6.00,-13.00,-21.00,-60.00
+3.00,+12.00,+9.00,+28.00,+15.00,+11.00,+14.00,+14.00,-26.00,-9.00,+7.00,+2.00,+15.00,-11.00,+14.00,+55.00
-6.00,-49.00,-14.00,-17.00,+1.00,+56.00,-24.00,-19.00,-47.00,-70.00,-7.00,-7.00,+10.00,+4.00,+2.00,+6.00
-4.00,+21.00,+0.00,-7.00,-8.00,+7.00,-6.00,+12.00,+123.00,+107.00,+10.00,+8.00,-28.00,-7.00,+3.00,+4.00
-4.00,-5.00,+2.00,+3.00,+12.00,-4.00,+33.00,+2.00,-23.00,-8.00,-2.00,-9.00,+57.00,-29.00,-10.00,+0.00
-2.00,+16.00,+1.00,-6.00,-3.00,-32.00,-8.00,-11.00,+2.00,+3.00,-12.00,-17.00,-37.00,-2.00,+29.00,+11.00
+5.00,-62.00,-2.00,+10.00,+6.00,+17.00,+4.00,-1.00,-22.00,-6.00,+1.00,+6.00,-49.00,+9.00,-2.00,-9.00
-8.00,-10.00,+0.00,-15.00,-11.00,-17.00,-18.00,+1.00,-28.00,-13.00,+6.00,+16.00,+78.00,-18.00,-15.00,-3.00
+1.00,+42.00,+10.00,-2.00,-6.00,-3.00,+3.00,-7.00,+9.00,-14.00,-12.00,-7.00,-80.00,+18.00,-11.00,+1.00
-4.00,-6.00,-8.00,-12.00,-5.00,-10.00,-9.00,-4.00,-65.00,+4.00,+10.00,+8.00,+64.00,+7.00,-8.00,-22.00
+3.00,+1.00,+7.00,+5.00,+4.00,+0.00,+9.00,+9.00,+50.00,+9.00,-5.00,-4.00,-18.00,-5.00,+10.00,+33.00
+5.00,-37.00,-8.00,-3.00,-2.00,+9.00,+0.00,+3.00,-39.00,-43.00,-15.00,-22.00,+53.00,-10.00,-13.00,-26.00
+0.00,-7.00,+0.00,+4.00,-11.00,-66.00,-7.00,-10.00,+6.00,-28.00,-10.00,+2.00,-21.00,+0.00,-6.00,-10.00
+1.00,-9.00,-3.00,+15.00,+12.00,+42.00,-13.00,+8.00,+20.00,+31.00,+0.00,-2.00,-7.00,-16.00,-8.00,+4.00
+0.00,+18.00,+3.00,-9.00,+2.00,+50.00,+46.00,+4.00,-12.00,-12.00,+4.00,+5.00,+12.00,+9.00,+9.00,+35.00
-3.00,+3.00,+8.00,-1.00,+9.00,+17.00,+11.00,-2.00,-33.00,+57.00,-4.00,-11.00,-73.00,-19.00,-13.00,-32.00
-3.00,+69.00,+3.00,-11.00,+1.00,+37.00,-1.00,+9.00,+57.00,-23.00,-5.00,+7.00,+74.00,-2.00,-7.00,-48.00
+3.00,-48.00,-17.00,+5.00,-14.00,-61.00,-12.00,-13.00,-72.00,-84.00,-13.00,-32.00,-103.00,-28.00,-13.00,-29.00
-3.00,+59.00,-3.00,+9.00,-19.00,-42.00,-16.00,-7.00,+30.00,-28.00,+9.00,+31.00,+127.00,+3.00,+26.00,+58.00
-1.00,-94.00,-6.00,-16.00,+1.00,+13.00,-5.00,-2.00,+16.00,+96.00,-10.00,-20.00,-2.00,+15.00,-10.00,-2.00
+4.00,-4.00,+5.00,+9.00,+16.00,+19.00,+18.00,+0.00,-41.00,-66.00,+7.00,-6.00,-72.00,-17.00,+6.00,+43.00
-5.00,-16.00,-14.00,-18.00,-4.00,+8.00,+0.00,-2.00,+44.00,+54.00,-5.00,+12.00,-21.00,-15.00,-21.00,-61.00
+17.00,+92.00,-6.00,+25.00,+0.00,-14.00,-8.00,+9.00,+93.00,+47.00,+18.00,+14.00,+79.00,+38.00,+49.00,+95.00
-4.00,-119.00,+17.00,-2.00,-2.00,-15.00,-5.00,-24.00,-67.00,-45.00,+4.00,-7.00,+62.00,-10.00,-11.00,-7.00
-10.00,+63.00,+26.00,-13.00,-2.00,-58.00,-17.00,+3.00,-77.00,+34.00,+4.00,+29.00,-76.00,-3.00,+20.00,-2.00
-3.00,-70.00,-6.00,-7.00,+0.00,+57.00,+17.00,-8.00,-85.00,-31.00,-6.00,+1.00,+51.00,+13.00,-7.00,-17.00
+3.00,-7.00,+8.00,-5.00,-13.00,-68.00,-24.00,-36.00,-52.00,-9.00,-7.00,-4.00,-19.00,+3.00,-12.00,-31.00
+0.00,+89.00,-2.00,+30.00,+7.00,+4.00,-2.00,+7.00,-26.00,-28.00,-4.00,-8.00,+27.00,+2.00,+2.00,-5.00
+2.00,-90.00,-14.00,-7.00,-8.00,-30.00,-3.00,+38.00,+16.00,+19.00,+7.00,-13.00,-33.00,-10.00,-3.00,+22.00
-3.00,+22.00,+22.00,+7.00,+10.00,+18.00,+11.00,-6.00,+12.00,-4.00,-14.00,-4.00,+12.00,+1.00,+1.00,+13.00
+2.00,-94.00,-15.00,+2.00,-18.00,-69.00,-6.00,+40.00,-30.00,-6.00,-7.00,-15.00,-30.00,-21.00,-18.00,-42.00
+10.00,+6.00,-10.00,+29.00,+35.00,+79.00,+17.00,+8.00,+36.00,-41.00,-2.00,+2.00,-30.00,+3.00,+5.00,-11.00
+1.00,-14.00,-1.00,+8.00,-8.00,+15.00,-9.00,-12.00,+29.00,+29.00,+16.00,+1.00,+21.00,+2.00,+7.00,+25.00
-2.00,+25.00,-11.00,+0.00,-9.00,-15.00,-2.00,+4.00,+50.00,+1.00,+2.00,+2.00,-11.00,-6.00,-8.00,-10.00
-7.00,-20.00,+3.00,-2.00,-7.00,-3.00,-2.00,+6.00,-102.00,+6.00,-12.00,-13.00,-18.00,-10.00,-20.00,-49.00
+3.00,+38.00,+0.00,-7.00,-9.00,-18.00,+9.00,+11.00,+84.00,-59.00,-5.00,+5.00,-42.00,+8.00,+1.00,+16.00
+0.00,-46.00,-16.00,+17.00,+3.00,+43.00,-6.00,-35.00,-84.00,+57.00,+4.00,+0.00,+32.00,-1.00,+6.00,+33.00
+6.00,-5.00,-3.00,-9.00,-3.00,-33.00,-9.00,+0.00,-11.00,-24.00,-15.00,-3.00,+22.00,+0.00,-5.00,+16.00
-2.00,-22.00,+2.00,-13.00,+6.00,+6.00,-1.00,-8.00,-47.00,-9.00,+12.00,-3.00,-4.00,-5.00,-4.00,-12.00
-11.00,+79.00,+20.00,+6.00,+6.00,-3.00,+16.00,-1.00,-11.00,+2.00,+11.00,+11.00,-36.00,-3.00,-6.00,-36.00
-4.00,-54.00,-22.00,-17.00,-2.00,+12.00,-9.00,-53.00,+94.00,-13.00,-14.00,-6.00,+31.00,+3.00,-8.00,-6.00
-2.00,-7.00,+5.00,+13.00,-6.00,-23.00,-3.00,+5.00,-60.00,-5.00,+0.00,-9.00,+33.00,-2.00,+1.00,-1.00
+0.00,+52.00,+14.00,+10.00,+12.00,+27.00,+3.00,-31.00,+70.00,+4.00,-9.00,-4.00,-84.00,-22.00,-13.00,-19.00
+0.00,-79.00,-28.00,-12.00,-12.00,-6.00,-6.00,-5.00,-28.00,+7.00,+2.00,-3.00,-16.00,-13.00,+3.00,+11.00
+1.00,-16.00,+4.00,-1.00,-2.00,-11.00,-5.00,+10.00,+45.00,+14.00,+2.00,+10.00,+9.00,+8.00,-10.00,+3.00
-5.00,+127.00,+23.00,+4.00,+7.00,+2.00,+9.00,+2.00,-19.00,+51.00,-1.00,+0.00,+38.00,-1.00,+0.00,-17.00
-3.00,+32.00,+9.00,-5.00,+9.00,+35.00,+3.00,-2.00,+21.00,-40.00,+0.00,-6.00,-14.00,+8.00,+20.00,-3.00
-3.00,-60.00,-19.00,-11.00,-13.00,-26.00,-3.00,-5.00,-53.00,-43.00,-5.00,-5.00,-40.00,-15.00,-7.00,+27.00
+2.00,+60.00,+15.00,-13.00,-7.00,-15.00,-5.00,+6.00,-13.00,-15.00,+0.00,+1.00,+43.00,-2.00,-4.00,-29.00
+4.00,-59.00,-7.00,+14.00,+4.00,-3.00,-13.00,-4.00,-26.00,+7.00,-15.00,-2.00,+3.00,+19.00,-16.00,-19.00
-6.00,-59.00,-16.00,+2.00,-5.00,+9.00,+31.00,+0.00,+91.00,+38.00,+20.00,+13.00,+3.00,-4.00,+19.00,+30.00
+1.00,+61.00,-1.00,-24.00,-10.00,-27.00,-10.00,+14.00,-37.00,+21.00,+1.00,-11.00,+53.00,+25.00,+14.00,+20.00
-2.00,-8.00,-5.00,-12.00,+1.00,+48.00,+5.00,+12.00,+7.00,-58.00,+3.00,+13.00,-51.00,-16.00,+0.00,+12.00
-1.00,+20.00,+12.00,+16.00,+17.00,+34.00,+9.00,+19.00,+3.00,-21.00,-8.00,-6.00,-16.00,-16.00,-1.00,-31.00
-2.00,-19.00,+3.00,-2.00,-9.00,-25.00,-14.00,-7.00,+37.00,+6.00,-12.00,-11.00,+0.00,-3.00,-15.00,+0.00
-7.00,+18.00,-7.00,-16.00,-9.00,-19.00,-4.00,-9.00,+29.00,+2.00,+6.00,+8.00,-25.00,+2.00,-4.00,-22.00
+7.00,-94.00,-4.00,+6.00,-4.00,-9.00,+0.00,+9.00,-3.00,-25.00,-1.00,-13.00,+53.00,-5.00,+3.00,+20.00
-3.00,-22.00,-8.00,-15.00,+1.00,+9.00,-2.00,-4.00,-18.00,-15.00,+5.00,+10.00,+0.00,+14.00,-3.00,-35.00
-5.00,-41.00,-4.00,-22.00,-8.00,-81.00,-10.00,-4.00,+40.00,+28.00,+3.00,+4.00,+14.00,-2.00,-7.00,+8.00
-9.00,-14.00,-5.00,+18.00,+14.00,+89.00,+4.00,+3.00,+10.00,-13.00,-4.00,-2.00,-27.00,-15.00,-3.00,+5.00
-2.00,-78.00,-15.00,+2.00,-6.00,-7.00,-11.00,-7.00,-39.00,+12.00,+0.00,-5.00,+34.00,+22.00,-9.00,-13.00
+12.00,+76.00,+7.00,-9.00,-9.00,-16.00,-1.00,+2.00,+29.00,-6.00,-6.00,-9.00,-51.00,-10.00,+20.00,+18.00
+6.00,-44.00,+15.00,+21.00,+15.00,+27.00,+14.00,-3.00,-17.00,-23.00,-13.00,+4.00,-20.00,-8.00,-18.00,-33.00
+3.00,+50.00,+7.00,-7.00,-14.00,-90.00,-28.00,-14.00,-50.00,-15.00,+8.00,-9.00,-21.00,+11.00,+11.00,+5.00
-6.00,+116.00,+8.00,-2.00,+8.00,+25.00,+43.00,+21.00,-41.00,+9.00,+1.00,+14.00,+6.00,+1.00,-12.00,-10.00
-1.00,-44.00,-4.00,+1.00,-7.00,+17.00,+0.00,-14.00,-15.00,+11.00,+2.00,+1.00,+17.00,-13.00,-9.00,-12.00
-1.00,+12.00,-7.00,+6.00,+5.00,+10.00,-2.00,-7.00,+52.00,+12.00,-1.00,-1.00,-11.00,+6.00,+1.00,+45.00
+4.00,-29.00,-3.00,-11.00,-8.00,-6.00,-13.00,-10.00,+72.00,-8.00,+9.00,+11.00,+22.00,+8.00,+25.00,+53.00
+2.00,-41.00,-6.00,+0.00,+3.00,+16.00,-2.00,-6.00,-5.00,+11.00,-3.00,-11.00,+7.00,-4.00,-2.00,-20.00
+3.00,-29.00,-3.00,+0.00,-2.00,+26.00,+13.00,+12.00,+25.00,-11.00,-10.00,-7.00,-15.00,+0.00,-2.00,+12.00
-1.00,+69.00,+12.00,+2.00,+13.00,+19.00,-1.00,+11.00,-86.00,-16.00,-9.00,-7.00,+1.00,-19.00,-15.00,-64.00
-1.00,-22.00,-8.00,-2.00,-2.00,+9.00,+3.00,-8.00,+3.00,+39.00,-5.00,-1.00,+12.00,-8.00,-5.00,-11.00
-2.00,+1.00,-11.00,-11.00,-15.00,-46.00,-29.00,+0.00,+22.00,+14.00,+1.00,-9.00,-66.00,+6.00,+10.00,+31.00
+0.00,-90.00,-1.00,-1.00,-1.00,+1.00,+14.00,-12.00,+0.00,-27.00,+0.00,-2.00,+25.00,+11.00,-5.00,-7.00
-5.00,+70.00,+3.00,+7.00,+4.00,+19.00,-9.00,-3.00,-2.00,+1.00,-2.00,-3.00,+3.00,-8.00,+1.00,-10.00
-2.00,+2.00,-2.00,-12.00,+6.00,+2.00,+14.00,+0.00,-9.00,-12.00,+8.00,-1.00,-78.00,+13.00,+4.00,+0.00
+1.00,-35.00,-4.00,+10.00,-6.00,-9.00,-6.00,-7.00,+11.00,+24.00,-2.00,+10.00,-5.00,-7.00,+1.00,-10.00
-1.00,+29.00,-2.00,-14.00,-7.00,-34.00,-12.00,+1.00,+33.00,+10.00,+6.00,+11.00,+19.00,+37.00,+7.00,+23.00
-5.00,-75.00,-7.00,+4.00,+3.00,+9.00,-2.00,-19.00,-72.00,-46.00,-18.00,-13.00,-11.00,-3.00,-20.00,-57.00
+2.00,+8.00,+8.00,+28.00,+7.00,+55.00,+16.00,+26.00,+8.00,+60.00,-1.00,+12.00,+42.00,-16.00,-21.00,+1.00
-2.00,-8.00,-1.00,-13.00,-1.00,-35.00,-10.00,-11.00,-26.00,-14.00,-2.00,-12.00,+40.00,+30.00,+48.00,+12.00
-7.00,-8.00,+11.00,-14.00,+1.00,-3.00,+4.00,-18.00,-57.00,+15.00,-3.00,-2.00,-42.00,-17.00,-18.00,-23.00
-7.00,-3.00,-3.00,-28.00,-7.00,-18.00,-13.00,+3.00,-74.00,+11.00,+5.00,+3.00,+27.00,+8.00,+6.00,+1.00
+6.00,+32.00,-1.00,+28.00,+6.00,+22.00,-7.00,-2.00,+12.00,+6.00,+5.00,+7.00,+7.00,+1.00,+5.00,+17.00
-4.00,-36.00,-7.00,-2.00,+4.00,+30.00,+8.00,+7.00,-48.00,-46.00,-8.00,-10.00,+8.00,-16.00,-16.00,-4.00
-2.00,+8.00,-2.00,-5.00,-3.00,-13.00,-3.00,+6.00,-6.00,+18.00,-24.00,-12.00,-33.00,-26.00,-16.00,-59.00
+3.00,+24.00,+0.00,-14.00,-3.00,+12.00,+6.00,+2.00,-23.00,-48.00,+11.00,-3.00,+14.00,+10.00,+2.00,-4.00
-4.00,-8.00,+5.00,-15.00,-5.00,-63.00,-14.00,-10.00,+33.00,+4.00,+3.00,+7.00,+0.00,-4.00,+22.00,+47.00
+6.00,+7.00,+0.00,+14.00,+3.00,+0.00,-10.00,-6.00,-49.00,+13.00,+0.00,-10.00,+42.00,+3.00,-15.00,-27.00
-2.00,+45.00,+11.00,-9.00,-9.00,-22.00,-4.00,+2.00,+10.00,+11.00,+4.00,+0.00,-47.00,+1.00,+10.00,+10.00
-6.00,-27.00,-11.00,-7.00,+4.00,+31.00,+0.00,-8.00,+35.00,-3.00,-6.00,+13.00,+21.00,-28.00,-7.00,-3.00
-1.00,-77.00,-20.00,-4.00,-12.00,-28.00,-7.00,-14.00,-3.00,-19.00,-1.00,-8.00,+68.00,+32.00,-5.00,-17.00
+0.00,+70.00,-11.00,+1.00,-2.00,+3.00,-8.00,-17.00,-23.00,-31.00,-4.00,+13.00,-50.00,-11.00,-12.00,-18.00
+6.00,+68.00,+20.00,+12.00,+2.00,+0.00,+13.00,+6.00,+10.00,+40.00,+3.00,+1.00,+54.00,+1.00,+7.00,+49.00
-1.00,-13.00,+3.00,-8.00,+4.00,-10.00,+0.00,-3.00,+11.00,-19.00,-4.00,-5.00,-15.00,-17.00,-2.00,+8.00
+3.00,+36.00,+1.00,-33.00,-10.00,-65.00,+0.00,-11.00,+7.00,+41.00,-7.00,-2.00,-68.00,+14.00,-8.00,-47.00
+2.00,-50.00,-3.00,+20.00,+13.00,+30.00,+2.00,+3.00,-12.00,+25.00,+6.00,+4.00,+36.00,+2.00,+13.00,+41.00
-12.00,-14.00,-4.00,-7.00,+0.00,+44.00,-4.00,-8.00,-30.00,+5.00,+1.00,-13.00,-34.00,-44.00,-14.00,-26.00
-1.00,+28.00,-4.00,-14.00,-7.00,-2.00,-6.00,+3.00,+42.00,+51.00,+21.00,+17.00,-5.00,+34.00,+20.00,+63.00
+0.00,-41.00,-9.00,-10.00,+1.00,-16.00,-5.00,+20.00,+68.00,-43.00,-12.00,-3.00,+9.00,-12.00,-4.00,+23.00
+2.00,-8.00,-1.00,-18.00,-8.00,-20.00,-7.00,-10.00,-16.00,+41.00,-5.00,-13.00,-12.00,-12.00,-21.00,-21.00
-1.00,+33.00,-5.00,+0.00,-2.00,-12.00,-1.00,+9.00,-22.00,+6.00,+4.00,+0.00,+0.00,-8.00,+11.00,+13.00
+8.00,-32.00,+7.00,+28.00,+3.00,+10.00,+14.00,+3.00,-29.00,-48.00,-15.00,-13.00,-2.00,-8.00,-21.00,-49.00
-8.00,+37.00,+15.00,-1.00,-5.00,-4.00,+10.00,+11.00,+59.00,+37.00,+5.00,+2.00,+5.00,+7.00,+10.00,+26.00
-2.00,+12.00,+4.00,+2.00,-2.00,-15.00,-6.00,-11.00,+3.00,-36.00,-6.00,-17.00,+95.00,+2.00,-4.00,+12.00
+5.00,+17.00,-9.00,+7.00,+8.00,+12.00,-1.00,+1.00,+16.00,+2.00,+15.00,+21.00,-69.00,-21.00,+1.00,+14.00
-6.00,-48.00,-11.00,+7.00,-5.00,+0.00,-4.00,+0.00,-13.00,-4.00,-3.00,+5.00,+29.00,-33.00,-12.00,-42.00
+4.00,+10.00,-8.00,+15.00,-2.00,+4.00,-5.00,-8.00,-64.00,-35.00,-11.00,-6.00,+19.00,+25.00,-1.00,-8.00
+5.00,+34.00,+0.00,+5.00,-2.00,+21.00,+8.00,+24.00,+92.00,+39.00,+11.00,+4.00,+9.00,-4.00,+3.00,+6.00
-3.00,-30.00,-9.00,+1.00,-5.00,-11.00,-15.00,-9.00,+32.00,-11.00,+5.00,-1.00,+49.00,+21.00,+0.00,-31.00
+6.00,+1.00,-4.00,+11.00,-2.00,-44.00,-1.00,+5.00,-53.00,+17.00,+3.00,-7.00,-36.00,-6.00,+7.00,+31.00
-2.00,-39.00,-3.00,-2.00,-7.00,-77.00,-3.00,-4.00,-11.00,+12.00,+6.00,+4.00,-16.00,-23.00,-9.00,-2.00
-7.00,+44.00,+16.00,+12.00,+13.00,+90.00,+14.00,+5.00,-1.00,+10.00,-9.00,-9.00,-27.00,-1.00,-3.00,-8.00
-2.00,+7.00,-6.00,-11.00,-4.00,-23.00,-9.00,+1.00,-7.00,-35.00,-3.00,-1.00,+42.00,+10.00,-1.00,+23.00
+8.00,-54.00,+8.00,+13.00,+3.00,+4.00,-2.00,+5.00,+61.00,+7.00,-1.00,-4.00,-31.00,+5.00,+3.00,+5.00
-2.00,+7.00,-2.00,-13.00,-1.00,+17.00,+8.00,-8.00,-64.00,-3.00,-11.00,-3.00,-12.00,-11.00,-2.00,-12.00
+0.00,+88.00,+9.00,-2.00,-8.00,-52.00,-13.00,-6.00,-12.00,-42.00,+4.00,+6.00,+10.00,+6.00,+2.00,-6.00
+3.00,-18.00,+2.00,+9.00,+2.00,-13.00,+4.00,+2.00,-6.00,-4.00,+0.00,-9.00,-59.00,-6.00,+1.00,+14.00
-5.00,+21.00,-3.00,-9.00,+0.00,+20.00,+3.00,-3.00,+66.00,+10.00,+7.00,+11.00,+51.00,+5.00,-4.00,-29.00
+3.00,-46.00,-8.00,+6.00,-2.00,+15.00,-11.00,-3.00,-31.00,+7.00,+10.00,+8.00,-23.00,+3.00,+14.00,+30.00
-2.00,+42.00,-1.00,-13.00,-8.00,-33.00,+1.00,+4.00,+31.00,+35.00,-6.00,-2.00,+8.00,-12.00,+1.00,+17.00
-7.00,-87.00,-9.00,+12.00,+1.00,+43.00,+3.00,-9.00,-43.00,-37.00,-12.00,-13.00,-11.00,+1.00,-13.00,-13.00
+4.00,+68.00,+0.00,+6.00,-6.00,+4.00,-9.00,-2.00,-63.00,+18.00,+16.00,-4.00,+11.00,+4.00,+10.00,+22.00
-2.00,+26.00,+2.00,-13.00,+1.00,+30.00,+3.00,+4.00,-102.00,-29.00,-5.00,+3.00,-53.00,-51.00,-34.00,-90.00
-3.00,-59.00,-3.00,+3.00,-11.00,-89.00,-29.00,-9.00,+11.00,-5.00,-3.00,+7.00,-19.00,+58.00,+41.00,+31.00
+2.00,-7.00,-1.00,-11.00,-2.00,+41.00,+41.00,+17.00,-4.00,-17.00,-4.00,-3.00,+29.00,-9.00,+2.00,+30.00
+2.00,-21.00,-11.00,+18.00,+9.00,-7.00,-5.00,-10.00,+1.00,+20.00,-5.00,-3.00,+11.00,+14.00,-11.00,-19.00
+5.00,-48.00,-7.00,-1.00,+0.00,+15.00,+0.00,-3.00,+5.00,-23.00,-1.00,-8.00,-16.00,-3.00,-2.00,-6.00
+0.00,+36.00,+14.00,-8.00,+7.00,-15.00,+8.00,-9.00,-18.00,-22.00,+0.00,+2.00,-6.00,-12.00,-8.00,-7.00
+1.00,-13.00,-4.00,+6.00,-1.00,-53.00,-17.00,-13.00,-1.00,-32.00,-8.00,-2.00,+8.00,+3.00,-5.00,-16.00
-7.00,+12.00,-5.00,-12.00,-4.00,+49.00,-9.00,+12.00,-6.00,+41.00,+8.00,+1.00,-13.00,+9.00,+13.00,+26.00
-1.00,-16.00,+8.00,+19.00,-1.00,+17.00,+11.00,-4.00,+4.00,-4.00,-5.00,-8.00,+12.00,-15.00,-13.00,-32.00
+3.00,-65.00,-7.00,+1.00,+6.00,+27.00,+0.00,-3.00,+64.00,+57.00,+1.00,-4.00,-16.00,-12.00,-1.00,+9.00
-3.00,+27.00,+1.00,-14.00,-7.00,-45.00,-11.00,-1.00,-10.00,-38.00,-11.00,-19.00,-8.00,+8.00,+0.00,+0.00
+7.00,+41.00,+9.00,-4.00,-4.00,-36.00,+4.00,+10.00,+15.00,+28.00,+8.00,+24.00,-21.00,-7.00,+2.00,+28.00
-2.00,+20.00,+3.00,+13.00,+12.00,+64.00,-1.00,-6.00,+34.00,-16.00,+13.00,+4.00,+9.00,-7.00,+6.00,+21.00
-4.00,-39.00,-6.00,-3.00,-7.00,+0.00,+5.00,+8.00,-45.00,-10.00,-10.00,-9.00,+20.00,-4.00,-21.00,-51.00
+2.00,-42.00,-7.00,+2.00,+0.00,-2.00,-6.00,-2.00,-6.00,-16.00,-3.00,+3.00,+87.00,+11.00,+3.00,+3.00
-6.00,+69.00,+4.00,-3.00,-5.00,-8.00,-4.00,-6.00,+47.00,-25.00,-10.00,-10.00,-93.00,-5.00,-2.00,-1.00
-2.00,-33.00,-6.00,+26.00,+11.00,+9.00,+9.00,-9.00,-51.00,+37.00,-12.00,-4.00,+91.00,+5.00,+6.00,+13.00
+4.00,-72.00,-6.00,+1.00,-8.00,-53.00,-5.00,-5.00,+20.00,-8.00,+27.00,+14.00,-63.00,-8.00,-5.00,-2.00
-2.00,+102.00,+14.00,+2.00,+16.00,+72.00,+5.00,+5.00,-28.00,+22.00,+7.00,+7.00,-14.00,+6.00,+5.00,-10.00
-7.00,-71.00,-6.00,-2.00,-3.00,+11.00,+6.00,-4.00,+31.00,-25.00,-4.00,-8.00,+15.00,+6.00,+10.00,+13.00
+6.00,+24.00,-5.00,+17.00,-7.00,-45.00,-14.00,+4.00,+37.00,+48.00,+4.00,+17.00,+11.00,+26.00,-21.00,+12.00
-3.00,-46.00,-11.00,-15.00,-14.00,-8.00,-8.00,-6.00,-34.00,-51.00,-11.00,-12.00,+10.00,-17.00,-13.00,-17.00
-3.00,-12.00,-16.00,+12.00,+6.00,+3.00,-4.00,+8.00,+28.00,+2.00,-7.00,-3.00,-4.00,+6.00,+6.00,+14.00
+8.00,+58.00,+17.00,+9.00,+4.00,-1.00,-3.00,-10.00,-55.00,-8.00,-10.00,-11.00,+20.00,+0.00,-14.00,-40.00
-1.00,+20.00,+9.00,-7.00,-5.00,-18.00,+4.00,-6.00,+9.00,+38.00,+6.00,-8.00,-21.00,+2.00,+10.00,+6.00
+1.00,+4.00,+2.00,+6.00,+17.00,+51.00,+23.00,+13.00,+17.00,+18.00,+2.00,+3.00,-9.00,+4.00,+10.00,+22.00
+0.00,-13.00,+16.00,+2.00,+5.00,-6.00,+0.00,+2.00,+2.00,-25.00,+10.00,+10.00,+3.00,-11.00,-17.00,-30.00
+3.00,-18.00,-20.00,-14.00,-4.00,+1.00,-10.00,-1.00,+0.00,-19.00,-5.00,-9.00,-14.00,-3.00,+1.00,+6.00
-1.00,-6.00,-17.00,+3.00,-20.00,-11.00,-11.00,-7.00,+7.00,-33.00,-19.00,-18.00,+27.00,-9.00,-2.00,-9.00
+3.00,+36.00,-6.00,+10.00,-2.00,-5.00,-4.00,-4.00,-43.00,-2.00,+12.00,+20.00,-26.00,+0.00,+2.00,+15.00
-2.00,-75.00,-4.00,-7.00,+1.00,-11.00,+5.00,-3.00,-38.00,+30.00,+5.00,+4.00,+24.00,+1.00,+7.00,-6.00
-1.00,-5.00,+11.00,+9.00,+7.00,+15.00,+9.00,+11.00,-40.00,-12.00,-13.00,-6.00,+1.00,+6.00,-11.00,-31.00
+3.00,+2.00,+7.00,-10.00,+1.00,-2.00,+5.00,+2.00,+80.00,+2.00,+19.00,+16.00,+52.00,+0.00,+32.00,+87.00
-2.00,+104.00,+15.00,-12.00,+2.00,+7.00,-3.00,+3.00,-61.00,+15.00,-6.00,+2.00,-23.00,+14.00,+2.00,+3.00
-3.00,+8.00,-4.00,-3.00,-3.00,+5.00,-3.00,-5.00,-5.00,+27.00,-3.00,-9.00,-62.00,-12.00,-4.00,-2.00
-3.00,-62.00,-13.00,-13.00,-11.00,-33.00,-7.00,-7.00,-104.00,-41.00,-19.00,-16.00,+36.00,+5.00,-6.00,-19.00
-3.00,+48.00,+12.00,+7.00,+12.00,+14.00,+5.00,+36.00,+32.00,-29.00,-2.00,-3.00,-21.00,-15.00,-6.00,-24.00
-2.00,+4.00,+1.00,-11.00,-2.00,+21.00,+2.00,+2.00,+48.00,+31.00,+3.00,+0.00,+17.00,+9.00,+23.00,+66.00
+6.00,+13.00,+2.00,-4.00,-8.00,-45.00,-26.00,-8.00,+99.00,+53.00,+7.00,+5.00,+14.00,-1.00,+0.00,+31.00
-4.00,+10.00,-2.00,+14.00,+11.00,+84.00,+33.00,-9.00,-43.00,+23.00,+17.00,+4.00,+29.00,+4.00,-3.00,-4.00
-3.00,-65.00,-13.00,-1.00,-3.00,+10.00,-2.00,-2.00,-113.00,-10.00,-8.00,+7.00,-31.00,+12.00,-3.00,-36.00
-4.00,-24.00,-16.00,+1.00,-7.00,-4.00,-9.00,-11.00,+75.00,+39.00,+7.00,-4.00,-60.00,-38.00,-17.00,-14.00
-3.00,+23.00,-7.00,-20.00,-18.00,-32.00,-21.00,+3.00,-40.00,-20.00,-5.00,+0.00,+24.00,+23.00,+28.00,-10.00
-3.00,-4.00,-1.00,-18.00,-8.00,-39.00,-15.00,+15.00,+49.00,+14.00,-2.00,-6.00,-110.00,-20.00,+3.00,+28.00
+0.00,+4.00,+16.00,+15.00,+15.00,+22.00,+19.00,+1.00,-3.00,-50.00,-5.00,+1.00,+78.00,-14.00,+5.00,-29.00
-1.00,-83.00,-6.00,-3.00,-2.00,+13.00,+2.00,-12.00,-48.00,-10.00,-7.00,+0.00,+25.00,+48.00,-34.00,-32.00
-3.00,+93.00,+12.00,-19.00,-6.00,-30.00,+3.00,-2.00,+9.00,-6.00,-14.00,-3.00,-16.00,+3.00,-20.00,-25.00
+0.00,-87.00,-12.00,+4.00,-2.00,+11.00,-8.00,+4.00,+6.00,-1.00,+7.00,+8.00,+21.00,-10.00,-5.00,+25.00
-4.00,+72.00,+12.00,-9.00,+6.00,-6.00,+2.00,+5.00,-43.00,-10.00,-2.00,-8.00,-27.00,+2.00,+4.00,-16.00
-6.00,+10.00,-5.00,-5.00,-7.00,-9.00,-10.00,-15.00,+0.00,-43.00,-9.00,-9.00,-5.00,-16.00,-2.00,-19.00
+3.00,-8.00,-3.00,+20.00,+3.00,+3.00,+6.00,+0.00,+11.00,+36.00,+12.00,+2.00,+8.00,-10.00,+2.00,+15.00
+2.00,-17.00,-2.00,+10.00,+1.00,+24.00,+5.00,-5.00,-6.00,-20.00,-3.00,+0.00,+25.00,+10.00,-2.00,+2.00
-4.00,-48.00,-16.00,-39.00,-12.00,-24.00,-16.00,-11.00,+2.00,+7.00,+4.00,+2.00,-26.00,+8.00,-5.00,+2.00
+5.00,-38.00,+3.00,+18.00,+11.00,+18.00,+2.00,+17.00,+42.00,+19.00,-2.00,-2.00,+21.00,-20.00,-3.00,-11.00
-5.00,+7.00,+3.00,+7.00,-1.00,+10.00,+6.00,-6.00,-36.00,-24.00,-17.00,-6.00,-12.00,-2.00,-7.00,+0.00
+0.00,-20.00,-4.00,-5.00,-5.00,-38.00,-8.00,-7.00,+11.00,-6.00,-4.00,-2.00,+26.00,+5.00,+6.00,-2.00
+2.00,+16.00,+7.00,+0.00,-1.00,-7.00,+2.00,-3.00,-14.00,+4.00,+10.00,+3.00,-31.00,-2.00,-4.00,-12.00
+0.00,-4.00,+1.00,+7.00,+1.00,+0.00,-5.00,-2.00,-25.00,-35.00,-9.00,-7.00,+6.00,-8.00,+0.00,-12.00
-1.00,+3.00,-2.00,+4.00,-2.00,-8.00,+0.00,-3.00,+6.00,-53.00,+2.00,-14.00,+19.00,-26.00,-11.00,-52.00
-2.00,+14.00,+2.00,+2.00,-2.00,-12.00,+4.00,+1.00,+27.00,+12.00,+14.00,+24.00,-35.00,-8.00,+12.00,+39.00
-1.00,-21.00,-14.00,-3.00,-5.00,-1.00,-20.00,-11.00,+55.00,+25.00,-6.00,-2.00,-15.00,+29.00,+3.00,-9.00
+3.00,-54.00,-18.00,-5.00,-7.00,-3.00,+0.00,+1.00,-2.00,+15.00,-5.00,-7.00,-9.00,+26.00,-3.00,-4.00
-1.00,-4.00,+7.00,+19.00,+2.00,+1.00,+1.00,-3.00,-2.00,+9.00,+0.00,+11.00,+46.00,+10.00,+2.00,+6.00
-5.00,+49.00,+6.00,-3.00,+0.00,+7.00,+2.00,-10.00,-29.00,-24.00,-18.00,-14.00,-12.00,-10.00,-18.00,-51.00
-4.00,-37.00,+6.00,-14.00,+4.00,+12.00,+1.00,-1.00,-69.00,-28.00,-2.00,-11.00,-37.00,-14.00,-1.00,+11.00
+0.00,-17.00,+7.00,+1.00,-5.00,-28.00,+8.00,+1.00,+14.00,+3.00,-3.00,+0.00,+18.00,-13.00,+7.00,+11.00
-1.00,+1.00,-12.00,+6.00,-3.00,+14.00,+3.00,-10.00,+7.00,+34.00,+7.00,+1.00,-19.00,+1.00,+2.00,+21.00
-1.00,+2.00,-9.00,-2.00,+1.00,-3.00,-13.00,+0.00,-32.00,+3.00,-3.00,+3.00,+32.00,+9.00,-2.00,-24.00
-1.00,+55.00,+5.00,+3.00,+0.00,+23.00,+11.00,-3.00,-26.00,-7.00,+3.00,+3.00,+0.00,+7.00,+12.00,+50.00
-7.00,-7.00,+0.00,-13.00,+0.00,+8.00,-13.00,-3.00,+1.00,+4.00,+3.00,+0.00,+20.00,-5.00,-4.00,-5.00
+7.00,-37.00,-1.00,+27.00,+7.00,-13.00,+35.00,+15.00,+36.00,+6.00,+12.00,-2.00,+32.00,+4.00,+5.00,+25.00
-7.00,+22.00,+3.00,-3.00,+7.00,-2.00,-2.00,-11.00,+48.00,-23.00,-4.00,+8.00,-89.00,-9.00,-1.00,+3.00
+4.00,-23.00,-7.00,-13.00,-8.00,-10.00,-5.00,-3.00,-68.00,-5.00,-12.00,-7.00,+25.00,+1.00,-8.00,-26.00
+0.00,-12.00,-2.00,-4.00,+2.00,+13.00,+2.00,+4.00,+27.00,-4.00,-2.00,-4.00,+3.00,-9.00,-8.00,-29.00
+0.00,+97.00,+9.00,-5.00,-1.00,-4.00,-8.00,+1.00,-52.00,+14.00,+15.00,+10.00,-1.00,-3.00,-5.00,-11.00
+2.00,-21.00,+0.00,-2.00,-2.00,-10.00,-3.00,+10.00,+48.00,+9.00,-1.00,+0.00,+44.00,+5.00,+14.00,+45.00
-1.00,-2.00,+6.00,+2.00,+1.00,-7.00,+6.00,-7.00,+45.00,-5.00,-11.00,-11.00,-28.00,-13.00,-6.00,+4.00
-6.00,+0.00,-3.00,-24.00,-3.00,-22.00,-10.00,-7.00,-24.00,+2.00,-25.00,-20.00,-14.00,-5.00,-9.00,-26.00
+4.00,-82.00,-22.00,+11.00,-3.00,+9.00,-16.00,-13.00,-20.00,+26.00,+34.00,+22.00,+10.00,+18.00,+21.00,+41.00
+0.00,+12.00,+0.00,+5.00,+0.00,+18.00,+10.00,+2.00,-38.00,-38.00,-8.00,-9.00,+37.00,-12.00,-4.00,-12.00
-2.00,+11.00,-2.00,-8.00,-13.00,-15.00,-11.00,+0.00,-31.00,-32.00,-4.00,+3.00,-21.00,-16.00,-19.00,-37.00
+2.00,+32.00,+11.00,+16.00,+11.00,+5.00,+11.00,+5.00,-51.00,-10.00,-3.00,+3.00,-14.00,-4.00,-4.00,+0.00
-2.00,-58.00,-16.00,-22.00,-6.00,+12.00,-5.00,-5.00,+19.00,+14.00,-11.00,-7.00,-3.00,+8.00,+0.00,+8.00
-3.00,-57.00,-9.00,+1.00,-8.00,-15.00,-23.00,+3.00,+1.00,+10.00,+2.00,-6.00,-2.00,-21.00,-6.00,-3.00
+4.00,-36.00,+1.00,+18.00,+4.00,-10.00,+5.00,+1.00,+27.00,+7.00,+2.00,-8.00,-16.00,-1.00,-1.00,-4.00
-16.00,-6.00,+7.00,-15.00,+12.00,+3.00,-1.00,-4.00,-20.00,-29.00,+0.00,+2.00,-18.00,-19.00,-7.00,-16.00
+5.00,-79.00,-4.00,+3.00,-11.00,-1.00,+23.00,+4.00,+8.00,-29.00,-11.00,-4.00,-62.00,+10.00,+1.00,+3.00
+3.00,+18.00,+7.00,+11.00,+1.00,-56.00,-2.00,+3.00,-30.00,+36.00,+2.00,+6.00,+22.00,+14.00,+3.00,-2.00
-4.00,-28.00,-14.00,-29.00,-1.00,+31.00,-4.00,+10.00,+17.00,-7.00,+2.00,+1.00,+16.00,-11.00,-11.00,+1.00
+1.00,+4.00,-4.00,-2.00,-10.00,-5.00,-4.00,-3.00,-12.00,-5.00,-3.00,-9.00,+1.00,-1.00,+1.00,-35.00
-1.00,+37.00,+10.00,-5.00,+12.00,+28.00,-10.00,-3.00,-17.00,-8.00,-6.00,+9.00,+9.00,-6.00,-9.00,+14.00
-3.00,-7.00,-7.00,+0.00,-9.00,+8.00,-1.00,-6.00,+28.00,+17.00,+9.00,-6.00,+29.00,+22.00,+12.00,+57.00
+2.00,+11.00,+1.00,-3.00,+5.00,-18.00,+5.00,+0.00,-34.00,-6.00,-1.00,+2.00,+5.00,+8.00,-2.00,-25.00
+0.00,+7.00,+0.00,+1.00,+6.00,+31.00,+10.00,+2.00,+37.00,+11.00,+8.00,+1.00,+3.00,-23.00,+10.00,+42.00
-2.00,+69.00,+8.00,+0.00,-2.00,-4.00,-6.00,+0.00,-49.00,-35.00,-12.00,-7.00,-25.00,-13.00,-10.00,-52.00
+6.00,+7.00,+5.00,-13.00,+4.00,+1.00,+0.00,-5.00,-69.00,+16.00,-1.00,-5.00,+26.00,+5.00,-19.00,-61.00
-5.00,-37.00,-12.00,+4.00,-4.00,+0.00,-5.00,+1.00,+102.00,+74.00,+24.00,+19.00,-38.00,+6.00,+30.00,+84.00
+2.00,+116.00,+5.00,+5.00,-13.00,-5.00,+0.00,-4.00,-11.00,-20.00,-2.00,+0.00,+37.00,+9.00,-3.00,+4.00
-1.00,-16.00,-6.00,+6.00,+1.00,-43.00,-3.00,-5.00,+56.00,+12.00,-8.00,-6.00,+5.00,-14.00,-6.00,-11.00
-9.00,+8.00,+2.00,-11.00,+2.00,+6.00,+8.00,-3.00,-34.00,-4.00,-10.00,-10.00,-22.00,+10.00,-1.00,+4.00
-11.00,-42.00,-2.00,+3.00,+4.00,+8.00,-11.00,-21.00,-3.00,-34.00,+0.00,+0.00,+17.00,-5.00,-14.00,-54.00
+6.00,+59.00,+1.00,-10.00,-2.00,+1.00,+5.00,+9.00,-14.00,+0.00,-6.00,-5.00,-16.00,+5.00,+1.00,-1.00
-6.00,-27.00,-1.00,-29.00,-6.00,-25.00,-10.00,+4.00,-18.00,+16.00,+19.00,+5.00,-30.00,-3.00,+10.00,+30.00
+3.00,+43.00,+2.00,+15.00,+7.00,+73.00,+7.00,+10.00,+28.00,-7.00,-3.00,+0.00,+58.00,+8.00,-2.00,-20.00
-1.00,+28.00,+1.00,-3.00,-4.00,-16.00,-5.00,-7.00,-42.00,-15.00,-1.00,-1.00,-76.00,+2.00,+2.00,-7.00
-3.00,-74.00,-12.00,-1.00,-4.00,-4.00,+0.00,-3.00,+30.00,-4.00,-12.00,-1.00,+8.00,+2.00,+8.00,+37.00
+1.00,-57.00,-8.00,-15.00,-6.00,+7.00,-5.00,-2.00,-9.00,-52.00,-16.00,-16.00,+27.00,-10.00,-13.00,-22.00
+0.00,+72.00,+11.00,+2.00,+2.00,-7.00,-2.00,+2.00,+102.00,+74.00,+10.00,+4.00,-30.00,+0.00,+9.00,+29.00
+5.00,-17.00,+0.00,-5.00,+0.00,-16.00,+2.00,-1.00,-67.00,-32.00,-8.00,-3.00,+55.00,+1.00,-14.00,-33.00
-7.00,+20.00,+8.00,-8.00,+4.00,+1.00,+0.00,-2.00,+19.00,+32.00,+6.00,+5.00,-47.00,+1.00,+3.00,-7.00
+1.00,+9.00,-5.00,-8.00,-10.00,+2.00,-7.00,-3.00,-61.00,-41.00,-12.00,-6.00,-14.00,-9.00,-2.00,+31.00
-3.00,-21.00,-5.00,+23.00,+8.00,+19.00,+8.00,+4.00,+50.00,-19.00,+5.00,-4.00,+2.00,-8.00,+11.00,+51.00
-2.00,-11.00,-9.00,-18.00,-9.00,-6.00,-5.00,-1.00,+80.00,+98.00,+25.00,+23.00,+65.00,+24.00,+16.00,+32.00
-1.00,-11.00,+7.00,+15.00,+6.00,+17.00,+6.00,-2.00,-48.00,-14.00,+0.00,-3.00,-35.00,+4.00,-8.00,-33.00
+4.00,-61.00,+0.00,+6.00,+11.00,+16.00,+1.00,-11.00,+24.00,+38.00,-2.00,-1.00,+12.00,+2.00,-2.00,-19.00
-3.00,+59.00,+6.00,-28.00,-8.00,-35.00,-10.00,+2.00,-10.00,-25.00,-12.00,-7.00,-19.00,-8.00,-9.00,-22.00
-5.00,-33.00,-6.00,-5.00,-7.00,-4.00,-6.00,+2.00,-9.00,-26.00,-16.00,-16.00,-14.00,-12.00,-6.00,+2.00
+2.00,-16.00,-1.00,-7.00,+0.00,+12.00,+1.00,+8.00,-21.00,-12.00,+6.00,+6.00,+22.00,+1.00,+5.00,+1.00
+0.00,+54.00,+15.00,-1.00,+3.00,-26.00,+11.00,-7.00,+13.00,+12.00,-3.00,-1.00,+6.00,-8.00,-3.00,-1.00
+3.00,-30.00,-2.00,+14.00,+2.00,+33.00,+2.00,-1.00,-34.00,-26.00,-5.00,-6.00,+21.00,+12.00,-2.00,+2.00
+4.00,+16.00,+2.00,-6.00,+5.00,+4.00,+0.00,+2.00,+37.00,-12.00,-3.00,-14.00,-97.00,-3.00,-13.00,-9.00
+2.00,-31.00,-9.00,-4.00,-3.00,-23.00,-8.00,-14.00,-17.00,+51.00,+6.00,+17.00,+57.00,+3.00,-11.00,-19.00
+0.00,-34.00,-8.00,-6.00,-3.00,+14.00,-3.00,+5.00,+6.00,+6.00,+0.00,+7.00,-18.00,+0.00,-3.00,+5.00
-5.00,-30.00,-6.00,-13.00,-7.00,-32.00,-3.00,-9.00,-34.00,-10.00,+1.00,+6.00,+0.00,-7.00,+11.00,-9.00
-1.00,+9.00,+0.00,+5.00,+7.00,+10.00,-4.00,+0.00,+44.00,-18.00,-3.00,-11.00,+0.00,-18.00,-5.00,+1.00
-3.00,-26.00,-2.00,-8.00,-8.00,-2.00,-3.00,-1.00,+30.00,-38.00,-9.00,-11.00,-9.00,+0.00,+0.00,+13.00
-1.00,+14.00,+6.00,+13.00,+4.00,-3.00,-1.00,+2.00,+73.00,+73.00,+13.00,+5.00,-7.00,-3.00,+15.00,+17.00
+3.00,-28.00,+3.00,+13.00,+16.00,+1.00,-7.00,+2.00,+74.00,+23.00,+0.00,-2.00,+3.00,+3.00,-18.00,-16.00
+1.00,+60.00,+6.00,+3.00,+1.00,-1.00,+6.00,+0.00,-46.00,-8.00,+1.00,+5.00,+8.00,+1.00,+16.00,+13.00
-1.00,+9.00,-4.00,+10.00,-7.00,+28.00,-1.00,-5.00,-27.00,-26.00,+2.00,-3.00,-4.00,-3.00,+0.00,-5.00
-5.00,+18.00,-1.00,+0.00,-5.00,-12.00,-6.00,+2.00,-32.00,-7.00,-2.00,-4.00,+6.00,-5.00,-4.00,-9.00
-3.00,-19.00,-6.00,-9.00,-5.00,-8.00,-9.00,+10.00,-49.00,-6.00,-2.00,-2.00,-14.00,-6.00,-5.00,-12.00
-1.00,-58.00,-1.00,+12.00,+0.00,+0.00,-2.00,-9.00,-2.00,+1.00,-8.00,-3.00,+22.00,+0.00,-4.00,-13.00
+1.00,+40.00,+6.00,+7.00,+12.00,-9.00,+12.00,-1.00,-7.00,-2.00,+0.00,+0.00,+0.00,+7.00,+2.00,+1.00
+2.00,+35.00,-4.00,-2.00,-8.00,-23.00,-19.00,-4.00,+5.00,-31.00,-11.00,-8.00,-10.00,-9.00,-2.00,-7.00
-3.00,-19.00,+4.00,+0.00,+4.00,+30.00,+18.00,+3.00,-28.00,+36.00,+1.00,+4.00,-7.00,+10.00,-15.00,-27.00
+6.00,+12.00,+1.00,+1.00,-1.00,-8.00,+5.00,-8.00,+4.00,-1.00,-3.00,+3.00,+17.00,-5.00,+7.00,+4.00
-6.00,+30.00,+2.00,+10.00,-2.00,+5.00,+2.00,-5.00,+48.00,+41.00,+6.00,+0.00,+22.00,+15.00,+1.00,+2.00
-2.00,-37.00,-3.00,-5.00,+1.00,+3.00,+1.00,+4.00,-70.00,-57.00,+11.00,+4.00,+10.00,-22.00,-11.00,-10.00
+2.00,+3.00,+0.00,+0.00,-11.00,-12.00,+3.00,-6.00,+29.00,-41.00,-11.00,-10.00,-86.00,-40.00,-10.00,-7.00
-2.00,+8.00,-9.00,-5.00,-6.00,-3.00,-15.00,-6.00,-43.00,+40.00,-8.00,+9.00,+48.00,+54.00,+8.00,-10.00
+4.00,-72.00,-12.00,+4.00,-1.00,-16.00,+15.00,+6.00,-25.00,+16.00,-1.00,-12.00,-31.00,-57.00,-27.00,-4.00
-4.00,+60.00,+16.00,+1.00,+8.00,+15.00,+2.00,+6.00,+41.00,+18.00,+9.00,+17.00,+43.00,+73.00,+16.00,+43.00
-1.00,-64.00,-6.00,-8.00,-5.00,-16.00,-3.00,-12.00,-28.00,-6.00,+7.00,+4.00,+17.00,-8.00,-22.00,-14.00
+1.00,+12.00,+2.00,+0.00,-7.00,+3.00,+5.00,+8.00,+22.00,-15.00,-2.00,-7.00,-24.00,-30.00,-5.00,-1.00
-8.00,+17.00,-8.00,-7.00,-7.00,-20.00,-25.00,-15.00,-32.00,-19.00,-13.00,-11.00,+4.00,-25.00,+12.00,-22.00
+1.00,-65.00,-9.00,+31.00,+12.00,+46.00,+5.00,+2.00,-54.00,-1.00,-13.00,-18.00,-15.00,-23.00,-23.00,-35.00
+6.00,+20.00,+2.00,+2.00,-3.00,-5.00,-20.00,+6.00,+44.00,+0.00,+18.00,+23.00,+36.00,+32.00,+53.00,+56.00
-3.00,+59.00,+8.00,-9.00,+5.00,-4.00,+32.00,+14.00,+0.00,-25.00,-5.00,-2.00,-13.00,+41.00,+0.00,-10.00
+2.00,-27.00,+2.00,-3.00,+3.00,+10.00,+0.00,-4.00,-9.00,-11.00,+4.00,+4.00,+21.00,+10.00,+9.00,+8.00
-4.00,+17.00,+0.00,-13.00,-5.00,+5.00,+3.00,+4.00,+12.00,+22.00,-4.00,-6.00,-36.00,-40.00,-3.00,-8.00
+0.00,-32.00,-7.00,-4.00,-4.00,-25.00,-21.00,-19.00,+4.00,+0.00,-3.00,-7.00,-13.00,+2.00,-2.00,-10.00
-2.00,-82.00,-12.00,-11.00,-7.00,-2.00,-10.00,-1.00,+3.00,-15.00,-5.00,-5.00,+13.00,-31.00,-10.00,-10.00
+10.00,+82.00,+14.00,+11.00,+8.00,-6.00,+7.00,+12.00,+9.00,+36.00,-7.00,+0.00,-14.00,-4.00,-11.00,+3.00
-4.00,-64.00,-1.00,-5.00,+3.00,-1.00,+4.00,-9.00,+17.00,-18.00,-3.00,-1.00,+9.00,+21.00,-2.00,-1.00
+1.00,-30.00,+4.00,-1.00,-8.00,-15.00,+3.00,+4.00,-6.00,+1.00,+2.00,+3.00,+65.00,-1.00,+8.00,+4.00
-4.00,+12.00,-9.00,-19.00,-6.00,+5.00,-8.00,+10.00,-20.00,-16.00,+4.00,+3.00,-11.00,-4.00,+6.00,+24.00
+4.00,-31.00,-9.00,+10.00,+3.00,-4.00,+6.00,-4.00,-36.00,-13.00,-3.00,-6.00,-37.00,-10.00,-16.00,-66.00
-3.00,-9.00,-9.00,-10.00,-7.00,-9.00,-10.00,-5.00,+16.00,+14.00,+2.00,+1.00,+9.00,-4.00,+16.00,+65.00
-8.00,-3.00,-7.00,-9.00,+1.00,+0.00,+4.00,-5.00,+7.00,+16.00,+11.00,+11.00,+13.00,+21.00,+12.00,+40.00
+6.00,-45.00,+4.00,+14.00,-5.00,+4.00,+5.00,+1.00,+16.00,+10.00,+1.00,-3.00,+14.00,-15.00,-6.00,+0.00
-7.00,-21.00,-3.00,-9.00,-2.00,-29.00,-24.00,-4.00,-22.00,-32.00,+1.00,+1.00,+21.00,+17.00,+0.00,-1.00
+1.00,+90.00,+12.00,+3.00,-1.00,+15.00,+10.00,-5.00,+0.00,+6.00,+3.00,-7.00,-11.00,-22.00,-23.00,-34.00
-4.00,-7.00,-1.00,-1.00,-1.00,-5.00,+9.00,-8.00,-24.00,-29.00,-30.00,-12.00,-17.00,-17.00,-17.00,-32.00
+0.00,+3.00,-3.00,-12.00,-3.00,+4.00,-13.00,+0.00,-9.00,+1.00,-16.00,-10.00,-4.00,+7.00,+6.00,+14.00
+1.00,-111.00,-12.00,-2.00,-3.00,-13.00,-3.00,-2.00,+18.00,-31.00,-9.00,+2.00,+7.00,+22.00,+16.00,+4.00
+2.00,+91.00,+12.00,+1.00,+4.00,-1.00,+2.00,-1.00,+54.00,+21.00,+4.00,-2.00,+8.00,+2.00,+14.00,+22.00
-1.00,-40.00,-1.00,-1.00,-8.00,-10.00,+4.00,-1.00,+15.00,+59.00,-3.00,-17.00,-41.00,-22.00,-7.00,+47.00
-5.00,+1.00,-13.00,+12.00,+0.00,-12.00,-11.00,-11.00,-73.00,-83.00,+19.00,+28.00,+56.00,+2.00,+5.00,-19.00
-2.00,+24.00,+19.00,-18.00,-3.00,+9.00,+3.00,+15.00,+19.00,+23.00,+17.00,+14.00,-16.00,+85.00,+28.00,+43.00
-2.00,-35.00,-22.00,+1.00,-2.00,-1.00,+3.00,+4.00,-21.00,-6.00,-6.00,+4.00,+19.00,+8.00,-4.00,-37.00
+2.00,+25.00,+7.00,+8.00,+3.00,+10.00,-17.00,-21.00,-16.00,-11.00,-5.00,-7.00,-28.00,-4.00,-13.00,-31.00
-4.00,+33.00,+7.00,+9.00,+2.00,-5.00,+7.00,+1.00,+2.00,+2.00,-10.00,-15.00,-5.00,-18.00,-11.00,+0.00
-3.00,-23.00,-6.00,-9.00,+4.00,+15.00,+2.00,+2.00,-10.00,+10.00,+2.00,-3.00,+0.00,-26.00,-2.00,-1.00
+5.00,-118.00,-14.00,-25.00,-8.00,-15.00,-7.00,-2.00,-29.00,-4.00,-3.00,-1.00,-17.00,+5.00,-2.00,-3.00
-2.00,+66.00,+35.00,+29.00,+16.00,-5.00,+39.00,+19.00,+28.00,-32.00,-8.00,-6.00,+16.00,+11.00,+1.00,+12.00
-5.00,-45.00,+0.00,+5.00,+6.00,+8.00,-3.00,-24.00,-4.00,+25.00,+3.00,-3.00,-9.00,-13.00,-20.00,-46.00
-5.00,+3.00,-6.00,-8.00,-11.00,-32.00,-6.00,-6.00,+34.00,-9.00,+8.00,+10.00,+14.00,+3.00,+17.00,+44.00
-3.00,-36.00,-10.00,-5.00,-3.00,-9.00,-8.00,-4.00,-6.00,+12.00,+6.00,+0.00,-15.00,+9.00,+13.00,-5.00
+0.00,-11.00,-17.00,-15.00,-4.00,+72.00,-2.00,+13.00,-32.00,-15.00,-5.00,+3.00,+4.00,-15.00,+2.00,-10.00
+1.00,+24.00,+12.00,+4.00,+7.00,+5.00,+6.00,+6.00,-24.00,-18.00,-10.00,-9.00,-9.00,-6.00,-11.00,-10.00
-4.00,+32.00,-4.00,+0.00,-8.00,+6.00,-3.00,+4.00,+3.00,+5.00,-12.00,-9.00,-12.00,-12.00,-5.00,+12.00
+2.00,-11.00,+2.00,+10.00,-6.00,-35.00,-10.00,-5.00,-24.00,-45.00,-15.00,-13.00,+12.00,-3.00,-10.00,-39.00
-2.00,+14.00,+1.00,-8.00,+0.00,-19.00,-7.00,-1.00,+17.00,+23.00,+17.00,+8.00,-20.00,+5.00,-3.00,-7.00
-2.00,-3.00,+8.00,+2.00,+7.00,+13.00,+7.00,+0.00,+27.00,-3.00,+10.00,+3.00,+0.00,+10.00,-2.00,+22.00
-1.00,+17.00,+7.00,+8.00,+3.00,+12.00,+1.00,-7.00,-8.00,-2.00,-6.00,-3.00,+9.00,-8.00,-15.00,-21.00
+0.00,+15.00,-4.00,+1.00,-2.00,-1.00,-3.00,-6.00,+2.00,-20.00,+0.00,+3.00,-7.00,-6.00,+20.00,-11.00
-1.00,-13.00,-14.00,+6.00,-4.00,-6.00,+1.00,-3.00,-62.00,-21.00,-10.00,-5.00,+4.00,+15.00,+1.00,-29.00
+3.00,-38.00,-10.00,+15.00,-6.00,+1.00,-4.00,+0.00,+50.00,+30.00,+4.00,+0.00,-4.00,-1.00,+5.00,+24.00
+0.00,-4.00,-2.00,-3.00,-3.00,-14.00,-7.00,-4.00,+60.00,+2.00,+8.00,+9.00,+51.00,-6.00,+15.00,+38.00
+0.00,+72.00,+19.00,+15.00,+7.00,+22.00,+14.00,+11.00,+5.00,+31.00,+12.00,+8.00,-49.00,+2.00,-14.00,+6.00
-2.00,-10.00,-5.00,-10.00,-1.00,-8.00,-3.00,-1.00,+0.00,-8.00,-7.00,-5.00,-16.00,-12.00,-12.00,-32.00
+3.00,+27.00,-1.00,-8.00,-6.00,-17.00,-10.00,+8.00,+9.00,-7.00,-12.00,-13.00,-9.00,-5.00,+2.00,-7.00
-3.00,+46.00,+13.00,+11.00,+3.00,+11.00,+1.00,-10.00,+6.00,-11.00,-11.00,-21.00,+47.00,-21.00,-1.00,-25.00
+1.00,-13.00,-5.00,+1.00,+6.00,+14.00,+7.00,+2.00,+10.00,+5.00,-3.00,+8.00,-67.00,+17.00,+13.00,+25.00
+0.00,+7.00,-4.00,-7.00,-6.00,-14.00,-17.00,-2.00,-2.00,+8.00,+7.00,+7.00,+36.00,-4.00,-13.00,+5.00
+0.00,-16.00,+7.00,+1.00,+9.00,+3.00,+3.00,+1.00,+1.00,+8.00,+3.00,+3.00,-6.00,-12.00,-9.00,+2.00
+1.00,-19.00,-15.00,-1.00,+0.00,+0.00,+6.00,+5.00,-22.00,-11.00,-2.00,-4.00,+3.00,-1.00,-33.00,-15.00
-7.00,-9.00,+1.00,-11.00,-14.00,-5.00,-9.00,-1.00,+22.00,+11.00,-6.00,-2.00,+21.00,-1.00,+34.00,+11.00
+5.00,-2.00,-7.00,+10.00,-5.00,+4.00,-6.00,-12.00,-35.00,-36.00,+0.00,-2.00,-11.00,-1.00,+23.00,+5.00
-2.00,+6.00,+8.00,+4.00,-7.00,-26.00,-6.00,-12.00,+43.00,+61.00,+9.00,+6.00,+13.00,+1.00,+8.00,+53.00
-2.00,-1.00,-6.00,+5.00,+26.00,+49.00,+9.00,+3.00,-15.00,+10.00,+11.00,+1.00,-29.00,-5.00,-8.00,-7.00
-3.00,+7.00,+5.00,+8.00,-1.00,+6.00,+6.00,+8.00,-23.00,-37.00,-23.00,-15.00,+5.00,-20.00,-25.00,-11.00
-4.00,-18.00,-6.00,+5.00,-5.00,-2.00,+9.00,+9.00,+42.00,+13.00,-8.00,-3.00,-9.00,-7.00,-23.00,-17.00
-2.00,+9.00,-7.00,-2.00,-5.00,-5.00,-16.00,-23.00,+3.00,+0.00,+8.00,+6.00,+13.00,+3.00,+20.00,-8.00
+3.00,-35.00,-1.00,+8.00,-2.00,-8.00,-3.00,-16.00,+21.00,+3.00,+15.00,+3.00,-24.00,-3.00,-4.00,+5.00
+1.00,+22.00,+3.00,+22.00,+5.00,-6.00,+3.00,-12.00,+49.00,+4.00,-10.00,-7.00,+6.00,-1.00,-16.00,+1.00
+1.00,-3.00,+4.00,+1.00,+2.00,+1.00,+2.00,+5.00,-52.00,-17.00,-15.00,-7.00,+7.00,-4.00,-14.00,-44.00
+2.00,+6.00,-2.00,+8.00,+3.00,+3.00,+3.00,+9.00,+71.00,+27.00,+2.00,-2.00,-6.00,+14.00,+30.00,+32.00
-4.00,-40.00,-12.00,+8.00,-19.00,-23.00,-10.00,+3.00,-50.00,-6.00,-4.00,+0.00,+26.00,+4.00,+9.00,+2.00
-1.00,+22.00,-2.00,+9.00,+1.00,+7.00,+0.00,+5.00,-25.00,+4.00,+12.00,+4.00,-30.00,-3.00,-10.00,-3.00
+4.00,-14.00,-35.00,-4.00,+5.00,-10.00,-1.00,+8.00,-67.00,-20.00,-8.00,-7.00,-10.00,-30.00,-20.00,-55.00
-1.00,+25.00,+49.00,-4.00,+7.00,+13.00,+11.00,+10.00,-51.00,+3.00,+0.00,-3.00,+17.00,+19.00,+0.00,-4.00
+3.00,-16.00,+3.00,+14.00,-11.00,-12.00,-3.00,+0.00,+10.00,+8.00,+3.00,+7.00,-20.00,+1.00,+0.00,+17.00
+1.00,-7.00,+4.00,+3.00,-4.00,+6.00,-10.00,-10.00,+2.00,+0.00,+4.00,+2.00,+10.00,-17.00,-11.00,+3.00
-1.00,-1.00,-13.00,+10.00,-1.00,-1.00,+0.00,-15.00,+9.00,+3.00,+2.00,+5.00,-15.00,-2.00,+9.00,+73.00
-1.00,-6.00,-18.00,-14.00,-8.00,-20.00,-5.00,-7.00,-41.00,-11.00,-2.00,+3.00,+2.00,+22.00,-6.00,-40.00
+3.00,+11.00,+5.00,+2.00,+8.00,+52.00,+9.00,+13.00,-2.00,-15.00,-12.00,-7.00,+7.00,-5.00,-2.00,-24.00
+1.00,-5.00,-1.00,-15.00,-2.00,-5.00,-1.00,+4.00,+0.00,+8.00,-1.00,+3.00,+23.00,+9.00,+2.00,+10.00
-1.00,-48.00,+3.00,-15.00,-9.00,-25.00,-8.00,-9.00,+32.00,+13.00,+7.00,-2.00,-8.00,+3.00,+5.00,+13.00
+2.00,+0.00,-4.00,+6.00,+12.00,+62.00,+20.00,+2.00,-20.00,-23.00,-8.00,-8.00,-3.00,-12.00,-3.00,-34.00
-4.00,+15.00,+14.00,-11.00,+0.00,-18.00,-11.00,-3.00,-15.00,-22.00,-14.00,-5.00,-19.00,-4.00,-10.00,-37.00
-11.00,-20.00,-12.00,+16.00,-2.00,-8.00,-3.00,-65.00,+50.00,+27.00,+13.00,+5.00,+14.00,+5.00,+4.00,+14.00
-5.00,+19.00,+9.00,-8.00,+1.00,+6.00,-6.00,-24.00,+9.00,+5.00,+4.00,+0.00,+7.00,+7.00,+5.00,+7.00
-5.00,-15.00,-4.00,+0.00,-8.00,-19.00,-9.00,-5.00,+22.00,-3.00,-2.00,+0.00,-4.00,-6.00,-1.00,+25.00
+0.00,+3.00,-9.00,-7.00,-4.00,-7.00,-5.00,-20.00,-23.00,-13.00,-4.00,-4.00,-19.00,-10.00,-10.00,-28.00
+3.00,-7.00,+3.00,+1.00,+3.00,+2.00,+5.00,+13.00,-33.00,-8.00,-16.00,-7.00,+8.00,-21.00,-9.00,-36.00
+0.00,+5.00,+1.00,-12.00,-3.00,-12.00,-5.00,+5.00,+15.00,+7.00,+0.00,-4.00,+23.00,+38.00,+14.00,+11.00
-1.00,-17.00,-1.00,+14.00,+8.00,+8.00,+6.00,-13.00,-10.00,-10.00,-6.00,-6.00,-33.00,-16.00,-25.00,-21.00
-3.00,+40.00,+5.00,-5.00,+4.00,-3.00,+9.00,+11.00,-10.00,+5.00,+9.00,+4.00,-14.00,-5.00,-1.00,+2.00
-2.00,-29.00,-15.00,-15.00,-12.00,-13.00,-11.00,+15.00,-9.00,+0.00,+9.00,+2.00,+8.00,+4.00,-16.00,-9.00
+3.00,+20.00,+4.00,+4.00,-4.00,-4.00,+3.00,+5.00,+19.00,+0.00,+2.00,+3.00,+3.00,+3.00,+11.00,+19.00
-2.00,-9.00,-16.00,-16.00,-3.00,-5.00,-3.00,+10.00,-11.00,-12.00,-7.00,-2.00,+6.00,+1.00,+13.00,+1.00
+1.00,-3.00,-4.00,-13.00,-2.00,+1.00,-1.00,+2.00,-8.00,+5.00,+3.00,+1.00,+13.00,+8.00,+16.00,+39.00
+3.00,-11.00,+8.00,+12.00,+6.00,-14.00,-11.00,+6.00,-7.00,+2.00,+4.00,+2.00,-8.00,-1.00,+1.00,+6.00
+3.00,+9.00,+5.00,+5.00,+10.00,+17.00,+14.00,+3.00,+25.00,+17.00,+16.00,+3.00,-2.00,-8.00,-17.00,-22.00
-7.00,+12.00,-7.00,-26.00,-2.00,+19.00,+2.00,+7.00,-40.00,-23.00,-12.00,-9.00,+3.00,-10.00,-16.00,-13.00
+2.00,-13.00,+2.00,-3.00,-2.00,-4.00,+1.00,+5.00,+52.00,+5.00,-15.00,-2.00,-29.00,-1.00,+5.00,-8.00
-3.00,+0.00,+0.00,-6.00,-2.00,+2.00,-1.00,-8.00,-6.00,-4.00,-7.00,-13.00,-19.00,-14.00,+1.00,-6.00
-3.00,-3.00,+1.00,-8.00,-4.00,-15.00,-9.00,-2.00,-8.00,+2.00,+7.00,+10.00,+22.00,+12.00,-3.00,+7.00
-1.00,+5.00,-1.00,-2.00,-3.00,-17.00,-5.00,-4.00,-13.00,-4.00,+3.00,+5.00,+7.00,-23.00,-9.00,-18.00
+2.00,+5.00,+7.00,+5.00,+12.00,+26.00,+12.00,+17.00,-11.00,+1.00,+2.00,+0.00,+18.00,+15.00,-7.00,+19.00
+0.00,-6.00,-13.00,-13.00,-9.00,-4.00,-8.00,+9.00,+35.00,+8.00,+1.00,-4.00,+17.00,+26.00,+24.00,+30.00
-6.00,-10.00,-5.00,+6.00,-14.00,-13.00,-15.00,+0.00,+14.00,+3.00,+2.00,+6.00,-13.00,+35.00,+3.00,-9.00
-2.00,-9.00,-3.00,+8.00,+1.00,-17.00,-4.00,-8.00,+9.00,+2.00,-2.00,-6.00,-22.00,-30.00,+1.00,+20.00
+0.00,+5.00,+4.00,-10.00,-5.00,-2.00,-2.00,-4.00,-20.00,-17.00,-7.00,-8.00,+8.00,+20.00,-5.00,-14.00
-1.00,+3.00,+2.00,-3.00,+5.00,+0.00,-3.00,-30.00,+17.00,-2.00,-1.00,+0.00,+1.00,+2.00,-3.00,-65.00
-2.00,+4.00,+5.00,-12.00,-3.00,-5.00,-9.00,+8.00,+29.00,+12.00,+3.00,-1.00,+13.00,-20.00,-2.00,+12.00
+4.00,+17.00,+2.00,+11.00,+1.00,+14.00,-5.00,+23.00,-12.00,-5.00,-6.00,-3.00,-16.00,-10.00,+17.00,-10.00
-1.00,-25.00,-11.00,-18.00,-8.00,-34.00,+5.00,-26.00,+2.00,-4.00,-2.00,-4.00,-9.00,+8.00,-11.00,-16.00
-4.00,-2.00,+4.00,+0.00,+7.00,+39.00,+8.00,+13.00,-66.00,-2.00,-2.00,-3.00,+7.00,-2.00,+1.00,+15.00
+4.00,+18.00,+6.00,+1.00,+7.00,+29.00,+27.00,+9.00,+27.00,-7.00,-8.00,-7.00,-6.00,-14.00,-13.00,+1.00
+0.00,+5.00,+1.00,+4.00,-3.00,-8.00,-14.00,+3.00,-4.00,-4.00,+3.00,+2.00,-12.00,+3.00,+6.00,-8.00
-5.00,-8.00,-1.00,-6.00,+0.00,-7.00,-14.00,+6.00,+8.00,+20.00,+8.00,+0.00,+16.00,-33.00,+7.00,+22.00
+1.00,-4.00,+1.00,+11.00,+6.00,+1.00,+18.00,+24.00,-20.00,-6.00,-15.00,-4.00,-15.00,+36.00,-2.00,-3.00
-2.00,-8.00,-10.00,-3.00,-19.00,-58.00,-48.00,-13.00,-24.00,-6.00,-6.00,-2.00,+19.00,-8.00,-3.00,-23.00
+3.00,+4.00,-4.00,-1.00,+1.00,+12.00,+22.00,+0.00,+0.00,+8.00,+1.00,+0.00,-3.00,+5.00,-11.00,+10.00
-6.00,-33.00,-6.00,-1.00,-1.00,+9.00,-5.00,-2.00,+2.00,-3.00,+8.00,+7.00,-5.00,+4.00,+1.00,+19.00
+5.00,+38.00,+9.00,+5.00,+6.00,-6.00,+7.00,+3.00,-5.00,-4.00,+2.00,+0.00,-17.00,-7.00,+14.00,-5.00
-3.00,+2.00,+7.00,-4.00,+2.00,+5.00,-7.00,-8.00,-6.00,+8.00,+4.00,+0.00,-10.00,-4.00,+15.00,+11.00
-3.00,-28.00,-4.00,-13.00,-4.00,-8.00,-1.00,-7.00,+17.00,+2.00,-1.00,+0.00,-1.00,-5.00,-14.00,+2.00
+4.00,+6.00,-9.00,+14.00,-6.00,-14.00,-2.00,+3.00,-5.00,-4.00,-5.00,-4.00,-3.00,+16.00,-7.00,-5.00
+2.00,+48.00,+2.00,-9.00,-4.00,-8.00,-13.00,+0.00,+5.00,-5.00,-6.00,-2.00,+11.00,-11.00,-18.00,-28.00
+1.00,-1.00,+4.00,-2.00,+6.00,+4.00,+6.00,+5.00,+11.00,-6.00,-4.00,-6.00,-13.00,-8.00,+22.00,+58.00
-3.00,+19.00,+2.00,-15.00,-7.00,-19.00,-7.00,+2.00,+8.00,+4.00,+4.00,+4.00,+14.00,-4.00,-13.00,+0.00
+4.00,-30.00,+0.00,+13.00,+9.00,+38.00,+11.00,-6.00,-8.00,-4.00,+0.00,-1.00,-18.00,+12.00,-7.00,-33.00
+1.00,-34.00,-12.00,-8.00,-1.00,+2.00,-1.00,+1.00,+23.00,+10.00,+10.00,+8.00,+16.00,-8.00,+22.00,+36.00
+1.00,+11.00,-1.00,-1.00,+5.00,+9.00,+12.00,+2.00,-3.00,-7.00,-3.00,-5.00,-20.00,+27.00,+0.00,-2.00
+2.00,-13.00,-4.00,-3.00,-5.00,+1.00,+7.00,-4.00,-6.00,-2.00,-5.00,-6.00,+6.00,-14.00,-12.00,+8.00
-2.00,+17.00,+3.00,+1.00,-2.00,-12.00,-9.00,-10.00,+23.00,-2.00,-3.00,-4.00,-6.00,-9.00,+2.00,-28.00
-6.00,-11.00,+2.00,-10.00,-2.00,-10.00,-4.00,-14.00,-39.00,-15.00,-6.00,+2.00,+1.00,-5.00,-17.00,+33.00
-3.00,+9.00,+0.00,-4.00,+1.00,+15.00,+6.00,-44.00,+25.00,+20.00,+15.00,+3.00,-2.00,-8.00,-14.00,-6.00
+0.00,+0.00,-1.00,-4.00,+0.00,-10.00,-14.00,-14.00,+60.00,+20.00,-17.00,-4.00,+20.00,+16.00,+13.00,+6.00
-1.00,+13.00,-1.00,-16.00,-11.00,-16.00,-8.00,-9.00,+24.00,-12.00,+0.00,-2.00,-13.00,-8.00,+3.00,+15.00
-3.00,-3.00,-4.00,+3.00,-2.00,-1.00,+6.00,-12.00,-42.00,+17.00,+5.00,+1.00,+0.00,+2.00,-6.00,-15.00
+5.00,-19.00,-6.00,+0.00,+1.00,+8.00,-1.00,-2.00,-10.00,-18.00,-3.00,-4.00,+1.00,-16.00,-9.00,-6.00
+0.00,+2.00,-8.00,-13.00,-4.00,-14.00,-6.00,+3.00,-10.00,-5.00,+3.00,+0.00,+5.00,+18.00,-1.00,-7.00
-3.00,+22.00,+4.00,-1.00,+7.00,+15.00,+8.00,+5.00,-23.00,+8.00,+2.00,+3.00,+1.00,-9.00,+11.00,+16.00
+1.00,-18.00,+1.00,-6.00,-4.00,+6.00,-3.00,+8.00,+11.00,-9.00,-9.00,-9.00,+0.00,-6.00,-12.00,-12.00
+1.00,-36.00,+1.00,+17.00,-4.00,-35.00,-7.00,+16.00,-8.00,-3.00,-7.00,-1.00,+1.00,-7.00,-3.00,-21.00
+0.00,+36.00,+4.00,+8.00,-2.00,+5.00,+0.00,-1.00,+25.00,+4.00,+2.00,+0.00,-3.00,+5.00,-8.00,+26.00
+1.00,-8.00,-2.00,+10.00,+1.00,-4.00,+3.00,+3.00,+11.00,-4.00,-7.00,-5.00,-5.00,-13.00,-7.00,-2.00
+2.00,+0.00,+0.00,+5.00,-3.00,-10.00,-4.00,+9.00,+8.00,-1.00,+7.00,+3.00,+3.00,+6.00,+24.00,+0.00
+0.00,+1.00,+5.00,+0.00,+5.00,+6.00,+5.00,+10.00,-16.00,-2.00,-1.00,+0.00,-1.00,+5.00,+18.00,-19.00
+2.00,+6.00,+2.00,-2.00,+2.00,+10.00,+6.00,+7.00,-7.00,-6.00,-1.00,-2.00,-7.00,-33.00,-12.00,-9.00
+2.00,-4.00,-4.00,+13.00,-4.00,-10.00,-3.00,-6.00,-29.00,+4.00,+2.00,+4.00,+7.00,+47.00,-4.00,+10.00
+2.00,-13.00,-7.00,+11.00,-3.00,-2.00,-7.00,+2.00,-66.00,-1.00,+1.00,+4.00,+2.00,+5.00,-6.00,+8.00
+1.00,+10.00,-1.00,+9.00,+0.00,+13.00,+5.00,+6.00,-60.00,-2.00,-2.00,-3.00,-1.00,-4.00,-5.00,-15.00
-4.00,-15.00,+1.00,+2.00,+4.00,-9.00,-1.00,+21.00,+6.00,-3.00,-3.00,-3.00,-2.00,+0.00,-1.00,-7.00
+1.00,+7.00,-1.00,-7.00,+0.00,+0.00,-6.00,-13.00,+21.00,-6.00,+3.00,-2.00,-3.00,-21.00,-1.00,+4.00
+0.00,-6.00,+3.00,+3.00,-2.00,+1.00,-1.00,-3.00,+66.00,+10.00,+5.00,-4.00,-3.00,-2.00,-10.00,+8.00
+0.00,+16.00,+3.00,+4.00,+2.00,+11.00,+17.00,+5.00,-54.00,-4.00,-20.00,-5.00,+19.00,+7.00,+15.00,-2.00
+1.00,-4.00,-3.00,-4.00,-3.00,+0.00,+0.00,-12.00,+7.00,+5.00,+9.00,+3.00,+8.00,+10.00,+2.00,+4.00
-1.00,-8.00,-6.00,-4.00,-3.00,-5.00,-1.00,+2.00,-19.00,-2.00,-1.00,+0.00,-34.00,-4.00,+3.00,+3.00
+1.00,+1.00,+1.00,+0.00,-2.00,-2.00,-4.00,+0.00,-32.00,-8.00,-2.00,-3.00,+3.00,+6.00,+0.00,+1.00
-2.00,+2.00,+1.00,+5.00,-2.00,+2.00,+5.00,-1.00,-84.00,-3.00,+4.00,+0.00,-18.00,-18.00,-4.00,-6.00
-3.00,-3.00,-2.00,-8.00,+3.00,-3.00,-6.00,-13.00,-39.00,+0.00,+1.00,+0.00,+10.00,+14.00,-6.00,-5.00
+1.00,+0.00,-8.00,+8.00,-8.00,-11.00,-2.00,+2.00,+62.00,-3.00,-2.00,+3.00,+14.00,-7.00,+11.00,-1.00
-2.00,-10.00,-4.00,-8.00,+2.00,+20.00,+8.00,-7.00,+127.00,+3.00,-6.00,-1.00,-5.00,-8.00,-3.00,+15.00
+2.00,+8.00,+2.00,+8.00,+3.00,+21.00,-3.00,+6.00,+118.00,-4.00,-3.00,-1.00,-2.00,-1.00,-9.00,-6.00
+2.00,-5.00,+2.00,+5.00,+4.00,+4.00,-2.00,-5.00,+35.00,-10.00,-4.00,-4.00,-4.00,+5.00,-4.00,-23.00
-3.00,+4.00,+1.00,-5.00,-1.00,-5.00,-5.00,-4.00,+82.00,+6.00,+0.00,-3.00,+1.00,-2.00,+2.00,+7.00
-1.00,+1.00,-2.00,-5.00,+1.00,-1.00,-3.00,+5.00,-78.00,+1.00,+0.00,-1.00,+0.00,-1.00,+2.00,+0.00
-1.00,-8.00,-9.00,-2.00,-3.00,-11.00,+3.00,+1.00,-94.00,+3.00,-3.00,+0.00,+2.00,+0.00,+3.00,+2.00
-1.00,+3.00,+14.00,-7.00,-2.00,+0.00,-3.00,-5.00,-128.00,-2.00,+1.00,-3.00,-11.00,+5.00,-1.00,-5.00
-2.00,+0.00,+0.00,-10.00,+1.00,+2.00,-5.00,-3.00,-93.00,-3.00,-5.00,+6.00,+5.00,-15.00,+2.00,+3.00
-3.00,-6.00,-2.00,+6.00,-4.00,-9.00,+3.00,+6.00,-13.00,-1.00,-4.00,-2.00,+4.00,-1.00,+2.00,+27.00
-4.00,-3.00,-1.00,-6.00,-2.00,-5.00,-3.00,-1.00,-22.00,-1.00,+2.00,+1.00,-6.00,-1.00,-5.00,-19.00
+0.00,-5.00,-8.00,-2.00,+0.00,+0.00,+0.00,-17.00,+113.00,+0.00,-2.00,-1.00,-3.00,+6.00,+2.00,+4.00
+1.00,-1.00,+2.00,+0.00,-1.00,+0.00,+3.00,+5.00,+45.00,+4.00,+3.00,-4.00,+2.00,-4.00,+2.00,-13.00
-3.00,+7.00,+4.00,-17.00,-2.00,-14.00,-4.00,+0.00,+127.00,-5.00,+5.00,+0.00,+2.00,-5.00,-5.00,+2.00
+0.00,+29.00,-6.00,-7.00,-2.00,-3.00,-7.00,+2.00,+127.00,+2.00,-3.00,+0.00,-8.00,-5.00,-8.00,+15.00
-4.00,+5.00,-4.00,-1.00,-5.00,+3.00,-2.00,-7.00,+34.00,-2.00,+0.00,+1.00,-5.00,+0.00,-3.00,-10.00
-9.00,-6.00,+4.00,+0.00,-4.00,+3.00,-7.00,-43.00,+29.00,+0.00,+0.00,-2.00,+5.00,-5.00,-3.00,+7.00
+1.00,-21.00,+2.00,+11.00,+4.00,-4.00,+2.00,-2.00,-15.00,-4.00,-3.00,-4.00,-5.00,-2.00,-1.00,-20.00
-2.00,-15.00,+2.00,-2.00,+3.00,+3.00,+3.00,-1.00,+6.00,-5.00,-8.00,-6.00,-3.00,-3.00,+1.00,+0.00
+0.00,-4.00,-4.00,-7.00,-5.00,-5.00,-2.00,-14.00,+14.00,+1.00,-2.00,+0.00,-2.00,+0.00,+5.00,-4.00
+0.00,-5.00,-1.00,-6.00,+3.00,+3.00,+3.00,+13.00,-53.00,+1.00,-2.00,-4.00,+0.00,-1.00,-1.00,+3.00
-1.00,-10.00,-1.00,+6.00,+2.00,+7.00,+3.00,+5.00,+78.00,+0.00,+1.00,+5.00,-1.00,+1.00,-7.00,-13.00
-1.00,+2.00,+3.00,-7.00,-5.00,-9.00,-7.00,+0.00,+127.00,-3.00,+0.00,+1.00,-1.00,+0.00,+1.00,-1.00
-1.00,-5.00,-7.00,+3.00,-5.00,-1.00,+3.00,+11.00,+63.00,-4.00,-6.00,-2.00,-9.00,-6.00,-5.00,+30.00
+3.00,-8.00,-9.00,+5.00,-2.00,-6.00,-4.00,+8.00,+67.00,-1.00,-2.00,-4.00,+4.00,+7.00,+7.00,+12.00
+1.00,+3.00,-3.00,+3.00,-3.00,-1.00,-2.00,+0.00,-86.00,-2.00,-2.00,-1.00,-1.00,-4.00,-14.00,-11.00
+0.00,-2.00,+5.00,-8.00,+6.00,+5.00,+6.00,+7.00,-101.00,+0.00,+1.00,-1.00,+4.00,+6.00,+19.00,+10.00
+0.00,-5.00,+5.00,+1.00,-1.00,+2.00,+1.00,+7.00,-128.00,-1.00,+2.00,+1.00,-4.00,+1.00,+8.00,-13.00
+3.00,+2.00,-4.00,-2.00,-3.00,-1.00,-1.00,+15.00,-128.00,-1.00,+0.00,+2.00,-2.00,-4.00,-4.00,+6.00
-4.00,+0.00,-4.00,+0.00,-6.00,-4.00,-3.00,-2.00,-116.00,+3.00,-5.00,-3.00,-2.00,+0.00,-4.00,-17.00
-2.00,-6.00,+1.00,+2.00,+1.00,-1.00,-1.00,+0.00,-117.00,+1.00,+1.00,-1.00,-2.00,-2.00,-8.00,-1.00
-4.00,-2.00,-1.00,-4.00,+3.00,+1.00,-3.00,+5.00,-116.00,+0.00,-1.00,-4.00,-3.00,-2.00,-4.00,-8.00
+2.00,+7.00,+2.00,-4.00,+2.00,+0.00,+1.00,+5.00,-70.00,+0.00,-2.00,+0.00,+0.00,-3.00,-2.00,-3.00
-1.00,+7.00,+4.00,-2.00,+0.00,+1.00,+2.00,-3.00,-40.00,-5.00,-2.00,+1.00,+2.00,+3.00,+8.00,-6.00
-1.00,-5.00,-2.00,-6.00,-1.00,-1.00,-1.00,-6.00,-23.00,-5.00,+0.00,-5.00,-6.00,-6.00,-8.00,-11.00
-1.00,+0.00,-4.00,+2.00,-5.00,-12.00,-5.00,-4.00,-11.00,-6.00,-6.00,-1.00,+1.00,+1.00,+5.00,+15.00
-6.00,-2.00,+3.00,-2.00,-2.00,-5.00,-3.00,+5.00,-6.00,-1.00,+0.00,+0.00,+1.00,-3.00,-13.00,-16.00
-2.00,+0.00,-4.00,+1.00,-1.00,+1.00,+4.00,-2.00,+29.00,+0.00,+4.00,+3.00,-1.00,-4.00,-3.00,+1.00
+2.00,+1.00,+2.00,-12.00,+1.00,-3.00,-1.00,-3.00,+3.00,-5.00,-5.00,+0.00,-3.00,+1.00,+11.00,-7.00
-2.00,+5.00,+5.00,+0.00,+4.00,+11.00,+7.00,-1.00,-8.00,+2.00,+2.00,+1.00,+2.00,+2.00,-2.00,-3.00
-2.00,+2.00,-4.00,+2.00,-2.00,-6.00,-2.00,-9.00,-23.00,-6.00,-4.00,-4.00,-4.00,-3.00,+2.00,-13.00
+0.00,-6.00,-9.00,+1.00,-6.00,-11.00,-10.00,-6.00,-11.00,-1.00,+2.00,-3.00,-3.00,-4.00,-3.00,+3.00
-3.00,-3.00,-3.00,-6.00,-6.00,-13.00,-10.00,-5.00,+6.00,+0.00,-2.00,-4.00,-1.00,-1.00,-10.00,-8.00
-3.00,-2.00,-1.00,+1.00,+0.00,+0.00,-1.00,+0.00,+14.00,-3.00,+1.00,-2.00,+1.00,+2.00,+2.00,+11.00
+3.00,+6.00,+7.00,-3.00,+6.00,+8.00,+9.00,+4.00,+2.00,-4.00,-4.00,-3.00,-2.00,-4.00,-5.00,-4.00
+0.00,-5.00,+1.00,-3.00,+4.00,+6.00,+1.00,-6.00,+5.00,+10.00,-1.00,+0.00,-2.00,-2.00,+2.00,-5.00
+2.00,-1.00,-1.00,+3.00,-3.00,+0.00,+1.00,-2.00,+18.00,-1.00,+2.00,-1.00,+1.00,-1.00,-4.00,+2.00
-2.00,-6.00,-3.00,-12.00,+0.00,+1.00,+1.00,-6.00,+4.00,-2.00,-4.00,-2.00,-3.00,-2.00,+2.00,-7.00
-2.00,+0.00,-2.00,-2.00,-6.00,-3.00,-12.00,-6.00,+6.00,+0.00,+2.00,-1.00,+2.00,-3.00,-6.00,+7.00
-1.00,+3.00,+3.00,+0.00,+2.00,-1.00,-2.00,-6.00,+3.00,-5.00,-1.00,+0.00,+1.00,-1.00,-1.00,+2.00
-4.00,+4.00,-1.00,+0.00,+2.00,+11.00,+6.00,+0.00,+14.00,+1.00,+0.00,+3.00,+0.00,-1.00,-3.00,+1.00
+3.00,-1.00,-4.00,+0.00,-5.00,-10.00,-6.00,-5.00,+7.00,-2.00,+0.00,-1.00,-1.00,+2.00,+10.00,-4.00
+2.00,-2.00,-1.00,-2.00,+1.00,+2.00,+0.00,+0.00,+6.00,-5.00,-1.00,-2.00,-4.00,-2.00,-3.00,-6.00
+2.00,+2.00,+0.00,-1.00,-4.00,-4.00,-3.00,+0.00,+12.00,+1.00,-9.00,-3.00,-2.00,-1.00,-1.00,+0.00
-1.00,-7.00,-3.00,-2.00,-3.00,-4.00,-3.00,-4.00,+13.00,+7.00,+4.00,+2.00,-1.00,-2.00,+2.00,+7.00
+1.00,+1.00,-1.00,+7.00,+0.00,+5.00,+0.00,-1.00,+12.00,+4.00,+1.00,-4.00,-2.00,-3.00,-7.00,-10.00
+0.00,-3.00,-5.00,-1.00,+3.00,+1.00,+7.00,+2.00,+8.00,-1.00,-1.00,+1.00,-3.00,-4.00,+19.00,+2.00
+1.00,+6.00,+8.00,+6.00,+1.00,+3.00,+2.00,-1.00,-5.00,-5.00,-3.00,-2.00,+8.00,+20.00,-11.00,-7.00
+0.00,+2.00,-3.00,+3.00,-1.00,+1.00,-1.00,-3.00,-1.00,-2.00,-2.00,-3.00,-3.00,-3.00,-15.00,-5.00
+1.00,-7.00,-2.00,-5.00,-4.00,-4.00,-5.00,-2.00,+7.00,-2.00,-1.00,+1.00,-2.00,-16.00,+31.00,+22.00
-4.00,-1.00,+0.00,+7.00,-6.00,-3.00,-4.00,+1.00,+0.00,+2.00,-2.00,-1.00,+13.00,+33.00,-8.00,+7.00
-1.00,-3.00,-2.00,+6.00,-4.00,-5.00,-3.00,+0.00,+0.00,-4.00,+1.00,-1.00,-3.00,-4.00,+8.00,+7.00
+1.00,-3.00,-4.00,+9.00,+1.00,+1.00,+0.00,+1.00,+5.00,+0.00,-2.00,+2.00,+1.00,-1.00,-5.00,-3.00
+2.00,+0.00,+1.00,+4.00,-1.00,+5.00,+5.00,+3.00,+1.00,+0.00,-5.00,-1.00,-2.00,+1.00,-11.00,-16.00
+2.00,-2.00,+0.00,+5.00,+3.00,+2.00,-1.00,+3.00,+4.00,+3.00,+1.00,-4.00,-10.00,-14.00,-12.00,-9.00
+4.00,-2.00,-1.00,+6.00,-5.00,-3.00,+3.00,+6.00,-1.00,+1.00,+2.00,-1.00,-3.00,-6.00,+1.00,-5.00
+1.00,+0.00,+0.00,+6.00,-2.00,+1.00,-12.00,-9.00,+4.00,-4.00,-1.00,-1.00,+1.00,+1.00,+1.00,+3.00
+1.00,-1.00,-3.00,+4.00,+4.00,-1.00,+4.00,+2.00,+1.00,-2.00,+0.00,-1.00,-3.00,-2.00,-8.00,-11.00
