+0.00,-3.00,+2.00,+9.00,+3.00,+3.00,+2.00,+0.00,+0.00,-1.00,+0.00,-2.00,+0.00,-6.00,-1.00,+0.00
+1.00,-6.00,-6.00,+0.00,-3.00,+0.00,+0.00,+1.00,+0.00,-1.00,-2.00,-2.00,+4.00,+1.00,+0.00,+0.00
-1.00,+13.00,+9.00,+0.00,+1.00,-5.00,-1.00,+0.00,+1.00,-1.00,+8.00,+3.00,+0.00,+0.00,-2.00,+0.00
-1.00,-12.00,-8.00,+6.00,+0.00,+2.00,+0.00,+0.00,+5.00,+1.00,-4.00,-3.00,+0.00,+3.00,-1.00,-1.00
+3.00,+7.00,-2.00,+9.00,-3.00,-1.00,-1.00,-3.00,-2.00,+0.00,-2.00,-3.00,-1.00,-4.00,+0.00,-1.00
+1.00,+0.00,-4.00,+5.00,-3.00,-3.00,+0.00,-1.00,+1.00,-3.00,+0.00,+2.00,-1.00,+1.00,+1.00,-2.00
+2.00,-4.00,+2.00,+0.00,+2.00,-1.00,+0.00,-1.00,+4.00,+4.00,+3.00,-1.00,+0.00,-2.00,+0.00,+3.00
-3.00,+2.00,+3.00,+1.00,+1.00,+2.00,+0.00,+1.00,-3.00,-7.00,-6.00,-3.00,-7.00,-1.00,-2.00,-3.00
-1.00,-5.00,+1.00,-1.00,+0.00,+2.00,-1.00,+1.00,-3.00,-2.00,+0.00,-1.00,+0.00,-1.00,-2.00,-2.00
+0.00,-8.00,-7.00,-5.00,-2.00,-7.00,+0.00,-1.00,+1.00,+5.00,-4.00,-2.00,+0.00,-3.00,-1.00,-1.00
+4.00,+3.00,-5.00,+3.00,+1.00,+14.00,-1.00,+0.00,-6.00,-7.00,+13.00,+3.00,-13.00,-4.00,+0.00,-3.00
-1.00,+4.00,+4.00,-2.00,+4.00,+10.00,+1.00,-2.00,-3.00,+3.00,+2.00,+7.00,+28.00,+6.00,+0.00,+1.00
-4.00,-6.00,-3.00,-2.00,+0.00,-8.00,-1.00,+0.00,-4.00,-2.00,-7.00,-8.00,-17.00,-5.00,-1.00,+0.00
-3.00,+3.00,+1.00,-10.00,-3.00,-1.00,-4.00,-4.00,-3.00,-9.00,-6.00,-5.00,+5.00,-2.00,-2.00,-4.00
+0.00,-6.00,-2.00,-2.00,-3.00,-24.00,-2.00,+1.00,-3.00,-2.00,-1.00,-6.00,+22.00,+1.00,+0.00,+0.00
-1.00,+8.00,+3.00,+3.00,+0.00,+26.00,+5.00,-2.00,-1.00,+2.00,+10.00,+10.00,-14.00,+2.00,+0.00,+1.00
-1.00,-7.00,+0.00,-1.00,+3.00,-1.00,-8.00,-2.00,+1.00,+3.00,-5.00,-1.00,-24.00,-4.00,+0.00,-1.00
+0.00,+0.00,+0.00,+13.00,-2.00,+1.00,+2.00,-1.00,-2.00,-4.00,+1.00,+0.00,-9.00,-2.00,+0.00,+0.00
-2.00,+2.00,-8.00,-7.00,-3.00,-2.00,-2.00,-4.00,+4.00,+7.00,+4.00,+6.00,+4.00,+0.00,-1.00,+1.00
+3.00,-14.00,+1.00,-3.00,-3.00,-10.00,-2.00,-1.00,+0.00,+0.00,+7.00,-7.00,+31.00,-5.00,-3.00,-3.00
-1.00,+13.00,+4.00,-2.00,-2.00,-6.00,-1.00,-1.00,-4.00,-7.00,-5.00,-4.00,-1.00,-4.00,-3.00,-2.00
-1.00,+11.00,+9.00,+5.00,+7.00,+21.00,+2.00,+3.00,+1.00,-5.00,-18.00,-14.00,-24.00,-1.00,-2.00,-6.00
+0.00,+5.00,+10.00,-5.00,+6.00,+10.00,+2.00,+3.00,-4.00,-1.00,-5.00,+2.00,-8.00,-3.00,-3.00,-7.00
+0.00,-9.00,-5.00,-8.00,-8.00,-11.00,-6.00,-4.00,+4.00,+8.00,+15.00,+10.00,+5.00,-1.00,+0.00,+2.00
+4.00,-15.00,-22.00,-2.00,-12.00,-3.00,-6.00,-9.00,+3.00,-3.00,+3.00,+5.00,+4.00,+0.00,+1.00,+2.00
+2.00,+10.00,+15.00,+6.00,+1.00,-8.00,+3.00,+2.00,-1.00,-2.00,-1.00,-3.00,+8.00,-2.00,-1.00,+0.00
-5.00,+3.00,+2.00,+14.00,+8.00,+6.00,+5.00,+1.00,-18.00,-16.00,-19.00,-6.00,-4.00,-2.00,-2.00,-6.00
+2.00,-3.00,-11.00,-2.00,-3.00,-9.00,-6.00,-4.00,+14.00,+9.00,-5.00,-8.00,+13.00,+3.00,+1.00,+3.00
-2.00,-16.00,-11.00,+3.00,-9.00,-8.00,-6.00,-8.00,-5.00,-1.00,+7.00,+2.00,-23.00,-3.00,-2.00,+0.00
-3.00,-16.00,-16.00,+1.00,-3.00,-3.00,-2.00,-3.00,-5.00,+1.00,+4.00,+7.00,-7.00,-1.00,-1.00,+0.00
+1.00,+36.00,+22.00,-7.00,+6.00,+4.00,+4.00,+4.00,+0.00,+8.00,+0.00,-1.00,+12.00,+0.00,-1.00,+1.00
+0.00,+2.00,+7.00,-1.00,-1.00,-1.00,+7.00,+6.00,-10.00,-6.00,+1.00,-2.00,+2.00,-1.00,-1.00,+1.00
+2.00,+1.00,-9.00,+0.00,+1.00,-4.00,-5.00,-5.00,+3.00,-8.00,-1.00,-3.00,-14.00,-1.00,+0.00,+0.00
+1.00,-9.00,-10.00,+6.00,-7.00,-4.00,-7.00,-6.00,+1.00,-1.00,-14.00,+0.00,+12.00,-1.00,-3.00,-4.00
-3.00,-20.00,+2.00,+1.00,-8.00,-11.00,-3.00,-3.00,+1.00,-2.00,-1.00,-4.00,-13.00,-1.00,-2.00,-4.00
-2.00,+15.00,+2.00,-2.00,+6.00,+25.00,-1.00,-1.00,-6.00,-7.00,-4.00,+1.00,-4.00,-1.00,-1.00,-2.00
-1.00,-18.00,-18.00,+6.00,-3.00,-7.00,+5.00,+4.00,+4.00,+13.00,+21.00,+5.00,+25.00,+4.00,+3.00,+2.00
-1.00,+29.00,+25.00,+11.00,+6.00,+12.00,+3.00,+2.00,-7.00,-13.00,-18.00,-5.00,+14.00,-4.00,-2.00,-3.00
-1.00,-3.00,+1.00,-9.00,+11.00,+7.00,+2.00,+0.00,-7.00,-2.00,-9.00,-8.00,-29.00,-1.00,-3.00,-5.00
-2.00,-9.00,-12.00,-8.00,+1.00,+3.00,+4.00,+2.00,+1.00,+3.00,-1.00,-4.00,-14.00,-1.00,+0.00,+6.00
-3.00,-11.00,-1.00,-4.00,-22.00,-17.00,-16.00,-12.00,+6.00,+1.00,+5.00,+6.00,+19.00,-1.00,+2.00,+3.00
+5.00,-20.00,-19.00,+11.00,-13.00,-22.00,-8.00,-9.00,-4.00,+3.00,+20.00,+6.00,+1.00,+1.00,+1.00,-2.00
-1.00,-9.00,-7.00,+17.00,-1.00,+6.00,-2.00,-2.00,+4.00,-6.00,-14.00,-3.00,+8.00,-1.00,-3.00,-6.00
-2.00,+9.00,+8.00,+0.00,+12.00,+4.00,+4.00,+3.00,-7.00,-6.00,-8.00,-5.00,-4.00,-2.00,-2.00,-14.00
-4.00,+21.00,+22.00,-5.00,+14.00,+15.00,+13.00,+10.00,+9.00,+5.00,+3.00,+2.00,-6.00,-3.00,-2.00,+1.00
+4.00,-4.00,-1.00,-2.00,-2.00,-7.00,-4.00,-3.00,-4.00,+1.00,+4.00,-2.00,-5.00,+1.00,-3.00,-9.00
+0.00,-7.00,-9.00,-5.00,-12.00,+2.00,-1.00,-5.00,+11.00,+4.00,+2.00,+0.00,-3.00,-2.00,+0.00,+7.00
+2.00,-9.00,-9.00,-1.00,-3.00,-11.00,-6.00,-5.00,-3.00,-5.00,-1.00,+0.00,-18.00,-1.00,+1.00,+4.00
-2.00,+3.00,+6.00,-11.00,-1.00,-14.00,+1.00,+0.00,-11.00,-4.00,-11.00,-9.00,+16.00,-3.00,-5.00,-4.00
-5.00,+5.00,+2.00,-5.00,+4.00,+11.00,-1.00,+3.00,-7.00,-6.00,+2.00,+2.00,-5.00,-2.00,+0.00,+3.00
-2.00,-14.00,+0.00,-7.00,+5.00,+5.00,+4.00,+3.00,+19.00,+17.00,+20.00,+11.00,+13.00,+4.00,+5.00,+17.00
-2.00,+23.00,+12.00,-14.00,-1.00,-1.00,+0.00,+2.00,+16.00,+18.00,+0.00,-3.00,+3.00,+2.00,+1.00,+1.00
+0.00,-1.00,-9.00,+1.00,-6.00,+4.00,-2.00,-3.00,-13.00,-13.00,-22.00,-13.00,+10.00,-1.00,-3.00,-4.00
+0.00,-3.00,-6.00,-5.00,+2.00,+0.00,+2.00,-1.00,+8.00,+2.00,-5.00,-6.00,-46.00,-7.00,-3.00,-1.00
-3.00,-7.00,-10.00,-4.00,-3.00,-10.00,-3.00,-2.00,-17.00,-14.00,-1.00,+0.00,+27.00,+2.00,+0.00,-7.00
-5.00,+17.00,+15.00,-12.00,+2.00,+0.00,+2.00,+2.00,+3.00,-20.00,+1.00,+2.00,-52.00,-1.00,+0.00,+0.00
+0.00,-2.00,+8.00,-2.00,+10.00,+15.00,+6.00,+6.00,-29.00,-7.00,+3.00,+5.00,+7.00,-2.00,-2.00,-4.00
-5.00,-9.00,-11.00,-17.00,-9.00,-17.00,-6.00,-8.00,+82.00,+66.00,+20.00,+7.00,+19.00,+11.00,+12.00,+29.00
-1.00,-14.00,-14.00,+5.00,-12.00,+0.00,-8.00,-8.00,-14.00,-8.00,-8.00,-3.00,-3.00,-2.00,-2.00,-2.00
-1.00,-4.00,+0.00,+3.00,-2.00,-17.00,-4.00,-9.00,-10.00,-7.00,-5.00,-4.00,+7.00,-2.00,-4.00,-7.00
-1.00,+2.00,+6.00,+9.00,+12.00,+15.00,+8.00,+8.00,-6.00,-5.00,-1.00,+2.00,-5.00,-3.00,-3.00,-12.00
+2.00,+6.00,+16.00,-9.00,+7.00,+14.00,+8.00,+11.00,-36.00,-25.00,-4.00,-5.00,-4.00,-1.00,-3.00,-11.00
+1.00,-5.00,-8.00,-14.00,-9.00,-20.00,-12.00,-10.00,+7.00,+2.00,-8.00,-7.00,+14.00,-1.00,+2.00,+8.00
-1.00,-9.00,-10.00,-8.00,-6.00,-9.00,-6.00,-3.00,+1.00,+4.00,-8.00,+3.00,+7.00,-3.00,-2.00,-6.00
-2.00,+8.00,+9.00,+1.00,+5.00,+1.00,+1.00,+4.00,-3.00,-10.00,-3.00,-2.00,-22.00,-1.00,+1.00,-4.00
-4.00,-12.00,-4.00,-4.00,+0.00,+4.00,+4.00,+2.00,-5.00,+4.00,+5.00,+3.00,+8.00,-4.00,-3.00,-21.00
-2.00,+6.00,-1.00,-6.00,-3.00,-2.00,-1.00,+4.00,+6.00,+10.00,+8.00,+1.00,+63.00,+5.00,+1.00,-15.00
+1.00,-4.00,-4.00,+4.00,-5.00,-4.00,-3.00,-10.00,-16.00,-19.00,-5.00,+0.00,-71.00,-4.00,-1.00,-6.00
+1.00,-5.00,-5.00,-2.00,-3.00,+2.00,-4.00,-8.00,+8.00,+6.00,+0.00,+2.00,+17.00,+2.00,-2.00,+9.00
+1.00,+5.00,+5.00,+11.00,+6.00,-2.00,+1.00,+4.00,-9.00,-8.00,-7.00,-5.00,-14.00,-3.00,-4.00,+8.00
+1.00,+15.00,+5.00,-11.00,+6.00,+7.00,+6.00,+4.00,-4.00,-2.00,-7.00,-11.00,-3.00,+0.00,-4.00,+4.00
+1.00,-22.00,+2.00,+12.00,+0.00,-4.00,-5.00,+0.00,-3.00,+4.00,+4.00,+5.00,+19.00,+2.00,+0.00,+8.00
+1.00,-9.00,-20.00,-1.00,-16.00,-15.00,-5.00,-12.00,+7.00,+13.00,+17.00,+9.00,+0.00,-3.00,+1.00,+5.00
-1.00,-11.00,-16.00,+8.00,-7.00,+13.00,-9.00,-7.00,-3.00,-6.00,-4.00,-2.00,+3.00,-7.00,-2.00,+3.00
+1.00,-12.00,+4.00,+8.00,-1.00,+2.00,+0.00,-1.00,-10.00,-11.00,-10.00,-11.00,-36.00,-4.00,-3.00,-4.00
+3.00,+28.00,+6.00,+2.00,-1.00,+6.00,+2.00,+3.00,-1.00,+3.00,+2.00,-6.00,+18.00,-1.00,-1.00,+2.00
-3.00,+21.00,+18.00,+12.00,+19.00,+3.00,+8.00,+6.00,+2.00,-1.00,-12.00,-3.00,+9.00,+4.00,+0.00,-2.00
+1.00,-23.00,+1.00,+8.00,-1.00,-8.00,+4.00,+0.00,-11.00,-4.00,+1.00,+3.00,+19.00,-5.00,-1.00,-1.00
+1.00,+9.00,-9.00,+20.00,-4.00,+4.00,-5.00,-5.00,+4.00,+1.00,+6.00,+7.00,-36.00,-2.00,+3.00,+7.00
-2.00,-18.00,-4.00,+1.00,-4.00,-4.00,-3.00,-5.00,+2.00,+5.00,-4.00,+0.00,+6.00,+2.00,-2.00,-3.00
+2.00,+1.00,+11.00,+4.00,+5.00,+17.00,+4.00,+7.00,-2.00,+0.00,+2.00,-7.00,-7.00,-8.00,-3.00,-1.00
-3.00,+15.00,+2.00,-17.00,-1.00,-4.00,+0.00,+1.00,-21.00,-22.00,+2.00,+2.00,+0.00,+3.00,-1.00,-3.00
+0.00,-21.00,-10.00,+4.00,-12.00,-6.00,-9.00,-10.00,-33.00,+2.00,-10.00,+2.00,-5.00,-3.00,-5.00,-5.00
-5.00,-10.00,-10.00,+2.00,-9.00,-13.00,-4.00,-7.00,+27.00,+13.00,+7.00,-2.00,+5.00,+1.00,+1.00,+2.00
+2.00,+8.00,+2.00,-4.00,-2.00,-14.00,-2.00,-3.00,-2.00,-6.00,-10.00,-2.00,+22.00,+2.00,-1.00,-3.00
-5.00,-9.00,-11.00,+0.00,+3.00,+11.00,+5.00,+1.00,+6.00,-4.00,-7.00,-4.00,-36.00,+1.00,+0.00,+3.00
-5.00,+21.00,+20.00,-11.00,+0.00,-1.00,+7.00,+7.00,-13.00,-9.00,+9.00,+3.00,-5.00,+1.00,-2.00,-4.00
-1.00,-1.00,+7.00,-13.00,+1.00,-24.00,-5.00,-2.00,-5.00,+3.00,-3.00,+0.00,+32.00,-5.00,-3.00,-4.00
+0.00,-10.00,-20.00,-5.00,-4.00,+43.00,-1.00,-5.00,-1.00,+4.00,-7.00,-7.00,-65.00,+0.00,-2.00,+1.00
+2.00,-4.00,-12.00,+5.00,-2.00,-7.00,-5.00,-5.00,-3.00,-1.00,-4.00,-5.00,+17.00,+1.00,-1.00,-1.00
-5.00,-1.00,+3.00,-1.00,+2.00,-1.00,+0.00,+2.00,+12.00,-1.00,+2.00,-1.00,-10.00,-9.00,-2.00,-6.00
-3.00,-6.00,-1.00,-3.00,+1.00,-4.00,+3.00,+1.00,-5.00,+0.00,+7.00,-1.00,-26.00,-8.00,+1.00,-8.00
-1.00,+9.00,+23.00,-5.00,+13.00,+6.00,+9.00,+8.00,+13.00,+1.00,+1.00,+2.00,+37.00,+6.00,+0.00,-7.00
-1.00,-3.00,-2.00,+1.00,-3.00,-12.00,+3.00,+1.00,-11.00,-2.00,-6.00,-4.00,+14.00,+1.00,-3.00,-3.00
-2.00,-16.00,-21.00,-3.00,-19.00,-2.00,-24.00,-17.00,+3.00,-1.00,-1.00,-2.00,-27.00,+7.00,+1.00,-2.00
+3.00,+5.00,-10.00,+4.00,-7.00,-5.00,-5.00,-1.00,-11.00,-11.00,-9.00,-7.00,+18.00,-10.00,+22.00,+3.00
+1.00,-10.00,-6.00,+4.00,-5.00,-9.00,-5.00,-4.00,+6.00,-3.00,+8.00,+6.00,+37.00,+11.00,-21.00,+0.00
+0.00,+9.00,+12.00,-2.00,+5.00,+1.00,+7.00,+3.00,+0.00,+16.00,+6.00,+7.00,+2.00,+10.00,+0.00,+23.00
-3.00,-7.00,+5.00,-6.00,+7.00,-2.00,+9.00,+2.00,+16.00,-3.00,-5.00,-2.00,-9.00,-3.00,-6.00,+8.00
-3.00,+8.00,-5.00,-11.00,-3.00,+10.00,-1.00,+0.00,-12.00,-10.00,-3.00,-5.00,+6.00,-4.00,+2.00,+0.00
+2.00,-2.00,+0.00,+8.00,+5.00,+1.00,-3.00,+1.00,+27.00,+21.00,+13.00,+12.00,-15.00,+2.00,+9.00,+7.00
+1.00,+10.00,+8.00,+0.00,+1.00,-1.00,-1.00,+1.00,-27.00,-21.00,-6.00,-10.00,+48.00,-24.00,-9.00,-16.00
-2.00,-9.00,-15.00,-11.00,-3.00,-6.00,-1.00,+2.00,+11.00,-51.00,-20.00,-17.00,-10.00,+17.00,-4.00,+0.00
+2.00,-18.00,-5.00,-6.00,+2.00,+9.00,-1.00,-5.00,-35.00,+7.00,-16.00,-10.00,-48.00,+13.00,+5.00,-1.00
-3.00,+15.00,+2.00,+3.00,-4.00,-11.00,-1.00,-4.00,+63.00,+74.00,+16.00,+2.00,+21.00,+8.00,+10.00,+13.00
-1.00,+0.00,+12.00,+3.00,-4.00,-10.00,-5.00,-1.00,+16.00,+25.00,+14.00,+17.00,+10.00,-3.00,-3.00,+1.00
+3.00,+4.00,+8.00,-1.00,+8.00,+10.00,+5.00,+5.00,-4.00,+7.00,+11.00,+7.00,+25.00,-15.00,+7.00,-1.00
+2.00,-16.00,-8.00,-5.00,-3.00,+3.00,+4.00,-1.00,-9.00,-31.00,-12.00,-5.00,-42.00,-8.00,-13.00,-14.00
-1.00,+20.00,-8.00,+3.00,-14.00,-39.00,-9.00,-6.00,-31.00,-32.00,-18.00,-16.00,-17.00,-11.00,-6.00,-5.00
+2.00,+0.00,-9.00,+12.00,+5.00,+19.00,-2.00,-3.00,-2.00,-6.00,-3.00,-4.00,+1.00,+2.00,+9.00,-3.00
+0.00,+6.00,+3.00,-8.00,+3.00,-7.00,+3.00,+0.00,+7.00,+12.00,+8.00,+9.00,-8.00,-1.00,-2.00,-6.00
+2.00,+10.00,+7.00,+2.00,+14.00,+22.00,+13.00,+8.00,+11.00,+3.00,+2.00,+4.00,+24.00,+5.00,-11.00,-3.00
-1.00,-16.00,+1.00,-4.00,-10.00,-9.00,-10.00,-4.00,-23.00,-12.00,-7.00,-2.00,+12.00,-10.00,-4.00,-14.00
-2.00,-6.00,-10.00,-8.00,-13.00,-21.00,-10.00,-6.00,+10.00,-4.00,-2.00,-5.00,-36.00,+3.00,+1.00,+16.00
+3.00,+5.00,+0.00,+26.00,+7.00,+44.00,+9.00,+4.00,-12.00,-1.00,-10.00,-9.00,-4.00,-1.00,-1.00,-5.00
-1.00,+9.00,+15.00,+4.00,+5.00,+4.00,-6.00,+0.00,-1.00,+9.00,+6.00,+1.00,+38.00,-2.00,-5.00,+2.00
-1.00,-19.00,-15.00,+1.00,-4.00,-21.00,-4.00,-3.00,-21.00,-35.00,-3.00,-5.00,-20.00,-10.00,+2.00,-7.00
-1.00,+1.00,-6.00,-15.00,-9.00,+6.00,+0.00,-4.00,+7.00,+13.00,-8.00,+1.00,-18.00,-3.00,+2.00,+2.00
+6.00,+4.00,+3.00,+17.00,+8.00,+3.00,-8.00,+4.00,+15.00,+2.00,-8.00,-23.00,+86.00,+0.00,+5.00,-3.00
-3.00,+4.00,-1.00,+0.00,-1.00,+1.00,+11.00,+2.00,-4.00,+4.00,+4.00,+26.00,-76.00,-17.00,-44.00,+4.00
-3.00,-4.00,+15.00,-8.00,+15.00,+26.00,+10.00,+3.00,+5.00,+10.00,+4.00,+0.00,+44.00,+34.00,+22.00,-15.00
-5.00,-1.00,+0.00,-9.00,-5.00,-5.00,-4.00,+4.00,-9.00,-38.00,+1.00,+8.00,-21.00,+6.00,-1.00,-9.00
-2.00,-28.00,-24.00,-19.00,-21.00,-51.00,-13.00,-18.00,-37.00,+30.00,+6.00,+12.00,-28.00,+5.00,-2.00,+4.00
+1.00,-77.00,-17.00,+10.00,-10.00,-18.00,-28.00,-8.00,+45.00,+21.00,-5.00,-25.00,+72.00,-33.00,+21.00,+5.00
-9.00,+12.00,+2.00,-1.00,+4.00,+14.00,+9.00,+11.00,-22.00,-20.00,-5.00,+6.00,-82.00,+16.00,-50.00,-4.00
+1.00,+24.00,+17.00,+14.00,+19.00,+12.00,+13.00,+7.00,-14.00,+10.00,+0.00,-1.00,+3.00,+5.00,-8.00,-11.00
-5.00,+1.00,-3.00,-20.00,+1.00,-6.00,+4.00,+5.00,+34.00,+10.00,+6.00,+1.00,-18.00,-13.00,+5.00,+4.00
-1.00,+7.00,+1.00,-2.00,-4.00,-1.00,-5.00,-7.00,-21.00,-12.00,+12.00,+6.00,+7.00,+13.00,+4.00,-9.00
+0.00,-29.00,-5.00,-6.00,-8.00,+1.00,-1.00,-5.00,-1.00,-10.00,-13.00,-7.00,+11.00,-17.00,+4.00,+9.00
+2.00,+3.00,+3.00,-5.00,-2.00,-9.00,-4.00,-2.00,-4.00,-6.00,-16.00,-13.00,-1.00,-2.00,+7.00,+2.00
-2.00,+5.00,+5.00,-10.00,+2.00,+6.00,+4.00,+8.00,+4.00,-11.00,-8.00,-2.00,+1.00,+2.00,-13.00,-8.00
-1.00,+8.00,-4.00,-9.00,-1.00,-6.00,+2.00,+6.00,-5.00,-1.00,-6.00,-18.00,+28.00,+1.00,-4.00,-20.00
-1.00,-7.00,-6.00,-8.00,-9.00,-9.00,+0.00,+1.00,+17.00,+3.00,+8.00,+23.00,-33.00,-4.00,+15.00,+32.00
-2.00,+13.00,+3.00,+15.00,+5.00,+6.00,-3.00,-9.00,-2.00,+12.00,+3.00,+1.00,+43.00,+1.00,-11.00,-5.00
-2.00,+0.00,-4.00,-9.00,-7.00,-16.00,-6.00,-12.00,+27.00,-2.00,+2.00,+3.00,-45.00,-5.00,+3.00,+2.00
+0.00,+13.00,+5.00,+6.00,+11.00,+37.00,+15.00,+4.00,-34.00,-4.00,-3.00,+3.00,+26.00,+13.00,-4.00,-10.00
-1.00,+12.00,+5.00,-27.00,-3.00,-14.00,-4.00,+7.00,+0.00,+3.00,+3.00,-30.00,-50.00,-12.00,+5.00,-7.00
-1.00,-39.00,-12.00,+20.00,+4.00,+37.00,-6.00,-8.00,-20.00,-3.00,-2.00,+22.00,-13.00,-7.00,+25.00,+6.00
+2.00,+13.00,-4.00,-17.00,-8.00,-13.00,-21.00,-14.00,-38.00,-10.00,-1.00,-4.00,+3.00,-5.00,-30.00,-19.00
+0.00,-1.00,+0.00,+1.00,-13.00,-17.00,+5.00,-5.00,+71.00,-8.00,+13.00,+12.00,-20.00,+19.00,+19.00,+32.00
-1.00,+42.00,+7.00,+24.00,+16.00,+62.00,-2.00,+5.00,-17.00,-6.00,-8.00,+0.00,+9.00,-10.00,-10.00,-9.00
-2.00,+15.00,+8.00,-27.00,+2.00,-5.00,+6.00,+6.00,+16.00,+9.00,-1.00,-4.00,-27.00,-1.00,+3.00,-6.00
+2.00,+12.00,+8.00,+4.00,+7.00,+3.00,+12.00,+3.00,-77.00,-46.00,+9.00,+8.00,+49.00,+4.00,-1.00,-5.00
-1.00,-20.00,-10.00,-14.00,-5.00,+15.00,-16.00,-8.00,-2.00,+34.00,-2.00,-2.00,-30.00,+0.00,+3.00,+21.00
+10.00,-6.00,+0.00,+25.00,-7.00,-113.00,-6.00,-2.00,-5.00,-8.00,-16.00,-17.00,+36.00,-7.00,+1.00,-18.00
-3.00,-12.00,-9.00,-9.00,-3.00,+23.00,+4.00,-1.00,+39.00,+11.00,-11.00,-8.00,-19.00,-5.00,-12.00,+6.00
-4.00,+4.00,+9.00,+4.00,+12.00,+19.00,-3.00,-2.00,+10.00,+1.00,+4.00,+3.00,-3.00,+1.00,+12.00,+17.00
-2.00,+16.00,-7.00,-6.00,-5.00,-16.00,+3.00,+5.00,-30.00,-18.00,-1.00,+0.00,-17.00,-5.00,-11.00,-19.00
+0.00,-20.00,+5.00,+6.00,+2.00,+0.00,+2.00,-8.00,-19.00,-7.00,+4.00,+0.00,+26.00,-1.00,+2.00,-3.00
+2.00,-13.00,-11.00,+14.00,-5.00,-28.00,-11.00,-8.00,-21.00,-12.00,+2.00,+4.00,+18.00,+3.00,-2.00,-14.00
+4.00,-15.00,-8.00,+11.00,-15.00,-13.00,+0.00,-4.00,+41.00,+26.00,-3.00,-6.00,+31.00,+4.00,-6.00,-10.00
+1.00,+7.00,+1.00,-11.00,-1.00,-32.00,-8.00,+3.00,-18.00,-4.00,-1.00,+6.00,-49.00,-2.00,+5.00,+0.00
-4.00,-2.00,-1.00,+13.00,+4.00,+20.00,+8.00,-4.00,-7.00,+0.00,-3.00,+4.00,+16.00,-3.00,-6.00,-15.00
+0.00,+4.00,+4.00,-5.00,+0.00,+13.00,+0.00,+3.00,+4.00,-11.00,-7.00,-20.00,+25.00,-16.00,+13.00,+0.00
+1.00,+0.00,+6.00,-3.00,-2.00,-20.00,+4.00,+5.00,-3.00,+23.00,+0.00,+0.00,-28.00,+14.00,-36.00,+1.00
-2.00,-32.00,-3.00,+1.00,+2.00,+27.00,-11.00,-1.00,+23.00,-31.00,+2.00,+4.00,-5.00,+3.00,+7.00,+13.00
+2.00,+37.00,+2.00,-4.00,-5.00,+17.00,+30.00,+6.00,-18.00,+59.00,+4.00,+4.00,+37.00,+2.00,+0.00,-16.00
-2.00,+15.00,+4.00,+12.00,+10.00,-17.00,+7.00,+0.00,+1.00,-1.00,+5.00,-6.00,-60.00,-1.00,-6.00,-7.00
-3.00,+23.00,+1.00,-9.00,+2.00,+48.00,+4.00,+1.00,+7.00,+8.00,-2.00,+1.00,+14.00,-4.00,+12.00,+14.00
+2.00,+11.00,+5.00,+8.00,+8.00,-24.00,+6.00,-1.00,+1.00,+8.00,+1.00,-12.00,+20.00,-5.00,+2.00,+1.00
-1.00,-32.00,-8.00,-6.00,-6.00,+29.00,-9.00,+4.00,+12.00,-31.00,-5.00,+11.00,-51.00,-4.00,-7.00,+2.00
+1.00,+0.00,-4.00,-14.00,-11.00,-19.00,-8.00,-5.00,-32.00,-10.00,+0.00,-17.00,-24.00,-9.00,-15.00,-11.00
+1.00,-40.00,+11.00,+7.00,+8.00,-1.00,+10.00,+10.00,+16.00,+6.00,-9.00,+14.00,+38.00,+35.00,+19.00,+2.00
-4.00,+39.00,+1.00,-19.00,-2.00,+7.00,+6.00,+16.00,-15.00,+2.00,-8.00,-9.00,-16.00,+2.00,-9.00,-8.00
-2.00,-34.00,-23.00,+4.00,-8.00,-25.00,-11.00,-8.00,-13.00,-10.00,+5.00,-1.00,-6.00,+0.00,+14.00,+16.00
+4.00,-34.00,-18.00,+17.00,-8.00,+10.00,-5.00,-14.00,+14.00,+4.00,+5.00,-13.00,+63.00,+11.00,-21.00,-34.00
-2.00,+47.00,+1.00,+13.00,+5.00,+7.00,-7.00,-21.00,+23.00,+5.00,+2.00,+14.00,-109.00,-23.00,+11.00,+35.00
+0.00,-6.00,+4.00,-6.00,+0.00,-22.00,+2.00,-1.00,-8.00,+0.00,-5.00,+5.00,+32.00,+0.00,-3.00,+0.00
+1.00,+24.00,+16.00,-10.00,+4.00,+4.00,+2.00,+2.00,-2.00,-11.00,-4.00,-10.00,+43.00,+1.00,-3.00,-8.00
-3.00,+10.00,+3.00,-3.00,-2.00,-2.00,+1.00,+9.00,+0.00,+10.00,+1.00,+1.00,-50.00,+15.00,-4.00,+2.00
-2.00,-39.00,-6.00,-19.00,-6.00,-6.00,+0.00,+3.00,-7.00,-36.00,-7.00,-25.00,+12.00,-100.00,-1.00,-32.00
-3.00,+4.00,+0.00,-8.00,-4.00,-16.00,-5.00,-11.00,-70.00,+0.00,-3.00,+18.00,-67.00,+47.00,-4.00,-19.00
+1.00,+6.00,-6.00,+10.00,+5.00,+69.00,+3.00,-3.00,+93.00,+52.00,+4.00,+4.00,+5.00,+5.00,+17.00,+51.00
+0.00,-37.00,-8.00,-7.00,-9.00,-21.00,-9.00,-2.00,+53.00,+31.00,+14.00,+10.00,+16.00,+7.00,+0.00,+39.00
-1.00,+3.00,+4.00,-8.00,-12.00,-53.00,-18.00,+3.00,-36.00,-18.00,-4.00,-4.00,-6.00,-3.00,+8.00,-18.00
-5.00,+20.00,+4.00,+22.00,+4.00,+27.00,+7.00,-21.00,+26.00,+5.00,+0.00,-5.00,+12.00,-14.00,-1.00,+0.00
-1.00,-29.00,-8.00,+3.00,+10.00,+23.00,-4.00,-6.00,-45.00,-25.00,+3.00,-1.00,+30.00,+4.00,-8.00,-18.00
-2.00,+25.00,+13.00,+0.00,+4.00,+0.00,+0.00,+19.00,-19.00,-14.00,+3.00,+2.00,-42.00,+2.00,+6.00,-7.00
+0.00,-8.00,-1.00,-6.00,-5.00,-15.00,+9.00,+5.00,-2.00,-2.00,-20.00,-4.00,+5.00,+15.00,-7.00,-8.00
-2.00,-32.00,-2.00,-5.00,+8.00,+36.00,-2.00,+4.00,+6.00,+5.00,-10.00,-13.00,+28.00,-16.00,-2.00,+31.00
-1.00,+23.00,+3.00,+2.00,-15.00,-60.00,-12.00,-8.00,-12.00,-24.00,-3.00,-4.00,-13.00,+4.00,-2.00,-11.00
-7.00,+4.00,-10.00,-17.00,-3.00,+21.00,-4.00,-4.00,+4.00,-10.00,+5.00,+6.00,+34.00,-1.00,-9.00,-1.00
+5.00,-3.00,-12.00,+22.00,-1.00,+18.00,+3.00,+3.00,+2.00,+10.00,+13.00,+12.00,+5.00,+9.00,-2.00,+5.00
+3.00,-23.00,-9.00,+5.00,-6.00,-16.00,+4.00,-3.00,-18.00,+0.00,-4.00,-5.00,+3.00,+3.00,-6.00,-18.00
-6.00,+10.00,+5.00,-14.00,+1.00,-22.00,-3.00,-4.00,+7.00,+4.00,+1.00,-20.00,-37.00,-4.00,+17.00,+26.00
+4.00,-11.00,+12.00,+15.00,+6.00,+12.00,+9.00,+11.00,-1.00,+1.00,+3.00,+24.00,+21.00,-9.00,+1.00,+4.00
-1.00,-6.00,+1.00,+7.00,+3.00,-20.00,-3.00,-21.00,-8.00,-14.00,-4.00,-10.00,+27.00,-6.00,-12.00,-20.00
-1.00,+13.00,+3.00,-11.00,+3.00,+14.00,-1.00,+1.00,+14.00,+8.00,+0.00,+2.00,+4.00,+0.00,+12.00,+3.00
-2.00,+8.00,-3.00,-8.00,-4.00,+14.00,+3.00,+3.00,+42.00,+1.00,+0.00,+0.00,-47.00,-1.00,-38.00,-6.00
+0.00,+10.00,+3.00,-14.00,-14.00,-89.00,-31.00,-24.00,-5.00,+4.00,-6.00,-1.00,+31.00,-2.00,+1.00,-10.00
+0.00,-25.00,+0.00,-4.00,+8.00,+94.00,+50.00,+7.00,-15.00,+18.00,+9.00,+7.00,+39.00,+14.00,-4.00,+19.00
+6.00,-18.00,-5.00,+21.00,+3.00,-28.00,-13.00,+8.00,-20.00,-6.00,+6.00,-3.00,-52.00,-23.00,+25.00,-19.00
-5.00,+1.00,+0.00,+0.00,+5.00,+0.00,-9.00,-6.00,-40.00,-32.00,-15.00,+2.00,+32.00,+25.00,+15.00,-18.00
-4.00,+15.00,+2.00,+18.00,+6.00,+14.00,+12.00,-10.00,-24.00,-15.00,-19.00,-8.00,-4.00,+0.00,-3.00,-13.00
-4.00,+17.00,-1.00,-7.00,-1.00,-8.00,-10.00,+2.00,+45.00,+0.00,+6.00,+8.00,-37.00,+21.00,+14.00,+18.00
-4.00,+5.00,+1.00,-16.00,-4.00,-10.00,+2.00,-5.00,-16.00,+4.00,+4.00,-1.00,+64.00,-8.00,-12.00,+3.00
-1.00,-21.00,+9.00,-13.00,+0.00,-8.00,-3.00,+3.00,-22.00,+17.00,-4.00,-14.00,-46.00,-15.00,-1.00,-4.00
+1.00,+1.00,-7.00,-10.00,+4.00,+8.00,+3.00,+10.00,-45.00,-61.00,-6.00,-5.00,-8.00,+2.00,+13.00,+13.00
-3.00,-27.00,-21.00,-17.00,-21.00,-30.00,-19.00,-5.00,-36.00,-8.00,-4.00,+0.00,+1.00,-9.00,-12.00,-37.00
-2.00,+18.00,-2.00,+18.00,-6.00,-5.00,+0.00,-8.00,+29.00,+1.00,+0.00,-1.00,+4.00,+2.00,-6.00,+23.00
+2.00,-12.00,-4.00,-11.00,-9.00,-28.00,-31.00,-4.00,-7.00,-13.00,+0.00,+8.00,+16.00,-20.00,+10.00,-8.00
-1.00,+18.00,+7.00,+4.00,+11.00,+18.00,+49.00,+4.00,+14.00,+24.00,+1.00,-4.00,+0.00,+0.00,-12.00,-9.00
-2.00,+9.00,+8.00,-18.00,+5.00,-31.00,-3.00,+2.00,+5.00,+3.00,+5.00,-14.00,-50.00,-4.00,-25.00,+6.00
-1.00,+13.00,+1.00,-23.00,-7.00,+17.00,-1.00,+6.00,+18.00,-8.00,-1.00,+2.00,-9.00,+0.00,-8.00,-3.00
+2.00,-7.00,-5.00,+2.00,+1.00,+3.00,+4.00,+18.00,+7.00,-4.00,-2.00,+7.00,+57.00,-3.00,-3.00,-14.00
+2.00,+6.00,+5.00,+28.00,+6.00,+8.00,-8.00,+0.00,+4.00,+13.00,+1.00,-7.00,-46.00,-14.00,-5.00,+9.00
-2.00,-2.00,-6.00,-24.00,-8.00,-19.00,-3.00,-1.00,-5.00,-4.00,-6.00,-10.00,+13.00,+7.00,+11.00,-4.00
+0.00,-11.00,+1.00,+3.00,+3.00,+33.00,+4.00,-4.00,-8.00,-11.00,-11.00,+0.00,-1.00,+7.00,-1.00,-19.00
-7.00,-8.00,-2.00,-10.00,-9.00,-7.00,+4.00,-5.00,+33.00,+26.00,+6.00,-13.00,+6.00,-28.00,-17.00,+11.00
+2.00,-61.00,-12.00,+0.00,-2.00,+2.00,-5.00,+3.00,-56.00,-30.00,-9.00,+2.00,+18.00,+13.00,+9.00,-26.00
-7.00,+87.00,+11.00,+5.00,+4.00,-32.00,-3.00,-6.00,+72.00,+25.00,+5.00,+1.00,+7.00,+13.00,+5.00,+18.00
-6.00,+20.00,+4.00,-13.00,-5.00,-4.00,-12.00,-3.00,+12.00,+23.00,+7.00,+4.00,+11.00,-9.00,+3.00,+17.00
-1.00,-6.00,-6.00,-3.00,-1.00,-38.00,-18.00,-7.00,-2.00,-13.00,-1.00,+4.00,-11.00,-1.00,-1.00,-9.00
-7.00,-29.00,-13.00,-19.00,-6.00,+38.00,+20.00,+6.00,-17.00,+21.00,+0.00,-3.00,+4.00,-13.00,-7.00,-4.00
+2.00,-25.00,-5.00,+14.00,+5.00,+24.00,-3.00,-3.00,-69.00,-37.00,-5.00,+2.00,+22.00,-10.00,+1.00,-14.00
-4.00,+9.00,+4.00,-13.00,-4.00,-23.00,+3.00,-2.00,+10.00,-1.00,+3.00,-9.00,-9.00,+15.00,+7.00,+16.00
+3.00,-26.00,-9.00,+5.00,+0.00,+1.00,-11.00,-9.00,-2.00,-1.00,+0.00,+4.00,-37.00,-3.00,-6.00,+6.00
+1.00,+1.00,-1.00,+1.00,-11.00,-32.00,-11.00,+1.00,+20.00,-2.00,-3.00,-2.00,+14.00,+3.00,+21.00,+15.00
+3.00,+34.00,+7.00,+0.00,+5.00,+44.00,-6.00,+24.00,-11.00,-2.00,-1.00,+0.00,-27.00,-6.00,-42.00,-2.00
-2.00,+13.00,+5.00,+4.00,+5.00,+8.00,+7.00,-19.00,+17.00,+5.00,-2.00,-3.00,+12.00,+2.00,-1.00,-9.00
+1.00,-4.00,-1.00,+10.00,-5.00,+15.00,+11.00,+2.00,-12.00,-4.00,+5.00,+6.00,+5.00,+0.00,+4.00,+0.00
-2.00,+5.00,+7.00,-2.00,+0.00,-3.00,-9.00,-1.00,+12.00,+0.00,+4.00,-1.00,-18.00,-8.00,-15.00,+2.00
+4.00,-14.00,-1.00,-6.00,-1.00,-10.00,-6.00,-5.00,+1.00,+2.00,-5.00,-13.00,+4.00,-2.00,+12.00,-15.00
+0.00,-6.00,-2.00,+2.00,+0.00,-34.00,-3.00,+5.00,+11.00,-12.00,-11.00,+4.00,-6.00,+0.00,-4.00,+13.00
-2.00,+8.00,-2.00,+6.00,+1.00,+49.00,+11.00,+4.00,-7.00,+4.00,+0.00,+1.00,-24.00,-6.00,-18.00,-14.00
+5.00,+11.00,+1.00,+26.00,+4.00,-1.00,-2.00,-8.00,-11.00,-8.00,+5.00,+3.00,+16.00,+2.00,+7.00,+6.00
-1.00,-5.00,-4.00,+7.00,-13.00,-17.00,-11.00,-3.00,+31.00,+12.00,-3.00,-2.00,+4.00,+1.00,+7.00,-6.00
+1.00,-1.00,-3.00,+17.00,+4.00,+19.00,-9.00,+8.00,-26.00,-13.00,-6.00,-12.00,+13.00,-4.00,-10.00,-12.00
+4.00,-14.00,-3.00,-4.00,-4.00,-41.00,+37.00,+5.00,-10.00,-8.00,+2.00,+7.00,+52.00,+17.00,+16.00,+14.00
+6.00,+16.00,-2.00,+6.00,-2.00,+51.00,-2.00,+18.00,+20.00,+14.00,-2.00,-4.00,+8.00,-5.00,-2.00,+10.00
-2.00,+40.00,+1.00,+6.00,+3.00,+14.00,+5.00,-23.00,-35.00,-1.00,+3.00,+1.00,-6.00,+2.00,+4.00,-12.00
+0.00,-24.00,-2.00,+6.00,+2.00,+0.00,+9.00,-4.00,+22.00,-1.00,+2.00,+1.00,-7.00,-5.00,-8.00,-6.00
+4.00,+17.00,+0.00,+12.00,+0.00,-2.00,-10.00,-3.00,-8.00,-5.00,-4.00,-3.00,-9.00,-3.00,-2.00,-6.00
-4.00,-44.00,-6.00,-12.00,-1.00,-10.00,+0.00,+2.00,+22.00,+7.00,+4.00,-3.00,-6.00,+10.00,-1.00,+3.00
+5.00,-25.00,-1.00,-1.00,-4.00,-9.00,-7.00,+8.00,-49.00,-4.00,-2.00,-1.00,-2.00,+22.00,+0.00,-5.00
-2.00,+54.00,+5.00,+2.00,-3.00,-29.00,-19.00,+3.00,+8.00,+0.00,+1.00,+5.00,+21.00,-7.00,-20.00,-11.00
+0.00,+1.00,+1.00,+5.00,+5.00,+17.00,-1.00,-8.00,+20.00,-10.00,-7.00,-1.00,+2.00,-12.00,+16.00,-6.00
-2.00,+26.00,+1.00,+0.00,+1.00,-17.00,-8.00,-12.00,+16.00,+7.00,+2.00,-5.00,-2.00,+14.00,+3.00,+8.00
-2.00,-48.00,-3.00,+2.00,+2.00,+18.00,+10.00,+1.00,+2.00,-8.00,-6.00,-4.00,-9.00,-5.00,-10.00,-1.00
-2.00,-13.00,-3.00,-17.00,-9.00,-15.00,-17.00,-2.00,-38.00,+4.00,+8.00,+13.00,+21.00,-26.00,+14.00,+1.00
-1.00,+4.00,+5.00,+12.00,+3.00,+12.00,+0.00,+2.00,+13.00,+15.00,-5.00,+0.00,-34.00,-4.00,-6.00,+1.00
-3.00,+9.00,+1.00,+5.00,+14.00,+5.00,+6.00,+2.00,-6.00,-18.00,-9.00,-10.00,+9.00,-12.00,-7.00,-9.00
-4.00,-16.00,-8.00,-19.00,-13.00,-34.00,-17.00,-2.00,+13.00,+7.00,+0.00,-1.00,-35.00,-9.00,+0.00,+8.00
+0.00,-7.00,-6.00,+7.00,-2.00,+3.00,-4.00,-12.00,-45.00,-26.00,-1.00,-4.00,-4.00,-3.00,-7.00,-50.00
-5.00,+4.00,+0.00,-1.00,+1.00,+28.00,+15.00,+6.00,-5.00,+0.00,-2.00,+1.00,+6.00,+18.00,-8.00,-10.00
-1.00,+17.00,+9.00,-10.00,-2.00,-2.00,-1.00,-15.00,+15.00,+4.00,-2.00,+7.00,+2.00,-12.00,+7.00,+14.00
-6.00,-9.00,-4.00,+3.00,+4.00,-1.00,-5.00,-6.00,+9.00,+2.00,+2.00,-1.00,+7.00,-6.00,+9.00,+4.00
+1.00,-7.00,-7.00,-6.00,-9.00,-38.00,+2.00,-3.00,-25.00,+4.00,-1.00,-7.00,-5.00,+28.00,-35.00,-4.00
-2.00,-22.00,+4.00,+19.00,+1.00,-17.00,-1.00,-3.00,-12.00,-2.00,+2.00,+2.00,-5.00,+16.00,+4.00,-6.00
-3.00,+5.00,-4.00,-4.00,+5.00,+24.00,-12.00,+2.00,-16.00,-9.00,-2.00,+1.00,-12.00,+11.00,+12.00,-21.00
-3.00,-1.00,+1.00,-9.00,+5.00,+29.00,+7.00,+13.00,-39.00,-16.00,+0.00,-3.00,+8.00,-1.00,+4.00,-15.00
+1.00,-32.00,-4.00,-10.00,+0.00,+6.00,+9.00,+2.00,+59.00,+16.00,+0.00,+4.00,-12.00,-16.00,+0.00,+2.00
-2.00,+23.00,-2.00,-5.00,-9.00,-27.00,-12.00,+1.00,-13.00,-21.00,-2.00,-8.00,-16.00,-48.00,-11.00,+9.00
-1.00,+29.00,+0.00,-3.00,-10.00,-26.00,-37.00,+4.00,-19.00,+12.00,+7.00,+0.00,+10.00,+24.00,-21.00,+14.00
-5.00,+13.00,+1.00,-13.00,+2.00,+0.00,+39.00,+16.00,+13.00,+8.00,-4.00,+2.00,+6.00,+29.00,+27.00,-7.00
-1.00,-11.00,-1.00,-5.00,+4.00,+18.00,+6.00,-3.00,-21.00,-11.00,-2.00,-6.00,+39.00,+9.00,+20.00,+19.00
-2.00,-2.00,-4.00,-20.00,-2.00,-2.00,-2.00,-1.00,-41.00,-3.00,-6.00,+5.00,-14.00,-23.00,-39.00,-35.00
+0.00,-34.00,+3.00,+5.00,+6.00,-1.00,-7.00,-10.00,+55.00,+17.00,+5.00,+3.00,+1.00,+22.00,+48.00,+48.00
-7.00,+7.00,-2.00,-11.00,+2.00,+6.00,-18.00,-10.00,-17.00,-20.00,-3.00,+4.00,+5.00,-23.00,-5.00,-30.00
+4.00,+24.00,-4.00,-3.00,-1.00,-1.00,-2.00,+12.00,-28.00,-11.00,-5.00,-10.00,-21.00,+0.00,+15.00,-4.00
+2.00,+12.00,-5.00,+22.00,-4.00,+30.00,+3.00,-6.00,+2.00,+10.00,+0.00,-5.00,+10.00,+12.00,-18.00,+14.00
+1.00,-12.00,-3.00,-1.00,-9.00,-12.00,+3.00,-3.00,-30.00,-18.00,-10.00,+0.00,-12.00,-25.00,-14.00,-25.00
+2.00,-20.00,+4.00,+6.00,-6.00,-46.00,-25.00,-6.00,+81.00,+18.00,+9.00,+1.00,-4.00,-16.00,+3.00,+30.00
-5.00,-13.00,+2.00,-23.00,+12.00,+67.00,+40.00,+34.00,-17.00,+13.00,-3.00,+2.00,-2.00,+2.00,-12.00,-20.00
-2.00,+30.00,+1.00,-16.00,-1.00,-8.00,-11.00,+4.00,-12.00,-8.00,+3.00,-3.00,+1.00,+4.00,+16.00,+6.00
+0.00,-4.00,-6.00,+18.00,-5.00,-8.00,+8.00,-18.00,-13.00,-11.00,-5.00,-1.00,-4.00,-6.00,-21.00,-20.00
-1.00,-17.00,-1.00,+4.00,+1.00,+7.00,-13.00,-4.00,+4.00,-14.00,-4.00,+0.00,-2.00,-10.00,-1.00,+10.00
+1.00,-13.00,-3.00,-8.00,-6.00,-31.00,-20.00,-6.00,+89.00,+22.00,+1.00,+2.00,-9.00,-8.00,-1.00,+19.00
+1.00,+1.00,+5.00,+0.00,+2.00,+2.00,+3.00,+12.00,-18.00,+4.00,+1.00,+0.00,+2.00,-20.00,+3.00,-15.00
-3.00,+20.00,+2.00,-6.00,-3.00,+1.00,+7.00,+10.00,-30.00,+11.00,+7.00,+9.00,+15.00,+74.00,+28.00,-5.00
+2.00,-5.00,+4.00,-4.00,+2.00,-4.00,+1.00,+0.00,-6.00,-17.00,-7.00,+1.00,+1.00,+6.00,-7.00,-6.00
-4.00,+37.00,+2.00,-19.00,+2.00,+3.00,+11.00,-7.00,+24.00,+7.00,-5.00,-6.00,-11.00,-4.00,+17.00,+63.00
+2.00,-52.00,-11.00,+1.00,-6.00,-6.00,-39.00,-17.00,+42.00,+18.00,+4.00,-1.00,+7.00,+18.00,+13.00,+23.00
-3.00,+10.00,+5.00,+6.00,+0.00,-15.00,+47.00,+7.00,-17.00,-8.00,-4.00,-10.00,-7.00,-33.00,+11.00,+1.00
+0.00,+9.00,-4.00,-12.00,-6.00,+2.00,-2.00,-3.00,-5.00,+17.00,-1.00,+2.00,-2.00,+8.00,-34.00,-9.00
-1.00,-12.00,-1.00,-2.00,-10.00,-2.00,-12.00,-5.00,-39.00,-14.00,+4.00,+7.00,-7.00,-5.00,+40.00,-10.00
-5.00,-7.00,-4.00,-17.00,+12.00,+17.00,-4.00,+7.00,+22.00,+2.00,+0.00,+0.00,+1.00,+13.00,-14.00,+16.00
+2.00,+2.00,+1.00,+13.00,-1.00,-9.00,-13.00,-31.00,+20.00,-6.00,-3.00,-3.00,-7.00,-16.00,-14.00,-15.00
+1.00,+6.00,+1.00,-10.00,-1.00,+3.00,+7.00,+15.00,-25.00,+11.00,+4.00,-6.00,-9.00,-44.00,+5.00,+16.00
-3.00,-16.00,+0.00,-24.00,-12.00,-8.00,-15.00,+30.00,-49.00,-26.00,-11.00,-7.00,-4.00,-1.00,-35.00,-76.00
+0.00,+10.00,-3.00,+18.00,-7.00,-13.00,-10.00,-37.00,+17.00,+3.00,-1.00,+0.00,+9.00,+36.00,+6.00,+21.00
-1.00,-4.00,-5.00,-9.00,-4.00,+1.00,-6.00,+7.00,-5.00,+0.00,+1.00,+0.00,-1.00,-17.00,-9.00,-6.00
-2.00,-17.00,+1.00,+10.00,+12.00,+21.00,+46.00,+0.00,-7.00,+9.00,+6.00,+4.00,+1.00,+0.00,+3.00,+22.00
-2.00,-1.00,+4.00,-8.00,-1.00,-15.00,-22.00,+0.00,-4.00,-21.00,-6.00,-3.00,-6.00,-17.00,+19.00,-22.00
-3.00,+2.00,+3.00,-4.00,+2.00,-3.00,-1.00,+7.00,+7.00,+2.00,+0.00,+0.00,-1.00,+1.00,+1.00,-9.00
-1.00,-9.00,-6.00,-7.00,-5.00,-1.00,+3.00,+15.00,+20.00,-1.00,-1.00,+0.00,-3.00,-11.00,-25.00,-8.00
-7.00,+10.00,-2.00,+4.00,-1.00,-3.00,-29.00,-87.00,-23.00,-13.00,-10.00,-9.00,-6.00,+8.00,+0.00,-77.00
-3.00,+10.00,-1.00,+13.00,+3.00,-3.00,+4.00,-12.00,-22.00,-5.00,+0.00,+1.00,-6.00,-9.00,-5.00,-6.00
-2.00,-23.00,+4.00,-6.00,-1.00,+6.00,+27.00,+10.00,+24.00,+4.00,+1.00,+3.00,+3.00,-7.00,+0.00,-24.00
-5.00,-15.00,-2.00,-14.00,-3.00,-24.00,-47.00,-10.00,+41.00,+6.00,-2.00,-2.00,-5.00,-14.00,-1.00,+13.00
-2.00,+14.00,-6.00,-12.00,-7.00,+12.00,+43.00,+35.00,-34.00,-19.00,-5.00,+2.00,-1.00,+4.00,-12.00,-30.00
-1.00,+14.00,+2.00,+55.00,+10.00,+2.00,-3.00,-71.00,+57.00,+28.00,+4.00,+5.00,+1.00,-5.00,-5.00,+73.00
+3.00,-47.00,-1.00,+9.00,+2.00,+2.00,+22.00,-15.00,-75.00,-22.00,+3.00,+1.00,-5.00,-42.00,+9.00,+11.00
-2.00,-1.00,-2.00,-9.00,-12.00,-3.00,-10.00,+35.00,-33.00,+0.00,-1.00,+0.00,+4.00,+30.00,+31.00,+9.00
+1.00,-21.00,+5.00,+9.00,+7.00,+1.00,-9.00,+0.00,-20.00,-3.00,+2.00,-1.00,-4.00,-24.00,-8.00,+19.00
+2.00,+22.00,+3.00,-5.00,+5.00,+11.00,+13.00,+14.00,-47.00,-18.00,-9.00,-4.00,-2.00,+43.00,+1.00,-17.00
+0.00,-1.00,+1.00,+9.00,+0.00,-6.00,-11.00,+14.00,+51.00,+14.00,-2.00,-2.00,-1.00,+7.00,+14.00,+31.00
+3.00,-3.00,+0.00,+4.00,-3.00,+2.00,+12.00,+5.00,+12.00,-7.00,-4.00,-1.00,-3.00,-17.00,-6.00,+13.00
+1.00,-6.00,-2.00,+7.00,-3.00,-1.00,-1.00,+17.00,+37.00,+5.00,+2.00,-2.00,-5.00,+7.00,+12.00,+33.00
+1.00,+0.00,-8.00,-27.00,-14.00,-11.00,-38.00,+38.00,+9.00,-4.00,-2.00,-3.00,-11.00,-45.00,+1.00,-2.00
-3.00,+3.00,+0.00,+28.00,+1.00,-1.00,+12.00,-26.00,+20.00,+1.00,+0.00,-4.00,+11.00,+24.00,-2.00,+15.00
+1.00,+14.00,+0.00,+9.00,-1.00,+9.00,+4.00,+12.00,-7.00,-10.00,-2.00,-3.00,-1.00,-3.00,-9.00,-10.00
+1.00,+3.00,+1.00,+23.00,+1.00,-7.00,-17.00,-12.00,+34.00,+37.00,+8.00,+5.00,+6.00,+23.00,+10.00,+40.00
+0.00,-17.00,-3.00,-11.00,+0.00,-6.00,-13.00,-10.00,-19.00,-20.00,+1.00,+0.00,-5.00,-18.00,-21.00,-12.00
+0.00,+22.00,-4.00,-14.00,-11.00,-13.00,-19.00,+5.00,-65.00,+20.00,-1.00,+1.00,-3.00,+13.00,+2.00,-11.00
+0.00,-2.00,+5.00,+29.00,+5.00,+11.00,+52.00,-14.00,-32.00,-6.00,+0.00,-1.00,-2.00,-2.00,-16.00,-14.00
+1.00,+9.00,-1.00,-11.00,-8.00,-1.00,-11.00,+18.00,+2.00,+8.00,+8.00,+7.00,+4.00,-2.00,+15.00,+38.00
+1.00,-27.00,-2.00,+16.00,+7.00,+6.00,+14.00,-25.00,+55.00,+18.00,+1.00,+2.00,+0.00,+9.00,-4.00,+16.00
+6.00,-1.00,-3.00,-3.00,-2.00,-14.00,-7.00,+21.00,-27.00,-26.00,-6.00,-3.00,-8.00,-12.00,+1.00,-14.00
-4.00,+13.00,-4.00,-6.00,+0.00,+0.00,-13.00,-14.00,+50.00,+25.00,+6.00,+6.00,-1.00,-4.00,-27.00,+15.00
-3.00,-3.00,-1.00,-19.00,-7.00,-7.00,-4.00,+15.00,+3.00,+3.00,-6.00,-6.00,+7.00,+23.00,+15.00,-25.00
-2.00,-7.00,+2.00,+28.00,+4.00,+6.00,+4.00,-42.00,+6.00,-22.00,+3.00,+2.00,+6.00,+13.00,+0.00,+12.00
+6.00,+1.00,-1.00,+6.00,+2.00,+14.00,+50.00,+3.00,-4.00,+14.00,+0.00,+2.00,+3.00,+19.00,+12.00,-7.00
-4.00,+26.00,+2.00,-13.00,-1.00,-17.00,-26.00,-1.00,+4.00,-8.00,-7.00,-5.00,-9.00,-27.00,-21.00,+25.00
+0.00,+7.00,+5.00,-20.00,+9.00,+8.00,-12.00,-3.00,+23.00,-9.00,-4.00,-3.00,-5.00,-16.00,+0.00,+17.00
-7.00,+11.00,-4.00,-13.00,-25.00,-17.00,+13.00,+20.00,+13.00,+6.00,-1.00,-1.00,+4.00,-4.00,-4.00,+5.00
+1.00,-7.00,-11.00,+3.00,-1.00,-8.00,-48.00,-28.00,-7.00,-11.00,-2.00,-2.00,-5.00,+2.00,-10.00,+12.00
-1.00,-23.00,-5.00,-2.00,-3.00,-8.00,+12.00,-15.00,+25.00,-5.00,-4.00,-3.00,+0.00,-3.00,+3.00,-34.00
+3.00,+6.00,-4.00,+11.00,-2.00,+7.00,+2.00,-6.00,-1.00,-19.00,-7.00,-1.00,+3.00,-18.00,-5.00,-15.00
+1.00,-21.00,-1.00,-12.00,+0.00,+16.00,+9.00,+0.00,+32.00,+24.00,+9.00,+2.00,+5.00,+13.00,+7.00,+19.00
-1.00,+10.00,+5.00,+3.00,-4.00,-12.00,-15.00,+6.00,+11.00,+23.00,+1.00,-2.00,-6.00,-15.00,-5.00,-10.00
+3.00,-8.00,+2.00,-8.00,+3.00,+2.00,-1.00,+0.00,+8.00,+13.00,+3.00,+1.00,-4.00,-32.00,+0.00,-18.00
+2.00,-18.00,+0.00,+14.00,+7.00,-2.00,-6.00,-28.00,-32.00,-14.00,-3.00,+2.00,+3.00,+85.00,-1.00,+7.00
+0.00,+5.00,+2.00,-11.00,+3.00,+6.00,+13.00,+8.00,-68.00,-26.00,-13.00,-8.00,-4.00,-3.00,-27.00,-60.00
-2.00,+1.00,+0.00,-9.00,-1.00,-1.00,-9.00,+14.00,+36.00,+26.00,+14.00,-8.00,-1.00,-1.00,+34.00,+27.00
-2.00,+37.00,-3.00,-1.00,-1.00,+4.00,-5.00,+6.00,-21.00,+3.00,+2.00,+2.00,+2.00,+0.00,+3.00,-20.00
-2.00,-10.00,+1.00,+6.00,+2.00,-4.00,+14.00,+12.00,+12.00,+2.00,+0.00,-2.00,-7.00,-23.00,-6.00,-19.00
+4.00,-8.00,-2.00,+1.00,-4.00,-2.00,-6.00,+16.00,-36.00,-17.00,-7.00,-3.00,+1.00,-3.00,-4.00,-25.00
-5.00,+6.00,-1.00,-7.00,-5.00,+0.00,+10.00,+5.00,+52.00,+15.00,+8.00,+4.00,+3.00,+16.00,+11.00,+55.00
-3.00,-17.00,+1.00,-7.00,-2.00,-2.00,-7.00,+8.00,-68.00,-55.00,-20.00,-1.00,-2.00,-4.00,-24.00,-82.00
+0.00,-13.00,-2.00,-16.00,-8.00,-6.00,-7.00,+15.00,+68.00,+36.00,+13.00,-12.00,-14.00,-19.00,+7.00,+55.00
-2.00,-4.00,+0.00,+6.00,+7.00,-5.00,+3.00,-16.00,+13.00,+18.00,+6.00,+5.00,+3.00,+14.00,+0.00,+3.00
-1.00,+12.00,-3.00,-16.00,-1.00,+2.00,-4.00,+10.00,-52.00,-25.00,-11.00,-5.00,-5.00,-45.00,-17.00,-52.00
+5.00,-4.00,-3.00,+16.00,-10.00,-2.00,+6.00,+1.00,-44.00,-6.00,-3.00,+0.00,+3.00,+26.00,+1.00,+6.00
-7.00,+10.00,-2.00,+4.00,-4.00,-4.00,-4.00,-1.00,+10.00,-7.00,-8.00,+1.00,+2.00,-11.00,-5.00,-19.00
+0.00,+0.00,-1.00,-7.00,+2.00,-5.00,-9.00,-15.00,+21.00,-4.00,+3.00,+1.00,+3.00,-5.00,+2.00,+27.00
-1.00,+10.00,+2.00,+8.00,+4.00,+7.00,+22.00,+5.00,+51.00,-9.00,-2.00,+3.00,+1.00,-12.00,-2.00,+3.00
+4.00,-11.00,-1.00,-1.00,+1.00,-2.00,-7.00,-8.00,-4.00,-5.00,+2.00,-7.00,-8.00,-7.00,-2.00,+4.00
+2.00,-7.00,+1.00,-19.00,-2.00,-4.00,+1.00,+19.00,+2.00,+3.00,+3.00,+11.00,+3.00,-7.00,+2.00,+9.00
+1.00,-6.00,-4.00,+20.00,+8.00,+10.00,+21.00,-7.00,+41.00,+15.00,+2.00,-1.00,+6.00,-6.00,+10.00,+38.00
-5.00,+11.00,+3.00,-3.00,+2.00,-2.00,-9.00,+0.00,-33.00,-33.00,-9.00,+1.00,+2.00,+1.00,-33.00,-57.00
-1.00,-9.00,-1.00,-5.00,+3.00,+6.00,-12.00,-8.00,+100.00,+16.00,+3.00,+0.00,+2.00,-3.00,+8.00,+80.00
+2.00,-6.00,-5.00,+21.00,+5.00,+0.00,+43.00,-8.00,+8.00,+3.00,+1.00,+1.00,+0.00,-13.00,+13.00,-39.00
-2.00,+6.00,-5.00,-24.00,-9.00,-10.00,-17.00,+12.00,+17.00,-3.00,-4.00,-3.00,-8.00,-7.00,-8.00,-51.00
+2.00,+21.00,-3.00,-63.00,-12.00,+1.00,+9.00,+53.00,+45.00,+21.00,+9.00,+8.00,-3.00,-13.00,+15.00,+48.00
-4.00,+14.00,+1.00,+6.00,+5.00,+4.00,+8.00,-12.00,-29.00,+0.00,+1.00,+4.00,+14.00,+61.00,-3.00,-11.00
+0.00,-3.00,+2.00,-3.00,+0.00,+1.00,-8.00,-7.00,-27.00,+0.00,-4.00,-17.00,-14.00,-33.00,-23.00,+0.00
-4.00,-2.00,+4.00,+0.00,-1.00,+4.00,-2.00,+2.00,-15.00,+26.00,+11.00,+5.00,+9.00,+64.00,+54.00,+87.00
-2.00,-20.00,-5.00,+30.00,+1.00,+3.00,+12.00,-3.00,-62.00,-19.00,-8.00,-7.00,-6.00,-8.00,-16.00,-23.00
-2.00,-7.00,-4.00,-46.00,-3.00,-4.00,-1.00,-2.00,+27.00,+19.00,+1.00,-3.00,-5.00,-13.00,+7.00,+4.00
-2.00,-5.00,+3.00,+108.00,+15.00,-5.00,-23.00,-78.00,-55.00,-17.00,-7.00,+2.00,-2.00,-16.00,-8.00,-38.00
+1.00,+23.00,+5.00,+4.00,+7.00,+3.00,+8.00,-12.00,+11.00,+8.00,+3.00,-1.00,+4.00,+35.00,-16.00,+43.00
+1.00,+19.00,-6.00,+32.00,-9.00,-3.00,-11.00,+22.00,+1.00,-4.00,-2.00,-4.00,-1.00,+2.00,+9.00,+28.00
+2.00,-17.00,+3.00,+64.00,+8.00,+2.00,+8.00,-17.00,-11.00,+7.00,+5.00,+3.00,+0.00,-10.00,+1.00,-61.00
-2.00,+7.00,+0.00,-24.00,-5.00,-3.00,-8.00,+4.00,-59.00,-8.00,+4.00,+4.00,+4.00,+0.00,-6.00,-21.00
-3.00,+6.00,-4.00,-63.00,-1.00,-1.00,-10.00,+40.00,+21.00,+10.00,-7.00,-3.00,-7.00,-17.00,-13.00,-29.00
-1.00,-15.00,+3.00,+2.00,+7.00,+12.00,+41.00,-40.00,-6.00,+6.00,-2.00,-9.00,-6.00,+8.00,+20.00,+30.00
+4.00,+23.00,-5.00,-25.00,+0.00,-5.00,-15.00,-1.00,-15.00,+6.00,+3.00,+3.00,+2.00,-8.00,-1.00,+27.00
-5.00,+17.00,+1.00,-33.00,-4.00,+2.00,+6.00,+10.00,+67.00,+44.00,+21.00,+2.00,+1.00,+11.00,+23.00,+68.00
+0.00,-6.00,+4.00,+57.00,-2.00,-4.00,+0.00,-37.00,-34.00,-21.00,-2.00,+5.00,-3.00,-7.00,-5.00,-44.00
-3.00,-2.00,+0.00,-27.00,+4.00,+0.00,-16.00,-4.00,-35.00,-30.00,-14.00,+0.00,+1.00,-7.00,-26.00,-72.00
-3.00,+7.00,+1.00,+17.00,+2.00,-4.00,-8.00,-32.00,+48.00,+12.00,-2.00,-3.00,-1.00,+8.00,+9.00,+8.00
-6.00,+4.00,+1.00,-37.00,-1.00,+2.00,+4.00,+13.00,-15.00,-32.00,-8.00,-2.00,+3.00,+11.00,-8.00,-3.00
+0.00,-2.00,-3.00,-27.00,-6.00,-5.00,-5.00,+18.00,+28.00,+13.00,+2.00,+0.00,-2.00,-11.00,-8.00,-10.00
-2.00,-12.00,-2.00,+1.00,-7.00,-5.00,-8.00,-2.00,-74.00,-30.00,-11.00,+2.00,-1.00,-8.00,-9.00,-52.00
-1.00,-11.00,+1.00,-18.00,+3.00,+5.00,+4.00,+19.00,-86.00,-9.00,-2.00,-5.00,-5.00,-41.00,-3.00,+28.00
-1.00,+9.00,-8.00,-19.00,-11.00,-9.00,-19.00,+12.00,-37.00,-8.00,-6.00,+0.00,-8.00,-25.00,+7.00,-21.00
+0.00,-19.00,-8.00,+14.00,-8.00,-9.00,+29.00,+6.00,+24.00,+4.00,-3.00,-11.00,-2.00,+53.00,-11.00,-14.00
-13.00,+1.00,-4.00,-5.00,+5.00,+9.00,+36.00,-10.00,-4.00,-15.00,-9.00,+0.00,+4.00,+2.00,-21.00,-21.00
-2.00,-13.00,-3.00,-8.00,-8.00,-1.00,-9.00,+22.00,-10.00,-13.00,-5.00,-10.00,-9.00,-22.00,+9.00,+13.00
+7.00,-11.00,-5.00,-10.00,+5.00,+0.00,-9.00,+30.00,+6.00,-11.00,-3.00,+5.00,+6.00,+9.00,-11.00,+18.00
-2.00,+2.00,+0.00,+0.00,+1.00,-12.00,-13.00,-1.00,-50.00,-27.00,-16.00,-14.00,-13.00,-41.00,-9.00,-68.00
-1.00,-6.00,+0.00,-7.00,+6.00,+1.00,-9.00,+19.00,+64.00,+32.00,+11.00,+7.00,+3.00,+10.00,+20.00,+52.00
+1.00,-12.00,+0.00,-3.00,-3.00,-2.00,+5.00,-25.00,+16.00,+0.00,-1.00,+3.00,+1.00,+16.00,+0.00,-19.00
+1.00,+18.00,+5.00,+23.00,+4.00,+8.00,+9.00,-18.00,-29.00,-35.00,-19.00,-2.00,+0.00,+7.00,-31.00,-74.00
+2.00,+0.00,+0.00,-1.00,-4.00,+2.00,+0.00,+28.00,+2.00,-7.00,-1.00,+6.00,+0.00,-18.00,+3.00,+59.00
-1.00,+4.00,-3.00,-11.00,-4.00,-10.00,-19.00,-84.00,-17.00,+4.00,+4.00,-4.00,-3.00,+11.00,+2.00,+21.00
-3.00,-12.00,-5.00,+5.00,+6.00,+2.00,-7.00,+4.00,+18.00,+17.00,+0.00,-2.00,-1.00,-3.00,+10.00,+80.00
+6.00,-11.00,-5.00,-16.00,-5.00,-4.00,+5.00,+23.00,-3.00,-16.00,+0.00,+3.00,+0.00,+3.00,-6.00,-40.00
-1.00,+21.00,-1.00,-10.00,-3.00,+0.00,-24.00,-21.00,-2.00,-5.00,-3.00,-4.00,-1.00,-19.00,-2.00,-25.00
+5.00,+15.00,-4.00,+2.00,-11.00,-5.00,+32.00,+36.00,-27.00,-3.00,-4.00,-9.00,-6.00,-15.00,-1.00,+5.00
+1.00,-26.00,+2.00,+19.00,+2.00,-4.00,-8.00,-22.00,-12.00,-12.00,-4.00,-5.00,-10.00,-35.00,-19.00,-24.00
-4.00,+17.00,+7.00,+12.00,-1.00,+0.00,-21.00,-34.00,+22.00,+16.00,+5.00,-3.00,+3.00,+41.00,+19.00,+44.00
-3.00,+6.00,+5.00,-5.00,+9.00,+12.00,+10.00,+14.00,-14.00,-4.00,-2.00,-1.00,+1.00,-2.00,-9.00,-24.00
+3.00,+7.00,+1.00,-4.00,-2.00,+0.00,-17.00,+3.00,+9.00,+11.00,+4.00,-1.00,-1.00,+1.00,+14.00,-13.00
-2.00,-14.00,-6.00,-4.00,-8.00,-19.00,-46.00,-10.00,+35.00,+11.00,+6.00,+0.00,+1.00,+28.00,+13.00,-18.00
+1.00,+1.00,+1.00,-14.00,+6.00,+17.00,+72.00,+28.00,+7.00,+21.00,+4.00,-1.00,-2.00,-9.00,+3.00,+43.00
-1.00,+3.00,+1.00,-25.00,-7.00,-7.00,-26.00,+13.00,-14.00,+6.00,+4.00,+2.00,-5.00,-18.00,+4.00,+11.00
-1.00,-6.00,+3.00,+20.00,+0.00,-6.00,-9.00,-16.00,+10.00,-1.00,-2.00,+2.00,+10.00,+8.00,+1.00,+8.00
-3.00,+1.00,-8.00,-5.00,-10.00,-2.00,+12.00,+10.00,+5.00,-3.00,+1.00,+5.00,+4.00,+40.00,-8.00,-13.00
-6.00,-1.00,+3.00,-8.00,-2.00,-9.00,-23.00,+32.00,-21.00,-4.00,-4.00,-6.00,+2.00,-2.00,+4.00,-2.00
-4.00,-18.00,-7.00,+11.00,-7.00,-4.00,+8.00,-24.00,+44.00,+14.00,+4.00,-5.00,+9.00,-7.00,+7.00,+38.00
-4.00,-9.00,+4.00,+15.00,+7.00,+4.00,-6.00,-31.00,-3.00,-3.00,-1.00,-6.00,-14.00,+17.00,-3.00,-4.00
-6.00,+10.00,-2.00,-4.00,-1.00,+5.00,+2.00,-22.00,-17.00,-23.00,-9.00,+5.00,+9.00,-31.00,-14.00,-29.00
-4.00,-14.00,+2.00,-23.00,+1.00,+5.00,-1.00,+3.00,-1.00,-5.00,-10.00,-12.00,-30.00,+0.00,-14.00,-30.00
-5.00,-10.00,+3.00,+20.00,+0.00,-4.00,-11.00,-52.00,-32.00,-6.00,+3.00,+6.00,+6.00,-22.00,+4.00,-4.00
+1.00,-2.00,-7.00,+17.00,-7.00,-14.00,-25.00,+16.00,+46.00,+7.00,+2.00,+0.00,+20.00,+33.00,+13.00,+30.00
+2.00,-19.00,+1.00,+18.00,+7.00,+10.00,+26.00,-21.00,+36.00,+25.00,+5.00,-4.00,-2.00,+4.00,+4.00,+26.00
+0.00,+4.00,+1.00,-13.00,-3.00,+0.00,-8.00,-2.00,+23.00,+20.00,+12.00,+0.00,-2.00,-3.00,+16.00,+48.00
-1.00,+20.00,+9.00,-12.00,+5.00,+11.00,+1.00,+13.00,-16.00,+3.00,+0.00,+2.00,+7.00,+7.00,+0.00,+17.00
-5.00,-25.00,-3.00,+28.00,+9.00,+1.00,+15.00,-25.00,-4.00,-11.00,-8.00,-4.00,-12.00,-9.00,-12.00,-42.00
+3.00,+0.00,-8.00,-15.00,-10.00,-11.00,-5.00,+12.00,-31.00,-9.00,-3.00,-2.00,-8.00,+3.00,-1.00,-6.00
-1.00,-2.00,-5.00,-18.00,-5.00,-8.00,+6.00,-2.00,+11.00,+12.00,+1.00,-6.00,+1.00,-1.00,+6.00,+24.00
+3.00,-2.00,+1.00,-13.00,+1.00,+3.00,+6.00,+5.00,-29.00,-11.00,-4.00,-2.00,-8.00,-10.00,-18.00,-13.00
+3.00,+4.00,+4.00,-2.00,+0.00,+4.00,+3.00,+4.00,-12.00,+0.00,+2.00,-6.00,-6.00,+0.00,+18.00,+26.00
+1.00,+21.00,+5.00,-38.00,+1.00,+6.00,+3.00,+51.00,+13.00,-10.00,-3.00,+0.00,+1.00,+0.00,-1.00,-11.00
-1.00,-18.00,-9.00,+3.00,-8.00,-8.00,-7.00,-14.00,-7.00,+8.00,+1.00,+3.00,+10.00,-12.00,+1.00,-3.00
+3.00,-6.00,-1.00,+18.00,-1.00,+0.00,+11.00,-9.00,-3.00,-2.00,-5.00,-9.00,-8.00,-2.00,-7.00,-24.00
-2.00,-4.00,+4.00,-13.00,+1.00,+0.00,-9.00,+9.00,-34.00,-7.00,-1.00,+5.00,-2.00,+9.00,-17.00,-25.00
+1.00,+8.00,+3.00,-14.00,-2.00,+0.00,-5.00,+1.00,-14.00,-13.00,-4.00,-3.00,+5.00,-9.00,+13.00,+12.00
+1.00,+0.00,-7.00,+3.00,-4.00,-2.00,-4.00,-5.00,+43.00,+19.00,+10.00,-3.00,-1.00,+1.00,-3.00,+13.00
-5.00,-7.00,-4.00,-15.00,-3.00,+12.00,+5.00,+3.00,-15.00,-10.00,-3.00,-1.00,-12.00,-37.00,+18.00,-19.00
+1.00,-9.00,-5.00,-9.00,-13.00,-37.00,-8.00,+1.00,+11.00,-7.00,-2.00,+11.00,+10.00,+67.00,+3.00,-5.00
-7.00,+4.00,-4.00,-3.00,+11.00,+26.00,-12.00,+12.00,+3.00,-7.00,-8.00,-20.00,-16.00,-11.00,-15.00,+4.00
+0.00,+9.00,-2.00,+4.00,+5.00,+25.00,+3.00,-7.00,-8.00,-1.00,+0.00,+5.00,+0.00,-7.00,-9.00,-35.00
-2.00,-15.00,+1.00,+36.00,+9.00,-18.00,-3.00,-23.00,-13.00,-3.00,+0.00,+5.00,+2.00,+10.00,+10.00,-15.00
-1.00,+2.00,+4.00,+8.00,+1.00,+8.00,+0.00,-4.00,+41.00,-3.00,+0.00,+2.00,+6.00,-30.00,-16.00,-9.00
+0.00,-12.00,-5.00,+11.00,-2.00,-6.00,-21.00,-12.00,+4.00,-4.00,-2.00,+1.00,+1.00,-3.00,-5.00,-4.00
+0.00,+8.00,+0.00,-19.00,+4.00,-8.00,+6.00,+14.00,-23.00,-4.00,-5.00,+3.00,+4.00,+8.00,-12.00,+2.00
-4.00,-13.00,-2.00,-10.00,-2.00,+11.00,+8.00,+13.00,+6.00,+5.00,+6.00,+1.00,+2.00,+3.00,+13.00,+45.00
+2.00,+13.00,+1.00,-6.00,+2.00,+16.00,-4.00,+12.00,-9.00,+1.00,-3.00,-5.00,-10.00,-55.00,-1.00,-15.00
+1.00,+21.00,+6.00,+10.00,-1.00,-14.00,+1.00,-1.00,-23.00,-6.00,+0.00,+5.00,+3.00,+22.00,-1.00,+5.00
-4.00,-20.00,-6.00,+41.00,-3.00,-9.00,-21.00,-41.00,+24.00,-19.00,-6.00,-7.00,-11.00,-9.00,-2.00,+10.00
-1.00,+0.00,-4.00,-19.00,-7.00,-13.00,-15.00,+5.00,-42.00,-16.00,-2.00,-2.00,+16.00,+39.00,+2.00,+2.00
-2.00,+23.00,-9.00,-56.00,-13.00,+3.00,+31.00,+69.00,+19.00,+7.00,+0.00,+1.00,-1.00,-8.00,-6.00,-17.00
+4.00,-13.00,+1.00,+10.00,+3.00,+1.00,+3.00,-21.00,-25.00,+5.00,+2.00,-3.00,-3.00,-13.00,-1.00,+3.00
-2.00,+19.00,+4.00,-16.00,+0.00,-4.00,+2.00,-19.00,-41.00,-5.00,+0.00,+6.00,+3.00,-1.00,-2.00,-9.00
-2.00,-2.00,-5.00,-9.00,-9.00,-4.00,-8.00,+4.00,+15.00,+9.00,+2.00,-2.00,-6.00,+8.00,+4.00,+27.00
+0.00,-9.00,+0.00,+16.00,+6.00,+2.00,-18.00,-14.00,+20.00,+2.00,+0.00,-2.00,-4.00,-15.00,+1.00,+7.00
-3.00,+12.00,+2.00,-17.00,-7.00,+1.00,+25.00,+18.00,+10.00,-3.00,-4.00,-1.00,+0.00,+9.00,-9.00,-32.00
-2.00,-17.00,+0.00,-9.00,-4.00,-9.00,+10.00,+4.00,-24.00,-12.00,-4.00,+0.00,+1.00,-7.00,-2.00,-10.00
-3.00,+0.00,+0.00,-3.00,+6.00,+3.00,+8.00,-10.00,-27.00,-17.00,-8.00,-4.00,-2.00,+2.00,-14.00,-31.00
-3.00,+3.00,+1.00,-4.00,-5.00,-16.00,-47.00,-4.00,-8.00,+14.00,+3.00,+3.00,+2.00,-5.00,-12.00,-37.00
-4.00,-32.00,-26.00,+2.00,-26.00,-19.00,+41.00,+13.00,-15.00,+14.00,+7.00,+3.00,-6.00,-6.00,+17.00,-5.00
-4.00,-9.00,+3.00,-4.00,+5.00,+2.00,-11.00,+4.00,-26.00,-15.00,-7.00,-1.00,+3.00,-1.00,-13.00,-13.00
+4.00,+11.00,+4.00,-63.00,+2.00,+1.00,+19.00,+7.00,+14.00,+9.00,+1.00,+0.00,-3.00,-9.00,-18.00,-37.00
+1.00,+9.00,+4.00,-24.00,-2.00,-1.00,-1.00,-6.00,+11.00,+8.00,+4.00,-2.00,-6.00,-12.00,-7.00,+27.00
-1.00,-12.00,-5.00,-6.00,-7.00,-7.00,-20.00,-7.00,+8.00,-6.00,-3.00,-4.00,-3.00,+25.00,+19.00,-2.00
+2.00,-5.00,+0.00,+31.00,-5.00,-11.00,-11.00,+0.00,-20.00,-14.00,-6.00,-2.00,-2.00,+3.00,+1.00,-28.00
-2.00,-10.00,-6.00,+26.00,-2.00,+1.00,+6.00,+4.00,+52.00,+8.00,+0.00,-1.00,-5.00,-25.00,-26.00,+12.00
+0.00,-6.00,-1.00,+3.00,+5.00,+11.00,-8.00,-3.00,-34.00,-13.00,-3.00,+0.00,+2.00,+41.00,+22.00,-4.00
-5.00,+20.00,+9.00,+8.00,+4.00,-14.00,-32.00,+0.00,-9.00,-8.00,-3.00,-2.00,+1.00,-8.00,-19.00,-25.00
-1.00,-3.00,-2.00,-6.00,-2.00,+6.00,+18.00,+3.00,+18.00,+0.00,+2.00,+5.00,+5.00,-1.00,+7.00,+15.00
+2.00,+3.00,+1.00,+8.00,+1.00,-1.00,-4.00,-4.00,-17.00,-3.00,-1.00,+2.00,-2.00,+15.00,+4.00,-1.00
-1.00,-9.00,+0.00,+5.00,+5.00,+2.00,+8.00,-6.00,-10.00,-4.00,-4.00,-7.00,-6.00,-23.00,-3.00,+9.00
+1.00,+1.00,+0.00,-2.00,+2.00,+4.00,-13.00,+17.00,+47.00,+38.00,+9.00,+5.00,+1.00,-5.00,-4.00,+5.00
+5.00,-8.00,-3.00,+1.00,-2.00,-6.00,-3.00,+1.00,-3.00,-5.00,+1.00,+0.00,+3.00,+13.00,+1.00,-35.00
+1.00,+5.00,-3.00,-23.00,-10.00,-5.00,-7.00,+4.00,-14.00,-2.00,-2.00,-2.00,-6.00,+9.00,+2.00,-11.00
+0.00,-8.00,+0.00,+26.00,+5.00,+3.00,+2.00,-45.00,-3.00,-11.00,-2.00,+0.00,-1.00,-8.00,+3.00,+10.00
+1.00,+8.00,+4.00,-2.00,+5.00,+6.00,+1.00,+4.00,-20.00,-13.00,+1.00,+5.00,+12.00,+40.00,-4.00,+1.00
-3.00,+7.00,+1.00,-1.00,+5.00,+8.00,+24.00,-4.00,+46.00,+10.00,+0.00,-3.00,-3.00,-4.00,+4.00,+44.00
+0.00,+3.00,-2.00,+2.00,-2.00,-3.00,-5.00,+11.00,-26.00,-6.00,-2.00,-8.00,-8.00,-35.00,-3.00,+4.00
+4.00,-13.00,+1.00,+24.00,+7.00,+9.00,+9.00,-8.00,-13.00,-1.00,-1.00,-1.00,-1.00,+6.00,-11.00,-1.00
-2.00,-7.00,+1.00,-9.00,+1.00,+10.00,+23.00,-11.00,+2.00,-4.00,-2.00,-1.00,-1.00,-2.00,+10.00,-5.00
-4.00,+15.00,-3.00,-2.00,-6.00,-13.00,-45.00,-15.00,+3.00,-2.00,-2.00,-3.00,+3.00,+0.00,-4.00,-16.00
+0.00,+6.00,+0.00,+10.00,+1.00,+7.00,+35.00,+27.00,+0.00,-10.00,-4.00,-1.00,+0.00,+3.00,-2.00,-4.00
+0.00,+1.00,+0.00,+5.00,+1.00,+2.00,+12.00,-11.00,-20.00,-5.00,-2.00,-2.00,-3.00,-9.00,-3.00,-2.00
+3.00,+5.00,-2.00,+1.00,-1.00,-4.00,+6.00,+2.00,+32.00,+12.00,+4.00,+0.00,-4.00,-25.00,-4.00,+16.00
-1.00,+0.00,-1.00,-9.00,-3.00,-4.00,-9.00,+7.00,-10.00,+4.00,+4.00,+2.00,+3.00,+2.00,+4.00,-1.00
+1.00,-7.00,+0.00,+9.00,-2.00,-4.00,-8.00,-12.00,+26.00,-5.00,-1.00,+0.00,+3.00,+11.00,+12.00,+23.00
-3.00,+10.00,+2.00,-12.00,-5.00,-8.00,-11.00,+17.00,-22.00,+2.00,+3.00,+1.00,+1.00,-7.00,-6.00,-12.00
-3.00,+7.00,+1.00,-8.00,+8.00,+10.00,+2.00,+2.00,-22.00,-3.00,+1.00,+3.00,-3.00,-16.00,+11.00,+11.00
+5.00,+2.00,+5.00,-13.00,+1.00,+4.00,-5.00,+16.00,+24.00,-1.00,-4.00,-3.00,-1.00,+2.00,-5.00,-23.00
-2.00,-5.00,-1.00,+25.00,+9.00,-1.00,-11.00,-42.00,+55.00,+19.00,+4.00,+4.00,+1.00,+12.00,+5.00,+31.00
+4.00,-24.00,-10.00,-10.00,-6.00,-8.00,+1.00,-11.00,+37.00,-3.00,-4.00,-1.00,+0.00,-26.00,+4.00,+0.00
+0.00,-20.00,+5.00,+7.00,+3.00,+2.00,-2.00,-1.00,-7.00,-5.00,-7.00,-5.00,-7.00,-14.00,-12.00,-17.00
-5.00,+13.00,-3.00,-33.00,-4.00,-3.00,+0.00,+29.00,-32.00,-18.00,-7.00,+1.00,-1.00,+5.00,-6.00,-11.00
+2.00,+5.00,-2.00,-8.00,-4.00,+4.00,-3.00,+9.00,+12.00,+4.00,-5.00,-5.00,-1.00,+0.00,+10.00,+33.00
+3.00,-4.00,+1.00,+7.00,+2.00,+1.00,-25.00,-14.00,+19.00,-5.00,-4.00,-4.00,-5.00,-1.00,-1.00,+2.00
+0.00,+10.00,+0.00,+11.00,+0.00,-4.00,+57.00,+6.00,-11.00,+10.00,+5.00,-1.00,+2.00,-10.00,-2.00,+10.00
-4.00,-5.00,+2.00,-1.00,-3.00,+1.00,-3.00,-3.00,+20.00,+5.00,+1.00,-2.00,-4.00,+5.00,+9.00,+8.00
-3.00,-2.00,-2.00,+6.00,-5.00,-4.00,+10.00,-3.00,-12.00,-12.00,-3.00,-1.00,-4.00,-3.00,-14.00,-51.00
-6.00,-4.00,-4.00,-3.00,-3.00,-1.00,-14.00,+1.00,-3.00,+9.00,+3.00,+3.00,+1.00,+19.00,+5.00,+56.00
+3.00,+8.00,+1.00,+1.00,-1.00,-3.00,-10.00,-9.00,+12.00,-11.00,-5.00,-2.00,-2.00,+5.00,+1.00,+13.00
+2.00,-1.00,-4.00,+3.00,-2.00,-2.00,-1.00,-10.00,-1.00,-8.00,-1.00,-2.00,-1.00,+3.00,-9.00,+3.00
-2.00,+1.00,+1.00,-8.00,+3.00,+3.00,+3.00,+10.00,-35.00,+7.00,+8.00,+5.00,+5.00,+5.00,+15.00,+17.00
-5.00,-1.00,-1.00,-3.00,-5.00,-3.00,+4.00,-4.00,+14.00,+13.00,+2.00,-2.00,-2.00,-1.00,+0.00,-10.00
-1.00,+3.00,+2.00,-9.00,+0.00,+2.00,-3.00,+0.00,-28.00,-15.00,-6.00,-4.00,-3.00,-6.00,-16.00,-30.00
-1.00,+3.00,+5.00,+7.00,+6.00,+7.00,+13.00,-11.00,+3.00,+2.00,+1.00,+3.00,-1.00,-4.00,+3.00,+8.00
+0.00,-3.00,-6.00,-10.00,-5.00,-11.00,-33.00,+2.00,-8.00,-6.00,-1.00,-2.00,-3.00,+3.00,-1.00,-16.00
+5.00,+5.00,-5.00,-22.00,-5.00,-3.00,+30.00,+29.00,+12.00,+3.00,+0.00,-1.00,+0.00,-16.00,+0.00,-5.00
+2.00,-7.00,+1.00,+7.00,-2.00,-1.00,+1.00,-12.00,+14.00,+2.00,+0.00,+2.00,+64.00,+17.00,-4.00,-1.00
-1.00,-5.00,-1.00,-3.00,-3.00,-1.00,-5.00,-3.00,-1.00,+4.00,-2.00,+1.00,+13.00,+21.00,+1.00,+2.00
-4.00,+8.00,+10.00,+23.00,+7.00,+6.00,+4.00,-29.00,-6.00,-1.00,-2.00,-7.00,-1.00,-4.00,+4.00,-7.00
-2.00,+14.00,+0.00,-1.00,+4.00,-1.00,+0.00,+8.00,-10.00,-3.00,+0.00,+8.00,-9.00,-4.00,-7.00,+11.00
-1.00,-13.00,-4.00,-13.00,+2.00,-2.00,-13.00,+10.00,-8.00,-12.00,-5.00,-12.00,+6.00,-43.00,-11.00,-13.00
+0.00,+0.00,-5.00,+8.00,-7.00,-5.00,-7.00,-23.00,-9.00,-7.00,-2.00,+7.00,+0.00,+36.00,+14.00,-8.00
+1.00,-9.00,-5.00,+3.00,-4.00,-1.00,-3.00,-6.00,-7.00,+4.00,+1.00,+6.00,+11.00,-4.00,-8.00,-5.00
-7.00,+3.00,+2.00,+2.00,-2.00,+0.00,-3.00,-3.00,-19.00,-15.00,-6.00,-6.00,+0.00,+9.00,+4.00,+4.00
-1.00,+4.00,+0.00,+0.00,+1.00,+3.00,-5.00,-9.00,+34.00,+17.00,+3.00,+3.00,+1.00,+7.00,+10.00,+8.00
-1.00,-9.00,-2.00,+2.00,+4.00,+2.00,-2.00,-10.00,+45.00,+6.00,-3.00,-6.00,+1.00,-22.00,-7.00,+8.00
-3.00,+10.00,+1.00,-28.00,-7.00,-5.00,-20.00,+27.00,-35.00,-5.00,-1.00,-1.00,-9.00,+1.00,-3.00,+4.00
-6.00,-4.00,+2.00,+20.00,+6.00,+7.00,+24.00,-14.00,+13.00,+0.00,-4.00,-1.00,-2.00,+13.00,+0.00,-20.00
-4.00,+3.00,-2.00,-3.00,-4.00,+2.00,+7.00,-3.00,-12.00,-8.00,-1.00,-3.00,-21.00,-2.00,-6.00,+2.00
-1.00,+3.00,+0.00,+2.00,+2.00,-5.00,-6.00,+0.00,-31.00,-6.00,+0.00,-3.00,-7.00,-17.00,-2.00,-13.00
+2.00,+0.00,-4.00,-9.00,-2.00,-4.00,-8.00,+7.00,+47.00,-1.00,+0.00,+0.00,-9.00,-4.00,-4.00,+9.00
-3.00,-12.00,-1.00,-5.00,+2.00,+3.00,-4.00,+5.00,-29.00,+6.00,+4.00,-4.00,+8.00,-9.00,-4.00,+16.00
-2.00,+11.00,+0.00,-6.00,-9.00,-4.00,-11.00,+8.00,-12.00,-18.00,-8.00,-3.00,-15.00,+7.00,+6.00,-11.00
+1.00,-13.00,-7.00,+0.00,-3.00,-4.00,-7.00,+7.00,-8.00,+10.00,+2.00,+3.00,-1.00,-1.00,-3.00,+16.00
+0.00,-3.00,+0.00,+1.00,+2.00,-1.00,+7.00,-5.00,+9.00,+4.00,-1.00,+1.00,+7.00,+2.00,+4.00,-2.00
+6.00,-2.00,-3.00,+3.00,-2.00,-5.00,+11.00,-11.00,+2.00,-6.00,-2.00,-2.00,+0.00,+3.00,-3.00,-15.00
-4.00,+2.00,-1.00,-4.00,+1.00,+1.00,+0.00,+1.00,+16.00,+7.00,+0.00,-1.00,-18.00,-33.00,+2.00,-4.00
-4.00,-1.00,+1.00,-10.00,-17.00,-28.00,-2.00,-4.00,-46.00,-22.00,-7.00,-7.00,-8.00,-20.00,-22.00,-15.00
-5.00,-5.00,-1.00,+4.00,+9.00,+36.00,+2.00,+4.00,+1.00,+3.00,-1.00,-1.00,-2.00,+15.00,+7.00,+1.00
+1.00,+3.00,+0.00,+13.00,+20.00,+49.00,-3.00,-3.00,+42.00,+4.00,-1.00,+3.00,+5.00,-3.00,+2.00,-1.00
-2.00,+0.00,-2.00,-10.00,-4.00,-7.00,-34.00,-5.00,-1.00,-1.00,+1.00,+0.00,-10.00,+6.00,+22.00,+16.00
+1.00,+5.00,-3.00,-13.00,-6.00,+0.00,+40.00,+38.00,+7.00,+0.00,-3.00,-5.00,-1.00,-17.00,-6.00,+0.00
-5.00,-7.00,-3.00,-12.00,-5.00,+6.00,+32.00,-21.00,-6.00,-4.00,+0.00,-1.00,+2.00,-2.00,-14.00,-7.00
+2.00,+25.00,+0.00,-1.00,-4.00,-22.00,-26.00,-10.00,+22.00,-8.00,-4.00,-4.00,-7.00,-3.00,+5.00,+3.00
-8.00,-52.00,+0.00,+3.00,+6.00,+8.00,+8.00,-2.00,-39.00,-2.00,-1.00,-2.00,-4.00,+12.00,-13.00,-17.00
-2.00,-4.00,-1.00,-2.00,-2.00,+4.00,-19.00,-10.00,+18.00,+4.00,+0.00,+0.00,+1.00,-13.00,+6.00,+20.00
+2.00,+1.00,+1.00,+1.00,-5.00,-20.00,+2.00,+8.00,+25.00,+7.00,+0.00,+0.00,+0.00,+13.00,+1.00,+8.00
-3.00,+2.00,-2.00,-10.00,-7.00,-6.00,+5.00,+10.00,-29.00,-2.00,-1.00,-2.00,-1.00,+6.00,-3.00,-9.00
+2.00,+9.00,-2.00,+3.00,-2.00,-10.00,-10.00,-14.00,-21.00,-13.00,-5.00,-3.00,-8.00,-12.00,-13.00,-17.00
-3.00,-3.00,+0.00,-7.00,+2.00,-6.00,-10.00,-4.00,+17.00,+5.00,+0.00,-4.00,-1.00,-11.00,-7.00,-17.00
-2.00,-6.00,-1.00,-1.00,+0.00,-3.00,+0.00,+4.00,-54.00,-19.00,-2.00,+0.00,-5.00,-8.00,-3.00,-1.00
-3.00,-3.00,+0.00,-13.00,-3.00,-8.00,+4.00,+25.00,+12.00,+12.00,+2.00,-3.00,-3.00,+15.00,-3.00,-15.00
-1.00,-1.00,-3.00,-19.00,-12.00,-9.00,-23.00,+8.00,+13.00,+10.00,+1.00,+0.00,-2.00,+16.00,-1.00,+13.00
+1.00,-14.00,-1.00,+18.00,+10.00,+1.00,+24.00,-24.00,+34.00,+4.00,-1.00,-3.00,-5.00,-16.00,+5.00,-8.00
+1.00,+3.00,+0.00,+4.00,+3.00,-1.00,-4.00,-24.00,+31.00,+4.00,-1.00,-2.00,-8.00,-26.00,-14.00,-4.00
+1.00,-4.00,-1.00,-9.00,-6.00,-4.00,-8.00,+6.00,-32.00,-12.00,-6.00,-4.00,+36.00,+4.00,+9.00,-16.00
+1.00,+14.00,+3.00,-9.00,+1.00,+11.00,+24.00,+3.00,+4.00,+0.00,+1.00,-1.00,-2.00,+6.00,+1.00,+14.00
+0.00,+9.00,+1.00,-4.00,+1.00,+8.00,-12.00,-3.00,-27.00,-2.00,-1.00,+1.00,-16.00,+5.00,-8.00,+8.00
+0.00,-9.00,+0.00,+5.00,-2.00,-12.00,-24.00,+0.00,-13.00,-2.00,-4.00,-10.00,-27.00,-11.00,+13.00,-6.00
+0.00,-2.00,+0.00,+4.00,+1.00,-10.00,+13.00,-2.00,-18.00,-4.00,-1.00,+6.00,-9.00,+7.00,-3.00,+8.00
-3.00,-8.00,-2.00,+2.00,-1.00,+0.00,+6.00,+1.00,+25.00,+12.00,+3.00,+4.00,+6.00,+3.00,-3.00,-17.00
-2.00,+9.00,-1.00,+3.00,-1.00,+0.00,-5.00,-26.00,-25.00,-10.00,-3.00,+4.00,+15.00,-3.00,-3.00,-17.00
+4.00,-7.00,+3.00,+2.00,-1.00,-2.00,+5.00,+12.00,+20.00,-1.00,-3.00,-1.00,+7.00,+1.00,+1.00,+9.00
-2.00,-8.00,-2.00,-4.00,-7.00,-3.00,-9.00,+3.00,-11.00,+2.00,+0.00,-8.00,-8.00,-9.00,-5.00,-4.00
-1.00,+23.00,+0.00,+4.00,+1.00,-2.00,-19.00,-5.00,-20.00,-13.00,-6.00,-3.00,-2.00,+4.00,+2.00,-19.00
+0.00,-2.00,-1.00,-2.00,+0.00,+9.00,+36.00,+9.00,-2.00,+2.00,+1.00,+2.00,-7.00,+0.00,-6.00,+6.00
-3.00,+1.00,-2.00,+3.00,+3.00,-4.00,-12.00,+16.00,-10.00,+3.00,+1.00,+1.00,+4.00,+6.00,+4.00,+4.00
+2.00,-14.00,-4.00,+3.00,-1.00,-4.00,-25.00,-13.00,+23.00,+5.00,-1.00,-3.00,-2.00,+14.00,+5.00,-1.00
-2.00,-2.00,-5.00,-11.00,-6.00,-3.00,+14.00,+17.00,-9.00,+1.00,+0.00,+4.00,-6.00,-10.00,-5.00,+16.00
+1.00,+0.00,+4.00,-1.00,+2.00,+0.00,-19.00,+2.00,-3.00,-2.00,+0.00,-3.00,+1.00,+13.00,+2.00,+1.00
+4.00,+9.00,-2.00,+7.00,+2.00,+4.00,+8.00,-11.00,+2.00,-3.00,-3.00,-3.00,+4.00,-3.00,-3.00,-14.00
+0.00,+1.00,-1.00,+0.00,-3.00,+1.00,+1.00,-1.00,-9.00,-10.00,-5.00,-2.00,-7.00,-13.00,-12.00,-3.00
+1.00,-4.00,-1.00,+7.00,+1.00,-4.00,-4.00,-13.00,-3.00,-1.00,-2.00,-3.00,-3.00,-37.00,-17.00,+0.00
+2.00,-6.00,-2.00,-5.00,-3.00,-1.00,-9.00,-3.00,-6.00,-3.00,-1.00,-5.00,+1.00,+15.00,+35.00,-1.00
-2.00,+2.00,+1.00,-5.00,+0.00,+4.00,+9.00,+8.00,+0.00,-7.00,-3.00,-2.00,+4.00,+8.00,-5.00,+1.00
-2.00,-2.00,-3.00,-9.00,-5.00,-13.00,-2.00,+2.00,+91.00,-4.00,-3.00,-3.00,-10.00,+0.00,-1.00,-15.00
+0.00,+16.00,+1.00,-3.00,+0.00,+2.00,+0.00,+3.00,+72.00,+4.00,+4.00,+0.00,-6.00,-10.00,+7.00,+6.00
-2.00,-4.00,-4.00,-5.00,+0.00,-8.00,-12.00,-1.00,+13.00,+12.00,+4.00,+3.00,+1.00,-6.00,-10.00,+17.00
-2.00,-3.00,-5.00,-5.00,-8.00,+15.00,+0.00,-5.00,+12.00,-5.00,+0.00,+3.00,+4.00,+0.00,-12.00,-19.00
-4.00,+2.00,+3.00,+6.00,+1.00,-12.00,-3.00,+2.00,-103.00,-10.00,-6.00,-4.00,-8.00,-11.00,+3.00,+20.00
+1.00,+7.00,-2.00,-18.00,+0.00,+1.00,+11.00,+23.00,-73.00,+12.00,+4.00,+3.00,+3.00,+17.00,+11.00,+46.00
+0.00,+8.00,+0.00,-2.00,+3.00,-9.00,-19.00,-3.00,-98.00,+2.00,+0.00,-3.00,-3.00,+3.00,+3.00,-4.00
-2.00,+0.00,-1.00,+8.00,-5.00,-5.00,-1.00,-9.00,-74.00,-2.00,-3.00,+2.00,+1.00,+0.00,-8.00,-7.00
-1.00,-9.00,-3.00,-7.00,-4.00,-1.00,+5.00,-7.00,-62.00,-13.00,-6.00,-3.00,-4.00,-8.00,-11.00,-18.00
-2.00,-12.00,-3.00,-4.00,-3.00,-4.00,-15.00,-1.00,-80.00,-21.00,-5.00,-3.00,+3.00,+21.00,+4.00,-7.00
+0.00,-8.00,+1.00,+7.00,+5.00,+1.00,-4.00,-7.00,+8.00,+13.00,+1.00,-2.00,+5.00,+10.00,+0.00,+23.00
+1.00,+16.00,+1.00,-9.00,-1.00,-7.00,-18.00,+9.00,+7.00,+2.00,+0.00,+0.00,-11.00,-9.00,-7.00,-7.00
+4.00,+0.00,-1.00,-4.00,+0.00,+4.00,+21.00,+4.00,-4.00,-2.00,+1.00,+0.00,-2.00,+3.00,-1.00,-14.00
+0.00,+2.00,+0.00,+6.00,+5.00,+8.00,+8.00,-16.00,+21.00,-6.00,-1.00,+0.00,-4.00,-5.00,-1.00,-1.00
-3.00,+0.00,-3.00,-11.00,-1.00,-2.00,-20.00,+7.00,-24.00,-7.00,-2.00,-2.00,-2.00,-2.00,-4.00,-1.00
+2.00,-15.00,-4.00,+4.00,-2.00,-7.00,+2.00,-15.00,+26.00,-3.00,-3.00,-2.00,+7.00,-16.00,-3.00,-17.00
-3.00,+2.00,-3.00,-6.00,-2.00,-4.00,-26.00,-7.00,-15.00,+0.00,+1.00,+3.00,+2.00,+8.00,+4.00,+7.00
-5.00,-1.00,+1.00,+2.00,+4.00,+6.00,+20.00,-1.00,+9.00,-9.00,-4.00,-4.00,-14.00,-8.00,-6.00,-17.00
+1.00,-3.00,+0.00,+0.00,-4.00,+0.00,+9.00,-4.00,+69.00,+21.00,+1.00,-1.00,+13.00,+8.00,+5.00,+9.00
+2.00,+4.00,+1.00,-8.00,-2.00,-7.00,+1.00,+3.00,+6.00,-1.00,+1.00,+1.00,-2.00,+0.00,+4.00,-3.00
-1.00,-5.00,-2.00,-7.00,-1.00,+4.00,-9.00,-3.00,+6.00,+11.00,+3.00,+2.00,-2.00,+8.00,+0.00,+24.00
+2.00,-8.00,-1.00,+1.00,+4.00,-6.00,-15.00,-5.00,-27.00,-32.00,-12.00,-7.00,-7.00,-9.00,-16.00,-32.00
+1.00,-3.00,+0.00,+6.00,+2.00,+7.00,+45.00,+1.00,+61.00,+38.00,+13.00,+10.00,+8.00,+7.00,+11.00,+36.00
-2.00,-4.00,-3.00,-8.00,+2.00,-6.00,-7.00,+5.00,-9.00,+1.00,+1.00,+0.00,+0.00,+4.00,-1.00,+1.00
-2.00,+14.00,-2.00,+0.00,-4.00,+3.00,+6.00,-4.00,+31.00,+1.00,-2.00,-1.00,+1.00,-9.00,+1.00,+1.00
-4.00,-23.00,+0.00,+8.00,+4.00,+0.00,+5.00,-12.00,-6.00,-2.00,+0.00,-1.00,-3.00,+3.00,+2.00,-9.00
-4.00,-7.00,-4.00,-15.00,-1.00,-3.00,-13.00,-10.00,-17.00,-24.00,-8.00,-6.00,-8.00,+26.00,-10.00,-20.00
-2.00,-7.00,-2.00,+2.00,-1.00,+1.00,+6.00,+3.00,+23.00,+12.00,+2.00,+5.00,+4.00,+7.00,+5.00,+25.00
+0.00,-5.00,-5.00,-5.00,-2.00,-4.00,+6.00,-4.00,-2.00,-1.00,+0.00,-12.00,+11.00,+1.00,+2.00,-7.00
+2.00,+20.00,+2.00,-3.00,-4.00,-1.00,-1.00,-6.00,+16.00,+8.00,+0.00,+11.00,+18.00,-16.00,-2.00,+5.00
-4.00,-6.00,-3.00,-2.00,-3.00,-2.00,-25.00,-2.00,-9.00,-13.00,-5.00,-7.00,-15.00,+9.00,-3.00,-19.00
+3.00,-11.00,+2.00,+1.00,-1.00,-1.00,+56.00,+6.00,+18.00,+12.00,+1.00,+6.00,-21.00,-9.00,+2.00,+16.00
-3.00,+8.00,+2.00,-8.00,+3.00,+4.00,-2.00,+5.00,+4.00,-7.00,-4.00,+0.00,-8.00,+8.00,-7.00,-2.00
+0.00,-3.00,+1.00,-3.00,-3.00,-5.00,-3.00,-1.00,-38.00,-2.00,-3.00,-6.00,+4.00,+4.00,-5.00,-4.00
-2.00,-2.00,+1.00,-4.00,+2.00,+5.00,+5.00,+2.00,+28.00,+1.00,+2.00,+0.00,+8.00,-17.00,-5.00,-11.00
-1.00,-2.00,-3.00,-11.00,-2.00,-3.00,-14.00,+3.00,+3.00,-15.00,-6.00,-5.00,+7.00,+8.00,-4.00,-5.00
+1.00,-9.00,+0.00,+6.00,-2.00,-1.00,+2.00,-7.00,+0.00,+9.00,+6.00,+3.00,+1.00,-7.00,+8.00,+16.00
-3.00,-7.00,-2.00,-5.00,-4.00,+2.00,-1.00,-1.00,+58.00,+22.00,+4.00,+4.00,-5.00,+16.00,+3.00,+4.00
-2.00,-2.00,+2.00,+3.00,+7.00,-9.00,+1.00,-9.00,-16.00,-6.00,+4.00,-6.00,-4.00,-12.00,+6.00,+18.00
-1.00,+18.00,-2.00,-7.00,+0.00,+14.00,-12.00,+10.00,-27.00,-11.00,-20.00,-9.00,-13.00,-10.00,-6.00,-10.00
-4.00,-25.00,-1.00,+4.00,-3.00,-6.00,-5.00,-17.00,-9.00,-11.00,-12.00,-5.00,-8.00,-10.00,-10.00,-12.00
+2.00,+13.00,-8.00,-14.00,-6.00,-5.00,-4.00,+5.00,+43.00,+8.00,+1.00,-9.00,-2.00,-13.00,+1.00,+10.00
-5.00,-15.00,+9.00,+5.00,+3.00,+10.00,+11.00,+5.00,-23.00,-18.00,-5.00,+1.00,+12.00,-7.00,+5.00,-24.00
-4.00,-5.00,-2.00,-2.00,-2.00,-7.00,-3.00,-1.00,+27.00,+6.00,+9.00,+2.00,-7.00,-15.00,+2.00,-2.00
-1.00,+4.00,-1.00,-11.00,-2.00,+0.00,-9.00,+4.00,+4.00,+4.00,+5.00,+7.00,+11.00,+25.00,+9.00,+5.00
+0.00,+3.00,-1.00,+5.00,+5.00,+9.00,+37.00,+14.00,-10.00,-7.00,-4.00,+3.00,-7.00,-13.00,-7.00,-20.00
+1.00,+8.00,-5.00,-9.00,-6.00,-5.00,-5.00,+1.00,+9.00,+2.00,-2.00,+1.00,+5.00,-3.00,-4.00,+6.00
-1.00,+0.00,+0.00,-6.00,+1.00,-2.00,+1.00,-7.00,-2.00,+5.00,+4.00,+0.00,-5.00,+12.00,+5.00,+10.00
-5.00,+0.00,+2.00,-7.00,-1.00,-18.00,+3.00,+4.00,+10.00,+0.00,-2.00,+0.00,+17.00,-11.00,-2.00,-4.00
-3.00,+2.00,+0.00,-5.00,-1.00,+12.00,-6.00,-7.00,-9.00,+3.00,+3.00,-7.00,-28.00,+1.00,+3.00,+11.00
-2.00,+8.00,-2.00,-14.00,-6.00,-16.00,-14.00,+5.00,-20.00,-8.00,-5.00,-4.00,-36.00,-9.00,-7.00,-5.00
+0.00,-13.00,+1.00,+10.00,+10.00,+4.00,+1.00,-14.00,-13.00,-3.00,-3.00,+5.00,+6.00,-4.00,+2.00,+0.00
-2.00,+2.00,-2.00,-2.00,+0.00,+19.00,-1.00,+1.00,+6.00,-3.00,+0.00,+1.00,-8.00,-6.00,-9.00,-13.00
+0.00,-1.00,+0.00,-5.00,-4.00,-8.00,-15.00,-5.00,+13.00,+2.00,-6.00,-2.00,+18.00,+14.00,+0.00,-2.00
+1.00,-1.00,+1.00,-4.00,+1.00,-7.00,+4.00,-2.00,-8.00,-5.00,-5.00,-2.00,+4.00,-9.00,-6.00,-9.00
-2.00,-5.00,-3.00,-3.00,-4.00,+3.00,-14.00,-4.00,-23.00,+1.00,+3.00,-3.00,+3.00,+10.00,-1.00,+13.00
+0.00,-12.00,+1.00,+0.00,+1.00,+2.00,+8.00,-3.00,-40.00,+0.00,+0.00,+0.00,-6.00,-7.00,-3.00,+0.00
+3.00,+1.00,-1.00,-4.00,-1.00,-9.00,-4.00,+4.00,-51.00,-5.00,+0.00,-2.00,+4.00,+12.00,+1.00,+21.00
-3.00,+9.00,-7.00,-15.00,-7.00,+8.00,+0.00,+2.00,+16.00,-1.00,-7.00,-5.00,-5.00,-6.00,+0.00,+8.00
-2.00,-9.00,-5.00,+10.00,-6.00,-12.00,-3.00,+2.00,-5.00,-11.00,-4.00,-5.00,+0.00,-2.00,-2.00,-23.00
+2.00,-3.00,-2.00,+20.00,+2.00,+1.00,+3.00,-7.00,+116.00,+21.00,+6.00,+7.00,+6.00,+3.00,+5.00,-9.00
-2.00,-7.00,+5.00,+9.00,+1.00,-1.00,-22.00,-14.00,+73.00,+8.00,+1.00,+1.00,-6.00,+2.00,+1.00,+5.00
+0.00,+6.00,+2.00,+0.00,+1.00,+1.00,+19.00,+8.00,+101.00,-4.00,-1.00,+4.00,+13.00,-2.00,-5.00,-19.00
+2.00,+4.00,+4.00,-3.00,+4.00,+6.00,-1.00,+6.00,+38.00,+3.00,+2.00,-2.00,+35.00,+4.00,-2.00,-28.00
+1.00,+8.00,+0.00,-3.00,+0.00,+4.00,+9.00,+10.00,+45.00,-8.00,-4.00,-8.00,-44.00,-2.00,+0.00,-9.00
+0.00,-4.00,-2.00,-10.00,-8.00,-1.00,-8.00,-3.00,-31.00,-1.00,-4.00,+7.00,-6.00,+1.00,-3.00,-72.00
-1.00,-4.00,-1.00,+4.00,+2.00,-2.00,-9.00,-6.00,-46.00,-5.00,-1.00,-2.00,+5.00,-3.00,-4.00,-49.00
-2.00,+1.00,+0.00,-3.00,-6.00,-9.00,+3.00,-8.00,+9.00,-2.00,+0.00,-4.00,-14.00,-6.00,+1.00,-23.00
+3.00,+7.00,+0.00,-3.00,-3.00,-10.00,-4.00,-3.00,+0.00,-5.00,-3.00,+4.00,+17.00,+6.00,-3.00,+1.00
+1.00,+3.00,+2.00,-8.00,-4.00,-27.00,+3.00,-5.00,+35.00,-3.00,+1.00,-5.00,+7.00,-2.00,-1.00,+18.00
+1.00,+2.00,+0.00,+14.00,+19.00,+49.00,+9.00,+0.00,+71.00,-4.00,-8.00,-4.00,-16.00,-1.00,-1.00,+38.00
-4.00,+2.00,-4.00,+2.00,-2.00,-10.00,-1.00,-10.00,-38.00,-2.00,-3.00,-1.00,+7.00,+2.00,+0.00,+31.00
+5.00,-6.00,-8.00,+7.00,-8.00,+0.00,-15.00,-11.00,-44.00,+9.00,+9.00,-1.00,+0.00,-3.00,-4.00,+41.00
-6.00,-1.00,+0.00,+4.00,+0.00,-7.00,+1.00,+1.00,-19.00,+0.00,+1.00,+0.00,-2.00,-1.00,-1.00,+20.00
-1.00,+0.00,-5.00,-5.00,-8.00,-16.00,-3.00,+0.00,-59.00,-8.00,-4.00,+3.00,+9.00,+0.00,-3.00,-10.00
-2.00,+18.00,+5.00,-4.00,+1.00,+3.00,-7.00,+2.00,-42.00,+6.00,+1.00,+0.00,+7.00,+2.00,+0.00,+6.00
-3.00,+7.00,+6.00,-2.00,+7.00,+7.00,+8.00,+8.00,-13.00,-10.00,-3.00,-4.00,-15.00,-7.00,-5.00,-9.00
-4.00,-66.00,-7.00,-12.00,-3.00,-6.00,-2.00,+0.00,-4.00,+8.00,-3.00,-9.00,+1.00,+7.00,+0.00,+18.00
+3.00,-83.00,-2.00,-2.00,-16.00,-17.00,-5.00,-3.00,-17.00,-6.00,-5.00,-1.00,+0.00,-2.00,-1.00,+9.00
+3.00,-22.00,-1.00,+5.00,+0.00,+22.00,-1.00,+2.00,+10.00,-6.00,-3.00,+0.00,-1.00,+2.00,-2.00,+10.00
-2.00,+11.00,+1.00,+0.00,+2.00,-8.00,+1.00,+5.00,-12.00,+13.00,+4.00,+2.00,-2.00,-1.00,+5.00,+15.00
-4.00,+45.00,+1.00,+6.00,+12.00,+6.00,+2.00,+2.00,-50.00,-7.00,+3.00,+1.00,+4.00,+0.00,-2.00,-7.00
+1.00,+29.00,-1.00,+15.00,-2.00,+1.00,-5.00,+2.00,-56.00,-3.00,-1.00,+3.00,-2.00,-1.00,-1.00,+6.00
+2.00,-84.00,-5.00,+11.00,-4.00,-10.00,-2.00,+6.00,-4.00,+0.00,-3.00,-3.00,+9.00,-1.00,-3.00,-3.00
+0.00,+5.00,-2.00,+0.00,-14.00,-8.00,+1.00,+9.00,-25.00,+1.00,+1.00,+0.00,-9.00,-2.00,+0.00,-2.00
+0.00,+55.00,+0.00,+4.00,+26.00,+35.00,+3.00,+6.00,-6.00,-2.00,-1.00,-1.00,-3.00,+3.00,+0.00,+1.00
-1.00,+67.00,-4.00,-28.00,-6.00,-7.00,-4.00,-5.00,-32.00,+3.00,+6.00,-2.00,-10.00,-6.00,-2.00,+2.00
-3.00,+3.00,+1.00,-11.00,-13.00,-23.00,+2.00,-3.00,-47.00,-10.00,-2.00,+3.00,+21.00,-7.00,-2.00,-4.00
+0.00,-49.00,+2.00,-4.00,+6.00,+26.00,-3.00,+2.00,+53.00,+0.00,-6.00,-6.00,-35.00,+11.00,+1.00,-7.00
-1.00,+15.00,-3.00,-9.00,-12.00,-10.00,+0.00,-7.00,+12.00,-3.00,-4.00,+3.00,+11.00,+4.00,+0.00,-5.00
+1.00,+30.00,+1.00,+0.00,+3.00,-3.00,-3.00,-3.00,-9.00,-1.00,+4.00,-3.00,-23.00,-6.00,-2.00,-19.00
+0.00,+71.00,+0.00,-7.00,+4.00,+16.00,+6.00,-4.00,+14.00,-8.00,-6.00,+0.00,-3.00,-3.00,-2.00,-26.00
-5.00,-11.00,+2.00,+1.00,+3.00,-7.00,+1.00,-1.00,+0.00,+5.00,-3.00,-9.00,+13.00,-2.00,+2.00,-5.00
-1.00,-12.00,-4.00,-2.00,+0.00,-4.00,-1.00,-4.00,+6.00,-3.00,-3.00,-3.00,-1.00,-7.00,+0.00,+3.00
-3.00,-3.00,+10.00,-12.00,-8.00,+4.00,-1.00,-2.00,-2.00,+7.00,+6.00,+1.00,+1.00,+3.00,+1.00,+13.00
-4.00,+11.00,-9.00,+0.00,+5.00,-3.00,+2.00,-4.00,-7.00,-10.00,-1.00,-5.00,-13.00,-2.00,-3.00,+10.00
-3.00,+28.00,+2.00,-4.00,-7.00,-4.00,+0.00,-4.00,-47.00,-24.00,-14.00,+1.00,+6.00,-5.00,-6.00,-11.00
-2.00,+7.00,-4.00,-1.00,+1.00,+1.00,-7.00,-7.00,+9.00,+22.00,+10.00,+4.00,+4.00,+4.00,+3.00,+16.00
+0.00,+14.00,-7.00,+4.00,-7.00,-19.00,-1.00,-8.00,-17.00,-16.00,-8.00,-1.00,+2.00,-5.00,-5.00,-3.00
-2.00,+38.00,+5.00,-9.00,-2.00,+6.00,-5.00,-3.00,+33.00,-8.00,-3.00,-4.00,-16.00,+7.00,+5.00,+16.00
-1.00,+8.00,-5.00,-3.00,+3.00,-7.00,+0.00,-4.00,-20.00,+48.00,+13.00,+2.00,+13.00,-5.00,-5.00,-5.00
-3.00,+5.00,-2.00,-8.00,-4.00,+3.00,+2.00,-1.00,-33.00,-18.00,-12.00,-4.00,-6.00,-2.00,-2.00,-11.00
-2.00,-25.00,+2.00,-1.00,+6.00,+2.00,+0.00,+2.00,-20.00,-10.00,-2.00,+1.00,+7.00,+0.00,-4.00,+6.00
-2.00,-27.00,-5.00,-5.00,-8.00,-7.00,-7.00,-3.00,+0.00,+11.00,-1.00,+1.00,-1.00,+3.00,+2.00,+10.00
-1.00,-6.00,+2.00,+6.00,+3.00,-17.00,-3.00,+0.00,-5.00,-15.00,+0.00,-2.00,+3.00,-4.00,-1.00,+2.00
+4.00,-25.00,+5.00,+12.00,-6.00,-2.00,+4.00,+4.00,+10.00,+3.00,-3.00,-8.00,-4.00,-2.00,-3.00,-5.00
+0.00,-19.00,+1.00,+35.00,+12.00,+20.00,+4.00,+5.00,-7.00,+8.00,+6.00,-4.00,+1.00,+1.00,+0.00,-7.00
-1.00,-2.00,-1.00,-21.00,+3.00,+0.00,+3.00,+2.00,-11.00,-6.00,-7.00,-5.00,-6.00,-1.00,-2.00,-8.00
-4.00,-4.00,-9.00,-1.00,-8.00,-15.00,-14.00,-7.00,+25.00,-5.00,-1.00,+7.00,+12.00,-4.00,+0.00,-5.00
-3.00,-16.00,+0.00,-5.00,-4.00,+15.00,+6.00,+5.00,+22.00,+6.00,+7.00,+1.00,-7.00,+2.00,+1.00,-9.00
+1.00,-13.00,-4.00,-17.00,-1.00,-8.00,+0.00,-1.00,+20.00,-11.00,+1.00,+1.00,+1.00,+3.00,+0.00,+2.00
-6.00,+8.00,+2.00,-11.00,-15.00,-9.00,-4.00,-1.00,+14.00,-7.00,-1.00,+0.00,-2.00,+0.00,+0.00,+1.00
+6.00,-13.00,-1.00,-3.00,+12.00,+12.00,+5.00,+4.00,+5.00,+10.00,+5.00,+2.00,+8.00,-4.00,-1.00,-3.00
+0.00,-17.00,-1.00,-5.00,-10.00,-3.00,-5.00,-2.00,+34.00,-7.00,+0.00,-1.00,+1.00,-1.00,+0.00,-1.00
-1.00,-10.00,-4.00,-13.00,+17.00,+19.00,+1.00,+6.00,+49.00,+9.00,-6.00,-4.00,-3.00,+2.00,-1.00,+33.00
-1.00,+11.00,+8.00,-7.00,-1.00,-1.00,-2.00,+2.00,+25.00,+10.00,+0.00,-5.00,-6.00,-3.00,-3.00,+23.00
+0.00,+7.00,-1.00,-4.00,-8.00,-13.00,-2.00,+0.00,-20.00,-21.00,-8.00,-9.00,+25.00,-2.00,-3.00,+13.00
-2.00,-2.00,-4.00,-7.00,-13.00,-10.00,-3.00,-2.00,-26.00,-7.00,+0.00,-1.00,-32.00,-1.00,-2.00,+15.00
-5.00,-17.00,-15.00,-17.00,-1.00,-3.00,-1.00,+0.00,-18.00,+25.00,+13.00,-1.00,-7.00,-3.00,+0.00,+17.00
+1.00,+23.00,+30.00,-8.00,+22.00,+9.00,+4.00,+8.00,-23.00,-12.00,-2.00,+8.00,+39.00,+2.00,+1.00,+18.00
-4.00,-17.00,-6.00,+18.00,+7.00,+16.00,+6.00,+1.00,-27.00,-17.00,-13.00,-7.00,-19.00,-5.00,-2.00,+0.00
+3.00,-21.00,+12.00,-1.00,-3.00,-10.00,-5.00,+1.00,+19.00,+6.00,-2.00,+3.00,-5.00,+0.00,+0.00,-22.00
-5.00,+8.00,-4.00,-17.00,-15.00,-3.00,-3.00,-5.00,-9.00,-2.00,-3.00,-1.00,-10.00,+1.00,-1.00,-40.00
-1.00,-11.00,-20.00,+6.00,-27.00,-27.00,-13.00,-9.00,-7.00,+7.00,+5.00,+3.00,-32.00,-1.00,+2.00,-39.00
+1.00,+3.00,+2.00,-4.00,+22.00,+7.00,+0.00,+6.00,-25.00,+5.00,+11.00,+5.00,+12.00,+0.00,-3.00,-35.00
-1.00,+1.00,-8.00,+4.00,+4.00,+8.00,+3.00,+1.00,-20.00,-21.00,-24.00,-15.00,+6.00,-1.00,-2.00,-17.00
+0.00,-11.00,-2.00,-10.00,-3.00,-11.00,-1.00,+1.00,-21.00,-4.00,-1.00,+4.00,+10.00,-3.00,-1.00,-18.00
+0.00,-4.00,-1.00,+6.00,+2.00,+8.00,+1.00,+2.00,-16.00,+2.00,+3.00,-2.00,-1.00,+0.00,-1.00,-13.00
+1.00,+6.00,+3.00,-8.00,-3.00,-8.00,+1.00,-1.00,-6.00,-2.00,-2.00,-1.00,-2.00,+0.00,-3.00,-10.00
+1.00,+2.00,+0.00,-8.00,-3.00,+3.00,-4.00,-4.00,-14.00,+7.00,+12.00,+0.00,+0.00,+0.00,-4.00,-3.00
+3.00,-1.00,+3.00,-3.00,+1.00,+0.00,-3.00,-4.00,-1.00,-7.00,-12.00,-4.00,+7.00,-1.00,+1.00,-4.00
+0.00,+8.00,+1.00,+5.00,+3.00,+1.00,-1.00,-3.00,+4.00,+4.00,+6.00,+2.00,-2.00,-3.00,-2.00,-1.00
-2.00,-7.00,-9.00,-4.00,-12.00,+5.00,-3.00,-1.00,+0.00,-9.00,-13.00,-4.00,-10.00,-3.00,-2.00,-1.00
-4.00,-1.00,-2.00,+12.00,+3.00,+2.00,+4.00,+1.00,-13.00,-3.00,-7.00,-3.00,+3.00,-1.00,-1.00,-1.00
+4.00,-1.00,+2.00,+30.00,-3.00,-16.00,-8.00,-8.00,+15.00,-5.00,+1.00,+0.00,+7.00,+0.00,+1.00,+1.00
+0.00,-23.00,-14.00,-14.00,-22.00,-28.00,-2.00,-6.00,+17.00,+5.00,+0.00,-2.00,-3.00,-2.00,-1.00,-2.00
+3.00,-8.00,-16.00,+23.00,+23.00,+38.00,+2.00,-2.00,+5.00,+11.00,+7.00,+6.00,-2.00,+0.00,+1.00,+3.00
-1.00,+21.00,+19.00,+0.00,-6.00,-8.00,-1.00,-3.00,-5.00,+0.00,+4.00,+4.00,-1.00,-1.00,-2.00,+2.00
+0.00,-23.00,-21.00,+4.00,-2.00,+22.00,+3.00,+2.00,-10.00,-4.00,+0.00,+2.00,+2.00,+0.00,-2.00,-6.00
+4.00,+31.00,+22.00,+17.00,+27.00,+14.00,+2.00,+0.00,+8.00,+0.00,-4.00,-7.00,-14.00,-2.00,-3.00,+3.00
-3.00,+9.00,-5.00,+11.00,-12.00,-19.00,-4.00,-6.00,+8.00,-10.00,-7.00,-8.00,-4.00,-2.00,-2.00,+0.00
+4.00,-12.00,-2.00,+9.00,-18.00,-19.00,-1.00,-2.00,-25.00,-1.00,+0.00,+1.00,+13.00,+1.00,+0.00,+5.00
-7.00,+4.00,+3.00,-4.00,-7.00,-8.00,-3.00,-4.00,+6.00,-2.00,+5.00,-4.00,-7.00,-5.00,-3.00,+0.00
+4.00,-15.00,-7.00,+16.00,+2.00,-47.00,-6.00,+2.00,-34.00,-3.00,-2.00,+4.00,+5.00,-1.00,-2.00,-1.00
-2.00,-5.00,-13.00,-16.00,-22.00,+19.00,+4.00,+2.00,+6.00,+0.00,-2.00,+0.00,-6.00,-1.00,+1.00,+3.00
-5.00,+17.00,+19.00,+20.00,+55.00,+23.00,+1.00,+4.00,+1.00,+0.00,+1.00,+3.00,+2.00,-1.00,+0.00,-1.00
+2.00,+1.00,+4.00,-14.00,-7.00,-7.00,+0.00,-1.00,-18.00,+0.00,+10.00,+4.00,-3.00,-2.00,-3.00,-4.00
+2.00,-14.00,-2.00,+13.00,-6.00,+2.00,-1.00,-3.00,+36.00,-7.00,-13.00,-6.00,-3.00,+3.00,+0.00,+5.00
-1.00,+7.00,+2.00,+4.00,-7.00,-25.00,-9.00,-3.00,+49.00,+14.00,-6.00,-11.00,+17.00,-2.00,+0.00,+6.00
-3.00,-9.00,-19.00,+4.00,-7.00,-11.00,-4.00,+1.00,+4.00,+1.00,+4.00,+4.00,-21.00,+1.00,+0.00,+0.00
-2.00,+18.00,+16.00,-2.00,+8.00,+2.00,+0.00,+6.00,-2.00,+1.00,+1.00,+2.00,-5.00,-2.00,+0.00,+2.00
-6.00,-9.00,-10.00,-10.00,+4.00,+21.00,+6.00,+7.00,-10.00,-9.00,-4.00,-5.00,+5.00,-2.00,-4.00,-6.00
+0.00,+0.00,+8.00,+1.00,-8.00,-8.00,-2.00,-1.00,-2.00,-2.00,+4.00,+4.00,-1.00,+1.00,+1.00,+2.00
+0.00,-12.00,-9.00,-2.00,-2.00,+0.00,-3.00,-3.00,-4.00,-4.00,-5.00,-3.00,+0.00,-2.00,-1.00,+4.00
-3.00,+10.00,+4.00,-2.00,+1.00,-5.00,+0.00,+0.00,+2.00,-2.00,-5.00,-5.00,+0.00,-1.00,-2.00,-2.00
-2.00,-3.00,-2.00,+1.00,-1.00,+12.00,+1.00,+1.00,+19.00,+7.00,+4.00,+0.00,-9.00,-1.00,-3.00,+1.00
+2.00,+7.00,+8.00,-4.00,+2.00,-2.00,-2.00,+2.00,-13.00,-8.00,-2.00,+0.00,-1.00,-1.00,-3.00,-5.00
+1.00,+5.00,-3.00,-11.00,-4.00,-17.00,+2.00,+2.00,-4.00,-2.00,-1.00,-3.00,+5.00,+0.00,-1.00,+1.00
-3.00,+6.00,+7.00,-12.00,-11.00,+14.00,+6.00,+0.00,+7.00,+2.00,-5.00,+2.00,+2.00,+1.00,+1.00,+4.00
+1.00,-6.00,-14.00,+1.00,+15.00,+11.00,-4.00,-6.00,-4.00,+0.00,+1.00,-7.00,+0.00,-2.00,-2.00,+0.00
-2.00,-21.00,-7.00,+2.00,-5.00,-12.00,-8.00,-9.00,-12.00,+3.00,+3.00,+4.00,-3.00,+0.00,-2.00,+0.00
+2.00,-4.00,+15.00,-3.00,+0.00,-2.00,-2.00,-5.00,+10.00,-6.00,+3.00,+0.00,+5.00,+0.00,+0.00,+0.00
+0.00,+0.00,-8.00,-7.00,-5.00,-3.00,+0.00,-3.00,-3.00,-2.00,-8.00,-3.00,+0.00,+0.00,-2.00,+4.00
-1.00,+5.00,+6.00,-8.00,+3.00,+10.00,+4.00,-1.00,-38.00,-8.00,-1.00,+2.00,-2.00,-2.00,-1.00,-10.00
-8.00,-5.00,+4.00,+2.00,+6.00,-13.00,+6.00,+3.00,+83.00,+19.00,+4.00,+6.00,-6.00,+4.00,+5.00,+21.00
-2.00,+5.00,-9.00,-15.00,-10.00,+13.00,-3.00,-5.00,-16.00,+0.00,+1.00,-1.00,+21.00,+0.00,-3.00,-2.00
+0.00,-5.00,-4.00,-7.00,+7.00,-3.00,-5.00,-5.00,-5.00,-4.00,-2.00,-2.00,-25.00,+0.00,-1.00,+3.00
-3.00,-1.00,+0.00,-1.00,-2.00,-13.00,-3.00,-4.00,-10.00,+7.00,+3.00,-3.00,-20.00,-5.00,-1.00,-4.00
-1.00,-4.00,-1.00,+8.00,-3.00,-3.00,+1.00,-5.00,-40.00,-18.00,-10.00,-9.00,-7.00,-3.00,-3.00,-10.00
-4.00,+0.00,-6.00,-2.00,-6.00,-2.00,-1.00,-4.00,+13.00,-2.00,-4.00,+1.00,-3.00,-2.00,-1.00,-1.00
+2.00,-11.00,-8.00,+2.00,+4.00,-2.00,+0.00,-2.00,+6.00,+0.00,+1.00,-4.00,+14.00,-1.00,-1.00,-3.00
+0.00,+24.00,+17.00,+9.00,+0.00,+1.00,+1.00,-3.00,+3.00,+3.00,+6.00,+4.00,+10.00,+2.00,-2.00,-2.00
+1.00,+2.00,-3.00,-9.00,-5.00,+2.00,-4.00,-4.00,-20.00,-4.00,+3.00,+2.00,-6.00,-1.00,-1.00,-7.00
+2.00,-10.00,-1.00,+1.00,+4.00,-1.00,+0.00,-6.00,+16.00,-6.00,-4.00,-3.00,+6.00,-2.00,-1.00,-3.00
+0.00,+7.00,+3.00,-3.00,-2.00,+1.00,+1.00,-3.00,-5.00,+2.00,+3.00,+0.00,+1.00,-1.00,-2.00,-2.00
-3.00,-17.00,-16.00,+3.00,-8.00,-2.00,-3.00,-7.00,+17.00,+10.00,+4.00,+5.00,+6.00,-1.00,+3.00,+8.00
+2.00,-11.00,+8.00,-3.00,+11.00,+0.00,-1.00,-2.00,-6.00,-4.00,-2.00,-4.00,-10.00,-1.00,-2.00,+0.00
-4.00,+1.00,-6.00,-9.00,-3.00,+6.00,-4.00,-3.00,-7.00,-1.00,-5.00,-4.00,-6.00,-2.00,-2.00,-5.00
+0.00,-6.00,-2.00,+8.00,-11.00,-19.00,-3.00,-5.00,-6.00,-5.00,-11.00,-7.00,-6.00,-3.00,-3.00,-4.00
+0.00,+6.00,+7.00,+2.00,+14.00,+10.00,+1.00,-3.00,+15.00,+0.00,-4.00,+1.00,+6.00,-1.00,+0.00,+2.00
-1.00,+42.00,+11.00,-5.00,+1.00,+7.00,+3.00,+0.00,-13.00,-5.00,-1.00,-2.00,+6.00,-1.00,-2.00,-1.00
-5.00,+18.00,+2.00,+2.00,+2.00,-4.00,+0.00,-1.00,+2.00,+3.00,+8.00,+0.00,-4.00,-1.00,-1.00,-2.00
-1.00,+3.00,-2.00,-6.00,+1.00,-10.00,+1.00,+0.00,+5.00,+1.00,-1.00,+0.00,+3.00,-1.00,+0.00,+2.00
-1.00,-19.00,-12.00,-18.00,-8.00,+1.00,-10.00,-4.00,+0.00,+0.00,-3.00,-2.00,+1.00,+0.00,-1.00,-1.00
-5.00,-15.00,+2.00,+1.00,-1.00,+6.00,-2.00,+1.00,-19.00,-6.00,-1.00,+0.00,-2.00,-3.00,-1.00,-7.00
+3.00,-23.00,-1.00,-4.00,+0.00,-2.00,+1.00,+4.00,-4.00,-9.00,+0.00,+3.00,-8.00,-2.00,-4.00,+0.00
-3.00,-18.00,-4.00,-23.00,-30.00,-22.00,-11.00,-6.00,+48.00,+23.00,+4.00,+1.00,+8.00,+2.00,+2.00,+4.00
+4.00,-14.00,+0.00,+41.00,+51.00,+39.00,+6.00,+10.00,-4.00,-2.00,+5.00,-1.00,+17.00,-1.00,+0.00,+3.00
-3.00,+6.00,+0.00,-13.00,-5.00,+15.00,+2.00,-2.00,-11.00,-6.00,-3.00,+2.00,-14.00,+1.00,-2.00,-6.00
+0.00,-8.00,-7.00,-15.00,-9.00,-2.00,-4.00,-2.00,-25.00,-5.00,-11.00,-6.00,-23.00,-8.00,-3.00,-9.00
+0.00,+4.00,+15.00,+5.00,+7.00,+19.00,+4.00,+4.00,-11.00,-6.00,-2.00,-1.00,-14.00,-2.00,+0.00,+2.00
-2.00,-10.00,-5.00,-13.00,-19.00,-24.00,-4.00,+0.00,-1.00,-6.00,-7.00,-1.00,-4.00,+1.00,-3.00,-3.00
-2.00,+7.00,+8.00,-8.00,-3.00,-9.00,+0.00,+7.00,+11.00,-7.00,-3.00,-1.00,+18.00,+0.00,-2.00,+0.00
-2.00,+8.00,-2.00,-6.00,+11.00,+16.00,+4.00,+7.00,+2.00,+13.00,+4.00,+1.00,+6.00,+5.00,+3.00,+6.00
-4.00,-18.00,-8.00,-6.00,-11.00,-17.00,-7.00,-1.00,-2.00,+0.00,+3.00,+1.00,+0.00,+1.00,-1.00,+0.00
-5.00,-13.00,-1.00,-14.00,-5.00,-8.00,-1.00,+2.00,-8.00,+1.00,+5.00,-3.00,-2.00,-1.00,-1.00,-4.00
+0.00,+5.00,+2.00,+8.00,+0.00,+4.00,+2.00,+9.00,-28.00,-9.00,-3.00,+0.00,-1.00,-3.00,-2.00,-4.00
-2.00,-9.00,-5.00,-2.00,-8.00,-13.00,-2.00,+1.00,+19.00,+9.00,+1.00,+3.00,+7.00,+2.00,+1.00,+5.00
+2.00,+0.00,-6.00,-3.00,+9.00,+6.00,-3.00,+1.00,+14.00,+3.00,-2.00,-2.00,+0.00,-2.00,+0.00,+2.00
-2.00,-1.00,-6.00,+0.00,-11.00,-3.00,-2.00,+1.00,-1.00,+0.00,+2.00,-2.00,-1.00,-1.00,-2.00,-2.00
-3.00,-3.00,+0.00,-6.00,-1.00,+4.00,+0.00,+2.00,-5.00,-3.00,-3.00,-2.00,-3.00,-2.00,-1.00,-2.00
+1.00,+12.00,+2.00,-9.00,-2.00,-5.00,+0.00,+3.00,+1.00,-3.00,-2.00,+0.00,-13.00,-4.00,-3.00,-5.00
-5.00,+4.00,+0.00,+5.00,+3.00,+5.00,+1.00,+0.00,-10.00,-9.00,-5.00,-2.00,+15.00,+2.00,-1.00,-5.00
+2.00,-1.00,-3.00,-1.00,-8.00,-1.00,-3.00,-1.00,+9.00,+1.00,-6.00,-2.00,-7.00,+0.00,-1.00,+0.00
+5.00,+3.00,-3.00,-3.00,-5.00,-10.00,-3.00,-1.00,+4.00,+3.00,+1.00,+0.00,-3.00,-2.00,+0.00,+0.00
+1.00,+7.00,+4.00,+0.00,-2.00,-1.00,-2.00,+0.00,+3.00,+0.00,+4.00,-1.00,+7.00,+0.00,-1.00,+0.00
-1.00,+0.00,+2.00,+11.00,+8.00,+3.00,+4.00,+2.00,-22.00,-11.00,+1.00,+2.00,+0.00,-2.00,-3.00,-3.00
+0.00,-9.00,+12.00,+7.00,-6.00,+11.00,+4.00,+3.00,+23.00,+13.00,+3.00,+3.00,-4.00,+0.00,-1.00,-1.00
+2.00,+23.00,-4.00,-3.00,-22.00,-17.00,-4.00,-6.00,+5.00,+1.00,-1.00,-8.00,-2.00,+0.00,+1.00,+3.00
+1.00,-6.00,-9.00,+14.00,+31.00,+32.00,-4.00,-7.00,-6.00,-7.00,-6.00,-4.00,+2.00,+0.00,-2.00,-5.00
+1.00,-7.00,-6.00,+7.00,+0.00,+13.00,+5.00,-4.00,+14.00,-6.00,-10.00,-2.00,+2.00,-2.00,-2.00,-1.00
+0.00,+0.00,-7.00,+19.00,-14.00,-21.00,-3.00,-8.00,+4.00,-3.00,+4.00,+0.00,-5.00,-1.00,-1.00,-4.00
-1.00,-12.00,-6.00,+5.00,+11.00,+8.00,-4.00,-4.00,+3.00,+7.00,+0.00,-1.00,-1.00,-1.00,+1.00,+5.00
+0.00,+2.00,-1.00,+6.00,-4.00,-2.00,+3.00,-3.00,+14.00,-1.00,+1.00,+0.00,+9.00,-1.00,-2.00,-1.00
+2.00,+4.00,+11.00,+4.00,+4.00,-2.00,-2.00,-2.00,+1.00,-1.00,-1.00,+1.00,-4.00,-3.00,+0.00,+1.00
-5.00,+6.00,-2.00,-4.00,-2.00,-2.00,+1.00,-1.00,-8.00,-7.00,+0.00,-1.00,-5.00,-3.00,+0.00,-1.00
+1.00,-8.00,-4.00,+6.00,-2.00,+0.00,+1.00,+0.00,-8.00,+0.00,+0.00,+0.00,-5.00,-1.00,+1.00,-2.00
-2.00,+0.00,-4.00,+1.00,-3.00,-11.00,-3.00,-4.00,+4.00,-2.00,-5.00,-2.00,-2.00,-1.00,-2.00,-2.00
+1.00,-2.00,+2.00,+1.00,+5.00,+1.00,+0.00,-1.00,+2.00,+0.00,+0.00,-2.00,+18.00,+4.00,-1.00,+0.00
-2.00,+5.00,+0.00,+4.00,-3.00,-13.00,+1.00,+1.00,-3.00,-3.00,-1.00,+3.00,-14.00,+3.00,-1.00,+0.00
+0.00,-10.00,-7.00,-1.00,+2.00,+6.00,-3.00,-3.00,-3.00,-5.00,-3.00,+1.00,-3.00,-3.00,-3.00,-3.00
-1.00,+3.00,+1.00,+1.00,-9.00,-6.00,-2.00,-2.00,-8.00,+2.00,+4.00,+5.00,-2.00,+1.00,+1.00,-1.00
+1.00,+9.00,-1.00,+2.00,-4.00,-7.00,-3.00,-3.00,-7.00,-4.00,+0.00,-9.00,-11.00,-3.00,-2.00,-3.00
+5.00,+3.00,+3.00,+16.00,-2.00,+11.00,+0.00,-1.00,-7.00,-4.00,-14.00,-7.00,+16.00,+0.00,-1.00,-2.00
+1.00,-5.00,+1.00,+0.00,+4.00,-5.00,-1.00,-2.00,-12.00,-8.00,-1.00,-1.00,-2.00,+0.00,-3.00,-2.00
-2.00,+0.00,-4.00,-10.00,-7.00,-7.00,-2.00,+1.00,+7.00,+5.00,+3.00,+7.00,+12.00,+1.00,-1.00,-33.00
-1.00,+2.00,+3.00,-10.00,+5.00,+3.00,-1.00,-1.00,+8.00,+3.00,+1.00,-4.00,-3.00,-2.00,-1.00,-14.00
-1.00,+15.00,+2.00,+17.00,+0.00,+1.00,+4.00,+3.00,-38.00,-8.00,-4.00,-6.00,-24.00,-6.00,-4.00,-8.00
-4.00,-14.00,-14.00,+9.00,+7.00,+0.00,+1.00,+0.00,+60.00,+5.00,+8.00,+1.00,+1.00,+0.00,+0.00,+15.00
-1.00,-7.00,+12.00,-4.00,-14.00,-6.00,-4.00,-5.00,-10.00,-5.00,-11.00,-3.00,+1.00,-14.00,-1.00,+21.00
-1.00,+0.00,-1.00,+3.00,+1.00,-9.00,-6.00,-6.00,+14.00,+13.00,+0.00,+2.00,+23.00,+19.00,-2.00,+2.00
-4.00,+2.00,-7.00,+14.00,+2.00,+6.00,-2.00,+0.00,+1.00,-4.00,-6.00,-4.00,-13.00,-2.00,-1.00,+11.00
+1.00,-5.00,+3.00,+3.00,-5.00,-4.00,+4.00,+0.00,-4.00,+2.00,+2.00,+2.00,+2.00,+0.00,-2.00,+2.00
-1.00,-6.00,+0.00,-5.00,-5.00,-27.00,-2.00,+0.00,-15.00,-2.00,+5.00,+0.00,-4.00,+1.00,+1.00,+6.00
-2.00,-2.00,-1.00,-3.00,+10.00,+36.00,+5.00,+3.00,+24.00,+0.00,-2.00,-1.00,-12.00,-7.00,+0.00,+5.00
+0.00,-1.00,+4.00,+1.00,-6.00,+14.00,-1.00,-1.00,-5.00,-3.00,+0.00,-2.00,+6.00,-2.00,-1.00,+0.00
+0.00,+2.00,+1.00,+6.00,+6.00,+3.00,+4.00,+4.00,-25.00,+1.00,-5.00,+2.00,+5.00,+1.00,+1.00,-5.00
-1.00,-11.00,-3.00,-6.00,-1.00,-4.00,-5.00,-6.00,+4.00,-4.00,+1.00,-3.00,+1.00,+2.00,-2.00,+1.00
+1.00,-4.00,-4.00,+4.00,-13.00,-16.00,-3.00,-1.00,-26.00,-5.00,-3.00,+1.00,+4.00,-4.00,+0.00,+1.00
-2.00,+2.00,-1.00,+2.00,-1.00,-9.00,-2.00,-1.00,+0.00,+0.00,+5.00,+0.00,-2.00,+3.00,-1.00,-2.00
+2.00,-1.00,+0.00,-5.00,+1.00,+7.00,+2.00,-1.00,-8.00,-4.00,-4.00,-9.00,-12.00,-4.00,-2.00,-4.00
-1.00,-3.00,+5.00,+1.00,+3.00,+3.00,-2.00,-2.00,-2.00,-3.00,-5.00,-5.00,+0.00,+2.00,+0.00,+1.00
-1.00,+18.00,-4.00,+4.00,-5.00,-16.00,-2.00,+2.00,-6.00,-5.00,-4.00,-1.00,-10.00,-3.00,-2.00,-3.00
+4.00,-14.00,-7.00,+5.00,+2.00,+8.00,-1.00,-4.00,+3.00,+5.00,+5.00,+4.00,-3.00,-2.00,-1.00,-2.00
+1.00,+13.00,+5.00,-3.00,-8.00,-13.00,-5.00,-4.00,-2.00,-1.00,+6.00,+5.00,+3.00,+1.00,+1.00,-5.00
+2.00,+0.00,-2.00,+2.00,+6.00,+8.00,+1.00,+1.00,-9.00,+3.00,-1.00,-3.00,-11.00,+1.00,-2.00,-2.00
-1.00,-15.00,-8.00,-1.00,-5.00,+12.00,+0.00,-2.00,+8.00,-9.00,-8.00,-4.00,-4.00,-3.00,-2.00,+0.00
-2.00,+10.00,+4.00,-1.00,+2.00,+3.00,-2.00,+0.00,-2.00,+0.00,-1.00,+0.00,+11.00,+0.00,+0.00,-2.00
+0.00,+11.00,+3.00,+0.00,+2.00,+4.00,-1.00,+1.00,-10.00,-4.00,-2.00,+1.00,-22.00,-2.00,-3.00,-4.00
+1.00,-1.00,+1.00,-7.00,+0.00,+5.00,+6.00,+0.00,-2.00,-9.00,-2.00,-2.00,+1.00,+2.00,+1.00,+1.00
-2.00,-5.00,+0.00,+16.00,-9.00,-12.00,-8.00,+0.00,-14.00,-4.00,-1.00,-2.00,-5.00,-4.00,-1.00,-2.00
+1.00,-8.00,-8.00,+0.00,-1.00,-8.00,-3.00,-2.00,+1.00,+0.00,-3.00,+1.00,+9.00,+0.00,-1.00,-4.00
-3.00,-11.00,-5.00,+4.00,+1.00,-1.00,-5.00,-1.00,-1.00,+4.00,+0.00,-1.00,+10.00,+2.00,-3.00,-5.00
+2.00,+8.00,+1.00,+5.00,-3.00,-21.00,+0.00,+3.00,-14.00,+3.00,+3.00,+2.00,-24.00,-4.00,-1.00,-5.00
-1.00,+5.00,+4.00,-5.00,+10.00,+37.00,+7.00,+0.00,+1.00,-3.00,+3.00,-3.00,-4.00,-2.00,+0.00,-5.00
+3.00,-6.00,+1.00,-10.00,+1.00,-5.00,+0.00,+0.00,-2.00,+3.00,+0.00,-1.00,-6.00,+0.00,+0.00,+2.00
-6.00,-6.00,+0.00,+8.00,+3.00,+7.00,+0.00,+0.00,+11.00,-4.00,-3.00,+2.00,+17.00,+0.00,-1.00,+0.00
-2.00,-4.00,-12.00,-7.00,-7.00,-7.00,-3.00,-4.00,-1.00,-9.00,-10.00,-7.00,+4.00,+0.00,-2.00,-3.00
+0.00,-9.00,-4.00,+0.00,-5.00,-14.00,-2.00,-4.00,-15.00,+0.00,-3.00,-3.00,-9.00,-2.00,-2.00,+0.00
+1.00,+15.00,+10.00,+8.00,-6.00,-8.00,-3.00,-1.00,-4.00,-4.00,+0.00,+4.00,+7.00,-1.00,-3.00,-3.00
-1.00,+1.00,+0.00,-1.00,+5.00,+0.00,+2.00,+1.00,-14.00,+3.00,+3.00,+0.00,-6.00,-3.00,+0.00,+1.00
-2.00,-2.00,+1.00,-1.00,+2.00,+15.00,-1.00,-5.00,+15.00,+5.00,+1.00,+1.00,-3.00,-3.00,-1.00,-1.00
-1.00,-7.00,-5.00,-3.00,+2.00,-10.00,-2.00,-6.00,-1.00,-3.00,-7.00,-1.00,-1.00,+0.00,-1.00,-2.00
-1.00,+0.00,+0.00,-24.00,-4.00,+1.00,+0.00,+0.00,+4.00,-1.00,-1.00,-4.00,+3.00,-1.00,-1.00,-2.00
-1.00,-8.00,-1.00,-5.00,-12.00,-14.00,-4.00,+0.00,-1.00,-1.00,-2.00,-3.00,+0.00,-1.00,+0.00,+0.00
-2.00,+3.00,+1.00,+7.00,+20.00,+13.00,+1.00,+4.00,-1.00,+0.00,+2.00,+0.00,-7.00,-1.00,-2.00,-2.00
-3.00,-10.00,-17.00,-3.00,-4.00,-7.00,-1.00,-3.00,-29.00,-1.00,+4.00,+2.00,+27.00,+2.00,-2.00,+1.00
-1.00,+10.00,+10.00,-15.00,-2.00,-10.00,+0.00,-2.00,+35.00,+11.00,+1.00,+1.00,-27.00,-2.00,+2.00,+2.00
-2.00,-4.00,+8.00,-4.00,+5.00,+7.00,+0.00,+0.00,-5.00,-4.00,+2.00,-1.00,+3.00,+1.00,-1.00,-1.00
-1.00,+0.00,+0.00,-2.00,-3.00,+9.00,+2.00,+2.00,-1.00,-9.00,+0.00,-2.00,+2.00,+0.00,+0.00,+3.00
+0.00,+1.00,-1.00,+2.00,+0.00,-2.00,+2.00,+0.00,+1.00,-8.00,-12.00,-4.00,-2.00,-3.00,-2.00,-5.00
-2.00,-12.00,-11.00,-19.00,+3.00,-5.00,-2.00,-3.00,-8.00,-5.00,-9.00,-2.00,+9.00,+0.00,-1.00,-1.00
+0.00,-2.00,-7.00,-16.00,-33.00,-20.00,-6.00,-1.00,+3.00,+4.00,+1.00,-3.00,-6.00,-3.00,+0.00,-2.00
+2.00,-4.00,+0.00,+13.00,+35.00,+20.00,+1.00,+5.00,+4.00,+5.00,+8.00,+0.00,+7.00,-1.00,-1.00,+1.00
+0.00,+20.00,+16.00,-4.00,+1.00,-7.00,-2.00,+0.00,+3.00,+3.00,+4.00,+4.00,-6.00,-1.00,-1.00,+0.00
-6.00,-14.00,-10.00,-6.00,-1.00,+5.00,+2.00,-1.00,-5.00,-7.00,-5.00,-1.00,-9.00,+0.00,-2.00,+1.00
-2.00,+18.00,+13.00,-2.00,+6.00,+8.00,+4.00,+1.00,+3.00,+1.00,+0.00,+2.00,+23.00,-2.00,-2.00,-2.00
-4.00,-28.00,-10.00,-1.00,-24.00,-29.00,-9.00,-8.00,-1.00,+2.00,-2.00,+0.00,+16.00,+2.00,-1.00,+3.00
+0.00,+3.00,-2.00,-3.00,-4.00,-4.00,-5.00,-3.00,+1.00,+2.00,+4.00,+0.00,-24.00,-2.00,-1.00,-1.00
+0.00,+3.00,-1.00,+3.00,-1.00,-6.00,+0.00,+0.00,-4.00,+1.00,+0.00,-2.00,-10.00,-1.00,-1.00,-1.00
+1.00,+2.00,-10.00,+6.00,+8.00,+14.00,-3.00,-3.00,-1.00,-3.00,-4.00,-4.00,+1.00,-2.00,-1.00,-1.00
+2.00,+4.00,+0.00,+2.00,-9.00,+2.00,+4.00,-3.00,+1.00,+0.00,-2.00,+4.00,+4.00,+0.00,+0.00,-2.00
+0.00,-2.00,+5.00,+10.00,+5.00,-3.00,+0.00,+1.00,+4.00,-2.00,+0.00,-5.00,-4.00,+0.00,+0.00,-1.00
-2.00,-7.00,+1.00,+8.00,-8.00,+8.00,+0.00,-2.00,-2.00,-3.00,+3.00,+3.00,+14.00,-6.00,-3.00,-1.00
+3.00,-5.00,-2.00,+13.00,+5.00,-9.00,-1.00,+1.00,-3.00,-4.00,-12.00,-4.00,-6.00,+1.00,-3.00,-2.00
+1.00,+9.00,+3.00,+0.00,-2.00,-2.00,-2.00,-3.00,-3.00,-1.00,+3.00,+1.00,-4.00,-1.00,-2.00,-2.00
+0.00,-3.00,-1.00,+1.00,-1.00,+11.00,+2.00,+0.00,-8.00,-3.00,-2.00,-2.00,-3.00,-3.00,-2.00,-5.00
-1.00,-11.00,-15.00,+10.00,-5.00,-18.00,-5.00,-1.00,-23.00,-13.00,-10.00,-5.00,+1.00,-1.00,-4.00,-7.00
-2.00,+27.00,+19.00,+1.00,+4.00,+2.00,+3.00,+3.00,+40.00,+22.00,+2.00,+0.00,-2.00,+1.00,+5.00,+11.00
-2.00,-10.00,-10.00,+0.00,-6.00,+1.00,-1.00,+1.00,-2.00,-1.00,+1.00,+0.00,+5.00,+0.00,-1.00,-1.00
+1.00,-7.00,-1.00,+2.00,-11.00,-14.00,-6.00,-6.00,-2.00,+2.00,+6.00,+2.00,+2.00,-1.00,+2.00,+3.00
-4.00,-9.00,-1.00,+14.00,-2.00,-7.00,-4.00,-3.00,-6.00,+0.00,+5.00,-2.00,+2.00,-1.00,-1.00,-4.00
+0.00,-14.00,-7.00,+6.00,+0.00,-15.00,-5.00,-3.00,-13.00,-13.00,-5.00,-2.00,-5.00,-2.00,-3.00,-8.00
+1.00,+4.00,+2.00,-2.00,-3.00,+17.00,+2.00,+0.00,+2.00,+2.00,-1.00,-3.00,-5.00,+0.00,+0.00,+3.00
-2.00,+1.00,+1.00,+2.00,+8.00,-2.00,+0.00,+3.00,+3.00,+0.00,-1.00,-2.00,-2.00,-2.00,-1.00,+1.00
-3.00,+0.00,-1.00,-8.00,+1.00,+16.00,+7.00,+2.00,+2.00,-1.00,-1.00,+1.00,+3.00,+1.00,-1.00,+3.00
-1.00,-5.00,-2.00,-10.00,+0.00,-9.00,-3.00,-1.00,-5.00,-1.00,-2.00,+1.00,-1.00,-1.00,+0.00,-2.00
+0.00,+7.00,+3.00,-6.00,-6.00,-9.00,-1.00,-3.00,+4.00,-1.00,+0.00,-1.00,-3.00,-1.00,-2.00,-4.00
+0.00,-4.00,-4.00,-11.00,-2.00,-4.00,-1.00,+1.00,-6.00,-3.00,+3.00,+4.00,+0.00,-2.00,-3.00,-1.00
+3.00,+4.00,+3.00,-12.00,+2.00,-9.00,-2.00,-1.00,+3.00,+1.00,-2.00,-3.00,-1.00,+0.00,+0.00,-2.00
-4.00,-2.00,-2.00,+1.00,+3.00,+25.00,+1.00,-1.00,-6.00,-7.00,-2.00,-4.00,-14.00,-3.00,-2.00,-2.00
-1.00,+0.00,-1.00,-13.00,-10.00,-17.00,+0.00,+0.00,-6.00,-2.00,-11.00,-4.00,+5.00,+0.00,-2.00,-4.00
-2.00,+1.00,+1.00,-2.00,+11.00,+32.00,+5.00,-1.00,+4.00,+1.00,-2.00,-2.00,+11.00,-1.00,-3.00,-1.00
+1.00,-3.00,-3.00,+3.00,-9.00,-12.00,-7.00,-6.00,+6.00,+4.00,+4.00,-2.00,-17.00,-3.00,+1.00,+4.00
-6.00,-8.00,-7.00,-13.00,+0.00,-2.00,-3.00,-3.00,-6.00,+1.00,+5.00,+2.00,+0.00,+0.00,-4.00,-8.00
-2.00,-7.00,-1.00,+1.00,-2.00,-2.00,+0.00,-1.00,+4.00,-8.00,-6.00,-1.00,-8.00,-2.00,+0.00,+32.00
-2.00,+19.00,+11.00,+4.00,+0.00,-6.00,+2.00,+0.00,-4.00,-4.00,-5.00,-2.00,+3.00,-1.00,+16.00,-38.00
+0.00,-8.00,-6.00,-16.00,-1.00,-3.00,-5.00,-3.00,+4.00,+0.00,+2.00,+1.00,+7.00,+0.00,-9.00,-11.00
+0.00,+1.00,+0.00,+8.00,-2.00,-6.00,+0.00,-4.00,-8.00,-3.00,-2.00,-1.00,-3.00,-2.00,+0.00,-9.00
+0.00,-13.00,-1.00,-5.00,-18.00,-5.00,-1.00,-3.00,+2.00,+8.00,+7.00,+1.00,+3.00,-5.00,-19.00,-14.00
-1.00,+2.00,+3.00,-12.00,+11.00,+0.00,+0.00,+0.00,+6.00,+3.00,+2.00,-1.00,-5.00,+2.00,+7.00,+60.00
-4.00,+1.00,-1.00,+4.00,+3.00,+8.00,+2.00,+2.00,-4.00,-6.00,-7.00,-6.00,+0.00,-1.00,+0.00,-9.00
-1.00,+3.00,+0.00,-1.00,-2.00,-3.00,+0.00,-1.00,-8.00,-9.00,-5.00,-1.00,-2.00,-1.00,-1.00,-16.00
+3.00,-2.00,-1.00,-5.00,-1.00,+11.00,+1.00,-1.00,-41.00,-6.00,-4.00,-5.00,-1.00,+0.00,-13.00,+4.00
+3.00,-7.00,-7.00,+0.00,-10.00,-5.00,-3.00,-2.00,+58.00,+12.00,+6.00,+6.00,+27.00,+2.00,-11.00,+56.00
+2.00,+2.00,+1.00,+1.00,+0.00,-3.00,-1.00,-2.00,+7.00,+3.00,+4.00,-1.00,-29.00,-1.00,+6.00,-4.00
-1.00,-8.00,-6.00,-6.00,+2.00,+3.00,-1.00,-2.00,-2.00,-4.00,+10.00,+4.00,+2.00,-3.00,-5.00,+6.00
-3.00,+5.00,+0.00,+3.00,+5.00,+2.00,+2.00,+1.00,-11.00,-4.00,-13.00,-2.00,+16.00,+3.00,+7.00,-11.00
+1.00,+13.00,+11.00,-4.00,-1.00,-2.00,-1.00,-2.00,-52.00,-19.00,-9.00,-12.00,-14.00,-6.00,-14.00,-41.00
+1.00,+5.00,+3.00,-6.00,+1.00,+4.00,+2.00,-1.00,+29.00,+6.00,+0.00,+0.00,+36.00,+3.00,+9.00,+36.00
+0.00,-8.00,-11.00,+6.00,-6.00,-9.00,-5.00,-4.00,-2.00,+0.00,-2.00,+2.00,-21.00,+2.00,+0.00,-1.00
-1.00,-7.00,-11.00,-6.00,+1.00,-7.00,-4.00,-5.00,+4.00,-1.00,+5.00,+5.00,-24.00,-3.00,+3.00,+0.00
+1.00,-7.00,-4.00,+2.00,-1.00,-9.00,-4.00,-4.00,-29.00,-5.00,-4.00,-2.00,-6.00,-2.00,-5.00,-29.00
+0.00,-3.00,+7.00,-2.00,+4.00,+11.00,+6.00,+22.00,+2.00,+10.00,-1.00,+0.00,+12.00,+0.00,-2.00,+3.00
+0.00,+11.00,+3.00,-4.00,+2.00,+7.00,+5.00,+6.00,-1.00,-6.00,-3.00,-6.00,+1.00,+0.00,+2.00,+12.00
+2.00,-5.00,+2.00,+2.00,+5.00,+11.00,+10.00,+63.00,+11.00,+0.00,+2.00,-3.00,+4.00,+0.00,+4.00,-3.00
-12.00,-3.00,-5.00,+5.00,-7.00,+1.00,-7.00,-14.00,+8.00,+2.00,-4.00,+5.00,-2.00,+1.00,-2.00,-9.00
-1.00,+3.00,+1.00,-9.00,+0.00,-2.00,+9.00,+87.00,-12.00,-9.00,-4.00,+3.00,-7.00,-2.00,-5.00,-9.00
+0.00,-11.00,-2.00,+9.00,-2.00,+1.00,-10.00,-31.00,+3.00,+7.00,+0.00,+0.00,+9.00,+1.00,-2.00,+1.00
-1.00,+5.00,+2.00,-3.00,+7.00,+4.00,+3.00,+51.00,+1.00,-6.00,-3.00,-2.00,-6.00,+0.00,+2.00,-4.00
+5.00,-20.00,-19.00,+20.00,-15.00,-14.00,+10.00,-25.00,+3.00,+6.00,+4.00,+0.00,-10.00,-2.00,+0.00,-7.00
+4.00,+7.00,+16.00,+16.00,-2.00,+3.00,+0.00,+9.00,-8.00,-9.00,+0.00,-5.00,-11.00,-6.00,-4.00,-4.00
-2.00,-2.00,-9.00,-7.00,-1.00,-10.00,+0.00,+57.00,-5.00,+0.00,-6.00,-6.00,-3.00,+14.00,+1.00,-6.00
+0.00,+4.00,-1.00,-5.00,+4.00,-3.00,-5.00,+3.00,+14.00,+7.00,+5.00,+3.00,-9.00,-3.00,+0.00,-9.00
+2.00,-1.00,+6.00,-10.00,+9.00,+10.00,+1.00,-7.00,+0.00,-4.00,-2.00,-2.00,-15.00,-2.00,+3.00,+2.00
-1.00,-20.00,-3.00,+6.00,-3.00,-8.00,-11.00,-47.00,-4.00,-2.00,+0.00,-4.00,+3.00,+0.00,-3.00,-2.00
-1.00,-4.00,-4.00,-2.00,-3.00,+1.00,+1.00,-2.00,+1.00,-3.00,-8.00,+2.00,+16.00,-5.00,-2.00,+6.00
-2.00,+8.00,+12.00,-2.00,-2.00,-8.00,-5.00,-42.00,-1.00,+0.00,-1.00,-8.00,-6.00,-1.00,-4.00,-23.00
-1.00,+0.00,-10.00,-15.00,-32.00,-17.00,-7.00,+13.00,-2.00,+1.00,+2.00,+4.00,+6.00,+2.00,-1.00,-4.00
-7.00,+1.00,+1.00,+20.00,+46.00,+20.00,+2.00,-25.00,+8.00,+0.00,-2.00,+0.00,+1.00,-4.00,+1.00,-1.00
+0.00,+1.00,+4.00,-15.00,-9.00,+4.00,-2.00,-11.00,+10.00,-1.00,-1.00,-4.00,+0.00,-3.00,+0.00,+4.00
+1.00,+1.00,-3.00,-9.00,+2.00,-10.00,-7.00,-22.00,+7.00,+0.00,+0.00,+0.00,+2.00,+0.00,+2.00,+8.00
-2.00,+3.00,+0.00,-13.00,+4.00,+7.00,+1.00,+1.00,+10.00,+4.00,+9.00,+4.00,+0.00,-2.00,-1.00,+2.00
-1.00,-16.00,-23.00,-14.00,-13.00,-19.00,-3.00,+1.00,-6.00,+2.00,-9.00,-4.00,+1.00,-1.00,-3.00,-8.00
-2.00,+23.00,+22.00,+2.00,-1.00,-3.00,-1.00,-10.00,+4.00,-3.00,-5.00,-3.00,-8.00,-5.00,-7.00,-37.00
-4.00,-7.00,-11.00,-1.00,-3.00,+0.00,+2.00,-22.00,+0.00,-5.00,-14.00,-4.00,+0.00,-1.00,+2.00,+9.00
+0.00,+3.00,+9.00,-14.00,+6.00,-1.00,+0.00,+7.00,-1.00,-2.00,-4.00,-4.00,+3.00,-1.00,+0.00,-2.00
-2.00,+18.00,-1.00,-10.00,-6.00,-1.00,-3.00,-24.00,-8.00,-2.00,+6.00,+4.00,-5.00,+1.00,+0.00,-16.00
-1.00,-9.00,-10.00,-2.00,+5.00,-1.00,-1.00,-3.00,+1.00,+5.00,+6.00,+3.00,+3.00,-2.00,-11.00,+12.00
-5.00,-2.00,-1.00,-5.00,-12.00,-14.00,-2.00,-15.00,-9.00,-3.00,-1.00,-1.00,+1.00,-3.00,+5.00,-37.00
-2.00,+5.00,+4.00,-2.00,+8.00,+17.00,+1.00,+2.00,+0.00,-2.00,-2.00,+1.00,-2.00,+1.00,+0.00,-3.00
-3.00,-2.00,-10.00,-13.00,-11.00,-12.00,-6.00,-14.00,-5.00,+1.00,+0.00,+2.00,+2.00,-2.00,-1.00,+15.00
-2.00,-6.00,-1.00,+4.00,-5.00,+7.00,+1.00,-6.00,-7.00,-2.00,-3.00,-1.00,+0.00,-4.00,+2.00,+11.00
+0.00,+8.00,+8.00,+7.00,+15.00,+6.00,+6.00,+3.00,-1.00,-4.00,-1.00,-3.00,+0.00,-1.00,-7.00,+2.00
+1.00,-7.00,-2.00,+0.00,+3.00,+2.00,+2.00,+3.00,-6.00,-4.00,-3.00,-2.00,-6.00,-1.00,-3.00,+5.00
+1.00,-2.00,-7.00,-6.00,-9.00,-3.00,-4.00,-8.00,-3.00,+2.00,-2.00,+0.00,-1.00,+0.00,+0.00,-8.00
+5.00,-7.00,-5.00,+8.00,-6.00,-6.00,+0.00,+12.00,-4.00,+2.00,+5.00,+3.00,+4.00,-2.00,+3.00,+1.00
-1.00,-2.00,-3.00,+8.00,-5.00,-5.00,-2.00,-5.00,+1.00,-8.00,-1.00,-1.00,-3.00,+0.00,+2.00,+0.00
+0.00,+2.00,+3.00,+10.00,+4.00,-4.00,+0.00,+5.00,-2.00,-2.00,-6.00,-4.00,-5.00,+0.00,-1.00,-5.00
+0.00,+6.00,+8.00,+3.00,+1.00,+12.00,+2.00,+2.00,-6.00,-7.00,-11.00,-6.00,+0.00,-2.00,-5.00,+0.00
-3.00,-6.00,-4.00,+8.00,-1.00,-7.00,-3.00,-19.00,-2.00,+0.00,-1.00,-4.00,-2.00,-3.00,+1.00,+1.00
-3.00,-10.00,+1.00,+6.00,+1.00,+13.00,-3.00,-5.00,+1.00,+6.00,+4.00,+2.00,+2.00,+1.00,+1.00,+12.00
+2.00,+8.00,+4.00,+5.00,+3.00,+2.00,+1.00,-2.00,-1.00,+3.00,+6.00,+2.00,+1.00,-3.00,-2.00,-2.00
+1.00,+0.00,+6.00,-2.00,-3.00,-6.00,-2.00,-4.00,+0.00,+3.00,+1.00,+4.00,+0.00,-1.00,-1.00,+1.00
+0.00,-25.00,-18.00,+8.00,-7.00,-5.00,+3.00,+28.00,-7.00,-7.00,+7.00,+0.00,-2.00,-3.00,-1.00,-2.00
+3.00,+12.00,+3.00,+19.00,-4.00,+0.00,-4.00,-9.00,+3.00,+6.00,-7.00,-3.00,-2.00,-2.00,-1.00,+1.00
-1.00,-14.00,-7.00,+4.00,+1.00,-5.00,-1.00,+0.00,-3.00,-5.00,-14.00,-6.00,-1.00,-2.00,+0.00,-1.00
+0.00,+3.00,+5.00,+4.00,+0.00,+2.00,+3.00,-3.00,-3.00,-3.00,-2.00,-3.00,-2.00,+0.00,-1.00,-9.00
-1.00,-1.00,+1.00,+3.00,+5.00,+8.00,+10.00,+79.00,-1.00,+2.00,+1.00,+2.00,+1.00,+0.00,-1.00,+8.00
+3.00,-4.00,-3.00,-3.00,-6.00,-6.00,-5.00,+3.00,-3.00,+1.00,+6.00,+2.00,+0.00,-3.00,-3.00,+9.00
+0.00,+0.00,+1.00,-6.00,-1.00,-4.00,-3.00,+6.00,-4.00,-1.00,+1.00,+2.00,-2.00,+0.00,-2.00,+1.00
-4.00,+2.00,-3.00,+3.00,-3.00,-2.00,-2.00,+3.00,+1.00,-1.00,-3.00,-4.00,-1.00,-1.00,-3.00,+3.00
-1.00,+4.00,+3.00,+1.00,-1.00,+4.00,+0.00,+3.00,-1.00,-2.00,-7.00,-5.00,-1.00,+1.00,-1.00,-4.00
-3.00,+2.00,-2.00,-14.00,-3.00,-2.00,-3.00,-7.00,+2.00,+0.00,-1.00,+0.00,+0.00,-1.00,-2.00,+2.00
-1.00,+1.00,+1.00,-4.00,-2.00,-3.00,-3.00,-8.00,-1.00,+0.00,+1.00,+1.00,-11.00,+2.00,+0.00,+0.00
-1.00,-7.00,-4.00,-2.00,-1.00,-2.00,+0.00,-2.00,-1.00,+2.00,+7.00,+3.00,+6.00,+2.00,+2.00,-4.00
+2.00,+18.00,+13.00,-12.00,+9.00,+6.00,+2.00,-21.00,-5.00,-9.00,-12.00,-7.00,-4.00,-2.00,+1.00,-6.00
-4.00,-2.00,-3.00,+1.00,-7.00,+4.00,+0.00,-8.00,+2.00,+1.00,-3.00,-1.00,-3.00,-2.00,-2.00,+8.00
-6.00,-17.00,-21.00,-10.00,-13.00,-25.00,-15.00,-17.00,+0.00,+1.00,+3.00,-2.00,+5.00,-4.00,+0.00,+12.00
-2.00,-5.00,-5.00,+2.00,-8.00,-3.00,-1.00,-2.00,+0.00,+1.00,+3.00,+0.00,-8.00,+2.00,+0.00,+8.00
+1.00,-1.00,+0.00,+1.00,+0.00,-1.00,-3.00,-21.00,-2.00,-6.00,+1.00,+1.00,-1.00,-3.00,-2.00,+2.00
-3.00,+5.00,+3.00,-6.00,+5.00,+4.00,+4.00,+1.00,+1.00,+1.00,-8.00,-4.00,+0.00,+0.00,+0.00,-5.00
+0.00,+4.00,+6.00,-5.00,+3.00,+1.00,+4.00,+6.00,-2.00,-1.00,-2.00,-2.00,-2.00,-1.00,-1.00,-11.00
+1.00,+4.00,+8.00,+13.00,+5.00,+3.00,-1.00,-6.00,+0.00,-2.00,+5.00,+1.00,+0.00,-1.00,-1.00,-3.00
-6.00,-3.00,+1.00,-9.00,-1.00,-2.00,-4.00,-20.00,-1.00,+2.00,+6.00,+0.00,+0.00,-1.00,-1.00,-3.00
-3.00,-8.00,-9.00,-1.00,+2.00,-2.00,+1.00,-3.00,-3.00,-6.00,-10.00,-4.00,-3.00,+0.00,-1.00,-5.00
-5.00,-7.00,-8.00,+14.00,-4.00,-3.00,-4.00,-2.00,+0.00,-3.00,-6.00,-6.00,+1.00,-2.00,-2.00,-6.00
+0.00,-4.00,-5.00,+10.00,-4.00,-6.00,-4.00,-6.00,-3.00,-2.00,-8.00,-3.00,-3.00,-4.00,-3.00,-6.00
+1.00,+0.00,+2.00,-3.00,+2.00,+0.00,-1.00,-12.00,+0.00,+4.00,+3.00,+1.00,-2.00,-1.00,+1.00,-6.00
