-8.00,-8.00,-3.00,-1.00,+2.00,-1.00,-2.00,-3.00,+11.00,+0.00,-2.00,+0.00,-1.00,+0.00,-1.00,+2.00
-5.00,-6.00,-2.00,-3.00,-9.00,-3.00,-3.00,-1.00,+4.00,-1.00,+3.00,+12.00,+8.00,+2.00,+1.00,+3.00
+5.00,+0.00,-1.00,+1.00,+7.00,+5.00,+3.00,+8.00,-13.00,-7.00,-6.00,-14.00,-9.00,-4.00,-4.00,-8.00
+3.00,+1.00,+2.00,+4.00,-2.00,-1.00,-1.00,-7.00,-3.00,+2.00,+2.00,+0.00,-1.00,+0.00,+0.00,+1.00
-6.00,-4.00,-3.00,-2.00,-4.00,-2.00,-1.00,-4.00,-21.00,-3.00,-1.00,-2.00,+0.00,+1.00,+0.00,-3.00
-10.00,-18.00,-8.00,-4.00,-7.00,-3.00,-3.00,-5.00,-4.00,-9.00,-5.00,-1.00,-1.00,-2.00,-5.00,-11.00
+3.00,-1.00,-3.00,+0.00,+6.00,+1.00,+0.00,-3.00,-17.00,-7.00,-5.00,-14.00,-22.00,-7.00,-8.00,-13.00
+13.00,+18.00,+0.00,+0.00,-3.00,-2.00,-3.00,-8.00,+18.00,+5.00,+3.00,+3.00,+5.00,+2.00,+4.00,+7.00
-10.00,-13.00,-1.00,-4.00,-18.00,-7.00,-2.00,-2.00,+14.00,+6.00,+1.00,+2.00,+1.00,+0.00,+0.00,+4.00
-17.00,-13.00,-5.00,-1.00,+11.00,+1.00,-3.00,-7.00,-5.00,-3.00,-5.00,+0.00,+4.00,+0.00,+0.00,-2.00
-18.00,-20.00,-4.00,-3.00,-5.00,-6.00,-1.00,-10.00,+7.00,+5.00,+1.00,+2.00,+3.00,-1.00,+2.00,+6.00
+13.00,-7.00,+0.00,+4.00,+11.00,+5.00,+3.00,+6.00,-14.00,-10.00,-8.00,+0.00,+3.00,-2.00,-3.00,-6.00
+24.00,+37.00,+5.00,+3.00,+3.00,+0.00,-1.00,+1.00,+21.00,+4.00,+5.00,-2.00,-5.00,+3.00,+3.00,+9.00
+4.00,-5.00,-2.00,-2.00,-11.00,-5.00,+0.00,+6.00,+7.00,+6.00,+3.00,+7.00,-1.00,-2.00,-1.00,-1.00
+14.00,+17.00,+5.00,+3.00,+8.00,+3.00,+0.00,+3.00,-3.00,-2.00,-7.00,-25.00,-12.00,-2.00,+0.00,+4.00
-23.00,-18.00,-4.00,-3.00,-7.00,-3.00,-4.00,+4.00,+4.00,-2.00,-4.00,-6.00,-5.00,-3.00,-2.00,-4.00
+6.00,+2.00,-1.00,-3.00,+6.00,+2.00,+1.00,+2.00,-18.00,-1.00,-2.00,+3.00,+4.00,+2.00,+0.00,+0.00
-2.00,+11.00,+3.00,+5.00,+12.00,-2.00,+0.00,+3.00,+26.00,+3.00,+0.00,-5.00,-3.00,-1.00,-2.00,-2.00
-7.00,-7.00,-5.00,-5.00,-15.00,-5.00,-4.00,-5.00,-14.00,-1.00,+2.00,+11.00,+7.00,+3.00,+2.00,-2.00
-14.00,-11.00,-4.00,-1.00,+8.00,+6.00,+0.00,-3.00,-26.00,-2.00,-1.00,+0.00,-5.00,-3.00,-7.00,-19.00
-11.00,-13.00,-5.00,+2.00,+13.00,+7.00,-2.00,-12.00,+21.00,-4.00,-2.00,-1.00,+3.00,+0.00,+1.00,+3.00
+14.00,-4.00,-3.00,-2.00,+1.00,+0.00,-1.00,-5.00,-21.00,-3.00,-1.00,-4.00,-4.00,-3.00,-4.00,-6.00
+15.00,+34.00,+7.00,+3.00,+3.00,-1.00,+0.00,+4.00,-12.00,-7.00,+3.00,+11.00,+11.00,+1.00,+0.00,-8.00
-9.00,+6.00,+1.00,-3.00,-13.00,-3.00,+0.00,+2.00,+20.00,+12.00,+6.00,+7.00,+5.00,+2.00,+4.00,+12.00
-5.00,-3.00,+2.00,+2.00,-8.00,-4.00,+0.00,+0.00,-11.00,-7.00,-2.00,+1.00,-6.00,-5.00,-6.00,-14.00
-7.00,-13.00,-4.00,-1.00,+6.00,+9.00,+0.00,-4.00,+8.00,+4.00,+0.00,+5.00,-8.00,-2.00,-2.00,+2.00
-16.00,-27.00,-6.00,-4.00,-11.00,-4.00,-1.00,-1.00,-19.00,-6.00,-1.00,-11.00,-5.00,-2.00,+0.00,+0.00
+21.00,+30.00,+6.00,+1.00,-6.00,-3.00,+1.00,+6.00,+14.00,-3.00,-1.00,-2.00,+5.00,+0.00,+1.00,+3.00
-11.00,-2.00,-2.00,-18.00,-57.00,-19.00,-2.00,+13.00,-4.00,-1.00,+1.00,+5.00,-1.00,-2.00,-2.00,+2.00
+4.00,+14.00,+4.00,+17.00,+45.00,+9.00,+2.00,+7.00,+37.00,+3.00,-4.00,-12.00,-6.00,+0.00,+1.00,+8.00
+8.00,-8.00,-2.00,-2.00,-4.00,-1.00,+1.00,+4.00,+7.00,+9.00,+4.00,+17.00,+15.00,+0.00,-3.00,+3.00
-9.00,-8.00,-6.00,-1.00,+6.00,+3.00,-6.00,-18.00,-10.00,-5.00,-5.00,-13.00,-15.00,-6.00,-5.00,-3.00
-11.00,-25.00,-4.00,-4.00,+0.00,-2.00,-4.00,-11.00,-9.00,-6.00,-4.00,+5.00,+8.00,+2.00,-3.00,-5.00
-17.00,+0.00,+0.00,-5.00,-10.00,-4.00,-2.00,-3.00,-52.00,-15.00,-6.00,-5.00,-5.00,-4.00,-6.00,-19.00
+6.00,+9.00,+0.00,-7.00,-10.00,-6.00,-3.00,+2.00,+42.00,+7.00,+1.00,+6.00,+1.00,+3.00,+6.00,+23.00
+6.00,-7.00,-1.00,+0.00,+5.00,-1.00,-2.00,-5.00,-4.00,-5.00,-4.00,-7.00,+0.00,-4.00,-2.00,-2.00
-27.00,-3.00,-3.00,+2.00,+11.00,+3.00,+1.00,-4.00,-13.00,+3.00,-2.00,-14.00,-23.00,-4.00,-1.00,-7.00
+0.00,-15.00,-5.00,-1.00,-2.00,+1.00,+4.00,+6.00,-15.00,-2.00,+4.00,+8.00,+8.00,-1.00,-2.00,-9.00
-12.00,-16.00,-3.00,-2.00,-7.00,-5.00,-2.00,-10.00,+48.00,+8.00,-2.00,-9.00,-3.00,+0.00,+0.00,+26.00
+23.00,+29.00,+0.00,-4.00,-9.00,-3.00,-1.00,+2.00,-10.00,+5.00,+7.00,+10.00,-11.00,+7.00,+4.00,+5.00
+6.00,-4.00,-1.00,+4.00,+19.00,+4.00,-3.00,-9.00,+14.00,+4.00,-4.00,-6.00,-2.00,-3.00,+0.00,+9.00
-19.00,-3.00,-4.00,-9.00,-30.00,-8.00,-4.00,-3.00,-32.00,-12.00,-3.00,+1.00,+3.00,+0.00,-3.00,-12.00
+2.00,-7.00,+3.00,+7.00,+22.00,+10.00,+4.00,+8.00,-15.00,-10.00,+0.00,+4.00,-3.00,-2.00,-4.00,-10.00
-13.00,-30.00,-4.00,-4.00,+7.00,+5.00,+2.00,+3.00,+17.00,+0.00,+4.00,+33.00,+14.00,+3.00,+4.00,+5.00
-6.00,+10.00,-1.00,-1.00,+6.00,+0.00,+3.00,-4.00,-2.00,-1.00,+0.00,-10.00,-4.00,-1.00,+2.00,+0.00
+7.00,-2.00,-1.00,+0.00,-2.00,-2.00,-2.00,-5.00,+2.00,+4.00,+0.00,-4.00,-2.00,+0.00,-1.00,-2.00
+25.00,+53.00,+11.00,-1.00,-17.00,-5.00,+2.00,+6.00,-33.00,-8.00,-7.00,-9.00,+1.00,-3.00,-4.00,-16.00
-20.00,-19.00,-7.00,-9.00,-17.00,-12.00,-4.00,-7.00,+55.00,+16.00,+4.00,+10.00,+12.00,+2.00,+4.00,+21.00
+35.00,+22.00,+6.00,+14.00,+36.00,+11.00,+4.00,+10.00,-7.00,-2.00,-1.00,+2.00,+4.00,+2.00,-1.00,-7.00
+4.00,-4.00,-1.00,-1.00,+1.00,+1.00,+0.00,-4.00,-33.00,-3.00,+0.00,+5.00,+5.00,-1.00,+2.00,+1.00
-14.00,-22.00,-7.00,-3.00,+1.00,-3.00,-3.00,-17.00,+21.00,+1.00,+1.00,+10.00,+3.00,+0.00,+0.00,-4.00
-13.00,+0.00,+0.00,+3.00,-2.00,-2.00,-3.00,+1.00,+11.00,-4.00,-1.00,-7.00,+3.00,-2.00,+0.00,+11.00
-10.00,-7.00,-2.00,-5.00,-17.00,-7.00,-6.00,-13.00,+0.00,-1.00,+1.00,+3.00,-7.00,-3.00,-3.00,-9.00
-6.00,+0.00,+4.00,-1.00,-5.00,-7.00,+0.00,+2.00,-43.00,-9.00,+1.00,-3.00,+4.00,+2.00,+0.00,-7.00
+1.00,-9.00,-5.00,-1.00,+2.00,-1.00,-4.00,-11.00,+17.00,+1.00,-4.00,-3.00,+1.00,-1.00,-1.00,-1.00
+3.00,+12.00,+6.00,+0.00,-4.00,-1.00,+1.00,+5.00,-78.00,-14.00,-7.00,-12.00,-2.00,-7.00,-8.00,-42.00
-31.00,-15.00,-6.00,-4.00,-10.00,-4.00,-5.00,-3.00,+114.00,+27.00,+9.00,+20.00,+36.00,+0.00,+5.00,+49.00
+40.00,+23.00,+4.00,+3.00,+12.00,+9.00,+3.00,+6.00,+5.00,+2.00,-2.00,-4.00,+0.00,+4.00,+3.00,+2.00
-6.00,-11.00,-4.00,-1.00,+2.00,+3.00,+4.00,+4.00,-14.00,+6.00,-3.00,-12.00,-12.00,+1.00,+0.00,-7.00
-7.00,-16.00,-6.00,+0.00,+3.00,-7.00,-2.00,-4.00,-20.00,-5.00,-9.00,-20.00,-18.00,-5.00,-5.00,-10.00
-28.00,-12.00,-2.00,-5.00,-13.00,+3.00,-3.00,-14.00,-52.00,-26.00,-7.00,+0.00,+2.00,-4.00,-11.00,-24.00
+23.00,+17.00,+7.00,+7.00,+9.00,+2.00,-2.00,+12.00,+5.00,-8.00,+1.00,+1.00,+5.00,+0.00,-1.00,+3.00
-18.00,-11.00,-8.00,-15.00,-12.00,-11.00,-8.00,-4.00,+3.00,-4.00,-6.00,-2.00,+4.00,-4.00,-1.00,+8.00
+26.00,+15.00,+5.00,+8.00,+12.00,+6.00,+4.00,+9.00,-11.00,-13.00,-8.00,-36.00,-24.00,-7.00,-3.00,-5.00
+10.00,-15.00,-3.00,-3.00,-4.00,-4.00,-1.00,+4.00,-6.00,+22.00,+2.00,-9.00,-9.00,+2.00,+1.00,-6.00
-25.00,-12.00,-6.00,-8.00,-15.00,-10.00,-3.00,-14.00,+56.00,+17.00,+2.00,+0.00,-4.00,-3.00,+1.00,+21.00
+12.00,+0.00,+1.00,+2.00,+1.00,+4.00,-1.00,-1.00,-51.00,-11.00,+1.00,+12.00,+19.00,+1.00,-4.00,-16.00
-3.00,+20.00,+7.00,+4.00,+5.00,+4.00,+2.00,-5.00,+20.00,-3.00,-7.00,+3.00,+4.00,-1.00,+0.00,+7.00
-8.00,-9.00,-2.00,+3.00,+4.00,-5.00,-3.00,+5.00,-20.00,-14.00,-7.00,-13.00,-14.00,-6.00,-4.00,-3.00
-12.00,-29.00,-8.00,-9.00,-7.00,-3.00,-2.00,-4.00,+5.00,-3.00,-5.00,-12.00,-27.00,-4.00,-4.00,-12.00
+23.00,+39.00,+9.00,+4.00,-3.00,+3.00,+6.00,+20.00,+16.00,+1.00,+6.00,+19.00,+18.00,-2.00,-3.00,+4.00
-9.00,-12.00,-5.00,-1.00,+9.00,-6.00,-4.00,-2.00,+28.00,+13.00,+11.00,+15.00,+17.00,+10.00,+13.00,+36.00
+17.00,+3.00,-1.00,-8.00,-16.00,-9.00,-6.00,+3.00,-34.00,-3.00,+1.00,+12.00,+1.00,-2.00,-3.00,-13.00
-9.00,-8.00,+0.00,+3.00,+3.00,+3.00,+0.00,-9.00,+23.00,+4.00,-1.00,-3.00,-6.00,-4.00,-3.00,+1.00
-9.00,-1.00,-1.00,+3.00,+11.00,-2.00,-5.00,-6.00,-12.00,-5.00,-5.00,-12.00,-14.00,+0.00,-1.00,-10.00
-6.00,-13.00,-5.00,-2.00,+2.00,-1.00,-4.00,+2.00,-27.00,-17.00,-9.00,-16.00,-18.00,-9.00,-10.00,-15.00
+38.00,+31.00,+10.00,+7.00,+5.00,+6.00,+11.00,+17.00,+0.00,+3.00,+6.00,+11.00,+13.00,+11.00,+7.00,-6.00
-13.00,+2.00,-1.00,+2.00,+9.00,+4.00,-1.00,+26.00,-5.00,-5.00,+0.00,+11.00,+8.00,+0.00,+3.00,+15.00
-16.00,-23.00,-6.00,-4.00,+0.00,+3.00,-3.00,-12.00,-7.00,-9.00,-7.00,-16.00,-12.00,-5.00,-4.00,-12.00
+19.00,+19.00,+1.00,-2.00,-14.00,-2.00,-3.00,+1.00,+60.00,+20.00,-4.00,-4.00,-1.00,-2.00,-4.00,+8.00
-2.00,-6.00,-2.00,+1.00,+17.00,+6.00,+2.00,+5.00,-1.00,-5.00,+8.00,+15.00,+12.00,+4.00,+5.00,+13.00
-7.00,+2.00,+0.00,-1.00,-3.00,-2.00,+1.00,-11.00,-21.00,-8.00,-3.00,-3.00,-10.00,-4.00,-8.00,-27.00
+1.00,-1.00,-2.00,-2.00,-7.00,-8.00,-1.00,-1.00,+14.00,+12.00,+10.00,+9.00,+1.00,+3.00,+4.00,+10.00
-3.00,-7.00,-1.00,+0.00,-4.00,+3.00,+2.00,+4.00,-7.00,-6.00,-4.00,-8.00,-21.00,-3.00,-3.00,+0.00
+5.00,+4.00,+0.00,+0.00,+0.00,+3.00,-1.00,-6.00,-17.00,-8.00,-8.00,-10.00,-4.00,-4.00,-2.00,-3.00
+4.00,+0.00,-5.00,-4.00,-5.00,-2.00,-2.00,-5.00,+14.00,-1.00,+2.00,+3.00,+9.00,+2.00,-1.00,+4.00
-12.00,-12.00,+0.00,+1.00,-1.00,-2.00,-6.00,-4.00,-34.00,-5.00,-2.00,-4.00,-4.00,-6.00,-5.00,-14.00
+4.00,+0.00,-1.00,-5.00,+1.00,+0.00,+1.00,-5.00,-9.00,-7.00,-1.00,+8.00,+4.00,+4.00,+0.00,-18.00
-1.00,+5.00,+1.00,-3.00,-1.00,-2.00,-2.00,-9.00,+27.00,+9.00,-3.00,-7.00,-2.00,+4.00,+5.00,+16.00
+9.00,-7.00,-4.00,-1.00,-4.00,-3.00,-2.00,-2.00,-69.00,-19.00,-3.00,-15.00,-12.00,-5.00,-6.00,-16.00
+8.00,+0.00,-1.00,+0.00,-4.00,-3.00,+1.00,+9.00,+44.00,+14.00,-1.00,-15.00,-20.00,-6.00,+5.00,+28.00
-2.00,+6.00,+2.00,+2.00,+7.00,+2.00,-2.00,-1.00,+9.00,+8.00,+10.00,+24.00,+21.00,+16.00,+24.00,-3.00
-9.00,-2.00,-4.00,-2.00,-2.00,-1.00,+0.00,-9.00,+7.00,-1.00,-12.00,-31.00,-26.00,-16.00,-11.00,-9.00
+1.00,-3.00,-2.00,-4.00,-9.00,-1.00,+5.00,+9.00,+6.00,+5.00,+5.00,+13.00,+15.00,+7.00,+6.00,+16.00
-4.00,-2.00,+0.00,+2.00,+2.00,+2.00,+3.00,-3.00,-45.00,-15.00,-5.00,-4.00,+11.00,-1.00,-6.00,-24.00
+2.00,-5.00,-2.00,-4.00,-15.00,-6.00,-2.00,+1.00,-20.00,-8.00,+0.00,-10.00,-9.00,-7.00,-6.00,-6.00
+2.00,+0.00,-2.00,-2.00,-6.00,-2.00,-3.00,-6.00,+0.00,+0.00,+1.00,+3.00,-1.00,-3.00,-2.00,+0.00
+2.00,+3.00,-1.00,+0.00,+0.00,-1.00,-3.00,-18.00,+7.00,-2.00,-5.00,-5.00,-3.00,-3.00,-1.00,-5.00
-11.00,-1.00,-1.00,-1.00,+0.00,+0.00,+4.00,+8.00,+2.00,+0.00,+4.00,+14.00,+11.00,+0.00,-2.00,-3.00
-6.00,-13.00,-1.00,+1.00,-4.00,-2.00,-2.00,-2.00,-6.00,-2.00,+1.00,-2.00,+2.00,+0.00,+0.00,+14.00
+5.00,+11.00,+3.00,+3.00,+0.00,-6.00,-6.00,-5.00,-10.00,-7.00,+1.00,+5.00,+9.00,+0.00,+1.00,-2.00
-23.00,-5.00,-1.00,-6.00,-16.00,-10.00,-10.00,-3.00,+35.00,+14.00,-1.00,-16.00,-25.00,-7.00,-5.00,+0.00
-1.00,-2.00,-1.00,+5.00,+23.00,+10.00,+5.00,+1.00,+13.00,-3.00,-2.00,-3.00,-8.00,+4.00,+6.00,+15.00
-13.00,-9.00,-5.00,-6.00,-7.00,+0.00,-3.00,-4.00,-12.00,+5.00,+1.00,+2.00,+7.00,-1.00,-7.00,-11.00
+1.00,-9.00,-4.00,-4.00,+0.00,-1.00,+3.00,+10.00,-39.00,-9.00,+2.00,+10.00,-1.00,-2.00,-6.00,-17.00
+4.00,+4.00,+1.00,+4.00,+8.00,+0.00,-1.00,-4.00,+59.00,+7.00,-2.00,-6.00,+5.00,+0.00,+8.00,+24.00
-2.00,-5.00,-6.00,-8.00,-12.00,-6.00,-6.00,-2.00,+3.00,-1.00,-1.00,+3.00,-1.00,+0.00,+1.00,+5.00
-12.00,-7.00,-2.00,+1.00,-3.00,+1.00,+3.00,+4.00,+1.00,+3.00,-4.00,-26.00,-18.00,-6.00,-1.00,+4.00
-2.00,+3.00,+0.00,-2.00,+5.00,-2.00,+4.00,-1.00,-5.00,-1.00,-2.00,-5.00,-4.00,-5.00,-7.00,-2.00
+1.00,+4.00,-1.00,-3.00,-12.00,+3.00,+4.00,+3.00,-17.00,-6.00,+0.00,+4.00,+6.00,+14.00,+5.00,-8.00
-4.00,+1.00,+0.00,+4.00,+7.00,+4.00,-1.00,+0.00,+4.00,+6.00,+2.00,+5.00,-3.00,+2.00,+1.00,+1.00
+12.00,+5.00,+0.00,-4.00,+1.00,-6.00,-13.00,-6.00,-5.00,-6.00,-5.00,+2.00,+1.00,-3.00,-8.00,-3.00
+2.00,+0.00,+3.00,+10.00,+25.00,+8.00,+5.00,-1.00,+3.00,-3.00,+2.00,+3.00,+0.00,+2.00,+2.00,-1.00
-16.00,-8.00,-6.00,-12.00,-31.00,-40.00,-40.00,-11.00,+0.00,+2.00,-2.00,-2.00,+5.00,-4.00,-2.00,+5.00
-1.00,-1.00,+2.00,+4.00,+22.00,+13.00,+11.00,-7.00,-8.00,-7.00,-5.00,-12.00,-10.00,-3.00,+0.00,+0.00
-8.00,+0.00,+0.00,-1.00,+2.00,+2.00,+12.00,+7.00,-8.00,-4.00,-2.00,+7.00,-5.00,-1.00,-4.00,-14.00
-7.00,-2.00,-4.00,-2.00,-8.00,+3.00,-3.00,-15.00,+7.00,+3.00,+3.00,+5.00,-13.00,+5.00,+9.00,+12.00
-9.00,-2.00,-2.00,-1.00,-1.00,+0.00,+16.00,+3.00,+4.00,+7.00,+5.00,+2.00,-3.00,-3.00,-1.00,-3.00
+7.00,-2.00,-1.00,-4.00,-19.00,-10.00,-15.00,+11.00,-3.00,+4.00,+3.00,+7.00,+3.00,-1.00,-5.00,-6.00
+0.00,+2.00,+1.00,+4.00,+5.00,-5.00,-13.00,-4.00,-3.00,+0.00,-3.00,-4.00,-2.00,-7.00,-6.00,-7.00
-1.00,-5.00,-2.00,-2.00,-9.00,-5.00,-11.00,+3.00,+0.00,+4.00,+1.00,-4.00,+4.00,+2.00,+0.00,+2.00
+8.00,+2.00,+1.00,+7.00,+42.00,+28.00,+33.00,-2.00,-2.00,+0.00,-4.00,-1.00,+5.00,-4.00,-1.00,+5.00
-8.00,-5.00,+1.00,-2.00,-9.00,+1.00,-3.00,-6.00,-2.00,+2.00,+1.00,+0.00,-3.00,-2.00,-1.00,-5.00
-17.00,-16.00,-6.00,-6.00,-16.00,-3.00,-16.00,-11.00,+1.00,-2.00,-1.00,+15.00,+16.00,+1.00,+0.00,-2.00
+17.00,+1.00,-5.00,-3.00,+14.00,+4.00,-8.00,+10.00,+13.00,+0.00,-9.00,-33.00,-26.00,-4.00,+2.00,+3.00
+8.00,+5.00,+8.00,+4.00,-5.00,-8.00,-8.00,+0.00,-20.00,-8.00,-4.00,+3.00,+3.00,-24.00,-25.00,-9.00
+2.00,+3.00,+1.00,+2.00,+2.00,-4.00,-14.00,-13.00,-7.00,-7.00,-11.00,-7.00,-3.00,+4.00,+9.00,-8.00
-12.00,-6.00,+0.00,+3.00,+13.00,+12.00,-6.00,-7.00,+8.00,+13.00,+9.00,+0.00,+4.00,+5.00,+11.00,+5.00
-7.00,-3.00,-4.00,+0.00,-8.00,+8.00,-2.00,-5.00,+1.00,-2.00,-3.00,+16.00,+19.00,+1.00,-1.00,+3.00
-11.00,+1.00,+1.00,-5.00,-2.00,-2.00,-5.00,-2.00,-1.00,-3.00,-3.00,-16.00,-21.00,-8.00,-15.00,-10.00
+0.00,+0.00,-1.00,-4.00,-5.00,-2.00,+6.00,+1.00,-1.00,+0.00,+3.00,+7.00,+1.00,-1.00,+2.00,-5.00
-8.00,-12.00,-5.00,-8.00,-14.00,-20.00,+5.00,-13.00,-2.00,-7.00,-2.00,-3.00,+0.00,-5.00,-7.00,+6.00
+9.00,-4.00,-1.00,-2.00,-1.00,-7.00,-4.00,+4.00,-12.00,-10.00,-2.00,+1.00,+2.00,+7.00,+6.00,-4.00
+5.00,-1.00,-1.00,+5.00,+3.00,+23.00,+30.00,+30.00,+5.00,+2.00,+6.00,+33.00,+30.00,+2.00,-1.00,+5.00
-6.00,+3.00,-2.00,-10.00,-20.00,+0.00,-1.00,-2.00,-6.00,-6.00,-2.00,-2.00,+0.00,-3.00,-15.00,-10.00
+2.00,-1.00,+2.00,+7.00,+10.00,+8.00,-15.00,-9.00,+3.00,+1.00,+4.00,+14.00,+8.00,+18.00,+21.00,+4.00
+0.00,+4.00,+2.00,+0.00,+11.00,+14.00,+24.00,-3.00,+21.00,+2.00,-2.00,-7.00,+1.00,-10.00,-26.00,-3.00
-6.00,+1.00,-2.00,-9.00,-39.00,-35.00,-20.00,-2.00,+9.00,+6.00,+5.00,+10.00,+12.00,+17.00,+19.00,+7.00
+14.00,+8.00,+5.00,+12.00,+22.00,+19.00,+28.00,+19.00,-6.00,+5.00,+1.00,+2.00,+0.00,-35.00,-22.00,-1.00
+5.00,+4.00,-1.00,-3.00,-2.00,+9.00,+15.00,+3.00,+3.00,-4.00,-4.00,-5.00,+0.00,+27.00,+8.00,+3.00
-25.00,-7.00,-4.00,-7.00,-26.00,-23.00,-2.00,-9.00,-24.00,-6.00,+1.00,-1.00,-3.00,+12.00,-23.00,-15.00
+14.00,-2.00,-7.00,-23.00,-71.00,-32.00,-30.00,-17.00,+14.00,-7.00,-14.00,-11.00,-6.00,-36.00,-4.00,-18.00
-11.00,+0.00,+0.00,+5.00,+25.00,+20.00,+10.00,+0.00,-24.00,+0.00,+5.00,+4.00,-6.00,+31.00,+14.00,+8.00
+11.00,+6.00,+1.00,+0.00,+5.00,+4.00,-4.00,-2.00,-9.00,-12.00,-8.00,-8.00,-12.00,-17.00,-19.00,-15.00
-4.00,+1.00,+1.00,+0.00,-5.00,-1.00,+28.00,+13.00,+40.00,+12.00,-8.00,-24.00,-21.00,-10.00,+0.00,+5.00
+10.00,+1.00,+2.00,+20.00,+44.00,+10.00,+40.00,+11.00,-13.00,-3.00,+7.00,+7.00,+7.00,+33.00,+16.00,+4.00
-11.00,-10.00,-4.00,-7.00,-11.00,-7.00,-18.00,-12.00,+13.00,+4.00,-11.00,-19.00,+11.00,-5.00,-2.00,+7.00
+20.00,+23.00,+8.00,+11.00,+14.00,+5.00,+14.00,+11.00,-20.00,-7.00,+0.00,+2.00,+2.00,+8.00,+9.00,-9.00
-5.00,-7.00,-2.00,+1.00,+6.00,+12.00,+6.00,+8.00,-12.00,-5.00,-4.00,+3.00,+6.00,-32.00,-34.00,-16.00
-5.00,-7.00,-5.00,-7.00,-7.00,-6.00,+1.00,-6.00,-12.00,-12.00,-14.00,-24.00,-18.00,+22.00,-6.00,-6.00
+3.00,-5.00,-5.00,-12.00,-21.00,-15.00,+4.00,-5.00,+27.00,+15.00,+13.00,+14.00,+25.00,+15.00,+16.00,+6.00
+2.00,-2.00,+2.00,+11.00,+15.00,-2.00,+27.00,+16.00,-4.00,+2.00,-2.00,+5.00,+1.00,-57.00,-18.00,-6.00
-4.00,-4.00,+2.00,+3.00,-1.00,+5.00,+4.00,+8.00,+4.00,-1.00,+7.00,+15.00,-2.00,+36.00,+13.00,+7.00
+7.00,+9.00,+2.00,-1.00,+15.00,-7.00,-3.00,-4.00,-10.00,+3.00,+0.00,-15.00,-42.00,-19.00,+35.00,+12.00
-5.00,-4.00,+0.00,+2.00,-2.00,+21.00,-26.00,-15.00,-7.00,-11.00,-2.00,+11.00,+22.00,+30.00,-20.00,-14.00
-7.00,+0.00,-2.00,-6.00,-21.00,+2.00,-9.00,-17.00,+8.00,+0.00,-6.00,-12.00,-1.00,+18.00,-6.00,+2.00
+11.00,+0.00,+1.00,+5.00,+8.00,+1.00,+15.00,+16.00,+13.00,+14.00,+9.00,+28.00,+13.00,-11.00,+20.00,+21.00
+3.00,-4.00,-4.00,-5.00,+5.00,+21.00,-16.00,-9.00,-26.00,-5.00,+2.00,+14.00,+8.00,-13.00,-35.00,-25.00
-10.00,-6.00,-9.00,-11.00,-18.00,-15.00,+8.00,+9.00,+9.00,-10.00,-4.00,-8.00,-21.00,-10.00,+7.00,+6.00
+1.00,+1.00,+3.00,+10.00,+25.00,+0.00,-5.00,+5.00,+15.00,+4.00,+2.00,+39.00,+34.00,-89.00,-32.00,+3.00
+27.00,+19.00,+13.00,+17.00,+10.00,+12.00,+8.00,+10.00,-8.00,+5.00,+3.00,-18.00,-13.00,+53.00,+50.00,+4.00
-8.00,+2.00,+1.00,+0.00,+14.00,-2.00,-27.00,-19.00,+18.00,-1.00,-2.00,+12.00,+23.00,-35.00,-27.00,+0.00
+4.00,+0.00,-2.00,+0.00,-2.00,-6.00,+13.00,+1.00,-7.00,-1.00,-5.00,-36.00,-45.00,-19.00,-1.00,-5.00
+6.00,-1.00,-2.00,-2.00,+22.00,+1.00,-15.00,-6.00,-12.00,-1.00,-8.00,-30.00,-24.00,+12.00,-14.00,-7.00
-12.00,-7.00,-8.00,-14.00,-27.00,-14.00,+1.00,+20.00,-12.00,-8.00,-6.00,+2.00,+0.00,-4.00,-6.00,-9.00
-6.00,-8.00,+0.00,+11.00,+9.00,+2.00,+6.00,+1.00,-5.00,-6.00,-9.00,-6.00,-2.00,-6.00,+4.00,+3.00
+0.00,+1.00,-2.00,-9.00,-33.00,-35.00,+17.00,-7.00,-2.00,+3.00,+7.00,+23.00,+14.00,-16.00,-7.00,-2.00
-7.00,-4.00,-5.00,-16.00,-30.00,-15.00,-11.00,-4.00,-8.00,-1.00,+2.00,+7.00,+11.00,+29.00,+15.00,-1.00
-14.00,-7.00,-3.00,-1.00,+3.00,+12.00,+2.00,-13.00,+0.00,-8.00,+0.00,-7.00,-31.00,-66.00,-18.00,+0.00
+18.00,+6.00,+3.00,+0.00,+10.00,+4.00,-15.00,-3.00,-1.00,-1.00,+7.00,+1.00,+20.00,+45.00,+2.00,+3.00
+10.00,+3.00,+2.00,+3.00,-6.00,+18.00,+0.00,+3.00,-1.00,-5.00,-10.00,-17.00,-19.00,-3.00,-13.00,-8.00
-7.00,-3.00,-8.00,-14.00,-33.00,-74.00,-13.00,+5.00,+4.00,+2.00,+2.00,-3.00,+1.00,+7.00,+10.00,+14.00
-1.00,+2.00,+1.00,-1.00,-8.00,+18.00,-2.00,-5.00,-6.00,-4.00,-1.00,+25.00,+42.00,-34.00,-46.00,-10.00
-3.00,-3.00,+0.00,+0.00,+0.00,+10.00,-11.00,-5.00,-23.00,-10.00,-14.00,+18.00,+2.00,+31.00,-11.00,-22.00
-2.00,-4.00,+2.00,+18.00,+40.00,+6.00,+19.00,+7.00,+1.00,-10.00,-7.00,-14.00,-10.00,+2.00,-39.00,-9.00
-3.00,-4.00,-3.00,-4.00,-12.00,+21.00,+21.00,+10.00,+18.00,+11.00,+0.00,-19.00,+20.00,-35.00,-28.00,+0.00
+4.00,-1.00,-1.00,+0.00,+4.00,+3.00,+5.00,-12.00,-8.00,-3.00,+1.00,-22.00,-18.00,+35.00,+12.00,-8.00
-16.00,-19.00,-7.00,-13.00,-25.00,-39.00,+26.00,+5.00,+4.00,-1.00,+3.00,-1.00,+3.00,-10.00,+1.00,+13.00
+2.00,+11.00,+3.00,+3.00,+8.00,+18.00,-33.00,-16.00,-17.00,-10.00,-16.00,-18.00,-7.00,-7.00,+19.00,-9.00
+3.00,-2.00,-1.00,+1.00,-27.00,-20.00,-33.00,-3.00,-1.00,+5.00,+17.00,-9.00,-48.00,+9.00,+29.00,+11.00
-23.00,-12.00,-7.00,-15.00,+1.00,+7.00,-5.00,-15.00,-5.00,-8.00,-7.00,+3.00,+12.00,+2.00,-3.00,-11.00
+22.00,+33.00,+7.00,+3.00,+7.00,+7.00,-15.00,-5.00,+16.00,+17.00,+13.00,+26.00,+1.00,-86.00,+33.00,+24.00
-4.00,-6.00,-2.00,-4.00,-16.00,-52.00,+47.00,+7.00,+24.00,+19.00,+23.00,+1.00,-42.00,-41.00,+13.00,+24.00
-2.00,-1.00,+4.00,+12.00,+35.00,+51.00,+22.00,+11.00,-18.00,-12.00,-12.00,-9.00,+1.00,+22.00,-42.00,-21.00
-21.00,-6.00,-5.00,-17.00,-24.00,-19.00,-30.00,-21.00,-7.00,-2.00,-1.00,+6.00,+10.00,+27.00,+16.00,-5.00
-10.00,-13.00,-4.00,+8.00,+35.00,+6.00,+20.00,+10.00,-7.00,+1.00,+2.00,-8.00,-36.00,-14.00,-8.00,-13.00
+0.00,+1.00,+2.00,+8.00,+15.00,+31.00,-19.00,+1.00,+7.00,+1.00,-15.00,-10.00,+6.00,+12.00,+21.00,+0.00
+4.00,+3.00,-4.00,-18.00,-37.00,+18.00,-59.00,-18.00,-3.00,-11.00,-14.00,-1.00,-13.00,-73.00,-18.00,+2.00
+8.00,-1.00,+4.00,+14.00,+40.00,+4.00,-11.00,+7.00,+2.00,+7.00,+18.00,+8.00,-2.00,-76.00,+6.00,+3.00
+2.00,-2.00,-1.00,+1.00,+20.00,+46.00,+8.00,+9.00,+9.00,+4.00,+5.00,-11.00,+0.00,+2.00,-11.00,+6.00
-14.00,-21.00,-5.00,-4.00,+0.00,-10.00,-7.00,-17.00,-8.00,-5.00,+6.00,+26.00,-2.00,+11.00,+27.00,+9.00
+23.00,+28.00,+7.00,+10.00,+20.00,+37.00,+36.00,+8.00,-13.00,-8.00,-9.00,+22.00,+36.00,+7.00,+19.00,+7.00
+17.00,+8.00,+1.00,-4.00,-26.00,-6.00,-2.00,+4.00,+19.00,+0.00,+2.00,+2.00,-29.00,+3.00,+46.00,+21.00
-35.00,-16.00,-11.00,-16.00,-16.00,-24.00,-49.00,-23.00,-18.00,-5.00,-2.00,-6.00,+18.00,+44.00,-19.00,-3.00
-5.00,-8.00,+4.00,+24.00,+62.00,+30.00,-12.00,+3.00,+14.00,+5.00,+11.00,+29.00,+33.00,+38.00,-1.00,-11.00
-6.00,-16.00,-1.00,+11.00,+66.00,+14.00,+46.00,+12.00,-25.00,-3.00,+7.00,-25.00,-40.00,+17.00,-6.00,-11.00
+14.00,+10.00,-3.00,-18.00,-32.00,-34.00,-8.00,+2.00,+0.00,-7.00,-6.00,+12.00,-25.00,+10.00,-25.00,-11.00
+0.00,+10.00,+6.00,+13.00,+3.00,-5.00,-19.00,-10.00,+30.00,+16.00,+6.00,-67.00,-89.00,-54.00,+46.00,+55.00
+1.00,+1.00,+0.00,-10.00,-22.00,-9.00,-20.00,-10.00,-14.00,-12.00,-16.00,-34.00,+8.00,+16.00,-18.00,-6.00
-6.00,-4.00,-1.00,-5.00,-5.00,-13.00,+10.00,+3.00,+8.00,+6.00,+9.00,+7.00,-1.00,+1.00,-1.00,+3.00
-6.00,-9.00,-1.00,-3.00,-2.00,+17.00,-3.00,+1.00,-8.00,-9.00,-14.00,-21.00,+16.00,+8.00,+0.00,-10.00
+6.00,+4.00,-8.00,-22.00,-51.00,-70.00,-69.00,-29.00,-1.00,+0.00,+8.00,-28.00,-21.00,+66.00,-6.00,-7.00
+5.00,+4.00,+2.00,+0.00,+16.00,+19.00,-16.00,-6.00,-14.00,-3.00,+11.00,+33.00,+40.00,+67.00,-27.00,-26.00
+9.00,+4.00,+9.00,+24.00,+61.00,+28.00,-27.00,-3.00,-5.00,-7.00,-20.00,-24.00,-14.00,-12.00,-1.00,-21.00
-28.00,-28.00,+0.00,+11.00,+10.00,-7.00,+43.00,+7.00,-8.00,+5.00,+7.00,+14.00,+30.00,-30.00,+18.00,+2.00
+25.00,+7.00,-4.00,-27.00,-66.00,-18.00,+19.00,+18.00,-12.00,-14.00,-13.00,+5.00,+9.00,+21.00,-28.00,-26.00
+31.00,+25.00,+8.00,+6.00,+41.00,-30.00,+21.00,+34.00,-9.00,-6.00,-4.00,-30.00,-30.00,-88.00,-11.00,+9.00
-9.00,-2.00,+0.00,+0.00,-10.00,+72.00,+27.00,-8.00,-9.00,-13.00,-15.00,+5.00,+42.00,+30.00,-45.00,-10.00
-6.00,-11.00,-9.00,-31.00,-79.00,-62.00,-80.00,-23.00,+3.00,+3.00,+5.00,+16.00,+14.00,+73.00,+46.00,+7.00
-15.00,-16.00,-5.00,+24.00,+83.00,+34.00,+32.00,+4.00,-56.00,-17.00,-8.00,+26.00,+38.00,-6.00,-45.00,-53.00
+12.00,+14.00,-7.00,-40.00,-104.00,-72.00,-21.00,-4.00,+76.00,+26.00,+23.00,+13.00,+3.00,-30.00,+16.00,+40.00
-9.00,-8.00,-6.00,+9.00,+62.00,-5.00,-14.00,-3.00,+1.00,+7.00,+4.00,+6.00,-26.00,-38.00,-33.00,+2.00
-5.00,-9.00,-9.00,+3.00,+38.00,+7.00,+18.00,-4.00,-11.00,-4.00,+5.00,-2.00,+2.00,-13.00,+5.00,+6.00
+30.00,+20.00,+14.00,+24.00,+5.00,+43.00,+29.00,+15.00,+11.00,-7.00,+2.00,+11.00,+11.00,-28.00,+23.00,+14.00
-15.00,-10.00,-12.00,-21.00,-30.00,-11.00,-36.00,-1.00,-42.00,-22.00,-39.00,-93.00,-61.00,-21.00,-67.00,-33.00
-31.00,-21.00,-16.00,-31.00,-67.00,-100.00,-73.00,-28.00,-3.00,-5.00,-3.00,-40.00,-89.00,-18.00,-17.00,-12.00
-4.00,+0.00,-11.00,-35.00,-59.00,-13.00,+1.00,-16.00,-5.00,+6.00,+7.00,+23.00,+22.00,-29.00,-23.00,+1.00
-1.00,+11.00,+10.00,+53.00,+115.00,+47.00,+65.00,+15.00,-8.00,-11.00,-9.00,+19.00,-8.00,-8.00,-4.00,-15.00
-4.00,-1.00,+7.00,+20.00,-11.00,+24.00,+32.00,+6.00,+4.00,-5.00,-44.00,-83.00,-75.00,-42.00,-25.00,-14.00
+11.00,+13.00,+12.00,+14.00,-34.00,-48.00,-70.00,+8.00,+13.00,+10.00,+22.00,+26.00,+37.00,+47.00,+52.00,+23.00
-4.00,+5.00,+12.00,+33.00,+41.00,+1.00,+12.00,+4.00,-28.00,-18.00,-19.00,-35.00,+6.00,+16.00,-52.00,-26.00
-11.00,-10.00,-7.00,-28.00,-48.00,-6.00,-6.00,+0.00,-14.00,-6.00,-22.00,-68.00,-52.00,+3.00,-19.00,+1.00
-8.00,-7.00,+1.00,+12.00,+70.00,+27.00,-22.00,-8.00,+43.00,+10.00,-3.00,+8.00,+6.00,-55.00,+8.00,+4.00
+38.00,+23.00,+12.00,+15.00,+24.00,+75.00,+84.00,+31.00,+10.00,+16.00,+20.00,+65.00,+97.00,-33.00,+26.00,+9.00
-2.00,+0.00,-1.00,+12.00,-11.00,-51.00,-39.00,+5.00,-11.00,-16.00,-32.00,-100.00,-51.00,+17.00,-6.00,-11.00
-8.00,-7.00,+5.00,+18.00,+49.00,+55.00,+28.00,+2.00,+29.00,+13.00,+48.00,+105.00,+120.00,+10.00,+27.00,+25.00
+2.00,+4.00,-11.00,-26.00,-47.00,-87.00,-39.00,-11.00,-13.00,+1.00,+10.00,+58.00,+8.00,-26.00,+34.00,-2.00
-22.00,-19.00,-15.00,-37.00,-39.00,+14.00,+7.00,-4.00,+2.00,-1.00,-14.00,-51.00,-32.00,+22.00,-6.00,-1.00
+11.00,+13.00,+10.00,+51.00,+107.00,+77.00,+33.00,+9.00,+10.00,+11.00,+14.00,+58.00,+80.00,+29.00,+4.00,+19.00
-23.00,-17.00,-10.00,-36.00,-78.00,-49.00,-7.00,-3.00,+14.00,-6.00,-16.00,+3.00,+25.00,-12.00,-3.00,-3.00
-25.00,-24.00,-15.00,-25.00,-32.00,-9.00,-17.00,-8.00,-34.00,+4.00,+11.00,+10.00,+12.00,+69.00,+2.00,+7.00
+7.00,+1.00,-3.00,+17.00,+17.00,-32.00,-5.00,+0.00,+20.00,+12.00,+37.00,+112.00,+40.00,-13.00,-14.00,-5.00
+10.00,+11.00,+0.00,-18.00,-56.00,-5.00,+13.00,-2.00,-2.00,-4.00,-13.00,-9.00,+8.00,+76.00,+46.00,+19.00
-12.00,-9.00,-5.00,-5.00,-3.00,+1.00,-3.00,-3.00,-5.00,-5.00,+0.00,+11.00,+25.00,+10.00,-54.00,-34.00
-38.00,-25.00,-14.00,-18.00,-35.00,+2.00,-43.00,-34.00,-23.00,-11.00,+5.00,+27.00,+16.00,+1.00,+3.00,+5.00
+5.00,-9.00,+4.00,+18.00,+44.00,+9.00,+41.00,+20.00,-3.00,-8.00,-6.00,-33.00,-69.00,-20.00,+41.00,+20.00
+19.00,+27.00,-10.00,-44.00,-86.00,-71.00,-61.00,-17.00,+10.00,+0.00,+2.00,+14.00,+19.00,+38.00,-36.00,-12.00
-6.00,-5.00,+5.00,+19.00,+41.00,+24.00,+36.00,+8.00,-18.00,-10.00,-17.00,-36.00,-9.00,-1.00,+19.00,-19.00
+23.00,+21.00,+9.00,+9.00,-3.00,-8.00,+5.00,+14.00,+5.00,-2.00,+3.00,+8.00,+32.00,+22.00,-4.00,+12.00
-11.00,-3.00,+8.00,+25.00,-11.00,+47.00,+7.00,-5.00,+8.00,+5.00,+1.00,+21.00,+24.00,+28.00,+5.00,+0.00
-4.00,-8.00,-4.00,-2.00,+39.00,+27.00,-39.00,-7.00,+16.00,+7.00,+0.00,-22.00,-2.00,+10.00,+34.00,+0.00
-9.00,-8.00,-9.00,-16.00,-26.00,-40.00,-61.00,-14.00,+2.00,+0.00,-6.00,+6.00,-5.00,-7.00,+37.00,+24.00
+6.00,+1.00,+5.00,+24.00,+23.00,+28.00,+48.00,+25.00,+2.00,+15.00,+76.00,+127.00,+127.00,+9.00,-51.00,-3.00
-14.00,-11.00,-9.00,-12.00,+17.00,-3.00,-45.00,-32.00,-2.00,-6.00,-25.00,-99.00,-31.00,+33.00,+35.00,+11.00
-14.00,-32.00,-4.00,+1.00,-10.00,+14.00,+59.00,+7.00,+21.00,+11.00,-8.00,-43.00,-78.00,-111.00,+47.00,+14.00
+12.00,+11.00,+11.00,+33.00,+73.00,+62.00,+39.00,+26.00,+17.00,+25.00,+37.00,+77.00,+97.00,+38.00,+5.00,+4.00
+32.00,+30.00,+16.00,+37.00,+59.00,+62.00,+29.00,+12.00,+2.00,-6.00,-8.00,-35.00,-56.00,+4.00,+19.00,+13.00
+11.00,+11.00,-2.00,-23.00,-58.00,-28.00,+4.00,+3.00,-8.00,+1.00,-7.00,-9.00,+10.00,+26.00,+29.00,+6.00
+17.00,+14.00,+3.00,-6.00,-16.00,+31.00,-5.00,+4.00,-8.00,-6.00,-7.00,-11.00,-26.00,-50.00,-90.00,-21.00
-11.00,-32.00,-6.00,+3.00,+7.00,-23.00,-18.00,+9.00,-14.00,+1.00,+6.00,+14.00,-64.00,-31.00,+4.00,+2.00
-13.00,-17.00,-9.00,-16.00,-22.00,-2.00,+1.00,-20.00,+1.00,-12.00,-28.00,-58.00,-70.00,+36.00,+33.00,-7.00
-14.00,+9.00,-1.00,-7.00,-4.00,-21.00,+43.00,+6.00,-11.00,-6.00,+2.00,-20.00,-39.00,-24.00,+3.00,+1.00
+32.00,+15.00,+13.00,+36.00,+107.00,+56.00,+4.00,+17.00,+32.00,+5.00,-4.00,-6.00,-13.00,-8.00,-40.00,+15.00
+11.00,+11.00,+0.00,-18.00,-64.00,-33.00,-20.00,-16.00,+9.00,+9.00,+20.00,+13.00,-5.00,+29.00,-9.00,+13.00
-29.00,-16.00,-6.00,-11.00,-23.00,-46.00,+1.00,+5.00,-25.00,-3.00,-27.00,-86.00,-84.00,-11.00,-2.00,-20.00
+9.00,+0.00,+2.00,+8.00,+20.00,+24.00,+16.00,-5.00,+2.00,-16.00,-17.00,-20.00,-35.00,-41.00,-29.00,-1.00
-33.00,-19.00,-8.00,-19.00,-37.00,-13.00,-31.00,-15.00,-40.00,-17.00,-25.00,-13.00,+13.00,+41.00,-59.00,-40.00
+0.00,-1.00,-5.00,-15.00,-34.00,-35.00,-19.00,-1.00,+20.00,+17.00,+22.00,+48.00,+33.00,-39.00,+2.00,+29.00
+27.00,+13.00,+6.00,+4.00,-4.00,+11.00,-19.00,+7.00,+0.00,-2.00,-1.00,-10.00,+1.00,+48.00,+14.00,-11.00
-4.00,-9.00,-3.00,+3.00,+44.00,+11.00,+10.00,+9.00,-24.00,-3.00,+14.00,+67.00,+94.00,+108.00,-49.00,-30.00
-11.00,+2.00,-1.00,-8.00,+6.00,-31.00,-23.00,-7.00,-31.00,-10.00,+9.00,+51.00,+16.00,-38.00,-53.00,-15.00
+7.00,+7.00,+2.00,+4.00,+0.00,+26.00,+24.00,+3.00,+38.00,-1.00,-30.00,-75.00,-28.00,+22.00,+10.00,-1.00
-5.00,-8.00,+4.00,+14.00,+32.00,+13.00,-27.00,+4.00,-14.00,-6.00,-5.00,+9.00,+12.00,+24.00,-3.00,-7.00
+15.00,+6.00,-8.00,-30.00,-59.00,-53.00,-12.00,+3.00,+8.00,-1.00,-8.00,+61.00,+81.00,+59.00,+36.00,+0.00
-5.00,+5.00,+2.00,+18.00,+42.00,+27.00,+6.00,-6.00,-8.00,+2.00,-8.00,-61.00,-63.00,-35.00,+40.00,-20.00
-16.00,-9.00,-8.00,-8.00,-27.00,-69.00,-53.00,-22.00,-14.00,-3.00,-4.00,-23.00,-19.00,-48.00,+31.00,+4.00
-2.00,+2.00,+3.00,+6.00,+3.00,+56.00,+36.00,+3.00,+8.00,-3.00,+8.00,+2.00,+1.00,-18.00,-14.00,+5.00
-10.00,-1.00,+6.00,+14.00,+16.00,+14.00,-43.00,-7.00,-25.00,-19.00,-25.00,-62.00,-71.00,-62.00,-3.00,-28.00
-16.00,-7.00,-3.00,-5.00,-7.00,-31.00,+12.00,+4.00,+17.00,+8.00,+22.00,+39.00,+19.00,-52.00,+37.00,-12.00
-10.00,-9.00,+0.00,-7.00,-19.00,+4.00,+10.00,+19.00,-19.00,-7.00,-11.00,-5.00,-11.00,+11.00,+12.00,-5.00
+9.00,+22.00,+5.00,+15.00,+26.00,+7.00,+6.00,-1.00,+13.00,+4.00,-17.00,-26.00,+1.00,-77.00,+15.00,+17.00
-28.00,-22.00,-14.00,-31.00,-54.00,-48.00,-7.00,-9.00,+26.00,+17.00,+12.00,-26.00,-37.00,+9.00,-2.00,+27.00
+22.00,+20.00,+14.00,+41.00,+69.00,+74.00,+38.00,+7.00,-15.00,-3.00,-6.00,-45.00,-39.00,+65.00,+31.00,-10.00
+5.00,+7.00,+1.00,-2.00,-14.00,-28.00,-40.00,-2.00,-17.00,-14.00,-9.00,-7.00,+17.00,-5.00,-9.00,-14.00
+9.00,-4.00,-3.00,-17.00,-28.00,-33.00,-21.00,-3.00,+3.00,+3.00,+3.00,+31.00,+36.00,+18.00,+11.00,-13.00
-2.00,+0.00,-3.00,-6.00,-25.00,-1.00,+12.00,+1.00,-6.00,-5.00,-5.00,-11.00,+0.00,+43.00,+0.00,-6.00
+1.00,-7.00,-1.00,-2.00,-5.00,+5.00,+15.00,+7.00,-2.00,+0.00,+6.00,+12.00,+11.00,-1.00,-47.00,+15.00
+11.00,+7.00,-1.00,-3.00,+19.00,+48.00,+30.00,-10.00,+19.00,+12.00,+2.00,-8.00,+9.00,+38.00,-50.00,+3.00
-7.00,-3.00,-6.00,-14.00,-11.00,-5.00,-19.00,-13.00,-11.00,-2.00,+15.00,+68.00,+45.00,-2.00,-32.00,-9.00
-1.00,+3.00,+3.00,+18.00,+17.00,-5.00,-19.00,-7.00,+9.00,+6.00,+19.00,+73.00,+79.00,+40.00,-1.00,+10.00
+2.00,-2.00,+4.00,+7.00,-5.00,-18.00,-18.00,+5.00,-4.00,+3.00,-12.00,-31.00,-65.00,+3.00,+5.00,-5.00
+2.00,+6.00,+6.00,+20.00,+52.00,+47.00,+12.00,+2.00,-2.00,-11.00,-11.00,-17.00,-31.00,-38.00,+2.00,+5.00
-8.00,-14.00,-6.00,-21.00,-48.00,-15.00,-14.00,-8.00,-3.00,-2.00,-20.00,-39.00,-58.00,-53.00,-19.00,-5.00
+6.00,-2.00,-3.00,-1.00,+18.00,-3.00,+2.00,+1.00,-6.00,-8.00,-11.00,-21.00,-11.00,+68.00,+7.00,-13.00
+25.00,+10.00,+1.00,-10.00,-28.00,-8.00,-10.00,+11.00,-7.00,+1.00,+30.00,+56.00,+61.00,-33.00,+34.00,+14.00
-5.00,-6.00,-5.00,-9.00,-11.00,-13.00,-11.00,+0.00,-6.00,-2.00,-1.00,+3.00,+10.00,-10.00,-4.00,-2.00
+28.00,+26.00,+5.00,-2.00,-7.00,-10.00,+35.00,+20.00,+30.00,+9.00,+31.00,+114.00,+119.00,+83.00,+58.00,+5.00
+3.00,-7.00,+1.00,+0.00,-1.00,+18.00,-23.00,-5.00,-36.00,-19.00,-26.00,-41.00,-21.00,-7.00,-47.00,-34.00
-12.00,-1.00,-11.00,-13.00,-19.00,-21.00,-7.00,-8.00,+16.00,+3.00,+3.00,+1.00,+1.00,-37.00,-25.00,-11.00
+1.00,+2.00,-2.00,-1.00,+8.00,+19.00,+19.00,+0.00,+13.00,+5.00,-7.00,-28.00,-26.00,-11.00,-31.00,+33.00
-2.00,-3.00,+3.00,+13.00,+36.00,+5.00,-21.00,-1.00,-5.00,-5.00,+9.00,+4.00,-18.00,+14.00,+18.00,+3.00
-12.00,-8.00,-1.00,-7.00,-9.00,-7.00,+8.00,+1.00,+6.00,+4.00,+11.00,-20.00,-12.00,+25.00,-25.00,-1.00
-3.00,-7.00,+0.00,+3.00,-7.00,-4.00,+28.00,+0.00,+11.00,+1.00,-6.00,-1.00,-15.00,-43.00,+12.00,+14.00
+13.00,+13.00,+1.00,-6.00,-2.00,+33.00,+20.00,-6.00,-26.00,-4.00,+5.00,+3.00,-27.00,+13.00,+10.00,-33.00
-1.00,+5.00,-1.00,+3.00,-4.00,-1.00,+11.00,+2.00,+0.00,-5.00,-34.00,-53.00,-36.00,-18.00,-19.00,+7.00
+9.00,+3.00,+4.00,+5.00,+3.00,+6.00,+13.00,+11.00,+12.00,+2.00,+8.00,+54.00,+63.00,-50.00,-3.00,+5.00
-17.00,-20.00,-8.00,-10.00,+3.00,-24.00,-11.00,-20.00,+2.00,-1.00,-13.00,-49.00,-44.00,+18.00,+0.00,+15.00
-15.00,-12.00,-7.00,-12.00,-31.00,-28.00,-20.00,-14.00,+8.00,+3.00,+10.00,+54.00,+52.00,+9.00,+27.00,+9.00
-23.00,-10.00,-1.00,+3.00,+6.00,-6.00,-5.00,-14.00,-26.00,-11.00,-26.00,-65.00,-40.00,+61.00,+50.00,-12.00
+6.00,+1.00,-4.00,-10.00,-21.00,-32.00,-9.00,+0.00,-37.00,-4.00,+9.00,+15.00,+11.00,-6.00,+51.00,+12.00
-8.00,-8.00,-4.00,-5.00,-11.00,+10.00,+7.00,-3.00,+41.00,-3.00,-5.00,-1.00,+11.00,+19.00,+66.00,+18.00
+1.00,+1.00,+0.00,-2.00,-7.00,-11.00,-30.00,-6.00,+23.00,+12.00,+1.00,+10.00,+9.00,+21.00,-1.00,+0.00
-19.00,-20.00,-6.00,-10.00,-12.00,-1.00,-23.00,-6.00,-20.00,-1.00,-4.00,-28.00,-38.00,-15.00,-4.00,-18.00
-12.00,+5.00,+0.00,+0.00,+25.00,+15.00,+41.00,-3.00,+18.00,+0.00,+1.00,+5.00,-18.00,-58.00,-7.00,+2.00
+30.00,+13.00,+3.00,-9.00,-31.00,-58.00,-32.00,+6.00,-18.00,-2.00,+13.00,+4.00,+11.00,+16.00,-6.00,+9.00
-5.00,-3.00,-5.00,-9.00,-10.00,-3.00,-26.00,-5.00,-29.00,-17.00,-18.00,-53.00,-56.00,-3.00,-22.00,-26.00
-9.00,-18.00,-4.00,+0.00,+25.00,+37.00,-17.00,-2.00,+48.00,+20.00,+9.00,+5.00,-27.00,-37.00,+12.00,+29.00
+8.00,+4.00,+2.00,+4.00,-1.00,+10.00,+5.00,+5.00,-6.00,+0.00,-2.00,-47.00,-55.00,-35.00,-26.00,-1.00
+6.00,+8.00,+1.00,+3.00,+6.00,-11.00,-5.00,+3.00,-24.00,-10.00,-9.00,+4.00,+25.00,+37.00,-33.00,-17.00
+0.00,+1.00,+0.00,-4.00,-14.00,-5.00,+9.00,+3.00,+3.00,-1.00,-6.00,-14.00,+6.00,+5.00,-13.00,-5.00
+4.00,-2.00,-1.00,+4.00,+6.00,-8.00,-17.00,+2.00,-25.00,-13.00,-5.00,-13.00,+51.00,-2.00,-48.00,-13.00
+1.00,-9.00,-2.00,-2.00,-5.00,-15.00,-19.00,-1.00,+30.00,+9.00,-8.00,-60.00,-100.00,-44.00,+24.00,+5.00
-4.00,+6.00,-2.00,+2.00,+5.00,+2.00,+30.00,+4.00,+16.00,+12.00,+3.00,+18.00,+1.00,+8.00,+0.00,+12.00
-3.00,+2.00,+1.00,+3.00,-6.00,-17.00,-22.00,-5.00,-11.00,-5.00,+0.00,-11.00,-9.00,+54.00,+35.00,-3.00
-10.00,-8.00,-2.00,+6.00,+0.00,-2.00,+61.00,+11.00,-11.00,-11.00,-4.00,+16.00,+17.00,+13.00,-17.00,-12.00
-1.00,+0.00,-8.00,-14.00,-38.00,-23.00,-25.00,-12.00,-7.00,+1.00,+2.00,+0.00,+13.00,+8.00,-3.00,+20.00
+7.00,-4.00,+0.00,+7.00,+37.00,+18.00,+48.00,+23.00,-37.00,-12.00,-6.00,+8.00,+2.00,+7.00,-24.00,-23.00
-6.00,-3.00,+0.00,+1.00,+3.00,+8.00,+21.00,+0.00,+53.00,+18.00,+17.00,+23.00,+29.00,+7.00,+30.00,+23.00
+11.00,+5.00,+5.00,+4.00,-6.00,+10.00,+18.00,+7.00,-11.00,+3.00,+14.00,+30.00,+7.00,+9.00,+5.00,+17.00
-1.00,+1.00,+1.00,+5.00,+11.00,-8.00,-28.00,-4.00,+4.00,+0.00,+2.00,+11.00,-5.00,+8.00,+18.00,+2.00
-2.00,+0.00,+1.00,-3.00,-21.00,+14.00,-4.00,-2.00,-1.00,+1.00,-5.00,-12.00,+25.00,-26.00,-7.00,+0.00
-13.00,-6.00,-3.00,-2.00,+1.00,-9.00,-47.00,-11.00,-8.00,-7.00,-1.00,+1.00,-22.00,-28.00,+24.00,+17.00
+13.00,+14.00,+8.00,+7.00,+13.00,+20.00,-24.00,-1.00,-2.00,+3.00,+15.00,+0.00,-5.00,+2.00,-1.00,+10.00
-8.00,-5.00,-1.00,-8.00,-7.00,+17.00,+24.00,+0.00,+10.00,+1.00,+4.00,+18.00,+31.00,+6.00,+3.00,-3.00
-10.00,-2.00,-2.00,-6.00,-16.00,-10.00,-34.00,-15.00,+12.00,+6.00,+7.00,+43.00,+31.00,+57.00,+12.00,+7.00
+16.00,+9.00,+7.00,+7.00,+10.00,-1.00,-18.00,+4.00,-23.00,-11.00,-14.00,-23.00,-17.00,-57.00,-61.00,-34.00
-4.00,-2.00,-6.00,-10.00,-25.00,-22.00,+3.00,-8.00,+0.00,+1.00,+2.00,+7.00,-3.00,-6.00,+4.00,+2.00
+6.00,-4.00,-4.00,+2.00,+11.00,-7.00,-5.00,-7.00,-7.00,-7.00,+3.00,+24.00,+0.00,-25.00,+8.00,-10.00
-17.00,-17.00,-4.00,+4.00,+19.00,+2.00,-52.00,-30.00,+12.00,-1.00,-3.00,+3.00,-21.00,-50.00,-1.00,+4.00
+23.00,+26.00,-1.00,-23.00,-58.00,+10.00,+21.00,+7.00,+0.00,+0.00,-9.00,-14.00,-3.00,-31.00,+17.00,-13.00
+1.00,-2.00,+1.00,+6.00,+14.00,-29.00,+1.00,+5.00,+6.00,+4.00,+6.00,+33.00,+13.00,+20.00,+23.00,+23.00
-5.00,+1.00,-2.00,-5.00,-4.00,+12.00,+28.00,+0.00,+12.00,+2.00,-12.00,-30.00,+17.00,+20.00,+4.00,-20.00
-1.00,-7.00,-2.00,-1.00,-5.00,-19.00,-5.00,+6.00,-2.00,+0.00,-7.00,-6.00,-24.00,-7.00,-15.00,-8.00
-18.00,-19.00,-7.00,+6.00,+10.00,-20.00,+1.00,-19.00,-17.00,-10.00,-10.00,-42.00,-43.00,-7.00,-6.00,-10.00
-8.00,+0.00,-2.00,+3.00,+16.00,+8.00,+14.00,-9.00,-6.00,-7.00,-10.00,-9.00,+6.00,-21.00,+18.00,+1.00
+5.00,+9.00,+2.00,+4.00,-2.00,+3.00,+21.00,+12.00,+4.00,+4.00,+6.00,+22.00,-11.00,+3.00,+5.00,-10.00
-4.00,-8.00,-1.00,+1.00,+19.00,+27.00,+4.00,-1.00,+3.00,-3.00,-10.00,-2.00,+17.00,+11.00,-1.00,+22.00
+6.00,+7.00,+2.00,+0.00,+8.00,-4.00,+27.00,+6.00,-23.00,+3.00,+9.00,+15.00,+24.00,-1.00,-6.00,-19.00
-5.00,+4.00,-2.00,-3.00,+1.00,+4.00,+4.00,-1.00,+3.00,-2.00,-1.00,-11.00,-18.00,+19.00,+2.00,-4.00
-8.00,-6.00,+1.00,+4.00,-10.00,-10.00,-22.00,-6.00,-3.00,-7.00,-12.00,-19.00,-6.00,+37.00,-13.00,-3.00
+11.00,+14.00,+9.00,+0.00,-14.00,+15.00,-15.00,-3.00,-14.00,-5.00,-7.00,-54.00,-42.00,+8.00,+7.00,-13.00
+0.00,-5.00,+1.00,+9.00,+14.00,+19.00,+28.00,+17.00,+2.00,+4.00,+2.00,+16.00,-38.00,-29.00,-35.00,-1.00
+4.00,+3.00,+0.00,+0.00,-2.00,+7.00,+15.00,+9.00,+8.00,-2.00,+3.00,+22.00,+35.00,-16.00,+8.00,-3.00
+5.00,+4.00,+4.00,-1.00,-31.00,-13.00,-7.00,+2.00,-5.00,+1.00,-6.00,-37.00,-37.00,-27.00,-22.00,+5.00
-17.00,-5.00,-4.00,-6.00,-5.00,-13.00,-10.00,-6.00,-9.00,-6.00,+5.00,+25.00,-3.00,+5.00,+7.00,+0.00
+24.00,+3.00,+2.00,+5.00,+12.00,-4.00,-12.00,+5.00,-7.00,-3.00,-6.00,-13.00,-3.00,+23.00,+3.00,+1.00
-7.00,-6.00,-1.00,-2.00,-6.00,-19.00,-55.00,-13.00,+10.00,-1.00,+3.00,-1.00,+4.00,-9.00,-35.00,-12.00
-1.00,+3.00,+0.00,+5.00,+13.00,+2.00,-28.00,+2.00,+9.00,+8.00,+16.00,+46.00,+21.00,-35.00,+0.00,+12.00
+6.00,+6.00,+3.00,+1.00,+0.00,-15.00,-5.00,+1.00,+0.00,+0.00,+3.00,+26.00,+25.00,+40.00,-5.00,-1.00
-23.00,-20.00,-8.00,-3.00,+16.00,+41.00,+37.00,-2.00,+5.00,-2.00,-11.00,-26.00,-22.00,+8.00,+5.00,+9.00
+0.00,-8.00,-8.00,-15.00,-22.00,+3.00,-11.00,-11.00,-15.00,+2.00,+1.00,+1.00,+5.00,-20.00,-18.00,-17.00
-5.00,-2.00,-4.00,-6.00,-2.00,-4.00,-5.00,-1.00,-1.00,-3.00,-4.00,+8.00,+16.00,-21.00,+2.00,+3.00
+16.00,+12.00,+6.00,+7.00,-2.00,+15.00,+5.00,+2.00,-15.00,-5.00,+2.00,+2.00,+9.00,-7.00,+5.00,-10.00
-14.00,-10.00,-3.00,-2.00,-5.00,-16.00,-26.00,-11.00,+2.00,-1.00,-1.00,+7.00,+16.00,+11.00,+31.00,+11.00
-2.00,-4.00,-5.00,-2.00,+4.00,-5.00,+5.00,-1.00,+0.00,-3.00,-4.00,-9.00,-5.00,+23.00,+16.00,+0.00
+7.00,+9.00,+3.00,+2.00,+7.00,+13.00,+11.00,+4.00,-27.00,-12.00,-7.00,-18.00,-26.00,-22.00,-24.00,-12.00
-5.00,+1.00,+0.00,+3.00,+11.00,+11.00,+3.00,+0.00,-3.00,-1.00,-5.00,-16.00,-3.00,+25.00,-10.00,-21.00
-4.00,-4.00,+2.00,+3.00,-3.00,-16.00,+2.00,-1.00,-7.00,-2.00,+4.00,-9.00,-2.00,+16.00,-11.00,-1.00
+7.00,-2.00,+4.00,+12.00,-16.00,+6.00,+24.00,+18.00,+8.00,+0.00,-1.00,+12.00,+0.00,-28.00,-5.00,+3.00
-5.00,-9.00,-6.00,-6.00,+5.00,-11.00,-4.00,-9.00,-20.00,-10.00,-16.00,-36.00,-22.00,+20.00,+11.00,-9.00
+1.00,+0.00,-2.00,-2.00,+3.00,+1.00,+26.00,+8.00,-9.00,-9.00,-13.00,-15.00,-14.00,-33.00,-5.00,-7.00
+6.00,+7.00,+3.00,+1.00,+0.00,-11.00,-41.00,-5.00,+13.00,+9.00,+10.00,+19.00,-20.00,-31.00,+16.00,+8.00
+5.00,+3.00,-1.00,-4.00,-6.00,-9.00,-7.00,-5.00,-5.00,-2.00,-7.00,-12.00,+14.00,+8.00,-29.00,-3.00
-6.00,-6.00,-1.00,-2.00,+4.00,+14.00,+6.00,-3.00,+13.00,+9.00,+7.00,+20.00,+8.00,-3.00,+31.00,+7.00
-1.00,-9.00,-7.00,-5.00,-5.00,-13.00,+6.00,+1.00,-18.00,-1.00,-2.00,-8.00,-24.00,-24.00,-2.00,+6.00
-19.00,+1.00,-3.00,-14.00,-46.00,-17.00,-13.00,-11.00,+16.00,-6.00,-6.00,+8.00,+18.00,-4.00,-28.00,-7.00
+3.00,-4.00,+0.00,+7.00,+20.00,+3.00,-3.00,-3.00,-2.00,+5.00,+6.00,+11.00,+8.00,+6.00,+9.00,+18.00
+3.00,+0.00,+0.00,+2.00,+3.00,-4.00,+12.00,+0.00,+9.00,+3.00,+7.00,+7.00,+22.00,+20.00,+12.00,+12.00
-14.00,-8.00,-9.00,-18.00,-3.00,+22.00,-27.00,-12.00,+17.00,+9.00,+10.00,+20.00,+16.00,-52.00,+12.00,+7.00
+4.00,+1.00,+3.00,+10.00,+17.00,+7.00,+10.00,+5.00,-11.00,-8.00,-7.00,+0.00,+2.00,+46.00,-4.00,-6.00
-5.00,+1.00,-1.00,-5.00,-1.00,-2.00,+2.00,-5.00,-10.00,-4.00,-3.00,+2.00,-28.00,-41.00,-8.00,-16.00
+4.00,-1.00,-2.00,-1.00,+4.00,+6.00,+13.00,+1.00,+7.00,-2.00,-7.00,-2.00,+13.00,+63.00,-6.00,+14.00
-9.00,-6.00,-6.00,-5.00,-8.00,-6.00,-31.00,-8.00,+6.00,+4.00,+21.00,+32.00,+35.00,+30.00,+21.00,+8.00
-12.00,-6.00,-1.00,+4.00,+10.00,+0.00,+10.00,-1.00,-7.00,-6.00,-7.00,-16.00,-1.00,+9.00,-38.00,-3.00
-5.00,+2.00,+0.00,-6.00,+0.00,+10.00,+2.00,-4.00,+24.00,+7.00,+1.00,+9.00,+11.00,-13.00,-4.00,-6.00
-4.00,-4.00,+0.00,+2.00,+1.00,-2.00,-24.00,-11.00,-9.00,-6.00,-6.00,-12.00,-28.00,+1.00,+6.00,+0.00
+4.00,+6.00,+0.00,-2.00,-15.00,-9.00,+13.00,+4.00,-3.00,-1.00,-4.00,-12.00,-6.00,+37.00,-18.00,-4.00
-4.00,-7.00,-4.00,-7.00,-8.00,-15.00,-13.00,-3.00,-4.00,-7.00,-9.00,-10.00,+0.00,+5.00,-13.00,-9.00
+3.00,-6.00,+2.00,+6.00,+15.00,+4.00,+5.00,+6.00,-12.00,+0.00,+8.00,-3.00,-21.00,+0.00,+8.00,-8.00
-3.00,+13.00,+2.00,-7.00,-38.00,-9.00,-11.00,-6.00,+11.00,+3.00,+3.00,-3.00,-2.00,-30.00,-12.00,+9.00
+2.00,+1.00,+3.00,+5.00,+18.00,+0.00,+6.00,+4.00,+34.00,+9.00,+7.00,+21.00,+0.00,-12.00,+3.00,+18.00
+2.00,+0.00,+0.00,+11.00,+24.00,+10.00,-2.00,-1.00,-11.00,-2.00,-8.00,-8.00,+0.00,-21.00,-9.00,-9.00
-8.00,-3.00,-3.00,-4.00,-5.00,-8.00,-5.00,-5.00,-8.00,-8.00,-5.00,-6.00,-7.00,+38.00,-16.00,-6.00
+0.00,-6.00,-2.00,-4.00,-7.00,-6.00,+8.00,-2.00,+0.00,+2.00,+12.00,+14.00,+6.00,-5.00,+21.00,-2.00
-14.00,-12.00,-1.00,+2.00,-6.00,-2.00,-7.00,-1.00,-2.00,-1.00,-4.00,-22.00,-15.00,+1.00,+17.00,+4.00
+14.00,+6.00,-1.00,-6.00,-7.00,-3.00,+5.00,+8.00,+1.00,+2.00,+1.00,-1.00,+7.00,-5.00,-1.00,+3.00
+19.00,+12.00,+3.00,+2.00,+7.00,-2.00,+2.00,+9.00,-2.00,+2.00,-5.00,-9.00,-10.00,-16.00,+1.00,-2.00
+0.00,+3.00,-3.00,-2.00,+5.00,-16.00,+6.00,+2.00,-1.00,-7.00,-4.00,+2.00,+13.00,-3.00,+5.00,-13.00
-2.00,+2.00,-1.00,+0.00,-5.00,+0.00,+6.00,-2.00,-2.00,-2.00,+0.00,+4.00,+13.00,-7.00,+8.00,+0.00
-6.00,-8.00,-3.00,-1.00,+4.00,+7.00,+8.00,+1.00,+3.00,-3.00,-2.00,+1.00,-6.00,+1.00,+12.00,+2.00
-8.00,-1.00,+0.00,-4.00,-14.00,-6.00,-15.00,-8.00,-3.00,-1.00,-2.00,-13.00,+0.00,+7.00,+1.00,+1.00
-3.00,-2.00,-2.00,-4.00,+0.00,+3.00,+5.00,+1.00,-10.00,-4.00,-3.00,-4.00,-3.00,-6.00,-7.00,-11.00
-8.00,-7.00,-4.00,-8.00,-3.00,-19.00,+28.00,-1.00,-8.00,+0.00,-13.00,-15.00,+3.00,-11.00,-13.00,-9.00
+17.00,+8.00,+1.00,+0.00,-7.00,-2.00,-11.00,+2.00,+16.00,+4.00,+1.00,-11.00,-12.00,-14.00,-5.00,+11.00
+4.00,+3.00,+1.00,+6.00,+11.00,+18.00,+9.00,+1.00,+2.00,+0.00,+3.00,+22.00,+24.00,+0.00,-6.00,+1.00
+2.00,-1.00,+2.00,+4.00,+17.00,+10.00,+8.00,+4.00,+9.00,+6.00,+6.00,+16.00,-10.00,+8.00,+4.00,+8.00
-7.00,-3.00,-3.00,-2.00,-5.00,-8.00,-4.00,-6.00,+4.00,-2.00,-1.00,-11.00,-21.00,-18.00,-4.00,+4.00
-12.00,-3.00,-3.00,-5.00,-8.00,-6.00,-13.00,-8.00,-12.00,+1.00,-1.00,+2.00,-1.00,-9.00,+5.00,-8.00
-7.00,-4.00,-3.00,-4.00,-7.00,-7.00,+2.00,+4.00,+5.00,+0.00,-3.00,-11.00,-5.00,+16.00,-4.00,+1.00
-2.00,-4.00,-1.00,+2.00,+6.00,+1.00,-8.00,-7.00,+6.00,-2.00,-1.00,-2.00,-10.00,-10.00,-15.00,-1.00
-2.00,-1.00,+0.00,-1.00,-2.00,-1.00,+6.00,+2.00,-7.00,-7.00,+0.00,+2.00,-2.00,-10.00,-18.00,-8.00
+4.00,+2.00,+0.00,-4.00,-2.00,-2.00,+7.00,-1.00,-16.00,-7.00,+2.00,+9.00,+9.00,+4.00,+10.00,-5.00
-6.00,-6.00,-2.00,+0.00,-3.00,+2.00,-6.00,-2.00,+10.00,+1.00,+1.00,-5.00,-9.00,+1.00,-11.00,+14.00
-4.00,-1.00,+0.00,-1.00,+0.00,-1.00,-2.00,+0.00,-10.00,-3.00,-5.00,+1.00,+6.00,-40.00,-14.00,-5.00
+7.00,+4.00,+2.00,+2.00,-1.00,+6.00,+16.00,+3.00,-6.00,+0.00,+1.00,+1.00,-4.00,+14.00,+15.00,-6.00
-2.00,-2.00,-1.00,+0.00,+5.00,+1.00,+10.00,+2.00,-1.00,-4.00,+0.00,-4.00,+0.00,+0.00,-17.00,-10.00
+7.00,+0.00,-1.00,-2.00,-9.00,+1.00,+3.00,+2.00,-3.00,-6.00,-9.00,-14.00,+11.00,+7.00,-2.00,-10.00
-5.00,-4.00,+1.00,-1.00,+1.00,+4.00,-39.00,-7.00,-3.00,-2.00,-3.00,-5.00,-15.00,-51.00,-5.00,+1.00
+7.00,+5.00,+1.00,+3.00,+2.00,+2.00,-6.00,+0.00,+0.00,-2.00,-5.00,-14.00,-15.00,-9.00,-8.00,-1.00
+14.00,+4.00,+1.00,+6.00,+12.00,+12.00,+2.00,-1.00,+1.00,+1.00,+2.00,+3.00,-1.00,-1.00,+14.00,+8.00
-6.00,-5.00,-2.00,-5.00,-4.00,-6.00,-6.00,-4.00,-6.00,-3.00,+3.00,-9.00,-15.00,-31.00,+5.00,-4.00
+4.00,+4.00,+0.00,+1.00,+4.00,+0.00,+3.00,+0.00,-6.00,+2.00,-2.00,+0.00,+9.00,+26.00,+5.00,-10.00
+3.00,+0.00,-3.00,-3.00,-2.00,+2.00,-14.00,+4.00,+11.00,+1.00,+6.00,+11.00,+12.00,+0.00,+0.00,+2.00
-3.00,+0.00,+0.00,-7.00,-13.00,-9.00,-4.00,-4.00,-12.00,-5.00,+2.00,+3.00,-3.00,-5.00,+2.00,+0.00
-5.00,+1.00,-1.00,-3.00,-3.00,-7.00,-4.00,-3.00,-6.00,-3.00,-4.00,-3.00,-4.00,-11.00,-3.00,-3.00
-2.00,-4.00,+0.00,+4.00,+8.00,+4.00,+10.00,+5.00,+3.00,-3.00,-1.00,-5.00,+6.00,+3.00,+9.00,-2.00
-5.00,-2.00,+0.00,+3.00,+1.00,-5.00,-7.00,-4.00,-2.00,-3.00,-3.00,+1.00,+0.00,+2.00,-4.00,+4.00
-10.00,-7.00,-2.00,-3.00,-5.00,-5.00,-1.00,-5.00,+2.00,+4.00,+0.00,+1.00,+5.00,-1.00,-1.00,-3.00
-1.00,+3.00,+1.00,+0.00,-2.00,-10.00,+13.00,+0.00,+2.00,+1.00,-3.00,+1.00,+6.00,+8.00,-3.00,+9.00
-4.00,-4.00,-3.00,-1.00,-5.00,+4.00,+1.00,-11.00,-5.00,-4.00,-2.00,+12.00,+7.00,+5.00,+2.00,-3.00
+13.00,+6.00,+1.00,+1.00,-6.00,-2.00,-3.00,+2.00,-12.00,-4.00,+2.00,+1.00,+1.00,-1.00,-4.00,-15.00
+0.00,-1.00,-1.00,+2.00,-2.00,-4.00,-4.00,-1.00,+6.00,-2.00,-6.00,-12.00,-27.00,-10.00,+0.00,+2.00
+1.00,+1.00,-1.00,+1.00,+23.00,+12.00,+4.00,-1.00,+2.00,+0.00,-4.00,-9.00,-8.00,-5.00,-7.00,-4.00
-2.00,-1.00,+0.00,-3.00,-15.00,-10.00,-7.00,-2.00,-3.00,-1.00,-3.00,-12.00,-2.00,+24.00,-8.00,-10.00
-9.00,-6.00,-2.00,+1.00,-2.00,+1.00,-15.00,+1.00,+0.00,-2.00,-5.00,-4.00,-2.00,-3.00,+2.00,-1.00
-3.00,+1.00,-1.00,+1.00,+3.00,+8.00,-3.00,-2.00,+5.00,+1.00,+2.00,+3.00,+10.00,+4.00,+5.00,+1.00
-7.00,-2.00,-1.00,-3.00,-6.00,-15.00,-8.00,-7.00,-4.00,-2.00,+1.00,-3.00,-9.00,-4.00,-4.00,+0.00
+2.00,+2.00,-3.00,+1.00,+5.00,+7.00,-2.00,-4.00,-8.00,-1.00,+3.00,-5.00,-5.00,+6.00,-6.00,-6.00
-4.00,-2.00,-2.00,-1.00,-2.00,+2.00,-3.00,-3.00,+9.00,+1.00,+1.00,+1.00,+4.00,+5.00,+1.00,+1.00
-10.00,-6.00,-3.00,-4.00,-2.00,-8.00,-2.00,-1.00,-5.00,+4.00,+3.00,+2.00,+6.00,+3.00,+1.00,-1.00
+10.00,+3.00,+0.00,+1.00,-4.00,+3.00,+5.00,+7.00,+2.00,+0.00,-5.00,+0.00,-4.00,+12.00,+11.00,-3.00
-4.00,-1.00,-4.00,-2.00,-1.00,-7.00,+3.00,+2.00,-2.00,-2.00,-2.00,-4.00,+2.00,+1.00,-5.00,+3.00
+6.00,-1.00,+3.00,+2.00,-2.00,-1.00,+4.00,+1.00,-5.00,-1.00,+0.00,+3.00,+5.00,+4.00,-1.00,-2.00
-4.00,-6.00,-2.00,-3.00,-3.00,+1.00,+6.00,+11.00,+2.00,-2.00,+0.00,+1.00,+0.00,-39.00,+6.00,-1.00
-2.00,-2.00,-1.00,-1.00,-3.00,+0.00,-1.00,+0.00,-10.00,-4.00,-3.00,+4.00,-2.00,+1.00,-1.00,-14.00
+0.00,+2.00,+2.00,+1.00,+1.00,+1.00,+4.00,+4.00,-3.00,-3.00,-3.00,+0.00,+3.00,+3.00,+1.00,-4.00
-4.00,-4.00,-1.00,-5.00,+2.00,+0.00,-3.00,-1.00,-3.00,-1.00,-1.00,+8.00,+17.00,-1.00,-5.00,-15.00
+4.00,+7.00,-2.00,-2.00,-8.00,-9.00,-3.00,-4.00,-2.00,-5.00,-7.00,-17.00,-16.00,+1.00,+1.00,+6.00
-1.00,-1.00,-1.00,-1.00,+8.00,+6.00,-2.00,-6.00,-9.00,-4.00,+2.00,+5.00,+11.00,+2.00,+6.00,-13.00
+3.00,+0.00,-1.00,+1.00,-3.00,-1.00,+1.00,+3.00,+10.00,+0.00,-5.00,-24.00,-21.00,+7.00,+3.00,+5.00
-20.00,-4.00,-2.00,+0.00,+12.00,+2.00,+0.00,+5.00,-2.00,-4.00,-2.00,-3.00,-1.00,-6.00,-10.00,+2.00
+0.00,-1.00,+0.00,-2.00,-2.00,-2.00,+0.00,+0.00,-7.00,-1.00,+2.00,+12.00,+10.00,+13.00,+15.00,-6.00
-3.00,-7.00,-4.00,-2.00,-7.00,-4.00,-3.00,+1.00,-7.00,-3.00,-4.00,-3.00,-2.00,-4.00,-3.00,+1.00
-3.00,-11.00,-5.00,-2.00,+3.00,+1.00,+3.00,-4.00,+14.00,+3.00,+0.00,+8.00,+10.00,+8.00,-4.00,+3.00
+3.00,+6.00,+4.00,+0.00,+0.00,-3.00,+0.00,-6.00,+4.00,+3.00,-3.00,-3.00,-5.00,+0.00,+8.00,+9.00
+3.00,+2.00,-1.00,-5.00,-5.00,-3.00,+1.00,-1.00,+1.00,+2.00,-1.00,-2.00,+0.00,+8.00,+3.00,+4.00
-5.00,-2.00,+0.00,+2.00,+2.00,+2.00,+0.00,+14.00,-8.00,-4.00,+0.00,-3.00,-10.00,-8.00,-1.00,+3.00
+2.00,-2.00,+2.00,+1.00,+2.00,-2.00,+4.00,+1.00,-2.00,+1.00,+0.00,+2.00,+1.00,-7.00,-4.00,-4.00
-4.00,-1.00,-1.00,-3.00,-3.00,-2.00,+0.00,-5.00,-5.00,-2.00,-5.00,-4.00,-8.00,+2.00,-3.00,-1.00
-8.00,-7.00,+0.00,+1.00,+1.00,-1.00,-4.00,-1.00,+9.00,+9.00,+6.00,+4.00,+3.00,+2.00,-5.00,+4.00
+6.00,+15.00,+0.00,+0.00,-6.00,-2.00,-4.00,-10.00,+2.00,-7.00,-2.00,-3.00,-2.00,-1.00,+0.00,+3.00
-1.00,-3.00,-9.00,-4.00,-2.00,-2.00,+0.00,+14.00,-5.00,+0.00,+3.00,+14.00,+7.00,-4.00,-6.00,-3.00
+4.00,+1.00,-2.00,+2.00,-3.00,+0.00,-1.00,-2.00,-4.00,-2.00,+2.00,+7.00,+7.00,-4.00,-4.00,+3.00
+8.00,+0.00,-1.00,+0.00,+0.00,+3.00,+0.00,+0.00,-8.00,-2.00,-1.00,+1.00,+1.00,+5.00,-7.00,-7.00
-16.00,-21.00,-6.00,-5.00,-4.00,-4.00,-2.00,-6.00,+12.00,+11.00,+6.00,+6.00,+21.00,-2.00,+0.00,+8.00
+1.00,+9.00,+3.00,+1.00,+3.00,-2.00,-3.00,-4.00,-11.00,-8.00,-4.00,-4.00,-5.00,-3.00,+3.00,-1.00
+4.00,+9.00,+4.00,+2.00,-4.00,-2.00,-1.00,-2.00,+14.00,+4.00,+1.00,-6.00,-6.00,+2.00,+3.00,+6.00
+0.00,+2.00,+4.00,+6.00,+14.00,+1.00,+1.00,-2.00,-2.00,+10.00,+6.00,+3.00,+0.00,+1.00,-1.00,-1.00
-19.00,-21.00,-6.00,-6.00,-10.00,-1.00,-7.00,-34.00,-5.00,-1.00,+6.00,+6.00,-2.00,-2.00,-3.00,-9.00
-3.00,+1.00,-4.00,-5.00,+3.00,-5.00,+0.00,+15.00,-10.00,-32.00,-20.00,+0.00,+3.00,-5.00,-4.00,-8.00
+4.00,+3.00,-1.00,+0.00,+0.00,+0.00,+2.00,+1.00,+0.00,-1.00,+1.00,+4.00,+1.00,+7.00,+10.00,+9.00
+6.00,-2.00,-5.00,-5.00,-4.00,-2.00,+0.00,-9.00,-1.00,-2.00,-10.00,-9.00,-3.00,-1.00,-3.00,+1.00
+1.00,-1.00,+5.00,+0.00,-2.00,-1.00,+0.00,+8.00,+0.00,+1.00,+4.00,+0.00,-5.00,+0.00,+2.00,+1.00
+5.00,-5.00,+0.00,-1.00,-2.00,+0.00,+2.00,-6.00,+19.00,+9.00,+3.00,-4.00,-1.00,+1.00,-2.00,+3.00
-3.00,-2.00,+0.00,-3.00,-3.00,-1.00,-1.00,-3.00,-11.00,-4.00,-2.00,-10.00,-12.00,-6.00,+1.00,-7.00
-3.00,+0.00,-1.00,+2.00,+4.00,+1.00,+2.00,+6.00,-7.00,-3.00,-1.00,-4.00,-4.00,-2.00,-1.00,-4.00
+7.00,-1.00,-4.00,-1.00,+3.00,+1.00,-2.00,-8.00,+0.00,+8.00,+2.00,-3.00,-7.00,+1.00,+3.00,+3.00
