+4.00,+0.00,+0.00,-3.00,+0.00,-2.00,-2.00,-2.00,+2.00,+0.00,+1.00,+0.00,-2.00,-1.00,-2.00,-2.00
-1.00,-2.00,-1.00,-3.00,-6.00,-2.00,+0.00,+2.00,+2.00,+3.00,+4.00,-1.00,+0.00,-2.00,-3.00,-2.00
+2.00,-1.00,-1.00,+0.00,+3.00,+2.00,+2.00,+9.00,-4.00,+0.00,-1.00,+0.00,+0.00,+0.00,-2.00,-3.00
+1.00,+1.00,+1.00,+2.00,+2.00,+1.00,-1.00,-1.00,+1.00,-2.00,-2.00,-3.00,-1.00,+0.00,+1.00,-1.00
-2.00,-2.00,-2.00,-2.00,-3.00,+0.00,-2.00,-1.00,+0.00,+1.00,+0.00,+1.00,+0.00,-2.00,-3.00,-3.00
-3.00,-1.00,+0.00,-2.00,-2.00,-3.00,-2.00,+3.00,+0.00,-2.00,-3.00,-3.00,+0.00,-2.00,-1.00,+1.00
-5.00,+4.00,+0.00,-3.00,+3.00,-1.00,+4.00,+17.00,+1.00,-1.00,+1.00,-1.00,-3.00,+0.00,-1.00,-1.00
-5.00,-4.00,-2.00,-4.00,-2.00,-2.00,-1.00,+2.00,-3.00,+0.00,+0.00,+1.00,-1.00,-2.00,-2.00,-2.00
+0.00,+4.00,+0.00,+1.00,-5.00,-2.00,-1.00,-7.00,+1.00,+1.00,+0.00,-2.00,-2.00,+0.00,-2.00,-1.00
-4.00,-3.00,-3.00,-3.00,-3.00,+0.00,+0.00,+3.00,-2.00,+0.00,-2.00,-2.00,-2.00,-1.00,-1.00,-4.00
-2.00,-4.00,-1.00,+2.00,+12.00,-1.00,-6.00,-21.00,+0.00,-3.00,-1.00,-2.00,+0.00,-1.00,+0.00,+1.00
-2.00,+2.00,+0.00,-2.00,-2.00,-1.00,+0.00,-4.00,-3.00,-1.00,-1.00,-1.00,-2.00,-1.00,-2.00,-2.00
-1.00,-3.00,+1.00,+2.00,+1.00,+0.00,+3.00,+10.00,-4.00,-3.00,-1.00,-2.00,-2.00,-2.00,-2.00,-2.00
+1.00,+1.00,-4.00,-2.00,-3.00,-1.00,-2.00,+5.00,+5.00,+2.00,+0.00,-4.00,-2.00,-2.00,-2.00,+0.00
+8.00,-1.00,+0.00,-3.00,-12.00,-3.00,-2.00,+6.00,-1.00,+0.00,-1.00,-3.00,+0.00,+0.00,+0.00,+2.00
+2.00,+3.00,-3.00,+1.00,-1.00,-2.00,-2.00,-3.00,+4.00,+2.00,-2.00,+0.00,+0.00,+0.00,+0.00,+1.00
-2.00,-5.00,-1.00,+1.00,+2.00,+1.00,-1.00,-5.00,-1.00,-1.00,+0.00,+8.00,+5.00,+0.00,+1.00,+0.00
+0.00,+1.00,+1.00,-2.00,-3.00,-3.00,+0.00,+7.00,-4.00,-7.00,-3.00,-5.00,-7.00,-1.00,-1.00,-2.00
-1.00,-1.00,-1.00,-4.00,-11.00,-3.00,-3.00,-15.00,-1.00,+0.00,-1.00,-1.00,-2.00,-3.00,-3.00,-3.00
+1.00,+1.00,+1.00,+3.00,+13.00,+5.00,+0.00,+0.00,-6.00,-3.00,-1.00,+1.00,+0.00,-1.00,-1.00,+0.00
+0.00,+0.00,+1.00,+0.00,-1.00,-1.00,-1.00,+0.00,+8.00,+4.00,+1.00,+0.00,+2.00,-2.00,-3.00,-1.00
-5.00,-5.00,-3.00,-1.00,+2.00,+0.00,+0.00,-3.00,-5.00,-5.00,-1.00,+0.00,-3.00,-1.00,-2.00,-5.00
+1.00,+1.00,+0.00,-1.00,-3.00,-2.00,-2.00,-16.00,-1.00,-1.00,+0.00,-3.00,-2.00,+0.00,+0.00,+2.00
-10.00,-5.00,-2.00,-5.00,-20.00,-11.00,+0.00,+23.00,+0.00,-3.00,+1.00,+5.00,+3.00,-2.00,-2.00,-2.00
-9.00,-10.00,+1.00,+4.00,+12.00,+5.00,+2.00,+18.00,+1.00,+4.00,+0.00,-7.00,-9.00,+1.00,-1.00,+1.00
+2.00,+9.00,+2.00,+2.00,+1.00,+3.00,+1.00,+2.00,-2.00,+0.00,-3.00,-3.00,-1.00,-2.00,-1.00,-2.00
-2.00,-2.00,-2.00,-1.00,+2.00,+0.00,+0.00,-5.00,-2.00,-2.00,+0.00,+1.00,-2.00,-1.00,-4.00,-4.00
+1.00,+0.00,+0.00,+0.00,-2.00,-1.00,-3.00,-7.00,-1.00,+0.00,-2.00,+0.00,-1.00,-1.00,-2.00,-2.00
+6.00,-3.00,-5.00,-2.00,+1.00,+1.00,+3.00,+27.00,-5.00,-3.00,-5.00,-5.00,-2.00,-3.00,-2.00,-4.00
-2.00,-5.00,-1.00,-3.00,-6.00,-3.00,-3.00,-2.00,+0.00,-1.00,+1.00,+3.00,+3.00,+2.00,+6.00,+9.00
-12.00,-8.00,-2.00,+1.00,+2.00,+1.00,+0.00,-1.00,-2.00,-2.00,-3.00,+0.00,-1.00,+0.00,+0.00,-2.00
+5.00,+1.00,-4.00,+0.00,+4.00,+0.00,-2.00,-6.00,+0.00,-2.00,-1.00,+4.00,+7.00,-1.00,-2.00,-2.00
+3.00,+7.00,+2.00,+0.00,-7.00,-4.00,-2.00,-1.00,-2.00,-1.00,-3.00,-8.00,-6.00,-1.00,-1.00,-2.00
-2.00,+1.00,-2.00,-1.00,+9.00,+1.00,+0.00,-4.00,-4.00,-1.00,-1.00,-1.00,+0.00,+0.00,-3.00,-3.00
-3.00,-7.00,+0.00,+3.00,+7.00,+2.00,-1.00,-9.00,-3.00,-2.00,-2.00,-8.00,-3.00,-2.00,+0.00,-3.00
+8.00,+13.00,+3.00,-1.00,+7.00,+6.00,+2.00,-2.00,+3.00,+1.00,-1.00,-2.00,-3.00,-1.00,+2.00,+4.00
-2.00,-6.00,-4.00,-8.00,-21.00,-6.00,-4.00,-10.00,+2.00,+0.00,+0.00,-6.00,-2.00,-5.00,-3.00,-2.00
+6.00,+3.00,-1.00,+2.00,+2.00,-6.00,-1.00,+1.00,-5.00,-3.00,+0.00,+1.00,+2.00,-1.00,-3.00,-3.00
-6.00,-7.00,-1.00,-1.00,+8.00,+2.00,-3.00,-7.00,+3.00,+1.00,+0.00,+8.00,+5.00,+1.00,-5.00,-7.00
-5.00,-1.00,-2.00,+2.00,+1.00,-1.00,+4.00,-3.00,-1.00,+3.00,+2.00,-4.00,-5.00,+0.00,+1.00,+2.00
+0.00,+3.00,-2.00,-1.00,+5.00,+5.00,+2.00,-8.00,-6.00,-6.00,-2.00,+0.00,+0.00,+0.00,+1.00,+4.00
-1.00,+2.00,-2.00,-4.00,-12.00,-2.00,-2.00,-1.00,+1.00,+1.00,-1.00,+3.00,+0.00,-3.00,-3.00,-2.00
+2.00,-3.00,-2.00,-1.00,-5.00,-4.00,+3.00,+3.00,-6.00,-2.00,+1.00,+4.00,+2.00,-2.00,-2.00,-3.00
-8.00,-8.00,-1.00,-3.00,-12.00,-5.00,-6.00,-5.00,+6.00,+3.00,+1.00,+3.00,-1.00,-1.00,+1.00,+6.00
-1.00,+0.00,-2.00,-3.00,-7.00,-4.00,-3.00,-13.00,-5.00,-1.00,+0.00,+1.00,-3.00,+1.00,+1.00,-4.00
-4.00,-7.00,+0.00,-4.00,-1.00,-6.00,-3.00,-8.00,+5.00,+0.00,-2.00,-1.00,+1.00,-5.00,-4.00,+2.00
-12.00,-4.00,-3.00,+2.00,+18.00,+7.00,+0.00,+3.00,-11.00,-5.00,-4.00,-3.00,-2.00,+1.00,+2.00,+1.00
+0.00,+10.00,+3.00,+3.00,+0.00,+1.00,+0.00,-5.00,-4.00,-2.00,+0.00,+3.00,+8.00,+1.00,-3.00,-7.00
-5.00,-8.00,+1.00,+0.00,+4.00,+0.00,+0.00,-7.00,+11.00,+0.00,-4.00,-3.00,-14.00,-3.00,-2.00,+1.00
+9.00,+3.00,-2.00,-2.00,-3.00,+0.00,+0.00,+6.00,-16.00,-3.00,-2.00,-9.00,-2.00,+0.00,-3.00,-10.00
+6.00,+3.00,+0.00,-10.00,-36.00,-13.00,+0.00,-3.00,+2.00,-1.00,+1.00,+0.00,-4.00,-3.00,+1.00,+4.00
+5.00,-8.00,-3.00,+4.00,+31.00,+7.00,+2.00,-2.00,+7.00,+6.00,+2.00,+5.00,+3.00,+4.00,+3.00,+3.00
-24.00,-4.00,-1.00,-2.00,+3.00,-2.00,+0.00,+5.00,-12.00,-8.00,-7.00,-14.00,-1.00,-2.00,-4.00,-10.00
+5.00,+4.00,+1.00,+2.00,+9.00,+5.00,+5.00,+25.00,+13.00,+4.00,-1.00,+6.00,+1.00,+0.00,+2.00,+4.00
+0.00,+2.00,-1.00,-7.00,-27.00,-5.00,+0.00,-2.00,+3.00,+1.00,-1.00,-12.00,-8.00,-3.00,-1.00,+6.00
-5.00,-7.00,-4.00,+1.00,+10.00,-4.00,-2.00,+6.00,-10.00,-8.00,-3.00,-9.00,-9.00,+1.00,-7.00,-10.00
+8.00,+12.00,+0.00,+0.00,+10.00,+6.00,+0.00,-6.00,-11.00,-2.00,+1.00,+9.00,+9.00,-1.00,-2.00,-5.00
-21.00,-11.00,-6.00,-8.00,-30.00,-8.00,+0.00,-9.00,-2.00,+0.00,+2.00,-6.00,-9.00,-9.00,-8.00,-2.00
+8.00,+3.00,+3.00,+13.00,+39.00,+5.00,-5.00,-5.00,+12.00,+5.00,+4.00,+12.00,+9.00,+13.00,+20.00,+9.00
+3.00,-8.00,-2.00,-5.00,-13.00,-3.00,-4.00,-7.00,-1.00,+4.00,+2.00,+6.00,+3.00,+1.00,+1.00,+5.00
+4.00,+11.00,+2.00,+0.00,-2.00,-3.00,-4.00,-5.00,+3.00,+4.00,+5.00,+19.00,+8.00,+2.00,-5.00,-1.00
+4.00,-3.00,+1.00,+1.00,+6.00,+3.00,+3.00,+4.00,-5.00,-9.00,-12.00,-38.00,-24.00,-1.00,-2.00,-5.00
+12.00,+11.00,-2.00,-3.00,-11.00,-4.00,-7.00,+2.00,+5.00,-2.00,-1.00,+1.00,-2.00,-7.00,-7.00,+2.00
-13.00,-10.00,-2.00,-3.00,-13.00,-1.00,+8.00,-7.00,-3.00,-3.00,-3.00,-19.00,-12.00,-2.00,-4.00,-3.00
-19.00,-12.00,-6.00,-3.00,-4.00,-14.00,-9.00,-29.00,-3.00,-3.00,+1.00,+9.00,+11.00,+2.00,+5.00,+4.00
+17.00,+11.00,+7.00,+12.00,+32.00,+35.00,+16.00,-4.00,-23.00,-3.00,+3.00,+25.00,+15.00,-10.00,-2.00,-8.00
-22.00,-11.00,-3.00,-4.00,-2.00,+2.00,-5.00,-25.00,+14.00,-5.00,-9.00,-16.00,-11.00,+4.00,-10.00,-9.00
+11.00,+18.00,+5.00,-5.00,-27.00,-7.00,-10.00,+5.00,+16.00,+3.00,+3.00,+15.00,+5.00,+2.00,+3.00,+11.00
-10.00,-11.00,-4.00,+5.00,+20.00,+16.00,+7.00,-6.00,-11.00,-3.00,-7.00,-36.00,-16.00,-3.00,-3.00,-4.00
-19.00,-9.00,-2.00,+1.00,+1.00,-12.00,-6.00,-10.00,-2.00,+4.00,+7.00,+19.00,+11.00,+3.00,-1.00,-9.00
-2.00,-7.00,-2.00,-6.00,-4.00,-5.00,+2.00,+22.00,-3.00,-3.00,-7.00,-11.00,+2.00,-5.00,-1.00,+6.00
-2.00,+4.00,+0.00,-2.00,-4.00,-1.00,+5.00,-8.00,-14.00,-5.00,-5.00,-12.00,-14.00,-10.00,-6.00,-9.00
+11.00,+3.00,+0.00,-1.00,+2.00,-7.00,-7.00,+11.00,+13.00,+4.00,+7.00,+30.00,+21.00,+6.00,+6.00,+9.00
-25.00,-19.00,-3.00,+0.00,+5.00,-10.00,-21.00,-7.00,+8.00,-1.00,-9.00,-27.00,-19.00,+2.00,+2.00,-1.00
+22.00,+6.00,+0.00,+0.00,-6.00,+8.00,+9.00,+4.00,-31.00,-13.00,-4.00,+0.00,-1.00,-7.00,-7.00,-10.00
-5.00,-1.00,-1.00,-3.00,+7.00,-4.00,-8.00,+2.00,-16.00,-8.00,-2.00,-5.00,-3.00,+6.00,+3.00,-13.00
+10.00,+3.00,+3.00,+3.00,-10.00,-4.00,-2.00,+8.00,+10.00,+0.00,+1.00,+11.00,+8.00,-1.00,+5.00,+10.00
+1.00,+1.00,+0.00,-1.00,+6.00,+4.00,+10.00,+0.00,+13.00,+3.00,+1.00,-2.00,+0.00,+0.00,-6.00,+5.00
-8.00,-14.00,-7.00,-6.00,-15.00,-7.00,-7.00,-6.00,+9.00,+2.00,+3.00,+7.00,+2.00,+6.00,+9.00,+23.00
-8.00,-1.00,+1.00,+5.00,+16.00,+8.00,+3.00,-35.00,-5.00,-1.00,-1.00,+8.00,+15.00,+36.00,-3.00,+0.00
+7.00,+12.00,+5.00,+1.00,-7.00,+1.00,+2.00,-7.00,-3.00,+2.00,-6.00,-30.00,-31.00,-56.00,-21.00,-25.00
+8.00,+0.00,-3.00,-1.00,-16.00,-3.00,+4.00,+12.00,+14.00,+4.00,+2.00,+17.00,+4.00,-7.00,+2.00,+15.00
+19.00,+15.00,+7.00,+3.00,+6.00,+4.00,+1.00,-3.00,-32.00,+1.00,+10.00,+34.00,+19.00,+0.00,-8.00,-18.00
-12.00,-15.00,-1.00,+1.00,+8.00,+4.00,-2.00,+5.00,+35.00,+1.00,-7.00,-34.00,-16.00,+7.00,+6.00,+14.00
+16.00,+1.00,-3.00,-2.00,+9.00,-1.00,+3.00,+7.00,+5.00,+2.00,+2.00,+6.00,+10.00,+15.00,+3.00,+6.00
-2.00,+0.00,-1.00,+1.00,-3.00,-2.00,-3.00,-3.00,-6.00,-5.00,-4.00,-9.00,-9.00,+0.00,-3.00,+1.00
-5.00,-1.00,+0.00,-3.00,-19.00,-15.00,-10.00,-26.00,-1.00,-4.00,-4.00,-8.00,-2.00,+5.00,+5.00,+0.00
-4.00,-5.00,-3.00,+0.00,+0.00,-2.00,-4.00,+7.00,-18.00,-6.00,-2.00,-1.00,-6.00,-22.00,-21.00,-10.00
-8.00,-9.00,+0.00,-2.00,-7.00,-1.00,+2.00,-4.00,-1.00,+0.00,-4.00,+0.00,-1.00,+8.00,+1.00,+1.00
+8.00,+7.00,-2.00,-1.00,+10.00,-1.00,+1.00,+33.00,+10.00,-6.00,+1.00,+5.00,+3.00,-7.00,+2.00,+3.00
-1.00,-1.00,-2.00,+1.00,+2.00,-2.00,+0.00,-13.00,-8.00,-5.00,-4.00,-7.00,-5.00,+0.00,-6.00,-8.00
+1.00,-5.00,-2.00,-3.00,-13.00,-3.00,-2.00,-1.00,-6.00,+0.00,-1.00,-2.00,-5.00,-13.00,-8.00,-6.00
-2.00,+2.00,-2.00,-4.00,-1.00,+1.00,+0.00,+10.00,+0.00,+3.00,+0.00,-3.00,-4.00,+11.00,+5.00,+6.00
-1.00,+1.00,+1.00,-1.00,-3.00,-4.00,+0.00,-7.00,-5.00,-1.00,+0.00,+13.00,+12.00,-9.00,-12.00,+1.00
-9.00,-9.00,+0.00,+2.00,+8.00,+2.00,+4.00,+7.00,+7.00,+0.00,-7.00,-28.00,-23.00,+4.00,+4.00,-5.00
+4.00,+4.00,-4.00,-5.00,-14.00,-2.00,+2.00,+5.00,+6.00,-5.00,-2.00,-2.00,-2.00,-10.00,-5.00,-3.00
-1.00,+4.00,+1.00,+3.00,+10.00,+0.00,+1.00,+1.00,+10.00,+3.00,-2.00,+3.00,+8.00,+4.00,+4.00,+1.00
-7.00,-19.00,-7.00,-6.00,-4.00,-3.00,+1.00,-13.00,-47.00,-12.00,-1.00,-3.00,-11.00,+7.00,+2.00,-15.00
+7.00,+29.00,+5.00,+2.00,+8.00,+4.00,-3.00,-8.00,+36.00,+14.00,+4.00,+5.00,+10.00,-6.00,-2.00,+15.00
-14.00,-8.00,-2.00,-1.00,+2.00,-1.00,+2.00,-8.00,-23.00,-4.00,-4.00,-13.00,-16.00,-6.00,+2.00,-17.00
-3.00,-1.00,+0.00,-3.00,-6.00,-4.00,-8.00,-8.00,+7.00,-6.00,-4.00,-4.00,-12.00,+0.00,+4.00,+7.00
+28.00,+16.00,+1.00,-9.00,-23.00,-5.00,+0.00,+1.00,+13.00,+2.00,-2.00,+2.00,+23.00,+4.00,-9.00,-2.00
-12.00,-13.00,-4.00,+6.00,+14.00,+5.00,-1.00,-15.00,-11.00,-10.00,-8.00,-28.00,-27.00,-11.00,-6.00,-9.00
+7.00,+0.00,-1.00,+1.00,+5.00,-1.00,-5.00,-8.00,-1.00,+2.00,+4.00,+7.00,+3.00,+1.00,+10.00,+12.00
-10.00,-14.00,-4.00,-1.00,-3.00,-2.00,-7.00,-9.00,-12.00,-6.00,-4.00,-4.00,+1.00,-2.00,-7.00,-13.00
-16.00,-3.00,-5.00,-5.00,-3.00,-3.00,+10.00,+3.00,+20.00,+8.00,+1.00,-2.00,-4.00,+0.00,+4.00,+13.00
+2.00,-3.00,-1.00,-3.00,+5.00,+1.00,+3.00,+9.00,-14.00,-3.00,+4.00,+16.00,+6.00,-16.00,-8.00,-6.00
+16.00,+9.00,+0.00,-3.00,-6.00,+0.00,-4.00,-8.00,+21.00,+4.00,+1.00,+12.00,+11.00,+3.00,+9.00,+1.00
+0.00,-1.00,+1.00,+0.00,+10.00,-1.00,+1.00,+0.00,-2.00,+0.00,+2.00,-9.00,-12.00,-3.00,-1.00,+3.00
+6.00,+2.00,+1.00,-1.00,+4.00,+3.00,+0.00,+35.00,-19.00,-1.00,-2.00,-1.00,-1.00,+8.00,+7.00,-13.00
-1.00,-3.00,-1.00,+0.00,-7.00,-4.00,-2.00,+10.00,+19.00,+0.00,-1.00,+11.00,+14.00,+8.00,+0.00,+9.00
-11.00,-12.00,-3.00,+4.00,+26.00,+8.00,+0.00,-6.00,+8.00,-1.00,-5.00,-10.00,-10.00,-17.00,-3.00,-13.00
-5.00,+0.00,-4.00,-6.00,-12.00,-4.00,-2.00,-9.00,-14.00,-4.00,-2.00,+4.00,+4.00,+0.00,-3.00,+2.00
+8.00,+14.00,+4.00,+3.00,-3.00,-2.00,-1.00,+5.00,-6.00,-8.00,-4.00,-6.00,-7.00,+0.00,-1.00,-13.00
+10.00,+12.00,+1.00,+1.00,+7.00,+2.00,+6.00,+20.00,-14.00,-4.00,-2.00,+1.00,+4.00,-5.00,-9.00,-8.00
+4.00,+1.00,-1.00,-3.00,-8.00,-6.00,-4.00,+4.00,+9.00,+0.00,+4.00,+5.00,-1.00,-4.00,-6.00,+1.00
-2.00,-9.00,-6.00,-3.00,-6.00,-4.00,+1.00,+11.00,-3.00,+2.00,+5.00,+24.00,+16.00,+4.00,+2.00,-4.00
-2.00,-6.00,-1.00,+2.00,+6.00,-1.00,-6.00,-20.00,+4.00,+0.00,-2.00,-17.00,-16.00,+5.00,+8.00,+3.00
-12.00,-14.00,-3.00,-1.00,-1.00,+1.00,+6.00,+2.00,-5.00,+1.00,-1.00,-7.00,-7.00,-6.00,-7.00,-20.00
+9.00,+14.00,+4.00,-3.00,-7.00,-3.00,-6.00,-6.00,+19.00,+6.00,+0.00,-3.00,+4.00,+1.00,-3.00,+48.00
-1.00,-2.00,+1.00,+4.00,-5.00,-1.00,-3.00,+0.00,-7.00,-8.00,-4.00,-5.00,-8.00,-1.00,+0.00,+4.00
-22.00,-4.00,-1.00,-1.00,+3.00,+0.00,-3.00,-5.00,+9.00,+10.00,+3.00,+3.00,+2.00,+2.00,-2.00,+1.00
+6.00,-5.00,-5.00,-4.00,-5.00,-4.00,-1.00,+0.00,-3.00,-3.00,+0.00,+7.00,+3.00,+0.00,+0.00,-5.00
+5.00,+5.00,+1.00,-2.00,-5.00,-6.00,-1.00,-3.00,-10.00,+1.00,-1.00,+5.00,+5.00,-1.00,+3.00,-14.00
+5.00,+3.00,+1.00,-1.00,-1.00,+0.00,+6.00,+6.00,+1.00,-3.00,+2.00,+12.00,+4.00,+1.00,+8.00,+12.00
-20.00,-13.00,-5.00,-2.00,-4.00,-4.00,-6.00,-16.00,+1.00,-5.00,-6.00,-1.00,+22.00,+4.00,+4.00,+11.00
-9.00,-7.00,-1.00,-3.00,-5.00,-2.00,+1.00,+22.00,-5.00,+1.00,-7.00,-28.00,-30.00,-8.00,+1.00,+20.00
-8.00,-2.00,-1.00,+0.00,+2.00,+0.00,-9.00,-34.00,+4.00,-9.00,-5.00,-3.00,-2.00,-2.00,-6.00,-53.00
+12.00,+5.00,+0.00,+0.00,-4.00,+2.00,+3.00,+13.00,-21.00,+0.00,+3.00,+4.00,+1.00,-2.00,-6.00,-1.00
+6.00,-8.00,-2.00,-2.00,-5.00,-2.00,+0.00,+0.00,+2.00,-5.00,-2.00,-4.00,-5.00,-5.00,+0.00,+0.00
-2.00,+4.00,-2.00,-1.00,+5.00,-2.00,-5.00,-13.00,+7.00,+9.00,+5.00,+6.00,+7.00,+3.00,+4.00,+3.00
-10.00,-5.00,+0.00,+3.00,-3.00,-1.00,+9.00,+23.00,-10.00,-2.00,+0.00,+3.00,+2.00,+1.00,+0.00,+12.00
-5.00,-5.00,-4.00,-6.00,-3.00,+2.00,-1.00,-3.00,+2.00,+1.00,-3.00,-1.00,+9.00,-3.00,-6.00,-15.00
+2.00,+2.00,+2.00,+3.00,+1.00,+0.00,-1.00,-13.00,+4.00,+2.00,+0.00,-8.00,-16.00,-4.00,-4.00,+3.00
-8.00,-4.00,+3.00,+1.00,+2.00,+2.00,-5.00,-4.00,-1.00,-5.00,-4.00,+4.00,+4.00,-5.00,+1.00,+0.00
+1.00,+1.00,+0.00,-2.00,+2.00,+3.00,+3.00,+9.00,-9.00,+2.00,+0.00,+2.00,+0.00,+1.00,+3.00,+6.00
+0.00,+0.00,-1.00,-2.00,-7.00,-6.00,-9.00,-9.00,-7.00,-6.00,-3.00,-8.00,-4.00,-1.00,-2.00,-11.00
-7.00,-12.00,-3.00,+2.00,+6.00,+3.00,+8.00,+1.00,+3.00,+4.00,+0.00,-1.00,+0.00,+2.00,+6.00,+19.00
+9.00,+10.00,-1.00,-3.00,-14.00,-4.00,-2.00,-6.00,-7.00,-8.00,-2.00,+1.00,-2.00,-5.00,-6.00,-11.00
+4.00,+0.00,+1.00,+4.00,+19.00,+5.00,+6.00,+18.00,-9.00,-3.00,+1.00,+7.00,+3.00,-12.00,-9.00,-1.00
-7.00,+6.00,+1.00,+1.00,-2.00,+0.00,-4.00,-11.00,+9.00,+0.00,-5.00,-16.00,-12.00,+8.00,+22.00,+2.00
-2.00,-5.00,-5.00,-5.00,-1.00,-1.00,-7.00,-4.00,-5.00,-2.00,+1.00,+6.00,+5.00,+14.00,-3.00,+2.00
-4.00,-7.00,+0.00,+1.00,-1.00,-2.00,+1.00,+4.00,+13.00,+5.00,+4.00,+1.00,-3.00,-10.00,-1.00,-2.00
-15.00,-4.00,-3.00,-4.00,-8.00,-3.00,-2.00,-4.00,-13.00,-1.00,+0.00,-1.00,-1.00,-2.00,-4.00,-15.00
+17.00,+4.00,+1.00,-3.00,-1.00,+0.00,+1.00,-2.00,-1.00,+0.00,+0.00,-1.00,+1.00,-3.00,-6.00,+1.00
-14.00,-6.00,-2.00,-4.00,-8.00,-5.00,-4.00,-16.00,+2.00,-3.00,-3.00,+3.00,-7.00,-7.00,-1.00,+4.00
+10.00,+5.00,+1.00,+3.00,+7.00,+3.00,-6.00,+0.00,-4.00,+4.00,+2.00,+1.00,+9.00,+6.00,+5.00,-17.00
+7.00,+2.00,+1.00,+0.00,+1.00,-1.00,+2.00,+21.00,-6.00,-5.00,-4.00,-3.00,-2.00,+2.00,+0.00,-3.00
-15.00,-8.00,-2.00,+1.00,+7.00,+4.00,+7.00,+36.00,+14.00,+2.00,+1.00,+3.00,+6.00,-3.00,-5.00,+9.00
-3.00,+1.00,-1.00,-5.00,-19.00,-8.00,-3.00,+7.00,-2.00,-1.00,-2.00,-13.00,-17.00,-3.00,-4.00,-11.00
-4.00,-8.00,-1.00,-2.00,+5.00,+2.00,+0.00,-2.00,-8.00,-3.00,-1.00,-1.00,+0.00,-1.00,-1.00,+8.00
+9.00,+0.00,-4.00,-2.00,-3.00,-1.00,-3.00,+0.00,+5.00,-1.00,-3.00,+0.00,-1.00,+5.00,+6.00,+0.00
-6.00,-7.00,-1.00,-2.00,-1.00,+0.00,+5.00,+21.00,+0.00,-1.00,-6.00,-17.00,-12.00,-3.00,-6.00,-4.00
-4.00,-4.00,-1.00,+3.00,+4.00,+0.00,-2.00,-6.00,-7.00,-5.00,+5.00,+19.00,+9.00,-2.00,+0.00,+0.00
+4.00,+14.00,+1.00,-2.00,-2.00,-3.00,+2.00,+6.00,+6.00,+4.00,-4.00,-13.00,-7.00,-6.00,-6.00,-3.00
-9.00,-3.00,+1.00,+1.00,+0.00,-2.00,+1.00,+0.00,+4.00,+1.00,-1.00,-7.00,-3.00,+3.00,+8.00,+27.00
+5.00,-7.00,-4.00,-1.00,-1.00,-2.00,-3.00,-11.00,-16.00,-5.00,-2.00,+1.00,+1.00,-2.00,-5.00,-16.00
+12.00,+9.00,+3.00,+1.00,+6.00,+0.00,-3.00,+0.00,+26.00,+6.00,+1.00,+0.00,+1.00,-11.00,-6.00,+3.00
-1.00,-3.00,+0.00,-1.00,-6.00,-1.00,-5.00,-16.00,-7.00,-7.00,-4.00,+1.00,+0.00,+2.00,+1.00,+2.00
+4.00,-3.00,-3.00,-6.00,-5.00,+1.00,-1.00,-7.00,+1.00,+3.00,+1.00,+11.00,+9.00,-2.00,-4.00,-9.00
-17.00,-10.00,-6.00,-4.00,-7.00,-5.00,-5.00,-10.00,+0.00,+0.00,-6.00,-23.00,-23.00,-10.00,-14.00,+5.00
+10.00,+8.00,+0.00,+2.00,+3.00,-1.00,-4.00,-3.00,-13.00,-7.00,-2.00,+0.00,-4.00,+3.00,+10.00,-13.00
+4.00,+8.00,+4.00,+1.00,-6.00,-2.00,+2.00,+5.00,+2.00,+0.00,+1.00,+0.00,+2.00,+6.00,+9.00,+13.00
-8.00,-12.00,-4.00,-7.00,-1.00,+0.00,-1.00,-9.00,-4.00,-7.00,-4.00,-9.00,-4.00,-6.00,-3.00,-2.00
+6.00,+13.00,+4.00,+4.00,+1.00,+1.00,+1.00,+2.00,+6.00,+5.00,+7.00,+23.00,+24.00,+3.00,+2.00,+5.00
+3.00,+0.00,+1.00,+5.00,+15.00,+3.00,-1.00,-2.00,-6.00,-1.00,-3.00,-20.00,-19.00,-6.00,-4.00,+0.00
-11.00,-14.00,-4.00,-3.00,-4.00,-2.00,-4.00,-7.00,+18.00,-1.00,-2.00,-1.00,-3.00,+1.00,-5.00,-10.00
-2.00,+0.00,+1.00,+1.00,-7.00,-6.00,-3.00,-25.00,-9.00,-1.00,+3.00,+3.00,+4.00,+5.00,+13.00,+35.00
+0.00,+9.00,+0.00,-1.00,+3.00,+3.00,-1.00,-10.00,-2.00,+2.00,+0.00,-1.00,+0.00,+0.00,-1.00,-9.00
+4.00,+2.00,-2.00,-3.00,-5.00,-2.00,-2.00,-2.00,+7.00,-3.00,+1.00,+13.00,+7.00,+2.00,+0.00,-2.00
+11.00,-2.00,-3.00,-1.00,+7.00,-3.00,-3.00,-22.00,+1.00,+1.00,-1.00,+1.00,+2.00,+2.00,-2.00,+3.00
-10.00,-33.00,-10.00,-5.00,-10.00,-6.00,-2.00,+11.00,-10.00,-1.00,-3.00,-5.00,-6.00,-6.00,-7.00,-18.00
+18.00,+37.00,+14.00,+7.00,+10.00,+3.00,+0.00,-6.00,+2.00,-4.00,+0.00,-2.00,-2.00,+0.00,-3.00,-22.00
+1.00,+19.00,+4.00,+1.00,-5.00,+0.00,+1.00,-1.00,-9.00,+0.00,-1.00,+2.00,+6.00,-2.00,-4.00,-4.00
-4.00,-5.00,-4.00,-2.00,-2.00,+0.00,+0.00,+2.00,-3.00,-3.00,-3.00,+2.00,-1.00,-1.00,-4.00,+4.00
+3.00,+2.00,+0.00,+3.00,+10.00,+6.00,+1.00,-15.00,-3.00,-2.00,-5.00,-3.00,-1.00,+0.00,-1.00,+0.00
-15.00,-41.00,-10.00,-4.00,-4.00,-7.00,-6.00,-10.00,-9.00,-6.00,-1.00,+0.00,-2.00,+1.00,+4.00,+11.00
+1.00,+2.00,-3.00,-4.00,-7.00,-2.00,+0.00,+1.00,+24.00,+9.00,+1.00,+5.00,+5.00,+2.00,+0.00,+0.00
+16.00,+38.00,+12.00,+6.00,+6.00,+0.00,+3.00,+10.00,-6.00,-3.00,+3.00,+12.00,+6.00,+0.00,-4.00,-7.00
+4.00,+8.00,+0.00,-1.00,-8.00,-3.00,-2.00,+2.00,+2.00,+1.00,+0.00,-1.00,+2.00,+1.00,-1.00,-2.00
-9.00,-7.00,-4.00,-5.00,-4.00,-2.00,-4.00,-6.00,+8.00,+1.00,-7.00,-14.00,-10.00,-2.00,-1.00,+4.00
-6.00,-6.00,+1.00,-3.00,-7.00,+2.00,+1.00,+0.00,-13.00,-6.00,-3.00,-7.00,+1.00,-5.00,-7.00,-5.00
-5.00,-21.00,-4.00,+4.00,+11.00,+0.00,+2.00,-3.00,-9.00,-2.00,+5.00,+14.00,+11.00,+4.00,+1.00,+1.00
-11.00,-5.00,-2.00,+0.00,-1.00,-1.00,+0.00,+8.00,+19.00,+5.00,+0.00,-6.00,-8.00,-4.00,-2.00,+4.00
-3.00,+3.00,-3.00,-5.00,-6.00,-4.00,-4.00,-22.00,-11.00,-1.00,+2.00,+3.00,+0.00,+0.00,+1.00,-3.00
+11.00,-2.00,+0.00,+1.00,+5.00,+3.00,-5.00,-6.00,+15.00,+6.00,-4.00,-6.00,-2.00,-2.00,-1.00,-6.00
-10.00,-7.00,-7.00,-6.00,-5.00,-1.00,+1.00,+7.00,-14.00,-5.00,-2.00,+6.00,+10.00,-7.00,-3.00,-2.00
-14.00,-28.00,-4.00,-2.00,-5.00,-4.00,-4.00,+2.00,-15.00,-14.00,+2.00,-5.00,-9.00,-2.00,-3.00,-13.00
+16.00,+27.00,-1.00,-1.00,-2.00,-1.00,+0.00,+8.00,+6.00,+6.00,+3.00,-2.00,+3.00,+4.00,+5.00,+14.00
-24.00,-24.00,-4.00,-2.00,-1.00,-2.00,-3.00,+0.00,-3.00,-3.00,-2.00,-3.00,-4.00,-14.00,-10.00,-7.00
+19.00,+38.00,+5.00,+1.00,+1.00,+3.00,+0.00,+0.00,+11.00,+5.00,-3.00,-4.00,-4.00,+6.00,+8.00,+5.00
-9.00,-8.00,+0.00,+1.00,+0.00,+0.00,+0.00,+5.00,+1.00,-1.00,-6.00,-8.00,-4.00,-2.00,-2.00,+2.00
-3.00,-11.00,-7.00,-5.00,-2.00,-3.00,+0.00,+13.00,-3.00,-4.00,-2.00,+3.00,-3.00,-4.00,-5.00,-6.00
-3.00,-2.00,-2.00,-2.00,-20.00,-9.00,-7.00,+7.00,-22.00,-7.00,+5.00,+11.00,+8.00,+4.00,+0.00,+4.00
-15.00,-24.00,-9.00,-3.00,+11.00,+5.00,+0.00,-10.00,-6.00,-6.00,-5.00,-11.00,-7.00,-4.00,-1.00,-2.00
-9.00,+7.00,+5.00,+8.00,+20.00,+5.00,+1.00,+0.00,+17.00,+9.00,+2.00,+7.00,+3.00,+0.00,-3.00,-16.00
-5.00,+2.00,+5.00,+6.00,+8.00,+2.00,+1.00,+0.00,-2.00,+0.00,-2.00,+4.00,+6.00,+0.00,-4.00,-8.00
+21.00,-11.00,-5.00,-1.00,+0.00,+3.00,+2.00,+8.00,+6.00,+5.00,+2.00,-21.00,-22.00,-2.00,+5.00,+6.00
+9.00,+9.00,+2.00,+1.00,-2.00,+1.00,+4.00,+42.00,-10.00,+4.00,+3.00,-3.00,-7.00,-3.00,-11.00,-8.00
+27.00,+35.00,+5.00,-4.00,-15.00,-4.00,+3.00,+20.00,+11.00,+3.00,+2.00,+8.00,+3.00,+5.00,+4.00,+17.00
-14.00,-16.00,-3.00,-1.00,+0.00,-1.00,+0.00,-13.00,-2.00,-3.00,-3.00,-6.00,-4.00,-1.00,-3.00,-10.00
-12.00,-10.00,+0.00,+1.00,+10.00,-2.00,+1.00,-11.00,+3.00,+0.00,-2.00,+3.00,+6.00,+0.00,+0.00,+1.00
-13.00,-14.00,-2.00,-7.00,-16.00,-4.00,-4.00,-6.00,+18.00,+2.00,-2.00,-7.00,-8.00,+1.00,+5.00,+32.00
+10.00,+19.00,+4.00,+2.00,+4.00,+2.00,+1.00,-2.00,-40.00,-13.00,-3.00,-1.00,-3.00,-8.00,-12.00,-47.00
+17.00,+9.00,+1.00,+0.00,-5.00,-4.00,-3.00,+3.00,-4.00,+2.00,+4.00,+8.00,+5.00,+5.00,+5.00,+1.00
-20.00,-16.00,-7.00,-3.00,+3.00,-3.00,+0.00,+6.00,-20.00,-11.00,-1.00,+0.00,-5.00,+12.00,+5.00,-2.00
-2.00,-3.00,+1.00,+1.00,-2.00,-2.00,-1.00,-2.00,+0.00,+0.00,-1.00,-3.00,-5.00,-1.00,-1.00,-13.00
-10.00,+3.00,+0.00,+0.00,-12.00,-7.00,-4.00,-3.00,+3.00,+2.00,-1.00,+0.00,+5.00,+0.00,+4.00,+26.00
-16.00,-24.00,-7.00,-2.00,+6.00,+2.00,-6.00,-11.00,+0.00,-5.00,+3.00,+29.00,+21.00,-2.00,-2.00,+5.00
+18.00,+8.00,-1.00,-2.00,-1.00,-1.00,+14.00,+5.00,-4.00,+3.00,-5.00,-5.00,-1.00,-1.00,+0.00,-20.00
-1.00,+9.00,+3.00,-2.00,-7.00,-1.00,-3.00,-14.00,+13.00,-4.00,-11.00,-40.00,-34.00,-4.00,-1.00,+8.00
+1.00,+1.00,+0.00,-1.00,+3.00,-2.00,+4.00,+33.00,-9.00,-6.00,-4.00,-9.00,-10.00,-4.00,-6.00,-25.00
-12.00,-7.00,-5.00,-4.00,-12.00,+4.00,+14.00,+30.00,+23.00,+10.00,+3.00,-2.00,+0.00,-2.00,+12.00,+23.00
+11.00,+4.00,+3.00,+6.00,+14.00,+6.00,-5.00,-9.00,-24.00,-11.00,-3.00,+5.00,+6.00,+2.00,+0.00,+14.00
-14.00,-15.00,-6.00,-2.00,+2.00,+0.00,+0.00,+9.00,-9.00,-7.00,+1.00,+13.00,+10.00,-3.00,-7.00,-4.00
-2.00,-4.00,-3.00,-3.00,-11.00,-7.00,+0.00,-9.00,-4.00,+0.00,-5.00,-2.00,+2.00,+7.00,+5.00,+2.00
+9.00,+6.00,-4.00,-4.00,+2.00,-3.00,-1.00,-2.00,-3.00,-6.00,-7.00,-17.00,-14.00,-2.00,-3.00,-2.00
-15.00,-2.00,+0.00,-1.00,+1.00,+0.00,-2.00,-9.00,+9.00,-4.00,+0.00,+5.00,+4.00,-1.00,-1.00,+7.00
+5.00,+2.00,+2.00,+4.00,-2.00,-1.00,-1.00,-17.00,-16.00,-2.00,+4.00,+4.00,+2.00,+2.00,-1.00,-33.00
+13.00,+2.00,-2.00,-1.00,+1.00,+2.00,+0.00,+10.00,-1.00,-1.00,+0.00,+0.00,+0.00,-7.00,-6.00,+11.00
+0.00,+10.00,+5.00,+3.00,+6.00,+4.00,+0.00,-5.00,+15.00,+2.00,-3.00,-4.00,-3.00,+6.00,+1.00,+0.00
-2.00,+10.00,+5.00,+2.00,+1.00,+1.00,-2.00,-8.00,-12.00,-7.00,-4.00,-5.00,-7.00,-1.00,+3.00,+4.00
+0.00,-12.00,-9.00,-7.00,-4.00,-9.00,-8.00,-6.00,+8.00,+4.00,+6.00,+13.00,+13.00,+1.00,-13.00,-18.00
-9.00,-8.00,-2.00,+1.00,-1.00,+5.00,+2.00,-11.00,+9.00,+7.00,-2.00,-4.00,-2.00,+1.00,+1.00,+2.00
+8.00,-1.00,-1.00,-5.00,-26.00,-12.00,+1.00,+13.00,-4.00,-3.00,+0.00,-2.00,-5.00,-6.00,-4.00,+8.00
-3.00,-8.00,-2.00,+2.00,+25.00,+11.00,+1.00,+0.00,-27.00,-11.00,-3.00,+6.00,+11.00,-6.00,-11.00,-26.00
+4.00,+12.00,-1.00,-7.00,-12.00,-3.00,-6.00,-28.00,+12.00,+7.00,-3.00,-12.00,-13.00,+0.00,+9.00,+30.00
+4.00,-19.00,-6.00,-1.00,+4.00,+2.00,-8.00,-16.00,-5.00,-5.00,+2.00,+17.00,+10.00,+3.00,+5.00,+6.00
+9.00,+9.00,+3.00,+0.00,-3.00,-4.00,+4.00,-27.00,+4.00,-8.00,-12.00,-21.00,-16.00,-3.00,-4.00,-3.00
-41.00,-24.00,-10.00,-3.00,-14.00,-7.00,-3.00,+1.00,-16.00,+2.00,-2.00,-7.00,-5.00,-4.00,-5.00,-12.00
+25.00,+18.00,+7.00,+2.00,-5.00,+4.00,+4.00,+27.00,+16.00,+2.00,+0.00,+10.00,+13.00,+2.00,+4.00,+14.00
-11.00,-13.00,-5.00,+1.00,+17.00,+6.00,+0.00,-4.00,-1.00,-5.00,-3.00,-8.00,-10.00,-3.00,-7.00,-28.00
+30.00,+37.00,+15.00,+7.00,+1.00,+4.00,+3.00,+6.00,-28.00,-4.00,-2.00,+1.00,+1.00,-6.00,-8.00,-8.00
+1.00,-2.00,-6.00,-6.00,-2.00,-5.00,-5.00,-9.00,+17.00,-1.00,+1.00,+3.00,+1.00,+2.00,+7.00,+23.00
-30.00,-16.00,-4.00,+0.00,+0.00,-3.00,-1.00,-10.00,+22.00,+23.00,+4.00,+4.00,+3.00,-1.00,-1.00,-1.00
+0.00,-1.00,-2.00,-5.00,-19.00,-7.00,+1.00,+1.00,-21.00,-17.00,-3.00,-6.00,-3.00,-1.00,-3.00,+1.00
-7.00,-34.00,-4.00,-1.00,+6.00,-2.00,-5.00,+2.00,-27.00,-4.00,-1.00,-3.00,-4.00,-3.00,-3.00,+0.00
+6.00,+26.00,-2.00,-5.00,-11.00,-5.00,-4.00,-7.00,+31.00,+7.00,+3.00,+1.00,+0.00,-2.00,-6.00,-26.00
+1.00,+2.00,+0.00,+0.00,+0.00,+2.00,+0.00,+2.00,-9.00,-3.00,+1.00,+10.00,+8.00,+0.00,+0.00,+8.00
-16.00,-17.00,-4.00,+0.00,-5.00,-5.00,-7.00,-10.00,+40.00,+13.00,+4.00,-3.00,+7.00,-2.00,+2.00,+15.00
+2.00,+12.00,+2.00,+2.00,+8.00,+2.00,-2.00,+1.00,+18.00,+13.00,-1.00,-17.00,-16.00,-9.00,-12.00,-8.00
+4.00,-7.00,-3.00,+0.00,+1.00,+2.00,+5.00,+42.00,-15.00,-8.00,-2.00,+1.00,-1.00,+14.00,+15.00,+2.00
-9.00,-15.00,-4.00,-9.00,-18.00,-9.00,+0.00,+43.00,-13.00,-9.00,+0.00,+10.00,+0.00,-6.00,-10.00,-20.00
+16.00,+8.00,+1.00,+2.00,+6.00,+2.00,+1.00,-9.00,-17.00,-5.00,-4.00,-2.00,-1.00,-4.00,-7.00,-8.00
-20.00,-17.00,-5.00,-2.00,+1.00,-2.00,-14.00,-18.00,+11.00,+3.00,-3.00,-15.00,-7.00,-5.00,-3.00,-6.00
+11.00,-13.00,+1.00,+2.00,+5.00,-2.00,-3.00,-19.00,+22.00,+3.00,-3.00,-7.00,-5.00,-8.00,-6.00,+17.00
-37.00,-12.00,-8.00,+2.00,+19.00,+11.00,+0.00,-13.00,-1.00,-4.00,-4.00,-9.00,-4.00,+1.00,+3.00,-2.00
+39.00,+41.00,+11.00,+0.00,-9.00,+1.00,+1.00,+2.00,-3.00,+1.00,+7.00,+12.00,+8.00,+6.00,+3.00,+13.00
+3.00,-4.00,-3.00,-1.00,-7.00,-3.00,+0.00,+14.00,-11.00,-4.00,+1.00,+5.00,+1.00,+2.00,+3.00,-8.00
+11.00,+17.00,+1.00,-4.00,-8.00,-7.00,-7.00,-10.00,+20.00,+5.00,-3.00,-3.00,-3.00,-3.00,-3.00,+29.00
-13.00,-22.00,+0.00,-2.00,-4.00,-6.00,-2.00,-14.00,-49.00,-21.00,+1.00,+8.00,+6.00,-1.00,-7.00,-61.00
-17.00,-12.00,-8.00,-2.00,-1.00,-4.00,-3.00,-1.00,-2.00,+8.00,-4.00,-5.00,-7.00,-2.00,+1.00,+20.00
-28.00,-44.00,-5.00,-3.00,+2.00,+2.00,-3.00,-14.00,+32.00,+5.00,+5.00,+8.00,+5.00,+4.00,+2.00,+6.00
+36.00,+61.00,+14.00,+5.00,+0.00,+3.00,+3.00,+5.00,-4.00,+4.00,+6.00,+11.00,+6.00,-3.00,-4.00,+0.00
+0.00,-14.00,-7.00,-2.00,+0.00,+0.00,-2.00,-4.00,+19.00,+6.00,-6.00,-8.00,-5.00,-2.00,+0.00,+23.00
-3.00,-3.00,-1.00,-2.00,+4.00,+1.00,+2.00,+7.00,-45.00,-14.00,-3.00,-2.00,+0.00,-1.00,-2.00,-17.00
+3.00,+1.00,-3.00,+0.00,+3.00,+3.00,+7.00,+37.00,-17.00,-10.00,-2.00,+1.00,-5.00,+0.00,-2.00,-6.00
-24.00,-33.00,-8.00,-5.00,-8.00,-2.00,-1.00,-8.00,-31.00,-14.00,+0.00,+32.00,+24.00,+3.00,-3.00,-22.00
+2.00,+2.00,-2.00,-3.00,+0.00,-6.00,-3.00,-2.00,-2.00,+8.00,-4.00,-41.00,-37.00,-11.00,+2.00,+15.00
-18.00,-4.00,-5.00,-1.00,+10.00,+6.00,+0.00,+12.00,+9.00,-9.00,-2.00,+0.00,+5.00,+12.00,+12.00,+1.00
+48.00,+30.00,+4.00,-1.00,-11.00,-4.00,+4.00,+5.00,+30.00,+9.00,+0.00,-2.00,-2.00,-1.00,+0.00,+13.00
-9.00,-18.00,-4.00,+2.00,+13.00,+1.00,-3.00,-6.00,-22.00,+4.00,-9.00,-24.00,-17.00,-8.00,-5.00,+0.00
+1.00,+7.00,+4.00,-2.00,-31.00,-8.00,+1.00,-2.00,-12.00,-10.00,+3.00,+15.00,+13.00,+6.00,+2.00,-11.00
-13.00,-7.00,-3.00,+10.00,+32.00,+11.00,+4.00,+23.00,-29.00,-12.00,-4.00,-4.00,-1.00,-5.00,-6.00,-17.00
-7.00,+8.00,+3.00,+1.00,+5.00,-3.00,-4.00,-17.00,+15.00,-2.00,+0.00,+7.00,+5.00,-1.00,-2.00,+3.00
-5.00,-19.00,-6.00,-4.00,-8.00,-1.00,+0.00,+0.00,+14.00,+16.00,+1.00,+4.00,+4.00,+2.00,+4.00,+11.00
+3.00,+5.00,+5.00,+2.00,-7.00,-6.00,-3.00,-5.00,+22.00,-7.00,-4.00,+1.00,+1.00,-1.00,-1.00,+13.00
+13.00,+8.00,-3.00,-4.00,-5.00,-3.00,-3.00,-11.00,+37.00,+16.00,+0.00,-5.00,-7.00,-4.00,-1.00,+23.00
-16.00,-2.00,+3.00,+1.00,-9.00,+0.00,+0.00,+1.00,-35.00,-23.00,-1.00,+7.00,+6.00,+4.00,+0.00,-13.00
-14.00,-7.00,-5.00,-4.00,-6.00,-3.00,-5.00,-5.00,-10.00,+2.00,-2.00,-6.00,-8.00,-4.00,-6.00,-9.00
+7.00,+7.00,+7.00,+8.00,+16.00,+5.00,-1.00,-8.00,-4.00,-10.00,-1.00,+0.00,+2.00,+1.00,+2.00,+7.00
+17.00,+1.00,-6.00,-10.00,-24.00,-12.00,-3.00,-3.00,+30.00,-4.00,-6.00,-6.00,-6.00,-4.00,+2.00,+4.00
-36.00,+3.00,+0.00,+5.00,+16.00,+6.00,-1.00,-11.00,+11.00,+8.00,+0.00,+1.00,-3.00,-2.00,-3.00,-2.00
+38.00,+40.00,+14.00,+0.00,-35.00,-15.00,+3.00,+12.00,+3.00,-14.00,+0.00,-6.00,-8.00,-2.00,-4.00,+2.00
+3.00,-4.00,-3.00,+9.00,+45.00,+22.00,-3.00,-53.00,-28.00,+0.00,-8.00,-6.00,-5.00,-3.00,-4.00,-24.00
+0.00,-7.00,-2.00,-3.00,-7.00,-5.00,-5.00,-9.00,-20.00,+1.00,+8.00,+28.00,+26.00,+4.00,-4.00,-16.00
-22.00,-43.00,-15.00,-8.00,-8.00,-6.00,-7.00,-9.00,+47.00,+9.00,-10.00,-23.00,-15.00,-7.00,+3.00,+24.00
+12.00,+32.00,+8.00,+4.00,+5.00,+0.00,+3.00,+3.00,-32.00,-9.00,+5.00,+20.00,+14.00,+4.00,+3.00,-19.00
-1.00,+0.00,-2.00,-4.00,-19.00,-10.00,+1.00,+13.00,-7.00,-17.00,-7.00,-16.00,-11.00,-4.00,-4.00,+1.00
-16.00,-35.00,-3.00,+0.00,+7.00,+3.00,+0.00,+4.00,-17.00,+9.00,+4.00,+0.00,-2.00,-3.00,-4.00,-15.00
+5.00,+29.00,+1.00,+1.00,+2.00,+0.00,-4.00,-15.00,+12.00,+4.00,-2.00,+4.00,+8.00,+2.00,+5.00,+14.00
-27.00,-29.00,-9.00,-6.00,+2.00,-1.00,-4.00,-9.00,+10.00,+0.00,-3.00,-7.00,-11.00,-2.00,-2.00,-3.00
+30.00,+23.00,+4.00,+1.00,+7.00,+5.00,+5.00,+21.00,-41.00,+4.00,+1.00,+4.00,+2.00,-2.00,-1.00,-11.00
-15.00,+7.00,+5.00,+2.00,-4.00,+0.00,+1.00,-6.00,+40.00,+18.00,+5.00,-4.00,-3.00,+5.00,-1.00,+8.00
+10.00,+6.00,+1.00,-2.00,-7.00,-8.00,-6.00,-4.00,-52.00,-25.00,-2.00,+1.00,+0.00,-1.00,-2.00,-15.00
+4.00,-31.00,-10.00,-4.00,+1.00,+2.00,-6.00,-32.00,+19.00,+15.00,+3.00,-5.00,-5.00,+1.00,+0.00,-3.00
+0.00,+21.00,+9.00,+3.00,+0.00,-1.00,+11.00,+40.00,-4.00,-20.00,-9.00,+2.00,+2.00,-4.00,-5.00,+10.00
-3.00,-11.00,-7.00,-7.00,+3.00,-2.00,-3.00,-9.00,-6.00,+12.00,+2.00,-4.00,-5.00,+2.00,+6.00,+12.00
+0.00,-7.00,-1.00,-2.00,-1.00,-2.00,-1.00,+2.00,-19.00,-14.00,+6.00,+29.00,+22.00,+5.00,-5.00,-10.00
+13.00,+32.00,+11.00,+8.00,+9.00,+5.00,-1.00,+3.00,-26.00,+2.00,-5.00,-29.00,-23.00,-9.00,-4.00,-8.00
-14.00,-20.00,-4.00,-1.00,-1.00,-2.00,-7.00,-14.00,+58.00,+23.00,+6.00,+4.00,+3.00,+5.00,+4.00,+24.00
+5.00,+10.00,+2.00,-2.00,-16.00,-8.00,-1.00,-3.00,-25.00,-9.00,-10.00,-9.00,-11.00,-10.00,-12.00,-6.00
+6.00,-17.00,-10.00,-6.00,+2.00,-2.00,-3.00,-3.00,-2.00,+3.00,+6.00,+6.00,+5.00,+1.00,+0.00,-1.00
-16.00,+5.00,+0.00,+1.00,+11.00,+3.00,+0.00,-9.00,-36.00,-7.00,+0.00,+6.00,+8.00,-2.00,-6.00,-21.00
+6.00,-4.00,-3.00,-1.00,-4.00,-4.00,+0.00,+8.00,+16.00,+6.00,+1.00,+0.00,-1.00,+0.00,+2.00,+5.00
-15.00,-5.00,+5.00,+3.00,+2.00,+0.00,+3.00,+6.00,-10.00,-9.00,-4.00,-10.00,-8.00,+0.00,+7.00,+20.00
+2.00,-15.00,-10.00,-9.00,-9.00,-5.00,-8.00,-25.00,-39.00,-1.00,-2.00,-7.00,-10.00,-2.00,-2.00,-7.00
+2.00,+3.00,+4.00,+2.00,-6.00,-3.00,+2.00,+21.00,+29.00,-4.00,-6.00,-3.00,-1.00,-2.00,+1.00,+4.00
+1.00,-2.00,+1.00,+1.00,+2.00,+0.00,-4.00,-8.00,+38.00,+27.00,+7.00,+6.00,+4.00,+2.00,+3.00,+7.00
+15.00,-9.00,-6.00,-6.00,-16.00,+0.00,+0.00,+1.00,+0.00,-2.00,+4.00,+8.00,+0.00,-2.00,-5.00,-6.00
-21.00,-23.00,-8.00,-5.00,+11.00,-2.00,+0.00,+6.00,-15.00,-6.00,-6.00,-10.00,-6.00,-7.00,-8.00,-21.00
+12.00,+24.00,+9.00,+7.00,+12.00,+11.00,+4.00,+4.00,-8.00,-7.00,+8.00,+9.00,+9.00,+7.00,+10.00,+16.00
+7.00,-5.00,-6.00,-3.00,+1.00,+0.00,-3.00,-1.00,-9.00,-7.00,-9.00,-6.00,-5.00,-6.00,-7.00,-14.00
-1.00,+12.00,+11.00,+7.00,+13.00,+6.00,+4.00,+5.00,+30.00,+6.00,+0.00,-1.00,+4.00,+0.00,+2.00,+4.00
-17.00,+7.00,+2.00,+1.00,-13.00,-2.00,+1.00,+3.00,-7.00,+3.00,+3.00,-1.00,-3.00,+2.00,+5.00,+11.00
-12.00,-25.00,-14.00,-10.00,-7.00,-9.00,-2.00,+27.00,+4.00,-3.00,-3.00,-3.00,-3.00,+0.00,-3.00,-3.00
-24.00,-1.00,-3.00,-4.00,+2.00,-3.00,-4.00,-5.00,-17.00,-7.00,-2.00,-3.00,+1.00,+3.00,+2.00,+5.00
-2.00,+12.00,-3.00,-5.00,-14.00,-6.00,-2.00,-2.00,+15.00,+4.00,+4.00,+15.00,+17.00,-3.00,-2.00,-2.00
+23.00,+40.00,+13.00,+4.00,-2.00,-2.00,-1.00,-10.00,+13.00,+2.00,-11.00,-31.00,-26.00,-6.00,+1.00,+0.00
+9.00,-11.00,-2.00,-3.00,-7.00,-3.00,-1.00,-5.00,+12.00,+7.00,+2.00,+3.00,+4.00,-1.00,-1.00,-1.00
-11.00,-32.00,-21.00,-11.00,+3.00,-3.00,-9.00,-15.00,+2.00,+10.00,+9.00,+3.00,+0.00,+6.00,+12.00,+40.00
+5.00,+14.00,+11.00,+8.00,+10.00,+6.00,+7.00,+11.00,-12.00,-1.00,-3.00,+1.00,+0.00,-2.00,-4.00,-14.00
-4.00,-11.00,-4.00,-1.00,-1.00,+2.00,+1.00,+7.00,+25.00,-3.00,-4.00,+4.00,+8.00,+2.00,+6.00,+14.00
-6.00,+1.00,+3.00,+1.00,-2.00,+0.00,-1.00,+2.00,-33.00,-26.00,-2.00,-4.00,-1.00,-1.00,-1.00,-6.00
-23.00,-45.00,-6.00,-3.00,-8.00,-5.00,-4.00,-20.00,-13.00,+10.00,+1.00,+4.00,+4.00,-1.00,-1.00,-12.00
+30.00,+48.00,+6.00,+0.00,+3.00,-1.00,-6.00,-21.00,-20.00,-15.00,-11.00,-21.00,-22.00,-10.00,-8.00,-3.00
-7.00,-19.00,-2.00,-1.00,+0.00,+2.00,+2.00,+4.00,+19.00,+6.00,+5.00,+11.00,+6.00,+5.00,+7.00,+14.00
-7.00,+5.00,-1.00,+0.00,-1.00,+1.00,+1.00,-2.00,+5.00,+0.00,-8.00,-17.00,-14.00,-8.00,-6.00,+1.00
-7.00,-13.00,+0.00,+0.00,-2.00,-2.00,-3.00,-5.00,-98.00,-30.00,+1.00,+5.00,+3.00,-1.00,-4.00,-26.00
+10.00,+14.00,-4.00,-4.00,-14.00,-15.00,-7.00,-13.00,+45.00,+6.00,-2.00,-3.00,-1.00,+2.00,+2.00,+12.00
+0.00,+3.00,+5.00,+6.00,+16.00,+9.00,+1.00,+3.00,-33.00,-4.00,-2.00,+3.00,+2.00,-2.00,-3.00,-10.00
+7.00,+3.00,+5.00,+5.00,+4.00,+6.00,+5.00,+4.00,+42.00,+21.00,-3.00,+0.00,+1.00,-5.00,-3.00,-3.00
+1.00,-6.00,+3.00,+0.00,+0.00,+2.00,+5.00,+25.00,-30.00,+6.00,+1.00,+4.00,+0.00,+1.00,+0.00,-10.00
+54.00,+41.00,+8.00,+4.00,+3.00,+6.00,+7.00,+23.00,+12.00,-14.00,+1.00,+3.00,-3.00,+1.00,+1.00,-8.00
-14.00,-10.00,-11.00,-9.00,-12.00,-9.00,-7.00,-13.00,-9.00,+8.00,+6.00,+3.00,+2.00,+2.00,+2.00,+9.00
-15.00,-27.00,-7.00,-4.00,+0.00,-4.00,-2.00,-9.00,+2.00,-8.00,-9.00,-10.00,-10.00,-5.00,-3.00,-2.00
+12.00,+42.00,+7.00,+3.00,+3.00,-1.00,+3.00,+8.00,+73.00,+27.00,+4.00,-6.00,-4.00,+0.00,-3.00,-5.00
+3.00,-23.00,-6.00,-5.00,-4.00,-5.00,-3.00,-1.00,-7.00,-3.00,-3.00,-3.00,-2.00,-1.00,-4.00,+5.00
-22.00,-9.00,+5.00,+6.00,+2.00,+3.00,+6.00,+11.00,-46.00,-13.00,-5.00,+1.00,-2.00,-6.00,-15.00,-43.00
-33.00,-39.00,-18.00,-11.00,+2.00,-5.00,-10.00,-20.00,+53.00,+18.00,+0.00,+2.00,+1.00,+1.00,+2.00,+17.00
+27.00,+32.00,+15.00,+6.00,-2.00,+4.00,+8.00,+12.00,-4.00,-5.00,+10.00,+12.00,+10.00,+5.00,+12.00,+22.00
-21.00,-31.00,-11.00,-4.00,+0.00,-2.00,-8.00,-20.00,+25.00,+20.00,+1.00,-6.00,-4.00,+0.00,+2.00,+3.00
+13.00,+9.00,-8.00,-9.00,-7.00,-6.00,-3.00,+0.00,-32.00,-27.00,-8.00,-3.00,-4.00,-4.00,-3.00,-6.00
-20.00,-2.00,+2.00,+3.00,-1.00,-5.00,+0.00,-2.00,-10.00,-6.00,-2.00,+0.00,+1.00,-4.00,-8.00,-14.00
+15.00,+5.00,-7.00,-4.00,-2.00,-3.00,-4.00,-7.00,+48.00,+30.00,+1.00,+13.00,+10.00,-4.00,-7.00,-4.00
-5.00,-1.00,+4.00,-2.00,-16.00,-6.00,-1.00,-8.00,-25.00,-9.00,-8.00,-23.00,-21.00,-3.00,-2.00,+3.00
+19.00,-9.00,+0.00,+2.00,+26.00,+9.00,+3.00,+23.00,-11.00,-9.00,+5.00,-1.00,-4.00,-2.00,-4.00,-12.00
+31.00,+20.00,+3.00,-3.00,-8.00,+3.00,+3.00,+1.00,+59.00,+21.00,-1.00,-3.00,+0.00,+6.00,+16.00,+37.00
-8.00,-7.00,-7.00,+0.00,+5.00,-4.00,-3.00,-8.00,+37.00,+1.00,+0.00,-3.00,+0.00,+4.00,+5.00,+15.00
-43.00,+21.00,+6.00,+5.00,+5.00,+5.00,+2.00,+2.00,-69.00,-36.00,-8.00,+1.00,+0.00,-7.00,-12.00,-36.00
+3.00,-2.00,-2.00,-2.00,-11.00,-2.00,-4.00,-9.00,+35.00,+17.00,-1.00,+1.00,+1.00,-2.00,-5.00,-10.00
+8.00,-2.00,-9.00,-6.00,-9.00,-6.00,-8.00,-35.00,-1.00,-11.00,-5.00,-4.00,-4.00,-5.00,-8.00,-11.00
-7.00,-6.00,+0.00,+0.00,+1.00,+2.00,+1.00,+2.00,+27.00,+9.00,+4.00,+3.00,+1.00,+3.00,-3.00,-2.00
-29.00,-47.00,-8.00,-1.00,+1.00,-4.00,-4.00,-9.00,-23.00,-26.00,-6.00,+5.00,+6.00,+4.00,+3.00,+12.00
-4.00,+89.00,+21.00,+7.00,-4.00,+2.00,+8.00,+25.00,-44.00,+6.00,-8.00,-12.00,-13.00,-3.00,-1.00,-4.00
+8.00,-12.00,-6.00,-5.00,-2.00,-7.00,-2.00,+9.00,+35.00,-4.00,+10.00,+11.00,+7.00,+2.00,+2.00,+2.00
-20.00,-24.00,-1.00,+4.00,+6.00,+11.00,+3.00,+9.00,+12.00,-8.00,-5.00,-10.00,-8.00,-5.00,-6.00,-3.00
-22.00,-47.00,-6.00,-4.00,-1.00,-5.00,-4.00,-7.00,-59.00,-4.00,+2.00,+8.00,+10.00,+0.00,-4.00,-22.00
+3.00,+8.00,-1.00,+1.00,+5.00,+3.00,+9.00,+32.00,+33.00,+13.00,+2.00,+2.00,+1.00,+2.00,+9.00,+34.00
+2.00,+13.00,+6.00,+2.00,-2.00,-1.00,+0.00,+2.00,-15.00,+32.00,+4.00,-1.00,-6.00,+0.00,+1.00,+5.00
+9.00,-10.00,-11.00,-7.00,-10.00,-8.00,-8.00,-19.00,-30.00,-39.00,-8.00,-1.00,+1.00,-3.00,-8.00,-17.00
+1.00,-16.00,-6.00,-4.00,+0.00,-1.00,+0.00,+14.00,+48.00,+41.00,+8.00,-9.00,-11.00,-1.00,+2.00,+14.00
+7.00,-14.00,+1.00,+2.00,-3.00,-2.00,-3.00,-15.00,-59.00,-24.00,-1.00,+0.00,+1.00,-4.00,-8.00,-22.00
-8.00,+14.00,+1.00,+0.00,+7.00,+0.00,-2.00,-10.00,+42.00,+2.00,+3.00,+1.00,+3.00,+4.00,+3.00,+10.00
-31.00,+8.00,+8.00,-4.00,-20.00,-5.00,+5.00,+25.00,+53.00,+12.00,-4.00,-2.00,-3.00,+2.00,+11.00,+40.00
+35.00,+22.00,-2.00,+4.00,-1.00,+0.00,-2.00,+3.00,-48.00,-22.00,+3.00,+5.00,+5.00,+1.00,-2.00,-7.00
+16.00,+1.00,-3.00,+2.00,+12.00,+9.00,+4.00,+24.00,+39.00,+17.00,+2.00,+1.00,+3.00,+0.00,+2.00,-1.00
+12.00,+1.00,+8.00,+6.00,-5.00,+3.00,+3.00,+17.00,-52.00,-17.00,-3.00,-2.00,-5.00,-4.00,-7.00,-17.00
+17.00,-11.00,-10.00,-4.00,+11.00,-3.00,-9.00,-24.00,-19.00,-9.00,-8.00,-8.00,-8.00,-9.00,-8.00,-15.00
-27.00,-5.00,+2.00,-3.00,-7.00,+0.00,-3.00,-3.00,+87.00,+41.00,+17.00,+17.00,+13.00,+15.00,+21.00,+32.00
+2.00,-4.00,-3.00,-3.00,-6.00,-6.00,-2.00,-1.00,-30.00,-14.00,-3.00,+2.00,+0.00,-2.00,-4.00,-11.00
+28.00,+26.00,-1.00,-3.00,+1.00,+0.00,+3.00,+22.00,-19.00,-1.00,-5.00,+0.00,+7.00,-4.00,-5.00,-7.00
-29.00,-15.00,-3.00,-3.00,-5.00,-4.00,-3.00,-3.00,-48.00,-29.00,-10.00,-15.00,-16.00,-4.00,-6.00,-15.00
+76.00,+62.00,+21.00,+12.00,+11.00,+8.00,+13.00,+23.00,+6.00,+24.00,-1.00,-5.00,-8.00,-8.00,-10.00,-22.00
-35.00,-38.00,-8.00,-6.00,-8.00,-8.00,-10.00,-44.00,+7.00,-44.00,-7.00,-2.00,+0.00,+1.00,+2.00,+22.00
-33.00,-23.00,-3.00,-3.00,+3.00,+3.00,-3.00,-12.00,+19.00,+39.00,+6.00,+5.00,+2.00,+0.00,+1.00,+1.00
-2.00,+18.00,+7.00,+4.00,-1.00,-1.00,+0.00,+8.00,-60.00,-23.00,-4.00,+0.00,-2.00,-4.00,-6.00,-20.00
+23.00,+1.00,-9.00,-5.00,+3.00,-1.00,+1.00,+2.00,-9.00,-7.00,-6.00,-5.00,-7.00,-6.00,-10.00,-20.00
-38.00,-41.00,-6.00,-5.00,-7.00,-8.00,-11.00,-33.00,+105.00,+33.00,-1.00,-3.00,+0.00,+1.00,+4.00,+9.00
+28.00,+18.00,+4.00,+7.00,+4.00,+2.00,+8.00,+17.00,-76.00,-54.00,-6.00,+16.00,+12.00,+5.00,+8.00,+2.00
+14.00,+31.00,+8.00,+2.00,-1.00,+3.00,+0.00,+6.00,+38.00,+12.00,-5.00,-16.00,-6.00,-3.00,-1.00,+5.00
-12.00,+4.00,-1.00,+0.00,-1.00,+1.00,-1.00,+10.00,+10.00,-16.00,-7.00,-11.00,-11.00,-4.00,+3.00,+10.00
+28.00,+7.00,-2.00,-3.00,-3.00,-2.00,+2.00,-4.00,-15.00,+5.00,+1.00,+0.00,+2.00,+1.00,+2.00,+2.00
-24.00,-25.00,-8.00,-4.00,-9.00,-6.00,-8.00,-17.00,+48.00,+33.00,+7.00,-4.00,-6.00,-2.00,-3.00,+5.00
-8.00,-1.00,+0.00,+1.00,+7.00,+3.00,+1.00,-6.00,+1.00,+12.00,+4.00,+6.00,+5.00,+2.00,+2.00,-6.00
+15.00,-15.00,+0.00,+2.00,+7.00,+3.00,+2.00,+9.00,-17.00,-4.00,-3.00,-1.00,+0.00,-3.00,+0.00,+3.00
-18.00,+16.00,+6.00,+3.00,-8.00,-2.00,+2.00,+8.00,-4.00,-25.00,-11.00,-1.00,-2.00,-4.00,-3.00,+0.00
-14.00,-18.00,-7.00,-3.00,-2.00,-3.00,-5.00,-8.00,-28.00,-1.00,-1.00,-2.00,+0.00,-6.00,-8.00,-8.00
+28.00,-4.00,-4.00,-1.00,+2.00,+2.00,-1.00,-6.00,-71.00,-27.00,-7.00,-5.00,-8.00,-2.00,-5.00,-19.00
-38.00,-22.00,-4.00,-2.00,-3.00,-2.00,-3.00,-7.00,+11.00,+29.00,+10.00,+5.00,+3.00,-2.00,-8.00,-18.00
+24.00,+48.00,+10.00,+6.00,+2.00,+2.00,-3.00,-21.00,-12.00,-5.00,-3.00,-1.00,-2.00,+0.00,+8.00,+22.00
+1.00,+9.00,-1.00,-3.00,+2.00,-1.00,-1.00,+1.00,+14.00,-4.00,+5.00,+0.00,-1.00,+0.00,-1.00,+7.00
+0.00,+5.00,-1.00,-2.00,-18.00,-11.00,+2.00,+10.00,+18.00,-6.00,-5.00,-4.00,-1.00,-3.00,-2.00,-4.00
-6.00,-24.00,-18.00,-11.00,+2.00,-1.00,-4.00,-10.00,-22.00,-44.00,-16.00,-6.00,-2.00,-5.00,-4.00,+12.00
-17.00,-42.00,-6.00,-3.00,-8.00,-3.00,-3.00,-2.00,-17.00,+28.00,+13.00,+3.00,-2.00,+2.00,-8.00,-40.00
+16.00,+16.00,+3.00,+2.00,+8.00,+6.00,+1.00,+12.00,-8.00,-24.00,-12.00,-3.00,-2.00,+2.00,+11.00,+19.00
+2.00,-2.00,-3.00,-4.00,-2.00,-2.00,-5.00,-11.00,-21.00,+8.00,+4.00,+0.00,-1.00,-3.00,-7.00,-12.00
-7.00,+6.00,-2.00,-3.00,-3.00,-2.00,-4.00,-9.00,+20.00,-15.00,-4.00,+0.00,+0.00,-1.00,-2.00,+0.00
+6.00,-12.00,-6.00,-2.00,+2.00,+1.00,+7.00,+40.00,+13.00,+23.00,+3.00,-3.00,+2.00,-5.00,-9.00,-5.00
+30.00,+17.00,-10.00,-8.00,-7.00,-8.00,-1.00,+10.00,+5.00,-16.00,-5.00,-9.00,-9.00,-2.00,-4.00,-8.00
-5.00,+9.00,+7.00,+4.00,+3.00,+2.00,+3.00,-5.00,-36.00,-3.00,+2.00,+2.00,-1.00,+1.00,+4.00,+4.00
-15.00,+12.00,+4.00,+3.00,+0.00,+0.00,-2.00,-3.00,+37.00,-4.00,-5.00,+0.00,+4.00,+3.00,+9.00,+23.00
+34.00,+21.00,+3.00,-3.00,-15.00,-6.00,-2.00,-2.00,-17.00,+26.00,+3.00,-1.00,-2.00,-3.00,-3.00,-2.00
-22.00,-38.00,-8.00,-1.00,+15.00,+9.00,+3.00,-6.00,-30.00,-10.00,-7.00,-4.00,-3.00,-3.00,-5.00,-13.00
-28.00,+0.00,+0.00,+0.00,+1.00,-2.00,-6.00,-12.00,+43.00,+11.00,+7.00,+3.00,+4.00,+4.00,+7.00,+10.00
+36.00,+10.00,+8.00,+6.00,+4.00,+3.00,+7.00,+28.00,-23.00,+25.00,+4.00,+0.00,-1.00,-1.00,-4.00,-17.00
-6.00,+1.00,-11.00,-5.00,-4.00,-2.00,-6.00,-9.00,+38.00,-1.00,-1.00,-2.00,-3.00,-4.00,-4.00,+10.00
+16.00,-2.00,+4.00,+0.00,-9.00,-3.00,-2.00,-10.00,+14.00,-10.00,-3.00,+5.00,+3.00,+2.00,+2.00,+2.00
-6.00,-9.00,-6.00,-6.00,-7.00,-2.00,-4.00,-13.00,+26.00,-4.00,-2.00,-3.00,-5.00,-3.00,-3.00,+11.00
-16.00,+27.00,+9.00,+6.00,+8.00,+2.00,+3.00,+6.00,-36.00,-14.00,-4.00,-1.00,-1.00,-2.00,-6.00,-14.00
+27.00,+6.00,+13.00,+2.00,-2.00,+3.00,+6.00,+16.00,-8.00,-15.00,+0.00,-7.00,-7.00,-1.00,+1.00,+4.00
-14.00,-15.00,-5.00,-1.00,+2.00,-1.00,-4.00,-16.00,-31.00,-7.00,+0.00,+1.00,+2.00,-2.00,-6.00,-18.00
-1.00,-2.00,-1.00,+2.00,+8.00,+3.00,+2.00,+8.00,+15.00,+14.00,-4.00,+2.00,+1.00,-5.00,-7.00,-7.00
-16.00,-30.00,-11.00,-6.00,-15.00,-10.00,-9.00,-19.00,+10.00,+8.00,-1.00,-5.00,-6.00,+0.00,+6.00,+17.00
-6.00,+2.00,-3.00,+1.00,+10.00,+3.00,-1.00,-5.00,-33.00,-34.00,-3.00,+6.00,+8.00,+4.00,-1.00,-18.00
+5.00,+18.00,+8.00,+4.00,+0.00,+4.00,+4.00,+37.00,-36.00,-18.00,-5.00,-5.00,-3.00,-3.00,+0.00,-3.00
+13.00,+4.00,+1.00,+0.00,+0.00,-3.00,-2.00,-4.00,-11.00,+9.00,+6.00,+6.00,+2.00,+3.00,+1.00,+1.00
-43.00,-42.00,-8.00,-6.00,-6.00,-4.00,+2.00,-7.00,+17.00,-2.00,+6.00,+19.00,+11.00,+1.00,-4.00,-3.00
-2.00,+4.00,-1.00,-1.00,+2.00,+0.00,-3.00,-10.00,-36.00,-15.00,-13.00,-35.00,-27.00,-7.00,-3.00,-9.00
+15.00,+25.00,+10.00,+8.00,+5.00,+2.00,-1.00,-4.00,+52.00,+37.00,+5.00,+0.00,-1.00,+0.00,+3.00,+4.00
-4.00,+5.00,-2.00,-4.00,-15.00,-1.00,+2.00,-1.00,-21.00,-15.00,-1.00,-1.00,+1.00,+2.00,+2.00,-6.00
+4.00,+27.00,+4.00,+4.00,+8.00,+3.00,-1.00,-1.00,+13.00,+33.00,+5.00,-1.00,+2.00,+1.00,+0.00,+9.00
-6.00,-23.00,-3.00,+0.00,-7.00,-2.00,-1.00,-2.00,+37.00,+10.00,+6.00,+22.00,+15.00,+4.00,+3.00,+18.00
-28.00,-24.00,-6.00,-3.00,+9.00,-3.00,-5.00,-10.00,-17.00,-14.00,-6.00,-13.00,-12.00,-8.00,-12.00,-17.00
+39.00,+19.00,+11.00,+6.00,+3.00,+2.00,+4.00,+11.00,+18.00,-1.00,-2.00,-3.00,-2.00,-2.00,-3.00,+7.00
+4.00,+6.00,+0.00,-5.00,-1.00,-3.00,-1.00,+5.00,-14.00,-5.00,+7.00,+7.00,+1.00,+1.00,-1.00,-20.00
+0.00,-7.00,-5.00,-2.00,+7.00,+4.00,+3.00,+4.00,+35.00,-6.00,-7.00,-9.00,-3.00,-4.00,-3.00,+2.00
-9.00,+4.00,+1.00,-2.00,-10.00,-4.00,-2.00,-8.00,+3.00,+13.00,+2.00,+1.00,+1.00,-1.00,-4.00,+4.00
-29.00,-26.00,-11.00,-7.00,-3.00,-7.00,-6.00,-15.00,-7.00,-10.00,-1.00,+4.00,+0.00,+3.00,+2.00,+7.00
+21.00,-5.00,-3.00,-2.00,-8.00,-2.00,+0.00,-2.00,-31.00,-1.00,+0.00,-4.00,-1.00,+0.00,+7.00,+14.00
-12.00,+4.00,+0.00,+3.00,+14.00,+6.00,+1.00,+28.00,-2.00,-2.00,+4.00,+9.00,+5.00,+3.00,-1.00,-9.00
-14.00,-21.00,-5.00,-5.00,-14.00,-9.00,-1.00,-3.00,-32.00,-8.00,-4.00,-6.00,-6.00,-3.00,-4.00,-11.00
-7.00,-12.00,-5.00,-1.00,+14.00,+8.00,+0.00,+2.00,+27.00,+26.00,-2.00,+3.00,+3.00,-5.00,-5.00,-12.00
+8.00,-4.00,-7.00,-6.00,-10.00,-4.00,-4.00,-5.00,-35.00,-25.00,-7.00,-6.00,-6.00,-2.00,-7.00,-9.00
+0.00,+8.00,+2.00,+3.00,+3.00,-3.00,-8.00,-14.00,-8.00,+18.00,+2.00,+0.00,-1.00,-1.00,-1.00,-22.00
-4.00,+3.00,+3.00,+0.00,-3.00,+6.00,+16.00,+35.00,+30.00,+15.00,+5.00,+10.00,+3.00,+1.00,+3.00,+13.00
-5.00,-20.00,-8.00,-5.00,-4.00,-4.00,-5.00,-12.00,-23.00,-25.00,-9.00,-16.00,-9.00,-5.00,-6.00,-16.00
+4.00,+5.00,+0.00,+1.00,+6.00,+3.00,-1.00,-9.00,-14.00,-10.00,-3.00,-4.00,-3.00,-3.00,-2.00,+4.00
+15.00,-3.00,+1.00,-1.00,+2.00,-2.00,+2.00,-5.00,-4.00,-4.00,-7.00,-12.00,-11.00,-4.00,-6.00,-6.00
+8.00,-4.00,+1.00,+0.00,+0.00,+3.00,+1.00,+34.00,-26.00,-2.00,+2.00,+5.00,+6.00,+0.00,-3.00,-20.00
-4.00,+3.00,+0.00,-1.00,-5.00,-5.00,-2.00,-6.00,+11.00,+12.00,+3.00,+1.00,-1.00,+0.00,+6.00,+10.00
-14.00,-4.00,-7.00,-5.00,-5.00,-2.00,-1.00,-5.00,+35.00,+4.00,-1.00,-3.00,-3.00,+0.00,+0.00,+5.00
-8.00,-7.00,-5.00,-3.00,+5.00,+0.00,-2.00,-1.00,-19.00,-19.00,-6.00,+4.00,+4.00,-1.00,-3.00,-5.00
+3.00,-10.00,-8.00,-2.00,-4.00,-3.00,-9.00,-30.00,-13.00,+0.00,+4.00,+11.00,+7.00,+1.00,+0.00,+1.00
+30.00,+8.00,-1.00,+0.00,+1.00,+2.00,+6.00,+14.00,+4.00,+9.00,+3.00,-4.00,-9.00,-5.00,-4.00,-3.00
-14.00,-14.00,-5.00,-3.00,-2.00,-2.00,-7.00,-15.00,+9.00,+0.00,-3.00,-9.00,-3.00,+3.00,+4.00,+3.00
+4.00,+12.00,+2.00,-5.00,-22.00,-5.00,+1.00,+1.00,-10.00,-3.00,-2.00,-1.00,+0.00,-1.00,+0.00,+4.00
-11.00,+8.00,+0.00,-5.00,+0.00,-4.00,-4.00,-14.00,+15.00,+7.00,-5.00,-13.00,-11.00,-2.00,+3.00,+11.00
-1.00,-4.00,+1.00,+5.00,+19.00,+10.00,+0.00,+1.00,-40.00,-17.00,-3.00,+7.00,+3.00,-5.00,-6.00,-9.00
-21.00,-7.00,+1.00,+0.00,-4.00,-3.00,-4.00,-3.00,+30.00,+1.00,-6.00,-4.00,-1.00,-7.00,+3.00,+6.00
-2.00,-14.00,-7.00,-4.00,-2.00,-1.00,+4.00,+4.00,+25.00,+16.00,+5.00,-4.00,-4.00,+1.00,+5.00,+3.00
+16.00,+0.00,+0.00,-3.00,-8.00,+1.00,+2.00,+31.00,-9.00,-12.00,-7.00,-5.00,-2.00,-3.00,-4.00,-16.00
-8.00,+6.00,+0.00,-5.00,-12.00,-8.00,+0.00,+12.00,+1.00,+1.00,+4.00,+1.00,+2.00,+3.00,+5.00,+11.00
+18.00,-4.00,+3.00,+3.00,+10.00,+1.00,+2.00,-2.00,-12.00,+4.00,+0.00,+1.00,-2.00,-6.00,-3.00,-2.00
+1.00,-1.00,-1.00,-1.00,-5.00,-2.00,-11.00,-13.00,+63.00,+11.00,+3.00,+6.00,+6.00,+3.00,+7.00,+21.00
-5.00,+4.00,-1.00,+3.00,+6.00,+0.00,+7.00,-9.00,-1.00,+8.00,+8.00,+3.00,+1.00,+1.00,+1.00,+1.00
+1.00,+8.00,+2.00,+4.00,+3.00,+3.00,+1.00,+2.00,-11.00,-12.00,-5.00,+2.00,+2.00,+1.00,+0.00,+2.00
-7.00,-8.00,-3.00,+0.00,+6.00,+1.00,-1.00,-1.00,-11.00,-12.00,-4.00,-10.00,-9.00,-4.00,-6.00,-16.00
-17.00,-10.00,+0.00,-1.00,-6.00,-4.00,-5.00,-10.00,-35.00,-2.00,-4.00,+0.00,-3.00,-5.00,-6.00,-2.00
+27.00,+10.00,-1.00,-5.00,-11.00,-6.00,-3.00,-6.00,+38.00,+5.00,+1.00,+2.00,+1.00,+0.00,+3.00,+22.00
-12.00,-19.00,-3.00,-1.00,+12.00,+6.00,-3.00,-15.00,-2.00,+9.00,+5.00,+0.00,-1.00,+1.00,+3.00,+2.00
+6.00,+25.00,+6.00,+4.00,-1.00,-4.00,+3.00,-1.00,+0.00,+2.00,+4.00,+15.00,+14.00,+5.00,+0.00,-10.00
-11.00,-8.00,+0.00,+3.00,+11.00,+4.00,-1.00,-5.00,-21.00,-9.00,+0.00,-3.00,-8.00,-2.00,-4.00,+3.00
-23.00,-8.00,-1.00,-1.00,-10.00,-3.00,-4.00,-19.00,-18.00,-10.00,-7.00,-20.00,-11.00,-4.00,-5.00,-12.00
-1.00,+1.00,-1.00,-4.00,-6.00,-5.00,-2.00,-3.00,-11.00,-1.00,-4.00,-5.00,-4.00,-3.00,-5.00,-13.00
+6.00,+4.00,-4.00,-3.00,-7.00,+2.00,-9.00,-3.00,+22.00,+12.00,+4.00,+1.00,+1.00,+4.00,+11.00,+33.00
+6.00,+2.00,+3.00,+5.00,+15.00,+1.00,-3.00,-5.00,-7.00,+5.00,+7.00,+8.00,+6.00,+2.00,+8.00,+8.00
-13.00,-8.00,-9.00,-7.00,-6.00,-2.00,+11.00,+7.00,+15.00,-3.00,+0.00,+1.00,+1.00,-2.00,-4.00,-4.00
-14.00,-10.00,-1.00,+1.00,-6.00,-3.00,+2.00,+7.00,+22.00,+3.00,+2.00,+10.00,+10.00,-1.00,-2.00,-3.00
-10.00,+20.00,+1.00,+1.00,-6.00,-5.00,+2.00,+10.00,-1.00,+0.00,-1.00,-2.00,-4.00,-2.00,-4.00,-7.00
+3.00,+0.00,-2.00,-1.00,-1.00,-4.00,-5.00,+11.00,-19.00,-6.00,-3.00,+0.00,+2.00,-6.00,-5.00,-3.00
+0.00,+7.00,+4.00,+2.00,-3.00,+3.00,+7.00,+16.00,-13.00,+8.00,+2.00,-4.00,-6.00,+6.00,+3.00,+5.00
+4.00,+0.00,-3.00,+0.00,+20.00,+0.00,-2.00,-7.00,-15.00,-7.00,-1.00,-3.00,-1.00,-3.00,-2.00,-9.00
+7.00,-12.00,-4.00,-3.00,-7.00,-4.00,+1.00,-4.00,+23.00,+0.00,-1.00,+0.00,-1.00,+1.00,-3.00,-6.00
+6.00,+1.00,-1.00,-3.00,-25.00,-11.00,+0.00,-5.00,-27.00,-1.00,+4.00,+13.00,+8.00,+2.00,+3.00,+10.00
-3.00,+10.00,+5.00,+6.00,+19.00,-3.00,-3.00,+2.00,+11.00,+2.00,-1.00,-8.00,-12.00,-4.00,+1.00,+4.00
+0.00,+3.00,+1.00,+0.00,+1.00,+6.00,-1.00,+6.00,-10.00,-10.00,-6.00,-4.00,-3.00,-5.00,-5.00,-4.00
-5.00,-11.00,-3.00,-5.00,-12.00,-2.00,-1.00,+0.00,-9.00,-2.00,-4.00,-7.00,-7.00,+2.00,+0.00,-10.00
+8.00,-8.00,-1.00,+4.00,+25.00,+9.00,+2.00,+3.00,-12.00,-1.00,+0.00,+2.00,+2.00,+2.00,+0.00,-2.00
-5.00,-2.00,-3.00,-5.00,-17.00,-7.00,-9.00,-24.00,-18.00,-12.00,+0.00,+8.00,+11.00,-3.00,-8.00,-16.00
+8.00,+7.00,-6.00,-6.00,-22.00,-16.00,-3.00,-22.00,+11.00,+2.00,-2.00,+0.00,-4.00,+2.00,+6.00,+12.00
-17.00,-6.00,+4.00,+8.00,+20.00,+5.00,+1.00,-6.00,+1.00,-2.00,-5.00,-10.00,-6.00,-6.00,-5.00,-7.00
+0.00,+9.00,+1.00,-5.00,-11.00,-1.00,+5.00,+4.00,+20.00,+8.00,+2.00,+8.00,+9.00,-4.00,-8.00,-3.00
+7.00,-5.00,+1.00,+2.00,+7.00,+1.00,-3.00,-9.00,-23.00,-11.00,-3.00,+2.00,-1.00,-2.00,-2.00,-8.00
-34.00,-37.00,-6.00,-5.00,-5.00,-3.00,-8.00,-10.00,-5.00,-3.00,+1.00,-7.00,-5.00,-1.00,-6.00,-16.00
+35.00,+31.00,+6.00,+0.00,+1.00,+2.00,+9.00,+12.00,-10.00,+10.00,+4.00,+7.00,+4.00,+3.00,+2.00,+2.00
+14.00,-1.00,-4.00,-4.00,-10.00,-4.00,+0.00,+9.00,+10.00,+3.00,-2.00,-9.00,-5.00,-2.00,-3.00,-4.00
+6.00,+2.00,+4.00,+1.00,-7.00,-3.00,-6.00,-2.00,-10.00,-1.00,+1.00,+3.00,+1.00,-9.00,-4.00,+0.00
+20.00,+19.00,+3.00,+3.00,+13.00,+6.00,+2.00,+6.00,+3.00,-1.00,-2.00,-3.00,+3.00,+6.00,+5.00,+1.00
-15.00,-17.00,-4.00,-5.00,-7.00,-4.00,-1.00,+0.00,+1.00,-2.00,+5.00,+10.00,+0.00,+2.00,+3.00,-1.00
+1.00,-2.00,+0.00,+2.00,-9.00,-4.00,-1.00,-18.00,+4.00,-2.00,-7.00,-18.00,-10.00,-9.00,-5.00,-4.00
-17.00,-22.00,-6.00,+0.00,+28.00,+8.00,-3.00,-11.00,+19.00,+3.00,-4.00,-10.00,-11.00,+5.00,+4.00,+7.00
+19.00,+14.00,+6.00,+4.00,-9.00,+0.00,+1.00,+5.00,+5.00,-3.00,-7.00,-6.00,-4.00,-4.00,-4.00,+4.00
-4.00,+1.00,-1.00,-3.00,-10.00,-4.00,-5.00,-5.00,-3.00,+3.00,-3.00,-13.00,-6.00,-3.00,-4.00,-10.00
-3.00,+0.00,-5.00,+0.00,+13.00,+4.00,+3.00,+4.00,+8.00,+4.00,+6.00,+14.00,+8.00,+5.00,+6.00,+24.00
-9.00,-3.00,-3.00,-1.00,-3.00,+0.00,-13.00,-15.00,-35.00,-8.00,+1.00,+9.00,+7.00,+1.00,+0.00,-19.00
-1.00,-3.00,-3.00,-4.00,-5.00,-5.00,+2.00,+1.00,+23.00,+1.00,-4.00,-5.00,-2.00,-2.00,+2.00,+10.00
-4.00,-3.00,-2.00,-2.00,-1.00,+1.00,+4.00,+14.00,-9.00,-4.00,-2.00,-1.00,-2.00,-3.00,-2.00,+1.00
+0.00,-1.00,+2.00,+1.00,+4.00,-4.00,-9.00,-12.00,+13.00,+1.00,-4.00,-15.00,-10.00,-4.00,-3.00,-7.00
+7.00,+3.00,-3.00,-2.00,+0.00,+1.00,+4.00,+4.00,-14.00,-4.00,+0.00,+9.00,+6.00,+3.00,-1.00,-2.00
+4.00,-7.00,-2.00,-3.00,-3.00,-1.00,+4.00,+14.00,+12.00,+7.00,+3.00,+4.00,+5.00,-1.00,-1.00,+15.00
-3.00,-4.00,+3.00,+2.00,+1.00,+4.00,+2.00,+2.00,-11.00,-9.00,-9.00,-6.00,-4.00,-7.00,-3.00,-6.00
-7.00,+2.00,+1.00,-9.00,-27.00,-9.00,-2.00,+2.00,+16.00,-1.00,+3.00,+11.00,+8.00,+9.00,+10.00,+17.00
+25.00,+36.00,+8.00,+11.00,+21.00,+7.00,-2.00,-10.00,+3.00,+1.00,+2.00,-2.00,-5.00,-3.00,-7.00,-10.00
-4.00,-6.00,-8.00,-4.00,-2.00,-6.00,-3.00,-2.00,+4.00,+2.00,+2.00,+14.00,+9.00,-6.00,-13.00,-14.00
-13.00,-15.00,-5.00,+0.00,+1.00,-3.00,-7.00,+6.00,+1.00,-5.00,-2.00,-18.00,-15.00,+5.00,+2.00,+7.00
-4.00,-3.00,+1.00,-1.00,+5.00,+3.00,+3.00,+0.00,-19.00,-6.00,-8.00,-18.00,-21.00,-6.00,-10.00,-27.00
-9.00,-20.00,-3.00,-6.00,-15.00,-7.00,-2.00,-5.00,+8.00,-4.00,-3.00,-2.00,+4.00,+2.00,+7.00,+20.00
-10.00,+4.00,+3.00,+1.00,-3.00,-2.00,+2.00,+3.00,-14.00,-3.00,+2.00,+8.00,+1.00,-2.00,-6.00,-5.00
+10.00,+13.00,+5.00,+0.00,+3.00,-1.00,-3.00,-18.00,-8.00,-3.00,-2.00,+0.00,+0.00,-9.00,-5.00,-9.00
-14.00,-11.00,-5.00,-2.00,-10.00,-3.00,-12.00,-37.00,-8.00,-6.00,-7.00,-8.00,-4.00,+6.00,+5.00,-6.00
-3.00,-4.00,-2.00,+0.00,+10.00,+4.00,-1.00,-11.00,+1.00,+2.00,-2.00,-4.00,-2.00,-3.00,-2.00,-7.00
+10.00,+5.00,-2.00,+1.00,+3.00,+3.00,+4.00,+9.00,-10.00,-5.00,-2.00,-5.00,-3.00,+2.00,-1.00,+0.00
+1.00,+0.00,+1.00,-3.00,-7.00,-6.00,-2.00,-4.00,+0.00,-3.00,-2.00,+8.00,+4.00,-7.00,-6.00,-4.00
+8.00,+5.00,+1.00,-1.00,+5.00,+5.00,+0.00,+15.00,-8.00,-1.00,-4.00,-6.00,-6.00,-8.00,-7.00,+0.00
-21.00,-14.00,-5.00,-6.00,-9.00,-5.00,+1.00,-10.00,+24.00,-9.00,-5.00,-1.00,+1.00,-3.00,+2.00,+17.00
+1.00,+4.00,+3.00,+3.00,-1.00,+1.00,+2.00,-6.00,-7.00,+1.00,+0.00,-1.00,+1.00,+0.00,+3.00,-20.00
-6.00,-3.00,-3.00,+2.00,+9.00,+3.00,-2.00,-5.00,-3.00,+0.00,+5.00,+14.00,+9.00,+4.00,-1.00,-8.00
-8.00,-15.00,-7.00,-3.00,+2.00,-2.00,+4.00,+9.00,-8.00,+0.00,+1.00,-7.00,-6.00,-3.00,+1.00,+1.00
+23.00,+22.00,+8.00,+2.00,-9.00,-1.00,+3.00,+14.00,-19.00,-8.00,-4.00,-6.00,-5.00,-8.00,-7.00,-10.00
+3.00,+4.00,+3.00,+1.00,+3.00,+0.00,-9.00,-11.00,+7.00,-9.00,-4.00,-4.00,-1.00,+4.00,+1.00,+11.00
-9.00,-42.00,-10.00,-5.00,-4.00,+0.00,+3.00,+25.00,+5.00,-1.00,-2.00,-7.00,-6.00,+3.00,+2.00,+14.00
+14.00,+42.00,+8.00,+4.00,+3.00,+1.00,+2.00,+3.00,-3.00,+5.00,+2.00,+9.00,+4.00,-1.00,-6.00,-22.00
+13.00,+1.00,-1.00,+0.00,+1.00,+0.00,+2.00,+10.00,-1.00,+0.00,-2.00,+0.00,+0.00,-4.00,-8.00,-3.00
+2.00,-4.00,+0.00,+2.00,+10.00,-2.00,+6.00,+14.00,+2.00,+6.00,+5.00,+2.00,-6.00,-2.00,-5.00,-3.00
+4.00,+2.00,+0.00,+2.00,+6.00,+2.00,-8.00,-9.00,-2.00,+10.00,+4.00,+7.00,+7.00,+4.00,+0.00,-1.00
-16.00,-20.00,-3.00,+2.00,+12.00,+5.00,+5.00,+6.00,+6.00,-7.00,-1.00,+2.00,-2.00,-3.00,+0.00,+8.00
-5.00,-13.00,-5.00,-4.00,-3.00,-2.00,-8.00,-13.00,+7.00,+9.00,+0.00,-11.00,-6.00,+0.00,-2.00,+2.00
-8.00,-2.00,-2.00,-4.00,-15.00,-6.00,-2.00,-5.00,+7.00,+6.00,+4.00,+12.00,+10.00,+1.00,+2.00,+7.00
-1.00,+11.00,+1.00,-1.00,-2.00,-3.00,+0.00,+2.00,-1.00,-3.00,+0.00,+2.00,-3.00,-5.00,-6.00,-6.00
-9.00,-3.00,-3.00,-8.00,-23.00,-5.00,-3.00,+0.00,-9.00,-1.00,-4.00,-3.00,+5.00,+0.00,+0.00,-5.00
-5.00,-6.00,-3.00,+3.00,+9.00,+0.00,+6.00,+12.00,-8.00,-4.00,+1.00,+2.00,-3.00,+0.00,-1.00,-2.00
+4.00,+4.00,+3.00,+3.00,+7.00,+2.00,+3.00,+27.00,-19.00,-8.00,-7.00,-17.00,-8.00,-3.00,+0.00,-6.00
-11.00,-6.00,-4.00,-2.00,+5.00,-1.00,+0.00,-10.00,+0.00,-8.00,-4.00,-1.00,-2.00,-4.00,-5.00,-7.00
+2.00,-2.00,+0.00,-2.00,-5.00,-3.00,-3.00,-6.00,+0.00,-2.00,+2.00,+10.00,+9.00,-3.00,+2.00,+0.00
-5.00,-8.00,-2.00,-4.00,-6.00,+0.00,-3.00,+0.00,+3.00,+6.00,+1.00,-2.00,+1.00,+7.00,+6.00,+9.00
-3.00,-9.00,-7.00,-9.00,-26.00,-10.00,-6.00,-6.00,+10.00,+2.00,-4.00,-4.00,-6.00,-1.00,+8.00,+9.00
+0.00,+14.00,+6.00,+7.00,+30.00,+16.00,+2.00,+6.00,-16.00,-12.00,-3.00,-2.00,+0.00,-2.00,-1.00,-5.00
+1.00,-5.00,+1.00,+3.00,+6.00,+3.00,+6.00,+6.00,+36.00,+2.00,+0.00,+3.00,+0.00,-2.00,-5.00,+2.00
-3.00,+4.00,-1.00,+0.00,+1.00,-2.00,-6.00,-8.00,-15.00,-10.00,-5.00,-4.00,-1.00,-4.00,-7.00,-14.00
-13.00,-14.00,-4.00,-1.00,+7.00,+0.00,-1.00,-9.00,-5.00,-6.00,-5.00,-11.00,-15.00,+0.00,+1.00,+5.00
+16.00,+9.00,-4.00,-8.00,-23.00,-11.00,-1.00,+0.00,+14.00,+5.00,-2.00,-6.00,-2.00,-1.00,+0.00,+14.00
+3.00,+7.00,+4.00,+2.00,+7.00,-3.00,+0.00,-2.00,-3.00,+1.00,-1.00,-2.00,-2.00,+0.00,+0.00,-6.00
-2.00,+4.00,+1.00,+0.00,+0.00,+0.00,+1.00,-5.00,+1.00,+0.00,+2.00,+4.00,+4.00,-1.00,-3.00,-4.00
-12.00,+1.00,-1.00,-5.00,-9.00,+0.00,-4.00,-19.00,+2.00,-1.00,-1.00,+1.00,+1.00,-2.00,-4.00,-6.00
-6.00,-11.00,-3.00,-2.00,+2.00,-4.00,-2.00,-6.00,-19.00,-12.00,+1.00,+20.00,+5.00,-3.00,-3.00,-12.00
-4.00,-6.00,-1.00,+3.00,+6.00,+0.00,-1.00,+0.00,-13.00,+2.00,-1.00,-33.00,-11.00,-5.00,-3.00,+2.00
-4.00,-5.00,-1.00,-1.00,-10.00,-5.00,+0.00,+3.00,+18.00,+4.00,+1.00,-2.00,-6.00,+2.00,+3.00,+2.00
+12.00,+4.00,+0.00,-1.00,+2.00,+3.00,+0.00,+16.00,-12.00,-5.00,-7.00,-9.00,-7.00,-9.00,-6.00,-11.00
+6.00,+12.00,+4.00,-1.00,-7.00,+0.00,+0.00,-4.00,+2.00,+3.00,+0.00,+2.00,+6.00,+6.00,+6.00,+9.00
+12.00,-1.00,+0.00,+1.00,+6.00,+0.00,-1.00,-6.00,-1.00,-3.00,-4.00,+5.00,-1.00,-3.00,-1.00,-8.00
-11.00,+0.00,+1.00,-1.00,+0.00,-1.00,-2.00,-7.00,-14.00,+2.00,+3.00,+14.00,+8.00,-4.00,+2.00,+3.00
-8.00,-8.00,-3.00,-8.00,-17.00,-4.00,+2.00,-6.00,+15.00,+3.00,+3.00,-6.00,-11.00,+2.00,+7.00,+14.00
-3.00,-2.00,+0.00,+4.00,+9.00,+0.00,-6.00,-21.00,+1.00,-2.00,-7.00,-16.00,-8.00,-3.00,-3.00,-7.00
+1.00,+1.00,-7.00,-3.00,+0.00,-2.00,-2.00,+2.00,-6.00,-4.00,-3.00,-1.00,-1.00,+1.00,-2.00,-1.00
+9.00,-8.00,-5.00,-2.00,-4.00,-4.00,+2.00,+7.00,+14.00,+2.00,-4.00,-8.00,-3.00,-4.00,+0.00,+5.00
+14.00,+17.00,+3.00,+0.00,+6.00,+1.00,-5.00,-6.00,-11.00,+1.00,+3.00,+14.00,+8.00,+2.00,-1.00,-2.00
-6.00,-3.00,+0.00,-1.00,-7.00,-4.00,+0.00,+1.00,-8.00,-4.00,+0.00,+0.00,+1.00,+0.00,+0.00,-3.00
-7.00,-7.00,-3.00,-5.00,-14.00,-5.00,-1.00,-20.00,+4.00,+5.00,+3.00,+5.00,+0.00,+2.00,-2.00,+8.00
-3.00,-4.00,+2.00,+2.00,+7.00,+1.00,-9.00,-4.00,-2.00,-1.00,+0.00,+0.00,+4.00,-1.00,-5.00,-5.00
-7.00,+1.00,-2.00,+3.00,+6.00,+2.00,+6.00,+1.00,-3.00,-3.00,-5.00,-9.00,-6.00,-3.00,-3.00,-1.00
-15.00,-9.00,-7.00,-4.00,-19.00,-8.00,-8.00,-12.00,+11.00,+2.00,-3.00,-13.00,-9.00,-5.00,-2.00,-3.00
+4.00,-9.00,-1.00,+2.00,+15.00,+4.00,-1.00,-1.00,-8.00,-2.00,-1.00,+6.00,+4.00,-1.00,-2.00,-4.00
-4.00,+9.00,-1.00,-4.00,-6.00,+1.00,+3.00,+9.00,-7.00,-8.00,-4.00,-4.00,-3.00,-1.00,-2.00,-3.00
+4.00,+1.00,+2.00,+1.00,+3.00,+0.00,-4.00,-6.00,+5.00,-1.00,-1.00,+4.00,+5.00,+0.00,-1.00,+2.00
+3.00,+1.00,-1.00,+0.00,-1.00,+3.00,+12.00,+16.00,-13.00,-2.00,-4.00,-9.00,-2.00,-2.00,-5.00,-11.00
-3.00,-11.00,-1.00,-4.00,-2.00,+0.00,-2.00,+8.00,+4.00,+0.00,+2.00,+5.00,-3.00,+0.00,+3.00,+1.00
+2.00,-4.00,-4.00,-2.00,-4.00,-2.00,-2.00,-9.00,+5.00,+3.00,+3.00,+17.00,+11.00,+2.00,+3.00,+5.00
-10.00,-1.00,-1.00,-1.00,+1.00,-1.00,-4.00,-9.00,-7.00,-1.00,-4.00,-12.00,-12.00,-15.00,-9.00,-2.00
-7.00,-11.00,-3.00,-3.00,-3.00,-5.00,+1.00,+2.00,-5.00,-2.00,+1.00,+1.00,+3.00,+4.00,+7.00,+8.00
+5.00,+6.00,-1.00,+0.00,-2.00,+0.00,+6.00,+15.00,+17.00,+6.00,+0.00,+3.00,+3.00,+1.00,+3.00,+7.00
-4.00,+10.00,+2.00,+1.00,+1.00,+0.00,+0.00,-3.00,-17.00,-7.00,-2.00,-7.00,-3.00,+3.00,+0.00,-10.00
-3.00,-5.00,+0.00,-2.00,-5.00,-4.00,-6.00,-8.00,-2.00,-1.00,-1.00,+3.00,+6.00,-4.00,-7.00,-9.00
-3.00,-11.00,-5.00,-1.00,+0.00,+3.00,-2.00,+0.00,-12.00,-5.00,-2.00,+0.00,-6.00,+0.00,+4.00,+5.00
+13.00,+17.00,+5.00,-3.00,+1.00,+2.00,-7.00,-1.00,-2.00,-4.00,-5.00,-4.00,-1.00,-3.00,-1.00,-4.00
-5.00,+1.00,+2.00,+1.00,-5.00,-1.00,+15.00,+7.00,+4.00,-1.00,+0.00,+1.00,+2.00,-3.00,+1.00,+8.00
+5.00,-7.00,-3.00,-4.00,-8.00,+1.00,+0.00,+6.00,+0.00,-2.00,-4.00,-4.00,-3.00,+0.00,+0.00,+1.00
-4.00,-9.00,-2.00,+0.00,+6.00,-4.00,+0.00,-1.00,+4.00,+4.00,+1.00,-4.00,-3.00,+4.00,+1.00,-2.00
-2.00,+9.00,+2.00,+1.00,-1.00,-1.00,-5.00,-11.00,-9.00,-3.00,-1.00,+4.00,+0.00,+2.00,+1.00,+2.00
-4.00,-7.00,-3.00,-2.00,+1.00,-2.00,-6.00,-4.00,-1.00,-1.00,+1.00,-1.00,-6.00,-3.00,-4.00,-1.00
+13.00,+8.00,+4.00,+4.00,+0.00,-1.00,+2.00,+35.00,-11.00,-5.00,-5.00,-9.00,-4.00,-1.00,-2.00,-10.00
-12.00,-4.00,-3.00,-5.00,-7.00,-4.00,+3.00,+5.00,+24.00,+7.00,+1.00,+6.00,+5.00,+2.00,+4.00,+13.00
+11.00,-1.00,-2.00,+0.00,-2.00,+0.00,+5.00,+9.00,-2.00,+1.00,-2.00,-1.00,-1.00,-1.00,-3.00,-3.00
-10.00,-7.00,-3.00,-3.00,+0.00,-1.00,-8.00,-28.00,-8.00,-4.00,-3.00,-7.00,-4.00,+0.00,-1.00,+4.00
-4.00,-19.00,-7.00,-3.00,+2.00,+0.00,+2.00,+17.00,+14.00,+5.00,+6.00,+6.00,+7.00,+6.00,+6.00,+9.00
+25.00,+38.00,+14.00,+6.00,+2.00,+5.00,+0.00,+9.00,-11.00,-4.00,-1.00,-3.00,-2.00,-12.00,-11.00,-11.00
-9.00,-5.00,-1.00,-2.00,-8.00,+0.00,+2.00,+28.00,+5.00,-1.00,+3.00,+7.00,+4.00,+1.00,+2.00,+8.00
+3.00,+9.00,+1.00,+0.00,-1.00,+1.00,+1.00,+10.00,-1.00,-2.00,-5.00,-8.00,-11.00,-2.00,-1.00,-10.00
-12.00,-2.00,-1.00,+3.00,+12.00,+6.00,-2.00,-14.00,-17.00,-7.00,-6.00,-14.00,-8.00,+6.00,-1.00,-12.00
-9.00,-12.00,-7.00,-6.00,-3.00,-3.00,-1.00,-2.00,+20.00,+3.00,+3.00,+2.00,-2.00,+1.00,+3.00,+6.00
-9.00,-8.00,-3.00,-3.00,-10.00,-7.00,-3.00,-12.00,+1.00,+0.00,-1.00,-6.00,-5.00,-3.00,-3.00,+4.00
+11.00,+2.00,+2.00,+1.00,+2.00,+4.00,+3.00,+8.00,-11.00,+1.00,+0.00,+8.00,+4.00,-1.00,-1.00,-6.00
-4.00,+0.00,-1.00,-3.00,-2.00,-2.00,-3.00,-16.00,+20.00,-2.00,-4.00,-10.00,-4.00,-4.00,-4.00,+2.00
+8.00,+3.00,-1.00,+1.00,+7.00,+2.00,+6.00,+10.00,-6.00,+3.00,+3.00,-1.00,+2.00,+7.00,+1.00,-10.00
-8.00,-4.00,-1.00,+1.00,-4.00,-1.00,-3.00,-6.00,-14.00,-5.00,-4.00,-1.00,+0.00,-2.00,-7.00,-15.00
+4.00,-6.00,-2.00,+2.00,+9.00,+1.00,+1.00,+4.00,+6.00,+4.00,+0.00,-4.00,+0.00,+0.00,+1.00,+11.00
-1.00,+2.00,-1.00,-1.00,+0.00,-1.00,-3.00,-5.00,-12.00,-1.00,+0.00,+10.00,+7.00,+2.00,-1.00,+1.00
-1.00,-2.00,+0.00,-1.00,-2.00,-2.00,-2.00,-4.00,+7.00,+3.00,+1.00,+3.00,+5.00,-4.00,-5.00,+5.00
-8.00,-12.00,-4.00,-4.00,-6.00,-2.00,-7.00,-10.00,+4.00,+0.00,-1.00,-1.00,-2.00,+1.00,+4.00,+27.00
+8.00,+3.00,+4.00,+4.00,+7.00,+2.00,+0.00,-1.00,-17.00,-3.00,-6.00,-2.00,+2.00,-2.00,-8.00,-52.00
-15.00,+2.00,-4.00,-4.00,-5.00,-3.00,+0.00,-3.00,-16.00,-6.00,+5.00,+5.00,+0.00,-1.00,-1.00,+2.00
-2.00,+6.00,+0.00,+1.00,-1.00,+1.00,+1.00,+10.00,+6.00,-2.00,+1.00,+5.00,-4.00,+0.00,+4.00,+2.00
-6.00,-5.00,-1.00,+3.00,+12.00,+0.00,+1.00,-8.00,-5.00,+2.00,-1.00,-5.00,-4.00,-4.00,+1.00,+6.00
-8.00,-9.00,-5.00,-6.00,-4.00,-3.00,-3.00,+4.00,+4.00,-4.00,-5.00,-18.00,-11.00,+6.00,+6.00,+17.00
-5.00,-15.00,-3.00,-2.00,-9.00,-3.00,-2.00,-8.00,+2.00,+0.00,-3.00,-3.00,+1.00,-2.00,-2.00,-2.00
+10.00,+10.00,+1.00,+0.00,+3.00,+1.00,+2.00,+22.00,-1.00,+2.00,+1.00,+12.00,+18.00,-3.00,-4.00,-8.00
-1.00,+4.00,+1.00,+2.00,+1.00,+2.00,+5.00,+10.00,+0.00,+3.00,-1.00,-16.00,-17.00,+0.00,-2.00,-10.00
+2.00,+2.00,-3.00,-4.00,-10.00,-3.00,+0.00,+1.00,+7.00,+1.00,+0.00,+2.00,-1.00,+0.00,-4.00,+11.00
+23.00,+13.00,+6.00,+1.00,+0.00,+2.00,+6.00,+19.00,+5.00,+2.00,-2.00,-1.00,+3.00,-4.00,-1.00,-4.00
-12.00,-16.00,-5.00,+0.00,+2.00,+2.00,-10.00,+0.00,-17.00,-8.00,-7.00,-7.00,-1.00,-3.00,-2.00,-2.00
-4.00,+0.00,-1.00,-2.00,-7.00,-2.00,+3.00,-13.00,+4.00,+1.00,+0.00,+2.00,-2.00,-6.00,-5.00,-9.00
-1.00,+2.00,+0.00,-1.00,+4.00,-2.00,-7.00,-5.00,+4.00,+1.00,+0.00,-2.00,+2.00,+0.00,-1.00,-4.00
-2.00,-2.00,-1.00,+1.00,-1.00,-3.00,-1.00,-5.00,+3.00,-1.00,+0.00,+0.00,-1.00,-3.00,-6.00,+5.00
+1.00,-14.00,+0.00,-1.00,-1.00,-1.00,-1.00,-2.00,+3.00,-1.00,-4.00,+1.00,-4.00,-3.00,+0.00,-1.00
+6.00,+20.00,+6.00,+5.00,+8.00,+7.00,+3.00,+2.00,-18.00,-7.00,+2.00,+2.00,+5.00,+2.00,+4.00,-1.00
-2.00,-9.00,-4.00,-3.00,-4.00,-3.00,-2.00,-4.00,+5.00,+0.00,+0.00,-9.00,-6.00,-5.00,-2.00,-1.00
+6.00,+3.00,-2.00,+3.00,+4.00,-2.00,-7.00,-15.00,-5.00,+1.00,-1.00,+2.00,+1.00,+1.00,-2.00,-15.00
+3.00,+6.00,+2.00,-1.00,-1.00,+1.00,+4.00,-4.00,+9.00,+3.00,-2.00,-10.00,-7.00,-3.00,-2.00,+7.00
-11.00,-6.00,-4.00,-4.00,-5.00,-8.00,-3.00,-6.00,-9.00,-3.00,-1.00,+5.00,+5.00,+0.00,-3.00,-10.00
-1.00,-1.00,+0.00,-1.00,-7.00,-4.00,+2.00,+7.00,+11.00,+5.00,-2.00,-4.00,-6.00,-3.00,+0.00,+3.00
-7.00,-12.00,-5.00,-2.00,+2.00,-2.00,-11.00,-23.00,+6.00,-12.00,-6.00,-7.00,-3.00,+6.00,+7.00,+12.00
+5.00,+12.00,+4.00,+1.00,-2.00,-3.00,-7.00,-21.00,-8.00,+0.00,-2.00,-3.00,-1.00,-2.00,-8.00,-20.00
+4.00,+1.00,+3.00,+0.00,-2.00,-2.00,+4.00,+12.00,+3.00,-1.00,+0.00,+2.00,-5.00,+1.00,-1.00,+7.00
-8.00,+2.00,-3.00,-3.00,-4.00,-2.00,-4.00,+2.00,-4.00,+2.00,+4.00,+6.00,+4.00,-1.00,+2.00,+1.00
+1.00,+8.00,+4.00,+4.00,+5.00,+1.00,+6.00,+3.00,-6.00,+1.00,-3.00,-5.00,-6.00,-4.00,-6.00,-12.00
-12.00,-12.00,-4.00,-5.00,-3.00,+2.00,+0.00,-5.00,-7.00,-7.00,-3.00,-2.00,-2.00,+0.00,+2.00,+9.00
+8.00,+6.00,-1.00,-5.00,-7.00,-5.00,-3.00,-1.00,+3.00,+0.00,+0.00,-2.00,+3.00,+1.00,+5.00,+2.00
+3.00,-4.00,+1.00,+7.00,+15.00,+3.00,-12.00,-8.00,-5.00,-2.00,-3.00,+8.00,+1.00,-7.00,-9.00,-6.00
+5.00,+0.00,-3.00,-4.00,-10.00,-1.00,+10.00,+9.00,-16.00,-7.00,-3.00,-9.00,-4.00,+4.00,+3.00,-9.00
-4.00,-2.00,-1.00,+3.00,+10.00,+1.00,-3.00,-20.00,+1.00,-3.00,+1.00,-2.00,+2.00,+6.00,+7.00,+15.00
+5.00,-4.00,-1.00,-3.00,-8.00,-3.00,+2.00,-1.00,+9.00,+5.00,-1.00,+2.00,-3.00,-4.00,-8.00,-20.00
-11.00,-13.00,-4.00,-3.00,+1.00,+0.00,+1.00,+6.00,-17.00,-13.00,-5.00,-2.00,-4.00,-1.00,+2.00,+1.00
-6.00,+4.00,+0.00,+0.00,+8.00,+2.00,-3.00,-11.00,+4.00,+2.00,+0.00,+7.00,+5.00,-3.00,+0.00,+5.00
+0.00,-5.00,-4.00,-2.00,-8.00,-5.00,+1.00,+3.00,+0.00,+1.00,-1.00,+1.00,+2.00,-4.00,-5.00,-1.00
-6.00,-7.00,-1.00,+0.00,+5.00,+2.00,-5.00,+0.00,-4.00,-5.00,-1.00,-3.00,+0.00,+2.00,+3.00,-3.00
+9.00,+10.00,+0.00,-3.00,-13.00,-1.00,+8.00,+8.00,-8.00,-2.00,-5.00,-7.00,-5.00,+1.00,-1.00,-5.00
-1.00,-1.00,+2.00,+1.00,-2.00,-2.00,-3.00,+1.00,-9.00,-1.00,-2.00,+4.00,+0.00,-5.00,-4.00,-5.00
-7.00,-7.00,-3.00,-3.00,-4.00,-4.00,-1.00,-14.00,+7.00,+7.00,+5.00,+6.00,+2.00,+9.00,+4.00,+4.00
-14.00,-8.00,-5.00,-5.00,-7.00,-3.00,-1.00,+18.00,+13.00,-8.00,-4.00,+5.00,+4.00,-1.00,-1.00,+0.00
-6.00,-2.00,-1.00,-1.00,+6.00,+2.00,-4.00,-2.00,-3.00,+0.00,+1.00,-1.00,-1.00,-2.00,-3.00,-3.00
-4.00,-5.00,-1.00,-3.00,-5.00,-2.00,+2.00,+3.00,-8.00,+2.00,+2.00,+4.00,+2.00,-2.00,-2.00,-2.00
+0.00,+3.00,+2.00,+0.00,-7.00,-4.00,+3.00,+9.00,-11.00,-5.00,-3.00,+0.00,-7.00,-3.00,-4.00,-10.00
-4.00,-6.00,-3.00,+1.00,-6.00,+4.00,-2.00,-14.00,-12.00,-5.00,-6.00,-12.00,-3.00,-2.00,+0.00,-5.00
+6.00,-1.00,+3.00,+2.00,+15.00,+5.00,+5.00,+4.00,-4.00,-7.00,-1.00,+0.00,+1.00,+1.00,-1.00,+1.00
+2.00,+10.00,+0.00,+0.00,-3.00,-4.00,-11.00,+1.00,+13.00,+4.00,-1.00,-4.00,+1.00,+0.00,+6.00,+8.00
-9.00,+2.00,+1.00,-2.00,-2.00,+0.00,-4.00,-9.00,+5.00,+3.00,+3.00,+10.00,+4.00,-2.00,-4.00,-3.00
+0.00,-5.00,-3.00,+1.00,+6.00,-1.00,-4.00,-8.00,-2.00,+0.00,-4.00,-16.00,-10.00,-1.00,+1.00,+7.00
-2.00,-1.00,-1.00,-1.00,-5.00,-4.00,+4.00,+5.00,+4.00,+0.00,-1.00,-2.00,-1.00,-2.00,-1.00,+6.00
-6.00,-6.00,-1.00,-1.00,+0.00,+0.00,-2.00,+1.00,-8.00,-3.00,+0.00,+4.00,+0.00,+1.00,-8.00,-14.00
+1.00,+5.00,+0.00,-2.00,-3.00,+1.00,-1.00,+1.00,-12.00,-4.00,-3.00,-8.00,-3.00,-5.00,-6.00,-21.00
+2.00,+0.00,+2.00,+2.00,+12.00,+3.00,+1.00,-1.00,-1.00,-2.00,+0.00,+5.00,+3.00,+0.00,+2.00,+15.00
+4.00,+7.00,+1.00,-2.00,-10.00,-1.00,-3.00,-6.00,+5.00,+2.00,+1.00,+2.00,+4.00,+2.00,+3.00,+10.00
-8.00,-12.00,+0.00,-1.00,-1.00,-1.00,+0.00,-7.00,+4.00,+9.00,+4.00,+2.00,-2.00,+0.00,-3.00,-7.00
+8.00,+5.00,-3.00,-1.00,+2.00,+4.00,-2.00,+2.00,+1.00,+0.00,+0.00,+6.00,+0.00,-2.00,+1.00,+2.00
-6.00,-10.00,-4.00,-3.00,+1.00,-4.00,+0.00,+1.00,-4.00,-2.00,-2.00,-11.00,-2.00,-1.00,-1.00,-8.00
-3.00,+3.00,+0.00,-2.00,-23.00,-9.00,-3.00,-5.00,+5.00,+3.00,+3.00,+2.00,-6.00,-9.00,-9.00,-2.00
+0.00,+0.00,+1.00,+3.00,+10.00,+7.00,+9.00,+11.00,+10.00,-2.00,+0.00,+0.00,-1.00,+9.00,+9.00,+20.00
-5.00,-6.00,-1.00,+5.00,+17.00,-1.00,-10.00,-12.00,-6.00,-3.00,-4.00,-5.00,-3.00,-4.00,-5.00,-15.00
+12.00,+3.00,+1.00,-2.00,-5.00,-1.00,+3.00,-1.00,+6.00,+7.00,+3.00,-3.00,-5.00,-4.00,-1.00,+0.00
-3.00,-5.00,-1.00,+1.00,+4.00,+3.00,-3.00,-6.00,-2.00,+1.00,+3.00,+7.00,+2.00,-1.00,+2.00,+2.00
-1.00,-1.00,-5.00,-6.00,-14.00,-7.00,-3.00,-5.00,-1.00,-4.00,-4.00,+0.00,+3.00,-2.00,-3.00,-6.00
-4.00,-4.00,-3.00,-1.00,-2.00,-4.00,-5.00,-1.00,-4.00,-1.00,-2.00,-8.00,-6.00,-2.00,-5.00,-1.00
-7.00,-1.00,-1.00,+0.00,+2.00,-2.00,-7.00,-9.00,+2.00,-2.00,-1.00,+5.00,+2.00,-3.00,-4.00,+0.00
-5.00,-3.00,-1.00,-4.00,-13.00,-4.00,+3.00,-4.00,+2.00,-2.00,-3.00,-3.00,+4.00,+2.00,+2.00,-4.00
+1.00,+2.00,+1.00,+2.00,+17.00,+8.00,+1.00,+4.00,-7.00,-4.00,+0.00,-2.00,-3.00,-2.00,-2.00,+3.00
-4.00,-3.00,-4.00,-5.00,-3.00,+0.00,-3.00,-8.00,+3.00,+1.00,+2.00,-4.00,-3.00,+0.00,+2.00,+11.00
-4.00,-2.00,+0.00,+3.00,+2.00,+2.00,+1.00,-1.00,-7.00,-1.00,-1.00,+6.00,+4.00,-1.00,-4.00,-9.00
+1.00,-3.00,-3.00,+1.00,+2.00,+1.00,+1.00,+4.00,+0.00,-2.00,+1.00,+7.00,+3.00,+1.00,-2.00,-7.00
+0.00,+2.00,-1.00,-4.00,-11.00,-5.00,-1.00,-4.00,-5.00,-4.00,-3.00,-13.00,-9.00,-5.00,+1.00,-1.00
+7.00,-1.00,+1.00,+4.00,+2.00,+1.00,+0.00,-15.00,+13.00,-3.00,-5.00,-5.00,-4.00,+0.00,+1.00,+8.00
-2.00,+2.00,+0.00,-2.00,+3.00,+0.00,-1.00,-3.00,-10.00,+0.00,+2.00,+5.00,+7.00,-8.00,-6.00,-12.00
-2.00,-6.00,-4.00,-6.00,-1.00,-1.00,+6.00,+4.00,-1.00,-3.00,-5.00,-13.00,-8.00,+7.00,+4.00,-1.00
+2.00,+2.00,+0.00,-2.00,-12.00,-6.00,+0.00,+15.00,+2.00,+1.00,-5.00,-13.00,-9.00,-7.00,-3.00,+4.00
-5.00,-5.00,+0.00,-1.00,+2.00,-2.00,+1.00,+8.00,-7.00,-3.00,-3.00,-4.00,-5.00,-3.00,-4.00,-13.00
+2.00,-2.00,-2.00,+1.00,-3.00,-4.00,+0.00,+0.00,+7.00,-2.00,+1.00,+4.00,+3.00,+5.00,+5.00,+11.00
+2.00,+12.00,-1.00,-3.00,-5.00,-2.00,-6.00,-13.00,-2.00,-2.00,+1.00,+8.00,+3.00,-10.00,-7.00,-7.00
-12.00,-4.00,-2.00,+0.00,+8.00,+7.00,+4.00,-11.00,-6.00,-2.00,-1.00,+4.00,+1.00,-2.00,-1.00,-1.00
+1.00,-3.00,+0.00,-3.00,-5.00,-5.00,-1.00,+2.00,-4.00,-3.00,-6.00,-9.00,+1.00,+0.00,+0.00,-1.00
+1.00,-2.00,-1.00,+0.00,+1.00,-2.00,-3.00,+4.00,-4.00,+0.00,+0.00,+5.00,-1.00,-1.00,-3.00,-5.00
-2.00,-4.00,+0.00,-1.00,-8.00,-2.00,+3.00,+3.00,+5.00,+3.00,+1.00,-11.00,-8.00,-3.00,+3.00,+5.00
+20.00,+3.00,+1.00,+3.00,+8.00,-5.00,-2.00,-9.00,+5.00,+2.00,+4.00,+6.00,+4.00,+5.00,+4.00,+7.00
-14.00,-2.00,+1.00,+0.00,-4.00,+0.00,+8.00,+13.00,-2.00,-2.00,-2.00,-3.00,-1.00,-7.00,-1.00,-10.00
-9.00,-6.00,-1.00,-3.00,-4.00,+2.00,-3.00,-4.00,-4.00,-6.00,-4.00,-2.00,-1.00,-1.00,-5.00,-9.00
+6.00,+2.00,+1.00,+1.00,-1.00,-7.00,-10.00,-5.00,-3.00,-4.00,-4.00,+0.00,-7.00,+2.00,-4.00,+4.00
+2.00,+3.00,+2.00,+0.00,+1.00,+3.00,+8.00,-3.00,+2.00,+3.00,+3.00,+6.00,+2.00,-3.00,-4.00,-19.00
-1.00,-2.00,-2.00,-3.00,-8.00,-1.00,-2.00,+3.00,-1.00,+0.00,+0.00,-5.00,-3.00,-3.00,-1.00,+11.00
+4.00,+1.00,-2.00,+2.00,+10.00,+6.00,-1.00,+1.00,+8.00,+6.00,+2.00,+4.00,+6.00,+2.00,-1.00,-11.00
-9.00,+1.00,-2.00,-2.00,-11.00,+1.00,-4.00,-18.00,-10.00,-10.00,-6.00,-12.00,-7.00,-2.00,-3.00,-6.00
+11.00,+2.00,+0.00,+7.00,+14.00,+3.00,+3.00,+15.00,-11.00,+1.00,+0.00,+4.00,+1.00,+2.00,+2.00,+3.00
+15.00,+1.00,+0.00,-1.00,-5.00,-1.00,+0.00,+9.00,+10.00,-2.00,+0.00,-1.00,-2.00,+0.00,-3.00,+9.00
-1.00,+3.00,+0.00,-2.00,+2.00,+3.00,-1.00,-3.00,+6.00,+0.00,+0.00,+4.00,-2.00,-3.00,-2.00,-3.00
+1.00,+1.00,+0.00,+1.00,+6.00,+1.00,-4.00,-1.00,+2.00,+3.00,+2.00,+1.00,+4.00,+1.00,+0.00,+7.00
-16.00,-11.00,-2.00,-3.00,-7.00,-4.00,-7.00,-16.00,+15.00,+5.00,+0.00,+2.00,-2.00,-3.00,+1.00,+5.00
+5.00,-2.00,-3.00,-3.00,+0.00,+0.00,-2.00,-6.00,-3.00,+0.00,-1.00,+2.00,+3.00,+8.00,+0.00,-1.00
+10.00,+5.00,-3.00,-2.00,-7.00,-6.00,+1.00,+4.00,-8.00,-3.00,+1.00,+5.00,+3.00,+14.00,+6.00,+10.00
-11.00,-5.00,-2.00,-2.00,-2.00,-2.00,+2.00,+0.00,-5.00,-5.00,-6.00,-12.00,-7.00,-9.00,-1.00,-16.00
+2.00,+2.00,+1.00,+0.00,+7.00,+3.00,-3.00,+8.00,-3.00,-5.00,-2.00,-4.00,-1.00,-9.00,-7.00,+4.00
-13.00,-9.00,-5.00,-5.00,-6.00,-1.00,+10.00,-6.00,-7.00,-2.00,-2.00,+3.00,+3.00,+1.00,+3.00,-9.00
+11.00,+1.00,+2.00,+0.00,-5.00,-6.00,-6.00,-1.00,+1.00,-1.00,-3.00,-11.00,-4.00,+4.00,+6.00,+11.00
-3.00,+2.00,+2.00,+3.00,+12.00,-1.00,+1.00,+4.00,-6.00,-1.00,+0.00,-3.00,-12.00,-8.00,-6.00,-2.00
-1.00,+0.00,+0.00,-1.00,-5.00,-1.00,-2.00,-1.00,-2.00,+1.00,+1.00,+7.00,+5.00,+0.00,-4.00,-10.00
-11.00,-7.00,-5.00,-6.00,-9.00,-3.00,-5.00,+2.00,+4.00,+0.00,-3.00,-10.00,-6.00,-10.00,-3.00,+8.00
-3.00,-2.00,-2.00,-1.00,-2.00,-3.00,+0.00,+15.00,-3.00,+0.00,+0.00,+2.00,+3.00,-5.00,-3.00,+16.00
+11.00,+0.00,+0.00,+0.00,+5.00,+4.00,+8.00,+9.00,-1.00,+1.00,-3.00,-13.00,-9.00,-3.00,-1.00,-19.00
-7.00,-4.00,-4.00,-2.00,-2.00,-6.00,-8.00,-11.00,-12.00,-9.00,-4.00,+1.00,+1.00,+0.00,+1.00,+3.00
-5.00,-1.00,+0.00,-1.00,-5.00,-1.00,-4.00,-7.00,+20.00,+6.00,-1.00,-11.00,-7.00,+0.00,-1.00,+2.00
-16.00,-8.00,-4.00,-3.00,-2.00,-4.00,-1.00,-14.00,+0.00,+3.00,+0.00,-6.00,-7.00,-4.00,-2.00,+3.00
-5.00,+0.00,+0.00,+1.00,+4.00,+5.00,+1.00,+8.00,+8.00,+3.00,+3.00,+9.00,+9.00,+4.00,+2.00,+13.00
+0.00,+0.00,-2.00,-3.00,-10.00,-3.00,+1.00,-2.00,-14.00,-5.00,-1.00,-4.00,-2.00,+6.00,-1.00,-15.00
+8.00,+8.00,+0.00,+2.00,+10.00,+4.00,-4.00,-3.00,+1.00,+0.00,+2.00,+7.00,+4.00,+3.00,+4.00,+15.00
+0.00,+0.00,+0.00,-3.00,-3.00,-3.00,-1.00,-1.00,-8.00,-3.00,+1.00,+5.00,+1.00,-3.00,-4.00,-16.00
-8.00,-10.00,-3.00,+0.00,-3.00,-3.00,-2.00,-8.00,+5.00,+3.00,-3.00,-2.00,-3.00,+2.00,+4.00,+1.00
+4.00,-2.00,-4.00,-3.00,-4.00,-2.00,-6.00,-12.00,+1.00,+0.00,-3.00,-5.00,-1.00,-6.00,-6.00,-10.00
+5.00,+11.00,+1.00,+2.00,-1.00,+1.00,+8.00,+2.00,-10.00,-5.00,-3.00,+8.00,+10.00,+4.00,+6.00,+10.00
-1.00,-1.00,+0.00,+0.00,-4.00,+0.00,-2.00,-6.00,-4.00,-4.00,+0.00,-12.00,-12.00,-8.00,-2.00,-5.00
-13.00,-8.00,-4.00,-2.00,+1.00,-2.00,-4.00,-5.00,+3.00,-3.00,-2.00,-8.00,-7.00,+3.00,+1.00,+5.00
+17.00,-3.00,+0.00,+1.00,+0.00,-2.00,-6.00,-6.00,+1.00,-2.00,+1.00,+5.00,+5.00,+1.00,-1.00,-3.00
-6.00,-3.00,-4.00,-1.00,-2.00,-3.00,-4.00,+5.00,-10.00,+0.00,+1.00,+8.00,+2.00,-4.00,+2.00,+4.00
+13.00,+6.00,+0.00,-2.00,+2.00,+4.00,+2.00,+1.00,+0.00,-1.00,-5.00,-11.00,-3.00,-2.00,-3.00,+3.00
-10.00,-10.00,-1.00,-2.00,-2.00,+2.00,+3.00,+4.00,+7.00,-2.00,-1.00,+5.00,+4.00,+2.00,+0.00,+4.00
-8.00,-6.00,-4.00,-2.00,-12.00,-4.00,+1.00,+4.00,+7.00,+7.00,+3.00,+0.00,+3.00,+1.00,+3.00,+10.00
-7.00,-1.00,-1.00,+2.00,+11.00,+5.00,-10.00,-62.00,-9.00,-3.00,-1.00,-5.00,-9.00,-2.00,-7.00,-17.00
+1.00,-2.00,+0.00,+2.00,-10.00,-10.00,-6.00,+0.00,-2.00,-1.00,-1.00,+2.00,+0.00,-1.00,+3.00,-7.00
+1.00,+0.00,-1.00,+1.00,+9.00,+5.00,+0.00,-1.00,-2.00,-1.00,+2.00,+10.00,+9.00,+1.00,-3.00,+6.00
-4.00,+1.00,-2.00,-3.00,-5.00,-1.00,+2.00,+1.00,+1.00,-1.00,-2.00,-8.00,-9.00,+2.00,+1.00,+6.00
-5.00,-5.00,-1.00,-2.00,-1.00,-4.00,-3.00,-5.00,+2.00,+0.00,+2.00,+7.00,+5.00,+0.00,-5.00,-9.00
+1.00,+8.00,+2.00,-2.00,-6.00,+1.00,+0.00,-1.00,+3.00,+1.00,-2.00,-7.00,-5.00,+0.00,-1.00,+1.00
-4.00,-8.00,-4.00,-2.00,-4.00,-4.00,-4.00,-11.00,-19.00,+2.00,+1.00,+2.00,+3.00,+0.00,-1.00,-4.00
-7.00,+0.00,+1.00,+2.00,+4.00,+0.00,-5.00,+1.00,+10.00,-6.00,-5.00,-3.00,-4.00,-5.00,-6.00,-4.00
+14.00,+9.00,+4.00,+3.00,-2.00,+1.00,+15.00,+20.00,+6.00,+4.00,+3.00,-1.00,-1.00,-2.00,+0.00,+8.00
-3.00,-5.00,-2.00,-1.00,+4.00,+1.00,-1.00,+0.00,+1.00,-2.00,-2.00,+7.00,+7.00,-3.00,-4.00,-5.00
+12.00,+9.00,+1.00,-3.00,-4.00,-2.00,+2.00,+13.00,-18.00,+2.00,+2.00,-4.00,-2.00,-1.00,-4.00,-13.00
-5.00,+1.00,+0.00,+1.00,+6.00,+4.00,+7.00,+5.00,+7.00,+3.00,+1.00,-3.00,+0.00,+6.00,+2.00,-2.00
-1.00,-1.00,-3.00,-4.00,-4.00,-4.00,-6.00,+4.00,+3.00,+0.00,-1.00,+4.00,-3.00,-3.00,-2.00,-2.00
-4.00,-7.00,-2.00,-5.00,-11.00,-6.00,+0.00,+0.00,+3.00,+1.00,+1.00,+10.00,+5.00,-3.00,-3.00,+1.00
+8.00,+8.00,+4.00,+0.00,-3.00,+4.00,-2.00,-2.00,-10.00,-1.00,-3.00,-2.00,+2.00,+2.00,-3.00,-12.00
-12.00,-7.00,-1.00,+6.00,+14.00,-2.00,-1.00,-2.00,-9.00,-5.00,-2.00,-4.00,-1.00,-7.00,+1.00,+3.00
+0.00,-3.00,-1.00,-2.00,+0.00,-4.00,-4.00,-1.00,+5.00,-9.00,-5.00,-13.00,-6.00,-4.00,-2.00,-3.00
-4.00,-12.00,-2.00,+3.00,-3.00,-3.00,+2.00,+4.00,-4.00,+0.00,-2.00,-10.00,-11.00,+0.00,-6.00,+0.00
+1.00,+3.00,+1.00,-1.00,+3.00,+2.00,-4.00,-5.00,+16.00,+6.00,+2.00,+7.00,+4.00,-3.00,-5.00,+3.00
+8.00,+18.00,+4.00,-2.00,-4.00,-2.00,+2.00,+6.00,-2.00,+0.00,-2.00,-1.00,-5.00,-2.00,-3.00,-3.00
-7.00,-6.00,-2.00,-3.00,-7.00,-1.00,-3.00,+1.00,-10.00,-5.00,+0.00,+5.00,+8.00,+5.00,+0.00,-8.00
-9.00,-5.00,-2.00,+0.00,+6.00,+3.00,+0.00,-14.00,-5.00,-8.00,-4.00,-4.00,-6.00,-5.00,-2.00,+7.00
+6.00,-6.00,-3.00,-1.00,-2.00,-5.00,-4.00,-5.00,+22.00,+4.00,+0.00,-2.00,+1.00,+7.00,+8.00,+23.00
-5.00,+3.00,+0.00,-2.00,-3.00,+4.00,+3.00,+15.00,-5.00,-3.00,-1.00,+0.00,+0.00,-4.00,-6.00,-18.00
-3.00,-3.00,+0.00,+2.00,+7.00,+1.00,-5.00,-2.00,-8.00,+0.00,+1.00,+0.00,-1.00,-2.00,-6.00,-5.00
+3.00,+0.00,-1.00,-2.00,-2.00,+2.00,+1.00,-4.00,-6.00,-3.00,+0.00,-1.00,-1.00,-3.00,-1.00,-7.00
-4.00,-7.00,-4.00,-2.00,-1.00,-2.00,-1.00,-7.00,-2.00,-6.00,-4.00,+2.00,-2.00,-5.00,-5.00,-11.00
+7.00,-5.00,-4.00,-5.00,-9.00,-5.00,-3.00,-2.00,-6.00,-3.00,+1.00,+12.00,+14.00,+2.00,+1.00,+5.00
+4.00,+0.00,-3.00,-2.00,+1.00,+2.00,+5.00,+1.00,+2.00,-2.00,-3.00,-5.00,-10.00,-11.00,-4.00,+4.00
-3.00,+1.00,+2.00,+0.00,+4.00,+4.00,+1.00,+42.00,+1.00,+2.00,+4.00,+5.00,+0.00,+7.00,+7.00,+3.00
+9.00,-2.00,-3.00,+0.00,-2.00,-1.00,+0.00,-3.00,+3.00,-5.00,-5.00,-6.00,-1.00,-2.00,+0.00,+4.00
+3.00,+4.00,+0.00,-2.00,-7.00,-6.00,-6.00,-4.00,+1.00,+1.00,+1.00,-1.00,+1.00,+0.00,+0.00,+4.00
+1.00,-7.00,-1.00,+3.00,+8.00,+1.00,+2.00,+18.00,+1.00,+3.00,-1.00,+0.00,+1.00,-3.00,-5.00,-6.00
-3.00,+4.00,-2.00,-1.00,+1.00,+3.00,-4.00,-16.00,-13.00,-8.00,-3.00,-5.00,-3.00,-2.00,+0.00,-1.00
-10.00,+3.00,+0.00,-2.00,-9.00,-3.00,+8.00,+5.00,+9.00,-2.00,+1.00,+2.00,+3.00,+1.00,+0.00,-2.00
-14.00,-6.00,-3.00,+1.00,+12.00,+1.00,-2.00,-11.00,-7.00,+1.00,+2.00,+1.00,-1.00,+0.00,+0.00,-1.00
+15.00,+6.00,+3.00,+1.00,-4.00,+0.00,+1.00,+2.00,-3.00,-3.00,-3.00,-3.00,-2.00,-2.00,+3.00,+10.00
-3.00,-8.00,-4.00,-2.00,+1.00,+2.00,-1.00,-11.00,+5.00,+2.00,+0.00,-4.00,-3.00,-1.00,-2.00,-4.00
-2.00,+7.00,+1.00,+0.00,-5.00,-3.00,-3.00,+4.00,-11.00,-4.00,+3.00,+7.00,+4.00,+1.00,-1.00,+1.00
-7.00,-12.00,-3.00,-1.00,-6.00,-4.00,-4.00,-10.00,+2.00,+0.00,-5.00,-10.00,-11.00,-1.00,-2.00,-5.00
+7.00,+4.00,+0.00,+0.00,-5.00,-2.00,+4.00,+13.00,-1.00,-1.00,-1.00,-2.00,-2.00,+1.00,+1.00,+4.00
-4.00,-2.00,+0.00,+4.00,+8.00,-1.00,-2.00,-6.00,+1.00,+0.00,-2.00,-2.00,+1.00,-1.00,-4.00,-10.00
-12.00,-11.00,-2.00,-1.00,-2.00,+2.00,-2.00,+7.00,-7.00,-1.00,+1.00,+10.00,+5.00,-4.00,+0.00,-7.00
+10.00,+6.00,+0.00,-4.00,-10.00,-3.00,+8.00,+6.00,+4.00,+0.00,-4.00,-17.00,-9.00,+2.00,+1.00,+11.00
-8.00,-5.00,-5.00,-4.00,-2.00,+0.00,-5.00,-10.00,-15.00,-2.00,+0.00,-4.00,-7.00,+5.00,+5.00,-4.00
-10.00,-4.00,-3.00,+0.00,+5.00,-2.00,-6.00,-14.00,+19.00,+4.00,+0.00,+0.00,+3.00,-2.00,+1.00,+1.00
+1.00,-6.00,-4.00,-1.00,+0.00,-2.00,+8.00,+11.00,+4.00,+0.00,+1.00,+11.00,+3.00,-1.00,-4.00,-2.00
+3.00,-1.00,+1.00,+0.00,+8.00,+6.00,+1.00,+24.00,-1.00,+4.00,-3.00,-9.00,-8.00,-5.00,-2.00,-1.00
-7.00,-3.00,-1.00,-5.00,-15.00,-6.00,+3.00,+8.00,-6.00,-4.00,+1.00,+7.00,+10.00,+0.00,-1.00,-1.00
-6.00,-1.00,+1.00,-2.00,+1.00,+2.00,+3.00,+3.00,+1.00,-2.00,-4.00,-12.00,-5.00,-2.00,-3.00,-4.00
-4.00,-4.00,-1.00,+0.00,+5.00,-1.00,-10.00,-11.00,-5.00,-4.00,-4.00,-6.00,-6.00,-4.00,+2.00,+11.00
-6.00,-6.00,-5.00,-6.00,-8.00,-3.00,-6.00,-7.00,+2.00,-4.00,-4.00,+1.00,+1.00,-2.00,-3.00,-4.00
-8.00,-7.00,-1.00,+1.00,+2.00,+0.00,+2.00,+0.00,-2.00,-7.00,-5.00,-4.00,-3.00,-2.00,-5.00,-12.00
+20.00,+20.00,+3.00,+1.00,-7.00,+0.00,+6.00,+28.00,-3.00,+1.00,+0.00,+10.00,+3.00,-1.00,+1.00,-2.00
+4.00,+1.00,+3.00,-1.00,-6.00,-1.00,-2.00,-15.00,-11.00,-6.00,-4.00,-3.00,-3.00,-2.00,-5.00,-10.00
-5.00,-3.00,-2.00,+1.00,+8.00,+3.00,+1.00,+0.00,-1.00,+2.00,+1.00,+12.00,+1.00,-5.00,-1.00,+5.00
+0.00,-1.00,-1.00,-6.00,-22.00,-5.00,-5.00,+1.00,+9.00,+1.00,-5.00,-18.00,-5.00,+7.00,+4.00,+10.00
+2.00,+3.00,+1.00,+6.00,+18.00,+1.00,-2.00,-11.00,-3.00,-1.00,+0.00,+0.00,-3.00,+2.00,+5.00,+9.00
+0.00,+1.00,+1.00,+1.00,+1.00,+0.00,+2.00,+7.00,-7.00,+0.00,-1.00,-1.00,+7.00,-1.00,-3.00,-16.00
+3.00,-8.00,-3.00,-3.00,-3.00,+0.00,+5.00,-3.00,+8.00,+2.00,+3.00,-5.00,-12.00,+5.00,+4.00,+7.00
+10.00,+12.00,+3.00,+2.00,+9.00,+2.00,-12.00,-8.00,-2.00,+0.00,+1.00,+0.00,+1.00,-5.00,-3.00,-7.00
-6.00,-6.00,-3.00,-4.00,-4.00,+1.00,+9.00,-3.00,-9.00,-5.00,-3.00,-2.00,-2.00,-7.00,-9.00,-2.00
+10.00,+5.00,-1.00,+0.00,-5.00,-6.00,-1.00,+8.00,-2.00,-3.00,-1.00,-5.00,-4.00,+1.00,+5.00,+7.00
-16.00,-8.00,-2.00,-2.00,+1.00,+3.00,-3.00,-19.00,-6.00,-4.00,-1.00,+13.00,+12.00,+1.00,-2.00,-7.00
+1.00,-3.00,-1.00,-1.00,-1.00,+0.00,+3.00,+2.00,+8.00,+7.00,+2.00,+2.00,-1.00,+1.00,+2.00,+5.00
-9.00,-4.00,-2.00,-3.00,-3.00,-5.00,-3.00,+12.00,-1.00,-5.00,-3.00,-6.00,-6.00,-3.00,-1.00,-3.00
-13.00,-3.00,-3.00,+0.00,+4.00,-1.00,-9.00,-24.00,-15.00,-6.00,-1.00,+4.00,+1.00,-6.00,-5.00,-7.00
-1.00,-5.00,-3.00,-4.00,-7.00,-7.00,-2.00,-7.00,+13.00,+7.00,-2.00,-10.00,-4.00,+1.00,+4.00,+5.00
+3.00,+1.00,+1.00,+2.00,+6.00,+0.00,-3.00,+0.00,-11.00,-8.00,-1.00,-2.00,-6.00,+1.00,+6.00,-4.00
-1.00,-2.00,-2.00,-4.00,-4.00,-4.00,-1.00,-6.00,-2.00,+1.00,-2.00,-3.00,-1.00,+1.00,-3.00,-7.00
+1.00,-4.00,-2.00,+0.00,+2.00,+1.00,+0.00,+5.00,+3.00,+2.00,+2.00,-2.00,-2.00,-3.00,-2.00,-3.00
+2.00,+1.00,+0.00,-1.00,-6.00,+2.00,+6.00,+31.00,-9.00,-4.00,-1.00,+11.00,+4.00,-2.00,-1.00,-3.00
+8.00,+1.00,+0.00,-1.00,+5.00,-2.00,+3.00,+8.00,+8.00,+4.00,-4.00,-19.00,-9.00,-2.00,+1.00,+1.00
+3.00,-3.00,-1.00,+1.00,-7.00,-2.00,-1.00,-5.00,+16.00,+7.00,+2.00,+2.00,+1.00,+0.00,+1.00,+11.00
-7.00,-3.00,-2.00,-1.00,+5.00,-2.00,+1.00,+24.00,-4.00,-1.00,-3.00,-5.00,-1.00,-2.00,-3.00,-5.00
+0.00,-3.00,-2.00,-2.00,-4.00,-4.00,-5.00,-10.00,-5.00,-6.00,+2.00,-1.00,-2.00,+0.00,+2.00,+4.00
-1.00,-9.00,-4.00,-2.00,-2.00,+0.00,+2.00,+6.00,-1.00,+5.00,+2.00,+2.00,+0.00,-4.00,-8.00,-2.00
-2.00,+10.00,+2.00,+1.00,-3.00,+0.00,+0.00,+10.00,-7.00,-6.00,+0.00,+3.00,+3.00,-2.00,-6.00,-13.00
+4.00,+1.00,-3.00,-3.00,-7.00,+1.00,+0.00,+3.00,+15.00,+2.00,-4.00,-5.00,-5.00,-2.00,-2.00,+6.00
-3.00,+4.00,+1.00,+0.00,+0.00,-1.00,-1.00,-5.00,-7.00,-2.00,+1.00,+8.00,+8.00,-4.00,-5.00,-8.00
-2.00,-2.00,-1.00,+1.00,+1.00,-1.00,-4.00,-24.00,-4.00,-2.00,-1.00,+2.00,+0.00,-3.00,-6.00,-14.00
+0.00,-3.00,+0.00,+0.00,+1.00,-2.00,-6.00,-14.00,-2.00,+0.00,+0.00,+4.00,+2.00,+1.00,+4.00,+8.00
+2.00,+0.00,-1.00,-1.00,-1.00,-1.00,+1.00,-12.00,-4.00,-3.00,-4.00,-7.00,-6.00,-5.00,-5.00,-8.00
+11.00,+2.00,+2.00,-1.00,-5.00,+0.00,-3.00,-1.00,+10.00,+1.00,+0.00,-3.00,-1.00,+8.00,+5.00,+4.00
-5.00,-2.00,-1.00,+1.00,+7.00,+0.00,-1.00,-13.00,+5.00,+0.00,-1.00,+0.00,+0.00,+0.00,+1.00,+8.00
+4.00,+3.00,-2.00,-1.00,-1.00,+1.00,+7.00,+3.00,-4.00,+1.00,+0.00,-2.00,-2.00,-4.00,-6.00,-9.00
-3.00,+2.00,+3.00,+1.00,-1.00,-2.00,-2.00,-6.00,-4.00,-5.00,+1.00,+13.00,+14.00,+5.00,+6.00,+8.00
+1.00,+0.00,+2.00,+1.00,-4.00,+1.00,+0.00,-3.00,+0.00,+1.00,-5.00,-19.00,-14.00,-8.00,-1.00,-8.00
-13.00,+1.00,+0.00,+0.00,-2.00,-1.00,-3.00,-23.00,+2.00,+0.00,-1.00,+3.00,+1.00,-1.00,-4.00,-3.00
