-6.00,-3.00,-1.00,-1.00,-1.00,-1.00,+1.00,-2.00,-2.00,-1.00,-3.00,-1.00,-1.00,+0.00,+0.00,+0.00
+0.00,-5.00,-4.00,-2.00,+1.00,-2.00,-4.00,-4.00,-12.00,-3.00,-3.00,-1.00,-1.00,-3.00,-4.00,-6.00
+10.00,+1.00,-3.00,-3.00,-2.00,-3.00,-2.00,-3.00,+10.00,+1.00,+0.00,+0.00,+1.00,-4.00,-4.00,-1.00
-3.00,+3.00,+1.00,+0.00,-1.00,-2.00,+0.00,-2.00,+1.00,+0.00,-3.00,-3.00,-2.00,+0.00,+0.00,-2.00
+0.00,+0.00,-2.00,+0.00,+1.00,+0.00,-3.00,-5.00,-4.00,-1.00,+1.00,+0.00,+4.00,+2.00,+2.00,+3.00
-14.00,-6.00,-5.00,-6.00,-11.00,-2.00,-1.00,+4.00,+2.00,+0.00,-2.00,-3.00,-1.00,-2.00,-3.00,-1.00
+7.00,-3.00,+1.00,+6.00,+11.00,+1.00,+4.00,+31.00,+0.00,+4.00,+1.00,+1.00,-1.00,+0.00,-1.00,+1.00
-2.00,+3.00,-1.00,-5.00,-4.00,-2.00,-2.00,-3.00,-6.00,-4.00,-2.00,-1.00,-1.00,+0.00,-1.00,+1.00
+7.00,+5.00,-1.00,+0.00,+1.00,+0.00,-2.00,-1.00,+3.00,+0.00,-2.00,-2.00,-1.00,-2.00,-2.00,+1.00
-5.00,-9.00,-2.00,+0.00,+5.00,+0.00,-1.00,+3.00,-5.00,-4.00,+0.00,+3.00,+0.00,-1.00,+0.00,+0.00
-7.00,-2.00,-2.00,-2.00,+0.00,-1.00,-2.00,+0.00,-17.00,-7.00,-3.00,-4.00,-5.00,-3.00,-4.00,-5.00
+9.00,+5.00,+1.00,+0.00,-2.00,+0.00,+2.00,+15.00,+7.00,+0.00,-4.00,-2.00,-1.00,-2.00,-3.00,-3.00
-19.00,-11.00,-3.00,-2.00,+3.00,+1.00,+2.00,+15.00,-2.00,-4.00,-4.00,-4.00,-3.00,-1.00,+1.00,+3.00
+14.00,+13.00,+3.00,-2.00,-10.00,-4.00,-2.00,+6.00,+7.00,+3.00,+3.00,+0.00,-1.00,+1.00,+2.00,+1.00
+3.00,-1.00,-1.00,+2.00,-1.00,+0.00,+0.00,-6.00,+5.00,+4.00,+0.00,-2.00,-2.00,-1.00,-1.00,+3.00
-13.00,-14.00,-2.00,-3.00,-1.00,-2.00,-1.00,+0.00,-7.00,-2.00,-2.00,+2.00,+2.00,+0.00,-2.00,-4.00
+16.00,+6.00,-3.00,-6.00,-12.00,-4.00,+0.00,-6.00,-12.00,-5.00,-4.00,-4.00,-3.00,-2.00,-2.00,-4.00
-6.00,-3.00,+3.00,+8.00,+12.00,-1.00,+2.00,+3.00,+2.00,-6.00,-3.00,+2.00,+0.00,-1.00,-1.00,-4.00
+10.00,+3.00,-1.00,-4.00,-6.00,-3.00,-6.00,-20.00,+21.00,+3.00,-1.00,-6.00,-1.00,+0.00,+1.00,+3.00
-9.00,-6.00,-5.00,-3.00,-3.00,+1.00,-1.00,-9.00,+2.00,+6.00,+4.00,+3.00,+3.00,-1.00,-3.00,-2.00
-6.00,-10.00,-2.00,-2.00,-3.00,-3.00,-4.00,-2.00,-5.00,-2.00,-3.00,-5.00,-8.00,-2.00,-3.00,-5.00
-9.00,-3.00,-1.00,-1.00,+0.00,+1.00,+1.00,-2.00,-7.00,-5.00,-2.00,-5.00,-5.00,+1.00,+5.00,+4.00
+11.00,+9.00,+0.00,+1.00,-1.00,+0.00,-1.00,-4.00,-13.00,-4.00,-3.00,-1.00,-4.00,-1.00,-3.00,-6.00
+4.00,+1.00,-4.00,-3.00,+2.00,+1.00,+0.00,-1.00,+0.00,+1.00,+1.00,+8.00,+3.00,+0.00,+0.00,-1.00
-2.00,+0.00,+0.00,-3.00,-2.00,-1.00,-1.00,+1.00,+16.00,+4.00,-2.00,-19.00,-12.00,-5.00,-1.00,+1.00
+15.00,+6.00,+3.00,+4.00,-3.00,-1.00,-2.00,+1.00,-13.00,-1.00,-1.00,+0.00,+6.00,-1.00,-1.00,-2.00
-33.00,-32.00,-8.00,-8.00,-15.00,-6.00,-5.00,-13.00,+12.00,-4.00,-4.00,-5.00,-5.00,-1.00,+3.00,+6.00
+25.00,+23.00,+4.00,+5.00,+14.00,+3.00,+0.00,-2.00,-9.00,-1.00,+0.00,-2.00,+0.00,+0.00,+0.00,+1.00
-5.00,+6.00,+2.00,+4.00,+3.00,+1.00,-1.00,-1.00,-21.00,-4.00,+1.00,+8.00,+2.00,+3.00,-2.00,-2.00
-2.00,-2.00,-3.00,-2.00,-3.00,-4.00,-2.00,-4.00,+23.00,+2.00,-2.00,-2.00,-2.00,-4.00,-5.00,-2.00
+4.00,+2.00,+0.00,-4.00,-20.00,-8.00,-3.00,+1.00,+9.00,+4.00,+2.00,+4.00,+2.00,-1.00,-1.00,+2.00
-14.00,-17.00,+2.00,+4.00,+21.00,+9.00,+1.00,-5.00,-13.00,-7.00,-1.00,-4.00,-3.00,-1.00,+0.00,-1.00
+40.00,+46.00,+6.00,-2.00,-21.00,-8.00,+1.00,+1.00,-17.00,-8.00,-2.00,+0.00,+3.00,-3.00,-6.00,-6.00
-15.00,-10.00,-3.00,+2.00,+13.00,+5.00,-1.00,-2.00,+12.00,+0.00,-3.00,-4.00,+0.00,+1.00,+0.00,+1.00
-9.00,-7.00,+0.00,+2.00,+6.00,+3.00,+2.00,-3.00,-13.00,-4.00,+0.00,+4.00,+0.00,+4.00,+1.00,+1.00
-6.00,-13.00,-2.00,-7.00,-14.00,-4.00,-1.00,-2.00,+30.00,+4.00,-4.00,-5.00,-6.00,+0.00,+2.00,+4.00
-14.00,-21.00,-6.00,-4.00,-6.00,-3.00,-4.00,-7.00,-2.00,+3.00,+1.00,+0.00,+2.00,-2.00,-3.00,-4.00
+19.00,+15.00,+0.00,+0.00,-1.00,+1.00,+0.00,+3.00,-13.00,-2.00,+1.00,+1.00,-1.00,-2.00,-1.00,-2.00
-4.00,+3.00,-2.00,-1.00,+2.00,+0.00,+1.00,+13.00,-12.00,-6.00,-4.00,-5.00,-2.00,+0.00,-3.00,-5.00
-13.00,-2.00,-4.00,-3.00,-5.00,-2.00,-2.00,-7.00,-20.00,-11.00,-3.00,-4.00,-2.00,-5.00,-4.00,-1.00
+7.00,+1.00,+2.00,+1.00,+6.00,+2.00,+0.00,-8.00,+29.00,+6.00,+0.00,+2.00,+0.00,+1.00,+1.00,+1.00
-4.00,-11.00,-4.00,-4.00,-7.00,-4.00,-1.00,-2.00,+13.00,+3.00,+0.00,+19.00,+3.00,+2.00,+0.00,+4.00
-3.00,+1.00,-2.00,-2.00,+9.00,+4.00,-3.00,-12.00,-22.00,-5.00,+3.00,+2.00,+1.00,-2.00,-2.00,-12.00
+7.00,+2.00,+4.00,+1.00,-15.00,-9.00,+1.00,+7.00,-10.00,+0.00,-2.00,-11.00,-3.00,+1.00,+4.00,+13.00
-23.00,-15.00,-4.00,+6.00,+19.00,+9.00,-1.00,-8.00,+17.00,-5.00,-4.00,-4.00,-3.00,-2.00,-1.00,+2.00
+3.00,+13.00,+4.00,+0.00,+4.00,+4.00,+0.00,-3.00,-4.00,+0.00,+4.00,+20.00,+14.00,+3.00,-1.00,-4.00
+14.00,+3.00,-1.00,-1.00,-1.00,-1.00,-3.00,-21.00,-36.00,-8.00,-7.00,-17.00,-11.00,-4.00,-3.00,-8.00
-7.00,-6.00,-3.00,-2.00,-2.00,-3.00,-3.00,-5.00,+17.00,+0.00,+4.00,+21.00,+14.00,+4.00,-3.00,-8.00
-16.00,-15.00,-3.00,-2.00,+0.00,-5.00,+2.00,-2.00,+16.00,+0.00,-2.00,+0.00,-1.00,-3.00,-1.00,-3.00
-9.00,-22.00,-9.00,-10.00,-15.00,-10.00,-4.00,-4.00,-21.00,-5.00,-5.00,-12.00,-5.00,-5.00,-5.00,-6.00
+14.00,+14.00,+6.00,+8.00,+6.00,+1.00,+1.00,+1.00,+26.00,+6.00,-1.00,-2.00,+1.00,+3.00,+1.00,+1.00
-3.00,-2.00,+2.00,+3.00,-1.00,+1.00,+0.00,+3.00,-1.00,-1.00,-3.00,-10.00,-12.00,-1.00,-1.00,+3.00
+20.00,+18.00,+2.00,-1.00,+4.00,+1.00,+7.00,-2.00,-35.00,-6.00,+3.00,+5.00,+3.00,+0.00,-1.00,-11.00
+0.00,+13.00,+8.00,+5.00,+3.00,+5.00,+4.00,+10.00,+25.00,+11.00,+1.00,-7.00,-7.00,-1.00,-3.00,+0.00
-13.00,-26.00,-8.00,-4.00,-3.00,-5.00,-3.00,-7.00,+3.00,-2.00,+2.00,+8.00,+5.00,-1.00,-1.00,+1.00
+20.00,+45.00,+8.00,+3.00,+2.00,+2.00,+5.00,+9.00,-25.00,-4.00,-1.00,-5.00,-8.00,+1.00,+0.00,-6.00
-14.00,-14.00,-6.00,-4.00,-7.00,-3.00,-4.00,+0.00,-17.00,-6.00,-2.00,+3.00,+3.00,-1.00,+0.00,+3.00
-10.00,-15.00,-6.00,-3.00,+5.00,-5.00,-3.00,-6.00,+18.00,+8.00,+1.00,-18.00,-14.00,-5.00,-2.00,+8.00
+4.00,+17.00,+4.00,+1.00,-1.00,+1.00,+4.00,+8.00,+50.00,+10.00,+7.00,+34.00,+23.00,+6.00,+5.00,+6.00
-10.00,-26.00,-4.00,+0.00,+6.00,+2.00,-6.00,-7.00,+18.00,-2.00,-7.00,-18.00,-5.00,-6.00,-5.00,-1.00
-2.00,+1.00,-3.00,-6.00,-4.00,-1.00,-3.00,+1.00,-38.00,-1.00,+2.00,-9.00,-9.00,-2.00,-5.00,-16.00
+23.00,+23.00,+5.00,+2.00,-3.00,+1.00,+1.00,+0.00,-14.00,-6.00,-1.00,-1.00,+2.00,+0.00,+0.00,-1.00
-5.00,-21.00,-4.00,-2.00,+1.00,+2.00,-1.00,+0.00,-16.00,-4.00,-2.00,+1.00,+2.00,-5.00,-6.00,-5.00
+10.00,+2.00,-7.00,-7.00,-8.00,-5.00,-4.00,-13.00,-1.00,+4.00,+0.00,+4.00,+4.00,+3.00,+6.00,+3.00
-17.00,-7.00,+2.00,+3.00,-4.00,-3.00,+0.00,-2.00,+6.00,-11.00,-4.00,+4.00,+2.00,-3.00,-3.00,-4.00
+6.00,+22.00,+2.00,-2.00,+1.00,+0.00,-1.00,-7.00,+10.00,+4.00,-3.00,-11.00,-6.00,-2.00,+2.00,+3.00
-9.00,-9.00,-4.00,-2.00,-3.00,+0.00,-1.00,+3.00,-9.00,-5.00,-7.00,-14.00,-11.00,-2.00,-1.00,-3.00
-18.00,-1.00,+0.00,-3.00,-21.00,-8.00,-3.00,-1.00,-14.00,+6.00,+7.00,+16.00,+14.00,-4.00,-10.00,-12.00
+1.00,-14.00,-4.00,+0.00,+10.00,+2.00,-2.00,-2.00,+18.00,+6.00,-3.00,-23.00,-17.00,-4.00,-1.00,+0.00
-4.00,-8.00,-1.00,-1.00,+7.00,+1.00,-4.00,-3.00,+2.00,-2.00,+0.00,+10.00,+10.00,+2.00,+1.00,+7.00
-10.00,+6.00,+4.00,-2.00,-9.00,-1.00,+2.00,+2.00,-25.00,-12.00,-9.00,-17.00,-17.00,-6.00,-6.00,-10.00
-2.00,-17.00,-7.00,-1.00,+2.00,+1.00,+5.00,+1.00,-10.00,-5.00,-2.00,-12.00,-16.00,-5.00,-1.00,+3.00
-1.00,+0.00,-2.00,-2.00,-3.00,-5.00,-5.00,-3.00,+28.00,+8.00,-1.00,+8.00,+6.00,+0.00,+2.00,+14.00
+2.00,+8.00,+3.00,+1.00,-9.00,+2.00,+1.00,+5.00,-2.00,+5.00,+0.00,+1.00,+6.00,+0.00,-2.00,-6.00
-3.00,+0.00,-2.00,+3.00,+12.00,+2.00,+0.00,-3.00,+9.00,+2.00,-5.00,-17.00,-17.00,-4.00,+2.00,+11.00
+1.00,-12.00,-3.00,-2.00,-3.00,+0.00,-1.00,-2.00,-12.00,-12.00,-1.00,+3.00,+4.00,+1.00,-1.00,-5.00
-15.00,-16.00,-4.00,-1.00,-3.00,+0.00,-1.00,-9.00,+5.00,+6.00,+4.00,+5.00,+3.00,+0.00,-3.00,-10.00
+18.00,+15.00,-4.00,-4.00,-3.00,-3.00,+0.00,+5.00,-20.00,+0.00,-3.00,-10.00,-15.00,-1.00,+2.00,+1.00
+0.00,+4.00,+1.00,-3.00,-5.00,-3.00,-3.00,-4.00,-21.00,-9.00,+1.00,+6.00,+6.00,-3.00,-7.00,-10.00
+3.00,+3.00,+1.00,+3.00,+7.00,-2.00,+0.00,+4.00,+11.00,+4.00,-4.00,-4.00,-3.00,-2.00,-1.00,-3.00
+2.00,-2.00,-3.00,-1.00,+1.00,-1.00,-1.00,+3.00,+0.00,+1.00,+5.00,+12.00,+6.00,+4.00,+9.00,+17.00
-31.00,-48.00,-11.00,-7.00,-9.00,-8.00,-8.00,-8.00,-1.00,-5.00,-4.00,+1.00,+4.00,-5.00,-6.00,-9.00
+0.00,+6.00,+1.00,-2.00,-4.00,-2.00,-4.00,-3.00,-16.00,+5.00,+9.00,+19.00,+8.00,-2.00,+0.00,+3.00
+9.00,+7.00,+1.00,+3.00,+6.00,+3.00,+2.00,+7.00,+2.00,-2.00,-11.00,-33.00,-29.00,+2.00,+4.00,-4.00
+5.00,+5.00,+3.00,-2.00,-4.00,-3.00,-2.00,-6.00,+3.00,-6.00,-4.00,+4.00,+10.00,+0.00,-5.00,-5.00
-17.00,-3.00,-1.00,-2.00,+11.00,+8.00,+0.00,-25.00,-51.00,-14.00,-8.00,-23.00,-23.00,-8.00,-7.00,-9.00
-7.00,-4.00,-4.00,-5.00,-12.00,-3.00,-5.00,-7.00,+56.00,+12.00,-1.00,-7.00,-1.00,-1.00,+0.00,+7.00
-11.00,-8.00,-5.00,-13.00,-23.00,-5.00,-5.00,-6.00,+6.00,-7.00,+3.00,+16.00,+8.00,-2.00,-5.00,-9.00
+5.00,+0.00,+1.00,+8.00,+16.00,-2.00,+1.00,+5.00,+20.00,+16.00,+6.00,+15.00,+20.00,+7.00,+11.00,+23.00
-2.00,+1.00,+2.00,+3.00,-5.00,-5.00,-10.00,+11.00,+0.00,+4.00,+0.00,-5.00,-5.00,-1.00,-1.00,-2.00
+13.00,+4.00,-3.00,-3.00,+1.00,-1.00,+3.00,+0.00,+7.00,+0.00,+0.00,+0.00,-2.00,+2.00,-1.00,+0.00
+10.00,+14.00,+4.00,+6.00,+25.00,+3.00,-2.00,-8.00,+26.00,+12.00,+4.00,+12.00,+6.00,+3.00,+1.00,+10.00
-21.00,-12.00,-5.00,-6.00,-11.00,+0.00,+3.00,+7.00,-43.00,-16.00,+0.00,+5.00,+3.00,+1.00,-4.00,-12.00
+14.00,+13.00,+2.00,+0.00,-2.00,-2.00,+1.00,+10.00,-11.00,-9.00,+3.00,+18.00,+13.00,+1.00,+1.00,+0.00
-13.00,-10.00,+0.00,+3.00,+3.00,+1.00,-2.00,-1.00,+2.00,+0.00,-1.00,-16.00,-5.00,+0.00,-1.00,+1.00
+11.00,-5.00,-3.00,-1.00,-1.00,-2.00,+0.00,+3.00,-68.00,-11.00,-4.00,-1.00,+3.00,-5.00,-8.00,-21.00
+5.00,+8.00,+2.00,-6.00,-7.00,-2.00,+0.00,+2.00,+67.00,+11.00,-1.00,-4.00,-8.00,-5.00,-1.00,+23.00
-16.00,-17.00,-6.00,-1.00,+9.00,+1.00,+0.00,-3.00,+22.00,+3.00,+0.00,-3.00,-1.00,+0.00,-2.00,-6.00
+13.00,+13.00,+6.00,+1.00,+0.00,+4.00,+3.00,+9.00,-11.00,-3.00,+2.00,+5.00,+4.00,+1.00,+1.00,-1.00
-9.00,-9.00,-4.00,+1.00,+1.00,+0.00,+3.00,-2.00,+5.00,+4.00,+4.00,+11.00,+18.00,+2.00,-1.00,+4.00
+0.00,+8.00,+2.00,+4.00,+1.00,-1.00,-2.00,-8.00,-29.00,-8.00,-10.00,-32.00,-31.00,-9.00,-6.00,-17.00
-13.00,-18.00,-5.00,-2.00,-7.00,-3.00,-2.00,-8.00,-6.00,-9.00,-4.00,+0.00,-4.00,+2.00,+0.00,-6.00
-7.00,-8.00,-1.00,-4.00,-7.00,-4.00,-6.00,-14.00,+13.00,+5.00,-1.00,+6.00,+3.00,+2.00,+2.00,+8.00
+14.00,+15.00,+2.00,+0.00,+1.00,+2.00,+0.00,+4.00,-3.00,-3.00,+1.00,+0.00,-3.00,-8.00,-6.00,-6.00
-2.00,+11.00,+1.00,+2.00,+5.00,+3.00,+2.00,+12.00,-5.00,-3.00,-2.00,-8.00,+3.00,+7.00,+10.00,+5.00
+5.00,+2.00,-1.00,-1.00,-7.00,-3.00,+1.00,+0.00,+25.00,-2.00,-1.00,+5.00,+7.00,+0.00,-1.00,+4.00
-16.00,-10.00,-8.00,-3.00,-6.00,-3.00,+0.00,+1.00,-33.00,-7.00,-3.00,-7.00,-7.00,+0.00,-6.00,-23.00
+19.00,+0.00,+2.00,-1.00,-2.00,+2.00,+4.00,+56.00,+58.00,+17.00,+4.00,-4.00,-2.00,+3.00,+10.00,+39.00
+11.00,-1.00,-2.00,-6.00,-17.00,+0.00,+8.00,+2.00,-6.00,-2.00,-3.00,-5.00,-10.00,-6.00,-8.00,-15.00
-6.00,-8.00,-2.00,+7.00,+25.00,+12.00,+1.00,-7.00,-8.00,-1.00,+1.00,+0.00,+0.00,+2.00,+5.00,+11.00
+4.00,+12.00,+5.00,+9.00,+19.00,+2.00,+4.00,+9.00,-30.00,-14.00,-6.00,+1.00,+4.00,-4.00,-4.00,-14.00
-8.00,-1.00,-2.00,-6.00,-12.00,-6.00,-1.00,-8.00,-22.00,-7.00,-2.00,+1.00,+3.00,+4.00,+5.00,-3.00
+5.00,+8.00,+6.00,+3.00,+3.00,+0.00,-3.00,+5.00,+3.00,+0.00,-3.00,+2.00,-2.00,-3.00,-7.00,-9.00
-3.00,+1.00,+1.00,-2.00,-9.00,+1.00,-1.00,+9.00,+4.00,+2.00,+0.00,-9.00,-1.00,+0.00,-1.00,-2.00
+12.00,-4.00,-3.00,-3.00,-2.00,-5.00,+1.00,+4.00,+13.00,-2.00,-1.00,+1.00,-3.00,-4.00,+0.00,+6.00
-4.00,+2.00,+1.00,+0.00,+3.00,+1.00,-3.00,-12.00,-6.00,-4.00,-3.00,+5.00,+9.00,+1.00,+1.00,+6.00
+0.00,-3.00,-2.00,-4.00,-4.00,+0.00,-4.00,-6.00,+15.00,-1.00,-4.00,-1.00,-5.00,-5.00,-4.00,-1.00
+7.00,+1.00,+0.00,+2.00,+3.00,-4.00,-3.00,-23.00,-14.00,+3.00,+6.00,+15.00,+4.00,+0.00,-2.00,-10.00
-6.00,-5.00,-2.00,-6.00,-14.00,-8.00,-3.00,+7.00,-23.00,+1.00,+1.00,-1.00,-3.00,-2.00,-3.00,-5.00
-7.00,+1.00,+0.00,+1.00,+14.00,+0.00,-4.00,-13.00,+7.00,-9.00,-3.00,-11.00,-9.00,-2.00,+1.00,-4.00
-7.00,-10.00,-2.00,-1.00,-1.00,-3.00,-10.00,-6.00,-15.00,-5.00,+0.00,+10.00,+6.00,+5.00,+0.00,-3.00
+3.00,-3.00,-2.00,-2.00,-5.00,-2.00,+4.00,+8.00,+22.00,+4.00,-1.00,+5.00,-8.00,-2.00,+1.00,+7.00
-2.00,+0.00,-3.00,+1.00,+2.00,+1.00,-1.00,+0.00,+24.00,+6.00,-5.00,-18.00,-8.00,+1.00,+12.00,+24.00
-4.00,+5.00,+0.00,-2.00,-5.00,-3.00,-3.00,-7.00,-7.00,-1.00,-1.00,-5.00,-7.00,+0.00,-1.00,-3.00
-3.00,-4.00,-1.00,+0.00,+2.00,-3.00,-6.00,-11.00,-7.00,-2.00,-2.00,+5.00,+1.00,-2.00,-4.00,+0.00
+17.00,-5.00,-2.00,-2.00,-5.00,-2.00,+0.00,+7.00,-18.00,-8.00,+1.00,-6.00,+0.00,+6.00,+1.00,-2.00
+8.00,+23.00,+5.00,-2.00,-6.00,-1.00,+6.00,+25.00,-30.00,-12.00,-7.00,-4.00,-2.00,-5.00,-11.00,-15.00
-10.00,-4.00,+1.00,+5.00,+2.00,+0.00,+0.00,-14.00,+34.00,+7.00,+0.00,+2.00,-2.00,-4.00,-4.00,-10.00
-3.00,+0.00,-4.00,-3.00,+0.00,+1.00,-8.00,-12.00,-7.00,-5.00,+0.00,+3.00,+3.00,+2.00,+7.00,+17.00
-19.00,-9.00,-5.00,-15.00,-47.00,-17.00,-5.00,+2.00,-6.00,+5.00,+0.00,+0.00,+2.00,+0.00,+1.00,+6.00
+5.00,-2.00,-1.00,+12.00,+41.00,+13.00,+1.00,-6.00,+19.00,-1.00,+0.00,+2.00,-1.00,-2.00,-3.00,-3.00
-12.00,-5.00,-4.00,-5.00,-8.00,+0.00,-1.00,-34.00,-16.00,-6.00,+0.00,+20.00,+11.00,-2.00,-5.00,-8.00
+7.00,+6.00,+3.00,+6.00,+11.00,+0.00,+2.00,+3.00,-18.00,-3.00,+0.00,-3.00,+1.00,-6.00,-9.00,-24.00
-6.00,-1.00,-3.00,-9.00,+0.00,+2.00,-2.00,-6.00,-13.00,-8.00,-5.00,-3.00,-5.00,-6.00,-6.00,-6.00
+6.00,+2.00,+1.00,+1.00,-5.00,+2.00,-2.00,-8.00,+29.00,+13.00,+4.00,-5.00,-7.00,+3.00,+11.00,+27.00
-8.00,-3.00,-5.00,-2.00,-2.00,+0.00,-9.00,+8.00,-11.00,-2.00,-4.00,-6.00,-5.00,-3.00,-3.00,-1.00
-6.00,-4.00,-1.00,+1.00,+0.00,+3.00,+9.00,+20.00,+17.00,+9.00,+2.00,+0.00,-4.00,+2.00,-2.00,-1.00
-4.00,-1.00,+1.00,+1.00,+3.00,-1.00,+3.00,+8.00,-7.00,-1.00,+1.00,+3.00,+7.00,+0.00,+0.00,+2.00
+4.00,-3.00,-3.00,-3.00,+0.00,+0.00,-4.00,+2.00,+4.00,-4.00,+0.00,+8.00,+7.00,+0.00,-1.00,-4.00
-3.00,-7.00,-3.00,-2.00,+1.00,-2.00,-4.00,-4.00,-31.00,-5.00,-4.00,-11.00,-9.00,-2.00,-5.00,-45.00
+0.00,+0.00,-2.00,-5.00,-9.00,-4.00,+1.00,-3.00,-4.00,-3.00,-2.00,+2.00,+6.00,-1.00,+5.00,+16.00
+6.00,+9.00,+4.00,+5.00,+6.00,+1.00,+3.00,+12.00,+10.00,+4.00,+2.00,+2.00,-9.00,-7.00,-5.00,+8.00
-15.00,-7.00,-1.00,-2.00,-6.00,-4.00,-5.00,-9.00,+7.00,+3.00,+0.00,+6.00,+5.00,+7.00,-1.00,-13.00
-14.00,-10.00,-6.00,-7.00,-10.00,-3.00,+1.00,+8.00,-6.00,-3.00,-2.00,-2.00,-10.00,-5.00,-5.00,+7.00
+15.00,+3.00,-1.00,+2.00,+5.00,+3.00,+5.00,+10.00,-8.00,-5.00,+4.00,+15.00,+9.00,+3.00,+3.00,-1.00
-12.00,-7.00,-2.00,+1.00,+4.00,-1.00,-5.00,-14.00,+1.00,-7.00,-6.00,-8.00,+2.00,-4.00,-8.00,-14.00
+8.00,+15.00,+2.00,+0.00,+1.00,-4.00,-6.00,-6.00,-15.00,+0.00,-5.00,-17.00,-13.00,-5.00,-4.00,-2.00
-6.00,-1.00,+0.00,+1.00,-2.00,-3.00,-7.00,-10.00,+21.00,+6.00,+7.00,+10.00,+8.00,+3.00,+3.00,+10.00
-1.00,-4.00,-2.00,-1.00,+5.00,+3.00,+10.00,-8.00,-18.00,-7.00,+0.00,-3.00,-12.00,-3.00,-6.00,-19.00
-19.00,-5.00,-4.00,+2.00,+7.00,+1.00,+3.00,-27.00,+14.00,+4.00,+4.00,-3.00,-3.00,+1.00,+5.00,+17.00
+8.00,-5.00,-1.00,-2.00,-7.00,-2.00,+2.00,+3.00,-20.00,-4.00,-3.00,-2.00,+3.00,-5.00,-8.00,-13.00
+1.00,-2.00,+0.00,-2.00,-8.00,-5.00,-4.00,-1.00,+4.00,-1.00,-4.00,-12.00,+0.00,+0.00,+0.00,+6.00
+0.00,+2.00,-2.00,-3.00,-2.00,+0.00,-5.00,-3.00,+20.00,+8.00,+2.00,+7.00,+12.00,-1.00,+3.00,+18.00
+10.00,+9.00,+4.00,+3.00,+1.00,-2.00,-1.00,+8.00,-9.00,+0.00,-3.00,-7.00,-2.00,+0.00,+4.00,+2.00
-13.00,-8.00,-4.00,-5.00,-6.00,-4.00,-1.00,-3.00,-7.00,-5.00,-2.00,+0.00,+1.00,-3.00,-4.00,-6.00
+4.00,-2.00,-3.00,+2.00,+7.00,+3.00,+2.00,-3.00,-2.00,+0.00,-2.00,-2.00,-5.00,-3.00,-5.00,-10.00
+3.00,-1.00,+1.00,+1.00,-4.00,-2.00,-3.00,-1.00,+1.00,+1.00,-4.00,-7.00,-5.00,-1.00,+0.00,+1.00
+2.00,+0.00,+0.00,-2.00,-1.00,-1.00,+1.00,+15.00,-9.00,-9.00,-4.00,-7.00,-3.00,-1.00,-2.00,-7.00
-3.00,-1.00,-2.00,+1.00,+3.00,+2.00,+0.00,-3.00,+6.00,+2.00,+9.00,+23.00,+10.00,+2.00,+2.00,-18.00
-7.00,-3.00,+1.00,+1.00,+4.00,-2.00,+0.00,+10.00,+0.00,-1.00,-2.00,-2.00,+3.00,-1.00,+0.00,+2.00
-14.00,-2.00,-2.00,-3.00,-4.00,-4.00,-5.00,-16.00,-9.00,-7.00,-11.00,-21.00,-18.00,-12.00,-11.00,-16.00
+19.00,+2.00,-1.00,-6.00,-10.00,-2.00,+3.00,+6.00,+3.00,+0.00,+2.00,+1.00,+3.00,+8.00,+9.00,+11.00
+12.00,+5.00,-2.00,-3.00,-1.00,-2.00,-10.00,+2.00,+0.00,-2.00,-8.00,-11.00,-10.00,-7.00,-5.00,+3.00
+12.00,+0.00,+0.00,-1.00,+1.00,+2.00,+4.00,-7.00,+4.00,+7.00,+4.00,+5.00,+11.00,-8.00,-17.00,-1.00
-10.00,-3.00,+0.00,+1.00,+3.00,-1.00,+0.00,-16.00,-7.00,-5.00,-4.00,-12.00,-6.00,+2.00,+9.00,-3.00
+2.00,+5.00,-2.00,-3.00,-3.00,-9.00,-17.00,-62.00,+0.00,-1.00,-1.00,+5.00,+0.00,+1.00,+1.00,-4.00
+9.00,-4.00,-4.00,-4.00,-5.00,+1.00,-4.00,-10.00,+10.00,+3.00,+1.00,-2.00,+2.00,+3.00,+6.00,+4.00
-9.00,-6.00,-2.00,-3.00,+3.00,+3.00,+7.00,+5.00,-16.00,-13.00,-8.00,-13.00,-10.00,-8.00,-5.00,-10.00
+4.00,+3.00,+1.00,-1.00,+1.00,+1.00,+4.00,+18.00,+15.00,+4.00,+2.00,+4.00,+5.00,+1.00,-5.00,+14.00
-1.00,-1.00,-1.00,-5.00,-5.00,+0.00,+0.00,-4.00,+6.00,+9.00,+0.00,-3.00,-5.00,-1.00,+4.00,+3.00
-7.00,-3.00,+3.00,+5.00,+3.00,-1.00,+1.00,+3.00,-7.00,-1.00,+8.00,+8.00,+7.00,+5.00,+6.00,+5.00
+2.00,+2.00,-1.00,+1.00,-2.00,-2.00,-2.00,-10.00,+16.00,-12.00,-8.00,-7.00,-7.00,-3.00,+2.00,+12.00
+7.00,-1.00,+1.00,+2.00,-5.00,-1.00,-10.00,-34.00,-7.00,+2.00,+5.00,+12.00,+5.00,-1.00,-10.00,-10.00
-24.00,-8.00,-4.00,+0.00,+2.00,+2.00,+1.00,+1.00,-10.00,-8.00,-5.00,+0.00,+3.00,-4.00,-7.00,-13.00
+11.00,-2.00,-5.00,-8.00,+4.00,+2.00,+2.00,+1.00,-18.00,-12.00,-8.00,-6.00,-4.00,-2.00,-1.00,+20.00
+9.00,+4.00,+2.00,+2.00,-4.00,+0.00,+5.00,+16.00,+35.00,+7.00,+1.00,-2.00,-2.00,+3.00,+5.00,-16.00
+1.00,-3.00,-2.00,-3.00,-2.00,-6.00,-2.00,+7.00,-8.00,-4.00,+1.00,-3.00,-6.00,-7.00,-6.00,-5.00
+6.00,+1.00,+0.00,+2.00,+4.00,+4.00,+1.00,+15.00,-2.00,+0.00,-4.00,-6.00,-2.00,-3.00,-8.00,-12.00
-9.00,-5.00,+0.00,-2.00,-5.00,+0.00,-1.00,-4.00,+4.00,+6.00,+4.00,+1.00,+0.00,+0.00,-1.00,+2.00
-11.00,+0.00,-2.00,-2.00,+1.00,-4.00,-2.00,-9.00,-10.00,-2.00,+3.00,+6.00,+4.00,+2.00,+1.00,+19.00
+2.00,+0.00,-4.00,-3.00,+1.00,-2.00,-4.00,+4.00,+12.00,+6.00,+1.00,+0.00,-2.00,+5.00,+8.00,-6.00
-12.00,-3.00,-1.00,+1.00,+1.00,+1.00,+1.00,+4.00,-2.00,-3.00,-1.00,+2.00,+7.00,-5.00,-7.00,-11.00
+0.00,-10.00,-2.00,-1.00,-4.00,-6.00,+1.00,-5.00,-1.00,-3.00,-3.00,-16.00,-17.00,-7.00,-7.00,+0.00
+22.00,+15.00,+5.00,+0.00,-1.00,+1.00,-2.00,+2.00,-10.00,-7.00,-1.00,+4.00,+3.00,+0.00,-5.00,+8.00
+0.00,-4.00,-1.00,+2.00,+11.00,+4.00,-1.00,-10.00,+2.00,+3.00,+5.00,+2.00,-5.00,-1.00,+8.00,+4.00
-1.00,+4.00,+2.00,+3.00,+8.00,+0.00,+0.00,+0.00,+2.00,+0.00,-1.00,-1.00,+1.00,+4.00,+2.00,+3.00
-12.00,-5.00,-4.00,-1.00,+0.00,+0.00,+6.00,+11.00,+5.00,+1.00,+0.00,+0.00,-2.00,+0.00,+1.00,-4.00
+3.00,-3.00,+0.00,+3.00,-6.00,-3.00,-4.00,+0.00,+3.00,+11.00,+5.00,+3.00,+3.00,+0.00,+6.00,-1.00
+6.00,-1.00,-3.00,-7.00,-6.00,-3.00,+5.00,-1.00,-8.00,-8.00,-4.00,+6.00,+18.00,+2.00,-3.00,+20.00
+8.00,+2.00,+1.00,+2.00,+2.00,+4.00,+4.00,+15.00,-10.00,-10.00,-4.00,-15.00,-21.00,-2.00,-5.00,-28.00
-7.00,+0.00,+0.00,-1.00,-4.00,-2.00,-2.00,-6.00,+4.00,-3.00,+1.00,+2.00,+0.00,-1.00,+3.00,+9.00
-13.00,-6.00,-5.00,-12.00,-18.00,-12.00,-11.00,-16.00,-4.00,+0.00,-1.00,-4.00,-5.00,+1.00,+0.00,+0.00
+1.00,+0.00,+2.00,+10.00,+23.00,+9.00,+2.00,+10.00,-5.00,+8.00,-4.00,-13.00,-4.00,-11.00,-9.00,-14.00
+10.00,-2.00,-2.00,+3.00,+16.00,+1.00,+0.00,-16.00,-3.00,-10.00,-5.00,+5.00,+1.00,-5.00,-2.00,+6.00
-3.00,+6.00,+0.00,-4.00,-8.00,-6.00,-4.00,-6.00,+1.00,+2.00,-2.00,+5.00,+11.00,+0.00,-2.00,-1.00
+13.00,+1.00,+0.00,+6.00,+12.00,+13.00,+20.00,+26.00,+6.00,+7.00,+0.00,-12.00,-12.00,-5.00,-2.00,-3.00
-11.00,-4.00,-6.00,-3.00,-5.00,-17.00,-12.00,-18.00,-4.00,-7.00,-6.00,-2.00,-1.00,-1.00,-5.00,+0.00
+6.00,+0.00,-2.00,-8.00,-8.00,+8.00,+2.00,+4.00,-13.00,-3.00,-3.00,+4.00,+5.00,-1.00,+1.00,-3.00
-3.00,-4.00,-3.00,-5.00,-8.00,-2.00,-1.00,-8.00,-2.00,-6.00,-5.00,-15.00,-18.00,-5.00,-4.00,-14.00
+5.00,+5.00,+1.00,+5.00,+7.00,+2.00,+0.00,-7.00,-11.00,-7.00,-16.00,-28.00,-16.00,-4.00,+2.00,-3.00
+8.00,+0.00,+3.00,+3.00,+1.00,+12.00,+8.00,-7.00,+10.00,+7.00,+12.00,+0.00,+0.00,+5.00,+5.00,+12.00
-16.00,-5.00,-4.00,-8.00,-18.00,-26.00,-12.00,-19.00,+7.00,+4.00,-8.00,-10.00,-8.00,-5.00,-4.00,+1.00
+2.00,-1.00,-1.00,+0.00,-11.00,-9.00,-4.00,-5.00,+9.00,+8.00,+7.00,+16.00,+16.00,+13.00,+9.00,+0.00
-1.00,-3.00,-3.00,-2.00,+6.00,+4.00,-6.00,+2.00,-6.00,+2.00,+12.00,+15.00,+4.00,+2.00,+2.00,+4.00
-9.00,-2.00,-1.00,-9.00,-24.00,-7.00,+12.00,+8.00,-7.00,-6.00,-5.00,-9.00,-7.00,+0.00,-1.00,-13.00
-2.00,-2.00,-3.00,+6.00,+23.00,-8.00,-14.00,+4.00,-1.00,-1.00,-5.00,-4.00,-7.00,-1.00,-4.00,-6.00
-10.00,+0.00,+6.00,+12.00,+7.00,+10.00,-2.00,-16.00,-10.00,+3.00,+0.00,+23.00,+31.00,-7.00,-14.00,-12.00
+3.00,+2.00,-2.00,-3.00,-2.00,-1.00,-5.00,-10.00,+14.00,+5.00,+14.00,+23.00,+22.00,+17.00,+22.00,+10.00
-5.00,+2.00,+0.00,+5.00,+2.00,+2.00,+1.00,+5.00,-5.00,-7.00,-7.00,-2.00,-11.00,-13.00,+7.00,+4.00
-3.00,+0.00,-2.00,-9.00,-20.00,-10.00,+2.00,+11.00,+3.00,+0.00,-1.00,+5.00,+5.00,-2.00,-2.00,+1.00
-2.00,-5.00,-3.00,-2.00,+0.00,+5.00,+2.00,+0.00,+3.00,+3.00,+12.00,+11.00,-9.00,-1.00,-6.00,+4.00
-15.00,-6.00,-2.00,-4.00,+2.00,+0.00,-2.00,-7.00,-8.00,-10.00,-13.00,-7.00,+17.00,+3.00,+4.00,-4.00
+11.00,+3.00,+0.00,-7.00,-15.00,-5.00,-10.00,+9.00,+2.00,+4.00,+5.00,+4.00,-21.00,-12.00,+1.00,+1.00
+0.00,+1.00,+4.00,+10.00,-1.00,+4.00,+1.00,+8.00,-12.00,-5.00,-12.00,-7.00,-4.00,+0.00,+1.00,-7.00
+2.00,+3.00,-2.00,-7.00,-3.00,-2.00,+67.00,+18.00,+5.00,+2.00,+4.00,+6.00,+14.00,-7.00,-13.00,-5.00
-9.00,-3.00,-2.00,-4.00,-9.00,+10.00,+32.00,-12.00,+5.00,-1.00,-1.00,-22.00,-26.00,-3.00,-5.00,+7.00
+20.00,+9.00,+2.00,+5.00,+8.00,-1.00,-1.00,+42.00,-1.00,+1.00,-2.00,+3.00,+12.00,+22.00,+8.00,-2.00
+4.00,+0.00,-2.00,+0.00,-3.00,+3.00,-2.00,+4.00,+3.00,+0.00,+17.00,+23.00,-1.00,-9.00,+1.00,+28.00
-9.00,-1.00,+0.00,+0.00,+32.00,-12.00,-9.00,-6.00,-9.00,-7.00,-9.00,-17.00,-21.00,+3.00,+3.00,-32.00
-4.00,+0.00,+3.00,+10.00,+18.00,+17.00,+18.00,+5.00,-13.00,-2.00,+8.00,+20.00,-2.00,-6.00,-10.00,+4.00
-14.00,-5.00,-4.00,-9.00,-1.00,+15.00,+19.00,+23.00,+4.00,-11.00,-32.00,-33.00,-9.00,-27.00,-23.00,-15.00
+4.00,-6.00,+0.00,-4.00,-43.00,-13.00,+45.00,+11.00,+36.00,+22.00,+19.00,-4.00,-7.00,-3.00,-2.00,+12.00
+2.00,+6.00,+2.00,+4.00,+16.00,+15.00,-7.00,-6.00,+4.00,-3.00,-5.00,-6.00,-3.00,+5.00,+7.00,+37.00
-3.00,-7.00,-2.00,-9.00,-20.00,-41.00,+0.00,+6.00,-5.00,-7.00,-3.00,-1.00,+0.00,+0.00,+3.00,+9.00
-8.00,+1.00,+1.00,+6.00,+50.00,+76.00,+2.00,-20.00,-29.00,-10.00,+5.00,+12.00,+6.00,-1.00,-14.00,-25.00
+14.00,+7.00,+3.00,-14.00,-54.00,-10.00,+23.00,+22.00,+1.00,-9.00,-6.00,+1.00,+13.00,+8.00,-3.00,+11.00
-3.00,-4.00,-3.00,+2.00,+10.00,+40.00,-34.00,-4.00,-7.00,-5.00,+13.00,-19.00,-33.00,-23.00,-13.00,-44.00
+2.00,+0.00,+4.00,+11.00,+8.00,-13.00,-26.00,-3.00,-11.00,-3.00,-4.00,+2.00,+12.00,-2.00,-8.00,-21.00
-9.00,-10.00,-3.00,+1.00,-6.00,+13.00,-33.00,-30.00,+0.00,-5.00,-6.00,-22.00,-12.00,-12.00,+3.00,+11.00
-13.00,-5.00,-9.00,-30.00,-27.00,+3.00,+32.00,+2.00,-2.00,-2.00,-7.00,-16.00,-4.00,+0.00,-21.00,-14.00
-11.00,-11.00,-9.00,-25.00,-35.00,-1.00,-27.00,+5.00,-24.00,-21.00,-11.00,+2.00,+6.00,+0.00,+9.00,-12.00
+10.00,+11.00,+5.00,+16.00,+39.00,+41.00,+40.00,+13.00,+15.00,+13.00,+15.00,+1.00,-6.00,+8.00,-4.00,+18.00
-1.00,+0.00,-3.00,-11.00,-69.00,-33.00,-12.00,-5.00,-5.00,+2.00,+18.00,+46.00,+68.00,+12.00,+9.00,-24.00
-14.00,-7.00,-3.00,+0.00,+25.00,+27.00,+10.00,+1.00,-11.00,-10.00,-34.00,-70.00,-65.00,-12.00,-3.00,-6.00
-1.00,+2.00,+8.00,+16.00,+26.00,+15.00,+60.00,+9.00,+6.00,+3.00,+4.00,+10.00,+20.00,+11.00,+3.00,+39.00
-13.00,-1.00,-5.00,-16.00,-31.00,-13.00,+52.00,+1.00,-17.00,-16.00,-21.00,-22.00,-28.00,-10.00,-16.00,-58.00
-13.00,-3.00,-2.00,-11.00,-45.00,-41.00,+18.00,-6.00,+3.00,+9.00,+0.00,-16.00,-40.00,-14.00,-44.00,+2.00
+2.00,-4.00,+6.00,+29.00,+60.00,+12.00,-7.00,+3.00,-6.00,-5.00,+4.00,+7.00,+30.00,-20.00,+0.00,-6.00
+15.00,+4.00,+0.00,+3.00,-4.00,-7.00,-19.00,+3.00,+10.00,+8.00,+3.00,+43.00,+17.00,-11.00,+14.00,+14.00
+12.00,+3.00,-2.00,-15.00,-21.00,-34.00,-17.00,+11.00,-19.00,-18.00,-48.00,-96.00,-71.00,+6.00,-36.00,-18.00
+2.00,-5.00,-8.00,-10.00,-31.00,-44.00,+43.00,+10.00,+2.00,+4.00,+3.00,-44.00,-41.00,+6.00,+20.00,+11.00
-1.00,+2.00,+7.00,+38.00,+86.00,+62.00,-34.00,-9.00,+7.00,+1.00,-10.00,+3.00,-10.00,-42.00,-46.00,+4.00
-7.00,-4.00,-8.00,-22.00,-33.00,-43.00,-26.00,+27.00,+4.00,+2.00,+3.00,+23.00,+30.00,-8.00,-31.00,-1.00
-2.00,+0.00,+1.00,-10.00,-34.00,+16.00,-39.00,-12.00,+11.00,+7.00,+8.00,+26.00,+24.00,+12.00,-40.00,+16.00
-12.00,-9.00,+0.00,+5.00,+26.00,+15.00,-16.00,-2.00,-10.00,-3.00,-5.00,+2.00,+2.00,-17.00,+12.00,-14.00
+5.00,+6.00,+1.00,+5.00,+17.00,-3.00,-36.00,-10.00,+5.00,+11.00,-14.00,-63.00,-51.00,+22.00,+20.00,-2.00
-16.00,-15.00,-8.00,-11.00,-15.00,-10.00,+45.00,+2.00,+20.00,+18.00,+36.00,+22.00,+14.00,-34.00,+9.00,+20.00
-4.00,-7.00,-6.00,-8.00,-14.00,-10.00,-38.00,-17.00,-8.00,+0.00,+18.00,+33.00,+17.00,+45.00,+34.00,+12.00
+0.00,+13.00,+4.00,+3.00,+1.00,-3.00,-48.00,-9.00,+7.00,-12.00,-7.00,-3.00,+2.00,+60.00,+4.00,-1.00
+4.00,+3.00,+2.00,-6.00,-36.00,-22.00,-72.00,-9.00,+11.00,+12.00,+33.00,+34.00,+28.00,+78.00,+20.00,+19.00
+13.00,+10.00,+10.00,+24.00,+10.00,+0.00,-2.00,-2.00,+4.00,-8.00,-24.00,-27.00,-32.00,-84.00,+42.00,+1.00
-10.00,-6.00,-5.00,-13.00,-10.00,-59.00,-20.00,-7.00,-12.00,-9.00,-36.00,-16.00,+17.00,+0.00,+29.00,-17.00
-2.00,-7.00,-1.00,+11.00,+34.00,+14.00,+54.00,-17.00,+20.00,+18.00,+46.00,+47.00,+2.00,+13.00,+32.00,+43.00
-13.00,+1.00,-3.00,-8.00,-11.00,-35.00,+46.00,+2.00,-34.00,-15.00,-7.00,+7.00,+20.00,-4.00,-35.00,-41.00
+1.00,-6.00,-10.00,-21.00,-27.00,+4.00,+43.00,-1.00,+1.00,+2.00,+1.00,+39.00,+37.00,+2.00,+2.00,+4.00
-18.00,-10.00,-2.00,+2.00,-6.00,-1.00,-23.00,-22.00,-4.00,-4.00,+8.00,+80.00,+48.00,+14.00,+12.00,+2.00
+30.00,+12.00,+2.00,-1.00,+3.00,-22.00,+50.00,+29.00,-8.00,-9.00,-2.00,+11.00,+36.00,+96.00,+19.00,+7.00
+6.00,+5.00,+4.00,+1.00,-19.00,-31.00,-35.00,-20.00,+2.00,-3.00,-8.00,+0.00,-4.00,+65.00,+47.00,+1.00
-22.00,-11.00,-6.00,-13.00,-33.00,-18.00,-2.00,-24.00,-11.00,-1.00,-25.00,-13.00,+2.00,-41.00,-60.00,-21.00
-3.00,+5.00,+5.00,+24.00,+60.00,+9.00,-32.00,+17.00,+17.00,+12.00,+44.00,+62.00,+31.00,-31.00,+11.00,+20.00
+3.00,-6.00,-3.00,-2.00,+11.00,+1.00,+2.00,+7.00,+19.00,+19.00,+15.00,+11.00,+11.00,+15.00,+8.00,+2.00
-2.00,-5.00,-10.00,-18.00,+9.00,+21.00,+19.00,-3.00,-4.00,+1.00,+15.00,+41.00,+43.00,+0.00,-23.00,+7.00
+9.00,+9.00,+1.00,-6.00,+0.00,-59.00,-1.00,+6.00,+0.00,-3.00,-5.00,-16.00,-2.00,+60.00,+37.00,-6.00
+34.00,+14.00,+12.00,+21.00,+21.00,+35.00,-22.00,+24.00,-10.00,-6.00,-8.00,-35.00,-33.00,-8.00,-30.00,-6.00
+5.00,+5.00,+8.00,+11.00,+13.00,+35.00,-95.00,+0.00,-18.00,-17.00,-32.00,-29.00,-23.00,-42.00,-38.00,-26.00
+5.00,+1.00,+4.00,+15.00,+30.00,+38.00,+3.00,+7.00,-1.00,+2.00,+16.00,+40.00,+73.00,-33.00,-13.00,-7.00
+0.00,-1.00,+2.00,+11.00,+19.00,-8.00,-22.00,-1.00,-19.00,-13.00,-16.00,-48.00,-63.00,-17.00,-7.00,-13.00
-4.00,-4.00,-6.00,-9.00,-45.00,+8.00,-45.00,-20.00,+22.00,+12.00,+7.00,+7.00,+6.00,-8.00,+25.00,+24.00
+20.00,+16.00,+7.00,+24.00,+61.00,+50.00,+32.00,+10.00,+9.00,+6.00,-11.00,-25.00,+5.00,-68.00,-30.00,+2.00
-12.00,-10.00,-3.00,-6.00,-18.00,+5.00,-41.00,-13.00,+10.00,+4.00,+7.00,+21.00,-24.00,-52.00,+53.00,+22.00
-3.00,+8.00,-1.00,+1.00,-7.00,-22.00,-26.00,-11.00,-47.00,-24.00,-56.00,-63.00,-41.00,+27.00,-25.00,-56.00
+7.00,+1.00,-4.00,-6.00,-7.00,-21.00,-28.00,-11.00,-13.00,-4.00,+18.00,+5.00,-40.00,+47.00,+21.00,-12.00
-11.00,-8.00,-4.00,-15.00,-27.00,-34.00,-66.00,-14.00,+42.00,+3.00,-11.00,-6.00,-2.00,+15.00,+3.00,+29.00
-24.00,-20.00,-5.00,-13.00,-34.00,-14.00,+1.00,-13.00,-10.00,-11.00,-15.00,+9.00,+5.00,-6.00,+9.00,-19.00
+12.00,+7.00,-2.00,+7.00,+25.00,+13.00,-58.00,-16.00,+37.00,+18.00,+6.00,-61.00,-80.00,-73.00,+3.00,+45.00
-18.00,+1.00,+2.00,-10.00,-38.00,-1.00,+76.00,+15.00,-14.00,-2.00,-14.00,-33.00,+2.00,-53.00,-7.00,-9.00
+6.00,+9.00,-4.00,-1.00,-2.00,-14.00,+22.00,+0.00,-19.00,-9.00,-2.00,+20.00,-6.00,+10.00,-11.00,+13.00
+6.00,+3.00,-8.00,-13.00,-23.00,-63.00,-37.00,-11.00,-49.00,-36.00,-36.00,-9.00,-20.00,-56.00,-30.00,-76.00
+8.00,-10.00,+6.00,+10.00,-32.00,+32.00,+3.00,-4.00,+32.00,+20.00,+42.00,+47.00,+33.00,+109.00,-7.00,+29.00
-11.00,-16.00,-5.00,-5.00,+15.00,+5.00,+4.00,-12.00,+5.00,-3.00,-9.00,-35.00,-31.00,-99.00,-29.00,+5.00
-13.00,-11.00,-1.00,-3.00,-14.00,-28.00,-4.00,-4.00,-5.00,+0.00,-5.00,-27.00,-36.00,+5.00,+2.00,-13.00
+12.00,+20.00,+2.00,+5.00,+16.00,+0.00,+25.00,+7.00,-6.00,-2.00,+4.00,+10.00,-1.00,-23.00,-38.00,+3.00
-10.00,-4.00,-4.00,-12.00,-24.00,+7.00,+28.00,+5.00,-32.00,-15.00,+1.00,+35.00,+30.00,+9.00,-72.00,-61.00
-13.00,-7.00,-1.00,+4.00,+49.00,+25.00,+25.00,+8.00,+23.00,+7.00,+1.00,-11.00,+5.00,+23.00,+18.00,+1.00
-2.00,-15.00,-3.00,+2.00,+7.00,-6.00,-4.00,+0.00,+5.00,+7.00,+9.00,+42.00,+37.00,-40.00,+10.00,+1.00
+15.00,+12.00,+6.00,+7.00,-2.00,+3.00,-3.00,+14.00,-5.00,-3.00,-3.00,+9.00,-8.00,+21.00,+30.00,+13.00
-5.00,-2.00,-9.00,-14.00,-6.00,-31.00,+0.00,-5.00,+5.00,+14.00,+36.00,+29.00,+38.00,+31.00,+28.00,+17.00
-1.00,+1.00,+0.00,+0.00,+10.00,+5.00,+28.00,+4.00,+3.00,-6.00,+1.00,+17.00,+20.00,-15.00,-78.00,-37.00
-19.00,-16.00,-11.00,-31.00,-42.00,-35.00,+10.00,-3.00,-54.00,-18.00,-15.00,-11.00,-17.00,-54.00,-15.00,-22.00
-23.00,-22.00,-6.00,+4.00,+9.00,+3.00,+24.00,+2.00,+41.00,-2.00,-19.00,-50.00,-46.00,-42.00,+4.00,+1.00
+18.00,+17.00,+6.00,+5.00,+21.00,+1.00,-1.00,+12.00,+19.00,+11.00,+18.00,+27.00,+4.00,-5.00,+35.00,+69.00
-1.00,-5.00,-8.00,-11.00,+1.00,-23.00,-25.00,-8.00,-25.00,-8.00,-12.00,-14.00,+15.00,+74.00,+32.00,-5.00
-25.00,-14.00,-6.00,-18.00,-38.00,-37.00,-61.00,-8.00,+29.00,+16.00,-3.00,+2.00,-5.00,+3.00,+5.00,+26.00
+19.00,+19.00,+4.00,+5.00,+17.00,+14.00,+1.00,+7.00,-18.00,+0.00,+3.00,-24.00,-62.00,-11.00,-2.00,-1.00
+3.00,-1.00,+7.00,+18.00,+12.00,+39.00,-4.00,+7.00,+20.00,+1.00,-8.00,-10.00,+2.00,+20.00,+2.00,-11.00
-1.00,-1.00,-3.00,+4.00,-4.00,-31.00,-14.00,-12.00,-42.00,-7.00,-9.00,+3.00,-22.00,-78.00,-27.00,-7.00
-12.00,-4.00,-4.00,+0.00,+17.00,+34.00,-9.00,-16.00,+10.00,-19.00,-12.00,-2.00,+10.00,+50.00,+7.00,+13.00
-25.00,-15.00,+1.00,+1.00,-9.00,-4.00,-30.00,-9.00,+1.00,+6.00,+16.00,+44.00,+88.00,+48.00,+9.00,+3.00
-3.00,-7.00,-2.00,-5.00,+1.00,-37.00,-17.00,+6.00,+6.00,-5.00,-16.00,-28.00,-36.00,-93.00,-6.00,-8.00
+11.00,+4.00,+0.00,-2.00,-3.00,-4.00,-17.00,+6.00,+7.00,+4.00,+5.00,+13.00,+3.00,+34.00,+16.00,+10.00
-2.00,-3.00,-1.00,+5.00,+6.00,+2.00,+15.00,+1.00,-15.00,+2.00,+2.00,-3.00,+16.00,+22.00,+2.00,-22.00
-8.00,-6.00,-8.00,-9.00,+11.00,+2.00,+8.00,+6.00,+5.00,+5.00,+8.00,+13.00,+8.00,-24.00,-14.00,+1.00
+5.00,+9.00,+0.00,-10.00,-22.00,+5.00,-2.00,-4.00,-5.00,-4.00,-16.00,-61.00,-6.00,+50.00,+7.00,+9.00
-17.00,-15.00,-2.00,+2.00,-5.00,+8.00,-15.00,+0.00,+9.00,+9.00,+2.00,-12.00,-16.00,+25.00,+28.00,+19.00
+28.00,+11.00,-2.00,-11.00,-18.00,+2.00,+36.00,+1.00,+4.00,-3.00,-1.00,-5.00,-1.00,-31.00,+13.00,-7.00
+6.00,+6.00,+2.00,+11.00,+20.00,+10.00,+30.00,+8.00,+19.00,+15.00,+11.00,+14.00,+36.00,+49.00,+19.00,+30.00
-5.00,+0.00,+1.00,+3.00,+14.00,+22.00,+12.00,-2.00,-53.00,-15.00,-4.00,-4.00,-25.00,+26.00,-6.00,-28.00
-8.00,-6.00,-5.00,-11.00,-17.00,+6.00,+9.00,-2.00,+39.00,+1.00,-6.00,+1.00,-5.00,-43.00,+17.00,+29.00
+5.00,-3.00,+1.00,+4.00,-10.00,-6.00,-7.00,+6.00,+2.00,+9.00,+22.00,+65.00,+59.00,+31.00,+13.00,+22.00
+0.00,+6.00,-2.00,-9.00,-7.00,+25.00,+8.00,-3.00,+5.00,+7.00,+9.00,+4.00,-12.00,+21.00,-9.00,+0.00
+13.00,-5.00,+1.00,+13.00,+28.00,+0.00,-24.00,-1.00,-8.00,-5.00,-16.00,-11.00,-2.00,-27.00,+24.00,+2.00
+11.00,+3.00,+4.00,+6.00,+0.00,+29.00,+60.00,+7.00,-9.00,-7.00,-17.00,-30.00,+2.00,+15.00,-32.00,-18.00
-1.00,+14.00,+6.00,+13.00,+33.00,+22.00,+16.00,-2.00,+10.00,-1.00,-12.00,-21.00,-30.00,-43.00,-17.00,+3.00
+7.00,-4.00,+1.00,-3.00,+3.00,-7.00,-5.00,+4.00,-9.00,+5.00,+9.00,+7.00,-2.00,+32.00,+16.00,-31.00
-8.00,-3.00,-2.00,-5.00,+5.00,+2.00,+56.00,+8.00,+12.00,+1.00,+1.00,+19.00,+7.00,-33.00,+10.00,+35.00
-10.00,+5.00,+3.00,+3.00,+11.00,+9.00,-35.00,-16.00,-8.00,-3.00,+3.00,-6.00,+20.00,-24.00,+0.00,-6.00
+14.00,+3.00,+2.00,+5.00,+5.00,+9.00,+18.00,+6.00,-9.00,+0.00,+5.00,-8.00,-32.00,-4.00,+12.00,+16.00
+5.00,+0.00,-1.00,-4.00,-20.00,-12.00,+24.00,+2.00,+52.00,+16.00,+9.00,+0.00,-8.00,+16.00,+11.00,+33.00
-14.00,-12.00,+1.00,+12.00,+55.00,+22.00,-8.00,-2.00,-2.00,+0.00,-6.00,+4.00,-5.00,-7.00,+2.00,-22.00
-1.00,+3.00,+1.00,+0.00,+3.00,-11.00,+32.00,+3.00,+16.00,+9.00,+13.00,+36.00,+1.00,+10.00,-11.00,-1.00
-6.00,-2.00,+0.00,+1.00,-3.00,-4.00,+6.00,+1.00,-28.00,-7.00,+11.00,-4.00,-7.00,-18.00,-25.00,-25.00
+12.00,+5.00,-3.00,-3.00,-3.00,+6.00,+8.00,+8.00,-20.00,-9.00,-7.00,-14.00,-1.00,+7.00,+3.00,+6.00
-4.00,-2.00,-4.00,-10.00,-25.00,-3.00,-3.00,-11.00,+21.00,-5.00,-4.00,+3.00,-9.00,-1.00,-1.00,-5.00
-2.00,-2.00,+1.00,+4.00,+9.00,+14.00,+20.00,+0.00,+12.00,+11.00,+8.00,+18.00,+6.00,+22.00,-16.00,+14.00
-7.00,-4.00,+0.00,-2.00,-6.00,-10.00,-1.00,-4.00,-16.00,-7.00,-10.00,+14.00,+32.00,-17.00,-12.00,-25.00
-11.00,-12.00,-6.00,-6.00,+0.00,-27.00,-24.00,-20.00,-16.00,-4.00,+0.00,-7.00,-1.00,+50.00,+10.00,-14.00
-2.00,+3.00,+1.00,+2.00,+2.00,+17.00,+0.00,-4.00,+18.00,+10.00,+16.00,+39.00,+50.00,+2.00,-2.00,+11.00
+3.00,+4.00,-2.00,-5.00,-8.00,-26.00,-9.00,-5.00,-17.00,-5.00,-5.00,-4.00,+12.00,-13.00,+6.00,-10.00
-9.00,-7.00,-7.00,-16.00,-25.00,-4.00,-7.00,-11.00,-1.00,-7.00,-20.00,-27.00,-11.00,+3.00,-12.00,-24.00
+12.00,+2.00,+5.00,+8.00,+15.00,+21.00,+23.00,+17.00,+1.00,-2.00,+0.00,-12.00,-11.00,-10.00,+19.00,+10.00
+2.00,-2.00,-1.00,-1.00,-6.00,-7.00,-24.00,-7.00,-33.00,-14.00,-24.00,-66.00,-66.00,-9.00,-29.00,-7.00
-2.00,-4.00,-4.00,-1.00,-8.00,-1.00,-8.00,+2.00,+5.00,-1.00,-2.00,-2.00,-17.00,-8.00,+10.00,-4.00
-13.00,+0.00,-4.00,-5.00,+1.00,-14.00,+13.00,+8.00,-2.00,-1.00,-6.00,-4.00,+1.00,+3.00,+27.00,-15.00
+5.00,+4.00,+1.00,+0.00,-13.00,-9.00,-4.00,-3.00,+1.00,-3.00,-7.00,-15.00,-12.00,-83.00,-32.00,+12.00
+4.00,+7.00,+0.00,+2.00,+12.00,+7.00,-6.00,+4.00,+22.00,+11.00,+10.00,+13.00,+27.00,+6.00,+2.00,-4.00
+5.00,+1.00,+0.00,-2.00,-3.00,+9.00,+20.00,+7.00,-7.00,-4.00,+0.00,+4.00,+0.00,+5.00,+22.00,-1.00
+3.00,+3.00,+4.00,+5.00,-1.00,-14.00,+13.00,+8.00,-4.00,-6.00,-3.00,-6.00,-10.00,+0.00,-14.00,+9.00
-7.00,-3.00,-2.00,-1.00,+4.00,+10.00,-3.00,-6.00,-18.00,-6.00,+0.00,+13.00,+2.00,+4.00,-17.00,-24.00
-17.00,-19.00,-4.00,-2.00,-15.00,-5.00,+9.00,+0.00,-16.00,-7.00,-3.00,-1.00,+13.00,+40.00,-17.00,-5.00
+13.00,+3.00,-1.00,+4.00,+7.00,+3.00,-8.00,-3.00,+31.00,+7.00,+1.00,-9.00,-15.00,+37.00,+11.00,+16.00
+11.00,+18.00,+4.00,+1.00,+0.00,+8.00,+14.00,+6.00,+11.00,+5.00,+11.00,+24.00,+35.00,+23.00,+14.00,-1.00
+6.00,+3.00,+1.00,-5.00,+22.00,+6.00,+5.00,+4.00,-4.00,+0.00,+1.00,-16.00,-30.00,-24.00,+0.00,+6.00
-4.00,+2.00,-1.00,+0.00,-2.00,+7.00,+0.00,-6.00,-1.00,+0.00,+4.00,-1.00,-19.00,+4.00,+20.00,+7.00
-4.00,-6.00,-2.00,-2.00,-2.00,+4.00,+2.00,+6.00,-10.00,-5.00,+2.00,+8.00,+17.00,-28.00,-25.00,-14.00
-2.00,-6.00,+0.00,+6.00,+11.00,+8.00,-17.00,-5.00,-13.00,-3.00,+1.00,-10.00,-7.00,-10.00,-24.00,-13.00
-10.00,-10.00,-5.00,-13.00,-25.00,-13.00,-32.00,+4.00,+10.00,+2.00,-1.00,-1.00,+8.00,+13.00,+2.00,+9.00
+17.00,+13.00,+6.00,+10.00,-3.00,+0.00,+26.00,+7.00,+6.00,-1.00,+1.00,+13.00,+5.00,+3.00,-13.00,+1.00
+10.00,+6.00,+3.00,+4.00,+6.00,-5.00,-4.00,+8.00,-10.00,-11.00,-1.00,+15.00,+2.00,-52.00,+4.00,-5.00
+14.00,+3.00,+3.00,+7.00,+12.00,+6.00,-16.00,+7.00,+13.00,+5.00,+0.00,-30.00,-24.00,+7.00,+10.00,+8.00
-6.00,+1.00,-1.00,+3.00,-4.00,-2.00,-9.00,-9.00,-11.00,+2.00,+0.00,+2.00,+6.00,-29.00,-4.00,-12.00
+0.00,-5.00,+0.00,-1.00,-2.00,-12.00,+3.00,+7.00,+10.00,-1.00,+1.00,+13.00,+8.00,+9.00,-2.00,+9.00
+2.00,+10.00,+2.00,+3.00,+6.00,+7.00,+8.00,+0.00,-12.00,-6.00,-5.00,-15.00,-19.00,+21.00,+3.00,-6.00
+6.00,+0.00,+2.00,+5.00,+2.00,+10.00,-1.00,-8.00,+1.00,-4.00,-4.00,+0.00,-9.00,-2.00,-2.00,-5.00
+2.00,+2.00,+2.00,-1.00,-6.00,-8.00,-3.00,-4.00,+3.00,+0.00,-5.00,+0.00,-6.00,-10.00,+19.00,+8.00
-7.00,+0.00,-2.00,-3.00,-3.00,-1.00,-11.00,-7.00,+10.00,-2.00,-8.00,-4.00,+6.00,+19.00,+9.00,-5.00
-2.00,-6.00,-5.00,+2.00,+1.00,+0.00,+8.00,-7.00,-4.00,+2.00,+8.00,+8.00,+28.00,+19.00,+5.00,-2.00
-6.00,-8.00,-6.00,-3.00,+12.00,+5.00,-2.00,+4.00,+3.00,+2.00,+1.00,-1.00,-2.00,+15.00,+10.00,+14.00
+2.00,-2.00,-1.00,+2.00,+0.00,+1.00,+13.00,-2.00,-1.00,+0.00,-4.00,-16.00,-13.00,+8.00,-12.00,+4.00
-6.00,-12.00,-4.00,-8.00,-13.00,-3.00,-7.00,+3.00,-13.00,-4.00,-2.00,-14.00,-11.00,-12.00,-9.00,-18.00
+1.00,+1.00,-2.00,+6.00,+23.00,+5.00,-8.00,-1.00,+6.00,-2.00,-7.00,-15.00,-7.00,-12.00,-12.00,+1.00
+7.00,+9.00,+3.00,+6.00,+2.00,-3.00,-4.00,+0.00,-4.00,+1.00,+2.00,+3.00,-10.00,-51.00,+8.00,+8.00
-3.00,-1.00,-1.00,+0.00,-4.00,-1.00,+5.00,+0.00,-11.00,-12.00,-1.00,-6.00,-6.00,+11.00,-1.00,-7.00
+1.00,+9.00,-3.00,-5.00,+0.00,-9.00,-13.00,-6.00,-3.00,-6.00,-3.00,+10.00,-3.00,-29.00,+0.00,-12.00
-5.00,-6.00,+1.00,-4.00,-11.00,-3.00,-19.00,-12.00,+2.00,+1.00,+0.00,-7.00,+5.00,-1.00,-5.00,+5.00
-4.00,-3.00,-2.00,+1.00,+5.00,+11.00,+16.00,+4.00,-4.00,-3.00,-6.00,-7.00,-6.00,+0.00,+0.00,-10.00
+0.00,-4.00,+1.00,+2.00,+1.00,-3.00,+11.00,+3.00,-15.00,-4.00,+2.00,+5.00,+2.00,-14.00,+17.00,-2.00
-2.00,-3.00,+0.00,-4.00,-12.00,-4.00,-12.00,-9.00,+6.00,+1.00,+3.00,-2.00,-8.00,+17.00,-1.00,-3.00
+12.00,+9.00,+3.00,+1.00,+4.00,+5.00,+22.00,+15.00,-1.00,-3.00,-5.00,-13.00,-17.00,-2.00,+12.00,-1.00
-20.00,-9.00,-8.00,-13.00,-29.00,-13.00,-16.00,-6.00,+2.00,+2.00,+0.00,+8.00,-2.00,-1.00,+1.00,+4.00
+23.00,+3.00,+0.00,-3.00,-2.00,+17.00,-1.00,-1.00,+5.00,+0.00,-2.00,+7.00,+12.00,+7.00,+1.00,-4.00
-5.00,-2.00,-1.00,-1.00,+4.00,+2.00,+0.00,+7.00,-12.00,-3.00,-1.00,+4.00,+14.00,+10.00,-2.00,-15.00
+6.00,+0.00,+0.00,-1.00,+1.00,-2.00,-2.00,+5.00,+0.00,+1.00,-2.00,+1.00,-6.00,-16.00,+3.00,+12.00
-5.00,-7.00,-1.00,-2.00,-2.00,-1.00,+0.00,+13.00,+9.00,-1.00,+3.00,+1.00,+0.00,+26.00,-6.00,-5.00
-2.00,+7.00,+0.00,+2.00,-1.00,-5.00,-2.00,-7.00,+17.00,+7.00,+4.00,+27.00,+23.00,+3.00,-11.00,+4.00
+7.00,+6.00,+1.00,-2.00,+4.00,-4.00,-12.00,-42.00,-22.00,-11.00,-17.00,-35.00,-12.00,-11.00,-4.00,-8.00
+2.00,+0.00,-1.00,-6.00,-11.00,+0.00,+3.00,+12.00,-8.00,-3.00,+1.00,+1.00,+0.00,+6.00,+6.00,-4.00
-11.00,-12.00,-5.00,-3.00,-5.00,-1.00,-6.00,-8.00,+15.00,+3.00,-1.00,-20.00,-11.00,+30.00,+6.00,+16.00
-9.00,-10.00,-5.00,-1.00,+3.00,-9.00,-5.00,-2.00,+5.00,-4.00,-4.00,+2.00,+9.00,+5.00,-2.00,+5.00
+12.00,+10.00,-2.00,-2.00,+2.00,+0.00,-2.00,+4.00,-5.00,+1.00,+2.00,+8.00,+1.00,-10.00,+6.00,-2.00
-9.00,-6.00,-3.00,-2.00,-7.00,-2.00,-3.00,-7.00,-2.00,-4.00,-6.00,-6.00,-3.00,+20.00,-15.00,-7.00
-10.00,-7.00,-3.00,+0.00,+3.00,-1.00,-6.00,+3.00,+10.00,+9.00,+8.00,+10.00,+7.00,+4.00,-1.00,+4.00
-1.00,+5.00,+1.00,-4.00,-14.00,-11.00,-2.00,+2.00,-7.00,-7.00,-5.00,-4.00,-2.00,+3.00,-2.00,-2.00
-1.00,+0.00,-2.00,-1.00,-6.00,+1.00,-1.00,-2.00,-6.00,-1.00,-1.00,+0.00,+8.00,+64.00,+21.00,-4.00
-3.00,-10.00,-3.00,-3.00,-2.00,-3.00,-5.00,+0.00,+2.00,+3.00,+5.00,+11.00,-1.00,-9.00,-6.00,+7.00
+13.00,+11.00,+5.00,-1.00,-12.00,-2.00,-2.00,+0.00,-10.00,-3.00,-4.00,-2.00,-3.00,-12.00,-3.00,+2.00
-5.00,+5.00,+0.00,+2.00,+15.00,+1.00,+2.00,-9.00,+5.00,+0.00,-8.00,-15.00,-1.00,+4.00,-16.00,-3.00
-4.00,-1.00,+1.00,-3.00,-11.00,-7.00,-7.00,+10.00,-3.00,+0.00,+4.00,+0.00,-2.00,-6.00,-11.00,-3.00
-11.00,-6.00,-6.00,-5.00,-2.00,+1.00,-5.00,-11.00,+1.00,-7.00,-8.00,-4.00,+1.00,+2.00,+5.00,-2.00
-3.00,-6.00,+0.00,+7.00,+24.00,+7.00,-9.00,-19.00,-7.00,+1.00,+4.00,+14.00,+17.00,-2.00,+1.00,-5.00
-1.00,-4.00,-2.00,-2.00,+0.00,-2.00,-2.00,+1.00,-10.00,-9.00,-10.00,-35.00,-29.00,-12.00,-3.00,+0.00
-5.00,-4.00,+2.00,+4.00,+3.00,+6.00,+1.00,+5.00,-7.00,+3.00,+2.00,+6.00,+9.00,-24.00,-7.00,-5.00
-7.00,-7.00,-2.00,-5.00,-9.00,-4.00,-2.00,-4.00,+20.00,+5.00,-2.00,-16.00,-10.00,-1.00,+3.00,+7.00
-5.00,-3.00,-1.00,-5.00,-5.00,-2.00,+0.00,-7.00,-25.00,-6.00,+3.00,+25.00,+12.00,-10.00,+0.00,+3.00
-6.00,+7.00,+0.00,-6.00,-10.00,-3.00,-2.00,+31.00,+19.00,+8.00,+3.00,-5.00,-6.00,+7.00,+5.00,+1.00
+2.00,-3.00,+0.00,+3.00,+8.00,+5.00,+9.00,-10.00,+8.00,+4.00,+3.00,+4.00,+3.00,-7.00,-13.00,+2.00
+5.00,+5.00,+0.00,-5.00,-11.00,-5.00,+2.00,+27.00,-4.00,+2.00,-1.00,-14.00,-9.00,-2.00,+3.00,+0.00
-1.00,+12.00,+6.00,+4.00,+8.00,+3.00,+0.00,-2.00,-17.00,-8.00,-2.00,-6.00,-9.00,+6.00,-5.00,-9.00
-10.00,-16.00,-5.00,-6.00,-6.00,-9.00,-5.00,+4.00,-20.00,+1.00,-1.00,+4.00,+1.00,-5.00,-11.00,-10.00
+0.00,-6.00,-4.00,-6.00,-11.00,+0.00,+7.00,-7.00,+1.00,-2.00,+5.00,+8.00,+1.00,-8.00,+0.00,-2.00
+5.00,+9.00,+1.00,+3.00,+1.00,+3.00,-2.00,-1.00,+10.00,+3.00,-1.00,+7.00,-13.00,-13.00,+0.00,-4.00
+0.00,-6.00,-3.00,+0.00,+7.00,-1.00,+2.00,-4.00,+9.00,-11.00,-9.00,-20.00,-9.00,+11.00,+15.00,+4.00
+11.00,+1.00,+2.00,+4.00,+2.00,+1.00,+4.00,-2.00,-5.00,+0.00,-2.00,-5.00,-9.00,+2.00,+2.00,-2.00
-17.00,-10.00,-3.00,-5.00,-3.00,-6.00,-3.00,+12.00,+4.00,+1.00,+3.00,+24.00,+24.00,-10.00,+4.00,+1.00
-1.00,+3.00,+1.00,-2.00,-13.00,-5.00,-3.00,-13.00,-20.00,-13.00,-14.00,-10.00,+7.00,-2.00,+3.00,-7.00
-3.00,+2.00,+2.00,+2.00,+5.00,+0.00,+0.00,+5.00,-6.00,-2.00,+4.00,-4.00,-9.00,-23.00,-14.00,-8.00
-1.00,-6.00,-2.00,+1.00,+2.00,+2.00,-6.00,-13.00,+14.00,+9.00,-1.00,-1.00,-1.00,+7.00,+3.00,+18.00
-7.00,-7.00,-5.00,+1.00,+4.00,-1.00,-3.00,+4.00,+13.00,+15.00,+6.00,+13.00,+12.00,+0.00,+3.00,+10.00
-11.00,-9.00,+0.00,+2.00,+3.00,-2.00,-6.00,-7.00,-16.00,-9.00,+1.00,+0.00,-1.00,+9.00,-6.00,-17.00
+4.00,+6.00,-3.00,-5.00,-14.00,-5.00,-2.00,-3.00,-5.00,+0.00,-4.00,-3.00,+0.00,-3.00,-5.00,-10.00
+0.00,+15.00,+6.00,+2.00,-5.00,-1.00,-2.00,-5.00,-22.00,+7.00,+0.00,+4.00,+3.00,+2.00,-4.00,-14.00
+14.00,+3.00,+1.00,-1.00,+2.00,+3.00,+6.00,+30.00,-9.00,-13.00,+0.00,+3.00,-4.00,-5.00,-3.00,+4.00
-13.00,-4.00,-2.00,-6.00,-16.00,-8.00,-16.00,-43.00,+20.00,-3.00,-2.00,-1.00,-1.00,+1.00,+7.00,+17.00
-7.00,-13.00,-6.00,-1.00,+11.00,+3.00,+3.00,+0.00,+10.00,-1.00,-2.00,-5.00,-3.00,+4.00,-2.00,-5.00
-1.00,-11.00,+0.00,+8.00,+20.00,+8.00,+13.00,+17.00,-13.00,-6.00,+1.00,-5.00,-11.00,-12.00,-9.00,-7.00
-14.00,+14.00,-2.00,-7.00,-8.00,-2.00,-7.00,+15.00,+16.00,+10.00,+2.00,+0.00,-5.00,-3.00,+5.00,+6.00
+17.00,+4.00,+1.00,+2.00,+4.00,+7.00,+3.00,+13.00,-29.00,-4.00,+0.00,-3.00,-4.00,-2.00,-7.00,-17.00
-9.00,-10.00,-4.00,-3.00,-1.00,-4.00,-6.00,-10.00,+23.00,-1.00,-2.00,+0.00,+2.00,+6.00,+0.00,+7.00
-3.00,-5.00,-3.00,-7.00,-17.00,-5.00,-6.00,-11.00,-1.00,+2.00,-2.00,-12.00,-7.00,+0.00,-4.00,+2.00
-2.00,-5.00,+1.00,+0.00,+4.00,-2.00,-1.00,-2.00,+8.00,-5.00,-2.00,-6.00,-15.00,-2.00,+3.00,+9.00
-2.00,-2.00,-3.00,-1.00,+1.00,-4.00,+0.00,+3.00,-13.00,-1.00,+1.00,+0.00,+4.00,-6.00,-8.00,-4.00
-3.00,+3.00,+1.00,-2.00,-11.00,-5.00,-4.00,-1.00,-10.00,+2.00,-4.00,-5.00,-5.00,+2.00,+2.00,-11.00
+2.00,+1.00,-1.00,+2.00,+3.00,+6.00,-1.00,+1.00,+2.00,+5.00,+5.00,+6.00,+4.00,-2.00,+1.00,-3.00
+14.00,+5.00,+0.00,+5.00,+2.00,-1.00,-2.00,-32.00,-8.00,-15.00,-12.00,-18.00,-9.00,-5.00,-5.00,-6.00
-3.00,-19.00,-8.00,-4.00,+2.00,+0.00,+2.00,-3.00,-10.00,-2.00,-7.00,-1.00,-1.00,+0.00,-3.00,-6.00
-10.00,+5.00,+4.00,+0.00,-6.00,-1.00,+3.00,+8.00,+16.00,+1.00,+2.00,-1.00,-4.00,-2.00,-2.00,+5.00
+5.00,+6.00,-1.00,-3.00,-1.00,-1.00,-3.00,-9.00,+2.00,-4.00,-3.00,-11.00,-7.00,-2.00,-4.00,+0.00
+5.00,+4.00,+2.00,+4.00,-7.00,-3.00,-3.00,-9.00,-22.00,-11.00,-4.00,+11.00,+17.00,+11.00,+11.00,-2.00
+0.00,+1.00,-1.00,-1.00,+2.00,-1.00,-2.00,+3.00,+12.00,+4.00,+3.00,+3.00,-4.00,-14.00,-15.00,-9.00
-5.00,-6.00,-6.00,-5.00,+1.00,+0.00,+1.00,-8.00,-5.00,-6.00,-10.00,-18.00,-8.00,-12.00,-8.00,+1.00
-13.00,-11.00,+0.00,+2.00,+1.00,-3.00,-4.00,-18.00,+16.00,+0.00,-4.00,-6.00,-5.00,-1.00,+5.00,+15.00
+8.00,+6.00,-1.00,-3.00,+2.00,+4.00,+2.00,+4.00,+8.00,+7.00,-1.00,-7.00,-6.00,-4.00,-7.00,-4.00
+12.00,+7.00,+4.00,+1.00,+1.00,+1.00,+7.00,+40.00,-4.00,-3.00,+3.00,+2.00,+0.00,+8.00,+10.00,+3.00
+5.00,+3.00,+0.00,-3.00,-2.00,-3.00,-4.00,-11.00,-18.00,+0.00,+0.00,+0.00,-8.00,-1.00,-3.00,-7.00
+2.00,-1.00,-2.00,-3.00,-14.00,-4.00,-3.00,-2.00,+29.00,+8.00,+5.00,+11.00,+10.00,+2.00,+3.00,+9.00
-15.00,-16.00,-4.00,-5.00,-1.00,-2.00,-8.00,-7.00,-3.00,-9.00,-7.00,-15.00,-18.00,-6.00,-6.00,-9.00
+1.00,+7.00,+2.00,+5.00,+12.00,+3.00,+9.00,+24.00,+2.00,+4.00,-3.00,-9.00,-1.00,+4.00,+4.00,+11.00
+15.00,+9.00,+0.00,+0.00,+3.00,+3.00,+1.00,+1.00,-12.00,-9.00,-3.00,+4.00,+3.00,+0.00,+0.00,-2.00
-9.00,-9.00,-5.00,-2.00,+1.00,-1.00,+0.00,-1.00,-35.00,-4.00,+6.00,+4.00,+0.00,+2.00,+0.00,-4.00
-14.00,-9.00,-4.00,-3.00,-4.00,-6.00,-4.00,-5.00,+36.00,+10.00,-1.00,-4.00,+1.00,-2.00,-2.00,+2.00
+19.00,+2.00,-1.00,+4.00,+2.00,+0.00,-3.00,-13.00,-2.00,-20.00,-16.00,-5.00,-9.00,-4.00,-5.00,-4.00
+7.00,+15.00,+3.00,+1.00,-3.00,-1.00,-2.00,+0.00,-23.00,-13.00,-5.00,+3.00,+0.00,+1.00,+0.00,-5.00
-7.00,-7.00,-5.00,-5.00,-1.00,-6.00,-3.00,+9.00,-4.00,-4.00,-5.00,-4.00,-6.00,-5.00,-1.00,-1.00
+7.00,-6.00,+0.00,+2.00,+2.00,+1.00,+1.00,+1.00,-4.00,+6.00,+13.00,+8.00,+6.00,+0.00,-1.00,+2.00
-2.00,+5.00,-4.00,-5.00,-6.00,-2.00,-2.00,-13.00,+11.00,+4.00,+10.00,+10.00,+6.00,+2.00,+2.00,+8.00
-6.00,-10.00,-2.00,-1.00,-9.00,-4.00,-3.00,+5.00,+13.00,+8.00,-1.00,+7.00,+7.00,-1.00,-3.00,-6.00
+12.00,+3.00,+2.00,-1.00,-11.00,-2.00,+3.00,+6.00,-4.00,-8.00,-5.00,-10.00,-8.00,-4.00,-7.00,-8.00
-1.00,-1.00,+2.00,+11.00,+27.00,+7.00,-2.00,-8.00,-9.00,+2.00,-3.00,-7.00,-7.00,+1.00,+8.00,+11.00
-1.00,-4.00,-1.00,-2.00,+4.00,+2.00,+1.00,+20.00,-10.00,-1.00,+0.00,-2.00,+1.00,+2.00,+3.00,-3.00
-15.00,-18.00,-5.00,-1.00,-3.00,-2.00,+0.00,-12.00,+2.00,+2.00,+5.00,+24.00,+25.00,+2.00,+0.00,-2.00
+0.00,+11.00,+4.00,-3.00,-2.00,-3.00,-5.00,-23.00,+19.00,+3.00,+1.00,-13.00,-14.00,-2.00,-1.00,+0.00
-3.00,-3.00,-1.00,+0.00,+3.00,-1.00,+2.00,-3.00,-21.00,-3.00,+2.00,+7.00,+2.00,+0.00,+1.00,-4.00
+7.00,+0.00,+0.00,-2.00,-6.00,-3.00,-3.00,-24.00,+4.00,+3.00,+1.00,-3.00,-3.00,-1.00,-1.00,+1.00
+0.00,+3.00,+3.00,+4.00,+5.00,+3.00,-5.00,-4.00,+12.00,+3.00,-1.00,-7.00,-5.00,-2.00,+2.00,+4.00
-3.00,-4.00,-4.00,-1.00,+5.00,+1.00,+5.00,+8.00,-16.00,-9.00,-1.00,+16.00,+8.00,-1.00,-4.00,-9.00
+5.00,+2.00,-2.00,-4.00,-3.00,+0.00,+2.00,-5.00,-6.00,+4.00,-3.00,-3.00,-1.00,-3.00,-4.00,-6.00
-16.00,-7.00,+1.00,-2.00,-2.00,-1.00,-10.00,-16.00,+12.00,-3.00,+0.00,+3.00,+10.00,+0.00,-3.00,+5.00
+10.00,+9.00,-3.00,-5.00,-3.00,-7.00,+6.00,+27.00,+2.00,+3.00,+2.00,-11.00,-13.00,-4.00,-5.00,-1.00
-2.00,-4.00,+1.00,+1.00,-4.00,+6.00,+5.00,-2.00,+8.00,-10.00,+1.00,+5.00,+5.00,+3.00,+4.00,+14.00
+3.00,-3.00,-4.00,-4.00,-7.00,-3.00,-1.00,+8.00,-11.00,-3.00,-8.00,-6.00,-4.00,-1.00,-5.00,-9.00
-31.00,-8.00,+0.00,-1.00,+2.00,+0.00,+1.00,-8.00,+3.00,+2.00,+0.00,+7.00,+5.00,-2.00,-1.00,-1.00
+7.00,+8.00,+6.00,+3.00,+3.00,-2.00,-8.00,-12.00,+11.00,+6.00,-1.00,-5.00,-9.00,-1.00,-2.00,+3.00
+8.00,+4.00,-3.00,-1.00,+1.00,-3.00,-2.00,+1.00,-8.00,-5.00,-5.00,-14.00,-10.00,-4.00,-6.00,-13.00
+6.00,+3.00,-1.00,-5.00,-13.00,-4.00,+3.00,+9.00,+3.00,+7.00,+4.00,-4.00,-2.00,-3.00,-2.00,+2.00
-1.00,+7.00,+1.00,+7.00,+17.00,+5.00,-2.00,-8.00,+1.00,+17.00,+16.00,+7.00,+4.00,+4.00,+5.00,+7.00
+9.00,-1.00,+4.00,+2.00,+3.00,+7.00,+7.00,+19.00,-9.00,-34.00,-23.00,+7.00,+13.00,+0.00,+2.00,+7.00
-6.00,+0.00,-1.00,-9.00,-22.00,-14.00,-9.00,-17.00,-5.00,-1.00,-11.00,-32.00,-17.00,-3.00,-4.00,-7.00
+0.00,-8.00,-2.00,+3.00,+13.00,+7.00,-2.00,-3.00,-15.00,-18.00,-10.00,-13.00,-8.00,-9.00,-11.00,-18.00
+7.00,-9.00,-7.00,-6.00,-8.00,-1.00,+3.00,-3.00,+2.00,+18.00,+7.00,+1.00,+1.00,+4.00,+3.00,+1.00
+0.00,+0.00,-1.00,-3.00,-2.00,+0.00,+2.00,+2.00,-1.00,-2.00,+0.00,-7.00,-3.00,-4.00,-3.00,-3.00
+0.00,-3.00,-2.00,+1.00,+7.00,+4.00,+0.00,+9.00,-3.00,+3.00,+3.00,+14.00,+10.00,+2.00,+2.00,+5.00
-10.00,+3.00,+2.00,+0.00,-7.00,-4.00,-3.00,+2.00,-3.00,-12.00,-7.00,-4.00,-2.00,-4.00,-5.00,-3.00
-14.00,-3.00,-1.00,-3.00,-10.00,-5.00,-9.00,-23.00,-3.00,-9.00,-10.00,-5.00,-11.00,-5.00,-2.00,-8.00
-1.00,-13.00,-10.00,-3.00,-3.00,-6.00,+3.00,+6.00,+10.00,+20.00,+4.00,-13.00,-12.00,-1.00,-1.00,+4.00
-2.00,+7.00,+0.00,-1.00,+11.00,+9.00,+4.00,+15.00,-8.00,-19.00,-2.00,+8.00,+8.00,-3.00,-5.00,-10.00
-8.00,-1.00,+2.00,+2.00,-5.00,-2.00,-1.00,-3.00,+6.00,+0.00,-4.00,-10.00,-8.00,-2.00,+1.00,+8.00
+17.00,+13.00,+3.00,+4.00,+20.00,+10.00,+6.00,+16.00,-25.00,-7.00,+1.00,+7.00,+8.00,+2.00,+3.00,-5.00
-5.00,-2.00,+0.00,-2.00,-9.00,-1.00,-6.00,-20.00,+6.00,+6.00,+2.00,-4.00,-4.00,+0.00,-1.00,-3.00
-7.00,-7.00,-1.00,+0.00,+6.00,-1.00,-3.00,-4.00,-19.00,-6.00,-3.00,+17.00,+12.00,+1.00,-2.00,-7.00
-7.00,-4.00,-2.00,+1.00,+3.00,-2.00,-1.00,+1.00,+31.00,+12.00,+7.00,+8.00,+2.00,+1.00,+0.00,+5.00
+17.00,+11.00,+2.00,-4.00,-18.00,-7.00,+0.00,+8.00,+6.00,-7.00,-8.00,-10.00,-4.00,+0.00,+2.00,+7.00
-2.00,+1.00,-1.00,+6.00,+21.00,+9.00,+1.00,-2.00,-21.00,-10.00,+3.00,+36.00,+16.00,+4.00,-4.00,-14.00
+10.00,-3.00,-5.00,-1.00,+1.00,+0.00,+0.00,-10.00,+10.00,+10.00,+5.00,+0.00,+5.00,+2.00,+3.00,+0.00
-40.00,-8.00,+1.00,-3.00,-2.00,-3.00,-5.00,-22.00,-4.00,-2.00,-5.00,-8.00,-5.00,-1.00,+3.00,+2.00
-16.00,-13.00,-6.00,-6.00,-11.00,-6.00,-5.00,+2.00,-25.00,-17.00,-7.00,-18.00,-15.00,-4.00,-6.00,-9.00
+17.00,+16.00,+6.00,-1.00,-5.00,+1.00,+5.00,+9.00,+29.00,+8.00,+9.00,+2.00,+2.00,-3.00,-1.00,+3.00
-12.00,-9.00,-1.00,+2.00,-1.00,-1.00,-4.00,-6.00,+6.00,+3.00,-3.00,+11.00,+7.00,+2.00,+2.00,+6.00
+13.00,+8.00,-5.00,-4.00,-4.00,-2.00,-1.00,+6.00,-21.00,+1.00,-2.00,-1.00,-1.00,+0.00,-3.00,-18.00
-1.00,-3.00,+0.00,-2.00,-4.00,-4.00,+0.00,-5.00,+16.00,+5.00,+2.00,+6.00,+2.00,+1.00,-2.00,+9.00
-7.00,-2.00,-2.00,-1.00,+12.00,+8.00,+0.00,-4.00,-19.00,-9.00,+1.00,-10.00,-6.00,-2.00,-4.00,-4.00
-13.00,-22.00,-4.00,-2.00,-14.00,-8.00,-3.00,+13.00,-2.00,-5.00,+3.00,+20.00,+23.00,-1.00,-2.00,+0.00
+8.00,+21.00,+3.00,+0.00,+6.00,-1.00,+2.00,+13.00,+18.00,-2.00,-15.00,-46.00,-31.00,-9.00,-1.00,+8.00
-1.00,-2.00,-2.00,+0.00,+2.00,-1.00,-4.00,-20.00,+12.00,+2.00,-4.00,-3.00,-1.00,-3.00,-4.00,+3.00
-13.00,-17.00,-4.00,-8.00,-20.00,-16.00,-8.00,-14.00,+3.00,+8.00,-4.00,-10.00,-6.00,-2.00,-2.00,-6.00
-12.00,-13.00,-3.00,+1.00,+13.00,+3.00,-1.00,-11.00,+5.00,-2.00,+1.00,+0.00,-3.00,-1.00,+3.00,+8.00
+9.00,-1.00,-5.00,-3.00,-4.00,-4.00,+1.00,+3.00,-38.00,-4.00,+6.00,+33.00,+32.00,+8.00,+0.00,-7.00
+25.00,+29.00,+10.00,+0.00,-3.00,+1.00,+4.00,+10.00,+13.00,-3.00,-7.00,-21.00,-14.00,-6.00,-6.00,-10.00
-14.00,-13.00,-1.00,+2.00,+1.00,-4.00,-2.00,+1.00,-24.00,+3.00,+0.00,-16.00,-11.00,-7.00,-13.00,-14.00
+13.00,+16.00,+2.00,-2.00,-1.00,+1.00,-1.00,-14.00,+20.00,+0.00,+0.00,+0.00,+3.00,+1.00,+0.00,+7.00
+5.00,-12.00,-1.00,+0.00,-1.00,+0.00,+4.00,+20.00,+39.00,+12.00,+0.00,+6.00,+1.00,+0.00,+2.00,+19.00
-5.00,+5.00,+1.00,+2.00,+2.00,+2.00,+2.00,+4.00,-21.00,-13.00,-3.00,-3.00,-6.00,-4.00,-4.00,-10.00
+5.00,+0.00,-2.00,-2.00,-6.00,-4.00,-3.00,-5.00,+19.00,+11.00,+5.00,-1.00,-2.00,+1.00,+3.00,+5.00
-1.00,+1.00,+1.00,+1.00,+8.00,+5.00,+0.00,-4.00,-37.00,-22.00,-17.00,-3.00,+5.00,-4.00,-4.00,-15.00
-2.00,-9.00,-2.00,-4.00,-8.00,+2.00,-3.00,-16.00,-11.00,-7.00,+7.00,+36.00,+23.00,+2.00,-1.00,+0.00
-20.00,-22.00,-6.00,-7.00,-12.00,-5.00,-2.00,-5.00,-26.00,-3.00,-10.00,-24.00,-17.00,-8.00,-6.00,-10.00
+4.00,+12.00,+5.00,+4.00,+9.00,+7.00,+3.00,+11.00,+28.00,+10.00,+1.00,-9.00,-7.00,+0.00,+8.00,+17.00
+11.00,+9.00,+2.00,-1.00,-14.00,-7.00,-4.00,+2.00,-7.00,-1.00,+5.00,-1.00,-4.00,-2.00,-3.00,-7.00
+15.00,+3.00,+3.00,-4.00,-12.00,-5.00,-1.00,+2.00,-5.00,-2.00,+3.00,+13.00,+10.00,+4.00,+3.00,-1.00
-5.00,-10.00,-6.00,-5.00,-2.00,-2.00,-6.00,-7.00,+11.00,+8.00,+10.00,+26.00,+13.00,+3.00,+2.00,+10.00
-25.00,-6.00,+1.00,+12.00,+24.00,+10.00,+7.00,+1.00,-16.00,-10.00,-8.00,-14.00,-7.00,-7.00,-4.00,-14.00
+18.00,+6.00,-4.00,-9.00,-16.00,-5.00,-1.00,-5.00,+17.00,+15.00,+0.00,-4.00,-6.00,+4.00,+6.00,+4.00
+0.00,+4.00,+3.00,+6.00,+10.00,+2.00,+1.00,+3.00,-17.00,-5.00,-1.00,-6.00,-10.00,-4.00,-1.00,+1.00
-5.00,-7.00,-3.00,+2.00,-5.00,-5.00,-2.00,-2.00,+25.00,+3.00,+1.00,+1.00,+3.00,-2.00,-9.00,-12.00
-1.00,-1.00,-1.00,-4.00,-10.00,-3.00,-1.00,+9.00,-20.00,-1.00,+1.00,-2.00,-3.00,+2.00,+3.00,+10.00
-4.00,-2.00,+0.00,+1.00,+0.00,-3.00,+0.00,-5.00,+21.00,+1.00,-1.00,+0.00,-5.00,-3.00,-3.00,+5.00
-4.00,-5.00,-6.00,-3.00,-2.00,-1.00,-2.00,-5.00,-26.00,-10.00,-5.00,-5.00,-5.00,-3.00,-4.00,-13.00
-9.00,-7.00,-2.00,-3.00,+0.00,-3.00,-5.00,-24.00,-10.00,-1.00,-1.00,+12.00,+11.00,+3.00,+1.00,-4.00
+11.00,+2.00,-2.00,-4.00,-17.00,-8.00,-10.00,-27.00,+9.00,-4.00,-2.00,+10.00,+7.00,+0.00,+0.00,+3.00
-5.00,+3.00,+4.00,+4.00,+14.00,+12.00,+6.00,+10.00,+7.00,+4.00,-2.00,-8.00,-13.00,-4.00,-3.00,-3.00
+2.00,+1.00,+2.00,+0.00,-4.00,-2.00,+12.00,-4.00,-17.00,-11.00,-11.00,-6.00,-1.00,-4.00,-5.00,-2.00
+2.00,+2.00,-1.00,+0.00,+2.00,+1.00,-2.00,-9.00,-2.00,+6.00,+7.00,+7.00,+1.00,+3.00,+5.00,+2.00
-8.00,-9.00,-11.00,-23.00,-60.00,-17.00,-8.00,-25.00,+3.00,+4.00,+0.00,-13.00,-15.00,+1.00,+0.00,+3.00
+4.00,+5.00,+2.00,+17.00,+44.00,+12.00,+4.00,-4.00,-2.00,-6.00,+1.00,+3.00,-6.00,+2.00,+2.00,-5.00
-2.00,-4.00,+1.00,-2.00,-1.00,-3.00,-8.00,-8.00,+3.00,-5.00,-3.00,+10.00,+9.00,-1.00,-5.00,+1.00
+7.00,+17.00,+4.00,+6.00,+12.00,+7.00,+4.00,+8.00,+20.00,+7.00,-5.00,-28.00,-17.00,-2.00,+5.00,+17.00
-20.00,-13.00,-3.00,-1.00,-2.00,-4.00,-3.00,-2.00,-30.00,-7.00,+2.00,+4.00,+5.00,+0.00,+1.00,-12.00
+5.00,-5.00,-5.00,-9.00,-18.00,-9.00,-5.00,-1.00,-14.00,-9.00,-3.00,-6.00,-4.00,-3.00,-2.00,-6.00
-4.00,+2.00,+1.00,-1.00,+3.00,-2.00,-4.00,-4.00,+22.00,+12.00,+4.00,+7.00,+4.00,+0.00,-1.00,+1.00
+5.00,+2.00,+1.00,-4.00,-16.00,-5.00,+4.00,+19.00,+0.00,+2.00,-2.00,+1.00,+3.00,-2.00,-2.00,-1.00
+7.00,+1.00,-2.00,+0.00,+15.00,+4.00,-5.00,-1.00,+1.00,+0.00,+3.00,+16.00,+8.00,+2.00,+4.00,+6.00
-15.00,-8.00,+1.00,+0.00,-3.00,-5.00,-1.00,+9.00,-11.00,-4.00,-2.00,-12.00,-10.00,-5.00,-8.00,-7.00
+7.00,-6.00,-2.00,+2.00,+2.00,+1.00,+1.00,+15.00,+9.00,+0.00,-1.00,-9.00,-7.00,-1.00,-1.00,+0.00
+8.00,+22.00,+7.00,+2.00,-3.00,-1.00,+3.00,+25.00,-11.00,-2.00,-1.00,+6.00,+11.00,-1.00,-1.00,-6.00
+0.00,+0.00,+1.00,+4.00,+17.00,+4.00,+7.00,+9.00,+5.00,-5.00,-3.00,-4.00,-6.00,-3.00,-1.00,-6.00
-2.00,-5.00,-5.00,-5.00,-6.00,-3.00,-2.00,+3.00,-9.00,+5.00,+3.00,+5.00,+1.00,+5.00,+1.00,-2.00
-16.00,-17.00,-5.00,-6.00,-10.00,-1.00,-3.00,-8.00,+13.00,+9.00,+8.00,+13.00,+2.00,+2.00,+2.00,+2.00
-5.00,-6.00,-6.00,-6.00,-7.00,-6.00,-3.00,+4.00,-1.00,-2.00,-4.00,-1.00,-1.00,+4.00,+3.00,+1.00
+14.00,+12.00,+2.00,+5.00,+0.00,+0.00,-6.00,-8.00,+0.00,-7.00,-9.00,-15.00,-2.00,-3.00,-1.00,+3.00
-2.00,-4.00,+0.00,+4.00,+14.00,+1.00,+1.00,-14.00,-3.00,+1.00,-1.00,-6.00,-1.00,-1.00,+1.00,-2.00
-6.00,+0.00,+1.00,+0.00,+4.00,+4.00,+4.00,+1.00,-3.00,-4.00,-4.00,-18.00,-13.00,+0.00,-3.00,-4.00
-11.00,-20.00,-6.00,-6.00,-7.00,-4.00,-4.00,-11.00,-21.00,-1.00,+0.00,+0.00,+0.00,-2.00,-1.00,-8.00
-2.00,+0.00,-2.00,-4.00,-4.00,-7.00,-6.00,-4.00,+3.00,-1.00,-2.00,+7.00,+6.00,-3.00,-4.00,-3.00
-2.00,+14.00,+6.00,+0.00,-7.00,+2.00,-1.00,-3.00,+13.00,+3.00,-4.00,-13.00,-10.00,-5.00,-2.00,+8.00
+3.00,-14.00,-5.00,+0.00,+7.00,-1.00,-7.00,-13.00,-29.00,-9.00,+0.00,-7.00,-2.00,+1.00,+1.00,-8.00
+2.00,+14.00,+2.00,+2.00,+7.00,+0.00,+1.00,+5.00,+18.00,-1.00,-1.00,+3.00,-1.00,-2.00,-3.00,+2.00
+15.00,+13.00,+1.00,+1.00,-1.00,+2.00,+4.00,+7.00,+25.00,+1.00,+0.00,-4.00,-1.00,-1.00,+0.00,+6.00
-4.00,-5.00,-4.00,-4.00,-11.00,-6.00,-5.00,+6.00,-39.00,-5.00,-1.00,-2.00,+0.00,-4.00,-2.00,-4.00
-3.00,+9.00,+4.00,+0.00,+2.00,+3.00,+3.00,+7.00,+6.00,-7.00,-6.00,-6.00,-3.00,-3.00,+6.00,+15.00
-9.00,-24.00,-6.00,-2.00,+6.00,+1.00,-7.00,-33.00,-4.00,-8.00,-5.00,-4.00,-6.00,-4.00,-1.00,-7.00
-5.00,-15.00,-6.00,-4.00,+3.00,-1.00,+0.00,+10.00,-10.00,-1.00,+1.00,-6.00,-7.00,-2.00,-1.00,-2.00
+8.00,+12.00,+1.00,-3.00,-3.00,-2.00,-1.00,-2.00,+23.00,+13.00,+2.00,+11.00,+8.00,+0.00,+0.00,+7.00
+9.00,+12.00,+3.00,+2.00,+0.00,+0.00,+0.00,+6.00,-18.00,-6.00,-1.00,-3.00,-5.00,-1.00,+0.00,-6.00
-2.00,-6.00,+0.00,-1.00,-12.00,-11.00,-10.00,-21.00,-4.00,-8.00,+1.00,+0.00,+0.00,+0.00,-1.00,-1.00
-6.00,+1.00,+0.00,-3.00,-6.00,-3.00,-3.00,-25.00,-1.00,+3.00,+2.00,+10.00,+7.00,-4.00,-6.00,-6.00
-17.00,-8.00,+1.00,+2.00,+16.00,+7.00,+2.00,+0.00,+1.00,+0.00,+0.00,-4.00,+0.00,-1.00,-1.00,-2.00
+3.00,+6.00,-1.00,+3.00,-1.00,-2.00,-3.00,-9.00,-16.00,-2.00,-8.00,-19.00,-20.00,-3.00,-5.00,-10.00
+0.00,-9.00,-3.00,-1.00,+2.00,+0.00,-5.00,+17.00,+37.00,+8.00,+3.00,+6.00,+3.00,+1.00,+1.00,+6.00
-10.00,+2.00,-1.00,+0.00,+7.00,+3.00,+8.00,+11.00,-6.00,+1.00,-3.00,-9.00,-3.00,+1.00,-1.00,-2.00
+10.00,+10.00,+3.00,-2.00,-10.00,-4.00,-6.00,+3.00,-2.00,-3.00,-4.00,+0.00,-3.00,-1.00,+2.00,+5.00
-2.00,+3.00,+2.00,+0.00,-3.00,-1.00,+2.00,-6.00,-1.00,-4.00,+1.00,-1.00,+2.00,-1.00,-1.00,+1.00
-5.00,-3.00,+0.00,+4.00,+8.00,+1.00,+1.00,+15.00,-7.00,+1.00,+3.00,+5.00,+3.00,+2.00,-1.00,+0.00
+7.00,-6.00,-1.00,+1.00,+1.00,+0.00,+1.00,+0.00,-11.00,-7.00,-4.00,+4.00,+0.00,+0.00,+1.00,+0.00
-1.00,-7.00,-7.00,-4.00,-3.00,-2.00,+3.00,-4.00,+19.00,+11.00,+3.00,+2.00,+0.00,-2.00,-2.00,-2.00
+1.00,-4.00,-4.00,-6.00,-4.00,-2.00,-4.00,+2.00,+5.00,-3.00,-2.00,+5.00,+4.00,-2.00,-2.00,-4.00
+0.00,+2.00,-2.00,+0.00,+1.00,+1.00,-1.00,-10.00,-26.00,-8.00,-6.00,-6.00,-5.00,+5.00,+2.00,-2.00
-9.00,-11.00,-1.00,+0.00,+3.00,+2.00,+7.00,+9.00,+14.00,+1.00,-2.00,-6.00,-3.00,-1.00,+1.00,+3.00
-5.00,+0.00,+0.00,-4.00,-14.00,-1.00,+0.00,+12.00,-20.00,-1.00,+1.00,-2.00,-4.00,-2.00,-3.00,-8.00
+5.00,+4.00,-4.00,-2.00,+9.00,-1.00,-5.00,-2.00,+10.00,+3.00,+2.00,-1.00,-6.00,-3.00,-6.00,-3.00
-9.00,-1.00,+1.00,+5.00,+2.00,+3.00,+2.00,-4.00,+28.00,-2.00,+1.00,+0.00,+12.00,-1.00,+0.00,+17.00
-9.00,-10.00,-3.00,-6.00,-12.00,-6.00,-6.00,+17.00,-11.00,-1.00,-3.00,-7.00,-2.00,-4.00,-3.00,-13.00
+15.00,+21.00,+5.00,+4.00,+7.00,+0.00,+2.00,+5.00,+1.00,-3.00,-2.00,-14.00,-17.00,+1.00,+4.00,+10.00
-7.00,-10.00,-4.00,-6.00,-2.00,+2.00,+8.00,+42.00,+8.00,+3.00,-1.00,-7.00,-7.00,-6.00,-6.00,+1.00
+8.00,+8.00,+1.00,-3.00,-6.00,+0.00,+3.00,+7.00,-24.00,-2.00,-2.00,-1.00,-3.00,+0.00,-2.00,-7.00
-2.00,+1.00,-2.00,+0.00,+5.00,+2.00,-5.00,-14.00,-7.00,-9.00,-1.00,+11.00,+6.00,+3.00,+0.00,+3.00
+16.00,+1.00,+0.00,-2.00,-3.00,-2.00,+3.00,+6.00,+6.00,-1.00,+3.00,+14.00,+13.00,-5.00,-10.00,-18.00
-5.00,-2.00,+1.00,+0.00,-7.00,-1.00,-9.00,-9.00,+18.00,+4.00,+1.00,+2.00,+3.00,+3.00,+8.00,+12.00
-1.00,+1.00,+1.00,+2.00,+2.00,+1.00,+6.00,+3.00,-12.00,-4.00,-6.00,-10.00,-8.00,-4.00,-3.00,-8.00
+2.00,+0.00,+0.00,+4.00,+2.00,+2.00,+1.00,+4.00,-22.00,-5.00,-4.00,-2.00,-2.00,-2.00,-2.00,-8.00
-15.00,-17.00,-6.00,-2.00,-5.00,-6.00,-4.00,-2.00,+7.00,+3.00,+3.00,+9.00,+7.00,+2.00,+3.00,+5.00
+13.00,+16.00,+4.00,+4.00,+3.00,-2.00,-12.00,-16.00,-3.00,+4.00,+1.00,-3.00,-2.00,-3.00,+0.00,+0.00
-1.00,-8.00,-4.00,-7.00,-3.00,+1.00,-2.00,-1.00,+3.00,-4.00,-2.00,+2.00,-1.00,-5.00,-5.00,+0.00
-6.00,+7.00,+2.00,+1.00,+1.00,+4.00,-3.00,-27.00,-6.00,+4.00,+4.00,+16.00,+11.00,+1.00,-2.00,-3.00
-9.00,-15.00,-3.00,-7.00,-2.00,-3.00,-2.00,-3.00,+7.00,-13.00,-9.00,-4.00,+0.00,-2.00,-3.00,-8.00
+1.00,+6.00,+3.00,+6.00,+4.00,+2.00,-6.00,-18.00,-19.00,-8.00,-9.00,-15.00,-10.00,-4.00,-6.00,-8.00
-10.00,-7.00,-4.00,-5.00,-14.00,-6.00,-1.00,+2.00,+14.00,+10.00,+6.00,+6.00,+0.00,-1.00,+3.00,+6.00
+5.00,+3.00,+2.00,+3.00,+5.00,+3.00,+3.00,+3.00,-1.00,-1.00,+0.00,-6.00,-3.00,-1.00,+2.00,+2.00
-3.00,-11.00,-5.00,-1.00,-4.00,-3.00,-9.00,-20.00,-13.00,-4.00,-4.00,-5.00,-5.00,+6.00,+9.00,+8.00
+8.00,+7.00,+2.00,+2.00,+3.00,-2.00,+4.00,+0.00,+0.00,-4.00,-1.00,+1.00,-1.00,-1.00,-4.00,-11.00
+7.00,+1.00,-2.00,+1.00,+4.00,-1.00,-2.00,-5.00,-16.00,-6.00,-6.00,-4.00,-4.00,-5.00,-4.00,-8.00
+2.00,-3.00,-3.00,-3.00,-3.00,-2.00,-3.00,-4.00,-3.00,+0.00,+1.00,-4.00,-11.00,-12.00,-8.00,-1.00
-10.00,-3.00,-1.00,+2.00,+3.00,-3.00,-6.00,-65.00,-10.00,-3.00,-3.00,-2.00,-2.00,+2.00,-2.00,-7.00
-4.00,-9.00,-4.00,-4.00,-11.00,-5.00,+0.00,-9.00,+19.00,+4.00,+1.00,-1.00,+2.00,-1.00,-2.00,+4.00
+8.00,+2.00,+2.00,+1.00,+8.00,+6.00,+1.00,-4.00,+2.00,-2.00,+0.00,+5.00,+8.00,-1.00,-1.00,-1.00
+0.00,+0.00,-1.00,-2.00,-2.00,-4.00,+2.00,+9.00,-1.00,-4.00,-2.00,-7.00,-6.00,-2.00,-4.00,-5.00
-2.00,-5.00,-5.00,-1.00,-2.00,-1.00,+3.00,+11.00,+2.00,-1.00,-3.00,-5.00,-6.00,-5.00,+0.00,+5.00
-2.00,+3.00,+2.00,+1.00,-2.00,+0.00,+0.00,+8.00,-10.00,-3.00,+0.00,-3.00,-2.00,-1.00,-4.00,-6.00
-6.00,-6.00,-1.00,+0.00,-2.00,-1.00,-5.00,-12.00,+1.00,+2.00,-1.00,+4.00,+2.00,-2.00,-1.00,+1.00
-2.00,-3.00,-1.00,+0.00,+6.00,+3.00,+0.00,+10.00,+2.00,-5.00,-3.00,-7.00,+1.00,-2.00,-1.00,+0.00
+6.00,+6.00,+2.00,+0.00,-4.00,-1.00,-2.00,+7.00,-10.00,-7.00,-2.00,-13.00,-9.00,-2.00,-3.00,-4.00
-6.00,-16.00,-6.00,-3.00,-11.00,-2.00,-6.00,-3.00,+5.00,+0.00,+1.00,+7.00,+4.00,+4.00,+4.00,+11.00
+6.00,+7.00,+2.00,+4.00,+14.00,+11.00,+2.00,+12.00,+21.00,+9.00,+2.00,-7.00,-6.00,-2.00,-1.00,-6.00
+2.00,+1.00,-2.00,-1.00,-3.00,-2.00,+7.00,+30.00,-16.00,-5.00,+0.00,+1.00,+5.00,+2.00,+2.00,-1.00
+0.00,+1.00,+0.00,+0.00,+3.00,+2.00,+3.00,-1.00,+10.00,+3.00,+0.00,-7.00,-8.00,-2.00,+1.00,+5.00
-5.00,-6.00,-1.00,+1.00,+1.00,+0.00,-2.00,+0.00,-9.00,-3.00,-2.00,+0.00,+1.00,-2.00,-1.00,-4.00
-1.00,-13.00,-8.00,-5.00,-2.00,-2.00,+2.00,+28.00,-7.00,-5.00,+0.00,-2.00,-2.00,-2.00,-7.00,-11.00
+3.00,+8.00,+3.00,+0.00,-1.00,-1.00,-6.00,-19.00,+9.00,+8.00,+2.00,+4.00,+0.00,+2.00,+2.00,+5.00
+5.00,+4.00,+0.00,+2.00,-8.00,+0.00,+0.00,+10.00,+5.00,+0.00,+2.00,-1.00,-3.00,-2.00,-1.00,-5.00
-2.00,+0.00,-2.00,+1.00,+12.00,+3.00,+5.00,+4.00,-7.00,-2.00,-1.00,-2.00,-2.00,+0.00,+3.00,+1.00
+0.00,+5.00,+3.00,-1.00,+5.00,-1.00,+1.00,+4.00,-3.00,-1.00,-2.00,-4.00,-3.00,-3.00,-1.00,-1.00
+5.00,-6.00,-3.00,-1.00,+2.00,-3.00,-3.00,-19.00,+20.00,+0.00,-4.00,-5.00,-7.00,+6.00,+4.00,+3.00
-7.00,-3.00,-3.00,-7.00,-15.00,-3.00,+2.00,+2.00,-4.00,+2.00,+2.00,+13.00,+11.00,+1.00,+2.00,+5.00
-3.00,+4.00,-1.00,-1.00,+8.00,-3.00,-3.00,-9.00,-5.00,-2.00,-1.00,+1.00,-6.00,-1.00,+0.00,-9.00
-9.00,+5.00,+5.00,+8.00,+8.00,+2.00,+1.00,-5.00,-20.00,-6.00,-2.00,-6.00,-3.00,-2.00,-2.00,-5.00
+10.00,-2.00,-2.00,+0.00,+2.00,+2.00,-3.00,-3.00,+30.00,+10.00,+0.00,+3.00,+3.00,+0.00,+2.00,+8.00
-8.00,+1.00,+2.00,+3.00,+4.00,+2.00,+3.00,+12.00,+12.00,+4.00,-2.00,-4.00,-3.00,-1.00,-2.00,+7.00
+3.00,-6.00,-3.00,-4.00,-10.00,-2.00,+3.00,+9.00,-13.00,-5.00,-1.00,+1.00,+1.00,+0.00,+0.00,-6.00
-2.00,-3.00,-1.00,-3.00,-2.00,-2.00,-7.00,-22.00,-12.00,-5.00,+0.00,+0.00,-1.00,-2.00,-2.00,-5.00
+4.00,+12.00,+1.00,-2.00,-2.00,-1.00,-2.00,-2.00,-11.00,-7.00,-3.00,+1.00,-2.00,-1.00,-3.00,-5.00
-3.00,-4.00,-1.00,+2.00,+2.00,-2.00,-2.00,+26.00,-4.00,+1.00,+2.00,-2.00,-2.00,-3.00,-4.00,-8.00
-16.00,-11.00,-4.00,-5.00,-4.00,-3.00,-2.00,-4.00,+1.00,+1.00,-2.00,-1.00,-1.00,-2.00,+1.00,+3.00
+6.00,-1.00,-4.00,-2.00,-7.00,-4.00,-3.00,-4.00,+6.00,-1.00,-2.00,-3.00,-3.00,+0.00,+0.00,-3.00
-13.00,-8.00,-3.00,-1.00,+0.00,-1.00,+1.00,+4.00,-12.00,-2.00,+0.00,+13.00,+8.00,+0.00,-3.00,-2.00
+27.00,+14.00,+1.00,+0.00,+5.00,+1.00,+2.00,+13.00,+10.00,-2.00,-1.00,-1.00,-2.00,-3.00,-2.00,-3.00
+8.00,+3.00,+1.00,-1.00,-1.00,+1.00,+1.00,-1.00,+1.00,+3.00,+3.00,+4.00,+5.00,-2.00,-2.00,+0.00
+5.00,-1.00,-3.00,-3.00,-2.00,-2.00,-3.00,-6.00,-2.00,+5.00,-1.00,-7.00,-4.00,-1.00,+3.00,+5.00
-9.00,-8.00,-1.00,+1.00,-2.00,-3.00,-12.00,-7.00,-10.00,-7.00,-3.00,+10.00,+10.00,-8.00,-8.00,-6.00
-11.00,-6.00,-4.00,-5.00,-16.00,-8.00,-4.00,-5.00,-10.00,-5.00,-1.00,-5.00,-4.00,-2.00,-11.00,-13.00
-2.00,-6.00,+0.00,+5.00,+14.00,+2.00,+5.00,+6.00,+11.00,+2.00,-2.00,-9.00,-4.00,-2.00,+3.00,+14.00
+10.00,+10.00,+4.00,-1.00,-8.00,+0.00,+5.00,+0.00,-9.00,-4.00,-4.00,+1.00,-1.00,+0.00,+0.00,+1.00
+15.00,+6.00,+2.00,+6.00,+12.00,+4.00,-2.00,-13.00,+12.00,+1.00,-1.00,-15.00,-11.00,-3.00,-1.00,+2.00
-7.00,-13.00,-6.00,-3.00,+0.00,-2.00,-6.00,-5.00,-6.00,-5.00,-4.00,+7.00,+5.00,-4.00,+0.00,+7.00
+8.00,+4.00,+0.00,-1.00,-6.00,+0.00,+4.00,+0.00,+5.00,-1.00,-2.00,-2.00,-1.00,+0.00,+0.00,-4.00
-20.00,-8.00,+0.00,-1.00,-5.00,-4.00,-3.00,+1.00,+2.00,-2.00,+2.00,+0.00,+1.00,+0.00,+3.00,+4.00
+20.00,+15.00,+5.00,+3.00,+3.00,-2.00,+1.00,+15.00,-9.00,+4.00,+0.00,+1.00,-2.00,-4.00,+0.00,-3.00
+7.00,+3.00,+1.00,-1.00,+5.00,+3.00,-1.00,-8.00,+0.00,-2.00,-6.00,-5.00,-4.00,+6.00,+5.00,+2.00
-8.00,-5.00,-7.00,-4.00,-6.00,-4.00,-2.00,-1.00,+5.00,+1.00,+5.00,+4.00,+4.00,+2.00,+0.00,-2.00
-9.00,-5.00,-4.00,-1.00,+2.00,-3.00,-7.00,-37.00,+11.00,+1.00,+2.00,+5.00,+0.00,+3.00,+7.00,+20.00
-7.00,-5.00,+0.00,+0.00,-6.00,+0.00,+2.00,+13.00,-7.00,+1.00,+2.00,-2.00,-4.00,+1.00,+3.00,-6.00
+1.00,-2.00,+1.00,+1.00,+3.00,+0.00,+0.00,-1.00,+13.00,-2.00,-4.00,+1.00,+0.00,-1.00,+0.00,+3.00
+4.00,+6.00,+0.00,-3.00,-7.00,-1.00,+2.00,+9.00,-11.00,+1.00,-3.00,-4.00,+0.00,-2.00,-1.00,-7.00
-5.00,+4.00,+1.00,+3.00,+11.00,+2.00,+2.00,+8.00,-5.00,-8.00,-4.00,-1.00,-2.00,-3.00,-9.00,-10.00
-3.00,+0.00,-2.00,-4.00,-10.00,-2.00,-1.00,+0.00,+17.00,+10.00,+7.00,+13.00,+4.00,+5.00,+4.00,+11.00
-9.00,+0.00,+1.00,+0.00,+1.00,+1.00,+2.00,+4.00,-14.00,-3.00,-1.00,-4.00,-3.00,-6.00,-5.00,-11.00
+10.00,-1.00,+4.00,+2.00,+1.00,+1.00,-4.00,-6.00,+4.00,+0.00,-2.00,-3.00,-2.00,-1.00,-1.00,+8.00
+7.00,-3.00,-5.00,-4.00,-4.00,-3.00,-5.00,-13.00,-7.00,+3.00,-3.00,-7.00,-8.00,+2.00,+3.00,+0.00
-22.00,-18.00,-6.00,-6.00,-13.00,-7.00,-3.00,-13.00,-16.00,-7.00,-6.00,-8.00,-3.00,-1.00,+0.00,-2.00
+17.00,+9.00,-1.00,+3.00,+2.00,-2.00,+1.00,+10.00,+7.00,-2.00,+5.00,+12.00,+8.00,-3.00,-6.00,-5.00
+9.00,+16.00,+6.00,+2.00,-2.00,+0.00,+0.00,+4.00,+1.00,-1.00,-1.00,-3.00,-8.00,+1.00,+0.00,+5.00
-1.00,-4.00,-1.00,+3.00,+6.00,+0.00,+3.00,+7.00,-3.00,+3.00,+1.00,+2.00,+2.00,+1.00,+2.00,+1.00
-2.00,+2.00,-2.00,-10.00,-7.00,-9.00,-6.00,-3.00,-14.00,-9.00,-7.00,-12.00,-7.00,-2.00,-7.00,-13.00
-18.00,-10.00,-1.00,-2.00,-2.00,+0.00,+1.00,-6.00,-6.00,+2.00,+3.00,+6.00,+3.00,+1.00,-6.00,-7.00
-12.00,-6.00,-5.00,+0.00,+3.00,+0.00,-1.00,+12.00,+16.00,-3.00,-1.00,+4.00,+5.00,+0.00,+1.00,+7.00
+6.00,-2.00,-2.00,-1.00,+0.00,+0.00,+0.00,+3.00,-9.00,-3.00,-2.00,-3.00,-2.00,-2.00,+1.00,-1.00
-17.00,-11.00,-6.00,-5.00,-10.00,-5.00,-4.00,+8.00,+11.00,-2.00,-1.00,-4.00,-3.00,-1.00,-1.00,-1.00
-2.00,+4.00,+1.00,+0.00,+0.00,-1.00,-4.00,-18.00,-17.00,-8.00,-2.00,+3.00,+4.00,-1.00,-3.00,-4.00
-18.00,-8.00,-5.00,-3.00,-1.00,-4.00,-7.00,-42.00,-4.00,+0.00,-2.00,-3.00,-4.00,-2.00,-3.00,-8.00
+1.00,-2.00,+0.00,-2.00,-2.00,+1.00,+3.00,+25.00,+0.00,-2.00,-4.00,-5.00,-4.00,-1.00,-5.00,-8.00
+5.00,+4.00,+0.00,-2.00,+2.00,+2.00,+0.00,-8.00,+2.00,+10.00,+5.00,+5.00,+3.00,+2.00,+3.00,+11.00
+1.00,+7.00,+2.00,+2.00,+4.00,-1.00,-3.00,-3.00,-5.00,-8.00,-8.00,-10.00,-4.00,-1.00,+3.00,-3.00
-5.00,-3.00,-1.00,-3.00,-7.00,-4.00,+1.00,+9.00,+0.00,-1.00,-3.00,-5.00,-3.00,-3.00,+0.00,+6.00
-1.00,-9.00,-3.00,-3.00,+0.00,+0.00,+0.00,-2.00,+11.00,+5.00,+4.00,+12.00,+5.00,-1.00,-3.00,-13.00
+0.00,-10.00,-4.00,-1.00,+4.00,+2.00,-3.00,-19.00,-12.00,-10.00,-7.00,-13.00,-7.00,-3.00,-2.00,-9.00
+14.00,+21.00,+4.00,+5.00,+6.00,+1.00,+3.00,+5.00,+6.00,+3.00,+2.00,-2.00,-2.00,+2.00,+5.00,+15.00
+2.00,-1.00,-2.00,-2.00,-2.00,-1.00,-2.00,-5.00,-14.00,-10.00,-6.00,+2.00,+8.00,-3.00,-5.00,-12.00
-2.00,-2.00,-2.00,+0.00,-2.00,-4.00,-1.00,+5.00,+6.00,+3.00,-2.00,-18.00,-24.00,-3.00,+0.00,+8.00
+7.00,+2.00,+0.00,+2.00,+4.00,+5.00,+5.00,+2.00,-2.00,-4.00,+1.00,+10.00,+6.00,-4.00,-9.00,-3.00
-1.00,-6.00,-2.00,-3.00,-1.00,+1.00,-1.00,+4.00,+1.00,+5.00,+1.00,-4.00,-3.00,-1.00,+2.00,+4.00
+3.00,-4.00,-3.00,-3.00,-3.00,-1.00,-2.00,+3.00,-6.00,-8.00,-3.00,-7.00,-5.00,-3.00,-6.00,-8.00
-15.00,-1.00,-1.00,+0.00,+1.00,+0.00,-2.00,-11.00,+4.00,+3.00,+3.00,+6.00,+10.00,+4.00,+4.00,+6.00
-2.00,+0.00,-1.00,-6.00,-17.00,-4.00,-3.00,-7.00,-10.00,+0.00,-1.00,-2.00,-2.00,-2.00,-7.00,-13.00
+3.00,-9.00,-4.00,+0.00,+9.00,+6.00,-2.00,+8.00,+5.00,-4.00,-6.00,-6.00,-7.00,-2.00,-2.00,+0.00
+7.00,+6.00,+1.00,+3.00,+4.00,-1.00,+6.00,+9.00,+35.00,+19.00,+8.00,+12.00,+10.00,+1.00,+2.00,+16.00
+7.00,-2.00,+0.00,+1.00,-3.00,+1.00,-3.00,-28.00,-18.00,-7.00,-2.00,+2.00,+4.00,-3.00,-5.00,-8.00
-4.00,+4.00,+0.00,+0.00,-1.00,-2.00,+1.00,+1.00,-4.00,-2.00,-2.00,-3.00,-6.00,+2.00,+2.00,+1.00
-13.00,-5.00,-1.00,-3.00,-7.00,-4.00,+0.00,+10.00,-3.00,+0.00,+2.00,+1.00,+3.00,-2.00,-3.00,-4.00
-1.00,-5.00,-3.00,-2.00,+3.00,-1.00,-4.00,-11.00,-1.00,+5.00,-2.00,+3.00,-5.00,-1.00,+0.00,-2.00
-4.00,-6.00,-4.00,-2.00,-2.00,-4.00,+0.00,+6.00,+2.00,-10.00,-6.00,-3.00,-2.00,-4.00,-4.00,-2.00
-3.00,-5.00,-3.00,-1.00,-1.00,+2.00,+2.00,+5.00,+6.00,+1.00,-1.00,-9.00,-5.00,-1.00,+0.00,+0.00
-4.00,+3.00,+1.00,-1.00,-4.00,-4.00,-2.00,-6.00,-16.00,-9.00,-1.00,+2.00,+2.00,-2.00,-1.00,-5.00
-6.00,-4.00,-1.00,-4.00,-7.00,-3.00,-3.00,+1.00,-10.00,-5.00,-3.00,-1.00,-4.00,-2.00,-4.00,-9.00
+0.00,-1.00,-1.00,-2.00,-2.00,-3.00,-3.00,-5.00,-7.00,-3.00,+0.00,-1.00,+0.00,-1.00,+2.00,+6.00
+8.00,+11.00,+2.00,+5.00,+8.00,+4.00,+0.00,-5.00,-3.00,-3.00,-3.00,+4.00,+4.00,+0.00,+1.00,+2.00
-13.00,-10.00,-4.00,-1.00,+0.00,-1.00,+0.00,+3.00,+22.00,+8.00,+4.00,+15.00,+13.00,-1.00,-1.00,+1.00
-8.00,-2.00,-1.00,-1.00,-4.00,-1.00,+0.00,+0.00,-19.00,-8.00,-3.00,-13.00,-11.00,-5.00,-8.00,-16.00
-10.00,-2.00,+2.00,+2.00,-2.00,-1.00,-1.00,-17.00,+7.00,+7.00,+4.00,+0.00,-4.00,+2.00,+4.00,+8.00
+11.00,+0.00,-1.00,-1.00,-1.00,-1.00,-3.00,+0.00,+1.00,-2.00,-3.00,-7.00,-5.00,-1.00,+8.00,+10.00
+10.00,+3.00,+0.00,+1.00,+0.00,+4.00,-2.00,-14.00,-4.00,+0.00,-3.00,-3.00,-3.00,-4.00,-6.00,-3.00
-1.00,-1.00,-1.00,-2.00,-3.00,+0.00,+0.00,-5.00,-2.00,-5.00,-2.00,-5.00,-3.00,+1.00,+1.00,+2.00
+5.00,+2.00,+0.00,-3.00,-4.00,-2.00,-2.00,+7.00,-1.00,-4.00,-2.00,+4.00,+5.00,-1.00,-3.00,-3.00
-6.00,-7.00,-2.00,+2.00,+4.00,-3.00,+10.00,-2.00,-1.00,+2.00,+1.00,+2.00,+0.00,+0.00,+2.00,-3.00
+10.00,+0.00,-1.00,-4.00,-14.00,-6.00,-3.00,-23.00,+4.00,+0.00,-3.00,-4.00,-2.00,+1.00,+4.00,+6.00
