-2.00,+0.00,-1.00,+0.00,-1.00,-3.00,-1.00,-4.00,-1.00,-2.00,+0.00,-2.00,-2.00,-2.00,-2.00,-3.00
-1.00,+0.00,-2.00,-2.00,-2.00,-1.00,+1.00,+1.00,+1.00,-1.00,-1.00,-1.00,-2.00,-1.00,+0.00,+1.00
-16.00,-3.00,-2.00,-3.00,-2.00,-3.00,-5.00,-28.00,-2.00,+0.00,-1.00,-2.00,-1.00,-2.00,-2.00,-2.00
+0.00,+0.00,+0.00,+2.00,-1.00,+0.00,-2.00,-2.00,-2.00,-2.00,-2.00,-4.00,-2.00,-1.00,+1.00,-4.00
+0.00,+6.00,-1.00,-2.00,+0.00,-1.00,-1.00,-4.00,-1.00,-1.00,-1.00,+0.00,-1.00,-2.00,+0.00,+0.00
+4.00,-3.00,-1.00,-1.00,+0.00,-2.00,+0.00,+3.00,-3.00,-2.00,-1.00,-1.00,+0.00,-1.00,+0.00,+0.00
+0.00,-7.00,+1.00,+0.00,-1.00,+0.00,+1.00,+7.00,+0.00,+0.00,+0.00,-1.00,-1.00,-1.00,+1.00,-1.00
+1.00,-2.00,-1.00,-1.00,-1.00,-3.00,-1.00,+0.00,-1.00,-1.00,+0.00,-2.00,-1.00,-1.00,-2.00,+1.00
-2.00,-4.00,-2.00,+0.00,-2.00,+0.00,-1.00,-3.00,-1.00,-2.00,-2.00,-1.00,-1.00,+0.00,+0.00,-2.00
-2.00,+4.00,+0.00,+0.00,-1.00,-1.00,-2.00,-1.00,+0.00,-1.00,+0.00,+2.00,-2.00,-1.00,-2.00,+0.00
+0.00,+1.00,-4.00,-3.00,-3.00,-2.00,-1.00,+2.00,+1.00,-2.00,-1.00,-1.00,-1.00,-1.00,-2.00,+0.00
+0.00,+1.00,+2.00,+0.00,-1.00,-1.00,-2.00,-3.00,-6.00,-19.00,-4.00,+1.00,+1.00,-1.00,+1.00,-2.00
-2.00,-4.00,+2.00,+1.00,+0.00,+1.00,+1.00,+6.00,-7.00,-1.00,-5.00,-3.00,-2.00,-1.00,-1.00,+0.00
-1.00,+0.00,-2.00,-1.00,-1.00,-1.00,-2.00,-1.00,+5.00,+11.00,+4.00,-1.00,+1.00,+0.00,+1.00,+2.00
+0.00,-1.00,-2.00,+1.00,-1.00,-1.00,-1.00,+2.00,+2.00,+5.00,-2.00,-2.00,-2.00,-3.00,+1.00,+2.00
-2.00,-4.00,-1.00,-2.00,-2.00,-2.00,-1.00,-2.00,-4.00,-3.00,+1.00,+0.00,-1.00,-1.00,-2.00,-3.00
-1.00,+0.00,+0.00,-4.00,+0.00,-1.00,-1.00,-3.00,+9.00,-4.00,+1.00,+0.00,-1.00,-1.00,+0.00,+4.00
-2.00,-1.00,-2.00,-3.00,+0.00,-2.00,+0.00,-2.00,-7.00,-6.00,-3.00,-4.00,-2.00,-4.00,-1.00,-1.00
-5.00,+0.00,-2.00,-2.00,-2.00,-2.00,-2.00,-2.00,-3.00,-7.00,-3.00,+0.00,+2.00,+1.00,+3.00,-2.00
+1.00,-11.00,-1.00,-1.00,+0.00,-2.00,-2.00,+0.00,+6.00,+3.00,+0.00,-2.00,-2.00,-2.00,+0.00,-1.00
+10.00,+1.00,+0.00,+1.00,+1.00,+1.00,+1.00,+15.00,-4.00,-2.00,-1.00,-2.00,-2.00,+0.00,-4.00,-3.00
+8.00,+3.00,+3.00,+2.00,+0.00,+2.00,+1.00,-3.00,-2.00,-13.00,-4.00,-1.00,-2.00,-1.00,-3.00,-3.00
+4.00,+6.00,-4.00,-2.00,+0.00,+1.00,+1.00,+8.00,+9.00,+9.00,+1.00,-1.00,-1.00,-2.00,-4.00,-3.00
+0.00,+14.00,+2.00,-2.00,-1.00,-2.00,-2.00,-3.00,-9.00,+9.00,+5.00,+1.00,-1.00,+0.00,-2.00,-3.00
-1.00,-7.00,+3.00,+4.00,-2.00,+1.00,+0.00,+2.00,+0.00,+2.00,+0.00,+1.00,+0.00,+2.00,+2.00,+3.00
-10.00,+2.00,-6.00,-4.00,-3.00,-3.00,-5.00,-6.00,+0.00,-5.00,-3.00,-3.00,+0.00,-2.00,-1.00,-1.00
+23.00,+14.00,+11.00,+4.00,+4.00,+2.00,+2.00,+22.00,+14.00,+2.00,-2.00,-6.00,-2.00,+9.00,+6.00,+16.00
-8.00,-15.00,-4.00,+1.00,-1.00,-2.00,-1.00,-7.00,-33.00,-12.00,-5.00,-3.00,-4.00,-11.00,-2.00,-8.00
+0.00,-4.00,-3.00,-2.00,-2.00,+0.00,-3.00,-8.00,-12.00,-10.00,-2.00,+7.00,+11.00,-46.00,-9.00,-12.00
-4.00,+0.00,+0.00,-1.00,-2.00,-1.00,+0.00,+3.00,+8.00,-2.00,+1.00,+3.00,-6.00,+56.00,+1.00,-1.00
-2.00,-3.00,-4.00,-2.00,-2.00,+0.00,+2.00,+0.00,+3.00,-6.00,-2.00,-7.00,-5.00,-9.00,-13.00,-11.00
-7.00,-14.00,-5.00,-4.00,-2.00,+1.00,-1.00,-3.00,+33.00,+10.00,-2.00,-9.00,-8.00,+17.00,+11.00,+12.00
+16.00,+40.00,+5.00,+2.00,+1.00,+0.00,-2.00,+2.00,-36.00,+13.00,+2.00,+2.00,+5.00,+14.00,-13.00,-7.00
-9.00,-1.00,-2.00,-2.00,-1.00,-3.00,-5.00,-14.00,+16.00,-3.00,+0.00,-9.00,-8.00,-52.00,-5.00,+4.00
+2.00,+19.00,-9.00,-4.00,-2.00,-8.00,-20.00,+9.00,-2.00,+1.00,+0.00,+14.00,+22.00,+14.00,+2.00,-2.00
-20.00,-13.00,-16.00,-10.00,-6.00,-4.00,+17.00,-8.00,+5.00,-1.00,-6.00,-21.00,-34.00,-10.00,-6.00,-1.00
+30.00,-7.00,+22.00,+13.00,+4.00,+38.00,+25.00,+6.00,+15.00,+2.00,-1.00,-5.00,-4.00,+0.00,+4.00,+0.00
+24.00,-13.00,+15.00,+13.00,+15.00,-4.00,-29.00,+12.00,-8.00,+6.00,+0.00,+1.00,+2.00,+4.00,-1.00,-3.00
+0.00,+9.00,+6.00,+0.00,+2.00,+0.00,-5.00,-4.00,-11.00,+0.00,+2.00,+0.00,+0.00,+1.00,-5.00,-2.00
-25.00,-16.00,-12.00,-3.00,-2.00,-6.00,-24.00,-15.00,+3.00,+2.00,+1.00,+6.00,+12.00,-8.00,-2.00,-1.00
-19.00,-17.00,-27.00,-19.00,-7.00,-30.00,+11.00,-19.00,-2.00,-4.00,-1.00,+1.00,+1.00,+9.00,+3.00,+0.00
+36.00,+30.00,+26.00,+15.00,+15.00,+34.00,+31.00,+17.00,-8.00,+1.00,-3.00,-2.00,+1.00,+3.00,+4.00,+3.00
-30.00,-30.00,+0.00,+1.00,-7.00,-3.00,+11.00,+5.00,-7.00,-5.00,-2.00,-5.00,-7.00,-15.00,-2.00,-3.00
+18.00,+24.00,+3.00,+2.00,+3.00,+4.00,-9.00,+7.00,-13.00,-7.00,+0.00,+10.00,+10.00,+1.00,-1.00,-1.00
-25.00,-21.00,-11.00,-6.00,-1.00,-3.00,-6.00,-12.00,+9.00,+2.00,+0.00,-3.00,-6.00,+8.00,+2.00,+9.00
-11.00,-16.00,-10.00,-7.00,-5.00,-8.00,-1.00,-6.00,-1.00,-2.00,-1.00,+1.00,+4.00,-6.00,-2.00,-2.00
+0.00,-4.00,-3.00,-1.00,-1.00,-5.00,+6.00,-9.00,-1.00,-1.00,+1.00,-1.00,-4.00,-5.00,+0.00,-2.00
+1.00,+1.00,+4.00,+3.00,-3.00,+2.00,+6.00,+4.00,+1.00,+2.00,+0.00,+0.00,+1.00,+1.00,-4.00,-2.00
-4.00,-4.00,+0.00,+0.00,+0.00,-7.00,-16.00,+5.00,+4.00,-2.00,-1.00,-3.00,-2.00,+1.00,+0.00,-1.00
-6.00,+4.00,-8.00,-6.00,-3.00,-5.00,+1.00,+13.00,-2.00,+2.00,+1.00,-2.00,+0.00,-7.00,-2.00,-3.00
+4.00,+4.00,-5.00,-3.00,+0.00,+2.00,-4.00,-10.00,-6.00,-4.00,-2.00,+0.00,-3.00,+1.00,-2.00,-5.00
+6.00,-23.00,+5.00,+3.00,-2.00,-1.00,+1.00,+10.00,+7.00,+4.00,+0.00,-1.00,+0.00,+1.00,-6.00,-4.00
+4.00,+9.00,+2.00,+3.00,+2.00,-2.00,-9.00,+1.00,+6.00,-3.00,-1.00,+2.00,+0.00,-1.00,-2.00,+0.00
-5.00,+0.00,-8.00,-5.00,-4.00,-7.00,+0.00,-4.00,-6.00,-3.00,-1.00,+5.00,+4.00,-3.00,-1.00,-8.00
-12.00,-2.00,-2.00,+0.00,+0.00,+4.00,+2.00,+2.00,-5.00,-2.00,-1.00,-2.00,-5.00,+3.00,-1.00,+2.00
+5.00,+12.00,+4.00,+3.00,+3.00,+0.00,+0.00,+0.00,-4.00,-6.00,-2.00,+0.00,+3.00,-2.00,-2.00,-4.00
-7.00,-5.00,-1.00,-1.00,-1.00,-4.00,-3.00,+2.00,+3.00,-2.00,-3.00,-3.00,-3.00,-2.00,-1.00,+2.00
-10.00,-5.00,-6.00,-2.00,-7.00,-3.00,-1.00,-5.00,+13.00,+14.00,+3.00,-1.00,-2.00,+1.00,+2.00,+6.00
-7.00,+0.00,-1.00,-1.00,-1.00,-3.00,-7.00,-28.00,-3.00,-3.00,+0.00,+1.00,-1.00,-2.00,-2.00,-3.00
-1.00,+8.00,-1.00,-2.00,+1.00,-2.00,+1.00,-2.00,+1.00,+2.00,+1.00,+1.00,+1.00,-3.00,-3.00,-2.00
-11.00,-16.00,-1.00,-1.00,-3.00,+0.00,-10.00,-35.00,+0.00,-9.00,-4.00,-2.00,-2.00,+1.00,+1.00,-3.00
-29.00,-2.00,-1.00,+0.00,-3.00,-1.00,+1.00,+0.00,-7.00,-5.00,-2.00,-3.00,-1.00,-2.00,+1.00,-5.00
-3.00,+8.00,-1.00,+1.00,+1.00,+0.00,+0.00,+16.00,-19.00,-1.00,+2.00,+1.00,+2.00,+4.00,+1.00,-8.00
+13.00,+8.00,+0.00,+0.00,-1.00,+1.00,+2.00,+8.00,+7.00,+0.00,-3.00,-3.00,-3.00,-17.00,-1.00,+0.00
+1.00,-1.00,-2.00,-3.00,-2.00,-1.00,-6.00,-13.00,-20.00,-11.00,-5.00,-3.00,+0.00,-1.00,-7.00,-7.00
+5.00,+16.00,-2.00,-2.00,-1.00,-3.00,+0.00,-7.00,+8.00,-6.00,-4.00,-3.00,-5.00,-29.00,+2.00,+5.00
+0.00,-16.00,+1.00,+0.00,+2.00,-2.00,+1.00,-3.00,+3.00,+13.00,+3.00,+8.00,+9.00,+13.00,+4.00,+2.00
-7.00,+2.00,+0.00,+0.00,-1.00,-1.00,-1.00,-3.00,-13.00,-5.00,-3.00,-8.00,-10.00,+48.00,+6.00,-8.00
-9.00,-8.00,-3.00,-2.00,-2.00,-3.00,-2.00,+12.00,+19.00,+9.00,+0.00,-6.00,-13.00,-20.00,-15.00,+7.00
-11.00,-11.00,-8.00,-4.00,-3.00,-1.00,-3.00,-9.00,-5.00,-5.00,-3.00,-5.00,+2.00,+4.00,+1.00,-2.00
+6.00,-13.00,+0.00,-1.00,+0.00,-5.00,+4.00,+3.00,-7.00,-7.00,-5.00,+1.00,+2.00,-16.00,+0.00,+2.00
+3.00,-19.00,+5.00,+4.00,+3.00,+12.00,+10.00,+5.00,-4.00,-4.00,-1.00,-4.00,-5.00,-11.00,+5.00,+5.00
+6.00,+5.00,-1.00,-1.00,-2.00,+0.00,+6.00,+4.00,+14.00,+2.00,-2.00,-2.00,+12.00,+8.00,-3.00,-3.00
+21.00,+70.00,+3.00,+0.00,-1.00,-5.00,-1.00,+8.00,-14.00,-5.00,+0.00,+10.00,+10.00,+0.00,-10.00,-5.00
+1.00,-5.00,+2.00,+2.00,+0.00,+4.00,+11.00,+1.00,+4.00,+1.00,+0.00,-3.00,-15.00,+0.00,-5.00,-2.00
-11.00,-16.00,-7.00,-2.00,+7.00,+1.00,-15.00,-11.00,-2.00,+2.00,-1.00,-3.00,+0.00,-2.00,+3.00,+3.00
-1.00,-36.00,+2.00,+1.00,+3.00,-2.00,+9.00,+2.00,-5.00,-1.00,+0.00,-3.00,-8.00,-1.00,+2.00,-3.00
+6.00,+7.00,-4.00,-1.00,-9.00,+2.00,+2.00,+11.00,+6.00,+2.00,-1.00,+4.00,+8.00,-2.00,+4.00,+1.00
+2.00,+7.00,-9.00,-7.00,-1.00,-2.00,+3.00,-6.00,-3.00,-6.00,-1.00,+1.00,+3.00,+1.00,-6.00,-2.00
+22.00,+22.00,+13.00,+6.00,+5.00,-5.00,-5.00,+8.00,-1.00,-1.00,-2.00,+4.00,+1.00,-9.00,-9.00,-4.00
+4.00,+32.00,-4.00,+0.00,+1.00,+0.00,-4.00,+9.00,-1.00,-2.00,+1.00,+4.00,+1.00,+2.00,+8.00,+4.00
-10.00,-57.00,+0.00,+3.00,-3.00,+4.00,+40.00,+4.00,-4.00,+0.00,+1.00,-6.00,-7.00,+3.00,-7.00,-3.00
+19.00,+40.00,+5.00,+3.00,+6.00,-2.00,-44.00,+2.00,+1.00,-2.00,-2.00,-6.00,-3.00,-1.00,+2.00,+0.00
-2.00,+10.00,+0.00,-3.00,+1.00,-7.00,-3.00,-5.00,+4.00,+0.00,+2.00,+3.00,+4.00,-2.00,-2.00,+7.00
-3.00,+15.00,-3.00,-4.00,-1.00,-1.00,-9.00,+0.00,+0.00,+2.00,+2.00,+4.00,+8.00,+8.00,+4.00,-2.00
-6.00,-16.00,-3.00,-2.00,+1.00,-4.00,-4.00,-9.00,-10.00,-3.00,-2.00,-6.00,-6.00,-2.00,+3.00,-1.00
-8.00,-26.00,-3.00,+1.00,-5.00,+5.00,+16.00,-4.00,-4.00,-4.00,-2.00,-6.00,-11.00,-4.00,-5.00,-4.00
-4.00,+6.00,-3.00,-1.00,-3.00,+0.00,+3.00,-2.00,+5.00,+3.00,-1.00,-8.00,-7.00,-13.00,+7.00,-6.00
-1.00,+8.00,+0.00,-1.00,+2.00,-2.00,-1.00,+2.00,-2.00,-2.00,+0.00,+5.00,+13.00,+16.00,-4.00,+3.00
-7.00,-16.00,-3.00,-5.00,-8.00,+1.00,-10.00,-10.00,-2.00,-3.00,-1.00,+4.00,-7.00,+16.00,+2.00,+0.00
+1.00,-5.00,+0.00,+0.00,-3.00,+1.00,-4.00,-1.00,+4.00,-3.00,-3.00,-4.00,-11.00,-24.00,-10.00,+7.00
+2.00,+11.00,-4.00,-2.00,-1.00,-4.00,-8.00,-2.00,+0.00,+2.00,+1.00,+6.00,+3.00,-13.00,+0.00,-8.00
-4.00,-6.00,+0.00,+1.00,-2.00,-1.00,+4.00,+2.00,-7.00,-4.00,-3.00,-4.00,-5.00,-1.00,-11.00,+5.00
-2.00,-12.00,-2.00,+1.00,+1.00,-1.00,-15.00,+0.00,-1.00,-1.00,+0.00,-2.00,+2.00,+0.00,+1.00,-20.00
-2.00,+1.00,-2.00,-1.00,-7.00,-1.00,-6.00,-9.00,+5.00,+0.00,+1.00,+1.00,+11.00,+13.00,+11.00,+17.00
-2.00,+0.00,-1.00,-1.00,+4.00,+5.00,+8.00,+5.00,-6.00,-7.00,-4.00,+4.00,+8.00,+9.00,-2.00,+1.00
-5.00,-11.00,-6.00,-1.00,+0.00,+6.00,+0.00,+4.00,-2.00,+5.00,+0.00,-6.00,-19.00,-13.00,+11.00,+1.00
-3.00,-3.00,-2.00,-2.00,-5.00,-28.00,-9.00,-15.00,+0.00,-3.00,+0.00,+2.00,+3.00,+0.00,-8.00,+9.00
-5.00,-2.00,-3.00,-5.00,-5.00,+2.00,+4.00,-5.00,-1.00,+4.00,-2.00,-4.00,-8.00,-4.00,-7.00,-13.00
+0.00,-3.00,-2.00,-2.00,-2.00,+23.00,+10.00,+10.00,-5.00,-5.00,-3.00,-4.00,+12.00,+13.00,-3.00,-3.00
+13.00,+3.00,+4.00,+2.00,+1.00,+7.00,-1.00,+29.00,+1.00,-2.00,+0.00,+4.00,+7.00,+6.00,+14.00,-6.00
-4.00,+2.00,-2.00,+0.00,+5.00,+8.00,+7.00,-2.00,-8.00,-4.00,-2.00,+7.00,+2.00,-25.00,-9.00,-8.00
-1.00,-5.00,+0.00,+1.00,+1.00,-10.00,+3.00,-9.00,+1.00,-9.00,-3.00,-6.00,-20.00,-12.00,-1.00,+6.00
-3.00,-8.00,-3.00,-2.00,-10.00,-12.00,-3.00,+10.00,+7.00,+14.00,+2.00,+0.00,-2.00,-8.00,+3.00,-13.00
-2.00,+2.00,-2.00,-1.00,-1.00,-50.00,-18.00,-4.00,+2.00,+13.00,+8.00,-6.00,-8.00,-4.00,-16.00,+4.00
-4.00,+0.00,-1.00,-2.00,+16.00,+17.00,-9.00,-14.00,+4.00,+5.00,+1.00,-6.00,+12.00,+10.00,-1.00,+5.00
+5.00,+0.00,-1.00,-2.00,-8.00,-8.00,+1.00,+2.00,+0.00,-3.00,+0.00,+2.00,-1.00,+6.00,-4.00,+7.00
-8.00,+2.00,+1.00,-2.00,-11.00,-16.00,-7.00,-14.00,-4.00,-5.00,-4.00,-9.00,-19.00,-1.00,-9.00,-3.00
-1.00,+6.00,+3.00,+0.00,-12.00,-9.00,-15.00,-2.00,+1.00,+2.00,-2.00,+2.00,+10.00,+9.00,+11.00,-6.00
+7.00,-1.00,+4.00,+7.00,-7.00,-4.00,+7.00,+15.00,+1.00,+2.00,+0.00,+0.00,-6.00,-4.00,+3.00,-3.00
-7.00,-6.00,-6.00,+3.00,+21.00,+39.00,+12.00,-14.00,-2.00,+0.00,+4.00,+19.00,+46.00,+9.00,-1.00,-9.00
-5.00,-1.00,-7.00,-9.00,-3.00,+15.00,+10.00,+2.00,-4.00,-3.00,-3.00,-13.00,-30.00,-10.00,-2.00,+2.00
-3.00,-1.00,-5.00,-9.00,-7.00,+0.00,-7.00,-14.00,-8.00,-3.00,+0.00,+0.00,-2.00,-1.00,+2.00,-5.00
-1.00,-4.00,-5.00,-5.00,-8.00,-2.00,+2.00,-13.00,+1.00,-2.00,+6.00,+12.00,+14.00,+28.00,+3.00,+12.00
+9.00,+7.00,+3.00,+3.00,-5.00,-7.00,-7.00,+35.00,+5.00,-5.00,-8.00,-13.00,-9.00,-21.00,+2.00,-5.00
-11.00,-2.00,-1.00,+1.00,-2.00,-18.00,-4.00,-14.00,-10.00,+4.00,+5.00,+13.00,+15.00,+17.00,-2.00,+2.00
+3.00,-5.00,-2.00,-4.00,-13.00,+3.00,+0.00,+7.00,+0.00,+1.00,-1.00,-1.00,-15.00,-14.00,-3.00,+0.00
-11.00,-3.00,-2.00,-1.00,+3.00,+6.00,-14.00,-7.00,-8.00,+0.00,-3.00,-12.00,-21.00,+7.00,-1.00,-5.00
-11.00,-3.00,-3.00,-3.00,-11.00,-10.00,-6.00,-28.00,-5.00,-7.00,+0.00,+7.00,+11.00,+1.00,+1.00,-5.00
-3.00,-4.00,-2.00,+1.00,+7.00,-6.00,-20.00,+1.00,+1.00,-2.00,+0.00,+8.00,-2.00,-20.00,-6.00,+4.00
+0.00,-5.00,-4.00,-1.00,+3.00,+21.00,+38.00,+2.00,-4.00,-15.00,-7.00,-10.00,-3.00,-8.00,-3.00,-8.00
+4.00,-6.00,-5.00,-4.00,-26.00,-15.00,+2.00,-20.00,-3.00,+8.00,+2.00,-2.00,-5.00,+3.00,+4.00,-1.00
+3.00,+7.00,+3.00,+1.00,+17.00,+5.00,+2.00,+8.00,-7.00,+0.00,-7.00,-2.00,+10.00,+6.00,-2.00,-16.00
-6.00,-3.00,+2.00,+6.00,+24.00,+22.00,-28.00,+4.00,+13.00,+1.00,+3.00,+7.00,+10.00,+19.00,+8.00,+18.00
+3.00,+6.00,+2.00,-1.00,+10.00,+23.00,+45.00,+5.00,+5.00,+8.00,-3.00,+7.00,+17.00,-5.00,-4.00,+12.00
+1.00,-10.00,-8.00,-7.00,-21.00,-38.00,-13.00,+3.00,+5.00,-1.00,+1.00,+6.00,-17.00,-11.00,-7.00,-3.00
+1.00,+2.00,-1.00,-7.00,-38.00,-10.00,-4.00,-11.00,+2.00,+3.00,+2.00,-15.00,+0.00,+2.00,+2.00,+3.00
-8.00,+3.00,-1.00,+1.00,+24.00,+21.00,+7.00,-27.00,-5.00,-5.00,-6.00,-19.00,-19.00,-8.00,-12.00,-9.00
-6.00,-2.00,-1.00,+2.00,+5.00,+1.00,-15.00,-8.00,+3.00,-2.00,-3.00,-8.00,-10.00,+5.00,-1.00,-6.00
+1.00,-5.00,+0.00,+0.00,+20.00,+16.00,+12.00,+25.00,+2.00,-1.00,-3.00,-2.00,+11.00,-4.00,+5.00,+4.00
-1.00,-1.00,+1.00,+0.00,-1.00,-14.00,-6.00,-6.00,-3.00,-1.00,-1.00,-4.00,+12.00,-1.00,-2.00,-1.00
+6.00,+3.00,-1.00,-2.00,-25.00,-34.00,-9.00,+1.00,+1.00,+3.00,+4.00,+9.00,+20.00,+2.00,+3.00,-2.00
-1.00,+6.00,-1.00,+0.00,+26.00,+13.00,-2.00,-5.00,-6.00,-8.00,-3.00,-10.00,-26.00,-11.00,-7.00,-7.00
-1.00,+10.00,+6.00,-1.00,-29.00,-5.00,+8.00,+0.00,-6.00,-16.00,-5.00,-1.00,+10.00,+0.00,-4.00,-5.00
-2.00,-13.00,-4.00,+1.00,+22.00,+10.00,-37.00,+4.00,+2.00,+10.00,+8.00,+18.00,-3.00,+2.00,+11.00,+4.00
+2.00,-3.00,+0.00,-4.00,-25.00,-5.00,+30.00,+12.00,+0.00,+3.00,-5.00,-2.00,-7.00,-13.00,-17.00,-6.00
-4.00,-5.00,-2.00,+0.00,+4.00,-14.00,-17.00,-7.00,+3.00,+1.00,+2.00,-3.00,-19.00,+1.00,+10.00,+6.00
-21.00,-1.00,+1.00,+0.00,+14.00,+9.00,-7.00,+6.00,-2.00,-3.00,-4.00,-12.00,-4.00,-3.00,-4.00,-1.00
-7.00,-3.00,-1.00,-1.00,-13.00,-4.00,-1.00,-17.00,+0.00,-6.00,-6.00,-10.00,+5.00,+1.00,-4.00,-8.00
+8.00,-2.00,+1.00,+3.00,+12.00,+6.00,+7.00,-11.00,-8.00,-11.00,-1.00,+7.00,+37.00,+5.00,+0.00,-7.00
-19.00,-4.00,-2.00,-4.00,+0.00,-3.00,-10.00,+18.00,-3.00,+9.00,+0.00,-19.00,-28.00,+3.00,+3.00,+4.00
+3.00,+4.00,+0.00,+1.00,-11.00,-22.00,-22.00,-6.00,+8.00,+4.00,-1.00,+3.00,-14.00,-10.00,+1.00,+13.00
+0.00,-5.00,-1.00,+7.00,+35.00,-3.00,+8.00,+2.00,+1.00,+3.00,+7.00,+13.00,+22.00,-15.00,+1.00,-6.00
+1.00,+4.00,-1.00,-8.00,-39.00,-44.00,-1.00,-10.00,+2.00,+6.00,+2.00,+3.00,-15.00,+1.00,-1.00,-5.00
-2.00,+1.00,-2.00,-10.00,-50.00,+12.00,-4.00,-15.00,-4.00,-4.00,-2.00,-23.00,+30.00,+4.00,-10.00,-10.00
+5.00,+0.00,+1.00,-3.00,+20.00,+14.00,-2.00,-5.00,-7.00,+1.00,+6.00,+56.00,+96.00,+30.00,+0.00,-11.00
-5.00,-1.00,-3.00,-5.00,-12.00,-5.00,-20.00,+4.00,-10.00,-7.00,-23.00,-104.00,-128.00,-28.00,-10.00,-9.00
+14.00,-5.00,+3.00,+6.00,+15.00,-7.00,+19.00,+13.00,+7.00,+13.00,+10.00,+6.00,+60.00,-20.00,-3.00,+7.00
+1.00,+1.00,+7.00,+10.00,+31.00,+13.00,-9.00,-13.00,+3.00,-3.00,-11.00,-6.00,+8.00,-25.00,-2.00,+8.00
-14.00,+4.00,+1.00,-5.00,-15.00,+1.00,-3.00,-13.00,-3.00,+3.00,-3.00,-18.00,+6.00,-12.00,+0.00,-6.00
+15.00,+3.00,-1.00,-2.00,-18.00,-12.00,+13.00,-17.00,+0.00,-7.00,+4.00,+33.00,+14.00,+9.00,-2.00,+3.00
-47.00,-4.00,-3.00,+1.00,+45.00,+10.00,-19.00,-46.00,-6.00,-5.00,-1.00,-4.00,-27.00,+18.00,-5.00,-14.00
+7.00,-4.00,-1.00,-1.00,-54.00,+0.00,-9.00,-2.00,-8.00,-14.00,-5.00,+4.00,-5.00,+5.00,+4.00,-2.00
+2.00,-4.00,-2.00,+14.00,+39.00,-4.00,-1.00,+5.00,+3.00,+5.00,+2.00,-11.00,-17.00,-9.00,+1.00,-3.00
+3.00,+0.00,+6.00,+5.00,-3.00,+79.00,+11.00,+16.00,+1.00,+5.00,+4.00,+22.00,+11.00,+21.00,+0.00,+2.00
+10.00,-7.00,-10.00,-14.00,+11.00,-45.00,+20.00,+19.00,+1.00,-11.00,-4.00,+2.00,+42.00,+11.00,+4.00,+6.00
-2.00,+5.00,-2.00,-3.00,-11.00,-47.00,-26.00,-20.00,-6.00,-7.00,-2.00,+17.00,-42.00,-19.00,-4.00,-8.00
+2.00,+4.00,-1.00,-3.00,+8.00,+4.00,+1.00,-16.00,-4.00,-11.00,-18.00,-45.00,-82.00,-31.00,-9.00,-3.00
+3.00,+0.00,-2.00,+4.00,-13.00,+2.00,+8.00,+1.00,-7.00,-3.00,+3.00,+12.00,-6.00,+3.00,+10.00,-3.00
+3.00,-6.00,-1.00,+0.00,-15.00,+13.00,-9.00,+24.00,-5.00,-4.00,-9.00,-39.00,-59.00,-18.00,-25.00,-5.00
+2.00,-2.00,+2.00,+4.00,+12.00,+7.00,+5.00,+9.00,+2.00,+1.00,+12.00,+11.00,+35.00,+21.00,+7.00,+1.00
+20.00,+4.00,+0.00,-1.00,+4.00,+0.00,+0.00,+23.00,+2.00,-10.00,-5.00,+7.00,+36.00,+23.00,-1.00,+19.00
-3.00,-4.00,-7.00,-6.00,+17.00,-20.00,-6.00,-23.00,+4.00,+1.00,+0.00,+4.00,-13.00,-21.00,-8.00,-5.00
+0.00,+4.00,+3.00,+3.00,+0.00,-37.00,-1.00,+13.00,+1.00,+3.00,-3.00,-3.00,+7.00,+1.00,+10.00,+2.00
+1.00,-2.00,+1.00,+12.00,+23.00,+13.00,+12.00,+11.00,-4.00,+4.00,+0.00,+19.00,+4.00,-4.00,-7.00,-7.00
+0.00,+4.00,+4.00,+4.00,-24.00,+37.00,+12.00,-5.00,-8.00,-5.00,-3.00,-32.00,-85.00,-24.00,-8.00,-13.00
-8.00,-4.00,+0.00,-9.00,+14.00,+15.00,+15.00,+10.00,+8.00,+6.00,+3.00,+17.00,+45.00,+18.00,+5.00,+8.00
+10.00,+5.00,+3.00,-4.00,+24.00,+29.00,-7.00,-7.00,-10.00,-5.00,-4.00,-3.00,-7.00,-2.00,+6.00,-4.00
-3.00,-11.00,-5.00,+0.00,+6.00,-4.00,+3.00,+10.00,-8.00,-9.00,-6.00,-2.00,+17.00,+8.00,-4.00,-8.00
+4.00,-2.00,-1.00,+4.00,+32.00,-24.00,-16.00,-1.00,+12.00,+7.00,+8.00,+22.00,+20.00,+2.00,+7.00,+17.00
+15.00,+11.00,+3.00,+5.00,+13.00,+8.00,+12.00,-21.00,-3.00,+5.00,-5.00,-3.00,+30.00,-4.00,-9.00,-3.00
-26.00,-2.00,+0.00,+6.00,+2.00,+6.00,-11.00,-5.00,-5.00,-4.00,-1.00,+15.00,-3.00,+2.00,+7.00,+0.00
+0.00,+0.00,+1.00,+2.00,+29.00,-3.00,+1.00,+3.00,+1.00,-5.00,+0.00,-1.00,-4.00,-2.00,-2.00,-1.00
+4.00,-4.00,-2.00,-10.00,-54.00,+25.00,+24.00,+18.00,-5.00,+1.00,-1.00,-4.00,+12.00,+14.00,-2.00,-6.00
-8.00,-5.00,-2.00,-3.00,-2.00,-26.00,-17.00,+1.00,+1.00,+1.00,+1.00,-6.00,-28.00,-13.00,+0.00,+5.00
+14.00,+0.00,-2.00,-4.00,-28.00,-1.00,-6.00,+1.00,-6.00,-4.00,-1.00,+7.00,+11.00,-6.00,+7.00,+1.00
+1.00,+2.00,+0.00,+4.00,+38.00,+23.00,-4.00,-10.00,+8.00,+1.00,+2.00,+0.00,+7.00,+3.00,+6.00,+16.00
-13.00,-11.00,-6.00,-6.00,+19.00,-34.00,-2.00,+3.00,+3.00,+1.00,+0.00,+11.00,+14.00,+7.00,+5.00,+9.00
-6.00,+10.00,+2.00,-6.00,-46.00,-5.00,+3.00,-1.00,-5.00,-2.00,-2.00,-15.00,-22.00,+7.00,-9.00,-7.00
+6.00,+1.00,-1.00,+4.00,+11.00,+4.00,-2.00,+1.00,-5.00,-14.00,-5.00,-1.00,-2.00,+7.00,+5.00,+2.00
-9.00,-5.00,-2.00,-4.00,-38.00,-12.00,+0.00,+0.00,-8.00,-7.00,-6.00,+3.00,-12.00,-17.00,-4.00,-18.00
-8.00,+0.00,-2.00,-8.00,-29.00,-18.00,-9.00,-21.00,+3.00,+17.00,+9.00,+9.00,+12.00,+0.00,-4.00,-10.00
-4.00,-6.00,-4.00,-2.00,+21.00,+6.00,+1.00,+11.00,-7.00,-12.00,-10.00,-11.00,+44.00,+24.00,+12.00,+5.00
+41.00,-3.00,-1.00,+1.00,+16.00,+26.00,-6.00,-23.00,+7.00,+8.00,+8.00,+14.00,-34.00,-15.00,+0.00,+10.00
-14.00,-8.00,-4.00,-10.00,-55.00,-18.00,+6.00,+3.00,-5.00,+4.00,-5.00,-22.00,-30.00,-32.00,-3.00,-4.00
+10.00,+6.00,+0.00,-5.00,-7.00,+3.00,-21.00,+3.00,-2.00,-3.00,-3.00,+16.00,+36.00,+8.00,-4.00,-7.00
-1.00,-1.00,-1.00,+4.00,+16.00,-1.00,+6.00,+15.00,-6.00,+3.00,+6.00,+20.00,+38.00,+3.00,-7.00,-16.00
+2.00,+4.00,-2.00,-4.00,-27.00,-11.00,-6.00,-5.00,-7.00,+0.00,-4.00,-22.00,-19.00,+7.00,+2.00,-5.00
+4.00,-1.00,+1.00,+5.00,+14.00,+28.00,+19.00,+5.00,+5.00,+0.00,-3.00,+11.00,+30.00,+26.00,+8.00,+10.00
+4.00,-5.00,+1.00,+9.00,+20.00,-9.00,-20.00,+7.00,+2.00,+2.00,+2.00,-9.00,-25.00,-20.00,+0.00,+3.00
-15.00,-5.00,-5.00,-16.00,-2.00,-50.00,-26.00,-15.00,-5.00,+12.00,+7.00,+22.00,+33.00,-2.00,-7.00,-7.00
-5.00,+1.00,-5.00,-8.00,-34.00,-9.00,+10.00,-8.00,-3.00,-18.00,-12.00,-5.00,+2.00,-2.00,+1.00,+0.00
+16.00,+5.00,+1.00,-1.00,+0.00,+41.00,-6.00,+11.00,+8.00,+12.00,+6.00,+24.00,+55.00,+6.00,+1.00,+3.00
-5.00,+0.00,-1.00,+5.00,+10.00,+3.00,+18.00,+13.00,-12.00,-12.00,-11.00,-55.00,-100.00,-16.00,-13.00,-14.00
-2.00,-9.00,-1.00,+0.00,+26.00,-2.00,+3.00,+7.00,+6.00,-13.00,-1.00,-3.00,-12.00,+10.00,+1.00,-3.00
-6.00,+1.00,+2.00,+9.00,-22.00,+32.00,+1.00,+7.00,+10.00,+13.00,+5.00,+12.00,+35.00,-15.00,+8.00,+25.00
-4.00,-1.00,-3.00,-9.00,+23.00,-56.00,-33.00,-9.00,-2.00,+8.00,+12.00,+15.00,+31.00,+12.00,-2.00,-1.00
+3.00,+2.00,-2.00,-1.00,-6.00,+13.00,+26.00,-19.00,-8.00,-7.00,-10.00,-5.00,-7.00,-7.00,+2.00,-5.00
-12.00,+0.00,+0.00,+0.00,-18.00,+14.00,+8.00,-7.00,-4.00,-4.00,+0.00,+8.00,+9.00,-6.00,+5.00,+5.00
-8.00,+5.00,+1.00,+2.00,-1.00,+11.00,-2.00,+9.00,-6.00,-6.00,-11.00,-27.00,-25.00,+4.00,-24.00,-27.00
-3.00,+1.00,+0.00,+0.00,+10.00,+10.00,-4.00,-12.00,+22.00,+21.00,+9.00,+3.00,-36.00,-9.00,+1.00,+12.00
+2.00,-2.00,+1.00,-1.00,-16.00,+11.00,+11.00,+7.00,-8.00,-13.00,+1.00,+9.00,+26.00,+13.00,+7.00,-1.00
+1.00,-8.00,-4.00,-6.00,-30.00,-30.00,-6.00,+17.00,+8.00,+17.00,+5.00,+0.00,-16.00,+4.00,+5.00,+3.00
-28.00,-1.00,+2.00,+1.00,+20.00,+12.00,+9.00,+20.00,-1.00,+6.00,+12.00,+25.00,+57.00,+0.00,-5.00,-13.00
+2.00,-1.00,-1.00,-6.00,-19.00,-57.00,-9.00,-16.00,-6.00,-17.00,-17.00,-42.00,-48.00,+3.00,+9.00,+1.00
+6.00,+10.00,+6.00,+12.00,+57.00,+46.00,+1.00,-2.00,+4.00,+5.00,+12.00,+14.00,+28.00,+15.00,-14.00,-2.00
-6.00,-8.00,-4.00,-12.00,-57.00,-17.00,+1.00,-4.00,+0.00,+1.00,-7.00,-23.00,-48.00,-31.00,-9.00,-4.00
+11.00,+3.00,-4.00,-6.00,-4.00,-6.00,-5.00,+9.00,+11.00,+3.00,+3.00,+1.00,+13.00,+16.00,+11.00,+10.00
-27.00,-6.00,+1.00,-1.00,-12.00,+6.00,+1.00,-42.00,-2.00,+10.00,+6.00,+3.00,+2.00,+13.00,+0.00,-1.00
-37.00,-5.00,-2.00,-2.00,+10.00,-19.00,-12.00,-12.00,+2.00,-2.00,-5.00,+0.00,-3.00,-27.00,+4.00,+1.00
+12.00,-2.00,+2.00,+5.00,+19.00,+12.00,-19.00,+4.00,-4.00,-26.00,-10.00,-3.00,+1.00,+14.00,-3.00,-2.00
+4.00,-7.00,-2.00,-3.00,-17.00,-17.00,+32.00,+2.00,+2.00,+8.00,+2.00,-8.00,-7.00,+8.00,+3.00,+11.00
+0.00,+10.00,+0.00,-3.00,+0.00,+13.00,-3.00,-14.00,-3.00,+1.00,+2.00,+1.00,+9.00,-12.00,-5.00,+0.00
+15.00,-3.00,-8.00,-12.00,-53.00,-35.00,-7.00,+8.00,+0.00,-2.00,-1.00,+5.00,+13.00,+13.00,+3.00,+1.00
-24.00,-6.00,-3.00,-1.00,+68.00,+32.00,+10.00,-29.00,-4.00,-2.00,+4.00,+20.00,+11.00,-13.00,-4.00,-1.00
-6.00,-8.00,+0.00,-4.00,-48.00,-4.00,-23.00,+13.00,+3.00,-5.00,-3.00,-10.00,-32.00,-4.00,+1.00,+2.00
+6.00,-6.00,-2.00,+5.00,-3.00,-30.00,+6.00,+18.00,-5.00,-13.00,-2.00,+15.00,+39.00,+20.00,+0.00,-8.00
-10.00,-6.00,-1.00,-3.00,-19.00,+8.00,+3.00,-10.00,-7.00,-12.00,-10.00,-13.00,+0.00,-2.00,-5.00,+1.00
+7.00,+0.00,+0.00,+1.00,+18.00,-20.00,-1.00,+17.00,+10.00,-2.00,+0.00,+19.00,+15.00,+2.00,+7.00,+16.00
+12.00,+12.00,+8.00,+5.00,+39.00,+21.00,+2.00,-11.00,-1.00,-2.00,-3.00,-19.00,-35.00,-3.00,+2.00,+1.00
+1.00,-4.00,-1.00,-3.00,-44.00,-9.00,+7.00,+9.00,-6.00,-8.00,-1.00,+1.00,+19.00,-4.00,-2.00,-13.00
-1.00,-2.00,-2.00,-9.00,-2.00,-8.00,-18.00,-12.00,-14.00,+5.00,+1.00,-1.00,+19.00,+5.00,-11.00,-8.00
+5.00,-2.00,-1.00,+5.00,+23.00,+6.00,+6.00,+5.00,-4.00,-7.00,-13.00,-15.00,-40.00,-15.00,+4.00,+9.00
-5.00,-4.00,-3.00,-6.00,+2.00,+1.00,-1.00,-7.00,-4.00,+0.00,-1.00,+12.00,-14.00,-24.00,-24.00,-9.00
-2.00,-8.00,-5.00,-1.00,+34.00,+4.00,-2.00,+17.00,-11.00,-4.00,-6.00,+1.00,+27.00,+5.00,-3.00,-7.00
+5.00,+10.00,+1.00,-7.00,-34.00,-12.00,-10.00,-1.00,+11.00,+6.00,+3.00,-2.00,-16.00,-6.00,+3.00,+0.00
-3.00,+8.00,+0.00,+1.00,-3.00,+1.00,+0.00,-4.00,+4.00,+8.00,+0.00,-6.00,-2.00,+13.00,+4.00,-1.00
+2.00,+5.00,+5.00,+7.00,+10.00,-5.00,+21.00,+5.00,+2.00,+10.00,+9.00,+21.00,+29.00,+13.00,+5.00,+4.00
+1.00,-4.00,-5.00,-8.00,-7.00,+1.00,+2.00,+0.00,-3.00,-2.00,-5.00,-13.00,-40.00,-29.00,-11.00,-10.00
+8.00,+0.00,+0.00,+12.00,+72.00,-15.00,-5.00,+0.00,+0.00,+2.00,+0.00,+11.00,+7.00,+4.00,+7.00,+8.00
-12.00,-2.00,+0.00,-3.00,-31.00,+12.00,+10.00,-10.00,-8.00,-10.00,-4.00,-6.00,+21.00,+1.00,-5.00,-9.00
+19.00,+4.00,+2.00,+8.00,+3.00,+7.00,-2.00,-5.00,+4.00,+7.00,-2.00,-10.00,-15.00,-1.00,+2.00,-2.00
-38.00,-7.00,-8.00,-18.00,-52.00,-6.00,-14.00,-13.00,-3.00,-3.00,+0.00,-5.00,-8.00,+12.00,+1.00,+1.00
+3.00,-8.00,-2.00,+0.00,-5.00,+5.00,+3.00,+7.00,+3.00,+6.00,+2.00,+1.00,-11.00,+5.00,+4.00,+6.00
+4.00,-8.00,-1.00,-1.00,-36.00,-22.00,-9.00,+19.00,-4.00,-4.00,-1.00,-5.00,-13.00,-21.00,-10.00,-5.00
-1.00,+7.00,-4.00,-1.00,+37.00,-11.00,-7.00,-14.00,-6.00,-12.00,-8.00,-15.00,-2.00,-5.00,-4.00,-12.00
+16.00,+4.00,+1.00,+3.00,+17.00,+29.00,+14.00,+7.00,-3.00,-10.00,-2.00,-7.00,-22.00,-1.00,+0.00,-4.00
-2.00,+2.00,+0.00,+4.00,+31.00,+28.00,+3.00,+23.00,-5.00,-6.00,-10.00,-8.00,-11.00,+1.00,+4.00,+7.00
-2.00,+1.00,-2.00,+1.00,-14.00,-6.00,-1.00,-3.00,+5.00,+11.00,+6.00,+6.00,+3.00,+2.00,+6.00,+3.00
-7.00,-9.00,-2.00,-5.00,-43.00,-5.00,-8.00,+3.00,+2.00,+7.00,+12.00,+10.00,+11.00,+9.00,-16.00,-8.00
+5.00,+2.00,+1.00,+3.00,+46.00,+7.00,-12.00,+0.00,+3.00,+1.00,-4.00,-7.00,-22.00,-23.00,-6.00,+0.00
+11.00,+2.00,+1.00,-1.00,+6.00,-2.00,+36.00,+8.00,+0.00,-5.00,+1.00,+9.00,+9.00,+0.00,-1.00,-10.00
+11.00,+3.00,+0.00,+2.00,+2.00,+13.00,+11.00,+3.00,-4.00,+6.00,+1.00,-9.00,+6.00,+7.00,-3.00,-2.00
-2.00,-1.00,+0.00,+6.00,+41.00,+28.00,+7.00,+5.00,-10.00,-12.00,-8.00,-6.00,+3.00,+0.00,+6.00,-2.00
+23.00,-8.00,-3.00,-5.00,-38.00,+0.00,-20.00,-15.00,+4.00,+4.00,+1.00,+4.00,+11.00,+4.00,-5.00,-3.00
-22.00,-5.00,+3.00,+1.00,-1.00,-17.00,-13.00,-7.00,-16.00,-5.00,-1.00,+7.00,+31.00,+3.00,-3.00,-10.00
+10.00,+9.00,+0.00,-2.00,-15.00,-2.00,-5.00,+0.00,+2.00,+0.00,+0.00,-6.00,-8.00,+6.00,+10.00,+16.00
-1.00,-8.00,-2.00,-7.00,-38.00,-27.00,-1.00,+1.00,+10.00,+2.00,+1.00,+7.00,+7.00,+4.00,+5.00,+0.00
-2.00,+8.00,+0.00,+6.00,+46.00,+35.00,+12.00,-16.00,+0.00,+0.00,-1.00,+1.00,+8.00,-12.00,+4.00,+12.00
-11.00,-9.00,-1.00,-5.00,-17.00,+8.00,-7.00,-24.00,-1.00,-6.00,-3.00,-13.00,-41.00,-9.00,-2.00,-8.00
-7.00,+2.00,+0.00,+0.00,+34.00,-2.00,+5.00,+9.00,-4.00,-2.00,+5.00,+14.00,+23.00,+6.00,-7.00,-7.00
+3.00,+1.00,-1.00,-5.00,-21.00,-6.00,-20.00,-29.00,-5.00,-1.00,-8.00,-18.00,-21.00,-14.00,-7.00,-4.00
-4.00,-2.00,+1.00,-1.00,-8.00,-4.00,+9.00,+17.00,-13.00,-3.00,+2.00,-6.00,-33.00,-2.00,+1.00,-3.00
+6.00,-2.00,-2.00,-1.00,-4.00,-17.00,-6.00,+3.00,-1.00,-1.00,-3.00,-10.00,+11.00,+1.00,-4.00,-13.00
+4.00,-4.00,-4.00,-8.00,-38.00,+14.00,-1.00,+12.00,+1.00,+7.00,+1.00,-17.00,-33.00,-1.00,-3.00,+5.00
-5.00,-6.00,-1.00,-3.00,+18.00,-20.00,-7.00,-7.00,-6.00,-9.00,-2.00,+11.00,+9.00,-5.00,+1.00,-5.00
-4.00,+1.00,+3.00,+3.00,-2.00,-10.00,+4.00,+7.00,+2.00,-4.00,-2.00,+3.00,+6.00,+4.00,-7.00,-5.00
+5.00,+0.00,-3.00,-8.00,-24.00,+10.00,-27.00,-11.00,+4.00,+5.00,+0.00,-7.00,-4.00,-8.00,+0.00,+5.00
-5.00,-4.00,+1.00,+7.00,-5.00,-2.00,+4.00,-4.00,-5.00,+1.00,-2.00,-12.00,-20.00,-1.00,-3.00,-10.00
-7.00,+2.00,+0.00,-1.00,+14.00,+14.00,+13.00,+5.00,-5.00,+0.00,+5.00,+15.00,+47.00,+21.00,+8.00,+1.00
+22.00,+2.00,-2.00,+4.00,-4.00,-1.00,+10.00,+39.00,+2.00,-10.00,-6.00,-14.00,-22.00,-7.00,+0.00,+2.00
+0.00,+0.00,-4.00,-2.00,+30.00,-4.00,-11.00,-12.00,-2.00,+2.00,-1.00,-2.00,-20.00,-11.00,-6.00,-1.00
+13.00,-5.00,+0.00,-3.00,-50.00,-16.00,-3.00,+3.00,-6.00,-10.00,-1.00,+3.00,+23.00,+6.00,+2.00,+2.00
-15.00,-4.00,-2.00,-3.00,-4.00,+7.00,-10.00,-9.00,+13.00,+8.00,-1.00,-2.00,-13.00,-7.00,-2.00,+8.00
+3.00,+3.00,+3.00,+5.00,+12.00,-7.00,+4.00,+2.00,+9.00,+3.00,+0.00,+3.00,+16.00,+11.00,+3.00,+0.00
-5.00,+1.00,-1.00,-3.00,-3.00,+11.00,+9.00,+6.00,+4.00,-11.00,-3.00,+2.00,+3.00,+3.00,+5.00,+9.00
+1.00,-4.00,-1.00,-2.00,+23.00,-1.00,-3.00,+1.00,-8.00,-8.00,-7.00,+0.00,+19.00,-2.00,-1.00,-6.00
-3.00,-6.00,-3.00,+1.00,-2.00,-9.00,-1.00,-1.00,-7.00,+1.00,-1.00,+3.00,-32.00,-6.00,+3.00,+3.00
+7.00,+0.00,-1.00,-9.00,-5.00,+9.00,+11.00,+0.00,-9.00,+6.00,+6.00,+6.00,+19.00,+10.00,-1.00,-4.00
-9.00,+0.00,-1.00,-3.00,-51.00,+14.00,-1.00,-8.00,-7.00,-1.00,-4.00,-16.00,-33.00,-21.00,-11.00,-6.00
-6.00,-1.00,+4.00,+2.00,+4.00,-3.00,+1.00,-15.00,+17.00,+11.00,+8.00,+4.00,+2.00,+2.00,-1.00,-3.00
+12.00,+10.00,-2.00,-5.00,+2.00,+0.00,-12.00,+7.00,-6.00,-6.00,-2.00,+3.00,-1.00,-8.00,+1.00,+3.00
-5.00,-1.00,-1.00,-1.00,+13.00,-5.00,+1.00,-4.00,+4.00,+6.00,-2.00,-1.00,+4.00,+7.00,-2.00,+4.00
+17.00,-4.00,+1.00,+3.00,+6.00,-8.00,+7.00,+33.00,+0.00,-6.00,+1.00,+17.00,+41.00,+10.00,+7.00,+3.00
-3.00,+9.00,+2.00,+2.00,+2.00,+2.00,-2.00,-11.00,-8.00,-6.00,-5.00,-1.00,-2.00,-1.00,-2.00,-6.00
+24.00,-2.00,-1.00,+3.00,+42.00,+6.00,+0.00,+28.00,+13.00,+9.00,+3.00,-9.00,-30.00,-1.00,-2.00,+3.00
+4.00,-7.00,-1.00,+1.00,-24.00,-14.00,-33.00,-16.00,+3.00,+2.00,+0.00,+10.00,+9.00,-9.00,+0.00,+6.00
+13.00,+9.00,+1.00,-2.00,-37.00,-8.00,+20.00,+1.00,-6.00,+0.00,+0.00,+0.00,+19.00,-1.00,-6.00,-12.00
+5.00,-8.00,-5.00,-9.00,-9.00,-10.00,-6.00,-13.00,-1.00,-4.00,-4.00,-5.00,-35.00,-9.00,-8.00,-4.00
-19.00,-17.00,-1.00,-1.00,-1.00,+9.00,+3.00,+12.00,+0.00,-2.00,+0.00,+0.00,+9.00,+3.00,-2.00,-6.00
-5.00,+17.00,+0.00,+0.00,+10.00,-18.00,-11.00,-5.00,-14.00,-21.00,-8.00,+2.00,+13.00,+2.00,-3.00,-7.00
-3.00,-11.00,-5.00,+2.00,+9.00,+0.00,-7.00,+4.00,+19.00,+18.00,+3.00,+5.00,+9.00,+4.00,+0.00,+2.00
+11.00,-1.00,-1.00,+3.00,+21.00,+15.00,+0.00,-11.00,+13.00,+11.00,+3.00,-12.00,+2.00,-3.00,+0.00,+7.00
-8.00,-2.00,-1.00,-6.00,-38.00,-16.00,-8.00,-8.00,-19.00,-15.00,-9.00,-1.00,-4.00,-6.00,-4.00,-9.00
-24.00,-6.00,-4.00,-2.00,+7.00,+14.00,+6.00,-15.00,-2.00,-1.00,+4.00,-3.00,-11.00,-2.00,-7.00,-4.00
-13.00,-2.00,+0.00,-1.00,+9.00,-1.00,+0.00,-13.00,-3.00,-1.00,-2.00,+0.00,+0.00,+2.00,+1.00,-1.00
+0.00,+3.00,-1.00,+3.00,+23.00,+8.00,+5.00,-2.00,-4.00,-18.00,-8.00,+4.00,+10.00,+3.00,+2.00,+1.00
-30.00,-7.00,-4.00,-5.00,-5.00,-9.00,-2.00,-13.00,+3.00,+3.00,-2.00,-3.00,+11.00,+1.00,-2.00,-1.00
-11.00,+0.00,+2.00,+1.00,+1.00,-5.00,+0.00,-5.00,-3.00,+5.00,-4.00,-14.00,-23.00,-7.00,-4.00,-8.00
+4.00,+4.00,-1.00,+0.00,+1.00,-4.00,+0.00,-3.00,+0.00,-6.00,-3.00,-4.00,-17.00,+2.00,+1.00,+1.00
-20.00,-17.00,-6.00,-1.00,+30.00,+0.00,-1.00,+21.00,+4.00,+11.00,+2.00,+3.00,-13.00,-3.00,-1.00,+4.00
+8.00,-13.00,+1.00,-2.00,-20.00,+9.00,+1.00,+1.00,+31.00,+26.00,+13.00,+9.00,-5.00,+3.00,+7.00,+18.00
+20.00,+20.00,+1.00,-1.00,-21.00,-5.00,+6.00,-11.00,+4.00,+4.00,-1.00,+2.00,-5.00,+5.00,+4.00,+4.00
-60.00,-9.00,-2.00,-2.00,+6.00,-5.00,-7.00,-24.00,-7.00,-3.00,-2.00,-21.00,-8.00,+0.00,-4.00,-6.00
+8.00,+14.00,+4.00,+4.00,+1.00,+0.00,+0.00,+6.00,-9.00,-11.00,-8.00,-21.00,-29.00,-17.00,-5.00,-8.00
-5.00,-2.00,-2.00,+0.00,+1.00,-3.00,-2.00,-15.00,-6.00,-11.00,-5.00,-2.00,+8.00,-4.00,-6.00,-5.00
-4.00,-13.00,-1.00,+1.00,+2.00,-1.00,+1.00,-12.00,+9.00,+4.00,+1.00,+3.00,+4.00,-2.00,+0.00,+6.00
+11.00,-19.00,-6.00,-3.00,-3.00,-8.00,-4.00,+4.00,-1.00,+5.00,+1.00,-1.00,-11.00,+1.00,-2.00,-3.00
-9.00,+3.00,-1.00,+0.00,-12.00,-4.00,-1.00,+4.00,-9.00,-15.00,-5.00,+12.00,+25.00,+8.00,+3.00,+2.00
+41.00,+50.00,+10.00,+6.00,+7.00,-3.00,+3.00,+13.00,-13.00,-4.00,+0.00,+2.00,+22.00,+0.00,-3.00,-7.00
+12.00,+4.00,+0.00,-3.00,-10.00,-6.00,-1.00,+26.00,-4.00,-3.00,-6.00,-15.00,-29.00,-8.00,-5.00,-3.00
+8.00,+5.00,-2.00,-3.00,-9.00,+10.00,-9.00,+2.00,-6.00,-1.00,+0.00,+1.00,-6.00,-2.00,+1.00,+0.00
-8.00,-20.00,-4.00,-2.00,+21.00,+4.00,+6.00,-43.00,-4.00,-4.00,-2.00,+1.00,+3.00,+0.00,-6.00,-13.00
-12.00,-25.00,-8.00,-6.00,-37.00,+3.00,+2.00,-3.00,-2.00,-10.00,-3.00,+2.00,+7.00,+0.00,+4.00,+4.00
+17.00,+4.00,+3.00,+4.00,+23.00,-1.00,-29.00,+0.00,-7.00,-4.00,-5.00,+4.00,+8.00,+4.00,+1.00,+0.00
+1.00,-12.00,-1.00,+0.00,+12.00,+7.00,+23.00,+39.00,+10.00,+9.00,+0.00,+2.00,+4.00,-1.00,+2.00,+4.00
-2.00,-10.00,+1.00,+2.00,-3.00,-10.00,-4.00,-5.00,-11.00,-1.00,+1.00,-1.00,-8.00,-2.00,-2.00,-2.00
+8.00,+20.00,-1.00,-4.00,+8.00,+2.00,-1.00,-8.00,-9.00,-8.00,-3.00,-3.00,+1.00,-1.00,-3.00,-6.00
-5.00,-6.00,-1.00,+8.00,+29.00,+16.00,+1.00,+0.00,+1.00,-12.00,-1.00,+4.00,+11.00,+3.00,+5.00,+1.00
-1.00,+3.00,-1.00,-3.00,-1.00,-11.00,-9.00,-23.00,+2.00,-2.00,-1.00,-6.00,-7.00,-2.00,-1.00,-1.00
-1.00,+10.00,-1.00,-2.00,-12.00,-5.00,-4.00,+10.00,-3.00,+7.00,+3.00,-1.00,+1.00,-1.00,-3.00,-5.00
-29.00,-19.00,-2.00,+2.00,+11.00,-5.00,-1.00,-30.00,-13.00,-11.00,-6.00,-4.00,-7.00,-1.00,+2.00,+5.00
-11.00,-4.00,+0.00,-1.00,+1.00,+3.00,+6.00,+0.00,+4.00,+5.00,-2.00,+0.00,+5.00,-2.00,-2.00,+1.00
+7.00,+3.00,+2.00,+6.00,-10.00,-3.00,-3.00,-6.00,-14.00,-19.00,-4.00,-3.00,-6.00,-2.00,+3.00,+0.00
+16.00,-3.00,-1.00,-6.00,-5.00,+1.00,+7.00,+28.00,+11.00,+6.00,+1.00,-7.00,-8.00,-1.00,-1.00,+1.00
-2.00,-10.00,-4.00,-2.00,-5.00,-3.00,-5.00,+4.00,-13.00,+15.00,+3.00,-2.00,-8.00,-1.00,-1.00,-7.00
-7.00,-2.00,-4.00,-6.00,-5.00,-2.00,+7.00,-1.00,+10.00,+16.00,+8.00,+5.00,+13.00,+3.00,+4.00,+5.00
+10.00,+15.00,+4.00,+3.00,-6.00,+3.00,+2.00,-3.00,-3.00,-3.00,+2.00,+17.00,+45.00,+10.00,+4.00,+6.00
+10.00,-5.00,+0.00,+2.00,-7.00,-3.00,-6.00,+1.00,-8.00,-7.00,-2.00,-9.00,-24.00,-7.00,-7.00,-3.00
-7.00,-4.00,-3.00,-3.00,+7.00,+3.00,+0.00,+11.00,+2.00,-10.00,-5.00,-11.00,-20.00,-7.00,-5.00,-2.00
+5.00,-2.00,+1.00,-1.00,-26.00,-13.00,+2.00,-12.00,-4.00,-3.00,-2.00,-3.00,-3.00,-6.00,+3.00,+2.00
+8.00,+13.00,+0.00,-2.00,+25.00,+6.00,-2.00,+4.00,-10.00,-1.00,+0.00,+0.00,-1.00,-2.00,-8.00,-11.00
-8.00,+16.00,-2.00,+1.00,-3.00,+0.00,-4.00,+3.00,+1.00,-4.00,-2.00,+4.00,+9.00,+4.00,+3.00,+4.00
-2.00,-9.00,+0.00,+1.00,+0.00,-1.00,-1.00,-7.00,+16.00,+1.00,+1.00,+10.00,+21.00,+6.00,-1.00,+6.00
+4.00,-24.00,-2.00,-1.00,-1.00,+2.00,+5.00,+10.00,-14.00,-15.00,-3.00,-4.00,+1.00,+2.00,-6.00,-5.00
-14.00,+8.00,+1.00,-1.00,+4.00,-5.00,-4.00,+2.00,+23.00,+4.00,-2.00,-2.00,-6.00,-7.00,-2.00,+6.00
+6.00,+15.00,+3.00,-3.00,-7.00,-5.00,-4.00,-2.00,+0.00,+27.00,+3.00,+2.00,+3.00,+3.00,+1.00,-3.00
-14.00,+1.00,-1.00,+0.00,-14.00,-5.00,+7.00,+18.00,-1.00,-2.00,+0.00,+4.00,-5.00,-1.00,+0.00,+0.00
-36.00,-8.00,-2.00,-6.00,-10.00,+11.00,+0.00,+17.00,+0.00,-1.00,+4.00,+5.00,+15.00,+4.00,+2.00,+3.00
-1.00,-33.00,-5.00,-2.00,+0.00,-2.00,-3.00,-4.00,-6.00,-4.00,-2.00,-5.00,-17.00,-4.00,-1.00,+1.00
-3.00,+35.00,+2.00,+2.00,+10.00,+0.00,-1.00,-4.00,+2.00,-14.00,-7.00,-9.00,-10.00,-2.00,-4.00,-6.00
+3.00,-2.00,+0.00,-2.00,-16.00,-10.00,-2.00,-3.00,-8.00,+4.00,+0.00,-8.00,-6.00,-3.00,-5.00,-8.00
+7.00,-2.00,-3.00,-3.00,-19.00,-7.00,-1.00,+2.00,-10.00,-15.00,-3.00,+0.00,+1.00,-1.00,-2.00,-3.00
+2.00,+11.00,-2.00,-2.00,+12.00,+3.00,+0.00,-9.00,-14.00,-10.00,-6.00,+3.00,+4.00,+0.00,-5.00,-7.00
-26.00,-23.00,-5.00,-3.00,-15.00,-4.00,-4.00,-10.00,+34.00,+21.00,+3.00,+2.00,+9.00,+3.00,+10.00,+13.00
+22.00,-19.00,-1.00,+2.00,+5.00,+3.00,+0.00,+4.00,-15.00,-6.00,-4.00,-13.00,-22.00,-8.00,-8.00,-9.00
+4.00,+31.00,+2.00,+3.00,+23.00,-1.00,+2.00,-1.00,+4.00,-6.00,-2.00,-5.00,-7.00,-1.00,-1.00,+1.00
+0.00,-10.00,-5.00,-5.00,-31.00,-2.00,-3.00,-1.00,+6.00,+6.00,+3.00,+5.00,+23.00,+2.00,-3.00,+1.00
+3.00,-18.00,-4.00,-2.00,-18.00,-10.00,-3.00,+0.00,+22.00,-11.00,-5.00,-5.00,-38.00,-11.00,-7.00,-5.00
-7.00,+9.00,-1.00,+0.00,+16.00,+6.00,-3.00,-7.00,-33.00,+3.00,-2.00,+0.00,+1.00,-1.00,-1.00,-4.00
-16.00,-15.00,-2.00,-1.00,-2.00,+1.00,+0.00,-20.00,+7.00,+9.00,+6.00,+6.00,+12.00,+6.00,+4.00,+0.00
+5.00,-9.00,+2.00,+1.00,+10.00,+0.00,-1.00,-7.00,+51.00,+29.00,+5.00,+2.00,-3.00,-3.00,+3.00,+15.00
-9.00,+43.00,+7.00,+3.00,+7.00,-1.00,-3.00,+31.00,-23.00,-14.00,-3.00,+5.00,+11.00,+1.00,-1.00,-4.00
+9.00,-8.00,-3.00,+0.00,+25.00,+6.00,+1.00,-6.00,+4.00,-5.00,-4.00,-1.00,+0.00,-2.00,+2.00,-1.00
+3.00,+2.00,-1.00,-6.00,-32.00,-5.00,+2.00,-6.00,+8.00,+5.00,-2.00,-10.00,-17.00,-5.00,-5.00,+3.00
+9.00,+2.00,+2.00,+1.00,+3.00,-1.00,-5.00,+1.00,-15.00,-7.00,-3.00,+3.00,+5.00,+0.00,-3.00,-8.00
-34.00,-30.00,-5.00,-1.00,+1.00,+4.00,+2.00,-36.00,-31.00,-10.00,-2.00,-4.00,+1.00,+0.00,+3.00,-2.00
-19.00,-10.00,-3.00,-2.00,+9.00,+0.00,-2.00,-5.00,+30.00,-1.00,+0.00,-2.00,+6.00,+4.00,+4.00,+9.00
+57.00,+80.00,+11.00,+3.00,-9.00,-9.00,+1.00,+13.00,-24.00,+3.00,-2.00,+4.00,+5.00,+0.00,-3.00,-7.00
+9.00,-8.00,+0.00,-2.00,+10.00,+3.00,-2.00,-4.00,+0.00,-14.00,+0.00,-2.00,-6.00,+0.00,-1.00,-1.00
+18.00,-7.00,+1.00,-1.00,+13.00,+4.00,+2.00,+17.00,-2.00,+14.00,-1.00,-2.00,+7.00,-4.00,-4.00,+0.00
-14.00,-9.00,-5.00,-5.00,-37.00,-4.00,-4.00,-17.00,+2.00,-6.00,-1.00,-2.00,+1.00,+0.00,-1.00,-4.00
-29.00,-42.00,-7.00,-2.00,+5.00,+1.00,-1.00,-11.00,+11.00,+6.00,-3.00,-6.00,-11.00,-2.00,+1.00,+3.00
-2.00,+2.00,+0.00,+1.00,-12.00,-4.00,-2.00,+0.00,-40.00,-10.00,+0.00,+7.00,+17.00,+3.00,+0.00,-6.00
-5.00,-8.00,+1.00,+2.00,+4.00,-2.00,-1.00,+15.00,+27.00,-2.00,+3.00,-4.00,-8.00,+0.00,-2.00,+6.00
+4.00,+14.00,+0.00,-2.00,+2.00,-2.00,+1.00,+4.00,+7.00,+15.00,+0.00,-2.00,+9.00,+1.00,-2.00,+1.00
-2.00,-11.00,-3.00,+0.00,+10.00,-1.00,-1.00,+2.00,+8.00,+5.00,-4.00,-13.00,-41.00,-11.00,+1.00,+5.00
-4.00,+7.00,-2.00,-1.00,-5.00,+1.00,+0.00,+5.00,+20.00,-6.00,-1.00,+0.00,+5.00,+0.00,+4.00,+7.00
-8.00,-29.00,-3.00,+1.00,+1.00,+6.00,-1.00,-13.00,-28.00,-13.00,-4.00,+5.00,+14.00,+2.00,-1.00,-10.00
-1.00,+6.00,-1.00,-3.00,-5.00,-5.00,-3.00,+3.00,+9.00,+5.00,+0.00,-4.00,-6.00,-2.00,-1.00,-1.00
-1.00,+51.00,+6.00,+1.00,+8.00,+3.00,+0.00,-4.00,-21.00,-8.00,-3.00,-2.00,+5.00,+1.00,-6.00,-14.00
+6.00,+6.00,+1.00,+2.00,+6.00,+1.00,+1.00,-1.00,-18.00,-9.00,+1.00,+3.00,-1.00,-1.00,+0.00,-2.00
+12.00,-13.00,-7.00,-6.00,-1.00,-1.00,+2.00,+1.00,+29.00,+16.00,+0.00,-1.00,-3.00,+0.00,+1.00,+8.00
+13.00,+0.00,+2.00,+0.00,-7.00,-4.00,-1.00,+23.00,+9.00,-9.00,-2.00,+3.00,-9.00,-3.00,+1.00,+1.00
+5.00,-4.00,-1.00,+1.00,+4.00,+7.00,-5.00,-30.00,-29.00,-3.00,-2.00,-1.00,+6.00,-3.00,-7.00,-12.00
-21.00,-39.00,-8.00,-6.00,-1.00,-4.00,+2.00,-1.00,+37.00,+10.00,-1.00,-4.00,-19.00,-6.00,+0.00,+8.00
+24.00,+31.00,+4.00,-3.00,-6.00,-4.00,+0.00,+0.00,-22.00,-14.00,-5.00,+2.00,+13.00,+1.00,-5.00,-7.00
+1.00,+13.00,+1.00,+0.00,-9.00,-4.00,-2.00,+11.00,-23.00,-2.00,+2.00,+8.00,+28.00,+5.00,-1.00,+2.00
-7.00,-41.00,-8.00,+0.00,+9.00,-2.00,-5.00,-10.00,+1.00,+9.00,+0.00,-8.00,-20.00,-5.00,-4.00,-6.00
-19.00,+37.00,+2.00,+1.00,+1.00,+0.00,-4.00,-29.00,+7.00,-4.00,-2.00,+0.00,+4.00,+3.00,+1.00,-2.00
+4.00,+11.00,+3.00,+3.00,-18.00,-6.00,+0.00,-2.00,+0.00,+10.00,+0.00,-19.00,-33.00,-11.00,-9.00,-2.00
+2.00,-4.00,-2.00,-1.00,+18.00,+5.00,+3.00,+5.00,-13.00,-9.00,-5.00,-5.00,-6.00,-4.00,-4.00,-7.00
-9.00,-20.00,-3.00,-1.00,-2.00,-1.00,+2.00,+7.00,-3.00,-4.00,+0.00,+2.00,+11.00,+2.00,-2.00,-3.00
+2.00,-9.00,-3.00,+0.00,-2.00,+2.00,-2.00,-2.00,+8.00,+5.00,+3.00,+6.00,+2.00,+1.00,-1.00,+5.00
-25.00,-41.00,-4.00,+0.00,+5.00,-4.00,-3.00,+13.00,+2.00,-3.00,+2.00,+1.00,-9.00,+0.00,+0.00,-2.00
+7.00,+62.00,+9.00,+5.00,-1.00,-4.00,-1.00,-9.00,-40.00,-17.00,-4.00,+1.00,-3.00,-1.00,-2.00,-7.00
-1.00,-4.00,-3.00,-5.00,-4.00,-3.00,+1.00,+10.00,+36.00,-9.00,-1.00,-3.00,+4.00,+0.00,-5.00,-6.00
+11.00,+31.00,-1.00,-5.00,+6.00,-5.00,-1.00,+7.00,+4.00,+26.00,+0.00,-7.00,-25.00,-6.00,-3.00,-2.00
+7.00,-1.00,+0.00,+2.00,+10.00,+7.00,-1.00,-17.00,-23.00,-8.00,+0.00,+10.00,+20.00,+4.00,+0.00,+1.00
-48.00,-57.00,-10.00,-7.00,-9.00,-2.00,-7.00,-13.00,+27.00,+8.00,+0.00,-3.00,-8.00,-2.00,+1.00,+1.00
-5.00,+21.00,-1.00,-5.00,-17.00,-6.00,-1.00,+7.00,+0.00,-5.00,-2.00,+0.00,+4.00,-1.00,-7.00,-8.00
+59.00,+72.00,+22.00,+13.00,+13.00,+5.00,+5.00,+19.00,-38.00,-22.00,-6.00,+3.00,+10.00,+4.00,+3.00,-1.00
-21.00,-24.00,-9.00,-1.00,-29.00,-5.00,+4.00,-19.00,+48.00,-4.00,+2.00,+16.00,+27.00,+6.00,+4.00,+12.00
-30.00,-40.00,-7.00,-5.00,+15.00,-4.00,-8.00,-38.00,+12.00,+11.00,-3.00,-15.00,-29.00,-8.00,+2.00,-1.00
+12.00,-2.00,-3.00,-4.00,+0.00,+0.00,-1.00,+2.00,-6.00,-5.00,-3.00,+0.00,+2.00,-1.00,-3.00,-2.00
-32.00,+10.00,-3.00,-2.00,-2.00,+0.00,-2.00,-6.00,-27.00,-5.00,-3.00,-5.00,-6.00,-2.00,-3.00,-15.00
+30.00,+27.00,+3.00,+0.00,-1.00,-2.00,-2.00,+16.00,-13.00,-8.00,-1.00,+3.00,+10.00,+1.00,+1.00,+1.00
+16.00,+12.00,-2.00,+0.00,+5.00,+3.00,+1.00,-1.00,+15.00,+0.00,+1.00,+1.00,+2.00,-1.00,-5.00,+0.00
-31.00,-84.00,-7.00,+1.00,+4.00,-2.00,-5.00,-14.00,+1.00,-8.00,-4.00,-1.00,-14.00,-1.00,+6.00,+6.00
-8.00,-14.00,-2.00,-2.00,-8.00,-3.00,+0.00,-14.00,-47.00,-14.00,-5.00,-1.00,+12.00,+1.00,-3.00,-11.00
+10.00,+63.00,+6.00,+3.00,+4.00,-6.00,+0.00,+10.00,+12.00,+7.00,+3.00,+4.00,+6.00,+1.00,+3.00,+8.00
+26.00,-2.00,+1.00,-7.00,-19.00,+3.00,-2.00,-9.00,+22.00,+23.00,-3.00,-13.00,-27.00,-4.00,+8.00,+10.00
+13.00,+44.00,+6.00,+3.00,+12.00,+3.00,+2.00,-2.00,+23.00,+0.00,+0.00,+0.00,+5.00,-1.00,+3.00,+10.00
+12.00,-19.00,+0.00,+2.00,-8.00,-2.00,+1.00,+12.00,-55.00,-4.00,-3.00,-6.00,-6.00,-5.00,-7.00,-23.00
+0.00,-19.00,-2.00,-5.00,+14.00,+5.00,-1.00,-2.00,-8.00,+6.00,+5.00,+2.00,+0.00,+5.00,+5.00,+9.00
+3.00,+5.00,+0.00,+2.00,-2.00,-4.00,-3.00,-1.00,-5.00,-18.00,+0.00,+11.00,+15.00,+4.00,-4.00,-3.00
-8.00,-11.00,-2.00,+1.00,-4.00,-3.00,+1.00,+5.00,+5.00,+3.00,+1.00,+6.00,+3.00,+2.00,+10.00,+9.00
-23.00,-69.00,-13.00,-8.00,-5.00,-7.00,-6.00,-1.00,+51.00,+3.00,-7.00,-14.00,-20.00,-6.00,+0.00,+6.00
+8.00,+38.00,+8.00,+3.00,+2.00,+1.00,+1.00,-5.00,-7.00,+2.00,-4.00,-10.00,-13.00,-5.00,-3.00,-7.00
+58.00,+36.00,+6.00,+4.00,+0.00,+4.00,+3.00,+35.00,-2.00,+4.00,+4.00,+7.00,+18.00,+4.00,+2.00,+5.00
+0.00,+10.00,-4.00,-2.00,+5.00,+3.00,+3.00,+9.00,-29.00,-13.00,-3.00,+5.00,+12.00,+1.00,-1.00,-9.00
-25.00,+3.00,-12.00,-5.00,-5.00,-3.00,-4.00,-6.00,-16.00,-10.00,-2.00,-3.00,-11.00,-1.00,-4.00,-9.00
+37.00,+33.00,+12.00,+0.00,-10.00,-1.00,-2.00,-2.00,+32.00,-1.00,-4.00,-5.00,-6.00,-4.00,-1.00,+1.00
+1.00,+34.00,+17.00,+15.00,+23.00,+1.00,+6.00,+21.00,-34.00,+1.00,-3.00,-4.00,-4.00,-4.00,-4.00,-5.00
+5.00,-5.00,+0.00,-4.00,-16.00,+4.00,+5.00,+10.00,+11.00,+22.00,+8.00,+6.00,+7.00,+3.00,-3.00,+1.00
-11.00,-5.00,-3.00,-7.00,-9.00,-2.00,-2.00,-20.00,+46.00,+12.00,+7.00,+10.00,+16.00,+8.00,+8.00,+17.00
-23.00,-60.00,-15.00,-7.00,-5.00,-2.00,-7.00,-8.00,-4.00,-5.00,-2.00,-5.00,-24.00,-6.00,-5.00,-5.00
-11.00,-31.00,-8.00,-5.00,+2.00,-3.00,+0.00,-8.00,-18.00,-18.00,-3.00,-1.00,-3.00,-2.00,-2.00,-3.00
+19.00,+27.00,+4.00,+4.00,-2.00,-3.00,+0.00,-1.00,+19.00,+2.00,+0.00,+2.00,+6.00,-2.00,-3.00,+0.00
+4.00,+1.00,+1.00,+4.00,+10.00,-1.00,+0.00,+7.00,-2.00,+4.00,-3.00,-7.00,-6.00,-5.00,+0.00,+10.00
-1.00,-19.00,-4.00,-6.00,-9.00,+0.00,+1.00,+8.00,-29.00,-4.00,-3.00,-10.00,-1.00,-1.00,-4.00,-7.00
-56.00,-84.00,-14.00,-5.00,-5.00,-2.00,-6.00,-42.00,+60.00,+11.00,+0.00,-3.00,-3.00,-1.00,+6.00,+12.00
+23.00,+61.00,+10.00,+1.00,+8.00,+0.00,-1.00,+0.00,-31.00,-2.00,+1.00,+0.00,+9.00,-1.00,-3.00,-1.00
+18.00,-63.00,+10.00,+11.00,+8.00,+3.00,+5.00,+22.00,+0.00,-4.00,+4.00,+9.00,-6.00,+4.00,+1.00,-3.00
+6.00,-12.00,+4.00,-3.00,-9.00,-8.00,-1.00,+12.00,-10.00,-16.00,+0.00,+6.00,+4.00,+2.00,+3.00,+1.00
-6.00,-6.00,-5.00,-4.00,-1.00,+0.00,-2.00,+4.00,-13.00,+1.00,+1.00,+7.00,+21.00,+2.00,-4.00,-7.00
-14.00,-35.00,-11.00,-5.00,-2.00,-6.00,-3.00,-1.00,+5.00,+0.00,-4.00,-17.00,-22.00,-5.00,-6.00,-4.00
+4.00,+23.00,-3.00,-4.00,+9.00,+2.00,+4.00,+31.00,+9.00,-7.00,-5.00,-13.00,-20.00,-11.00,-7.00,-6.00
-4.00,+0.00,-6.00,-2.00,-1.00,-2.00,-3.00,-10.00,-8.00,+19.00,+1.00,-5.00,-3.00,-3.00,-5.00,-3.00
+8.00,-7.00,-3.00,+1.00,+0.00,+2.00,+1.00,+28.00,+4.00,+0.00,+2.00,+5.00,+14.00,+4.00,+0.00,-3.00
-38.00,-56.00,-21.00,-12.00,-6.00,-8.00,-9.00,-32.00,+6.00,+3.00,-1.00,+6.00,+2.00,+1.00,+0.00,+0.00
+83.00,+110.00,+26.00,+11.00,+3.00,+4.00,+8.00,+22.00,-40.00,-16.00,-2.00,-2.00,+6.00,-2.00,-5.00,-6.00
-6.00,-24.00,+14.00,+16.00,+10.00,+3.00,+10.00,+33.00,+31.00,+2.00,-5.00,+0.00,+5.00,+2.00,+1.00,-5.00
+0.00,+4.00,-7.00,-10.00,-24.00,-10.00,-2.00,-5.00,-28.00,-20.00,-6.00,-1.00,+0.00,-1.00,+0.00,+1.00
-4.00,-8.00,+0.00,+4.00,+21.00,+7.00,+2.00,+5.00,+19.00,-3.00,+0.00,+5.00,+12.00,+1.00,+1.00,+8.00
-37.00,-48.00,-17.00,-10.00,-8.00,-2.00,-5.00,-11.00,-38.00,+14.00,+0.00,-8.00,-17.00,-5.00,-3.00,-9.00
-6.00,-15.00,-8.00,-6.00,-8.00,-1.00,+0.00,-9.00,+23.00,-4.00,+0.00,+3.00,+9.00,+2.00,+4.00,+11.00
+0.00,+33.00,+2.00,+1.00,+7.00,-3.00,-2.00,-18.00,-4.00,-10.00,-7.00,-6.00,-12.00,-9.00,-11.00,-11.00
-5.00,-10.00,+1.00,+0.00,-7.00,-2.00,-1.00,+6.00,-54.00,-15.00,-7.00,-9.00,-20.00,-4.00,-2.00,-10.00
-28.00,-41.00,-11.00,-7.00,-9.00,-6.00,-6.00,-26.00,+21.00,+30.00,+13.00,+32.00,+61.00,+20.00,+11.00,+13.00
-6.00,+79.00,+0.00,-5.00,-1.00,+1.00,-2.00,-11.00,+15.00,+12.00,-2.00,-24.00,-59.00,-14.00,-8.00,-8.00
+19.00,+16.00,+7.00,+4.00,+15.00,+5.00,+3.00,+13.00,-26.00,-5.00,+1.00,-3.00,+11.00,+2.00,+0.00,+3.00
+16.00,+0.00,+5.00,+5.00,-12.00,-1.00,+3.00,+12.00,-3.00,-11.00,-5.00,-2.00,-22.00,-5.00,-4.00,-3.00
-35.00,-67.00,-7.00,+2.00,+24.00,+11.00,-1.00,-10.00,+8.00,-5.00,-5.00,-15.00,-17.00,-9.00,-5.00,-2.00
+49.00,+9.00,+6.00,+2.00,-14.00,+0.00,-3.00,-1.00,-43.00,-7.00,+0.00,+8.00,+19.00,+4.00,-1.00,-14.00
-50.00,-78.00,-23.00,-9.00,+2.00,-2.00,-2.00,-15.00,+3.00,-7.00,-1.00,-4.00,-13.00,-3.00,-1.00,+0.00
-45.00,+54.00,-2.00,-10.00,-7.00,-7.00,-6.00,+12.00,+17.00,+6.00,-5.00,-7.00,+4.00,-2.00,+2.00,+1.00
+43.00,-12.00,+28.00,+18.00,+10.00,+2.00,+8.00,+23.00,+17.00,-2.00,+0.00,+4.00,+4.00,+5.00,+14.00,+18.00
-15.00,-39.00,-11.00,+0.00,+2.00,+10.00,-3.00,-5.00,-39.00,-21.00,-4.00,+1.00,+8.00,+0.00,+3.00,-8.00
-2.00,-26.00,+0.00,-5.00,-7.00,-1.00,-4.00,-4.00,+1.00,-15.00,-6.00,-5.00,-10.00,-1.00,-2.00,-4.00
+3.00,+12.00,-3.00,+3.00,+3.00,-5.00,-2.00,-9.00,+13.00,+34.00,+7.00,+10.00,+18.00,+5.00,+2.00,+0.00
-31.00,-10.00,-18.00,-19.00,-45.00,-11.00,-9.00,-20.00,+22.00,-1.00,+1.00,+10.00,+16.00,+4.00,+2.00,+7.00
-27.00,-3.00,+0.00,-3.00,+9.00,-4.00,+0.00,+1.00,+8.00,-2.00,-6.00,-9.00,-11.00,-4.00,-3.00,+1.00
+16.00,-4.00,+4.00,+4.00,+3.00,+4.00,+1.00,+6.00,+2.00,+0.00,-1.00,-1.00,-1.00,-2.00,-2.00,+3.00
+0.00,+1.00,-10.00,-6.00,-4.00,-4.00,-5.00,+4.00,-38.00,-11.00,-8.00,-16.00,-25.00,-6.00,-6.00,-12.00
+40.00,+90.00,+23.00,+7.00,+2.00,+1.00,+7.00,+29.00,+14.00,-13.00,-3.00,-5.00,-4.00,-4.00,-7.00,-9.00
+22.00,-22.00,+0.00,+2.00,+5.00,+5.00,-26.00,+12.00,+2.00,+7.00,+1.00,+6.00,+15.00,+1.00,+3.00,+13.00
-30.00,-21.00,-9.00,-4.00,-11.00,-6.00,+13.00,+9.00,+2.00,+8.00,+1.00,+6.00,+8.00,+3.00,+1.00,-1.00
+6.00,-30.00,+5.00,+5.00,+4.00,+0.00,+5.00,+4.00,-11.00,-7.00,+4.00,+4.00,+6.00,-1.00,-9.00,-11.00
+46.00,+53.00,+4.00,+5.00,+7.00,+3.00,+6.00,+5.00,+30.00,+23.00,-1.00,-13.00,-18.00,-9.00,-8.00,-3.00
-26.00,-1.00,-7.00,-6.00,-2.00,-2.00,-7.00,-14.00,-71.00,-77.00,-10.00,+8.00,+14.00,+4.00,+2.00,-11.00
-1.00,-13.00,-1.00,-1.00,+6.00,+6.00,-7.00,-7.00,+33.00,+46.00,+9.00,+6.00,+14.00,+7.00,+6.00,+13.00
-15.00,-49.00,-8.00,-3.00,-1.00,+5.00,-3.00,-11.00,+8.00,+4.00,+2.00,+7.00,-10.00,-5.00,+2.00,+10.00
-20.00,-22.00,-7.00,-3.00,+6.00,-1.00,-6.00,-11.00,-5.00,-8.00,-4.00,-5.00,-9.00,-5.00,-6.00,-10.00
-6.00,+10.00,-3.00,-2.00,+2.00,-4.00,+6.00,-3.00,+4.00,+12.00,+0.00,-3.00,-6.00,-5.00,-7.00,-11.00
+5.00,+16.00,+1.00,+2.00,-4.00,-2.00,-2.00,-5.00,-29.00,-17.00,+3.00,+30.00,+60.00,+10.00,+2.00,-6.00
+14.00,+9.00,+13.00,+4.00,-2.00,+2.00,+8.00,+1.00,+21.00,-12.00,-12.00,-49.00,-73.00,-17.00,-2.00,+3.00
-65.00,-42.00,-28.00,-15.00,-9.00,-4.00,-11.00,+3.00,-6.00,+1.00,-2.00,-7.00,-14.00,-1.00,+3.00,+0.00
-8.00,-37.00,+3.00,-3.00,+3.00,-1.00,+4.00,-5.00,+18.00,+16.00,+1.00,-1.00,-6.00,+0.00,-3.00,+4.00
+37.00,+20.00,+24.00,+14.00,+0.00,+1.00,+6.00,+21.00,-9.00,-9.00,-3.00,-5.00,-9.00,-5.00,-3.00,-4.00
+30.00,+18.00,+8.00,+12.00,+28.00,+17.00,+4.00,+18.00,+8.00,+5.00,+2.00,+15.00,+38.00,+8.00,+6.00,+3.00
-5.00,-41.00,-11.00,-8.00,-3.00,-3.00,-5.00,-17.00,-41.00,-20.00,-3.00,-5.00,-6.00,-3.00,+0.00,-5.00
-58.00,-49.00,-23.00,-11.00,-4.00,-8.00,-8.00,-45.00,+12.00,+7.00,+1.00,-3.00,-2.00,+1.00,+1.00,+1.00
+0.00,-12.00,+3.00,-1.00,-2.00,-6.00,-4.00,+0.00,+44.00,+14.00,-1.00,-4.00,-8.00,-2.00,-3.00,-6.00
+27.00,+60.00,+11.00,+9.00,+8.00,+21.00,+4.00,-4.00,-8.00,-7.00,+3.00,+7.00,+15.00,+3.00,+1.00,+0.00
-9.00,-11.00,-8.00,-3.00,+13.00,+0.00,-28.00,-3.00,+9.00,+0.00,-5.00,-4.00,-10.00,-2.00,-1.00,+5.00
-7.00,-4.00,-4.00,-1.00,-3.00,+1.00,+33.00,-2.00,-10.00,+5.00,+4.00,+7.00,+12.00,+1.00,+1.00,-1.00
+20.00,+46.00,+6.00,+0.00,-2.00,+2.00,+7.00,-3.00,-1.00,+10.00,+1.00,-6.00,-19.00,-7.00,-8.00,-6.00
+6.00,-21.00,-1.00,+1.00,-8.00,-7.00,-3.00,+3.00,-2.00,-12.00,-6.00,-1.00,+1.00,+0.00,+1.00,-3.00
+6.00,-1.00,-1.00,+1.00,-8.00,-9.00,-17.00,+4.00,+8.00,-1.00,-2.00,+4.00,+10.00,+2.00,-1.00,-5.00
+17.00,+44.00,+4.00,-1.00,-1.00,-1.00,-6.00,+6.00,+5.00,+7.00,-1.00,-3.00,-1.00,-3.00,-3.00,+1.00
-6.00,-15.00,-1.00,+1.00,+6.00,-1.00,-5.00,-1.00,+23.00,-7.00,-4.00,-11.00,-20.00,-7.00,-7.00,-5.00
-17.00,-62.00,-9.00,-4.00,-6.00,-6.00,+5.00,-6.00,-39.00,-14.00,-2.00,+12.00,+24.00,+9.00,+2.00,-3.00
-2.00,-5.00,+1.00,-1.00,-2.00,+2.00,+10.00,-7.00,+8.00,+1.00,+1.00,-6.00,-7.00,-2.00,-1.00,+0.00
+8.00,-6.00,+3.00,+4.00,+7.00,-2.00,-5.00,+3.00,-2.00,-3.00,+1.00,+4.00,+4.00,-1.00,-1.00,-3.00
+0.00,+3.00,-10.00,-3.00,-12.00,-2.00,+3.00,+3.00,-16.00,+1.00,-5.00,-13.00,-25.00,-8.00,-2.00,-2.00
-43.00,-29.00,-5.00,-10.00,-4.00,-7.00,-11.00,+1.00,+31.00,+0.00,+2.00,+17.00,+42.00,+6.00,+2.00,+10.00
+7.00,+27.00,+8.00,+2.00,-6.00,-1.00,+7.00,-10.00,-8.00,+1.00,-3.00,-20.00,-45.00,-7.00,-6.00,-7.00
-2.00,-16.00,-1.00,+3.00,+1.00,+1.00,-1.00,-1.00,-4.00,-8.00,-4.00,-6.00,-3.00,-2.00,-1.00,+0.00
-24.00,-11.00,-12.00,-9.00,-3.00,-1.00,-8.00,-11.00,+6.00,+11.00,-3.00,-6.00,-11.00,-3.00,-1.00,-3.00
+3.00,-20.00,+8.00,+1.00,+0.00,-4.00,+0.00,+19.00,-3.00,-3.00,+4.00,+3.00,+5.00,+3.00,+0.00,+5.00
+5.00,-5.00,+2.00,+4.00,-3.00,+1.00,+8.00,-1.00,-6.00,-6.00,-2.00,+8.00,+19.00,+3.00,+4.00,+4.00
+6.00,+27.00,+1.00,+0.00,+1.00,+0.00,+1.00,+6.00,+23.00,+19.00,+3.00,-2.00,-3.00,+0.00,-1.00,+2.00
-3.00,+2.00,-2.00,-4.00,-2.00,+1.00,-3.00,-3.00,-18.00,-14.00,-4.00,-4.00,-2.00,-1.00,+0.00,-6.00
-13.00,-8.00,-10.00,-9.00,-15.00,-11.00,-9.00,-20.00,-4.00,-1.00,-3.00,-4.00,-5.00,-3.00,-4.00,-1.00
+1.00,-16.00,-2.00,+3.00,+1.00,+5.00,+8.00,-4.00,+10.00,+4.00,+2.00,+5.00,+5.00,+0.00,-1.00,+0.00
-7.00,-15.00,+2.00,-1.00,-12.00,-6.00,-7.00,-12.00,-16.00,-12.00,-4.00,-1.00,-2.00,-2.00,-2.00,-8.00
-5.00,-1.00,-7.00,-5.00,+1.00,-2.00,-6.00,-6.00,-13.00,-2.00,-2.00,+0.00,+0.00,+0.00,+2.00,-1.00
+12.00,+22.00,+2.00,-1.00,+0.00,-2.00,+0.00,-7.00,+7.00,+2.00,-1.00,-4.00,-8.00,-2.00,-4.00,-4.00
+5.00,-25.00,+6.00,+4.00,+2.00,+2.00,+9.00,+22.00,-17.00,-7.00,+3.00,+17.00,+31.00,+6.00,-1.00,-4.00
-2.00,-34.00,-9.00,-3.00,-5.00,-4.00,-5.00,+4.00,+8.00,+3.00,-4.00,-12.00,-23.00,-8.00,-1.00,+0.00
-2.00,+1.00,+3.00,+2.00,-1.00,-2.00,-5.00,-18.00,-21.00,-13.00,+0.00,-3.00,-7.00,+3.00,+0.00,-1.00
-13.00,+0.00,-7.00,-4.00,-5.00,-3.00,-2.00,-20.00,+12.00,+10.00,+0.00,-3.00,-8.00,-3.00,-2.00,+1.00
-2.00,+4.00,-1.00,-3.00,-3.00,-6.00,-3.00,-10.00,+13.00,+13.00,+5.00,+11.00,+24.00,+2.00,+0.00,+3.00
+11.00,+9.00,+3.00,+2.00,+0.00,+2.00,-23.00,+4.00,-12.00,-5.00,-6.00,-10.00,-13.00,-2.00,+0.00,-8.00
-4.00,+11.00,+1.00,+1.00,+1.00,+2.00,+20.00,+9.00,-4.00,-4.00,-2.00,+2.00,+1.00,-2.00,-3.00,-2.00
-2.00,-17.00,-6.00,-3.00,+0.00,-4.00,-2.00,-3.00,+15.00,+6.00,+3.00,-5.00,-13.00,-3.00,-2.00,-1.00
-16.00,+17.00,+4.00,+1.00,-3.00,-5.00,-2.00,-57.00,+2.00,-7.00,-4.00,+1.00,+8.00,+1.00,+0.00,-1.00
-18.00,+0.00,-3.00,-6.00,+2.00,-1.00,-5.00,+8.00,+0.00,-3.00,+2.00,+6.00,+8.00,+1.00,-5.00,+1.00
-3.00,-3.00,+6.00,+2.00,-1.00,+3.00,-5.00,+5.00,+5.00,-1.00,-4.00,-3.00,-6.00,-1.00,+0.00,+0.00
+15.00,+54.00,-1.00,-1.00,-2.00,+1.00,-3.00,-10.00,-4.00,+1.00,+1.00,-2.00,+3.00,+0.00,-1.00,-5.00
-6.00,-5.00,-5.00,-2.00,+7.00,-5.00,-2.00,+5.00,-10.00,+0.00,-3.00,-8.00,-11.00,-3.00,-3.00,+1.00
+0.00,-1.00,+0.00,-1.00,-12.00,+4.00,+12.00,+7.00,+2.00,-1.00,-2.00,+0.00,+3.00,-2.00,-3.00,-6.00
-10.00,-38.00,-6.00,-1.00,+8.00,-1.00,-5.00,-1.00,-7.00,-12.00,-4.00,-5.00,-6.00,-2.00,-2.00,-3.00
+8.00,+24.00,+3.00,+0.00,-5.00,-2.00,+2.00,-3.00,+7.00,+4.00,-1.00,+2.00,+4.00,+0.00,+3.00,+9.00
+9.00,+34.00,+1.00,-2.00,-5.00,-1.00,+0.00,+17.00,-3.00,-2.00,-2.00,-7.00,-13.00,-2.00,-1.00,+0.00
+12.00,+13.00,+7.00,+6.00,+11.00,+3.00,+4.00,+0.00,-8.00,-9.00,-5.00,+0.00,+2.00,+0.00,+0.00,-3.00
-11.00,+11.00,+0.00,+0.00,+0.00,-1.00,-3.00,-13.00,+4.00,+0.00,-1.00,+3.00,+10.00,-1.00,-1.00,-1.00
+5.00,-11.00,-1.00,+0.00,+0.00,+1.00,-4.00,-2.00,-13.00,-4.00,+0.00,+1.00,-5.00,-1.00,+1.00,-5.00
-5.00,+2.00,-9.00,-4.00,-4.00,+0.00,-4.00,-3.00,-1.00,-8.00,-4.00,-4.00,-7.00,-3.00,+1.00,+4.00
-7.00,-13.00,-5.00,-3.00,-1.00,-1.00,+1.00,-12.00,+12.00,+13.00,+7.00,+7.00,+9.00,+3.00,+3.00,+6.00
+13.00,+9.00,+2.00,+1.00,+1.00,+1.00,-2.00,+5.00,-15.00,-10.00,-3.00,-2.00,+7.00,-1.00,-1.00,-4.00
-2.00,-15.00,+0.00,+2.00,-2.00,-3.00,+1.00,+4.00,+12.00,+4.00,-5.00,-9.00,-20.00,-6.00,-3.00,-4.00
-6.00,-23.00,-3.00,+0.00,+2.00,+2.00,+3.00,+3.00,-7.00,-15.00,-3.00,-1.00,-1.00,-3.00,-7.00,-11.00
+10.00,+7.00,-1.00,-1.00,+3.00,+0.00,+3.00,+2.00,+4.00,+7.00,+2.00,+5.00,+2.00,+0.00,+0.00,+1.00
+4.00,+1.00,-2.00,-1.00,-5.00,-3.00,-4.00,-1.00,+14.00,+8.00,+0.00,-6.00,-4.00,-1.00,+1.00,+6.00
+4.00,-3.00,+0.00,-2.00,+1.00,+0.00,-1.00,+6.00,-13.00,-13.00,-1.00,+4.00,+5.00,+0.00,-1.00,-3.00
+1.00,-4.00,+1.00,-1.00,+0.00,+0.00,+1.00,-1.00,+13.00,+3.00,-2.00,-4.00,-5.00,-3.00,+0.00,+1.00
+1.00,-20.00,+0.00,+3.00,+3.00,-1.00,-1.00,-4.00,-4.00,-12.00,-4.00,-2.00,+0.00,-3.00,-2.00,-1.00
+12.00,+31.00,+2.00,-2.00,-9.00,-1.00,-2.00,-3.00,-4.00,+16.00,+0.00,+1.00,-2.00,+0.00,+0.00,-1.00
-6.00,-8.00,+2.00,+2.00,+1.00,-3.00,-3.00,-3.00,-6.00,+3.00,+0.00,+0.00,+6.00,-1.00,-1.00,+1.00
-6.00,-36.00,-3.00,-4.00,+2.00,+0.00,+0.00,+6.00,-6.00,+0.00,-1.00,+2.00,-1.00,+1.00,+1.00,+1.00
+16.00,+74.00,+2.00,-2.00,-5.00,-3.00,-2.00,-10.00,+0.00,+3.00,-1.00,-1.00,-2.00,-3.00,-3.00,-3.00
-7.00,-19.00,-1.00,+0.00,+3.00,+0.00,+0.00,+0.00,+9.00,-3.00,+2.00,+1.00,-3.00,+1.00,+0.00,+0.00
+18.00,+40.00,+2.00,+0.00,+0.00,-1.00,+3.00,+10.00,-11.00,-13.00,-4.00,-1.00,+1.00,-2.00,-2.00,-4.00
-3.00,-2.00,+1.00,+1.00,-2.00,+0.00,-2.00,+8.00,-8.00,+3.00,-1.00,-1.00,-2.00,-1.00,-2.00,-5.00
+0.00,-10.00,-4.00,-1.00,+4.00,-1.00,+1.00,+6.00,-7.00,-6.00,-1.00,-3.00,-2.00,-1.00,+1.00,+0.00
-2.00,-23.00,+1.00,+0.00,+2.00,+1.00,-1.00,+3.00,+14.00,+2.00,+1.00,+0.00,-4.00,+1.00,+1.00,+6.00
+1.00,-2.00,-3.00,-1.00,-1.00,+3.00,-2.00,-5.00,-4.00,+5.00,-6.00,-4.00,-1.00,+0.00,+6.00,+5.00
+8.00,+30.00,+2.00,+1.00,+1.00,+0.00,-3.00,-1.00,-2.00,-5.00,+0.00,-1.00,-2.00,-3.00,-2.00,-3.00
-6.00,-4.00,-1.00,-1.00,+0.00,-1.00,+2.00,-2.00,+2.00,+14.00,+2.00,-1.00,+3.00,+0.00,-3.00,-5.00
+5.00,+7.00,-2.00,+0.00,+0.00,-2.00,-2.00,-2.00,-13.00,-14.00,-4.00,-2.00,-4.00,-2.00,+1.00,+0.00
-11.00,-59.00,-9.00,-6.00,-1.00,-2.00,-2.00,-4.00,-5.00,+0.00,+1.00,+2.00,+0.00,+0.00,-4.00,-6.00
+7.00,+44.00,+7.00,+2.00,+0.00,+2.00,+2.00,+16.00,+3.00,-5.00,-2.00,-2.00,-1.00,-2.00,-1.00,+3.00
+10.00,+22.00,+1.00,+0.00,-2.00,-2.00,-1.00,-2.00,-8.00,-3.00,-1.00,+0.00,+2.00,-1.00,-1.00,-2.00
+0.00,+10.00,+1.00,-1.00,+2.00,-1.00,+0.00,+6.00,+10.00,+1.00,+1.00,+10.00,+27.00,+2.00,-1.00,-3.00
+18.00,-21.00,-2.00,+0.00,+3.00,+0.00,+3.00,+29.00,-11.00,-10.00,-6.00,-18.00,-43.00,-7.00,-6.00,-5.00
-8.00,-8.00,-4.00,-2.00,-3.00,-2.00,-3.00,-13.00,-8.00,-4.00,-2.00,-6.00,-5.00,-2.00,+0.00,+0.00
-6.00,-1.00,-1.00,-2.00,-4.00,-1.00,-1.00,-1.00,+17.00,+8.00,+0.00,+0.00,-1.00,-1.00,+0.00,-1.00
+12.00,-1.00,+2.00,+2.00,+8.00,+3.00,+1.00,+5.00,-16.00,-19.00,-1.00,-1.00,-2.00,-3.00,-1.00,-2.00
-2.00,+3.00,+2.00,+1.00,+2.00,+1.00,+0.00,+1.00,+3.00,+12.00,+2.00,+6.00,+20.00,+2.00,+3.00,+2.00
+2.00,+1.00,-2.00,-3.00,-3.00,-1.00,-1.00,-5.00,+0.00,+11.00,+5.00,+3.00,+3.00,+2.00,-1.00,-2.00
-9.00,-15.00,+0.00,+1.00,+1.00,+0.00,-1.00,+2.00,-16.00,-9.00,-5.00,-4.00,-8.00,-2.00,-3.00,-7.00
+0.00,-1.00,-4.00,-3.00,-10.00,-4.00,-1.00,+0.00,+10.00,+5.00,-1.00,+0.00,+1.00,+2.00,+5.00,+7.00
-13.00,+4.00,+2.00,+1.00,+2.00,+3.00,+1.00,-3.00,-3.00,-3.00,+2.00,+1.00,+2.00,+0.00,-3.00,-1.00
+4.00,+34.00,+2.00,-1.00,+2.00,+1.00,+1.00,-1.00,-5.00,-6.00,-4.00,-1.00,-3.00,-1.00,-1.00,-2.00
-6.00,-20.00,-3.00,+1.00,+9.00,+0.00,-1.00,-3.00,+7.00,+3.00,+2.00,+2.00,+4.00,+1.00,+3.00,+8.00
-8.00,-8.00,-5.00,-3.00,-12.00,-2.00,-3.00,+0.00,-4.00,-1.00,-2.00,-2.00,-7.00,-4.00,-3.00,-4.00
+1.00,-2.00,+2.00,+1.00,-4.00,-4.00,-3.00,-9.00,+0.00,+1.00,-1.00,-3.00,-1.00,-1.00,-3.00,-3.00
-7.00,-31.00,-5.00,+2.00,-4.00,-2.00,+0.00,-4.00,-23.00,-11.00,-1.00,+0.00,+2.00,+0.00,-2.00,-9.00
+3.00,+5.00,-1.00,-1.00,+2.00,+2.00,+1.00,-2.00,+17.00,+6.00,+1.00,-1.00,+4.00,-1.00,+0.00,+6.00
+13.00,+16.00,+0.00,-3.00,+2.00,-1.00,-2.00,+8.00,-6.00,+0.00,-1.00,-7.00,-11.00,-2.00,-2.00,-1.00
-22.00,-14.00,-5.00,-4.00,+0.00,+0.00,-4.00,-16.00,+11.00,+7.00,+0.00,+0.00,+2.00,-1.00,-2.00,-1.00
+4.00,+3.00,-1.00,-3.00,-6.00,-2.00,-2.00,-3.00,+0.00,-1.00,-1.00,-1.00,+0.00,-1.00,+1.00,+0.00
+8.00,+0.00,+1.00,+0.00,-1.00,-1.00,+1.00,+5.00,-16.00,-11.00,-3.00,-2.00,-3.00,-1.00,-1.00,-3.00
+0.00,+5.00,-2.00,+1.00,-3.00,-2.00,-1.00,-1.00,+6.00,-1.00,+0.00,+0.00,-5.00,-1.00,+0.00,+3.00
-15.00,-29.00,-3.00,-1.00,-3.00,-2.00,-1.00,-7.00,+2.00,+9.00,+0.00,+4.00,+8.00,+0.00,-2.00,-2.00
+13.00,+38.00,+3.00,-2.00,+1.00,-1.00,+0.00,+1.00,+6.00,-1.00,-3.00,-2.00,-4.00,+0.00,-1.00,+1.00
-8.00,-17.00,-2.00,+0.00,-3.00,+0.00,+1.00,+5.00,-4.00,-6.00,+0.00,+0.00,+2.00,-1.00,-7.00,-5.00
-7.00,-9.00,+1.00,-1.00,+8.00,+1.00,-1.00,-3.00,-2.00,+3.00,+0.00,-4.00,-6.00,-2.00,-6.00,-7.00
+4.00,+7.00,+0.00,-1.00,+0.00,+0.00,+0.00,+2.00,-8.00,-11.00,-1.00,-1.00,+2.00,-1.00,+2.00,+7.00
-3.00,-20.00,-4.00,-1.00,+0.00,+0.00,+1.00,+5.00,+8.00,+4.00,-1.00,+1.00,+4.00,-1.00,+0.00,+2.00
-17.00,-15.00,-1.00,-2.00,-3.00,-2.00,-3.00,-13.00,+10.00,+8.00,-2.00,-5.00,-7.00,-3.00,+2.00,+3.00
+21.00,+13.00,+4.00,+1.00,+1.00,+1.00,+1.00,+4.00,-24.00,-21.00,-2.00,+2.00,+6.00,+1.00,+0.00,-7.00
-3.00,+7.00,-2.00,-1.00,-1.00,-3.00,-1.00,-2.00,+5.00,+3.00,-2.00,-2.00,-3.00,-1.00,-1.00,-6.00
+1.00,-13.00,+0.00,-1.00,-1.00,+1.00,+0.00,+5.00,+3.00,+3.00,+1.00,-2.00,-4.00,-2.00,+1.00,-2.00
+3.00,+9.00,+0.00,-2.00,-3.00,-2.00,-2.00,+2.00,-5.00,-5.00,-1.00,+1.00,+3.00,-1.00,+0.00,-1.00
-2.00,-13.00,-6.00,-3.00,-4.00,-1.00,+1.00,+2.00,+5.00,+6.00,+0.00,-1.00,+0.00,-2.00,+1.00,+1.00
-8.00,-1.00,-1.00,-1.00,+1.00,-1.00,-4.00,-22.00,-6.00,-8.00,-3.00,-1.00,-1.00,-1.00,-1.00,-3.00
-3.00,+8.00,-1.00,+1.00,+5.00,-1.00,-1.00,-12.00,+2.00,+0.00,-2.00,-2.00,-2.00,-2.00,+0.00,+0.00
-7.00,-10.00,+1.00,-2.00,-9.00,-1.00,+1.00,+12.00,-8.00,-6.00,-1.00,-1.00,-1.00,-1.00,-1.00,-3.00
-11.00,-6.00,+0.00,-1.00,-1.00,-2.00,-1.00,-8.00,+7.00,+6.00,+1.00,+0.00,+0.00,-1.00,+1.00,+2.00
+15.00,+29.00,+4.00,+2.00,-1.00,-1.00,+2.00,+16.00,+4.00,+3.00,+2.00,+1.00,+2.00,-2.00,-1.00,+0.00
+0.00,-15.00,-5.00,-1.00,-2.00,-3.00,-2.00,+1.00,+2.00,+0.00,+0.00,+0.00,-2.00,-1.00,-2.00,-1.00
-3.00,-9.00,-2.00,-1.00,+0.00,-2.00,-2.00,-6.00,-3.00,+0.00,-2.00,+0.00,-2.00,-2.00,-5.00,-5.00
-5.00,+8.00,-2.00,-1.00,-3.00,-2.00,-3.00,-2.00,-4.00,-5.00,-3.00,-2.00,-3.00,-2.00,+3.00,+0.00
-1.00,-7.00,-1.00,-4.00,-3.00,+1.00,-1.00,+2.00,-4.00,-4.00,+1.00,-1.00,+0.00,-1.00,-3.00,-1.00
-16.00,-38.00,-2.00,-1.00,+0.00,-1.00,+0.00,-4.00,+4.00,+4.00,+1.00,-1.00,+0.00,-2.00,-4.00,-1.00
+18.00,+25.00,+5.00,+2.00,+3.00,+1.00,+1.00,+3.00,-13.00,-11.00,-4.00,-3.00,-3.00,+0.00,+0.00,-4.00
-2.00,+0.00,-2.00,-1.00,-1.00,-1.00,-3.00,-2.00,+3.00,+9.00,+0.00,-3.00,-1.00,+1.00,+0.00,+3.00
+3.00,+16.00,-5.00,-2.00,-1.00,+0.00,-1.00,+0.00,-4.00,+7.00,+0.00,+1.00,+1.00,-1.00,-1.00,-7.00
-3.00,-2.00,-2.00,+1.00,-3.00,-1.00,+0.00,+2.00,+23.00,+3.00,+0.00,+1.00,+0.00,+1.00,+4.00,+7.00
-7.00,-13.00,-2.00,-1.00,+0.00,+0.00,+0.00,+0.00,-1.00,+1.00,+2.00,+0.00,+3.00,+1.00,+4.00,+5.00
-9.00,+8.00,+5.00,+1.00,-1.00,+0.00,-4.00,-24.00,+3.00,+2.00,-2.00,+1.00,-1.00,-2.00,-3.00,-2.00
-3.00,-10.00,-3.00,-4.00,-1.00,-4.00,+0.00,-1.00,-3.00,-7.00,-3.00,-5.00,-6.00,-2.00,-2.00,-4.00
-5.00,-1.00,-3.00,-1.00,-1.00,+0.00,-2.00,+1.00,-9.00,+0.00,+0.00,-2.00,-1.00,+0.00,-3.00,-5.00
-14.00,-14.00,-4.00,-2.00,-2.00,-4.00,-3.00,-28.00,-1.00,-1.00,+0.00,-2.00,-3.00,-2.00,+1.00,-3.00
+5.00,+12.00,+3.00,+3.00,+3.00,+1.00,+1.00,+9.00,+2.00,-1.00,+0.00,+2.00,+1.00,+0.00,+0.00,+3.00
-3.00,-33.00,-4.00,+0.00,-3.00,-1.00,-2.00,-1.00,-6.00,-7.00,-3.00,+0.00,+0.00,+0.00,-4.00,-2.00
+12.00,+45.00,+4.00,+1.00,-2.00,-1.00,-1.00,+1.00,-8.00,-4.00,-3.00,-2.00,-2.00,+0.00,+0.00,-1.00
-2.00,-29.00,-2.00,+0.00,+1.00,-1.00,+0.00,+3.00,+9.00,+3.00,-1.00,-1.00,+0.00,-2.00,-1.00,+3.00
-4.00,+1.00,-2.00,+1.00,+0.00,+0.00,+0.00,+1.00,-6.00,+6.00,+5.00,+1.00,-3.00,-3.00,-7.00,-5.00
-6.00,-16.00,-3.00,-1.00,+1.00,-1.00,+0.00,-4.00,+2.00,-1.00,+3.00,+0.00,+0.00,-2.00,+0.00,+2.00
-1.00,+8.00,-3.00,-2.00,-1.00,-2.00,-2.00,-2.00,-2.00,-12.00,-2.00,-3.00,-2.00,+0.00,+0.00,-3.00
+12.00,+14.00,-1.00,-1.00,+0.00,+0.00,+1.00,+7.00,-3.00,-2.00,+0.00,-2.00,-1.00,-3.00,-3.00,-2.00
-5.00,-16.00,-2.00,-4.00,-3.00,-3.00,-1.00,+0.00,+0.00,-1.00,-4.00,-2.00,-1.00,-1.00,-1.00,-2.00
+0.00,+24.00,+1.00,+0.00,-1.00,-1.00,+0.00,-1.00,-3.00,+0.00,+4.00,+1.00,-1.00,-2.00,+0.00,-3.00
-7.00,-16.00,+0.00,-2.00,+0.00,-2.00,-1.00,-2.00,-1.00,+6.00,+2.00,+1.00,+1.00,-2.00,-2.00,+0.00
+2.00,+3.00,+1.00,-1.00,+1.00,-1.00,+0.00,+4.00,+0.00,-1.00,-1.00,-2.00,-3.00,-1.00,-1.00,-1.00
-2.00,-7.00,-5.00,-3.00,+0.00,+0.00,-1.00,-1.00,+2.00,-2.00,+0.00,-2.00,+0.00,-1.00,-1.00,-4.00
-11.00,-3.00,-5.00,-2.00,+0.00,+0.00,-3.00,-20.00,-5.00,-5.00,-2.00,-3.00,+0.00,+0.00,-2.00,-4.00
+1.00,-14.00,+5.00,-2.00,-3.00,-1.00,-1.00,-11.00,-6.00,-1.00,-2.00,-1.00,-1.00,-2.00,-2.00,-3.00
+1.00,+0.00,-2.00,+1.00,+1.00,-1.00,-4.00,+2.00,+5.00,+4.00,+1.00,+1.00,-1.00,+0.00,+2.00,+6.00
-3.00,+0.00,-1.00,-1.00,-2.00,+1.00,+2.00,+1.00,-2.00,+0.00,+1.00,+0.00,-2.00,-2.00,-1.00,+0.00
+1.00,+0.00,-2.00,+0.00,-1.00,-2.00,-1.00,+4.00,+0.00,-3.00,-2.00,+1.00,+0.00,+0.00,+1.00,+1.00
+0.00,-10.00,-5.00,-2.00,-2.00,+0.00,-1.00,-1.00,+1.00,+1.00,-3.00,-1.00,-1.00,-1.00,-3.00,-2.00
+1.00,-10.00,-2.00,+0.00,-1.00,+0.00,-1.00,+1.00,-3.00,-3.00,-1.00,-1.00,-2.00,-1.00,-2.00,-2.00
+9.00,+39.00,+7.00,+1.00,+0.00,+0.00,-1.00,+2.00,-3.00,+7.00,+7.00,+1.00,-2.00,+1.00,+0.00,+1.00
-15.00,-6.00,+1.00,-1.00,-2.00,-1.00,-1.00,-18.00,-3.00,-3.00,-8.00,-4.00,+0.00,+0.00,+2.00,+1.00
-2.00,+3.00,-6.00,-2.00,-1.00,-1.00,+0.00,+5.00,-2.00,-4.00,-3.00,-1.00,+0.00,-2.00,-1.00,-2.00
+0.00,+3.00,-2.00,-1.00,-1.00,+0.00,-1.00,+0.00,-2.00,-8.00,+0.00,+1.00,-1.00,-1.00,+0.00,-1.00
+1.00,-7.00,-3.00,-2.00,+1.00,+0.00,-1.00,+2.00,-3.00,-6.00,-10.00,-4.00,-2.00,-2.00,-1.00,-2.00
+3.00,-5.00,+0.00,-1.00,-1.00,-1.00,+0.00,+8.00,+2.00,+0.00,+4.00,+1.00,-2.00,-1.00,-1.00,-1.00
-4.00,-3.00,+4.00,+1.00,-2.00,-2.00,+1.00,-3.00,-4.00,-8.00,-11.00,-5.00,-4.00,-3.00,-1.00,-2.00
-6.00,+1.00,-1.00,-1.00,-1.00,-4.00,-2.00,-3.00,-1.00,+2.00,+1.00,-1.00,-1.00,+0.00,+0.00,-1.00
-3.00,-18.00,-13.00,+0.00,-1.00,-2.00,+0.00,-4.00,-2.00,-4.00,-5.00,+0.00,-1.00,-1.00,-1.00,-2.00
+16.00,+12.00,+7.00,+1.00,+2.00,+1.00,+3.00,+24.00,+2.00,+7.00,+3.00,+2.00,+2.00,+1.00,-2.00,+1.00
-5.00,-4.00,+0.00,+1.00,+0.00,+1.00,-2.00,-5.00,+0.00,+2.00,+2.00,+0.00,+0.00,+0.00,+2.00,+3.00
+2.00,+4.00,-8.00,-6.00,-3.00,+0.00,+0.00,+2.00,+0.00,+4.00,-2.00,-1.00,+0.00,-3.00,-5.00,-4.00
-3.00,-2.00,-4.00,-5.00,-4.00,-3.00,-2.00,+0.00,+0.00,+3.00,+2.00,+0.00,-1.00,+0.00,+3.00,-1.00
+4.00,-2.00,-11.00,-4.00,-1.00,-2.00,-2.00,+7.00,+0.00,-2.00,-1.00,-3.00,-2.00,-2.00,-1.00,+1.00
+2.00,+2.00,+3.00,-2.00,+0.00,-1.00,+0.00,+3.00,-3.00,-11.00,-9.00,-2.00,-3.00,-2.00,+2.00,+1.00
+1.00,+7.00,+1.00,+0.00,-1.00,-3.00,-1.00,-10.00,-1.00,-1.00,+1.00,+0.00,-3.00,-2.00,-7.00,-1.00
+0.00,-4.00,+3.00,+2.00,-2.00,+0.00,+0.00,-1.00,+1.00,-3.00,-1.00,+1.00,+0.00,+1.00,+6.00,-4.00
-2.00,+1.00,+0.00,+1.00,-1.00,-1.00,+2.00,-2.00,-2.00,-7.00,-4.00,-2.00,+0.00,-1.00,+3.00,+7.00
-4.00,-8.00,+0.00,+1.00,-1.00,+0.00,-2.00,+1.00,+0.00,-1.00,+2.00,-1.00,-1.00,-2.00,-3.00,-3.00
-3.00,+0.00,-2.00,+1.00,-1.00,-1.00,-2.00,-6.00,-1.00,+1.00,-1.00,-1.00,-2.00,+0.00,-4.00,-1.00
-2.00,-6.00,+3.00,+2.00,+2.00,-2.00,+1.00,+1.00,-3.00,-4.00,-3.00,-1.00,+0.00,-3.00,-4.00,-7.00
+1.00,+3.00,+0.00,-1.00,+1.00,-2.00,-2.00,-2.00,+0.00,+0.00,+0.00,+0.00,+0.00,+0.00,-2.00,+1.00
-1.00,-16.00,-12.00,-5.00,-2.00,-2.00,-1.00,+1.00,-2.00,+2.00,+6.00,-1.00,+0.00,+0.00,+1.00,+2.00
+2.00,+7.00,-1.00,-6.00,+1.00,-1.00,+2.00,+8.00,-2.00,-5.00,-5.00,-1.00,-1.00,-1.00,-1.00,+0.00
-1.00,+5.00,-1.00,+0.00,+0.00,-1.00,-1.00,-6.00,-2.00,+9.00,+4.00,-1.00,-2.00,-4.00,-6.00,-3.00
+4.00,-1.00,+4.00,+2.00,+1.00,+0.00,+3.00,+16.00,-3.00,-19.00,-14.00,-4.00,-4.00,-1.00,+3.00,-8.00
-1.00,+2.00,+2.00,-1.00,-1.00,-3.00,+0.00,+3.00,+1.00,+12.00,+9.00,+1.00,+1.00,+2.00,+4.00,-1.00
-2.00,+0.00,-1.00,-2.00,-2.00,+0.00,+0.00,+5.00,+1.00,-9.00,-3.00,-3.00,-1.00,+1.00,+7.00,+26.00
-2.00,-4.00,+1.00,-1.00,-1.00,+2.00,-2.00,+1.00,-4.00,-8.00,-5.00,-3.00,-2.00,-1.00,-14.00,-4.00
-1.00,+0.00,+0.00,+0.00,-1.00,+0.00,-2.00,-7.00,+2.00,+4.00,+1.00,+0.00,+0.00,-2.00,+10.00,+10.00
-5.00,-3.00,-3.00,+0.00,-2.00,-2.00,-1.00,+1.00,-1.00,-2.00,-5.00,+0.00,+0.00,-2.00,-10.00,-7.00
+1.00,-5.00,-2.00,+1.00,-2.00,-3.00,-3.00,+2.00,-1.00,+9.00,+3.00,+1.00,-1.00,+0.00,-4.00,-9.00
-1.00,-1.00,-2.00,-2.00,+0.00,-1.00,+0.00,+4.00,-1.00,-2.00,+3.00,+1.00,-2.00,+1.00,+5.00,-9.00
+0.00,+0.00,+1.00,+2.00,+0.00,-2.00,-3.00,-2.00,-3.00,-4.00,+0.00,-1.00,+0.00,-1.00,-5.00,+6.00
-3.00,+3.00,+4.00,+0.00,+1.00,+0.00,-6.00,-11.00,-1.00,+7.00,+3.00,+1.00,-1.00,-3.00,-4.00,-3.00
-7.00,-6.00,-4.00,+0.00,+0.00,+2.00,+10.00,-13.00,-4.00,-15.00,-8.00,-3.00,-3.00,-2.00,+5.00,-6.00
+5.00,+0.00,-3.00,-4.00,-3.00,-1.00,+2.00,+14.00,-2.00,-9.00,-2.00,-2.00,-2.00,-1.00,+3.00,+1.00
-1.00,+0.00,-1.00,+0.00,-2.00,-1.00,-1.00,-3.00,-1.00,+7.00,+5.00,+2.00,-2.00,-4.00,-8.00,-7.00
+0.00,+1.00,+0.00,+0.00,+1.00,-1.00,-3.00,+6.00,+0.00,-2.00,-1.00,-1.00,+0.00,+0.00,+6.00,-4.00
+0.00,+2.00,+1.00,+0.00,-2.00,-2.00,-2.00,-10.00,+0.00,+4.00,+1.00,+0.00,+1.00,-1.00,-18.00,-9.00
-3.00,-3.00,+0.00,+0.00,+0.00,-2.00,-2.00,+2.00,+0.00,+7.00,+0.00,-2.00,-2.00,-2.00,+7.00,+0.00
+0.00,-2.00,+1.00,-2.00,-1.00,+0.00,-2.00,-3.00,+1.00,-4.00,-3.00,+2.00,+1.00,+0.00,-7.00,-1.00
+3.00,-1.00,-3.00,-1.00,-1.00,+0.00,+1.00,+0.00,+0.00,+1.00,+4.00,-1.00,-1.00,-1.00,-2.00,+3.00
-4.00,-5.00,+3.00,-1.00,-2.00,-1.00,-3.00,+14.00,-3.00,-12.00,-8.00,-4.00,-2.00,-3.00,-3.00,-17.00
-4.00,+10.00,+0.00,-2.00,-1.00,-1.00,+1.00,-7.00,-3.00,+2.00,-1.00,+0.00,+0.00,-4.00,-2.00,+5.00
-2.00,-2.00,-3.00,-1.00,-2.00,-2.00,-8.00,-2.00,-2.00,-7.00,+0.00,-2.00,-1.00,+2.00,+0.00,-11.00
+0.00,-1.00,-3.00,-1.00,-1.00,+0.00,+1.00,-12.00,+1.00,-1.00,-6.00,-4.00,+0.00,+2.00,+22.00,-4.00
+0.00,-5.00,-4.00,+0.00,+1.00,+0.00,+1.00,+6.00,+2.00,+8.00,+2.00,-1.00,+1.00,+2.00,-2.00,+8.00
-2.00,-4.00,+0.00,+0.00,+2.00,+0.00,-1.00,-10.00,-4.00,-11.00,-6.00,-2.00,+0.00,+0.00,-3.00,+5.00
-5.00,+2.00,+2.00,-1.00,-1.00,-1.00,-2.00,-7.00,+1.00,+11.00,+4.00,+2.00,-2.00,-4.00,-7.00,+4.00
-3.00,-8.00,-2.00,+0.00,-1.00,+0.00,+2.00,-4.00,-3.00,-3.00,-4.00,-1.00,-2.00,-3.00,-8.00,-10.00
+2.00,+2.00,-4.00,-5.00,-4.00,-2.00,-2.00,+16.00,-2.00,-5.00,-2.00,+0.00,-2.00,-1.00,+7.00,-6.00
+2.00,+8.00,+6.00,+2.00,-2.00,-3.00,-4.00,+9.00,+3.00,+3.00,+3.00,-1.00,-1.00,-1.00,-5.00,+4.00
+0.00,-9.00,-13.00,-4.00,-1.00,-2.00,-5.00,+8.00,-3.00,-5.00,-6.00,-4.00,-2.00,-2.00,-14.00,-12.00
-4.00,-1.00,+1.00,-1.00,+1.00,-3.00,-7.00,-33.00,-2.00,-2.00,+2.00,+0.00,-2.00,-1.00,+5.00,+1.00
-2.00,+2.00,+0.00,+1.00,+3.00,+6.00,+18.00,-15.00,+0.00,+14.00,+3.00,+0.00,+0.00,-1.00,-10.00,+5.00
+4.00,-6.00,-4.00,+0.00,+0.00,+0.00,+1.00,+19.00,-2.00,-14.00,-6.00,-1.00,+0.00,+3.00,+9.00,-10.00
+0.00,+7.00,+1.00,-1.00,-2.00,+0.00,+2.00,+10.00,+1.00,-2.00,+1.00,+1.00,-1.00,+1.00,+3.00,+12.00
+1.00,-6.00,-3.00,+2.00,-3.00,-1.00,-4.00,+6.00,+1.00,-4.00,-3.00,-3.00,-2.00,-1.00,-10.00,+4.00
+2.00,+4.00,+6.00,+0.00,+0.00,-2.00,-7.00,+2.00,-2.00,+0.00,-1.00,-3.00,-1.00,-2.00,+6.00,+4.00
-1.00,+8.00,+0.00,+0.00,-1.00,-1.00,-3.00,-12.00,-3.00,+1.00,-1.00,+0.00,+0.00,-3.00,-9.00,-3.00
+0.00,-4.00,+2.00,+1.00,+1.00,+0.00,+2.00,-7.00,-2.00,-8.00,-5.00,-4.00,-1.00,+0.00,-2.00,-13.00
+4.00,-1.00,-2.00,-3.00,-1.00,+0.00,-2.00,+28.00,-1.00,+5.00,+4.00,+1.00,+0.00,+0.00,-1.00,+7.00
-6.00,-5.00,-2.00,+1.00,+0.00,+0.00,-5.00,-22.00,-2.00,-6.00,-5.00,+1.00,-2.00,-2.00,+2.00,-3.00
-2.00,-8.00,-1.00,-4.00,+0.00,+0.00,+1.00,-5.00,-2.00,+1.00,-1.00,-3.00,-1.00,+1.00,+1.00,+4.00
-4.00,+1.00,+5.00,+1.00,+1.00,+0.00,+1.00,-25.00,-2.00,-2.00,-3.00,-1.00,-1.00,+0.00,+3.00,-2.00
-1.00,+0.00,-1.00,-1.00,-1.00,+0.00,+3.00,+12.00,-2.00,+1.00,+2.00,+1.00,+0.00,-2.00,-8.00,+3.00
-1.00,+3.00,+2.00,+1.00,-1.00,-2.00,-4.00,+9.00,-1.00,-3.00,+0.00,+1.00,+1.00,-1.00,-1.00,-5.00
-1.00,-10.00,-9.00,-2.00,-3.00,-1.00,-5.00,-6.00,+0.00,+1.00,+1.00,-2.00,-3.00,-1.00,+1.00,+3.00
+2.00,-1.00,+2.00,+0.00,-3.00,+0.00,+1.00,-4.00,-3.00,+4.00,+0.00,-1.00,-1.00,-2.00,+1.00,+1.00
-4.00,+1.00,+1.00,+1.00,-1.00,+0.00,+2.00,-8.00,-1.00,-6.00,-2.00,-1.00,+0.00,-1.00,-7.00,-5.00
+4.00,+2.00,+1.00,-2.00,+0.00,-2.00,-2.00,+4.00,+0.00,+0.00,-1.00,-2.00,-2.00,-1.00,+2.00,-1.00
-2.00,-1.00,-2.00,-3.00,-2.00,-2.00,+0.00,-9.00,+0.00,-1.00,-3.00,-1.00,+1.00,-1.00,-1.00,+0.00
+2.00,-3.00,-2.00,-1.00,-1.00,-2.00,+2.00,+4.00,-1.00,-4.00,-3.00,-1.00,+1.00,-1.00,+1.00,+0.00
-4.00,+2.00,+1.00,-4.00,-1.00,-1.00,-1.00,-1.00,-2.00,-2.00,-1.00,-2.00,-3.00,-1.00,-1.00,-2.00
-3.00,-4.00,-1.00,+1.00,-2.00,-1.00,-6.00,-5.00,+0.00,+9.00,+3.00,-1.00,+1.00,-2.00,+2.00,+0.00
-5.00,+0.00,+1.00,+0.00,-2.00,-1.00,+0.00,-9.00,-3.00,-10.00,-3.00,-1.00,+0.00,-1.00,-4.00,+1.00
+2.00,-2.00,+0.00,+0.00,-1.00,-1.00,+2.00,+9.00,+0.00,+6.00,+1.00,-1.00,-2.00,-1.00,-2.00,-4.00
-4.00,-1.00,-3.00,-3.00,-1.00,+0.00,-1.00,-5.00,-3.00,-5.00,-2.00,-2.00,+0.00,+0.00,+0.00,+0.00
-4.00,-2.00,+0.00,-2.00,-1.00,-3.00,-2.00,-7.00,-2.00,-6.00,-4.00,-2.00,-1.00,-3.00,+2.00,-1.00
+2.00,-5.00,+0.00,+1.00,+2.00,+1.00,+1.00,+0.00,+1.00,+1.00,+0.00,-2.00,-1.00,+0.00,-14.00,-9.00
-3.00,-3.00,+3.00,+2.00,+0.00,+0.00,+1.00,+7.00,+1.00,+4.00,+4.00,+0.00,+0.00,-1.00,+8.00,+13.00
+1.00,+5.00,-5.00,-2.00,-2.00,-1.00,-1.00,+0.00,+1.00,+2.00,-2.00,+0.00,-1.00,+0.00,-3.00,+3.00
-3.00,-1.00,-2.00,+0.00,+0.00,-1.00,-2.00,-2.00,-2.00,-4.00,-1.00,-1.00,-1.00,+1.00,+6.00,-4.00
-3.00,-3.00,-1.00,+0.00,+1.00,-1.00,-2.00,+0.00,-3.00,+3.00,+1.00,-2.00,-1.00,+1.00,+4.00,+2.00
-2.00,+1.00,+0.00,-3.00,-1.00,+0.00,-2.00,-4.00,-3.00,-13.00,-10.00,-3.00,-2.00,-3.00,-7.00,-7.00
+0.00,-5.00,-1.00,-1.00,+1.00,+0.00,-2.00,+4.00,+1.00,+4.00,+0.00,-1.00,-2.00,-4.00,-3.00,+1.00
+1.00,-3.00,-5.00,-3.00,-3.00,+0.00,-3.00,+4.00,+1.00,+0.00,+6.00,+2.00,+0.00,-1.00,-7.00,-1.00
-1.00,+0.00,+0.00,+0.00,-3.00,-4.00,-3.00,-8.00,-2.00,-8.00,-5.00,-3.00,-4.00,-4.00,-5.00,-3.00
+1.00,-3.00,-1.00,+1.00,+1.00,-1.00,+5.00,-13.00,-1.00,+1.00,+1.00,-1.00,+0.00,+0.00,-8.00,-5.00
-1.00,+0.00,+1.00,+0.00,-2.00,+0.00,+2.00,+9.00,-4.00,-3.00,-1.00,-1.00,-3.00,+1.00,+10.00,-16.00
+1.00,-4.00,-1.00,+0.00,+0.00,-1.00,-4.00,+2.00,+3.00,+0.00,+0.00,+0.00,-1.00,+1.00,-3.00,+26.00
+6.00,+3.00,+0.00,-1.00,-2.00,+1.00,-2.00,+9.00,+0.00,+0.00,+1.00,+0.00,+1.00,+0.00,+4.00,+2.00
+3.00,-1.00,-5.00,-3.00,-2.00,-2.00,-7.00,-10.00,+0.00,+2.00,+0.00,+0.00,-1.00,-4.00,-7.00,-2.00
+6.00,+3.00,+1.00,-1.00,+0.00,-1.00,+8.00,+11.00,-1.00,+3.00,-2.00,-1.00,-1.00,-3.00,+0.00,+2.00
-3.00,-5.00,-4.00,+0.00,+0.00,+0.00,+4.00,-1.00,+0.00,-1.00,-1.00,-1.00,-2.00,-2.00,-12.00,-7.00
+4.00,+4.00,+0.00,-1.00,+2.00,+0.00,-3.00,+3.00,-1.00,-1.00,-1.00,+0.00,-2.00,+1.00,+17.00,-10.00
-3.00,+0.00,+1.00,-1.00,-1.00,-3.00,-3.00,+5.00,-2.00,-1.00,-4.00,-4.00,-1.00,+0.00,+0.00,+9.00
-3.00,-6.00,-4.00,-1.00,-3.00,-2.00,-9.00,-12.00,-3.00,-6.00,-3.00,+0.00,-1.00,+0.00,-2.00,-10.00
-4.00,-2.00,-1.00,-2.00,-1.00,-1.00,+0.00,-22.00,-1.00,+2.00,-2.00,+0.00,-2.00,-2.00,-1.00,+6.00
+0.00,-3.00,+1.00,+2.00,+1.00,+0.00,+5.00,+5.00,+0.00,-4.00,-1.00,-1.00,-1.00,-3.00,-9.00,+0.00
-1.00,+1.00,-3.00,-2.00,-3.00,+0.00,-5.00,+9.00,-1.00,-3.00,-2.00,+1.00,+0.00,+2.00,+8.00,-9.00
-2.00,-2.00,+2.00,+1.00,-2.00,-1.00,+6.00,-5.00,+0.00,-1.00,+1.00,+0.00,+1.00,+1.00,+7.00,+6.00
+1.00,+2.00,+1.00,+0.00,-1.00,-2.00,+0.00,+15.00,-1.00,-3.00,-8.00,-4.00,-4.00,-5.00,-5.00,+0.00
-7.00,-4.00,-6.00,-4.00,-3.00,-2.00,-4.00,-13.00,+0.00,+8.00,+7.00,+0.00,+0.00,-3.00,-21.00,-7.00
-3.00,-2.00,-2.00,-2.00,-2.00,-2.00,-1.00,+9.00,+0.00,-5.00,-2.00,+0.00,-1.00,-2.00,+4.00,+1.00
-1.00,+0.00,-1.00,-2.00,-1.00,-2.00,-4.00,-3.00,-2.00,-8.00,-2.00,-3.00,-1.00,-2.00,-3.00,-2.00
-1.00,+1.00,+1.00,-1.00,+1.00,+1.00,+7.00,-33.00,+0.00,+1.00,+0.00,+1.00,+0.00,+2.00,-5.00,-12.00
+2.00,-1.00,-1.00,-1.00,+0.00,+1.00,+6.00,+22.00,-1.00,+2.00,-1.00,+0.00,-1.00,+0.00,+17.00,+6.00
+3.00,+1.00,+1.00,+0.00,+0.00,+0.00,-4.00,+12.00,-1.00,+8.00,+5.00,+1.00,+0.00,-3.00,-11.00,-3.00
+1.00,-1.00,-4.00,-3.00,-2.00,-3.00,-11.00,-1.00,-2.00,-4.00,-2.00,-1.00,-1.00,+0.00,+6.00,-6.00
-6.00,-2.00,-3.00,+0.00,-2.00,-3.00,-3.00,-26.00,+0.00,+5.00,+3.00,-1.00,+1.00,+2.00,+14.00,+11.00
+3.00,+4.00,+1.00,-1.00,-1.00,+1.00,+9.00,+17.00,-3.00,-11.00,-2.00,+0.00,-1.00,+0.00,-9.00,+1.00
-7.00,-3.00,+0.00,+1.00,+0.00,+2.00,+2.00,+14.00,-1.00,-3.00,-5.00,-5.00,-1.00,-1.00,-5.00,-6.00
+1.00,+1.00,+0.00,+0.00,+1.00,-1.00,-5.00,+7.00,-1.00,-3.00,-3.00,-3.00,-2.00,-3.00,-10.00,+3.00
-2.00,+1.00,+2.00,+0.00,-1.00,-1.00,-6.00,+10.00,-3.00,+6.00,+4.00,+0.00,-2.00,+1.00,+6.00,-9.00
+0.00,-3.00,-1.00,+0.00,-1.00,-3.00,-5.00,-12.00,+0.00,+2.00,-2.00,+1.00,+1.00,-1.00,-2.00,+0.00
-3.00,-2.00,-2.00,-2.00,-1.00,-3.00,+0.00,-5.00,-2.00,-4.00,-3.00,-2.00,+0.00,-3.00,-3.00,+2.00
-2.00,-6.00,-2.00,+0.00,+1.00,+0.00,+0.00,-14.00,-1.00,+5.00,+2.00,+0.00,+0.00,+0.00,-2.00,-5.00
+0.00,-10.00,-7.00,-1.00,+0.00,-1.00,-3.00,-1.00,-2.00,-9.00,-3.00,-3.00,-2.00,-1.00,+5.00,+0.00
-2.00,+8.00,+8.00,+0.00,-2.00,-1.00,+2.00,-24.00,+0.00,+0.00,-2.00,-1.00,-1.00,+0.00,+2.00,+3.00
+3.00,+8.00,-3.00,-2.00,-1.00,+1.00,+2.00,+4.00,-2.00,+2.00,+1.00,-1.00,-1.00,+2.00,+5.00,+1.00
-4.00,+1.00,+1.00,+0.00,-1.00,+0.00,+4.00,+1.00,+2.00,-1.00,-1.00,+1.00,-1.00,+0.00,-3.00,+3.00
+1.00,-1.00,-2.00,+1.00,-2.00,-1.00,-3.00,+15.00,-4.00,+1.00,+2.00,+0.00,-2.00,-7.00,-8.00,-11.00
-2.00,-7.00,-1.00,+0.00,+0.00,-1.00,-8.00,+3.00,-1.00,+1.00,-2.00,-1.00,-4.00,-2.00,+0.00,+1.00
-9.00,-3.00,-3.00,+0.00,-2.00,-1.00,+1.00,-27.00,+1.00,-4.00,+1.00,+0.00,+1.00,+2.00,+4.00,-2.00
+0.00,+0.00,+0.00,-2.00,+0.00,-2.00,-1.00,-3.00,-2.00,+2.00,+1.00,-1.00,+1.00,+2.00,+2.00,+5.00
+1.00,-2.00,+0.00,-2.00,-1.00,+1.00,+5.00,+11.00,-3.00,-2.00,-1.00,-1.00,+0.00,+1.00,+11.00,-3.00
-2.00,+2.00,-1.00,-1.00,-1.00,-1.00,-2.00,-5.00,-2.00,-5.00,-7.00,-4.00,-3.00,-3.00,-14.00,+1.00
+9.00,-4.00,-3.00,+0.00,+1.00,+0.00,-5.00,+1.00,+0.00,+3.00,+1.00,-3.00,-3.00,-3.00,-4.00,-4.00
-15.00,-1.00,+1.00,+0.00,-1.00,-3.00,-1.00,-4.00,+1.00,-1.00,-2.00,+1.00,-1.00,-1.00,-6.00,+3.00
+4.00,+3.00,-1.00,-3.00,-1.00,-2.00,+1.00,+12.00,-1.00,-5.00,-4.00,-2.00,-3.00,-4.00,-7.00,-6.00
-3.00,-3.00,-2.00,-2.00,-2.00,-1.00,-3.00,+1.00,-2.00,+0.00,-1.00,-3.00,+0.00,+2.00,+10.00,+1.00
+3.00,-2.00,+0.00,-1.00,+0.00,-1.00,-6.00,-1.00,-2.00,+1.00,+2.00,+2.00,+0.00,-1.00,+1.00,+1.00
+4.00,+1.00,+2.00,+0.00,-1.00,+0.00,+0.00,+17.00,-2.00,-8.00,-7.00,-2.00,+0.00,-1.00,+0.00,-1.00
-1.00,+5.00,+2.00,+0.00,+1.00,-2.00,+1.00,-12.00,+0.00,+0.00,+1.00,+0.00,+1.00,+3.00,-1.00,-1.00
-7.00,-4.00,-5.00,-2.00,-2.00,-1.00,-9.00,-2.00,+3.00,+7.00,+4.00,-2.00,-2.00,-4.00,-4.00,-7.00
-1.00,-2.00,-1.00,-2.00,-2.00,+0.00,+15.00,-2.00,-1.00,+2.00,+1.00,-1.00,-1.00,+0.00,+1.00,-1.00
+3.00,-1.00,-2.00,-1.00,-1.00,+2.00,-1.00,+11.00,-1.00,-9.00,-3.00,-4.00,-3.00,-2.00,-1.00,+1.00
