-8.00,-2.00,-1.00,-1.00,+0.00,-1.00,-7.00,-44.00,-1.00,+0.00,+0.00,-1.00,-2.00,-3.00,-1.00,-2.00
+2.00,+3.00,+2.00,+0.00,+1.00,+0.00,+1.00,+0.00,+1.00,+0.00,-2.00,-1.00,+0.00,-1.00,+0.00,-1.00
-2.00,-2.00,-1.00,-3.00,-2.00,-1.00,-1.00,+2.00,-1.00,-1.00,-1.00,-1.00,-2.00,-2.00,+1.00,+2.00
+1.00,-4.00,-1.00,+1.00,-1.00,-1.00,-4.00,-2.00,-1.00,-3.00,-1.00,-1.00,-4.00,-2.00,+0.00,+0.00
+1.00,+1.00,+2.00,+0.00,-2.00,+1.00,+1.00,+12.00,-1.00,-2.00,-1.00,-3.00,-1.00,+0.00,+3.00,+0.00
+1.00,-2.00,-2.00,-1.00,+0.00,-2.00,-5.00,-1.00,+0.00,+0.00,-3.00,-2.00,-1.00,+1.00,+3.00,+0.00
-2.00,+3.00,+0.00,+2.00,+0.00,-2.00,-2.00,-32.00,-2.00,-2.00,+0.00,-1.00,+0.00,-1.00,-8.00,-3.00
+2.00,+2.00,+1.00,+0.00,-1.00,-1.00,-2.00,+16.00,-1.00,+4.00,+0.00,+1.00,-1.00,+0.00,-1.00,-3.00
+3.00,-1.00,-1.00,-1.00,-2.00,-2.00,-1.00,+4.00,+6.00,-1.00,-1.00,-1.00,-1.00,-2.00,-9.00,+3.00
-2.00,-6.00,-3.00,-1.00,-2.00,+0.00,+1.00,-1.00,+9.00,-6.00,-3.00,-4.00,-4.00,-3.00,-2.00,+2.00
+0.00,-4.00,-3.00,-2.00,-1.00,-1.00,+0.00,+19.00,-23.00,-2.00,-3.00,-3.00,-2.00,-1.00,-4.00,-9.00
-3.00,+2.00,-1.00,+0.00,-2.00,+0.00,+0.00,-9.00,-10.00,+2.00,+1.00,-1.00,+1.00,+0.00,-3.00,-7.00
-2.00,-1.00,-2.00,-2.00,-3.00,+0.00,-1.00,-25.00,-2.00,-7.00,+2.00,+6.00,+6.00,+2.00,-2.00,-2.00
+2.00,+5.00,-1.00,+0.00,+0.00,+0.00,-6.00,-3.00,+3.00,-1.00,+0.00,+6.00,+4.00,+1.00,+0.00,+0.00
-5.00,-7.00,-3.00,-2.00,-2.00,+0.00,-2.00,+6.00,+6.00,+14.00,-3.00,-6.00,-10.00,-3.00,-5.00,+3.00
+0.00,-2.00,+3.00,+0.00,+1.00,-1.00,-4.00,-40.00,+3.00,-5.00,-4.00,-3.00,-2.00,-5.00,-8.00,-4.00
-1.00,-2.00,-2.00,-2.00,-2.00,+0.00,+1.00,+11.00,-4.00,+2.00,+0.00,-3.00,-4.00,-2.00,-1.00,-5.00
-37.00,-13.00,-4.00,-3.00,-3.00,-3.00,-5.00,-82.00,-2.00,-7.00,-1.00,+0.00,+3.00,-2.00,-3.00,-4.00
+3.00,-17.00,-6.00,-7.00,-5.00,-3.00,-1.00,-6.00,+0.00,-7.00,-2.00,+2.00,+1.00,+0.00,+2.00,-1.00
+13.00,+14.00,-1.00,+1.00,+0.00,+0.00,+1.00,+10.00,-2.00,-1.00,-2.00,-1.00,-1.00,-1.00,-1.00,-2.00
+7.00,+2.00,+9.00,+6.00,+1.00,+0.00,-1.00,+11.00,+2.00,-1.00,-1.00,-2.00,+0.00,-1.00,+1.00,+1.00
+8.00,+19.00,+3.00,+4.00,-5.00,+0.00,+4.00,+19.00,+1.00,+1.00,-2.00,+1.00,-4.00,+2.00,-1.00,-1.00
-3.00,+4.00,-3.00,-2.00,+7.00,+0.00,-5.00,+28.00,+6.00,-1.00,+1.00,+0.00,+2.00,+0.00,+2.00,+0.00
-15.00,-19.00,-7.00,-5.00,-3.00,-4.00,-4.00,-14.00,-15.00,-7.00,-1.00,+1.00,-1.00,+1.00,+5.00,-2.00
+5.00,-2.00,-5.00,-4.00,-1.00,+0.00,-1.00,-2.00,-2.00,-1.00,-2.00,-2.00,-1.00,-1.00,+0.00,+0.00
-4.00,-12.00,-3.00,-2.00,-3.00,-2.00,-2.00,+10.00,-7.00,+1.00,-2.00,-3.00,-2.00,+0.00,+9.00,+2.00
+0.00,+1.00,+1.00,+1.00,-4.00,+0.00,+4.00,+6.00,+2.00,-9.00,-2.00,-5.00,-3.00,-1.00,+0.00,+2.00
+5.00,+1.00,+0.00,-1.00,-1.00,-1.00,+0.00,+14.00,+5.00,+5.00,+0.00,+1.00,+8.00,+0.00,-1.00,-3.00
-3.00,+2.00,+0.00,-1.00,-1.00,-2.00,+1.00,+2.00,-11.00,-11.00,-3.00,+2.00,-2.00,+3.00,+9.00,+4.00
+5.00,+0.00,+0.00,+0.00,+1.00,+0.00,-10.00,-4.00,+0.00,+9.00,+2.00,-4.00,-8.00,-2.00,-4.00,-2.00
-5.00,-9.00,-1.00,-1.00,-5.00,-3.00,-2.00,-14.00,+0.00,-13.00,-5.00,-3.00,-6.00,-3.00,-2.00,-1.00
+14.00,+13.00,+3.00,+2.00,+6.00,+1.00,-4.00,+13.00,-10.00,+7.00,+3.00,+18.00,+17.00,+1.00,-1.00,-4.00
-3.00,+4.00,-1.00,-2.00,+0.00,-1.00,+3.00,-4.00,-18.00,-7.00,-5.00,-23.00,-15.00,-1.00,-1.00,-2.00
+7.00,+2.00,+1.00,+0.00,+2.00,+1.00,+1.00,+7.00,+7.00,+0.00,-2.00,-7.00,-7.00,-1.00,-5.00,+1.00
-11.00,-3.00,-2.00,-1.00,+0.00,-1.00,+0.00,+2.00,+12.00,-4.00,-4.00,-4.00,-1.00,-2.00,+4.00,+10.00
-1.00,-11.00,+0.00,-1.00,-5.00,-1.00,-2.00,-2.00,+26.00,+0.00,-4.00,-11.00,-7.00,-5.00,-4.00,+8.00
+10.00,+22.00,+1.00,+0.00,-2.00,-3.00,-1.00,+9.00,-14.00,+7.00,+3.00,+8.00,+6.00,-1.00,-7.00,-13.00
+1.00,+0.00,-2.00,-4.00,+4.00,+2.00,+3.00,+16.00,-28.00,-16.00,+0.00,+7.00,+8.00,+0.00,+0.00,-5.00
-10.00,-18.00,-5.00,-1.00,-4.00,-3.00,-4.00,-11.00,+1.00,+2.00,+1.00,-1.00,-4.00,-2.00,-8.00,-9.00
-8.00,+21.00,+6.00,+3.00,+10.00,-1.00,+1.00,-12.00,+1.00,-3.00,-2.00,-4.00,-5.00,+1.00,+1.00,+3.00
+14.00,-1.00,+1.00,+2.00,-4.00,+2.00,+8.00,+22.00,+17.00,+7.00,-2.00,+1.00,-2.00,-5.00,-7.00,+2.00
+1.00,-10.00,+2.00,+0.00,-3.00,+1.00,+4.00,+7.00,+0.00,+2.00,-2.00,-5.00,-4.00,-2.00,-3.00,-1.00
-16.00,-18.00,-1.00,-2.00,-1.00,+0.00,+0.00,-13.00,-2.00,+5.00,+2.00,+6.00,+6.00,+0.00,-6.00,-2.00
-3.00,-9.00,-10.00,-7.00,-8.00,-3.00,-6.00,-6.00,+2.00,-2.00,-2.00,-3.00,-3.00,-1.00,+1.00,+1.00
-14.00,+5.00,+4.00,+1.00,-2.00,-5.00,-3.00,-2.00,+2.00,-4.00,-1.00,+0.00,-2.00,-1.00,-1.00,-1.00
+31.00,+50.00,+12.00,+6.00,-6.00,-3.00,+5.00,+13.00,-3.00,-1.00,-1.00,+0.00,+1.00,-1.00,-5.00,-3.00
+7.00,+9.00,+1.00,+2.00,+9.00,+3.00,-1.00,+11.00,-3.00,+1.00,+0.00,+2.00,+0.00,+0.00,+3.00,+0.00
-12.00,-14.00,-4.00,-2.00,-2.00,-1.00,-1.00,-19.00,-7.00,-3.00,-1.00,-4.00,-6.00,-1.00,-2.00,-1.00
-4.00,-8.00,-6.00,-5.00,+1.00,+0.00,-3.00,-6.00,-3.00,-4.00,-2.00,-1.00,+0.00,-1.00,+2.00,+1.00
-21.00,-18.00,-6.00,-4.00,-4.00,-3.00,-3.00,-27.00,+7.00,+2.00,+1.00,+0.00,+1.00,-1.00,+1.00,+2.00
+10.00,+9.00,+2.00,+1.00,-4.00,+0.00,+1.00,+11.00,+3.00,+9.00,+1.00,+0.00,+0.00,+0.00,-2.00,-2.00
-3.00,+11.00,+1.00,+0.00,-4.00,+0.00,-4.00,-35.00,-7.00,-4.00,-2.00,-6.00,-4.00,+1.00,+5.00,+1.00
-9.00,-20.00,-3.00,+0.00,+1.00,-1.00,-2.00,-2.00,+3.00,+7.00,+1.00,+3.00,+3.00,+1.00,+2.00,+0.00
-5.00,-7.00,+0.00,-2.00,-1.00,-3.00,-1.00,+9.00,-6.00,-6.00,-3.00,-2.00,+2.00,-1.00,-2.00,-2.00
+9.00,+13.00,+0.00,+0.00,-3.00,-2.00,-1.00,-4.00,-8.00,-13.00,-4.00,+1.00,+1.00,+1.00,+2.00,-1.00
-6.00,-12.00,-1.00,-1.00,+0.00,+1.00,+3.00,+8.00,+5.00,+0.00,-2.00,-10.00,-12.00,-4.00,-3.00,+4.00
-3.00,-4.00,-1.00,-1.00,+1.00,-1.00,-3.00,-2.00,+22.00,+17.00,+0.00,+2.00,+3.00,-1.00,-3.00,+2.00
+0.00,-1.00,-3.00,-4.00,+1.00,-1.00,-1.00,+1.00,-50.00,-31.00,-3.00,+6.00,+4.00,+2.00,-3.00,-19.00
+0.00,+3.00,-1.00,+0.00,+0.00,+0.00,+0.00,+5.00,+10.00,+18.00,+1.00,-7.00,-3.00,-3.00,-4.00,-1.00
+0.00,-9.00,+0.00,+0.00,-1.00,+0.00,-10.00,-11.00,+7.00,-11.00,-1.00,-3.00,-2.00,+3.00,+5.00,+9.00
+7.00,+13.00,+0.00,-1.00,-1.00,-2.00,+0.00,-11.00,+7.00,-3.00,-1.00,-3.00,-5.00,-3.00,-1.00,+0.00
+16.00,+1.00,-1.00,+0.00,-1.00,+0.00,+0.00,+15.00,+17.00,+8.00,-1.00,-6.00,-5.00,-6.00,-4.00,+1.00
-10.00,-15.00,+1.00,+0.00,-1.00,+0.00,+2.00,+1.00,-19.00,-2.00,+3.00,+8.00,+10.00,+0.00,+1.00,+1.00
-1.00,+2.00,-7.00,-4.00,-1.00,-1.00,+0.00,+2.00,-15.00,-6.00,-1.00,+0.00,-1.00,+2.00,-1.00,-7.00
-5.00,-1.00,-11.00,-9.00,-10.00,-2.00,-2.00,-2.00,+1.00,-1.00,-1.00,-4.00,-4.00,-1.00,-5.00,+0.00
+23.00,+20.00,+14.00,+8.00,+11.00,+6.00,+6.00,+12.00,+4.00,+2.00,-2.00,-2.00,-1.00,-6.00,-4.00,-3.00
-10.00,-20.00,+5.00,+6.00,-3.00,-3.00,-2.00,-3.00,+6.00,+1.00,-1.00,-4.00,-5.00,-1.00,+1.00,-3.00
+15.00,+8.00,+2.00,+2.00,+6.00,-5.00,+0.00,-15.00,-24.00,-17.00,-2.00,+12.00,+12.00,+1.00,-1.00,-4.00
-4.00,-1.00,-5.00,-3.00,+0.00,-1.00,-4.00,+29.00,-4.00,+8.00,-1.00,+0.00,-2.00,+2.00,+4.00,+3.00
-17.00,-13.00,-17.00,-10.00,-8.00,-7.00,-7.00,-28.00,-1.00,+0.00,-4.00,-13.00,-15.00,-1.00,+2.00,+6.00
-1.00,+10.00,+2.00,+2.00,+5.00,+1.00,+0.00,+2.00,+21.00,+7.00,+0.00,-2.00,+2.00,+8.00,+5.00,+4.00
+6.00,-27.00,+8.00,+5.00,-12.00,+0.00,-17.00,+27.00,-19.00,-5.00,+1.00,+1.00,-1.00,+10.00,+4.00,+0.00
-4.00,-9.00,-1.00,-1.00,+5.00,+0.00,+20.00,+0.00,-10.00,-12.00,-2.00,+2.00,+0.00,-22.00,-11.00,+0.00
-7.00,-1.00,-2.00,-1.00,+0.00,+0.00,+2.00,-5.00,-2.00,-5.00,-3.00,-19.00,-19.00,-19.00,-11.00,-4.00
-14.00,-14.00,-11.00,-5.00,+0.00,-1.00,-1.00,-14.00,+10.00,+3.00,-1.00,+2.00,+3.00,-5.00,-3.00,+1.00
+5.00,-30.00,-4.00,-3.00,-2.00,-4.00,-2.00,+3.00,+0.00,-9.00,+0.00,+9.00,+8.00,-32.00,-1.00,-7.00
+10.00,+39.00,+9.00,+6.00,-1.00,+2.00,-6.00,-7.00,-6.00,+10.00,-2.00,-8.00,+3.00,+41.00,+12.00,-6.00
-4.00,-13.00,-3.00,+0.00,+7.00,+4.00,+1.00,+15.00,+30.00,+13.00,+6.00,+14.00,+23.00,+12.00,-7.00,+5.00
-8.00,+1.00,-6.00,-8.00,+1.00,+2.00,-4.00,-24.00,-34.00,-17.00,-7.00,-11.00,-21.00,+16.00,+2.00,-5.00
-14.00,-3.00,-2.00,-2.00,-14.00,-9.00,+0.00,+11.00,+10.00,+7.00,-4.00,-17.00,-12.00,-9.00,-9.00,+0.00
+18.00,+9.00,+0.00,-2.00,+7.00,-13.00,+8.00,+32.00,+5.00,-7.00,-2.00,+1.00,-5.00,-25.00,-2.00,+4.00
-17.00,+2.00,+8.00,+7.00,+3.00,+4.00,-5.00,-3.00,-6.00,+2.00,-3.00,-5.00,+1.00,-6.00,+4.00,-4.00
+8.00,+6.00,-4.00,-4.00,-15.00,-4.00,-10.00,-17.00,-11.00,-8.00,-1.00,+9.00,+12.00,-5.00,-6.00,-8.00
-8.00,+3.00,-4.00,-1.00,+2.00,+8.00,+11.00,-12.00,+10.00,+6.00,+4.00,+17.00,+23.00,+19.00,+4.00,-1.00
-23.00,-35.00,-7.00,-6.00,-16.00,-9.00,-16.00,-10.00,+0.00,-4.00,-1.00,-10.00,-19.00,-27.00,+1.00,+5.00
+8.00,+8.00,+6.00,+5.00,+2.00,-18.00,-13.00,+18.00,-1.00,+5.00,+1.00,-2.00,-8.00,+5.00,-1.00,-2.00
+18.00,-5.00,+8.00,+5.00,+32.00,+10.00,-22.00,-10.00,-9.00,-18.00,-1.00,+1.00,+1.00,-9.00,+0.00,-1.00
+0.00,+35.00,+4.00,-2.00,-3.00,-18.00,+5.00,+11.00,+3.00,+16.00,-4.00,-13.00,-14.00,+3.00,-5.00,-3.00
-9.00,+0.00,-4.00,+0.00,+2.00,+12.00,-2.00,-23.00,+32.00,+16.00,+6.00,+14.00,+18.00,-19.00,+3.00,+9.00
-7.00,-14.00,-12.00,-9.00,-7.00,-2.00,+2.00,-9.00,-30.00,-14.00,+0.00,+11.00,+13.00,+38.00,+0.00,-7.00
+11.00,-10.00,+2.00,+3.00,-10.00,-2.00,-10.00,+14.00,+21.00,+12.00,+0.00,-14.00,-18.00,-3.00,+3.00,+8.00
+6.00,+9.00,+2.00,+1.00,+3.00,-12.00,+10.00,+18.00,-20.00,-12.00,-2.00,+5.00,+6.00,+13.00,+1.00,-12.00
+1.00,+1.00,-1.00,+0.00,+1.00,+21.00,-6.00,-6.00,-21.00,-17.00,-2.00,+2.00,+13.00,-3.00,-5.00,-13.00
-15.00,-16.00,-4.00,+0.00,+4.00,+4.00,-1.00,-11.00,+19.00,+4.00,+3.00,+6.00,-21.00,-31.00,-8.00,+4.00
+3.00,+14.00,+1.00,-4.00,-3.00,-4.00,+9.00,+10.00,-12.00,-2.00,-6.00,-7.00,-5.00,-13.00,+4.00,+0.00
-5.00,-1.00,-5.00,-4.00,+3.00,+4.00,-4.00,-3.00,+44.00,+25.00,+4.00,-2.00,+10.00,-5.00,-6.00,+8.00
-9.00,-22.00,-2.00,+2.00,-8.00,-2.00,+10.00,+0.00,-16.00,-3.00,+0.00,+8.00,-11.00,+11.00,-17.00,-26.00
+7.00,-22.00,+6.00,+2.00,-9.00,-4.00,-2.00,+21.00,-15.00,-3.00,-5.00,-20.00,-20.00,+1.00,+29.00,+15.00
-3.00,+30.00,-8.00,-5.00,+4.00,-1.00,+3.00,-25.00,+6.00,-4.00,+3.00,+5.00,+8.00,+9.00,-1.00,+5.00
-6.00,-39.00,+0.00,-1.00,-3.00,+10.00,+25.00,+2.00,-10.00,-7.00,-4.00,+3.00,-2.00,-9.00,-1.00,+0.00
+40.00,+51.00,+8.00,+2.00,+0.00,-14.00,+8.00,+13.00,+7.00,-9.00,-2.00,-8.00,+0.00,+4.00,-4.00,+4.00
-21.00,-3.00,-7.00,-2.00,+5.00,-14.00,-8.00,-7.00,+8.00,+6.00,-4.00,+0.00,+9.00,+2.00,-26.00,-16.00
+7.00,+8.00,+0.00,-3.00,-7.00,+32.00,+11.00,+8.00,+16.00,+17.00,+4.00,+6.00,+4.00,+0.00,+17.00,+15.00
-23.00,-14.00,-16.00,-6.00,-18.00,-3.00,-8.00,-18.00,-39.00,-16.00,-5.00,+5.00,+5.00,+6.00,-4.00,-8.00
+50.00,+47.00,+8.00,+0.00,+12.00,+7.00,-16.00,+4.00,+2.00,+4.00,+1.00,-5.00,-4.00,+7.00,+5.00,+2.00
-27.00,-36.00,+0.00,+5.00,+12.00,+6.00,+11.00,-39.00,-20.00,-18.00,-6.00,-1.00,-3.00,-8.00,-2.00,-7.00
+19.00,+34.00,+2.00,-2.00,-8.00,-21.00,-3.00,+19.00,-37.00,-16.00,-4.00,-6.00,-4.00,-1.00,-2.00,-3.00
-4.00,+15.00,-4.00,-3.00,-13.00,-8.00,-28.00,-12.00,-7.00,+2.00,+4.00,+11.00,+8.00,-21.00,-2.00,-12.00
-29.00,-36.00,-3.00,-2.00,+3.00,+3.00,+21.00,-22.00,+75.00,+8.00,+0.00,+11.00,+15.00,+30.00,+4.00,+32.00
-4.00,+7.00,-6.00,-4.00,-14.00,-8.00,-19.00,-6.00,-14.00,-1.00,-5.00,-28.00,-45.00,-19.00,-10.00,-11.00
-28.00,-59.00,-4.00,-3.00,+0.00,+1.00,+15.00,-46.00,-6.00,+3.00,+1.00,+7.00,+18.00,+4.00,+1.00,+3.00
+35.00,+31.00,+14.00,+8.00,+8.00,+14.00,+8.00,+39.00,-38.00,-10.00,-2.00,-7.00,-11.00,+2.00,-2.00,-12.00
-15.00,-5.00,-4.00,-2.00,+2.00,-16.00,-16.00,+1.00,+7.00,-3.00,-3.00,-6.00,-4.00,+10.00,+0.00,+5.00
+13.00,+15.00,-3.00,-5.00,-2.00,+7.00,+13.00,+14.00,+12.00,+5.00,+2.00,+10.00,+14.00,-39.00,+23.00,+9.00
-21.00,-45.00,-8.00,-1.00,+3.00,+0.00,-2.00,+1.00,+28.00,+9.00,+1.00,+2.00,+0.00,+33.00,-10.00,+2.00
-18.00,-3.00,+3.00,-2.00,-12.00,-17.00,-12.00,+0.00,-4.00,-4.00,-6.00,-18.00,-16.00,-17.00,-8.00,-3.00
+10.00,-12.00,+1.00,-1.00,-13.00,+6.00,+39.00,-6.00,-21.00,-4.00,-3.00,-4.00,-9.00,+4.00,+2.00,-9.00
-2.00,-14.00,-3.00,-7.00,+0.00,+10.00,+2.00,-1.00,+7.00,+5.00,+2.00,+9.00,+13.00,+9.00,-5.00,+2.00
+23.00,+39.00,+3.00,+0.00,-14.00,-12.00,-7.00,+31.00,-12.00,-10.00,-3.00,-4.00,-4.00,-16.00,-3.00,-19.00
+3.00,-14.00,-1.00,+0.00,+16.00,+7.00,+8.00,-5.00,+29.00,+3.00,+1.00,+1.00,-2.00,+7.00,-1.00,+6.00
-19.00,-6.00,-2.00,+1.00,-8.00,-20.00,-49.00,-3.00,-40.00,+3.00,+1.00,+1.00,+1.00,-9.00,-3.00,-10.00
+7.00,-19.00,+0.00,-2.00,+16.00,+37.00,+29.00,+7.00,+18.00,+2.00,+3.00,+5.00,+10.00,+11.00,+4.00,+14.00
+0.00,+29.00,+2.00,+1.00,-17.00,-23.00,-33.00,-26.00,-6.00,+5.00,+0.00,+2.00,-4.00,-9.00,-6.00,-11.00
-5.00,-2.00,-2.00,-1.00,+8.00,+10.00,+19.00,-13.00,+13.00,+1.00,-3.00,-4.00,-5.00,+9.00,-2.00,-1.00
-22.00,-24.00,-2.00,+2.00,-1.00,-5.00,-29.00,-13.00,-11.00,-9.00,-3.00,-3.00,-3.00,-5.00,+0.00,-5.00
+3.00,+9.00,-4.00,-3.00,-6.00,-17.00,+1.00,-22.00,-8.00,-8.00,+0.00,+2.00,+5.00,-2.00,-4.00,-1.00
+6.00,+3.00,+0.00,-2.00,+2.00,+3.00,+3.00,+13.00,+4.00,+4.00,-3.00,-2.00,+2.00,+9.00,+2.00,-2.00
-11.00,-8.00,-2.00,+0.00,+5.00,+6.00,-5.00,+12.00,+0.00,+6.00,+0.00,-7.00,-12.00,-6.00,-1.00,+1.00
-13.00,-39.00,-4.00,-1.00,+3.00,+2.00,+4.00,-46.00,-14.00,-11.00,-3.00,+0.00,+4.00,-4.00,+2.00,-3.00
+33.00,+63.00,+6.00,+1.00,-7.00,-2.00,-7.00,+8.00,+18.00,+10.00,+1.00,+2.00,+3.00,+10.00,-2.00,+0.00
+2.00,-2.00,+5.00,+4.00,+7.00,+5.00,+12.00,+22.00,-15.00,-12.00,-4.00,-4.00,-4.00,-10.00,-5.00,+0.00
-4.00,-5.00,-7.00,-5.00,-2.00,-4.00,-22.00,+19.00,+16.00,-11.00,-1.00,-3.00,-1.00,+20.00,+9.00,+7.00
-5.00,-12.00,-1.00,-3.00,+3.00,+5.00,+50.00,+17.00,-18.00,+12.00,+0.00,-2.00,-4.00,-24.00,+0.00,-6.00
+0.00,+4.00,-3.00,-4.00,-8.00,-3.00,-2.00,-1.00,+18.00,+8.00,+0.00,+3.00,+8.00,+12.00,-15.00,+0.00
-10.00,-11.00,+1.00,+2.00,-1.00,-5.00,-9.00,+1.00,-18.00,-11.00,-1.00,-1.00,-2.00,-6.00,-7.00,-10.00
+13.00,+1.00,-4.00,-3.00,+6.00,-2.00,+0.00,-3.00,+5.00,-3.00,-2.00,-3.00,-7.00,-15.00,-1.00,+5.00
-4.00,+4.00,+5.00,+3.00,-3.00,+1.00,-16.00,+12.00,+0.00,-3.00,-3.00,-4.00,+1.00,+8.00,-3.00,+1.00
-14.00,-5.00,-1.00,+2.00,+1.00,-2.00,-6.00,-10.00,-14.00,-12.00,-3.00,+0.00,+0.00,+1.00,+10.00,+1.00
-12.00,-37.00,-8.00,-5.00,-3.00,-1.00,+10.00,-35.00,+1.00,+6.00,+1.00,-3.00,-3.00,-6.00,-3.00,-4.00
+23.00,+78.00,+7.00,+3.00,-3.00,+1.00,+5.00,-5.00,+1.00,+0.00,+2.00,+3.00,+6.00,+5.00,+2.00,+4.00
+7.00,+15.00,-3.00,-1.00,+5.00,+8.00,+3.00,+8.00,+5.00,-2.00,+1.00,+1.00,+1.00,-1.00,-5.00,-5.00
-22.00,-23.00,-4.00,-1.00,-6.00,-8.00,-22.00,-1.00,+1.00,+3.00,+0.00,+4.00,+4.00,-4.00,-5.00,-3.00
+7.00,-6.00,+0.00,+2.00,+2.00,-7.00,+7.00,+33.00,+4.00,-7.00,-7.00,-9.00,-14.00,-2.00,+3.00,+5.00
-8.00,-15.00,+0.00,+2.00,+3.00,+8.00,-3.00,-35.00,+6.00,+2.00,-2.00,-5.00,-2.00,-2.00,-3.00,+0.00
-8.00,-2.00,-4.00,-4.00,-4.00,-5.00,-7.00,-12.00,+5.00,+3.00,-1.00,-1.00,-4.00,-1.00,+1.00,+2.00
-12.00,-13.00,+0.00,+1.00,-3.00,-4.00,-1.00,-18.00,-4.00,-5.00,+0.00,-1.00,+2.00,+3.00,-4.00,-5.00
+3.00,+17.00,-5.00,-4.00,-2.00,-1.00,-3.00,+11.00,-2.00,+2.00,+4.00,+7.00,+12.00,+2.00,+4.00,+3.00
+16.00,+27.00,+2.00,+1.00,+0.00,-4.00,-1.00,+3.00,+2.00,+5.00,-2.00,-5.00,-10.00,-8.00,-6.00,-6.00
+5.00,+8.00,+1.00,+1.00,+3.00,+3.00,+18.00,+12.00,-18.00,-14.00,-2.00,-1.00,-1.00,-1.00,-1.00,-3.00
-6.00,-13.00,-3.00,-2.00,-12.00,-3.00,+3.00,+3.00,+0.00,+1.00,-2.00,+2.00,+2.00,+3.00,+5.00,-1.00
+5.00,+18.00,+0.00,-1.00,+11.00,+3.00,-1.00,-6.00,+5.00,+7.00,+1.00,+0.00,-1.00,-4.00,-13.00,-6.00
-15.00,-41.00,-3.00,-3.00,-3.00,+2.00,+12.00,-3.00,+16.00,+7.00,-1.00,-1.00,-2.00,-2.00,+4.00,+9.00
-3.00,-5.00,-1.00,+2.00,+3.00,-1.00,-23.00,+4.00,-19.00,-4.00,-1.00,-1.00,+0.00,-12.00,-2.00,-7.00
+8.00,+2.00,-1.00,-1.00,-2.00,-3.00,+1.00,+20.00,-11.00,-7.00,+0.00,+1.00,+2.00,+12.00,+2.00,-6.00
-3.00,+2.00,+1.00,+0.00,-3.00,-3.00,+9.00,-3.00,+11.00,-2.00,-1.00,-2.00,-3.00,-5.00,-1.00,-1.00
-4.00,-15.00,-4.00,-3.00,-2.00,+2.00,-3.00,+3.00,-8.00,+1.00,-2.00,+2.00,+1.00,+0.00,+4.00,+0.00
+12.00,+30.00,-2.00,-4.00,-3.00,+0.00,-5.00,+7.00,-1.00,-4.00,-2.00,-3.00,-1.00,+3.00,-1.00,+0.00
+11.00,+11.00,+5.00,+4.00,+3.00,-1.00,+3.00,+13.00,+11.00,+0.00,-1.00,-1.00,-3.00,-6.00,+1.00,+2.00
+0.00,+2.00,+0.00,+1.00,-4.00,-1.00,-1.00,+6.00,+1.00,+11.00,-1.00,-2.00,+0.00,+8.00,-3.00,-8.00
-18.00,-19.00,-4.00,-3.00,+0.00,+0.00,-3.00,-11.00,-4.00,-2.00,+1.00,+1.00,-2.00,-14.00,-4.00,-3.00
-3.00,-16.00,-7.00,-6.00,-6.00,-19.00,-18.00,-5.00,-11.00,-11.00,-1.00,+0.00,-2.00,-8.00,-3.00,-2.00
+3.00,+19.00,+1.00,+1.00,+3.00,+29.00,+49.00,-36.00,-1.00,+4.00,+2.00,+0.00,+0.00,+0.00,+0.00,-3.00
+1.00,-1.00,+0.00,+0.00,+2.00,-1.00,-1.00,+1.00,+2.00,-6.00,-1.00,-4.00,-10.00,-5.00,-5.00,-2.00
-9.00,-14.00,-4.00,-3.00,-3.00,-7.00,-3.00,+11.00,+12.00,+2.00,+0.00,+2.00,+3.00,+7.00,+0.00,+2.00
-11.00,-9.00,-1.00,+0.00,-1.00,+1.00,+3.00,-6.00,+7.00,+6.00,+0.00,+0.00,+0.00,+5.00,+0.00,+0.00
+14.00,+6.00,-1.00,-2.00,+0.00,-12.00,-19.00,+22.00,-7.00,-3.00,-3.00,-3.00,-4.00,-5.00,-2.00,-5.00
+1.00,+8.00,-1.00,-1.00,+0.00,+1.00,-2.00,-1.00,-6.00,-12.00,-3.00,+0.00,-3.00,+2.00,+5.00,+1.00
-11.00,-32.00,-4.00,-2.00,-3.00,-7.00,+1.00,-35.00,+4.00,+15.00,+1.00,+0.00,+2.00,-1.00,-4.00,-2.00
+24.00,+62.00,+7.00,-1.00,-4.00,+5.00,-7.00,+6.00,+4.00,-8.00,-4.00,-4.00,-2.00,-5.00,-2.00,-4.00
-9.00,-11.00,-2.00,-1.00,+0.00,-6.00,-9.00,+7.00,-17.00,+5.00,+1.00,+2.00,+3.00,+4.00,+2.00,+3.00
-3.00,-9.00,-1.00,+2.00,+3.00,+7.00,+4.00,+2.00,+13.00,-2.00,-1.00,-1.00,-1.00,-6.00,-8.00,+1.00
-2.00,-8.00,-2.00,+0.00,-1.00,-9.00,-8.00,+7.00,-7.00,-6.00,+0.00,+1.00,+0.00,+1.00,-8.00,-7.00
-5.00,-22.00,-4.00,-2.00,-2.00,-1.00,+3.00,+1.00,+10.00,+1.00,-1.00,-1.00,-2.00,+1.00,-2.00,+6.00
-7.00,-4.00,-2.00,-2.00,+0.00,-4.00,+1.00,-6.00,-9.00,-6.00,-2.00,-5.00,-4.00,-1.00,-2.00,-5.00
-5.00,-5.00,+1.00,-2.00,-1.00,-2.00,+3.00,+13.00,+15.00,+6.00,-4.00,-4.00,-3.00,-1.00,-2.00,+1.00
+3.00,+7.00,+1.00,-2.00,+1.00,-2.00,-10.00,+0.00,-64.00,-30.00,-7.00,-4.00,-7.00,-16.00,-10.00,-26.00
-2.00,-16.00,-1.00,+0.00,-2.00,+2.00,-14.00,+0.00,+40.00,+33.00,+9.00,+8.00,+9.00,+12.00,+9.00,+26.00
+5.00,+20.00,+1.00,-1.00,-4.00,+6.00,+41.00,+10.00,-14.00,+4.00,+1.00,+3.00,-1.00,-4.00,-3.00,-7.00
+18.00,+22.00,+3.00,+0.00,-3.00,-15.00,-22.00,+3.00,-4.00,-3.00,+0.00,+3.00,+1.00,+0.00,+6.00,+13.00
+0.00,+12.00,+1.00,+0.00,+3.00,+2.00,+2.00,-1.00,+13.00,+2.00,-2.00,+1.00,+6.00,+4.00,+1.00,+2.00
-11.00,-16.00,-1.00,-1.00,-2.00,+0.00,-8.00,-6.00,-9.00,-3.00,-8.00,-19.00,-23.00,-9.00,-6.00,-11.00
-5.00,-3.00,+0.00,+0.00,-3.00,-8.00,-17.00,-23.00,-10.00,-14.00,-4.00,-6.00,-4.00,-4.00,-5.00,-9.00
-28.00,-29.00,-10.00,-6.00,-6.00,-4.00,+0.00,-18.00,-17.00,-3.00,+6.00,+16.00,+16.00,+8.00,+10.00,+9.00
-14.00,-26.00,-2.00,-1.00,-1.00,+14.00,+4.00,-5.00,+9.00,+2.00,-4.00,+1.00,+3.00,+1.00,-1.00,+1.00
+30.00,+53.00,+10.00,+6.00,+4.00,+2.00,+10.00,+17.00,+11.00,+11.00,+0.00,-7.00,-13.00,+18.00,+7.00,+12.00
+14.00,+25.00,+6.00,+4.00,+2.00,+2.00,-8.00,+19.00,-13.00,-9.00,-3.00,+2.00,-6.00,-28.00,-5.00,+0.00
-10.00,-15.00,-2.00,+1.00,-2.00,+3.00,+6.00,-7.00,-6.00,+6.00,-3.00,-8.00,+0.00,-6.00,-10.00,-11.00
-4.00,-10.00,-2.00,-3.00,-4.00,-7.00,-7.00,-8.00,-6.00,-7.00,-1.00,+4.00,+3.00,-3.00,+2.00,+0.00
-35.00,-42.00,-19.00,-10.00,-1.00,-3.00,+2.00,-19.00,-9.00,-8.00,-5.00,+0.00,+6.00,+1.00,-2.00,-4.00
-28.00,-57.00,-17.00,-12.00,-6.00,-9.00,-19.00,-18.00,+24.00,-4.00,-1.00,-4.00,-6.00,+3.00,-2.00,+3.00
+26.00,+46.00,+27.00,+12.00,-2.00,+9.00,+10.00,+23.00,-27.00,+8.00,-4.00,+4.00,+9.00,-4.00,-7.00,-22.00
+15.00,+19.00,+4.00,+8.00,+12.00,-1.00,-26.00,+14.00,+29.00,+12.00,+12.00,+5.00,-7.00,+1.00,+16.00,+36.00
-5.00,+34.00,+8.00,+4.00,+11.00,-11.00,+28.00,-16.00,+22.00,+8.00,+2.00,+2.00,+1.00,+20.00,+1.00,+1.00
+36.00,+2.00,-2.00,-1.00,-1.00,+23.00,-6.00,+7.00,-30.00,-24.00,-6.00,-6.00,+1.00,+17.00,-6.00,-11.00
-14.00,-13.00,-20.00,-13.00,-7.00,-4.00,-4.00,-12.00,-44.00,-23.00,-5.00,-6.00,-4.00,-12.00,-5.00,-11.00
-1.00,-20.00,+3.00,+3.00,-3.00,+3.00,+1.00,+9.00,+47.00,+27.00,+7.00,+23.00,+30.00,+5.00,+5.00,+13.00
-6.00,-10.00,-2.00,-1.00,-2.00,-3.00,-8.00,+4.00,-15.00,-12.00,-1.00,-9.00,-19.00,-23.00,-4.00,-7.00
-20.00,-9.00,-15.00,-9.00,-8.00,-15.00,-5.00,-9.00,+18.00,+18.00,+3.00,+0.00,-1.00,-7.00,-6.00,-2.00
-21.00,-54.00,-3.00,-3.00,+1.00,-10.00,-13.00,-68.00,-22.00,-23.00,-4.00,+1.00,-4.00,+10.00,-1.00,-7.00
+37.00,+55.00,+17.00,+13.00,+14.00,+17.00,+18.00,+17.00,+58.00,+28.00,-4.00,-26.00,-24.00,-15.00,-10.00,+1.00
+23.00,+25.00,+3.00,+2.00,+5.00,+11.00,-7.00,+12.00,-72.00,-31.00,-5.00,+9.00,+12.00,-7.00,+6.00,+4.00
-20.00,+3.00,-10.00,-6.00,-9.00,-13.00,-4.00,+4.00,+42.00,+16.00,+4.00,+12.00,+32.00,+15.00,+11.00,+18.00
+18.00,+50.00,-18.00,-14.00,-8.00,-12.00,-9.00,+15.00,+17.00,+3.00,+1.00,+3.00,-15.00,-6.00,-1.00,-1.00
-22.00,-115.00,+7.00,+5.00,-7.00,-5.00,+11.00,-39.00,-27.00,-10.00,-3.00,-3.00,-6.00,+9.00,-3.00,-14.00
+0.00,-36.00,+0.00,+7.00,+7.00,+8.00,-8.00,-1.00,-6.00,-5.00,-6.00,-1.00,+2.00,-15.00,-8.00,-15.00
+8.00,-3.00,+6.00,+3.00,+5.00,+3.00,+22.00,+15.00,-43.00,-6.00,-4.00,-12.00,-24.00,-28.00,+6.00,-3.00
-21.00,-3.00,-6.00,-3.00,-1.00,-7.00,+3.00,+6.00,-16.00,-6.00,+6.00,+16.00,+31.00,+31.00,+17.00,+18.00
-35.00,+15.00,-29.00,-20.00,-16.00,-12.00,-12.00,-16.00,-32.00,-16.00,-9.00,-22.00,-25.00,+22.00,-10.00,-15.00
+6.00,-37.00,+5.00,-3.00,-7.00,+0.00,-4.00,+10.00,-35.00,-11.00,+0.00,-2.00,+0.00,-19.00,-10.00,-7.00
+18.00,+33.00,+35.00,+22.00,+6.00,+0.00,+3.00,+8.00,+89.00,+38.00,+0.00,-7.00,-11.00,+1.00,+3.00,+24.00
+2.00,-29.00,-1.00,+4.00,+3.00,+7.00,+3.00,+7.00,+19.00,-4.00,-1.00,+0.00,+10.00,-24.00,-3.00,-11.00
+1.00,-2.00,-1.00,-1.00,+5.00,-1.00,-2.00,+8.00,-32.00,-12.00,-2.00,-8.00,-15.00,+7.00,+6.00,-2.00
-36.00,+18.00,-33.00,-20.00,-6.00,-6.00,-12.00,-40.00,-35.00,-11.00,-1.00,+8.00,+24.00,+9.00,-1.00,-13.00
-33.00,-74.00,+10.00,+3.00,+5.00,+0.00,-13.00,-12.00,+55.00,+31.00,+3.00,-6.00,-18.00,-15.00,-1.00,+10.00
+44.00,+39.00,+24.00,+17.00,+2.00,-5.00,+23.00,+25.00,-48.00,-22.00,+0.00,+9.00,+9.00,+8.00,+4.00,-7.00
+1.00,+29.00,-2.00,-1.00,+11.00,+12.00,+15.00,+3.00,+24.00,+6.00,-4.00,-5.00,+11.00,+5.00,+3.00,+5.00
-22.00,-25.00,-5.00,-2.00,-4.00,+9.00,+0.00,-5.00,+18.00,+24.00,+4.00,-4.00,-10.00,+0.00,-1.00,+0.00
+9.00,+38.00,-16.00,-12.00,+0.00,-5.00,-9.00,-6.00,-26.00,-27.00,-4.00,+7.00,+20.00,+1.00,-6.00,-7.00
+4.00,-31.00,+0.00,-1.00,-10.00,+14.00,+1.00,+10.00,+119.00,+42.00,+0.00,-12.00,-31.00,+2.00,+6.00,+23.00
+6.00,-6.00,+6.00,+4.00,+11.00,-10.00,-3.00,+12.00,-77.00,-41.00,-6.00,-1.00,+1.00,-13.00,-10.00,-24.00
+10.00,+81.00,+5.00,+0.00,-4.00,-9.00,+1.00,+3.00,+12.00,-2.00,-3.00,-3.00,-12.00,-6.00,+3.00,+17.00
-13.00,+22.00,-14.00,-7.00,-9.00,-2.00,-16.00,-15.00,-86.00,+4.00,-1.00,+13.00,+30.00,+8.00,-9.00,-23.00
+12.00,-36.00,-7.00,-4.00,-5.00,-2.00,-3.00,-6.00,+83.00,+31.00,+6.00,-4.00,-13.00,-25.00,+6.00,+26.00
-10.00,-4.00,-1.00,-5.00,-11.00,-3.00,+8.00,+15.00,+34.00,+11.00,-3.00,-6.00,-13.00,-11.00,-14.00,-11.00
+18.00,-75.00,+28.00,+25.00,+1.00,+10.00,+15.00,+25.00,-26.00,-35.00,-5.00,-2.00,+10.00,+12.00,+0.00,-17.00
+11.00,+71.00,+2.00,-1.00,-10.00,-4.00,-6.00,+0.00,+0.00,-17.00,+8.00,+21.00,+5.00,+14.00,+11.00,+25.00
-21.00,-31.00,-10.00,-9.00,+19.00,+1.00,-6.00,-3.00,+24.00,+5.00,-8.00,-10.00,-5.00,-6.00,-3.00,+12.00
+19.00,+73.00,-6.00,-5.00,-8.00,-1.00,+1.00,+2.00,-24.00,+1.00,+6.00,+12.00,+13.00,-7.00,+3.00,-8.00
-23.00,+12.00,+1.00,-4.00,+5.00,-1.00,-1.00,-4.00,+24.00,+27.00,+1.00,-14.00,-32.00,-1.00,-8.00,+1.00
+27.00,+46.00,-2.00,-2.00,-12.00,-7.00,-3.00,+6.00,+12.00,-1.00,-3.00,-5.00,-1.00,+9.00,+12.00,-1.00
+4.00,-71.00,-7.00,+4.00,+7.00,-12.00,-15.00,+8.00,-66.00,-21.00,-7.00,-2.00,+4.00,-1.00,-7.00,-26.00
+9.00,+55.00,+0.00,-5.00,-4.00,+27.00,+5.00,-2.00,+28.00,-14.00,+0.00,+9.00,+9.00,+0.00,+4.00,+17.00
+11.00,-77.00,+16.00,+8.00,+14.00,-3.00,+0.00,+13.00,+41.00,+13.00,-5.00,-12.00,-8.00,-3.00,-1.00,+20.00
-1.00,-35.00,+6.00,+7.00,+1.00,-2.00,+6.00,+14.00,-44.00,-42.00,-8.00,+6.00,+34.00,+0.00,-7.00,-16.00
-16.00,+66.00,-17.00,-14.00,+0.00,-1.00,-11.00,-17.00,+71.00,+57.00,+11.00,-6.00,-32.00,+7.00,+4.00,+6.00
-5.00,-64.00,+8.00,+2.00,-26.00,-24.00,-5.00,+11.00,-49.00,-19.00,-7.00,-8.00,-7.00,-15.00,+1.00,+5.00
+6.00,+43.00,-5.00,-8.00,+1.00,+12.00,+0.00,-12.00,-5.00,+1.00,+7.00,+14.00,+12.00,-42.00,-5.00,-15.00
-4.00,-50.00,-13.00,-11.00,-2.00,-7.00,-14.00,-55.00,+40.00,+15.00,+0.00,-7.00,-8.00,+26.00,-2.00,+8.00
-3.00,-31.00,+12.00,+9.00,-1.00,+12.00,+13.00,+11.00,-93.00,-34.00,-9.00,+1.00,+12.00,+9.00,-10.00,-15.00
-19.00,+17.00,-12.00,-6.00,-5.00,-15.00,-10.00,-9.00,-31.00,-39.00,-12.00,-25.00,-31.00,-3.00,-5.00,-9.00
-15.00,-3.00,-16.00,-11.00,-6.00,-8.00,-1.00,-16.00,+39.00,+58.00,+5.00,+0.00,+2.00,-11.00,+3.00,-12.00
+13.00,+24.00,+7.00,+5.00,+7.00,-2.00,+2.00,+30.00,-14.00,-67.00,-10.00,-6.00,-16.00,+4.00,+5.00,+28.00
-26.00,-56.00,+11.00,+8.00,+7.00,-4.00,-23.00,-6.00,+49.00,+74.00,+13.00,+13.00,+24.00,+21.00,+0.00,-4.00
+6.00,-27.00,-16.00,-7.00,+10.00,+12.00,+20.00,-15.00,+42.00,+46.00,+16.00,+7.00,+2.00,-24.00,-5.00,-2.00
+19.00,+66.00,-5.00,-3.00,-17.00,-14.00,-2.00,+23.00,-38.00,-16.00,-4.00,+17.00,+45.00,+23.00,+11.00,-6.00
+21.00,-66.00,+21.00,+15.00,+24.00,+21.00,+8.00,+29.00,+92.00,+17.00,-1.00,+7.00,-17.00,-6.00,+1.00,+14.00
-55.00,-51.00,-15.00,-15.00,-22.00,-15.00,-1.00,-24.00,-33.00,-32.00,-7.00,-34.00,-50.00,-62.00,-13.00,-8.00
-23.00,-69.00,+1.00,+1.00,+1.00,-2.00,-11.00,-67.00,+13.00,-24.00,-12.00,+10.00,+8.00,+45.00,+9.00,+3.00
-4.00,-9.00,-10.00,-4.00,-1.00,-8.00,-8.00,+2.00,+13.00,+39.00,+0.00,-23.00,-20.00,+6.00,-18.00,-20.00
+8.00,+52.00,-4.00,-9.00,-6.00,-10.00,-8.00,-19.00,+16.00,+9.00,-2.00,+0.00,+11.00,-4.00,-7.00,-10.00
-25.00,-10.00,+11.00,+3.00,-1.00,-9.00,+6.00,+8.00,-20.00,-39.00,-13.00,+6.00,+20.00,+9.00,+12.00,+18.00
+25.00,+63.00,-9.00,-3.00,-12.00,+22.00,+7.00,+9.00,+79.00,+14.00,+5.00,+16.00,+24.00,-5.00,+6.00,+14.00
-3.00,-77.00,+0.00,+2.00,+0.00,+5.00,+6.00,+12.00,-29.00,-33.00,-13.00,-6.00,-9.00,-7.00,-11.00,-5.00
-4.00,+18.00,+9.00,+10.00,-6.00,-3.00,+3.00,-2.00,+54.00,+52.00,+10.00,-23.00,-43.00,-7.00,-12.00,-11.00
+27.00,+52.00,-9.00,-6.00,+15.00,+4.00,+15.00,+20.00,-34.00,+29.00,+10.00,+17.00,+24.00,-9.00,+0.00,-32.00
+19.00,+19.00,+10.00,+1.00,+13.00,+2.00,+32.00,+15.00,+81.00,+50.00,+15.00,+4.00,+15.00,+4.00,+12.00,+48.00
-55.00,-128.00,-8.00,+0.00,+9.00,-19.00,-23.00,-10.00,-54.00,-78.00,-15.00,-4.00,-19.00,+28.00,+5.00,+14.00
-22.00,+14.00,-36.00,-18.00,-18.00,-5.00,-14.00,-3.00,-78.00,+25.00,+6.00,-10.00,-12.00,-28.00,-18.00,-39.00
+52.00,-12.00,+32.00,+9.00,-5.00,+5.00,+8.00,+8.00,+30.00,-14.00,-1.00,+23.00,+49.00,+13.00,+12.00,+11.00
+0.00,+2.00,-8.00,-1.00,+3.00,-11.00,-11.00,+15.00,+8.00,+25.00,+2.00,+0.00,-12.00,+7.00,-6.00,-19.00
+36.00,+93.00,+9.00,+1.00,-24.00,+8.00,+13.00,+5.00,+54.00,+26.00,+8.00,+2.00,-2.00,+25.00,+7.00,+32.00
-71.00,-93.00,-42.00,-22.00,+8.00,-32.00,-25.00,-42.00,-128.00,-121.00,-32.00,-19.00,-18.00,-15.00,-8.00,-29.00
+108.00,+108.00,+36.00,+19.00,+25.00,+50.00,+18.00,+42.00,+80.00,+84.00,+5.00,-10.00,-9.00,+4.00,-8.00,-1.00
+27.00,+101.00,+15.00,+18.00,+12.00,+8.00,+5.00,+25.00,-54.00,-7.00,+0.00,+1.00,+7.00,-16.00,-14.00,-24.00
-34.00,-82.00,-9.00,-7.00,+7.00,-1.00,-5.00,-8.00,-19.00,-45.00,-8.00,+5.00,+10.00,+20.00,+15.00,+28.00
-40.00,-17.00,-9.00,-10.00,-8.00,+4.00,+0.00,-8.00,-40.00,+60.00,+12.00,+17.00,+27.00,-8.00,+0.00,-27.00
+39.00,+79.00,+4.00,+0.00,-2.00,-7.00,-17.00,+10.00,+93.00,+41.00,+14.00,+36.00,+21.00,+4.00,-7.00,+16.00
-34.00,-113.00,-31.00,-16.00,-4.00,+0.00,-19.00,-5.00,-63.00,-10.00,-12.00,-49.00,-64.00,-21.00,-12.00,-21.00
+103.00,+127.00,+39.00,+24.00,+19.00,+11.00,+53.00,+29.00,-8.00,-33.00,-6.00,-13.00,-21.00,-13.00,-3.00,-6.00
+10.00,-12.00,-9.00,-13.00,+1.00,-1.00,+5.00,-3.00,-46.00,-21.00,-8.00,-31.00,-23.00,+3.00,-14.00,-19.00
-100.00,-106.00,-13.00,+0.00,-14.00,-4.00,-15.00,-52.00,-15.00,-38.00,+1.00,+6.00,+14.00,+14.00,+12.00,+24.00
-17.00,+29.00,-14.00,-17.00,-20.00,-18.00,-22.00,-31.00,-27.00,-11.00,-1.00,+21.00,+15.00,+1.00,+2.00,-16.00
+52.00,+100.00,+29.00,+11.00,+3.00,-2.00,-4.00,+15.00,-84.00,-29.00,-2.00,+2.00,+2.00,-23.00,-1.00,-8.00
+47.00,-86.00,+33.00,+28.00,+13.00,+24.00,+32.00,+42.00,-58.00,-80.00,-7.00,+9.00,+18.00,+14.00,-7.00,-44.00
-5.00,+12.00,-10.00,-2.00,-26.00,-4.00,+6.00,+19.00,+56.00,-12.00,-8.00,-5.00,+6.00,+16.00,+9.00,+66.00
-17.00,+32.00,-16.00,-15.00,+0.00,-7.00,-9.00,-13.00,-97.00,+53.00,+20.00,+5.00,-8.00,+18.00,-6.00,-27.00
-18.00,-40.00,-10.00,-13.00,+9.00,-17.00,-24.00,-18.00,+13.00,-18.00,-4.00,+4.00,+4.00,-22.00,+3.00,+17.00
-29.00,+25.00,-1.00,-4.00,-5.00,+9.00,-3.00,+0.00,+84.00,+101.00,+12.00,+6.00,+2.00,-15.00,+1.00,+21.00
+12.00,+21.00,-1.00,-3.00,+17.00,-1.00,+5.00,-11.00,-128.00,-107.00,-25.00,-43.00,-51.00,-29.00,-32.00,-78.00
+68.00,-19.00,+35.00,+30.00,+8.00,+8.00,+23.00,+60.00,+121.00,+27.00,+16.00,+41.00,+58.00,+35.00,+33.00,+100.00
-23.00,+47.00,-27.00,-22.00,-22.00,-14.00,-22.00,-28.00,-65.00,+36.00,+2.00,-19.00,-27.00,-13.00,-6.00,-28.00
-23.00,-105.00,+10.00,+7.00,-3.00,+2.00,+2.00,+8.00,+48.00,+50.00,+8.00,-4.00,-11.00,-8.00,-1.00,+19.00
-9.00,+115.00,-17.00,-10.00,-10.00,-5.00,+5.00,-5.00,+17.00,+6.00,-7.00,-17.00,-18.00,+4.00,-1.00,-12.00
+2.00,-62.00,+16.00,+10.00,+6.00,-27.00,-18.00,-25.00,-50.00,-98.00,-30.00,-11.00,+1.00,-8.00,-12.00,-39.00
-40.00,-104.00,-12.00,-2.00,-3.00,+30.00,+4.00,-49.00,-3.00,+1.00,-3.00,+3.00,+7.00,+10.00,+3.00,-28.00
+37.00,+80.00,+6.00,+7.00,+3.00,-2.00,-3.00,+7.00,-47.00,-117.00,-22.00,+0.00,+0.00,+3.00,+5.00,+29.00
-100.00,+14.00,-67.00,-44.00,-19.00,-18.00,-50.00,-81.00,-63.00,+87.00,+27.00,-7.00,-15.00,-31.00,-16.00,-41.00
+83.00,+45.00,+79.00,+39.00,+11.00,+14.00,+47.00,+97.00,+6.00,-23.00,-15.00,-6.00,+1.00,+14.00,-4.00,-8.00
-24.00,-75.00,-30.00,-7.00,+9.00,-3.00,-1.00,-23.00,+84.00,+36.00,+8.00,+12.00,+11.00,+2.00,-2.00,+13.00
-15.00,+64.00,-5.00,-8.00,+2.00,+1.00,+6.00,-5.00,+29.00,-34.00,-13.00,-1.00,+5.00,+27.00,+10.00,+15.00
-16.00,-128.00,+6.00,+7.00,+4.00,-1.00,+1.00,+11.00,+67.00,+47.00,+11.00,+8.00,-7.00,-23.00,+1.00,+9.00
+28.00,+55.00,+5.00,-11.00,+3.00,+0.00,-4.00,+12.00,-50.00,+16.00,+13.00,+2.00,+5.00,-13.00,-1.00,-15.00
+2.00,-44.00,-6.00,+2.00,-17.00,-11.00,-25.00,-21.00,+23.00,-30.00,-18.00,-10.00,-19.00,-12.00,-12.00,+0.00
-60.00,-76.00,-32.00,-15.00,-3.00,+6.00,+12.00,-14.00,+7.00,+98.00,+10.00,-8.00,-5.00,+1.00,+7.00,+7.00
+27.00,+45.00,+24.00,+13.00,+5.00,-4.00,+9.00,+12.00,+0.00,-53.00,+3.00,+17.00,+18.00,+22.00,+7.00,-2.00
-6.00,-42.00,+5.00,+11.00,+8.00,+20.00,+8.00,+18.00,-1.00,-39.00,-10.00,-13.00,-15.00,-18.00,-15.00,-8.00
-13.00,-89.00,+16.00,+4.00,-3.00,-1.00,+7.00,+20.00,-20.00,-56.00,-4.00,+9.00,+21.00,+15.00,+7.00,-2.00
+25.00,+87.00,-8.00,-8.00,-6.00,-13.00,-12.00,-4.00,-1.00,+94.00,+22.00,-2.00,-7.00,-8.00,-7.00,-16.00
+82.00,+119.00,+10.00,-2.00,-7.00,+4.00,+11.00,+11.00,-8.00,-71.00,-20.00,-14.00,-13.00,+2.00,+1.00,+4.00
-79.00,-62.00,-3.00,+1.00,+7.00,+0.00,-8.00,-6.00,+40.00,+48.00,-5.00,-4.00,-1.00,-7.00,+10.00,+30.00
-16.00,+27.00,-27.00,-14.00,-13.00,-7.00,-9.00,-15.00,-75.00,-14.00,+3.00,+2.00,-1.00,-16.00,-18.00,-41.00
+86.00,+80.00,+36.00,+14.00,+4.00,+2.00,-6.00,+7.00,+5.00,-17.00,-10.00,+1.00,+7.00,+35.00,+6.00,+19.00
-27.00,-96.00,+27.00,+11.00,+11.00,+4.00,+25.00,+26.00,-100.00,-22.00,+4.00,+0.00,-6.00,-24.00,-17.00,-47.00
-26.00,-4.00,-36.00,-14.00,-13.00,-13.00,-25.00,-34.00,+96.00,+44.00,+16.00,+2.00,+3.00,+7.00,+27.00,+71.00
+30.00,+8.00,+34.00,+14.00,+11.00,+13.00,+19.00,+16.00,-43.00,+15.00,+1.00,+2.00,+3.00,+10.00,-15.00,-64.00
-10.00,-17.00,-18.00,-14.00,-9.00,-12.00,-15.00,-25.00,+29.00,-73.00,+9.00,+23.00,+19.00,+8.00,+23.00,+72.00
-17.00,-24.00,+0.00,+5.00,+1.00,+6.00,-3.00,+5.00,-60.00,+46.00,-4.00,-10.00,-6.00,+16.00,-8.00,-29.00
+19.00,+46.00,-3.00,-3.00,-2.00,-1.00,-1.00,-5.00,-41.00,-32.00,-15.00,-2.00,+1.00,-16.00,-11.00,-27.00
-96.00,-30.00,-34.00,-16.00,-15.00,-15.00,-10.00,-30.00,+89.00,+65.00,+16.00,+4.00,-1.00,-8.00,+6.00,+21.00
+51.00,+33.00,+39.00,+16.00,+6.00,+1.00,+23.00,+30.00,-104.00,-80.00,+4.00,+2.00,+1.00,+2.00,+4.00,-21.00
-51.00,-43.00,-13.00,-5.00,+2.00,+5.00,-11.00,-17.00,-69.00,-71.00,-30.00,-8.00,-8.00,+0.00,+7.00,+20.00
+2.00,+100.00,-15.00,-16.00,-11.00,+3.00,-15.00,-69.00,-45.00,+16.00,+19.00,+3.00,-1.00,+0.00,-8.00,-22.00
-44.00,-83.00,-12.00,+7.00,+0.00,-8.00,+0.00,+28.00,+18.00,+48.00,+1.00,-1.00,+2.00,+5.00,+4.00,+30.00
+23.00,-56.00,+17.00,+6.00,+7.00,+3.00,+1.00,+44.00,-76.00,-53.00,-20.00,-13.00,-8.00,-2.00,-19.00,-81.00
-34.00,-19.00,-41.00,-18.00,-12.00,-18.00,-6.00,-26.00,-22.00,-30.00,-2.00,-4.00,-5.00,-22.00,+8.00,+14.00
+17.00,+43.00,+24.00,+7.00,+0.00,+1.00,+7.00,+24.00,+34.00,+37.00,-1.00,-4.00,+0.00,+6.00,+3.00,+11.00
+29.00,+29.00,-5.00,-5.00,-4.00,+2.00,-2.00,-15.00,-14.00,-48.00,+8.00,+13.00,+14.00,+10.00,+11.00,+34.00
-81.00,-82.00,-39.00,-22.00,-9.00,-14.00,-19.00,-39.00,+25.00,+46.00,+7.00,-1.00,-1.00,+3.00,-4.00,-10.00
-45.00,-102.00,-1.00,+6.00,-4.00,+1.00,-15.00,-12.00,+8.00,-39.00,-15.00,-6.00,-5.00,-5.00,+8.00,+19.00
-30.00,+29.00,+8.00,+0.00,+1.00,+3.00,+27.00,+11.00,-112.00,-45.00,-4.00,+0.00,+2.00,+23.00,-11.00,-52.00
+31.00,+66.00,+6.00,+1.00,+2.00,+8.00,+16.00,+23.00,-105.00,-4.00,+2.00,-6.00,-10.00,-16.00,-1.00,-27.00
-18.00,+8.00,+6.00,+8.00,+1.00,-16.00,-13.00,+11.00,+80.00,+56.00,-10.00,+6.00,+4.00,-10.00,+9.00,+44.00
+90.00,-9.00,+11.00,-4.00,+4.00,+27.00,+24.00,+32.00,-9.00,+73.00,+17.00,+2.00,+1.00,+12.00,-7.00,-27.00
+48.00,+1.00,+2.00,+4.00,-1.00,-4.00,-6.00,+18.00,+55.00,-8.00,-13.00,-12.00,-15.00,-24.00,+3.00,+53.00
-20.00,-38.00,-20.00,-14.00,-10.00,-3.00,-15.00,-13.00,+45.00,-15.00,-1.00,-7.00,-4.00,+11.00,-14.00,-32.00
-62.00,-59.00,-3.00,+12.00,+6.00,+8.00,+1.00,-4.00,-87.00,-79.00,-10.00,-5.00,-10.00,-36.00,-15.00,-38.00
-7.00,+70.00,+2.00,-6.00,-1.00,-17.00,-2.00,+12.00,+90.00,+84.00,+18.00,+7.00,+11.00,+15.00,+13.00,+43.00
+17.00,+2.00,+2.00,-5.00,+1.00,+17.00,+8.00,+4.00,-108.00,-42.00,-12.00,-1.00,-3.00,-11.00,-17.00,-60.00
-25.00,+4.00,-21.00,-5.00,-1.00,-5.00,-11.00,-34.00,-40.00,-50.00,-17.00,-12.00,-11.00,+0.00,+17.00,+14.00
+62.00,+34.00,+37.00,+17.00,+9.00,+14.00,+19.00,+73.00,-24.00,+45.00,+6.00,-6.00,-4.00,-7.00,-18.00,-16.00
+50.00,+9.00,+5.00,+4.00,+3.00,-1.00,-3.00,-39.00,+69.00,+2.00,-6.00,-15.00,-7.00,+16.00,-22.00,-6.00
-128.00,-128.00,-47.00,-21.00,-14.00,-15.00,-21.00,-59.00,-18.00,-14.00,-4.00,+3.00,-5.00,-23.00,+1.00,+1.00
+27.00,+127.00,+12.00,+3.00,-2.00,-2.00,+7.00,-4.00,-52.00,-78.00,-9.00,+1.00,+14.00,+22.00,+5.00,-10.00
+25.00,-49.00,+25.00,+17.00,+9.00,+11.00,+1.00,+9.00,+126.00,+86.00,+14.00,+7.00,-5.00,-16.00,+12.00,+67.00
-1.00,-73.00,+0.00,+6.00,+4.00,+5.00,+9.00,+20.00,-117.00,-46.00,+8.00,-1.00,-6.00,-9.00,-1.00,-26.00
+26.00,+28.00,+3.00,-2.00,+1.00,-7.00,-11.00,+7.00,+64.00,-32.00,-1.00,-3.00,+4.00,+47.00,+17.00,+18.00
+0.00,+69.00,-26.00,-17.00,-11.00,+0.00,-20.00,+3.00,+45.00,+38.00,+5.00,+2.00,-4.00,-35.00,-7.00,+19.00
+9.00,-25.00,+17.00,+10.00,+1.00,-6.00,+10.00,+8.00,+65.00,+8.00,-3.00,-1.00,-3.00,+4.00,+2.00,+3.00
-23.00,+127.00,-12.00,-8.00,-9.00,-19.00,-6.00,-26.00,-29.00,+13.00,-4.00,-10.00,-9.00,-11.00,-12.00,-21.00
+14.00,-3.00,+18.00,+15.00,+7.00,+17.00,+11.00,+28.00,+101.00,+0.00,+1.00,+11.00,+13.00,+11.00,+15.00,+54.00
+29.00,-97.00,+16.00,+5.00,+9.00,+6.00,+11.00,+58.00,+49.00,+59.00,+20.00,+28.00,+25.00,+3.00,+5.00,+21.00
+3.00,+6.00,-26.00,-12.00,-6.00,+3.00,-6.00,-35.00,-64.00,-57.00,-9.00,+5.00,-5.00,+8.00,-7.00,-70.00
+5.00,+15.00,+15.00,+5.00,-6.00,-17.00,-7.00,+4.00,+63.00,-43.00,-10.00,-28.00,-18.00,+11.00,-2.00,+52.00
-13.00,+2.00,-27.00,-20.00,-5.00,-2.00,-15.00,-8.00,+76.00,+62.00,+1.00,-7.00,-7.00,-6.00,+6.00,+29.00
+24.00,-12.00,+14.00,+15.00,+14.00,+14.00,+18.00,+31.00,+19.00,+5.00,-1.00,-6.00,-9.00,-15.00,-25.00,-52.00
-6.00,+11.00,-18.00,-15.00,-10.00,+1.00,-2.00,-26.00,+25.00,+48.00,+13.00,+16.00,+12.00,-9.00,+7.00,+16.00
-43.00,+8.00,-16.00,-13.00,-4.00,-6.00,-11.00,-33.00,+69.00,-38.00,-10.00,+20.00,+17.00,+11.00,+19.00,+28.00
+62.00,-2.00,+38.00,+24.00,+10.00,+2.00,+20.00,+99.00,-47.00,+7.00,+8.00,-5.00,-8.00,-5.00,-15.00,-34.00
-25.00,-71.00,+1.00,+3.00,-2.00,-8.00,-5.00,-11.00,+39.00,-25.00,-11.00,-10.00,-9.00,+6.00,-3.00,+7.00
-71.00,+12.00,-46.00,-28.00,-21.00,-3.00,-11.00,-51.00,-29.00,+3.00,+3.00,+3.00,+6.00,-11.00,+4.00,-10.00
+110.00,+127.00,+26.00,+15.00,+14.00,+7.00,+3.00,+38.00,-12.00,-14.00,+6.00,+16.00,+24.00,+3.00,-4.00,+9.00
-60.00,-44.00,-15.00,-12.00,-8.00,-22.00,-19.00,-21.00,-40.00,-17.00,-7.00,-6.00,-18.00,-1.00,+5.00,-11.00
+29.00,-5.00,+4.00,+4.00,+1.00,+12.00,+12.00,+22.00,-34.00,-22.00,-11.00,-13.00,-6.00,-2.00,-5.00,+10.00
-81.00,-55.00,-19.00,-16.00,-15.00,-13.00,-25.00,-57.00,-79.00,-10.00,+0.00,-15.00,-12.00,+13.00,-4.00,-22.00
+80.00,+44.00,+13.00,+8.00,+4.00,+13.00,+16.00,+62.00,+36.00,-32.00,-7.00,-5.00,-6.00,-18.00,-14.00,-41.00
-12.00,-29.00,-3.00,+6.00,-4.00,-4.00,-13.00,-41.00,+58.00,+98.00,+32.00,+34.00,+25.00,-17.00,+10.00,+72.00
-12.00,+12.00,+3.00,-4.00,+3.00,-10.00,-12.00,-6.00,-97.00,-69.00,-18.00,+5.00,+14.00,+28.00,+0.00,-24.00
-24.00,-78.00,-11.00,-6.00,+2.00,-13.00,-4.00,-4.00,-12.00,-38.00,-11.00,-16.00,-16.00,+15.00,-5.00,+28.00
-6.00,-68.00,+7.00,+8.00,-6.00,+14.00,+14.00,+13.00,-56.00,-15.00,-3.00,-17.00,-12.00,+0.00,-3.00,-17.00
+15.00,+19.00,-10.00,-7.00,+7.00,-3.00,-19.00,-28.00,-10.00,-55.00,-17.00,-13.00,-10.00,-26.00,-9.00,-22.00
-22.00,+63.00,-9.00,-15.00,-10.00,-2.00,-16.00,-28.00,+61.00,+102.00,+11.00,-6.00,-14.00,-14.00,+1.00,+5.00
-11.00,+99.00,-21.00,-4.00,-3.00,-17.00,+7.00,+21.00,+127.00,+33.00,+3.00,+8.00,+16.00,+1.00,+12.00,+60.00
-25.00,-73.00,+0.00,+4.00,+7.00,+7.00,+3.00,-23.00,-22.00,-13.00,-8.00,+4.00,-2.00,+4.00,-10.00,-22.00
+18.00,-1.00,+15.00,+6.00,-7.00,+0.00,+5.00,-35.00,-82.00,-51.00,-18.00,-9.00,-4.00,-4.00,-10.00,-28.00
-27.00,-13.00,-1.00,+2.00,-9.00,-5.00,-29.00,-18.00,+72.00,-1.00,-7.00,-9.00,-6.00,-8.00,+6.00,+25.00
+28.00,+78.00,+4.00,+1.00,+6.00,+3.00,+15.00,+20.00,-71.00,+46.00,+23.00,+17.00,+12.00,-4.00,-5.00,-34.00
-16.00,-58.00,-15.00,-5.00,+3.00,-17.00,-8.00,+55.00,+23.00,+2.00,-11.00,+2.00,+2.00,+20.00,+11.00,+11.00
-34.00,-21.00,-39.00,-25.00,-13.00,+19.00,+3.00,-35.00,-96.00,-58.00,-10.00,-14.00,-8.00,-14.00,-25.00,-48.00
-6.00,+27.00,+31.00,+14.00,+13.00,+8.00,+8.00,+13.00,+70.00,+62.00,+14.00,+10.00,+2.00,-10.00,+6.00,+47.00
+13.00,-64.00,+21.00,+10.00,+7.00,+8.00,+2.00,+2.00,+34.00,-29.00,-14.00,-15.00,-10.00,+2.00,-3.00,-2.00
+12.00,+32.00,+0.00,+3.00,-5.00,+3.00,+6.00,+15.00,-9.00,-4.00,+2.00,+4.00,+2.00,-19.00,+0.00,-14.00
-12.00,-28.00,-5.00,-9.00,-2.00,-10.00,-3.00,-2.00,-78.00,-43.00,-4.00,-6.00,+6.00,+17.00,-12.00,-42.00
-43.00,-44.00,-15.00,-4.00,-5.00,-15.00,-2.00,-54.00,+43.00,+0.00,-4.00,-2.00,-8.00,+5.00,+3.00,+6.00
+48.00,-4.00,+25.00,+8.00,-1.00,+5.00,+5.00,+49.00,-34.00,+31.00,+1.00,-9.00,-6.00,-6.00,-5.00,-30.00
+40.00,-24.00,+26.00,+7.00,+7.00,-8.00,+1.00,-3.00,+31.00,+22.00,+3.00,+0.00,-4.00,-15.00,-9.00,+29.00
-53.00,-46.00,-22.00,-8.00,-7.00,-6.00,-8.00,-21.00,-45.00,-19.00,+1.00,+1.00,-6.00,-5.00,+1.00,-14.00
-7.00,-71.00,-4.00,-4.00,+2.00,+9.00,+24.00,+24.00,-93.00,-27.00,+3.00,+11.00,+14.00,+16.00,+2.00,-13.00
+18.00,+50.00,-19.00,-10.00,-12.00,-26.00,-41.00,-32.00,+79.00,-19.00,-10.00,+1.00,+5.00,-10.00,+2.00,+12.00
-66.00,-81.00,+6.00,+8.00,+6.00,+37.00,+8.00,-9.00,-95.00,+6.00,+8.00,+19.00,+25.00,+18.00,+12.00,-4.00
+17.00,-35.00,+13.00,+10.00,+5.00,-9.00,+14.00,-9.00,-16.00,+20.00,-3.00,-8.00,-21.00,-10.00,-4.00,-7.00
-47.00,-19.00,-15.00,-11.00,-9.00,-7.00,+2.00,-22.00,-9.00,-49.00,-7.00,-21.00,-17.00,+0.00,-4.00,+9.00
+89.00,+82.00,+8.00,+2.00,+6.00,+6.00,+3.00,+12.00,-95.00,-47.00,-3.00,+7.00,+3.00,-26.00,-3.00,-16.00
-18.00,+71.00,-10.00,-6.00,-7.00,-14.00,-11.00,+5.00,+0.00,+50.00,+6.00,-3.00,-2.00,+5.00,-8.00,+0.00
+8.00,+19.00,-16.00,-11.00,-4.00,-6.00,-20.00,-42.00,+4.00,+16.00,+1.00,-1.00,-9.00,-35.00,-1.00,-1.00
+22.00,-34.00,+28.00,+17.00,+6.00,+5.00,+9.00,+7.00,-107.00,-26.00,-5.00,+1.00,+12.00,+43.00,+0.00,-35.00
-40.00,-53.00,+7.00,+11.00,+5.00,+10.00,+13.00,-6.00,-33.00,-21.00,+3.00,-1.00,-3.00,+10.00,+5.00,+25.00
+15.00,+30.00,-12.00,-5.00,-8.00,-4.00,+0.00,-10.00,+89.00,+29.00,-8.00,-2.00,-1.00,-1.00,+9.00,+27.00
+5.00,+34.00,-1.00,-5.00,-1.00,-5.00,+0.00,+18.00,-41.00,-30.00,+0.00,-1.00,+1.00,-6.00,-3.00,-13.00
+22.00,+24.00,-6.00,-7.00,-1.00,-9.00,-7.00,+1.00,-11.00,+1.00,+5.00,+6.00,+3.00,-18.00,-6.00,-17.00
+4.00,-3.00,+16.00,+4.00,+1.00,-15.00,-5.00,+6.00,-33.00,-13.00,-7.00,-1.00,-6.00,-1.00,-3.00,-17.00
-19.00,-14.00,-8.00,-2.00,-2.00,+30.00,+17.00,-20.00,+13.00,+49.00,+18.00,+8.00,+5.00,+34.00,+10.00,+13.00
+4.00,+44.00,-1.00,+0.00,-6.00,-7.00,+0.00,+15.00,+96.00,+33.00,+9.00,-6.00,-7.00,-20.00,+9.00,+31.00
+33.00,-26.00,+18.00,+8.00,+7.00,+2.00,-2.00,+36.00,+0.00,+14.00,-2.00,-10.00,-5.00,-12.00,-9.00,+1.00
-13.00,+82.00,-10.00,-9.00,-1.00,-1.00,+4.00,-13.00,+12.00,-46.00,-16.00,-9.00,-4.00,+4.00,-3.00,-3.00
-64.00,-110.00,-6.00,+2.00,-2.00,-12.00,-18.00,-15.00,+85.00,+39.00,+21.00,+10.00,+5.00,+1.00,+9.00,+23.00
+0.00,-6.00,+10.00,+3.00,+0.00,+3.00,+5.00,+12.00,+25.00,+7.00,-5.00,+8.00,+17.00,+28.00,+3.00,-2.00
+1.00,+88.00,-6.00,-1.00,-4.00,-1.00,+7.00,+30.00,-42.00,-17.00,+3.00,+4.00,-3.00,-15.00,+0.00,-17.00
-50.00,-79.00,-9.00,-2.00,+4.00,+3.00,-9.00,-35.00,+8.00,+15.00,+0.00,-1.00,+3.00,+6.00,-9.00,-6.00
+69.00,+127.00,-3.00,-8.00,-8.00,-31.00,-15.00,+18.00,-80.00,-34.00,-8.00,-2.00,-8.00,-12.00,-9.00,-23.00
-11.00,-87.00,+7.00,+10.00,+13.00,+34.00,+21.00,-11.00,+13.00,+19.00,+5.00,-8.00,-5.00,+0.00,+0.00,+8.00
-3.00,+31.00,-9.00,-6.00,+1.00,+2.00,+1.00,+7.00,-35.00,-43.00,-13.00,-2.00,+3.00,+17.00,+2.00,+9.00
-2.00,+26.00,-3.00,-4.00,-3.00,+2.00,-1.00,-11.00,+54.00,+53.00,+9.00,+1.00,-1.00,+2.00,+5.00,+17.00
-3.00,-128.00,-5.00,-2.00,+2.00,+5.00,+10.00,-2.00,-85.00,-25.00,-13.00,-21.00,-18.00,-17.00,-16.00,-36.00
+28.00,+25.00,+19.00,+13.00,+2.00,-15.00,-5.00,+37.00,+14.00,-9.00,+1.00,+12.00,+11.00,+6.00,+8.00,+3.00
+28.00,+18.00,-1.00,-2.00,-8.00,-11.00,-9.00,+10.00,+50.00,+33.00,+3.00,+3.00,+9.00,+14.00,+0.00,+18.00
-13.00,+11.00,-4.00,-2.00,-2.00,+21.00,+10.00,+5.00,+21.00,-30.00,-4.00,+4.00,+0.00,-21.00,+2.00,+10.00
-24.00,-82.00,+6.00,-1.00,-1.00,-10.00,+11.00,-9.00,+72.00,+53.00,+10.00,-3.00,-16.00,-9.00,+3.00,+38.00
+1.00,+4.00,-6.00,+0.00,+0.00,+0.00,+2.00,+3.00,+43.00,-7.00,-10.00,-16.00,-4.00,-3.00,-9.00,-10.00
-25.00,+9.00,-9.00,-9.00,-6.00,-6.00,-19.00,-29.00,-47.00,+7.00,+6.00,+10.00,-2.00,+0.00,+0.00,-19.00
+23.00,-42.00,+4.00,+8.00,+7.00,+4.00,+7.00,+52.00,+30.00,-8.00,-5.00,+0.00,+15.00,+16.00,+3.00,+31.00
-36.00,+124.00,-31.00,-18.00,-12.00,-10.00,-23.00,-84.00,-46.00,-49.00,-9.00,-5.00,-10.00,-18.00,-8.00,-23.00
+2.00,-94.00,+37.00,+23.00,+14.00,+9.00,+12.00,+47.00,-10.00,-25.00,-10.00,-19.00,-12.00,+5.00,+2.00,+13.00
+4.00,+46.00,+0.00,+0.00,-2.00,-12.00,-4.00,-9.00,+61.00,+37.00,+3.00,-2.00,+0.00,-3.00,-1.00,+5.00
-1.00,-8.00,-12.00,-11.00,-14.00,-2.00,+5.00,+2.00,-24.00,+37.00,+4.00,+0.00,-4.00,-6.00,-5.00,-25.00
-17.00,-21.00,-17.00,-6.00,-1.00,+10.00,-2.00,+11.00,-25.00,-50.00,-8.00,+5.00,+5.00,-3.00,+8.00,+7.00
+6.00,+58.00,-9.00,-7.00,+1.00,-5.00,+1.00,+2.00,-25.00,-32.00,+3.00,+15.00,+13.00,+18.00,-5.00,-15.00
+45.00,+23.00,+10.00,+5.00,-3.00,+6.00,-2.00,+1.00,+18.00,+26.00,+0.00,+2.00,+0.00,-13.00,+2.00,+4.00
+6.00,-12.00,+15.00,+9.00,+2.00,-5.00,+16.00,-1.00,-39.00,-14.00,-4.00,-6.00,-9.00,-9.00,-3.00,-1.00
+4.00,-8.00,+4.00,+2.00,+0.00,+2.00,+10.00,+14.00,+49.00,-11.00,-9.00,-11.00,-5.00,-2.00,-6.00,-5.00
-28.00,-9.00,-19.00,-13.00,-2.00,-7.00,-13.00,-23.00,+63.00,+33.00,+1.00,+3.00,+0.00,+3.00,-1.00,+21.00
+15.00,-20.00,-3.00,-2.00,-1.00,-7.00,+4.00,+6.00,-2.00,+13.00,+9.00,+4.00,+6.00,-6.00,+4.00,+3.00
+24.00,+42.00,-3.00,-4.00,-3.00,-1.00,-17.00,-13.00,+21.00,+26.00,+4.00,+0.00,-5.00,+2.00,-2.00,+0.00
-14.00,-20.00,+5.00,+2.00,+1.00,+2.00,+0.00,+7.00,-100.00,-45.00,-9.00,-5.00,-2.00,+1.00,-6.00,-26.00
-38.00,-91.00,-19.00,-12.00,-15.00,-9.00,+1.00,+3.00,+24.00,+20.00,-6.00,-11.00,-13.00,-9.00,-8.00,-15.00
-2.00,-8.00,+10.00,+9.00,+1.00,+9.00,+8.00,-5.00,-37.00,-48.00,-10.00,-9.00,-11.00,-14.00,-10.00,-19.00
-7.00,-4.00,-3.00,-2.00,-1.00,-1.00,-8.00,-7.00,+71.00,+71.00,+17.00,+11.00,+14.00,+18.00,+16.00,+46.00
-27.00,-26.00,-14.00,-8.00,-3.00,-5.00,-7.00,-16.00,-2.00,+6.00,-3.00,+0.00,+3.00,-2.00,+2.00,+0.00
-6.00,+4.00,-15.00,-7.00,-5.00,-7.00,-6.00,-4.00,-40.00,-5.00,+1.00,+10.00,+6.00,+3.00,+2.00,-11.00
+53.00,+51.00,+23.00,+13.00,+10.00,+12.00,+11.00,-7.00,+40.00,+16.00,-1.00,-2.00,-5.00,-6.00,-3.00,+3.00
+1.00,-32.00,-1.00,+1.00,+0.00,-3.00,-3.00,-4.00,-13.00,-37.00,-11.00,-19.00,-15.00,-8.00,-13.00,-33.00
-1.00,-1.00,-1.00,-3.00,-1.00,-6.00,-1.00,+2.00,-25.00,-25.00,+6.00,+1.00,+1.00,+2.00,+11.00,+28.00
-22.00,+9.00,-13.00,-8.00,-4.00,-5.00,-13.00,-17.00,+3.00,+17.00,+0.00,+7.00,+7.00,+5.00,+5.00,+11.00
+16.00,+45.00,-15.00,-14.00,-6.00,-1.00,-2.00,-4.00,-7.00,-30.00,-7.00,+9.00,+11.00,+2.00,+0.00,-5.00
+13.00,-74.00,+49.00,+29.00,+16.00,+15.00,+21.00,+40.00,+15.00,+41.00,+8.00,-6.00,-2.00,-2.00,-2.00,+2.00
+18.00,+6.00,+1.00,+3.00,+2.00,+1.00,-4.00,+23.00,-27.00,-2.00,-4.00,-6.00,-9.00,-1.00,+5.00,-9.00
+13.00,+18.00,+5.00,+1.00,-7.00,-2.00,-3.00,-21.00,-50.00,-19.00,-5.00,-8.00,-10.00,-11.00,-7.00,-15.00
-47.00,-26.00,-5.00,+0.00,+7.00,-1.00,-1.00,-8.00,-2.00,-1.00,+0.00,-3.00,-3.00,-4.00,+1.00,+7.00
-14.00,+22.00,-15.00,-10.00,-5.00,-6.00,-7.00,-12.00,-21.00,-36.00,-10.00,-4.00,-8.00,-7.00,-12.00,-27.00
+20.00,-29.00,+4.00,-3.00,+1.00,-3.00,-5.00,+2.00,-6.00,-19.00,-7.00,-1.00,+2.00,+3.00,+2.00,+2.00
-5.00,-43.00,+11.00,+8.00,+4.00,+5.00,+6.00,+20.00,-15.00,+1.00,+5.00,+6.00,+7.00,+8.00,+3.00,-1.00
-25.00,-54.00,-5.00,-4.00,-13.00,-6.00,-22.00,-3.00,+32.00,+16.00,+2.00,+1.00,+4.00,-3.00,+0.00,+2.00
+29.00,+49.00,-16.00,-6.00,+7.00,+6.00,+40.00,-3.00,-2.00,-8.00,-2.00,+0.00,-6.00,-2.00,+0.00,+4.00
+10.00,-2.00,+11.00,+7.00,+2.00,-1.00,+5.00,+30.00,-35.00,-23.00,-5.00,-10.00,-12.00,-4.00,-10.00,-17.00
+11.00,+38.00,-3.00,-1.00,+2.00,+12.00,+2.00,+5.00,+20.00,+7.00,-2.00,-1.00,-1.00,+1.00,-3.00,+0.00
+1.00,-23.00,+1.00,+0.00,-3.00,+0.00,+1.00,+1.00,-59.00,-14.00,+1.00,-1.00,-1.00,-2.00,+0.00,-7.00
-39.00,-55.00,-19.00,-10.00,-9.00,-7.00,-22.00,-13.00,+3.00,-25.00,-5.00,+1.00,+3.00,-1.00,+0.00,+6.00
+19.00,+125.00,+24.00,+7.00,+3.00,+0.00,+2.00,-23.00,+4.00,+26.00,+3.00,+3.00,+3.00,-3.00,-5.00,-4.00
+12.00,-46.00,-1.00,+5.00,+1.00,-3.00,+5.00,+8.00,-8.00,-2.00,+1.00,-1.00,+1.00,+0.00,+2.00,-1.00
-10.00,-20.00,-4.00,-1.00,-4.00,-1.00,-2.00,-16.00,+23.00,+16.00,+0.00,-5.00,-6.00,-4.00,-5.00,+3.00
-4.00,-15.00,-2.00,+1.00,+1.00,+0.00,-8.00,-6.00,-25.00,-25.00,-4.00,-4.00,-4.00,+0.00,+6.00,-2.00
-15.00,+5.00,-17.00,-11.00,+2.00,+0.00,-2.00,-8.00,+20.00,+1.00,-4.00,-3.00,-1.00,-1.00,-4.00,-6.00
-8.00,+5.00,+6.00,+1.00,-3.00,-4.00,-9.00,+0.00,-5.00,+8.00,+2.00,-1.00,+0.00,+0.00,-3.00,-2.00
-14.00,-16.00,+6.00,+0.00,+3.00,+4.00,+10.00,+11.00,+16.00,+2.00,+0.00,+0.00,-2.00,-2.00,-3.00,+2.00
+27.00,+46.00,+5.00,+4.00,+1.00,-2.00,-8.00,+10.00,-19.00,-24.00,-2.00,+1.00,-1.00,-2.00,-1.00,-8.00
-20.00,-72.00,-3.00,+1.00,-4.00,+0.00,+4.00,-3.00,+0.00,+12.00,-1.00,+2.00,-1.00,-1.00,+2.00,-2.00
+15.00,+65.00,+3.00,-3.00,-6.00,-4.00,-2.00,+0.00,-27.00,-5.00,-1.00,-2.00,+0.00,+1.00,-2.00,-4.00
-19.00,-43.00,-8.00,-2.00,+1.00,-1.00,+3.00,+4.00,-1.00,+1.00,-2.00,-3.00,-5.00,-5.00,-8.00,-6.00
-1.00,+2.00,+5.00,+2.00,+2.00,+1.00,+2.00,+19.00,-10.00,+5.00,+3.00,+0.00,-1.00,-1.00,-1.00,+6.00
+5.00,+15.00,+2.00,+1.00,+0.00,-1.00,-6.00,-20.00,+12.00,+23.00,+2.00,+1.00,+3.00,+0.00,+0.00,-3.00
-17.00,-28.00,-10.00,-3.00,-5.00,-4.00,-4.00,-12.00,-8.00,-11.00,-1.00,-2.00,-1.00,+1.00,+2.00,-4.00
+3.00,+7.00,-4.00,-1.00,-4.00,-1.00,+4.00,+2.00,+14.00,-9.00,-4.00,-5.00,-4.00,-2.00,-2.00,+5.00
+12.00,+23.00,-1.00,-2.00,-2.00,+1.00,-5.00,+5.00,-25.00,+9.00,-2.00,-1.00,-1.00,+0.00,+3.00,-9.00
-13.00,-8.00,+1.00,+1.00,+2.00,-2.00,-6.00,+4.00,+23.00,+5.00,+2.00,+3.00,+2.00,-2.00,-9.00,+0.00
+13.00,+19.00,-8.00,-6.00,+0.00,-4.00,+1.00,-3.00,-9.00,-3.00,-1.00,+0.00,+0.00,+2.00,-1.00,-2.00
-14.00,-44.00,+6.00,+3.00,+0.00,+2.00,+11.00,+9.00,+14.00,+12.00,-1.00,-6.00,-4.00,-1.00,+0.00,-1.00
+1.00,+14.00,-4.00,-2.00,-1.00,-1.00,-6.00,-15.00,+0.00,-8.00,-6.00,-3.00,-4.00,-4.00,-7.00,-1.00
-16.00,-29.00,+2.00,+0.00,-1.00,+3.00,+2.00,+7.00,-24.00,-14.00,+2.00,+3.00,+3.00,+0.00,-2.00,-7.00
+3.00,+25.00,+0.00,-1.00,-1.00,-3.00,-10.00,-5.00,-5.00,-4.00,-3.00,-1.00,-3.00,-1.00,+0.00,+0.00
-2.00,+7.00,-3.00,-4.00,+0.00,-2.00,-7.00,-6.00,+2.00,+6.00,+1.00,+0.00,-2.00,+3.00,+6.00,+8.00
+3.00,-27.00,-10.00,-5.00,-6.00,-1.00,-1.00,-3.00,-1.00,-11.00,-5.00,+1.00,+11.00,+2.00,+3.00,-1.00
+0.00,+7.00,+0.00,+4.00,+0.00,+2.00,+1.00,+13.00,+7.00,-3.00,-3.00,-2.00,-2.00,+2.00,-1.00,+2.00
-1.00,+2.00,-1.00,-3.00,-3.00,-3.00,-1.00,-14.00,-1.00,-6.00,+0.00,-3.00,-15.00,-6.00,-3.00,-4.00
+3.00,-7.00,+1.00,-1.00,+2.00,-1.00,-1.00,-4.00,-18.00,+10.00,+9.00,+5.00,+9.00,+1.00,+7.00,+3.00
-32.00,-5.00,-7.00,-5.00,-5.00,-7.00,-11.00,-9.00,-4.00,-10.00,-4.00,-1.00,+3.00,+1.00,-7.00,-6.00
+25.00,-20.00,-5.00,-3.00,+1.00,+0.00,+2.00,-6.00,+2.00,-16.00,-5.00,-4.00,-19.00,-4.00,-2.00,-2.00
+5.00,+11.00,+2.00,-1.00,+0.00,-1.00,+0.00,+2.00,+7.00,+17.00,+7.00,+1.00,-4.00,-16.00,-9.00,+5.00
+5.00,+2.00,-3.00,-3.00,-1.00,-2.00,+3.00,+29.00,+19.00,+1.00,-3.00,-3.00,-9.00,-5.00,-2.00,+5.00
+3.00,-3.00,+2.00,-1.00,-2.00,-1.00,-4.00,-16.00,-14.00,-13.00,+1.00,+6.00,+9.00,+3.00,+3.00,-8.00
+5.00,+15.00,-4.00,-4.00,-5.00,-9.00,-13.00,-4.00,+1.00,+10.00,+5.00,+0.00,+9.00,+5.00,-2.00,+6.00
-21.00,-15.00,-4.00,-1.00,+0.00,+1.00,+7.00,+26.00,-3.00,-12.00,-7.00,-1.00,+2.00,+8.00,+1.00,-1.00
+11.00,-5.00,-3.00,-3.00,+0.00,+2.00,-2.00,-51.00,+6.00,+3.00,+3.00,-5.00,-12.00,-1.00,-4.00,-8.00
+23.00,-1.00,+11.00,+10.00,+8.00,+9.00,+7.00,+23.00,+0.00,-5.00,-1.00,-1.00,+0.00,-2.00,-3.00,+3.00
-7.00,+4.00,-2.00,-5.00,-4.00,+5.00,-8.00,-2.00,-2.00,-8.00,-3.00,-2.00,+1.00,+0.00,+2.00,+0.00
+13.00,+2.00,-5.00,-2.00,+1.00,-6.00,+8.00,+13.00,-19.00,+1.00,-5.00,-2.00,+10.00,+3.00,+2.00,-9.00
-11.00,+4.00,-9.00,-2.00,+8.00,+37.00,-5.00,+8.00,+9.00,+14.00,+6.00,+4.00,-1.00,-4.00,-7.00,-2.00
-2.00,-12.00,+16.00,+8.00,+5.00,-4.00,+5.00,+12.00,-1.00,-9.00,-10.00,-4.00,-2.00,+0.00,+7.00,+4.00
-4.00,+5.00,-7.00,-2.00,-4.00,-2.00,-3.00,-20.00,-3.00,+4.00,-1.00,-3.00,-8.00,-8.00,+0.00,-8.00
-14.00,-10.00,+0.00,-2.00,-6.00,-9.00,-6.00,-15.00,-10.00,-12.00,+2.00,-2.00,-4.00,-7.00,-2.00,+6.00
+2.00,-7.00,-11.00,-4.00,-7.00,-17.00,-3.00,-4.00,+9.00,+21.00,-1.00,+0.00,+34.00,+16.00,-13.00,-5.00
-11.00,-7.00,-3.00,-5.00,-7.00,-6.00,-6.00,-25.00,+0.00,+5.00,+7.00,+4.00,-10.00,-7.00,+1.00,-6.00
+8.00,+12.00,+8.00,+3.00,+2.00,-2.00,+1.00,+0.00,-2.00,+2.00,-4.00,-1.00,-15.00,-9.00,-8.00,-1.00
-4.00,-16.00,-1.00,-2.00,-4.00,-1.00,-5.00,+35.00,+0.00,-5.00,-6.00,-3.00,-2.00,-3.00,+8.00,-3.00
+21.00,+38.00,+12.00,+5.00,+1.00,-4.00,+6.00,+14.00,-9.00,-20.00,+2.00,+0.00,-6.00,+0.00,+4.00,-3.00
-3.00,+4.00,-1.00,+3.00,+1.00,+1.00,-8.00,-2.00,+21.00,+9.00,+2.00,-3.00,+3.00,+3.00,-9.00,+1.00
+2.00,-3.00,-4.00,-5.00,-4.00,-14.00,+0.00,+28.00,-14.00,-2.00,-2.00,-3.00,+7.00,+1.00,+6.00,-1.00
-5.00,-3.00,-9.00,-5.00,+2.00,+2.00,+10.00,-35.00,-16.00,-12.00,+0.00,+3.00,-8.00,+3.00,+1.00,-3.00
+7.00,+9.00,+2.00,+1.00,-1.00,+1.00,+0.00,+16.00,-2.00,-4.00,-5.00,-1.00,+7.00,-1.00,+13.00,+7.00
+5.00,-14.00,+3.00,+3.00,-2.00,-9.00,+1.00,+11.00,+3.00,+6.00,+4.00,+1.00,-1.00,+0.00,+1.00,+2.00
+3.00,+12.00,+4.00,-1.00,+0.00,+15.00,+5.00,+16.00,+5.00,-16.00,-6.00,-4.00,-12.00,-2.00,+3.00,+3.00
+4.00,+0.00,+1.00,+3.00,+5.00,+3.00,-6.00,-11.00,+10.00,+8.00,+0.00,+0.00,+34.00,+15.00,-2.00,+4.00
-6.00,-6.00,-2.00,-5.00,-3.00,-5.00,-4.00,-1.00,-2.00,+3.00,+3.00,+5.00,-25.00,-10.00,-10.00,-2.00
+0.00,+9.00,+1.00,-2.00,-4.00,-5.00,-3.00,-13.00,-2.00,+11.00,+0.00,-4.00,-21.00,-13.00,-5.00,-6.00
-43.00,-36.00,-19.00,-8.00,-7.00,-12.00,-7.00,-21.00,-2.00,-17.00,-7.00,-7.00,+3.00,+0.00,+3.00,+1.00
+70.00,+74.00,+18.00,+5.00,+1.00,+5.00,+6.00,+23.00,-1.00,-3.00,+0.00,-4.00,-14.00,-11.00,-3.00,-4.00
+2.00,-9.00,+0.00,+3.00,-1.00,+2.00,+1.00,+16.00,-11.00,-14.00,-7.00,-4.00,+14.00,+5.00,-3.00,-4.00
-3.00,+7.00,-4.00,-4.00,-3.00,-2.00,-2.00,+3.00,+5.00,+2.00,-1.00,-2.00,+8.00,+6.00,-6.00,+7.00
-15.00,-11.00,+1.00,+0.00,-1.00,-6.00,-1.00,-44.00,+0.00,+2.00,+1.00,+0.00,-5.00,-4.00,-12.00,-7.00
-15.00,-16.00,+1.00,+1.00,+2.00,+10.00,-7.00,-9.00,+1.00,+3.00,+2.00,+1.00,+3.00,+3.00,+5.00,+6.00
+6.00,-5.00,+0.00,-1.00,-5.00,-15.00,+4.00,+18.00,+0.00,+2.00,-7.00,-7.00,-5.00,-3.00,+1.00,-6.00
-17.00,-21.00,-11.00,-2.00,+4.00,+5.00,+1.00,-50.00,-7.00,-4.00,+0.00,-2.00,-7.00,-1.00,+5.00,-1.00
+17.00,+20.00,+4.00,+0.00,+10.00,+28.00,+1.00,+12.00,+4.00,+7.00,-1.00,+2.00,+11.00,+2.00,+0.00,+0.00
-17.00,-16.00,-11.00,-6.00,-3.00,-9.00,-7.00,-11.00,+0.00,-6.00,-1.00,+2.00,+3.00,+2.00,+0.00,-5.00
+6.00,+8.00,+10.00,+6.00,+0.00,+11.00,+0.00,-13.00,+0.00,+2.00,+4.00,-1.00,-8.00,-5.00,+2.00,+4.00
+1.00,+7.00,-1.00,-4.00,-7.00,-7.00,+8.00,+18.00,-3.00,-5.00,-3.00,-2.00,-3.00,-2.00,-3.00,-2.00
+4.00,-7.00,-1.00,+0.00,-4.00,-8.00,+1.00,+1.00,+3.00,+2.00,+0.00,+0.00,+8.00,+2.00,-8.00,-3.00
-15.00,+6.00,+4.00,+2.00,+0.00,-3.00,+0.00,-20.00,-9.00,-1.00,+1.00,+1.00,-8.00,-2.00,+6.00,-5.00
-14.00,-13.00,-10.00,-2.00,-1.00,-8.00,-2.00,-6.00,-5.00,-19.00,-6.00,-2.00,-2.00,-2.00,+2.00,+1.00
+7.00,+8.00,+0.00,-3.00,-2.00,-1.00,-6.00,-3.00,-12.00,+8.00,+2.00,-1.00,+3.00,+1.00,-1.00,-7.00
+1.00,+2.00,+3.00,+3.00,+0.00,+1.00,-1.00,-1.00,+5.00,+3.00,+3.00,+3.00,+3.00,+2.00,+0.00,+1.00
-3.00,-11.00,-5.00,-2.00,-4.00,-2.00,-6.00,+7.00,+5.00,-3.00,-14.00,-6.00,-10.00,-1.00,-5.00,-3.00
-3.00,+0.00,-8.00,-5.00,-2.00,-7.00,+1.00,-6.00,+2.00,+6.00,+5.00,+1.00,+1.00,+0.00,-2.00,+2.00
+4.00,+2.00,-2.00,-5.00,+1.00,+4.00,-4.00,+10.00,+0.00,-14.00,-7.00,-3.00,-1.00,-3.00,+3.00,+2.00
+3.00,-9.00,-2.00,+0.00,-1.00,-4.00,+3.00,+14.00,-7.00,+6.00,+8.00,+2.00,-1.00,-2.00,-5.00,-1.00
-14.00,-25.00,+1.00,-1.00,-3.00,+1.00,-1.00,+0.00,+0.00,-1.00,+3.00,+0.00,+1.00,+1.00,-2.00,-5.00
+19.00,+47.00,+1.00,+1.00,+1.00,+0.00,+1.00,+2.00,-5.00,-7.00,-6.00,-3.00,-1.00,-1.00,+2.00,-3.00
-8.00,-12.00,-7.00,-2.00,+0.00,+2.00,-2.00,+4.00,+4.00,+4.00,+0.00,+0.00,-3.00,-1.00,-6.00,+1.00
+4.00,+5.00,+4.00,+2.00,+1.00,-2.00,+1.00,+16.00,-1.00,-8.00,-2.00,-2.00,-3.00,-2.00,+1.00,+0.00
-10.00,-12.00,-1.00,+0.00,+0.00,-5.00,-10.00,-27.00,+3.00,+12.00,+0.00,-1.00,+1.00,-2.00,-8.00,-4.00
-4.00,-14.00,+0.00,-3.00,-1.00,+1.00,-2.00,-6.00,+6.00,+2.00,+0.00,-1.00,-2.00,-2.00,-2.00,+2.00
-1.00,+3.00,+1.00,-4.00,+0.00,+2.00,-1.00,+5.00,-9.00,-1.00,+2.00,+2.00,+0.00,-2.00,-1.00,-5.00
-10.00,+8.00,-5.00,-2.00,-1.00,-6.00,-4.00,-4.00,-5.00,-9.00,-5.00,+0.00,+2.00,+2.00,+0.00,-3.00
+5.00,+2.00,-1.00,+0.00,+1.00,+2.00,+9.00,-12.00,+5.00,+5.00,+2.00,-2.00,-4.00,-5.00,-2.00,+0.00
