-1.00,-2.00,-2.00,-4.00,-1.00,-2.00,-1.00,+0.00,-1.00,+5.00,+3.00,+2.00,+0.00,+0.00,+0.00,-2.00
-1.00,+0.00,+4.00,+1.00,+1.00,+1.00,-1.00,+1.00,-1.00,-7.00,-6.00,-1.00,-1.00,+0.00,-2.00,+1.00
+1.00,+5.00,+4.00,+1.00,-1.00,-2.00,-1.00,+0.00,-2.00,-9.00,-6.00,+0.00,+1.00,+0.00,-2.00,-1.00
+0.00,+0.00,+1.00,+1.00,+1.00,+1.00,-1.00,-1.00,+1.00,+1.00,-1.00,+1.00,-2.00,-2.00,-3.00,+0.00
-1.00,+1.00,+1.00,+1.00,-1.00,-3.00,-1.00,-2.00,-1.00,-5.00,+1.00,+0.00,-1.00,+1.00,-1.00,-2.00
-2.00,-2.00,+5.00,+5.00,-1.00,-1.00,-1.00,-1.00,-2.00,-5.00,-5.00,-5.00,-3.00,-2.00,-2.00,-3.00
+0.00,+0.00,-2.00,-1.00,+0.00,+0.00,-1.00,-1.00,-1.00,+6.00,+4.00,-2.00,-1.00,-1.00,+0.00,-1.00
+1.00,+5.00,-4.00,-1.00,+0.00,-1.00,+0.00,-1.00,-2.00,-8.00,-5.00,-4.00,-3.00,-1.00,+3.00,+0.00
-3.00,-6.00,-10.00,-7.00,-2.00,-2.00,-3.00,-1.00,-1.00,+7.00,+3.00,+1.00,-2.00,-1.00,-2.00,-1.00
-2.00,-4.00,-3.00,-9.00,-7.00,+0.00,-1.00,+7.00,+2.00,-7.00,-1.00,+9.00,+8.00,+3.00,+1.00,+1.00
-9.00,-12.00,-9.00,-5.00,+0.00,-3.00,-3.00,-26.00,-10.00,-9.00,-1.00,+10.00,+1.00,-2.00,+1.00,+0.00
-2.00,+5.00,+2.00,+1.00,-1.00,-2.00,+0.00,+0.00,+0.00,+12.00,+4.00,-26.00,-20.00,-5.00,-6.00,-3.00
-1.00,+2.00,+14.00,+9.00,-11.00,-2.00,+0.00,+4.00,+1.00,+0.00,-8.00,-11.00,-4.00,-2.00,-2.00,+0.00
+1.00,-2.00,-6.00,+3.00,+14.00,+5.00,+1.00,+4.00,-1.00,+2.00,-1.00,-7.00,-6.00,-1.00,+1.00,+0.00
+5.00,+9.00,+5.00,+2.00,+6.00,+2.00,+0.00,+7.00,-1.00,-12.00,-13.00,+4.00,+5.00,+0.00,-4.00,-2.00
-3.00,-8.00,-14.00,-5.00,-5.00,+0.00,-2.00,-4.00,-6.00,-16.00,+0.00,+9.00,+4.00,+1.00,+0.00,-3.00
-4.00,-5.00,+2.00,+0.00,-4.00,-1.00,-2.00,-4.00,+2.00,+0.00,-2.00,-2.00,-5.00,-3.00,-1.00,-1.00
+0.00,+7.00,+16.00,+3.00,-3.00,-3.00,-3.00,-4.00,+1.00,+17.00,+8.00,-3.00,-1.00,-3.00,-2.00,-3.00
+2.00,+11.00,+6.00,+1.00,-4.00,-1.00,+1.00,+5.00,-1.00,+4.00,+4.00,+1.00,+0.00,-1.00,+0.00,+0.00
-2.00,+1.00,+1.00,+0.00,+4.00,-2.00,-2.00,-4.00,+0.00,-7.00,-8.00,+2.00,+1.00,+0.00,-3.00,-1.00
+0.00,-34.00,-21.00,-5.00,+0.00,+2.00,+1.00,+1.00,+4.00,+3.00,+3.00,+5.00,+7.00,+0.00,+1.00,+3.00
+3.00,+10.00,-5.00,-7.00,-5.00,-4.00,-3.00,-2.00,-3.00,-17.00,-5.00,-5.00,-5.00,-1.00,+1.00,+0.00
-1.00,-4.00,+7.00,-2.00,-5.00,-2.00,+0.00,+2.00,-3.00,+2.00,+4.00,-6.00,-3.00,-2.00,+1.00,+0.00
-3.00,-5.00,+2.00,+0.00,-3.00,-3.00,-4.00,-1.00,+8.00,+26.00,+8.00,+3.00,+0.00,+0.00,+0.00,+0.00
+0.00,+7.00,+4.00,+1.00,+6.00,+0.00,+1.00,+18.00,-8.00,-29.00,-17.00,-3.00,+3.00,+1.00,+0.00,+2.00
-8.00,-14.00,-15.00,-2.00,+0.00,+0.00,+2.00,+0.00,+0.00,+4.00,-2.00,+10.00,+3.00,+0.00,-3.00,-4.00
-3.00,-6.00,+3.00,+3.00,+0.00,-1.00,-2.00,+1.00,+5.00,+3.00,+3.00,-7.00,-5.00,-1.00,+0.00,+3.00
+5.00,+9.00,+12.00,+3.00,-4.00,+0.00,+0.00,-2.00,-2.00,+0.00,-3.00,-10.00,-2.00,-2.00,-1.00,+0.00
+5.00,+3.00,+3.00,-1.00,-3.00,-2.00,-1.00,+1.00,-6.00,-8.00,+3.00,-2.00,-2.00,+0.00,+0.00,-1.00
+8.00,+6.00,-9.00,-6.00,+7.00,+2.00,+2.00,-2.00,+14.00,-2.00,-1.00,-4.00,-4.00,-3.00,-2.00,-2.00
-1.00,-1.00,-5.00,+1.00,-2.00,-1.00,-3.00,+4.00,-7.00,+26.00,+7.00,-1.00,+0.00,-3.00,-3.00,-4.00
-6.00,+0.00,+10.00,+1.00,+2.00,+1.00,+1.00,+4.00,+1.00,-1.00,+2.00,+12.00,+7.00,+0.00,+2.00,+4.00
-16.00,-23.00,-12.00,-1.00,+1.00,-1.00,-3.00,-8.00,+0.00,+13.00,+3.00,+0.00,-3.00,-1.00,-1.00,-2.00
+10.00,+11.00,-10.00,-4.00,-6.00,-2.00,+1.00,+3.00,-9.00,-24.00,-10.00,+0.00,+0.00,+0.00,-1.00,-2.00
+8.00,+4.00,-1.00,-3.00,-2.00,-3.00,-1.00,-4.00,+7.00,+11.00,+0.00,-7.00,-7.00,+1.00,-2.00,+0.00
+6.00,+2.00,-11.00,-6.00,-5.00,-3.00,-1.00,-4.00,-3.00,-9.00,-4.00,-7.00,-2.00,-1.00,+0.00,+0.00
-7.00,+12.00,+2.00,-1.00,-3.00,-1.00,-2.00,-7.00,-2.00,-11.00,-6.00,-3.00,-3.00,-3.00,-5.00,-5.00
-8.00,-17.00,+11.00,+7.00,+2.00,+0.00,-1.00,-5.00,-6.00,+10.00,+1.00,+1.00,-1.00,-1.00,+3.00,+2.00
-15.00,-11.00,-7.00,+6.00,-1.00,+1.00,+2.00,+1.00,-11.00,-3.00,+2.00,-1.00,+0.00,-2.00,-2.00,-8.00
-8.00,+3.00,+17.00,+0.00,-4.00,-1.00,+0.00,+2.00,-11.00,-8.00,-1.00,+4.00,+0.00,+0.00,-3.00,-2.00
+2.00,-3.00,-11.00,-13.00,+1.00,-5.00,-2.00,-31.00,+1.00,-3.00,+2.00,+0.00,+0.00,+0.00,-1.00,-2.00
-8.00,-12.00,-10.00,-1.00,+2.00,+0.00,+0.00,+4.00,+6.00,-7.00,-5.00,-1.00,-1.00,-1.00,-3.00,-2.00
+3.00,+18.00,+4.00,+0.00,-2.00,+1.00,-2.00,+2.00,+9.00,+22.00,+4.00,+4.00,+1.00,+1.00,+1.00,+3.00
-17.00,-12.00,-12.00,-1.00,+1.00,-1.00,-2.00,+0.00,+2.00,-2.00,-2.00,+1.00,-1.00,+0.00,+0.00,-3.00
-5.00,+10.00,+10.00,+3.00,-2.00,-2.00,-2.00,-1.00,-11.00,+0.00,+0.00,-2.00,-1.00,-2.00,-3.00,-3.00
+14.00,-9.00,+20.00,+2.00,-2.00,-1.00,-2.00,+1.00,+9.00,-1.00,-3.00,-3.00,-2.00,-1.00,-2.00,+2.00
-5.00,-2.00,-16.00,-5.00,+1.00,-3.00,+0.00,-5.00,-21.00,-17.00,-6.00,+0.00,-2.00,+0.00,+2.00,+0.00
+3.00,-7.00,-1.00,+0.00,+0.00,-3.00,-1.00,-4.00,-7.00,-14.00,+3.00,+15.00,+17.00,+1.00,+1.00,-3.00
-5.00,-3.00,-2.00,+3.00,+5.00,+1.00,+0.00,+7.00,-19.00,-6.00,-4.00,-4.00,-11.00,-1.00,+1.00,-1.00
+30.00,+56.00,+6.00,+3.00,-6.00,-1.00,-1.00,-1.00,+9.00,+8.00,-1.00,-19.00,-12.00,-3.00,-3.00,-1.00
-1.00,-15.00,+0.00,-2.00,-1.00,-2.00,-2.00,+3.00,+15.00,+12.00,+3.00,+0.00,-4.00,+0.00,+0.00,+3.00
-7.00,+5.00,-4.00,-5.00,+5.00,+2.00,-1.00,-6.00,-4.00,-8.00,-4.00,-1.00,-1.00,+1.00,+3.00,+1.00
+2.00,-14.00,-9.00,-4.00,+3.00,+0.00,-2.00,+2.00,-9.00,-13.00,-12.00,+1.00,+4.00,+0.00,-5.00,-7.00
-29.00,-29.00,-4.00,-2.00,-2.00,-1.00,-3.00,+9.00,+6.00,+3.00,+0.00,+1.00,+2.00,-1.00,+1.00,+3.00
+2.00,+11.00,-4.00,-3.00,-11.00,-1.00,-3.00,-19.00,-6.00,-13.00,-3.00,-2.00,-1.00,-3.00,-5.00,-5.00
+14.00,+4.00,-4.00,-4.00,-6.00,-3.00,-3.00,+0.00,-22.00,+9.00,+2.00,+5.00,+0.00,-1.00,-5.00,-10.00
-9.00,-1.00,+2.00,+4.00,+0.00,+0.00,+0.00,-5.00,+21.00,+17.00,+8.00,+5.00,+2.00,+1.00,+1.00,+7.00
-2.00,+11.00,+7.00,+2.00,-2.00,-3.00,-2.00,+1.00,-27.00,-11.00,-2.00,+2.00,+1.00,+0.00,+0.00,-2.00
+27.00,+20.00,-5.00,-6.00,+3.00,+1.00,+4.00,+11.00,+37.00,+8.00,-1.00,+3.00,+5.00,+1.00,+2.00,+6.00
-17.00,-24.00,-6.00,+0.00,-1.00,-1.00,+0.00,+0.00,-8.00,+2.00,-1.00,+2.00,-4.00,-3.00,-2.00,-1.00
+29.00,+11.00,+4.00,+1.00,-5.00,+0.00,-1.00,+5.00,+0.00,-13.00,-1.00,-11.00,-5.00,-3.00,+0.00,-2.00
-28.00,-10.00,-2.00,+5.00,-1.00,-2.00,-1.00,-13.00,+23.00,+39.00,+8.00,+11.00,+4.00,+0.00,-4.00,-4.00
+6.00,+8.00,+28.00,+6.00,+5.00,+1.00,-3.00,+2.00,-6.00,+0.00,-6.00,-27.00,-21.00,-6.00,-5.00,-5.00
-6.00,-3.00,-21.00,-6.00,-10.00,-2.00,-1.00,-7.00,+19.00,-4.00,+0.00,+0.00,-4.00,-2.00,+2.00,+9.00
-8.00,-15.00,-12.00,-8.00,+16.00,+1.00,-2.00,-2.00,+13.00,+14.00,+1.00,-5.00,-2.00,+1.00,+2.00,+8.00
+15.00,+1.00,-11.00,-6.00,-4.00,-2.00,+3.00,+6.00,-19.00,-13.00,+0.00,+0.00,+4.00,-2.00,+1.00,-4.00
-17.00,-20.00,-1.00,+5.00,+2.00,+1.00,+1.00,-2.00,+9.00,-11.00,-2.00,+10.00,+9.00,+1.00,-1.00,+2.00
+7.00,+6.00,+12.00,+6.00,-2.00,+1.00,+1.00,+4.00,-2.00,-5.00,-5.00,-10.00,-7.00,-4.00,-5.00,-8.00
+6.00,+19.00,+17.00,+8.00,-5.00,-2.00,-1.00,+0.00,-15.00,-10.00,-2.00,+0.00,+0.00,-2.00,-3.00,-4.00
-12.00,-14.00,-7.00,-4.00,-1.00,+0.00,-2.00,-11.00,-19.00,-23.00,-5.00,+1.00,-1.00,-3.00,-8.00,-12.00
-6.00,-11.00,-7.00,-6.00,+1.00,-1.00,+0.00,+1.00,-11.00,+9.00,-6.00,+0.00,-1.00,+0.00,+1.00,+2.00
+10.00,-10.00,+3.00,-2.00,-2.00,-2.00,+2.00,+2.00,+10.00,+13.00,+0.00,-5.00,-3.00,-2.00,-2.00,+3.00
+13.00,+30.00,-5.00,-5.00,-4.00,+0.00,+1.00,-11.00,+2.00,-12.00,-2.00,+2.00,+5.00,-2.00,-1.00,-2.00
-1.00,-18.00,-6.00,-3.00,+2.00,-1.00,-1.00,-4.00,-1.00,-5.00,+0.00,+0.00,-2.00,+1.00,-2.00,-3.00
-6.00,+0.00,-2.00,+2.00,-3.00,+0.00,+0.00,+4.00,-33.00,-29.00,-10.00,-4.00,-6.00,-4.00,-4.00,-11.00
-15.00,-9.00,+3.00,+3.00,+2.00,+0.00,-4.00,-11.00,-4.00,-28.00,+3.00,-4.00,+0.00,-1.00,-5.00,-6.00
-12.00,-7.00,+22.00,+2.00,-3.00,+0.00,+1.00,+7.00,+48.00,+98.00,+16.00,+8.00,+2.00,+3.00,+6.00,+13.00
+6.00,+12.00,-26.00,-12.00,-5.00,-3.00,-4.00,-1.00,-4.00,-5.00,+0.00,-1.00,-3.00,-3.00,+0.00,+2.00
-21.00,-29.00,-10.00,-3.00,-2.00,-2.00,-3.00,-7.00,+5.00,-4.00,-3.00,-3.00,-1.00,+0.00,+1.00,+7.00
+21.00,-32.00,-4.00,+4.00,+6.00,+4.00,+3.00,+15.00,+14.00,-2.00,-4.00,+12.00,+11.00,+1.00,+3.00,+6.00
+18.00,+50.00,+5.00,+6.00,+3.00,+1.00,+1.00,+2.00,-32.00,-29.00,-8.00,-16.00,-16.00,-5.00,-7.00,-15.00
-7.00,-2.00,+15.00,+5.00,-3.00,-1.00,-2.00,-4.00,+17.00,+11.00,+1.00,-9.00,-7.00,-2.00,+1.00,+5.00
+4.00,+11.00,+2.00,-3.00,+1.00,-3.00,-2.00,-2.00,-41.00,-31.00,-3.00,+4.00,-1.00,-1.00,-5.00,-19.00
-21.00,-9.00,-9.00,-6.00,+6.00,+1.00,-2.00,-3.00,+21.00,+4.00,-4.00,-10.00,-3.00,-4.00,-2.00,-1.00
+3.00,-18.00,-7.00,-5.00,+0.00,-3.00,-1.00,+5.00,-2.00,+20.00,+2.00,+8.00,+5.00,+2.00,+5.00,+1.00
+16.00,+42.00,-1.00,-4.00,-5.00,+4.00,+4.00,+6.00,+13.00,+16.00,+4.00,+3.00,+2.00,+2.00,+4.00,+10.00
-1.00,-26.00,-19.00,-5.00,-6.00,-1.00,-1.00,+16.00,-1.00,-16.00,-1.00,+3.00,+3.00,-1.00,-3.00,-4.00
+16.00,+28.00,+16.00,+6.00,-4.00,-1.00,+1.00,-2.00,+11.00,-2.00,-4.00,-1.00,-3.00,-3.00,-2.00,-1.00
-7.00,-11.00,-5.00,+1.00,-3.00,-2.00,-2.00,-3.00,-45.00,-29.00,-1.00,+3.00,+5.00,+0.00,-1.00,-6.00
-10.00,-18.00,+2.00,+2.00,+0.00,-2.00,-4.00,-2.00,-3.00,-16.00,-12.00,-4.00,-3.00,-2.00,-4.00,-4.00
-18.00,-14.00,+15.00,+1.00,+2.00,-1.00,-2.00,-2.00,+14.00,+19.00,+1.00,+1.00,+2.00,+0.00,-1.00,+0.00
+70.00,+86.00,-7.00,-4.00,-2.00,+1.00,+2.00,+13.00,-4.00,+3.00,-2.00,+3.00,-4.00,+1.00,+0.00,-4.00
-9.00,-10.00,-14.00,-6.00,-6.00,-3.00,-2.00,+0.00,+14.00,+14.00,+7.00,-1.00,+2.00,+0.00,+0.00,+1.00
-18.00,-44.00,-1.00,+5.00,+0.00,-1.00,-2.00,-3.00,-13.00,-10.00,+1.00,-7.00,-13.00,-3.00,-3.00,-4.00
-1.00,+20.00,+13.00,+3.00,-1.00,+4.00,+1.00,+3.00,-7.00,-30.00,-7.00,-2.00,+4.00,+2.00,+3.00,+7.00
-23.00,-31.00,-3.00,-2.00,+5.00,+0.00,-1.00,-1.00,+10.00,+30.00,+2.00,-3.00,+1.00,-2.00,-3.00,+1.00
+11.00,+56.00,-6.00,-5.00,-5.00,+0.00,-1.00,-4.00,+2.00,-20.00,-3.00,+3.00,+0.00,-3.00,-6.00,-6.00
+2.00,-8.00,+11.00,+7.00,-1.00,-2.00,+1.00,-2.00,-38.00,-12.00,-2.00,-1.00,+3.00,+0.00,+0.00,-5.00
+6.00,+33.00,+9.00,+3.00,-6.00,-1.00,+0.00,-1.00,+31.00,+20.00,+2.00,-2.00,+1.00,-2.00,-1.00,+4.00
-33.00,-42.00,-22.00,-13.00,+0.00,-3.00,-3.00,-10.00,-27.00,-9.00,-7.00,-6.00,-9.00,+0.00,+1.00,-5.00
-2.00,-21.00,-18.00,-10.00,-10.00,-3.00,+0.00,+4.00,+11.00,-9.00,-2.00,+9.00,+5.00,-2.00,-1.00,+6.00
-17.00,-20.00,-2.00,+1.00,+1.00,-3.00,-4.00,-10.00,+9.00,-8.00,-14.00,-7.00,-5.00,-3.00,-6.00,-9.00
+6.00,-2.00,+3.00,+5.00,+5.00,+0.00,-1.00,+0.00,+2.00,-23.00,+3.00,-4.00,-7.00,-2.00,-1.00,-1.00
-6.00,+22.00,+21.00,+8.00,-7.00,-2.00,-2.00,-5.00,-3.00,+4.00,+0.00,+15.00,+19.00,+1.00,-1.00,+1.00
-6.00,-8.00,+0.00,+1.00,+19.00,+0.00,-1.00,-2.00,-18.00,+14.00,+2.00,-5.00,-22.00,-2.00,-3.00,-11.00
-26.00,-31.00,-5.00,-7.00,-12.00,-4.00,-3.00,-10.00,-9.00,-2.00,-1.00,-15.00,-3.00,-1.00,-3.00,-11.00
+7.00,+18.00,-14.00,-9.00,+4.00,-3.00,-3.00,-13.00,+18.00,+4.00,+1.00,+2.00,-1.00,+0.00,+0.00,+2.00
+9.00,-28.00,-3.00,-2.00,+5.00,+5.00,+0.00,+11.00,-2.00,-10.00,-3.00,-1.00,+4.00,+3.00,+8.00,+12.00
-14.00,-38.00,-1.00,+3.00,-4.00,-1.00,+0.00,+16.00,+31.00,+34.00,+6.00,+5.00,+8.00,-2.00,+1.00,+15.00
+14.00,+13.00,+9.00,+5.00,+10.00,+4.00,+1.00,+2.00,+7.00,+2.00,+5.00,+13.00,+13.00,-1.00,+0.00,+3.00
-14.00,+15.00,+7.00,+3.00,-11.00,-7.00,-4.00,+0.00,-48.00,+6.00,-1.00,-5.00,-8.00,+0.00,-5.00,-15.00
-41.00,-41.00,-6.00,-5.00,-14.00,-6.00,-3.00,-10.00,-47.00,-20.00,-2.00,+4.00,-6.00,-3.00,-9.00,-33.00
+34.00,+6.00,-7.00,-4.00,-4.00,+0.00,+1.00,+3.00,+31.00,-23.00,-14.00,-28.00,-24.00,-6.00,+2.00,+15.00
+15.00,+41.00,+3.00,+1.00,+12.00,+1.00,+1.00,+11.00,+33.00,-11.00,+1.00,+13.00,+15.00,+4.00,+8.00,+21.00
+8.00,-13.00,-11.00,-2.00,+6.00,+3.00,+0.00,+2.00,+22.00,+53.00,+1.00,-7.00,+0.00,-1.00,-1.00,+1.00
-19.00,+10.00,+6.00,+5.00,+12.00,-2.00,-5.00,-5.00,+13.00,-3.00,-1.00,-7.00,-11.00,-1.00,-6.00,-5.00
-1.00,-25.00,+4.00,+3.00,-18.00,-1.00,-15.00,-10.00,-45.00,-16.00,-5.00,-2.00,+6.00,-2.00,-1.00,-6.00
-23.00,-17.00,-4.00,-5.00,+2.00,+2.00,+24.00,-2.00,+17.00,+5.00,+6.00,+4.00,-7.00,-1.00,-4.00,-8.00
-10.00,-13.00,-9.00,-3.00,+4.00,+0.00,+1.00,-10.00,-24.00,-15.00,+3.00,+8.00,+9.00,+3.00,+4.00,+3.00
+24.00,+61.00,+4.00,+3.00,+3.00,-5.00,-1.00,-21.00,+17.00,-2.00,-1.00,+8.00,+11.00,+1.00,-2.00,+0.00
-42.00,-45.00,+4.00,-5.00,-12.00,-1.00,+1.00,-5.00,+14.00,+13.00,+2.00,-2.00,-12.00,-3.00,-13.00,-9.00
+57.00,+37.00,+2.00,+0.00,-1.00,-2.00,-10.00,+7.00,-20.00,+5.00,+2.00,-3.00,-2.00,+2.00,+4.00,+0.00
-6.00,-18.00,-3.00,-3.00,-2.00,-2.00,-2.00,+1.00,+1.00,-18.00,-5.00,+0.00,+1.00,-1.00,-1.00,-3.00
-7.00,-18.00,-3.00,-3.00,+5.00,+1.00,+6.00,+12.00,-19.00,-18.00,-2.00,-13.00,-10.00,-5.00,-10.00,-18.00
+12.00,-2.00,+2.00,+2.00,+1.00,-1.00,-1.00,+11.00,+1.00,+7.00,+8.00,+25.00,+31.00,+5.00,+2.00,+2.00
-8.00,-4.00,-2.00,-1.00,-3.00,+0.00,-1.00,-5.00,+7.00,+13.00,+0.00,-17.00,-21.00,-1.00,+2.00,+13.00
+1.00,-8.00,-3.00,-4.00,-13.00,-2.00,+5.00,-2.00,+3.00,-3.00,-6.00,-8.00,-8.00,-3.00,-4.00,+0.00
+9.00,-12.00,+0.00,+6.00,+4.00,+1.00,-4.00,+6.00,+3.00,-10.00,-5.00,-7.00,+0.00,-3.00,-4.00,+4.00
-4.00,+21.00,+2.00,-1.00,+1.00,+0.00,+2.00,-14.00,-23.00,-21.00,-4.00,+4.00,-2.00,-1.00,-7.00,-22.00
+2.00,+1.00,+4.00,+1.00,-2.00,-1.00,-2.00,+0.00,+7.00,-4.00,-8.00,-12.00,-4.00,-2.00,-2.00,+2.00
+11.00,-1.00,-2.00,-1.00,+2.00,+1.00,-1.00,+7.00,-33.00,+6.00,+5.00,+1.00,+7.00,+1.00,+1.00,-8.00
-2.00,-14.00,-5.00,-2.00,-6.00,-4.00,-8.00,-14.00,+13.00,+17.00,+3.00,+3.00,-4.00,-1.00,+1.00,+8.00
+30.00,+55.00,+7.00,+5.00,+2.00,+0.00,+3.00,+11.00,-13.00,+1.00,-4.00,-10.00,+1.00,-5.00,-1.00,-7.00
+22.00,-21.00,+1.00,+1.00,-1.00,-1.00,+1.00,+10.00,+13.00,+12.00,+4.00,+18.00,+8.00,+4.00,+7.00,+20.00
-16.00,-9.00,-6.00,-7.00,+2.00,+4.00,-3.00,-7.00,+15.00,-10.00,-13.00,-35.00,-45.00,-10.00,-4.00,-6.00
-2.00,+9.00,-9.00,-7.00,-30.00,-11.00,-2.00,-3.00,+5.00,+7.00,+3.00,+4.00,+9.00,+3.00,+7.00,+16.00
-14.00,-3.00,+7.00,+6.00,+29.00,+11.00,+3.00,-12.00,-10.00,-14.00,-7.00,-6.00,-7.00,+1.00,+2.00,+0.00
+5.00,+13.00,-2.00,-2.00,+0.00,-4.00,-7.00,+4.00,-9.00,-1.00,+0.00,+5.00,+12.00,-3.00,-5.00,-13.00
+13.00,+15.00,+10.00,+7.00,+2.00,-1.00,+0.00,-1.00,+11.00,-1.00,-2.00,+13.00,+17.00,+1.00,+1.00,+5.00
+8.00,+10.00,-2.00,-1.00,-6.00,+2.00,+2.00,+6.00,+4.00,+0.00,+1.00,-1.00,-5.00,+2.00,+4.00,+3.00
-12.00,-4.00,-7.00,-1.00,-7.00,-4.00,-1.00,+1.00,-17.00,-11.00,-5.00,-9.00,-6.00,-3.00,-5.00,-16.00
-14.00,-6.00,-4.00,-3.00,-3.00,-2.00,-3.00,-4.00,+5.00,+3.00,-2.00,-2.00,-1.00,-1.00,+2.00,+7.00
-16.00,-25.00,+7.00,+2.00,+1.00,+1.00,-1.00,+1.00,-1.00,+11.00,+13.00,+8.00,+6.00,+1.00,-2.00,+0.00
-6.00,-16.00,-9.00,-4.00,+2.00,+1.00,-1.00,+3.00,+2.00,+5.00,-4.00,-13.00,-9.00,-4.00,-2.00,-3.00
+7.00,+14.00,-3.00,-7.00,-5.00,-4.00,-3.00,-2.00,+2.00,-6.00,+4.00,+9.00,+5.00,+0.00,-1.00,+4.00
-13.00,+10.00,-9.00,-6.00,+3.00,+1.00,-2.00,-3.00,-21.00,-6.00,-1.00,+7.00,+7.00,+0.00,-2.00,-17.00
-20.00,-13.00,-2.00,-3.00,-1.00,-4.00,-3.00,-6.00,+20.00,-13.00,-9.00,-4.00,-10.00,+2.00,+5.00,+14.00
+16.00,+9.00,+8.00,+2.00,-9.00,+3.00,+1.00,+10.00,+5.00,+2.00,+0.00,+0.00,+3.00,-1.00,+0.00,+3.00
-2.00,-26.00,+1.00,+6.00,+9.00,+0.00,+0.00,-21.00,-17.00,-8.00,-3.00,+6.00,+2.00,+0.00,+4.00,+6.00
+2.00,+26.00,+3.00,-1.00,-8.00,-2.00,-3.00,-8.00,+18.00,-3.00,-1.00,-9.00,-14.00,-3.00,-1.00,+8.00
+1.00,-10.00,-1.00,+3.00,+6.00,-1.00,-1.00,+2.00,-7.00,+1.00,+1.00,+1.00,+8.00,-3.00,-3.00,-5.00
+7.00,+35.00,+5.00,+5.00,+8.00,-2.00,+0.00,-2.00,-15.00,-28.00,-5.00,-2.00,-3.00,+1.00,+0.00,+1.00
+1.00,-5.00,+0.00,-10.00,-8.00,-4.00,-2.00,+0.00,-3.00,+8.00,+0.00,+1.00,+6.00,-1.00,-3.00,-11.00
+8.00,-7.00,-22.00,-15.00,-4.00,-3.00,-2.00,-1.00,-8.00,-14.00,-7.00,+3.00,+5.00,+0.00,-1.00,-4.00
+0.00,-1.00,-2.00,-1.00,-8.00,-2.00,-3.00,-11.00,+17.00,+33.00,+6.00,+1.00,-5.00,-1.00,-2.00,+0.00
+11.00,+4.00,+3.00,+2.00,-5.00,+0.00,+1.00,+4.00,-13.00,-8.00,-3.00,-8.00,-12.00,-3.00,-4.00,-6.00
+0.00,+35.00,+12.00,+9.00,+6.00,-1.00,+2.00,+5.00,+6.00,-8.00,-6.00,-8.00,-6.00,-1.00,+0.00,+0.00
-22.00,-32.00,+0.00,+2.00,+6.00,+1.00,-2.00,-9.00,-23.00,-4.00,+4.00,-1.00,-2.00,-2.00,-6.00,-14.00
+8.00,+6.00,-7.00,-2.00,+3.00,+0.00,+0.00,+5.00,+6.00,+3.00,+10.00,+7.00,+12.00,+1.00,+2.00,+10.00
-8.00,+6.00,+3.00,-2.00,+3.00,+0.00,-1.00,-5.00,-10.00,-12.00,-12.00,-7.00,-5.00,-2.00,-2.00,-6.00
-9.00,-19.00,-9.00,-6.00,-8.00,-2.00,-1.00,+2.00,+12.00,+4.00,-4.00,-5.00,-3.00,-2.00,-1.00,+4.00
+6.00,+23.00,-3.00,+0.00,-3.00,-1.00,+0.00,+2.00,-3.00,-11.00,-5.00,-6.00,-1.00,-2.00,+0.00,-5.00
+5.00,-13.00,+6.00,+1.00,+1.00,+1.00,+1.00,+6.00,+5.00,+8.00,+2.00,+2.00,+0.00,-3.00,-2.00,-2.00
-12.00,-21.00,-4.00,+0.00,+0.00,+0.00,-2.00,-31.00,+18.00,+25.00,+8.00,+1.00,-1.00,-2.00,+0.00,+4.00
-7.00,-3.00,+1.00,-2.00,-3.00,-1.00,+0.00,-1.00,-8.00,+0.00,-1.00,-5.00,-6.00,+1.00,-2.00,-6.00
+6.00,+26.00,-4.00,-3.00,-9.00,-2.00,-2.00,-4.00,-7.00,+0.00,+0.00,+3.00,-1.00,-1.00,-3.00,-5.00
-1.00,-22.00,+2.00,-1.00,+6.00,+1.00,-1.00,-2.00,+11.00,-7.00,-4.00,+0.00,-2.00,-2.00,-1.00,+2.00
+7.00,-3.00,+7.00,+5.00,+6.00,+3.00,+0.00,+10.00,-9.00,+0.00,-1.00,-4.00,-1.00,-2.00,-2.00,-4.00
-5.00,-4.00,-3.00,+1.00,-8.00,-2.00,-1.00,+1.00,-7.00,-6.00,+4.00,+6.00,+16.00,+4.00,+5.00,+9.00
-34.00,-28.00,-3.00,-2.00,+1.00,-1.00,-3.00,-10.00,-10.00,-5.00,-2.00,-8.00,-22.00,-2.00,-4.00,-7.00
+24.00,+6.00,-4.00,-6.00,-7.00,-4.00,-1.00,+4.00,-6.00,+9.00,+0.00,-2.00,+0.00,-1.00,-2.00,-4.00
+21.00,+33.00,-1.00,-3.00,+3.00,+1.00,+1.00,+10.00,+18.00,+13.00,-3.00,+0.00,-1.00,-1.00,+4.00,+12.00
-11.00,-18.00,-6.00,-4.00,-3.00,-1.00,-3.00,-6.00,+25.00,+7.00,+3.00,+2.00,+1.00,-1.00,+0.00,+5.00
-7.00,-3.00,+7.00,+1.00,-5.00,-2.00,-3.00,+3.00,-17.00,-20.00,-4.00,+1.00,+8.00,+1.00,-3.00,-6.00
-7.00,+3.00,-10.00,-2.00,-3.00,-3.00,-4.00,-10.00,-1.00,+5.00,-3.00,-6.00,-6.00,-1.00,-3.00,-5.00
-30.00,-54.00,+0.00,+1.00,+5.00,-3.00,-2.00,-1.00,-34.00,-12.00,+0.00,-2.00,-2.00,+0.00,+1.00,-7.00
+16.00,+7.00,-2.00,-2.00,-6.00,+0.00,-1.00,+2.00,+38.00,+18.00,-1.00,+1.00,+1.00,+0.00,+1.00,+6.00
+9.00,-12.00,-5.00,-4.00,+0.00,+0.00,-1.00,+17.00,-7.00,+6.00,+3.00,-4.00,-3.00,-1.00,+1.00,+1.00
+23.00,+48.00,+2.00,+1.00,-6.00,+1.00,+2.00,+2.00,+7.00,-13.00,-9.00,-2.00,+2.00,+0.00,-1.00,-3.00
-20.00,+2.00,+1.00,-1.00,+2.00,-2.00,-3.00,-5.00,-5.00,+5.00,+3.00,-2.00,-1.00,-1.00,-4.00,-4.00
+17.00,+22.00,-4.00,-3.00,+5.00,+0.00,+2.00,+8.00,-10.00,-19.00,-7.00,-3.00,-4.00,+0.00,+1.00,+0.00
-4.00,-24.00,+0.00,+2.00,+0.00,-1.00,-1.00,-1.00,+4.00,-1.00,-1.00,-2.00,+4.00,-3.00,-1.00,+0.00
-10.00,-14.00,-3.00,-2.00,-1.00,-2.00,+1.00,-1.00,-7.00,+2.00,-1.00,-3.00,-4.00,-3.00,-5.00,-9.00
+5.00,+13.00,+3.00,+0.00,-3.00,-1.00,-1.00,+1.00,+6.00,+3.00,+1.00,+12.00,+19.00,+2.00,+1.00,-1.00
-23.00,-23.00,-9.00,-2.00,+3.00,-1.00,-1.00,-3.00,-5.00,-8.00,+2.00,-2.00,-24.00,-1.00,+0.00,-3.00
+8.00,-3.00,+3.00,+0.00,-11.00,-5.00,-1.00,-5.00,-22.00,+3.00,-8.00,-14.00,-9.00,-4.00,-3.00,-4.00
+15.00,+20.00,+3.00,+4.00,+14.00,+1.00,+1.00,+3.00,-3.00,-12.00,-2.00,-4.00,-3.00,-1.00,-1.00,+0.00
-9.00,-4.00,-4.00,-6.00,+0.00,+2.00,+0.00,-3.00,+5.00,-8.00,-3.00,-5.00,-1.00,-2.00,-1.00,-4.00
+19.00,+38.00,+9.00,+0.00,-3.00,-2.00,-1.00,+1.00,-9.00,+6.00,+3.00,+5.00,+9.00,-2.00,+0.00,-2.00
-17.00,-26.00,-3.00,-2.00,+1.00,+0.00,+1.00,-4.00,+13.00,+9.00,-2.00,+4.00,+2.00,+1.00,+4.00,+6.00
-18.00,-18.00,+3.00,+0.00,-4.00,-3.00,-1.00,-2.00,-3.00,-18.00,-8.00,-2.00,-4.00,-2.00,-2.00,-3.00
+19.00,+13.00,+0.00,+0.00,-4.00,-3.00,+0.00,+20.00,+0.00,-4.00,+0.00,+2.00,+0.00,+0.00,-2.00,-3.00
-3.00,+0.00,-6.00,-2.00,+7.00,-1.00,-1.00,-10.00,+5.00,+1.00,-3.00,-7.00,-3.00,-2.00,-3.00,-4.00
+1.00,+11.00,+0.00,-2.00,+0.00,-2.00,-3.00,-5.00,+6.00,+38.00,+13.00,+5.00,-1.00,+2.00,+5.00,+9.00
+0.00,+9.00,-2.00,-3.00,-7.00,-1.00,+0.00,+3.00,+1.00,-12.00,-5.00,-3.00,+4.00,-1.00,+2.00,+6.00
-9.00,-21.00,-3.00,+2.00,+3.00,+0.00,+0.00,+6.00,+3.00,+6.00,+2.00,-4.00,-4.00,+0.00,+1.00,+4.00
-11.00,-45.00,+0.00,+5.00,-2.00,+2.00,+2.00,+4.00,-4.00,-1.00,-1.00,-5.00,-1.00,-2.00,-2.00,-2.00
-1.00,+15.00,+17.00,+1.00,+5.00,+0.00,+0.00,-6.00,-2.00,-19.00,-4.00,+2.00,+3.00,-1.00,-4.00,-7.00
+0.00,-7.00,-20.00,-6.00,-2.00,-1.00,-3.00,-7.00,+1.00,+10.00,+7.00,+3.00,-2.00,+2.00,+2.00,+3.00
-7.00,-9.00,-5.00,-2.00,-10.00,-4.00,-1.00,-3.00,-12.00,-19.00,-3.00,-5.00,-6.00,-4.00,-4.00,-6.00
+7.00,+4.00,+12.00,+5.00,+5.00,+1.00,+1.00,+2.00,+16.00,+22.00,-3.00,-6.00,-5.00,-3.00,+2.00,+11.00
+7.00,-1.00,+0.00,+1.00,+3.00,+1.00,+1.00,+2.00,-2.00,+1.00,-1.00,+1.00,+2.00,-1.00,-2.00,-8.00
-6.00,+3.00,-2.00,-3.00,-2.00,+0.00,-2.00,-3.00,-23.00,-30.00,+1.00,+12.00,+19.00,+4.00,+1.00,-2.00
-3.00,-15.00,-4.00,-4.00,-1.00,-2.00,-2.00,-9.00,+15.00,+33.00,+3.00,-7.00,-14.00,-1.00,+0.00,+1.00
-4.00,-1.00,-2.00,-1.00,-1.00,-1.00,-1.00,+3.00,-17.00,-12.00,-3.00,-1.00,-6.00,-5.00,-7.00,-15.00
+1.00,-6.00,+6.00,+6.00,+1.00,-1.00,-1.00,+7.00,+11.00,-2.00,-6.00,-3.00,-1.00,-1.00,-1.00,+5.00
+6.00,+6.00,+0.00,+1.00,+6.00,+3.00,-1.00,-1.00,+4.00,+5.00,-3.00,-1.00,-1.00,+0.00,-2.00,-1.00
+1.00,+16.00,-2.00,-3.00,-1.00,-1.00,-2.00,-19.00,-16.00,-12.00,-2.00,+5.00,+6.00,+0.00,+3.00,-2.00
-15.00,-16.00,+0.00,-4.00,-5.00,-3.00,-4.00,-4.00,+30.00,+9.00,+3.00,-1.00,+2.00,+0.00,+1.00,+5.00
-6.00,+11.00,-5.00,-1.00,-8.00,+0.00,+1.00,-1.00,-21.00,+5.00,+3.00,-1.00,-2.00,+0.00,+1.00,-3.00
+11.00,+8.00,-1.00,-2.00,+0.00,+1.00,+1.00,-1.00,-1.00,-6.00,-2.00,+0.00,+0.00,+0.00,+2.00,-4.00
-17.00,-22.00,-4.00,+0.00,-1.00,-2.00,-2.00,-5.00,+6.00,+3.00,-1.00,+1.00,+2.00,+0.00,+1.00,+0.00
+38.00,+38.00,+8.00,+3.00,-1.00,-1.00,-1.00,+5.00,-10.00,-24.00,-5.00,-2.00,-1.00,-1.00,-2.00,-8.00
-20.00,-21.00,-9.00,-2.00,+1.00,-2.00,-1.00,-4.00,+15.00,+14.00,+0.00,+4.00,+7.00,+1.00,+2.00,+10.00
+9.00,+17.00,+6.00,+3.00,-2.00,+0.00,+1.00,+4.00,+8.00,+21.00,+4.00,-10.00,-15.00,-4.00,-2.00,-5.00
+1.00,-5.00,+5.00,-2.00,-8.00,-3.00,-1.00,+6.00,-3.00,+7.00,+1.00,-1.00,-2.00,+2.00,+3.00,+10.00
-23.00,-5.00,-17.00,-5.00,-1.00,-1.00,-2.00,-8.00,+12.00,+7.00,+4.00,+16.00,+16.00,+2.00,+0.00,-1.00
+14.00,-10.00,+1.00,+2.00,+7.00,+2.00,-1.00,+2.00,-7.00,-19.00,-9.00,-19.00,-22.00,-7.00,-5.00,-5.00
+1.00,+11.00,+4.00,+2.00,-2.00,-1.00,+0.00,-4.00,-8.00,-7.00,-6.00,+7.00,+6.00,+0.00,-2.00,+0.00
-3.00,-4.00,-5.00,-2.00,+4.00,+1.00,-1.00,-1.00,-6.00,-7.00,-6.00,-14.00,-12.00,-3.00,-4.00,-9.00
-15.00,-6.00,-2.00,-6.00,-2.00,-3.00,-3.00,-8.00,-33.00,-25.00,-3.00,-7.00,+3.00,-1.00,+3.00,+7.00
+6.00,+4.00,-1.00,-1.00,+2.00,-2.00,-2.00,-2.00,+26.00,+19.00,+5.00,+11.00,+12.00,+2.00,+5.00,+8.00
-31.00,-47.00,-8.00,-3.00,+1.00,-2.00,+0.00,+1.00,-9.00,+11.00,+5.00,+3.00,-2.00,+1.00,-2.00,-4.00
+26.00,+41.00,+7.00,-1.00,-6.00,-1.00,+1.00,+17.00,+11.00,-4.00,-6.00,+1.00,-1.00,-4.00,-4.00,-4.00
-12.00,-8.00,-5.00,+0.00,-6.00,+0.00,+2.00,+6.00,-35.00,-8.00,+0.00,+2.00,+1.00,+0.00,-1.00,-6.00
+4.00,+10.00,+1.00,-2.00,+4.00,+1.00,-3.00,-2.00,+18.00,-4.00,-6.00,-3.00,-4.00,-3.00,-5.00,-4.00
-1.00,-18.00,-7.00,-2.00,-4.00,-3.00,-4.00,-5.00,+10.00,-3.00,-4.00,-7.00,-4.00,-1.00,+1.00,+4.00
-16.00,-1.00,+0.00,+3.00,+5.00,+0.00,+0.00,-1.00,+0.00,-8.00,+0.00,+2.00,+2.00,+1.00,+0.00,+0.00
+5.00,+16.00,+2.00,+2.00,+5.00,+0.00,+1.00,+6.00,+12.00,+20.00,-1.00,-3.00,-6.00,-4.00,-4.00,-7.00
+12.00,+9.00,-4.00,-2.00,-13.00,-1.00,-1.00,-3.00,-40.00,-25.00,-1.00,+8.00,+9.00,+2.00,+0.00,-1.00
-6.00,+4.00,+5.00,+3.00,+4.00,+0.00,+0.00,+4.00,+22.00,+4.00,-3.00,-7.00,-11.00,-6.00,+0.00,+2.00
-9.00,-13.00,-7.00,-3.00,-13.00,-2.00,+0.00,-6.00,-17.00,-5.00,-1.00,-9.00,-8.00,-4.00,-1.00,+5.00
+7.00,-1.00,+5.00,-2.00,+17.00,+4.00,+1.00,-1.00,-1.00,-5.00,-3.00,-12.00,-10.00,+0.00,-2.00,-1.00
-16.00,-8.00,-5.00,-4.00,+1.00,-2.00,+0.00,-4.00,+0.00,-18.00,-3.00,+0.00,+2.00,+0.00,-4.00,-9.00
+26.00,+2.00,-1.00,-3.00,+1.00,+1.00,+2.00,+4.00,+5.00,+19.00,+7.00,+12.00,+14.00,+3.00,-4.00,-1.00
-11.00,+11.00,-2.00,-1.00,-1.00,+1.00,+0.00,-5.00,-11.00,-1.00,-3.00,+2.00,+0.00,+1.00,+2.00,+4.00
+0.00,+7.00,+4.00,+1.00,-11.00,-6.00,-5.00,-9.00,+14.00,+7.00,-3.00,-7.00,-3.00,+0.00,-2.00,+1.00
+0.00,-12.00,+1.00,+3.00,-2.00,+0.00,+1.00,+27.00,-16.00,-10.00,+0.00,+1.00,+1.00,-1.00,+0.00,-7.00
-7.00,-6.00,-1.00,+1.00,+8.00,-2.00,+1.00,-2.00,-5.00,-15.00,-2.00,+0.00,+0.00,-1.00,+0.00,+5.00
-11.00,-24.00,+1.00,-3.00,-17.00,-2.00,-3.00,-6.00,+1.00,+6.00,+5.00,+1.00,-1.00,-2.00,-4.00,-9.00
+5.00,+4.00,-2.00,-1.00,-6.00,+1.00,+0.00,+5.00,-9.00,-15.00,-2.00,+2.00,+1.00,-1.00,-3.00,-7.00
-7.00,-25.00,-5.00,-7.00,-2.00,-1.00,-2.00,-6.00,+14.00,+18.00,+2.00,-1.00,-1.00,-2.00,+0.00,+5.00
+16.00,+18.00,+4.00,+0.00,-1.00,-3.00,-2.00,+3.00,-14.00,-13.00,-4.00,-7.00,-6.00,-2.00,-1.00,-1.00
+18.00,+19.00,-1.00,+1.00,+8.00,+1.00,-1.00,+4.00,+12.00,+5.00,+3.00,+2.00,+2.00,-1.00,-1.00,+1.00
+1.00,-27.00,+1.00,+3.00,-2.00,+1.00,+1.00,+4.00,-2.00,-1.00,-3.00,-5.00,-5.00,-3.00,+2.00,+7.00
-7.00,+26.00,-3.00,-2.00,+2.00,+0.00,-2.00,-13.00,+3.00,-1.00,+3.00,+5.00,+6.00,+0.00,-3.00,-6.00
-3.00,-24.00,-5.00,-3.00,-5.00,+0.00,+4.00,+22.00,-19.00,-10.00,-2.00,-10.00,-13.00,-2.00,+2.00,-7.00
-15.00,-21.00,+1.00,+2.00,+0.00,-4.00,-4.00,-16.00,+35.00,+24.00,+1.00,+0.00,+2.00,+2.00,-1.00,+4.00
+3.00,-18.00,-2.00,-3.00,+3.00,+1.00,-1.00,+3.00,-7.00,-7.00,-1.00,-1.00,-4.00,-1.00,-5.00,-10.00
+6.00,+35.00,+5.00,+3.00,+2.00,+1.00,+1.00,+3.00,+9.00,+8.00,-1.00,+0.00,+7.00,+0.00,+2.00,+17.00
-33.00,-22.00,-6.00,-4.00,-6.00,-4.00,-2.00,-9.00,-5.00,-7.00,+3.00,+10.00,+7.00,+2.00,-3.00,-3.00
+43.00,+14.00,+3.00,+1.00,+5.00,+2.00,+1.00,+10.00,-4.00,-16.00,-1.00,+3.00,-4.00,+2.00,+2.00,-14.00
-9.00,+2.00,-2.00,-1.00,-6.00,-4.00,-2.00,-6.00,+41.00,+20.00,-2.00,-8.00,-7.00,-3.00,+3.00,+27.00
-4.00,-11.00,+0.00,-1.00,-5.00,-3.00,+0.00,+19.00,-25.00,-2.00,-2.00,-10.00,-10.00,-4.00,-5.00,-14.00
-7.00,+4.00,+0.00,-4.00,+2.00,+0.00,-2.00,-6.00,-58.00,-22.00,-9.00,-4.00,+3.00,-1.00,-3.00,-20.00
-29.00,-15.00,-5.00,-1.00,+4.00,-1.00,-1.00,-1.00,+40.00,+17.00,+7.00,+9.00,+6.00,+1.00,+6.00,+31.00
+6.00,-30.00,-4.00,-3.00,-6.00,-2.00,-3.00,+19.00,+1.00,-1.00,-1.00,+9.00,+5.00,+1.00,-3.00,-7.00
+11.00,-6.00,+1.00,+1.00,-5.00,-1.00,+2.00,-9.00,+52.00,+12.00,+1.00,-9.00,-8.00,-2.00,+1.00,+26.00
+35.00,+50.00,+6.00,+5.00,+3.00,+2.00,-1.00,-2.00,-36.00,-5.00,-5.00,-4.00,+0.00,+1.00,-2.00,-30.00
-26.00,-10.00,-6.00,-2.00,-1.00,-2.00,-19.00,-6.00,+39.00,+7.00,-5.00,-6.00,-5.00,-7.00,-8.00,-5.00
-67.00,-5.00,+1.00,-2.00,-2.00,+3.00,+22.00,-18.00,-19.00,-2.00,+3.00,+7.00,+8.00,+3.00,+8.00,-26.00
+32.00,-21.00,-10.00,-7.00,-2.00,-2.00,+4.00,+19.00,-27.00,-3.00,-2.00,-10.00,-13.00,-8.00,-18.00,-39.00
-27.00,-20.00,-6.00,-6.00,-10.00,-7.00,-9.00,-19.00,-22.00,-20.00,-8.00,-2.00,-2.00,-1.00,+14.00,+77.00
+45.00,+29.00,+3.00,+1.00,+6.00,+1.00,+9.00,+24.00,-63.00,-9.00,+1.00,-2.00,-1.00,+0.00,+2.00,+18.00
-23.00,+12.00,-1.00,+1.00,+5.00,-2.00,-9.00,+18.00,+55.00,+18.00,+6.00,+14.00,+17.00,+6.00,+2.00,-4.00
-100.00,-48.00,-8.00,-2.00,-8.00,-3.00,-13.00,-65.00,-64.00,-13.00,-5.00,+2.00,-8.00,-2.00,-14.00,-74.00
-1.00,+41.00,+10.00,+5.00,-2.00,+0.00,+0.00,-24.00,+74.00,+12.00,+0.00,-10.00,-15.00,-47.00,-7.00,-19.00
+28.00,+18.00,+3.00,+2.00,+3.00,+0.00,-3.00,+42.00,-54.00,-29.00,-7.00,+5.00,+17.00,+62.00,+2.00,+41.00
+12.00,-23.00,-13.00,-12.00,-10.00,-3.00,-19.00,+5.00,+10.00,-8.00,-5.00,-14.00,-13.00,-1.00,-7.00,+23.00
-68.00,-19.00,-6.00,-4.00,-1.00,+2.00,+35.00,-43.00,+40.00,+12.00,+10.00,+8.00,+1.00,-13.00,+12.00,+88.00
-21.00,-23.00,-5.00,-3.00,+4.00,-30.00,-23.00,-33.00,-57.00,-8.00,-13.00,-14.00,-9.00,-8.00,-18.00,-72.00
-33.00,+4.00,+3.00,+4.00,+2.00,+22.00,+17.00,-4.00,+25.00,-6.00,-2.00,-5.00,-4.00,-26.00,+3.00,+7.00
+92.00,+43.00,+8.00,+7.00,-10.00,+8.00,+0.00,+3.00,-41.00,-5.00,-9.00,-4.00,+0.00,+0.00,-12.00,-27.00
+75.00,+34.00,+2.00,-2.00,+1.00,+5.00,-6.00,+52.00,-4.00,-6.00,-2.00,+3.00,+2.00,+8.00,+2.00,-8.00
-25.00,-27.00,-1.00,+0.00,-5.00,+8.00,+4.00,+5.00,+43.00,+19.00,+7.00,+7.00,+4.00,+4.00,+1.00,+29.00
-19.00,-40.00,-10.00,-7.00,-3.00,-17.00,-2.00,-22.00,+5.00,-13.00,-2.00,-2.00,-3.00,-9.00,-6.00,-25.00
-31.00,-11.00,-3.00,-1.00,+8.00,-5.00,-3.00,-29.00,+1.00,-1.00,+4.00,+11.00,+5.00,+5.00,-6.00,+18.00
+31.00,+7.00,+3.00,+3.00,+0.00,+1.00,-7.00,-8.00,-26.00,+2.00,+13.00,+6.00,+2.00,+4.00,+21.00,-1.00
-10.00,-24.00,+0.00,+0.00,+0.00,+0.00,+0.00,+1.00,+76.00,+13.00,-3.00,-5.00,-5.00,+5.00,-9.00,+0.00
-16.00,-42.00,-11.00,-7.00,-5.00,-8.00,-14.00,-40.00,-23.00,+5.00,-4.00,-8.00,-4.00,-1.00,-2.00,-39.00
+73.00,+81.00,+15.00,+6.00,+7.00,+7.00,+24.00,+50.00,+23.00,+1.00,+1.00,+1.00,+6.00,-9.00,+0.00,+26.00
+6.00,+5.00,-3.00,-3.00,-3.00,-9.00,-5.00,+18.00,-12.00,-16.00,-7.00,-4.00,-8.00,-15.00,-1.00,-14.00
+76.00,+2.00,+0.00,-1.00,-2.00,+1.00,+5.00,+1.00,-10.00,+8.00,+6.00,+7.00,+9.00,+19.00,+8.00,-8.00
+27.00,-5.00,+0.00,-2.00,-6.00,+0.00,-2.00,+27.00,+7.00,-3.00,+0.00,+0.00,+2.00,+18.00,-11.00,+23.00
-43.00,-63.00,-11.00,-8.00,-3.00,+1.00,-11.00,-36.00,-29.00,-24.00,-1.00,-6.00,-3.00,-3.00,+2.00,-4.00
+20.00,-14.00,+5.00,+4.00,+0.00,-6.00,+7.00,+7.00,+13.00,+9.00,+1.00,+6.00,+8.00,+16.00,+6.00,+30.00
-88.00,+25.00,+0.00,-3.00,-2.00,+5.00,-2.00,-32.00,-43.00,-12.00,+4.00,+1.00,-1.00,-3.00,+8.00,+7.00
+19.00,+63.00,+6.00,+1.00,-7.00,-5.00,-6.00,+10.00,+92.00,+45.00,+3.00,+0.00,-4.00,-23.00,+1.00,-18.00
+57.00,-42.00,-1.00,+3.00,+6.00,-5.00,+4.00,+21.00,-46.00,-8.00,-15.00,-10.00,-7.00,+1.00,-3.00,-24.00
+34.00,+44.00,-2.00,-1.00,-3.00,-4.00,-15.00,+19.00,-48.00,-17.00,-8.00,-6.00,-1.00,-4.00,+0.00,-11.00
-7.00,-58.00,-2.00,+4.00,-4.00,+3.00,+12.00,+6.00,-57.00,-23.00,-2.00,-2.00,-2.00,-3.00,-10.00,-18.00
-14.00,-50.00,-5.00,-9.00,-2.00,-3.00,+1.00,+23.00,-26.00,-16.00,-3.00,+0.00,-2.00,-7.00,+12.00,+44.00
-20.00,+10.00,-2.00,-2.00,-6.00,-6.00,-3.00,-21.00,+22.00,+28.00,+9.00,+2.00,-2.00,+0.00,-5.00,-35.00
-34.00,+44.00,+3.00,-2.00,+3.00,+4.00,+0.00,-11.00,+102.00,+20.00,-3.00,+0.00,-2.00,-5.00,+3.00,+94.00
+44.00,+46.00,+10.00,+6.00,-5.00,-1.00,-26.00,+26.00,-47.00,-4.00,-7.00,-7.00,-9.00,+1.00,-2.00,-56.00
-80.00,-93.00,-20.00,-4.00,+0.00,+0.00,+23.00,-18.00,-8.00,-13.00,-4.00,-1.00,+11.00,-1.00,-5.00,-60.00
+33.00,+76.00,+29.00,+14.00,+11.00,-1.00,+0.00,-1.00,-23.00,-17.00,-8.00,-14.00,-26.00,-9.00,+8.00,+28.00
-28.00,-42.00,-9.00,-5.00,-1.00,+1.00,-6.00,-35.00,+0.00,+1.00,-4.00,-4.00,+1.00,-1.00,-11.00,-22.00
+52.00,-11.00,+4.00,+2.00,-5.00,-1.00,+4.00,+81.00,+14.00,+0.00,+5.00,+7.00,+12.00,+13.00,+10.00,+40.00
+56.00,+9.00,+0.00,-5.00,+14.00,+0.00,-11.00,-39.00,-8.00,-6.00,+1.00,-4.00,-12.00,-12.00,-15.00,-11.00
+1.00,-55.00,-13.00,-6.00,-7.00,+0.00,-3.00,-22.00,-6.00,-12.00,-2.00,+5.00,+8.00,-3.00,+9.00,-4.00
-32.00,-1.00,+4.00,+2.00,+0.00,-2.00,-15.00,-19.00,-39.00,+13.00,+5.00,-1.00,+2.00,-1.00,-1.00,-25.00
+32.00,+43.00,+1.00,+0.00,+2.00,+3.00,+23.00,+57.00,+83.00,+25.00,-2.00,+5.00,-1.00,-33.00,-8.00,-7.00
-85.00,-25.00,-1.00,+1.00,-5.00,+1.00,+4.00,-16.00,-27.00,+7.00,-2.00,-5.00,+5.00,+32.00,+6.00,+0.00
-81.00,+9.00,-4.00,-1.00,+2.00,-2.00,-20.00,-19.00,+14.00,-6.00,-2.00,+0.00,+2.00,+9.00,-6.00,+28.00
+42.00,+20.00,+11.00,+7.00,+6.00,+11.00,+35.00,+28.00,-51.00,-19.00,-3.00,-6.00,-9.00,+3.00,-1.00,-63.00
-6.00,-55.00,-15.00,-8.00,-9.00,-6.00,-2.00,-14.00,+1.00,+2.00,-2.00,-3.00,-1.00,+6.00,+1.00,+16.00
-54.00,+52.00,+8.00,+3.00,+4.00,-3.00,-7.00,-20.00,-8.00,-6.00,-1.00,-3.00,-5.00,-31.00,-5.00,+19.00
+36.00,+18.00,+2.00,+3.00,+4.00,-1.00,+5.00,+45.00,+33.00,+25.00,+2.00,+0.00,-1.00,+1.00,+6.00,-15.00
-51.00,-62.00,-6.00,-1.00,-4.00,+2.00,-11.00,-2.00,-26.00,-17.00,-2.00,+7.00,+9.00,+8.00,-11.00,-33.00
+28.00,+43.00,+4.00,-1.00,+4.00,+6.00,+4.00,-57.00,+30.00,+9.00,+0.00,-8.00,-2.00,-1.00,+1.00,+54.00
+30.00,+11.00,+4.00,+0.00,-3.00,-3.00,+4.00,-11.00,+3.00,+0.00,+5.00,+13.00,+4.00,-5.00,-12.00,-80.00
-8.00,-1.00,-1.00,+0.00,+0.00,+1.00,-3.00,+1.00,-48.00,-11.00,-3.00,-5.00,-2.00,+1.00,+1.00,+19.00
-8.00,-18.00,-5.00,-5.00,-5.00,-4.00,-6.00,+1.00,+46.00,+6.00,-5.00,-6.00,-6.00,-6.00,-1.00,+6.00
-8.00,+6.00,+2.00,+1.00,+2.00,+4.00,+7.00,+20.00,+27.00,+12.00,+6.00,+3.00,+4.00,+15.00,-10.00,-8.00
-5.00,-3.00,+1.00,-1.00,-5.00,-4.00,-15.00,-19.00,-53.00,-9.00,+0.00,+2.00,+2.00,-6.00,+1.00,+5.00
+35.00,-29.00,-15.00,-13.00,-8.00,-3.00,-15.00,-6.00,+16.00,-4.00,-1.00,-7.00,-15.00,-51.00,-6.00,-16.00
+54.00,+73.00,+7.00,+1.00,-11.00,-3.00,+1.00,+11.00,+1.00,+4.00,-9.00,-10.00,-3.00,+46.00,-5.00,-12.00
-12.00,-13.00,-3.00,+0.00,+10.00,+1.00,-22.00,-14.00,-33.00,-26.00,-5.00,-1.00,+0.00,+4.00,-5.00,-18.00
+16.00,+35.00,+9.00,+8.00,+5.00,+3.00,+21.00,-4.00,+39.00,+9.00,+9.00,+6.00,+9.00,+7.00,-3.00,+2.00
-101.00,-54.00,-15.00,-7.00,-8.00,-7.00,-15.00,-27.00,-51.00,-6.00,-3.00,-1.00,-3.00,+3.00,+10.00,+27.00
+31.00,-7.00,+0.00,+3.00,+4.00,+7.00,+1.00,+11.00,+14.00,-4.00,+1.00,+2.00,-6.00,-27.00,-9.00,+5.00
-37.00,-25.00,+4.00,+3.00,+8.00,+3.00,+11.00,+32.00,-21.00,-27.00,-4.00,-1.00,-4.00,-7.00,+10.00,+2.00
+54.00,+31.00,+4.00,-1.00,-4.00,-26.00,-55.00,+20.00,+60.00,+23.00,-1.00,+1.00,+1.00,-14.00,+4.00,+36.00
-3.00,-11.00,+1.00,+5.00,+5.00,+21.00,+36.00,-3.00,+4.00,+9.00,+6.00,+1.00,+8.00,+4.00,-8.00,-39.00
-37.00,+2.00,-11.00,-14.00,-11.00,-8.00,+6.00,-18.00,+7.00,-14.00,-3.00,+1.00,+1.00,-3.00,+2.00,+47.00
-41.00,-47.00,-9.00,-1.00,+1.00,+6.00,+3.00,-45.00,-55.00,+15.00,+5.00,+4.00,-4.00,-1.00,-8.00,-28.00
+59.00,+34.00,+5.00,+1.00,-9.00,-1.00,+1.00,+44.00,+34.00,+13.00,+0.00,-6.00,-11.00,+1.00,+12.00,+13.00
+16.00,+9.00,-1.00,-3.00,-6.00,-9.00,-24.00,-7.00,+8.00,-13.00,-18.00,-20.00,-9.00,+40.00,+8.00,+22.00
+22.00,-27.00,+0.00,+4.00,+16.00,-9.00,+14.00,+13.00,-35.00,-12.00,+3.00,+10.00,+20.00,+32.00,+8.00,-22.00
+26.00,+66.00,+17.00,+8.00,+12.00,+25.00,+10.00,+68.00,+32.00,+4.00,-9.00,+2.00,+1.00,-20.00,-7.00,+10.00
-74.00,-67.00,-13.00,-9.00,-9.00,-5.00,-26.00,-38.00,-23.00,-4.00,-1.00,-6.00,-12.00,-26.00,-2.00,-7.00
+45.00,+55.00,+12.00,+9.00,-2.00,-17.00,+11.00,+9.00,+16.00,+10.00,+8.00,+6.00,-1.00,-15.00,+14.00,+13.00
-5.00,-12.00,-11.00,-8.00,+6.00,+16.00,-9.00,-23.00,-26.00,+1.00,-7.00,-10.00,-2.00,+7.00,-32.00,-12.00
+9.00,+2.00,-3.00,-4.00,-10.00,-13.00,-5.00,+9.00,-30.00,-7.00,-7.00,-1.00,+3.00,-2.00,+3.00,-1.00
+26.00,-5.00,+5.00,+7.00,+4.00,+12.00,+15.00,+18.00,-38.00,-13.00,-4.00,-7.00,-6.00,+3.00,-10.00,+4.00
-82.00,-38.00,-11.00,-9.00,-6.00,-7.00,-16.00,-37.00,+21.00,+5.00,+2.00,+3.00,-2.00,-26.00,-3.00,-9.00
+47.00,+29.00,+20.00,+12.00,+5.00,-9.00,-3.00,+35.00,+3.00,-4.00,+4.00,+9.00,+12.00,+39.00,+21.00,+22.00
+6.00,-25.00,-10.00,-6.00,-4.00,-6.00,-2.00,-24.00,-45.00,-23.00,-7.00,-6.00,-1.00,+15.00,-13.00,-9.00
-15.00,+4.00,-5.00,-4.00,+1.00,+9.00,+10.00,-24.00,+64.00,+21.00,+0.00,+1.00,+8.00,+11.00,+9.00,+18.00
-21.00,-30.00,-5.00,+1.00,+0.00,-10.00,-7.00,+20.00,+31.00,+6.00,+4.00,+7.00,+0.00,-20.00,-3.00,+29.00
-27.00,-14.00,-9.00,-11.00,-15.00,-9.00,-28.00,-30.00,-11.00,-6.00,-6.00,-6.00,-10.00,-20.00,-32.00,-37.00
+2.00,+34.00,-3.00,+0.00,-6.00,-10.00,+16.00,+1.00,+57.00,+24.00,+9.00,-3.00,+7.00,+17.00,-3.00,+14.00
+70.00,+26.00,+8.00,+6.00,+11.00,+17.00,+40.00,+90.00,-25.00,-17.00,-3.00,-1.00,-10.00,-6.00,-3.00,-14.00
-31.00,-40.00,-5.00,-11.00,-7.00,+2.00,-30.00,+15.00,+10.00,+2.00,-3.00,-5.00,-3.00,-6.00,+17.00,-5.00
+19.00,+4.00,+0.00,+2.00,+13.00,+9.00,+19.00,+17.00,+17.00,+10.00,+3.00,-3.00,-4.00,-24.00,+0.00,+34.00
-71.00,-59.00,-5.00,-2.00,-10.00,+0.00,+4.00,-26.00,+47.00,+0.00,+3.00,+4.00,-7.00,-21.00,+7.00,+15.00
-53.00,+46.00,+0.00,-3.00,+3.00,-10.00,+8.00,-46.00,-45.00,-11.00,-4.00,-6.00,+1.00,+61.00,-9.00,-31.00
+97.00,+13.00,+4.00,+2.00,-6.00,+9.00,+18.00,+33.00,-16.00,+3.00,+3.00,+3.00,+12.00,+15.00,-20.00,-37.00
-18.00,+12.00,+7.00,+12.00,+13.00,+8.00,-24.00,-3.00,+87.00,+23.00,+1.00,-3.00,-8.00,-20.00,+8.00,+10.00
+6.00,-13.00,-9.00,-6.00,-7.00,-21.00,-6.00,-67.00,-36.00,-23.00,+4.00,+8.00,+10.00,+14.00,-4.00,-31.00
+29.00,+16.00,-5.00,-3.00,+1.00,+9.00,+12.00,+43.00,+18.00,-7.00,-4.00,-3.00,-6.00,-30.00,+7.00,+32.00
-45.00,-28.00,+0.00,+1.00,+4.00,+1.00,+8.00,-19.00,-56.00,+2.00,-2.00,-1.00,-1.00,+11.00,+15.00,-9.00
+13.00,-11.00,+2.00,+3.00,-2.00,+1.00,-8.00,-5.00,+16.00,+3.00,-4.00,-3.00,+2.00,+14.00,-1.00,-22.00
+28.00,-11.00,+3.00,+5.00,+0.00,+4.00,-3.00,+99.00,-41.00,-12.00,-9.00,-14.00,-5.00,-19.00,+4.00,+26.00
+41.00,+51.00,+5.00,+0.00,-4.00,-3.00,-17.00,-4.00,+43.00,+8.00,-2.00,-4.00,-4.00,-11.00,-16.00,-1.00
-25.00,+2.00,+3.00,+1.00,-1.00,-1.00,+9.00,+4.00,-19.00,-20.00,-5.00,-3.00,+0.00,+16.00,-8.00,-6.00
-15.00,-47.00,-10.00,-6.00,-3.00,-7.00,+3.00,-22.00,-29.00,-1.00,+5.00,+11.00,+10.00,-26.00,+5.00,-31.00
+34.00,+22.00,+8.00,+1.00,+6.00,+6.00,-2.00,+12.00,+19.00,+10.00,+2.00,+0.00,-11.00,+15.00,+7.00,+25.00
+56.00,+32.00,+1.00,+2.00,-4.00,+3.00,+18.00,+14.00,-40.00,-8.00,+3.00,+1.00,-3.00,-20.00,-2.00,-2.00
-23.00,+17.00,+1.00,+1.00,-2.00,-16.00,-34.00,+13.00,-3.00,-34.00,-1.00,+3.00,+14.00,+12.00,-13.00,-8.00
+18.00,+18.00,+1.00,+3.00,+10.00,+16.00,+19.00,+3.00,+16.00,+33.00,+3.00,-8.00,-15.00,-25.00,-1.00,-3.00
-22.00,-8.00,-7.00,-6.00,+0.00,-4.00,-24.00,-31.00,-49.00,-15.00,-2.00,+12.00,+0.00,-43.00,-12.00,-36.00
-43.00,-48.00,-5.00,-2.00,-3.00,+0.00,-2.00,-30.00,-31.00,-1.00,-15.00,-27.00,-10.00,+58.00,+7.00,-47.00
+20.00,+0.00,-7.00,-3.00,-11.00,+1.00,+5.00,-16.00,-3.00,-16.00,+2.00,-1.00,-6.00,-30.00,-16.00,-2.00
-4.00,+36.00,+11.00,+2.00,+6.00,-9.00,-11.00,+22.00,+33.00,-3.00,-4.00,+0.00,+3.00,+23.00,+26.00,+27.00
-3.00,-9.00,-6.00,-4.00,+7.00,+5.00,+20.00,+20.00,-9.00,-1.00,-2.00,+3.00,+5.00,+1.00,+1.00,-12.00
-10.00,+8.00,+1.00,+1.00,-3.00,+9.00,-7.00,-39.00,-51.00,-10.00,+3.00,+11.00,+3.00,-22.00,-3.00,-9.00
-14.00,+7.00,+2.00,+0.00,-5.00,-2.00,+6.00,+3.00,+49.00,+36.00,+0.00,-4.00,-5.00,-9.00,+2.00,+21.00
-85.00,-34.00,-6.00,-3.00,-8.00,-10.00,-4.00,-64.00,-27.00,-15.00,-7.00,-12.00,-9.00,-11.00,-13.00,-11.00
+54.00,+34.00,+1.00,+1.00,-2.00,+3.00,+3.00,+1.00,-11.00,+12.00,-1.00,+3.00,+7.00,+20.00,+9.00,+38.00
-33.00,-32.00,-4.00,-6.00,+2.00,-6.00,+5.00,+2.00,+57.00,+3.00,+1.00,+7.00,+12.00,-14.00,+8.00,-9.00
-11.00,-16.00,-8.00,-4.00,+2.00,-1.00,+12.00,-16.00,-18.00,-19.00,-5.00,-12.00,-16.00,+17.00,-5.00,-16.00
-11.00,-6.00,+13.00,+6.00,-16.00,-6.00,+4.00,+10.00,-17.00,+1.00,+4.00,+0.00,-1.00,-3.00,-1.00,+22.00
-2.00,-57.00,-13.00,-15.00,+3.00,-1.00,-13.00,-19.00,+30.00,-20.00,-4.00,-13.00,-7.00,+3.00,+0.00,-1.00
+57.00,+42.00,+4.00,+3.00,+13.00,+5.00,-4.00,+29.00,-39.00,+18.00,+4.00,+7.00,+8.00,+5.00,+6.00,+11.00
-3.00,+24.00,+1.00,-1.00,+0.00,+0.00,-7.00,-82.00,+51.00,+7.00,+5.00,+7.00,+7.00,-4.00,-7.00,+4.00
-10.00,-37.00,-10.00,-7.00,-7.00,-6.00,-3.00,+35.00,-68.00,-54.00,-16.00,-8.00,-7.00,-4.00,-1.00,+2.00
-60.00,-15.00,-5.00,-2.00,-16.00,-11.00,-10.00,-48.00,+74.00,+32.00,+10.00,+8.00,+4.00,+1.00,+2.00,+8.00
-28.00,-55.00,-3.00,+3.00,-2.00,-7.00,-9.00,+29.00,-77.00,-29.00,-4.00,+3.00,+4.00,-6.00,-3.00,-1.00
+75.00,+33.00,+4.00,-4.00,+2.00,+14.00,+30.00,+63.00,-9.00,+1.00,-2.00,-2.00,-9.00,+6.00,+3.00,+14.00
-15.00,+2.00,+1.00,+5.00,+7.00,+0.00,-10.00,+73.00,-16.00,-9.00,-2.00,-5.00,-4.00,-7.00,+13.00,-21.00
+27.00,+29.00,+0.00,-1.00,-4.00,+0.00,+6.00,-12.00,-2.00,-10.00,-5.00,-9.00,-6.00,-14.00,-7.00,+12.00
+33.00,+46.00,+5.00,+0.00,-6.00,-7.00,-8.00,+12.00,-30.00,-2.00,+5.00,+11.00,+9.00,+45.00,-14.00,-40.00
-30.00,-17.00,-11.00,-7.00,-4.00,-4.00,-18.00,-14.00,-11.00,-1.00,+4.00,+6.00,+12.00,+6.00,+0.00,+15.00
+3.00,+39.00,+1.00,-4.00,-8.00,+11.00,+20.00,-28.00,+27.00,+20.00,-1.00,-5.00,-11.00,-3.00,+1.00,-6.00
+31.00,-7.00,+0.00,+0.00,+0.00,-19.00,-4.00,+25.00,-4.00,-2.00,-6.00,-17.00,-15.00,+10.00,+8.00,+41.00
-44.00,-33.00,+0.00,+0.00,-9.00,-5.00,+0.00,+20.00,+14.00,-6.00,+4.00,+4.00,-2.00,-29.00,-2.00,+4.00
-53.00,+0.00,-4.00,+2.00,+13.00,-7.00,-15.00,-2.00,-21.00,+7.00,-7.00,-3.00,+3.00,-2.00,+10.00,+13.00
+30.00,+97.00,+12.00,+0.00,-3.00,+3.00,+7.00,-1.00,+25.00,+9.00,+5.00,+6.00,+10.00,+9.00,-8.00,+15.00
+24.00,-18.00,+4.00,+5.00,+4.00,+7.00,+0.00,+45.00,-48.00,-3.00,+1.00,+6.00,+2.00,+0.00,+5.00,-59.00
-21.00,-26.00,-9.00,-12.00,-19.00,-5.00,+3.00,-28.00,+64.00,+2.00,-6.00,-13.00,-15.00,-17.00,-3.00,+27.00
-40.00,-36.00,-1.00,+1.00,-5.00,-4.00,-3.00,+24.00,+35.00,+22.00,+8.00,+6.00,+6.00,+6.00,-5.00,-9.00
-24.00,-19.00,-6.00,-3.00,-1.00,+5.00,+13.00,-11.00,-15.00,-8.00,-4.00,+0.00,+3.00,-15.00,-8.00,-34.00
-10.00,+33.00,+8.00,+2.00,+4.00,+1.00,-8.00,-10.00,+4.00,+13.00,+0.00,-4.00,-10.00,+7.00,-2.00,+19.00
+33.00,-31.00,-5.00,+1.00,-2.00,-6.00,-10.00,+29.00,-13.00,+0.00,+0.00,-2.00,-1.00,-7.00,-1.00,-1.00
+34.00,+28.00,+4.00,+0.00,-4.00,+0.00,-22.00,-5.00,+15.00,-29.00,-6.00,+1.00,-1.00,+5.00,+8.00,+25.00
-4.00,-27.00,-12.00,-6.00,+1.00,-13.00,-4.00,-10.00,+3.00,+31.00,+11.00,+13.00,+10.00,+2.00,+3.00,+8.00
-12.00,-11.00,+1.00,+0.00,-3.00,+1.00,-10.00,+43.00,-16.00,-16.00,+1.00,+2.00,-2.00,+5.00,-3.00,-25.00
-6.00,+14.00,-1.00,-2.00,+3.00,+0.00,+5.00,-19.00,+22.00,+0.00,-1.00,-1.00,+2.00,+2.00,+6.00,+40.00
-5.00,-14.00,-4.00,+1.00,+8.00,+9.00,+7.00,-21.00,-27.00,-3.00,+2.00,-3.00,-1.00,-6.00,-7.00,-19.00
+8.00,+13.00,+4.00,+2.00,+4.00,+1.00,-8.00,+1.00,+93.00,+21.00,+5.00,+2.00,-3.00,-2.00,+0.00,+50.00
-40.00,-25.00,-2.00,-1.00,-8.00,-2.00,+1.00,-34.00,-28.00,-16.00,-1.00,+4.00,+6.00,+7.00,-2.00,-49.00
+4.00,+28.00,-14.00,-12.00,+2.00,+2.00,-9.00,+24.00,-57.00,-33.00,-5.00,-5.00,-8.00,-9.00,-8.00,-1.00
+25.00,-46.00,+1.00,+1.00,-10.00,-6.00,+1.00,+10.00,+50.00,+37.00,+5.00,+0.00,-6.00,+1.00,+1.00,-7.00
+30.00,+22.00,+6.00,+3.00,+9.00,+2.00,-26.00,+14.00,-49.00,-2.00,+2.00,+1.00,+1.00,-1.00,-8.00,-49.00
+7.00,+42.00,+2.00,+2.00,+5.00,+1.00,+26.00,-21.00,+34.00,+10.00,+0.00,+0.00,+2.00,+0.00,+2.00,+23.00
-63.00,-35.00,+1.00,+5.00,+1.00,-1.00,+6.00,-17.00,+7.00,-1.00,-7.00,-11.00,-5.00,-7.00,-5.00,-26.00
+64.00,-9.00,-4.00,-4.00,-5.00,-1.00,+10.00,+24.00,-52.00,-21.00,+0.00,+5.00,+5.00,-1.00,+0.00,+14.00
+2.00,+24.00,-3.00,-3.00,-3.00,-6.00,-6.00,-14.00,+21.00,-2.00,-5.00,-1.00,-5.00,+2.00,-4.00,-27.00
-32.00,+2.00,-6.00,-5.00,-5.00,+2.00,-10.00,-5.00,+3.00,+14.00,-3.00,-9.00,-4.00,-3.00,-3.00,-10.00
-6.00,-1.00,+7.00,+6.00,+5.00,-4.00,-20.00,-95.00,+8.00,+3.00,-1.00,+0.00,+0.00,-1.00,-2.00,-4.00
-26.00,-8.00,+0.00,+1.00,+1.00,+5.00,+44.00,-3.00,-42.00,-26.00,-4.00,-2.00,-2.00,-1.00,-7.00,-26.00
+31.00,-81.00,-8.00,-3.00,-8.00,-9.00,+0.00,-4.00,+20.00,-15.00,-1.00,+3.00,+1.00,-3.00,+0.00,+11.00
+10.00,+78.00,+18.00,+5.00,+4.00,+5.00,+0.00,-15.00,+8.00,+19.00,+2.00,-7.00,-4.00,+3.00,+5.00,+33.00
+15.00,-16.00,-5.00,-4.00,-2.00,-3.00,+5.00,-18.00,-1.00,+5.00,+0.00,+3.00,+1.00,+0.00,-3.00,-2.00
-34.00,+6.00,+0.00,+0.00,-2.00,-1.00,-10.00,-3.00,+1.00,+10.00,+3.00,+3.00,+5.00,-1.00,-6.00,-23.00
+59.00,+17.00,-3.00,-1.00,-5.00,-2.00,+4.00,+3.00,+17.00,-4.00,+4.00,+3.00,-9.00,+4.00,+13.00,+27.00
-31.00,-32.00,-13.00,-9.00,-6.00,-4.00,-2.00,-19.00,-11.00,+1.00,-5.00,-15.00,-11.00,-6.00,-14.00,-2.00
-9.00,-8.00,-2.00,-2.00,-7.00,-3.00,-9.00,+15.00,-17.00,-18.00,-4.00,+1.00,+2.00,+5.00,+10.00,+24.00
-10.00,+10.00,+7.00,+5.00,+22.00,+11.00,-19.00,-14.00,+17.00,-4.00,+0.00,-5.00,-6.00,-4.00,-2.00,+12.00
+33.00,-3.00,-5.00,-4.00,-11.00,-8.00,+17.00,+14.00,-39.00,+0.00,-4.00,+2.00,+8.00,+1.00,-1.00,-4.00
-20.00,-60.00,-5.00,-1.00,+3.00,+2.00,-6.00,+11.00,+52.00,+6.00,+2.00,+5.00,+3.00,-1.00,-1.00,+8.00
+36.00,+89.00,+8.00,+1.00,+6.00,+1.00,+2.00,+22.00,+39.00,+16.00,-1.00,-6.00,-7.00,-6.00,+1.00,-7.00
+25.00,+33.00,+0.00,+0.00,-5.00,-4.00,-4.00,-3.00,-20.00,-15.00,-9.00,-3.00,+1.00,-4.00,-2.00,+17.00
-71.00,-59.00,-5.00,-1.00,-1.00,+2.00,-2.00,-14.00,-58.00,-23.00,-4.00,-5.00,-1.00,-8.00,-9.00,-44.00
+26.00,+25.00,+3.00,+2.00,+0.00,+1.00,-18.00,+60.00,-8.00,+11.00,+7.00,+8.00,-1.00,+1.00,+3.00,+16.00
-9.00,-32.00,-3.00,-1.00,+1.00,+3.00,+30.00,-26.00,-4.00,-30.00,-5.00,-8.00,-6.00,-5.00,-4.00,+41.00
+3.00,+37.00,+3.00,-2.00,-4.00,-3.00,+7.00,+15.00,+82.00,+29.00,+1.00,-5.00,-5.00,-1.00,-3.00,-24.00
-25.00,-34.00,-5.00,+5.00,+7.00,+3.00,-7.00,+0.00,-18.00,-11.00,-11.00,-5.00,+0.00,-2.00,-6.00,+8.00
+61.00,+37.00,+5.00,-2.00,-3.00,-3.00,-2.00,-8.00,-41.00,-3.00,+0.00,+2.00,+5.00,+1.00,+6.00,-13.00
-19.00,+19.00,+6.00,+3.00,+2.00,+0.00,-8.00,-37.00,+14.00,+14.00,+6.00,+7.00,+5.00,-2.00,-1.00,-4.00
-13.00,-42.00,-11.00,-9.00,-1.00,+2.00,+1.00,+43.00,-58.00,-10.00,+0.00,+1.00,-1.00,+1.00,-1.00,+8.00
+26.00,+85.00,+4.00,-2.00,-4.00,-3.00,-4.00,-33.00,+100.00,+20.00,+0.00,-2.00,-5.00,+5.00,+18.00,+49.00
-44.00,-24.00,-5.00,-1.00,+2.00,+1.00,+6.00,-18.00,-30.00,-26.00,-5.00,+1.00,+7.00,-3.00,-11.00,-70.00
+7.00,-34.00,+1.00,+2.00,-1.00,+1.00,-10.00,+28.00,+9.00,+1.00,-4.00,-5.00,-3.00,-3.00,-2.00,-3.00
-83.00,-30.00,+0.00,-1.00,+2.00,+3.00,+16.00,-49.00,-8.00,+11.00,-1.00,-3.00,-4.00,+0.00,+6.00,-1.00
+41.00,+5.00,+4.00,-1.00,+1.00,-2.00,-3.00,+43.00,-26.00,-11.00,+0.00,-2.00,+0.00,-1.00,-8.00,-3.00
+18.00,-19.00,-2.00,-1.00,+4.00,-1.00,+3.00,+11.00,+6.00,-8.00,-3.00,-1.00,+1.00,-2.00,-1.00,+15.00
+12.00,+7.00,+1.00,+3.00,-1.00,+0.00,-8.00,-12.00,+14.00,-9.00,-4.00,+0.00,+2.00,+0.00,-1.00,+1.00
+3.00,+13.00,+1.00,-3.00,-9.00,-2.00,+13.00,-9.00,-3.00,+21.00,+2.00,-13.00,-17.00,-6.00,-7.00,-28.00
-21.00,-24.00,-6.00,-5.00,-7.00,-5.00,-10.00,-4.00,-36.00,-19.00,-2.00,-2.00,+1.00,+1.00,-1.00,+5.00
-13.00,+0.00,-5.00,+1.00,+9.00,+1.00,+4.00,-14.00,+6.00,-3.00,+0.00,+1.00,+0.00,-2.00,+0.00,+17.00
-21.00,-65.00,+0.00,+2.00,+2.00,-2.00,-21.00,+21.00,-8.00,+6.00,+2.00,+1.00,+3.00,-2.00,-2.00,-11.00
+52.00,+41.00,+7.00,+5.00,+0.00,-5.00,-4.00,+11.00,-31.00,-23.00,-6.00,+3.00,+4.00,-2.00,-4.00,-6.00
-24.00,+22.00,+2.00,-1.00,-2.00,+0.00,+0.00,-22.00,+28.00,+16.00,+0.00,-5.00,-6.00,-4.00,-5.00,-10.00
+6.00,+5.00,-1.00,-1.00,-7.00,-2.00,+2.00,-9.00,-19.00,-16.00,-2.00,+1.00,+1.00,+2.00,-4.00,-11.00
+2.00,-33.00,-3.00,+0.00,+3.00,+1.00,-3.00,+17.00,+23.00,+22.00,-6.00,-3.00,-1.00,-1.00,-4.00,-23.00
-25.00,-45.00,-5.00,-4.00,+0.00,-1.00,-7.00,-26.00,-8.00,+1.00,+3.00,+2.00,+0.00,+2.00,+3.00,+1.00
+7.00,+24.00,+4.00,+5.00,+6.00,+2.00,-1.00,+0.00,-41.00,-17.00,-1.00,-1.00,+1.00,-2.00,-2.00,-1.00
-46.00,-11.00,-10.00,-11.00,-12.00,-2.00,-7.00,-14.00,+10.00,+7.00,+1.00,+0.00,+3.00,+0.00,-6.00,-2.00
+45.00,+40.00,+4.00,-2.00,+1.00,+2.00,+9.00,+8.00,-59.00,-23.00,-9.00,-7.00,-6.00,-2.00,-2.00,-2.00
-8.00,-13.00,+1.00,+5.00,-1.00,-3.00,-4.00,+4.00,+103.00,+37.00,+4.00,+5.00,+7.00,+2.00,+3.00,+16.00
-29.00,-7.00,+0.00,+2.00,-2.00,-5.00,+4.00,-9.00,-31.00,-13.00,-5.00,-3.00,-4.00,-1.00,-2.00,-7.00
+20.00,+5.00,-5.00,-4.00,-5.00,-1.00,-8.00,-9.00,+27.00,+7.00,-2.00,-4.00,-5.00,-1.00,-1.00,+8.00
-70.00,-1.00,-3.00,-3.00,-6.00,-2.00,+6.00,-21.00,-24.00,-5.00,-2.00,+1.00,+1.00,+0.00,+1.00,-12.00
+30.00,+8.00,+2.00,+0.00,+5.00,+1.00,+1.00,-2.00,-15.00,-17.00,-4.00,-2.00,-1.00,-4.00,-10.00,-3.00
+7.00,-22.00,+1.00,+1.00,+2.00,+1.00,-6.00,+13.00,+1.00,-10.00,-1.00,+0.00,-1.00,+0.00,+2.00,+15.00
+4.00,+8.00,-4.00,-3.00,-4.00,-2.00,+2.00,-2.00,+23.00,+11.00,-2.00,+0.00,+0.00,-3.00,-2.00,-2.00
-19.00,-19.00,-1.00,-1.00,+4.00,+2.00,+6.00,+8.00,+11.00,+5.00,+2.00,-3.00,-2.00,-2.00,-2.00,-16.00
+2.00,-34.00,-7.00,-1.00,-2.00,-5.00,-11.00,-4.00,-24.00,-12.00,-6.00,+0.00,+0.00,-1.00,+3.00,+13.00
-5.00,+49.00,+1.00,-3.00,-3.00,+0.00,+1.00,-12.00,+23.00,+21.00,+5.00,+1.00,-1.00,-2.00,-3.00,+2.00
-13.00,-23.00,-1.00,+2.00,+1.00,-3.00,-3.00,-17.00,+5.00,-3.00,-2.00,+2.00,+0.00,+1.00,+0.00,-1.00
+27.00,+76.00,+10.00,+5.00,+3.00,+2.00,+9.00,+17.00,-11.00,+2.00,+2.00,-1.00,+1.00,+0.00,+0.00,+5.00
-1.00,+23.00,+2.00,+4.00,+0.00,-1.00,-4.00,-5.00,+6.00,+4.00,+5.00,+1.00,+2.00,+1.00,+1.00,-5.00
+9.00,-30.00,-6.00,-5.00,-1.00,-1.00,+0.00,+5.00,-18.00,-34.00,-14.00,-7.00,-4.00,-4.00,-5.00,-12.00
-17.00,-19.00,-6.00,-5.00,-6.00,-4.00,+1.00,-2.00,+10.00,+25.00,+4.00,-1.00,+0.00,+2.00,+3.00,+7.00
+11.00,+3.00,-3.00,-5.00,-4.00,-2.00,-6.00,-5.00,+2.00,+30.00,+9.00,+1.00,-4.00,-3.00,+2.00,+4.00
+21.00,+20.00,+6.00,-2.00,-5.00,+0.00,+2.00,+17.00,+13.00,-6.00,-2.00,-4.00,-5.00,-3.00,-3.00,-2.00
-14.00,-19.00,-7.00,-2.00,+0.00,+2.00,+1.00,-6.00,-27.00,+7.00,-16.00,-11.00,-3.00,-1.00,-4.00,-7.00
-2.00,+6.00,+1.00,-1.00,-1.00,-3.00,-1.00,-4.00,+9.00,+11.00,+5.00,+2.00,+1.00,+0.00,-2.00,+0.00
+1.00,-25.00,+0.00,-2.00,+0.00,-4.00,-4.00,-5.00,+7.00,-20.00,-5.00,+1.00,+1.00,-1.00,+2.00,+12.00
+21.00,+11.00,-13.00,-13.00,-12.00,-2.00,+0.00,+3.00,-20.00,-6.00,+1.00,-1.00,-1.00,-2.00,-2.00,-6.00
-10.00,-5.00,+6.00,+3.00,+1.00,+1.00,+3.00,+2.00,+26.00,+15.00,+2.00,-1.00,+1.00,+0.00,-1.00,+0.00
+0.00,+7.00,+8.00,+5.00,+2.00,-2.00,-4.00,-5.00,-11.00,-32.00,-1.00,+4.00,+4.00,+4.00,+4.00,+14.00
+21.00,+5.00,-1.00,+0.00,+3.00,+0.00,+1.00,+5.00,+2.00,+10.00,+4.00,+0.00,-2.00,+1.00,+0.00,-13.00
-16.00,-8.00,-1.00,+2.00,-2.00,-5.00,-5.00,-1.00,-14.00,-22.00,-7.00,-2.00,-2.00,-1.00,-5.00,-12.00
-25.00,+17.00,-9.00,-7.00,+2.00,+2.00,-8.00,-16.00,+7.00,+33.00,+1.00,-1.00,-1.00,+1.00,+1.00,-10.00
+40.00,-48.00,-4.00,-2.00,+1.00,+3.00,+7.00,+32.00,+1.00,+9.00,+4.00,+1.00,-1.00,-1.00,+0.00,-1.00
-8.00,+16.00,-1.00,-2.00,-1.00,-2.00,-3.00,+3.00,+17.00,-7.00,+10.00,+8.00,+3.00,+2.00,+2.00,-3.00
+13.00,+35.00,+0.00,-1.00,-1.00,-3.00,-3.00,+0.00,-39.00,-28.00,-11.00,-1.00,+0.00,+0.00,+1.00,-2.00
-11.00,-29.00,+3.00,+5.00,+2.00,+0.00,-2.00,-10.00,+13.00,+24.00,+7.00,-3.00,-1.00,-1.00,-1.00,-2.00
-23.00,-36.00,-4.00,-1.00,+3.00,+3.00,+2.00,-11.00,+12.00,+3.00,-3.00,-8.00,-4.00,-5.00,-5.00,-21.00
-4.00,-5.00,-10.00,-11.00,-4.00,-2.00,+1.00,-5.00,+25.00,+41.00,+7.00,+2.00,+1.00,-1.00,-1.00,+12.00
+2.00,-37.00,+0.00,+3.00,+7.00,+5.00,+1.00,-8.00,-16.00,+5.00,-3.00,-1.00,+1.00,-1.00,-3.00,-18.00
-7.00,+12.00,-12.00,-4.00,-5.00,-5.00,-1.00,+19.00,+4.00,-17.00,+11.00,+3.00,-1.00,+1.00,+1.00,+17.00
-20.00,-7.00,+1.00,-1.00,-3.00,-4.00,-7.00,-55.00,-17.00,+5.00,+5.00,-1.00,-1.00,-2.00,-1.00,-17.00
+11.00,+7.00,+5.00,+7.00,+1.00,-1.00,+0.00,+28.00,+6.00,-7.00,+7.00,+3.00,+3.00,+0.00,+3.00,+22.00
-14.00,+22.00,+3.00,-4.00,-2.00,-1.00,+2.00,-22.00,+10.00,+8.00,+2.00,-8.00,-5.00,-1.00,+3.00,-6.00
-7.00,-19.00,+6.00,+3.00,+2.00,-1.00,-2.00,-3.00,-34.00,-45.00,-42.00,-13.00,-5.00,-9.00,-13.00,-18.00
-6.00,+11.00,-14.00,-1.00,-2.00,+1.00,+0.00,+49.00,+30.00,+10.00,+3.00,+0.00,+1.00,+2.00,+6.00,+21.00
-3.00,-60.00,-9.00,-6.00,-4.00,-1.00,+1.00,+4.00,-15.00,+1.00,+12.00,+1.00,+0.00,+4.00,+7.00,+10.00
+37.00,+59.00,+11.00,+2.00,+0.00,-1.00,+0.00,+21.00,+19.00,+0.00,+5.00,+4.00,-1.00,-4.00,-4.00,+8.00
-17.00,-36.00,-5.00,+0.00,+1.00,+5.00,+1.00,-4.00,+14.00,+71.00,+37.00,+16.00,+4.00,+1.00,+4.00,-1.00
+13.00,+34.00,+5.00,+4.00,+2.00,+0.00,+0.00,-4.00,-26.00,-88.00,-33.00,-4.00,-1.00,-3.00,+0.00,-8.00
-18.00,+8.00,+6.00,+2.00,+1.00,+1.00,-1.00,-12.00,-11.00,-21.00,-34.00,-25.00,-11.00,-7.00,-11.00,-12.00
+0.00,-21.00,-4.00,+6.00,+2.00,-3.00,-2.00,+7.00,-5.00,+5.00,-5.00,-2.00,-1.00,+1.00,-2.00,-1.00
+20.00,-27.00,-7.00,-16.00,-5.00,-2.00,+4.00,+12.00,-9.00,-21.00,+1.00,+1.00,+3.00,+3.00,+0.00,-1.00
-9.00,+35.00,-5.00,-5.00,-4.00,-3.00,-2.00,-15.00,+10.00,+38.00,+17.00,+10.00,+4.00,+2.00,+3.00,+1.00
-3.00,-22.00,+0.00,+1.00,-3.00,-1.00,-1.00,-2.00,+10.00,+15.00,+14.00,+4.00,-1.00,-2.00,+2.00,+2.00
-18.00,-24.00,-2.00,+1.00,+1.00,+1.00,-4.00,-43.00,-9.00,-9.00,-5.00,-1.00,+0.00,-4.00,-2.00,-6.00
+12.00,+17.00,+5.00,+2.00,-3.00,-2.00,-3.00,-15.00,+10.00,+20.00,+18.00,+8.00,+1.00,-1.00,-5.00,-11.00
-26.00,-5.00,+6.00,+5.00,+2.00,+0.00,-1.00,-13.00,+2.00,-5.00,-8.00,-6.00,-4.00,-3.00,-5.00,-6.00
+5.00,+11.00,-6.00,-5.00,-5.00,+0.00,-4.00,-12.00,-32.00,+21.00,+7.00,+7.00,+4.00,+3.00,+4.00,+3.00
-8.00,+0.00,-4.00,+2.00,+1.00,+1.00,+2.00,+20.00,+13.00,-7.00,+8.00,+0.00,-2.00,-3.00,-5.00,-5.00
-15.00,-49.00,-5.00,+2.00,-2.00,-3.00,-2.00,-24.00,-13.00,-47.00,-21.00,-8.00,-5.00,-1.00,+12.00,+24.00
+26.00,+39.00,+2.00,+5.00,+4.00,+3.00,+2.00,+5.00,-12.00,-20.00,-45.00,-18.00,-8.00,-3.00,-1.00,+1.00
-6.00,+25.00,+15.00,-4.00,+1.00,-2.00,-3.00,+5.00,+0.00,-16.00,-6.00,-2.00,+0.00,+1.00,-4.00,-6.00
+15.00,+53.00,-4.00,-4.00,-2.00,-1.00,-3.00,+0.00,+5.00,+34.00,+7.00,+0.00,-1.00,+0.00,-5.00,-29.00
+0.00,-24.00,-4.00,-1.00,+0.00,+1.00,+1.00,-13.00,+20.00,+5.00,+11.00,-1.00,-1.00,-4.00,-5.00,-33.00
+3.00,-44.00,-18.00,-6.00,-2.00,+0.00,+3.00,+11.00,-18.00,-1.00,+9.00,-1.00,-2.00,-2.00,-4.00,-34.00
-15.00,-29.00,-1.00,+4.00,+2.00,-3.00,-2.00,-13.00,+2.00,-13.00,-7.00,+2.00,+2.00,-2.00,+2.00,-31.00
-17.00,+1.00,-12.00,-9.00,-1.00,-2.00,-2.00,+1.00,-10.00,+19.00,+6.00,+4.00,+2.00,+2.00,-1.00,-27.00
-4.00,+37.00,+13.00,-1.00,-3.00,-5.00,-4.00,+2.00,+8.00,-12.00,-2.00,-1.00,-2.00,-1.00,-7.00,-1.00
+20.00,+35.00,+21.00,+10.00,+2.00,-3.00,-2.00,+2.00,+4.00,+16.00,+10.00,-1.00,-1.00,-1.00,-4.00,+17.00
-12.00,-32.00,-24.00,-4.00,+0.00,+1.00,-1.00,-35.00,-7.00,-9.00,-11.00,-5.00,-2.00,-3.00,-12.00,-12.00
-23.00,+18.00,-1.00,-6.00,-3.00,-3.00,-7.00,-40.00,-2.00,-16.00,+0.00,+2.00,+1.00,+3.00,+3.00,+49.00
+45.00,+5.00,-4.00,-3.00,-1.00,-1.00,+5.00,+20.00,+1.00,+9.00,+3.00,+0.00,+0.00,-1.00,+5.00,+19.00
-15.00,-23.00,+2.00,+1.00,+0.00,+0.00,+1.00,+21.00,-3.00,+4.00,+4.00,+6.00,+2.00,+3.00,+5.00,+21.00
-5.00,+15.00,+4.00,-1.00,+0.00,-3.00,-2.00,-10.00,+13.00,-1.00,-15.00,-6.00,-2.00,-3.00,-1.00,+41.00
-4.00,-9.00,+13.00,+4.00,-1.00,+0.00,-1.00,+9.00,-17.00,-22.00,-13.00,-6.00,-4.00,-3.00,-8.00,+22.00
+6.00,+11.00,-6.00,+3.00,+3.00,+0.00,+0.00,-12.00,+5.00,-2.00,+4.00,+1.00,+0.00,-1.00,-4.00,+20.00
-4.00,+8.00,-6.00,-2.00,-1.00,-3.00,-1.00,-9.00,+8.00,+27.00,+9.00,+1.00,-2.00,-2.00,-5.00,+20.00
+14.00,-5.00,+4.00,+1.00,+1.00,-1.00,+2.00,+17.00,-8.00,-43.00,-15.00,-8.00,-5.00,-2.00,+0.00,+3.00
-23.00,-43.00,+7.00,+5.00,+2.00,+2.00,+1.00,+5.00,-1.00,-12.00,-16.00,-6.00,-3.00,-3.00,+0.00,+6.00
-5.00,-1.00,-9.00,-4.00,-2.00,-3.00,-7.00,+20.00,-6.00,+32.00,+10.00,+4.00,+1.00,+2.00,+2.00,+4.00
+20.00,+40.00,+6.00,-5.00,-4.00,-1.00,+3.00,-5.00,+15.00,-37.00,-12.00,+0.00,+0.00,-4.00,-1.00,-3.00
-3.00,+10.00,-3.00,+4.00,-2.00,+0.00,-2.00,-4.00,-42.00,+2.00,+0.00,+1.00,+0.00,+0.00,+5.00,-21.00
+30.00,-20.00,-1.00,+2.00,+0.00,-1.00,+1.00,+10.00,+34.00,+11.00,+5.00,-3.00,-2.00,+0.00,+2.00,+27.00
-44.00,+14.00,+10.00,+7.00,+3.00,+1.00,-1.00,-3.00,-5.00,-6.00,-4.00,-3.00,+0.00,+0.00,-5.00,-29.00
+23.00,+16.00,-11.00,-6.00,-5.00,-4.00,-6.00,-16.00,-9.00,+2.00,-2.00,-3.00,-2.00,-2.00,-1.00,-9.00
-32.00,-36.00,-6.00,-11.00,-8.00,-5.00,+0.00,-10.00,+19.00,+17.00,+8.00,+3.00,-2.00,-1.00,-3.00,+1.00
+26.00,+5.00,+0.00,-1.00,+0.00,+1.00,+8.00,+35.00,-3.00,-6.00,-2.00,+2.00,+2.00,-1.00,+3.00,+0.00
+4.00,+0.00,-3.00,-1.00,+1.00,-1.00,-2.00,+9.00,-1.00,-13.00,-2.00,-1.00,-1.00,-2.00,-3.00,-4.00
-10.00,-9.00,+9.00,+6.00,+2.00,-1.00,-1.00,+1.00,-14.00,+1.00,-14.00,-4.00,-1.00,-1.00,-4.00,-6.00
-4.00,+5.00,+2.00,+6.00,-1.00,-1.00,-2.00,+3.00,+1.00,-6.00,+10.00,+2.00,+2.00,-1.00,+0.00,-2.00
-14.00,-5.00,-7.00,-4.00,-1.00,-2.00,-4.00,-9.00,-1.00,+14.00,+7.00,-4.00,-2.00,-3.00,+2.00,-7.00
+7.00,-14.00,+7.00,+2.00,+1.00,+1.00,+4.00,+9.00,-1.00,-7.00,-12.00,-4.00,-3.00,-4.00,-3.00,+0.00
-15.00,-12.00,-3.00,-5.00,-3.00,-1.00,-3.00,-3.00,-8.00,+6.00,+10.00,+2.00,-1.00,-1.00,-9.00,-14.00
+16.00,+23.00,-3.00,-2.00,-1.00,-2.00,-1.00,-11.00,+22.00,+5.00,-8.00,-2.00,-1.00,-1.00,+4.00,+10.00
-8.00,-20.00,-6.00,+1.00,-1.00,-2.00,+1.00,+2.00,-22.00,-13.00,+5.00,+2.00,-1.00,+0.00,-2.00,-20.00
+16.00,+37.00,+4.00,+1.00,+1.00,+0.00,+0.00,+3.00,-8.00,-10.00,-15.00,-6.00,-2.00,-1.00,+0.00,+2.00
-10.00,-3.00,+9.00,-3.00,-1.00,-2.00,-4.00,-8.00,+10.00,-1.00,+9.00,+1.00,-1.00,-1.00,+0.00,+1.00
+6.00,-19.00,-15.00,-2.00,+2.00,+2.00,+1.00,+10.00,+1.00,+14.00,+5.00,+1.00,-3.00,-2.00,-2.00,-4.00
+21.00,+16.00,+4.00,+3.00,-1.00,-1.00,+5.00,+0.00,+13.00,+9.00,-3.00,+0.00,-1.00,-1.00,+0.00,-1.00
-8.00,-15.00,-5.00,-5.00,-4.00,-1.00,-2.00,-4.00,-16.00,-22.00,+0.00,+1.00,+0.00,-1.00,-1.00,-6.00
-25.00,-5.00,-3.00,-4.00,-2.00,-3.00,-1.00,-12.00,-15.00,-1.00,+5.00,+4.00,+3.00,+1.00,+2.00,-1.00
-2.00,-19.00,+7.00,+6.00,+1.00,-1.00,-3.00,+3.00,+1.00,-17.00,-17.00,-10.00,-4.00,-2.00,-2.00,-4.00
+16.00,+48.00,+4.00,+5.00,+2.00,+0.00,+1.00,-1.00,+7.00,+8.00,+1.00,+0.00,-1.00,-1.00,-1.00,-7.00
+3.00,-7.00,+9.00,-4.00,-3.00,-1.00,+2.00,+1.00,-6.00,-2.00,-11.00,-7.00,-3.00,+1.00,+1.00,+7.00
+9.00,-5.00,-15.00,-4.00,-1.00,+1.00,-4.00,+2.00,+12.00,+9.00,+7.00,+0.00,+0.00,+0.00,-5.00,-1.00
-14.00,-10.00,-4.00,-6.00,-2.00,-4.00,-3.00,-3.00,+0.00,-17.00,-5.00,-2.00,-1.00,-2.00,+5.00,+4.00
-7.00,-9.00,+2.00,-3.00,-2.00,+0.00,-4.00,-5.00,-22.00,-8.00,-5.00,-4.00,-2.00,-1.00,-1.00,-12.00
-9.00,-16.00,-1.00,+0.00,+0.00,-3.00,-1.00,+3.00,+13.00,+14.00,+6.00,+3.00,+3.00,+1.00,+0.00,+0.00
+1.00,-5.00,-4.00,+0.00,+0.00,+0.00,-1.00,+1.00,-16.00,-17.00,-5.00,-6.00,-3.00,-3.00,+2.00,+1.00
+46.00,+61.00,+2.00,-1.00,-1.00,+0.00,+0.00,+4.00,+16.00,+19.00,+4.00,+1.00,+0.00,+0.00,-6.00,-3.00
-24.00,-26.00,+0.00,+0.00,+1.00,+1.00,+2.00,-4.00,-7.00,+0.00,+0.00,+2.00,+0.00,-1.00,-1.00,+0.00
+21.00,+4.00,-2.00,-5.00,-4.00,+0.00,-2.00,-5.00,-12.00,-23.00,+1.00,+0.00,-2.00,-1.00,-2.00,-3.00
-22.00,-13.00,+3.00,+2.00,+2.00,-1.00,-1.00,-3.00,+5.00,+22.00,+8.00,-5.00,-3.00,-3.00,-4.00,-8.00
+10.00,-9.00,-1.00,+4.00,+3.00,+2.00,-1.00,+9.00,-13.00,-22.00,-3.00,-3.00,-2.00,+0.00,+1.00,+3.00
-1.00,+19.00,-2.00,-6.00,-2.00,-4.00,-4.00,+3.00,-7.00,-14.00,-8.00,-4.00,-1.00,+0.00,-1.00,-9.00
-13.00,-29.00,-21.00,-7.00,-2.00,-2.00,+1.00,-5.00,+15.00,+30.00,+8.00,+4.00,+0.00,+0.00,+1.00,+5.00
+6.00,-10.00,+9.00,-2.00,+0.00,-1.00,+2.00,+8.00,+0.00,-11.00,+1.00,+4.00,+1.00,-1.00,+3.00,-1.00
+0.00,+15.00,+1.00,+2.00,-1.00,+0.00,+1.00,+3.00,-6.00,-7.00,-8.00,-3.00,-3.00,-2.00,-5.00,-7.00
+5.00,+5.00,-1.00,+2.00,-2.00,-1.00,-4.00,-3.00,+8.00,+5.00,+4.00,-1.00,-1.00,-1.00,+2.00,+7.00
-36.00,-31.00,-11.00,-7.00,-5.00,-1.00,+0.00,+2.00,+0.00,-3.00,+0.00,+2.00,+0.00,-3.00,-9.00,-11.00
+11.00,+23.00,+1.00,-4.00,-5.00,-2.00,-2.00,+2.00,-8.00,-22.00,-16.00,-2.00,+1.00,+3.00,+9.00,+18.00
+12.00,+8.00,-8.00,+0.00,-2.00,-1.00,-1.00,+10.00,+10.00,+27.00,+21.00,+7.00,+4.00,+2.00,+1.00,+7.00
-13.00,-44.00,+1.00,+4.00,+0.00,-1.00,+0.00,+25.00,-13.00,-23.00,-19.00,-9.00,-4.00,-4.00,-7.00,-12.00
+7.00,+35.00,+10.00,+7.00,+1.00,-1.00,-1.00,-8.00,+2.00,-4.00,-11.00,-7.00,-6.00,-2.00,+2.00,+4.00
+7.00,-6.00,-4.00,+3.00,+2.00,+1.00,+1.00,+1.00,+0.00,+13.00,+5.00,+1.00,-1.00,+0.00,-4.00,-9.00
-14.00,+1.00,-3.00,-8.00,-3.00,-2.00,-3.00,-3.00,+13.00,+8.00,+2.00,+1.00,+0.00,+0.00,+1.00,-4.00
+0.00,-19.00,-6.00,-5.00,-3.00,-3.00,-1.00,-1.00,-23.00,+2.00,+10.00,+2.00,+0.00,-2.00,-11.00,-11.00
+8.00,+35.00,+17.00,+4.00,+0.00,+0.00,-3.00,+0.00,-9.00,-9.00,-1.00,+0.00,+0.00,+1.00,+7.00,-1.00
-28.00,-44.00,-17.00,-3.00,+1.00,+0.00,+1.00,+0.00,+7.00,+12.00,+7.00,+3.00,+1.00,-1.00,+3.00,+6.00
+16.00,-1.00,-4.00,-6.00,+0.00,-3.00,-3.00,+2.00,-3.00,-6.00,-15.00,-7.00,-3.00,-2.00,-5.00,-4.00
-12.00,-5.00,-1.00,-1.00,+0.00,+1.00,+0.00,-7.00,+3.00,-17.00,-4.00,-1.00,+0.00,+0.00,-5.00,-7.00
+0.00,-8.00,-6.00,+3.00,+2.00,+1.00,-1.00,+0.00,-10.00,-3.00,-3.00,-2.00,-3.00,+0.00,-2.00,-4.00
-1.00,+9.00,+7.00,+0.00,-3.00,-2.00,-1.00,-5.00,-8.00,-8.00,-4.00,-2.00,-2.00,-2.00,-4.00,-12.00
-17.00,-3.00,+2.00,-1.00,-3.00,-1.00,-1.00,+4.00,+1.00,+1.00,+1.00,+8.00,+4.00,+2.00,+6.00,+8.00
-9.00,-18.00,-14.00,-8.00,-5.00,-2.00,-2.00,-5.00,+32.00,+28.00,+2.00,-10.00,-12.00,-3.00,+3.00,+11.00
+11.00,+20.00,+3.00,+4.00,-9.00,-2.00,-1.00,-3.00,-23.00,-11.00,-3.00,-5.00,-2.00,-3.00,-3.00,-5.00
+12.00,+16.00,+10.00,+5.00,+17.00,+4.00,+1.00,-1.00,+7.00,-4.00,-2.00,-2.00,-1.00,-1.00,-5.00,-6.00
-13.00,-19.00,-9.00,-2.00,-1.00,+0.00,-2.00,-12.00,-14.00,-9.00,+5.00,-1.00,+0.00,-5.00,-10.00,-13.00
+18.00,+19.00,+11.00,+0.00,+1.00,-1.00,+2.00,-3.00,-7.00,+3.00,-5.00,+7.00,+5.00,+1.00,+4.00,+0.00
-14.00,-18.00,-10.00,-2.00,+1.00,-2.00,+1.00,-9.00,+3.00,-7.00,-1.00,+1.00,+0.00,+0.00,+1.00,+1.00
-5.00,-20.00,-12.00,+0.00,-7.00,-2.00,-2.00,+2.00,+3.00,+9.00,+10.00,+6.00,+5.00,+1.00,+1.00,+1.00
+17.00,+15.00,+18.00,+7.00,+1.00,+2.00,+2.00,+1.00,-18.00,-15.00,-13.00,-3.00,-7.00,-1.00,-4.00,-7.00
-1.00,+9.00,-1.00,-5.00,-9.00,-3.00,-4.00,-6.00,+6.00,+10.00,+0.00,-6.00,-3.00,-1.00,+1.00,+5.00
+7.00,-4.00,-14.00,-8.00,+0.00,-1.00,-1.00,-1.00,+6.00,+9.00,+2.00,-2.00,-2.00,+0.00,+0.00,-4.00
+3.00,+15.00,-6.00,-7.00,-4.00,-4.00,-3.00,-5.00,-13.00,-19.00,-9.00,-2.00,+0.00,-2.00,-6.00,-10.00
-6.00,-33.00,-7.00,-2.00,+4.00,+0.00,+0.00,+0.00,+4.00,+4.00,+3.00,+11.00,+9.00,+1.00,+5.00,+8.00
-14.00,-5.00,+9.00,+5.00,+1.00,+2.00,-1.00,+1.00,-2.00,-15.00,-2.00,-3.00,-1.00,+0.00,+3.00,+6.00
+16.00,+18.00,+4.00,+2.00,-5.00,-2.00,+0.00,+4.00,+14.00,+31.00,+4.00,-9.00,-8.00,-2.00,-1.00,+1.00
+1.00,+10.00,+5.00,+5.00,+0.00,+1.00,+0.00,-4.00,+4.00,+15.00,+0.00,-10.00,-9.00,-3.00,-4.00,-1.00
-9.00,+7.00,+18.00,+3.00,+7.00,-1.00,-3.00,-4.00,-8.00,-9.00,-16.00,-6.00,-4.00,-3.00,-6.00,-13.00
+15.00,+0.00,-17.00,-5.00,+0.00,+1.00,+1.00,-2.00,-8.00,-3.00,+4.00,+2.00,+5.00,+1.00,+1.00,+4.00
-22.00,-20.00,-8.00,-10.00,-1.00,-2.00,-3.00,+3.00,+5.00,-12.00,-2.00,+4.00,+3.00,-2.00,-1.00,-1.00
+1.00,+1.00,-4.00,-1.00,-8.00,-1.00,+0.00,+3.00,+3.00,+10.00,+10.00,+0.00,-4.00,-1.00,+4.00,+3.00
-2.00,+5.00,+3.00,+3.00,-2.00,+0.00,+1.00,+4.00,-18.00,-10.00,-12.00,-10.00,-5.00,-3.00,-8.00,-13.00
-1.00,+5.00,+3.00,+0.00,+1.00,-2.00,-2.00,+3.00,+1.00,-5.00,+5.00,+6.00,+4.00,+0.00,+3.00,+6.00
-11.00,-13.00,-12.00,-5.00,-1.00,-2.00,-2.00,+1.00,+3.00,-11.00,-11.00,-1.00,+0.00,-2.00,-3.00,-1.00
+30.00,+21.00,+3.00,+1.00,-3.00,-1.00,+2.00,-1.00,-3.00,+14.00,+6.00,+3.00,-1.00,-1.00,-6.00,-5.00
-13.00,-2.00,+2.00,+1.00,-2.00,-1.00,-1.00,-7.00,+0.00,-1.00,+2.00,-3.00,+0.00,-1.00,+3.00,+1.00
-2.00,-10.00,+1.00,+0.00,+2.00,-1.00,+0.00,-5.00,-3.00,+3.00,-1.00,+1.00,+1.00,-1.00,-1.00,-2.00
+15.00,+0.00,-3.00,-1.00,-3.00,-2.00,-1.00,+7.00,+4.00,+7.00,+4.00,+1.00,+1.00,+0.00,+2.00,+1.00
-16.00,-9.00,+1.00,-3.00,-3.00,-2.00,-2.00,-4.00,+0.00,-9.00,-5.00,+0.00,+1.00,+0.00,-4.00,-3.00
+10.00,-1.00,-4.00,+0.00,-1.00,+0.00,+0.00,-3.00,+4.00,+9.00,+1.00,-1.00,-3.00,-1.00,+0.00,+3.00
-11.00,+6.00,+0.00,+0.00,+2.00,+0.00,-1.00,-2.00,+3.00,+0.00,-1.00,+0.00,-1.00,-1.00,-2.00,+1.00
-13.00,-9.00,+6.00,+1.00,+2.00,+0.00,+1.00,-1.00,+3.00,-1.00,+2.00,-2.00,+0.00,-2.00,-1.00,+2.00
+9.00,-3.00,+3.00,-2.00,-1.00,-1.00,-1.00,+5.00,-16.00,-22.00,-9.00,-5.00,-6.00,-4.00,-2.00,-3.00
-8.00,-5.00,-9.00,-2.00,-7.00,-1.00,+0.00,+0.00,+6.00,+20.00,+10.00,-2.00,+0.00,+0.00,-1.00,+4.00
-2.00,-8.00,-4.00,-6.00,+4.00,-1.00,-3.00,-9.00,-3.00,+2.00,-3.00,-7.00,-6.00,-2.00,-3.00,-4.00
-7.00,-3.00,-6.00,-2.00,+2.00,+0.00,-2.00,-2.00,-4.00,-6.00,-4.00,+5.00,+3.00,-2.00,+0.00,+0.00
+12.00,+4.00,+2.00,+3.00,+3.00,+1.00,+1.00,+0.00,+2.00,-12.00,-6.00,+4.00,+3.00,+0.00,+2.00,+3.00
+2.00,-7.00,-7.00,-2.00,-1.00,-1.00,+0.00,-3.00,+4.00,+6.00,+10.00,-2.00,-1.00,-2.00,-3.00,-4.00
+0.00,+3.00,+0.00,+0.00,-11.00,-2.00,-1.00,+2.00,+8.00,-7.00,-9.00,-2.00,-2.00,-1.00,+2.00,+3.00
+3.00,+22.00,+18.00,+7.00,+8.00,+1.00,+0.00,-3.00,-15.00,-9.00,+1.00,-1.00,-1.00,+1.00,-3.00,-8.00
-18.00,-25.00,-11.00,-5.00,+0.00,-2.00,+0.00,+1.00,+11.00,-4.00,-8.00,-4.00,-2.00,-1.00,+5.00,+8.00
-3.00,-5.00,-10.00,-9.00,-7.00,-3.00,+0.00,+1.00,+8.00,+16.00,+8.00,+3.00,+0.00,+0.00,+1.00,+3.00
+0.00,+3.00,+2.00,+3.00,-1.00,+1.00,+2.00,+4.00,+7.00,-6.00,-4.00,+1.00,+0.00,-2.00,-1.00,-6.00
+2.00,-7.00,-1.00,+1.00,-3.00,+1.00,-2.00,-9.00,-12.00,-7.00,-3.00,-1.00,-1.00,-2.00,-4.00,-4.00
-11.00,-4.00,-1.00,+1.00,-1.00,-1.00,-4.00,-2.00,+1.00,-4.00,-10.00,-5.00,-1.00,+0.00,+2.00,+2.00
-7.00,-6.00,-1.00,-3.00,+0.00,-2.00,-1.00,-1.00,-6.00,-14.00,+0.00,+1.00,+0.00,-1.00,-1.00,+0.00
+6.00,+13.00,-11.00,-2.00,-1.00,-3.00,-1.00,+1.00,+5.00,+13.00,+1.00,-4.00,-3.00,-2.00,-7.00,-7.00
-1.00,+6.00,+9.00,+6.00,+0.00,+0.00,+0.00,-1.00,-2.00,-1.00,+1.00,-2.00,-1.00,-2.00,+2.00,+0.00
-1.00,+5.00,+3.00,-1.00,+1.00,-3.00,-2.00,-6.00,-6.00,-15.00,-5.00,-3.00,-1.00,-1.00,-2.00,-7.00
-10.00,-16.00,-17.00,-7.00,-4.00,-2.00,-1.00,-2.00,+1.00,+3.00,-3.00,-1.00,+0.00,+0.00,+1.00,+0.00
+1.00,+8.00,+5.00,+0.00,+1.00,-1.00,-2.00,-3.00,-8.00,-7.00,-3.00,+0.00,-2.00,+0.00,-1.00,-4.00
+2.00,-14.00,-5.00,+2.00,-2.00,-1.00,-2.00,+2.00,+3.00,+6.00,+2.00,+0.00,-2.00,-1.00,-2.00,+0.00
-1.00,+0.00,+2.00,+1.00,+1.00,+2.00,+2.00,-3.00,+3.00,-3.00,-5.00,-2.00,-1.00,-2.00,-5.00,-2.00
+2.00,+2.00,+3.00,+1.00,-1.00,+1.00,-1.00,-2.00,-11.00,-13.00,-7.00,-4.00,-7.00,-4.00,-2.00,-8.00
-3.00,-1.00,+1.00,+2.00,+0.00,+0.00,+1.00,+1.00,+1.00,+5.00,+7.00,+1.00,+1.00,+1.00,+0.00,-2.00
+2.00,+4.00,+4.00,+0.00,+0.00,+0.00,-1.00,+1.00,+3.00,-18.00,-14.00,-5.00,+0.00,+0.00,+0.00,+7.00
+7.00,+1.00,-9.00,-4.00,-1.00,-1.00,-2.00,+3.00,-6.00,+11.00,+9.00,+0.00,-1.00,-1.00,-3.00,-3.00
+1.00,+1.00,+3.00,-3.00,-3.00,-1.00,+0.00,-3.00,-8.00,+4.00,-3.00,-4.00,-1.00,-1.00,-3.00,-4.00
-1.00,-7.00,+2.00,-7.00,-3.00,-2.00,-3.00,-5.00,-7.00,+8.00,+2.00,+4.00,+1.00,+0.00,+2.00,+5.00
-6.00,+3.00,-21.00,-6.00,-1.00,+0.00,-2.00,-6.00,+3.00,-12.00,+0.00,+1.00,+1.00,+0.00,+0.00,+0.00
+6.00,+8.00,+5.00,+2.00,+1.00,+1.00,+1.00,+10.00,+6.00,+12.00,-2.00,-3.00,-2.00,-3.00,-3.00,-2.00
-10.00,-15.00,+7.00,+8.00,+3.00,+0.00,-1.00,-1.00,+3.00,-5.00,-2.00,-1.00,-1.00,+0.00,-2.00,+0.00
+3.00,+3.00,+1.00,+2.00,-3.00,+0.00,+0.00,+5.00,-5.00,+3.00,+0.00,-4.00,-2.00,-4.00,-3.00,-9.00
+4.00,+4.00,+9.00,+0.00,+4.00,-1.00,-1.00,-5.00,+2.00,+3.00,+5.00,+2.00,-3.00,+2.00,+6.00,+11.00
-4.00,+0.00,+3.00,-5.00,-2.00,-2.00,-2.00,-3.00,+0.00,+1.00,-3.00,-4.00,-2.00,-4.00,-1.00,+3.00
+6.00,+7.00,-14.00,-3.00,+2.00,-1.00,-1.00,+5.00,-1.00,-7.00,-1.00,+0.00,-1.00,-1.00,-1.00,-1.00
-4.00,-8.00,+8.00,+4.00,+2.00,+4.00,+1.00,-1.00,+0.00,+7.00,-2.00,+0.00,+0.00,-1.00,-2.00,-2.00
-2.00,-2.00,-10.00,-3.00,-2.00,-2.00,-2.00,-6.00,-12.00,-3.00,-1.00,-4.00,-3.00,-2.00,-4.00,-9.00
-8.00,+1.00,+1.00,+1.00,-5.00,-1.00,-1.00,-4.00,+12.00,+12.00,+1.00,+3.00,-1.00,-1.00,-2.00,+3.00
+5.00,-17.00,-4.00,-4.00,-2.00,-1.00,+0.00,+3.00,-24.00,-12.00,-2.00,-6.00,-3.00,-2.00,-3.00,-9.00
+1.00,+12.00,-10.00,-5.00,-5.00,-2.00,-2.00,-4.00,-1.00,-26.00,-15.00,-4.00,-1.00,+1.00,+1.00,+8.00
-6.00,-10.00,-1.00,-3.00,+1.00,+0.00,+0.00,-3.00,-3.00,+9.00,+1.00,+1.00,-2.00,-1.00,-3.00,-10.00
+6.00,+16.00,+10.00,+5.00,+3.00,+2.00,+5.00,+6.00,+2.00,-1.00,+1.00,-2.00,+0.00,+1.00,+2.00,+3.00
-4.00,+3.00,+3.00,+2.00,+1.00,-1.00,-2.00,+0.00,+10.00,+4.00,+2.00,+2.00,+0.00,-2.00,-2.00,-2.00
-10.00,-8.00,-4.00,-1.00,+1.00,-1.00,-2.00,+0.00,-5.00,+0.00,+1.00,+0.00,+1.00,+0.00,+3.00,+8.00
+4.00,-4.00,+3.00,+0.00,-3.00,-2.00,-4.00,-7.00,-1.00,-6.00,-4.00,+0.00,+0.00,+1.00,-2.00,-1.00
-4.00,-6.00,+0.00,+2.00,+1.00,-1.00,-3.00,-3.00,+2.00,+3.00,-2.00,-2.00,+0.00,+2.00,-1.00,-2.00
-1.00,+6.00,+4.00,+2.00,+0.00,-1.00,-2.00,-10.00,-4.00,-2.00,-1.00,+0.00,-2.00,-2.00,-4.00,-3.00
-1.00,+4.00,+5.00,-2.00,-2.00,-1.00,-1.00,-2.00,-11.00,-12.00,+3.00,-4.00,-4.00,-3.00,-6.00,-15.00
+0.00,-10.00,+1.00,-7.00,-3.00,-4.00,+1.00,+2.00,+20.00,+25.00,+1.00,-2.00,+0.00,-1.00,+0.00,+7.00
-3.00,-7.00,-27.00,-11.00,-4.00,-2.00,-2.00,-1.00,-2.00,-10.00,+2.00,+5.00,+2.00,+0.00,+1.00,-1.00
+3.00,+12.00,-2.00,+1.00,+0.00,-2.00,-1.00,+6.00,-5.00,-1.00,-9.00,-3.00,+0.00,+1.00,+0.00,+0.00
-4.00,-20.00,-1.00,+5.00,+5.00,+0.00,-3.00,-6.00,-1.00,+3.00,+3.00,+2.00,+1.00,-1.00,+0.00,+1.00
+6.00,+19.00,+15.00,+6.00,+0.00,+1.00,+2.00,+1.00,-13.00,-14.00,-5.00,-4.00,-5.00,-1.00,-3.00,-5.00
-4.00,-6.00,-6.00,-6.00,-5.00,+0.00,-1.00,-7.00,+0.00,-4.00,-7.00,-2.00,-3.00,-2.00,-3.00,-3.00
-1.00,-6.00,+1.00,-1.00,+1.00,+0.00,-2.00,-3.00,+1.00,+3.00,+4.00,+0.00,-1.00,-1.00,-2.00,+2.00
+5.00,+1.00,-10.00,-4.00,-2.00,-3.00,-2.00,-2.00,+8.00,+1.00,-2.00,+1.00,-1.00,+0.00,+0.00,+0.00
-5.00,-2.00,+5.00,+0.00,-5.00,-4.00,-3.00,+1.00,-2.00,+1.00,+1.00,-7.00,-3.00,-1.00,+0.00,+0.00
-2.00,-12.00,-8.00,+2.00,+0.00,-1.00,+1.00,-2.00,-13.00,-10.00,-2.00,-2.00,-1.00,+0.00,-1.00,+1.00
-5.00,+7.00,+9.00,+1.00,+2.00,+1.00,+0.00,-3.00,+0.00,-7.00,-4.00,-1.00,-2.00,+0.00,-2.00,-2.00
+0.00,-5.00,-9.00,-5.00,-1.00,-2.00,+0.00,-2.00,-1.00,+7.00,+0.00,-1.00,-2.00,-1.00,-2.00,-4.00
+1.00,+2.00,-5.00,-3.00,+0.00,-1.00,-1.00,+0.00,+4.00,-1.00,+0.00,+2.00,+2.00,+0.00,-1.00,+2.00
+3.00,+4.00,+4.00,+2.00,-1.00,-3.00,-2.00,-1.00,-5.00,-2.00,+1.00,+0.00,-1.00,-1.00,-2.00,-1.00
+1.00,+0.00,+1.00,+3.00,-3.00,-1.00,+1.00,+1.00,-1.00,-3.00,+0.00,-2.00,+0.00,+0.00,-2.00,-5.00
-1.00,+1.00,+4.00,-4.00,-2.00,-3.00,+1.00,+3.00,+4.00,+3.00,+1.00,+1.00,+0.00,+0.00,-2.00,+1.00
-3.00,-11.00,-15.00,-3.00,-2.00,+0.00,-2.00,+0.00,-19.00,-16.00,-4.00,-1.00,-1.00,-1.00,-2.00,-4.00
+1.00,+8.00,+6.00,+3.00,+1.00,+2.00,+0.00,+1.00,+12.00,+16.00,-3.00,+1.00,-1.00,-1.00,+1.00,+1.00
+3.00,-2.00,+3.00,+2.00,+0.00,+1.00,+0.00,-2.00,+5.00,+6.00,+5.00,+1.00,+0.00,-1.00,+0.00,+4.00
+10.00,+11.00,+2.00,+1.00,-1.00,-1.00,-1.00,-7.00,+5.00,+5.00,+0.00,-2.00,-2.00,-2.00,+0.00,+0.00
+2.00,+6.00,+2.00,+4.00,+1.00,+0.00,+2.00,+4.00,-6.00,-2.00,+2.00,-5.00,-2.00,-2.00,-2.00,-1.00
-7.00,-15.00,+5.00,-4.00,-6.00,-3.00,-3.00,-3.00,-13.00,-13.00,-4.00,-5.00,-2.00,-2.00,-3.00,-7.00
-5.00,-4.00,-13.00,-11.00,+0.00,-1.00,-3.00,-4.00,+6.00,-8.00,-3.00,+0.00,+1.00,+0.00,+0.00,+1.00
+1.00,-11.00,-8.00,-3.00,-1.00,-1.00,+1.00,+2.00,-1.00,+9.00,+1.00,-1.00,-1.00,-1.00,-3.00,-4.00
+6.00,+7.00,-6.00,+0.00,+1.00,-1.00,+0.00,+1.00,+0.00,-1.00,-1.00,+0.00,+1.00,+0.00,+2.00,+2.00
-9.00,-2.00,+8.00,+2.00,+2.00,+1.00,-2.00,-5.00,+4.00,+2.00,+3.00,+1.00,+0.00,+1.00,+1.00,+2.00
+4.00,+4.00,-6.00,-2.00,-4.00,+0.00,-1.00,-1.00,-3.00,+4.00,-1.00,-1.00,+0.00,-1.00,+0.00,+0.00
-2.00,-3.00,+5.00,+3.00,-1.00,+0.00,+1.00,-1.00,-8.00,-17.00,-3.00,-2.00,-1.00,-2.00,-1.00,-3.00
-12.00,-3.00,+4.00,+0.00,-2.00,+0.00,+0.00,-2.00,+2.00,+7.00,+0.00,+0.00,-2.00,-2.00,-3.00,-3.00
+8.00,-6.00,-5.00,+0.00,+3.00,+0.00,-1.00,+4.00,-7.00,+1.00,+2.00,-3.00,-1.00,+0.00,+1.00,+0.00
-1.00,+9.00,+9.00,+0.00,-1.00,-4.00,-1.00,-1.00,+5.00,-1.00,-1.00,-2.00,-3.00,-1.00,-3.00,-1.00
+5.00,+3.00,-17.00,-6.00,-5.00,-2.00,-3.00,+0.00,-1.00,-3.00,-1.00,+0.00,-1.00,+1.00,+0.00,+2.00
-3.00,+0.00,+2.00,-1.00,-2.00,-1.00,-2.00,-3.00,+0.00,-1.00,-2.00,+1.00,+1.00,-1.00,+0.00,+0.00
-11.00,-3.00,+3.00,+0.00,-1.00,+0.00,+0.00,+3.00,+2.00,+3.00,+1.00,-2.00,-3.00,-1.00,+0.00,+2.00
-1.00,-5.00,-2.00,+3.00,-1.00,+0.00,+0.00,+1.00,-1.00,+3.00,+2.00,+3.00,+1.00,+0.00,+0.00,-4.00
-6.00,+2.00,+7.00,+5.00,+1.00,+1.00,+0.00,+0.00,-2.00,-5.00,-6.00,-2.00,-1.00,-1.00,+2.00,+2.00
+0.00,-4.00,-4.00,-1.00,-1.00,-2.00,-3.00,+1.00,+0.00,-1.00,+0.00,+0.00,+0.00,-1.00,+0.00,-4.00
-3.00,+1.00,+6.00,+2.00,+0.00,-3.00,-1.00,+0.00,-5.00,-8.00,-4.00,-1.00,-1.00,-4.00,-1.00,-2.00
+2.00,-1.00,-7.00,-10.00,-5.00,-3.00,-1.00,-3.00,+3.00,+0.00,-1.00,-1.00,-2.00,-1.00,+0.00,+3.00
-7.00,-8.00,-12.00,-4.00,-3.00,-2.00,-1.00,+2.00,-9.00,+3.00,+3.00,+0.00,-1.00,+1.00,-4.00,-5.00
-3.00,-7.00,+0.00,-3.00,+1.00,+0.00,+0.00,-3.00,+3.00,+5.00,+1.00,-1.00,+0.00,+0.00,-1.00,+0.00
-3.00,-9.00,-12.00,-2.00,+0.00,+0.00,-1.00,-1.00,-20.00,-25.00,-10.00,+0.00,+2.00,-1.00,-2.00,-4.00
+6.00,-2.00,+8.00,+4.00,+1.00,+1.00,+0.00,+3.00,+6.00,+12.00,+0.00,+0.00,-1.00,-2.00,-1.00,+0.00
-14.00,-4.00,+10.00,+3.00,+1.00,+2.00,-1.00,-5.00,-1.00,-5.00,-3.00,-4.00,-2.00,-2.00,-4.00,-7.00
+24.00,+26.00,-2.00,+0.00,-1.00,+1.00,+0.00,+4.00,+7.00,+6.00,+1.00,+0.00,-2.00,+0.00,+1.00,+4.00
-4.00,+1.00,+2.00,-1.00,+1.00,-1.00,-1.00,-3.00,-1.00,-4.00,-2.00,-3.00,-1.00,-1.00,+0.00,-1.00
+2.00,-4.00,-4.00,-2.00,+0.00,-3.00,+0.00,-2.00,-10.00,-9.00,-1.00,-2.00,-1.00,-2.00,-2.00,-1.00
-8.00,-14.00,+5.00,-1.00,-1.00,-2.00,-1.00,+0.00,+16.00,+8.00,+1.00,-3.00,-1.00,-2.00,+0.00,+2.00
-4.00,-6.00,-7.00,-1.00,-2.00,-1.00,-2.00,+1.00,-14.00,-9.00,-2.00,-4.00,-2.00,-2.00,+0.00,-5.00
+0.00,+4.00,+0.00,-4.00,-1.00,+0.00,-2.00,-8.00,+5.00,+11.00,+3.00,-2.00,-2.00,-2.00,-5.00,-1.00
+2.00,-1.00,+4.00,+0.00,-1.00,+0.00,+0.00,-1.00,-1.00,-1.00,+2.00,-1.00,+2.00,+0.00,+1.00,-5.00
+5.00,+14.00,-7.00,-2.00,+0.00,-1.00,+0.00,+3.00,+7.00,+1.00,-8.00,+0.00,-1.00,+0.00,+2.00,+5.00
-2.00,-6.00,+8.00,+1.00,+0.00,+0.00,+0.00,+2.00,-4.00,-9.00,+0.00,-3.00,+1.00,-1.00,-2.00,-2.00
+4.00,+0.00,-8.00,-2.00,-3.00,-2.00,-3.00,+4.00,-11.00,+14.00,+5.00,+0.00,-1.00,+2.00,+0.00,-6.00
-9.00,-9.00,-2.00,+2.00,-1.00,-2.00,-2.00,-5.00,+3.00,-28.00,-18.00,-4.00,-3.00,-4.00,+4.00,+9.00
-6.00,-1.00,+15.00,+2.00,+3.00,+1.00,+0.00,+0.00,-6.00,-4.00,+1.00,+0.00,-1.00,-1.00,-3.00,-3.00
+15.00,+15.00,-7.00,-2.00,-2.00,+0.00,+0.00,-3.00,+4.00,+2.00,-1.00,+4.00,+0.00,+0.00,-3.00,+1.00
-2.00,+15.00,-1.00,-4.00,-4.00,-1.00,+0.00,-1.00,+9.00,-3.00,-5.00,+0.00,-2.00,-2.00,-1.00,-2.00
-2.00,-3.00,+4.00,+4.00,+1.00,+0.00,-1.00,+3.00,-4.00,+11.00,+6.00,-5.00,-3.00,-1.00,-7.00,-3.00
+4.00,+2.00,+4.00,+2.00,-3.00,-3.00,-2.00,-3.00,-10.00,-18.00,-8.00,-4.00,-3.00,-2.00,-5.00,-7.00
-9.00,-19.00,-5.00,-4.00,+4.00,+1.00,+2.00,+3.00,+5.00,+3.00,-1.00,-1.00,-1.00,-2.00,+2.00,-3.00
+13.00,-5.00,-14.00,-5.00,-2.00,-2.00,-1.00,-2.00,+4.00,+7.00,+1.00,-2.00,+0.00,+0.00,+3.00,+8.00
+5.00,+12.00,+2.00,+0.00,-2.00,+0.00,-3.00,-2.00,-3.00,+5.00,-3.00,+1.00,+0.00,-2.00,-7.00,-6.00
-2.00,+0.00,-1.00,+0.00,-1.00,-2.00,+2.00,+6.00,-7.00,-10.00,-7.00,-2.00,-2.00,-2.00,-4.00,-8.00
-9.00,-12.00,+6.00,+2.00,+1.00,+1.00,+1.00,-5.00,+3.00,+5.00,+3.00,-1.00,+0.00,+1.00,-6.00,-9.00
+7.00,+12.00,+6.00,+3.00,+0.00,+1.00,-1.00,+1.00,-1.00,-4.00,-1.00,-1.00,-1.00,+1.00,+20.00,+13.00
-3.00,-5.00,+1.00,-1.00,-1.00,+0.00,-2.00,+1.00,+10.00,+7.00,+4.00,-1.00,-1.00,-1.00,+1.00,+6.00
-4.00,-8.00,-15.00,-6.00,-2.00,-2.00,-2.00,-16.00,-8.00,+7.00,+8.00,+3.00,+0.00,+0.00,+0.00,+0.00
-3.00,-3.00,+3.00,+1.00,-2.00,-1.00,+1.00,+2.00,-9.00,-19.00,-7.00,-2.00,-3.00,-3.00,-11.00,-3.00
-9.00,-3.00,+1.00,+2.00,+0.00,-2.00,-1.00,-4.00,+1.00,-4.00,+0.00,-1.00,-2.00,-2.00,-20.00,-11.00
+7.00,-1.00,+5.00,+0.00,-1.00,+1.00,+0.00,+5.00,+4.00,+3.00,+3.00,+1.00,+0.00,+0.00,+4.00,-3.00
+6.00,+11.00,-5.00,-5.00,-1.00,-2.00,-4.00,+2.00,+1.00,+8.00,+3.00,-3.00,-1.00,-4.00,+3.00,+3.00
-6.00,-5.00,-5.00,-2.00,-3.00,-2.00,-1.00,-2.00,-9.00,-2.00,-1.00,-1.00,-4.00,-2.00,-5.00,-1.00
-1.00,-6.00,+9.00,+1.00,-1.00,-2.00,-1.00,+6.00,+1.00,+2.00,-5.00,+1.00,-2.00,-2.00,+1.00,+13.00
-1.00,-12.00,-18.00,-5.00,-4.00,-5.00,-14.00,+0.00,-9.00,-15.00,-1.00,+1.00,+1.00,-1.00,+5.00,-7.00
+7.00,+15.00,+0.00,-1.00,+0.00,+0.00,+11.00,-2.00,+17.00,+7.00,+0.00,+2.00,-1.00,+3.00,+7.00,+7.00
-2.00,+9.00,+6.00,-4.00,-2.00,-2.00,+3.00,-1.00,-7.00,+9.00,+6.00,+1.00,+3.00,+2.00,+13.00,+16.00
-5.00,-28.00,-16.00,+1.00,+2.00,+2.00,-3.00,+22.00,+2.00,+3.00,+0.00,-2.00,-1.00,-1.00,-12.00,-10.00
-11.00,-4.00,+6.00,+0.00,+1.00,+1.00,+4.00,-43.00,-6.00,-19.00,-10.00,-5.00,-2.00,-5.00,-7.00,-5.00
+10.00,+3.00,-6.00,-1.00,+0.00,+1.00,+0.00,+16.00,+2.00,+12.00,+2.00,+1.00,+1.00,-2.00,+3.00,+3.00
-1.00,+1.00,-8.00,-2.00,-3.00,-3.00,-4.00,-1.00,+3.00,+2.00,-1.00,-1.00,-1.00,-1.00,-5.00,-7.00
+2.00,+10.00,+8.00,-1.00,-1.00,-2.00,+3.00,+0.00,+8.00,+11.00,+7.00,+4.00,+3.00,+1.00,+0.00,-1.00
-4.00,+3.00,-1.00,+1.00,+1.00,-1.00,-6.00,-1.00,-5.00,-11.00,-13.00,-2.00,-1.00,-2.00,+1.00,+1.00
-2.00,-9.00,-1.00,+1.00,-1.00,+0.00,-3.00,-10.00,+7.00,-1.00,+3.00,+0.00,+3.00,+0.00,-5.00,-6.00
+2.00,+2.00,+5.00,+4.00,+3.00,+0.00,+0.00,+2.00,+4.00,-24.00,-9.00,-3.00,-2.00,+1.00,+6.00,+3.00
+3.00,+1.00,+1.00,-2.00,-4.00,-3.00,-6.00,-3.00,-46.00,-27.00,+2.00,+2.00,+2.00,-1.00,+1.00,-13.00
-19.00,+1.00,+2.00,+0.00,+0.00,+0.00,+3.00,+4.00,+15.00,+26.00,+3.00,-2.00,-3.00,+3.00,-2.00,+2.00
-4.00,-8.00,-5.00,-7.00,-6.00,-5.00,-11.00,-9.00,+17.00,+6.00,-13.00,-4.00,-3.00,+0.00,-4.00,+7.00
+14.00,-13.00,-1.00,-2.00,-1.00,+1.00,+4.00,+19.00,-39.00,-56.00,-3.00,+0.00,+0.00,-4.00,+8.00,+5.00
-12.00,+6.00,-8.00,-5.00,+1.00,+0.00,-10.00,-21.00,-43.00,-74.00,-14.00,-4.00,+0.00,-4.00,-6.00,-11.00
+7.00,-5.00,+6.00,+4.00,+0.00,+0.00,+9.00,-15.00,+23.00,+79.00,+26.00,+7.00,+4.00,+0.00,-2.00,-3.00
-11.00,+13.00,+6.00,-2.00,-2.00,+0.00,+13.00,+1.00,+6.00,+12.00,-1.00,-3.00,-2.00,-3.00,-4.00,+1.00
-10.00,-29.00,-5.00,+0.00,+2.00,+0.00,-10.00,+0.00,+17.00,+22.00,-1.00,-1.00,-1.00,+2.00,-3.00,-2.00
+25.00,-5.00,-2.00,+3.00,+1.00,+3.00,+10.00,+8.00,+3.00,-9.00,-7.00,-3.00,-3.00,+0.00,+0.00,+2.00
-2.00,+7.00,-9.00,-5.00,-2.00,-3.00,-10.00,+7.00,-28.00,-47.00,-8.00,-1.00,-3.00,-3.00,+0.00,+1.00
+1.00,-21.00,+4.00,+5.00,+1.00,-1.00,-8.00,-4.00,+8.00,+22.00,+9.00,+8.00,+5.00,+3.00,+3.00,+2.00
+2.00,+10.00,+0.00,-2.00,-2.00,+2.00,+11.00,-7.00,+1.00,-4.00,-4.00,-6.00,-7.00,-2.00,-2.00,-3.00
-4.00,+8.00,+3.00,+1.00,-2.00,+0.00,+4.00,-11.00,+7.00,+5.00,-2.00,-4.00,-3.00,-3.00,-2.00,-2.00
-1.00,-3.00,+3.00,+4.00,+5.00,-1.00,-6.00,+16.00,+5.00,+4.00,-1.00,-2.00,-2.00,+0.00,-2.00,-1.00
+4.00,+7.00,+9.00,+0.00,+2.00,-1.00,-8.00,+0.00,-14.00,-9.00,-1.00,+2.00,-1.00,-2.00,+0.00,-4.00
-4.00,+5.00,-11.00,-6.00,-3.00,-2.00,-6.00,-4.00,-4.00,+6.00,+1.00,+2.00,+0.00,-4.00,+0.00,-4.00
-9.00,-6.00,-6.00,-6.00,-1.00,-4.00,-3.00,-2.00,+17.00,+16.00,+3.00,+2.00,-2.00,+1.00,+0.00,+3.00
+2.00,-3.00,-1.00,+0.00,-2.00,+0.00,+3.00,+7.00,-10.00,-13.00,-4.00,-5.00,-3.00,-1.00,+0.00,+0.00
+0.00,+3.00,-2.00,-3.00,-2.00,-2.00,-1.00,+2.00,-27.00,-31.00,-6.00,-2.00,-2.00,-1.00,-3.00,-5.00
-3.00,+19.00,+1.00,+2.00,+3.00,+0.00,+0.00,-9.00,+19.00,+59.00,+11.00,+2.00,+1.00,+2.00,-4.00,-4.00
-9.00,-3.00,+5.00,-4.00,-4.00,-1.00,-2.00,-6.00,+18.00,+27.00,+7.00,-1.00,+0.00,-3.00,+1.00,+0.00
+0.00,-31.00,-13.00,-7.00,-3.00,-2.00,-1.00,-4.00,-6.00,-17.00,-4.00,+1.00,-1.00,-1.00,-5.00,-1.00
+7.00,+4.00,+4.00,+7.00,+1.00,+3.00,+1.00,+7.00,-15.00,-19.00,-1.00,-2.00,-3.00,-1.00,-3.00,-5.00
-6.00,-6.00,+2.00,-1.00,-2.00,-2.00,+2.00,-10.00,-6.00,-3.00,-4.00,-1.00,+1.00,-2.00,-2.00,-3.00
+13.00,+22.00,+2.00,+1.00,+0.00,+0.00,-1.00,+5.00,+6.00,-2.00,-5.00,-3.00,-1.00,+1.00,+2.00,-1.00
+2.00,-7.00,-2.00,-3.00,-1.00,+0.00,-3.00,+5.00,-7.00,-13.00,-3.00,+1.00,-2.00,+1.00,+3.00,+3.00
-8.00,+0.00,+12.00,-1.00,+0.00,+0.00,+4.00,-3.00,+10.00,+17.00,+3.00,-5.00,-1.00,-2.00,-3.00,-4.00
-5.00,-11.00,-13.00,+0.00,+1.00,-2.00,-3.00,+1.00,-4.00,-4.00,-1.00,-1.00,-1.00,-4.00,-3.00,-3.00
-7.00,+4.00,+4.00,-4.00,-1.00,-2.00,-2.00,-6.00,+0.00,-2.00,-3.00,+1.00,-1.00,+1.00,+3.00,+0.00
+8.00,-3.00,-2.00,-5.00,-3.00,-1.00,+3.00,+2.00,-1.00,+0.00,-1.00,+0.00,+0.00,+0.00,-1.00,-2.00
+2.00,-3.00,-12.00,-1.00,-2.00,-1.00,-6.00,-1.00,+1.00,-5.00,-1.00,-2.00,-3.00,-2.00,-2.00,-1.00
+0.00,+6.00,+7.00,+0.00,-2.00,-3.00,-6.00,-2.00,-9.00,-18.00,-5.00,-3.00,-1.00,-2.00,-2.00,+0.00
