+4.00,+5.00,+6.00,+1.00,+2.00,+3.00,+2.00,+1.00,-3.00,-4.00,-2.00,+1.00,+4.00,+1.00,-1.00,-3.00
-6.00,+4.00,+0.00,+0.00,+1.00,-1.00,-4.00,-3.00,-7.00,-6.00,-6.00,-2.00,+2.00,-2.00,-1.00,-3.00
+5.00,+15.00,+2.00,+1.00,-1.00,+0.00,-2.00,+1.00,+1.00,-3.00,-2.00,-1.00,-7.00,-3.00,+0.00,-1.00
+16.00,-9.00,+0.00,+1.00,+2.00,+0.00,+2.00,+13.00,-2.00,-2.00,-2.00,+0.00,-1.00,+1.00,-1.00,-3.00
-8.00,-7.00,-7.00,-3.00,-3.00,-3.00,+1.00,-4.00,-1.00,+5.00,+4.00,+0.00,+0.00,-1.00,-3.00,-4.00
-5.00,+2.00,-2.00,-4.00,-4.00,-1.00,-1.00,-2.00,+0.00,-2.00,+4.00,+1.00,-1.00,+1.00,+2.00,+5.00
-1.00,-8.00,-1.00,+0.00,-1.00,-2.00,-2.00,-5.00,-4.00,-5.00,-3.00,-1.00,-1.00,-1.00,-1.00,-2.00
+0.00,+8.00,+2.00,+1.00,+1.00,+1.00,-1.00,-1.00,-1.00,+0.00,+0.00,-3.00,-3.00,-3.00,+0.00,-2.00
+1.00,-5.00,-2.00,+3.00,+1.00,-2.00,-2.00,+0.00,+1.00,-3.00,-5.00,+0.00,-1.00,-1.00,+0.00,-2.00
+3.00,+0.00,+2.00,+3.00,-8.00,-5.00,-2.00,+2.00,+0.00,+6.00,+2.00,-2.00,-1.00,-1.00,-2.00,-3.00
+0.00,+1.00,-4.00,+0.00,+11.00,+7.00,+1.00,-7.00,-4.00,-17.00,-3.00,+3.00,+13.00,+0.00,-1.00,-3.00
-8.00,-1.00,-6.00,-7.00,-2.00,-2.00,-2.00,-4.00,+3.00,+22.00,+1.00,+3.00,+1.00,+0.00,-2.00,+0.00
+4.00,+1.00,+0.00,-8.00,-7.00,+0.00,-1.00,+2.00,-2.00,+0.00,-1.00,-6.00,-21.00,-5.00,-2.00,+0.00
-12.00,-3.00,-3.00,+0.00,-2.00,-2.00,-1.00,-7.00,+0.00,+3.00,-1.00,-3.00,-2.00,-2.00,-2.00,-5.00
+2.00,-1.00,+2.00,+5.00,-5.00,-4.00,-2.00,-1.00,-2.00,-6.00,-3.00,-7.00,-14.00,-2.00,+0.00,+2.00
+2.00,+3.00,+7.00,+6.00,+2.00,+0.00,+1.00,-2.00,+0.00,-3.00,-3.00,+1.00,+7.00,+0.00,-1.00,-1.00
-4.00,-6.00,-4.00,+0.00,+3.00,-2.00,-1.00,+1.00,-2.00,-4.00,-2.00,+2.00,+9.00,+1.00,+0.00,-2.00
+2.00,-5.00,+0.00,-5.00,+0.00,-1.00,-1.00,+0.00,+2.00,+1.00,-2.00,+2.00,+0.00,+0.00,-2.00,-4.00
-15.00,-2.00,-1.00,-5.00,-3.00,-2.00,-3.00,-6.00,-3.00,-4.00,+1.00,+2.00,+2.00,+1.00,-2.00,-4.00
-5.00,+1.00,-4.00,+2.00,+1.00,+1.00,+0.00,-4.00,-3.00,-11.00,-3.00,-2.00,-1.00,-1.00,-3.00,-3.00
-2.00,+12.00,+8.00,+9.00,-1.00,-3.00,+0.00,-1.00,+5.00,+11.00,+1.00,+1.00,+2.00,+1.00,+1.00,+1.00
-1.00,-16.00,+2.00,+3.00,+1.00,+1.00,+2.00,+1.00,+2.00,+0.00,-5.00,-2.00,-4.00,+0.00,+0.00,+1.00
+0.00,-19.00,-15.00,-13.00,-2.00,-2.00,+0.00,+3.00,+1.00,+7.00,+1.00,+0.00,+2.00,+0.00,+0.00,-2.00
-1.00,+16.00,+5.00,-6.00,-10.00,-3.00,-1.00,-1.00,-3.00,-10.00,+0.00,+1.00,-3.00,-2.00,-3.00,-4.00
+5.00,+10.00,-5.00,-9.00,+2.00,+0.00,+0.00,-1.00,-8.00,-7.00,+3.00,-2.00,+0.00,-2.00,-3.00,-6.00
-1.00,-7.00,-8.00,-6.00,+5.00,+2.00,-2.00,+0.00,-2.00,-14.00,-7.00,+4.00,+19.00,+2.00,+0.00,-1.00
+1.00,+2.00,+8.00,+7.00,-2.00,+2.00,+0.00,+1.00,+1.00,+14.00,+5.00,-2.00,-11.00,-4.00,-4.00,-1.00
-5.00,-3.00,+9.00,+8.00,+7.00,+1.00,-2.00,-3.00,+0.00,+4.00,-1.00,-2.00,-12.00,+0.00,+0.00,+3.00
+0.00,-3.00,+0.00,+4.00,-14.00,-3.00,-2.00,+1.00,-1.00,-17.00,-6.00,+3.00,+10.00,+2.00,+2.00,+3.00
-4.00,-1.00,-3.00,+3.00,-2.00,-1.00,+0.00,+0.00,+1.00,+20.00,-1.00,-7.00,-17.00,-5.00,-1.00,-6.00
+4.00,-28.00,-1.00,-1.00,-5.00,-4.00,-2.00,+1.00,+5.00,+8.00,-2.00,-2.00,+5.00,+0.00,+0.00,+3.00
+2.00,+11.00,-12.00,-13.00,-2.00,-1.00,-1.00,+6.00,-3.00,-8.00,-5.00,-3.00,+3.00,+1.00,-1.00,-2.00
-16.00,-15.00,-4.00,-7.00,+1.00,-2.00,-4.00,-19.00,-11.00,-28.00,-4.00,-1.00,+0.00,+0.00,+1.00,-5.00
-2.00,-2.00,-4.00,-5.00,-2.00,-4.00,-4.00,+1.00,+8.00,+16.00,+10.00,+1.00,+1.00,-4.00,+0.00,+6.00
+3.00,-13.00,+6.00,+11.00,+10.00,+2.00,+0.00,+2.00,-16.00,-8.00,-9.00,-2.00,+6.00,+2.00,-3.00,-4.00
+15.00,+38.00,+17.00,+12.00,-7.00,-1.00,+2.00,+8.00,+3.00,+10.00,+4.00,-2.00,-8.00,-4.00,-1.00,-1.00
-1.00,+0.00,-6.00,-14.00,+0.00,+0.00,+0.00,+1.00,+2.00,+1.00,-1.00,+0.00,+0.00,+1.00,+2.00,+4.00
-9.00,-26.00,-22.00,-12.00,-16.00,-9.00,-5.00,-6.00,-3.00,-13.00,-1.00,+3.00,-6.00,-2.00,-3.00,-3.00
-2.00,-13.00,+7.00,+9.00,+31.00,+17.00,+4.00,+1.00,+4.00,+7.00,+4.00,-4.00,-3.00,-4.00,-2.00,-2.00
+9.00,+32.00,+1.00,+0.00,+5.00,+2.00,+0.00,-4.00,-4.00,-15.00,+0.00,+20.00,+36.00,+4.00,+1.00,+0.00
+0.00,+14.00,+10.00,+9.00,+2.00,+1.00,+1.00,+4.00,-16.00,+4.00,-5.00,-31.00,-53.00,-12.00,-7.00,-4.00
+1.00,+12.00,+9.00,+5.00,+1.00,+1.00,+0.00,-1.00,+1.00,-2.00,-6.00,-15.00,-18.00,-3.00,-1.00,+0.00
+0.00,+8.00,+0.00,+0.00,-8.00,-7.00,+0.00,+1.00,-3.00,-3.00,-3.00,-4.00,-11.00,-1.00,-2.00,-3.00
-17.00,-35.00,-16.00,-1.00,+0.00,-2.00,-1.00,-6.00,+3.00,+2.00,-1.00,+3.00,+12.00,+3.00,+2.00,+3.00
-3.00,-17.00,+4.00,+3.00,-1.00,+1.00,-2.00,-1.00,+11.00,+5.00,+3.00,+9.00,+20.00,+1.00,+0.00,+2.00
-4.00,+11.00,+13.00,+8.00,+5.00,+0.00,+1.00,+4.00,+0.00,+2.00,-2.00,+1.00,+0.00,-1.00,-3.00,+0.00
+7.00,+12.00,-5.00,-13.00,-10.00,-5.00,-2.00,+0.00,+0.00,-3.00,+0.00,+5.00,+9.00,+1.00,-1.00,+0.00
-15.00,+14.00,-24.00,-20.00,-5.00,-3.00,-3.00,+2.00,-3.00,-8.00,-4.00,-5.00,-10.00,-4.00,-1.00,-4.00
+3.00,+0.00,-11.00,+3.00,+8.00,-4.00,-1.00,+2.00,-4.00,-12.00,-2.00,+0.00,+3.00,+0.00,-1.00,-4.00
+1.00,-5.00,-2.00,-2.00,-5.00,+3.00,+0.00,-2.00,-5.00,+10.00,+5.00,-3.00,-4.00,-3.00,-2.00,+0.00
-4.00,-9.00,-2.00,-6.00,-9.00,-5.00,-3.00,-3.00,-7.00,-11.00,-3.00,+3.00,+7.00,+0.00,-2.00,-7.00
-5.00,-9.00,+10.00,+6.00,+3.00,+0.00,-2.00,-4.00,+9.00,+21.00,+7.00,-1.00,-8.00,-1.00,+0.00,+7.00
+4.00,+46.00,+9.00,+6.00,+7.00,+1.00,-1.00,+0.00,+4.00,+5.00,-3.00,-1.00,-8.00,-2.00,-2.00,-1.00
+1.00,+1.00,+9.00,+7.00,+6.00,+3.00,+1.00,+2.00,-9.00,-14.00,-2.00,+7.00,+12.00,+2.00,+0.00,+2.00
-5.00,-3.00,-4.00,-6.00,-7.00,-4.00,-1.00,-6.00,+4.00,-5.00,-8.00,-3.00,-3.00,-2.00,-2.00,+2.00
-4.00,-27.00,-9.00,-8.00,-5.00,+0.00,-1.00,-3.00,-5.00,-19.00,-8.00,-8.00,-10.00,-2.00,+1.00,-1.00
+0.00,-17.00,+8.00,+14.00,+9.00,-2.00,+0.00,+3.00,+11.00,+43.00,+1.00,-1.00,+6.00,+0.00,-3.00,-4.00
-20.00,+4.00,+7.00,-9.00,-13.00,-8.00,-2.00,-17.00,-9.00,-19.00,-7.00,+2.00,+5.00,+1.00,+0.00,-3.00
-10.00,-17.00,-12.00,-20.00,-3.00,+3.00,-1.00,-4.00,+1.00,+10.00,+8.00,+12.00,+28.00,+5.00,+4.00,+2.00
-4.00,-9.00,-15.00,-5.00,+2.00,-3.00,-2.00,-3.00,+2.00,-7.00,-3.00,-8.00,-31.00,-6.00,-4.00,-2.00
-6.00,-18.00,-9.00,-11.00,-10.00,-1.00,-1.00,+0.00,+0.00,+1.00,+2.00,-17.00,-28.00,-7.00,-3.00,-1.00
+24.00,+33.00,+7.00,+5.00,+4.00,+1.00,+0.00,-1.00,-3.00,+0.00,-5.00,-4.00,-4.00,-2.00,-1.00,-1.00
+12.00,+47.00,+14.00,+13.00,-3.00,-3.00,-2.00,+9.00,-13.00,-24.00,-2.00,-5.00,-4.00,-1.00,-2.00,-4.00
-18.00,-28.00,+7.00,+6.00,+4.00,+2.00,-3.00,-10.00,-6.00,-8.00,-9.00,+1.00,+16.00,+2.00,-1.00,-4.00
+4.00,+6.00,+1.00,+2.00,+1.00,+0.00,-1.00,-2.00,+13.00,+15.00,+6.00,+11.00,+19.00,+4.00,+2.00,+5.00
-14.00,-19.00,-8.00,-1.00,+0.00,-2.00,-1.00,-5.00,-6.00,+5.00,+1.00,+1.00,-7.00,-1.00,-4.00,-5.00
-4.00,+1.00,+0.00,-1.00,+1.00,-2.00,-1.00,-5.00,+11.00,+8.00,+1.00,+0.00,-4.00,-1.00,+1.00,+1.00
+9.00,+3.00,+0.00,+3.00,-1.00,-1.00,-2.00,+2.00,-1.00,-9.00,-2.00,-1.00,-2.00,-1.00,-3.00,-1.00
-2.00,-8.00,+0.00,-3.00,-5.00,-2.00,-1.00,-1.00,-1.00,+2.00,+2.00,+2.00,+1.00,+0.00,+1.00,+0.00
+4.00,-7.00,-7.00,-7.00,+6.00,+1.00,-2.00,-1.00,-3.00,-15.00,-4.00,-3.00,+3.00,-3.00,-1.00,-2.00
-3.00,-3.00,-12.00,+3.00,-11.00,-3.00,-2.00,+3.00,-1.00,-8.00,-1.00,-1.00,-2.00,+0.00,-2.00,-3.00
-1.00,+17.00,+2.00,-7.00,-4.00,-2.00,-1.00,-1.00,-5.00,+27.00,+10.00,-2.00,+1.00,-2.00,+0.00,+0.00
+3.00,-32.00,-4.00,-14.00,-12.00,-4.00,-1.00,+4.00,+2.00,-12.00,-4.00,+1.00,-2.00,-1.00,-1.00,+1.00
+8.00,+46.00,-16.00,-12.00,+1.00,-1.00,-1.00,+1.00,+1.00,+14.00,+7.00,+1.00,+6.00,+2.00,+1.00,-5.00
+5.00,+30.00,+7.00,+9.00,+4.00,-2.00,+0.00,-7.00,-6.00,-11.00,-5.00,-4.00,-11.00,-3.00,+1.00,+1.00
+6.00,-26.00,+11.00,+8.00,-1.00,+0.00,+2.00,+20.00,-6.00,-9.00,+1.00,-2.00,+9.00,-1.00,-1.00,+0.00
-11.00,-17.00,-4.00,+3.00,+4.00,-2.00,-2.00,-6.00,-8.00,-18.00,-10.00,-9.00,-14.00,-3.00,-3.00,-7.00
-31.00,-12.00,+0.00,+0.00,-2.00,+1.00,-1.00,+3.00,-3.00,-7.00,-2.00,+1.00,+4.00,+2.00,+1.00,+6.00
+3.00,-6.00,-3.00,-2.00,+1.00,-2.00,-1.00,+2.00,+5.00,+15.00,-1.00,-4.00,-13.00,-4.00,-5.00,-6.00
+4.00,-3.00,-3.00,+1.00,+0.00,-1.00,+1.00,-3.00,+0.00,+5.00,+2.00,-8.00,-10.00,-4.00,-3.00,-1.00
-22.00,-1.00,-1.00,-3.00,-1.00,-1.00,-2.00,-2.00,-5.00,+1.00,-6.00,+9.00,+16.00,+1.00,-1.00,-4.00
+3.00,-42.00,-3.00,+4.00,-1.00,+0.00,+1.00,+4.00,+9.00,-5.00,-5.00,-3.00,-3.00,-3.00,-5.00,-9.00
+9.00,+59.00,+6.00,+3.00,+1.00,+4.00,+2.00,+5.00,-1.00,+3.00,+0.00,-1.00,-1.00,+0.00,-2.00,-1.00
-20.00,-19.00,-4.00,-6.00,-3.00,-3.00,-3.00,-8.00,-14.00,-14.00,-4.00,-1.00,+4.00,+0.00,+1.00,-4.00
+3.00,-8.00,+4.00,+1.00,-3.00,+1.00,+1.00,+12.00,-2.00,-15.00,+0.00,+3.00,+4.00,-1.00,+0.00,+2.00
+19.00,-10.00,-3.00,+2.00,+7.00,+3.00,+1.00,+3.00,+9.00,+9.00,-7.00,-3.00,+1.00,+0.00,-3.00,-8.00
-22.00,-8.00,-4.00,-9.00,+3.00,-2.00,-5.00,-17.00,+8.00,+18.00,+10.00,+5.00,+4.00,+2.00,+2.00,+9.00
+3.00,+15.00,-2.00,+6.00,+0.00,+3.00,+1.00,-1.00,-5.00,-12.00,-1.00,-5.00,-16.00,-2.00,+0.00,+5.00
-3.00,-13.00,-3.00,-1.00,-2.00,-5.00,-2.00,-8.00,+7.00,+13.00,+6.00,+4.00,+7.00,+1.00,+0.00,+3.00
+23.00,+4.00,+7.00,-3.00,-12.00,-10.00,-2.00,+9.00,-9.00,-8.00,-6.00,-9.00,-6.00,-4.00,-3.00,-4.00
-1.00,+0.00,-2.00,-12.00,-3.00,+5.00,+2.00,+9.00,+13.00,+12.00,+3.00,+12.00,+30.00,+3.00,+1.00,+3.00
-3.00,-6.00,-6.00,-4.00,+4.00,-3.00,-1.00,-7.00,-13.00,-14.00,-4.00,-2.00,-15.00,+0.00,+4.00,+0.00
-3.00,+12.00,-8.00,+4.00,+4.00,+5.00,+0.00,-7.00,+5.00,-8.00,-1.00,+1.00,+7.00,+0.00,-2.00,-4.00
-12.00,-1.00,+13.00,+12.00,+5.00,+0.00,-1.00,-7.00,+11.00,+9.00,+4.00,-4.00,-13.00,-3.00,+2.00,+11.00
+6.00,-22.00,+3.00,+6.00,+1.00,-2.00,-2.00,-2.00,+1.00,-6.00,-10.00,-18.00,-28.00,-7.00,-4.00,-6.00
-16.00,+6.00,-11.00,-10.00,-10.00,-8.00,-4.00,-10.00,+0.00,-8.00,-1.00,+6.00,+21.00,+3.00,+1.00,-1.00
+16.00,-12.00,+8.00,+2.00,+6.00,+1.00,+3.00,+7.00,+0.00,+16.00,+1.00,+1.00,+11.00,-2.00,+0.00,-3.00
-4.00,+13.00,-7.00,-5.00,-5.00,+1.00,+0.00,-2.00,-21.00,-20.00,-1.00,+9.00,+8.00,+3.00,+0.00,-1.00
+8.00,-19.00,+1.00,+1.00,-14.00,-9.00,-2.00,+2.00,+5.00,+1.00,-2.00,-3.00,-1.00,+1.00,+2.00,+4.00
-1.00,-1.00,+4.00,+6.00,+12.00,+9.00,+1.00,+1.00,+2.00,+3.00,+1.00,-2.00,-1.00,-1.00,-3.00,-4.00
+2.00,+0.00,+3.00,+5.00,-4.00,-3.00,+0.00,-2.00,-14.00,-7.00,-3.00,+6.00,+7.00,+4.00,+0.00,-3.00
+6.00,+13.00,-1.00,-6.00,+6.00,-1.00,-2.00,+1.00,+13.00,-5.00,+0.00,-5.00,-6.00,-2.00,+1.00,+8.00
-39.00,-11.00,-27.00,-26.00,-21.00,-7.00,-7.00,-20.00,-19.00,-7.00,+1.00,-2.00,-5.00,-1.00,-1.00,-6.00
+14.00,+10.00,+6.00,+0.00,-11.00,-8.00,-2.00,-3.00,+17.00,+20.00,-5.00,-1.00,-1.00,-3.00,-2.00,+0.00
+17.00,+23.00,+5.00,+7.00,+2.00,+4.00,+3.00,+2.00,-22.00,-11.00,-3.00,-9.00,-2.00,-2.00,-1.00,-4.00
-22.00,+3.00,-2.00,+4.00,+1.00,+1.00,+1.00,+6.00,+5.00,+2.00,+5.00,+14.00,+27.00,+5.00,+2.00,-2.00
-23.00,-60.00,-11.00,-2.00,+6.00,+0.00,-1.00,-5.00,+6.00,+1.00,-6.00,-14.00,-44.00,-7.00,-3.00,-2.00
+31.00,+9.00,+22.00,+0.00,+4.00,-6.00,-1.00,+1.00,+29.00,+12.00,+5.00,-8.00,-3.00,-5.00,-3.00,+0.00
+6.00,+53.00,+1.00,+3.00,+5.00,+6.00,+3.00,+4.00,-17.00,-21.00,-7.00,+5.00,+23.00,+1.00,+0.00,+4.00
+18.00,+19.00,+4.00,+8.00,+7.00,+12.00,+1.00,+1.00,-24.00,+8.00,+1.00,-7.00,-28.00,-4.00,+0.00,-14.00
+7.00,+19.00,+12.00,+7.00,+3.00,+0.00,+0.00,+1.00,-5.00,-6.00,-2.00,+10.00,+15.00,+1.00,+3.00,+8.00
-23.00,-30.00,-18.00,-12.00,-8.00,-7.00,-3.00,-6.00,-4.00,-1.00,-3.00,-15.00,-33.00,-5.00,-3.00,-2.00
-5.00,-4.00,-13.00,-9.00,-12.00,-8.00,-4.00,-3.00,+18.00,-3.00,-3.00,-5.00,-7.00,-2.00,+0.00,+4.00
+0.00,-23.00,-6.00,-10.00,-5.00,+0.00,+0.00,-3.00,+6.00,+13.00,+4.00,+0.00,+3.00,-2.00,-2.00,+0.00
-6.00,+20.00,-3.00,+3.00,+2.00,-2.00,+0.00,+1.00,-12.00,-10.00,-3.00,+5.00,+22.00,+3.00,+0.00,-8.00
+4.00,-19.00,+8.00,+9.00,+4.00,+8.00,+4.00,+2.00,+4.00,+3.00,+2.00,+3.00,+0.00,-1.00,-4.00,-10.00
-5.00,-16.00,+4.00,+1.00,+1.00,-1.00,-1.00,-2.00,-2.00,-6.00,-4.00,-2.00,-6.00,-2.00,-1.00,+1.00
-1.00,+21.00,-3.00,+1.00,+5.00,-1.00,-1.00,-2.00,+2.00,-5.00,-5.00,+2.00,+12.00,+2.00,+0.00,-5.00
+18.00,-2.00,+6.00,+4.00,+3.00,+2.00,+0.00,+4.00,-1.00,+5.00,+3.00,-1.00,-22.00,-5.00,-4.00,-2.00
+13.00,+39.00,+6.00,+2.00,-5.00,-2.00,-1.00,-2.00,-10.00,-13.00,-8.00,+4.00,+17.00,+2.00,+1.00,+0.00
-16.00,-8.00,-9.00,-7.00,+3.00,+0.00,-1.00,-4.00,-5.00,-6.00,-3.00,-4.00,-14.00,-3.00,-2.00,-7.00
-1.00,-13.00,+1.00,-5.00,-7.00,-6.00,-1.00,-4.00,+10.00,-2.00,+7.00,+1.00,+3.00,-1.00,+1.00,+7.00
+8.00,-17.00,-9.00,+2.00,+4.00,+3.00,+2.00,+4.00,+0.00,+6.00,-4.00,-4.00,+2.00,-1.00,-3.00,-3.00
+4.00,-3.00,+13.00,+3.00,+2.00,+3.00,+1.00,-1.00,-9.00,+3.00,+4.00,+5.00,+3.00,+0.00,-1.00,-2.00
-5.00,-14.00,-15.00,-14.00,-3.00,-3.00,-3.00,-6.00,+0.00,+0.00,+0.00,+0.00,-4.00,-1.00,-1.00,-2.00
+6.00,-16.00,-9.00,-1.00,-6.00,-1.00,+0.00,+4.00,-2.00,+7.00,+1.00,-6.00,-7.00,-3.00,-5.00,+1.00
+11.00,+25.00,+19.00,+12.00,+7.00,+2.00,+2.00,+2.00,+4.00,-7.00,+2.00,-3.00,+2.00,-3.00,-3.00,+0.00
-13.00,-20.00,-12.00,-6.00,-6.00,-3.00,-2.00,+0.00,-4.00,+0.00,-1.00,+3.00,+0.00,+1.00,+1.00,+8.00
+6.00,+15.00,+11.00,+5.00,+9.00,+5.00,+0.00,+4.00,+19.00,+11.00,+4.00,+8.00,+8.00,+2.00,+2.00,+1.00
+7.00,+25.00,+0.00,-5.00,-7.00,-3.00,-1.00,-1.00,-17.00,-4.00,-1.00,-2.00,-5.00,-2.00,-4.00,-6.00
+12.00,-18.00,-8.00,-5.00,+1.00,+0.00,+0.00,+3.00,+2.00,-8.00,-6.00,-7.00,-9.00,-1.00,+0.00,+3.00
-6.00,-2.00,-4.00,+0.00,+0.00,-1.00,+0.00,+0.00,-15.00,-2.00,-1.00,+1.00,+1.00,-1.00,-2.00,-5.00
+4.00,-18.00,+0.00,-3.00,-4.00,-2.00,-2.00,+2.00,+6.00,+2.00,-4.00,-3.00,-3.00,-3.00,-4.00,-2.00
-9.00,-8.00,-8.00,-1.00,+4.00,-3.00,-2.00,-4.00,-4.00,-7.00,+0.00,+0.00,+4.00,-1.00,-2.00,-3.00
-8.00,+6.00,+5.00,+4.00,+1.00,+0.00,-2.00,-4.00,-7.00,+0.00,-7.00,-1.00,+4.00,+1.00,+0.00,-3.00
+14.00,+6.00,-1.00,-1.00,-12.00,-2.00,-2.00,-9.00,+5.00,+0.00,+2.00,-2.00,+1.00,-1.00,-1.00,-3.00
-9.00,+9.00,+2.00,-5.00,-6.00,-4.00,-2.00,+1.00,-2.00,-2.00,-4.00,-7.00,-17.00,-2.00,-1.00,+1.00
-8.00,+2.00,-1.00,+6.00,+1.00,+0.00,+0.00,-4.00,-2.00,-12.00,-6.00,-2.00,-3.00,+0.00,+2.00,+0.00
+4.00,-11.00,+0.00,-7.00,+6.00,-1.00,+0.00,+4.00,-4.00,+12.00,+4.00,+0.00,+3.00,-1.00,-1.00,-2.00
-10.00,-48.00,-11.00,-6.00,-2.00,+1.00,-1.00,+2.00,-5.00,-2.00,+1.00,+6.00,+7.00,+0.00,-2.00,-4.00
+29.00,+81.00,+4.00,+1.00,+0.00,+1.00,+1.00,+5.00,+5.00,+3.00,+4.00,+1.00,+11.00,+0.00,+0.00,-1.00
-13.00,-7.00,-4.00,-4.00,+1.00,-1.00,-3.00,-7.00,-16.00,-17.00,-7.00,-8.00,-20.00,-2.00,-2.00,-2.00
-1.00,+7.00,+5.00,+5.00,-2.00,+0.00,+0.00,+0.00,+9.00,-7.00,-3.00,-5.00,-18.00,-3.00,+3.00,+8.00
-1.00,+1.00,-10.00,-1.00,+0.00,-4.00,-1.00,+2.00,+5.00,+0.00,-6.00,-1.00,+3.00,+1.00,+0.00,+0.00
+8.00,-39.00,+4.00,+1.00,-4.00,-1.00,+0.00,+3.00,+0.00,+12.00,+4.00,+2.00,-1.00,+1.00,-2.00,-2.00
-4.00,-1.00,-3.00,-2.00,-1.00,-2.00,+0.00,+1.00,-3.00,-1.00,-4.00,-2.00,-1.00,-2.00,-2.00,-3.00
-9.00,-4.00,-2.00,-8.00,-6.00,-3.00,-3.00,-8.00,+4.00,-12.00,-3.00,+1.00,+6.00,+0.00,+0.00,+1.00
-11.00,+4.00,-11.00,-4.00,-1.00,-2.00,-2.00,-3.00,+4.00,+17.00,+2.00,-2.00,-3.00,-3.00,-3.00,-3.00
-2.00,-26.00,+1.00,+3.00,-1.00,-1.00,+1.00,+2.00,-5.00,+4.00,+6.00,+0.00,-7.00,-2.00,+1.00,+0.00
+10.00,+56.00,+20.00,+10.00,+1.00,+3.00,+3.00,+5.00,+13.00,+5.00,+3.00,+0.00,+3.00,+0.00,-1.00,-3.00
-9.00,-29.00,+7.00,+5.00,+0.00,+1.00,-1.00,-3.00,-25.00,-23.00,-5.00,+2.00,+10.00,+3.00,+0.00,-1.00
+15.00,+19.00,-1.00,-1.00,+4.00,+0.00,+2.00,+4.00,+4.00,-5.00,-1.00,+1.00,+10.00,+0.00,+0.00,-3.00
-20.00,+2.00,-11.00,-6.00,-1.00,-5.00,-4.00,-9.00,+3.00,-2.00,-2.00,-7.00,-32.00,-2.00,-1.00,-1.00
+1.00,-35.00,-15.00,-11.00,-4.00,-2.00,-3.00,-8.00,+3.00,+3.00,-1.00,+2.00,+11.00,-2.00,-2.00,+1.00
-4.00,-11.00,-1.00,-1.00,+9.00,-3.00,-3.00,+11.00,-1.00,-2.00,-3.00,-3.00,-8.00,-4.00,-3.00,-4.00
+10.00,+19.00,+23.00,+13.00,-12.00,+6.00,+3.00,+6.00,+2.00,+9.00,-1.00,-6.00,-3.00,-2.00,+0.00,+2.00
-9.00,-27.00,-10.00,-5.00,+7.00,+1.00,-1.00,-9.00,-27.00,-15.00,-5.00,+5.00,+19.00,+3.00,+3.00,-4.00
+7.00,+0.00,+4.00,+0.00,-6.00,-4.00,-1.00,-3.00,+15.00,+4.00,-6.00,-9.00,-27.00,-4.00,-2.00,+3.00
-33.00,-1.00,-4.00,+0.00,-7.00,-4.00,-4.00,-20.00,+1.00,+9.00,+5.00,+7.00,+12.00,+0.00,-3.00,-4.00
-8.00,-28.00,-7.00,-1.00,+12.00,+2.00,-2.00,-4.00,-6.00,-11.00,-2.00,-4.00,+0.00,+0.00,+1.00,+2.00
+5.00,+39.00,+5.00,+0.00,-3.00,-1.00,+2.00,+5.00,+6.00,+7.00,+0.00,+0.00,+3.00,-2.00,-3.00,-3.00
-4.00,-16.00,+1.00,-2.00,-3.00,-1.00,+0.00,+1.00,-4.00,-2.00,+2.00,+0.00,+4.00,+1.00,+2.00,-1.00
+8.00,+10.00,-9.00,-5.00,-5.00,-3.00,-1.00,+2.00,+0.00,-9.00,-6.00,+0.00,+5.00,-1.00,-1.00,-4.00
-9.00,-37.00,+0.00,-1.00,+4.00,-1.00,-2.00,+1.00,+7.00,-2.00,+2.00,+1.00,-8.00,+0.00,-1.00,+1.00
-16.00,+5.00,-13.00,+1.00,-2.00,+1.00,-4.00,-7.00,+0.00,+14.00,+1.00,+1.00,+3.00,-2.00,-3.00,-2.00
+30.00,+32.00,+17.00,+6.00,+4.00,+0.00,+2.00,+11.00,+3.00,-8.00,+6.00,+7.00,+6.00,+2.00,+1.00,+0.00
+8.00,+22.00,+4.00,+2.00,-8.00,-1.00,+0.00,+5.00,-10.00,+7.00,-6.00,-7.00,-6.00,+0.00,-2.00,+1.00
-6.00,+19.00,-7.00,-4.00,+0.00,-1.00,-3.00,-5.00,-5.00,-14.00,-2.00,+3.00,+9.00,+0.00,-1.00,-3.00
-3.00,-14.00,-8.00,-7.00,+2.00,-2.00,-2.00,-1.00,+3.00,+3.00,-1.00,-1.00,-11.00,-2.00,+2.00,+6.00
-15.00,-68.00,-6.00,-6.00,+2.00,+1.00,+0.00,-3.00,-2.00,+5.00,+3.00,+0.00,+10.00,-1.00,-2.00,-2.00
+1.00,+35.00,+6.00,+6.00,-1.00,-1.00,-1.00,+5.00,+12.00,+14.00,+6.00,-8.00,-25.00,-4.00,-2.00,+0.00
-1.00,+2.00,+9.00,+9.00,+8.00,+3.00,+1.00,+2.00,-6.00,-8.00,-5.00,+0.00,-2.00,+2.00,-2.00,-2.00
+7.00,+11.00,+0.00,-2.00,-7.00,-3.00,-2.00,-1.00,+0.00,-12.00,-6.00,-4.00,+2.00,+0.00,-1.00,-2.00
-11.00,-16.00,-9.00,-3.00,-3.00,-1.00,+1.00,-1.00,-5.00,-9.00,-5.00,+0.00,-1.00,+0.00,-1.00,-4.00
+7.00,+4.00,-6.00,-9.00,-8.00,-2.00,-1.00,+0.00,+7.00,+23.00,+7.00,+4.00,+10.00,+1.00,-1.00,-2.00
+4.00,+23.00,-2.00,-8.00,-6.00,-4.00,-1.00,+0.00,+2.00,-10.00,-3.00,-3.00,-3.00,-2.00,-2.00,-7.00
-4.00,-12.00,+1.00,+3.00,+4.00,+0.00,+0.00,+1.00,-9.00,+3.00,-2.00,-4.00,+1.00,-3.00,-1.00,+0.00
-5.00,-9.00,+6.00,+11.00,-6.00,+1.00,+1.00,-4.00,+0.00,-3.00,-1.00,+0.00,+0.00,-1.00,-1.00,+0.00
+15.00,+10.00,+9.00,+6.00,+2.00,-2.00,-1.00,+2.00,+4.00,+6.00,+1.00,+3.00,+9.00,+1.00,-1.00,-2.00
-9.00,-16.00,-23.00,-22.00,-13.00,-4.00,-4.00,-5.00,+0.00,-2.00,+3.00,-3.00,-14.00,-3.00,-2.00,-5.00
+2.00,+31.00,+9.00,-2.00,-1.00,-3.00,-2.00,-1.00,-4.00,-6.00,-3.00,-5.00,-2.00,-4.00,-2.00,-3.00
+7.00,-32.00,+2.00,+6.00,+5.00,+3.00,+2.00,+9.00,-1.00,-4.00,-2.00,-2.00,-1.00,-1.00,+1.00,+4.00
-11.00,-15.00,-14.00,-3.00,+4.00,+3.00,+0.00,-7.00,+3.00,-20.00,-2.00,-5.00,-1.00,-1.00,+1.00,+0.00
-1.00,-5.00,+9.00,+6.00,+9.00,+1.00,+1.00,+1.00,+8.00,+35.00,+11.00,+4.00,+11.00,+0.00,-1.00,+3.00
+4.00,-10.00,+2.00,-3.00,-9.00,-6.00,+1.00,+0.00,+10.00,+3.00,-7.00,-6.00,-14.00,-1.00,+0.00,+1.00
-8.00,+11.00,-3.00,-6.00,-1.00,-3.00,-4.00,-2.00,-17.00,-12.00,-4.00,-2.00,+8.00,-1.00,-3.00,-5.00
-6.00,-32.00,-5.00,+2.00,-1.00,+3.00,+0.00,+0.00,+2.00,+0.00,+1.00,+2.00,-5.00,-1.00,+0.00,-2.00
-3.00,+13.00,+3.00,+2.00,+3.00,-1.00,-1.00,-2.00,-12.00,-13.00,-4.00,+2.00,-4.00,-1.00,+1.00,+0.00
-4.00,-36.00,-4.00,-4.00,-2.00,+3.00,+1.00,-3.00,-9.00,-1.00,-1.00,-2.00,+2.00,-2.00,-3.00,-3.00
-4.00,+27.00,-1.00,+0.00,-6.00,-7.00,-4.00,-2.00,+26.00,+15.00,+0.00,+1.00,-5.00,+0.00,+0.00,+3.00
-12.00,+17.00,-1.00,+2.00,+3.00,-2.00,+0.00,-6.00,-6.00,-5.00,-3.00,+0.00,+9.00,+0.00,-2.00,+0.00
-9.00,-59.00,-1.00,+1.00,-4.00,-2.00,-2.00,+0.00,+4.00,-1.00,-5.00,-3.00,-1.00,-1.00,-1.00,-2.00
+2.00,+60.00,-5.00,-6.00,-1.00,-2.00,-1.00,-9.00,-2.00,+14.00,+3.00,+1.00,-2.00,-1.00,-2.00,+0.00
+5.00,-12.00,+0.00,-3.00,+0.00,-6.00,-2.00,+2.00,-6.00,-17.00,-3.00,-2.00,-5.00,-2.00,-2.00,-1.00
+9.00,-10.00,-4.00,-2.00,-3.00,+7.00,+1.00,-2.00,-8.00,-11.00,-2.00,+0.00,+6.00,+0.00,+0.00,-5.00
+1.00,+57.00,+5.00,-2.00,-3.00,-6.00,-2.00,-6.00,-9.00,-6.00,-1.00,+3.00,+12.00,+1.00,+2.00,+2.00
-6.00,-48.00,-9.00,+1.00,+4.00,+3.00,-1.00,-4.00,+3.00,-2.00,+4.00,-11.00,-31.00,-5.00,-3.00,-2.00
-7.00,-3.00,+3.00,+4.00,+7.00,+2.00,+1.00,-2.00,-3.00,+7.00,-1.00,+4.00,+11.00,-1.00,+0.00,-3.00
+6.00,+13.00,+0.00,+4.00,-2.00,+2.00,+0.00,+0.00,-3.00,-3.00,-2.00,-7.00,+2.00,-2.00,-3.00,-6.00
+9.00,+19.00,-6.00,-2.00,-1.00,-3.00,+1.00,+0.00,+15.00,-14.00,-6.00,-6.00,-27.00,-4.00,-1.00,+1.00
-2.00,-40.00,+2.00,+0.00,+0.00,-1.00,+1.00,+6.00,-3.00,+5.00,+1.00,+2.00,+7.00,+1.00,-1.00,-2.00
-23.00,-45.00,-9.00,-9.00,+4.00,-2.00,-4.00,-8.00,+8.00,+15.00,+5.00,+3.00,+3.00,+0.00,-1.00,+5.00
+4.00,+28.00,+4.00,+2.00,-15.00,-6.00,-2.00,+4.00,-12.00,-4.00,+0.00,+0.00,-1.00,-2.00,-2.00,-4.00
+32.00,+53.00,+16.00,+9.00,+8.00,+5.00,+2.00,+10.00,-1.00,-11.00,-4.00,+4.00,+20.00,+2.00,-1.00,-3.00
-15.00,+1.00,-11.00,-2.00,+0.00,-2.00,-2.00,-7.00,-14.00,-14.00,-5.00,+6.00,+4.00,+1.00,+1.00,-5.00
+9.00,-20.00,+1.00,-12.00,-4.00,-3.00,-3.00,+0.00,-9.00,+4.00,+1.00,-3.00,-14.00,-3.00,+0.00,+2.00
-11.00,-19.00,-4.00,-5.00,-5.00,-1.00,-1.00,-8.00,+18.00,+7.00,-5.00,-17.00,-33.00,-9.00,-4.00,+5.00
-7.00,-1.00,+0.00,+5.00,+5.00,-5.00,-1.00,-2.00,-3.00,-6.00,-1.00,-4.00,-8.00,-2.00,-1.00,+1.00
+12.00,+37.00,+4.00,+2.00,-2.00,+3.00,+1.00,+3.00,+10.00,+1.00,+4.00,+7.00,+11.00,+3.00,+0.00,+0.00
-30.00,-14.00,-15.00,-6.00,-6.00,-1.00,-3.00,-12.00,-4.00,-2.00,-2.00,+10.00,+12.00,+2.00,+0.00,-1.00
+16.00,-14.00,+6.00,-9.00,+0.00,-3.00,+0.00,+2.00,+19.00,+21.00,+6.00,-3.00,-24.00,-4.00,+1.00,+6.00
+9.00,-2.00,+2.00,-2.00,-5.00,-4.00,+0.00,+2.00,-15.00,-19.00,-9.00,-4.00,+1.00,-4.00,-3.00,-5.00
-4.00,-12.00,+2.00,+5.00,-5.00,-6.00,+0.00,+3.00,-10.00,-26.00,-6.00,-2.00,+3.00,-1.00,-1.00,-8.00
+2.00,+29.00,-1.00,+3.00,-1.00,+4.00,-1.00,+0.00,+10.00,+33.00,+8.00,+7.00,+22.00,+4.00,+2.00,+2.00
+4.00,+13.00,+4.00,+7.00,+25.00,+7.00,+1.00,+4.00,-18.00,-4.00,-1.00,+4.00,+7.00,+3.00,+0.00,+0.00
-8.00,-39.00,+0.00,-1.00,-21.00,-1.00,-1.00,+0.00,+23.00,+27.00,+6.00,+2.00,-6.00,-1.00,+0.00,+3.00
-25.00,-35.00,-4.00,-1.00,+2.00,+3.00,-3.00,-8.00,-23.00,-30.00,-10.00,+3.00,+17.00,+1.00,-2.00,-10.00
+12.00,+19.00,-16.00,-15.00,-16.00,-7.00,-2.00,-3.00,-7.00,-24.00,-8.00,-21.00,-31.00,-10.00,-7.00,-9.00
+27.00,+25.00,+2.00,+2.00,-6.00,-4.00,+0.00,+10.00,+20.00,+26.00,+1.00,+2.00,-3.00,+0.00,+3.00,+12.00
-1.00,+25.00,-5.00,-6.00,+10.00,+2.00,-2.00,+0.00,-20.00,-3.00,-1.00,+2.00,+19.00,+3.00,+3.00,+1.00
+20.00,-30.00,-12.00,-4.00,-6.00,-4.00,-1.00,+4.00,+1.00,-6.00,+3.00,-8.00,-19.00,-4.00,-1.00,+2.00
-3.00,-4.00,+16.00,+11.00,+6.00,+3.00,+2.00,+1.00,+19.00,+19.00,+6.00,+8.00,+9.00,+3.00,-2.00,+0.00
-25.00,+4.00,-13.00,-2.00,+1.00,-4.00,-3.00,-7.00,-27.00,-26.00,-7.00,-1.00,+4.00,+2.00,+0.00,-4.00
-7.00,-41.00,+2.00,+5.00,+3.00,+5.00,+2.00,-3.00,-5.00,-8.00,+1.00,-6.00,-9.00,-1.00,-3.00,-4.00
-1.00,+36.00,+6.00,+2.00,-1.00,-3.00,-4.00,-2.00,+15.00,+10.00,+1.00,+11.00,+20.00,+5.00,+2.00,+7.00
+24.00,+25.00,-12.00,-8.00,+3.00,+1.00,+2.00,+7.00,-6.00,-8.00,-6.00,-10.00,-27.00,-5.00,-1.00,-6.00
-8.00,-16.00,+5.00,+0.00,-7.00,-13.00,-4.00,-3.00,-6.00,+3.00,+7.00,+12.00,+33.00,+4.00,-1.00,-6.00
+0.00,-22.00,-19.00,-10.00,+1.00,+2.00,-2.00,+0.00,-1.00,-17.00,-8.00,-9.00,-17.00,-4.00,-4.00,+1.00
+9.00,-2.00,+3.00,-6.00,-17.00,+0.00,+0.00,+2.00,+4.00,+26.00,+0.00,-4.00,+8.00,-2.00,-3.00,-3.00
-8.00,-3.00,+2.00,+8.00,+2.00,+3.00,-1.00,-4.00,-17.00,-4.00,+0.00,-5.00,-18.00,-3.00,+2.00,+0.00
-15.00,-15.00,-9.00,-8.00,-3.00,-1.00,-4.00,-7.00,+1.00,-8.00,-4.00,-7.00,-11.00,-4.00,-4.00,-4.00
-4.00,-20.00,-4.00,-1.00,-5.00,-3.00,-1.00,+0.00,-1.00,+6.00,+2.00,-2.00,-8.00,-3.00,-2.00,+1.00
+9.00,+32.00,+15.00,+15.00,+14.00,+1.00,+2.00,-3.00,-8.00,-12.00,-3.00,-2.00,-4.00,-2.00,-1.00,-3.00
+4.00,+12.00,+13.00,+0.00,-10.00,-7.00,-2.00,+1.00,-15.00,-7.00,-5.00,+5.00,+20.00,+5.00,+2.00,-1.00
-16.00,+10.00,-31.00,-23.00,-9.00,+0.00,-4.00,-11.00,+11.00,-1.00,-1.00,+8.00,+18.00,+0.00,-2.00,-5.00
+12.00,-39.00,+11.00,+5.00,+6.00,-5.00,+1.00,+9.00,+22.00,+23.00,+4.00,-4.00,-23.00,-4.00,+3.00,+12.00
+4.00,+5.00,-3.00,+3.00,+8.00,+11.00,+3.00,+3.00,+3.00,-15.00,-3.00,+7.00,+25.00,+5.00,+2.00,+3.00
-6.00,-27.00,+4.00,+11.00,+2.00,-2.00,+1.00,+1.00,-7.00,+7.00,+0.00,-6.00,-20.00,-6.00,-3.00,-8.00
-14.00,-1.00,+1.00,+2.00,+8.00,+7.00,+0.00,-4.00,-11.00,-3.00,-2.00,-11.00,-28.00,-4.00,-2.00,-7.00
+29.00,+43.00,+8.00,+5.00,+11.00,+7.00,+2.00,+1.00,+1.00,+3.00,+4.00,+5.00,+31.00,+2.00,-2.00,-4.00
+11.00,-2.00,+6.00,-2.00,-20.00,+0.00,+0.00,+6.00,-11.00,-5.00,-9.00,-3.00,+5.00,-2.00,-3.00,-8.00
-4.00,+26.00,-13.00,-5.00,-4.00,-3.00,-4.00,-3.00,-2.00,-10.00,-6.00,-13.00,-55.00,-10.00,-2.00,+5.00
-4.00,-55.00,+0.00,-7.00,-3.00,-3.00,+2.00,+5.00,-2.00,+1.00,+0.00,-4.00,-5.00,+0.00,-2.00,-1.00
-10.00,+34.00,-1.00,-4.00,+5.00,-6.00,-3.00,-8.00,-4.00,+7.00,+5.00,+0.00,+0.00,+0.00,-1.00,-4.00
+2.00,-21.00,+6.00,+7.00,+0.00,-5.00,+0.00,+2.00,+6.00,-14.00,-4.00,-3.00,+8.00,-1.00,-1.00,+9.00
-10.00,-20.00,-6.00,+1.00,-2.00,+3.00,-2.00,-2.00,-8.00,-1.00,-4.00,+8.00,+35.00,+4.00,-2.00,-7.00
+15.00,+18.00,+9.00,+7.00,+12.00,-1.00,+1.00,+2.00,+3.00,-5.00,-2.00,-1.00,+3.00,+0.00,+0.00,+1.00
-16.00,+13.00,+3.00,+1.00,-6.00,+1.00,-1.00,-7.00,-12.00,-5.00,-8.00,-1.00,-5.00,-4.00,+1.00,-5.00
-17.00,+8.00,-3.00,-6.00,+8.00,+2.00,+0.00,+3.00,-4.00,-8.00,+0.00,-2.00,-15.00,-3.00,+0.00,-1.00
-19.00,-8.00,-10.00,-14.00,-3.00,-12.00,-6.00,-10.00,+14.00,+12.00,+3.00,+5.00,+18.00,+2.00,-1.00,+1.00
+3.00,-37.00,-1.00,+12.00,+15.00,+18.00,+4.00,+5.00,-7.00,-10.00,+3.00,-11.00,-27.00,-6.00,-2.00,+5.00
+11.00,+70.00,+20.00,+6.00,-7.00,+3.00,+0.00,+10.00,+35.00,+22.00,-2.00,+16.00,+76.00,+12.00,+0.00,+0.00
-20.00,-28.00,-10.00,-2.00,-7.00,-2.00,-5.00,-10.00,-35.00,-21.00,-11.00,-41.00,-110.00,-22.00,-9.00,-12.00
+46.00,+38.00,-3.00,-6.00,+20.00,-4.00,+0.00,+7.00,-10.00,-16.00,-5.00,-1.00,+2.00,+2.00,+0.00,+3.00
+28.00,+2.00,+5.00,-1.00,-41.00,+2.00,+2.00,+12.00,+3.00,+14.00,-2.00,+7.00,+29.00,+5.00,-1.00,-6.00
-36.00,-8.00,-3.00,+2.00,+0.00,-3.00,-5.00,-17.00,+12.00,-13.00,+1.00,+3.00,-12.00,-1.00,+1.00,-1.00
+0.00,+6.00,-8.00,-10.00,+4.00,+0.00,-1.00,-1.00,+9.00,+8.00,-4.00,-4.00,-3.00,-3.00,+3.00,+14.00
-11.00,+2.00,+9.00,+7.00,+2.00,-6.00,-1.00,+1.00,-15.00,+4.00,+0.00,-6.00,-5.00,-2.00,-6.00,-6.00
-12.00,+3.00,-7.00,-4.00,-8.00,-21.00,-7.00,-7.00,-24.00,-16.00,+0.00,+0.00,-2.00,-1.00,-3.00,-11.00
+6.00,-8.00,-14.00,-11.00,-9.00,+5.00,-2.00,-3.00,-3.00,+1.00,+2.00,+12.00,+50.00,+11.00,-1.00,+5.00
+7.00,-20.00,+10.00,+5.00,-5.00,-5.00,-1.00,+3.00,+34.00,+9.00,+2.00,-7.00,-45.00,-9.00,-2.00,+2.00
-14.00,-1.00,-6.00,+2.00,+2.00,+8.00,+0.00,-5.00,-1.00,-11.00,-3.00,-7.00,-5.00,-3.00,-1.00,+0.00
+12.00,+21.00,+19.00,-2.00,+2.00,-11.00,-1.00,+2.00,-7.00,-10.00,-5.00,+7.00,+25.00,+2.00,+1.00,+1.00
-24.00,-16.00,-29.00,-14.00,-4.00,-5.00,-3.00,-8.00,-36.00,-18.00,-6.00,-14.00,-36.00,-8.00,-6.00,-13.00
+7.00,-1.00,+5.00,-1.00,-6.00,-4.00,-1.00,+3.00,+31.00,+33.00,+15.00,+21.00,+60.00,+11.00,+2.00,+8.00
-8.00,-29.00,+4.00,+5.00,+13.00,+4.00,+1.00,-2.00,-22.00,-19.00,-2.00,+5.00,+22.00,+2.00,+1.00,-4.00
+25.00,+34.00,+5.00,+5.00,-8.00,+4.00,+1.00,+5.00,+15.00,+4.00,-8.00,-20.00,-56.00,-13.00,-4.00,-3.00
+16.00,+23.00,+1.00,-3.00,+3.00,-6.00,-2.00,-6.00,-5.00,-9.00,+0.00,+8.00,+6.00,+5.00,+3.00,-3.00
-23.00,-40.00,-8.00,+0.00,+6.00,+6.00,+0.00,-2.00,-37.00,-8.00,-1.00,-4.00,+6.00,-1.00,+1.00,+2.00
+3.00,-19.00,-1.00,+1.00,-15.00,-6.00,-2.00,+0.00,+32.00,+6.00,-1.00,-1.00,+3.00,+1.00,+3.00,+3.00
+9.00,+41.00,-3.00,-7.00,-23.00,-11.00,-3.00,+2.00,-18.00,+1.00,+5.00,+12.00,+25.00,+7.00,-1.00,-1.00
-1.00,-34.00,-4.00,-5.00,+36.00,+5.00,-1.00,-4.00,-10.00,-3.00,+1.00,-8.00,-43.00,-9.00,+1.00,+3.00
+3.00,+18.00,-3.00,-4.00,-23.00,-6.00,-2.00,-3.00,+0.00,-4.00,-1.00,-5.00,+7.00,-2.00,-2.00,-2.00
-23.00,-50.00,+0.00,+1.00,-7.00,+0.00,-2.00,-6.00,+21.00,+21.00,+1.00,+1.00,+11.00,+2.00,-3.00,-5.00
-24.00,-16.00,-3.00,+1.00,+13.00,+4.00,+1.00,-6.00,-7.00,-5.00,-1.00,-4.00,+2.00,-2.00,-2.00,+0.00
+9.00,-14.00,-1.00,+3.00,-11.00,-1.00,-3.00,+4.00,-37.00,-4.00,-3.00,+0.00,-12.00,-1.00,-2.00,-4.00
-18.00,-31.00,+3.00,+2.00,+6.00,-14.00,-5.00,-4.00,+7.00,+10.00,+2.00,+6.00,+16.00,+3.00,-2.00,-4.00
+40.00,+90.00,+12.00,+1.00,+3.00,+9.00,+4.00,+25.00,-23.00,-28.00,-3.00,+9.00,+40.00,+7.00,+0.00,-4.00
-13.00,-59.00,+3.00,+6.00,+7.00,+6.00,+2.00,+1.00,+39.00,+12.00,+6.00,-6.00,-38.00,-6.00,+6.00,+17.00
-8.00,+1.00,+3.00,+0.00,-11.00,+0.00,-3.00,-2.00,+7.00,+21.00,-1.00,-1.00,+6.00,+0.00,+4.00,+13.00
-24.00,-29.00,-23.00,-16.00,+11.00,-19.00,-7.00,-11.00,-10.00,-13.00,-2.00,+7.00,+9.00,+0.00,-3.00,-10.00
+9.00,+5.00,-2.00,-5.00,-13.00,+9.00,+2.00,-6.00,+22.00,+16.00,+6.00,+6.00,+9.00,+4.00,-1.00,+5.00
+8.00,+14.00,+5.00,+0.00,+5.00,-1.00,-1.00,+2.00,-23.00,-5.00,+0.00,-1.00,+18.00,-4.00,-2.00,-9.00
-6.00,-31.00,-6.00,+1.00,-5.00,+2.00,+0.00,+3.00,+6.00,-11.00,-6.00,-12.00,-29.00,-7.00,-4.00,-2.00
-2.00,+46.00,+2.00,+2.00,+2.00,-3.00,-1.00,-7.00,-6.00,+15.00,+4.00,+1.00,+0.00,+1.00,+0.00,-3.00
-5.00,-20.00,+0.00,+0.00,-6.00,-9.00,-3.00,-5.00,+10.00,+0.00,-2.00,-8.00,-18.00,-5.00,-2.00,+4.00
-8.00,-18.00,-5.00,-4.00,+7.00,+4.00,-3.00,-3.00,+5.00,+12.00,+2.00,+13.00,+35.00,+8.00,+0.00,-2.00
-12.00,-22.00,-1.00,+2.00,-3.00,-3.00,-3.00,-3.00,-6.00,-18.00,-6.00,-2.00,+8.00,-2.00,-2.00,-7.00
+32.00,+21.00,+9.00,+5.00,+4.00,+15.00,+3.00,+0.00,-2.00,+11.00,+4.00,+4.00,+12.00,+3.00,+2.00,+5.00
-47.00,-8.00,-11.00,-9.00,-4.00,-3.00,-2.00,-7.00,-1.00,-1.00,-1.00,+4.00,-13.00,-1.00,-1.00,-1.00
+26.00,+43.00,+6.00,+4.00,+5.00,+1.00,+1.00,+4.00,+25.00,+1.00,-3.00,-6.00,-25.00,-4.00,+2.00,+9.00
-9.00,-13.00,-8.00,-7.00,-13.00,-9.00,-5.00,-7.00,-15.00,-1.00,-2.00,-9.00,+5.00,-2.00,-1.00,-7.00
+24.00,+5.00,+8.00,+6.00,+17.00,+3.00,+3.00,+6.00,-16.00,-23.00,-1.00,-1.00,-9.00,-1.00,-1.00,+1.00
+16.00,+29.00,+5.00,+1.00,+0.00,+14.00,+5.00,+6.00,+5.00,+15.00,-3.00,-3.00,+6.00,-1.00,-1.00,+0.00
-28.00,-32.00,-5.00,-1.00,+3.00,+3.00,+0.00,-8.00,-4.00,+2.00,+5.00,+7.00,+19.00,+5.00,+3.00,+3.00
+3.00,+13.00,+2.00,+2.00,+22.00,+2.00,-6.00,+5.00,+18.00,+1.00,-5.00,-12.00,-26.00,-6.00,-4.00,-3.00
-11.00,-40.00,-8.00,-6.00,-18.00,+0.00,-2.00,-3.00,-3.00,+1.00,-2.00,+1.00,-2.00,+0.00,-1.00,-4.00
+11.00,-30.00,-3.00,+2.00,+10.00,-2.00,-2.00,+1.00,+2.00,-16.00,-2.00,-8.00,-8.00,-6.00,-6.00,-5.00
+8.00,+6.00,+4.00,-2.00,-1.00,-2.00,-12.00,-4.00,-17.00,-11.00,-2.00,+1.00,+4.00,+1.00,-5.00,-10.00
+30.00,+47.00,+10.00,+7.00,+18.00,+7.00,+12.00,+13.00,-23.00,-10.00,-1.00,+2.00,+0.00,-2.00,+0.00,+0.00
+2.00,-11.00,+0.00,+1.00,-16.00,-1.00,-4.00,-8.00,+13.00,+10.00,+2.00,+4.00,+17.00,-28.00,+1.00,-3.00
+20.00,+15.00,+3.00,+4.00,+1.00,-3.00,+6.00,+19.00,+0.00,+5.00,+0.00,-10.00,-27.00,+34.00,-12.00,-10.00
-25.00,-31.00,-11.00,-4.00,+8.00,-1.00,-8.00,-13.00,-15.00,-7.00,-5.00,-1.00,-7.00,+3.00,+4.00,+2.00
-23.00,-19.00,+2.00,-2.00,-19.00,-4.00,-2.00,-6.00,+16.00,+0.00,+1.00,+4.00,+3.00,+8.00,-3.00,+0.00
+14.00,+58.00,-9.00,-13.00,+4.00,-1.00,-2.00,-4.00,-10.00,+15.00,-3.00,-6.00,-3.00,-12.00,-5.00,-3.00
+51.00,+37.00,+18.00,+10.00,+1.00,-2.00,+5.00,+16.00,-14.00,-19.00,-2.00,-2.00,-4.00,-19.00,+0.00,-1.00
-11.00,-7.00,-8.00,-4.00,+5.00,+5.00,+3.00,-4.00,-23.00,-3.00,+0.00,+5.00,+5.00,+8.00,+4.00,-3.00
-11.00,-41.00,-11.00,-3.00,-9.00,-2.00,-4.00,-4.00,+13.00,+8.00,+0.00,+5.00,+18.00,-6.00,-1.00,+3.00
-7.00,+51.00,+4.00,+4.00,+3.00,-8.00,+1.00,+1.00,+8.00,+0.00,-3.00,-8.00,-25.00,+2.00,-3.00,-5.00
-50.00,-40.00,-11.00,-9.00,-11.00,+8.00,-5.00,-28.00,-16.00,-10.00,-1.00,+6.00,+31.00,+2.00,+5.00,+6.00
+0.00,+31.00,+9.00,+6.00,+11.00,+2.00,+1.00,+9.00,+11.00,-15.00,-3.00,-8.00,-30.00,-6.00,-2.00,+7.00
-7.00,+9.00,-8.00,-7.00,-12.00,-4.00,+3.00,+1.00,+5.00,+10.00,-2.00,-4.00,-7.00,-7.00,+3.00,+2.00
+39.00,-3.00,+2.00,-6.00,+6.00,+1.00,-1.00,+16.00,-7.00,+1.00,+3.00,+4.00,+6.00,+10.00,-4.00,-16.00
-24.00,-11.00,-6.00,-5.00,+5.00,-5.00,-4.00,-13.00,+29.00,+18.00,+1.00,-4.00,-3.00,+0.00,+2.00,+2.00
-10.00,-3.00,-16.00,-4.00,+4.00,-4.00,-1.00,-4.00,+6.00,-9.00,-5.00,+6.00,+3.00,-8.00,-4.00,-1.00
+3.00,-60.00,+7.00,+7.00,-1.00,+8.00,+3.00,+6.00,-11.00,+7.00,+4.00,+0.00,+1.00,-1.00,-3.00,-1.00
-10.00,+23.00,+9.00,+7.00,+4.00,+2.00,+2.00,-9.00,+24.00,-4.00,-5.00,-1.00,+7.00,+8.00,+3.00,+8.00
-10.00,-17.00,-4.00,-5.00,-7.00,-3.00,-2.00,-2.00,-12.00,-13.00,-5.00,-6.00,-19.00,-12.00,-2.00,-6.00
+7.00,+14.00,-1.00,-2.00,+1.00,-1.00,+3.00,-3.00,+10.00,-1.00,-3.00,+2.00,+18.00,+1.00,-3.00,-9.00
-14.00,+5.00,-11.00,-6.00,-11.00,-8.00,-8.00,-8.00,+7.00,+9.00,+0.00,-7.00,-15.00,-1.00,-4.00,-3.00
-4.00,+2.00,+6.00,+0.00,-2.00,+1.00,+3.00,-2.00,-12.00,-7.00,-4.00,+0.00,+6.00,+6.00,-1.00,-1.00
+32.00,+3.00,+3.00,+4.00,+6.00,-2.00,-8.00,+7.00,-16.00,-29.00,-7.00,-3.00,-3.00,-8.00,-1.00,+0.00
+14.00,+35.00,+4.00,+1.00,-2.00,+2.00,+8.00,+2.00,+39.00,+31.00,+7.00,+4.00,+11.00,+2.00,+0.00,-1.00
-10.00,-16.00,-2.00,-5.00,+0.00,-6.00,-2.00,-8.00,+0.00,-4.00,+0.00,+1.00,-2.00,+1.00,+1.00,+9.00
+25.00,-16.00,-3.00,-4.00,-15.00,+3.00,+0.00,+13.00,-19.00,-15.00,-7.00,-9.00,-35.00,-4.00,-1.00,+2.00
-14.00,-3.00,-9.00,-8.00,-3.00,-3.00,+2.00,-4.00,-26.00,-3.00,+0.00,+3.00,+4.00,-5.00,-2.00,-6.00
-3.00,-5.00,-4.00,-1.00,-7.00,-6.00,-8.00,+0.00,-4.00,+21.00,-3.00,-8.00,-11.00,-3.00,-3.00,-5.00
-17.00,-38.00,+2.00,+5.00,+2.00,-1.00,-2.00,-4.00,+18.00,+1.00,+6.00,+1.00,+7.00,+2.00,-1.00,-4.00
-9.00,-58.00,-10.00,-1.00,+6.00,+3.00,+6.00,-6.00,+14.00,-9.00,+0.00,+8.00,+14.00,+4.00,+3.00,+3.00
-45.00,+43.00,+2.00,-1.00,-7.00,-5.00,-17.00,-28.00,+12.00,+25.00,+1.00,-3.00,-7.00,-4.00,+0.00,+4.00
-23.00,+21.00,-4.00,-1.00,-2.00,-10.00,-8.00,+1.00,-42.00,-45.00,-7.00,+1.00,+15.00,+3.00,+5.00,+6.00
-13.00,+1.00,+3.00,-4.00,-14.00,+4.00,+5.00,-8.00,-11.00,+3.00,-5.00,+1.00,+14.00,+3.00,-1.00,-1.00
+64.00,+14.00,-1.00,-4.00,+9.00,+7.00,+0.00,+26.00,+21.00,+15.00,-1.00,-16.00,-51.00,-54.00,-9.00,+9.00
+10.00,-9.00,-6.00,-2.00,+15.00,+3.00,+9.00,-2.00,-14.00,-1.00,+6.00,+13.00,+35.00,+43.00,-1.00,-18.00
-8.00,-38.00,-3.00,-4.00,-26.00,-8.00,-6.00,-14.00,+39.00,+16.00,-2.00,-15.00,-45.00,+0.00,-6.00,+22.00
+11.00,+21.00,-9.00,+1.00,+13.00,+0.00,-7.00,+2.00,-9.00,-13.00,-3.00,-2.00,-2.00,+3.00,+1.00,-4.00
-43.00,-36.00,+13.00,+7.00,-5.00,+5.00,+4.00,-8.00,-28.00,-10.00,+0.00,+0.00,+36.00,+18.00,+6.00,-4.00
-6.00,-37.00,+2.00,+1.00,-2.00,-2.00,-1.00,+4.00,+33.00,+10.00,+0.00,+3.00,-27.00,-22.00,-1.00,+4.00
-8.00,-8.00,-9.00,-9.00,-2.00,+3.00,+1.00,-6.00,+4.00,-1.00,-1.00,+3.00,+3.00,-9.00,-5.00,-10.00
+17.00,+35.00,+2.00,-6.00,-5.00,-7.00,-9.00,+7.00,-23.00,-17.00,+0.00,+0.00,-3.00,+6.00,-2.00,-3.00
-22.00,-44.00,-11.00,-2.00,+2.00,+2.00,+16.00,-6.00,+7.00,-10.00,-1.00,+5.00,+31.00,+4.00,-3.00,+2.00
+27.00,+8.00,+12.00,+10.00,+5.00,+3.00,+7.00,+14.00,+29.00,-3.00,-3.00,-9.00,-40.00,-16.00,+0.00,-2.00
+9.00,+8.00,+8.00,+9.00,+6.00,+1.00,-2.00,+6.00,+24.00,+43.00,+13.00,+9.00,+17.00,+8.00,+3.00,+6.00
-20.00,+14.00,-5.00,-5.00,-11.00,-1.00,-1.00,-11.00,+23.00,-2.00,-4.00,-4.00,-18.00,-11.00,-5.00,+0.00
+4.00,+39.00,+0.00,-3.00,-4.00,-4.00,-8.00,+5.00,-56.00,-5.00,-3.00,+2.00,+16.00,+9.00,+0.00,-7.00
-10.00,-32.00,-8.00,-6.00,+0.00,-1.00,-2.00,-5.00,+4.00,-20.00,-2.00,-2.00,-1.00,+0.00,+1.00,+11.00
+3.00,-21.00,+3.00,+3.00,+0.00,+2.00,+8.00,+13.00,-7.00,-19.00,-7.00,-10.00,-17.00,-7.00,-2.00,-9.00
-13.00,-40.00,-5.00,+2.00,-1.00,-14.00,+2.00,-4.00,-24.00,+6.00,+2.00,-2.00,-5.00,-5.00,+1.00,-4.00
-50.00,+63.00,+1.00,+3.00,+34.00,+5.00,-22.00,-21.00,+35.00,+25.00,+6.00,+13.00,+44.00,+17.00,+1.00,+4.00
+102.00,+112.00,+19.00,-1.00,-50.00,-4.00,-7.00,+23.00,-55.00,-11.00,-4.00,-5.00,-17.00,-2.00,+0.00,-13.00
+29.00,+13.00,+2.00,+3.00,+5.00,+25.00,+30.00,+20.00,+11.00,-32.00,-9.00,-5.00,-4.00,+8.00,+11.00,+7.00
+26.00,+12.00,+6.00,+2.00,-6.00,-11.00,-9.00,+8.00,-18.00,+32.00,+11.00,-1.00,-21.00,-73.00,-21.00,-2.00
-33.00,-24.00,-15.00,-6.00,-4.00,-15.00,-6.00,-18.00,+39.00,+2.00,+1.00,-1.00,-14.00,+51.00,-5.00,-19.00
-12.00,-39.00,-7.00,+0.00,+11.00,-2.00,+3.00,-3.00,-1.00,+9.00,-5.00,-4.00,+20.00,-3.00,-1.00,+6.00
-10.00,-8.00,+7.00,+1.00,+3.00,+1.00,-9.00,-7.00,-19.00,-3.00,+3.00,+10.00,+34.00,+8.00,-2.00,+2.00
+7.00,+20.00,+2.00,-1.00,+2.00,+3.00,+6.00,+2.00,+1.00,-7.00,-9.00,-4.00,+1.00,+6.00,+3.00,+9.00
-5.00,-30.00,-8.00,-3.00,+0.00,-2.00,+0.00,-8.00,-12.00,-7.00,-2.00,-10.00,-28.00,-16.00,-1.00,-7.00
-13.00,-24.00,-2.00,-2.00,-3.00,+6.00,-3.00,-7.00,-11.00,-9.00,+4.00,+4.00,+14.00,-5.00,-5.00,+4.00
+38.00,+11.00,-7.00,-10.00,-6.00,-2.00,+1.00,-5.00,-10.00,-7.00,-2.00,-5.00,-17.00,-4.00,-3.00,-14.00
-7.00,+24.00,+6.00,+2.00,+13.00,+10.00,+4.00,+0.00,+11.00,-6.00,+1.00,+3.00,+13.00,+12.00,-2.00,-2.00
+16.00,+18.00,+8.00,+4.00,-7.00,-1.00,-6.00,+5.00,-21.00,-17.00,-1.00,+6.00,+5.00,-8.00,+2.00,+10.00
-68.00,-33.00,-6.00,-2.00,+7.00,+2.00,+5.00,-4.00,+3.00,+21.00,+2.00,-6.00,-11.00,+3.00,+4.00,+4.00
-1.00,-25.00,-6.00,-6.00,-4.00,-14.00,-8.00,-8.00,-15.00,-8.00,-2.00,-1.00,-8.00,-13.00,-3.00,-5.00
+9.00,-8.00,-3.00,+0.00,-2.00,+4.00,+1.00,+5.00,+13.00,-14.00,-7.00,-6.00,-6.00,+6.00,-2.00,-5.00
-29.00,-44.00,-16.00,-6.00,+10.00,+0.00,-20.00,-12.00,-9.00,+0.00,+7.00,+13.00,+31.00,+13.00,+4.00,-9.00
+36.00,+70.00,+4.00,-3.00,-8.00,+1.00,+38.00,+14.00,+50.00,+28.00,-2.00,-14.00,-41.00,-15.00,-1.00,+29.00
-18.00,+12.00,-4.00,-3.00,-4.00,-3.00,-7.00,-9.00,-29.00,-1.00,-1.00,+2.00,-2.00,-8.00,-5.00,-32.00
+39.00,+56.00,+9.00,+0.00,-3.00,+0.00,+1.00,+5.00,-57.00,-16.00,-2.00,-7.00,-14.00,+4.00,-5.00,-5.00
+9.00,-9.00,+5.00,+3.00,-1.00,-2.00,+6.00,+9.00,+7.00,-5.00,-7.00,-8.00,-11.00,-7.00,+0.00,-3.00
-44.00,-19.00,-9.00,-4.00,-9.00,-12.00,-9.00,-24.00,+10.00,+4.00,+2.00,+6.00,+21.00,+1.00,+0.00,+5.00
-57.00,-87.00,-8.00,-3.00,+3.00,-5.00,-8.00,-13.00,-13.00,+3.00,-4.00,+2.00,+28.00,-1.00,-4.00,+3.00
+29.00,+59.00,+9.00,+2.00,-5.00,+4.00,+10.00,+8.00,+60.00,+0.00,+0.00,-6.00,-23.00,+9.00,+6.00,-3.00
-7.00,-3.00,+0.00,+0.00,-4.00,+3.00,+2.00,+4.00,-78.00,-35.00,-8.00,-6.00,-15.00,-12.00,-7.00,-6.00
+39.00,+8.00,-1.00,+0.00,+8.00,-4.00,-5.00,+0.00,+8.00,+17.00,+7.00,+8.00,+16.00,+2.00,+2.00,+9.00
+2.00,-10.00,+3.00,+2.00,-5.00,-3.00,-1.00,+9.00,+4.00,+1.00,+1.00,-4.00,-8.00,-2.00,-4.00,-1.00
-68.00,-45.00,-10.00,-1.00,+0.00,-1.00,-9.00,-22.00,+7.00,+10.00,-1.00,+5.00,+16.00,+7.00,+6.00,-6.00
-61.00,-77.00,-10.00,-6.00,-9.00,-5.00,+0.00,-15.00,+17.00,+21.00,+4.00,-2.00,+3.00,-4.00,-2.00,+11.00
+43.00,+78.00,+14.00,+7.00,+24.00,-6.00,-4.00,+7.00,+24.00,-33.00,-10.00,-5.00,+0.00,-6.00,-9.00,-19.00
+59.00,+25.00,+9.00,+5.00,-34.00,+10.00,+8.00,+18.00,-8.00,+4.00,+0.00,-1.00,+8.00,+2.00,+0.00,+6.00
-46.00,-37.00,-4.00,-2.00,+24.00,-1.00,-3.00,-5.00,+25.00,-2.00,+1.00,+7.00,+12.00,+8.00,+2.00,+24.00
+27.00,-5.00,-3.00,-1.00,-17.00,+3.00,+1.00,+3.00,+38.00,+18.00,+3.00,-5.00,-33.00,-14.00,-5.00,-3.00
-50.00,+1.00,-11.00,-8.00,-7.00,-2.00,-8.00,-16.00,-47.00,-18.00,+1.00,+7.00,+19.00,+6.00,+5.00,-19.00
-2.00,+3.00,+3.00,+0.00,+10.00,-3.00,+1.00,-3.00,+11.00,+8.00,+1.00,-5.00,-17.00,-11.00,-5.00,-3.00
+14.00,+16.00,+1.00,+2.00,+3.00,+1.00,-5.00,+5.00,+13.00,+0.00,-4.00,+1.00,+3.00,+3.00,-3.00,-6.00
+42.00,+10.00,+5.00,+3.00,-3.00,+2.00,+9.00,+17.00,-25.00,-19.00,-1.00,-2.00,-2.00,+1.00,+2.00,+16.00
-8.00,-45.00,-5.00,+2.00,+5.00,+1.00,-23.00,-17.00,+31.00,+32.00,+8.00,+6.00,+16.00,+3.00,+1.00,-1.00
+23.00,+53.00,+9.00,+6.00,+16.00,+4.00,+10.00,+14.00,-65.00,-16.00,-3.00,+2.00,+11.00,+2.00,-4.00,-10.00
-16.00,-67.00,-13.00,-5.00,-12.00,+1.00,+3.00,-3.00,+33.00,+1.00,-2.00,-5.00,-2.00,-1.00,+2.00,-4.00
+2.00,+55.00,+9.00,+1.00,+7.00,-3.00,+4.00,+2.00,+2.00,+9.00,+3.00,-3.00,-23.00,-7.00,-10.00,-2.00
-28.00,-50.00,-7.00,+0.00,-3.00,+3.00,-6.00,-5.00,-4.00,-28.00,-11.00,-3.00,+1.00,-3.00,-5.00,-16.00
-7.00,-4.00,+0.00,+0.00,+5.00,-5.00,-10.00,-5.00,+14.00,+11.00,+3.00,+0.00,+0.00,-2.00,+1.00,+26.00
+39.00,-21.00,+3.00,+4.00,+0.00,-2.00,+5.00,+18.00,-37.00,-2.00,+1.00,-4.00,+0.00,+1.00,-1.00,-9.00
+6.00,+27.00,+4.00,+0.00,+5.00,-1.00,-4.00,-2.00,+40.00,+20.00,-1.00,+6.00,+24.00,+5.00,+2.00,-11.00
+22.00,+1.00,+7.00,+2.00,+2.00,+4.00,+6.00,+13.00,-15.00,-24.00,-8.00,-18.00,-41.00,-12.00,-5.00,-1.00
-14.00,+45.00,-5.00,-7.00,-6.00,-3.00,-1.00,-17.00,+0.00,+0.00,-2.00,+1.00,-7.00,+3.00,+1.00,-8.00
-37.00,+10.00,+4.00,+4.00,+11.00,+1.00,-7.00,-6.00,-19.00,-34.00,-12.00,-10.00,-33.00,-11.00,-6.00,-4.00
+28.00,-14.00,-4.00,-8.00,-23.00,-9.00,-7.00,+6.00,+21.00,+10.00,-3.00,+0.00,+8.00,+3.00,+7.00,+17.00
-20.00,-3.00,+2.00,+2.00,+2.00,-2.00,-1.00,-2.00,-3.00,+39.00,-1.00,-2.00,+6.00,+0.00,-5.00,-19.00
-19.00,-60.00,-7.00,+1.00,+1.00,+5.00,+1.00,-3.00,+3.00,+6.00,+3.00,+3.00,+9.00,+0.00,-3.00,+1.00
+55.00,+70.00,+2.00,-2.00,+9.00,+1.00,+3.00,+1.00,-15.00,-2.00,-2.00,+8.00,+50.00,+11.00,-2.00,-7.00
-12.00,+8.00,+1.00,+2.00,+7.00,+4.00,+7.00,+1.00,-21.00,-32.00,-12.00,-22.00,-54.00,-20.00,-13.00,+3.00
+1.00,-9.00,-4.00,-6.00,-6.00,-1.00,-8.00,+3.00,+12.00,-12.00,-6.00,-13.00,-56.00,-7.00,+0.00,+17.00
-29.00,-53.00,-8.00,+0.00,+6.00,-6.00,-9.00,-21.00,-1.00,+14.00,+0.00,+0.00,-2.00,-8.00,-5.00,-6.00
+2.00,+34.00,+4.00,-1.00,-5.00,-12.00,-2.00,+2.00,-12.00,-21.00,-2.00,+2.00,-9.00,+2.00,+5.00,+9.00
-6.00,+88.00,+7.00,-2.00,-11.00,+2.00,+1.00,+3.00,-26.00,+16.00,-2.00,+9.00,+45.00,+7.00,+0.00,-6.00
+24.00,-34.00,+1.00,+1.00,+4.00,-1.00,+7.00,+13.00,+1.00,-23.00,+2.00,-5.00,-35.00,-10.00,-1.00,+12.00
-21.00,-30.00,-9.00,-6.00,-4.00,-3.00,-4.00,-5.00,+57.00,+25.00,-6.00,-3.00,-5.00,-3.00,-2.00,-6.00
+11.00,+21.00,+2.00,+2.00,-11.00,-7.00,-3.00,-3.00,+9.00,+4.00,-4.00,-4.00,-6.00,-4.00,-2.00,-13.00
-15.00,-46.00,-11.00,-5.00,+0.00,-9.00,-7.00,-10.00,-25.00,-18.00,+0.00,+1.00,+4.00,+3.00,+1.00,+6.00
-3.00,+19.00,+4.00,+3.00,-3.00,-3.00,-1.00,+0.00,+0.00,-24.00,-7.00,+1.00,+28.00,+1.00,-6.00,-9.00
+24.00,+34.00,-2.00,-3.00,+7.00,-4.00,-1.00,+10.00,+20.00,+5.00,+6.00,+5.00,+3.00,+5.00,+9.00,+24.00
-3.00,-37.00,-3.00,-5.00,-1.00,+15.00,+5.00,+5.00,-21.00,+8.00,-6.00,-2.00,+31.00,+2.00,-1.00,-5.00
-5.00,-20.00,-4.00,+0.00,+10.00,-2.00,-3.00,-3.00,+9.00,+3.00,+2.00,-5.00,-25.00,-4.00,+3.00,-6.00
+2.00,-8.00,-6.00,-4.00,-11.00,+0.00,-1.00,+0.00,-19.00,+28.00,-1.00,-6.00,-4.00,-7.00,-7.00,-7.00
-70.00,-99.00,-15.00,-12.00,+4.00,-2.00,-8.00,-28.00,-36.00,-49.00,-9.00,-9.00,-25.00,-7.00,-8.00,-10.00
+15.00,+70.00,+11.00,+3.00,+1.00,+2.00,+2.00,+6.00,+26.00,+53.00,+2.00,-2.00,+13.00,+0.00,+2.00,+12.00
-16.00,-26.00,-5.00,+0.00,+8.00,+7.00,+2.00,-7.00,-26.00,-26.00,-1.00,+7.00,+10.00,+4.00,-2.00,-17.00
+29.00,+45.00,+5.00,+5.00,+6.00,+6.00,+7.00,+12.00,+1.00,-20.00,+0.00,+7.00,+24.00,+7.00,+3.00,+7.00
+76.00,+25.00,+13.00,+8.00,+3.00,-3.00,+0.00,+23.00,+42.00,+19.00,+1.00,+4.00,+9.00,+4.00,+4.00,+7.00
-43.00,-77.00,-18.00,-8.00,-1.00,+1.00,-8.00,-17.00,-21.00,+7.00,+9.00,-3.00,-29.00,-8.00,-6.00,+2.00
+16.00,+5.00,+2.00,+5.00,+1.00,+4.00,+32.00,+7.00,+11.00,-30.00,-9.00,-1.00,+11.00,+1.00,-2.00,-9.00
-39.00,-23.00,+4.00,+1.00,+19.00,-7.00,-7.00,-6.00,+17.00,+63.00,+20.00,+18.00,+17.00,+8.00,+3.00,+4.00
+37.00,+24.00,+2.00,-1.00,-25.00,+2.00,-5.00,+5.00,+4.00,-18.00,-7.00,-8.00,+16.00,-1.00,-6.00,-4.00
+25.00,+13.00,+2.00,-6.00,-25.00,-5.00,+2.00,+12.00,-34.00,+7.00,+5.00,+8.00,-13.00,+0.00,-5.00,-28.00
+6.00,+0.00,-1.00,+1.00,+4.00,+1.00,-2.00,-2.00,+65.00,+13.00,-1.00,-11.00,-51.00,-9.00,+5.00,+7.00
-51.00,-74.00,-21.00,-11.00,+0.00,-3.00,-2.00,-15.00,+25.00,-10.00,-2.00,+1.00,+14.00,+1.00,+1.00,+1.00
+44.00,+56.00,+10.00,+6.00,-3.00,+1.00,+3.00,+5.00,+36.00,-3.00,-5.00,-7.00,+0.00,-2.00,-3.00,-6.00
+21.00,-9.00,+6.00,+6.00,+20.00,+14.00,+10.00,+15.00,+17.00,-22.00,+2.00,+11.00,+10.00,+4.00,+8.00,+41.00
-4.00,-2.00,-1.00,-3.00,-8.00,-7.00,-8.00,+1.00,-19.00,+0.00,-3.00,+5.00,+41.00,+6.00,-6.00,-43.00
-10.00,-10.00,-6.00,-5.00,-4.00,+6.00,+2.00,-8.00,-3.00,-1.00,-7.00,-18.00,-55.00,-14.00,+0.00,+36.00
-35.00,-43.00,-7.00,-4.00,+7.00,-1.00,-5.00,-9.00,+2.00,+4.00,+4.00,+0.00,+0.00,+0.00,-4.00,-11.00
+39.00,+24.00,+1.00,+0.00,-6.00,-5.00,+0.00,-6.00,+21.00,-6.00,-6.00,-8.00,-6.00,-4.00,-1.00,+1.00
+38.00,+35.00,+2.00,+2.00,+3.00,-1.00,-6.00,+8.00,+0.00,+15.00,+7.00,+4.00,+7.00,+1.00,+0.00,+19.00
-59.00,+46.00,+21.00,+12.00,-7.00,-4.00,-7.00,-21.00,-38.00,-20.00,-3.00,+4.00,+18.00,+5.00,+3.00,-10.00
-55.00,-18.00,-14.00,-12.00,+0.00,+4.00,+6.00,-7.00,-10.00,-36.00,-2.00,+5.00,-3.00,-6.00,-1.00,-3.00
-1.00,-48.00,-5.00,-1.00,+3.00,-7.00,-6.00,-9.00,+49.00,+43.00,-5.00,-7.00,-4.00,+3.00,-2.00,-7.00
-1.00,+65.00,+16.00,+3.00,+9.00,+8.00,+1.00,+1.00,-8.00,+37.00,+11.00,+5.00,-2.00,-4.00,-7.00,-2.00
+49.00,+1.00,-11.00,-4.00,-2.00,+3.00,+5.00,+5.00,-3.00,-9.00,-7.00,+2.00,+18.00,+5.00,+1.00,-7.00
+39.00,+39.00,+8.00,+0.00,+4.00,-1.00,+1.00,+16.00,-30.00,-2.00,-1.00,-11.00,-14.00,+0.00,+3.00,-4.00
-106.00,-26.00,-2.00,+0.00,-19.00,+0.00,-11.00,-30.00,-33.00,-16.00,+7.00,+9.00,+1.00,+0.00,-2.00,-17.00
-10.00,-5.00,+0.00,-1.00,-5.00,-4.00,-9.00,-17.00,-4.00,+4.00,-4.00,-7.00,-22.00,-4.00,+6.00,+7.00
+2.00,-14.00,-11.00,-7.00,-5.00,-3.00,-1.00,+17.00,-25.00,-16.00,-3.00,-2.00,-6.00,-4.00,-1.00,-8.00
+0.00,-22.00,+3.00,+0.00,-2.00,-5.00,+2.00,+6.00,-10.00,-17.00,-8.00,-4.00,+9.00,+2.00,+0.00,-4.00
+44.00,+36.00,-1.00,+1.00,+8.00,+4.00,+3.00,+7.00,+25.00,+13.00,-7.00,-8.00,-9.00,-2.00,+1.00,+11.00
-5.00,-56.00,+0.00,+3.00,-4.00,-10.00,-5.00,+14.00,+36.00,+23.00,+7.00,+7.00,+17.00,+4.00,+2.00,+16.00
-42.00,+16.00,+1.00,-4.00,+1.00,+11.00,+3.00,-8.00,-15.00,-9.00,+0.00,+0.00,+10.00,+0.00,+2.00,+5.00
+81.00,+52.00,+3.00,+5.00,+8.00,+0.00,-4.00,-2.00,-12.00,-18.00,+1.00,+10.00,+0.00,+2.00,+6.00,+26.00
-65.00,-57.00,-12.00,-5.00,-2.00,-9.00,-4.00,-5.00,-79.00,-19.00,+2.00,-5.00,-1.00,-5.00,-9.00,-43.00
+44.00,+19.00,-1.00,-6.00,-16.00,-6.00,+1.00,+0.00,-19.00,+7.00,-4.00,-9.00,-27.00,-10.00,-3.00,-5.00
+14.00,+72.00,+16.00,+3.00,-3.00,-5.00,+0.00,-4.00,-7.00,+7.00,-2.00,-7.00,+3.00,-2.00,+2.00,+10.00
+11.00,+23.00,+6.00,+2.00,+10.00,+9.00,+3.00,+3.00,-68.00,-68.00,-17.00,-4.00,-2.00,-1.00,-5.00,-25.00
+14.00,-12.00,+0.00,+0.00,+3.00,+2.00,+2.00,-13.00,+32.00,+76.00,+15.00,+7.00,+6.00,+4.00,+7.00,+23.00
+10.00,-17.00,-7.00,-3.00,+2.00,+3.00,+1.00,+7.00,-22.00,-8.00,+0.00,+0.00,-1.00,-1.00,-4.00,-15.00
-21.00,-62.00,-9.00,+3.00,+4.00,-2.00,-4.00,-8.00,-13.00,-2.00,+1.00,+4.00,+9.00,+1.00,-3.00,-12.00
-27.00,+17.00,-3.00,-4.00,-16.00,-9.00,-5.00,-7.00,+0.00,+17.00,+4.00,+4.00,-3.00,-2.00,+1.00,+5.00
+16.00,-18.00,+3.00,+3.00,+19.00,+2.00,+2.00,+17.00,-20.00,-42.00,-13.00,-9.00,+4.00,-5.00,-5.00,-5.00
-18.00,-43.00,-13.00,-12.00,-26.00,-4.00,-1.00,-5.00,+13.00,-7.00,+1.00,+3.00,-9.00,+1.00,-1.00,+2.00
+51.00,-8.00,+7.00,+5.00,-2.00,-1.00,+5.00,+15.00,-9.00,-8.00,+1.00,+8.00,+8.00,+2.00,-4.00,-3.00
-31.00,+61.00,+1.00,-1.00,+0.00,-2.00,-1.00,-3.00,+8.00,+44.00,+7.00,+2.00,+3.00,+1.00,+1.00,+3.00
+10.00,-43.00,-16.00,-4.00,-9.00,-6.00,-3.00,-6.00,-26.00,-51.00,-7.00,+5.00,-1.00,+0.00,-2.00,-15.00
-34.00,+71.00,+20.00,+4.00,+9.00,+0.00,-4.00,-9.00,+5.00,+18.00,+5.00,+3.00,+22.00,+1.00,+1.00,-4.00
+27.00,-39.00,-4.00,+3.00,-2.00,-6.00,+0.00,+9.00,-35.00,-62.00,-8.00,-6.00,-25.00,-2.00,+1.00,-12.00
+8.00,+11.00,-3.00,-8.00,-1.00,-1.00,+0.00,+1.00,+60.00,+65.00,+10.00,+9.00,+23.00,+6.00,+2.00,+23.00
+0.00,+34.00,+3.00,+3.00,-3.00,-1.00,-3.00,+0.00,-17.00,-16.00,-9.00,-13.00,-23.00,-8.00,-2.00,-23.00
+23.00,-14.00,-4.00,+2.00,+11.00,+8.00,+6.00,+6.00,-19.00,-12.00,-1.00,-2.00,-7.00,-1.00,-5.00,-2.00
+1.00,-7.00,-3.00,-2.00,-10.00,-9.00,-6.00,-10.00,-3.00,+7.00,-4.00,-1.00,+5.00,+0.00,-1.00,-13.00
-39.00,-50.00,-8.00,-5.00,-7.00,-7.00,-3.00,-4.00,-35.00,-3.00,-4.00,-9.00,-10.00,-5.00,-3.00,-11.00
-1.00,-16.00,-7.00,-9.00,-7.00,+0.00,-4.00,-2.00,+23.00,+5.00,-3.00,-9.00,+2.00,+1.00,+4.00,+19.00
+52.00,+64.00,+9.00,+1.00,-3.00,-4.00,-3.00,-16.00,-7.00,-20.00,-9.00,-4.00,+12.00,+0.00,-4.00,-2.00
-67.00,-22.00,-10.00,-8.00,+3.00,+5.00,+4.00,+7.00,+52.00,+46.00,+10.00,+5.00,+8.00,+2.00,+0.00,+5.00
-12.00,-36.00,+2.00,+1.00,-6.00,-5.00,-1.00,-1.00,-26.00,-27.00,-5.00,-6.00,-4.00,-2.00,+4.00,+17.00
-42.00,+57.00,+3.00,+3.00,+12.00,-2.00,-3.00,-6.00,+15.00,+11.00,-2.00,+0.00,+5.00,-1.00,-11.00,-20.00
+11.00,-28.00,-4.00,+2.00,-8.00,-3.00,-6.00,-5.00,-10.00,-11.00,-1.00,-2.00,-3.00,+1.00,+6.00,+31.00
-8.00,+7.00,-3.00,-5.00,-4.00,+7.00,+2.00,-2.00,-7.00,-2.00,+3.00,+11.00,+9.00,+0.00,-6.00,-4.00
-8.00,-13.00,-4.00,-1.00,-3.00,-3.00,-8.00,-11.00,+17.00,+9.00,-2.00,-12.00,-29.00,-5.00,+2.00,-10.00
-25.00,-13.00,-4.00,-6.00,-6.00,-2.00,+5.00,+16.00,-16.00,-15.00,-1.00,-2.00,-11.00,-4.00,-3.00,+12.00
-13.00,-34.00,-4.00,+3.00,+8.00,+1.00,+1.00,+12.00,-31.00,-24.00,-7.00,-6.00,+3.00,+1.00,+4.00,-5.00
+27.00,+13.00,+8.00,+8.00,-4.00,-5.00,-5.00,+3.00,+20.00,+25.00,+5.00,+3.00,+6.00,+1.00,-3.00,-3.00
-55.00,+20.00,-10.00,-4.00,+0.00,+1.00,-3.00,-9.00,-20.00,-10.00,+5.00,+13.00,+19.00,+1.00,-4.00,-10.00
+121.00,+79.00,+22.00,+4.00,-2.00,+1.00,+2.00,+24.00,+30.00,-16.00,-6.00,-7.00,-23.00,-8.00,-5.00,+2.00
-38.00,-32.00,-9.00,-7.00,+7.00,+8.00,+1.00,+2.00,-18.00,-7.00,-2.00,+0.00,+9.00,+2.00,+2.00,+5.00
+19.00,+11.00,+1.00,+2.00,-1.00,-2.00,+0.00,+4.00,+63.00,+33.00,-6.00,-11.00,+2.00,-2.00,+2.00,+13.00
-3.00,-35.00,-5.00,-1.00,-3.00,-3.00,+0.00,-3.00,-47.00,-19.00,-1.00,-4.00,-9.00,-3.00,-1.00,-21.00
-17.00,-29.00,-6.00,+1.00,-9.00,-11.00,-7.00,-12.00,-17.00,-11.00,-4.00,-2.00,+2.00,+2.00,+3.00,+12.00
-41.00,-47.00,-13.00,-7.00,-12.00,-7.00,-5.00,-5.00,+9.00,-6.00,-5.00,-2.00,-4.00,-5.00,-5.00,-2.00
+13.00,+87.00,+14.00,+3.00,+3.00,+0.00,+0.00,-4.00,+12.00,+3.00,-9.00,-17.00,-15.00,-6.00,-4.00,-16.00
+36.00,+15.00,+5.00,+5.00,+7.00,+4.00,+2.00,-9.00,+16.00,+24.00,-1.00,-1.00,+14.00,+0.00,-1.00,+16.00
-13.00,-38.00,-8.00,-8.00,-4.00,+1.00,+0.00,-3.00,+17.00,-2.00,-1.00,-2.00,-17.00,-3.00,-3.00,-10.00
-13.00,-45.00,-9.00,-3.00,+0.00,-1.00,-2.00,-6.00,+7.00,+5.00,-5.00,-2.00,+5.00,+1.00,+3.00,+7.00
+14.00,-14.00,-5.00,-2.00,+2.00,-2.00,-3.00,+1.00,-36.00,-2.00,-2.00,+3.00,-8.00,-3.00,-2.00,-9.00
+8.00,+50.00,+13.00,+5.00,+3.00,+0.00,+1.00,+1.00,+1.00,-32.00,-2.00,-2.00,-4.00,-4.00,-5.00,-9.00
-13.00,+2.00,+0.00,+3.00,+2.00,+7.00,+5.00,+3.00,+24.00,+32.00,-2.00,-3.00,+8.00,-1.00,+1.00,+6.00
+24.00,-2.00,+1.00,+1.00,-1.00,+0.00,-1.00,+6.00,+1.00,-2.00,+3.00,+8.00,+2.00,+1.00,-1.00,-3.00
+7.00,-8.00,-9.00,-7.00,-4.00,-4.00,-3.00,-1.00,-20.00,-2.00,+2.00,-4.00,-6.00,-4.00,+0.00,+0.00
-30.00,-45.00,-7.00,-5.00,-6.00,-3.00,-4.00,-3.00,-2.00,+5.00,-2.00,-6.00,-8.00,-4.00,-2.00,-2.00
+41.00,+29.00,+4.00,+2.00,+2.00,-1.00,+1.00,-1.00,+24.00,+1.00,+4.00,+5.00,+3.00,+1.00,+2.00,+9.00
-29.00,+1.00,+2.00,+3.00,+2.00,+2.00,+3.00,+5.00,-36.00,-7.00,-2.00,-3.00,-7.00,-6.00,-6.00,-14.00
+57.00,+58.00,+13.00,+7.00,+6.00,+6.00,+6.00,+17.00,+12.00,+15.00,+0.00,+2.00,+8.00,+1.00,+2.00,-7.00
-12.00,-70.00,-7.00,-1.00,-2.00,-1.00,-1.00,+0.00,-30.00,-40.00,-4.00,+3.00,+1.00,+1.00,-5.00,-12.00
-54.00,-11.00,-9.00,-7.00,-3.00,-4.00,-6.00,-19.00,+6.00,+19.00,-1.00,-7.00,+0.00,-3.00,+0.00,+7.00
+25.00,+74.00,+9.00,+2.00,+10.00,+0.00,+2.00,+10.00,+32.00,-16.00,-1.00,-2.00,-3.00,+1.00,-3.00,+4.00
-3.00,-12.00,-8.00,-7.00,-16.00,-6.00,-4.00,-10.00,-52.00,-29.00,-4.00,-1.00,-3.00,+0.00,-1.00,+6.00
-23.00,+21.00,-3.00,-1.00,+1.00,-1.00,+0.00,+0.00,+47.00,+27.00,-4.00,-9.00,-10.00,-6.00,-3.00,-6.00
+4.00,+18.00,-4.00,-1.00,-12.00,-6.00,-5.00,-6.00,-16.00,+6.00,+5.00,+9.00,+7.00,+2.00,+0.00,+1.00
-11.00,+6.00,-1.00,-2.00,-2.00,-4.00,-5.00,-8.00,-14.00,-1.00,-5.00,-8.00,-14.00,-6.00,-3.00,-10.00
-11.00,-56.00,-12.00,-11.00,+5.00,+5.00,-2.00,-10.00,+23.00,-2.00,-6.00,-6.00,+21.00,+0.00,+0.00,+6.00
+4.00,-30.00,+14.00,+3.00,+2.00,+3.00,+3.00,+11.00,+0.00,-9.00,-2.00,+8.00,-15.00,+1.00,+1.00,+0.00
+40.00,-17.00,+9.00,+7.00,-2.00,+2.00,+2.00,+10.00,-3.00,-19.00,+2.00,-2.00,-4.00,-3.00,-1.00,-4.00
-13.00,-27.00,-7.00,-2.00,+4.00,-1.00,-2.00,-9.00,+3.00,+9.00,-2.00,-3.00,-10.00,+0.00,+1.00,+1.00
+2.00,-30.00,-5.00,-2.00,-9.00,-4.00,-3.00,+2.00,-8.00,-6.00,+0.00,+4.00,+1.00,-1.00,-2.00,-4.00
-5.00,-27.00,-4.00,-3.00,-3.00,-2.00,-2.00,-4.00,+4.00,+11.00,-2.00,-6.00,+7.00,-3.00,-4.00,-6.00
-12.00,+17.00,+1.00,-2.00,+4.00,+0.00,-1.00,+0.00,+0.00,-1.00,+0.00,-2.00,+3.00,+0.00,-3.00,-1.00
+0.00,+76.00,-11.00,-6.00,-6.00,-5.00,-4.00,-1.00,-2.00,-6.00,+1.00,+1.00,-5.00,-3.00,-1.00,-4.00
+0.00,-37.00,+4.00,+2.00,+3.00,-3.00,-1.00,+5.00,-17.00,-7.00,+0.00,+2.00,+11.00,+6.00,+1.00,-6.00
+10.00,+26.00,+8.00,+6.00,+0.00,+9.00,+5.00,+9.00,+26.00,+28.00,+2.00,-1.00,-5.00,+1.00,-2.00,-1.00
-8.00,-29.00,-4.00,-3.00,-7.00,-5.00,+0.00,-1.00,-43.00,-33.00,-4.00,+5.00,-5.00,-9.00,+1.00,-1.00
+8.00,-72.00,-6.00,-3.00,-2.00,+2.00,+1.00,-1.00,+41.00,+5.00,-1.00,-1.00,+4.00,-2.00,-3.00,-5.00
-8.00,+36.00,+5.00,+2.00,+2.00,-3.00,+1.00,-1.00,-11.00,-22.00,-7.00,-2.00,+3.00,-2.00,-3.00,-3.00
+9.00,+34.00,-15.00,-13.00,-5.00,-7.00,-3.00,-4.00,+13.00,+45.00,+7.00,-7.00,-20.00,-1.00,+1.00,+16.00
-32.00,-90.00,-10.00,-7.00,-9.00,+2.00,-1.00,-9.00,-38.00,-13.00,+1.00,+1.00,+3.00,+7.00,+2.00,-20.00
+33.00,+50.00,+4.00,-3.00,-14.00,-10.00,-4.00,+7.00,+18.00,+7.00,+8.00,+10.00,+15.00,+3.00,+1.00,+5.00
-9.00,-71.00,+10.00,+10.00,+21.00,+13.00,+5.00,+1.00,-38.00,-36.00,-2.00,+1.00,+4.00,-3.00,-7.00,-12.00
+19.00,+6.00,+2.00,+6.00,+11.00,+2.00,+0.00,+7.00,+36.00,+28.00,-4.00,+6.00,+3.00,+4.00,+4.00,-9.00
+5.00,+45.00,+0.00,+1.00,-2.00,-1.00,-2.00,-2.00,+10.00,+3.00,-1.00,-14.00,-24.00,-7.00,-3.00,-1.00
-34.00,-73.00,-14.00,-10.00,-6.00,-3.00,-3.00,-8.00,-29.00,-21.00,-6.00,-6.00,+2.00,-3.00,+0.00,-3.00
+12.00,+37.00,+2.00,+3.00,-3.00,-2.00,-3.00,-3.00,+53.00,+32.00,-1.00,-14.00,-25.00,-5.00,-2.00,+12.00
-13.00,+14.00,+3.00,+4.00,-1.00,-4.00,+0.00,+2.00,-26.00,-29.00,+2.00,+6.00,+23.00,+2.00,-1.00,-5.00
-17.00,-38.00,-9.00,-6.00,+2.00,-4.00,-1.00,-5.00,+17.00,+12.00,-1.00,+6.00,+11.00,+2.00,-1.00,-1.00
-18.00,-7.00,-1.00,+1.00,-1.00,-2.00,-2.00,-5.00,-11.00,-2.00,-5.00,-5.00,-11.00,-1.00,-2.00,-8.00
+19.00,+47.00,+8.00,+2.00,+4.00,-1.00,+2.00,+3.00,-8.00,+3.00,+1.00,+3.00,+2.00,-1.00,+0.00,-7.00
-11.00,-46.00,-9.00,+0.00,-4.00,-2.00,+0.00,+7.00,+11.00,+3.00,-3.00,-2.00,-2.00,-3.00,-1.00,+10.00
+28.00,+13.00,-1.00,-3.00,+6.00,+1.00,+0.00,+9.00,+5.00,+8.00,+4.00,+2.00,+5.00,+1.00,-2.00,+0.00
-8.00,-19.00,+2.00,+1.00,+4.00,+0.00,-1.00,-2.00,-1.00,+1.00,-2.00,-5.00,-4.00,-3.00,-5.00,+0.00
+12.00,-6.00,-8.00,-4.00,-3.00,-2.00,+1.00,+1.00,-25.00,-7.00,-1.00,-3.00,-16.00,-3.00,-1.00,+3.00
+11.00,+50.00,+6.00,+1.00,-4.00,-3.00,-1.00,-5.00,+25.00,-7.00,+0.00,-1.00,-3.00,-1.00,-1.00,+0.00
+16.00,-56.00,+0.00,+2.00,+1.00,+1.00,+2.00,+7.00,-46.00,-31.00,-4.00,+6.00,+20.00,+4.00,-4.00,-4.00
+2.00,+30.00,+4.00,+4.00,+2.00,+3.00,-1.00,-1.00,+46.00,+51.00,+6.00,-3.00,-22.00,-4.00,-1.00,-2.00
-46.00,-31.00,-19.00,-13.00,-8.00,-4.00,-6.00,-15.00,-4.00,-3.00,-4.00,-3.00,-14.00,-3.00,-3.00,-5.00
-6.00,-5.00,+1.00,-1.00,-4.00,-2.00,-3.00,-10.00,-24.00,-27.00,-6.00,-12.00,-9.00,-4.00,-3.00,-1.00
+8.00,+37.00,+8.00,+7.00,+5.00,+1.00,+3.00,+4.00,+30.00,+6.00,-2.00,-1.00,+4.00,-3.00,-4.00,+8.00
-7.00,-22.00,-3.00,-2.00,-2.00,+1.00,-1.00,-5.00,-25.00,-2.00,-3.00,+6.00,+14.00,+4.00,+1.00,-9.00
-11.00,-24.00,-8.00,-6.00,-12.00,-7.00,-5.00,-7.00,+15.00,+11.00,+0.00,-3.00,-7.00,-3.00,+0.00,+0.00
-31.00,-77.00,-14.00,-9.00,+5.00,-5.00,-7.00,-14.00,-65.00,-34.00,+0.00,-1.00,-4.00,-3.00,-5.00,-13.00
+63.00,+109.00,+23.00,+6.00,-12.00,-1.00,+6.00,+19.00,+89.00,+16.00,+3.00,+3.00,+11.00,+0.00,+0.00,+12.00
-5.00,-10.00,+6.00,+4.00,+2.00,+6.00,+3.00,+17.00,-12.00,-5.00,-2.00,-3.00,-8.00,+4.00,+7.00,+4.00
-23.00,-42.00,-8.00,-4.00,-1.00,-3.00,-4.00,-6.00,+27.00,+13.00,+5.00,+8.00,+10.00,+3.00,+4.00,+3.00
+28.00,-11.00,-5.00,-2.00,-3.00,+0.00,-1.00,+4.00,-7.00,-2.00,-3.00,-8.00,-19.00,-7.00,-5.00,+3.00
-36.00,-39.00,-8.00,-1.00,+4.00,-2.00,-5.00,-15.00,-10.00,+7.00,-2.00,-5.00,-9.00,-2.00,-2.00,-10.00
-28.00,-14.00,+0.00,+1.00,+0.00,-3.00,-3.00,-12.00,-9.00,-9.00,-1.00,+0.00,+1.00,-1.00,-3.00,-1.00
-6.00,+16.00,-1.00,+1.00,-2.00,-1.00,+0.00,-1.00,+4.00,+1.00,+0.00,+4.00,+11.00,+1.00,+1.00,+6.00
+4.00,+18.00,+2.00,-1.00,+0.00,+1.00,-1.00,+2.00,+13.00,+7.00,-1.00,+0.00,+7.00,-2.00,-1.00,-3.00
-18.00,+27.00,-3.00,-4.00,+0.00,-4.00,-5.00,-7.00,-18.00,-15.00,-5.00,-2.00,-7.00,+0.00,+2.00,-2.00
+23.00,-10.00,+2.00,+2.00,+3.00,+3.00,+4.00,+6.00,+15.00,+9.00,+1.00,-2.00,-3.00,-2.00,-1.00,+7.00
-4.00,+0.00,+3.00,+1.00,+5.00,+5.00,+2.00,+4.00,-9.00,+5.00,-1.00,+1.00,+0.00,+0.00,-4.00,-5.00
+4.00,+30.00,+2.00,+1.00,-3.00,-11.00,-2.00,-3.00,-7.00,-25.00,-5.00,+3.00,+7.00,+4.00,+2.00,-2.00
-14.00,-32.00,-4.00,-5.00,+1.00,-5.00,-4.00,-1.00,-15.00,-2.00,-1.00,-4.00,-12.00,-1.00,+0.00,+5.00
+6.00,+27.00,-3.00,-4.00,-2.00,+2.00,+0.00,-3.00,+1.00,+2.00,+3.00,+1.00,+8.00,+6.00,-2.00,-7.00
+32.00,+0.00,+4.00,+1.00,+1.00,-1.00,+1.00,+9.00,-2.00,-5.00,+7.00,+3.00,-4.00,-20.00,-2.00,+1.00
+5.00,-8.00,+0.00,-1.00,-1.00,+2.00,+2.00,+5.00,-9.00,+2.00,-16.00,-4.00,-4.00,-4.00,-3.00,-5.00
-12.00,-31.00,-8.00,-2.00,-1.00,-1.00,-4.00,-6.00,-20.00,-8.00,-1.00,-2.00,+1.00,+1.00,-3.00,-8.00
+10.00,+65.00,+2.00,+0.00,-3.00,-9.00,-6.00,+0.00,+27.00,+11.00,-2.00,-4.00,-5.00,+0.00,+3.00,+8.00
+6.00,-16.00,-3.00,+2.00,+1.00,-3.00,-3.00,+1.00,-13.00,-2.00,-1.00,-4.00,-3.00,+4.00,-2.00,-2.00
-20.00,+33.00,+3.00,+0.00,-3.00,+3.00,-1.00,-5.00,-4.00,+9.00,+9.00,+3.00,+2.00,-1.00,+0.00,-1.00
+6.00,+31.00,+11.00,+4.00,+3.00,+0.00,+1.00,+7.00,-21.00,-5.00,-3.00,-2.00,-4.00,-3.00,-2.00,+1.00
-1.00,-23.00,+1.00,+0.00,+0.00,+0.00,-1.00,-1.00,+12.00,-8.00,-5.00,+1.00,+0.00,-3.00,-3.00,-14.00
-3.00,+7.00,+0.00,-1.00,-1.00,+0.00,+0.00,+0.00,+0.00,-11.00,-1.00,+3.00,-4.00,+1.00,+0.00,+1.00
-4.00,-2.00,-7.00,-2.00,-1.00,+0.00,-1.00,+1.00,+23.00,+21.00,+3.00,+0.00,+7.00,-1.00,+1.00,+0.00
-34.00,-32.00,-6.00,-5.00,+1.00,+0.00,-3.00,-9.00,-1.00,-3.00,-1.00,+0.00,+0.00,+1.00,-2.00,+0.00
+24.00,-11.00,+5.00,+3.00,+2.00,+0.00,+0.00,+10.00,-33.00,-8.00,+1.00,-1.00,-4.00,-5.00,-2.00,-3.00
-19.00,+5.00,-12.00,-8.00,-5.00,-3.00,-4.00,-7.00,-2.00,-20.00,-5.00,-1.00,+3.00,+1.00,+0.00,+0.00
+20.00,-19.00,+7.00,+3.00,+1.00,+1.00,+1.00,+7.00,-20.00,-2.00,+2.00,+1.00,+0.00,+2.00,+0.00,-6.00
-8.00,-28.00,+1.00,-2.00,+0.00,+2.00,+0.00,+0.00,+40.00,+32.00,+11.00,+2.00,+0.00,+1.00,+2.00,+0.00
+17.00,+39.00,+2.00,+1.00,-1.00,+2.00,+2.00,+7.00,+17.00,-2.00,-8.00,-2.00,+1.00,-2.00,+1.00,+6.00
-3.00,+23.00,+5.00,+3.00,+4.00,-1.00,-1.00,-5.00,-13.00,-14.00,-9.00,-2.00,+1.00,-2.00,-3.00,-11.00
-11.00,-18.00,-6.00,-5.00,-4.00,-1.00,+1.00,-5.00,-6.00,-13.00,-5.00,-3.00,-2.00,-2.00,-1.00,+3.00
+54.00,+37.00,+3.00,+2.00,+7.00,+4.00,+5.00,+21.00,+19.00,+19.00,+5.00,+3.00,-1.00,-3.00,+0.00,+4.00
-19.00,-35.00,-8.00,-6.00,-4.00,-1.00,-2.00,-15.00,-20.00,-21.00,+0.00,+4.00,+6.00,-1.00,-2.00,-17.00
+0.00,+32.00,+5.00,+0.00,-1.00,-1.00,+0.00,+1.00,+3.00,-4.00,-4.00,-9.00,-10.00,+0.00,+0.00,+3.00
+8.00,+10.00,-1.00,-3.00,-2.00,-2.00,-2.00,-1.00,-3.00,-2.00,+0.00,+0.00,-2.00,+0.00,+0.00,-2.00
+0.00,+5.00,-7.00,-5.00,-2.00,-5.00,-3.00,-7.00,-18.00,-24.00,-6.00,-2.00,-1.00,-2.00,+0.00,+2.00
-12.00,-31.00,+0.00,+7.00,+5.00,+0.00,-1.00,-4.00,+30.00,+27.00,-2.00,-3.00,-3.00,-2.00,-2.00,+12.00
-5.00,-18.00,+5.00,+4.00,+0.00,+2.00,-2.00,-3.00,-12.00,-6.00,-4.00,+1.00,+2.00,+0.00,-1.00,+5.00
+15.00,+29.00,+8.00,+1.00,-1.00,+1.00,-1.00,+7.00,+4.00,+11.00,+7.00,+5.00,+0.00,-2.00,-1.00,+0.00
-2.00,+20.00,-7.00,-8.00,-5.00,-1.00,-1.00,-9.00,-22.00,-37.00,-12.00,-3.00,-2.00,-1.00,+1.00,+2.00
+32.00,+13.00,-2.00,-3.00,-4.00,-3.00,-1.00,+6.00,-10.00,+24.00,+6.00,-2.00,+0.00,-1.00,+2.00,+11.00
-4.00,+8.00,+5.00,+5.00,+4.00,+0.00,+1.00,-2.00,+4.00,-12.00,-2.00,-2.00,-1.00,-1.00,-1.00,-5.00
-17.00,+17.00,-1.00,+1.00,+1.00,-1.00,-3.00,-6.00,-13.00,+12.00,+2.00,+1.00,+2.00,+1.00,-3.00,-7.00
-12.00,-41.00,-10.00,-3.00,-4.00,+0.00,-2.00,-9.00,+5.00,+2.00,+0.00,+0.00,-1.00,+0.00,-3.00,+24.00
-27.00,+45.00,+5.00,+2.00,+2.00,+1.00,+0.00,-8.00,-30.00,-54.00,-7.00,-2.00,+0.00,-2.00,-4.00,-11.00
+64.00,+53.00,+6.00,+1.00,-1.00,+0.00,+3.00,+20.00,+31.00,+38.00,+4.00,-1.00,-2.00,+0.00,+2.00,+4.00
-6.00,-28.00,+2.00,+2.00,+4.00,+1.00,-2.00,+1.00,-10.00,-2.00,+4.00,+2.00,+2.00,+1.00,-1.00,-21.00
-5.00,+0.00,+0.00,+5.00,-1.00,-1.00,-1.00,-3.00,+6.00,+6.00,-1.00,+2.00,+0.00,-2.00,+1.00,-4.00
-13.00,-34.00,-13.00,-9.00,-3.00,-3.00,-1.00,-4.00,-2.00,-1.00,+0.00,+0.00,-4.00,-3.00,+0.00,+6.00
-19.00,-36.00,-9.00,-7.00,-6.00,-3.00,-1.00,-7.00,+4.00,+19.00,+9.00,+2.00,+0.00,+0.00,-2.00,+4.00
+8.00,+4.00,+6.00,+5.00,+1.00,-1.00,+3.00,+5.00,-23.00,-39.00,-6.00,-8.00,-2.00,-2.00,-4.00,-2.00
+19.00,+56.00,+4.00,-1.00,+0.00,-1.00,-1.00,+1.00,+23.00,+23.00,-3.00,-1.00,+1.00,+1.00,+1.00,+1.00
-41.00,+11.00,+6.00,+0.00,-3.00,-2.00,-4.00,-15.00,+8.00,-1.00,-2.00,+0.00,+0.00,-1.00,-1.00,+6.00
-2.00,-3.00,-6.00,-1.00,+1.00,+2.00,-2.00,-1.00,-24.00,-27.00,-8.00,-5.00,-1.00,+1.00,-3.00,+0.00
+1.00,-39.00,-12.00,-5.00,+0.00,+2.00,+2.00,-2.00,+6.00,+5.00,+2.00,+2.00,+2.00,+0.00,+1.00,+2.00
-9.00,-20.00,-1.00,+2.00,+1.00,-1.00,+0.00,-1.00,-38.00,-1.00,+2.00,-1.00,-5.00,-2.00,-3.00,-19.00
-2.00,+0.00,-5.00,-4.00,-2.00,-3.00,-2.00,-2.00,-2.00,+4.00,+5.00,+1.00,-1.00,-1.00,-1.00,+3.00
+1.00,-17.00,+0.00,-1.00,-3.00,-3.00,-2.00,-2.00,-5.00,+4.00,+0.00,-3.00,-2.00,-2.00,-3.00,-7.00
-23.00,+0.00,-6.00,-1.00,-2.00,-1.00,+1.00,+9.00,+14.00,+7.00,-9.00,-6.00,-3.00,-2.00,-3.00,+6.00
-2.00,+1.00,+5.00,+1.00,+1.00,-1.00,+0.00,-2.00,-3.00,-20.00,+0.00,+4.00,+2.00,-1.00,+1.00,-2.00
+11.00,-11.00,-6.00,-7.00,-4.00,+0.00,+2.00,+6.00,+14.00,+8.00,+0.00,-1.00,-1.00,-1.00,-1.00,-4.00
-9.00,+3.00,+6.00,+2.00,-1.00,+0.00,+0.00,-3.00,-7.00,-18.00,-1.00,-3.00,-1.00,-2.00,-2.00,-15.00
+14.00,+1.00,+0.00,+2.00,-1.00,+1.00,-1.00,-2.00,+26.00,+19.00,-4.00,-3.00,-2.00,-1.00,+1.00,+12.00
-23.00,-27.00,-6.00,-2.00,-3.00,-2.00,-2.00,-7.00,-8.00,-1.00,-5.00,+0.00,+0.00,+0.00,-4.00,-10.00
+16.00,+4.00,+0.00,+2.00,+0.00,+0.00,+1.00,+5.00,+10.00,+15.00,+2.00,-2.00,-2.00,-2.00,-3.00,+5.00
-21.00,-40.00,-15.00,-7.00,-2.00,-2.00,-1.00,-6.00,-8.00,-9.00,+0.00,+2.00,+1.00,+2.00,+1.00,-2.00
+4.00,+40.00,+4.00,-11.00,-5.00,-2.00,-2.00,-3.00,-8.00,+14.00,+8.00,+2.00,-2.00,-1.00,-2.00,-8.00
+8.00,+29.00,+1.00,+1.00,+0.00,+0.00,+2.00,+3.00,+21.00,+8.00,-3.00,-4.00,-4.00,-1.00,+1.00,+8.00
+6.00,-13.00,+5.00,+4.00,+8.00,+3.00,+2.00,+2.00,-42.00,-38.00,-11.00,-5.00,-1.00,+0.00,-3.00,-13.00
-17.00,-16.00,-3.00,-1.00,-1.00,-2.00,-1.00,-4.00,-3.00,+12.00,+3.00,+1.00,+3.00,+0.00,-1.00,+2.00
-2.00,+18.00,+1.00,+3.00,+1.00,-2.00,-1.00,-5.00,+16.00,+2.00,-1.00,-1.00,-4.00,+0.00,+2.00,-1.00
-10.00,-14.00,+0.00,-3.00,-3.00,-3.00,-3.00,-5.00,-11.00,+9.00,+2.00,+1.00,+0.00,-1.00,-1.00,-6.00
+0.00,-51.00,-15.00,-6.00,-3.00,-2.00,+1.00,+1.00,+5.00,-2.00,+0.00,+4.00,-1.00,-1.00,+0.00,-2.00
+7.00,+6.00,+0.00,-4.00,-2.00,+2.00,+0.00,+2.00,-10.00,-25.00,-7.00,+3.00,+1.00,+1.00,+2.00,-1.00
+3.00,+0.00,+1.00,+1.00,+0.00,+1.00,-2.00,-1.00,+7.00,+15.00,-2.00,-5.00,-1.00,-2.00,-1.00,+6.00
+8.00,+5.00,+3.00,+0.00,+2.00,+0.00,+0.00,+6.00,-20.00,-22.00,-5.00,-7.00,-3.00,-3.00,-3.00,+1.00
+4.00,-12.00,-7.00,-5.00,+0.00,-1.00,-1.00,+2.00,+7.00,+5.00,-1.00,-1.00,-1.00,-2.00,-1.00,-1.00
-9.00,-23.00,-4.00,-3.00,-2.00,-3.00,-2.00,-4.00,+13.00,+27.00,+5.00,-1.00,-1.00,+0.00,-1.00,+3.00
+7.00,+38.00,+9.00,+4.00,+1.00,-1.00,+1.00,-1.00,-14.00,-11.00,-7.00,-3.00,+1.00,-1.00,-2.00,-3.00
+1.00,-13.00,+6.00,+8.00,+4.00,+3.00,+0.00,+5.00,+1.00,-4.00,+0.00,+0.00,-1.00,+0.00,+1.00,+14.00
-13.00,-30.00,-4.00,+1.00,+1.00,+1.00,-1.00,-5.00,-7.00,+10.00,+2.00,-1.00,-1.00,-1.00,+0.00,-1.00
+14.00,+77.00,+8.00,-2.00,-2.00,+0.00,-1.00,+0.00,+4.00,+12.00,-2.00,+0.00,-1.00,-2.00,-3.00,-1.00
-31.00,-38.00,-1.00,+1.00,+0.00,+0.00,-4.00,-12.00,-7.00,-18.00,-6.00,-3.00,-1.00,-2.00,+0.00,+3.00
-13.00,-13.00,-8.00,-5.00,-4.00,-1.00,-3.00,-4.00,-16.00,-1.00,+1.00,+2.00,-2.00,+0.00,-1.00,-11.00
-2.00,+24.00,+1.00,+0.00,+0.00,-1.00,+0.00,+0.00,+18.00,+16.00,+0.00,-2.00,-1.00,+0.00,-3.00,+0.00
-10.00,-6.00,+4.00,+3.00,+0.00,-1.00,+0.00,-2.00,-3.00,+4.00,+1.00,-1.00,-2.00,-1.00,-1.00,-7.00
+22.00,-12.00,-7.00,+0.00,-1.00,+1.00,+1.00,+6.00,-2.00,+0.00,-1.00,-1.00,-3.00,-1.00,+0.00,-2.00
-4.00,-5.00,+11.00,+1.00,+2.00,+2.00,+1.00,+2.00,-32.00,-15.00,+1.00,-4.00,-1.00,-2.00,-2.00,-8.00
+8.00,-18.00,-5.00,-6.00,-3.00,-2.00,-1.00,+1.00,-11.00,-10.00,-2.00,+1.00,+1.00,+0.00,+0.00,+6.00
-3.00,-3.00,-11.00,-8.00,-4.00,-4.00,-3.00,-3.00,+17.00,+15.00,-1.00,+0.00,+0.00,-1.00,-2.00,-3.00
-12.00,-50.00,+0.00,-1.00,-3.00,-2.00,-3.00,-5.00,+11.00,-3.00,+0.00,-1.00,-2.00,-2.00,-5.00,-2.00
+34.00,+25.00,-6.00,+1.00,+1.00,+1.00,+1.00,+7.00,+13.00,+8.00,-5.00,-2.00,+0.00,+0.00,+1.00,+2.00
+17.00,+113.00,+22.00,+6.00,+3.00,+2.00,+1.00,+8.00,+1.00,+1.00,+6.00,+0.00,+1.00,+0.00,+0.00,-12.00
-1.00,+19.00,-3.00,+1.00,+3.00,-1.00,-3.00,-2.00,-21.00,-29.00,-4.00,-1.00,+0.00,+1.00,-1.00,+3.00
+3.00,-24.00,+2.00,+0.00,-4.00,-2.00,+2.00,+1.00,+16.00,+6.00,+4.00,+1.00,+3.00,-1.00,-1.00,+1.00
-22.00,-38.00,-8.00,-4.00,-1.00,-2.00,-3.00,-10.00,+5.00,+1.00,-1.00,+1.00,+1.00,+1.00,-2.00,-4.00
+1.00,-26.00,-11.00,+3.00,-1.00,-1.00,-1.00,+0.00,+15.00,+3.00,-9.00,-6.00,-2.00,-2.00,-1.00,+6.00
-2.00,+12.00,-2.00,-7.00,-2.00,-2.00,-2.00,-7.00,+0.00,+9.00,+4.00,+1.00,-2.00,+1.00,+0.00,+5.00
+9.00,-2.00,+3.00,+0.00,+2.00,+1.00,+0.00,+16.00,+0.00,-7.00,+3.00,+1.00,-1.00,+0.00,-2.00,-5.00
-8.00,+18.00,-1.00,-3.00,-4.00,-2.00,-2.00,-4.00,-6.00,-17.00,-2.00,-2.00,-3.00,-2.00,-3.00,-6.00
+14.00,+2.00,-5.00,-5.00,-4.00,-2.00,-1.00,-1.00,+13.00,+2.00,+0.00,-1.00,+1.00,+0.00,+1.00,+1.00
-24.00,-33.00,-1.00,+5.00,-1.00,-2.00,+0.00,-6.00,-6.00,-8.00,-8.00,-6.00,-1.00,-2.00,-2.00,-7.00
+0.00,-30.00,-13.00,-6.00,-2.00,-3.00,-2.00,-8.00,-1.00,+8.00,+2.00,-2.00,-2.00,-1.00,+1.00,+2.00
+7.00,+76.00,+21.00,+6.00,-1.00,-1.00,-1.00,+2.00,+12.00,+16.00,+1.00,+2.00,-1.00,+1.00,-1.00,+1.00
+9.00,-11.00,+0.00,+2.00,+2.00,+2.00,+0.00,+6.00,-23.00,-17.00,-10.00,-6.00,-2.00,+0.00,-2.00,-3.00
+5.00,-5.00,-4.00,+1.00,+3.00,+1.00,-1.00,+1.00,+10.00,+12.00,-3.00,-2.00,+0.00,-1.00,+2.00,+3.00
+6.00,+13.00,+1.00,-3.00,-1.00,-2.00,-1.00,+0.00,+0.00,+3.00,+6.00,+3.00,-1.00,-2.00,-2.00,-2.00
-7.00,-8.00,-6.00,-4.00,-2.00,-3.00,-1.00,-2.00,-7.00,+23.00,+5.00,-1.00,-2.00,-2.00,-4.00,-6.00
-14.00,-7.00,+3.00,+3.00,-1.00,-3.00,-4.00,-9.00,-10.00,-17.00,-3.00,+2.00,-2.00,-1.00,+0.00,-10.00
-2.00,-18.00,-1.00,-3.00,+0.00,+0.00,+2.00,+0.00,+0.00,-1.00,-1.00,-4.00,-2.00,-1.00,-1.00,-5.00
+0.00,+15.00,+5.00,-1.00,+0.00,+0.00,+0.00,-3.00,+3.00,+4.00,+1.00,+1.00,+2.00,+1.00,+0.00,-2.00
-1.00,-25.00,-17.00,-4.00,-4.00,-1.00,+0.00,-2.00,+8.00,-5.00,-5.00,-2.00,+0.00,+0.00,+0.00,-1.00
-13.00,-41.00,+1.00,-4.00,-3.00,-3.00,+0.00,-5.00,+0.00,-3.00,+1.00,+0.00,-4.00,-2.00,-3.00,-7.00
+17.00,+42.00,+12.00,+14.00,+6.00,+4.00,+4.00,+8.00,+15.00,+20.00,-5.00,-2.00,-3.00,-2.00,+0.00,+2.00
-7.00,+52.00,-18.00,-9.00,-6.00,-5.00,-4.00,-9.00,-18.00,-41.00,-11.00,+2.00,+3.00,+3.00,+2.00,+4.00
+5.00,-52.00,+12.00,+0.00,+0.00,+0.00,+1.00,-1.00,+1.00,+27.00,+16.00,+2.00,-1.00,-1.00,+0.00,-4.00
-20.00,-21.00,-14.00,-7.00,-2.00,-2.00,-2.00,+3.00,-1.00,-23.00,-18.00,-4.00,-2.00,-3.00,-2.00,+0.00
+0.00,-39.00,+2.00,+0.00,-1.00,+0.00,-1.00,-1.00,-7.00,-2.00,+10.00,+0.00,+1.00,-1.00,-4.00,-9.00
-25.00,+7.00,-4.00,-1.00,+0.00,-1.00,-3.00,-14.00,-5.00,-11.00,-14.00,-7.00,-3.00,-3.00,-4.00,-5.00
+3.00,-8.00,+0.00,+4.00,+2.00,-1.00,-1.00,+3.00,+8.00,+6.00,+4.00,+1.00,+1.00,-1.00,-2.00,+4.00
-4.00,-11.00,+2.00,+3.00,+0.00,+0.00,-2.00,-2.00,+2.00,+17.00,+9.00,+4.00,-1.00,-1.00,+1.00,+9.00
+16.00,+63.00,+4.00,+0.00,-1.00,+0.00,-1.00,+3.00,-2.00,-5.00,-4.00,+1.00,-1.00,-1.00,-3.00,-2.00
+12.00,+22.00,+5.00,-1.00,-1.00,-1.00,+1.00,+6.00,-1.00,-10.00,-7.00,+0.00,-1.00,-1.00,-1.00,+4.00
-16.00,+22.00,-12.00,-7.00,-4.00,-3.00,-5.00,-14.00,-2.00,-6.00,-5.00,-4.00,-3.00,+0.00,-1.00,-2.00
-6.00,-8.00,-1.00,+2.00,-1.00,-1.00,-2.00,+1.00,+6.00,+1.00,+4.00,+1.00,+0.00,+0.00,+2.00,+13.00
+7.00,-54.00,+14.00,+2.00,+2.00,+2.00,+4.00,+13.00,-2.00,+2.00,+14.00,+1.00,-1.00,-3.00,-1.00,+8.00
-4.00,-14.00,-4.00,-11.00,-4.00,-3.00,-3.00,-6.00,-11.00,-3.00,-11.00,-3.00,+2.00,+2.00,+1.00,-13.00
-9.00,-28.00,-9.00,-2.00,-3.00,+0.00,-1.00,-3.00,-1.00,-34.00,-27.00,-14.00,-5.00,-5.00,+1.00,+4.00
+12.00,+64.00,+7.00,+4.00,+1.00,-1.00,+0.00,-2.00,+9.00,+2.00,-4.00,-6.00,-2.00,-2.00,-2.00,-4.00
-15.00,-14.00,-8.00,+2.00,-3.00,-3.00,-5.00,-5.00,-10.00,-6.00,+0.00,-2.00,+0.00,-3.00,+0.00,+1.00
+0.00,-46.00,+4.00,+9.00,+3.00,+3.00,+0.00,+1.00,+23.00,+22.00,+9.00,+4.00,+1.00,-2.00,-2.00,+0.00
+5.00,+18.00,+5.00,+4.00,+0.00,-1.00,-1.00,+1.00,-1.00,-8.00,-1.00,+4.00,+2.00,+1.00,+2.00,-1.00
-4.00,+13.00,-7.00,-4.00,-3.00,-2.00,-1.00,-7.00,-12.00,-2.00,+1.00,-1.00,+1.00,+1.00,+2.00,+8.00
+10.00,-9.00,-3.00,-4.00,-2.00,-2.00,-3.00,-5.00,-4.00,+4.00,-6.00,+0.00,-1.00,-1.00,-1.00,+0.00
-10.00,-28.00,-2.00,+6.00,+1.00,-1.00,+1.00,+0.00,-9.00,+10.00,+5.00,+0.00,+0.00,-1.00,-3.00,+6.00
+5.00,+31.00,+5.00,-4.00,-2.00,-2.00,-1.00,+5.00,-14.00,-6.00,-4.00,-3.00,-2.00,-1.00,+1.00,-3.00
-9.00,-3.00,-7.00,-6.00,-1.00,-1.00,-1.00,-23.00,+2.00,-7.00,-2.00,-4.00,-3.00,+0.00,+0.00,-3.00
+13.00,+10.00,+5.00,-2.00,+0.00,+1.00,+1.00,-1.00,+3.00,-12.00,-4.00,-1.00,-1.00,+1.00,+0.00,+2.00
-29.00,-6.00,-8.00,-1.00,+0.00,-2.00,-4.00,-17.00,+3.00,+0.00,+10.00,+2.00,-3.00,-3.00,-2.00,-1.00
-3.00,-20.00,-2.00,+3.00,-1.00,-1.00,-2.00,-2.00,+5.00,+3.00,-6.00,-7.00,-5.00,-1.00,-3.00,+2.00
+14.00,+11.00,+3.00,+3.00,+2.00,+1.00,+1.00,+14.00,+7.00,+14.00,+0.00,-3.00,-1.00,-2.00,-3.00,+0.00
-11.00,+6.00,+2.00,-2.00,-6.00,-3.00,-2.00,-3.00,-4.00,+17.00,+5.00,+0.00,-1.00,+0.00,+0.00,+0.00
+5.00,+6.00,+1.00,+0.00,-2.00,-2.00,-1.00,+5.00,-2.00,-8.00,-3.00,-2.00,-2.00,-2.00,-2.00,+7.00
-2.00,-23.00,-7.00,-2.00,+0.00,-2.00,+0.00,+4.00,+8.00,+13.00,+10.00,+7.00,+0.00,-2.00,-1.00,-2.00
+4.00,+59.00,+11.00,-1.00,-2.00,-2.00,+0.00,+5.00,+1.00,-1.00,+2.00,+3.00,+0.00,-1.00,-1.00,-2.00
+0.00,-53.00,-7.00,+1.00,+1.00,+0.00,+0.00,+2.00,-4.00,-1.00,+0.00,-4.00,-2.00,+0.00,+0.00,+1.00
+19.00,+1.00,+9.00,+5.00,+2.00,+2.00,+3.00,+12.00,-5.00,-9.00,-5.00,-6.00,-2.00,-1.00,-3.00,-3.00
+3.00,+10.00,-4.00,-9.00,-1.00,-1.00,-1.00,+1.00,-6.00,-5.00,+11.00,+7.00,+3.00,+1.00,+0.00,-4.00
-6.00,-27.00,+1.00,-6.00,-7.00,-4.00,-3.00,-3.00,-6.00,-1.00,-3.00,-3.00,-3.00,-3.00,-1.00,-5.00
-9.00,+12.00,+3.00,+3.00,+5.00,+0.00,+0.00,+0.00,+2.00,-11.00,-11.00,-3.00,-3.00,-2.00,+1.00,+3.00
+5.00,+27.00,+1.00,+2.00,+0.00,-1.00,-2.00,-1.00,+6.00,+10.00,-3.00,-2.00,+2.00,+2.00,+1.00,+0.00
-8.00,+5.00,-7.00,-8.00,-3.00,-3.00,-1.00,-6.00,-13.00,-20.00,-5.00,-3.00,-8.00,-3.00,-3.00,-5.00
+0.00,-47.00,-6.00,-1.00,+2.00,+2.00,+0.00,+4.00,+8.00,+11.00,+10.00,+4.00,-1.00,-2.00,-4.00,-5.00
-7.00,+23.00,+1.00,-4.00,-2.00,-2.00,-2.00,-7.00,-13.00,-8.00,-1.00,+0.00,-1.00,-1.00,-3.00,-8.00
+3.00,-4.00,-3.00,+2.00,+1.00,+1.00,+1.00,-4.00,+1.00,-2.00,-5.00,-1.00,-2.00,+0.00,+2.00,+5.00
+2.00,+19.00,+5.00,+5.00,+0.00,+0.00,+0.00,+5.00,-2.00,+4.00,+4.00,+2.00,+3.00,-2.00,-1.00,-2.00
-8.00,-37.00,+1.00,+0.00,-2.00,-1.00,-2.00,+0.00,-3.00,+13.00,+3.00,+0.00,-1.00,+1.00,-5.00,-11.00
+10.00,+23.00,-1.00,+1.00,-7.00,-2.00,+2.00,+4.00,+7.00,+2.00,+0.00,+0.00,-3.00,-1.00,+1.00,+2.00
+4.00,-26.00,-3.00,-3.00,-1.00,+1.00,+1.00,+1.00,-13.00,-19.00,-4.00,+0.00,+0.00,+1.00,+1.00,+1.00
-10.00,+2.00,-4.00,-10.00,-5.00,-2.00,-4.00,-10.00,+3.00,+10.00,+5.00,+1.00,+4.00,+0.00,+1.00,+3.00
+2.00,-2.00,-5.00,-2.00,-1.00,-1.00,+0.00,+6.00,-5.00,-9.00,-11.00,-9.00,-10.00,-6.00,-4.00,-8.00
-4.00,-16.00,-5.00,+3.00,+1.00,-2.00,-2.00,+1.00,+7.00,+0.00,+2.00,+2.00,+2.00,+1.00,+4.00,+6.00
+7.00,+0.00,+1.00,+3.00,+0.00,-2.00,-1.00,+3.00,-3.00,+1.00,-1.00,-2.00,-3.00,-1.00,-2.00,-9.00
-4.00,+22.00,+8.00,+2.00,-1.00,-1.00,-2.00,-4.00,-3.00,+9.00,-2.00,-3.00,+0.00,+1.00,-1.00,-1.00
+2.00,-4.00,+15.00,+8.00,+4.00,+3.00,+0.00,-1.00,-4.00,-9.00,-1.00,+1.00,+2.00,-1.00,-1.00,-1.00
+27.00,+23.00,-9.00,-9.00,-3.00,+0.00,+0.00,+4.00,-1.00,-3.00,+2.00,+1.00,-1.00,+0.00,-2.00,-1.00
-4.00,-3.00,-4.00,-5.00,-1.00,+1.00,-2.00,-11.00,-9.00,-1.00,+5.00,+1.00,+3.00,-1.00,+0.00,+3.00
+1.00,-25.00,-1.00,+7.00,+3.00,+0.00,+1.00,+3.00,-6.00,+2.00,-2.00,-5.00,-4.00,-4.00,-2.00,-4.00
-3.00,+6.00,-10.00,-8.00,-3.00,-2.00,-3.00,-10.00,+6.00,-3.00,-1.00,+4.00,+3.00,-1.00,+1.00,+2.00
-6.00,-9.00,+1.00,+3.00,-1.00,-2.00,-1.00,-1.00,+1.00,-6.00,-2.00,-1.00,-1.00,-1.00,-1.00,-1.00
+2.00,-1.00,+4.00,+2.00,-5.00,-2.00,-2.00,-6.00,+4.00,+10.00,+4.00,+1.00,-3.00,-2.00,-2.00,-5.00
+0.00,-10.00,+1.00,+2.00,+6.00,+4.00,+3.00,+6.00,-5.00,-4.00,-3.00,+0.00,+3.00,+2.00,+1.00,-6.00
+0.00,-22.00,-8.00,-3.00,-1.00,+0.00,+1.00,+6.00,-4.00,-13.00,+0.00,+2.00,+6.00,+3.00,-1.00,-1.00
-15.00,-1.00,-4.00,-4.00,-5.00,-4.00,-1.00,-6.00,-3.00,+9.00,+5.00,-6.00,-11.00,-1.00,+0.00,-1.00
+8.00,+3.00,+2.00,-6.00,-1.00,-3.00,-2.00,+8.00,+3.00,+3.00,+1.00,+1.00,+1.00,-2.00,-3.00,-6.00
-14.00,-39.00,-7.00,+3.00,+5.00,+0.00,+0.00,-15.00,-3.00,-2.00,+0.00,+1.00,+3.00,-1.00,+1.00,+5.00
-5.00,+19.00,+1.00,+3.00,-7.00,-1.00,-1.00,-3.00,+3.00,+0.00,+2.00,+1.00,-8.00,-1.00,+1.00,+1.00
-2.00,-55.00,-16.00,-6.00,+7.00,+2.00,-1.00,+5.00,+8.00,+1.00,-11.00,-2.00,+7.00,+0.00,+0.00,+0.00
+5.00,+45.00,+7.00,+0.00,-1.00,-1.00,-2.00,+5.00,+11.00,+7.00,-2.00,-6.00,-12.00,-5.00,+0.00,+2.00
-1.00,+15.00,-6.00,-5.00,-3.00,-7.00,-3.00,-2.00,-19.00,-24.00,-4.00,-2.00,-3.00,-2.00,-4.00,-5.00
+3.00,-8.00,+11.00,+1.00,+1.00,+1.00,+1.00,+5.00,+3.00,+0.00,+2.00,+1.00,+2.00,+0.00,-2.00,-2.00
-19.00,-8.00,-12.00,-1.00,-4.00,-3.00,-3.00,-11.00,-6.00,+15.00,-4.00,-1.00,+2.00,-1.00,-4.00,-6.00
-6.00,-22.00,+3.00,+4.00,+1.00,+0.00,+1.00,+0.00,+7.00,-1.00,-4.00,-4.00,-3.00,-2.00,-1.00,+2.00
+7.00,+4.00,-4.00,-1.00,-1.00,+0.00,+0.00,+5.00,+13.00,+6.00,-1.00,+0.00,+1.00,+2.00,+1.00,+8.00
-29.00,-6.00,+4.00,+10.00,-1.00,-3.00,-2.00,+0.00,-5.00,-1.00,-3.00,+0.00,-1.00,+0.00,-1.00,+0.00
-3.00,+11.00,+13.00,-2.00,-2.00,+3.00,+0.00,-4.00,-6.00,-14.00,-8.00,+3.00,+4.00,+0.00,-5.00,-11.00
+6.00,+27.00,-17.00,-16.00,-7.00,-5.00,-2.00,+0.00,-2.00,-3.00,+1.00,+7.00,+6.00,+3.00,+3.00,+0.00
-10.00,-34.00,-8.00,-11.00,-4.00,-1.00,-1.00,+2.00,-1.00,+1.00,+0.00,-4.00,-1.00,-3.00,-2.00,-2.00
+16.00,-2.00,-3.00,-2.00,-1.00,-1.00,-1.00,-8.00,+0.00,+1.00,-14.00,-13.00,-8.00,-2.00,-1.00,-3.00
+0.00,-17.00,+0.00,+6.00,+4.00,+2.00,+2.00,+12.00,-3.00,-21.00,-5.00,-5.00,-5.00,-2.00,-1.00,+2.00
-7.00,-12.00,+1.00,+3.00,+2.00,+0.00,+0.00,+2.00,+0.00,+7.00,+4.00,+3.00,+5.00,+0.00,-1.00,-3.00
+10.00,+40.00,+3.00,+4.00,-2.00,-2.00,+0.00,-1.00,+0.00,-7.00,-7.00,+3.00,+0.00,-1.00,+0.00,-4.00
+3.00,-2.00,+3.00,+10.00,+5.00,+1.00,+0.00,+3.00,+5.00,+25.00,+10.00,+1.00,+2.00,-1.00,-2.00,+3.00
-6.00,-29.00,-13.00,-13.00,-7.00,-4.00,-3.00,-7.00,-9.00,-11.00,-6.00,+3.00,+6.00,-1.00,+1.00,-4.00
-4.00,+10.00,-1.00,-8.00,-2.00,-2.00,-2.00,-6.00,-2.00,+2.00,-4.00,-4.00,-4.00,-3.00,-3.00,-3.00
