+0.00,-5.00,+0.00,+2.00,+2.00,+1.00,-1.00,+3.00,-2.00,+4.00,-4.00,+0.00,+0.00,-1.00,-2.00,-3.00
-1.00,-2.00,-1.00,-1.00,+0.00,-1.00,+0.00,-3.00,-3.00,-12.00,+1.00,+1.00,+2.00,-1.00,-2.00,-2.00
-2.00,+0.00,-5.00,-4.00,-1.00,+0.00,+0.00,+1.00,+2.00,+2.00,-2.00,-1.00,+1.00,-1.00,-2.00,-2.00
+11.00,-1.00,-4.00,-3.00,-2.00,-2.00,+1.00,+14.00,+0.00,+14.00,+0.00,-4.00,+0.00,-2.00,+0.00,-3.00
-5.00,-2.00,-2.00,+2.00,+2.00,-2.00,+0.00,-4.00,-4.00,-1.00,+3.00,+0.00,-4.00,+1.00,+0.00,+1.00
+0.00,+2.00,+9.00,+10.00,+2.00,+1.00,-2.00,+0.00,+2.00,+4.00,-6.00,-4.00,+0.00,-1.00,-1.00,+2.00
+0.00,+2.00,-3.00,-2.00,-3.00,-2.00,+1.00,+2.00,+4.00,-1.00,+0.00,+4.00,+3.00,+1.00,+0.00,+3.00
-3.00,-7.00,-3.00,-5.00,-1.00,-1.00,-1.00,-2.00,-6.00,-16.00,-3.00,+1.00,-5.00,-2.00,+0.00,+0.00
+6.00,-1.00,-3.00,-3.00,-4.00,+0.00,+0.00,+4.00,-3.00,-14.00,-2.00,-5.00,-2.00,-2.00,-3.00,-4.00
-2.00,+0.00,-1.00,-6.00,+0.00,-3.00,+0.00,-3.00,+1.00,+10.00,-5.00,+0.00,-2.00,-1.00,-3.00,-5.00
-2.00,+0.00,-1.00,+4.00,-3.00,-3.00,-1.00,-2.00,+7.00,+17.00,+3.00,+0.00,+6.00,-1.00,+0.00,+0.00
-7.00,-5.00,+7.00,+4.00,-2.00,+0.00,-1.00,-5.00,-1.00,+7.00,+7.00,-2.00,-8.00,-1.00,-4.00,-8.00
+1.00,+9.00,-3.00,-6.00,+1.00,-2.00,-1.00,+0.00,-15.00,-12.00,-1.00,+3.00,+2.00,+0.00,+0.00,-3.00
-5.00,-1.00,-3.00,-1.00,-2.00,-1.00,-2.00,-3.00,-5.00,-13.00,-8.00,-7.00,-8.00,-2.00,+0.00,+0.00
+0.00,-1.00,+15.00,+9.00,+4.00,+3.00,+0.00,+3.00,-3.00,-13.00,-5.00,-1.00,-2.00,+0.00,-1.00,+0.00
-12.00,-5.00,-6.00,+1.00,-5.00,-3.00,-4.00,-7.00,+10.00,+21.00,-1.00,+2.00,+4.00,+2.00,-1.00,+2.00
-13.00,-34.00,-13.00,-11.00,-3.00,-3.00,-3.00,-9.00,+4.00,+1.00,+2.00,+2.00,-3.00,-1.00,+1.00,-1.00
+22.00,+53.00,-5.00,-12.00,-2.00,+0.00,+0.00,+11.00,-3.00,+6.00,+1.00,-2.00,+0.00,-1.00,-2.00,-2.00
-27.00,-5.00,-6.00,-1.00,-1.00,-2.00,-2.00,-9.00,-8.00,-14.00,-7.00,-2.00,-1.00,-1.00,-1.00,-5.00
-7.00,-3.00,+8.00,+11.00,+1.00,-2.00,+0.00,-5.00,-4.00,-12.00,-3.00,+2.00,+2.00,-1.00,+0.00,+3.00
+5.00,-3.00,+23.00,+7.00,+7.00,+0.00,+0.00,+5.00,+4.00,-3.00,+3.00,-1.00,-2.00,-2.00,-2.00,+1.00
-6.00,-30.00,-29.00,-17.00,-18.00,-4.00,-3.00,-5.00,+9.00,+12.00,+1.00,+1.00,+2.00,-3.00,-1.00,+0.00
+9.00,-2.00,+5.00,+0.00,+0.00,+1.00,+0.00,+1.00,-11.00,-5.00,+0.00,-2.00,-2.00,-3.00,-2.00,-1.00
+2.00,+10.00,+6.00,+10.00,-3.00,+2.00,+2.00,+4.00,-6.00,-12.00,+2.00,+4.00,-4.00,+1.00,+0.00,-4.00
-1.00,+18.00,+5.00,-3.00,+0.00,+1.00,-1.00,-5.00,+19.00,+20.00,+1.00,-1.00,-3.00,+0.00,+2.00,+7.00
-6.00,-9.00,-16.00,-6.00,-2.00,-1.00,-2.00,-5.00,+1.00,-8.00,-1.00,+1.00,+0.00,+2.00,+0.00,+1.00
+1.00,-23.00,+5.00,-6.00,-2.00,+1.00,+0.00,+0.00,-8.00,-6.00,+0.00,-6.00,-3.00,-1.00,-1.00,+2.00
-1.00,+4.00,-19.00,-11.00,-1.00,-5.00,-2.00,-3.00,-6.00,-2.00,-2.00,+0.00,+15.00,-1.00,-2.00,-3.00
+11.00,+30.00,+0.00,+6.00,+9.00,+3.00,+1.00,+3.00,-7.00,-4.00,-1.00,+0.00,-9.00,-1.00,-2.00,-5.00
-3.00,-21.00,+12.00,+7.00,+3.00,+0.00,+0.00,-4.00,+1.00,-11.00,+0.00,-2.00,-9.00,-2.00,+0.00,+2.00
-10.00,-20.00,+0.00,-3.00,-9.00,-2.00,-2.00,+11.00,+6.00,+7.00,+1.00,+10.00,+6.00,+0.00,-1.00,-1.00
+4.00,+15.00,+3.00,-4.00,-2.00,-2.00,-1.00,-2.00,+4.00,+12.00,+0.00,-16.00,-18.00,-4.00,-4.00,-2.00
-10.00,-3.00,-9.00,-1.00,-3.00,-4.00,-2.00,-3.00,+1.00,-1.00,-1.00,-1.00,+8.00,-2.00,-1.00,-1.00
+0.00,+16.00,+2.00,+6.00,-3.00,+4.00,+0.00,+3.00,-4.00,+9.00,-2.00,+0.00,-6.00,-2.00,-2.00,-3.00
+6.00,+7.00,+1.00,+1.00,+1.00,+0.00,-2.00,-1.00,-8.00,-14.00,-2.00,-2.00,-2.00,-2.00,-3.00,-4.00
-3.00,-3.00,+4.00,-3.00,+3.00,+4.00,+1.00,-4.00,+2.00,-4.00,+0.00,+2.00,+4.00,+0.00,-2.00,-6.00
-6.00,-19.00,-20.00,-6.00,-1.00,-4.00,-3.00,-7.00,-1.00,+4.00,-2.00,-4.00,+8.00,-1.00,-4.00,-2.00
-4.00,-19.00,+14.00,+4.00,+6.00,-2.00,+1.00,-1.00,+3.00,-1.00,+4.00,+1.00,-11.00,+1.00,-1.00,-1.00
+9.00,+10.00,+0.00,+4.00,+1.00,-1.00,+0.00,+1.00,+4.00,-3.00,-9.00,-3.00,+0.00,-2.00,+1.00,+1.00
-1.00,+3.00,-9.00,-10.00,-1.00,-3.00,-3.00,-2.00,-8.00,-13.00,-5.00,+6.00,+6.00,+0.00,+1.00,-4.00
-4.00,-15.00,-13.00,-13.00,-8.00,-4.00,+0.00,+1.00,+1.00,+8.00,-4.00,-5.00,-11.00,-1.00,-1.00,-2.00
-3.00,-6.00,-5.00,-3.00,+2.00,-4.00,-4.00,-3.00,-7.00,+6.00,+4.00,+3.00,+7.00,+1.00,+0.00,-2.00
-2.00,-1.00,+0.00,+0.00,-7.00,+0.00,-1.00,-2.00,+1.00,+8.00,+6.00,-2.00,-2.00,-2.00,+0.00,+2.00
+6.00,-13.00,-2.00,+7.00,+4.00,-1.00,+1.00,+4.00,+8.00,-8.00,-8.00,-8.00,-5.00,-3.00,-6.00,-2.00
-8.00,+25.00,+14.00,+11.00,+5.00,+2.00,+1.00,+18.00,+0.00,-6.00,+4.00,+9.00,+8.00,+1.00,+3.00,+4.00
+3.00,+0.00,+7.00,+7.00,-3.00,-1.00,-1.00,-1.00,-8.00,-8.00,-5.00,-4.00,-10.00,-3.00,-5.00,-10.00
+2.00,+0.00,+3.00,-4.00,+0.00,+0.00,-2.00,-2.00,+2.00,+5.00,+0.00,+0.00,-4.00,+2.00,+0.00,+5.00
-3.00,-9.00,-20.00,-21.00,-5.00,-2.00,-5.00,-5.00,-1.00,-5.00,+3.00,-6.00,-8.00,-2.00,-2.00,+2.00
+11.00,+0.00,+12.00,+4.00,-1.00,-1.00,+0.00,+7.00,-1.00,+17.00,-5.00,-2.00,+5.00,-1.00,-3.00,-6.00
-12.00,-7.00,-9.00,-2.00,+4.00,+1.00,-2.00,-9.00,-2.00,-6.00,-2.00,+2.00,+12.00,+2.00,+0.00,-1.00
+4.00,+19.00,-11.00,-5.00,+6.00,+0.00,-1.00,-1.00,-12.00,-5.00,+0.00,-1.00,-9.00,-1.00,-1.00,-7.00
-9.00,-22.00,+3.00,+2.00,-7.00,-2.00,+0.00,-5.00,-4.00,-4.00,-2.00,+6.00,+4.00,+0.00,+3.00,+7.00
+1.00,+1.00,-6.00,+0.00,-2.00,+1.00,+1.00,-2.00,-6.00,-12.00,-6.00,-4.00,-7.00,-1.00,-3.00,-1.00
-4.00,-20.00,+7.00,+5.00,-1.00,+0.00,-2.00,+1.00,+3.00,+5.00,+0.00,-1.00,-5.00,-5.00,-2.00,-5.00
+15.00,+35.00,+4.00,+0.00,+5.00,-1.00,+0.00,+3.00,-1.00,-1.00,-1.00,-1.00,+1.00,-1.00,-4.00,-5.00
+6.00,-25.00,-3.00,-4.00,-7.00,-1.00,+1.00,+5.00,+0.00,+13.00,+3.00,+5.00,+6.00,-1.00,-1.00,-5.00
-7.00,+22.00,+2.00,-3.00,-9.00,-4.00,-3.00,-12.00,-8.00,-11.00,-4.00,-4.00,-7.00,-3.00,-3.00,-11.00
-1.00,-2.00,+12.00,+3.00,+7.00,+5.00,+0.00,+2.00,+1.00,-10.00,+1.00,+1.00,+3.00,+3.00,+2.00,+9.00
-16.00,-8.00,-24.00,-13.00,-6.00,-4.00,-5.00,-6.00,+10.00,+6.00,+2.00,+5.00,+18.00,+0.00,-1.00,-1.00
+10.00,+10.00,+13.00,+5.00,+4.00,+2.00,-1.00,+3.00,-8.00,-12.00,+0.00,-2.00,-12.00,-1.00,+3.00,+4.00
-9.00,-45.00,-13.00,+3.00,+0.00,-2.00,-1.00,+0.00,+0.00,+17.00,-1.00,-8.00,-19.00,-2.00,+0.00,-3.00
+10.00,+25.00,+6.00,-7.00,-4.00,-1.00,+0.00,+2.00,-6.00,+12.00,+3.00,-4.00,-6.00,-2.00,-4.00,-7.00
+0.00,-4.00,-6.00,-5.00,+1.00,-2.00,+0.00,-4.00,+3.00,-1.00,-4.00,-8.00,-11.00,-2.00,+0.00,-1.00
-6.00,+5.00,+2.00,+6.00,-3.00,-1.00,+1.00,+4.00,+3.00,-3.00,-3.00,+2.00,+8.00,+2.00,-2.00,-6.00
+12.00,+19.00,+4.00,+3.00,+0.00,+0.00,-3.00,-8.00,-8.00,-17.00,-2.00,+5.00,+14.00,+1.00,+0.00,+5.00
-7.00,+6.00,-6.00,-1.00,-4.00,-2.00,+2.00,+20.00,+0.00,-14.00,-3.00,+7.00,+2.00,+0.00,-1.00,+1.00
-2.00,-5.00,+1.00,-2.00,+4.00,+2.00,+1.00,+2.00,+1.00,+10.00,+0.00,-1.00,-7.00,-1.00,-1.00,+4.00
-5.00,-15.00,-6.00,-1.00,+0.00,+0.00,-4.00,-6.00,+0.00,+2.00,+0.00,-2.00,+1.00,-3.00,-3.00,-4.00
-6.00,-40.00,+4.00,+4.00,-4.00,+0.00,+0.00,-2.00,-1.00,-6.00,-1.00,-1.00,+2.00,+0.00,-1.00,+0.00
+11.00,+40.00,+14.00,+2.00,+3.00,+0.00,-1.00,-3.00,+3.00,+7.00,-2.00,-2.00,+3.00,-2.00,+2.00,+7.00
+3.00,-1.00,-10.00,-2.00,-2.00,+3.00,+2.00,+3.00,-5.00,-5.00,+0.00,-2.00,-1.00,-1.00,-1.00,-5.00
-5.00,+15.00,+5.00,+2.00,-2.00,-2.00,-2.00,-8.00,-4.00,-12.00,-3.00,-7.00,-7.00,-2.00,+0.00,-1.00
+1.00,-6.00,-3.00,-3.00,+5.00,-1.00,-2.00,-4.00,+8.00,+25.00,+6.00,+2.00,-6.00,-1.00,+1.00,+7.00
-4.00,-16.00,-8.00,-6.00,-5.00,-4.00,-1.00,-3.00,-6.00,-6.00,-6.00,+6.00,+22.00,+2.00,-4.00,-7.00
-3.00,+2.00,+3.00,+0.00,-6.00,-4.00,-2.00,-4.00,+5.00,+2.00,+1.00,+9.00,+9.00,+2.00,+1.00,+8.00
+11.00,+5.00,+1.00,+3.00,+8.00,+2.00,+3.00,+6.00,-4.00,-9.00,-5.00,-20.00,-49.00,-9.00,-4.00,+3.00
-3.00,+4.00,+5.00,-4.00,-5.00,-2.00,-1.00,-2.00,-4.00,-7.00,-3.00,-4.00,+0.00,-3.00,-1.00,-2.00
-1.00,-8.00,-15.00,+0.00,+8.00,-1.00,-3.00,-2.00,+0.00,+6.00,+0.00,-5.00,+1.00,-3.00,-3.00,-5.00
+1.00,-4.00,+7.00,+8.00,-6.00,-4.00,-2.00,+3.00,-6.00,-14.00,+4.00,+0.00,-5.00,-2.00,-1.00,-5.00
-8.00,+3.00,+6.00,-4.00,+11.00,+6.00,-1.00,-9.00,+0.00,-1.00,-4.00,+8.00,+15.00,+1.00,-1.00,+1.00
-3.00,-1.00,-7.00,-5.00,+7.00,+0.00,-1.00,-3.00,+1.00,+10.00,+4.00,+3.00,+0.00,+0.00,-2.00,-4.00
-4.00,+2.00,-2.00,+2.00,-2.00,-1.00,-1.00,-6.00,+0.00,-5.00,-5.00,-6.00,-2.00,-1.00,-1.00,-2.00
-4.00,-13.00,-1.00,-4.00,+0.00,+0.00,-4.00,-3.00,-5.00,-6.00,-1.00,-2.00,-3.00,-1.00,-1.00,-5.00
-3.00,+2.00,-1.00,+1.00,-7.00,-2.00,-1.00,+0.00,+2.00,+8.00,+1.00,+3.00,+7.00,+2.00,+3.00,+6.00
-1.00,-3.00,-9.00,-11.00,-3.00,-3.00,-3.00,-3.00,+3.00,-9.00,-6.00,-3.00,-2.00,-1.00,+0.00,-4.00
+0.00,-5.00,-10.00,-3.00,-3.00,-2.00,+0.00,-4.00,-7.00,-8.00,-2.00,+2.00,+7.00,+0.00,+2.00,+3.00
+3.00,+0.00,+1.00,+4.00,-5.00,-2.00,-3.00,-1.00,-12.00,-14.00,+0.00,-9.00,-16.00,-5.00,-6.00,-14.00
-5.00,+2.00,+4.00,+1.00,+2.00,-5.00,-2.00,-2.00,+6.00,+24.00,+3.00,+3.00,+13.00,+2.00,-1.00,+2.00
+2.00,-2.00,+3.00,+5.00,+3.00,+3.00,+1.00,+1.00,-8.00,-11.00,-5.00,-7.00,-14.00,-4.00,-3.00,-10.00
+1.00,-5.00,+3.00,+4.00,-2.00,-1.00,-2.00,-1.00,-1.00,+0.00,-1.00,+5.00,+13.00,+0.00,+0.00,-2.00
+9.00,+42.00,+9.00,+3.00,-2.00,-2.00,+0.00,+0.00,+6.00,+4.00,-3.00,-10.00,-27.00,-5.00,+0.00,+8.00
+0.00,-3.00,-14.00,-13.00,-8.00,-3.00,-2.00,-2.00,-1.00,-5.00,-4.00,+5.00,+21.00,+1.00,-3.00,-10.00
-7.00,+6.00,-17.00,-1.00,+5.00,+1.00,-1.00,-7.00,-5.00,-5.00,-2.00,-15.00,-21.00,-6.00,-1.00,+3.00
+7.00,-21.00,+27.00,+9.00,+0.00,+0.00,+2.00,+7.00,+1.00,+3.00,+3.00,-2.00,-2.00,-1.00,-3.00,-5.00
-5.00,-5.00,-3.00,-3.00,+6.00,+2.00,+2.00,-4.00,-4.00,+6.00,-1.00,-2.00,+4.00,-2.00,-4.00,-11.00
-2.00,-1.00,-6.00,-5.00,+1.00,-2.00,-2.00,-3.00,+2.00,-4.00,+2.00,+3.00,+8.00,-1.00,+2.00,+6.00
+14.00,+2.00,+2.00,+5.00,-10.00,-10.00,+0.00,+9.00,+2.00,+3.00,-1.00,+3.00,+9.00,+3.00,+1.00,+10.00
-15.00,+10.00,-7.00,-1.00,+1.00,+2.00,-2.00,-10.00,-2.00,+0.00,+1.00,-1.00,-4.00,-2.00,+0.00,+0.00
+4.00,-7.00,+6.00,+0.00,+1.00,-1.00,+1.00,+4.00,+2.00,+1.00,+0.00,+7.00,+14.00,+2.00,+2.00,-4.00
-4.00,+0.00,-4.00,-6.00,-6.00,-3.00,-3.00,+0.00,+0.00,-1.00,-6.00,-6.00,-28.00,-4.00,-1.00,+4.00
+14.00,+14.00,+6.00,+1.00,-4.00,+0.00,+0.00,+4.00,-1.00,-12.00,-3.00,-2.00,+2.00,-2.00,-2.00,-6.00
-6.00,-2.00,-6.00,-2.00,-3.00,-4.00,-3.00,-8.00,-1.00,-4.00,+1.00,+0.00,+7.00,-1.00,-1.00,-4.00
+3.00,-25.00,-4.00,+0.00,-8.00,-6.00,-1.00,+1.00,+5.00,+2.00,+1.00,-1.00,-14.00,+2.00,+4.00,+13.00
-10.00,+7.00,-5.00,+0.00,+5.00,+0.00,+0.00,+14.00,-4.00,+0.00,-2.00,+5.00,+17.00,+0.00,-1.00,-4.00
-8.00,+3.00,+4.00,-4.00,+2.00,+2.00,-2.00,-4.00,+5.00,+12.00,+10.00,+1.00,-8.00,-1.00,+1.00,-3.00
+6.00,-6.00,+1.00,+0.00,+0.00,+1.00,+2.00,+4.00,-2.00,-10.00,-11.00,-7.00,+0.00,-2.00,-2.00,+4.00
-7.00,-3.00,-7.00,-2.00,+8.00,-3.00,-1.00,-2.00,-17.00,-21.00,-7.00,+6.00,-3.00,+1.00,-3.00,-15.00
+16.00,+4.00,+1.00,-2.00,-17.00,-4.00,-1.00,-4.00,+11.00,+16.00,+1.00,-3.00,+2.00,-2.00,-3.00,-1.00
-18.00,-16.00,+6.00,+1.00,+17.00,+7.00,+1.00,-10.00,-9.00,+0.00,+5.00,+8.00,+6.00,+1.00,-4.00,-13.00
-7.00,+8.00,-10.00,-1.00,-1.00,-1.00,-1.00,+0.00,-2.00,+0.00,-9.00,-12.00,-10.00,-6.00,-6.00,-9.00
+4.00,-15.00,+1.00,+1.00,-5.00,-3.00,-3.00,-8.00,+6.00,+11.00,-6.00,-9.00,-13.00,-3.00,-1.00,+8.00
+0.00,+27.00,+7.00,+5.00,+15.00,+2.00,+1.00,+3.00,-17.00,-17.00,-2.00,-2.00,-8.00,+0.00,+0.00,-9.00
+5.00,-4.00,-7.00,-6.00,-9.00,+0.00,-3.00,+1.00,+6.00,-3.00,-5.00,-10.00,-12.00,-9.00,-5.00,-7.00
-8.00,-37.00,-3.00,+2.00,+25.00,+0.00,-1.00,-1.00,+1.00,-6.00,-2.00,-6.00,-4.00,+0.00,+2.00,+8.00
-46.00,-7.00,-11.00,-11.00,-41.00,-10.00,-7.00,-19.00,+2.00,+14.00,-1.00,-2.00,+3.00,-1.00,-3.00,-2.00
+2.00,-10.00,-2.00,-4.00,-23.00,-4.00,-3.00,-5.00,-6.00,-3.00,-5.00,+0.00,+7.00,-1.00,-1.00,+2.00
+4.00,+15.00,-3.00,+3.00,+1.00,+4.00,+2.00,+8.00,-10.00,+7.00,+8.00,+13.00,+31.00,+5.00,+4.00,+8.00
-6.00,-14.00,-7.00,-8.00,-5.00,-6.00,-4.00,-5.00,-9.00,-12.00,+6.00,+9.00,-6.00,+4.00,+3.00,-6.00
-5.00,+5.00,+0.00,+0.00,+3.00,-2.00,+0.00,-2.00,+10.00,+0.00,-5.00,-6.00,+5.00,-2.00,+1.00,+13.00
+2.00,-19.00,+2.00,+7.00,+12.00,+1.00,-1.00,+0.00,+12.00,+24.00,+10.00,-10.00,-28.00,-3.00,-6.00,-8.00
-15.00,-8.00,+2.00,-3.00,-13.00,-7.00,-3.00,-10.00,-2.00,-17.00,-6.00,+15.00,+1.00,+4.00,+1.00,+2.00
+11.00,+40.00,+3.00,-1.00,-5.00,-2.00,-3.00,-2.00,+16.00,+6.00,-2.00,-7.00,-15.00,-7.00,+1.00,+20.00
+18.00,+24.00,+5.00,+9.00,+52.00,+13.00,+5.00,+10.00,-11.00,+11.00,+2.00,-7.00,+24.00,+4.00,+3.00,+3.00
-3.00,+10.00,+3.00,-4.00,-54.00,-16.00,-4.00,-8.00,-15.00,-12.00,-3.00,+2.00,+24.00,+0.00,-5.00,-14.00
+6.00,-13.00,-10.00,-6.00,+7.00,-2.00,-2.00,+8.00,+6.00,-10.00,-9.00,-22.00,-63.00,-8.00,-2.00,+0.00
-11.00,-3.00,+2.00,-3.00,-15.00,+13.00,+6.00,+1.00,-17.00,-2.00,+2.00,-8.00,-19.00,-3.00,-5.00,-13.00
+1.00,-23.00,-11.00,-8.00,+24.00,+5.00,-5.00,-10.00,+18.00,+8.00,+0.00,+9.00,+12.00,+4.00,+2.00,+9.00
-4.00,-17.00,+7.00,+8.00,+3.00,-8.00,+1.00,+0.00,+7.00,-8.00,-1.00,+3.00,+1.00,-3.00,+0.00,+4.00
+10.00,+8.00,+3.00,+5.00,+27.00,-17.00,-5.00,+7.00,+30.00,+39.00,+3.00,+5.00,+28.00,-2.00,-7.00,-5.00
-33.00,+3.00,+5.00,-2.00,-61.00,+10.00,-3.00,-18.00,-5.00,+1.00,-2.00,+4.00,-10.00,-1.00,-4.00,-8.00
-10.00,-12.00,-6.00,+1.00,+14.00,+0.00,-1.00,-1.00,-23.00,-16.00,+6.00,+5.00,+18.00,+3.00,+6.00,+5.00
+4.00,-20.00,+6.00,+4.00,+10.00,+11.00,+3.00,-2.00,+1.00,-7.00,+2.00,-9.00,-10.00,+2.00,+5.00,+13.00
-11.00,-9.00,-1.00,-4.00,-1.00,-1.00,+1.00,-2.00,-6.00,-5.00,+4.00,+18.00,+21.00,+1.00,-4.00,-9.00
+0.00,-34.00,-22.00,-7.00,+8.00,-10.00,-4.00,-1.00,+26.00,+15.00,+2.00,-2.00,+10.00,+2.00,+0.00,-7.00
-26.00,-60.00,+1.00,-2.00,-9.00,+2.00,-2.00,-6.00,-38.00,-29.00,-6.00,+8.00,+3.00,-5.00,-7.00,-30.00
+15.00,+67.00,+1.00,+3.00,+0.00,+0.00,+0.00,+3.00,+15.00,+7.00,-1.00,+4.00,-10.00,+0.00,-1.00,-1.00
+7.00,+22.00,+4.00,+3.00,-3.00,+5.00,+2.00,-4.00,-5.00,-17.00,-1.00,-15.00,-23.00,-12.00,+6.00,+10.00
+0.00,-1.00,+1.00,-1.00,+17.00,-9.00,-1.00,+1.00,-54.00,-23.00,-7.00,+6.00,+33.00,+6.00,+6.00,+4.00
-19.00,-87.00,-22.00,-3.00,+47.00,+19.00,-7.00,-5.00,+61.00,+18.00,-1.00,+2.00,+8.00,+9.00,-5.00,+16.00
+30.00,+71.00,+20.00,-4.00,-51.00,-20.00,+20.00,+22.00,+21.00,+20.00,-6.00,-4.00,-1.00,+4.00,+6.00,+24.00
+12.00,-7.00,+8.00,+0.00,-17.00,-2.00,-6.00,+4.00,-21.00,-18.00,-7.00,-10.00,-11.00,+7.00,-2.00,-2.00
-12.00,-53.00,-22.00,-8.00,-13.00,+7.00,-14.00,-26.00,+5.00,+2.00,-13.00,-19.00,-39.00,-23.00,-7.00,-8.00
+52.00,+46.00,+27.00,+7.00,-16.00,-30.00,+4.00,+26.00,-21.00,-18.00,-1.00,-7.00,-13.00,-8.00,-3.00,-19.00
-15.00,-54.00,+0.00,+7.00,+38.00,+18.00,+1.00,-6.00,-40.00,-19.00,-1.00,+17.00,+9.00,+5.00,-7.00,-18.00
+27.00,+62.00,+20.00,+13.00,+23.00,+7.00,+2.00,+4.00,+41.00,+23.00,+6.00,+22.00,+42.00,+2.00,+8.00,+15.00
+6.00,+5.00,+4.00,+5.00,+20.00,+18.00,+9.00,+3.00,-9.00,-12.00,+3.00,-14.00,-4.00,+0.00,-1.00,-1.00
-5.00,-22.00,-10.00,-7.00,+1.00,-1.00,-4.00,-6.00,-11.00,+4.00,-3.00,+3.00,+2.00,+0.00,-3.00,-2.00
-12.00,-6.00,-12.00,-4.00,-5.00,+22.00,-6.00,-4.00,+13.00,+26.00,+0.00,-21.00,-20.00,-7.00,-11.00,-20.00
-3.00,-4.00,+2.00,+2.00,-1.00,-4.00,+5.00,+0.00,-85.00,-44.00,-1.00,+46.00,+82.00,+10.00,-2.00,-26.00
-4.00,-47.00,+3.00,+3.00,+24.00,-9.00,-4.00,+6.00,+58.00,+9.00,-13.00,-61.00,-81.00,-19.00,+1.00,+25.00
+4.00,+59.00,+8.00,-1.00,-27.00,+2.00,+2.00,-1.00,-84.00,-34.00,-3.00,-11.00,-15.00,-5.00,-13.00,-25.00
-28.00,-50.00,-21.00,-10.00,+8.00,-14.00,-8.00,-13.00,+81.00,+52.00,+7.00,-5.00,-1.00,-39.00,-5.00,-9.00
-1.00,-19.00,-16.00,-5.00,+8.00,+4.00,-6.00,+0.00,+4.00,+0.00,+4.00,+13.00,+20.00,+49.00,+10.00,+17.00
+52.00,+116.00,+27.00,+9.00,+5.00,+6.00,+3.00,+28.00,+0.00,-27.00,+8.00,+24.00,+5.00,+16.00,+6.00,+17.00
+5.00,+29.00,-1.00,-11.00,-38.00,-1.00,+21.00,-3.00,+12.00,+30.00,-5.00,-9.00,-9.00,-11.00,-6.00,+13.00
-5.00,-14.00,-12.00,-4.00,+8.00,-3.00,+11.00,-8.00,-28.00,-11.00,+1.00,-2.00,-4.00,+5.00,-4.00,-17.00
-6.00,-51.00,-3.00,+0.00,+36.00,+2.00,-14.00,+4.00,-8.00,-15.00,-12.00,-18.00,-13.00,-17.00,-4.00,-6.00
+24.00,+92.00,+23.00,+14.00,-53.00,+16.00,+9.00,+12.00,-56.00,-22.00,-5.00,+19.00,+13.00,+5.00,+2.00,-15.00
-3.00,+1.00,+7.00,+9.00,+18.00,+35.00,+2.00,-5.00,+51.00,+14.00,+2.00,-23.00,-2.00,+3.00,+2.00,-2.00
-8.00,+6.00,-3.00,-5.00,+11.00,-12.00,-19.00,-5.00,-27.00,-36.00,-12.00,-1.00,-3.00,-6.00,+2.00,-2.00
-26.00,-60.00,-23.00,-18.00,-25.00,-21.00,+10.00,-13.00,+53.00,+37.00,+2.00,-21.00,-42.00,-13.00,+1.00,+18.00
-9.00,-21.00,-6.00,-7.00,-3.00,-22.00,-7.00,-2.00,-10.00,+14.00,+8.00,+16.00,+31.00,+7.00,-4.00,-20.00
+11.00,+48.00,+3.00,+2.00,+21.00,+10.00,-3.00,+1.00,-15.00,-35.00,+3.00,+3.00,+32.00,-5.00,-3.00,-13.00
-4.00,-7.00,+5.00,+6.00,-30.00,-2.00,+2.00,-7.00,-17.00,-9.00,-2.00,+30.00,+2.00,+16.00,+12.00,+18.00
-7.00,+16.00,+2.00,+2.00,-13.00,+16.00,+1.00,+14.00,-22.00,-10.00,-7.00,-41.00,-49.00,-14.00,-6.00,-15.00
-17.00,-48.00,-8.00,-6.00,+24.00,-6.00,-4.00,-9.00,+2.00,+3.00,-8.00,-4.00,+0.00,-6.00,-13.00,-12.00
-16.00,-51.00,-11.00,-2.00,-16.00,-16.00,-4.00,+1.00,+16.00,+14.00,+0.00,+4.00,-17.00,+0.00,+3.00,+6.00
+5.00,+87.00,+4.00,+4.00,+19.00,-3.00,-5.00,-6.00,-16.00,-32.00,+3.00,+5.00,+30.00,+11.00,+5.00,+16.00
+44.00,+36.00,+28.00,+17.00,-47.00,+36.00,-2.00,+10.00,+1.00,+16.00,+6.00,+8.00,+19.00,+2.00,-5.00,-14.00
+7.00,+20.00,-5.00,-3.00,+20.00,+3.00,+30.00,-1.00,+11.00,+28.00,+5.00,+1.00,-13.00,-7.00,+0.00,+4.00
+1.00,-1.00,-2.00,+1.00,+18.00,+3.00,+5.00,+7.00,-25.00,+3.00,+10.00,+17.00,+38.00,+8.00,+2.00,-6.00
-1.00,-52.00,-12.00,-8.00,+7.00,+2.00,-5.00,+4.00,+36.00,-10.00,-14.00,-26.00,-29.00,+0.00,+1.00,+6.00
-15.00,+46.00,-1.00,+0.00,-2.00,-15.00,-3.00,-16.00,-29.00,-17.00,-11.00,-9.00,-37.00,-16.00,-8.00,-20.00
-8.00,-34.00,-6.00,-2.00,+5.00,+5.00,-5.00,-1.00,+30.00,+2.00,+1.00,+2.00,+17.00,+6.00,+6.00,+15.00
-3.00,-4.00,+2.00,+1.00,-15.00,-6.00,-9.00,-3.00,-1.00,-20.00,-18.00,+3.00,+4.00,-1.00,-1.00,+3.00
-7.00,-50.00,-2.00,+3.00,+11.00,-1.00,+0.00,-4.00,-60.00,-7.00,+0.00,-18.00,-14.00,-2.00,-9.00,-26.00
-9.00,-10.00,-4.00,-6.00,+0.00,-1.00,+1.00,-3.00,+52.00,+15.00,+1.00,+11.00,+13.00,+1.00,+14.00,+51.00
+26.00,+56.00,-4.00,-11.00,-1.00,-12.00,-5.00,+16.00,-2.00,-1.00,+0.00,-1.00,-5.00,-1.00,-6.00,-12.00
-41.00,-65.00,-4.00,-1.00,-5.00,-13.00,-5.00,-20.00,+14.00,-11.00,-7.00,+2.00,-10.00,+5.00,+7.00,+21.00
-13.00,+23.00,-7.00,-5.00,-6.00,-3.00,-8.00,-7.00,-48.00,-5.00,+0.00,-12.00,-22.00,-11.00,-8.00,-16.00
-5.00,-19.00,-17.00,-6.00,-11.00,-6.00,+1.00,+2.00,+41.00,+8.00,+4.00,+9.00,+18.00,+6.00,-4.00,+1.00
+7.00,-29.00,+2.00,+1.00,-8.00,-7.00,-4.00,-2.00,-3.00,-11.00,-3.00,-5.00,-6.00,+14.00,+14.00,+11.00
-5.00,-13.00,+0.00,+0.00,-6.00,-6.00,-4.00,-1.00,+20.00,-2.00,+9.00,+26.00,+22.00,-47.00,-20.00,+7.00
+19.00,-1.00,+11.00,+4.00,+15.00,+6.00,+11.00,+9.00,+7.00,+8.00,-1.00,-19.00,-21.00,+30.00,+2.00,+12.00
-26.00,-12.00,-8.00,-9.00,-13.00,-6.00,-12.00,-17.00,-23.00,-22.00,-16.00,-21.00,-18.00,+7.00,+3.00,-2.00
-26.00,-15.00,-1.00,+2.00,+3.00,-13.00,-27.00,-10.00,-48.00,-20.00,+1.00,+32.00,+29.00,+6.00,-3.00,-12.00
+10.00,+44.00,-1.00,-5.00,-23.00,-9.00,+2.00,+7.00,+69.00,+7.00,-1.00,+2.00,+5.00,+22.00,+22.00,+30.00
+9.00,+36.00,+8.00,+12.00,+35.00,+43.00,+39.00,+12.00,-31.00,+6.00,+1.00,+0.00,-20.00,-16.00,+0.00,+12.00
+23.00,+12.00,+7.00,-5.00,-35.00,-51.00,-6.00,+7.00,+43.00,+4.00,-3.00,-9.00,+1.00,-18.00,+1.00,+7.00
-18.00,-90.00,-20.00,-12.00,-11.00,-19.00,-22.00,-14.00,+6.00,+9.00,-2.00,-7.00,-7.00,+6.00,-8.00,-8.00
+2.00,-10.00,+5.00,+3.00,-15.00,+8.00,-8.00,+6.00,-21.00,+4.00,+3.00,+8.00,-2.00,-7.00,-3.00,-15.00
+13.00,+16.00,+8.00,-8.00,-22.00,-12.00,-9.00,-2.00,-2.00,-15.00,+0.00,+11.00,+18.00,-4.00,-4.00,-14.00
-8.00,+33.00,+2.00,+8.00,+45.00,+16.00,+8.00,-1.00,-27.00,-1.00,+0.00,-4.00,+1.00,+4.00,-1.00,-16.00
+18.00,+54.00,+15.00,+7.00,-17.00,+2.00,+7.00,+6.00,+39.00,+18.00,+7.00,+5.00,+13.00,-8.00,-2.00,+2.00
+21.00,+11.00,-5.00,-2.00,+4.00,-11.00,-1.00,+6.00,-33.00,+0.00,-3.00,-14.00,-35.00,+1.00,-6.00,-17.00
-22.00,-46.00,-15.00,-7.00,+13.00,+1.00,-1.00,-10.00,+46.00,+15.00,-1.00,-2.00,+1.00,-3.00,-4.00,-3.00
-3.00,-22.00,-6.00,-4.00,-9.00,+7.00,+4.00,-2.00,-65.00,-27.00,-5.00,+13.00,+20.00,+5.00,-9.00,-22.00
-9.00,-31.00,-3.00,+1.00,+22.00,+2.00,-3.00,-5.00,+10.00,+11.00,-5.00,-17.00,-10.00,-13.00,-4.00,+2.00
-6.00,+4.00,-1.00,+0.00,+3.00,+6.00,+5.00,+0.00,+3.00,-3.00,-10.00,-11.00,-2.00,+5.00,-1.00,-4.00
+12.00,+9.00,-1.00,-5.00,-2.00,-4.00,-10.00,+7.00,+28.00,+16.00,+1.00,-10.00,-18.00,-1.00,-1.00,+1.00
-27.00,-57.00,-6.00,-1.00,+4.00,-4.00,-7.00,-12.00,+3.00,-11.00,+3.00,+17.00,+21.00,-4.00,-7.00,-20.00
+17.00,+48.00,+6.00,+1.00,-29.00,-1.00,+6.00,+4.00,-42.00,-29.00,-5.00,+2.00,-6.00,-1.00,+8.00,+23.00
+11.00,+17.00,+0.00,-4.00,-12.00,+0.00,+2.00,+6.00,+2.00,+17.00,+1.00,-1.00,+2.00,+6.00,+1.00,+5.00
-3.00,-21.00,-6.00,-4.00,+7.00,+0.00,-8.00,+0.00,-13.00,-7.00,+3.00,+7.00,+16.00,-3.00,+0.00,+1.00
-7.00,-6.00,-7.00,-6.00,-27.00,-4.00,-2.00,-2.00,-1.00,-21.00,-10.00,-18.00,-13.00,-7.00,-9.00,-2.00
-15.00,+16.00,+2.00,+4.00,+4.00,+1.00,+10.00,-2.00,+10.00,+31.00,-1.00,-7.00,-15.00,-6.00,-5.00,-13.00
+21.00,+49.00,+8.00,+1.00,+0.00,-3.00,-1.00,+0.00,+2.00,-1.00,+6.00,+19.00,+9.00,+13.00,+8.00,-3.00
-5.00,-13.00,-4.00,+0.00,-3.00,-6.00,-10.00,-4.00,+29.00,+13.00,-1.00,+4.00,+4.00,-5.00,-2.00,+0.00
-7.00,+3.00,-1.00,+1.00,+19.00,+8.00,+4.00,-6.00,-15.00,+3.00,+0.00,-7.00,-7.00,-1.00,+2.00,+14.00
-21.00,-26.00,-9.00,-4.00,-12.00,+1.00,-2.00,-14.00,-15.00,-6.00,+2.00,-1.00,+1.00,+1.00,-4.00,-13.00
+13.00,+13.00,-2.00,-4.00,+20.00,-8.00,-6.00,+2.00,-12.00,-13.00,-4.00,-11.00,-9.00,-6.00,-6.00,-12.00
-21.00,-32.00,-2.00,+1.00,-25.00,+3.00,-3.00,-6.00,-7.00,-24.00,-5.00,+5.00,-2.00,+2.00,+7.00,+16.00
+2.00,-5.00,+6.00,+2.00,+22.00,+4.00,+7.00,+5.00,+7.00,+44.00,+17.00,-3.00,-10.00,+4.00,+5.00,+11.00
+17.00,+44.00,+3.00,+3.00,-14.00,+2.00,+4.00,+3.00,-2.00,+5.00,-3.00,+7.00,+22.00,-1.00,-6.00,-15.00
-21.00,-34.00,-10.00,-7.00,-20.00,-7.00,+0.00,-13.00,-28.00,-3.00,-1.00,-6.00,+3.00,+2.00,+0.00,-7.00
-2.00,+0.00,-3.00,-1.00,+17.00,+1.00,-10.00,+1.00,+8.00,-13.00,-1.00,+9.00,-11.00,-3.00,+0.00,+7.00
+16.00,+34.00,+1.00,-1.00,-27.00,+0.00,-2.00,-2.00,+9.00,-1.00,-1.00,-2.00,-5.00,-6.00,-6.00,-1.00
+6.00,+2.00,-1.00,+4.00,+16.00,+3.00,+2.00,-1.00,-34.00,+2.00,+5.00,-3.00,+0.00,-3.00,-3.00,-5.00
-11.00,-40.00,-8.00,-4.00,+3.00,+2.00,-7.00,+5.00,+39.00,+13.00,+3.00,+3.00,-8.00,+0.00,+2.00,+11.00
+18.00,+59.00,+5.00,+0.00,-21.00,-9.00,+0.00,+8.00,+3.00,+3.00,+3.00,-4.00,-2.00,+0.00,-6.00,-16.00
-10.00,-5.00,+6.00,+0.00,+14.00,+10.00,+0.00,-2.00,+27.00,+4.00,+0.00,+3.00,+1.00,-1.00,+5.00,+19.00
-7.00,-8.00,+0.00,-2.00,+21.00,-2.00,+0.00,+0.00,+5.00,+2.00,+2.00,+2.00,+6.00,-2.00,-4.00,-10.00
-5.00,-32.00,-10.00,+2.00,+6.00,+0.00,+0.00,-4.00,-22.00,-41.00,-12.00,-2.00,-13.00,+2.00,-2.00,-6.00
-4.00,-2.00,+6.00,+1.00,-14.00,-6.00,+0.00,+1.00,-5.00,+20.00,-5.00,+7.00,+24.00,-6.00,-4.00,-8.00
+34.00,+61.00,+5.00,+6.00,+39.00,+6.00,+6.00,+19.00,-11.00,+2.00,-1.00,-4.00,-8.00,-3.00,-3.00,-9.00
-8.00,-23.00,-2.00,-7.00,-28.00,-4.00,+0.00,-2.00,+17.00,-9.00,-1.00,+4.00,+3.00,+1.00,-3.00,+1.00
-4.00,-2.00,-3.00,-4.00,-8.00,-7.00,-2.00,-3.00,+0.00,+14.00,+4.00,-9.00,-14.00,-4.00,+1.00,+12.00
-10.00,-23.00,-4.00,-4.00,+11.00,-13.00,-4.00,-11.00,-8.00,-12.00,-5.00,+6.00,+18.00,+3.00,-2.00,-12.00
+3.00,-6.00,-9.00,-8.00,-27.00,-7.00,-5.00,-1.00,-12.00,+1.00,+0.00,-8.00,-18.00,-6.00,-7.00,-16.00
-6.00,-15.00,+2.00,+1.00,+12.00,+5.00,+1.00,+7.00,+13.00,+4.00,+3.00,+11.00,+2.00,+1.00,+1.00,-4.00
-2.00,-30.00,+3.00,+5.00,-12.00,-3.00,+1.00,+1.00,-1.00,+21.00,+4.00,-10.00,+9.00,+0.00,+1.00,-9.00
+13.00,+42.00,+3.00,+2.00,+22.00,-3.00,+0.00,+1.00,-8.00,-12.00,-12.00,-16.00,-37.00,-9.00,-6.00,+9.00
-18.00,-29.00,-5.00,-1.00,-13.00,-1.00,-3.00,-7.00,+16.00,+13.00,+4.00,+2.00,+4.00,+2.00,+2.00,+7.00
-13.00,-7.00,-5.00,-5.00,+4.00,-4.00,-1.00,-4.00,-11.00,-11.00,-4.00,-1.00,+4.00,-1.00,-5.00,-15.00
+2.00,-26.00,+2.00,+0.00,+6.00,+5.00,-1.00,-3.00,-6.00,+17.00,+17.00,+3.00,+9.00,+6.00,+2.00,-9.00
+0.00,-6.00,-1.00,+5.00,+0.00,+18.00,+21.00,+10.00,-3.00,-9.00,-3.00,-3.00,-2.00,+0.00,+2.00,+2.00
+8.00,+3.00,+0.00,+0.00,+5.00,-3.00,-14.00,-2.00,-6.00,-1.00,+1.00,+9.00,+19.00,+5.00,-4.00,-7.00
-8.00,-34.00,-2.00,+2.00,-3.00,-4.00,-2.00,-9.00,+18.00,-8.00,-4.00,-9.00,-20.00,-5.00,+2.00,+19.00
+1.00,+70.00,+6.00,+2.00,+19.00,-2.00,-4.00,+1.00,-12.00,+4.00,+6.00,+12.00,-5.00,+0.00,-2.00,-14.00
+7.00,+17.00,+2.00,+3.00,-8.00,+13.00,-4.00,+1.00,-15.00,-8.00,+3.00,+4.00,+15.00,+5.00,+4.00,+10.00
-4.00,+14.00,+4.00,+0.00,-2.00,+0.00,+25.00,-1.00,-8.00,-26.00,-10.00,-4.00,-6.00,-2.00,+2.00,+12.00
-11.00,-26.00,-3.00,+2.00,-5.00,-3.00,+1.00,-3.00,+4.00,+12.00,+2.00,-1.00,+11.00,+3.00,+3.00,+10.00
+7.00,+31.00,+2.00,-2.00,+7.00,+4.00,+0.00,+2.00,+24.00,+15.00,-2.00,-6.00,-19.00,-7.00,-5.00,+7.00
+2.00,-22.00,+3.00,+2.00,+18.00,-1.00,+6.00,+5.00,-15.00,-10.00,+2.00,-7.00,-7.00,-3.00,-4.00,-16.00
-19.00,-35.00,-5.00,-1.00,-16.00,-4.00,-6.00,-16.00,+18.00,+16.00,+3.00,+2.00,+2.00,+3.00,+11.00,+26.00
-3.00,-6.00,-7.00,-4.00,+27.00,+3.00,-7.00,-3.00,+16.00,-12.00,-1.00,+8.00,+23.00,+8.00,+10.00,+30.00
-3.00,+3.00,+3.00,+4.00,-20.00,+4.00,+8.00,-4.00,+12.00,+12.00,+8.00,-2.00,-10.00,-5.00,-6.00,-5.00
-3.00,-31.00,-5.00,-5.00,-8.00,-13.00,-11.00,-11.00,+8.00,+12.00,+2.00,+5.00,+7.00,+3.00,+6.00,+24.00
-14.00,+12.00,-4.00,-3.00,+0.00,-3.00,-4.00,+1.00,-9.00,-14.00,+1.00,-9.00,-5.00,-4.00,-2.00,-12.00
+17.00,+10.00,+5.00,+1.00,+2.00,-1.00,+1.00,+2.00,+7.00,+17.00,+7.00,+0.00,-8.00,-2.00,-1.00,-3.00
+7.00,+11.00,-3.00,-1.00,-7.00,+3.00,-2.00,-1.00,-2.00,-18.00,-10.00,-9.00,+0.00,+0.00,+1.00,+12.00
-28.00,-49.00,-12.00,-2.00,-8.00,-5.00,-4.00,-2.00,+1.00,+2.00,+7.00,+15.00,+14.00,+6.00,+3.00,-1.00
+19.00,+13.00,+9.00,+2.00,-18.00,-8.00,+1.00,+7.00,-4.00,+9.00,-2.00,+1.00,+1.00,-5.00,-9.00,-18.00
-5.00,+27.00,-1.00,-2.00,+5.00,+9.00,+5.00,-6.00,-30.00,-5.00,+8.00,+7.00,+11.00,-1.00,-5.00,-12.00
-1.00,-22.00,-1.00,-1.00,-13.00,-12.00,+0.00,+3.00,-19.00,-26.00,-9.00,-16.00,-27.00,-33.00,-7.00,-16.00
-9.00,-6.00,-8.00,-5.00,+27.00,+3.00,-5.00,-12.00,+25.00,+44.00,+3.00,-7.00,+9.00,+38.00,+7.00,+22.00
-26.00,-4.00,-8.00,-5.00,-22.00,+1.00,+0.00,-15.00,-43.00,-39.00,-15.00,-11.00,-19.00,-12.00,-24.00,-41.00
-6.00,-37.00,-2.00,+2.00,+9.00,-1.00,-2.00,+1.00,+39.00,+31.00,+0.00,+8.00,+4.00,+0.00,+7.00,+26.00
-26.00,+16.00,+5.00,+2.00,-9.00,-3.00,-34.00,-17.00,-15.00,-25.00,-11.00,-5.00,+7.00,+11.00,-1.00,-9.00
+14.00,+44.00,+6.00,-3.00,-15.00,-6.00,+30.00,-4.00,-11.00,-10.00,+7.00,+12.00,+29.00,-12.00,-1.00,-13.00
+0.00,-21.00,+8.00,+10.00,+30.00,+8.00,-1.00,+6.00,+20.00,+21.00,-2.00,-15.00,-37.00,-5.00,+6.00,+16.00
+15.00,+46.00,-7.00,-6.00,-23.00,+3.00,+4.00,+12.00,-14.00,-6.00,-5.00,-10.00,-3.00,+6.00,-3.00,-11.00
-14.00,-17.00,-2.00,-3.00,+19.00,+3.00,-6.00,-12.00,-2.00,+9.00,-8.00,-7.00,-11.00,-11.00,-3.00,-4.00
+31.00,-4.00,+0.00,-3.00,-22.00,-3.00,-4.00,+21.00,-18.00,-28.00,-4.00,+0.00,+5.00,-7.00,-4.00,-7.00
+13.00,+35.00,+8.00,+5.00,+9.00,+1.00,+2.00,+4.00,+36.00,+18.00,+6.00,+10.00,+13.00,+12.00,+6.00,+11.00
-4.00,-34.00,-9.00,-5.00,-3.00,-4.00,-3.00,+2.00,-8.00,-20.00,-2.00,+3.00,+8.00,-4.00,+2.00,+6.00
+7.00,+18.00,+4.00,+2.00,+2.00,-4.00,+15.00,+4.00,+12.00,+15.00,-8.00,-14.00,-25.00,-2.00,-8.00,-1.00
+7.00,-7.00,-8.00,-7.00,-5.00,-4.00,-11.00,+5.00,-17.00,+0.00,-2.00,-11.00,-13.00,-9.00,-10.00,-31.00
-4.00,+29.00,-8.00,-3.00,+23.00,-8.00,-1.00,-8.00,+4.00,-19.00,+8.00,+24.00,+27.00,+16.00,+21.00,+39.00
+9.00,+0.00,-1.00,-1.00,-1.00,+7.00,+0.00,+8.00,-3.00,-10.00,-4.00,-7.00,-7.00,-3.00,+0.00,-5.00
+18.00,+11.00,+4.00,-2.00,-29.00,-2.00,+9.00,+8.00,-11.00,-8.00,+0.00,+12.00,+11.00,+7.00,+2.00,-1.00
-19.00,-20.00,-6.00,-1.00,+8.00,+3.00,-8.00,-17.00,+27.00,+8.00,-20.00,-17.00,-13.00,-6.00,+0.00,+6.00
-10.00,-63.00,-13.00,-8.00,-9.00,-3.00,-10.00,-2.00,-25.00,-4.00,+1.00,+5.00,+8.00,+12.00,-2.00,-28.00
+49.00,+46.00,+11.00,+3.00,+10.00,-5.00,+3.00,+20.00,+19.00,+6.00,+2.00,+1.00,+0.00,-15.00,+4.00,+14.00
+18.00,-8.00,-9.00,-4.00,+3.00,-1.00,+4.00,+10.00,-4.00,+1.00,+13.00,+17.00,+0.00,+7.00,+6.00,+19.00
-14.00,+6.00,+6.00,+3.00,-10.00,-2.00,-9.00,+1.00,-16.00,-14.00,+6.00,-6.00,+10.00,-67.00,+2.00,+3.00
+0.00,-18.00,-6.00,-7.00,-3.00,+1.00,+20.00,+7.00,-15.00,-9.00,-4.00,+15.00,+7.00,+63.00,+6.00,-14.00
-37.00,-9.00,-4.00,-2.00,-20.00,-21.00,-8.00,+5.00,+6.00,+6.00,-1.00,-36.00,-50.00,+5.00,-26.00,-29.00
-3.00,-8.00,-6.00,-4.00,-10.00,+15.00,+6.00,+0.00,+27.00,+29.00,-3.00,-5.00,+24.00,+12.00,+5.00,+9.00
+8.00,+8.00,+4.00,+3.00,+11.00,-3.00,-2.00,-10.00,-26.00,+1.00,+17.00,+7.00,-20.00,+1.00,-3.00,-4.00
-16.00,+1.00,-4.00,+0.00,+9.00,+2.00,-5.00,-27.00,+26.00,+7.00,-16.00,-19.00,+3.00,-7.00,+12.00,+32.00
+13.00,-11.00,+2.00,+1.00,+17.00,+8.00,-14.00,+10.00,-22.00,-20.00,-12.00,+6.00,+0.00,-36.00,-17.00,-44.00
-22.00,-20.00,-1.00,-4.00,-4.00,+10.00,+15.00,+2.00,+10.00,-12.00,-19.00,-8.00,+7.00,+8.00,-15.00,-14.00
+41.00,+41.00,+13.00,-2.00,-29.00,-26.00,+9.00,+15.00,-4.00,-22.00,-5.00,-4.00,-8.00,+14.00,+10.00,+17.00
-2.00,-15.00,-3.00,+4.00,+6.00,+7.00,-4.00,-10.00,-3.00,+21.00,+4.00,-5.00,-6.00,-18.00,-10.00,-4.00
+25.00,-9.00,-1.00,-2.00,+6.00,-18.00,-14.00,-2.00,-7.00,-3.00,+5.00,+8.00,+2.00,+3.00,+6.00,+0.00
-40.00,+2.00,+5.00,+6.00,+15.00,+9.00,+8.00,-19.00,+12.00,-5.00,+6.00,+1.00,-1.00,-2.00,+7.00,+15.00
+11.00,-20.00,-8.00,-5.00,-2.00,+9.00,+1.00,+13.00,+0.00,-12.00,-10.00,+7.00,+9.00,+2.00,-9.00,-18.00
-7.00,-1.00,+0.00,-3.00,-10.00,-5.00,-2.00,-5.00,-17.00,-9.00,-2.00,-6.00,-7.00,-25.00,-11.00,-6.00
-25.00,+7.00,-1.00,-2.00,-11.00,+4.00,+10.00,-19.00,+14.00,+5.00,-5.00,-9.00,-13.00,-4.00,+0.00,-3.00
+4.00,-15.00,-5.00,+0.00,+8.00,-8.00,-17.00,-3.00,-30.00,+0.00,+11.00,+8.00,+4.00,+4.00,-3.00,-28.00
-19.00,-10.00,-4.00,+0.00,+6.00,-2.00,-11.00,-17.00,+22.00,+0.00,-6.00,+2.00,+7.00,+15.00,+8.00,+39.00
+26.00,+44.00,+7.00,-1.00,-8.00,-4.00,-1.00,+32.00,-9.00,-2.00,+1.00,-2.00,+1.00,-32.00,-16.00,-39.00
-46.00,-29.00,-9.00,-4.00,+16.00,+7.00,-3.00,-30.00,-7.00,-7.00,-16.00,-15.00,-18.00,+6.00,-8.00,+5.00
-15.00,-20.00,-9.00,-7.00,-17.00,-10.00,-5.00,-7.00,-25.00,-24.00,-23.00,-16.00,-6.00,-11.00,-5.00,-10.00
-2.00,-11.00,-3.00,+0.00,-2.00,-13.00,-14.00,+0.00,+23.00,+9.00,+0.00,+2.00,-4.00,-7.00,-7.00,-21.00
+51.00,-2.00,+8.00,+1.00,+6.00,+22.00,+33.00,+22.00,-13.00,+29.00,+14.00,+7.00,+16.00,+7.00,-18.00,-43.00
+14.00,+7.00,+11.00,+6.00,-2.00,+7.00,-16.00,+11.00,+22.00,+7.00,+2.00,-2.00,-4.00,+8.00,+21.00,+64.00
+58.00,+42.00,+13.00,+6.00,+17.00,-8.00,+7.00,+8.00,+6.00,-5.00,+1.00,-1.00,+0.00,+7.00,+6.00,+17.00
-40.00,-26.00,-14.00,-9.00,+1.00,+2.00,+3.00,-2.00,-15.00,+0.00,-4.00,-7.00,-14.00,-9.00,+15.00,+13.00
+20.00,-12.00,+2.00,+3.00,-8.00,-10.00,-18.00,+33.00,-5.00,-16.00,-4.00,+0.00,-1.00,-18.00,-13.00,-12.00
-8.00,-9.00,+7.00,+13.00,+6.00,+4.00,+4.00,-9.00,+7.00,+7.00,+2.00,+7.00,+11.00,+12.00,+16.00,+10.00
+51.00,+24.00,+4.00,-2.00,-8.00,-7.00,-3.00,-6.00,-7.00,+2.00,+2.00,+0.00,-2.00,-22.00,-17.00,+5.00
+7.00,+6.00,-3.00,+4.00,-3.00,+0.00,-12.00,-1.00,-5.00,+8.00,+2.00,+0.00,+0.00,+13.00,+0.00,-3.00
+17.00,+10.00,-9.00,-18.00,-13.00,-32.00,-32.00,-12.00,-34.00,-27.00,+4.00,+6.00,+3.00,-37.00,+11.00,+2.00
-17.00,-11.00,-3.00,+3.00,+13.00,+35.00,+34.00,+3.00,-11.00,-4.00,-3.00,-3.00,-3.00,+73.00,-14.00,-26.00
-1.00,-4.00,-4.00,+3.00,+9.00,-8.00,+18.00,+4.00,+7.00,+6.00,-2.00,-6.00,-1.00,+5.00,+13.00,+13.00
-23.00,-31.00,-11.00,-8.00,-22.00,+8.00,+15.00,-13.00,+12.00,+7.00,+3.00,+7.00,+8.00,-4.00,-18.00,-9.00
+9.00,+31.00,+8.00,+7.00,+4.00,-3.00,-1.00,-5.00,-20.00,-13.00,-1.00,-10.00,-8.00,+25.00,+1.00,-16.00
+44.00,+29.00,+9.00,+3.00,-1.00,+8.00,+4.00,+36.00,-35.00,-12.00,+1.00,+3.00,-3.00,-61.00,+0.00,+3.00
-32.00,-17.00,-7.00,-3.00,+6.00,-15.00,-20.00,-13.00,+38.00,+33.00,+15.00,+18.00,+1.00,+4.00,+4.00,+4.00
+15.00,+16.00,+5.00,+2.00,+3.00,+1.00,+8.00,+1.00,-19.00,-4.00,-4.00,-12.00,-3.00,+18.00,-7.00,-17.00
-35.00,-48.00,-17.00,+2.00,+5.00,+4.00,-8.00,-29.00,+24.00,-4.00,-2.00,+8.00,-3.00,-15.00,-1.00,+17.00
+9.00,+2.00,+5.00,-8.00,-15.00,-23.00,+2.00,+31.00,-39.00,-9.00,-6.00,-5.00,+5.00,-6.00,-4.00,-39.00
+17.00,+14.00,-5.00,-9.00,-3.00,+16.00,+6.00,+14.00,-14.00,-11.00,-7.00,-4.00,-3.00,+5.00,-9.00,-13.00
+63.00,+12.00,+13.00,+13.00,+28.00,+12.00,+8.00,+17.00,+21.00,+24.00,+8.00,-3.00,-3.00,-9.00,-3.00,+6.00
-21.00,-15.00,-1.00,-3.00,-12.00,-6.00,-8.00,+1.00,-4.00,-2.00,+1.00,-9.00,-9.00,+10.00,+11.00,+24.00
-13.00,-17.00,-23.00,-9.00,+0.00,+6.00,+15.00,-22.00,+19.00,+15.00,+7.00,+12.00,+5.00,-65.00,-11.00,-13.00
+21.00,+13.00,+9.00,+5.00,-4.00,-8.00,-16.00,+26.00,-65.00,-28.00,+5.00,+3.00,-1.00,+55.00,+7.00,-35.00
+2.00,+16.00,+2.00,+0.00,-4.00,+0.00,+3.00,-3.00,+3.00,-3.00,+1.00,+9.00,+18.00,+39.00,-5.00,+14.00
+48.00,+8.00,-1.00,-3.00,+1.00,+5.00,+3.00,+14.00,-11.00,-25.00,-27.00,-15.00,-17.00,-41.00,-5.00,-21.00
+5.00,+0.00,-1.00,-5.00,-9.00,-10.00,+1.00,-11.00,-4.00,-9.00,+8.00,+12.00,-5.00,+19.00,-14.00,+17.00
-48.00,-34.00,-17.00,-1.00,+1.00,+1.00,-23.00,-21.00,+15.00,-6.00,-17.00,-28.00,-19.00,-42.00,-1.00,-3.00
-15.00,-16.00,-14.00,-12.00,-9.00,-15.00,-15.00,-12.00,-10.00,-4.00,+2.00,-1.00,+0.00,-12.00,-17.00,-51.00
-46.00,+7.00,+6.00,+14.00,+8.00,-4.00,+19.00,-11.00,+22.00,+7.00,-15.00,-15.00,-8.00,+13.00,-5.00,+21.00
-29.00,-25.00,-18.00,-18.00,-16.00,-2.00,-17.00,-13.00,+3.00,+3.00,+19.00,+21.00,+19.00,+7.00,+29.00,+34.00
+12.00,+13.00,+6.00,+8.00,+6.00,+14.00,+15.00,+1.00,+28.00,-7.00,-4.00,+3.00,+4.00,+6.00,+22.00,+74.00
-18.00,+5.00,+5.00,-3.00,+0.00,-3.00,-15.00,+12.00,+1.00,+1.00,-8.00,+1.00,-3.00,+6.00,-11.00,-31.00
-46.00,-34.00,-1.00,+1.00,+1.00,+0.00,+3.00,-3.00,+6.00,+24.00,+12.00,+0.00,-2.00,+6.00,-2.00,+1.00
-32.00,-9.00,-9.00,-8.00,-9.00,-14.00,-19.00,-32.00,+0.00,-11.00,-14.00,-16.00,-15.00,-24.00,-12.00,-27.00
+49.00,+35.00,+11.00,+7.00,+6.00,+5.00,+22.00,-1.00,-1.00,+13.00,+11.00,+7.00,+8.00,+13.00,+9.00,+13.00
+22.00,+35.00,+11.00,+4.00,+3.00,+0.00,+6.00,+15.00,+12.00,-12.00,-4.00,-2.00,+1.00,-9.00,+16.00,+44.00
-67.00,-55.00,-21.00,-7.00,+20.00,+6.00,-10.00,-16.00,-25.00,+0.00,+7.00,+10.00,+5.00,-1.00,-10.00,-51.00
+27.00,+27.00,+19.00,+9.00,-21.00,-6.00,-1.00,-1.00,-21.00,-18.00,-1.00,-2.00,+6.00,+22.00,+6.00,+14.00
-35.00,-22.00,-16.00,-16.00,-7.00,-4.00,-7.00,-12.00,+10.00,+17.00,-1.00,-5.00,-9.00,-66.00,-7.00,-3.00
+24.00,+10.00,+8.00,+1.00,-5.00,-1.00,-1.00,+12.00,-14.00,-7.00,-2.00,+4.00,+4.00,+33.00,-16.00,-40.00
+30.00,+21.00,+4.00,-2.00,+0.00,+6.00,+5.00,-13.00,-17.00,-7.00,+9.00,+7.00,+5.00,+22.00,+12.00,+10.00
+73.00,+48.00,+28.00,+18.00,+17.00,+6.00,+9.00,+59.00,+29.00,+19.00,+3.00,+3.00,+6.00,+19.00,-5.00,-6.00
-38.00,-19.00,-9.00,-3.00,-2.00,-11.00,-15.00,-19.00,-10.00,-5.00,-4.00,-10.00,-14.00,-50.00,-24.00,-22.00
-3.00,+16.00,+3.00,+2.00,+1.00,+11.00,+19.00,-9.00,-15.00,-12.00,+8.00,+2.00,-3.00,+1.00,+13.00,+15.00
-46.00,-15.00,-11.00,-7.00,-3.00,-4.00,-13.00,-31.00,+28.00,+8.00,-7.00,-3.00,+12.00,-48.00,-6.00,+3.00
+59.00,+13.00,+8.00,+4.00,+3.00,-10.00,-18.00,+20.00,-34.00,+18.00,+15.00,+9.00,-3.00,+46.00,+6.00,-46.00
+4.00,+9.00,+8.00,+2.00,-5.00,+5.00,+13.00,+19.00,+16.00,+3.00,-4.00,+0.00,-10.00,+12.00,-15.00,+20.00
-24.00,-1.00,-1.00,+2.00,+9.00,+5.00,-30.00,-41.00,+14.00,+11.00,-3.00,-11.00,-11.00,-17.00,-9.00,-12.00
-1.00,+22.00,+9.00,+1.00,-11.00,-11.00,-4.00,+2.00,-33.00,-16.00,+1.00,+0.00,+5.00,+30.00,+17.00,+24.00
-59.00,-36.00,-23.00,-11.00,-15.00,+6.00,-4.00,-33.00,+34.00,-8.00,-15.00,-4.00,-3.00,-70.00,+6.00,+39.00
+31.00,+20.00,+9.00,+1.00,+11.00,-1.00,+1.00,+40.00,-25.00,-1.00,+7.00,+14.00,+26.00,+92.00,+7.00,-48.00
-10.00,-9.00,-6.00,+0.00,+4.00,+5.00,+1.00,-3.00,+20.00,+2.00,-2.00,-7.00,-4.00,+17.00,+28.00,+78.00
-9.00,-28.00,-8.00,-6.00,-8.00,-5.00,-1.00,+29.00,+8.00,+10.00,+2.00,-2.00,-3.00,+21.00,-14.00,-35.00
-5.00,-4.00,-8.00,-3.00,-2.00,-10.00,+3.00,-14.00,+14.00,-5.00,-13.00,-7.00,-8.00,-56.00,-15.00,-16.00
-43.00,+3.00,-6.00,+2.00,+0.00,+2.00,-12.00,-34.00,+5.00,+1.00,+1.00,+3.00,-5.00,-11.00,-9.00,+11.00
+60.00,-10.00,+6.00,+0.00,-7.00,-7.00,+7.00,+47.00,-5.00,-5.00,-7.00,-2.00,+2.00,-20.00,+6.00,-4.00
+52.00,+43.00,+15.00,+1.00,-4.00,-5.00,-4.00,+9.00,+22.00,+12.00,+6.00,+0.00,-4.00,+19.00,+9.00,+28.00
-39.00,-20.00,+0.00,+4.00,+24.00,+9.00,-5.00,+1.00,-2.00,-8.00,-4.00,-9.00,-1.00,+20.00,+5.00,+18.00
-9.00,-34.00,-14.00,-9.00,-21.00,+10.00,+37.00,-5.00,+22.00,+4.00,+1.00,+2.00,+1.00,-4.00,-4.00,+17.00
-24.00,-29.00,-16.00,-4.00,-4.00,-4.00,-5.00,-7.00,-49.00,-30.00,-2.00,+3.00,+2.00,-3.00,-5.00,-34.00
+51.00,+5.00,-3.00,-6.00,-13.00,+2.00,+4.00,+26.00,+19.00,-6.00,-6.00,-1.00,+0.00,-13.00,+1.00,+30.00
-25.00,+5.00,-2.00,-3.00,+0.00,-8.00,-14.00,-28.00,-19.00,-6.00,-2.00,+2.00,-1.00,+18.00,-9.00,+0.00
+4.00,-6.00,-8.00,-11.00,-5.00,-11.00,-15.00,-3.00,-4.00,-13.00,-8.00,-4.00,-4.00,-27.00,+5.00,-14.00
-42.00,-22.00,-7.00,-3.00,+0.00,-16.00,+1.00,-26.00,-3.00,-5.00,-5.00,+1.00,-1.00,+15.00,-9.00,-11.00
-19.00,-6.00,-5.00,-8.00,-13.00,+9.00,+14.00,-4.00,-31.00,-4.00,-4.00,-8.00,-10.00,-7.00,-14.00,-34.00
-76.00,-33.00,-16.00,-2.00,+0.00,-6.00,-37.00,-50.00,+26.00,+10.00,-4.00,-9.00,+9.00,-5.00,+7.00,+34.00
+59.00,+20.00,+11.00,+2.00,-1.00,-5.00,+13.00,+26.00,-33.00,+9.00,+7.00,-2.00,-9.00,+6.00,-25.00,-83.00
-25.00,-14.00,-5.00,-4.00,-4.00,-15.00,-19.00,-4.00,+27.00,-9.00,-23.00,-16.00,-11.00,-10.00,+13.00,+42.00
-5.00,-1.00,-3.00,+3.00,+10.00,+14.00,+5.00,+0.00,+16.00,-12.00,-19.00,-12.00,-12.00,-17.00,-26.00,-4.00
+5.00,-1.00,-7.00,-14.00,-12.00,-9.00,+12.00,-5.00,-17.00,-4.00,+14.00,+10.00,+11.00,+6.00,+10.00,-6.00
-24.00,-15.00,-4.00,+3.00,+2.00,-3.00,-14.00,-17.00,+15.00,-2.00,-8.00,-6.00,-4.00,-14.00,+0.00,+24.00
-18.00,-11.00,+1.00,+2.00,+6.00,+0.00,-12.00,+11.00,-9.00,+8.00,+0.00,-7.00,-1.00,+15.00,+0.00,-43.00
+15.00,+18.00,+5.00,+3.00,+6.00,+1.00,+0.00,-9.00,+1.00,-10.00,+11.00,+20.00,+11.00,-16.00,+21.00,+69.00
-43.00,-21.00,-14.00,-10.00,-4.00,+8.00,+11.00,-5.00,+9.00,+1.00,-6.00,-5.00,-9.00,+8.00,-7.00,-22.00
+2.00,+7.00,+14.00,+9.00,+5.00,-2.00,-18.00,-7.00,-2.00,-24.00,-3.00,-9.00,-1.00,+6.00,+9.00,+23.00
-40.00,+6.00,+1.00,+3.00,+2.00,+11.00,+19.00,-31.00,+16.00,+22.00,+10.00,+8.00,+3.00,-12.00,-13.00,-26.00
+75.00,-3.00,+1.00,-6.00,-12.00,-15.00,+6.00,+40.00,+0.00,-8.00,-5.00,-2.00,+3.00,+17.00,+8.00,-4.00
+51.00,+42.00,+14.00,+7.00,+8.00,+10.00,-5.00,-9.00,+4.00,+10.00,+3.00,+1.00,-4.00,-54.00,-9.00,-16.00
-58.00,-41.00,-14.00,-7.00,-12.00,-14.00,-23.00,+4.00,-18.00,-11.00,+7.00,+11.00,+13.00,+62.00,+11.00,-2.00
+43.00,+19.00,+3.00,-5.00,+4.00,-4.00,+2.00,+12.00,+18.00,+8.00,+1.00,-1.00,-4.00,-20.00,+7.00,+31.00
-47.00,-11.00,-2.00,+1.00,-17.00,-3.00,+8.00,-12.00,-3.00,+2.00,-3.00,-5.00,-2.00,+15.00,-11.00,-33.00
+1.00,-21.00,-9.00,-2.00,-5.00,-12.00,-2.00,+19.00,-14.00,-10.00,+5.00,+10.00,+10.00,+35.00,+11.00,+10.00
+1.00,+0.00,+4.00,+0.00,+1.00,+11.00,+0.00,+8.00,+14.00,+17.00,-2.00,+3.00,-10.00,-56.00,-18.00,-35.00
+31.00,+19.00,+8.00,+5.00,+3.00,+5.00,+11.00,+17.00,-1.00,+16.00,+16.00,+0.00,-2.00,-6.00,+18.00,+46.00
-18.00,-2.00,+0.00,+2.00,+6.00,-7.00,-23.00,-13.00,+18.00,+13.00,-8.00,-10.00,-8.00,-8.00,-8.00,-23.00
+13.00,+11.00,+9.00,+2.00,+0.00,+9.00,+17.00,+42.00,-10.00,-9.00,-16.00,-12.00,-9.00,+13.00,-15.00,-24.00
+23.00,+11.00,+4.00,-1.00,-10.00,-13.00,-5.00,-10.00,-3.00,-29.00,-18.00,-5.00,-1.00,+3.00,+18.00,+36.00
-57.00,-26.00,-9.00,-3.00,+2.00,+18.00,+19.00,-8.00,-20.00,-14.00,+0.00,+3.00,+5.00,+4.00,-15.00,-32.00
+8.00,+17.00,+6.00,+5.00,+3.00,+1.00,-13.00,-18.00,+26.00,+30.00,+12.00,+2.00,+2.00,-2.00,+10.00,+0.00
+19.00,+4.00,+2.00,+3.00,-1.00,+0.00,+1.00,-7.00,+18.00,+9.00,+3.00,+4.00,+2.00,+13.00,+3.00,+22.00
-47.00,-36.00,-19.00,-4.00,+13.00,-2.00,+4.00,-25.00,-18.00,-7.00,-9.00,-10.00,-7.00,-8.00,+0.00,-11.00
+36.00,+14.00,-2.00,-11.00,-20.00,-11.00,-24.00,+8.00,+9.00,+8.00,-2.00,+4.00,+2.00,-13.00,-25.00,-21.00
-12.00,-5.00,-4.00,-2.00,+2.00,+1.00,-2.00,-2.00,-17.00,-16.00,-2.00,-3.00,-8.00,-19.00,+1.00,+1.00
+39.00,+25.00,+19.00,+10.00,+1.00,+2.00,+27.00,+9.00,+14.00,-6.00,-4.00,+0.00,+5.00,+41.00,+12.00,+31.00
-53.00,-3.00,-3.00,+1.00,+10.00,-9.00,-1.00,-36.00,-3.00,+20.00,+11.00,+6.00,+4.00,+10.00,-10.00,-38.00
+18.00,-3.00,-5.00,-4.00,-12.00,-3.00,-5.00,-17.00,-9.00,-14.00,-6.00,-7.00,-8.00,-27.00,-6.00,+8.00
+1.00,-8.00,+3.00,+7.00,+13.00,+11.00,+8.00,+34.00,-9.00,+6.00,-3.00,-1.00,-7.00,+2.00,-12.00,-35.00
-25.00,-25.00,-12.00,-9.00,-8.00,-7.00,+8.00,-10.00,-26.00,-11.00,+8.00,+7.00,+9.00,-1.00,+19.00,+13.00
+33.00,+23.00,+5.00,+4.00,+5.00,-6.00,-15.00,+5.00,+14.00,+8.00,+1.00,+2.00,+2.00,+10.00,-5.00,+14.00
+74.00,+34.00,+17.00,+6.00,+1.00,+3.00,+17.00,+49.00,-5.00,+13.00,+4.00,+5.00,+4.00,+9.00,-11.00,-48.00
+3.00,+6.00,+3.00,-3.00,-7.00,-3.00,-9.00,-17.00,+4.00,-36.00,+2.00,+18.00,+14.00,+4.00,+28.00,+73.00
-30.00,-15.00,-6.00,-2.00,+4.00,-3.00,-1.00,+7.00,+9.00,+2.00,-7.00,-13.00,-6.00,+7.00,-2.00,-7.00
+36.00,+14.00,+5.00,+1.00,+1.00,+0.00,-14.00,+7.00,+4.00,-10.00,-1.00,-3.00,-10.00,-27.00,-1.00,+16.00
-32.00,-20.00,-11.00,-3.00,+1.00,+4.00,+22.00,-28.00,+13.00,+16.00,+13.00,+13.00,+7.00,-3.00,+9.00,-4.00
-47.00,-45.00,-19.00,-7.00,-4.00,-5.00,-21.00,-8.00,-40.00,-4.00,+1.00,-5.00,+0.00,+16.00,-14.00,-27.00
+82.00,+70.00,+14.00,+2.00,+3.00,+6.00,+26.00,+22.00,+30.00,+21.00,+5.00,+8.00,+1.00,-41.00,+8.00,+24.00
+21.00,+16.00,+5.00,+2.00,-4.00,-7.00,-10.00,+5.00,-9.00,-15.00,-3.00,-6.00,+7.00,+39.00,+20.00,+36.00
-26.00,-7.00,-3.00,-4.00,+5.00,+19.00,-5.00,-14.00,+23.00,+6.00,+6.00,+4.00,+9.00,+10.00,+5.00,+9.00
+41.00,-7.00,+8.00,+8.00,+10.00,+1.00,+4.00,+22.00,-9.00,-19.00,-4.00,+1.00,-1.00,-1.00,+17.00,+16.00
-44.00,-27.00,-8.00,-1.00,-5.00,-7.00,-5.00,-38.00,-6.00,-11.00,-7.00,-5.00,-7.00,-17.00,-30.00,-22.00
+57.00,+12.00,+5.00,+0.00,-1.00,+8.00,+6.00,+20.00,-19.00,+9.00,+3.00,-2.00,-5.00,-21.00,-13.00,-43.00
+5.00,+25.00,-1.00,-5.00,-6.00,-15.00,-7.00,+5.00,-3.00,-11.00,-5.00,-7.00,+0.00,+4.00,+17.00,+45.00
-17.00,-15.00,-2.00,+2.00,-6.00,+10.00,+4.00,+3.00,+35.00,+23.00,+5.00,-1.00,+2.00,+22.00,+13.00,+31.00
+10.00,+7.00,+2.00,+0.00,+3.00,-5.00,-11.00,-9.00,-9.00,+23.00,+8.00,-7.00,-14.00,-30.00,-24.00,-78.00
-45.00,-17.00,-9.00,-4.00,-2.00,+6.00,+15.00,-9.00,+21.00,-2.00,-10.00,-3.00,+0.00,-10.00,+2.00,+48.00
-48.00,-28.00,-8.00,+0.00,-1.00,-3.00,-17.00,-22.00,-9.00,-6.00,-8.00,-1.00,-6.00,-9.00,-16.00,-23.00
+41.00,+36.00,+11.00,+3.00,+2.00,-1.00,+7.00,-6.00,-9.00,-2.00,-3.00,-4.00,+0.00,+18.00,+2.00,-3.00
+43.00,+9.00,+0.00,-2.00,-4.00,-10.00,-27.00,-27.00,+9.00,+9.00,-9.00,-11.00,-4.00,+10.00,+1.00,+0.00
+5.00,+0.00,+13.00,+4.00,+1.00,+14.00,+34.00,+52.00,-5.00,+9.00,+9.00,+1.00,-1.00,-2.00,+5.00,-8.00
+13.00,+12.00,+4.00,+1.00,+0.00,-4.00,+2.00,-4.00,-22.00,-14.00,-10.00,-5.00,-1.00,+2.00,+1.00,+1.00
-18.00,+0.00,-1.00,+1.00,-4.00,-11.00,-21.00,-8.00,+14.00,+5.00,-6.00,+0.00,-3.00,-25.00,-8.00,+5.00
-35.00,-25.00,-10.00,+0.00,+7.00,+4.00,+10.00,-18.00,-17.00,-17.00,-2.00,-3.00,-3.00,+10.00,-13.00,-30.00
+11.00,-11.00,-6.00,-3.00,+6.00,+11.00,+8.00,-1.00,+6.00,+12.00,+4.00,+2.00,-3.00,-56.00,+19.00,+46.00
-27.00,-3.00,-5.00,-6.00,-7.00,-5.00,-1.00,+0.00,-1.00,-5.00,-6.00,-5.00,+3.00,+72.00,+5.00,+3.00
+31.00,+18.00,+4.00,-2.00,-7.00,-6.00,+6.00,+5.00,-18.00,+4.00,+7.00,-1.00,+0.00,-7.00,-25.00,-75.00
+12.00,+30.00,+12.00,+5.00,+4.00,+7.00,-2.00,+25.00,-2.00,+9.00,+6.00,+6.00,+2.00,-11.00,+2.00,+30.00
-36.00,-45.00,-11.00,-1.00,+6.00,+3.00,+1.00,-1.00,+23.00,-2.00,-10.00,-2.00,-4.00,-7.00,-1.00,+26.00
+79.00,+38.00,+17.00,+9.00,+5.00,+13.00,+27.00,+17.00,-4.00,+12.00,+10.00,+3.00,-9.00,-31.00,-16.00,-46.00
-42.00,-24.00,-15.00,-7.00,-2.00,-16.00,-28.00,+2.00,+12.00,-8.00,-11.00,-12.00,+3.00,+9.00,+17.00,+70.00
+3.00,-15.00,-3.00,-4.00,-11.00,+11.00,+2.00,+18.00,-6.00,-15.00,-14.00,-8.00,-3.00,+21.00,+0.00,-15.00
-34.00,-10.00,-8.00,-3.00,-3.00,+7.00,+17.00,-22.00,-14.00,-7.00,+0.00,+0.00,+1.00,+3.00,-12.00,-52.00
-17.00,-10.00,-8.00,-1.00,+1.00,+0.00,-8.00,-8.00,-3.00,+2.00,+0.00,+5.00,+2.00,-9.00,-4.00,-6.00
-36.00,-21.00,-6.00,+1.00,+10.00,+16.00,+4.00,-23.00,-1.00,+11.00,+2.00,+1.00,-4.00,+9.00,-16.00,-38.00
+18.00,+28.00,-6.00,-17.00,-26.00,-19.00,-24.00,-21.00,-16.00,-22.00,-5.00,+1.00,+5.00,-9.00,+9.00,+1.00
-2.00,+13.00,-1.00,-3.00,-2.00,-5.00,-3.00,+3.00,+14.00,+8.00,-2.00,-6.00,-5.00,-13.00,+6.00,+13.00
+14.00,-7.00,+4.00,+1.00,-3.00,+0.00,-18.00,+12.00,-22.00,-6.00,+3.00,+8.00,+10.00,+34.00,-13.00,-22.00
-29.00,-5.00,-6.00,-2.00,+5.00,+1.00,+13.00,+0.00,-12.00,-2.00,-3.00,-12.00,-13.00,-12.00,-6.00,-34.00
-40.00,-25.00,+1.00,+5.00,+8.00,-8.00,+0.00,+4.00,-9.00,+2.00,+19.00,+18.00,+16.00,+29.00,+28.00,+41.00
+89.00,+29.00,+8.00,+4.00,+0.00,+15.00,+12.00,+18.00,-23.00,+0.00,+3.00,+3.00,+2.00,+15.00,-14.00,-21.00
-37.00,-14.00,-6.00,-1.00,+2.00,-22.00,-27.00,-20.00,+8.00,+5.00,-13.00,-33.00,-33.00,-53.00,-7.00,+11.00
+15.00,-4.00,+0.00,+4.00,+7.00,+33.00,+53.00,+8.00,+22.00,+6.00,-10.00,-13.00,-11.00,-20.00,-5.00,+4.00
-41.00,-17.00,-9.00,-6.00,+0.00,-12.00,-16.00,+4.00,-5.00,+5.00,+0.00,-3.00,-1.00,+6.00,-17.00,-28.00
+99.00,+46.00,+6.00,-1.00,-9.00,-13.00,-25.00,+31.00,-12.00,-8.00,+1.00,+4.00,+6.00,+14.00,+8.00,-19.00
-7.00,-8.00,+3.00,+9.00,+9.00,+13.00,+15.00,+1.00,+23.00,+13.00,+10.00,+13.00,+15.00,+7.00,+15.00,+44.00
+27.00,+20.00,+5.00,-8.00,-15.00,-16.00,-12.00,+9.00,+0.00,-13.00,-12.00,-9.00,-17.00,-25.00,-4.00,+13.00
+3.00,-13.00,-2.00,-2.00,+1.00,+4.00,+8.00,+4.00,+15.00,+1.00,-6.00,-6.00,-4.00,-3.00,+9.00,+22.00
-85.00,-34.00,-12.00,-6.00,-3.00,-4.00,-12.00,-38.00,-35.00,+0.00,+15.00,+6.00,-2.00,-1.00,-31.00,-63.00
+10.00,-20.00,-11.00,-3.00,-1.00,-12.00,-1.00,+25.00,+17.00,-15.00,-18.00,-10.00,-11.00,-4.00,+13.00,+48.00
+2.00,+8.00,-4.00,-2.00,-7.00,-11.00,-11.00,-44.00,+1.00,-2.00,+5.00,+7.00,+4.00,-13.00,-2.00,-2.00
+60.00,+21.00,+13.00,+4.00,+4.00,+0.00,+13.00,+38.00,-2.00,-14.00,-6.00,+1.00,+3.00,+24.00,-4.00,-11.00
-27.00,-20.00,-11.00,-10.00,-6.00,-3.00,-7.00,-10.00,-10.00,-9.00,-10.00,-9.00,-6.00,-2.00,-12.00,-27.00
+11.00,+24.00,+9.00,+3.00,+6.00,+1.00,+2.00,-4.00,-11.00,-21.00,+0.00,+2.00,+4.00,+10.00,+9.00,+32.00
+0.00,-3.00,+1.00,-3.00,-5.00,-6.00,+6.00,+2.00,-20.00,+5.00,+4.00,-4.00,-5.00,-39.00,-6.00,-32.00
-31.00,-14.00,-10.00,-3.00,-2.00,-3.00,-19.00,-21.00,-1.00,-20.00,-10.00,-4.00,+1.00,+68.00,+22.00,+47.00
-9.00,+13.00,+1.00,+2.00,-1.00,-6.00,-6.00,-19.00,+16.00,-5.00,-2.00,+5.00,+4.00,-32.00,-10.00,+0.00
-8.00,-28.00,-18.00,-13.00,-7.00,-1.00,+5.00,+12.00,+4.00,+9.00,-2.00,-6.00,-7.00,-19.00,-27.00,-44.00
-22.00,-10.00,-10.00,-4.00,+2.00,-1.00,-12.00,-38.00,-12.00,-11.00,+1.00,+9.00,+8.00,+4.00,+9.00,+19.00
-30.00,-4.00,-2.00,-3.00,-10.00,-6.00,-21.00,-9.00,+13.00,-2.00,-3.00,-10.00,-14.00,-32.00,-23.00,-25.00
-9.00,+5.00,+1.00,-4.00,-9.00,-15.00,+4.00,-22.00,-11.00,-5.00,+2.00,+1.00,+1.00,+31.00,+8.00,-10.00
-54.00,-21.00,-6.00,+0.00,+5.00,+34.00,+6.00,-15.00,+0.00,+4.00,+4.00,+4.00,+2.00,+3.00,+15.00,+17.00
+57.00,+20.00,+12.00,-1.00,-4.00,-5.00,+5.00,+54.00,+3.00,+10.00,+10.00,+9.00,+1.00,-1.00,-20.00,-25.00
+3.00,-12.00,-7.00,-1.00,+5.00,+18.00,+12.00,+25.00,-18.00,-7.00,-12.00,-5.00,-13.00,-55.00,+9.00,+10.00
-9.00,-1.00,+0.00,-1.00,-6.00,-13.00,-12.00,+12.00,-4.00,-7.00,-5.00,-3.00,+6.00,+76.00,-6.00,-5.00
+24.00,+8.00,+10.00,+3.00,-4.00,-8.00,-2.00,+12.00,-20.00,-19.00,-12.00,-6.00,-6.00,-17.00,-7.00,-3.00
+49.00,+20.00,+3.00,-4.00,-3.00,-5.00,-2.00,+18.00,-11.00,-6.00,-8.00,-5.00,-3.00,+25.00,-1.00,-1.00
-58.00,-15.00,+2.00,+6.00,+7.00,+7.00,+8.00,-27.00,-17.00,+15.00,+10.00,+1.00,+0.00,-29.00,-8.00,-9.00
+31.00,+19.00,+7.00,-4.00,-4.00,+3.00,+6.00,+14.00,+42.00,+10.00,-14.00,-15.00,-12.00,-15.00,+16.00,+63.00
-31.00,-19.00,-13.00,-4.00,-3.00,-11.00,+10.00,-11.00,-16.00,-1.00,+0.00,-1.00,-1.00,-15.00,-5.00,-27.00
+2.00,-16.00,-11.00,+3.00,+14.00,-4.00,+7.00,-1.00,+18.00,+13.00,+7.00,+6.00,+6.00,+7.00,+0.00,+4.00
-45.00,-14.00,-6.00,-7.00,-10.00,-9.00,-15.00,+2.00,-10.00,-2.00,+6.00,+7.00,+7.00,+12.00,+3.00,-10.00
-42.00,-18.00,-4.00,+4.00,+12.00,+27.00,+16.00,-24.00,+17.00,+22.00,+14.00,+19.00,+3.00,-30.00,+12.00,+15.00
+8.00,+21.00,+2.00,-5.00,-12.00,-16.00,-20.00,-31.00,-21.00,-4.00,+1.00,-13.00,-2.00,+63.00,+11.00,+10.00
-28.00,-6.00,+1.00,+4.00,+1.00,+5.00,+4.00,-10.00,+8.00,+5.00,-2.00,-6.00,-9.00,-48.00,+2.00,+9.00
-7.00,+7.00,+3.00,+3.00,+0.00,+8.00,+21.00,+14.00,+1.00,+4.00,+1.00,+1.00,+8.00,+70.00,-1.00,-20.00
-28.00,-27.00,-9.00,-2.00,+12.00,+6.00,+1.00,+0.00,+11.00,-5.00,+4.00,+12.00,+17.00,+23.00,+1.00,+7.00
+6.00,+18.00,+4.00,+1.00,+1.00,-2.00,-22.00,+10.00,-2.00,+0.00,-2.00,+1.00,-9.00,-49.00,-3.00,-14.00
+1.00,+16.00,+7.00,+3.00,-3.00,+16.00,+35.00,-3.00,-12.00,+5.00,+4.00,+1.00,+2.00,+12.00,+9.00,-4.00
+76.00,+34.00,+13.00,+6.00,+2.00,-6.00,-35.00,+23.00,+7.00,-15.00,-17.00,-9.00,-10.00,-30.00,-21.00,-16.00
-13.00,-1.00,+6.00,-1.00,-12.00,-17.00,-7.00,+6.00,+14.00,+7.00,+1.00,-5.00,-5.00,-1.00,+1.00,+7.00
+3.00,+7.00,+6.00,+5.00,+6.00,-2.00,+9.00,+12.00,-6.00,-12.00,+1.00,+5.00,+6.00,+14.00,+1.00,-20.00
+3.00,-15.00,-6.00,-3.00,+2.00,+3.00,+0.00,-19.00,+5.00,-10.00,-7.00,+0.00,+0.00,+0.00,+7.00,+32.00
+18.00,+7.00,-1.00,-1.00,-1.00,+4.00,+24.00,-3.00,-22.00,-9.00,-1.00,-8.00,-6.00,-6.00,-14.00,-42.00
+4.00,+12.00,+1.00,+0.00,+1.00,-2.00,-16.00,+10.00,-4.00,-1.00,-8.00,-5.00,+0.00,-8.00,+12.00,+1.00
+1.00,-12.00,-5.00,-3.00,-2.00,-5.00,+3.00,-3.00,-22.00,-12.00,+3.00,+6.00,+3.00,-22.00,-15.00,-23.00
-35.00,-9.00,-1.00,+0.00,-3.00,-6.00,-18.00,-11.00,+16.00,+20.00,+10.00,+6.00,+3.00,+36.00,-1.00,-12.00
-3.00,-16.00,-12.00,-1.00,+9.00,+16.00,+24.00,+1.00,+10.00,-28.00,-9.00,-2.00,-4.00,-30.00,+21.00,+65.00
-9.00,-16.00,-13.00,-8.00,-10.00,-23.00,-19.00,-12.00,+8.00,+7.00,+8.00,-3.00,-11.00,-51.00,-8.00,-8.00
+43.00,+26.00,+8.00,-4.00,-8.00,+11.00,+13.00,+16.00,+2.00,-20.00,-4.00,+0.00,+16.00,+82.00,+18.00,+42.00
-62.00,-7.00,+1.00,+4.00,+5.00,-8.00,-4.00,+18.00,-3.00,+1.00,-1.00,+2.00,+3.00,+16.00,+0.00,-2.00
-15.00,-1.00,-2.00,+1.00,+0.00,-4.00,+2.00,-28.00,+11.00,+28.00,+17.00,+6.00,+3.00,+12.00,+11.00,-6.00
+71.00,+62.00,+21.00,+6.00,-2.00,+7.00,-11.00,+12.00,-1.00,-4.00,-4.00,-6.00,-5.00,-7.00,-27.00,+0.00
-27.00,-20.00,-5.00,+5.00,+8.00,+9.00,+18.00,-4.00,+12.00,+16.00,+15.00,+10.00,+0.00,-21.00,+11.00,+12.00
+57.00,+29.00,+4.00,-4.00,-6.00,-16.00,-17.00,-17.00,+2.00,-18.00,-15.00,-10.00,+0.00,+18.00,-2.00,-3.00
-1.00,-4.00,-8.00,-4.00,+6.00,-7.00,-7.00,-17.00,-7.00,+15.00,+1.00,-1.00,-3.00,-26.00,-5.00,-4.00
-24.00,-16.00,-2.00,-2.00,-5.00,+1.00,+9.00,+10.00,-23.00,-36.00,-9.00,+3.00,+4.00,+3.00,+4.00,+6.00
-26.00,-10.00,-1.00,-4.00,-3.00,-8.00,-16.00,-18.00,-10.00,-7.00,-10.00,-13.00,-13.00,-36.00,-17.00,-32.00
+57.00,+57.00,+17.00,+13.00,+7.00,+1.00,-13.00,+26.00,-5.00,+10.00,+6.00,+2.00,+4.00,+13.00,+7.00,+18.00
+9.00,-15.00,-3.00,-2.00,-4.00,-2.00,+20.00,+6.00,+28.00,+23.00,+2.00,-2.00,-4.00,-17.00,-14.00,-22.00
+11.00,+11.00,+7.00,-4.00,-6.00,+4.00,-12.00,+22.00,-12.00,+7.00,+10.00,+4.00,+3.00,+8.00,+19.00,+27.00
-7.00,-10.00,-5.00,-1.00,+3.00,+12.00,+13.00,+3.00,-19.00,-10.00,-12.00,-8.00,-5.00,+15.00,-17.00,-20.00
+25.00,-25.00,-14.00,-13.00,-11.00,+6.00,+7.00,+15.00,-7.00,+1.00,+5.00,+3.00,-3.00,-10.00,+3.00,+4.00
+41.00,+29.00,+11.00,+4.00,-1.00,-6.00,-7.00,-5.00,+2.00,-2.00,-7.00,-7.00,-12.00,-21.00,-5.00,-6.00
-41.00,-26.00,-4.00,+6.00,+7.00,+8.00,-6.00,-14.00,+7.00,+1.00,-1.00,-6.00,+6.00,+33.00,+0.00,+4.00
+20.00,+31.00,+12.00,+8.00,+4.00,-2.00,+35.00,-1.00,-6.00,+12.00,+6.00,+7.00,+2.00,+8.00,+7.00,+5.00
-44.00,-26.00,-7.00,-5.00,-5.00,-12.00,-42.00,-7.00,+22.00,+5.00,-9.00,-12.00,-8.00,-37.00,-15.00,-3.00
+29.00,+28.00,+9.00,+4.00,+7.00,-7.00,+6.00,+2.00,-33.00,-17.00,+5.00,+11.00,-1.00,-7.00,-1.00,-10.00
-29.00,-34.00,-16.00,-12.00,-11.00,-8.00,-28.00,+1.00,+15.00,+3.00,-8.00,-5.00,-2.00,+25.00,+12.00,+0.00
-23.00,-17.00,-17.00,-9.00,-14.00,+2.00,+5.00,-8.00,+0.00,-5.00,+1.00,+2.00,-6.00,-43.00,-26.00,-27.00
-32.00,-8.00,+8.00,+7.00,+10.00,-9.00,-10.00,-32.00,-11.00,-13.00,+1.00,+1.00,+3.00,+22.00,+2.00,+1.00
-40.00,-35.00,-12.00,-7.00,-10.00,+21.00,+13.00,-3.00,-10.00,-9.00,+4.00,+12.00,+14.00,+16.00,+8.00,+9.00
+15.00,+45.00,+11.00,+2.00,+12.00,+0.00,+13.00,+10.00,-2.00,+0.00,-8.00,-9.00,-7.00,-15.00,-7.00,-3.00
-17.00,-8.00,-6.00,-5.00,-10.00,-18.00,-26.00,-3.00,+19.00,-10.00,-7.00,+5.00,+7.00,+19.00,+15.00,+33.00
-13.00,-13.00,-3.00,-1.00,-4.00,+14.00,+14.00,+1.00,+8.00,+6.00,+10.00,+12.00,+6.00,-16.00,-12.00,-26.00
-18.00,-23.00,-4.00,-3.00,-5.00,-12.00,-16.00,-9.00,-21.00,-43.00,-27.00,-16.00,-4.00,-3.00,+6.00,+31.00
+78.00,+31.00,+7.00,+6.00,+2.00,+6.00,+1.00,+17.00,-8.00,-6.00,-4.00,+1.00,+7.00,+43.00,+20.00,+34.00
+0.00,+4.00,+9.00,+6.00,+0.00,+1.00,+20.00,+0.00,-6.00,+5.00,+3.00,-4.00,-13.00,-48.00,-17.00,-33.00
-2.00,-7.00,-14.00,-10.00,-4.00,-4.00,-3.00,-3.00,+16.00,+1.00,-10.00,-7.00,+2.00,+10.00,+7.00,+12.00
-73.00,-52.00,-16.00,+6.00,+11.00,+3.00,-17.00,-34.00,+1.00,+18.00,+17.00,+5.00,+3.00,-21.00,+4.00,+4.00
-9.00,-2.00,-6.00,-6.00,-9.00,-10.00,+9.00,-9.00,+3.00,+10.00,-1.00,-6.00,-3.00,+21.00,-12.00,-20.00
+21.00,+8.00,-2.00,-2.00,+3.00,-20.00,-25.00,+7.00,-8.00,-13.00,-7.00,+4.00,+9.00,+9.00,+13.00,+14.00
-27.00,-22.00,-4.00,+0.00,-3.00,+25.00,+17.00,-9.00,-10.00,-8.00,-3.00,-14.00,-17.00,-18.00,+1.00,-4.00
+15.00,+15.00,+5.00,-4.00,-2.00,-3.00,-7.00,+13.00,-7.00,-4.00,-2.00,-2.00,+4.00,+24.00,-7.00,-28.00
-9.00,-13.00,+0.00,+6.00,+7.00,+1.00,+10.00,-6.00,-18.00,-7.00,-1.00,+3.00,+8.00,-25.00,-3.00,-8.00
-47.00,-28.00,-7.00,-6.00,-4.00,+5.00,+7.00,-26.00,+8.00,+16.00,+2.00,-11.00,-20.00,-9.00,-10.00,-17.00
+16.00,+23.00,+6.00,+1.00,-4.00,-5.00,+1.00,+16.00,-12.00,-6.00,-2.00,-1.00,+4.00,+7.00,-5.00,-14.00
+27.00,+19.00,+3.00,-4.00,+3.00,-2.00,-7.00,+7.00,+8.00,+15.00,+5.00,+6.00,+7.00,+4.00,-3.00,-2.00
-38.00,-41.00,-13.00,-4.00,-3.00,-5.00,-4.00,-4.00,-18.00,-7.00,-7.00,-13.00,-13.00,-18.00,-22.00,-45.00
+43.00,+22.00,+6.00,+1.00,+1.00,-2.00,-23.00,+10.00,+6.00,-5.00,-4.00,+3.00,+8.00,+14.00,+15.00,+29.00
-12.00,+10.00,-3.00,-2.00,+0.00,+7.00,+37.00,+5.00,-17.00,-11.00,-1.00,+1.00,+1.00,-2.00,+0.00,+6.00
+6.00,-4.00,-2.00,+0.00,-1.00,-6.00,+1.00,+16.00,+16.00,+5.00,+1.00,-3.00,-2.00,+35.00,+6.00,+11.00
-1.00,+7.00,+8.00,+7.00,+3.00,-2.00,+2.00,-18.00,-14.00,-1.00,+7.00,+11.00,-1.00,-59.00,-16.00,-29.00
-29.00,-26.00,-13.00,-9.00,-5.00,-8.00,-9.00,+9.00,-21.00,-30.00,-8.00,-5.00,-3.00,+3.00,+4.00,+6.00
-2.00,-8.00,-4.00,-1.00,+3.00,-3.00,-13.00,-15.00,+9.00,+8.00,-9.00,-1.00,+6.00,+3.00,+0.00,+5.00
+25.00,+22.00,+6.00,-4.00,-11.00,-8.00,+0.00,+12.00,+6.00,+1.00,-12.00,-29.00,-35.00,-25.00,-15.00,-14.00
-16.00,-16.00,-8.00,-2.00,+7.00,-11.00,+4.00,-12.00,+0.00,-6.00,-10.00,-3.00,-3.00,+3.00,-8.00,-35.00
-11.00,-20.00,-1.00,+3.00,+3.00,+26.00,+0.00,+3.00,+5.00,-1.00,+6.00,+11.00,+9.00,+5.00,+15.00,+25.00
+19.00,+0.00,-2.00,-3.00,-1.00,-4.00,-10.00,+5.00,-4.00,-3.00,-4.00,-24.00,-12.00,-6.00,-8.00,-3.00
+11.00,+15.00,+3.00,-3.00,-6.00,-2.00,+2.00,-3.00,+20.00,+23.00,+10.00,+11.00,+13.00,+1.00,+1.00,+3.00
-3.00,-4.00,-1.00,-6.00,-7.00,+0.00,-3.00,-8.00,+3.00,-10.00,+1.00,+6.00,+2.00,+9.00,+18.00,+48.00
+3.00,-8.00,+0.00,-4.00,-9.00,-14.00,-13.00,+9.00,+3.00,+20.00,+11.00,+25.00,+24.00,+2.00,-7.00,-13.00
+25.00,+19.00,+8.00,+2.00,+1.00,+3.00,+2.00,-1.00,-5.00,-10.00,-10.00,-30.00,-26.00,-13.00,-5.00,-2.00
-25.00,-19.00,-7.00,+1.00,+4.00,-2.00,+0.00,-6.00,+1.00,+16.00,+13.00,+0.00,-5.00,+2.00,-1.00,-8.00
+6.00,+4.00,+0.00,-1.00,-8.00,-2.00,+0.00,-7.00,+4.00,+4.00,-9.00,-25.00,-23.00,-6.00,-5.00,-2.00
+38.00,+26.00,+2.00,+5.00,+17.00,+4.00,-2.00,+2.00,+13.00,+11.00,+2.00,+1.00,+7.00,-9.00,-8.00,-11.00
-26.00,-37.00,-2.00,+2.00,-5.00,-3.00,+4.00,-5.00,-11.00,+3.00,+11.00,+19.00,+7.00,+7.00,+4.00,+1.00
+14.00,+46.00,+0.00,-14.00,-15.00,-1.00,-6.00,-2.00,+19.00,+6.00,-4.00,+3.00,+6.00,+3.00,+9.00,+36.00
-11.00,-12.00,-8.00,-7.00,-1.00,+2.00,+4.00,+0.00,-5.00,+0.00,+4.00,+6.00,+4.00,-1.00,-5.00,-10.00
-2.00,-9.00,-4.00,-2.00,-5.00,-3.00,-2.00,-2.00,+22.00,+15.00,+3.00,+0.00,+4.00,+2.00,+7.00,+28.00
-34.00,-24.00,-9.00,+1.00,+3.00,-4.00,-10.00,-16.00,-1.00,+0.00,+0.00,+17.00,+6.00,+2.00,-3.00,-12.00
+11.00,+3.00,+5.00,+4.00,+7.00,+0.00,-3.00,-1.00,-8.00,-5.00,-1.00,+6.00,-3.00,+2.00,-9.00,-17.00
+8.00,+3.00,+3.00,+4.00,+4.00,+6.00,+5.00,+1.00,+9.00,-7.00,+2.00,-6.00,-8.00,+0.00,+15.00,+34.00
-9.00,-5.00,-2.00,-1.00,+1.00,+0.00,-3.00,-1.00,+0.00,+13.00,+12.00,+4.00,-9.00,-4.00,-6.00,-14.00
+25.00,+16.00,+5.00,+2.00,-12.00,-5.00,-1.00,+3.00,+5.00,-6.00,-18.00,-30.00,-22.00,-3.00,+2.00,+23.00
-8.00,-10.00,+4.00,+13.00,+28.00,+6.00,+2.00,+4.00,+7.00,-4.00,-7.00,-1.00,+11.00,+1.00,+2.00,+10.00
-10.00,-8.00,+10.00,+11.00,-19.00,-1.00,+6.00,+0.00,-12.00,-3.00,+0.00,+10.00,+1.00,+0.00,-5.00,-17.00
+3.00,-21.00,-17.00,-27.00,+0.00,-6.00,-3.00,-2.00,+3.00,+3.00,-1.00,-2.00,+1.00,-1.00,+0.00,-6.00
-28.00,-16.00,-23.00,-23.00,-5.00,+1.00,-4.00,-6.00,+2.00,-2.00,+5.00,+10.00,+19.00,+5.00,+5.00,+8.00
+33.00,+33.00,+5.00,-6.00,-10.00,-3.00,+3.00,+0.00,-10.00,-4.00,+5.00,+49.00,+18.00,+7.00,+1.00,-4.00
+7.00,+6.00,+2.00,+9.00,+1.00,+3.00,+1.00,+3.00,+2.00,-5.00,-15.00,-60.00,-35.00,-15.00,-11.00,-14.00
-4.00,+22.00,+17.00,+17.00,+7.00,+0.00,-4.00,-6.00,-8.00,+5.00,+5.00,-4.00,-15.00,-3.00,-5.00,-17.00
-9.00,-7.00,+3.00,+5.00,+3.00,-2.00,+1.00,+3.00,-13.00,-17.00,-8.00,-3.00,-10.00,-4.00,+1.00,+5.00
-5.00,-18.00,-1.00,+11.00,+34.00,-2.00,-2.00,-3.00,-10.00,-2.00,+3.00,-9.00,+3.00,-3.00,-6.00,-11.00
+7.00,+22.00,+14.00,+6.00,-17.00,+17.00,+7.00,+5.00,+12.00,+7.00,+2.00,+17.00,+16.00,+5.00,+2.00,+4.00
-6.00,-20.00,-10.00,-8.00,-30.00,-16.00,-6.00,-6.00,+8.00,+5.00,-6.00,-4.00,-7.00,-7.00,-1.00,+4.00
+3.00,+33.00,+12.00,+4.00,+26.00,+7.00,+1.00,-2.00,+12.00,+10.00,+5.00,+5.00,+10.00,+2.00,+1.00,+0.00
+13.00,-4.00,-10.00,-17.00,-32.00,-6.00,-3.00,+2.00,-17.00,-14.00,+3.00,-7.00,-4.00,-2.00,-4.00,-15.00
+6.00,+4.00,-7.00,+2.00,+17.00,-3.00,-3.00,-6.00,+5.00,+2.00,-1.00,+11.00,+10.00,+3.00,+2.00,+0.00
+5.00,+14.00,+12.00,+11.00,+9.00,+10.00,+4.00,-1.00,+3.00,+15.00,+0.00,-15.00,-9.00,-6.00,-2.00,+0.00
-1.00,-5.00,+23.00,-3.00,-9.00,-8.00,-3.00,+3.00,-9.00,+17.00,+18.00,+20.00,+11.00,+1.00,-6.00,-22.00
-23.00,-16.00,-31.00,-10.00,+0.00,-2.00,-2.00,-5.00,+10.00,-2.00,-16.00,-29.00,-30.00,-8.00,-3.00,+1.00
-25.00,-25.00,-4.00,+8.00,+2.00,-1.00,+0.00,-2.00,-6.00,-5.00,-2.00,+1.00,+2.00,-2.00,-1.00,-6.00
+8.00,+7.00,-4.00,-18.00,-11.00,-3.00,-3.00,-1.00,-6.00,-14.00,-10.00,-10.00,+3.00,-1.00,-2.00,-7.00
-1.00,-5.00,-20.00,-18.00,+0.00,-6.00,-4.00,-3.00,-8.00,-1.00,+8.00,+9.00,-6.00,+0.00,+0.00,-8.00
-40.00,+2.00,-2.00,+0.00,+1.00,+6.00,-1.00,-3.00,+0.00,-21.00,+1.00,+14.00,+19.00,+7.00,+11.00,+23.00
-4.00,+0.00,-7.00,-5.00,+8.00,-6.00,+0.00,+0.00,-5.00,-4.00,+3.00,-1.00,-4.00,+0.00,+3.00,+7.00
-11.00,+4.00,+7.00,+23.00,+10.00,+4.00,+1.00,-3.00,-3.00,-2.00,+1.00,+2.00,+7.00,+1.00,-1.00,-3.00
+3.00,-2.00,+19.00,+20.00,-19.00,-6.00,-2.00,+3.00,-6.00,-7.00,-11.00,-4.00,+3.00,+0.00,-3.00,-9.00
+5.00,-22.00,+20.00,-1.00,-19.00,+1.00,+0.00,-1.00,-3.00,+5.00,-3.00,-10.00,-8.00,-2.00,-8.00,-11.00
+26.00,+14.00,-20.00,-14.00,+1.00,-4.00,+0.00,+6.00,-5.00,-9.00,+2.00,+8.00,-3.00,+1.00,+0.00,+3.00
+15.00,+33.00,+3.00,-5.00,+8.00,+0.00,+0.00,+1.00,-11.00,-17.00,-6.00,-7.00,-3.00,-2.00,-1.00,+1.00
-8.00,+6.00,-2.00,+0.00,-15.00,-9.00,-2.00,-7.00,+7.00,+11.00,+0.00,-12.00,-3.00,+1.00,+3.00,+9.00
-2.00,-23.00,+2.00,+11.00,+1.00,+1.00,+0.00,-2.00,+4.00,-7.00,-6.00,+9.00,+21.00,+5.00,+3.00,+7.00
+5.00,-21.00,-2.00,+1.00,+9.00,+2.00,-1.00,-1.00,+7.00,+17.00,+8.00,-3.00,-4.00,-2.00,-3.00,-2.00
+18.00,+14.00,+0.00,-11.00,-2.00,+0.00,+0.00,-5.00,+6.00,-7.00,-12.00,-13.00,-24.00,-3.00,+2.00,+0.00
+13.00,-12.00,-22.00,-25.00,-6.00,-4.00,-4.00,+3.00,-6.00,-2.00,+6.00,+12.00,+10.00,+3.00,+4.00,+8.00
-11.00,+21.00,-14.00,-10.00,-3.00,-7.00,-3.00,-12.00,-18.00,-3.00,+2.00,-1.00,-3.00,-7.00,-7.00,-10.00
+1.00,-3.00,+10.00,+6.00,-6.00,-1.00,+0.00,-2.00,+16.00,+9.00,+3.00,+3.00,+5.00,-3.00,-1.00,+2.00
+2.00,-20.00,-8.00,+8.00,+6.00,+1.00,-1.00,-1.00,-2.00,-8.00,-6.00,+1.00,+3.00,-1.00,+0.00,+2.00
-33.00,+16.00,+15.00,+11.00,+7.00,+5.00,+1.00,+25.00,-4.00,+0.00,+4.00,+0.00,-7.00,-2.00,-4.00,-10.00
+20.00,+23.00,+8.00,+12.00,+11.00,+4.00,+3.00,+3.00,+3.00,+14.00,-7.00,-13.00,-5.00,-1.00,-3.00,+2.00
+3.00,+11.00,-4.00,-14.00,-11.00,-5.00,-3.00,-1.00,-5.00,+6.00,+4.00,+9.00,+14.00,+4.00,+1.00,+1.00
+8.00,-16.00,-6.00,+0.00,+0.00,+0.00,+0.00,-3.00,+1.00,+6.00,+1.00,-5.00,-3.00,-4.00,-2.00,+3.00
-8.00,-31.00,+1.00,+5.00,-4.00,-1.00,-1.00,-16.00,-2.00,-5.00,-2.00,-9.00,-9.00,-5.00,-2.00,-3.00
-19.00,-17.00,+0.00,-7.00,+11.00,+1.00,-1.00,-2.00,-4.00,-18.00,-5.00,+1.00,+6.00,+2.00,+2.00,+2.00
+0.00,+5.00,-12.00,-9.00,-8.00,-7.00,-2.00,+1.00,+2.00,+3.00,+2.00,+10.00,-5.00,+2.00,+3.00,+6.00
-3.00,-12.00,+6.00,+7.00,+3.00,+0.00,-1.00,+5.00,-7.00,-5.00,-8.00,-9.00,+2.00,-3.00,-4.00,-10.00
+9.00,+17.00,-7.00,-5.00,-4.00,+1.00,+3.00,+0.00,-13.00,-17.00,-4.00,-6.00,-9.00,-3.00,-2.00,-6.00
+3.00,-3.00,+1.00,+7.00,+3.00,-1.00,-4.00,+0.00,+2.00,-2.00,+6.00,+5.00,+0.00,+1.00,+3.00,+8.00
-3.00,+22.00,+14.00,+5.00,-7.00,-4.00,+0.00,-8.00,+20.00,+6.00,+2.00,-1.00,+14.00,-2.00,-2.00,+5.00
-11.00,+1.00,-10.00,-6.00,+10.00,+11.00,+1.00,-4.00,+4.00,+26.00,+8.00,-5.00,-13.00,+1.00,+5.00,+24.00
+3.00,-9.00,-5.00,+9.00,+9.00,+2.00,+1.00,+18.00,+0.00,-5.00,-5.00,+7.00,+3.00,+0.00,-2.00,-4.00
-6.00,-20.00,+5.00,-1.00,-6.00,-2.00,+0.00,+2.00,+0.00,+6.00,-6.00,-3.00,-9.00,-2.00,-4.00,-8.00
+13.00,-11.00,-1.00,-14.00,+5.00,-1.00,-1.00,+1.00,-28.00,-16.00,+11.00,+2.00,+0.00,-2.00,-5.00,-20.00
+10.00,-20.00,-23.00,-19.00,-9.00,-4.00,-2.00,+20.00,+1.00,-1.00,+1.00,-3.00,+0.00,-3.00,-4.00,-3.00
+16.00,+18.00,+0.00,+3.00,+5.00,+4.00,+1.00,-6.00,+2.00,-21.00,-18.00,+1.00,+16.00,+3.00,+6.00,+13.00
+5.00,+8.00,+5.00,+18.00,+0.00,+2.00,+0.00,+3.00,+14.00,+3.00,-3.00,-9.00,-17.00,-5.00,-2.00,-2.00
-5.00,-43.00,+26.00,+9.00,+3.00,+1.00,-1.00,+3.00,-22.00,-18.00,-12.00,-10.00,-12.00,-1.00,-1.00,-3.00
+3.00,+66.00,-19.00,-19.00,-12.00,-5.00,-2.00,-2.00,+12.00,-8.00,+0.00,+4.00,+2.00,+0.00,+0.00,-1.00
+30.00,+2.00,-18.00,-14.00,+0.00,+0.00,-2.00,-18.00,-25.00,+8.00,-1.00,+0.00,-2.00,+0.00,-2.00,-5.00
-29.00,-40.00,-1.00,-3.00,-12.00,-11.00,+0.00,+17.00,-8.00,+4.00,+6.00,+8.00,+13.00,+1.00,-4.00,-15.00
-2.00,+1.00,-2.00,+3.00,+0.00,+5.00,+0.00,+0.00,-3.00,-6.00,-2.00,-1.00,-8.00,+1.00,+4.00,+17.00
-9.00,-17.00,+13.00,+13.00,+1.00,-1.00,-1.00,-12.00,+0.00,+2.00,-3.00,-4.00,-5.00,-3.00,+0.00,+3.00
+1.00,-23.00,+1.00,+8.00,+7.00,+2.00,+1.00,-11.00,+0.00,-9.00,+1.00,+2.00,+3.00,-2.00,-6.00,-9.00
+30.00,+41.00,+4.00,-4.00,-10.00,-4.00,+0.00,+4.00,+0.00,+6.00,+3.00,+0.00,+12.00,+2.00,+3.00,+6.00
-14.00,-10.00,-19.00,-11.00,+9.00,+4.00,+0.00,+1.00,+6.00,+9.00,-2.00,+9.00,+0.00,+1.00,+0.00,-1.00
+6.00,+50.00,+13.00,+10.00,+2.00,-2.00,+1.00,-2.00,-1.00,-8.00,-5.00,-8.00,-7.00,-2.00,-4.00,-7.00
-31.00,+7.00,+12.00,-3.00,-6.00,-1.00,-4.00,-15.00,+2.00,-5.00,+10.00,+4.00,+6.00,+1.00,+2.00,+4.00
-3.00,-38.00,-33.00,-22.00,-3.00,-3.00,-1.00,-8.00,+0.00,+15.00,+2.00,+1.00,+9.00,-3.00,-3.00,+0.00
+0.00,-17.00,-3.00,+6.00,-8.00,-7.00,+0.00,+0.00,+0.00,+6.00,+0.00,-15.00,-18.00,-6.00,-4.00,-7.00
-12.00,-26.00,+12.00,+7.00,+4.00,+8.00,-2.00,-4.00,-14.00,-18.00,-7.00,+5.00,+11.00,+4.00,+1.00,-2.00
+2.00,-12.00,-7.00,-1.00,+0.00,-1.00,-1.00,+9.00,+6.00,+2.00,+0.00,-2.00,-11.00,-4.00,-4.00,-2.00
+1.00,+25.00,+11.00,-1.00,-4.00,+0.00,-2.00,-6.00,+2.00,-15.00,-9.00,-13.00,-7.00,-1.00,-4.00,-10.00
-2.00,+16.00,-8.00,-7.00,-7.00,-9.00,-5.00,-6.00,+3.00,-3.00,-1.00,+1.00,+8.00,+2.00,-1.00,-1.00
-18.00,-80.00,-12.00,+6.00,-2.00,-3.00,-2.00,-5.00,-6.00,+4.00,+3.00,+0.00,+1.00,-2.00,+0.00,+1.00
+9.00,+74.00,+18.00,+8.00,+0.00,+0.00,-1.00,+3.00,-15.00,-12.00,+0.00,-6.00,-5.00,-4.00,-5.00,-4.00
+0.00,+16.00,-3.00,-4.00,+1.00,+0.00,-1.00,-7.00,-3.00,+2.00,-6.00,-4.00,-7.00,-1.00,-4.00,-1.00
+28.00,+8.00,-4.00,-2.00,-4.00,+2.00,+4.00,+12.00,-4.00,-9.00,-5.00,+2.00,+6.00,+2.00,-1.00,-2.00
-7.00,-11.00,+10.00,+7.00,+0.00,-3.00,+0.00,+10.00,+3.00,+9.00,+8.00,+4.00,+8.00,+1.00,-2.00,-10.00
-69.00,-52.00,-15.00,-21.00,-5.00,-4.00,-7.00,-23.00,-11.00,-23.00,-10.00,-5.00,-13.00,-3.00,-1.00,-8.00
+3.00,+29.00,-8.00,-4.00,+0.00,-1.00,-2.00,-7.00,-14.00,+10.00,+6.00,-2.00,-8.00,-2.00,-1.00,+1.00
-29.00,+31.00,+17.00,+11.00,+8.00,+4.00,-2.00,+10.00,-2.00,+5.00,-7.00,-7.00,-2.00,-2.00,-2.00,-2.00
+6.00,+14.00,-3.00,+1.00,-1.00,-2.00,-2.00,-3.00,+6.00,+5.00,+4.00,+2.00,-1.00,-1.00,-2.00,-1.00
+12.00,-25.00,+0.00,+4.00,+2.00,+1.00,+1.00,+4.00,+7.00,+3.00,-4.00,+3.00,+4.00,+0.00,-2.00,-1.00
-4.00,-9.00,+0.00,+8.00,-2.00,+0.00,+1.00,+8.00,-16.00,-33.00,-7.00,-11.00,-11.00,-3.00,+0.00,-11.00
-5.00,+12.00,+5.00,-2.00,+4.00,-2.00,-4.00,-19.00,+8.00,+13.00,-4.00,+5.00,+20.00,-1.00,-3.00,-6.00
-1.00,+2.00,-4.00,-12.00,+1.00,-3.00,-1.00,+1.00,-15.00,-5.00,+4.00,-10.00,-30.00,-6.00,-9.00,-13.00
+19.00,+14.00,-4.00,+3.00,-10.00,-4.00,-2.00,+4.00,-10.00,+13.00,-2.00,-4.00,+1.00,-3.00,+1.00,+11.00
-13.00,-37.00,+1.00,+5.00,+2.00,+4.00,+0.00,+5.00,+89.00,+37.00,+9.00,+3.00,+1.00,+2.00,+8.00,+27.00
+1.00,-36.00,+11.00,+9.00,+2.00,+3.00,+2.00,+4.00,-13.00,-10.00,+1.00,+4.00,+5.00,+0.00,-3.00,-7.00
-12.00,-20.00,-27.00,-19.00,+2.00,-5.00,-1.00,+3.00,+9.00,+4.00,-7.00,+2.00,+9.00,+3.00,+0.00,-2.00
+73.00,+24.00,-7.00,-8.00,-3.00,-2.00,+2.00,+17.00,-14.00,-21.00,-5.00,-3.00,-6.00,-2.00,-2.00,-8.00
-13.00,-23.00,+8.00,+0.00,-7.00,-6.00,-4.00,-1.00,-29.00,+10.00,+1.00,+0.00,+1.00,-1.00,-4.00,-6.00
-14.00,+9.00,-10.00,+2.00,+17.00,+7.00,+0.00,+1.00,+24.00,+10.00,+4.00,+2.00,-4.00,+0.00,+0.00,+4.00
+13.00,+18.00,+13.00,+8.00,-9.00,-2.00,-2.00,+2.00,+1.00,+7.00,-1.00,-1.00,+7.00,-2.00,+0.00,+1.00
+4.00,-27.00,-6.00,-2.00,+1.00,+0.00,+1.00,+5.00,-18.00,-35.00,-5.00,-3.00,-15.00,-2.00,-6.00,-15.00
+6.00,-4.00,-6.00,-2.00,-2.00,+0.00,-1.00,-5.00,-20.00,+2.00,-6.00,-3.00,-3.00,-2.00,+0.00,-1.00
+1.00,+19.00,+7.00,-6.00,-4.00,-4.00,-2.00,-4.00,+23.00,+4.00,+2.00,-1.00,-3.00,-1.00,+1.00,+5.00
-15.00,-48.00,-15.00,-6.00,+0.00,-2.00,-2.00,-11.00,-12.00,+0.00,-1.00,+2.00,-4.00,+0.00,+3.00,+0.00
-14.00,-47.00,+2.00,+0.00,+6.00,+5.00,-1.00,-3.00,+11.00,+10.00,+4.00,+10.00,+32.00,+6.00,+3.00,+4.00
+21.00,+74.00,+13.00,+5.00,+0.00,+0.00,+1.00,-16.00,-9.00,-3.00,-5.00,-14.00,-26.00,-9.00,-7.00,-6.00
-6.00,+17.00,-2.00,+0.00,+1.00,+0.00,-4.00,+5.00,-22.00,-8.00,+3.00,-1.00,-3.00,-1.00,-2.00,-2.00
+23.00,+32.00,+16.00,+6.00,+0.00,+2.00,+3.00,+6.00,-3.00,+0.00,-1.00,+0.00,-9.00,-2.00,+0.00,-1.00
-32.00,-16.00,-3.00,+2.00,-1.00,-1.00,-3.00,-7.00,+6.00,+2.00,+4.00,-2.00,+1.00,-2.00,-4.00,-7.00
+9.00,+17.00,+4.00,-1.00,+4.00,+0.00,+2.00,+1.00,-2.00,-3.00,-5.00,+1.00,+5.00,+0.00,-2.00,-1.00
+6.00,-44.00,-15.00,-4.00,+10.00,+1.00,-1.00,-6.00,+3.00,+2.00,-3.00,+4.00,+11.00,+0.00,+1.00,-3.00
+3.00,+52.00,+4.00,-1.00,-30.00,-8.00,-3.00,-3.00,-7.00,-9.00,-5.00,-7.00,-10.00,-4.00,-3.00,-4.00
+6.00,+0.00,+5.00,+5.00,+8.00,+5.00,+2.00,+3.00,+14.00,+17.00,-2.00,-6.00,-5.00,-3.00,+0.00,+1.00
-22.00,-85.00,-24.00,-20.00,-9.00,-5.00,-5.00,-7.00,-19.00,-10.00,+3.00,+0.00,-4.00,+0.00,-6.00,-12.00
-7.00,+17.00,+4.00,-8.00,-2.00,-6.00,-2.00,-8.00,-8.00,-2.00,-5.00,-3.00,+0.00,-1.00,+3.00,+12.00
+13.00,+10.00,+9.00,+9.00,+9.00,+4.00,+5.00,+11.00,+2.00,-4.00,+6.00,+4.00,+11.00,+2.00,+0.00,-4.00
+4.00,+15.00,+1.00,+3.00,-4.00,-3.00,-3.00,-7.00,+7.00,+3.00,+3.00,+4.00,-4.00,+0.00,-1.00,-1.00
-1.00,-5.00,+0.00,+3.00,-2.00,+0.00,-5.00,+0.00,+2.00,+7.00,+9.00,+7.00,+15.00,+3.00,+1.00,+10.00
+39.00,-28.00,-9.00,+1.00,-7.00,-3.00,+0.00,+9.00,+1.00,+7.00,-12.00,-17.00,-23.00,-5.00,-2.00,-4.00
-30.00,-8.00,+4.00,+1.00,+1.00,+0.00,-1.00,-21.00,-17.00,-18.00,-3.00,+4.00,+6.00,-2.00,-4.00,-4.00
+3.00,+3.00,-9.00,-2.00,+3.00,+1.00,+2.00,+11.00,+2.00,+6.00,-5.00,-7.00,-11.00,-2.00,+3.00,+4.00
-1.00,-10.00,+1.00,-5.00,+1.00,+0.00,-1.00,+0.00,+16.00,-5.00,-3.00,+1.00,+8.00,-1.00,-1.00,-3.00
+16.00,-8.00,-6.00,-1.00,-1.00,+1.00,+2.00,-2.00,-4.00,-1.00,+1.00,+1.00,+2.00,-1.00,-2.00,-3.00
-11.00,+5.00,-2.00,-5.00,-4.00,+0.00,-3.00,-10.00,+17.00,+16.00,+4.00,+3.00,+4.00,+3.00,+2.00,+9.00
-2.00,+17.00,+2.00,-2.00,+3.00,-3.00,+2.00,+7.00,-6.00,+5.00,+4.00,+3.00,+9.00,+0.00,+0.00,+1.00
+12.00,+41.00,+5.00,+2.00,+3.00,+1.00,+2.00,+4.00,+9.00,-13.00,-12.00,-9.00,-13.00,-3.00,-1.00,+0.00
-17.00,-13.00,+4.00,+2.00,-7.00,-3.00,-1.00,-3.00,-26.00,-20.00,-6.00,+0.00,-5.00,-2.00,-1.00,-6.00
-2.00,-9.00,-5.00,+4.00,+3.00,-1.00,-2.00,-1.00,-6.00,+0.00,+1.00,-2.00,+1.00,-3.00,-3.00,-8.00
-26.00,-47.00,-9.00,-5.00,-2.00,-2.00,-3.00,-10.00,+14.00,+15.00,+1.00,-2.00,-2.00,-1.00,-2.00,+4.00
+10.00,+47.00,+7.00,-3.00,-2.00,-1.00,-1.00,+3.00,-26.00,-27.00,-2.00,+1.00,+2.00,-1.00,+4.00,+5.00
-8.00,-12.00,-4.00,-1.00,-8.00,-2.00,-3.00,-4.00,-8.00,-2.00,-3.00,-8.00,-7.00,+1.00,+2.00,+2.00
-1.00,+5.00,+12.00,+5.00,+6.00,+1.00,+1.00,+4.00,+18.00,+8.00,-6.00,-1.00,-1.00,-3.00,-4.00,+2.00
+4.00,+5.00,-8.00,-7.00,-3.00,-4.00,-1.00,-4.00,+12.00,+11.00,+1.00,-1.00,-1.00,-1.00,+0.00,+3.00
-5.00,-41.00,+1.00,+3.00,+4.00,+1.00,-2.00,-5.00,-16.00,-26.00,-2.00,+1.00,-3.00,-2.00,-5.00,-17.00
-20.00,+70.00,+0.00,-6.00,+0.00,-3.00,-1.00,-11.00,+9.00,+23.00,+5.00,+4.00,+8.00,+1.00,-2.00,+4.00
+0.00,-44.00,-3.00,-3.00,-5.00,+1.00,-1.00,+4.00,-11.00,-7.00,-4.00,+2.00,+7.00,+2.00,+1.00,-2.00
-2.00,+8.00,+4.00,+2.00,+4.00,+3.00,-1.00,-4.00,+4.00,+4.00,-1.00,+0.00,-6.00,-1.00,+0.00,+0.00
-2.00,-13.00,-3.00,+1.00,-1.00,+0.00,+0.00,+3.00,+6.00,+5.00,-4.00,-3.00,-6.00,-1.00,+0.00,+4.00
-8.00,-15.00,-3.00,+0.00,+1.00,+1.00,+0.00,+1.00,-10.00,-13.00,+1.00,+6.00,+12.00,+0.00,-1.00,-5.00
-8.00,+0.00,-4.00,+0.00,+1.00,-2.00,-1.00,+3.00,-7.00,-6.00,-4.00,-6.00,-18.00,-2.00,-2.00,-5.00
+5.00,+19.00,+6.00,-1.00,-8.00,-1.00,-1.00,-1.00,-16.00,-15.00,-2.00,+2.00,+7.00,+1.00,-1.00,-1.00
-2.00,+0.00,+0.00,-7.00,+12.00,+3.00,+0.00,-1.00,-32.00,-28.00,-8.00,-5.00,-2.00,+1.00,+1.00,+0.00
-1.00,-21.00,-6.00,-3.00,-12.00,-4.00,-4.00,+0.00,+39.00,+38.00,+9.00,+0.00,-9.00,-1.00,-1.00,+5.00
+2.00,-16.00,+6.00,+0.00,+2.00,-3.00,-1.00,-7.00,-17.00,-5.00,-2.00,-4.00,+7.00,+0.00,+0.00,-2.00
+4.00,+8.00,-3.00,+0.00,-3.00,-2.00,-1.00,+1.00,+3.00,+4.00,-4.00,-3.00,+1.00,-1.00,-1.00,-5.00
+24.00,+2.00,+5.00,+4.00,+3.00,-1.00,+3.00,+8.00,+9.00,+12.00,+7.00,+5.00,-9.00,-1.00,-1.00,-2.00
-55.00,+0.00,+6.00,-2.00,-7.00,+3.00,-1.00,-16.00,-16.00,-19.00,-2.00,+1.00,+6.00,+0.00,+0.00,-4.00
+5.00,-34.00,-16.00,-5.00,+2.00,-1.00,+0.00,+1.00,+6.00,-6.00,-6.00,-6.00,-16.00,-3.00,+1.00,+4.00
+1.00,+0.00,+3.00,+0.00,-3.00,-3.00,-3.00,+3.00,+3.00,+2.00,+4.00,+2.00,+2.00,+1.00,+0.00,+0.00
-4.00,-26.00,-4.00,+0.00,-3.00,-1.00,-2.00,+0.00,+1.00,+6.00,+2.00,+1.00,+2.00,-1.00,-2.00,-5.00
+16.00,+16.00,-3.00,+1.00,+7.00,-1.00,-1.00,+1.00,-13.00,-17.00,-8.00,-1.00,-5.00,-4.00,-2.00,-5.00
-5.00,+11.00,+3.00,+0.00,+0.00,+2.00,-1.00,+0.00,+2.00,-11.00,-3.00,-2.00,+4.00,+1.00,-2.00,-1.00
-11.00,-2.00,-1.00,-2.00,+3.00,+2.00,-1.00,-4.00,+1.00,+21.00,-5.00,+0.00,-2.00,-1.00,-2.00,-9.00
-11.00,+3.00,-5.00,-2.00,-5.00,-2.00,-1.00,+10.00,+21.00,+19.00,+5.00,-1.00,-1.00,-2.00,+1.00,+19.00
+5.00,-17.00,-2.00,-1.00,+2.00,-1.00,-1.00,+3.00,-28.00,-24.00,+3.00,-1.00,-5.00,-2.00,-3.00,-9.00
-3.00,+12.00,+1.00,+0.00,+6.00,+0.00,-2.00,-3.00,+1.00,+0.00,+0.00,+3.00,+2.00,+1.00,+1.00,+3.00
+16.00,+17.00,+1.00,+4.00,-4.00,-3.00,+0.00,+5.00,+7.00,+5.00,+1.00,-4.00,-4.00,-3.00,-3.00,+2.00
+10.00,-1.00,+5.00,+9.00,-3.00,+0.00,+1.00,+0.00,-5.00,-8.00,-7.00,-5.00,+3.00,-2.00,-3.00,-7.00
+0.00,+11.00,-1.00,-12.00,-5.00,-5.00,-1.00,-5.00,+0.00,+0.00,-1.00,+1.00,-2.00,+1.00,+1.00,+0.00
+18.00,+20.00,-13.00,-17.00,-6.00,-2.00,-1.00,+5.00,-5.00,-6.00,-4.00,-2.00,-2.00,-1.00,-2.00,-3.00
-13.00,-23.00,-4.00,-2.00,+2.00,-1.00,+1.00,+3.00,-6.00,-7.00,-2.00,-2.00,+10.00,-1.00,+2.00,+7.00
-8.00,+4.00,-4.00,-2.00,-5.00,-1.00,-3.00,-5.00,+3.00,+6.00,+0.00,-2.00,-18.00,-3.00,+0.00,-2.00
-2.00,-53.00,-7.00,+6.00,+4.00,+1.00,+0.00,+1.00,-12.00,-15.00,-2.00,-3.00,-3.00,-2.00,-1.00,-5.00
+13.00,+58.00,+16.00,+8.00,+4.00,+2.00,+2.00,+2.00,-2.00,+2.00,-2.00,-1.00,+2.00,+0.00,-1.00,-2.00
+25.00,+1.00,-2.00,-1.00,+4.00,+2.00,+1.00,+3.00,+7.00,+3.00,-1.00,-1.00,+3.00,+0.00,+0.00,+7.00
-17.00,-3.00,-2.00,+0.00,-5.00,-2.00,-3.00,-16.00,+2.00,+1.00,+1.00,+0.00,-2.00,+0.00,+1.00,-3.00
+3.00,-19.00,-7.00,-3.00,+0.00,-1.00,+0.00,+8.00,+2.00,-10.00,-2.00,+2.00,+8.00,+0.00,-2.00,-2.00
-6.00,-8.00,-3.00,-1.00,-2.00,-3.00,-3.00,-4.00,-1.00,+23.00,+5.00,-4.00,-19.00,-6.00,-4.00,-6.00
+7.00,+20.00,+2.00,+4.00,+1.00,+2.00,-1.00,-1.00,+1.00,-14.00,-3.00,-1.00,-2.00,-2.00,-1.00,+0.00
-3.00,-14.00,+0.00,-2.00,+2.00,-1.00,+0.00,-5.00,-13.00,-6.00,+1.00,-3.00,-4.00,-1.00,-1.00,+2.00
+3.00,-2.00,-5.00,-2.00,-8.00,-1.00,+0.00,-3.00,+24.00,+13.00,+3.00,+2.00,+4.00,-1.00,+1.00,+1.00
-8.00,-16.00,+3.00,+3.00,+8.00,+4.00,+1.00,+0.00,-18.00,-19.00,-5.00,-1.00,+7.00,+1.00,-2.00,-10.00
-8.00,-2.00,-2.00,-6.00,+0.00,-3.00,-4.00,-4.00,+16.00,-5.00,+0.00,-2.00,-3.00,-2.00,+1.00,+10.00
+14.00,+11.00,+1.00,+3.00,+0.00,+0.00,+0.00,+6.00,+6.00,+18.00,+0.00,-2.00,+1.00,-1.00,-3.00,-4.00
-20.00,+27.00,+2.00,-3.00,-1.00,-3.00,-5.00,-10.00,-11.00,+6.00,+4.00,+1.00,-7.00,-3.00,-3.00,-3.00
-2.00,-33.00,-9.00,-10.00,-10.00,-4.00,-1.00,+1.00,+5.00,-2.00,-1.00,+1.00,+4.00,+0.00,-1.00,+3.00
-3.00,+24.00,-8.00,-5.00,-6.00,-5.00,-1.00,-3.00,-7.00,-5.00,+1.00,+0.00,-6.00,-3.00,-2.00,-8.00
-6.00,-26.00,+2.00,+2.00,+0.00,+1.00,+1.00,-1.00,-9.00,-14.00,-5.00,+1.00,+2.00,+0.00,+0.00,-10.00
+16.00,+20.00,+1.00,+6.00,-1.00,-1.00,+1.00,+2.00,+3.00,+2.00,-3.00,-2.00,+0.00,+0.00,+1.00,+4.00
-9.00,+3.00,+13.00,+9.00,+2.00,+1.00,+0.00,-2.00,+2.00,+0.00,+1.00,+3.00,+2.00,+0.00,+0.00,+4.00
-15.00,-3.00,-11.00,-9.00,-1.00,-1.00,-2.00,-1.00,-10.00,-7.00,-3.00,+1.00,+0.00,+0.00,-2.00,-5.00
-7.00,-15.00,-2.00,-3.00,+0.00,-2.00,-1.00,-1.00,+5.00,+7.00,-1.00,-3.00,-1.00,-5.00,-5.00,-8.00
+6.00,+22.00,-3.00,+1.00,+1.00,+0.00,+2.00,+3.00,+5.00,+7.00,-2.00,-1.00,+4.00,+1.00,+2.00,+4.00
+0.00,-1.00,-4.00,+1.00,-3.00,-3.00,-2.00,-2.00,-3.00,-9.00,-2.00,-2.00,-14.00,-1.00,+0.00,+0.00
+3.00,-15.00,+6.00,+3.00,+2.00,+2.00,+0.00,-2.00,+4.00,+4.00,-1.00,-2.00,-3.00,-1.00,-1.00,-1.00
-3.00,+23.00,+0.00,-2.00,-3.00,-1.00,+0.00,+1.00,+7.00,+15.00,-1.00,-1.00,+6.00,-1.00,-1.00,-4.00
+25.00,-14.00,-5.00,-3.00,-2.00,-3.00,-4.00,+8.00,-20.00,-22.00,+0.00,-4.00,-11.00,-2.00,-2.00,-7.00
-6.00,-12.00,-2.00,+0.00,+0.00,+0.00,+0.00,-6.00,+21.00,+17.00,+2.00,+2.00,+8.00,+1.00,+3.00,+14.00
+9.00,+38.00,+6.00,+4.00,+3.00,+0.00,-1.00,+4.00,-4.00,-1.00,+2.00,+2.00,+4.00,+1.00,-1.00,-1.00
-7.00,-24.00,-3.00,+2.00,-5.00,-1.00,-1.00,-2.00,-2.00,-3.00,+1.00,-3.00,-8.00,-1.00,+0.00,-2.00
+4.00,-5.00,+9.00,+1.00,+1.00,+2.00,+0.00,+1.00,+2.00,+2.00,-8.00,-4.00,-4.00,-1.00,-3.00,-5.00
-6.00,-3.00,-14.00,-12.00,-6.00,-3.00,-3.00,-3.00,-7.00,-6.00,-3.00,+0.00,+8.00,+0.00,+0.00,-2.00
-12.00,-33.00,+6.00,+7.00,-2.00,-3.00,+1.00,-4.00,-4.00,-16.00,-2.00,-4.00,-9.00,-2.00,-2.00,-1.00
+3.00,+3.00,-7.00,-6.00,+1.00,+3.00,+0.00,+2.00,+1.00,+16.00,+3.00,+0.00,+6.00,-2.00,-1.00,-1.00
-2.00,-4.00,+1.00,+0.00,+0.00,+1.00,+1.00,+1.00,-1.00,-5.00,-5.00,-2.00,-2.00,-2.00,-2.00,-1.00
-2.00,+6.00,+7.00,+1.00,-1.00,-2.00,-2.00,+1.00,-1.00,-5.00,-2.00,+4.00,+6.00,-2.00,-1.00,-3.00
-4.00,+23.00,+1.00,+0.00,+4.00,-1.00,-2.00,-4.00,-2.00,+6.00,+2.00,+1.00,+0.00,-1.00,-2.00,-3.00
+3.00,+15.00,+2.00,+1.00,-4.00,+0.00,-1.00,-2.00,-8.00,-21.00,-12.00,-7.00,-3.00,-1.00,-2.00,+1.00
-3.00,-13.00,-4.00,-1.00,+1.00,-2.00,-1.00,-2.00,+2.00,+4.00,+6.00,+1.00,-1.00,+0.00,+0.00,+4.00
+0.00,-9.00,+2.00,+2.00,-2.00,-1.00,+0.00,-1.00,-3.00,-3.00,+3.00,-3.00,-2.00,-2.00,-3.00,-5.00
+3.00,-9.00,-1.00,+2.00,-2.00,+0.00,+2.00,+1.00,+2.00,+13.00,+4.00,-1.00,-5.00,-2.00,-5.00,-5.00
-6.00,+2.00,+3.00,+3.00,+3.00,-1.00,-2.00,-1.00,+1.00,-3.00,-1.00,+1.00,+1.00,+1.00,+3.00,+3.00
+1.00,+11.00,-2.00,-1.00,+1.00,+1.00,+0.00,+0.00,+6.00,+8.00,-9.00,-4.00,-2.00,-2.00,-2.00,+2.00
