-4.00,-1.00,-2.00,+1.00,-3.00,-1.00,-1.00,-1.00,+1.00,+2.00,+3.00,+0.00,+0.00,-1.00,-1.00,-3.00
-1.00,+0.00,+0.00,+0.00,-1.00,-3.00,+0.00,-1.00,-3.00,-3.00,-2.00,-1.00,+0.00,-2.00,-3.00,-2.00
-5.00,-2.00,-1.00,-4.00,-2.00,-1.00,-2.00,-11.00,-2.00,-3.00,-3.00,+0.00,+0.00,+0.00,-3.00,-3.00
-5.00,-3.00,-2.00,-1.00,+1.00,+4.00,-2.00,-5.00,-2.00,+0.00,+1.00,+0.00,-2.00,-1.00,+1.00,+2.00
-1.00,-3.00,-2.00,-2.00,+1.00,+0.00,-2.00,+0.00,-2.00,+0.00,+0.00,-2.00,-1.00,-1.00,+1.00,-2.00
+0.00,-1.00,-2.00,-1.00,-1.00,-4.00,-5.00,+2.00,-3.00,-2.00,-1.00,+0.00,-2.00,-1.00,-2.00,-5.00
+1.00,+0.00,-2.00,-2.00,+1.00,-4.00,+1.00,-3.00,+0.00,+1.00,+0.00,+0.00,+1.00,+5.00,+5.00,+6.00
+4.00,-1.00,+1.00,-2.00,+1.00,+9.00,+3.00,+12.00,+1.00,+2.00,+0.00,+2.00,-4.00,-3.00,-2.00,+1.00
-4.00,-5.00,-2.00,-2.00,+1.00,+0.00,+0.00,-2.00,-4.00,-2.00,-1.00,-1.00,-2.00,-2.00,-3.00,-5.00
+1.00,-1.00,-1.00,-1.00,+1.00,+2.00,+3.00,-9.00,+0.00,-3.00,-1.00,-1.00,-4.00,-3.00,-1.00,+1.00
-6.00,-1.00,-3.00,+0.00,-4.00,-3.00,-3.00,-5.00,-1.00,+0.00,+0.00,+0.00,+0.00,+1.00,+3.00,-3.00
-2.00,+0.00,+1.00,+0.00,-2.00,-5.00,-1.00,+1.00,+3.00,-5.00,-5.00,-2.00,+2.00,+3.00,+2.00,+2.00
+2.00,-4.00,-1.00,-2.00,-1.00,+0.00,-3.00,+2.00,+3.00,+1.00,-1.00,-1.00,-2.00,-2.00,-1.00,+2.00
+5.00,+1.00,+2.00,+2.00,+3.00,+0.00,+1.00,+1.00,-1.00,-4.00,+0.00,+1.00,-3.00,+0.00,-1.00,-1.00
-2.00,+0.00,+0.00,-1.00,-2.00,-3.00,-2.00,+5.00,+1.00,+2.00,-1.00,-3.00,+0.00,+0.00,-1.00,+0.00
-1.00,-3.00,-3.00,-2.00,+1.00,+1.00,+0.00,-3.00,-3.00,-1.00,+0.00,+0.00,+0.00,+0.00,+0.00,+0.00
-1.00,-1.00,-1.00,+1.00,-1.00,-1.00,-1.00,-2.00,-2.00,-1.00,+0.00,+0.00,+0.00,-2.00,-3.00,-1.00
-2.00,+0.00,+0.00,+1.00,-2.00,-2.00,+1.00,+7.00,+0.00,-1.00,-3.00,+0.00,+3.00,+1.00,-1.00,+2.00
+5.00,+0.00,+1.00,+1.00,-1.00,+1.00,-1.00,-6.00,-1.00,-2.00,-1.00,+0.00,-1.00,-2.00,-6.00,-7.00
-3.00,-1.00,-1.00,-2.00,-1.00,-5.00,-3.00,+0.00,-1.00,-1.00,-3.00,-5.00,-2.00,-3.00,+2.00,+1.00
+2.00,+1.00,-1.00,-1.00,+1.00,+0.00,-3.00,-5.00,+1.00,-2.00,-1.00,+0.00,+1.00,+0.00,-2.00,-1.00
-2.00,-4.00,+0.00,-3.00,-2.00,+1.00,+0.00,+3.00,+1.00,+0.00,+0.00,-1.00,-1.00,-1.00,-2.00,-3.00
-6.00,-3.00,-1.00,+0.00,+0.00,+2.00,+1.00,+0.00,-1.00,-2.00,-2.00,-2.00,-2.00,-2.00,-1.00,-1.00
+6.00,+1.00,+0.00,+0.00,-1.00,-4.00,+0.00,-2.00,+0.00,-1.00,-1.00,-1.00,+0.00,-1.00,+0.00,+0.00
-1.00,+0.00,+1.00,+0.00,-1.00,-3.00,-1.00,-3.00,-3.00,-4.00,-2.00,-1.00,+0.00,-2.00,-1.00,-4.00
+4.00,+0.00,-2.00,+0.00,-3.00,+0.00,-1.00,-2.00,+1.00,+4.00,-1.00,-1.00,-3.00,-2.00,-3.00,-2.00
-2.00,-3.00,-1.00,-1.00,-1.00,-1.00,-1.00,+6.00,-1.00,-2.00,-3.00,+2.00,-1.00,+0.00,+1.00,-1.00
-4.00,-4.00,-3.00,-2.00,-1.00,-1.00,+0.00,-2.00,-2.00,-3.00,+0.00,-1.00,-1.00,+0.00,-4.00,-4.00
-3.00,-1.00,-1.00,+0.00,-2.00,-2.00,+1.00,+2.00,-5.00,-2.00,-2.00,-1.00,-1.00,-1.00,-2.00,+0.00
-1.00,+1.00,+0.00,-3.00,+1.00,-1.00,-1.00,-2.00,-2.00,-3.00,+0.00,+2.00,+0.00,+0.00,+3.00,+1.00
+6.00,+1.00,+2.00,-1.00,-1.00,+0.00,+0.00,-9.00,+1.00,-2.00,-3.00,-5.00,-3.00,-4.00,-3.00,-2.00
+4.00,+1.00,+0.00,-1.00,-1.00,-2.00,+0.00,+12.00,+3.00,+4.00,-2.00,-2.00,-2.00,+0.00,+0.00,+1.00
+2.00,+0.00,-3.00,-2.00,+1.00,+0.00,+1.00,+4.00,-5.00,-3.00,-2.00,-1.00,-2.00,-1.00,+0.00,+1.00
-5.00,-1.00,+0.00,+2.00,+0.00,+0.00,-3.00,+2.00,-1.00,-1.00,+0.00,-3.00,+0.00,-1.00,+0.00,-2.00
+5.00,-1.00,-3.00,-1.00,+0.00,+0.00,-3.00,-3.00,-2.00,+0.00,-1.00,+0.00,+0.00,+1.00,+1.00,-1.00
-5.00,+1.00,-1.00,-1.00,+1.00,+1.00,+0.00,-2.00,-1.00,-3.00,+0.00,-1.00,-2.00,-1.00,-2.00,-6.00
-6.00,-4.00,-2.00,-2.00,-3.00,+0.00,-3.00,-6.00,+5.00,+2.00,+1.00,-1.00,-1.00,+0.00,+3.00,+10.00
+0.00,+1.00,+2.00,+1.00,+1.00,-2.00,-1.00,+3.00,-4.00,-5.00,-3.00,+1.00,-2.00,-4.00,-3.00,-5.00
-3.00,-2.00,-1.00,+0.00,-1.00,-2.00,+0.00,+7.00,-3.00,+1.00,-1.00,+1.00,+1.00,-3.00,+0.00,+2.00
-2.00,-2.00,+0.00,+0.00,-1.00,-1.00,-4.00,-5.00,-4.00,-1.00,-1.00,-2.00,+1.00,+1.00,-2.00,-3.00
-3.00,-3.00,-1.00,-1.00,+0.00,+0.00,+1.00,+2.00,+0.00,+0.00,-1.00,-1.00,-3.00,-2.00,-3.00,-3.00
-4.00,-1.00,-2.00,-3.00,+0.00,-3.00,-1.00,-2.00,-3.00,-1.00,-1.00,-2.00,+0.00,-1.00,-2.00,-6.00
-3.00,+0.00,-2.00,+0.00,-1.00,+1.00,+0.00,-2.00,-1.00,-2.00,-1.00,-2.00,-2.00,+0.00,+0.00,+2.00
-5.00,+0.00,-2.00,-1.00,-2.00,-2.00,+0.00,-1.00,+0.00,-3.00,-2.00,+1.00,+2.00,+0.00,+2.00,+3.00
+2.00,-1.00,-2.00,-2.00,+0.00,+0.00,-1.00,-5.00,+0.00,+2.00,+1.00,+0.00,-2.00,+0.00,-3.00,-4.00
-3.00,-4.00,+0.00,-2.00,+0.00,+0.00,-2.00,+2.00,-2.00,+0.00,+0.00,-1.00,-2.00,-1.00,-1.00,-4.00
-5.00,-2.00,-1.00,-1.00,-3.00,-2.00,-2.00,-19.00,+0.00,-2.00,+0.00,+0.00,+0.00,-1.00,+0.00,+0.00
+5.00,-3.00,-2.00,+0.00,-3.00,-1.00,+0.00,-1.00,-5.00,-2.00,+0.00,+0.00,+0.00,-2.00,+0.00,-2.00
-2.00,+0.00,+2.00,-1.00,+0.00,+0.00,-1.00,+0.00,-2.00,-1.00,+1.00,-2.00,-1.00,+0.00,-1.00,-3.00
+0.00,+1.00,-2.00,-3.00,+0.00,+0.00,+1.00,-2.00,+6.00,-2.00,-3.00,-4.00,-2.00,-1.00,+1.00,+5.00
-4.00,-1.00,+0.00,-2.00,+0.00,-3.00,-1.00,+11.00,+2.00,+4.00,+1.00,+0.00,+0.00,-2.00,-3.00,-1.00
-3.00,-2.00,+0.00,+0.00,-1.00,-2.00,-2.00,-2.00,-2.00,+0.00,+0.00,+1.00,+0.00,-3.00,-2.00,+1.00
+3.00,-1.00,+0.00,+1.00,+1.00,-1.00,-2.00,-1.00,-2.00,-1.00,+0.00,+2.00,+1.00,+0.00,+0.00,-4.00
-4.00,-7.00,-2.00,-2.00,-1.00,+0.00,-2.00,+3.00,-3.00,-2.00,-2.00,+0.00,-3.00,-2.00,-5.00,-7.00
+5.00,+8.00,-1.00,-1.00,-1.00,+1.00,+0.00,+1.00,-5.00,-6.00,-2.00,+0.00,-1.00,+1.00,-1.00,-2.00
+2.00,+1.00,+2.00,-1.00,-1.00,-1.00,+1.00,-2.00,+2.00,+2.00,+0.00,+1.00,-2.00,-1.00,-3.00,+3.00
+6.00,+0.00,+0.00,-3.00,-2.00,-1.00,-1.00,+1.00,+0.00,+1.00,-1.00,-3.00,-2.00,-3.00,-6.00,-9.00
+1.00,-2.00,-3.00,-1.00,-1.00,-1.00,+0.00,-5.00,+0.00,-1.00,+0.00,-1.00,+2.00,+2.00,+3.00,+7.00
-4.00,-3.00,+0.00,-2.00,+1.00,+1.00,+0.00,+4.00,-1.00,-1.00,-2.00,-1.00,-3.00,+0.00,-1.00,-4.00
-5.00,-2.00,-2.00,-1.00,+0.00,+0.00,-3.00,-9.00,+0.00,-2.00,-3.00,-5.00,-1.00,-2.00,-1.00,+0.00
-6.00,-4.00,+0.00,+1.00,-1.00,-2.00,-2.00,-4.00,+1.00,-3.00,+0.00,-2.00,-1.00,+0.00,+0.00,-5.00
+7.00,-9.00,+1.00,+0.00,-1.00,+0.00,-1.00,+2.00,+0.00,+3.00,+0.00,+0.00,-3.00,-2.00,-2.00,+2.00
+8.00,+3.00,+0.00,-2.00,-2.00,-2.00,+0.00,+0.00,-8.00,-4.00,-1.00,-1.00,-1.00,-1.00,-1.00,-1.00
+1.00,+9.00,-2.00,-4.00,-2.00,-1.00,-1.00,+7.00,+2.00,+3.00,-2.00,+0.00,-2.00,-2.00,-1.00,-2.00
-2.00,+2.00,+0.00,-1.00,+2.00,+2.00,-1.00,-3.00,-4.00,-4.00,-3.00,-1.00,-1.00,+0.00,+1.00,+3.00
-2.00,+0.00,-3.00,-4.00,-3.00,-3.00,+0.00,+3.00,+4.00,+0.00,-1.00,+0.00,-1.00,-2.00,-3.00,-1.00
-6.00,-10.00,-1.00,+0.00,-2.00,+0.00,+2.00,+4.00,-1.00,+0.00,+0.00,+0.00,-2.00,+0.00,-1.00,+2.00
+1.00,-3.00,+1.00,+0.00,+3.00,+2.00,-2.00,-1.00,-4.00,-3.00,+0.00,+0.00,+5.00,+0.00,-2.00,-4.00
-3.00,-2.00,-2.00,+0.00,-1.00,+1.00,+1.00,-2.00,+1.00,-1.00,-1.00,-1.00,-5.00,-1.00,+0.00,+3.00
-10.00,-1.00,+0.00,+1.00,-3.00,-1.00,-4.00,-3.00,-9.00,-6.00,-1.00,-2.00,-1.00,+0.00,+2.00,-3.00
-1.00,+1.00,+1.00,+0.00,-1.00,-1.00,-2.00,-5.00,+2.00,+1.00,-1.00,-2.00,-1.00,-1.00,-1.00,+0.00
-7.00,+0.00,-1.00,-1.00,-3.00,-2.00,+0.00,+8.00,+2.00,-3.00,-1.00,-1.00,-3.00,-1.00,-2.00,-1.00
+1.00,+1.00,-1.00,-1.00,-1.00,-1.00,+0.00,+0.00,-3.00,+0.00,-3.00,-2.00,+1.00,-1.00,-1.00,-1.00
-1.00,+1.00,+0.00,+0.00,+3.00,+0.00,+0.00,+2.00,-1.00,+2.00,+1.00,+0.00,+0.00,+0.00,-2.00,-5.00
+0.00,-1.00,+1.00,+0.00,+1.00,-1.00,-2.00,+0.00,-4.00,-2.00,-3.00,-2.00,+0.00,-1.00,+0.00,-1.00
-2.00,+2.00,+0.00,+0.00,+1.00,+0.00,-3.00,-9.00,-2.00,-5.00,-1.00,+0.00,-4.00,-2.00,+0.00,+0.00
-1.00,-3.00,-2.00,-2.00,-3.00,+2.00,-1.00,-1.00,+3.00,+6.00,+3.00,-1.00,-1.00,-1.00,-1.00,-2.00
+0.00,+3.00,+0.00,+0.00,+0.00,+0.00,-1.00,+1.00,-3.00,-2.00,-1.00,-1.00,-1.00,-1.00,-2.00,+4.00
-4.00,-5.00,-3.00,+1.00,+0.00,-1.00,-2.00,-1.00,+3.00,+0.00,+0.00,+0.00,-2.00,-2.00,-1.00,-1.00
+0.00,-5.00,+0.00,+2.00,+0.00,-2.00,-4.00,-6.00,-2.00,+0.00,-1.00,+0.00,+1.00,+0.00,+0.00,+1.00
+0.00,-1.00,-1.00,+0.00,+1.00,+0.00,-1.00,+0.00,-6.00,-5.00,-1.00,-1.00,+0.00,-1.00,-1.00,-4.00
+1.00,+2.00,-1.00,+0.00,-1.00,+1.00,-1.00,-5.00,-2.00,-1.00,-3.00,+0.00,-1.00,-1.00,+0.00,+0.00
+9.00,+0.00,-1.00,-2.00,+1.00,-1.00,-2.00,-6.00,+4.00,+1.00,+0.00,-1.00,+0.00,-2.00,-6.00,-4.00
-1.00,-3.00,+0.00,-1.00,+1.00,-1.00,+0.00,+0.00,-1.00,+0.00,-2.00,-1.00,-2.00,-1.00,+1.00,+0.00
-3.00,+3.00,+2.00,+2.00,-4.00,-2.00,-1.00,+4.00,+2.00,+0.00,-1.00,+0.00,+1.00,+0.00,+0.00,+4.00
-4.00,-1.00,-2.00,+0.00,+2.00,+1.00,+0.00,-5.00,-2.00,-2.00,-1.00,-3.00,+2.00,-1.00,-2.00,-4.00
-4.00,+1.00,+1.00,+3.00,+2.00,-1.00,-1.00,-4.00,-3.00,-3.00,-6.00,-4.00,-5.00,-3.00,-2.00,-4.00
-7.00,-5.00,-4.00,-2.00,-3.00,+0.00,+2.00,+1.00,-3.00,-1.00,+0.00,-1.00,-3.00,-1.00,-4.00,-7.00
+2.00,+1.00,-2.00,-3.00,-1.00,-4.00,-2.00,-3.00,+3.00,-2.00,-2.00,+0.00,+2.00,-2.00,+1.00,-1.00
+3.00,-17.00,-2.00,-1.00,-2.00,+0.00,+1.00,-2.00,+3.00,+2.00,+1.00,-1.00,+0.00,-1.00,-4.00,+0.00
+5.00,+11.00,+1.00,-4.00,-2.00,+0.00,-2.00,-14.00,-17.00,-4.00,+0.00,+2.00,+1.00,-2.00,-1.00,-3.00
-1.00,+2.00,-1.00,+0.00,-1.00,+2.00,-1.00,-5.00,+1.00,+1.00,-1.00,-1.00,-2.00,-2.00,-1.00,-1.00
-4.00,-9.00,-1.00,+0.00,+0.00,-1.00,+0.00,+1.00,+9.00,+3.00,+0.00,+0.00,+0.00,+0.00,+1.00,+2.00
+3.00,+4.00,-2.00,-1.00,-1.00,-1.00,+2.00,+1.00,-3.00,+0.00,+0.00,-2.00,-1.00,-1.00,-4.00,-5.00
-5.00,-11.00,-3.00,-1.00,+0.00,+0.00,+0.00,+7.00,+4.00,+2.00,+1.00,+0.00,-1.00,+0.00,-2.00,-2.00
-1.00,+2.00,-2.00,+0.00,-1.00,+0.00,-3.00,-6.00,-7.00,-2.00,-2.00,-2.00,-3.00,+0.00,-3.00,-1.00
-2.00,-5.00,-1.00,-1.00,+1.00,+0.00,+0.00,-4.00,-5.00,-3.00,-3.00,-1.00,-1.00,+0.00,-1.00,+1.00
-3.00,-1.00,+1.00,+0.00,-2.00,-2.00,-3.00,+3.00,+2.00,-2.00,-2.00,-1.00,-1.00,-2.00,-3.00,-5.00
-2.00,-6.00,-2.00,-2.00,-2.00,+0.00,+2.00,+12.00,+2.00,+3.00,+0.00,+0.00,+0.00,-1.00,+2.00,+2.00
+1.00,-1.00,-1.00,+0.00,-1.00,-3.00,+0.00,+2.00,-3.00,-3.00,-2.00,+0.00,-2.00,-2.00,+0.00,-4.00
+3.00,+4.00,+2.00,+0.00,-1.00,-1.00,-4.00,-5.00,+0.00,+2.00,+1.00,+0.00,+0.00,+0.00,-2.00,+3.00
-2.00,-1.00,-1.00,-1.00,+0.00,-1.00,+0.00,+6.00,-5.00,-3.00,-2.00,-2.00,-3.00,-1.00,-1.00,-3.00
-6.00,+3.00,+0.00,-1.00,+0.00,-1.00,+1.00,+12.00,+0.00,-5.00,+0.00,-1.00,+0.00,-1.00,-1.00,+0.00
-1.00,-4.00,-1.00,-1.00,+2.00,-1.00,-1.00,-9.00,-1.00,-2.00,-3.00,-5.00,-1.00,-1.00,+3.00,+5.00
-1.00,+3.00,-1.00,-3.00,+1.00,-3.00,+0.00,-3.00,-1.00,-2.00,-2.00,-2.00,-2.00,-1.00,+1.00,+6.00
-1.00,+2.00,-1.00,-1.00,-1.00,+1.00,+0.00,-2.00,-2.00,-2.00,-1.00,-1.00,-2.00,+0.00,+0.00,+0.00
-1.00,+1.00,-1.00,+0.00,-2.00,-2.00,-1.00,-3.00,-1.00,-4.00,-1.00,-1.00,+0.00,+1.00,+0.00,-3.00
+2.00,-4.00,-2.00,-1.00,-1.00,+1.00,+0.00,+8.00,+3.00,+1.00,+0.00,+1.00,+2.00,-1.00,-1.00,+0.00
-1.00,-5.00,-1.00,-1.00,-1.00,+0.00,-1.00,-3.00,-3.00,-1.00,-1.00,-2.00,-2.00,-1.00,-2.00,-5.00
-3.00,+4.00,+0.00,+0.00,-2.00,-1.00,+0.00,-3.00,-2.00,-3.00,-1.00,-1.00,+1.00,-1.00,-2.00,+1.00
-8.00,-3.00,-1.00,-2.00,+0.00,-1.00,+0.00,+2.00,+2.00,+1.00,-4.00,-3.00,-3.00,-1.00,-1.00,-2.00
-3.00,-1.00,+0.00,+0.00,-3.00,-6.00,-2.00,-7.00,+1.00,+0.00,+0.00,+0.00,-2.00,-1.00,-2.00,-1.00
+2.00,+2.00,-1.00,-1.00,-2.00,-1.00,+1.00,+5.00,-3.00,-3.00,-2.00,+0.00,+0.00,+0.00,-2.00,-4.00
-1.00,+4.00,+1.00,+1.00,-1.00,+0.00,-2.00,-1.00,-1.00,+1.00,-1.00,+0.00,-1.00,-1.00,-1.00,-2.00
+0.00,-4.00,-2.00,+0.00,+1.00,-1.00,-5.00,-10.00,+4.00,+1.00,-1.00,-2.00,+2.00,-1.00,+0.00,+1.00
+4.00,-9.00,-4.00,-3.00,-2.00,-2.00,+1.00,-7.00,-1.00,+0.00,+1.00,+0.00,-1.00,-3.00,-4.00,-6.00
+2.00,+7.00,+0.00,+0.00,+2.00,+1.00,+0.00,+9.00,-10.00,-4.00,-2.00,-1.00,-1.00,-1.00,+0.00,+1.00
+7.00,+3.00,-2.00,-3.00,+1.00,-1.00,+1.00,+14.00,-4.00,-2.00,+1.00,+1.00,-1.00,+0.00,+2.00,+0.00
-1.00,+1.00,+1.00,-1.00,-1.00,-1.00,-2.00,-8.00,+5.00,-2.00,-1.00,+0.00,-2.00,+0.00,+3.00,+11.00
-4.00,-8.00,+0.00,-1.00,+2.00,+1.00,-2.00,-3.00,+6.00,+3.00,-1.00,-2.00,-3.00,-3.00,+0.00,+1.00
-8.00,-43.00,-5.00,-1.00,-3.00,+0.00,-2.00,-1.00,+5.00,+0.00,+0.00,+0.00,-2.00,-2.00,-3.00,-5.00
+2.00,+34.00,+1.00,+0.00,+1.00,-1.00,+0.00,+2.00,-16.00,-8.00,-1.00,+0.00,-2.00,+2.00,-2.00,-4.00
+4.00,+12.00,+0.00,+0.00,-3.00,-2.00,-1.00,-2.00,-14.00,-8.00,-1.00,+0.00,-1.00,-1.00,+0.00,-2.00
+0.00,+1.00,-3.00,-3.00,-3.00,-1.00,+3.00,+8.00,-4.00,-3.00,+0.00,-2.00,+1.00,+2.00,+0.00,-2.00
-3.00,-3.00,+0.00,+0.00,+0.00,-2.00,-1.00,-1.00,+11.00,+5.00,+0.00,-2.00,-5.00,-1.00,-1.00,+2.00
-6.00,-27.00,-4.00,-1.00,-1.00,-1.00,-3.00,-1.00,+6.00,+5.00,+1.00,-3.00,+0.00,-3.00,-1.00,+1.00
+2.00,-3.00,+0.00,-2.00,+1.00,-1.00,+0.00,+0.00,-3.00,-1.00,+1.00,-1.00,-2.00,-1.00,-3.00,-7.00
-2.00,+7.00,+0.00,-1.00,-2.00,-2.00,-2.00,-1.00,+1.00,+1.00,-1.00,+0.00,-2.00,+1.00,-1.00,+1.00
+0.00,-1.00,-1.00,-2.00,-3.00,-2.00,+1.00,+1.00,-4.00,-1.00,-1.00,-2.00,-1.00,-3.00,-5.00,-7.00
-1.00,-2.00,-2.00,+0.00,-3.00,+0.00,-2.00,-9.00,+0.00,+0.00,-1.00,-2.00,+0.00,+1.00,+2.00,+4.00
-2.00,+4.00,+1.00,+0.00,+0.00,-1.00,-2.00,-5.00,+0.00,+0.00,+0.00,+0.00,+0.00,-2.00,-2.00,+1.00
-9.00,-3.00,+0.00,-1.00,-2.00,-1.00,-3.00,-4.00,-1.00,-1.00,+0.00,+0.00,+0.00,-2.00,-7.00,-9.00
+2.00,+8.00,+0.00,-1.00,+3.00,+0.00,-2.00,-4.00,-5.00,-3.00,-1.00,+0.00,-2.00,-1.00,-1.00,-3.00
-2.00,-3.00,-2.00,-2.00,-2.00,-1.00,-1.00,-4.00,+2.00,-1.00,+1.00,-1.00,+1.00,-2.00,-2.00,-1.00
-4.00,-8.00,-3.00,-2.00,-2.00,+0.00,+0.00,-1.00,-5.00,-2.00,-3.00,-3.00,+0.00,-1.00,-4.00,-11.00
+1.00,-1.00,-1.00,+2.00,-2.00,+0.00,-2.00,-1.00,+6.00,+1.00,-1.00,-1.00,+0.00,+0.00,+1.00,+6.00
-1.00,+0.00,-3.00,-1.00,-2.00,-1.00,+0.00,+0.00,-10.00,-4.00,-2.00,-1.00,-1.00,+0.00,-2.00,-5.00
+5.00,+14.00,+3.00,+1.00,+1.00,+0.00,+0.00,-4.00,+5.00,+0.00,-3.00,+0.00,-1.00,-1.00,+0.00,+3.00
-3.00,-7.00,-2.00,-1.00,-1.00,-1.00,-1.00,+0.00,+1.00,+4.00,+0.00,+0.00,+1.00,-2.00,-2.00,-1.00
+1.00,-3.00,-3.00,-1.00,+1.00,+0.00,+0.00,+1.00,-4.00,-3.00,-1.00,-2.00,-2.00,-1.00,-1.00,-3.00
-3.00,+3.00,-1.00,+0.00,-2.00,-1.00,-1.00,-6.00,+0.00,-3.00,+1.00,+1.00,+1.00,+0.00,+1.00,+1.00
-3.00,-13.00,-3.00,-2.00,+0.00,-1.00,-1.00,+1.00,-3.00,-2.00,-2.00,+1.00,-2.00,+0.00,-1.00,-3.00
-5.00,-6.00,+0.00,-1.00,+0.00,-2.00,-2.00,+0.00,+0.00,-2.00,-2.00,-2.00,-4.00,-2.00,-3.00,-2.00
+1.00,-19.00,+0.00,-3.00,+0.00,-2.00,+1.00,+19.00,-1.00,-4.00,+1.00,+0.00,-1.00,-3.00,-2.00,-5.00
+2.00,+36.00,+3.00,+1.00,+0.00,+0.00,-2.00,-6.00,-17.00,-9.00,-2.00,-1.00,+0.00,+0.00,+3.00,+8.00
+6.00,-4.00,+0.00,+0.00,+2.00,+0.00,-2.00,-14.00,+1.00,+1.00,+0.00,-1.00,+2.00,+0.00,-1.00,-1.00
-2.00,+2.00,-1.00,-3.00,-1.00,+0.00,+2.00,+2.00,-1.00,-2.00,-3.00,-1.00,-1.00,-1.00,+2.00,+2.00
+4.00,+1.00,-2.00,+0.00,-2.00,+0.00,-1.00,+0.00,-1.00,-3.00,+0.00,-2.00,-2.00,-1.00,+0.00,-1.00
-2.00,-9.00,+0.00,+0.00,+0.00,-1.00,-1.00,-1.00,+3.00,-1.00,-3.00,-4.00,+0.00,-1.00,-2.00,-5.00
-2.00,-7.00,-2.00,-2.00,-2.00,-1.00,+1.00,-2.00,-2.00,-1.00,+0.00,-1.00,-1.00,-2.00,-1.00,-3.00
-6.00,-15.00,-6.00,-1.00,-1.00,+0.00,-3.00,+3.00,+10.00,+4.00,-2.00,-1.00,-1.00,+0.00,+0.00,+4.00
+3.00,+14.00,+3.00,-2.00,+1.00,-2.00,-1.00,-4.00,-11.00,-3.00,-1.00,-1.00,-2.00,+0.00,+0.00,+0.00
+4.00,+18.00,+0.00,-1.00,-1.00,-1.00,-1.00,+1.00,+4.00,+0.00,+0.00,+0.00,-1.00,+1.00,+0.00,+2.00
-5.00,+2.00,-2.00,-2.00,-2.00,+0.00,-3.00,-2.00,-6.00,+0.00,-2.00,-2.00,-1.00,+0.00,-1.00,-3.00
-1.00,-9.00,-4.00,-1.00,+0.00,-1.00,-1.00,-1.00,-5.00,-3.00,+0.00,-3.00,-3.00,-1.00,-3.00,-3.00
+1.00,-11.00,+0.00,+0.00,+1.00,-1.00,+0.00,-1.00,+13.00,+9.00,+0.00,+0.00,-1.00,-1.00,-1.00,-2.00
-6.00,-1.00,-1.00,+1.00,-2.00,-1.00,-2.00,-5.00,+5.00,+2.00,-2.00,-1.00,+0.00,-1.00,-2.00,+2.00
-5.00,-3.00,-1.00,-2.00,-3.00,-3.00,+0.00,+2.00,+0.00,-2.00,-3.00,-1.00,-1.00,-1.00,-3.00,+1.00
-7.00,-12.00,-3.00,-2.00,-4.00,-1.00,+0.00,+15.00,+6.00,+4.00,+1.00,+0.00,+0.00,+0.00,-4.00,-4.00
+3.00,-1.00,+2.00,+1.00,+3.00,+0.00,-2.00,-14.00,-16.00,-11.00,-3.00,-4.00,-1.00,+1.00,+5.00,+4.00
-4.00,+7.00,-1.00,-1.00,+1.00,-1.00,+4.00,+23.00,-11.00,-3.00,+0.00,-1.00,-2.00,+0.00,-1.00,-2.00
-2.00,-4.00,-2.00,+0.00,-1.00,+0.00,+0.00,+1.00,+2.00,+1.00,-1.00,-1.00,-5.00,-1.00,-3.00,-1.00
+0.00,+6.00,+1.00,+0.00,-1.00,+0.00,-2.00,-8.00,-6.00,-7.00,-3.00,-1.00,-1.00,-1.00,+0.00,+0.00
-9.00,-10.00,-1.00,+0.00,-1.00,-1.00,-3.00,-4.00,+5.00,+6.00,+0.00,+0.00,+1.00,-1.00,-1.00,+0.00
+2.00,-16.00,-3.00,-2.00,-2.00,+0.00,-1.00,-4.00,+1.00,+0.00,-2.00,-1.00,-3.00,-2.00,-3.00,-8.00
-5.00,+1.00,-1.00,+0.00,+0.00,-1.00,-3.00,-2.00,-4.00,-3.00,-1.00,-1.00,+1.00,+0.00,+0.00,-1.00
+1.00,-4.00,+0.00,-2.00,+0.00,-1.00,+0.00,-2.00,+0.00,+1.00,+0.00,-1.00,-2.00,+0.00,+0.00,+2.00
+5.00,+10.00,+0.00,-1.00,-2.00,-1.00,+1.00,+1.00,-6.00,-6.00,-5.00,+0.00,-3.00,-1.00,-5.00,-2.00
-2.00,+6.00,-1.00,+0.00,-1.00,-1.00,-4.00,-12.00,+9.00,+1.00,-1.00,-1.00,+2.00,-1.00,-2.00,+0.00
-6.00,-14.00,-2.00,-1.00,-2.00,-2.00,+0.00,+3.00,+2.00,+1.00,-1.00,-1.00,-1.00,-1.00,+0.00,-4.00
+20.00,+32.00,+3.00,+2.00,+1.00,-1.00,-1.00,-7.00,-5.00,+1.00,+0.00,-2.00,+0.00,-3.00,+2.00,+3.00
+13.00,+0.00,-1.00,-2.00,-2.00,+1.00,+1.00,+21.00,-2.00,+1.00,+0.00,-2.00,-2.00,-1.00,-3.00,-4.00
-3.00,-7.00,+0.00,-1.00,+2.00,+2.00,-1.00,+2.00,+2.00,+1.00,-1.00,-1.00,-3.00,-1.00,+2.00,+4.00
-5.00,-3.00,-1.00,-1.00,-1.00,-1.00,+0.00,+1.00,-2.00,-4.00,-2.00,+1.00,-2.00,-1.00,-1.00,+0.00
-3.00,-7.00,+0.00,-2.00,-2.00,+0.00,+0.00,-8.00,+2.00,+0.00,+1.00,-1.00,-1.00,+1.00,+0.00,-1.00
-9.00,+3.00,-2.00,-1.00,-4.00,-2.00,+0.00,-6.00,-5.00,-1.00,-3.00,+0.00,+4.00,-1.00,-4.00,-4.00
-3.00,-4.00,-1.00,-1.00,-1.00,-2.00,-1.00,+7.00,-4.00,-1.00,-3.00,-2.00,-1.00,-2.00,-5.00,-6.00
+1.00,+3.00,-1.00,-1.00,-1.00,+0.00,-2.00,-4.00,+0.00,-2.00,+0.00,+0.00,-1.00,-2.00,+1.00,-1.00
-2.00,-1.00,+3.00,-1.00,+2.00,+0.00,+0.00,+0.00,-3.00,+0.00,-2.00,+0.00,+1.00,-1.00,-1.00,-2.00
-1.00,+7.00,-1.00,-1.00,-2.00,-1.00,+0.00,+1.00,-2.00,-1.00,-3.00,-2.00,-2.00,-3.00,-1.00,-1.00
-2.00,-14.00,-2.00,+0.00,+0.00,-1.00,-2.00,-6.00,+5.00,+3.00,+0.00,-2.00,-1.00,-3.00,-2.00,-2.00
+0.00,-1.00,-1.00,+0.00,-1.00,+0.00,+0.00,-6.00,-4.00,-3.00,-4.00,-2.00,-1.00,-2.00,+1.00,-2.00
+5.00,+9.00,-3.00,-1.00,-1.00,-1.00,+0.00,+8.00,-11.00,-9.00,-1.00,-1.00,-2.00,+0.00,-3.00,-7.00
-9.00,-9.00,-1.00,-2.00,+0.00,-1.00,-3.00,-10.00,+7.00,+5.00,-1.00,+0.00,-2.00,+0.00,+1.00,+2.00
+0.00,+1.00,+1.00,+0.00,-2.00,-3.00,-2.00,-7.00,-6.00,+0.00,-1.00,-2.00,-1.00,-1.00,-3.00,-5.00
-3.00,-16.00,+0.00,-1.00,+1.00,-2.00,-1.00,+6.00,-2.00,+0.00,-3.00,-3.00,+0.00,-2.00,+0.00,+2.00
-2.00,+5.00,-1.00,-1.00,-2.00,-2.00,-2.00,-14.00,-6.00,-5.00,-2.00,+1.00,-2.00,-3.00,+3.00,+1.00
+3.00,+8.00,+1.00,+1.00,-2.00,-1.00,-1.00,-2.00,-8.00,-4.00,+0.00,-2.00,-1.00,-1.00,-1.00,-2.00
+2.00,+5.00,-1.00,-4.00,+0.00,+1.00,+0.00,+2.00,-5.00,-3.00,+0.00,+1.00,+0.00,+1.00,+0.00,-3.00
-5.00,-5.00,-3.00,-1.00,+0.00,+0.00,-2.00,+4.00,+23.00,+7.00,+0.00,+1.00,-1.00,+0.00,+2.00,+6.00
-2.00,-18.00,-3.00,+1.00,+1.00,+0.00,-4.00,-11.00,+4.00,+2.00,-2.00,-2.00,-2.00,-2.00,-4.00,-4.00
-12.00,+14.00,+0.00,-1.00,-1.00,-1.00,+0.00,+15.00,-3.00,-4.00,+2.00,+0.00,-2.00,+0.00,-2.00,-5.00
+1.00,-1.00,-1.00,-2.00,-3.00,-2.00,-1.00,-6.00,-11.00,-3.00,-3.00,+0.00,-2.00,-3.00,+1.00,+0.00
+3.00,+5.00,+0.00,-1.00,-1.00,-2.00,-1.00,-5.00,-11.00,-6.00,-2.00,-1.00,-2.00,-3.00,-5.00,-5.00
+0.00,-5.00,-2.00,-1.00,+0.00,+1.00,-1.00,-8.00,+8.00,+3.00,-1.00,-2.00,+0.00,-1.00,-2.00,+1.00
+6.00,-5.00,-2.00,+1.00,+0.00,-1.00,+0.00,-5.00,-1.00,-2.00,+0.00,+0.00,-1.00,-1.00,+0.00,+1.00
+5.00,-6.00,-2.00,-5.00,-3.00,-1.00,+0.00,+3.00,-4.00,-8.00,-2.00,+0.00,-3.00,-1.00,+0.00,-2.00
+0.00,-3.00,-1.00,+0.00,+1.00,+2.00,+0.00,-3.00,+4.00,+0.00,+3.00,+1.00,+1.00,-1.00,+0.00,+0.00
+7.00,+18.00,-1.00,-1.00,-2.00,-3.00,-1.00,+8.00,-2.00,+4.00,-2.00,-4.00,-3.00,-1.00,+1.00,+1.00
-8.00,-13.00,-3.00,+0.00,+0.00,-3.00,-4.00,-6.00,+23.00,+9.00,-1.00,-5.00,-1.00,-2.00,+0.00,+4.00
+12.00,+37.00,+1.00,+1.00,+0.00,-1.00,+2.00,+14.00,-8.00,-7.00,-2.00,-1.00,-1.00,-1.00,-2.00,-4.00
-6.00,-7.00,-4.00,-1.00,-1.00,-5.00,-2.00,-9.00,-3.00,+2.00,-2.00,-2.00,-3.00,-2.00,-1.00,-1.00
+0.00,-4.00,+6.00,+2.00,+0.00,-3.00,+0.00,+5.00,+4.00,-5.00,-1.00,-1.00,+1.00,-1.00,-1.00,+0.00
-2.00,-5.00,+0.00,-1.00,-1.00,+0.00,+0.00,-6.00,-17.00,-5.00,+0.00,-1.00,-1.00,+1.00,-1.00,-2.00
-4.00,-14.00,-1.00,+0.00,-1.00,-1.00,-2.00,-2.00,-2.00,-3.00,-2.00,-2.00,-1.00,-1.00,+1.00,-4.00
-9.00,-5.00,-3.00,-2.00,+0.00,+1.00,+2.00,+1.00,+8.00,+1.00,-2.00,-2.00,-1.00,+0.00,-2.00,-2.00
-14.00,-23.00,-4.00,-3.00,-3.00,-3.00,+0.00,+0.00,+4.00,+2.00,-2.00,-1.00,-2.00,+0.00,-4.00,-2.00
+9.00,+24.00,+2.00,+0.00,-2.00,+0.00,-2.00,+5.00,-3.00,-3.00,-3.00,+1.00,-1.00,-4.00,-2.00,+0.00
-1.00,+19.00,+6.00,+2.00,+2.00,+0.00,+0.00,+4.00,-12.00,-1.00,+3.00,+0.00,+0.00,-2.00,-1.00,-1.00
-1.00,+6.00,+0.00,+0.00,-1.00,+0.00,+0.00,-3.00,-9.00,-2.00,+1.00,+0.00,+0.00,+1.00,-1.00,-2.00
-6.00,-10.00,-4.00,-1.00,-1.00,-2.00,-2.00,-2.00,-2.00,-4.00,-5.00,+0.00,-1.00,-1.00,-2.00,+0.00
-9.00,-1.00,-4.00,-4.00,-3.00,+0.00,-1.00,-2.00,+0.00,-21.00,-4.00,-3.00,-2.00,-1.00,-3.00,-4.00
+14.00,+16.00,+3.00,+1.00,+0.00,-2.00,+1.00,+0.00,+9.00,+9.00,-1.00,-1.00,+0.00,+0.00,-3.00,-4.00
+4.00,+5.00,+2.00,+2.00,-1.00,+0.00,+0.00,-1.00,+6.00,+18.00,+3.00,+0.00,-1.00,-1.00,+2.00,+3.00
-4.00,-6.00,+0.00,-1.00,-3.00,+0.00,+1.00,+3.00,+8.00,+7.00,+2.00,+0.00,+1.00,-1.00,-4.00,-2.00
-2.00,-18.00,-3.00,-1.00,-2.00,-1.00,-2.00,-6.00,-6.00,+2.00,+0.00,+0.00,-1.00,+0.00,+0.00,+2.00
+7.00,-2.00,-3.00,-2.00,+0.00,+0.00,-3.00,-13.00,-5.00,-12.00,-3.00,-3.00,-2.00,-1.00,-1.00,-3.00
-1.00,-6.00,-2.00,-4.00,+1.00,-3.00,+1.00,+3.00,-16.00,-10.00,-2.00,-3.00,-2.00,-1.00,-1.00,-5.00
+1.00,+1.00,-1.00,-1.00,+1.00,+0.00,-2.00,+0.00,+25.00,+6.00,+2.00,+1.00,+0.00,+1.00,+1.00,+2.00
+7.00,+6.00,-1.00,-1.00,+0.00,+0.00,+0.00,+2.00,-7.00,-3.00,-1.00,+0.00,+1.00,-1.00,+2.00,-1.00
-10.00,-18.00,-1.00,-1.00,-3.00,-2.00,-1.00,-7.00,+3.00,+5.00,+0.00,-2.00,-1.00,-1.00,+0.00,+0.00
+3.00,+10.00,+0.00,-2.00,-2.00,+1.00,-1.00,+3.00,-4.00,-7.00,-2.00,-1.00,+0.00,-1.00,-1.00,+1.00
+0.00,+2.00,-1.00,-1.00,+0.00,+1.00,-3.00,-13.00,-26.00,-12.00,-2.00,-1.00,-2.00,-1.00,-3.00,-8.00
-11.00,-7.00,-3.00,-2.00,-1.00,-4.00,+2.00,+13.00,+11.00,+7.00,+0.00,+0.00,-1.00,+2.00,+1.00,+5.00
-10.00,-24.00,-3.00,-1.00,-1.00,-1.00,-2.00,-1.00,+5.00,+1.00,-1.00,+0.00,-1.00,+1.00,-1.00,+1.00
+7.00,+2.00,+1.00,-1.00,+0.00,+0.00,-1.00,-3.00,-2.00,-5.00,-1.00,-1.00,-2.00,-1.00,-2.00,-2.00
+0.00,+14.00,+2.00,-2.00,+0.00,-3.00,-1.00,-2.00,+9.00,-5.00,-4.00,-2.00,+0.00,-2.00,-1.00,-1.00
+3.00,+13.00,-2.00,-2.00,-1.00,+0.00,+1.00,+0.00,-5.00,-5.00,+0.00,-1.00,-1.00,-1.00,-1.00,-3.00
-17.00,-33.00,-8.00,-2.00,-1.00,+0.00,-2.00,-17.00,+8.00,+20.00,-1.00,-1.00,+1.00,+0.00,+2.00,+6.00
-12.00,-32.00,-2.00,+0.00,-2.00,+1.00,+0.00,+3.00,+6.00,-2.00,+0.00,-1.00,-1.00,-1.00,-3.00,-1.00
+47.00,+102.00,+11.00,+4.00,+0.00,+2.00,+2.00,+15.00,-31.00,-1.00,-1.00,+0.00,-2.00,-2.00,-2.00,-7.00
-7.00,-20.00,-2.00,-2.00,+0.00,+0.00,-1.00,+1.00,+11.00,+4.00,+0.00,-1.00,+0.00,-1.00,+1.00,+2.00
-3.00,-7.00,-6.00,-2.00,+0.00,-1.00,-1.00,+5.00,+2.00,-8.00,-1.00,-2.00,-1.00,-1.00,+2.00,+4.00
-6.00,+0.00,-1.00,-1.00,-2.00,+0.00,-4.00,-10.00,+1.00,-2.00,-4.00,-2.00,-3.00,-1.00,-3.00,-4.00
-18.00,-41.00,-6.00,-1.00,-1.00,-1.00,-2.00,-2.00,+4.00,-4.00,+0.00,-1.00,-2.00,+0.00,+4.00,+7.00
+2.00,-8.00,-1.00,+1.00,+0.00,-2.00,-1.00,-8.00,-12.00,-2.00,-2.00,+0.00,-2.00,+0.00,-4.00,-8.00
+4.00,+32.00,+4.00,+1.00,+0.00,+0.00,-1.00,-1.00,-6.00,-13.00,-4.00,-2.00,-1.00,-2.00,-2.00,-6.00
-2.00,-12.00,+1.00,+0.00,-1.00,-4.00,-2.00,-5.00,+32.00,+7.00,-2.00,+0.00,+1.00,+0.00,-1.00,+4.00
-3.00,+4.00,-2.00,+0.00,+0.00,+0.00,+0.00,+3.00,-10.00,+15.00,+1.00,-1.00,-1.00,-2.00,-1.00,+1.00
+2.00,+8.00,+1.00,+0.00,-1.00,-1.00,-3.00,-3.00,-3.00,-2.00,-4.00,-2.00,+0.00,-1.00,-3.00,-4.00
-19.00,-23.00,-5.00,-2.00,-2.00,+0.00,-1.00,+10.00,+1.00,+0.00,-1.00,-1.00,+0.00,+0.00,+0.00,+3.00
-1.00,+4.00,-3.00,-1.00,-1.00,-1.00,-1.00,+2.00,-16.00,-11.00,-3.00,-1.00,-1.00,-3.00,-3.00,-6.00
+2.00,+11.00,-1.00,-2.00,-3.00,+0.00,+2.00,+24.00,-3.00,-5.00,+0.00,-1.00,+0.00,-2.00,-2.00,-3.00
-7.00,-27.00,-3.00,+1.00,-1.00,-1.00,-3.00,-10.00,+4.00,+1.00,+0.00,+0.00,+0.00,-2.00,+2.00,+3.00
+15.00,+26.00,+3.00,+3.00,+0.00,+0.00,-1.00,-1.00,-16.00,-7.00,-2.00,-1.00,-2.00,-2.00,-1.00,-6.00
-4.00,-2.00,+0.00,+0.00,-1.00,-2.00,-2.00,-4.00,-1.00,+7.00,+5.00,+2.00,+2.00,+2.00,+0.00,+4.00
-8.00,-13.00,+0.00,-2.00,-3.00,-2.00,+0.00,-1.00,+12.00,-3.00,-2.00,-1.00,+1.00,-1.00,+0.00,-3.00
-12.00,-19.00,-6.00,-4.00,+1.00,-2.00,-4.00,-10.00,+6.00,-2.00,+0.00,-2.00,-1.00,-2.00,-2.00,+0.00
+0.00,-35.00,+0.00,-2.00,-2.00,-2.00,+0.00,+2.00,+3.00,-2.00,-2.00,-2.00,-2.00,-2.00,-1.00,+1.00
+4.00,+27.00,+1.00,-1.00,+0.00,+0.00,+1.00,+6.00,-21.00,-11.00,+0.00,+0.00,-1.00,+0.00,-2.00,-5.00
+6.00,+6.00,+4.00,+1.00,+0.00,-1.00,+0.00,+0.00,-5.00,+29.00,+6.00,+0.00,-3.00,-1.00,+1.00,+0.00
+5.00,+11.00,+2.00,+2.00,+0.00,+0.00,+0.00,+2.00,-21.00,-7.00,-2.00,-2.00,+0.00,-2.00,+0.00,-2.00
-7.00,-4.00,-5.00,-2.00,-1.00,+0.00,+0.00,-7.00,+14.00,-4.00,-1.00,+0.00,+0.00,-2.00,+0.00,+0.00
-2.00,+5.00,+0.00,+1.00,+0.00,-1.00,+1.00,+0.00,+3.00,+2.00,-1.00,-1.00,-1.00,-1.00,+0.00,+3.00
-13.00,-31.00,-7.00,-1.00,-2.00,-1.00,-4.00,-14.00,-3.00,-15.00,-3.00,+0.00,-1.00,+0.00,+0.00,-1.00
-7.00,-4.00,+0.00,+0.00,-2.00,-1.00,+1.00,+9.00,-13.00,+1.00,-2.00,-2.00,-2.00,-1.00,+0.00,-6.00
+2.00,+4.00,-3.00,-2.00,+1.00,-3.00,+0.00,+0.00,+17.00,+0.00,+1.00,+0.00,+0.00,+0.00,-1.00,-1.00
+19.00,+23.00,+1.00,-1.00,+0.00,-1.00,+1.00,+11.00,-11.00,+3.00,-1.00,-3.00,-3.00,-2.00,-4.00,-6.00
-5.00,-17.00,-5.00,-2.00,+0.00,-3.00,-3.00,-5.00,+0.00,-6.00,-4.00,-2.00,-1.00,-1.00,+0.00,+2.00
+8.00,-3.00,-2.00,-3.00,-2.00,+0.00,+0.00,+0.00,-2.00,+11.00,+1.00,-1.00,+0.00,+1.00,-2.00,-1.00
-2.00,+11.00,-1.00,-1.00,-2.00,-2.00,+0.00,-6.00,-4.00,-9.00,-2.00,-1.00,-1.00,+0.00,-2.00,-4.00
+8.00,+21.00,-2.00,-2.00,-2.00,-1.00,-2.00,+2.00,+2.00,-6.00,-6.00,-1.00,-1.00,-2.00,+0.00,-3.00
-17.00,-18.00,-1.00,-3.00,-1.00,+1.00,+0.00,-7.00,+1.00,-8.00,-3.00,-1.00,-2.00,-1.00,+0.00,-2.00
+13.00,+7.00,+4.00,+2.00,+2.00,-1.00,+2.00,+0.00,+0.00,-1.00,-1.00,-2.00,+0.00,-1.00,+2.00,+0.00
-3.00,+8.00,+1.00,+0.00,+1.00,+2.00,-2.00,+1.00,+13.00,+11.00,+2.00,-1.00,+0.00,+0.00,-2.00,+1.00
-2.00,+1.00,-5.00,-6.00,-1.00,-1.00,+0.00,-6.00,-4.00,-4.00,-3.00,+0.00,-2.00,-2.00,+0.00,+0.00
-5.00,+0.00,-3.00,+1.00,-3.00,-1.00,-2.00,-1.00,+1.00,+1.00,-1.00,+0.00,-3.00,-1.00,-2.00,-5.00
-16.00,-32.00,-6.00,-2.00,-1.00,-2.00,-2.00,+3.00,+7.00,-10.00,-2.00,+0.00,-2.00,-1.00,+0.00,+4.00
+5.00,-9.00,-2.00,+0.00,-1.00,+0.00,+2.00,+2.00,+5.00,+19.00,+1.00,-2.00,-1.00,-1.00,-1.00,-6.00
+2.00,+18.00,+2.00,+1.00,+0.00,+0.00,+1.00,-1.00,-20.00,-8.00,+1.00,+1.00,+0.00,+1.00,+3.00,+2.00
-2.00,-13.00,-1.00,+0.00,+0.00,-1.00,-3.00,-4.00,-12.00,-3.00,-1.00,-2.00,-1.00,-2.00,-2.00,+0.00
-3.00,+9.00,-2.00,-1.00,+0.00,-1.00,-2.00,-6.00,+0.00,+0.00,-1.00,+1.00,-3.00,+1.00,-2.00,-2.00
-6.00,-28.00,-5.00,-3.00,-1.00,-3.00,-2.00,-4.00,+0.00,-1.00,-1.00,-1.00,+0.00,-2.00,-3.00,-1.00
-3.00,-12.00,-3.00,-1.00,-1.00,-1.00,-1.00,-1.00,+1.00,-7.00,-3.00,-1.00,-1.00,-4.00,-2.00,-2.00
+0.00,+3.00,-2.00,+0.00,+0.00,-1.00,-1.00,-1.00,+4.00,-4.00,-3.00,-1.00,-2.00,-1.00,+1.00,+1.00
+4.00,+12.00,+1.00,-2.00,-2.00,-1.00,+1.00,+16.00,-6.00,-3.00,-1.00,+1.00,+1.00,-1.00,-3.00,-6.00
+8.00,+3.00,+3.00,+0.00,+1.00,+0.00,+0.00,+3.00,-18.00,-5.00,-2.00,-1.00,-1.00,-1.00,+3.00,+8.00
-5.00,-18.00,-3.00,-2.00,+0.00,-1.00,-3.00,-4.00,+17.00,+1.00,+1.00,-4.00,-1.00,-1.00,-3.00,+0.00
+0.00,-5.00,-3.00,-3.00,+0.00,+0.00,+1.00,-2.00,+6.00,+13.00,+0.00,-2.00,-1.00,+0.00,-2.00,+2.00
+2.00,+14.00,+2.00,+2.00,+0.00,-2.00,-2.00,-4.00,-1.00,+1.00,-3.00,-1.00,-1.00,-1.00,-2.00,-4.00
-6.00,+1.00,-3.00,-2.00,-2.00,-2.00,-3.00,-2.00,-9.00,+0.00,+2.00,+0.00,+0.00,-1.00,-1.00,-2.00
-2.00,+2.00,+3.00,+0.00,-3.00,-1.00,+1.00,-1.00,+1.00,-1.00,-3.00,-2.00,-1.00,-1.00,+0.00,+0.00
-6.00,-22.00,-4.00,-1.00,-1.00,+0.00,+0.00,-1.00,+2.00,-8.00,-4.00,-1.00,-1.00,+0.00,-2.00,-1.00
+14.00,+41.00,+2.00,-1.00,+0.00,+0.00,+1.00,-5.00,-9.00,-4.00,+1.00,+0.00,-1.00,-2.00,-3.00,-2.00
+2.00,+3.00,+1.00,+0.00,-2.00,+0.00,+1.00,+1.00,-4.00,-5.00,-1.00,+1.00,-4.00,-2.00,-2.00,-3.00
-3.00,-10.00,-1.00,+0.00,+2.00,-2.00,-2.00,-4.00,+1.00,+4.00,-2.00,-1.00,+0.00,-1.00,+1.00,+3.00
-9.00,+5.00,-3.00,-2.00,-3.00,-4.00,-2.00,-4.00,+5.00,-5.00,-1.00,+0.00,+0.00,-2.00,-4.00,-2.00
+13.00,+21.00,+7.00,+3.00,+2.00,+2.00,+1.00,+0.00,-16.00,-11.00,-4.00,-4.00,-2.00,-3.00,-2.00,-7.00
-14.00,-29.00,-3.00,+2.00,+0.00,+2.00,-1.00,+1.00,+23.00,+16.00,+0.00,+1.00,+0.00,+2.00,+0.00,+2.00
+22.00,+51.00,+7.00,+4.00,+0.00,+4.00,+2.00,+9.00,-33.00,-17.00,-2.00,+0.00,-1.00,-3.00,-2.00,-10.00
-9.00,-37.00,-4.00,-4.00,+0.00,-1.00,-2.00,-4.00,+10.00,+2.00,-2.00,-1.00,+0.00,-2.00,+1.00,+6.00
-11.00,+11.00,-5.00,-6.00,-3.00,-3.00,-5.00,-8.00,+26.00,-3.00,-2.00,+0.00,-1.00,-2.00,+1.00,+5.00
-7.00,-41.00,-5.00,-3.00,-3.00,-3.00,+0.00,+0.00,-22.00,+9.00,+1.00,-1.00,+1.00,-2.00,-4.00,-8.00
-10.00,+15.00,-3.00,-3.00,-2.00,-2.00,-6.00,-32.00,+8.00,-6.00,-1.00,+0.00,-1.00,-1.00,-3.00,-7.00
+31.00,+75.00,+14.00,+4.00,+1.00,+2.00,+1.00,+14.00,-34.00,+2.00,+2.00,-1.00,-1.00,-1.00,+0.00,-7.00
-11.00,-18.00,-4.00,+1.00,-1.00,-1.00,-3.00,-7.00,-1.00,-9.00,-1.00,-1.00,+0.00,+0.00,-1.00,-5.00
+0.00,+11.00,+0.00,-1.00,-2.00,+0.00,+0.00,+3.00,+4.00,-9.00,-5.00,-2.00,-3.00,-1.00,+0.00,+2.00
-13.00,-45.00,-8.00,-2.00,-1.00,-1.00,+2.00,-1.00,+9.00,+8.00,-2.00,-1.00,-1.00,+0.00,+0.00,+1.00
+1.00,+3.00,-3.00,-3.00,+1.00,-2.00,-3.00,-6.00,+4.00,-9.00,-1.00,+0.00,+0.00,-2.00,-1.00,+1.00
+6.00,+5.00,+1.00,+0.00,-2.00,-2.00,+0.00,-2.00,+2.00,+5.00,+0.00,-1.00,+0.00,-2.00,-2.00,+1.00
+0.00,+5.00,-2.00,+0.00,-4.00,-2.00,-1.00,-2.00,-4.00,-4.00,-1.00,+0.00,-1.00,-1.00,-2.00,-5.00
-8.00,-20.00,-1.00,+0.00,-2.00,-2.00,-2.00,+3.00,+18.00,+12.00,+0.00,-2.00,-1.00,+1.00,+0.00,+7.00
-1.00,+19.00,+2.00,+0.00,-2.00,-1.00,-1.00,-2.00,-19.00,-17.00,-3.00,-1.00,+1.00,+0.00,+1.00,-3.00
+10.00,-13.00,+2.00,-1.00,+3.00,+0.00,+2.00,+7.00,+7.00,+6.00,-3.00,-1.00,-1.00,-1.00,-1.00,+1.00
+0.00,+3.00,-1.00,-2.00,+0.00,-3.00,-2.00,-4.00,-20.00,-7.00,-1.00,+2.00,-2.00,-2.00,-1.00,+0.00
-7.00,-20.00,-4.00,-2.00,-3.00,-2.00,-3.00,+2.00,+0.00,+0.00,-1.00,+0.00,-1.00,-2.00,-2.00,-1.00
-8.00,-12.00,-5.00,-1.00,+0.00,-2.00,+1.00,-5.00,-1.00,-5.00,-3.00,-2.00,-1.00,-1.00,-2.00,-4.00
+8.00,+29.00,-1.00,-1.00,-1.00,-1.00,-2.00,-2.00,+1.00,+0.00,-1.00,-2.00,-1.00,+0.00,-1.00,+1.00
+17.00,+7.00,+5.00,+2.00,+0.00,+2.00,+1.00,+7.00,-7.00,+11.00,+1.00,+1.00,+0.00,-1.00,-3.00,-5.00
+2.00,+2.00,+2.00,+0.00,+0.00,-1.00,-1.00,+3.00,-3.00,-7.00,-1.00,-1.00,-1.00,+0.00,-1.00,-1.00
-13.00,-45.00,-5.00,-2.00,-5.00,+0.00,+0.00,-1.00,+9.00,+12.00,+1.00,+0.00,-2.00,-2.00,-3.00,-5.00
-10.00,+8.00,-4.00,-5.00,-5.00,-3.00,-3.00,-7.00,+3.00,+0.00,+1.00,+0.00,-1.00,-2.00,+0.00,+5.00
+18.00,+63.00,+9.00,+3.00,+1.00,+1.00,+0.00,+3.00,-5.00,-22.00,-5.00,-3.00,-3.00,-2.00,-1.00,-3.00
+3.00,-10.00,+4.00,+3.00,+1.00,-2.00,-4.00,-13.00,-9.00,+3.00,-1.00,+0.00,-1.00,+1.00,-4.00,-9.00
+4.00,-10.00,-2.00,-3.00,+0.00,-2.00,-2.00,-5.00,+13.00,+10.00,+4.00,+1.00,+2.00,+1.00,+0.00,+3.00
-14.00,-34.00,-4.00,+0.00,-2.00,+0.00,-1.00,+0.00,-6.00,-4.00,-4.00,-2.00,-5.00,-1.00,-1.00,-4.00
-9.00,-6.00,-4.00,-4.00,+0.00,-1.00,-4.00,-13.00,+6.00,+3.00,-2.00,-2.00,-1.00,+0.00,+2.00,+4.00
-5.00,+1.00,-5.00,-5.00,-3.00,+0.00,+1.00,+5.00,-2.00,-3.00,-2.00,-1.00,+0.00,-1.00,-2.00,-2.00
-2.00,+8.00,+0.00,+0.00,-1.00,-1.00,-1.00,-5.00,-6.00,-13.00,-3.00,-1.00,+0.00,-1.00,+1.00,+0.00
+4.00,+4.00,+0.00,+0.00,-1.00,-1.00,+0.00,-2.00,-10.00,+4.00,-1.00,-1.00,-2.00,-1.00,-1.00,-3.00
-5.00,-14.00,+2.00,+2.00,-3.00,-2.00,+0.00,+3.00,+4.00,+4.00,+2.00,+0.00,+2.00,+0.00,+1.00,+0.00
+14.00,+21.00,+2.00,+2.00,+4.00,+1.00,+1.00,+5.00,-18.00,-6.00,-2.00,+0.00,-3.00,-2.00,+1.00,-2.00
-6.00,-11.00,-5.00,-2.00,-1.00,+0.00,-1.00,-1.00,+4.00,+2.00,-2.00,-3.00,-4.00,-2.00,-3.00,-1.00
-12.00,-17.00,-3.00,-2.00,-2.00,-2.00,-1.00,-2.00,+5.00,+2.00,-1.00,+1.00,+1.00,+0.00,-1.00,+0.00
-13.00,-23.00,-4.00,-1.00,-2.00,-2.00,-1.00,-1.00,-5.00,-6.00,-1.00,-1.00,+0.00,-2.00,-2.00,-4.00
-1.00,+13.00,-1.00,-2.00,-2.00,-1.00,-1.00,+3.00,-1.00,+0.00,-2.00,-1.00,-4.00,-1.00,+1.00,+3.00
+10.00,+13.00,+3.00,+2.00,+0.00,-2.00,+0.00,+1.00,-4.00,-2.00,-2.00,+0.00,-1.00,+0.00,+0.00,-3.00
-2.00,-9.00,-2.00,-1.00,+0.00,-1.00,-1.00,-1.00,+2.00,+0.00,+0.00,-4.00,-2.00,-4.00,-1.00,+2.00
-2.00,-1.00,-3.00,+1.00,+1.00,+2.00,+1.00,+15.00,+1.00,-5.00,-3.00,-4.00,-1.00,-1.00,-3.00,-1.00
-8.00,-12.00,-5.00,-3.00,-1.00,-2.00,-1.00,-7.00,+7.00,+4.00,-2.00,-3.00,-1.00,-1.00,+1.00,+2.00
+20.00,+35.00,+6.00,+0.00,+0.00,+1.00,+1.00,+7.00,-21.00,-24.00,-3.00,+0.00,-1.00,-3.00,+0.00,+0.00
+1.00,-8.00,-6.00,+1.00,-3.00,-1.00,-1.00,-1.00,+10.00,+21.00,+3.00,+0.00,+0.00,-1.00,-1.00,+0.00
-2.00,+3.00,-2.00,-1.00,-1.00,-2.00,+0.00,-2.00,+2.00,-3.00,+0.00,+0.00,-2.00,+1.00,+1.00,+0.00
-2.00,-17.00,-3.00,-1.00,+1.00,-1.00,-2.00,-5.00,+1.00,+1.00,-3.00,-2.00,-1.00,-1.00,-2.00,-2.00
-18.00,-18.00,-2.00,-1.00,-2.00,-1.00,+1.00,+15.00,+2.00,+1.00,-2.00,+0.00,+0.00,+1.00,-3.00,-5.00
+3.00,+8.00,-1.00,-2.00,+1.00,+1.00,-1.00,-1.00,-11.00,-12.00,-3.00,-1.00,-1.00,-2.00,+0.00,-1.00
-1.00,+7.00,-2.00,-2.00,+1.00,-1.00,-2.00,-7.00,-1.00,+1.00,+0.00,+1.00,-1.00,-4.00,-1.00,+0.00
-2.00,-16.00,-1.00,-1.00,-1.00,-1.00,-1.00,+1.00,+3.00,-2.00,-1.00,-1.00,-2.00,-1.00,-1.00,-4.00
+2.00,-5.00,-3.00,-1.00,-1.00,-2.00,-3.00,-9.00,+0.00,+0.00,+0.00,+0.00,-2.00,+0.00,-2.00,+0.00
-10.00,-4.00,-1.00,-1.00,-1.00,-1.00,+0.00,-2.00,+4.00,-5.00,+0.00,+1.00,-1.00,-1.00,-2.00,-1.00
+16.00,+11.00,+2.00,+0.00,+3.00,-1.00,+1.00,-2.00,-12.00,+8.00,+0.00,-1.00,-1.00,-2.00,-1.00,+0.00
-4.00,-17.00,+1.00,+1.00,-4.00,+0.00,+2.00,+7.00,-20.00,-4.00,-1.00,-1.00,-1.00,+0.00,-2.00,-7.00
-12.00,-26.00,-7.00,-2.00,-1.00,-1.00,-1.00,-4.00,+11.00,+8.00,+2.00,-3.00,+0.00,-1.00,+2.00,+4.00
-4.00,+1.00,-4.00,-2.00,-5.00,-3.00,-1.00,+0.00,-2.00,+0.00,-2.00,-4.00,+0.00,-2.00,-1.00,+0.00
+5.00,+26.00,+7.00,+1.00,+2.00,+1.00,+0.00,+1.00,-9.00,-23.00,-4.00,-3.00,+1.00,-1.00,-3.00,-2.00
-1.00,-9.00,-2.00,+0.00,+0.00,-1.00,+0.00,+2.00,+15.00,+8.00,+0.00,-3.00,-1.00,+0.00,+1.00,+7.00
+1.00,+1.00,+0.00,-1.00,+0.00,+0.00,-1.00,+1.00,-3.00,+0.00,+0.00,-3.00,-2.00,-1.00,+0.00,-5.00
-13.00,-16.00,-5.00,-2.00,-2.00,-1.00,-1.00,-2.00,+2.00,+0.00,-2.00,-4.00,-4.00,+0.00,-1.00,-1.00
-7.00,-13.00,-2.00,-2.00,-5.00,-3.00,-3.00,-18.00,+1.00,-2.00,-1.00,-2.00,-3.00,-1.00,+2.00,+3.00
+2.00,+4.00,-2.00,-3.00,-2.00,-2.00,-1.00,-1.00,-4.00,+0.00,-1.00,-3.00,-1.00,-2.00,-2.00,-1.00
-3.00,-10.00,-4.00,-2.00,-2.00,+0.00,+0.00,+1.00,+13.00,+0.00,+0.00,-2.00,-4.00,-2.00,-1.00,-2.00
+27.00,+35.00,+11.00,+3.00,+3.00,+1.00,+3.00,+9.00,-20.00,-16.00,-3.00,-2.00,-2.00,-1.00,-1.00,-5.00
-2.00,-1.00,-3.00,-2.00,+1.00,-2.00,-1.00,+3.00,+8.00,+22.00,+5.00,-2.00,+0.00,-1.00,+0.00,+0.00
-6.00,+2.00,-2.00,+0.00,+1.00,+0.00,+0.00,+1.00,-1.00,-4.00,-2.00,+0.00,-2.00,-3.00,-2.00,+0.00
-8.00,-1.00,-5.00,-1.00,-1.00,-3.00,-2.00,-12.00,+5.00,+4.00,-1.00,+1.00,+1.00,-4.00,-1.00,+0.00
-16.00,-22.00,-2.00,-2.00,+1.00,-2.00,-3.00,+7.00,+6.00,+0.00,+0.00,+0.00,-3.00,+0.00,-3.00,-2.00
-1.00,+0.00,-2.00,-3.00,-1.00,-1.00,-2.00,-1.00,-7.00,-15.00,-5.00,-2.00,-2.00,-13.00,-4.00,-5.00
+3.00,+48.00,+5.00,+0.00,+1.00,-2.00,-1.00,+0.00,+36.00,+19.00,+1.00,-1.00,+1.00,-9.00,+0.00,+8.00
+15.00,+0.00,+1.00,+1.00,+1.00,+0.00,+0.00,+5.00,-22.00,-8.00,+0.00,+2.00,+0.00,-3.00,-1.00,-5.00
+2.00,-8.00,-2.00,+1.00,+0.00,+2.00,+0.00,-4.00,-5.00,+1.00,-2.00,+2.00,+1.00,+3.00,-1.00,-1.00
-15.00,-18.00,-6.00,-1.00,-2.00,-1.00,-3.00,-7.00,+0.00,-4.00,-1.00,-1.00,-2.00,+6.00,+0.00,-1.00
-23.00,-43.00,-9.00,-6.00,-4.00,-4.00,-4.00,-28.00,+3.00,-8.00,-1.00,-2.00,-2.00,+3.00,-6.00,-6.00
+13.00,+4.00,-1.00,-1.00,-1.00,-1.00,+0.00,+2.00,+0.00,+0.00,-2.00,-3.00,-3.00,+1.00,-2.00,+1.00
+24.00,+24.00,+8.00,+2.00,-1.00,+2.00,+2.00,+6.00,-15.00,+10.00,+5.00,+1.00,+2.00,+3.00,+2.00,-3.00
-2.00,+17.00,-2.00,-2.00,+0.00,-1.00,+0.00,-2.00,+4.00,-6.00,-2.00,+1.00,+0.00,+3.00,+0.00,-3.00
+4.00,-4.00,+1.00,+1.00,+0.00,-1.00,-1.00,+0.00,-12.00,-10.00,-3.00,+0.00,+1.00,+0.00,-1.00,-6.00
-17.00,-5.00,-1.00,+1.00,-1.00,-1.00,-3.00,+7.00,+8.00,+1.00,+0.00,+0.00,+0.00,+1.00,+0.00,+4.00
-7.00,-15.00,-7.00,-2.00,-3.00,-3.00,-2.00,-12.00,+3.00,-3.00,-2.00,+0.00,-1.00,-1.00,-1.00,+0.00
-5.00,-7.00,-2.00,-3.00,-3.00,+0.00,+1.00,+5.00,+7.00,+4.00,-1.00,-1.00,-1.00,-2.00,-4.00,-1.00
+19.00,+18.00,+4.00,+1.00,+0.00,+2.00,+0.00,+9.00,-7.00,-2.00,-1.00,+0.00,+0.00,-2.00,-1.00,-2.00
-1.00,+3.00,+0.00,-2.00,+0.00,-2.00,-1.00,-7.00,-2.00,-2.00,-2.00,-1.00,+0.00,+0.00,-1.00,-4.00
-7.00,-5.00,-1.00,-1.00,-1.00,-2.00,-1.00,+0.00,+6.00,+1.00,+0.00,+0.00,-2.00,-3.00,+0.00,+1.00
+1.00,+0.00,+1.00,-1.00,-1.00,-1.00,-1.00,+1.00,-1.00,-1.00,-1.00,-1.00,-1.00,-1.00,-1.00,-1.00
+0.00,-1.00,-1.00,+0.00,-1.00,-1.00,-3.00,+1.00,-4.00,-4.00,+0.00,+1.00,-2.00,+1.00,-2.00,-1.00
-6.00,+6.00,+0.00,+0.00,+1.00,+0.00,+0.00,-3.00,-8.00,+2.00,-2.00,-1.00,-1.00,-1.00,-1.00,-2.00
-1.00,-5.00,-1.00,-1.00,+0.00,-1.00,-2.00,-4.00,+3.00,-1.00,-2.00,-1.00,+0.00,+0.00,-1.00,-1.00
+5.00,-13.00,-3.00,-1.00,-1.00,-1.00,+0.00,-9.00,+6.00,+0.00,-3.00,-1.00,-1.00,+1.00,+0.00,+0.00
+18.00,+33.00,+0.00,-1.00,+0.00,+0.00,+2.00,+8.00,-15.00,-6.00,-1.00,-1.00,-3.00,-1.00,-3.00,-6.00
+0.00,+0.00,+0.00,-2.00,-2.00,-2.00,-1.00,+3.00,+0.00,+0.00,-2.00,-1.00,-1.00,-2.00,+0.00,-1.00
-9.00,-25.00,-3.00,-1.00,+1.00,-3.00,-2.00,-6.00,+11.00,+3.00,+0.00,+0.00,-2.00,-1.00,+0.00,+1.00
+21.00,+58.00,+3.00,+0.00,+1.00,-1.00,+0.00,+0.00,-15.00,-8.00,-3.00,-1.00,-1.00,+0.00,-2.00,-5.00
-7.00,-18.00,-1.00,+0.00,+0.00,-1.00,+2.00,+7.00,+1.00,-1.00,+1.00,+0.00,+0.00,+0.00,-2.00,-2.00
+0.00,+1.00,+3.00,+0.00,-1.00,+0.00,-1.00,-1.00,-4.00,-8.00,-3.00,-2.00,-2.00,-2.00,-3.00,-5.00
-7.00,-19.00,-4.00,-3.00,-2.00,-1.00,+1.00,-4.00,+13.00,+17.00,+0.00,+0.00,+0.00,+0.00,-1.00,+8.00
+4.00,+15.00,+2.00,+1.00,-1.00,-2.00,-2.00,+5.00,-5.00,-1.00,-1.00,-1.00,-1.00,-1.00,-1.00,-2.00
-10.00,+7.00,-2.00,-2.00,-2.00,-1.00,-1.00,-2.00,-2.00,+2.00,-1.00,-1.00,-2.00,-2.00,-2.00,+3.00
+16.00,+18.00,+0.00,-1.00,+0.00,+0.00,+0.00,+2.00,+0.00,-6.00,-3.00,-1.00,-2.00,-1.00,-3.00,+0.00
+2.00,-5.00,-1.00,-2.00,+1.00,+0.00,-2.00,-2.00,-4.00,-7.00,-1.00,+0.00,+0.00,-1.00,-2.00,-5.00
-13.00,-30.00,-4.00,-2.00,-2.00,-1.00,-1.00,-3.00,+5.00,+5.00,+1.00,-2.00,-1.00,-2.00,+1.00,+3.00
-2.00,-7.00,+1.00,+1.00,-1.00,+0.00,+1.00,+1.00,-2.00,-3.00,-2.00,-2.00,+0.00,-2.00,+0.00,+0.00
-7.00,+3.00,-2.00,-3.00,-2.00,-1.00,-3.00,-10.00,-1.00,-2.00,-1.00,-1.00,-4.00,+0.00,-3.00,-1.00
-1.00,-5.00,+1.00,-1.00,+0.00,-1.00,-1.00,+1.00,+1.00,-2.00,-4.00,-3.00,-2.00,-2.00,-4.00,-6.00
+0.00,+4.00,+0.00,-1.00,+2.00,-1.00,-3.00,+0.00,-15.00,-11.00,-1.00,+0.00,+0.00,-1.00,-2.00,-6.00
-1.00,+8.00,-1.00,-2.00,-1.00,-1.00,-3.00,-6.00,+2.00,+0.00,-1.00,+0.00,+0.00,-2.00,+2.00,+6.00
-8.00,-23.00,-4.00,+0.00,-1.00,-1.00,+1.00,+2.00,+4.00,+7.00,+2.00,-3.00,-1.00,+0.00,-1.00,+0.00
-2.00,+10.00,-3.00,-1.00,-2.00,-2.00,-1.00,-3.00,-6.00,-6.00,-1.00,-2.00,-1.00,-2.00,+0.00,-1.00
-7.00,-10.00,-2.00,+0.00,-1.00,+0.00,+0.00,-2.00,-5.00,-6.00,-1.00,-3.00,-1.00,+0.00,-1.00,-1.00
-2.00,-21.00,-1.00,+2.00,+1.00,-1.00,-1.00,+0.00,+7.00,+14.00,+2.00,-1.00,-2.00,+0.00,-1.00,-2.00
-5.00,+1.00,-1.00,-2.00,-3.00,-2.00,-1.00,-2.00,+5.00,+0.00,-2.00,-1.00,+1.00,-1.00,+0.00,+1.00
+6.00,+19.00,+1.00,-2.00,-3.00,-2.00,-1.00,-14.00,-5.00,-4.00,+0.00,-2.00,+1.00,-2.00,+0.00,+1.00
-10.00,-23.00,-2.00,-2.00,-1.00,+0.00,-1.00,-1.00,+4.00,-3.00,-1.00,+0.00,+0.00,-1.00,-2.00,-3.00
-2.00,+11.00,+2.00,-1.00,-1.00,+0.00,-3.00,-3.00,+1.00,-3.00,-1.00,-2.00,-2.00,-2.00,-1.00,-2.00
+13.00,+5.00,+0.00,+0.00,+1.00,+0.00,+0.00,+1.00,-13.00,-2.00,+0.00,-1.00,-1.00,-1.00,+1.00,-2.00
-14.00,-3.00,-2.00,+1.00,+0.00,-1.00,-2.00,+12.00,-2.00,-5.00,+0.00,+0.00,-1.00,-1.00,-2.00,-4.00
+2.00,-3.00,-2.00,+1.00,-1.00,-1.00,-3.00,-3.00,+12.00,+6.00,+0.00,-2.00,-2.00,-1.00,-2.00,+3.00
+2.00,-8.00,-1.00,+1.00,+1.00,-1.00,+1.00,-3.00,-8.00,-6.00,-3.00,-3.00,-1.00,-1.00,-2.00,-3.00
-8.00,-24.00,-3.00,-2.00,-1.00,-2.00,-1.00,-5.00,+10.00,+6.00,+2.00,-2.00,+0.00,-2.00,-1.00,+1.00
+4.00,+8.00,+2.00,-1.00,-2.00,-2.00,-2.00,-3.00,-17.00,-11.00,-1.00,-2.00,+0.00,-1.00,-2.00,-3.00
-2.00,+19.00,-2.00,-3.00,-2.00,-3.00,-1.00,-2.00,-7.00,-3.00,-1.00,-2.00,-3.00,-3.00,-2.00,-2.00
+9.00,+18.00,+4.00,+1.00,+0.00,+0.00,+0.00,+6.00,-10.00,-10.00,-3.00,+0.00,+0.00,+2.00,-1.00,-1.00
-8.00,-9.00,-1.00,-1.00,-1.00,+1.00,-2.00,-4.00,+1.00,-5.00,-3.00,-1.00,-1.00,+1.00,-2.00,+1.00
+8.00,+3.00,-1.00,-2.00,+0.00,+1.00,-1.00,+2.00,-2.00,+14.00,+3.00,+0.00,-1.00,-1.00,-3.00,-2.00
-10.00,-41.00,-2.00,+1.00,-1.00,+0.00,+2.00,+5.00,+8.00,+8.00,+1.00,-1.00,-3.00,-1.00,-1.00,-1.00
+4.00,+13.00,+0.00,+0.00,-1.00,+0.00,-1.00,-3.00,+6.00,-2.00,+0.00,+1.00,-2.00,-1.00,+0.00,-2.00
-2.00,+2.00,+2.00,-1.00,+1.00,-2.00,-1.00,+0.00,-4.00,-2.00,-1.00,-1.00,+1.00,-1.00,+0.00,+2.00
-4.00,-3.00,-3.00,-1.00,+1.00,+1.00,-1.00,-5.00,+4.00,-4.00,-3.00,-3.00,-1.00,-1.00,+0.00,+2.00
-1.00,+7.00,+0.00,-2.00,-2.00,+0.00,+1.00,+11.00,+0.00,+4.00,+1.00,-2.00,+0.00,-2.00,-2.00,+1.00
-3.00,-9.00,-4.00,-3.00,-3.00,-3.00,-1.00,-7.00,-9.00,-5.00,-3.00,-2.00,-1.00,-2.00,+3.00,+3.00
+4.00,+10.00,-1.00,+1.00,-2.00,+0.00,+0.00,+0.00,+0.00,-1.00,-1.00,-1.00,+0.00,-2.00,-1.00,-4.00
-1.00,-4.00,-2.00,+0.00,-2.00,-2.00,-1.00,+0.00,+1.00,-3.00,-4.00,-1.00,-2.00,-3.00,+0.00,-3.00
+0.00,-4.00,+0.00,-1.00,+2.00,-1.00,+0.00,+3.00,-1.00,+0.00,-2.00,-1.00,-1.00,+0.00,+2.00,+0.00
-4.00,-6.00,-1.00,-1.00,-2.00,+0.00,-3.00,+3.00,-6.00,-5.00,-2.00,-1.00,-1.00,-1.00,+1.00,-4.00
-4.00,-3.00,+0.00,+0.00,+0.00,+0.00,-3.00,-5.00,+0.00,+1.00,+0.00,-1.00,+0.00,-1.00,-1.00,-1.00
-4.00,-28.00,-2.00,+0.00,+0.00,-2.00,+1.00,+1.00,+12.00,+5.00,+0.00,-2.00,-1.00,-1.00,-1.00,-1.00
+27.00,+78.00,+9.00,+3.00,+0.00,+0.00,-1.00,-3.00,-20.00,-14.00,-4.00,-2.00,+0.00,-1.00,-1.00,-4.00
-6.00,-11.00,-4.00,-3.00,+1.00,-1.00,-2.00,+0.00,+13.00,+6.00,+0.00,+0.00,-1.00,-1.00,-1.00,+4.00
+1.00,+2.00,-1.00,-1.00,+2.00,-1.00,+0.00,-3.00,-6.00,-1.00,-2.00,-3.00,-3.00,+0.00,-3.00,+1.00
-12.00,-16.00,-4.00,-1.00,+0.00,-1.00,-4.00,-4.00,+6.00,+0.00,+0.00,-1.00,-3.00,-1.00,-3.00,-2.00
+3.00,-35.00,-1.00,+2.00,-1.00,+1.00,+0.00,-7.00,+21.00,+10.00,+1.00,+2.00,-1.00,-1.00,-2.00,-1.00
+5.00,+28.00,+4.00,+1.00,+0.00,+1.00,+0.00,+12.00,-19.00,-5.00,-1.00,-1.00,-1.00,-1.00,-2.00,-2.00
+3.00,+8.00,-3.00,-2.00,-3.00,+1.00,-2.00,-18.00,-1.00,-3.00,-1.00,+0.00,+1.00,-2.00,-2.00,-2.00
+0.00,+8.00,+1.00,-1.00,-2.00,-3.00,+0.00,-2.00,-2.00,-4.00,-1.00,-2.00,-2.00,+0.00,-1.00,-1.00
-13.00,-28.00,-5.00,-3.00,-4.00,-1.00,-2.00,-6.00,+2.00,+1.00,-1.00,+1.00,+1.00,+0.00,-1.00,+2.00
-9.00,-9.00,-3.00,-2.00,+0.00,-3.00,-2.00,-6.00,+0.00,+3.00,+1.00,-1.00,-1.00,+0.00,-1.00,+1.00
+0.00,+0.00,-1.00,+0.00,+0.00,-2.00,-2.00,+5.00,-3.00,-4.00,-2.00,+0.00,-2.00,-1.00,-2.00,-4.00
-2.00,-5.00,-3.00,-3.00,-2.00,-2.00,+1.00,+5.00,-2.00,+3.00,+1.00,+0.00,+0.00,+0.00,+0.00,-5.00
+0.00,+1.00,+3.00,+1.00,-2.00,-2.00,-1.00,-6.00,-5.00,-6.00,-2.00,+0.00,-2.00,+0.00,+0.00,+2.00
-1.00,-17.00,-3.00,-1.00,-1.00,-1.00,+0.00,-1.00,+5.00,+1.00,-1.00,-2.00,-1.00,-2.00,+1.00,-1.00
+1.00,+7.00,-1.00,-1.00,+0.00,+1.00,+1.00,+3.00,-2.00,+0.00,-1.00,-1.00,+0.00,-2.00,+0.00,+1.00
+2.00,+8.00,+1.00,-1.00,+0.00,+1.00,-2.00,-3.00,-5.00,-4.00,-3.00,-2.00,+0.00,-1.00,+1.00,+2.00
-8.00,-9.00,-7.00,-2.00,+0.00,-1.00,-1.00,-6.00,-3.00,-12.00,-2.00,-1.00,-1.00,-2.00,-1.00,-2.00
-11.00,-21.00,-2.00,-3.00,-2.00,-1.00,-1.00,+6.00,+2.00,+7.00,-2.00,-1.00,+0.00,+0.00,-1.00,-1.00
-4.00,+11.00,+1.00,-1.00,-1.00,-2.00,-2.00,+1.00,-7.00,+0.00,+0.00,+0.00,-1.00,-1.00,-2.00,-3.00
+3.00,-6.00,+2.00,+1.00,+0.00,+1.00,+1.00,+0.00,+11.00,-1.00,-2.00,-3.00,+0.00,-1.00,-2.00,+1.00
+0.00,+21.00,-1.00,-1.00,+0.00,-1.00,-2.00,-5.00,-23.00,-5.00,-1.00,-1.00,+0.00,+0.00,+0.00,-7.00
+4.00,+20.00,-2.00,+0.00,-2.00,-1.00,+1.00,-1.00,+9.00,-2.00,-2.00,-2.00,-2.00,-2.00,-4.00,-4.00
-1.00,-6.00,+2.00,+2.00,-3.00,+0.00,+0.00,+2.00,-11.00,-3.00,-1.00,+2.00,-1.00,+1.00,+2.00,+0.00
-9.00,-13.00,-3.00,-3.00,-3.00,-1.00,-3.00,-24.00,+3.00,+1.00,+0.00,+1.00,+1.00,-1.00,-3.00,-4.00
-7.00,-16.00,-2.00,-3.00,-2.00,-1.00,-1.00,-1.00,+8.00,+1.00,-1.00,-3.00,-1.00,-2.00,-2.00,-1.00
-3.00,-9.00,-4.00,-1.00,-2.00,-2.00,-2.00,-6.00,-3.00,-4.00,-1.00,-4.00,-1.00,+0.00,-2.00,-2.00
-6.00,-2.00,-1.00,-1.00,-1.00,-2.00,+1.00,+3.00,+3.00,+1.00,-1.00,-3.00,-2.00,-2.00,-1.00,-2.00
+5.00,+11.00,+2.00,+1.00,+1.00,-1.00,+2.00,+6.00,-6.00,-4.00,+0.00,-2.00,-1.00,-1.00,-4.00,-7.00
-11.00,-9.00,-2.00,-1.00,+1.00,+1.00,+1.00,+9.00,+5.00,-6.00,-3.00,-1.00,+0.00,+0.00,+0.00,+5.00
+5.00,+7.00,+0.00,-1.00,+0.00,-2.00,-3.00,-5.00,-5.00,+0.00,-1.00,-1.00,-1.00,+0.00,+0.00,-2.00
+3.00,-4.00,-3.00,+1.00,-2.00,+0.00,-2.00,+1.00,+6.00,+14.00,+2.00,+2.00,-2.00,-1.00,-3.00,-3.00
+1.00,+3.00,+1.00,+2.00,+0.00,-1.00,-2.00,+0.00,-10.00,-7.00,-2.00,-1.00,-1.00,-1.00,+1.00,+2.00
+0.00,+2.00,+1.00,-1.00,-1.00,-1.00,+0.00,-6.00,+1.00,+7.00,+5.00,-2.00,-1.00,-1.00,-1.00,-2.00
-4.00,-16.00,-2.00,+1.00,-1.00,-2.00,-1.00,+3.00,+4.00,-3.00,-2.00,+0.00,+0.00,+0.00,-2.00,-1.00
-3.00,-16.00,+2.00,+0.00,+1.00,-1.00,-2.00,-2.00,+13.00,-2.00,-2.00,-2.00,-2.00,+1.00,+0.00,+9.00
+16.00,+63.00,+1.00,-1.00,+1.00,+0.00,-2.00,+2.00,-21.00,-8.00,-1.00,+1.00,-3.00,-3.00,-2.00,-3.00
-6.00,-7.00,-3.00,-1.00,-3.00,-2.00,-1.00,-2.00,+2.00,-1.00,-3.00,-3.00,+0.00,+0.00,-1.00,-3.00
+6.00,+4.00,+5.00,+2.00,+0.00,+0.00,-2.00,+1.00,-14.00,-15.00,-4.00,-2.00,+1.00,+0.00,-1.00,-3.00
-7.00,-15.00,-3.00,-2.00,-3.00,+0.00,-1.00,-8.00,+19.00,+16.00,+3.00,+1.00,+1.00,-1.00,+1.00,+2.00
-5.00,-21.00,-3.00,-1.00,-2.00,+0.00,+0.00,+3.00,+1.00,+8.00,+0.00,+0.00,-3.00,+1.00,+0.00,+1.00
-3.00,-20.00,-2.00,-2.00,-1.00,-3.00,+1.00,+1.00,+5.00,-1.00,-2.00,-1.00,-1.00,+0.00,+0.00,+0.00
-6.00,-8.00,+0.00,-2.00,+1.00,-1.00,-1.00,-6.00,+3.00,+1.00,+1.00,+0.00,-1.00,-2.00,+0.00,+2.00
+10.00,+12.00,-1.00,-1.00,-1.00,-2.00,-2.00,-14.00,-15.00,-17.00,-4.00,-2.00,-1.00,-3.00,-5.00,-10.00
-4.00,-3.00,-2.00,-1.00,-1.00,+1.00,-2.00,+1.00,-2.00,-7.00,-1.00,-1.00,-2.00,-1.00,+2.00,+1.00
+0.00,-1.00,-3.00,-3.00,-2.00,-3.00,-3.00,-4.00,+1.00,+2.00,+0.00,+0.00,-2.00,-1.00,+0.00,+0.00
-11.00,-39.00,-4.00,-2.00,+0.00,+0.00,+0.00,-5.00,+8.00,+2.00,-2.00,+0.00,+0.00,-1.00,-1.00,+0.00
+4.00,+27.00,+5.00,-1.00,+2.00,+0.00,+0.00,+9.00,-16.00,-7.00,+1.00,-1.00,-3.00,-3.00,-1.00,-6.00
+1.00,+5.00,-1.00,-2.00,-2.00,-1.00,+0.00,+0.00,+0.00,-1.00,-2.00,+0.00,+0.00,-1.00,-1.00,+4.00
+1.00,-1.00,-2.00,+0.00,-1.00,-1.00,+0.00,-2.00,-8.00,-2.00,-3.00,-1.00,-1.00,+0.00,-1.00,-3.00
-4.00,-4.00,-5.00,-1.00,-2.00,+0.00,+0.00,-1.00,+1.00,+2.00,+0.00,-2.00,-1.00,+0.00,-4.00,-3.00
+3.00,-23.00,-1.00,+0.00,+0.00,-2.00,-2.00,+4.00,+4.00,+0.00,-2.00,+0.00,+0.00,-1.00,-1.00,+1.00
+0.00,-4.00,+2.00,+1.00,-3.00,-1.00,+0.00,+3.00,-8.00,-9.00,-1.00,+1.00,-2.00,+0.00,+0.00,-2.00
+2.00,+22.00,+1.00,-1.00,-1.00,+0.00,+0.00,+4.00,-8.00,-7.00,-2.00,+0.00,-2.00,-2.00,-2.00,-5.00
+1.00,+8.00,-2.00,-1.00,-1.00,-2.00,-2.00,-3.00,+12.00,+25.00,+6.00,+0.00,+0.00,+0.00,+1.00,+10.00
-5.00,+12.00,+3.00,+0.00,+0.00,+0.00,+0.00,+16.00,-3.00,-2.00,-1.00,+0.00,+1.00,+0.00,-1.00,+1.00
-5.00,-11.00,-4.00,+0.00,-1.00,-2.00,+0.00,-2.00,-1.00,+5.00,-1.00,-3.00,+0.00,+1.00,-1.00,-3.00
-2.00,-10.00,-1.00,-1.00,+0.00,-2.00,-1.00,-2.00,+1.00,-2.00,+0.00,+0.00,-1.00,-1.00,-1.00,-2.00
-1.00,+9.00,+1.00,-2.00,+1.00,+0.00,+0.00,-4.00,-5.00,-7.00,+0.00,+0.00,-1.00,-2.00,-1.00,-2.00
-3.00,-1.00,-4.00,-2.00,-3.00,-1.00,-1.00,-6.00,+0.00,-3.00,+0.00,-2.00,-1.00,-1.00,-1.00,+1.00
-1.00,-4.00,+3.00,-2.00,-1.00,-1.00,-1.00,+1.00,+2.00,-3.00,-2.00,-1.00,-1.00,+1.00,-2.00,+1.00
+0.00,-2.00,-1.00,+1.00,+1.00,+0.00,-2.00,+1.00,+1.00,+2.00,+0.00,-1.00,-3.00,-2.00,-2.00,+0.00
+3.00,+1.00,-2.00,-1.00,-2.00,+0.00,-1.00,-3.00,-3.00,-4.00,-2.00,+0.00,-1.00,-3.00,-1.00,-3.00
-2.00,-5.00,-2.00,-1.00,-2.00,+1.00,-1.00,-2.00,-1.00,-2.00,-1.00,-1.00,-1.00,-1.00,-2.00,-1.00
+6.00,+2.00,-1.00,-2.00,-1.00,+0.00,+1.00,+7.00,+0.00,-2.00,-1.00,+1.00,-3.00,-4.00,-3.00,-5.00
+4.00,-5.00,-3.00,-1.00,-1.00,+1.00,+0.00,-2.00,-1.00,+0.00,-4.00,-2.00,-2.00,-1.00,+3.00,+4.00
-1.00,+4.00,+2.00,+0.00,-1.00,-1.00,-1.00,+0.00,-3.00,-3.00,-3.00,+0.00,-1.00,-1.00,+1.00,-4.00
+8.00,+8.00,+0.00,+1.00,+0.00,-2.00,+0.00,-1.00,-7.00,-3.00,-5.00,-2.00,-2.00,-2.00,-1.00,-5.00
-4.00,+0.00,-3.00,+0.00,-3.00,+1.00,-1.00,+2.00,-1.00,-14.00,-6.00,-3.00,-1.00,-2.00,-2.00,+0.00
-3.00,-3.00,-2.00,-1.00,-3.00,-1.00,-1.00,-5.00,+7.00,+15.00,-2.00,-1.00,+0.00,-1.00,-4.00,-3.00
+8.00,+4.00,+0.00,+0.00,-1.00,+1.00,+1.00,+1.00,-1.00,+2.00,-1.00,+0.00,+0.00,-1.00,+0.00,+2.00
-5.00,-5.00,-2.00,-5.00,+0.00,-1.00,+0.00,-1.00,-7.00,-4.00,-2.00,+0.00,-1.00,-1.00,-1.00,-2.00
-4.00,-5.00,-2.00,-2.00,+0.00,-1.00,-2.00,-3.00,+0.00,+2.00,-1.00,-2.00,-2.00,-1.00,-1.00,-2.00
+2.00,-3.00,+0.00,-1.00,-1.00,+0.00,-2.00,+2.00,+3.00,-14.00,-3.00,+1.00,+0.00,-1.00,-1.00,+2.00
-2.00,+1.00,+0.00,+0.00,+0.00,+0.00,-1.00,-2.00,-8.00,-5.00,-3.00,-4.00,-3.00,-2.00,-2.00,-2.00
-4.00,-4.00,-1.00,+0.00,+0.00,-1.00,-1.00,-5.00,+2.00,+5.00,+1.00,-1.00,-1.00,+1.00,-2.00,-1.00
+1.00,+6.00,+1.00,+1.00,-1.00,-2.00,-2.00,-2.00,-4.00,-1.00,-1.00,+2.00,+1.00,+0.00,+1.00,+1.00
+0.00,-1.00,-2.00,+0.00,+0.00,+1.00,-2.00,-2.00,-5.00,-8.00,+0.00,+0.00,+0.00,-2.00,+0.00,-3.00
+3.00,-7.00,-4.00,+0.00,+0.00,+0.00,+0.00,+4.00,+1.00,+15.00,+1.00,+0.00,+0.00,-2.00,-4.00,-6.00
-4.00,-11.00,-2.00,+0.00,-1.00,-4.00,+0.00,-3.00,+3.00,+0.00,+0.00,-1.00,-2.00,+0.00,+0.00,+5.00
+1.00,+3.00,+1.00,+1.00,+1.00,+0.00,+0.00,-3.00,-5.00,-1.00,+0.00,-3.00,-1.00,-1.00,-2.00,-6.00
-1.00,+7.00,-2.00,-1.00,+1.00,-1.00,+0.00,+3.00,-2.00,-2.00,+0.00,-1.00,+0.00,-1.00,+1.00,+2.00
-5.00,-11.00,-2.00,-1.00,-3.00,-2.00,-1.00,-2.00,+4.00,-5.00,-3.00,-4.00,-1.00,-1.00,+1.00,+1.00
+10.00,+23.00,+2.00,+0.00,-2.00,-1.00,+0.00,+4.00,-8.00,-9.00,-1.00,-2.00,+0.00,-2.00,-2.00,-5.00
+7.00,-9.00,-3.00,+0.00,+0.00,-3.00,-3.00,-11.00,+7.00,+5.00,+1.00,+1.00,-1.00,+0.00,-2.00,+3.00
-1.00,+2.00,-1.00,+1.00,-2.00,-2.00,+0.00,+5.00,-2.00,+2.00,-2.00,-3.00,-2.00,-1.00,+0.00,+0.00
+0.00,+3.00,+2.00,+0.00,-1.00,-1.00,+0.00,-1.00,-4.00,-8.00,-1.00,+0.00,-2.00,-2.00,-2.00,+0.00
-2.00,-10.00,-2.00,-1.00,-2.00,-1.00,-1.00,-6.00,+3.00,+2.00,+1.00,+0.00,+1.00,-1.00,+1.00,+0.00
-2.00,-3.00,+0.00,-1.00,-1.00,-1.00,-1.00,+3.00,-2.00,+0.00,-1.00,-1.00,+0.00,-1.00,-2.00,-3.00
-8.00,-14.00,-2.00,-2.00,-1.00,-1.00,-1.00,-5.00,+6.00,+5.00,+2.00,+0.00,-2.00,-2.00,-2.00,+2.00
-1.00,+3.00,+0.00,-2.00,-2.00,-1.00,-1.00,-1.00,-4.00,-13.00,-2.00,-2.00,-3.00,+0.00,+0.00,-3.00
+4.00,+23.00,+1.00,+0.00,-2.00,+1.00,+0.00,+5.00,-12.00,-3.00,-5.00,-3.00,-2.00,-1.00,+0.00,-2.00
-5.00,-11.00,+0.00,-1.00,-1.00,+2.00,+0.00,+1.00,+0.00,+3.00,-1.00,-2.00,+0.00,-1.00,+1.00,+3.00
+0.00,-4.00,-6.00,-3.00,-1.00,-1.00,-1.00,-2.00,-6.00,-5.00,-3.00,-1.00,-1.00,-1.00,-2.00,-2.00
-13.00,-21.00,-3.00,-2.00,+0.00,-1.00,-1.00,-2.00,+2.00,+0.00,-2.00,+0.00,-2.00,-1.00,-1.00,-1.00
+4.00,+7.00,-1.00,-1.00,+0.00,-1.00,-1.00,-3.00,-3.00,-6.00,+0.00,+0.00,-2.00,+0.00,-1.00,-1.00
-5.00,-7.00,+0.00,+0.00,-3.00,-4.00,-1.00,-1.00,-2.00,-1.00,-1.00,-2.00,+0.00,+1.00,+1.00,+0.00
+0.00,+1.00,+1.00,+0.00,-1.00,+0.00,-3.00,-3.00,+6.00,+4.00,-2.00,+0.00,+0.00,+0.00,-1.00,+4.00
+2.00,+5.00,+1.00,-2.00,-1.00,-1.00,-2.00,-2.00,-3.00,-6.00,-2.00,+0.00,+1.00,+0.00,+1.00,-4.00
+2.00,-10.00,-4.00,-1.00,-2.00,+0.00,-1.00,+11.00,+3.00,+2.00,+0.00,-1.00,-3.00,-3.00,-2.00,-2.00
-3.00,-3.00,+0.00,-2.00,-2.00,-1.00,-1.00,-2.00,+4.00,+5.00,-1.00,-4.00,-1.00,-3.00,+0.00,+3.00
+1.00,+2.00,+3.00,+1.00,-1.00,+0.00,-1.00,+0.00,-2.00,-3.00,+0.00,-1.00,-1.00,+0.00,+0.00,-2.00
+3.00,+3.00,-2.00,+0.00,+0.00,-3.00,+0.00,+1.00,-3.00,-4.00,-3.00,-2.00,-1.00,-2.00,-1.00,+2.00
-4.00,-6.00,+0.00,+0.00,+1.00,+0.00,-3.00,-1.00,+1.00,-9.00,-3.00,-1.00,-1.00,-1.00,-3.00,+0.00
-4.00,-10.00,-5.00,-3.00,-3.00,-1.00,-1.00,+1.00,+0.00,+10.00,+0.00,+0.00,+0.00,+0.00,-2.00,-5.00
+5.00,+30.00,+4.00,+0.00,-1.00,-2.00,-1.00,-2.00,-8.00,+0.00,+0.00,+1.00,+0.00,+0.00,-1.00,-4.00
+0.00,+5.00,-1.00,-2.00,+0.00,+0.00,-3.00,+2.00,-3.00,-2.00,-3.00,-1.00,+0.00,+0.00,+0.00,-2.00
-10.00,-8.00,-1.00,-2.00,-3.00,-1.00,-4.00,-4.00,+2.00,+2.00,-1.00,-1.00,-2.00,-2.00,+1.00,-2.00
-1.00,+1.00,+1.00,+2.00,+0.00,+1.00,+1.00,-1.00,-4.00,-12.00,-2.00,-1.00,-1.00,-2.00,+1.00,+1.00
-2.00,-7.00,-3.00,-3.00,+1.00,-1.00,-1.00,-3.00,+0.00,+2.00,+1.00,-1.00,-1.00,-2.00,-1.00,-1.00
-8.00,+5.00,+0.00,+0.00,-1.00,-1.00,+1.00,+13.00,-2.00,+2.00,+0.00,-1.00,-1.00,-1.00,-2.00,-3.00
-9.00,-9.00,-5.00,-3.00,+0.00,+0.00,+0.00,+0.00,+7.00,+4.00,+1.00,+0.00,+0.00,+1.00,+0.00,+2.00
+2.00,+4.00,+0.00,+0.00,-2.00,-2.00,-4.00,-18.00,-4.00,-1.00,+0.00,-2.00,-2.00,-1.00,+0.00,-2.00
+2.00,-8.00,+0.00,+1.00,-1.00,-1.00,+0.00,+4.00,-4.00,+0.00,+0.00,+0.00,+0.00,+0.00,-3.00,-4.00
-3.00,+5.00,-3.00,-1.00,-3.00,-2.00,+0.00,-6.00,-2.00,-3.00,+0.00,+0.00,-1.00,+1.00,-1.00,+1.00
-4.00,-2.00,+0.00,+0.00,+0.00,-3.00,+0.00,-5.00,-3.00,-3.00,-2.00,-1.00,-1.00,-3.00,+1.00,+1.00
-7.00,-3.00,-3.00,-2.00,+1.00,-2.00,+0.00,+11.00,+2.00,-1.00,-1.00,+0.00,+0.00,-1.00,-2.00,+0.00
-2.00,-6.00,-3.00,-4.00,-1.00,-1.00,+0.00,+0.00,-1.00,+0.00,-2.00,+0.00,+0.00,-2.00,-3.00,-1.00
+2.00,-4.00,-1.00,-1.00,+1.00,-1.00,-3.00,-10.00,-3.00,-1.00,+1.00,-1.00,-1.00,-2.00,-1.00,-1.00
-4.00,-5.00,-2.00,-1.00,-2.00,+0.00,+1.00,-5.00,+0.00,-7.00,+0.00,-1.00,-1.00,+0.00,+0.00,-3.00
+1.00,-5.00,-1.00,-2.00,-1.00,-2.00,-1.00,-1.00,+2.00,+6.00,+0.00,+1.00,-3.00,+1.00,-2.00,+0.00
-5.00,-11.00,+1.00,+0.00,-2.00,-2.00,-3.00,-3.00,-4.00,+3.00,+2.00,-1.00,-1.00,-1.00,-1.00,-3.00
+3.00,+8.00,+1.00,-1.00,+0.00,-1.00,-2.00,-1.00,-9.00,-6.00,-2.00,-1.00,+0.00,+0.00,+0.00,+2.00
+2.00,-2.00,-2.00,-1.00,-1.00,+1.00,+3.00,+9.00,+0.00,-3.00,-2.00,-2.00,-2.00,+0.00,-1.00,+0.00
-4.00,+5.00,+0.00,-1.00,+1.00,+1.00,-1.00,-6.00,-1.00,-6.00,-2.00,-3.00,-2.00,-1.00,+5.00,+4.00
-6.00,-16.00,-4.00,-2.00,-2.00,-2.00,+0.00,+0.00,+5.00,+3.00,-1.00,-2.00,-2.00,+0.00,+1.00,+1.00
+0.00,-4.00,-1.00,+0.00,-1.00,-2.00,+1.00,+4.00,-1.00,+7.00,+2.00,-2.00,-1.00,-1.00,-2.00,-3.00
+0.00,+2.00,+2.00,+0.00,+0.00,-2.00,-2.00,-3.00,-2.00,-15.00,-4.00,+0.00,+1.00,+0.00,-2.00,+0.00
+2.00,-2.00,-3.00,-2.00,-1.00,-1.00,-2.00,+1.00,+0.00,+4.00,-1.00,-2.00,-1.00,-3.00,-3.00,-4.00
+0.00,+7.00,-1.00,+0.00,-1.00,+0.00,+0.00,+2.00,+5.00,+18.00,+5.00,-1.00,-2.00,-2.00,-3.00,+1.00
+4.00,+3.00,-3.00,-2.00,-2.00,+0.00,-1.00,-5.00,-1.00,+0.00,-1.00,-1.00,-3.00,-2.00,+2.00,+2.00
-1.00,-1.00,+3.00,+0.00,+1.00,-1.00,-3.00,-5.00,-1.00,-3.00,-2.00,-3.00,-2.00,-1.00,-1.00,-2.00
-4.00,+0.00,-2.00,+0.00,-1.00,-1.00,+0.00,+5.00,+1.00,-2.00,-2.00,-2.00,+0.00,-1.00,-3.00,-3.00
+3.00,+4.00,+0.00,+0.00,+0.00,+0.00,+0.00,-2.00,+2.00,-11.00,-3.00,-1.00,+0.00,-2.00,-1.00,-3.00
+3.00,+1.00,+0.00,-1.00,+0.00,+0.00,-1.00,-1.00,+1.00,-1.00,-3.00,-2.00,+0.00,-3.00,-3.00,-6.00
-2.00,-3.00,+2.00,+0.00,+0.00,+1.00,+1.00,+10.00,+2.00,+4.00,+0.00,+0.00,-2.00,-2.00,-1.00,+3.00
+6.00,+5.00,+1.00,-1.00,-2.00,-2.00,-1.00,-5.00,-2.00,-3.00,-1.00,+3.00,+1.00,-2.00,-4.00,-6.00
-1.00,+2.00,+2.00,+1.00,+0.00,-1.00,-2.00,-1.00,-4.00,-11.00,-3.00,-2.00,+0.00,+0.00,+0.00,+3.00
-2.00,-3.00,+0.00,-1.00,-2.00,-3.00,+0.00,-1.00,+1.00,-6.00,-2.00,+0.00,-3.00,+2.00,+0.00,-1.00
-1.00,-2.00,-2.00,-2.00,-1.00,-1.00,-2.00,-10.00,+1.00,+17.00,+4.00,+0.00,-1.00,-1.00,-1.00,-2.00
+1.00,+0.00,-2.00,+0.00,-1.00,+0.00,-1.00,+3.00,-2.00,-2.00,-1.00,-1.00,+0.00,-1.00,+0.00,-2.00
-10.00,+3.00,-1.00,+0.00,-1.00,+0.00,-1.00,-7.00,+1.00,+0.00,-1.00,-2.00,-4.00,-2.00,+0.00,-3.00
-4.00,-1.00,+1.00,+0.00,-1.00,+1.00,+0.00,+7.00,-2.00,-9.00,-1.00,-1.00,+0.00,-2.00,-2.00,+0.00
+3.00,+1.00,-1.00,+0.00,-2.00,+0.00,+0.00,+1.00,-6.00,+0.00,-3.00,+0.00,-1.00,+0.00,+1.00,-1.00
+0.00,+1.00,-2.00,-1.00,+0.00,+1.00,-1.00,+1.00,+1.00,-1.00,+0.00,-1.00,-3.00,+0.00,+2.00,+1.00
-2.00,-4.00,-1.00,-2.00,+1.00,-2.00,+0.00,+5.00,-5.00,-4.00,-2.00,+0.00,-1.00,-2.00,-3.00,-5.00
-1.00,+0.00,-1.00,-1.00,-1.00,-3.00,+0.00,-5.00,+1.00,+0.00,-2.00,-2.00,+0.00,-1.00,+1.00,+0.00
+1.00,-2.00,-3.00,+0.00,-2.00,-1.00,-1.00,-2.00,-1.00,-9.00,-2.00,+1.00,-2.00,-2.00,-1.00,-2.00
+1.00,-5.00,-2.00,+0.00,-2.00,-1.00,+2.00,+6.00,-3.00,+25.00,+5.00,+0.00,-2.00,-3.00,-4.00,-2.00
+2.00,+0.00,+0.00,-1.00,+1.00,-3.00,-1.00,-5.00,-3.00,-8.00,-5.00,-1.00,+0.00,-1.00,-1.00,+1.00
-2.00,-3.00,-4.00,-2.00,-2.00,-1.00,+0.00,+15.00,-1.00,+4.00,-1.00,+0.00,-1.00,-1.00,-3.00,-2.00
-1.00,-1.00,-2.00,+0.00,-1.00,-3.00,-2.00,-7.00,-4.00,-3.00,+0.00,-1.00,-1.00,+1.00,+3.00,+5.00
-1.00,+1.00,-1.00,+0.00,+0.00,-1.00,+1.00,-1.00,-1.00,-14.00,-3.00,-2.00,-2.00,+0.00,+0.00,+0.00
+2.00,-5.00,-2.00,+0.00,-1.00,+2.00,-1.00,-2.00,+1.00,+3.00,+0.00,+0.00,+0.00,-1.00,-1.00,-3.00
-3.00,-4.00,-1.00,+0.00,+2.00,+2.00,-1.00,-2.00,-1.00,+2.00,+0.00,+0.00,-1.00,-1.00,-1.00,+0.00
-1.00,+3.00,-1.00,+0.00,+1.00,+0.00,+0.00,-1.00,-4.00,-3.00,-2.00,-3.00,+0.00,-2.00,-3.00,-6.00
-4.00,-3.00,-1.00,+0.00,-3.00,+1.00,-1.00,-2.00,+0.00,-5.00,-1.00,-1.00,-1.00,-1.00,-1.00,+2.00
-1.00,-1.00,-1.00,-1.00,-1.00,+0.00,-1.00,-1.00,-1.00,+2.00,-1.00,-1.00,-1.00,+0.00,+1.00,+3.00
-1.00,-4.00,+1.00,+0.00,-2.00,-1.00,-3.00,-5.00,+1.00,-3.00,+0.00,-1.00,-1.00,-1.00,+0.00,-1.00
+0.00,-3.00,-1.00,+0.00,-2.00,-2.00,-3.00,-4.00,-2.00,+2.00,-2.00,-2.00,-1.00,-1.00,-3.00,-4.00
-2.00,+1.00,+1.00,+0.00,+0.00,-1.00,+0.00,-3.00,-1.00,-4.00,-2.00,-2.00,+0.00,+0.00,-1.00,-1.00
-2.00,-3.00,-1.00,-1.00,+1.00,-1.00,-1.00,+1.00,-2.00,-3.00,+0.00,-2.00,-1.00,+0.00,-2.00,-2.00
+0.00,+0.00,-1.00,-1.00,-1.00,+0.00,+1.00,-3.00,-1.00,-1.00,-1.00,-2.00,+1.00,-1.00,-1.00,-2.00
-3.00,+0.00,-1.00,-2.00,+1.00,+0.00,+0.00,-1.00,-1.00,-6.00,-2.00,-2.00,-1.00,-2.00,-1.00,-1.00
-1.00,+4.00,+0.00,+1.00,+0.00,-2.00,-1.00,+0.00,+0.00,+1.00,-2.00,-2.00,-1.00,+0.00,+0.00,-1.00
+7.00,-2.00,-2.00,-1.00,-2.00,+0.00,-1.00,-8.00,+2.00,+4.00,+0.00,+1.00,+0.00,+0.00,+0.00,+2.00
-2.00,+1.00,+0.00,+1.00,+0.00,-2.00,-1.00,-2.00,-1.00,+0.00,+0.00,+0.00,+1.00,+0.00,+1.00,-1.00
-6.00,-2.00,-3.00,-4.00,-2.00,-1.00,+0.00,+4.00,-1.00,+4.00,-1.00,-1.00,-1.00,-2.00,-2.00,-1.00
-5.00,-1.00,-1.00,-1.00,+0.00,-1.00,-2.00,-15.00,+1.00,-12.00,-1.00,-1.00,+0.00,-1.00,+4.00,+8.00
+4.00,-1.00,+0.00,+0.00,-1.00,-2.00,+0.00,-3.00,-1.00,-2.00,+0.00,-1.00,-1.00,-1.00,-2.00,-1.00
-2.00,+2.00,+1.00,+0.00,-1.00,+0.00,-1.00,-8.00,-1.00,+2.00,-2.00,-2.00,-2.00,-1.00,-3.00,-5.00
+2.00,-4.00,+0.00,-1.00,-1.00,-2.00,+0.00,+4.00,+1.00,+2.00,-1.00,+0.00,-1.00,-1.00,+0.00,-2.00
-1.00,+1.00,+1.00,-1.00,+1.00,+0.00,-3.00,+2.00,-1.00,-1.00,-1.00,-1.00,-2.00,-1.00,-2.00,-1.00
+0.00,+1.00,-1.00,-1.00,-1.00,-2.00,-1.00,+5.00,-2.00,-2.00,+0.00,-1.00,-1.00,+0.00,-1.00,+0.00
+3.00,-1.00,-1.00,-1.00,-2.00,-1.00,-3.00,-2.00,-1.00,-2.00,-2.00,+1.00,+0.00,-4.00,-1.00,+0.00
+3.00,+0.00,+0.00,-1.00,+1.00,-1.00,-3.00,-2.00,-1.00,+1.00,-2.00,-1.00,+0.00,+0.00,-1.00,-3.00
-1.00,+0.00,+1.00,+0.00,-1.00,+0.00,-1.00,+1.00,-3.00,-3.00,-2.00,-1.00,-1.00,-1.00,-2.00,-5.00
-2.00,-1.00,+0.00,+1.00,-1.00,+2.00,-1.00,-1.00,-1.00,+0.00,-1.00,-1.00,-1.00,-2.00,-1.00,-2.00
-2.00,-2.00,-2.00,+0.00,-1.00,-1.00,+0.00,+0.00,-2.00,-5.00,-2.00,-1.00,-2.00,-1.00,-3.00,-2.00
+1.00,-1.00,-2.00,-1.00,-1.00,-2.00,+0.00,-5.00,+0.00,+2.00,-1.00,+1.00,-1.00,-1.00,+0.00,+0.00
-2.00,+1.00,-2.00,-1.00,-1.00,+1.00,+2.00,+3.00,-3.00,+1.00,+0.00,-2.00,-1.00,-2.00,+0.00,-2.00
-2.00,+2.00,-2.00,+1.00,-2.00,-2.00,-4.00,-3.00,+1.00,-6.00,-3.00,-2.00,-2.00,+1.00,+0.00,-1.00
-2.00,-1.00,+0.00,-2.00,-1.00,-1.00,+0.00,-2.00,+0.00,+0.00,+0.00,-1.00,-2.00,-1.00,+1.00,-1.00
-4.00,-2.00,-2.00,-1.00,-1.00,+0.00,-3.00,-3.00,+1.00,+1.00,+2.00,+0.00,-1.00,-1.00,-3.00,-2.00
+3.00,+1.00,-1.00,-2.00,-1.00,+0.00,-1.00,+3.00,+0.00,-5.00,-2.00,-1.00,-1.00,-1.00,-1.00,+0.00
-2.00,+0.00,+2.00,-1.00,-1.00,-2.00,+1.00,+0.00,-1.00,-3.00,-3.00,+0.00,-1.00,+0.00,-2.00,-3.00
+16.00,+1.00,+0.00,+0.00,+0.00,+0.00,-1.00,-17.00,-1.00,-10.00,-3.00,+0.00,+0.00,+1.00,-3.00,-2.00
-1.00,-3.00,-3.00,+0.00,+1.00,-4.00,-2.00,+0.00,-2.00,+11.00,-1.00,-3.00,-1.00,+0.00,+3.00,+2.00
-2.00,-2.00,-1.00,+0.00,+0.00,-1.00,+0.00,-2.00,+0.00,-1.00,+1.00,+0.00,+0.00,-1.00,-2.00,-4.00
+1.00,+0.00,+0.00,-2.00,-1.00,+1.00,-1.00,+2.00,-2.00,-1.00,-4.00,-2.00,-1.00,-1.00,-2.00,-2.00
+0.00,-1.00,+1.00,+0.00,-1.00,-2.00,-2.00,-1.00,-2.00,+2.00,+0.00,-1.00,-1.00,-2.00,-1.00,-2.00
+0.00,-2.00,-1.00,-3.00,+1.00,+1.00,+0.00,-1.00,-1.00,-8.00,+0.00,-1.00,+0.00,-1.00,-1.00,-2.00
-3.00,-3.00,-1.00,+1.00,-1.00,-2.00,+0.00,+0.00,-2.00,+0.00,-1.00,-2.00,-1.00,-1.00,-3.00,-3.00
-1.00,-1.00,+0.00,-1.00,-1.00,-1.00,+1.00,+1.00,-2.00,+0.00,-1.00,+0.00,-1.00,-3.00,+0.00,+0.00
-6.00,+0.00,-3.00,-1.00,-1.00,-1.00,-1.00,+2.00,-2.00,-1.00,-1.00,-1.00,-1.00,+0.00,+0.00,-1.00
-1.00,-1.00,+1.00,-2.00,-2.00,+1.00,-1.00,+2.00,-1.00,-4.00,+0.00,+1.00,-2.00,-2.00,-2.00,-3.00
-2.00,-1.00,-1.00,-2.00,-1.00,-1.00,+0.00,+2.00,-1.00,+3.00,+0.00,-1.00,-1.00,+0.00,-1.00,-1.00
-3.00,-2.00,-1.00,+0.00,+1.00,+1.00,+0.00,-1.00,+0.00,-1.00,-1.00,+1.00,+0.00,-1.00,-1.00,+2.00
+0.00,+0.00,-2.00,-1.00,-1.00,+0.00,-1.00,+3.00,+0.00,+0.00,-1.00,-1.00,-1.00,+0.00,-1.00,+1.00
-2.00,-2.00,-1.00,+0.00,-1.00,+0.00,-2.00,-7.00,+1.00,-1.00,-1.00,-2.00,-2.00,-2.00,+0.00,+1.00
+5.00,+0.00,+1.00,+1.00,+0.00,+1.00,+0.00,+1.00,-1.00,-2.00,-3.00,-1.00,-1.00,+2.00,+0.00,-3.00
-3.00,-1.00,-1.00,-2.00,-1.00,-1.00,-1.00,+1.00,-3.00,-4.00,-1.00,-4.00,+0.00,-1.00,-2.00,-4.00
-2.00,-3.00,+0.00,+0.00,+1.00,-1.00,-1.00,-1.00,-4.00,-1.00,-2.00,-3.00,-1.00,-2.00,-1.00,-3.00
+0.00,-1.00,+1.00,+0.00,-3.00,-1.00,-2.00,+0.00,+1.00,+0.00,-2.00,+0.00,-1.00,+0.00,-1.00,+2.00
-2.00,-2.00,-3.00,-3.00,-1.00,-1.00,+0.00,+2.00,-2.00,-4.00,-2.00,-1.00,-1.00,-3.00,-2.00,-3.00
-4.00,+1.00,-1.00,-2.00,-1.00,+0.00,+2.00,+2.00,-2.00,-1.00,+0.00,+0.00,+0.00,-1.00,-1.00,-3.00
-5.00,-2.00,-1.00,+0.00,-1.00,-3.00,-2.00,-7.00,+3.00,+4.00,-2.00,+0.00,-1.00,+1.00,+1.00,+2.00
-2.00,+1.00,-1.00,-2.00,-2.00,+2.00,+3.00,+16.00,-1.00,-1.00,-1.00,+0.00,-1.00,-1.00,-3.00,-1.00
+2.00,+3.00,+1.00,+1.00,-1.00,-1.00,-2.00,-2.00,-2.00,+1.00,-1.00,+0.00,-1.00,+0.00,+2.00,+5.00
-3.00,-1.00,-1.00,-1.00,-1.00,-2.00,-1.00,-1.00,-3.00,-2.00,-2.00,-3.00,-1.00,-1.00,+1.00,-2.00
+1.00,-1.00,-3.00,-1.00,-1.00,-1.00,-2.00,+0.00,-4.00,+0.00,-1.00,-3.00,-3.00,+0.00,-2.00,-2.00
-3.00,+1.00,+2.00,+0.00,+0.00,-1.00,+1.00,-3.00,-2.00,-1.00,-1.00,-1.00,+0.00,-2.00,-2.00,-3.00
-7.00,-2.00,-3.00,-1.00,+1.00,+0.00,+0.00,+8.00,+2.00,-4.00,-3.00,-2.00,-1.00,-1.00,-5.00,+0.00
+0.00,-2.00,-2.00,+0.00,+1.00,+0.00,-1.00,-2.00,-1.00,+0.00,+1.00,-1.00,-2.00,-2.00,+1.00,+1.00
-1.00,-1.00,-2.00,-1.00,-2.00,-1.00,+1.00,+3.00,-1.00,-1.00,+0.00,-2.00,-1.00,+0.00,+2.00,+3.00
-1.00,-1.00,-2.00,-1.00,+0.00,-1.00,-2.00,-5.00,+0.00,+0.00,+0.00,+0.00,-1.00,-2.00,+0.00,-3.00
-2.00,-2.00,-2.00,-3.00,-2.00,-2.00,-1.00,-4.00,-2.00,+0.00,-1.00,+0.00,-1.00,-2.00,-2.00,-2.00
-2.00,+1.00,+2.00,-2.00,-1.00,+0.00,-3.00,-5.00,-1.00,-1.00,-1.00,-1.00,-2.00,-1.00,-2.00,-3.00
+0.00,-1.00,+1.00,+0.00,-1.00,+1.00,+0.00,-4.00,-1.00,-1.00,-3.00,-1.00,-3.00,+1.00,-1.00,-3.00
+1.00,+1.00,-1.00,+0.00,-3.00,-3.00,-2.00,-1.00,-1.00,-1.00,-1.00,-2.00,+0.00,+0.00,+1.00,+3.00
-4.00,-2.00,-1.00,+0.00,+0.00,-2.00,-1.00,-2.00,-1.00,-1.00,+0.00,+1.00,-2.00,-1.00,+0.00,-4.00
-3.00,-4.00,-4.00,+1.00,-1.00,-2.00,-2.00,-7.00,-1.00,-1.00,-1.00,-1.00,+1.00,-1.00,-2.00,-2.00
+2.00,+1.00,+0.00,-1.00,-2.00,-1.00,+0.00,+3.00,+1.00,+0.00,+1.00,+2.00,+0.00,-1.00,-1.00,+1.00
-5.00,-1.00,-3.00,-3.00,+0.00,+0.00,+1.00,+10.00,-3.00,-1.00,-1.00,-1.00,-2.00,+0.00,-3.00,-3.00
-1.00,-3.00,-3.00,-1.00,-1.00,-2.00,-2.00,-3.00,+0.00,-3.00,-2.00,+0.00,-3.00,-1.00,-1.00,+3.00
-3.00,+2.00,+0.00,+0.00,-1.00,-2.00,-1.00,+1.00,+0.00,+0.00,-2.00,-1.00,-1.00,+0.00,-1.00,-1.00
-5.00,-1.00,+0.00,-2.00,+0.00,+0.00,-2.00,+3.00,-2.00,+0.00,+0.00,-1.00,-1.00,-1.00,-1.00,-3.00
+0.00,-3.00,-1.00,+0.00,-1.00,-2.00,-2.00,-8.00,+0.00,-3.00,-2.00,-3.00,-2.00,+1.00,+0.00,-1.00
+1.00,+0.00,+0.00,-2.00,-1.00,+0.00,-2.00,-2.00,-2.00,+0.00,+0.00,+1.00,-2.00,-2.00,-2.00,-4.00
+0.00,-1.00,-1.00,+0.00,-1.00,+1.00,-1.00,+2.00,-1.00,-5.00,-3.00,-1.00,-2.00,-1.00,+0.00,+0.00
-1.00,+0.00,+0.00,-2.00,+0.00,-2.00,-1.00,-6.00,+0.00,+0.00,+0.00,-1.00,+0.00,-5.00,+1.00,+4.00
+1.00,+0.00,+2.00,+2.00,+0.00,-1.00,+0.00,-2.00,-1.00,-2.00,-4.00,-2.00,-2.00,-2.00,-2.00,-4.00
+0.00,-3.00,-1.00,-3.00,-2.00,-2.00,-2.00,-4.00,+0.00,+1.00,+1.00,-1.00,-1.00,-1.00,+1.00,+3.00
+0.00,-2.00,-2.00,+0.00,+0.00,-2.00,+0.00,+1.00,-1.00,-4.00,-1.00,-1.00,+0.00,-1.00,+1.00,+0.00
-4.00,-2.00,+0.00,-1.00,+0.00,+0.00,-2.00,+1.00,-3.00,-2.00,+0.00,-3.00,+0.00,+0.00,-1.00,-2.00
-1.00,+1.00,+1.00,+0.00,+0.00,+1.00,-1.00,-2.00,+2.00,+1.00,+2.00,+1.00,+0.00,-2.00,-1.00,-1.00
+5.00,+3.00,+0.00,+1.00,-1.00,-1.00,-1.00,+1.00,+1.00,-4.00,-3.00,-3.00,-2.00,-3.00,-3.00,-2.00
+3.00,-2.00,-2.00,+0.00,-2.00,-1.00,+0.00,+0.00,-2.00,+0.00,-2.00,-2.00,-3.00,-1.00,+0.00,+3.00
-4.00,-1.00,+0.00,+0.00,-1.00,-1.00,-1.00,-1.00,-3.00,+0.00,+1.00,+1.00,-3.00,+0.00,-3.00,-3.00
+1.00,-2.00,-3.00,-2.00,+1.00,-1.00,+0.00,-4.00,-2.00,-2.00,+0.00,+0.00,+0.00,+0.00,-2.00,-1.00
-2.00,+0.00,+1.00,+0.00,+0.00,-1.00,-1.00,-3.00,-2.00,-2.00,-3.00,+0.00,+2.00,-1.00,-4.00,-5.00
-2.00,-1.00,-2.00,+0.00,+0.00,+0.00,-1.00,+1.00,+0.00,+2.00,+0.00,+0.00,+1.00,-2.00,+0.00,+1.00
+1.00,+1.00,-3.00,-2.00,-2.00,+0.00,-1.00,-3.00,+1.00,-3.00,-3.00,-1.00,-1.00,-2.00,-1.00,-2.00
+3.00,-1.00,-2.00,+1.00,-3.00,+0.00,+0.00,-12.00,+0.00,+2.00,+0.00,-1.00,+0.00,-2.00,+1.00,+3.00
-2.00,+0.00,-2.00,+1.00,-2.00,-2.00,-1.00,+5.00,-3.00,-1.00,+0.00,-1.00,-2.00,+0.00,+2.00,-2.00
+1.00,-3.00,-1.00,+0.00,+0.00,-1.00,-1.00,-2.00,-3.00,-1.00,-2.00,-1.00,+2.00,-1.00,-2.00,-3.00
-1.00,-3.00,-2.00,-3.00,-2.00,-1.00,+2.00,+6.00,-3.00,+0.00,-1.00,-1.00,+0.00,-1.00,-2.00,-4.00
-2.00,-1.00,-1.00,+0.00,+0.00,-1.00,-2.00,-7.00,-1.00,-1.00,-1.00,+0.00,-2.00,-1.00,-3.00,-3.00
-3.00,-2.00,-3.00,-2.00,-2.00,-1.00,+0.00,-4.00,+0.00,+0.00,+1.00,+0.00,-1.00,-1.00,+0.00,+2.00
+1.00,+0.00,+0.00,+0.00,-1.00,-1.00,-1.00,-2.00,-2.00,-4.00,-4.00,-1.00,-2.00,-2.00,-1.00,+0.00
+8.00,-4.00,-1.00,-1.00,-1.00,-3.00,-4.00,-10.00,+0.00,-1.00,-2.00,+0.00,-1.00,-1.00,-5.00,-9.00
-1.00,-3.00,-2.00,-1.00,+1.00,+0.00,+0.00,+1.00,-2.00,-3.00,-1.00,-1.00,+0.00,-1.00,+1.00,+3.00
-4.00,-2.00,-1.00,-1.00,+1.00,+0.00,-1.00,+4.00,+1.00,+1.00,-1.00,-2.00,+0.00,+0.00,+0.00,+2.00
-2.00,-2.00,-2.00,-1.00,+0.00,+2.00,-1.00,-1.00,-2.00,-1.00,+0.00,+0.00,-3.00,+0.00,-1.00,-2.00
-3.00,+2.00,+1.00,+1.00,+0.00,+0.00,-1.00,+4.00,-1.00,-2.00,-2.00,-2.00,-3.00,-1.00,-2.00,+0.00
-2.00,-1.00,-2.00,-1.00,-3.00,-2.00,-2.00,+0.00,-3.00,-2.00,-1.00,-2.00,+0.00,-1.00,-3.00,-3.00
+4.00,+2.00,+1.00,+1.00,-1.00,+0.00,-1.00,-2.00,-4.00,-1.00,-2.00,-2.00,+0.00,+0.00,-3.00,-4.00
+3.00,+1.00,-1.00,-1.00,+1.00,-1.00,+0.00,+6.00,+0.00,+0.00,-1.00,-1.00,-1.00,-2.00,-2.00,+0.00
-5.00,-1.00,-2.00,-1.00,+0.00,-2.00,+1.00,+1.00,-2.00,-4.00,-1.00,-2.00,+1.00,-1.00,+1.00,+3.00
-1.00,+0.00,-1.00,+2.00,+1.00,-3.00,+0.00,+0.00,-1.00,-2.00,-1.00,-1.00,+0.00,-1.00,+0.00,-2.00
+1.00,-3.00,-1.00,-1.00,-2.00,+0.00,-2.00,-11.00,+1.00,+0.00,-1.00,-1.00,+0.00,-1.00,+0.00,+1.00
-7.00,-1.00,+0.00,-1.00,-2.00,-2.00,-2.00,+7.00,-1.00,+1.00,+2.00,-2.00,-1.00,-2.00,+0.00,-2.00
-7.00,-1.00,+0.00,+0.00,-1.00,+0.00,-1.00,+2.00,-1.00,-4.00,-2.00,-1.00,-2.00,+0.00,+0.00,-3.00
-5.00,-1.00,-3.00,-1.00,-2.00,+0.00,-2.00,-15.00,-1.00,+2.00,-2.00,-1.00,-2.00,+0.00,+1.00,+2.00
+0.00,-3.00,-3.00,-3.00,-1.00,+0.00,-1.00,-3.00,-4.00,-4.00,-2.00,-3.00,+0.00,+0.00,-2.00,-5.00
+0.00,-2.00,-1.00,-3.00,+0.00,+0.00,+0.00,-3.00,-1.00,+0.00,+0.00,-1.00,-2.00,-1.00,-1.00,+0.00
+0.00,-2.00,-2.00,+1.00,-1.00,-1.00,-1.00,+2.00,-1.00,-3.00,-2.00,-1.00,-1.00,-1.00,+2.00,+5.00
-3.00,+2.00,+0.00,+0.00,-1.00,-1.00,-1.00,+4.00,-3.00,-1.00,-2.00,-1.00,-2.00,-1.00,-4.00,-7.00
-3.00,+0.00,+0.00,+0.00,-1.00,+0.00,+0.00,+2.00,+0.00,+1.00,-2.00,+0.00,-1.00,+0.00,+0.00,+2.00
+1.00,+0.00,-2.00,-2.00,-2.00,-1.00,+1.00,-3.00,+0.00,+0.00,+0.00,-1.00,-2.00,+1.00,+0.00,-1.00
-2.00,-2.00,-2.00,-1.00,+0.00,-1.00,+1.00,+3.00,-2.00,+2.00,-1.00,-1.00,-3.00,-2.00,-2.00,-2.00
+0.00,+0.00,-2.00,-1.00,-1.00,+0.00,+0.00,+1.00,+0.00,-3.00,-1.00,-1.00,-2.00,-3.00,-4.00,-5.00
+0.00,+1.00,+0.00,+1.00,-1.00,-2.00,-2.00,-1.00,-1.00,-2.00,-3.00,-1.00,+1.00,-1.00,+1.00,+4.00
-3.00,+1.00,+1.00,+0.00,-2.00,-1.00,-3.00,-2.00,+0.00,-1.00,-3.00,-2.00,+0.00,-3.00,-2.00,-3.00
-4.00,-3.00,-1.00,-2.00,-4.00,-2.00,+0.00,-3.00,-3.00,-2.00,-1.00,-2.00,-2.00,-2.00,-1.00,-1.00
+2.00,-1.00,-1.00,-1.00,-1.00,+0.00,-2.00,+4.00,+2.00,+1.00,+2.00,+0.00,-2.00,-1.00,+0.00,+1.00
-2.00,-2.00,+0.00,-1.00,+0.00,-3.00,+0.00,+1.00,+0.00,-3.00,+0.00,-1.00,-3.00,-1.00,-3.00,+0.00
-2.00,+1.00,+1.00,-1.00,-2.00,+1.00,-1.00,-4.00,-1.00,-3.00,-2.00,-1.00,-2.00,-1.00,-2.00,-4.00
+0.00,-1.00,+0.00,+0.00,+2.00,-1.00,-2.00,-2.00,-1.00,+1.00,-1.00,-2.00,+0.00,+0.00,+1.00,-1.00
+2.00,+0.00,-1.00,-1.00,-2.00,-3.00,-3.00,-2.00,-2.00,-2.00,-1.00,-3.00,-1.00,-1.00,-1.00,+0.00
+3.00,-5.00,-4.00,-4.00,+0.00,-1.00,+2.00,+8.00,-2.00,-2.00,-1.00,-5.00,-1.00,+0.00,-2.00,+1.00
+1.00,-1.00,-1.00,-2.00,+0.00,-1.00,-1.00,-1.00,-4.00,-2.00,-1.00,+0.00,+0.00,+1.00,+3.00,+3.00
+3.00,+2.00,+0.00,-1.00,-2.00,+1.00,-1.00,-1.00,-1.00,+0.00,-1.00,+1.00,+1.00,-1.00,+0.00,+1.00
+0.00,-2.00,+0.00,-2.00,+1.00,-1.00,-1.00,+1.00,+0.00,-3.00,-2.00,-1.00,-2.00,-1.00,+0.00,+3.00
+0.00,+0.00,+0.00,-1.00,+0.00,-1.00,-1.00,-3.00,-1.00,-1.00,+1.00,+1.00,-2.00,-2.00,-2.00,-5.00
-1.00,-2.00,-2.00,+2.00,-1.00,-1.00,-2.00,-3.00,+0.00,+1.00,-1.00,+0.00,-2.00,+0.00,-2.00,+2.00
+3.00,+0.00,-1.00,+0.00,+0.00,+1.00,-1.00,+3.00,-3.00,-4.00,-4.00,-1.00,+0.00,-2.00,+0.00,-3.00
-2.00,-1.00,+2.00,+0.00,+0.00,-2.00,+2.00,+2.00,+3.00,+3.00,+1.00,-1.00,-1.00,+0.00,+3.00,+8.00
-4.00,+0.00,-1.00,+0.00,-3.00,-2.00,+0.00,-4.00,-1.00,-1.00,+0.00,-2.00,+0.00,+0.00,-2.00,-1.00
-2.00,-1.00,-1.00,-1.00,+0.00,+0.00,+0.00,+0.00,-1.00,-2.00,-2.00,-1.00,+1.00,-3.00,-2.00,-2.00
-3.00,-1.00,+0.00,+1.00,-2.00,-1.00,-2.00,-5.00,+0.00,+2.00,+0.00,-1.00,-1.00,+0.00,-1.00,-4.00
-1.00,-2.00,+0.00,-2.00,-2.00,-3.00,+0.00,+1.00,-2.00,-4.00,-3.00,+0.00,-1.00,-2.00,-3.00,-2.00
-2.00,-1.00,+1.00,-1.00,-2.00,-2.00,-2.00,-3.00,-2.00,-1.00,-2.00,-2.00,-2.00,-2.00,+0.00,-3.00
+1.00,+1.00,-2.00,-3.00,+0.00,+1.00,+0.00,+2.00,-1.00,+0.00,+0.00,+0.00,+0.00,+1.00,+0.00,-4.00
-4.00,-4.00,-1.00,-2.00,+1.00,+0.00,-3.00,-3.00,-3.00,+0.00,+1.00,+2.00,+0.00,+1.00,-2.00,+0.00
+4.00,+1.00,+1.00,-1.00,+1.00,+1.00,+0.00,+0.00,-3.00,-4.00,-4.00,+0.00,+1.00,+0.00,-3.00,-5.00
+1.00,-1.00,-3.00,-1.00,-2.00,+1.00,-1.00,+2.00,+3.00,+3.00,+1.00,-2.00,-1.00,+1.00,+1.00,+5.00
-1.00,+0.00,+0.00,+0.00,+1.00,-2.00,-2.00,-2.00,-2.00,-2.00,-4.00,+0.00,-2.00,-1.00,-1.00,+0.00
-3.00,-1.00,-2.00,-2.00,+0.00,+0.00,+1.00,+7.00,+0.00,+1.00,+1.00,-1.00,-2.00,-2.00,-2.00,+0.00
-6.00,-3.00,-3.00,-1.00,-1.00,+0.00,-1.00,-12.00,-5.00,-3.00,-1.00,-1.00,+0.00,-1.00,+3.00,+1.00
-3.00,+0.00,+2.00,-1.00,-1.00,-1.00,+0.00,-3.00,-1.00,+1.00,-1.00,+1.00,-1.00,+1.00,-1.00,-3.00
-1.00,-2.00,+0.00,-1.00,-3.00,-3.00,+0.00,+0.00,-1.00,+1.00,+1.00,-2.00,+0.00,-2.00,-2.00,-4.00
-1.00,-1.00,-2.00,+0.00,-1.00,-2.00,+0.00,+1.00,-1.00,-2.00,-3.00,-2.00,-2.00,-1.00,-1.00,-1.00
+0.00,-2.00,+0.00,+0.00,+0.00,+0.00,+0.00,+5.00,-1.00,+1.00,+1.00,+0.00,-3.00,-1.00,+1.00,+2.00
-1.00,+0.00,+0.00,+0.00,+0.00,+1.00,-2.00,-1.00,-3.00,-3.00,-2.00,-1.00,-1.00,-2.00,-2.00,-7.00
-4.00,-1.00,-1.00,+0.00,+0.00,-1.00,-1.00,-5.00,+1.00,+1.00,-1.00,-2.00,-1.00,+0.00,-1.00,+6.00
+2.00,+0.00,+1.00,-2.00,-1.00,-2.00,-1.00,-4.00,-2.00,-3.00,-2.00,+0.00,-1.00,-1.00,-1.00,-4.00
-2.00,-2.00,-4.00,-1.00,+0.00,+0.00,-1.00,+0.00,-2.00,+1.00,-1.00,+1.00,+2.00,-1.00,-2.00,-4.00
-2.00,+0.00,+0.00,+0.00,-1.00,-1.00,-1.00,+0.00,-1.00,-3.00,-3.00,-1.00,-1.00,-1.00,+0.00,-2.00
-1.00,+1.00,-2.00,-1.00,+0.00,+1.00,+0.00,-2.00,-1.00,+0.00,-1.00,-2.00,-1.00,-2.00,-2.00,-4.00
+2.00,+1.00,+2.00,-1.00,-2.00,+0.00,+0.00,-5.00,-1.00,+0.00,+0.00,-3.00,+0.00,-3.00,+0.00,+2.00
+0.00,-1.00,+1.00,+0.00,-3.00,-2.00,-1.00,+4.00,+1.00,-3.00,-2.00,-2.00,-3.00,-2.00,-2.00,-1.00
+1.00,-1.00,-4.00,-3.00,-2.00,-2.00,-3.00,-3.00,-1.00,-2.00,+0.00,-1.00,-1.00,-2.00,+0.00,-3.00
-1.00,-1.00,-2.00,-1.00,-1.00,-1.00,+0.00,-1.00,+0.00,-1.00,-3.00,-1.00,-3.00,-2.00,-1.00,-2.00
+1.00,-1.00,-3.00,-1.00,-2.00,+0.00,-2.00,+0.00,-1.00,-2.00,-2.00,-1.00,-1.00,+0.00,-1.00,-4.00
-3.00,-1.00,-1.00,+0.00,-1.00,-2.00,-2.00,-5.00,+1.00,+3.00,+0.00,+1.00,-1.00,-1.00,+0.00,+2.00
-1.00,-2.00,-2.00,+0.00,-1.00,+0.00,+0.00,+0.00,-4.00,-6.00,-2.00,-1.00,-3.00,-3.00,-1.00,-2.00
+1.00,-2.00,-1.00,+0.00,-2.00,+0.00,-1.00,+0.00,-1.00,-2.00,-1.00,-2.00,+1.00,+1.00,-2.00,-1.00
-1.00,+0.00,-1.00,-1.00,+2.00,+0.00,-2.00,+0.00,+0.00,-1.00,+0.00,+0.00,-2.00,+0.00,-1.00,+0.00
+1.00,+0.00,-1.00,-2.00,-1.00,-1.00,-1.00,+3.00,-2.00,-1.00,-3.00,-1.00,-1.00,+0.00,-4.00,-6.00
+1.00,-1.00,-1.00,+1.00,+0.00,-1.00,+0.00,+1.00,-1.00,-2.00,-3.00,-1.00,-2.00,+0.00,-2.00,-2.00
-3.00,-1.00,+0.00,+0.00,+0.00,-2.00,+0.00,-4.00,-1.00,+0.00,-1.00,-1.00,-2.00,-1.00,-1.00,+0.00
+2.00,+0.00,-1.00,-2.00,-1.00,-1.00,+0.00,-2.00,+0.00,+1.00,+0.00,-2.00,-1.00,+0.00,-2.00,+2.00
-1.00,+0.00,-1.00,-1.00,-2.00,-1.00,+0.00,+2.00,-1.00,-2.00,+0.00,-2.00,-1.00,+1.00,+0.00,-2.00
-3.00,-1.00,+1.00,+0.00,-1.00,-1.00,+0.00,-5.00,-3.00,+0.00,+0.00,-1.00,-1.00,-1.00,+0.00,+0.00
+2.00,+1.00,+1.00,+0.00,-1.00,-2.00,+0.00,-2.00,-1.00,+1.00,+0.00,+0.00,-2.00,-1.00,-1.00,-1.00
-2.00,-2.00,+1.00,+1.00,+0.00,-1.00,+0.00,-2.00,+0.00,-1.00,-1.00,-1.00,-1.00,-1.00,-1.00,+0.00
+8.00,-4.00,-2.00,-1.00,+1.00,-1.00,-2.00,+0.00,+0.00,+1.00,-1.00,-1.00,-1.00,-1.00,-6.00,-7.00
+1.00,+0.00,-2.00,-1.00,-1.00,+0.00,+2.00,+4.00,-3.00,-1.00,-1.00,+0.00,+0.00,-1.00,-2.00,-2.00
-3.00,-5.00,-3.00,-5.00,-3.00,-1.00,-1.00,+3.00,-1.00,-1.00,-1.00,+0.00,+0.00,+1.00,-2.00,+1.00
-1.00,-2.00,-1.00,+0.00,+1.00,-2.00,-3.00,-5.00,-2.00,-2.00,-1.00,-1.00,+0.00,+0.00,-2.00,-2.00
-3.00,+1.00,+0.00,-1.00,+1.00,+0.00,-1.00,+2.00,+0.00,+1.00,-1.00,+1.00,-1.00,+0.00,-1.00,-1.00
+0.00,-2.00,+0.00,+1.00,+1.00,+0.00,-1.00,-2.00,+2.00,+1.00,-1.00,-1.00,+2.00,+0.00,-2.00,+1.00
-1.00,+0.00,-2.00,-2.00,-1.00,-1.00,-2.00,-2.00,-3.00,-3.00,-2.00,+0.00,-2.00,-1.00,-1.00,-3.00
+0.00,-2.00,-4.00,-2.00,+0.00,-1.00,+0.00,+5.00,+0.00,+0.00,-2.00,-3.00,-2.00,-2.00,+0.00,+5.00
-3.00,+0.00,+2.00,-2.00,-3.00,-1.00,-1.00,-3.00,-2.00,-2.00,-2.00,-3.00,-2.00,-1.00,+0.00,-1.00
-1.00,-3.00,-1.00,-1.00,+0.00,-3.00,-2.00,-3.00,+0.00,-1.00,-2.00,-1.00,-1.00,+0.00,-2.00,-2.00
-1.00,-2.00,+2.00,+0.00,+1.00,-1.00,-2.00,-2.00,-3.00,-1.00,+0.00,+0.00,-1.00,+1.00,-1.00,-2.00
-6.00,+2.00,+2.00,+0.00,-1.00,+0.00,-2.00,+3.00,+1.00,-2.00,-2.00,+0.00,-1.00,-2.00,-2.00,+1.00
-2.00,-2.00,-2.00,-1.00,+0.00,+0.00,+0.00,-2.00,-3.00,-1.00,+0.00,-1.00,-1.00,+0.00,+1.00,+0.00
-1.00,+2.00,-1.00,-2.00,-2.00,+0.00,-1.00,-3.00,+0.00,-2.00,-2.00,-2.00,-2.00,+0.00,-1.00,+0.00
-2.00,-5.00,-3.00,-1.00,-1.00,+0.00,+0.00,+5.00,+1.00,+0.00,+2.00,+1.00,+0.00,-1.00,-1.00,+4.00
+2.00,-1.00,-2.00,-1.00,-1.00,-2.00,-2.00,-4.00,-1.00,-2.00,-2.00,-1.00,+0.00,+0.00,-3.00,-3.00
-3.00,-1.00,-3.00,-1.00,-2.00,-2.00,-1.00,-3.00,+0.00,-2.00,-2.00,-3.00,+0.00,-1.00,+0.00,+3.00
-4.00,-1.00,-1.00,-1.00,+0.00,-1.00,-1.00,+5.00,-1.00,+0.00,+2.00,-1.00,-1.00,-2.00,+0.00,+0.00
+1.00,-1.00,-1.00,+0.00,+0.00,-3.00,-1.00,-3.00,-1.00,-3.00,-3.00,-3.00,-1.00,-1.00,+0.00,-4.00
+3.00,-2.00,+0.00,+0.00,-2.00,+0.00,+0.00,+2.00,-1.00,-3.00,-2.00,-1.00,-2.00,-2.00,-1.00,-3.00
-1.00,-1.00,+1.00,-3.00,-1.00,-2.00,-2.00,-1.00,-2.00,+0.00,-1.00,-1.00,+0.00,-1.00,+0.00,-1.00
-1.00,-2.00,+2.00,-2.00,-2.00,-1.00,-1.00,-4.00,-2.00,-2.00,-1.00,+0.00,+0.00,-1.00,-2.00,-2.00
+7.00,+2.00,-1.00,-2.00,-2.00,-2.00,-2.00,-13.00,+1.00,-1.00,+0.00,+0.00,+1.00,-2.00,-4.00,-6.00
-2.00,-2.00,+0.00,-2.00,-1.00,+0.00,+0.00,-1.00,-2.00,-1.00,+0.00,+0.00,+0.00,-2.00,+0.00,-2.00
+0.00,+1.00,-2.00,+1.00,-1.00,+1.00,+1.00,+2.00,+1.00,-1.00,-1.00,+1.00,-1.00,+0.00,+0.00,+0.00
+0.00,+0.00,-1.00,-1.00,-1.00,+1.00,-1.00,-5.00,+1.00,+0.00,+0.00,-2.00,+0.00,+0.00,-2.00,+1.00
-2.00,-1.00,-2.00,+0.00,+1.00,+0.00,+0.00,+3.00,-1.00,-3.00,-1.00,+1.00,-1.00,-1.00,-1.00,-2.00
-3.00,+0.00,-2.00,-1.00,+0.00,+0.00,-1.00,-2.00,-1.00,+0.00,-1.00,+0.00,-1.00,+0.00,-2.00,-3.00
-1.00,-1.00,-1.00,+0.00,-2.00,-1.00,-1.00,-2.00,-1.00,-3.00,-3.00,-3.00,-4.00,-1.00,-1.00,-4.00
-2.00,+0.00,+0.00,-2.00,+0.00,+0.00,-2.00,+0.00,-1.00,+0.00,-2.00,+0.00,-2.00,-1.00,-1.00,+2.00
+0.00,-1.00,-2.00,-3.00,-3.00,-2.00,+2.00,+2.00,-2.00,-1.00,-2.00,-1.00,-1.00,-2.00,+1.00,-1.00
-4.00,+0.00,+1.00,-2.00,-1.00,-1.00,+0.00,-4.00,-1.00,+0.00,-2.00,-2.00,-1.00,-3.00,+0.00,-2.00
+0.00,-1.00,-2.00,-1.00,+0.00,-1.00,+0.00,+1.00,-2.00,-4.00,-1.00,-2.00,-1.00,+0.00,-1.00,+0.00
-1.00,-1.00,+0.00,+0.00,-2.00,-1.00,+1.00,-1.00,-2.00,+0.00,-1.00,+0.00,+0.00,-1.00,-2.00,-1.00
+1.00,+1.00,-1.00,+2.00,-1.00,-1.00,-1.00,+2.00,-2.00,-2.00,-1.00,-2.00,+2.00,-1.00,-4.00,-3.00
-3.00,-1.00,-1.00,+1.00,+0.00,-1.00,-2.00,-4.00,+0.00,+1.00,+0.00,+0.00,-2.00,+0.00,-2.00,+0.00
+5.00,-1.00,+1.00,-2.00,-2.00,-1.00,+1.00,-3.00,+0.00,-4.00,-3.00,-1.00,+0.00,-2.00,-1.00,-1.00
-3.00,+0.00,+1.00,-1.00,+1.00,-1.00,-1.00,-1.00,+0.00,-2.00,+2.00,-1.00,+0.00,-2.00,+0.00,-4.00
-3.00,-1.00,-1.00,-1.00,-1.00,-1.00,-2.00,+1.00,-3.00,+2.00,+1.00,+0.00,-2.00,-2.00,+0.00,+1.00
+1.00,+2.00,-1.00,-1.00,-3.00,-1.00,+0.00,+0.00,+2.00,+0.00,+0.00,-1.00,+0.00,-1.00,-1.00,+1.00
-1.00,-2.00,-3.00,-2.00,-1.00,-1.00,-1.00,+0.00,-4.00,-3.00,+0.00,+0.00,+0.00,+0.00,-2.00,+0.00
-3.00,+0.00,-1.00,+1.00,+0.00,+0.00,+2.00,+15.00,+0.00,+0.00,-1.00,+0.00,-2.00,-2.00,-2.00,-3.00
-2.00,-1.00,+0.00,-1.00,+1.00,+0.00,+0.00,-5.00,-3.00,-2.00,-3.00,-3.00,-1.00,+1.00,+5.00,+8.00
+1.00,+0.00,-1.00,-1.00,-1.00,+1.00,-2.00,-3.00,-2.00,-2.00,-2.00,-2.00,-1.00,-1.00,+2.00,+0.00
-5.00,+1.00,+2.00,-1.00,+0.00,-3.00,-1.00,-1.00,+0.00,-1.00,-1.00,+0.00,-1.00,-3.00,-1.00,-2.00
-2.00,-4.00,-3.00,-2.00,-3.00,-2.00,+0.00,+2.00,-1.00,-2.00,-1.00,+1.00,+1.00,+0.00,-2.00,-1.00
+0.00,+0.00,+0.00,+0.00,-1.00,-1.00,-2.00,+3.00,-1.00,+0.00,-1.00,-1.00,-3.00,+0.00,-2.00,-4.00
-3.00,-1.00,-2.00,-1.00,-1.00,+0.00,+1.00,-2.00,+0.00,-2.00,-2.00,-2.00,-1.00,-1.00,+1.00,+4.00
-5.00,-2.00,+1.00,-2.00,-2.00,+1.00,-3.00,-1.00,-1.00,-1.00,+0.00,-1.00,-1.00,-1.00,+0.00,-1.00
-5.00,+0.00,-2.00,-2.00,-1.00,-1.00,-2.00,-3.00,+0.00,-1.00,+1.00,-2.00,-1.00,+0.00,-1.00,+0.00
-4.00,-2.00,-1.00,+1.00,+0.00,+0.00,-1.00,-1.00,-1.00,-2.00,-2.00,-3.00,-3.00,-1.00,-1.00,+0.00
+0.00,-3.00,-1.00,-1.00,-2.00,-1.00,-3.00,+0.00,-2.00,-1.00,-2.00,-1.00,-1.00,-1.00,-2.00,-2.00
+0.00,+3.00,+0.00,+0.00,+1.00,+0.00,-1.00,+2.00,-3.00,+0.00,-1.00,-1.00,-1.00,-1.00,-2.00,-3.00
+5.00,+0.00,+1.00,-1.00,+0.00,-1.00,-1.00,-6.00,+0.00,-4.00,-2.00,-1.00,-2.00,-1.00,-1.00,+4.00
+1.00,-1.00,-1.00,-1.00,-1.00,+0.00,-1.00,+2.00,-1.00,-2.00,+2.00,-2.00,+0.00,+0.00,+0.00,-5.00
-3.00,-1.00,+0.00,-1.00,+1.00,+0.00,-1.00,+0.00,-3.00,-2.00,+0.00,-2.00,+0.00,+0.00,-3.00,-3.00
-1.00,-1.00,+1.00,+0.00,+1.00,-2.00,-2.00,-1.00,+1.00,+3.00,-1.00,+0.00,-1.00,-1.00,+0.00,+0.00
-1.00,-1.00,-1.00,-1.00,-1.00,-1.00,-1.00,-2.00,-1.00,+0.00,-2.00,-2.00,+0.00,-2.00,-2.00,+0.00
+6.00,-1.00,-1.00,-2.00,-2.00,-1.00,+0.00,-11.00,+1.00,-2.00,-1.00,+1.00,+0.00,-1.00,-2.00,-2.00
-6.00,-5.00,-3.00,-1.00,-1.00,+0.00,+1.00,+14.00,-2.00,-2.00,-1.00,+0.00,+0.00,-2.00,-2.00,-4.00
-4.00,-2.00,+0.00,-1.00,-1.00,+0.00,-1.00,-11.00,-4.00,-3.00,-2.00,-1.00,-1.00,-1.00,+1.00,+2.00
+1.00,-1.00,+0.00,+0.00,+0.00,-1.00,-1.00,-2.00,-1.00,+0.00,-1.00,-1.00,-2.00,+1.00,-1.00,+0.00
+2.00,+2.00,-2.00,-1.00,+1.00,-1.00,-1.00,+0.00,-2.00,-2.00,-3.00,+0.00,-2.00,-2.00,-1.00,-2.00
+5.00,-2.00,-3.00,+0.00,-2.00,-2.00,+0.00,+5.00,-2.00,-1.00,-1.00,+1.00,+0.00,+0.00,-2.00,-1.00
-1.00,-1.00,-4.00,-1.00,-2.00,+1.00,+1.00,+3.00,+0.00,-1.00,+0.00,-2.00,-1.00,+0.00,+0.00,+2.00
-1.00,-1.00,-1.00,-2.00,-2.00,-1.00,-1.00,-1.00,-2.00,-1.00,-1.00,-2.00,-2.00,-2.00,+1.00,-2.00
-5.00,-1.00,+0.00,+0.00,+0.00,-1.00,+1.00,-2.00,-1.00,+0.00,-1.00,-2.00,-2.00,-2.00,-2.00,-2.00
+2.00,+2.00,+2.00,+0.00,-2.00,+1.00,+0.00,-4.00,+1.00,+2.00,+1.00,-1.00,-2.00,-2.00,-1.00,-3.00
-3.00,-2.00,+0.00,-3.00,+0.00,-2.00,-2.00,+3.00,-1.00,+0.00,-2.00,+0.00,-2.00,-3.00,-2.00,-1.00
+2.00,-2.00,-1.00,+0.00,+1.00,-2.00,-1.00,-1.00,+0.00,-1.00,+1.00,+0.00,+0.00,-1.00,-1.00,-3.00
-5.00,-1.00,+1.00,-2.00,+0.00,-1.00,-1.00,+1.00,-1.00,+0.00,-1.00,+0.00,+1.00,-2.00,+0.00,+1.00
+2.00,+2.00,+0.00,-2.00,-2.00,-1.00,-1.00,-4.00,+0.00,-4.00,-2.00,-1.00,+0.00,-1.00,-2.00,+2.00
-2.00,-2.00,-2.00,-1.00,-2.00,-3.00,+0.00,-2.00,-2.00,-3.00,-1.00,+0.00,+0.00,-1.00,-4.00,-5.00
-1.00,+1.00,-2.00,+1.00,-1.00,+0.00,+1.00,+0.00,-2.00,+0.00,-1.00,-2.00,-3.00,+0.00,+1.00,+2.00
-3.00,-1.00,+0.00,-3.00,-1.00,+0.00,+0.00,+0.00,-1.00,-1.00,-1.00,+0.00,+1.00,-2.00,-3.00,-3.00
+0.00,-5.00,-5.00,-2.00,+2.00,+1.00,+0.00,-2.00,-2.00,-2.00,-1.00,-1.00,+0.00,-1.00,-1.00,-3.00
-4.00,-1.00,+2.00,+2.00,-1.00,+0.00,+0.00,+0.00,+0.00,+1.00,+0.00,-1.00,-1.00,-1.00,-1.00,+2.00
-1.00,+0.00,-4.00,+0.00,-1.00,-1.00,-4.00,-21.00,+0.00,+3.00,-1.00,-1.00,-1.00,+0.00,-1.00,-3.00
-11.00,-2.00,+0.00,+0.00,-1.00,-1.00,-2.00,+13.00,-1.00,-3.00,-1.00,-2.00,-4.00,-1.00,+0.00,+2.00
-4.00,+1.00,+2.00,-2.00,+0.00,-2.00,-4.00,-7.00,+2.00,+0.00,-1.00,-2.00,-2.00,-1.00,-1.00,+1.00
+1.00,-2.00,-3.00,-3.00,-1.00,-2.00,-1.00,+2.00,-2.00,-3.00,+0.00,-1.00,-1.00,-1.00,-2.00,-2.00
-3.00,-2.00,+0.00,+0.00,-1.00,+0.00,-1.00,+4.00,-1.00,-1.00,+0.00,-2.00,-2.00,-1.00,+0.00,-4.00
+0.00,-4.00,+1.00,+0.00,-2.00,+0.00,+0.00,-7.00,+0.00,+1.00,+0.00,-1.00,+1.00,+0.00,+0.00,-1.00
-4.00,-1.00,+0.00,-1.00,-2.00,-1.00,-3.00,-6.00,-5.00,-2.00,-3.00,-1.00,-3.00,+0.00,-1.00,-2.00
+3.00,-1.00,-3.00,-1.00,-1.00,-3.00,-1.00,+3.00,+1.00,+1.00,+1.00,-2.00,-1.00,+0.00,-2.00,-3.00
-3.00,-2.00,+0.00,-1.00,-1.00,-1.00,+1.00,+2.00,-1.00,+0.00,+0.00,-1.00,-1.00,-1.00,-3.00,-1.00
+0.00,+0.00,-1.00,-1.00,+1.00,-2.00,+0.00,+0.00,+2.00,-1.00,+1.00,-2.00,+0.00,-1.00,+1.00,+1.00
+0.00,-2.00,+0.00,-1.00,+0.00,-1.00,+1.00,+2.00,-1.00,-1.00,+0.00,-1.00,+1.00,-2.00,-2.00,-1.00
-1.00,-3.00,-1.00,+0.00,-1.00,+0.00,-1.00,-4.00,-1.00,+0.00,-3.00,-1.00,-2.00,-1.00,+0.00,-3.00
+3.00,+1.00,+2.00,+0.00,-1.00,-1.00,-1.00,+1.00,-2.00,-1.00,-3.00,-1.00,-2.00,-2.00,-1.00,-1.00
-3.00,+2.00,-2.00,+0.00,-1.00,-2.00,-3.00,-2.00,-2.00,-4.00,-1.00,-3.00,-2.00,-3.00,-1.00,+0.00
+1.00,-4.00,-1.00,+0.00,-2.00,-1.00,-2.00,+0.00,+1.00,+1.00,+1.00,+0.00,+1.00,+0.00,-2.00,+0.00
+3.00,+1.00,+0.00,+0.00,+0.00,+0.00,+2.00,+16.00,+0.00,+0.00,+1.00,-1.00,-1.00,-2.00,-2.00,-5.00
-2.00,-3.00,-2.00,-1.00,+1.00,-1.00,+0.00,-2.00,-4.00,-4.00,-2.00,-3.00,+0.00,-1.00,+2.00,+4.00
+2.00,+0.00,-2.00,+0.00,-2.00,+0.00,-1.00,+1.00,-2.00,-1.00,-2.00,+1.00,-1.00,+0.00,-1.00,-2.00
+1.00,+1.00,-1.00,-1.00,+1.00,-1.00,-1.00,-4.00,-1.00,+2.00,-3.00,-3.00,-5.00,-1.00,-2.00,-2.00
-3.00,-2.00,-4.00,-3.00,-2.00,-1.00,+0.00,-1.00,+0.00,-2.00,-1.00,+0.00,+0.00,+0.00,-1.00,+3.00
-2.00,+0.00,+0.00,-2.00,-3.00,-2.00,-1.00,+3.00,-1.00,-2.00,+0.00,+0.00,+0.00,-1.00,-2.00,-2.00
-3.00,-2.00,-2.00,+0.00,+0.00,-2.00,-1.00,-2.00,+0.00,-2.00,+0.00,-1.00,-1.00,+0.00,+0.00,-1.00
-5.00,+0.00,-2.00,+0.00,-1.00,-2.00,-2.00,+1.00,-5.00,-1.00,-1.00,-1.00,+1.00,-4.00,+2.00,-1.00
-2.00,-1.00,+0.00,-1.00,-1.00,+0.00,-2.00,+1.00,-2.00,-2.00,-4.00,-4.00,+0.00,+0.00,-1.00,-1.00
+0.00,-1.00,-2.00,-2.00,+1.00,-1.00,-1.00,+0.00,-2.00,-1.00,-1.00,-2.00,+0.00,+0.00,-2.00,-3.00
+1.00,-3.00,-3.00,-2.00,-2.00,+0.00,-1.00,-4.00,-2.00,-2.00,-2.00,-1.00,-1.00,+0.00,+0.00,-1.00
-2.00,-2.00,+0.00,+0.00,-1.00,-1.00,+0.00,-1.00,-1.00,+1.00,+0.00,+1.00,-1.00,+1.00,-2.00,-2.00
-4.00,-2.00,-1.00,+1.00,+1.00,-2.00,-3.00,-7.00,+0.00,+2.00,-1.00,+0.00,-1.00,-2.00,-1.00,-1.00
-3.00,-1.00,+0.00,+0.00,+0.00,+0.00,-1.00,-3.00,+1.00,-2.00,+1.00,-1.00,+1.00,-1.00,-2.00,-1.00
-4.00,+2.00,+0.00,+0.00,+0.00,+0.00,+1.00,+15.00,-1.00,+2.00,-3.00,-2.00,-1.00,-1.00,-1.00,+0.00
+0.00,-2.00,-2.00,-1.00,-3.00,+0.00,-1.00,-6.00,-4.00,-5.00,-3.00,-3.00,-2.00,-1.00,+6.00,+8.00
+1.00,-2.00,+0.00,-1.00,+0.00,+0.00,-1.00,-4.00,-2.00,-2.00,-2.00,-1.00,-2.00,-2.00,+0.00,-1.00
-1.00,-3.00,-3.00,-2.00,-1.00,+1.00,-2.00,+2.00,+1.00,-1.00,+0.00,-2.00,-1.00,-1.00,-1.00,+0.00
-2.00,-4.00,-1.00,+1.00,+0.00,-2.00,-1.00,-5.00,-1.00,+0.00,+0.00,-1.00,-2.00,-2.00,-1.00,-3.00
-3.00,+2.00,+0.00,-2.00,-3.00,-2.00,-1.00,-4.00,+0.00,-4.00,+0.00,+1.00,+1.00,+0.00,-1.00,-2.00
+0.00,+3.00,+2.00,+0.00,-1.00,-1.00,+0.00,-4.00,+0.00,-1.00,+2.00,-1.00,+1.00,-2.00,-1.00,+2.00
-2.00,-2.00,-1.00,-1.00,-1.00,-1.00,+0.00,+0.00,+0.00,+1.00,-3.00,+0.00,-1.00,-1.00,-3.00,+0.00
-1.00,-3.00,-1.00,-2.00,-1.00,+0.00,+0.00,-5.00,+1.00,-2.00,-1.00,-1.00,-1.00,-2.00,-1.00,-3.00
-3.00,-5.00,-6.00,-1.00,-2.00,-1.00,-2.00,-2.00,-1.00,-1.00,+0.00,-1.00,+0.00,-2.00,-2.00,-5.00
+0.00,+0.00,+0.00,-1.00,+0.00,+0.00,-2.00,-3.00,-3.00,-2.00,-2.00,+0.00,-1.00,+0.00,-1.00,-2.00
+2.00,+0.00,+0.00,-4.00,-2.00,-2.00,-1.00,-1.00,-1.00,-3.00,-3.00,-1.00,-2.00,-1.00,-2.00,-2.00
+0.00,-2.00,-2.00,-1.00,+1.00,+0.00,-2.00,-7.00,+1.00,+1.00,+1.00,+0.00,-1.00,+0.00,-1.00,+4.00
-3.00,+2.00,+2.00,+0.00,+0.00,-1.00,+0.00,+14.00,+1.00,+4.00,+0.00,+0.00,-2.00,-2.00,-6.00,-7.00
+0.00,-2.00,-2.00,+0.00,-1.00,+0.00,+0.00,+1.00,-1.00,+1.00,-1.00,-3.00,-1.00,+0.00,+3.00,+4.00
+1.00,-2.00,-2.00,-1.00,-3.00,-1.00,+1.00,+1.00,-4.00,-2.00,-3.00,+0.00,+0.00,-2.00,-3.00,-4.00
+3.00,+0.00,-1.00,-1.00,+0.00,-2.00,-3.00,-5.00,+0.00,+0.00,+1.00,+1.00,-2.00,+1.00,-3.00,+0.00
-2.00,+0.00,+2.00,+0.00,+0.00,-3.00,-1.00,-2.00,+1.00,+2.00,+1.00,-2.00,-1.00,-2.00,-3.00,+0.00
-3.00,-1.00,-1.00,-1.00,+1.00,-1.00,-2.00,-3.00,-2.00,-2.00,+0.00,-1.00,-2.00,-1.00,-2.00,-2.00
-2.00,+0.00,-1.00,+0.00,+1.00,+0.00,-1.00,-2.00,+0.00,-2.00,-2.00,-3.00,+0.00,+0.00,+0.00,-1.00
+0.00,-2.00,-1.00,-1.00,+0.00,-2.00,-1.00,+3.00,-3.00,-2.00,-2.00,-2.00,-2.00,-3.00,-1.00,-4.00
+2.00,+0.00,-1.00,-2.00,-1.00,-2.00,+1.00,-1.00,-2.00,-3.00,-2.00,-1.00,+2.00,-2.00,-2.00,-2.00
-1.00,-2.00,-1.00,+1.00,-3.00,+1.00,-2.00,-2.00,-2.00,-2.00,-2.00,-1.00,+0.00,-1.00,-1.00,+0.00
-2.00,-1.00,-1.00,-2.00,-1.00,-3.00,+0.00,-3.00,-1.00,+0.00,-1.00,+0.00,-4.00,-1.00,+0.00,+4.00
-1.00,-2.00,-1.00,-3.00,-2.00,+0.00,+1.00,+2.00,-1.00,+0.00,-2.00,+0.00,-3.00,+0.00,-1.00,-2.00
+3.00,+1.00,-1.00,-2.00,+0.00,+0.00,-1.00,-4.00,-2.00,-2.00,+1.00,-1.00,-2.00,+0.00,-2.00,-2.00
-1.00,+2.00,+0.00,-1.00,-2.00,+1.00,+3.00,-2.00,+0.00,-1.00,-2.00,-1.00,+1.00,+0.00,-2.00,+0.00
-3.00,-1.00,+0.00,-2.00,-2.00,+1.00,-4.00,-22.00,+2.00,+2.00,-1.00,-1.00,+0.00,-1.00,-3.00,-5.00
-3.00,+1.00,+0.00,+0.00,-1.00,-1.00,+0.00,+0.00,-4.00,-2.00,-1.00,-1.00,-2.00,-1.00,-1.00,-4.00
-4.00,-1.00,-1.00,+0.00,+0.00,+2.00,-2.00,-3.00,+0.00,-2.00,-2.00,-1.00,-1.00,-1.00,+0.00,+0.00
-1.00,-1.00,-1.00,+1.00,+1.00,-1.00,-2.00,+1.00,-1.00,-2.00,-3.00,-2.00,+0.00,-1.00,+0.00,+3.00
+3.00,+1.00,+1.00,+0.00,+2.00,-1.00,+0.00,-2.00,+0.00,+1.00,+0.00,-1.00,+0.00,-2.00,+0.00,+3.00
+0.00,-5.00,-2.00,-3.00,-2.00,+0.00,+1.00,+2.00,-3.00,-3.00,-1.00,-2.00,-1.00,-1.00,+0.00,-1.00
+2.00,-3.00,+0.00,+0.00,+0.00,+1.00,+0.00,-1.00,-1.00,-3.00,+0.00,+1.00,+0.00,-2.00,-2.00,-4.00
+0.00,-2.00,-1.00,-1.00,-2.00,-4.00,+0.00,+2.00,+1.00,-2.00,-1.00,-1.00,-3.00,+0.00,+0.00,-1.00
+1.00,+0.00,-2.00,+2.00,-2.00,+0.00,+0.00,+1.00,-1.00,+0.00,-1.00,-1.00,-1.00,-2.00,+2.00,-1.00
+0.00,-1.00,-3.00,-2.00,+0.00,-3.00,-3.00,-3.00,-1.00,-2.00,-1.00,-3.00,+2.00,+0.00,-1.00,-2.00
+0.00,-2.00,-2.00,-3.00,+1.00,+0.00,+1.00,+5.00,+0.00,+2.00,-2.00,-1.00,-1.00,+0.00,+0.00,+2.00
-2.00,-1.00,+1.00,-1.00,-2.00,-2.00,-3.00,-6.00,-3.00,-4.00,-1.00,-1.00,-2.00,-2.00,-3.00,-3.00
+1.00,+0.00,-2.00,-2.00,+1.00,-1.00,+0.00,+7.00,-1.00,-3.00,-3.00,+0.00,+0.00,-1.00,-1.00,+1.00
-2.00,+1.00,+1.00,-1.00,-2.00,+0.00,+0.00,-3.00,+0.00,+0.00,+1.00,+1.00,-1.00,-1.00,-2.00,+0.00
-1.00,-2.00,-1.00,-2.00,-1.00,+0.00,-2.00,-2.00,-3.00,-1.00,-3.00,+0.00,-3.00,+0.00,-2.00,-2.00
+0.00,-1.00,-1.00,-2.00,-2.00,+0.00,+0.00,+0.00,-2.00,+2.00,+0.00,+0.00,-1.00,-1.00,-2.00,-3.00
+0.00,-3.00,-1.00,-1.00,-2.00,-3.00,-4.00,+3.00,-3.00,-2.00,-1.00,-2.00,-1.00,-2.00,-2.00,-3.00
-9.00,-1.00,+1.00,+1.00,+1.00,+0.00,-1.00,+4.00,+1.00,+0.00,+0.00,+0.00,+0.00,-2.00,-1.00,+3.00
-2.00,-3.00,-2.00,+0.00,-4.00,-3.00,-1.00,-17.00,-3.00,-3.00,-3.00,-3.00,-4.00,+0.00,+3.00,+3.00
+1.00,-1.00,+0.00,-2.00,+0.00,+1.00,+0.00,-1.00,+1.00,+0.00,+0.00,+1.00,+0.00,-1.00,+3.00,+6.00
-1.00,+1.00,+1.00,-1.00,-1.00,+0.00,+1.00,+8.00,-2.00,+0.00,+1.00,-2.00,-1.00,+0.00,-1.00,-4.00
+0.00,-1.00,-3.00,-2.00,+0.00,-1.00,-1.00,+0.00,-1.00,-1.00,+1.00,+0.00,-1.00,-1.00,-1.00,+2.00
-2.00,-1.00,-1.00,-2.00,+0.00,+0.00,+0.00,+3.00,+1.00,+4.00,+1.00,-1.00,+0.00,-3.00,+0.00,+1.00
+0.00,+0.00,+0.00,-1.00,-1.00,-2.00,-1.00,+2.00,-4.00,-2.00,-3.00,-2.00,+0.00,+1.00,-2.00,-3.00
-3.00,-2.00,-1.00,+0.00,-1.00,-2.00,+0.00,-1.00,-1.00,+1.00,-1.00,+1.00,+0.00,-2.00,+0.00,+1.00
+1.00,+1.00,-1.00,-1.00,-1.00,+0.00,-3.00,-3.00,+0.00,-1.00,-2.00,-1.00,+0.00,+0.00,-2.00,-1.00
-1.00,-3.00,-2.00,-4.00,+0.00,-4.00,-1.00,+0.00,-3.00,-2.00,-2.00,+0.00,+0.00,-1.00,-1.00,+1.00
-2.00,-1.00,-1.00,-1.00,+2.00,-1.00,-1.00,-1.00,-2.00,-1.00,+0.00,-2.00,+1.00,-3.00,-3.00,-7.00
+0.00,-1.00,-2.00,-1.00,+0.00,+0.00,-1.00,+5.00,-2.00,-2.00,-2.00,-1.00,-2.00,+0.00,-2.00,-4.00
-2.00,-1.00,+1.00,+0.00,-2.00,+0.00,+0.00,-4.00,-1.00,-2.00,-2.00,-3.00,-1.00,+0.00,+0.00,+2.00
+3.00,+0.00,-2.00,+1.00,+1.00,+0.00,+0.00,+3.00,-1.00,-3.00,-2.00,+0.00,+0.00,-1.00,+0.00,-2.00
-2.00,-2.00,-3.00,-1.00,-2.00,+0.00,-1.00,+0.00,-1.00,-1.00,+0.00,+0.00,-3.00,-1.00,-1.00,-2.00
-3.00,-2.00,+1.00,-1.00,-1.00,+2.00,-2.00,-5.00,+0.00,-1.00,-1.00,-1.00,-2.00,+0.00,+0.00,+0.00
-7.00,+2.00,-2.00,-3.00,-2.00,+0.00,+0.00,+11.00,-2.00,+0.00,-2.00,-1.00,+0.00,-1.00,-2.00,-4.00
+0.00,+1.00,-1.00,-1.00,-3.00,-1.00,-1.00,+0.00,-2.00,-1.00,-1.00,-2.00,-2.00,-2.00,-1.00,-1.00
+0.00,-2.00,+0.00,+0.00,+1.00,+1.00,+1.00,+0.00,-1.00,+0.00,+1.00,-1.00,+0.00,-1.00,-2.00,-1.00
+3.00,-2.00,-1.00,-1.00,-2.00,-1.00,+1.00,-1.00,+0.00,-1.00,+0.00,-2.00,+1.00,-1.00,+1.00,-1.00
+3.00,-1.00,-1.00,+0.00,-1.00,-2.00,-3.00,-10.00,-2.00,-2.00,-2.00,-1.00,-2.00,-2.00,+1.00,+2.00
+0.00,+0.00,+0.00,+0.00,-1.00,-2.00,-1.00,+3.00,+0.00,-2.00,-2.00,-2.00,-1.00,+0.00,+0.00,+0.00
-2.00,-1.00,-3.00,-4.00,-3.00,-3.00,+0.00,+0.00,-1.00,+0.00,-1.00,+0.00,-1.00,-2.00,-1.00,-1.00
-1.00,-4.00,-2.00,+0.00,-2.00,-3.00,-2.00,+0.00,-2.00,-3.00,+0.00,+1.00,-3.00,-1.00,-4.00,+0.00
-2.00,-1.00,+0.00,-1.00,-1.00,-1.00,+1.00,+15.00,+0.00,+1.00,-1.00,-2.00,+0.00,+1.00,-3.00,-4.00
+1.00,-1.00,+0.00,-1.00,-1.00,-2.00,-2.00,-3.00,-4.00,-3.00,-1.00,-2.00,-2.00,+0.00,+2.00,+4.00
+6.00,+1.00,-2.00,-2.00,-1.00,+0.00,+0.00,+1.00,-1.00,+1.00,-2.00,-3.00,-4.00,-1.00,+0.00,-1.00
-2.00,-1.00,-1.00,+1.00,+0.00,+0.00,+1.00,-1.00,-2.00,-2.00,+0.00,-2.00,+0.00,-1.00,+1.00,-2.00
+1.00,-4.00,+0.00,-1.00,-1.00,-1.00,+0.00,-2.00,-2.00,-1.00,-1.00,+1.00,+0.00,-1.00,-2.00,-4.00
-2.00,+1.00,+1.00,+0.00,+1.00,-1.00,-2.00,-2.00,+0.00,-1.00,-2.00,-1.00,+0.00,-2.00,-1.00,-3.00
-2.00,-2.00,-2.00,-2.00,+1.00,-1.00,-2.00,+0.00,+0.00,-2.00,+0.00,-1.00,-1.00,+0.00,-1.00,+1.00
-4.00,-1.00,-2.00,-2.00,-1.00,-2.00,+0.00,+0.00,-2.00,-1.00,-1.00,-2.00,-2.00,-2.00,-2.00,-1.00
+0.00,+0.00,+1.00,-2.00,-2.00,+0.00,-1.00,-3.00,-1.00,+0.00,+0.00,+2.00,-2.00,+1.00,+0.00,-1.00
-2.00,-3.00,+0.00,+1.00,+0.00,+0.00,-1.00,-1.00,+1.00,-3.00,-2.00,-1.00,-2.00,-1.00,-3.00,-4.00
-6.00,+0.00,+0.00,-1.00,+0.00,+0.00,+0.00,-4.00,-1.00,-2.00,-2.00,-2.00,-1.00,-1.00,-3.00,-3.00
-1.00,+1.00,+1.00,-1.00,-1.00,-3.00,-2.00,-2.00,-1.00,-1.00,-1.00,-1.00,-2.00,-2.00,-2.00,-2.00
-1.00,-2.00,-3.00,-3.00,-1.00,-1.00,-2.00,-10.00,-1.00,-1.00,+0.00,+0.00,-1.00,-2.00,-1.00,-2.00
-1.00,-2.00,+0.00,+0.00,-2.00,+0.00,-1.00,+0.00,-2.00,-1.00,-1.00,+1.00,-2.00,-2.00,-1.00,+0.00
-3.00,-3.00,-1.00,+1.00,-1.00,-2.00,-2.00,+2.00,-2.00,-1.00,-1.00,-2.00,-2.00,-2.00,-1.00,-2.00
-1.00,+0.00,-1.00,-2.00,-3.00,+1.00,+0.00,+0.00,+0.00,-2.00,-1.00,-2.00,-2.00,-1.00,-1.00,+0.00
+2.00,+0.00,-2.00,+1.00,-1.00,+0.00,+1.00,-3.00,-2.00,-1.00,-2.00,-2.00,-1.00,+0.00,-3.00,-2.00
-1.00,+0.00,-1.00,+0.00,+0.00,-1.00,-1.00,+0.00,+0.00,+0.00,-1.00,-1.00,-1.00,-2.00,+1.00,+0.00
+0.00,-1.00,+2.00,-3.00,+0.00,-1.00,-1.00,+1.00,-2.00,+0.00,-2.00,-1.00,-2.00,-1.00,-1.00,-3.00
+8.00,+0.00,-1.00,-2.00,+0.00,-2.00,-4.00,-10.00,+1.00,+3.00,-1.00,+0.00,+1.00,-2.00,-4.00,-6.00
-1.00,-3.00,-2.00,-2.00,-1.00,-2.00,-2.00,-3.00,-3.00,-2.00,-1.00,-1.00,-1.00,-2.00,+4.00,+3.00
+0.00,-1.00,-4.00,-1.00,+0.00,-2.00,-1.00,+1.00,-2.00,+0.00,+0.00,-1.00,+1.00,-1.00,-3.00,-5.00
+4.00,+4.00,+2.00,+2.00,-1.00,-2.00,-2.00,-2.00,+0.00,-1.00,-1.00,-2.00,-2.00,-1.00,-3.00,-2.00
-1.00,+1.00,+1.00,+0.00,-1.00,-1.00,+1.00,+2.00,+2.00,+0.00,-1.00,+0.00,-1.00,-1.00,+0.00,+5.00
+1.00,+0.00,+0.00,+0.00,+0.00,-2.00,+0.00,-1.00,-1.00,-2.00,-1.00,-3.00,+0.00,+0.00,-3.00,-1.00
-3.00,-5.00,-5.00,-2.00,+0.00,+0.00,-2.00,-9.00,-1.00,-2.00,+1.00,-1.00,-1.00,+0.00,+0.00,-2.00
+3.00,-2.00,+0.00,-1.00,-3.00,-1.00,-1.00,+0.00,-1.00,-1.00,+0.00,+0.00,+2.00,-1.00,+3.00,+0.00
-2.00,+0.00,+0.00,-1.00,-1.00,-1.00,-1.00,+2.00,-4.00,-2.00,-1.00,+0.00,-1.00,-3.00,-1.00,-3.00
-1.00,+0.00,+0.00,+0.00,-2.00,-1.00,+0.00,+0.00,-1.00,-2.00,-3.00,-2.00,-1.00,-1.00,+0.00,+0.00
-2.00,+1.00,+1.00,+0.00,-2.00,+0.00,+0.00,+3.00,-1.00,-3.00,-1.00,-1.00,-1.00,+0.00,+1.00,-2.00
+1.00,+1.00,-1.00,+0.00,+1.00,+0.00,-2.00,-2.00,-3.00,-3.00,-2.00,+1.00,-1.00,-1.00,+0.00,-2.00
-3.00,-2.00,-2.00,-2.00,+0.00,-1.00,-2.00,+2.00,+0.00,-1.00,-1.00,+0.00,+0.00,+2.00,+3.00,+2.00
+2.00,-3.00,-2.00,+0.00,+2.00,+1.00,+0.00,-1.00,-3.00,-1.00,-2.00,+0.00,-1.00,-1.00,-1.00,-2.00
-3.00,-3.00,-2.00,-3.00,+0.00,-1.00,-1.00,-1.00,+1.00,+0.00,+0.00,-1.00,-1.00,-1.00,-2.00,+2.00
-7.00,+0.00,-2.00,+1.00,+0.00,+1.00,+1.00,+10.00,-1.00,-4.00,-4.00,+0.00,+0.00,-2.00,-2.00,+2.00
-5.00,-1.00,-1.00,+0.00,+0.00,-3.00,-2.00,-7.00,-4.00,-2.00,+0.00,-1.00,-3.00,+0.00,+1.00,+10.00
+2.00,-1.00,-2.00,-5.00,-3.00,-1.00,+2.00,+2.00,-1.00,-1.00,-1.00,-2.00,-2.00,-2.00,-4.00,-3.00
+6.00,+0.00,+1.00,-1.00,+0.00,+0.00,+0.00,+7.00,-2.00,+0.00,+0.00,+0.00,+0.00,+0.00,-4.00,-2.00
-5.00,-4.00,-2.00,-3.00,+0.00,+0.00,+0.00,-4.00,-1.00,+0.00,-1.00,-3.00,-2.00,+0.00,+0.00,+6.00
-1.00,-2.00,-4.00,+0.00,-2.00,-1.00,-1.00,+2.00,+2.00,-2.00,-1.00,+0.00,-2.00,-1.00,-3.00,-2.00
-2.00,-1.00,+1.00,-1.00,-1.00,-1.00,-3.00,-3.00,+0.00,+0.00,+0.00,-3.00,-1.00,-3.00,+0.00,-1.00
+2.00,-2.00,+0.00,-2.00,-1.00,+0.00,-1.00,-8.00,-2.00,-1.00,-1.00,-2.00,+0.00,-2.00,+1.00,+1.00
-7.00,-4.00,-3.00,-3.00,-1.00,-3.00,-1.00,-1.00,-1.00,+1.00,+0.00,-1.00,-1.00,-1.00,+0.00,-5.00
+0.00,+0.00,+0.00,+0.00,-2.00,-2.00,+1.00,+2.00,-1.00,-5.00,-1.00,-2.00,-1.00,+2.00,+0.00,-3.00
-1.00,+0.00,-3.00,+0.00,-2.00,+0.00,-1.00,-5.00,+0.00,+0.00,-2.00,-1.00,-2.00,+0.00,+1.00,+1.00
+2.00,+1.00,-2.00,-1.00,+1.00,-1.00,-1.00,-4.00,+0.00,-2.00,-2.00,-2.00,-3.00,-1.00,-1.00,-1.00
+2.00,+1.00,+1.00,+1.00,+0.00,-1.00,-2.00,-4.00,-3.00,-2.00,-2.00,-3.00,-3.00,-1.00,-3.00,-4.00
-2.00,+2.00,+0.00,-1.00,+1.00,+0.00,+0.00,-2.00,+0.00,+2.00,-2.00,+0.00,-1.00,-2.00,-2.00,+0.00
+1.00,-1.00,-1.00,+0.00,+0.00,-2.00,-1.00,+1.00,-2.00,-2.00,-1.00,-2.00,+0.00,+0.00,+1.00,+2.00
+2.00,-1.00,-2.00,+0.00,-1.00,+1.00,+0.00,+14.00,-3.00,-3.00,-1.00,-2.00,-1.00,-1.00,-1.00,-1.00
+0.00,+0.00,-1.00,-1.00,-1.00,-1.00,-2.00,-2.00,-1.00,-1.00,+0.00,+0.00,+0.00,+0.00,+1.00,+4.00
-2.00,-1.00,-3.00,-1.00,-4.00,+2.00,+1.00,+4.00,-2.00,-2.00,-3.00,+0.00,-2.00,-2.00,-2.00,-5.00
-1.00,+1.00,+2.00,+0.00,-2.00,+0.00,-2.00,-7.00,+1.00,-3.00,+0.00,+1.00,+0.00,-2.00,+0.00,+2.00
-3.00,+1.00,+0.00,+0.00,+0.00,+0.00,+0.00,+0.00,+1.00,-1.00,-1.00,-1.00,+0.00,-1.00,-3.00,-3.00
-2.00,-1.00,-1.00,-3.00,+0.00,-2.00,+0.00,-1.00,-2.00,-2.00,-3.00,-1.00,+0.00,-2.00,-2.00,-4.00
-1.00,-1.00,+0.00,-1.00,+2.00,+1.00,+0.00,+1.00,-2.00,-1.00,+0.00,-1.00,+0.00,+0.00,-2.00,-4.00
+0.00,+0.00,-1.00,-1.00,+0.00,-1.00,-3.00,+1.00,+1.00,+2.00,-3.00,+1.00,-1.00,-1.00,-3.00,-1.00
-3.00,-2.00,-3.00,-4.00,-3.00,+0.00,-1.00,-1.00,-2.00,+1.00,-1.00,+0.00,-3.00,+0.00,-1.00,+0.00
+2.00,+1.00,-1.00,+0.00,-1.00,-1.00,-1.00,-1.00,+0.00,-1.00,+0.00,+0.00,-2.00,-1.00,-1.00,+0.00
-2.00,-1.00,-1.00,+0.00,-2.00,+0.00,-2.00,+0.00,-2.00,-1.00,-1.00,-1.00,+0.00,-1.00,+1.00,-1.00
-3.00,-1.00,-3.00,+0.00,-1.00,+1.00,-1.00,-1.00,-1.00,+0.00,-2.00,+0.00,-3.00,-1.00,-1.00,-4.00
+5.00,-2.00,-1.00,-1.00,-1.00,-3.00,-2.00,-11.00,+0.00,+1.00,+0.00,-1.00,+0.00,+0.00,-2.00,-2.00
-3.00,-3.00,+0.00,+0.00,+0.00,-4.00,-2.00,-4.00,+0.00,+1.00,-1.00,-2.00,+2.00,+2.00,+0.00,+1.00
-1.00,-1.00,-3.00,-1.00,+1.00,-3.00,+1.00,-1.00,-2.00,+0.00,-1.00,-1.00,-1.00,+0.00,-1.00,-5.00
-3.00,-2.00,-2.00,-1.00,+2.00,+0.00,-2.00,-2.00,-1.00,-2.00,+0.00,+0.00,-1.00,+0.00,-1.00,+0.00
+3.00,+0.00,-2.00,-1.00,-1.00,-2.00,+0.00,-1.00,-1.00,-3.00,-2.00,-1.00,-2.00,-2.00,+0.00,+0.00
+0.00,+1.00,+0.00,-2.00,-1.00,+2.00,-1.00,-1.00,-1.00,-1.00,+0.00,-2.00,-1.00,-1.00,-3.00,-8.00
+6.00,-1.00,-3.00,-5.00,-3.00,-1.00,+0.00,-4.00,+3.00,+2.00,-3.00,-2.00,-1.00,-3.00,-4.00,+1.00
-2.00,-1.00,+1.00,+1.00,+1.00,+0.00,-1.00,+0.00,-3.00,-3.00,+0.00,-1.00,-1.00,-1.00,+1.00,-2.00
-2.00,-2.00,-3.00,-2.00,-3.00,+0.00,+0.00,+2.00,+0.00,+1.00,+0.00,-2.00,-2.00,-2.00,+0.00,+1.00
+0.00,-2.00,+1.00,+1.00,+0.00,-1.00,-2.00,-4.00,+0.00,+0.00,-1.00,+0.00,-1.00,-1.00,-1.00,+2.00
-4.00,-1.00,-1.00,+0.00,+1.00,-1.00,-4.00,+0.00,-4.00,-1.00,-1.00,-2.00,-8.00,-1.00,-2.00,-6.00
-2.00,-1.00,-1.00,+0.00,-2.00,-2.00,-1.00,-3.00,-2.00,+0.00,-2.00,+0.00,-5.00,-2.00,-4.00,-4.00
-2.00,-1.00,+0.00,-1.00,+0.00,-2.00,+0.00,+1.00,+0.00,-2.00,-2.00,-1.00,-3.00,-2.00,-1.00,+0.00
-4.00,-2.00,-2.00,+0.00,-1.00,+0.00,+0.00,+5.00,+0.00,-1.00,+1.00,+0.00,-2.00,-2.00,-1.00,-2.00
-4.00,-3.00,-1.00,+0.00,+0.00,-1.00,-1.00,-5.00,-3.00,+1.00,-1.00,+0.00,+0.00,+0.00,+0.00,-1.00
