+3.00,+6.00,+0.00,+0.00,+0.00,+0.00,-1.00,+10.00,-5.00,+1.00,-1.00,-1.00,-2.00,-2.00,-3.00,-2.00
+1.00,-1.00,-2.00,+1.00,+0.00,+0.00,-3.00,-2.00,-1.00,+0.00,+1.00,+0.00,-1.00,-1.00,+0.00,-3.00
-1.00,-4.00,-1.00,-1.00,-1.00,-2.00,-1.00,+2.00,-2.00,-5.00,-4.00,+0.00,-1.00,-1.00,+0.00,-1.00
+0.00,-6.00,-6.00,-3.00,+1.00,+0.00,+2.00,+3.00,-2.00,-6.00,-1.00,-2.00,-2.00,-2.00,-3.00,-1.00
+3.00,+2.00,+2.00,-2.00,-2.00,-2.00,-4.00,+6.00,+2.00,-1.00,+0.00,-1.00,-1.00,-1.00,-2.00,+0.00
+0.00,+3.00,-1.00,-4.00,+1.00,+0.00,+0.00,-5.00,-4.00,-7.00,-4.00,-1.00,+1.00,-1.00,+0.00,-1.00
-1.00,+2.00,-2.00,+0.00,-1.00,+1.00,+1.00,+1.00,-2.00,+1.00,+0.00,+0.00,-1.00,-2.00,-3.00,-3.00
+1.00,-2.00,-2.00,+0.00,+0.00,-2.00,-1.00,+22.00,-1.00,+3.00,+0.00,+0.00,-1.00,+1.00,-2.00,+0.00
-7.00,-12.00,-3.00,-1.00,-1.00,-1.00,+2.00,-6.00,-3.00,+0.00,-4.00,-3.00,+0.00,-2.00,-2.00,+0.00
+8.00,+0.00,+1.00,-1.00,-1.00,+0.00,-1.00,+7.00,+2.00,+2.00,-1.00,-2.00,-1.00,+0.00,+0.00,+4.00
-3.00,+1.00,+1.00,+0.00,-1.00,-1.00,-1.00,-2.00,-3.00,-4.00,-1.00,-1.00,+0.00,-2.00,-1.00,+0.00
-3.00,-4.00,-2.00,-1.00,-1.00,+0.00,-1.00,-2.00,-1.00,-4.00,-6.00,-2.00,+1.00,+0.00,+0.00,-1.00
+0.00,+2.00,-2.00,-2.00,-1.00,-1.00,+0.00,+7.00,-1.00,-4.00,-3.00,-2.00,-3.00,-1.00,+4.00,+1.00
-2.00,-3.00,-2.00,-3.00,+0.00,+0.00,+1.00,+1.00,+18.00,+5.00,-3.00,+0.00,-3.00,-1.00,-2.00,+2.00
+2.00,+1.00,-2.00,+0.00,+0.00,-1.00,-2.00,+2.00,-8.00,-8.00,+0.00,-4.00,-3.00,-2.00,-2.00,-3.00
+0.00,-1.00,-1.00,+0.00,-1.00,-1.00,+0.00,-6.00,-12.00,+1.00,+0.00,+2.00,+1.00,+0.00,-2.00,-4.00
-5.00,+0.00,-1.00,-2.00,+0.00,-2.00,-3.00,-3.00,-11.00,+0.00,+0.00,+1.00,+1.00,+2.00,-2.00,-5.00
-2.00,-1.00,+0.00,-2.00,-2.00,-1.00,+1.00,-3.00,+3.00,-8.00,-2.00,+0.00,+0.00,-1.00,-3.00,-1.00
-1.00,-5.00,-2.00,-1.00,+1.00,-2.00,-2.00,-4.00,+15.00,+9.00,-2.00,-1.00,-5.00,-2.00,+2.00,+7.00
+1.00,+1.00,+2.00,-1.00,-2.00,-1.00,+0.00,-6.00,+0.00,-3.00,-1.00,+1.00,+1.00,-1.00,-5.00,-6.00
+5.00,+2.00,+2.00,+1.00,-2.00,+0.00,+1.00,+27.00,-3.00,-2.00,-2.00,+0.00,+2.00,-1.00,-1.00,-2.00
-4.00,-5.00,-6.00,+0.00,-1.00,-3.00,-4.00,-3.00,+1.00,+9.00,+2.00,-5.00,-5.00,-2.00,+1.00,+0.00
-14.00,-23.00,-7.00,-6.00,-2.00,-3.00,-1.00,-5.00,-8.00,-5.00,+0.00,-3.00,+0.00,+0.00,+1.00,+2.00
+32.00,+40.00,+9.00,+3.00,+1.00,+1.00,+0.00,+0.00,+3.00,+6.00,+1.00,+5.00,+1.00,-1.00,-2.00,+2.00
+2.00,-3.00,-1.00,+2.00,+0.00,+1.00,+5.00,+10.00,+2.00,+3.00,+4.00,-1.00,+1.00,+1.00,+3.00,+2.00
+0.00,+4.00,+3.00,+0.00,-2.00,-1.00,-1.00,+6.00,-20.00,-17.00,+0.00,+4.00,+1.00,-2.00,-3.00,-9.00
-10.00,+5.00,-6.00,-4.00,+1.00,+0.00,-4.00,-9.00,+10.00,+7.00,+0.00,+7.00,+3.00,+0.00,-2.00,-4.00
-12.00,-11.00,-3.00,-2.00,-1.00,-4.00,-3.00,-7.00,-1.00,-5.00,-3.00,-14.00,-11.00,-4.00,-2.00,+1.00
-12.00,-26.00,-2.00,-1.00,-3.00,-2.00,-2.00,-11.00,+11.00,+6.00,+1.00,+7.00,+10.00,-1.00,-2.00,+3.00
+8.00,+32.00,+3.00,-1.00,+4.00,+0.00,-3.00,+2.00,+18.00,+18.00,+1.00,+5.00,-3.00,+2.00,+1.00,+6.00
+1.00,+7.00,-2.00,-1.00,-11.00,-4.00,+1.00,-7.00,-32.00,-24.00,-7.00,-20.00,-12.00,-3.00,-5.00,-8.00
+4.00,+6.00,+0.00,+0.00,+10.00,+1.00,+1.00,+3.00,-19.00,-11.00,-1.00,+1.00,+6.00,+1.00,-6.00,-15.00
+4.00,-5.00,-3.00,-2.00,+0.00,-2.00,-3.00,-26.00,+19.00,+17.00,+6.00,+16.00,+13.00,+3.00,+2.00,+12.00
-1.00,-12.00,+2.00,+2.00,+1.00,+1.00,+0.00,+1.00,+7.00,-9.00,-5.00,-15.00,-22.00,-5.00,-5.00,-3.00
-4.00,-1.00,+2.00,+1.00,-5.00,-1.00,-1.00,+4.00,-5.00,+8.00,-2.00,+12.00,+15.00,+2.00,+4.00,+3.00
-12.00,-10.00,-4.00,-2.00,+2.00,+0.00,-1.00,+0.00,-8.00,-19.00,-5.00,-12.00,-10.00,-3.00,+0.00,+2.00
-6.00,+6.00,-3.00,-2.00,-3.00,-4.00,-3.00,-3.00,+2.00,-8.00,-10.00,-36.00,-28.00,-9.00,-5.00,-6.00
-9.00,-26.00,-7.00,-4.00,-1.00,-1.00,-2.00,-5.00,-1.00,+7.00,+5.00,+18.00,+9.00,+2.00,+0.00,+0.00
-1.00,-16.00,+3.00,-1.00,+11.00,+0.00,+0.00,-9.00,+14.00,+4.00,+2.00,-1.00,+1.00,-3.00,-2.00,+5.00
+39.00,+36.00,+10.00,+6.00,-8.00,-1.00,+3.00,+14.00,-1.00,+3.00,-2.00,+2.00,+6.00,-1.00,-2.00,-6.00
-2.00,-7.00,+2.00,+0.00,-18.00,-2.00,+0.00,+1.00,-24.00,-18.00,-1.00,+13.00,+13.00,+1.00,+0.00,-1.00
-25.00,-17.00,-6.00,-2.00,+7.00,+1.00,-4.00,-17.00,+4.00,+6.00,-1.00,-7.00,-9.00,-1.00,-3.00,-3.00
-3.00,-17.00,+0.00,-2.00,-13.00,-3.00,+0.00,+5.00,-6.00,-8.00,-2.00,+6.00,-4.00,+1.00,+3.00,-1.00
+36.00,+69.00,+9.00,+6.00,+0.00,+2.00,+4.00,+5.00,+6.00,-2.00,-3.00,-15.00,-9.00,-1.00,-5.00,+0.00
+9.00,+31.00,-3.00,+0.00,+12.00,+5.00,+0.00,+8.00,+6.00,-3.00,-3.00,+1.00,-1.00,-7.00,-3.00,+1.00
+15.00,+6.00,+5.00,+2.00,+7.00,+0.00,+4.00,+12.00,-27.00,-9.00,-1.00,-1.00,+4.00,+0.00,+0.00,-1.00
-27.00,-39.00,-12.00,-2.00,+6.00,-2.00,-4.00,-9.00,+11.00,+3.00,+2.00,+16.00,+16.00,+2.00,+0.00,+1.00
-20.00,-11.00,+2.00,-1.00,-2.00,+0.00,-2.00,-5.00,+15.00,+15.00,+1.00,-1.00,-6.00,-3.00,-1.00,+6.00
-6.00,-38.00,-2.00,-1.00,-22.00,-5.00,+0.00,-1.00,+24.00,-7.00,-6.00,-18.00,-21.00,-3.00,-1.00,+5.00
+8.00,+38.00,-3.00,-5.00,-8.00,-5.00,-2.00,+3.00,-38.00,-5.00,-2.00,+2.00,+10.00,+3.00,-3.00,-12.00
+8.00,+0.00,+3.00,+2.00,+8.00,+2.00,-17.00,+2.00,+19.00,+9.00,+0.00,-8.00,-9.00,-4.00,-7.00,-9.00
-25.00,-11.00,-13.00,-11.00,-7.00,+0.00,+29.00,-2.00,-9.00,-7.00,+0.00,+7.00,+9.00,+2.00,-1.00,-3.00
-14.00,-38.00,+1.00,-1.00,+6.00,+1.00,+2.00,-17.00,-2.00,+1.00,-1.00,+2.00,-2.00,+4.00,-2.00,-6.00
-2.00,-1.00,+6.00,+2.00,-5.00,+2.00,+4.00,+2.00,+0.00,-11.00,-4.00,+0.00,+3.00,-3.00,-3.00,-4.00
+15.00,+33.00,+3.00,+2.00,-13.00,-3.00,+2.00,+1.00,+8.00,+8.00,+1.00,-2.00,-2.00,+1.00,+4.00,+13.00
-30.00,-8.00,-10.00,-5.00,-8.00,-8.00,-17.00,-9.00,+4.00,+5.00,+1.00,+4.00,+11.00,+12.00,+5.00,+1.00
+13.00,+7.00,-8.00,-7.00,+8.00,+2.00,-1.00,+0.00,-16.00,+2.00,+1.00,+8.00,-7.00,-7.00,-10.00,-7.00
-1.00,-21.00,+3.00,+1.00,-7.00,-2.00,+2.00,+1.00,+28.00,-6.00,-8.00,-26.00,-14.00,-11.00,-2.00,+1.00
+46.00,+52.00,+6.00,+2.00,+1.00,+6.00,+4.00,+9.00,-32.00,-12.00,-3.00,-9.00,-13.00,-3.00,-1.00,-4.00
+1.00,-23.00,+2.00,+1.00,+0.00,+1.00,-4.00,+3.00,-3.00,-9.00,+0.00,+3.00,+1.00,+0.00,+0.00,+1.00
-4.00,+5.00,+0.00,+1.00,+12.00,-5.00,-5.00,+0.00,-15.00,-2.00,+3.00,+1.00,+4.00,+9.00,+7.00,-3.00
-6.00,-8.00,-7.00,-4.00,-7.00,-3.00,-7.00,-10.00,+14.00,+18.00,+5.00,+9.00,+12.00,+2.00,+9.00,+5.00
-6.00,+28.00,+0.00,-2.00,-3.00,+0.00,+3.00,-2.00,+4.00,-7.00,-3.00,+2.00,+12.00,+9.00,-22.00,-15.00
-4.00,-19.00,-2.00,-1.00,-15.00,-5.00,-31.00,-5.00,+1.00,+14.00,+2.00,+8.00,-16.00,-24.00,+7.00,+2.00
+5.00,+20.00,+1.00,-1.00,-1.00,+0.00,+18.00,-19.00,-33.00,-30.00,+1.00,+17.00,+31.00,-4.00,-10.00,-11.00
-2.00,+33.00,+2.00,+1.00,+3.00,+2.00,+1.00,-2.00,+15.00,+3.00,-8.00,-60.00,-72.00,-12.00,+4.00,+12.00
-32.00,-42.00,-7.00,-4.00,+10.00,+0.00,+1.00,-5.00,-11.00,+5.00,+2.00,-2.00,+10.00,+18.00,-1.00,-1.00
+30.00,+33.00,+10.00,+5.00,+6.00,+0.00,-1.00,+7.00,+20.00,+6.00,+4.00,+8.00,+10.00,+29.00,+1.00,+11.00
+0.00,+15.00,+0.00,+2.00,-6.00,-2.00,-9.00,+1.00,-11.00,-3.00,-1.00,-4.00,-3.00,-18.00,+12.00,+1.00
+1.00,-9.00,-4.00,+0.00,-8.00,-4.00,-2.00,+3.00,+18.00,+9.00,+0.00,+14.00,+26.00,-8.00,-30.00,-9.00
-21.00,-30.00,-8.00,+0.00,+8.00,-1.00,+5.00,-2.00,+3.00,+4.00,+5.00,+20.00,+1.00,+27.00,+15.00,+4.00
-42.00,-92.00,-18.00,-8.00,+2.00,-14.00,-32.00,-23.00,-17.00,-13.00,-5.00,-14.00,-15.00,-34.00,-25.00,-12.00
+18.00,+36.00,+8.00,+0.00,-14.00,+22.00,+49.00,+15.00,-4.00,-4.00,-2.00,-9.00,-12.00,-2.00,-3.00,+2.00
+9.00,+6.00,+6.00,+4.00,+29.00,-4.00,+0.00,+3.00,-17.00,+4.00,+4.00,+13.00,+11.00,+14.00,+4.00,-1.00
+7.00,+6.00,+7.00,+2.00,-2.00,+15.00,+8.00,-14.00,+19.00,+6.00,+2.00,-8.00,-7.00,-17.00,-3.00,+11.00
-3.00,+2.00,-8.00,-2.00,+1.00,-11.00,+3.00,-5.00,-24.00,-17.00,-6.00,+6.00,+9.00,+12.00,+8.00,-7.00
-9.00,-20.00,-5.00,-2.00,-4.00,-10.00,-22.00,-2.00,+14.00,+4.00,+0.00,-3.00,-5.00,+1.00,+5.00,+5.00
-21.00,-21.00,-10.00,-6.00,-25.00,-2.00,-23.00,-19.00,-8.00,-1.00,+3.00,+16.00,+17.00,+2.00,-2.00,+4.00
+6.00,-10.00,+0.00,-2.00,-20.00,-20.00,+20.00,+15.00,-4.00,-2.00,-4.00,-6.00,+6.00,-8.00,-5.00,-7.00
+14.00,+23.00,+3.00,-1.00,+20.00,+12.00,+10.00,+3.00,+4.00,+8.00,+1.00,+6.00,-17.00,-21.00,-3.00,-6.00
-15.00,-7.00,-3.00,+2.00,+14.00,+2.00,-9.00,-2.00,-25.00,-6.00,-6.00,-14.00,-7.00,+19.00,-10.00,-14.00
+12.00,+2.00,+1.00,+2.00,+1.00,-1.00,+11.00,+10.00,-10.00,-16.00,-2.00,+4.00,+20.00,+49.00,+19.00,+7.00
+7.00,-4.00,-8.00,-5.00,-5.00,-1.00,-12.00,-1.00,+48.00,+20.00,+3.00,-8.00,-5.00,-24.00,+4.00,+10.00
-25.00,-48.00,-2.00,-2.00,-10.00,-10.00,+6.00,-37.00,+4.00,+3.00,+0.00,-9.00,-11.00,+2.00,+0.00,+4.00
+6.00,+19.00,+9.00,+2.00,+9.00,+1.00,+6.00,+21.00,-7.00,-7.00,-2.00,-1.00,-6.00,-14.00,+0.00,-6.00
-10.00,+3.00,+1.00,+0.00,-6.00,+0.00,-6.00,-6.00,+17.00,+10.00,+0.00,+12.00,+5.00,-3.00,-1.00,-6.00
-7.00,-1.00,-6.00,-7.00,-12.00,-10.00,-19.00,-7.00,-9.00,-5.00,-3.00,-4.00,+2.00,+6.00,-2.00,-9.00
-4.00,-12.00,-4.00,+1.00,+15.00,+8.00,+4.00,+3.00,+18.00,+14.00,+3.00,+5.00,+7.00,-7.00,+8.00,+15.00
-13.00,-47.00,-6.00,-3.00,+6.00,+3.00,-21.00,+0.00,-2.00,-3.00,-2.00,-4.00,-4.00,+5.00,+1.00,-5.00
+12.00,+35.00,+3.00,-2.00,-9.00,-22.00,-13.00,-6.00,-30.00,-17.00,-3.00,+0.00,+0.00,-6.00,-1.00,+1.00
-8.00,-6.00,+1.00,+5.00,+21.00,+31.00,+60.00,+4.00,-11.00,-10.00,-2.00,+8.00,-5.00,-4.00,-7.00,-2.00
+14.00,+4.00,+5.00,+2.00,-5.00,+1.00,-7.00,+5.00,-22.00,-6.00,-4.00,-4.00,+3.00,-1.00,-4.00,-12.00
-7.00,+34.00,-6.00,-4.00,+0.00,-6.00,-11.00,-5.00,+19.00,+14.00,+3.00,-7.00,-19.00,-34.00,+2.00,+10.00
+8.00,+7.00,+6.00,+1.00,+9.00,+12.00,+4.00,+18.00,-7.00,-9.00,-2.00,+4.00,+8.00,+30.00,+3.00,+2.00
+18.00,+21.00,+3.00,+3.00,-6.00,-14.00,+1.00,+10.00,-2.00,-4.00,-2.00,-4.00,-4.00,+16.00,+3.00,-8.00
-16.00,+9.00,-10.00,-5.00,-4.00,+2.00,+2.00,-4.00,-6.00,-5.00,+1.00,+2.00,+12.00,-11.00,-10.00,-3.00
-6.00,-27.00,+4.00,+1.00,+2.00,+2.00,-2.00,+16.00,+15.00,+8.00,-1.00,+0.00,-7.00,+4.00,+5.00,+9.00
-5.00,-22.00,-4.00,-2.00,-2.00,-5.00,+1.00,-19.00,+5.00,-2.00,-1.00,+3.00,-4.00,-23.00,+1.00,-2.00
-11.00,-12.00,-3.00,-3.00,-3.00,-8.00,-27.00,-8.00,-7.00,+2.00,-3.00,-2.00,-5.00,-8.00,+8.00,+2.00
+5.00,-35.00,+1.00,-2.00,-9.00,+1.00,+3.00,+9.00,-8.00,-5.00,+3.00,+10.00,+11.00,+20.00,-2.00,+2.00
-1.00,-5.00,-7.00,-1.00,-2.00,-3.00,-2.00,+5.00,+6.00,+4.00,-4.00,-17.00,-13.00,+5.00,-7.00,-9.00
+13.00,+18.00,+7.00,+1.00,+8.00,+5.00,+10.00,+15.00,+8.00,+1.00,+0.00,-3.00,-7.00,-18.00,-4.00,+6.00
+2.00,-9.00,+2.00,-2.00,+0.00,-12.00,-30.00,-1.00,-12.00,-2.00,-3.00,-5.00,-4.00,+6.00,+1.00,-6.00
-14.00,-22.00,-7.00,-3.00,-6.00,+19.00,+63.00,+4.00,+7.00,-1.00,-2.00,+0.00,+4.00,-5.00,+7.00,+5.00
+16.00,+24.00,+1.00,+0.00,+5.00,-3.00,-2.00,-12.00,-2.00,-4.00,+0.00,+11.00,+10.00,-1.00,+0.00,-4.00
-4.00,-24.00,+2.00,+1.00,-1.00,+0.00,+1.00,+7.00,-14.00,+6.00,-2.00,-3.00,-6.00,+0.00,-14.00,-12.00
-7.00,-1.00,-3.00,-1.00,+1.00,+4.00,+1.00,+1.00,-4.00,-10.00,-2.00,-5.00,-4.00,-14.00,+0.00,-1.00
+7.00,+29.00,+3.00,-1.00,-9.00,-21.00,-26.00,-4.00,+17.00,+14.00,+1.00,-5.00,-4.00,+0.00,-1.00,+0.00
+5.00,+6.00,+2.00,-1.00,-2.00,+2.00,-5.00,+1.00,-4.00,-4.00,-1.00,+4.00,+8.00,+9.00,-2.00,+3.00
-10.00,-18.00,-7.00,-4.00,-3.00,+5.00,+13.00,-4.00,-9.00,-3.00,-2.00,-5.00,-7.00,-9.00,+0.00,-7.00
-14.00,-4.00,-1.00,-2.00,-2.00,-7.00,-22.00,-36.00,-3.00,-12.00,-1.00,+5.00,+1.00,-5.00,+1.00,+3.00
+8.00,+24.00,+1.00,+2.00,+12.00,-3.00,-11.00,+0.00,+2.00,-7.00,-4.00,-7.00,-8.00,-1.00,+0.00,+4.00
+4.00,+3.00,+6.00,+3.00,-3.00,+1.00,-4.00,+2.00,-4.00,+1.00,-3.00,+0.00,+3.00,+10.00,+3.00,-2.00
-8.00,-7.00,-7.00,-2.00,-2.00,+0.00,+14.00,-2.00,-11.00,-4.00,+0.00,+0.00,+3.00,-6.00,+0.00,-5.00
+6.00,-2.00,-1.00,+1.00,+3.00,+1.00,+4.00,+18.00,-15.00,+4.00,+0.00,-3.00,-5.00,-11.00,-8.00,+0.00
-7.00,-7.00,+1.00,-2.00,-6.00,+4.00,-3.00,+3.00,+14.00,+2.00,+0.00,-1.00,-3.00,+8.00,+2.00,+2.00
-10.00,-19.00,-6.00,-4.00,-5.00,-3.00,-1.00,-13.00,+27.00,+11.00,+1.00,+0.00,+3.00,-4.00,-1.00,+8.00
-10.00,+10.00,-7.00,-4.00,-3.00,-2.00,-11.00,-8.00,-21.00,-15.00,-2.00,+2.00,+3.00,-5.00,-1.00,-11.00
+33.00,+76.00,+9.00,+3.00,+5.00,+3.00,+3.00,+14.00,-4.00,-5.00,-1.00,-8.00,-11.00,-3.00,-3.00,+0.00
-12.00,-6.00,+3.00,+4.00,+1.00,+4.00,+1.00,+4.00,-1.00,+4.00,+0.00,-6.00,-5.00,+1.00,+0.00,+1.00
-6.00,-7.00,-6.00,-4.00,-3.00,-4.00,-12.00,+2.00,-3.00,+4.00,+1.00,+3.00,+2.00,-1.00,-7.00,-8.00
-7.00,-18.00,-3.00,-2.00,-2.00,-2.00,+25.00,+2.00,+15.00,+10.00,+2.00,+1.00,+0.00,-7.00,+4.00,+10.00
-2.00,-26.00,-6.00,-3.00,-3.00,+0.00,+1.00,-4.00,-4.00,-10.00,-3.00,-5.00,-3.00,+4.00,-2.00,-2.00
-4.00,-17.00,+3.00,+0.00,+0.00,-1.00,-11.00,-6.00,-7.00,-4.00,-1.00,+3.00,+9.00,+9.00,+4.00,+0.00
+1.00,+29.00,+1.00,+1.00,-1.00,-5.00,+5.00,+2.00,-6.00,+1.00,-2.00,-9.00,-12.00,-9.00,-3.00,-2.00
-17.00,-61.00,-6.00,-3.00,-5.00,-1.00,-13.00,-7.00,+6.00,-3.00,-3.00,+1.00,-9.00,+1.00,+4.00,-1.00
+15.00,+47.00,+2.00,+0.00,-1.00,+4.00,-1.00,+3.00,-2.00,-6.00,-4.00,-2.00,-2.00,-6.00,-4.00,-6.00
+7.00,+7.00,+0.00,-2.00,-1.00,-2.00,+2.00,+6.00,+13.00,+9.00,-1.00,-5.00,-1.00,-3.00,-7.00,-5.00
+3.00,-1.00,-1.00,+0.00,+2.00,-2.00,+0.00,-5.00,-5.00,+0.00,-1.00,+1.00,+6.00,+4.00,+2.00,-1.00
-3.00,-24.00,-3.00,-1.00,-5.00,-1.00,-9.00,-1.00,-15.00,-14.00,-2.00,+1.00,+6.00,+2.00,-8.00,+1.00
-11.00,+2.00,-1.00,-4.00,-7.00,-4.00,+0.00,-2.00,+27.00,+27.00,+3.00,+1.00,-2.00,-7.00,+0.00,+11.00
+7.00,+16.00,+2.00,+0.00,-11.00,-7.00,-2.00,+1.00,-15.00,-10.00,-3.00,+1.00,+0.00,-2.00,-1.00,-4.00
+2.00,-8.00,+1.00,+3.00,+19.00,+15.00,+6.00,+1.00,+16.00,+2.00,+0.00,+6.00,+8.00,+5.00,-6.00,-5.00
+2.00,+16.00,-3.00,-1.00,+2.00,+2.00,-9.00,+4.00,-12.00,-3.00,-3.00,-5.00,-11.00,-7.00,-1.00,-3.00
-10.00,-22.00,+2.00,+1.00,+3.00,+0.00,+1.00,+6.00,-11.00,-11.00,-3.00,-4.00,+1.00,+1.00,-2.00,-7.00
-5.00,+0.00,-5.00,-3.00,-2.00,-1.00,-2.00,+0.00,+15.00,-5.00,-3.00,-10.00,-15.00,-5.00,-2.00,+1.00
-19.00,-48.00,-10.00,-6.00,-12.00,-9.00,-7.00,-39.00,-17.00,-2.00,+0.00,+2.00,+4.00,-2.00,+3.00,+3.00
+21.00,+45.00,+10.00,+5.00,+4.00,+4.00,+21.00,+7.00,+12.00,+12.00,+2.00,+6.00,+8.00,-1.00,+0.00,+1.00
-1.00,-2.00,-4.00,-1.00,+0.00,-1.00,-2.00,+6.00,-19.00,-15.00,-4.00,-4.00,-7.00,-1.00,-1.00,-7.00
-7.00,-2.00,+4.00,+0.00,+2.00,+1.00,+1.00,+2.00,-13.00,+1.00,+0.00,-1.00,+1.00,-1.00,+0.00,-5.00
+10.00,+15.00,+1.00,-1.00,-10.00,-7.00,+1.00,+9.00,-4.00,-7.00,+0.00,+3.00,+0.00,+0.00,+1.00,+5.00
-14.00,-33.00,-8.00,-4.00,+0.00,-1.00,-20.00,-13.00,+11.00,+2.00,-1.00,-1.00,+20.00,+11.00,+0.00,+0.00
+8.00,+9.00,+8.00,+2.00,+1.00,+1.00,+1.00,-1.00,-14.00,+2.00,+0.00,+1.00,-17.00,-11.00,-1.00,+2.00
-3.00,+3.00,-6.00,-2.00,+4.00,+3.00,+3.00,-5.00,+33.00,+10.00,+0.00,-3.00,-4.00,-3.00,-2.00,+0.00
+3.00,-14.00,-2.00,-4.00,-6.00,-5.00,+1.00,+4.00,-27.00,-12.00,+0.00,+5.00,+9.00,+2.00,-1.00,+0.00
-1.00,-30.00,-2.00,+2.00,-4.00,-5.00,-14.00,-5.00,+11.00,+2.00,-2.00,-4.00,-11.00,-4.00,-1.00,-6.00
+11.00,+30.00,+3.00,+0.00,+4.00,+6.00,+6.00,+29.00,+8.00,+11.00,+2.00,-2.00,+5.00,+4.00,-9.00,-6.00
+4.00,+12.00,+1.00,+1.00,+5.00,-1.00,-4.00,-1.00,-13.00,-6.00,-3.00,-2.00,-1.00,-2.00,+9.00,+8.00
-4.00,+1.00,-2.00,-2.00,-2.00,+1.00,+0.00,+1.00,-10.00,+3.00,+2.00,-1.00,+1.00,+0.00,-7.00,-3.00
+7.00,+33.00,+0.00,+0.00,-1.00,-5.00,+10.00,-1.00,+1.00,-5.00,+1.00,+6.00,+7.00,-2.00,+1.00,+2.00
-7.00,-19.00,-3.00,+0.00,+3.00,+1.00,+2.00,-4.00,-2.00,-8.00,-4.00,-1.00,-1.00,-1.00,+0.00,-7.00
-17.00,-39.00,-7.00,-4.00,-2.00,+0.00,-27.00,-7.00,-3.00,+1.00,+0.00,+6.00,+0.00,+0.00,-3.00,-5.00
+32.00,+88.00,+8.00,+1.00,+1.00,-3.00,+13.00,+9.00,-10.00,-13.00,-6.00,-14.00,-12.00,+1.00,+2.00,-4.00
+8.00,-3.00,+2.00,+1.00,-3.00,+6.00,-4.00,+6.00,+1.00,-1.00,-2.00,-3.00,-3.00,-6.00,+2.00,+7.00
-10.00,-28.00,-3.00,-3.00,-3.00,-6.00,-5.00,-12.00,+22.00,+12.00,+3.00,+2.00,+6.00,+3.00,+3.00,+6.00
-8.00,-22.00,-2.00,-1.00,-4.00,+2.00,+2.00,-4.00,-3.00,-1.00,+1.00,+8.00,+13.00,+0.00,-2.00,+2.00
-6.00,-2.00,-3.00,-2.00,-1.00,-1.00,-3.00,+2.00,+8.00,+5.00,+0.00,+1.00,-2.00,+2.00,+4.00,+12.00
+3.00,+35.00,+0.00,-1.00,+1.00,-3.00,-3.00,-2.00,-26.00,-14.00,-5.00,-7.00,-8.00,-7.00,-6.00,-12.00
+0.00,+1.00,+2.00,+3.00,+2.00,-3.00,-8.00,-2.00,+28.00,+5.00,+1.00,+11.00,+21.00,+2.00,+4.00,+6.00
-4.00,-16.00,-7.00,-5.00,-8.00,-2.00,+2.00,-7.00,-30.00,-16.00,-4.00,-10.00,-25.00,+0.00,-2.00,-9.00
-15.00,-43.00,-5.00,-2.00,-1.00,-2.00,-6.00,-13.00,+36.00,+16.00,+2.00,-1.00,-2.00,-8.00,-6.00,+3.00
-1.00,+22.00,+3.00,+1.00,+1.00,+3.00,+15.00,+0.00,-10.00,-3.00,+0.00,-2.00,-2.00,-2.00,-6.00,-13.00
+18.00,+8.00,+2.00,+1.00,-1.00,-2.00,-2.00,+3.00,+19.00,+4.00,+2.00,+1.00,+4.00,+7.00,+5.00,+14.00
+10.00,+33.00,+0.00,+0.00,-5.00,-1.00,+6.00,+0.00,-6.00,-8.00,-4.00,-3.00,+1.00,+0.00,-3.00,-5.00
-7.00,-20.00,-2.00,-2.00,-4.00,-2.00,+1.00,+2.00,-23.00,-15.00,-4.00,-6.00,-6.00,-1.00,-2.00,-12.00
-5.00,+5.00,-6.00,-4.00,-4.00,+0.00,-11.00,+0.00,+4.00,+17.00,+1.00,-3.00,-3.00,-4.00,-5.00,-7.00
-5.00,-18.00,+2.00,-1.00,-2.00,-1.00,-2.00,-3.00,-5.00,-6.00,+0.00,+4.00,+14.00,-2.00,+1.00,+5.00
+6.00,-6.00,-1.00,+1.00,+4.00,+2.00,+15.00,+11.00,+2.00,+8.00,+3.00,+11.00,+8.00,+4.00,+10.00,+10.00
+17.00,+24.00,+2.00,+0.00,+1.00,-1.00,+0.00,+2.00,+48.00,+9.00,+4.00,+1.00,-11.00,+3.00,-7.00,+4.00
-8.00,-3.00,-2.00,-1.00,+0.00,+1.00,+2.00,-1.00,-30.00,-12.00,-7.00,-12.00,-10.00,-5.00,-3.00,-6.00
+14.00,+39.00,+0.00,-2.00,-8.00,-2.00,-3.00,+0.00,-4.00,+0.00,-2.00,+3.00,+0.00,+0.00,-3.00,-7.00
+10.00,+29.00,+7.00,+3.00,+7.00,+0.00,-3.00,+6.00,-28.00,-9.00,-3.00,-13.00,-7.00,-4.00,-3.00,-6.00
-9.00,-16.00,-2.00,+1.00,+3.00,+1.00,-4.00,+6.00,+50.00,+19.00,-1.00,+6.00,+9.00,-3.00,+0.00,+4.00
-16.00,-56.00,-7.00,-2.00,+5.00,-1.00,+0.00,-12.00,+2.00,+2.00,+4.00,+14.00,+17.00,+3.00,+1.00,-1.00
-11.00,-28.00,-10.00,+0.00,-5.00,-4.00,-4.00,-12.00,-28.00,-21.00,-8.00,-17.00,-26.00,-2.00,-7.00,-14.00
+27.00,+75.00,+12.00,+0.00,-4.00,+0.00,-1.00,+3.00,+1.00,+8.00,+3.00,+7.00,+16.00,-11.00,+4.00,+12.00
+21.00,+36.00,+11.00,+9.00,+15.00,+5.00,+7.00,+17.00,-23.00,-16.00,-5.00,-3.00,-3.00,+0.00,-5.00,-8.00
+3.00,+7.00,-2.00,-5.00,-9.00,-3.00,-6.00,-2.00,+24.00,-9.00,-6.00,-11.00,-22.00,-8.00,+0.00,+3.00
-26.00,-38.00,-1.00,+0.00,+3.00,-1.00,+3.00,-1.00,+7.00,-12.00,-1.00,+0.00,-1.00,+1.00,+0.00,+3.00
-13.00,-1.00,-9.00,-6.00,-15.00,-2.00,-9.00,-10.00,-26.00,+22.00,+2.00,-10.00,-3.00,-1.00,-3.00,-3.00
+3.00,-16.00,-2.00,+2.00,+4.00,-1.00,+13.00,-4.00,-53.00,-19.00,-6.00,-5.00,-6.00,-2.00,-2.00,-23.00
+0.00,-1.00,+4.00,+6.00,+5.00,+0.00,+0.00,+9.00,-4.00,+9.00,+0.00,-8.00,-12.00,-6.00,-3.00,-1.00
-3.00,-32.00,-8.00,-6.00,+0.00,-6.00,-5.00,-11.00,+14.00,-16.00,+4.00,+16.00,+34.00,+13.00,+7.00,+10.00
+13.00,+60.00,+7.00,+1.00,+2.00,+11.00,+2.00,+4.00,+37.00,+9.00,-3.00,+3.00,-4.00,+0.00,-3.00,-2.00
-20.00,-23.00,-5.00,-4.00,-11.00,+1.00,+27.00,-1.00,+25.00,+2.00,-2.00,-11.00,-11.00,-5.00,+3.00,+17.00
-19.00,-43.00,-5.00,-1.00,+12.00,-2.00,-9.00,-35.00,-15.00,-2.00,-3.00,-1.00,+3.00,+0.00,+0.00,+6.00
-10.00,-6.00,+1.00,+1.00,-15.00,-7.00,-5.00,-6.00,+0.00,+15.00,-5.00,-5.00,-13.00,-8.00,-10.00,-21.00
-12.00,-36.00,-14.00,-5.00,+18.00,-10.00,-2.00,-5.00,-6.00,-9.00,-3.00,-2.00,+2.00,+1.00,+2.00,+5.00
+15.00,-15.00,+0.00,+0.00,-16.00,+3.00,-15.00,-5.00,-38.00,+0.00,+1.00,+5.00,+8.00,+3.00,-9.00,-27.00
-13.00,+28.00,-9.00,-5.00,-1.00,-2.00,-4.00,+2.00,-10.00,-19.00,-4.00,-2.00,-5.00,+7.00,+11.00,+10.00
-17.00,-44.00,+2.00,+2.00,-21.00,-1.00,+11.00,+4.00,-55.00,-1.00,-1.00,-6.00,-6.00,-17.00,-9.00,-13.00
-5.00,+36.00,+15.00,+8.00,-6.00,+1.00,-2.00,+4.00,+77.00,+26.00,+4.00,+5.00,+2.00,+6.00,+4.00,+14.00
-29.00,-28.00,-21.00,-10.00,+16.00,+2.00,-5.00,-10.00,-33.00,-15.00,-5.00,+8.00,+10.00,-6.00,+0.00,-7.00
+11.00,-1.00,+3.00,-4.00,-1.00,-2.00,-11.00,+2.00,-23.00,-32.00,-9.00,-14.00,-33.00,-52.00,-8.00,-10.00
+33.00,+2.00,+3.00,+1.00,+22.00,+8.00,+1.00,+20.00,+11.00,+32.00,+9.00,+7.00,+22.00,+48.00,+6.00,+4.00
-17.00,-87.00,-6.00,+1.00,-12.00,-1.00,+2.00,-8.00,-67.00,-30.00,-7.00,-6.00,-6.00,-2.00,-18.00,-38.00
+30.00,+74.00,+15.00,+7.00,+2.00,-3.00,-1.00,+13.00,+76.00,+26.00,+7.00,-7.00,-3.00,+5.00,+10.00,+28.00
-25.00,+38.00,+0.00,-2.00,-8.00,-11.00,-33.00,-32.00,+14.00,+7.00,-2.00,-2.00,-3.00,+11.00,+17.00,+27.00
-4.00,+18.00,-10.00,-8.00,+5.00,+14.00,+26.00,-14.00,-24.00,-32.00,-9.00,-15.00,-38.00,-25.00,-14.00,-4.00
+2.00,-49.00,-6.00,-1.00,+1.00,-4.00,-10.00,-1.00,+43.00,+9.00,-5.00,-22.00,-18.00,-8.00,-7.00,-12.00
-35.00,-88.00,-6.00,-2.00,-14.00,-36.00,-15.00,-4.00,+27.00,+16.00,-3.00,+0.00,+8.00,+2.00,-6.00,+2.00
+14.00,-37.00,-3.00,-1.00,+5.00,+51.00,+13.00,+4.00,-72.00,-18.00,+5.00,+11.00,+19.00,+7.00,-6.00,-32.00
+44.00,+127.00,+8.00,+4.00,-12.00,-6.00,-6.00,+11.00,+60.00,+9.00,+3.00,+6.00,+7.00,-7.00,+4.00,+19.00
-6.00,+17.00,-5.00,-3.00,-13.00,-6.00,+2.00,-10.00,-93.00,-17.00,-1.00,+12.00,+20.00,+9.00,-4.00,-18.00
-2.00,-17.00,-18.00,-12.00,-15.00,-9.00,-15.00,-5.00,+18.00,-4.00,-12.00,-17.00,-28.00,-11.00,-6.00,-11.00
+27.00,+111.00,+32.00,+10.00,-10.00,-8.00,+19.00,+29.00,+50.00,+2.00,+3.00,+10.00,+21.00,+10.00,+10.00,+34.00
-9.00,-68.00,-7.00,-2.00,+23.00,+4.00,-11.00,-6.00,-123.00,-2.00,+0.00,+2.00,-8.00,+4.00,-5.00,-39.00
-13.00,-23.00,-6.00,-4.00,+2.00,+4.00,-17.00,-2.00,+113.00,-10.00,+2.00,+6.00,+3.00,-4.00,+12.00,+58.00
-21.00,+7.00,-15.00,-7.00,-6.00,-3.00,+17.00,-14.00,-41.00,+2.00,+0.00,+6.00,+13.00,-5.00,+0.00,-13.00
+36.00,+2.00,+5.00,+2.00,-7.00,-8.00,+10.00,+17.00,+10.00,+22.00,+2.00,+1.00,+7.00,+6.00,-9.00,-7.00
-4.00,+7.00,+3.00,+2.00,-6.00,+2.00,+4.00,+2.00,-2.00,+55.00,+14.00,+9.00,-3.00,+5.00,+16.00,+18.00
-11.00,-36.00,-13.00,-7.00,+5.00,-14.00,-34.00,-15.00,-107.00,-54.00,-24.00,-22.00,-32.00,-14.00,-21.00,-58.00
+1.00,-14.00,-1.00,-3.00,-4.00,+12.00,+21.00,-3.00,+17.00,-10.00,+12.00,-1.00,-5.00,+1.00,-2.00,+11.00
+3.00,+78.00,-7.00,-4.00,+1.00,-3.00,+2.00,-8.00,+35.00,+12.00,+0.00,+6.00,+8.00,+11.00,+4.00,+6.00
-2.00,-63.00,+6.00,+9.00,+3.00,-3.00,-1.00,+12.00,+65.00,+17.00,+5.00,+9.00,+28.00,+5.00,+2.00,+16.00
-20.00,-31.00,-22.00,-14.00,-8.00,-11.00,-9.00,-13.00,-20.00,+5.00,-8.00,-21.00,-29.00,-15.00,-6.00,-8.00
+24.00,+5.00,-1.00,-7.00,+4.00,+3.00,-16.00,-6.00,-28.00,-29.00,-12.00,-8.00,-13.00,-12.00,+0.00,+10.00
-10.00,-106.00,-1.00,+11.00,-7.00,+1.00,+12.00,+23.00,+15.00,-16.00,+6.00,+11.00,+23.00,+11.00,-8.00,-21.00
-29.00,-16.00,-13.00,-12.00,-5.00,-14.00,-14.00,-22.00,+19.00,+10.00,+1.00,+2.00,-7.00,-12.00,+1.00,-1.00
-37.00,-71.00,-2.00,+4.00,+1.00,+4.00,+13.00,-3.00,-70.00,-24.00,-4.00,+4.00,+12.00,+7.00,+2.00,-5.00
+50.00,+100.00,+19.00,+7.00,+4.00,+9.00,+2.00,+15.00,+17.00,+35.00,+16.00,+12.00,+7.00,+9.00,+1.00,-9.00
+30.00,+50.00,+1.00,-4.00,+3.00,-13.00,-8.00,-1.00,-1.00,-4.00,-16.00,-20.00,-23.00,-26.00,-11.00,-7.00
-11.00,+50.00,-17.00,-11.00,-27.00,-20.00,-18.00,-12.00,-22.00,-20.00,-4.00,+13.00,+25.00,+13.00,+15.00,+14.00
-2.00,-45.00,-1.00,-6.00,+2.00,+6.00,+14.00,+3.00,+22.00,-25.00,-5.00,+0.00,+2.00,+24.00,-7.00,-11.00
-54.00,-128.00,-6.00,+1.00,+5.00,+10.00,-20.00,-1.00,-63.00,+29.00,+10.00,-2.00,-11.00,+0.00,-2.00,-16.00
+83.00,+98.00,+28.00,+12.00,+12.00,+1.00,-1.00,+20.00,+75.00,+43.00,+3.00,+8.00,+14.00,+16.00,+9.00,+41.00
-43.00,-78.00,-6.00,-5.00,-7.00,-1.00,-5.00,-11.00,-38.00,-14.00,+0.00,-12.00,-11.00,-22.00,-7.00,+3.00
+31.00,-1.00,+2.00,-2.00,-1.00,-7.00,+19.00,+10.00,-79.00,-16.00,-5.00,+1.00,-16.00,-13.00,-5.00,-22.00
-26.00,+101.00,+7.00,+9.00,-5.00,-2.00,-1.00,+1.00,+4.00,-48.00,-10.00,-6.00,+8.00,+6.00,+7.00,+23.00
-57.00,-43.00,-27.00,-16.00,+3.00,-9.00,-15.00,-32.00,-11.00,+35.00,+2.00,-5.00,-5.00,-5.00,-14.00,-39.00
+67.00,-39.00,+43.00,+24.00,+17.00,+22.00,+28.00,+55.00,-16.00,-69.00,-19.00,-16.00,-24.00,-7.00,-2.00,+10.00
+13.00,+109.00,+10.00,+9.00,+9.00,+1.00,+6.00,+4.00,+80.00,+23.00,+7.00,+3.00,+11.00,-12.00,-4.00,+20.00
-47.00,-19.00,-42.00,-25.00,-6.00,-17.00,-54.00,-36.00,+53.00,+67.00,+21.00,+13.00,+11.00,+13.00,+6.00,-4.00
+6.00,+8.00,+47.00,+28.00,+19.00,+10.00,+40.00,+57.00,+5.00,-22.00,-6.00,-6.00,-15.00,-25.00,+5.00,+13.00
-32.00,+122.00,-29.00,-21.00,-6.00,-5.00,-9.00,-38.00,+5.00,+52.00,+4.00,-4.00,+5.00,-1.00,+0.00,+6.00
-79.00,-117.00,-24.00,-3.00,+17.00,-2.00,-5.00,-37.00,+20.00,+17.00,-7.00,-7.00,-5.00,-5.00,-6.00,-12.00
+81.00,+94.00,+72.00,+31.00,-4.00,+17.00,+21.00,+74.00,-22.00,-63.00,-8.00,+1.00,+5.00,+3.00,+4.00,+10.00
-27.00,-14.00,-34.00,-18.00,-12.00,-16.00,-21.00,-23.00,-57.00,-60.00,-6.00,+9.00,+12.00,+18.00,-3.00,-15.00
-32.00,-84.00,+10.00,+4.00,+6.00,+5.00,+5.00,-1.00,+12.00,+22.00,+4.00,-1.00,-4.00,-1.00,+4.00,+0.00
+31.00,+42.00,+15.00,+6.00,+1.00,+9.00,-3.00,+11.00,+10.00,+19.00,+16.00,+0.00,-3.00,-5.00,-6.00,+1.00
+53.00,+89.00,-6.00,-2.00,+13.00,-16.00,+4.00,+0.00,+40.00,+49.00,-10.00,-8.00,-3.00,-3.00,+6.00,+24.00
-17.00,-128.00,-11.00,+0.00,+10.00,+24.00,+1.00,-26.00,-17.00,-42.00,-7.00,+10.00,+17.00,-1.00,-13.00,-35.00
-29.00,-6.00,-23.00,-7.00,-9.00,-9.00,-2.00,-10.00,+22.00,-13.00,+0.00,-10.00,-26.00,-1.00,-9.00,+11.00
-101.00,-20.00,-37.00,-22.00,-16.00,-9.00,-13.00,-11.00,-52.00,-8.00,+8.00,+1.00,-1.00,+12.00,+10.00,+0.00
+78.00,+47.00,+50.00,+14.00,-7.00,-1.00,+9.00,+25.00,-5.00,-32.00,-17.00,-5.00,+0.00,-5.00,-5.00,-13.00
-22.00,-124.00,-19.00,-4.00,+7.00,-6.00,-6.00,-9.00,-75.00,+7.00,-1.00,-18.00,-20.00,-6.00,-13.00,-15.00
+53.00,+53.00,+3.00,+15.00,+20.00,+7.00,+2.00,+16.00,+63.00,-3.00,-9.00,+1.00,+6.00,-9.00,-10.00,-4.00
+58.00,+28.00,-18.00,-8.00,-8.00,+0.00,-2.00,+14.00,+85.00,+64.00,+15.00,+20.00,+27.00,+10.00,+17.00,+39.00
+35.00,+13.00,+15.00,+9.00,+4.00,+9.00,+13.00,+11.00,-72.00,-113.00,-26.00,-13.00,-15.00,-13.00,-15.00,-35.00
-52.00,-28.00,+5.00,-14.00,-30.00,-16.00,-11.00,-16.00,-65.00,+83.00,+21.00,+9.00,+6.00,+11.00,+18.00,+18.00
+25.00,-20.00,-6.00,+1.00,+13.00,+4.00,-1.00,+22.00,-37.00,-29.00,+1.00,+0.00,+2.00,+0.00,-3.00,-19.00
+55.00,+0.00,+9.00,+0.00,+7.00,+3.00,-6.00,-51.00,+66.00,-47.00,-5.00,+6.00,+6.00,+1.00,-2.00,+10.00
-36.00,-34.00,-7.00,-1.00,-4.00,+1.00,+2.00,-12.00,+9.00,+23.00,+0.00,+4.00,+3.00,-3.00,-3.00,+0.00
-79.00,-13.00,-27.00,-16.00,-9.00,-6.00,-8.00,-23.00,-62.00,-43.00,-19.00,-19.00,-21.00,-7.00,-8.00,-8.00
+81.00,+65.00,+54.00,+19.00,+5.00,-1.00,+4.00,+17.00,+60.00,-50.00,+10.00,+10.00,+13.00,+13.00,+9.00,+17.00
+77.00,+70.00,+37.00,+17.00,-2.00,+4.00,+16.00,+49.00,-123.00,+53.00,-1.00,-12.00,-11.00,-12.00,-12.00,-38.00
-110.00,-128.00,-72.00,-31.00,-10.00,-10.00,-21.00,-62.00,-18.00,+5.00,+12.00,+16.00,+14.00,+9.00,+8.00,+9.00
+3.00,+116.00,+22.00,+2.00,-3.00,-1.00,+1.00,+14.00,+127.00,+34.00,+10.00,+7.00,+2.00,+4.00,+8.00,+27.00
-55.00,-52.00,-17.00,+5.00,+0.00,+7.00,+9.00,+19.00,-113.00,-79.00,-22.00,-14.00,-10.00,-5.00,-6.00,-27.00
-23.00,-90.00,+7.00,+8.00,+2.00,+2.00,+4.00,+10.00,+72.00,+87.00,+22.00,-4.00,-4.00,-8.00,-1.00,+2.00
-14.00,+5.00,-15.00,-6.00,-1.00,+1.00,+1.00,-5.00,+47.00,+8.00,-2.00,+3.00,+4.00,+8.00,+14.00,+32.00
-54.00,+102.00,-23.00,-19.00,-9.00,-11.00,-15.00,-27.00,+31.00,+43.00,+12.00,+11.00,+8.00,+10.00,+9.00,+30.00
+13.00,-74.00,+28.00,+14.00,+5.00,+7.00,+10.00,+29.00,+20.00,+29.00,-3.00,-11.00,-12.00,-13.00,-13.00,-17.00
-39.00,-72.00,-23.00,-6.00,-4.00,-3.00,-9.00,-33.00,+104.00,-34.00,-6.00,+2.00,+4.00,+8.00,+20.00,+52.00
+45.00,+13.00,+37.00,+9.00,+9.00,+3.00,+8.00,+40.00,-17.00,+38.00,+8.00,+5.00,+4.00,+4.00,+0.00,-4.00
+64.00,+24.00,+8.00,+12.00,+2.00,+4.00,+7.00,+18.00,+11.00,-28.00,-8.00,-10.00,-14.00,-4.00,-6.00,-3.00
-29.00,+36.00,-38.00,-37.00,-18.00,-15.00,-22.00,-49.00,-22.00,+23.00,+4.00,+3.00,+3.00,-1.00,-4.00,-14.00
-13.00,-54.00,-6.00,+10.00,-1.00,+0.00,+9.00,+52.00,+5.00,-47.00,-7.00,-7.00,-9.00,-13.00,-11.00,+8.00
-46.00,+91.00,-20.00,-24.00,-16.00,-15.00,-21.00,-51.00,+91.00,+46.00,+3.00,+4.00,+2.00,+6.00,+6.00,+18.00
+56.00,-127.00,+47.00,+34.00,+17.00,+14.00,+19.00,+49.00,-22.00,+7.00,+3.00,-1.00,-2.00,+1.00,-3.00,-16.00
-12.00,+85.00,-6.00,-5.00,-4.00,-2.00,-6.00,-19.00,-84.00,-46.00,-17.00,-13.00,-13.00,-11.00,-19.00,-48.00
+39.00,+119.00,+27.00,+0.00,+3.00,+2.00,+9.00,+45.00,+72.00,-45.00,-7.00,+6.00,+8.00,+9.00,+22.00,+56.00
-37.00,-128.00,-21.00,-1.00,-2.00,+0.00,-2.00,-10.00,-127.00,+6.00,+4.00,+1.00,+6.00,-2.00,-5.00,-28.00
-67.00,-28.00,-35.00,-17.00,-12.00,-11.00,-15.00,-46.00,+29.00,-20.00,-10.00,-8.00,-10.00,-10.00,-14.00,+3.00
+78.00,+80.00,+31.00,+15.00,+6.00,+5.00,+10.00,+34.00,+104.00,+40.00,+1.00,-2.00,-3.00,-2.00,+1.00,+20.00
+52.00,+97.00,+4.00,+0.00,-5.00,+0.00,+1.00,+6.00,+10.00,+25.00,+2.00,-1.00,-3.00,-1.00,-9.00,-10.00
-13.00,-60.00,+21.00,+6.00,+7.00,+5.00,+2.00,+2.00,-16.00,-121.00,-14.00,+1.00,+3.00,+1.00,+0.00,-20.00
-33.00,-76.00,-29.00,-14.00,-6.00,-7.00,-10.00,-23.00,+112.00,+61.00,+6.00,+0.00,+3.00,+2.00,+0.00,-1.00
-29.00,-93.00,-21.00,-10.00,-4.00,-4.00,-5.00,-6.00,+22.00,-58.00,-13.00,-3.00,+0.00,-2.00,+6.00,+27.00
+40.00,+32.00,+19.00,+3.00,+4.00,+1.00,+9.00,+33.00,+14.00,+47.00,+5.00,-1.00,-8.00,-12.00,-15.00,-5.00
+102.00,+107.00,+58.00,+37.00,+16.00,+16.00,+27.00,+61.00,+105.00,+73.00,+14.00,+11.00,+14.00,+21.00,+21.00,+38.00
-6.00,+63.00,-35.00,-19.00,-11.00,-7.00,-10.00,-10.00,-106.00,-44.00,+4.00,-7.00,-9.00,-3.00,-3.00,-11.00
-36.00,-72.00,-5.00,-4.00,-3.00,-4.00,-8.00,-60.00,+21.00,+80.00,+15.00,+18.00,+19.00,+14.00,-1.00,-6.00
-29.00,+43.00,-19.00,-19.00,-12.00,-9.00,-14.00,-2.00,-90.00,+15.00,-8.00,-10.00,-9.00,-22.00,-12.00,-44.00
+4.00,-41.00,-6.00,+6.00,+6.00,+5.00,+5.00,-5.00,-58.00,+73.00,+18.00,-10.00,-18.00,-15.00,-13.00,-6.00
+81.00,+116.00,+43.00,+15.00,+7.00,+8.00,+15.00,+58.00,+38.00,-46.00,-13.00,-13.00,-11.00,-14.00,-10.00,-15.00
-55.00,-33.00,-17.00,-9.00,-6.00,-3.00,-7.00,-6.00,-110.00,+9.00,+0.00,+4.00,+4.00,+6.00,-9.00,-47.00
+13.00,-5.00,+11.00,+6.00,-2.00,-1.00,+0.00,-6.00,+37.00,-17.00,-5.00,+7.00,+10.00,+15.00,+28.00,+60.00
+44.00,-94.00,+16.00,+9.00,+12.00,+7.00,+28.00,+38.00,-46.00,-31.00,+4.00,-8.00,-11.00,-12.00,-18.00,-26.00
-82.00,-68.00,-61.00,-25.00,-11.00,-15.00,-19.00,-46.00,+52.00,+30.00,+17.00,+8.00,+6.00,+5.00,+5.00,+16.00
+94.00,+79.00,+43.00,+28.00,+15.00,+7.00,+16.00,+41.00,-14.00,+32.00,+2.00,-9.00,-10.00,-8.00,-6.00,-15.00
-110.00,-68.00,-19.00,-10.00,-9.00,+5.00,-11.00,-112.00,-86.00,-90.00,-21.00,-8.00,-5.00,-1.00,-9.00,-44.00
-91.00,+105.00,-48.00,-35.00,-23.00,-20.00,-38.00,-72.00,+93.00,+46.00,+0.00,-1.00,+1.00,+0.00,+4.00,+40.00
+85.00,+79.00,+42.00,+34.00,+18.00,+16.00,+22.00,+37.00,-101.00,-62.00,-3.00,+9.00,+11.00,+7.00,-1.00,-21.00
-38.00,-64.00,+5.00,-8.00,-5.00,-8.00,-7.00,-28.00,+56.00,-14.00,-17.00,-6.00,-3.00,-3.00,+11.00,+32.00
-7.00,-12.00,-16.00,-4.00,-1.00,-5.00,+0.00,+12.00,-52.00,+43.00,+7.00,+3.00,+0.00,+1.00,-14.00,-28.00
-84.00,-48.00,-31.00,-11.00,-9.00,-6.00,-5.00,+1.00,+15.00,-56.00,-8.00,-4.00,-4.00,-4.00,-7.00,+8.00
+77.00,+46.00,+44.00,+25.00,+10.00,+5.00,+6.00,+15.00,-50.00,-4.00,-2.00,+0.00,+2.00,+2.00,+3.00,-13.00
-66.00,-37.00,-23.00,-19.00,-13.00,-9.00,-13.00,-29.00,+34.00,-38.00,-8.00,-13.00,-16.00,-9.00,+2.00,+47.00
-12.00,-32.00,-14.00,-7.00,-2.00,-5.00,-1.00,-8.00,-56.00,-11.00,+1.00,+9.00,+15.00,+16.00,+8.00,-30.00
+55.00,+28.00,+25.00,+11.00,+5.00,+5.00,+9.00,+24.00,+52.00,+68.00,+18.00,+7.00,+2.00,-11.00,+3.00,+29.00
+18.00,-128.00,+21.00,+9.00,+5.00,+4.00,+12.00,+43.00,-14.00,+20.00,-9.00,-12.00,-12.00,-11.00,-12.00,-16.00
+18.00,+54.00,+4.00,+0.00,-2.00,+1.00,+2.00,+12.00,-20.00,-67.00,+5.00,+11.00,+12.00,+10.00,+16.00,+27.00
-26.00,-81.00,-9.00,-8.00,-2.00,-4.00,-7.00,-26.00,-40.00,-128.00,-22.00,-7.00,-4.00,-2.00,-14.00,-29.00
-18.00,-95.00,+2.00,+5.00,+1.00,-1.00,-4.00,-33.00,+27.00,+46.00,+19.00,-5.00,-5.00,-5.00,-2.00,+13.00
+18.00,+44.00,-21.00,-8.00,-8.00,+0.00,+2.00,-7.00,+15.00,-30.00,-9.00,+0.00,+0.00,-1.00,+1.00,-7.00
-75.00,+81.00,-44.00,-24.00,-7.00,-12.00,-19.00,-57.00,-1.00,+22.00,+2.00,-10.00,-11.00,-7.00,-2.00,-6.00
+63.00,+28.00,+16.00,+8.00,+1.00,-6.00,+2.00,+35.00,+65.00,+38.00,+13.00,+6.00,+4.00,+5.00,+8.00,+31.00
+15.00,-48.00,+11.00,+18.00,+10.00,+18.00,+8.00,+11.00,+58.00,+45.00,-6.00,+11.00,+15.00,+13.00,+18.00,+52.00
-23.00,+44.00,-13.00,-15.00,-8.00,-8.00,-12.00,-13.00,-78.00,-10.00,+5.00,+2.00,+0.00,+2.00,-1.00,-12.00
+48.00,-5.00,+9.00,-1.00,+3.00,+6.00,+13.00,+33.00,-80.00,-70.00,-18.00,-18.00,-17.00,-16.00,-16.00,-52.00
-52.00,-49.00,+9.00,+8.00,+0.00,-3.00,-3.00,-7.00,-26.00,+50.00,+12.00,+16.00,+15.00,+12.00,+13.00,+15.00
+8.00,+23.00,-28.00,-11.00,-3.00,-5.00,-3.00,+0.00,-29.00,-28.00,-11.00,-10.00,-10.00,-13.00,-20.00,-58.00
+11.00,-63.00,+22.00,+8.00,+5.00,+5.00,+2.00,-7.00,-53.00,+51.00,+2.00,-4.00,-7.00,+1.00,+19.00,+34.00
+12.00,+65.00,-5.00,-4.00,-5.00,-5.00,-4.00,+25.00,+96.00,+55.00,-1.00,+3.00,+3.00,+1.00,+2.00,+27.00
-16.00,-26.00,-28.00,-20.00,-8.00,-10.00,-22.00,-31.00,-96.00,-58.00,-4.00,-10.00,-11.00,-14.00,-19.00,-52.00
+71.00,-10.00,+47.00,+24.00,+9.00,+8.00,+20.00,+52.00,-67.00,-33.00,-16.00,-8.00,-6.00,-1.00,-5.00,-36.00
-95.00,-41.00,-59.00,-36.00,-17.00,-17.00,-24.00,-63.00,+22.00,+72.00,+10.00,+8.00,+8.00,+4.00,-1.00,+0.00
-59.00,-39.00,-33.00,-4.00,-5.00,-5.00,-8.00,-25.00,-37.00,+27.00,+5.00,+3.00,+2.00,-2.00,-11.00,-37.00
+98.00,+65.00,+86.00,+40.00,+24.00,+20.00,+31.00,+66.00,-69.00,-19.00,-15.00,-21.00,-20.00,-16.00,-16.00,-40.00
-52.00,-70.00,-47.00,-18.00,-10.00,-12.00,-16.00,-40.00,+23.00,-53.00,-6.00,+16.00,+21.00,+22.00,+33.00,+55.00
-53.00,+19.00,-47.00,-33.00,-19.00,-19.00,-26.00,-52.00,+67.00,-16.00,-3.00,+1.00,+1.00,-1.00,-12.00,-17.00
-78.00,-128.00,-6.00,+7.00,+2.00,+2.00,+0.00,-27.00,+21.00,+42.00,+9.00,+1.00,+0.00,+1.00,+5.00,+14.00
-24.00,+127.00,-5.00,-4.00,-4.00,+0.00,-3.00,-12.00,-56.00,-55.00,-8.00,+3.00,+4.00,+3.00,-3.00,-17.00
+9.00,+61.00,-10.00,-14.00,-6.00,-7.00,-6.00,-4.00,-2.00,+18.00,+4.00,-14.00,-17.00,-15.00,-14.00,-17.00
-37.00,-100.00,+24.00,+17.00,+10.00,+8.00,+12.00,+29.00,-14.00,+1.00,-12.00,-11.00,-11.00,-7.00,-10.00,-18.00
+16.00,+16.00,+23.00,+13.00,+10.00,+8.00,+3.00,-17.00,-62.00,-14.00,+17.00,+15.00,+17.00,+10.00,+2.00,-24.00
-61.00,-103.00,-27.00,-10.00,-6.00,-6.00,-9.00,-50.00,-8.00,+39.00,+5.00,+1.00,+0.00,+3.00,+17.00,+52.00
-12.00,-67.00,-2.00,-11.00,-3.00,-5.00,-2.00,-13.00,-128.00,-75.00,-15.00,-5.00,-6.00,-3.00,-15.00,-59.00
+61.00,+52.00,+19.00,+22.00,+12.00,+8.00,+10.00,+20.00,+109.00,-9.00,+2.00,+0.00,+1.00,+1.00,+9.00,+60.00
-3.00,-37.00,-24.00,-19.00,-11.00,-8.00,-12.00,-15.00,-90.00,-70.00,-19.00,-15.00,-15.00,-14.00,-21.00,-50.00
+24.00,+19.00,+5.00,-1.00,+1.00,-1.00,+4.00,+21.00,+103.00,+116.00,+26.00,+12.00,+10.00,+10.00,+6.00,+12.00
-62.00,-14.00,-18.00,-6.00,-5.00,-6.00,-8.00,-28.00,-60.00,-30.00,-15.00,-8.00,-5.00,-6.00,+3.00,+8.00
+22.00,+49.00,-16.00,-19.00,-10.00,-9.00,-11.00,-6.00,-75.00,-28.00,-5.00,+0.00,+0.00,-1.00,-5.00,-39.00
+48.00,-34.00,+47.00,+30.00,+14.00,+10.00,+20.00,+37.00,+15.00,+29.00,-4.00,-4.00,-3.00,-1.00,+7.00,+21.00
-63.00,-3.00,-37.00,-19.00,-12.00,-9.00,-11.00,-25.00,+127.00,-14.00,+4.00,-1.00,-3.00,-4.00,-3.00,+25.00
+1.00,-1.00,+11.00,+4.00,+2.00,+4.00,+1.00,+36.00,+51.00,+8.00,+9.00,+13.00,+13.00,+11.00,+10.00,+27.00
+10.00,-40.00,+20.00,+11.00,+5.00,+5.00,+8.00,+13.00,-98.00,-108.00,-28.00,-13.00,-12.00,-8.00,-11.00,-46.00
-36.00,-57.00,-38.00,-21.00,-13.00,-8.00,-10.00,-13.00,+127.00,+89.00,+25.00,+24.00,+24.00,+20.00,+22.00,+44.00
+31.00,-9.00,+42.00,+18.00,+9.00,+3.00,+7.00,+20.00,+18.00,+25.00,-2.00,-3.00,-2.00,-5.00,-4.00,+16.00
-38.00,-66.00,-1.00,+4.00,-1.00,+0.00,-3.00,-18.00,-14.00,-2.00,-6.00,-13.00,-15.00,-13.00,-18.00,-27.00
-10.00,-6.00,+2.00,-2.00,-1.00,-1.00,+0.00,+9.00,+84.00,-14.00,+8.00,+11.00,+8.00,+12.00,+15.00,+30.00
-14.00,-77.00,-10.00,-2.00,-1.00,-1.00,-1.00,-33.00,+71.00,-22.00,-6.00,-1.00,-1.00,+1.00,+5.00,+34.00
-40.00,-111.00,-3.00,-2.00,-1.00,+2.00,+0.00,-14.00,+3.00,+0.00,-1.00,-2.00,+0.00,+0.00,-1.00,-17.00
+58.00,+100.00,-11.00,-15.00,-8.00,-7.00,-9.00,-16.00,-52.00,-42.00,-12.00,-4.00,-2.00,-5.00,-14.00,-30.00
+19.00,+83.00,+1.00,+4.00,-2.00,+1.00,+11.00,+6.00,-31.00,-33.00,+0.00,-6.00,-3.00,-4.00,-2.00,+6.00
-6.00,-76.00,+1.00,-1.00,+0.00,+0.00,+6.00,+27.00,-105.00,-10.00,-3.00,-5.00,-11.00,-11.00,-20.00,-55.00
+21.00,+42.00,-9.00,+4.00,+1.00,+3.00,+3.00,+20.00,-66.00,+6.00,-6.00,-3.00,+0.00,-2.00,-4.00,+0.00
-9.00,+95.00,-6.00,-10.00,-11.00,-9.00,-9.00,-12.00,-29.00,-12.00,-5.00,-10.00,-10.00,-6.00,+3.00,+14.00
-11.00,-89.00,+13.00,+3.00,+8.00,+3.00,+1.00,+4.00,+57.00,+19.00,+12.00,+18.00,+22.00,+16.00,+17.00,+28.00
+47.00,+54.00,-3.00,-2.00,+0.00,-2.00,-2.00,+28.00,-28.00,+2.00,-1.00,+0.00,-1.00,-2.00,+0.00,-10.00
+56.00,+59.00,+5.00,-3.00,+0.00,-1.00,+2.00,+10.00,-94.00,-128.00,-25.00,-9.00,-6.00,-5.00,+1.00,-5.00
-1.00,-73.00,+14.00,+16.00,+8.00,+6.00,+13.00,+32.00,+96.00,+75.00,+17.00,-9.00,-13.00,-13.00,-22.00,-10.00
-28.00,-22.00,-14.00,-9.00,-9.00,-8.00,-11.00,-48.00,+51.00,+19.00,+8.00,+10.00,+11.00,+8.00,+12.00,+48.00
+1.00,-7.00,+2.00,+5.00,-1.00,+4.00,+3.00,+10.00,+11.00,+21.00,-1.00,-5.00,-2.00,-6.00,-7.00,-20.00
-37.00,+39.00,+3.00,-2.00,+2.00,-3.00,-4.00,-7.00,+41.00,-2.00,-5.00,-1.00,-1.00,-2.00,-3.00,-20.00
-38.00,+15.00,-12.00,-6.00,-5.00,-5.00,-7.00,-38.00,+50.00,+5.00,-4.00,-5.00,-10.00,-3.00,+3.00,+31.00
+42.00,-108.00,+30.00,+20.00,+12.00,+10.00,+17.00,+45.00,+54.00,+75.00,+6.00,+2.00,+3.00,+3.00,+12.00,+16.00
-7.00,+35.00,+1.00,-1.00,-1.00,-3.00,-5.00,-9.00,+24.00,-29.00,-6.00,-2.00,-1.00,+0.00,+0.00,+27.00
-5.00,+69.00,-30.00,-20.00,-13.00,-9.00,-11.00,-21.00,-91.00,-47.00,-7.00,-21.00,-21.00,-20.00,-26.00,-40.00
-50.00,+2.00,-22.00,-2.00,+0.00,-2.00,-7.00,-17.00,+7.00,+12.00,+9.00,+25.00,+29.00,+23.00,+20.00,+8.00
+86.00,+119.00,+58.00,+22.00,+12.00,+9.00,+17.00,+55.00,-22.00,+19.00,+0.00,-2.00,-5.00,-5.00,-12.00,-14.00
+25.00,+7.00,+15.00,+13.00,+8.00,+8.00,+10.00,+46.00,+10.00,-3.00,+0.00,+2.00,+0.00,+3.00,+6.00,+10.00
+14.00,+14.00,-9.00,-5.00,-2.00,-2.00,-1.00,+4.00,+1.00,-5.00,-6.00,-1.00,-4.00,-10.00,-2.00,-3.00
-69.00,-115.00,-33.00,-20.00,-10.00,-8.00,-18.00,-49.00,+14.00,+15.00,+3.00,-3.00,-3.00,+1.00,+2.00,+14.00
+59.00,+53.00,+33.00,+23.00,+13.00,+9.00,+10.00,+6.00,-33.00,-29.00,-5.00,-6.00,-5.00,-5.00,-5.00,-18.00
+0.00,+19.00,+5.00,+1.00,-3.00,+0.00,+0.00,-5.00,-117.00,-53.00,-13.00,-14.00,-13.00,-9.00,-18.00,-63.00
-40.00,+16.00,-31.00,-17.00,-10.00,-9.00,-12.00,-27.00,+36.00,-33.00,-4.00,+7.00,+10.00,+12.00,+10.00,+38.00
+61.00,-19.00,+45.00,+15.00,+10.00,+3.00,+8.00,-28.00,-4.00,+81.00,+18.00,+2.00,-2.00,-5.00,-2.00,-17.00
-37.00,+37.00,-26.00,-7.00,-6.00,-4.00,-8.00,-18.00,-27.00,-21.00,-9.00,-1.00,+0.00,+2.00,+1.00,-7.00
+12.00,+14.00,-11.00,-12.00,-9.00,-12.00,-10.00,-18.00,+5.00,+13.00,+3.00,-8.00,-11.00,-8.00,-6.00,+5.00
+16.00,-57.00,+6.00,+9.00,+7.00,+19.00,+9.00,+12.00,+26.00,+69.00,+6.00,+2.00,+1.00,+4.00,-3.00,-11.00
-1.00,+39.00,-4.00,-8.00,-2.00,-3.00,+0.00,+25.00,-20.00,-51.00,+0.00,+11.00,+14.00,+15.00,+16.00,+43.00
-40.00,-5.00,-23.00,-14.00,-11.00,-7.00,-10.00,-10.00,-45.00,-11.00,+0.00,+2.00,+1.00,-2.00,+0.00,+15.00
-75.00,-27.00,-20.00,-9.00,-6.00,-8.00,-12.00,-47.00,-76.00,-8.00,-3.00,+0.00,+2.00,-1.00,+6.00,+0.00
+71.00,+41.00,+57.00,+24.00,+13.00,+7.00,+18.00,+59.00,+53.00,+40.00,+1.00,+0.00,+0.00,+0.00,+13.00,+32.00
-6.00,-56.00,+2.00,+3.00,-1.00,+1.00,-1.00,-11.00,+89.00,+26.00,+2.00,+2.00,+2.00,+2.00,-1.00,+32.00
-20.00,-61.00,-7.00,-6.00,-2.00,-2.00,-3.00,-4.00,-124.00,-10.00,-6.00,-13.00,-16.00,-13.00,-22.00,-73.00
-5.00,+78.00,-27.00,-15.00,-10.00,-8.00,-13.00,-18.00,+82.00,-11.00,+5.00,+4.00,+4.00,+6.00,+14.00,+52.00
-51.00,-124.00,-1.00,-2.00,-3.00,-7.00,-6.00,-28.00,+28.00,+29.00,+5.00,+6.00,+6.00,+5.00,+5.00,+19.00
-22.00,-20.00,-14.00,-8.00,-3.00,-6.00,-4.00,-1.00,-128.00,-61.00,-19.00,-18.00,-18.00,-16.00,-18.00,-60.00
+17.00,-92.00,-2.00,+11.00,+4.00,+4.00,+5.00,+1.00,-25.00,-19.00,-2.00,-4.00,-4.00,-5.00,-8.00,-6.00
-16.00,-89.00,+10.00,+3.00,+1.00,+3.00,+3.00,+11.00,-27.00,-20.00,-7.00,-3.00,-2.00,-3.00,-4.00,-11.00
+3.00,+52.00,-1.00,-1.00,+1.00,+2.00,+2.00,-5.00,+11.00,-9.00,+1.00,-2.00,-4.00,-4.00,-3.00,-11.00
+87.00,+43.00,+17.00,+8.00,+2.00,+2.00,+10.00,+59.00,+24.00,+64.00,+6.00,+2.00,+4.00,+1.00,+1.00,-14.00
-42.00,+29.00,-40.00,-22.00,-12.00,-12.00,-18.00,-33.00,-31.00,-1.00,-2.00,-4.00,-6.00,-8.00,-6.00,-1.00
-46.00,+30.00,-2.00,-2.00,-1.00,+0.00,+1.00,-4.00,+100.00,+44.00,+13.00,+13.00,+11.00,+10.00,+9.00,+21.00
+5.00,-71.00,+18.00,+20.00,+8.00,+10.00,+10.00,+15.00,-51.00,-34.00,-3.00,-4.00,-3.00,-3.00,+4.00,+2.00
-75.00,-44.00,-52.00,-22.00,-15.00,-12.00,-20.00,-34.00,-11.00,-39.00,-8.00,+0.00,-2.00,+0.00,+3.00,-4.00
+49.00,+67.00,+29.00,+9.00,+6.00,+4.00,+6.00,+23.00,+16.00,-16.00,-2.00,-1.00,-2.00,+0.00,+2.00,+17.00
+83.00,+123.00,+34.00,+9.00,+5.00,+5.00,+5.00,+20.00,-45.00,-4.00,-5.00,-9.00,-3.00,-6.00,-8.00,-23.00
-12.00,+7.00,-25.00,-15.00,-8.00,-9.00,-11.00,-20.00,-43.00,+18.00,+7.00,+0.00,-2.00,+1.00,-5.00,-14.00
+18.00,-114.00,+33.00,+29.00,+19.00,+16.00,+19.00,+34.00,-106.00,-76.00,-26.00,-16.00,-15.00,-16.00,-25.00,-66.00
-23.00,+40.00,-16.00,-12.00,-8.00,-4.00,-9.00,-16.00,-35.00,+34.00,+20.00,+9.00,+9.00,+7.00,+11.00,+11.00
+46.00,+67.00,+11.00,+5.00,+1.00,+1.00,+2.00,+5.00,+56.00,+28.00,-2.00,+2.00,-2.00,-2.00,-5.00,+22.00
-51.00,-78.00,-30.00,-13.00,-8.00,-5.00,-5.00,+17.00,-30.00,+11.00,+2.00,+1.00,-2.00,-2.00,-7.00,-13.00
+41.00,+93.00,+14.00,-2.00,+1.00,+0.00,+3.00,+7.00,-19.00,-89.00,-20.00,-15.00,-16.00,-12.00,-23.00,-58.00
-43.00,-46.00,-20.00,-9.00,-6.00,-6.00,-5.00,-9.00,+109.00,+74.00,+22.00,+4.00,+3.00,+2.00,+11.00,+45.00
+7.00,-67.00,+2.00,+4.00,+0.00,+1.00,+3.00,+1.00,-50.00,-17.00,-8.00,+8.00,+11.00,+5.00,+8.00,+5.00
-3.00,-27.00,-19.00,-5.00,-2.00,-6.00,-4.00,-4.00,+14.00,+33.00,-1.00,-7.00,-10.00,-9.00,-5.00,+10.00
-31.00,+38.00,+3.00,+0.00,-1.00,+0.00,+1.00,+8.00,+34.00,-56.00,-2.00,+2.00,+2.00,+4.00,+6.00,+5.00
+38.00,+30.00,+37.00,+15.00,+8.00,+4.00,+11.00,+57.00,+6.00,-30.00,-14.00,-3.00,-3.00,-3.00,-6.00,-4.00
-19.00,-13.00,+12.00,+12.00,+7.00,+6.00,+9.00,+23.00,+64.00,+56.00,+12.00,-1.00,-2.00,+2.00,+2.00,+16.00
+27.00,-4.00,+4.00,+2.00,-2.00,+1.00,+2.00,+14.00,-8.00,-5.00,-1.00,+3.00,+4.00,+4.00,+5.00,+2.00
-101.00,-85.00,-30.00,-18.00,-11.00,-10.00,-13.00,-59.00,-23.00,-35.00,-10.00,-3.00,-3.00,-3.00,-3.00,-2.00
+68.00,+60.00,+24.00,+8.00,+5.00,+4.00,+7.00,+20.00,+65.00,+54.00,+2.00,-2.00,-2.00,+0.00,+4.00,+12.00
+13.00,-98.00,+10.00,+6.00,+5.00,+6.00,+10.00,+21.00,-10.00,-5.00,+3.00,-2.00,-2.00,-7.00,-4.00,+6.00
-7.00,+82.00,-8.00,-4.00,-1.00,-3.00,-4.00,-6.00,-86.00,-39.00,-11.00,-2.00,+1.00,+1.00,-6.00,-34.00
+1.00,-9.00,+16.00,+9.00,+2.00,+5.00,+3.00,+18.00,-19.00,+12.00,+3.00,+0.00,+0.00,-1.00,+1.00,+7.00
-9.00,-12.00,-2.00,-2.00,+3.00,+0.00,+1.00,+4.00,-39.00,-22.00,-9.00,-3.00,+0.00,-3.00,-7.00,-16.00
-26.00,-52.00,-22.00,-15.00,-9.00,-10.00,-14.00,-55.00,-14.00,+12.00,-2.00,-7.00,-8.00,-5.00,-5.00,-5.00
+45.00,+42.00,+32.00,+16.00,+9.00,+6.00,+11.00,+16.00,+33.00,-29.00,+1.00,+3.00,+5.00,+4.00,+2.00,-1.00
-5.00,-21.00,-17.00,-10.00,-6.00,-5.00,-8.00,-5.00,-15.00,+30.00,+10.00,+8.00,+8.00,+4.00,+1.00,-1.00
-55.00,-59.00,-24.00,-9.00,-5.00,-4.00,-8.00,-30.00,+16.00,-14.00,-14.00,-9.00,-9.00,-5.00,+0.00,+5.00
+15.00,+59.00,+5.00,+2.00,+1.00,+2.00,+5.00,+17.00,+31.00,+13.00,-1.00,-3.00,-4.00,-2.00,+1.00,+5.00
-14.00,-94.00,-5.00,+1.00,-1.00,-2.00,-4.00,-33.00,-12.00,+1.00,-2.00,+5.00,+4.00,+6.00,+8.00,+4.00
+21.00,+127.00,+16.00,+4.00,+1.00,-1.00,+0.00,+6.00,-91.00,-14.00,+1.00,+0.00,+0.00,-4.00,-9.00,-35.00
-23.00,-31.00,-5.00,-1.00,-3.00,+1.00,+0.00,+1.00,-37.00,-38.00,-6.00,-5.00,-6.00,-3.00,+0.00,+2.00
-13.00,-2.00,-12.00,-6.00,-3.00,-3.00,-8.00,-10.00,-30.00,-17.00,-3.00,+3.00,+4.00,+1.00,-4.00,-14.00
-17.00,-49.00,-3.00,-7.00,-4.00,-4.00,-3.00,-7.00,+35.00,+19.00,+3.00,-1.00,-1.00,+0.00,+7.00,+15.00
+42.00,+50.00,+10.00,+10.00,+5.00,+6.00,+9.00,+32.00,+31.00,+36.00,+5.00,+0.00,-2.00,+0.00,+0.00,+11.00
-33.00,-29.00,-21.00,-9.00,-7.00,-6.00,-8.00,-26.00,-2.00,-10.00,-5.00,+0.00,+3.00,+1.00,-3.00,-11.00
+9.00,+4.00,-1.00,-2.00,+0.00,-2.00,+1.00,+5.00,-10.00,+2.00,+0.00,-2.00,-3.00,-2.00,-1.00,-4.00
+2.00,+58.00,-17.00,-15.00,-6.00,-6.00,-10.00,-10.00,+0.00,-13.00,-2.00,-4.00,-2.00,-4.00,-6.00,-5.00
+16.00,-70.00,+10.00,+11.00,+4.00,+5.00,+7.00,+15.00,-11.00,+2.00,-5.00,-4.00,-3.00,-3.00,+3.00,+7.00
-11.00,+77.00,-13.00,-12.00,-10.00,-7.00,-15.00,-58.00,-29.00,-35.00,-5.00,+1.00,+2.00,+5.00,+2.00,-15.00
-31.00,-66.00,+7.00,+9.00,+5.00,+5.00,+4.00,+4.00,-1.00,-1.00,+2.00,+5.00,+4.00,+3.00,+2.00,+5.00
+8.00,+19.00,+3.00,+0.00,-4.00,+0.00,+0.00,-2.00,+7.00,+9.00,-1.00,+0.00,+0.00,-3.00,-7.00,-4.00
-5.00,-55.00,-7.00,-5.00,-3.00,-2.00,-1.00,+0.00,+11.00,+13.00,+1.00,+1.00,+1.00,+2.00,+6.00,+16.00
+35.00,+26.00,+14.00,+3.00,+2.00,+2.00,+3.00,+18.00,+0.00,+10.00,-1.00,-7.00,-8.00,-5.00,-10.00,-16.00
+5.00,+13.00,-5.00,-5.00,-1.00,-3.00,-4.00,-4.00,-15.00,-17.00,-6.00,-5.00,-5.00,-5.00,-1.00,-3.00
+10.00,-23.00,+12.00,+8.00,+4.00,+0.00,+2.00,+5.00,+30.00,-22.00,-4.00,+4.00,+5.00,+5.00,+5.00,+11.00
-37.00,-1.00,-16.00,-12.00,-7.00,-3.00,-5.00,-14.00,-1.00,+52.00,+13.00,+2.00,+1.00,-2.00,+0.00,-3.00
-10.00,-107.00,-11.00,-5.00,-4.00,-3.00,-2.00,-6.00,-9.00,-4.00,+2.00,+1.00,+0.00,-1.00,+0.00,-2.00
+27.00,+58.00,+6.00,+3.00,+4.00,+3.00,+4.00,+19.00,+4.00,-9.00,-5.00,-4.00,-6.00,-2.00,-5.00,-9.00
-3.00,-2.00,-1.00,-1.00,-1.00,+2.00,+1.00,+7.00,+8.00,+7.00,+5.00,+5.00,+3.00,+2.00,+4.00,+4.00
+23.00,+39.00,+1.00,-2.00,+0.00,-2.00,-1.00,+0.00,+12.00,-14.00,-6.00,-3.00,-1.00,+0.00,+5.00,+10.00
-30.00,-34.00,-18.00,-8.00,-5.00,-5.00,-5.00,-9.00,+40.00,+20.00,+0.00,+1.00,-1.00,-3.00,-2.00,-1.00
-4.00,+25.00,-7.00,-7.00,-5.00,-5.00,-8.00,-14.00,-49.00,-22.00,-5.00,-2.00,+0.00,+1.00,+0.00,-9.00
-2.00,-71.00,+21.00,+12.00,+5.00,+5.00,+6.00,+14.00,-12.00,-10.00,+0.00,-3.00,-2.00,-2.00,+0.00,+2.00
+4.00,+13.00,-3.00,+2.00,-1.00,+0.00,+3.00,+7.00,-2.00,-6.00,-8.00,-5.00,-3.00,-2.00,-1.00,+4.00
-15.00,-53.00,-3.00,+0.00,+0.00,+0.00,-1.00,-3.00,-29.00,+11.00,+8.00,+5.00,+3.00,+2.00,+4.00,-8.00
-14.00,-41.00,-8.00,-5.00,-4.00,-1.00,-2.00,-7.00,-26.00,-31.00,-3.00,-1.00,-2.00,-5.00,-4.00,-10.00
+9.00,+86.00,-3.00,-4.00,-2.00,-3.00,-5.00,-8.00,-2.00,+8.00,+5.00,+0.00,-1.00,-2.00,-4.00,-2.00
+19.00,+8.00,+7.00,+5.00,+1.00,+1.00,+2.00,+22.00,+11.00,+2.00,+3.00,+0.00,+2.00,+1.00,-2.00,+2.00
-3.00,-39.00,+4.00,+4.00,+4.00,+4.00,+7.00,+18.00,+16.00,+2.00,-3.00,-6.00,-4.00,-4.00,-3.00,+5.00
+2.00,-18.00,+1.00,-1.00,-1.00,+1.00,+4.00,+42.00,-18.00,-2.00,+2.00,-2.00,-2.00,-1.00,-2.00,-8.00
-16.00,+10.00,-6.00,-5.00,-2.00,-3.00,-4.00,-13.00,+10.00,+10.00,+0.00,+3.00,+2.00,+3.00,+3.00,+3.00
+10.00,+45.00,-1.00,-4.00,-2.00,-3.00,-4.00,-4.00,+5.00,-35.00,-6.00,+2.00,+2.00,+2.00,+2.00,+4.00
-7.00,-6.00,+1.00,+1.00,+1.00,-1.00,-1.00,+0.00,+9.00,+33.00,+7.00,+1.00,+0.00,-2.00,-3.00,-3.00
+1.00,-8.00,-7.00,-2.00,-2.00,-2.00,-1.00,-1.00,+0.00,-2.00,-1.00,+0.00,+0.00,+0.00,-3.00,-6.00
+8.00,+2.00,+8.00,+4.00,+0.00,+1.00,+1.00,+10.00,+7.00,+13.00,+0.00,-2.00,-4.00,-3.00,-2.00,+2.00
-1.00,+12.00,+0.00,+1.00,+1.00,+0.00,+1.00,+0.00,-21.00,-7.00,-5.00,-2.00,-1.00,-2.00,-2.00,-10.00
-16.00,-9.00,-5.00,-5.00,-3.00,-4.00,-4.00,-29.00,+3.00,-8.00,-2.00,-1.00,+0.00,+0.00,-2.00,+3.00
-19.00,-45.00,-5.00,-4.00,-3.00,-2.00,-5.00,-18.00,+18.00,+10.00,+6.00,+3.00,+1.00,+1.00,-2.00,+0.00
+6.00,+12.00,-1.00,+1.00,+0.00,+0.00,+1.00,+2.00,-1.00,-1.00,-3.00,-4.00,-3.00,-3.00,-3.00,-4.00
+12.00,+5.00,+6.00,+3.00,+2.00,+0.00,+2.00,+3.00,-6.00,-7.00,-6.00,-1.00,+0.00,+3.00,-2.00,-2.00
+7.00,+7.00,-5.00,-3.00,-3.00,-2.00,-5.00,+0.00,+6.00,-5.00,-5.00,-5.00,-4.00,-3.00,-4.00,-4.00
+5.00,-6.00,-1.00,+0.00,+0.00,-1.00,+4.00,+2.00,+15.00,+6.00,+3.00,+2.00,+2.00,+3.00,+4.00,+17.00
-10.00,-19.00,-7.00,-4.00,-1.00,-3.00,-5.00,-10.00,-8.00,-11.00,-3.00,-1.00,-1.00,+0.00,-3.00,-8.00
-3.00,+9.00,+5.00,-3.00,-2.00,-1.00,-1.00,-5.00,-14.00,+2.00,+4.00,+2.00,-1.00,-3.00,+0.00,+0.00
-7.00,-4.00,+1.00,+3.00,+2.00,+0.00,+1.00,+10.00,+7.00,+9.00,-8.00,-1.00,+0.00,-1.00,-2.00,-1.00
+22.00,+27.00,+4.00,+1.00,+2.00,+0.00,+2.00,+31.00,-9.00,-10.00,+11.00,+2.00,-1.00,+0.00,+0.00,-2.00
-10.00,-26.00,-16.00,-3.00,-2.00,-3.00,-6.00,-25.00,+0.00,-10.00,-11.00,-7.00,-3.00,-3.00,-19.00,-5.00
-3.00,+0.00,-4.00,-1.00,+0.00,+1.00,-1.00,-7.00,+0.00,-5.00,-4.00,-4.00,-4.00,+3.00,+27.00,+3.00
-12.00,-3.00,-5.00,-2.00,-2.00,-1.00,+1.00,+3.00,+18.00,+7.00,-1.00,-1.00,-3.00,-2.00,-7.00,+11.00
-3.00,+8.00,+5.00,+1.00,-1.00,-1.00,-2.00,+1.00,-12.00,-5.00,-1.00,+1.00,+1.00,+0.00,+0.00,-10.00
-6.00,-14.00,+4.00,-1.00,-1.00,+2.00,+2.00,+11.00,-4.00,+10.00,+4.00,+2.00,+0.00,-1.00,+0.00,+8.00
+0.00,+7.00,+4.00,+1.00,+0.00,-1.00,-1.00,-7.00,-1.00,-3.00,-4.00,-1.00,-1.00,-2.00,-14.00,-5.00
-2.00,+21.00,+11.00,+2.00,+0.00,-1.00,-4.00,-5.00,-2.00,-23.00,-4.00,-4.00,-3.00,-1.00,+4.00,-3.00
-1.00,-3.00,-17.00,-2.00,-1.00,-1.00,-1.00,-11.00,+10.00,+24.00,-2.00,-2.00,+2.00,+1.00,+5.00,-3.00
+8.00,-4.00,-1.00,+2.00,-1.00,-2.00,-3.00,+6.00,-1.00,-2.00,-1.00,-2.00,-2.00,-2.00,-9.00,-6.00
-6.00,-4.00,-6.00,-4.00,-4.00,-1.00,-6.00,-11.00,-1.00,-1.00,-4.00,-1.00,+1.00,+1.00,+3.00,-4.00
-8.00,-18.00,-11.00,-5.00,-1.00,-2.00,-3.00,-10.00,-1.00,-9.00,+0.00,-1.00,-1.00,-4.00,+6.00,+5.00
+1.00,+20.00,+11.00,+3.00,-1.00,+2.00,+7.00,-13.00,-4.00,-19.00,-4.00,-2.00,-3.00,-5.00,-4.00,-2.00
+8.00,+11.00,+4.00,+3.00,+2.00,+4.00,+6.00,+6.00,+3.00,+15.00,-1.00,-4.00,-4.00,-5.00,-12.00,-13.00
+8.00,-5.00,-5.00,-4.00,-1.00,-3.00,+0.00,+14.00,-7.00,-7.00,+4.00,-1.00,+0.00,+2.00,+10.00,+5.00
+1.00,+7.00,+1.00,+1.00,-1.00,-2.00,-4.00,+5.00,-3.00,+6.00,-4.00,-1.00,-1.00,+0.00,+0.00,-5.00
-7.00,-18.00,-2.00,-2.00,-1.00,-1.00,-7.00,-14.00,+7.00,-13.00,-8.00,-2.00,+1.00,-1.00,-5.00,+10.00
+3.00,-14.00,-1.00,+0.00,+1.00,-4.00,-4.00,-2.00,+1.00,+18.00,+7.00,+2.00,+1.00,+0.00,+7.00,-1.00
+1.00,+5.00,+6.00,+2.00,+1.00,-1.00,-4.00,-10.00,-3.00,-2.00,-1.00,-3.00,-2.00,-4.00,-10.00,-4.00
+1.00,-8.00,-11.00,-3.00,-3.00,-3.00,+0.00,-1.00,-5.00,-2.00,+1.00,+0.00,+2.00,+0.00,-6.00,-5.00
+1.00,+7.00,+2.00,-3.00,-4.00,-2.00,+4.00,-17.00,-2.00,-6.00,-2.00,+0.00,-3.00,-1.00,+6.00,-1.00
+2.00,-11.00,-16.00,-9.00,-2.00,+4.00,+1.00,+14.00,-1.00,-7.00,-2.00,-3.00,-3.00,+0.00,+3.00,-1.00
+8.00,+7.00,+5.00,+0.00,+0.00,+1.00,+1.00,+16.00,+7.00,+13.00,+1.00,-1.00,-1.00,-2.00,-7.00,-1.00
+6.00,+4.00,+0.00,-1.00,+1.00,+3.00,+2.00,+6.00,-6.00,-10.00,-2.00,-2.00,-1.00,-3.00,-1.00,-5.00
+0.00,+7.00,+4.00,+0.00,-3.00,-3.00,-8.00,-9.00,+7.00,+8.00,-2.00,-1.00,+0.00,+0.00,+0.00,+0.00
+3.00,+5.00,+8.00,+4.00,+0.00,-2.00,+2.00,+1.00,-3.00,-7.00,+1.00,+1.00,+0.00,+2.00,+7.00,+6.00
+3.00,+7.00,-5.00,+0.00,-3.00,+1.00,+1.00,+8.00,-2.00,+7.00,-2.00,+0.00,-2.00,-3.00,-4.00,-3.00
-5.00,-13.00,-1.00,-2.00,-1.00,+0.00,+1.00,+3.00,-1.00,-1.00,+3.00,-1.00,-1.00,+1.00,+1.00,-2.00
-7.00,+14.00,+5.00,+0.00,-1.00,-2.00,-9.00,-49.00,+1.00,-10.00,-4.00,-2.00,+0.00,+1.00,-5.00,-1.00
-4.00,-11.00,-2.00,-1.00,+1.00,-2.00,-7.00,-2.00,+3.00,+9.00,+0.00,-1.00,-2.00,-2.00,-1.00,-2.00
-4.00,-7.00,-6.00,-3.00,+0.00,-3.00,+0.00,-10.00,+2.00,-8.00,+4.00,-1.00,-1.00,+0.00,+5.00,+7.00
+4.00,+2.00,+2.00,+1.00,+1.00,+1.00,+2.00,+6.00,+0.00,-5.00,-2.00,-1.00,-2.00,-2.00,-3.00,+3.00
+3.00,+1.00,-2.00,-1.00,-1.00,+1.00,-2.00,+10.00,+4.00,+10.00,+3.00,-1.00,-3.00,-1.00,-2.00,+2.00
-2.00,+9.00,-1.00,+1.00,+1.00,-2.00,+0.00,-6.00,-8.00,-14.00,-13.00,-3.00,-1.00,-2.00,+0.00,-5.00
+1.00,+9.00,+0.00,-2.00,-2.00,-5.00,-2.00,-9.00,-11.00,-1.00,-1.00,+1.00,-2.00,-2.00,-5.00,+4.00
+11.00,+12.00,-2.00,-1.00,-3.00,-2.00,-3.00,-2.00,+26.00,+11.00,+0.00,-2.00,-1.00,-1.00,+4.00,+8.00
+0.00,-5.00,+2.00,+0.00,+0.00,+0.00,-3.00,+12.00,-12.00,-5.00,-1.00,-4.00,-4.00,-1.00,+1.00,-5.00
-8.00,-10.00,-8.00,-5.00,-1.00,+0.00,+2.00,-9.00,-19.00,+2.00,+6.00,+2.00,+2.00,-1.00,-1.00,-6.00
-6.00,-5.00,+1.00,-2.00,+0.00,+2.00,+3.00,-8.00,+6.00,+5.00,+2.00,+0.00,-1.00,-1.00,-2.00,-1.00
-5.00,-18.00,-12.00,-5.00,-1.00,+0.00,-1.00,-7.00,-12.00,-10.00,-1.00,-2.00,-1.00,-2.00,-3.00,-8.00
+1.00,+6.00,-2.00,-1.00,+0.00,-2.00,+1.00,+12.00,+8.00,+2.00,-1.00,-1.00,+0.00,-1.00,+2.00,+9.00
-2.00,-8.00,+5.00,+2.00,+0.00,+2.00,-1.00,-1.00,+4.00,+3.00,-2.00,-2.00,-3.00,-3.00,+1.00,+1.00
-2.00,-7.00,+0.00,+1.00,+0.00,-2.00,-3.00,-4.00,-2.00,-2.00,-3.00,-1.00,+0.00,+0.00,-3.00,+0.00
-3.00,-1.00,-2.00,-3.00,-3.00,-2.00,-2.00,-1.00,-4.00,+0.00,+1.00,+3.00,+0.00,+0.00,-2.00,-3.00
+2.00,+3.00,-7.00,-4.00,+1.00,-2.00,+0.00,+2.00,-1.00,-6.00,-2.00,+0.00,-3.00,-3.00,-4.00,-4.00
+3.00,-4.00,+10.00,+3.00,+1.00,+1.00,+1.00,+7.00,-2.00,-10.00,-4.00,-4.00,-2.00,-1.00,+3.00,-6.00
+14.00,+16.00,-1.00,+2.00,-1.00,-2.00,-3.00,+4.00,+5.00,+16.00,+2.00,+2.00,+4.00,+0.00,-2.00,+0.00
-11.00,-8.00,+0.00,+0.00,+0.00,+0.00,-2.00,-3.00,+2.00,-2.00,-2.00,-2.00,-5.00,-2.00,+2.00,+7.00
+1.00,+0.00,-2.00,-1.00,-1.00,+0.00,+2.00,+1.00,-10.00,-6.00,-4.00,-4.00,+1.00,-2.00,-3.00,-5.00
-5.00,-2.00,+1.00,-2.00,-3.00,-1.00,-1.00,-1.00,+10.00,-3.00,+1.00,-3.00,-3.00,-2.00,+0.00,+2.00
+1.00,-14.00,-2.00,-3.00,-2.00,-1.00,-1.00,-2.00,-6.00,-17.00,-5.00,-2.00,-3.00,-1.00,-3.00,-6.00
+1.00,+6.00,+1.00,-2.00,-2.00,-1.00,-3.00,-1.00,-2.00,+8.00,-2.00,-6.00,-4.00,-1.00,-1.00,+5.00
-2.00,-6.00,+1.00,+0.00,+3.00,+2.00,-3.00,-1.00,-7.00,+9.00,+2.00,+2.00,+3.00,+1.00,+1.00,-8.00
-10.00,+3.00,-2.00,-2.00,-3.00,+0.00,-5.00,-34.00,-3.00,-3.00,-2.00,+1.00,+3.00,+0.00,+1.00,+0.00
-2.00,-13.00,-2.00,+1.00,-5.00,+1.00,-1.00,-1.00,+1.00,-3.00,-2.00,-2.00,+1.00,+0.00,-5.00,-7.00
+0.00,-1.00,-3.00,-1.00,+11.00,+0.00,+3.00,-3.00,-3.00,-4.00,+0.00,+2.00,+1.00,-2.00,-3.00,-3.00
+2.00,-2.00,-1.00,-2.00,-3.00,-2.00,+0.00,+12.00,+2.00,-15.00,+0.00,+2.00,-2.00,+1.00,+4.00,+9.00
+6.00,+13.00,+0.00,+0.00,+4.00,+0.00,+0.00,+11.00,+5.00,+13.00,+1.00,+0.00,+2.00,+0.00,+0.00,+2.00
-12.00,-5.00,-3.00,-1.00,+1.00,+1.00,-1.00,-3.00,-4.00,+2.00,-2.00,-3.00,-5.00,-1.00,-4.00,-4.00
+1.00,+4.00,+1.00,-1.00,-2.00,-4.00,-2.00,-6.00,-5.00,-9.00,-2.00,-2.00,-2.00,-3.00,-3.00,-4.00
+4.00,+4.00,+1.00,-1.00,-3.00,-1.00,-1.00,+0.00,-5.00,-1.00,-4.00,-1.00,-1.00,-2.00,-6.00,-6.00
+11.00,+19.00,+2.00,+2.00,+1.00,+0.00,+3.00,+8.00,-1.00,-1.00,-1.00,+1.00,-1.00,-1.00,+1.00,+2.00
-12.00,-18.00,-8.00,-3.00,-3.00,+0.00,-1.00,+1.00,+13.00,-4.00,+0.00,+1.00,+3.00,-3.00,-2.00,+1.00
-4.00,-5.00,+0.00,+1.00,-3.00,-1.00,+0.00,+4.00,-20.00,-4.00,-4.00,-2.00,-1.00,-1.00,-1.00,-6.00
-3.00,-6.00,-2.00,-2.00,+2.00,-2.00,-2.00,-7.00,+12.00,+10.00,+2.00,+2.00,+3.00,-1.00,+2.00,+2.00
+2.00,+6.00,+1.00,+0.00,-1.00,-3.00,-2.00,+5.00,-3.00,-1.00,+1.00,+0.00,+1.00,-2.00,-3.00,-2.00
+0.00,-2.00,+0.00,-3.00,+3.00,+1.00,+2.00,-1.00,-2.00,-2.00,+1.00,-1.00,-3.00,-1.00,+0.00,-2.00
-3.00,-1.00,-1.00,-1.00,-3.00,+0.00,-1.00,-3.00,+9.00,+11.00,+1.00,-4.00,-2.00,-1.00,-2.00,+0.00
+4.00,-1.00,+0.00,-1.00,-3.00,+0.00,+1.00,+26.00,+0.00,-6.00,-3.00,-1.00,-5.00,-1.00,-2.00,+2.00
-22.00,-10.00,-3.00,-2.00,-3.00,-3.00,-4.00,-36.00,-4.00,-8.00,-2.00,-9.00,-8.00,+0.00,-1.00,+2.00
+6.00,-4.00,+0.00,-1.00,+1.00,+0.00,-2.00,-4.00,+5.00,+10.00,-2.00,-1.00,-1.00,+0.00,+2.00,+3.00
-15.00,-12.00,-4.00,-5.00,-4.00,-2.00,-3.00,-2.00,-2.00,+11.00,+1.00,-2.00,+1.00,+0.00,-1.00,-1.00
+26.00,+33.00,+9.00,+6.00,+2.00,+3.00,+5.00,+19.00,-5.00,+1.00,-4.00,-1.00,+0.00,-1.00,-3.00,-1.00
