+1.00,+0.00,+2.00,+1.00,+0.00,+0.00,-2.00,-1.00,+0.00,+0.00,+2.00,+0.00,-1.00,-2.00,-2.00,-3.00
-5.00,-1.00,+0.00,-2.00,-3.00,-1.00,-1.00,-4.00,+3.00,+1.00,+0.00,-1.00,-2.00,+0.00,+1.00,+9.00
-4.00,+2.00,+1.00,-2.00,-1.00,+0.00,+0.00,+1.00,-5.00,-3.00,-1.00,-2.00,-2.00,-2.00,-2.00,-5.00
+0.00,-2.00,+0.00,-1.00,-2.00,+0.00,-2.00,+3.00,+3.00,-4.00,-2.00,-2.00,+0.00,-2.00,+0.00,-4.00
+1.00,-1.00,-3.00,-2.00,-2.00,-3.00,+0.00,-1.00,+2.00,+3.00,+1.00,+0.00,-1.00,+0.00,+0.00,+4.00
+0.00,-2.00,-3.00,-1.00,-1.00,+0.00,-1.00,+0.00,-2.00,-4.00,-4.00,-3.00,-3.00,-2.00,-1.00,-1.00
-6.00,-3.00,+0.00,-3.00,-2.00,-1.00,-3.00,-4.00,+3.00,+3.00,+4.00,+0.00,+0.00,+0.00,+1.00,+0.00
-2.00,-2.00,-3.00,-1.00,-1.00,-1.00,+0.00,-1.00,-8.00,-4.00,-4.00,-2.00,+0.00,+0.00,-2.00,-1.00
+2.00,-3.00,+0.00,+0.00,+0.00,-1.00,+1.00,+3.00,-5.00,-2.00,-2.00,-2.00,-2.00,-2.00,-3.00,-9.00
-5.00,+2.00,+3.00,+2.00,+0.00,-1.00,+1.00,-5.00,+3.00,-1.00,-2.00,+2.00,-3.00,-1.00,-2.00,-1.00
+2.00,-1.00,-1.00,-1.00,-2.00,+0.00,+1.00,+2.00,+1.00,+1.00,-3.00,-2.00,-1.00,-1.00,+0.00,+5.00
-1.00,+0.00,-1.00,-1.00,+1.00,+0.00,-2.00,-2.00,-5.00,-5.00,-4.00,-1.00,-3.00,-39.00,-2.00,-4.00
-1.00,-3.00,-3.00,-1.00,-1.00,+1.00,+2.00,+1.00,+2.00,+2.00,+3.00,+1.00,+6.00,+29.00,+6.00,+2.00
+1.00,+1.00,+0.00,-1.00,+1.00,+2.00,-4.00,+1.00,-4.00,-3.00,-2.00,-5.00,+2.00,+19.00,-6.00,-7.00
+1.00,-1.00,+2.00,+2.00,-1.00,-2.00,-2.00,-1.00,-5.00,-9.00,-3.00,-1.00,-2.00,+0.00,-3.00,-8.00
+1.00,+2.00,+0.00,-1.00,+0.00,-3.00,-1.00,-1.00,-2.00,-1.00,-2.00,-1.00,-1.00,+13.00,-2.00,+1.00
-3.00,-1.00,-1.00,+1.00,-2.00,+0.00,+4.00,-2.00,+1.00,-1.00,-4.00,-2.00,-3.00,-22.00,+4.00,+3.00
-4.00,-2.00,-1.00,-1.00,+1.00,+3.00,-1.00,-3.00,+7.00,+11.00,+4.00,+0.00,-2.00,-7.00,+0.00,+0.00
-4.00,-2.00,-3.00,-2.00,-1.00,-7.00,-9.00,-2.00,-6.00,-11.00,-3.00,+1.00,-2.00,+2.00,-13.00,-8.00
+2.00,-3.00,-1.00,-2.00,-3.00,-2.00,+1.00,+1.00,+1.00,+1.00,+1.00,+1.00,+0.00,-13.00,-3.00,+0.00
-3.00,-1.00,-1.00,+1.00,-2.00,-3.00,-7.00,-1.00,+0.00,+10.00,-2.00,-2.00,-5.00,-22.00,-3.00,-5.00
+0.00,+3.00,-2.00,-2.00,-2.00,+0.00,-25.00,-6.00,-4.00,-4.00,-3.00,-3.00,+1.00,+44.00,+2.00,-7.00
+3.00,-3.00,+3.00,+3.00,+3.00,+10.00,+48.00,+15.00,+17.00,-7.00,-7.00,-3.00,-1.00,+18.00,+12.00,+14.00
-12.00,-16.00,-3.00,-3.00,-1.00,-4.00,+4.00,-9.00,+5.00,+7.00,+4.00,+1.00,+0.00,-3.00,-9.00,-1.00
-2.00,+10.00,+1.00,+0.00,+2.00,+1.00,+0.00,-5.00,-11.00,-2.00,-1.00,+0.00,-3.00,-26.00,-8.00,-4.00
+0.00,+1.00,+0.00,-1.00,-2.00,+2.00,+14.00,-2.00,-6.00,+11.00,+1.00,+1.00,-1.00,-17.00,+2.00,+4.00
+2.00,+0.00,-4.00,-2.00,-3.00,-4.00,-35.00,+2.00,-3.00,-9.00,-1.00,+2.00,+2.00,-1.00,+4.00,+1.00
+0.00,-1.00,-3.00,-1.00,-4.00,-10.00,-15.00,+0.00,+14.00,+13.00,+8.00,+2.00,-5.00,-52.00,-6.00,+6.00
-6.00,-8.00,-1.00,+0.00,+1.00,+5.00,+18.00,+0.00,+1.00,-2.00,+2.00,+2.00,+11.00,+89.00,+11.00,+0.00
+8.00,-33.00,-5.00,+1.00,+0.00,+3.00,+5.00,-11.00,-9.00,-9.00,-6.00,-4.00,-10.00,-21.00,-17.00,-12.00
+13.00,+46.00,+3.00,-3.00,-1.00,-1.00,+1.00,+4.00,-9.00,-5.00,+0.00,+2.00,+3.00,+11.00,-3.00,-13.00
-4.00,-17.00,-2.00,+0.00,+5.00,+10.00,-14.00,-1.00,+2.00,-5.00,-3.00,-4.00,-3.00,-1.00,+3.00,+3.00
+6.00,+31.00,+4.00,+1.00,-2.00,-14.00,+4.00,+5.00,-14.00,-14.00,-6.00,-4.00,-4.00,-25.00,-7.00,-13.00
+5.00,+14.00,+2.00,+0.00,-4.00,-3.00,+31.00,+4.00,+3.00,+5.00,+5.00,+3.00,+3.00,+4.00,+6.00,+13.00
-15.00,-28.00,-6.00,-4.00,+0.00,-3.00,-12.00,-15.00,+0.00,-3.00,-3.00,-1.00,-3.00,-16.00,+1.00,+8.00
+5.00,+4.00,+1.00,+0.00,-2.00,-6.00,-2.00,+4.00,+4.00,+6.00,-1.00,+0.00,+0.00,+18.00,+3.00,+0.00
-15.00,-17.00,-4.00,-3.00,-1.00,+5.00,-10.00,-11.00,+6.00,+10.00,-1.00,-4.00,-4.00,-11.00,-9.00,+1.00
-7.00,-6.00,-4.00,-3.00,-1.00,-3.00,+5.00,+6.00,-19.00,-16.00,-2.00,-2.00,-1.00,+0.00,-1.00,-13.00
+1.00,+2.00,+3.00,+4.00,+2.00,+1.00,-7.00,-3.00,-4.00,+6.00,+3.00,+2.00,+5.00,-12.00,+2.00,+5.00
-1.00,+3.00,-2.00,-2.00,-1.00,+3.00,+4.00,+2.00,+1.00,-17.00,-8.00,-2.00,-2.00,+17.00,+4.00,+4.00
-1.00,-11.00,-3.00,-3.00,-2.00,-7.00,-13.00,-1.00,+6.00,+13.00,+5.00,+0.00,-3.00,+4.00,+1.00,+10.00
-6.00,-12.00,+0.00,-1.00,-2.00,-2.00,-2.00,+3.00,+4.00,-9.00,-8.00,-2.00,-4.00,-17.00,-2.00,-6.00
-11.00,-1.00,-4.00,-1.00,-2.00,-3.00,-3.00,-8.00,+2.00,+12.00,+4.00,-2.00,-3.00,-6.00,-5.00,-7.00
+24.00,+32.00,+5.00,+3.00,+1.00,+2.00,+4.00,+4.00,-9.00,-3.00,+1.00,+0.00,+2.00,+18.00,+2.00,-3.00
+7.00,+8.00,+6.00,+1.00,+2.00,+5.00,+0.00,+5.00,+15.00,-2.00,+1.00,+4.00,+4.00,-9.00,-1.00,+3.00
-6.00,+9.00,-1.00,+1.00,+2.00,-5.00,-13.00,-5.00,-3.00,+7.00,+4.00,-1.00,-2.00,-7.00,+2.00,+3.00
+5.00,-12.00,-3.00,+0.00,-2.00,+2.00,+4.00,+4.00,-7.00,+20.00,+0.00,-2.00,-1.00,-3.00,-4.00,-9.00
-9.00,-9.00,-1.00,+1.00,-4.00,-1.00,+3.00,-3.00,-1.00,+3.00,-3.00,-5.00,+1.00,+10.00,+0.00,+1.00
+3.00,-5.00,-3.00,-2.00,-2.00,-2.00,-1.00,+1.00,-13.00,-19.00,-6.00,-4.00,-6.00,-44.00,-6.00,-6.00
-10.00,+0.00,-2.00,-2.00,+0.00,+0.00,-5.00,-1.00,-5.00,-10.00,-5.00,+0.00,+5.00,+30.00,+5.00,-2.00
-2.00,-11.00,+0.00,+1.00,-1.00,-2.00,-1.00,-2.00,+7.00,+0.00,-3.00,-5.00,-3.00,+19.00,-1.00,+0.00
+1.00,+1.00,+2.00,-3.00,-1.00,-1.00,+2.00,+1.00,-8.00,-5.00,-1.00,+1.00,-1.00,+1.00,-2.00,-2.00
-1.00,-3.00,-2.00,-2.00,-2.00,+0.00,-4.00,-3.00,-4.00,-3.00,-1.00,-2.00,-1.00,+4.00,+0.00,+0.00
+5.00,-5.00,-1.00,-2.00,-2.00,+0.00,-3.00,+3.00,+12.00,-7.00,-4.00,-1.00,+0.00,-22.00,+0.00,+8.00
+1.00,+2.00,+3.00,-1.00,-3.00,-2.00,+3.00,+1.00,-1.00,-8.00,-1.00,-3.00,-4.00,-13.00,-1.00,-2.00
-3.00,-4.00,-4.00,-4.00,-2.00,-4.00,-5.00,-7.00,-8.00,+19.00,+3.00,+1.00,+1.00,+12.00,+0.00,-5.00
-5.00,-8.00,-3.00,-2.00,+0.00,+2.00,+1.00,+1.00,-9.00,-8.00,+1.00,+2.00,-1.00,-4.00,-4.00,-7.00
+3.00,+28.00,+1.00,+0.00,+0.00,-2.00,-3.00,+2.00,-5.00,-3.00,-3.00,+0.00,+1.00,-3.00,-3.00,-2.00
-2.00,-4.00,-2.00,-1.00,+0.00,-1.00,+1.00,-3.00,+4.00,+6.00,+3.00,+0.00,-5.00,+1.00,+0.00,+1.00
-2.00,-5.00,-1.00,-1.00,-1.00,+1.00,+0.00,-1.00,-5.00,-14.00,-5.00,-1.00,+7.00,-3.00,+0.00,+1.00
+0.00,+9.00,+5.00,-1.00,-1.00,-1.00,+4.00,-1.00,+13.00,+6.00,-1.00,-3.00,-10.00,+9.00,+1.00,-2.00
+12.00,+6.00,+2.00,+5.00,+3.00,+2.00,-3.00,+11.00,-1.00,+1.00,-5.00,-5.00,-6.00,-7.00,-2.00,-2.00
-6.00,-3.00,+3.00,+1.00,-3.00,-1.00,-2.00,-3.00,-25.00,-45.00,-8.00,+4.00,+5.00,+0.00,-1.00,-3.00
+2.00,+0.00,-2.00,+0.00,+1.00,+0.00,+0.00,+2.00,+11.00,+47.00,+17.00,+13.00,+4.00,+0.00,+2.00,+10.00
-6.00,-12.00,-10.00,-5.00,-6.00,-3.00,+0.00,-1.00,+1.00,+6.00,+2.00,-4.00,-4.00,-1.00,-3.00,-5.00
-7.00,-12.00,-2.00,-3.00,+1.00,-6.00,-8.00,+0.00,-1.00,+13.00,-1.00,-9.00,-18.00,-59.00,-6.00,+5.00
-14.00,-10.00,-5.00,+1.00,+13.00,+5.00,+6.00,-11.00,+5.00,-38.00,-11.00,-7.00,+3.00,+54.00,+3.00,-11.00
-4.00,+10.00,+8.00,+2.00,-8.00,-5.00,+3.00,+4.00,-2.00,-17.00,-10.00,+0.00,+11.00,+7.00,+0.00,-3.00
+13.00,+20.00,-1.00,-4.00,+2.00,+3.00,-3.00,+2.00,+7.00,+38.00,+13.00,+9.00,+11.00,+12.00,+3.00,+2.00
+1.00,+9.00,-6.00,-7.00,-1.00,-4.00,-4.00,+1.00,+5.00,+0.00,-1.00,-1.00,-2.00,-4.00,+0.00,-1.00
+2.00,-9.00,-4.00,-5.00,-4.00,+0.00,-3.00,-1.00,-6.00,+9.00,+1.00,-1.00,-2.00,-28.00,-4.00,-5.00
-10.00,-19.00,-9.00,-4.00,+0.00,-4.00,-1.00,-4.00,+3.00,-23.00,-9.00,-6.00,-8.00,-4.00,+1.00,+0.00
-4.00,-31.00,+7.00,+7.00,+0.00,-2.00,+0.00,+1.00,+4.00,-16.00,-7.00,-4.00,-1.00,+6.00,-2.00,+2.00
+1.00,-7.00,-6.00,+1.00,-1.00,+2.00,+6.00,-1.00,-23.00,-26.00,-4.00,+0.00,+2.00,-2.00,-8.00,-7.00
+2.00,+5.00,+1.00,+0.00,-2.00,-5.00,-10.00,+1.00,-4.00,+19.00,+8.00,+7.00,+7.00,-7.00,+5.00,+4.00
-2.00,-4.00,-1.00,+1.00,-3.00,+0.00,+3.00,-3.00,+0.00,+7.00,+1.00,-9.00,-15.00,+5.00,-7.00,-4.00
-2.00,+3.00,-4.00,-5.00,+0.00,-3.00,-23.00,-2.00,+4.00,+1.00,-10.00,-6.00,+6.00,-15.00,-5.00,-1.00
-14.00,-30.00,-8.00,-7.00,-2.00,+1.00,+38.00,-3.00,-15.00,-5.00,+3.00,+8.00,+9.00,-37.00,-13.00,-24.00
+13.00,+55.00,+9.00,+1.00,-3.00,+3.00,+12.00,+4.00,+8.00,+9.00,-16.00,-14.00,-19.00,+48.00,+10.00,+17.00
+38.00,+46.00,+3.00,+2.00,-3.00,+0.00,-7.00,+11.00,-16.00,-39.00,-2.00,-9.00,-6.00,+28.00,+2.00,-8.00
-7.00,-9.00,-6.00,+0.00,+6.00,+1.00,+0.00,+1.00,-4.00,-3.00,-1.00,+3.00,-6.00,-23.00,-6.00,-8.00
-10.00,-7.00,-5.00,-3.00,-14.00,-4.00,-8.00,-7.00,+4.00,-25.00,-7.00,-2.00,+6.00,+24.00,+6.00,+13.00
-12.00,-41.00,-8.00,-3.00,+1.00,-6.00,-5.00,+11.00,+4.00,+14.00,+10.00,+5.00,+13.00,-39.00,-2.00,-1.00
-5.00,+3.00,+1.00,+0.00,-7.00,+5.00,+8.00,-10.00,-16.00,+15.00,-8.00,-10.00,-8.00,-16.00,-4.00,-13.00
-3.00,+35.00,+3.00,+2.00,+3.00,-11.00,-28.00,-9.00,-12.00,-37.00,-7.00,+0.00,+0.00,+22.00,+5.00,-8.00
+7.00,+18.00,+4.00,+2.00,-1.00,+16.00,+7.00,+4.00,+27.00,+18.00,+9.00,+8.00,+25.00,+10.00,+12.00,+36.00
-16.00,-15.00,-6.00,-8.00,-2.00,-5.00,+3.00,-6.00,-31.00,-55.00,-24.00,-12.00,-26.00,-35.00,-1.00,-23.00
+18.00,-9.00,+0.00,-2.00,+1.00,+2.00,-4.00,+11.00,+17.00,+44.00,+13.00,+9.00,+4.00,+28.00,+0.00,+10.00
+10.00,-6.00,-4.00,-1.00,-1.00,-1.00,+4.00,+5.00,+5.00,+21.00,+5.00,-13.00,-22.00,+1.00,-4.00,+8.00
-4.00,+10.00,+6.00,+2.00,+3.00,-10.00,-8.00,-3.00,-5.00,+16.00,+2.00,-1.00,+21.00,+8.00,-1.00,-6.00
-5.00,+14.00,+5.00,+5.00,-1.00,+1.00,-15.00,-12.00,+1.00,+17.00,+8.00,+9.00,-8.00,+3.00,-4.00,+0.00
-14.00,-16.00,-15.00,-15.00,+11.00,-6.00,-35.00,-8.00,-20.00,-26.00,-1.00,+1.00,+10.00,-23.00,+7.00,-12.00
-3.00,+24.00,+4.00,+5.00,-11.00,+6.00,+47.00,+1.00,-7.00,+9.00,+2.00,+0.00,-4.00,-13.00,-5.00,-8.00
-11.00,-30.00,+5.00,+1.00,+4.00,-6.00,-11.00,-11.00,+16.00,-11.00,-1.00,-17.00,-41.00,+22.00,+3.00,+8.00
+11.00,-8.00,-5.00,-2.00,-11.00,-3.00,+1.00,+0.00,-24.00,-17.00,-1.00,+3.00,+19.00,-3.00,-9.00,-13.00
-18.00,-48.00,-2.00,-1.00,+2.00,+2.00,+4.00,+3.00,+10.00,+8.00,+1.00,-4.00,-16.00,-73.00,-17.00,-4.00
+26.00,-14.00,-1.00,-2.00,-11.00,-19.00,-36.00,+6.00,+9.00,-7.00,-3.00,+8.00,+17.00,+74.00,+25.00,+17.00
-10.00,+76.00,+0.00,-1.00,+1.00,+15.00,+10.00,-16.00,-1.00,+8.00,+0.00,-7.00,-11.00,+6.00,-6.00,+0.00
-6.00,-18.00,-1.00,+0.00,+5.00,-10.00,-7.00,-5.00,+0.00,+10.00,-1.00,-1.00,-13.00,-7.00,-4.00,+4.00
-17.00,-12.00,-3.00,+2.00,-5.00,+25.00,+11.00,-6.00,-27.00,+5.00,+3.00,+7.00,+6.00,-2.00,+3.00,-11.00
-24.00,-43.00,-11.00,-6.00,+0.00,+5.00,+4.00,-5.00,-6.00,-4.00,+2.00,-10.00,+3.00,-4.00,+0.00,+1.00
+13.00,-43.00,-6.00,-3.00,+2.00,-19.00,-60.00,-11.00,+21.00,-4.00,+5.00,+15.00,+13.00,-11.00,+5.00,+5.00
+5.00,+80.00,+12.00,+2.00,+5.00,-2.00,+25.00,+26.00,+20.00,+46.00,+13.00,+1.00,-7.00,+0.00,+5.00,+11.00
-5.00,+2.00,+12.00,-1.00,-25.00,-10.00,+8.00,-2.00,-32.00,-21.00,-5.00,+1.00,+9.00,-1.00,-6.00,+0.00
-1.00,-11.00,-7.00,-3.00,-8.00,-1.00,+8.00,+1.00,+52.00,+21.00,+1.00,-5.00,-5.00,+6.00,+13.00,+19.00
+26.00,-21.00,-4.00,-1.00,-5.00,+0.00,-18.00,+7.00,-38.00,-15.00,+0.00,-3.00,+10.00,+26.00,-20.00,-19.00
-6.00,-8.00,-2.00,-1.00,+11.00,+13.00,+20.00,-2.00,+2.00,+16.00,+6.00,+1.00,+11.00,+3.00,-9.00,-9.00
-1.00,-34.00,-3.00,+1.00,+3.00,-11.00,-3.00,-6.00,+13.00,-15.00,-4.00,-6.00,-11.00,-7.00,+1.00,+12.00
-4.00,+53.00,+13.00,+5.00,+3.00,+12.00,+7.00,+1.00,-9.00,+3.00,+1.00,+2.00,+13.00,-9.00,-1.00,+6.00
-17.00,-13.00,-1.00,-2.00,+13.00,-7.00,-5.00,-9.00,+5.00,-2.00,-11.00,-5.00,-11.00,-8.00,+2.00,-10.00
+19.00,-1.00,-6.00,-2.00,-5.00,+9.00,-3.00,+6.00,-9.00,-8.00,-3.00,+3.00,+11.00,-13.00,-5.00,-5.00
-3.00,+1.00,+4.00,+2.00,+6.00,+6.00,+22.00,+7.00,+2.00,-4.00,-4.00,-2.00,-2.00,+18.00,+2.00,+1.00
-7.00,-23.00,-3.00,+0.00,-3.00,-5.00,-14.00,-12.00,-18.00,-27.00,-11.00,+4.00,+11.00,+6.00,-4.00,-16.00
-5.00,+4.00,-1.00,+0.00,-3.00,-5.00,-17.00,+0.00,+11.00,+9.00,+11.00,+6.00,+16.00,-58.00,+8.00,+12.00
-9.00,+7.00,-6.00,-3.00,-5.00,+1.00,+21.00,-6.00,-38.00,-8.00,-7.00,+1.00,+7.00,+51.00,-16.00,-26.00
+8.00,+8.00,-4.00,+2.00,+8.00,+3.00,+1.00,+2.00,+42.00,+7.00,+8.00,-9.00,-41.00,+6.00,+8.00,+17.00
-18.00,-7.00,-2.00,-3.00,-1.00,-5.00,+1.00,-16.00,-18.00,-31.00,-14.00,-4.00,+0.00,-8.00,-8.00,-5.00
+4.00,-1.00,-7.00,-2.00,-8.00,-13.00,-18.00,+6.00,+2.00,+18.00,-13.00,-6.00,-14.00,-6.00,+5.00,-6.00
-24.00,-96.00,-8.00,-3.00,+3.00,+22.00,+11.00,-2.00,-7.00,+8.00,+3.00,-6.00,+0.00,-15.00,+2.00,+2.00
+22.00,+64.00,+10.00,+2.00,-9.00,-10.00,-3.00,+2.00,+10.00,-11.00,-2.00,+10.00,+36.00,+12.00,-8.00,-19.00
+30.00,+83.00,+18.00,+5.00,+27.00,-18.00,+5.00,+14.00,-14.00,-9.00,+0.00,+2.00,-2.00,-13.00,-9.00,+2.00
+4.00,+0.00,+1.00,-2.00,-12.00,+16.00,+23.00,+12.00,+0.00,+11.00,-3.00,+0.00,-20.00,+13.00,+8.00,-12.00
-13.00,-25.00,-4.00,-3.00,+6.00,+1.00,-35.00,-17.00,+6.00,-37.00,-7.00,-9.00,-10.00,-42.00,-12.00,+8.00
-7.00,-13.00,-9.00,-3.00,-1.00,-6.00,+22.00,-1.00,-49.00,-27.00,-8.00,+8.00,+18.00,+50.00,+2.00,-18.00
-16.00,-40.00,-10.00,-1.00,+6.00,+3.00,-4.00,-1.00,-9.00,+18.00,+10.00,+1.00,+7.00,-17.00,-11.00,+7.00
+6.00,-3.00,+1.00,-3.00,+3.00,-2.00,+27.00,+4.00,+51.00,+36.00,+3.00,-4.00,+7.00,+11.00,+0.00,+2.00
+14.00,-4.00,-1.00,-2.00,-11.00,-4.00,-3.00,+2.00,+12.00,+3.00,+1.00,-5.00,-31.00,+18.00,+18.00,+14.00
-22.00,-43.00,-5.00,-2.00,+0.00,-2.00,-24.00,-1.00,+19.00,-1.00,+3.00,+0.00,-8.00,-14.00,-7.00,+13.00
+14.00,+80.00,+5.00,-2.00,-4.00,-1.00,+22.00,+8.00,-24.00,-14.00,-11.00,-1.00,-1.00,-56.00,-24.00,-20.00
+6.00,-12.00,-6.00,+0.00,+26.00,+18.00,+9.00,+1.00,-6.00,+10.00,+11.00,+2.00,-7.00,+17.00,+1.00,+7.00
+3.00,+32.00,+18.00,+7.00,-26.00,-21.00,-35.00,-6.00,+7.00,+8.00,-1.00,-5.00,-5.00,-33.00,-7.00,-4.00
-22.00,+1.00,-2.00,-1.00,+6.00,-22.00,-21.00,-20.00,+34.00,+13.00,-4.00,-5.00,+29.00,+15.00,+13.00,+11.00
-16.00,-52.00,-6.00,-4.00,-2.00,-28.00,-62.00,-1.00,-26.00,-24.00,-8.00,-14.00,-65.00,+37.00,+13.00,-14.00
+4.00,+9.00,-2.00,-3.00,-17.00,+16.00,+28.00,+0.00,+2.00,+26.00,+7.00,+2.00,+3.00,+1.00,-19.00,-3.00
+22.00,+6.00,-4.00,-1.00,+1.00,-5.00,+10.00,+8.00,+24.00,-21.00,-1.00,+11.00,+20.00,+10.00,+10.00,+10.00
+0.00,-2.00,-3.00,-4.00,-4.00,+24.00,-14.00,-2.00,-44.00,-1.00,-12.00,-12.00,-18.00,-28.00,-11.00,-11.00
-7.00,-21.00,-5.00,-2.00,-21.00,+14.00,-4.00,-7.00,+28.00,+12.00,+4.00,+7.00,+15.00,-5.00,+12.00,+18.00
-5.00,+1.00,+3.00,+1.00,+23.00,+6.00,+24.00,+0.00,-12.00,-11.00,-7.00,-5.00,+3.00,+2.00,+7.00,-27.00
-2.00,-11.00,-8.00,-3.00,-2.00,+0.00,+48.00,+4.00,+13.00,-14.00,+13.00,+7.00,+11.00,+7.00,+2.00,+44.00
+22.00,+21.00,+13.00,+6.00,+13.00,-5.00,-53.00,+9.00,+9.00,+16.00,+5.00,-5.00,-18.00,-8.00,-2.00,+5.00
+2.00,+42.00,+3.00,-3.00,-10.00,+0.00,+0.00,-4.00,-6.00,+0.00,-5.00,-4.00,+7.00,-7.00,-5.00,-5.00
+8.00,+8.00,+0.00,+2.00,-9.00,-4.00,-9.00,+6.00,-20.00,-20.00,+6.00,+11.00,+7.00,+19.00,+5.00,-5.00
-7.00,-44.00,+1.00,+1.00,+1.00,-7.00,-14.00,-8.00,+4.00,+6.00,-10.00,-10.00,-18.00,-61.00,-11.00,-5.00
+10.00,+34.00,+3.00,+2.00,+2.00,+6.00,+58.00,+8.00,+11.00,-9.00,-9.00,+2.00,+6.00,+55.00,+5.00,+8.00
-2.00,-14.00,+0.00,-1.00,+4.00,+9.00,+3.00,-3.00,+9.00,+17.00,+1.00,-2.00,+10.00,+3.00,-8.00,-10.00
-8.00,+5.00,+8.00,+0.00,-10.00,-15.00,-12.00,-5.00,-2.00,+3.00,+2.00,+2.00,-15.00,-4.00,+4.00,+8.00
+6.00,+36.00,-6.00,-4.00,+4.00,-2.00,+1.00,+2.00,-4.00,+13.00,+12.00,+2.00,-8.00,+7.00,+1.00,-18.00
-2.00,-23.00,-2.00,-6.00,-18.00,-8.00,-1.00,-1.00,+20.00,+15.00,+5.00,-4.00,-10.00,-27.00,-2.00,+11.00
+10.00,-34.00,-1.00,+3.00,+9.00,+9.00,+11.00,+3.00,+0.00,-2.00,+0.00,-3.00,-5.00,-11.00,+5.00,-11.00
-14.00,+8.00,+0.00,+0.00,-4.00,-11.00,-18.00,-12.00,-21.00,-24.00,-6.00,+3.00,+12.00,+30.00,-10.00,-7.00
-7.00,-19.00,-7.00,-2.00,-2.00,+3.00,+2.00,-1.00,+3.00,-7.00,-6.00,-6.00,+1.00,-5.00,-10.00,+5.00
+0.00,-10.00,-8.00,-2.00,+8.00,+1.00,-1.00,+4.00,-22.00,-11.00,-6.00,+3.00,+1.00,-9.00,-6.00,-28.00
-2.00,-4.00,-3.00,-3.00,-1.00,+2.00,+15.00,+0.00,+12.00,-15.00,-13.00,-7.00,-4.00,+5.00,-2.00,+3.00
+0.00,-33.00,-5.00,-3.00,-12.00,-7.00,-24.00,+3.00,-3.00,+19.00,+0.00,-8.00,-7.00,-20.00,+3.00,+2.00
+6.00,+47.00,+8.00,+3.00,+8.00,-3.00,+7.00,+10.00,+13.00,+15.00,+2.00,+0.00,+5.00,+14.00,+15.00,-14.00
-19.00,+12.00,+1.00,+0.00,-5.00,-5.00,-3.00,-18.00,-4.00,-15.00,-8.00,+0.00,+6.00,+5.00,-10.00,+4.00
+30.00,+17.00,+1.00,+2.00,-1.00,+5.00,+5.00,+15.00,-14.00,+4.00,+4.00,-4.00,-10.00,+4.00,-7.00,-17.00
-5.00,-1.00,-4.00,-5.00,-4.00,-5.00,-1.00,-6.00,-13.00,-26.00,-5.00,-10.00,-6.00,-13.00,+3.00,+13.00
+4.00,-14.00,+8.00,+2.00,+12.00,+1.00,-24.00,-6.00,+15.00,+16.00,-1.00,-1.00,+7.00,+16.00,-3.00,-8.00
-9.00,-21.00,-9.00,-3.00,-6.00,-7.00,-13.00,+6.00,-7.00,+15.00,+4.00,+1.00,+0.00,-20.00,+3.00,-1.00
-8.00,-35.00,-11.00,-2.00,+3.00,+24.00,+18.00,-2.00,+8.00,-14.00,+0.00,+7.00,+5.00,-5.00,+0.00,+5.00
+14.00,+42.00,+8.00,+1.00,+6.00,-14.00,-28.00,-1.00,-1.00,+10.00,-5.00,-5.00,-2.00,+9.00,-7.00,-1.00
-2.00,+25.00,-3.00,-4.00,-19.00,-2.00,-5.00,-9.00,+5.00,+6.00,+4.00,+5.00,+8.00,+1.00,+8.00,+11.00
-5.00,-46.00,-11.00,-6.00,-2.00,-3.00,+13.00,+1.00,-14.00,-25.00,-2.00,+3.00,+2.00,-5.00,-2.00,-4.00
-4.00,+10.00,+3.00,-2.00,+5.00,+1.00,-26.00,-7.00,+1.00,+28.00,+7.00,+0.00,+0.00,-1.00,-2.00,-4.00
+2.00,+9.00,+1.00,+4.00,-3.00,+2.00,+48.00,+8.00,+30.00,+20.00,+9.00,+0.00,-17.00,-81.00,-9.00,+1.00
+3.00,-22.00,-5.00,-3.00,+2.00,-2.00,+1.00,+4.00,-5.00,+7.00,-6.00,-2.00,+18.00,+94.00,+14.00,+6.00
-2.00,+13.00,+3.00,+2.00,+2.00,+4.00,+2.00,-6.00,+11.00,-16.00,-2.00,-11.00,-24.00,+9.00,+2.00,-1.00
-23.00,-23.00,-5.00,-2.00,-6.00,-10.00,+3.00,+1.00,-16.00,+4.00,-2.00,-1.00,-2.00,-12.00,-10.00,-13.00
+23.00,+28.00,+1.00,-1.00,+3.00,+2.00,+9.00,+10.00,-33.00,-42.00,-7.00,+5.00,+18.00,-6.00,-5.00,-33.00
+5.00,-10.00,-2.00,+0.00,+2.00,-4.00,-22.00,+3.00,+45.00,-8.00,-22.00,-20.00,-20.00,-42.00,-3.00,+17.00
+0.00,+3.00,+6.00,+3.00,+4.00,+8.00,+20.00,-2.00,-36.00,+1.00,+0.00,+0.00,+10.00,-3.00,-19.00,-14.00
-12.00,-20.00,-4.00,-2.00,-1.00,-5.00,-8.00,-5.00,+14.00,+3.00,+5.00,+2.00,+0.00,+13.00,+5.00,+1.00
-19.00,-44.00,-7.00,-2.00,-6.00,+8.00,+17.00,+3.00,+5.00,-9.00,-3.00,+1.00,+4.00,+6.00,+1.00,+6.00
-7.00,-50.00,-14.00,-5.00,+11.00,+44.00,+51.00,+10.00,-11.00,+0.00,+3.00,+6.00,-2.00,-9.00,-12.00,-13.00
+52.00,+86.00,+22.00,+1.00,-9.00,-30.00,-32.00,-7.00,-3.00,-10.00,-1.00,+0.00,+3.00,-13.00,+6.00,+1.00
+7.00,+2.00,+9.00,+2.00,-1.00,-10.00,+3.00,+4.00,-33.00,-16.00,-11.00,-9.00,-2.00,+20.00,-5.00,-23.00
+7.00,+13.00,-1.00,+1.00,-9.00,-3.00,+1.00,+1.00,+33.00,+6.00,-2.00,+0.00,-1.00,+40.00,+13.00,+30.00
-21.00,-22.00,-8.00,-4.00,+6.00,-6.00,-14.00,-6.00,-38.00,-14.00,-8.00,+3.00,+4.00,-17.00,+2.00,-10.00
-33.00,-28.00,-12.00,-2.00,-6.00,-16.00,-13.00,-11.00,+8.00,+34.00,+10.00,+2.00,-1.00,-35.00,-9.00,+12.00
+9.00,+1.00,-3.00,-3.00,+1.00,+13.00,+14.00,+0.00,+24.00,-5.00,+7.00,+7.00,+16.00,+5.00,+1.00,+32.00
+3.00,-25.00,-3.00,-2.00,+7.00,-5.00,-19.00,+2.00,+6.00,+4.00,+2.00,+8.00,-13.00,+62.00,+13.00,+14.00
-19.00,+19.00,+5.00,+3.00,-3.00,-7.00,-26.00,-17.00,+2.00,-4.00,-13.00,-18.00,-23.00,-72.00,-29.00,-15.00
-5.00,-36.00,-11.00,-1.00,+4.00,+15.00,+20.00,+6.00,+10.00,-6.00,+6.00,+16.00,+16.00,+33.00,+12.00,+19.00
+28.00,+83.00,+10.00,+3.00,-4.00,-13.00,+7.00,-2.00,-4.00,+8.00,+0.00,+1.00,+11.00,+4.00,+13.00,+13.00
-30.00,-36.00,+1.00,+2.00,+5.00,+27.00,+74.00,-5.00,-19.00,+5.00,-2.00,+0.00,+6.00,-4.00,-25.00,-21.00
+22.00,+27.00,+0.00,+0.00,+5.00,-30.00,-80.00,+21.00,-21.00,-26.00,+2.00,-10.00,-41.00,-18.00,-2.00,+3.00
-2.00,+4.00,+4.00,+0.00,+2.00,+22.00,+72.00,-1.00,-6.00,-11.00,-4.00,+1.00,+3.00,-10.00,-1.00,-14.00
-34.00,-53.00,-8.00,+1.00,+28.00,+4.00,+1.00,-7.00,-5.00,-5.00,+4.00,+1.00,-12.00,+10.00,+1.00,-5.00
+20.00,+9.00,+3.00,-1.00,-32.00,-19.00,-28.00,-3.00,+9.00,-2.00,-2.00,-3.00,+13.00,-8.00,-1.00,+1.00
+0.00,-18.00,+1.00,+0.00,-16.00,+14.00,+56.00,+0.00,-64.00,-14.00,-2.00,+3.00,+19.00,+13.00,-11.00,-67.00
+15.00,+64.00,+9.00,+1.00,+10.00,-9.00,-25.00,+6.00,+18.00,-16.00,-14.00,+1.00,+3.00,-86.00,-1.00,+46.00
-9.00,-37.00,-11.00,-2.00,+3.00,+7.00,-11.00,+2.00,+42.00,+51.00,+6.00,-12.00,-32.00,+94.00,+6.00,-3.00
-14.00,+24.00,+2.00,-1.00,+3.00,-6.00,-6.00,-9.00,-7.00,-34.00,-17.00,+2.00,+11.00,-16.00,+3.00,+2.00
-12.00,-12.00,-5.00,-3.00,-10.00,-12.00,-18.00,-7.00,+32.00,+49.00,+21.00,-20.00,-45.00,+11.00,+9.00,+10.00
+8.00,-68.00,-21.00,-9.00,-9.00,-15.00,-47.00,+6.00,+4.00,-4.00,-11.00,-14.00,+5.00,+35.00,+3.00,-15.00
-21.00,+14.00,+20.00,+1.00,-4.00,+0.00,+24.00,-20.00,-8.00,-29.00,-5.00,+8.00,-2.00,-56.00,+10.00,+14.00
-10.00,-10.00,-13.00,-4.00,-11.00,-11.00,-25.00,-11.00,-4.00,+0.00,+1.00,-12.00,-26.00,-55.00,-38.00,-19.00
-1.00,-24.00,+3.00,+1.00,+6.00,-5.00,+3.00,-17.00,-11.00,+18.00,+14.00,+20.00,+31.00,+33.00,+18.00,-5.00
+36.00,+83.00,+9.00,+7.00,+7.00,+14.00,-6.00,+14.00,+11.00,-12.00,-8.00,-5.00,-18.00,-60.00,-46.00,-34.00
+13.00,+5.00,-7.00,-10.00,-22.00,+1.00,+44.00,+10.00,+2.00,-2.00,+5.00,+10.00,+32.00,+68.00,+17.00,+7.00
+7.00,+14.00,+12.00,+6.00,+14.00,-9.00,-76.00,+1.00,-45.00,-36.00,-20.00,-12.00,-27.00,+4.00,-13.00,-28.00
-22.00,-19.00,-13.00,-8.00,-14.00,+5.00,+38.00,-8.00,+28.00,+2.00,+4.00,+10.00,+29.00,+21.00,+11.00,+33.00
-12.00,-56.00,-13.00,-3.00,+11.00,-11.00,+19.00,-1.00,-25.00,+17.00,+6.00,+3.00,+21.00,+28.00,-1.00,-10.00
+2.00,+12.00,-2.00,+1.00,-6.00,+19.00,-57.00,+7.00,-8.00,-20.00,-6.00,-14.00,-27.00,-56.00,-12.00,-1.00
-18.00,-1.00,+0.00,+1.00,+12.00,-1.00,+57.00,+8.00,+6.00,+23.00,+17.00,+6.00,+12.00,+11.00,+12.00,+10.00
+23.00,-7.00,-7.00,-6.00,-2.00,-6.00,-28.00,+6.00,-6.00,-31.00,-17.00,+2.00,-7.00,-68.00,-8.00,+6.00
-8.00,+16.00,+6.00,+3.00,+3.00,+16.00,+58.00,-2.00,-7.00,+5.00,+3.00,-5.00,-10.00,+95.00,+6.00,+4.00
+13.00,-11.00,-4.00,-2.00,-9.00,-18.00,+5.00,+4.00,+8.00,+13.00,+4.00,+0.00,+1.00,-73.00,-11.00,-6.00
-5.00,+18.00,+7.00,+3.00,+20.00,+12.00,-17.00,-11.00,+0.00,-27.00,-19.00,-10.00,+15.00,+10.00,+10.00,+6.00
-37.00,-26.00,-14.00,-3.00,+5.00,-5.00,+41.00,-3.00,+11.00,+24.00,+5.00,+1.00,-4.00,-14.00,+4.00,+8.00
+38.00,+16.00,+7.00,-3.00,+0.00,+24.00,-48.00,-8.00,+33.00,+16.00,+11.00,+7.00,+3.00,+19.00,+12.00,+10.00
-6.00,-11.00,-2.00,+2.00,+6.00,-40.00,-48.00,+7.00,-29.00,-9.00,-2.00,+8.00,+15.00,-10.00,-7.00,-5.00
+1.00,-37.00,-9.00,-6.00,-9.00,-9.00,+43.00,-7.00,+20.00,+21.00,+9.00,+4.00,+6.00,-22.00,+23.00,+3.00
+12.00,+68.00,+13.00,+4.00,-10.00,+3.00,-13.00,+4.00,+3.00,+7.00,-3.00,-7.00,-10.00,+16.00,-29.00,+12.00
-29.00,-3.00,-7.00,-5.00,+9.00,-4.00,+0.00,-9.00,-26.00,-22.00,-15.00,-18.00,-34.00,+31.00,+19.00,-16.00
-6.00,-44.00,-11.00,+2.00,+4.00,+10.00,+1.00,-2.00,+0.00,-14.00,-2.00,+10.00,-6.00,+2.00,-2.00,+11.00
-8.00,-38.00,-8.00,-2.00,-11.00,-12.00,-25.00,+2.00,+9.00,+19.00,-7.00,-9.00,-3.00,-2.00,-10.00,-5.00
+0.00,+53.00,+5.00,-2.00,-1.00,-27.00,-50.00,-9.00,+6.00,-8.00,+1.00,+7.00,+20.00,+5.00,+3.00,-3.00
-25.00,+27.00,-14.00,-7.00,-2.00,+29.00,+53.00,-6.00,-50.00,-15.00,-15.00,+1.00,+3.00,-25.00,-9.00,-23.00
+60.00,+45.00,+32.00,+11.00,+5.00,-3.00,-6.00,+19.00,+20.00,+4.00,-2.00,-4.00,+1.00,-10.00,+2.00,+8.00
-21.00,-25.00,-3.00,+0.00,-9.00,+17.00,+17.00,-7.00,-11.00,-36.00,-6.00,+3.00,-8.00,+4.00,-2.00,+3.00
+3.00,-27.00,+7.00,+0.00,+15.00,-11.00,-22.00,-8.00,+14.00,+13.00,+8.00,+8.00,+20.00,+7.00,-1.00,+9.00
-14.00,-42.00,-12.00,-5.00,-38.00,-3.00,+73.00,+12.00,+3.00,+8.00,+6.00,+3.00,+1.00,-4.00,-1.00,-8.00
-15.00,+9.00,-11.00,-11.00,-23.00,-5.00,-47.00,-18.00,+17.00,+7.00,-4.00,-11.00,-21.00,-7.00,+2.00,-4.00
+12.00,+28.00,+3.00,+2.00,+7.00,+2.00,-1.00,-3.00,-13.00,-7.00,-1.00,-1.00,+1.00,+23.00,-3.00,+2.00
+14.00,+49.00,+8.00,+2.00,+11.00,+10.00,+7.00,+2.00,-4.00,+4.00,+4.00,+5.00,+21.00,-26.00,-8.00,-3.00
-10.00,-21.00,+2.00,-1.00,+1.00,-9.00,-36.00,-1.00,+5.00,+19.00,+8.00,-14.00,-36.00,+20.00,+1.00,-11.00
-17.00,-21.00,-14.00,-7.00,+1.00,+19.00,+43.00,+4.00,+7.00,-17.00,-1.00,+9.00,+37.00,+14.00,+14.00,+30.00
-6.00,+0.00,+0.00,-6.00,-9.00,-12.00,-30.00,-17.00,+7.00,+54.00,+15.00,-10.00,-36.00,-1.00,+10.00,+5.00
+1.00,-23.00,+0.00,+1.00,+1.00,+0.00,+5.00,+6.00,-33.00,-45.00,-16.00,-4.00,-7.00,+12.00,-10.00,-16.00
-10.00,+4.00,+7.00,+5.00,-12.00,-13.00,+17.00,+0.00,+14.00,+19.00,+7.00,+0.00,+12.00,-27.00,+2.00,+13.00
+10.00,-5.00,-3.00,-3.00,-5.00,+3.00,-10.00,+2.00,+6.00,+25.00,+4.00,-5.00,-8.00,-25.00,-17.00,-9.00
-13.00,+20.00,+7.00,+5.00,+10.00,+2.00,-20.00,-9.00,-12.00,-28.00,-9.00,-7.00,-15.00,+24.00,+3.00,-10.00
+8.00,+6.00,+0.00,+2.00,+1.00,-8.00,-32.00,+3.00,+1.00,-10.00,-17.00,-2.00,+7.00,+2.00,+5.00,+6.00
-7.00,-43.00,-8.00,-4.00,+3.00,+13.00,+25.00,+3.00,-13.00,-11.00,-2.00,+2.00,-8.00,-20.00,-7.00,-32.00
+10.00,+61.00,+13.00,+3.00,+4.00,-2.00,-9.00,-10.00,-18.00,-20.00,-10.00,-5.00,-4.00,+23.00,+3.00,+9.00
-14.00,+22.00,-5.00,-1.00,+25.00,-8.00,+40.00,+20.00,+22.00,+21.00,+8.00,+11.00,+22.00,-36.00,-14.00,+7.00
+7.00,-39.00,-1.00,+3.00,-31.00,+18.00,+7.00,+0.00,+3.00,+3.00,+3.00,-10.00,-25.00,+30.00,+12.00,+11.00
-13.00,-38.00,-6.00,-6.00,-2.00,-27.00,-34.00,-15.00,+31.00,-10.00,-4.00,+3.00,+16.00,+11.00,-2.00,+14.00
-8.00,+24.00,-9.00,-4.00,-9.00,-6.00,-12.00,-2.00,-36.00,-7.00,-4.00,-2.00,+3.00,+3.00,-7.00,-37.00
+36.00,-40.00,+0.00,-1.00,+6.00,-6.00,-5.00,+0.00,+17.00,+7.00,-1.00,+5.00,+6.00,+8.00,+11.00,+26.00
+0.00,+38.00,-1.00,+0.00,+14.00,+16.00,+29.00,+6.00,-2.00,+9.00,+2.00,-2.00,+9.00,-21.00,-6.00,-14.00
+15.00,-8.00,+4.00,+3.00,+0.00,-1.00,-25.00,+0.00,+12.00,+16.00,+4.00,-4.00,-24.00,+4.00,+4.00,+14.00
-20.00,-27.00,-4.00,+1.00,+0.00,+1.00,+27.00,+2.00,-4.00,-5.00,-8.00,-8.00,-4.00,-8.00,-14.00,-24.00
+14.00,+50.00,-3.00,-4.00,-15.00,-7.00,-16.00,+10.00,+1.00,+7.00,+2.00,+0.00,-1.00,-18.00,+3.00,-9.00
+10.00,+25.00,+12.00,+6.00,+2.00,+18.00,+14.00,-7.00,+8.00,+5.00,+7.00,+2.00,-7.00,+24.00,-2.00,+8.00
+1.00,+23.00,+2.00,+0.00,+2.00,-16.00,-18.00,-2.00,-3.00,-15.00,-10.00,-1.00,+16.00,+2.00,+16.00,+15.00
-19.00,-54.00,-11.00,-4.00,-4.00,-7.00,+1.00,-8.00,+14.00,+19.00,+9.00,-2.00,-27.00,-79.00,-17.00,-2.00
+5.00,+0.00,-2.00,-2.00,-9.00,+7.00,+3.00,+3.00,-30.00,-18.00,+1.00,+6.00,+17.00,+71.00,+4.00,-3.00
-3.00,-20.00,-11.00,-6.00,+3.00,+3.00,+25.00,+1.00,-33.00,-57.00,-30.00,-1.00,+15.00,+4.00,+0.00,-4.00
-22.00,-34.00,+2.00,+2.00,+9.00,-3.00,-14.00,-7.00,+1.00,+14.00,-4.00,-10.00,-32.00,-18.00,-3.00,-7.00
-1.00,+8.00,+6.00,+2.00,-5.00,-1.00,-20.00,-22.00,+15.00,+4.00,-5.00,-2.00,-1.00,+6.00,+4.00,+14.00
-3.00,+1.00,-12.00,-5.00,+1.00,-13.00,+9.00,+8.00,+8.00,-3.00,+0.00,+0.00,+5.00,-20.00,+4.00,+22.00
-20.00,-53.00,-14.00,-8.00,+12.00,+6.00,+14.00,-7.00,-9.00,-3.00,+0.00,-10.00,-28.00,-3.00,-7.00,-13.00
+1.00,+60.00,+12.00,+3.00,-24.00,-21.00,-35.00,-1.00,-18.00,-10.00,-1.00,+11.00,+19.00,+3.00,+3.00,-5.00
+7.00,-10.00,+8.00,+3.00,+28.00,+20.00,+48.00,+10.00,-7.00,-17.00,-5.00,+9.00,+33.00,+23.00,+5.00,+5.00
+6.00,+16.00,+4.00,-1.00,-25.00,-1.00,-51.00,-2.00,+13.00,+17.00,+11.00,+0.00,-40.00,-19.00,-2.00,+3.00
-16.00,-37.00,-10.00,-2.00,+10.00,-17.00,-13.00,-22.00,-2.00,-3.00,-6.00,-6.00,-6.00,-16.00,-12.00,-7.00
+6.00,+4.00,-3.00,-3.00,+1.00,+16.00,-22.00,-11.00,+15.00,-2.00,-1.00,-1.00,+12.00,+10.00,+9.00,+10.00
+8.00,+55.00,+4.00,+2.00,-1.00,-12.00,+55.00,+15.00,+3.00,-2.00,+12.00,+6.00,+7.00,+45.00,+8.00,-1.00
+3.00,+43.00,-1.00,+1.00,+1.00,-10.00,-2.00,-3.00,+10.00,-16.00,+0.00,+7.00,+17.00,+37.00,-11.00,-10.00
+15.00,+24.00,+5.00,+2.00,+1.00,+8.00,+4.00,+14.00,-24.00,+13.00,-1.00,-3.00,-16.00,-40.00,-5.00,-4.00
-2.00,-17.00,-6.00,-3.00,-9.00,+8.00,-1.00,-4.00,+10.00,+8.00,+5.00,+3.00,-2.00,-26.00,-5.00,-12.00
-10.00,-19.00,-8.00,-3.00,-8.00,-19.00,-14.00,-6.00,-17.00,-12.00,-5.00,-8.00,-13.00,-16.00,-4.00,-7.00
-13.00,-61.00,-9.00,-3.00,-1.00,+20.00,+44.00,+3.00,+16.00,+28.00,+12.00,+3.00,+9.00,+10.00,+5.00,+6.00
-2.00,-6.00,+2.00,+0.00,-14.00,-34.00,-49.00,+11.00,+18.00,+19.00,+11.00,+4.00,+1.00,+6.00,+0.00,-12.00
+20.00,+20.00,+9.00,+4.00,+9.00,+18.00,+25.00,+6.00,-11.00,-9.00,+3.00,-1.00,+7.00,-6.00,-1.00,+17.00
+3.00,+5.00,-8.00,+1.00,+7.00,-1.00,-6.00,-3.00,-9.00,-11.00,-2.00,+2.00,-6.00,+9.00,-6.00,-11.00
-14.00,-32.00,+2.00,-3.00,-5.00,+8.00,+0.00,-4.00,-17.00,-22.00,-15.00,-4.00,+9.00,-25.00,-1.00,-23.00
+10.00,+53.00,+7.00,+2.00,+16.00,-6.00,-36.00,-7.00,-6.00,+17.00,+4.00,-2.00,-17.00,+28.00,+2.00,-7.00
-9.00,-49.00,-17.00,-6.00,-16.00,-13.00,-5.00,+9.00,+19.00,+0.00,+1.00,+14.00,+32.00,+9.00,-5.00,+25.00
+1.00,+0.00,+9.00,+0.00,+3.00,-2.00,-13.00,-6.00,+10.00,+12.00,+1.00,-11.00,-26.00,-7.00,-3.00,+2.00
-2.00,+38.00,+3.00,+1.00,+0.00,+9.00,+3.00,-3.00,-16.00,+7.00,+1.00,-6.00,-8.00,-11.00,-9.00,-13.00
-20.00,-20.00,-4.00,-3.00,-7.00,-2.00,+14.00,-8.00,+39.00,+5.00,+5.00,+8.00,+13.00,-28.00,+17.00,+24.00
+16.00,+10.00,+12.00,+4.00,+23.00,+9.00,-14.00,+0.00,-32.00,-26.00,-4.00,+1.00,+10.00,+35.00,+2.00,-7.00
-11.00,-38.00,-10.00,-3.00,-8.00,+1.00,+0.00,-4.00,-8.00,+2.00,-7.00,-5.00,-8.00,+4.00,-2.00,+5.00
+1.00,+1.00,+3.00,-1.00,+2.00,-3.00,-9.00,-2.00,-11.00,-9.00,-10.00,-7.00,-6.00,-18.00,-5.00,-13.00
+7.00,-5.00,-4.00,-3.00,-3.00,+21.00,+16.00,+8.00,-12.00,+7.00,+13.00,+4.00,+2.00,+24.00,+12.00,-10.00
-18.00,+9.00,-6.00,-3.00,-5.00,-7.00,-17.00,-5.00,+7.00,+18.00,+4.00,-5.00,-8.00,-35.00,-18.00,-9.00
+3.00,-8.00,-7.00,-6.00,+0.00,-4.00,-14.00,-6.00,+12.00,-2.00,-2.00,+2.00,+6.00,-67.00,+1.00,+11.00
+17.00,+4.00,+17.00,+9.00,+0.00,+9.00,+9.00,+9.00,-4.00,+5.00,-1.00,-2.00,-4.00,+63.00,+4.00,-9.00
-7.00,-34.00,-6.00,-2.00,-9.00,-4.00,-7.00,-8.00,+7.00,+7.00,-4.00,+1.00,+13.00,+9.00,+8.00,+10.00
+11.00,+6.00,+4.00,+3.00,+0.00,-12.00,-31.00,+6.00,+21.00,-9.00,-3.00,-5.00,-16.00,+4.00,+6.00,+14.00
-24.00,-22.00,-6.00,-1.00,+5.00,+26.00,+51.00,+1.00,-15.00,+4.00,+5.00,-1.00,+5.00,+0.00,-1.00,-16.00
+18.00,-16.00,-6.00,-4.00,-9.00,-8.00,+11.00,-1.00,+17.00,+8.00,-6.00,+1.00,+3.00,-22.00,-6.00,+12.00
+5.00,+1.00,+1.00,-2.00,+1.00,+6.00,-4.00,+4.00,+12.00,+7.00,+3.00,-3.00,-5.00,+10.00,+1.00,+9.00
+0.00,+0.00,-3.00,-2.00,+2.00,-8.00,+14.00,-15.00,-19.00,-22.00,-8.00,-1.00,-1.00,-1.00,+0.00,-19.00
+11.00,+42.00,+8.00,+1.00,-7.00,-9.00,-26.00,+11.00,-6.00,-1.00,-1.00,+3.00,+5.00,+10.00,-1.00,-5.00
-10.00,-16.00,-2.00,-1.00,+9.00,+2.00,-1.00,+0.00,-13.00,-26.00,-5.00,-4.00,-3.00,-19.00,-1.00,+14.00
-9.00,+21.00,+5.00,+1.00,-11.00,-19.00,+20.00,-6.00,-7.00,-5.00,-9.00,-8.00,-6.00,+5.00,-12.00,-18.00
-11.00,-8.00,-7.00,-2.00,+5.00,+23.00,-3.00,-7.00,-12.00,-6.00,-9.00,-9.00,-16.00,-26.00,+1.00,-9.00
+14.00,+4.00,+2.00,-3.00,+2.00,-2.00,-7.00,+7.00,+16.00,+29.00,+6.00,+1.00,+2.00,-7.00,-2.00,+12.00
-6.00,-14.00,+1.00,+2.00,-2.00,+3.00,+5.00,-6.00,-14.00,-13.00,-2.00,-3.00,+1.00,+53.00,+15.00,-6.00
+6.00,+31.00,+3.00,+0.00,-6.00,+3.00,+13.00,-2.00,+17.00,+21.00,+7.00,+6.00,+23.00,+3.00,-6.00,-2.00
-11.00,-11.00,-4.00,-2.00,-1.00,-15.00,+0.00,+4.00,-17.00,-35.00,-9.00,-3.00,-22.00,-13.00,-9.00,-15.00
+16.00,+36.00,+9.00,+0.00,-2.00,-12.00,-38.00,+0.00,-17.00,-9.00,-7.00,-4.00,-4.00,+12.00,-2.00,-7.00
-6.00,-20.00,-7.00,+1.00,+5.00,+33.00,+36.00,+1.00,+14.00,+33.00,+9.00,-6.00,-14.00,-34.00,+1.00,+5.00
+0.00,-9.00,+1.00,-2.00,-1.00,-9.00,+10.00,+0.00,-1.00,-9.00,-6.00,-1.00,+3.00,-9.00,-16.00,-12.00
-6.00,+4.00,-3.00,-1.00,-5.00,-8.00,-18.00,+3.00,-2.00,+7.00,+9.00,+6.00,+16.00,+25.00,+8.00,+1.00
-11.00,-58.00,-15.00,-8.00,-11.00,-5.00,-11.00,-4.00,-3.00,-6.00,+3.00,+2.00,+1.00,+21.00,+7.00,+4.00
+16.00,+23.00,+8.00,+0.00,+2.00,-3.00,-24.00,+0.00,+0.00,-28.00,-9.00,-3.00,+7.00,-44.00,-15.00,-14.00
+1.00,+11.00,-2.00,+2.00,-3.00,-10.00,+17.00,+2.00,-44.00,+0.00,-3.00,-3.00,-18.00,-22.00,+9.00,-4.00
-11.00,-27.00,-2.00,-2.00,+3.00,+0.00,-10.00,-8.00,+7.00,+11.00,+0.00,-7.00,-8.00,+25.00,-10.00,-11.00
+17.00,-34.00,-1.00,+2.00,+5.00,+1.00,+3.00,+14.00,-18.00,+2.00,-3.00,-3.00,-6.00,+1.00,-5.00,-16.00
-7.00,+34.00,+4.00,-1.00,+0.00,-8.00,-49.00,-8.00,-12.00,-20.00,-9.00,-2.00,+13.00,+8.00,+5.00,-4.00
-15.00,-28.00,-17.00,-7.00,-7.00,+27.00,+70.00,+5.00,+9.00,-7.00,-1.00,-4.00,-22.00,-29.00,+6.00,+14.00
+21.00,-17.00,+13.00,+3.00,+4.00,+1.00,+2.00,+8.00,+7.00,+12.00,+3.00,+0.00,+10.00,+13.00,-1.00,+2.00
-4.00,+13.00,-4.00,+2.00,+0.00,+9.00,+1.00,+1.00,+6.00,-12.00,-7.00,-6.00,-8.00,-3.00,+3.00,+9.00
+8.00,-8.00,-3.00,-1.00,+0.00,-9.00,-3.00,+0.00,-6.00,+18.00,+6.00,+2.00,-3.00,+0.00,-7.00,+0.00
+8.00,+32.00,+0.00,-3.00,+2.00,-4.00,-22.00,+0.00,+2.00,-18.00,-4.00,+3.00,+14.00,+24.00,+13.00,+13.00
-7.00,+2.00,-4.00,-4.00,-2.00,-9.00,-17.00,-7.00,+32.00,+36.00,+5.00,-2.00,-5.00,-45.00,-3.00,+1.00
-13.00,-31.00,-6.00,-2.00,-3.00,+4.00,+23.00,-3.00,-52.00,-52.00,-4.00,+10.00,+14.00,+33.00,+2.00,-9.00
-15.00,-18.00,-1.00,-2.00,-2.00,-3.00,-5.00,-4.00,-18.00,+5.00,+0.00,+6.00,+27.00,+4.00,-5.00,-8.00
+11.00,-10.00,+0.00,+1.00,+1.00,-1.00,-14.00,-1.00,-10.00,-15.00,-13.00,-16.00,-60.00,-3.00,-7.00,-14.00
+8.00,+31.00,+4.00,+0.00,-1.00,-4.00,-21.00,+2.00,+8.00,+5.00,-1.00,-3.00,+7.00,+12.00,+3.00,-3.00
-23.00,-35.00,-15.00,-6.00,-4.00,-2.00,+55.00,-10.00,+10.00,+4.00,-4.00,-7.00,-15.00,-22.00,+6.00,+2.00
+15.00,+44.00,+11.00,+1.00,-6.00,+4.00,+9.00,+18.00,-8.00,-8.00,-3.00,-1.00,-11.00,-16.00,-6.00,-7.00
+20.00,+42.00,+15.00,+6.00,-10.00,-6.00,-16.00,+4.00,+11.00,+17.00,+8.00,+12.00,+32.00,+39.00,+0.00,-6.00
+6.00,+14.00,-7.00,-3.00,+11.00,+15.00,+9.00,+5.00,+12.00,+6.00,-4.00,-7.00,-13.00,-33.00,-2.00,+12.00
-3.00,+8.00,+2.00,+0.00,-1.00,+1.00,-24.00,-7.00,-14.00,-9.00,-7.00,-5.00,-8.00,-16.00,-6.00,-7.00
-14.00,-54.00,-21.00,-10.00,-2.00,-7.00,+11.00,-5.00,-2.00,-4.00,-5.00,-5.00,-8.00,+15.00,-7.00,+2.00
-4.00,-11.00,+6.00,+0.00,+0.00,+1.00,-4.00,+2.00,+6.00,-12.00,+1.00,+0.00,+12.00,+1.00,-1.00,+5.00
+10.00,-1.00,+0.00,+3.00,-1.00,-5.00,+17.00,+15.00,-17.00,-3.00,-2.00,+1.00,+1.00,+10.00,+4.00,-15.00
-19.00,-3.00,-3.00,-3.00,-9.00,-9.00,-24.00,-24.00,+22.00,+12.00,+3.00,+2.00,+6.00,-20.00,-14.00,+4.00
-3.00,-2.00,-2.00,-1.00,+8.00,-4.00,-10.00,-6.00,-14.00,-7.00,+0.00,+2.00,-3.00,-53.00,+2.00,-4.00
+13.00,-8.00,+3.00,+2.00,-6.00,-2.00,-14.00,-6.00,-9.00,-13.00,+0.00,+0.00,-11.00,+51.00,-6.00,-2.00
-21.00,+8.00,+1.00,-1.00,+6.00,-2.00,+4.00,+6.00,-5.00,-10.00,-3.00,-3.00,-4.00,-3.00,-4.00,+1.00
+30.00,+40.00,+2.00,-1.00,-3.00,-9.00,-2.00,+23.00,-12.00,-3.00,+0.00,-6.00,-3.00,+18.00,-1.00,-19.00
-8.00,-19.00,-2.00,-1.00,-13.00,-2.00,-4.00,-11.00,+23.00,+16.00,+1.00,+2.00,-2.00,-11.00,+4.00,+10.00
-9.00,-2.00,-3.00,-1.00,+9.00,+4.00,+3.00,-3.00,+0.00,+6.00,-1.00,+3.00,+12.00,-20.00,-9.00,-6.00
+2.00,-33.00,-4.00,-2.00,+15.00,+2.00,+9.00,+0.00,+5.00,-6.00,+4.00,-1.00,-7.00,+3.00,+11.00,+13.00
-9.00,-14.00,+6.00,+5.00,-26.00,-7.00,-28.00,-7.00,+25.00,+33.00,+8.00,+4.00,+10.00,+3.00,-3.00,+5.00
+18.00,+23.00,+4.00,-1.00,-11.00,+19.00,-2.00,+7.00,-23.00,-16.00,-3.00,-1.00,-1.00,+22.00,+4.00,+4.00
-25.00,-38.00,-13.00,-3.00,+6.00,-14.00,-5.00,-8.00,+14.00,+5.00,-4.00,-2.00,+2.00,-89.00,-5.00,+4.00
-9.00,+5.00,-6.00,-4.00,-11.00,-1.00,+14.00,-5.00,-25.00,-34.00,-15.00,-2.00,-4.00,+63.00,+15.00,-2.00
-1.00,+18.00,+8.00,+3.00,+18.00,+8.00,-32.00,-14.00,-13.00,-14.00,-3.00,+5.00,+22.00,+9.00,-8.00,-4.00
-16.00,-17.00,-9.00,-2.00,+4.00,-14.00,+25.00,-1.00,+6.00,-3.00,-2.00,-16.00,-29.00,+2.00,-16.00,-15.00
+6.00,+35.00,+9.00,+0.00,-14.00,-10.00,-18.00,-2.00,+6.00,-10.00,-1.00,-3.00,-12.00,+13.00,+5.00,+12.00
+4.00,+31.00,+6.00,+2.00,-2.00,+19.00,+24.00,-2.00,-12.00,-1.00,-2.00,+4.00,+5.00,-33.00,-9.00,+5.00
+7.00,+22.00,+1.00,+0.00,+11.00,-10.00,-21.00,+10.00,+3.00,+7.00,-1.00,-4.00,+9.00,-6.00,+7.00,-3.00
-4.00,-5.00,+3.00,+0.00,-11.00,+1.00,-4.00,-11.00,-13.00,-51.00,-15.00,+3.00,-13.00,+13.00,+3.00,+12.00
-4.00,-18.00,-4.00,-3.00,+8.00,-2.00,-8.00,+1.00,+2.00,+29.00,+0.00,-6.00,+13.00,+18.00,+6.00,-6.00
-24.00,-34.00,-11.00,-4.00,-3.00,-7.00,-5.00,-10.00,+3.00,+0.00,+1.00,+7.00,+9.00,-52.00,-16.00,-21.00
+1.00,-3.00,-8.00,-6.00,-1.00,+0.00,+15.00,+1.00,+4.00,-12.00,-8.00,-13.00,-26.00,+39.00,-2.00,+4.00
+12.00,+17.00,+3.00,+1.00,+4.00,-10.00,-5.00,+3.00,+12.00,+44.00,+17.00,+14.00,+25.00,+12.00,+14.00,+16.00
-12.00,-15.00,-1.00,+0.00,-2.00,+1.00,+3.00,+2.00,-17.00,-26.00,-12.00,-11.00,-5.00,-5.00,-11.00,-6.00
+5.00,+7.00,+6.00,+0.00,-6.00,-9.00,-55.00,-16.00,+4.00,+4.00,+3.00,-1.00,-6.00,-41.00,+3.00,+2.00
-10.00,-36.00,-13.00,-1.00,+24.00,+18.00,+76.00,+13.00,-1.00,+2.00,+6.00,+6.00,+1.00,+24.00,-4.00,-4.00
-4.00,-7.00,-8.00,-8.00,-36.00,-17.00,-16.00,+0.00,+15.00,+7.00,-4.00,-5.00,-3.00,-6.00,-4.00,-4.00
-1.00,-15.00,-2.00,+2.00,+7.00,+13.00,+25.00,-1.00,-5.00,+7.00,+1.00,+2.00,+4.00,-1.00,+2.00,-3.00
+29.00,+49.00,+14.00,+5.00,-20.00,-6.00,-15.00,+15.00,-3.00,+2.00,+4.00,+5.00,+29.00,+14.00,-1.00,+4.00
-2.00,+9.00,+0.00,-5.00,+4.00,-11.00,-37.00,-11.00,-6.00,-9.00,-7.00,-9.00,-46.00,-19.00,-3.00,-9.00
-11.00,-13.00,-6.00,+0.00,+14.00,+12.00,+25.00,+3.00,+17.00,+1.00,+4.00,-3.00,-10.00,-17.00,+0.00,-6.00
-4.00,-25.00,-6.00,-4.00,+1.00,+4.00,+2.00,+2.00,+3.00,+12.00,-3.00,-6.00,-5.00,+32.00,+1.00,+0.00
-14.00,-40.00,-9.00,-4.00,+3.00,+1.00,+17.00,-4.00,-1.00,-37.00,-13.00,+1.00,+12.00,+8.00,+1.00,+22.00
-9.00,+32.00,+6.00,+3.00,-8.00,-5.00,-25.00,-11.00,+10.00,+34.00,+9.00,+0.00,+8.00,+7.00,+3.00,+2.00
+2.00,-4.00,-2.00,+0.00,+15.00,-1.00,+25.00,+10.00,+1.00,-1.00,+1.00,+2.00,+7.00,-15.00,+0.00,+0.00
+24.00,-8.00,+0.00,-1.00,-12.00,+6.00,-7.00,-3.00,-12.00,+0.00,-1.00,+1.00,-4.00,-16.00,-11.00,-19.00
+10.00,+42.00,+0.00,-2.00,+12.00,-15.00,+5.00,-2.00,-16.00,-33.00,-2.00,-1.00,-5.00,+20.00,+1.00,-6.00
-3.00,-54.00,+13.00,+6.00,-8.00,+8.00,+5.00,-4.00,+8.00,+20.00,+5.00,+2.00,+2.00,-23.00,-3.00,+5.00
-10.00,+2.00,-2.00,-2.00,-4.00,-8.00,-21.00,-10.00,-13.00,+1.00,-4.00,-3.00,-5.00,+4.00,+0.00,-11.00
-10.00,-21.00,-3.00,-1.00,+0.00,+5.00,+11.00,-6.00,+1.00,-8.00,+3.00,+8.00,+3.00,+1.00,+4.00,+3.00
+2.00,-7.00,-3.00,-1.00,+2.00,-8.00,-6.00,+18.00,+16.00,+55.00,+22.00,+6.00,+0.00,-35.00,+2.00,+9.00
+6.00,+49.00,-5.00,-2.00,-3.00,-1.00,+10.00,-2.00,-36.00,-40.00,-22.00,-12.00,+6.00,+32.00,-27.00,-23.00
+0.00,-9.00,+1.00,-1.00,+9.00,+2.00,-17.00,-1.00,+21.00,+21.00,+11.00,+7.00,+16.00,+1.00,+7.00,+17.00
-5.00,+10.00,+2.00,+2.00,+16.00,-8.00,-2.00,+1.00,+7.00,-9.00,+4.00,+0.00,-6.00,+15.00,+4.00,-4.00
-29.00,-70.00,-14.00,-2.00,-37.00,-8.00,-51.00,-20.00,+27.00,+31.00,+3.00,-2.00,+9.00,-7.00,-5.00,+4.00
+47.00,+60.00,+7.00,+0.00,-5.00,+9.00,+89.00,+34.00,+6.00,+6.00,+2.00,-3.00,-20.00,-26.00,+0.00,-2.00
+3.00,+28.00,+20.00,+2.00,+4.00,+3.00,+8.00,-7.00,-13.00,-12.00,+3.00,+4.00,+17.00,+14.00,-5.00,-20.00
+26.00,+61.00,+12.00,+8.00,-2.00,-3.00,-38.00,+3.00,-25.00,-17.00,-7.00,-9.00,-11.00,-7.00,-6.00,+0.00
+1.00,+3.00,-2.00,+0.00,+26.00,+4.00,-5.00,-14.00,+32.00,+31.00,+9.00,+2.00,-20.00,-48.00,+6.00,+25.00
-29.00,-46.00,-12.00,-6.00,-11.00,-9.00,-23.00,-9.00,+4.00,+2.00,+4.00,+1.00,-2.00,+42.00,-5.00,-10.00
-22.00,-45.00,-18.00,-8.00,-6.00,-3.00,-3.00,-7.00,-26.00,-35.00,-15.00,-9.00,-2.00,+12.00,-6.00,-13.00
+9.00,-14.00,-7.00,-4.00,+2.00,+8.00,+19.00,+9.00,+45.00,+15.00,+3.00,+8.00,+11.00,-12.00,+11.00,+39.00
+10.00,+12.00,+4.00,+1.00,-2.00,+2.00,+29.00,+11.00,-6.00,+18.00,+0.00,-6.00,-11.00,+24.00,-2.00,-10.00
-14.00,+2.00,-4.00,-1.00,-8.00,+1.00,-40.00,-13.00,+2.00,-16.00,+0.00,+1.00,+2.00,-41.00,+6.00,+8.00
+7.00,-8.00,-1.00,+2.00,+7.00,-6.00,+22.00,+11.00,-19.00,-24.00,-9.00,-13.00,-6.00,+2.00,-8.00,-3.00
-20.00,-7.00,-6.00,-7.00,-9.00,-13.00,-16.00,-12.00,-10.00,+8.00,-4.00,-1.00,+4.00,+8.00,-5.00,-12.00
-6.00,-2.00,+1.00,-1.00,+2.00,+10.00,+13.00,-10.00,-13.00,-7.00,-5.00,-4.00,-26.00,+12.00,-10.00,-15.00
-6.00,-6.00,+3.00,+1.00,+1.00,-3.00,-10.00,-10.00,+9.00,-12.00,-9.00,+3.00,+14.00,-22.00,+7.00,+9.00
+5.00,-23.00,-8.00,+1.00,+21.00,-27.00,-34.00,+1.00,+0.00,+19.00,+3.00,-2.00,-5.00,+3.00,-2.00,-13.00
-6.00,-13.00,+4.00,-2.00,-30.00,+12.00,+4.00,-5.00,+6.00,-17.00,+4.00,+7.00,+20.00,-3.00,-3.00,+9.00
+10.00,+38.00,+3.00,-2.00,-4.00,-2.00,+13.00,+6.00,-17.00,-15.00,-10.00,-11.00,-5.00,+2.00,-8.00,-10.00
+0.00,-21.00,-7.00,-1.00,+9.00,+8.00,+7.00,+2.00,+21.00,+36.00,+21.00,+6.00,-13.00,-10.00,+11.00,+17.00
+6.00,+9.00,+2.00,+1.00,+0.00,-2.00,-3.00,-3.00,+10.00,+28.00,+11.00,+8.00,+2.00,+20.00,+10.00,+10.00
-2.00,-11.00,-4.00,-2.00,+4.00,-11.00,-19.00,+5.00,-19.00,-38.00,-6.00,-6.00,-2.00,+3.00,-11.00,-5.00
+10.00,-11.00,-3.00,-1.00,+12.00,+6.00,+30.00,+5.00,+13.00,+4.00,-4.00,+2.00,+9.00,+12.00,-12.00,-4.00
-13.00,-7.00,+2.00,+1.00,-16.00,-12.00,-28.00,-16.00,+2.00,+20.00,+6.00,+5.00,+16.00,-2.00,+9.00,-1.00
-11.00,+11.00,-3.00,+2.00,+0.00,+14.00,-10.00,+12.00,-39.00,-39.00,-6.00,-4.00,-31.00,+18.00,+9.00,+18.00
+0.00,+3.00,+2.00,+2.00,-2.00,-14.00,+32.00,+4.00,-7.00,+17.00,+0.00,+1.00,+11.00,-18.00,+0.00,-7.00
-18.00,-34.00,-8.00,-1.00,-3.00,+22.00,+13.00,-3.00,+31.00,+3.00,-10.00,+3.00,+28.00,+32.00,-12.00,-9.00
+22.00,+12.00,+10.00,+3.00,+16.00,-10.00,+38.00,+1.00,-41.00,-44.00,-11.00,-3.00,-32.00,-20.00,-1.00,+2.00
-12.00,+7.00,-11.00,-4.00,-1.00,+4.00,-60.00,-15.00,+21.00,+11.00,-5.00,-7.00,-23.00,-13.00,-15.00,+5.00
+0.00,+74.00,+6.00,-4.00,-7.00,-15.00,-8.00,-16.00,+6.00,+3.00,+0.00,-1.00,+2.00,-15.00,-2.00,-5.00
+48.00,+112.00,+16.00,+2.00,-1.00,+10.00,-3.00,+16.00,-13.00,-3.00,+0.00,-10.00,-21.00,+11.00,+3.00,-11.00
-4.00,-83.00,-9.00,+1.00,+9.00,-8.00,-13.00,+4.00,+1.00,-11.00,-7.00,+2.00,+19.00,+6.00,+0.00,-3.00
+44.00,+76.00,+34.00,+5.00,+4.00,+25.00,+66.00,+10.00,-15.00,-11.00,-4.00,+1.00,+24.00,-28.00,-8.00,-18.00
-15.00,-44.00,-8.00,-2.00,-6.00,-11.00,-25.00,-4.00,+8.00,+0.00,+8.00,+5.00,-23.00,+23.00,+2.00,+2.00
-20.00,-28.00,-7.00,-5.00,-8.00,-15.00,-3.00,-9.00,-32.00,-10.00,-11.00,-10.00,-14.00,-54.00,-2.00,-18.00
-12.00,+5.00,-13.00,-8.00,-2.00,+3.00,-5.00,-2.00,+3.00,-13.00,-7.00,+2.00,+13.00,+50.00,-4.00,-1.00
-14.00,-42.00,-5.00,-2.00,-7.00,-1.00,-8.00,-4.00,+12.00,-1.00,-3.00,+1.00,-7.00,+5.00,+6.00,+3.00
-5.00,-15.00,-7.00,-3.00,+3.00,+8.00,-12.00,+2.00,-6.00,-8.00,-6.00,-2.00,+25.00,-24.00,-13.00,-22.00
-5.00,-16.00,-5.00,-2.00,+9.00,+1.00,+54.00,+6.00,+32.00,+45.00,+9.00,-3.00,-20.00,+18.00,+8.00,+15.00
+11.00,+17.00,+7.00,+0.00,-8.00,+1.00,-66.00,-3.00,-13.00,-3.00,+10.00,+0.00,-15.00,-33.00,+4.00,+2.00
-4.00,-42.00,-13.00,-1.00,+9.00,-12.00,-12.00,+0.00,+6.00,-1.00,-17.00,-2.00,+6.00,+21.00,+13.00,+23.00
+14.00,+17.00,+1.00,-5.00,-7.00,-1.00,+13.00,+6.00,+46.00,+20.00,-1.00,+2.00,+21.00,-7.00,+4.00,+30.00
-19.00,+12.00,-6.00,-1.00,+19.00,+1.00,-39.00,-11.00,-60.00,-41.00,-6.00,-11.00,-36.00,-21.00,-58.00,-52.00
+0.00,-25.00,+3.00,-1.00,-22.00,+10.00,+51.00,+4.00,+14.00,+21.00,-8.00,-13.00,-9.00,+9.00,+38.00,+32.00
-9.00,+10.00,-14.00,-3.00,+12.00,+11.00,+16.00,+1.00,+3.00,+20.00,+9.00,-2.00,+4.00,-14.00,-18.00,-25.00
+10.00,+18.00,+11.00,+4.00,-8.00,+2.00,-11.00,-7.00,-1.00,+3.00,+2.00,-1.00,-18.00,-4.00,+17.00,+17.00
-41.00,+6.00,+1.00,+2.00,-2.00,-39.00,-36.00,-22.00,-3.00,-9.00,+6.00,+6.00,+22.00,+12.00,+17.00,+2.00
-73.00,-14.00,-11.00,-11.00,-1.00,+4.00,-86.00,-33.00,+1.00,-6.00,-5.00,-5.00,+7.00,+3.00,-18.00,-14.00
+94.00,+32.00,+27.00,+12.00,-3.00,+30.00,+39.00,+26.00,-22.00,-15.00,+5.00,+2.00,+2.00,-19.00,-1.00,-22.00
+24.00,-48.00,-15.00,-5.00,-7.00,-16.00,+9.00,+26.00,+0.00,+22.00,+2.00,+0.00,+3.00,+8.00,+2.00,+9.00
+17.00,-16.00,+7.00,+1.00,+0.00,-2.00,-8.00,-1.00,+5.00,-3.00,-2.00,+2.00,+2.00,-9.00,+7.00,+1.00
-2.00,+43.00,+1.00,-2.00,-1.00,-6.00,+14.00,-6.00,+3.00,-8.00,-1.00,+5.00,+5.00,+17.00,-5.00,-6.00
-73.00,-32.00,-11.00,-6.00,-13.00,-12.00,-7.00,-25.00,+12.00,-4.00,+0.00,+4.00,+6.00,-6.00,+1.00,+5.00
-2.00,-13.00,-4.00,-4.00,+9.00,+11.00,-18.00,-1.00,-29.00,-22.00,-13.00,-15.00,-29.00,+1.00,-9.00,-30.00
-5.00,-32.00,+3.00,+4.00,-5.00,+7.00,+19.00,+1.00,+9.00,+11.00,+11.00,+9.00,+15.00,+9.00,+6.00,+14.00
+18.00,+3.00,-3.00,+1.00,+5.00,-3.00,-2.00,+12.00,+0.00,+7.00,+0.00,-1.00,+2.00,-10.00,+2.00,+5.00
+0.00,-2.00,-3.00,-2.00,-8.00,-1.00,-6.00,-4.00,+5.00,-5.00,-7.00,-12.00,-10.00,+9.00,-9.00,-1.00
-2.00,+20.00,+1.00,-1.00,+1.00,+4.00,+13.00,+1.00,+15.00,+27.00,+11.00,+7.00,+9.00,+11.00,+15.00,+17.00
+0.00,-11.00,+1.00,-1.00,-5.00,-3.00,-5.00,-2.00,-26.00,-23.00,-6.00,-3.00,-6.00,+15.00,+6.00,+4.00
+19.00,-20.00,+0.00,+2.00,+7.00,-2.00,+9.00,+16.00,+0.00,+7.00,+6.00,+7.00,+15.00,-31.00,-14.00,-9.00
+6.00,+4.00,+3.00,+1.00,-11.00,-6.00,-20.00,-2.00,+25.00,+7.00,-3.00,-7.00,-20.00,-10.00,-4.00,-6.00
-30.00,+7.00,-2.00,-4.00,+3.00,-5.00,-13.00,-5.00,-5.00,-11.00,+2.00,+1.00,-4.00,+5.00,+3.00,+0.00
+15.00,+51.00,+2.00,+2.00,-5.00,+8.00,-10.00,+0.00,-18.00,-21.00,-7.00,+1.00,+8.00,-1.00,+7.00,-3.00
+8.00,+13.00,+5.00,-1.00,+10.00,-4.00,+7.00,+5.00,+3.00,-9.00,-6.00,-3.00,-2.00,+8.00,-2.00,-4.00
-6.00,-27.00,-2.00,+1.00,-3.00,-9.00,+5.00,+6.00,-1.00,-4.00,-1.00,+2.00,+0.00,-4.00,+0.00,-3.00
-11.00,-2.00,-3.00,-3.00,-1.00,+1.00,+15.00,-10.00,+12.00,+19.00,+1.00,+0.00,-2.00,-3.00,-1.00,+4.00
-1.00,-25.00,-2.00,+1.00,+9.00,+37.00,-8.00,+4.00,+2.00,+14.00,+6.00,+1.00,+9.00,+8.00,+2.00,+0.00
+14.00,+30.00,-1.00,-1.00,-9.00,+1.00,+13.00,+6.00,-3.00,-9.00,-6.00,-2.00,+2.00,-2.00,-6.00,+0.00
-9.00,+20.00,+4.00,-1.00,-5.00,-8.00,-7.00,-9.00,+0.00,+1.00,-2.00,-2.00,-12.00,-1.00,+5.00,+9.00
+6.00,-25.00,-1.00,+1.00,+2.00,+7.00,+0.00,+6.00,-3.00,-9.00,-1.00,-1.00,-5.00,-5.00,-6.00,-10.00
+0.00,-3.00,+1.00,+0.00,-1.00,+3.00,+7.00,-2.00,+8.00,+7.00,+2.00,-1.00,-3.00,+7.00,+0.00,+8.00
+0.00,-37.00,-5.00,+2.00,+0.00,-14.00,+10.00,-5.00,-13.00,-4.00,-3.00,-5.00,-4.00,-4.00,-4.00,-13.00
-11.00,+25.00,-2.00,-4.00,-2.00,+1.00,-5.00,-6.00,-5.00,+0.00,+1.00,+1.00,+9.00,-8.00,-3.00,-2.00
+7.00,+14.00,+1.00,+2.00,+12.00,+3.00,-1.00,+5.00,-6.00,+2.00,+6.00,+2.00,+0.00,+4.00,-2.00,-6.00
+0.00,-12.00,-3.00,-4.00,-7.00,-6.00,+3.00,-1.00,-3.00,-9.00,-5.00,-1.00,-2.00,+0.00,+1.00,-1.00
-16.00,-36.00,-5.00,-1.00,-3.00,+6.00,+4.00,-2.00,+8.00,+7.00,+4.00,+1.00,+3.00,-5.00,-1.00,-2.00
+15.00,+12.00,-3.00,-3.00,+1.00,-5.00,-6.00,+2.00,-2.00,+3.00,-2.00,-1.00,+4.00,-3.00,-1.00,-1.00
-3.00,+9.00,+1.00,+1.00,+0.00,+1.00,+3.00,+0.00,-10.00,-12.00,-5.00,-3.00,-5.00,+0.00,-2.00,-2.00
+1.00,+3.00,-3.00,-2.00,-4.00,-7.00,+1.00,+0.00,-2.00,-11.00,-1.00,+0.00,+3.00,+3.00,+4.00,+0.00
-3.00,-2.00,+1.00,+1.00,-1.00,+2.00,+4.00,-2.00,+7.00,+9.00,-1.00,-2.00,-4.00,-7.00,+1.00,+4.00
-5.00,-9.00,-3.00,+1.00,+0.00,-5.00,-5.00,+2.00,-4.00,+7.00,+4.00,+1.00,-2.00,+0.00,-2.00,+2.00
-2.00,+1.00,+1.00,+0.00,-1.00,+1.00,-4.00,-9.00,-6.00,-10.00,-8.00,-4.00,-4.00,-5.00,-7.00,-12.00
-3.00,-18.00,-3.00,-1.00,-3.00,-3.00,+4.00,+2.00,+9.00,+3.00,+0.00,+0.00,-1.00,+0.00,+2.00,+7.00
+7.00,+10.00,+2.00,-1.00,+2.00,+0.00,+0.00,+0.00,+2.00,-1.00,-5.00,-1.00,-2.00,+1.00,-2.00,+1.00
-5.00,-3.00,-2.00,-1.00,-3.00,-2.00,-3.00,-4.00,-6.00,+0.00,+0.00,-2.00,+0.00,-4.00,-4.00,-7.00
-2.00,-10.00,-5.00,-3.00,+0.00,+1.00,+0.00,-2.00,-17.00,-12.00,-5.00,-1.00,+1.00,-2.00,-2.00,-10.00
+6.00,+1.00,-2.00,-2.00,-1.00,-5.00,+0.00,+4.00,-3.00,-6.00,-1.00,-1.00,-3.00,+2.00,-1.00,-4.00
+2.00,+11.00,+0.00,+0.00,+2.00,-2.00,+1.00,+0.00,+1.00,+0.00,+0.00,+0.00,-2.00,-1.00,+1.00,+6.00
-3.00,-9.00,+1.00,+1.00,-1.00,+0.00,-5.00,-5.00,-4.00,+2.00,-2.00,-3.00,+2.00,-1.00,-1.00,-6.00
+1.00,-2.00,+3.00,+2.00,-2.00,+0.00,+0.00,-4.00,+5.00,+0.00,-1.00,+0.00,-1.00,+1.00,-1.00,+6.00
-6.00,+1.00,-3.00,-3.00,-3.00,-7.00,+0.00,+15.00,-3.00,+1.00,-3.00,-1.00,+5.00,+2.00,+0.00,-3.00
+3.00,+1.00,-2.00,-3.00,+2.00,+1.00,+2.00,+2.00,-5.00,-14.00,-4.00,-2.00,-4.00,+0.00,-2.00,-5.00
-9.00,-16.00,-6.00,-4.00,-2.00,+1.00,-4.00,-8.00,+7.00,+22.00,+5.00,+2.00,-1.00,-3.00,+1.00,+8.00
-3.00,-4.00,-3.00,-2.00,+1.00,+0.00,-3.00,-4.00,-10.00,-6.00,-3.00,-4.00,-2.00,-2.00,-3.00,-11.00
+13.00,+0.00,-1.00,-2.00,-4.00,-2.00,+2.00,+6.00,-7.00,-9.00,-4.00,+0.00,+3.00,-1.00,-1.00,-11.00
+0.00,+14.00,+1.00,+2.00,-1.00,+0.00,-1.00,-3.00,+3.00,-8.00,+0.00,-2.00,-2.00,-5.00,-4.00,-4.00
-4.00,-7.00,-1.00,+0.00,+1.00,-2.00,-2.00,+2.00,+1.00,+13.00,+6.00,+7.00,+10.00,+4.00,+1.00,+1.00
-1.00,+2.00,+0.00,+2.00,-2.00,+2.00,+0.00,-3.00,-9.00,-12.00,-2.00,+2.00,+1.00,-2.00,+1.00,+0.00
+4.00,-6.00,+0.00,+1.00,-1.00,-5.00,+0.00,-1.00,+6.00,+1.00,-3.00,-5.00,-23.00,-3.00,+2.00,+7.00
-3.00,-15.00,+7.00,+1.00,+1.00,-1.00,+3.00,+4.00,-9.00,-3.00,+1.00,-3.00,+0.00,-1.00,-1.00,-6.00
-3.00,+17.00,-5.00,-4.00,-5.00,-2.00,-4.00,-6.00,+2.00,-4.00,-5.00,-4.00,-1.00,-1.00,-3.00,-1.00
-6.00,-1.00,+1.00,+0.00,-4.00,-4.00,-2.00,-4.00,+4.00,+2.00,+0.00,+1.00,+4.00,+1.00,-2.00,+0.00
+4.00,+48.00,-3.00,-5.00,+1.00,+7.00,+1.00,-4.00,-10.00,-9.00,-7.00,-2.00,+4.00,+2.00,+3.00,-10.00
-4.00,-7.00,-2.00,-2.00,-2.00,+0.00,+1.00,-4.00,+5.00,+1.00,+1.00,+1.00,+4.00,+1.00,+6.00,+16.00
+0.00,-19.00,-2.00,+1.00,-1.00,-2.00,+1.00,+2.00,+4.00,-13.00,-3.00,-3.00,-15.00,-4.00,-6.00,-5.00
-5.00,-8.00,-3.00,-1.00,-4.00,-3.00,-3.00,-1.00,-7.00,+9.00,+2.00,-1.00,+1.00,-2.00,-9.00,-12.00
-7.00,-24.00,-3.00,+0.00,+1.00,-1.00,-3.00,-7.00,+18.00,+13.00,+1.00,+3.00,+6.00,+2.00,+3.00,+19.00
-5.00,-19.00,-5.00,-2.00,+6.00,+1.00,-6.00,-4.00,-6.00,+5.00,+0.00,+4.00,+6.00,+0.00,-6.00,-13.00
+17.00,+52.00,+10.00,+3.00,-7.00,+1.00,+8.00,+7.00,-8.00,+1.00,+6.00,+14.00,+26.00,+5.00,+6.00,+7.00
+9.00,+1.00,-1.00,-1.00,+6.00,+4.00,+25.00,+2.00,-5.00,-4.00,-1.00,-20.00,-59.00,-14.00,-5.00,-4.00
-17.00,-13.00,-4.00,-3.00,-6.00,-6.00,+1.00,+1.00,+0.00,-9.00,-4.00,-1.00,+0.00,+0.00,+1.00,+3.00
-1.00,-6.00,-3.00,-2.00,-8.00,-2.00,+6.00,-3.00,-2.00,-1.00,-8.00,-10.00,-11.00,-6.00,-2.00,-6.00
-14.00,-46.00,-8.00,-4.00,+11.00,-3.00,-7.00,+2.00,+6.00,-8.00,-2.00,+1.00,+18.00,+4.00,+8.00,+10.00
+4.00,+54.00,+9.00,+3.00,-13.00,+19.00,-9.00,-1.00,-1.00,-2.00,-1.00,+3.00,+13.00,+2.00,-1.00,-8.00
+1.00,-6.00,+1.00,-3.00,+4.00,+0.00,-3.00,-6.00,-3.00,+3.00,+3.00,-1.00,-3.00,-2.00,+1.00,+7.00
-2.00,+6.00,+0.00,+1.00,+4.00,+4.00,+2.00,-2.00,-4.00,+2.00,+4.00,+4.00,+4.00,+0.00,-3.00,-3.00
-9.00,+6.00,-2.00,+1.00,+9.00,+1.00,-4.00,-6.00,-6.00,-1.00,-4.00,-7.00,-13.00,-6.00,-2.00,-13.00
+3.00,-28.00,+3.00,+1.00,-11.00,-11.00,-3.00,+5.00,+5.00,-1.00,+2.00,+6.00,+7.00,+2.00,+1.00,+11.00
+0.00,-24.00,-4.00,-1.00,-3.00,-4.00,-4.00,+0.00,-3.00,-1.00,-1.00,-4.00,-4.00,-2.00,-2.00,-7.00
+5.00,+35.00,+2.00,+1.00,-3.00,+3.00,-4.00,-1.00,+5.00,+5.00,+6.00,+1.00,+2.00,+1.00,-4.00,+5.00
-1.00,-19.00,+0.00,+0.00,-3.00,-8.00,-1.00,-3.00,-3.00,-3.00,-2.00,-5.00,-9.00,-2.00,+2.00,-1.00
-3.00,-10.00,+10.00,-1.00,+7.00,-3.00,-4.00,+2.00,+0.00,-3.00,-2.00,+0.00,+1.00,+2.00,+4.00,+4.00
-5.00,-4.00,-12.00,-6.00,-6.00,-2.00,+1.00,-5.00,-2.00,+1.00,+1.00,+2.00,+8.00,+3.00,-3.00,-15.00
+2.00,-4.00,+2.00,-7.00,-2.00,-3.00,+0.00,-8.00,-1.00,+0.00,+0.00,-1.00,-3.00,-1.00,+0.00,-6.00
+2.00,+9.00,-13.00,-1.00,-2.00,+0.00,-1.00,+6.00,+1.00,-2.00,-2.00,-4.00,-8.00,-2.00,-3.00,+2.00
-2.00,-5.00,-7.00,+0.00,+3.00,-2.00,-2.00,-7.00,-2.00,-1.00,-4.00,+0.00,+6.00,+0.00,-3.00,-2.00
+2.00,+9.00,+7.00,+5.00,+1.00,+2.00,+0.00,-8.00,+0.00,-2.00,-2.00,-1.00,-3.00,-2.00,+1.00,+8.00
-5.00,+2.00,+1.00,+1.00,+1.00,-3.00,+0.00,+5.00,+1.00,+1.00,-3.00,-4.00,-3.00,-2.00,-3.00,+4.00
+1.00,-4.00,+1.00,-3.00,-4.00,+0.00,-2.00,+2.00,-2.00,-6.00,-2.00,+1.00,-3.00,-2.00,-2.00,-4.00
-4.00,+0.00,-2.00,+0.00,+4.00,+3.00,-4.00,+5.00,+1.00,-6.00,-6.00,+2.00,+7.00,+1.00,+2.00,+2.00
-1.00,-6.00,-2.00,-2.00,-3.00,-6.00,-4.00,-4.00,-1.00,+5.00,+0.00,-4.00,-3.00,-3.00,-3.00,+2.00
+5.00,+3.00,-1.00,+0.00,-1.00,+0.00,-4.00,-12.00,-1.00,+0.00,+3.00,-1.00,+3.00,-3.00,-1.00,-6.00
-2.00,+2.00,+4.00,+0.00,-4.00,-1.00,+2.00,-9.00,+0.00,-1.00,-3.00,-3.00,-12.00,-2.00,-5.00,+3.00
-13.00,-8.00,-7.00,-3.00,+1.00,-3.00,-2.00,+13.00,+1.00,+5.00,+3.00,-1.00,+0.00,+1.00,+6.00,+8.00
+2.00,+6.00,+1.00,+1.00,-2.00,-2.00,+1.00,-3.00,-1.00,-2.00,+2.00,+1.00,-2.00,+1.00,+4.00,-10.00
