+0.00,+0.00,+0.00,-1.00,+1.00,-1.00,-1.00,+0.00,-1.00,+1.00,+5.00,+1.00,-2.00,-1.00,+0.00,-3.00
-1.00,-5.00,-2.00,-1.00,-2.00,-1.00,-3.00,-1.00,-2.00,-2.00,+0.00,-2.00,+0.00,-1.00,-1.00,-5.00
+0.00,+1.00,+2.00,+1.00,+2.00,+0.00,+0.00,+0.00,+1.00,+3.00,+0.00,-3.00,+0.00,-2.00,-2.00,-3.00
+0.00,+0.00,+2.00,+0.00,-2.00,-1.00,+1.00,-2.00,+1.00,+3.00,+4.00,-1.00,+0.00,-2.00,-1.00,+3.00
-2.00,-1.00,-2.00,-1.00,+0.00,-1.00,+0.00,-4.00,-3.00,-1.00,-3.00,-2.00,+0.00,-1.00,-2.00,+0.00
-3.00,-1.00,+1.00,-2.00,-1.00,-1.00,+0.00,-2.00,-5.00,-6.00,+1.00,+0.00,+0.00,+0.00,-1.00,+1.00
-1.00,-3.00,-8.00,-2.00,-2.00,-1.00,-1.00,+1.00,-3.00,-10.00,-3.00,-2.00,+1.00,-1.00,+1.00,+0.00
+0.00,+0.00,+4.00,+3.00,+0.00,-1.00,-1.00,+1.00,+0.00,-1.00,-1.00,-4.00,-3.00,-1.00,-1.00,+0.00
-5.00,-5.00,+1.00,-2.00,-4.00,-1.00,-1.00,-3.00,+3.00,+5.00,+0.00,+1.00,+2.00,+0.00,+2.00,+0.00
+1.00,+0.00,-1.00,-1.00,+0.00,-1.00,-1.00,+1.00,-6.00,-13.00,-4.00,-4.00,-4.00,+0.00,-1.00,+0.00
-4.00,-2.00,+4.00,-2.00,-1.00,-1.00,-2.00,-2.00,+0.00,+13.00,+0.00,+1.00,+11.00,+0.00,-1.00,-5.00
-3.00,+0.00,-3.00,-2.00,+0.00,+0.00,-1.00,-1.00,+6.00,+6.00,+0.00,+1.00,-11.00,-1.00,+3.00,+6.00
+4.00,-4.00,-2.00,+0.00,-1.00,-3.00,-2.00,+1.00,-1.00,-10.00,-4.00,+1.00,+4.00,+4.00,+1.00,+3.00
-1.00,-2.00,-1.00,-1.00,+0.00,+0.00,-1.00,+0.00,-3.00,-2.00,-1.00,-5.00,-8.00,-3.00,-3.00,-6.00
-1.00,+0.00,-8.00,-4.00,+0.00,-1.00,-1.00,-1.00,+7.00,+3.00,+7.00,-1.00,-4.00,-1.00,+1.00,+3.00
+0.00,-1.00,+0.00,+1.00,-5.00,-3.00,-2.00,-2.00,-7.00,-6.00,-4.00,-3.00,+3.00,+2.00,-1.00,-4.00
+0.00,-6.00,-4.00,+0.00,+3.00,+3.00,+2.00,+1.00,-9.00,+7.00,+3.00,+1.00,-1.00,-1.00,+0.00,-1.00
-6.00,-2.00,+8.00,+2.00,-1.00,-1.00,-1.00,-4.00,+18.00,+4.00,+4.00,+6.00,+9.00,+3.00,+2.00,+5.00
+8.00,+16.00,-7.00,-5.00,-3.00,+0.00,+0.00,+2.00,-3.00,-6.00,-3.00,-1.00,-4.00,+0.00,+1.00,+2.00
+1.00,-6.00,-5.00,-9.00,-4.00,-3.00,+0.00,+1.00,+0.00,-4.00,-2.00,-3.00,-1.00,-2.00,-1.00,-3.00
-6.00,-18.00,+1.00,+0.00,-2.00,-2.00,+1.00,-1.00,-3.00,-7.00,-4.00,-1.00,-4.00,-2.00,-3.00,+0.00
+19.00,+51.00,+1.00,+3.00,+4.00,+3.00,-2.00,+2.00,-11.00,-22.00,-7.00,-1.00,+4.00,-1.00,+0.00,-5.00
-10.00,-6.00,+4.00,+4.00,-2.00,-4.00,-3.00,-6.00,+1.00,-15.00,-1.00,-4.00,-5.00,-2.00,-2.00,-2.00
+0.00,+2.00,+5.00,+3.00,+4.00,+1.00,-1.00,+1.00,-1.00,+39.00,+7.00,+2.00,+2.00,+1.00,-2.00,-4.00
-1.00,+6.00,-1.00,-3.00,-1.00,-2.00,-1.00,-1.00,+6.00,+4.00,-4.00,-2.00,-5.00,-2.00,-2.00,-4.00
-10.00,-18.00,-1.00,-1.00,-2.00,+0.00,+2.00,-1.00,+10.00,+20.00,+2.00,+1.00,-2.00,-3.00,+0.00,+0.00
+4.00,+12.00,+1.00,+1.00,-2.00,-1.00,-1.00,-1.00,-22.00,-18.00,+0.00,+4.00,+1.00,+2.00,+2.00,+2.00
-2.00,-13.00,-4.00,-4.00,+1.00,+0.00,+1.00,+0.00,-14.00,-19.00,-3.00,-1.00,-1.00,-1.00,-1.00,-4.00
-2.00,-7.00,-2.00,-1.00,-1.00,+0.00,+1.00,+1.00,-1.00,-4.00,+1.00,+0.00,+2.00,-1.00,-1.00,-2.00
+1.00,-10.00,-8.00,-4.00,-2.00,-2.00,-2.00,+0.00,+1.00,-2.00,-5.00,-1.00,-1.00,-1.00,-1.00,+0.00
-8.00,-26.00,-4.00,-4.00,+0.00,+0.00,-1.00,-5.00,+12.00,+2.00,-3.00,-2.00,-3.00,-3.00,-1.00,+4.00
+7.00,+36.00,+9.00,+3.00,+2.00,-1.00,+2.00,+1.00,+2.00,+14.00,+2.00,+0.00,+3.00,-2.00,-1.00,-2.00
+20.00,+46.00,+5.00,+3.00,-1.00,+1.00,+1.00,+6.00,+6.00,+5.00,+2.00,-1.00,-1.00,-1.00,+0.00,+2.00
-9.00,-11.00,-1.00,-1.00,-4.00,-2.00,-1.00,-3.00,-8.00,-6.00,-4.00,-4.00,-5.00,+0.00,-4.00,-3.00
-3.00,-1.00,-1.00,-3.00,-3.00,-1.00,+0.00,+0.00,-1.00,+0.00,-1.00,-3.00,-1.00,-1.00,+0.00,-4.00
-10.00,-29.00,-4.00,-2.00,+1.00,-2.00,-5.00,-5.00,-1.00,-5.00,-2.00,-2.00,-1.00,-1.00,+0.00,-1.00
-5.00,-13.00,-2.00,+0.00,-2.00,-2.00,-3.00,+0.00,+0.00,-19.00,-3.00,-5.00,+0.00,-3.00,-1.00,-4.00
+0.00,+3.00,-4.00,-1.00,+0.00,+0.00,+0.00,-1.00,-3.00,+9.00,-2.00,-1.00,-2.00,-1.00,-3.00,-1.00
-2.00,-14.00,+1.00,+0.00,+0.00,-2.00,-1.00,+0.00,-3.00,+9.00,+0.00,+0.00,-2.00,+2.00,-2.00,-2.00
-2.00,-3.00,-1.00,+0.00,+1.00,-2.00,+1.00,-1.00,+1.00,-8.00,-2.00,+0.00,-1.00,+0.00,+0.00,-1.00
-3.00,+7.00,-2.00,-1.00,-1.00,-3.00,+0.00,-2.00,-2.00,+3.00,+0.00,-1.00,+0.00,+0.00,-1.00,-1.00
-4.00,-14.00,-4.00,-2.00,-1.00,-3.00,+0.00,+0.00,-5.00,-11.00,-3.00,-3.00,-1.00,+0.00,-2.00,+0.00
-2.00,+1.00,+2.00,-2.00,-1.00,+0.00,+0.00,+0.00,-13.00,-14.00,-3.00,+0.00,+0.00,-1.00,+1.00,-3.00
+4.00,+4.00,-3.00,+0.00,-2.00,+0.00,+0.00,+1.00,+3.00,+0.00,-4.00,-1.00,+1.00,-2.00,-3.00,+1.00
+0.00,+6.00,-1.00,-1.00,+1.00,+0.00,-1.00,+0.00,-2.00,+0.00,-3.00,+0.00,-3.00,-1.00,+1.00,-2.00
-6.00,-7.00,-1.00,-2.00,+1.00,-1.00,+1.00,-3.00,-16.00,-21.00,-5.00,-3.00,+0.00,-1.00,-3.00,-5.00
-1.00,-7.00,-1.00,+0.00,+0.00,-2.00,-1.00,-2.00,+13.00,+33.00,+7.00,+0.00,-2.00,-2.00,-2.00,-1.00
+12.00,+23.00,+4.00,+0.00,-1.00,+0.00,+0.00,+5.00,+12.00,-6.00,-3.00,-3.00,-1.00,-1.00,-1.00,+3.00
-6.00,-22.00,-6.00,+0.00,-2.00,+1.00,-2.00,-5.00,-1.00,-3.00,-1.00,-2.00,-3.00,-2.00,-2.00,+1.00
+0.00,+7.00,+5.00,+1.00,+1.00,+1.00,+0.00,+0.00,+13.00,+34.00,+8.00,+5.00,+1.00,+0.00,+3.00,+11.00
+3.00,-1.00,-1.00,-1.00,+1.00,+0.00,+0.00,+2.00,-14.00,-28.00,-8.00,-1.00,+1.00,+0.00,-3.00,-3.00
-6.00,-13.00,-14.00,-6.00,-2.00,-2.00,+0.00,-3.00,+0.00,-16.00,-2.00,+0.00,+0.00,+1.00,-3.00,-1.00
-10.00,-23.00,-5.00,-3.00,-2.00,-2.00,-2.00,-5.00,-6.00,-17.00,-6.00,-3.00,-3.00,-3.00,-4.00,-9.00
+0.00,-3.00,+2.00,+0.00,-2.00,-2.00,+0.00,+1.00,-9.00,+17.00,+4.00,+1.00,-2.00,-1.00,-2.00,-7.00
+15.00,+44.00,+5.00,+3.00,+3.00,+2.00,+1.00,+1.00,+5.00,+32.00,+9.00,+1.00,-2.00,-3.00,-4.00,+1.00
+0.00,+24.00,+7.00,+3.00,+1.00,-1.00,-1.00,-1.00,+0.00,-6.00,-4.00,-3.00,-1.00,-3.00,-5.00,-11.00
-4.00,+16.00,+4.00,+2.00,-2.00,-1.00,-1.00,-1.00,+10.00,+3.00,-1.00,+0.00,-1.00,+0.00,+0.00,+12.00
-4.00,-27.00,-8.00,-3.00,-4.00,-2.00,-3.00,+1.00,+3.00,-27.00,-5.00,-2.00,-2.00,-3.00,-1.00,+2.00
-2.00,-23.00,-4.00,-2.00,-2.00,-1.00,-2.00,+1.00,-8.00,-18.00,-12.00,-3.00,+1.00,+1.00,-2.00,-5.00
-1.00,-10.00,-6.00,-5.00,-1.00,+0.00,+0.00,-2.00,+4.00,+15.00,+3.00,+1.00,+3.00,-2.00,+0.00,-7.00
+0.00,-9.00,-10.00,-5.00,-1.00,-2.00,-1.00,+2.00,-16.00,-29.00,-3.00,+2.00,-6.00,-47.00,-1.00,-1.00
-4.00,+19.00,+9.00,+3.00,+1.00,+0.00,-1.00,-6.00,+6.00,+0.00,-5.00,-5.00,-4.00,+53.00,+3.00,+4.00
-7.00,+3.00,-4.00,-4.00,-3.00,-2.00,-3.00,-3.00,+3.00,+37.00,+4.00,-1.00,+1.00,+5.00,+1.00,+2.00
+3.00,+12.00,+7.00,+3.00,-2.00,-2.00,+3.00,-1.00,+4.00,+24.00,+13.00,+1.00,+2.00,+9.00,+0.00,+1.00
-4.00,-48.00,+3.00,+4.00,+0.00,+4.00,-4.00,+0.00,-26.00,-29.00,-6.00,+8.00,+14.00,-2.00,-9.00,-10.00
+1.00,+1.00,-6.00,-5.00,+0.00,+2.00,+6.00,+2.00,-7.00,+4.00,-3.00,-7.00,-9.00,-24.00,-1.00,-2.00
+11.00,+78.00,+5.00,+2.00,+2.00,-3.00,-6.00,+4.00,+29.00,-17.00,-9.00,-3.00,+4.00,-5.00,+0.00,+7.00
-6.00,-27.00,-1.00,+2.00,-1.00,-2.00,-5.00,-3.00,-23.00,-2.00,-3.00,-4.00,-14.00,-2.00,+2.00,-7.00
+5.00,+11.00,-9.00,-4.00,+6.00,-3.00,-4.00,-2.00,+13.00,+20.00,+0.00,-4.00,-7.00,+2.00,+1.00,+7.00
-14.00,-36.00,-7.00,-3.00,-17.00,-4.00,+4.00,-2.00,-19.00,-33.00,-19.00,-6.00,-4.00,-14.00,-5.00,-10.00
+14.00,+24.00,+9.00,+2.00,+8.00,+5.00,+5.00,+2.00,-21.00,-33.00,-3.00,-2.00,+7.00,-15.00,-6.00,-6.00
-11.00,-37.00,-2.00,-1.00,-5.00,-1.00,+3.00,-3.00,+33.00,+16.00,+7.00,+6.00,+11.00,+37.00,+5.00,+12.00
+6.00,+2.00,+4.00,+5.00,+9.00,-1.00,-9.00,-2.00,+3.00,+13.00,+4.00,-2.00,+1.00,+11.00,+0.00,-4.00
+2.00,+19.00,+1.00,-1.00,-2.00,+1.00,-2.00,-2.00,+4.00,+28.00,+9.00,+5.00,+3.00,+9.00,+2.00,-3.00
-23.00,-59.00,-7.00,-5.00,-4.00,-16.00,-2.00,-11.00,-3.00,-1.00,-8.00,-3.00,-6.00,-18.00,-2.00,-1.00
-1.00,+2.00,-3.00,-2.00,-9.00,+1.00,+1.00,-5.00,-2.00,-13.00,+1.00,+3.00,+2.00,-17.00,-2.00,+3.00
+13.00,+64.00,+6.00,+2.00,+0.00,-6.00,-6.00,+4.00,-18.00,-33.00,-4.00,+0.00,+3.00,+16.00,-1.00,-7.00
-3.00,-21.00,-5.00,-4.00,+0.00,-1.00,-3.00,-2.00,-6.00,-9.00,-3.00,-9.00,-11.00,-13.00,+1.00,+0.00
-5.00,-34.00,-2.00,+3.00,+1.00,-1.00,+1.00,+2.00,+14.00,+29.00,+8.00,+0.00,-7.00,-6.00,-8.00,-3.00
-3.00,+24.00,+1.00,+0.00,-1.00,-1.00,-1.00,+0.00,-12.00,-7.00,-7.00,-4.00,-2.00,-9.00,-5.00,+0.00
-8.00,-32.00,-3.00,-6.00,-3.00,+2.00,+4.00,-4.00,-5.00,+6.00,-3.00,-3.00,-8.00,+14.00,+0.00,-2.00
+12.00,+36.00,+5.00,+1.00,+4.00,-7.00,-4.00,+4.00,-12.00,-2.00,+6.00,+8.00,+25.00,-13.00,-3.00,-8.00
-3.00,+7.00,-1.00,-1.00,-8.00,+2.00,+0.00,-4.00,-12.00,-13.00,-4.00,-3.00,-20.00,-46.00,-3.00,-8.00
+7.00,-12.00,+2.00,+2.00,+8.00,+3.00,-5.00,+4.00,+0.00,-7.00,-2.00,-2.00,-3.00,+60.00,+7.00,+13.00
-14.00,+2.00,-3.00,-4.00,-10.00,-3.00,+2.00,-2.00,+20.00,+22.00,+4.00,-8.00,-2.00,-1.00,+7.00,+6.00
+6.00,-26.00,+2.00,+0.00,+2.00,-2.00,-1.00,+3.00,-3.00,-36.00,-5.00,+3.00,+3.00,-13.00,-5.00,-5.00
+5.00,+14.00,-3.00,-1.00,-8.00,+0.00,+0.00,-1.00,-12.00,+23.00,+1.00,+0.00,-1.00,+19.00,-2.00,+1.00
-1.00,-3.00,-5.00,-3.00,+3.00,+6.00,+0.00,+1.00,+0.00,-19.00,-10.00,-4.00,-9.00,-39.00,-7.00,-7.00
+3.00,+2.00,+7.00,+3.00,+2.00,-6.00,-2.00,+1.00,-12.00,+28.00,+13.00,+4.00,+8.00,+1.00,-4.00,-13.00
-1.00,-3.00,-1.00,-1.00,+2.00,-12.00,-20.00,-2.00,+7.00,-5.00,-6.00,-4.00,-7.00,+1.00,+6.00,+9.00
-9.00,-28.00,-9.00,-4.00,+4.00,+21.00,+21.00,-1.00,+23.00,+3.00,+4.00,+5.00,+9.00,+8.00,+4.00,+7.00
-10.00,-34.00,-6.00,-4.00,-7.00,-7.00,-8.00,-9.00,-10.00,+20.00,+4.00,+5.00,+10.00,-9.00,-2.00,-9.00
+0.00,+49.00,+6.00,-1.00,+0.00,-18.00,+6.00,+1.00,+3.00,-32.00,-11.00,-9.00,-18.00,+5.00,-1.00,+1.00
-1.00,-14.00,-7.00,-2.00,-1.00,+21.00,-3.00,-4.00,-15.00,+62.00,+17.00,+2.00,-5.00,-3.00,-4.00,-10.00
+1.00,+3.00,+3.00,-2.00,-2.00,-7.00,-14.00,-4.00,+12.00,+19.00,+4.00,+2.00,+2.00,+10.00,+2.00,+3.00
+1.00,+35.00,+3.00,+0.00,-2.00,-2.00,+7.00,+5.00,-21.00,-15.00,+0.00,-1.00,+6.00,-6.00,-4.00,-7.00
+13.00,-24.00,+2.00,+0.00,-4.00,+0.00,+7.00,+10.00,+26.00,+3.00,-5.00,+0.00,+0.00,-24.00,+2.00,+13.00
-16.00,-34.00,-4.00,+1.00,+4.00,-3.00,-4.00,-6.00,-7.00,-12.00,-4.00,+3.00,+7.00,+47.00,-3.00,-5.00
+1.00,+51.00,-8.00,-1.00,+0.00,-3.00,-4.00,-4.00,-18.00,-37.00,-11.00,-6.00,-6.00,+10.00,+2.00,+0.00
+11.00,-31.00,+2.00,+2.00,+4.00,+3.00,+1.00,+3.00,-2.00,-24.00,-6.00,-2.00,-4.00,-3.00,+0.00,-1.00
-7.00,-23.00,-9.00,-5.00,-7.00,+0.00,-4.00,-6.00,+6.00,+17.00,+4.00,+1.00,+0.00,-15.00,-5.00,-5.00
-7.00,+19.00,+1.00,+1.00,+4.00,+6.00,+7.00,-3.00,+16.00,+33.00,+8.00,+1.00,-1.00,-15.00,+0.00,+8.00
-12.00,-43.00,-1.00,-2.00,-6.00,-3.00,-8.00,-3.00,-29.00,-33.00,-13.00,-6.00,-2.00,+11.00,+0.00,-12.00
+3.00,+33.00,+6.00,+1.00,-2.00,-7.00,-3.00,-3.00,+21.00,-19.00,-10.00,-9.00,-9.00,-18.00,-2.00,+9.00
+3.00,+21.00,+3.00,-2.00,-2.00,+5.00,-1.00,+1.00,-36.00,-2.00,+0.00,-3.00,-4.00,+0.00,-5.00,-13.00
+0.00,+4.00,-2.00,+1.00,-2.00,-1.00,+3.00,-2.00,+6.00,+4.00,+4.00,+0.00,+2.00,-1.00,+4.00,+2.00
-16.00,-43.00,-10.00,-1.00,-3.00,-6.00,+0.00,-5.00,+4.00,-5.00,-7.00,-3.00,+10.00,+4.00,-2.00,-3.00
+11.00,-35.00,-6.00,-4.00,+1.00,+1.00,-4.00,+2.00,-1.00,+7.00,+1.00,+5.00,-5.00,-4.00,+6.00,+5.00
-3.00,+20.00,+11.00,+3.00,+0.00,+5.00,+2.00,-1.00,-10.00,+8.00,+6.00,+2.00,-6.00,-48.00,-11.00,-9.00
-1.00,+17.00,+3.00,-2.00,-2.00,+0.00,+5.00,+4.00,+6.00,-19.00,-8.00,-7.00,-2.00,+33.00,-8.00,-2.00
+34.00,+25.00,+13.00,+5.00,-1.00,-2.00,-2.00,+9.00,+27.00,+18.00,+6.00,-1.00,-14.00,-1.00,-2.00,-2.00
-19.00,-20.00,-7.00,-2.00,-3.00,-2.00,-4.00,-6.00,+2.00,+6.00,+2.00,+1.00,+3.00,-4.00,-3.00,-5.00
-1.00,-7.00,-5.00,-1.00,+0.00,+3.00,-17.00,-7.00,+11.00,+5.00,-3.00,+5.00,+14.00,+27.00,+7.00,+1.00
+0.00,-21.00,-7.00,-2.00,-3.00,-33.00,+10.00,+0.00,-3.00,-2.00,+0.00,-6.00,-11.00,-34.00,-4.00,-4.00
-9.00,+23.00,+6.00,+1.00,+5.00,+52.00,+40.00,+0.00,-28.00,-50.00,-7.00,-1.00,-1.00,-5.00,-3.00,-15.00
+10.00,+42.00,+4.00,-2.00,+1.00,+3.00,-3.00,+1.00,+0.00,+44.00,+12.00,-4.00,-2.00,+9.00,+1.00,+5.00
+17.00,+16.00,-3.00,-1.00,+1.00,+3.00,+7.00,+2.00,-2.00,-1.00,+0.00,+2.00,+14.00,+4.00,-1.00,+3.00
-9.00,-22.00,-1.00,-3.00,-4.00,-1.00,-13.00,+0.00,+4.00,+5.00,+0.00,+6.00,-4.00,-8.00,+1.00,+2.00
-1.00,-3.00,-8.00,-4.00,+3.00,-16.00,-13.00,-3.00,-9.00,-22.00,-10.00,-4.00,-10.00,+8.00,+1.00,-7.00
-6.00,-27.00,-8.00,-5.00,-3.00,-3.00,+8.00,+1.00,+10.00,+8.00,+2.00,+3.00,-4.00,-7.00,-2.00,+8.00
-9.00,+5.00,+1.00,-2.00,+4.00,+5.00,-10.00,-6.00,-46.00,-49.00,-13.00,-9.00,-5.00,-19.00,+0.00,-7.00
+2.00,+6.00,-3.00,-3.00,-20.00,-6.00,+1.00,+0.00,+23.00,+2.00,-8.00,-2.00,+6.00,+44.00,+7.00,+12.00
-11.00,-27.00,-3.00,+1.00,+13.00,-2.00,-3.00,-2.00,+17.00,+62.00,+30.00,+13.00,+23.00,+6.00,-2.00,+3.00
+0.00,+34.00,+1.00,+0.00,-5.00,+0.00,-6.00,+0.00,-7.00,-4.00,-5.00,-7.00,-15.00,+0.00,-2.00,-9.00
-23.00,-65.00,-4.00,+3.00,+1.00,-5.00,-6.00,-10.00,+9.00,+5.00,-4.00,+2.00,+10.00,+13.00,+4.00,+6.00
+21.00,+81.00,+11.00,+0.00,+4.00,+11.00,+13.00,+7.00,-12.00,-39.00,-13.00,-4.00,-11.00,-30.00,-8.00,+3.00
+0.00,-8.00,+3.00,+0.00,-2.00,-11.00,-14.00,-2.00,+21.00,+57.00,+10.00,+1.00,+4.00,-16.00,-11.00,-10.00
-6.00,+19.00,+0.00,+3.00,+1.00,-5.00,-2.00,-3.00,-17.00,-48.00,-7.00,-9.00,-16.00,-18.00,-8.00,-2.00
-13.00,-48.00,-13.00,-5.00,-2.00,-1.00,+3.00,-7.00,-4.00,+16.00,+4.00,+1.00,-5.00,+6.00,-3.00,-4.00
-11.00,+34.00,+2.00,-2.00,+1.00,-31.00,-14.00,-8.00,-14.00,-28.00,-6.00,+4.00,+11.00,-27.00,-1.00,-6.00
+18.00,-4.00,-1.00,+0.00,-2.00,+16.00,+12.00,+11.00,-3.00,-15.00,-4.00,-1.00,+2.00,+49.00,+11.00,+4.00
+0.00,-42.00,-9.00,-1.00,+6.00,-1.00,+6.00,+2.00,+18.00,+22.00,+3.00,+2.00,+7.00,+4.00,+4.00,+7.00
+7.00,+0.00,+5.00,+3.00,+0.00,+10.00,+0.00,+0.00,-8.00,-18.00,-10.00,-3.00,-7.00,+8.00,-1.00,-5.00
-14.00,-21.00,-2.00,-2.00,+9.00,-3.00,-14.00,-7.00,-19.00,-20.00,+0.00,+3.00,+7.00,-5.00,-3.00,-13.00
+12.00,+72.00,+4.00,-2.00,-22.00,-11.00,+3.00,+0.00,+12.00,+26.00,+8.00,+13.00,+29.00,-21.00,+9.00,+24.00
-8.00,-8.00,-3.00,-2.00,-7.00,-12.00,-19.00,-9.00,-12.00,-19.00,-16.00,-15.00,-45.00,-4.00,-5.00,-17.00
-21.00,-14.00,-13.00,-5.00,+2.00,-2.00,+6.00,-6.00,+46.00,+3.00,-1.00,-5.00,-15.00,+21.00,+14.00,+14.00
+8.00,+5.00,+5.00,-1.00,+5.00,+12.00,-11.00,+0.00,-46.00,+31.00,+1.00,-4.00,-1.00,-33.00,-17.00,-15.00
+12.00,-11.00,+2.00,+0.00,+4.00,-11.00,-8.00,+8.00,+24.00,+6.00,+7.00,+0.00,-8.00,+2.00,-3.00,+24.00
-3.00,+4.00,+11.00,+1.00,-9.00,+4.00,+10.00,-1.00,-21.00,-41.00,-16.00,+7.00,+17.00,+0.00,-3.00,-14.00
-2.00,+1.00,-10.00,-7.00,-4.00,-6.00,-4.00,-1.00,+17.00,+28.00,+10.00,-2.00,-2.00,-37.00,-12.00,+4.00
-30.00,-87.00,-12.00,-3.00,+6.00,+0.00,-10.00,-15.00,+7.00,-38.00,-10.00,+6.00,+6.00,+60.00,+11.00,-12.00
+8.00,+56.00,+3.00,+0.00,+0.00,+17.00,+25.00,+5.00,-47.00,-43.00,-16.00,-26.00,-31.00,-23.00,-8.00,-21.00
+21.00,+11.00,+10.00,+2.00,-2.00,-3.00,+6.00,+12.00,+20.00,+64.00,+12.00,+5.00,+26.00,+5.00,+7.00,+1.00
+20.00,+34.00,+9.00,+1.00,-1.00,-21.00,-13.00,+8.00,+27.00,+14.00,-5.00,-8.00,-21.00,+3.00,-13.00,+12.00
-3.00,-11.00,-1.00,+2.00,+16.00,+39.00,+17.00,-4.00,-5.00,-4.00,-2.00,-3.00,+2.00,-10.00,+5.00,+3.00
-17.00,-54.00,-12.00,-6.00,-39.00,-19.00,-38.00,-10.00,-45.00,-59.00,-16.00,+9.00,+26.00,+20.00,+13.00,-20.00
-2.00,-3.00,-12.00,-5.00,-1.00,-4.00,-5.00,-6.00,+17.00,-42.00,-17.00,-9.00,-17.00,-36.00,-28.00,-18.00
+16.00,+16.00,+6.00,+0.00,-6.00,+4.00,+6.00,+6.00,-13.00,+40.00,+18.00,-9.00,-13.00,-22.00,-7.00,+8.00
-7.00,-7.00,-9.00,-2.00,+3.00,-2.00,-2.00,-7.00,+3.00,+26.00,+9.00,+1.00,-15.00,+5.00,-2.00,+4.00
+6.00,+32.00,+7.00,+1.00,+7.00,-4.00,-1.00,-1.00,+21.00,+16.00,-3.00,-5.00,+10.00,+29.00,+3.00,+15.00
-9.00,-46.00,-11.00,-1.00,+1.00,-9.00,-27.00,-7.00,-6.00,-25.00,-5.00,+1.00,-5.00,-4.00,+4.00,+2.00
-21.00,+51.00,-6.00,-5.00,-6.00,+18.00,+43.00,+2.00,-32.00,-34.00,-11.00,+3.00,+17.00,+19.00,+1.00,-20.00
+64.00,+77.00,+20.00,+8.00,+1.00,-3.00,+20.00,+23.00,+37.00,+7.00,-4.00,-5.00,-1.00,-15.00,-3.00,+9.00
-4.00,+11.00,+0.00,-2.00,+10.00,-4.00,-2.00,-6.00,+2.00,+35.00,+6.00,+4.00,+16.00,+2.00,+10.00,+0.00
-5.00,-63.00,+5.00,+1.00,+2.00,-5.00,-8.00,+0.00,+14.00,+13.00,-3.00,-4.00,-5.00,-19.00,-10.00,-5.00
+5.00,+7.00,-1.00,-3.00,-14.00,-4.00,-15.00,-4.00,-34.00,-45.00,-8.00,+4.00,+15.00,+9.00,+9.00,+7.00
-6.00,-25.00,-4.00,-8.00,-19.00,-1.00,+2.00,+1.00,+5.00,+45.00,+26.00,+7.00,-21.00,-7.00,-9.00,-30.00
-37.00,-8.00,-12.00,-3.00,+12.00,-2.00,+0.00,-17.00,-8.00,-20.00,-23.00,+0.00,-8.00,-57.00,-16.00,+25.00
-5.00,-18.00,-2.00,-2.00,+5.00,+15.00,-17.00,+3.00,-8.00,-22.00,-4.00,+3.00,+44.00,+75.00,+23.00,+14.00
+5.00,-66.00,-2.00,+1.00,+10.00,+19.00,+20.00,-4.00,+11.00,+1.00,+6.00,-16.00,-71.00,+3.00,-7.00,-11.00
+2.00,+75.00,+8.00,-1.00,-6.00,+3.00,+1.00,-6.00,+21.00,-27.00,-13.00,-2.00,+22.00,-9.00,+2.00,-1.00
+5.00,-39.00,-12.00,+2.00,+20.00,+21.00,-15.00,+6.00,-41.00,-47.00,-24.00,-17.00,-38.00,-9.00,-7.00,-17.00
-30.00,+65.00,-1.00,-3.00,-8.00,-30.00,+3.00,-9.00,-2.00,-3.00,+0.00,+8.00,+38.00,-3.00,+1.00,+4.00
+8.00,+22.00,+25.00,+6.00,-5.00,-22.00,+2.00,-3.00,-30.00,+17.00,+2.00,+25.00,+21.00,-9.00,+6.00,+2.00
+12.00,-4.00,-13.00,+0.00,-4.00,-3.00,+1.00,+8.00,+62.00,+56.00,+14.00,-9.00,-5.00,-8.00,+17.00,+36.00
+2.00,-23.00,-3.00,-4.00,-12.00,-7.00,-9.00,+1.00,+20.00,+31.00,+4.00,-10.00,-37.00,-10.00,-22.00,-14.00
+11.00,+91.00,+9.00,-1.00,+2.00,+13.00,+8.00,-6.00,-16.00,-22.00,+3.00,-3.00,+25.00,-4.00,+5.00,+23.00
-10.00,-75.00,-12.00,-4.00,-20.00,-15.00,-19.00,+3.00,-3.00,-36.00,-4.00,+3.00,+7.00,+27.00,+6.00,-21.00
-21.00,-11.00,-12.00,-8.00,-1.00,+2.00,+21.00,-4.00,+1.00,+49.00,-1.00,-8.00,-12.00,+7.00,-20.00,-12.00
+24.00,-25.00,+4.00,+1.00,+1.00,-15.00,-59.00,+5.00,-7.00,-32.00,-1.00,+7.00,+19.00,+5.00,+0.00,-5.00
+30.00,+25.00,+22.00,+12.00,+14.00,+23.00,+40.00,+17.00,-51.00,+0.00,+12.00,+8.00,-5.00,+6.00,+1.00,-22.00
-9.00,+32.00,-1.00,+5.00,+18.00,-8.00,-13.00,-14.00,+52.00,+42.00,+5.00,-9.00,-6.00,-23.00,-3.00,+17.00
-14.00,-49.00,-13.00,-6.00,-10.00,-4.00,-7.00,+0.00,-17.00,-31.00,-3.00,+15.00,+15.00,-9.00,-8.00,+6.00
-7.00,-63.00,-11.00,-6.00,-1.00,+1.00,+16.00,-3.00,+3.00,-39.00,-17.00,-8.00,+5.00,+14.00,+12.00,-7.00
+10.00,+36.00,-2.00,-3.00,-11.00,-3.00,+4.00,+5.00,-27.00,+18.00,-13.00,+2.00,-3.00,+2.00,+6.00,-19.00
-11.00,-37.00,-10.00,-2.00,-1.00,+16.00,-7.00,+11.00,+24.00,-2.00,+15.00,-13.00,-7.00,-24.00,-34.00,-7.00
+3.00,+17.00,+13.00,+4.00,+1.00,-14.00,-31.00,-9.00,-22.00,+13.00,+6.00,+3.00,-5.00,+9.00,+9.00,+3.00
+2.00,+64.00,+13.00,+3.00,-7.00,+11.00,+40.00,+2.00,-20.00,-18.00,-5.00,-5.00,-10.00,-6.00,-8.00,-13.00
-19.00,-70.00,-34.00,-14.00,+3.00,-21.00,-32.00,-11.00,+31.00,+29.00,+0.00,+2.00,+1.00,+9.00,+6.00,+7.00
+18.00,+42.00,+19.00,+8.00,+10.00,-6.00,+2.00,+12.00,+26.00,-30.00,-24.00,+1.00,+12.00,-6.00,+15.00,+16.00
+3.00,+4.00,-4.00,+2.00,+2.00,+17.00,+53.00,+1.00,-9.00,-18.00,-6.00,-4.00,-3.00,-24.00,+2.00,+5.00
-20.00,-49.00,-2.00,-2.00,+17.00,+1.00,+6.00,-3.00,-34.00,-62.00,+3.00,+9.00,+2.00,+32.00,-4.00,-15.00
+15.00,+29.00,+14.00,+6.00,+15.00,+5.00,+6.00,+6.00,+38.00,+24.00,+7.00,+7.00,+19.00,-13.00,+1.00,+6.00
+0.00,+16.00,-11.00,-3.00,-39.00,-1.00,-12.00,+1.00,-8.00,+49.00,+6.00,-1.00,-10.00,+38.00,-4.00,+18.00
-6.00,-45.00,+2.00,+1.00,+20.00,+53.00,+24.00,+6.00,-30.00,-54.00,-3.00,+7.00,+42.00,+12.00,-6.00,-13.00
+1.00,+88.00,+6.00,+2.00,+6.00,-8.00,-54.00,-2.00,+41.00,+42.00,-13.00,-21.00,-19.00,+31.00,+22.00,+24.00
-5.00,-32.00,-5.00,-5.00,-18.00,-14.00,+45.00,-9.00,+1.00,-5.00,-7.00,-9.00,-48.00,-33.00,-9.00,+14.00
+6.00,+10.00,+7.00,+4.00,-3.00,-7.00,-25.00,-7.00,-13.00,-52.00,-16.00,+7.00,+4.00,-35.00,-9.00,-11.00
-6.00,+14.00,+1.00,+2.00,+20.00,-3.00,+0.00,-1.00,-28.00,-19.00,-6.00,-2.00,+3.00,-10.00,+5.00,+8.00
+11.00,-55.00,-12.00,+0.00,-12.00,-20.00,+24.00,+15.00,+50.00,+35.00,+39.00,+27.00,+38.00,+43.00,+8.00,+34.00
-31.00,-49.00,-5.00,+1.00,+41.00,+18.00,-38.00,-21.00,+22.00,+44.00,-9.00,-12.00,-51.00,+14.00,-7.00,-8.00
-6.00,-4.00,+4.00,-6.00,-23.00,+2.00,+12.00,-7.00,+7.00,+31.00,+2.00,-11.00,-18.00,+15.00,+10.00,+20.00
+17.00,+81.00,+10.00,+2.00,-22.00,+3.00,+64.00,+13.00,+32.00,+13.00,-10.00,-11.00,-2.00,-37.00,-6.00,-9.00
-34.00,-82.00,-16.00,-6.00,+19.00,+33.00,+18.00,-13.00,-24.00,-25.00,+4.00,-2.00,+45.00,+1.00,+9.00,-5.00
+21.00,+65.00,+20.00,+9.00,-38.00,-5.00,-7.00,+8.00,+8.00,-24.00,+15.00,+10.00,+25.00,+47.00,+12.00,+6.00
+5.00,-49.00,-11.00,-1.00,+22.00,+1.00,+3.00,+10.00,-8.00,+15.00,+3.00,-21.00,-57.00,-1.00,-42.00,-42.00
-36.00,-65.00,-20.00,-6.00,+10.00,-16.00,-82.00,-31.00,-51.00,-33.00,-23.00,-5.00,-23.00,+6.00,+39.00,+14.00
+1.00,+52.00,+16.00,+2.00,+8.00,-5.00,+17.00,+3.00,+52.00,-13.00,-20.00,-2.00,-17.00,-61.00,+3.00,+23.00
-21.00,-35.00,-8.00,-3.00,-17.00,-19.00,-61.00,-13.00,-68.00,+33.00,+15.00,+17.00,+44.00,-47.00,-57.00,-29.00
+9.00,+110.00,+21.00,+10.00,+23.00,+22.00,+76.00,+14.00,-10.00,-17.00,-17.00,-23.00,-15.00,-12.00,+15.00,-5.00
+10.00,-64.00,-19.00,-10.00,-26.00,+4.00,-16.00,+11.00,+8.00,-23.00,-1.00,-12.00,-41.00,+3.00,-15.00,-21.00
+10.00,+15.00,+25.00,+11.00,+21.00,-14.00,+16.00,+6.00,-15.00,+33.00,-4.00,+5.00,+29.00,+46.00,+7.00,-4.00
-16.00,+7.00,-11.00,-6.00,-22.00,-23.00,-43.00,-30.00,-26.00,-33.00,-4.00,-17.00,-6.00,+6.00,+7.00,+1.00
+9.00,+13.00,+7.00,-2.00,-3.00,-11.00,+10.00,+14.00,+34.00,-5.00,+29.00,+40.00,+41.00,+3.00,+10.00,+36.00
+14.00,+24.00,+12.00,+5.00,-5.00,-11.00,-13.00,-10.00,+4.00,+2.00,-15.00,-25.00,-48.00,+6.00,-6.00,-33.00
+15.00,-67.00,-20.00,-6.00,+6.00,+28.00,-12.00,+7.00,-44.00,+22.00,+8.00,+1.00,-13.00,+3.00,-20.00,-24.00
-3.00,+58.00,+0.00,-2.00,-5.00,-33.00,-14.00,+7.00,+23.00,+21.00,+19.00,+11.00,+8.00,+2.00,+9.00,+30.00
-21.00,-44.00,-15.00,-6.00,-11.00,-10.00,-28.00,-13.00,-40.00,-15.00,-12.00,-4.00,+24.00,+25.00,-10.00,-50.00
-12.00,-41.00,-4.00,+5.00,+2.00,-3.00,+22.00,+13.00,+46.00,+15.00,-8.00,+6.00,+4.00,+0.00,+11.00,+47.00
+41.00,+40.00,+8.00,-12.00,-33.00,-36.00,-46.00,-12.00,+1.00,+4.00,+20.00,+3.00,-20.00,-31.00,+3.00,+22.00
-32.00,-57.00,-17.00,-3.00,+22.00,+34.00,+61.00,+24.00,-45.00,-64.00,-28.00,-11.00,-18.00,-7.00,-5.00,-47.00
-16.00,-3.00,-18.00,-6.00,-6.00,-8.00,-52.00,-15.00,+63.00,+83.00,+24.00,+11.00,+19.00,-1.00,+18.00,+29.00
+4.00,+40.00,+12.00,-1.00,-6.00,-15.00,+42.00,+11.00,-46.00,-21.00,-4.00,+2.00,+13.00,+2.00,-18.00,-20.00
-2.00,+25.00,+10.00,+2.00,-3.00,+0.00,+12.00,-10.00,+6.00,-35.00,+2.00,+0.00,+24.00,+75.00,+14.00,-19.00
-41.00,-13.00,-15.00,-8.00,+10.00,+13.00,+1.00,-49.00,+63.00,+106.00,+21.00,-14.00,-50.00,-78.00,-12.00,+44.00
+100.00,+51.00,+10.00,+1.00,+4.00,-2.00,-8.00,+35.00,-69.00,-102.00,-18.00,+0.00,-6.00,+0.00,-5.00,-32.00
-77.00,-126.00,-15.00,-2.00,-2.00,-9.00,-29.00,-12.00,+6.00,+93.00,+30.00,+15.00,+21.00,-6.00,-18.00,-44.00
+16.00,+96.00,+4.00,-2.00,-4.00,-33.00,+8.00,-7.00,+7.00,+22.00,+13.00,-16.00,-56.00,-30.00,-18.00,-19.00
+19.00,+1.00,+6.00,+0.00,-10.00,+0.00,-12.00,+21.00,-30.00,-51.00,-4.00,-1.00,+9.00,+19.00,+28.00,+2.00
-64.00,-23.00,-3.00,+2.00,+27.00,+44.00,+81.00,-19.00,+10.00,+15.00,-9.00,+3.00,+20.00,-9.00,+1.00,+12.00
+76.00,+64.00,+14.00,+3.00,-4.00,-3.00,-26.00,-1.00,+12.00,+19.00,+6.00,+4.00,+5.00,-34.00,-30.00,-16.00
+6.00,-78.00,-9.00,+4.00,+6.00,-1.00,+42.00,+24.00,-10.00,+3.00,-3.00,+7.00,+19.00,+43.00,+14.00,+25.00
+36.00,+31.00,+2.00,-5.00,-4.00,+2.00,-42.00,-15.00,+10.00,-45.00,+5.00,+15.00,+24.00,+23.00,+9.00,+0.00
+16.00,-66.00,-5.00,-1.00,-2.00,+3.00,-38.00,-5.00,+20.00,+65.00,-7.00,-19.00,-51.00,-58.00,-6.00,+8.00
-30.00,-69.00,+0.00,-3.00,-1.00,-32.00,-2.00,-29.00,-74.00,-114.00,-8.00,-4.00,+1.00,+26.00,+2.00,-12.00
+14.00,+75.00,-9.00,-7.00,-42.00,+2.00,+29.00,+14.00,+26.00,+61.00,+15.00,+11.00,-3.00,-26.00,-4.00,+7.00
-6.00,-37.00,+5.00,+1.00,+15.00,+1.00,+23.00,+7.00,+33.00,+16.00,-5.00,-17.00,-4.00,+0.00,-5.00,-14.00
-14.00,+14.00,+9.00,+6.00,+2.00,-7.00,-5.00,+3.00,-38.00,+10.00,+6.00,+3.00,+13.00,+25.00,-2.00,-41.00
-16.00,-8.00,-15.00,-8.00,+12.00,+11.00,-31.00,-22.00,+4.00,-38.00,-38.00,-23.00,-40.00,-12.00,+5.00,+22.00
-10.00,-43.00,-3.00,-4.00,-6.00,+12.00,-25.00,-9.00,+37.00,+35.00,+2.00,-1.00,-17.00,-87.00,-27.00,-11.00
+11.00,-96.00,-7.00,+3.00,+4.00,+6.00,+14.00,-2.00,-17.00,-42.00,-3.00,-1.00,+14.00,+49.00,+6.00,+6.00
-2.00,-65.00,+2.00,-3.00,+2.00,+1.00,-23.00,+4.00,-80.00,-42.00,-29.00,-9.00,+20.00,-7.00,-3.00,-16.00
+28.00,+43.00,+1.00,+2.00,+6.00,+0.00,+15.00,+32.00,+109.00,+4.00,+14.00,+4.00,+13.00,+22.00,-13.00,+27.00
-23.00,-27.00,-2.00,-5.00,-3.00,-28.00,-60.00,-19.00,-55.00,-33.00,-11.00,-6.00,-20.00,-6.00,+4.00,-21.00
-17.00,-15.00,-4.00,-4.00,+4.00,+15.00,-6.00,+3.00,+18.00,+15.00,-7.00,-7.00,-7.00,-29.00,+0.00,+7.00
-12.00,-33.00,-7.00,+0.00,+4.00,+0.00,-25.00,-4.00,+5.00,-33.00,+0.00,+6.00,+14.00,+31.00,+9.00,+13.00
+21.00,+45.00,+8.00,-3.00,-25.00,-16.00,+6.00,+26.00,-27.00,+11.00,+8.00,-5.00,-5.00,+3.00,-2.00,-17.00
-27.00,+24.00,+3.00,+5.00,+23.00,+14.00,+3.00,-10.00,+27.00,-6.00,-11.00,+6.00,+27.00,-31.00,+20.00,+60.00
+58.00,-6.00,+5.00,+3.00,-21.00,-4.00,-3.00,+29.00,-44.00,-16.00,-5.00,+6.00,-16.00,+32.00,-2.00,-44.00
+3.00,+24.00,+1.00,-1.00,+20.00,+19.00,+19.00,-19.00,+53.00,-12.00,-9.00,-14.00,-25.00,+0.00,-9.00,+9.00
-37.00,-114.00,-28.00,-8.00,-1.00,+2.00,-21.00,-10.00,+29.00,+47.00,+5.00,+2.00,+8.00,-16.00,+8.00,+7.00
+12.00,+74.00,-3.00,-6.00,-8.00,+14.00,-6.00,+10.00,-29.00,+32.00,+22.00,-13.00,-26.00,+10.00,-4.00,-41.00
-24.00,-9.00,+15.00,+9.00,+6.00,-29.00,+2.00,+0.00,+6.00,-15.00,-22.00,-24.00,-35.00,-22.00,-15.00,+15.00
+68.00,-3.00,-7.00,-2.00,-7.00,-18.00,+45.00,+23.00,-35.00,+23.00,+5.00,+3.00,+23.00,+58.00,+10.00,-20.00
+3.00,+56.00,+14.00,+3.00,-4.00,+3.00,-2.00,+9.00,-25.00,-28.00,+1.00,+14.00,+14.00,-43.00,-13.00,+14.00
-33.00,-60.00,-15.00,-6.00,-4.00,-5.00,+3.00,-23.00,+23.00,-6.00,+0.00,-1.00,+13.00,-20.00,-16.00,-23.00
-17.00,-25.00,-19.00,-6.00,-6.00,+9.00,-19.00,+3.00,+31.00,+22.00,+22.00,+7.00,-2.00,-3.00,-2.00,+4.00
-27.00,+11.00,-6.00,-9.00,-5.00,-3.00,+11.00,-15.00,-23.00,-5.00,-10.00,-6.00,-6.00,-15.00,-9.00,-13.00
+0.00,-33.00,+3.00,+7.00,+34.00,+17.00,-5.00,-10.00,+26.00,+23.00,+0.00,-7.00,-13.00,+62.00,+18.00,+26.00
-2.00,-55.00,+9.00,+6.00,-10.00,+8.00,+16.00,+16.00,-43.00,-62.00,-27.00,+12.00,+4.00,+9.00,+8.00,+19.00
+23.00,+20.00,+6.00,-2.00,-17.00,-24.00,-13.00,-10.00,-40.00,-84.00,-8.00,+1.00,-4.00,-51.00,-6.00,-22.00
-7.00,-14.00,-5.00,-5.00,-8.00,-10.00,-31.00,-42.00,+74.00,+80.00,+35.00,+22.00,+49.00,+46.00,+23.00,+46.00
+19.00,+75.00,+5.00,+0.00,+8.00,+26.00,+26.00,+5.00,-54.00,+29.00,+6.00,-4.00,-11.00,-6.00,-2.00,-1.00
-55.00,-83.00,-32.00,-14.00,+3.00,-6.00,-3.00,-24.00,+45.00,+30.00,+1.00,-6.00,-15.00,-32.00,-7.00,-1.00
-5.00,-49.00,+12.00,+9.00,-10.00,+20.00,+36.00,+21.00,-46.00,+1.00,+1.00,+7.00,+18.00,+10.00,-9.00,-6.00
+19.00,+45.00,+9.00,+5.00,+14.00,+7.00,-14.00,+4.00,+45.00,-2.00,-1.00,-2.00,+26.00,+22.00,-3.00,-6.00
-8.00,+51.00,+14.00,+3.00,-18.00,-36.00,-13.00,-12.00,-42.00,-43.00,+3.00,-12.00,-62.00,-39.00,-19.00,+7.00
-7.00,-39.00,-15.00,-5.00,-4.00,+22.00,+23.00,+13.00,-5.00,+27.00,+6.00,-12.00,-25.00,-31.00,-23.00,-14.00
+13.00,+69.00,+10.00,-1.00,+7.00,+1.00,-48.00,-7.00,+12.00,+1.00,-18.00,-10.00,+5.00,+1.00,+10.00,-13.00
-38.00,-62.00,-10.00,-2.00,-11.00,-50.00,+63.00,-5.00,-42.00,-31.00,-1.00,+0.00,-18.00,-24.00,-1.00,-1.00
+1.00,-15.00,+4.00,+2.00,-4.00,+4.00,-7.00,+4.00,+18.00,+20.00,+2.00,+4.00,+19.00,+36.00,+8.00,-19.00
-32.00,-52.00,-9.00,-8.00,-34.00,-22.00,-64.00,-21.00,-23.00,-25.00,+20.00,+9.00,+11.00,+19.00,+3.00,+14.00
+15.00,+54.00,-5.00,-5.00,+28.00,+27.00,+55.00,+17.00,+42.00,+22.00,-3.00,-10.00,-13.00,-48.00,-15.00,+7.00
-11.00,+4.00,+9.00,-1.00,-14.00,-6.00,-43.00,+10.00,-5.00,-2.00,+7.00,+3.00,+2.00,+56.00,+1.00,-1.00
+47.00,+77.00,+11.00,+4.00,+11.00,+3.00,+11.00,+12.00,+3.00,+5.00,-3.00,+0.00,+13.00,-8.00,+14.00,+8.00
+0.00,-26.00,-6.00,+1.00,+12.00,-10.00,-13.00,+1.00,+17.00,+17.00,-5.00,-2.00,-7.00,-2.00,-6.00,-10.00
-5.00,-68.00,-7.00,+5.00,+5.00,+11.00,+28.00,-2.00,-1.00,-9.00,+9.00,+15.00,+37.00,+13.00,+7.00,+12.00
+10.00,+21.00,+6.00,-6.00,-1.00,+0.00,-8.00,-3.00,+13.00,+26.00,+7.00,-5.00,-35.00,-33.00,-5.00,-11.00
-32.00,-47.00,-17.00,-8.00,-24.00,-17.00,-30.00,-5.00,+7.00,-14.00,-15.00,-3.00,+18.00,-1.00,+10.00,-6.00
+12.00,+43.00,+14.00,+7.00,+13.00,+12.00,+15.00,-5.00,+5.00,-27.00,-31.00,-16.00,-12.00,-6.00,-7.00,+12.00
-8.00,-27.00,-9.00,-1.00,-2.00,-2.00,+10.00,+11.00,-17.00,+67.00,+32.00,+5.00,-7.00,+30.00,+10.00,-5.00
+15.00,+8.00,-15.00,-1.00,-3.00,+3.00,+4.00,+12.00,+29.00,+13.00,+7.00,-2.00,+1.00,-50.00,-19.00,+11.00
+2.00,-30.00,-10.00,-7.00,-4.00,+0.00,-4.00,+4.00,-14.00,-60.00,-13.00,+6.00,+22.00,+17.00,+13.00,-1.00
+23.00,-29.00,+21.00,+10.00,+5.00,-22.00,-13.00,+6.00,-6.00,+27.00,+6.00,-3.00,+2.00,+7.00,+0.00,-7.00
-7.00,+92.00,+15.00,-4.00,+1.00,+10.00,+13.00,-20.00,+46.00,+6.00,-17.00,-3.00,+0.00,-34.00,-10.00,+4.00
-23.00,-20.00,-22.00,-2.00,-1.00,-9.00,-21.00,-3.00,-40.00,-11.00,+8.00,+11.00,+0.00,+44.00,+6.00,-3.00
-2.00,-89.00,-4.00,+1.00,+27.00,+19.00,+5.00,-19.00,+56.00,+29.00,+19.00,-4.00,-1.00,-8.00,+7.00,+23.00
+68.00,+104.00,+22.00,+5.00,-25.00,-12.00,+10.00,+24.00,+2.00,+35.00,+6.00,+0.00,-11.00,+43.00,+14.00,+13.00
-8.00,+10.00,-7.00,-2.00,+7.00,+8.00,-5.00,-5.00,-21.00,-8.00,-1.00,-10.00,-21.00,-26.00,-18.00,+7.00
-36.00,-40.00,-3.00,-4.00,-11.00,-11.00,+10.00,-7.00,-26.00,-61.00,-19.00,+3.00,+31.00,-12.00,+3.00,-1.00
-9.00,-7.00,+2.00,+1.00,+0.00,+7.00,-17.00,-7.00,+13.00,+18.00,+3.00,+7.00,+7.00,-6.00,-16.00,-16.00
-3.00,+70.00,+4.00,-1.00,-1.00,-5.00,+52.00,-3.00,-13.00,-33.00,+5.00,+2.00,-15.00,-22.00,+2.00,+16.00
+9.00,+7.00,+13.00,+4.00,-4.00,-9.00,-42.00,-3.00,-6.00,-16.00,-10.00,-4.00,-13.00,+23.00,+1.00,-24.00
-26.00,+3.00,-3.00,+0.00,+10.00,+19.00,-15.00,-35.00,+7.00,+32.00,+6.00,+8.00,+10.00,-4.00,+15.00,+22.00
-14.00,-26.00,-13.00,-6.00,-18.00,-30.00,-14.00,+8.00,-3.00,+19.00,+1.00,-2.00,+2.00,-12.00,+10.00,+4.00
+3.00,-65.00,-2.00,+0.00,+15.00,+45.00,+66.00,+12.00,-19.00,-24.00,-15.00,-6.00,+9.00,+19.00,-4.00,-22.00
-1.00,+70.00,+1.00,+1.00,-11.00,-2.00,+9.00,-11.00,-12.00,-31.00,+6.00,+16.00,+22.00,+24.00,+0.00,-11.00
+20.00,+1.00,-3.00,-3.00,+6.00,-10.00,-18.00,+8.00,+4.00,+6.00,-14.00,-8.00,-17.00,-18.00,-4.00,+18.00
+27.00,+38.00,+15.00,+9.00,-2.00,-1.00,+21.00,+15.00,+8.00,+0.00,+3.00,-4.00,-2.00,+4.00,+7.00,-5.00
-36.00,-36.00,-8.00,-2.00,+4.00,-8.00,-28.00,-9.00,-5.00,+42.00,+1.00,-5.00,+6.00,-21.00,-12.00,-40.00
+8.00,-79.00,-15.00,-5.00,+2.00,-20.00,-15.00,+0.00,-36.00,-72.00,-14.00,-2.00,-29.00,+38.00,+6.00,+29.00
+29.00,-16.00,+9.00,+2.00,-10.00,+23.00,+10.00,+2.00,+9.00,-4.00,+15.00,+9.00,+8.00,-36.00,+1.00,-1.00
-28.00,+45.00,+11.00,+0.00,+5.00,-10.00,+0.00,-12.00,-17.00,-16.00,-13.00,-12.00,-24.00,-7.00,-7.00,-18.00
-7.00,-43.00,-5.00,-1.00,-10.00,-3.00,-11.00,-1.00,-11.00,-35.00,-9.00,+5.00,+25.00,+2.00,-7.00,-13.00
-19.00,-16.00,-13.00,-7.00,-16.00,-9.00,+7.00,+12.00,+30.00,+97.00,+25.00,+7.00,+5.00,+16.00,-1.00,+13.00
+32.00,-5.00,+22.00,+4.00,+2.00,-7.00,-6.00,+8.00,-9.00,-37.00,-23.00,-6.00,-30.00,-7.00,-6.00,-34.00
+4.00,-20.00,-17.00,+0.00,+4.00,+31.00,+32.00,+14.00,+18.00,-10.00,-1.00,+4.00,+20.00,-24.00,+8.00,+36.00
+10.00,-1.00,-11.00,-6.00,-4.00,-19.00,-13.00,-9.00,-9.00,-6.00,-21.00,-12.00,-8.00,+39.00,+1.00,-11.00
+1.00,+23.00,+2.00,-1.00,+10.00,+32.00,+32.00,+25.00,-20.00,-7.00,+1.00,-2.00,+8.00,-5.00,+6.00,-11.00
-40.00,+48.00,-8.00,-1.00,-5.00,-7.00,-12.00,-17.00,+18.00,+5.00,+14.00,+0.00,-2.00,+5.00,-7.00,-5.00
-5.00,-42.00,-8.00,-6.00,-6.00,-7.00,-16.00,+3.00,-52.00,-52.00,-23.00,+11.00,+32.00,+63.00,+17.00,-13.00
-6.00,+16.00,+14.00,+9.00,+22.00,+27.00,+5.00,-2.00,+27.00,+64.00,+28.00,+1.00,-25.00,-81.00,-26.00,+19.00
+8.00,-20.00,-1.00,-6.00,-3.00,-8.00,-3.00,-12.00,+3.00,+18.00,-9.00,+0.00,-9.00,-14.00,-6.00,+8.00
+8.00,+28.00,+2.00,-2.00,-12.00,-20.00,+0.00,+18.00,-6.00,-50.00,-16.00,-8.00,-12.00,-5.00,+2.00,-4.00
-18.00,-20.00,-17.00,-6.00,+22.00,+15.00,-5.00,-13.00,-18.00,-19.00,+4.00,-5.00,-19.00,-29.00,-13.00,-23.00
-7.00,-35.00,+10.00,-1.00,-36.00,-21.00,+24.00,+0.00,-2.00,-10.00,+6.00,+4.00,+11.00,+47.00,+15.00,+4.00
+14.00,+30.00,+2.00,+4.00,+14.00,+31.00,-7.00,+7.00,+26.00,+35.00,+1.00,+3.00,+11.00,-12.00,-3.00,+15.00
+4.00,-3.00,+9.00,+5.00,+15.00,+10.00,+10.00,+2.00,-14.00,-33.00,-7.00,-8.00,-11.00,+12.00,-1.00,-23.00
+3.00,-2.00,+3.00,-1.00,-26.00,-19.00,-6.00,+7.00,-22.00,+15.00,-1.00,-2.00,-3.00,+33.00,-6.00,-5.00
+21.00,-12.00,-1.00,-3.00,+9.00,+21.00,-10.00,-43.00,-18.00,-44.00,-10.00,+4.00,+7.00,-10.00,-5.00,-11.00
+2.00,+45.00,-7.00,-3.00,-4.00,-23.00,-10.00,-3.00,-4.00,+67.00,+22.00,-6.00,-11.00,-15.00,+3.00,-18.00
-38.00,-26.00,-9.00,-4.00,+2.00,+5.00,+16.00,+1.00,+1.00,-5.00,-17.00,-7.00,+4.00,-1.00,+5.00,+7.00
+22.00,-43.00,+3.00,+5.00,+2.00,+4.00,-6.00,+16.00,+29.00,+35.00,+15.00,+14.00,+21.00,-26.00,+5.00,+9.00
+37.00,+80.00,+12.00,+4.00,+9.00,-7.00,+7.00,+10.00,-24.00,-44.00,-18.00,-15.00,-21.00,-12.00,-25.00,-21.00
+1.00,-15.00,-3.00,-4.00,-4.00,-6.00,-4.00,-23.00,-4.00,-30.00,-25.00,-11.00,+5.00,+0.00,+5.00,-11.00
-5.00,-36.00,-17.00,+0.00,-1.00,+8.00,-16.00,+0.00,+9.00,+45.00,+5.00,+1.00,+11.00,-7.00,-3.00,+5.00
-5.00,+53.00,+21.00,-1.00,-11.00,-19.00,-2.00,-12.00,-12.00,-1.00,+4.00,+0.00,-10.00,+13.00,+2.00,+2.00
-5.00,+44.00,+0.00,+4.00,+12.00,+0.00,-9.00,+9.00,+8.00,-1.00,+3.00,+9.00,+3.00,-43.00,+8.00,-5.00
+12.00,-27.00,+6.00,-2.00,-16.00,-16.00,+32.00,+7.00,-5.00,-23.00,-10.00,-3.00,-3.00,+51.00,+6.00,+20.00
-5.00,+7.00,-1.00,-5.00,+2.00,+20.00,-14.00,-2.00,+7.00,-16.00,+2.00,-3.00,-12.00,+4.00,+8.00,+17.00
-14.00,-16.00,-12.00,-6.00,-7.00,-3.00,-2.00,-13.00,+19.00,+5.00,-1.00,-9.00,-4.00,-7.00,-10.00,-2.00
-5.00,+0.00,+0.00,-1.00,+0.00,-6.00,-21.00,+6.00,-7.00,-12.00,-3.00,+10.00,+15.00,+12.00,+15.00,+19.00
+13.00,+48.00,-2.00,-4.00,+6.00,-3.00,+37.00,+8.00,+29.00,+10.00,-1.00,-7.00,-8.00,-23.00,-1.00,+5.00
-4.00,-49.00,+3.00,+2.00,-2.00,-5.00,+13.00,+7.00,+14.00,+23.00,+5.00,+7.00,+15.00,+5.00,+3.00,-6.00
+9.00,+8.00,+2.00,+2.00,-6.00,-3.00,-16.00,-9.00,-32.00,-10.00,-5.00,+3.00,+3.00,-2.00,-4.00,+3.00
-5.00,+31.00,-2.00,-4.00,+4.00,+1.00,-12.00,+3.00,+37.00,+5.00,+18.00,+6.00,+18.00,-3.00,-7.00,+19.00
-34.00,+0.00,+4.00,+5.00,+13.00,+3.00,+7.00,-13.00,-20.00,+4.00,-1.00,-1.00,-36.00,+0.00,+1.00,-8.00
+4.00,+46.00,+7.00,-1.00,-25.00,-9.00,-28.00,+8.00,+9.00,+5.00,+8.00,+5.00,+18.00,+0.00,-7.00,-13.00
+18.00,+2.00,-8.00,-4.00,+11.00,-4.00,-31.00,-24.00,-18.00,+8.00,-7.00,-12.00,-21.00,-47.00,-1.00,+4.00
-17.00,-15.00,+6.00,+2.00,+2.00,+16.00,+22.00,+12.00,+42.00,-30.00,-12.00,+5.00,+23.00,+55.00,+8.00,+6.00
-6.00,-66.00,-4.00,+4.00,-2.00,-13.00,-6.00,+8.00,+23.00,+50.00,+9.00,-4.00,+12.00,-5.00,-12.00,+2.00
-11.00,+7.00,+0.00,-2.00,+4.00,-15.00,+4.00,-16.00,-46.00,-32.00,-3.00,-8.00,-27.00,-18.00,-18.00,-17.00
+4.00,+1.00,-15.00,-4.00,-8.00,-7.00,+9.00,-7.00,+16.00,+48.00,+4.00,+0.00,-10.00,-3.00,+3.00,+22.00
-3.00,+7.00,-3.00,-7.00,-3.00,-13.00,-22.00,-11.00,-13.00,-5.00,-2.00,+4.00,+10.00,+5.00,+14.00,+7.00
-22.00,-54.00,+12.00,+7.00,+8.00,-6.00,-67.00,+1.00,-14.00,-36.00,-5.00,+0.00,+6.00,+17.00,+7.00,+4.00
-5.00,+14.00,-2.00,+0.00,-13.00,+11.00,+72.00,+5.00,+24.00,+6.00,-17.00,+0.00,-1.00,-24.00,+16.00,+24.00
-18.00,-70.00,-14.00,-9.00,+2.00,-5.00,-3.00,-1.00,-23.00,+4.00,+27.00,+9.00,+17.00,+7.00,-30.00,-24.00
+28.00,+76.00,+20.00,+9.00,+13.00,+11.00,+4.00,+8.00,-17.00,-3.00,+1.00,-3.00,-19.00,-7.00,+2.00,+8.00
-13.00,-38.00,-11.00,-5.00,+23.00,+2.00,+0.00,-16.00,+1.00,-22.00,-12.00,+0.00,+10.00,-5.00,+7.00,-7.00
-20.00,+46.00,-4.00,-6.00,-33.00,-11.00,-47.00,-12.00,-7.00,+15.00,+3.00,-11.00,-23.00,-9.00,-8.00,+6.00
-11.00,+41.00,+12.00,+3.00,+4.00,-21.00,+26.00,-16.00,+39.00,-10.00,-7.00,+2.00,+7.00,-17.00,-2.00,+5.00
+10.00,-91.00,-4.00,-2.00,-13.00,-16.00,+20.00,+32.00,+1.00,+42.00,+4.00,+6.00,+11.00,+49.00,-1.00,-28.00
-6.00,+8.00,+4.00,+3.00,+8.00,+28.00,-6.00,-9.00,-34.00,-37.00,-5.00,-13.00,-35.00,-14.00,+0.00,-6.00
-11.00,-31.00,-9.00,-4.00,-1.00,-12.00,-9.00,+8.00,+4.00,-1.00,+8.00,-3.00,+2.00,+6.00,-6.00,+2.00
+2.00,+73.00,+4.00,-4.00,-4.00,-4.00,+0.00,-4.00,+42.00,+14.00,+7.00,+3.00,+12.00,+4.00,+8.00,+21.00
-19.00,+11.00,-6.00,-3.00,+0.00,+4.00,+2.00,-11.00,-43.00,-30.00,-7.00,-10.00,-18.00,-32.00,-13.00,-25.00
+50.00,-17.00,+2.00,+2.00,-14.00,-9.00,+11.00,+4.00,+17.00,-7.00,+7.00,+24.00,+36.00,+39.00,+29.00,+38.00
-27.00,-50.00,-12.00,-4.00,+15.00,+7.00,-19.00,-12.00,-8.00,-7.00,-3.00,-11.00,+1.00,-27.00,-12.00,-9.00
-3.00,-30.00,-3.00,+0.00,-6.00,+8.00,+12.00,+17.00,-10.00,+15.00,-5.00,-8.00,-19.00,+7.00,-9.00,-14.00
+12.00,+60.00,-2.00,+2.00,+0.00,-5.00,-5.00,-1.00,-7.00,+33.00,+10.00,-7.00,-14.00,-21.00,+8.00,+11.00
+3.00,-1.00,-1.00,-3.00,-7.00,+6.00,+2.00,+7.00,+33.00,+18.00,+7.00,+11.00,+17.00,+0.00,+3.00,+8.00
+10.00,+21.00,+15.00,+10.00,+17.00,-3.00,-8.00,-3.00,-16.00,-12.00,-3.00,+10.00,+32.00,+20.00,+11.00,-9.00
+3.00,-14.00,-11.00,-4.00,+16.00,+47.00,+2.00,+9.00,-10.00,-11.00,-18.00,-18.00,-46.00,+27.00,-9.00,-8.00
-20.00,-96.00,+2.00,+2.00,-10.00,-16.00,-1.00,-7.00,-12.00,-26.00,-14.00,-9.00,-25.00,-8.00,-2.00,-7.00
-11.00,+67.00,-8.00,-6.00,-14.00,-11.00,+26.00,-30.00,-18.00,-40.00,-5.00,-3.00,+9.00,-26.00,-17.00,-26.00
+44.00,+41.00,+15.00,+5.00,+28.00,+8.00,-44.00,+5.00,-10.00,+22.00,-2.00,+2.00,+0.00,+5.00,-4.00,-7.00
+11.00,-37.00,+1.00,+4.00,-20.00,-17.00,+6.00,+24.00,-28.00,-26.00,-4.00,+1.00,+24.00,+75.00,+36.00,-8.00
-23.00,+3.00,-13.00,-10.00,+6.00,+2.00,-37.00,-11.00,+19.00,+12.00,+9.00,-3.00,-12.00,-82.00,-27.00,+5.00
-25.00,-14.00,-3.00,-5.00,-12.00,-5.00,+45.00,-5.00,+30.00,+24.00,-2.00,+1.00,+15.00,+58.00,+10.00,+19.00
-4.00,-88.00,-12.00,-8.00,-1.00,-11.00,+3.00,-8.00,+1.00,-36.00,-17.00,-12.00,-23.00,+9.00,-12.00,-11.00
+21.00,+125.00,+17.00,+7.00,+5.00,+6.00,+32.00,+21.00,-13.00,+7.00,-2.00,+11.00,+4.00,-37.00,-3.00,-4.00
+7.00,-31.00,-9.00,+0.00,+1.00,-16.00,-38.00,-4.00,+25.00,+28.00,+5.00,+2.00,+17.00,+78.00,+25.00,+25.00
-47.00,-60.00,-5.00,+1.00,+1.00,+33.00,+49.00,-16.00,-33.00,-26.00,-7.00,-15.00,-25.00,-41.00,-12.00,-33.00
+19.00,+26.00,+1.00,-2.00,-8.00,-3.00,+36.00,+3.00,-22.00,-22.00,-6.00,+13.00,+14.00,-9.00,+0.00,+6.00
+1.00,+3.00,+0.00,-5.00,-5.00,-1.00,-12.00,-4.00,-4.00,+2.00,+13.00,+3.00,-8.00,+4.00,-2.00,-2.00
-9.00,-31.00,-9.00,-4.00,-4.00,+1.00,+9.00,+0.00,-5.00,-5.00,-17.00,-5.00,-7.00,-37.00,+2.00,-4.00
+9.00,+24.00,+0.00,+0.00,+5.00,-28.00,-33.00,+1.00,-3.00,+1.00,-1.00,-6.00,-22.00,-18.00,-18.00,-4.00
-4.00,-38.00,-15.00,-6.00,-15.00,-3.00,-20.00,+6.00,+33.00,+22.00,+3.00,+1.00,+1.00,+14.00,+2.00,+12.00
-12.00,+2.00,+7.00,+1.00,-4.00,+1.00,+4.00,-10.00,-17.00,+5.00,+4.00,+0.00,+4.00,-29.00,-13.00,-14.00
+22.00,+50.00,-1.00,+0.00,+34.00,+7.00,+2.00,-5.00,-39.00,-19.00,-7.00,+2.00,+11.00,+3.00,+0.00,-11.00
-7.00,+14.00,+0.00,-3.00,-39.00,-13.00,+1.00,+6.00,+9.00,-4.00,-6.00,-8.00,-23.00,+15.00,+12.00,-2.00
+4.00,+20.00,+2.00,+1.00,-2.00,-3.00,+4.00,+4.00,+28.00,+19.00,+3.00,+2.00,-3.00,+1.00,+3.00,+17.00
-15.00,-56.00,-14.00,-5.00,-5.00,-7.00,-14.00,-7.00,+20.00,+10.00,+3.00,+2.00,+9.00,-13.00,-12.00,-3.00
+14.00,+41.00,+0.00,-1.00,-8.00,+2.00,+3.00,+1.00,+6.00,+29.00,+4.00,-7.00,+3.00,+5.00,+1.00,-10.00
-2.00,+32.00,+1.00,-1.00,+9.00,-32.00,-23.00,+15.00,+23.00,+24.00,+8.00,+6.00,+6.00,-24.00,-4.00,+7.00
+3.00,+12.00,+12.00,+0.00,-3.00,+11.00,-1.00,-2.00,-86.00,-70.00,-11.00,-1.00,+3.00,+38.00,+1.00,-28.00
-10.00,-19.00,+0.00,+5.00,+16.00,+8.00,+10.00,+1.00,+73.00,+60.00,+23.00,+8.00,+6.00,+4.00,+2.00,+6.00
-20.00,-53.00,-8.00,-3.00,-15.00,+5.00,-1.00,-1.00,+3.00,-13.00,-6.00,-1.00,-3.00,+14.00,-1.00,+2.00
-2.00,-28.00,-9.00,-7.00,-11.00,-15.00,-33.00,-6.00,-3.00,+23.00,-1.00,-4.00,-12.00,-36.00,-11.00,-7.00
-16.00,+34.00,+0.00,-2.00,+0.00,+2.00,+20.00,+0.00,+6.00,+8.00,+7.00,+1.00,-1.00,-23.00,-6.00,+15.00
+40.00,+9.00,+9.00,+3.00,+15.00,+9.00,-16.00,+30.00,-29.00,-71.00,-20.00,+1.00,+42.00,+49.00,+15.00,+0.00
+24.00,+41.00,+4.00,+4.00,-15.00,-7.00,+8.00,+3.00,-4.00,+7.00,-6.00,-8.00,-53.00,-45.00,-24.00,-21.00
-3.00,-28.00,-7.00,-5.00,-2.00,-9.00,-29.00,+5.00,-23.00,+7.00,+12.00,+5.00,+11.00,-2.00,+0.00,-2.00
+12.00,+27.00,-7.00,-4.00,+8.00,+30.00,+29.00,+1.00,+18.00,-1.00,-7.00,-11.00,-22.00,+0.00,+13.00,+15.00
+9.00,-26.00,+9.00,+3.00,-4.00,-10.00,+14.00,+2.00,+9.00,+5.00,-5.00,-9.00,-12.00,-6.00,-16.00,-1.00
-30.00,-15.00,-5.00,-6.00,-9.00,-22.00,-35.00,-12.00,-14.00,-3.00,+0.00,+10.00,+29.00,+1.00,+6.00,+9.00
+17.00,-12.00,+6.00,+5.00,+18.00,+34.00,+40.00,+16.00,-7.00,-19.00,-2.00,+9.00,+26.00,+49.00,+14.00,+12.00
-11.00,-14.00,-17.00,-2.00,+3.00,+9.00,-15.00,-19.00,+1.00,+26.00,-6.00,-24.00,-33.00,-28.00,-13.00,-13.00
-13.00,-13.00,+6.00,+5.00,-18.00,-3.00,-15.00,-9.00,+8.00,-34.00,-8.00,-11.00,-23.00,+8.00,-3.00,-10.00
-1.00,+26.00,+1.00,-1.00,+2.00,+3.00,+19.00,-33.00,+5.00,+21.00,+13.00,+2.00,-2.00,+13.00,+6.00,+5.00
-10.00,-5.00,+7.00,-2.00,-2.00,-13.00,-17.00,+11.00,-19.00,-20.00,-3.00,+4.00,+25.00,-26.00,-8.00,-10.00
+24.00,+10.00,+5.00,+6.00,+13.00,-7.00,+6.00,+11.00,+7.00,+12.00,+6.00,+4.00,-21.00,-6.00,-5.00,-10.00
+1.00,+23.00,-12.00,-8.00,-19.00,-10.00,-26.00,-10.00,+8.00,-16.00,-11.00,-2.00,-5.00,-23.00,+2.00,+12.00
-15.00,-65.00,-7.00,-4.00,+1.00,+9.00,+9.00,-7.00,-11.00,-2.00,-7.00,-8.00,-8.00,+8.00,-14.00,-22.00
+4.00,+2.00,-3.00,+1.00,-2.00,+7.00,-41.00,-9.00,+21.00,+20.00,+0.00,+3.00,-1.00,+12.00,+8.00,-2.00
-8.00,-13.00,+4.00,+3.00,+6.00,+8.00,+60.00,+0.00,-5.00,+8.00,+5.00,+5.00,+30.00,+13.00,+21.00,+31.00
-9.00,-13.00,+1.00,-3.00,-2.00,-11.00,-8.00,-2.00,-22.00,-17.00,-1.00,-4.00,-16.00,-71.00,-25.00,-9.00
-6.00,-11.00,-3.00,-1.00,+2.00,+8.00,+14.00,+15.00,+2.00,+3.00,-17.00,-7.00,-28.00,+66.00,+12.00,-5.00
+8.00,+17.00,-9.00,-5.00,-2.00,-4.00,-21.00,-6.00,-13.00,-10.00,+0.00,-8.00,-9.00,-9.00,-10.00,-13.00
-2.00,-57.00,+8.00,+2.00,+4.00,-14.00,-9.00,+20.00,+14.00,-11.00,+3.00,+1.00,-4.00,-7.00,-6.00,-11.00
+17.00,+83.00,+21.00,+7.00,+4.00,+19.00,-3.00,-10.00,-30.00,+3.00,+0.00,+2.00,+6.00,+1.00,+2.00,-8.00
-14.00,+12.00,+3.00,+1.00,-3.00,+18.00,+27.00,+12.00,+40.00,-13.00,+16.00,+16.00,+27.00,-2.00,+18.00,+29.00
+24.00,+21.00,-1.00,-5.00,-3.00,-2.00,+4.00,+3.00,-11.00,-10.00,-9.00,-3.00,+4.00,-9.00,-8.00,-21.00
+3.00,+22.00,-3.00,-5.00,-10.00,-7.00,-20.00,-9.00,-1.00,+33.00,+5.00,-5.00,-16.00,-21.00,-17.00,-12.00
-9.00,-69.00,-12.00,-4.00,+9.00,+1.00,+11.00,-11.00,-19.00,-37.00,-10.00,-8.00,+3.00,+13.00,+1.00,+2.00
-11.00,+16.00,+3.00,+0.00,-3.00,-9.00,-10.00,+18.00,+18.00,-3.00,-4.00,+2.00,+20.00,-18.00,-1.00,-10.00
+25.00,+58.00,+14.00,+7.00,+33.00,+8.00,-5.00,+7.00,-43.00,-26.00,-6.00,-3.00,-5.00,+18.00,-2.00,-4.00
-9.00,-65.00,-14.00,-5.00,-25.00,+2.00,+25.00,+2.00,+24.00,+6.00,+6.00,+2.00,-11.00,-51.00,-14.00,-3.00
-7.00,+19.00,-3.00,-4.00,-3.00,-55.00,+11.00,-2.00,+3.00,+0.00,+4.00,+0.00,-1.00,+55.00,+14.00,+2.00
+23.00,+60.00,+10.00,+3.00,-7.00,+11.00,-20.00,+1.00,-7.00,-9.00,-7.00,+2.00,+16.00,+3.00,-21.00,-4.00
-29.00,-1.00,-6.00,-3.00,+5.00,+2.00,+4.00,-17.00,+8.00,+6.00,+10.00,-5.00,-28.00,-9.00,+4.00,+2.00
+5.00,+6.00,+6.00,+4.00,-6.00,-7.00,-3.00,+6.00,-2.00,-12.00,-13.00,+1.00,+15.00,+7.00,+13.00,+21.00
-2.00,-27.00,-4.00,+0.00,+13.00,+11.00,-2.00,+4.00,+34.00,+83.00,+14.00,-1.00,-15.00,+1.00,+5.00,+3.00
+2.00,-21.00,-10.00,-5.00,-2.00,-5.00,+3.00,+2.00,+5.00,-28.00,+4.00,+1.00,+0.00,-21.00,-1.00,-4.00
-3.00,-23.00,-1.00,-2.00,-16.00,-12.00,+3.00,-5.00,-25.00,-29.00,-7.00,+4.00,+6.00,-11.00,-15.00,-4.00
-8.00,+0.00,-3.00,-2.00,+8.00,-1.00,-32.00,-8.00,-19.00,-23.00,-11.00,-6.00,-1.00,+3.00,-11.00,-23.00
-7.00,+17.00,+6.00,+0.00,-9.00,+7.00,+3.00,-6.00,+4.00,-13.00,-6.00,+3.00,+4.00,+1.00,+3.00,+6.00
-9.00,-40.00,-17.00,-4.00,+4.00,-11.00,-12.00,-4.00,+5.00,+25.00,+6.00,-9.00,-19.00,+3.00,+3.00,-8.00
+3.00,-82.00,-6.00,+1.00,-6.00,+15.00,+16.00,+7.00,+31.00,+18.00,-1.00,+4.00,+10.00,-47.00,+5.00,+13.00
-9.00,+88.00,+13.00,+3.00,-4.00,-6.00,-1.00,-12.00,+8.00,-16.00,-7.00,-11.00,-17.00,+69.00,-11.00,-11.00
-14.00,-9.00,-11.00,-5.00,+6.00,-7.00,-9.00,-2.00,-6.00,+23.00,-4.00,-3.00,+19.00,+4.00,+7.00,+14.00
+14.00,-6.00,+6.00,+4.00,+4.00,+18.00,+11.00,+2.00,-14.00,-2.00,+2.00,+2.00,+3.00,-2.00,-5.00,-15.00
-5.00,+12.00,-9.00,-4.00,-8.00,-11.00,-24.00,+0.00,-11.00,-24.00,-13.00,-14.00,-16.00,-19.00,-12.00,-16.00
+15.00,-39.00,-3.00,+0.00,+12.00,-9.00,-22.00,-8.00,+3.00,+12.00,+10.00,+10.00,+24.00,+18.00,+14.00,+1.00
-10.00,+34.00,-11.00,-7.00,-7.00,+3.00,+21.00,+3.00,-14.00,-12.00,+1.00,-7.00,-9.00,-36.00,-13.00,-15.00
-12.00,+6.00,+7.00,-3.00,-7.00,-7.00,-27.00,-17.00,-27.00,-27.00,-10.00,-7.00,-24.00,-14.00,-7.00,-9.00
-3.00,-6.00,-3.00,-1.00,-9.00,-3.00,-8.00,-4.00,+25.00,+6.00,+4.00,-2.00,-10.00,+9.00,-3.00,+8.00
-7.00,-49.00,-9.00,-4.00,+2.00,-14.00,-19.00,-6.00,-5.00,+18.00,-6.00,+7.00,+18.00,+4.00,+4.00,-8.00
+19.00,+10.00,+11.00,+3.00,-3.00,+8.00,-30.00,+0.00,-10.00,-14.00,-10.00,-4.00,-1.00,+6.00,-6.00,-12.00
+3.00,+40.00,-2.00,-2.00,+2.00,+12.00,+20.00,+5.00,+7.00,+8.00,-1.00,-5.00,-24.00,-67.00,-5.00,+20.00
-12.00,-27.00,-3.00,+0.00,+6.00,+0.00,+59.00,+4.00,-24.00,-23.00,-4.00,+1.00,+21.00,+77.00,+18.00,-14.00
-1.00,+26.00,+2.00,-3.00,-7.00,-1.00,-16.00,+4.00,-9.00,-28.00,-4.00,-2.00,-9.00,-3.00,-11.00,-2.00
-5.00,-29.00,-10.00,-4.00,-4.00,+1.00,+2.00,+1.00,+26.00,+73.00,+19.00,+5.00,-11.00,-13.00,-4.00,-7.00
-21.00,-56.00,-11.00,-2.00,+2.00,-5.00,-6.00,+1.00,+25.00,-4.00,+1.00,+5.00,+8.00,-8.00,+0.00,+6.00
+6.00,+32.00,+5.00,+0.00,+3.00,-8.00,+3.00,-9.00,-37.00,+8.00,-1.00,-4.00,-4.00,+13.00,-5.00,-4.00
+12.00,+50.00,+8.00,+2.00,-11.00,-16.00,-18.00,+15.00,+10.00,-10.00,-5.00,-4.00,+1.00,-17.00,+2.00,+9.00
-11.00,-16.00,-3.00,-2.00,-9.00,-5.00,+20.00,+4.00,-9.00,-26.00,+6.00,+8.00,+9.00,+22.00,+23.00,+10.00
+3.00,-20.00,-5.00,+1.00,+14.00,+11.00,-6.00,-3.00,+21.00,+49.00,+2.00,-3.00,-2.00,-23.00,-12.00,-5.00
-5.00,+20.00,-1.00,+3.00,-1.00,-6.00,-20.00,-4.00,+11.00,+25.00,+8.00,-5.00,-9.00,-16.00,-4.00,+20.00
-3.00,-30.00,-3.00,+0.00,-7.00,-2.00,+24.00,-2.00,-38.00,-48.00,-8.00,-2.00,+12.00,+29.00,+6.00,-7.00
-1.00,+8.00,+3.00,+2.00,+16.00,+26.00,-7.00,-9.00,-19.00,+4.00,+0.00,-3.00,+3.00,+28.00,+6.00,+0.00
-6.00,-17.00,-8.00,-3.00,-15.00,-29.00,-31.00,-13.00,+12.00,+1.00,-8.00,-3.00,-10.00,+6.00,+1.00,-2.00
+16.00,+76.00,+14.00,+4.00,-1.00,-6.00,+30.00,+19.00,+21.00,-39.00,-14.00,+4.00,+2.00,-38.00,-15.00,-2.00
-44.00,-48.00,-19.00,-9.00,-7.00,+10.00,-27.00,-35.00,+9.00,+72.00,+15.00,+2.00,-1.00,-7.00,+3.00,+6.00
+10.00,+47.00,+13.00,+1.00,-4.00,-25.00,-30.00,+6.00,-23.00,-30.00,-6.00,-8.00,-4.00,-12.00,-12.00,-2.00
+17.00,+23.00,-3.00,-1.00,+3.00,-8.00,-2.00,+3.00,-10.00,-33.00,+6.00,+3.00,+4.00,+18.00,+5.00,+4.00
-23.00,-35.00,+0.00,+2.00,-8.00,-8.00,-43.00,-19.00,+21.00,+4.00,-11.00,-4.00,+11.00,-5.00,-10.00,-17.00
+12.00,-12.00,+4.00,+3.00,+8.00,+15.00,+40.00,+12.00,+4.00,+24.00,+0.00,-2.00,-17.00,-19.00,+16.00,+12.00
+8.00,+54.00,-2.00,-5.00,+2.00,+5.00,-9.00,-3.00,-8.00,-21.00,-9.00,+1.00,-10.00,+15.00,-5.00,-1.00
-10.00,+5.00,+3.00,-2.00,+0.00,-2.00,+15.00,-1.00,+19.00,+38.00,+9.00,+0.00,+16.00,+20.00,+1.00,+3.00
+9.00,-17.00,-4.00,-5.00,+0.00,+1.00,+8.00,+8.00,-30.00,-33.00,-3.00,+1.00,+7.00,-46.00,-10.00,-8.00
-3.00,+48.00,-2.00,-3.00,+0.00,-4.00,-4.00,+1.00,+27.00,+19.00,+11.00,-3.00,-16.00,+47.00,+4.00,+4.00
-6.00,-46.00,+4.00,+7.00,+3.00,+7.00,-3.00,-14.00,-5.00,+6.00,-8.00,-2.00,-6.00,-19.00,-7.00,-12.00
+0.00,+3.00,+2.00,-2.00,-6.00,-26.00,-21.00,+4.00,-13.00,-31.00,-5.00,-1.00,+9.00,+15.00,+7.00,+9.00
-1.00,-12.00,-4.00,-2.00,+2.00,+25.00,+7.00,-1.00,+23.00,+20.00,-4.00,-1.00,-6.00,-1.00,-4.00,+1.00
-8.00,-30.00,-7.00,-1.00,-6.00,-18.00,+1.00,-4.00,-23.00,-7.00,+3.00,-6.00,+3.00,-27.00,-7.00,-13.00
-3.00,-1.00,+4.00,+3.00,+2.00,+4.00,+13.00,+3.00,-22.00,-38.00,-10.00,-1.00,-8.00,-2.00,+2.00,+0.00
-13.00,-11.00,+0.00,-5.00,-2.00,-12.00,-30.00,-11.00,+28.00,+26.00,-4.00,-7.00,-10.00,-18.00,-17.00,-12.00
+24.00,+57.00,+6.00,+3.00,-4.00,+3.00,-2.00,+8.00,-20.00,+16.00,+4.00,+7.00,+11.00,+26.00,+16.00,+9.00
-1.00,-18.00,+0.00,-1.00,-4.00,+1.00,-6.00,-3.00,+19.00,-1.00,+11.00,+3.00,-6.00,-20.00,-8.00,+0.00
+2.00,-9.00,-4.00,+4.00,+6.00,-9.00,+6.00,+14.00,+18.00,-5.00,-3.00,-6.00,-3.00,-2.00,-10.00,-8.00
-1.00,-10.00,-1.00,+0.00,+0.00,+0.00,+15.00,-5.00,-43.00,-35.00,-11.00,-1.00,+13.00,-30.00,-2.00,+5.00
-16.00,-21.00,-19.00,-12.00,-1.00,+9.00,+1.00,-16.00,+21.00,+3.00,+0.00,-4.00,-18.00,+51.00,+5.00,-3.00
+9.00,-6.00,+16.00,+5.00,+5.00,+17.00,-2.00,+20.00,-50.00,-51.00,-16.00,-8.00,-13.00,+0.00,-4.00,-20.00
+13.00,+8.00,-3.00,+3.00,+1.00,+10.00,+8.00,+2.00,+41.00,+26.00,-3.00,-1.00,+10.00,-11.00,+1.00,+3.00
-16.00,-15.00,-6.00,-3.00,-3.00,+8.00,-5.00,-6.00,-24.00,-17.00,+4.00,+6.00,+6.00,+23.00,+4.00,+4.00
+9.00,+26.00,+15.00,+2.00,-1.00,-3.00,-1.00,+1.00,+14.00,+27.00,+7.00,-2.00,-8.00,-15.00,-2.00,-3.00
-8.00,-16.00,-12.00,-4.00,+4.00,-9.00,+5.00,-3.00,+8.00,+1.00,+0.00,+5.00,+13.00,-4.00,+2.00,+19.00
-31.00,+41.00,+7.00,-1.00,-4.00,+5.00,-17.00,-13.00,-16.00,-34.00,-7.00,+1.00,-5.00,+3.00,+3.00,+0.00
+10.00,-31.00,+9.00,+7.00,+14.00,+0.00,+11.00,+10.00,+7.00,+1.00,-1.00,+6.00,+20.00,-5.00,-3.00,-1.00
+14.00,-22.00,-3.00,+5.00,-10.00,+0.00,-8.00,+2.00,+3.00,-3.00,-1.00,-8.00,-13.00,+2.00,+3.00,+6.00
-12.00,-1.00,-8.00,-9.00,+2.00,+8.00,+1.00,-2.00,+6.00,+17.00,-2.00,-1.00,-4.00,-14.00,-12.00,-5.00
+6.00,-47.00,+0.00,-4.00,-14.00,-14.00,+1.00,-2.00,+3.00,+15.00,+7.00,+2.00,+7.00,-9.00,+4.00,+2.00
+3.00,+37.00,+3.00,+1.00,+3.00,+1.00,-1.00,-3.00,-5.00,+3.00,-2.00,-3.00,-2.00,+26.00,+7.00,-2.00
-6.00,-9.00,-2.00,-1.00,-2.00,+1.00,+23.00,+4.00,-8.00,-9.00,+2.00,+5.00,+8.00,-1.00,+3.00,+0.00
+1.00,+6.00,+3.00,+2.00,-2.00,-3.00,-18.00,-13.00,+8.00,+7.00,+1.00,-3.00,-5.00,-12.00,-5.00,+0.00
-3.00,+8.00,-6.00,-7.00,+3.00,+6.00,+11.00,+1.00,+9.00,+7.00,-1.00,-3.00,-2.00,-4.00,-2.00,-2.00
-1.00,-34.00,-7.00,+0.00,-3.00,+7.00,+15.00,+6.00,-16.00,-11.00,-3.00,+0.00,-7.00,+12.00,+0.00,+3.00
+2.00,-13.00,+2.00,+5.00,+6.00,-5.00,-11.00,+4.00,+12.00,+2.00,+0.00,+1.00,-4.00,-3.00,+2.00,+4.00
+0.00,+11.00,+4.00,-1.00,-3.00,-1.00,+3.00,+6.00,-3.00,+17.00,+4.00,+4.00,+14.00,-4.00,-1.00,-5.00
-11.00,-10.00,-8.00,-7.00,+1.00,+0.00,+2.00,-4.00,+3.00,+5.00,+3.00,+0.00,-1.00,+0.00,-1.00,+17.00
+8.00,-22.00,+0.00,+4.00,-3.00,+3.00,-1.00,+2.00,+2.00,-6.00,-4.00,-6.00,-7.00,+3.00,+1.00,-3.00
-14.00,+21.00,+2.00,-1.00,+2.00,+1.00,-1.00,-15.00,-4.00,-8.00,-7.00,-3.00,+0.00,-5.00,-1.00,-5.00
+4.00,+15.00,+1.00,-13.00,-3.00,-2.00,+3.00,-4.00,+4.00,-5.00,-5.00,+2.00,+6.00,+3.00,+1.00,-1.00
+14.00,-17.00,-16.00,-2.00,-5.00,+0.00,+1.00,+12.00,+5.00,+12.00,+4.00,+0.00,-4.00,-3.00,+0.00,+2.00
-12.00,-8.00,+6.00,+5.00,+1.00,+2.00,+8.00,-4.00,-10.00,-11.00,+2.00,-1.00,-3.00,+0.00,+0.00,-2.00
-5.00,-15.00,-2.00,+4.00,+2.00,+2.00,-9.00,-2.00,-2.00,+2.00,+3.00,+1.00,-6.00,-3.00,-6.00,+0.00
+0.00,+2.00,+2.00,+10.00,+6.00,+1.00,+5.00,-4.00,-5.00,-32.00,+1.00,-4.00,-4.00,-2.00,+3.00,-9.00
-9.00,-21.00,+17.00,+7.00,+0.00,-5.00,-3.00,-8.00,-4.00,+30.00,+2.00,-5.00,-5.00,-7.00,-8.00,-6.00
+2.00,-2.00,-6.00,+15.00,+2.00,+3.00,+3.00,+4.00,-8.00,-10.00,-5.00,-2.00,+2.00,+0.00,-2.00,-4.00
+9.00,+14.00,+23.00,+6.00,-2.00,+1.00,-3.00,+2.00,+8.00,+22.00,-2.00,-1.00,+0.00,+3.00,-4.00,+16.00
-7.00,+4.00,-6.00,-35.00,-12.00,-7.00,-6.00,-6.00,-1.00,-49.00,-4.00,+3.00,+2.00,-3.00,+3.00,+7.00
-6.00,-20.00,-64.00,-56.00,-14.00,-4.00,-6.00,-16.00,+0.00,+30.00,-2.00,+2.00,+2.00,-5.00,-5.00,-7.00
-17.00,+14.00,+1.00,-3.00,-3.00,+1.00,+1.00,+12.00,-4.00,+7.00,+10.00,-1.00,-2.00,+7.00,+2.00,-11.00
-5.00,-4.00,+2.00,+12.00,+7.00,+1.00,+4.00,-6.00,-8.00,-1.00,-1.00,-4.00,-4.00,-3.00,-3.00,-9.00
+15.00,+16.00,+21.00,+33.00,+10.00,+4.00,+9.00,+12.00,+2.00,-1.00,-4.00,+0.00,+4.00,-1.00,+2.00,+9.00
+11.00,-1.00,+24.00,+19.00,+6.00,+4.00,+2.00,+26.00,+4.00,-21.00,-5.00,+3.00,+2.00,+0.00,+7.00,+0.00
+3.00,+47.00,+2.00,-8.00,-7.00,-1.00,+1.00,-10.00,-7.00,-1.00,-6.00,+3.00,+5.00,-1.00,-4.00,-8.00
+0.00,-25.00,-11.00,-6.00,+0.00,-5.00,-5.00,+6.00,-2.00,-5.00,+5.00,-11.00,-23.00,-5.00,-3.00,+2.00
+1.00,+1.00,-4.00,+3.00,+1.00,+22.00,+3.00,-9.00,+4.00,+15.00,+0.00,-5.00,-7.00,-5.00,+3.00,+4.00
+17.00,+18.00,+2.00,+7.00,+5.00,+2.00,+3.00,+15.00,-6.00,-17.00,-6.00,+0.00,+1.00,+1.00,+1.00,-7.00
-12.00,-8.00,+24.00,+16.00,-1.00,+2.00,+4.00,-1.00,-3.00,+5.00,+1.00,-2.00,+2.00,+1.00,-2.00,+9.00
-7.00,-32.00,-3.00,-20.00,-10.00,-6.00,-3.00,-1.00,+4.00,-6.00,-1.00,+3.00,+10.00,+0.00,-3.00,-12.00
-11.00,-4.00,-50.00,-38.00,-3.00,-5.00,-3.00,+2.00,-6.00,+0.00,-7.00,+7.00,+17.00,+4.00,-4.00,+9.00
-41.00,-7.00,-4.00,-2.00,-2.00,-7.00,-2.00,-7.00,-2.00,-8.00,+4.00,+1.00,-6.00,-6.00,-10.00,-11.00
+8.00,+13.00,-3.00,+1.00,+1.00,+0.00,-3.00,-9.00,+4.00,-1.00,-3.00,-4.00,-8.00,+0.00,+10.00,+1.00
+0.00,+16.00,+11.00,+10.00,-2.00,-1.00,-7.00,-20.00,+4.00,+5.00,-5.00,+0.00,+2.00,+2.00,-2.00,+5.00
+6.00,+19.00,+11.00,+16.00,+6.00,-2.00,+6.00,+4.00,+1.00,+32.00,+10.00,+2.00,+5.00,+1.00,-2.00,-6.00
-4.00,-26.00,+0.00,+5.00,-10.00,+0.00,+0.00,+0.00,-1.00,-15.00,+0.00,+2.00,+6.00,+0.00,+2.00,-2.00
+22.00,+3.00,+2.00,-6.00,+0.00,+4.00,+5.00,+30.00,-5.00,-15.00,-4.00,-4.00,-6.00,+1.00,-2.00,-1.00
-27.00,-25.00,-12.00,-10.00,+1.00,-3.00,-21.00,-20.00,+1.00,+2.00,-3.00,-4.00,-1.00,-4.00,+7.00,+1.00
+10.00,+0.00,-1.00,+4.00,+2.00,-1.00,+3.00,+0.00,-3.00,-1.00,-2.00,-2.00,-5.00,-3.00,-9.00,-5.00
+9.00,+34.00,+14.00,+7.00,+3.00,+1.00,+4.00,-8.00,-1.00,-10.00,-7.00,-3.00,-1.00,-5.00,-5.00,+5.00
-3.00,-9.00,-12.00,-10.00,-3.00,-4.00,-1.00,-9.00,+0.00,+6.00,+6.00,+0.00,-11.00,-1.00,-5.00,-10.00
+5.00,-4.00,-9.00,-6.00,+1.00,+20.00,-5.00,+5.00,-6.00,-9.00,-3.00,+2.00,-6.00,+0.00,+6.00,+5.00
-1.00,-8.00,+4.00,+5.00,-2.00,-10.00,-6.00,+0.00,+2.00,+0.00,-10.00,-4.00,+3.00,-2.00,+0.00,-3.00
-6.00,-11.00,+2.00,-3.00,-7.00,-3.00,+1.00,-22.00,-8.00,-9.00,+1.00,-2.00,-6.00,+0.00,-2.00,+1.00
+0.00,-9.00,-9.00,-6.00,-3.00,+17.00,+6.00,+15.00,+6.00,+9.00,+3.00,+1.00,+5.00,-1.00,-1.00,+5.00
+3.00,+3.00,+0.00,-1.00,+3.00,-5.00,+5.00,+12.00,-1.00,-1.00,-1.00,-1.00,+8.00,+2.00,-3.00,+1.00
-1.00,+21.00,+6.00,+2.00,-3.00,-6.00,-3.00,+5.00,+3.00,+7.00,+5.00,+2.00,-4.00,+0.00,+2.00,-3.00
+4.00,-3.00,+4.00,+3.00,+3.00,+6.00,-2.00,-4.00,-3.00,-2.00,-3.00,-2.00,+3.00,-2.00,-5.00,-5.00
-3.00,-3.00,-7.00,-8.00,-1.00,-11.00,-4.00,-14.00,-8.00,-14.00,-6.00,-4.00,-12.00,-2.00,+0.00,+0.00
+7.00,+23.00,+1.00,+4.00,-3.00,-1.00,+4.00,-8.00,-2.00,-8.00,-3.00,+0.00,-5.00,-2.00,-5.00,-6.00
-6.00,-12.00,+1.00,+1.00,+0.00,-4.00,+1.00,+11.00,-1.00,+5.00,-2.00,-4.00,-5.00,-1.00,-2.00,+0.00
+2.00,-4.00,-2.00,+0.00,-1.00,-3.00,-9.00,+1.00,+5.00,-6.00,-3.00,-4.00,-5.00,-5.00,-2.00,+10.00
-4.00,-37.00,-2.00,+1.00,-2.00,-2.00,+1.00,-15.00,-12.00,-21.00,-4.00,+1.00,+7.00,-1.00,+8.00,+12.00
+5.00,+30.00,+1.00,-2.00,+4.00,-1.00,+6.00,+4.00,-2.00,+24.00,+6.00,-1.00,-2.00,-1.00,-3.00,-1.00
-2.00,-13.00,+3.00,+3.00,-2.00,-4.00,-8.00,-5.00,+0.00,+0.00,-3.00,-1.00,+0.00,-2.00,-3.00,-13.00
-1.00,+18.00,-6.00,-5.00,-3.00,-1.00,-3.00,-2.00,+2.00,-8.00,+0.00,+0.00,-1.00,+0.00,+0.00,+0.00
-18.00,-7.00,-7.00,-8.00,-4.00,-4.00,+3.00,-15.00,+2.00,+12.00,-5.00,-2.00,+2.00,-2.00,-5.00,-4.00
-3.00,-2.00,+4.00,-3.00,-4.00,-6.00,+3.00,-2.00,-1.00,-8.00,+1.00,+2.00,+6.00,+2.00,+3.00,-6.00
+0.00,-3.00,-8.00,-2.00,+1.00,-1.00,-3.00,-9.00,-2.00,-1.00,+0.00,-1.00,-7.00,+1.00,+2.00,+2.00
+3.00,+17.00,+2.00,+7.00,+4.00,+1.00,+1.00,+3.00,-5.00,+0.00,+4.00,-2.00,-8.00,-7.00,-6.00,-4.00
+4.00,+1.00,+7.00,+1.00,+0.00,+1.00,-1.00,+2.00,+5.00,+1.00,-2.00,-4.00,-2.00,-1.00,+1.00,+3.00
-5.00,-13.00,-6.00,-6.00,-4.00,-5.00,-3.00,+4.00,-4.00,-9.00,-1.00,+1.00,+9.00,+1.00,+1.00,-5.00
+6.00,-2.00,+2.00,+4.00,+1.00,-1.00,+2.00,+7.00,-2.00,+8.00,+2.00,+0.00,-11.00,-5.00,-3.00,-9.00
-2.00,-11.00,+21.00,+6.00,+5.00,+25.00,+2.00,-3.00,+2.00,-2.00,-2.00,-4.00,-5.00,-3.00,+0.00,+8.00
-2.00,+0.00,-29.00,-15.00,-3.00,+2.00,-4.00,-6.00,+3.00,+8.00,+1.00,-2.00,-1.00,-2.00,-3.00,-6.00
+12.00,+15.00,-4.00,-2.00,+1.00,-5.00,-1.00,+5.00,-3.00,-22.00,-6.00,+0.00,-1.00,+0.00,-1.00,-1.00
-5.00,+0.00,+6.00,+3.00,-10.00,-4.00,-2.00,+4.00,+1.00,+29.00,+3.00,-2.00,+7.00,+2.00,-2.00,-1.00
-2.00,-9.00,+4.00,+1.00,+1.00,-6.00,+4.00,-7.00,+0.00,+10.00,+7.00,+2.00,+3.00,+3.00,+0.00,-3.00
+2.00,+12.00,-1.00,-9.00,+2.00,+1.00,+2.00,+10.00,-1.00,-3.00,-10.00,-2.00,+3.00,+0.00,+2.00,+6.00
-3.00,-26.00,-9.00,+0.00,+0.00,+6.00,-1.00,-2.00,-1.00,-6.00,-2.00,-1.00,-1.00,-1.00,-3.00,-2.00
-3.00,+1.00,-1.00,+2.00,-2.00,-11.00,+0.00,-3.00,+0.00,-14.00,-3.00,-2.00,+3.00,-1.00,+0.00,-5.00
+4.00,-11.00,+0.00,+2.00,-5.00,-6.00,-2.00,-3.00,+0.00,+2.00,-1.00,-4.00,-15.00,-4.00,+0.00,-1.00
+5.00,+31.00,+12.00,+7.00,+1.00,-4.00,-1.00,-2.00,+0.00,+9.00,+8.00,+1.00,+0.00,-3.00,-6.00,-3.00
-11.00,+0.00,-6.00,-1.00,-1.00,-3.00,-1.00,-10.00,-3.00,-10.00,-10.00,-2.00,-5.00,-1.00,-3.00,-4.00
-1.00,+0.00,+2.00,-2.00,+1.00,+5.00,+0.00,+0.00,+1.00,-10.00,-8.00,-2.00,+2.00,-3.00,+1.00,+3.00
-4.00,-15.00,-10.00,-8.00,-4.00,-6.00,+1.00,+3.00,-3.00,+4.00,-1.00,+1.00,+4.00,+3.00,-1.00,+1.00
-6.00,+9.00,-2.00,-7.00,+1.00,+4.00,-6.00,-7.00,-1.00,-6.00,+2.00,+0.00,+0.00,-1.00,-1.00,-6.00
-7.00,-13.00,-7.00,-1.00,-4.00,-4.00,-1.00,-5.00,-1.00,+2.00,-2.00,-5.00,-3.00,-3.00,+2.00,+5.00
+8.00,+8.00,+10.00,+5.00,+3.00,+5.00,+5.00,+7.00,+0.00,+0.00,+4.00,+1.00,+2.00,+0.00,-1.00,-2.00
-4.00,-5.00,+5.00,+3.00,+3.00,-3.00,-1.00,-1.00,-1.00,+6.00,+3.00,+2.00,+3.00,+0.00,-4.00,-8.00
+1.00,-6.00,+1.00,+3.00,-3.00,-6.00,-3.00,+4.00,+1.00,+0.00,+2.00,+1.00,-4.00,+0.00,+1.00,+4.00
+2.00,-2.00,-3.00,-7.00,-3.00,-2.00,+2.00,+5.00,-2.00,+7.00,+0.00,-4.00,+1.00,-2.00,-1.00,-6.00
-5.00,-2.00,-11.00,-5.00,-1.00,-1.00,-2.00,-5.00,-3.00,-11.00,-1.00,+0.00,-1.00,-1.00,-2.00,+0.00
+5.00,+1.00,-1.00,+7.00,+0.00,-2.00,-1.00,-3.00,-2.00,-13.00,-10.00,-3.00,+2.00,-1.00,+0.00,-1.00
+9.00,-5.00,+12.00,-1.00,-4.00,+2.00,+0.00,-1.00,-1.00,+3.00,-2.00,-2.00,-4.00,-2.00,-3.00,-1.00
-3.00,-3.00,-19.00,-15.00,-4.00,-4.00,-2.00,+2.00,-1.00,+3.00,+3.00,-1.00,-1.00,+0.00,-3.00,+0.00
-1.00,-5.00,+0.00,-3.00,+0.00,+2.00,-2.00,-5.00,-2.00,-2.00,+1.00,+1.00,-1.00,-2.00,-2.00,-3.00
-2.00,-4.00,-8.00,-2.00,+1.00,-5.00,-1.00,+1.00,-1.00,-5.00,-1.00,-1.00,-2.00,-2.00,+2.00,+7.00
+1.00,+8.00,+10.00,+11.00,+2.00,-2.00,+0.00,-8.00,-2.00,+1.00,-1.00,-1.00,+1.00,+1.00,+1.00,-2.00
+1.00,-2.00,+9.00,+7.00,+1.00,+5.00,+0.00,+2.00,-1.00,-2.00,-5.00,-4.00,+0.00,-3.00,+1.00,+3.00
+0.00,+0.00,-4.00,-4.00,+0.00,+0.00,-2.00,+0.00,-1.00,+2.00,+6.00,+1.00,-3.00,+0.00,-3.00,-7.00
+1.00,+3.00,+2.00,+0.00,-2.00,-2.00,-3.00,-4.00,+0.00,-9.00,-9.00,-2.00,+0.00,-1.00,-3.00,-5.00
-12.00,-14.00,-7.00,-6.00,-5.00,-3.00,-2.00,-20.00,+2.00,-1.00,+0.00,-2.00,-2.00,-1.00,+3.00,+5.00
+9.00,+17.00,+7.00,+0.00,+1.00,+0.00,+1.00,+9.00,-1.00,+2.00,+6.00,+2.00,+0.00,-1.00,-5.00,+3.00
-3.00,+3.00,+2.00,+1.00,-1.00,-1.00,+0.00,-3.00,+0.00,+1.00,-1.00,+0.00,-2.00,-3.00,-1.00,-4.00
-3.00,-1.00,-9.00,+0.00,+1.00,-1.00,-1.00,+1.00,-1.00,-2.00,-3.00,-3.00,-1.00,+0.00,+2.00,-1.00
+5.00,-8.00,+5.00,+2.00,-5.00,-4.00,+1.00,+8.00,+2.00,+9.00,+1.00,-2.00,-1.00,+0.00,+1.00,-8.00
-5.00,-8.00,-9.00,-8.00,+0.00,-2.00,-1.00,-16.00,+0.00,-2.00,+0.00,-1.00,-3.00,-2.00,-4.00,+0.00
-2.00,-1.00,-4.00,-1.00,-3.00,+1.00,+1.00,+3.00,-2.00,-1.00,-1.00,+0.00,+1.00,+2.00,+3.00,+0.00
+5.00,+1.00,-2.00,-6.00,+0.00,+2.00,-1.00,+8.00,-4.00,-7.00,-1.00,+0.00,+3.00,+1.00,+4.00,+3.00
-6.00,+0.00,-1.00,+1.00,+0.00,-2.00,-3.00,+0.00,+0.00,-8.00,-4.00,+1.00,+1.00,-1.00,-2.00,+2.00
+1.00,-3.00,+6.00,+9.00,+1.00,-2.00,-2.00,+1.00,-1.00,+3.00,+2.00,-1.00,+0.00,-3.00,-5.00,-1.00
+1.00,+1.00,+5.00,-2.00,+2.00,-3.00,-1.00,-6.00,-2.00,-7.00,-5.00,-4.00,-3.00,-2.00,-2.00,-2.00
+8.00,+2.00,-1.00,-2.00,+0.00,+0.00,+1.00,+2.00,-3.00,-3.00,-5.00,-1.00,-3.00,+1.00,-1.00,-5.00
-5.00,+4.00,+4.00,+6.00,+3.00,+3.00,-1.00,+7.00,-2.00,-2.00,-2.00,+0.00,+3.00,-4.00,-2.00,-5.00
-5.00,-6.00,+12.00,+0.00,-3.00,-2.00,-2.00,-8.00,+2.00,+2.00,+3.00,+1.00,-2.00,-1.00,+0.00,+1.00
+0.00,-6.00,-20.00,-12.00,-4.00,-5.00,-3.00,-3.00,+1.00,+1.00,+6.00,+1.00,-1.00,-1.00,+1.00,+10.00
+0.00,+1.00,-7.00,-7.00,-2.00,+0.00,+0.00,+1.00,-2.00,-3.00,-5.00,-3.00,-2.00,+0.00,-1.00,-2.00
+3.00,+3.00,+0.00,+5.00,+0.00,-16.00,+1.00,+10.00,-1.00,+6.00,+0.00,-2.00,-1.00,-1.00,-3.00,-3.00
+4.00,-3.00,+21.00,+8.00,+1.00,+5.00,+1.00,+2.00,-3.00,-6.00,-3.00,-1.00,-4.00,-1.00,+0.00,-4.00
+2.00,-7.00,-1.00,+0.00,-1.00,+1.00,+0.00,-4.00,-1.00,-4.00,-3.00,-3.00,+0.00,-1.00,-1.00,-2.00
-8.00,-1.00,-26.00,-16.00,-5.00,+0.00,-3.00,-6.00,-1.00,+2.00,+0.00,+0.00,+0.00,-3.00,-1.00,+3.00
-1.00,-1.00,-2.00,-3.00,-2.00,-3.00,+0.00,+3.00,-1.00,-5.00,-3.00,+0.00,-1.00,+0.00,-1.00,-3.00
-5.00,-4.00,-5.00,+2.00,-2.00,-4.00,+1.00,+6.00,-2.00,-3.00,-2.00,+1.00,+1.00,+0.00,+3.00,-1.00
-4.00,+2.00,+8.00,+6.00,+2.00,+2.00,+0.00,+4.00,-2.00,+2.00,+3.00,+0.00,-1.00,-1.00,-1.00,+0.00
+0.00,+3.00,+11.00,+6.00,+0.00,-6.00,-1.00,-9.00,+1.00,+2.00,+4.00,+0.00,+4.00,-1.00,+0.00,-3.00
-3.00,-6.00,-8.00,-6.00,+1.00,+1.00,-1.00,+1.00,-1.00,-5.00,+0.00,+0.00,-3.00,-1.00,-1.00,-1.00
+3.00,-1.00,-9.00,+1.00,+1.00,+1.00,-1.00,+8.00,-1.00,+4.00,-3.00,-3.00,-14.00,-2.00,-1.00,-2.00
-1.00,+5.00,+9.00,+5.00,+0.00,+1.00,-1.00,+0.00,+0.00,-2.00,-2.00,-1.00,+0.00,-2.00,-2.00,+2.00
-4.00,-5.00,-5.00,-11.00,-1.00,-2.00,-2.00,+2.00,-3.00,-5.00,+0.00,-4.00,-6.00,-1.00,-4.00,-5.00
+0.00,-4.00,-2.00,-6.00,-5.00,-2.00,+0.00,-4.00,-3.00,-4.00,-2.00,+1.00,+3.00,-1.00,-5.00,-4.00
-2.00,-4.00,-10.00,-4.00,+0.00,+1.00,+0.00,-1.00,-1.00,-1.00,-2.00,+2.00,+4.00,+1.00,+5.00,-3.00
+1.00,+2.00,+4.00,+3.00,-1.00,-3.00,-1.00,-1.00,-2.00,-5.00,-5.00,+1.00,-2.00,-3.00,+4.00,+0.00
-4.00,-2.00,+0.00,-2.00,+0.00,+1.00,-1.00,-2.00,+2.00,+3.00,+4.00,+1.00,-2.00,-1.00,-3.00,+1.00
-2.00,-2.00,-1.00,-3.00,-1.00,+2.00,-2.00,-2.00,+0.00,-2.00,+1.00,-4.00,+0.00,+0.00,-2.00,-3.00
-3.00,-1.00,-3.00,+0.00,-1.00,-5.00,-3.00,+0.00,-3.00,-2.00,-1.00,-1.00,-1.00,-1.00,-3.00,-3.00
+2.00,+1.00,+5.00,+5.00,+1.00,+4.00,+1.00,+2.00,-2.00,-2.00,-3.00,-2.00,+1.00,+0.00,-4.00,-6.00
-2.00,-3.00,+6.00,+7.00,-3.00,-3.00,-1.00,+1.00,+0.00,+1.00,-2.00,-1.00,-3.00,-2.00,-1.00,-10.00
+3.00,+5.00,+6.00,-1.00,-1.00,+1.00,+1.00,-13.00,+0.00,-2.00,-1.00,+1.00,-4.00,-1.00,-1.00,+7.00
-3.00,-5.00,-18.00,-9.00,-7.00,-2.00,+1.00,+11.00,-2.00,-3.00,-3.00,-1.00,+1.00,+0.00,-3.00,-1.00
+1.00,+0.00,+3.00,+1.00,+1.00,+2.00,-3.00,-2.00,-1.00,+0.00,-2.00,+0.00,+3.00,-1.00,+0.00,-2.00
-1.00,+1.00,-3.00,-3.00,-1.00,-2.00,+0.00,+6.00,-1.00,-1.00,-1.00,+2.00,+0.00,-1.00,-7.00,+1.00
+6.00,-2.00,-9.00,-3.00,+4.00,+0.00,-1.00,+15.00,-2.00,-6.00,-1.00,-5.00,-3.00,-2.00,-2.00,+0.00
-7.00,-2.00,+4.00,-1.00,-1.00,+1.00,+0.00,-23.00,-1.00,-1.00,+1.00,+0.00,+0.00,-2.00,+4.00,+0.00
+0.00,-1.00,-3.00,+0.00,-1.00,-1.00,+3.00,+15.00,+2.00,+4.00,-2.00,-2.00,-3.00,+0.00,+1.00,+1.00
+2.00,+2.00,+12.00,+10.00,+0.00,-1.00,+0.00,+5.00,+0.00,-2.00,-5.00,-1.00,+0.00,-1.00,+3.00,+0.00
-1.00,-7.00,-11.00,-6.00,-1.00,-1.00,+0.00,-1.00,-1.00,+1.00,-2.00,-1.00,+2.00,-1.00,-2.00,-2.00
+12.00,+0.00,+0.00,-6.00,-2.00,-1.00,-2.00,-1.00,+0.00,-2.00,-2.00,-4.00,-6.00,-1.00,-1.00,+3.00
-4.00,-5.00,-2.00,-5.00,-1.00,-1.00,-3.00,-3.00,-1.00,-4.00,-3.00,-3.00,-3.00,+0.00,-4.00,-4.00
-10.00,+0.00,-1.00,+4.00,+1.00,+0.00,+0.00,-17.00,-2.00,+2.00,+2.00,-2.00,-1.00,+0.00,+3.00,+2.00
+1.00,+1.00,+3.00,+3.00,-1.00,+0.00,+1.00,+6.00,+0.00,+1.00,-1.00,+3.00,+7.00,+2.00,+0.00,-2.00
+0.00,-1.00,-1.00,+0.00,+2.00,+0.00,-1.00,-2.00,-3.00,+0.00,+0.00,-5.00,-13.00,-4.00,-4.00,-4.00
-2.00,+0.00,+2.00,+2.00,-3.00,-1.00,+0.00,-5.00,+0.00,-1.00,-2.00,-3.00,-5.00,-3.00,-3.00,+2.00
+2.00,+1.00,-4.00,-2.00,-2.00,-2.00,-1.00,-6.00,-1.00,+0.00,+3.00,+0.00,+0.00,+1.00,-1.00,+0.00
-7.00,+0.00,+0.00,+2.00,+1.00,+2.00,-2.00,-5.00,-1.00,-1.00,+1.00,-1.00,-1.00,+1.00,+3.00,-8.00
-2.00,-1.00,+7.00,+0.00,-3.00,-3.00,+0.00,+9.00,-1.00,+0.00,+0.00,+1.00,+7.00,+1.00,-2.00,+5.00
+0.00,-4.00,-8.00,-7.00,+1.00,+2.00,+0.00,+1.00,+0.00,+2.00,+0.00,+1.00,-1.00,+0.00,-5.00,+2.00
-3.00,-3.00,-3.00,-6.00,-1.00,-4.00,-2.00,-1.00,-1.00,-4.00,-2.00,+0.00,+1.00,-5.00,-5.00,-4.00
+6.00,+2.00,-2.00,-2.00,-2.00,-1.00,-3.00,-3.00,-2.00,-2.00,+1.00,-1.00,-1.00,-2.00,-7.00,-9.00
+3.00,-1.00,+2.00,+1.00,+3.00,+0.00,+0.00,+13.00,+1.00,-2.00,-3.00,-1.00,+1.00,+0.00,+7.00,-3.00
-4.00,-3.00,-3.00,-2.00,-1.00,-4.00,-2.00,-10.00,-2.00,-2.00,+0.00,-3.00,-3.00,+0.00,+2.00,+1.00
-3.00,-3.00,-2.00,+0.00,-1.00,+1.00,+1.00,-7.00,+1.00,+2.00,+1.00,+1.00,+0.00,+0.00,-4.00,+6.00
-4.00,-3.00,-1.00,+2.00,-1.00,+2.00,+3.00,-1.00,-1.00,+1.00,-1.00,-1.00,-3.00,-1.00,-3.00,-5.00
+2.00,+2.00,+5.00,+3.00,+0.00,+1.00,+0.00,+17.00,-1.00,-5.00,-2.00,+0.00,+2.00,+0.00,-2.00,-2.00
-2.00,+0.00,-4.00,-2.00,-2.00,-1.00,-4.00,-4.00,-2.00,+2.00,+4.00,+1.00,+2.00,+0.00,-2.00,-1.00
-4.00,-10.00,-2.00,-2.00,-2.00,+0.00,-2.00,-12.00,+0.00,-2.00,-1.00,-1.00,-2.00,+1.00,+7.00,-9.00
-3.00,+0.00,-3.00,-2.00,-1.00,-1.00,-1.00,-1.00,-2.00,-1.00,-2.00,-1.00,-5.00,+0.00,+1.00,+2.00
-10.00,-1.00,-6.00,-3.00,+1.00,+2.00,+1.00,-8.00,-2.00,-4.00,-5.00,+1.00,+1.00,-1.00,-3.00,+1.00
+6.00,+5.00,+0.00,+4.00,-2.00,-2.00,+1.00,+3.00,-2.00,-2.00,-2.00,-2.00,+4.00,-1.00,-7.00,-5.00
+1.00,+1.00,+0.00,-2.00,-1.00,-1.00,-3.00,+6.00,-1.00,+3.00,+3.00,-1.00,-8.00,-1.00,+2.00,-2.00
-3.00,-1.00,-3.00,-4.00,+0.00,-2.00,-3.00,-18.00,+0.00,-3.00,-1.00,-3.00,-2.00,-1.00,+2.00,+1.00
-3.00,-4.00,+3.00,+2.00,+1.00,+1.00,-2.00,-4.00,-1.00,-1.00,-1.00,+3.00,+9.00,-2.00,-7.00,-10.00
+0.00,+0.00,-5.00,+1.00,+3.00,+1.00,-1.00,-3.00,+0.00,-5.00,-5.00,-4.00,-12.00,-2.00,+4.00,+11.00
+3.00,+3.00,+13.00,+8.00,-1.00,-3.00,+1.00,+13.00,+1.00,-2.00,-4.00,-1.00,+0.00,-2.00,+0.00,+5.00
-1.00,-1.00,-4.00,-8.00,-4.00,-2.00,-4.00,+0.00,-1.00,+1.00,+0.00,-1.00,-1.00,+0.00,+4.00,+2.00
-5.00,-5.00,-14.00,-11.00,-8.00,-6.00,-4.00,-7.00,+0.00,+5.00,+4.00,-1.00,+1.00,+1.00,-3.00,+8.00
+5.00,-2.00,+1.00,+0.00,+0.00,+6.00,+2.00,-16.00,-2.00,-6.00,-1.00,+1.00,+2.00,+0.00,-5.00,-7.00
+4.00,+8.00,+3.00,+4.00,+4.00,-2.00,+2.00,+12.00,-4.00,-1.00,-1.00,-4.00,-4.00,-2.00,-3.00,+0.00
-5.00,-1.00,+8.00,+5.00,+0.00,-3.00,-2.00,-1.00,-2.00,-2.00,+0.00,-3.00,-1.00,+0.00,+5.00,-1.00
+0.00,-1.00,-5.00,+2.00,+1.00,-1.00,+0.00,-4.00,-2.00,-3.00,-5.00,-3.00,+0.00,-2.00,+0.00,+1.00
-2.00,-6.00,-7.00,-2.00,-6.00,-4.00,+0.00,-5.00,+1.00,+2.00,+0.00,-2.00,+1.00,+1.00,-6.00,-5.00
-7.00,-7.00,-3.00,-11.00,-2.00,+2.00,-2.00,-5.00,-1.00,-5.00,-5.00,+0.00,+1.00,-1.00,+2.00,-8.00
+11.00,+0.00,-13.00,-8.00,-1.00,-3.00,+0.00,+15.00,+1.00,+1.00,-1.00,-1.00,-2.00,-2.00,+7.00,+4.00
-3.00,-2.00,+3.00,+1.00,+0.00,-1.00,-3.00,-5.00,-1.00,-2.00,+1.00,+1.00,-2.00,-1.00,+1.00,+10.00
+3.00,-2.00,+2.00,+3.00,+0.00,-2.00,+1.00,+8.00,-3.00,+5.00,+3.00,-1.00,+0.00,-2.00,+0.00,-7.00
+0.00,+4.00,+2.00,+4.00,+2.00,+1.00,-1.00,-11.00,-2.00,-7.00,-4.00,+0.00,+0.00,-3.00,-27.00,-3.00
+0.00,+1.00,+5.00,+1.00,+0.00,+0.00,-1.00,-4.00,-3.00,-3.00,-5.00,-4.00,-1.00,-2.00,+0.00,-6.00
-2.00,+1.00,+3.00,+2.00,+2.00,+2.00,-2.00,+2.00,-2.00,+0.00,+1.00,+0.00,-1.00,+1.00,+6.00,-10.00
-4.00,-3.00,-6.00,-4.00,+1.00,-3.00,-3.00,-4.00,+2.00,+0.00,+3.00,+1.00,+1.00,+1.00,+5.00,+9.00
-1.00,-4.00,+0.00,+2.00,-1.00,-2.00,+3.00,+14.00,+0.00,-2.00,-2.00,+0.00,+0.00,-1.00,+7.00,-9.00
-4.00,-3.00,+0.00,-2.00,-2.00,+1.00,-1.00,-1.00,-2.00,+2.00,-1.00,-3.00,-5.00,-3.00,-1.00,+23.00
+2.00,+1.00,-6.00,-1.00,-1.00,-2.00,-2.00,-2.00,-2.00,-4.00,-3.00,-3.00,-1.00,-2.00,-18.00,-3.00
+1.00,-3.00,+7.00,-4.00,-4.00,-4.00,-5.00,-2.00,-1.00,-3.00,-1.00,+2.00,+6.00,+0.00,+19.00,-1.00
-19.00,-5.00,-15.00,-3.00,+0.00,+0.00,+1.00,-56.00,-2.00,+5.00,+4.00,-2.00,-5.00,-2.00,-10.00,+6.00
+7.00,-1.00,+1.00,+4.00,+0.00,+1.00,+3.00,+36.00,+0.00,-1.00,-3.00,-4.00,-6.00,-1.00,-3.00,-20.00
