-2.00,-3.00,+2.00,+1.00,-1.00,-2.00,-2.00,-1.00,-1.00,-2.00,-2.00,-1.00,-1.00,+1.00,+0.00,+0.00
-1.00,-1.00,-3.00,-3.00,-2.00,-2.00,-2.00,-1.00,+0.00,+4.00,+1.00,+2.00,-1.00,-1.00,+2.00,+1.00
-2.00,-2.00,-7.00,-7.00,-2.00,-1.00,+0.00,-1.00,-2.00,-4.00,-5.00,-3.00,-3.00,-2.00,+0.00,-2.00
-3.00,-1.00,+1.00,-1.00,-1.00,+0.00,-1.00,-1.00,+0.00,+0.00,+2.00,+1.00,+0.00,-2.00,-2.00,-1.00
-2.00,-1.00,-1.00,+1.00,+0.00,+0.00,+1.00,+1.00,+0.00,+0.00,-2.00,+1.00,-3.00,-3.00,-2.00,-1.00
+2.00,+0.00,+4.00,+2.00,+0.00,-1.00,+2.00,+0.00,-1.00,+1.00,+1.00,+1.00,-2.00,+0.00,-1.00,+2.00
-2.00,+0.00,-1.00,+3.00,+0.00,-1.00,-1.00,-4.00,+1.00,-6.00,-1.00,-2.00,-1.00,-2.00,-2.00,-4.00
+1.00,-3.00,-4.00,+2.00,+0.00,+0.00,-3.00,+0.00,+1.00,+0.00,-1.00,-3.00,+0.00,-1.00,-1.00,-3.00
-3.00,+0.00,+8.00,-2.00,-2.00,-2.00,-1.00,-2.00,-1.00,+3.00,+0.00,-3.00,+1.00,-1.00,-2.00,-2.00
-3.00,+0.00,-8.00,-5.00,+0.00,-2.00,+0.00,+0.00,-7.00,-10.00,-3.00,-4.00,-1.00,-2.00,-2.00,-9.00
+2.00,+0.00,-4.00,-5.00,-2.00,-1.00,-1.00,+0.00,-6.00,+6.00,+2.00,+2.00,+0.00,+1.00,+0.00,+1.00
+0.00,-2.00,-4.00,-1.00,-2.00,+0.00,-1.00,-1.00,+7.00,-10.00,+3.00,+5.00,-2.00,+1.00,+4.00,+12.00
-3.00,+1.00,+2.00,+3.00,-1.00,-2.00,-1.00,-3.00,+4.00,+14.00,-1.00,-2.00,-3.00,-2.00,+1.00,+5.00
+1.00,+0.00,+5.00,+2.00,+0.00,-1.00,-1.00,-1.00,+5.00,+3.00,-1.00,-2.00,+1.00,+2.00,+0.00,+2.00
+0.00,-9.00,-3.00,-2.00,+0.00,+0.00,+0.00,+3.00,-1.00,-11.00,-3.00,-1.00,+1.00,-2.00,-3.00,-2.00
+0.00,-7.00,-1.00,-2.00,-4.00,-2.00,-1.00,+0.00,+1.00,+18.00,+6.00,+0.00,+0.00,+0.00,-2.00,-6.00
-4.00,+8.00,-4.00,-7.00,+0.00,+3.00,-1.00,-2.00,-6.00,-12.00,-9.00,+0.00,+0.00,+2.00,-4.00,-7.00
-2.00,+0.00,-1.00,+0.00,+0.00,-1.00,-2.00,-6.00,-10.00,-11.00,-4.00,-2.00,-3.00,+0.00,+3.00,+0.00
+2.00,+1.00,-1.00,+3.00,-1.00,-1.00,-3.00,+0.00,-10.00,-1.00,-3.00,+0.00,-1.00,+0.00,+0.00,+0.00
-5.00,-18.00,+3.00,+0.00,+1.00,+1.00,-1.00,-2.00,-5.00,-17.00,-1.00,-1.00,-2.00,-3.00,-2.00,-3.00
+0.00,-6.00,-7.00,+3.00,+2.00,+1.00,+1.00,-3.00,+6.00,+23.00,+2.00,-3.00,-3.00,-16.00,-6.00,-6.00
-4.00,-12.00,+3.00,+3.00,-2.00,-2.00,-1.00,-3.00,-14.00,-21.00,-4.00,+1.00,+11.00,-3.00,+3.00,-1.00
+12.00,+29.00,+7.00,-1.00,-2.00,-1.00,-5.00,+5.00,+13.00,+4.00,-1.00,-3.00,-12.00,+39.00,-3.00,-6.00
+1.00,+22.00,+0.00,-3.00,-2.00,-2.00,-3.00,-1.00,+9.00,+25.00,+3.00,-2.00,-6.00,-5.00,-9.00,+8.00
+4.00,-7.00,+1.00,-3.00,-4.00,-1.00,+0.00,+4.00,-28.00,-28.00,-7.00,-3.00,-4.00,+10.00,-1.00,-8.00
-3.00,-4.00,-10.00,-7.00,+0.00,-1.00,-3.00,+0.00,+3.00,+1.00,+1.00,+0.00,+0.00,-16.00,-3.00,+4.00
-8.00,-36.00,-9.00,+0.00,-2.00,+0.00,-14.00,-2.00,+0.00,-4.00,-5.00,-2.00,-1.00,-15.00,+0.00,+1.00
-2.00,+14.00,+6.00,+0.00,+4.00,-3.00,+1.00,-1.00,-1.00,-21.00,-8.00,+0.00,+0.00,+7.00,+1.00,-6.00
-7.00,-19.00,-4.00,+0.00,-5.00,-3.00,+3.00,-4.00,-4.00,-4.00,+4.00,+1.00,+2.00,-7.00,-1.00,-7.00
+19.00,+38.00,+10.00,+4.00,-1.00,+1.00,+6.00,+6.00,-7.00,+17.00,+8.00,-1.00,+1.00,+2.00,+2.00,+5.00
-8.00,+9.00,+3.00,+1.00,+0.00,+0.00,-2.00,-2.00,+7.00,+0.00,-1.00,-4.00,-6.00,-7.00,-2.00,-2.00
-2.00,-6.00,+0.00,+1.00,-1.00,+0.00,-4.00,-6.00,-1.00,+7.00,-1.00,-5.00,-4.00,-2.00,-3.00,-5.00
-8.00,-17.00,-8.00,-4.00,-4.00,-4.00,-1.00,-3.00,-1.00,-40.00,-10.00,-1.00,+3.00,-3.00,+2.00,+4.00
+2.00,-7.00,-2.00,-2.00,-3.00,+1.00,-6.00,+1.00,+4.00,+31.00,+2.00,+0.00,-2.00,+3.00,-4.00,-7.00
+20.00,-7.00,-7.00,-1.00,-1.00,-1.00,+7.00,-4.00,+1.00,+11.00,+6.00,+3.00,+3.00,+0.00,+2.00,+8.00
+3.00,+23.00,-1.00,-3.00,+1.00,-1.00,+1.00,+5.00,-3.00,-4.00,-3.00,-1.00,+0.00,-7.00,-2.00,-1.00
+0.00,-9.00,+2.00,-1.00,+2.00,+2.00,+0.00,+0.00,+7.00,+5.00,+5.00,+1.00,-2.00,+2.00,+1.00,+4.00
-12.00,-11.00,-4.00,-3.00,-1.00,-2.00,-1.00,-5.00,+2.00,-11.00,-7.00,-1.00,-3.00,+6.00,-2.00,-3.00
+0.00,+5.00,+2.00,+2.00,+0.00,-1.00,+2.00,-2.00,+1.00,+1.00,-2.00,-2.00,+0.00,-10.00,-2.00,-3.00
-2.00,-19.00,-7.00,-1.00,-1.00,-1.00,+4.00,+0.00,-9.00,-6.00,+1.00,+1.00,+0.00,+0.00,+1.00,-5.00
+8.00,+15.00,+1.00,+1.00,-1.00,+0.00,-5.00,+2.00,+0.00,-5.00,+2.00,+0.00,+2.00,+3.00,+2.00,+2.00
+1.00,-8.00,-2.00,-1.00,-1.00,-1.00,-1.00,+0.00,+8.00,+6.00,+0.00,-3.00,-6.00,+0.00,-4.00,-1.00
-9.00,-3.00,+9.00,+2.00,+1.00,-1.00,+2.00,-1.00,-6.00,-5.00,-1.00,+0.00,+1.00,-8.00,-2.00,-2.00
+0.00,+19.00,-1.00,-1.00,-3.00,+2.00,-2.00,-1.00,-8.00,-25.00,-5.00,-4.00,-2.00,+0.00,+0.00,-2.00
-3.00,-3.00,+0.00,+1.00,-1.00,-1.00,+1.00,+3.00,+7.00,+21.00,+2.00,-2.00,+0.00,+3.00,-4.00,-1.00
-2.00,-6.00,-5.00,-2.00,-1.00,+0.00,+0.00,+0.00,+3.00,+9.00,+0.00,-1.00,+1.00,-2.00,+1.00,-1.00
-7.00,-8.00,-5.00,-2.00,+0.00,-1.00,+2.00,-3.00,-5.00,+10.00,+6.00,+1.00,+2.00,-3.00,-4.00,-3.00
-5.00,-15.00,-7.00,-9.00,-3.00,-1.00,-2.00,-2.00,-3.00,+4.00,-3.00,-1.00,+1.00,+3.00,+0.00,-1.00
+3.00,+11.00,-5.00,-7.00,-3.00,-1.00,-4.00,-2.00,+3.00,-1.00,-1.00,+0.00,-3.00,-1.00,+0.00,+2.00
-3.00,-6.00,+3.00,+5.00,+0.00,+0.00,+1.00,+0.00,-1.00,-17.00,-5.00,-1.00,-2.00,-1.00,-3.00,+1.00
-2.00,+1.00,+2.00,+2.00,+1.00,+2.00,+1.00,+1.00,-3.00,-15.00,-9.00,-5.00,-3.00,-2.00,-2.00,+2.00
+3.00,+3.00,+8.00,+6.00,-1.00,+1.00,+0.00,+0.00,+1.00,-1.00,+0.00,+1.00,+1.00,+1.00,-1.00,-5.00
+1.00,+5.00,-1.00,+1.00,+1.00,+0.00,-1.00,+0.00,-4.00,+18.00,+5.00,-1.00,-3.00,-3.00,+0.00,+0.00
-7.00,-9.00,-5.00,-6.00,-1.00,-1.00,-2.00,-2.00,+1.00,-14.00,-5.00,+1.00,+4.00,+2.00,-1.00,+1.00
-2.00,+4.00,+1.00,-1.00,-1.00,-2.00,+0.00,+4.00,+0.00,+14.00,+1.00,-1.00,-4.00,-2.00,-1.00,-7.00
+4.00,+8.00,+3.00,+0.00,-2.00,-2.00,-2.00,+0.00,-5.00,-23.00,-11.00,-5.00,-6.00,-6.00,-2.00,-5.00
-1.00,-12.00,-7.00,-3.00,+0.00,-1.00,+1.00,+2.00,-19.00,-34.00,-8.00,-1.00,-1.00,+1.00,+0.00,-4.00
+0.00,-4.00,-6.00,-3.00,-1.00,-2.00,-2.00,+0.00,+20.00,+46.00,+13.00,+3.00,+0.00,+3.00,+1.00,+6.00
-7.00,-6.00,-2.00,-1.00,-2.00,-3.00,-2.00,-4.00,+9.00,+17.00,+8.00,+7.00,+10.00,-25.00,-1.00,+4.00
-2.00,+13.00,+4.00,+1.00,-1.00,+0.00,+1.00,+0.00,-4.00,+20.00,-1.00,-7.00,-8.00,+12.00,+5.00,+4.00
-5.00,-17.00,-1.00,+0.00,-1.00,-3.00,-4.00,-4.00,+4.00,+3.00,-1.00,-4.00,-7.00,+29.00,-5.00,-3.00
+14.00,+59.00,+10.00,+3.00,-1.00,+3.00,+5.00,+0.00,-11.00,-22.00,-8.00,-1.00,-2.00,-2.00,-2.00,-3.00
-2.00,-10.00,+2.00,+1.00,+4.00,+1.00,-4.00,+6.00,-4.00,-46.00,-13.00,-4.00,+6.00,+6.00,-4.00,-8.00
+3.00,-13.00,-7.00,-2.00,-5.00,-5.00,-5.00,+2.00,+11.00,+29.00,+11.00,+2.00,-8.00,-18.00,+2.00,+6.00
-1.00,+3.00,+4.00,+1.00,-3.00,+0.00,+5.00,-3.00,+10.00,+32.00,+4.00,+1.00,+4.00,-13.00,-5.00,+6.00
-6.00,-3.00,-7.00,-6.00,+1.00,-2.00,+0.00,-3.00,-10.00,-6.00,-4.00,-4.00,-10.00,+4.00,-3.00,-7.00
-8.00,-15.00,-6.00,-6.00,-2.00,-3.00,-6.00,-5.00,-1.00,+7.00,+2.00,-1.00,-5.00,-6.00,-2.00,+1.00
+2.00,+6.00,-4.00,+0.00,-3.00,-1.00,+0.00,+0.00,+4.00,-12.00,-1.00,+1.00,+2.00,+0.00,+0.00,-6.00
-13.00,-8.00,+0.00,+2.00,+3.00,-1.00,-13.00,-6.00,-5.00,+2.00,+0.00,+0.00,+2.00,-24.00,+0.00,+0.00
-2.00,-20.00,-2.00,+0.00,-10.00,-7.00,+5.00,-1.00,-9.00,-12.00,-4.00,-3.00,-1.00,+9.00,-1.00,-8.00
+25.00,+37.00,+14.00,-1.00,+0.00,+1.00,+5.00,+8.00,+0.00,-5.00,-5.00,-1.00,+8.00,+31.00,+1.00,+1.00
+0.00,-20.00,-6.00,-1.00,+1.00,-1.00,+5.00,+0.00,-22.00,-29.00,-6.00,+1.00,+8.00,+1.00,-2.00,-10.00
+3.00,+20.00,-4.00,-5.00,-2.00,-1.00,-9.00,+0.00,+3.00,+1.00,-3.00,-4.00,-10.00,+9.00,+2.00,+5.00
-15.00,-31.00,-4.00,-2.00,+0.00,-2.00,-9.00,-8.00,-4.00,+47.00,+11.00,+3.00,-2.00,-29.00,-3.00,-5.00
+11.00,+5.00,+2.00,+3.00,-2.00,+3.00,+6.00,+5.00,-2.00,-8.00,-2.00,-2.00,-8.00,-9.00,+1.00,-2.00
-13.00,+7.00,-1.00,-2.00,+4.00,-2.00,-11.00,-8.00,+22.00,+35.00,+6.00,-2.00,+2.00,+13.00,-5.00,+6.00
+1.00,+6.00,+5.00,+3.00,+0.00,-2.00,+4.00,+2.00,+4.00,-24.00,+0.00,+5.00,+7.00,-13.00,-1.00,-2.00
-17.00,-28.00,-4.00,-6.00,-12.00,-4.00,-2.00,-8.00,-22.00,-22.00,-14.00,-2.00,-1.00,-2.00,-3.00,-5.00
+9.00,+6.00,-9.00,-3.00,-3.00,+2.00,+2.00,+2.00,-9.00,-35.00,+2.00,-4.00,-5.00,+3.00,+3.00,+3.00
-4.00,-16.00,+0.00,+0.00,+3.00,+4.00,-1.00,+1.00,+0.00,-16.00,-3.00,+9.00,+17.00,-33.00,+10.00,-4.00
+0.00,-10.00,-2.00,+2.00,+2.00,-5.00,-3.00,-1.00,+21.00,+87.00,+15.00,-13.00,-12.00,+56.00,-4.00,+12.00
+6.00,+19.00,-1.00,+0.00,+7.00,+3.00,+3.00,+3.00,+20.00,+8.00,+0.00,-8.00,-10.00,-20.00,-18.00,-2.00
-16.00,-19.00,+0.00,-1.00,-8.00,-1.00,-3.00,-6.00,-19.00,-9.00,+4.00,+2.00,+0.00,+13.00,-2.00,-6.00
+12.00,+14.00,+6.00,+1.00,+4.00,-9.00,+4.00,+2.00,-24.00,-36.00,-16.00,-2.00,+3.00,-20.00,-5.00,+0.00
-11.00,-31.00,-14.00,-4.00,+4.00,+22.00,-36.00,-9.00,-22.00,-75.00,-9.00,-5.00,-5.00,-14.00,+1.00,-15.00
+15.00,+40.00,+12.00,+4.00,-7.00,-1.00,+50.00,+10.00,+38.00,+3.00,+5.00,+10.00,+22.00,+21.00,+9.00,+4.00
-13.00,-57.00,-10.00,+1.00,+2.00,+7.00,+9.00,-6.00,-4.00,+64.00,+4.00,-12.00,-15.00,-21.00,-7.00,+2.00
+14.00,+55.00,+11.00,-1.00,+2.00,+2.00,-2.00,+3.00,+12.00,+14.00,+4.00,-6.00,-22.00,+3.00,+0.00,+7.00
-5.00,+1.00,-5.00,-11.00,-5.00,-4.00,+13.00,-5.00,-20.00,-48.00,-14.00,-1.00,-13.00,-5.00,-1.00,-7.00
+1.00,+1.00,-10.00,-2.00,-7.00,-7.00,-24.00,-6.00,+3.00,+29.00,+4.00,-5.00,-8.00,+6.00,-1.00,+1.00
+4.00,+32.00,+16.00,+9.00,-8.00,-7.00,-12.00,+8.00,+4.00,-22.00,-4.00,+11.00,+25.00,-10.00,-2.00,-9.00
+2.00,-1.00,+6.00,+1.00,+1.00,+1.00,+9.00,+0.00,-5.00,+23.00,-4.00,-8.00,-3.00,+9.00,-5.00,-5.00
+8.00,+10.00,+0.00,+1.00,+2.00,-5.00,-3.00,-2.00,-6.00,+0.00,+2.00,+2.00,+12.00,+4.00,+2.00,+5.00
-10.00,-6.00,-2.00,-2.00,+5.00,+1.00,-19.00,+0.00,-2.00,-35.00,-1.00,+2.00,-7.00,-57.00,-5.00,-1.00
-15.00,-4.00,-11.00,-4.00,-7.00,-12.00,+2.00,-10.00,+3.00,-2.00,-4.00,+0.00,+1.00,+53.00,+17.00,+8.00
-9.00,-41.00,-9.00,-1.00,-4.00,-2.00,-7.00,-5.00,+17.00,+24.00,+3.00,+9.00,+20.00,+20.00,-6.00,-6.00
-1.00,+24.00,+8.00,+2.00,+3.00,-5.00,+6.00,+3.00,-1.00,+7.00,+0.00,-8.00,-30.00,-15.00,-8.00,-2.00
+3.00,-26.00,-3.00,+0.00,+0.00,+0.00,-6.00,-1.00,-5.00,+10.00,+6.00,+6.00,+14.00,-2.00,+2.00,+2.00
+14.00,+61.00,+7.00,+0.00,+8.00,+7.00,+7.00,+3.00,-7.00,-4.00,-4.00,-15.00,-19.00,-31.00,-26.00,-10.00
-1.00,+45.00,+4.00,-1.00,-1.00,-3.00,-18.00,-2.00,-6.00,-31.00,-11.00,-3.00,-18.00,+2.00,+2.00,+2.00
-3.00,-13.00,-6.00,-3.00,-5.00,-2.00,-3.00,+0.00,+8.00,+25.00,+5.00,+3.00,+22.00,+0.00,+1.00,-8.00
+0.00,+14.00,+1.00,-2.00,+1.00,+14.00,+12.00,+3.00,+2.00,+7.00,+5.00,+23.00,+14.00,+19.00,+15.00,+13.00
-8.00,+0.00,+5.00,+1.00,-1.00,-8.00,+2.00,-5.00,+24.00,+16.00,-3.00,-17.00,-24.00,-7.00,+2.00,+1.00
-8.00,-22.00,-10.00,-3.00,+8.00,+11.00,-9.00,-5.00,-14.00,-31.00,-10.00,+1.00,+12.00,+3.00,-3.00,-5.00
+0.00,+18.00,+1.00,-3.00,+2.00,-5.00,-8.00,+0.00,+7.00,+10.00,+2.00,-9.00,-27.00,-63.00,-8.00,+2.00
+2.00,-1.00,-2.00,+1.00,-5.00,-10.00,-13.00,-7.00,-18.00,+14.00,+12.00,+7.00,+19.00,+66.00,+10.00,+4.00
-8.00,-39.00,+2.00,+3.00,-2.00,-3.00,+9.00,+7.00,-5.00,+0.00,-1.00,+8.00,+11.00,+1.00,+0.00,-5.00
-1.00,-29.00,-8.00,-3.00,+0.00,+1.00,-8.00,-5.00,+4.00,-5.00,+2.00,+0.00,+2.00,+4.00,+13.00,+8.00
-4.00,-52.00,+2.00,+0.00,-22.00,-5.00,+15.00,+1.00,+14.00,+24.00,+7.00,+9.00,+0.00,-4.00,-3.00,+5.00
-1.00,+42.00,+3.00,-1.00,+9.00,-1.00,-13.00,-2.00,-7.00,-45.00,-15.00,-6.00,+5.00,-17.00,-8.00,-4.00
+7.00,+1.00,-11.00,-4.00,+11.00,-4.00,-6.00,-5.00,+2.00,+10.00,-6.00,-4.00,-26.00,-9.00,+0.00,+5.00
-12.00,-39.00,-3.00,+0.00,-13.00,-5.00,-17.00,+0.00,-4.00,+17.00,+12.00,-3.00,-2.00,+1.00,+3.00,-4.00
+8.00,+16.00,+12.00,+8.00,+1.00,+1.00,+29.00,+6.00,-1.00,-24.00,-15.00,+3.00,+25.00,+4.00,+3.00,-2.00
-6.00,-22.00,+3.00,+3.00,+4.00,+3.00,+14.00,+2.00,-6.00,-22.00,-4.00,-12.00,-30.00,-1.00,-4.00,-11.00
-5.00,-18.00,-7.00,-3.00,-2.00,+1.00,-4.00,-4.00,+4.00,+10.00,+2.00,+9.00,+16.00,+8.00,+3.00,+3.00
-1.00,-9.00,-7.00,-8.00,+1.00,+2.00,+6.00,-3.00,-8.00,+18.00,+4.00,-4.00,-8.00,+0.00,-3.00,-4.00
+5.00,+9.00,-11.00,-6.00,+0.00,-4.00,-11.00,+0.00,+11.00,+0.00,-4.00,-1.00,+2.00,-52.00,-13.00,-7.00
-6.00,+3.00,-2.00,-1.00,-8.00,-5.00,-13.00,+1.00,-4.00,-20.00,-13.00,-7.00,-9.00,+28.00,+6.00,+7.00
+6.00,-3.00,+3.00,+3.00,+7.00,-21.00,-4.00,+1.00,-1.00,+0.00,+8.00,+4.00,-6.00,+6.00,+0.00,-4.00
-10.00,+12.00,+0.00,+1.00,-6.00,+22.00,+18.00,+4.00,+1.00,-17.00,-7.00,-3.00,-5.00,+9.00,-3.00,+0.00
+14.00,+46.00,+1.00,-1.00,+3.00,-8.00,-17.00,-4.00,-33.00,-4.00,-3.00,+2.00,+9.00,+25.00,+4.00,-5.00
+5.00,-3.00,+7.00,+3.00,-4.00,+10.00,+19.00,+3.00,+11.00,-4.00,-1.00,-4.00,+22.00,-13.00,-3.00,-5.00
-12.00,-18.00,+0.00,+2.00,+3.00,-8.00,-22.00,-6.00,-9.00,-17.00,-10.00,-3.00,-26.00,-19.00,+7.00,+4.00
+18.00,+1.00,+1.00,+1.00,-4.00,+1.00,+14.00,+7.00,+10.00,+48.00,+14.00,-4.00,-6.00,-8.00,-11.00,+0.00
-15.00,-15.00,-10.00,-7.00,-2.00,-3.00,-23.00,-8.00,+24.00,+11.00,-2.00,+0.00,-3.00,+10.00,+4.00,+2.00
-17.00,-51.00,-7.00,-6.00,-9.00,-4.00,+7.00,-2.00,-19.00,-32.00,-12.00,-1.00,+11.00,-15.00,-7.00,-6.00
+11.00,+47.00,+1.00,-4.00,+8.00,+5.00,-2.00,+4.00,-20.00,-12.00,-2.00,-1.00,+3.00,-26.00,-8.00,-5.00
+0.00,+16.00,+11.00,+3.00,-1.00,-3.00,-1.00,+0.00,+5.00,+4.00,-3.00,-7.00,-5.00,+27.00,+3.00,-3.00
+4.00,-20.00,-4.00,+4.00,+13.00,+8.00,+1.00,+4.00,-12.00,-5.00,+3.00,-2.00,+5.00,+34.00,+11.00,+0.00
-1.00,-26.00,-3.00,+0.00,+2.00,-6.00,-12.00,-3.00,-4.00,+14.00,+10.00,+5.00,-14.00,-23.00,-8.00,-4.00
+10.00,+54.00,+7.00,+0.00,-8.00,+6.00,+0.00,-2.00,-16.00,-30.00,-10.00,-3.00,+23.00,+7.00,+3.00,-7.00
-9.00,-10.00,-7.00,-5.00,-4.00,-40.00,+0.00,-3.00,+22.00,+23.00,-12.00,-6.00,-15.00,-43.00,-9.00,+10.00
-1.00,-14.00,+3.00,-1.00,-7.00,+7.00,+7.00,+2.00,-2.00,-32.00,+5.00,+8.00,+15.00,+5.00,-14.00,+2.00
+3.00,-6.00,-2.00,-1.00,+3.00,-15.00,-17.00,-1.00,-45.00,+16.00,-5.00,-11.00,-18.00,+12.00,-3.00,-26.00
-7.00,-38.00,-10.00,-1.00,+5.00,+31.00,+3.00,-3.00,+30.00,-9.00,-8.00,-1.00,-9.00,-25.00,+6.00,+4.00
-14.00,-7.00,-8.00,-1.00,-7.00,-9.00,+22.00,-7.00,-8.00,-2.00,+11.00,+8.00,-8.00,+22.00,+3.00,-3.00
-5.00,+11.00,+4.00,-3.00,-5.00,+0.00,+41.00,-3.00,+33.00,-15.00,-11.00,-13.00,-8.00,+13.00,+8.00,+11.00
-2.00,-21.00,+1.00,+5.00,+31.00,+4.00,-25.00,+2.00,-3.00,+31.00,+12.00,+0.00,-3.00,-14.00,-8.00,-14.00
+20.00,+50.00,+2.00,-6.00,-30.00,-9.00,-7.00,+10.00,-5.00,+2.00,+2.00,+1.00,+5.00,-14.00,-7.00,-11.00
+4.00,-16.00,-3.00,+0.00,+15.00,-2.00,-25.00,-2.00,+6.00,+25.00,+1.00,-1.00,+18.00,+37.00,+4.00,+7.00
-9.00,-20.00,-2.00,+4.00,-1.00,+15.00,+34.00,+2.00,-16.00,-2.00,+0.00,+9.00,+20.00,+27.00,+22.00,+1.00
-5.00,-6.00,+2.00,-2.00,-5.00,+5.00,+13.00,-2.00,-1.00,-27.00,-11.00,-13.00,-21.00,-26.00,-15.00,+4.00
-9.00,-17.00,-9.00,-2.00,-1.00,-9.00,-8.00,-6.00,-11.00,-2.00,-1.00,-3.00,-13.00,-21.00,-12.00,-5.00
-6.00,+37.00,+4.00,+2.00,+3.00,+8.00,+6.00,-2.00,+25.00,-10.00,+3.00,+5.00,+14.00,-7.00,+7.00,+18.00
-11.00,-17.00,+4.00,-3.00,-5.00,-33.00,-18.00,-10.00,-15.00,+21.00,+5.00,-7.00,-24.00,-12.00,-16.00,-18.00
+19.00,+39.00,+6.00,+1.00,+1.00,-7.00,-53.00,-4.00,+31.00,+4.00,+1.00,+4.00,+17.00,+13.00,+18.00,+23.00
+6.00,+30.00,+7.00,+2.00,+13.00,+25.00,+79.00,+17.00,+9.00,+12.00,+9.00,+3.00,+4.00,+16.00,-10.00,-4.00
+0.00,-18.00,-6.00,-5.00,-22.00,+3.00,+1.00,+2.00,-50.00,+16.00,+5.00,+9.00,+33.00,-6.00,+4.00,-4.00
+2.00,-4.00,-3.00,+1.00,+6.00,-8.00,-16.00,-1.00,+14.00,-6.00,-13.00,-21.00,-69.00,-13.00,+2.00,+7.00
+0.00,+7.00,-4.00,-3.00,-3.00,+3.00,-1.00,+5.00,-13.00,-59.00,-13.00,-3.00,-3.00,-19.00,+9.00,-6.00
-20.00,-44.00,-4.00,-3.00,-10.00,-15.00,-23.00,-13.00,+72.00,+43.00,+11.00,+4.00,+21.00,+66.00,+12.00,+7.00
+4.00,-22.00,-3.00,-1.00,+31.00,+9.00,-4.00,+6.00,-6.00,-4.00,-6.00,-7.00,-16.00,-22.00,-26.00,+4.00
+10.00,-2.00,+4.00,+1.00,-21.00,+6.00,+9.00,+10.00,-17.00,+19.00,+11.00,+10.00,+7.00,-8.00,-7.00,-23.00
-4.00,+27.00,+1.00,-1.00,+2.00,+6.00,+14.00,-5.00,+26.00,+36.00,-3.00,-5.00,-5.00,-6.00,-2.00,+19.00
-26.00,-41.00,-17.00,-8.00,-10.00,-6.00,-27.00,-13.00,-15.00,-41.00,-1.00,+3.00,+2.00,-5.00,+7.00,+4.00
+16.00,+8.00,+6.00,+4.00,+6.00,-3.00,+12.00,+4.00,-20.00,-32.00,-4.00,-10.00,-23.00,-8.00,+2.00,-17.00
+7.00,+55.00,+14.00,+6.00,+16.00,+11.00,+15.00,+2.00,+2.00,+2.00,-1.00,+1.00,+10.00,-2.00,-5.00,+1.00
+13.00,+4.00,-8.00,-3.00,-21.00,-1.00,+2.00,+8.00,-8.00,-13.00,-16.00,-11.00,-10.00,-2.00,-6.00,-9.00
+2.00,+4.00,+0.00,-5.00,+0.00,-39.00,+6.00,-3.00,-33.00,-7.00,+13.00,+6.00,+4.00,+9.00,+6.00,+4.00
-38.00,-46.00,-12.00,-3.00,+4.00,+21.00,-22.00,-20.00,-3.00,-25.00,+0.00,+13.00,+6.00,-34.00,-10.00,-10.00
+12.00,+53.00,+12.00,+2.00,-10.00,-14.00,-28.00,+2.00,-35.00,-27.00,-13.00,+5.00,+15.00,+31.00,+14.00,+9.00
+2.00,-13.00,+5.00,+1.00,+5.00,-3.00,+28.00,+6.00,+59.00,+18.00,+1.00,-12.00,-40.00,+15.00,-9.00,+4.00
-15.00,-1.00,-3.00,-4.00,-13.00,-11.00,-38.00,-16.00,+8.00,+63.00,+16.00,+3.00,-3.00,+7.00,+6.00,+8.00
+22.00,+41.00,-1.00,-3.00,-5.00,-10.00,+1.00,+6.00,+4.00,-29.00,-11.00,-7.00,-11.00,-25.00,-16.00,-14.00
-6.00,-53.00,+1.00,+5.00,+2.00,+12.00,+11.00,+8.00,-4.00,+11.00,+1.00,+2.00,+16.00,-7.00,+10.00,+8.00
-4.00,+28.00,+0.00,+1.00,+15.00,-7.00,+4.00,-6.00,-20.00,-1.00,-3.00,-7.00,-12.00,-25.00,-11.00,-14.00
-13.00,-46.00,-14.00,-4.00,-19.00,+11.00,-5.00,-4.00,-42.00,-67.00,-20.00,-1.00,+6.00,+20.00,+5.00,+8.00
+2.00,-31.00,+16.00,+6.00,+5.00,-8.00,-21.00,-1.00,-5.00,-18.00,+2.00,-2.00,-13.00,-4.00,-5.00,-1.00
+12.00,+20.00,-9.00,-3.00,+5.00,+23.00,+23.00,+10.00,-5.00,+22.00,+3.00,+6.00,+21.00,+4.00,-3.00,-13.00
-20.00,-33.00,-8.00,-5.00,-22.00,-26.00,-33.00,-13.00,-4.00,-24.00,-7.00,-3.00,-5.00,+14.00,+7.00,+19.00
+2.00,+16.00,-1.00,-1.00,+23.00,+9.00,+13.00,+1.00,+34.00,+48.00,+10.00,+12.00,+17.00,-16.00,-6.00,-18.00
-14.00,-93.00,+0.00,+0.00,-20.00,+26.00,+5.00,-4.00,-36.00,-28.00,-7.00,-18.00,-29.00,-34.00,-1.00,-4.00
+5.00,+27.00,+1.00,-1.00,+7.00,-4.00,-23.00,-7.00,-12.00,+9.00,-4.00,+6.00,+7.00,+33.00,-11.00,-15.00
+6.00,+17.00,+7.00,+3.00,+0.00,+5.00,+7.00,+1.00,+18.00,+25.00,+15.00,+7.00,+33.00,+19.00,+9.00,+8.00
+7.00,+19.00,+5.00,-1.00,+15.00,-5.00,-12.00,-2.00,-7.00,-39.00,-20.00,-19.00,-26.00,-19.00,-7.00,+7.00
-19.00,-54.00,-11.00,-6.00,-15.00,-16.00,+6.00,+3.00,-9.00,-44.00,-15.00,+2.00,+23.00,+28.00,+11.00,-6.00
-24.00,+4.00,-10.00,-7.00,-15.00,+2.00,-2.00,-5.00,+32.00,+58.00,+20.00,-8.00,-17.00,-38.00,-5.00,+9.00
+8.00,+2.00,-4.00,-1.00,+10.00,+5.00,+9.00,+12.00,-20.00,+7.00,-8.00,-8.00,-41.00,-28.00,-27.00,-18.00
+18.00,-26.00,+2.00,+10.00,-2.00,+12.00,+6.00,+6.00,-5.00,+6.00,-2.00,+2.00,+22.00,+15.00,+1.00,-6.00
+10.00,+84.00,-2.00,-7.00,+14.00,+1.00,+7.00,-1.00,+19.00,+30.00,-1.00,-1.00,-18.00,-1.00,+3.00,+8.00
-31.00,-18.00,-5.00,-5.00,+10.00,-11.00,-34.00,-14.00,-16.00,-63.00,-16.00,-8.00,-5.00,-7.00,-3.00,-15.00
+27.00,+26.00,+7.00,+2.00,-33.00,-9.00,+56.00,+7.00,-7.00,+21.00,+20.00,+18.00,+32.00,-13.00,+3.00,-3.00
+7.00,-16.00,-3.00,-4.00,+10.00,+5.00,-2.00,+9.00,-6.00,-18.00,-3.00,-3.00,-1.00,+26.00,+2.00,+9.00
+4.00,+7.00,-1.00,+2.00,-18.00,-13.00,-16.00,-3.00,-18.00,-21.00,-10.00,-2.00,-3.00,+10.00,+7.00,-14.00
+8.00,-15.00,-15.00,-5.00,+8.00,+4.00,-3.00,-3.00,+3.00,-18.00,+0.00,+5.00,+6.00,+6.00,+4.00,+32.00
-21.00,-23.00,-17.00,-7.00,+11.00,+4.00,-7.00,-6.00,+26.00,-1.00,+2.00,+10.00,+27.00,+8.00,-5.00,+0.00
-3.00,-19.00,+10.00,+3.00,+7.00,+11.00,+6.00,+1.00,-10.00,-7.00,-4.00,-7.00,-34.00,-31.00,-11.00,+2.00
-15.00,+5.00,-6.00,+1.00,-10.00,+8.00,+8.00,-3.00,+6.00,-3.00,+3.00,+6.00,+39.00,+10.00,+3.00,-11.00
+1.00,+6.00,+6.00,-4.00,+1.00,-17.00,-15.00,+4.00,-7.00,+38.00,+1.00,-10.00,-13.00,+15.00,+15.00,-8.00
+29.00,+22.00,+21.00,+8.00,+14.00,+26.00,+31.00,+7.00,-3.00,-3.00,+0.00,+1.00,-10.00,-28.00,-19.00,-1.00
-11.00,-10.00,-6.00,-2.00,-11.00,-9.00,+2.00,-5.00,+0.00,+4.00,+11.00,+3.00,+3.00,-1.00,+2.00,+0.00
-4.00,+30.00,-1.00,-2.00,-4.00,-8.00,-2.00,-6.00,+35.00,+31.00,-9.00,+0.00,-9.00,+10.00,+3.00,+18.00
-8.00,-45.00,-14.00,-4.00,-22.00,-12.00,-13.00,-1.00,+36.00,-3.00,-8.00,-13.00,-2.00,-20.00,-6.00,+7.00
-13.00,-45.00,-8.00,-7.00,+6.00,-9.00,+2.00,-7.00,-32.00,-9.00,+1.00,+2.00,+10.00,-2.00,+13.00,+0.00
+6.00,+30.00,+4.00,+7.00,+10.00,+10.00,+12.00,+8.00,-34.00,-18.00,+1.00,+13.00,+16.00,+42.00,+8.00,-9.00
+7.00,+2.00,+1.00,+0.00,+8.00,+2.00,+5.00,+7.00,-22.00,-45.00,-17.00,-8.00,-18.00,-3.00,-18.00,-20.00
+16.00,+1.00,-2.00,+0.00,+6.00,+2.00,+7.00,+5.00,+44.00,+47.00,+5.00,+8.00,+8.00,-2.00,+4.00,+21.00
-31.00,-16.00,-6.00,-4.00,-14.00,-10.00,-38.00,-23.00,+39.00,+28.00,+0.00,-7.00,-13.00,-1.00,+7.00,+13.00
-24.00,-67.00,-17.00,-9.00,-9.00,-7.00,+1.00,-7.00,+2.00,+32.00,+11.00,+4.00,+24.00,-15.00,-5.00,-16.00
+47.00,+93.00,+24.00,+5.00,-20.00,-27.00,-20.00,+9.00,+9.00,+10.00,+13.00,+17.00,+27.00,+23.00,+19.00,+22.00
+6.00,-28.00,-7.00,-3.00,-2.00,+9.00,+31.00,+7.00,-52.00,-62.00,-23.00,-16.00,-26.00,-40.00,-30.00,-40.00
+3.00,+15.00,+7.00,+4.00,+7.00,-3.00,-35.00,-8.00,+30.00,+9.00,+4.00,-1.00,+2.00,+17.00,-3.00,-2.00
+4.00,-3.00,-7.00,-1.00,+5.00,+8.00,+5.00,-3.00,+2.00,-18.00,-17.00,-8.00,-10.00,-15.00,+2.00,+22.00
-8.00,-4.00,+2.00,+2.00,+7.00,-3.00,+5.00,+1.00,+19.00,+74.00,+28.00,+8.00,+2.00,-30.00,-8.00,-5.00
-13.00,-25.00,-11.00,-5.00,-14.00,-27.00,-28.00,-7.00,-34.00,-31.00,-2.00,+8.00,+39.00,+50.00,+5.00,-11.00
-11.00,-3.00,+3.00,-5.00,+10.00,+14.00,+16.00,-1.00,-4.00,+18.00,+2.00,-10.00,-35.00,+2.00,+7.00,-10.00
+8.00,+65.00,+4.00,-5.00,-22.00,-13.00,-19.00,-5.00,-2.00,-31.00,-18.00,-7.00,+9.00,+5.00,-9.00,+3.00
+0.00,+11.00,+12.00,+3.00,+12.00,+13.00,+12.00,-5.00,+3.00,+18.00,+4.00,-9.00,-23.00,-27.00,-8.00,+6.00
+1.00,+5.00,+2.00,+7.00,+10.00,+1.00,-2.00,+0.00,+28.00,-4.00,+3.00,+7.00,+14.00,-9.00,+3.00,+8.00
+0.00,-8.00,-6.00,-1.00,-6.00,-22.00,+1.00,+4.00,-55.00,-29.00,+4.00,+12.00,+4.00,+28.00,+22.00,+1.00
+3.00,+3.00,+3.00,-1.00,+10.00,+5.00,-22.00,-6.00,-24.00,-10.00,-16.00,-13.00,-7.00,-28.00,-22.00,-8.00
-15.00,-31.00,-9.00,-4.00,-10.00,-12.00,-4.00,-5.00,+13.00,-14.00,-14.00,-16.00,-22.00,+0.00,+1.00,+8.00
+7.00,+23.00,+5.00,-2.00,+1.00,+13.00,+10.00,-5.00,-11.00,-9.00,-2.00,-4.00,-14.00,-12.00,-2.00,+4.00
-26.00,+1.00,-7.00,-2.00,-19.00,-12.00,-9.00,-9.00,+13.00,-6.00,+5.00,+8.00,+37.00,-8.00,-1.00,+0.00
+18.00,+14.00,+4.00,+2.00,+7.00,-2.00,+3.00,+7.00,-20.00,+19.00,+7.00,-10.00,-42.00,+27.00,+2.00,-31.00
+0.00,-64.00,-12.00,-5.00,-1.00,+7.00,-2.00,+3.00,+36.00,+6.00,-3.00,+1.00,-8.00,-9.00,+1.00,+23.00
-2.00,+72.00,+16.00,-1.00,-5.00,-4.00,+2.00,-3.00,-60.00,-62.00,+3.00,+1.00,+15.00,+42.00,+4.00,-22.00
+5.00,+2.00,+3.00,+3.00,+2.00,+10.00,-17.00,-3.00,+49.00,+75.00,+5.00,-7.00,-10.00,-14.00,+1.00,-1.00
-15.00,-28.00,-1.00,-3.00,+3.00,-8.00,+24.00,+2.00,-6.00,-61.00,-19.00,-8.00,-7.00,-7.00,+1.00,+7.00
-19.00,-53.00,-24.00,-6.00,-1.00,+1.00,-12.00,-7.00,-41.00,+60.00,+10.00,+4.00,+13.00,-17.00,-8.00,-13.00
+3.00,-16.00,+11.00,+3.00,+0.00,+4.00,+11.00,-4.00,+48.00,-7.00,+3.00,+3.00,+12.00,-16.00,-8.00,-5.00
+1.00,+8.00,-1.00,-3.00,+8.00,-13.00,-4.00,+2.00,-19.00,+6.00,-8.00,-12.00,-8.00,+4.00,+8.00,+14.00
+24.00,-10.00,-2.00,-1.00,+6.00,+39.00,-4.00,+4.00,+12.00,+26.00,+16.00,+3.00,-22.00,-11.00,-8.00,-15.00
+3.00,+64.00,+6.00,-1.00,+0.00,-23.00,+1.00,+2.00,-17.00,-42.00,-10.00,+0.00,-5.00,-17.00,-2.00,-15.00
+14.00,+19.00,+11.00,+3.00,+7.00,+7.00,+6.00,+2.00,-51.00,+31.00,+8.00,-2.00,+11.00,+40.00,-2.00,+3.00
-5.00,+7.00,-5.00,+1.00,+5.00,+7.00,+6.00,+7.00,+59.00,-11.00,-11.00,-7.00,-14.00,+8.00,-1.00,+20.00
-12.00,-10.00,+1.00,-3.00,+2.00,-16.00,+7.00,-5.00,+5.00,-1.00,-9.00,-2.00,+20.00,+0.00,+4.00,+2.00
-2.00,-14.00,-11.00,-2.00,+1.00,+12.00,+3.00,+6.00,-2.00,-37.00,-8.00,-2.00,-8.00,-5.00,-7.00,-1.00
-25.00,-105.00,-19.00,-7.00,-17.00,-2.00,-13.00,-10.00,-10.00,+68.00,+22.00,+6.00,-13.00,-27.00,-14.00,-27.00
+8.00,-63.00,-3.00,-1.00,+0.00,+4.00,+3.00,+5.00,-35.00,-50.00,-17.00,-9.00,-6.00,+1.00,+2.00,-8.00
+23.00,+21.00,+12.00,+6.00,-2.00,-4.00,-3.00,+8.00,+23.00,+39.00,+3.00,+6.00,+37.00,+3.00,-5.00,+2.00
+1.00,+12.00,+1.00,-3.00,+7.00,+8.00,-7.00,-5.00,-20.00,-5.00,+4.00,-14.00,-29.00,-15.00,-3.00,-13.00
+6.00,-27.00,-1.00,+1.00,+16.00,+6.00,+7.00,+5.00,-6.00,-47.00,-9.00,+3.00,+5.00,+19.00,+6.00,-4.00
-2.00,+4.00,-10.00,-1.00,+1.00,+7.00,-5.00,-1.00,-42.00,-40.00,-14.00,+2.00,+3.00,-41.00,-6.00,-1.00
-1.00,+19.00,+1.00,+0.00,-11.00,+4.00,+14.00,+4.00,+22.00,+14.00,+9.00,+13.00,+19.00,+39.00,+11.00,+5.00
-6.00,-18.00,-1.00,-3.00,-9.00,-15.00,-20.00,-10.00,-59.00,-49.00,-15.00,-15.00,-5.00,+19.00,-6.00,-17.00
-9.00,+15.00,+0.00,+2.00,+27.00,+8.00,-4.00,-3.00,+15.00,-4.00,-7.00,-9.00,-32.00,-26.00,-2.00,+13.00
+3.00,+8.00,+2.00,-5.00,-42.00,+14.00,+23.00,+3.00,+9.00,+34.00,+24.00,+9.00,+14.00,+13.00,+19.00,+21.00
+18.00,+28.00,+6.00,+3.00,+8.00,+10.00,-1.00,+2.00,+3.00,+1.00,+1.00,+3.00,-7.00,-29.00,-16.00,+4.00
+13.00,+25.00,+12.00,+6.00,+9.00,-3.00,+8.00,+7.00,+4.00,-6.00,+3.00,+12.00,+39.00,+31.00,+15.00,+5.00
+0.00,+14.00,-9.00,-5.00,-21.00,-6.00,+3.00,-5.00,+1.00,-40.00,-22.00,-12.00,-46.00,-14.00,-3.00,+2.00
-27.00,-7.00,-5.00,-5.00,+9.00,-13.00,-15.00,-14.00,-51.00,-70.00,-11.00,+4.00,+9.00,-1.00,-15.00,-28.00
+8.00,+57.00,+0.00,-1.00,+3.00,-9.00,-7.00,-2.00,+8.00,+29.00,+6.00,+4.00,+12.00,-5.00,+12.00,+8.00
-2.00,+11.00,-6.00,-4.00,-9.00,+8.00,+30.00,+9.00,+41.00,+58.00,+6.00,-8.00,-8.00,+34.00,+1.00,-6.00
+6.00,-26.00,-1.00,-1.00,-1.00,-12.00,-11.00,+3.00,-21.00,-16.00,-9.00,-4.00,-7.00,-57.00,-15.00,-19.00
+0.00,-11.00,+12.00,+2.00,+14.00,+23.00,+14.00,+2.00,-8.00,-14.00,-10.00,+4.00,-6.00,-11.00,+2.00,+24.00
-15.00,-4.00,-2.00,-2.00,-15.00,-15.00,-10.00,-7.00,-10.00,+3.00,+0.00,-4.00,+23.00,+38.00,+4.00,-4.00
+0.00,-14.00,-5.00,-1.00,+8.00,-7.00,-12.00,-6.00,+32.00,-25.00,-11.00,+2.00,-12.00,-2.00,+6.00,+0.00
-3.00,+21.00,-5.00,-3.00,-14.00,-27.00,-7.00,-5.00,+37.00,+91.00,+20.00,+6.00,-2.00,+16.00,+8.00,+15.00
+18.00,-8.00,-5.00,-2.00,+4.00,+17.00,+2.00,+4.00,-21.00,-28.00,+1.00,-2.00,+13.00,+20.00,+2.00,-9.00
-11.00,+55.00,+8.00,+1.00,+0.00,+11.00,+5.00,-11.00,+9.00,-9.00,+1.00,-7.00,-23.00,-33.00,-12.00,-2.00
-16.00,-37.00,-5.00,+0.00,-1.00,+13.00,+4.00,-2.00,-3.00,+23.00,+9.00,-1.00,+13.00,-6.00,-3.00,+9.00
-1.00,+16.00,+0.00,-2.00,+21.00,-2.00,-19.00,-5.00,+38.00,+31.00,-1.00,+1.00,+8.00,+3.00,+1.00,+8.00
+10.00,-7.00,+4.00,+3.00,-29.00,-2.00,+3.00,+4.00,-9.00,-2.00,-4.00,-5.00,-23.00,+0.00,-8.00,-12.00
-16.00,-61.00,+0.00,-2.00,+5.00,-10.00,-34.00,-7.00,-10.00,-48.00,-6.00,-9.00,-17.00,-11.00,+6.00,-9.00
+11.00,+15.00,+7.00,+1.00,-12.00,+2.00,+19.00,+8.00,-11.00,+42.00,+15.00,+10.00,+25.00,+20.00,+3.00,-7.00
-6.00,-13.00,-9.00,-2.00,-5.00,+5.00,+15.00,-1.00,+8.00,-45.00,-20.00,-6.00,+0.00,-31.00,+6.00,+10.00
+7.00,+5.00,-3.00,+0.00,+16.00,-3.00,-8.00,+0.00,-24.00,+48.00,+6.00,-5.00,+4.00,+36.00,-21.00,-33.00
-20.00,-31.00,-12.00,-4.00,-14.00,-8.00,-3.00,-5.00,+4.00,-12.00,+1.00,+3.00,+7.00,-9.00,+5.00,+17.00
-7.00,-5.00,-5.00,-2.00,+9.00,-2.00,-8.00,-5.00,-23.00,-17.00,+4.00,-3.00,-13.00,+5.00,+3.00,+17.00
+4.00,-40.00,+3.00,+1.00,-4.00,+12.00,-2.00,+6.00,+13.00,-2.00,+4.00,+5.00,+15.00,-3.00,+6.00,+1.00
+6.00,+81.00,+7.00,+0.00,+3.00,-6.00,+10.00,-2.00,+34.00,+50.00,+8.00,-3.00,-7.00,-6.00,+5.00,+7.00
+6.00,+18.00,+6.00,+2.00,+9.00,-13.00,-8.00,+4.00,-13.00,-48.00,-14.00,-4.00,-1.00,-3.00,-10.00,-7.00
+17.00,-11.00,-5.00,+1.00,-10.00,+25.00,+1.00,+4.00,+24.00,+45.00,-2.00,+2.00,+12.00,-26.00,-6.00,-3.00
-21.00,-36.00,+11.00,+4.00,-6.00,+12.00,-17.00,-17.00,-10.00,-43.00,-3.00,+2.00,-4.00,+37.00,+8.00,+18.00
+8.00,-6.00,-11.00,-2.00,+5.00,-16.00,+24.00,+6.00,-3.00,+24.00,+0.00,+5.00,+9.00,+3.00,-1.00,-17.00
-10.00,-32.00,-5.00,-2.00,-5.00,-1.00,+11.00,-5.00,-8.00,+7.00,+23.00,+0.00,-13.00,-4.00,+2.00,+2.00
-1.00,+9.00,-7.00,-7.00,+3.00,-5.00,+5.00,-1.00,+10.00,+6.00,-2.00,-1.00,+5.00,+3.00,+5.00,+17.00
-6.00,-42.00,+2.00,+1.00,+2.00,-8.00,-11.00,+3.00,-36.00,-52.00,-24.00,-12.00,-18.00,-77.00,-25.00,-27.00
+7.00,+25.00,+16.00,+4.00,+18.00,+20.00,+5.00,-3.00,+17.00,+32.00,+19.00,+8.00,+25.00,+69.00,+12.00,+31.00
+1.00,-29.00,-5.00,-1.00,-8.00,-5.00,+3.00,+5.00,-6.00,+75.00,+8.00,-5.00,-42.00,-16.00,-3.00,-4.00
-15.00,-28.00,-5.00,-3.00,-20.00,-2.00,-7.00,-14.00,+12.00,-17.00,-1.00,-2.00,+0.00,+4.00,-6.00,-4.00
-30.00,-10.00,-9.00,-5.00,-1.00,-8.00,+8.00,-13.00,-10.00,-1.00,-9.00,-3.00,+8.00,+10.00,-4.00,-5.00
+7.00,-25.00,+1.00,-3.00,-10.00,-7.00,-15.00,+0.00,+12.00,-23.00,-11.00,-1.00,-2.00,-26.00,-5.00,-14.00
-3.00,+72.00,+7.00,+8.00,-2.00,-2.00,+3.00,-3.00,+3.00,-24.00,-8.00,+7.00,+20.00,+1.00,+9.00,+1.00
-2.00,-9.00,+8.00,+2.00,+12.00,+1.00,-7.00,-1.00,+1.00,+16.00,-3.00,+0.00,-12.00,+9.00,+3.00,+13.00
+9.00,+46.00,+3.00,+2.00,-6.00,-5.00,+5.00,+5.00,+2.00,-27.00,+14.00,+12.00,+7.00,+8.00,-3.00,+14.00
-32.00,-62.00,-12.00,-4.00,-8.00,-11.00,-11.00,-12.00,-13.00,-51.00,-25.00,-12.00,+1.00,-11.00,-6.00,-20.00
+7.00,-23.00,-6.00,-4.00,+3.00,+1.00,-23.00,+0.00,-6.00,+99.00,+47.00,+11.00,-6.00,-88.00,+2.00,+19.00
-3.00,+5.00,+1.00,+4.00,+9.00,-25.00,+26.00,+5.00,-13.00,-63.00,-14.00,-3.00,-5.00,+85.00,-1.00,-9.00
+22.00,+111.00,+20.00,+8.00,+2.00,+18.00,+9.00,+1.00,+42.00,+6.00,+5.00,+5.00,+34.00,+9.00,+14.00,+17.00
-7.00,-14.00,-13.00,-3.00,+4.00,-7.00,+2.00,+5.00,+2.00,-10.00,-2.00,-13.00,-45.00,-4.00,-4.00,-6.00
-10.00,-106.00,-13.00,-11.00,-7.00,-7.00,-27.00,-9.00,+42.00,+24.00,-12.00,-3.00,+3.00,+13.00,+3.00,+2.00
+4.00,+36.00,+9.00,+8.00,+25.00,+25.00,+18.00,+22.00,-30.00,-24.00,-15.00,-4.00,+5.00,-43.00,-21.00,-31.00
+4.00,-36.00,-10.00,-2.00,-29.00,-20.00,-6.00,-5.00,+14.00,+46.00,+11.00,+4.00,+20.00,+29.00,+13.00,+12.00
+26.00,+84.00,+28.00,+9.00,-8.00,+4.00,+2.00,+15.00,-48.00,-39.00,-9.00,+10.00,+29.00,-30.00,-7.00,-18.00
+6.00,-24.00,-26.00,-12.00,+18.00,-1.00,+6.00,-1.00,+23.00,-46.00,+14.00,+2.00,-16.00,+41.00,+23.00,-34.00
+13.00,-45.00,-2.00,-4.00,-12.00,-27.00,-43.00,-9.00,-60.00,+40.00,-16.00,-22.00,-25.00,-30.00,-26.00,-4.00
+11.00,-14.00,-6.00,-5.00,+2.00,+29.00,+59.00,+22.00,-6.00,-26.00,-10.00,-6.00,+6.00,+26.00,-45.00,-19.00
-23.00,-59.00,-5.00,-1.00,+0.00,-6.00,-28.00,-12.00,+48.00,-12.00,-23.00,-18.00,-32.00,-28.00,+46.00,+31.00
-26.00,-37.00,-20.00,-7.00,+18.00,+28.00,+32.00,+2.00,-52.00,+3.00,+8.00,+11.00,+26.00,-48.00,-12.00,-9.00
+27.00,+66.00,-12.00,-3.00,-28.00,+20.00,-11.00,+9.00,+53.00,-3.00,-1.00,-2.00,+8.00,+71.00,+30.00,+5.00
-29.00,+9.00,+12.00,-6.00,+21.00,-11.00,+67.00,-13.00,-28.00,+2.00,+10.00,-5.00,-30.00,+14.00,+9.00,-9.00
+73.00,+74.00,+27.00,+7.00,+1.00,-27.00,-13.00,+23.00,-17.00,-19.00,+5.00,+12.00,+27.00,-8.00,-26.00,-4.00
-15.00,+15.00,+24.00,+5.00,-22.00,+5.00,+30.00,+13.00,+9.00,-42.00,-25.00,-1.00,+2.00,-31.00,-12.00,+18.00
-2.00,-42.00,-10.00,-4.00,+18.00,+29.00,-3.00,+18.00,+9.00,+26.00,+16.00,+5.00,+14.00,+22.00,+3.00,-6.00
-11.00,-24.00,-22.00,-10.00,-27.00,-12.00,-7.00,-9.00,-14.00,+21.00,-2.00,+3.00,-2.00,-53.00,-23.00,-18.00
-32.00,-10.00,-11.00,-6.00,+9.00,+14.00,-17.00,-12.00,-20.00,-3.00,+4.00,+4.00,+0.00,+26.00,-7.00,-26.00
+37.00,+31.00,+7.00,+3.00,-4.00,-51.00,-43.00,+0.00,+60.00,+2.00,-8.00,+0.00,-1.00,+34.00,+12.00,+27.00
-22.00,+4.00,+11.00,+0.00,-3.00,+5.00,-9.00,-24.00,+14.00,-3.00,+5.00,+7.00,-4.00,-45.00,-3.00,+11.00
+7.00,-7.00,-9.00,-3.00,-10.00,-27.00,-37.00,+9.00,-5.00,+25.00,+1.00,-6.00,-16.00,+16.00,+22.00,+2.00
-29.00,-76.00,-24.00,-9.00,+2.00,+5.00,+58.00,-1.00,+15.00,+18.00,+1.00,+5.00,+29.00,+0.00,+1.00,+10.00
-8.00,-60.00,-10.00,+0.00,+4.00,-7.00,-37.00,-11.00,-31.00,-34.00,-14.00,-9.00,-3.00,+23.00,-3.00,-12.00
+42.00,+87.00,+17.00,+4.00,-19.00,-21.00,+14.00,+11.00,-20.00,-40.00,+8.00,+4.00,-1.00,+3.00,-7.00,-7.00
+11.00,+16.00,+5.00,+2.00,+12.00,+36.00,-9.00,-3.00,+13.00,+57.00,+6.00,-5.00,-8.00,-9.00,+0.00,-5.00
+1.00,+0.00,+2.00,-1.00,-10.00,-1.00,-26.00,-1.00,-12.00,-36.00,+0.00,+4.00,+16.00,+11.00,-6.00,-2.00
-23.00,-8.00,-11.00,-3.00,+2.00,-4.00,+10.00,-7.00,+3.00,+24.00,-8.00,-14.00,-33.00,-10.00,-12.00,+3.00
-9.00,+20.00,+0.00,-3.00,+9.00,+8.00,+15.00,-9.00,+19.00,-2.00,+3.00,+5.00,-19.00,-3.00,+10.00,+5.00
+2.00,-40.00,+11.00,+9.00,+12.00,-2.00,-12.00,+10.00,+8.00,+11.00,-1.00,-10.00,-6.00,-47.00,-6.00,-7.00
-13.00,-48.00,-9.00,-3.00,-4.00,+0.00,-13.00,-11.00,+0.00,-25.00,+6.00,+7.00,-11.00,-8.00,-7.00,+21.00
-1.00,-1.00,-2.00,-3.00,-15.00,+7.00,+60.00,+7.00,+4.00,+5.00,-1.00,+0.00,+12.00,+86.00,+29.00,+14.00
+15.00,+57.00,+1.00,-3.00,+14.00,-4.00,-34.00,-4.00,-9.00,-43.00,-4.00,-1.00,+2.00,-56.00,-17.00,-19.00
-5.00,+4.00,-5.00,-2.00,+5.00,-12.00,-50.00,-2.00,-9.00,+6.00,-17.00,-9.00,-14.00,-7.00,-4.00,-12.00
-25.00,-35.00,-8.00,-2.00,+0.00,+17.00,+26.00,-4.00,+3.00,+4.00,-10.00,+0.00,+14.00,-12.00,-10.00,+2.00
-8.00,+13.00,+5.00,-2.00,-19.00,-4.00,+11.00,-17.00,+13.00,-20.00,-7.00,-8.00,-14.00,-7.00,-3.00,+5.00
+5.00,-39.00,+3.00,+12.00,+4.00,-19.00,-31.00,+34.00,-45.00,-41.00,-10.00,-7.00,-2.00,+18.00,+3.00,-14.00
+28.00,+26.00,-2.00,-4.00,+13.00,+21.00,+36.00,+5.00,-27.00,-17.00,+9.00,+3.00,-8.00,-23.00,-4.00,+15.00
-5.00,+18.00,-7.00,-7.00,-12.00,-28.00,-15.00,-10.00,+40.00,+37.00,-2.00,-7.00,+15.00,-20.00,-5.00,-12.00
-17.00,-3.00,-5.00,-1.00,-2.00,+26.00,+6.00,+0.00,-34.00,-2.00,-8.00,+4.00,+23.00,+25.00,-14.00,-15.00
-43.00,-38.00,-2.00,-3.00,+15.00,-8.00,+0.00,-38.00,+19.00,+19.00,-5.00,-8.00,-21.00,-18.00,-3.00,-7.00
-4.00,-2.00,+8.00,+1.00,-23.00,-27.00,-37.00,-3.00,-3.00,-13.00,+26.00,+14.00,+23.00,+23.00,+15.00,+16.00
+5.00,+49.00,+6.00,+6.00,+19.00,+27.00,-1.00,+3.00,+27.00,+20.00,-2.00,-14.00,-62.00,+21.00,-2.00,-4.00
+19.00,+31.00,+6.00,+3.00,-17.00,-17.00,-12.00,+15.00,-20.00,-6.00,-9.00,-5.00,+2.00,-25.00,-8.00,-6.00
-6.00,-51.00,-6.00,-6.00,-3.00,-6.00,+62.00,-5.00,+2.00,+7.00,+2.00,+8.00,+17.00,+3.00,-2.00,-2.00
-1.00,+28.00,-2.00,+1.00,-3.00,-22.00,-3.00,+0.00,-19.00,-22.00,-8.00,+1.00,+3.00,+8.00,-1.00,-14.00
+2.00,+3.00,+0.00,+4.00,+35.00,+9.00,+22.00,-1.00,-3.00,-3.00,-2.00,+2.00,+5.00,+5.00,+11.00,+19.00
+7.00,+10.00,+0.00,-8.00,-20.00,-3.00,-80.00,-17.00,+3.00,-27.00,-7.00,-3.00,+6.00,+10.00,-5.00,-6.00
-2.00,+7.00,+5.00,-2.00,-8.00,+1.00,+5.00,-3.00,+0.00,+16.00,-4.00,-11.00,-15.00,-44.00,-13.00,-6.00
-3.00,-7.00,-9.00,-1.00,+0.00,+34.00,+8.00,+2.00,-32.00,-46.00,+5.00,+13.00,+4.00,+15.00,+1.00,+6.00
-4.00,-33.00,-16.00,-8.00,-2.00,-10.00,-3.00,-8.00,+79.00,+85.00,+29.00,+2.00,+4.00,+4.00,+7.00,+23.00
-5.00,-40.00,+9.00,+7.00,+12.00,+3.00,+12.00,-7.00,-10.00,-20.00,-12.00,-7.00,-16.00,-18.00,-6.00,-10.00
-6.00,-20.00,-5.00,+1.00,-2.00,+3.00,-1.00,+7.00,+21.00,+49.00,+18.00,+12.00,+18.00,+15.00,+6.00,+2.00
+8.00,+27.00,+3.00,-4.00,-3.00,-1.00,+16.00,+1.00,+14.00,+0.00,-3.00,-3.00,-8.00,-17.00,+4.00,+16.00
-1.00,+51.00,+5.00,+4.00,-4.00,-5.00,-7.00,-4.00,-24.00,-12.00,-4.00,-8.00,+1.00,+34.00,-9.00,-28.00
+8.00,-29.00,+2.00,+5.00,+12.00,+22.00,+15.00,+16.00,-3.00,-37.00,-2.00,+4.00,+5.00,-5.00,+3.00,+1.00
-11.00,-22.00,-7.00,-9.00,-14.00,-13.00,-35.00,-20.00,-4.00,+4.00,+8.00,+10.00,+21.00,+12.00,+2.00,+12.00
-2.00,+4.00,+0.00,+4.00,+13.00,-2.00,+6.00,+3.00,+22.00,-10.00,-2.00,-7.00,-21.00,-6.00,+2.00,-3.00
-1.00,-5.00,+4.00,-2.00,-13.00,+8.00,-9.00,-2.00,-47.00,+9.00,+4.00,+1.00,-19.00,-24.00,+0.00,-4.00
-12.00,+31.00,+1.00,+0.00,-5.00,-22.00,+2.00,-6.00,+5.00,+10.00,-1.00,+0.00,+2.00,+6.00,-12.00,-4.00
+13.00,+20.00,+5.00,+0.00,+2.00,-6.00,-1.00,+5.00,+2.00,-29.00,-7.00,-4.00,+0.00,-23.00,-9.00,-5.00
-7.00,+4.00,-12.00,-2.00,+2.00,-1.00,-5.00,-5.00,-16.00,-2.00,-16.00,+0.00,+2.00,+9.00,-12.00,-29.00
-1.00,-35.00,+2.00,-3.00,-11.00,+25.00,+8.00,+4.00,-22.00,-14.00,-3.00,-11.00,+6.00,-9.00,+7.00,+13.00
+11.00,+7.00,+6.00,+8.00,+45.00,+9.00,-14.00,+6.00,+26.00,+46.00,+6.00,-4.00,-8.00,-54.00,-15.00,-6.00
-5.00,-14.00,+14.00,+3.00,-36.00,+7.00,+32.00,+7.00,-24.00,-77.00,-5.00,+3.00,+0.00,+68.00,+30.00,+12.00
-12.00,-16.00,-9.00,-5.00,-8.00,-9.00,-20.00,-17.00,+66.00,+50.00,-8.00,+1.00,+18.00,+12.00,-3.00,+3.00
+8.00,-30.00,-3.00,-3.00,-9.00,-19.00,-2.00,+12.00,-64.00,-37.00,+9.00,+5.00,-3.00,+4.00,-8.00,-36.00
-11.00,+77.00,+5.00,-2.00,-2.00,-3.00,-7.00,-16.00,+40.00,+64.00,-1.00,-11.00,-6.00,-14.00,+1.00,+28.00
-1.00,-49.00,-13.00,-6.00,-1.00,+3.00,+56.00,-6.00,-13.00,-4.00,-7.00,-7.00,-29.00,+17.00,+20.00,+1.00
+21.00,+31.00,+15.00,+7.00,+5.00,-7.00,-40.00,+21.00,-12.00,-49.00,-7.00,-3.00,-1.00,-57.00,-22.00,-3.00
-5.00,-33.00,-4.00,-2.00,-14.00,-28.00,-3.00,-5.00,-14.00,-3.00,-16.00,-2.00,-4.00,+4.00,-5.00,-13.00
+23.00,+28.00,-9.00,-6.00,-1.00,+18.00,+6.00,+20.00,+6.00,-10.00,+3.00,+5.00,+4.00,-20.00,+0.00,-4.00
-26.00,+23.00,+1.00,-3.00,+3.00,+9.00,+3.00,-22.00,-12.00,+37.00,+11.00,+9.00,+22.00,+27.00,+5.00,-7.00
+25.00,+12.00,+5.00,+0.00,-7.00,-19.00,-48.00,-3.00,+63.00,+45.00,+10.00,-8.00,-13.00,+24.00,+0.00,+18.00
+4.00,+11.00,+2.00,+4.00,+6.00,+36.00,+44.00,+2.00,+14.00,+21.00,-1.00,+5.00,-2.00,-65.00,-3.00,+6.00
-3.00,-22.00,-1.00,+0.00,-5.00,+2.00,+11.00,+7.00,-53.00,-13.00,+3.00,+1.00,+6.00,+70.00,-1.00,-15.00
+2.00,+12.00,-1.00,+0.00,+4.00,-1.00,-14.00,+4.00,+21.00,-12.00,-12.00,+2.00,+21.00,-10.00,+3.00,+11.00
-9.00,+4.00,-8.00,-3.00,+6.00,+4.00,+3.00,-4.00,-39.00,-47.00,-5.00,-3.00,-9.00,+13.00,+13.00,-9.00
-7.00,-18.00,-8.00,-2.00,+0.00,-5.00,-6.00,-4.00,+32.00,+74.00,+1.00,-7.00,-7.00,-10.00,-7.00,+6.00
-11.00,+10.00,+5.00,+3.00,-5.00,+7.00,+2.00,-3.00,-36.00,-93.00,-9.00,+0.00,-9.00,+11.00,+4.00,-16.00
+2.00,-22.00,-12.00,-4.00,+4.00,-15.00,-16.00,+4.00,+7.00,+23.00,+3.00,+0.00,+5.00,-42.00,-22.00,-7.00
-20.00,-51.00,+10.00,+3.00,+3.00,-4.00,+20.00,-6.00,-8.00,+19.00,+2.00,-2.00,+7.00,+1.00,+10.00,+4.00
+22.00,+73.00,+5.00,-1.00,-2.00,-12.00,-37.00,-4.00,-8.00,-22.00,+6.00,+3.00,-1.00,+17.00,-14.00,-13.00
-17.00,-50.00,-2.00,-5.00,-7.00,+4.00,+31.00,-10.00,-3.00,+20.00,-2.00,-5.00,-23.00,-6.00,-7.00,-5.00
-2.00,+37.00,-3.00,+1.00,+0.00,-8.00,-35.00,+1.00,+2.00,-7.00,-2.00,-3.00,-9.00,-10.00,-8.00,+3.00
-6.00,-13.00,-11.00,-2.00,+0.00,+27.00,+31.00,+3.00,-24.00,-40.00,-3.00,+5.00,+1.00,+8.00,+9.00,+2.00
-5.00,-32.00,+2.00,+1.00,-5.00,-1.00,-13.00,-3.00,-24.00,-16.00,-10.00,-4.00,+16.00,+10.00,-4.00,-14.00
+9.00,-23.00,+0.00,+5.00,-1.00,-14.00,-20.00,+1.00,+15.00,+32.00,-4.00,-10.00,-30.00,-31.00,-3.00,+0.00
-10.00,-39.00,-3.00,-1.00,-1.00,+0.00,-6.00,-8.00,+5.00,-48.00,-6.00,-7.00,+2.00,+2.00,-6.00,-3.00
-4.00,-16.00,-2.00,+0.00,+7.00,+6.00,+15.00,-3.00,+19.00,+67.00,+13.00,+2.00,-11.00,+31.00,+9.00,+13.00
-1.00,+9.00,+4.00,+1.00,+5.00,-2.00,-12.00,-1.00,-6.00,-46.00,-5.00,+5.00,+4.00,+22.00,+9.00,+0.00
+5.00,+11.00,+0.00,-4.00,-7.00,-2.00,+11.00,+5.00,+9.00,+37.00,+9.00,-1.00,+15.00,+8.00,+6.00,-10.00
+6.00,-2.00,-4.00,-1.00,-4.00,-1.00,+10.00,-5.00,-46.00,-21.00,-11.00,-9.00,-31.00,-63.00,-10.00,+10.00
+3.00,+30.00,+7.00,+3.00,-1.00,-3.00,-9.00,+3.00,+38.00,+17.00,+2.00,-3.00,+11.00,+7.00,+1.00,-2.00
+10.00,+103.00,+9.00,-1.00,-7.00,-21.00,-13.00,-7.00,+19.00,+6.00,-12.00,-4.00,-1.00,-4.00,-3.00,+2.00
+1.00,-27.00,-5.00,-3.00,+6.00,-3.00,-15.00,-2.00,-27.00,-23.00,+9.00,+1.00,-10.00,-3.00,+0.00,+3.00
-12.00,+1.00,-8.00,-1.00,+9.00,-4.00,+9.00,+0.00,+35.00,+17.00,+1.00,+4.00,+2.00,+11.00,+1.00,-4.00
+24.00,-29.00,+6.00,+3.00,+20.00,+52.00,+46.00,+13.00,-14.00,-36.00,-21.00,+0.00,+12.00,-28.00,+5.00,+8.00
-7.00,-65.00,-13.00,-1.00,+3.00,-1.00,-10.00,+0.00,+10.00,+14.00,+10.00,-1.00,-21.00,+42.00,+8.00,+13.00
-3.00,+0.00,+2.00,+0.00,-50.00,-15.00,+1.00,+3.00,+0.00,-27.00,-8.00,+1.00,+9.00,-1.00,-8.00,-2.00
+6.00,+77.00,+6.00,+1.00,+4.00,+3.00,-7.00,-4.00,-23.00,-56.00,-8.00,-3.00,+10.00,+18.00,+0.00,-12.00
-12.00,-48.00,-15.00,-7.00,-8.00,-10.00,-4.00,-1.00,+3.00,+93.00,+16.00,+1.00,-2.00,-7.00,-5.00,-6.00
-4.00,+34.00,+9.00,+6.00,+9.00,+10.00,+13.00,+2.00,+18.00,-31.00,-2.00,+1.00,-4.00,-56.00,+4.00,+8.00
+0.00,+19.00,+2.00,+1.00,+16.00,+6.00,-13.00,-8.00,-41.00,-9.00,-8.00,-1.00,+8.00,+23.00,-19.00,-14.00
-4.00,-37.00,-6.00,-3.00,-6.00,-7.00,+7.00,+11.00,+31.00,+29.00,+5.00,+7.00,-3.00,-6.00,+4.00,+2.00
-12.00,-20.00,-11.00,-6.00,-12.00,-13.00,-9.00,-8.00,-13.00,-43.00,-10.00,-9.00,+2.00,+5.00,-7.00,-9.00
-3.00,+28.00,+4.00,-1.00,+7.00,-29.00,-8.00,-4.00,+11.00,+1.00,+2.00,-5.00,+0.00,+9.00,+6.00,+0.00
-22.00,-21.00,-7.00,-3.00,-3.00,+13.00,+5.00,-7.00,-6.00,+25.00,+11.00,+6.00,+2.00,-10.00,+3.00,+4.00
+38.00,+34.00,+13.00,+2.00,+0.00,+3.00,-4.00,+6.00,+3.00,+42.00,-3.00,-3.00,-4.00,-47.00,-10.00,+1.00
-1.00,-2.00,+3.00,+6.00,-1.00,-11.00,-2.00,-2.00,-2.00,-27.00,-1.00,+2.00,+13.00,+60.00,+16.00,-1.00
-23.00,-45.00,-16.00,-10.00,-10.00,-4.00,-1.00,+11.00,-31.00,+21.00,+6.00,+1.00,+19.00,+20.00,-19.00,-25.00
+0.00,+14.00,-2.00,-1.00,+4.00,-12.00,-9.00,+1.00,+8.00,+0.00,-3.00,-8.00,-27.00,-9.00,+3.00,+0.00
+4.00,-30.00,-7.00,-1.00,+6.00,+3.00,+5.00,+4.00,+15.00,+1.00,+0.00,-4.00,-5.00,-8.00,-6.00,+3.00
+4.00,+1.00,+6.00,-1.00,-6.00,+1.00,+18.00,-1.00,-23.00,-9.00,-13.00,+5.00,+10.00,-19.00,+1.00,+4.00
-2.00,-27.00,-6.00,+1.00,-11.00,-10.00,-33.00,-8.00,+1.00,-12.00,+0.00,-5.00,-18.00,-13.00,+1.00,-1.00
+15.00,+6.00,-3.00,-1.00,+6.00,-3.00,+15.00,+11.00,+16.00,-36.00,-10.00,+3.00,+22.00,+15.00,+3.00,+14.00
-10.00,-22.00,-7.00,-3.00,-8.00,+3.00,-45.00,-11.00,-20.00,+30.00,+9.00,-2.00,-23.00,-19.00,-2.00,-5.00
+0.00,+16.00,+4.00,+1.00,+19.00,-3.00,+20.00,+0.00,+13.00,+31.00,+13.00,+1.00,+4.00,+24.00,-6.00,-5.00
-3.00,-28.00,+5.00,+2.00,-31.00,+35.00,+7.00,-3.00,-42.00,-36.00,-1.00,+1.00,+3.00,-51.00,-9.00,-4.00
+4.00,-24.00,-1.00,+2.00,+9.00,+5.00,+3.00,+4.00,+39.00,+35.00,-1.00,-1.00,+8.00,+47.00,+6.00,+1.00
-19.00,-6.00,+0.00,+0.00,-6.00,-16.00,-6.00,-11.00,-11.00,-57.00,-10.00,+1.00,+8.00,+24.00,+18.00,-1.00
+3.00,+17.00,+9.00,+2.00,+7.00,+16.00,-8.00,+6.00,-11.00,-10.00,-5.00,+1.00,+3.00,-21.00,-8.00,-2.00
+8.00,-5.00,-9.00,+1.00,+8.00,-25.00,+17.00,+5.00,+11.00,+32.00,-5.00,-3.00,-10.00,+2.00,-12.00,-4.00
+6.00,+31.00,-1.00,-4.00,-5.00,+2.00,+2.00,-3.00,-31.00,-7.00,+9.00,+0.00,-7.00,-33.00,-8.00,-14.00
-17.00,-46.00,-7.00,-4.00,-9.00,-7.00,-2.00,-4.00,+21.00,+12.00,-3.00,-1.00,-8.00,-11.00,-11.00,+3.00
-7.00,-27.00,-13.00,-6.00,-9.00,-11.00,-3.00,-8.00,+4.00,+7.00,-5.00,-6.00,-1.00,+10.00,+8.00,+3.00
+23.00,+76.00,+15.00,+4.00,+14.00,+15.00,+4.00,+16.00,-2.00,-30.00,-13.00,-4.00,+13.00,+3.00,+1.00,-4.00
-10.00,-4.00,-12.00,-6.00,-4.00,-6.00,-1.00,-10.00,-26.00,-22.00,-17.00,-4.00,-10.00,-64.00,-12.00,-16.00
+3.00,-52.00,-2.00,-3.00,+6.00,-1.00,+34.00,+11.00,+24.00,+47.00,+8.00,-4.00,+5.00,+85.00,+10.00,+10.00
-14.00,+3.00,-8.00,-1.00,+1.00,-12.00,-39.00,-20.00,-30.00,-58.00,-4.00,+4.00,+3.00,-18.00,-7.00,-11.00
+8.00,-6.00,-2.00,-3.00,+7.00,-9.00,-3.00,-6.00,-1.00,-7.00,-2.00,-1.00,-15.00,+19.00,+12.00,+2.00
-3.00,-25.00,-2.00,-5.00,-25.00,-17.00,+2.00,+1.00,+17.00,+33.00,+5.00,+6.00,+29.00,+2.00,-11.00,+9.00
-7.00,+5.00,-1.00,-1.00,-5.00,+13.00,-3.00,-4.00,-13.00,+11.00,+5.00,-4.00,-5.00,-2.00,+5.00,-6.00
-6.00,-5.00,-10.00,-5.00,-16.00,-22.00,-6.00,-2.00,+4.00,-13.00,-2.00,-5.00,-18.00,-29.00,-2.00,+8.00
+5.00,+29.00,+18.00,+5.00,+5.00,+3.00,+5.00,+6.00,+4.00,+15.00,+4.00,+2.00,+24.00,+10.00,+0.00,+0.00
+2.00,+38.00,+4.00,+2.00,+8.00,+6.00,-22.00,-11.00,-8.00,-19.00,-11.00,-6.00,-15.00,+8.00,+10.00,-6.00
-23.00,-35.00,-5.00,+1.00,-2.00,-13.00,-6.00,-10.00,+2.00,-3.00,+5.00,+2.00,+4.00,-17.00,-8.00,+1.00
+4.00,-6.00,-3.00,-2.00,-3.00,-13.00,-35.00,-10.00,+9.00,+25.00,+11.00,-4.00,-23.00,-40.00,-13.00,-17.00
-16.00,+57.00,+7.00,+3.00,-8.00,+14.00,+9.00,+6.00,-9.00,-26.00,-2.00,+4.00,+0.00,+58.00,+14.00,+21.00
-1.00,-20.00,-4.00,+1.00,+20.00,+8.00,+6.00,+4.00,+19.00,+46.00,+14.00,+3.00,-4.00,-6.00,+4.00,+10.00
+8.00,+31.00,+2.00,-2.00,-5.00,+2.00,-10.00,+5.00,+3.00,-16.00,-13.00,+2.00,+21.00,+13.00,+1.00,-3.00
+0.00,-1.00,+2.00,-1.00,+0.00,+9.00,+15.00,+3.00,+6.00,+25.00,+1.00,-8.00,-19.00,-13.00,-4.00,+5.00
-14.00,-79.00,-23.00,-11.00,-7.00,-4.00,-12.00,-11.00,-14.00,-14.00,-2.00,-2.00,-11.00,-21.00,-5.00,-6.00
+8.00,+16.00,+10.00,+5.00,+5.00,+8.00,-4.00,-4.00,+3.00,+15.00,+3.00,+1.00,+3.00,+13.00,+3.00,+11.00
+10.00,+85.00,+9.00,+3.00,+10.00,+15.00,+4.00,+4.00,-11.00,-20.00,+1.00,-1.00,-9.00,-17.00,-11.00,-16.00
+9.00,+4.00,-2.00,-3.00,-13.00,-10.00,+0.00,+10.00,-3.00,+7.00,+0.00,+7.00,+27.00,+13.00,+0.00,+1.00
-5.00,-18.00,-13.00,-6.00,+11.00,+9.00,+1.00,-7.00,+17.00,-8.00,-4.00,-7.00,-20.00,-8.00,-5.00,+3.00
-4.00,-36.00,+1.00,+0.00,-6.00,+0.00,+16.00,+5.00,+14.00,+0.00,+1.00,+3.00,+9.00,+14.00,+11.00,+11.00
+3.00,-3.00,+0.00,+4.00,+8.00,-8.00,-13.00,-2.00,-33.00,-31.00,-8.00,-4.00,+3.00,+6.00,+1.00,-13.00
+1.00,+32.00,+4.00,+0.00,+0.00,+7.00,+5.00,+0.00,+18.00,+24.00,+9.00,-6.00,-16.00,-42.00,-6.00,+7.00
+2.00,-31.00,-1.00,+1.00,+4.00,-9.00,+1.00,+2.00,-13.00,-10.00,+1.00,+2.00,+3.00,+39.00,+5.00,-5.00
-6.00,-10.00,-7.00,-4.00,-2.00,-4.00,-2.00,-1.00,-1.00,-23.00,-4.00,+1.00,+7.00,-13.00,+0.00,+10.00
-13.00,-8.00,+0.00,-3.00,-6.00,-7.00,-3.00,-15.00,-17.00,-22.00,-10.00,-7.00,-2.00,-6.00,-2.00,-12.00
-1.00,+11.00,+3.00,-5.00,+1.00,+4.00,-2.00,+4.00,-4.00,-8.00,-13.00,-3.00,-7.00,+22.00,+0.00,-1.00
-5.00,-24.00,-12.00,-3.00,-10.00,+0.00,-22.00,-4.00,+27.00,+6.00,+0.00,-1.00,+4.00,-16.00,+6.00,+5.00
+17.00,-38.00,+2.00,+6.00,+0.00,+16.00,+53.00,+21.00,-9.00,+7.00,+3.00,-2.00,+5.00,-5.00,+1.00,-1.00
+6.00,+43.00,+10.00,+4.00,+5.00,-8.00,+10.00,+3.00,-5.00,-1.00,+4.00,+3.00,-11.00,+0.00,-6.00,-9.00
-5.00,+1.00,-2.00,+1.00,-11.00,-5.00,-2.00,-5.00,-4.00,-6.00,-3.00,+0.00,+3.00,+16.00,+3.00,+6.00
-11.00,-16.00,-4.00,-7.00,+3.00,-2.00,+3.00,-9.00,+8.00,+8.00,-1.00,+0.00,-4.00,-18.00,-5.00,-1.00
-8.00,-15.00,-7.00,-2.00,+8.00,-5.00,-29.00,-8.00,-15.00,-9.00,+0.00,+0.00,+5.00,+7.00,-2.00,-15.00
+10.00,+32.00,+9.00,+2.00,-12.00,+2.00,+2.00,+4.00,+30.00,+32.00,+7.00,+3.00,+0.00,-6.00,+1.00,+25.00
+0.00,-7.00,+0.00,+2.00,+14.00,+7.00,+10.00,+5.00,-32.00,-26.00,-2.00,+8.00,+18.00,+7.00,-5.00,-16.00
+1.00,-21.00,-3.00,+0.00,-5.00,-5.00,+0.00,-3.00,-1.00,-33.00,-5.00,-11.00,-34.00,-11.00,-2.00,+7.00
-2.00,+18.00,+1.00,-2.00,-4.00,-4.00,-4.00,-4.00,+18.00,+63.00,+7.00,-4.00,-10.00,-3.00,-6.00,-5.00
-4.00,-31.00,-7.00,-2.00,+8.00,+2.00,+3.00,+9.00,-18.00,+0.00,+6.00,-4.00,-4.00,-42.00,-7.00,-5.00
-4.00,+10.00,+4.00,+2.00,-1.00,+0.00,-7.00,-5.00,+13.00,+10.00,+5.00,+7.00,+25.00,+58.00,+12.00,+5.00
+4.00,+7.00,+5.00,+4.00,-1.00,+4.00,+7.00,+3.00,-25.00,-27.00,-9.00,-7.00,-16.00,+1.00,-11.00,-28.00
-9.00,+11.00,-1.00,-3.00,+2.00,-6.00,-9.00,-6.00,+22.00,+6.00,-3.00,+0.00,-5.00,-5.00,+3.00,+14.00
+2.00,-27.00,-13.00,-6.00,+9.00,+6.00,-5.00,-5.00,+6.00,+11.00,-2.00,+1.00,-3.00,+1.00,+1.00,+11.00
+13.00,+20.00,+4.00,+0.00,-6.00,+1.00,+7.00,+6.00,+20.00,+0.00,+4.00,+4.00,+8.00,-12.00,-1.00,+1.00
-1.00,+6.00,+3.00,+4.00,-1.00,-3.00,-4.00,+0.00,-24.00,-9.00,-8.00,+2.00,+19.00,-8.00,+0.00,-17.00
-1.00,-2.00,-6.00,-7.00,-1.00,-2.00,-1.00,+2.00,+13.00,-13.00,-2.00,-2.00,-15.00,+4.00,-2.00,+17.00
-6.00,-9.00,+4.00,+4.00,-2.00,-1.00,-6.00,-7.00,+20.00,+43.00,+15.00,+6.00,+10.00,-5.00,-5.00,+6.00
-5.00,+1.00,-3.00,-2.00,-1.00,+1.00,+4.00,+0.00,-37.00,-64.00,-16.00,-7.00,-14.00,-5.00,-6.00,-20.00
+7.00,-13.00,-6.00,-2.00,+3.00,-3.00,+6.00,+2.00,+22.00,+54.00,+5.00,+1.00,-7.00,+1.00,+2.00,+17.00
-1.00,+21.00,+3.00,+1.00,-3.00,-5.00,-24.00,-3.00,-11.00,-33.00,+0.00,-2.00,-7.00,-11.00,+3.00,-7.00
+4.00,-12.00,+1.00,+0.00,-1.00,+1.00,+35.00,+8.00,+5.00,+30.00,-6.00,-9.00,+3.00,+10.00,-3.00,-1.00
-1.00,-14.00,-8.00,-1.00,-2.00,-4.00,+1.00,+1.00,-38.00,-3.00,+7.00,-2.00,-7.00,+0.00,-1.00,-20.00
-3.00,-2.00,-3.00,-1.00,-5.00,-4.00,-6.00,-3.00,+43.00,+20.00,+6.00,+2.00,+13.00,+0.00,+6.00,+39.00
-1.00,+25.00,+13.00,+3.00,+2.00,+1.00,+7.00,-6.00,-13.00,-48.00,-10.00,-4.00,-9.00,+7.00,-1.00,-6.00
+1.00,+3.00,-10.00,-6.00,-4.00,+3.00,-5.00,+1.00,+4.00,-3.00,-3.00,+2.00,+0.00,-78.00,-16.00,-6.00
-2.00,-4.00,-3.00,-3.00,+0.00,+0.00,-10.00,-7.00,-16.00,-6.00,-8.00,-12.00,-29.00,+57.00,+7.00,-6.00
+11.00,-4.00,+5.00,+2.00,-1.00,-3.00,+9.00,+6.00,+5.00,+28.00,+11.00,+7.00,+10.00,-1.00,+3.00,-2.00
+0.00,+18.00,+6.00,+2.00,+5.00,+6.00,-8.00,-1.00,-18.00,-15.00,-4.00,-5.00,+6.00,+11.00,-14.00,-20.00
-3.00,-8.00,-1.00,-2.00,+3.00,-17.00,-2.00,-4.00,-11.00,-12.00,-10.00,+3.00,+13.00,+14.00,+3.00,+0.00
-13.00,+1.00,-2.00,-2.00,-8.00,+5.00,-7.00,-12.00,+15.00,+26.00,+7.00,-1.00,-8.00,-29.00,-9.00,-1.00
-6.00,-21.00,-1.00,-3.00,-4.00,-4.00,-13.00,-7.00,-8.00,-13.00,+1.00,+1.00,+6.00,-7.00,+3.00,+4.00
-1.00,+3.00,-9.00,+0.00,+5.00,+3.00,+24.00,+5.00,+13.00,+18.00,-4.00,-7.00,-9.00,-1.00,+4.00,+7.00
+9.00,+3.00,+4.00,+2.00,-3.00,-1.00,-3.00,+6.00,-18.00,-30.00,+2.00,+1.00,-4.00,+22.00,+1.00,-8.00
-7.00,-2.00,-5.00,-2.00,+2.00,-4.00,-3.00,-5.00,+9.00,+4.00,+1.00,+3.00,+9.00,-20.00,+1.00,+4.00
-1.00,+1.00,-6.00,-3.00,-2.00,+0.00,+2.00,-3.00,-15.00,+10.00,-7.00,-4.00,-1.00,+2.00,-13.00,-4.00
-3.00,-17.00,-6.00,-3.00,-4.00,-6.00,-8.00,-1.00,+3.00,-17.00,-1.00,+5.00,+15.00,-32.00,+1.00,-3.00
-11.00,-41.00,-5.00,-2.00,-4.00,-5.00,-23.00,-12.00,+3.00,+3.00,-2.00,-6.00,-10.00,+48.00,+3.00,+2.00
+14.00,+74.00,+11.00,+3.00,-1.00,+1.00,+15.00,+14.00,+5.00,-7.00,-1.00,+0.00,-4.00,+8.00,+4.00,+7.00
+2.00,+10.00,+1.00,+1.00,+2.00,+2.00,+11.00,-1.00,-35.00,-20.00,+0.00,-1.00,-1.00,+2.00,-2.00,-27.00
+0.00,+1.00,-2.00,-2.00,+4.00,-5.00,-13.00,-2.00,+6.00,-4.00,-6.00,+1.00,+6.00,-19.00,-4.00,+14.00
-3.00,-8.00,-10.00,-4.00,-13.00,+6.00,+3.00,+1.00,+4.00,-11.00,-6.00,-1.00,-4.00,-23.00,+7.00,+3.00
+0.00,-18.00,+3.00,+1.00,-1.00,-2.00,-35.00,-5.00,-2.00,+12.00,-2.00,-6.00,-9.00,+28.00,-4.00,+1.00
-2.00,+5.00,+0.00,-1.00,+3.00,-7.00,+11.00,+1.00,+2.00,-4.00,-1.00,-1.00,+4.00,-12.00,-2.00,-7.00
+22.00,+55.00,+8.00,+0.00,-3.00,-2.00,+12.00,+8.00,-7.00,-5.00,-8.00,-6.00,-12.00,+2.00,-4.00,-14.00
-10.00,-16.00,+3.00,+1.00,+2.00,+9.00,+7.00,-4.00,-8.00,-23.00,-1.00,+0.00,+8.00,+20.00,+7.00,+0.00
-1.00,+14.00,-3.00,-2.00,+2.00,-6.00,-25.00,-4.00,-4.00,+22.00,-2.00,-4.00,-4.00,-28.00,-8.00,-10.00
+1.00,+0.00,-4.00,-3.00,-3.00,+8.00,+29.00,+8.00,+4.00,-15.00,-2.00,-1.00,+2.00,-10.00,-2.00,+8.00
-11.00,-33.00,-3.00,+1.00,+1.00,-3.00,-13.00,-8.00,-5.00,+20.00,+5.00,-1.00,-5.00,+12.00,-1.00,-8.00
+2.00,+1.00,+1.00,-3.00,+2.00,+2.00,-9.00,+0.00,+18.00,-9.00,+1.00,+3.00,+1.00,+9.00,+4.00,+9.00
+7.00,-5.00,+3.00,+2.00,-5.00,-7.00,+9.00,+6.00,+9.00,-13.00,-7.00,+0.00,+0.00,-15.00,+1.00,+11.00
-5.00,-9.00,-5.00,+0.00,+6.00,+12.00,-2.00,-3.00,-7.00,-39.00,-12.00,-6.00,-2.00,+8.00,-4.00,-7.00
-2.00,+21.00,+1.00,-3.00,-8.00,+1.00,+7.00,-1.00,+11.00,+67.00,+14.00,+0.00,+4.00,+9.00,+16.00,-1.00
+1.00,+10.00,-3.00,+0.00,+1.00,-5.00,-5.00,+1.00,-8.00,+3.00,-1.00,-1.00,-3.00,-2.00,-8.00,-8.00
+6.00,-7.00,-2.00,-2.00,+3.00,+3.00,+13.00,+5.00,-3.00,-19.00,-2.00,+0.00,+11.00,-8.00,-8.00,-19.00
-7.00,-6.00,+3.00,+0.00,-3.00,-4.00,-14.00,-3.00,+3.00,+3.00,+2.00,-3.00,-21.00,-59.00,-7.00,+11.00
+5.00,-9.00,+3.00,-2.00,-1.00,-5.00,-1.00,+2.00,-15.00,-19.00,-9.00,+0.00,+10.00,+62.00,+3.00,-7.00
+3.00,+12.00,-5.00,-1.00,+3.00,+3.00,-19.00,-7.00,+8.00,+18.00,+7.00,-2.00,-7.00,-1.00,+3.00,+1.00
-7.00,-16.00,-5.00,+2.00,+9.00,+3.00,+1.00,+3.00,+10.00,+10.00,+3.00,+1.00,+6.00,+9.00,+7.00,+8.00
+6.00,-13.00,-5.00,-4.00,-11.00,-3.00,+33.00,+11.00,-7.00,-12.00,-1.00,+0.00,-4.00,-11.00,-12.00,-3.00
-11.00,+10.00,+2.00,+0.00,-2.00,+2.00,-5.00,-12.00,-7.00,-5.00,+6.00,+0.00,-8.00,-30.00,-10.00,-8.00
+2.00,+0.00,+3.00,-2.00,-5.00,-7.00,+4.00,+2.00,-15.00,-10.00,-12.00,-7.00,-9.00,-26.00,-6.00,-12.00
-7.00,-3.00,-4.00,-2.00,-3.00,+0.00,-6.00,-6.00,+20.00,+6.00,-1.00,+2.00,+5.00,+33.00,+6.00,+17.00
+7.00,+14.00,+0.00,+0.00,+1.00,-13.00,-19.00,-5.00,+8.00,+34.00,+7.00,+1.00,+3.00,+7.00,+2.00,+3.00
-8.00,-19.00,-4.00,-2.00,-1.00,+9.00,+2.00,+3.00,-14.00,-39.00,-6.00,+0.00,-2.00,-11.00,-4.00,-8.00
+5.00,+6.00,+3.00,+2.00,+3.00,+5.00,+15.00,+10.00,+5.00,+20.00,+8.00,+2.00,+4.00,+17.00,+0.00,+2.00
-5.00,-7.00,-2.00,-3.00,+1.00,-5.00,-4.00,-5.00,-6.00,-12.00,-8.00,-4.00,-7.00,-25.00,-3.00,+2.00
-8.00,+13.00,+7.00,+3.00,+2.00,+5.00,+10.00,-8.00,+2.00,+10.00,-2.00,-1.00,+6.00,+13.00,+3.00,-8.00
-6.00,-41.00,-13.00,-1.00,-3.00,-5.00,+1.00,-3.00,-5.00,-9.00,-2.00,-1.00,-1.00,+1.00,-2.00,-11.00
+9.00,+45.00,+7.00,+1.00,-2.00,-2.00,-8.00,+0.00,+4.00,-29.00,-8.00,-1.00,+0.00,-2.00,+0.00,+6.00
-5.00,-26.00,-10.00,-3.00,-8.00,-2.00,+5.00,+0.00,+0.00,+59.00,+15.00,+0.00,-6.00,-14.00,-6.00,-4.00
+0.00,+14.00,+0.00,-3.00,+0.00,+1.00,-17.00,-3.00,+13.00,-4.00,-2.00,+2.00,+2.00,+16.00,+4.00,+12.00
+6.00,-10.00,-2.00,-1.00,-1.00,-2.00,-2.00,+2.00,+1.00,+3.00,-4.00,-1.00,+5.00,-1.00,+2.00,+15.00
-1.00,-14.00,-3.00,-1.00,+0.00,+0.00,+0.00,+1.00,+2.00,-5.00,-2.00,-2.00,+3.00,-3.00,-4.00,+1.00
-7.00,+0.00,+2.00,-2.00,+0.00,+0.00,+6.00,-3.00,+0.00,-3.00,+1.00,+0.00,-6.00,-7.00,-1.00,-4.00
-3.00,-19.00,-6.00,+1.00,-2.00,+1.00,-8.00,-2.00,-8.00,+6.00,+2.00,+4.00,+16.00,+16.00,+2.00,-11.00
-3.00,+29.00,+2.00,+1.00,-2.00,-5.00,-2.00,-6.00,-1.00,-9.00,-4.00,-7.00,-23.00,-15.00,-3.00,+3.00
-13.00,+23.00,-1.00,+0.00,+2.00,-4.00,-2.00,+11.00,-7.00,-6.00,-1.00,+2.00,+9.00,+5.00,+2.00,-9.00
+3.00,-15.00,+2.00,+2.00,-2.00,+4.00,+7.00,+3.00,-6.00,-14.00,-8.00,-2.00,-9.00,+0.00,-4.00,+11.00
-3.00,-4.00,-2.00,-4.00,-1.00,-2.00,-14.00,-7.00,+3.00,+11.00,+3.00,+1.00,+2.00,+1.00,+0.00,+5.00
-4.00,-14.00,-3.00,-1.00,-5.00,-8.00,-5.00,-2.00,-1.00,-22.00,-3.00,+0.00,+4.00,-4.00,-3.00,-5.00
-2.00,-10.00,-5.00,-2.00,-1.00,+2.00,+0.00,-6.00,+2.00,+29.00,+2.00,+0.00,+1.00,+2.00,+0.00,+3.00
-6.00,-11.00,+3.00,+2.00,-3.00,-3.00,-23.00,-5.00,-9.00,-10.00,-1.00,-3.00,-1.00,-3.00,-3.00,-8.00
-2.00,+16.00,+5.00,+1.00,+3.00,+7.00,+29.00,+4.00,-10.00,-8.00,-1.00,-1.00,-4.00,-1.00,-2.00,-16.00
+1.00,-7.00,-2.00,+3.00,+1.00,-4.00,+3.00,+0.00,+8.00,+10.00,+5.00,+3.00,+2.00,-2.00,-1.00,+10.00
+2.00,-7.00,-3.00,+0.00,-1.00,+0.00,-1.00,-2.00,-7.00,-7.00,-7.00,-5.00,-9.00,+0.00,-1.00,-6.00
-2.00,+24.00,+3.00,+1.00,+0.00,+1.00,+1.00,-4.00,+8.00,-11.00,-2.00,+3.00,+5.00,-3.00,+4.00,+11.00
+3.00,+0.00,-3.00,-5.00,-5.00,-4.00,-21.00,-4.00,+1.00,+5.00,+0.00,-3.00,-5.00,+1.00,+0.00,+1.00
+1.00,-3.00,-9.00,-7.00,-1.00,+0.00,+0.00,+4.00,-6.00,+3.00,-2.00,+0.00,-2.00,-2.00,-5.00,-10.00
+2.00,-11.00,-2.00,-4.00,+0.00,+1.00,+6.00,+0.00,+1.00,+3.00,+3.00,+0.00,+1.00,+1.00,+0.00,-2.00
-4.00,-18.00,-7.00,-4.00,-6.00,-1.00,+8.00,-1.00,+4.00,-4.00,-2.00,+0.00,-2.00,-2.00,-3.00,+1.00
-1.00,+32.00,+13.00,+8.00,+3.00,-2.00,-8.00,-4.00,+1.00,+6.00,+0.00,-1.00,-2.00,+1.00,+2.00,-1.00
+2.00,+4.00,+6.00,+2.00,+1.00,+0.00,+2.00,+1.00,-6.00,-7.00,-4.00,-3.00,-6.00,-2.00,-3.00,-3.00
-3.00,-10.00,-7.00,-2.00,+1.00,+0.00,-5.00,-2.00,+0.00,-2.00,+1.00,+1.00,-1.00,-3.00,+0.00,+4.00
+8.00,-2.00,+6.00,+1.00,-2.00,-3.00,+8.00,+3.00,-3.00,-22.00,-6.00,-3.00,+0.00,-4.00,-1.00,-2.00
-6.00,+0.00,+1.00,-1.00,+1.00,-1.00,-8.00,-7.00,-1.00,+13.00,+2.00,-2.00,+0.00,+4.00,-1.00,-2.00
+1.00,-10.00,-7.00,-7.00,-7.00,+0.00,-5.00,+3.00,+0.00,+3.00,+0.00,+2.00,+6.00,-2.00,+2.00,-5.00
-3.00,-15.00,-3.00,+0.00,+1.00,-4.00,-2.00,-1.00,+0.00,+1.00,-2.00,-2.00,-4.00,+1.00,+3.00,+3.00
+0.00,+24.00,+0.00,-1.00,-4.00,+1.00,+6.00,-1.00,-7.00,-5.00,-1.00,-1.00,-3.00,-1.00,-3.00,-4.00
+1.00,-2.00,+0.00,+1.00,+3.00,-1.00,-4.00,+0.00,+0.00,-21.00,-3.00,-2.00,-2.00,-1.00,+2.00,+6.00
-2.00,+1.00,+4.00,+2.00,+0.00,-1.00,+0.00,-4.00,+0.00,+17.00,+2.00,-2.00,-1.00,+0.00,-7.00,+1.00
+1.00,+0.00,+2.00,+1.00,+0.00,+0.00,+1.00,+1.00,+1.00,+0.00,-1.00,-3.00,-3.00,-2.00,-2.00,-2.00
+3.00,-5.00,-10.00,-3.00,+1.00,-1.00,+2.00,+2.00,-1.00,+1.00,-3.00,+0.00,+2.00,+0.00,+3.00,+0.00
-5.00,-10.00,+1.00,-3.00,-2.00,-1.00,-7.00,-5.00,-7.00,-8.00,-3.00,+0.00,+0.00,+2.00,-2.00,-8.00
