+0.00,+0.00,+0.00,+0.00,-2.00,-1.00,+0.00,+0.00,-2.00,-1.00,-1.00,-2.00,-1.00,+0.00,-1.00,-2.00
+1.00,+1.00,+2.00,-1.00,+0.00,+0.00,-2.00,+0.00,-2.00,-3.00,-2.00,-2.00,-2.00,-2.00,-1.00,+0.00
-2.00,+0.00,-1.00,+2.00,-1.00,+0.00,-2.00,+0.00,-1.00,+0.00,-2.00,+1.00,+2.00,+0.00,-1.00,+1.00
+0.00,-1.00,+3.00,+0.00,-2.00,-2.00,-1.00,-1.00,-1.00,+0.00,+0.00,-1.00,+0.00,+0.00,+0.00,+1.00
-1.00,+1.00,+0.00,-4.00,-2.00,+0.00,-1.00,-2.00,-1.00,-1.00,+0.00,+2.00,+0.00,+0.00,+1.00,+2.00
+0.00,-1.00,-1.00,-1.00,-2.00,-1.00,-1.00,+1.00,-4.00,-1.00,+2.00,-2.00,-5.00,-2.00,-3.00,-4.00
-1.00,+1.00,+2.00,+1.00,+3.00,-2.00,-1.00,-1.00,+0.00,-8.00,-6.00,-1.00,+1.00,-1.00,-2.00,+0.00
+1.00,+0.00,-1.00,+0.00,-3.00,-1.00,+0.00,-1.00,-2.00,-2.00,+0.00,-1.00,-3.00,-2.00,-1.00,-3.00
-2.00,-4.00,-2.00,-1.00,-4.00,-3.00,+0.00,-1.00,+0.00,+2.00,-2.00,-1.00,+1.00,+1.00,-2.00,+0.00
-2.00,-1.00,-3.00,-6.00,-6.00,-1.00,+0.00,-2.00,-1.00,+4.00,+1.00,-1.00,-2.00,-3.00,-2.00,-4.00
+0.00,-1.00,-1.00,-1.00,-1.00,-1.00,+1.00,+0.00,-4.00,-4.00,-6.00,+8.00,+7.00,+2.00,-1.00,-1.00
+2.00,+2.00,+5.00,-1.00,+0.00,-1.00,+0.00,+1.00,+3.00,+2.00,-3.00,-12.00,-19.00,-5.00,-2.00,+3.00
-5.00,-7.00,-11.00,-6.00,+1.00,-2.00,-1.00,-2.00,+0.00,-2.00,-2.00,-2.00,-7.00,-2.00,-1.00,-1.00
+2.00,+2.00,+0.00,+4.00,+1.00,+1.00,+0.00,-2.00,+0.00,-1.00,-1.00,-2.00,-3.00,+0.00,-1.00,-3.00
+2.00,+1.00,-2.00,+2.00,+3.00,-1.00,-1.00,+1.00,-2.00,+3.00,+2.00,-1.00,+3.00,-1.00,-2.00,-1.00
+3.00,+5.00,+1.00,+0.00,-2.00,+1.00,+0.00,+2.00,-6.00,-14.00,-3.00,+4.00,+9.00,+0.00,-2.00,-4.00
-3.00,-2.00,+9.00,-1.00,+2.00,+1.00,-1.00,-4.00,-2.00,-8.00,-2.00,+5.00,+0.00,+2.00,-1.00,-3.00
-3.00,-6.00,-6.00,-8.00,-2.00,+0.00,+0.00,-1.00,+7.00,+23.00,+5.00,+1.00,-1.00,-1.00,+0.00,+2.00
-6.00,-4.00,-4.00,-3.00,-3.00,-2.00,-1.00,-2.00,-3.00,+0.00,+2.00,-12.00,-11.00,-3.00,-1.00,-3.00
-2.00,-2.00,+0.00,+4.00,+2.00,+1.00,-2.00,+1.00,-1.00,+3.00,-4.00,-2.00,+3.00,+0.00,+1.00,+1.00
+1.00,+2.00,-1.00,+4.00,+6.00,-1.00,-1.00,-2.00,+0.00,-4.00,-2.00,-1.00,-2.00,+0.00,+0.00,-1.00
+0.00,-7.00,+10.00,+6.00,+2.00,-1.00,+0.00,+0.00,-6.00,-17.00,-4.00,+7.00,+19.00,+4.00,+0.00,+0.00
+2.00,-5.00,-11.00,-14.00,-3.00,+0.00,-1.00,-8.00,-4.00,+6.00,+4.00,+1.00,-7.00,-1.00,-3.00,-3.00
+2.00,-1.00,-15.00,-15.00,-7.00,-4.00,-1.00,+3.00,-1.00,-5.00,+0.00,+0.00,-1.00,-3.00,-2.00,-2.00
-23.00,+0.00,+4.00,+8.00,+0.00,-1.00,-3.00,-17.00,+1.00,+7.00,-4.00,-4.00,+2.00,-1.00,-2.00,+0.00
-2.00,-4.00,+7.00,+11.00,+13.00,+1.00,+0.00,+0.00,+0.00,-6.00,-1.00,+4.00,+15.00,+0.00,+0.00,+3.00
+4.00,+22.00,+14.00,+1.00,-12.00,+1.00,+1.00,-2.00,-2.00,+2.00,+2.00,+2.00,-13.00,-3.00,+2.00,-2.00
-6.00,-10.00,-19.00,-8.00,+1.00,+0.00,-2.00,-4.00,-1.00,-8.00,-4.00,-11.00,-16.00,-4.00,-2.00,-3.00
+4.00,+5.00,+4.00,+3.00,-4.00,-2.00,+1.00,+3.00,-4.00,-3.00,-3.00,-1.00,+1.00,+0.00,+0.00,-2.00
+6.00,+4.00,-6.00,-8.00,-8.00,-1.00,+0.00,+0.00,+1.00,+5.00,-2.00,-4.00,-5.00,+1.00,+0.00,+1.00
-10.00,-15.00,+5.00,-7.00,+3.00,-9.00,-3.00,-4.00,-5.00,-16.00,+2.00,+2.00,+13.00,+2.00,-1.00,-1.00
-2.00,-3.00,-12.00,-2.00,+3.00,+11.00,+1.00,-3.00,+1.00,+15.00,+2.00,+5.00,+9.00,+3.00,-3.00,-2.00
+3.00,-2.00,-2.00,+2.00,+3.00,+1.00,-1.00,+6.00,+1.00,+7.00,+4.00,+1.00,-4.00,-2.00,+1.00,-1.00
+2.00,+0.00,+7.00,+9.00,+3.00,+2.00,+0.00,+1.00,+0.00,-4.00,-3.00,-1.00,-3.00,-3.00,+1.00,+3.00
+4.00,+7.00,+4.00,+4.00,-3.00,-2.00,-1.00,+2.00,+1.00,-4.00,-5.00,-3.00,+0.00,-3.00,+0.00,-1.00
-1.00,-4.00,+1.00,+0.00,-4.00,-3.00,-1.00,-1.00,-2.00,-3.00,-1.00,+3.00,+0.00,+0.00,-2.00,-2.00
-3.00,+0.00,-2.00,+0.00,-1.00,-1.00,+0.00,+2.00,-5.00,-7.00,-3.00,-4.00,-2.00,-2.00,+1.00,+6.00
+1.00,+1.00,+1.00,-2.00,-3.00,+0.00,+0.00,+3.00,-5.00,-5.00,+0.00,-3.00,-6.00,+0.00,-3.00,-3.00
-6.00,-5.00,-3.00,+0.00,+1.00,+1.00,-1.00,-3.00,+6.00,-18.00,-5.00,-4.00,-4.00,-4.00,-2.00,+1.00
-3.00,+1.00,+14.00,+13.00,+5.00,-3.00,+0.00,-3.00,+2.00,+17.00,-5.00,-6.00,-1.00,-1.00,-1.00,+0.00
+27.00,+5.00,+1.00,-3.00,+0.00,+2.00,+1.00,+15.00,-3.00,+6.00,+9.00,+5.00,+5.00,+1.00,+2.00,+3.00
-14.00,-4.00,-12.00,-24.00,-13.00,-9.00,-4.00,-10.00,-5.00,-14.00,-8.00,-2.00,-4.00,-2.00,+0.00,+1.00
-2.00,+7.00,-18.00,-10.00,-2.00,-2.00,+0.00,+2.00,+5.00,+18.00,+2.00,-2.00,-5.00,+0.00,+0.00,+5.00
-3.00,-9.00,+1.00,+5.00,+0.00,-3.00,-2.00,-8.00,-4.00,-12.00,-4.00,-1.00,+7.00,+0.00,-1.00,-3.00
+1.00,-34.00,-1.00,+1.00,+0.00,+0.00,-1.00,+1.00,+3.00,-3.00,+2.00,+5.00,+7.00,+0.00,-4.00,-9.00
+10.00,+43.00,-4.00,-3.00,-4.00,+1.00,+0.00,+3.00,-1.00,+7.00,-2.00,-6.00,-5.00,-5.00,+1.00,+2.00
+2.00,-2.00,+9.00,+6.00,+4.00,+2.00,+2.00,+4.00,+0.00,+0.00,-1.00,-5.00,-13.00,-4.00,-1.00,-2.00
-2.00,+2.00,-2.00,+2.00,-2.00,-2.00,+1.00,+0.00,-7.00,+8.00,+4.00,-3.00,-3.00,-2.00,-2.00,-3.00
-4.00,+1.00,+7.00,+8.00,+5.00,+1.00,+0.00,+0.00,-4.00,-11.00,-6.00,+8.00,+14.00,+3.00,-2.00,-2.00
-5.00,-20.00,+8.00,+2.00,-2.00,+2.00,-1.00,+1.00,+5.00,-11.00,-3.00,-6.00,-10.00,+0.00,-2.00,-3.00
-9.00,-11.00,-25.00,-16.00,-5.00,-3.00,-1.00,-7.00,+0.00,+18.00,+3.00,-3.00,-2.00,+2.00,+7.00,+11.00
-1.00,+25.00,+5.00,-3.00,-1.00,-2.00,-2.00,+0.00,+1.00,-5.00,+3.00,-3.00,-10.00,-3.00,-1.00,-1.00
+1.00,-15.00,-7.00,-6.00,-1.00,+0.00,+0.00,-3.00,-9.00,-5.00,-3.00,-5.00,-9.00,-3.00,-2.00,-4.00
-4.00,-12.00,+9.00,+15.00,+7.00,+1.00,+0.00,+0.00,-6.00,-7.00,+1.00,+4.00,+8.00,+1.00,+0.00,-8.00
+11.00,-25.00,+8.00,+5.00,+2.00,-3.00,-2.00,+2.00,-2.00,+0.00,-4.00,-3.00,+7.00,-1.00,-3.00,-6.00
-27.00,+18.00,-5.00,-6.00,-13.00,-2.00,-2.00,-4.00,+0.00,-1.00,+0.00,+1.00,+6.00,+0.00,+1.00,+0.00
-5.00,+21.00,-18.00,-18.00,-8.00,-4.00,-3.00,-5.00,+3.00,-11.00,-2.00,-3.00,-7.00,-2.00,-1.00,-1.00
+10.00,-5.00,+1.00,+3.00,-1.00,+0.00,+0.00,+2.00,+5.00,+17.00,+2.00,+7.00,+10.00,-1.00,-2.00,-4.00
+1.00,+10.00,+4.00,+6.00,+1.00,-1.00,+2.00,+3.00,-16.00,-15.00,-5.00,-4.00,-10.00,-1.00,+0.00,+1.00
+11.00,-24.00,+5.00,+2.00,+1.00,-2.00,-1.00,+3.00,+5.00,+11.00,-1.00,-6.00,-5.00,-4.00,-1.00,+2.00
-11.00,-3.00,-5.00,-4.00,-8.00,-4.00,-2.00,-2.00,+1.00,+9.00,+5.00,-1.00,+7.00,-1.00,-4.00,-6.00
-6.00,-17.00,-5.00,-1.00,+5.00,+0.00,-1.00,-3.00,-2.00,-5.00,-3.00,-10.00,-26.00,-1.00,+1.00,+8.00
-2.00,+31.00,+0.00,+6.00,+1.00,+0.00,+0.00,+3.00,+8.00,+5.00,+2.00,-1.00,+11.00,-1.00,+0.00,-3.00
+12.00,-8.00,+15.00,+0.00,-4.00,+0.00,+1.00,-1.00,-7.00,-21.00,-7.00,+6.00,+8.00,+2.00,+0.00,-2.00
+2.00,+35.00,-6.00,-5.00,+6.00,-2.00,+1.00,+0.00,-7.00,+15.00,-2.00,-5.00,+0.00,-1.00,-2.00,-7.00
-4.00,-30.00,-11.00,-7.00,-16.00,-2.00,+0.00,-1.00,+0.00,-4.00,-2.00,-8.00,-13.00,-2.00,-4.00,-6.00
+5.00,+11.00,+2.00,+3.00,+4.00,+4.00,+0.00,-11.00,+0.00,-7.00,-2.00,+4.00,+8.00,+1.00,-2.00,-1.00
-8.00,+11.00,+2.00,-1.00,-2.00,-6.00,-4.00,+0.00,-15.00,-7.00,+2.00,+2.00,-10.00,+0.00,-1.00,-2.00
+10.00,-8.00,+0.00,+0.00,-6.00,-1.00,-1.00,+0.00,+8.00,-18.00,-7.00,-5.00,-6.00,-2.00,+1.00,+3.00
-9.00,-4.00,-3.00,-3.00,+11.00,-1.00,-1.00,+0.00,-19.00,+34.00,+12.00,+16.00,+23.00,+2.00,+2.00,-1.00
+3.00,-1.00,+2.00,+3.00,-1.00,+5.00,-1.00,+0.00,+25.00,+22.00,+5.00,-11.00,-36.00,-5.00,-2.00,+6.00
-2.00,+0.00,-1.00,-5.00,+1.00,-3.00,-1.00,-4.00,+9.00,-7.00,-11.00,-4.00,+7.00,+1.00,+1.00,+6.00
-3.00,-36.00,-10.00,-3.00,+10.00,+3.00,+0.00,-3.00,-5.00,-1.00,-2.00,-1.00,-3.00,-1.00,-2.00,-9.00
+6.00,+63.00,+1.00,-1.00,-6.00,-3.00,-1.00,-5.00,-3.00,-20.00,+0.00,+2.00,+4.00,-2.00,-2.00,-3.00
+11.00,+23.00,+9.00,+9.00,+1.00,+3.00,+2.00,+11.00,-10.00,-11.00,+0.00,+2.00,+11.00,+1.00,-4.00,-10.00
+7.00,-16.00,+3.00,+4.00,+7.00,+6.00,+2.00,+0.00,-2.00,+5.00,+5.00,+4.00,+7.00,+2.00,+0.00,-4.00
-7.00,-11.00,+9.00,+8.00,-4.00,-4.00,-3.00,-1.00,-1.00,-9.00,-6.00,-6.00,-11.00,-1.00,+0.00,+2.00
-9.00,-24.00,-3.00,-3.00,+4.00,-1.00,+0.00,-1.00,+4.00,-6.00,-7.00,-7.00,+0.00,-2.00,-2.00,-3.00
-13.00,-32.00,-13.00,-16.00,-9.00,-5.00,-4.00,-7.00,-6.00,+8.00,+5.00,+7.00,+6.00,+0.00,+0.00,+2.00
+4.00,+26.00,-19.00,-8.00,-9.00,-4.00,-1.00,+1.00,-1.00,-13.00,-5.00,-3.00,-7.00,-4.00,-3.00,-4.00
-2.00,+5.00,+9.00,+6.00,+4.00,+2.00,+0.00,-2.00,+1.00,+7.00,+2.00,-3.00,+3.00,-1.00,-2.00,+2.00
+3.00,+1.00,+1.00,+4.00,+0.00,+0.00,-3.00,-1.00,+12.00,+17.00,+8.00,+13.00,+13.00,+5.00,+4.00,+12.00
-2.00,-1.00,+5.00,+1.00,+2.00,-3.00,-2.00,+2.00,-12.00,-11.00,-5.00,-5.00,-13.00,-5.00,-4.00,-3.00
+2.00,-11.00,+4.00,+0.00,+3.00,+1.00,-1.00,-2.00,-4.00,+5.00,+2.00,-1.00,-10.00,+2.00,-1.00,-2.00
-4.00,+8.00,-15.00,-13.00,-8.00,-3.00,-4.00,-1.00,-11.00,-7.00,-1.00,-6.00,-5.00,-6.00,-5.00,-9.00
-6.00,-12.00,+2.00,+6.00,+0.00,+0.00,-1.00,-2.00,+20.00,+4.00,+2.00,+5.00,+32.00,+4.00,+4.00,+9.00
-15.00,-19.00,+3.00,+2.00,+6.00,+0.00,-1.00,-3.00,-5.00,-7.00,-6.00,-10.00,-30.00,-3.00,-2.00,-2.00
+5.00,+3.00,-7.00,-8.00,-3.00,-1.00,-2.00,-1.00,+13.00,+15.00,+5.00,-5.00,-4.00,-4.00,-2.00,+6.00
-3.00,+16.00,+10.00,+2.00,+5.00,+0.00,-1.00,+11.00,-3.00,+2.00,-8.00,-4.00,-8.00,-3.00,-2.00,-5.00
+1.00,+10.00,-5.00,-6.00,-18.00,-6.00,-3.00,+2.00,+2.00,-7.00,-3.00,-1.00,+0.00,-2.00,-2.00,-5.00
-2.00,-5.00,-4.00,+4.00,+0.00,-3.00,-3.00,-4.00,-1.00,-11.00,-3.00,+5.00,+19.00,+4.00,+2.00,+1.00
-4.00,-11.00,+5.00,+6.00,+6.00,+4.00,+0.00,-2.00,-8.00,+14.00,+6.00,+7.00,+1.00,+0.00,-3.00,-10.00
-5.00,-5.00,-5.00,-3.00,-8.00,-2.00,+1.00,-6.00,-4.00,+0.00,-2.00,-5.00,-3.00,-2.00,-1.00,+0.00
+9.00,-10.00,+2.00,-1.00,+5.00,-2.00,-1.00,+1.00,-14.00,-19.00,-3.00,-2.00,-5.00,-2.00,-1.00,+0.00
-3.00,-1.00,+0.00,+2.00,-14.00,-4.00,+0.00,+2.00,+8.00,+4.00,-4.00,-2.00,+4.00,-1.00,-2.00,+0.00
-27.00,-4.00,-6.00,+1.00,+4.00,-3.00,-5.00,-16.00,+1.00,-15.00,-2.00,-8.00,-11.00,-2.00,-2.00,+2.00
+5.00,-7.00,+13.00,+0.00,+1.00,+2.00,+1.00,+1.00,+1.00,+27.00,+0.00,+0.00,+4.00,-1.00,+0.00,-2.00
+2.00,+26.00,-17.00,-9.00,-7.00,-7.00,-3.00,-5.00,+6.00,+2.00,-4.00,-2.00,-16.00,-1.00,-5.00,-2.00
-4.00,+7.00,+2.00,-2.00,+2.00,-1.00,+0.00,-2.00,-15.00,-14.00,-5.00,+0.00,-4.00,-1.00,-2.00,-6.00
+2.00,-10.00,-9.00,-4.00,+5.00,+1.00,-1.00,+0.00,-2.00,-4.00,-3.00,+1.00,+9.00,-1.00,+0.00,-1.00
-4.00,+20.00,+3.00,+3.00,-6.00,-2.00,-1.00,-4.00,+0.00,-7.00,+0.00,+6.00,+7.00,+1.00,+0.00,+3.00
+1.00,-13.00,+3.00,+0.00,+4.00,-2.00,+0.00,+3.00,+0.00,-7.00,-3.00,-21.00,-37.00,-7.00,-1.00,+3.00
-3.00,-20.00,-7.00,-1.00,-1.00,+2.00,-3.00,-2.00,-8.00,-2.00,-2.00,+3.00,+17.00,+1.00,-4.00,-11.00
+7.00,+0.00,+6.00,+4.00,-6.00,-1.00,+0.00,+5.00,+18.00,+26.00,+7.00,+4.00,+5.00,+2.00,+3.00,+13.00
-8.00,-25.00,-5.00,+2.00,+13.00,+2.00,-1.00,-5.00,-13.00,-34.00,-12.00,-2.00,-6.00,-1.00,-2.00,-11.00
+3.00,+6.00,+2.00,+0.00,-12.00,-4.00,-3.00,+1.00,-7.00,+6.00,-2.00,-10.00,-24.00,-5.00,-4.00,-10.00
+0.00,+34.00,-6.00,-5.00,-2.00,-1.00,-4.00,-4.00,+3.00,+7.00,+5.00,+1.00,+5.00,-2.00,-1.00,+6.00
+5.00,+39.00,+2.00,+1.00,+4.00,+1.00,+2.00,+6.00,-16.00,+6.00,+4.00,-8.00,-24.00,-4.00,-4.00,-13.00
-4.00,-44.00,-5.00,-1.00,+0.00,+0.00,-2.00,-6.00,+1.00,+1.00,+7.00,+18.00,+24.00,+5.00,+1.00,+5.00
+7.00,-16.00,+2.00,+2.00,+10.00,+8.00,+4.00,+3.00,+5.00,+1.00,-13.00,-21.00,-23.00,-7.00,-4.00,+0.00
-4.00,-39.00,-2.00,-3.00,-11.00,-8.00,-3.00,+0.00,+1.00,-24.00,-8.00,-7.00,-7.00,-3.00,-1.00,-8.00
+6.00,+15.00,+3.00,+0.00,+15.00,-4.00,-1.00,+6.00,-10.00,-17.00,-10.00,+7.00,+9.00,-8.00,-3.00,-17.00
+9.00,+56.00,-3.00,-7.00,-34.00,-10.00,-2.00,-1.00,-4.00,+15.00,+19.00,+7.00,+6.00,+2.00,+9.00,+7.00
-3.00,+7.00,-3.00,+1.00,+10.00,+6.00,+1.00,-1.00,-13.00,-21.00,-1.00,+12.00,+12.00,+22.00,-8.00,-1.00
+1.00,+6.00,+9.00,+3.00,-13.00,-1.00,-1.00,-4.00,+3.00,+21.00,+0.00,+10.00,+6.00,+3.00,+7.00,+6.00
-12.00,-40.00,-15.00,-6.00,+2.00,-3.00,+0.00,-7.00,+5.00,-11.00,-1.00,+16.00,+27.00,+18.00,+7.00,+11.00
-3.00,-71.00,-9.00,-4.00,+7.00,+1.00,-9.00,+0.00,+14.00,-9.00,-14.00,-20.00,-26.00,-26.00,-9.00,-16.00
+9.00,+64.00,+15.00,+9.00,+22.00,+5.00,+21.00,+18.00,-23.00,-14.00,-8.00,-9.00,-7.00,-2.00,+3.00,-4.00
+1.00,-7.00,+5.00,+1.00,-12.00,-2.00,+0.00,-3.00,+1.00,+5.00,+1.00,+1.00,+35.00,+6.00,-4.00,-7.00
+15.00,-5.00,+4.00,+4.00,-13.00,-22.00,-17.00,-6.00,-7.00,-21.00,-9.00,-26.00,-43.00,-16.00,+9.00,+9.00
-8.00,+4.00,-1.00,+5.00,+7.00,+4.00,+8.00,+0.00,-13.00,-13.00,-1.00,+2.00,+20.00,+10.00,-3.00,-1.00
-30.00,-73.00,-25.00,-20.00,-35.00,-12.00,-16.00,-22.00,-39.00,+4.00,+11.00,+8.00,-21.00,-9.00,-10.00,-9.00
+5.00,+33.00,+3.00,+1.00,-5.00,-11.00,-3.00,-2.00,+15.00,-4.00,-15.00,-1.00,+33.00,-37.00,-11.00,-24.00
+6.00,+64.00,+4.00,-1.00,+13.00,+35.00,+13.00,+8.00,+11.00,+27.00,+20.00,+35.00,+51.00,+50.00,+20.00,+33.00
+19.00,-3.00,+15.00,+7.00,+11.00,+3.00,-5.00,-1.00,+28.00,-25.00,-25.00,-24.00,-32.00,+6.00,-9.00,-10.00
-1.00,+46.00,-1.00,-2.00,+13.00,+0.00,-7.00,-4.00,+4.00,-12.00,+4.00,-11.00,-5.00,-1.00,+15.00,+26.00
-34.00,-76.00,-19.00,-3.00,+6.00,-2.00,-2.00,-8.00,+5.00,+60.00,+23.00,+10.00,-16.00,+8.00,-11.00,+5.00
+8.00,-79.00,-7.00,-6.00,-34.00,-12.00,-10.00,+11.00,-16.00,-7.00,-14.00,-25.00,-34.00,-38.00,-12.00,-16.00
+17.00,+112.00,+34.00,+15.00,+4.00,+6.00,+25.00,+1.00,+8.00,+22.00,+5.00,+1.00,+21.00,+8.00,+3.00,+10.00
-14.00,-76.00,-9.00,-8.00,+14.00,+23.00,-7.00,+1.00,+12.00,-36.00,-3.00,+18.00,+23.00,+13.00,+10.00,+16.00
+27.00,+5.00,-4.00,-8.00,-4.00,-26.00,-5.00,+8.00,-2.00,+21.00,+9.00,+1.00,-1.00,-4.00,+8.00,-4.00
-23.00,+24.00,-1.00,+1.00,+17.00,+11.00,-2.00,-15.00,+20.00,-3.00,+2.00,-18.00,-24.00,-20.00,-11.00,-10.00
-27.00,-91.00,-15.00,-17.00,-14.00,-30.00,-29.00,-22.00,+37.00,+46.00,+14.00,+19.00,+22.00,-2.00,-7.00,+14.00
+39.00,+14.00,+25.00,+22.00,+0.00,+5.00,+14.00,+29.00,-14.00,-4.00,+1.00,+9.00,+64.00,+24.00,+2.00,-18.00
+10.00,+55.00,+7.00,-1.00,-2.00,+5.00,+0.00,-2.00,-22.00,-20.00,+2.00,-8.00,-53.00,-13.00,-3.00,-3.00
-5.00,-6.00,-11.00,-8.00,+11.00,-12.00,-3.00,+1.00,+46.00,+1.00,-5.00,-5.00,-46.00,+14.00,+13.00,+11.00
-5.00,+6.00,-15.00,-12.00,-28.00,+3.00,-5.00,+2.00,-16.00,+11.00,+7.00,-4.00,-15.00,-12.00,+4.00,+13.00
-18.00,-22.00,-5.00,-2.00,-12.00,-1.00,+18.00,-6.00,+32.00,+32.00,+10.00,+5.00,+2.00,-16.00,-1.00,-1.00
-4.00,-36.00,-5.00,+7.00,-12.00,+11.00,+13.00,+3.00,-12.00,-18.00,-7.00,+6.00,+27.00,+17.00,-6.00,-5.00
-2.00,-22.00,+5.00,+0.00,+24.00,+5.00,+1.00,+4.00,-9.00,-7.00,-3.00,+0.00,+7.00,-16.00,+2.00,-5.00
-15.00,-3.00,-4.00,+2.00,+8.00,-9.00,-50.00,-14.00,-31.00,-32.00,-5.00,-3.00,-12.00,+18.00,-5.00,-2.00
+19.00,+72.00,+10.00,+4.00,+33.00,+9.00,-8.00,+0.00,+25.00,+32.00,-8.00,-7.00,-6.00,-15.00,-14.00,-23.00
+3.00,+19.00,+0.00,+6.00,+25.00,+21.00,+13.00,+9.00,-7.00,-1.00,-1.00,-3.00,-10.00,+6.00,+4.00,+9.00
-7.00,-48.00,-4.00,-4.00,-19.00,-8.00,+8.00,-6.00,-30.00,-17.00,-3.00,+3.00,+10.00,-4.00,-7.00,-2.00
+0.00,-9.00,-7.00,-1.00,-2.00,-6.00,+4.00,+7.00,+39.00,+12.00,+4.00,+3.00,+17.00,-6.00,+4.00,+4.00
-13.00,-13.00,+1.00,-1.00,-16.00,-9.00,+11.00,+4.00,-41.00,+1.00,-1.00,-3.00,-28.00,-1.00,-1.00,-6.00
-18.00,-55.00,-5.00,-6.00,+5.00,+1.00,+7.00,-2.00,+43.00,+18.00,+1.00,-2.00,+7.00,+2.00,-5.00,-5.00
+14.00,+22.00,+0.00,-2.00,-33.00,-19.00,-1.00,-5.00,-67.00,-31.00,-9.00,-1.00,-6.00,-59.00,-13.00,-24.00
-8.00,-97.00,-16.00,-12.00,+1.00,+7.00,+3.00,+1.00,+46.00,+17.00,+2.00,-4.00,-13.00,+50.00,+1.00,+6.00
+10.00,+61.00,+11.00,+1.00,-20.00,-21.00,-24.00,-7.00,-50.00,-13.00,-4.00,+8.00,+13.00,+7.00,+1.00,-12.00
+16.00,+27.00,+3.00,+0.00,+13.00,+12.00,+24.00,+7.00,+10.00,-33.00,-12.00,-15.00,-5.00,-10.00,+18.00,+30.00
-24.00,-83.00,-12.00,-1.00,+18.00,+7.00,+15.00,-1.00,+8.00,+36.00,+9.00,+9.00,+20.00,+14.00,-13.00,+3.00
+20.00,+58.00,+14.00,+10.00,+8.00,+14.00,+6.00,+10.00,-20.00,+8.00,+2.00,+6.00,+20.00,-14.00,+2.00,+5.00
-17.00,-47.00,-20.00,-11.00,-11.00,-11.00,-6.00,-16.00,+3.00,-25.00,-6.00,-11.00,-35.00,-19.00,-7.00,-8.00
+7.00,+41.00,+14.00,+5.00,+7.00,-10.00,-15.00,+3.00,-49.00,-20.00,+3.00,-2.00,+0.00,+10.00,+3.00,-13.00
+16.00,+87.00,+11.00,+1.00,+0.00,+4.00,+3.00,+1.00,+42.00,+7.00,-5.00,+1.00,+23.00,+17.00,+3.00,+7.00
+1.00,-36.00,-8.00,-1.00,-15.00,-7.00,+4.00,+2.00,-20.00,-6.00,-2.00,-16.00,-57.00,-22.00,-7.00,-15.00
-8.00,-13.00,-2.00,-3.00,-7.00,+1.00,-2.00,-9.00,+10.00,+8.00,+1.00,+16.00,+43.00,+6.00,+5.00,+2.00
+1.00,+35.00,-2.00,-6.00,+15.00,+5.00,-8.00,+1.00,-51.00,-38.00,-10.00,-15.00,-21.00,-9.00,-18.00,-25.00
-9.00,-19.00,-12.00,+4.00,+17.00,-2.00,-10.00,-5.00,+16.00,-14.00,-7.00,-4.00,-9.00,-29.00,+0.00,-1.00
+5.00,+35.00,+15.00,+4.00,-44.00,-8.00,+7.00,+6.00,-22.00,+11.00,+4.00,+13.00,+23.00,+30.00,-2.00,-7.00
+4.00,+1.00,-6.00,-3.00,+32.00,+7.00,-15.00,-1.00,+5.00,-19.00,-12.00,-15.00,-23.00,-8.00,+2.00,-4.00
-20.00,-95.00,-11.00,-6.00,-34.00,-2.00,+20.00,-6.00,+13.00,-1.00,-4.00,+3.00,+8.00,+5.00,+3.00,+3.00
+6.00,+52.00,+21.00,+8.00,+5.00,+1.00,+6.00,+13.00,-22.00,-3.00,-3.00,+1.00,+12.00,+2.00,-7.00,-15.00
-5.00,+37.00,-2.00,-2.00,+20.00,+0.00,+3.00,-6.00,-35.00,-22.00,+6.00,+16.00,+31.00,-5.00,+15.00,-2.00
-9.00,-31.00,-6.00,-3.00,+3.00,-8.00,-20.00,-13.00,+50.00,+30.00,-4.00,-21.00,-27.00,-35.00,-15.00,+4.00
+16.00,+8.00,-3.00,-2.00,-7.00,-2.00,-9.00,+4.00,-30.00,-10.00,-6.00,+8.00,+23.00,+29.00,+4.00,-4.00
-9.00,-14.00,-2.00,-5.00,-20.00,+5.00,-4.00,-4.00,+49.00,+41.00,+7.00,-24.00,-37.00,+10.00,-5.00,+10.00
-15.00,-8.00,-6.00,-1.00,+11.00,-15.00,+3.00,-5.00,+5.00,-24.00,-1.00,+20.00,+53.00,+7.00,+15.00,-8.00
-8.00,+36.00,-3.00,+2.00,+4.00,+1.00,+3.00,-7.00,-12.00,+15.00,+7.00,-21.00,-79.00,-65.00,+4.00,+36.00
-18.00,-39.00,-10.00,-4.00,+14.00,+1.00,-19.00,+1.00,+65.00,+6.00,-1.00,-4.00,+9.00,+78.00,+16.00,+4.00
-8.00,-97.00,-18.00,-7.00,-54.00,-18.00,+13.00,-12.00,-39.00,-15.00,+2.00,+5.00,+15.00,-13.00,+0.00,-35.00
-14.00,+50.00,+19.00,+5.00,+22.00,+8.00,-21.00,-4.00,+45.00,+16.00,-5.00,-12.00,-5.00,-3.00,-11.00,+17.00
+56.00,+56.00,+10.00,+8.00,+14.00,+22.00,+44.00,+26.00,-63.00,-18.00,-13.00,-3.00,+8.00,+0.00,-20.00,-28.00
+0.00,+6.00,+0.00,-6.00,+0.00,+17.00,-14.00,-15.00,+57.00,+31.00,+1.00,+8.00,+24.00,-15.00,+3.00,+16.00
+12.00,+30.00,+6.00,+7.00,+42.00,-5.00,-21.00,+1.00,-3.00,+13.00,+10.00,+19.00,+27.00,+22.00,+5.00,+2.00
-4.00,-79.00,-23.00,-9.00,-20.00,+8.00,-3.00,-5.00,-32.00,-53.00,-17.00,-33.00,-70.00,-23.00,-9.00,-15.00
-34.00,-74.00,+4.00,+1.00,-19.00,-5.00,+0.00,-9.00,+1.00,-11.00,+4.00,+11.00,+21.00,+16.00,-6.00,-26.00
-2.00,+21.00,+1.00,+0.00,+15.00,-20.00,-8.00,-6.00,-37.00,-32.00,-5.00,+14.00,+6.00,-44.00,-7.00,-21.00
+2.00,-13.00,+4.00,+0.00,-20.00,-7.00,+6.00,+1.00,+12.00,+12.00,-8.00,-10.00,-17.00,+9.00,+5.00,+25.00
-32.00,-62.00,-7.00,-4.00,+4.00,+2.00,+6.00,+10.00,-37.00,-18.00,-10.00,-4.00,-12.00,+9.00,-6.00,-3.00
+10.00,+65.00,+5.00,-1.00,+8.00,+3.00,-9.00,-2.00,+74.00,+21.00,-2.00,+9.00,+10.00,+32.00,+21.00,+30.00
-24.00,-62.00,-12.00,-1.00,-3.00,+18.00,+9.00,-5.00,-17.00,-13.00,+2.00,+2.00,-9.00,-14.00,-8.00,-5.00
+3.00,+42.00,+8.00,+7.00,+54.00,+30.00,+8.00,+10.00,-15.00,-2.00,+5.00,+12.00,+60.00,+5.00,+3.00,-2.00
+28.00,+101.00,+31.00,+5.00,-34.00,-23.00,-35.00,-15.00,-7.00,+2.00,-9.00,-11.00,-66.00,-30.00,-7.00,-9.00
+18.00,-31.00,-8.00,-2.00,+13.00,-13.00,+2.00,-8.00,-24.00,-7.00,+4.00,+11.00,+52.00,+15.00,+6.00,-3.00
+0.00,+41.00,+5.00,-3.00,-42.00,-10.00,-12.00,-2.00,+40.00,+24.00,+11.00,+7.00,-33.00,-8.00,+21.00,+60.00
-34.00,-15.00,-14.00,-7.00,-21.00,+3.00,-7.00,-10.00,+1.00,-26.00,-18.00,-31.00,-60.00,-8.00,-18.00,-15.00
+7.00,-56.00,-8.00,+2.00,+26.00,-3.00,+18.00,+3.00,+11.00,+20.00,+5.00,+5.00,+14.00,+0.00,-3.00,-4.00
-23.00,-41.00,-5.00,-6.00,-64.00,+12.00,+9.00,+1.00,+7.00,+10.00,+5.00,+10.00,+32.00,+18.00,-6.00,-8.00
+45.00,+122.00,+9.00,+3.00,+21.00,-9.00,-6.00,+11.00,-43.00,-17.00,+7.00,-9.00,-26.00,-15.00,+4.00,-6.00
-4.00,+0.00,+14.00,-1.00,-1.00,-6.00,-11.00,-14.00,-25.00,-17.00,-1.00,-1.00,+11.00,+19.00,-2.00,+9.00
-12.00,+29.00,-7.00,-4.00,+4.00,+21.00,+14.00,-3.00,-17.00,-49.00,-18.00,-4.00,-8.00,-76.00,+0.00,-4.00
-18.00,-65.00,-8.00,-1.00,+19.00,+1.00,-2.00,+0.00,+72.00,+62.00,+11.00,+2.00,+10.00,+63.00,+5.00,+30.00
-4.00,-62.00,-4.00,+4.00,+29.00,+0.00,-3.00,+3.00,+52.00,+43.00,+9.00,+7.00,+2.00,+2.00,-2.00,+17.00
-10.00,-11.00,-4.00,-4.00,-59.00,+5.00,+30.00,+2.00,-65.00,-44.00,-14.00,-8.00,-13.00,+6.00,-17.00,-37.00
-22.00,-64.00,-13.00,-3.00,+48.00,-12.00,+9.00,-11.00,+5.00,+17.00,+7.00,+1.00,-10.00,-14.00,-6.00,-15.00
+22.00,+34.00,+11.00,-1.00,-39.00,+12.00,+17.00,+13.00,+4.00,+1.00,+4.00,+11.00,+50.00,-6.00,+3.00,+3.00
+12.00,+38.00,+16.00,+10.00,+2.00,+5.00,-20.00,-2.00,-15.00,-7.00,-8.00,-23.00,-59.00,-24.00,-12.00,-12.00
+18.00,+2.00,+5.00,-4.00,+7.00,-25.00,-11.00,+2.00,+20.00,+7.00,-8.00,+3.00,+10.00,+2.00,+2.00,-1.00
+0.00,-34.00,-24.00,-10.00,-23.00,+2.00,+3.00,+2.00,-15.00,+14.00,+8.00,+0.00,+12.00,+4.00,-1.00,-1.00
-15.00,-11.00,-5.00,-1.00,-17.00,-6.00,-6.00,-1.00,-72.00,-40.00,-7.00,-7.00,-12.00,-9.00,-5.00,-15.00
-10.00,-43.00,+0.00,-1.00,-22.00,-20.00,+2.00,-12.00,-10.00,+10.00,-2.00,+7.00,+42.00,+21.00,-5.00,-4.00
+7.00,+13.00,-2.00,-7.00,+28.00,-9.00,-8.00,+0.00,+19.00,+8.00,+11.00,+11.00,-14.00,+6.00,+11.00,+16.00
+6.00,+4.00,-15.00,-5.00,-33.00,+7.00,+7.00,+8.00,+21.00,+14.00,-1.00,-2.00,+23.00,-7.00,+4.00,+14.00
-33.00,-102.00,+2.00,-3.00,+10.00,-6.00,-14.00,-12.00,+8.00,+21.00,+0.00,-15.00,-36.00,-45.00,-10.00,+6.00
+26.00,+73.00,+7.00,+2.00,-7.00,-10.00,-14.00,+11.00,-22.00,-16.00,-5.00,-13.00,-9.00,+45.00,-2.00,-12.00
+9.00,-22.00,-1.00,+5.00,+29.00,-7.00,-1.00,+9.00,+7.00,+5.00,-5.00,+0.00,+10.00,+3.00,-2.00,-8.00
+12.00,-2.00,-12.00,-13.00,-36.00,+5.00,-3.00,+8.00,+11.00,+13.00,+13.00,+8.00,+13.00,+24.00,+4.00,+9.00
+3.00,+14.00,+2.00,-1.00,+2.00,-13.00,+1.00,-4.00,+43.00,-5.00,+1.00,+6.00,+13.00,+1.00,+13.00,+13.00
+1.00,-45.00,-10.00,-2.00,-14.00,+17.00,-2.00,-3.00,+19.00,+10.00,+1.00,+1.00,-5.00,-39.00,-12.00,+10.00
-35.00,+18.00,-8.00,-7.00,-10.00,-6.00,-11.00,-16.00,-46.00,-9.00,+6.00,+2.00,+9.00,+10.00,-5.00,-12.00
+22.00,-56.00,+9.00,+6.00,+13.00,-8.00,-9.00,+7.00,+36.00,+15.00,+0.00,+4.00,-8.00,+26.00,+5.00,+4.00
-5.00,+20.00,-4.00,+5.00,+14.00,+6.00,-5.00,+0.00,-33.00,-41.00,-9.00,-10.00,-19.00,-21.00,-9.00,-39.00
+31.00,+78.00,+13.00,+2.00,+11.00,+19.00,+19.00,+10.00,-24.00,-2.00,-19.00,-15.00,-8.00,-20.00,-8.00,-7.00
+1.00,-6.00,-3.00,-2.00,-16.00,+10.00,+7.00,+0.00,-15.00,-5.00,+6.00,+12.00,+31.00,+10.00,-1.00,-7.00
+20.00,+5.00,+9.00,+6.00,+18.00,-1.00,+6.00,-11.00,+34.00,+9.00,+9.00,-3.00,-9.00,+10.00,+12.00,+23.00
+0.00,-32.00,+3.00,+0.00,-21.00,+1.00,-5.00,+9.00,-7.00,+0.00,-3.00,-8.00,-15.00,-32.00,+1.00,+41.00
-49.00,-72.00,-19.00,-9.00,+10.00,-1.00,+10.00,-16.00,-35.00,-10.00,-2.00,+9.00,+34.00,+24.00,-4.00,-8.00
+25.00,-75.00,+6.00,+7.00,+27.00,+13.00,+6.00,+15.00,+24.00,+23.00,+3.00,+0.00,-16.00,-23.00,-5.00,+6.00
+5.00,+42.00,-5.00,-5.00,-45.00,-14.00,-4.00,+4.00,+0.00,+6.00,+0.00,-1.00,+3.00,+11.00,-2.00,-11.00
-8.00,+74.00,+3.00,-1.00,+23.00,+32.00,+42.00,-16.00,-23.00,+3.00,-3.00,-4.00,-29.00,-8.00,-12.00,-41.00
+17.00,+64.00,+9.00,+6.00,+3.00,-8.00,-10.00,+8.00,+46.00,-11.00,+8.00,-3.00,-15.00,-4.00,+4.00,+13.00
+24.00,-12.00,-3.00,+2.00,-15.00,-4.00,-6.00,+5.00,-18.00,-28.00,-10.00,+3.00,+26.00,+8.00,+10.00,+13.00
-9.00,-14.00,+1.00,-2.00,+18.00,-2.00,+7.00,+0.00,+28.00,+13.00,-8.00,-15.00,-43.00,-24.00,-9.00,-1.00
-1.00,+16.00,-6.00,+0.00,+9.00,-14.00,-17.00,+3.00,-6.00,-1.00,+1.00,+1.00,-10.00,+16.00,-3.00,-6.00
-46.00,-128.00,-36.00,-17.00,-15.00,+15.00,+9.00,-8.00,-20.00,-23.00,-3.00,+10.00,+43.00,-3.00,-2.00,-19.00
+50.00,+127.00,+46.00,+11.00,+20.00,-2.00,+3.00,+13.00,+11.00,+29.00,-5.00,-17.00,-48.00,-15.00,-9.00,-8.00
+15.00,+35.00,+20.00,+15.00,+6.00,+11.00,+0.00,+7.00,-34.00,-33.00,-11.00,+1.00,+17.00,+11.00,+14.00,-1.00
-34.00,-71.00,-16.00,-8.00,+37.00,-13.00,-15.00,-16.00,+11.00,+1.00,-5.00,+4.00,+10.00,+9.00,-13.00,+7.00
+14.00,-4.00,-2.00,-4.00,-23.00,-9.00,+4.00,-5.00,+19.00,-3.00,-4.00,-5.00,-17.00,-11.00,-9.00,-4.00
-28.00,-38.00,-12.00,-1.00,-21.00,-4.00,-9.00,-8.00,+2.00,-1.00,+6.00,-2.00,-14.00,-40.00,-1.00,-4.00
+12.00,+24.00,-1.00,-1.00,+32.00,+19.00,-3.00,+3.00,+1.00,-2.00,-14.00,-9.00,-8.00,+33.00,-2.00,+8.00
-13.00,-23.00,-12.00,-5.00,-17.00,-32.00,+6.00,-6.00,-25.00,-18.00,-1.00,+9.00,+17.00,-33.00,+13.00,+14.00
+5.00,-1.00,+18.00,+6.00,-12.00,+8.00,+19.00,+9.00,-27.00,+7.00,-10.00,-20.00,-24.00,+60.00,-4.00,-58.00
+2.00,+52.00,-3.00,-2.00,+1.00,+13.00,-7.00,+0.00,+31.00,+3.00,+7.00,+8.00,+7.00,+3.00,+15.00,+57.00
+4.00,+24.00,+12.00,+4.00,-6.00,-7.00,-9.00,+13.00,-55.00,-10.00,-4.00,+2.00,+21.00,-12.00,-12.00,-11.00
+3.00,-52.00,-23.00,-11.00,+3.00,+4.00,-19.00,-4.00,+50.00,+23.00,+10.00,+7.00,+14.00,+12.00,+10.00,+24.00
+3.00,+35.00,+13.00,+3.00,+39.00,-8.00,-5.00,-4.00,-20.00,-7.00,-7.00,-8.00,-25.00,-32.00,-7.00,-20.00
-1.00,-50.00,-13.00,-5.00,-63.00,+1.00,+3.00,+0.00,-1.00,-2.00,+0.00,+3.00,-7.00,+2.00,+2.00,+3.00
-10.00,+81.00,+8.00,+0.00,+6.00,-6.00,+7.00,+0.00,+17.00,+4.00,+1.00,+5.00,+19.00,+7.00,-5.00,-19.00
+6.00,-24.00,-2.00,-5.00,-1.00,+0.00,-7.00,+8.00,-9.00,-4.00,+6.00,-5.00,-36.00,+2.00,-4.00,-6.00
-6.00,-26.00,-7.00,+0.00,-12.00,+2.00,+1.00,-7.00,+33.00,+43.00,+15.00,+13.00,+21.00,-9.00,+7.00,+36.00
-18.00,-27.00,-17.00,-5.00,+5.00,+1.00,-6.00,-1.00,-13.00,-9.00,-5.00,-3.00,+31.00,+41.00,+8.00,-17.00
-5.00,+39.00,+9.00,-1.00,+15.00,+1.00,+4.00,-13.00,-15.00,-20.00,+2.00,-6.00,-40.00,-37.00,-11.00,+3.00
+43.00,-18.00,+24.00,+16.00,+14.00,-4.00,+4.00,+32.00,-40.00,-15.00,-12.00,-14.00,-17.00,-9.00,-14.00,-37.00
-3.00,-22.00,-2.00,-6.00,-6.00,-1.00,+2.00,+5.00,+18.00,+13.00,+9.00,+3.00,+14.00,-4.00,+6.00,+14.00
-18.00,-27.00,-12.00,-7.00,-15.00,-14.00,-8.00,-14.00,-15.00,-10.00,+6.00,+9.00,+28.00,-3.00,-10.00,-9.00
-17.00,-78.00,-21.00,-8.00,-27.00,-17.00,-18.00,-15.00,+32.00,+36.00,-1.00,-3.00,-12.00,+7.00,+8.00,+9.00
+2.00,+111.00,+9.00,-4.00,+7.00,+19.00,+18.00,+0.00,-37.00,-18.00,+7.00,+8.00,+34.00,-21.00,+4.00,-3.00
+16.00,+3.00,+1.00,+2.00,+14.00,-8.00,-21.00,+3.00,+7.00,+4.00,-6.00,-5.00,-12.00,+60.00,+8.00,-5.00
+0.00,-37.00,-4.00,+5.00,+5.00,+2.00,+4.00,+4.00,+5.00,-12.00,-6.00,-6.00,-10.00,-1.00,-22.00,+0.00
-18.00,-36.00,-4.00,-6.00,-12.00,-8.00,-11.00,-14.00,-22.00,-19.00,-7.00,-6.00,+0.00,-8.00,+0.00,-7.00
+10.00,-51.00,-7.00,+2.00,-17.00,+1.00,-5.00,+5.00,+35.00,+23.00,-1.00,-7.00,-10.00,-21.00,-16.00,-15.00
+4.00,+67.00,+11.00,+4.00,+10.00,-3.00,+3.00,+1.00,-47.00,-18.00,+2.00,+2.00,+9.00,+7.00,+1.00,+11.00
-6.00,+6.00,+4.00,+2.00,+16.00,-22.00,-16.00,-3.00,-14.00,-41.00,-5.00,+15.00,+26.00,+7.00,+8.00,-19.00
-15.00,-8.00,-4.00,-5.00,-15.00,+11.00,+10.00,-12.00,-26.00,-8.00,-10.00,-17.00,-28.00,-2.00,-10.00,-11.00
-3.00,+12.00,-3.00,-2.00,+2.00,-5.00,-6.00,-9.00,+17.00,-20.00,-9.00,-14.00,-30.00,-3.00,-1.00,+7.00
-23.00,-92.00,-16.00,-8.00,-2.00,-8.00,-13.00,-2.00,+2.00,+23.00,+2.00,+7.00,+22.00,-3.00,+9.00,+5.00
+3.00,+51.00,+13.00,-2.00,-12.00,+3.00,+7.00,-3.00,+39.00,+42.00,+3.00,-3.00,-28.00,-16.00,-4.00,+2.00
+12.00,+85.00,+17.00,+11.00,+16.00,-3.00,+1.00,+5.00,-38.00,+9.00,+3.00,+6.00,+12.00,-12.00,-17.00,+8.00
+11.00,+22.00,+0.00,-5.00,-23.00,-11.00,-4.00,+4.00,+27.00,-30.00,-10.00,-4.00,-4.00,+16.00,+6.00,+2.00
-19.00,-50.00,-22.00,-6.00,+18.00,-8.00,-10.00,-5.00,+3.00,+5.00,-10.00,-10.00,-22.00,-22.00,-10.00,-16.00
-4.00,-30.00,-13.00,-8.00,-21.00,-4.00,-12.00,-7.00,-2.00,-4.00,-5.00,-10.00,-13.00,+5.00,+10.00,+24.00
+2.00,+14.00,-5.00,+4.00,-10.00,+5.00,+31.00,+14.00,+8.00,+18.00,+8.00,+4.00,+17.00,-3.00,+6.00,+6.00
+0.00,-9.00,+11.00,-1.00,+0.00,-16.00,-25.00,-11.00,+27.00,+14.00,-3.00,-13.00,+1.00,+6.00,-2.00,-10.00
+23.00,+94.00,+7.00,-3.00,-6.00,+1.00,+11.00,+4.00,-13.00,+3.00,+12.00,+6.00,-10.00,+16.00,+2.00,+5.00
-18.00,-99.00,-26.00,-3.00,-2.00,+15.00,-4.00,+10.00,+23.00,+24.00,-4.00,-8.00,-13.00,-2.00,-5.00,-14.00
+8.00,+53.00,-3.00,-7.00,-7.00,-7.00,-11.00,-11.00,-32.00,-34.00,-3.00,+10.00,+22.00,+1.00,-2.00,-21.00
+5.00,+4.00,+19.00,+11.00,+23.00,+9.00,+9.00,+3.00,-11.00,+2.00,+3.00,+10.00,+8.00,+28.00,+5.00,-2.00
-10.00,-43.00,-2.00,+3.00,+7.00,+2.00,+4.00,-1.00,+10.00,-2.00,-1.00,+11.00,+22.00,-32.00,+4.00,+17.00
-6.00,+24.00,-1.00,-4.00,-5.00,+8.00,+8.00,-8.00,+28.00,-31.00,-6.00,+8.00,+5.00,-1.00,+7.00,+35.00
+2.00,-60.00,+3.00,+1.00,+1.00,-13.00,-6.00,+3.00,+3.00,+11.00,-10.00,-19.00,-37.00,+4.00,+0.00,-6.00
+11.00,+30.00,-8.00,-2.00,-4.00,+1.00,-1.00,+1.00,+16.00,+36.00,+16.00,+11.00,+8.00,+10.00,+6.00,+12.00
-15.00,-16.00,+1.00,-1.00,-6.00,-7.00,-3.00,+6.00,-53.00,-34.00,-11.00,+5.00,+17.00,-23.00,-18.00,-25.00
+1.00,-13.00,+0.00,+3.00,+2.00,+2.00,+7.00,-1.00,+15.00,+2.00,-3.00,-13.00,-12.00,-19.00,-14.00,-19.00
+16.00,+10.00,+8.00,+2.00,+12.00,+6.00,+3.00,-1.00,-30.00,-32.00,+1.00,+9.00,+4.00,+4.00,-2.00,-25.00
-1.00,+0.00,-9.00,-12.00,-51.00,-18.00,-16.00,-12.00,+21.00,+5.00,-17.00,-11.00,-5.00,+1.00,+11.00,+45.00
-6.00,-55.00,-6.00,-1.00,+8.00,-11.00,-5.00,-3.00,+3.00,+3.00,+9.00,-5.00,-1.00,-5.00,-4.00,-22.00
+23.00,+47.00,+19.00,+4.00,+36.00,+11.00,+11.00,+12.00,-62.00,-35.00,-11.00,+2.00,-3.00,+14.00,+4.00,-6.00
-4.00,-24.00,-5.00,-3.00,-17.00,+9.00,+8.00,+8.00,+61.00,+15.00,+12.00,+16.00,+40.00,-4.00,+1.00,+5.00
+1.00,-25.00,-5.00,+3.00,+14.00,+3.00,-4.00,+5.00,-18.00,+8.00,+0.00,+4.00,+15.00,-7.00,+0.00,-13.00
-18.00,+13.00,-4.00,-4.00,+2.00,+8.00,+4.00,-20.00,+20.00,+0.00,-1.00,+2.00,-16.00,-41.00,-1.00,+19.00
-17.00,-53.00,-11.00,-5.00,-2.00,-25.00,-16.00,+5.00,-15.00,-4.00,-10.00,-24.00,-23.00,+64.00,+3.00,-4.00
+28.00,+61.00,+14.00,+4.00,+9.00,+7.00,-6.00,+5.00,+17.00,-1.00,-6.00,-5.00,-3.00,+3.00,-2.00,+11.00
-5.00,-5.00,-4.00,+2.00,-24.00,-3.00,-1.00,+7.00,-13.00,-2.00,+7.00,+4.00,+6.00,-5.00,-2.00,-8.00
+12.00,+4.00,+2.00,+2.00,-1.00,+9.00,+23.00,+5.00,-16.00,-18.00,-18.00,-15.00,-16.00,-12.00,-6.00,-14.00
-9.00,-15.00,-8.00,-4.00,+0.00,-12.00,-4.00,-14.00,+41.00,+39.00,+25.00,+18.00,+23.00,+0.00,+14.00,+22.00
-11.00,-22.00,-13.00,-9.00,+20.00,-3.00,-4.00,+0.00,+22.00,+11.00,-2.00,-4.00,-8.00,-25.00,-7.00,+11.00
-26.00,-17.00,-13.00,-13.00,-39.00,+13.00,+10.00,-10.00,-15.00,-13.00,+3.00,+2.00,+2.00,+22.00,+0.00,-8.00
+6.00,-16.00,+12.00,+11.00,-9.00,+4.00,-6.00,+10.00,+19.00,-14.00,-8.00,-2.00,-9.00,-9.00,+6.00,+30.00
+17.00,+47.00,+6.00,+0.00,+1.00,-5.00,-2.00,-3.00,-14.00,-4.00,-4.00,+3.00,+9.00,-5.00,-2.00,-18.00
-27.00,+38.00,+4.00,+4.00,+14.00,-8.00,-1.00,-21.00,+0.00,-16.00,-5.00,-4.00,-3.00,+12.00,-12.00,-26.00
-15.00,-22.00,-7.00,-3.00,+14.00,+2.00,-2.00,-7.00,-32.00,+5.00,-1.00,+5.00,+7.00,-1.00,+0.00,+8.00
-6.00,+18.00,-10.00,-7.00,-12.00,-3.00,-17.00,-2.00,+0.00,-8.00,-11.00,-20.00,-29.00,-6.00,-6.00,-27.00
+6.00,+56.00,+12.00,+3.00,+17.00,+18.00,+40.00,+4.00,+15.00,+16.00,+0.00,-2.00,-16.00,-12.00,-3.00,+4.00
-3.00,-77.00,-16.00,+0.00,-8.00,-10.00,-9.00,+1.00,-20.00,-18.00,-8.00,-6.00,-2.00,+3.00,+14.00,+41.00
+13.00,+5.00,+3.00,-1.00,-17.00,+3.00,+5.00,+14.00,-33.00,-38.00,-3.00,+12.00,+10.00,+0.00,+0.00,+7.00
+2.00,+47.00,+7.00,+2.00,-7.00,+10.00,+2.00,-11.00,+46.00,+20.00,-1.00,-11.00,-10.00,+3.00,+0.00,+5.00
+19.00,+9.00,+0.00,-1.00,+23.00,-2.00,-14.00,+1.00,-5.00,+12.00,+4.00,+5.00,+2.00,-5.00,-2.00,-10.00
-10.00,-80.00,-23.00,-7.00,+11.00,+0.00,+2.00,+2.00,+13.00,+2.00,+1.00,+8.00,+4.00,-3.00,-1.00,-9.00
-14.00,-46.00,+4.00,+0.00,-37.00,-12.00,-3.00,-12.00,-49.00,-47.00,-9.00,-2.00,+1.00,+13.00,+0.00,-19.00
+22.00,+94.00,+11.00,-1.00,+13.00,-8.00,-5.00,-4.00,+8.00,+14.00,+12.00,+14.00,+22.00,+17.00,+11.00,+32.00
+21.00,-34.00,-1.00,+0.00,-8.00,-1.00,-14.00,+3.00,+10.00,-5.00,-5.00,+3.00,+9.00,-58.00,-3.00,+12.00
-17.00,-13.00,-2.00,-1.00,+2.00,+9.00,+8.00,+6.00,-23.00,-22.00,+5.00,+10.00,-25.00,+0.00,+9.00,+18.00
+37.00,-23.00,-1.00,+3.00,+26.00,-3.00,-1.00,+18.00,+17.00,+8.00,-8.00,-20.00,-25.00,+33.00,-15.00,-28.00
+20.00,-22.00,-4.00,-1.00,-6.00,-6.00,-1.00,+10.00,-20.00,-10.00,+11.00,+29.00,+28.00,+18.00,-4.00,-21.00
-40.00,+23.00,+0.00,-2.00,-14.00,+7.00,-1.00,-24.00,-31.00,-8.00,-1.00,+7.00,+30.00,-24.00,-18.00,-32.00
+15.00,-11.00,+10.00,+7.00,+12.00,-22.00,+20.00,+8.00,-6.00,-18.00,-21.00,-12.00,-9.00,-14.00,-8.00,-23.00
-12.00,+42.00,-1.00,-10.00,+3.00,-2.00,-20.00,-28.00,-2.00,-11.00,-10.00,-16.00,-10.00,-11.00,-4.00,+11.00
-31.00,-18.00,-10.00,-6.00,-37.00,-6.00,+3.00,-9.00,-19.00,-15.00,-2.00,-6.00,-16.00,-11.00,-1.00,-15.00
+24.00,-24.00,+6.00,+10.00,+32.00,+22.00,+21.00,+28.00,+1.00,+14.00,+0.00,-10.00,+4.00,+30.00,+9.00,+9.00
-2.00,-25.00,-3.00,+2.00,-30.00,+7.00,-8.00,+10.00,+1.00,+28.00,+34.00,+44.00,+54.00,+0.00,-6.00,-20.00
-2.00,+68.00,+4.00,+0.00,+48.00,+5.00,-13.00,+5.00,+23.00,+11.00,-1.00,-2.00,-13.00,-13.00,-5.00,-2.00
-13.00,+1.00,-5.00,-4.00,-4.00,+2.00,-6.00,-10.00,-17.00,-20.00,-12.00,-20.00,-14.00,+1.00,-4.00,+4.00
+11.00,-9.00,+1.00,+0.00,+4.00,-6.00,-13.00,+7.00,+26.00,+9.00,+1.00,-5.00,-25.00,-69.00,+4.00,+26.00
-4.00,+3.00,+2.00,-1.00,-1.00,-3.00,-6.00,+1.00,+6.00,+7.00,+5.00,-2.00,+21.00,+97.00,+4.00,-26.00
+6.00,+3.00,+14.00,+18.00,+32.00,+35.00,+27.00,-1.00,-5.00,+13.00,+6.00,+14.00,+19.00,-13.00,-2.00,-3.00
-16.00,-19.00,-7.00,-5.00,+5.00,-7.00,-6.00,-12.00,-11.00,-3.00,-10.00,-22.00,-20.00,-17.00,-22.00,-36.00
+2.00,+2.00,-5.00,-5.00,-12.00,-10.00,+1.00,+7.00,+26.00,+16.00,+8.00,+3.00,+7.00,+8.00,-3.00,-4.00
-30.00,-1.00,-14.00,-11.00,-19.00,+7.00,-8.00,-48.00,-37.00,-39.00,-16.00,-22.00,-28.00,-37.00,+4.00,-9.00
+42.00,+24.00,+16.00,+7.00,-8.00,-8.00,+3.00,+33.00,+10.00,+10.00,+2.00,+3.00,+9.00,+29.00,+16.00,+23.00
+19.00,-7.00,+7.00,+3.00,+12.00,-3.00,+6.00,+12.00,+47.00,+29.00,+14.00,+12.00,+11.00,-9.00,+5.00,+2.00
+5.00,+11.00,+4.00,+2.00,+12.00,-5.00,-13.00,-9.00,-24.00,-14.00,-8.00,-10.00,-15.00,+18.00,-17.00,-45.00
-14.00,+6.00,+5.00,+7.00,-7.00,+13.00,+18.00,+5.00,+2.00,+9.00,+4.00,+9.00,+2.00,-21.00,-7.00,+4.00
+5.00,-18.00,-21.00,-12.00,+0.00,-12.00,+5.00,+5.00,+6.00,+2.00,+0.00,-6.00,-8.00,-6.00,-1.00,-1.00
-7.00,-26.00,-3.00,+0.00,-8.00,-16.00,-23.00,-6.00,+23.00,+30.00,+18.00,+9.00,+21.00,+10.00,+7.00,+6.00
-45.00,+5.00,+6.00,+4.00,+0.00,+15.00,-3.00,-35.00,-4.00,+24.00,+24.00,+14.00,-7.00,+13.00,+8.00,+6.00
+50.00,+18.00,+24.00,+12.00,+14.00,-3.00,+5.00,+47.00,-6.00,-15.00,+5.00,-3.00,-6.00,-73.00,+11.00,+27.00
-3.00,-15.00,-2.00,+4.00,+10.00,+13.00,+7.00,-3.00,+2.00,+3.00,-9.00,-7.00,+8.00,+60.00,+5.00,-25.00
+21.00,-11.00,-2.00,-6.00,+11.00,-8.00,-1.00,-9.00,-7.00,-28.00,-21.00,-16.00,-17.00,-12.00,-22.00,-12.00
+21.00,+9.00,-7.00,-5.00,-26.00,-3.00,-13.00,+11.00,-39.00,-19.00,-2.00,+9.00,+15.00,+13.00,+4.00,+23.00
+35.00,+25.00,+3.00,-2.00,-2.00,+2.00,+13.00,+25.00,-23.00,+1.00,-3.00,-10.00,-5.00,-17.00,-17.00,-37.00
+0.00,+31.00,+10.00,+3.00,+14.00,+2.00,-9.00,+2.00,+45.00,+12.00,+4.00,+8.00,+2.00,+19.00,+10.00,+28.00
-43.00,-44.00,-7.00,+6.00,-2.00,+23.00,+20.00,+2.00,+9.00,+7.00,-4.00,-4.00,+2.00,-7.00,-3.00,+6.00
-12.00,-20.00,-10.00,-14.00,-19.00,-19.00,-30.00,+0.00,-18.00,-51.00,-18.00,-6.00,-6.00,+9.00,+9.00,-9.00
+18.00,+23.00,-8.00,-5.00,+5.00,+5.00,-9.00,-19.00,-32.00,+3.00,+1.00,+4.00,+9.00,-17.00,-9.00,-50.00
-66.00,-46.00,-25.00,-13.00,+9.00,-15.00,-18.00,-12.00,+12.00,-3.00,-3.00,+7.00,-9.00,-3.00,-3.00,+22.00
+40.00,+28.00,+10.00,+1.00,-29.00,+4.00,+22.00,+19.00,-7.00,-7.00,+0.00,-12.00,-18.00,-11.00,-2.00,-3.00
+4.00,+8.00,+7.00,+3.00,+1.00,-9.00,+11.00,+16.00,-13.00,-13.00,-22.00,-8.00,-3.00,+9.00,-1.00,+34.00
+9.00,-9.00,-9.00,-10.00,-4.00,+25.00,-18.00,-2.00,+14.00,+9.00,-4.00,+5.00,-2.00,-17.00,-3.00,-1.00
-67.00,-43.00,-16.00,-1.00,-13.00,-30.00,+27.00,-24.00,+15.00,-1.00,+1.00,-16.00,+10.00,+7.00,+10.00,+33.00
+9.00,+13.00,+6.00,+2.00,-10.00,+20.00,+2.00,-10.00,-36.00,+4.00,+13.00,+16.00,+4.00,-10.00,-15.00,-50.00
-33.00,-16.00,-6.00,-10.00,-6.00,-6.00,-11.00,-14.00,+26.00,+20.00,-14.00,-19.00,-15.00,-23.00,-18.00,-41.00
+5.00,+23.00,+13.00,+3.00,-16.00,-22.00,-29.00,-6.00,+15.00,-5.00,-7.00,-1.00,+11.00,+43.00,+11.00,+34.00
-48.00,-21.00,-11.00,-7.00,+0.00,-18.00,-10.00,-33.00,-51.00,-16.00,-10.00,-14.00,-24.00,-98.00,-30.00,-18.00
-2.00,-1.00,+3.00,+6.00,-8.00,+12.00,+19.00,+1.00,-2.00,+10.00,-8.00,+14.00,+15.00,+67.00,+13.00,-11.00
-15.00,+8.00,-4.00,+1.00,+14.00,+13.00,+23.00,+0.00,+18.00,+4.00,-5.00,-27.00,-30.00,-7.00,-11.00,-2.00
-38.00,-99.00,-33.00,-14.00,+13.00,-12.00,-56.00,-12.00,-12.00,+21.00,+16.00,+11.00,+20.00,+34.00,+24.00,+56.00
+16.00,+8.00,+6.00,+8.00,+4.00,+17.00,+49.00,+18.00,-22.00,-9.00,+0.00,-7.00,-15.00,-46.00,-23.00,-53.00
-41.00,+3.00,-4.00,-9.00,-11.00,-15.00,-16.00,-5.00,-3.00,-14.00,-3.00,+4.00,-1.00,-21.00,+0.00,+12.00
+22.00,-12.00,+5.00,+9.00,-1.00,+7.00,+31.00,+22.00,+33.00,+38.00,+8.00,+1.00,+13.00,-5.00,+8.00,+15.00
-44.00,-22.00,-15.00,-9.00,+5.00,-14.00,-38.00,-33.00,-42.00,-26.00,-4.00,-6.00,-20.00,-3.00,-22.00,-33.00
+43.00,+39.00,+16.00,+9.00,-8.00,+10.00,+4.00,+48.00,-28.00,-10.00,-4.00,-1.00,-7.00,+6.00,-15.00,-13.00
-40.00,-26.00,-13.00,-12.00,+2.00,-10.00,-10.00,-12.00,+36.00,-2.00,-12.00,-11.00,-2.00,-33.00,-11.00,+13.00
-67.00,-14.00,-32.00,-16.00,-18.00,-8.00,-9.00,-40.00,+21.00,+23.00,+25.00,+9.00,+13.00,+80.00,+30.00,+40.00
+12.00,-31.00,+2.00,+0.00,+10.00,+32.00,+55.00,+8.00,+55.00,+26.00,-6.00,-20.00,-11.00,+9.00,-9.00,+36.00
-9.00,+12.00,-2.00,-6.00,-13.00,-8.00,-36.00,-51.00,-23.00,+2.00,+3.00,+11.00,+16.00,+10.00,-11.00,-44.00
+45.00,+66.00,+20.00,+11.00,+47.00,+8.00,-28.00,+5.00,-29.00,-15.00,+0.00,+0.00,-3.00,+21.00,+6.00,+27.00
-55.00,-41.00,-14.00,-6.00,-17.00,+3.00,+41.00,-3.00,+19.00,-19.00,-15.00,+0.00,-6.00,+4.00,+12.00,+35.00
+18.00,+37.00,+13.00,+12.00,+7.00,-22.00,-22.00,+6.00,+4.00,+14.00,+1.00,-7.00,-6.00,-43.00,-9.00,-28.00
-11.00,-17.00,-6.00,-9.00,-15.00,-15.00,-32.00,-13.00,-27.00,-35.00,-6.00,+2.00,+2.00,+7.00,+28.00,+52.00
-21.00,-82.00,-28.00,-6.00,+11.00,+15.00,+35.00,+14.00,+11.00,+19.00,+4.00,-1.00,+5.00,-10.00,-1.00,-6.00
+44.00,+27.00,+10.00,-8.00,-6.00,-19.00,-22.00,-16.00,-8.00,-3.00,+12.00,+6.00,-11.00,-6.00,+1.00,-8.00
+8.00,+28.00,-6.00,-4.00,-5.00,-18.00,+5.00,-11.00,-18.00,+2.00,+4.00,+7.00,+10.00,+6.00,-12.00,-50.00
-58.00,-61.00,-14.00,+3.00,+22.00,+51.00,+50.00,+2.00,+30.00,+13.00,+17.00,+7.00,-1.00,+31.00,+21.00,+76.00
+26.00,+55.00,-5.00,-5.00,-33.00,-24.00,-54.00,+5.00,-1.00,-8.00,-4.00,-3.00,-9.00,-76.00,+5.00,-13.00
+0.00,+46.00,+4.00,+3.00,+0.00,+11.00,+4.00,+13.00,-7.00,-9.00,-9.00,-5.00,+7.00,+52.00,+1.00,+36.00
+29.00,+12.00,+17.00,+12.00,+3.00,-8.00,+38.00,+25.00,+4.00,+9.00,-2.00,+7.00,+2.00,+20.00,-9.00,-23.00
-10.00,-11.00,-15.00,-6.00,-2.00,-19.00,-38.00,-35.00,-23.00,+18.00,+13.00,+7.00,-3.00,-14.00,+1.00,-36.00
+12.00,+5.00,+8.00,-6.00,-22.00,-19.00,+14.00,+17.00,-26.00,-38.00,-11.00,-11.00,-8.00,+6.00,+17.00,+46.00
-18.00,-63.00,-4.00,+3.00,+2.00,+14.00,-13.00,+2.00,+26.00,+9.00,-4.00,-5.00,-3.00,-11.00,-5.00,+1.00
+0.00,+11.00,-4.00,-5.00,-4.00,-4.00,-7.00,-5.00,+35.00,+16.00,+9.00,+14.00,+8.00,-37.00,+9.00,+23.00
+35.00,+81.00,+4.00,-1.00,+13.00,-9.00,-13.00,-25.00,-6.00,-3.00,+1.00,-5.00,-12.00,+23.00,-3.00,-37.00
+49.00,+34.00,+24.00,+15.00,+3.00,+27.00,+38.00,+30.00,+17.00,+9.00,-2.00,-2.00,+8.00,+14.00,+4.00,+19.00
+22.00,+56.00,+14.00,+1.00,-8.00,-15.00,-29.00,-11.00,-11.00,+5.00,-5.00,-6.00,-11.00,-26.00,-19.00,-39.00
-28.00,-33.00,-9.00,+1.00,+1.00,+0.00,+10.00,+7.00,+0.00,-10.00,-4.00,-8.00,+2.00,+29.00,+5.00,+9.00
-8.00,-61.00,+1.00,+1.00,+13.00,+11.00,+15.00,+5.00,+3.00,+19.00,-2.00,-12.00,-14.00,-71.00,+4.00,+10.00
+9.00,-1.00,+6.00,+2.00,+1.00,+1.00,+3.00,-8.00,+17.00,-6.00,-12.00,-1.00,+0.00,+94.00,+16.00,+22.00
+67.00,+31.00,+5.00,+5.00,+3.00,-8.00,-7.00,+36.00,-4.00,+19.00,+8.00,+2.00,+0.00,-57.00,-40.00,-45.00
-30.00,-30.00,-4.00,-3.00,+9.00,-4.00,-18.00,-7.00,-25.00,-4.00,+0.00,+5.00,+16.00,+39.00,-16.00,-14.00
+39.00,-4.00,-4.00,-1.00,-36.00,-16.00,-4.00,-4.00,-47.00,-11.00,-14.00,-10.00,-17.00,+8.00,-27.00,-61.00
-15.00,-54.00,-10.00,-7.00,+13.00,+4.00,+1.00,-11.00,+62.00,+36.00,+11.00,-2.00,-8.00,-15.00,-12.00,-36.00
+17.00,+5.00,+3.00,+4.00,+0.00,-5.00,+3.00,+5.00,-19.00,-18.00,-5.00,+5.00,+12.00,+4.00,+20.00,+69.00
-70.00,-11.00,+1.00,+5.00,+10.00,+7.00,+12.00,-9.00,+37.00,+17.00,+9.00,-4.00,-5.00,+20.00,+23.00,+47.00
+10.00,+56.00,+17.00,+3.00,-21.00,-22.00,-40.00,-5.00,-1.00,+12.00,+5.00,+8.00,+10.00,-20.00,-20.00,-48.00
-27.00,-2.00,+0.00,+8.00,+27.00,-1.00,+5.00,-29.00,-22.00,+1.00,-3.00,-1.00,+3.00,+10.00,-7.00,+18.00
+45.00,-6.00,+21.00,+12.00,+14.00,+4.00,+18.00,+38.00,-3.00,-4.00,+17.00,+22.00,+10.00,+6.00,+18.00,+13.00
+34.00,+79.00,+10.00,+1.00,-15.00,+11.00,+6.00,-17.00,+12.00,-3.00,-13.00,-26.00,-26.00,-93.00,-12.00,+15.00
+0.00,+8.00,+4.00,-2.00,-1.00,-10.00,-9.00,+4.00,+16.00,+1.00,-4.00,+4.00,+3.00,+72.00,+11.00,-4.00
-19.00,-65.00,-7.00,+7.00,+9.00,+2.00,-32.00,-2.00,-56.00,-23.00,+2.00,+4.00,+1.00,-12.00,-16.00,-11.00
-79.00,-59.00,-26.00,-19.00,-18.00,-1.00,+28.00,-38.00,+52.00,+46.00,+9.00,+3.00,-2.00,-23.00,-26.00,-87.00
+13.00,+56.00,+4.00,+0.00,+6.00,+9.00,+20.00,+0.00,-37.00,-45.00,-30.00,-30.00,-26.00,+12.00,+14.00,+54.00
+25.00,+8.00,+5.00,+2.00,+11.00,+51.00,+52.00,+9.00,+46.00,-6.00,-5.00,+8.00,+16.00,+4.00,+23.00,+58.00
-11.00,-20.00,-17.00,-16.00,-18.00,-62.00,-84.00,+21.00,-23.00,+4.00,+2.00,-6.00,-10.00,-36.00,-15.00,-39.00
-41.00,-44.00,-12.00,+2.00,+1.00,-15.00,-13.00,-15.00,-69.00,-43.00,-11.00,-5.00,+0.00,+1.00,-13.00,-33.00
+0.00,-56.00,+5.00,-1.00,-11.00,-8.00,-5.00,+25.00,+39.00,+25.00,+7.00,+15.00,+11.00,+28.00,+8.00,+1.00
+79.00,+83.00,+15.00,+1.00,-9.00,-3.00,+15.00,+23.00,-12.00,+10.00,+0.00,-16.00,-15.00,-35.00,-15.00,-53.00
+16.00,+34.00,+0.00,-1.00,-3.00,+9.00,+36.00,-7.00,-7.00,-15.00,+16.00,+16.00,+11.00,+25.00,+18.00,+27.00
-25.00,-10.00,-3.00,+1.00,+11.00,+9.00,-32.00,-5.00,+13.00,-12.00,-34.00,-29.00,-26.00,-89.00,-13.00,-4.00
+22.00,-9.00,+2.00,-1.00,-6.00,+4.00,+16.00,+6.00,-4.00,+2.00,+13.00,+7.00,+8.00,+99.00,+4.00,-14.00
-47.00,+4.00,+16.00,+9.00,-1.00,-9.00,-18.00,+12.00,+13.00,+6.00,+5.00,+5.00,+6.00,-30.00,+8.00,+46.00
-13.00,-30.00,-2.00,-9.00,-4.00,-4.00,+23.00,+9.00,-39.00,-5.00,+8.00,+4.00,+12.00,+45.00,+6.00,-7.00
+66.00,+81.00,+10.00,+2.00,-4.00,+6.00,+5.00,+2.00,+17.00,+21.00,+14.00,+5.00,+1.00,+10.00,-4.00,-4.00
-59.00,-51.00,-30.00,-18.00,-9.00,-5.00,-6.00,-9.00,-36.00,-28.00,-12.00,-7.00,-5.00,-10.00,+3.00,-19.00
-40.00,-24.00,-17.00,-13.00,-13.00,-20.00,-22.00,-35.00,+17.00,+7.00,-11.00,-4.00,-4.00,-19.00,-18.00,-24.00
-27.00,-7.00,-13.00,-11.00,-7.00,+5.00,-17.00,-37.00,+24.00,+5.00,-1.00,-6.00,-6.00,-15.00,+0.00,+15.00
+15.00,+22.00,+11.00,+9.00,+9.00,+9.00,+40.00,+18.00,+4.00,+10.00,+15.00,+14.00,+7.00,+9.00,+4.00,+10.00
-3.00,+1.00,+10.00,+8.00,+11.00,+4.00,-37.00,-24.00,-24.00,-11.00,-8.00,-5.00,+0.00,+3.00,-6.00,-3.00
+28.00,+13.00,+7.00,-4.00,-12.00,-22.00,-13.00,+14.00,+36.00,+13.00,+4.00,+2.00,+14.00,+34.00,+27.00,+21.00
-26.00,-43.00,-8.00,-1.00,+4.00,+24.00,+19.00,-12.00,-15.00,-10.00,-7.00,-6.00,-13.00,-42.00,-33.00,-8.00
-28.00,-24.00,-8.00,-5.00,-2.00,-5.00,-15.00,-30.00,-19.00,-16.00,-1.00,+2.00,+3.00,+12.00,-3.00,-18.00
-29.00,+14.00,+6.00,+3.00,-1.00,+1.00,-1.00,-26.00,-6.00,+8.00,-1.00,-4.00,-11.00,-28.00,-12.00,-39.00
-8.00,-34.00,-9.00,-4.00,+0.00,+2.00,-3.00,+10.00,+4.00,-14.00,-10.00,-7.00,-7.00,+3.00,+2.00,+12.00
+14.00,+14.00,+7.00,+6.00,+10.00,-12.00,+6.00,-16.00,+10.00,-5.00,-6.00,+0.00,+4.00,+1.00,+12.00,+10.00
-15.00,-4.00,-4.00,-4.00,-3.00,+1.00,-9.00,-8.00,-17.00,+2.00,+8.00,+6.00,+6.00,+11.00,-5.00,-19.00
-38.00,-24.00,-20.00,-7.00,-1.00,+5.00,-1.00,-27.00,+16.00,-2.00,+2.00,+7.00,-1.00,-64.00,+15.00,+50.00
-5.00,-13.00,+0.00,+2.00,+6.00,+6.00,+8.00,+16.00,-3.00,-13.00,-3.00,-14.00,+1.00,+79.00,+9.00,+3.00
+32.00,+33.00,+3.00,-1.00,-8.00,-5.00,-5.00,+13.00,+16.00,+4.00,-5.00,-3.00,+1.00,-24.00,-9.00,-1.00
+2.00,+10.00,-1.00,+0.00,-1.00,-3.00,-11.00,-18.00,-25.00,-20.00,+7.00,+18.00,+11.00,+24.00,+23.00,+39.00
-36.00,-28.00,-5.00,+4.00,+2.00,-5.00,+2.00,-6.00,+38.00,+27.00,+4.00,-6.00,-8.00,-21.00,+3.00,+14.00
+7.00,-21.00,-11.00,-6.00,+1.00,+11.00,+23.00,-8.00,-49.00,-31.00,-10.00,+0.00,-2.00,-21.00,+1.00,-5.00
+61.00,+54.00,+15.00,+8.00,+4.00,-7.00,+5.00,+30.00,+14.00,-23.00,-24.00,-11.00,-5.00,-3.00,+4.00,+10.00
-50.00,-41.00,-14.00,-3.00,+1.00,-5.00,-19.00,+4.00,-24.00,+2.00,+6.00,+1.00,+5.00,+29.00,+0.00,-26.00
+71.00,+58.00,+20.00,+7.00,+0.00,-2.00,+17.00,+31.00,+3.00,-5.00,-5.00,+2.00,-5.00,-18.00,+0.00,-3.00
-8.00,-31.00,-4.00,+6.00,+19.00,+20.00,-11.00,-3.00,-3.00,-6.00,-10.00,-2.00,-4.00,-17.00,-21.00,-13.00
+21.00,+39.00,+11.00,+3.00,-21.00,-16.00,-14.00,+20.00,+9.00,-2.00,+2.00,+3.00,+3.00,+11.00,+12.00,-1.00
-5.00,-7.00,-15.00,-10.00,-3.00,-1.00,-1.00,-22.00,-14.00,-9.00,-12.00,-19.00,-7.00,+17.00,-6.00,-25.00
+40.00,+27.00,+13.00,+6.00,+2.00,-10.00,-2.00,+21.00,-1.00,-11.00,-17.00,-19.00,-7.00,+15.00,-11.00,-16.00
-53.00,-53.00,-23.00,-12.00,-1.00,+1.00,+1.00,-12.00,+7.00,+6.00,+7.00,+4.00,+2.00,-11.00,+9.00,+33.00
-9.00,+0.00,-4.00,+1.00,+11.00,+12.00,+12.00,-6.00,-17.00,-1.00,+5.00,+8.00,+2.00,-2.00,-3.00,-14.00
-7.00,-53.00,+0.00,+5.00,+7.00,+1.00,-36.00,-4.00,-18.00,-11.00,-3.00,+6.00,+2.00,-31.00,-13.00,-61.00
+9.00,+22.00,-1.00,-1.00,-8.00,+1.00,+1.00,+0.00,+18.00,-6.00,-17.00,-15.00,-6.00,+43.00,+7.00,+21.00
-30.00,-29.00,-13.00,-11.00,-9.00,-15.00,-14.00,+6.00,+12.00,+7.00,+1.00,+5.00,+8.00,-4.00,-10.00,-3.00
-8.00,+4.00,-3.00,-6.00,-11.00,+3.00,+16.00,-10.00,-13.00,+9.00,+16.00,+8.00,+4.00,+0.00,+13.00,-5.00
+21.00,+34.00,+5.00,-1.00,-5.00,-3.00,+13.00,+0.00,+19.00,+1.00,-7.00,-14.00,-12.00,+11.00,+3.00,+31.00
-8.00,-47.00,-15.00,-8.00,+8.00,+1.00,-10.00,+55.00,-13.00,+1.00,+13.00,+8.00,+3.00,-21.00,+7.00,+17.00
+37.00,+29.00,+10.00,+1.00,-2.00,-6.00,+23.00,-3.00,+8.00,+0.00,+3.00,-1.00,-4.00,-1.00,-1.00,-6.00
-33.00,-26.00,-11.00,-3.00,-8.00,-2.00,-2.00,-13.00,-14.00,-4.00,-3.00,+3.00,+8.00,+31.00,-4.00,+5.00
-23.00,-33.00,-8.00,-1.00,+0.00,-7.00,+4.00,+0.00,-4.00,+24.00,+1.00,-11.00,-19.00,-37.00,-33.00,-56.00
+59.00,-6.00,-9.00,-11.00,-1.00,-7.00,-20.00,-12.00,+22.00,+5.00,+4.00,+13.00,+3.00,-36.00,+3.00,+29.00
+53.00,+98.00,+18.00,+9.00,+1.00,+2.00,+5.00,+57.00,+4.00,+1.00,-9.00,-8.00,-9.00,+7.00,-4.00,-3.00
+7.00,-36.00,-3.00,-1.00,+1.00,+1.00,-3.00,+26.00,-29.00,+0.00,+9.00,-11.00,-9.00,-5.00,+5.00,-27.00
+22.00,+17.00,+9.00,+3.00,+5.00,+11.00,-2.00,+10.00,+14.00,-7.00,-7.00,+3.00,+4.00,-5.00,+8.00,+34.00
-8.00,-29.00,-1.00,-1.00,-13.00,-7.00,+32.00,-15.00,+23.00,+17.00,-1.00,-9.00,-7.00,-18.00,-1.00,+11.00
+25.00,+4.00,+4.00,+4.00,+12.00,+2.00,-14.00,-8.00,-19.00,-7.00,+14.00,+10.00,+8.00,+6.00,+23.00,+36.00
-9.00,-13.00,-5.00,+1.00,+12.00,+12.00,-10.00,-10.00,+32.00,+22.00,-1.00,-5.00,-6.00,+1.00,-11.00,+6.00
+27.00,+39.00,+11.00,+0.00,-3.00,-16.00,+15.00,+8.00,+18.00,+11.00,+20.00,+16.00,+11.00,-2.00,+35.00,+60.00
-19.00,+7.00,-2.00,+0.00,-12.00,+2.00,-3.00,-5.00,+1.00,+3.00,+4.00,+6.00,+4.00,+16.00,+4.00,+11.00
-87.00,-65.00,-29.00,-15.00,-10.00,-4.00,-34.00,-43.00,+20.00,+11.00,-2.00,-4.00,+2.00,+1.00,+4.00,+27.00
+21.00,+39.00,+10.00,+3.00,+4.00,-4.00,-12.00,-24.00,-3.00,-12.00,-7.00,-5.00,-7.00,-2.00,+8.00,+5.00
-31.00,-23.00,-8.00,+0.00,-1.00,+0.00,+3.00,-20.00,-1.00,-7.00,-9.00,-9.00,-4.00,-1.00,-9.00,-18.00
+23.00,+21.00,+1.00,-8.00,-3.00,-3.00,-2.00,+2.00,-8.00,+0.00,+5.00,+14.00,+16.00,+57.00,+5.00,-8.00
-29.00,-10.00,-1.00,+2.00,+7.00,-1.00,+2.00,-24.00,+19.00,+9.00,+2.00,-7.00,-10.00,-73.00,-23.00,-20.00
+3.00,-12.00,-2.00,-1.00,-2.00,+2.00,+2.00,-5.00,-47.00,-15.00,+6.00,+7.00,+7.00,+0.00,-7.00,-31.00
+18.00,+12.00,+0.00,-1.00,-2.00,-3.00,-11.00,+12.00,+12.00,-6.00,-17.00,-3.00,-2.00,+4.00,+11.00,+38.00
-29.00,-20.00,-3.00,-3.00,-7.00,+3.00,+12.00,+3.00,-21.00,-14.00,-5.00,-6.00,-3.00,+12.00,-19.00,-47.00
+13.00,+0.00,+2.00,+4.00,-2.00,-23.00,-19.00,+11.00,-12.00,-14.00,+0.00,+0.00,-1.00,-14.00,-11.00,-21.00
+28.00,-12.00,-5.00,-6.00,+5.00,+37.00,+39.00,+3.00,+23.00,+11.00,-11.00,-6.00,-14.00,-39.00,+9.00,+13.00
+6.00,+2.00,+14.00,+6.00,-7.00,-1.00,+4.00,+11.00,-29.00,-7.00,+2.00,+8.00,+13.00,+31.00,-34.00,-60.00
+0.00,+24.00,+3.00,+2.00,+6.00,+10.00,+1.00,+1.00,-19.00,-24.00,-7.00,-11.00,-1.00,+6.00,+3.00,-4.00
-14.00,-5.00,-1.00,+2.00,+9.00,-5.00,-8.00,+1.00,-11.00,-9.00,-4.00,+0.00,-12.00,-9.00,-3.00,-20.00
-24.00,-25.00,-6.00,-4.00,-11.00,-27.00,+11.00,-17.00,+22.00,+12.00,+6.00,+7.00,+6.00,+5.00,+11.00,+18.00
+2.00,+2.00,-7.00,-6.00,-4.00,+3.00,-7.00,-1.00,+11.00,+8.00,-1.00,-13.00,-3.00,-4.00,+12.00,+43.00
+44.00,+15.00,+6.00,+7.00,+2.00,+1.00,+2.00,+15.00,+0.00,+3.00,+9.00,+10.00,+8.00,-9.00,-4.00,+7.00
+54.00,+32.00,+18.00,+9.00,+0.00,-8.00,-17.00,+14.00,+13.00,+12.00,-1.00,-1.00,+1.00,+6.00,-8.00,-6.00
-62.00,-17.00,-9.00,-3.00,+8.00,+2.00,-30.00,+5.00,-36.00,-3.00,+3.00,+6.00,+8.00,+27.00,+0.00,-22.00
-7.00,-12.00,-12.00,-9.00,-13.00,+4.00,-11.00,-18.00,+2.00,-2.00,-2.00,-3.00,-7.00,-32.00,+3.00,+7.00
+10.00,+9.00,+1.00,-1.00,+3.00,-14.00,+16.00,+5.00,+6.00,+11.00,+0.00,-6.00,-2.00,+4.00,-1.00,-20.00
+9.00,-10.00,-6.00,-1.00,-10.00,+19.00,+37.00,-25.00,-13.00,+6.00,+6.00,+6.00,+7.00,+10.00,-14.00,-18.00
-39.00,-24.00,-13.00,-7.00,-2.00,-10.00,-8.00,+6.00,+4.00,+2.00,+0.00,-3.00,-13.00,-6.00,-2.00,+9.00
+85.00,+69.00,+28.00,+14.00,+11.00,+4.00,+7.00,+45.00,+14.00,-14.00,-9.00,-5.00,-8.00,-12.00,+3.00,+27.00
+8.00,+13.00,+3.00,+0.00,+0.00,+9.00,-8.00,-9.00,-19.00,+5.00,+5.00,+3.00,-5.00,-30.00,+3.00,-6.00
-18.00,-20.00,-1.00,+2.00,+0.00,+6.00,+45.00,+14.00,+8.00,-14.00,-12.00,-4.00,+5.00,+54.00,+14.00,+5.00
+25.00,+10.00,+1.00,+3.00,+12.00,-11.00,-18.00,+3.00,-3.00,-6.00,-6.00,-1.00,-6.00,-49.00,-29.00,-18.00
+0.00,+16.00,+5.00,+2.00,-3.00,+5.00,+10.00,-6.00,-13.00,+2.00,+5.00,+0.00,+9.00,+80.00,-10.00,-46.00
-17.00,+5.00,-8.00,-8.00,-3.00,-7.00,-10.00,-19.00,+5.00,-13.00,-12.00,-8.00,-10.00,+2.00,-13.00,-14.00
+55.00,+33.00,+27.00,+16.00,+16.00,+7.00,-3.00,+24.00,+5.00,+0.00,-5.00,-6.00,-8.00,-22.00,+3.00,+10.00
-8.00,-4.00,+3.00,+1.00,-16.00,+4.00,+8.00,-5.00,-9.00,-13.00,-3.00,-1.00,+5.00,+3.00,+0.00,+11.00
+16.00,-6.00,-2.00,+1.00,+5.00,-5.00,-9.00,+12.00,-4.00,-4.00,+0.00,+2.00,+5.00,+12.00,+10.00,-1.00
+12.00,-15.00,+7.00,+6.00,+9.00,+12.00,+9.00,+21.00,-2.00,+10.00,+6.00,+5.00,-2.00,-26.00,-1.00,-3.00
-12.00,-11.00,-4.00,-2.00,+0.00,-9.00,-25.00,-21.00,-3.00,+2.00,+3.00,+0.00,+0.00,-14.00,-13.00,-14.00
+8.00,+6.00,+3.00,-4.00,-4.00,-10.00,+2.00,-6.00,+10.00,+7.00,-2.00,-12.00,-7.00,-1.00,-4.00,-4.00
-11.00,+5.00,-4.00,-2.00,-4.00,-2.00,-9.00,-18.00,-34.00,-14.00,+0.00,+2.00,+2.00,-14.00,+11.00,+2.00
-38.00,-23.00,-6.00,-3.00,-8.00,-11.00,-32.00,-26.00,-9.00,-9.00,+3.00,+8.00,+10.00,+33.00,+19.00,+26.00
-1.00,-10.00,-10.00,-9.00,+1.00,+26.00,+37.00,+24.00,+16.00,+0.00,-1.00,+4.00,+2.00,-1.00,+12.00,+30.00
-10.00,+9.00,+3.00,+0.00,-5.00,-5.00,+28.00,-6.00,+30.00,+14.00,+1.00,+7.00,+4.00,-30.00,-3.00,+8.00
-59.00,-37.00,-20.00,-9.00,-5.00,-12.00,-55.00,-38.00,+2.00,-5.00,-7.00,-17.00,-13.00,+36.00,-2.00,-11.00
-24.00,+2.00,+2.00,+3.00,-7.00,+2.00,+5.00,+44.00,-19.00,-15.00,-1.00,-1.00,-1.00,+1.00,-13.00,-24.00
+20.00,+13.00,+1.00,-3.00,+2.00,-6.00,-12.00,+6.00,-7.00,+14.00,+6.00,-2.00,-6.00,+0.00,+8.00,+21.00
+33.00,+62.00,+5.00,+2.00,+5.00,+3.00,+8.00,+3.00,+7.00,+19.00,-1.00,-6.00,-4.00,+3.00,+9.00,+17.00
-36.00,-29.00,-9.00,-3.00,+2.00,+16.00,+22.00,-2.00,-2.00,+2.00,+2.00,+6.00,+3.00,-26.00,-23.00,-13.00
-12.00,-12.00,-6.00,-8.00,-22.00,-30.00,-40.00,-26.00,+3.00,-1.00,-5.00,-2.00,-2.00,-6.00,-3.00,+1.00
-26.00,-4.00,-1.00,+1.00,-4.00,-8.00,-4.00,-24.00,-4.00,-4.00,-3.00,-6.00,+7.00,+25.00,-2.00,-10.00
+1.00,-10.00,+3.00,+0.00,-1.00,+6.00,+1.00,-4.00,-4.00,-4.00,-2.00,-11.00,-17.00,-20.00,-8.00,-17.00
+32.00,+21.00,+7.00,+1.00,+5.00,-5.00,+12.00,+8.00,-10.00,-17.00,-7.00,+0.00,+5.00,-21.00,+4.00,+11.00
-18.00,-9.00,-7.00,-3.00,+4.00,+9.00,+8.00,+21.00,+0.00,+3.00,-7.00,-2.00,-7.00,+9.00,-9.00,-26.00
+20.00,+0.00,+3.00,+0.00,-8.00,+5.00,+11.00,+19.00,+1.00,+0.00,-3.00,-10.00,-10.00,-24.00,-7.00,-8.00
+0.00,-11.00,-4.00,+0.00,+4.00,-22.00,-26.00,-8.00,-10.00,-15.00,-1.00,+2.00,+6.00,+23.00,+4.00,+8.00
-23.00,-6.00,-5.00,-5.00,-7.00,+18.00,+24.00,+10.00,+17.00,+20.00,+4.00,-6.00,-8.00,-18.00,+0.00,+4.00
+31.00,+10.00,+6.00,+4.00,+1.00,+4.00,+10.00,-4.00,+4.00,-1.00,-3.00,-1.00,+6.00,-2.00,-7.00,-11.00
-32.00,-22.00,-13.00,-7.00,-2.00,-2.00,-27.00,-26.00,-25.00,-30.00,-4.00,+9.00,+0.00,-60.00,+12.00,-9.00
+3.00,-1.00,+11.00,+7.00,+3.00,-2.00,-8.00,+0.00,+23.00,+5.00,+3.00,+9.00,+12.00,+77.00,+17.00,+35.00
-10.00,-3.00,-2.00,+1.00,+1.00,+1.00,+3.00,-6.00,+0.00,-3.00,-8.00,-9.00,-17.00,-38.00,-6.00,+9.00
+9.00,+13.00,+0.00,-1.00,+1.00,+6.00,+23.00,-11.00,-6.00,+5.00,-1.00,-9.00,-6.00,-2.00,-6.00,-23.00
+14.00,-22.00,-3.00,-2.00,-6.00,-11.00,-10.00,+12.00,-4.00,+1.00,-1.00,+1.00,+0.00,-11.00,-7.00,-11.00
+0.00,+29.00,+5.00,+3.00,+10.00,-2.00,-27.00,-8.00,-3.00,-14.00,-7.00,-13.00,-1.00,-9.00,-5.00,-10.00
+13.00,+7.00,-1.00,+0.00,-1.00,-11.00,+11.00,+7.00,+15.00,+15.00,+11.00,+9.00,+3.00,-1.00,-7.00,-24.00
-26.00,-14.00,-7.00,-3.00,+11.00,+8.00,-11.00,-25.00,-4.00,-17.00,-18.00,-16.00,-15.00,-16.00,-8.00,+0.00
-21.00,-13.00,-3.00,-4.00,-6.00,-2.00,-26.00,-6.00,+19.00,+7.00,+9.00,+14.00,+14.00,+25.00,+15.00,+46.00
-12.00,-31.00,-8.00,-3.00,-3.00,+7.00,+16.00,+14.00,-15.00,-3.00,-6.00,-7.00,+0.00,-5.00,-5.00,-1.00
-5.00,+1.00,-1.00,-5.00,-7.00,-11.00,+2.00,-5.00,+5.00,+2.00,-2.00,-4.00,-4.00,+8.00,-4.00,-4.00
-13.00,+8.00,+10.00,+2.00,+4.00,+2.00,-5.00,-23.00,+2.00,+8.00,+8.00,+2.00,+1.00,-16.00,-8.00,-19.00
-4.00,-19.00,-12.00,-11.00,-12.00,-7.00,-13.00,-5.00,-12.00,-1.00,-5.00,-2.00,-4.00,+12.00,-11.00,-24.00
-19.00,-13.00,-7.00,+1.00,+2.00,+8.00,+10.00,-2.00,-5.00,-15.00,-8.00,-3.00,+2.00,+13.00,+4.00,-22.00
+35.00,+21.00,+7.00,+1.00,+5.00,+4.00,-1.00,+14.00,-21.00,-9.00,-2.00,-2.00,-13.00,-37.00,-15.00,+34.00
-4.00,-11.00,-2.00,-1.00,+1.00,+2.00,+1.00,+0.00,+21.00,+11.00,+4.00,+1.00,-5.00,-31.00,+14.00,+29.00
+18.00,+38.00,+11.00,+7.00,+9.00,+2.00,+19.00,+17.00,-32.00,-16.00,-6.00,-10.00,-2.00,+24.00,-9.00,-28.00
-2.00,-17.00,+0.00,-4.00,-13.00,-2.00,+5.00,-3.00,+25.00,+25.00,+11.00,+9.00,+7.00,+33.00,+7.00,+24.00
-41.00,-5.00,-9.00,-4.00,-2.00,-13.00,-10.00,-7.00,+4.00,-2.00,-3.00,+4.00,+10.00,+10.00,+0.00,-9.00
+3.00,-11.00,-8.00,-3.00,+1.00,+7.00,+0.00,-26.00,-5.00,-3.00,+5.00,+5.00,+3.00,-10.00,+9.00,+35.00
+12.00,-9.00,-1.00,+2.00,+1.00,-3.00,+2.00,+7.00,+10.00,+9.00,+2.00,-7.00,-7.00,+5.00,-1.00,-5.00
+48.00,+39.00,+6.00,+0.00,-3.00,+0.00,+3.00,+29.00,-4.00,+5.00,+3.00,+0.00,-5.00,-24.00,-15.00,-40.00
-6.00,-17.00,+3.00,+2.00,-4.00,-6.00,-21.00,-10.00,-8.00,-19.00,-4.00,+5.00,+5.00,+1.00,+16.00,+20.00
-13.00,-15.00,-2.00,+3.00,-4.00,+2.00,+24.00,+14.00,+7.00,+6.00,+5.00,+5.00,+17.00,+18.00,-4.00,-1.00
+21.00,+45.00,+8.00,+0.00,+4.00,+3.00,+4.00,-1.00,+1.00,+3.00,-6.00,-11.00,-12.00,-9.00,-3.00,-10.00
-26.00,-33.00,-9.00,-7.00,-4.00,+1.00,-11.00,-14.00,+0.00,-11.00,-7.00,-1.00,-3.00,-6.00,-3.00,+2.00
-3.00,-7.00,-5.00,-2.00,+6.00,+0.00,+0.00,+4.00,+0.00,+1.00,+1.00,+2.00,+2.00,+1.00,+2.00,-5.00
+45.00,+23.00,+4.00,+4.00,+0.00,+3.00,-4.00,+14.00,+1.00,-2.00,-3.00,-9.00,-1.00,+5.00,-2.00,+1.00
-20.00,-4.00,+3.00,+4.00,+1.00,+4.00,+11.00,-3.00,-12.00,+3.00,+2.00,+1.00,-4.00,+5.00,-11.00,-19.00
+2.00,+5.00,-3.00,-4.00,-2.00,-2.00,+0.00,-3.00,-1.00,-7.00,+0.00,-2.00,-3.00,-18.00,-4.00,+4.00
+17.00,+6.00,+1.00,+1.00,-3.00,+2.00,-2.00,+10.00,+20.00,+4.00,-2.00,-3.00,-1.00,+9.00,+5.00,+5.00
-23.00,-11.00,-5.00,+0.00,+7.00,+0.00,+4.00,-10.00,-26.00,-8.00,+1.00,+6.00,+7.00,+8.00,+1.00,-1.00
-15.00,-19.00,-3.00,-3.00,-6.00,-9.00,-9.00,-7.00,+32.00,+9.00,-2.00,-6.00,-4.00,-4.00,-3.00,+5.00
-11.00,-4.00,+1.00,+1.00,-3.00,-1.00,-5.00,-9.00,-9.00,+4.00,+6.00,+11.00,+8.00,+1.00,-2.00,-8.00
+11.00,+1.00,+0.00,-1.00,+3.00,+0.00,+8.00,+2.00,-12.00,-3.00,-4.00,-3.00,-16.00,-9.00,-5.00,-25.00
-12.00,-10.00,-3.00,-3.00,-1.00,-5.00,-7.00,-14.00,-1.00,-10.00,-14.00,-25.00,-6.00,+3.00,-3.00,-4.00
-6.00,+6.00,-2.00,+0.00,-7.00,+0.00,+0.00,-7.00,+5.00,+7.00,+7.00,+3.00,-1.00,+6.00,+14.00,+32.00
-9.00,-23.00,-4.00,+1.00,+9.00,+1.00,-5.00,+0.00,+0.00,-6.00,-2.00,+2.00,+1.00,-9.00,-5.00,-9.00
+6.00,+7.00,+6.00,+3.00,-4.00,+3.00,+11.00,-4.00,+0.00,-4.00,-5.00,-5.00,+5.00,+5.00,+2.00,-2.00
-16.00,-10.00,-7.00,+0.00,+14.00,+2.00,-1.00,+3.00,-1.00,-1.00,+2.00,+11.00,+7.00,+0.00,-2.00,-1.00
-7.00,-14.00,-7.00,-7.00,-15.00,-2.00,-1.00,+6.00,-12.00,-4.00,+1.00,+11.00,+0.00,+3.00,-2.00,-11.00
+25.00,+20.00,+7.00,+0.00,-3.00,-4.00,+1.00,+2.00,-5.00,-4.00,-3.00,-13.00,-5.00,-5.00,+1.00,+1.00
-10.00,+0.00,+2.00,+0.00,+0.00,-1.00,+2.00,-4.00,-2.00,+0.00,+0.00,-3.00,-5.00,-1.00,+3.00,+4.00
-7.00,-16.00,-1.00,+4.00,-2.00,-1.00,-2.00,+7.00,+3.00,+8.00,+2.00,+3.00,-3.00,+7.00,-3.00,-18.00
+2.00,+44.00,+6.00,+5.00,-6.00,-3.00,-1.00,+0.00,-15.00,-23.00,-4.00,+12.00,+11.00,+0.00,+0.00,-2.00
-6.00,-16.00,-2.00,+1.00,+10.00,+5.00,+1.00,-2.00,+0.00,+3.00,-1.00,-2.00,-2.00,-3.00,-1.00,+12.00
-1.00,-20.00,-11.00,-11.00,-6.00,-5.00,-1.00,+0.00,+3.00,-3.00,-1.00,-13.00,-11.00,-2.00,+0.00,+2.00
+4.00,+23.00,+1.00,-5.00,-2.00,+2.00,-3.00,+1.00,+7.00,+3.00,-1.00,+0.00,-7.00,-1.00,+0.00,+1.00
-8.00,-31.00,+0.00,+8.00,+3.00,+1.00,+5.00,+5.00,-3.00,-4.00,-5.00,+0.00,+3.00,+0.00,-7.00,-21.00
+11.00,+40.00,+12.00,+5.00,+7.00,+5.00,-1.00,-3.00,-12.00,-14.00,-8.00,+1.00,-1.00,-5.00,-1.00,+1.00
+15.00,+18.00,+2.00,+0.00,+10.00,+0.00,+1.00,-1.00,+5.00,+0.00,-3.00,+3.00,+11.00,+2.00,+4.00,+10.00
+0.00,-10.00,-15.00,-17.00,-13.00,-3.00,-1.00,+2.00,-1.00,+14.00,+3.00,+18.00,+9.00,+3.00,-1.00,-4.00
-3.00,-5.00,-6.00,-7.00,-5.00,-2.00,+0.00,-3.00,+3.00,+8.00,-6.00,-20.00,-15.00,-5.00,-3.00,-3.00
-19.00,-28.00,-8.00,-4.00,-7.00,-4.00,-1.00,+7.00,-3.00,-2.00,+2.00,+4.00,-1.00,+3.00,-1.00,-12.00
+6.00,+10.00,+5.00,+3.00,-4.00,-3.00,-2.00,-8.00,-7.00,-5.00,-1.00,+8.00,+9.00,-2.00,+4.00,+10.00
-2.00,+5.00,+7.00,+8.00,-3.00,-1.00,-1.00,-2.00,+9.00,-5.00,-3.00,-11.00,-18.00,-3.00,-2.00,-1.00
+2.00,+8.00,+2.00,+9.00,+14.00,+4.00,+0.00,+0.00,+1.00,+2.00,+5.00,-8.00,+1.00,-3.00,-3.00,+2.00
-13.00,-4.00,+3.00,+4.00,+1.00,+0.00,-3.00,-2.00,+0.00,-9.00,-7.00,+0.00,+4.00,-1.00,+2.00,+0.00
-12.00,-21.00,-1.00,+14.00,+0.00,+3.00,+5.00,+4.00,-8.00,-5.00,-5.00,+0.00,+1.00,+1.00,-1.00,-3.00
+7.00,+12.00,+20.00,+6.00,-5.00,-3.00,-1.00,+4.00,+1.00,+4.00,+2.00,+9.00,+29.00,+3.00,+1.00,+2.00
-6.00,+1.00,-38.00,-36.00,-3.00,+0.00,-2.00,-3.00,-9.00,-1.00,+10.00,+8.00,-26.00,-3.00,-4.00,-3.00
-6.00,-13.00,-14.00,-13.00,-21.00,-7.00,-3.00,-6.00,-2.00,+0.00,+2.00,-31.00,-21.00,-7.00,-2.00,+7.00
+5.00,+2.00,+2.00,+4.00,+6.00,-1.00,-1.00,+4.00,+0.00,+3.00,+3.00,-4.00,-10.00,-4.00,-3.00,-3.00
-3.00,+2.00,+26.00,+30.00,+5.00,+3.00,+1.00,+2.00,-5.00,-9.00,-3.00,-10.00,-6.00,+0.00,-3.00,-2.00
-2.00,-22.00,+19.00,+12.00,-10.00,-8.00,-3.00,-3.00,+2.00,+5.00,+0.00,+12.00,+22.00,+4.00,+0.00,-4.00
+17.00,+33.00,-27.00,-28.00,+27.00,+10.00,+2.00,+1.00,-16.00,-13.00,-2.00,+21.00,+14.00,+6.00,+3.00,+0.00
+9.00,-11.00,-14.00,-20.00,-14.00,-2.00,-2.00,-3.00,+5.00,+5.00,-6.00,-7.00,-10.00,-5.00,-3.00,-5.00
+1.00,-19.00,-44.00,-42.00,-15.00,-9.00,-3.00,-3.00,+6.00,-2.00,-3.00,-5.00,-5.00,-3.00,+0.00,+2.00
+3.00,+0.00,+4.00,+5.00,-13.00,-5.00,+0.00,-2.00,+18.00,+32.00,+7.00,+4.00,+11.00,+2.00,+3.00,+9.00
-6.00,+2.00,+20.00,+25.00,+15.00,+2.00,-2.00,-2.00,-10.00,+1.00,+2.00,+0.00,-4.00,-5.00,-3.00,-9.00
+8.00,+20.00,+22.00,+24.00,+14.00,+5.00,+3.00,+3.00,-3.00,-2.00,-2.00,-5.00,-4.00,+0.00,-1.00,-1.00
-11.00,-5.00,+10.00,+7.00,-5.00,+2.00,+3.00,+4.00,+3.00,-4.00,+3.00,+12.00,+20.00,+2.00,-1.00,+0.00
-10.00,+3.00,+2.00,-2.00,+10.00,+3.00,+1.00,-2.00,-11.00,-6.00,-3.00,-8.00,-21.00,-5.00,-8.00,-14.00
-5.00,-13.00,-3.00,+9.00,-4.00,-2.00,+0.00,-1.00,+2.00,+6.00,+1.00,-12.00,-14.00,-7.00,-5.00,-2.00
-20.00,+31.00,+16.00,+2.00,+4.00,+1.00,-2.00,-10.00,-13.00,-14.00,-2.00,+4.00,+10.00,+3.00,-1.00,-3.00
+7.00,-9.00,-19.00,-7.00,+0.00,+0.00,-3.00,-4.00,-7.00,+2.00,-5.00,-8.00,-16.00,-3.00,-2.00,-3.00
-1.00,+8.00,-3.00,-1.00,-10.00,-5.00,-2.00,+8.00,-19.00,-40.00,+1.00,+7.00,+14.00,+1.00,-4.00,-7.00
-18.00,-29.00,+12.00,+4.00,-16.00,-3.00,-3.00,-6.00,+18.00,+20.00,-2.00,-7.00,-2.00,-1.00,-2.00,+9.00
+10.00,-23.00,-19.00,-18.00,-5.00,-4.00,-4.00,+0.00,+1.00,+5.00,+4.00,+5.00,+6.00,+4.00,+1.00,+0.00
+21.00,+22.00,+3.00,+1.00,+2.00,+2.00,+1.00,+1.00,+6.00,-3.00,-2.00,+7.00,+2.00,+1.00,+1.00,+6.00
+8.00,-2.00,+10.00,+10.00,+8.00,+1.00,+0.00,-7.00,-8.00,-10.00,-9.00,-11.00,-9.00,-3.00,-2.00,-2.00
+2.00,+6.00,-24.00,-23.00,-18.00,-5.00,-2.00,+0.00,-4.00,-10.00,-4.00,-8.00,-8.00,-6.00,-6.00,-13.00
+0.00,-45.00,-5.00,+4.00,+6.00,-2.00,-2.00,+0.00,-15.00,-10.00,+4.00,+0.00,+5.00,+1.00,-1.00,-2.00
+17.00,+46.00,+12.00,+13.00,-1.00,-2.00,+2.00,+6.00,+2.00,+3.00,-4.00,-11.00,-12.00,-1.00,+0.00,-2.00
+9.00,-11.00,+21.00,+5.00,+9.00,+5.00,+0.00,+1.00,+3.00,-14.00,-2.00,+17.00,+16.00,+4.00,+6.00,+8.00
+1.00,+30.00,-13.00,-16.00,-6.00,-1.00,-1.00,-3.00,+9.00,+21.00,-2.00,-3.00,-28.00,-6.00,+0.00,+6.00
-14.00,-38.00,-24.00,-21.00,-11.00,-4.00,-3.00,-3.00,-2.00,+10.00,+5.00,+0.00,+2.00,-1.00,+0.00,-4.00
-4.00,-8.00,-5.00,-1.00,+9.00,-1.00,+0.00,+2.00,+12.00,+19.00,+7.00,-6.00,-9.00,-3.00,-2.00,-2.00
-11.00,-16.00,+10.00,+10.00,-2.00,+0.00,-1.00,-6.00,-8.00,-9.00,-3.00,+1.00,+14.00,+5.00,+3.00,+3.00
+23.00,+65.00,+20.00,+20.00,+21.00,+13.00,+5.00,+6.00,+1.00,-4.00,-5.00,+7.00,+25.00,+3.00,+0.00,-4.00
+2.00,-10.00,+2.00,-3.00,-5.00,-2.00,-1.00,-2.00,-1.00,+3.00,-4.00,-5.00,-19.00,-4.00,-5.00,-8.00
-19.00,+21.00,-15.00,-13.00,+0.00,-3.00,+0.00,+9.00,-2.00,-11.00,-7.00,+0.00,+5.00,+3.00,+1.00,+10.00
-8.00,-28.00,-9.00,-8.00,+0.00,-3.00,-4.00,-3.00,+0.00,+10.00,+3.00,+5.00,+2.00,-1.00,+1.00,+2.00
-12.00,-62.00,+4.00,+6.00,-3.00,-3.00,-2.00,+0.00,-1.00,-22.00,-1.00,-10.00,-10.00,-2.00,-3.00,-3.00
+4.00,+38.00,+10.00,+9.00,-13.00,-3.00,+0.00,+2.00,-9.00,+7.00,+2.00,+2.00,+5.00,-3.00,-2.00,+0.00
-3.00,-15.00,+17.00,+6.00,+12.00,+5.00,+0.00,-1.00,+11.00,+11.00,+7.00,-1.00,-8.00,-2.00,+1.00,-1.00
+4.00,+15.00,-13.00,-8.00,-18.00,-10.00,-1.00,-3.00,+1.00,+1.00,-6.00,-11.00,-11.00,-4.00,-3.00,+2.00
-8.00,-23.00,+0.00,+2.00,+1.00,+1.00,+1.00,+0.00,-9.00,-4.00,-1.00,+5.00,+1.00,+1.00,+2.00,+0.00
-7.00,-6.00,-10.00,-9.00,+5.00,+0.00,-3.00,-4.00,-1.00,-15.00,+4.00,+6.00,+6.00,+0.00,+0.00,-4.00
+5.00,+11.00,-3.00,-11.00,-13.00,-7.00,-3.00,-4.00,-17.00,-21.00,-6.00,+3.00,+12.00,+1.00,-2.00,-3.00
-2.00,+5.00,-14.00,-15.00,+4.00,+2.00,+1.00,+0.00,+10.00,+23.00,+2.00,-6.00,-12.00,-2.00,+0.00,+2.00
+10.00,+32.00,+4.00,+9.00,+0.00,-3.00,-1.00,+0.00,-3.00,-2.00,-5.00,-2.00,-3.00,-4.00,-5.00,-6.00
-12.00,-20.00,+12.00,+15.00,+6.00,+1.00,+1.00,+2.00,+3.00,-7.00,-4.00,-5.00,-4.00,+0.00,-4.00,-5.00
-4.00,-2.00,+2.00,+4.00,+5.00,+1.00,-1.00,-4.00,-3.00,-7.00,+0.00,-1.00,+1.00,-4.00,-2.00,+3.00
+19.00,+48.00,+3.00,+6.00,+4.00,+2.00,-1.00,+1.00,+4.00,+3.00,-1.00,-5.00,+2.00,-1.00,-1.00,-1.00
-4.00,-22.00,-7.00,-3.00,-15.00,-3.00,-1.00,-4.00,-2.00,-5.00,+5.00,+7.00,+1.00,+4.00,+4.00,+4.00
-8.00,-32.00,+9.00,-4.00,+2.00,+0.00,-2.00,-3.00,+12.00,+27.00,-5.00,-11.00,-2.00,-5.00,-4.00,-1.00
+13.00,+21.00,-25.00,-14.00,-2.00,-2.00,-1.00,+5.00,-27.00,-24.00,-4.00,-1.00,-9.00,+0.00,-1.00,-7.00
-10.00,-10.00,-2.00,-1.00,-4.00,+0.00,+0.00,-4.00,+7.00,+9.00,-3.00,-7.00,-4.00,-6.00,-4.00,+0.00
-2.00,-22.00,+5.00,+3.00,-1.00,-8.00,-4.00,-3.00,-8.00,-15.00,+4.00,+7.00,+8.00,+1.00,-1.00,-3.00
+6.00,+51.00,-5.00,+1.00,+1.00,+5.00,+3.00,+1.00,+8.00,+9.00,+0.00,+15.00,+29.00,+7.00,+4.00,+4.00
-9.00,-77.00,-1.00,+7.00,+2.00,-3.00,-2.00,-9.00,+4.00,+5.00,+0.00,-16.00,-35.00,-5.00,+1.00,+6.00
+16.00,+69.00,+9.00,-2.00,-1.00,+2.00,+1.00,+6.00,-3.00,+0.00,+0.00,-2.00,-3.00,-3.00,-1.00,-2.00
+2.00,-3.00,-8.00,-18.00,-5.00,-4.00,-5.00,-14.00,+12.00,+6.00,-3.00,+3.00,+8.00,+1.00,+0.00,-6.00
-4.00,+0.00,+0.00,+7.00,-4.00,-5.00,+2.00,+10.00,-6.00,-11.00,-2.00,+1.00,+1.00,+0.00,+3.00,+8.00
+8.00,-27.00,+12.00,+7.00,+11.00,+5.00,-1.00,+1.00,-8.00,-4.00,-1.00,+1.00,+10.00,-1.00,+0.00,-2.00
-19.00,-9.00,-16.00,-6.00,+3.00,+3.00,-2.00,-8.00,-3.00,-6.00,-2.00,-5.00,-13.00,-6.00,-3.00,-5.00
-4.00,-15.00,+6.00,+9.00,+1.00,-1.00,-1.00,-1.00,+3.00,+6.00,+7.00,+0.00,-1.00,-2.00,+0.00,+3.00
-3.00,-38.00,+3.00,-2.00,+0.00,-3.00,-2.00,-3.00,-19.00,-20.00,-10.00,-7.00,-10.00,-4.00,-7.00,-20.00
+11.00,+39.00,-10.00,-2.00,+1.00,+2.00,+1.00,+1.00,+22.00,+17.00,+1.00,+6.00,+4.00,+4.00,+6.00,+17.00
+11.00,+23.00,+11.00,+5.00,-4.00,+1.00,+2.00,+3.00,-2.00,-17.00,-7.00,-3.00,+8.00,+3.00,+3.00,+8.00
-7.00,-5.00,-11.00,-9.00,-4.00,+0.00,+1.00,+0.00,-6.00,+2.00,+4.00,+5.00,-3.00,-2.00,-5.00,-8.00
-8.00,+0.00,-3.00,-4.00,-1.00,-3.00,-1.00,-5.00,+6.00,+13.00,+2.00,-2.00,-10.00,-4.00,-1.00,+7.00
+22.00,-15.00,-6.00,-3.00,-7.00,-2.00,-1.00,+4.00,-13.00,+0.00,+7.00,-2.00,+1.00,-1.00,-3.00,-14.00
-17.00,-58.00,+3.00,+6.00,+8.00,+2.00,+1.00,-3.00,+14.00,-4.00,-7.00,-3.00,+1.00,+0.00,-2.00,-2.00
+8.00,+50.00,+1.00,-1.00,-9.00,-5.00,-2.00,+1.00,-1.00,+14.00,+1.00,+0.00,+7.00,+0.00,+1.00,+9.00
+2.00,+8.00,-8.00,-3.00,+2.00,+6.00,-1.00,-1.00,+7.00,-8.00,+3.00,+1.00,+0.00,+0.00,-2.00,-1.00
-10.00,-9.00,+7.00,+3.00,+2.00,-1.00,-1.00,-7.00,-18.00,-19.00,-15.00,-7.00,-14.00,-4.00,-4.00,-4.00
+11.00,-13.00,-9.00,-2.00,+0.00,+0.00,-1.00,+1.00,-1.00,+4.00,+2.00,+3.00,+11.00,+3.00,+1.00,+2.00
+0.00,-2.00,+8.00,+10.00,+3.00,+1.00,+0.00,+1.00,-7.00,-4.00,-4.00,-5.00,-4.00,-1.00,-3.00,-6.00
+9.00,+26.00,+0.00,+1.00,-2.00,-1.00,-1.00,-4.00,-3.00,-6.00,-4.00,-2.00,-6.00,+0.00,+0.00,+3.00
-20.00,-10.00,-15.00,-16.00,-11.00,-5.00,-4.00,-9.00,+12.00,+4.00,+4.00,+1.00,+4.00,-1.00,-4.00,-1.00
+5.00,+14.00,+19.00,-3.00,+1.00,-3.00,+0.00,-3.00,-8.00,+6.00,+2.00,-1.00,-3.00,+0.00,-4.00,-9.00
-11.00,-5.00,-14.00,-9.00,+2.00,-2.00,+1.00,-3.00,+3.00,+7.00,+3.00,+5.00,+18.00,+3.00,+0.00,+7.00
+4.00,-3.00,-4.00,+4.00,+0.00,-1.00,-1.00,+1.00,+0.00,-7.00,-5.00,-7.00,-29.00,-4.00,-1.00,+1.00
-16.00,-26.00,+4.00,+5.00,-1.00,+0.00,-2.00,-4.00,-4.00,+0.00,-1.00,+0.00,+4.00,+0.00,-2.00,-3.00
-8.00,-22.00,-22.00,-9.00,+1.00,-1.00,-1.00,-3.00,+0.00,-6.00,-7.00,-3.00,-6.00,-5.00,-1.00,-1.00
+2.00,-19.00,+11.00,+6.00,+0.00,-3.00,+0.00,-2.00,+4.00,+2.00,+6.00,+2.00,+0.00,+0.00,-1.00,-1.00
+0.00,+41.00,+3.00,+0.00,-1.00,+2.00,+0.00,-3.00,-2.00,-3.00,-2.00,+1.00,+12.00,+0.00,-1.00,-4.00
-2.00,+5.00,+2.00,+2.00,-1.00,+2.00,-1.00,-4.00,-2.00,+2.00,-2.00,+4.00,+17.00,+2.00,-1.00,+0.00
+1.00,-2.00,+5.00,+6.00,+2.00,+0.00,+0.00,+1.00,-6.00,-14.00,-3.00,-7.00,-26.00,-5.00,-4.00,-5.00
+2.00,+4.00,+8.00,+6.00,+0.00,+1.00,-2.00,-4.00,+7.00,+7.00,-4.00,-2.00,-4.00,-3.00,-2.00,+7.00
-4.00,-25.00,-15.00,-8.00,-4.00,-2.00,+0.00,+0.00,-1.00,-1.00,+3.00,+1.00,+5.00,+1.00,+2.00,+0.00
-7.00,+6.00,-1.00,-7.00,-7.00,-5.00,-4.00,-2.00,+4.00,+6.00,+0.00,+0.00,-6.00,-1.00,-1.00,-5.00
+7.00,-6.00,+0.00,-3.00,-1.00,-2.00,-1.00,-1.00,-1.00,+5.00,-4.00,+2.00,+9.00,+0.00,-2.00,-1.00
-6.00,-6.00,-15.00,-12.00,-14.00,-4.00,-2.00,+1.00,-9.00,-12.00,-2.00,-7.00,-4.00,+0.00,-4.00,-6.00
+0.00,-4.00,+7.00,+5.00,+4.00,+0.00,+0.00,+2.00,-16.00,-10.00,+1.00,+0.00,-3.00,+1.00,+0.00,+1.00
-5.00,+1.00,+5.00,+2.00,-4.00,+3.00,+0.00,+0.00,+14.00,+9.00,+3.00,+3.00,+2.00,-1.00,+1.00,+0.00
-12.00,-35.00,-17.00,-1.00,+4.00,-1.00,-1.00,-1.00,+6.00,-2.00,+0.00,+1.00,+1.00,+1.00,+4.00,+8.00
+5.00,+46.00,+12.00,+0.00,+2.00,+0.00,+1.00,+2.00,-2.00,-5.00,-3.00,-2.00,-7.00,-2.00,-3.00,-6.00
+0.00,-4.00,+4.00,-6.00,-4.00,-3.00,-2.00,+2.00,+6.00,+17.00,+2.00,-1.00,+1.00,-1.00,-2.00,+1.00
+7.00,+33.00,+4.00,+2.00,+1.00,-1.00,+2.00,+5.00,-2.00,-8.00,+0.00,-4.00,-4.00,-1.00,-1.00,-7.00
+17.00,-15.00,+3.00,+3.00,+0.00,+2.00,+1.00,+11.00,+0.00,+5.00,-5.00,+1.00,+4.00,+0.00,-3.00,+0.00
-14.00,-24.00,-5.00,-3.00,+1.00,-1.00,-1.00,-3.00,+1.00,+0.00,+2.00,+0.00,+3.00,+0.00,-2.00,+1.00
-1.00,-4.00,-4.00,+1.00,+1.00,-2.00,-2.00,-3.00,-4.00,-11.00,-3.00,-2.00,-3.00,-2.00,-4.00,-7.00
-8.00,-12.00,-2.00,-1.00,+4.00,-1.00,-1.00,-2.00,-10.00,+5.00,+2.00,-7.00,-22.00,-5.00,-2.00,+0.00
+4.00,+10.00,-1.00,+1.00,-4.00,+0.00,-1.00,+5.00,+3.00,-4.00,-2.00,-2.00,-3.00,+0.00,+0.00,+1.00
+1.00,-3.00,+11.00,+10.00,+2.00,+1.00,-3.00,+1.00,+1.00,-2.00,-6.00,+4.00,+10.00,+1.00,+1.00,-1.00
-1.00,-7.00,-5.00,-7.00,-4.00,+0.00,+0.00,+1.00,+5.00,-2.00,-3.00,+0.00,+8.00,+0.00,+0.00,+2.00
-1.00,-13.00,-1.00,-12.00,-3.00,+0.00,-1.00,+1.00,-3.00,-2.00,-3.00,-2.00,-12.00,-1.00,-3.00,-6.00
+0.00,+42.00,-16.00,-10.00,-5.00,-4.00,-2.00,-3.00,-10.00,-15.00,-1.00,-3.00,-2.00,-4.00,-1.00,-3.00
-1.00,-12.00,+1.00,+2.00,-2.00,-3.00,+0.00,+0.00,-1.00,+17.00,+2.00,+0.00,+12.00,+0.00,+0.00,-3.00
-8.00,-16.00,+2.00,+4.00,+10.00,+4.00,-1.00,-3.00,+0.00,-8.00,-6.00,-5.00,-21.00,-4.00,-1.00,+1.00
+2.00,+8.00,+2.00,+6.00,-11.00,-1.00,-2.00,-7.00,-9.00,-5.00,-1.00,+2.00,+6.00,+1.00,+0.00,+1.00
-8.00,-14.00,+8.00,+6.00,+0.00,+1.00,+1.00,+2.00,-3.00,-3.00,+0.00,-3.00,-1.00,+0.00,-2.00,-2.00
+0.00,-10.00,-8.00,-8.00,-4.00,-2.00,-2.00,+1.00,+0.00,-8.00,-3.00,-3.00,-8.00,-1.00,+0.00,+1.00
+3.00,+4.00,+6.00,-3.00,-7.00,-9.00,-2.00,-1.00,+6.00,+12.00,+4.00,+3.00,+6.00,-1.00,-1.00,-2.00
+3.00,+33.00,-8.00,-4.00,+3.00,+0.00,-2.00,-3.00,+1.00,+0.00,-3.00,-1.00,+5.00,-1.00,-2.00,+2.00
+3.00,+0.00,+6.00,+1.00,+6.00,+3.00,+0.00,-1.00,+11.00,+14.00,+5.00,+1.00,-2.00,-1.00,+1.00,+1.00
-1.00,-26.00,-8.00,+2.00,+2.00,+3.00,+1.00,+3.00,-12.00,-1.00,+3.00,+1.00,-5.00,-1.00,+3.00,+0.00
+0.00,+1.00,-1.00,+1.00,-2.00,+0.00,-1.00,-3.00,-5.00,-22.00,-3.00,-1.00,+2.00,+0.00,+0.00,+0.00
-1.00,-7.00,+5.00,+6.00,+1.00,+0.00,-1.00,+2.00,+2.00,+15.00,+0.00,-2.00,-3.00,-1.00,-1.00,-1.00
-6.00,+4.00,-4.00,-8.00,-4.00,-3.00,-4.00,-6.00,-3.00,-3.00,-1.00,+2.00,+7.00,+0.00,-2.00,-4.00
-8.00,-30.00,-5.00,-4.00,+3.00,-2.00,-2.00,-2.00,+5.00,+5.00,-4.00,-3.00,-4.00,-3.00,-4.00,-3.00
+11.00,+39.00,-9.00,-9.00,-9.00,+1.00,+1.00,+1.00,+0.00,+0.00,-1.00,-4.00,-4.00,+0.00,+1.00,+2.00
+0.00,+1.00,+5.00,+2.00,-1.00,-2.00,+1.00,+2.00,-3.00,-8.00,-2.00,-2.00,+4.00,-1.00,+1.00,+0.00
-1.00,+0.00,-3.00,+2.00,+1.00,-1.00,+0.00,+0.00,-3.00,-7.00,-5.00,-2.00,+8.00,+1.00,-1.00,+0.00
-1.00,+7.00,+2.00,-2.00,-3.00,-2.00,-2.00,-3.00,-2.00,-6.00,-3.00,-6.00,-13.00,-3.00,-2.00,+0.00
-7.00,-18.00,+0.00,+5.00,+0.00,+3.00,-2.00,-1.00,+3.00,+6.00,+1.00,+3.00,+2.00,+0.00,+0.00,+0.00
-4.00,-20.00,-6.00,-3.00,+0.00,+0.00,-2.00,+0.00,-6.00,-6.00,+1.00,+1.00,+3.00,-2.00,-3.00,-3.00
-5.00,-5.00,-3.00,-2.00,-6.00,-4.00,-1.00,-3.00,-4.00,+3.00,+1.00,-4.00,-5.00,-1.00,-3.00,-6.00
+4.00,+20.00,-2.00,-1.00,+3.00,+0.00,-1.00,-1.00,-2.00,-18.00,-7.00,+1.00,-3.00,+0.00,+1.00,+1.00
-5.00,-11.00,-4.00,+4.00,+2.00,-1.00,+0.00,-2.00,+2.00,+10.00,-3.00,+6.00,+19.00,+2.00,+1.00,+2.00
-2.00,-3.00,+30.00,+6.00,+2.00,+1.00,+0.00,+1.00,+4.00,+5.00,-1.00,-13.00,-30.00,-5.00,-2.00,+3.00
+0.00,+9.00,-30.00,-14.00,+9.00,+0.00,-1.00,-2.00,-1.00,+2.00,+1.00,-4.00,+1.00,+0.00,-2.00,-2.00
+0.00,-4.00,-2.00,+2.00,-16.00,-1.00,-1.00,+1.00,-3.00,-5.00,-3.00,-2.00,-1.00,-1.00,-1.00,-3.00
+5.00,+4.00,+4.00,+0.00,+1.00,-3.00,-1.00,-3.00,-2.00,-5.00,-4.00,+0.00,+6.00,+0.00,+0.00,+0.00
-10.00,-12.00,-8.00,-2.00,+2.00,+0.00,+0.00,+12.00,+0.00,-3.00,+3.00,+8.00,+14.00,+1.00,+3.00,+0.00
-3.00,-2.00,+7.00,+3.00,-1.00,-1.00,-2.00,-3.00,-1.00,+6.00,+1.00,+0.00,-7.00,-5.00,-2.00,-1.00
+2.00,+9.00,-5.00,-4.00,+4.00,+0.00,-2.00,+0.00,-1.00,-8.00,-8.00,-2.00,-1.00,-2.00,-2.00,+0.00
+1.00,-1.00,+5.00,+5.00,+1.00,+0.00,-2.00,-1.00,-1.00,+2.00,+3.00,-2.00,-7.00,-1.00,-3.00,-4.00
+3.00,-4.00,-6.00,-2.00,-3.00,-1.00,-1.00,-3.00,-1.00,+0.00,-3.00,-2.00,+4.00,-1.00,+1.00,+4.00
-4.00,+2.00,+4.00,+2.00,-4.00,+0.00,-2.00,-2.00,-9.00,-5.00,+0.00,+0.00,+0.00,-2.00,-1.00,+0.00
-2.00,-1.00,-7.00,-4.00,+0.00,-1.00,+0.00,+2.00,-1.00,+15.00,+7.00,-1.00,-11.00,+0.00,+0.00,-2.00
-3.00,-6.00,+1.00,-6.00,-5.00,-3.00,-1.00,+1.00,-3.00,-8.00,-1.00,-4.00,-3.00,-1.00,-1.00,-2.00
+6.00,-5.00,-2.00,+3.00,+2.00,-4.00,-2.00,-1.00,-2.00,-5.00,-4.00,+2.00,+2.00,-1.00,-1.00,-4.00
-27.00,-3.00,-4.00,-7.00,-5.00,-2.00,-3.00,-10.00,+4.00,-1.00,-1.00,+2.00,+6.00,+0.00,+0.00,-1.00
+5.00,+1.00,-7.00,-6.00,+1.00,+0.00,-2.00,-3.00,-9.00,-6.00,+3.00,+0.00,+2.00,-1.00,-2.00,-2.00
+0.00,+4.00,+6.00,+2.00,+0.00,-3.00,-1.00,+2.00,+0.00,+5.00,-2.00,-4.00,-9.00,-3.00,-3.00,+1.00
+4.00,+19.00,-11.00,+2.00,+1.00,+0.00,-1.00,+0.00,-3.00,-1.00,+2.00,-1.00,+1.00,+0.00,-3.00,-6.00
+7.00,+1.00,+12.00,+11.00,+3.00,+0.00,+0.00,+2.00,+8.00,+7.00,+2.00,+4.00,+3.00,+3.00,+2.00,+4.00
-11.00,-20.00,+0.00,-5.00,-4.00,+1.00,+1.00,+1.00,-2.00,-10.00,-8.00,-8.00,-2.00,-5.00,-3.00,-6.00
+1.00,-2.00,-7.00,-9.00,-5.00,-4.00,-2.00,-1.00,-4.00,+4.00,-1.00,-1.00,-2.00,-3.00,-1.00,+0.00
-4.00,-1.00,+3.00,+0.00,+1.00,+0.00,-2.00,-3.00,-2.00,-3.00,-4.00,+0.00,+6.00,+1.00,+1.00,+1.00
+3.00,-13.00,-5.00,-2.00,-2.00,-2.00,-2.00,+2.00,+0.00,+5.00,+2.00,+1.00,-5.00,-3.00,-1.00,-5.00
-8.00,-13.00,+5.00,+4.00,+5.00,+2.00,+1.00,-2.00,-1.00,-6.00,-5.00,+4.00,+3.00,+3.00,+3.00,+2.00
+0.00,+2.00,-3.00,-2.00,+3.00,+1.00,-1.00,+0.00,+8.00,+0.00,-2.00,-3.00,-3.00,-2.00,-2.00,+0.00
-1.00,+7.00,+1.00,-3.00,-12.00,-3.00,-1.00,-3.00,-13.00,-6.00,-3.00,-5.00,+4.00,+0.00,-4.00,-5.00
+7.00,+14.00,+4.00,+3.00,+1.00,+1.00,+1.00,+2.00,-3.00,+1.00,+1.00,+0.00,-4.00,-3.00,+0.00,-1.00
+13.00,+7.00,+3.00,+5.00,+0.00,-1.00,+0.00,-6.00,+3.00,+3.00,+3.00,+0.00,-2.00,-1.00,-2.00,+2.00
-8.00,-5.00,+7.00,-1.00,+2.00,+1.00,+0.00,+4.00,+0.00,-1.00,+1.00,-2.00,+0.00,-2.00,+0.00,+0.00
-10.00,-20.00,-18.00,-14.00,-3.00,-4.00,-2.00,-8.00,+0.00,+3.00,-3.00,-3.00,-11.00,-1.00,-1.00,-2.00
+8.00,+18.00,+1.00,-2.00,-4.00,+2.00,+0.00,+0.00,+0.00,-2.00,+2.00,-1.00,+12.00,+1.00,-2.00,-2.00
+6.00,+20.00,+1.00,+3.00,+4.00,+0.00,-1.00,-1.00,-4.00,+3.00,+1.00,+3.00,-9.00,-2.00,-1.00,-3.00
-2.00,-7.00,+1.00,+4.00,-1.00,-1.00,-1.00,-6.00,+0.00,+2.00,-1.00,-2.00,-5.00,-1.00,-2.00,-3.00
-6.00,-12.00,+7.00,+1.00,+1.00,+0.00,-1.00,-3.00,+12.00,+3.00,-1.00,+3.00,+4.00,-3.00,-4.00,-1.00
-1.00,-2.00,-3.00,-2.00,+0.00,+1.00,+0.00,+1.00,-23.00,-27.00,-16.00,-8.00,+0.00,-1.00,-1.00,-2.00
+0.00,-4.00,-6.00,+2.00,-7.00,-3.00,-1.00,+2.00,+0.00,+2.00,-2.00,-2.00,-10.00,-1.00,-3.00,-5.00
-1.00,+5.00,+12.00,+2.00,+4.00,+3.00,+2.00,+0.00,-3.00,-7.00,-3.00,-1.00,+3.00,+0.00,+2.00,+1.00
-2.00,-10.00,-4.00,-4.00,-1.00,-1.00,-1.00,+1.00,+4.00,-3.00,-2.00,+1.00,+2.00,+1.00,+3.00,+4.00
-8.00,-38.00,-4.00,-3.00,-3.00,-3.00,-2.00,-5.00,+5.00,+3.00,+3.00,+1.00,-3.00,+0.00,+0.00,+1.00
+13.00,+77.00,+12.00,-5.00,-5.00,-5.00,-1.00,+2.00,-3.00,+14.00,+0.00,-2.00,+2.00,-1.00,-2.00,-2.00
-5.00,-7.00,-16.00,-4.00,-1.00,-2.00,+1.00,-1.00,-4.00,-8.00,-2.00,+1.00,+0.00,+0.00,+0.00,-4.00
+2.00,+2.00,+2.00,+4.00,-1.00,-1.00,+1.00,-2.00,-4.00,+7.00,+1.00,-1.00,-2.00,-1.00,-3.00,-5.00
-2.00,-9.00,+4.00,+3.00,-1.00,-1.00,+1.00,+2.00,+4.00,-4.00,-5.00,+0.00,-2.00,-3.00,-2.00,+0.00
-10.00,-24.00,-5.00,-1.00,-3.00,+0.00,-2.00,-3.00,-5.00,-7.00,+2.00,-1.00,-1.00,-1.00,-2.00,-1.00
+3.00,+1.00,-6.00,-5.00,-1.00,-2.00,-1.00,+0.00,+5.00,+1.00,+1.00,-1.00,-7.00,-1.00,-1.00,-2.00
-2.00,+1.00,+1.00,+6.00,+3.00,+2.00,+2.00,+1.00,-2.00,+0.00,-3.00,+0.00,+1.00,+1.00,+2.00,+0.00
+4.00,+24.00,+4.00,+5.00,-3.00,-2.00,-2.00,+0.00,+1.00,+0.00,+0.00,-1.00,-5.00,-1.00,-1.00,+0.00
-3.00,-1.00,+6.00,-5.00,+3.00,+2.00,-2.00,+1.00,+6.00,+5.00,-8.00,-4.00,+1.00,-4.00,-2.00,-1.00
+1.00,+0.00,-14.00,-12.00,-2.00,+1.00,-1.00,-1.00,-10.00,-2.00,+3.00,-2.00,+0.00,-2.00,+0.00,-3.00
-7.00,-22.00,-2.00,+2.00,-2.00,+2.00,-2.00,-4.00,-1.00,-4.00,-3.00,-1.00,-2.00,-3.00,-2.00,-2.00
+1.00,+15.00,+9.00,+10.00,+8.00,+2.00,+1.00,+3.00,+1.00,-3.00,-5.00,-1.00,-5.00,-1.00,-2.00,-3.00
-2.00,-9.00,+10.00,+3.00,-7.00,-1.00,-2.00,-3.00,-4.00,-9.00,-4.00,+1.00,+5.00,+1.00,+2.00,+2.00
-7.00,-20.00,-23.00,-15.00,-6.00,-5.00,-2.00,-4.00,+0.00,+3.00,-3.00,-4.00,-3.00,+0.00,+0.00,+2.00
+10.00,+45.00,-14.00,-8.00,-2.00,-4.00,+0.00,+2.00,+1.00,+7.00,+6.00,+3.00,+6.00,+1.00,-1.00,+0.00
-2.00,-8.00,-3.00,-6.00,-1.00,-3.00,+0.00,-1.00,+3.00,+5.00,+2.00,-1.00,-10.00,-2.00,-1.00,+0.00
-3.00,-11.00,+5.00,+6.00,+5.00,+1.00,-2.00,+1.00,+3.00,-1.00,-2.00,+0.00,+5.00,-3.00,-1.00,+0.00
+2.00,-2.00,+5.00,+3.00,-3.00,-3.00,-1.00,+1.00,-3.00,-2.00,+1.00,+0.00,+2.00,+1.00,-1.00,-4.00
-1.00,-7.00,-3.00,-4.00,-1.00,-2.00,-1.00,-1.00,-4.00,-8.00,-1.00,+0.00,-6.00,-1.00,-1.00,-3.00
+2.00,+3.00,-3.00,+1.00,-4.00,+0.00,-1.00,+0.00,-6.00,-1.00,-5.00,+2.00,+5.00,+0.00,-2.00,-1.00
-7.00,-15.00,-3.00,-2.00,+6.00,+3.00,+1.00,-2.00,+2.00,-3.00,+5.00,-1.00,+0.00,+0.00,+1.00,+3.00
-4.00,+3.00,+0.00,+4.00,-4.00,-3.00,-1.00,-1.00,-5.00,+0.00,+1.00,-1.00,+3.00,-2.00,-1.00,-4.00
-3.00,+6.00,+10.00,+1.00,+0.00,+1.00,+0.00,-2.00,+3.00,-2.00,-1.00,-1.00,-3.00,-1.00,-1.00,-2.00
+2.00,-6.00,-9.00,-3.00,-2.00,-1.00,+1.00,+1.00,+1.00,+3.00,+1.00,-2.00,-4.00,-2.00,+0.00,-3.00
+2.00,+1.00,+0.00,-8.00,-2.00,-3.00,-1.00,+0.00,-1.00,-8.00,-4.00,-2.00,+2.00,+1.00,+0.00,+1.00
-3.00,+8.00,-5.00,-3.00,-5.00,-2.00,-1.00,-4.00,+0.00,-2.00,-3.00,+0.00,+0.00,+0.00,-2.00,-1.00
+1.00,-2.00,+3.00,+2.00,+5.00,+1.00,-1.00,+0.00,-2.00,-8.00,-3.00,-2.00,-1.00,-1.00,-1.00,+1.00
+6.00,-15.00,-3.00,+0.00,+1.00,+2.00,+0.00,-9.00,-1.00,+9.00,+1.00,+1.00,-1.00,+0.00,+1.00,+0.00
-6.00,-11.00,-7.00,-2.00,+0.00,-1.00,+0.00,+3.00,+1.00,+4.00,+2.00,-2.00,-4.00,-1.00,-2.00,-4.00
+0.00,+2.00,+6.00,+8.00,+1.00,+0.00,-1.00,-2.00,+0.00,+5.00,-4.00,-3.00,-2.00,-1.00,-2.00,-2.00
+3.00,+7.00,+8.00,-2.00,-3.00,-3.00,+0.00,-1.00,-4.00,-11.00,+0.00,+0.00,-3.00,-2.00,-2.00,-1.00
-3.00,+0.00,-4.00,-4.00,+0.00,-2.00,-2.00,-3.00,+2.00,-1.00,-5.00,-2.00,-3.00,-3.00,-4.00,-4.00
+1.00,-3.00,-6.00,+3.00,+3.00,+1.00,-2.00,-6.00,-2.00,-6.00,+2.00,-1.00,+1.00,-2.00,-1.00,-2.00
-4.00,-17.00,+1.00,+2.00,-1.00,+1.00,+0.00,-2.00,+2.00,+9.00,-1.00,+0.00,+0.00,+0.00,+1.00,-1.00
+5.00,+15.00,+9.00,-1.00,-1.00,-2.00,-1.00,+6.00,-3.00,+3.00,+1.00,-4.00,-6.00,-2.00,+1.00,+3.00
-5.00,+7.00,+14.00,-2.00,-3.00,-3.00,-3.00,+1.00,-3.00,+0.00,+6.00,+2.00,-1.00,-1.00,-2.00,+1.00
+0.00,-2.00,-20.00,-4.00,-3.00,+0.00,-1.00,+3.00,-2.00,-3.00,-6.00,-4.00,-4.00,-1.00,-4.00,-1.00
-3.00,-6.00,+2.00,-3.00,+0.00,-3.00,-3.00,+0.00,-1.00,-10.00,-5.00,+1.00,+1.00,-2.00,-3.00,-4.00
-5.00,-20.00,-10.00,-4.00,-1.00,-1.00,+0.00,-10.00,+0.00,+0.00,-7.00,-1.00,+5.00,-2.00,-3.00,+0.00
+1.00,-3.00,+3.00,+1.00,+1.00,+3.00,+0.00,+4.00,+1.00,+3.00,+2.00,-5.00,-17.00,-2.00,+0.00,-2.00
-2.00,+6.00,-7.00,-3.00,+1.00,-1.00,+1.00,-3.00,-2.00,+1.00,+1.00,+1.00,+0.00,-1.00,+0.00,-2.00
+3.00,+2.00,+8.00,+4.00,-4.00,-1.00,-1.00,-1.00,-4.00,-8.00,-5.00,-2.00,-4.00,-1.00,-2.00,+0.00
-3.00,-2.00,-8.00,+1.00,+1.00,-3.00,-1.00,+1.00,+0.00,+6.00,+4.00,+3.00,+4.00,-1.00,-3.00,-6.00
-4.00,+1.00,-1.00,+1.00,+2.00,+1.00,-1.00,-2.00,-4.00,+0.00,+5.00,-1.00,+4.00,-2.00,-1.00,-3.00
-1.00,-11.00,+11.00,-1.00,-2.00,-1.00,+0.00,-1.00,-2.00,-4.00,-1.00,-3.00,-3.00,-2.00,-5.00,-5.00
+2.00,+4.00,-11.00,-2.00,+2.00,-1.00,-1.00,-1.00,-4.00,-10.00,-4.00,+1.00,+0.00,+0.00,-1.00,+4.00
+0.00,+4.00,+2.00,+3.00,+4.00,+0.00,-2.00,-10.00,+0.00,+6.00,-9.00,+0.00,-1.00,-1.00,-5.00,+0.00
-3.00,-5.00,+8.00,-1.00,-7.00,-3.00,+0.00,+5.00,-2.00,-4.00,+2.00,+0.00,+1.00,+1.00,+4.00,+1.00
-3.00,-6.00,-21.00,-8.00,-2.00,-3.00,-4.00,+0.00,+2.00,+11.00,+8.00,+0.00,-2.00,-1.00,-1.00,+1.00
+1.00,+5.00,+4.00,-3.00,+0.00,-1.00,-1.00,+2.00,+4.00,+7.00,+2.00,+0.00,+0.00,+1.00,+0.00,+0.00
-1.00,+1.00,-2.00,+2.00,-4.00,-2.00,-1.00,+2.00,-2.00,-8.00,-3.00,-3.00,-3.00,-1.00,-2.00,+0.00
+3.00,-3.00,+7.00,+5.00,+0.00,-3.00,-2.00,-7.00,-1.00,-7.00,-4.00,+2.00,+4.00,+0.00,+0.00,+0.00
-3.00,-1.00,-7.00,-7.00,-4.00,-1.00,+0.00,+16.00,-2.00,-1.00,-6.00,-3.00,+0.00,+1.00,+3.00,-2.00
-2.00,+1.00,-1.00,-1.00,-2.00,+0.00,+0.00,-15.00,-1.00,+1.00,+2.00,+2.00,-2.00,+0.00,+0.00,+3.00
-4.00,-2.00,+0.00,+1.00,-2.00,-1.00,+0.00,+2.00,-2.00,+3.00,+2.00,-1.00,-2.00,-1.00,+0.00,-19.00
-3.00,-10.00,-12.00,-3.00,+0.00,+0.00,-2.00,-4.00,+1.00,-3.00,+1.00,-3.00,-2.00,-1.00,+0.00,+6.00
+2.00,+3.00,+14.00,+7.00,+3.00,+0.00,+0.00,-2.00,+3.00,+1.00,-6.00,-1.00,+0.00,-4.00,+0.00,+0.00
-1.00,+0.00,-7.00,+0.00,+0.00,-2.00,-3.00,+2.00,+1.00,-4.00,-5.00,-2.00,-3.00,-3.00,-5.00,+6.00
+2.00,+1.00,+4.00,-3.00,-2.00,-1.00,-3.00,-5.00,-2.00,-2.00,+5.00,+0.00,-1.00,+1.00,+1.00,+2.00
-9.00,-3.00,-13.00,-9.00,-3.00,-3.00,-3.00,-5.00,-2.00,+1.00,+0.00,-1.00,-1.00,-2.00,-3.00,-7.00
+1.00,-3.00,+0.00,+1.00,-1.00,-1.00,+2.00,-15.00,-4.00,-2.00,-4.00,+0.00,-3.00,-1.00,-1.00,-9.00
-2.00,+6.00,+10.00,+7.00,+4.00,+2.00,+10.00,+20.00,-3.00,-2.00,+0.00,+0.00,+0.00,+1.00,+0.00,-3.00
+10.00,-5.00,+3.00,+4.00,-1.00,+0.00,+0.00,+24.00,-1.00,-15.00,-4.00,+0.00,+0.00,+0.00,+1.00,+2.00
+1.00,+1.00,-7.00,-9.00,-5.00,+0.00,-3.00,+4.00,-1.00,+14.00,-2.00,-1.00,+2.00,-2.00,-4.00,-12.00
-2.00,-3.00,-4.00,-3.00,-3.00,-2.00,-6.00,-5.00,-1.00,+1.00,+6.00,+1.00,+0.00,-1.00,-2.00,+5.00
-3.00,+0.00,-6.00,-3.00,+0.00,-3.00,-3.00,-13.00,-2.00,+1.00,-5.00,-6.00,-2.00,-1.00,-1.00,-2.00
-4.00,-4.00,+2.00,+2.00,-1.00,-1.00,-2.00,-6.00,-3.00,-7.00,-2.00,-3.00,-1.00,-1.00,+0.00,+1.00
-2.00,+0.00,-2.00,+4.00,+2.00,+0.00,+1.00,+1.00,-1.00,-5.00,-4.00,+0.00,-1.00,+0.00,+0.00,-3.00
