-2.00,+0.00,-2.00,-1.00,-2.00,+0.00,-2.00,+2.00,-4.00,-1.00,+0.00,+0.00,+0.00,-2.00,+1.00,+0.00
-1.00,-1.00,+0.00,-1.00,+1.00,+1.00,-2.00,-17.00,+3.00,-3.00,-2.00,-2.00,-2.00,-3.00,-2.00,-1.00
+30.00,+1.00,-1.00,+0.00,-1.00,-2.00,-2.00,-1.00,+6.00,+5.00,+2.00,+1.00,+1.00,-1.00,+0.00,+0.00
-24.00,-1.00,+1.00,+1.00,+1.00,-1.00,+0.00,+3.00,-17.00,-11.00,-1.00,+0.00,-8.00,+1.00,-2.00,-6.00
+4.00,-2.00,-2.00,-2.00,-3.00,-4.00,-1.00,-2.00,+7.00,+6.00,+2.00,-1.00,+3.00,+0.00,-1.00,-1.00
-6.00,-17.00,-1.00,-1.00,+0.00,-2.00,-1.00,+3.00,-6.00,-5.00,-1.00,-1.00,-1.00,+0.00,-3.00,-1.00
-9.00,+26.00,+0.00,-1.00,-1.00,-1.00,-3.00,+3.00,+1.00,-2.00,-2.00,-1.00,-1.00,-1.00,-2.00,+0.00
+39.00,-2.00,-1.00,-1.00,-1.00,+1.00,+1.00,-23.00,+5.00,+2.00,-2.00,-2.00,-1.00,-1.00,-1.00,+1.00
+3.00,+4.00,+0.00,+1.00,-1.00,-2.00,-2.00,+1.00,-1.00,-1.00,-1.00,+3.00,+4.00,-1.00,+0.00,+0.00
-6.00,-2.00,+2.00,+0.00,-1.00,+0.00,+0.00,+0.00,+4.00,+3.00,+1.00,+2.00,-19.00,+0.00,-2.00,+0.00
+12.00,-5.00,-3.00,-2.00,-2.00,-1.00,-2.00,+6.00,-4.00,+0.00,-3.00,-3.00,+21.00,+0.00,+2.00,-4.00
-21.00,-20.00,-3.00,-2.00,-3.00,-2.00,-2.00,-1.00,+6.00,+2.00,+0.00,+1.00,+1.00,-2.00,-1.00,+0.00
+6.00,+3.00,+2.00,+0.00,+1.00,+0.00,-2.00,-3.00,-10.00,-4.00,-2.00,+20.00,+31.00,-2.00,-3.00,-3.00
+12.00,+5.00,+0.00,+0.00,-1.00,-1.00,+1.00,+5.00,+4.00,-1.00,+0.00,-18.00,-29.00,+2.00,+3.00,+1.00
-6.00,-35.00,-1.00,+1.00,+1.00,-1.00,+0.00,-2.00,+2.00,+3.00,-3.00,+20.00,-17.00,-3.00,-5.00,-1.00
-2.00,+29.00,-2.00,+0.00,+0.00,+1.00,-1.00,+5.00,+14.00,-22.00,-4.00,-27.00,-17.00,+0.00,-2.00,-3.00
-7.00,-27.00,-5.00,-1.00,-1.00,-5.00,-2.00,-2.00,-33.00,-21.00,-8.00,-13.00,-16.00,-4.00,-4.00,-9.00
-9.00,+4.00,-2.00,-1.00,-5.00,-3.00,-1.00,+2.00,+32.00,+32.00,+2.00,+21.00,+21.00,+6.00,+4.00,+20.00
-9.00,-9.00,-1.00,-1.00,-1.00,-2.00,-3.00,-3.00,-24.00,-8.00,+3.00,-59.00,-1.00,-5.00,+14.00,-1.00
+23.00,-16.00,-3.00,-3.00,-5.00,+4.00,+0.00,-5.00,+57.00,+57.00,-2.00,+9.00,+3.00,-4.00,-59.00,+5.00
-9.00,-1.00,-2.00,+0.00,+1.00,+2.00,+0.00,-2.00,+40.00,-21.00,-2.00,+16.00,+4.00,+4.00,-7.00,-8.00
+5.00,+1.00,-1.00,-3.00,-9.00,-6.00,-2.00,-8.00,-108.00,-51.00,-1.00,-43.00,-21.00,+9.00,+14.00,-11.00
-18.00,+2.00,-2.00,+2.00,-24.00,-5.00,-1.00,-2.00,+58.00,+18.00,-3.00,+29.00,-7.00,+5.00,-9.00,+6.00
+5.00,+4.00,-1.00,+3.00,+47.00,+4.00,+2.00,+0.00,-69.00,-13.00,-2.00,-10.00,-32.00,-3.00,-1.00,+7.00
-28.00,-37.00,-7.00,-9.00,-58.00,-10.00,-3.00,+15.00,+53.00,+27.00,-5.00,+4.00,+24.00,+1.00,+0.00,+17.00
+32.00,+64.00,+12.00,+10.00,+71.00,+11.00,+6.00,+13.00,+44.00,-8.00,-4.00,+22.00,+6.00,-3.00,-5.00,-2.00
-15.00,+49.00,+4.00,-2.00,-20.00,-8.00,+3.00,-4.00,-27.00,-9.00,+3.00,-2.00,+10.00,+3.00,-17.00,-7.00
+40.00,+30.00,+6.00,+7.00,+26.00,+0.00,+11.00,+7.00,+28.00,+0.00,-2.00,+9.00,+5.00,+2.00,+46.00,-7.00
+0.00,+6.00,+1.00,+6.00,+14.00,+5.00,-84.00,-9.00,-6.00,-11.00,+0.00,+4.00,-25.00,-2.00,-20.00,-7.00
-78.00,-71.00,-30.00,-25.00,-116.00,-23.00,+4.00,-7.00,-26.00,-1.00,-1.00,-11.00,+5.00,-2.00,-5.00,-17.00
+88.00,+94.00,+41.00,+22.00,+104.00,+41.00,+43.00,+28.00,+15.00,-17.00,-7.00,+8.00,-13.00,+4.00,+3.00,+4.00
-31.00,-91.00,+1.00,-1.00,-2.00,+10.00,+18.00,+1.00,-2.00,+15.00,+2.00,+8.00,-26.00,-9.00,+16.00,-7.00
-1.00,-18.00,-4.00,-5.00,+22.00,-6.00,+12.00,-2.00,-20.00,-14.00,-3.00,-18.00,+38.00,-2.00,-14.00,-6.00
+7.00,-12.00,+0.00,+1.00,-10.00,+10.00,-18.00,-2.00,-25.00,+1.00,-5.00,-28.00,+10.00,-32.00,+10.00,+2.00
-40.00,-21.00,-22.00,-14.00,-29.00,-17.00,-19.00,-16.00,+8.00,+14.00,+3.00,+15.00,+4.00,+6.00,+11.00,-2.00
-10.00,+10.00,+0.00,-6.00,-33.00,-3.00,-12.00,+7.00,-99.00,-47.00,+8.00,-4.00,+12.00,+7.00,+21.00,+1.00
+8.00,-20.00,+0.00,-1.00,+0.00,-1.00,+19.00,-4.00,+82.00,+27.00,-2.00,+24.00,+29.00,-4.00,-11.00,+10.00
-7.00,+3.00,-3.00,-5.00,-2.00,-2.00,-5.00,-10.00,+34.00,+64.00,-2.00,-47.00,-7.00,-16.00,-1.00,-13.00
-13.00,-21.00,-8.00,-5.00,-16.00,-4.00,+8.00,+5.00,-28.00,-39.00,-1.00,+29.00,-58.00,+7.00,+8.00,+5.00
+39.00,+6.00,+1.00,-2.00,-12.00,-8.00,-15.00,-28.00,-32.00,+14.00,+3.00,-3.00,+59.00,-7.00,-43.00,-6.00
-17.00,-79.00,-12.00,-5.00,-51.00,-4.00,-38.00,+4.00,+19.00,+16.00,+3.00,-26.00,-18.00,-25.00,+62.00,+3.00
-6.00,+119.00,+4.00,+0.00,-4.00,-12.00,+0.00,-3.00,+26.00,-13.00,+1.00,+31.00,+18.00,+17.00,-22.00,+3.00
+15.00,-56.00,-2.00,+8.00,+69.00,+15.00,-30.00,-6.00,+14.00,-2.00,-7.00,+11.00,-14.00,-1.00,+13.00,+3.00
+14.00,-11.00,+5.00,-1.00,-2.00,+6.00,+17.00,+9.00,-57.00,-40.00,-12.00,-10.00,+8.00,+4.00,-32.00,-20.00
+31.00,+0.00,+13.00,+3.00,+18.00,+0.00,-8.00,-6.00,+19.00,+12.00,+7.00,-25.00,-69.00,-16.00,+12.00,+6.00
-22.00,-84.00,-7.00,-4.00,-11.00,+14.00,+33.00,+0.00,+6.00,-5.00,+2.00,+30.00,+102.00,+67.00,+6.00,-8.00
-60.00,-128.00,-10.00,-3.00,-31.00,-15.00,+12.00,-17.00,-23.00,-10.00,-1.00,-7.00,+11.00,-15.00,+28.00,-2.00
+2.00,+108.00,-14.00,-9.00,+0.00,-13.00,-31.00,+0.00,-26.00,+0.00,-2.00,+2.00,-16.00,+5.00,+16.00,-7.00
-8.00,-3.00,+3.00,+7.00,+40.00,+15.00,+52.00,+1.00,-29.00,+4.00,+6.00,-2.00,-16.00,+17.00,+42.00,-4.00
+32.00,-49.00,+18.00,+7.00,-16.00,+14.00,-64.00,+9.00,+28.00,-6.00,-2.00,+6.00,-64.00,-20.00,-11.00,+2.00
-30.00,+2.00,-13.00,-6.00,-41.00,-15.00,-12.00,-5.00,-91.00,-38.00,-4.00,-14.00,+74.00,-2.00,-23.00,-18.00
-19.00,-28.00,-2.00,+1.00,+8.00,-2.00,-15.00,+3.00,+112.00,+42.00,+5.00,+16.00,-8.00,-1.00,-28.00,+28.00
+26.00,+127.00,+3.00,-3.00,-33.00,-29.00,+17.00,+6.00,-54.00,+7.00,-11.00,-13.00,+1.00,+5.00,-1.00,-13.00
+18.00,-28.00,+0.00,+5.00,+8.00,+11.00,+44.00,+1.00,+64.00,-16.00,+1.00,+11.00,-24.00,-15.00,-2.00,+15.00
-20.00,-11.00,-10.00,-2.00,+30.00,+17.00,-59.00,+0.00,+17.00,+3.00,-6.00,-1.00,-30.00,-6.00,-18.00,-4.00
-20.00,-61.00,-7.00,-8.00,-69.00,-6.00,+3.00,-4.00,-42.00,+39.00,+7.00,-7.00,-16.00,-11.00,+35.00,+1.00
+16.00,+82.00,-1.00,+2.00,+38.00,-12.00,-2.00,-6.00,-44.00,-32.00,-2.00,+3.00,+32.00,+12.00,-29.00,-9.00
-13.00,+24.00,+5.00,+7.00,+46.00,-3.00,-9.00,-1.00,+8.00,+18.00,+5.00,-2.00,-22.00,-10.00,-4.00,+5.00
+60.00,+23.00,+4.00,+0.00,-5.00,-4.00,+33.00,+10.00,+62.00,+20.00,+1.00,-19.00,-12.00,-8.00,-2.00,+8.00
-25.00,-12.00,-3.00,-3.00,-10.00,-5.00,-27.00,+8.00,+71.00,-31.00,-6.00,-17.00,-34.00,-3.00,-8.00,+0.00
-22.00,-24.00,-8.00,-7.00,-19.00,+15.00,+16.00,-1.00,-45.00,-4.00,-7.00,+17.00,+18.00,+5.00,-3.00,-11.00
-8.00,-23.00,-2.00,+1.00,+27.00,-12.00,+13.00,-3.00,-45.00,-3.00,+0.00,-12.00,+2.00,-11.00,+6.00,+0.00
+2.00,+25.00,-2.00,+0.00,-18.00,-6.00,+2.00,+2.00,+74.00,-44.00,-6.00,+1.00,-7.00,+4.00,-34.00,-8.00
+23.00,+28.00,+6.00,-1.00,-4.00,-10.00,-9.00,+11.00,-37.00,+54.00,+1.00,+9.00,+22.00,-11.00,-22.00,+6.00
+0.00,-128.00,+7.00,+6.00,+15.00,+17.00,+17.00,+1.00,+0.00,-41.00,-2.00,-16.00,-57.00,+3.00,-1.00,+2.00
-13.00,-28.00,-11.00,-6.00,-8.00,-2.00,-86.00,-14.00,-86.00,-15.00,-1.00,+16.00,+33.00,-59.00,-20.00,-17.00
+3.00,+76.00,+14.00,+3.00,-5.00,-10.00,+21.00,+2.00,-37.00,+12.00,+3.00,-15.00,+21.00,+39.00,+6.00,+6.00
-16.00,+24.00,-3.00,+0.00,+34.00,+19.00,-8.00,-6.00,+127.00,+23.00,+5.00,+6.00,+5.00,-1.00,-1.00,+11.00
-8.00,-28.00,-15.00,-1.00,-22.00,-15.00,+21.00,-6.00,-18.00,-47.00,-11.00,+41.00,+24.00,+1.00,-28.00,-9.00
+43.00,-12.00,+2.00,-1.00,+30.00,+11.00,+6.00,+8.00,+51.00,+30.00,+8.00,-37.00,-12.00,+1.00,+27.00,-7.00
-35.00,-77.00,-2.00,-2.00,+0.00,-3.00,+15.00,-6.00,-81.00,-14.00,-7.00,-36.00,-6.00,-14.00,+14.00,-7.00
-16.00,-6.00,-7.00,+0.00,+27.00,-2.00,-14.00,-2.00,+4.00,+23.00,+6.00,+24.00,+10.00,+3.00,-3.00,-1.00
-25.00,+103.00,+5.00,-2.00,-8.00,-3.00,+17.00,-2.00,+127.00,+37.00,+4.00,-19.00,+22.00,-1.00,+7.00,+31.00
+60.00,+1.00,-2.00,-7.00,-8.00,+6.00,+8.00,+9.00,-74.00,-37.00,-2.00,+32.00,-6.00,+6.00,-10.00,-14.00
+3.00,+20.00,+18.00,+4.00,-12.00,-6.00,+5.00,+5.00,-99.00,-24.00,-3.00,+7.00,+7.00,-13.00,-10.00,-14.00
-20.00,-33.00,-6.00,-1.00,-7.00,+4.00,+28.00,-1.00,+28.00,+7.00,-5.00,-10.00,-18.00,+18.00,+38.00,-3.00
-16.00,-14.00,-7.00,-3.00,-7.00,-5.00,-28.00,-9.00,-9.00,+30.00,+6.00,-10.00,-49.00,+9.00,-35.00,+1.00
+10.00,+29.00,+2.00,-3.00,-20.00,-20.00,-11.00,+12.00,+14.00,+0.00,-12.00,-7.00,-8.00,+9.00,-8.00,-7.00
+47.00,+88.00,+15.00,-1.00,-29.00,+5.00,+9.00,+9.00,+11.00,+35.00,+15.00,+36.00,-13.00,+2.00,+3.00,+7.00
-41.00,-108.00,-22.00,+2.00,+35.00,-1.00,+18.00,-12.00,-19.00,-52.00,-13.00,+6.00,+2.00,-6.00,+12.00,-7.00
+25.00,+69.00,+26.00,+7.00,+38.00,+10.00,-25.00,+1.00,-101.00,+20.00,+8.00,-31.00,-13.00,-17.00,-25.00,-1.00
-5.00,-35.00,-12.00,-2.00,+9.00,-11.00,+5.00,+19.00,+20.00,-27.00,-16.00,-8.00,-4.00,+11.00,-4.00,+1.00
+16.00,+19.00,+4.00,-1.00,+7.00,+7.00,+40.00,+9.00,+102.00,+40.00,+4.00,+7.00,+51.00,-4.00,-1.00,+8.00
+27.00,-13.00,+6.00,-3.00,-47.00,+5.00,+10.00,+1.00,+37.00,-1.00,+0.00,-19.00,-31.00,-3.00,+12.00,-2.00
-2.00,-33.00,-17.00,-10.00,-16.00,-10.00,-2.00,-6.00,-32.00,+6.00,-12.00,+8.00,+11.00,+7.00,-32.00,-13.00
-20.00,+14.00,+5.00,+6.00,+10.00,-1.00,+20.00,-7.00,-43.00,-7.00,-8.00,+1.00,+15.00,+3.00,+9.00,-11.00
-57.00,-63.00,-17.00,-7.00,+7.00,+8.00,-14.00,-11.00,+8.00,+10.00,+3.00,+9.00,-3.00,+4.00,+3.00,+15.00
-5.00,+27.00,+6.00,+0.00,+6.00,+9.00,+8.00,+6.00,-12.00,-17.00,-4.00,-19.00,+40.00,-13.00,-1.00,-3.00
+6.00,+74.00,+8.00,-4.00,+7.00,+4.00,-2.00,+3.00,+31.00,-9.00,+5.00,-2.00,-7.00,+6.00,+20.00,+20.00
-48.00,-67.00,+4.00,+8.00,-22.00,+12.00,+5.00,-6.00,-5.00,+10.00,+3.00,+11.00,+1.00,+7.00,-4.00,+2.00
-9.00,+24.00,-8.00,-2.00,+4.00,-10.00,-22.00,-5.00,+72.00,+15.00,+3.00,+15.00,+1.00,-6.00,-5.00,+7.00
+40.00,+58.00,+35.00,+8.00,-14.00,+9.00,+13.00,+9.00,-74.00,-37.00,+0.00,-10.00,+30.00,+8.00,+1.00,-15.00
+35.00,-11.00,-8.00,-8.00,-36.00,+2.00,-10.00,+3.00,-8.00,+16.00,+3.00,+48.00,-43.00,-7.00,+11.00,+3.00
-17.00,-15.00,-2.00,+6.00,+43.00,-1.00,-4.00,-2.00,+61.00,+7.00,+6.00,-42.00,+13.00,+11.00,-36.00,+9.00
+16.00,-11.00,-3.00,-1.00,-16.00,+4.00,-5.00,-5.00,-41.00,-40.00,-11.00,-6.00,-17.00,-6.00,+8.00,-7.00
-1.00,+48.00,-6.00,-1.00,+2.00,-2.00,-4.00,-5.00,-34.00,+5.00,+2.00,-15.00,-29.00,-44.00,-10.00,+4.00
+0.00,-24.00,-5.00,-1.00,+6.00,-4.00,-5.00,-9.00,+85.00,+0.00,+1.00,-5.00,+59.00,+34.00,+29.00,-4.00
+9.00,+27.00,+1.00,-4.00,-16.00,-8.00,+12.00,-4.00,-34.00,-19.00,-3.00,+14.00,-7.00,-15.00,+6.00,+15.00
+21.00,+7.00,-3.00,-1.00,+15.00,-8.00,-9.00,+5.00,-97.00,+21.00,+6.00,-11.00,-8.00,+34.00,+30.00,-18.00
-10.00,-105.00,-12.00,-8.00,-32.00,-23.00,-16.00,-5.00,+31.00,-20.00,-5.00,-9.00,-9.00,-6.00,-14.00,+5.00
-9.00,+10.00,+4.00,+5.00,+22.00,+6.00,+8.00,+4.00,+23.00,+23.00,+0.00,+25.00,+40.00,-15.00,-3.00,-15.00
-22.00,+13.00,-8.00,-7.00,-25.00,-4.00,+4.00,-15.00,-39.00,-40.00,-3.00,-1.00,-9.00,+4.00,+5.00,-3.00
-25.00,-13.00,-11.00,-5.00,-18.00,+19.00,-28.00,-8.00,-13.00,+3.00,-8.00,-19.00,+6.00,-18.00,+0.00,-5.00
+71.00,+53.00,+22.00,+10.00,+48.00,+9.00,+54.00,+22.00,-13.00,+14.00,-5.00,+53.00,+5.00,+6.00,+4.00,-4.00
-69.00,-101.00,+0.00,+1.00,+10.00,-2.00,-20.00,+5.00,+11.00,-24.00,-3.00,-29.00,-25.00,-8.00,-4.00,-1.00
-17.00,-13.00,-16.00,-9.00,-22.00,+7.00,+21.00,-22.00,-8.00,+15.00,+3.00,-25.00,-23.00,+6.00,+2.00,-6.00
-14.00,-4.00,+2.00,+0.00,+39.00,-6.00,-26.00,+9.00,-1.00,+26.00,+1.00,-7.00,-24.00,-25.00,-15.00,+1.00
+41.00,+86.00,-10.00,-4.00,-9.00,-12.00,-27.00,+0.00,-17.00,-5.00,-10.00,+10.00,+59.00,+24.00,-9.00,-22.00
+17.00,+27.00,+9.00,+3.00,+0.00,+3.00,+7.00,+1.00,+8.00,+12.00,+6.00,+7.00,-70.00,+7.00,+4.00,-1.00
+21.00,-38.00,-6.00,-7.00,-24.00,-31.00,+0.00,-4.00,-12.00,-5.00,-4.00,-3.00,+40.00,-6.00,-2.00,-8.00
-35.00,-40.00,-8.00,-4.00,-6.00,+15.00,+8.00,-12.00,-10.00,-21.00,-5.00,+2.00,-32.00,-9.00,-32.00,-8.00
-31.00,-97.00,-10.00,-5.00,+1.00,-7.00,-25.00,-8.00,+77.00,-2.00,-10.00,-19.00,-42.00,+15.00,+28.00,+12.00
-10.00,+2.00,+5.00,-1.00,-13.00,-5.00,+11.00,+0.00,-57.00,-7.00,+1.00,+11.00,+65.00,-49.00,-23.00,-10.00
-9.00,-6.00,+5.00,-1.00,+14.00,-3.00,-15.00,+0.00,+63.00,+3.00,-1.00,-14.00,-34.00,+64.00,+24.00,+12.00
+34.00,+14.00,+2.00,+4.00,-25.00,-6.00,+4.00,-1.00,-24.00,+8.00,-2.00,+2.00,+21.00,-6.00,-34.00,-19.00
-47.00,-107.00,-10.00,+4.00,+27.00,+2.00,-4.00,-3.00,+43.00,+10.00,+4.00,-12.00,-20.00,+11.00,-20.00,-2.00
+23.00,-29.00,-9.00,-5.00,-18.00,+21.00,+4.00,-2.00,-89.00,-45.00,-4.00,-10.00,-8.00,-7.00,+5.00,-17.00
+20.00,+102.00,+14.00,-3.00,-16.00,-19.00,-24.00,+0.00,+44.00,+27.00,-5.00,+17.00,-27.00,-20.00,+9.00,+12.00
+17.00,+82.00,+11.00,+10.00,+57.00,-19.00,+23.00,+1.00,+49.00,-17.00,-2.00,+17.00,+69.00,+9.00,-12.00,+12.00
+20.00,+37.00,-1.00,-1.00,-26.00,+10.00,+15.00,+0.00,-119.00,+18.00,+8.00,-13.00,-17.00,-10.00,-4.00,-9.00
-31.00,-78.00,-21.00,-7.00,-7.00,-16.00,-30.00,-9.00,+34.00,+12.00,-6.00,-38.00,-26.00,+4.00,+8.00,+0.00
-4.00,+6.00,+23.00,+7.00,+28.00,+11.00,-16.00,+10.00,-53.00,+2.00,+9.00,+11.00,+54.00,-4.00,-7.00,+10.00
-59.00,-15.00,-9.00,-4.00,+6.00,-1.00,-34.00,-12.00,+16.00,+3.00,+1.00,+22.00,-25.00,+12.00,+5.00,-4.00
+8.00,+93.00,+17.00,+2.00,-38.00,-28.00,+11.00,+3.00,+42.00,-9.00,-3.00,+5.00,-24.00,-16.00,+4.00,+5.00
+10.00,-16.00,-9.00,-3.00,+25.00,+0.00,+5.00,-9.00,-5.00,+21.00,+2.00,-15.00,-24.00,+5.00,+1.00,+7.00
-24.00,-26.00,-13.00,-3.00,+7.00,+15.00,+6.00,-2.00,+23.00,+30.00,-2.00,+7.00,+4.00,-7.00,-1.00,-7.00
+7.00,-84.00,-4.00,-5.00,-17.00,-18.00,-14.00,-6.00,+0.00,+2.00,+2.00,-11.00,+42.00,-29.00,+30.00,+17.00
-43.00,+106.00,+0.00,-1.00,-10.00,+10.00,+0.00,-1.00,-29.00,-18.00,+0.00,+16.00,-47.00,+28.00,-28.00,-2.00
+32.00,+20.00,+21.00,+8.00,-6.00,-8.00,+12.00,+4.00,-21.00,-12.00,-5.00,-6.00,-18.00,-21.00,+1.00,-3.00
-10.00,-69.00,-14.00,-1.00,+16.00,+14.00,+10.00,+28.00,+51.00,+7.00,+4.00,+44.00,-25.00,-5.00,-11.00,+7.00
+36.00,+89.00,+12.00,-1.00,-7.00,+5.00,+8.00,+8.00,+0.00,-30.00,-2.00,-29.00,+17.00,+6.00,+18.00,-7.00
-31.00,-53.00,-9.00,-6.00,-17.00,-16.00,-8.00,-5.00,+64.00,+73.00,+8.00,-8.00,+5.00,-17.00,+6.00,+5.00
+16.00,-1.00,-8.00,+0.00,-24.00,-13.00,-58.00,-5.00,-56.00,+0.00,-4.00,-3.00,+2.00,-12.00,-5.00,+8.00
+1.00,-22.00,-5.00,+8.00,+82.00,+17.00,+22.00,-14.00,+37.00,+13.00,+6.00,+37.00,+5.00,+30.00,+41.00,+5.00
+2.00,-49.00,-5.00,-6.00,-22.00,-15.00,+19.00,+10.00,+6.00,+10.00,+6.00,-24.00,-91.00,-20.00,-1.00,-1.00
-35.00,-44.00,-8.00,-6.00,+0.00,+3.00,-13.00,-5.00,+11.00,-30.00,-4.00,+3.00,+23.00,+17.00,+6.00,+13.00
+30.00,-26.00,+16.00,+3.00,+19.00,+6.00,+0.00,+15.00,-48.00,-42.00,-8.00,-19.00,+10.00,-1.00,+12.00,-17.00
+15.00,-23.00,-3.00,+3.00,+2.00,-5.00,+6.00,+1.00,+24.00,+44.00,+4.00,+46.00,+27.00,-12.00,-3.00,+16.00
+6.00,-19.00,-12.00,-9.00,-4.00,-3.00,+11.00,-8.00,+33.00,-4.00,-6.00,-33.00,-42.00,+8.00,-1.00,-10.00
-4.00,-73.00,-1.00,+1.00,-6.00,-1.00,-44.00,-15.00,-18.00,-16.00,-2.00,-17.00,-22.00,+7.00,-7.00,-14.00
-5.00,+20.00,-13.00,-3.00,-6.00,-10.00,+39.00,+6.00,-24.00,-1.00,+4.00,+47.00,+11.00,-11.00,-8.00,+11.00
-17.00,+10.00,-1.00,-3.00,-28.00,+14.00,-4.00,-10.00,-48.00,-42.00,-13.00,-59.00,-44.00,-8.00,-4.00,-20.00
+58.00,+54.00,+21.00,+3.00,+7.00,+41.00,+9.00,+15.00,+22.00,+11.00,-6.00,+29.00,-17.00,-29.00,+7.00,+0.00
-25.00,+38.00,+4.00,+9.00,+60.00,-12.00,+4.00,-7.00,-55.00,+11.00,+9.00,+14.00,-6.00,+35.00,-2.00,+8.00
-7.00,+119.00,-1.00,-4.00,-41.00,-14.00,+1.00,-12.00,+55.00,-9.00,-3.00,-39.00,+15.00,-50.00,+9.00,+17.00
+6.00,-74.00,-5.00,+1.00,+36.00,+13.00,+14.00,+9.00,-33.00,-3.00,+0.00,+2.00,+72.00,+78.00,-32.00,-5.00
-26.00,-95.00,+2.00,-4.00,-21.00,-13.00,-15.00,-7.00,-31.00,-4.00,-1.00,-6.00,-92.00,-55.00,-3.00,-10.00
+27.00,+14.00,-9.00,-8.00,-15.00,+25.00,-44.00,-5.00,-74.00,-20.00,-2.00,-4.00,+17.00,+4.00,+1.00,-6.00
-5.00,-32.00,+3.00,+3.00,+10.00,+19.00,+70.00,+13.00,+77.00,-22.00,+1.00,+42.00,+32.00,+20.00,-3.00,+15.00
+6.00,+45.00,+0.00,-4.00,-3.00,-18.00,-17.00,-13.00,-2.00,+64.00,+3.00,-34.00,-64.00,-45.00,+11.00,-12.00
-4.00,+25.00,-10.00,-2.00,-37.00,-9.00,-1.00,-31.00,-11.00,-17.00,-5.00,+15.00,+96.00,+46.00,-2.00,-7.00
+4.00,-39.00,+0.00,-2.00,-5.00,-10.00,+1.00,+8.00,-19.00,-10.00,-4.00,-4.00,-34.00,-53.00,-4.00,-3.00
-34.00,-82.00,+1.00,-4.00,-22.00,-7.00,+9.00,-14.00,-54.00,-5.00,+0.00,-17.00,-51.00,+39.00,-2.00,-16.00
+0.00,+98.00,+5.00,+4.00,-17.00,-26.00,-34.00,+13.00,+20.00,-29.00,-3.00,+11.00,-63.00,-32.00,-30.00,-1.00
-20.00,-128.00,-10.00,-4.00,+1.00,+4.00,-6.00,-6.00,+59.00,-4.00,-2.00,+7.00,-14.00,-17.00,+9.00,-5.00
+5.00,+98.00,+5.00,-1.00,-34.00,-66.00,+18.00,+2.00,-62.00,-10.00,-2.00,+4.00,+12.00,-24.00,+10.00,-7.00
+3.00,-8.00,+0.00,+5.00,+51.00,+27.00,+15.00,+7.00,-20.00,+3.00,-4.00,+6.00,+29.00,+63.00,-32.00,-17.00
+5.00,+8.00,-4.00,-7.00,-22.00,-3.00,-6.00,-6.00,+31.00,-24.00,-8.00,-19.00,-12.00,-36.00,-18.00,+1.00
+12.00,-57.00,-9.00,+4.00,+20.00,+11.00,-26.00,+7.00,-80.00,-22.00,+3.00,-6.00,-17.00,-33.00,+1.00,+8.00
+51.00,+59.00,+19.00,+3.00,-6.00,+13.00,+17.00,+21.00,-36.00,-33.00,-9.00,-13.00,+82.00,+60.00,+12.00,+4.00
-52.00,-68.00,-20.00,-4.00,-15.00,-16.00,-24.00,-6.00,+80.00,+19.00,-1.00,-1.00,-53.00,-56.00,-6.00,+3.00
-10.00,+63.00,+8.00,-1.00,-16.00,-4.00,+3.00,-4.00,-20.00,+5.00,+2.00,+3.00,+123.00,+16.00,-9.00,-2.00
-12.00,+53.00,-4.00,-5.00,-16.00,-8.00,-1.00,+7.00,+21.00,+8.00,+1.00,-25.00,-53.00,-28.00,-5.00,+9.00
-7.00,-63.00,-14.00,-3.00,+12.00,+27.00,-38.00,-10.00,+12.00,+5.00,+0.00,+21.00,+39.00,+32.00,-6.00,-18.00
+25.00,+0.00,+6.00,-1.00,+9.00,+21.00,+39.00,+3.00,-45.00,-27.00,-10.00,+4.00,+32.00,-4.00,-6.00,-2.00
-9.00,-33.00,+0.00,-3.00,-31.00,-48.00,+18.00,+7.00,+45.00,+9.00,-1.00,-4.00,-38.00,-41.00,-16.00,-5.00
+1.00,+27.00,-4.00,+10.00,+55.00,+10.00,+3.00,-5.00,-37.00,-12.00,-4.00,-14.00,-16.00,+50.00,-1.00,+16.00
-49.00,-44.00,+4.00,+2.00,+38.00,+29.00,+17.00,-12.00,-48.00,+8.00,+0.00,+16.00,+22.00,-66.00,+0.00,-10.00
+32.00,+63.00,+3.00,-4.00,-13.00,+2.00,-23.00,+3.00,+59.00,+25.00,+5.00,+11.00,+26.00,+47.00,+21.00,+30.00
+15.00,-1.00,-4.00,+1.00,-21.00,-13.00,-63.00,-10.00,-25.00,-21.00,+0.00,-24.00,-122.00,-32.00,-18.00,-4.00
-11.00,-6.00,+0.00,-1.00,-35.00,+30.00,+23.00,+10.00,+12.00,+15.00,+2.00,+43.00,-23.00,+1.00,-25.00,-8.00
+3.00,-10.00,+1.00,+3.00,-7.00,-19.00,-3.00,+11.00,+26.00,+2.00,+7.00,-20.00,-28.00,+1.00,+22.00,+13.00
-23.00,-27.00,-4.00,-7.00,-22.00,-65.00,-14.00,-10.00,-47.00,-34.00,-6.00,+1.00,+66.00,-38.00,+71.00,-12.00
+8.00,-17.00,+1.00,+4.00,+66.00,+66.00,-35.00,-16.00,-9.00,-3.00,+0.00,+5.00,-62.00,+15.00,-12.00,+1.00
-17.00,-4.00,-3.00,+0.00,+17.00,-46.00,-8.00,+2.00,+1.00,+27.00,+6.00,-30.00,+4.00,-12.00,+12.00,+5.00
-26.00,+45.00,-6.00,-4.00,+2.00,-7.00,+8.00,-14.00,+54.00,-21.00,-13.00,-32.00,+21.00,+30.00,-28.00,+2.00
-1.00,-28.00,+0.00,+3.00,-13.00,-10.00,-6.00,+6.00,+15.00,+0.00,+3.00,-1.00,+30.00,+100.00,-50.00,-11.00
-33.00,-61.00,-1.00,-2.00,-12.00,-1.00,-4.00,-1.00,-15.00,-9.00,+0.00,+25.00,+89.00,-67.00,+29.00,+4.00
+37.00,+33.00,+5.00,-3.00,-49.00,+17.00,-3.00,+8.00,-29.00,+23.00,+2.00,-13.00,-52.00,+40.00,-37.00,-2.00
-1.00,-128.00,-22.00,-7.00,+21.00,+17.00,+27.00,-6.00,+53.00,+8.00,+0.00,-1.00,-93.00,-17.00,+39.00,-7.00
+10.00,+3.00,+15.00,+2.00,-32.00,+25.00,-17.00,-5.00,-8.00,-1.00,-2.00,-3.00,+42.00,-9.00,+7.00,-3.00
-25.00,+81.00,-1.00,-4.00,-2.00,-17.00,+14.00,-19.00,-74.00,-41.00,-4.00,+15.00,-23.00,-5.00,+37.00,-9.00
+3.00,-57.00,+2.00,+0.00,+2.00,-7.00,-59.00,+8.00,+14.00,-2.00,-10.00,+5.00,+39.00,-22.00,-34.00,-11.00
+15.00,-25.00,+0.00,+5.00,-28.00,-44.00,+52.00,+14.00,-13.00,-5.00,+1.00,+12.00,+11.00,-2.00,-6.00,+5.00
+4.00,-35.00,-15.00,-7.00,+12.00,-6.00,+53.00,-4.00,+10.00,+12.00,+1.00,-34.00,+4.00,-14.00,-21.00,-6.00
+69.00,+51.00,+15.00,+12.00,+48.00,+25.00,+49.00,+46.00,+5.00,-1.00,-5.00,-15.00,-33.00,+19.00,-15.00,+16.00
-29.00,-53.00,-2.00,-10.00,-72.00,-22.00,+33.00,-12.00,+39.00,-5.00,+1.00,+28.00,+22.00,+25.00,-24.00,-3.00
+13.00,+75.00,+8.00,+1.00,+1.00,-2.00,-45.00,-11.00,-47.00,-8.00,+2.00,-22.00,+41.00,-17.00,-9.00,-7.00
-37.00,-7.00,-6.00,+1.00,+80.00,-18.00,-8.00,-8.00,+58.00,+49.00,+3.00,+10.00,+23.00,+9.00,-28.00,-1.00
+32.00,+71.00,+8.00,-2.00,-61.00,+32.00,+14.00,+2.00,-82.00,-50.00,+0.00,+10.00,+7.00,+7.00,+16.00,-5.00
+1.00,-63.00,-6.00,+0.00,+85.00,-27.00,+26.00,-2.00,-32.00,+19.00,+2.00,+31.00,+6.00,-5.00,+20.00,+4.00
+8.00,-10.00,+2.00,+1.00,+13.00,+7.00,+0.00,+4.00,+51.00,+5.00,+0.00,-32.00,-24.00,-7.00,-15.00,+25.00
+16.00,+20.00,-2.00,-2.00,+18.00,+64.00,+9.00,-8.00,+18.00,+3.00,-1.00,+6.00,-18.00,-7.00,-20.00,+2.00
-7.00,-73.00,-6.00,-1.00,+7.00,-68.00,-7.00,+5.00,-23.00,-4.00,-8.00,-12.00,+9.00,+17.00,-3.00,-12.00
-12.00,+40.00,-2.00,+0.00,-35.00,-44.00,-61.00,-13.00,+15.00,-2.00,-4.00,+42.00,-29.00,-29.00,+17.00,+7.00
+1.00,+13.00,+1.00,-2.00,-13.00,+26.00,+55.00,+7.00,-2.00,-11.00,+0.00,-26.00,+12.00,+1.00,+31.00,-4.00
-7.00,+9.00,-5.00,+6.00,-29.00,-43.00,-31.00,+14.00,-17.00,+4.00,+0.00,-2.00,+37.00,+22.00,+1.00,-7.00
-32.00,-34.00,-4.00,-4.00,+16.00,+76.00,+1.00,-13.00,-11.00,+16.00,+3.00,-12.00,+47.00,-49.00,+17.00,-3.00
+13.00,+19.00,+6.00,+1.00,-27.00,-26.00,+39.00,+12.00,+77.00,-10.00,-1.00,-9.00,+46.00,+70.00,-26.00,+2.00
+3.00,-64.00,+2.00,-3.00,+1.00,+15.00,-4.00,-2.00,-26.00,-3.00,-2.00,+28.00,+33.00,-22.00,-29.00,+4.00
+13.00,+5.00,+0.00,+1.00,+4.00,+4.00,-17.00,+0.00,-24.00,-14.00,-4.00,-26.00,+9.00,-35.00,+41.00,+9.00
-6.00,+29.00,-8.00,-2.00,-24.00,-8.00,+5.00,-9.00,+56.00,+5.00,-1.00,+6.00,-12.00,-9.00,+20.00,+0.00
-24.00,-34.00,-3.00,+0.00,+11.00,+33.00,-2.00,-4.00,-26.00,+1.00,+7.00,-11.00,+85.00,+33.00,+10.00,-6.00
-6.00,-23.00,-3.00,-3.00,-40.00,+11.00,-32.00,-6.00,+46.00,+23.00,+3.00,-2.00,-18.00,-27.00,-66.00,-4.00
+23.00,+4.00,+5.00,+2.00,-11.00,+17.00,+19.00,-1.00,-45.00,+6.00,+3.00,+36.00,-82.00,+13.00,+43.00,+5.00
-24.00,-90.00,-12.00,-9.00,-8.00,-6.00,+3.00,-7.00,-17.00,+1.00,-1.00,-42.00,-31.00,+0.00,+0.00,+0.00
+7.00,+62.00,+3.00,+1.00,+27.00,+42.00,-78.00,-1.00,+4.00,-5.00,-2.00,+11.00,-108.00,-17.00,+14.00,+4.00
+15.00,+8.00,-2.00,+0.00,-17.00,-24.00,+9.00,-5.00,+17.00,-3.00,-1.00,+3.00,-49.00,+2.00,-11.00,-14.00
-27.00,+22.00,-9.00,-7.00,-7.00,-6.00,-9.00,-2.00,-48.00,+7.00,+6.00,-10.00,+19.00,+21.00,-1.00,-14.00
+15.00,+2.00,+4.00,-2.00,+5.00,-24.00,-18.00,-5.00,+3.00,+5.00,-5.00,-18.00,-61.00,+13.00,-21.00,-12.00
+10.00,+43.00,+0.00,+1.00,-11.00,-19.00,-28.00,-6.00,-2.00,-8.00,-3.00,-22.00,-42.00,+21.00,+13.00,-7.00
+3.00,-70.00,+5.00,+0.00,+0.00,+14.00,+17.00,+6.00,-1.00,+4.00,-2.00,+50.00,+41.00,-6.00,+15.00,-2.00
-31.00,+23.00,-4.00,+3.00,+37.00,-10.00,+1.00,-8.00,+33.00,-5.00,-4.00,-29.00,+52.00,-43.00,-7.00,+8.00
+34.00,-14.00,-1.00,-7.00,-9.00,+7.00,-32.00,-11.00,+25.00,-7.00,-2.00,+49.00,-39.00,+30.00,+5.00,+3.00
+68.00,+27.00,+3.00,+8.00,+84.00,+41.00,+12.00,+8.00,+41.00,+51.00,+3.00,-78.00,+44.00,-13.00,-2.00,+3.00
-1.00,+9.00,-5.00,-9.00,-49.00,-84.00,-27.00,-6.00,-13.00,-18.00,-3.00,+28.00,-18.00,-26.00,-16.00,-4.00
+3.00,-18.00,+3.00,+3.00,+37.00,-16.00,+18.00,+7.00,-26.00,-19.00,-4.00,-16.00,-35.00,-7.00,+8.00,-2.00
-37.00,+10.00,-6.00,-3.00,-18.00,-12.00,+31.00,-9.00,-50.00,+13.00,+4.00,-5.00,+52.00,+53.00,-28.00,-9.00
-14.00,-16.00,+2.00,+7.00,+56.00,+31.00,-1.00,+5.00,+7.00,-12.00,-7.00,-17.00,-53.00,-31.00,+20.00,+2.00
-12.00,+36.00,+0.00,+2.00,+28.00,+50.00,+13.00,+2.00,+23.00,-5.00,-8.00,+18.00,+71.00,-26.00,+3.00,+1.00
-15.00,+39.00,+6.00,+1.00,+22.00,+6.00,-18.00,+11.00,+32.00,+9.00,-1.00,+27.00,-26.00,-1.00,-19.00,+5.00
+23.00,-46.00,-3.00,+1.00,-66.00,+34.00,+76.00,+10.00,-33.00,-4.00,-4.00,-49.00,+12.00,-19.00,+2.00,+0.00
-9.00,+41.00,-3.00,-8.00,-36.00,-52.00,+34.00,-24.00,-24.00,-6.00,+3.00,+49.00,+126.00,+12.00,-7.00,+4.00
-31.00,-40.00,-10.00,-8.00,+70.00,+1.00,-20.00,+0.00,+5.00,+2.00,+2.00,-15.00,+71.00,+66.00,+31.00,+4.00
+69.00,+109.00,+5.00,+1.00,-20.00,+34.00,-21.00,+17.00,-10.00,+1.00,+0.00,-22.00,-114.00,-13.00,+14.00,-1.00
-29.00,-11.00,-11.00,-8.00,-22.00,+15.00,-22.00,-8.00,+0.00,-2.00,-2.00,-1.00,+33.00,+4.00,-2.00,-19.00
+25.00,-13.00,+8.00,-2.00,-16.00,+6.00,+25.00,+1.00,+6.00,+0.00,-3.00,+3.00,-66.00,-35.00,+36.00,+6.00
-4.00,-4.00,-3.00,+2.00,+13.00,+2.00,+4.00,-1.00,-13.00,-9.00,+0.00,+23.00,-92.00,+25.00,-39.00,+0.00
-21.00,-49.00,-6.00,-12.00,-68.00,+2.00,-20.00,-21.00,-6.00,+7.00,+3.00,+25.00,+49.00,+20.00,-11.00,-17.00
-28.00,-50.00,+6.00,+15.00,+23.00,-23.00,-12.00,-1.00,-14.00,+3.00,+8.00,-31.00,-25.00,+19.00,+25.00,+8.00
-21.00,+5.00,-1.00,+1.00,+58.00,+25.00,+39.00,+10.00,-8.00,-12.00,-6.00,+5.00,-31.00,+1.00,-5.00,-18.00
-24.00,+29.00,-1.00,-13.00,-82.00,-48.00,-27.00,-7.00,+44.00,+10.00,-3.00,-53.00,-117.00,-19.00,+20.00,+11.00
+8.00,-31.00,-2.00,+5.00,+77.00,+65.00,-9.00,-2.00,-36.00,+2.00,+4.00,+37.00,-83.00,+38.00,-5.00,+6.00
+0.00,+24.00,+4.00,+10.00,+71.00,-6.00,+6.00,-2.00,+49.00,+4.00,+1.00,+31.00,+115.00,-5.00,-27.00,+10.00
-12.00,-17.00,-4.00,+1.00,-2.00,+31.00,+73.00,+4.00,-50.00,-7.00,-4.00,-15.00,+11.00,-22.00,-3.00,+3.00
-1.00,-13.00,+1.00,+6.00,+38.00,+18.00,+20.00,+14.00,-97.00,-20.00,-5.00,-75.00,+16.00,-2.00,+24.00,-12.00
+11.00,+17.00,+3.00,-3.00,-53.00,-5.00,-15.00,+3.00,+69.00,+9.00,+2.00,+43.00,+18.00,+17.00,+3.00,+3.00
-7.00,+3.00,-1.00,-10.00,-81.00,-10.00,+30.00,+17.00,+7.00,-3.00,-8.00,+49.00,+16.00,-41.00,-32.00,-9.00
-25.00,-17.00,-7.00,-13.00,-9.00,-3.00,-61.00,-10.00,-2.00,-3.00,+2.00,-39.00,-54.00,+28.00,+12.00,+12.00
+10.00,+8.00,-4.00,+8.00,+32.00,+2.00,-16.00,+1.00,+6.00,+4.00,-10.00,-23.00,+106.00,-15.00,+30.00,+1.00
-24.00,-6.00,+0.00,+4.00,-24.00,+20.00,+17.00,-6.00,-27.00,-7.00,-4.00,+9.00,+3.00,-29.00,+4.00,+1.00
+2.00,+2.00,-4.00,-9.00,-72.00,-33.00,-24.00,-6.00,+61.00,+9.00,+4.00,+5.00,-54.00,-12.00,+10.00,+2.00
-34.00,-76.00,-3.00,+0.00,+36.00,-2.00,-3.00,+2.00,-21.00,-4.00,-1.00,+71.00,+83.00,+8.00,-45.00,-10.00
+32.00,+99.00,+11.00,+5.00,-25.00,-30.00,+1.00,+5.00,+9.00,+12.00,+4.00,-15.00,+15.00,-25.00,-9.00,-14.00
-4.00,-21.00,-2.00,+5.00,+15.00,-3.00,+17.00,+4.00,-6.00,-1.00,+0.00,-19.00,-47.00,-18.00,-15.00,-10.00
+10.00,-49.00,-2.00,-18.00,-89.00,-28.00,-13.00,-2.00,-4.00,+0.00,-1.00,-20.00,+93.00,+23.00,+33.00,-1.00
-4.00,+16.00,+1.00,+13.00,+48.00,-67.00,-11.00,-8.00,+22.00,-4.00,+6.00,+81.00,+85.00,+15.00,-15.00,+5.00
+17.00,-56.00,+2.00,+3.00,+14.00,+45.00,+7.00,+5.00,-8.00,-17.00,-13.00,-72.00,+57.00,-7.00,+1.00,+5.00
-25.00,-39.00,-4.00,+1.00,+21.00,-8.00,-2.00,-16.00,-7.00,-17.00,-7.00,+51.00,-73.00,-36.00,+3.00,-4.00
+29.00,+31.00,+1.00,+3.00,+19.00,+33.00,+36.00,+5.00,-14.00,+4.00,-2.00,-94.00,-49.00,+32.00,+6.00,-8.00
+14.00,+30.00,+4.00,-5.00,-55.00,-5.00,-4.00,+5.00,-6.00,+5.00,+0.00,-16.00,+56.00,-3.00,+7.00,+4.00
+2.00,-1.00,-3.00,-12.00,-16.00,+2.00,-6.00,-2.00,+23.00,+8.00,+4.00,+65.00,+65.00,-34.00,-3.00,-5.00
-17.00,+2.00,-2.00,+8.00,+11.00,-57.00,+5.00,-27.00,-25.00,-21.00,-11.00,+22.00,-9.00,+35.00,+17.00,-14.00
+8.00,-6.00,+2.00,+8.00,+40.00,+22.00,-17.00,+8.00,-44.00,+1.00,+3.00,-16.00,+10.00,-10.00,-35.00,+6.00
+21.00,+7.00,-3.00,-5.00,-57.00,-4.00,-3.00,+27.00,+16.00,-4.00,-4.00,-25.00,-109.00,-3.00,+21.00,-8.00
+19.00,-30.00,-3.00,-8.00,-31.00,-6.00,+5.00,-7.00,-8.00,-8.00,+2.00,+5.00,+13.00,-23.00,+3.00,-9.00
+25.00,+52.00,+3.00,+0.00,-23.00,-42.00,-33.00,-6.00,-2.00,+2.00,+5.00,-79.00,-63.00,+5.00,-40.00,+5.00
-8.00,+10.00,+2.00,-1.00,+57.00,-49.00,-51.00,-12.00,+4.00,+8.00,-1.00,+75.00,+37.00,-8.00,-3.00,-3.00
-4.00,-3.00,-5.00,+2.00,+51.00,+92.00,+18.00,-17.00,+12.00,-6.00,-19.00,-128.00,+29.00,-12.00,+39.00,-7.00
+6.00,+12.00,+1.00,-5.00,-39.00,-48.00,-6.00,+4.00,-1.00,-3.00,+0.00,+30.00,-53.00,+42.00,+26.00,+14.00
-1.00,+6.00,-5.00,-7.00,+22.00,-1.00,+53.00,+8.00,+17.00,+14.00,-3.00,-51.00,+111.00,-40.00,+6.00,+2.00
-31.00,-69.00,-9.00,+11.00,+83.00,+32.00,+10.00,-7.00,-25.00,-5.00,-2.00,-48.00,-56.00,+13.00,+15.00,-2.00
+12.00,+28.00,+27.00,+4.00,-63.00,-62.00,-30.00,+8.00,+0.00,+4.00,+15.00,+30.00,+89.00,+43.00,+13.00,+4.00
-25.00,-24.00,-1.00,-4.00,-41.00,+9.00,-18.00,-12.00,-31.00,-5.00,+3.00,+76.00,-116.00,-48.00,+16.00,-8.00
+22.00,-6.00,+14.00,+1.00,-19.00,+3.00,-13.00,+10.00,+14.00,-5.00,-13.00,-79.00,-69.00,+0.00,-31.00,-5.00
-21.00,-2.00,-16.00,-21.00,-76.00,+18.00,+6.00,-9.00,+48.00,+21.00,+5.00,+118.00,-31.00,-17.00,-1.00,+18.00
-31.00,-49.00,-23.00,-15.00,-20.00,-16.00,-2.00,-5.00,-35.00,-11.00,-5.00,-70.00,-76.00,+18.00,-36.00,-15.00
+18.00,-8.00,+0.00,+27.00,+98.00,-35.00,-14.00,+1.00,+45.00,-4.00,+3.00,+14.00,-70.00,-33.00,+6.00,+6.00
-6.00,-10.00,-3.00,-2.00,-12.00,-16.00,-66.00,+1.00,-10.00,+2.00,-2.00,+40.00,+59.00,+2.00,-6.00,+1.00
+3.00,+15.00,+5.00,+0.00,+42.00,-10.00,+10.00,+5.00,+12.00,-6.00,-8.00,-47.00,-107.00,-24.00,-67.00,+5.00
+6.00,-12.00,-5.00,-6.00,-85.00,+16.00,-5.00,-10.00,-10.00,+4.00,-6.00,-24.00,-31.00,-36.00,+49.00,-6.00
-11.00,+23.00,+7.00,+0.00,-16.00,+57.00,+31.00,+1.00,-16.00,-8.00,-3.00,+29.00,-88.00,+30.00,-49.00,-4.00
-16.00,-16.00,-10.00,-20.00,-93.00,-62.00,+18.00,-12.00,-5.00,-2.00,+4.00,+17.00,+58.00,-37.00,+51.00,-3.00
+19.00,+22.00,+8.00,+24.00,+118.00,+2.00,+13.00,+14.00,+28.00,-5.00,+2.00,-72.00,+48.00,+56.00,+103.00,-9.00
+7.00,+30.00,+6.00,-1.00,-56.00,+52.00,+74.00,+6.00,-37.00,+3.00,+7.00,+120.00,-12.00,+11.00,-97.00,-18.00
-26.00,+8.00,-2.00,+9.00,+9.00,+8.00,+18.00,-3.00,+40.00,-9.00,-6.00,-128.00,+66.00,+9.00,+20.00,+2.00
+36.00,-18.00,-5.00,-10.00,-63.00,+82.00,-10.00,+11.00,-26.00,-2.00,-3.00,+40.00,+12.00,+9.00,+3.00,-7.00
-25.00,-9.00,-8.00,-15.00,-77.00,-73.00,-13.00,-17.00,+70.00,+10.00,+6.00,+73.00,+37.00,-1.00,-32.00,+9.00
+28.00,+36.00,+5.00,+6.00,+95.00,-17.00,+18.00,+13.00,-18.00,+0.00,+4.00,+47.00,-58.00,-6.00,-33.00,+5.00
-14.00,-2.00,-2.00,+11.00,+96.00,+18.00,+12.00,-14.00,-13.00,-5.00,+3.00,+56.00,+5.00,+18.00,-5.00,+8.00
-18.00,-13.00,-2.00,-6.00,-24.00,+8.00,+9.00,-8.00,-24.00,-6.00,+2.00,+43.00,+11.00,-22.00,-49.00,-4.00
+33.00,-13.00,+8.00,+0.00,+37.00,-52.00,-42.00,+5.00,-28.00,-8.00,-7.00,+85.00,+121.00,+10.00,-16.00,-2.00
-28.00,-29.00,-5.00,-2.00,-29.00,+8.00,-44.00,-17.00,+27.00,-18.00,-17.00,-25.00,+29.00,+18.00,+111.00,+16.00
-10.00,-5.00,-9.00,-17.00,-90.00,-38.00,-60.00,-12.00,-11.00,+6.00,-1.00,-64.00,-50.00,+96.00,-90.00,-18.00
+27.00,-6.00,+6.00,+18.00,+42.00,-5.00,+25.00,+4.00,+20.00,+8.00,+12.00,+28.00,+69.00,-84.00,+5.00,+21.00
+13.00,+46.00,+0.00,+1.00,+12.00,+70.00,+22.00,+17.00,-22.00,-14.00,-11.00,+53.00,-20.00,+51.00,+6.00,-6.00
-30.00,-51.00,-11.00,-14.00,-65.00,-72.00,-5.00,-7.00,+5.00,+1.00,-2.00,-100.00,+10.00,+5.00,-50.00,+6.00
+22.00,-7.00,+4.00,+2.00,+53.00,+36.00,-8.00,+10.00,-4.00,+10.00,+4.00,+88.00,+118.00,+55.00,+117.00,+5.00
+3.00,+42.00,+7.00,+6.00,+44.00,-17.00,-34.00,-1.00,+11.00,+1.00,-4.00,-121.00,-7.00,-49.00,-84.00,-11.00
+15.00,-16.00,-3.00,-20.00,-121.00,-26.00,+21.00,-5.00,-28.00,-3.00,+9.00,+26.00,-8.00,-45.00,+83.00,+12.00
-6.00,+21.00,-6.00,-9.00,+47.00,+16.00,+2.00,-6.00,+7.00,+1.00,-4.00,+2.00,-41.00,-41.00,-61.00,-2.00
-19.00,-25.00,+3.00,+28.00,+82.00,-1.00,-31.00,+12.00,+23.00,+10.00,+8.00,+113.00,+40.00,-18.00,-23.00,+0.00
-4.00,-13.00,-2.00,-4.00,-21.00,+33.00,+38.00,-3.00,+0.00,-9.00,-7.00,-111.00,-22.00,-11.00,+65.00,-6.00
+4.00,+30.00,+6.00,-1.00,-86.00,+35.00,+81.00,+15.00,+16.00,+18.00,+7.00,+20.00,+8.00,+62.00,-18.00,-13.00
-1.00,-14.00,-3.00,+7.00,+39.00,+21.00,+13.00,+7.00,+19.00,+1.00,-2.00,-2.00,+49.00,-49.00,-49.00,-11.00
-35.00,-13.00,+1.00,-10.00,-72.00,+23.00,+72.00,+0.00,-2.00,-6.00,+0.00,-2.00,-114.00,+0.00,-18.00,+11.00
-30.00,-18.00,-4.00,-11.00,-60.00,-70.00,-65.00,-10.00,+2.00,+17.00,-3.00,+122.00,-54.00,+56.00,-36.00,-4.00
+24.00,+10.00,+1.00,+23.00,+121.00,+46.00,+14.00,+6.00,+30.00,-25.00,-10.00,-128.00,+63.00,-48.00,+15.00,+3.00
+2.00,+6.00,-10.00,-33.00,-105.00,-9.00,-77.00,-21.00,-29.00,-1.00,+12.00,+127.00,+55.00,-26.00,+121.00,+7.00
-17.00,+5.00,-7.00,+11.00,+40.00,-42.00,-84.00,+5.00,-9.00,-9.00,-3.00,-48.00,-61.00,-39.00,+37.00,-9.00
-4.00,+1.00,+0.00,-9.00,-84.00,-34.00,-8.00,+7.00,+39.00,+4.00,-4.00,+28.00,+8.00,-12.00,-54.00,+3.00
+8.00,+3.00,+3.00,+16.00,+80.00,+28.00,-80.00,-5.00,-12.00,-20.00,-17.00,-17.00,-14.00,-35.00,-12.00,-1.00
-5.00,-10.00,-6.00,-13.00,-118.00,-28.00,-83.00,-17.00,+37.00,+29.00,+15.00,-25.00,+107.00,-15.00,-37.00,+14.00
+25.00,+18.00,+0.00,+0.00,+47.00,-53.00,+27.00,+1.00,-4.00,+6.00,-2.00,+112.00,+99.00,+59.00,-65.00,+6.00
+10.00,-41.00,-8.00,+3.00,+13.00,-58.00,-60.00,-4.00,-12.00,-5.00,+5.00,+108.00,-27.00,+13.00,+55.00,-6.00
-25.00,-19.00,-9.00,-13.00,-70.00,-7.00,-27.00,-1.00,-13.00,-16.00,-15.00,-7.00,-128.00,+19.00,-91.00,-14.00
+70.00,+85.00,+23.00,+40.00,+127.00,+33.00,+54.00,+16.00,-8.00,-14.00,-13.00,-92.00,-35.00,-20.00,-58.00,-10.00
+5.00,+27.00,+5.00,-13.00,-102.00,+49.00,-50.00,-5.00,-4.00,+0.00,-6.00,+68.00,-7.00,-67.00,-10.00,-7.00
-6.00,-14.00,-7.00,-7.00,-54.00,-29.00,-29.00,+2.00,-17.00,+0.00,+8.00,+51.00,+62.00,+28.00,-41.00,-6.00
-42.00,-42.00,-11.00,+3.00,+60.00,+49.00,-20.00,-8.00,-19.00,-11.00,-11.00,-55.00,+50.00,-57.00,+0.00,-2.00
-3.00,-16.00,-3.00,+10.00,-33.00,-8.00,+118.00,-9.00,-4.00,-13.00,-5.00,-37.00,-34.00,+52.00,+59.00,+12.00
-20.00,+3.00,+4.00,-5.00,-128.00,+17.00,+12.00,+1.00,-18.00,+4.00,+3.00,-6.00,+83.00,-55.00,+13.00,-5.00
-31.00,-3.00,-3.00,-10.00,+25.00,-6.00,+39.00,+0.00,+6.00,-11.00,-7.00,-108.00,+9.00,-42.00,+70.00,+21.00
+1.00,-5.00,-1.00,-15.00,-22.00,-8.00,-25.00,-17.00,-4.00,-12.00,-2.00,-64.00,-97.00,-121.00,+24.00,+8.00
-3.00,-17.00,-2.00,+17.00,+72.00,-23.00,-8.00,+11.00,-36.00,-9.00,-6.00,-9.00,+96.00,+81.00,+16.00,-13.00
+24.00,+13.00,+6.00,+10.00,+108.00,+25.00,+37.00,-2.00,+57.00,+16.00,+4.00,+7.00,-89.00,+53.00,+22.00,+21.00
-17.00,-3.00,+0.00,-2.00,-57.00,-8.00,-68.00,-8.00,-19.00,-10.00,+3.00,+94.00,+46.00,+0.00,+62.00,-6.00
+15.00,+9.00,+6.00,+1.00,+52.00,+66.00,-9.00,+0.00,-10.00,+4.00,+6.00,+7.00,+2.00,+9.00,-93.00,+7.00
-14.00,-4.00,+8.00,+26.00,+118.00,+11.00,-49.00,+8.00,+15.00,+1.00,-13.00,+45.00,-76.00,-66.00,-59.00,-11.00
+10.00,+8.00,-8.00,-16.00,-31.00,+42.00,+45.00,-8.00,-42.00,-19.00,-5.00,-97.00,-25.00,-23.00,+22.00,-16.00
-23.00,+0.00,-1.00,-5.00,-26.00,+28.00,+111.00,-29.00,+31.00,+0.00,-4.00,-78.00,-93.00,+39.00,-73.00,+5.00
+12.00,+26.00,+15.00,+28.00,-1.00,-31.00,+0.00,-7.00,+42.00,+17.00,+7.00,+104.00,+87.00,+35.00,+36.00,+5.00
+24.00,+8.00,+1.00,+3.00,+10.00,+28.00,-21.00,+9.00,-36.00,-15.00,+3.00,+119.00,-101.00,+49.00,-18.00,-12.00
-28.00,-11.00,-13.00,-10.00,-72.00,-47.00,+49.00,-19.00,+13.00,+4.00,-20.00,-109.00,+5.00,-40.00,-36.00,-5.00
+25.00,-7.00,+4.00,+6.00,+101.00,+18.00,-6.00,+17.00,-43.00,+12.00,+8.00,+57.00,+54.00,-37.00,+12.00,-8.00
-27.00,-13.00,-9.00,-40.00,-127.00,-70.00,-5.00,-6.00,+0.00,+1.00,-2.00,-107.00,+1.00,+11.00,+77.00,+9.00
-50.00,-30.00,-15.00,-11.00,-19.00,-24.00,+35.00,-9.00,-7.00,+0.00,+5.00,+81.00,+66.00,-119.00,-31.00,-4.00
+4.00,-21.00,+2.00,+11.00,+6.00,-75.00,-74.00,-4.00,+6.00,+3.00,+0.00,-68.00,+13.00,+82.00,-84.00,-9.00
+7.00,+63.00,+4.00,+24.00,+93.00,+109.00,+8.00,+7.00,-12.00,+2.00,+7.00,-3.00,+51.00,+45.00,+101.00,+11.00
+12.00,+5.00,-6.00,-9.00,-121.00,-83.00,-73.00,-6.00,+23.00,+13.00,+12.00,+89.00,+41.00,+60.00,-16.00,-6.00
-18.00,-12.00,-11.00,-26.00,-110.00,-43.00,+42.00,-8.00,+16.00,-7.00,+1.00,-56.00,-14.00,+19.00,+127.00,+18.00
+15.00,+4.00,-8.00,-21.00,-17.00,-49.00,+25.00,+13.00,-9.00,-5.00,-12.00,-94.00,+38.00,+41.00,+20.00,-5.00
+4.00,-10.00,+7.00,+33.00,+127.00,-20.00,+30.00,+16.00,-9.00,-2.00,-5.00,+8.00,+10.00,+84.00,-27.00,-3.00
-4.00,+2.00,+5.00,+6.00,-8.00,-59.00,-100.00,+2.00,+17.00,+10.00,+20.00,+124.00,+23.00,+42.00,+42.00,+21.00
+15.00,+7.00,+11.00,+21.00,+9.00,-17.00,+105.00,+8.00,-24.00,-12.00,+3.00,-67.00,-54.00,+47.00,-56.00,-11.00
-13.00,-9.00,-1.00,+5.00,+17.00,+5.00,-68.00,-6.00,+42.00,+41.00,+18.00,+13.00,-41.00,+13.00,+39.00,+26.00
-39.00,-7.00,-4.00,-14.00,-111.00,-17.00,+51.00,+3.00,-27.00,-14.00,-9.00,-94.00,-99.00,-10.00,-87.00,-18.00
-15.00,+4.00,-4.00,-17.00,-56.00,+52.00,+9.00,-13.00,-34.00,+18.00,+9.00,+84.00,-6.00,+47.00,+28.00,+8.00
+10.00,-9.00,-2.00,+12.00,+64.00,-31.00,-24.00,+21.00,+4.00,+4.00,+3.00,+25.00,-126.00,-77.00,-26.00,-12.00
+14.00,+7.00,+2.00,-6.00,-83.00,+43.00,+10.00,+1.00,-22.00,-20.00,-16.00,-52.00,-12.00,+21.00,+14.00,+0.00
-10.00,-13.00,-5.00,+14.00,+101.00,+82.00,+41.00,-20.00,+17.00,+5.00,+5.00,+29.00,+3.00,-82.00,+23.00,-7.00
+16.00,+6.00,+3.00,+17.00,+80.00,+57.00,+94.00,+15.00,-48.00,-10.00,-6.00,+0.00,-128.00,+38.00,-29.00,-17.00
+8.00,-3.00,-4.00,-40.00,-83.00,+10.00,-49.00,-19.00,+15.00,+7.00,+2.00,+105.00,-14.00,+98.00,+79.00,-1.00
+15.00,-4.00,-3.00,-6.00,+17.00,+42.00,+0.00,-18.00,-30.00,-16.00,-17.00,+12.00,+18.00,-86.00,-120.00,-27.00
+11.00,-20.00,-5.00,-24.00,-15.00,+13.00,+0.00,+10.00,+48.00,+9.00,+3.00,+93.00,+44.00,-59.00,+12.00,-6.00
-12.00,-24.00,+0.00,+11.00,+43.00,-1.00,+97.00,+11.00,-18.00,-6.00,-7.00,-75.00,-67.00,-15.00,-43.00,-15.00
-11.00,+4.00,-5.00,-42.00,-127.00,+24.00,-100.00,-14.00,-9.00,-14.00,-15.00,-107.00,+108.00,+5.00,+12.00,-10.00
+5.00,+11.00,+6.00,+17.00,-12.00,-36.00,+79.00,+10.00,-19.00,-19.00,+6.00,+92.00,+35.00,+8.00,+44.00,-17.00
-6.00,-3.00,-2.00,-3.00,+39.00,-36.00,-43.00,+8.00,+0.00,+10.00,-9.00,-128.00,+29.00,+80.00,+58.00,+0.00
-18.00,+15.00,-2.00,+0.00,+35.00,+0.00,+4.00,-4.00,+26.00,+8.00,+6.00,+66.00,+59.00,-35.00,-60.00,+2.00
-23.00,+0.00,-1.00,+6.00,+47.00,+66.00,+24.00,-16.00,+11.00,+4.00,+2.00,+93.00,-32.00,+59.00,+77.00,+21.00
-36.00,-15.00,-11.00,-38.00,-128.00,-17.00,+31.00,+1.00,-34.00,-8.00,+8.00,-89.00,-14.00,-14.00,-81.00,-6.00
+30.00,-9.00,+2.00,+21.00,+32.00,+3.00,+5.00,+3.00,+2.00,-9.00,-6.00,+9.00,-50.00,+1.00,+26.00,-1.00
+27.00,+5.00,+0.00,-12.00,-72.00,-2.00,+107.00,+17.00,-8.00,-9.00,+6.00,+36.00,-10.00,-5.00,+82.00,+4.00
+89.00,+29.00,+12.00,+37.00,+100.00,-5.00,-80.00,+10.00,+23.00,+10.00,+8.00,+39.00,+43.00,+60.00,-20.00,+3.00
+11.00,+11.00,+4.00,+14.00,+102.00,+75.00,+54.00,+11.00,+64.00,+10.00,-5.00,-30.00,+45.00,+42.00,+2.00,+9.00
-10.00,-10.00,-9.00,-18.00,-79.00,+5.00,-38.00,-4.00,-46.00,-21.00,+2.00,+10.00,+46.00,+59.00,+74.00,+5.00
+13.00,+17.00,+14.00,+27.00,+13.00,-74.00,+50.00,+13.00,+40.00,+19.00,+6.00,+1.00,-54.00,-9.00,-67.00,+8.00
-9.00,-17.00,-1.00,+2.00,-14.00,+20.00,-28.00,+2.00,+3.00,+0.00,-3.00,+36.00,+74.00,-21.00,-110.00,-20.00
+15.00,-17.00,+2.00,-10.00,-105.00,-1.00,-105.00,-16.00,-14.00,-25.00,-16.00,-37.00,+20.00,-69.00,+72.00,+2.00
-29.00,-2.00,-5.00,-15.00,+78.00,+34.00,-57.00,-1.00,-17.00,+0.00,-3.00,-25.00,-122.00,+10.00,+20.00,+14.00
-16.00,+2.00,-13.00,-13.00,-32.00,+9.00,+41.00,-13.00,-14.00,-5.00,-4.00,-26.00,-9.00,+69.00,+31.00,+3.00
+0.00,-9.00,-7.00,-30.00,-127.00,-76.00,-86.00,-25.00,-31.00,+0.00,-1.00,-92.00,-6.00,+10.00,+8.00,+6.00
-5.00,-5.00,-7.00,-19.00,-16.00,+58.00,+67.00,+23.00,+42.00,+26.00,+23.00,+93.00,-27.00,+5.00,+43.00,+16.00
-16.00,+0.00,+4.00,+26.00,+40.00,+60.00,+37.00,-4.00,-4.00,-1.00,+1.00,-65.00,+8.00,+11.00,+33.00,-7.00
+13.00,+3.00,-5.00,-11.00,-86.00,+8.00,-10.00,+22.00,-3.00,-8.00,+3.00,-19.00,+43.00,-68.00,-64.00,+0.00
-27.00,-1.00,-7.00,-19.00,-60.00,+34.00,+127.00,-5.00,+21.00,+16.00,+10.00,+58.00,+14.00,-121.00,+8.00,+14.00
-19.00,-11.00,-14.00,-17.00,+1.00,+9.00,+15.00,-12.00,-27.00,+6.00,+8.00,+91.00,-32.00,+74.00,+70.00,-3.00
+33.00,+4.00,+11.00,+4.00,-50.00,-8.00,+15.00,-12.00,+53.00,-12.00,+1.00,+97.00,+80.00,+26.00,-81.00,+8.00
-7.00,-3.00,+2.00,+10.00,+70.00,+62.00,-51.00,+15.00,-5.00,-6.00,-11.00,-114.00,+75.00,-23.00,-14.00,-19.00
+8.00,+7.00,+5.00,+14.00,-18.00,+22.00,+27.00,+31.00,-14.00,-1.00,-7.00,-36.00,-5.00,+16.00,-1.00,-19.00
-13.00,-6.00,+2.00,+9.00,+45.00,-26.00,-7.00,+7.00,-48.00,-18.00,+9.00,+116.00,+68.00,-56.00,+37.00,+12.00
+40.00,+7.00,-10.00,-43.00,-128.00,-11.00,-6.00,+3.00,+68.00,+34.00,-2.00,+19.00,+71.00,+2.00,-104.00,+9.00
-22.00,-7.00,-3.00,-18.00,-69.00,+10.00,-32.00,-19.00,+23.00,-1.00,-2.00,+84.00,-128.00,+82.00,+22.00,-11.00
-6.00,-7.00,-6.00,-17.00,-30.00,-5.00,+27.00,+7.00,-34.00,-11.00,-3.00,+59.00,-101.00,-9.00,-103.00,-3.00
-43.00,-3.00,-4.00,-6.00,-107.00,-73.00,-34.00,-14.00,-34.00,-9.00,-13.00,-76.00,-101.00,+0.00,-10.00,-19.00
+26.00,+4.00,-1.00,+5.00,-76.00,+14.00,-97.00,-29.00,-11.00,-4.00,-1.00,+80.00,+9.00,+2.00,+77.00,+3.00
+41.00,+15.00,-2.00,-4.00,+17.00,-54.00,-89.00,-9.00,+2.00,-5.00,-11.00,-74.00,-33.00,+52.00,+11.00,-4.00
-21.00,-11.00,-6.00,-3.00,-5.00,-43.00,+9.00,-11.00,+30.00,+4.00,-5.00,-7.00,+81.00,+100.00,-94.00,-11.00
-16.00,-1.00,+0.00,+16.00,+92.00,+36.00,+31.00,+17.00,-1.00,+10.00,+3.00,-56.00,-128.00,+19.00,+16.00,+0.00
-15.00,+9.00,-3.00,-9.00,+8.00,-15.00,-6.00,-3.00,-19.00,-9.00,-6.00,-108.00,+53.00,+14.00,-31.00,-8.00
-12.00,-28.00,-1.00,+6.00,-5.00,-5.00,+30.00,-10.00,+16.00,-10.00,+2.00,+110.00,-7.00,+15.00,+3.00,-12.00
+9.00,+16.00,-1.00,-19.00,-39.00,-40.00,-45.00,-18.00,-19.00,-5.00,-5.00,+41.00,-100.00,-92.00,+7.00,+18.00
+22.00,-13.00,+1.00,+8.00,+23.00,-13.00,-49.00,-2.00,+11.00,+2.00,+5.00,-93.00,+15.00,-59.00,+8.00,+8.00
+20.00,+9.00,+10.00,+40.00,+124.00,+12.00,+5.00,+4.00,+10.00,+0.00,+3.00,+67.00,-112.00,-7.00,+0.00,-10.00
+2.00,-8.00,-7.00,-16.00,-47.00,+23.00,+6.00,-7.00,-17.00,+3.00,+2.00,+73.00,+66.00,+13.00,+51.00,+9.00
+24.00,-1.00,+0.00,+12.00,-18.00,+34.00,-90.00,+10.00,+16.00,-5.00,-10.00,-84.00,+21.00,+16.00,+38.00,+2.00
+5.00,-12.00,-2.00,+12.00,+15.00,+36.00,-74.00,-5.00,+5.00,-2.00,-9.00,-5.00,+16.00,-73.00,-62.00,-5.00
+16.00,+24.00,+5.00,-2.00,-67.00,-67.00,+0.00,+25.00,-33.00,-10.00,-4.00,-12.00,-32.00,+35.00,-65.00,-2.00
-4.00,+6.00,+4.00,+14.00,+37.00,+3.00,-3.00,-3.00,+10.00,-3.00,-9.00,+38.00,+13.00,+7.00,-57.00,-10.00
-18.00,-26.00,-9.00,-15.00,-58.00,+18.00,+22.00,-19.00,+0.00,-1.00,+9.00,+101.00,-59.00,-117.00,-48.00,-14.00
-5.00,+8.00,+1.00,+9.00,+65.00,+18.00,-67.00,+17.00,+16.00,-10.00,-8.00,+52.00,+27.00,+49.00,+42.00,+13.00
-1.00,-16.00,+0.00,-1.00,-39.00,+18.00,+31.00,+18.00,+10.00,-7.00,+4.00,+79.00,-56.00,+14.00,-32.00,+9.00
+2.00,+3.00,+1.00,-3.00,+65.00,-25.00,-14.00,-5.00,-14.00,+12.00,+7.00,-114.00,-66.00,-102.00,-14.00,-7.00
-17.00,-3.00,+4.00,+3.00,+32.00,+24.00,+42.00,+23.00,+22.00,+9.00,-4.00,-94.00,+24.00,+77.00,+32.00,+8.00
+2.00,+3.00,+0.00,+10.00,+115.00,+11.00,-48.00,-35.00,-16.00,+9.00,+7.00,+68.00,+34.00,+23.00,-66.00,-2.00
-22.00,-7.00,+0.00,+19.00,+38.00,-45.00,+69.00,+14.00,-19.00,-9.00,-2.00,+42.00,-105.00,-14.00,+29.00,-5.00
+23.00,+12.00,+4.00,+2.00,-80.00,+5.00,-69.00,+2.00,-14.00,-6.00,-22.00,-80.00,+74.00,-34.00,-38.00,+2.00
-14.00,+6.00,-6.00,+4.00,+69.00,+82.00,-72.00,-17.00,+20.00,-4.00,+1.00,+19.00,+35.00,-4.00,+9.00,-8.00
-8.00,-3.00,+1.00,-12.00,-48.00,-46.00,+50.00,-3.00,+20.00,+5.00,+7.00,+90.00,+50.00,+61.00,+54.00,+5.00
-19.00,-14.00,-6.00,-4.00,-34.00,+27.00,+6.00,-23.00,+17.00,+10.00,+9.00,+91.00,+8.00,-22.00,-48.00,+6.00
-34.00,-29.00,-8.00,-12.00,+39.00,+19.00,-30.00,+15.00,-43.00,-21.00,-3.00,+94.00,+54.00,+25.00,-64.00,-9.00
-9.00,+3.00,+2.00,+1.00,-20.00,-81.00,+11.00,+4.00,-7.00,-8.00,-14.00,-53.00,+45.00,+3.00,-58.00,-15.00
+3.00,+0.00,-11.00,-3.00,+2.00,+22.00,-45.00,-7.00,-20.00,-13.00,-17.00,-15.00,+30.00,+43.00,-33.00,-19.00
-11.00,-1.00,-10.00,-47.00,-128.00,-19.00,+11.00,-38.00,-2.00,+1.00,+13.00,-96.00,+56.00,-73.00,+72.00,+1.00
-33.00,-29.00,-5.00,+1.00,+35.00,-41.00,-25.00,-15.00,+53.00,+30.00,+4.00,+11.00,+41.00,+17.00,-11.00,+15.00
+13.00,+9.00,+19.00,+68.00,+65.00,+65.00,+96.00,+7.00,+9.00,+3.00,+6.00,-54.00,+21.00,+6.00,-26.00,+2.00
+6.00,+1.00,+3.00,+6.00,-88.00,+11.00,+97.00,+16.00,+18.00,+7.00,+10.00,+127.00,-92.00,+43.00,+37.00,+7.00
+16.00,+5.00,+2.00,-3.00,-69.00,-27.00,-11.00,+14.00,-36.00,-11.00,-17.00,-118.00,+26.00,-62.00,+40.00,+0.00
-21.00,-32.00,-10.00,-37.00,-128.00,-33.00,+5.00,-14.00,-34.00,-19.00,-10.00,+13.00,-53.00,-82.00,+66.00,-22.00
-22.00,+55.00,-9.00,-52.00,-34.00,-50.00,+4.00,-7.00,-8.00,-7.00,-10.00,-94.00,-94.00,-63.00,-20.00,-3.00
+56.00,+2.00,+13.00,+49.00,+13.00,+1.00,-43.00,+8.00,+2.00,+10.00,-3.00,-62.00,+5.00,-12.00,+31.00,+4.00
+25.00,-1.00,+9.00,+52.00,+127.00,+109.00,+8.00,+16.00,-36.00,-12.00,-6.00,-49.00,-128.00,-13.00,+6.00,-7.00
+27.00,+11.00,+4.00,-11.00,-115.00,-7.00,-56.00,-9.00,-1.00,-1.00,-4.00,+33.00,-90.00,+48.00,+45.00,+3.00
-3.00,-23.00,-11.00,-25.00,-128.00,-49.00,-55.00,-6.00,+27.00,+10.00,+10.00,+69.00,+8.00,+10.00,-26.00,+13.00
+0.00,+7.00,-1.00,-11.00,-78.00,+1.00,-6.00,+4.00,+13.00,-2.00,+5.00,+47.00,-55.00,-11.00,+3.00,+8.00
+6.00,-8.00,-15.00,-52.00,-125.00,-36.00,-49.00,-19.00,-10.00,+3.00,-5.00,-77.00,-79.00,-12.00,+14.00,-12.00
-3.00,+11.00,+5.00,+28.00,+114.00,-30.00,-18.00,+6.00,-16.00,+4.00,+10.00,-82.00,+3.00,-87.00,+10.00,+6.00
+6.00,-10.00,+3.00,+12.00,+95.00,-10.00,-14.00,-4.00,-7.00,-3.00,+5.00,+1.00,+66.00,+33.00,+54.00,+0.00
+51.00,+32.00,+11.00,+21.00,+62.00,-26.00,-16.00,+19.00,+8.00,+7.00,+3.00,-59.00,-48.00,-30.00,-31.00,-1.00
-77.00,-30.00,-1.00,+2.00,+24.00,-22.00,-101.00,-10.00,+4.00,-4.00,+3.00,+18.00,+31.00,+9.00,-61.00,-4.00
-18.00,+18.00,+1.00,+18.00,+64.00,+6.00,+44.00,+15.00,-12.00,+3.00,+7.00,+45.00,-46.00,+22.00,+15.00,+22.00
+2.00,-15.00,-6.00,-5.00,-90.00,-41.00,+56.00,+6.00,+7.00,-4.00,-8.00,-26.00,+58.00,+65.00,+49.00,+7.00
+21.00,-5.00,-9.00,-28.00,-44.00,-5.00,+95.00,+2.00,-29.00,-15.00,-5.00,-2.00,+127.00,+39.00,+13.00,-12.00
-19.00,-3.00,-4.00,-5.00,+24.00,+18.00,+1.00,+9.00,+88.00,+12.00,-6.00,-45.00,-91.00,-33.00,-25.00,+8.00
+5.00,+9.00,+4.00,+14.00,+32.00,+9.00,-11.00,-11.00,-75.00,-15.00,-4.00,+22.00,+10.00,+39.00,+20.00,-17.00
-1.00,+1.00,+2.00,-12.00,-54.00,-11.00,-32.00,+17.00,-9.00,-7.00,-11.00,-100.00,-16.00,-38.00,+84.00,-7.00
-21.00,-7.00,-8.00,-32.00,-128.00,-10.00,-39.00,-13.00,+22.00,+3.00,+1.00,-8.00,+9.00,+19.00,-28.00,+11.00
+7.00,+3.00,-1.00,+3.00,-16.00,-12.00,+0.00,-6.00,-9.00,+5.00,-3.00,-5.00,-35.00,+2.00,-43.00,+0.00
+3.00,-19.00,-5.00,-8.00,-103.00,+2.00,+25.00,-6.00,+36.00,+0.00,-5.00,-8.00,+67.00,-5.00,+49.00,+1.00
-21.00,-10.00,-3.00,-3.00,-88.00,+14.00,+32.00,-18.00,-24.00,-6.00,-4.00,-34.00,-93.00,+11.00,-31.00,-2.00
-17.00,-7.00,-8.00,-12.00,+36.00,-33.00,+30.00,-4.00,-20.00,-10.00,-8.00,-36.00,+84.00,-37.00,-42.00,-19.00
+14.00,+0.00,+2.00,+4.00,-67.00,+7.00,-32.00,+11.00,-19.00,+1.00,+2.00,+16.00,-43.00,-10.00,-15.00,-1.00
+6.00,+4.00,+0.00,+12.00,+92.00,+15.00,+40.00,+0.00,+26.00,-3.00,-8.00,-91.00,-74.00,-27.00,+16.00,+0.00
-19.00,+7.00,+1.00,-5.00,-39.00,-33.00,-17.00,+11.00,-4.00,+4.00,+4.00,+41.00,+37.00,+8.00,-9.00,-7.00
+7.00,+20.00,+11.00,+41.00,+127.00,+50.00,-16.00,+6.00,-8.00,-4.00,-1.00,+39.00,+8.00,-69.00,-78.00,-5.00
-7.00,+14.00,+2.00,-6.00,-70.00,-24.00,-10.00,-1.00,-9.00,-9.00,-2.00,-9.00,+78.00,+1.00,+26.00,+10.00
+4.00,+5.00,+1.00,+2.00,-1.00,+30.00,-4.00,+1.00,-22.00,-1.00,+5.00,+9.00,+20.00,+6.00,-17.00,-8.00
+9.00,-10.00,-2.00,+1.00,-10.00,+1.00,-37.00,-7.00,+6.00,+9.00,+0.00,+26.00,+46.00,-31.00,+17.00,+9.00
-4.00,+6.00,+0.00,-4.00,+28.00,+1.00,+44.00,-8.00,+48.00,+7.00,-1.00,-42.00,-86.00,-13.00,-29.00,-5.00
+11.00,-9.00,+1.00,+7.00,+48.00,-18.00,+9.00,+12.00,-42.00,-8.00,+1.00,+19.00,+72.00,+1.00,+37.00,+5.00
+17.00,+11.00,+2.00,+4.00,-27.00,-30.00,+2.00,+4.00,+4.00,+2.00,-2.00,+2.00,-32.00,-44.00,-46.00,-3.00
+8.00,+12.00,+7.00,+22.00,+46.00,+23.00,+27.00,+11.00,-1.00,-7.00,+0.00,+27.00,-14.00,+4.00,+27.00,+0.00
+9.00,+3.00,+1.00,-17.00,-89.00,-30.00,-24.00,-5.00,-13.00,-2.00,+2.00,+63.00,-1.00,+2.00,+24.00,-4.00
-16.00,-11.00,-10.00,-10.00,-11.00,-16.00,+15.00,+1.00,-2.00,+1.00,-6.00,-43.00,-24.00,+21.00,-24.00,-12.00
+7.00,+9.00,+0.00,+1.00,-28.00,-22.00,-17.00,-6.00,-9.00,-11.00,+2.00,-8.00,+17.00,+47.00,+0.00,-5.00
+35.00,+1.00,+1.00,+8.00,+62.00,+51.00,-32.00,+16.00,+41.00,-5.00,-4.00,+13.00,+3.00,-19.00,-14.00,-2.00
-30.00,-9.00,-2.00,-1.00,+13.00,+5.00,+9.00,+10.00,-10.00,-2.00,-2.00,-23.00,-50.00,+1.00,+17.00,+3.00
-26.00,-8.00,+1.00,-1.00,-8.00,-16.00,+12.00,+3.00,+31.00,+14.00,+8.00,+112.00,+84.00,+48.00,-7.00,+5.00
-4.00,-7.00,+2.00,-3.00,-26.00,+38.00,-18.00,-7.00,-35.00,-2.00,-7.00,-103.00,-126.00,-52.00,-63.00,-3.00
+17.00,+3.00,+5.00,+4.00,-8.00,-21.00,-4.00,-2.00,-19.00,+0.00,+4.00,+28.00,-53.00,+21.00,+11.00,+3.00
-3.00,-8.00,-7.00,-9.00,-6.00,-5.00,-22.00,-12.00,+0.00,+2.00,+1.00,+26.00,+19.00,+7.00,+23.00,+2.00
+2.00,+3.00,-4.00,-15.00,-88.00,-15.00,-17.00,-9.00,-20.00,-5.00,+2.00,+4.00,+37.00,+3.00,+16.00,-6.00
-4.00,-10.00,-2.00,+11.00,+62.00,+15.00,+2.00,+5.00,+25.00,+10.00,+0.00,+17.00,+50.00,+7.00,-6.00,+4.00
-3.00,-4.00,+5.00,+7.00,+46.00,+5.00,-1.00,+1.00,-8.00,+8.00,+6.00,+61.00,-103.00,+10.00,-12.00,+1.00
-33.00,-4.00,-12.00,-24.00,-91.00,-1.00,-13.00,-10.00,-18.00,-6.00,-7.00,-75.00,-116.00,-26.00,+4.00,-10.00
+21.00,+2.00,+2.00,+9.00,+89.00,+22.00,+21.00,+6.00,-11.00,-4.00,-6.00,-27.00,-45.00,+0.00,-4.00,-6.00
-4.00,+4.00,+2.00,-15.00,-52.00,+31.00,+19.00,-7.00,+12.00,+6.00,+5.00,+40.00,+39.00,+30.00,+13.00,-1.00
-10.00,-10.00,-7.00,+13.00,+71.00,+0.00,+21.00,+2.00,-4.00,+6.00,+7.00,+41.00,-18.00,-3.00,+11.00,+7.00
+1.00,+6.00,+3.00,-4.00,-18.00,+14.00,+26.00,+6.00,-9.00,-6.00,-8.00,+2.00,+1.00,-24.00,+2.00,+1.00
+10.00,-8.00,+0.00,-7.00,-86.00,-16.00,-3.00,-2.00,+10.00,-4.00,-5.00,+9.00,-6.00,+9.00,+3.00,-2.00
+1.00,-18.00,-5.00,-5.00,-24.00,+2.00,-27.00,-4.00,+5.00,-6.00,+0.00,-20.00,-14.00,-8.00,-8.00,-4.00
+10.00,+19.00,+5.00,+1.00,-22.00,+10.00,-7.00,+2.00,+0.00,-2.00,+6.00,-5.00,+17.00,-2.00,+3.00,+3.00
+3.00,-7.00,+1.00,-3.00,-44.00,-19.00,-10.00,-6.00,+0.00,+1.00,-7.00,+39.00,+19.00,+13.00,+0.00,+5.00
+7.00,+7.00,+1.00,+10.00,+80.00,-26.00,-3.00,+3.00,-1.00,-1.00,+4.00,+87.00,+44.00,-15.00,-5.00,+2.00
+20.00,+2.00,-1.00,-2.00,+17.00,+5.00,-5.00,+3.00,-4.00,-3.00,-6.00,-50.00,-7.00,-18.00,+0.00,+0.00
-3.00,-10.00,-5.00,-6.00,-30.00,-21.00,-9.00,-3.00,-32.00,-2.00,+4.00,-15.00,+66.00,-16.00,-6.00,-4.00
-6.00,-3.00,-3.00,-4.00,-15.00,-17.00,-21.00,-6.00,-7.00,+0.00,+5.00,+15.00,-58.00,-1.00,+5.00,+6.00
+26.00,-1.00,+4.00,-1.00,+27.00,-12.00,-7.00,-3.00,+21.00,+14.00,+5.00,-13.00,-23.00,-3.00,-3.00,+1.00
-1.00,+8.00,+1.00,+10.00,+67.00,+4.00,+0.00,+4.00,+8.00,-5.00,+14.00,+29.00,+22.00,+21.00,-2.00,-1.00
-2.00,-4.00,-4.00,+3.00,+41.00,+3.00,+0.00,-3.00,+2.00,-13.00,-29.00,+6.00,-56.00,-6.00,+1.00,+1.00
+7.00,+3.00,+3.00,-1.00,+3.00,+6.00,-12.00,+1.00,-13.00,-5.00,-7.00,-25.00,+39.00,+7.00,-2.00,+0.00
-2.00,+1.00,-3.00,-9.00,-26.00,-3.00,-7.00,+0.00,+15.00,-5.00,-7.00,+9.00,+44.00,+19.00,+4.00,+1.00
-14.00,+0.00,+0.00,-16.00,-113.00,-28.00,-12.00,-6.00,+2.00,-2.00,+2.00,-1.00,-27.00,-11.00,-1.00,-3.00
-25.00,-4.00,-16.00,+0.00,-17.00,+29.00,-4.00,-5.00,-21.00,+7.00,+11.00,+5.00,+8.00,+10.00,+0.00,-7.00
+4.00,-7.00,+1.00,+5.00,+27.00,+17.00,+6.00,-1.00,+12.00,+0.00,+6.00,+38.00,+25.00,+2.00,+3.00,-2.00
+1.00,+2.00,-4.00,-1.00,+12.00,+16.00,+9.00,-5.00,-9.00,-2.00,-2.00,-40.00,-50.00,+3.00,-4.00,-4.00
-5.00,+6.00,-7.00,+5.00,+21.00,+0.00,-3.00,+10.00,+19.00,+3.00,+1.00,+3.00,+41.00,-15.00,+1.00,-1.00
-2.00,-16.00,+5.00,-3.00,-6.00,+15.00,+8.00,-1.00,-14.00,+3.00,+43.00,+2.00,-14.00,-5.00,+5.00,-2.00
-4.00,+10.00,+9.00,-3.00,-33.00,+4.00,-10.00,-1.00,+3.00,+24.00,-1.00,+6.00,+24.00,+16.00,+5.00,-3.00
-2.00,+5.00,+5.00,-4.00,-28.00,-3.00,-4.00,+1.00,-18.00,-14.00,-38.00,+32.00,-7.00,+8.00,-2.00,-7.00
-9.00,+6.00,-10.00,-12.00,-114.00,-17.00,-12.00,-7.00,+17.00,-26.00,-31.00,-47.00,-16.00,-24.00,-1.00,+6.00
-3.00,-16.00,-1.00,+8.00,+79.00,+3.00,-3.00,-2.00,+3.00,+7.00,-11.00,+6.00,-8.00,-4.00,-6.00,-1.00
+13.00,-13.00,-6.00,-5.00,-34.00,-9.00,+4.00,+4.00,+38.00,-21.00,+23.00,+38.00,+89.00,+84.00,+9.00,+7.00
-6.00,-2.00,-9.00,-9.00,+41.00,+5.00,-9.00,-9.00,-27.00,+11.00,-5.00,-69.00,-65.00,-44.00,-25.00,-4.00
-8.00,-5.00,+7.00,+11.00,+73.00,-1.00,+0.00,+1.00,+11.00,+10.00,-3.00,+44.00,-36.00,+16.00,-3.00,+0.00
-13.00,-34.00,-12.00,-1.00,-14.00,-11.00,-9.00,+1.00,-4.00,-3.00,+0.00,-38.00,+24.00,+9.00,+18.00,+4.00
+5.00,+61.00,-18.00,+2.00,+7.00,-11.00,-4.00,-5.00,-12.00,+8.00,+0.00,-22.00,-48.00,-19.00,-10.00,-1.00
+3.00,-8.00,+23.00,-5.00,-41.00,+12.00,-1.00,-1.00,+3.00,-13.00,+9.00,+14.00,+18.00,+24.00,+17.00,-8.00
-16.00,+13.00,+5.00,-18.00,-68.00,-1.00,-5.00,-9.00,-21.00,-15.00,+21.00,+28.00,+9.00,+8.00,-5.00,-6.00
+16.00,+6.00,+7.00,+11.00,+108.00,+0.00,+12.00,+9.00,+49.00,+1.00,-42.00,-27.00,-15.00,+17.00,-11.00,-8.00
-7.00,-11.00,+11.00,+8.00,+24.00,-1.00,-4.00,-15.00,-38.00,+20.00,+2.00,+4.00,-19.00,-8.00,-3.00,-2.00
-10.00,-3.00,-11.00,+4.00,-44.00,+18.00,+2.00,+20.00,-21.00,-25.00,+2.00,+8.00,-2.00,-2.00,+9.00,-1.00
+1.00,+6.00,+5.00,+8.00,+68.00,-13.00,-13.00,+7.00,+11.00,+9.00,+6.00,-12.00,+4.00,-16.00,+2.00,+1.00
-4.00,-2.00,-2.00,-8.00,-66.00,+10.00,+22.00,-5.00,-44.00,-30.00,+1.00,+4.00,+4.00,+7.00,-27.00,-8.00
-5.00,-22.00,-6.00,+4.00,+21.00,+20.00,+3.00,-1.00,+55.00,-16.00,-1.00,-15.00,-14.00,-22.00,+3.00,+3.00
+2.00,+31.00,+4.00,+10.00,+32.00,-51.00,-2.00,-6.00,+63.00,+41.00,-12.00,-5.00,+7.00,-11.00,-4.00,+4.00
+5.00,-27.00,-7.00,-5.00,-36.00,+29.00,+5.00,-4.00,-4.00,+3.00,-1.00,+14.00,-14.00,+12.00,+6.00,+5.00
+4.00,-4.00,-17.00,-6.00,-37.00,-3.00,-14.00,-2.00,-63.00,-23.00,-20.00,-37.00,-38.00,-4.00,-24.00,-9.00
+16.00,+14.00,+7.00,-10.00,+7.00,-18.00,+0.00,+9.00,+63.00,+7.00,+7.00,-8.00,-20.00,-17.00,+0.00,-2.00
+1.00,-41.00,-12.00,-13.00,-25.00,+10.00,-16.00,-15.00,-58.00,-16.00,+17.00,+1.00,-29.00,+0.00,-1.00,-6.00
+31.00,+45.00,+9.00,+5.00,+2.00,-8.00,+0.00,+6.00,+11.00,+8.00,-25.00,+12.00,+41.00,-7.00,+0.00,+3.00
+7.00,+18.00,+6.00,+0.00,+1.00,-13.00,-7.00,-1.00,+4.00,+4.00,+0.00,+10.00,-49.00,-9.00,+15.00,-1.00
-4.00,+42.00,-7.00,-5.00,-18.00,+3.00,+2.00,-1.00,-15.00,-19.00,-6.00,-48.00,-16.00,+42.00,-3.00,+12.00
-27.00,-53.00,+1.00,+0.00,+21.00,+4.00,+3.00,-4.00,+78.00,+36.00,+9.00,+9.00,-22.00,-8.00,+10.00,+16.00
+4.00,-47.00,-14.00,-8.00,-19.00,-13.00,+0.00,-8.00,-24.00,+0.00,-4.00,-42.00,-11.00,+15.00,-11.00,-1.00
-13.00,-36.00,+6.00,+3.00,+2.00,+0.00,+15.00,-1.00,+19.00,-6.00,+10.00,+27.00,+9.00,-22.00,+5.00,-3.00
+38.00,+61.00,+28.00,+4.00,-5.00,+14.00,-12.00,+10.00,-31.00,+14.00,+5.00,+6.00,-3.00,-16.00,+0.00,-9.00
+11.00,-24.00,-9.00,+8.00,+47.00,+7.00,+13.00,+4.00,+0.00,-21.00,-3.00,+4.00,+26.00,+10.00,+2.00,-9.00
-25.00,+27.00,+6.00,+4.00,+22.00,-15.00,-11.00,+1.00,-20.00,+7.00,+10.00,+10.00,-17.00,+5.00,+3.00,-8.00
-17.00,-11.00,+1.00,-10.00,-60.00,-19.00,+5.00,-9.00,-4.00,-6.00,-14.00,-6.00,+2.00,-12.00,+2.00,-3.00
-22.00,-63.00,-12.00,-7.00,+2.00,+4.00,-36.00,-6.00,+29.00,+5.00,-11.00,+5.00,+1.00,-13.00,-4.00,-10.00
+8.00,+23.00,-2.00,+4.00,+22.00,-1.00,+0.00,+4.00,-34.00,-1.00,+6.00,-1.00,+15.00,-3.00,-3.00,+0.00
+17.00,+5.00,-9.00,-7.00,-50.00,-29.00,+2.00,-4.00,+18.00,-8.00,+4.00,+0.00,+16.00,-17.00,+0.00,-7.00
+6.00,-5.00,+7.00,+6.00,+78.00,+6.00,+43.00,+0.00,-11.00,+14.00,+11.00,-6.00,+13.00,+11.00,+5.00,-2.00
+8.00,+19.00,-2.00,+1.00,-12.00,-12.00,+10.00,+4.00,-21.00,-26.00,-11.00,+7.00,+0.00,-15.00,+4.00,-3.00
+10.00,-10.00,+2.00,+6.00,+2.00,+0.00,+14.00,+0.00,-12.00,+5.00,+0.00,-14.00,+18.00,+1.00,-4.00,-1.00
-14.00,-19.00,-2.00,-2.00,+9.00,+16.00,-3.00,-5.00,+18.00,+21.00,-1.00,-10.00,+7.00,+3.00,+0.00,+2.00
-3.00,+24.00,-18.00,-10.00,-45.00,-12.00,-27.00,-3.00,-8.00,-1.00,-2.00,+16.00,+19.00,+4.00,+4.00,-4.00
-6.00,-60.00,+2.00,-6.00,-11.00,-12.00,+7.00,-2.00,+35.00,-9.00,-13.00,+10.00,+14.00,-7.00,-1.00,+0.00
-9.00,+21.00,+1.00,-5.00,+1.00,+8.00,-1.00,-3.00,-20.00,-12.00,-1.00,-42.00,-53.00,-11.00,-3.00,+0.00
-17.00,-6.00,+1.00,+3.00,+7.00,+5.00,+3.00,+3.00,-10.00,-34.00,-2.00,+2.00,-19.00,+10.00,-1.00,+1.00
+13.00,-4.00,+1.00,+1.00,+1.00,-2.00,-17.00,-1.00,+10.00,+26.00,+3.00,+49.00,+5.00,-15.00,+0.00,+10.00
-13.00,+22.00,-3.00,+4.00,+11.00,+0.00,+5.00,+2.00,+11.00,+3.00,-2.00,-48.00,-59.00,-16.00,-5.00,-5.00
+3.00,-13.00,-5.00,-1.00,-21.00,+3.00,-14.00,-3.00,-14.00,+3.00,+1.00,-21.00,+24.00,-11.00,-3.00,+1.00
-8.00,+54.00,+13.00,-1.00,+4.00,+4.00,+1.00,-4.00,-6.00,+3.00,-2.00,-11.00,+33.00,+5.00,+3.00,+8.00
-11.00,-40.00,+3.00,+1.00,+14.00,+2.00,-6.00,+0.00,+0.00,-6.00,-1.00,-3.00,-58.00,+10.00,+0.00,+0.00
-16.00,-51.00,-16.00,-3.00,-22.00,-8.00,-2.00,-5.00,-27.00,+9.00,+9.00,+30.00,-11.00,-4.00,+0.00,+2.00
+14.00,+103.00,-5.00,-7.00,-16.00,-12.00,-3.00,-2.00,+42.00,+6.00,-6.00,+12.00,+3.00,+1.00,-2.00,-1.00
+17.00,-59.00,+9.00,+11.00,+48.00,+14.00,+10.00,+9.00,-32.00,-11.00,-4.00,-6.00,-28.00,-6.00,-1.00,+1.00
-7.00,-54.00,+2.00,+0.00,+6.00,+7.00,-9.00,-3.00,+7.00,+3.00,+13.00,-4.00,+17.00,+1.00,-1.00,-2.00
+0.00,+58.00,+2.00,-7.00,+1.00,+5.00,+4.00,-1.00,-33.00,+0.00,-20.00,+4.00,+24.00,+0.00,+0.00,+1.00
-9.00,-64.00,-10.00,-7.00,-30.00,-42.00,-11.00,-9.00,-3.00,+8.00,+8.00,-3.00,-4.00,+1.00,-1.00,-1.00
-9.00,-4.00,-7.00,+8.00,+81.00,+13.00,+8.00,+2.00,-6.00,-1.00,+0.00,+11.00,+25.00,-7.00,+0.00,-4.00
+7.00,+54.00,+9.00,-1.00,-11.00,+1.00,-9.00,+2.00,+64.00,-20.00,+7.00,-12.00,+10.00,+4.00,+0.00,-1.00
-9.00,-51.00,+4.00,+8.00,+10.00,-5.00,+0.00,-4.00,-36.00,+12.00,-6.00,-5.00,-3.00,-6.00,-2.00,-2.00
+4.00,+18.00,+0.00,-5.00,-38.00,-12.00,-1.00,+0.00,-12.00,-7.00,-8.00,+11.00,+22.00,+2.00,-2.00,-4.00
+1.00,-18.00,-13.00,-14.00,-32.00,-3.00,-3.00,-6.00,-15.00,+5.00,+8.00,-4.00,-10.00,+0.00,+0.00,-5.00
+22.00,-51.00,-13.00,-6.00,-13.00,-9.00,-6.00,-3.00,-10.00,-4.00,+8.00,+1.00,+35.00,+0.00,+2.00,+5.00
+51.00,+93.00,-3.00,+0.00,-12.00,+0.00,+1.00,+1.00,+45.00,+6.00,+3.00,+2.00,-25.00,-3.00,-2.00,+3.00
+9.00,-9.00,+17.00,+1.00,+16.00,+15.00,+2.00,+3.00,-20.00,-22.00,+2.00,-13.00,-22.00,-5.00,-6.00,-7.00
-2.00,+16.00,-7.00,+6.00,-4.00,-3.00,-1.00,+0.00,-10.00,+8.00,-5.00,+44.00,-26.00,-1.00,+1.00,+5.00
-19.00,+10.00,-12.00,+3.00,+4.00,+8.00,-2.00,+0.00,-8.00,-11.00,-8.00,-59.00,-6.00,-6.00,-4.00,-7.00
-20.00,-31.00,+19.00,-2.00,-13.00,-7.00,-1.00,-2.00,-10.00,-1.00,-2.00,+7.00,+32.00,-1.00,-1.00,-2.00
-33.00,+18.00,-3.00,+3.00,+15.00,+11.00,+0.00,-1.00,-33.00,-10.00,-1.00,+10.00,+8.00,+2.00,+1.00,+0.00
-6.00,-37.00,+1.00,-2.00,-17.00,+1.00,+0.00,-3.00,+10.00,-6.00,-7.00,+0.00,-15.00,-3.00,+0.00,-3.00
+6.00,+68.00,+3.00,-2.00,-4.00,-2.00,-1.00,+2.00,-11.00,+22.00,-8.00,-1.00,-8.00,-1.00,-2.00,-4.00
-20.00,-24.00,-3.00,+1.00,-12.00,-13.00,-2.00,+0.00,-16.00,-37.00,+5.00,+8.00,+32.00,+5.00,+3.00,+0.00
-18.00,-2.00,-3.00,+3.00,+30.00,+18.00,+3.00,+0.00,-1.00,+32.00,+4.00,+1.00,-3.00,-2.00,+1.00,+7.00
-15.00,+57.00,-6.00,-1.00,+5.00,+3.00,+0.00,-3.00,-8.00,-10.00,-6.00,-13.00,+1.00,-4.00,-2.00,-5.00
+12.00,-19.00,+1.00,-8.00,-29.00,-8.00,-5.00,-1.00,+47.00,+37.00,+3.00,+6.00,+4.00,+1.00,+1.00,+2.00
-2.00,-44.00,+4.00,+8.00,+63.00,+10.00,+4.00,+3.00,-64.00,-39.00,-3.00,-6.00,+3.00,-4.00,+0.00,-3.00
+2.00,-16.00,-1.00,-3.00,-1.00,+7.00,+2.00,-1.00,+27.00,-5.00,-4.00,+7.00,+3.00,+3.00,-1.00,-3.00
+11.00,-26.00,-4.00,-1.00,-22.00,-3.00,-4.00,-2.00,+0.00,+7.00,-6.00,-4.00,+4.00,-5.00,-3.00,-2.00
-1.00,+10.00,+2.00,+0.00,-2.00,+0.00,-3.00,-6.00,-20.00,+0.00,-2.00,-5.00,+9.00,+2.00,+1.00,+4.00
-7.00,-9.00,-7.00,-4.00,-12.00,-11.00,-1.00,-1.00,+13.00,+11.00,+10.00,+3.00,+1.00,-2.00,+1.00,-1.00
+0.00,-62.00,-9.00,-5.00,-16.00,+1.00,-1.00,+1.00,-20.00,-19.00,+0.00,+6.00,+10.00,+2.00,+1.00,-1.00
+3.00,+78.00,+4.00,+1.00,+7.00,+6.00,+0.00,+1.00,+23.00,-6.00,-24.00,+2.00,+19.00,+5.00,-6.00,-9.00
-8.00,+40.00,+4.00,-1.00,-3.00,-27.00,-2.00,+1.00,-65.00,-21.00,-3.00,+10.00,+11.00,-5.00,+2.00,-3.00
-39.00,-119.00,-15.00,+0.00,-9.00,+4.00,+0.00,-5.00,+50.00,+1.00,-4.00,-1.00,-26.00,+0.00,+0.00,+2.00
+18.00,+86.00,+7.00,+2.00,+9.00,-3.00,+0.00,+1.00,+32.00,+18.00,+0.00,-17.00,+5.00,-7.00,-3.00,-1.00
+3.00,-75.00,+1.00,-5.00,-10.00,-2.00,-1.00,-3.00,-4.00,+9.00,+11.00,-34.00,-7.00,-2.00,-2.00,-2.00
-10.00,+3.00,+3.00,-3.00,-5.00,+15.00,-5.00,-3.00,+15.00,+0.00,-8.00,-1.00,+6.00,+1.00,-2.00,-3.00
+17.00,+1.00,-7.00,-1.00,-13.00,+7.00,+0.00,+2.00,-55.00,+1.00,+2.00,+12.00,+54.00,+1.00,-2.00,-5.00
+17.00,+15.00,-14.00,+4.00,+12.00,-4.00,+2.00,+0.00,-4.00,-17.00,-3.00,+8.00,-27.00,+10.00,+0.00,-5.00
+3.00,-43.00,+2.00,+1.00,-10.00,-7.00,+0.00,+0.00,+15.00,+5.00,+2.00,+5.00,-3.00,-9.00,-3.00,-2.00
-5.00,+28.00,+14.00,-5.00,+2.00,+17.00,-2.00,-3.00,+4.00,-1.00,+1.00,+2.00,-16.00,-11.00,-1.00,+2.00
+8.00,+24.00,-2.00,-9.00,-31.00,-10.00,-4.00,-3.00,-5.00,+1.00,-2.00,-8.00,-17.00,+1.00,-2.00,+1.00
+19.00,-6.00,+10.00,+8.00,+54.00,+11.00,+1.00,+5.00,+18.00,+9.00,-1.00,+6.00,+18.00,+0.00,-3.00,+4.00
-24.00,+15.00,-6.00,+5.00,+48.00,+15.00,+2.00,-2.00,-9.00,+13.00,+7.00,+0.00,+6.00,+3.00,+1.00,+2.00
+10.00,-77.00,-10.00,+3.00,-9.00,+22.00,+2.00,+3.00,-24.00,-39.00,+0.00,+0.00,+21.00,+1.00,-2.00,-3.00
+2.00,-26.00,+8.00,+4.00,+14.00,-18.00,+2.00,+0.00,+38.00,+8.00,-10.00,-2.00,-18.00,-8.00,-2.00,-1.00
-14.00,-9.00,-1.00,-7.00,-33.00,+4.00,-4.00,-6.00,-45.00,-14.00,-9.00,-3.00,+6.00,-4.00,-4.00,-4.00
+3.00,-14.00,-2.00,-4.00,-18.00,-19.00,-11.00,-2.00,+61.00,-13.00,-1.00,+3.00,-7.00,-1.00,+2.00,+8.00
-8.00,+9.00,-2.00,-1.00,-6.00,-19.00,-3.00,-1.00,-17.00,+6.00,-6.00,+5.00,+38.00,+4.00,+0.00,+1.00
+1.00,-9.00,-3.00,-1.00,-4.00,+8.00,+5.00,-2.00,-1.00,+0.00,+4.00,-11.00,-14.00,-2.00,-4.00,-3.00
-13.00,+15.00,-2.00,-3.00,-14.00,-4.00,-3.00,-7.00,-2.00,+1.00,+1.00,+17.00,+17.00,+2.00,+3.00,+6.00
-14.00,-47.00,-13.00,-7.00,-16.00,-3.00,-2.00,-5.00,-12.00,+7.00,+4.00,-27.00,-9.00,-5.00,-4.00,-5.00
-14.00,+52.00,-3.00,-3.00,-4.00,+1.00,-1.00,-6.00,+29.00,+1.00,+0.00,+19.00,+0.00,+2.00,-3.00,-1.00
+41.00,+49.00,+3.00,-1.00,-1.00,+3.00,-4.00,+5.00,-33.00,-7.00,+2.00,-2.00,-29.00,-2.00,+2.00,-2.00
-12.00,-42.00,+17.00,+5.00,+10.00,+2.00,+5.00,+6.00,-13.00,+0.00,-6.00,-35.00,-7.00,-7.00,-3.00,-2.00
-7.00,+25.00,-1.00,-2.00,-1.00,-1.00,+0.00,-1.00,+3.00,+3.00,+7.00,+6.00,+6.00,+3.00,+0.00,-3.00
+9.00,-56.00,+0.00,+3.00,+4.00,+1.00,+1.00,+3.00,+60.00,+3.00,-7.00,+1.00,-34.00,+7.00,-2.00,+1.00
-30.00,+19.00,-9.00,-3.00,-9.00,-1.00,+0.00,-5.00,-88.00,-3.00,+10.00,-2.00,+23.00,-14.00,+4.00,+9.00
-9.00,-23.00,+0.00,+0.00,+26.00,+2.00,-2.00,-6.00,-64.00,-56.00,-10.00,+13.00,+3.00,+4.00,-3.00,-17.00
+26.00,+67.00,+3.00,-5.00,-11.00,-5.00,+1.00,+4.00,+74.00,+15.00,+3.00,-1.00,+4.00,-4.00,+4.00,+19.00
-5.00,+28.00,-3.00,+3.00,+14.00,+1.00,-3.00,+1.00,-20.00,-5.00,-5.00,-2.00,+13.00,+2.00,-1.00,-1.00
-19.00,-24.00,-6.00,-6.00,-38.00,-7.00,-1.00,-6.00,-3.00,+25.00,+2.00,+6.00,+6.00,+2.00,-4.00,-9.00
+2.00,+0.00,+1.00,-1.00,-27.00,+6.00,+1.00,+2.00,+12.00,+15.00,+5.00,+1.00,-22.00,-4.00,+0.00,+10.00
+17.00,-12.00,-1.00,+5.00,+60.00,-3.00,-2.00,+2.00,-45.00,-17.00,-5.00,+0.00,+10.00,-2.00,+0.00,-4.00
-28.00,-53.00,-10.00,-3.00,+10.00,-6.00,+0.00,-4.00,-5.00,-18.00,+11.00,+0.00,+38.00,+17.00,+0.00,-4.00
+18.00,+117.00,+8.00,+0.00,+2.00,-2.00,-3.00,+1.00,+61.00,+13.00,-18.00,-4.00,-35.00,-8.00,-2.00,+0.00
-11.00,-28.00,-12.00,-5.00,-7.00,-21.00,-4.00,-4.00,+15.00,+9.00,-2.00,+4.00,+9.00,-2.00,-2.00,+0.00
+10.00,-30.00,+15.00,+3.00,-24.00,-2.00,+2.00,+5.00,-20.00,-14.00,-8.00,-7.00,-38.00,-1.00,-2.00,-8.00
+0.00,-35.00,-2.00,-1.00,+1.00,+2.00,+2.00,-2.00,+18.00,+13.00,+0.00,-11.00,-22.00,-8.00,-1.00,+2.00
-14.00,-42.00,+3.00,+0.00,+3.00,+3.00,-3.00,-3.00,+8.00,+11.00,+1.00,-13.00,-1.00,-1.00,-4.00,-7.00
+3.00,-80.00,-8.00,-5.00,-18.00,-7.00,-3.00,-2.00,-21.00,-12.00,-1.00,-2.00,-15.00,+4.00,+5.00,+6.00
-12.00,+89.00,-3.00,-3.00,-8.00,-5.00,-2.00,-8.00,+8.00,+3.00,+4.00,+28.00,+55.00,+1.00,-3.00,-5.00
+26.00,+68.00,+9.00,+2.00,+0.00,-6.00,-1.00,+5.00,-1.00,+3.00,+4.00,-18.00,-60.00,-6.00,+4.00,+9.00
-7.00,-11.00,-13.00,-2.00,+2.00,+29.00,-1.00,+0.00,-14.00,-11.00,-2.00,+14.00,+25.00,+4.00,-1.00,-4.00
+9.00,+30.00,+12.00,-3.00,+1.00,-9.00,-1.00,-1.00,+20.00,+2.00,-3.00,-15.00,-4.00,-4.00,-1.00,-1.00
-9.00,-54.00,-4.00,-4.00,-18.00,+0.00,-3.00,-3.00,-8.00,-3.00,-2.00,+8.00,-1.00,+1.00,+0.00,-3.00
+4.00,+83.00,+9.00,+4.00,-4.00,-14.00,+1.00,+2.00,+14.00,-11.00,-3.00,-11.00,+1.00,-5.00,+0.00,-4.00
+1.00,-20.00,+2.00,+3.00,+28.00,+6.00,+2.00,+1.00,-37.00,+20.00,+4.00,+1.00,-21.00,+2.00,-1.00,-1.00
-33.00,-51.00,-21.00,-2.00,+6.00,+10.00,-1.00,-6.00,+48.00,+22.00,+6.00,+6.00,+7.00,+0.00,+0.00,+6.00
+50.00,+57.00,+17.00,+4.00,+3.00,+3.00,+2.00,+9.00,-66.00,-27.00,-4.00,+6.00,+7.00,-1.00,+1.00,-4.00
-19.00,-22.00,-6.00,-10.00,-42.00,-11.00,-4.00,-6.00,+46.00,+12.00,-4.00,-7.00,-37.00,-2.00,-2.00,+2.00
+17.00,-32.00,-4.00,-3.00,+23.00,-5.00,-3.00,-1.00,-24.00,-26.00,-1.00,+2.00,+12.00,+2.00,+2.00,+0.00
+7.00,-14.00,+4.00,+5.00,+9.00,-1.00,+3.00,+2.00,-8.00,+5.00,-1.00,+16.00,+7.00,-2.00,-3.00,-8.00
-18.00,-39.00,+0.00,-2.00,-28.00,+1.00,+0.00,-4.00,-11.00,+1.00,+0.00,-29.00,-27.00,+5.00,-2.00,-7.00
+14.00,+32.00,+3.00,+2.00,+28.00,+10.00,-1.00,-2.00,-16.00,+0.00,-3.00,+12.00,+19.00,+10.00,+1.00,-1.00
-4.00,-23.00,+0.00,+0.00,-9.00,-10.00,-3.00,-22.00,+38.00,-7.00,-4.00,-11.00,+2.00,-16.00,-1.00,-2.00
+9.00,+21.00,-6.00,-7.00,+1.00,+5.00,-4.00,-2.00,-6.00,-2.00,+3.00,+16.00,+26.00,+4.00,-2.00,-3.00
-23.00,+16.00,-13.00,-3.00,-8.00,-1.00,+6.00,-4.00,-6.00,+10.00,+0.00,-16.00,-37.00,-15.00,-4.00,+2.00
+31.00,-11.00,+6.00,-1.00,-8.00,-1.00,-3.00,+8.00,-30.00,-2.00,-6.00,+4.00,+4.00,+5.00,-1.00,-4.00
