+2.00,-2.00,+1.00,+2.00,-1.00,+1.00,-1.00,+0.00,-1.00,+2.00,-2.00,-1.00,-1.00,-2.00,-4.00,-1.00
+2.00,-3.00,-1.00,+0.00,+0.00,-2.00,-2.00,-12.00,+2.00,-1.00,-1.00,-1.00,+0.00,+0.00,-2.00,+0.00
-1.00,+1.00,+0.00,+1.00,-1.00,+0.00,-1.00,-1.00,+0.00,+1.00,-1.00,-1.00,+1.00,+0.00,-1.00,+0.00
+1.00,-2.00,-1.00,-1.00,-2.00,-1.00,+2.00,+0.00,-1.00,-5.00,-5.00,-2.00,+0.00,-2.00,+3.00,+2.00
-1.00,-3.00,-3.00,-3.00,-2.00,+0.00,+1.00,+5.00,-4.00,-1.00,+1.00,-1.00,-2.00,-2.00,-1.00,-4.00
-5.00,-1.00,-1.00,+1.00,-1.00,-1.00,-2.00,+0.00,-1.00,+2.00,-1.00,+0.00,+0.00,-1.00,+0.00,+0.00
+6.00,-3.00,-3.00,-2.00,+0.00,-1.00,-2.00,-2.00,-2.00,+1.00,-1.00,-1.00,+0.00,+0.00,+0.00,-3.00
-5.00,-1.00,-5.00,-3.00,+0.00,-4.00,-2.00,-1.00,+0.00,-2.00,+1.00,+1.00,+1.00,+1.00,-1.00,-2.00
+0.00,+0.00,-2.00,+1.00,+0.00,-2.00,-2.00,-10.00,+2.00,-3.00,-1.00,-2.00,-3.00,-1.00,+0.00,-2.00
+9.00,+2.00,-1.00,-3.00,-3.00,-1.00,+0.00,+3.00,-2.00,-1.00,+0.00,-1.00,-4.00,+1.00,+2.00,-1.00
-8.00,-1.00,+0.00,-2.00,-3.00,-1.00,+0.00,+3.00,-2.00,-4.00,+0.00,+3.00,+1.00,-3.00,-1.00,-1.00
-3.00,+0.00,+2.00,+1.00,+0.00,+1.00,-2.00,+2.00,-3.00,-1.00,+0.00,+2.00,+0.00,-3.00,-3.00,-1.00
+0.00,+2.00,+2.00,+1.00,-2.00,-3.00,-1.00,-1.00,-2.00,-2.00,-1.00,+0.00,+0.00,+0.00,-2.00,-3.00
-1.00,-3.00,+0.00,-1.00,+1.00,+0.00,-1.00,+2.00,+2.00,-1.00,-3.00,-3.00,-2.00,-1.00,+1.00,+0.00
-1.00,+1.00,+0.00,-2.00,-1.00,-2.00,-2.00,+1.00,-2.00,-4.00,-1.00,-2.00,-2.00,-1.00,+1.00,-2.00
+2.00,-1.00,-2.00,-3.00,-3.00,-1.00,-1.00,+1.00,-1.00,-3.00,-1.00,-2.00,-4.00,-2.00,+0.00,-2.00
+2.00,-3.00,-1.00,+1.00,+1.00,+0.00,-2.00,+2.00,-1.00,+0.00,-1.00,+2.00,-1.00,-1.00,-3.00,-1.00
-1.00,-2.00,-2.00,-3.00,-4.00,-3.00,+1.00,+3.00,-2.00,-2.00,-2.00,-1.00,-1.00,+0.00,-3.00,-2.00
+4.00,+1.00,+3.00,+0.00,-1.00,-1.00,+0.00,-6.00,+0.00,-2.00,-4.00,-3.00,+0.00,-1.00,-2.00,+0.00
+1.00,+0.00,+0.00,+0.00,+1.00,+0.00,+0.00,+0.00,-1.00,+1.00,+1.00,+0.00,-1.00,-1.00,-2.00,-1.00
-4.00,+2.00,-1.00,-2.00,+0.00,-1.00,-2.00,-2.00,-1.00,-3.00,+0.00,+0.00,-1.00,-2.00,-1.00,-1.00
-2.00,+0.00,-2.00,-1.00,+0.00,+0.00,-2.00,+1.00,+3.00,-3.00,+1.00,+0.00,+0.00,-1.00,+0.00,+1.00
+3.00,-1.00,-1.00,-2.00,+0.00,+0.00,+1.00,-1.00,-3.00,+0.00,-1.00,-2.00,-2.00,-2.00,-1.00,-1.00
-3.00,+0.00,+0.00,-1.00,+0.00,+0.00,-4.00,-4.00,-1.00,-2.00,-1.00,-1.00,-2.00,-1.00,-4.00,-1.00
-2.00,-1.00,-3.00,-2.00,-2.00,+0.00,+0.00,+0.00,-2.00,+0.00,+0.00,-2.00,-1.00,+0.00,+0.00,-1.00
-2.00,+0.00,-2.00,+0.00,-2.00,+0.00,-2.00,-3.00,-3.00,-5.00,-1.00,-2.00,+1.00,+0.00,+3.00,+0.00
+6.00,+0.00,-3.00,+1.00,-1.00,-1.00,-1.00,+8.00,-3.00,-3.00,+1.00,+0.00,+0.00,+0.00,+0.00,-1.00
-1.00,+0.00,+0.00,-1.00,-1.00,-1.00,-2.00,-1.00,+2.00,+2.00,-1.00,-2.00,+0.00,-2.00,+0.00,+1.00
-3.00,-1.00,-1.00,-2.00,+0.00,-2.00,+1.00,-3.00,-1.00,-2.00,-1.00,-1.00,+1.00,-1.00,-1.00,-3.00
-5.00,-2.00,-3.00,-1.00,+0.00,+0.00,-1.00,+0.00,-1.00,+0.00,-2.00,+1.00,+0.00,-1.00,-3.00,-3.00
+4.00,+1.00,+0.00,-2.00,-2.00,-1.00,+1.00,+0.00,-1.00,-1.00,+0.00,+1.00,-2.00,-1.00,-1.00,+0.00
-1.00,-3.00,-2.00,+0.00,-2.00,-3.00,+0.00,+0.00,-2.00,-4.00,-2.00,-2.00,-3.00,-1.00,-4.00,-4.00
-2.00,-3.00,+0.00,+1.00,-1.00,-1.00,-1.00,-1.00,-1.00,+1.00,+0.00,+0.00,+0.00,-1.00,+2.00,-1.00
+5.00,-2.00,-2.00,+0.00,+0.00,-2.00,-1.00,-2.00,+1.00,+0.00,-3.00,-2.00,-2.00,-2.00,-1.00,-3.00
-5.00,+0.00,-1.00,+0.00,+1.00,-2.00,-1.00,-5.00,-1.00,+0.00,+0.00,-3.00,-2.00,-1.00,-1.00,-3.00
+2.00,-1.00,-3.00,-3.00,+0.00,-1.00,+0.00,+0.00,+0.00,-12.00,-1.00,+0.00,-1.00,+0.00,+1.00,-5.00
-4.00,+2.00,+0.00,+1.00,-2.00,-1.00,-1.00,-2.00,+0.00,-12.00,-1.00,-1.00,-2.00,-1.00,-1.00,-1.00
+2.00,+1.00,-2.00,-1.00,+0.00,-2.00,+0.00,-6.00,-3.00,-9.00,+2.00,+0.00,+0.00,-3.00,-1.00,-2.00
-3.00,-2.00,-2.00,-2.00,-2.00,-2.00,-3.00,-3.00,-2.00,-11.00,-1.00,-2.00,-2.00,-4.00,-3.00,-3.00
-2.00,-4.00,-1.00,-2.00,-1.00,+0.00,-1.00,+0.00,-1.00,+1.00,+1.00,-1.00,-3.00,+0.00,+0.00,+0.00
-8.00,-5.00,-3.00,-1.00,+0.00,+0.00,+2.00,+32.00,-3.00,+2.00,-4.00,-1.00,-1.00,+0.00,+1.00,-1.00
-5.00,+2.00,+2.00,+1.00,-2.00,-1.00,-1.00,+0.00,+0.00,+10.00,-1.00,+0.00,-2.00,-3.00,-5.00,+0.00
-2.00,+2.00,+1.00,-1.00,+0.00,-2.00,-1.00,-1.00,+0.00,+9.00,+0.00,-2.00,+0.00,-1.00,+0.00,+0.00
+0.00,+0.00,+2.00,+0.00,-2.00,+0.00,-3.00,+3.00,-2.00,+9.00,+1.00,-2.00,+1.00,+0.00,+1.00,+1.00
+1.00,-2.00,-2.00,-1.00,-2.00,-1.00,-3.00,-11.00,-1.00,+6.00,-3.00,+0.00,-1.00,-1.00,-1.00,-1.00
-4.00,-1.00,+0.00,-1.00,+0.00,+0.00,+0.00,+0.00,-2.00,+3.00,-1.00,-2.00,-1.00,+1.00,-3.00,-1.00
-3.00,-3.00,-3.00,-2.00,+1.00,+0.00,+0.00,+2.00,+0.00,+2.00,-3.00,+3.00,-1.00,+0.00,+1.00,-3.00
-2.00,-3.00,-2.00,+1.00,-1.00,-1.00,-1.00,-5.00,+0.00,+2.00,+0.00,+0.00,-1.00,-2.00,-2.00,+2.00
+5.00,+1.00,+0.00,-1.00,+1.00,+0.00,-3.00,-8.00,-2.00,-3.00,+0.00,-2.00,-3.00,-1.00,-1.00,-4.00
-1.00,-2.00,-3.00,-2.00,-2.00,-1.00,-1.00,+0.00,-2.00,-8.00,-3.00,-4.00,-1.00,+0.00,-1.00,+1.00
-6.00,-3.00,-3.00,-3.00,-4.00,-2.00,-3.00,-10.00,+1.00,+5.00,+1.00,-3.00,-1.00,+0.00,-2.00,-2.00
+4.00,+1.00,+0.00,+0.00,+1.00,+0.00,-2.00,-8.00,+0.00,-2.00,-1.00,-1.00,-1.00,-2.00,-15.00,-1.00
-3.00,+2.00,-2.00,+0.00,-1.00,-1.00,-1.00,+11.00,+2.00,+4.00,-1.00,-1.00,+0.00,-1.00,+31.00,+2.00
-1.00,-1.00,+0.00,-2.00,-2.00,-1.00,+5.00,+11.00,-4.00,-1.00,+1.00,-2.00,-2.00,+0.00,-7.00,-6.00
+5.00,-2.00,-1.00,-1.00,-1.00,-2.00,-2.00,+5.00,-3.00,-5.00,-1.00,+2.00,+0.00,-1.00,-20.00,+3.00
-14.00,-2.00,-2.00,+0.00,+1.00,+0.00,-6.00,-20.00,-3.00,-4.00,-2.00,-1.00,+1.00,-1.00,-2.00,-7.00
+3.00,-3.00,+2.00,-1.00,-3.00,+0.00,+24.00,+0.00,-1.00,-5.00,-6.00,-3.00,-2.00,-1.00,+17.00,+3.00
+2.00,-2.00,+2.00,+0.00,+2.00,+1.00,+4.00,+27.00,-1.00,+2.00,+1.00,+1.00,-2.00,+0.00,+5.00,+5.00
-6.00,-1.00,-4.00,-2.00,+0.00,+0.00,+1.00,+2.00,-1.00,-5.00,-1.00,-3.00,-1.00,-5.00,+3.00,-5.00
+3.00,+1.00,-2.00,-1.00,-1.00,-4.00,-4.00,+2.00,+0.00,+3.00,-1.00,-2.00,+0.00,+0.00,-14.00,-4.00
-1.00,+1.00,+0.00,+1.00,-1.00,-3.00,-11.00,-25.00,-4.00,-5.00,-3.00,-1.00,-1.00,+0.00,-16.00,-1.00
-4.00,-2.00,-3.00,-1.00,-2.00,-2.00,-9.00,-10.00,-2.00,-1.00,-2.00,+0.00,-1.00,+0.00,+11.00,-4.00
+0.00,+0.00,+2.00,+0.00,+0.00,-2.00,-2.00,-3.00,-1.00,+1.00,+2.00,-1.00,+0.00,+1.00,+1.00,+2.00
-1.00,-2.00,-2.00,-2.00,-1.00,+3.00,+10.00,+11.00,-2.00,-1.00,-3.00,-2.00,-2.00,-1.00,-2.00,+2.00
+3.00,+0.00,-2.00,-3.00,+1.00,+0.00,-3.00,-4.00,-2.00,-1.00,+0.00,-1.00,+0.00,-2.00,+11.00,-6.00
+2.00,-4.00,+2.00,+0.00,-1.00,-2.00,+1.00,-15.00,+0.00,-2.00,+0.00,+0.00,+0.00,-1.00,-21.00,+1.00
-2.00,-2.00,+1.00,-3.00,-2.00,-3.00,-11.00,+4.00,+2.00,-1.00,-1.00,-1.00,-2.00,-3.00,-1.00,-2.00
+6.00,+2.00,+1.00,-1.00,-1.00,-1.00,+2.00,+3.00,+1.00,-3.00,+0.00,+1.00,+1.00,+1.00,+6.00,+4.00
+1.00,+0.00,-1.00,+1.00,-3.00,+0.00,+2.00,+11.00,-1.00,+0.00,+2.00,-1.00,+0.00,+0.00,-11.00,-2.00
+0.00,-1.00,-3.00,+1.00,-1.00,-1.00,-5.00,-8.00,-2.00,-4.00,-1.00,+0.00,-2.00,-3.00,-2.00,-3.00
-3.00,-1.00,-3.00,-2.00,-2.00,-1.00,+5.00,-6.00,+0.00,-4.00,-1.00,-1.00,-2.00,+1.00,+0.00,-1.00
-1.00,+1.00,+0.00,-1.00,-2.00,-2.00,+0.00,+2.00,-2.00,-2.00,-2.00,-2.00,-1.00,-1.00,+4.00,-4.00
+1.00,-1.00,+1.00,-3.00,-2.00,-2.00,-2.00,-1.00,+1.00,-2.00,+0.00,-3.00,+0.00,-2.00,-12.00,+1.00
-5.00,-2.00,-2.00,-2.00,+1.00,-1.00,-2.00,-8.00,-1.00,+0.00,-2.00,-2.00,-3.00,+0.00,+1.00,+0.00
+0.00,+1.00,+1.00,+1.00,+0.00,+1.00,+1.00,-2.00,-2.00,-1.00,-1.00,-2.00,-1.00,-2.00,+4.00,-1.00
+0.00,-3.00,-2.00,+1.00,+1.00,-3.00,-1.00,+6.00,-1.00,-1.00,-1.00,+0.00,-1.00,+0.00,+5.00,+1.00
-3.00,+0.00,-1.00,-2.00,+0.00,+0.00,-6.00,-7.00,-2.00,+1.00,+0.00,-1.00,-1.00,-1.00,-11.00,+1.00
-2.00,+0.00,-2.00,-2.00,-2.00,-2.00,+0.00,-3.00,-2.00,-2.00,-3.00,+1.00,+0.00,-3.00,+1.00,-2.00
-2.00,-4.00,+1.00,+0.00,-3.00,+1.00,+3.00,+4.00,+0.00,-2.00,-3.00,+0.00,+0.00,+1.00,+0.00,+2.00
-2.00,+0.00,+1.00,+1.00,-1.00,-1.00,-2.00,+15.00,-2.00,-6.00,-1.00,+1.00,-3.00,-2.00,-1.00,+2.00
-1.00,+0.00,-2.00,-3.00,-2.00,-2.00,-3.00,-9.00,+1.00,-2.00,+0.00,+0.00,-1.00,-2.00,-9.00,-2.00
-4.00,+1.00,+0.00,-2.00,-1.00,-2.00,-3.00,-10.00,+0.00,-6.00,-3.00,-1.00,-3.00,+1.00,+4.00,-2.00
-2.00,-1.00,-1.00,-1.00,-1.00,+0.00,+4.00,+21.00,+1.00,+0.00,-2.00,+1.00,-2.00,+0.00,+1.00,+0.00
+0.00,-3.00,-2.00,-2.00,-1.00,+0.00,-1.00,-10.00,-3.00,-4.00,+1.00,+0.00,+0.00,-1.00,+4.00,+0.00
-1.00,-4.00,-1.00,+0.00,-1.00,+0.00,+0.00,+1.00,+0.00,-2.00,+1.00,+0.00,-1.00,-3.00,-23.00,-1.00
+2.00,-2.00,-3.00,-2.00,+0.00,+0.00,-1.00,+1.00,+0.00,+1.00,-2.00,-3.00,-1.00,-2.00,+30.00,-1.00
-1.00,-1.00,-1.00,-2.00,-1.00,+0.00,-3.00,-11.00,-3.00,-3.00,-1.00,+0.00,+2.00,-1.00,-7.00,-5.00
-10.00,-2.00,+2.00,-2.00,+0.00,+0.00,-1.00,-8.00,-2.00,-4.00,-2.00,+0.00,+1.00,-4.00,-7.00,-2.00
+2.00,-4.00,-3.00,-2.00,+0.00,-2.00,+1.00,+5.00,-2.00,+0.00,-2.00,-1.00,-2.00,+1.00,-3.00,-2.00
+1.00,-1.00,-1.00,-4.00,-1.00,-2.00,-1.00,-2.00,-1.00,+2.00,-1.00,-2.00,+1.00,-1.00,-2.00,-3.00
+1.00,+1.00,-2.00,+1.00,+0.00,-1.00,+0.00,-8.00,-1.00,+1.00,+0.00,-1.00,-4.00,-1.00,+4.00,-3.00
+3.00,+0.00,+0.00,+1.00,-2.00,-1.00,+1.00,+2.00,+0.00,+3.00,+2.00,-1.00,-2.00,+0.00,+2.00,-3.00
-4.00,-3.00,-4.00,-2.00,-3.00,-1.00,-4.00,-4.00,-2.00,+1.00,-1.00,-1.00,-2.00,+0.00,+1.00,-1.00
+4.00,+3.00,+0.00,+2.00,+1.00,-2.00,+1.00,+4.00,-1.00,+0.00,-2.00,+0.00,-1.00,-1.00,-7.00,-1.00
-2.00,+0.00,-1.00,-2.00,-1.00,-3.00,-1.00,-5.00,-2.00,+1.00,-3.00,-2.00,-1.00,-1.00,+4.00,-1.00
-2.00,-2.00,+0.00,-2.00,-4.00,-1.00,-1.00,-6.00,+1.00,+2.00,+0.00,-1.00,-1.00,-1.00,-1.00,+0.00
+4.00,-1.00,+0.00,+1.00,+0.00,+0.00,-3.00,+6.00,+0.00,+0.00,-1.00,-1.00,-2.00,-2.00,+2.00,-4.00
-2.00,+1.00,+2.00,+1.00,+0.00,+0.00,-1.00,+2.00,+0.00,+3.00,-2.00,-2.00,+0.00,-1.00,-6.00,-5.00
-5.00,-2.00,-2.00,+0.00,+0.00,+0.00,-1.00,+0.00,-2.00,+0.00,-1.00,-1.00,-1.00,+0.00,-3.00,-1.00
+0.00,+0.00,-4.00,-1.00,-2.00,-1.00,-3.00,-8.00,+0.00,+0.00,-2.00,-1.00,-3.00,-1.00,+1.00,-3.00
-2.00,+1.00,+1.00,+0.00,-1.00,+0.00,-3.00,-5.00,+0.00,+0.00,-2.00,+0.00,-1.00,-3.00,+2.00,+1.00
+2.00,-4.00,+0.00,+0.00,-1.00,+0.00,+1.00,+2.00,+1.00,-1.00,+2.00,-1.00,+1.00,-1.00,-6.00,-1.00
-1.00,+0.00,-2.00,-1.00,-2.00,-1.00,-9.00,-10.00,+0.00,-1.00,+1.00,+0.00,+1.00,+0.00,+0.00,-1.00
+1.00,+0.00,+1.00,-1.00,+1.00,+0.00,+2.00,+5.00,-3.00,+1.00,-2.00,-2.00,+0.00,-1.00,+0.00,-1.00
-1.00,+2.00,+0.00,+1.00,+1.00,+1.00,+3.00,+14.00,-2.00,-3.00,-3.00,+0.00,+1.00,+2.00,+1.00,-3.00
-7.00,-3.00,-1.00,-4.00,-3.00,+2.00,+4.00,+9.00,-5.00,-2.00,+0.00,-1.00,+0.00,+0.00,-6.00,-3.00
+3.00,+0.00,-2.00,-2.00,-1.00,+0.00,-1.00,-6.00,-1.00,+0.00,+0.00,-2.00,-1.00,-2.00,-5.00,+6.00
+4.00,+2.00,+3.00,-1.00,-2.00,+0.00,-1.00,+1.00,-1.00,+3.00,+0.00,+0.00,+0.00,-1.00,+3.00,-2.00
-4.00,+2.00,-1.00,-1.00,+0.00,-2.00,-2.00,-7.00,-1.00,-5.00,-2.00,-3.00,-3.00,-1.00,+0.00,-2.00
-4.00,-2.00,-2.00,+0.00,-2.00,-3.00,-5.00,-14.00,+0.00,-5.00,-4.00,-1.00,-1.00,+0.00,-11.00,+3.00
+9.00,-1.00,-1.00,+0.00,-2.00,-2.00,-2.00,-2.00,+1.00,-1.00,-4.00,+0.00,-1.00,-1.00,+6.00,-2.00
-5.00,-3.00,-4.00,-1.00,+0.00,-3.00,-11.00,+6.00,-1.00,+0.00,+2.00,-3.00,+0.00,+0.00,+2.00,-4.00
+2.00,+2.00,+2.00,+0.00,+0.00,+0.00,+16.00,-8.00,-1.00,+0.00,-3.00,-2.00,+0.00,-1.00,-5.00,+3.00
+3.00,-1.00,+0.00,+1.00,+0.00,-1.00,-1.00,+18.00,-2.00,-3.00,-2.00,-2.00,-3.00,-2.00,+8.00,-2.00
-2.00,-3.00,-2.00,+1.00,+1.00,+0.00,+0.00,-3.00,-1.00,-3.00,-1.00,-2.00,-3.00,-4.00,-7.00,-9.00
-2.00,-1.00,-3.00,-2.00,+1.00,-1.00,-3.00,+1.00,+1.00,+0.00,-2.00,+0.00,-1.00,+1.00,+0.00,+5.00
+0.00,-2.00,+1.00,-1.00,-1.00,+1.00,-8.00,-8.00,-2.00,+4.00,+5.00,+2.00,-2.00,-5.00,-13.00,-4.00
-10.00,-4.00,-2.00,-2.00,-1.00,-2.00,-3.00,-20.00,-3.00,+1.00,+0.00,+0.00,-1.00,+2.00,+3.00,+2.00
-1.00,+0.00,+2.00,+0.00,-1.00,-2.00,-2.00,+8.00,-2.00,+1.00,+0.00,-2.00,-1.00,+0.00,+4.00,-2.00
+2.00,+1.00,+4.00,-1.00,-1.00,-2.00,+2.00,-4.00,-1.00,-5.00,-2.00,-1.00,+0.00,-1.00,+0.00,-1.00
-2.00,+0.00,+1.00,-2.00,-2.00,-1.00,-5.00,+0.00,+0.00,-2.00,+0.00,-2.00,+0.00,+0.00,-12.00,-5.00
-5.00,-1.00,-3.00,-1.00,-1.00,-1.00,-6.00,-6.00,+2.00,-2.00,-1.00,-2.00,-2.00,-4.00,+22.00,-1.00
-3.00,-3.00,+0.00,-2.00,-2.00,-2.00,-10.00,-11.00,-1.00,+2.00,+0.00,-2.00,+0.00,+1.00,-40.00,-2.00
+12.00,+0.00,-5.00,-2.00,+1.00,-1.00,+24.00,+4.00,-2.00,-4.00,-4.00,-1.00,+0.00,+0.00,+31.00,-2.00
+2.00,-5.00,-5.00,+0.00,-1.00,-4.00,-10.00,-8.00,-1.00,-3.00,-2.00,-1.00,+1.00,+2.00,+2.00,+4.00
+2.00,-1.00,-5.00,+0.00,-1.00,+3.00,+3.00,+0.00,-5.00,-2.00,+0.00,-2.00,+0.00,-2.00,+1.00,-3.00
-4.00,-2.00,+4.00,+3.00,+3.00,+1.00,+16.00,+57.00,-5.00,-15.00,+3.00,+2.00,-2.00,+0.00,+11.00,-12.00
+0.00,+4.00,+10.00,+1.00,+0.00,+8.00,+11.00,+14.00,-6.00,+2.00,+2.00,-3.00,-2.00,-2.00,-33.00,+10.00
+2.00,+2.00,+1.00,-4.00,-3.00,+1.00,-6.00,-22.00,+10.00,+2.00,-5.00,+3.00,-3.00,-8.00,+8.00,-15.00
+3.00,+0.00,-2.00,-3.00,-1.00,-1.00,+6.00,+0.00,-5.00,-1.00,-9.00,-5.00,-2.00,-1.00,-42.00,+2.00
+2.00,-1.00,-4.00,-2.00,+0.00,+5.00,-2.00,-15.00,+2.00,+0.00,-3.00,+0.00,-2.00,-1.00,+17.00,-3.00
-13.00,-2.00,-2.00,+2.00,+1.00,-5.00,-11.00,-5.00,-2.00,+1.00,-6.00,-2.00,-4.00,-4.00,-1.00,-8.00
-5.00,-3.00,-2.00,+1.00,+1.00,-3.00,-2.00,+3.00,-5.00,-7.00,+6.00,+0.00,+1.00,+4.00,+11.00,+2.00
+1.00,-3.00,+0.00,+0.00,+0.00,+0.00,+5.00,+0.00,+4.00,+5.00,+4.00,+3.00,-2.00,-4.00,-11.00,+3.00
-2.00,+0.00,-3.00,-3.00,-2.00,-4.00,+1.00,-12.00,+0.00,+3.00,+1.00,-2.00,-1.00,+1.00,+6.00,+2.00
-3.00,-1.00,-4.00,-3.00,-3.00,-3.00,-6.00,-5.00,-2.00,-6.00,+1.00,+0.00,-1.00,-1.00,-5.00,-4.00
-3.00,-2.00,-1.00,-1.00,-1.00,-1.00,-6.00,-4.00,-4.00,+1.00,+1.00,-1.00,-1.00,+0.00,-5.00,+2.00
+2.00,-1.00,-2.00,-1.00,+0.00,-2.00,-1.00,+0.00,+0.00,-3.00,-2.00,-2.00,+1.00,-1.00,+12.00,-2.00
-3.00,-1.00,+0.00,-1.00,+0.00,-1.00,+1.00,+1.00,-5.00,-3.00,-7.00,-2.00,+1.00,+0.00,-1.00,+6.00
-1.00,-1.00,-2.00,-1.00,-3.00,-2.00,-5.00,-7.00,+2.00,-3.00,-1.00,-2.00,+1.00,-1.00,+0.00,-1.00
-6.00,-1.00,-3.00,+0.00,+0.00,+0.00,-8.00,+2.00,+0.00,+2.00,-1.00,-2.00,-2.00,-1.00,-2.00,+0.00
+11.00,+3.00,+2.00,+0.00,-1.00,-2.00,-5.00,+6.00,-3.00,-4.00,+0.00,+0.00,+0.00,+2.00,+4.00,-4.00
-4.00,-1.00,-7.00,-1.00,-3.00,-1.00,+9.00,-23.00,-2.00,-2.00,+0.00,+0.00,-2.00,-1.00,-27.00,-2.00
+4.00,+5.00,+6.00,+0.00,+0.00,+1.00,+9.00,+6.00,+2.00,+0.00,-3.00,-1.00,-1.00,-1.00,+9.00,+3.00
+0.00,-2.00,-2.00,-2.00,+1.00,-3.00,+4.00,+34.00,-4.00,+1.00,+0.00,+0.00,+1.00,-1.00,+13.00,-1.00
-4.00,+2.00,+1.00,+1.00,+0.00,-2.00,-7.00,+0.00,+0.00,-3.00,+0.00,+0.00,-2.00,-4.00,-6.00,-3.00
-3.00,-1.00,+0.00,-1.00,-1.00,+0.00,-12.00,-11.00,+2.00,+2.00,-1.00,-1.00,-1.00,-1.00,-2.00,+2.00
-2.00,-4.00,-4.00,+1.00,-1.00,-2.00,-5.00,-11.00,+1.00,-1.00,-6.00,-2.00,-2.00,-1.00,-7.00,-1.00
+3.00,-3.00,+1.00,-1.00,-2.00,+0.00,+3.00,-3.00,-3.00,+0.00,+0.00,-1.00,-1.00,+0.00,+6.00,+1.00
-4.00,-1.00,-1.00,-2.00,-1.00,+3.00,+1.00,-15.00,-2.00,-3.00,+2.00,-1.00,-1.00,+4.00,-9.00,-2.00
-9.00,+1.00,+1.00,-1.00,-1.00,+0.00,+3.00,+8.00,-2.00,+1.00,-3.00,+0.00,-3.00,-9.00,+9.00,+3.00
+0.00,-3.00,-2.00,+0.00,-2.00,+0.00,-1.00,+0.00,-2.00,-1.00,+1.00,-3.00,-3.00,+1.00,+5.00,-2.00
+5.00,+2.00,-1.00,+1.00,-1.00,+1.00,+0.00,+0.00,+3.00,-4.00,-2.00,-2.00,-1.00,-3.00,-7.00,-1.00
-15.00,-5.00,-3.00,-2.00,-3.00,-3.00,-15.00,-12.00,+0.00,+2.00,-3.00,-1.00,+2.00,-1.00,-4.00,+0.00
+6.00,+3.00,+2.00,+0.00,+0.00,-2.00,-12.00,-13.00,+0.00,+1.00,+0.00,+1.00,+2.00,+3.00,+7.00,+5.00
+2.00,-2.00,-3.00,-3.00,-1.00,+1.00,+19.00,+8.00,-3.00,+3.00,+1.00,+0.00,+0.00,+0.00,-6.00,-2.00
-4.00,+2.00,+0.00,-1.00,-1.00,-2.00,-2.00,+22.00,-1.00,+3.00,-2.00,-2.00,-2.00,-1.00,+29.00,+12.00
+2.00,+1.00,+0.00,+0.00,+1.00,+1.00,+21.00,+7.00,-1.00,-2.00,-13.00,-6.00,-2.00,-5.00,-33.00,-10.00
-3.00,-3.00,+0.00,-1.00,-1.00,-2.00,-9.00,-6.00,+2.00,+5.00,+4.00,-1.00,-1.00,-2.00,+26.00,-2.00
-7.00,-4.00,-3.00,-1.00,-1.00,-7.00,-13.00,-3.00,-1.00,-5.00,+1.00,+0.00,+0.00,-1.00,-4.00,+7.00
-6.00,-3.00,-1.00,-2.00,-1.00,-2.00,-2.00,-18.00,-1.00,-2.00,-2.00,-1.00,-2.00,+2.00,+0.00,-6.00
+5.00,-2.00,-1.00,-3.00,-2.00,-2.00,-1.00,+6.00,-3.00,-1.00,+1.00,+0.00,-4.00,+1.00,+17.00,+4.00
+5.00,-2.00,+0.00,+1.00,+0.00,+1.00,+4.00,+1.00,-1.00,-5.00,-2.00,-3.00,-2.00,+0.00,-17.00,-7.00
-2.00,-2.00,-4.00,+0.00,-1.00,-1.00,-10.00,-15.00,+0.00,-3.00,-1.00,-1.00,+0.00,-1.00,-1.00,-3.00
+9.00,+0.00,+0.00,+0.00,-3.00,-2.00,+6.00,-3.00,-2.00,-2.00,-1.00,-2.00,-1.00,-1.00,-4.00,+1.00
-2.00,-4.00,-1.00,-1.00,-1.00,-1.00,-3.00,+18.00,-1.00,+0.00,+2.00,-1.00,-2.00,-1.00,-2.00,-5.00
-6.00,+2.00,+1.00,-2.00,+0.00,-2.00,-5.00,-13.00,-3.00,-6.00,-2.00,-1.00,+0.00,+1.00,-2.00,+3.00
+5.00,+1.00,-3.00,-2.00,-2.00,-1.00,+7.00,+6.00,-3.00,+3.00,+2.00,+1.00,-1.00,-2.00,+1.00,-3.00
-4.00,-2.00,+1.00,-3.00,-2.00,+1.00,-6.00,-2.00,-2.00,-2.00,-7.00,-2.00,+0.00,+0.00,-16.00,-1.00
-3.00,+1.00,-2.00,+1.00,-1.00,-1.00,-7.00,-9.00,-1.00,-5.00,+5.00,+0.00,-1.00,-4.00,+3.00,-6.00
+3.00,-4.00,-8.00,-3.00,-2.00,+0.00,+1.00,+5.00,-2.00,-3.00,-3.00,-2.00,+1.00,+3.00,-3.00,-2.00
-4.00,+0.00,-4.00,-2.00,-2.00,-3.00,-12.00,-24.00,+1.00,+6.00,+0.00,-2.00,-2.00,-5.00,+11.00,-4.00
-8.00,-1.00,-1.00,-2.00,+0.00,-6.00,-1.00,-21.00,+2.00,-1.00,-5.00,+1.00,-3.00,-4.00,-27.00,-1.00
+14.00,+2.00,+1.00,+0.00,+0.00,-11.00,+7.00,+57.00,-2.00,-1.00,+3.00,+2.00,-2.00,+2.00,+15.00,-3.00
+4.00,+5.00,+3.00,+2.00,+4.00,+3.00,+5.00,+9.00,-3.00,-3.00,-2.00,-2.00,-1.00,+8.00,-13.00,-5.00
-3.00,-1.00,+0.00,+0.00,+1.00,+8.00,-10.00,-5.00,-2.00,-3.00,-2.00,+0.00,+2.00,-9.00,+4.00,+1.00
-7.00,-4.00,-1.00,-1.00,-1.00,+1.00,-3.00,-14.00,-1.00,+0.00,-6.00,-1.00,-2.00,-2.00,-13.00,-7.00
+1.00,+0.00,-1.00,-2.00,-3.00,-1.00,-6.00,-29.00,+2.00,+1.00,+0.00,-1.00,+0.00,-2.00,+3.00,+14.00
-4.00,-4.00,-3.00,+0.00,-4.00,-5.00,-1.00,+2.00,-3.00,+0.00,-2.00,-1.00,-1.00,-2.00,+3.00,+0.00
-1.00,+0.00,+1.00,+0.00,+0.00,-2.00,+3.00,+13.00,-1.00,-2.00,-2.00,-1.00,+0.00,+4.00,-1.00,-2.00
-2.00,-1.00,+1.00,-1.00,-2.00,-4.00,-3.00,-9.00,-1.00,-9.00,+1.00,-1.00,+2.00,-1.00,+8.00,-1.00
-8.00,+2.00,+1.00,-2.00,-1.00,-1.00,-5.00,-10.00,+0.00,+0.00,+1.00,-1.00,+0.00,+0.00,+1.00,+1.00
+0.00,-2.00,-1.00,-1.00,-1.00,-1.00,+7.00,+12.00,+0.00,+0.00,-4.00,+0.00,-3.00,-2.00,+7.00,-1.00
-3.00,-4.00,+2.00,-1.00,+2.00,-1.00,-6.00,-7.00,-2.00,-6.00,-2.00,-1.00,-3.00,+1.00,-17.00,-2.00
+0.00,-6.00,-6.00,+1.00,-1.00,+1.00,+2.00,+9.00,-2.00,+4.00,+4.00,+1.00,-4.00,-3.00,+0.00,-3.00
+9.00,+5.00,+1.00,+0.00,+0.00,-1.00,-5.00,-12.00,-3.00,-2.00,-1.00,-2.00,-2.00,-1.00,-2.00,-6.00
+0.00,+0.00,+1.00,-2.00,-2.00,+3.00,+6.00,-3.00,+3.00,-3.00,+2.00,-1.00,+0.00,-4.00,+5.00,+2.00
-12.00,-4.00,-3.00,-3.00,-1.00,-1.00,+2.00,+3.00,+0.00,+0.00,-5.00,-2.00,-1.00,+2.00,-4.00,+2.00
+17.00,+7.00,+8.00,+1.00,-1.00,-1.00,+13.00,+21.00,-3.00,+2.00,+1.00,-3.00,+2.00,+1.00,-15.00,-2.00
+2.00,-2.00,-4.00,-3.00,-1.00,+2.00,-5.00,-6.00,+0.00,-2.00,-1.00,+0.00,-1.00,+1.00,-1.00,-4.00
-5.00,+1.00,+0.00,+0.00,-1.00,+1.00,+5.00,-3.00,-3.00,+5.00,+0.00,-2.00,-4.00,-3.00,+6.00,-3.00
+9.00,+0.00,-4.00,+0.00,+0.00,-16.00,+4.00,+12.00,-5.00,-5.00,-1.00,-2.00,+2.00,+2.00,-18.00,-14.00
-17.00,+0.00,+1.00,-2.00,+0.00,+4.00,-3.00,+7.00,-1.00,+1.00,-2.00,-1.00,-2.00,-2.00,+4.00,+24.00
-4.00,-3.00,+0.00,-2.00,-2.00,+1.00,-8.00,-33.00,+3.00,-8.00,+6.00,-1.00,-4.00,-12.00,-29.00,-16.00
-3.00,-4.00,-4.00,-3.00,-1.00,-2.00,-7.00,+23.00,+1.00,+6.00,-2.00,-2.00,-1.00,+0.00,+25.00,+0.00
-10.00,+1.00,-2.00,-2.00,-5.00,-2.00,-9.00,-34.00,-2.00,-1.00,+3.00,-2.00,-2.00,+1.00,+18.00,-9.00
+10.00,-4.00,-2.00,+2.00,+2.00,+0.00,-3.00,+33.00,-3.00,+2.00,+2.00,-3.00,-2.00,+3.00,-16.00,-5.00
-4.00,+1.00,+1.00,+1.00,-1.00,-2.00,-6.00,-17.00,-6.00,-6.00,-12.00,-1.00,+0.00,+1.00,-13.00,+3.00
-11.00,-3.00,-4.00,-2.00,-3.00,-15.00,-4.00,+14.00,-1.00,-7.00,+2.00,+0.00,-2.00,-3.00,-1.00,+4.00
+11.00,-2.00,+3.00,+0.00,+0.00,+30.00,+10.00,-14.00,+0.00,+0.00,-8.00,-3.00,-5.00,+2.00,+13.00,+2.00
-8.00,-5.00,-2.00,-1.00,-2.00,+8.00,-7.00,-44.00,+2.00,-1.00,-3.00,-2.00,+2.00,-2.00,-71.00,-7.00
+2.00,-1.00,+1.00,-1.00,-5.00,+14.00,+24.00,+45.00,+0.00,+0.00,+3.00,+1.00,+0.00,-3.00,+94.00,+16.00
+13.00,+2.00,+2.00,+0.00,+2.00,-28.00,+9.00,+66.00,-10.00,-9.00,-5.00,-2.00,+42.00,+3.00,-20.00,-21.00
-5.00,+1.00,+4.00,+2.00,+5.00,+14.00,-7.00,-18.00,+4.00,-1.00,-15.00,-2.00,-50.00,+1.00,-30.00,+41.00
-8.00,+1.00,-6.00,-1.00,+1.00,-11.00,+12.00,+14.00,+1.00,+6.00,+5.00,+1.00,-16.00,-25.00,+23.00,-24.00
-3.00,-2.00,-1.00,+0.00,+3.00,+2.00,-6.00,-29.00,+6.00,+11.00,+2.00,+1.00,+0.00,+1.00,+1.00,+21.00
-8.00,-4.00,-6.00,-2.00,-4.00,+2.00,-16.00,-36.00,+0.00,-7.00,+1.00,+1.00,+4.00,-4.00,+7.00,+0.00
-1.00,-1.00,-1.00,-2.00,-5.00,-10.00,-3.00,+18.00,-3.00,-5.00,+5.00,+0.00,+15.00,+7.00,-14.00,+3.00
+12.00,+5.00,+0.00,+2.00,+0.00,+0.00,-7.00,-21.00,-5.00,-5.00,-4.00,-3.00,+4.00,+8.00,+16.00,-2.00
-13.00,-7.00,-3.00,-2.00,-1.00,-6.00,-5.00,+5.00,-2.00,-10.00,-11.00,-4.00,-6.00,+2.00,-8.00,-24.00
+6.00,+0.00,+3.00,+0.00,-2.00,+3.00,+2.00,-4.00,+2.00,+4.00,+0.00,-2.00,-12.00,+0.00,-13.00,+7.00
+2.00,+0.00,-2.00,-1.00,-2.00,-9.00,-7.00,-14.00,+2.00,-6.00,+2.00,-3.00,+13.00,-5.00,-5.00,-14.00
+3.00,+1.00,-3.00,-2.00,-3.00,+0.00,-6.00,-11.00,-3.00,-6.00,-1.00,-1.00,-3.00,+2.00,+15.00,+4.00
-1.00,+0.00,+3.00,+0.00,+0.00,-9.00,+1.00,+23.00,-1.00,+1.00,-4.00,+0.00,+7.00,+0.00,-5.00,+0.00
-3.00,-7.00,-1.00,+0.00,+0.00,+14.00,+2.00,-26.00,-3.00,-1.00,-4.00,-2.00,-8.00,+2.00,+3.00,+4.00
-2.00,+2.00,-4.00,-2.00,-2.00,-6.00,-20.00,-38.00,+2.00,+2.00,-1.00,+1.00,-1.00,-5.00,-8.00,-5.00
-8.00,-7.00,-5.00,-3.00,-3.00,-3.00,+18.00,+19.00,+0.00,-7.00,-5.00,-4.00,+4.00,-2.00,+19.00,+3.00
+4.00,+3.00,+2.00,+1.00,+1.00,+0.00,-13.00,+25.00,-4.00,-10.00,-5.00,-2.00,-1.00,+2.00,+6.00,-2.00
-10.00,-2.00,+1.00,+0.00,+2.00,-5.00,+14.00,-32.00,+4.00,+6.00,+2.00,+0.00,-9.00,-6.00,-48.00,+2.00
+17.00,+0.00,+2.00,+0.00,+3.00,+30.00,+3.00,+120.00,-1.00,+2.00,+1.00,+0.00,-6.00,+11.00,+86.00,-37.00
+1.00,+6.00,+1.00,+0.00,-6.00,+0.00,-5.00,-2.00,-4.00,-4.00,+0.00,+1.00,+4.00,-14.00,-56.00,+5.00
-7.00,-6.00,-5.00,-1.00,+4.00,-19.00,+5.00,-3.00,+8.00,+5.00,-1.00,+1.00,+69.00,+14.00,+39.00,+21.00
-5.00,+5.00,-4.00,-2.00,+0.00,+14.00,-10.00,-14.00,+1.00,+6.00,+0.00,+1.00,-102.00,-6.00,+16.00,-13.00
-6.00,-6.00,-1.00,-2.00,-4.00,-17.00,+8.00,-7.00,-4.00,+4.00,+8.00,-2.00,+13.00,-22.00,-18.00,-1.00
+3.00,+3.00,+0.00,-1.00,+0.00,+2.00,+1.00,+6.00,+7.00,+2.00,+1.00,-2.00,+1.00,+16.00,+44.00,+23.00
+0.00,-2.00,-6.00,-3.00,-4.00,-4.00,+8.00,+42.00,-7.00,-12.00,+3.00,+0.00,-4.00,+4.00,-33.00,-3.00
-3.00,-2.00,+7.00,+2.00,-2.00,-6.00,-11.00,-32.00,-4.00,+10.00,+2.00,-2.00,+26.00,+0.00,+4.00,-1.00
-5.00,-3.00,+0.00,-4.00,-3.00,-12.00,-6.00,-12.00,+1.00,+6.00,+3.00,+3.00,+1.00,-1.00,-27.00,-6.00
-4.00,-2.00,+2.00,+0.00,+0.00,+3.00,-6.00,-12.00,-7.00,-9.00,-12.00,-2.00,-13.00,-2.00,+21.00,-13.00
-4.00,+2.00,+1.00,-1.00,+0.00,+0.00,+10.00,-27.00,-2.00,+3.00,+4.00,-1.00,-14.00,-1.00,-23.00,+7.00
+4.00,-1.00,-5.00,-3.00,-2.00,+0.00,-4.00,+10.00,-2.00,-7.00,+0.00,-1.00,+14.00,+2.00,+27.00,+2.00
-2.00,+0.00,+1.00,+2.00,+0.00,-1.00,-2.00,-10.00,-2.00,-2.00,-3.00,-3.00,-7.00,-2.00,-8.00,+4.00
-2.00,-3.00,-4.00,-2.00,+0.00,+1.00,-3.00,-5.00,-1.00,-1.00,+2.00,-1.00,+12.00,-2.00,-25.00,-2.00
+2.00,-3.00,-3.00,+1.00,-1.00,+3.00,-2.00,-9.00,+0.00,+3.00,+0.00,-2.00,-12.00,-1.00,+6.00,-6.00
+6.00,+6.00,-3.00,-4.00,-5.00,-2.00,+1.00,-6.00,+2.00,-4.00,-4.00,-1.00,+8.00,-5.00,-27.00,-1.00
+4.00,+2.00,+1.00,-2.00,-1.00,-4.00,-13.00,+3.00,-4.00,+1.00,+3.00,-2.00,+4.00,-6.00,+13.00,+0.00
+0.00,-4.00,-4.00,-3.00,-2.00,-7.00,+23.00,-33.00,+0.00,+3.00,+4.00,+2.00,+3.00,+7.00,+42.00,-1.00
+1.00,+4.00,+1.00,+1.00,+0.00,+5.00,+29.00,+42.00,-7.00,-2.00,-8.00,-4.00,-13.00,-5.00,+14.00,+4.00
+2.00,-8.00,-2.00,+2.00,+3.00,+7.00,-17.00,-73.00,-2.00,-3.00,+0.00,-1.00,+6.00,+4.00,+28.00,+6.00
+0.00,+2.00,-9.00,-5.00,-7.00,-15.00,+10.00,+23.00,+5.00,+2.00,-3.00,-2.00,+1.00,-7.00,-41.00,+13.00
-7.00,+0.00,+0.00,-2.00,-5.00,-27.00,-19.00,-24.00,-8.00,-9.00,+1.00,-1.00,-1.00,+3.00,-34.00,-31.00
-2.00,-6.00,-3.00,+0.00,+5.00,+17.00,+10.00,+81.00,+1.00,-3.00,-10.00,-4.00,-12.00,-4.00,+82.00,+5.00
-3.00,+9.00,+3.00,+0.00,+1.00,+17.00,-5.00,-42.00,+4.00,+4.00,-2.00,-1.00,+4.00,-3.00,-29.00,+2.00
-14.00,-10.00,-4.00,+1.00,+0.00,+0.00,+20.00,-63.00,-3.00,-6.00,+4.00,+0.00,+4.00,+1.00,-45.00,+39.00
-15.00,-1.00,-4.00,-1.00,-1.00,-5.00,-10.00,-15.00,+7.00,+12.00,-1.00,+0.00,+2.00,+9.00,+31.00,+2.00
-2.00,+5.00,+5.00,-2.00,-3.00,-19.00,-9.00,-50.00,-6.00,-1.00,+5.00,+0.00,-3.00,-12.00,-42.00,+8.00
+6.00,-1.00,-2.00,-2.00,-3.00,-13.00,-17.00,+10.00,+1.00,-5.00,+0.00,-1.00,-6.00,-8.00,+12.00,+0.00
+12.00,-2.00,+3.00,+0.00,+2.00,-29.00,+4.00,+50.00,-1.00,-19.00,-2.00,-1.00,+33.00,+11.00,+12.00,-17.00
-17.00,-1.00,-3.00,+0.00,+4.00,+15.00,+1.00,+7.00,-2.00,+9.00,-1.00,-2.00,-79.00,-9.00,-33.00,+8.00
-2.00,-5.00,-8.00,+0.00,-4.00,+14.00,-12.00,-30.00,+4.00,+2.00,-4.00,+2.00,-1.00,-11.00,-38.00,-5.00
-8.00,-10.00,+11.00,+0.00,+0.00,-18.00,-6.00,+29.00,+2.00,+5.00,+3.00,-2.00,+8.00,+6.00,+34.00,-12.00
-9.00,+0.00,+6.00,-1.00,-2.00,-2.00,-9.00,-62.00,-5.00,+0.00,-9.00,+1.00,-4.00,+5.00,-7.00,-5.00
+17.00,-1.00,-3.00,-5.00,-7.00,-7.00,-15.00,+17.00,+0.00,-7.00,+7.00,+1.00,+11.00,-28.00,+109.00,+13.00
+7.00,+5.00,+1.00,+2.00,+3.00,-22.00,+11.00,-4.00,-6.00,-6.00,-6.00,-5.00,+38.00,+22.00,-102.00,-32.00
-23.00,-9.00,-3.00,-3.00,-5.00,+18.00,-9.00,-27.00,-2.00,-6.00,+0.00,-4.00,-51.00,-21.00,+59.00,+19.00
+6.00,+18.00,+8.00,+0.00,+3.00,-7.00,+26.00,+48.00,-5.00,+5.00,+1.00,+0.00,+28.00,+12.00,+2.00,-7.00
+17.00,+7.00,+12.00,+5.00,+7.00,+3.00,+13.00,+36.00,-2.00,-6.00,-8.00,-6.00,+1.00,+10.00,+13.00,-13.00
+6.00,-2.00,+1.00,+2.00,+8.00,+63.00,-10.00,+58.00,+4.00,+3.00,+0.00,+0.00,-12.00,-14.00,-123.00,-12.00
+5.00,-4.00,-4.00,-1.00,+1.00,-29.00,+22.00,+20.00,+3.00,+2.00,+0.00,+3.00,+32.00,+21.00,+72.00,-2.00
-8.00,-5.00,-1.00,+1.00,+0.00,+17.00,-15.00,-44.00,+7.00,+3.00,+4.00,+0.00,-10.00,-25.00,-60.00,-29.00
-6.00,-4.00,-5.00,-1.00,-2.00,-10.00,+0.00,+61.00,-5.00,+3.00,+4.00,-1.00,+13.00,+20.00,+12.00,+5.00
-31.00,-13.00,-4.00,-3.00,-5.00,-18.00,-33.00,-128.00,-5.00,-2.00,-4.00,-2.00,+36.00,-16.00,+125.00,-15.00
+6.00,+3.00,-9.00,-3.00,-6.00,-21.00,+0.00,+82.00,-2.00,-6.00,-4.00,+2.00,-21.00,+6.00,-128.00,+18.00
-10.00,-2.00,-2.00,-2.00,-4.00,-13.00,-13.00,-36.00,-3.00,-18.00,-3.00,-2.00,-1.00,+21.00,+98.00,-1.00
+19.00,-1.00,-5.00,-2.00,-7.00,-28.00,+35.00,+48.00,-1.00,+2.00,-4.00,-1.00,-4.00,-11.00,+10.00,-8.00
-3.00,+0.00,-2.00,+0.00,+3.00,+40.00,+4.00,-61.00,+0.00,-3.00,-5.00,+0.00,+65.00,+12.00,-8.00,-3.00
+6.00,+8.00,+13.00,+0.00,-14.00,+36.00,+3.00,+19.00,-3.00,+8.00,+4.00,+0.00,-19.00,-18.00,+0.00,-19.00
-9.00,-6.00,-8.00,+0.00,-15.00,-10.00,-19.00,-31.00,+3.00,+0.00,+13.00,+0.00,-3.00,+26.00,+26.00,+16.00
-9.00,-12.00,-7.00,-2.00,-10.00,-12.00,-11.00,-19.00,+3.00,-3.00,-16.00,-1.00,+43.00,-42.00,+3.00,+15.00
-5.00,+14.00,+4.00,-4.00,-7.00,-59.00,-4.00,+12.00,+0.00,+4.00,+6.00,-1.00,-9.00,+27.00,+19.00,+5.00
+8.00,+0.00,-3.00,-1.00,+12.00,+20.00,-13.00,-34.00,-1.00,-2.00,-4.00,+1.00,+12.00,+16.00,-32.00,+4.00
+7.00,+2.00,+6.00,+1.00,+7.00,-10.00,+9.00,+23.00,-3.00,+5.00,-1.00,-1.00,-13.00,-36.00,-8.00,-3.00
-17.00,-1.00,-1.00,+2.00,+12.00,+14.00,-6.00,-42.00,-4.00,-12.00,-2.00,-4.00,-2.00,+20.00,+1.00,-11.00
+15.00,-1.00,-5.00,-2.00,+3.00,-17.00,+4.00,+31.00,-1.00,+5.00,+2.00,-2.00,-44.00,-14.00,-18.00,+4.00
-3.00,-2.00,-5.00,-1.00,+5.00,-7.00,+4.00,-1.00,-5.00,+0.00,-2.00,-2.00,+20.00,-4.00,-27.00,-6.00
-2.00,-2.00,-4.00,-2.00,+4.00,+11.00,+5.00,+24.00,-1.00,+0.00,-5.00,-2.00,-10.00,+17.00,+25.00,-7.00
+1.00,-4.00,+2.00,-1.00,+3.00,+14.00,-2.00,+16.00,-1.00,-1.00,+4.00,+3.00,+7.00,+2.00,-57.00,+2.00
+3.00,-5.00,-1.00,-4.00,-4.00,+7.00,-13.00,-25.00,+2.00,+8.00,+2.00,+0.00,-31.00,-19.00,+4.00,+9.00
+4.00,+6.00,+0.00,+1.00,+2.00,-13.00,+12.00,+32.00,+1.00,-3.00,-1.00,+1.00,+12.00,+23.00,+15.00,-2.00
-1.00,-2.00,-3.00,+1.00,+3.00,+16.00,-2.00,-6.00,-2.00,-4.00,-8.00,-3.00,+0.00,-22.00,+5.00,+5.00
-4.00,-2.00,+2.00,+0.00,+2.00,+5.00,-13.00,-39.00,+1.00,+3.00,+3.00,+3.00,-10.00,-1.00,-26.00,-2.00
+1.00,-4.00,-1.00,-2.00,-4.00,-5.00,+4.00,+13.00,+3.00,+1.00,+2.00,-2.00,-15.00,+2.00,+4.00,-2.00
+7.00,+2.00,+1.00,+2.00,-1.00,+1.00,+3.00,-7.00,-7.00,-8.00,-2.00,-3.00,+11.00,-1.00,+12.00,-9.00
-7.00,-2.00,-4.00,-2.00,+1.00,+2.00,+4.00,+1.00,-1.00,-1.00,-2.00,-2.00,-6.00,-3.00,-22.00,+2.00
+9.00,+3.00,+2.00,-1.00,+1.00,+5.00,-4.00,-12.00,-1.00,+2.00,-5.00,-2.00,+0.00,+1.00,-16.00,+0.00
+5.00,+1.00,+0.00,+1.00,-2.00,-1.00,+4.00,+8.00,-2.00,-4.00,+0.00,+0.00,-14.00,+6.00,+14.00,-5.00
-8.00,-4.00,-4.00,+0.00,+1.00,+0.00,+1.00,-16.00,-1.00,-6.00,-4.00,-4.00,+7.00,-10.00,-16.00,+0.00
+4.00,-2.00,-3.00,-1.00,-1.00,+7.00,-10.00,+2.00,-3.00,+1.00,-6.00,-2.00,-10.00,-10.00,-12.00,+3.00
+0.00,+0.00,+0.00,+1.00,-4.00,+2.00,+2.00,-6.00,+2.00,+0.00,+4.00,+0.00,+2.00,+8.00,-1.00,-1.00
-3.00,-4.00,+1.00,+0.00,-1.00,+4.00,+5.00,-1.00,+0.00,+0.00,+0.00,+1.00,-3.00,+1.00,+10.00,+1.00
-4.00,-2.00,-3.00,-3.00,-2.00,-2.00,-8.00,-16.00,+0.00,+2.00,-2.00,-1.00,-3.00,-17.00,-12.00,-2.00
+6.00,-2.00,+0.00,-3.00,+0.00,+2.00,+7.00,+0.00,-1.00,+4.00,+2.00,-1.00,-1.00,+2.00,-18.00,-1.00
+2.00,+0.00,-2.00,+1.00,-1.00,+3.00,-11.00,-1.00,-3.00,-3.00,+0.00,-1.00,+2.00,+6.00,+38.00,-2.00
-4.00,-3.00,-3.00,+1.00,-1.00,-10.00,+8.00,-9.00,-1.00,-4.00,+2.00,+0.00,-10.00,-7.00,-14.00,+0.00
+9.00,-1.00,-3.00,-3.00,+0.00,+0.00,+1.00,+3.00,+0.00,-1.00,+0.00,+1.00,+4.00,-5.00,-3.00,-1.00
+1.00,+0.00,-1.00,+1.00,+0.00,+3.00,+5.00,+6.00,+0.00,+1.00,-5.00,-3.00,-3.00,+10.00,+25.00,-4.00
-4.00,+2.00,+2.00,-1.00,-1.00,+2.00,+2.00,+1.00,+1.00,-3.00,-4.00,-2.00,+2.00,-8.00,-52.00,-2.00
+0.00,-1.00,+1.00,-2.00,-1.00,+2.00,-7.00,-6.00,-3.00,+0.00,+0.00,+1.00,-8.00,-12.00,-8.00,+0.00
-5.00,-2.00,-2.00,-1.00,-1.00,-7.00,+9.00,+13.00,-2.00,-2.00,-2.00,-2.00,+3.00,+1.00,+22.00,-2.00
-6.00,-3.00,-4.00,+0.00,-1.00,+9.00,-1.00,+3.00,-2.00,-1.00,-5.00,+0.00,+1.00,+4.00,-10.00,-4.00
-2.00,+1.00,+1.00,-1.00,-2.00,+2.00,-7.00,-28.00,-1.00,-4.00,+0.00,-1.00,-6.00,-7.00,-16.00,-2.00
-3.00,-2.00,-1.00,+1.00,-2.00,-4.00,-7.00,+12.00,-4.00,-3.00,+0.00,-1.00,-4.00,+2.00,+22.00,+5.00
+2.00,-1.00,-3.00,-1.00,+0.00,+7.00,+4.00,-3.00,-1.00,-1.00,-2.00,+0.00,+1.00,-3.00,-32.00,+0.00
+1.00,-3.00,+2.00,-2.00,-1.00,-5.00,-6.00,-4.00,+0.00,+4.00,+0.00,-1.00,-7.00,-3.00,+0.00,+0.00
-7.00,-3.00,-3.00,-3.00,-2.00,-2.00,+4.00,+5.00,-3.00,+1.00,-1.00,+0.00,+2.00,+2.00,-4.00,-3.00
+4.00,+0.00,-4.00,-2.00,-1.00,-1.00,-2.00,-4.00,+0.00,-3.00,-4.00,-3.00,-1.00,+1.00,-7.00,-2.00
+1.00,+1.00,+2.00,+1.00,+0.00,-1.00,+2.00,+0.00,-2.00,+0.00,-1.00,-4.00,+0.00,-1.00,+7.00,-1.00
+1.00,-1.00,-3.00,-1.00,-3.00,+1.00,+0.00,+2.00,-9.00,-4.00,-2.00,-2.00,-2.00,-4.00,-4.00,+1.00
-1.00,-1.00,-3.00,-1.00,+0.00,+1.00,-1.00,-9.00,-7.00,-6.00,-2.00,-3.00,-3.00,+1.00,-2.00,+1.00
-2.00,+0.00,+1.00,+0.00,-4.00,-2.00,+1.00,+3.00,-2.00,+4.00,-4.00,-2.00,-3.00,-2.00,+4.00,-2.00
-9.00,+0.00,-1.00,+0.00,+0.00,-1.00,-4.00,-8.00,-1.00,+1.00,-1.00,+1.00,-1.00,-2.00,-1.00,-4.00
+5.00,-4.00,-3.00,+0.00,+2.00,-1.00,+0.00,+8.00,+3.00,+1.00,-1.00,-1.00,-1.00,-3.00,-1.00,+1.00
+6.00,+1.00,+1.00,-2.00,+2.00,+2.00,-1.00,-7.00,+3.00,+3.00,+0.00,-1.00,-1.00,+2.00,-3.00,+0.00
-4.00,+0.00,-2.00,-1.00,-1.00,+0.00,-2.00,+5.00,+0.00,-2.00,+1.00,+0.00,+0.00,+0.00,+0.00,+1.00
+1.00,+0.00,-2.00,+0.00,-1.00,+1.00,+0.00,+2.00,+3.00,-5.00,-3.00,-2.00,+0.00,-2.00,+0.00,+0.00
-16.00,+3.00,+1.00,-2.00,-2.00,-1.00,-2.00,-6.00,+1.00,-3.00,-3.00,-2.00,+1.00,-2.00,-7.00,-4.00
+4.00,-3.00,-1.00,+1.00,+0.00,+1.00,-1.00,+0.00,+1.00,-4.00,-2.00,+1.00,+1.00,+2.00,+0.00,-2.00
-3.00,+1.00,-1.00,-3.00,-1.00,-1.00,+4.00,+3.00,-1.00,+1.00,-1.00,-1.00,-2.00,+2.00,+0.00,+3.00
-6.00,-3.00,+0.00,-1.00,+0.00,-1.00,-6.00,-5.00,-2.00,-3.00,-4.00,-3.00,-1.00,-4.00,-2.00,-2.00
+5.00,+2.00,+2.00,-1.00,-3.00,-3.00,+8.00,-13.00,-1.00,-2.00,+2.00,-2.00,-1.00,-3.00,-42.00,-5.00
-5.00,-4.00,-1.00,-2.00,-1.00,+1.00,-1.00,-6.00,-4.00,-2.00,+0.00,-3.00,-1.00,+0.00,+27.00,-2.00
-2.00,+3.00,+2.00,+0.00,+2.00,+1.00,+0.00,+0.00,-3.00,-2.00,-2.00,-6.00,-6.00,-3.00,-5.00,-3.00
+3.00,+1.00,-3.00,+1.00,+3.00,+0.00,-4.00,+24.00,-1.00,+1.00,+4.00,+6.00,-1.00,+0.00,+0.00,+1.00
+2.00,-2.00,-2.00,+1.00,+4.00,+3.00,+13.00,+9.00,-2.00,-3.00,-1.00,-2.00,-1.00,-2.00,-3.00,-1.00
-4.00,-2.00,-3.00,-1.00,-3.00,-3.00,-3.00,+10.00,+7.00,+3.00,-4.00,+4.00,+3.00,+2.00,+9.00,+1.00
-1.00,-2.00,+0.00,-3.00,-2.00,+4.00,-17.00,-27.00,+1.00,-2.00,+0.00,+2.00,+2.00,+9.00,-19.00,+2.00
-1.00,-3.00,+0.00,-1.00,-2.00,-1.00,+17.00,+0.00,-5.00,-2.00,-1.00,-4.00,-2.00,-7.00,+0.00,+0.00
+3.00,-1.00,-4.00,-1.00,-3.00,-1.00,+6.00,+33.00,-2.00,-2.00,-4.00,-4.00,-4.00,-3.00,+29.00,+2.00
+2.00,+7.00,+7.00,+0.00,-1.00,+2.00,+0.00,+0.00,-3.00,+2.00,+1.00,-3.00,-3.00,-4.00,-30.00,-6.00
-4.00,+0.00,-2.00,+2.00,+0.00,-2.00,-4.00,+9.00,-3.00,+0.00,+2.00,-2.00,-3.00,-4.00,+11.00,-6.00
-1.00,+0.00,-2.00,-1.00,-4.00,-4.00,-15.00,-19.00,-1.00,-8.00,-7.00,-2.00,-1.00,+3.00,-5.00,+0.00
-12.00,+2.00,-3.00,-1.00,+0.00,+1.00,-8.00,-28.00,-4.00,-14.00,+3.00,+1.00,+0.00,+1.00,+10.00,-4.00
+17.00,+3.00,+2.00,+0.00,+1.00,-2.00,+4.00,+10.00,-3.00,+10.00,+1.00,+0.00,-1.00,+0.00,+8.00,+12.00
-2.00,-3.00,-2.00,-2.00,+0.00,-3.00,+0.00,+24.00,+2.00,-4.00,-6.00,+2.00,+1.00,-1.00,-13.00,-2.00
-7.00,+0.00,+2.00,-1.00,-4.00,-3.00,+1.00,-8.00,+2.00,+7.00,-3.00,+6.00,+0.00,+0.00,+2.00,-3.00
-4.00,-4.00,-3.00,+1.00,-1.00,-3.00,-4.00,+5.00,+0.00,+0.00,-1.00,+2.00,-2.00,-1.00,+4.00,-4.00
+6.00,+2.00,+0.00,+0.00,-2.00,+0.00,-2.00,-3.00,-1.00,-2.00,+2.00,-3.00,-2.00,-2.00,-10.00,+0.00
+4.00,+0.00,+1.00,-1.00,-2.00,-2.00,+1.00,-8.00,+0.00,-2.00,+2.00,-1.00,-4.00,-4.00,+0.00,-2.00
-1.00,-3.00,-1.00,-2.00,+0.00,+1.00,-1.00,+6.00,-4.00,-4.00,-1.00,-3.00,-1.00,-3.00,+2.00,-5.00
-1.00,-3.00,-1.00,-1.00,-2.00,-2.00,-15.00,-4.00,+1.00,+5.00,+0.00,-1.00,-1.00,-1.00,+1.00,+4.00
-11.00,-5.00,-3.00,-1.00,-2.00,-2.00,+2.00,-2.00,+1.00,-2.00,-1.00,-1.00,-1.00,+0.00,-32.00,-6.00
+3.00,-6.00,+2.00,-1.00,-3.00,+0.00,-2.00,+19.00,-2.00,+1.00,+0.00,-2.00,-1.00,+2.00,+58.00,+6.00
-4.00,+0.00,-1.00,-1.00,-2.00,-1.00,-2.00,-47.00,-3.00,+0.00,+3.00,-4.00,+0.00,-3.00,-31.00,-4.00
+8.00,-5.00,-18.00,+1.00,+0.00,+0.00,-4.00,+5.00,+0.00,-8.00,-10.00,-1.00,+1.00,+3.00,+20.00,+1.00
+7.00,+13.00,+21.00,+1.00,+3.00,+4.00,+12.00,+17.00,-1.00,+8.00,+5.00,+0.00,-1.00,+2.00,-29.00,-6.00
+3.00,+0.00,-6.00,+1.00,+0.00,+0.00,+10.00,+29.00,+0.00,-3.00,+3.00,-3.00,-4.00,-8.00,+4.00,-1.00
+0.00,-2.00,+4.00,-2.00,-3.00,-2.00,-7.00,-13.00,+4.00,-4.00,-8.00,+1.00,-1.00,-1.00,-9.00,-1.00
+6.00,+1.00,+2.00,-2.00,-2.00,-8.00,-9.00,-10.00,-1.00,+2.00,+3.00,+1.00,-2.00,+1.00,-9.00,+0.00
-8.00,-9.00,-13.00,-1.00,-2.00,-2.00,-7.00,-12.00,-2.00,-10.00,-3.00,-3.00,-2.00,+1.00,+8.00,-1.00
-2.00,-2.00,+2.00,+2.00,+0.00,-3.00,-3.00,-4.00,-5.00,+0.00,+1.00,-2.00,-1.00,+2.00,-7.00,-4.00
+0.00,+3.00,-4.00,-1.00,+1.00,+0.00,-1.00,-8.00,-2.00,+2.00,+0.00,-4.00,-3.00,-3.00,+13.00,-2.00
+6.00,-1.00,+7.00,+0.00,-1.00,-1.00,-1.00,+4.00,-1.00,-1.00,-7.00,-2.00,-1.00,-5.00,-8.00,+4.00
-5.00,-5.00,-8.00,-2.00,-1.00,-2.00,-2.00,+1.00,-3.00,+3.00,-2.00,+1.00,-1.00,-3.00,+11.00,-5.00
-4.00,-2.00,+3.00,-2.00,-3.00,-2.00,+1.00,-20.00,+2.00,+3.00,-3.00,+0.00,-1.00,-3.00,-15.00,+0.00
+8.00,-2.00,+0.00,+1.00,+1.00,-1.00,+0.00,+19.00,-1.00,+1.00,+3.00,+0.00,-1.00,-5.00,+1.00,+4.00
-9.00,-2.00,+1.00,-4.00,-3.00,+0.00,-6.00,-8.00,+0.00,+3.00,+4.00,-1.00,+0.00,-3.00,-1.00,-3.00
-7.00,-2.00,-1.00,-2.00,-2.00,-4.00,+4.00,-7.00,+1.00,-5.00,+0.00,-2.00,+0.00,-1.00,-6.00,+0.00
+2.00,+3.00,-4.00,+1.00,-1.00,+6.00,+0.00,+9.00,+0.00,-2.00,-2.00,-1.00,+0.00,-2.00,+8.00,-1.00
+6.00,-1.00,-3.00,+0.00,+0.00,+0.00,+1.00,+0.00,-2.00,+0.00,+1.00,-2.00,-2.00,-2.00,+6.00,-6.00
-1.00,+1.00,+3.00,-2.00,+1.00,+2.00,-1.00,+12.00,-2.00,-1.00,-2.00,+2.00,-1.00,-3.00,-5.00,+1.00
-5.00,-6.00,-7.00,-3.00,-1.00,+0.00,-9.00,-22.00,-1.00,-2.00,-1.00,+0.00,-1.00,-1.00,+2.00,-3.00
-7.00,+0.00,+3.00,-2.00,-1.00,-5.00,-2.00,-9.00,+0.00,+4.00,+1.00,+1.00,-1.00,+0.00,-13.00,-1.00
+1.00,+0.00,+3.00,+3.00,+1.00,+1.00,+10.00,+15.00,-4.00,-5.00,+1.00,+0.00,+0.00,+1.00,+9.00,-2.00
+5.00,+0.00,-2.00,-3.00,-3.00,-1.00,+1.00,+1.00,-1.00,-1.00,-3.00,-4.00,-3.00,-3.00,-2.00,-5.00
-7.00,-6.00,-5.00,-1.00,+0.00,-2.00,-5.00,+0.00,-2.00,-4.00,-3.00,+2.00,-1.00,-1.00,+6.00,+0.00
+1.00,+1.00,+0.00,-1.00,-1.00,-3.00,-2.00,-10.00,-2.00,+2.00,-1.00,+0.00,+0.00,-1.00,-5.00,-5.00
-9.00,+0.00,-3.00,+0.00,+1.00,-1.00,-3.00,+10.00,-3.00,-7.00,-5.00,-3.00,+0.00,-1.00,+0.00,+0.00
+6.00,+1.00,+1.00,+1.00,+1.00,+1.00,+1.00,-12.00,-1.00,+4.00,+3.00,-3.00,+0.00,-2.00,-4.00,+1.00
+5.00,+0.00,-3.00,+0.00,-1.00,+1.00,-2.00,-22.00,+1.00,-5.00,-8.00,+2.00,-2.00,-1.00,+3.00,-3.00
-3.00,-2.00,-1.00,-4.00,-2.00,-1.00,-2.00,-2.00,-3.00,-3.00,+0.00,+0.00,-2.00,-1.00,-5.00,-1.00
-1.00,+1.00,+0.00,-2.00,-2.00,-2.00,-2.00,-5.00,-2.00,+0.00,+2.00,-2.00,-3.00,+0.00,+2.00,+1.00
-2.00,-4.00,-2.00,+0.00,-1.00,+0.00,-1.00,+0.00,+0.00,-1.00,-2.00,+0.00,-2.00,+2.00,-2.00,-1.00
+0.00,+0.00,-1.00,-1.00,-2.00,-1.00,+1.00,+8.00,-3.00,-2.00,-1.00,-3.00,-2.00,-3.00,+0.00,-4.00
+2.00,-3.00,+2.00,+0.00,-1.00,-2.00,-1.00,-9.00,-3.00,-4.00,-2.00,-2.00,-1.00,-1.00,-6.00,-2.00
-2.00,+0.00,-2.00,-2.00,-2.00,-2.00,-1.00,+5.00,+1.00,+5.00,+1.00,-1.00,+0.00,-1.00,+0.00,+1.00
+0.00,-2.00,+3.00,+0.00,+1.00,-2.00,-3.00,-6.00,+2.00,-2.00,-1.00,-2.00,+1.00,-1.00,-1.00,-2.00
-7.00,-3.00,-2.00,-1.00,+0.00,-2.00,-2.00,+4.00,+0.00,+0.00,+2.00,-2.00,+1.00,+0.00,+5.00,+1.00
+2.00,+2.00,-4.00,+1.00,-1.00,-2.00,+0.00,-9.00,-2.00,+1.00,-1.00,+0.00,-2.00,+0.00,-5.00,+1.00
+1.00,-1.00,-5.00,+1.00,+0.00,+0.00,-2.00,+8.00,-2.00,-4.00,-3.00,-3.00,-1.00,-2.00,-5.00,+1.00
-5.00,+3.00,+2.00,+0.00,+0.00,-2.00,+0.00,+4.00,-1.00,-10.00,+0.00,+2.00,-1.00,-2.00,+1.00,+0.00
-6.00,+1.00,+0.00,+0.00,+0.00,-1.00,-5.00,-5.00,-4.00,+8.00,-1.00,-3.00,+0.00,-1.00,-1.00,+0.00
+10.00,-1.00,-1.00,+0.00,+0.00,-1.00,+0.00,+1.00,+2.00,+2.00,-2.00,-3.00,-1.00,-2.00,-3.00,+3.00
-1.00,-3.00,+1.00,+0.00,+0.00,+1.00,+3.00,+1.00,+0.00,+1.00,-1.00,-1.00,-3.00,+0.00,+5.00,+1.00
-5.00,-1.00,-1.00,-1.00,+0.00,+0.00,+2.00,-3.00,-4.00,+3.00,+1.00,+0.00,-1.00,-1.00,-8.00,-2.00
-12.00,-1.00,-1.00,-5.00,-4.00,-1.00,-2.00,+12.00,+2.00,-6.00,-7.00,+0.00,-2.00,-1.00,-8.00,-2.00
-6.00,-3.00,-4.00,-1.00,-1.00,+0.00,-4.00,-7.00,-2.00,-2.00,-1.00,-1.00,-1.00,-1.00,+23.00,+0.00
-4.00,-5.00,-1.00,-3.00,-1.00,-2.00,-5.00,+0.00,-1.00,+3.00,-2.00,+0.00,-2.00,+0.00,-18.00,-4.00
+6.00,+2.00,+0.00,+1.00,+1.00,+0.00,+4.00,+3.00,-1.00,+2.00,-1.00,-1.00,+0.00,+0.00,+3.00,+1.00
+2.00,-2.00,-1.00,+0.00,+0.00,+0.00,-2.00,-2.00,-3.00,-4.00,+2.00,+0.00,-1.00,+1.00,+0.00,+0.00
-3.00,-3.00,-2.00,-2.00,-1.00,-2.00,+1.00,-6.00,-2.00,-1.00,-3.00,-3.00,-2.00,-2.00,-3.00,-3.00
-2.00,-2.00,+0.00,-3.00,-3.00,-1.00,-5.00,-2.00,-2.00,-1.00,-3.00,+0.00,+0.00,-2.00,+6.00,-1.00
-6.00,+2.00,-1.00,+0.00,+0.00,-3.00,+0.00,+4.00,-1.00,-2.00,+0.00,-1.00,-1.00,+0.00,-2.00,-3.00
+5.00,-1.00,+1.00,+1.00,+0.00,+0.00,-2.00,+0.00,+0.00,-4.00,-3.00,-3.00,+0.00,+0.00,+2.00,+0.00
-1.00,-2.00,-4.00,-2.00,-1.00,-3.00,+1.00,-2.00,+4.00,+2.00,+1.00,+1.00,-1.00,-1.00,-11.00,+0.00
+5.00,+0.00,-5.00,-1.00,-2.00,-1.00,+0.00,-2.00,-3.00,+0.00,+4.00,+0.00,+1.00,-1.00,+2.00,-3.00
-4.00,-2.00,+0.00,-1.00,+0.00,-2.00,-2.00,-6.00,+1.00,+5.00,+1.00,-1.00,-1.00,-1.00,-5.00,+1.00
+6.00,+0.00,-1.00,+0.00,-4.00,-1.00,+1.00,-3.00,-6.00,+0.00,+0.00,-1.00,-2.00,-2.00,+2.00,-1.00
-4.00,-1.00,-5.00,-3.00,+0.00,-1.00,-4.00,+3.00,+1.00,-2.00,+1.00,-1.00,-1.00,-2.00,-3.00,+1.00
+1.00,+1.00,+1.00,+0.00,+0.00,+0.00,-5.00,+0.00,+1.00,+0.00,-1.00,-1.00,+1.00,-1.00,+4.00,+1.00
+12.00,+0.00,+0.00,-3.00,-2.00,+1.00,+10.00,+16.00,+0.00,+0.00,-3.00,-3.00,-2.00,+0.00,-14.00,-3.00
-1.00,-1.00,+0.00,-1.00,+0.00,-2.00,-2.00,-4.00,+0.00,-4.00,-1.00,+0.00,+0.00,-1.00,-2.00,+0.00
-2.00,-5.00,-1.00,-4.00,-2.00,-1.00,+2.00,+9.00,-4.00,-3.00,+1.00,-1.00,-1.00,+2.00,-2.00,-2.00
-5.00,-2.00,+0.00,-2.00,-2.00,-1.00,-4.00,-1.00,+1.00,+1.00,+3.00,+0.00,-3.00,-1.00,-5.00,-2.00
-5.00,-2.00,-1.00,+0.00,-2.00,+0.00,+0.00,-6.00,-1.00,-4.00,-3.00,-1.00,+0.00,+0.00,+2.00,-3.00
-2.00,-4.00,+0.00,-1.00,+1.00,-2.00,-3.00,-3.00,-1.00,+0.00,-1.00,-1.00,-1.00,+0.00,+20.00,+1.00
+8.00,+2.00,+2.00,-2.00,-1.00,-1.00,+0.00,+0.00,+1.00,-1.00,+0.00,+1.00,+0.00,-2.00,-21.00,-1.00
+1.00,-2.00,-1.00,+0.00,+0.00,-3.00,+1.00,-1.00,+1.00,-2.00,+1.00,-1.00,+1.00,+0.00,+10.00,-4.00
-6.00,-3.00,+1.00,+1.00,+0.00,-2.00,-8.00,-12.00,-1.00,-1.00,-3.00,-3.00,+0.00,-3.00,-6.00,-5.00
-5.00,-2.00,-2.00,-2.00,-3.00,+0.00,+5.00,+6.00,+1.00,-2.00,-2.00,-1.00,-2.00,-1.00,-3.00,+1.00
-2.00,+1.00,+2.00,+1.00,+0.00,-1.00,-2.00,-4.00,-2.00,-5.00,-4.00,-1.00,+0.00,+1.00,+6.00,-2.00
-5.00,+0.00,+1.00,-2.00,-2.00,-1.00,+1.00,-3.00,+0.00,-3.00,+2.00,+1.00,-1.00,+2.00,-10.00,-1.00
-1.00,+1.00,-2.00,-2.00,-2.00,-2.00,-1.00,+5.00,-4.00,+8.00,-2.00,+1.00,+0.00,-1.00,+9.00,-1.00
+5.00,+0.00,-2.00,+0.00,+0.00,+2.00,-2.00,-4.00,+1.00,-1.00,-4.00,-2.00,-1.00,-1.00,-6.00,-1.00
-6.00,-2.00,-3.00,+1.00,+0.00,+2.00,+1.00,+13.00,-4.00,+0.00,+0.00,-2.00,-2.00,-2.00,-1.00,-5.00
+0.00,-3.00,-3.00,-1.00,+0.00,+1.00,-2.00,-2.00,-3.00,-3.00,-6.00,-5.00,-2.00,-1.00,-4.00,+0.00
+0.00,-7.00,-4.00,-2.00,-2.00,-4.00,-4.00,-4.00,-2.00,-5.00,+0.00,+0.00,-2.00,-1.00,+1.00,+0.00
+7.00,+3.00,+1.00,+0.00,-1.00,-3.00,-2.00,+1.00,-2.00,+0.00,+2.00,+1.00,-1.00,-1.00,+2.00,-3.00
-5.00,+1.00,-1.00,-1.00,+0.00,+1.00,+3.00,-6.00,-1.00,-4.00,-5.00,+0.00,+0.00,+1.00,-3.00,+2.00
-8.00,+0.00,-3.00,+1.00,+0.00,-3.00,+1.00,+10.00,-1.00,-5.00,-1.00,-1.00,-1.00,+1.00,+1.00,+3.00
+4.00,-2.00,+2.00,+0.00,+0.00,+1.00,+1.00,-1.00,+1.00,+1.00,+0.00,+0.00,-1.00,-5.00,+3.00,-1.00
-6.00,-3.00,-1.00,-1.00,-2.00,-2.00,-1.00,-1.00,+0.00,+0.00,+1.00,-4.00,-1.00,+1.00,-5.00,+0.00
-6.00,-3.00,-1.00,-1.00,+0.00,-1.00,-3.00,+0.00,+0.00,-2.00,+0.00,-1.00,+0.00,-2.00,-2.00,-4.00
+2.00,-1.00,-3.00,-1.00,-4.00,-1.00,+0.00,-2.00,+0.00,-3.00,-5.00,-2.00,+1.00,+2.00,+0.00,-2.00
-1.00,+0.00,-4.00,-3.00,-3.00,+0.00,-1.00,+1.00,-3.00,-3.00,-6.00,-2.00,-1.00,-2.00,+0.00,+0.00
-5.00,+1.00,-2.00,-1.00,-2.00,-1.00,-3.00,-3.00,+1.00,-5.00,+0.00,+0.00,-1.00,-1.00,-4.00,+0.00
+11.00,+3.00,+1.00,+0.00,+2.00,+0.00,-5.00,-14.00,-3.00,+4.00,+1.00,-2.00,-1.00,+0.00,+1.00,+0.00
+1.00,-3.00,-1.00,+0.00,+0.00,-1.00,-2.00,-4.00,-1.00,-5.00,-2.00,-1.00,+1.00,-1.00,-5.00,+2.00
-1.00,+1.00,+1.00,-1.00,-1.00,-2.00,-1.00,+2.00,-1.00,+1.00,+1.00,+0.00,-2.00,-1.00,-11.00,-3.00
-7.00,-4.00,-3.00,-3.00,-2.00,-1.00,-1.00,-3.00,-3.00,-3.00,-3.00,-1.00,-2.00,-1.00,+3.00,-4.00
+2.00,+0.00,+2.00,+0.00,-1.00,-2.00,+1.00,+2.00,-1.00,-1.00,-2.00,+0.00,+1.00,-1.00,-6.00,+0.00
-3.00,-1.00,-2.00,+0.00,-1.00,+1.00,-3.00,-1.00,-1.00,+4.00,+1.00,+0.00,-2.00,-3.00,+3.00,-5.00
-5.00,-2.00,-3.00,-1.00,-1.00,+1.00,-2.00,-3.00,-2.00,+1.00,+0.00,-2.00,-1.00,+0.00,+6.00,+3.00
+4.00,-2.00,-4.00,+0.00,+0.00,+0.00,+0.00,+1.00,-2.00,-3.00,-2.00,-2.00,-1.00,-1.00,-8.00,-3.00
-6.00,+2.00,+0.00,-2.00,-3.00,-2.00,+1.00,+0.00,+1.00,+2.00,+1.00,-1.00,-1.00,-3.00,+3.00,-1.00
+3.00,-1.00,+0.00,-1.00,+0.00,-2.00,-1.00,-1.00,-2.00,-6.00,+0.00,+1.00,-1.00,-2.00,+1.00,-2.00
-1.00,+0.00,+1.00,-1.00,+0.00,-2.00,-2.00,-2.00,+0.00,-4.00,-2.00,+0.00,+0.00,+1.00,-1.00,-3.00
-2.00,+0.00,-3.00,-2.00,+1.00,+0.00,-1.00,+2.00,-1.00,-1.00,+3.00,-1.00,+0.00,-1.00,+2.00,-2.00
-4.00,-4.00,-2.00,-2.00,+0.00,-1.00,-2.00,-10.00,-3.00,-4.00,-3.00,-2.00,-2.00,+0.00,-3.00,-2.00
+7.00,+0.00,-1.00,+1.00,+0.00,+1.00,-1.00,+11.00,-2.00,+3.00,+2.00,-2.00,+1.00,+0.00,+1.00,+1.00
-4.00,-3.00,-6.00,-2.00,-2.00,+1.00,-2.00,-4.00,+1.00,+2.00,+0.00,-1.00,-2.00,-2.00,-7.00,-4.00
+4.00,+2.00,+1.00,+1.00,-2.00,+0.00,+1.00,+3.00,-1.00,-1.00,-1.00,+0.00,-2.00,-2.00,-2.00,+3.00
+0.00,-1.00,-1.00,-2.00,-2.00,-2.00,+0.00,-3.00,+0.00,+0.00,-5.00,-1.00,-3.00,+0.00,+0.00,-3.00
-3.00,-2.00,+1.00,-2.00,+0.00,-1.00,+0.00,-5.00,-2.00,+3.00,-2.00,-2.00,-2.00,-3.00,-5.00,-2.00
-1.00,-2.00,+0.00,+0.00,+0.00,-2.00,-2.00,-2.00,+0.00,+5.00,+0.00,-2.00,-2.00,+1.00,+4.00,-1.00
-1.00,-3.00,+0.00,-1.00,-1.00,-1.00,-2.00,-6.00,+0.00,+1.00,-2.00,-3.00,-1.00,-1.00,-1.00,-1.00
-1.00,-3.00,-1.00,-1.00,+0.00,-2.00,-3.00,+3.00,-3.00,-4.00,-4.00,-1.00,+1.00,-1.00,-2.00,-1.00
-5.00,-1.00,-2.00,-2.00,+0.00,+0.00,-1.00,-4.00,-2.00,+0.00,-2.00,-1.00,-1.00,+1.00,+2.00,+4.00
+2.00,+2.00,+1.00,-1.00,-1.00,+2.00,+6.00,+8.00,-2.00,-6.00,-2.00,+0.00,+0.00,+1.00,+2.00,-2.00
+1.00,+1.00,+0.00,+1.00,+0.00,-1.00,+3.00,+2.00,+1.00,+5.00,+0.00,-1.00,+0.00,-2.00,-5.00,-5.00
-4.00,-3.00,-2.00,-1.00,-3.00,+0.00,+2.00,+0.00,-1.00,-8.00,+0.00,-2.00,-3.00,-1.00,-1.00,+1.00
-3.00,-2.00,-1.00,-1.00,-2.00,-2.00,-2.00,-4.00,-2.00,-4.00,-2.00,+1.00,-1.00,-2.00,-5.00,-4.00
-2.00,-2.00,+0.00,-2.00,-1.00,-1.00,-4.00,-2.00,+2.00,-3.00,-1.00,-2.00,+0.00,-2.00,+0.00,+4.00
-5.00,-3.00,-1.00,-1.00,+1.00,-2.00,-6.00,-6.00,-2.00,-2.00,+0.00,+2.00,+0.00,+1.00,+2.00,-1.00
+4.00,+0.00,+1.00,+0.00,-1.00,-1.00,-2.00,-4.00,+0.00,+3.00,+2.00,+0.00,+0.00,+0.00,+1.00,-3.00
+7.00,+1.00,-3.00,-2.00,+0.00,+0.00,+2.00,+11.00,-1.00,-3.00,-3.00,-1.00,+0.00,+0.00,+2.00,-1.00
-11.00,-3.00,-6.00,+0.00,+1.00,-3.00,-9.00,-2.00,-3.00,+0.00,-4.00,+0.00,-1.00,+0.00,-1.00,-1.00
-5.00,+2.00,-2.00,-3.00,-2.00,-1.00,+0.00,+2.00,+3.00,-3.00,-3.00,-2.00,-1.00,-3.00,-2.00,+1.00
-1.00,-1.00,-2.00,+0.00,+0.00,+0.00,+1.00,+6.00,-3.00,+2.00,-1.00,-1.00,-2.00,+1.00,-1.00,-2.00
+1.00,-1.00,+0.00,-2.00,+0.00,+1.00,+1.00,-6.00,-1.00,+1.00,+2.00,-3.00,-2.00,-3.00,-1.00,-4.00
+8.00,+0.00,-3.00,+0.00,-2.00,+1.00,-2.00,-21.00,-1.00,-1.00,+1.00,+1.00,+0.00,-1.00,-3.00,-5.00
-2.00,-4.00,-1.00,-2.00,-1.00,-1.00,+3.00,+12.00,-2.00,-1.00,+0.00,+1.00,-1.00,-1.00,+0.00,+4.00
-7.00,-2.00,-1.00,-1.00,-1.00,-3.00,+3.00,-1.00,-2.00,+3.00,+1.00,+0.00,-2.00,-1.00,+0.00,-3.00
+1.00,+2.00,-1.00,+0.00,+0.00,-1.00,-2.00,-5.00,+0.00,+0.00,-2.00,-1.00,-2.00,+1.00,-2.00,+3.00
-1.00,+1.00,-3.00,-1.00,+0.00,-1.00,+4.00,-6.00,-3.00,-3.00,-1.00,-1.00,+0.00,-2.00,+1.00,-1.00
+2.00,+0.00,+0.00,+2.00,+0.00,-1.00,-3.00,-7.00,-3.00,-1.00,+1.00,-3.00,-1.00,+0.00,+0.00,-4.00
+1.00,-1.00,+0.00,-1.00,-2.00,-1.00,-1.00,+4.00,+1.00,+1.00,+0.00,-3.00,+1.00,+0.00,+0.00,+1.00
-2.00,-2.00,+0.00,+1.00,-2.00,-3.00,+0.00,+1.00,+0.00,+0.00,+1.00,+0.00,-1.00,+1.00,+1.00,-1.00
-5.00,-2.00,-1.00,-2.00,-1.00,+0.00,-3.00,+0.00,-2.00,-3.00,-2.00,-1.00,-2.00,-2.00,-4.00,+1.00
+4.00,+1.00,+2.00,+0.00,-2.00,+1.00,+0.00,-6.00,-2.00,-2.00,+1.00,-1.00,-2.00,-2.00,-1.00,-2.00
-1.00,-2.00,-3.00,-2.00,+0.00,+1.00,-2.00,+13.00,-1.00,-3.00,-3.00,-3.00,+0.00,-2.00,-1.00,+0.00
+0.00,-1.00,-2.00,-2.00,-3.00,+0.00,-1.00,-3.00,-2.00,-2.00,-3.00,-1.00,+0.00,-1.00,-3.00,-4.00
+3.00,+2.00,+3.00,-1.00,-1.00,-1.00,-3.00,+2.00,-5.00,-13.00,+2.00,-1.00,+1.00,-1.00,-2.00,-1.00
-5.00,+0.00,-1.00,+0.00,-1.00,-3.00,+2.00,-5.00,+0.00,+14.00,-3.00,+0.00,-2.00,-2.00,+0.00,+1.00
+5.00,-1.00,+1.00,-1.00,+1.00,+3.00,-3.00,-5.00,+2.00,-4.00,-2.00,+0.00,-1.00,+0.00,-1.00,-1.00
+1.00,+1.00,+1.00,-3.00,-1.00,-1.00,+1.00,+2.00,-1.00,-2.00,-4.00,-4.00,-3.00,-2.00,-12.00,-1.00
-2.00,-2.00,-1.00,-2.00,+0.00,-1.00,-2.00,+1.00,-2.00,-1.00,+1.00,-1.00,-4.00,-1.00,+0.00,+1.00
+4.00,-2.00,-3.00,-3.00,-2.00,-1.00,+0.00,+4.00,+0.00,-6.00,-1.00,-1.00,-1.00,-1.00,-2.00,+0.00
-13.00,+2.00,-1.00,+1.00,+1.00,-4.00,-2.00,-14.00,-2.00,+3.00,-1.00,-1.00,-1.00,+0.00,+0.00,-3.00
-1.00,-2.00,-2.00,-2.00,+0.00,+0.00,-1.00,+0.00,-2.00,-6.00,-1.00,+1.00,-1.00,-3.00,-2.00,-1.00
-4.00,+0.00,+0.00,-2.00,-2.00,-2.00,-8.00,-7.00,-2.00,+1.00,+1.00,-2.00,+0.00,+1.00,+0.00,+1.00
+3.00,-1.00,+0.00,-2.00,+0.00,-1.00,+2.00,-7.00,-1.00,-4.00,-1.00,-2.00,-1.00,-1.00,-3.00,-4.00
-5.00,-2.00,-3.00,-1.00,-1.00,+0.00,-2.00,+9.00,-1.00,+2.00,-2.00,+0.00,-1.00,+0.00,-3.00,-3.00
+3.00,+2.00,+4.00,+0.00,+1.00,+1.00,+0.00,-5.00,-1.00,-1.00,-1.00,-1.00,+0.00,-3.00,-2.00,+1.00
-3.00,-1.00,-3.00,-1.00,+0.00,-1.00,-1.00,-2.00,-3.00,+0.00,+2.00,-2.00,-1.00,+0.00,-9.00,-7.00
-3.00,-2.00,-1.00,+0.00,+0.00,+1.00,-2.00,-1.00,+0.00,-2.00,-5.00,-1.00,+1.00,-2.00,+2.00,+0.00
-2.00,+1.00,-5.00,-2.00,-2.00,-1.00,-3.00,-5.00,+2.00,-1.00,-1.00,+1.00,+0.00,-2.00,-5.00,-1.00
+2.00,+0.00,-3.00,-1.00,-1.00,-2.00,+0.00,-3.00,-2.00,+1.00,+3.00,+1.00,+0.00,+1.00,+6.00,-2.00
+6.00,+0.00,+1.00,+2.00,+0.00,-2.00,+2.00,+6.00,+0.00,+0.00,-2.00,-1.00,+1.00,-2.00,+3.00,-1.00
-2.00,-2.00,+0.00,-1.00,-2.00,-2.00,-2.00,-2.00,-1.00,-6.00,-3.00,-1.00,+1.00,-1.00,-6.00,-4.00
+1.00,+0.00,-2.00,+0.00,+0.00,+1.00,-4.00,-6.00,-2.00,-5.00,-1.00,+0.00,+1.00,-2.00,+3.00,+2.00
-3.00,+0.00,+0.00,-2.00,-1.00,-3.00,-7.00,-3.00,+0.00,-2.00,-2.00,-3.00,-2.00,-1.00,+1.00,-2.00
-1.00,-1.00,-1.00,-1.00,-1.00,+0.00,+4.00,+7.00,+0.00,+3.00,+2.00,+1.00,-3.00,-2.00,+2.00,+0.00
+1.00,-2.00,+0.00,+0.00,+0.00,-1.00,+1.00,+4.00,-2.00,-3.00,-2.00,+0.00,-2.00,+1.00,-8.00,-1.00
+5.00,+0.00,+1.00,-1.00,+0.00,-1.00,+1.00,-9.00,+0.00,-2.00,-2.00,-1.00,-3.00,-4.00,-1.00,+4.00
-5.00,-2.00,-2.00,+1.00,-1.00,+1.00,-5.00,+2.00,-2.00,-3.00,-1.00,+0.00,-1.00,+0.00,+1.00,-1.00
+2.00,-1.00,+1.00,-1.00,-3.00,-2.00,+0.00,+1.00,-1.00,+1.00,+0.00,-2.00,-3.00,-2.00,-6.00,-1.00
-1.00,+1.00,-3.00,-1.00,-2.00,-2.00,-2.00,-1.00,-2.00,+0.00,+1.00,-1.00,+0.00,+0.00,+3.00,-1.00
-1.00,+0.00,+0.00,-1.00,-4.00,-3.00,-3.00,-2.00,-2.00,-2.00,+0.00,+0.00,-1.00,+1.00,-1.00,-2.00
+3.00,-1.00,-5.00,+0.00,-3.00,-2.00,+1.00,-4.00,-1.00,+3.00,-2.00,-4.00,-2.00,-1.00,-3.00,+1.00
+0.00,-1.00,-2.00,-1.00,-2.00,-2.00,+2.00,+5.00,-1.00,+1.00,-1.00,+0.00,-3.00,-1.00,+2.00,-2.00
+0.00,+0.00,-4.00,-1.00,+1.00,+1.00,-1.00,+3.00,+0.00,+1.00,-3.00,-2.00,-2.00,+0.00,+2.00,+4.00
-4.00,-2.00,+3.00,-1.00,+0.00,-2.00,-1.00,-7.00,-1.00,-5.00,-2.00,+0.00,-1.00,-2.00,-4.00,-3.00
+0.00,-1.00,+1.00,-1.00,+0.00,-2.00,+1.00,+2.00,-1.00,-3.00,+1.00,+1.00,+0.00,-1.00,+2.00,-1.00
-7.00,-3.00,+0.00,+0.00,+0.00,+0.00,+1.00,+0.00,+0.00,-6.00,-8.00,-1.00,-2.00,+1.00,-19.00,-4.00
+3.00,+1.00,-2.00,+0.00,-1.00,-1.00,-8.00,-3.00,-1.00,-2.00,-5.00,+0.00,-2.00,-1.00,+57.00,+0.00
-1.00,-1.00,-3.00,-1.00,-1.00,-1.00,+2.00,+2.00,-2.00,-11.00,+2.00,+0.00,-3.00,+0.00,-36.00,-5.00
-6.00,-3.00,-1.00,+0.00,+1.00,+1.00,+7.00,+4.00,+1.00,+11.00,-1.00,-1.00,-1.00,+0.00,+0.00,+1.00
+6.00,+3.00,+0.00,-2.00,-2.00,-1.00,-5.00,+4.00,+0.00,+0.00,+1.00,+0.00,+0.00,+1.00,-17.00,-2.00
+1.00,+4.00,+3.00,-2.00,+0.00,-1.00,+8.00,+8.00,-2.00,-3.00,+3.00,-3.00,-1.00,-1.00,+17.00,-3.00
+0.00,+1.00,+0.00,-1.00,+2.00,+0.00,-2.00,+0.00,-1.00,-6.00,-4.00,-5.00,+0.00,-1.00,+4.00,+0.00
-6.00,-2.00,+0.00,+1.00,-1.00,-2.00,-1.00,+0.00,-3.00,-2.00,+0.00,-1.00,-1.00,-3.00,-1.00,-2.00
+8.00,-2.00,-3.00,-3.00,-2.00,+1.00,-6.00,-35.00,+0.00,+1.00,-1.00,-2.00,-1.00,-2.00,+4.00,-1.00
-5.00,-1.00,+0.00,+2.00,-1.00,-2.00,-4.00,+3.00,-2.00,+6.00,+1.00,+1.00,+0.00,-2.00,-21.00,-2.00
+3.00,+2.00,+1.00,+2.00,+0.00,-1.00,+3.00,+6.00,-1.00,+2.00,-1.00,-2.00,-1.00,+1.00,+17.00,+2.00
-3.00,+0.00,-4.00,-4.00,-1.00,+0.00,-2.00,+3.00,-2.00,-4.00,-1.00,-1.00,-2.00,-3.00,-6.00,-4.00
-2.00,-2.00,-2.00,+0.00,+1.00,-1.00,+2.00,-7.00,-1.00,-3.00,+0.00,-1.00,+2.00,-2.00,+5.00,+1.00
+0.00,+1.00,+0.00,+0.00,-3.00,-1.00,-3.00,+5.00,+0.00,-4.00,-4.00,-1.00,+0.00,+0.00,-12.00,-2.00
-8.00,-5.00,-3.00,-1.00,-2.00,-3.00,-2.00,-2.00,+1.00,+0.00,-1.00,+1.00,+1.00,+0.00,+2.00,-4.00
-6.00,-4.00,-3.00,-2.00,-3.00,-1.00,-2.00,-3.00,+1.00,+1.00,-2.00,-2.00,-1.00,+0.00,+0.00,-2.00
+0.00,+0.00,+0.00,+3.00,+2.00,-2.00,-1.00,+9.00,-1.00,+2.00,-5.00,-2.00,-3.00,-1.00,+6.00,-2.00
-6.00,-1.00,-1.00,-2.00,-1.00,+0.00,+0.00,-3.00,+0.00,-2.00,+2.00,+0.00,-2.00,+0.00,-11.00,+2.00
+7.00,-2.00,+1.00,+2.00,-1.00,-1.00,+1.00,+6.00,-4.00,+3.00,+2.00,+1.00,+0.00,-1.00,+15.00,-1.00
-3.00,-2.00,+1.00,-2.00,+0.00,-1.00,-2.00,-4.00,-3.00,-7.00,-3.00,+0.00,-2.00,-1.00,-22.00,+1.00
-4.00,-4.00,-3.00,-1.00,+1.00,+0.00,+0.00,+5.00,-2.00,+1.00,+1.00,-1.00,+0.00,-1.00,+4.00,-4.00
+3.00,-4.00,+0.00,-1.00,+1.00,-2.00,+0.00,+1.00,-2.00,+2.00,+0.00,-2.00,-1.00,-1.00,-7.00,-3.00
-2.00,-2.00,-2.00,+0.00,-2.00,-1.00,-1.00,-2.00,-1.00,+0.00,-4.00,-3.00,-2.00,+0.00,-2.00,-1.00
+3.00,+2.00,-2.00,+0.00,-1.00,-3.00,-3.00,-4.00,-1.00,-7.00,-5.00,-1.00,+1.00,-1.00,+8.00,-1.00
-4.00,+1.00,+0.00,-1.00,-1.00,+0.00,+0.00,+5.00,-1.00,-2.00,-1.00,-1.00,+0.00,-1.00,+5.00,+5.00
-6.00,-5.00,+0.00,+0.00,+1.00,+0.00,-2.00,-5.00,-3.00,-3.00,-5.00,-2.00,-3.00,-3.00,-15.00,-2.00
+2.00,-1.00,-1.00,-2.00,-1.00,-1.00,-4.00,-4.00,-3.00,+0.00,+2.00,+1.00,-3.00,-2.00,-1.00,-3.00
-1.00,+0.00,+2.00,+0.00,+0.00,+0.00,+9.00,+9.00,+3.00,+0.00,+1.00,+1.00,-2.00,-1.00,+10.00,-1.00
+2.00,-2.00,-1.00,-1.00,-3.00,-2.00,+1.00,+5.00,-1.00,-2.00,-3.00,+0.00,-3.00,-2.00,-19.00,+1.00
-3.00,+3.00,-2.00,-2.00,-1.00,-4.00,-1.00,-7.00,+0.00,-1.00,+0.00,+0.00,-2.00,-1.00,+32.00,-4.00
+0.00,+0.00,+2.00,-1.00,-1.00,+3.00,+0.00,+6.00,+1.00,-6.00,-1.00,-1.00,+0.00,-1.00,-12.00,+2.00
-1.00,-3.00,+2.00,-2.00,+2.00,-2.00,-12.00,-8.00,-1.00,+1.00,+0.00,-3.00,+2.00,+3.00,+3.00,+1.00
-4.00,-4.00,-2.00,-1.00,-3.00,-1.00,+7.00,+6.00,-2.00,-4.00,-1.00,-4.00,-1.00,-1.00,+1.00,-2.00
-6.00,+3.00,+0.00,+2.00,-1.00,+1.00,+0.00,-6.00,+3.00,-1.00,+2.00,-2.00,+0.00,-5.00,-5.00,-2.00
+1.00,-1.00,-3.00,-2.00,-1.00,-2.00,-1.00,-3.00,-3.00,-4.00,-6.00,-2.00,-1.00,+0.00,-2.00,-2.00
+0.00,+0.00,-2.00,-2.00,-2.00,+1.00,+0.00,+1.00,-2.00,-2.00,-5.00,+1.00,+2.00,+1.00,+2.00,-1.00
-6.00,-2.00,-3.00,-1.00,+0.00,+1.00,-6.00,-5.00,-2.00,+0.00,+0.00,-1.00,-1.00,+0.00,+5.00,+0.00
+3.00,-4.00,-1.00,-2.00,+0.00,-2.00,-1.00,-2.00,-1.00,-1.00,+2.00,-1.00,-1.00,-3.00,-11.00,-2.00
+4.00,-2.00,-1.00,-1.00,-1.00,+0.00,+0.00,+3.00,+0.00,-3.00,-3.00,-2.00,+0.00,-2.00,+2.00,-1.00
-1.00,-2.00,+0.00,+0.00,-2.00,+0.00,-1.00,+0.00,-1.00,-2.00,+1.00,-1.00,+2.00,-1.00,-5.00,+1.00
+1.00,+0.00,+1.00,-1.00,+0.00,-2.00,-2.00,-1.00,-1.00,-1.00,-3.00,+0.00,-1.00,-1.00,+5.00,+1.00
-1.00,+0.00,+1.00,+0.00,-2.00,-1.00,+1.00,-2.00,-2.00,-1.00,+1.00,+1.00,-2.00,+1.00,-9.00,+0.00
-2.00,+0.00,-3.00,-2.00,-2.00,-1.00,+0.00,-9.00,+0.00,-1.00,-1.00,+1.00,-2.00,-1.00,-1.00,+1.00
+0.00,-1.00,-2.00,-1.00,+0.00,+0.00,+1.00,+12.00,-2.00,-1.00,-1.00,+0.00,-3.00,-2.00,+4.00,+0.00
-3.00,-2.00,-2.00,-1.00,-2.00,+0.00,+0.00,+3.00,-1.00,+2.00,+1.00,-1.00,-1.00,-3.00,+0.00,-2.00
+3.00,-2.00,-2.00,-1.00,+0.00,-1.00,-3.00,-5.00,+0.00,+0.00,-2.00,-2.00,-1.00,+1.00,-5.00,+0.00
+0.00,-3.00,+0.00,+0.00,+0.00,-2.00,-2.00,-10.00,+0.00,+2.00,+1.00,+0.00,+0.00,-2.00,+1.00,-4.00
-2.00,-1.00,-2.00,+2.00,-1.00,-2.00,+5.00,-4.00,-2.00,+0.00,+2.00,+0.00,-1.00,+0.00,+3.00,-1.00
-6.00,+8.00,+4.00,-1.00,+0.00,-5.00,+0.00,+10.00,-3.00,-1.00,-1.00,-1.00,+1.00,+0.00,+4.00,-3.00
-4.00,-3.00,-3.00,-2.00,-3.00,+2.00,-3.00,+0.00,+1.00,-4.00,-3.00,-3.00,+0.00,-3.00,-15.00,+4.00
+5.00,-1.00,+0.00,+0.00,+0.00,-1.00,-1.00,-8.00,-1.00,+9.00,+3.00,+1.00,-1.00,+0.00,-2.00,-1.00
-8.00,-4.00,-3.00,-1.00,-3.00,+0.00,-3.00,+12.00,-1.00,+4.00,-9.00,-4.00,-5.00,-5.00,-4.00,-1.00
+3.00,+0.00,-1.00,+0.00,+1.00,+1.00,-3.00,-3.00,+2.00,+1.00,-2.00,+0.00,+1.00,-2.00,+1.00,-2.00
+0.00,-2.00,+0.00,-1.00,-1.00,-2.00,+2.00,+0.00,-3.00,-2.00,-1.00,+2.00,-1.00,+0.00,+2.00,-2.00
+4.00,+2.00,-1.00,+0.00,+0.00,-3.00,-3.00,-3.00,+0.00,-5.00,-2.00,-1.00,-3.00,-2.00,-1.00,-1.00
-1.00,+0.00,+0.00,+0.00,-1.00,-1.00,-3.00,-10.00,-1.00,-5.00,+0.00,+0.00,-1.00,+0.00,-2.00,-3.00
-2.00,-2.00,-3.00,-2.00,-3.00,+0.00,+2.00,-1.00,+0.00,+1.00,+1.00,+0.00,-1.00,+0.00,+2.00,+0.00
-2.00,+0.00,-1.00,-2.00,-3.00,+2.00,-9.00,+3.00,+0.00,-10.00,-5.00,+0.00,-1.00,+1.00,-3.00,+0.00
-7.00,-1.00,-2.00,-1.00,-1.00,+0.00,+6.00,-1.00,-1.00,-2.00,+0.00,-2.00,-2.00,+1.00,+4.00,+2.00
-1.00,+0.00,-3.00,-2.00,-1.00,-2.00,+4.00,+8.00,-3.00,-1.00,+2.00,+0.00,+0.00,-1.00,-15.00,-5.00
-3.00,-2.00,+2.00,+2.00,+2.00,+1.00,-4.00,-1.00,-1.00,+0.00,-2.00,-4.00,-2.00,-2.00,+17.00,-2.00
-3.00,-3.00,-2.00,-1.00,+1.00,-2.00,-2.00,-8.00,+0.00,+5.00,+1.00,+0.00,-1.00,-1.00,-5.00,+0.00
-8.00,-1.00,+0.00,+0.00,-1.00,+0.00,-1.00,+0.00,-2.00,-5.00,-2.00,-2.00,+0.00,+0.00,+2.00,+0.00
-1.00,+0.00,+0.00,+0.00,+1.00,-1.00,-4.00,-9.00,+0.00,+0.00,+1.00,-2.00,-2.00,+2.00,-2.00,+3.00
+0.00,-1.00,-5.00,+0.00,-2.00,-2.00,-6.00,-12.00,-3.00,-8.00,-9.00,-3.00,+0.00,+1.00,-1.00,-1.00
+2.00,+1.00,-1.00,-2.00,-1.00,+0.00,+9.00,+21.00,-3.00,-2.00,-1.00,+0.00,-1.00,+0.00,-2.00,+0.00
-3.00,-2.00,-1.00,-1.00,+0.00,+0.00,+0.00,+14.00,-3.00,+4.00,-2.00,-1.00,-1.00,-2.00,+16.00,-1.00
-1.00,+0.00,+3.00,-1.00,-2.00,+0.00,+1.00,-6.00,+1.00,+1.00,+1.00,-2.00,-3.00,-3.00,-17.00,+0.00
-1.00,-2.00,-2.00,-3.00,-2.00,-4.00,-4.00,-1.00,-1.00,-4.00,-1.00,+1.00,-2.00,+0.00,-7.00,-3.00
+1.00,+0.00,-3.00,+1.00,+0.00,+1.00,-3.00,-9.00,+0.00,-2.00,+0.00,-2.00,+0.00,+0.00,+3.00,-3.00
+0.00,-2.00,+2.00,-1.00,+0.00,-1.00,-1.00,-3.00,-2.00,-1.00,-1.00,-2.00,-1.00,-1.00,-4.00,-2.00
+8.00,-1.00,-2.00,+2.00,+0.00,+1.00,-2.00,-8.00,-3.00,+0.00,-1.00,-1.00,-1.00,-3.00,+8.00,-2.00
-2.00,-1.00,-2.00,-1.00,-2.00,-1.00,+1.00,+1.00,-1.00,-3.00,-3.00,-1.00,-1.00,+1.00,-1.00,+0.00
-4.00,-2.00,-1.00,-3.00,-1.00,-2.00,+0.00,-7.00,-1.00,-4.00,-2.00,+0.00,-1.00,-2.00,-7.00,-4.00
-2.00,-2.00,-3.00,-2.00,-1.00,-2.00,-1.00,+5.00,+2.00,-4.00,+2.00,+1.00,-2.00,-2.00,-3.00,-2.00
+5.00,-1.00,-1.00,-4.00,-2.00,-3.00,-6.00,-9.00,-2.00,+0.00,+0.00,-1.00,+1.00,+0.00,+3.00,-2.00
+7.00,+1.00,+2.00,+0.00,+2.00,+0.00,+6.00,+4.00,+0.00,+3.00,+0.00,+0.00,+0.00,-1.00,-6.00,-5.00
-9.00,-1.00,-3.00,-1.00,-1.00,-1.00,+2.00,-4.00,-3.00,-2.00,+0.00,+0.00,-3.00,+1.00,+5.00,-2.00
-1.00,-1.00,-1.00,-1.00,-1.00,-2.00,-10.00,-7.00,-2.00,+2.00,+0.00,-2.00,-2.00,-2.00,-2.00,+0.00
-5.00,+1.00,-1.00,-2.00,-1.00,-1.00,+7.00,+6.00,-2.00,-3.00,-1.00,-1.00,-3.00,+1.00,+6.00,+3.00
-2.00,-1.00,-3.00,-1.00,-1.00,+0.00,+4.00,+4.00,-1.00,-4.00,-1.00,-2.00,-4.00,-1.00,+2.00,-1.00
-2.00,-2.00,+0.00,+0.00,-3.00,+1.00,+0.00,-4.00,+1.00,+1.00,+0.00,+0.00,+0.00,-2.00,-15.00,-3.00
+0.00,-1.00,-2.00,-1.00,-2.00,+1.00,+0.00,-9.00,-1.00,-1.00,-2.00,+2.00,+0.00,-2.00,+11.00,+0.00
+2.00,-1.00,-1.00,+0.00,+0.00,-2.00,-6.00,-6.00,+0.00,+1.00,+0.00,-2.00,+1.00,+0.00,-20.00,-2.00
-4.00,-3.00,+0.00,-1.00,+0.00,+0.00,-2.00,-3.00,-1.00,+0.00,+3.00,+0.00,+1.00,+1.00,+1.00,+0.00
+6.00,+2.00,+1.00,+0.00,+0.00,-2.00,-2.00,-1.00,-1.00,-3.00,-5.00,-2.00,-1.00,-1.00,+8.00,+3.00
-4.00,-2.00,-2.00,-2.00,+0.00,-2.00,-4.00,-5.00,-1.00,+3.00,-1.00,-4.00,+0.00,+0.00,-12.00,-5.00
+7.00,+1.00,+0.00,+1.00,+0.00,+3.00,-4.00,-17.00,-3.00,-5.00,-1.00,+0.00,-2.00,-2.00,+7.00,-6.00
+5.00,+1.00,+2.00,+0.00,+1.00,-2.00,+3.00,+0.00,-1.00,-3.00,+0.00,+0.00,-2.00,-1.00,-1.00,+1.00
-1.00,-1.00,-3.00,-2.00,-1.00,-1.00,-3.00,-2.00,-3.00,+9.00,+1.00,-2.00,-4.00,-3.00,-4.00,-1.00
+7.00,-1.00,-1.00,-1.00,-2.00,+0.00,+1.00,+7.00,+0.00,+4.00,-3.00,-1.00,-1.00,-2.00,-2.00,+0.00
-8.00,+0.00,-1.00,-1.00,+0.00,-2.00,+0.00,-12.00,+0.00,-7.00,-7.00,-1.00,+0.00,-1.00,+6.00,-3.00
-4.00,-4.00,-3.00,-3.00,-2.00,-1.00,-1.00,-5.00,-1.00,+0.00,+1.00,-1.00,+2.00,+0.00,-6.00,+0.00
-3.00,-1.00,+0.00,+0.00,+0.00,-1.00,-3.00,+5.00,+0.00,-3.00,+0.00,+1.00,+1.00,-1.00,+3.00,+0.00
-2.00,+1.00,+1.00,-2.00,-1.00,-3.00,+1.00,-9.00,-1.00,+2.00,+1.00,+1.00,+1.00,+2.00,-3.00,+0.00
-1.00,-2.00,-4.00,+0.00,-1.00,-1.00,-7.00,+14.00,-3.00,+1.00,+0.00,+0.00,-1.00,-3.00,-5.00,+1.00
-5.00,+2.00,+1.00,-2.00,-1.00,+2.00,+4.00,+7.00,-2.00,-4.00,-6.00,+0.00,-3.00,-3.00,+14.00,-4.00
+3.00,-3.00,-3.00,+1.00,+0.00,-1.00,+12.00,+4.00,-1.00,+1.00,-1.00,-1.00,-1.00,-1.00,+1.00,+5.00
-12.00,-3.00,-2.00,-2.00,-1.00,-4.00,-4.00,+2.00,-1.00,-3.00,-2.00,-4.00,-2.00,-2.00,-11.00,-2.00
-5.00,-2.00,-1.00,-2.00,-3.00,+0.00,-2.00,-5.00,+1.00,+0.00,+2.00,-1.00,+0.00,+0.00,+2.00,-3.00
-1.00,-5.00,+0.00,-1.00,+2.00,-3.00,-6.00,-4.00,-1.00,+0.00,+4.00,-1.00,-1.00,-1.00,+1.00,-3.00
+1.00,-3.00,-1.00,+0.00,-1.00,+0.00,-3.00,-2.00,+0.00,-5.00,-1.00,-1.00,+0.00,-1.00,-19.00,+6.00
-2.00,+2.00,+1.00,+0.00,+1.00,+2.00,+2.00,-2.00,-1.00,-3.00,-3.00,-2.00,+0.00,-1.00,+5.00,+0.00
-4.00,-2.00,+2.00,+1.00,+1.00,-6.00,+1.00,+3.00,-2.00,-2.00,-2.00,-2.00,-3.00,-1.00,+0.00,+0.00
-1.00,+0.00,-2.00,-3.00,-2.00,-1.00,-3.00,-3.00,+0.00,+0.00,+1.00,-2.00,-1.00,-5.00,-10.00,-1.00
+7.00,+0.00,+3.00,+1.00,+1.00,-2.00,-3.00,-5.00,+0.00,-1.00,-1.00,+2.00,+1.00,+3.00,+11.00,-3.00
+3.00,+1.00,-4.00,-3.00,-3.00,+0.00,+1.00,+7.00,-2.00,-6.00,-1.00,-1.00,-1.00,+0.00,-5.00,-1.00
-2.00,-1.00,-2.00,-2.00,-2.00,-2.00,-2.00,-3.00,+0.00,+1.00,+0.00,-1.00,-1.00,+1.00,+1.00,+4.00
+2.00,+0.00,-1.00,+1.00,+0.00,-1.00,-2.00,+10.00,+1.00,+1.00,-4.00,-1.00,+1.00,+0.00,+1.00,+3.00
-4.00,-1.00,-1.00,-2.00,+0.00,-2.00,-3.00,-4.00,+0.00,-3.00,+0.00,-2.00,-1.00,-3.00,+3.00,-4.00
+0.00,-3.00,+0.00,+1.00,-1.00,+1.00,+0.00,+5.00,+2.00,-3.00,-1.00,-1.00,+1.00,+0.00,-5.00,-3.00
-2.00,-5.00,-4.00,-2.00,+1.00,-1.00,+2.00,-1.00,+2.00,-1.00,-2.00,-3.00,-1.00,-1.00,+2.00,+0.00
-9.00,+0.00,+1.00,-2.00,-1.00,-1.00,-1.00,-5.00,-1.00,+2.00,+0.00,+0.00,-2.00,+0.00,-2.00,+2.00
-1.00,-2.00,-4.00,-1.00,-1.00,-1.00,+1.00,-1.00,-1.00,+5.00,+2.00,-2.00,-3.00,-1.00,-1.00,+3.00
+4.00,+0.00,+4.00,-1.00,+1.00,+0.00,+0.00,-2.00,-4.00,-2.00,-1.00,+1.00,-3.00,+0.00,-1.00,-2.00
+5.00,-1.00,-2.00,-3.00,-3.00,+2.00,+0.00,+2.00,-1.00,+2.00,+1.00,+2.00,-1.00,-1.00,+3.00,-1.00
-7.00,-1.00,-4.00,-2.00,-2.00,-3.00,-7.00,-11.00,-1.00,-6.00,-11.00,+0.00,+0.00,-3.00,-8.00,-2.00
+0.00,+1.00,-1.00,-1.00,+0.00,-3.00,+7.00,+10.00,-4.00,-4.00,-1.00,-2.00,+0.00,+1.00,+5.00,-5.00
+7.00,+1.00,-3.00,-2.00,-3.00,+5.00,+4.00,+6.00,-1.00,-3.00,+0.00,-2.00,-1.00,-2.00,-2.00,-1.00
-5.00,-2.00,+0.00,+0.00,+0.00,-3.00,-1.00,-2.00,-2.00,+1.00,+0.00,-1.00,-1.00,-1.00,-1.00,-3.00
+0.00,-4.00,-3.00,+0.00,+1.00,+0.00,-4.00,-1.00,+2.00,+1.00,+3.00,-2.00,-1.00,-2.00,-4.00,+0.00
+4.00,+3.00,+1.00,+0.00,-1.00,-1.00,-6.00,-2.00,+0.00,-4.00,+0.00,+0.00,-1.00,-3.00,-1.00,-5.00
-13.00,-4.00,-5.00,+1.00,-1.00,-2.00,-2.00,-2.00,+0.00,-2.00,-1.00,-3.00,-1.00,+0.00,+4.00,-1.00
+2.00,+3.00,+3.00,-1.00,-3.00,-1.00,-6.00,-6.00,-3.00,+2.00,-2.00,-2.00,-1.00,-1.00,-1.00,+0.00
+6.00,+1.00,+2.00,+0.00,-1.00,+1.00,+4.00,+10.00,-2.00,+0.00,+2.00,-1.00,-2.00,-1.00,-4.00,-1.00
-15.00,-4.00,-1.00,-2.00,-4.00,-2.00,-3.00,+25.00,-2.00,-4.00,-3.00,-1.00,-1.00,+2.00,+3.00,-2.00
+0.00,+1.00,+1.00,+0.00,-2.00,-2.00,-3.00,-8.00,-1.00,+2.00,+1.00,+1.00,-2.00,-5.00,-9.00,+2.00
-10.00,+1.00,-1.00,+0.00,+0.00,+0.00,+0.00,+0.00,-3.00,-5.00,-4.00,-2.00,-1.00,-1.00,-2.00,-1.00
+1.00,-4.00,+1.00,-1.00,-1.00,-1.00,-3.00,-6.00,+0.00,+1.00,+2.00,-2.00,+0.00,+0.00,+0.00,+0.00
+10.00,+1.00,-1.00,-1.00,+0.00,+0.00,+0.00,-9.00,+0.00,-1.00,-2.00,-2.00,-1.00,-4.00,-6.00,+1.00
+0.00,-2.00,-1.00,-1.00,+1.00,-2.00,-2.00,-1.00,-2.00,-4.00,-2.00,-2.00,-2.00,+1.00,+0.00,-2.00
-6.00,-3.00,-2.00,-3.00,-1.00,-3.00,-2.00,-2.00,-3.00,+0.00,+0.00,+1.00,-1.00,-2.00,+1.00,-3.00
+4.00,-2.00,-2.00,-2.00,-1.00,+1.00,+1.00,-1.00,-3.00,+2.00,+0.00,+0.00,-1.00,+1.00,-1.00,-2.00
+1.00,-1.00,-1.00,-1.00,-2.00,-2.00,+5.00,+0.00,-1.00,+0.00,-1.00,+0.00,-2.00,-1.00,-3.00,-3.00
-8.00,-4.00,-5.00,-2.00,-1.00,-6.00,-4.00,-5.00,-2.00,-2.00,-2.00,+0.00,-1.00,+0.00,+1.00,+3.00
+7.00,+4.00,-1.00,-1.00,+0.00,+1.00,+4.00,+1.00,+3.00,-1.00,-1.00,-2.00,-2.00,-2.00,+2.00,+3.00
-2.00,-4.00,-5.00,+2.00,+0.00,+1.00,+1.00,+1.00,-3.00,-3.00,+1.00,-2.00,+0.00,+0.00,+2.00,-1.00
-2.00,+0.00,+2.00,+0.00,-1.00,+2.00,-5.00,-7.00,+0.00,-1.00,-3.00,-1.00,-3.00,-4.00,-3.00,-2.00
+2.00,+1.00,+1.00,+0.00,-1.00,-3.00,+0.00,-1.00,-2.00,-3.00,-2.00,-2.00,+0.00,+2.00,-1.00,-1.00
-4.00,+0.00,+1.00,-1.00,-2.00,-2.00,+0.00,+1.00,-1.00,-1.00,-1.00,+0.00,+0.00,-3.00,+1.00,-1.00
+1.00,+1.00,-2.00,+0.00,-1.00,-1.00,-6.00,-2.00,-1.00,+1.00,-1.00,+1.00,-1.00,+1.00,-4.00,+1.00
+1.00,+4.00,+6.00,-2.00,+0.00,+1.00,+10.00,+3.00,+3.00,+1.00,-2.00,-1.00,+1.00,+0.00,+2.00,-2.00
-2.00,+0.00,-2.00,+0.00,+0.00,-3.00,-3.00,-5.00,+1.00,-2.00,+2.00,+0.00,-1.00,-2.00,+0.00,+1.00
+1.00,-1.00,-2.00,-3.00,-2.00,+1.00,+1.00,+2.00,-1.00,-5.00,-5.00,+2.00,-2.00,-1.00,-5.00,-2.00
-4.00,-2.00,-1.00,+0.00,-2.00,-1.00,-1.00,+10.00,-1.00,-2.00,+1.00,+0.00,+1.00,+0.00,-7.00,+2.00
+1.00,-1.00,-3.00,-2.00,-2.00,+0.00,-5.00,-6.00,-1.00,-1.00,-4.00,-3.00,-2.00,-1.00,+22.00,-2.00
+2.00,-3.00,+2.00,+0.00,-1.00,+1.00,-1.00,+0.00,+2.00,+5.00,+1.00,-1.00,-2.00,-1.00,-19.00,-3.00
+0.00,-2.00,-2.00,-1.00,-2.00,-1.00,+6.00,-2.00,+0.00,-2.00,+0.00,-3.00,+0.00,-1.00,+2.00,-1.00
+1.00,-2.00,-2.00,-3.00,-1.00,-3.00,+0.00,-5.00,-1.00,-4.00,-4.00,-3.00,-1.00,-3.00,-2.00,-2.00
+4.00,-5.00,-2.00,+1.00,-2.00,-4.00,-3.00,-7.00,-3.00,-2.00,-1.00,-10.00,+0.00,+0.00,-3.00,+0.00
-2.00,+2.00,+0.00,+1.00,-1.00,+0.00,-1.00,+2.00,-3.00,-2.00,-4.00,-16.00,+0.00,+0.00,+5.00,-1.00
+2.00,+1.00,+1.00,+0.00,+0.00,-2.00,-4.00,+1.00,-3.00,-1.00,-1.00,-9.00,-2.00,+0.00,+1.00,-1.00
-1.00,-1.00,+1.00,-2.00,+1.00,-1.00,-1.00,-4.00,+1.00,+0.00,+1.00,-5.00,-4.00,-1.00,-4.00,-1.00
-2.00,-2.00,-3.00,-1.00,-1.00,+0.00,-6.00,-6.00,+1.00,-1.00,+4.00,+6.00,-1.00,+0.00,-6.00,-2.00
+4.00,-3.00,+0.00,-2.00,-1.00,-2.00,+0.00,+1.00,-2.00,+0.00,+0.00,+7.00,-1.00,-3.00,+4.00,+0.00
-9.00,+1.00,-2.00,-1.00,-1.00,+3.00,+1.00,-6.00,-4.00,+0.00,+2.00,+5.00,-1.00,-1.00,-5.00,+0.00
-2.00,-1.00,-2.00,+1.00,+1.00,-4.00,+0.00,-5.00,+3.00,-2.00,+0.00,+6.00,-1.00,+0.00,+4.00,+1.00
-5.00,+2.00,-2.00,-1.00,-2.00,-1.00,-5.00,-3.00,-4.00,+4.00,+1.00,+4.00,-5.00,-3.00,-6.00,+0.00
-4.00,-1.00,-2.00,-1.00,-1.00,+0.00,-1.00,-1.00,+0.00,-1.00,-5.00,+1.00,-1.00,+0.00,+1.00,-1.00
-4.00,+0.00,-1.00,-1.00,+0.00,-2.00,-4.00,+1.00,+2.00,-2.00,-1.00,+4.00,+0.00,+1.00,+3.00,-1.00
-1.00,-2.00,-2.00,-1.00,-1.00,+0.00,+0.00,+0.00,-2.00,-4.00,-3.00,+1.00,+1.00,-1.00,-1.00,-1.00
-5.00,-7.00,-4.00,-1.00,+0.00,+0.00,-4.00,-1.00,-2.00,-2.00,-3.00,+0.00,+0.00,-1.00,-6.00,-4.00
+0.00,+2.00,+1.00,-1.00,-1.00,+0.00,+6.00,+4.00,+0.00,-3.00,-1.00,+1.00,+0.00,+0.00,+3.00,+1.00
-1.00,-3.00,+0.00,+0.00,+0.00,-2.00,-1.00,-4.00,-1.00,+1.00,-1.00,-2.00,+0.00,-1.00,-3.00,-1.00
+6.00,+3.00,+1.00,+1.00,-3.00,+0.00,-1.00,+6.00,-2.00,-1.00,-2.00,+0.00,-1.00,-1.00,+2.00,-3.00
-4.00,-1.00,-1.00,-1.00,-1.00,-2.00,+0.00,-5.00,-2.00,-6.00,-2.00,+1.00,-2.00,+0.00,-3.00,-4.00
-1.00,-2.00,+0.00,-1.00,+0.00,-1.00,-12.00,-4.00,+1.00,+0.00,-3.00,+1.00,+0.00,+0.00,+4.00,+3.00
+1.00,-1.00,-5.00,-3.00,-2.00,-3.00,+1.00,-11.00,-2.00,-3.00,-2.00,+1.00,-1.00,-5.00,-11.00,-5.00
-12.00,-2.00,-2.00,-2.00,+0.00,+6.00,+1.00,+23.00,+0.00,+0.00,+2.00,-2.00,-1.00,-3.00,+0.00,-2.00
+2.00,-1.00,-1.00,+0.00,+0.00,-3.00,-3.00,-2.00,-3.00,+0.00,+0.00,-2.00,-1.00,-3.00,-6.00,+0.00
-6.00,-1.00,-1.00,-1.00,+0.00,+1.00,+1.00,-5.00,-5.00,+3.00,+4.00,+0.00,-2.00,-3.00,+1.00,-2.00
+1.00,-1.00,+0.00,-1.00,+0.00,-3.00,-7.00,-6.00,-1.00,-1.00,-3.00,-3.00,-2.00,-1.00,+2.00,-3.00
+1.00,-1.00,-3.00,-2.00,-3.00,-4.00,+0.00,+4.00,-3.00,+0.00,-3.00,-1.00,-2.00,-1.00,-2.00,+0.00
+3.00,+1.00,-1.00,+2.00,+0.00,+0.00,-1.00,-3.00,+1.00,-3.00,-1.00,-1.00,+0.00,-1.00,-4.00,-1.00
+3.00,+1.00,-2.00,-1.00,-3.00,+0.00,-1.00,+4.00,+1.00,-2.00,-1.00,-1.00,-2.00,+0.00,-2.00,-3.00
-1.00,-4.00,+1.00,+0.00,+0.00,+1.00,-2.00,+17.00,-1.00,-1.00,+0.00,-2.00,-1.00,-1.00,+1.00,+3.00
+1.00,-2.00,+3.00,+1.00,-1.00,-2.00,+2.00,-10.00,-3.00,-2.00,+0.00,-1.00,-3.00,-1.00,-2.00,-5.00
+0.00,+1.00,-3.00,-1.00,+0.00,-4.00,-1.00,+3.00,-2.00,-4.00,-1.00,-2.00,-1.00,+3.00,-3.00,-1.00
-7.00,-1.00,-1.00,-1.00,+0.00,-1.00,+0.00,-12.00,+2.00,-2.00,-3.00,-1.00,-1.00,-4.00,-2.00,-2.00
+5.00,+1.00,+0.00,-3.00,-2.00,-1.00,+3.00,+15.00,-1.00,+6.00,+0.00,+0.00,-1.00,+1.00,+2.00,-2.00
-3.00,+2.00,-3.00,-3.00,-2.00,+0.00,-13.00,-6.00,+1.00,-6.00,-3.00,+0.00,+1.00,+0.00,+12.00,+1.00
-4.00,+1.00,+0.00,-2.00,-1.00,-1.00,+5.00,+4.00,-2.00,+3.00,+2.00,-2.00,+0.00,-2.00,-15.00,+0.00
-9.00,-1.00,-2.00,-1.00,-1.00,-2.00,+1.00,-4.00,-1.00,-4.00,-1.00,+0.00,-1.00,-1.00,-5.00,-4.00
+4.00,-5.00,-1.00,-2.00,-1.00,+0.00,-3.00,+2.00,-1.00,-3.00,+1.00,-1.00,-1.00,-4.00,-4.00,-3.00
-3.00,+0.00,-1.00,-2.00,-2.00,-5.00,+0.00,-5.00,+2.00,+4.00,+0.00,-4.00,-1.00,-1.00,-4.00,+2.00
+5.00,-3.00,-1.00,-1.00,-2.00,+4.00,-8.00,-2.00,-1.00,-4.00,-1.00,-1.00,-1.00,+1.00,+6.00,+0.00
-1.00,+2.00,+2.00,+1.00,+0.00,-3.00,+0.00,+2.00,-3.00,+1.00,-3.00,+0.00,-1.00,+0.00,+2.00,-2.00
+0.00,-2.00,+0.00,-2.00,-1.00,+1.00,-1.00,-1.00,+1.00,-1.00,+0.00,+1.00,-2.00,-1.00,-2.00,+1.00
+3.00,+1.00,+0.00,-1.00,+0.00,+0.00,-1.00,-8.00,-2.00,+1.00,-1.00,+0.00,+1.00,+0.00,-1.00,+1.00
+1.00,-1.00,+1.00,+0.00,+1.00,+0.00,+0.00,+1.00,-1.00,-3.00,-6.00,-1.00,+0.00,-2.00,+3.00,-2.00
+2.00,-3.00,+0.00,-3.00,+0.00,+1.00,-1.00,+2.00,-1.00,+1.00,+0.00,-1.00,+1.00,-2.00,+2.00,+1.00
-3.00,+1.00,-1.00,+1.00,-1.00,-1.00,-1.00,-4.00,-1.00,-4.00,-3.00,+0.00,-1.00,-1.00,+3.00,-1.00
-5.00,-2.00,-3.00,+1.00,-1.00,-1.00,+1.00,-6.00,-1.00,-2.00,-1.00,-2.00,-2.00,-2.00,-3.00,+0.00
-4.00,-1.00,-4.00,-1.00,+0.00,+0.00,-1.00,+0.00,+2.00,+3.00,-1.00,-4.00,-3.00,-3.00,+1.00,-2.00
+3.00,-2.00,-2.00,-1.00,+0.00,-2.00,-2.00,+0.00,-1.00,+1.00,-1.00,-3.00,+0.00,+1.00,-3.00,-2.00
-6.00,-3.00,+0.00,+0.00,+1.00,-1.00,-3.00,-1.00,-2.00,-3.00,-5.00,-1.00,+0.00,+1.00,+1.00,-1.00
-4.00,+0.00,+1.00,+0.00,-1.00,-2.00,-2.00,-11.00,-3.00,+3.00,+3.00,-1.00,-2.00,-3.00,-2.00,-2.00
-4.00,-1.00,+0.00,+0.00,-1.00,-2.00,+3.00,+9.00,-3.00,-5.00,-4.00,-1.00,+0.00,+0.00,-1.00,-2.00
-1.00,+0.00,-4.00,-1.00,-2.00,+0.00,-4.00,-2.00,+3.00,-3.00,-2.00,+1.00,-2.00,-2.00,+0.00,+3.00
-2.00,+0.00,-1.00,+0.00,-3.00,-1.00,-2.00,-6.00,-1.00,-1.00,+0.00,-1.00,+0.00,-2.00,-1.00,+0.00
+5.00,-2.00,+2.00,+0.00,-1.00,-1.00,+0.00,-8.00,-2.00,+2.00,+0.00,-1.00,+1.00,-1.00,-2.00,-3.00
+7.00,+1.00,+3.00,-3.00,-1.00,-2.00,+2.00,+0.00,-1.00,-3.00,-2.00,+1.00,+0.00,-3.00,+0.00,-4.00
+0.00,-1.00,-1.00,-2.00,-1.00,+0.00,-7.00,-4.00,+0.00,-5.00,-2.00,+0.00,+0.00,-1.00,-21.00,+1.00
+1.00,+1.00,-3.00,+0.00,+1.00,+5.00,+11.00,+0.00,+0.00,+0.00,-1.00,+0.00,+0.00,+1.00,+22.00,-2.00
+0.00,+3.00,+4.00,-1.00,+0.00,+1.00,-9.00,+4.00,-3.00,+0.00,-2.00,-1.00,-4.00,-1.00,-9.00,-2.00
+0.00,+1.00,+0.00,+0.00,-2.00,-2.00,+0.00,-2.00,-1.00,-3.00,+0.00,-2.00,-6.00,-2.00,-1.00,-3.00
+8.00,+1.00,+0.00,-2.00,-1.00,-3.00,-1.00,-7.00,-4.00,-1.00,-4.00,-2.00,-3.00,-2.00,-3.00,-5.00
-13.00,-3.00,-1.00,-2.00,-4.00,-4.00,-5.00,+18.00,-4.00,+3.00,+1.00,-3.00,-1.00,-1.00,-2.00,-2.00
-4.00,-2.00,-1.00,+0.00,+0.00,-2.00,+0.00,-3.00,-2.00,-1.00,+1.00,-2.00,+3.00,+0.00,-4.00,-3.00
+4.00,-4.00,-1.00,-1.00,+0.00,+0.00,-2.00,-4.00,+1.00,+5.00,+2.00,+2.00,+3.00,-1.00,-1.00,-1.00
+0.00,+3.00,+1.00,+0.00,-1.00,+1.00,+1.00,+1.00,+1.00,-3.00,-3.00,-1.00,-1.00,+0.00,+6.00,-3.00
+8.00,-3.00,-1.00,+1.00,+0.00,+1.00,-3.00,-7.00,-2.00,-4.00,-4.00,-2.00,-1.00,-1.00,-4.00,-2.00
-1.00,-3.00,-6.00,-1.00,+1.00,+1.00,+4.00,+0.00,+0.00,-2.00,-1.00,-1.00,-1.00,+1.00,+4.00,+0.00
-11.00,-1.00,+0.00,-2.00,-2.00,-5.00,-4.00,+0.00,-1.00,+0.00,+1.00,+0.00,+0.00,+1.00,-5.00,+2.00
+4.00,-4.00,-3.00,-1.00,+0.00,+0.00,-1.00,+2.00,-1.00,+0.00,-2.00,-1.00,-3.00,-4.00,-1.00,-2.00
-8.00,+3.00,+0.00,-1.00,-1.00,-1.00,+2.00,+4.00,+3.00,-2.00,-3.00,-1.00,-1.00,+1.00,-6.00,+0.00
+7.00,+0.00,+3.00,+0.00,+0.00,+0.00,+2.00,+4.00,+1.00,-2.00,-2.00,-2.00,-2.00,-1.00,-2.00,-2.00
-1.00,-1.00,-4.00,-1.00,+0.00,+2.00,-1.00,-5.00,-2.00,+2.00,+2.00,+0.00,+0.00,-1.00,+1.00,-1.00
-9.00,-7.00,-5.00,-3.00,-4.00,-4.00,-3.00,-7.00,-5.00,-6.00,-1.00,+2.00,+0.00,+0.00,+2.00,-2.00
+11.00,+1.00,+1.00,+1.00,+0.00,+2.00,+0.00,-6.00,+0.00,-1.00,+1.00,-1.00,-1.00,-2.00,-1.00,-3.00
-2.00,+0.00,+0.00,+0.00,-2.00,-3.00,-1.00,+9.00,-4.00,-4.00,-2.00,+0.00,+0.00,+0.00,+3.00,-3.00
+0.00,+4.00,+2.00,+0.00,-1.00,+1.00,-2.00,-7.00,-3.00,-4.00,-6.00,-3.00,-3.00,-2.00,-6.00,+1.00
+0.00,-1.00,-1.00,-2.00,+0.00,-3.00,+1.00,+4.00,+0.00,+1.00,+1.00,+0.00,-1.00,-3.00,-1.00,-3.00
-4.00,-4.00,-5.00,-1.00,-3.00,-2.00,-4.00,-4.00,+0.00,-1.00,+0.00,-1.00,-1.00,-3.00,-3.00,-1.00
-3.00,-2.00,-4.00,-1.00,+2.00,+1.00,-3.00,-4.00,-2.00,-1.00,-2.00,-1.00,-1.00,-1.00,+0.00,-2.00
-3.00,-3.00,-4.00,+2.00,-1.00,-1.00,+0.00,+2.00,+0.00,-1.00,+0.00,-2.00,+0.00,-2.00,+3.00,-2.00
-8.00,-1.00,+1.00,+1.00,-1.00,-1.00,-2.00,+2.00,-2.00,-3.00,-2.00,-2.00,-1.00,+2.00,-3.00,-2.00
+0.00,-1.00,-2.00,-1.00,-1.00,-2.00,-5.00,-9.00,-2.00,+2.00,-2.00,-1.00,+1.00,-1.00,-2.00,+1.00
+0.00,+1.00,+0.00,+0.00,-2.00,+0.00,+15.00,+3.00,+0.00,-9.00,-5.00,-1.00,-2.00,+1.00,+1.00,-1.00
-7.00,-4.00,-1.00,-2.00,+0.00,-3.00,-2.00,-4.00,+1.00,-1.00,-1.00,-1.00,-1.00,+0.00,+1.00,-2.00
+1.00,-1.00,-3.00,-1.00,-2.00,+1.00,+1.00,-11.00,-1.00,+0.00,+1.00,-1.00,-1.00,-3.00,+0.00,+2.00
-6.00,+1.00,+0.00,-1.00,+0.00,-2.00,-1.00,+13.00,-1.00,+0.00,+1.00,-2.00,+1.00,-1.00,-2.00,-1.00
-5.00,+0.00,-2.00,-2.00,-1.00,+0.00,-2.00,-1.00,-2.00,-2.00,+0.00,+1.00,-1.00,-3.00,-5.00,-3.00
-3.00,+0.00,-1.00,+0.00,-2.00,+0.00,-2.00,-1.00,-1.00,+2.00,+0.00,-3.00,+0.00,-1.00,-4.00,+1.00
+6.00,-1.00,+1.00,+1.00,+0.00,+3.00,+3.00,-1.00,-2.00,+3.00,-2.00,-2.00,-1.00,+0.00,+2.00,+1.00
-1.00,-3.00,+0.00,-1.00,+1.00,-5.00,-3.00,-12.00,-2.00,-2.00,-2.00,+0.00,-2.00,-2.00,-3.00,-3.00
-3.00,-5.00,-4.00,-1.00,-4.00,+1.00,+3.00,-4.00,-3.00,+0.00,+0.00,+0.00,-3.00,-1.00,-2.00,-1.00
+1.00,-2.00,-1.00,+1.00,+0.00,-2.00,-2.00,-7.00,-3.00,-1.00,-6.00,+0.00,-3.00,-1.00,-1.00,+1.00
-1.00,+0.00,+4.00,-2.00,+0.00,+1.00,-2.00,+1.00,-2.00,+0.00,-1.00,-2.00,-3.00,-2.00,+0.00,-1.00
-2.00,+1.00,-1.00,-2.00,-2.00,-2.00,-1.00,-4.00,-1.00,-3.00,-1.00,+0.00,-1.00,+0.00,-1.00,+0.00
+3.00,+0.00,-2.00,-1.00,+0.00,-3.00,-5.00,-4.00,-1.00,+0.00,-1.00,-2.00,-2.00,-2.00,+0.00,+0.00
-10.00,+0.00,+0.00,+0.00,-2.00,-2.00,-5.00,-13.00,-1.00,-3.00,+0.00,+1.00,+0.00,+0.00,-3.00,-1.00
+0.00,-2.00,+0.00,+0.00,-1.00,-2.00,+10.00,+15.00,-1.00,-2.00,+0.00,-1.00,+1.00,-1.00,+8.00,+1.00
+5.00,+0.00,-4.00,-3.00,+0.00,-3.00,+2.00,-2.00,-4.00,-2.00,-2.00,-2.00,-1.00,+0.00,-1.00,+1.00
+1.00,+0.00,+0.00,+0.00,-1.00,-2.00,-4.00,-5.00,+0.00,-1.00,+0.00,-1.00,+0.00,-3.00,-5.00,+2.00
+4.00,+1.00,+0.00,+0.00,-1.00,+1.00,-2.00,-18.00,+0.00,-2.00,-3.00,-3.00,+0.00,-1.00,+5.00,-2.00
+8.00,-2.00,-2.00,-1.00,-2.00,+1.00,-4.00,+4.00,-3.00,+1.00,+0.00,-2.00,+0.00,+0.00,-1.00,-2.00
-5.00,-3.00,-2.00,-2.00,-1.00,+2.00,+1.00,-5.00,+0.00,-2.00,-3.00,-3.00,-1.00,-1.00,+2.00,-3.00
-2.00,+1.00,+3.00,-1.00,-1.00,+0.00,-2.00,+2.00,-5.00,-3.00,+0.00,+2.00,+0.00,+0.00,+0.00,-4.00
+5.00,+2.00,+0.00,-1.00,-1.00,+1.00,+1.00,+3.00,-1.00,+0.00,+0.00,+2.00,+0.00,-2.00,-3.00,+0.00
-6.00,-2.00,-4.00,-1.00,-1.00,-2.00,-1.00,-2.00,+4.00,-11.00,-8.00,+1.00,+1.00,+0.00,+2.00,+3.00
+2.00,-1.00,-2.00,-3.00,+0.00,-3.00,+1.00,+4.00,+0.00,+3.00,+1.00,+0.00,-3.00,-1.00,-6.00,-1.00
+2.00,-3.00,+0.00,-1.00,+1.00,-2.00,+0.00,-8.00,+0.00,-3.00,-2.00,-1.00,-2.00,-1.00,+0.00,-1.00
-2.00,-1.00,-2.00,-3.00,-1.00,-2.00,+2.00,+8.00,-2.00,+1.00,+2.00,-1.00,+0.00,+0.00,+2.00,-2.00
-2.00,+0.00,+1.00,+0.00,+0.00,-1.00,-3.00,-5.00,-2.00,-1.00,-2.00,-2.00,-2.00,-2.00,-6.00,-3.00
-7.00,-2.00,+3.00,+1.00,-2.00,-1.00,-6.00,-4.00,-3.00,-2.00,+0.00,-1.00,-1.00,-3.00,-1.00,+1.00
-7.00,+0.00,-1.00,-1.00,-1.00,+0.00,-4.00,-3.00,-1.00,+2.00,-2.00,-2.00,-2.00,+0.00,+0.00,+1.00
+2.00,-4.00,-3.00,-1.00,-5.00,+0.00,+1.00,+13.00,-3.00,+1.00,-2.00,-1.00,+0.00,-1.00,+1.00,-3.00
-8.00,-3.00,-5.00,-1.00,+0.00,-2.00,-1.00,-2.00,-1.00,+0.00,+2.00,+0.00,+0.00,+1.00,-2.00,-2.00
+10.00,+0.00,+0.00,-1.00,-1.00,+2.00,-1.00,-3.00,-1.00,-4.00,-1.00,+0.00,-1.00,+0.00,+0.00,+3.00
+6.00,+1.00,+0.00,-1.00,+2.00,-1.00,-1.00,+1.00,+2.00,+1.00,-1.00,+0.00,-1.00,-2.00,+0.00,-4.00
-2.00,-3.00,+3.00,+0.00,-1.00,+0.00,-2.00,-2.00,-2.00,-3.00,-4.00,+0.00,-3.00,-3.00,-1.00,-1.00
-2.00,+4.00,+3.00,+0.00,-2.00,+0.00,-4.00,-5.00,-1.00,-1.00,-2.00,+1.00,+0.00,-1.00,-2.00,-1.00
-2.00,-2.00,+1.00,+1.00,-2.00,-2.00,+12.00,+8.00,-2.00,+3.00,+2.00,+0.00,-3.00,-1.00,-1.00,-2.00
-5.00,-3.00,-4.00,-2.00,-2.00,-1.00,-4.00,-2.00,+1.00,-3.00,-1.00,-2.00,-1.00,+0.00,-3.00,-1.00
+1.00,+0.00,-2.00,-1.00,-2.00,-2.00,+1.00,+4.00,+2.00,-3.00,+1.00,+0.00,+1.00,+1.00,+0.00,+2.00
+4.00,+0.00,+1.00,+1.00,-2.00,-1.00,-3.00,-1.00,-1.00,+2.00,+0.00,-2.00,+1.00,-1.00,+0.00,-3.00
-5.00,+0.00,-2.00,-1.00,-2.00,-1.00,-5.00,-7.00,+0.00,+0.00,+1.00,-1.00,+2.00,+0.00,+0.00,+0.00
+1.00,+0.00,+2.00,-1.00,-3.00,+0.00,-1.00,+1.00,+0.00,+1.00,+0.00,-1.00,+0.00,+0.00,-1.00,+0.00
-7.00,-3.00,-2.00,-2.00,+1.00,+1.00,+5.00,-1.00,+0.00,-1.00,-1.00,-2.00,+0.00,+0.00,-1.00,+3.00
+4.00,-3.00,+2.00,-3.00,+0.00,-1.00,-2.00,+0.00,-1.00,+0.00,+1.00,+1.00,-4.00,+0.00,-2.00,-2.00
+3.00,-1.00,+2.00,-3.00,-3.00,-1.00,+0.00,+4.00,-1.00,+2.00,-1.00,-1.00,-2.00,-1.00,-3.00,-1.00
-2.00,-2.00,-3.00,+0.00,-1.00,-2.00,-5.00,-7.00,-1.00,-1.00,-2.00,-2.00,-1.00,-2.00,-2.00,-1.00
+1.00,+0.00,-1.00,-1.00,-1.00,-1.00,-6.00,-4.00,-4.00,-2.00,+1.00,-1.00,-2.00,-3.00,-6.00,-2.00
-3.00,-1.00,-1.00,+0.00,+1.00,+0.00,+6.00,+5.00,-3.00,-5.00,-5.00,-2.00,-3.00,+0.00,+5.00,-1.00
+5.00,+0.00,-4.00,-1.00,+1.00,-1.00,-2.00,+0.00,+1.00,-3.00,-1.00,+1.00,-4.00,+0.00,-8.00,+2.00
+2.00,-1.00,+2.00,-2.00,-3.00,-3.00,-2.00,+0.00,+0.00,+0.00,+0.00,-2.00,-3.00,+0.00,-2.00,-3.00
+3.00,+1.00,-1.00,-2.00,+1.00,-1.00,-3.00,-26.00,+1.00,+3.00,-1.00,+0.00,-3.00,+0.00,+0.00,-3.00
-1.00,-1.00,+0.00,+0.00,-2.00,-3.00,+0.00,+1.00,-2.00,-1.00,+0.00,-2.00,+2.00,-1.00,-1.00,-3.00
-4.00,+4.00,+1.00,-3.00,+0.00,-2.00,-3.00,-4.00,-3.00,-3.00,-3.00,-1.00,+3.00,+0.00,+4.00,-2.00
-6.00,-3.00,+2.00,-1.00,-1.00,+3.00,+2.00,+6.00,-1.00,+0.00,+0.00,+1.00,+4.00,+0.00,+1.00,+0.00
+0.00,+0.00,+0.00,+0.00,+2.00,+0.00,-1.00,-2.00,+0.00,-2.00,-2.00,+0.00,+2.00,+1.00,-1.00,+0.00
-4.00,-4.00,-5.00,-2.00,-3.00,+0.00,+4.00,+0.00,-1.00,+1.00,-2.00,-3.00,-1.00,-2.00,-1.00,-1.00
-3.00,-3.00,+1.00,+0.00,+0.00,+1.00,-3.00,+0.00,-1.00,-3.00,-3.00,-1.00,-1.00,-2.00,+0.00,-2.00
-3.00,-4.00,-4.00,-1.00,-1.00,-1.00,+5.00,-7.00,-1.00,-3.00,-1.00,-1.00,-1.00,-3.00,-4.00,+0.00
-7.00,-5.00,-2.00,-1.00,-3.00,+2.00,-1.00,+3.00,+0.00,+6.00,+2.00,-1.00,+2.00,-1.00,+0.00,-4.00
-4.00,+4.00,-2.00,-1.00,-1.00,-2.00,-1.00,+1.00,+2.00,-1.00,+0.00,-1.00,+0.00,+1.00,-3.00,+1.00
-2.00,-4.00,-5.00,-1.00,-1.00,-2.00,-3.00,-2.00,-2.00,-3.00,+2.00,+0.00,-1.00,-3.00,-2.00,+1.00
-2.00,-1.00,-2.00,-1.00,+0.00,-1.00,-2.00,-3.00,-1.00,-2.00,-3.00,-2.00,-2.00,-2.00,+0.00,+3.00
-6.00,-2.00,+1.00,-1.00,+0.00,-4.00,-2.00,+0.00,-2.00,-5.00,+1.00,+0.00,-2.00,-1.00,-2.00,-3.00
+2.00,+0.00,-1.00,-2.00,+0.00,+0.00,+0.00,+9.00,-3.00,+0.00,+0.00,+1.00,-1.00,-1.00,+0.00,-3.00
+0.00,-5.00,-1.00,-2.00,-1.00,+0.00,-3.00,-8.00,+0.00,+0.00,-1.00,-1.00,-1.00,+0.00,-1.00,-1.00
-1.00,+3.00,+1.00,-1.00,-1.00,-1.00,-1.00,+1.00,-4.00,+2.00,-1.00,-1.00,-2.00,+0.00,-4.00,-6.00
-1.00,+0.00,+1.00,+0.00,+0.00,-2.00,-2.00,+2.00,+1.00,-2.00,-2.00,-2.00,-1.00,-2.00,+3.00,+5.00
-2.00,-3.00,+1.00,-2.00,-1.00,-4.00,-2.00,-5.00,-2.00,+2.00,+0.00,+1.00,-1.00,-1.00,-4.00,-1.00
+3.00,-1.00,-2.00,-3.00,-2.00,-3.00,-1.00,+1.00,+0.00,-6.00,-6.00,+0.00,-1.00,-2.00,-1.00,-1.00
-9.00,-4.00,-4.00,-3.00,-4.00,+0.00,+0.00,-6.00,-2.00,-2.00,-3.00,+0.00,-2.00,+0.00,-1.00,-3.00
+5.00,-2.00,+1.00,-1.00,+0.00,-1.00,-3.00,+7.00,-2.00,+0.00,-2.00,-1.00,+1.00,+1.00,-2.00,-4.00
+1.00,-1.00,+0.00,+0.00,+0.00,+1.00,+0.00,-7.00,-1.00,-1.00,-3.00,-1.00,+0.00,+1.00,+2.00,+0.00
-5.00,-3.00,+0.00,-1.00,+2.00,+2.00,+2.00,+3.00,-2.00,+1.00,-1.00,+0.00,-2.00,+0.00,+1.00,+0.00
+0.00,+1.00,+2.00,+0.00,-2.00,-1.00,-1.00,-1.00,-3.00,+1.00,+0.00,-2.00,-5.00,-5.00,-11.00,-2.00
-5.00,+2.00,-1.00,-3.00,-1.00,+0.00,+1.00,+0.00,-3.00,+3.00,+0.00,-2.00,-2.00,-6.00,+1.00,-2.00
+4.00,-2.00,-6.00,-1.00,-3.00,-1.00,-6.00,-3.00,-3.00,-2.00,+1.00,-1.00,-2.00,+0.00,+0.00,+2.00
+3.00,+3.00,+5.00,+0.00,-2.00,-1.00,-2.00,-2.00,+3.00,+0.00,+0.00,+0.00,+0.00,-1.00,+0.00,-3.00
+3.00,-1.00,-1.00,+1.00,+0.00,+1.00,-2.00,+0.00,-1.00,-3.00,+1.00,+2.00,+0.00,+2.00,+1.00,+3.00
-4.00,+0.00,+0.00,-2.00,+0.00,-1.00,-1.00,-2.00,-4.00,-7.00,+0.00,-2.00,-3.00,-1.00,-3.00,-1.00
+0.00,+1.00,-2.00,+0.00,+1.00,-1.00,+2.00,+0.00,-2.00,-6.00,+1.00,-1.00,-1.00,-4.00,-1.00,-4.00
-2.00,+1.00,-1.00,-1.00,-2.00,-1.00,-4.00,+11.00,-1.00,+2.00,+0.00,-2.00,+0.00,+0.00,-1.00,-1.00
-4.00,-2.00,-1.00,-2.00,-1.00,-1.00,-1.00,-1.00,+3.00,+1.00,-2.00,+1.00,+2.00,+2.00,+3.00,-1.00
+13.00,+0.00,-1.00,+0.00,-2.00,-1.00,+0.00,+6.00,+2.00,+1.00,-2.00,+1.00,+0.00,-1.00,-2.00,-3.00
-5.00,-1.00,-3.00,-1.00,-1.00,-2.00,-2.00,-9.00,+1.00,+0.00,+1.00,-2.00,-2.00,-1.00,+0.00,+0.00
+0.00,+1.00,-1.00,+0.00,+0.00,+0.00,+1.00,-4.00,-1.00,-7.00,-3.00,-3.00,-1.00,+0.00,-2.00,-3.00
-4.00,-2.00,-3.00,+0.00,+0.00,-4.00,-5.00,+0.00,-2.00,-1.00,-3.00,-7.00,-2.00,-1.00,+1.00,+2.00
-6.00,-2.00,-2.00,-1.00,-1.00,-1.00,+9.00,+7.00,-4.00,-1.00,-1.00,+1.00,+1.00,+2.00,+2.00,+1.00
+2.00,-3.00,+3.00,-1.00,+0.00,-1.00,+0.00,+0.00,-1.00,-2.00,-3.00,-1.00,-2.00,-3.00,-6.00,-2.00
-4.00,-3.00,+2.00,+0.00,-1.00,+4.00,+0.00,-1.00,-2.00,+0.00,-1.00,+2.00,-1.00,-1.00,-2.00,+0.00
+8.00,+0.00,+2.00,+0.00,+2.00,-3.00,-2.00,+1.00,-1.00,+0.00,+1.00,+0.00,-2.00,-2.00,-2.00,-3.00
-4.00,-2.00,-2.00,-1.00,-4.00,-1.00,+1.00,+1.00,+0.00,-2.00,-2.00,-2.00,-1.00,-1.00,-1.00,+0.00
+9.00,+2.00,+1.00,-1.00,+0.00,-1.00,-1.00,-24.00,-2.00,+0.00,-1.00,-1.00,+1.00,-1.00,-1.00,+0.00
-4.00,-1.00,-1.00,+0.00,-1.00,-1.00,-1.00,-2.00,-2.00,+0.00,+1.00,-1.00,+0.00,-2.00,-1.00,-2.00
-1.00,+0.00,-2.00,-2.00,+0.00,+1.00,-2.00,-3.00,+0.00,-9.00,-7.00,-2.00,-1.00,+2.00,+5.00,+4.00
+0.00,-1.00,-5.00,-5.00,-1.00,-2.00,+4.00,+3.00,-1.00,-2.00,-1.00,+2.00,-3.00,-1.00,+2.00,+2.00
+9.00,+5.00,+0.00,+0.00,-1.00,+0.00,+0.00,+3.00,+0.00,+3.00,+0.00,-1.00,-1.00,+0.00,+1.00,+0.00
-3.00,+0.00,-2.00,+0.00,-1.00,-3.00,-4.00,-12.00,-1.00,+1.00,-1.00,-3.00,+0.00,-2.00,-11.00,-3.00
-2.00,+4.00,+1.00,-2.00,-2.00,-1.00,+0.00,+2.00,+0.00,-6.00,-3.00,-2.00,+1.00,+1.00,+0.00,+0.00
+6.00,-5.00,+2.00,+0.00,-1.00,-1.00,-5.00,+0.00,-2.00,+4.00,+2.00,-2.00,-2.00,+0.00,-1.00,+0.00
-9.00,-4.00,-2.00,-1.00,-1.00,-1.00,-3.00,+2.00,+0.00,-3.00,-3.00,+0.00,-2.00,+1.00,-1.00,+1.00
+5.00,-1.00,-2.00,+2.00,-1.00,-1.00,+2.00,+2.00,+0.00,-1.00,+1.00,+0.00,+0.00,+0.00,+1.00,-1.00
+3.00,-1.00,-2.00,+0.00,+1.00,-2.00,-3.00,+2.00,-1.00,+0.00,-1.00,+0.00,-2.00,-2.00,-3.00,-3.00
-14.00,+0.00,-3.00,+0.00,-1.00,+1.00,+3.00,-2.00,-1.00,-2.00,+0.00,-3.00,+0.00,-1.00,-2.00,-2.00
-10.00,-3.00,-1.00,-3.00,-1.00,-3.00,-1.00,+6.00,-3.00,-3.00,-1.00,-1.00,-2.00,-2.00,-1.00,-3.00
-1.00,-3.00,-1.00,+0.00,-2.00,-5.00,-1.00,-5.00,+0.00,+0.00,-1.00,-1.00,+0.00,-2.00,+1.00,+1.00
-1.00,-3.00,-2.00,-1.00,+0.00,+4.00,-2.00,+0.00,-1.00,+2.00,+0.00,+0.00,+0.00,-1.00,-2.00,-1.00
+0.00,+4.00,+5.00,+0.00,+0.00,-2.00,-1.00,-6.00,-1.00,+6.00,-1.00,-1.00,+0.00,-3.00,-2.00,-3.00
+2.00,-4.00,+1.00,-2.00,-1.00,+0.00,-4.00,+9.00,-2.00,-4.00,+0.00,-3.00,+1.00,+0.00,+0.00,+1.00
-3.00,+0.00,+0.00,+1.00,+0.00,-2.00,+0.00,-2.00,-4.00,-4.00,-2.00,-4.00,-1.00,+0.00,+1.00,-1.00
+0.00,-3.00,-4.00,+0.00,-1.00,+1.00,+3.00,+1.00,-4.00,-1.00,-3.00,-2.00,-1.00,-2.00,-3.00,-1.00
-6.00,-2.00,-4.00,-2.00,+1.00,+1.00,-3.00,-3.00,+1.00,-7.00,-4.00,-1.00,-3.00,-2.00,-1.00,+0.00
+3.00,+1.00,-1.00,+0.00,-2.00,-2.00,-1.00,+6.00,+1.00,+0.00,+1.00,-1.00,+1.00,+0.00,-1.00,-1.00
-3.00,-3.00,-4.00,-3.00,-2.00,-1.00,-1.00,+0.00,-2.00,+4.00,+0.00,+1.00,+1.00,-1.00,+0.00,-2.00
+6.00,+6.00,+4.00,-1.00,-1.00,-1.00,+0.00,+2.00,+2.00,-4.00,+0.00,-1.00,+0.00,-1.00,-1.00,+0.00
+3.00,+0.00,+0.00,-1.00,-2.00,+1.00,-5.00,-7.00,-2.00,-1.00,+0.00,-1.00,-1.00,-1.00,-2.00,+1.00
-11.00,+1.00,+0.00,+0.00,-1.00,+1.00,-2.00,+4.00,-2.00,-3.00,-2.00,-1.00,-1.00,-1.00,-1.00,-1.00
+4.00,-2.00,+1.00,+0.00,+1.00,+0.00,-7.00,-7.00,-2.00,+0.00,+0.00,-3.00,-2.00,+0.00,+2.00,+0.00
+4.00,-2.00,+1.00,-1.00,-1.00,+0.00,+8.00,+0.00,-4.00,+3.00,+2.00,-2.00,-2.00,-5.00,-3.00,-5.00
+2.00,-1.00,-4.00,-2.00,+0.00,-1.00,+2.00,+4.00,-2.00,-5.00,+1.00,+0.00,-3.00,+1.00,+3.00,-2.00
-4.00,-2.00,-2.00,-2.00,-4.00,-2.00,-1.00,-3.00,-1.00,-1.00,-1.00,+0.00,-3.00,-5.00,-13.00,-2.00
+0.00,+1.00,-1.00,+0.00,-1.00,+1.00,-1.00,+0.00,+0.00,+1.00,-1.00,+1.00,-1.00,-1.00,+0.00,-2.00
-11.00,-4.00,-2.00,+0.00,+1.00,-4.00,-6.00,-5.00,+0.00,+1.00,-2.00,+2.00,+0.00,-1.00,+0.00,-2.00
+4.00,-1.00,-2.00,-2.00,-3.00,+0.00,-3.00,-2.00,+1.00,-3.00,-2.00,-1.00,-1.00,-3.00,+0.00,-1.00
+2.00,+2.00,+1.00,+0.00,-1.00,-1.00,+2.00,-6.00,-2.00,+1.00,-2.00,-3.00,-3.00,+0.00,+5.00,+1.00
-23.00,-3.00,-3.00,-2.00,-1.00,-3.00,-1.00,+21.00,+1.00,-6.00,-3.00,-1.00,+0.00,+0.00,-2.00,-3.00
+2.00,+1.00,-2.00,-3.00,-1.00,-1.00,-2.00,+0.00,+0.00,+0.00,-1.00,+0.00,+2.00,-3.00,-2.00,-1.00
-8.00,-3.00,-1.00,+0.00,-1.00,+1.00,+1.00,+0.00,-3.00,+1.00,-3.00,-2.00,+2.00,+1.00,+2.00,-1.00
+3.00,+2.00,-2.00,+0.00,+0.00,-2.00,-1.00,-2.00,+0.00,+1.00,+0.00,+1.00,-1.00,+0.00,+1.00,-1.00
+0.00,+0.00,+0.00,+0.00,+0.00,-1.00,+0.00,-10.00,-3.00,-5.00,-3.00,+0.00,-2.00,+0.00,-2.00,+1.00
-2.00,-2.00,-1.00,+2.00,-1.00,+0.00,-1.00,+0.00,-1.00,+1.00,+1.00,-3.00,-2.00,+0.00,+0.00,+1.00
-9.00,-4.00,-2.00,-1.00,+0.00,-3.00,-7.00,-7.00,-1.00,+0.00,-1.00,-1.00,+0.00,-2.00,-5.00,-3.00
-2.00,-5.00,-3.00,-2.00,+0.00,+1.00,+7.00,+2.00,+1.00,+1.00,-1.00,-3.00,+0.00,-1.00,+0.00,+1.00
+6.00,+2.00,+1.00,-1.00,+1.00,-2.00,+1.00,-2.00,+0.00,+0.00,-2.00,+0.00,+0.00,+0.00,+1.00,+4.00
+0.00,-4.00,-3.00,-2.00,-2.00,-1.00,+0.00,-2.00,+0.00,+0.00,+3.00,+0.00,-2.00,-3.00,-4.00,+0.00
-2.00,+0.00,-1.00,+0.00,-1.00,+0.00,-4.00,-5.00,+0.00,-1.00,-1.00,-1.00,-2.00,+0.00,-2.00,-1.00
+1.00,-1.00,+0.00,+1.00,-2.00,+0.00,-1.00,-4.00,-4.00,+1.00,-1.00,-1.00,+0.00,-1.00,+1.00,-2.00
+10.00,-2.00,+0.00,+0.00,-1.00,-1.00,+1.00,+3.00,+0.00,-5.00,-3.00,+0.00,-2.00,-1.00,+1.00,+1.00
-4.00,+2.00,+2.00,+0.00,-2.00,-1.00,-1.00,+2.00,-4.00,+2.00,+1.00,+1.00,-1.00,-1.00,+1.00,+0.00
+2.00,+4.00,+1.00,-1.00,-2.00,-3.00,-4.00,-4.00,-3.00,-3.00,-2.00,-1.00,-2.00,-1.00,-4.00,-1.00
-2.00,-3.00,-3.00,+0.00,-1.00,-1.00,+5.00,+7.00,+2.00,-3.00,-3.00,+0.00,+0.00,-1.00,+4.00,+1.00
+4.00,+4.00,+4.00,-2.00,-2.00,-3.00,+1.00,+3.00,+0.00,+6.00,+3.00,-2.00,+1.00,-1.00,-3.00,-1.00
+0.00,-2.00,+0.00,+0.00,+0.00,+3.00,-3.00,-2.00,+1.00,-5.00,-1.00,-2.00,-1.00,-3.00,-5.00,+0.00
+1.00,-2.00,-1.00,+1.00,+0.00,-3.00,-2.00,+3.00,+0.00,-1.00,+0.00,+0.00,-1.00,-1.00,-1.00,-1.00
-3.00,+0.00,-2.00,-1.00,+0.00,+0.00,-4.00,-5.00,-3.00,+0.00,-3.00,-2.00,-1.00,-1.00,-2.00,-4.00
-1.00,-2.00,-7.00,-3.00,-2.00,+1.00,+0.00,-2.00,-1.00,-3.00,-2.00,-1.00,+0.00,+0.00,+1.00,-3.00
-5.00,-3.00,-3.00,+0.00,-4.00,-1.00,+0.00,-2.00,-2.00,+1.00,+0.00,-2.00,-2.00,-1.00,+2.00,-3.00
-3.00,+3.00,+0.00,+0.00,+0.00,-1.00,-1.00,+2.00,-1.00,+5.00,+1.00,-3.00,-2.00,-2.00,-3.00,-1.00
-5.00,-4.00,+1.00,+0.00,+0.00,-2.00,-2.00,-1.00,-1.00,-1.00,+1.00,-1.00,-1.00,+0.00,+1.00,+2.00
+1.00,+4.00,+1.00,-1.00,-1.00,+0.00,-1.00,-8.00,-1.00,-1.00,+1.00,-2.00,-2.00,-2.00,-2.00,-2.00
-2.00,-3.00,-2.00,-2.00,+0.00,-2.00,-2.00,-4.00,-1.00,+0.00,+3.00,-1.00,-2.00,-2.00,-3.00,-1.00
+18.00,-2.00,+2.00,+2.00,+1.00,+4.00,+2.00,+6.00,-2.00,-3.00,-1.00,+0.00,+0.00,+2.00,+3.00,+1.00
-1.00,+0.00,+0.00,+0.00,-2.00,-2.00,-7.00,-4.00,-3.00,+1.00,+1.00,+1.00,+0.00,-1.00,-5.00,-4.00
-2.00,-2.00,-2.00,+0.00,+1.00,-3.00,+10.00,+8.00,-3.00,-3.00,-3.00,-2.00,-3.00,-1.00,+0.00,-2.00
+2.00,+3.00,-2.00,-2.00,-1.00,+2.00,+0.00,-6.00,-3.00,-1.00,-1.00,-2.00,-2.00,+0.00,+2.00,-2.00
+1.00,-4.00,+0.00,-3.00,-1.00,-3.00,-1.00,+3.00,-2.00,-3.00,-5.00,+0.00,+0.00,-4.00,-4.00,-8.00
-2.00,-6.00,-2.00,-1.00,+1.00,+1.00,-3.00,-2.00,-1.00,+3.00,-2.00,-1.00,-2.00,-1.00,+3.00,+3.00
-1.00,-2.00,+0.00,-2.00,-3.00,-3.00,-3.00,-6.00,+0.00,+1.00,+0.00,+0.00,+0.00,+2.00,+0.00,+0.00
-2.00,-2.00,-1.00,+0.00,+0.00,-3.00,+1.00,+1.00,-2.00,+2.00,-3.00,-1.00,-1.00,-5.00,-11.00,-2.00
-4.00,-1.00,+0.00,-2.00,-2.00,-1.00,-1.00,-2.00,-3.00,-1.00,+1.00,-4.00,-2.00,-1.00,+0.00,-3.00
+0.00,+0.00,-3.00,-1.00,-1.00,-1.00,+1.00,-5.00,+2.00,-3.00,+0.00,-1.00,-1.00,-2.00,+0.00,-2.00
-6.00,-3.00,-1.00,+0.00,+0.00,-1.00,-4.00,-2.00,-1.00,+0.00,+1.00,-2.00,-1.00,-1.00,+0.00,-3.00
+10.00,-2.00,+0.00,-1.00,+0.00,-3.00,+0.00,-21.00,+1.00,-4.00,-3.00,-1.00,+0.00,+0.00,+1.00,-1.00
+1.00,+2.00,+2.00,+2.00,+0.00,+0.00,-3.00,+0.00,+0.00,-2.00,-2.00,+0.00,-1.00,-1.00,-2.00,-1.00
-4.00,-1.00,+4.00,+0.00,-1.00,-1.00,-3.00,-1.00,+0.00,-2.00,-2.00,-2.00,-1.00,-3.00,-1.00,-1.00
+3.00,-2.00,+0.00,-1.00,-2.00,+2.00,-1.00,-5.00,+1.00,+0.00,-2.00,+1.00,-2.00,-1.00,-2.00,+1.00
+5.00,-1.00,-4.00,-2.00,+0.00,-2.00,-2.00,-2.00,+2.00,-5.00,-6.00,+1.00,-1.00,+1.00,+2.00,+1.00
-5.00,+1.00,+0.00,+0.00,-1.00,+0.00,+3.00,+6.00,-1.00,-4.00,-4.00,-1.00,+0.00,-3.00,-2.00,-1.00
-6.00,+0.00,-5.00,-2.00,-2.00,-1.00,-2.00,-2.00,-3.00,+0.00,+0.00,-1.00,+1.00,-1.00,+1.00,-2.00
-1.00,-2.00,-2.00,+2.00,-1.00,-1.00,-2.00,-2.00,-2.00,-6.00,-2.00,-3.00,+0.00,-5.00,-2.00,-2.00
+4.00,+5.00,+2.00,+0.00,+1.00,-1.00,-3.00,+5.00,+0.00,-1.00,+1.00,-2.00,-1.00,+0.00,+1.00,-1.00
-1.00,-3.00,-2.00,-1.00,-1.00,-4.00,+0.00,-1.00,-1.00,-3.00,+1.00,-1.00,-4.00,-2.00,-1.00,-4.00
-1.00,+0.00,-1.00,-1.00,+1.00,+0.00,-1.00,+7.00,+2.00,+0.00,-1.00,-1.00,+1.00,+0.00,-1.00,-2.00
+1.00,+0.00,-1.00,-2.00,+0.00,+0.00,-2.00,-3.00,+3.00,+3.00,+1.00,+0.00,+1.00,-1.00,+0.00,+0.00
-8.00,-4.00,-4.00,-2.00,-2.00,-1.00,-1.00,+1.00,-2.00,-4.00,-2.00,-1.00,-2.00,+1.00,+0.00,-3.00
-4.00,-5.00,-4.00,-2.00,-3.00,+1.00,+0.00,-2.00,+0.00,-1.00,-2.00,-1.00,-2.00,+0.00,+1.00,+2.00
-8.00,-2.00,+0.00,-1.00,-1.00,-3.00,-4.00,-6.00,-3.00,-1.00,+1.00,+1.00,-2.00,-3.00,-4.00,-3.00
-1.00,+1.00,+0.00,+0.00,-1.00,+1.00,+1.00,+3.00,-3.00,+0.00,+0.00,-1.00,-1.00,+0.00,+0.00,+3.00
-1.00,-3.00,+1.00,-2.00,-1.00,+0.00,+1.00,+9.00,-3.00,+1.00,-3.00,-2.00,+2.00,+1.00,+4.00,-1.00
+3.00,-1.00,+0.00,+1.00,-1.00,+0.00,+1.00,-3.00,+1.00,+1.00,-2.00,-1.00,+0.00,-4.00,-13.00,-1.00
+2.00,-3.00,-1.00,-2.00,+0.00,+1.00,-5.00,-6.00,+0.00,-5.00,-1.00,+0.00,-3.00,-2.00,-1.00,-4.00
-5.00,+1.00,-1.00,-1.00,+0.00,-1.00,-5.00,-7.00,-2.00,-1.00,+0.00,-1.00,-1.00,-1.00,-1.00,-1.00
-1.00,+1.00,-1.00,-2.00,-1.00,-2.00,+0.00,+7.00,-2.00,+0.00,+0.00,+0.00,+1.00,-2.00,+3.00,-1.00
-4.00,-2.00,-3.00,-1.00,+0.00,-2.00,-3.00,-3.00,-3.00,-1.00,+1.00,-1.00,+1.00,+1.00,+3.00,+3.00
-2.00,+1.00,-4.00,+0.00,+0.00,+0.00,+0.00,-1.00,+0.00,+0.00,+0.00,-2.00,+2.00,-2.00,-4.00,+0.00
+6.00,+0.00,+0.00,-1.00,+0.00,+0.00,+1.00,+0.00,-1.00,+0.00,+1.00,-1.00,-2.00,-2.00,-5.00,-4.00
-5.00,+0.00,-1.00,+0.00,+0.00,+0.00,+3.00,+9.00,-1.00,+2.00,-1.00,+0.00,-2.00,+1.00,-1.00,-1.00
+0.00,+0.00,-2.00,-1.00,-1.00,+1.00,-1.00,-4.00,-2.00,-1.00,-4.00,-2.00,+1.00,-1.00,+0.00,-1.00
+1.00,-6.00,-3.00,+1.00,+2.00,+1.00,+0.00,+2.00,+0.00,+0.00,-1.00,-1.00,-2.00,-1.00,-3.00,-1.00
-5.00,-3.00,-4.00,+1.00,-2.00,-2.00,-3.00,-7.00,-3.00,+1.00,-1.00,+0.00,-3.00,-2.00,+2.00,+1.00
-1.00,-1.00,+5.00,-1.00,-1.00,+0.00,-2.00,-3.00,+2.00,-8.00,-7.00,+2.00,+2.00,+1.00,-1.00,+3.00
+2.00,+1.00,+1.00,-1.00,+1.00,-4.00,-2.00,+0.00,+0.00,+5.00,+3.00,+0.00,-1.00,-2.00,+0.00,-3.00
+4.00,+1.00,+0.00,-3.00,-2.00,+3.00,+5.00,+1.00,-1.00,-4.00,-3.00,-3.00,-1.00,+1.00,+0.00,-1.00
-3.00,-4.00,+0.00,-5.00,-2.00,-4.00,-3.00,+4.00,+1.00,-3.00,-5.00,-2.00,+0.00,-2.00,-1.00,-2.00
-4.00,-1.00,-2.00,+1.00,+0.00,-2.00,-1.00,-5.00,-2.00,-1.00,+2.00,-2.00,-3.00,-3.00,-4.00,-1.00
-3.00,-2.00,-2.00,-2.00,-2.00,-1.00,+3.00,+1.00,-2.00,-3.00,-1.00,+1.00,-1.00,+0.00,+1.00,+1.00
-3.00,+1.00,+2.00,+0.00,-2.00,-3.00,-3.00,-5.00,+0.00,+2.00,+1.00,-1.00,-1.00,-1.00,-1.00,+0.00
-7.00,-1.00,-2.00,-2.00,-3.00,+1.00,+1.00,+29.00,-1.00,+1.00,+2.00,-1.00,-2.00,-2.00,-2.00,-4.00
+4.00,-3.00,+0.00,-1.00,-1.00,-3.00,+1.00,+0.00,-1.00,+1.00,+1.00,+0.00,-2.00,+0.00,-4.00,-8.00
-4.00,+0.00,-1.00,-2.00,-2.00,+0.00,-1.00,-5.00,-2.00,+1.00,+0.00,-3.00,-2.00,-2.00,+0.00,+3.00
+2.00,-1.00,+2.00,-1.00,+1.00,+0.00,-3.00,+3.00,-5.00,+2.00,-1.00,-2.00,+1.00,+0.00,+2.00,-2.00
+3.00,+3.00,+2.00,-1.00,+1.00,+0.00,-7.00,-15.00,-3.00,-1.00,+0.00,-3.00,-2.00,+0.00,+0.00,+0.00
-9.00,-4.00,-4.00,-2.00,-3.00,-1.00,+4.00,+8.00,-1.00,-2.00,-4.00,-4.00,-2.00,-2.00,-3.00,-1.00
-3.00,+1.00,+1.00,+0.00,-1.00,+0.00,+0.00,+0.00,+2.00,+0.00,+0.00,+1.00,-2.00,-1.00,+3.00,+2.00
+0.00,+1.00,+1.00,-1.00,-1.00,-2.00,-1.00,-5.00,-1.00,-2.00,-4.00,+0.00,-3.00,-2.00,-13.00,-3.00
-5.00,+0.00,-1.00,-2.00,-2.00,+0.00,+2.00,-6.00,+1.00,+0.00,-1.00,+1.00,-1.00,+0.00,+0.00,-3.00
+9.00,-1.00,+2.00,+0.00,+0.00,-1.00,-3.00,-3.00,-1.00,-2.00,+1.00,-1.00,-1.00,-1.00,+1.00,-3.00
+5.00,-3.00,-3.00,-1.00,+0.00,+0.00,-1.00,-3.00,-2.00,-4.00,-2.00,-2.00,+0.00,-2.00,-1.00,-3.00
-2.00,+1.00,-1.00,-1.00,-1.00,+0.00,-2.00,+2.00,-2.00,-1.00,-2.00,-1.00,-1.00,-2.00,+1.00,-1.00
-7.00,-4.00,-1.00,-1.00,-2.00,-1.00,-5.00,-7.00,+0.00,-1.00,-2.00,+0.00,+1.00,-1.00,-2.00,+0.00
+1.00,-1.00,-2.00,+0.00,+0.00,-1.00,-3.00,-2.00,-1.00,+1.00,-2.00,-1.00,-1.00,-1.00,-1.00,+0.00
-1.00,-1.00,-2.00,-1.00,-1.00,+0.00,+0.00,+0.00,-1.00,+0.00,-4.00,-1.00,-2.00,-1.00,-4.00,+0.00
+2.00,+0.00,+1.00,+1.00,+1.00,-4.00,+1.00,-2.00,-3.00,+0.00,-1.00,-1.00,-1.00,+1.00,+1.00,-2.00
+6.00,-1.00,-3.00,-2.00,-2.00,+1.00,+0.00,+4.00,-5.00,-1.00,-2.00,-4.00,+0.00,-1.00,-2.00,-1.00
-4.00,+0.00,-2.00,+0.00,+0.00,+1.00,-6.00,-5.00,-1.00,-3.00,+0.00,+0.00,+1.00,+0.00,+0.00,+0.00
+1.00,+2.00,+0.00,-1.00,-1.00,-1.00,+5.00,+1.00,-1.00,+2.00,+0.00,-4.00,-2.00,+0.00,-1.00,-2.00
-1.00,+2.00,-2.00,-2.00,-1.00,-1.00,-3.00,-1.00,+3.00,-5.00,-3.00,-1.00,-2.00,-1.00,-1.00,+1.00
+0.00,-2.00,+3.00,+0.00,-2.00,-2.00,+0.00,-7.00,-1.00,-3.00,+0.00,+0.00,-1.00,-3.00,-7.00,-3.00
-8.00,+0.00,+3.00,-3.00,+0.00,-2.00,+0.00,-1.00,-1.00,+7.00,+2.00,-2.00,+0.00,-1.00,+1.00,+3.00
-9.00,-3.00,-2.00,-1.00,-2.00,+0.00,-5.00,-4.00,-1.00,-6.00,-2.00,-2.00,-2.00,-1.00,-1.00,+1.00
+3.00,-2.00,-2.00,+0.00,-1.00,+0.00,+2.00,+1.00,-2.00,-1.00,-1.00,-1.00,-3.00,+0.00,+0.00,-2.00
-1.00,-4.00,-4.00,+0.00,-2.00,+1.00,+2.00,+2.00,+0.00,-3.00,+0.00,-1.00,-2.00,-1.00,-1.00,-2.00
-5.00,-3.00,+0.00,+0.00,+1.00,-1.00,-6.00,-6.00,-3.00,-1.00,-2.00,+0.00,-2.00,-1.00,-2.00,-1.00
+3.00,+0.00,+1.00,-1.00,+0.00,-3.00,-6.00,-11.00,-4.00,-2.00,-2.00,-1.00,-1.00,+0.00,-2.00,-3.00
+5.00,-2.00,-1.00,+0.00,-3.00,-2.00,+5.00,+6.00,-4.00,-1.00,-3.00,+0.00,+0.00,-2.00,+1.00,+1.00
+2.00,+0.00,-3.00,+1.00,+1.00,-1.00,-2.00,-4.00,-3.00,-4.00,-5.00,-3.00,-1.00,-3.00,+4.00,+0.00
-2.00,+0.00,-2.00,-2.00,+0.00,+0.00,+8.00,+4.00,+3.00,+2.00,-2.00,-3.00,+0.00,+1.00,-1.00,-2.00
-2.00,+2.00,-5.00,-2.00,-3.00,-1.00,-1.00,+1.00,-1.00,-2.00,-2.00,-1.00,-1.00,+0.00,+0.00,+0.00
-4.00,-3.00,+2.00,+1.00,-1.00,-4.00,-3.00,-4.00,-2.00,-2.00,-1.00,-1.00,-1.00,+1.00,-5.00,-1.00
+11.00,+0.00,+0.00,-1.00,+0.00,+1.00,-2.00,-15.00,+0.00,-1.00,-3.00,-1.00,-1.00,-4.00,-2.00,-1.00
-1.00,-2.00,+1.00,+0.00,-2.00,-2.00,-2.00,+13.00,-5.00,-4.00,-1.00,+2.00,-3.00,+0.00,+0.00,-1.00
-5.00,-2.00,+1.00,+0.00,-1.00,+0.00,-2.00,-1.00,-1.00,-1.00,+0.00,-1.00,+1.00,+0.00,+2.00,-4.00
+2.00,-1.00,+2.00,-2.00,-2.00,+1.00,-1.00,-4.00,+0.00,-2.00,+1.00,-4.00,+1.00,-2.00,+0.00,-2.00
-6.00,+1.00,-2.00,+0.00,+1.00,-1.00,-1.00,-4.00,+0.00,-3.00,+1.00,-3.00,-2.00,+0.00,+0.00,-2.00
-6.00,+0.00,+1.00,-1.00,-1.00,-1.00,-1.00,-13.00,+0.00,+0.00,+0.00,-1.00,-3.00,-2.00,+2.00,+3.00
-1.00,-3.00,+1.00,+0.00,+0.00,-4.00,-1.00,+4.00,-1.00,-2.00,-2.00,+0.00,-1.00,+0.00,-4.00,-2.00
-3.00,-3.00,-1.00,-2.00,+0.00,+5.00,+2.00,+2.00,-1.00,+3.00,-1.00,+1.00,+0.00,+1.00,+3.00,+1.00
+3.00,+0.00,+0.00,-1.00,-1.00,-4.00,-3.00,+2.00,-3.00,+2.00,+0.00,-1.00,-1.00,+0.00,-2.00,-4.00
-4.00,+1.00,-4.00,+1.00,-1.00,+0.00,-2.00,-8.00,+0.00,-3.00,-3.00,-1.00,-1.00,-2.00,-1.00,-2.00
+3.00,+0.00,-1.00,+0.00,+0.00,-1.00,+1.00,+5.00,-3.00,-4.00,-2.00,-2.00,+0.00,-1.00,-3.00,+0.00
+3.00,+3.00,+1.00,-1.00,-2.00,-1.00,-2.00,+1.00,+2.00,-1.00,+0.00,+3.00,-2.00,-3.00,-2.00,+1.00
-1.00,-1.00,+2.00,+1.00,+0.00,+0.00,-1.00,-1.00,+0.00,+0.00,-1.00,+2.00,+0.00,+0.00,+0.00,+0.00
-1.00,-1.00,-4.00,-4.00,-2.00,+0.00,-2.00,+0.00,-2.00,+1.00,-2.00,+0.00,-3.00,+1.00,+0.00,+1.00
-1.00,+1.00,+0.00,-1.00,-2.00,-1.00,-1.00,-7.00,+0.00,-2.00,+0.00,+0.00,-2.00,-2.00,-1.00,+0.00
-9.00,-1.00,-1.00,-1.00,-3.00,-5.00,-2.00,-5.00,+0.00,-1.00,-2.00,-2.00,-2.00,+0.00,-2.00,-4.00
+2.00,-3.00,-1.00,-2.00,-2.00,+0.00,+1.00,+5.00,-2.00,-1.00,-2.00,-2.00,-3.00,-1.00,-1.00,+2.00
-1.00,+1.00,+3.00,-1.00,-1.00,-2.00,-2.00,-1.00,-2.00,+1.00,+2.00,+1.00,+0.00,-2.00,-1.00,-1.00
+4.00,-4.00,-1.00,+0.00,+0.00,+0.00,+2.00,+1.00,-1.00,-5.00,+0.00,+0.00,-1.00,-1.00,+0.00,-3.00
-7.00,-2.00,-3.00,-1.00,+0.00,-2.00,-2.00,+0.00,+0.00,+1.00,-2.00,-5.00,+0.00,-1.00,-1.00,+0.00
-6.00,-3.00,-2.00,+1.00,+0.00,-1.00,+3.00,+3.00,-1.00,+0.00,-2.00,-3.00,+1.00,-1.00,+0.00,+2.00
-1.00,+2.00,-4.00,-3.00,-1.00,-1.00,-1.00,-3.00,-1.00,-2.00,-2.00,-2.00,-2.00,-2.00,-4.00,-1.00
-7.00,-2.00,+1.00,-2.00,-2.00,-2.00,-1.00,-3.00,-2.00,+0.00,-2.00,+1.00,-2.00,-1.00,-1.00,+1.00
+2.00,-1.00,-4.00,+0.00,+0.00,+2.00,+0.00,-3.00,-2.00,-2.00,+0.00,-1.00,-2.00,-1.00,-1.00,-2.00
+2.00,+2.00,+0.00,-2.00,+0.00,-1.00,-2.00,+0.00,+0.00,-4.00,-3.00,+1.00,-1.00,+1.00,+0.00,-3.00
+3.00,-4.00,-2.00,-1.00,+1.00,+0.00,+0.00,-3.00,+0.00,+1.00,+2.00,-1.00,-2.00,-3.00,+0.00,+2.00
+7.00,+4.00,+2.00,+0.00,-2.00,+0.00,+2.00,+9.00,+0.00,-4.00,+0.00,-3.00,-1.00,-1.00,+0.00,-1.00
+2.00,+0.00,-1.00,-2.00,-1.00,-2.00,-5.00,-4.00,-2.00,-1.00,+0.00,-3.00,+1.00,+0.00,+1.00,+0.00
-7.00,+0.00,+0.00,+0.00,+0.00,-1.00,-1.00,-2.00,-3.00,+1.00,+2.00,-1.00,+0.00,-1.00,-1.00,-2.00
-1.00,-6.00,-3.00,-2.00,-1.00,-1.00,+7.00,+1.00,-3.00,-2.00,+0.00,-2.00,+1.00,+0.00,-2.00,-3.00
+5.00,-1.00,-3.00,-2.00,-2.00,-1.00,-2.00,+5.00,+3.00,+1.00,+0.00,+0.00,+1.00,+2.00,-1.00,+0.00
-2.00,+1.00,+0.00,-2.00,-3.00,-2.00,+2.00,+2.00,-2.00,-2.00,-1.00,+0.00,+0.00,-1.00,-3.00,+0.00
-1.00,+0.00,+0.00,+0.00,-1.00,-1.00,-1.00,-2.00,+1.00,+2.00,+1.00,+0.00,+0.00,-1.00,-1.00,+1.00
+2.00,-3.00,+1.00,+2.00,-1.00,-3.00,-6.00,-5.00,-1.00,-4.00,-3.00,-4.00,+1.00,-1.00,+0.00,-3.00
-14.00,-3.00,-2.00,-1.00,+1.00,-1.00,-2.00,+23.00,+1.00,-1.00,-2.00,-2.00,-1.00,-2.00,+0.00,-2.00
-3.00,-2.00,-3.00,+0.00,+0.00,-1.00,+1.00,+2.00,+1.00,+0.00,+0.00,-1.00,-1.00,-1.00,-3.00,+0.00
-1.00,+1.00,+1.00,+0.00,-1.00,+0.00,+1.00,+7.00,+1.00,-2.00,-3.00,-3.00,-3.00,-1.00,+2.00,-2.00
+2.00,-3.00,-4.00,-2.00,-3.00,-4.00,+0.00,+3.00,-1.00,-3.00,-2.00,+0.00,-2.00,-2.00,-6.00,-2.00
+6.00,+1.00,+1.00,-1.00,+0.00,+4.00,-1.00,-13.00,-2.00,+2.00,-2.00,-1.00,-2.00,-3.00,-5.00,-4.00
-2.00,-4.00,+0.00,+0.00,+1.00,+0.00,-4.00,-4.00,-2.00,-1.00,+1.00,+1.00,-2.00,-1.00,+1.00,+1.00
-7.00,+1.00,-1.00,-1.00,-2.00,-2.00,+0.00,+1.00,-2.00,-3.00,-1.00,-1.00,-1.00,-3.00,-3.00,-4.00
+2.00,+2.00,+2.00,+3.00,+2.00,-1.00,-2.00,-6.00,-2.00,-1.00,-3.00,-2.00,+0.00,+1.00,+2.00,-1.00
