+1.00,-18.00,-4.00,-2.00,-2.00,-1.00,-1.00,-5.00,+4.00,+2.00,-2.00,-1.00,+0.00,+1.00,-1.00,-3.00
-1.00,+52.00,+2.00,-1.00,-1.00,-1.00,+0.00,+0.00,-12.00,-5.00,+2.00,-2.00,-2.00,+0.00,+0.00,-2.00
-4.00,-6.00,-3.00,+1.00,-1.00,-1.00,-4.00,-5.00,+1.00,-1.00,-2.00,+1.00,-2.00,+0.00,+1.00,+0.00
+1.00,+19.00,+3.00,+1.00,+3.00,-1.00,+0.00,+0.00,+5.00,+1.00,-2.00,-1.00,-1.00,-1.00,-1.00,-1.00
+6.00,+2.00,-4.00,-3.00,-3.00,-1.00,+2.00,+4.00,+15.00,+9.00,+0.00,-2.00,-1.00,+0.00,-1.00,+0.00
-3.00,-18.00,-3.00,+0.00,-1.00,-2.00,+0.00,-3.00,-13.00,-7.00,-1.00,-1.00,-2.00,+1.00,-1.00,+2.00
+2.00,+9.00,+1.00,+2.00,+0.00,+0.00,+1.00,+4.00,-24.00,-8.00,+0.00,-1.00,+0.00,+0.00,+2.00,-2.00
+6.00,-36.00,-4.00,-2.00,+0.00,-1.00,+1.00,-21.00,+14.00,+2.00,-3.00,-2.00,-2.00,-1.00,+0.00,-1.00
+4.00,+59.00,+4.00,+3.00,+0.00,-1.00,-2.00,+1.00,-2.00,-4.00,-2.00,+0.00,+2.00,-1.00,+0.00,-1.00
+2.00,-15.00,+0.00,+1.00,+1.00,-1.00,-2.00,-3.00,+0.00,+0.00,-1.00,+1.00,-2.00,-1.00,-3.00,-3.00
+5.00,+8.00,+1.00,-2.00,+0.00,-2.00,+1.00,+3.00,+8.00,+3.00,-1.00,-1.00,-8.00,-2.00,-1.00,-7.00
-5.00,-7.00,-1.00,-1.00,-1.00,+0.00,-3.00,+0.00,-22.00,-12.00,-2.00,+6.00,+23.00,-1.00,-1.00,-4.00
+3.00,-7.00,-1.00,-1.00,-3.00,+0.00,-1.00,-7.00,+6.00,+7.00,-1.00,-5.00,-21.00,-1.00,+2.00,+6.00
-6.00,-42.00,-3.00,-1.00,-1.00,-2.00,-2.00,+0.00,+32.00,+10.00,-1.00,-7.00,+7.00,-3.00,-2.00,+0.00
+11.00,+26.00,+0.00,-2.00,+1.00,+0.00,-1.00,-3.00,-33.00,-11.00,-1.00,-3.00,-3.00,+0.00,+1.00,+0.00
-11.00,-43.00,-4.00,-1.00,-1.00,-2.00,-1.00,+4.00,-33.00,+1.00,+0.00,+9.00,-2.00,-2.00,-3.00,-3.00
-5.00,+0.00,+2.00,+0.00,-3.00,+1.00,+1.00,-2.00,+1.00,-11.00,+3.00,+3.00,+3.00,+2.00,-3.00,-6.00
-3.00,-1.00,-1.00,-1.00,-1.00,+0.00,-2.00,+1.00,+19.00,+17.00,+0.00,-7.00,-12.00,+5.00,+4.00,+16.00
-3.00,-24.00,-2.00,-1.00,-1.00,-2.00,-1.00,+7.00,+26.00,+8.00,+1.00,+9.00,+17.00,-8.00,-2.00,+0.00
+1.00,+56.00,+0.00,-4.00,-11.00,-3.00,-1.00,+7.00,-6.00,-7.00,-5.00,-7.00,-4.00,-4.00,-8.00,-13.00
+9.00,-18.00,+4.00,+0.00,+6.00,+2.00,+1.00,+2.00,-9.00,+4.00,+4.00,-4.00,-20.00,-8.00,+2.00,+13.00
-18.00,-66.00,-2.00,+1.00,-5.00,+1.00,+0.00,-14.00,-1.00,-1.00,+1.00,-4.00,+6.00,+4.00,-3.00,-9.00
-21.00,+7.00,-4.00,-2.00,+11.00,-1.00,-1.00,-6.00,+0.00,+8.00,+1.00,-9.00,+8.00,+3.00,-1.00,+1.00
+19.00,-27.00,-4.00,+0.00,+1.00,-3.00,-2.00,+1.00,-34.00,-2.00,+2.00,+19.00,-13.00,-1.00,-2.00,-3.00
-25.00,+20.00,+3.00,+1.00,-2.00,-2.00,+0.00,-1.00,-4.00,-10.00,-9.00,-3.00,+18.00,+0.00,-1.00,-3.00
-5.00,-15.00,-4.00,-3.00,-36.00,-13.00,-9.00,-6.00,+17.00,+14.00,+0.00,+5.00,-7.00,-3.00,-2.00,-3.00
-7.00,-48.00,-4.00,-1.00,+9.00,+3.00,+23.00,+2.00,-18.00,-12.00,-2.00,+5.00,+2.00,-1.00,-1.00,-2.00
+11.00,+76.00,+8.00,+0.00,-14.00,+4.00,-31.00,+4.00,+38.00,+5.00,+0.00,-16.00,-2.00,-1.00,+0.00,+2.00
-6.00,-36.00,-3.00,+1.00,+27.00,+10.00,-13.00,-2.00,-24.00,-14.00,-1.00,+8.00,-6.00,+1.00,-1.00,-3.00
+27.00,+41.00,+9.00,+9.00,+60.00,+8.00,+13.00,+12.00,-28.00,-11.00,-9.00,+32.00,+10.00,-6.00,-4.00,-21.00
-25.00,-43.00,-10.00,-5.00,-16.00,+0.00,+21.00,+0.00,-38.00,+12.00,+3.00,-1.00,-2.00,+3.00,+17.00,+16.00
-1.00,-45.00,-10.00,-1.00,+6.00,-1.00,+3.00,+1.00,+81.00,-9.00,-5.00,-29.00,+29.00,+11.00,-16.00,+7.00
+3.00,+60.00,+3.00,-2.00,-27.00,-8.00,-2.00,-5.00,-3.00,+23.00,+3.00,-4.00,+51.00,-25.00,+19.00,-12.00
-23.00,-29.00,-9.00,-5.00,+0.00,-1.00,-13.00,-1.00,+74.00,+12.00,-1.00,-6.00,-45.00,+5.00,-12.00,+10.00
+6.00,+30.00,+5.00,+0.00,-16.00,-9.00,-12.00,+1.00,-23.00,-15.00,+3.00,+1.00,-14.00,+12.00,-2.00,-7.00
-26.00,-64.00,-5.00,-2.00,+7.00,+11.00,+11.00,-2.00,-41.00,-17.00,-5.00,-9.00,+56.00,+3.00,+4.00,-2.00
+45.00,+67.00,+1.00,+0.00,-2.00,-2.00,-4.00,+1.00,+92.00,+34.00,+1.00,-2.00,-20.00,-14.00,-12.00,-8.00
-20.00,-58.00,-12.00,-7.00,-36.00,-11.00,+2.00,-1.00,-58.00,-10.00,-2.00,+8.00,+26.00,+10.00,+6.00,-5.00
+28.00,+59.00,+12.00,+0.00,+9.00,+6.00,-6.00,+6.00,+29.00,-13.00,-2.00,+15.00,+73.00,-4.00,+1.00,-3.00
-51.00,-115.00,-9.00,-7.00,-46.00,-17.00,-2.00,-7.00,+21.00,-2.00,+3.00,-3.00,-55.00,-7.00,+2.00,+10.00
-4.00,+9.00,+21.00,+8.00,-19.00,+13.00,-45.00,+4.00,-83.00,-30.00,-3.00,+19.00,+20.00,+3.00,-4.00,-15.00
-13.00,+4.00,-10.00,-2.00,+33.00,-3.00,+10.00,-9.00,-25.00,-19.00,+0.00,-34.00,-40.00,-12.00,-2.00,-8.00
-31.00,-88.00,-12.00,+2.00,+7.00,-14.00,-8.00,-7.00,+50.00,+33.00,-2.00,-1.00,+3.00,+5.00,-4.00,+14.00
+62.00,+113.00,+20.00,+1.00,+20.00,+14.00,+17.00,+9.00,+68.00,+33.00,-3.00,-5.00,+1.00,+0.00,+6.00,+9.00
-10.00,-128.00,-14.00,-3.00,+13.00,+17.00,+2.00,-5.00,-87.00,-52.00,-1.00,+15.00,+12.00,+4.00,+1.00,-10.00
+8.00,+31.00,-2.00,-5.00,-11.00,-18.00,+0.00,+11.00,+72.00,+11.00,-6.00,+24.00,+14.00,-7.00,-3.00,-11.00
-8.00,-17.00,+4.00,+1.00,-20.00,+6.00,-7.00,+12.00,+41.00,+14.00,+7.00,-33.00,-41.00,-1.00,-5.00,+8.00
-4.00,-51.00,-15.00,-5.00,-6.00,-13.00,-13.00,-5.00,+42.00,+13.00,-1.00,-6.00,-17.00,-7.00,+6.00,+3.00
-13.00,+42.00,+5.00,+0.00,-5.00,-26.00,+11.00,+0.00,-37.00,+19.00,-4.00,-8.00,-40.00,+4.00,-4.00,-1.00
+9.00,+31.00,+12.00,+5.00,+9.00,+14.00,-5.00,-8.00,-106.00,-45.00,-4.00,-15.00,+13.00,+4.00,-5.00,-23.00
+11.00,-38.00,-21.00,-5.00,+1.00,-7.00,+4.00,-1.00,+53.00,+6.00,-10.00,+12.00,-16.00,-7.00,-1.00,+11.00
-18.00,+42.00,+5.00,-1.00,+0.00,+3.00,+4.00,+2.00,-19.00,-12.00,+0.00,+16.00,-34.00,-7.00,-2.00,-6.00
-25.00,-43.00,-16.00,-6.00,-3.00,-12.00,+4.00,-9.00,-55.00,-7.00,+6.00,-16.00,+93.00,+12.00,-3.00,+6.00
+7.00,+68.00,-5.00,-9.00,-17.00,+2.00,-3.00,-6.00,+75.00,+1.00,+1.00,+8.00,-7.00,-5.00,+0.00,+11.00
+19.00,-55.00,+14.00,+5.00,-14.00,-2.00,-5.00,+6.00,+58.00,+6.00,-10.00,+1.00,-17.00,-8.00,-4.00,-8.00
+7.00,+41.00,+2.00,+4.00,-40.00,-3.00,+2.00,-4.00,-38.00,-10.00,-2.00,-2.00,-13.00,+13.00,-1.00,-3.00
+25.00,-27.00,+9.00,+8.00,+72.00,+13.00,+9.00,+5.00,-56.00,-11.00,+3.00,-2.00,+79.00,+21.00,-3.00,+3.00
-13.00,-101.00,-3.00,-2.00,-19.00,-5.00,-4.00,-4.00,+37.00,-14.00,-1.00,-5.00,-81.00,-14.00,+4.00,+7.00
-11.00,+70.00,-7.00,+2.00,+47.00,+14.00,-4.00,-2.00,-48.00,+3.00,+5.00,+2.00,+0.00,-8.00,+0.00,+6.00
+13.00,-83.00,+0.00,+0.00,-17.00,-8.00,-2.00,-4.00,+34.00,+30.00,+9.00,+4.00,+9.00,+2.00,-2.00,+4.00
+9.00,+89.00,-5.00,-4.00,-11.00,-7.00,+8.00,-9.00,+43.00,-20.00,-8.00,-3.00,-39.00,-6.00,-1.00,-3.00
+19.00,-24.00,+5.00,+2.00,-15.00,+12.00,+2.00,+33.00,-25.00,+21.00,+4.00,+3.00,+46.00,+8.00,+0.00,+4.00
+38.00,+72.00,-2.00,-9.00,-19.00,-25.00,-2.00,+2.00,-34.00,-9.00,+0.00,-18.00,-20.00,-2.00,-5.00,-14.00
-37.00,-79.00,+0.00,+3.00,+15.00,-7.00,+3.00,+2.00,-27.00,-40.00,-9.00,+2.00,-7.00,-8.00,-3.00,-18.00
+17.00,+24.00,-3.00,-2.00,-8.00,+10.00,+7.00,+3.00,+84.00,+25.00,+6.00,-2.00,-25.00,+1.00,+2.00,+21.00
-3.00,-42.00,+10.00,+2.00,+13.00,+20.00,-3.00,-5.00,-14.00,-1.00,-5.00,+2.00,-7.00,+0.00,+3.00,+10.00
-9.00,-39.00,+2.00,+0.00,-18.00,-13.00,-4.00,+1.00,-105.00,-18.00,+0.00,+2.00,+16.00,-9.00,-6.00,-17.00
+16.00,+91.00,+0.00,+0.00,+27.00,-25.00,+2.00,+9.00,-6.00,-14.00,-2.00,+8.00,+4.00,-4.00,-1.00,-8.00
-31.00,-79.00,-14.00,-6.00,-30.00,-6.00,+1.00,-10.00,+22.00,-5.00,-6.00,-1.00,-68.00,-2.00,-5.00,-10.00
+24.00,+41.00,+7.00,+5.00,+11.00,-4.00,+1.00,+2.00,+83.00,+66.00,+2.00,+16.00,+21.00,-2.00,+4.00,+38.00
-13.00,-9.00,-3.00,-1.00,+7.00,+15.00,-6.00,-8.00,-33.00,-33.00,-2.00,-28.00,+24.00,+3.00,-1.00,-13.00
-14.00,-1.00,-7.00,-1.00,+7.00,-14.00,-4.00,-8.00,+2.00,+21.00,-1.00,-20.00,-1.00,-6.00,-5.00,-5.00
+33.00,+1.00,+2.00,-4.00,-13.00,-9.00,-1.00,-2.00,-20.00,-5.00,-3.00,-7.00,-12.00,+2.00,+0.00,-8.00
-59.00,-12.00,-2.00,+2.00,+6.00,-1.00,+1.00,-3.00,-25.00,-16.00,+3.00,+0.00,+14.00,-3.00,-1.00,-2.00
+23.00,-38.00,-7.00,-5.00,-6.00,+2.00,-8.00,-15.00,+23.00,+12.00,-3.00,+4.00,-55.00,+13.00,+1.00,-3.00
-1.00,+93.00,+18.00,+1.00,-13.00,+4.00,+5.00,+14.00,-52.00,-7.00,-1.00,+10.00,+0.00,-13.00,-1.00,-1.00
-35.00,-111.00,-22.00,-6.00,+14.00,+14.00,-2.00,-8.00,+67.00,+4.00,+0.00,-4.00,-9.00,+12.00,-1.00,+5.00
+8.00,-8.00,+14.00,+5.00,-17.00,+0.00,+5.00,-1.00,+5.00,-28.00,-5.00,+0.00,+13.00,-3.00,-1.00,-7.00
+9.00,-64.00,-9.00,-5.00,+2.00,+2.00,-3.00,-3.00,-20.00,+17.00,-2.00,+8.00,+6.00,-1.00,-4.00,-17.00
+16.00,+0.00,+3.00,+2.00,-23.00,+19.00,+1.00,-3.00,-12.00,+0.00,+6.00,+6.00,+30.00,+16.00,+3.00,+16.00
-55.00,-14.00,-7.00,-3.00,+17.00,-13.00,-3.00,-11.00,+0.00,-4.00,-4.00,-4.00,-59.00,-34.00,-4.00,-3.00
+36.00,+15.00,-5.00,+0.00,+12.00,+27.00,+3.00,+3.00,-59.00,-14.00,-2.00,-13.00,+16.00,+13.00,+0.00,-9.00
-21.00,+30.00,+7.00,+0.00,+3.00,-5.00,+9.00,-5.00,+34.00,+5.00,+4.00,+9.00,+35.00,+0.00,-1.00,+0.00
+6.00,-48.00,-10.00,-4.00,-8.00,+9.00,-17.00,-3.00,-37.00,-4.00,-5.00,-13.00,-52.00,-13.00,-3.00,-9.00
-4.00,+11.00,+4.00,-2.00,-12.00,+2.00,-1.00,+4.00,-9.00,+12.00,+2.00,+0.00,+16.00,+0.00,-1.00,+2.00
+0.00,+16.00,-4.00,-2.00,-9.00,-23.00,-1.00,-5.00,-22.00,-10.00,-3.00,-6.00,-33.00,+3.00,+0.00,-7.00
-1.00,+40.00,+7.00,-1.00,-10.00,-4.00,+0.00,-1.00,+52.00,-4.00,-4.00,-1.00,+4.00,-12.00,-2.00,+8.00
-23.00,-67.00,-12.00,+1.00,+26.00,+8.00,+1.00,-4.00,-47.00,+6.00,-1.00,+4.00,-7.00,-16.00,-1.00,-4.00
+14.00,-36.00,+13.00,+5.00,-10.00,-2.00,+3.00,+3.00,-10.00,-18.00,-1.00,+14.00,+24.00,+17.00,-1.00,+2.00
-4.00,+13.00,-4.00,-4.00,-5.00,-15.00,-3.00,-3.00,+47.00,+26.00,-1.00,-20.00,-12.00,-10.00,+3.00,+14.00
-13.00,-16.00,-2.00,+2.00,+0.00,+5.00,-2.00,-3.00,-11.00,-7.00,-2.00,+1.00,+3.00,+8.00,+2.00,+2.00
-32.00,-107.00,-10.00,-5.00,-5.00,-6.00,+0.00,-8.00,+39.00,+19.00,-1.00,+4.00,+5.00,-8.00,-1.00,-1.00
-6.00,+9.00,+4.00,+5.00,+28.00,-16.00,-5.00,+1.00,-19.00,-7.00,-5.00,-3.00,-34.00,+11.00,-6.00,-10.00
+19.00,+14.00,-5.00,-2.00,-1.00,+6.00,+0.00,-1.00,-56.00,-30.00,+1.00,+17.00,+34.00,-3.00,+0.00,-10.00
-6.00,+72.00,+4.00,+1.00,-17.00,+7.00,-6.00,+2.00,+13.00,+16.00,-1.00,-12.00,-31.00,-4.00,-5.00,-3.00
-4.00,-39.00,-1.00,+3.00,+40.00,+8.00,+5.00,+1.00,-7.00,-8.00,-1.00,+1.00,+15.00,+10.00,+0.00,+1.00
+13.00,+39.00,-1.00,-2.00,-19.00,+5.00,+5.00,-18.00,+41.00,+21.00,-3.00,+11.00,+10.00,-8.00,+0.00,+6.00
+22.00,+92.00,+8.00,-2.00,+10.00,-3.00,-1.00,-1.00,-56.00,-39.00,+1.00,-22.00,-30.00,-7.00,-5.00,-16.00
+2.00,-128.00,-4.00,-1.00,+0.00,-1.00,-3.00,+2.00,+43.00,+39.00,+3.00,-5.00,+17.00,-5.00,-3.00,+5.00
+16.00,+53.00,+2.00,-5.00,-7.00,-3.00,-1.00,+1.00,-39.00,+0.00,+0.00,-5.00,-65.00,-2.00,+2.00,+2.00
+23.00,-1.00,+2.00,+4.00,+9.00,-3.00,+6.00,+9.00,+9.00,-2.00,+1.00,+15.00,+12.00,+4.00,+1.00,+10.00
-21.00,+37.00,-7.00,-3.00,+6.00,-2.00,-5.00,-9.00,+12.00,+13.00,+2.00,+5.00,+42.00,+0.00,-1.00,-2.00
-20.00,+26.00,+1.00,-2.00,-22.00,-4.00,-1.00,-3.00,-30.00,-23.00,-2.00,-23.00,-36.00,-7.00,-3.00,-10.00
+18.00,-3.00,+7.00,+1.00,+7.00,+5.00,+1.00,-6.00,-29.00,-20.00,-7.00,-6.00,+43.00,+4.00,-3.00,-8.00
+24.00,+44.00,+5.00,+2.00,-1.00,-6.00,-1.00,+9.00,-10.00,+9.00,+1.00,-2.00,-11.00,-8.00,+1.00,+7.00
-21.00,-41.00,-12.00,-8.00,-9.00,-11.00,-9.00,-10.00,+24.00,+20.00,-2.00,+4.00,-4.00,+2.00,-1.00,+6.00
+14.00,-39.00,-4.00,-1.00,+1.00,+5.00,+1.00,+6.00,-22.00,-23.00,-3.00,+8.00,+7.00,-1.00,-4.00,-7.00
-11.00,+2.00,+0.00,+5.00,+11.00,+1.00,+1.00,-2.00,-1.00,-28.00,-5.00,+2.00,+7.00,+6.00,+3.00,+8.00
+0.00,-11.00,-3.00,+0.00,+6.00,+3.00,+2.00,+7.00,+72.00,+17.00,-2.00,-6.00,+5.00,+0.00,-1.00,+0.00
+6.00,-30.00,+2.00,-1.00,-2.00,-10.00,+0.00,+0.00,-12.00,-10.00,-4.00,-1.00,+3.00,-7.00,-4.00,-10.00
-9.00,+8.00,+1.00,-3.00,-8.00,-10.00,-2.00,+0.00,-27.00,-13.00,-2.00,+7.00,+2.00,+4.00,-1.00,-9.00
-4.00,+0.00,-2.00,+0.00,-15.00,-5.00,-1.00,-2.00,+17.00,+11.00,+3.00,+2.00,-4.00,+0.00,-4.00,+1.00
+15.00,+20.00,-6.00,-1.00,+24.00,+8.00,-1.00,+1.00,-47.00,-11.00,-2.00,-5.00,+14.00,+2.00,-4.00,-20.00
-9.00,-23.00,+0.00,+1.00,-5.00,-5.00,+6.00,-4.00,+18.00,+5.00,-4.00,-5.00,+11.00,-3.00,-2.00,+5.00
+0.00,+0.00,+8.00,+3.00,+9.00,-1.00,-5.00,+1.00,+24.00,+14.00,+2.00,-2.00,-18.00,-16.00,+4.00,+10.00
-15.00,-10.00,-8.00,-3.00,-4.00,+2.00,-1.00,-7.00,+30.00,+4.00,+7.00,+21.00,+8.00,+28.00,+1.00,+6.00
-19.00,+59.00,+2.00,-7.00,-39.00,-9.00,-3.00,+30.00,-28.00,-12.00,+0.00,+11.00,-6.00,-16.00,+0.00,-3.00
+5.00,-25.00,-8.00,-4.00,-1.00,+12.00,-1.00,-1.00,-19.00,+4.00,-1.00,-24.00,+49.00,+10.00,-3.00,-19.00
-3.00,+74.00,+9.00,+4.00,+11.00,-3.00,+3.00,-2.00,+21.00,-13.00,-7.00,-3.00,-54.00,+0.00,+2.00,+8.00
+16.00,+42.00,-8.00,-4.00,-2.00,-5.00,-3.00,-4.00,-35.00,-3.00,+3.00,-17.00,+31.00,-8.00,+0.00,-4.00
+1.00,-118.00,+3.00,+2.00,-9.00,-5.00,-3.00,-17.00,-8.00,+13.00,+2.00,+0.00,-1.00,-2.00,-3.00,-5.00
-2.00,-22.00,-1.00,-4.00,-9.00,+2.00,+0.00,+7.00,-36.00,-20.00,-6.00,-9.00,-37.00,+1.00,-3.00,-4.00
-3.00,+0.00,-5.00,+0.00,+9.00,+2.00,-7.00,+4.00,+33.00,-1.00,-3.00,+9.00,+63.00,+10.00,+1.00,+4.00
-23.00,-27.00,+1.00,-1.00,+7.00,-16.00,-2.00,-5.00,+0.00,-11.00,-2.00,-1.00,+2.00,+3.00,-1.00,-4.00
+18.00,-38.00,-1.00,-2.00,+3.00,+19.00,+3.00,+2.00,-3.00,-6.00,-6.00,-3.00,-21.00,+0.00,-2.00,+0.00
+8.00,+22.00,+3.00,-1.00,-21.00,-16.00,-4.00,-1.00,+13.00,+4.00,+0.00,+4.00,-7.00,-9.00,+2.00,+6.00
+6.00,-1.00,-3.00,+0.00,-16.00,-2.00,+1.00,-8.00,-39.00,-3.00,+0.00,-2.00,+66.00,+2.00,-3.00,-8.00
+3.00,-11.00,-1.00,+3.00,+17.00,+1.00,-2.00,+3.00,+42.00,-3.00,-7.00,+6.00,-26.00,-8.00,+0.00,-2.00
-15.00,-19.00,-5.00,-4.00,+12.00,+30.00,-1.00,-7.00,-22.00,-28.00,-4.00,-7.00,-49.00,+1.00,+1.00,+0.00
-24.00,+16.00,+2.00,+4.00,+19.00,-8.00,+4.00,+0.00,-22.00,+16.00,+2.00,+2.00,-9.00,-3.00,-2.00,-8.00
-3.00,+34.00,-4.00,-1.00,+7.00,-11.00,-1.00,-3.00,+41.00,+15.00,+3.00,+4.00,-14.00,+0.00,+0.00,+5.00
+20.00,-71.00,-4.00,-6.00,-14.00,+11.00,-1.00,-1.00,-3.00,-2.00,-1.00,+13.00,+15.00,+2.00,+1.00,+4.00
-5.00,+68.00,+8.00,+0.00,-8.00,-13.00,+0.00,-2.00,+40.00,+15.00,+1.00,-15.00,+18.00,-7.00,-1.00,+6.00
+9.00,-95.00,-7.00,+0.00,-4.00,+0.00,-3.00,+5.00,+3.00,-1.00,-5.00,-8.00,-10.00,+0.00,-4.00,-6.00
+1.00,+5.00,-6.00,-2.00,+2.00,+1.00,+2.00,+13.00,-31.00,-26.00,-4.00,-3.00,-43.00,+1.00,+1.00,-6.00
-4.00,+56.00,-5.00,-3.00,-2.00,+5.00,-3.00,-4.00,+8.00,+10.00,+1.00,+1.00,+27.00,-7.00,-2.00,+0.00
+15.00,-23.00,+7.00,+4.00,+0.00,-20.00,-1.00,+8.00,+29.00,+5.00,+1.00,+0.00,-19.00,+3.00,+0.00,+0.00
+2.00,-58.00,+1.00,-1.00,+3.00,+5.00,-2.00,+2.00,-62.00,-26.00,+2.00,+5.00,-15.00,-3.00,-1.00,-3.00
+10.00,-6.00,+9.00,+4.00,+8.00,+3.00,+4.00,-1.00,-6.00,-6.00,-3.00,+0.00,+47.00,+16.00,-2.00,-11.00
+7.00,+50.00,+1.00,+0.00,+7.00,+7.00,+9.00,+6.00,-8.00,-5.00,-3.00,+12.00,-49.00,-22.00,-2.00,-4.00
-9.00,-1.00,-5.00,-4.00,-21.00,-10.00,-13.00,-29.00,-50.00,-7.00,-1.00,-5.00,+74.00,+9.00,-2.00,-2.00
-7.00,-25.00,-2.00,+2.00,+1.00,+2.00,-2.00,-6.00,+57.00,-6.00,+3.00,-15.00,-20.00,-1.00,+4.00,+14.00
-20.00,-35.00,-4.00,-1.00,+14.00,+4.00,-4.00,-6.00,+1.00,+28.00,+3.00,-5.00,-27.00,-10.00,-2.00,-1.00
+53.00,+46.00,+9.00,+4.00,+20.00,+2.00,+3.00,+3.00,+4.00,-7.00,-7.00,-8.00,-5.00,+4.00,-1.00,-1.00
-14.00,-43.00,-12.00,-1.00,-9.00,-3.00,+3.00,-5.00,-23.00,-5.00,+1.00,+3.00,+2.00,-5.00,+1.00,-5.00
-2.00,+65.00,+1.00,-2.00,-13.00,+4.00,-2.00,+3.00,-6.00,-12.00,+1.00,+12.00,+18.00,-16.00,-2.00,+1.00
+0.00,+49.00,+0.00,-2.00,-6.00,-7.00,+3.00,-2.00,-22.00,+1.00,-3.00,+2.00,-3.00,+22.00,-2.00,-4.00
-16.00,-9.00,-1.00,-3.00,-15.00,+4.00,-8.00,+3.00,+3.00,+15.00,+6.00,-5.00,+23.00,-6.00,+3.00,+9.00
+4.00,-44.00,-4.00,-1.00,-19.00,-24.00,+2.00,+4.00,-1.00,-3.00,-1.00,+2.00,+7.00,+2.00,+0.00,+3.00
+12.00,+13.00,+6.00,+2.00,+22.00,+13.00,+0.00,-3.00,-14.00,-3.00,-1.00,+9.00,+13.00,+3.00,-3.00,-8.00
+15.00,+45.00,+3.00,+0.00,+4.00,+2.00,+1.00,+4.00,+44.00,+7.00,-3.00,-15.00,-52.00,-3.00,-3.00,-2.00
-24.00,-67.00,-8.00,-1.00,-8.00,+7.00,+0.00,-8.00,+14.00,+23.00,+5.00,-2.00,-18.00,+0.00,+1.00,+6.00
+19.00,+124.00,+7.00,+0.00,+0.00,+0.00,-1.00,+9.00,+23.00,+12.00,-1.00,-9.00,+16.00,-10.00,-4.00,-2.00
+0.00,-16.00,-1.00,-3.00,-15.00,-5.00,-4.00,-8.00,-6.00,-18.00,-1.00,+15.00,+14.00,+12.00,+1.00,+1.00
-15.00,-88.00,-6.00,-5.00,-7.00,+11.00,-4.00,-14.00,+21.00,-11.00,+0.00,+5.00,-50.00,-12.00,-2.00,+9.00
+22.00,+3.00,+11.00,+3.00,+6.00,-4.00,+1.00,-15.00,+6.00,-6.00,+3.00,-7.00,+10.00,+4.00,+0.00,-5.00
+3.00,-13.00,-8.00,-3.00,-2.00,-7.00,+5.00,+9.00,-29.00,+3.00,-2.00,-5.00,+0.00,+12.00,-2.00,-1.00
-19.00,-35.00,-4.00,-1.00,+2.00,-2.00,+0.00,-7.00,-1.00,+22.00,+3.00,-3.00,-13.00,-4.00,+0.00,+0.00
+19.00,+16.00,-1.00,-3.00,+9.00,+5.00,+0.00,-5.00,-34.00,-12.00,+1.00,+25.00,+43.00,-2.00,-1.00,+2.00
-30.00,+7.00,+3.00,+4.00,-2.00,+1.00,-5.00,+0.00,+13.00,-10.00,-8.00,-28.00,-3.00,-9.00,-3.00,-5.00
+13.00,-9.00,-3.00,-2.00,+2.00,+9.00,+3.00,+11.00,+32.00,+14.00,+1.00,+10.00,+0.00,-7.00,-2.00,-4.00
-9.00,+5.00,-5.00,-4.00,-5.00,-5.00,-1.00,+1.00,+18.00,+19.00,+1.00,-13.00,+13.00,+18.00,+3.00,+4.00
+38.00,+53.00,+14.00,+2.00,+3.00,-4.00,+2.00,+8.00,-27.00,-15.00,-4.00,+0.00,-21.00,-10.00,+3.00,+2.00
-17.00,-30.00,-3.00,-2.00,-15.00,-10.00,-2.00,+1.00,-22.00,-11.00,-1.00,+5.00,-20.00,-5.00,-3.00,-11.00
-19.00,-47.00,-4.00,+2.00,+4.00,-6.00,-2.00,-12.00,-19.00,-7.00,-3.00,-8.00,+11.00,+0.00,-2.00,+0.00
-4.00,+41.00,+2.00,+1.00,+27.00,+11.00,-1.00,+1.00,+37.00,+14.00,-1.00,+3.00,-5.00,-5.00,-3.00,-3.00
-7.00,-21.00,-4.00,+0.00,-13.00,-2.00,+1.00,+1.00,+16.00,+16.00,+5.00,-2.00,+12.00,-1.00,+1.00,+5.00
+10.00,+17.00,-1.00,-5.00,-2.00,-3.00,+0.00,+5.00,-21.00,-5.00,+0.00,+3.00,+30.00,+9.00,+1.00,-5.00
-5.00,+26.00,+3.00,+1.00,+1.00,-3.00,-7.00,-11.00,+0.00,-12.00,-7.00,-5.00,-25.00,-11.00,+0.00,+7.00
-13.00,-41.00,-7.00,-3.00,-5.00,+3.00,+0.00,-2.00,-36.00,-9.00,-3.00,+1.00,+1.00,+1.00,-2.00,-9.00
+2.00,-34.00,-1.00,+1.00,-9.00,-1.00,-2.00,+7.00,-1.00,-10.00,+0.00,-4.00,+16.00,-7.00,-1.00,-1.00
+8.00,+67.00,+1.00,-2.00,+7.00,-4.00,-1.00,-19.00,+7.00,+10.00,-2.00,-1.00,-10.00,+19.00,-4.00,+0.00
+9.00,-32.00,-3.00,-1.00,+0.00,-7.00,+9.00,+8.00,-13.00,-6.00,+1.00,+2.00,+0.00,-7.00,+0.00,-4.00
-14.00,+29.00,-2.00,-1.00,-2.00,+1.00,+0.00,-5.00,-15.00,-6.00,+0.00,+0.00,-27.00,+0.00,+2.00,+5.00
+2.00,-44.00,-4.00,+0.00,-2.00,-6.00,-5.00,-1.00,-10.00,-8.00,+1.00,+24.00,+100.00,+20.00,+2.00,-10.00
-13.00,-4.00,+1.00,-1.00,-2.00,-3.00,-2.00,+3.00,+6.00,+0.00,-3.00,-35.00,-54.00,-5.00,+1.00,+8.00
-17.00,-18.00,+0.00,-2.00,+0.00,+16.00,-5.00,+6.00,+17.00,+2.00,+1.00,-8.00,-19.00,-7.00,-11.00,-4.00
+2.00,+4.00,-4.00,+0.00,-3.00,-16.00,-1.00,-1.00,+12.00,+6.00,-2.00,-2.00,+52.00,+10.00,-2.00,-2.00
+1.00,+63.00,+3.00,-3.00,-1.00,+0.00,-2.00,-2.00,-10.00,-1.00,-1.00,-8.00,+26.00,-25.00,-12.00,-9.00
+25.00,+22.00,-2.00,-1.00,+0.00,-5.00,+8.00,+10.00,-2.00,+0.00,-1.00,+17.00,-59.00,+17.00,+8.00,-14.00
-18.00,-87.00,-8.00,-1.00,+0.00,+1.00,-4.00,-14.00,+3.00,+0.00,+5.00,-6.00,-11.00,-19.00,+28.00,+26.00
-26.00,+80.00,+10.00,+1.00,-3.00,-14.00,+7.00,+7.00,+7.00,-3.00,+5.00,+0.00,+11.00,+38.00,+7.00,-4.00
+2.00,-52.00,-5.00,-2.00,-2.00,+10.00,+3.00,-1.00,-14.00,-6.00,-14.00,+5.00,-15.00,-33.00,-14.00,+21.00
-3.00,-27.00,-4.00,-2.00,-14.00,+12.00,-9.00,-11.00,-2.00,+4.00,-5.00,+2.00,+48.00,-5.00,-33.00,-18.00
-4.00,+4.00,-3.00,+3.00,+13.00,-6.00,+1.00,-3.00,+14.00,-7.00,+0.00,-1.00,+19.00,+23.00,-14.00,+2.00
+11.00,-39.00,-1.00,-1.00,+8.00,-12.00,-1.00,+6.00,-4.00,+12.00,+12.00,+9.00,-16.00,-25.00,+19.00,-2.00
-12.00,+6.00,-2.00,-1.00,-7.00,+27.00,-3.00,-8.00,-14.00,-9.00,+1.00,-9.00,-7.00,+8.00,+5.00,-6.00
-3.00,-7.00,+2.00,+0.00,+8.00,-34.00,+1.00,+15.00,+24.00,+1.00,+0.00,+5.00,+12.00,+28.00,-3.00,+24.00
-3.00,-6.00,-1.00,-5.00,-11.00,-12.00,-13.00,-13.00,+5.00,+2.00,-4.00,+2.00,-2.00,+0.00,+23.00,-2.00
+9.00,-5.00,+0.00,-1.00,+5.00,-11.00,-8.00,+5.00,-4.00,-6.00,-6.00,-8.00,+90.00,+4.00,-11.00,-5.00
-13.00,-1.00,-8.00,-2.00,+11.00,+26.00,+9.00,+2.00,+2.00,-5.00,+3.00,-5.00,-60.00,-7.00,-20.00,-13.00
+3.00,-7.00,+10.00,+2.00,-4.00,+43.00,+4.00,+27.00,-10.00,+4.00,+3.00,+11.00,+41.00,-43.00,+11.00,+13.00
-10.00,+12.00,-1.00,-3.00,-6.00,+23.00,+3.00,-8.00,-9.00,-10.00,-1.00,+4.00,-35.00,+1.00,-8.00,-18.00
+14.00,+15.00,-3.00,+3.00,+3.00,-17.00,+14.00,+21.00,+10.00,+5.00,-3.00,-1.00,-25.00,-28.00,-1.00,+10.00
-1.00,-14.00,+7.00,+0.00,+4.00,-8.00,+9.00,+29.00,-6.00,+1.00,-2.00,+15.00,+13.00,+40.00,+4.00,-6.00
-9.00,+8.00,-1.00,-4.00,-2.00,+0.00,-5.00,-4.00,-6.00,-3.00,+2.00,-17.00,+54.00,-25.00,-14.00,-10.00
-9.00,-19.00,-2.00,-3.00,+1.00,+12.00,-9.00,-21.00,+7.00,+7.00,+3.00,+7.00,+8.00,-2.00,-1.00,+9.00
+6.00,+11.00,+1.00,-4.00,-8.00,+17.00,-10.00,-17.00,-12.00,-9.00,-10.00,-4.00,-42.00,-16.00,-9.00,-8.00
-9.00,-22.00,-6.00,-2.00,-10.00,-26.00,-28.00,-24.00,+1.00,-3.00,-3.00,-18.00,-98.00,+1.00,+5.00,-2.00
-2.00,+4.00,-5.00,-3.00,-3.00,-126.00,-9.00,-28.00,+6.00,-2.00,-1.00,+18.00,+94.00,+11.00,+2.00,+6.00
+13.00,+36.00,+3.00,+3.00,+7.00,+78.00,+21.00,+41.00,+2.00,+2.00,-4.00,-15.00,-44.00,+17.00,+5.00,+0.00
+10.00,-9.00,-4.00,-4.00,-8.00,+29.00,+0.00,-7.00,+12.00,+3.00,-2.00,-41.00,-12.00,-10.00,-2.00,+10.00
-5.00,-33.00,-2.00,+3.00,+15.00,+30.00,+21.00,+11.00,+0.00,+5.00,+5.00,+4.00,+30.00,-41.00,+13.00,-7.00
-23.00,-23.00,-2.00,-2.00,+15.00,-4.00,-8.00,-7.00,-4.00,-6.00,-8.00,-2.00,-124.00,+36.00,+9.00,-12.00
+20.00,+12.00,+1.00,-2.00,-12.00,-63.00,+2.00,+29.00,-11.00,-11.00,-11.00,+19.00,+84.00,-51.00,-48.00,-12.00
+2.00,-8.00,-1.00,+4.00,-7.00,+36.00,+4.00,-3.00,-3.00,-1.00,+4.00,+7.00,-62.00,+7.00,-15.00,-10.00
+10.00,+34.00,+5.00,-3.00,-20.00,-45.00,+0.00,-7.00,-5.00,-2.00,-5.00,-21.00,+60.00,+1.00,+11.00,-18.00
-10.00,-11.00,-7.00,+1.00,+24.00,+29.00,-1.00,-5.00,-6.00,+1.00,+4.00,+37.00,+60.00,+4.00,-5.00,+33.00
-7.00,-2.00,-5.00,-8.00,-3.00,-56.00,+3.00,-16.00,-2.00,-2.00,+1.00,-65.00,+59.00,-31.00,-42.00,-13.00
-18.00,-22.00,-3.00,-4.00,+4.00,-49.00,-30.00,-4.00,-6.00,+0.00,-2.00,+47.00,+13.00,+0.00,+8.00,+2.00
+6.00,+0.00,+0.00,+3.00,+5.00,+11.00,-5.00,-5.00,-14.00,+1.00,+2.00,+19.00,-21.00,+23.00,+3.00,-13.00
-2.00,-13.00,-4.00,+1.00,-21.00,-61.00,-14.00,+6.00,+8.00,+5.00,-2.00,+4.00,+35.00,-4.00,+24.00,+1.00
-29.00,+12.00,+3.00,+6.00,+67.00,+95.00,-7.00,-7.00,-24.00,-9.00,+7.00,-11.00,+54.00,+23.00,-10.00,-3.00
+8.00,+8.00,+3.00,-7.00,-18.00,-102.00,+18.00,-1.00,+71.00,+20.00,-11.00,-10.00,-49.00,-5.00,-4.00,+6.00
-1.00,+9.00,+1.00,+3.00,+2.00,+74.00,+15.00,-32.00,-1.00,-7.00,+1.00,+28.00,-5.00,-3.00,+13.00,-4.00
+20.00,+24.00,+6.00,+9.00,+51.00,+28.00,+12.00,+15.00,-20.00,+3.00,-2.00,-66.00,+84.00,+28.00,-23.00,-9.00
+5.00,-5.00,-3.00,-10.00,-59.00,-83.00,+15.00,+19.00,+9.00,-2.00,+4.00,+20.00,-83.00,-50.00,-10.00,+7.00
-4.00,+3.00,+7.00,+16.00,+28.00,+35.00,-10.00,+8.00,-40.00,-17.00,-5.00,-17.00,+34.00,+82.00,+3.00,-12.00
+2.00,-14.00,-3.00,-2.00,+1.00,+7.00,-18.00,-7.00,+25.00,-6.00,-2.00,+78.00,-115.00,-62.00,-5.00,+20.00
+11.00,+20.00,+0.00,-10.00,-63.00,+28.00,+76.00,+2.00,-5.00,-3.00,-9.00,-47.00,-53.00,-43.00,+61.00,-13.00
+0.00,+3.00,+0.00,+9.00,+56.00,-33.00,+9.00,-30.00,+3.00,+7.00,+2.00,+54.00,-41.00,+8.00,-19.00,+29.00
-2.00,-7.00,-1.00,-4.00,-49.00,+21.00,-32.00,-15.00,-12.00,-9.00,+1.00,-59.00,+80.00,-58.00,+46.00,+17.00
-10.00,-12.00,-12.00,-13.00,+6.00,-40.00,+25.00,+10.00,+21.00,+27.00,+8.00,+88.00,-26.00,-6.00,-70.00,+9.00
+8.00,-37.00,+2.00,+12.00,+75.00,+9.00,-57.00,+7.00,-6.00,-4.00,-2.00,-68.00,+69.00,+55.00,-23.00,-8.00
+19.00,-38.00,-1.00,-6.00,-50.00,+31.00,-27.00,-5.00,+0.00,-2.00,-8.00,+70.00,+6.00,+47.00,+44.00,-24.00
-2.00,+57.00,+3.00,-3.00,-35.00,+5.00,+30.00,-6.00,-27.00,-12.00,-3.00,-72.00,+53.00,-29.00,-9.00,-21.00
-17.00,-4.00,-3.00,+0.00,+35.00,-34.00,+1.00,+26.00,+12.00,+2.00,-4.00,-64.00,-17.00,+34.00,-10.00,+18.00
-13.00,-5.00,-6.00,-13.00,-32.00,+43.00,-16.00,-1.00,-10.00,-5.00,+2.00,+44.00,-107.00,-65.00,+8.00,-17.00
-7.00,-14.00,-2.00,+3.00,-22.00,-65.00,+0.00,-2.00,-29.00,+3.00,-2.00,+48.00,+108.00,+49.00,+17.00,-16.00
-7.00,-22.00,-2.00,-1.00,+70.00,+91.00,-54.00,+15.00,+48.00,+5.00,-4.00,+28.00,+75.00,+6.00,-82.00,+8.00
-35.00,+2.00,+0.00,+3.00,-41.00,-49.00,-36.00,-61.00,-15.00,-12.00,-1.00,-15.00,+1.00,-46.00,+48.00,-2.00
+5.00,+16.00,-5.00,-11.00,+14.00,+17.00,-18.00,+42.00,+13.00,+7.00,+4.00,+2.00,-94.00,+70.00,-43.00,-2.00
+6.00,+18.00,+4.00,-4.00,-117.00,-64.00,-44.00,+4.00,-54.00,-22.00,-14.00,-75.00,+9.00,-22.00,-47.00,-16.00
-23.00,-5.00,-3.00,-8.00,-9.00,+4.00,-36.00,-19.00,-40.00,-17.00,-3.00,+22.00,-30.00,+11.00,+112.00,-7.00
+20.00,+9.00,+7.00,+20.00,+103.00,+28.00,+93.00,+14.00,+75.00,+18.00,+2.00,-40.00,+12.00,-3.00,-3.00,+33.00
-10.00,+7.00,-5.00,+9.00,+43.00,-12.00,-6.00,-10.00,-32.00,-8.00,-5.00,-6.00,+67.00,-23.00,+57.00,+13.00
-2.00,+17.00,+2.00,+5.00,+10.00,+67.00,+13.00,+0.00,+61.00,+26.00,+7.00,+39.00,-128.00,+39.00,-92.00,+6.00
+3.00,-16.00,-6.00,-23.00,-92.00,-18.00,+13.00,-6.00,-23.00,+10.00,-1.00,-69.00,+16.00,-20.00,-10.00,-14.00
+3.00,-3.00,+0.00,+5.00,+13.00,+1.00,-60.00,-3.00,-42.00,-14.00,-7.00,+20.00,+87.00,-61.00,+52.00,-13.00
+10.00,+3.00,+4.00,-16.00,-89.00,-32.00,-56.00,-13.00,+14.00,-7.00,+4.00,+108.00,+25.00,+31.00,-87.00,-13.00
+6.00,-40.00,-6.00,+10.00,+127.00,+14.00,+67.00,+44.00,-16.00,-2.00,-3.00,-78.00,+45.00,-98.00,+61.00,+0.00
-5.00,+10.00,+0.00,-1.00,-26.00,-22.00,+24.00,-15.00,+23.00,-6.00,-10.00,+71.00,+38.00,+31.00,-30.00,+6.00
+7.00,-6.00,-3.00,-3.00,+33.00,-4.00,-40.00,+5.00,-30.00,-16.00,+1.00,-53.00,-37.00,-13.00,-69.00,-7.00
+3.00,+11.00,+1.00,+7.00,-2.00,-25.00,-23.00,-5.00,+24.00,-1.00,-2.00,+6.00,-61.00,-20.00,+66.00,+31.00
-18.00,+0.00,-2.00,+0.00,+77.00,+43.00,+26.00,-8.00,-40.00,-17.00,-8.00,-71.00,-3.00,+10.00,+22.00,-31.00
+23.00,-12.00,-4.00,-7.00,-39.00,-45.00,+73.00,-3.00,+22.00,+5.00,-2.00,-13.00,-61.00,-26.00,+59.00,+8.00
+11.00,+2.00,+0.00,+4.00,+30.00,+43.00,-36.00,-10.00,+2.00,-5.00,+2.00,+6.00,+77.00,+69.00,-12.00,-4.00
-30.00,-9.00,-5.00,-6.00,-33.00,-1.00,+5.00,-7.00,+16.00,+11.00,+5.00,+108.00,+20.00,+17.00,-21.00,-3.00
-17.00,+2.00,-7.00,-26.00,-128.00,-9.00,+10.00,-24.00,+37.00,-5.00,-9.00,-99.00,+11.00,+102.00,+6.00,-4.00
+20.00,+1.00,+3.00,+27.00,+127.00,+6.00,-69.00,+16.00,-26.00,+7.00,+6.00,-12.00,-101.00,-107.00,+45.00,+20.00
+0.00,+8.00,-3.00,-14.00,-52.00,-26.00,+85.00,-1.00,+17.00,+9.00,-3.00,+72.00,-33.00,+106.00,-11.00,-11.00
+13.00,+11.00,+5.00,+5.00,-65.00,+12.00,+119.00,+24.00,+3.00,+3.00,-5.00,-78.00,+0.00,+4.00,-7.00,-5.00
-10.00,-9.00,-1.00,-4.00,+29.00,+10.00,-22.00,+30.00,-27.00,+5.00,+6.00,+62.00,+16.00,+46.00,+16.00,-7.00
-9.00,+31.00,+0.00,+8.00,+10.00,+18.00,-76.00,+3.00,+94.00,+16.00,+7.00,+127.00,+79.00,+22.00,-7.00,+5.00
-2.00,-9.00,-4.00,-13.00,-69.00,+38.00,-68.00,-16.00,-68.00,-9.00,-12.00,-128.00,-41.00,-51.00,-32.00,-29.00
-32.00,-7.00,-5.00,+0.00,+63.00,-3.00,+105.00,-23.00,+30.00,+3.00,+2.00,-71.00,+87.00,-29.00,-45.00,+10.00
+27.00,+3.00,-5.00,-2.00,-33.00,+0.00,+78.00,+3.00,+47.00,-2.00,+2.00,+48.00,+53.00,-32.00,+49.00,+19.00
-11.00,-32.00,+0.00,+16.00,+42.00,-31.00,-13.00,-3.00,-55.00,-3.00,+1.00,+43.00,+67.00,+71.00,+16.00,-10.00
+16.00,-22.00,+4.00,-2.00,-34.00,-62.00,-41.00,+21.00,+14.00,-8.00,-5.00,+1.00,-91.00,-86.00,+58.00,+4.00
-10.00,+46.00,-6.00,-13.00,-108.00,-26.00,+35.00,+2.00,-44.00,-12.00,-8.00,-20.00,-41.00,-113.00,-70.00,-25.00
-1.00,-5.00,+6.00,+22.00,+125.00,+7.00,-6.00,-9.00,+2.00,+8.00,+0.00,+17.00,-72.00,+32.00,+36.00,+3.00
+9.00,+4.00,-2.00,-16.00,-40.00,+16.00,+1.00,-27.00,+45.00,+7.00,-4.00,-26.00,-2.00,+86.00,+16.00,+8.00
-20.00,-7.00,-9.00,-18.00,-51.00,+24.00,-75.00,-5.00,-16.00,+11.00,-3.00,-17.00,-45.00,-16.00,-2.00,+5.00
+16.00,-9.00,+7.00,+27.00,+35.00,-8.00,+0.00,-3.00,-6.00,-7.00,+3.00,-2.00,+55.00,+37.00,-57.00,-6.00
+5.00,+18.00,+0.00,-6.00,-97.00,+15.00,-11.00,+3.00,-21.00,-7.00,-3.00,+10.00,-26.00,-71.00,+13.00,+5.00
-2.00,-17.00,-1.00,+6.00,-17.00,+19.00,+88.00,+3.00,-16.00,-2.00,+6.00,+27.00,-53.00,+59.00,-24.00,-7.00
+9.00,+7.00,+0.00,-4.00,-48.00,-56.00,+0.00,+6.00,-69.00,-21.00,-5.00,+4.00,+53.00,-1.00,+23.00,-4.00
+20.00,-4.00,+1.00,-13.00,-54.00,+9.00,+17.00,-3.00,+71.00,+26.00,-4.00,-35.00,+5.00,+34.00,-17.00,-3.00
-3.00,+0.00,+2.00,+7.00,+47.00,-33.00,-17.00,-9.00,+3.00,+7.00,+4.00,+30.00,-6.00,-84.00,+56.00,+11.00
-24.00,-9.00,-2.00,+5.00,+54.00,-60.00,-39.00,+5.00,-56.00,-19.00,-11.00,-5.00,-55.00,+35.00,-43.00,-16.00
-17.00,-40.00,-7.00,-14.00,-81.00,+14.00,-62.00,+0.00,-13.00,+0.00,+2.00,-51.00,+82.00,-26.00,-20.00,+7.00
-23.00,+24.00,+3.00,+9.00,+101.00,-25.00,+21.00,-4.00,-2.00,-6.00,-4.00,+10.00,+59.00,+29.00,-37.00,-15.00
+11.00,+23.00,+16.00,+18.00,+23.00,+50.00,+8.00,+2.00,-36.00,-8.00,+6.00,+8.00,+39.00,+35.00,+33.00,+17.00
-48.00,-21.00,-6.00,-16.00,-90.00,-50.00,-85.00,+11.00,-3.00,+0.00,+1.00,-50.00,-78.00,-75.00,-48.00,+21.00
+33.00,+19.00,+4.00,-7.00,+1.00,-42.00,-7.00,+5.00,+32.00,+26.00,+12.00,+28.00,+20.00,+10.00,+11.00,+25.00
-49.00,-47.00,-9.00,-5.00,-14.00,+60.00,-31.00,-20.00,-41.00,-16.00,+0.00,+67.00,-34.00,+3.00,+19.00,-9.00
+23.00,+11.00,-2.00,+3.00,+16.00,-23.00,-87.00,+6.00,+43.00,+8.00,+3.00,+41.00,-115.00,-47.00,+66.00,-4.00
-18.00,+17.00,-1.00,-3.00,-43.00,+25.00,+77.00,-1.00,-38.00,-19.00,-11.00,-55.00,+90.00,+1.00,+13.00,+1.00
+14.00,-17.00,+1.00,+1.00,-8.00,+35.00,+37.00,-8.00,+29.00,+8.00,+9.00,+101.00,-36.00,-46.00,-21.00,+2.00
+6.00,+30.00,+7.00,+7.00,-5.00,-59.00,-126.00,-12.00,-20.00,+0.00,-3.00,-65.00,-3.00,+6.00,+110.00,+7.00
+4.00,+7.00,-3.00,+3.00,+62.00,+1.00,+11.00,+10.00,+4.00,-5.00,-2.00,-11.00,+31.00,-15.00,-1.00,+4.00
-6.00,-4.00,-2.00,-7.00,-26.00,+11.00,+33.00,-1.00,+4.00,-2.00,+11.00,+48.00,+42.00,-62.00,-17.00,+1.00
-15.00,+30.00,+2.00,+9.00,+40.00,-26.00,-8.00,-2.00,-15.00,+0.00,-4.00,-91.00,-39.00,+28.00,+15.00,-8.00
+61.00,-30.00,+3.00,-1.00,+19.00,+16.00,-52.00,+2.00,-5.00,-1.00,+1.00,+6.00,-33.00,+28.00,+55.00,-1.00
-17.00,+32.00,-3.00,-22.00,-101.00,-39.00,-28.00,-14.00,+3.00,-4.00,+4.00,+38.00,-114.00,+75.00,-96.00,-6.00
+1.00,-18.00,+2.00,+3.00,+46.00,-4.00,+60.00,+5.00,+32.00,+4.00,+3.00,+33.00,-91.00,+34.00,-72.00,+2.00
+45.00,+29.00,+12.00,+32.00,+108.00,+48.00,+47.00,+18.00,+28.00,-1.00,-2.00,-39.00,-47.00,+89.00,-37.00,-12.00
-29.00,-19.00,-8.00,-11.00,-47.00,+16.00,-58.00,-31.00,-29.00,+3.00,+4.00,+72.00,-30.00,-57.00,+2.00,+13.00
+22.00,-10.00,+0.00,+3.00,-15.00,-50.00,+67.00,-5.00,-1.00,-4.00,-12.00,-128.00,+95.00,+66.00,-48.00,+17.00
-18.00,-9.00,-5.00,-12.00,-40.00,+30.00,+28.00,+0.00,-19.00,+0.00,-1.00,-52.00,+52.00,-98.00,-6.00,-31.00
-12.00,+7.00,+1.00,-15.00,-74.00,-4.00,+80.00,+3.00,+2.00,-10.00,-5.00,+65.00,+22.00,+23.00,+111.00,+8.00
-6.00,-17.00,-5.00,+2.00,+108.00,-39.00,-50.00,+8.00,+7.00,-3.00,-7.00,-38.00,-128.00,+30.00,-13.00,-9.00
+18.00,-7.00,-2.00,-3.00,+31.00,+37.00,-74.00,-6.00,-29.00,-3.00,+6.00,+45.00,+37.00,-57.00,-15.00,-12.00
+15.00,+6.00,+2.00,+1.00,+40.00,-16.00,+11.00,+2.00,+33.00,+5.00,+1.00,+32.00,-89.00,-58.00,-32.00,+8.00
-23.00,-2.00,-7.00,-3.00,+57.00,-61.00,-43.00,-7.00,+9.00,-14.00,-11.00,-38.00,+31.00,+48.00,-36.00,-12.00
+33.00,-1.00,+5.00,+4.00,+6.00,-6.00,+72.00,+24.00,-29.00,+2.00,-3.00,-82.00,+93.00,+71.00,+90.00,-5.00
-88.00,-8.00,-2.00,-18.00,-128.00,-49.00,-69.00,-21.00,+21.00,+16.00,+4.00,+23.00,+111.00,-56.00,-29.00,+2.00
+85.00,-4.00,-3.00,-5.00,-98.00,-79.00,-83.00,-15.00,+15.00,+6.00,+0.00,-62.00,+5.00,+10.00,+11.00,-7.00
-29.00,+6.00,+4.00,+11.00,+81.00,+45.00,-38.00,+13.00,-12.00,-7.00,+1.00,+6.00,+24.00,-15.00,+3.00,+4.00
+37.00,-2.00,-7.00,-14.00,-102.00,-2.00,-25.00,+3.00,+24.00,+4.00,+13.00,+70.00,+26.00,+13.00,-24.00,+19.00
-37.00,-1.00,+3.00,+13.00,+77.00,+37.00,-32.00,-28.00,-19.00,+1.00,+1.00,+65.00,-20.00,-5.00,+5.00,-28.00
+7.00,+1.00,-1.00,-20.00,-81.00,+3.00,+26.00,+2.00,-13.00,+0.00,-3.00,-46.00,-37.00,+27.00,-73.00,+1.00
-13.00,+0.00,+3.00,+5.00,+80.00,-31.00,+28.00,-8.00,+4.00,+2.00,+3.00,-19.00,-19.00,-11.00,-23.00,-16.00
-43.00,+7.00,-2.00,+1.00,-8.00,+3.00,+1.00,-12.00,-1.00,+6.00,+5.00,+71.00,-7.00,-41.00,+4.00,-31.00
-12.00,-14.00,-6.00,+4.00,+16.00,-11.00,+73.00,-13.00,-5.00,+1.00,-1.00,-9.00,+62.00,+67.00,+9.00,-14.00
+32.00,+2.00,-1.00,-15.00,-8.00,+21.00,-29.00,+16.00,-20.00,-9.00,-4.00,-26.00,-119.00,-15.00,+10.00,+2.00
+1.00,-7.00,-3.00,+12.00,+19.00,+56.00,+27.00,-4.00,+36.00,-3.00,+0.00,+29.00,-17.00,-5.00,+42.00,+51.00
-30.00,+3.00,-7.00,-7.00,-50.00,-13.00,+43.00,+15.00,-18.00,-6.00,+1.00,+90.00,+40.00,-44.00,-2.00,-17.00
-27.00,-9.00,-5.00,-22.00,-69.00,+95.00,-41.00,-2.00,+8.00,-2.00,-4.00,-48.00,-57.00,+33.00,+9.00,+5.00
+41.00,-7.00,-5.00,+3.00,+4.00,-12.00,-28.00,+3.00,-10.00,+0.00,-5.00,-18.00,-8.00,+111.00,+56.00,-14.00
-49.00,-7.00,-3.00,+12.00,+26.00,-62.00,+98.00,+0.00,-14.00,+2.00,+2.00,+59.00,-4.00,-39.00,-46.00,+2.00
+2.00,+1.00,+0.00,-8.00,-42.00,+106.00,+6.00,-14.00,+25.00,-13.00,-5.00,-78.00,-78.00,-81.00,+38.00,+21.00
+30.00,+1.00,+4.00,+1.00,-39.00,-15.00,+13.00,+5.00,+19.00,-2.00,-16.00,+4.00,-4.00,+36.00,+5.00,+7.00
-5.00,+3.00,+0.00,+5.00,-14.00,-12.00,+3.00,+0.00,-32.00,-1.00,-3.00,-40.00,+51.00,-46.00,+20.00,-9.00
-4.00,-10.00,-2.00,-5.00,-60.00,+42.00,-9.00,-3.00,-17.00,-1.00,+4.00,-4.00,+68.00,-44.00,-20.00,-15.00
+1.00,-7.00,-3.00,-3.00,+65.00,-10.00,+10.00,-6.00,-10.00,-3.00,-7.00,-14.00,-75.00,+21.00,+8.00,-24.00
-35.00,+15.00,+3.00,+0.00,-46.00,-4.00,+43.00,+4.00,-3.00,+0.00,+6.00,-51.00,-34.00,+40.00,-20.00,+0.00
+38.00,+1.00,-2.00,+13.00,+98.00,+35.00,+5.00,+17.00,-5.00,-4.00,-3.00,+37.00,+85.00,+48.00,+52.00,+5.00
+30.00,-2.00,-1.00,+6.00,+63.00,-21.00,-9.00,-18.00,-7.00,+7.00,+0.00,-10.00,-28.00,-12.00,+24.00,-1.00
+25.00,-6.00,+2.00,+0.00,+1.00,-12.00,+40.00,+8.00,-5.00,-15.00,-16.00,-82.00,+3.00,-28.00,+10.00,+10.00
-37.00,+7.00,+5.00,-8.00,-5.00,+18.00,-30.00,+29.00,+22.00,+7.00,+3.00,+82.00,-89.00,-81.00,+29.00,+10.00
-24.00,+4.00,-2.00,+10.00,+47.00,+7.00,+0.00,-15.00,-7.00,+4.00,+4.00,-8.00,-15.00,-48.00,-31.00,-8.00
+52.00,-13.00,+8.00,+11.00,-45.00,+19.00,+10.00,+17.00,-16.00,-10.00,-6.00,+16.00,-68.00,+7.00,-8.00,-41.00
-21.00,+3.00,+0.00,+9.00,+57.00,+36.00,-35.00,+4.00,+28.00,-6.00,-1.00,-63.00,-60.00,+49.00,+41.00,+30.00
+1.00,-16.00,-9.00,-6.00,-23.00,-24.00,-3.00,-7.00,-28.00,-4.00,-10.00,-55.00,+55.00,-81.00,-32.00,-14.00
-7.00,+0.00,+1.00,+11.00,-48.00,+2.00,+16.00,+13.00,-3.00,-6.00,+1.00,+110.00,-72.00,-56.00,-2.00,-5.00
+18.00,+4.00,-7.00,-23.00,-123.00,+10.00,-47.00,-10.00,-12.00,-4.00,-13.00,-71.00,+31.00,+5.00,+11.00,+5.00
-14.00,+3.00,+6.00,-6.00,-16.00,-12.00,+20.00,+7.00,-17.00,-1.00,-1.00,-2.00,-20.00,-39.00,-67.00,-20.00
-28.00,-14.00,-9.00,+17.00,+122.00,+16.00,+66.00,-6.00,-3.00,+12.00,+7.00,+18.00,+31.00,+24.00,-2.00,-2.00
-82.00,+7.00,+2.00,-15.00,-60.00,-7.00,+7.00,+1.00,-14.00,-2.00,-2.00,-6.00,+12.00,+33.00,-19.00,+5.00
-22.00,-5.00,-5.00,-3.00,-5.00,-4.00,-41.00,-8.00,+7.00,-4.00,+1.00,+9.00,+33.00,-22.00,+31.00,-8.00
+45.00,+3.00,-3.00,-2.00,-69.00,-5.00,-60.00,-3.00,+12.00,+16.00,+8.00,+54.00,+32.00,+11.00,-73.00,-3.00
+4.00,-4.00,-2.00,-8.00,-62.00,-29.00,-57.00,-13.00,+36.00,-3.00,-8.00,-109.00,+14.00,+6.00,+1.00,+16.00
-18.00,-7.00,+1.00,+6.00,+127.00,+14.00,-32.00,-11.00,+1.00,-3.00,+1.00,+60.00,+3.00,+6.00,+72.00,+7.00
-27.00,+3.00,-4.00,-4.00,-46.00,-2.00,+41.00,+18.00,+31.00,-3.00,-5.00,-69.00,+32.00,+37.00,-39.00,-6.00
-27.00,+4.00,+7.00,+19.00,+85.00,-4.00,+56.00,+26.00,-16.00,+7.00,+7.00,-13.00,+71.00,-52.00,+68.00,+7.00
+36.00,+4.00,+0.00,+12.00,+43.00,-20.00,-25.00,+18.00,+14.00,-9.00,-5.00,+17.00,-26.00,-6.00,+2.00,-7.00
+11.00,+0.00,+3.00,-3.00,+56.00,+16.00,+18.00,-15.00,+32.00,+1.00,+8.00,+12.00,+9.00,-17.00,-59.00,-14.00
-6.00,+8.00,+0.00,+0.00,+23.00,+1.00,+2.00,+6.00,-5.00,-20.00,-5.00,+66.00,-40.00,+30.00,-85.00,-2.00
+1.00,-6.00,-3.00,-10.00,-84.00,-18.00,+1.00,-14.00,-15.00,+8.00,-9.00,-46.00,-13.00,+5.00,-40.00,-9.00
+24.00,-6.00,-1.00,+3.00,+30.00,+13.00,+32.00,-4.00,-23.00,-11.00,-5.00,-22.00,+2.00,+46.00,+13.00,-34.00
+12.00,-8.00,+0.00,+4.00,+31.00,+12.00,+98.00,+4.00,+16.00,-4.00,-3.00,-18.00,+43.00,+33.00,-66.00,+11.00
-32.00,+10.00,-5.00,-23.00,-128.00,-25.00,+59.00,-4.00,+5.00,+11.00,+5.00,-10.00,-26.00,-29.00,+61.00,+15.00
+34.00,+9.00,-2.00,+3.00,+30.00,-17.00,-19.00,-8.00,-10.00,-8.00,+1.00,+1.00,-25.00,+20.00,+59.00,-11.00
+56.00,+1.00,+2.00,-6.00,-77.00,+36.00,-35.00,+4.00,-2.00,+5.00,+1.00,+21.00,-98.00,+17.00,-45.00,+7.00
-20.00,-4.00,-8.00,-8.00,-14.00,+7.00,-8.00,-12.00,-41.00,-10.00,-8.00,-15.00,-45.00,-50.00,+42.00,-21.00
+41.00,+7.00,+7.00,+1.00,+10.00,+50.00,-19.00,+8.00,+12.00,+5.00,+2.00,+48.00,+41.00,+51.00,+77.00,-24.00
-58.00,-11.00,-9.00,-23.00,-97.00,-44.00,+27.00,-13.00,-4.00,-4.00,+2.00,+86.00,-24.00,-65.00,-22.00,-2.00
+34.00,-5.00,+5.00,+7.00,+81.00,-7.00,+60.00,-10.00,+27.00,-4.00,-5.00,-108.00,-86.00,-67.00,+2.00,+6.00
+50.00,+5.00,+1.00,+16.00,+59.00,+14.00,+22.00,+8.00,-24.00,-3.00,+1.00,+14.00,-53.00,+11.00,+13.00,+7.00
-56.00,-9.00,-6.00,-4.00,-18.00,-6.00,-33.00,-10.00,+2.00,+7.00,+1.00,+23.00,+32.00,+3.00,-28.00,+5.00
+31.00,-1.00,-1.00,+1.00,-47.00,+18.00,-9.00,-21.00,-5.00,+1.00,+0.00,-56.00,+20.00,+72.00,+43.00,+16.00
-29.00,-1.00,-6.00,-16.00,-70.00,+6.00,-28.00,-9.00,-10.00,-7.00,+1.00,+50.00,+29.00,-1.00,+59.00,-5.00
+3.00,+7.00,+6.00,+6.00,+50.00,+8.00,-56.00,+2.00,+0.00,-2.00,+1.00,+86.00,-29.00,+35.00,-8.00,+0.00
-65.00,-18.00,-9.00,-12.00,-47.00,-7.00,-11.00,-23.00,-40.00,-8.00,-13.00,-105.00,-120.00,-32.00,+40.00,-1.00
+1.00,-1.00,+4.00,+3.00,+43.00,+10.00,-72.00,+16.00,+36.00,-2.00,-1.00,-19.00,+44.00,+29.00,-39.00,+1.00
+25.00,-5.00,-11.00,-9.00,-29.00,-1.00,+72.00,-8.00,-30.00,-6.00,+0.00,+66.00,-85.00,-27.00,-26.00,-8.00
-32.00,+2.00,+3.00,+12.00,+13.00,+10.00,-32.00,-9.00,+19.00,+8.00,+1.00,-57.00,-57.00,-19.00,-17.00,+16.00
+28.00,-2.00,-1.00,-2.00,-4.00,-41.00,+20.00,-8.00,-6.00,+0.00,-3.00,+14.00,+84.00,+13.00,-15.00,-1.00
+22.00,+4.00,-2.00,-4.00,-30.00,+31.00,+41.00,+5.00,-23.00,-10.00,-3.00,+33.00,-61.00,-11.00,-12.00,-2.00
-19.00,-1.00,-3.00,-11.00,-66.00,-16.00,-59.00,-3.00,+8.00,+2.00,+6.00,+32.00,+82.00,+13.00,-13.00,+13.00
-12.00,-5.00,-3.00,+3.00,-7.00,+27.00,-25.00,+10.00,+7.00,+1.00,-3.00,-26.00,+47.00,+80.00,+10.00,-20.00
+13.00,+4.00,-3.00,-9.00,-31.00,-4.00,-14.00,+10.00,-22.00,+0.00,+3.00,+15.00,-10.00,-89.00,-54.00,-2.00
-17.00,-5.00,+4.00,+23.00,+127.00,+10.00,-22.00,-19.00,-8.00,-4.00,-5.00,+33.00,-1.00,+31.00,-28.00,+14.00
+12.00,+8.00,+6.00,+15.00,-44.00,-19.00,+15.00,+45.00,-16.00,-27.00,-2.00,-4.00,-17.00,+27.00,+7.00,-3.00
+26.00,+2.00,-1.00,-14.00,-82.00,+4.00,+5.00,-9.00,+75.00,+31.00,-2.00,-53.00,-122.00,+0.00,+1.00,-1.00
-29.00,+0.00,-4.00,+9.00,+55.00,-19.00,+55.00,+3.00,+23.00,-5.00,+4.00,-12.00,-27.00,+27.00,-102.00,+20.00
+18.00,+3.00,-2.00,-8.00,-27.00,-3.00,-69.00,-7.00,-27.00,-2.00,-1.00,+26.00,-2.00,+57.00,-65.00,-7.00
-12.00,-1.00,+2.00,-1.00,-21.00,-10.00,-10.00,-16.00,+7.00,+1.00,-4.00,-10.00,-2.00,-35.00,-19.00,-6.00
-4.00,-2.00,-1.00,-8.00,-41.00,-31.00,-10.00,+5.00,+4.00,-14.00,+0.00,+32.00,+68.00,+9.00,+15.00,+3.00
+23.00,-9.00,-2.00,+5.00,+18.00,-26.00,+23.00,+5.00,-17.00,-5.00,-5.00,+20.00,-38.00,+25.00,+43.00,-19.00
-2.00,-1.00,-2.00,-10.00,-15.00,+5.00,-16.00,-8.00,+20.00,+2.00,-1.00,+47.00,-8.00,-48.00,-21.00,+2.00
-28.00,-5.00,-5.00,-3.00,+5.00,-4.00,+9.00,+3.00,+1.00,+4.00,+2.00,+58.00,+8.00,-16.00,+56.00,+4.00
+10.00,+21.00,+4.00,+0.00,-6.00,+15.00,-62.00,+2.00,-15.00,+4.00,-7.00,-106.00,+14.00,-52.00,-6.00,-15.00
+41.00,+10.00,+7.00,+8.00,+64.00,+11.00,+27.00,+3.00,+4.00,+3.00,+2.00,+10.00,+29.00,+86.00,+22.00,+14.00
-17.00,-4.00,+2.00,+8.00,+53.00,-11.00,-1.00,-8.00,-16.00,-6.00,+0.00,+20.00,+22.00,+59.00,+21.00,-7.00
+52.00,+1.00,-3.00,-4.00,+9.00,-2.00,-36.00,+7.00,+14.00,+9.00,+4.00,-2.00,-16.00,-76.00,-18.00,+0.00
-2.00,-6.00,-3.00,+1.00,+67.00,+37.00,+44.00,+0.00,-7.00,+2.00,+0.00,+48.00,-57.00,-30.00,-18.00,+8.00
-39.00,-1.00,-2.00,-8.00,-69.00,-2.00,-58.00,+24.00,-2.00,+5.00,+6.00,+2.00,+24.00,+23.00,+27.00,-5.00
-4.00,-2.00,-3.00,-3.00,+14.00,+25.00,+2.00,-4.00,+16.00,+2.00,-1.00,-21.00,+27.00,-15.00,+0.00,+8.00
-37.00,-6.00,-3.00,-2.00,+21.00,-15.00,-19.00,-17.00,+9.00,+2.00,+4.00,+20.00,+17.00,+16.00,+31.00,+28.00
+37.00,+0.00,+0.00,+1.00,+23.00,-37.00,+84.00,-8.00,-33.00,-15.00,-3.00,+76.00,+39.00,-30.00,-41.00,-11.00
+7.00,+0.00,+0.00,+11.00,+66.00,+12.00,+24.00,-3.00,+12.00,+7.00,+5.00,-56.00,+26.00,+5.00,+91.00,+19.00
+7.00,-3.00,-2.00,-5.00,-24.00,+7.00,+98.00,+5.00,+8.00,+1.00,+0.00,-53.00,+13.00,-44.00,-10.00,-21.00
-24.00,-5.00,-5.00,-7.00,+21.00,+4.00,-15.00,-14.00,+0.00,+4.00,+0.00,-1.00,+46.00,+62.00,-6.00,+7.00
-18.00,+0.00,-2.00,-8.00,-94.00,-25.00,-60.00,-13.00,-7.00,-6.00,-1.00,+24.00,+3.00,-5.00,-33.00,+5.00
+15.00,+0.00,+1.00,-2.00,-34.00,+9.00,-12.00,-7.00,+6.00,-1.00,-1.00,-18.00,-11.00,+19.00,-7.00,-9.00
-12.00,-8.00,+1.00,-2.00,-10.00,+2.00,-14.00,-4.00,-31.00,-22.00,-5.00,+26.00,+81.00,-52.00,-11.00,+15.00
-4.00,+8.00,+0.00,+4.00,+5.00,-4.00,-25.00,+4.00,+35.00,+16.00,-8.00,-30.00,-16.00,+18.00,-39.00,-46.00
-7.00,-14.00,+1.00,-5.00,-61.00,-21.00,-47.00,+9.00,-30.00,+1.00,+6.00,+3.00,+17.00,+33.00,+8.00,+15.00
+19.00,+8.00,-5.00,-10.00,-23.00,-5.00,+9.00,+6.00,+11.00,+13.00,+2.00,-2.00,-111.00,-100.00,-101.00,-9.00
+14.00,+9.00,+7.00,+17.00,+49.00,-20.00,-23.00,+13.00,+7.00,-3.00,-6.00,-17.00,-128.00,+16.00,-29.00,+7.00
+21.00,+3.00,+0.00,+4.00,+22.00,+22.00,+2.00,+4.00,-11.00,-6.00,+1.00,+28.00,-56.00,+17.00,-28.00,+2.00
-7.00,-3.00,-1.00,-3.00,-24.00,+1.00,+16.00,-11.00,-43.00,-9.00,-5.00,-41.00,-1.00,+0.00,+15.00,-26.00
-19.00,-11.00,-4.00,-8.00,+29.00,+14.00,+7.00,-2.00,-19.00,-7.00,-4.00,+10.00,+10.00,-14.00,-33.00,-4.00
+15.00,-8.00,-3.00,-3.00,-62.00,+1.00,+9.00,+0.00,-9.00,+0.00,+2.00,+22.00,+56.00,-22.00,-29.00,-22.00
-20.00,+0.00,+1.00,-1.00,-5.00,-15.00,-20.00,-9.00,+1.00,-6.00,-5.00,+23.00,-45.00,-78.00,+0.00,+14.00
-12.00,-13.00,-2.00,+9.00,+54.00,+36.00,+19.00,+5.00,+7.00,+0.00,-5.00,-65.00,+34.00,-3.00,-51.00,+5.00
+20.00,+8.00,+6.00,+3.00,-21.00,-23.00,-50.00,-11.00,+12.00,+1.00,-2.00,+20.00,+72.00,+6.00,+2.00,-1.00
+9.00,+2.00,-6.00,-15.00,-83.00,-40.00,+29.00,+1.00,+4.00,+1.00,-2.00,-48.00,-90.00,+6.00,+41.00,-5.00
+3.00,+1.00,-2.00,+3.00,+44.00,-15.00,+43.00,-2.00,-63.00,+4.00,+0.00,-58.00,-23.00,-1.00,-11.00,-6.00
+3.00,+8.00,-2.00,-4.00,-41.00,-2.00,-1.00,+7.00,+76.00,+1.00,-1.00,-19.00,+57.00,-23.00,+18.00,+9.00
-11.00,-9.00,+0.00,-3.00,-6.00,-7.00,+5.00,+5.00,+11.00,-4.00,-1.00,+18.00,-13.00,+59.00,+36.00,+14.00
-11.00,+7.00,-2.00,+0.00,+13.00,-1.00,+27.00,+23.00,+1.00,+3.00,-1.00,+35.00,-15.00,+8.00,-11.00,-11.00
+13.00,-6.00,+0.00,-4.00,-33.00,-1.00,+16.00,-4.00,+6.00,+3.00,+2.00,-25.00,+50.00,+22.00,-44.00,+25.00
+16.00,+6.00,-1.00,-7.00,-39.00,-41.00,-13.00,-3.00,-24.00,-4.00,-3.00,-4.00,-29.00,-49.00,-26.00,+22.00
-19.00,+3.00,+2.00,+10.00,+63.00,+5.00,+4.00,-11.00,-12.00,-9.00,-7.00,-7.00,+14.00,+16.00,+41.00,-9.00
-7.00,-8.00,-1.00,+1.00,-25.00,-5.00,+8.00,-12.00,+24.00,+3.00,+1.00,+76.00,+33.00,-73.00,+47.00,+5.00
+17.00,+5.00,+3.00,+3.00,+33.00,-2.00,+11.00,+9.00,+18.00,+0.00,+0.00,-10.00,+44.00,-30.00,+18.00,+9.00
-34.00,-20.00,+0.00,+1.00,+7.00,+15.00,-28.00,+9.00,-5.00,-4.00,+2.00,+29.00,+19.00,+52.00,+16.00,-34.00
+41.00,+1.00,+1.00,+1.00,-3.00,+13.00,+34.00,-3.00,+18.00,-9.00,-4.00,+9.00,+31.00,+3.00,+15.00,+7.00
-9.00,+3.00,-3.00,+2.00,+43.00,+12.00,-75.00,-23.00,-26.00,+10.00,+6.00,-13.00,+87.00,+8.00,-2.00,-8.00
+2.00,-17.00,-4.00,-6.00,-7.00,+20.00,-30.00,-4.00,-2.00,-8.00,+1.00,+24.00,+4.00,+41.00,+21.00,+2.00
+4.00,+10.00,+3.00,+2.00,-18.00,-42.00,-8.00,+4.00,+22.00,+14.00,+3.00,-14.00,-83.00,+29.00,+32.00,+7.00
-33.00,-10.00,-3.00,+2.00,+68.00,+24.00,-38.00,-8.00,-16.00,-1.00,+2.00,+43.00,-14.00,-13.00,+8.00,-2.00
+45.00,+3.00,+1.00,+0.00,-13.00,-17.00,+9.00,+10.00,-12.00,-6.00,+0.00,-24.00,+33.00,+56.00,+20.00,-2.00
+2.00,+14.00,+3.00,-5.00,-42.00,+0.00,+11.00,-11.00,+12.00,+1.00,+3.00,+3.00,+45.00,+22.00,-1.00,+3.00
-17.00,+0.00,-2.00,-4.00,-12.00,+8.00,-11.00,-7.00,-14.00,-1.00,-4.00,+2.00,-13.00,-89.00,-16.00,-6.00
+2.00,+1.00,-4.00,+3.00,-11.00,+6.00,-29.00,+8.00,-3.00,+6.00,+4.00,+48.00,+5.00,+29.00,-60.00,-11.00
+5.00,-1.00,-2.00,-3.00,+9.00,-3.00,-11.00,+4.00,+5.00,-3.00,-7.00,-62.00,-44.00,+6.00,-9.00,+10.00
+27.00,+5.00,+4.00,-1.00,-47.00,+9.00,+34.00,+0.00,-3.00,-3.00,+0.00,+25.00,+76.00,-12.00,+43.00,-9.00
+28.00,+7.00,-1.00,+3.00,+91.00,+13.00,+0.00,+1.00,+1.00,-4.00,+2.00,+35.00,-25.00,-2.00,+70.00,+18.00
-8.00,+1.00,+2.00,-8.00,-37.00,-11.00,-33.00,+4.00,-30.00,-2.00,-4.00,-54.00,+42.00,-7.00,-15.00,-13.00
-27.00,-11.00,+0.00,-4.00,-59.00,+6.00,-20.00,-9.00,+19.00,+8.00,+6.00,+44.00,-14.00,-19.00,+39.00,+14.00
-19.00,-8.00,-3.00,+5.00,+76.00,-9.00,-19.00,+11.00,-21.00,-4.00,-10.00,-102.00,+19.00,+21.00,+0.00,-32.00
+5.00,-2.00,+0.00,-1.00,+4.00,+0.00,+13.00,-6.00,+33.00,+4.00,+3.00,+11.00,+14.00,+0.00,+38.00,+7.00
-1.00,-7.00,-4.00,-9.00,-25.00,-20.00,-32.00,-14.00,-22.00,+1.00,+5.00,+7.00,-74.00,+20.00,-28.00,+25.00
+12.00,+2.00,+0.00,+0.00,-7.00,+11.00,-21.00,+12.00,+6.00,+0.00,+1.00,-46.00,+16.00,-45.00,+0.00,-8.00
+10.00,+5.00,-5.00,-1.00,-40.00,+2.00,-7.00,-10.00,+1.00,-9.00,-7.00,+6.00,-128.00,-17.00,-4.00,-8.00
+10.00,-1.00,-4.00,-2.00,-14.00,+8.00,+15.00,+0.00,-14.00,+5.00,-3.00,-14.00,+9.00,+4.00,-19.00,+5.00
-7.00,-3.00,-1.00,-6.00,-26.00,+28.00,-56.00,-12.00,+3.00,-7.00,-8.00,-56.00,-83.00,-60.00,-21.00,-10.00
-18.00,+10.00,+2.00,+1.00,+0.00,+3.00,+31.00,+11.00,+9.00,+0.00,-1.00,+4.00,-39.00,+9.00,-3.00,+3.00
+13.00,+2.00,-2.00,-9.00,-24.00,-23.00,-36.00,-13.00,-20.00,+1.00,-1.00,-48.00,-103.00,-44.00,-10.00,-36.00
-7.00,-12.00,+0.00,+6.00,+46.00,+28.00,+16.00,+0.00,+3.00,-5.00,-2.00,-31.00,-13.00,-31.00,+12.00,+19.00
-42.00,-5.00,+1.00,+1.00,-66.00,-26.00,-13.00,+7.00,+15.00,-3.00,-3.00,-21.00,+29.00,+25.00,+12.00,-5.00
+6.00,+18.00,+4.00,+0.00,-28.00,-17.00,+16.00,-5.00,-25.00,-2.00,-5.00,+31.00,-27.00,+35.00,+29.00,-1.00
-4.00,-2.00,+0.00,+11.00,+70.00,+4.00,+3.00,+4.00,+25.00,-2.00,-1.00,+11.00,+14.00,-20.00,+6.00,+11.00
-14.00,+2.00,-1.00,-4.00,+13.00,-27.00,+2.00,-9.00,-15.00,+4.00,+5.00,+16.00,-13.00,+42.00,+7.00,-2.00
+4.00,-9.00,-6.00,-10.00,-89.00,-42.00,+9.00,+0.00,-7.00,+0.00,+3.00,+19.00,+88.00,-20.00,-50.00,+4.00
-14.00,-3.00,-3.00,+0.00,+63.00,+51.00,+15.00,-3.00,+20.00,-5.00,-6.00,-17.00,-58.00,+3.00,-28.00,-12.00
+17.00,+0.00,+0.00,+3.00,+34.00,-7.00,-4.00,+9.00,+2.00,-6.00,+4.00,+23.00,+92.00,+33.00,-32.00,+17.00
-42.00,-6.00,-4.00,-5.00,-25.00,+28.00,-14.00,-1.00,-10.00,-4.00,-3.00,-4.00,-3.00,+8.00,+7.00,+0.00
+69.00,+13.00,-1.00,+3.00,+3.00,-60.00,+2.00,+2.00,+25.00,+1.00,+3.00,+90.00,-37.00,-20.00,+12.00,+9.00
+3.00,+1.00,-1.00,-5.00,-32.00,+22.00,-6.00,+11.00,-17.00,+0.00,-4.00,-90.00,+15.00,-26.00,-9.00,-13.00
-30.00,-8.00,-1.00,-7.00,-5.00,+19.00,-42.00,-9.00,-15.00,-5.00,+2.00,+69.00,+53.00,+47.00,-14.00,+10.00
+33.00,+0.00,+2.00,+6.00,+38.00,+0.00,+19.00,+1.00,-7.00,-9.00,-4.00,-4.00,+51.00,+38.00,+16.00,-23.00
-31.00,-7.00,+0.00,-7.00,-58.00,+8.00,+35.00,+7.00,+6.00,-9.00,-6.00,+36.00,-18.00,-17.00,-14.00,-4.00
-6.00,-6.00,-4.00,-7.00,-29.00,-38.00,-12.00,-26.00,+15.00,+0.00,-1.00,+47.00,+0.00,-33.00,-9.00,-1.00
+8.00,-7.00,-3.00,-3.00,-10.00,-19.00,+9.00,+6.00,-1.00,+2.00,+0.00,-62.00,-95.00,-18.00,+54.00,-5.00
+6.00,+7.00,-2.00,-6.00,-94.00,-12.00,-8.00,+3.00,-6.00,-6.00,-3.00,-15.00,+52.00,-24.00,-7.00,-28.00
-26.00,-3.00,-1.00,+4.00,+70.00,+50.00,+23.00,-4.00,-3.00,+2.00,-1.00,-30.00,-103.00,-64.00,+11.00,-4.00
-15.00,-4.00,-1.00,-6.00,+11.00,-11.00,-13.00,+1.00,-3.00,-5.00,-6.00,+13.00,-26.00,+6.00,-2.00,-5.00
-38.00,-7.00,-2.00,+10.00,+52.00,+11.00,+6.00,-5.00,+11.00,+0.00,-2.00,+35.00,+37.00,+28.00,-26.00,+8.00
-2.00,+1.00,-6.00,-19.00,-113.00,-40.00,-5.00,-7.00,-5.00,+2.00,+3.00,+45.00,-32.00,-9.00,-9.00,-3.00
-1.00,-7.00,-6.00,-2.00,+1.00,+33.00,-2.00,+31.00,-3.00,-5.00,-1.00,+6.00,+31.00,+52.00,+15.00,-13.00
+20.00,-10.00,-7.00,-6.00,-20.00,-49.00,+5.00,-1.00,+12.00,+5.00,+1.00,-18.00,-43.00,-5.00,-9.00,+11.00
+13.00,+2.00,-2.00,+4.00,+73.00,+18.00,-7.00,-8.00,-21.00,+0.00,-1.00,-21.00,-22.00,-35.00,-6.00,-9.00
-53.00,+6.00,+0.00,+12.00,+83.00,+4.00,-13.00,-9.00,+6.00,+2.00,+0.00,+11.00,+14.00,+23.00,-4.00,+8.00
+91.00,+9.00,+2.00,+0.00,+8.00,+11.00,+4.00,-4.00,+3.00,+1.00,+3.00,-16.00,+21.00,-7.00,+14.00,+7.00
-47.00,-9.00,-1.00,+4.00,+37.00,+38.00,+1.00,+0.00,-4.00,+4.00,-7.00,+18.00,+23.00,+6.00,-4.00,+3.00
+33.00,+4.00,+1.00,-7.00,-52.00,-13.00,+12.00,+14.00,+5.00,+0.00,-6.00,+13.00,-3.00,+1.00,-7.00,+3.00
+13.00,-3.00,-1.00,-7.00,-33.00,+7.00,+10.00,-6.00,+2.00,+1.00,-3.00,+20.00,-10.00,-1.00,-16.00,+2.00
-13.00,-5.00,-2.00,-1.00,+33.00,-7.00,-2.00,-7.00,-3.00,+2.00,+1.00,-14.00,+10.00,+12.00,+4.00,+4.00
-12.00,-4.00,-1.00,+3.00,+43.00,+0.00,+12.00,+0.00,-7.00,-1.00,+5.00,-29.00,-30.00,-27.00,-4.00,+4.00
+2.00,-3.00,-1.00,-4.00,-65.00,-15.00,-1.00,-1.00,+8.00,-3.00,-6.00,-31.00,-16.00,+7.00,-3.00,+2.00
-16.00,-6.00,+0.00,+11.00,+106.00,+25.00,-12.00,+4.00,+5.00,-4.00,-3.00,+6.00,-4.00,-9.00,-57.00,+3.00
-7.00,+7.00,-2.00,-2.00,+7.00,-2.00,+18.00,+6.00,-16.00,+0.00,+0.00,+11.00,+50.00,-15.00,+18.00,-20.00
+9.00,+2.00,-1.00,+3.00,+9.00,-8.00,+1.00,+3.00,-8.00,-3.00,+0.00,+8.00,-12.00,+22.00,+5.00,+11.00
-16.00,+3.00,+0.00,-4.00,-26.00,+7.00,-1.00,-3.00,+14.00,+3.00,+2.00,+10.00,+31.00,+8.00,-17.00,+13.00
+2.00,-2.00,+2.00,-3.00,-11.00,-13.00,+2.00,+3.00,+8.00,-4.00,-2.00,-35.00,-53.00,-16.00,+44.00,+3.00
+1.00,-1.00,-1.00,-1.00,-42.00,-11.00,-11.00,-6.00,+6.00,+1.00,-5.00,-23.00,+20.00,+7.00,+5.00,-6.00
+15.00,+0.00,+1.00,+2.00,+25.00,+19.00,-7.00,-5.00,-10.00,-6.00,-1.00,+17.00,-1.00,+8.00,-7.00,-6.00
-22.00,-1.00,+1.00,+4.00,+16.00,-4.00,+12.00,+1.00,-16.00,-2.00,+1.00,+42.00,-19.00,+0.00,+12.00,-4.00
+4.00,-1.00,-5.00,-3.00,+13.00,-4.00,+0.00,+25.00,-8.00,-2.00,-3.00,-10.00,+9.00,-6.00,-7.00,+2.00
-6.00,+2.00,+3.00,+5.00,+42.00,-22.00,+6.00,-2.00,-4.00,+1.00,+0.00,+0.00,+20.00,-8.00,-5.00,+4.00
+23.00,+4.00,-1.00,-3.00,+0.00,+6.00,-11.00,-14.00,+11.00,+2.00,+2.00,-7.00,-6.00,+15.00,+10.00,+6.00
-41.00,+0.00,-3.00,+3.00,-4.00,-19.00,+7.00,+0.00,-1.00,+1.00,-2.00,-6.00,+49.00,-34.00,-2.00,+3.00
-6.00,-2.00,+2.00,+5.00,+50.00,+16.00,+15.00,+20.00,+3.00,-1.00,-1.00,-9.00,+25.00,+12.00,-1.00,+36.00
-28.00,-9.00,-5.00,-4.00,-12.00,-31.00,-10.00,-9.00,-6.00,+0.00,-1.00,-18.00,-77.00,+53.00,-34.00,+25.00
+13.00,+2.00,-1.00,+0.00,+11.00,-7.00,-3.00,+5.00,+7.00,-1.00,+2.00,+45.00,-35.00,-2.00,-5.00,-7.00
+21.00,+2.00,+1.00,-6.00,-21.00,+7.00,-8.00,+1.00,-10.00,-4.00,-3.00,-42.00,-7.00,+12.00,-22.00,+0.00
+14.00,+3.00,-1.00,-8.00,-57.00,-16.00,-6.00,-16.00,-3.00,+0.00,+1.00,+19.00,+25.00,+2.00,+6.00,-37.00
-12.00,-4.00,+0.00,+2.00,+34.00,+10.00,-3.00,-8.00,+12.00,-3.00,-5.00,-61.00,+0.00,-2.00,+9.00,-19.00
-11.00,-3.00,+0.00,-1.00,-12.00,-6.00,+8.00,+2.00,+26.00,-2.00,+0.00,-14.00,-2.00,-11.00,+21.00,-3.00
+3.00,+1.00,+1.00,+0.00,-39.00,+20.00,+7.00,-4.00,-19.00,-8.00,-4.00,+22.00,-3.00,-9.00,+9.00,-19.00
+4.00,-1.00,-1.00,-1.00,-20.00,-11.00,-4.00,-5.00,-7.00,+2.00,-2.00,+8.00,-5.00,-16.00,-17.00,-14.00
+0.00,+0.00,-1.00,+1.00,-5.00,+24.00,-30.00,-4.00,+16.00,+3.00,+6.00,+46.00,-24.00,+35.00,+16.00,+22.00
+3.00,+3.00,+2.00,+4.00,+9.00,-30.00,+9.00,+8.00,+7.00,-3.00,-2.00,-45.00,+65.00,-45.00,+69.00,-16.00
-2.00,-1.00,-2.00,-6.00,-48.00,+1.00,+2.00,-3.00,-3.00,+3.00,+0.00,+6.00,-69.00,+18.00,+37.00,+32.00
-14.00,-4.00,-3.00,+4.00,+68.00,+9.00,+11.00,-13.00,-10.00,+1.00,+0.00,-2.00,+95.00,-31.00,-49.00,+9.00
+16.00,+2.00,+2.00,-1.00,+14.00,+14.00,-17.00,-2.00,+0.00,+3.00,-1.00,-29.00,-5.00,+0.00,+69.00,-7.00
+0.00,-1.00,-1.00,+0.00,-26.00,-18.00,-7.00,-1.00,-7.00,-6.00,-5.00,-9.00,+84.00,-6.00,-17.00,-5.00
-8.00,+2.00,+0.00,+1.00,+21.00,+6.00,-7.00,-2.00,-8.00,-4.00,-1.00,+35.00,-50.00,+16.00,-35.00,-16.00
-11.00,+2.00,+1.00,-3.00,-43.00,-14.00,-4.00,-3.00,-9.00,-1.00,+1.00,+9.00,-100.00,+24.00,+12.00,-9.00
+24.00,+0.00,-3.00,-2.00,+4.00,-24.00,-10.00,-13.00,-11.00,-3.00,-3.00,-31.00,-34.00,-16.00,-15.00,-11.00
-35.00,-6.00,+0.00,-7.00,-9.00,+26.00,+8.00,+27.00,-14.00,-2.00,-1.00,+37.00,+11.00,-11.00,-28.00,-4.00
-28.00,+1.00,+0.00,+4.00,+80.00,-4.00,-11.00,-6.00,+36.00,+5.00,-1.00,-72.00,-41.00,-7.00,+2.00,-10.00
+43.00,+0.00,+0.00,+5.00,+19.00,+25.00,+54.00,+4.00,+3.00,-6.00,-4.00,-12.00,+23.00,+5.00,+0.00,+19.00
+40.00,+5.00,-1.00,-4.00,-43.00,-2.00,+6.00,-5.00,-3.00,-3.00,-3.00,-9.00,+22.00,-21.00,-30.00,-11.00
-12.00,+0.00,+1.00,+5.00,+38.00,+2.00,+0.00,-1.00,-7.00,-2.00,+1.00,+12.00,+0.00,+17.00,-8.00,-3.00
+8.00,-4.00,-3.00,-7.00,-29.00,-6.00,+0.00,-18.00,-1.00,+0.00,+1.00,+10.00,+3.00,-14.00,+12.00,-1.00
-11.00,-1.00,+1.00,-4.00,-23.00,+2.00,-20.00,+0.00,+12.00,-1.00,+0.00,+11.00,-33.00,+10.00,+11.00,-1.00
-26.00,-6.00,+1.00,+2.00,+2.00,+3.00,+11.00,-1.00,-1.00,-1.00,-1.00,-11.00,-2.00,-25.00,-1.00,+4.00
+12.00,-3.00,-2.00,-2.00,-6.00,+8.00,-2.00,-3.00,-4.00,+4.00,+2.00,+5.00,+2.00,+32.00,-11.00,+8.00
-15.00,-4.00,-1.00,-3.00,-28.00,-7.00,+0.00,+3.00,-11.00,+2.00,+3.00,+9.00,-8.00,+38.00,-3.00,-4.00
+7.00,+1.00,+0.00,+2.00,-5.00,-16.00,-12.00,+0.00,-6.00,-3.00,-4.00,-30.00,+8.00,-45.00,+2.00,+2.00
+12.00,+2.00,-2.00,-2.00,+13.00,+23.00,+20.00,+5.00,+5.00,-4.00,-4.00,+6.00,+23.00,-5.00,+1.00,-4.00
-40.00,-4.00,-2.00,+1.00,+24.00,+2.00,-10.00,-14.00,-3.00,-1.00,-1.00,+4.00,-8.00,+7.00,-33.00,+10.00
+29.00,+1.00,-1.00,+1.00,-11.00,+3.00,+3.00,+5.00,+7.00,-1.00,-3.00,+10.00,-5.00,-3.00,-4.00,+2.00
+3.00,-2.00,-2.00,-2.00,-3.00,-19.00,+1.00,+0.00,-3.00,-1.00,-1.00,+11.00,-34.00,+5.00,+9.00,-9.00
-9.00,-6.00,+0.00,+2.00,+23.00,-3.00,+29.00,+2.00,-8.00,-6.00,-2.00,+25.00,+64.00,+9.00,-16.00,-5.00
+2.00,+1.00,+1.00,+0.00,-21.00,+3.00,+3.00,-2.00,+9.00,+5.00,+2.00,-5.00,-31.00,-6.00,+2.00,+4.00
+19.00,-3.00,-3.00,-7.00,-66.00,+0.00,-1.00,+0.00,-5.00,+1.00,+0.00,-12.00,+17.00,-11.00,+2.00,+1.00
+4.00,-6.00,-4.00,+0.00,-5.00,+5.00,-6.00,+4.00,+11.00,+2.00,+3.00,+22.00,+41.00,+3.00,+1.00,-2.00
-55.00,-1.00,-2.00,+5.00,+1.00,-24.00,-3.00,+19.00,-9.00,-4.00,-5.00,-6.00,-4.00,-12.00,-1.00,-2.00
+29.00,-1.00,-2.00,+1.00,+26.00,+12.00,+2.00,-4.00,+4.00,-5.00,-5.00,-2.00,-4.00,-1.00,-5.00,+1.00
-6.00,-1.00,+0.00,-3.00,-12.00,-10.00,+4.00,+3.00,-10.00,-1.00,+2.00,+15.00,+84.00,-1.00,+0.00,-4.00
-9.00,-3.00,-4.00,-7.00,-43.00,-9.00,-9.00,-7.00,-5.00,+0.00,+0.00,-27.00,-28.00,+6.00,-10.00,+0.00
+1.00,+4.00,+1.00,-1.00,-5.00,+2.00,+4.00,+0.00,+3.00,-2.00,+0.00,-1.00,-5.00,-2.00,+63.00,-1.00
-4.00,-2.00,-4.00,-9.00,-83.00,-7.00,-10.00,-3.00,-12.00,-1.00,-3.00,-19.00,-12.00,-2.00,+0.00,-2.00
+7.00,+0.00,-1.00,+2.00,+56.00,+9.00,-36.00,+4.00,-9.00,-1.00,+0.00,+22.00,-10.00,-1.00,-11.00,-1.00
-25.00,-4.00,-2.00,-2.00,+17.00,+4.00,+0.00,-6.00,+48.00,+5.00,-1.00,-3.00,-4.00,+5.00,-1.00,+1.00
+5.00,+0.00,+1.00,-2.00,-21.00,+4.00,-1.00,-5.00,-14.00,-2.00,+1.00,+0.00,+2.00,-6.00,-19.00,+2.00
+3.00,-2.00,-1.00,+1.00,+7.00,-4.00,-1.00,-2.00,-2.00,-2.00,-1.00,+36.00,+6.00,+8.00,-8.00,-5.00
-3.00,+1.00,+0.00,+0.00,+16.00,+3.00,+4.00,-2.00,+4.00,-5.00,-3.00,-25.00,-9.00,-10.00,+9.00,+24.00
+6.00,+1.00,-1.00,-2.00,+4.00,+20.00,-4.00,-4.00,-13.00,-4.00,-3.00,-16.00,-11.00,+0.00,+0.00,+21.00
+1.00,+1.00,+1.00,+0.00,+4.00,-17.00,-1.00,-2.00,-5.00,+0.00,-2.00,-4.00,-2.00,-3.00,-13.00,+8.00
+15.00,+3.00,+0.00,+0.00,+2.00,+0.00,-28.00,-1.00,-21.00,+1.00,-2.00,+7.00,-20.00,-1.00,-1.00,-14.00
-17.00,-5.00,+0.00,+4.00,+21.00,-5.00,+10.00,+0.00,+24.00,+2.00,+0.00,+6.00,+42.00,+36.00,-17.00,-4.00
+7.00,-1.00,-2.00,-4.00,-13.00,+5.00,-2.00,+0.00,-6.00,+0.00,-1.00,-12.00,-44.00,-7.00,+21.00,-18.00
-8.00,-5.00,-2.00,-1.00,-8.00,+1.00,+2.00,-3.00,-3.00,-1.00,-1.00,-5.00,+10.00,+0.00,-32.00,-1.00
-13.00,-5.00,+2.00,+0.00,-5.00,-3.00,+4.00,+0.00,+3.00,-1.00,-1.00,-27.00,-35.00,+7.00,+4.00,+3.00
+4.00,-1.00,-2.00,-4.00,+10.00,+6.00,-4.00,+4.00,+11.00,+1.00,-1.00,+3.00,+2.00,-13.00,-1.00,-6.00
+0.00,+0.00,+2.00,+6.00,-9.00,-15.00,+3.00,+0.00,-9.00,-1.00,+0.00,-1.00,+27.00,+8.00,-2.00,-5.00
+9.00,-2.00,-1.00,+1.00,+22.00,+8.00,-1.00,-4.00,-7.00,-3.00,+0.00,+18.00,+8.00,+1.00,+4.00,-12.00
-1.00,+5.00,-1.00,+2.00,+15.00,-3.00,+2.00,+0.00,+7.00,-2.00,-1.00,-10.00,+13.00,-11.00,-2.00,-5.00
+2.00,-1.00,-1.00,-5.00,-30.00,-5.00,+4.00,-3.00,-8.00,-4.00,-2.00,-6.00,-7.00,-9.00,+3.00,-14.00
+13.00,+4.00,+0.00,-2.00,+1.00,-3.00,-10.00,-2.00,+4.00,+1.00,-2.00,+17.00,+19.00,+5.00,+9.00,-1.00
-14.00,+1.00,+0.00,+1.00,+40.00,+3.00,+6.00,-1.00,-6.00,+1.00,+0.00,+2.00,-15.00,-8.00,-9.00,-7.00
+59.00,+1.00,-2.00,-2.00,+6.00,-1.00,+3.00,+2.00,-1.00,-2.00,-1.00,-9.00,+12.00,-1.00,-4.00,+1.00
-61.00,-4.00,+0.00,+5.00,+19.00,-8.00,+9.00,+2.00,-14.00,+2.00,-1.00,+2.00,-10.00,-8.00,-1.00,-9.00
+17.00,+2.00,+0.00,-3.00,-17.00,+0.00,+16.00,+1.00,-15.00,-2.00,+2.00,-1.00,-6.00,+4.00,-6.00,-4.00
+1.00,-1.00,-1.00,-1.00,-15.00,+5.00,-8.00,-3.00,-2.00,+0.00,-3.00,+1.00,+5.00,-1.00,-5.00,-1.00
-22.00,-2.00,-1.00,-6.00,-25.00,-5.00,+0.00,-3.00,+8.00,-2.00,+0.00,-13.00,-11.00,-1.00,-3.00,+10.00
-1.00,+1.00,+0.00,-1.00,+1.00,-1.00,-3.00,-3.00,+18.00,+9.00,+5.00,+4.00,+3.00,-6.00,+2.00,+3.00
-5.00,-1.00,+0.00,-1.00,-3.00,-2.00,-1.00,+0.00,-21.00,-6.00,-10.00,-3.00,+6.00,-5.00,-3.00,+2.00
-6.00,+2.00,-1.00,-3.00,-18.00,+2.00,-3.00,-3.00,-9.00,-3.00,-2.00,-1.00,-3.00,+0.00,-1.00,+0.00
+1.00,-6.00,-1.00,-1.00,+7.00,+1.00,-1.00,-3.00,-19.00,-2.00,-2.00,+4.00,+8.00,-3.00,+3.00,+4.00
+23.00,+3.00,+0.00,+0.00,+2.00,-1.00,+2.00,+0.00,+28.00,-4.00,-1.00,+0.00,-6.00,-9.00,-5.00,-3.00
-7.00,+1.00,+0.00,-1.00,+7.00,+4.00,-2.00,+1.00,-7.00,+3.00,+2.00,-1.00,+9.00,+1.00,-2.00,-4.00
+10.00,-1.00,-3.00,-3.00,-9.00,+0.00,+0.00,-1.00,-20.00,+0.00,+3.00,+3.00,-5.00,-1.00,+2.00,+2.00
+13.00,+1.00,+0.00,-2.00,-4.00,-4.00,-3.00,+1.00,+24.00,+6.00,-6.00,-4.00,-6.00,+1.00,-5.00,-6.00
+11.00,+0.00,-2.00,+1.00,+7.00,-1.00,+2.00,-1.00,-39.00,-21.00,-1.00,+0.00,+0.00,-2.00,-2.00,+1.00
+4.00,-2.00,-2.00,-2.00,-11.00,-4.00,-3.00,+1.00,+18.00,+20.00,+7.00,+2.00,-5.00,+2.00,-3.00,+2.00
-13.00,+1.00,+4.00,-1.00,-5.00,-1.00,-3.00,+0.00,-4.00,-14.00,+1.00,-1.00,-1.00,-2.00,-1.00,-2.00
-20.00,-1.00,-2.00,+0.00,+3.00,-2.00,+3.00,+0.00,+67.00,+16.00,-7.00,-3.00,+8.00,-3.00,+0.00,+1.00
-2.00,+0.00,+1.00,-2.00,-2.00,-1.00,+1.00,+0.00,+2.00,+18.00,-7.00,-3.00,-9.00,-4.00,+3.00,+4.00
-11.00,-4.00,-3.00,-1.00,+2.00,+1.00,-2.00,-3.00,-18.00,-25.00,+5.00,+0.00,+3.00,+1.00,+1.00,-10.00
-17.00,-6.00,-4.00,-1.00,-6.00,-1.00,-2.00,-4.00,+50.00,+7.00,-15.00,+0.00,-7.00,-3.00,-2.00,+6.00
-9.00,+1.00,+2.00,+1.00,+6.00,+1.00,+1.00,-2.00,-30.00,-12.00,-16.00,-9.00,+4.00,+0.00,+0.00,+3.00
+3.00,-10.00,-3.00,-1.00,-6.00,-2.00,+4.00,-3.00,-1.00,-42.00,-2.00,-1.00,-3.00,-5.00,-2.00,-3.00
+6.00,-5.00,+2.00,-1.00,-2.00,-3.00,-7.00,+0.00,-32.00,+17.00,-7.00,-1.00,-1.00,+1.00,-4.00,-7.00
+7.00,+2.00,+2.00,+0.00,-4.00,+0.00,-3.00,-1.00,-78.00,-6.00,+5.00,+0.00,+3.00,+0.00,-3.00,-12.00
+8.00,+10.00,-2.00,+1.00,-2.00,-1.00,-1.00,-4.00,+83.00,-25.00,+13.00,+3.00,-1.00,+2.00,+2.00,+15.00
+3.00,+22.00,+4.00,-1.00,-2.00,-1.00,-2.00,-3.00,+4.00,+32.00,-1.00,-2.00,-1.00,-1.00,-1.00,-2.00
-17.00,-74.00,-7.00,-1.00,+0.00,-3.00,-4.00,-2.00,+49.00,+8.00,+4.00,-2.00,+0.00,-2.00,+0.00,+8.00
+7.00,+86.00,-6.00,-2.00,-2.00,-1.00,-2.00,-1.00,+13.00,+1.00,-5.00,-3.00,-4.00,-2.00,-4.00,-9.00
-15.00,-29.00,+0.00,-2.00,+1.00,+1.00,+1.00,-1.00,-69.00,-6.00,+1.00,-2.00,-2.00,-1.00,-1.00,-5.00
-4.00,-42.00,+1.00,+3.00,+3.00,+0.00,-1.00,+2.00,-31.00,-1.00,-1.00,-2.00,-13.00,-4.00,-4.00,-2.00
+26.00,+77.00,+9.00,-5.00,-3.00,+1.00,+2.00,+2.00,+24.00,+8.00,+0.00,-1.00,+15.00,-1.00,-1.00,+7.00
-7.00,-116.00,-9.00,-2.00,-3.00,-1.00,-1.00,-4.00,+24.00,-1.00,+4.00,+2.00,+3.00,+0.00,+3.00,+12.00
+53.00,+113.00,+5.00,+0.00,-2.00,-2.00,-1.00,+3.00,-46.00,-28.00,+2.00,+2.00,-11.00,-1.00,+0.00,-3.00
+10.00,+21.00,+9.00,+3.00,+6.00,+1.00,+3.00,+2.00,+67.00,+36.00,+0.00,-3.00,+9.00,-1.00,-1.00,-2.00
-10.00,-15.00,-4.00,-1.00,-5.00,+2.00,-2.00,-1.00,-46.00,-17.00,-10.00,-3.00,-12.00,+0.00,-4.00,-10.00
+13.00,-41.00,-1.00,+0.00,-1.00,+2.00,+2.00,+3.00,+9.00,+2.00,+1.00,+2.00,-4.00,+1.00,+1.00,+5.00
-31.00,+18.00,-6.00,-3.00,+1.00,+0.00,-3.00,-5.00,+2.00,+16.00,+2.00,+0.00,-1.00,-3.00,-2.00,-2.00
-17.00,-20.00,-10.00,-3.00,-3.00,-2.00,-4.00,-3.00,+12.00,+2.00,+2.00,-1.00,+1.00,+1.00,-2.00,-2.00
-37.00,-59.00,-10.00,-3.00,-2.00,-1.00,-3.00,-6.00,-7.00,-8.00,-3.00,-1.00,-1.00,-1.00,+0.00,-3.00
+8.00,+4.00,-10.00,-3.00,-5.00,+0.00,-3.00,-4.00,+23.00,+7.00,+3.00,+0.00,+1.00,-1.00,-2.00,-2.00
+6.00,+21.00,+9.00,+4.00,+4.00,-2.00,+5.00,+7.00,-48.00,-3.00,+1.00,-4.00,-5.00,-4.00,-3.00,-14.00
+11.00,-24.00,+10.00,+1.00,+2.00,+3.00,+1.00,+2.00,+19.00,-8.00,+2.00,+4.00,+5.00,+0.00,+1.00,+1.00
+11.00,-26.00,-4.00,-2.00,-2.00,-5.00,+0.00,-3.00,+6.00,+11.00,-6.00,-3.00,-3.00,+0.00,-3.00,-6.00
+8.00,+63.00,+0.00,-2.00,-3.00,-5.00,-4.00,-4.00,-61.00,-6.00,+10.00,+2.00,+0.00,+0.00,+2.00,-5.00
+10.00,-64.00,-1.00,-2.00,+0.00,+0.00,-2.00,-2.00,+23.00,-8.00,-10.00,-5.00,+0.00,+0.00,-1.00,-5.00
+6.00,+35.00,-7.00,-1.00,-1.00,-1.00,-2.00,+0.00,+31.00,+25.00,-2.00,+0.00,-1.00,+0.00,+1.00,+2.00
+2.00,-12.00,-6.00,-1.00,+1.00,-1.00,+0.00,-2.00,-4.00,-29.00,+7.00,+6.00,+0.00,+1.00,+1.00,-3.00
-21.00,-15.00,-4.00,-4.00,-8.00,-4.00,-2.00,-4.00,-47.00,+8.00,-9.00,-2.00,-2.00,+0.00,-2.00,-6.00
-16.00,+58.00,+6.00,-1.00,-24.00,-4.00,-1.00,-1.00,-11.00,+22.00,+5.00,+1.00,+4.00,+0.00,+1.00,+2.00
-21.00,-101.00,-13.00,-2.00,+22.00,+2.00,-2.00,-3.00,-43.00,-35.00,-5.00,+0.00,-12.00,-3.00,-1.00,+0.00
+31.00,+80.00,+14.00,+4.00,+2.00,+0.00,+1.00,+6.00,+9.00,+8.00,+0.00,-3.00,+11.00,-2.00,-2.00,-2.00
-40.00,-3.00,-5.00,+0.00,-2.00,+0.00,-1.00,-7.00,+24.00,+6.00,-1.00,-4.00,-1.00,-1.00,-3.00,-5.00
+47.00,+44.00,+18.00,+3.00,+3.00,+4.00,+3.00,+12.00,+6.00,+5.00,-1.00,+0.00,-2.00,+1.00,-2.00,-1.00
-2.00,-24.00,-7.00,-6.00,-7.00,-3.00,-3.00,-7.00,+9.00,-18.00,-5.00,-9.00,-3.00,-1.00,-4.00,-8.00
-3.00,-91.00,-11.00,-6.00,-3.00,-2.00,-4.00,-3.00,-70.00,+3.00,+8.00,+4.00,+10.00,-1.00,-1.00,-3.00
-1.00,+32.00,+22.00,+8.00,+4.00,+4.00,+3.00,+9.00,-7.00,-14.00,-4.00,+2.00,-5.00,-4.00,-1.00,-1.00
-44.00,-30.00,+2.00,+1.00,+5.00,+1.00,+0.00,-5.00,+40.00,+13.00,-8.00,-3.00,-20.00,-1.00,-2.00,+2.00
-2.00,+16.00,-5.00,-3.00,-9.00,-6.00,+0.00,-1.00,-10.00,+10.00,-1.00,-8.00,+18.00,+0.00,+4.00,+9.00
-2.00,+38.00,+7.00,+1.00,+5.00,+3.00,+1.00,+0.00,-26.00,-25.00,-9.00,-5.00,-14.00,-5.00,-5.00,-4.00
+3.00,-44.00,-12.00,-6.00,-6.00,+0.00,+0.00,-3.00,+29.00,-11.00,-1.00,-4.00,+6.00,-1.00,+1.00,+5.00
-21.00,-52.00,-16.00,-6.00,+0.00,-1.00,-5.00,-5.00,+61.00,+11.00,+6.00,+6.00,+1.00,+0.00,-1.00,+5.00
+19.00,-4.00,-4.00,-1.00,-7.00,-7.00,-1.00,+1.00,-49.00,+1.00,+0.00,+3.00,-5.00,-1.00,-2.00,-5.00
-49.00,+34.00,-9.00,-4.00,-10.00,+0.00,-4.00,-11.00,+11.00,+6.00,-3.00,-2.00,+2.00,-1.00,-2.00,+1.00
+54.00,+55.00,+15.00,+5.00,+12.00,+2.00,+3.00,+9.00,+43.00,+4.00,-3.00,+0.00,-7.00,-1.00,-4.00,+1.00
-21.00,+9.00,-9.00,-6.00,-1.00,-3.00,-5.00,-8.00,-52.00,+5.00,+5.00,-2.00,+0.00,-1.00,-2.00,+6.00
+14.00,-55.00,+9.00,-2.00,+10.00,+2.00,+1.00,+4.00,-34.00,-37.00,-8.00,+0.00,+1.00,+1.00,+1.00,-1.00
-17.00,+44.00,+11.00,+7.00,+28.00,+5.00,+2.00,+20.00,-5.00,+26.00,+7.00,+1.00,-3.00,+0.00,-4.00,-5.00
-8.00,+20.00,-7.00,-3.00,-1.00,+0.00,-2.00,-7.00,+33.00,+29.00,-1.00,+1.00,-2.00,+0.00,+1.00,+20.00
-13.00,+22.00,+6.00,+1.00,+8.00,+1.00,+2.00,+10.00,-20.00,-5.00,-5.00,-3.00,+6.00,-2.00,+0.00,-9.00
+1.00,+4.00,+3.00,+0.00,-19.00,-2.00,+2.00,+6.00,-1.00,-9.00,+2.00,+1.00,-1.00,-3.00,-1.00,+4.00
+7.00,-19.00,-2.00,-2.00,-8.00,-1.00,-1.00,-7.00,+31.00,-14.00,-1.00,-1.00,-6.00,+0.00,+1.00,+1.00
-19.00,-44.00,-9.00,-1.00,+3.00,-3.00,-2.00,-7.00,+3.00,+18.00,+5.00,-1.00,+1.00,+0.00,+0.00,-2.00
