-26.00,-5.00,-4.00,+0.00,-2.00,-3.00,-5.00,-9.00,+1.00,-2.00,+0.00,+1.00,-5.00,-5.00,-4.00,+0.00
+12.00,+7.00,+4.00,+0.00,-1.00,-1.00,+3.00,+5.00,-3.00,+2.00,+2.00,-2.00,-1.00,-1.00,-1.00,-1.00
-8.00,-3.00,+0.00,+0.00,+1.00,-4.00,+2.00,+3.00,-2.00,-2.00,-2.00,-1.00,-2.00,-2.00,+0.00,-4.00
-2.00,-3.00,-1.00,-3.00,-3.00,-4.00,-1.00,-1.00,+0.00,+2.00,-2.00,-1.00,-4.00,-3.00,+1.00,+1.00
+12.00,-4.00,-3.00,-2.00,+5.00,+6.00,+0.00,+5.00,+0.00,-1.00,-1.00,-2.00,+0.00,+0.00,+0.00,-1.00
+0.00,-5.00,-1.00,-3.00,+0.00,+1.00,-3.00,-3.00,-1.00,-2.00,-2.00,+0.00,-1.00,-4.00,+9.00,+4.00
+0.00,+1.00,-3.00,-1.00,-1.00,+0.00,+1.00,+2.00,+0.00,-17.00,+2.00,-2.00,+1.00,+9.00,-11.00,-2.00
-5.00,-1.00,-2.00,+2.00,+0.00,-6.00,-2.00,-1.00,-2.00,+14.00,+3.00,-1.00,-2.00,-6.00,-5.00,-5.00
+11.00,+3.00,+1.00,+1.00,-4.00,-5.00,-3.00,+2.00,-2.00,-6.00,-3.00,-2.00,+1.00,-3.00,+4.00,+4.00
+4.00,-2.00,+0.00,+2.00,-2.00,-1.00,+0.00,-1.00,-1.00,-3.00,+0.00,-1.00,-2.00,+4.00,-5.00,-3.00
+0.00,-3.00,-3.00,+1.00,-1.00,+1.00,-2.00,+12.00,-3.00,-3.00,-9.00,-2.00,-4.00,-7.00,-1.00,+0.00
-8.00,-7.00,-1.00,+3.00,-1.00,-16.00,-5.00,-6.00,+0.00,+0.00,-2.00,-2.00,-3.00,+1.00,+0.00,-1.00
+12.00,+3.00,+3.00,-2.00,-3.00,-4.00,+4.00,+9.00,+0.00,+4.00,+1.00,-2.00,-1.00,-2.00,-2.00,-2.00
-11.00,+3.00,+3.00,+0.00,+0.00,-19.00,-4.00,-1.00,-2.00,-3.00,+0.00,+0.00,+0.00,+1.00,+2.00,-6.00
+6.00,+4.00,+5.00,-1.00,+0.00,+46.00,+5.00,+9.00,-1.00,+4.00,+2.00,+0.00,+3.00,+10.00,+21.00,-2.00
+1.00,+0.00,-1.00,-1.00,+0.00,+0.00,+0.00,-7.00,-3.00,-3.00,-1.00,+0.00,-3.00,-8.00,-22.00,+6.00
-19.00,-1.00,-3.00,+0.00,-1.00,+3.00,-2.00,-1.00,+3.00,+3.00,+2.00,+0.00,-1.00,-4.00,-1.00,-3.00
+5.00,-3.00,-3.00,+0.00,+0.00,+3.00,-5.00,-12.00,-3.00,-3.00,-2.00,-2.00,+0.00,+2.00,-5.00,-1.00
-4.00,-3.00,-2.00,+1.00,-2.00,-30.00,-9.00,-13.00,+2.00,+3.00,+1.00,-1.00,-3.00,-8.00,+8.00,+2.00
+0.00,-1.00,+1.00,-1.00,+0.00,+28.00,+7.00,+17.00,+1.00,-3.00,+0.00,-1.00,+1.00,+0.00,+5.00,-1.00
+16.00,+2.00,+1.00,+2.00,+4.00,-3.00,+3.00,-7.00,-4.00,-3.00,-5.00,+1.00,+2.00,+5.00,+0.00,+3.00
-11.00,-3.00,-3.00,-3.00,-3.00,-1.00,-2.00,+1.00,+0.00,-3.00,-5.00,-4.00,-7.00,-4.00,+0.00,-2.00
-8.00,-2.00,-3.00,-2.00,-2.00,-8.00,-6.00,-6.00,-2.00,+1.00,-2.00,-1.00,-4.00,-2.00,-2.00,-3.00
+6.00,+0.00,+1.00,+0.00,-2.00,-18.00,-6.00,-1.00,+0.00,-4.00,+0.00,-2.00,+2.00,+0.00,+3.00,+0.00
-10.00,-3.00,+0.00,-3.00,-3.00,-6.00,+3.00,+0.00,+5.00,+4.00,+3.00,+1.00,+1.00,-1.00,-3.00,-2.00
-4.00,+3.00,+1.00,-1.00,+2.00,+10.00,-2.00,-1.00,-11.00,-8.00,-5.00,-1.00,+2.00,+0.00,-1.00,-6.00
+7.00,-8.00,-2.00,-2.00,-1.00,-7.00,+8.00,+0.00,+1.00,+5.00,-1.00,+1.00,-3.00,-3.00,-5.00,+5.00
-11.00,-1.00,+0.00,-4.00,-1.00,+6.00,-2.00,-16.00,-5.00,-8.00,-2.00,+0.00,+3.00,+15.00,+4.00,-2.00
-9.00,-26.00,-2.00,+0.00,+0.00,-5.00,+4.00,+15.00,+0.00,-1.00,+0.00,-1.00,-6.00,-13.00,+0.00,-2.00
+19.00,+49.00,+3.00,-2.00,-1.00,-4.00,+0.00,+0.00,+1.00,+4.00,-1.00,-1.00,-3.00,-6.00,-4.00,-1.00
+16.00,-18.00,-4.00,-2.00,+0.00,-3.00,-3.00,-5.00,+3.00,+0.00,+1.00,-1.00,-3.00,-2.00,-4.00,+0.00
+4.00,+37.00,+3.00,+1.00,+1.00,-12.00,-6.00,+3.00,-3.00,+1.00,+1.00,+0.00,-1.00,-1.00,-2.00,-5.00
-12.00,-21.00,-3.00,-1.00,-1.00,+12.00,-3.00,-7.00,-2.00,-1.00,-5.00,-2.00,+1.00,+11.00,-1.00,-1.00
+7.00,+11.00,-1.00,-1.00,-2.00,+6.00,-1.00,+3.00,+1.00,-4.00,-1.00,-3.00,-3.00,-9.00,-3.00,-7.00
-8.00,+5.00,+0.00,+0.00,+1.00,-2.00,-1.00,-1.00,+2.00,+4.00,+1.00,+0.00,-1.00,-4.00,+2.00,+3.00
-8.00,-12.00,-3.00,-2.00,-1.00,+5.00,-1.00,-10.00,+3.00,-1.00,-2.00,-1.00,-1.00,+1.00,+1.00,+2.00
+15.00,-1.00,-6.00,-3.00,-2.00,-7.00,-6.00,+1.00,-7.00,+1.00,+3.00,-1.00,+0.00,-1.00,-6.00,-2.00
-14.00,-18.00,-3.00,-1.00,-1.00,-2.00,+2.00,+10.00,+5.00,-4.00,-5.00,-1.00,+1.00,+2.00,+7.00,+2.00
-9.00,-2.00,+0.00,+0.00,+1.00,-3.00,-4.00,-12.00,-4.00,-1.00,-1.00,+0.00,+0.00,+1.00,-17.00,-5.00
-6.00,-14.00,-1.00,-1.00,+1.00,-8.00,+1.00,+15.00,-4.00,-1.00,-2.00,-2.00,-2.00,-4.00,+5.00,-4.00
+6.00,+16.00,+2.00,+1.00,+1.00,+1.00,+5.00,-7.00,-4.00,-2.00,-1.00,+0.00,+0.00,-3.00,+0.00,-2.00
-8.00,-14.00,-3.00,-5.00,-4.00,+0.00,-4.00,-6.00,+16.00,+8.00,+3.00,-1.00,+0.00,+2.00,+0.00,+2.00
+0.00,+9.00,+0.00,-1.00,+0.00,-2.00,+3.00,+1.00,-18.00,-4.00,-3.00,-1.00,-1.00,-1.00,+0.00,-2.00
+3.00,-5.00,+0.00,-3.00,-2.00,+3.00,-3.00,+4.00,+6.00,-11.00,-1.00,-2.00,-1.00,-2.00,+2.00,+0.00
-2.00,-9.00,+0.00,+0.00,-3.00,-4.00,-6.00,-9.00,-2.00,+5.00,-2.00,-1.00,-4.00,-2.00,-3.00,+0.00
-1.00,+0.00,-3.00,+1.00,+2.00,+9.00,-1.00,+1.00,-6.00,-1.00,+0.00,+1.00,+2.00,+2.00,+0.00,-6.00
+9.00,+20.00,+0.00,+1.00,+0.00,+0.00,+6.00,+3.00,+9.00,+6.00,-2.00,-2.00,-1.00,-1.00,-3.00,-2.00
+3.00,-21.00,-2.00,+0.00,-1.00,+4.00,+1.00,-4.00,-8.00,-4.00,+0.00,-1.00,-2.00,+6.00,-1.00,+1.00
-4.00,+42.00,+0.00,-2.00,-2.00,+1.00,+1.00,+9.00,-5.00,-5.00,+1.00,+0.00,+1.00,-3.00,+3.00,-1.00
+2.00,-16.00,-1.00,-1.00,-1.00,-9.00,-1.00,-2.00,-1.00,-2.00,-4.00,-1.00,-6.00,-13.00,+1.00,+2.00
-11.00,-25.00,-1.00,-1.00,-2.00,-1.00,-1.00,-6.00,+0.00,-5.00,+0.00,-2.00,+1.00,+2.00,-5.00,-3.00
+13.00,+22.00,-3.00,-3.00,-2.00,+3.00,-1.00,-13.00,+7.00,+1.00,-6.00,-1.00,-1.00,-1.00,-1.00,+6.00
+3.00,+3.00,+2.00,+1.00,+0.00,+0.00,-1.00,+31.00,+1.00,+1.00,+0.00,-1.00,-2.00,+0.00,-1.00,+1.00
-7.00,-11.00,-3.00,-1.00,+0.00,+0.00,+0.00,-7.00,-3.00,+0.00,+1.00,+0.00,+1.00,+4.00,-2.00,-3.00
-12.00,+7.00,-2.00,-1.00,+0.00,-7.00,-3.00,-13.00,-1.00,-4.00,-1.00,+1.00,+0.00,-7.00,-3.00,-6.00
+2.00,-12.00,+1.00,+0.00,+1.00,+1.00,+1.00,+4.00,-2.00,-1.00,-3.00,-3.00,+4.00,+6.00,+0.00,+7.00
-6.00,-9.00,-2.00,-1.00,+0.00,+8.00,-5.00,-22.00,-3.00,-5.00,-3.00,-1.00,-2.00,+2.00,+1.00,-2.00
+5.00,+4.00,+1.00,+0.00,-2.00,-3.00,-1.00,+9.00,-8.00,-2.00,-1.00,-1.00,-5.00,-10.00,+5.00,+1.00
-8.00,-17.00,-2.00,-1.00,-1.00,+2.00,-1.00,+2.00,+2.00,+1.00,-5.00,-2.00,+2.00,+1.00,-8.00,-7.00
-7.00,+5.00,-1.00,-1.00,-3.00,-20.00,-1.00,-1.00,+0.00,-1.00,-2.00,+0.00,+0.00,+0.00,-2.00,-5.00
+2.00,+1.00,+0.00,+0.00,+1.00,-7.00,-4.00,-6.00,+2.00,+3.00,+1.00,-1.00,+1.00,-1.00,+0.00,-1.00
+3.00,+4.00,-1.00,+0.00,-1.00,+4.00,-2.00,-6.00,+0.00,+1.00,+2.00,+1.00,+1.00,+1.00,-2.00,+10.00
-8.00,-11.00,-6.00,-3.00,-2.00,-2.00,-3.00,-1.00,-3.00,+2.00,+3.00,-1.00,-3.00,-1.00,+0.00,+2.00
-10.00,+0.00,+0.00,+0.00,+1.00,+0.00,+0.00,+3.00,-1.00,+2.00,-2.00,+0.00,-3.00,+3.00,+3.00,-1.00
-1.00,+1.00,+0.00,-2.00,+0.00,+8.00,-3.00,-3.00,+3.00,+1.00,+2.00,-1.00,+1.00,-6.00,-2.00,-5.00
+12.00,-11.00,+0.00,+0.00,+2.00,-7.00,+8.00,+1.00,-1.00,-5.00,-4.00,+0.00,-2.00,+0.00,-12.00,-2.00
-8.00,+3.00,-4.00,-1.00,-1.00,+5.00,-1.00,-9.00,-1.00,-3.00,+0.00,+0.00,+0.00,+2.00,+2.00,+0.00
-1.00,+4.00,+0.00,-3.00,-1.00,-7.00,-9.00,+3.00,+0.00,+5.00,+2.00,+1.00,+4.00,-1.00,-3.00,-1.00
+0.00,-20.00,-3.00,+0.00,+0.00,-5.00,+0.00,-10.00,-4.00,-6.00,+0.00,-1.00,-8.00,-5.00,+0.00,-3.00
-11.00,-15.00,+0.00,-1.00,-1.00,+2.00,+2.00,+11.00,-1.00,-1.00,-5.00,-1.00,+1.00,-2.00,-4.00,-5.00
-9.00,+17.00,+0.00,-1.00,-1.00,-3.00,-1.00,-2.00,+3.00,+0.00,-3.00,+0.00,-1.00,-3.00,+3.00,+11.00
+7.00,+0.00,-2.00,+0.00,-3.00,-7.00,+7.00,+9.00,-7.00,-10.00,+1.00,+0.00,-3.00,-1.00,+0.00,-10.00
-8.00,-2.00,+0.00,+0.00,+1.00,+14.00,-5.00,-10.00,+5.00,+7.00,-4.00,-2.00,-3.00,-6.00,-2.00,-2.00
-1.00,-23.00,-1.00,-3.00,-1.00,+2.00,-2.00,-6.00,-4.00,-4.00,+1.00,-2.00,+4.00,+7.00,-2.00,-2.00
+6.00,+21.00,+0.00,-2.00,-1.00,-6.00,+1.00,+3.00,-8.00,-1.00,-2.00,-3.00,-11.00,-4.00,+2.00,-2.00
-9.00,-7.00,-3.00,-1.00,-1.00,-2.00,-5.00,-9.00,+7.00,+3.00,+5.00,+1.00,+3.00,-5.00,-3.00,-2.00
+7.00,-21.00,+0.00,-1.00,+0.00,+20.00,+5.00,-6.00,-7.00,-5.00,-2.00,-1.00,+3.00,+4.00,-1.00,-3.00
-19.00,+48.00,+1.00,+1.00,-3.00,-17.00,-4.00,-3.00,-2.00,+0.00,-2.00,-1.00,+0.00,+0.00,+4.00,-8.00
+8.00,-12.00,+0.00,-1.00,-2.00,+23.00,+0.00,+6.00,+0.00,-3.00,+0.00,-1.00,+6.00,+4.00,+3.00,-1.00
+8.00,-2.00,-1.00,+1.00,-2.00,-18.00,+1.00,+7.00,-1.00,+5.00,+0.00,-2.00,-9.00,-6.00,-9.00,+3.00
+0.00,+0.00,-1.00,-4.00,-3.00,-2.00,-3.00,-2.00,+1.00,+2.00,+2.00,-1.00,+3.00,+9.00,-3.00,-1.00
-4.00,-14.00,-3.00,-2.00,-2.00,-2.00,-2.00,-21.00,+4.00,-2.00,-3.00,-1.00,+3.00,-4.00,+7.00,+2.00
-7.00,-4.00,+3.00,-1.00,-2.00,-11.00,-3.00,+14.00,-3.00,-14.00,-3.00,-2.00,-7.00,-4.00,-3.00,-13.00
-13.00,+3.00,-2.00,+0.00,+4.00,+20.00,+2.00,-25.00,+1.00,+18.00,+2.00,-3.00,+1.00,-10.00,+2.00,+9.00
+14.00,+3.00,-2.00,+0.00,-1.00,-7.00,+0.00,+20.00,-1.00,-6.00,+12.00,+1.00,+6.00,+3.00,+0.00,-8.00
-12.00,-1.00,+2.00,-2.00,-4.00,-23.00,-16.00,-21.00,-9.00,-6.00,-16.00,-1.00,-4.00,+9.00,-3.00,-4.00
+21.00,-1.00,-4.00,+1.00,+2.00,-8.00,+17.00,+29.00,+3.00,-7.00,-3.00,+0.00,+3.00,-1.00,+3.00,+5.00
-5.00,-11.00,-8.00,-3.00,-3.00,-13.00,+9.00,+2.00,+1.00,-1.00,+0.00,+1.00,-6.00,-6.00,+1.00,+5.00
-8.00,+5.00,+1.00,+0.00,+1.00,+11.00,+1.00,-2.00,-4.00,-1.00,-6.00,-3.00,-2.00,+0.00,-3.00,+0.00
-11.00,+3.00,+4.00,+0.00,+2.00,-6.00,-2.00,+3.00,+0.00,+2.00,+6.00,+0.00,+2.00,+1.00,-5.00,+4.00
+1.00,+0.00,+0.00,+0.00,-2.00,+26.00,-12.00,-15.00,-1.00,+2.00,+1.00,-1.00,+2.00,-2.00,+2.00,+0.00
+20.00,-21.00,+1.00,-1.00,+2.00,+42.00,+9.00,+8.00,-1.00,-1.00,-3.00,-2.00,-3.00,+0.00,-7.00,-4.00
-6.00,+29.00,-9.00,-3.00,-3.00,-17.00,-2.00,-10.00,-3.00,+4.00,-1.00,+2.00,-1.00,+4.00,+7.00,+7.00
+5.00,-1.00,-5.00,+0.00,+0.00,+11.00,+5.00,+19.00,-3.00,-11.00,+8.00,-2.00,+3.00,-10.00,-15.00,-8.00
-6.00,-4.00,+1.00,-2.00,-4.00,-25.00,-4.00,-2.00,+1.00,+18.00,+2.00,-1.00,+1.00,+3.00,-1.00,+2.00
+2.00,-3.00,-1.00,+0.00,+1.00,+18.00,-4.00,-11.00,+3.00,-2.00,-1.00,+1.00,+9.00,+4.00,+8.00,+6.00
-23.00,-7.00,+1.00,+0.00,-2.00,-20.00,-1.00,+7.00,-5.00,-7.00,-9.00,-2.00,-5.00,+43.00,+5.00,+1.00
+3.00,-5.00,-4.00,-1.00,+0.00,+13.00,+2.00,-4.00,+2.00,-9.00,-7.00,-3.00,-11.00,-38.00,-10.00,+2.00
+14.00,+2.00,-2.00,+0.00,+1.00,-3.00,+3.00,+4.00,-5.00,-3.00,-1.00,-1.00,-8.00,-4.00,-34.00,-23.00
-9.00,-9.00,-2.00,-5.00,-4.00,-5.00,-8.00,-15.00,-6.00,-2.00,+3.00,+0.00,-6.00,-13.00,+27.00,-1.00
+12.00,+43.00,+5.00,+1.00,+3.00,+5.00,+0.00,-6.00,+1.00,-5.00,+5.00,-1.00,+2.00,-7.00,-13.00,-1.00
+9.00,+6.00,+4.00,-3.00,-4.00,-12.00,+7.00,-16.00,-9.00,+13.00,+0.00,+0.00,+0.00,+14.00,+40.00,-1.00
-12.00,-19.00,-6.00,-1.00,+0.00,+11.00,+0.00,+7.00,+5.00,+4.00,-1.00,+0.00,+6.00,+3.00,-32.00,+13.00
-3.00,-6.00,-1.00,+0.00,+1.00,-20.00,+6.00,+27.00,-4.00,-8.00,-9.00,-1.00,-4.00,+4.00,+0.00,-14.00
-8.00,+15.00,+0.00,+1.00,-3.00,-24.00,-11.00,+8.00,+5.00,+8.00,+0.00,-2.00,-5.00,-13.00,+9.00,+0.00
+23.00,-10.00,-4.00,-1.00,+0.00,+47.00,+3.00,-9.00,+2.00,-1.00,+5.00,-4.00,-8.00,+10.00,-4.00,-1.00
-22.00,+5.00,+3.00,-1.00,-2.00,-6.00,-2.00,-9.00,-3.00,-11.00,-2.00,+1.00,+0.00,-18.00,+18.00,-3.00
-11.00,-12.00,-1.00,+0.00,+0.00,+10.00,-9.00,-13.00,+3.00,-1.00,-2.00,-3.00,-3.00,-3.00,-17.00,-3.00
-3.00,-34.00,-11.00,-2.00,-3.00,+4.00,+3.00,+6.00,+2.00,+1.00,-3.00,+0.00,+3.00,-11.00,+3.00,-5.00
-7.00,-35.00,+2.00,-2.00,+1.00,-1.00,-9.00,-3.00,+1.00,+7.00,+2.00,-3.00,+0.00,-7.00,-1.00,+4.00
+16.00,+74.00,+7.00,+1.00,-2.00,-9.00,-3.00,-42.00,-17.00,-9.00,-1.00,-2.00,-7.00,+13.00,+23.00,+8.00
-9.00,+3.00,-3.00,-1.00,-2.00,-19.00,-18.00,+70.00,-4.00,+0.00,+0.00,-1.00,+7.00,-3.00,-12.00,-7.00
+17.00,-56.00,-2.00,+1.00,+2.00,-4.00,+36.00,+4.00,+3.00,-2.00,-3.00,-1.00,+1.00,-18.00,-11.00,+11.00
-12.00,+57.00,-4.00,+1.00,+0.00,-7.00,-6.00,-10.00,+8.00,+11.00,-1.00,+0.00,-2.00,+3.00,-13.00,-7.00
+11.00,+9.00,+2.00,-3.00,-2.00,-11.00,+6.00,+17.00,+3.00,+2.00,-3.00,-2.00,+3.00,+28.00,+10.00,+1.00
-7.00,+12.00,+2.00,+0.00,-3.00,+13.00,-7.00,-75.00,-8.00,-11.00,-3.00,-3.00,-5.00,-19.00,-28.00,-1.00
+4.00,-2.00,-2.00,-2.00,+0.00,+2.00,+1.00,+38.00,-3.00,-3.00,-4.00,-3.00,-11.00,-33.00,-34.00,-3.00
-6.00,-56.00,-8.00,-3.00,-2.00,-8.00,+3.00,+26.00,+6.00,+5.00,+2.00,+3.00,+6.00,+8.00,+39.00,-3.00
-11.00,-20.00,-3.00,-3.00,-3.00,-6.00,+0.00,-3.00,-9.00,-5.00,-1.00,-2.00,-8.00,-5.00,-11.00,-1.00
+4.00,+49.00,+3.00,+0.00,-3.00,-34.00,-13.00,+0.00,-15.00,-14.00,-1.00,-1.00,+4.00,+17.00,+11.00,-5.00
-1.00,+6.00,-2.00,-2.00,+0.00,+39.00,+7.00,-15.00,+32.00,+13.00,-4.00,-1.00,-4.00,+6.00,+2.00,-2.00
+8.00,-36.00,+2.00,+2.00,-2.00,-9.00,+3.00,+23.00,-31.00,-11.00,-1.00,-2.00,+2.00,-2.00,+12.00,-7.00
-1.00,+93.00,+2.00,-2.00,+0.00,+2.00,-18.00,-20.00,-26.00,-13.00,+0.00,+1.00,-4.00,-9.00,-28.00,+3.00
+16.00,+19.00,+5.00,+2.00,-1.00,+2.00,+1.00,-15.00,+24.00,+7.00,-2.00,+0.00,+7.00,+16.00,+29.00,-10.00
-26.00,-87.00,-9.00,-4.00,-4.00,+2.00,-15.00,+2.00,+1.00,-3.00,-8.00,-5.00,-7.00,-21.00,-68.00,+4.00
+20.00,+71.00,+4.00,+2.00,-1.00,-8.00,+10.00,+2.00,-15.00,+1.00,+4.00,+3.00,+4.00,+15.00,+1.00,-20.00
+35.00,+51.00,+13.00,+5.00,+7.00,+15.00,+6.00,+8.00,+27.00,+14.00,+1.00,-2.00,+3.00,-4.00,+36.00,+9.00
-22.00,-56.00,-7.00,-3.00,-2.00,-6.00,-6.00,-7.00,-47.00,-7.00,+2.00,+1.00,-6.00,-20.00,-43.00,-1.00
-22.00,-28.00,-7.00,-5.00,-3.00,-17.00,+8.00,+22.00,-6.00,-26.00,-5.00,-1.00,+3.00,+25.00,+45.00,-16.00
+14.00,+6.00,+7.00,+4.00,+7.00,+13.00,+5.00,-22.00,+31.00,+8.00,-1.00,-4.00,-2.00,-9.00,-17.00,+13.00
+17.00,-125.00,-19.00,-3.00,-5.00,-5.00,-10.00,+34.00,+11.00,+7.00,-4.00,-1.00,+49.00,+12.00,-14.00,+5.00
+48.00,+127.00,+22.00,+2.00,+6.00,-3.00,-10.00,-13.00,+22.00,+6.00,-4.00,-9.00,-73.00,-73.00,+13.00,+14.00
-5.00,-110.00,+9.00,+4.00,+2.00,-15.00,-3.00,+29.00,+10.00,+22.00,+1.00,+0.00,+6.00,+61.00,+35.00,-14.00
-4.00,-3.00,-10.00,-3.00,-6.00,-7.00,-23.00,-17.00,-1.00,-2.00,-1.00,+1.00,+2.00,+8.00,-6.00,+3.00
-20.00,-73.00,-7.00,-4.00,-6.00,-1.00,+29.00,-17.00,+15.00,+0.00,+0.00,+4.00,+3.00,-11.00,+72.00,+6.00
-35.00,-53.00,-16.00,-6.00,+11.00,+18.00,-13.00,-16.00,+29.00,+25.00,-1.00,-7.00,+11.00,+61.00,-49.00,+9.00
-11.00,+56.00,-12.00,-6.00,-3.00,-4.00,+1.00,-15.00,-50.00,-26.00,+4.00,+34.00,-9.00,-45.00,+7.00,+11.00
-13.00,-10.00,+0.00,-2.00,+1.00,-19.00,-24.00,+4.00,-19.00,-51.00,-12.00,-37.00,+4.00,-1.00,-56.00,-10.00
-7.00,-31.00,-5.00,-2.00,-22.00,+8.00,-8.00,-16.00,+10.00,+20.00,-4.00,-9.00,-13.00,-30.00,-9.00,-12.00
-8.00,+12.00,-16.00,-6.00,-16.00,-18.00,+6.00,+1.00,-31.00,-21.00,-8.00,-7.00,+23.00,+8.00,+37.00,-13.00
+50.00,-8.00,+19.00,-2.00,-10.00,-5.00,+21.00,-57.00,+5.00,-4.00,-2.00,+13.00,+15.00,+25.00,-67.00,-1.00
+15.00,+77.00,+16.00,+13.00,+41.00,-1.00,+8.00,+5.00,+18.00,+24.00,+8.00,+14.00,-19.00,-16.00,+36.00,+28.00
-26.00,-87.00,-5.00,+2.00,+3.00,+1.00,+1.00,+93.00,+11.00,+13.00,+0.00,-27.00,-28.00,+17.00,+46.00,-16.00
+28.00,+13.00,+4.00,+0.00,-7.00,-7.00,+19.00,+13.00,+22.00,-1.00,-2.00,-8.00,+2.00,+22.00,-16.00,+7.00
+26.00,+2.00,-5.00,+0.00,-24.00,+8.00,-8.00,-4.00,-7.00,+16.00,+7.00,+0.00,+2.00,-90.00,-11.00,+7.00
-19.00,+17.00,-15.00,-6.00,-4.00,+18.00,-21.00,+0.00,+8.00,-4.00,-3.00,+11.00,-3.00,+25.00,-5.00,+2.00
-31.00,-30.00,-5.00,+1.00,+34.00,+8.00,-20.00,-10.00,-19.00,-13.00,-4.00,+4.00,+6.00,+3.00,-15.00,-5.00
-17.00,-60.00,-14.00,-3.00,-2.00,-6.00,-4.00,+17.00,+4.00,-2.00,+3.00,+9.00,-2.00,+12.00,+117.00,-9.00
+12.00,+123.00,+4.00,-1.00,+2.00,+20.00,+1.00,-29.00,-2.00,-39.00,-4.00,-11.00,+3.00,+2.00,-96.00,+2.00
-8.00,-123.00,-4.00,-7.00,-26.00,+7.00,+3.00,+7.00,+11.00,+47.00,+0.00,-1.00,-3.00,-6.00,+91.00,+22.00
+21.00,+107.00,+13.00,+6.00,+15.00,-7.00,-9.00,-23.00,-27.00,-15.00,+5.00,+6.00,-8.00,-2.00,-8.00,+0.00
-15.00,-128.00,-1.00,+1.00,-1.00,-2.00,-1.00,+2.00,+3.00,+17.00,+3.00,+7.00,+13.00,-4.00,-78.00,-5.00
+1.00,+105.00,+14.00,+1.00,+8.00,-19.00,+18.00,+10.00,-16.00,-4.00,-3.00,-3.00,-11.00,+0.00,+53.00,-11.00
-13.00,-40.00,-19.00,-7.00,-8.00,+33.00,-12.00,+6.00,+6.00,+6.00,-3.00,-13.00,+0.00,-2.00,-7.00,-26.00
+17.00,-46.00,+3.00,+1.00,-5.00,-6.00,+10.00,+5.00,+25.00,-8.00,-3.00,+3.00,-6.00,+2.00,-128.00,-14.00
+13.00,-4.00,+8.00,+1.00,+1.00,+15.00,+6.00,+20.00,-4.00,+12.00,-2.00,-7.00,+1.00,-27.00,+28.00,+12.00
+8.00,-41.00,-3.00,-1.00,-4.00,-7.00,-33.00,+2.00,-26.00,-24.00,-6.00,-12.00,-4.00,+13.00,+4.00,+3.00
-6.00,+4.00,+1.00,-2.00,-16.00,-17.00,-12.00,-35.00,-15.00,-13.00,-2.00,+9.00,+13.00,+9.00,+34.00,-20.00
-10.00,-69.00,-13.00,-4.00,+6.00,-18.00,+10.00,-28.00,-27.00,-16.00,-5.00,-10.00,-17.00,+1.00,-7.00,+11.00
+14.00,+62.00,-3.00,-4.00,+0.00,+8.00,+2.00,+14.00,+31.00,+1.00,+2.00,+3.00,+48.00,-9.00,+32.00,-11.00
-22.00,-128.00,+11.00,+6.00,+7.00,-6.00,-6.00,+0.00,+0.00,+12.00,+2.00,-11.00,-28.00,-30.00,-47.00,-17.00
+13.00,+57.00,+2.00,-4.00,-22.00,-25.00,-12.00,-52.00,-7.00,-1.00,-2.00,+3.00,-4.00,-10.00,-33.00,+23.00
-10.00,-21.00,+1.00,+0.00,+17.00,+7.00,+18.00,+28.00,+19.00,+4.00,+1.00,+18.00,-3.00,-19.00,+28.00,-12.00
-41.00,-31.00,-9.00,-1.00,+5.00,+45.00,-18.00,-60.00,+0.00,-8.00,-6.00,-22.00,+4.00,+5.00,-27.00,-16.00
+23.00,+40.00,-3.00,+2.00,+15.00,+6.00,+28.00,+107.00,-3.00,+5.00,+2.00,-5.00,+3.00,+38.00,+16.00,-8.00
-21.00,-14.00,-7.00,-6.00,-9.00,-23.00,-18.00,-55.00,-27.00,-32.00,-4.00,-1.00,-19.00,-22.00,-41.00,-5.00
+7.00,+71.00,-1.00,-4.00,-33.00,+10.00,+0.00,+69.00,+6.00,-2.00,-4.00,+5.00,+20.00,-27.00,+113.00,+25.00
-16.00,-104.00,+4.00,+4.00,+13.00,-10.00,+2.00,-65.00,+7.00,-1.00,-2.00,+6.00,-2.00,+80.00,+32.00,-7.00
+15.00,+60.00,+3.00,-1.00,-3.00,+9.00,-27.00,-8.00,-39.00,-9.00,-2.00,-3.00,+3.00,+20.00,+127.00,-16.00
+14.00,+11.00,+17.00,+6.00,+11.00,+7.00,+41.00,+3.00,+15.00,-1.00,+7.00,+2.00,-9.00,+7.00,-47.00,+16.00
-10.00,+54.00,-5.00,-8.00,-23.00,+4.00,-37.00,-65.00,+7.00,+21.00,+1.00,-7.00,-20.00,-18.00,-70.00,-19.00
-1.00,+46.00,-5.00,-2.00,-5.00,-17.00,+47.00,+31.00,-10.00,-8.00,+0.00,+12.00,-10.00,-16.00,+15.00,-24.00
+14.00,+16.00,+10.00,+3.00,+3.00,+5.00,-40.00,+57.00,+25.00,+16.00,+0.00,-12.00,-5.00,+2.00,+30.00,+39.00
-1.00,-14.00,+0.00,+5.00,+8.00,-20.00,+14.00,-34.00,-11.00,-1.00,-3.00,-2.00,+17.00,+14.00,+39.00,+6.00
-12.00,-19.00,-4.00,-2.00,+7.00,+15.00,+19.00,+45.00,+16.00,+9.00,-1.00,-5.00,+8.00,+5.00,-94.00,-20.00
+4.00,-19.00,+0.00,-1.00,-9.00,+1.00,-14.00,-7.00,-16.00,+5.00,-3.00,+1.00,+1.00,+21.00,-37.00,+22.00
-16.00,+18.00,-14.00,-1.00,-1.00,-37.00,+1.00,-101.00,+1.00,-16.00,-3.00,+5.00,+7.00,-9.00,-7.00,-2.00
+4.00,-25.00,+6.00,-1.00,+7.00,+49.00,-33.00,-10.00,-20.00,-11.00,-4.00,+2.00,-14.00,-53.00,-30.00,+17.00
-38.00,-101.00,-11.00,-2.00,-2.00,-11.00,-5.00,-35.00,+4.00,-7.00,-2.00,-6.00,-10.00,+34.00,+41.00,+21.00
+15.00,+30.00,-1.00,-1.00,-2.00,+5.00,-10.00,-25.00,+9.00,+0.00,+6.00,+2.00,+6.00,-43.00,-36.00,-25.00
-7.00,+60.00,-1.00,-2.00,-5.00,-26.00,+4.00,+35.00,-6.00,+18.00,-4.00,-5.00,+35.00,+2.00,-63.00,-6.00
+2.00,+34.00,+4.00,-2.00,-5.00,-19.00,+10.00,-29.00,+14.00,+9.00,-3.00,-1.00,+4.00,+60.00,-36.00,+28.00
+14.00,-9.00,+0.00,+0.00,-4.00,-27.00,-17.00,+44.00,-11.00,-7.00,-2.00,+2.00,-6.00,-35.00,+65.00,-2.00
+0.00,-30.00,-5.00,-1.00,-3.00,+20.00,+26.00,+88.00,+3.00,+7.00,+0.00,-3.00,-11.00,+21.00,+59.00,+32.00
+2.00,-44.00,-7.00,-3.00,+3.00,+16.00,-12.00,+12.00,+4.00,+1.00,+2.00,+0.00,+11.00,-2.00,+100.00,+22.00
-12.00,-23.00,-7.00,-1.00,+0.00,-16.00,+26.00,-47.00,+8.00,-7.00,+0.00,+2.00,-43.00,-19.00,-69.00,-61.00
+1.00,-11.00,+4.00,+0.00,-1.00,+45.00,+20.00,+31.00,-5.00,+4.00,-5.00,+3.00,+2.00,+37.00,+82.00,+42.00
+2.00,+60.00,-1.00,-2.00,-4.00,-5.00,-5.00,-29.00,-29.00,-13.00,+6.00,+1.00,+5.00,-17.00,-66.00,-11.00
-4.00,-69.00,-2.00,+0.00,-1.00,+9.00,-13.00,-43.00,+3.00,+2.00,+0.00,-4.00,-17.00,-15.00,-36.00,-12.00
+7.00,+22.00,+5.00,+3.00,+2.00,-36.00,+30.00,+127.00,-16.00,-18.00,-5.00,-4.00,+26.00,+59.00,+25.00,-20.00
-4.00,-13.00,+1.00,-4.00,-4.00,-33.00,-19.00,-99.00,+6.00,-1.00,-5.00,-1.00,-19.00,-33.00,+33.00,-10.00
+24.00,+36.00,+6.00,+4.00,+0.00,-77.00,-3.00,+34.00,+2.00,+9.00,+9.00,+0.00,-1.00,-14.00,-36.00,-18.00
-18.00,-17.00,+5.00,+2.00,+9.00,+105.00,+38.00,-43.00,+2.00,-27.00,-18.00,-1.00,-13.00,+60.00,+68.00,+16.00
+9.00,-11.00,+4.00,+0.00,-1.00,+4.00,-9.00,+29.00,-1.00,+8.00,-12.00,-3.00,+0.00,-59.00,+66.00,+18.00
-8.00,+24.00,-2.00,+3.00,+5.00,-51.00,+4.00,-85.00,-14.00,+0.00,+13.00,+4.00,+14.00,-13.00,-84.00,-38.00
-10.00,-68.00,-10.00,-4.00,-6.00,-5.00,-17.00,+32.00,-4.00,-12.00,-16.00,-3.00,+14.00,+29.00,+122.00,-3.00
-7.00,+84.00,+0.00,-1.00,-2.00,+8.00,+14.00,-32.00,+24.00,+19.00,+6.00,-2.00,+38.00,+0.00,-113.00,-15.00
-18.00,-22.00,+12.00,-7.00,-1.00,-31.00,-7.00,+29.00,-15.00,-16.00,+0.00,-5.00,-4.00,+20.00,+68.00,-37.00
+21.00,+14.00,+7.00,+7.00,+9.00,+32.00,+5.00,+2.00,-22.00,-24.00,-11.00,-1.00,-6.00,-3.00,+1.00,+24.00
+0.00,+0.00,+4.00,-5.00,-11.00,+1.00,-28.00,-81.00,+5.00,+9.00,+8.00,+0.00,-27.00,-38.00,+3.00,-3.00
+10.00,-3.00,-5.00,-1.00,-7.00,-69.00,+3.00,+114.00,+7.00,+6.00,+12.00,+3.00,+4.00,+20.00,-7.00,-33.00
+3.00,-42.00,-10.00,-7.00,-1.00,-13.00,-9.00,-5.00,+7.00,-8.00,+1.00,-6.00,-18.00,-24.00,-94.00,+5.00
+16.00,+80.00,+17.00,+7.00,+6.00,+97.00,+17.00,-21.00,-19.00,-2.00,-2.00,+4.00,+37.00,+63.00,+30.00,+34.00
-25.00,-54.00,-14.00,+0.00,+7.00,+8.00,+22.00,+86.00,-14.00,-9.00,-13.00,+1.00,-4.00,-46.00,+19.00,-27.00
+12.00,-22.00,-5.00,-1.00,-8.00,-32.00,-36.00,-44.00,+15.00,+12.00,-21.00,-11.00,-36.00,-5.00,-86.00,+64.00
-47.00,-31.00,-11.00,-1.00,-6.00,-28.00,+15.00,-51.00,+1.00,+10.00,+27.00,+9.00,+29.00,-29.00,+73.00,-33.00
+27.00,+30.00,+12.00,-1.00,-1.00,-50.00,-16.00,+69.00,-3.00,+0.00,-7.00,+1.00,+1.00,+36.00,+76.00,+49.00
+14.00,+11.00,+17.00,+6.00,+11.00,+7.00,+41.00,+3.00,+5.00,-25.00,-14.00,-2.00,+0.00,-18.00,-128.00,-20.00
-10.00,+54.00,-5.00,-8.00,-23.00,+4.00,-37.00,-65.00,-12.00,-36.00,+5.00,+5.00,-18.00,-13.00,+41.00,-62.00
-1.00,+46.00,-5.00,-2.00,-5.00,-17.00,+47.00,+31.00,-4.00,-26.00,-41.00,-12.00,-11.00,+4.00,+23.00,+11.00
+14.00,+16.00,+10.00,+3.00,+3.00,+5.00,-40.00,+57.00,-3.00,+9.00,-17.00,-2.00,-16.00,-40.00,-93.00,-9.00
-1.00,-14.00,+0.00,+5.00,+8.00,-20.00,+14.00,-34.00,-8.00,-5.00,+20.00,+4.00,+25.00,+11.00,+100.00,+22.00
-12.00,-19.00,-4.00,-2.00,+7.00,+15.00,+19.00,+45.00,+9.00,+47.00,+5.00,-12.00,-29.00,-18.00,-40.00,+11.00
+7.00,+6.00,+7.00,+5.00,+6.00,+28.00,+4.00,+11.00,+4.00,-2.00,-4.00,+5.00,+56.00,+22.00,-84.00,-53.00
-8.00,-16.00,-13.00,-1.00,+6.00,+62.00,+39.00,+24.00,+9.00,-12.00,+21.00,+2.00,+23.00,+12.00,+69.00,+58.00
+32.00,+30.00,+9.00,+6.00,+7.00,-8.00,-16.00,-50.00,+5.00,+29.00,-13.00,-10.00,-21.00,+23.00,-78.00,+61.00
-32.00,-21.00,-33.00,-10.00,-13.00,-86.00,-23.00,-23.00,-16.00,+0.00,+1.00,+4.00,-1.00,-46.00,+23.00,+19.00
-32.00,+23.00,+26.00,-3.00,-7.00,+36.00,+55.00,-47.00,-3.00,+31.00,+33.00,+6.00,+20.00,+29.00,-7.00,+16.00
+13.00,+16.00,-4.00,-2.00,+4.00,-15.00,-52.00,-45.00,+4.00,-2.00,-23.00,-14.00,-16.00,-38.00,-33.00,-95.00
-8.00,-13.00,+22.00,-1.00,-6.00,-18.00,-6.00,+29.00,-3.00,-20.00,+2.00,-4.00,+20.00,-3.00,-83.00,-13.00
-2.00,-8.00,-11.00,+4.00,+13.00,+74.00,+24.00,+66.00,-7.00,-17.00,-5.00,+3.00,-19.00,+31.00,+35.00,-66.00
+15.00,-15.00,+1.00,+0.00,-3.00,-106.00,-43.00,-47.00,+4.00,+13.00,+1.00,+1.00,-15.00,-42.00,-15.00,+4.00
-11.00,-21.00,-16.00,-5.00,-2.00,+21.00,+12.00,-41.00,+15.00,+4.00,+3.00,-5.00,+26.00,+0.00,+14.00,-38.00
+35.00,+5.00,-3.00,+4.00,+1.00,-9.00,+13.00,+46.00,-8.00,-27.00,-6.00,-1.00,-18.00,-5.00,+17.00,-2.00
+13.00,+9.00,+15.00,-6.00,-12.00,-70.00,-28.00,-40.00,-4.00,+5.00,+21.00,+0.00,+24.00,-7.00,-19.00,-10.00
+2.00,-20.00,-38.00,-5.00,-1.00,+101.00,+7.00,+20.00,+13.00,+9.00,-23.00,+0.00,-1.00,+11.00,+14.00,+12.00
+0.00,+4.00,+18.00,+5.00,+7.00,-43.00,+10.00,-46.00,-22.00,+35.00,+29.00,+3.00,-6.00,-2.00,-14.00,-14.00
-4.00,+22.00,-18.00,-6.00,-1.00,+76.00,+5.00,+12.00,+7.00,-28.00,-21.00,-1.00,+4.00,+25.00,+4.00,+41.00
+6.00,-54.00,-5.00,-4.00,-5.00,+34.00,-5.00,+11.00,+16.00,-28.00,-5.00,-1.00,-6.00,-17.00,+3.00,+16.00
-12.00,+11.00,+0.00,-1.00,+0.00,-16.00,+17.00,-42.00,+10.00,+3.00,-35.00,-7.00,+28.00,+72.00,+19.00,+25.00
-3.00,-9.00,+1.00,+0.00,-5.00,-72.00,-8.00,+66.00,+1.00,+1.00,+14.00,+3.00,-4.00,-74.00,-63.00,+18.00
+19.00,-21.00,-16.00,-2.00,+6.00,+41.00,-14.00,+9.00,+11.00,+24.00,+14.00,+1.00,-17.00,+33.00,+38.00,-9.00
-7.00,+31.00,-3.00,-5.00,-12.00,-20.00,-8.00,-68.00,-6.00,+9.00,-3.00,-6.00,+8.00,-68.00,+34.00,+0.00
+63.00,+45.00,+6.00,-2.00,+1.00,-15.00,-4.00,+57.00,-8.00,+20.00,+41.00,-4.00,-30.00,-28.00,-41.00,-21.00
-31.00,-31.00,+2.00,+4.00,+5.00,+41.00,-17.00,-52.00,-6.00,+19.00,+18.00,+1.00,-16.00,+50.00,-23.00,-37.00
+24.00,+16.00,-4.00,+1.00,-6.00,-31.00,+30.00,+74.00,-24.00,-21.00,-12.00,+2.00,+1.00,-23.00,-28.00,+22.00
-31.00,-25.00,-29.00,-6.00,+1.00,-29.00,-43.00,-77.00,+8.00,+7.00,-1.00,+4.00,+31.00,+34.00,+45.00,-33.00
+12.00,-2.00,+52.00,+2.00,+1.00,+22.00,+10.00,-29.00,-4.00,-39.00,-28.00,-10.00,+11.00,-17.00,-7.00,+15.00
+17.00,+10.00,+7.00,+0.00,-9.00,-103.00,+10.00,+49.00,-2.00,+15.00,+20.00,+2.00,-21.00,+27.00,+15.00,+30.00
+3.00,-49.00,-3.00,-5.00,-4.00,+53.00,-22.00,-15.00,+11.00,+34.00,+3.00,+7.00,-32.00,-34.00,-50.00,-3.00
+2.00,+24.00,+8.00,+4.00,+7.00,-6.00,+15.00,-63.00,-14.00,-33.00,-45.00,-2.00,-3.00,+10.00,+114.00,-21.00
-42.00,-13.00,-21.00,+2.00,-9.00,-107.00,+4.00,+57.00,-17.00,-11.00,+41.00,+13.00,-81.00,-43.00,+7.00,+63.00
-28.00,-13.00,-13.00,-4.00,+1.00,+105.00,+22.00,-32.00,+5.00,+40.00,-20.00,-5.00,-28.00,+1.00,-38.00,-51.00
-16.00,-2.00,-8.00,+5.00,+0.00,-68.00,-23.00,+22.00,-19.00,-66.00,-23.00,-3.00,+28.00,+75.00,+114.00,+8.00
+11.00,-28.00,-9.00,+2.00,+2.00,+56.00,+18.00,-71.00,+26.00,+18.00,+30.00,+8.00,+0.00,-13.00,+98.00,+21.00
+11.00,+83.00,+44.00,+4.00,+11.00,+13.00,-14.00,+32.00,-2.00,+68.00,+28.00,-1.00,+3.00,-27.00,-62.00,-30.00
-5.00,-38.00,+0.00,-6.00,-7.00,-17.00,-27.00,-22.00,+8.00,-45.00,-22.00,-11.00,-8.00,-30.00,-22.00,-14.00
-30.00,+43.00,+23.00,-4.00,-2.00,-6.00,+10.00,+23.00,-2.00,+6.00,+6.00,-8.00,+28.00,+32.00,+7.00,+7.00
-38.00,-34.00,-28.00,+3.00,+0.00,-60.00,-8.00,-2.00,-1.00,-19.00,-10.00,-3.00,-59.00,-41.00,+5.00,+62.00
-29.00,-28.00,-43.00,+1.00,-1.00,-43.00,-15.00,+53.00,+6.00,+16.00,-15.00,-2.00,+11.00,-12.00,-79.00,-15.00
+25.00,-17.00,+41.00,-8.00,+0.00,+11.00,-8.00,-4.00,+5.00,+2.00,+65.00,+15.00,+15.00,+0.00,+73.00,+29.00
+41.00,-11.00,-39.00,+12.00,+13.00,+100.00,+33.00,+44.00,+7.00,+21.00,-16.00,-7.00,-6.00,+6.00,-40.00,+21.00
+31.00,+102.00,+28.00,-3.00,+2.00,-4.00,+2.00,+67.00,-16.00,-34.00,-19.00,-5.00,+23.00,+16.00,+38.00,+63.00
-4.00,-49.00,+13.00,-5.00,-20.00,-95.00,-28.00,+12.00,+21.00,-47.00,-23.00,-3.00,+4.00,+14.00,+15.00,+49.00
-9.00,-10.00,-19.00,+4.00,+22.00,+78.00,+15.00,-103.00,+1.00,-16.00,-30.00,-7.00,+29.00,+11.00,-46.00,+13.00
-7.00,-28.00,-50.00,-8.00,+1.00,-12.00,-9.00,+73.00,-20.00,-26.00,+84.00,+13.00,-15.00,-26.00,-12.00,-28.00
-16.00,-36.00,+23.00,-6.00,-13.00,-18.00,+7.00,+9.00,+16.00,+15.00,-61.00,-7.00,-2.00,+23.00,-7.00,-20.00
-28.00,-18.00,-20.00,-5.00,-10.00,-47.00,-19.00,-28.00,-11.00,-30.00,-72.00,-1.00,-6.00,+49.00,+120.00,-37.00
+22.00,+63.00,+26.00,-2.00,-1.00,+30.00,+8.00,+3.00,-12.00,-9.00,-2.00,+8.00,+86.00,+6.00,-82.00,-21.00
+16.00,-32.00,+15.00,+6.00,+12.00,+0.00,+2.00,+54.00,-9.00,-42.00,-72.00,-10.00,-43.00,-36.00,+76.00,-90.00
-41.00,-1.00,-24.00,+7.00,+15.00,+40.00,+30.00,-6.00,+0.00,+67.00,+47.00,+1.00,-38.00,-60.00,-55.00,+45.00
-2.00,-16.00,+15.00,-9.00,-2.00,+26.00,-23.00,+51.00,+21.00,+74.00,+50.00,+2.00,-43.00,-6.00,+86.00,-90.00
-47.00,+5.00,-8.00,-3.00,-19.00,-76.00,-44.00,-95.00,-14.00,-104.00,-60.00,-7.00,-24.00,+12.00,-58.00,-78.00
+28.00,-5.00,+1.00,-1.00,+0.00,-38.00,+20.00,-67.00,+32.00,-3.00,+25.00,+4.00,-4.00,-12.00,+2.00,+67.00
-1.00,+31.00,+28.00,+1.00,-14.00,-42.00,+0.00,+67.00,+21.00,+95.00,+56.00,+10.00,+54.00,+46.00,+27.00,-14.00
+11.00,-30.00,-56.00,+3.00,+12.00,+2.00,-19.00,+23.00,-1.00,-25.00,-9.00,-12.00,-44.00,-47.00,-61.00,+36.00
+11.00,-32.00,-16.00,-3.00,-2.00,-58.00,+27.00,+70.00,+43.00,+23.00,+48.00,+14.00,+20.00,+15.00,+50.00,-35.00
-35.00,+64.00,+51.00,-3.00,-11.00,+41.00,-71.00,-128.00,-14.00,+11.00,-32.00,-11.00,-27.00,-25.00,+56.00,-93.00
+36.00,+43.00,+22.00,+3.00,+5.00,-25.00,+29.00,+78.00,-42.00,-53.00,+13.00,+1.00,+80.00,+99.00,-18.00,-64.00
+16.00,+13.00,+58.00,+1.00,+4.00,-23.00,-5.00,-52.00,-34.00,+9.00,+3.00,-5.00,-7.00,-78.00,-19.00,-60.00
-84.00,-12.00,-82.00,+1.00,+4.00,+63.00,-10.00,-64.00,-40.00,+13.00,+10.00,-1.00,-20.00,-22.00,-72.00,+77.00
+26.00,-33.00,+8.00,-3.00,-8.00,-85.00,+10.00,+68.00,+17.00,+14.00,-24.00,+5.00,+18.00,+39.00,+49.00,+28.00
-15.00,-35.00,+0.00,-10.00,-18.00,-20.00,-46.00,-128.00,-12.00,-54.00,-3.00,-11.00,-19.00,-22.00,-55.00,-10.00
+20.00,+75.00,-7.00,+14.00,+17.00,+61.00,+81.00,+63.00,-15.00,+62.00,+34.00,+11.00,+29.00,+30.00,+13.00,-63.00
+31.00,-29.00,-9.00,+5.00,-5.00,-128.00,-33.00,+46.00,-21.00,-55.00,-41.00,-13.00,-53.00,-12.00,+101.00,+75.00
-32.00,-6.00,-47.00,-5.00,+5.00,+88.00,+23.00,+36.00,-16.00,+63.00,+4.00,+4.00,+83.00,+67.00,-59.00,+40.00
+65.00,+9.00,+33.00,+2.00,-7.00,-36.00,+3.00,+116.00,-25.00,-59.00,-45.00,-7.00,-108.00,-107.00,-27.00,-47.00
+17.00,-10.00,+11.00,-2.00,-2.00,+72.00,-13.00,-119.00,-5.00,-34.00,+9.00,+3.00,+25.00,+84.00,+29.00,-70.00
+4.00,+36.00,+36.00,-5.00,-11.00,-67.00,-23.00,+55.00,+16.00,+43.00,+11.00,+0.00,+27.00,-60.00,+10.00,-107.00
-20.00,-7.00,-36.00,-2.00,+6.00,+70.00,+36.00,-105.00,+4.00,-37.00,-16.00,-11.00,+68.00,+17.00,-120.00,+6.00
+32.00,-7.00,-16.00,-3.00,-5.00,-18.00,+35.00,+127.00,+6.00,+32.00,+43.00,+15.00,-35.00,-19.00,-11.00,+116.00
-16.00,-1.00,+12.00,+3.00,+3.00,-3.00,-10.00,-111.00,+17.00,-7.00,-9.00,+9.00,-24.00,-18.00,-14.00,-61.00
+31.00,-27.00,+3.00,-1.00,-13.00,-27.00,+43.00,-45.00,+5.00,-33.00,-11.00,+1.00,-27.00,+41.00,+77.00,-71.00
-33.00,+7.00,+10.00,+0.00,+5.00,-43.00,-26.00,+3.00,-23.00,+51.00,+18.00,-13.00,+1.00,+2.00,-70.00,-6.00
-42.00,-7.00,+12.00,-6.00,+7.00,-11.00,-39.00,-128.00,+33.00,+12.00,-13.00,-6.00,-45.00,-1.00,-13.00,+36.00
-56.00,-6.00,-35.00,-7.00,-24.00,-87.00,-21.00,+50.00,+13.00,-46.00,-31.00,-6.00,+12.00,-8.00,+37.00,+127.00
-27.00,+18.00,+52.00,+8.00,+38.00,+127.00,+82.00,+47.00,+4.00,-11.00,-6.00,+3.00,+1.00,-6.00,+63.00,+127.00
-119.00,-23.00,-28.00,-11.00,-10.00,-86.00,-41.00,-101.00,+9.00,+28.00,+83.00,+12.00,-42.00,-29.00,-7.00,+60.00
+34.00,-26.00,-44.00,+1.00,+2.00,-43.00,+13.00,+79.00,+6.00,-34.00,-46.00,-5.00,+68.00,+52.00,+62.00,+84.00
+56.00,+57.00,+36.00,-3.00,+6.00,+50.00,+12.00,-5.00,+7.00,+14.00,+21.00,-5.00,+17.00,-12.00,+74.00,+81.00
-55.00,-15.00,-21.00,+6.00,+7.00,-22.00,-11.00,-55.00,+7.00,-12.00,-13.00,-8.00,+20.00,+59.00,-57.00,+71.00
-14.00,-21.00,+17.00,+7.00,-2.00,+17.00,+48.00,-62.00,-16.00,-116.00,-86.00,-14.00,-74.00,+3.00,+9.00,+10.00
-48.00,+2.00,-2.00,+7.00,+19.00,+127.00,-41.00,-77.00,+9.00,-25.00,-25.00,-17.00,+40.00,-67.00,+31.00,-128.00
-17.00,-39.00,-24.00,-18.00,-31.00,-56.00,-39.00,-73.00,+17.00,+65.00,+44.00,+21.00,+16.00,-15.00,+91.00,-12.00
+82.00,+34.00,+74.00,+1.00,+1.00,+18.00,-2.00,+106.00,-21.00,-26.00,-6.00,-2.00,-5.00,+40.00,-42.00,-52.00
+49.00,+13.00,+6.00,+1.00,-6.00,-39.00,+16.00,-20.00,+9.00,+75.00,+72.00,+16.00,+35.00,-38.00,+117.00,-66.00
+17.00,-14.00,+8.00,-3.00,-14.00,-19.00,-15.00,-22.00,+21.00,-8.00,+8.00,+2.00,-49.00,+44.00,-116.00,-102.00
+20.00,-19.00,-66.00,+1.00,+1.00,-23.00,+12.00,+61.00,+13.00,+44.00,+17.00,-15.00,-20.00,-38.00,-41.00,+73.00
+8.00,+0.00,+13.00,-9.00,-18.00,+9.00,-5.00,-30.00,+8.00,+41.00,+54.00,+2.00,-6.00,-47.00,+56.00,-59.00
+21.00,-12.00,+17.00,-4.00,-17.00,-94.00,-12.00,+127.00,+8.00,-1.00,-23.00,+13.00,-96.00,-12.00,-122.00,+35.00
+2.00,-33.00,+35.00,+5.00,+8.00,-54.00,+24.00,-35.00,-6.00,-79.00,-28.00,-25.00,+71.00,-7.00,-56.00,-21.00
+37.00,+91.00,+65.00,+9.00,+15.00,+47.00,-10.00,-30.00,-12.00,-31.00,-57.00,-13.00,+77.00,-1.00,-19.00,+21.00
-27.00,+43.00,-6.00,-18.00,-25.00,-125.00,+7.00,+13.00,+24.00,+8.00,+5.00,-6.00,-45.00,+47.00,+107.00,-53.00
-87.00,-48.00,-58.00,+15.00,+17.00,+119.00,-6.00,-128.00,-4.00,+23.00,-5.00,+0.00,-4.00,-74.00,+66.00,-5.00
-21.00,+85.00,+34.00,-4.00,-9.00,+15.00,+34.00,+28.00,-17.00,-1.00,+48.00,+11.00,-8.00,-4.00,-31.00,+58.00
-28.00,-34.00,-15.00,+9.00,+19.00,+48.00,-20.00,+47.00,-20.00,-27.00,-26.00,-8.00,+30.00,+10.00,-48.00,+67.00
+23.00,-33.00,-31.00,-8.00,-13.00,-48.00,+16.00,-14.00,-7.00,+34.00,-30.00,-2.00,-50.00,-11.00,-100.00,+111.00
+59.00,-32.00,-67.00,+0.00,-4.00,-92.00,-3.00,+3.00,-33.00,-41.00,+20.00,-10.00,+31.00,+29.00,+44.00,+64.00
+20.00,-3.00,-37.00,-9.00,-9.00,+3.00,-20.00,-77.00,-4.00,+37.00,+6.00,+4.00,-1.00,-12.00,+26.00,+33.00
+23.00,+30.00,+43.00,+8.00,+2.00,-37.00,+29.00,-100.00,-11.00,+27.00,+48.00,-1.00,-25.00,+86.00,+8.00,-89.00
+66.00,+38.00,+28.00,-5.00,-1.00,+83.00,-17.00,+56.00,-17.00,-15.00,-46.00,-6.00,-2.00,-86.00,-103.00,+33.00
+22.00,+30.00,+44.00,-9.00,-26.00,-128.00,-16.00,-64.00,+5.00,+119.00,+69.00,-5.00,+105.00,+87.00,-24.00,-53.00
-26.00,-35.00,-36.00,-5.00,-1.00,+30.00,+1.00,+82.00,-5.00,+37.00,+19.00,-2.00,-99.00,-73.00,-40.00,-64.00
-18.00,-27.00,-16.00,-4.00,+5.00,-25.00,+17.00,-14.00,+1.00,-110.00,-37.00,+9.00,+83.00,+14.00,+59.00,-63.00
-23.00,-44.00,-46.00,+7.00,+5.00,+20.00,-2.00,-72.00,+5.00,+32.00,+65.00,+0.00,-51.00,-34.00,+78.00,+7.00
+36.00,+36.00,+11.00,-10.00,-11.00,+24.00,-19.00,+5.00,+20.00,+12.00,-23.00,-15.00,+30.00,-10.00,-32.00,-79.00
+80.00,-3.00,-35.00,+7.00,-2.00,-47.00,+15.00,+18.00,+25.00,+30.00,+17.00,+3.00,+80.00,+56.00,+40.00,+103.00
+16.00,-16.00,+1.00,-21.00,-21.00,+13.00,-77.00,-104.00,+65.00,+22.00,-10.00,-13.00,-70.00,+18.00,-51.00,-124.00
+114.00,-21.00,-8.00,+5.00,+3.00,-19.00,+13.00,+111.00,+57.00,-22.00,+4.00,+9.00,-11.00,-34.00,+52.00,-38.00
+25.00,+14.00,-48.00,+11.00,+22.00,+12.00,-9.00,-68.00,+20.00,+15.00,-2.00,+2.00,-29.00,-54.00,-15.00,-122.00
+18.00,+26.00,+71.00,-3.00,+10.00,-32.00,-17.00,+18.00,-10.00,+89.00,+49.00,+5.00,-43.00,+40.00,+59.00,-128.00
-94.00,-37.00,-104.00,-3.00,-34.00,-74.00,-6.00,-82.00,-26.00,-105.00,-60.00,-5.00,-13.00,-38.00,+3.00,-16.00
-8.00,-46.00,-30.00,-4.00,+16.00,+93.00,+40.00,-3.00,-22.00,+21.00,+4.00,+13.00,+52.00,+96.00,+54.00,+27.00
+23.00,+70.00,+127.00,-4.00,-3.00,+31.00,+1.00,-75.00,+22.00,-7.00,-12.00,+11.00,-23.00,+9.00,-30.00,+59.00
-91.00,-5.00,-46.00,-2.00,+0.00,+13.00,-22.00,-107.00,-15.00,+72.00,+39.00,+14.00,-48.00,-54.00,+46.00,+39.00
-62.00,-6.00,-42.00,+9.00,+7.00,-28.00,+39.00,-4.00,+0.00,-12.00,-54.00,-5.00,-47.00,-16.00,-117.00,+33.00
-83.00,+102.00,+56.00,+4.00,+0.00,-82.00,-40.00,+23.00,-20.00,+28.00,+19.00,-8.00,+60.00,-2.00,+58.00,+37.00
-48.00,-31.00,-29.00,-10.00,-8.00,-70.00,-30.00,+62.00,-25.00,-104.00,-26.00,-6.00,-59.00,+38.00,+53.00,+96.00
-88.00,-24.00,+14.00,+5.00,+20.00,+64.00,+22.00,-106.00,-13.00,-51.00,-34.00,+4.00,+10.00,+3.00,-107.00,+51.00
+0.00,-8.00,+11.00,-6.00,+11.00,+55.00,+42.00,-39.00,-39.00,+84.00,+26.00,-5.00,+4.00,+41.00,-44.00,+100.00
-103.00,-74.00,-125.00,-3.00,-7.00,-86.00,-20.00,-51.00,+38.00,-88.00,+37.00,+22.00,-15.00,-46.00,+33.00,-25.00
-66.00,+30.00,+103.00,+0.00,+8.00,+56.00,-12.00,-1.00,+4.00,+54.00,-38.00,+3.00,-12.00,+16.00,-87.00,-60.00
-71.00,-23.00,-21.00,+0.00,-14.00,-118.00,-53.00,-4.00,-29.00,+18.00,+59.00,+6.00,+110.00,+49.00,-70.00,+105.00
+97.00,+15.00,+9.00,+12.00,+9.00,+66.00,+45.00,+73.00,-16.00,+2.00,-36.00,-5.00,-128.00,-53.00,+40.00,-85.00
+53.00,+8.00,-39.00,+2.00,-6.00,-28.00,-51.00,-128.00,-20.00,-16.00,-28.00,-27.00,-6.00,-14.00,-53.00,-33.00
+127.00,-16.00,-18.00,+2.00,+17.00,+1.00,+85.00,+94.00,-7.00,-3.00,+41.00,+0.00,+29.00,-6.00,+43.00,+90.00
-5.00,-15.00,-18.00,-8.00,-18.00,-71.00,-22.00,+37.00,+1.00,+10.00,-2.00,+10.00,-24.00,-34.00,-62.00,-117.00
+27.00,+58.00,+80.00,+8.00,+6.00,-35.00,+24.00,-6.00,-7.00,-21.00,-35.00,-18.00,+110.00,+98.00,+43.00,+58.00
-23.00,+15.00,+55.00,+1.00,-2.00,+89.00,+1.00,-94.00,-14.00,+57.00,+4.00,-3.00,-37.00,-23.00,-33.00,-56.00
-128.00,-30.00,-85.00,-8.00,-16.00,-80.00,-52.00,-80.00,-32.00,-73.00,-52.00,+3.00,-73.00,-56.00,-81.00,+6.00
+127.00,+4.00,+31.00,+11.00,+18.00,+127.00,+55.00,+88.00,-20.00,+35.00,-17.00,-8.00,+21.00,-27.00,+30.00,+89.00
+63.00,+14.00,-2.00,+8.00,+14.00,-28.00,-8.00,+101.00,-11.00,+108.00,+95.00,+0.00,+35.00,-38.00,-60.00,-36.00
-88.00,-8.00,-22.00,-6.00,-27.00,-93.00,+17.00,-90.00,+7.00,-53.00,-5.00,+18.00,+42.00,+68.00,+15.00,+70.00
+27.00,+18.00,+6.00,+3.00,+10.00,-31.00,-6.00,+20.00,-12.00,-111.00,-97.00,-23.00,-3.00,-71.00,+86.00,-51.00
-61.00,+24.00,-37.00,-2.00,-3.00,-14.00,+23.00,-58.00,+18.00,-5.00,-18.00,-4.00,+16.00,+17.00,-21.00,+19.00
-65.00,-59.00,+34.00,-22.00,-29.00,-78.00,-25.00,+1.00,+12.00,+40.00,+54.00,+5.00,+33.00,+45.00,+52.00,-5.00
+9.00,-5.00,+27.00,+4.00,+22.00,+57.00,+11.00,+78.00,+16.00,+90.00,+48.00,+9.00,+43.00,-14.00,-77.00,-17.00
-12.00,+17.00,-25.00,-9.00,-17.00,+94.00,-23.00,+43.00,-11.00,-63.00,-18.00,-16.00,+29.00,+43.00,+63.00,-49.00
+12.00,-23.00,+17.00,-4.00,+5.00,-71.00,-9.00,-26.00,-10.00,-50.00,-36.00,+8.00,+5.00,-1.00,+59.00,+18.00
+50.00,+57.00,+15.00,+10.00,+7.00,-76.00,+22.00,+10.00,-4.00,+26.00,+43.00,+13.00,+19.00,-2.00,-86.00,-15.00
-74.00,-10.00,-39.00,-10.00,-3.00,-41.00,-19.00,-119.00,-12.00,-19.00,-41.00,-12.00,-30.00,-16.00,+26.00,-56.00
-52.00,-17.00,+4.00,+0.00,-9.00,-57.00,+34.00,-9.00,+19.00,+54.00,+29.00,+8.00,+48.00,+48.00,+91.00,+63.00
+11.00,+7.00,-29.00,+2.00,+0.00,+93.00,+11.00,+33.00,-7.00,-46.00,-16.00,-3.00,+53.00,+32.00,-75.00,-126.00
-73.00,+24.00,+71.00,-5.00,+11.00,-4.00,-39.00,-128.00,+10.00,+24.00,-8.00,+0.00,-21.00,-69.00,+30.00,-13.00
+21.00,-10.00,+18.00,+6.00,-8.00,+9.00,+30.00,+120.00,-22.00,+42.00,+47.00,+8.00,+3.00,+7.00,-46.00,+34.00
-70.00,+3.00,+3.00,+9.00,+7.00,+5.00,-22.00,-78.00,+8.00,-54.00,-9.00,+3.00,-7.00,-66.00,+6.00,+62.00
-84.00,-76.00,-49.00,+0.00,-4.00,-4.00,-18.00,-119.00,-20.00,-88.00,-75.00,-16.00,+2.00,+90.00,+106.00,-22.00
-4.00,+63.00,+30.00,-12.00,-4.00,+127.00,-30.00,-65.00,+42.00,+20.00,+57.00,+19.00,-3.00,-84.00,-36.00,+74.00
+91.00,+0.00,+39.00,+6.00,+18.00,-31.00,+8.00,+103.00,-16.00,-43.00,-89.00,-14.00,-9.00,+32.00,-56.00,-102.00
+3.00,-56.00,-27.00,+1.00,-4.00,+32.00,-3.00,-89.00,-8.00,+127.00,-16.00,-19.00,-39.00,-41.00,-59.00,-92.00
+44.00,+82.00,+53.00,+3.00,-3.00,-18.00,+1.00,+75.00,+38.00,-6.00,+44.00,+9.00,-6.00,+39.00,+98.00,+74.00
-74.00,-89.00,-70.00,+1.00,-5.00,-23.00,-4.00,-23.00,-31.00,-123.00,-76.00,-8.00,-7.00,+38.00,+91.00,-58.00
+48.00,+26.00,+9.00,+5.00,+1.00,-14.00,+0.00,-16.00,+0.00,+40.00,+68.00,+6.00,+23.00,+1.00,-84.00,-67.00
+104.00,+23.00,-17.00,-6.00,+8.00,+118.00,+57.00,-2.00,+18.00,-37.00,-54.00,+8.00,+4.00,-45.00,+48.00,-53.00
-8.00,-60.00,-26.00,+7.00,+20.00,+33.00,-9.00,-33.00,+8.00,+77.00,+12.00,+8.00,-93.00,-41.00,-128.00,-80.00
-29.00,-17.00,+33.00,-13.00,-6.00,+10.00,-15.00,+37.00,-11.00,-67.00,+12.00,+13.00,-17.00,+17.00,-56.00,+72.00
-92.00,+66.00,+18.00,-17.00,-40.00,-128.00,-101.00,-26.00,-2.00,+5.00,-13.00,-14.00,+18.00,-3.00,+18.00,+77.00
+88.00,-22.00,+23.00,+22.00,+41.00,-51.00,+91.00,+114.00,-16.00,+53.00,+73.00,+13.00,+29.00,+72.00,+45.00,-7.00
-25.00,-13.00,+64.00,-1.00,+2.00,+5.00,-7.00,-45.00,+23.00,-5.00,-13.00,-13.00,+61.00,+42.00,+127.00,-1.00
+60.00,-23.00,-40.00,-9.00,-19.00,-55.00,-11.00,+97.00,-9.00,-3.00,+5.00,-9.00,-65.00,-128.00,-37.00,+8.00
-18.00,-73.00,-43.00,-1.00,+14.00,+80.00,+22.00,-88.00,-5.00,-25.00,+8.00,+6.00,+1.00,+67.00,-18.00,+36.00
-45.00,+74.00,+50.00,-5.00,-23.00,+5.00,-86.00,-82.00,+22.00,-88.00,-17.00,-6.00,-9.00,-49.00,+6.00,+95.00
+47.00,-1.00,-18.00,+6.00,+7.00,-47.00,+47.00,+95.00,-38.00,-44.00,+26.00,-20.00,+29.00,+72.00,+53.00,+71.00
-3.00,+34.00,+19.00,+2.00,-12.00,+24.00,+23.00,-95.00,+10.00,-38.00,-40.00,-9.00,-75.00,-43.00,+42.00,-108.00
+100.00,-13.00,-16.00,+20.00,+30.00,+78.00,+58.00,+78.00,-2.00,+27.00,-7.00,-8.00,+98.00,+38.00,+127.00,+5.00
-47.00,+18.00,+10.00,-8.00,-14.00,-27.00,-33.00,-70.00,+6.00,+108.00,+127.00,+10.00,-101.00,-57.00,-117.00,-24.00
+12.00,+7.00,+0.00,-3.00,-16.00,-95.00,-8.00,-61.00,+12.00,-63.00,-112.00,-16.00,+35.00,+41.00,-18.00,+43.00
-128.00,-67.00,-94.00,-3.00,+1.00,-16.00,-57.00,-128.00,-5.00,-1.00,+17.00,-17.00,+97.00,+45.00,+113.00,+74.00
-3.00,+26.00,+57.00,-3.00,-11.00,-83.00,+4.00,-61.00,+16.00,+32.00,+30.00,-13.00,-4.00,-45.00,-4.00,-62.00
+22.00,+10.00,-1.00,+2.00,+25.00,+108.00,+63.00,+36.00,-4.00,+55.00,+20.00,+12.00,+61.00,+15.00,+11.00,-40.00
-90.00,-21.00,-77.00,-10.00,-25.00,-117.00,-61.00,-64.00,-20.00,-26.00,+62.00,-8.00,-32.00,-88.00,-128.00,+52.00
+127.00,+40.00,+48.00,+7.00,+20.00,+104.00,+52.00,+99.00,-2.00,-54.00,-21.00,-2.00,-21.00,-37.00,-88.00,+28.00
-112.00,-48.00,-31.00,-13.00,-15.00,+2.00,-101.00,-117.00,-3.00,-69.00,-90.00,-5.00,-103.00,+12.00,+94.00,+0.00
+87.00,+38.00,+37.00,+3.00,+11.00,-26.00,+77.00,+100.00,+2.00,-31.00,-6.00,-22.00,+75.00,+64.00,+14.00,+0.00
-83.00,+34.00,+11.00,-12.00,-15.00,+21.00,-2.00,-128.00,+4.00,+65.00,+76.00,+10.00,-30.00,-79.00,+7.00,-93.00
+16.00,-100.00,-54.00,+8.00,+24.00,+94.00,+25.00,+15.00,+14.00,+97.00,+11.00,+35.00,+64.00,+76.00,-35.00,-62.00
+16.00,+75.00,+53.00,-9.00,-17.00,-21.00,-18.00,+20.00,-28.00,-59.00,-53.00,-7.00,-2.00,-40.00,+47.00,-23.00
-16.00,-68.00,+25.00,-8.00,-19.00,+24.00,-47.00,-5.00,+4.00,+18.00,+7.00,+6.00,-9.00,+34.00,-51.00,+42.00
+85.00,-8.00,+11.00,+15.00,+18.00,-19.00,+17.00,+107.00,+11.00,-22.00,+12.00,+10.00,-101.00,-16.00,+89.00,-4.00
+36.00,+22.00,-33.00,-3.00,-9.00,+54.00,-9.00,+59.00,-9.00,+8.00,+11.00,-2.00,+65.00,+95.00,-14.00,+5.00
+99.00,+3.00,-1.00,+0.00,+6.00,+6.00,+51.00,+36.00,-7.00,-17.00,-61.00,-12.00,-71.00,-108.00,-98.00,-15.00
-32.00,-37.00,-4.00,-10.00,-4.00,-30.00,-16.00,+60.00,-16.00,+2.00,+33.00,+24.00,-48.00,-41.00,+37.00,+36.00
-52.00,-13.00,+17.00,-14.00,-18.00,-40.00,-31.00,-92.00,+11.00,+98.00,-30.00,-14.00,+18.00,+8.00,+32.00,+14.00
-3.00,-2.00,+41.00,+7.00,+2.00,-82.00,+3.00,+65.00,+8.00,+80.00,+37.00,+15.00,+49.00,-43.00,-62.00,+51.00
+21.00,-12.00,-90.00,+5.00,+17.00,+38.00,+22.00,-60.00,-9.00,-111.00,-64.00,-8.00,-76.00,+52.00,+107.00,-51.00
+40.00,-39.00,+12.00,+16.00,+17.00,-99.00,-7.00,-28.00,-17.00,+37.00,-3.00,-4.00,+65.00,-35.00,-80.00,+14.00
-47.00,+30.00,+49.00,-19.00,-19.00,-22.00,-29.00,-119.00,+10.00,-58.00,+11.00,+17.00,+20.00,-35.00,-99.00,+20.00
-86.00,-25.00,-33.00,+4.00,+13.00,+20.00,+6.00,-59.00,+10.00,-74.00,-22.00,-6.00,+13.00,+13.00,+1.00,+50.00
+7.00,+8.00,+17.00,+2.00,+8.00,+69.00,+30.00,-24.00,+0.00,+22.00,+11.00,-5.00,+70.00,+53.00,-9.00,+6.00
-104.00,-17.00,-32.00,-7.00,-15.00,-77.00,-65.00,-61.00,+18.00,+63.00,+26.00,+39.00,+47.00,+37.00,+21.00,-68.00
+93.00,+20.00,+19.00,+2.00,+7.00,+52.00,+39.00,-57.00,-13.00,-9.00,-33.00,-11.00,-46.00,-19.00,+11.00,+31.00
-112.00,+0.00,-13.00,-1.00,+8.00,-64.00,-60.00,-119.00,-14.00,+21.00,+10.00,-18.00,-14.00,+9.00,+30.00,+30.00
+30.00,-34.00,-68.00,+3.00,+4.00,-57.00,+2.00,+68.00,+10.00,-73.00,+23.00,+12.00,+10.00,-17.00,-5.00,-35.00
-70.00,+11.00,-39.00,-7.00,-6.00,-12.00,-19.00,-128.00,+3.00,+64.00,-16.00,-15.00,+22.00,+15.00,-46.00,+29.00
+18.00,+42.00,+87.00,+5.00,+0.00,-57.00,-28.00,+101.00,-8.00,+17.00,-26.00,-3.00,+99.00,-11.00,+69.00,-8.00
+92.00,+11.00,-38.00,+2.00,-2.00,+35.00,+84.00,+64.00,+3.00,-34.00,+7.00,+4.00,+6.00,+65.00,-7.00,+14.00
-96.00,+3.00,+28.00,+6.00,+5.00,-65.00,+2.00,-11.00,+1.00,+59.00,+28.00,-6.00,-110.00,-79.00,+53.00,+41.00
+99.00,+30.00,+33.00,-9.00,-4.00,+14.00,+25.00,+65.00,-31.00,-6.00,-69.00,-10.00,+6.00,+42.00,-27.00,-102.00
-69.00,-37.00,-1.00,-8.00,-10.00,+2.00,-23.00,-4.00,+29.00,-64.00,-11.00,+17.00,+24.00,+25.00,+105.00,-52.00
+127.00,+7.00,-44.00,+15.00,+7.00,-22.00,+25.00,+67.00,-19.00,+55.00,-1.00,-22.00,+21.00,-47.00,+60.00,+86.00
-69.00,+34.00,+49.00,-8.00,-16.00,-21.00,-42.00,-62.00,+1.00,+8.00,+23.00,+16.00,+46.00,+26.00,-16.00,-20.00
-28.00,-50.00,-35.00,-3.00,-10.00,-76.00,-23.00,+55.00,-5.00,-22.00,+50.00,-5.00,+59.00,-1.00,+98.00,+19.00
-37.00,-22.00,-5.00,-1.00,+14.00,+127.00,+12.00,-68.00,-2.00,+9.00,-28.00,-8.00,-54.00,+33.00,-128.00,-16.00
+59.00,-4.00,+7.00,-6.00,-2.00,-73.00,+19.00,+15.00,-14.00,-35.00,+67.00,+1.00,-103.00,-54.00,+40.00,-19.00
-22.00,-17.00,+19.00,+0.00,-3.00,-8.00,-27.00,+25.00,+9.00,+127.00,-9.00,-9.00,+41.00,+28.00,+102.00,-2.00
-41.00,-11.00,-24.00,-1.00,-28.00,-19.00,-7.00,+44.00,-19.00,-124.00,-24.00,-14.00,-4.00,-4.00,+23.00,-1.00
+45.00,-42.00,-76.00,-10.00,+8.00,+56.00,+4.00,+45.00,+8.00,+105.00,+96.00,+6.00,-3.00,+5.00,-63.00,+80.00
-104.00,+48.00,+77.00,-4.00,-12.00,-128.00,-54.00,-48.00,+1.00,-123.00,-77.00,-18.00,-45.00,+17.00,+73.00,-124.00
+66.00,+30.00,+59.00,+11.00,+23.00,+90.00,+67.00,+77.00,+17.00,+22.00,+23.00,+46.00,-2.00,-1.00,-69.00,-20.00
-62.00,-21.00,-31.00,-20.00,-20.00,+1.00,-31.00,+44.00,-3.00,-124.00,-100.00,-27.00,-83.00,-43.00,-93.00,-48.00
+9.00,-30.00,-41.00,+13.00,+3.00,-20.00,+20.00,-12.00,-2.00,+59.00,+52.00,+10.00,+26.00,+59.00,+32.00,-7.00
-95.00,-20.00,+13.00,-9.00,-33.00,-38.00,-27.00,-114.00,-32.00,+55.00,-6.00,-6.00,-18.00,-67.00,-45.00,-65.00
+16.00,+48.00,+14.00,-11.00,+0.00,-66.00,+19.00,-46.00,-20.00,-36.00,-29.00,-23.00,-6.00,+16.00,-27.00,+54.00
-128.00,-5.00,-58.00,-3.00,-1.00,+60.00,-19.00,-114.00,+9.00,+2.00,-2.00,-1.00,-10.00,-37.00,+23.00,+3.00
+92.00,+57.00,+12.00,+1.00,-1.00,+58.00,+22.00,-87.00,+4.00,+13.00,+26.00,-5.00,-8.00,-3.00,+75.00,-55.00
+16.00,-17.00,+48.00,+0.00,+2.00,+36.00,-17.00,+31.00,-5.00,+49.00,-3.00,+19.00,+70.00,+57.00,+74.00,-46.00
-88.00,-87.00,-70.00,+13.00,+24.00,+86.00,+6.00,-66.00,+29.00,-71.00,-13.00,+14.00,-73.00,-72.00,-91.00,-64.00
+106.00,+26.00,+71.00,-8.00,-15.00,-87.00,-33.00,-107.00,+15.00,+58.00,+67.00,+18.00,+82.00,+77.00,+127.00,+38.00
+75.00,+77.00,+43.00,+17.00,+35.00,+91.00,+67.00,+125.00,-57.00,-89.00,-102.00,-26.00,-50.00,-84.00,+28.00,-52.00
-10.00,+83.00,+60.00,-6.00,-4.00,-33.00,-17.00,-49.00,+17.00,+88.00,+127.00,+20.00,-49.00,-27.00,-10.00,-14.00
-60.00,-39.00,-26.00,-2.00,-15.00,-88.00,+1.00,-31.00,-24.00,-48.00,-74.00,-30.00,+21.00,+127.00,+82.00,-1.00
+3.00,+16.00,-13.00,+8.00,+11.00,-63.00,+27.00,-4.00,+24.00,+44.00,+71.00,-3.00,-80.00,-115.00,-13.00,+81.00
-17.00,+58.00,+19.00,-10.00,-9.00,+37.00,-12.00,-6.00,+8.00,-31.00,-35.00,-1.00,+27.00,+58.00,-104.00,+74.00
-24.00,-28.00,-19.00,-6.00,-5.00,+28.00,-33.00,-73.00,-24.00,-48.00,-44.00,-21.00,+98.00,-7.00,+78.00,-14.00
+36.00,-35.00,-14.00,-1.00,+8.00,-26.00,+21.00,-20.00,-12.00,+9.00,+27.00,-1.00,+49.00,+84.00,+15.00,+68.00
-11.00,-52.00,-17.00,+0.00,-3.00,+28.00,-22.00,+17.00,+12.00,+97.00,+26.00,-1.00,-4.00,-34.00,+4.00,-97.00
+15.00,-33.00,-26.00,+16.00,+14.00,-49.00,+8.00,-23.00,-6.00,-10.00,+95.00,+20.00,+97.00,-89.00,+8.00,+50.00
-74.00,-65.00,+9.00,+8.00,+13.00,-31.00,+30.00,+29.00,+2.00,-60.00,-109.00,-5.00,-120.00,-21.00,+54.00,+15.00
+64.00,+76.00,+39.00,-10.00,-24.00,+23.00,-72.00,+56.00,+10.00,+97.00,+56.00,-16.00,+105.00,-16.00,-128.00,+90.00
+66.00,-89.00,-5.00,+12.00,+33.00,+122.00,+60.00,+55.00,-7.00,-91.00,-2.00,+18.00,-46.00,-4.00,+124.00,-35.00
-121.00,+25.00,+66.00,-24.00,-42.00,-64.00,-75.00,-81.00,+7.00,+64.00,+31.00,-25.00,+86.00,+116.00,+85.00,-27.00
+60.00,-104.00,-85.00,+3.00,+20.00,-53.00,+28.00,+102.00,+11.00,-67.00,-68.00,+9.00,+18.00,-59.00,-128.00,-80.00
-6.00,+2.00,+31.00,-7.00,-16.00,-60.00,+20.00,-84.00,-5.00,+44.00,+57.00,+7.00,-6.00,+12.00,+72.00,-34.00
-32.00,+65.00,+15.00,+4.00,+1.00,-77.00,-5.00,-2.00,-17.00,+76.00,+9.00,-16.00,-45.00,+14.00,-84.00,-29.00
-53.00,-54.00,-61.00,+6.00,-7.00,-116.00,-39.00,+39.00,+13.00,-79.00,-85.00,-3.00,-10.00,+28.00,+100.00,-81.00
-14.00,+14.00,+39.00,-7.00,-10.00,+90.00,+36.00,-128.00,+22.00,+127.00,+80.00,+7.00,+77.00,+28.00,-91.00,-72.00
-123.00,-61.00,-68.00,-3.00,-12.00,-4.00,-38.00,+45.00,-31.00,-114.00,-69.00,-9.00,+13.00,-84.00,+46.00,-3.00
+51.00,+53.00,+80.00,+3.00,+13.00,+49.00,+10.00,+29.00,-19.00,-12.00,+28.00,+5.00,-79.00,+39.00,+43.00,+81.00
-36.00,-21.00,-58.00,+0.00,+8.00,+32.00,+30.00,-51.00,-6.00,-38.00,-61.00,-1.00,-7.00,+16.00,-8.00,-48.00
-76.00,+2.00,-11.00,+8.00,+0.00,-82.00,-29.00,-78.00,+34.00,-2.00,+33.00,+5.00,+59.00,-26.00,-54.00,+75.00
+84.00,-13.00,-8.00,-16.00,-16.00,-8.00,-13.00,+49.00,+0.00,+109.00,+110.00,+12.00,+108.00,+29.00,-15.00,-19.00
+4.00,+28.00,+46.00,+6.00,+7.00,-3.00,+51.00,+26.00,-52.00,-48.00,-80.00,-54.00,-48.00,+36.00,-14.00,+85.00
-14.00,-55.00,-23.00,-6.00,-6.00,-67.00,+3.00,-22.00,+38.00,-34.00,-3.00,+15.00,+68.00,-106.00,+78.00,+50.00
+32.00,+3.00,-31.00,-9.00,-4.00,+127.00,+10.00,+45.00,-7.00,-9.00,+18.00,-5.00,-94.00,+5.00,-21.00,-27.00
-36.00,+62.00,+73.00,-10.00,-36.00,-100.00,-48.00,-97.00,+7.00,-7.00,+13.00,+14.00,+126.00,+61.00,+64.00,+21.00
+36.00,-32.00,-43.00,+27.00,+50.00,+69.00,+63.00,+8.00,+10.00,-9.00,+6.00,+5.00,-6.00,-62.00,-19.00,+81.00
-28.00,+84.00,+84.00,-1.00,+4.00,-45.00,+0.00,-42.00,+2.00,+86.00,+22.00,-9.00,-85.00,-49.00,+25.00,-87.00
-128.00,-7.00,-33.00,-4.00,-6.00,-120.00,-50.00,-76.00,-13.00,-39.00,+41.00,+2.00,+50.00,+113.00,-78.00,+32.00
-5.00,-4.00,-15.00,-4.00,-7.00,+108.00,+23.00,+28.00,-4.00,-71.00,-74.00,-23.00,-128.00,-128.00,-23.00,+76.00
+82.00,-7.00,-13.00,+0.00,-4.00,-4.00,+26.00,+28.00,-6.00,-18.00,-7.00,+1.00,+90.00,+60.00,-23.00,-3.00
-71.00,-54.00,-27.00,-2.00,-8.00,-23.00,-14.00,-42.00,-8.00,-15.00,-53.00,-3.00,-33.00,+20.00,+65.00,-25.00
+57.00,+92.00,+41.00,-12.00,-9.00,-49.00,+8.00,+49.00,+2.00,+41.00,+64.00,+19.00,+49.00,+19.00,-54.00,+56.00
-107.00,-5.00,+38.00,+12.00,+8.00,-38.00,+18.00,-55.00,+17.00,+33.00,+0.00,+5.00,-96.00,+88.00,-22.00,-80.00
+37.00,+0.00,-16.00,-5.00,+14.00,+113.00,+39.00,-62.00,-6.00,-53.00,-58.00,-7.00,-27.00,-87.00,-89.00,-49.00
+57.00,-23.00,-40.00,-5.00,-8.00,+70.00,+3.00,-8.00,+22.00,+127.00,+104.00,+20.00,+91.00,+102.00,-11.00,+81.00
+49.00,+2.00,-2.00,+2.00,-7.00,-6.00,+11.00,+126.00,-25.00,-77.00,-92.00,-30.00,-96.00,-114.00,-8.00,-22.00
-18.00,-8.00,-1.00,+0.00,+11.00,+4.00,-26.00,-25.00,-1.00,+30.00,+64.00,-2.00,-17.00,+22.00,+79.00,+4.00
-54.00,-50.00,-34.00,-9.00,-35.00,-44.00,-64.00,-84.00,+34.00,+27.00,-59.00,-7.00,-13.00,-42.00,-57.00,-53.00
-19.00,+25.00,+43.00,+3.00,+16.00,+20.00,+44.00,+22.00,-27.00,-30.00,+7.00,-8.00,+1.00,+8.00,-80.00,+2.00
-27.00,-58.00,-26.00,-6.00,-18.00,-42.00,-25.00,+28.00,+9.00,-60.00,-73.00,-3.00,+7.00,-5.00,-36.00,+49.00
-13.00,+29.00,+31.00,+12.00,+31.00,+100.00,-2.00,-61.00,-2.00,+119.00,+74.00,+9.00,+61.00,+21.00,+33.00,+69.00
-115.00,-59.00,-61.00,-5.00,-14.00,-88.00,-47.00,-55.00,-13.00,-29.00,+45.00,+18.00,+48.00,+0.00,-3.00,-91.00
+127.00,+26.00,-3.00,+7.00,-11.00,-86.00,+65.00,+127.00,+22.00,-51.00,-6.00,-4.00,+10.00,+36.00,-106.00,-8.00
+13.00,+6.00,+22.00,-3.00,+12.00,+74.00,-18.00,-128.00,-11.00,-4.00,-14.00,-9.00,+41.00,+40.00,+102.00,+55.00
-85.00,-87.00,-128.00,+4.00,-16.00,-34.00,+25.00,+16.00,+15.00,+7.00,-25.00,-5.00,+27.00,-128.00,+10.00,-92.00
+41.00,+127.00,+97.00,-17.00,+17.00,+90.00,-2.00,-96.00,+10.00,+106.00,+58.00,+1.00,+4.00,+39.00,+91.00,+71.00
+48.00,-31.00,-12.00,-2.00,-5.00,-102.00,-5.00,+109.00,+4.00,+15.00,+8.00,-1.00,-43.00,-40.00,+5.00,-52.00
-80.00,-7.00,-7.00,-4.00,+3.00,-36.00,+11.00,-87.00,+1.00,-19.00,-30.00,-5.00,-16.00,-76.00,+76.00,-80.00
+61.00,+27.00,+79.00,+6.00,+11.00,-102.00,+13.00,-55.00,-12.00,-12.00,-22.00,+2.00,-84.00,+14.00,-66.00,-45.00
-27.00,-6.00,+72.00,+5.00,+1.00,-28.00,+6.00,+13.00,-25.00,-104.00,-40.00,+4.00,-80.00,+9.00,-88.00,-83.00
-30.00,-59.00,-58.00,+2.00,-17.00,-60.00,-9.00,+8.00,-5.00,+83.00,+7.00,-3.00,-52.00,+2.00,-88.00,+104.00
-62.00,+75.00,-11.00,+0.00,+15.00,+32.00,+12.00,-94.00,+29.00,+5.00,+25.00,+11.00,+46.00,+11.00,+77.00,-59.00
-13.00,-31.00,+57.00,-8.00,-3.00,+19.00,-20.00,-31.00,-24.00,-26.00,-13.00,-15.00,-40.00,-8.00,+3.00,+62.00
-77.00,+1.00,+17.00,-5.00,-37.00,-102.00,-53.00,-14.00,+15.00,+28.00,+38.00,+11.00,+96.00,+50.00,-13.00,+50.00
+106.00,-20.00,-17.00,+0.00,+26.00,+53.00,+30.00,+87.00,-25.00,-22.00,-21.00,-2.00,+78.00,+47.00,+67.00,-78.00
-100.00,-97.00,-100.00,+1.00,-30.00,-69.00,-32.00,-58.00,+13.00,+7.00,+24.00,-3.00,+19.00,-38.00,+24.00,+26.00
+106.00,+29.00,+32.00,-8.00,+15.00,+89.00,+36.00,+74.00,-16.00,+57.00,-2.00,-10.00,-79.00,-68.00,-123.00,+29.00
-35.00,-35.00,+15.00,+0.00,+13.00,-59.00,+29.00,-67.00,-15.00,-76.00,-21.00,-1.00,-6.00,-55.00,-27.00,+3.00
-32.00,+83.00,+26.00,-5.00,-9.00,-65.00,-33.00,-128.00,+3.00,-56.00,+38.00,+29.00,+65.00,-7.00,-2.00,-28.00
+41.00,+10.00,+36.00,+13.00,+38.00,+92.00,+33.00,+6.00,+3.00,-58.00,-49.00,-18.00,-94.00,+36.00,+116.00,+27.00
-53.00,-38.00,-68.00,-5.00,-29.00,-119.00,-36.00,-71.00,+21.00,+1.00,-20.00,+4.00,+127.00,+88.00,-20.00,+23.00
-68.00,+29.00,-1.00,-3.00,+8.00,-46.00,+19.00,+9.00,+7.00,+59.00,+76.00,-4.00,-69.00,+7.00,+66.00,+63.00
-117.00,-26.00,-17.00,-1.00,+8.00,+66.00,-31.00,-123.00,-14.00,+97.00,+4.00,-1.00,+6.00,+27.00,-26.00,-51.00
+121.00,-2.00,+25.00,+0.00,-6.00,+78.00,+36.00,+127.00,-18.00,+4.00,-38.00,+0.00,-70.00,-89.00,-79.00,+4.00
+16.00,-21.00,-32.00,-5.00,-21.00,-104.00,-25.00,+22.00,+7.00,-111.00,+5.00,-9.00,+16.00,+9.00,-64.00,+53.00
+14.00,-24.00,-56.00,-3.00,-3.00,+102.00,-32.00,+80.00,+25.00,-12.00,-8.00,+7.00,+43.00,+87.00,+127.00,-18.00
-59.00,+58.00,+47.00,+8.00,-2.00,-22.00,+41.00,-67.00,-17.00,-40.00,-17.00,-12.00,-123.00,-128.00,-58.00,+57.00
+34.00,-12.00,+32.00,+1.00,+15.00,-89.00,+5.00,-69.00,+19.00,+80.00,+47.00,+24.00,+74.00,+127.00,-32.00,-52.00
-37.00,+34.00,-10.00,+5.00,+4.00,+2.00,+25.00,-27.00,+3.00,+7.00,+23.00,-3.00,-53.00,-50.00,+10.00,-54.00
+77.00,+21.00,-2.00,+2.00,+16.00,+12.00,-22.00,-4.00,+4.00,+90.00,+11.00,-4.00,+56.00,+15.00,-39.00,+99.00
-95.00,-101.00,-60.00,-9.00,-17.00,-5.00,-70.00,-53.00,-32.00,-34.00,-36.00,-6.00,-88.00,-17.00,+37.00,-9.00
+50.00,+21.00,+16.00,-14.00,-14.00,-27.00,-21.00,+61.00,-9.00,-14.00,+9.00,-2.00,-67.00,-23.00,+57.00,+36.00
+61.00,+17.00,-14.00,+11.00,+14.00,+95.00,+38.00,+15.00,+1.00,+38.00,+46.00,+13.00,+23.00,+2.00,+63.00,-97.00
-16.00,+37.00,+12.00,+1.00,+6.00,-38.00,+33.00,-73.00,+22.00,-15.00,-25.00,-2.00,+17.00,+0.00,+25.00,-2.00
-56.00,+17.00,+0.00,-1.00,-14.00,+42.00,-14.00,-61.00,-2.00,+70.00,+40.00,-9.00,+105.00,+42.00,-49.00,+63.00
+34.00,+9.00,+22.00,+0.00,+1.00,-94.00,-2.00,+59.00,-3.00,-84.00,-10.00,-6.00,+35.00,-81.00,-37.00,-35.00
+0.00,-14.00,-8.00,+2.00,+31.00,+106.00,-22.00,-37.00,+7.00,+5.00,-20.00,+5.00,+94.00,+106.00,+32.00,+95.00
+82.00,+20.00,-52.00,+15.00,-8.00,+10.00,+16.00,+10.00,+0.00,+82.00,+21.00,+8.00,+42.00,-22.00,+73.00,-51.00
+5.00,-53.00,-5.00,-8.00,+4.00,-2.00,+18.00,-2.00,+13.00,-82.00,-13.00,+2.00,+66.00,-8.00,-60.00,-34.00
-37.00,-8.00,-25.00,+2.00,-23.00,-65.00,-29.00,+5.00,-17.00,+76.00,-17.00,-10.00,+23.00,+2.00,+55.00,+11.00
-93.00,+15.00,+37.00,-10.00,+5.00,-41.00,-16.00,+32.00,-15.00,-71.00,-31.00,-3.00,+32.00,+19.00,+64.00,+2.00
-116.00,-30.00,-11.00,+2.00,+3.00,+44.00,-38.00,-128.00,+41.00,-119.00,-51.00,-7.00,-38.00,-36.00,+16.00,-24.00
+115.00,+2.00,-3.00,+5.00,+9.00,+13.00,+48.00,+89.00,-18.00,-7.00,-39.00,-10.00,+42.00,+7.00,+7.00,+52.00
-47.00,+3.00,+16.00,+4.00,+13.00,+56.00,+11.00,-117.00,-22.00,+20.00,+63.00,-1.00,-117.00,-2.00,-97.00,+22.00
-53.00,-11.00,-87.00,+5.00,-28.00,-120.00,-22.00,+16.00,-26.00,-61.00,-46.00,-8.00,+35.00,-39.00,+83.00,-28.00
+68.00,+21.00,+54.00,-14.00,+18.00,+74.00,+47.00,+120.00,+14.00,+105.00,+66.00,+3.00,-55.00,+31.00,-32.00,-11.00
-22.00,-37.00,-44.00,+2.00,-2.00,-105.00,-28.00,-63.00,-4.00,-48.00,-3.00,-9.00,-14.00,-77.00,-33.00,-51.00
+11.00,+33.00,-26.00,+0.00,+13.00,+118.00,+0.00,-29.00,+12.00,-10.00,-2.00,+10.00,+16.00,+35.00,+43.00,-45.00
-10.00,-5.00,+39.00,+2.00,+22.00,+86.00,+31.00,+56.00,+3.00,+3.00,-30.00,-1.00,+65.00,+64.00,-2.00,-40.00
+34.00,+50.00,-33.00,-5.00,-24.00,-40.00,-21.00,-41.00,-25.00,-12.00,+8.00,+2.00,-56.00,-18.00,-69.00,+18.00
-32.00,+16.00,+75.00,+3.00,-9.00,-38.00,-35.00,-33.00,+11.00,+106.00,+47.00,+10.00,-112.00,-2.00,+29.00,-28.00
-4.00,-5.00,+19.00,-12.00,+1.00,-51.00,-6.00,+10.00,-19.00,-83.00,-34.00,-5.00,-19.00,+12.00,-29.00,+5.00
+69.00,+16.00,-27.00,+1.00,-11.00,+14.00,+25.00,+9.00,+23.00,+55.00,+88.00,+8.00,-15.00,-86.00,+56.00,+37.00
-1.00,-18.00,+7.00,-2.00,+1.00,+2.00,-28.00,+103.00,-1.00,-79.00,-86.00,+2.00,+83.00,+18.00,+38.00,-33.00
-65.00,+8.00,+16.00,-4.00,-14.00,-12.00,-20.00,-83.00,+18.00,+3.00,-3.00,-16.00,-35.00,-33.00,-16.00,-7.00
+39.00,-42.00,-57.00,+9.00,+14.00,+0.00,+44.00,+34.00,-30.00,+15.00,-16.00,+0.00,+23.00,+0.00,-3.00,+28.00
-1.00,+7.00,+42.00,-13.00,-11.00,-55.00,-19.00,-23.00,-3.00,+123.00,+71.00,+5.00,-90.00,-30.00,-47.00,-16.00
-17.00,-20.00,+11.00,+5.00,+11.00,+25.00,-4.00,-21.00,-7.00,-108.00,-42.00,-6.00,-42.00,-26.00,+73.00,-36.00
+73.00,+10.00,-7.00,-4.00,+2.00,+65.00,+23.00,+88.00,-32.00,+75.00,+4.00,+4.00,+17.00,-4.00,-2.00,-29.00
-107.00,+2.00,+2.00,-3.00,-7.00,-22.00,-35.00,-103.00,+47.00,-68.00,+33.00,-4.00,+55.00,+61.00,-29.00,+49.00
+92.00,-16.00,-49.00,+2.00,+5.00,-63.00,-21.00,+113.00,-16.00,+17.00,-28.00,-3.00,-16.00,+23.00,+1.00,-16.00
-97.00,-13.00,-13.00,-1.00,-15.00,-7.00,+28.00,-107.00,-10.00,+54.00,-8.00,-5.00,-11.00,+7.00,-36.00,-19.00
+34.00,-12.00,+21.00,-3.00,+14.00,+27.00,-11.00,+48.00,+7.00,-20.00,+33.00,+11.00,+52.00,+28.00,+88.00,+100.00
+32.00,+4.00,+34.00,+3.00,-14.00,-92.00,+14.00,-12.00,+12.00,+22.00,-35.00,-14.00,+70.00,-12.00,-57.00,-34.00
-79.00,-25.00,+23.00,-7.00,+19.00,+114.00,+19.00,-110.00,-60.00,-33.00,-10.00,+8.00,+59.00,-22.00,-3.00,+5.00
-58.00,+65.00,-10.00,-3.00,-22.00,-128.00,-24.00,+79.00,-4.00,-48.00,-15.00,-5.00,+64.00,+2.00,-51.00,-5.00
-9.00,-38.00,-82.00,+4.00,+20.00,+116.00,+40.00,-11.00,+38.00,+76.00,+38.00,+4.00,-10.00,+7.00,-29.00,-45.00
+13.00,-8.00,+60.00,+5.00,+6.00,+26.00,-19.00,+56.00,+29.00,+9.00,+25.00,+2.00,+119.00,+47.00,+59.00,+38.00
+37.00,+52.00,-53.00,-1.00,-11.00,-39.00,+19.00,+48.00,-42.00,-85.00,-43.00,-6.00,+69.00,-23.00,-18.00,+11.00
+24.00,-7.00,+49.00,-2.00,-1.00,-11.00,-23.00,-58.00,+14.00,+67.00,+51.00,+18.00,+43.00,+47.00,+69.00,+17.00
+16.00,+5.00,-4.00,-9.00,-6.00,-11.00,-6.00,+22.00,-12.00,-90.00,-34.00,+3.00,-109.00,-58.00,-12.00,-27.00
-67.00,+1.00,-21.00,+1.00,-12.00,-39.00,+2.00,-7.00,-32.00,+44.00,-14.00,-12.00,-5.00,-10.00,-75.00,-34.00
-21.00,+3.00,-17.00,-7.00,-14.00,+18.00,-39.00,-111.00,+25.00,+17.00,-31.00,-10.00,-90.00,-56.00,+3.00,-7.00
-57.00,-56.00,+32.00,+2.00,-14.00,+16.00,-20.00,-54.00,-35.00,-18.00,+28.00,+3.00,+35.00,-4.00,+1.00,+0.00
+12.00,+76.00,+22.00,-3.00,-6.00,-42.00,+2.00,+82.00,+0.00,-40.00,-54.00,+4.00,+96.00,+106.00,+79.00,-13.00
-53.00,-18.00,-3.00,-2.00,-4.00,-48.00,+1.00,-97.00,+7.00,+17.00,-7.00,-1.00,-28.00,-67.00,+34.00,+0.00
+95.00,+0.00,+14.00,+7.00,+7.00,+16.00,+32.00,+85.00,+16.00,-19.00,+47.00,+7.00,-43.00,-57.00,-20.00,+15.00
-46.00,-48.00,-22.00,-6.00,-21.00,-95.00,-5.00,+2.00,-14.00,+45.00,-39.00,-13.00,-68.00,+35.00,+9.00,+19.00
+19.00,+16.00,+33.00,-2.00,-3.00,+53.00,+1.00,-81.00,+20.00,-8.00,+9.00,-2.00,-69.00,+9.00,-44.00,-22.00
-28.00,-35.00,-52.00,+5.00,+9.00,-42.00,+19.00,+24.00,-12.00,+5.00,+40.00,+6.00,-19.00,-23.00,-49.00,+66.00
+72.00,+1.00,+37.00,+8.00,+17.00,-59.00,-22.00,+27.00,+25.00,-76.00,-21.00,-6.00,-36.00,+50.00,+75.00,-39.00
+68.00,+46.00,-8.00,-5.00,+5.00,+37.00,+57.00,+70.00,+27.00,-12.00,-10.00,+1.00,+38.00,-43.00,-123.00,+10.00
-43.00,-3.00,+5.00,+3.00,+4.00,-15.00,-38.00,-49.00,-50.00,+25.00,+8.00,-7.00,+83.00,-28.00,-34.00,+10.00
-15.00,-25.00,-22.00,-9.00,-7.00,+16.00,+4.00,-41.00,+40.00,+36.00,-3.00,+3.00,-2.00,+107.00,+72.00,-15.00
-30.00,-3.00,+17.00,+4.00,+2.00,+108.00,+25.00,-9.00,-20.00,+46.00,+21.00,+9.00,+58.00,-96.00,-60.00,-8.00
-39.00,-3.00,+10.00,-8.00,-17.00,-118.00,-21.00,+17.00,+4.00,-37.00,+0.00,-14.00,+50.00,+10.00,+10.00,+1.00
+25.00,+33.00,-30.00,+8.00,+24.00,+76.00,+13.00,+24.00,+1.00,-5.00,+4.00,-4.00,-56.00,+4.00,+8.00,-33.00
+48.00,+5.00,+10.00,-4.00,+1.00,+57.00,-9.00,+24.00,-17.00,+0.00,+12.00,+7.00,-50.00,+9.00,+32.00,-15.00
-62.00,-79.00,+1.00,-1.00,-8.00,-87.00,+3.00,-34.00,+51.00,+5.00,-25.00,-4.00,-58.00,-2.00,-27.00,+1.00
+60.00,+53.00,-61.00,+6.00,+5.00,+5.00,+13.00,-26.00,-16.00,+20.00,+15.00,-3.00,-69.00,-29.00,+20.00,-16.00
-7.00,+5.00,+66.00,-1.00,-1.00,-3.00,-22.00,+11.00,-11.00,-23.00,-15.00,-5.00,-69.00,-55.00,-10.00,+23.00
+15.00,+5.00,+14.00,-1.00,-9.00,+39.00,+10.00,+21.00,+46.00,+6.00,+1.00,+3.00,+53.00,-1.00,+11.00,-9.00
-12.00,-78.00,-27.00,-8.00,-4.00,+13.00,-3.00,-40.00,+29.00,+8.00,-7.00,-12.00,-22.00,-15.00,-37.00,-3.00
-16.00,-25.00,-10.00,-3.00,+1.00,-71.00,-31.00,+41.00,-11.00,-5.00,-2.00,-2.00,+12.00,-16.00,-10.00,-30.00
-58.00,-13.00,-38.00,+5.00,+11.00,+5.00,+39.00,+1.00,+7.00,-19.00,-2.00,-1.00,-35.00,+25.00,+7.00,-16.00
-6.00,+2.00,+33.00,-5.00,-22.00,-12.00,-26.00,-11.00,-37.00,+1.00,-7.00,+1.00,+41.00,+8.00,+3.00,-18.00
+3.00,+8.00,+5.00,-4.00,+15.00,+7.00,-11.00,-67.00,-17.00,-9.00,-9.00,+1.00,+73.00,+64.00,-22.00,-74.00
-73.00,-83.00,-13.00,+3.00,+3.00,+10.00,+11.00,-28.00,+3.00,+31.00,+32.00,+6.00,-22.00,-18.00,+21.00,+101.00
-4.00,-15.00,-2.00,-6.00,-11.00,-55.00,-4.00,-17.00,-3.00,+59.00,+63.00,-1.00,-44.00,-47.00,-17.00,+106.00
+7.00,+15.00,+3.00,+2.00,+11.00,+20.00,-1.00,+23.00,-27.00,-64.00,-75.00,-7.00,-40.00,-16.00,+4.00,-40.00
-28.00,+10.00,-7.00,-4.00,-1.00,-8.00,+4.00,-46.00,+20.00,+32.00,-46.00,-6.00,-27.00,+10.00,+0.00,-65.00
+32.00,+16.00,-4.00,-3.00,-7.00,+23.00,-12.00,-31.00,+43.00,-45.00,-23.00,+2.00,+4.00,+67.00,-10.00,-128.00
+13.00,-15.00,+5.00,+2.00,+7.00,-17.00,+3.00,+21.00,+7.00,-36.00,-3.00,+6.00,-9.00,-71.00,-17.00,-128.00
+6.00,+18.00,-12.00,+0.00,+1.00,+16.00,+4.00,+34.00,-22.00,+48.00,+26.00,+3.00,-17.00,-3.00,+31.00,-108.00
-28.00,+19.00,+13.00,-1.00,-4.00,-39.00,-17.00,-9.00,-50.00,-12.00,+4.00,-2.00,-55.00,+5.00,-36.00,-90.00
+48.00,-2.00,+4.00,+0.00,-9.00,+36.00,-3.00,+34.00,-22.00,+5.00,-1.00,-7.00,-31.00,-3.00,-27.00,-13.00
-54.00,-13.00,+5.00,-5.00,-14.00,-15.00,-9.00,+40.00,-22.00,-4.00,-12.00,+9.00,-8.00,+65.00,+12.00,+106.00
-103.00,-12.00,-37.00,+1.00,-4.00,-87.00,-5.00,+82.00,-18.00,+36.00,+36.00,-9.00,-82.00,-29.00,-35.00,+127.00
-65.00,+3.00,-50.00,+1.00,+25.00,+103.00,+18.00,+44.00,-17.00,-23.00,+4.00,+7.00,+31.00,-39.00,+23.00,+127.00
+34.00,+38.00,+77.00,-2.00,-9.00,-89.00,-21.00,-47.00,-40.00,+10.00,-2.00,+3.00,+61.00,-30.00,+24.00,-59.00
+46.00,+38.00,+7.00,-2.00,+2.00,+84.00,+31.00,+92.00,-10.00,-26.00,-18.00,-12.00,+93.00,+23.00,+0.00,-123.00
+12.00,+32.00,+27.00,-5.00,-11.00,-62.00,-7.00,+22.00,-12.00,+8.00,+21.00,-4.00,-16.00,-15.00,-26.00,-128.00
+1.00,-11.00,+22.00,+1.00,-3.00,-13.00,+12.00,-43.00,+5.00,+41.00,-1.00,+7.00,-81.00,+20.00,-2.00,+20.00
-16.00,+34.00,-33.00,+6.00,+12.00,+27.00,+14.00,-45.00,+15.00,-15.00,+6.00,+22.00,+38.00,+4.00,+4.00,-96.00
+1.00,-24.00,-13.00,-6.00,-11.00,-78.00,+8.00,-52.00,+16.00,-28.00,-25.00,-18.00,+76.00,-8.00,+13.00,-72.00
+13.00,+6.00,+3.00,-1.00,+8.00,+38.00,-8.00,-60.00,+16.00,-3.00,-9.00,-5.00,-16.00,+30.00,+10.00,-25.00
+46.00,+6.00,-9.00,+0.00,-13.00,-95.00,-26.00,+9.00,+21.00,-4.00,+33.00,-9.00,+72.00,+23.00,-3.00,+3.00
-5.00,-74.00,-36.00,-5.00,+10.00,-6.00,+22.00,-64.00,-2.00,+10.00,-6.00,-10.00,-42.00,-19.00,+8.00,+44.00
+15.00,+78.00,+24.00,+9.00,+14.00,+1.00,+26.00,+55.00,+5.00,-29.00,-51.00,-3.00,+15.00,+2.00,+1.00,-25.00
+23.00,+22.00,-1.00,+2.00,-4.00,+12.00,-1.00,-41.00,+3.00,-6.00,+2.00,+6.00,+33.00,+5.00,+6.00,+36.00
+77.00,-4.00,+10.00,-8.00,-26.00,-97.00,+1.00,+66.00,-10.00,-15.00,+0.00,+3.00,-13.00,-3.00,-12.00,+60.00
-47.00,-10.00,-14.00,+3.00,+22.00,+70.00,-6.00,-4.00,-9.00,+47.00,+23.00,-2.00,-8.00,+13.00,+10.00,-48.00
-32.00,-31.00,-20.00,-1.00,-17.00,-80.00,-24.00,-87.00,-11.00,-20.00,-15.00,+2.00,+54.00,-12.00,-7.00,-99.00
+118.00,-7.00,+7.00,+0.00,-6.00,+52.00,+11.00,+19.00,-56.00,+9.00,-1.00,+5.00,-22.00,-35.00,-3.00,-33.00
+14.00,+25.00,+31.00,-2.00,-9.00,-29.00,-8.00,-60.00,-38.00,-30.00,-22.00,+4.00,+77.00,+58.00,-7.00,-128.00
-13.00,-2.00,+1.00,+1.00,-15.00,-5.00,-10.00,-5.00,-60.00,+0.00,+3.00,-6.00,+15.00,-25.00,-1.00,-53.00
-40.00,-38.00,-21.00,-3.00,+3.00,-4.00,-6.00,+11.00,-63.00,+15.00,+5.00,+10.00,-21.00,-31.00,+4.00,-32.00
-56.00,-4.00,+7.00,+4.00,+14.00,-3.00,+8.00,-14.00,-31.00,+15.00,+10.00,+18.00,+61.00,+3.00,+11.00,+93.00
-39.00,+8.00,+13.00,-3.00,-5.00,-2.00,-5.00,-52.00,+0.00,+0.00,+4.00,+10.00,+19.00,+17.00,-8.00,+109.00
-18.00,-10.00,-3.00,+0.00,-1.00,+19.00,-3.00,+49.00,+12.00,-5.00,+1.00,+1.00,+96.00,+45.00,+0.00,+127.00
-116.00,-17.00,+1.00,-4.00,-20.00,+24.00,-11.00,-46.00,-32.00,+6.00,+3.00,-68.00,-102.00,+3.00,-2.00,+120.00
-59.00,+2.00,-18.00,-1.00,+16.00,+13.00,-1.00,-28.00,+41.00,-7.00,+1.00,+74.00,-6.00,+0.00,+5.00,-102.00
-23.00,+2.00,+2.00,-4.00,-11.00,+8.00,+8.00,+57.00,+50.00,+12.00,+6.00,-30.00,-65.00,+11.00,+0.00,-109.00
+56.00,+20.00,+4.00,-3.00,+6.00,+27.00,-1.00,-15.00,+46.00,-6.00,-7.00,-30.00,-41.00,-12.00,-5.00,-119.00
+127.00,+4.00,+13.00,-2.00,-19.00,+11.00,-19.00,-15.00,+22.00,-8.00,-4.00,-49.00,+61.00,-10.00,-2.00,+79.00
+121.00,+5.00,+1.00,-1.00,-2.00,-26.00,+1.00,+8.00,+26.00,+2.00,-2.00,-52.00,-9.00,+1.00,+9.00,-110.00
+107.00,-5.00,-9.00,-6.00,+2.00,+37.00,+6.00,+5.00,+25.00,-6.00,-3.00,+13.00,+17.00,-8.00,-15.00,-115.00
+122.00,-1.00,-5.00,+3.00,-64.00,+12.00,+1.00,+22.00,-2.00,-3.00,+2.00,+36.00,-35.00,-26.00,-12.00,-66.00
+22.00,-17.00,-6.00,-6.00,+25.00,-15.00,-6.00,-19.00,+33.00,+5.00,+6.00,+43.00,-8.00,+10.00,-2.00,-46.00
+14.00,-4.00,-3.00,+4.00,-16.00,+10.00,+3.00,+36.00,+37.00,+4.00,+0.00,-27.00,+15.00,+15.00,+0.00,+5.00
-34.00,+8.00,+2.00,+13.00,+65.00,+22.00,-7.00,+8.00,+46.00,-1.00,+1.00,+25.00,+9.00,-14.00,+1.00,+12.00
-27.00,-2.00,+0.00,-11.00,-29.00,-30.00,-3.00,+27.00,+106.00,-8.00,-3.00,-5.00,-1.00,-6.00,+3.00,+33.00
-65.00,+3.00,+4.00,+9.00,-5.00,-3.00,-1.00,+27.00,+48.00,+0.00,+0.00,+8.00,-15.00,+21.00,+2.00,-12.00
-96.00,-5.00,-4.00,-2.00,-3.00,+8.00,+3.00,+31.00,-12.00,+8.00,+1.00,+13.00,+1.00,-1.00,+2.00,+22.00
+90.00,+1.00,+3.00,+13.00,+56.00,+13.00,+1.00,+3.00,-88.00,-4.00,-1.00,-4.00,-47.00,-25.00,-3.00,-37.00
-116.00,+9.00,+3.00,+8.00,+86.00,+0.00,+2.00,+5.00,-92.00,-8.00,-2.00,-17.00,+9.00,+8.00,+0.00,+6.00
+92.00,-14.00,-6.00,-3.00,-23.00,-6.00,+10.00,+11.00,-47.00,+6.00,+4.00,+21.00,-2.00,+4.00,+6.00,-8.00
+97.00,+3.00,-1.00,-7.00,-22.00,-10.00,+3.00,-4.00,-44.00,-1.00,-4.00,-7.00,-9.00,-7.00,+2.00,+57.00
+76.00,+1.00,-1.00,-6.00,-31.00,-1.00,-3.00,-31.00,-28.00,+0.00,+1.00,-24.00,+6.00,-8.00,+0.00,+112.00
+127.00,-11.00,-9.00,-5.00,-22.00,+11.00,+7.00,-3.00,-25.00,-3.00,-3.00,+12.00,+17.00,+3.00,-4.00,+79.00
+75.00,-9.00,-2.00,-4.00,-14.00,+4.00,-2.00,-39.00,+17.00,+2.00,+0.00,+3.00,-27.00,+1.00,-1.00,+30.00
-8.00,+15.00,+4.00,+3.00,-10.00,-3.00,+3.00,-22.00,-11.00,-5.00,-3.00,-1.00,-4.00,-2.00,-1.00,+113.00
-6.00,-3.00,-3.00,-3.00,+9.00,+2.00,+3.00,-20.00,+11.00,-2.00,-2.00,+6.00,-17.00,-2.00,-3.00,+82.00
-17.00,-5.00,-1.00,-1.00,-5.00,+4.00,+2.00,-22.00,+8.00,-6.00,-3.00,-23.00,+17.00,-1.00,+0.00,+14.00
+11.00,-7.00,+1.00,-2.00,+9.00,-8.00,-5.00,-21.00,+7.00,+3.00,+1.00,-1.00,-17.00,-4.00,+0.00,-52.00
+32.00,+11.00,-4.00,-2.00,+6.00,+3.00,-2.00,-11.00,-1.00,+2.00,+0.00,+6.00,+7.00,+19.00,-2.00,-89.00
-113.00,-2.00,-1.00,-2.00,-38.00,+0.00,-7.00,-17.00,+23.00,-2.00,-3.00,-25.00,-10.00,-18.00,-2.00,-71.00
-102.00,+1.00,+0.00,+0.00,+20.00,+2.00,-2.00,-11.00,-6.00,+7.00,+4.00,+38.00,-8.00,-4.00,-5.00,-70.00
-121.00,-6.00,+0.00,-2.00,+5.00,-2.00,-6.00,-9.00,+6.00,-4.00,-1.00,-19.00,-26.00,+1.00,+2.00,-40.00
+19.00,-12.00,-4.00,-5.00,-27.00,+1.00,-8.00,-2.00,+16.00,+3.00,-2.00,-25.00,+9.00,-1.00,-3.00,-26.00
+69.00,+1.00,+2.00,+2.00,+53.00,+22.00,-4.00,-36.00,+6.00,-4.00,-3.00,+7.00,+1.00,+1.00,-3.00,-26.00
+110.00,+7.00,+3.00,+3.00,-24.00,+1.00,+0.00,+4.00,-1.00,-3.00,-1.00,-9.00,-7.00,-3.00,-1.00,-18.00
+79.00,-4.00,-3.00,-6.00,-12.00,-4.00,-4.00,+0.00,+3.00,-2.00,+0.00,+22.00,+10.00,+2.00,-3.00,+0.00
-61.00,-6.00,-2.00,+4.00,+52.00,+2.00,+1.00,+2.00,+13.00,+3.00,+0.00,+5.00,+7.00,-3.00,-4.00,+1.00
-128.00,+9.00,+4.00,-2.00,-25.00,+3.00,-3.00,-9.00,-5.00,-1.00,-2.00,-5.00,-3.00,-2.00,+1.00,-2.00
-61.00,-5.00,-4.00,-6.00,-11.00,+1.00,-2.00,+1.00,-3.00,-3.00,-1.00,-5.00,-11.00,-3.00,-3.00,+21.00
+12.00,+4.00,-2.00,+5.00,+39.00,-2.00,-2.00,+10.00,+9.00,-1.00,+1.00,+11.00,+8.00,+1.00,-2.00,+30.00
+21.00,-7.00,-3.00,-5.00,-29.00,-3.00,-2.00,+6.00,-5.00,-3.00,+0.00,-9.00,-11.00,-6.00,-4.00,+26.00
+33.00,+9.00,+4.00,+7.00,-3.00,+0.00,+0.00,+9.00,+0.00,-1.00,+0.00,-1.00,+5.00,-1.00,+0.00,+35.00
+12.00,-5.00,-1.00,+0.00,+14.00,+0.00,-1.00,+9.00,-5.00,-5.00,-4.00,+0.00,-6.00,+3.00,+0.00,+38.00
-5.00,-4.00,-2.00,-2.00,-18.00,+0.00,-5.00,+2.00,+3.00,-1.00,+0.00,+1.00,-3.00,+0.00,-2.00,+6.00
-73.00,-5.00,+0.00,+1.00,+9.00,+6.00,-3.00,+2.00,+0.00,-2.00,-3.00,-5.00,+2.00,-4.00,-1.00,-9.00
-42.00,-2.00,-2.00,-4.00,-20.00,-4.00,-3.00,+3.00,-4.00,+4.00,+4.00,+4.00,+6.00,-1.00,-4.00,-23.00
-13.00,+2.00,-3.00,-1.00,-8.00,-2.00,+0.00,+4.00,+7.00,-3.00,-6.00,-3.00,-9.00,-1.00,+1.00,-16.00
+24.00,+2.00,+1.00,+0.00,+5.00,+0.00,+0.00,+7.00,-4.00,-2.00,+3.00,+0.00,-3.00,-2.00,+0.00,-13.00
+54.00,-1.00,+0.00,+1.00,+4.00,+1.00,+0.00,+6.00,-1.00,+0.00,-2.00,-4.00,-5.00,-4.00,-4.00,-20.00
+5.00,-5.00,-4.00,-6.00,-19.00,-3.00,-2.00,+2.00,+0.00,-2.00,-2.00,+4.00,+0.00,+2.00,-2.00,-11.00
+8.00,+0.00,+3.00,-1.00,+9.00,+0.00,+0.00,+0.00,+0.00,+1.00,+0.00,-6.00,-9.00,-3.00,-2.00,-19.00
+13.00,-1.00,-2.00,-2.00,+2.00,-1.00,+2.00,+5.00,-2.00,+2.00,+1.00,+3.00,+4.00,+0.00,-2.00,-18.00
+14.00,-1.00,+2.00,+0.00,+8.00,+3.00,+2.00,+7.00,+0.00,-1.00,-2.00,+1.00,+1.00,-3.00,-3.00,-15.00
-22.00,-3.00,-4.00,-4.00,-16.00,-1.00,-1.00,+0.00,-5.00,-4.00,-4.00,+0.00,-5.00,-2.00,-4.00,-13.00
+25.00,+9.00,+3.00,+1.00,+7.00,+0.00,+1.00,+8.00,+1.00,+2.00,+0.00,-2.00,-5.00,-2.00,-2.00,-2.00
-8.00,-2.00,+3.00,+3.00,-1.00,-3.00,-1.00,+2.00,-3.00,-2.00,+0.00,+3.00,+2.00,+0.00,-2.00,+4.00
-4.00,+5.00,-1.00,-1.00,-2.00,+2.00,+0.00,+1.00,-2.00,-5.00,+2.00,-1.00,-5.00,+1.00,-1.00,+6.00
+8.00,+0.00,-1.00,-1.00,-3.00,-4.00,+2.00,+3.00,-3.00,-2.00,-1.00,-2.00,-1.00,-3.00,-1.00,+3.00
-45.00,-6.00,-3.00,+0.00,+2.00,-1.00,+3.00,-2.00,-1.00,-2.00,-1.00,-2.00,-8.00,-2.00,-2.00,+3.00
-32.00,+0.00,+0.00,-2.00,-4.00,+1.00,+2.00,-1.00,+3.00,+4.00,-2.00,-1.00,+7.00,-1.00,-1.00,+8.00
-15.00,+0.00,-1.00,-2.00,+2.00,-2.00,+1.00,-1.00,+0.00,+0.00,-1.00,-2.00,-4.00,-1.00,+2.00,+8.00
-29.00,-3.00,+2.00,-2.00,-4.00,-3.00,-2.00,-4.00,-6.00,-3.00,-3.00,-3.00,+3.00,+0.00,-1.00,+2.00
-71.00,-5.00,-1.00,-1.00,+3.00,-1.00,-2.00,+1.00,-3.00,-2.00,-1.00,-2.00,+1.00,-1.00,-3.00,+3.00
-61.00,-4.00,-1.00,-2.00,-4.00,-3.00,-3.00,-5.00,+5.00,-1.00,-2.00,+0.00,-5.00,+0.00,-1.00,+4.00
+0.00,-4.00,-2.00,-2.00,+2.00,-1.00,-2.00,+1.00,-6.00,+0.00,-1.00,-2.00,+0.00,-3.00,-3.00,-2.00
+17.00,+1.00,-1.00,-1.00,-3.00,-6.00,-1.00,-1.00,-2.00,-1.00,-1.00,-1.00,+4.00,+0.00,-1.00,+7.00
+32.00,-4.00,-3.00,+1.00,+0.00,+0.00,-1.00,+1.00,-4.00,-2.00,+1.00,+1.00,-7.00,-1.00,+1.00,+5.00
+19.00,+0.00,-1.00,-2.00,+2.00,+0.00,-1.00,+0.00,-2.00,-1.00,+0.00,-1.00,+12.00,-1.00,+0.00,+3.00
-1.00,-2.00,+1.00,-3.00,+1.00,+0.00,-2.00,+0.00,+1.00,-3.00,-1.00,+2.00,-8.00,-3.00,+0.00,-1.00
-6.00,-4.00,-4.00,-2.00,-7.00,-4.00,-2.00,+2.00,-18.00,-2.00,-2.00,-12.00,-7.00,-3.00,-1.00,-3.00
-94.00,+5.00,+0.00,+1.00,+3.00,-1.00,-1.00,+9.00,+22.00,+0.00,-1.00,-2.00,+0.00,+0.00,-1.00,+2.00
