-7.00,-4.00,+2.00,+1.00,+0.00,-6.00,-8.00,-9.00,-4.00,-5.00,-4.00,-1.00,+4.00,-1.00,-1.00,+1.00
+7.00,-1.00,-4.00,-2.00,-2.00,-11.00,+2.00,+3.00,-1.00,-1.00,-3.00,+0.00,+0.00,+3.00,+2.00,-2.00
-1.00,+0.00,+4.00,+3.00,+4.00,-10.00,+4.00,+16.00,-2.00,-1.00,-1.00,-1.00,+0.00,+3.00,-9.00,-3.00
-5.00,+1.00,+0.00,-2.00,+0.00,+0.00,+0.00,-5.00,-1.00,-3.00,+0.00,-1.00,-1.00,-3.00,-4.00,-5.00
-1.00,+1.00,-2.00,-1.00,-2.00,+0.00,+2.00,-1.00,+0.00,+0.00,+1.00,+0.00,-4.00,-6.00,-1.00,-8.00
-3.00,-1.00,+3.00,-1.00,-2.00,+11.00,-2.00,-10.00,+1.00,+0.00,-1.00,-4.00,+0.00,+1.00,+13.00,+16.00
-7.00,-3.00,+0.00,+0.00,+0.00,+0.00,-6.00,-8.00,-1.00,+0.00,+0.00,+0.00,-2.00,-2.00,-13.00,-3.00
+11.00,+3.00,-8.00,+1.00,+0.00,+8.00,+0.00,+1.00,-1.00,-4.00,-2.00,-2.00,-7.00,-2.00,-7.00,-6.00
-12.00,-8.00,+5.00,+0.00,+1.00,-4.00,+2.00,+0.00,+0.00,-12.00,+0.00,+2.00,+4.00,+4.00,+0.00,+1.00
+13.00,+9.00,+8.00,+0.00,+0.00,-9.00,-2.00,+4.00,-6.00,+7.00,+0.00,-1.00,+1.00,-2.00,-4.00,-7.00
+4.00,+0.00,-2.00,-2.00,-4.00,+5.00,-3.00,+0.00,+5.00,+3.00,-15.00,+0.00,+6.00,+10.00,+6.00,+3.00
+1.00,-2.00,-2.00,+1.00,+0.00,-7.00,-1.00,-1.00,+3.00,+11.00,+4.00,+0.00,-5.00,-10.00,+0.00,+2.00
-3.00,+5.00,+1.00,-2.00,-4.00,-12.00,-2.00,+3.00,+7.00,+8.00,+6.00,+0.00,-4.00,-5.00,-4.00,+2.00
-6.00,-2.00,-4.00,-2.00,-1.00,+19.00,-2.00,-6.00,-11.00,-19.00,-5.00,-2.00,-1.00,-3.00,-16.00,-3.00
+1.00,-6.00,+2.00,+0.00,+0.00,+37.00,+2.00,-2.00,-3.00,-6.00,+0.00,-1.00,-6.00,-6.00,-4.00,-3.00
+1.00,+1.00,-7.00,-4.00,-2.00,-2.00,-9.00,-22.00,-1.00,+3.00,-3.00,-3.00,+7.00,+10.00,+24.00,+0.00
-2.00,-5.00,-6.00,-1.00,+0.00,+3.00,+7.00,+20.00,+5.00,+4.00,+1.00,-2.00,+5.00,-6.00,+0.00,-1.00
+10.00,+0.00,+2.00,+0.00,-2.00,-30.00,-4.00,+3.00,-21.00,-16.00,-7.00,+2.00,-3.00,+4.00,+31.00,+1.00
+2.00,+0.00,+1.00,+0.00,+5.00,+21.00,-1.00,+2.00,-9.00,-7.00,-3.00,-2.00,-2.00,-1.00,-46.00,-3.00
-5.00,-5.00,+1.00,-2.00,-2.00,+9.00,-4.00,-6.00,+2.00,-1.00,+1.00,+0.00,-2.00,-3.00,+1.00,+1.00
+1.00,-3.00,-1.00,-1.00,-4.00,-2.00,-7.00,-4.00,+22.00,+13.00,+0.00,-2.00,+0.00,+5.00,-3.00,-5.00
-10.00,-26.00,-7.00,+0.00,+0.00,-7.00,+3.00,-7.00,+6.00,-1.00,-5.00,-4.00,-6.00,-7.00,-5.00,+2.00
+2.00,+11.00,-3.00,-1.00,+1.00,-14.00,+2.00,-3.00,-18.00,-15.00,-5.00,-1.00,-5.00,-6.00,+4.00,-3.00
+9.00,+38.00,+9.00,+2.00,+0.00,-7.00,+3.00,-2.00,+0.00,+4.00,+5.00,+2.00,+5.00,+1.00,+3.00,+1.00
-6.00,+9.00,-1.00,-4.00,-1.00,+8.00,+4.00,+17.00,-1.00,+3.00,-2.00,-2.00,+7.00,+6.00,+8.00,-1.00
-6.00,-91.00,-10.00,-3.00,-2.00,-11.00,-9.00,-10.00,+9.00,+1.00,-3.00,-3.00,-5.00,-1.00,-10.00,+1.00
-7.00,+81.00,+0.00,-1.00,-4.00,-8.00,-9.00,-2.00,+19.00,+17.00,+1.00,-3.00,-10.00,-6.00,-7.00,-3.00
+12.00,+20.00,+8.00,+1.00,+3.00,-8.00,+7.00,+14.00,+0.00,-3.00,-1.00,-1.00,+6.00,-1.00,+15.00,-5.00
+4.00,+27.00,+4.00,+1.00,+3.00,-2.00,+2.00,-21.00,-15.00,+5.00,-3.00,-3.00,-4.00,+1.00,+1.00,+3.00
+7.00,-11.00,+1.00,+1.00,+1.00,+6.00,+11.00,+12.00,+6.00,-3.00,+1.00,+0.00,+3.00,+5.00,-1.00,-6.00
-13.00,-81.00,-12.00,-1.00,-6.00,-4.00,-11.00,-14.00,-21.00,-16.00,+3.00,+1.00,-4.00,-5.00,+31.00,+11.00
-4.00,+4.00,-5.00,-4.00,-4.00,-20.00,-6.00,+8.00,-7.00,-16.00,-2.00,-1.00,+3.00,+3.00,-16.00,-5.00
+6.00,-4.00,+4.00,+0.00,+1.00,+4.00,+9.00,+36.00,-15.00,-6.00,-1.00,-3.00,-14.00,-20.00,-13.00,-6.00
+3.00,+41.00,+1.00,+2.00,+1.00,+7.00,+1.00,-11.00,+4.00,+3.00,-1.00,+1.00,+8.00,+10.00,+18.00,+4.00
-12.00,-38.00,-1.00,-1.00,-5.00,-35.00,-8.00,-3.00,+11.00,-21.00,-1.00,+0.00,-3.00,+7.00,+5.00,-5.00
+3.00,+34.00,-3.00,+0.00,-1.00,+21.00,-20.00,-5.00,+2.00,+30.00,-2.00,-3.00,-5.00,-15.00,-1.00,+1.00
-31.00,-51.00,-12.00,-3.00,-5.00,-19.00,+15.00,-12.00,-3.00,-8.00,-4.00,-2.00,+14.00,+37.00,-7.00,-4.00
-4.00,+63.00,+1.00,+0.00,+1.00,+27.00,+1.00,+3.00,+7.00,+14.00,+3.00,+1.00,-5.00,-28.00,-18.00,-3.00
+9.00,-61.00,-5.00,-2.00,+1.00,-13.00,-6.00,-3.00,+30.00,+15.00,+5.00,+5.00,+15.00,+8.00,+8.00,+6.00
-5.00,+41.00,+2.00,-2.00,-4.00,-32.00,-6.00,-2.00,-41.00,-29.00,-3.00,-1.00,+15.00,+34.00,+33.00,+2.00
+17.00,+52.00,+9.00,+4.00,+4.00,+12.00,-3.00,-29.00,-2.00,-5.00,-1.00,-5.00,-10.00,-27.00,-64.00,+3.00
+10.00,-9.00,+5.00,+1.00,-4.00,-47.00,-13.00,+20.00,+15.00,+11.00,+1.00,-2.00,-7.00,+19.00,-18.00,-6.00
+2.00,-32.00,+7.00,+4.00,+5.00,+71.00,+39.00,+10.00,-31.00,-30.00,-6.00,+0.00,-14.00,-69.00,+20.00,-2.00
+12.00,-75.00,-9.00,-4.00,-4.00,-1.00,-6.00,-4.00,+0.00,+2.00,-1.00,+10.00,+6.00,+52.00,-32.00,+1.00
-19.00,+58.00,-8.00,-4.00,-3.00,+36.00,-3.00,-26.00,+1.00,+14.00,+1.00,-1.00,-9.00,+23.00,+31.00,-4.00
-6.00,-30.00,+0.00,-2.00,-2.00,-40.00,-5.00,-15.00,+5.00,+6.00,-1.00,-5.00,-2.00,-5.00,+18.00,+2.00
-12.00,+44.00,-4.00,-3.00,-4.00,-39.00,-19.00,+40.00,+10.00,+24.00,+7.00,+9.00,+16.00,-16.00,-34.00,+4.00
-19.00,-43.00,-8.00,-1.00,+1.00,+49.00,+23.00,+15.00,+13.00,+1.00,+3.00,-7.00,-25.00,-31.00,+0.00,+0.00
-27.00,-50.00,-7.00,-3.00,-3.00,+9.00,-5.00,-9.00,+24.00,-6.00,-5.00,-17.00,+14.00,+6.00,-51.00,-2.00
+21.00,+58.00,+14.00,+3.00,+11.00,+28.00,+0.00,+25.00,-55.00,-25.00,-6.00,-14.00,+7.00,+31.00,+10.00,+2.00
+0.00,+25.00,-1.00,-3.00,-5.00,-31.00,+15.00,-5.00,-3.00,-12.00,-2.00,+2.00,-4.00,+24.00,+87.00,-5.00
-19.00,-56.00,+0.00,+1.00,+6.00,-30.00,-24.00,-22.00,-17.00,+7.00,-2.00,+1.00,-8.00,-22.00,-29.00,-9.00
+47.00,+73.00,+7.00,+0.00,-2.00,+7.00,+6.00,+19.00,-20.00,+0.00,+1.00,+6.00,-27.00,-7.00,-13.00,+6.00
-6.00,-40.00,-3.00,+0.00,-10.00,+23.00,+7.00,-36.00,+14.00,+22.00,-3.00,+4.00,+2.00,-21.00,-73.00,-17.00
+20.00,+33.00,-1.00,+0.00,+6.00,+3.00,-38.00,+16.00,+28.00,+20.00,+1.00,-11.00,-4.00,+0.00,+43.00,+24.00
+9.00,-97.00,+0.00,+0.00,-10.00,-11.00,+18.00,-9.00,+11.00,-6.00,+2.00,+3.00,+9.00,+19.00,-30.00,-6.00
+7.00,-7.00,-8.00,+1.00,-4.00,-27.00,+14.00,+13.00,-27.00,-39.00,-5.00,+5.00,+13.00,-19.00,+56.00,-2.00
+1.00,+30.00,+7.00,-1.00,+7.00,+18.00,-14.00,-13.00,+5.00,-4.00,+3.00,+6.00,-7.00,-58.00,-26.00,-10.00
-30.00,-67.00,-7.00,-2.00,-2.00,+10.00,+17.00,-20.00,-64.00,-22.00,+0.00,+16.00,+67.00,+81.00,-17.00,-6.00
+20.00,+88.00,+13.00,+3.00,+3.00,-35.00,-23.00,-28.00,+38.00,+11.00,-3.00,-19.00,-28.00,-50.00,-15.00,-9.00
+10.00,-19.00,+0.00,-2.00,-8.00,+26.00,-24.00,+29.00,-12.00,+15.00,-1.00,-2.00,-21.00,+3.00,+27.00,+10.00
+27.00,+39.00,-7.00,-4.00,-11.00,-36.00,+5.00,+47.00,+22.00,-28.00,-2.00,+2.00,+15.00,+27.00,+30.00,-2.00
+11.00,+32.00,+6.00,+2.00,+15.00,+37.00,+6.00,-2.00,+23.00,+55.00,+4.00,-6.00,-25.00,-44.00,-78.00,-8.00
-34.00,-34.00,-14.00,-5.00,-6.00,+9.00,+0.00,-11.00,-31.00,-23.00,-1.00,+4.00,-8.00,-4.00,+36.00,+6.00
-19.00,-84.00,-5.00,-2.00,-2.00,-20.00,-18.00,-26.00,+11.00,-7.00,-4.00,-4.00,+32.00,-21.00,+25.00,-3.00
-9.00,+66.00,+2.00,+0.00,+4.00,-17.00,+1.00,-10.00,+7.00,-2.00,-3.00,+5.00,+4.00,+16.00,+19.00,+10.00
+5.00,-70.00,+12.00,+4.00,-8.00,-31.00,-32.00,-17.00,+3.00,+0.00,+4.00,-1.00,-11.00,+32.00,-74.00,+7.00
+9.00,+77.00,-4.00,-3.00,+2.00,+37.00,+39.00,+40.00,-10.00,+9.00,-4.00,-13.00,+0.00,+43.00,+79.00,-7.00
+28.00,-25.00,+12.00,+0.00,-17.00,+21.00,-18.00,+11.00,-23.00,-9.00,-1.00,+9.00,-3.00,-47.00,-77.00,-8.00
-38.00,-35.00,-15.00,-2.00,+5.00,-24.00,+7.00,+3.00,+29.00,+7.00,-1.00,-5.00,-11.00,+26.00,+109.00,-2.00
-2.00,+43.00,-11.00,-5.00,-4.00,+11.00,+1.00,-25.00,-25.00,-9.00,-3.00,-6.00,-37.00,-26.00,-71.00,-14.00
-9.00,+4.00,+8.00,+1.00,-6.00,-40.00,+3.00,+21.00,+28.00,+8.00,+0.00,-4.00,+15.00,+1.00,+62.00,+37.00
-11.00,-90.00,-15.00,-1.00,+10.00,-15.00,-6.00,-30.00,+20.00,+11.00,+2.00,-11.00,+0.00,+14.00,-40.00,-16.00
+11.00,+60.00,+13.00,-1.00,-1.00,+16.00,+7.00,+35.00,+22.00,+9.00,+0.00,-7.00,-4.00,-2.00,-7.00,-5.00
-19.00,-25.00,-8.00,-6.00,-6.00,+4.00,+14.00,-47.00,-18.00,-19.00,-6.00,-5.00,+27.00,-2.00,-20.00,-4.00
-1.00,-85.00,+4.00,+2.00,+4.00,-43.00,-7.00,+13.00,-24.00,-16.00,+3.00,+10.00,+4.00,+3.00,+20.00,+33.00
+12.00,+40.00,+3.00,+0.00,+0.00,+23.00,-10.00,+4.00,+42.00,+24.00,-1.00,+7.00,+10.00,+28.00,+7.00,+14.00
-22.00,+45.00,-4.00,-1.00,-3.00,+32.00,-63.00,-33.00,-46.00,-21.00,+2.00,-1.00,-14.00,-19.00,-61.00,-19.00
+41.00,+35.00,+4.00,+0.00,-7.00,-11.00,+44.00,+79.00,+13.00,+2.00,-4.00,-7.00,-25.00,-27.00,+12.00,-10.00
-13.00,-8.00,-11.00,-1.00,+12.00,+29.00,-24.00,-85.00,-8.00,-13.00,+0.00,+5.00,+1.00,+3.00,+13.00,-27.00
-4.00,-3.00,+10.00,+1.00,+9.00,-40.00,+46.00,+80.00,+0.00,-2.00,-4.00,+5.00,+4.00,-8.00,+72.00,+20.00
-4.00,-95.00,-15.00,-3.00,-7.00,+49.00,-26.00,-108.00,-11.00,+0.00,+0.00,+0.00,+2.00,+10.00,+83.00,+4.00
+4.00,+23.00,-6.00,-1.00,+17.00,-8.00,+14.00,+55.00,+10.00,-1.00,-6.00,-4.00,+44.00,+11.00,+30.00,+47.00
-16.00,+13.00,-9.00,-2.00,+0.00,+14.00,-5.00,+16.00,+23.00,+21.00,+4.00,+2.00,+1.00,-20.00,-106.00,-18.00
+1.00,+7.00,+3.00,+3.00,+6.00,-10.00,+16.00,-89.00,-40.00,-20.00,+0.00,+1.00,-22.00,-48.00,+121.00,-39.00
-2.00,+59.00,+4.00,+0.00,-3.00,-12.00,-20.00,+15.00,-6.00,-2.00,+4.00,-5.00,-5.00,-27.00,-125.00,-4.00
-33.00,-78.00,-8.00,-3.00,-17.00,+20.00,-6.00,+11.00,+3.00,+4.00,-6.00,+0.00,+3.00,-6.00,+34.00,-16.00
+26.00,+85.00,+7.00,+1.00,+7.00,+8.00,+10.00,-35.00,+0.00,-12.00,-7.00,+1.00,-12.00,+11.00,-99.00,+0.00
-12.00,+21.00,-8.00,-4.00,+7.00,+4.00,+4.00,+65.00,+22.00,+2.00,-7.00,-4.00,-19.00,+14.00,-10.00,-10.00
+26.00,-56.00,+10.00,+2.00,-2.00,-32.00,-4.00,+53.00,-17.00,-18.00,+1.00,+1.00,+1.00,-1.00,+121.00,+35.00
-15.00,-27.00,-2.00,-2.00,-2.00,+60.00,+30.00,-45.00,+6.00,+15.00,+18.00,+9.00,+0.00,+30.00,-5.00,-6.00
-13.00,-13.00,-4.00,-2.00,-8.00,-28.00,-64.00,-95.00,-11.00,-21.00,-11.00,-9.00,-10.00,+0.00,-84.00,-21.00
-23.00,+1.00,-8.00,-2.00,-13.00,+24.00,-8.00,-1.00,+0.00,-12.00,-8.00,-2.00,+2.00,-11.00,+20.00,-13.00
-16.00,-29.00,-13.00,-3.00,-3.00,-63.00,+1.00,+88.00,+22.00,+25.00,+0.00,-1.00,-23.00,-26.00,-119.00,+33.00
+35.00,+53.00,+13.00,+4.00,+7.00,+34.00,-14.00,+22.00,+2.00,-25.00,-31.00,-10.00,+16.00,+64.00,+72.00,-21.00
+12.00,-15.00,+2.00,+1.00,-4.00,-7.00,+36.00,+57.00,-23.00,-29.00,-1.00,+1.00,-29.00,-84.00,+55.00,-2.00
-9.00,-27.00,-3.00,+1.00,+3.00,+12.00,-16.00,-5.00,-11.00,+29.00,+17.00,+0.00,+8.00,+32.00,-56.00,-24.00
-49.00,-33.00,-8.00,-3.00,-8.00,-5.00,+8.00,-75.00,-6.00,-17.00,-27.00,-10.00,-1.00,-32.00,-28.00,-17.00
-25.00,-36.00,+3.00,-1.00,+0.00,-45.00,-22.00,+56.00,+22.00,+38.00,+33.00,+5.00,+8.00,+12.00,+95.00,-20.00
+2.00,+57.00,+1.00,+1.00,-2.00,-24.00,+0.00,+44.00,+5.00,-3.00,+13.00,+5.00,+9.00,+20.00,+0.00,+14.00
+21.00,-3.00,-1.00,+2.00,+1.00,+33.00,+14.00,-42.00,-4.00,+1.00,-8.00,+1.00,-1.00,+3.00,-109.00,+53.00
-4.00,-25.00,+0.00,-4.00,+1.00,+0.00,-12.00,-93.00,+1.00,-28.00,-48.00,-2.00,+55.00,+17.00,+107.00,-19.00
-10.00,+5.00,+0.00,-4.00,-10.00,-37.00,-13.00,+10.00,-8.00,-26.00,-13.00,-9.00,-34.00,-56.00,-70.00,-12.00
+5.00,-44.00,-16.00,+3.00,+5.00,+50.00,+41.00,+100.00,+5.00,+13.00,+14.00,-2.00,+2.00,-11.00,+23.00,-22.00
+0.00,-21.00,-2.00,-8.00,-14.00,-70.00,+2.00,+9.00,-5.00,+7.00,+7.00,-3.00,-37.00,+14.00,+46.00,-25.00
+13.00,-10.00,+12.00,+3.00,+5.00,+33.00,-4.00,-89.00,+2.00,+7.00,+19.00,+16.00,+33.00,+20.00,-73.00,+12.00
+18.00,+41.00,+0.00,-3.00,+5.00,+24.00,+38.00,+58.00,-3.00,+15.00,+13.00,-2.00,-35.00,-29.00,-32.00,-12.00
-1.00,-41.00,-21.00,-9.00,-21.00,-79.00,-19.00,-88.00,-2.00,-14.00,-26.00,-7.00,+22.00,+9.00,+112.00,+24.00
-2.00,-23.00,-7.00,+5.00,+14.00,+45.00,-6.00,-73.00,+1.00,-34.00,-23.00,+0.00,+39.00,+12.00,+16.00,+13.00
-5.00,+20.00,+13.00,+3.00,+10.00,+6.00,+10.00,+1.00,-10.00,+32.00,+23.00,+5.00,-4.00,+49.00,+21.00,-30.00
-13.00,-35.00,-3.00,+1.00,-3.00,-22.00,-36.00,-128.00,-4.00,-26.00,+7.00,+5.00,-60.00,+19.00,-84.00,-15.00
+14.00,-12.00,+29.00,+2.00,-7.00,-21.00,+35.00,+108.00,+0.00,-1.00,-15.00,+0.00,-26.00,-65.00,+2.00,-50.00
-13.00,+51.00,+1.00,-2.00,-8.00,-71.00,-33.00,-41.00,-2.00,-13.00,-3.00,-2.00,+4.00,+32.00,+61.00,-11.00
-5.00,-29.00,-36.00,+0.00,+0.00,+45.00,+3.00,-17.00,-12.00,-13.00,+10.00,-5.00,-16.00,-67.00,-72.00,-33.00
+12.00,+21.00,+4.00,+2.00,-4.00,-9.00,-34.00,-32.00,-2.00,+2.00,-15.00,+0.00,+21.00,+16.00,+114.00,+62.00
-23.00,-35.00,-4.00,+3.00,+16.00,+53.00,+34.00,-114.00,+15.00,+24.00,+7.00,-7.00,+52.00,+57.00,-77.00,+12.00
+8.00,-17.00,+18.00,+0.00,-2.00,-43.00,-14.00,+92.00,-12.00,+0.00,+5.00,+3.00,-36.00,-22.00,-17.00,-17.00
-3.00,-5.00,-13.00,-9.00,-4.00,+24.00,+4.00,-17.00,+3.00,+1.00,+9.00,+1.00,+0.00,-6.00,+34.00,+65.00
-14.00,+3.00,+6.00,-1.00,-12.00,-78.00,-9.00,+62.00,+2.00,+7.00,+4.00,-1.00,+14.00,-19.00,-25.00,+8.00
-13.00,+3.00,-18.00,+1.00,-2.00,+42.00,-29.00,-128.00,-18.00,+21.00,+4.00,-2.00,+12.00,+28.00,-72.00,-98.00
+28.00,+13.00,+24.00,+4.00,+11.00,-87.00,+1.00,+118.00,+8.00,-30.00,-23.00,-1.00,+19.00,+14.00,+23.00,+79.00
+6.00,+4.00,+17.00,-4.00,+2.00,+14.00,+16.00,-34.00,+3.00,+44.00,+35.00,+0.00,-31.00,-45.00,+35.00,-28.00
+19.00,+24.00,-3.00,+0.00,+1.00,+36.00,-16.00,-1.00,+1.00,-27.00,-27.00,-6.00,-4.00,-8.00,+1.00,-13.00
+33.00,+2.00,-3.00,-1.00,+6.00,+76.00,+68.00,+84.00,+7.00,+4.00,-10.00,+4.00,-25.00,+41.00,+92.00,+19.00
-8.00,+12.00,-7.00,-5.00,-5.00,+85.00,-27.00,-128.00,-1.00,+8.00,-9.00,-10.00,+0.00,-30.00,-18.00,-17.00
+3.00,-12.00,-12.00,-1.00,-6.00,-47.00,+20.00,+90.00,+1.00,-10.00,-7.00,+7.00,-3.00,+35.00,+1.00,-17.00
-11.00,-11.00,-18.00,-1.00,+1.00,+34.00,-1.00,-29.00,-7.00,-14.00,-18.00,-11.00,-7.00,-12.00,-56.00,+39.00
-8.00,-1.00,+28.00,+3.00,+7.00,+68.00,+5.00,+17.00,+7.00,+32.00,+41.00,+1.00,-4.00,+8.00,+16.00,+62.00
+1.00,+5.00,-17.00,-3.00,-2.00,-28.00,+20.00,+65.00,-14.00,-26.00,+10.00,+7.00,+6.00,+8.00,+65.00,-15.00
+11.00,-4.00,+1.00,-4.00,-12.00,+5.00,-1.00,-101.00,-4.00,+28.00,-47.00,-14.00,+2.00,-36.00,-48.00,+52.00
-10.00,+20.00,+23.00,-3.00,-1.00,-102.00,-8.00,-74.00,-5.00,+11.00,+40.00,+3.00,+48.00,+27.00,-47.00,-83.00
-21.00,-2.00,-18.00,+4.00,+0.00,+54.00,-55.00,-37.00,+1.00,-25.00,-25.00,-1.00,-7.00,-22.00,-63.00,+110.00
-9.00,-7.00,-10.00,-4.00,+4.00,+26.00,+45.00,+63.00,+9.00,-3.00,+2.00,+0.00,-6.00,-10.00,-8.00,-38.00
-8.00,-8.00,+36.00,-4.00,-4.00,+1.00,-16.00,-31.00,-10.00,+6.00,+6.00,-2.00,-19.00,+14.00,+7.00,-52.00
-4.00,+10.00,+2.00,-1.00,-6.00,-16.00,-18.00,-108.00,+4.00,+101.00,+33.00,+5.00,+17.00,+15.00,+74.00,-22.00
+59.00,+12.00,+9.00,+3.00,+4.00,-54.00,+5.00,+127.00,-4.00,-51.00,+2.00,+4.00,+16.00,-27.00,-8.00,+15.00
-20.00,-10.00,-5.00,-3.00,-10.00,-50.00,-10.00,-1.00,-3.00,-1.00,-9.00,-5.00,-49.00,-22.00,-42.00,-11.00
+35.00,+10.00,+7.00,+10.00,+17.00,+29.00,+31.00,+45.00,-8.00,-66.00,-19.00,-5.00,+25.00,+69.00,+43.00,-7.00
-15.00,+1.00,-7.00,-4.00,-2.00,+12.00,-3.00,+24.00,+20.00,-11.00,+1.00,+6.00,+29.00,-31.00,+0.00,+59.00
-9.00,+23.00,-7.00,-3.00,-3.00,-31.00,-29.00,-100.00,+2.00,+78.00,+20.00,-4.00,-35.00,-19.00,+46.00,-23.00
-1.00,-13.00,-7.00,+0.00,-5.00,-28.00,-22.00,-65.00,+19.00,-2.00,+17.00,-2.00,+23.00,-6.00,-48.00,+63.00
-34.00,-13.00,-9.00,-2.00,-6.00,-80.00,-21.00,-35.00,-10.00,-19.00,-27.00,+3.00,+25.00,+55.00,+11.00,+13.00
-3.00,+13.00,+11.00,+1.00,+19.00,+124.00,+55.00,+76.00,-6.00,-19.00,-18.00,-9.00,-71.00,+34.00,-28.00,-35.00
-30.00,-6.00,-28.00,-8.00,-18.00,-78.00,-34.00,-75.00,-9.00,-48.00,-2.00,+7.00,+41.00,-29.00,-86.00,+61.00
-12.00,-15.00,-26.00,+1.00,+7.00,+39.00,-2.00,+5.00,-11.00,+38.00,-2.00,-4.00,-13.00,-29.00,-6.00,+31.00
-4.00,-23.00,+10.00,+4.00,-3.00,-66.00,-7.00,+32.00,-1.00,-14.00,-3.00,-8.00,-21.00,-4.00,+23.00,+53.00
-6.00,+25.00,+12.00,-10.00,-9.00,-3.00,-32.00,-105.00,-5.00,-12.00,-10.00,-2.00,+1.00,-16.00,+37.00,+25.00
+4.00,+3.00,+26.00,+3.00,+1.00,+1.00,-13.00,+123.00,+14.00,+10.00,-15.00,-1.00,+33.00,+52.00,+95.00,-52.00
+21.00,+18.00,+1.00,+5.00,+5.00,+48.00,+89.00,+78.00,-6.00,+33.00,+39.00,+10.00,-61.00,-16.00,+74.00,+2.00
+1.00,-10.00,-32.00,-5.00,+4.00,+9.00,-32.00,-57.00,-3.00,-5.00,+23.00,+4.00,+18.00,+47.00,-89.00,+5.00
+8.00,-13.00,-7.00,+4.00,-1.00,+10.00,-4.00,+32.00,-15.00,-6.00,+3.00,-4.00,-13.00,-26.00,+70.00,-35.00
+31.00,+4.00,+43.00,+5.00,-6.00,-83.00,-11.00,-73.00,+2.00,-58.00,-37.00,-6.00,-29.00,-21.00,-66.00,-73.00
+33.00,+14.00,+17.00,-1.00,+5.00,+59.00,+24.00,-19.00,+31.00,+32.00,+11.00,+0.00,+43.00,-7.00,-38.00,-47.00
+34.00,+10.00,+0.00,-1.00,-7.00,+122.00,+29.00,-1.00,+31.00,-20.00,-5.00,+7.00,-22.00,-4.00,+8.00,-21.00
+21.00,+4.00,-13.00,+0.00,+7.00,-19.00,+24.00,-86.00,+17.00,-13.00,-31.00,-1.00,-5.00,+11.00,-14.00,-24.00
-51.00,-11.00,-24.00,-9.00,-10.00,-23.00,+11.00,-109.00,-3.00,+56.00,+34.00,+0.00,+19.00,+27.00,-38.00,-13.00
-21.00,-10.00,+16.00,-2.00,-3.00,+35.00,-10.00,+27.00,-43.00,-3.00,-1.00,-1.00,+17.00,+19.00,+18.00,+14.00
-20.00,-3.00,-7.00,-4.00,-15.00,-128.00,+24.00,-94.00,-31.00,-43.00,-13.00,+0.00,-5.00,-39.00,-55.00,+61.00
-13.00,-13.00,-16.00,+2.00,+2.00,+38.00,-9.00,+21.00,-24.00,+15.00,-2.00,-4.00,+11.00,-22.00,-82.00,+86.00
+24.00,+2.00,+8.00,+3.00,+10.00,-53.00,+39.00,+12.00,-19.00,-29.00,-39.00,-13.00,-44.00,-13.00,-5.00,+6.00
-25.00,-5.00,-23.00,-4.00,-2.00,-58.00,-75.00,-45.00,-14.00,+6.00,+18.00,+0.00,+17.00,-9.00,-59.00,-81.00
+29.00,+33.00,+16.00,-5.00,+3.00,+4.00,+18.00,+46.00,+6.00,-21.00,-11.00,+2.00,-50.00,+14.00,+122.00,+8.00
-23.00,-31.00,-9.00,-3.00,-7.00,-98.00,-15.00,-69.00,-10.00,+0.00,-11.00,-2.00,+8.00,-7.00,-86.00,-48.00
-31.00,+9.00,+18.00,-5.00,-10.00,-58.00,-45.00,-54.00,+12.00,+22.00,+17.00,+12.00,+26.00,+19.00,+44.00,+20.00
+25.00,+13.00,-11.00,+4.00,+8.00,+45.00,+38.00,+47.00,-5.00,+18.00,+12.00,+4.00,-43.00,+7.00,+54.00,+29.00
-6.00,-7.00,-6.00,+1.00,-8.00,+21.00,-13.00,-8.00,-25.00,+36.00,+12.00,-7.00,+49.00,-19.00,+27.00,-52.00
+13.00,-9.00,-2.00,+2.00,+6.00,-4.00,-21.00,-3.00,-1.00,-39.00,+5.00,-2.00,-28.00,-74.00,-71.00,-40.00
+5.00,+18.00,+34.00,+4.00,+4.00,+67.00,+30.00,+0.00,+8.00,+11.00,-14.00,+7.00,-2.00,+14.00,+69.00,+2.00
-12.00,-3.00,-1.00,-6.00,-13.00,-79.00,-41.00,-117.00,+18.00,+12.00,+57.00,+4.00,+16.00,+14.00,-66.00,-5.00
-49.00,+6.00,+10.00,-3.00,+5.00,-59.00,+1.00,-6.00,+12.00,-40.00,-60.00,-17.00,+5.00,-3.00,-25.00,+11.00
+19.00,+1.00,+9.00,-4.00,-15.00,-6.00,+10.00,+61.00,-4.00,-82.00,-19.00,-6.00,-4.00,+28.00,+13.00,+6.00
-38.00,-7.00,+2.00,+1.00,+18.00,+124.00,-14.00,-9.00,-12.00,-38.00,-12.00,-3.00,-21.00,-25.00,-121.00,+30.00
-4.00,+7.00,-15.00,+1.00,-1.00,-4.00,+18.00,-106.00,+10.00,-2.00,-11.00,-5.00,+24.00,+14.00,+16.00,+25.00
+9.00,-8.00,+2.00,+6.00,+4.00,+32.00,+9.00,+25.00,+13.00,+62.00,+42.00,+4.00,-28.00,-66.00,-104.00,-58.00
+1.00,+0.00,-30.00,+0.00,+6.00,+46.00,+7.00,-46.00,+9.00,+48.00,+13.00,+9.00,+30.00,+9.00,+73.00,-4.00
-18.00,-25.00,-71.00,-3.00,-20.00,-28.00,-41.00,-48.00,+3.00,+31.00,-8.00,-13.00,-11.00,+29.00,+127.00,-59.00
+5.00,+20.00,+70.00,-4.00,+0.00,+8.00,+24.00,+70.00,+2.00,-30.00,-43.00,-9.00,-45.00,-51.00,-80.00,-28.00
-27.00,-1.00,-14.00,+4.00,+10.00,+38.00,-49.00,-73.00,-13.00,+19.00,+17.00,-2.00,+7.00,-1.00,-108.00,+97.00
+15.00,+0.00,-30.00,+4.00,+2.00,+59.00,+48.00,+92.00,+9.00,-72.00,+10.00,+5.00,-21.00,+6.00,+112.00,-30.00
-32.00,+18.00,+6.00,-9.00,-3.00,-15.00,+42.00,+68.00,-7.00,-2.00,-16.00,-1.00,+108.00,+40.00,+52.00,+27.00
-8.00,+6.00,+4.00,-5.00,-9.00,-97.00,-31.00,+17.00,-16.00,-71.00,-38.00,-10.00,-6.00,-20.00,+11.00,-31.00
-1.00,+6.00,+14.00,+2.00,-1.00,+61.00,+34.00,+1.00,-12.00,-29.00,+38.00,+4.00,+17.00,-1.00,+73.00,-60.00
-22.00,-4.00,+4.00,-1.00,-2.00,+11.00,+6.00,-14.00,+8.00,+47.00,+10.00,+4.00,-65.00,+41.00,-48.00,+122.00
+1.00,-35.00,-34.00,+5.00,+9.00,+5.00,-8.00,+31.00,+4.00,+46.00,-40.00,-2.00,+48.00,-64.00,-94.00,+34.00
-36.00,-13.00,-71.00,-5.00,-14.00,-91.00,-21.00,-84.00,+22.00,+50.00,+4.00,-5.00,-36.00,+64.00,-22.00,-16.00
-45.00,+3.00,+21.00,-6.00,+7.00,+76.00,-10.00,-12.00,+8.00,-68.00,-9.00,+1.00,-31.00,-51.00,+127.00,+3.00
-9.00,-15.00,+0.00,+3.00,+1.00,-74.00,-8.00,+54.00,+2.00,+55.00,+39.00,+7.00,+61.00,+21.00,+76.00,-56.00
+46.00,+6.00,+3.00,-12.00,-10.00,+74.00,+46.00,+123.00,+2.00,-97.00,-2.00,-2.00,+1.00,-36.00,-42.00,-102.00
+9.00,+16.00,+33.00,+4.00,-2.00,-22.00,-41.00,-128.00,+15.00,+21.00,-16.00,+13.00,+22.00,+38.00,-30.00,+63.00
+47.00,-16.00,-52.00,-5.00,-6.00,-32.00,-1.00,+62.00,+9.00,+36.00,+24.00,+1.00,+20.00,-1.00,+13.00,+59.00
-11.00,+3.00,+53.00,-7.00,-14.00,-32.00,-32.00,-128.00,-11.00,+4.00,+4.00,-4.00,-27.00,+41.00,+112.00,+89.00
+36.00,-2.00,-3.00,-1.00,+12.00,-1.00,+21.00,-16.00,-27.00,+78.00,+29.00,-11.00,-25.00,-41.00,-107.00,-10.00
+49.00,-13.00,+27.00,+7.00,+6.00,-42.00,+21.00,+7.00,+9.00,-24.00,-37.00,-9.00,-28.00,+30.00,+5.00,-123.00
+41.00,-8.00,-14.00,+1.00,-4.00,+39.00,-15.00,-21.00,+4.00,-14.00,-12.00,+5.00,-7.00,+30.00,-73.00,-9.00
+58.00,-4.00,+6.00,+0.00,+1.00,-71.00,+25.00,+127.00,+1.00,+28.00,-16.00,-2.00,-11.00,-63.00,-29.00,-33.00
-9.00,+16.00,-23.00,-3.00,+6.00,+60.00,-39.00,-128.00,+4.00,-16.00,+29.00,+6.00,+57.00,+108.00,+31.00,+46.00
+28.00,-27.00,+25.00,-1.00,-3.00,+19.00,+32.00,+61.00,-5.00,+50.00,+52.00,+4.00,+26.00,-113.00,+15.00,+69.00
+10.00,+25.00,+38.00,-1.00,-2.00,-64.00,+1.00,-85.00,+1.00,-38.00,-57.00,-19.00,-55.00,-9.00,+12.00,-91.00
+30.00,+1.00,-24.00,+6.00,+10.00,-53.00,+17.00,+12.00,+16.00,+12.00,+0.00,+7.00,+30.00,+17.00,-6.00,-51.00
-24.00,-18.00,-21.00,+2.00,-5.00,-47.00,-12.00,+26.00,+4.00,+11.00,-2.00,-6.00,-88.00,-37.00,+87.00,+1.00
+9.00,-10.00,-19.00,-3.00,-4.00,+18.00,-21.00,-84.00,-21.00,-59.00,-18.00,-2.00,+57.00,+60.00,-41.00,+46.00
-39.00,-30.00,-29.00,-13.00,-19.00,-95.00,-41.00,-13.00,+19.00,+22.00,+5.00,+7.00,+86.00,+77.00,+101.00,-51.00
+2.00,+24.00,+39.00,+1.00,-8.00,-46.00,-35.00,-66.00,-22.00,+17.00,-12.00,-7.00,-23.00,-43.00,-55.00,+32.00
-19.00,+3.00,+14.00,-3.00,-3.00,+6.00,-2.00,-89.00,+1.00,-36.00,+35.00,+8.00,-2.00,+3.00,-60.00,-20.00
-3.00,-12.00,-26.00,+5.00,+29.00,+118.00,+23.00,+110.00,-12.00,+20.00,+18.00,-8.00,-24.00,-27.00,+50.00,-16.00
-61.00,-21.00,-45.00,-7.00,-14.00,-21.00,+1.00,+55.00,-15.00,-47.00,+19.00,+8.00,+24.00,-14.00,+35.00,+104.00
-28.00,-1.00,-6.00,-6.00,-3.00,+55.00,+13.00,-102.00,+5.00,-49.00,-57.00,-12.00,+79.00,+4.00,-112.00,-91.00
-6.00,+14.00,+10.00,+2.00,-5.00,-111.00,-4.00,+60.00,+2.00,+58.00,+39.00,+11.00,-26.00,+36.00,+34.00,+62.00
+10.00,+7.00,+14.00,+3.00,-6.00,-12.00,-16.00,-97.00,-2.00,-39.00,-54.00,-12.00,+3.00,-43.00,-77.00,-57.00
+62.00,+19.00,+7.00,-3.00,+18.00,+11.00,-2.00,+99.00,+5.00,+76.00,+49.00,+5.00,-12.00,+20.00,-34.00,-59.00
-68.00,-5.00,-14.00,-9.00,-12.00,-49.00,-18.00,+7.00,-1.00,-74.00,-27.00,-6.00,-5.00,-31.00,+61.00,+16.00
-22.00,+1.00,+7.00,+0.00,-14.00,-36.00,+3.00,+13.00,+10.00,-27.00,-5.00,-1.00,-44.00,-14.00,-14.00,-51.00
-22.00,+3.00,-51.00,-3.00,-12.00,-92.00,-41.00,-87.00,-16.00,-30.00,+3.00,+0.00,-43.00,+75.00,-42.00,-23.00
+58.00,-1.00,+30.00,+5.00,+12.00,+38.00,+74.00,+127.00,+20.00,+127.00,+36.00,+18.00,-75.00,-69.00,+64.00,+32.00
+54.00,-12.00,-41.00,+2.00,+0.00,-30.00,-4.00,+44.00,-14.00,-105.00,-30.00,-6.00,+28.00,+77.00,+42.00,+12.00
+6.00,+4.00,+71.00,-7.00,-3.00,-88.00,-12.00,-58.00,+2.00,+57.00,+33.00,+7.00,-91.00,-46.00,-54.00,+23.00
+13.00,+21.00,+5.00,+1.00,+8.00,+68.00,+57.00,+69.00,+13.00,-63.00,-22.00,-2.00,-40.00,-37.00,+64.00,+92.00
+3.00,-14.00,-18.00,+7.00,-4.00,-53.00,-90.00,-128.00,+18.00,-12.00,-25.00,-9.00,-14.00,+37.00,-3.00,-96.00
+47.00,+10.00,+11.00,+2.00,+1.00,-54.00,+19.00,+1.00,+48.00,+47.00,-17.00,-6.00,-4.00,+9.00,-13.00,+61.00
+18.00,-34.00,-43.00,+6.00,+17.00,+50.00,-3.00,-36.00,+27.00,+26.00,+1.00,-3.00,-8.00,-78.00,+91.00,-25.00
-7.00,+10.00,+44.00,-8.00,-11.00,-57.00,-2.00,+55.00,+46.00,+3.00,+3.00,+1.00,+127.00,+65.00,-9.00,+11.00
-19.00,+13.00,+0.00,+0.00,+3.00,+43.00,+9.00,-40.00,+4.00,-44.00,-11.00,-9.00,-123.00,-124.00,-48.00,-39.00
-27.00,-12.00,+2.00,-5.00,-7.00,+14.00,-3.00,+7.00,-11.00,+2.00,+23.00,+15.00,+47.00,+61.00,+14.00,+43.00
+27.00,-29.00,-63.00,+11.00,+15.00,+16.00,+32.00,-38.00,-54.00,-64.00,-55.00,-17.00,-31.00,+28.00,+26.00,+18.00
-32.00,+49.00,+78.00,-11.00,-13.00,+3.00,-47.00,-1.00,-41.00,-28.00,+36.00,-4.00,+16.00,+74.00,+72.00,+21.00
-94.00,-13.00,-38.00,-4.00,-2.00,-58.00,+37.00,+18.00,-33.00,-52.00,-40.00,-22.00,+20.00,-29.00,-74.00,+11.00
-82.00,+12.00,+40.00,+0.00,+16.00,+82.00,-27.00,-128.00,-13.00,+77.00,-22.00,+0.00,-81.00,-65.00,-54.00,+10.00
-12.00,-10.00,+29.00,+13.00,+7.00,-55.00,+17.00,+62.00,-8.00,-10.00,-3.00,-5.00,+34.00,-13.00,+46.00,+3.00
-7.00,-26.00,-31.00,+0.00,+2.00,-18.00,+8.00,-99.00,-3.00,+66.00,-25.00,-5.00,+6.00,+13.00,+33.00,+40.00
+51.00,-11.00,+0.00,-3.00,-1.00,-53.00,-12.00,-111.00,+4.00,-28.00,+22.00,+1.00,+74.00,+111.00,-49.00,-43.00
+43.00,-6.00,+1.00,-5.00,-18.00,+21.00,+4.00,+16.00,-11.00,+58.00,+35.00,-4.00,-44.00,-90.00,+28.00,-48.00
+57.00,+3.00,+6.00,-2.00,+14.00,+93.00,+16.00,-64.00,-11.00,-79.00,-40.00,-11.00,+18.00,+1.00,-60.00,-9.00
+49.00,+35.00,+26.00,-1.00,-7.00,+8.00,-11.00,-26.00,-16.00,+0.00,-13.00,+1.00,+99.00,-73.00,-31.00,+32.00
+57.00,+41.00,+22.00,+1.00,-13.00,-37.00,+7.00,-77.00,-2.00,+41.00,+6.00,+2.00,+18.00,+48.00,+41.00,-8.00
+22.00,-23.00,+27.00,-5.00,-7.00,+12.00,-13.00,-11.00,-8.00,+6.00,+17.00,+0.00,+99.00,+40.00,+29.00,-18.00
-28.00,-8.00,+4.00,-17.00,-26.00,-112.00,-28.00,+4.00,+20.00,+52.00,+6.00,-1.00,-62.00,+76.00,-86.00,-30.00
-42.00,-38.00,-36.00,+8.00,+23.00,+74.00,+10.00,+21.00,-54.00,-28.00,+25.00,+10.00,+49.00,-19.00,+93.00,-4.00
-121.00,-12.00,+8.00,-5.00,-6.00,+2.00,-2.00,-84.00,+60.00,+0.00,-7.00,-4.00,+82.00,-12.00,-29.00,+49.00
-58.00,-3.00,-21.00,-6.00,-23.00,-65.00,-54.00,-4.00,-97.00,-58.00,-9.00,-2.00,-44.00,-49.00,-30.00,-63.00
+3.00,+18.00,+3.00,-8.00,-16.00,-92.00,+9.00,+46.00,+23.00,+26.00,+67.00,+12.00,+7.00,-15.00,+19.00,-7.00
-32.00,-27.00,-46.00,+1.00,+11.00,+40.00,+19.00,-55.00,+1.00,+25.00,-57.00,-6.00,-50.00,+52.00,-28.00,-34.00
+24.00,+9.00,+28.00,-4.00,-13.00,-31.00,-31.00,+81.00,+0.00,-57.00,-24.00,-8.00,-1.00,-3.00,+17.00,+9.00
+14.00,-3.00,+9.00,+11.00,+23.00,+20.00,+19.00,-24.00,+44.00,-8.00,-6.00,+12.00,-18.00,+42.00,+24.00,-36.00
+29.00,-8.00,-8.00,-4.00,-5.00,-40.00,-21.00,+79.00,+8.00,-16.00,+1.00,-8.00,+83.00,+31.00,+13.00,+7.00
-68.00,-65.00,-31.00,-9.00,-30.00,-48.00,-17.00,-109.00,+5.00,+89.00,+37.00,+11.00,-112.00,-59.00,-23.00,+18.00
+54.00,+28.00,-10.00,+4.00,+22.00,+67.00,-5.00,+98.00,-22.00,+30.00,+21.00,+5.00,+32.00,+12.00,-52.00,+18.00
-39.00,+97.00,-11.00,-2.00,-23.00,-74.00,-26.00,-55.00,+1.00,-40.00,-35.00,-5.00,-16.00,+30.00,+6.00,+6.00
-20.00,-67.00,+31.00,-6.00,-12.00,+40.00,+7.00,-10.00,-22.00,-1.00,-10.00,+0.00,+102.00,-3.00,-2.00,+65.00
+11.00,+111.00,+35.00,+7.00,+8.00,-7.00,+13.00,+10.00,+9.00,+60.00,+34.00,-2.00,+4.00,-50.00,-54.00,-5.00
-22.00,-113.00,+32.00,+1.00,-5.00,-46.00,+42.00,+28.00,-30.00,-2.00,+5.00,+5.00,-38.00,+57.00,+90.00,-29.00
+52.00,-58.00,-1.00,+1.00,+24.00,+109.00,+38.00,-8.00,+5.00,+3.00,-28.00,-20.00,-1.00,-78.00,-101.00,+51.00
-21.00,+12.00,+2.00,+1.00,-1.00,-39.00,-6.00,-87.00,-18.00,-33.00,+56.00,+17.00,+8.00,+59.00,+76.00,-3.00
-17.00,-31.00,-25.00,-6.00,-8.00,+28.00,-15.00,-64.00,-12.00,-82.00,-90.00,-25.00,+15.00,-67.00,-54.00,-33.00
-12.00,-18.00,-5.00,-6.00,-16.00,-57.00,-13.00,-40.00,+15.00,+100.00,+59.00,+18.00,+33.00,+31.00,-4.00,-31.00
-43.00,-24.00,-76.00,+3.00,+8.00,+18.00,+23.00,-59.00,+2.00,+92.00,+70.00,+2.00,+20.00,+46.00,+9.00,+42.00
+38.00,-37.00,-7.00,+0.00,-3.00,-37.00,-11.00,+46.00,-5.00,-97.00,-57.00,-9.00,+40.00,+20.00,-36.00,-14.00
-22.00,+45.00,+54.00,-4.00,-5.00,-97.00,-30.00,-7.00,+28.00,-18.00,+30.00,+3.00,-55.00,-52.00,+2.00,+81.00
+56.00,+47.00,-7.00,+8.00,+16.00,+80.00,+54.00,+87.00,-52.00,+14.00,-65.00,-13.00,+23.00,-6.00,-5.00,-9.00
+3.00,-3.00,-11.00,-1.00,+11.00,+61.00,+25.00,+66.00,+11.00,-15.00,+24.00,+2.00,+10.00,-16.00,-44.00,+49.00
+13.00,+23.00,+2.00,-2.00,+12.00,+107.00,-36.00,-78.00,+11.00,+63.00,-15.00,+1.00,+24.00,+51.00,+27.00,+16.00
+42.00,-15.00,+1.00,+10.00,-2.00,-44.00,+26.00,+109.00,+23.00,-11.00,+36.00,+20.00,+5.00,-1.00,+102.00,-70.00
-6.00,+8.00,+4.00,-6.00,-10.00,-9.00,-23.00,-30.00,-16.00,-48.00,-6.00,+3.00,+0.00,+41.00,-84.00,+3.00
+0.00,+15.00,+38.00,-7.00,-8.00,-64.00,-19.00,-107.00,+22.00,+92.00,+72.00,-2.00,-36.00,-78.00,+127.00,+49.00
+43.00,-12.00,-60.00,+10.00,+9.00,+52.00,+32.00,+102.00,-3.00,-81.00,-22.00,+1.00,-62.00,-90.00,-13.00,-41.00
-11.00,-32.00,-64.00,-11.00,-13.00,-31.00,-17.00,+52.00,-19.00,+7.00,+41.00,-2.00,-59.00,-40.00,-41.00,-55.00
-57.00,+4.00,+84.00,+0.00,-15.00,-122.00,-30.00,+20.00,+5.00,-68.00,-85.00,-23.00,-50.00,+4.00,-44.00,+58.00
-30.00,-57.00,-9.00,+11.00,+23.00,-8.00,+54.00,+82.00,+10.00,-57.00,-10.00,+14.00,+79.00,+56.00,+44.00,-25.00
+48.00,+122.00,-6.00,-3.00,-5.00,-10.00,-36.00,-13.00,-10.00,+3.00,-11.00,-5.00,-48.00,-7.00,-59.00,-9.00
-16.00,-60.00,+0.00,-2.00,+6.00,+8.00,+38.00,-10.00,+6.00,+65.00,+7.00,-3.00,-21.00,-5.00,-23.00,-26.00
-9.00,-52.00,-32.00,-1.00,+0.00,+57.00,-28.00,+15.00,-9.00,-20.00,+28.00,+4.00,-22.00,-5.00,+22.00,+20.00
+51.00,+30.00,-2.00,-3.00,-12.00,-84.00,+4.00,+91.00,-2.00,+11.00,+10.00,-4.00,-17.00,-26.00,+17.00,-94.00
-82.00,+3.00,+29.00,+10.00,+12.00,-23.00,-13.00,-103.00,-9.00,-46.00,-36.00,-5.00,-9.00,-35.00,-34.00,+3.00
+105.00,-41.00,-111.00,+8.00,+13.00,+10.00,+25.00,+63.00,+2.00,-26.00,-17.00,+2.00,+20.00,+40.00,+34.00,-47.00
+3.00,+42.00,+73.00,+1.00,+9.00,-44.00,+12.00,-16.00,+0.00,+13.00,+4.00,+0.00,-40.00,+36.00,+114.00,+54.00
+9.00,-35.00,+2.00,+4.00,+25.00,+62.00,+25.00,-93.00,-3.00,+55.00,+23.00,+1.00,-80.00,-43.00,-89.00,-2.00
+19.00,+44.00,+50.00,-16.00,-26.00,-10.00,-10.00,+70.00,+19.00,+62.00,+81.00,+10.00,+53.00,+48.00,+95.00,-25.00
+6.00,+39.00,+24.00,+1.00,+2.00,+14.00,+3.00,-60.00,-35.00,-4.00,-77.00,-28.00,+52.00,+24.00,-36.00,+12.00
+28.00,-11.00,-51.00,-1.00,+11.00,+20.00,-2.00,-32.00,-21.00,+39.00,+30.00,+3.00,+20.00,-76.00,+13.00,-24.00
-5.00,-12.00,-19.00,+2.00,-12.00,-25.00,-1.00,+12.00,-15.00,-5.00,-38.00,-5.00,+103.00,+19.00,-3.00,+76.00
-75.00,-51.00,-57.00,-4.00,-11.00,-30.00,-15.00,-45.00,+1.00,-56.00,-29.00,+3.00,+24.00,+2.00,+72.00,+36.00
-20.00,-31.00,+54.00,-7.00,-5.00,-17.00,-14.00,-77.00,+11.00,+10.00,+5.00,-5.00,-16.00,+100.00,-12.00,+44.00
+9.00,+103.00,+2.00,+4.00,+6.00,+27.00,+34.00,-62.00,+11.00,+3.00,+40.00,+9.00,-2.00,-118.00,-20.00,-86.00
-72.00,+0.00,+9.00,-1.00,+0.00,+16.00,-11.00,+69.00,-11.00,+35.00,+33.00,+12.00,+23.00,+63.00,-62.00,-11.00
+14.00,-13.00,-3.00,-4.00,-6.00,-56.00,+7.00,-30.00,+5.00,+33.00,+2.00,-13.00,-53.00,-50.00,-54.00,+26.00
-16.00,-43.00,-59.00,+5.00,+9.00,-72.00,-42.00,+53.00,-1.00,-35.00,-7.00,+2.00,-13.00,+16.00,+40.00,-25.00
+15.00,-72.00,+7.00,-5.00,+4.00,+81.00,+44.00,-40.00,+11.00,+34.00,-6.00,-7.00,-34.00,+8.00,+24.00,-15.00
+45.00,+104.00,+8.00,-1.00,-18.00,-44.00,-4.00,-74.00,+2.00,-15.00,+38.00,+8.00,-32.00,-34.00,-61.00,-25.00
-23.00,-63.00,+39.00,+4.00,+10.00,-14.00,-10.00,-33.00,+8.00,-14.00,-35.00,-7.00,+36.00,+47.00,+70.00,+31.00
+11.00,+6.00,-30.00,-4.00,+6.00,+78.00,+12.00,+8.00,+30.00,+55.00,+36.00,+10.00,+49.00,+41.00,+23.00,-8.00
-46.00,+34.00,+38.00,-2.00,-11.00,-128.00,-41.00,-26.00,+4.00,-31.00,+4.00,-10.00,+89.00,-27.00,-1.00,-1.00
+80.00,+2.00,+7.00,+0.00,-1.00,+64.00,+0.00,+88.00,-23.00,-68.00,-71.00,-18.00,-74.00,-31.00,-84.00,-61.00
-5.00,-27.00,-32.00,+5.00,-1.00,+0.00,+31.00,+40.00,+7.00,+37.00,+14.00,+10.00,+20.00,-3.00,+18.00,-27.00
+18.00,+9.00,+12.00,+3.00,+6.00,-20.00,-17.00,-35.00,-5.00,-42.00,-10.00,-5.00,-30.00,-29.00,+50.00,+6.00
-42.00,-40.00,-30.00,-3.00,+8.00,+65.00,-9.00,+11.00,-2.00,+79.00,+31.00,+3.00,+113.00,+86.00,+31.00,+5.00
+42.00,+39.00,+18.00,-1.00,-6.00,-76.00,-22.00,+18.00,+8.00,-67.00,-21.00,-6.00,-101.00,-83.00,-45.00,-31.00
-62.00,+7.00,-22.00,-9.00,-1.00,+90.00,+35.00,+4.00,-27.00,-69.00,-62.00,-7.00,+73.00,+1.00,-56.00,-21.00
-41.00,+9.00,+34.00,+4.00,+3.00,-79.00,-41.00,-38.00,+21.00,+53.00,+39.00,+17.00,+79.00,-13.00,+6.00,+55.00
+25.00,-37.00,-39.00,+0.00,-10.00,-64.00,+37.00,+99.00,+14.00,-9.00,+29.00,+1.00,-64.00,+0.00,+39.00,-22.00
+61.00,-72.00,-29.00,-7.00,+3.00,-6.00,+16.00,-126.00,+10.00,-34.00,-57.00,-13.00,-1.00,+31.00,+56.00,+8.00
-16.00,+0.00,+54.00,+3.00,-1.00,+20.00,-12.00,-35.00,-5.00,+33.00,+16.00,+9.00,-49.00,-30.00,-60.00,-29.00
+19.00,+120.00,+18.00,+1.00,-7.00,+19.00,+26.00,+30.00,+2.00,-85.00,-63.00,-12.00,+35.00,+58.00,+11.00,+28.00
+42.00,-31.00,-25.00,+4.00,+11.00,+53.00,+0.00,-52.00,+4.00,+34.00,+18.00,+4.00,-3.00,-14.00,+9.00,+5.00
-76.00,-10.00,+40.00,-6.00,+3.00,+35.00,-33.00,-34.00,+1.00,+62.00,+18.00,+3.00,+120.00,+98.00,+35.00,+0.00
+44.00,-2.00,-52.00,-12.00,-17.00,-27.00,+2.00,+78.00,-26.00,-39.00,+10.00,+3.00,+74.00,-2.00,+42.00,+10.00
+5.00,-44.00,-7.00,+11.00,+19.00,+70.00,+6.00,-61.00,-5.00,-1.00,+27.00,+2.00,-19.00,-97.00,-73.00,+16.00
+38.00,+91.00,+55.00,+12.00,+4.00,-39.00,+21.00,+48.00,+18.00,+42.00,-10.00,+3.00,+43.00,-27.00,-26.00,+2.00
+39.00,-42.00,-33.00,+8.00,-4.00,+11.00,+7.00,+82.00,-34.00,-17.00,+46.00,+8.00,+65.00,+45.00,-60.00,+21.00
-10.00,+2.00,+7.00,-2.00,+5.00,-51.00,+3.00,-34.00,+55.00,+4.00,-64.00,-18.00,-111.00,-3.00,+86.00,-39.00
-12.00,-9.00,-5.00,-10.00,-19.00,-62.00,-16.00,+35.00,-33.00,-47.00,+21.00,+1.00,-37.00,+29.00,-59.00,-8.00
-45.00,+7.00,-17.00,-7.00,+14.00,+28.00,+16.00,-37.00,+42.00,-15.00,+28.00,+2.00,+57.00,+7.00,+37.00,+115.00
+2.00,+27.00,+24.00,-2.00,-24.00,-95.00,-27.00,+58.00,-36.00,-11.00,-54.00,-4.00,-33.00,-59.00,+103.00,-56.00
+37.00,-46.00,-1.00,+10.00,+11.00,+36.00,-28.00,-32.00,-20.00,+87.00,+44.00,+0.00,+1.00,+13.00,-51.00,-44.00
+46.00,-31.00,-20.00,-8.00,-16.00,+53.00,+4.00,-19.00,-5.00,-52.00,-37.00,-9.00,-48.00,+80.00,+19.00,+36.00
-58.00,+66.00,+8.00,+8.00,-1.00,-63.00,-24.00,-40.00,-18.00,-42.00,+29.00,-5.00,-128.00,-128.00,-50.00,+9.00
+69.00,-39.00,-13.00,-1.00,+18.00,+84.00,+26.00,-83.00,+48.00,+36.00,-35.00,-4.00,+65.00,+86.00,+83.00,+32.00
-19.00,-3.00,+6.00,+8.00,-7.00,-68.00,-12.00,+77.00,-21.00,-6.00,+1.00,+6.00,-6.00,-40.00,-45.00,-17.00
-90.00,-19.00,-6.00,-13.00,-11.00,-33.00,+0.00,-40.00,+12.00,+9.00,+36.00,+6.00,+10.00,-5.00,+64.00,-12.00
+93.00,+21.00,+19.00,-5.00,-13.00,+14.00,-29.00,-13.00,-15.00,-11.00,-56.00,-6.00,+114.00,+127.00,-49.00,+35.00
-125.00,+80.00,+4.00,+8.00,+9.00,-13.00,+21.00,-1.00,-3.00,-29.00,+33.00,+5.00,-63.00,-13.00,+79.00,-68.00
+11.00,-14.00,-5.00,-1.00,+7.00,+51.00,-13.00,-107.00,+15.00,-11.00,+11.00,-2.00,-61.00,-58.00,-33.00,+91.00
+121.00,+80.00,+39.00,+4.00,+18.00,+105.00,+41.00,+106.00,+5.00,+69.00,+31.00,+5.00,+23.00,-72.00,-78.00,-34.00
-74.00,-58.00,-52.00,-9.00,-20.00,-73.00,-23.00,-45.00,-27.00,-103.00,-40.00,-9.00,-77.00,+18.00,+25.00,-34.00
+44.00,+45.00,+39.00,-9.00,-21.00,-82.00,-9.00,+30.00,-17.00,+3.00,-38.00,-3.00,-25.00,+34.00,+42.00,-7.00
-7.00,-10.00,-15.00,+7.00,+41.00,+127.00,+11.00,+25.00,-20.00,+28.00,+35.00,+0.00,-82.00,+0.00,+57.00,+48.00
+35.00,-52.00,-6.00,-4.00,-19.00,-76.00,-11.00,+4.00,+37.00,-17.00,+12.00,+4.00,+108.00,+65.00,-14.00,-64.00
-34.00,+11.00,-6.00,+4.00,-2.00,-58.00,-23.00,-69.00,+15.00,+24.00,-9.00,+2.00,+47.00,+60.00,+40.00,+15.00
-10.00,-13.00,-10.00,-3.00,+5.00,-23.00,-13.00,+0.00,-5.00,-31.00,+20.00,+6.00,-17.00,-89.00,-84.00,+17.00
-17.00,-13.00,+17.00,-9.00,-39.00,-117.00,+14.00,-33.00,+3.00,+103.00,+39.00,-9.00,-24.00,+37.00,-10.00,+29.00
+7.00,+41.00,-1.00,+1.00,+14.00,+74.00,-14.00,+31.00,-37.00,-74.00,-96.00,-17.00,+41.00,+41.00,+92.00,+1.00
+17.00,-45.00,-18.00,-3.00,-8.00,-21.00,+13.00,+5.00,-3.00,+49.00,+64.00,+6.00,+50.00,+40.00,-128.00,-58.00
-45.00,-54.00,-34.00,+2.00,+19.00,+51.00,+0.00,+83.00,+24.00,-64.00,-32.00,-15.00,-21.00,-21.00,+41.00,+69.00
-37.00,+31.00,+43.00,-2.00,-3.00,-66.00,+11.00,+63.00,+1.00,-24.00,+10.00,+7.00,+73.00,-20.00,+26.00,-18.00
+26.00,+25.00,-11.00,+3.00,+10.00,-16.00,+1.00,-81.00,+19.00,+39.00,+24.00,+6.00,+7.00,-34.00,-24.00,+73.00
-18.00,-31.00,+5.00,+1.00,+1.00,+47.00,+1.00,-83.00,-2.00,-2.00,-22.00,-3.00,-65.00,-32.00,+52.00,+7.00
+69.00,-36.00,-29.00,-4.00,-6.00,+112.00,+21.00,-27.00,-8.00,-2.00,+34.00,+9.00,-60.00,+87.00,+59.00,+31.00
-50.00,-16.00,+32.00,-11.00,-12.00,-33.00,-28.00,-5.00,+24.00,+16.00,+17.00,+11.00,+53.00,-42.00,+10.00,-67.00
+16.00,-27.00,+28.00,+3.00,+2.00,+21.00,+14.00,+22.00,-10.00,+81.00,-17.00,-8.00,-90.00,-86.00,-10.00,-20.00
-7.00,-43.00,-39.00,-10.00,-3.00,+27.00,+8.00,-15.00,-56.00,-99.00,-24.00,-3.00,+83.00,+29.00,-45.00,+48.00
-48.00,+10.00,+36.00,-12.00,-28.00,-93.00,-39.00,+21.00,-9.00,+9.00,-33.00,-17.00,-24.00,+58.00,+80.00,-56.00
-51.00,-31.00,-79.00,-1.00,-25.00,-103.00,-16.00,-80.00,-9.00,+24.00,-19.00,-1.00,+33.00,-21.00,-73.00,+52.00
+31.00,-11.00,+63.00,+4.00,+9.00,+30.00,+41.00,+40.00,-31.00,-25.00,+40.00,+7.00,+57.00,-36.00,+61.00,-83.00
-7.00,+52.00,+3.00,+3.00,+15.00,-38.00,-13.00,+127.00,+51.00,+54.00,+38.00,+2.00,-65.00,-61.00,+85.00,-83.00
-11.00,-55.00,-8.00,+3.00,+12.00,+63.00,+26.00,-22.00,+3.00,+23.00,+17.00,-2.00,+86.00,+38.00,-65.00,+14.00
+87.00,+78.00,-1.00,-2.00,+0.00,+38.00,-14.00,-56.00,-32.00,-110.00,-36.00,-8.00,-46.00,+79.00,-74.00,+38.00
-128.00,-49.00,-19.00,-1.00,-6.00,-111.00,-52.00,-54.00,+26.00,+42.00,-27.00,-17.00,-43.00,-50.00,-47.00,-31.00
-2.00,-61.00,-51.00,-3.00,-1.00,+52.00,+49.00,+71.00,-1.00,+96.00,+35.00,-6.00,+2.00,-31.00,-81.00,+32.00
-61.00,+39.00,-7.00,+1.00,+7.00,-100.00,-27.00,-101.00,-3.00,-103.00,-88.00,-12.00,+91.00,-2.00,+22.00,-92.00
-28.00,+103.00,+41.00,-1.00,-2.00,+24.00,+33.00,+53.00,-12.00,+47.00,+50.00,+3.00,-91.00,-33.00,+36.00,+28.00
+9.00,-58.00,+4.00,+3.00,+6.00,+37.00,-43.00,-120.00,-3.00,-108.00,-65.00,+15.00,+65.00,+115.00,-39.00,+0.00
+85.00,+6.00,-6.00,-6.00,-4.00,+21.00,+9.00,+114.00,-4.00,-61.00,-69.00,-9.00,-44.00,-41.00,-50.00,-23.00
-87.00,+42.00,-11.00,+1.00,-3.00,+9.00,-36.00,-102.00,+40.00,+97.00,+119.00,+13.00,-67.00,-51.00,-35.00,+33.00
+55.00,-112.00,-69.00,+8.00,+24.00,+44.00,+57.00,+91.00,-2.00,-27.00,-70.00,-15.00,+2.00,-6.00,-32.00,-56.00
-70.00,+70.00,+32.00,-9.00,-21.00,-81.00,-12.00,-8.00,-18.00,+24.00,+6.00,-12.00,+30.00,+7.00,+29.00,-48.00
-30.00,-67.00,+11.00,-8.00,-10.00,+41.00,-27.00,-111.00,-4.00,+4.00,+2.00,+8.00,+26.00,+47.00,-52.00,+18.00
+56.00,-31.00,+8.00,-13.00,-16.00,-23.00,-9.00,-9.00,-22.00,-46.00,+40.00,+14.00,-33.00,-38.00,-61.00,+20.00
-25.00,+2.00,-33.00,-3.00,+3.00,+60.00,+16.00,+67.00,+18.00,-72.00,-63.00,-2.00,+116.00,+22.00,-8.00,-21.00
-102.00,-35.00,-42.00,+1.00,-9.00,-17.00,-26.00,-77.00,+0.00,+90.00,+48.00,-3.00,-105.00,-61.00,+81.00,+58.00
-12.00,+15.00,+44.00,+0.00,+6.00,-28.00,+13.00,-5.00,+21.00,-44.00,-19.00,-2.00,+1.00,-34.00,+29.00,+12.00
-76.00,+42.00,+55.00,+1.00,-18.00,-1.00,+6.00,-105.00,+9.00,+2.00,+25.00,+1.00,-57.00,-51.00,-18.00,+6.00
-21.00,-1.00,+30.00,-6.00,+1.00,+17.00,+91.00,-82.00,-4.00,-2.00,+28.00,+2.00,+82.00,+93.00,+87.00,-11.00
-18.00,-90.00,-47.00,-11.00,-2.00,-69.00,+51.00,+48.00,+21.00,+18.00,+8.00,+9.00,-32.00,+60.00,-34.00,-43.00
-21.00,+86.00,+0.00,+7.00,+10.00,-40.00,+60.00,-33.00,-11.00,-50.00,-27.00,-2.00,+20.00,-77.00,+34.00,+60.00
+86.00,+11.00,-7.00,-1.00,-1.00,-54.00,-29.00,+53.00,-11.00,+51.00,-43.00,-14.00,+52.00,+13.00,-2.00,-22.00
-50.00,-20.00,+8.00,+11.00,+3.00,-128.00,-50.00,-22.00,+33.00,+112.00,+60.00,+12.00,-29.00,-12.00,+56.00,-41.00
-36.00,-64.00,-12.00,+3.00,+7.00,+71.00,-28.00,-36.00,-2.00,-94.00,+13.00,+8.00,+42.00,+76.00,-36.00,-7.00
+66.00,+59.00,+56.00,+1.00,+0.00,+20.00,-36.00,+6.00,-7.00,-13.00,+0.00,-5.00,-62.00,+0.00,-10.00,-85.00
-35.00,-28.00,-50.00,-7.00,+1.00,-15.00,-41.00,+8.00,+32.00,+3.00,+17.00,+14.00,-9.00,-16.00,-37.00,+67.00
+7.00,+11.00,+16.00,-3.00,-11.00,-53.00,-77.00,+13.00,-16.00,-33.00,-8.00,+0.00,-21.00,+24.00,+57.00,-35.00
+26.00,+25.00,-1.00,+5.00,+36.00,+2.00,+12.00,+102.00,-4.00,+68.00,-22.00,+0.00,+45.00,-30.00,+56.00,+15.00
-99.00,-15.00,-1.00,-7.00,-15.00,-75.00,-34.00,-10.00,-20.00,+28.00,+32.00,+4.00,+23.00,+49.00,-6.00,-3.00
+25.00,-5.00,-11.00,+14.00,+37.00,+77.00,+32.00,+10.00,+3.00,+4.00,-28.00,-15.00,+82.00,+48.00,-22.00,-36.00
+122.00,-4.00,+10.00,-5.00,-7.00,+64.00,-13.00,-114.00,+10.00,-29.00,+11.00,-5.00,+4.00,-83.00,+79.00,+17.00
-37.00,+41.00,+30.00,-9.00,-22.00,-51.00,-37.00,-30.00,+12.00,-43.00,-14.00,-2.00,+50.00,+7.00,+63.00,+2.00
+41.00,-54.00,-58.00,+16.00,+26.00,+57.00,+20.00,+109.00,-24.00,+42.00,-1.00,+4.00,+78.00,+19.00,-24.00,-5.00
-16.00,-31.00,+42.00,-8.00,-16.00,-43.00,-14.00,-22.00,+1.00,-34.00,+7.00,+3.00,-60.00,+45.00,+85.00,+35.00
-39.00,+59.00,+3.00,-2.00,+7.00,+32.00,+19.00,-42.00,+28.00,+57.00,+38.00,+25.00,-107.00,-86.00,-89.00,-3.00
+102.00,+44.00,+1.00,+10.00,+7.00,-25.00,+21.00,+40.00,+12.00,-44.00,+1.00,-5.00,+78.00,-40.00,+50.00,+33.00
+8.00,+39.00,+14.00,-11.00,-9.00,+27.00,-11.00,-48.00,-26.00,+90.00,-32.00,-6.00,+24.00,-29.00,-57.00,+52.00
+4.00,-1.00,-15.00,+3.00,-5.00,-27.00,+17.00,-14.00,-4.00,-42.00,+12.00,+9.00,-54.00,-2.00,-7.00,+27.00
-62.00,+40.00,-13.00,+9.00,-10.00,-85.00,-83.00,-34.00,-10.00,-63.00,-33.00,-22.00,+95.00,+112.00,+36.00,+3.00
+82.00,-13.00,+26.00,-17.00,-7.00,+90.00,+42.00,+17.00,-13.00,+46.00,-9.00,+4.00,-128.00,-45.00,-118.00,+29.00
-53.00,-81.00,-27.00,+5.00,+5.00,+15.00,-27.00,-12.00,-4.00,-99.00,+24.00,-5.00,-62.00,-26.00,+47.00,-109.00
+15.00,-4.00,-15.00,+7.00,+8.00,-40.00,+10.00,+25.00,+35.00,+76.00,-13.00,+3.00,+57.00,-55.00,-51.00,-100.00
-32.00,-32.00,-8.00,-17.00,-19.00,-71.00,-12.00,-11.00,-15.00,+32.00,+58.00,-3.00,+5.00,-5.00,-66.00,-77.00
-81.00,+30.00,-4.00,+7.00,+16.00,+93.00,-21.00,-54.00,-1.00,+36.00,-17.00,-2.00,+4.00,+117.00,+34.00,-42.00
+126.00,-45.00,-75.00,+12.00,+24.00,-37.00,+60.00,+32.00,+19.00,+7.00,+61.00,-1.00,-115.00,-72.00,+49.00,+16.00
-121.00,-25.00,+9.00,-13.00,-29.00,-87.00,-20.00,+31.00,-15.00,-91.00,-124.00,-9.00,+75.00,+10.00,+31.00,+31.00
+107.00,+2.00,+7.00,-1.00,+9.00,+101.00,+18.00,+15.00,-10.00,-54.00,+19.00,-7.00,+29.00,+7.00,-28.00,+21.00
-62.00,+43.00,-6.00,+3.00,+1.00,-95.00,+3.00,-4.00,-10.00,+18.00,+49.00,+3.00,+83.00,+14.00,+44.00,-14.00
-57.00,+8.00,+35.00,-15.00,-34.00,-75.00,-73.00,-23.00,+51.00,+97.00,+35.00,+14.00,-17.00,+46.00,-22.00,+91.00
+27.00,-15.00,-61.00,+11.00,+20.00,+87.00,+67.00,-16.00,-69.00,-86.00,-5.00,-14.00,-29.00,-87.00,-19.00,+55.00
-31.00,-9.00,+55.00,-5.00,+10.00,+7.00,-1.00,+35.00,+4.00,-7.00,-32.00,-7.00,+2.00,+18.00,-2.00,+1.00
+127.00,-16.00,-32.00,+3.00,-4.00,-40.00,+44.00,+70.00,-16.00,-52.00,-39.00,-20.00,-95.00,-57.00,+51.00,+88.00
-66.00,-13.00,+22.00,-7.00,-8.00,-70.00,-17.00,-125.00,+4.00,+26.00,+2.00,+23.00,+11.00,+36.00,-35.00,-51.00
+54.00,-34.00,-27.00,-4.00,-24.00,-56.00,-20.00,+103.00,+9.00,+17.00,+34.00,-4.00,+0.00,-32.00,-24.00,+59.00
-79.00,-24.00,-8.00,+5.00,+19.00,+4.00,+3.00,-47.00,-15.00,+19.00,+18.00,+2.00,-29.00,+4.00,-109.00,-42.00
+63.00,+51.00,+62.00,-6.00,-27.00,-78.00,-5.00,-36.00,+24.00,+34.00,-18.00,-3.00,+65.00,-13.00,+0.00,+106.00
+0.00,+37.00,-21.00,+0.00,+11.00,+87.00,+23.00,-31.00,-32.00,-97.00,-32.00,-7.00,+84.00,+19.00,+86.00,-42.00
+23.00,-7.00,+3.00,-4.00,+2.00,+83.00,+5.00,+39.00,+20.00,+127.00,+83.00,+2.00,+105.00,+62.00,-17.00,+12.00
+66.00,-19.00,-55.00,+15.00,+25.00,+85.00,+1.00,+63.00,-1.00,+10.00,-8.00,+21.00,+5.00,+19.00,+9.00,-40.00
-56.00,+65.00,+47.00,-13.00,-22.00,-75.00,-33.00,-76.00,-22.00,-95.00,-51.00,-19.00,-41.00,-59.00,-50.00,+44.00
+120.00,+16.00,-1.00,+0.00,-8.00,+83.00,+32.00,+116.00,+25.00,+26.00,-10.00,-7.00,-104.00,+14.00,+25.00,-17.00
+3.00,-5.00,+41.00,-10.00,-12.00,-128.00,-66.00,-65.00,-13.00,+9.00,+32.00,-5.00,-18.00,+27.00,+8.00,+65.00
+88.00,-9.00,-31.00,+18.00,+30.00,+48.00,+69.00,-23.00,+9.00,+97.00,+32.00,+7.00,-40.00,-72.00,-53.00,+20.00
-82.00,-32.00,-38.00,-3.00,-16.00,-31.00,-43.00,-59.00,-30.00,-29.00,+34.00,+6.00,+47.00,+58.00,-41.00,-37.00
-49.00,-54.00,+49.00,-1.00,+6.00,-47.00,-25.00,-117.00,+17.00,-15.00,-20.00,+0.00,-45.00,-51.00,+43.00,+17.00
+75.00,+81.00,+20.00,+7.00,+16.00,+107.00,+84.00,+92.00,+9.00,-88.00,-51.00,-7.00,+10.00,+24.00,+27.00,-85.00
-43.00,+13.00,+39.00,+0.00,-13.00,+25.00,-30.00,-3.00,-36.00,-12.00,-43.00,-15.00,-53.00,+65.00,-12.00,+50.00
+89.00,-54.00,-59.00,-1.00,-22.00,-76.00,-33.00,+81.00,+50.00,+72.00,+119.00,+24.00,-128.00,-82.00,-80.00,-5.00
-81.00,-46.00,-58.00,+0.00,+9.00,+14.00,-6.00,-46.00,-63.00,-106.00,-120.00,-14.00,+75.00,-30.00,-63.00,+21.00
+91.00,+40.00,+80.00,-11.00,-7.00,-42.00,+14.00,+41.00,-9.00,+48.00,+56.00,+12.00,+88.00,+87.00,-16.00,-6.00
-35.00,-3.00,-29.00,-2.00,+15.00,-18.00,+26.00,+58.00,+38.00,+32.00,+48.00,+4.00,+71.00,+21.00,+83.00,-20.00
-64.00,+14.00,-1.00,+1.00,-4.00,+1.00,-24.00,-56.00,-6.00,-59.00,-94.00,-20.00,+109.00,+10.00,+64.00,-25.00
+9.00,-8.00,-30.00,+5.00,-1.00,+49.00,+28.00,+125.00,-4.00,+76.00,+59.00,+16.00,-24.00,+58.00,-44.00,-32.00
+22.00,-48.00,+5.00,-3.00,-18.00,-50.00,-19.00,-115.00,+6.00,-55.00,-19.00,-10.00,-16.00,-100.00,-12.00,+11.00
+57.00,-46.00,-19.00,+0.00,+21.00,+69.00,+25.00,-42.00,-43.00,+22.00,-34.00,-2.00,-72.00,-3.00,+84.00,+33.00
-63.00,+69.00,+37.00,-11.00,-2.00,-4.00,+25.00,+15.00,+19.00,+53.00,+94.00,+16.00,+54.00,+90.00,-40.00,-24.00
+1.00,+6.00,+22.00,-3.00,-17.00,+11.00,-50.00,-98.00,-4.00,-52.00,-48.00,-24.00,+84.00,-13.00,+71.00,+50.00
-37.00,-71.00,-53.00,+16.00,+45.00,-22.00,+19.00,+18.00,-26.00,+38.00,-13.00,+2.00,+10.00,-74.00,-107.00,-111.00
-74.00,+61.00,+89.00,-9.00,-20.00,-26.00,-23.00,-82.00,+35.00,+18.00,+53.00,+6.00,-91.00,-21.00,+21.00,+22.00
-2.00,-75.00,-42.00,+1.00,-1.00,-20.00,+29.00,+58.00,-7.00,+64.00,-20.00,+7.00,+107.00,+76.00,+99.00,-11.00
-42.00,+1.00,+5.00,-6.00,-4.00,+36.00,+8.00,-14.00,-16.00,-6.00,+77.00,-2.00,-68.00,-97.00,-95.00,+17.00
+16.00,-1.00,+35.00,-12.00,-32.00,+12.00,-46.00,-57.00,+19.00,-4.00,-77.00,-7.00,+24.00,+7.00,+55.00,-4.00
-27.00,+19.00,-74.00,+12.00,-4.00,-127.00,-15.00,+60.00,+51.00,-32.00,+3.00,+1.00,-26.00,-2.00,+75.00,+83.00
+6.00,-15.00,+90.00,-6.00,+7.00,+14.00,+17.00,-52.00,-27.00,-18.00,-25.00,-3.00,-70.00,-4.00,-72.00,-40.00
+37.00,+53.00,-2.00,+12.00,+20.00,-76.00,+10.00,+80.00,+35.00,-27.00,+10.00,+3.00,-68.00,-17.00,+102.00,+48.00
-105.00,-96.00,-36.00,+2.00,-4.00,-6.00,-26.00,-116.00,-8.00,-16.00,-18.00,-7.00,+41.00,+12.00,-22.00,+44.00
+66.00,+53.00,+40.00,-23.00,-35.00,-97.00,+11.00,+96.00,+1.00,+24.00,-36.00,-4.00,+44.00,+34.00,-8.00,-35.00
-6.00,-4.00,-21.00,+8.00,+10.00,-5.00,-16.00,-57.00,-18.00,-31.00,+61.00,-13.00,-10.00,-33.00,-23.00,+6.00
+57.00,+20.00,+7.00,-5.00,+14.00,+59.00,+45.00,+24.00,-32.00,-67.00,-96.00,-16.00,+85.00,+71.00,+2.00,+38.00
-38.00,+21.00,-2.00,+9.00,-14.00,-54.00,-28.00,-22.00,+29.00,+36.00,+43.00,+16.00,-86.00,-110.00,-20.00,-28.00
+1.00,-23.00,-36.00,-10.00,+7.00,+49.00,+37.00,+37.00,-16.00,+25.00,+8.00,-13.00,+127.00,+0.00,-14.00,+27.00
-71.00,-47.00,+22.00,+8.00,+16.00,+92.00,+14.00,-90.00,-16.00,+21.00,+27.00,+19.00,-6.00,+84.00,+42.00,-53.00
+88.00,-15.00,-8.00,-1.00,+0.00,+10.00,-8.00,+91.00,-40.00,+37.00,+29.00,-5.00,+127.00,-44.00,-97.00,-57.00
-95.00,+39.00,-23.00,+6.00,+3.00,-101.00,-6.00,-88.00,+37.00,-75.00,-56.00,-11.00,-66.00,+124.00,-23.00,+25.00
-81.00,-8.00,+29.00,-6.00,+0.00,-128.00,-19.00,-84.00,-18.00,+8.00,-5.00,-17.00,-16.00,-77.00,-47.00,+10.00
+93.00,-51.00,-54.00,-2.00,+4.00,+85.00,+28.00,+107.00,-15.00,-43.00,+41.00,+8.00,+31.00,-29.00,-8.00,+38.00
-57.00,-54.00,+41.00,+0.00,-11.00,-9.00,-16.00,-128.00,+28.00,-16.00,-44.00,-11.00,-39.00,+33.00,+123.00,-60.00
+57.00,+49.00,-29.00,-13.00,-4.00,+36.00,+13.00,+107.00,+4.00,+97.00,+22.00,+2.00,-45.00,+37.00,+125.00,-40.00
-27.00,-14.00,+51.00,-9.00,-9.00,+75.00,-5.00,-4.00,-2.00,+28.00,+48.00,-1.00,-64.00,-76.00,-73.00,+1.00
+79.00,-13.00,-10.00,+11.00,+28.00,+78.00,+16.00,-60.00,-11.00,-81.00,-77.00,-14.00,-30.00,-49.00,-104.00,-16.00
-28.00,-71.00,-47.00,-10.00,-30.00,-28.00,-19.00,+45.00,+8.00,+53.00,+29.00,+7.00,-22.00,+22.00,+16.00,-21.00
-46.00,+59.00,-4.00,+6.00,-10.00,-96.00,+0.00,+8.00,-37.00,-46.00,-23.00,-9.00,+24.00,+61.00,+82.00,-32.00
-11.00,+17.00,+16.00,-4.00,-1.00,+65.00,+14.00,-127.00,+30.00,-23.00,-9.00,-7.00,-56.00,+18.00,-43.00,+0.00
+86.00,+11.00,+36.00,-12.00,-19.00,-97.00,-7.00,+94.00,+4.00,+108.00,+45.00,-4.00,+46.00,-21.00,+62.00,-13.00
-97.00,+64.00,+2.00,-4.00,-9.00,+50.00,+4.00,-60.00,-13.00,-54.00,+6.00,+18.00,+45.00,-11.00,-65.00,+2.00
-7.00,-88.00,-6.00,-8.00,-1.00,+33.00,-20.00,-21.00,+0.00,+26.00,+23.00,+8.00,+38.00,+31.00,+99.00,+3.00
+38.00,-18.00,-6.00,-2.00,-13.00,+12.00,-20.00,+74.00,-30.00,-27.00,+2.00,-16.00,-64.00,-111.00,-64.00,-100.00
-30.00,-59.00,-11.00,-6.00,-3.00,-70.00,-9.00,+4.00,+38.00,-59.00,-58.00,+5.00,-40.00,+63.00,+52.00,+59.00
+5.00,+100.00,-48.00,+12.00,+15.00,-79.00,+9.00,-66.00,+14.00,+54.00,+55.00,+1.00,+45.00,-16.00,-60.00,+3.00
+77.00,+70.00,+54.00,+0.00,+11.00,+5.00,+9.00,+95.00,-10.00,+20.00,+41.00,+6.00,-105.00,-80.00,-4.00,+49.00
-15.00,-28.00,-24.00,+3.00,-9.00,-14.00,+16.00,+70.00,-7.00,-31.00,-12.00,+0.00,+127.00,+49.00,+9.00,-7.00
-92.00,+13.00,+36.00,+0.00,-11.00,+36.00,-38.00,-106.00,-1.00,-45.00,-46.00,-15.00,-66.00,+0.00,-44.00,+6.00
+68.00,-6.00,+7.00,-6.00,-15.00,-59.00,-4.00,+92.00,+20.00,-7.00,+1.00,+4.00,+82.00,+50.00,+87.00,+35.00
-75.00,-70.00,-96.00,-3.00,+4.00,+35.00,-13.00,-128.00,+14.00,-40.00,+0.00,+8.00,+76.00,-17.00,-86.00,+10.00
+72.00,+31.00,+75.00,+1.00,+14.00,-60.00,-8.00,-18.00,-38.00,-3.00,-36.00,-8.00,+89.00,+33.00,-64.00,+61.00
-12.00,+42.00,+17.00,+3.00,-1.00,+26.00,-25.00,-55.00,-26.00,+49.00,+18.00,-2.00,+49.00,-87.00,-22.00,-27.00
-15.00,-52.00,-10.00,+6.00,+17.00,-28.00,+44.00,+4.00,-9.00,+21.00,-13.00,+3.00,-5.00,+16.00,+27.00,+19.00
+79.00,+100.00,+65.00,+4.00,-15.00,-60.00,-11.00,+65.00,-3.00,+65.00,+27.00,+2.00,+16.00,+10.00,-77.00,-35.00
+15.00,+4.00,-26.00,+4.00,+4.00,+87.00,+15.00,+72.00,+31.00,-73.00,-24.00,+1.00,-61.00,+0.00,-28.00,+50.00
-38.00,-6.00,-45.00,+16.00,+34.00,-65.00,+20.00,-31.00,+8.00,+23.00,+34.00,+5.00,+88.00,+65.00,+27.00,-48.00
+83.00,-65.00,+37.00,-12.00,-17.00,+40.00,-25.00,+19.00,-17.00,-70.00,-26.00,-6.00,-30.00,-13.00,+18.00,-15.00
-25.00,-27.00,+34.00,+2.00,+19.00,+61.00,+12.00,-41.00,-18.00,-23.00,+23.00,-18.00,-5.00,+63.00,-12.00,+23.00
-115.00,+9.00,-54.00,-7.00,-41.00,-128.00,-72.00,-64.00,-7.00,+36.00,-35.00,+5.00,-1.00,-58.00,+105.00,-61.00
+10.00,-5.00,+24.00,-3.00,+3.00,+114.00,+27.00,+69.00,+13.00,-65.00,-20.00,-3.00,-128.00,+17.00,-38.00,-18.00
-16.00,+40.00,-20.00,-4.00,-25.00,-28.00,+21.00,-82.00,+2.00,+14.00,-23.00,-4.00,+59.00,-41.00,-11.00,-16.00
-29.00,-31.00,-19.00,-1.00,-10.00,-3.00,+10.00,-15.00,+2.00,+60.00,+32.00,+3.00,-72.00,-26.00,+14.00,+11.00
+48.00,-13.00,-18.00,+5.00,+7.00,-54.00,-14.00,-74.00,-13.00,-10.00,+3.00,+5.00,+79.00,+51.00,+56.00,+24.00
-51.00,-8.00,-34.00,+1.00,-8.00,+9.00,+20.00,+50.00,+12.00,-11.00,+0.00,+5.00,-23.00,-56.00,-77.00,-28.00
-12.00,-13.00,+4.00,-6.00,+5.00,-82.00,-26.00,-64.00,+13.00,+61.00,+50.00,-1.00,+38.00,+56.00,+51.00,+44.00
+21.00,-53.00,-5.00,+2.00,-14.00,-21.00,+14.00,+104.00,+3.00,-85.00,-82.00,-19.00,-54.00,-44.00,-70.00,-17.00
-19.00,+50.00,+36.00,+5.00,+8.00,+2.00,-11.00,-54.00,+1.00,+15.00,+24.00,+14.00,-24.00,+56.00,+13.00,-5.00
-6.00,-4.00,-1.00,-2.00,-11.00,-37.00,-25.00,-67.00,+5.00,-7.00,+18.00,-3.00,+25.00,-102.00,+41.00,-7.00
+24.00,+48.00,+22.00,+0.00,+22.00,-23.00,-7.00,+104.00,+6.00,-2.00,+23.00,-2.00,+0.00,+52.00,+4.00,+22.00
+60.00,-8.00,+23.00,+5.00,+22.00,-7.00,+9.00,-100.00,-13.00,+50.00,+0.00,-2.00,-10.00,+32.00,+62.00,-59.00
-16.00,-3.00,-11.00,-6.00,-11.00,+41.00,+13.00,+24.00,-3.00,+30.00,+0.00,+7.00,+16.00,-68.00,+50.00,-25.00
+35.00,-14.00,-31.00,+5.00,+6.00,-33.00,-13.00,+52.00,-1.00,-7.00,-14.00,-8.00,+59.00,+9.00,+81.00,+4.00
+0.00,+46.00,+25.00,+9.00,+3.00,+50.00,-8.00,-62.00,+17.00,+22.00,+16.00,+0.00,-50.00,+4.00,-47.00,+53.00
-33.00,+2.00,+16.00,-3.00,+0.00,-27.00,+40.00,+37.00,+7.00,+107.00,+116.00,+15.00,+18.00,-77.00,-13.00,-21.00
-2.00,-57.00,-68.00,-1.00,+3.00,+43.00,-9.00,-4.00,-47.00,-85.00,-77.00,-9.00,+55.00,+112.00,+73.00,-29.00
+28.00,+41.00,+43.00,-9.00,-10.00,-33.00,+27.00,-11.00,+46.00,+8.00,-19.00,-14.00,-19.00,-64.00,+92.00,+112.00
+4.00,+13.00,-7.00,+2.00,-4.00,+41.00,-5.00,-84.00,-7.00,+54.00,+62.00,+7.00,+2.00,-35.00,-59.00,-94.00
+54.00,-27.00,-21.00,+8.00,+29.00,+90.00,+25.00,+22.00,-26.00,-95.00,-110.00,-21.00,-4.00,+44.00,+61.00,+26.00
-13.00,+12.00,-9.00,-8.00,-15.00,+31.00,-30.00,-64.00,+22.00,+35.00,+50.00,+8.00,-16.00,-18.00,-36.00,-6.00
+53.00,+57.00,+17.00,+5.00,+12.00,+26.00,+39.00,+92.00,-23.00,+23.00,+42.00,+7.00,+67.00,+109.00,-41.00,+18.00
-71.00,-53.00,-7.00,+1.00,+6.00,-49.00,-15.00,-91.00,+14.00,+80.00,-2.00,-5.00,-52.00,-47.00,+28.00,-36.00
+62.00,+40.00,-17.00,-2.00,-11.00,-103.00,-6.00,+85.00,+10.00,-69.00,-15.00,+5.00,+42.00,-77.00,+33.00,+55.00
-35.00,-28.00,+3.00,+4.00,-5.00,-46.00,-13.00,-86.00,+8.00,-39.00,-13.00,-7.00,+16.00,-46.00,-78.00,-50.00
+44.00,-110.00,-102.00,+5.00,+33.00,+118.00,+12.00,-2.00,-25.00,-33.00,-39.00,-14.00,-124.00,+22.00,-44.00,-70.00
+1.00,+100.00,+107.00,-6.00,-4.00,-18.00,+0.00,+77.00,+0.00,+44.00,-5.00,+7.00,+18.00,-35.00,+20.00,-18.00
-31.00,+2.00,-9.00,-16.00,-9.00,-39.00,-46.00,-121.00,+3.00,+16.00,+63.00,+11.00,+85.00,+75.00,-69.00,+66.00
+78.00,-56.00,+13.00,+5.00,+4.00,-25.00,+52.00,+82.00,-14.00,-102.00,-22.00,-15.00,-86.00,-66.00,+21.00,+9.00
-46.00,+82.00,+50.00,-8.00,-18.00,-34.00,-18.00,-106.00,+22.00,+90.00,-7.00,-2.00,+81.00,+32.00,-52.00,-50.00
-52.00,-68.00,-59.00,+7.00,+0.00,-88.00,-6.00,+10.00,+23.00,+3.00,-54.00,-1.00,+3.00,-22.00,-2.00,+59.00
-88.00,+21.00,-8.00,-4.00,-3.00,+126.00,-14.00,-33.00,-18.00,-28.00,+6.00,+3.00,+19.00,+64.00,+35.00,-33.00
+25.00,-43.00,+9.00,-5.00,-4.00,-71.00,-7.00,+14.00,+9.00,-95.00,-57.00,-4.00,+9.00,+57.00,+32.00,+61.00
-128.00,-5.00,+9.00,-7.00,-19.00,-74.00,-24.00,-97.00,+7.00,+53.00,+57.00,+13.00,-26.00,-117.00,+57.00,-7.00
+103.00,-10.00,+25.00,-3.00,+13.00,+66.00,+32.00,+126.00,+0.00,-34.00,+10.00,-6.00,-38.00,+15.00,-32.00,-2.00
-87.00,+111.00,+26.00,+3.00,+18.00,+9.00,+4.00,+4.00,-39.00,-21.00,-20.00,+3.00,-87.00,+39.00,-53.00,+40.00
-51.00,-71.00,-58.00,+7.00,+16.00,-41.00,-19.00,+3.00,+34.00,+57.00,+51.00,+9.00,-23.00,+33.00,-63.00,+4.00
-21.00,+5.00,-17.00,-8.00,-26.00,-68.00,+4.00,+43.00,-19.00,+11.00,+16.00,+8.00,-49.00,+7.00,+24.00,-52.00
-92.00,+11.00,+24.00,-7.00,+9.00,+1.00,-42.00,-128.00,-24.00,-76.00,-43.00,-5.00,+105.00,-4.00,-29.00,+6.00
+55.00,-115.00,-31.00,-14.00,-31.00,-71.00,-2.00,-54.00,+21.00,+52.00,+13.00,-1.00,-13.00,-62.00,+62.00,-6.00
+127.00,+74.00,+27.00,+10.00,+31.00,+127.00,+60.00,+122.00,+3.00,+35.00,+5.00,-1.00,+52.00,+54.00,-16.00,+14.00
-52.00,-31.00,+9.00,-13.00,-11.00,+21.00,-33.00,-28.00,-8.00,-37.00,-27.00,-11.00,-85.00,-14.00,-12.00,+31.00
-36.00,-14.00,+31.00,-5.00,-28.00,-50.00,-18.00,-56.00,-11.00,+2.00,+33.00,+1.00,-72.00,+66.00,-31.00,-14.00
+23.00,-9.00,-11.00,+16.00,+50.00,+39.00,+65.00,+3.00,+11.00,+50.00,+33.00,+3.00,-19.00,-92.00,-13.00,-29.00
-87.00,-16.00,-6.00,-11.00,-5.00,-42.00,+9.00,-89.00,-15.00,-64.00,-53.00,-11.00,-6.00,-31.00,+13.00,-13.00
+21.00,+33.00,+18.00,+4.00,+2.00,-15.00,+15.00,+83.00,+6.00,+18.00,+15.00,+2.00,+55.00,+25.00,+4.00,+19.00
-10.00,-5.00,-36.00,+6.00,-3.00,-40.00,-32.00,+26.00,-5.00,-22.00,-12.00,-6.00,+20.00,+56.00,+12.00,-9.00
-56.00,-2.00,-13.00,+0.00,-8.00,-45.00,+6.00,+70.00,-6.00,-40.00,-22.00,-8.00,-58.00,+23.00,-56.00,-3.00
+33.00,+24.00,+21.00,-4.00,-6.00,+33.00,-23.00,-90.00,-1.00,+64.00,+30.00,-3.00,-88.00,-17.00,+60.00,-25.00
+7.00,-1.00,+23.00,+2.00,+11.00,+82.00,+11.00,+1.00,-5.00,-22.00,-10.00,+8.00,-9.00,-26.00,-74.00,+14.00
+23.00,-51.00,-18.00,-5.00,-10.00,-34.00,-10.00,-31.00,-9.00,-13.00,-4.00,-2.00,-122.00,-41.00,+27.00,-18.00
-27.00,+22.00,+0.00,-5.00,-16.00,-89.00,-28.00,-7.00,+7.00,-3.00,-12.00,-4.00,+15.00,-25.00,-8.00,-25.00
-61.00,+35.00,-39.00,+4.00,+6.00,-33.00,+18.00,-11.00,+5.00,+32.00,+11.00,-8.00,+110.00,+41.00,-5.00,+12.00
+47.00,-9.00,-25.00,-3.00,+8.00,+3.00,+2.00,+47.00,-11.00,-24.00,-3.00,+4.00,+30.00,-17.00,+21.00,-14.00
-14.00,+51.00,+34.00,-10.00,-2.00,+50.00,+18.00,+17.00,-9.00,-22.00,-19.00,-6.00,+17.00,-2.00,+6.00,+13.00
+30.00,-63.00,-4.00,+0.00,-3.00,-6.00,-14.00,-35.00,+1.00,+10.00,+4.00,+5.00,+36.00,+34.00,-9.00,+8.00
-49.00,+19.00,+36.00,-2.00,-9.00,-40.00,-11.00,-28.00,+12.00,+9.00,+9.00,+6.00,-34.00,-5.00,+17.00,+111.00
-57.00,-27.00,-8.00,-4.00,-10.00,+4.00,+7.00,-76.00,-6.00,-14.00,-5.00,-6.00,+12.00,-3.00,+12.00,+127.00
-29.00,-10.00,-42.00,-1.00,+1.00,-7.00,-2.00,+72.00,+7.00,+1.00,-3.00,+2.00,-7.00,-19.00,-7.00,+51.00
+55.00,+11.00,+15.00,+7.00,+11.00,+61.00,+18.00,-6.00,+4.00,+9.00,+5.00,+1.00,+73.00,-43.00,+7.00,-103.00
-19.00,-22.00,-2.00,-4.00,-4.00,-13.00,-20.00,-27.00,-25.00,+4.00,+0.00,+4.00,-71.00,+12.00,-2.00,-128.00
+2.00,+17.00,-10.00,-1.00,+12.00,-51.00,-12.00,-2.00,+12.00,-2.00,-2.00,+53.00,+35.00,-8.00,+0.00,+18.00
+5.00,-20.00,-12.00,-1.00,-1.00,-13.00,+15.00,+28.00,-18.00,-10.00,-6.00,-85.00,+40.00,+57.00,-11.00,+11.00
-36.00,+3.00,+1.00,+3.00,-6.00,+5.00,-20.00,-20.00,+2.00,-4.00,-1.00,+10.00,-10.00,-10.00,+8.00,+127.00
+41.00,+20.00,+9.00,-4.00,+1.00,-9.00,-10.00,-3.00,-60.00,+6.00,-2.00,-28.00,+8.00,-23.00,-7.00,-22.00
+7.00,-14.00,-5.00,+3.00,-8.00,-32.00,-4.00,+23.00,-111.00,-1.00,-2.00,-10.00,-6.00,+67.00,+2.00,-128.00
-2.00,+1.00,-12.00,-1.00,-7.00,-69.00,-2.00,-1.00,-101.00,-8.00,-3.00,+28.00,-6.00,-43.00,+1.00,-128.00
-13.00,+9.00,+0.00,-5.00,+8.00,+30.00,+0.00,-11.00,-50.00,+4.00,+2.00,+4.00,-14.00,+11.00,+1.00,-128.00
-21.00,-8.00,+8.00,-1.00,-8.00,-49.00,-1.00,+10.00,+18.00,+4.00,+0.00,-7.00,+58.00,-17.00,-9.00,-111.00
+8.00,-14.00,-5.00,-1.00,-6.00,-20.00,-11.00,-23.00,+52.00,+3.00,+7.00,+5.00,+27.00,+7.00,+8.00,+17.00
+18.00,+4.00,-7.00,-2.00,-11.00,+4.00,+1.00,-17.00,+61.00,-5.00,-11.00,-4.00,+78.00,+56.00,-3.00,-56.00
-51.00,+7.00,+3.00,-4.00,-70.00,-21.00,-13.00,+24.00,+11.00,-5.00,-6.00,+36.00,-38.00,-63.00,+5.00,-83.00
+4.00,+28.00,+12.00,+8.00,+67.00,+14.00,-7.00,+28.00,-14.00,+7.00,+1.00,+12.00,-45.00,+0.00,-2.00,+50.00
+1.00,-2.00,-6.00,-3.00,-3.00,+6.00,-10.00,+14.00,+4.00,+10.00,+9.00,-17.00,+25.00,+0.00,+2.00,+46.00
+103.00,-1.00,-6.00,+5.00,+10.00,+10.00,+6.00,+55.00,-15.00,-19.00,-12.00,-16.00,+2.00,-19.00,+5.00,-16.00
-97.00,-7.00,+4.00,-5.00,-12.00,+19.00,-9.00,+19.00,+10.00,-4.00,+0.00,-48.00,+22.00,+36.00,+11.00,-53.00
+46.00,-15.00,-2.00,-5.00,-23.00,+15.00,-1.00,+40.00,-4.00,-7.00,+0.00,+39.00,+29.00,+8.00,+1.00,-97.00
+106.00,+2.00,-5.00,-2.00,-10.00,-5.00,-17.00,-5.00,+51.00,-5.00,+0.00,-24.00,-70.00,+19.00,+8.00,-96.00
+96.00,-8.00,-4.00,+2.00,+25.00,+7.00,-7.00,+3.00,+112.00,+12.00,+9.00,+54.00,-65.00,-37.00,+1.00,-36.00
+84.00,-2.00,-7.00,-8.00,-29.00,-1.00,-8.00,-25.00,+27.00,+1.00,-8.00,-87.00,+46.00,+2.00,+6.00,-38.00
-27.00,-16.00,+7.00,+6.00,+8.00,-5.00,+1.00,-8.00,-17.00,+9.00,+2.00,+9.00,-49.00,-27.00,+2.00,+18.00
+2.00,-2.00,-6.00,-7.00,-23.00,-7.00,+11.00,+18.00,-70.00,-2.00,-5.00,-9.00,-1.00,-8.00,+4.00,+15.00
-19.00,-5.00,-3.00,+3.00,+4.00,+1.00,+12.00,+12.00,-34.00,+3.00,+4.00,+37.00,-59.00,+1.00,-5.00,+112.00
-18.00,+75.00,-2.00,-1.00,+98.00,+15.00,+1.00,-3.00,-35.00,+4.00,+9.00,+31.00,-22.00,+58.00,-4.00,+111.00
-40.00,-7.00,+9.00,+6.00,-53.00,+1.00,+9.00,+8.00,-15.00,+6.00,+6.00,+0.00,+4.00,-39.00,-7.00,+127.00
+79.00,+48.00,+2.00,+12.00,+95.00,+14.00,+7.00,-3.00,+14.00,-9.00,-5.00,-7.00,+28.00,-4.00,-4.00,+124.00
+42.00,-1.00,-5.00,-10.00,-77.00,-21.00,+7.00,-5.00,-6.00,+2.00,-1.00,+3.00,-22.00,-9.00,+1.00,+29.00
+123.00,-24.00,+3.00,+11.00,+51.00,+35.00,+9.00,-7.00,+9.00,+0.00,-2.00,+7.00,+9.00,+5.00,-1.00,+24.00
+88.00,-21.00,-8.00,-13.00,-15.00,-22.00,+0.00,-31.00,+21.00,+1.00,-2.00,-21.00,+18.00,+11.00,+1.00,+5.00
+55.00,-9.00,+4.00,+16.00,+74.00,-3.00,+6.00,-44.00,+13.00,+1.00,+1.00,+18.00,-11.00,-7.00,-4.00,-78.00
+37.00,-20.00,-4.00,-5.00,-16.00,+7.00,+9.00,-56.00,+8.00,-3.00,+2.00,-13.00,+2.00,-7.00,-1.00,-50.00
-26.00,+10.00,+3.00,-2.00,+1.00,-3.00,+6.00,-48.00,+6.00,-1.00,+1.00,+4.00,-7.00,-3.00,-4.00,-14.00
+49.00,-29.00,-1.00,-3.00,-21.00,+5.00,+8.00,-9.00,+29.00,-1.00,-5.00,-1.00,-14.00,+6.00,-7.00,+2.00
-80.00,+16.00,-1.00,-8.00,-64.00,-29.00,+1.00,-38.00,+2.00,+0.00,-3.00,-7.00,-12.00,-5.00,+0.00,-35.00
-60.00,+20.00,+1.00,+2.00,+16.00,+8.00,+6.00,-7.00,-5.00,-2.00,+2.00,-5.00,-7.00,-11.00,-4.00,-37.00
-67.00,-13.00,+1.00,-2.00,-27.00,-12.00,+2.00,-10.00,+3.00,-6.00,-5.00,+5.00,+8.00,-8.00,-3.00,-67.00
-98.00,+5.00,+0.00,-1.00,-1.00,+10.00,+0.00,+1.00,-2.00,-2.00,-1.00,+3.00,-7.00,+2.00,-2.00,-76.00
-72.00,-12.00,-4.00,-6.00,-11.00,-3.00,-4.00,-10.00,-17.00,-5.00,-4.00,-18.00,-12.00,-6.00,-1.00,-55.00
-56.00,+6.00,+0.00,+2.00,+21.00,+14.00,-3.00,-11.00,-24.00,+1.00,+1.00,-6.00,+3.00,+7.00,-5.00,-24.00
-40.00,-11.00,+1.00,-2.00,-19.00,-9.00,-6.00,-1.00,-6.00,+4.00,-2.00,+10.00,+8.00,-1.00,-2.00,-19.00
-28.00,+9.00,-3.00,-2.00,+6.00,+9.00,-6.00,+10.00,+9.00,-2.00,+3.00,-2.00,+21.00,-7.00,+0.00,-7.00
-9.00,-9.00,-4.00,-3.00,-13.00,+1.00,-7.00,+7.00,+1.00,-2.00,-4.00,-6.00,+8.00,-3.00,-1.00,-12.00
-4.00,-4.00,+0.00,+0.00,+4.00,+3.00,-4.00,+1.00,+1.00,-8.00,-3.00,+3.00,-4.00,-5.00,-1.00,-25.00
+50.00,-15.00,-3.00,-2.00,-11.00,-2.00,-5.00,+18.00,+1.00,-3.00,+1.00,+6.00,-7.00,+0.00,-1.00,-64.00
+48.00,+7.00,-3.00,-3.00,+9.00,-7.00,-6.00,+2.00,+5.00,+0.00,+0.00,-5.00,+12.00,+9.00,-2.00,-49.00
+2.00,+1.00,+2.00,-3.00,-24.00,+1.00,-5.00,+7.00,+5.00,-1.00,-1.00,-1.00,+4.00,-4.00,-2.00,-31.00
-46.00,+0.00,+0.00,-1.00,+2.00,+6.00,-3.00,+7.00,-3.00,-1.00,+0.00,+0.00,-6.00,-2.00,-1.00,-20.00
-5.00,-6.00,-4.00,-2.00,+7.00,-2.00,-1.00,+3.00,+0.00,+1.00,-1.00,-2.00,-8.00,-2.00,-3.00,+122.00
-33.00,+8.00,-2.00,-1.00,-2.00,+4.00,-4.00,-1.00,+9.00,+2.00,-2.00,-1.00,+8.00,+4.00,-2.00,+90.00
-38.00,-11.00,-1.00,-1.00,-11.00,+6.00,-3.00,-2.00,+4.00,+0.00,-1.00,+4.00,-13.00,-6.00,-1.00,+40.00
-106.00,-3.00,+1.00,-1.00,+6.00,+0.00,+0.00,+8.00,-5.00,-1.00,+0.00,-5.00,+6.00,-5.00,-1.00,+35.00
-64.00,-2.00,-1.00,+1.00,-3.00,+7.00,-2.00,+9.00,-13.00,-1.00,-1.00,+2.00,+6.00,+1.00,-3.00,-21.00
+4.00,-2.00,-1.00,-4.00,+2.00,+1.00,+2.00,+9.00,-1.00,-5.00,-3.00,+2.00,+1.00,-1.00,+0.00,-42.00
+31.00,-7.00,-4.00,-4.00,-14.00,-2.00,+1.00,+11.00,-4.00,+2.00,+0.00,+1.00,+1.00,-1.00,-1.00,-35.00
+101.00,+4.00,+0.00,+0.00,-4.00,+1.00,+0.00,+3.00,-7.00,-6.00,-4.00,+0.00,+0.00,+0.00,+0.00,-28.00
+55.00,-4.00,-1.00,+0.00,+8.00,+2.00,-3.00,+3.00,-1.00,-3.00,-3.00,-2.00,+2.00,-1.00,+1.00,-11.00
