+0.00,+1.00,-2.00,-2.00,+0.00,+1.00,-1.00,+0.00,-1.00,-8.00,-3.00,-1.00,-1.00,-2.00,-2.00,-2.00
+0.00,-6.00,-1.00,-2.00,-2.00,+3.00,+0.00,-1.00,-1.00,+1.00,+1.00,-2.00,-1.00,+1.00,-4.00,-1.00
+3.00,+5.00,+4.00,+1.00,-2.00,-1.00,+10.00,-1.00,-1.00,+1.00,-2.00,+0.00,+2.00,-1.00,+2.00,-1.00
-2.00,-1.00,-3.00,-1.00,-1.00,-3.00,-1.00,-2.00,+0.00,+0.00,-5.00,-2.00,+0.00,+0.00,-1.00,+1.00
-1.00,-5.00,-1.00,+0.00,-1.00,+2.00,+0.00,+0.00,-1.00,+0.00,+2.00,+0.00,-1.00,-2.00,+2.00,+1.00
-6.00,-4.00,-1.00,-1.00,+1.00,+2.00,+0.00,-1.00,-2.00,+0.00,+0.00,-2.00,+0.00,-3.00,-6.00,-4.00
-4.00,+1.00,+2.00,-1.00,-1.00,-3.00,-6.00,-4.00,-2.00,-3.00,-2.00,-1.00,-2.00,+1.00,-2.00,-1.00
+6.00,+0.00,-2.00,-1.00,-1.00,-2.00,+0.00,+2.00,+1.00,-12.00,+0.00,-2.00,+0.00,+2.00,-3.00,-1.00
+1.00,-1.00,-2.00,+0.00,-1.00,+0.00,+3.00,+0.00,+2.00,+20.00,-2.00,+0.00,-1.00,-2.00,-4.00,-2.00
-4.00,-3.00,-3.00,-1.00,-2.00,-1.00,-1.00,-2.00,-5.00,-4.00,+0.00,+0.00,-2.00,+0.00,+4.00,-2.00
+4.00,-1.00,-2.00,-1.00,+0.00,-1.00,-4.00,+0.00,+0.00,-32.00,-3.00,-1.00,+0.00,-1.00,-5.00,-2.00
-4.00,-1.00,+0.00,-3.00,-1.00,+0.00,+1.00,+0.00,-2.00,+35.00,-1.00,+0.00,+0.00,+4.00,+3.00,-1.00
-3.00,-1.00,+2.00,+0.00,-1.00,+0.00,-4.00,-2.00,+2.00,+0.00,-4.00,-1.00,-2.00,-4.00,-2.00,-2.00
-1.00,+1.00,+0.00,+0.00,-3.00,-1.00,-1.00,-1.00,-4.00,+12.00,-3.00,-1.00,+0.00,-2.00,-2.00,-3.00
+0.00,-2.00,-3.00,+0.00,-1.00,+1.00,-12.00,-4.00,-4.00,-11.00,-1.00,-2.00,-1.00,-1.00,+2.00,+0.00
-2.00,-3.00,-2.00,+0.00,-2.00,-2.00,+10.00,-1.00,-6.00,-19.00,-1.00,+1.00,-3.00,-3.00,-9.00,-2.00
-3.00,-3.00,+0.00,-1.00,+0.00,-1.00,-4.00,-2.00,-4.00,+5.00,+1.00,+0.00,-1.00,-23.00,+5.00,+1.00
+5.00,-2.00,-3.00,-1.00,+1.00,+0.00,+2.00,+1.00,+3.00,-40.00,+2.00,+2.00,+0.00,+61.00,-4.00,+3.00
-8.00,-1.00,-4.00,-2.00,-3.00,-11.00,-10.00,-2.00,+3.00,+57.00,+0.00,-1.00,+0.00,+0.00,+0.00,-2.00
+6.00,+3.00,+2.00,+0.00,+0.00,+9.00,-35.00,-1.00,+1.00,+17.00,-3.00,-3.00,-1.00,-3.00,-6.00,-3.00
-5.00,+2.00,+0.00,+0.00,+0.00,-4.00,-2.00,+0.00,-3.00,+9.00,-2.00,-2.00,-1.00,+9.00,+1.00,+0.00
-2.00,-2.00,+0.00,-1.00,-2.00,+0.00,-1.00,-3.00,+6.00,-10.00,+0.00,-3.00,-1.00,-1.00,+1.00,-4.00
-6.00,-16.00,-1.00,-2.00,+0.00,-1.00,+2.00,+0.00,+1.00,-15.00,-3.00,-1.00,+0.00,-31.00,-2.00,+2.00
-3.00,+12.00,-4.00,-1.00,-2.00,-4.00,-4.00,-4.00,+10.00,+3.00,+0.00,-1.00,+1.00,+2.00,-3.00,+0.00
+3.00,+27.00,+2.00,+0.00,+0.00,-1.00,+1.00,+3.00,-6.00,-16.00,-2.00,-1.00,-1.00,-4.00,-1.00,-2.00
-8.00,-8.00,+0.00,+1.00,+0.00,+2.00,-2.00,-2.00,-1.00,+6.00,-1.00,+0.00,-1.00,-18.00,-12.00,+0.00
+4.00,+11.00,+1.00,+0.00,-1.00,+3.00,+0.00,-1.00,-7.00,-4.00,+5.00,-1.00,+0.00,+12.00,+0.00,+0.00
-7.00,-6.00,+0.00,+1.00,+2.00,-10.00,+3.00,-3.00,-5.00,-12.00,-13.00,+0.00,-2.00,-7.00,+3.00,+0.00
-3.00,-16.00,-4.00,-1.00,+0.00,+1.00,-2.00,+1.00,-1.00,-25.00,-2.00,-3.00,+0.00,+0.00,+1.00,-2.00
-1.00,-17.00,-3.00,-1.00,-2.00,-2.00,+11.00,+1.00,+0.00,+14.00,+0.00,-1.00,-1.00,-7.00,-2.00,-1.00
+4.00,-5.00,+0.00,+2.00,-2.00,+0.00,+3.00,+0.00,-1.00,+17.00,-1.00,-1.00,-2.00,+7.00,+0.00,-2.00
-5.00,-14.00,-1.00,-3.00,-2.00,+2.00,+1.00,-1.00,-3.00,-12.00,+3.00,-1.00,+1.00,-2.00,+0.00,+1.00
+1.00,-3.00,-1.00,-1.00,-2.00,-6.00,+0.00,-1.00,+0.00,-5.00,-1.00,-3.00,-1.00,+5.00,-5.00,-2.00
+2.00,-11.00,-4.00,-4.00,+0.00,-2.00,-17.00,-2.00,-2.00,+11.00,+4.00,+3.00,-1.00,-6.00,-1.00,-1.00
-6.00,+26.00,+2.00,+1.00,+0.00,+0.00,+2.00,+0.00,+3.00,+9.00,+14.00,+0.00,+0.00,-2.00,+0.00,-1.00
+2.00,-16.00,-1.00,-1.00,-1.00,+0.00,+5.00,+1.00,-3.00,-20.00,-21.00,-3.00,-2.00,-1.00,+2.00,+0.00
+8.00,+35.00,-1.00,+1.00,-1.00,-1.00,-2.00,+1.00,+0.00,-1.00,-3.00,+0.00,-1.00,+5.00,+2.00,+1.00
+3.00,+14.00,+5.00,-1.00,+0.00,-1.00,+13.00,+1.00,-10.00,+6.00,+8.00,-2.00,-1.00,-16.00,-1.00,-2.00
-4.00,-9.00,-3.00,-1.00,-1.00,-3.00,+1.00,-1.00,+7.00,-8.00,-3.00,-3.00,-1.00,-3.00,+0.00,+1.00
-4.00,+1.00,-1.00,-1.00,-3.00,+0.00,+5.00,+1.00,-1.00,-2.00,+3.00,+0.00,+0.00,+1.00,-3.00,-3.00
+0.00,-19.00,-1.00,+0.00,+0.00,-2.00,+1.00,-2.00,+1.00,+9.00,+0.00,+1.00,-2.00,+3.00,+0.00,-2.00
-1.00,+4.00,-7.00,-2.00,-3.00,+1.00,-6.00,-5.00,-5.00,+0.00,-6.00,+0.00,-1.00,-3.00,+3.00,-2.00
-5.00,-5.00,+2.00,-3.00,-1.00,-1.00,+3.00,+0.00,-5.00,-6.00,+7.00,+1.00,-1.00,+4.00,-2.00,-1.00
+0.00,+2.00,+0.00,+2.00,+0.00,-1.00,+2.00,+2.00,-4.00,+14.00,+8.00,-2.00,-1.00,+2.00,-1.00,-2.00
+2.00,-16.00,-10.00,-1.00,-1.00,-1.00,+0.00,+2.00,-1.00,-6.00,-12.00,-1.00,-2.00,+0.00,+1.00,+2.00
-2.00,+18.00,+13.00,+1.00,-2.00,+0.00,-3.00,-1.00,+3.00,+9.00,+10.00,+0.00,-2.00,-5.00,-3.00,-13.00
+3.00,-4.00,-2.00,-1.00,-1.00,-1.00,-3.00,-4.00,-7.00,-8.00,-13.00,-1.00,+0.00,+2.00,+1.00,+1.00
+1.00,+4.00,-6.00,+0.00,-1.00,-3.00,+3.00,-1.00,-3.00,-1.00,+5.00,+0.00,-3.00,-4.00,-1.00,+1.00
+3.00,+1.00,-2.00,-3.00,-1.00,+1.00,-3.00,-4.00,-5.00,+0.00,-1.00,-1.00,-2.00,-1.00,-2.00,-8.00
-16.00,-2.00,-4.00,+0.00,+0.00,-1.00,-3.00,-4.00,+4.00,+1.00,-1.00,-1.00,-2.00,-3.00,+0.00,+4.00
+4.00,-11.00,-3.00,-1.00,-1.00,+0.00,-1.00,-3.00,-5.00,-8.00,-14.00,-3.00,-2.00,+1.00,-2.00,-3.00
+7.00,-2.00,-2.00,-1.00,-1.00,-2.00,+0.00,+3.00,+4.00,+0.00,-1.00,-2.00,-2.00,-2.00,+0.00,-1.00
+4.00,+0.00,-6.00,+0.00,+0.00,+3.00,+1.00,+0.00,-3.00,+1.00,+7.00,-3.00,+0.00,+1.00,+0.00,+0.00
-7.00,-3.00,-2.00,-4.00,-3.00,-3.00,-3.00,-4.00,+10.00,-5.00,-7.00,-1.00,-1.00,-1.00,+1.00,+3.00
+7.00,-12.00,+2.00,-1.00,+1.00,+0.00,+1.00,+3.00,-9.00,+8.00,+1.00,+0.00,-1.00,+1.00,-2.00,-5.00
-19.00,+14.00,+2.00,+0.00,+0.00,-2.00,+1.00,-5.00,+1.00,+3.00,+7.00,-1.00,+0.00,-2.00,-1.00,-1.00
+11.00,-4.00,+0.00,-2.00,-2.00,-1.00,+1.00,+5.00,-9.00,-11.00,-6.00,+0.00,-3.00,-2.00,-2.00,-3.00
+12.00,-34.00,-2.00,+0.00,+0.00,-2.00,-2.00,+1.00,+9.00,-4.00,-7.00,-4.00,-1.00,-6.00,-2.00,+3.00
-4.00,+40.00,+0.00,-1.00,-2.00,+1.00,-2.00,-1.00,-8.00,+3.00,-2.00,-3.00,-4.00,-2.00,+0.00,+2.00
+1.00,-10.00,+2.00,-1.00,+1.00,+0.00,+1.00,-1.00,-8.00,-8.00,+5.00,+2.00,-1.00,+0.00,+0.00,-7.00
-8.00,-8.00,+3.00,-1.00,-2.00,+0.00,-1.00,-2.00,-2.00,+2.00,-1.00,+0.00,-1.00,+0.00,-3.00,-4.00
-5.00,+4.00,-2.00,-1.00,-1.00,-1.00,-3.00,-2.00,+5.00,-5.00,+5.00,-1.00,-1.00,-2.00,+1.00,+4.00
-2.00,-18.00,-5.00,-1.00,+0.00,-3.00,+1.00,+0.00,+6.00,-4.00,-12.00,-1.00,-1.00,-2.00,-2.00,+3.00
-5.00,-2.00,-3.00,-1.00,-2.00,-1.00,-1.00,-4.00,-30.00,-6.00,-1.00,+0.00,-1.00,-1.00,-1.00,-9.00
-4.00,-6.00,-3.00,+4.00,+1.00,+0.00,+0.00,-1.00,+64.00,+4.00,+1.00,-1.00,+1.00,+3.00,+5.00,+18.00
-5.00,-40.00,-4.00,-2.00,-5.00,-3.00,-1.00,-3.00,-7.00,-18.00,-6.00,+0.00,-1.00,-1.00,+0.00,+1.00
+5.00,+25.00,+10.00,+0.00,+0.00,-1.00,+1.00,+4.00,+10.00,+17.00,+2.00,-1.00,+0.00,+1.00,-1.00,-1.00
-4.00,+5.00,-4.00,-5.00,-3.00,-2.00,-2.00,-4.00,+18.00,+17.00,+1.00,-3.00,+0.00,-3.00,+0.00,+7.00
+9.00,-28.00,-3.00,-2.00,-2.00,+0.00,-3.00,-1.00,-39.00,-6.00,-1.00,+8.00,+4.00,-2.00,-3.00,-5.00
-3.00,+25.00,+0.00,+2.00,+2.00,-1.00,-2.00,+2.00,+0.00,-4.00,-3.00,-6.00,-6.00,+0.00,+3.00,+1.00
-4.00,-3.00,+1.00,-1.00,-2.00,-1.00,-1.00,-2.00,+8.00,-21.00,+0.00,-3.00,-8.00,-12.00,-8.00,-3.00
+20.00,-6.00,-4.00,-2.00,+1.00,+0.00,-1.00,+2.00,+12.00,-25.00,-9.00,+8.00,+5.00,+8.00,+8.00,+11.00
-17.00,+7.00,+6.00,-2.00,-1.00,-1.00,+0.00,-4.00,-1.00,+37.00,+8.00,+5.00,-3.00,-2.00,-4.00,-14.00
-4.00,-13.00,+2.00,+0.00,+2.00,+0.00,-3.00,-3.00,-12.00,+8.00,+1.00,+8.00,-2.00,+0.00,-11.00,+4.00
+13.00,-3.00,-2.00,+1.00,+0.00,+1.00,+4.00,+7.00,+18.00,-1.00,+0.00,-22.00,+2.00,-5.00,+0.00,-5.00
-6.00,-3.00,+0.00,-1.00,-2.00,+1.00,-1.00,+2.00,-10.00,-15.00,-4.00,-5.00,+0.00,+0.00,-5.00,-4.00
+5.00,-13.00,-4.00,-1.00,+0.00,+0.00,+0.00,+1.00,+36.00,+25.00,+2.00,-7.00,-14.00,-34.00,+1.00,+2.00
-10.00,+9.00,-1.00,+1.00,-1.00,-2.00,-1.00,-2.00,-23.00,-15.00,-7.00,+5.00,+13.00,+72.00,-6.00,-10.00
-8.00,+18.00,-4.00,-3.00,-9.00,-3.00,-9.00,-3.00,+12.00,+11.00,-2.00,+9.00,+2.00,+5.00,+2.00,+2.00
+9.00,-37.00,-4.00,+3.00,+23.00,+1.00,-7.00,+2.00,-12.00,-2.00,+1.00,-7.00,+5.00,-4.00,-5.00,-9.00
+0.00,+38.00,-1.00,-1.00,+0.00,-8.00,+20.00,-1.00,-17.00,-27.00,-3.00,+8.00,-9.00,+7.00,-2.00,-1.00
+6.00,+39.00,+7.00,-4.00,-31.00,+1.00,-5.00,+3.00,-21.00,-4.00,-1.00,-19.00,-4.00,-24.00,+3.00,-3.00
-27.00,-26.00,-8.00,-4.00,+14.00,+4.00,-2.00,-5.00,+2.00,+18.00,+2.00,+6.00,-1.00,+1.00,-1.00,+4.00
+5.00,+16.00,+3.00,+6.00,+11.00,+2.00,-21.00,+0.00,+14.00,-9.00,-6.00,-3.00,-7.00,+3.00,+0.00,+1.00
-8.00,-44.00,+1.00,-1.00,+6.00,-5.00,-18.00,-4.00,+5.00,-9.00,-1.00,-5.00,-18.00,-2.00,-2.00,+1.00
+5.00,+36.00,-1.00,+1.00,+19.00,-1.00,+2.00,-2.00,-22.00,+2.00,-1.00,+1.00,+31.00,-13.00,+4.00,+0.00
-14.00,-15.00,-7.00,-2.00,-4.00,-2.00,-2.00,-3.00,+4.00,-3.00,+0.00,+11.00,+9.00,+7.00,+1.00,+2.00
-4.00,+28.00,+4.00,-3.00,-5.00,+3.00,+7.00,-1.00,-46.00,-31.00,+0.00,+19.00,+8.00,-10.00,-3.00,-8.00
+2.00,+9.00,+3.00,-2.00,-11.00,+4.00,-6.00,+0.00,-13.00,+21.00,+0.00,-28.00,+0.00,+4.00,-6.00,-2.00
-18.00,-14.00,-7.00,-2.00,-8.00,-5.00,+0.00,-3.00,+57.00,+15.00,-3.00,+10.00,-30.00,-14.00,-2.00,+1.00
+17.00,-13.00,+1.00,-1.00,-7.00,+3.00,-4.00,+4.00,+20.00,-30.00,+1.00,-37.00,+14.00,+2.00,+0.00,-5.00
-2.00,-6.00,-3.00,-1.00,+6.00,+0.00,+0.00,-6.00,-10.00,+52.00,+6.00,+22.00,-10.00,-1.00,-2.00,+1.00
-4.00,-2.00,-1.00,-2.00,-3.00,-4.00,-1.00,-1.00,+25.00,+10.00,+3.00,-27.00,-6.00,+3.00,-1.00,+2.00
+5.00,+5.00,+1.00,-2.00,-20.00,+0.00,+3.00,+4.00,-26.00,-8.00,-1.00,+1.00,-26.00,-7.00,+1.00,-5.00
-31.00,-19.00,-1.00,+2.00,+28.00,-4.00,+1.00,-6.00,-3.00,-18.00,-5.00,+12.00,+47.00,-1.00,-2.00,+0.00
+22.00,+11.00,-3.00,-4.00,-9.00,-1.00,+6.00,+2.00,+17.00,-10.00,-3.00,-12.00,-10.00,-1.00,-1.00,+1.00
-4.00,+25.00,+1.00,+1.00,-1.00,-7.00,+1.00,+0.00,-44.00,-24.00,-3.00,+14.00,+15.00,+5.00,+2.00,-2.00
+23.00,-11.00,+0.00,-3.00,-20.00,-8.00,-23.00,+0.00,-7.00,+24.00,+3.00,+0.00,-4.00,-9.00,+0.00,-1.00
+7.00,+26.00,+3.00,+4.00,+34.00,+7.00,+12.00,+3.00,-23.00,-25.00,-10.00,+4.00,-24.00,-3.00,+2.00,-6.00
-29.00,-37.00,-2.00,-7.00,-29.00,-4.00,+2.00,-8.00,-2.00,+28.00,+4.00,-11.00,+4.00,+0.00,+0.00,-1.00
-12.00,-8.00,-3.00,+7.00,+18.00,+2.00,-3.00,-1.00,-4.00,+10.00,+3.00,+21.00,+2.00,+3.00,+1.00,+2.00
+6.00,-6.00,-1.00,+2.00,+29.00,+5.00,+3.00,-2.00,+23.00,+2.00,-4.00,-12.00,+5.00,-4.00,-1.00,-1.00
+12.00,-1.00,-3.00,+0.00,-1.00,-2.00,-2.00,-4.00,-35.00,-9.00,+2.00,+8.00,-11.00,+0.00,+0.00,+8.00
+6.00,+6.00,-1.00,-3.00,-8.00,-3.00,+0.00,+0.00,+52.00,-3.00,-5.00,+13.00,+5.00,+1.00,+1.00,+2.00
-15.00,-11.00,-7.00,-7.00,-32.00,+1.00,+1.00,-3.00,-7.00,-15.00,-3.00,-18.00,-13.00,-2.00,+1.00,+0.00
+5.00,+22.00,+2.00,+4.00,+29.00,-2.00,+5.00,+3.00,+0.00,+2.00,-1.00,-23.00,+13.00,-6.00,-3.00,-7.00
+15.00,-11.00,+3.00,+1.00,-34.00,-4.00,+0.00,+4.00,+0.00,-5.00,+2.00,-20.00,-20.00,+0.00,-3.00,-6.00
-5.00,-1.00,-4.00,-2.00,+1.00,-1.00,+1.00,-2.00,-37.00,+4.00,+0.00,+9.00,-15.00,-4.00,-3.00,-10.00
+19.00,+23.00,-3.00,-4.00,-6.00,-1.00,-5.00,+0.00,+44.00,+1.00,+5.00,+11.00,+37.00,+5.00,+5.00,+24.00
+2.00,+0.00,+2.00,+19.00,-10.00,-3.00,+5.00,+1.00,-12.00,-3.00,+1.00,+11.00,-5.00,-2.00,+3.00,+5.00
-9.00,-16.00,-7.00,+9.00,+12.00,+0.00,-2.00,-4.00,+55.00,+26.00,+3.00,-3.00,-2.00,+0.00,-4.00,+9.00
-14.00,+47.00,+6.00,+2.00,+3.00,-6.00,-2.00,+0.00,+4.00,-49.00,-6.00,+0.00,-22.00,-2.00,+0.00,-1.00
-1.00,-18.00,-7.00,-6.00,-11.00,+4.00,-3.00,+3.00,-22.00,+63.00,+4.00,-22.00,+15.00,-1.00,-7.00,-14.00
-13.00,-35.00,-4.00,-15.00,-10.00,+3.00,+3.00,+0.00,+7.00,+4.00,-1.00,+13.00,+2.00,-1.00,+4.00,+5.00
+13.00,+6.00,+2.00,-5.00,+6.00,-1.00,+0.00,+2.00,-32.00,-11.00,-1.00,-4.00,-4.00,-3.00,-1.00,-12.00
-17.00,-62.00,-8.00,-5.00,-30.00,-9.00,+0.00,-5.00,+22.00,+20.00,+1.00,-5.00,-8.00,+0.00,+1.00,+13.00
+16.00,+41.00,+8.00,-2.00,+12.00,+2.00,-1.00,-5.00,-6.00,-48.00,-8.00,+21.00,-9.00,-1.00,-4.00,-11.00
-1.00,-15.00,-3.00,-11.00,-6.00,+6.00,+1.00,-2.00,-50.00,+0.00,-5.00,-4.00,-3.00,-3.00,-6.00,-9.00
+11.00,-15.00,+3.00,+3.00,-39.00,-12.00,+2.00,+5.00,-32.00,+3.00,-3.00,-4.00,-15.00,-2.00,-4.00,+3.00
+15.00,+43.00,+4.00,+2.00,+45.00,+9.00,+3.00,+3.00,+19.00,-1.00,-3.00,-16.00,+5.00,+1.00,-2.00,-5.00
+17.00,-17.00,+7.00,+2.00,-14.00,-5.00,+0.00,+2.00,+9.00,-15.00,+2.00,+10.00,-4.00,-1.00,+0.00,+5.00
-8.00,+37.00,+4.00,-1.00,-3.00,+9.00,+4.00,-4.00,+5.00,-53.00,-4.00,-4.00,+3.00,-3.00,-3.00,-5.00
-22.00,-7.00,-7.00,-6.00,-13.00,-7.00,-4.00,-8.00,-18.00,+70.00,+2.00,+21.00,-26.00,-4.00,+1.00,-7.00
+7.00,-2.00,+0.00,-1.00,-10.00,+0.00,+4.00,+4.00,+9.00,-33.00,-8.00,-8.00,+24.00,+1.00,+1.00,+0.00
-7.00,-19.00,-1.00,+3.00,+22.00,+3.00,+1.00,+0.00,-71.00,+4.00,-1.00,-15.00,-10.00,-4.00,-5.00,-12.00
-12.00,+1.00,-7.00,-5.00,-1.00,-3.00,-1.00,-5.00,+72.00,+26.00,+4.00,-3.00,+5.00,-12.00,+1.00,+9.00
-12.00,-2.00,-4.00,-7.00,-16.00,+0.00,-6.00,-5.00,+39.00,-48.00,-4.00,-4.00,+7.00,+4.00,+0.00,+8.00
-1.00,-3.00,-2.00,+1.00,-18.00,-3.00,-2.00,-2.00,-10.00,+37.00,+3.00,+18.00,-30.00,-2.00,+1.00,+2.00
-24.00,+5.00,-2.00,-3.00,-13.00,-2.00,-1.00,+2.00,+16.00,-62.00,-14.00,-1.00,+40.00,+7.00,+2.00,-4.00
-32.00,-34.00,-4.00,+2.00,+32.00,+2.00,-4.00,-2.00,-58.00,-96.00,-1.00,+4.00,-3.00,-7.00,-3.00,-20.00
-11.00,+30.00,+4.00,-3.00,-2.00,-1.00,+0.00,-2.00,-33.00,+68.00,+3.00,+22.00,+5.00,-4.00,+1.00,+10.00
+11.00,+4.00,-1.00,-2.00,+7.00,-2.00,-3.00,-2.00,-1.00,-20.00,-2.00,-29.00,+35.00,+0.00,-3.00,+1.00
+1.00,-35.00,-7.00,+0.00,+7.00,+0.00,+0.00,-6.00,+23.00,+78.00,+9.00,+27.00,-7.00,-7.00,-2.00,+0.00
+48.00,+56.00,+3.00,-2.00,-15.00,-5.00,+0.00,+3.00,-17.00,+25.00,+2.00,-41.00,-13.00,+5.00,-4.00,+0.00
+38.00,-12.00,+1.00,-1.00,+3.00,+2.00,-1.00,-6.00,+25.00,-37.00,+0.00,+20.00,+9.00,-28.00,-5.00,-6.00
+15.00,+22.00,+0.00,+3.00,+5.00,-7.00,+2.00,-2.00,-30.00,-32.00,-4.00,-7.00,+10.00,+61.00,-1.00,-3.00
-17.00,-23.00,-1.00,-4.00,-5.00,+1.00,-2.00,-6.00,+8.00,+30.00,-3.00,-12.00,-28.00,+5.00,+6.00,+10.00
-11.00,+19.00,-1.00,-2.00,-20.00,-2.00,-6.00,+3.00,-10.00,+20.00,+2.00,+24.00,+29.00,+4.00,-5.00,-9.00
-7.00,-3.00,+2.00,-4.00,-24.00,-10.00,-5.00,-4.00,+57.00,-52.00,-6.00,+9.00,-22.00,-5.00,-10.00,+6.00
+40.00,-5.00,+1.00,+3.00,+35.00,+7.00,+3.00,+7.00,-28.00,+69.00,+10.00,-6.00,+3.00,-7.00,+10.00,+2.00
+16.00,+23.00,-2.00,+1.00,-19.00,-2.00,+10.00,+4.00,+70.00,-105.00,-10.00,+0.00,-7.00,-4.00,-3.00,-11.00
-12.00,-32.00,-7.00,+0.00,+34.00,+3.00,-6.00,-1.00,+34.00,+121.00,+7.00,+15.00,-4.00,+6.00,+3.00,+21.00
-25.00,+7.00,-1.00,+0.00,+14.00,+3.00,-1.00,-3.00,-117.00,-43.00,-11.00,-22.00,+10.00,+0.00,-1.00,-17.00
-61.00,-33.00,-2.00,+0.00,-34.00,-4.00,-12.00,-10.00,-15.00,-7.00,+0.00,+41.00,-41.00,-15.00,-5.00,-2.00
-39.00,-4.00,-1.00,-3.00,+2.00,-6.00,+2.00,+0.00,-38.00,-57.00,-11.00,-14.00,+46.00,+2.00,-2.00,-5.00
-9.00,-15.00,-6.00,-1.00,-13.00,-2.00,+27.00,+4.00,+89.00,+14.00,-4.00,-20.00,-31.00,-16.00,-4.00,-4.00
+0.00,+6.00,+4.00,+5.00,+10.00,+6.00,+6.00,+7.00,+60.00,-32.00,+10.00,-4.00,+45.00,+17.00,+7.00,+7.00
-33.00,-31.00,-2.00,-3.00,-20.00,-17.00,-11.00,-6.00,+9.00,+14.00,+1.00,-19.00,-5.00,-10.00,-2.00,+6.00
-6.00,+34.00,+7.00,-6.00,+21.00,+17.00,+12.00,+0.00,-56.00,+52.00,-3.00,+31.00,-7.00,-19.00,-9.00,-16.00
+20.00,+56.00,+1.00,+3.00,-16.00,-13.00,-6.00,+1.00,+31.00,-33.00,-9.00,-5.00,+1.00,+17.00,+2.00,+20.00
+22.00,-38.00,-7.00,-7.00,-5.00,+1.00,-1.00,+0.00,-23.00,+56.00,+6.00,-9.00,-9.00,-9.00,+0.00,-12.00
-16.00,-17.00,-9.00,-1.00,-7.00,+3.00,+0.00,-3.00,+6.00,-106.00,-12.00,-4.00,-18.00,-4.00,-2.00,-15.00
+27.00,+25.00,+0.00,+6.00,+28.00,-12.00,-7.00,-1.00,-59.00,+86.00,+9.00,-21.00,-11.00,-21.00,+0.00,+10.00
+28.00,-42.00,+1.00,-7.00,-22.00,-6.00,-4.00,+3.00,-9.00,-26.00,-1.00,+25.00,-4.00,+49.00,-3.00,+4.00
-11.00,-3.00,-5.00,+1.00,-15.00,+2.00,+0.00,-3.00,-29.00,-62.00,-2.00,-14.00,-6.00,+5.00,-15.00,+0.00
+15.00,-4.00,-1.00,-5.00,-22.00,+1.00,-9.00,+4.00,-29.00,+75.00,+10.00,+19.00,+10.00,-13.00,+19.00,-4.00
-29.00,-2.00,+5.00,+8.00,+59.00,+13.00,-9.00,-8.00,-97.00,-128.00,-15.00,-31.00,-11.00,+9.00,-3.00,-19.00
+0.00,+8.00,+1.00,+4.00,+29.00,+9.00,+35.00,+0.00,-15.00,+110.00,+12.00,+8.00,+6.00,-21.00,+0.00,+1.00
+12.00,+1.00,-2.00,-5.00,-34.00,-8.00,+9.00,+3.00,-29.00,-10.00,-10.00,-33.00,-12.00,+6.00,-9.00,+2.00
-17.00,+5.00,+0.00,-5.00,+0.00,+8.00,+4.00,-7.00,-2.00,-4.00,-2.00,-6.00,+27.00,-4.00,-16.00,-7.00
+14.00,-10.00,-6.00,+2.00,+0.00,-4.00,+5.00,+0.00,+56.00,-35.00,+0.00,+25.00,+7.00,-17.00,+4.00,+13.00
-7.00,-7.00,-4.00,-4.00,-6.00,-6.00,-17.00,-7.00,-70.00,-37.00,-1.00,-16.00,-21.00,+12.00,-2.00,-19.00
-18.00,+71.00,+6.00,-2.00,+16.00,+10.00,-24.00,-1.00,+44.00,+90.00,+5.00,+5.00,+4.00,+3.00,+2.00,-4.00
-55.00,-20.00,+4.00,+7.00,+38.00,+10.00,+40.00,+6.00,-15.00,-61.00,-12.00,-19.00,-13.00,-15.00,+3.00,+0.00
-20.00,+11.00,-3.00,-5.00,-27.00,-2.00,-14.00,+5.00,-12.00,+69.00,+5.00,+11.00,-25.00,+9.00,+14.00,+7.00
+5.00,-32.00,-3.00,-1.00,-1.00,-5.00,-8.00,-1.00,-12.00,-52.00,-5.00,+0.00,+13.00,-13.00,-6.00,-4.00
-29.00,-19.00,+2.00,-3.00,+1.00,-12.00,+11.00,-4.00,-14.00,-27.00,-8.00,+26.00,+5.00,+4.00,+9.00,+4.00
+21.00,+27.00,-3.00,+0.00,+27.00,-3.00,-8.00,+2.00,+31.00,+53.00,+10.00,-16.00,-6.00,-2.00,-9.00,-8.00
+16.00,-12.00,+0.00,+4.00,-14.00,+9.00,+1.00,+0.00,-9.00,-19.00,+3.00,+22.00,-1.00,+1.00,+8.00,+9.00
+27.00,-33.00,+2.00,-3.00,+2.00,+0.00,-7.00,-3.00,-46.00,+37.00,+1.00,-30.00,-49.00,-14.00,-28.00,-9.00
+48.00,-3.00,-5.00,-1.00,-2.00,+2.00,-6.00,-1.00,-52.00,-11.00,+5.00,+15.00,+36.00,+1.00,+10.00,+2.00
+35.00,+2.00,+3.00,-2.00,-30.00,-16.00,-9.00,-1.00,-43.00,-7.00,-3.00,-13.00,-19.00,-13.00,-1.00,-15.00
-4.00,-4.00,-2.00,-1.00,-11.00,-7.00,-1.00,-5.00,-22.00,-84.00,-7.00,+19.00,+4.00,-9.00,-4.00,+17.00
-31.00,-1.00,-3.00,+2.00,+49.00,+19.00,+6.00,-4.00,-35.00,+64.00,+4.00,-10.00,+13.00,+39.00,+11.00,-6.00
-17.00,-12.00,+1.00,+0.00,-8.00,+5.00,+0.00,+5.00,+124.00,+54.00,+7.00,-15.00,-19.00,-4.00,+3.00,+13.00
+5.00,-20.00,-5.00,+1.00,+23.00,-1.00,-1.00,+7.00,+34.00,-10.00,-3.00,+25.00,+4.00,-1.00,-8.00,+4.00
-11.00,+20.00,+9.00,-4.00,+6.00,-2.00,+3.00,-4.00,-31.00,-11.00,-1.00,-29.00,-18.00,+11.00,-15.00,-17.00
-16.00,-2.00,-3.00,-3.00,-51.00,-2.00,-27.00,-3.00,+82.00,-62.00,-9.00,+16.00,+11.00,-2.00,+15.00,+11.00
-7.00,+5.00,+2.00,+6.00,+72.00,+7.00,+68.00,+2.00,+48.00,+9.00,-9.00,-6.00,-9.00,-24.00,-3.00,-8.00
-34.00,-35.00,-10.00,-1.00,+13.00,-4.00,+1.00,-6.00,+8.00,-27.00,+3.00,-13.00,+21.00,+8.00,-3.00,-21.00
+13.00,+49.00,-4.00,-7.00,-43.00,-13.00,+21.00,+5.00,+127.00,+35.00,+2.00,+10.00,+9.00,+6.00,+0.00,+26.00
+8.00,-4.00,-2.00,+1.00,+15.00,+9.00,-21.00,-4.00,+121.00,-38.00,-6.00,+44.00,-15.00,-44.00,-45.00,-7.00
+27.00,+4.00,+2.00,-6.00,-39.00,-13.00,-29.00,+2.00,+127.00,-29.00,-3.00,-58.00,+34.00,-7.00,+74.00,-4.00
+42.00,+6.00,-7.00,+2.00,+6.00,-5.00,-4.00,-4.00,+127.00,-28.00,-6.00,+14.00,-5.00,+0.00,+6.00,+24.00
+6.00,-3.00,-2.00,-1.00,+4.00,-3.00,+8.00,+4.00,-5.00,-4.00,-4.00,-31.00,+56.00,+15.00,-3.00,-16.00
-44.00,-3.00,+1.00,-2.00,-13.00,-8.00,+5.00,+1.00,-55.00,+70.00,+14.00,-7.00,-19.00,-18.00,-33.00,+3.00
+10.00,+11.00,-2.00,+3.00,+2.00,+1.00,-19.00,+3.00,-128.00,-47.00,-3.00,+52.00,+3.00,-13.00,+2.00,+3.00
+24.00,+13.00,+2.00,-5.00,-15.00,+3.00,+2.00,+0.00,-128.00,-38.00,-12.00,-44.00,-16.00,+3.00,-72.00,-12.00
+30.00,-13.00,-1.00,-4.00,-37.00,-21.00,-55.00,-5.00,-66.00,+5.00,-6.00,+9.00,+9.00,+1.00,+13.00,+5.00
+21.00,-6.00,-10.00,-1.00,+13.00,-2.00,+5.00,-7.00,-89.00,+7.00,-7.00,+5.00,+0.00,+16.00,+44.00,+4.00
-27.00,+3.00,+4.00,+0.00,-27.00,+2.00,-11.00,+4.00,-109.00,-15.00,-3.00,+4.00,-23.00,-26.00,-36.00,-19.00
+24.00,+23.00,+4.00,-2.00,+14.00,+26.00,+25.00,+9.00,-62.00,+31.00,+0.00,-10.00,+7.00,+16.00,+46.00,+21.00
-30.00,-22.00,-3.00,+5.00,+31.00,-3.00,+11.00,-6.00,-30.00,-11.00,-4.00,+0.00,-25.00,+13.00,-71.00,-13.00
-26.00,-11.00,+2.00,-3.00,+16.00,-10.00,-10.00,-6.00,-53.00,+3.00,+6.00,-24.00,+8.00,-44.00,+50.00,-5.00
-15.00,+14.00,-13.00,-3.00,-3.00,-6.00,+10.00,-9.00,-64.00,+13.00,-1.00,-19.00,-17.00,-36.00,+23.00,-5.00
+7.00,+19.00,+10.00,+7.00,+9.00,+0.00,-9.00,+7.00,-18.00,+13.00,-5.00,-3.00,+1.00,+55.00,+30.00,-16.00
-36.00,-48.00,-2.00,-2.00,+13.00,+22.00,-56.00,-5.00,-15.00,-17.00,+7.00,+5.00,-6.00,+5.00,+25.00,+1.00
+5.00,+23.00,-5.00,-2.00,-1.00,-12.00,+14.00,+8.00,-36.00,+21.00,+6.00,+11.00,+27.00,+1.00,-35.00,+7.00
-42.00,-23.00,-9.00,-3.00,+8.00,-4.00,+0.00,-14.00,-19.00,-99.00,-10.00,+26.00,-1.00,+33.00,-23.00,+4.00
-14.00,+27.00,-1.00,-7.00,-24.00,-21.00,-8.00,-3.00,-6.00,+33.00,+4.00,-26.00,-24.00,-25.00,-8.00,+0.00
+29.00,-30.00,+7.00,+6.00,+49.00,+5.00,-4.00,+2.00,-4.00,+121.00,+12.00,-19.00,-16.00,-11.00,+13.00,-20.00
+25.00,-20.00,-12.00,-3.00,+14.00,+10.00,+36.00,+5.00,-5.00,-104.00,-14.00,+11.00,+39.00,+24.00,-26.00,-7.00
+18.00,-56.00,-5.00,-8.00,-16.00,-10.00,+10.00,-4.00,-6.00,+53.00,-5.00,-19.00,-15.00,-3.00,-67.00,-1.00
+16.00,-1.00,-8.00,-5.00,+1.00,+20.00,+15.00,-11.00,-3.00,+28.00,+4.00,+30.00,+39.00,+40.00,+11.00,-17.00
-8.00,-1.00,-3.00,+0.00,+12.00,-7.00,-1.00,-7.00,-1.00,-56.00,-11.00,+1.00,-37.00,-19.00,+43.00,+24.00
+8.00,-9.00,+3.00,+2.00,-16.00,+1.00,+10.00,-15.00,+2.00,+85.00,+20.00,-9.00,-8.00,-37.00,-28.00,+12.00
+59.00,-31.00,+3.00,+7.00,+9.00,+2.00,-30.00,+2.00,-9.00,-41.00,-11.00,-3.00,-30.00,+3.00,+0.00,-10.00
+46.00,+26.00,+7.00,-1.00,-35.00,-8.00,-33.00,-3.00,-8.00,-77.00,-4.00,+16.00,-8.00,+34.00,-53.00,+8.00
+44.00,+72.00,+5.00,-4.00,-7.00,+2.00,+27.00,+0.00,+6.00,-21.00,+0.00,-3.00,+20.00,-16.00,-10.00,-22.00
-16.00,-15.00,-7.00,-5.00,-23.00,-10.00,+22.00,-5.00,-1.00,-101.00,-25.00,-11.00,-12.00,+34.00,-16.00,-6.00
-53.00,+91.00,+9.00,+3.00,+35.00,-3.00,+10.00,+1.00,-8.00,+125.00,+18.00,+8.00,-10.00,+37.00,-16.00,-12.00
-60.00,-107.00,-13.00,-4.00,-16.00,-8.00,-24.00,+2.00,+1.00,-58.00,+5.00,+14.00,+30.00,-62.00,-29.00,+9.00
-38.00,+71.00,-1.00,+0.00,+9.00,-4.00,-89.00,+3.00,+6.00,+24.00,+9.00,+7.00,+4.00,+89.00,-27.00,-8.00
-34.00,-29.00,-3.00,-6.00,-55.00,-8.00,+17.00,-1.00,-2.00,-31.00,+2.00,-10.00,-13.00,-7.00,+45.00,+17.00
+24.00,+7.00,+1.00,+2.00,+32.00,+3.00,+25.00,+6.00,-6.00,-40.00,-13.00,+8.00,+4.00,+5.00,+9.00,-7.00
-12.00,+32.00,+15.00,+10.00,+9.00,+7.00,+22.00,+4.00,+2.00,-9.00,-7.00,+5.00,-18.00,-14.00,+19.00,+0.00
-32.00,-128.00,-14.00,-8.00,-24.00,+4.00,-40.00,-13.00,+1.00,+68.00,+7.00,+24.00,+37.00,-6.00,-68.00,+3.00
+27.00,-2.00,+7.00,-2.00,-11.00,+0.00,+40.00,+3.00,-4.00,-95.00,-23.00,-58.00,-11.00,-48.00,+28.00,-16.00
-3.00,-47.00,-5.00,-2.00,-24.00,-4.00,-92.00,-5.00,-9.00,+89.00,+31.00,+16.00,-1.00,+16.00,+42.00,+22.00
-18.00,+22.00,-5.00,-4.00,+20.00,-4.00,+27.00,-4.00,-95.00,+43.00,-6.00,-1.00,-10.00,-29.00,-46.00,-5.00
+12.00,-15.00,-11.00,-5.00,-23.00,-2.00,+5.00,-2.00,-59.00,-79.00,-9.00,-4.00,-6.00,-19.00,+59.00,+5.00
-4.00,+79.00,+4.00,+8.00,+0.00,+6.00,-70.00,+12.00,+6.00,+88.00,+15.00,+34.00,+24.00,-9.00,-44.00,-4.00
-9.00,+62.00,-13.00,-5.00,-3.00,+1.00,+93.00,+3.00,-121.00,-26.00,+9.00,-12.00,-12.00,-20.00,-20.00,+6.00
-24.00,-20.00,+20.00,+5.00,+38.00,-2.00,+14.00,-6.00,-78.00,-41.00,-4.00,-9.00,+6.00,+21.00,+25.00,+17.00
+4.00,-27.00,-12.00,-5.00,+8.00,+4.00,+102.00,+1.00,-67.00,+46.00,-6.00,-14.00,-45.00,-12.00,-12.00,-27.00
+62.00,-9.00,+4.00,-4.00,-18.00,-8.00,-40.00,+5.00,-56.00,-76.00,+3.00,+17.00,+14.00,+11.00,+25.00,+12.00
-15.00,+19.00,+3.00,+4.00,-19.00,-16.00,-11.00,-6.00,+122.00,+23.00,+17.00,+20.00,-37.00,-3.00,-44.00,+10.00
-32.00,+15.00,-4.00,+2.00,+18.00,+7.00,-29.00,+0.00,+91.00,+64.00,-13.00,-21.00,+67.00,-17.00,+80.00,+10.00
-42.00,+19.00,+10.00,+7.00,-5.00,+0.00,+61.00,+11.00,+37.00,-90.00,-24.00,-26.00,-46.00,-13.00,+20.00,-2.00
-63.00,-41.00,+1.00,-1.00,+17.00,-11.00,+38.00,-4.00,-86.00,+68.00,+18.00,+27.00,+37.00,+38.00,+57.00,-21.00
-6.00,-30.00,-6.00,-2.00,+10.00,+12.00,-32.00,-2.00,+23.00,+57.00,-9.00,-30.00,-10.00,+10.00,+20.00,-9.00
+18.00,+59.00,+8.00,-3.00,-51.00,-3.00,-73.00,-2.00,+90.00,+11.00,+9.00,+2.00,-29.00,+13.00,+10.00,+21.00
-17.00,+27.00,+12.00,+7.00,+12.00,+7.00,+55.00,-11.00,-2.00,-40.00,-18.00,+8.00,-14.00,+5.00,+77.00,-9.00
+15.00,+39.00,-8.00,+1.00,+7.00,-2.00,-28.00,-1.00,+1.00,+73.00,-10.00,-7.00,-4.00,-62.00,-20.00,+6.00
+26.00,-64.00,-3.00,-5.00,+3.00,+8.00,+51.00,+2.00,-82.00,+16.00,-3.00,-6.00,+19.00,-47.00,-1.00,-3.00
+28.00,-12.00,+6.00,+1.00,-20.00,+2.00,-5.00,-2.00,-47.00,-22.00,-10.00,+0.00,-9.00,-14.00,+5.00,-14.00
+29.00,+13.00,-2.00,-3.00,-16.00,+1.00,-3.00,+13.00,-18.00,+0.00,+14.00,+7.00,+12.00,-33.00,-44.00,+24.00
+2.00,+29.00,-3.00,+5.00,+47.00,+5.00,-11.00,-4.00,-25.00,-99.00,-18.00,-18.00,-10.00,+50.00,+3.00,-16.00
+17.00,-60.00,-5.00,-4.00,+16.00,-13.00,+9.00,-4.00,+106.00,+34.00,+0.00,+7.00,-11.00,+10.00,-34.00,-15.00
+19.00,+19.00,-9.00,+7.00,+11.00,+5.00,-23.00,+0.00,+77.00,+36.00,+8.00,-8.00,-4.00,-36.00,-66.00,-5.00
+52.00,-49.00,+0.00,-5.00,-36.00,-1.00,-31.00,+16.00,+33.00,+70.00,-6.00,+60.00,+10.00,-10.00,-54.00,-23.00
-15.00,+17.00,+5.00,+2.00,+33.00,+16.00,+46.00,-1.00,+57.00,-37.00,+0.00,-52.00,-60.00,-54.00,+81.00,-10.00
+3.00,+18.00,-13.00,-5.00,+5.00,-21.00,+3.00,+8.00,-57.00,-21.00,+5.00,+2.00,+39.00,-79.00,-14.00,+40.00
-10.00,-15.00,-6.00,-5.00,-43.00,+10.00,+28.00,+13.00,-104.00,-128.00,-11.00,+11.00,+8.00,+61.00,-92.00,-28.00
-14.00,-9.00,+6.00,+2.00,+26.00,+3.00,+46.00,+10.00,+0.00,+127.00,+56.00,-3.00,+6.00,+1.00,+32.00,+18.00
+2.00,+28.00,+6.00,-2.00,-34.00,-7.00,-5.00,-5.00,-90.00,-111.00,-15.00,+5.00,+2.00,+26.00,+28.00,+6.00
-34.00,-23.00,+6.00,+1.00,-15.00,-2.00,+23.00,+2.00,-85.00,-26.00,-16.00,-6.00,-11.00,+25.00,-56.00,-30.00
-7.00,+33.00,-7.00,-6.00,+31.00,-3.00,+27.00,-7.00,-128.00,-89.00,+14.00,+25.00,+34.00,-35.00,+82.00,-19.00
+0.00,+16.00,-11.00,-4.00,-14.00,-9.00,-33.00,-6.00,+79.00,+30.00,-14.00,-7.00,-34.00,-74.00,-89.00,+9.00
+6.00,-15.00,-2.00,-1.00,+14.00,+4.00,+44.00,+6.00,+84.00,+58.00,+18.00,-20.00,+5.00,+15.00,-51.00,+12.00
-1.00,+23.00,+9.00,-8.00,-43.00,+6.00,-86.00,-18.00,-89.00,-128.00,-34.00,-8.00,+5.00,-72.00,+50.00,+6.00
+5.00,+20.00,+9.00,+3.00,+21.00,-14.00,-15.00,-3.00,+122.00,+110.00,+18.00,+13.00,-46.00,+58.00,-57.00,-1.00
-40.00,-13.00,-3.00,+3.00,-1.00,-11.00,-63.00,-6.00,+43.00,-128.00,-36.00,-37.00,+15.00,+63.00,+74.00,-5.00
-3.00,+11.00,+10.00,+0.00,-16.00,-9.00,-30.00,-7.00,+127.00,+103.00,+21.00,+24.00,+22.00,-69.00,-43.00,+3.00
-21.00,-82.00,+3.00,+13.00,+36.00,+25.00,-9.00,+14.00,+87.00,-41.00,-8.00,-3.00,-5.00,+86.00,-20.00,-17.00
+14.00,+11.00,-5.00,-6.00,+4.00,+1.00,+51.00,-4.00,+70.00,-59.00,-11.00,+5.00,-8.00,-44.00,+49.00,+26.00
+21.00,+76.00,-3.00,-8.00,-12.00,-17.00,-2.00,-9.00,+92.00,+77.00,+24.00,+2.00,+10.00,+47.00,+27.00,-12.00
-52.00,-113.00,-9.00,+2.00,+2.00,+0.00,-65.00,+15.00,-108.00,+71.00,-2.00,+15.00,-29.00,+79.00,-42.00,+2.00
-45.00,-50.00,-2.00,+4.00,+37.00,-2.00,+58.00,-9.00,-100.00,-64.00,-2.00,-14.00,+13.00,-8.00,+65.00,-5.00
-10.00,-4.00,-2.00,+4.00,+14.00,+30.00,+3.00,+10.00,-128.00,+26.00,+1.00,-10.00,+2.00,-12.00,+14.00,+3.00
-1.00,+11.00,-4.00,-6.00,-15.00,+14.00,-78.00,-20.00,-42.00,-47.00,+10.00,-22.00,-18.00,+5.00,-91.00,+13.00
+32.00,+62.00,+10.00,+2.00,+14.00,+16.00,+50.00,+2.00,+29.00,-115.00,-13.00,+18.00,+19.00,-33.00,-66.00,-42.00
-8.00,+70.00,-10.00,-7.00,-6.00,-12.00,-26.00,-13.00,+106.00,+127.00,+36.00,+29.00,+17.00,+40.00,+21.00,+32.00
-24.00,-23.00,+13.00,+6.00,+14.00,-4.00,-79.00,-13.00,+116.00,-89.00,-14.00,-28.00,+7.00,-45.00,-19.00,-16.00
-1.00,-25.00,-18.00,-2.00,+8.00,-12.00,+91.00,+5.00,+36.00,+96.00,-7.00,-5.00,-10.00,-60.00,+45.00,+1.00
+8.00,-33.00,+10.00,+1.00,-22.00,+0.00,-5.00,+1.00,+90.00,-88.00,-10.00,+29.00,+2.00,+24.00,+7.00,-13.00
+58.00,+47.00,-9.00,+0.00,+5.00,+4.00,-50.00,-5.00,+90.00,+60.00,-9.00,-17.00,+1.00,+23.00,+20.00,+12.00
-17.00,-61.00,-11.00,-6.00,-43.00,-21.00,+14.00,-3.00,+86.00,+50.00,+11.00,+27.00,-7.00,+1.00,+40.00,+5.00
+3.00,-76.00,+3.00,-2.00,+30.00,+9.00,-14.00,-6.00,+21.00,-13.00,+3.00,-43.00,-15.00,-39.00,-50.00,-27.00
+22.00,+43.00,+6.00,+4.00,+39.00,+12.00,-84.00,+10.00,+27.00,+37.00,+1.00,+9.00,+8.00,+28.00,-6.00,+18.00
-20.00,-1.00,-2.00,+5.00,+2.00,-1.00,+51.00,-1.00,+55.00,-107.00,-9.00,+2.00,-51.00,-1.00,-19.00,-31.00
+26.00,-116.00,-17.00,-9.00,-16.00,-6.00,-52.00,-9.00,+28.00,+127.00,-1.00,-23.00,+47.00,+77.00,-75.00,+44.00
-31.00,+87.00,+29.00,+12.00,-29.00,+8.00,+8.00,+15.00,-1.00,-128.00,-2.00,+2.00,-6.00,+19.00,-11.00,+31.00
+39.00,+55.00,-17.00,-7.00,+21.00,-13.00,+23.00,+7.00,+5.00,+26.00,-4.00,-19.00,+8.00,+59.00,+76.00,-27.00
-3.00,-48.00,+17.00,+2.00,-6.00,+2.00,-128.00,-14.00,+92.00,-101.00,-7.00,-2.00,-5.00,-11.00,-37.00,+8.00
-20.00,+6.00,-17.00,-9.00,-13.00,+8.00,+89.00,+0.00,+127.00,+27.00,-5.00,-5.00,-9.00,+15.00,+65.00,+4.00
+13.00,-128.00,-6.00,-6.00,-16.00,-11.00,-48.00,-1.00,-65.00,-128.00,-30.00,+21.00,+26.00,+1.00,+48.00,-17.00
+33.00,+34.00,+3.00,+3.00,-13.00,-23.00,-76.00,+7.00,+80.00,+111.00,+35.00,-12.00,-2.00,-57.00,+32.00,+43.00
+11.00,+118.00,+13.00,+6.00,+29.00,+17.00,+6.00,-2.00,+6.00,-47.00,-14.00,+3.00,-3.00,-1.00,+11.00,-21.00
+18.00,+6.00,+3.00,+2.00,+2.00,+3.00,-68.00,+1.00,+40.00,+21.00,+12.00,+2.00,+4.00,-55.00,-88.00,-4.00
+7.00,-23.00,-15.00,-11.00,-24.00,+6.00,+82.00,+0.00,-75.00,+37.00,-2.00,+1.00,+15.00,-19.00,+30.00,+13.00
-15.00,+75.00,-2.00,-3.00,-2.00,-4.00,+7.00,-17.00,+62.00,-46.00,-38.00,+1.00,-11.00,-77.00,+57.00,-31.00
+9.00,-97.00,+30.00,+15.00,+19.00,+28.00,+43.00,+21.00,-2.00,-16.00,+22.00,+4.00,+12.00,+46.00,-3.00,+29.00
+0.00,+52.00,-24.00,-7.00,+5.00,-12.00,+11.00,-7.00,+9.00,-78.00,-9.00,-2.00,-16.00,+13.00,-2.00,+27.00
-3.00,+66.00,+20.00,+5.00,+55.00,+5.00,+49.00,-15.00,+114.00,+97.00,+6.00,-1.00,-14.00,+16.00,+8.00,+6.00
-17.00,-128.00,-22.00,-7.00,-17.00,+17.00,-41.00,-9.00,+25.00,-17.00,-4.00,+19.00,+8.00,-4.00,-39.00,-13.00
+12.00,+112.00,-6.00,-8.00,-27.00,+4.00,-19.00,+3.00,-83.00,+67.00,+5.00,-3.00,+9.00,-45.00,-75.00,-20.00
-24.00,+47.00,+20.00,+12.00,+7.00,+7.00,+33.00,+22.00,+10.00,-78.00,-18.00,-11.00,-1.00,+8.00,+41.00,-34.00
-47.00,-68.00,-21.00,-11.00,-26.00,-14.00,+13.00,-11.00,+17.00,-84.00,-7.00,-30.00,-9.00,+21.00,+11.00,+36.00
+6.00,-83.00,-11.00,-1.00,-5.00,-7.00,+16.00,+0.00,-100.00,+18.00,-3.00,-4.00,-41.00,+19.00,-78.00,-6.00
+11.00,+46.00,+6.00,+0.00,-8.00,+6.00,-32.00,-15.00,+5.00,-2.00,-27.00,+6.00,-20.00,+40.00,+72.00,+2.00
+19.00,-110.00,-18.00,-12.00,-25.00,-7.00,-3.00,-15.00,+18.00,+127.00,+26.00,+12.00,-13.00,-43.00,-17.00,+2.00
+8.00,+2.00,-6.00,+8.00,+13.00,+3.00,+31.00,+5.00,-110.00,-72.00,+9.00,+18.00,+16.00,-9.00,+15.00,-24.00
-59.00,+49.00,+35.00,+6.00,+14.00,+8.00,+86.00,-7.00,-30.00,+26.00,+6.00,-16.00,-7.00,-25.00,-44.00,+29.00
-2.00,-109.00,-14.00,-4.00,-9.00,-14.00,+42.00,+3.00,-31.00,-102.00,-3.00,-9.00,+28.00,+8.00,+46.00,-3.00
+21.00,+12.00,-3.00,-8.00,-18.00,-14.00,-14.00,-9.00,-83.00,-7.00,-24.00,-2.00,-17.00,-5.00,-9.00,-15.00
+27.00,-13.00,-13.00,+2.00,-12.00,+1.00,-25.00,+5.00,+127.00,+102.00,+22.00,+9.00,+27.00,+54.00,+47.00,-5.00
+26.00,+19.00,-8.00,-10.00,-5.00,+11.00,+8.00,-7.00,-36.00,-83.00,-24.00,-9.00,-22.00,-17.00,-9.00,+7.00
-39.00,-79.00,+5.00,-1.00,+38.00,-34.00,-17.00,-9.00,-77.00,+55.00,+9.00,+6.00,+4.00,-13.00,+8.00,-20.00
+10.00,+15.00,+9.00,+3.00,+12.00,+7.00,-21.00,+10.00,-16.00,-128.00,-4.00,-2.00,-13.00,+9.00,+42.00,+0.00
-25.00,+14.00,+7.00,-3.00,-8.00,-3.00,-107.00,-13.00,+60.00,-14.00,-4.00,-3.00,-5.00,+22.00,-13.00,-3.00
+81.00,-46.00,-7.00,-1.00,-20.00,-6.00,+65.00,-1.00,-85.00,+88.00,+24.00,+9.00,+15.00,-27.00,+60.00,+0.00
+17.00,+97.00,+9.00,-1.00,-2.00,-1.00,-46.00,+11.00,+41.00,+33.00,-3.00,-10.00,-1.00,+37.00,+8.00,+1.00
-26.00,-98.00,+0.00,+2.00,+1.00,-10.00,-16.00,-5.00,+85.00,-57.00,+8.00,+16.00,-10.00,+0.00,+69.00,-2.00
+21.00,+65.00,+26.00,+9.00,+22.00,+0.00,-79.00,+20.00,+103.00,+23.00,-18.00,+6.00,+9.00,+10.00,+45.00,+21.00
-64.00,+7.00,-20.00,-11.00,-19.00,-11.00,-118.00,-22.00,+127.00,-66.00,-8.00,-22.00,-29.00,+8.00,-91.00,-14.00
+24.00,-44.00,+3.00,+4.00,-20.00,-9.00,+109.00,+24.00,-3.00,-16.00,-2.00,-2.00,+11.00,+1.00,+41.00,+31.00
-44.00,-20.00,-3.00,-7.00,-3.00,-12.00,+2.00,-29.00,+11.00,+43.00,-12.00,+8.00,-47.00,-29.00,+58.00,+1.00
+64.00,+54.00,-3.00,-1.00,-8.00,+2.00,+43.00,+15.00,-103.00,+31.00,+15.00,+1.00,+59.00,-60.00,-45.00,-7.00
-92.00,+17.00,+5.00,+0.00,-7.00,-18.00,-4.00,-8.00,-55.00,-26.00,-4.00,+2.00,+18.00,+31.00,+32.00,+0.00
+6.00,+24.00,-17.00,-11.00,-22.00,-5.00,-98.00,-13.00,-54.00,-24.00,-19.00,-2.00,-10.00,-30.00,-58.00,+36.00
+27.00,+100.00,+24.00,+10.00,+20.00,+5.00,-13.00,+32.00,-104.00,+127.00,+12.00,-10.00,-8.00,-2.00,+12.00,-25.00
-7.00,-108.00,-21.00,-5.00,+4.00,-2.00,+75.00,-26.00,-90.00,+28.00,-2.00,+2.00,-15.00,+31.00,+18.00,+6.00
+65.00,+4.00,-8.00,+2.00,+5.00,-7.00,+79.00,+26.00,-43.00,-63.00,-12.00,-3.00,-1.00,+16.00,+119.00,+14.00
+41.00,+64.00,+32.00,-2.00,-44.00,+6.00,-6.00,+15.00,-10.00,-46.00,+1.00,+4.00,-1.00,-19.00,-5.00,-21.00
-23.00,-91.00,-21.00,+3.00,+79.00,+22.00,-15.00,-23.00,-70.00,-71.00,+10.00,+4.00,-27.00,+0.00,+103.00,+8.00
-11.00,+9.00,+7.00,+0.00,+0.00,-2.00,-93.00,-7.00,-106.00,-75.00,-15.00,-11.00,+1.00,-38.00,-54.00,-22.00
-13.00,+23.00,-6.00,-4.00,-5.00,+5.00,-69.00,-12.00,-128.00,-7.00,+7.00,-2.00,+22.00,+11.00,-66.00,-18.00
+25.00,+22.00,-5.00,+7.00,-15.00,-2.00,+110.00,+14.00,+127.00,+99.00,+0.00,+0.00,-6.00,+56.00,+33.00,+23.00
+24.00,+104.00,-6.00,-7.00,-15.00,-13.00,+127.00,+5.00,+88.00,-66.00,-9.00,-15.00,-12.00,-37.00,-117.00,-4.00
-31.00,-62.00,+22.00,+6.00,+18.00,+14.00,+113.00,+13.00,-117.00,-77.00,+6.00,+17.00,-19.00,-54.00,-18.00,-47.00
-31.00,-16.00,-17.00,-7.00,+1.00,+0.00,+20.00,-26.00,+66.00,+39.00,+18.00,-27.00,+5.00,+8.00,+14.00,+5.00
-23.00,-128.00,-24.00,-7.00,-8.00,+1.00,-30.00,-14.00,+15.00,+40.00,+16.00,+9.00,+9.00,+17.00,+15.00,+16.00
+8.00,+63.00,-4.00,-6.00,-29.00,-16.00,-88.00,-18.00,-46.00,+69.00,-15.00,-5.00,+14.00,+56.00,-86.00,-5.00
-6.00,-74.00,-22.00,-8.00,-18.00,+6.00,+13.00,+8.00,-73.00,+108.00,+29.00,+8.00,-5.00,-18.00,+38.00,+9.00
+0.00,+49.00,+21.00,+8.00,+9.00,+7.00,-81.00,+7.00,+34.00,+37.00,-12.00,-25.00,+0.00,+80.00,-5.00,-22.00
-41.00,-85.00,-23.00,-8.00,-20.00,+1.00,+76.00,-13.00,+3.00,-59.00,+0.00,-5.00,+7.00,-31.00,+31.00,-9.00
+41.00,+52.00,+4.00,+7.00,+2.00,+10.00,+80.00,+26.00,-5.00,-93.00,-20.00,+6.00,+38.00,-10.00,+10.00,+7.00
-58.00,+44.00,+6.00,-8.00,-14.00,-38.00,-128.00,-22.00,+121.00,+90.00,+13.00,-18.00,-20.00,+35.00,-31.00,-15.00
-5.00,-128.00,-17.00,-1.00,+17.00,+10.00,+24.00,+0.00,+32.00,-78.00,-15.00,+25.00,-5.00,+10.00,+49.00,+20.00
+15.00,+117.00,+19.00,+2.00,+5.00,+9.00,-49.00,+9.00,-70.00,+49.00,+9.00,+5.00,+16.00,-8.00,-73.00,-30.00
-31.00,-61.00,-1.00,+5.00,+12.00,+6.00,+36.00,-5.00,+20.00,-27.00,-11.00,-17.00,-4.00,-17.00,+3.00,+3.00
+33.00,+91.00,+21.00,+5.00,+2.00,+3.00,-52.00,+6.00,-24.00,+75.00,-4.00,+19.00,+20.00,+27.00,+34.00,-16.00
+14.00,+33.00,-18.00,-5.00,-25.00,-6.00,-69.00,-9.00,+33.00,-22.00,-8.00,-21.00,-20.00,-46.00,+10.00,+26.00
+34.00,+41.00,-1.00,-1.00,-2.00,-8.00,+19.00,+10.00,-33.00,-32.00,+9.00,-8.00,-20.00,-32.00,-71.00,-28.00
+14.00,-128.00,+3.00,-3.00,+23.00,-25.00,-22.00,+1.00,-62.00,-58.00,+2.00,+2.00,+14.00,+26.00,-10.00,+0.00
-11.00,+55.00,-7.00,-3.00,+3.00,+17.00,+53.00,+3.00,+47.00,-100.00,+0.00,+32.00,-26.00,+24.00,-32.00,+7.00
+2.00,-13.00,+3.00,-5.00,-12.00,-9.00,+89.00,+4.00,+22.00,-77.00,-23.00,-26.00,+26.00,+31.00,+15.00,-7.00
-84.00,-128.00,-37.00,-3.00,+16.00,+6.00,-19.00,-7.00,+22.00,-27.00,-15.00,+17.00,+55.00,+4.00,+80.00,+23.00
+8.00,+125.00,+39.00,+2.00,-15.00,+26.00,-6.00,+4.00,-90.00,+43.00,+38.00,-12.00,+5.00,-3.00,-55.00,-17.00
-11.00,-128.00,-21.00,-1.00,-18.00,-13.00,+50.00,+9.00,+70.00,-36.00,-16.00,-15.00,-21.00,+17.00,-25.00,+8.00
-1.00,-46.00,+8.00,-1.00,+0.00,+8.00,+46.00,+12.00,-103.00,+26.00,+3.00,+16.00,-5.00,-6.00,-69.00,+4.00
+15.00,+46.00,-42.00,-15.00,-24.00,-18.00,-14.00,-25.00,-37.00,-45.00,-17.00,-3.00,-25.00,-24.00,+40.00,-41.00
-12.00,-94.00,+10.00,+8.00,+15.00,+1.00,+71.00,+13.00,+28.00,+40.00,+8.00,-3.00,-2.00,+27.00,+2.00,+8.00
+4.00,+15.00,+15.00,+7.00,+19.00,+10.00,+58.00,-6.00,-82.00,-69.00,-15.00,+0.00,-3.00,+49.00,+10.00,+4.00
-48.00,-29.00,-10.00,-5.00,-26.00,-12.00,+21.00,-12.00,+31.00,+5.00,+2.00,-12.00,+2.00,+11.00,-65.00,-20.00
+23.00,+47.00,-6.00,-2.00,-14.00,-10.00,-39.00,-16.00,-34.00,+83.00,+9.00,-9.00,+16.00,+16.00,-31.00,+14.00
-42.00,-81.00,-18.00,-7.00,+12.00,+15.00,+80.00,-13.00,-66.00,-61.00,+5.00,+7.00,+16.00,-12.00,+29.00,+20.00
+30.00,+44.00,+8.00,+4.00,+21.00,+20.00,-59.00,-2.00,+98.00,-8.00,-16.00,-28.00,-1.00,-19.00,-5.00,-34.00
-5.00,+12.00,+3.00,+7.00,-8.00,+8.00,-2.00,-8.00,-99.00,-61.00,-7.00,+21.00,+2.00,-28.00,-103.00,-37.00
-11.00,-7.00,+23.00,+6.00,+14.00,-5.00,+39.00,+6.00,-24.00,+11.00,+23.00,+9.00,-46.00,-60.00,+53.00,+28.00
-26.00,+2.00,-21.00,-11.00,-51.00,-19.00,-22.00,-2.00,-86.00,+97.00,-5.00,-19.00,-20.00,-57.00,-18.00,-39.00
-24.00,-111.00,-9.00,-5.00,-42.00,-21.00,+14.00,-9.00,+95.00,-24.00,-6.00,-20.00,-23.00,-24.00,+46.00,+33.00
+44.00,+75.00,+1.00,+1.00,+38.00,-3.00,-26.00,+5.00,-22.00,+58.00,+29.00,+34.00,+4.00,-42.00,-22.00,+0.00
-16.00,-119.00,-10.00,-9.00,-17.00,-2.00,-97.00,-37.00,+108.00,-81.00,-14.00,-29.00,+43.00,+24.00,-49.00,-18.00
+8.00,+25.00,+16.00,+8.00,+27.00,+6.00,-70.00,+20.00,+111.00,-56.00,-13.00,+10.00,+30.00,-5.00,-20.00,+17.00
+28.00,+71.00,-10.00,-4.00,+8.00,-5.00,+41.00,+17.00,-93.00,-15.00,+16.00,-11.00,-27.00,+2.00,+40.00,+13.00
-11.00,-14.00,+19.00,+1.00,-21.00,+2.00,-2.00,+4.00,+7.00,+66.00,-3.00,+15.00,-7.00,-1.00,+64.00,-16.00
-1.00,+24.00,-7.00,-7.00,+27.00,-7.00,+14.00,-2.00,+45.00,+104.00,+6.00,-7.00,-23.00,+14.00,+19.00,-21.00
+88.00,+1.00,-26.00,-4.00,-19.00,-17.00,+1.00,-8.00,+101.00,+20.00,-5.00,+2.00,-11.00,+25.00,-3.00,+8.00
+13.00,+58.00,+43.00,+8.00,-7.00,-6.00,+10.00,+1.00,+17.00,-44.00,-12.00,-2.00,+29.00,+36.00,+8.00,+0.00
-38.00,-75.00,-6.00,-4.00,-12.00,-2.00,-27.00,-8.00,-16.00,+72.00,+7.00,+21.00,-43.00,+14.00,+14.00,-8.00
-54.00,+80.00,+3.00,-3.00,+17.00,+22.00,-2.00,-4.00,-32.00,-99.00,+8.00,-2.00,+68.00,-40.00,-30.00,+14.00
-56.00,+45.00,-4.00,+2.00,-30.00,+1.00,-13.00,-7.00,+107.00,+59.00,-10.00,-37.00,-24.00,+52.00,+26.00,-18.00
-22.00,+3.00,-5.00,-1.00,+30.00,-2.00,-48.00,-8.00,+54.00,-100.00,-18.00,+5.00,+22.00,-102.00,-108.00,-18.00
-62.00,-83.00,-5.00,+0.00,-27.00,+12.00,+4.00,-5.00,-37.00,+78.00,+25.00,+6.00,-19.00,+4.00,+37.00,+17.00
-3.00,+86.00,+23.00,+13.00,+38.00,+7.00,+22.00,+15.00,+81.00,+59.00,-6.00,+6.00,-20.00,-20.00,+54.00,-6.00
+4.00,-25.00,-2.00,-8.00,-18.00,-3.00,-45.00,-1.00,+95.00,+27.00,+0.00,+17.00,-32.00,-5.00,-95.00,+29.00
-3.00,+0.00,-36.00,-8.00,-18.00,-15.00,+34.00,-3.00,-109.00,+92.00,+6.00,-20.00,-3.00,+11.00,+3.00,+1.00
+27.00,+77.00,+27.00,+6.00,+20.00,-6.00,+50.00,+28.00,+35.00,+6.00,-8.00,-4.00,+40.00,-16.00,+19.00,+3.00
-5.00,-23.00,+1.00,-4.00,-15.00,-12.00,+4.00,-17.00,-46.00,-71.00,-13.00,-6.00,-29.00,+25.00,-28.00,-14.00
-15.00,+39.00,-13.00,-8.00,-41.00,-19.00,-128.00,-12.00,-128.00,-30.00,+2.00,+12.00,+20.00,+20.00,-56.00,-5.00
+55.00,-40.00,+27.00,+19.00,+77.00,+3.00,-9.00,+51.00,-1.00,-51.00,-32.00,-3.00,-19.00,-22.00,-17.00,-13.00
-20.00,-62.00,-30.00,-7.00,+15.00,-14.00,+5.00,-18.00,+110.00,-21.00,+10.00,-4.00,-1.00,-22.00,-9.00,+19.00
-16.00,-126.00,-7.00,+3.00,+9.00,+16.00,+22.00,+18.00,-70.00,-2.00,+2.00,-2.00,-9.00,+53.00,-64.00,-10.00
-21.00,+127.00,+20.00,+8.00,+12.00,+7.00,-9.00,+16.00,-62.00,-95.00,-3.00,+6.00,+2.00,-35.00,-16.00,-30.00
-34.00,+26.00,-14.00,-10.00,-37.00,-7.00,-121.00,-25.00,+47.00,-52.00,+10.00,+13.00,+4.00,+1.00,-81.00,+16.00
+27.00,-3.00,+10.00,-2.00,-16.00,+7.00,+67.00,+5.00,+60.00,-6.00,-5.00,-5.00,+3.00,+32.00,+87.00,+18.00
+10.00,+38.00,+4.00,+3.00,+14.00,-14.00,+4.00,+17.00,+26.00,+8.00,-7.00,-7.00,-14.00,-30.00,-35.00,-18.00
-78.00,-128.00,-15.00,-4.00,-4.00,+7.00,-20.00,-17.00,+8.00,+67.00,-3.00,-5.00,+28.00,+8.00,+8.00,-15.00
-67.00,-100.00,-11.00,-6.00,-9.00,+2.00,-14.00,-13.00,+24.00,+59.00,+5.00,-1.00,-37.00,+12.00,+34.00,+10.00
+16.00,+87.00,+30.00,+5.00,+18.00,+2.00,-17.00,+20.00,-97.00,-63.00,+4.00,+18.00,+10.00,-23.00,+35.00,-4.00
+14.00,+15.00,-5.00,-13.00,-35.00,+4.00,-66.00,-31.00,+127.00,+11.00,-13.00,-28.00,-31.00,-18.00,+13.00,+28.00
+50.00,-91.00,-7.00,+0.00,+6.00,+0.00,-29.00,-1.00,-128.00,-102.00,+13.00,+5.00,+15.00,-6.00,+17.00,+10.00
+105.00,+88.00,+6.00,+1.00,-1.00,+1.00,+99.00,+8.00,-42.00,+102.00,+9.00,-5.00,+9.00,+6.00,-20.00,-7.00
+1.00,-26.00,+8.00,-4.00,-6.00,-14.00,-12.00,+0.00,-1.00,+34.00,+13.00,-6.00,-11.00,+5.00,-22.00,-12.00
+33.00,+7.00,+3.00,+4.00,-14.00,-9.00,-23.00,+28.00,+37.00,-96.00,-13.00,+17.00,-1.00,-25.00,-57.00,+27.00
-6.00,-12.00,+2.00,+4.00,+43.00,+19.00,+61.00,-3.00,+4.00,+94.00,+1.00,-1.00,-9.00,-5.00,-8.00,+3.00
+0.00,+17.00,-8.00,-8.00,-8.00,-1.00,-34.00,-22.00,-42.00,+18.00,-3.00,-5.00,+8.00,+17.00,-15.00,-18.00
-12.00,-41.00,-8.00,-6.00,-25.00,-11.00,-58.00,+4.00,+62.00,-33.00,-10.00,+4.00,+2.00,+41.00,-37.00,+7.00
+21.00,-52.00,+19.00,+6.00,+31.00,+9.00,-17.00,+9.00,+13.00,+127.00,+22.00,+1.00,+14.00,+19.00,+5.00,+0.00
-16.00,-125.00,-20.00,-6.00,-8.00,-13.00,-98.00,-13.00,+72.00,+51.00,-10.00,-1.00,+28.00,+13.00,+6.00,+27.00
-8.00,+61.00,+5.00,-2.00,-1.00,+2.00,-23.00,-10.00,-30.00,-48.00,+3.00,+11.00,-2.00,-13.00,+104.00,-10.00
-11.00,+113.00,+9.00,+12.00,+11.00,+16.00,-24.00,-1.00,+83.00,+101.00,+8.00,-10.00,+10.00,-32.00,+11.00,+33.00
+1.00,+14.00,+3.00,-1.00,-13.00,-26.00,+73.00,-4.00,+14.00,-76.00,-12.00,+4.00,-1.00,-11.00,+17.00,-28.00
-6.00,+2.00,+5.00,+3.00,-4.00,-1.00,+30.00,+11.00,+23.00,+2.00,-10.00,+5.00,-13.00,-10.00,+67.00,+21.00
-27.00,+37.00,+17.00,-4.00,-10.00,-6.00,+34.00,+7.00,+13.00,+33.00,+7.00,+5.00,+10.00,-26.00,-4.00,-6.00
+9.00,-59.00,-22.00,-6.00,+8.00,-2.00,-48.00,-10.00,-94.00,-64.00,-6.00,-8.00,+1.00,+9.00,-27.00,-31.00
-10.00,+65.00,-9.00,-3.00,-12.00,+5.00,-38.00,+0.00,-48.00,-23.00,-3.00,+3.00,-4.00,+9.00,+8.00,+13.00
-1.00,-51.00,+6.00,+1.00,-13.00,-12.00,+54.00,-2.00,+17.00,-50.00,+16.00,+10.00,-14.00,+25.00,+82.00,+16.00
+15.00,-43.00,-25.00,-4.00,-13.00,-4.00,+32.00,+12.00,+63.00,+28.00,+9.00,+2.00,+31.00,+13.00,-2.00,-6.00
+26.00,+20.00,+30.00,+8.00,+15.00,-12.00,-18.00,+8.00,+44.00,-89.00,-26.00,-17.00,-12.00,+13.00,-11.00,-15.00
-14.00,-74.00,+3.00,+0.00,-5.00,+8.00,+46.00,-9.00,-128.00,+24.00,+15.00,+6.00,-4.00,+20.00,-70.00,-15.00
+38.00,+72.00,+2.00,+3.00,+1.00,-17.00,+92.00,+11.00,-3.00,+54.00,+12.00,-1.00,-2.00,+0.00,+70.00,-18.00
-11.00,-6.00,-17.00,-6.00,-14.00,-7.00,+27.00,+1.00,+69.00,-66.00,-4.00,-1.00,-1.00,-1.00,-8.00,+42.00
-31.00,-57.00,-4.00,+2.00,+24.00,+20.00,-71.00,-15.00,+35.00,+11.00,-1.00,+1.00,+4.00,+26.00,-62.00,-1.00
-13.00,-14.00,-20.00,-5.00,-11.00,-2.00,-61.00,-11.00,+61.00,-30.00,-12.00,-2.00,-4.00,+9.00,+57.00,-8.00
+26.00,+53.00,+7.00,-1.00,-8.00,-5.00,-82.00,+0.00,-44.00,-128.00,-14.00,+0.00,-8.00,-44.00,+23.00,-5.00
+21.00,+96.00,+5.00,-2.00,-3.00,-5.00,+33.00,+8.00,-63.00,+95.00,+16.00,+4.00,+10.00,+9.00,+1.00,-10.00
+116.00,+3.00,+5.00,+7.00,+10.00,+15.00,+91.00,+19.00,-31.00,+18.00,-2.00,-11.00,-15.00,-12.00,-61.00,+1.00
-12.00,-22.00,-8.00,+1.00,-3.00,+8.00,+21.00,+0.00,+60.00,-14.00,-11.00,+0.00,-25.00,+20.00,+22.00,-3.00
-28.00,-1.00,-13.00,-11.00,+0.00,-2.00,+12.00,-2.00,-81.00,+59.00,+5.00,-5.00,+7.00,-30.00,+21.00,-19.00
-31.00,-55.00,+15.00,+3.00,-2.00,+0.00,+9.00,+12.00,+28.00,+60.00,+1.00,-3.00,+3.00,+32.00,-85.00,+24.00
-45.00,-22.00,-17.00,-4.00,-2.00,-4.00,+6.00,+3.00,-56.00,-128.00,+0.00,+11.00,+5.00,-1.00,-18.00,+1.00
-62.00,-83.00,+13.00,+5.00,+5.00,-3.00,+37.00,+1.00,+12.00,+32.00,+10.00,+7.00,-1.00,-54.00,+8.00,-12.00
+9.00,+32.00,+13.00,+1.00,-3.00,+18.00,+9.00,+12.00,+29.00,-41.00,-23.00,-12.00,+10.00,-15.00,-30.00,+10.00
-27.00,-103.00,-28.00,-9.00,-6.00,-5.00,-66.00,-27.00,-10.00,+32.00,+13.00,+1.00,-3.00,+21.00,+47.00,-17.00
+60.00,+88.00,+40.00,+7.00,+5.00,+4.00,+24.00,+19.00,+21.00,-96.00,-20.00,-4.00,+9.00,+4.00,+49.00,+23.00
+46.00,+80.00,-4.00,-2.00,-18.00,+4.00,-21.00,+6.00,-114.00,+12.00,+21.00,+8.00,+7.00,+1.00,+12.00,-9.00
+3.00,+29.00,+6.00,-1.00,+7.00,-11.00,-6.00,-8.00,+74.00,-14.00,-7.00,+1.00,-11.00,-5.00,-66.00,-10.00
+9.00,-27.00,+4.00,+0.00,+3.00,+2.00,+57.00,-12.00,+22.00,-11.00,+5.00,-1.00,-3.00,+7.00,-30.00,+12.00
-23.00,-32.00,-35.00,-7.00,+2.00,+1.00,-71.00,-14.00,-26.00,-101.00,-38.00,-7.00,-1.00,+5.00,+60.00,-2.00
+43.00,+43.00,+10.00,+2.00,+0.00,-12.00,-29.00,+13.00,+29.00,+81.00,+6.00,-5.00,-2.00,+13.00,-43.00,-23.00
+17.00,+37.00,+13.00,+1.00,-4.00,-8.00,+32.00,+24.00,-21.00,+87.00,+16.00,+4.00,+0.00,+31.00,+3.00,-13.00
-1.00,+30.00,-16.00,-5.00,-24.00,-1.00,+84.00,+21.00,+42.00,-91.00,-5.00,-1.00,-4.00,+15.00,-18.00,+16.00
-29.00,-72.00,+19.00,+7.00,+17.00,-7.00,+60.00,+8.00,+76.00,+127.00,+9.00,-1.00,-7.00,-67.00,+24.00,+5.00
-21.00,-66.00,-20.00,-4.00,+4.00,-8.00,+10.00,-12.00,-17.00,-119.00,-16.00,-5.00,+9.00,+11.00,-27.00,+3.00
+26.00,-34.00,+0.00,-4.00,-4.00,+2.00,-62.00,-30.00,-75.00,+17.00,-3.00,-5.00,-17.00,+10.00,+25.00,-5.00
+8.00,-59.00,+2.00,+8.00,+18.00,+8.00,-119.00,-18.00,-53.00,+71.00,-20.00,-5.00,-6.00,-22.00,-11.00,-20.00
-55.00,-38.00,-16.00,-8.00,-9.00,-7.00,-19.00,-23.00,+69.00,-78.00,+14.00,+8.00,+14.00,-23.00,+5.00,+12.00
+3.00,+32.00,+5.00,+3.00,+10.00,+9.00,+23.00,+0.00,-5.00,-43.00,-7.00,-14.00,+4.00,+2.00,+24.00,+4.00
-50.00,-92.00,-12.00,-8.00,-7.00,-14.00,-64.00,-19.00,-73.00,+29.00,+5.00,+7.00,-17.00,-22.00,-33.00,-11.00
+14.00,+97.00,+1.00,-3.00,-6.00,-5.00,-14.00,-11.00,-17.00,-3.00,+0.00,+16.00,+22.00,-30.00,-52.00,-4.00
+3.00,-59.00,-4.00,+2.00,-2.00,+4.00,+34.00,-1.00,-119.00,-34.00,+6.00,-31.00,-1.00,-2.00,+23.00,-24.00
-11.00,-13.00,+10.00,-1.00,+17.00,+4.00,+31.00,+0.00,+18.00,+90.00,+26.00,+26.00,+24.00,+7.00,+19.00,+26.00
-16.00,-61.00,-20.00,-2.00,-10.00,-6.00,+17.00,-4.00,+71.00,-82.00,-22.00,-12.00,-31.00,+35.00,-59.00,+1.00
+2.00,-68.00,-2.00,-2.00,-7.00,+5.00,-19.00,+3.00,-90.00,-2.00,-6.00,-34.00,-38.00,-38.00,+14.00,-10.00
+28.00,-6.00,-5.00,-2.00,-9.00,+5.00,+74.00,+2.00,+68.00,-63.00,-4.00,+5.00,-12.00,+39.00,-119.00,-9.00
-11.00,-65.00,-9.00,-7.00,-3.00,-11.00,-97.00,-8.00,-48.00,-88.00,+8.00,+2.00,+7.00,+69.00,-15.00,+9.00
-17.00,+25.00,-9.00,-3.00,-31.00,+10.00,-13.00,+1.00,-80.00,+33.00,+12.00,+4.00,+7.00,-34.00,+3.00,-2.00
+37.00,+117.00,+24.00,+10.00,+59.00,+27.00,-20.00,+6.00,+74.00,-55.00,-12.00,+10.00,-5.00,+42.00,+29.00,+0.00
-4.00,-43.00,-15.00,-5.00,-10.00,-35.00,-5.00,-4.00,-117.00,-53.00,-11.00,+6.00,-6.00,+28.00,+36.00,-10.00
+1.00,+87.00,+29.00,+3.00,-6.00,+7.00,-63.00,+1.00,-9.00,-11.00,-10.00,-12.00,-8.00,+3.00,+11.00,+10.00
-3.00,+78.00,-19.00,-3.00,+8.00,-1.00,-12.00,+3.00,+85.00,+127.00,+15.00,+14.00,-16.00,+1.00,+9.00,-4.00
-38.00,-128.00,+13.00,+10.00,-18.00,-11.00,+50.00,-1.00,+60.00,-17.00,+8.00,-1.00,+23.00,+33.00,+76.00,+20.00
-2.00,+124.00,+4.00,+0.00,+31.00,+15.00,-62.00,-13.00,-31.00,-30.00,+4.00,-14.00,+10.00,-10.00,-1.00,-20.00
-10.00,-8.00,-13.00,-4.00,-1.00,+5.00,-59.00,+2.00,-81.00,-58.00,-9.00,+21.00,-15.00,-33.00,+30.00,+2.00
-33.00,+105.00,+21.00,+4.00,+19.00,+6.00,-9.00,-6.00,-43.00,-2.00,+10.00,-15.00,+10.00,+16.00,-69.00,-4.00
-29.00,+4.00,-37.00,-11.00,-12.00,-22.00,-25.00,-21.00,-52.00,-115.00,-20.00,+28.00,+60.00,-75.00,+3.00,-15.00
+34.00,+126.00,+23.00,+2.00,-13.00,+19.00,+64.00,+13.00,+85.00,+127.00,+10.00,-20.00,-49.00,+24.00,+1.00,+31.00
-17.00,-125.00,-35.00,-10.00,-27.00,-9.00,-2.00,-13.00,-12.00,-49.00,-11.00,-5.00,-23.00,+5.00,-15.00,+1.00
+106.00,+75.00,+48.00,+12.00,+4.00,+14.00,+121.00,+23.00,+123.00,-5.00,+4.00,-13.00,+26.00,+7.00,+10.00,+14.00
-31.00,-106.00,-8.00,-2.00,-2.00,+10.00,-28.00,-6.00,-128.00,-81.00,-17.00,+6.00,-3.00,-1.00,+11.00,-24.00
+99.00,+49.00,-29.00,-6.00,+11.00,-18.00,-32.00,+1.00,+43.00,+96.00,+28.00,+33.00,+17.00,-17.00,+65.00,+3.00
+125.00,-44.00,+16.00,+7.00,+12.00,+12.00,+46.00,-3.00,-4.00,-62.00,-30.00,-29.00,-19.00,+22.00,-13.00,+8.00
+20.00,-3.00,-19.00,-8.00,+13.00,+0.00,-27.00,-8.00,-95.00,-128.00,-18.00,+11.00,+32.00,-40.00,+23.00,-16.00
-60.00,+40.00,+13.00,-2.00,-32.00,+3.00,-52.00,+9.00,-11.00,+12.00,+9.00,+15.00,-21.00,+14.00,-2.00,+17.00
-128.00,-124.00,-12.00,+4.00,+14.00,-13.00,-43.00,-17.00,-102.00,+49.00,+8.00,-30.00,+18.00,+5.00,-51.00,-1.00
-69.00,+105.00,+4.00,-10.00,-3.00,-3.00,+22.00,+1.00,+37.00,+127.00,+20.00,+18.00,-6.00,-18.00,+8.00,-12.00
-96.00,-110.00,+4.00,+12.00,+58.00,+16.00,-46.00,-6.00,+15.00,+32.00,-1.00,-29.00,+66.00,-3.00,+4.00,-9.00
-86.00,+18.00,+14.00,-1.00,+5.00,+5.00,+34.00,+9.00,+62.00,+1.00,+15.00,+3.00,-23.00,-24.00,+10.00,+6.00
-123.00,-15.00,-36.00,-13.00,+3.00,+1.00,+27.00,-22.00,+24.00,-62.00,-16.00,-28.00,+4.00,-10.00,-16.00,+7.00
-16.00,-71.00,+17.00,+11.00,-12.00,-19.00,+26.00,+22.00,-65.00,+33.00,-11.00,+29.00,+7.00,-47.00,+32.00,-6.00
-4.00,+33.00,-25.00,-8.00,-40.00,+1.00,-19.00,+5.00,+93.00,-128.00,-44.00,-19.00,-26.00,-8.00,-27.00,+21.00
+59.00,-38.00,-1.00,+1.00,+32.00,+33.00,-58.00,+10.00,-25.00,+94.00,+21.00,+0.00,-29.00,-12.00,-20.00,-6.00
+11.00,+69.00,+10.00,+1.00,-14.00,+5.00,-77.00,+2.00,-1.00,+20.00,+11.00,+12.00,+9.00,+34.00,+62.00,-10.00
+4.00,-49.00,-19.00,-3.00,-5.00,+2.00,+78.00,+1.00,+113.00,-53.00,-3.00,+31.00,+5.00,-18.00,-101.00,+17.00
+125.00,+119.00,+50.00,+11.00,+20.00,-9.00,+3.00,+17.00,-58.00,-128.00,-10.00,-33.00,-51.00,+6.00,+57.00,-14.00
+89.00,-128.00,-17.00,-2.00,-21.00,-18.00,+3.00,-12.00,-31.00,-56.00,-20.00,-6.00,+29.00,+12.00,-10.00,-28.00
+55.00,+82.00,+5.00,-3.00,+18.00,-15.00,+28.00,+1.00,+61.00,-111.00,+5.00,+20.00,-43.00,-11.00,+26.00,+53.00
-39.00,-37.00,-21.00,-7.00,-21.00,+14.00,-37.00,-7.00,-48.00,+93.00,+16.00,-40.00,+57.00,-27.00,-19.00,-5.00
-86.00,-128.00,-6.00,+3.00,+18.00,+7.00,+60.00,+6.00,-11.00,-55.00,-9.00,+23.00,-43.00,-9.00,+39.00,+10.00
-46.00,+123.00,+30.00,+0.00,-38.00,-12.00,+3.00,-2.00,+5.00,+10.00,+19.00,+0.00,-10.00,-41.00,-33.00,+13.00
-20.00,-115.00,+7.00,+1.00,+2.00,-1.00,-17.00,-7.00,-48.00,-28.00,-26.00,+10.00,+42.00,-29.00,-72.00,-22.00
-43.00,+72.00,-12.00,-8.00,+3.00,+2.00,-6.00,+0.00,-20.00,+97.00,+10.00,+6.00,-32.00,+20.00,+62.00,-16.00
-49.00,-106.00,-23.00,-1.00,-14.00,-45.00,-23.00,-10.00,+86.00,+31.00,+21.00,+14.00,-1.00,+16.00,-5.00,+6.00
-11.00,-42.00,-3.00,-10.00,-34.00,+7.00,-21.00,-7.00,+37.00,-41.00,-18.00,-33.00,-5.00,+0.00,-11.00,-13.00
+51.00,+71.00,+19.00,+9.00,+31.00,+18.00,-19.00,+12.00,-2.00,-73.00,-3.00,+49.00,-17.00,-21.00,-55.00,-5.00
-21.00,-80.00,-8.00,+0.00,+32.00,-7.00,-16.00,-4.00,+82.00,+31.00,+7.00,-34.00,+10.00,-60.00,-20.00,+8.00
+9.00,-35.00,+7.00,-6.00,-42.00,+3.00,-107.00,+1.00,-61.00,-74.00,-6.00,-10.00,+13.00,+14.00,-27.00,+9.00
+7.00,-36.00,+0.00,+14.00,+54.00,+19.00,+45.00,+8.00,-82.00,+50.00,+20.00,+5.00,-13.00,+9.00,-10.00,-42.00
-53.00,-128.00,-40.00,-18.00,-31.00,-31.00,-82.00,-27.00,+57.00,-11.00,-5.00,-12.00,-8.00,-4.00,+15.00,+21.00
+21.00,+26.00,+33.00,+13.00,+25.00,+13.00,+95.00,+24.00,-109.00,-23.00,+18.00,-16.00,-41.00,+12.00,+1.00,+0.00
-7.00,+38.00,-12.00,-10.00,-27.00,-20.00,+43.00,-16.00,-86.00,-27.00,+12.00,+42.00,+57.00,-35.00,-80.00,-17.00
-15.00,+28.00,-33.00,-11.00,-25.00,-17.00,-16.00,-5.00,+57.00,-26.00,-13.00,-3.00,-22.00,-2.00,+97.00,+1.00
+4.00,+29.00,+2.00,-5.00,-30.00,+6.00,-83.00,-4.00,+10.00,-82.00,-14.00,-8.00,-68.00,-22.00,-77.00,-23.00
+20.00,-105.00,+8.00,+8.00,+29.00,-11.00,-77.00,-5.00,+16.00,+67.00,+4.00,-23.00,+43.00,+18.00,+32.00,-4.00
-8.00,+116.00,+5.00,-2.00,-8.00,+9.00,+120.00,-7.00,-104.00,+69.00,+5.00,+53.00,-16.00,-5.00,+43.00,-15.00
+25.00,+72.00,+11.00,+0.00,-8.00,-16.00,-4.00,+5.00,+71.00,-81.00,-10.00,-41.00,+13.00,+38.00,+13.00,+27.00
+21.00,-118.00,+5.00,+3.00,-10.00,+3.00,+67.00,+23.00,-95.00,+68.00,+14.00,-45.00,-39.00,+26.00,+77.00,-26.00
-4.00,+52.00,-21.00,-6.00,-11.00,-21.00,+28.00,-8.00,+107.00,-128.00,-34.00,+12.00,+1.00,+11.00,-33.00,+13.00
+9.00,+32.00,+21.00,+3.00,+32.00,+12.00,-6.00,+11.00,-26.00,+127.00,+39.00,+0.00,-30.00,-86.00,+27.00,-29.00
+33.00,-9.00,-7.00,+2.00,+26.00,+6.00,-34.00,+0.00,-3.00,+11.00,-4.00,-19.00,-2.00,-21.00,+38.00,+13.00
+1.00,+12.00,-13.00,-8.00,-23.00,-7.00,+54.00,+12.00,+33.00,+127.00,+17.00,+44.00,+40.00,+12.00,+9.00,+2.00
-4.00,-37.00,+17.00,+3.00,-49.00,-1.00,+2.00,+16.00,-63.00,-96.00,-13.00,-13.00,-33.00,+31.00,-16.00,-4.00
-31.00,-104.00,-25.00,-3.00,+67.00,+15.00,-32.00,-4.00,+39.00,-119.00,-28.00,-15.00,+66.00,+42.00,+33.00,-13.00
+14.00,+11.00,-15.00,+1.00,+28.00,-14.00,+107.00,+7.00,+15.00,+93.00,+23.00,+8.00,-28.00,-68.00,-73.00,+21.00
+10.00,+69.00,+5.00,-3.00,-25.00,-11.00,+12.00,-12.00,+119.00,-55.00,-48.00,-22.00,+23.00,-7.00,+7.00,+17.00
-18.00,+54.00,+11.00,+8.00,+16.00,+22.00,-117.00,-17.00,-48.00,+127.00,+57.00,+27.00,+23.00,-4.00,+43.00,+0.00
+22.00,-15.00,+1.00,+4.00,+14.00,-9.00,-43.00,-19.00,+8.00,+83.00,+7.00,+4.00,-45.00,+12.00,-25.00,-16.00
-7.00,-46.00,+1.00,-9.00,-37.00,+3.00,+9.00,-5.00,-22.00,-108.00,-23.00,+16.00,-3.00,+34.00,-13.00,+1.00
-19.00,+21.00,-13.00,+4.00,+22.00,+3.00,+25.00,-24.00,-60.00,+110.00,-8.00,-18.00,-5.00,-7.00,-25.00,+0.00
+3.00,-28.00,+13.00,-4.00,-12.00,-4.00,+22.00,-5.00,+7.00,-128.00,-31.00,+4.00,+23.00,+54.00,+35.00,-30.00
-20.00,+5.00,-34.00,-2.00,-20.00,-2.00,+49.00,+4.00,+75.00,+104.00,-7.00,-25.00,-57.00,-11.00,-48.00,+32.00
+76.00,+62.00,+53.00,+10.00,-16.00,-13.00,-49.00,+26.00,-125.00,-5.00,+4.00,+17.00,+19.00,+4.00,-112.00,-29.00
-54.00,-128.00,-19.00,-8.00,+3.00,-3.00,-66.00,+1.00,+8.00,-34.00,+0.00,+0.00,-17.00,+28.00,-12.00,+13.00
-3.00,+92.00,+23.00,+10.00,+32.00,+13.00,+53.00,-2.00,-52.00,+55.00,+24.00,+8.00,+16.00,-24.00,-75.00,-25.00
-32.00,-121.00,+4.00,-10.00,-20.00,-7.00,+33.00,+1.00,-44.00,-85.00,+8.00,-16.00,+9.00,+27.00,-43.00,+20.00
-16.00,+10.00,-28.00,+3.00,+3.00,-3.00,-28.00,-6.00,+81.00,+49.00,-4.00,+12.00,-24.00,+15.00,+76.00,+15.00
+4.00,-3.00,+4.00,-2.00,-34.00,+0.00,+15.00,+1.00,+67.00,-25.00,-16.00,+26.00,-12.00,-19.00,-17.00,-4.00
+10.00,-17.00,-12.00,-10.00,-30.00,-25.00,-27.00,+1.00,-42.00,+43.00,+6.00,-43.00,-12.00,-31.00,-37.00,-16.00
-7.00,+32.00,+6.00,+1.00,+8.00,+1.00,-26.00,-12.00,+89.00,+55.00,+6.00,+29.00,+12.00,+14.00,+44.00,+17.00
-23.00,-77.00,-11.00,-6.00,-26.00,-7.00,+0.00,-3.00,+38.00,+1.00,-11.00,-23.00,+43.00,-12.00,+17.00,+3.00
+27.00,+2.00,+24.00,+4.00,-3.00,+17.00,-98.00,-2.00,+19.00,+99.00,+31.00,+10.00,-6.00,+20.00,+44.00,+3.00
-19.00,+71.00,-12.00,-2.00,+6.00,-5.00,-23.00,-8.00,-68.00,-105.00,-17.00,+9.00,+3.00,+6.00,-10.00,-17.00
-5.00,-56.00,+0.00,+1.00,-12.00,-1.00,-5.00,+24.00,-35.00,-80.00,-33.00,-3.00,-16.00,-54.00,+15.00,-4.00
+19.00,-14.00,-9.00,-4.00,-2.00,-9.00,-49.00,-11.00,+37.00,+2.00,+35.00,+22.00,-1.00,-6.00,-39.00,+24.00
+9.00,+64.00,+15.00,+8.00,+11.00,+2.00,+72.00,+10.00,+32.00,+0.00,+7.00,-22.00,+44.00,-12.00,-36.00,+4.00
+15.00,-91.00,-3.00,-3.00,+15.00,+21.00,+78.00,+6.00,-56.00,-58.00,-25.00,+15.00,-33.00,-10.00,-10.00,-7.00
-50.00,-58.00,-25.00,-12.00,-20.00,+4.00,-50.00,-25.00,-9.00,-89.00,+2.00,-40.00,+24.00,+7.00,+21.00,+1.00
-13.00,-50.00,-4.00,+5.00,+28.00,-1.00,-10.00,-15.00,+11.00,-64.00,-23.00,-1.00,-1.00,+21.00,-90.00,-9.00
+15.00,-83.00,+17.00,+12.00,+0.00,+20.00,+64.00,+24.00,-128.00,-83.00,+4.00,+7.00,+1.00,+3.00,-44.00,-10.00
+1.00,+55.00,-8.00,-9.00,-30.00,-25.00,-49.00,-10.00,+112.00,-36.00,-9.00,+15.00,-24.00,-23.00,+25.00,+20.00
-7.00,+49.00,-17.00,+3.00,+10.00,-1.00,+19.00,+7.00,-53.00,+70.00,+7.00,-10.00,-17.00,+19.00,-48.00,-18.00
+33.00,+87.00,+9.00,+3.00,+10.00,+11.00,+52.00,+12.00,-4.00,-13.00,-7.00,-10.00,+10.00,-7.00,+20.00,+0.00
-16.00,-58.00,-15.00,-16.00,-18.00,-3.00,-78.00,-33.00,-75.00,-29.00,-1.00,+7.00,-29.00,-45.00,+22.00,-8.00
+21.00,-9.00,+10.00,+7.00,-8.00,-1.00,-57.00,+24.00,-34.00,+126.00,+0.00,-16.00,+8.00,-4.00,-19.00,-3.00
+8.00,+39.00,+5.00,+9.00,+36.00,-2.00,-27.00,+5.00,-85.00,-48.00,-5.00,+7.00,-8.00,+48.00,-49.00,-4.00
-52.00,-17.00,-22.00,-18.00,-41.00,-15.00,+10.00,-10.00,+33.00,+24.00,-8.00,+11.00,+19.00,-19.00,+37.00,+10.00
+67.00,+119.00,+29.00,+12.00,+39.00,+9.00,-36.00,+1.00,+69.00,-96.00,-2.00,-22.00,-18.00,+11.00,-34.00,+3.00
+2.00,-95.00,-5.00,-3.00,+5.00,-15.00,-39.00,+1.00,+32.00,+69.00,+13.00,-9.00,-8.00,+15.00,+8.00,-12.00
+25.00,-48.00,-8.00,-3.00,-9.00,+5.00,+47.00,-5.00,+79.00,-50.00,+13.00,+9.00,+8.00,-1.00,+55.00,+16.00
+2.00,+102.00,+34.00,+4.00,+22.00,+9.00,-64.00,+10.00,-65.00,-33.00,+12.00,-18.00,-73.00,+3.00,-10.00,-23.00
-16.00,-70.00,-13.00,+3.00,+25.00,+1.00,+2.00,+11.00,-4.00,+76.00,-13.00,+0.00,+53.00,+1.00,+71.00,-1.00
-21.00,-22.00,-10.00,-8.00,-8.00,-6.00,+18.00,-9.00,+106.00,-88.00,-4.00,+9.00,+3.00,+14.00,-2.00,+13.00
+22.00,+17.00,+16.00,-5.00,-26.00,+4.00,+16.00,-4.00,+90.00,-26.00,-20.00,-7.00,+3.00,-13.00,+34.00,+15.00
-7.00,-77.00,-17.00,+4.00,+37.00,+7.00,+8.00,-21.00,-28.00,-42.00,+28.00,+30.00,+1.00,+13.00,+18.00,-4.00
-20.00,-30.00,-15.00,-11.00,-41.00,-24.00,+63.00,-7.00,+1.00,-76.00,-9.00,-19.00,+1.00,-23.00,+54.00,-21.00
+6.00,+115.00,+23.00,-1.00,+1.00,+0.00,+54.00,+11.00,-14.00,-112.00,-28.00,-18.00,-26.00,+10.00,-33.00,+12.00
+17.00,-33.00,-3.00,+1.00,+40.00,+4.00,+3.00,+14.00,+29.00,+127.00,+34.00,+15.00,-26.00,-2.00,+35.00,+4.00
+8.00,+7.00,-12.00,-3.00,-1.00,+0.00,-12.00,-7.00,-56.00,-92.00,-31.00,-12.00,+1.00,+15.00,+6.00,+7.00
+27.00,+86.00,+12.00,+5.00,-1.00,+1.00,+2.00,+36.00,-33.00,+26.00,+4.00,+6.00,+8.00,+1.00,-43.00,-3.00
-7.00,-48.00,-28.00,-1.00,+8.00,-5.00,+20.00,-5.00,+50.00,+37.00,+1.00,+4.00,+13.00,-22.00,-3.00,+0.00
-2.00,-83.00,+16.00,+0.00,-21.00,+9.00,+50.00,+7.00,-10.00,-128.00,-25.00,+10.00,-4.00,+14.00,-7.00,+1.00
-21.00,-22.00,-1.00,-1.00,-9.00,-16.00,-16.00,+0.00,+20.00,+127.00,-6.00,-12.00,+31.00,-52.00,-19.00,+8.00
-53.00,-17.00,-20.00,-11.00,+13.00,+0.00,+1.00,-12.00,-66.00,+108.00,+23.00,+2.00,+17.00,-23.00,+37.00,-33.00
+18.00,+83.00,-6.00,+7.00,-13.00,+13.00,+70.00,+4.00,+65.00,-104.00,-24.00,-3.00,-14.00,+30.00,-60.00,+35.00
+15.00,-10.00,-1.00,-1.00,-5.00,-2.00,-114.00,-5.00,-128.00,+47.00,-7.00,-19.00,+6.00,-29.00,-41.00,-30.00
+13.00,+2.00,+6.00,-2.00,+23.00,+23.00,+65.00,+5.00,+81.00,+108.00,+18.00,+0.00,+19.00,-21.00,+4.00,+10.00
-6.00,-1.00,-5.00,+1.00,-12.00,-3.00,-3.00,+0.00,-64.00,-15.00,-4.00,+28.00,-2.00,-82.00,-28.00,+4.00
-1.00,-37.00,+6.00,-2.00,-6.00,+4.00,-1.00,-6.00,+15.00,-74.00,-6.00,-15.00,-22.00,+25.00,+23.00,-7.00
+4.00,+102.00,+6.00,+1.00,-20.00,-16.00,-28.00,-6.00,+37.00,+27.00,+18.00,+5.00,+33.00,+24.00,+8.00,-6.00
-25.00,-112.00,-16.00,-3.00,-10.00,-4.00,+25.00,-2.00,+42.00,-116.00,-21.00,-8.00,-60.00,+23.00,+8.00,-21.00
+31.00,+104.00,+26.00,-4.00,-19.00,-7.00,+56.00,+8.00,-30.00,-90.00,-6.00,-15.00,+5.00,+17.00,-15.00,+5.00
-13.00,-92.00,-2.00,-1.00,+10.00,+2.00,-22.00,+1.00,-38.00,+32.00,+5.00,+19.00,+29.00,+8.00,-16.00,-15.00
+45.00,+127.00,+5.00,+2.00,-12.00,-17.00,-72.00,+0.00,-62.00,-60.00,-10.00,-9.00,+18.00,-7.00,+25.00,-1.00
-40.00,-110.00,-9.00,-2.00,+4.00,-14.00,-40.00,+2.00,+17.00,-38.00,-9.00,-19.00,+2.00,+17.00,+11.00,+1.00
-29.00,-92.00,-42.00,-9.00,-4.00,+2.00,+9.00,-23.00,-6.00,-4.00,+3.00,+13.00,-15.00,+29.00,+15.00,+0.00
+68.00,-4.00,+14.00,+12.00,+39.00,+17.00,-11.00,+18.00,-79.00,+15.00,+1.00,-6.00,+6.00,-24.00,+51.00,+7.00
-13.00,+85.00,+3.00,-13.00,-58.00,-11.00,+15.00,-13.00,+17.00,+4.00,-1.00,-3.00,-10.00,+13.00,+3.00,+0.00
-29.00,-75.00,-3.00,+5.00,+68.00,+11.00,+40.00,+4.00,-64.00,+5.00,-3.00,+10.00,+6.00,+13.00,-4.00,-3.00
+36.00,+22.00,+12.00,+8.00,-13.00,-5.00,-38.00,+1.00,+41.00,-3.00,-3.00,-3.00,+0.00,+3.00,-14.00,+3.00
-23.00,-33.00,-18.00,-8.00,-6.00,-19.00,+35.00,+1.00,+18.00,+55.00,+8.00,-9.00,+2.00,-15.00,+5.00,-2.00
+10.00,+29.00,-4.00,-2.00,+26.00,+8.00,-9.00,-5.00,-60.00,-22.00,-12.00,-2.00,-8.00,-7.00,-21.00,+3.00
+2.00,-18.00,+2.00,-2.00,-28.00,+2.00,+42.00,-2.00,-128.00,-81.00,-6.00,+0.00,+13.00,-2.00,-9.00,-7.00
-18.00,-29.00,+4.00,+4.00,+28.00,+9.00,-24.00,-1.00,-97.00,+29.00,+13.00,-1.00,+4.00,+23.00,-12.00,+0.00
-17.00,-7.00,-6.00,-6.00,+6.00,+6.00,-28.00,-9.00,-93.00,+18.00,+0.00,+0.00,-21.00,-13.00,+19.00,+1.00
+3.00,-32.00,+3.00,+3.00,-21.00,-9.00,+26.00,+7.00,+33.00,+4.00,+4.00,-4.00,-4.00,+5.00,+2.00,+2.00
+9.00,+66.00,+6.00,-3.00,-12.00,-2.00,-35.00,-4.00,+33.00,+10.00,+22.00,+0.00,+4.00,+1.00,+4.00,+1.00
-1.00,-19.00,+2.00,+2.00,+5.00,-3.00,+3.00,+1.00,+127.00,-38.00,-29.00,-8.00,+2.00,+13.00,-5.00,+5.00
-5.00,+15.00,-2.00,-4.00,-23.00,-5.00,-27.00,-14.00,+19.00,+3.00,+1.00,+8.00,+7.00,-3.00,-12.00,-4.00
-16.00,-48.00,-5.00,-3.00,+5.00,+6.00,+13.00,+1.00,+66.00,+22.00,+15.00,+0.00,-22.00,-6.00,-41.00,+2.00
-3.00,-5.00,-5.00,+1.00,+0.00,-4.00,-19.00,-1.00,+54.00,-3.00,-49.00,-5.00,+0.00,+6.00,-7.00,+0.00
+1.00,+73.00,-2.00,-7.00,-3.00,+2.00,-21.00,-6.00,+82.00,-28.00,+14.00,+0.00,-1.00,+11.00,-39.00,-14.00
-20.00,-49.00,+4.00,-1.00,-17.00,+2.00,-11.00,-10.00,+50.00,+57.00,+44.00,+7.00,-12.00,-13.00,+84.00,+13.00
+6.00,-78.00,+1.00,+5.00,+1.00,+1.00,+13.00,+7.00,+17.00,-28.00,-54.00,-11.00,+0.00,-5.00,+107.00,+2.00
+21.00,+88.00,+9.00,-1.00,-5.00,-5.00,-20.00,-2.00,-71.00,-5.00,+3.00,-5.00,+2.00,+4.00,+127.00,-6.00
-2.00,-22.00,-6.00,+3.00,+4.00,-5.00,-3.00,-7.00,-39.00,+5.00,-12.00,-2.00,-4.00,+4.00,+106.00,+2.00
+52.00,-7.00,-14.00,+1.00,+4.00,+1.00,-22.00,-5.00,-51.00,-40.00,-14.00,-3.00,+7.00,+3.00,+21.00,+1.00
+120.00,-101.00,+13.00,-6.00,+6.00,+4.00,+6.00,+10.00,-24.00,+18.00,+33.00,+4.00,+3.00,+6.00,-25.00,-2.00
+127.00,+78.00,-46.00,+0.00,-25.00,-6.00,-17.00,-1.00,-11.00,+21.00,+12.00,+3.00,-3.00,+1.00,-116.00,+3.00
-30.00,-70.00,+30.00,-2.00,-6.00,-12.00,-1.00,-3.00,-4.00,-11.00,-7.00,-7.00,-3.00,-3.00,-103.00,-1.00
-106.00,-2.00,+27.00,+0.00,+3.00,-1.00,-40.00,-14.00,-16.00,+2.00,+1.00,+1.00,+3.00,-1.00,-66.00,-7.00
-128.00,-11.00,-20.00,-1.00,-2.00,+5.00,-38.00,+16.00,+10.00,+18.00,+4.00,+3.00,+4.00,-4.00,-40.00,+4.00
-128.00,+6.00,-6.00,-4.00,-1.00,-1.00,-97.00,+20.00,+13.00,-5.00,-6.00,-3.00,-9.00,+5.00,-8.00,-1.00
-74.00,-34.00,+9.00,-4.00,+0.00,+11.00,-39.00,-6.00,-15.00,-7.00,+7.00,+3.00,+5.00,+0.00,-16.00,-2.00
+79.00,+48.00,+1.00,+1.00,+10.00,+2.00,-6.00,+0.00,+0.00,-10.00,-8.00,-4.00,+2.00,-4.00,-16.00,-2.00
+23.00,-24.00,+2.00,-2.00,-12.00,+0.00,+36.00,-23.00,+9.00,+40.00,-3.00,-2.00,-6.00,-1.00,-17.00,-3.00
-73.00,+38.00,+9.00,+0.00,-6.00,-2.00,+45.00,-25.00,-9.00,-20.00,-5.00,-2.00,+4.00,+2.00,-23.00,-3.00
-93.00,-4.00,-9.00,+8.00,+8.00,-2.00,+45.00,+18.00,-9.00,+4.00,+8.00,+2.00,-1.00,-4.00,+1.00,-2.00
-128.00,-6.00,-3.00,-7.00,-11.00,+2.00,+32.00,+6.00,-1.00,+1.00,+11.00,+3.00,+3.00,+0.00,+12.00,-2.00
-66.00,+12.00,-3.00,+0.00,+9.00,-6.00,+34.00,-7.00,+3.00,-38.00,-10.00,-3.00,+1.00,+0.00,+7.00,-7.00
-15.00,-28.00,+5.00,+0.00,+0.00,+0.00,+35.00,+19.00,-7.00,+14.00,-15.00,-3.00,-2.00,+0.00,-17.00,-4.00
-8.00,+5.00,-1.00,+1.00,-1.00,-1.00,+8.00,-17.00,-4.00,+4.00,-9.00,-2.00,-3.00,-1.00,+34.00,+0.00
+2.00,-4.00,-4.00,-2.00,+1.00,-3.00,+7.00,-14.00,+1.00,+9.00,-23.00,-4.00,-5.00,+1.00,-39.00,+1.00
+28.00,+41.00,-2.00,-1.00,-3.00,-3.00,+0.00,+13.00,-1.00,-3.00,+18.00,+0.00,+2.00,-2.00,-2.00,-12.00
+16.00,-11.00,+14.00,+1.00,+1.00,+6.00,+7.00,-10.00,-1.00,+4.00,+12.00,-2.00,+1.00,-3.00,-5.00,+16.00
+37.00,+2.00,-2.00,-4.00,-2.00,-7.00,+1.00,-7.00,+5.00,-3.00,-4.00,-1.00,-4.00,-2.00,-10.00,-8.00
+36.00,+4.00,+1.00,+1.00,+4.00,+4.00,-6.00,-11.00,-1.00,+0.00,+5.00,-1.00,+3.00,-3.00,-11.00,-5.00
+6.00,+6.00,-8.00,+2.00,+3.00,+1.00,-6.00,+15.00,+1.00,+8.00,+5.00,+1.00,+0.00,+2.00,-18.00,-1.00
+12.00,-25.00,+5.00,+1.00,-3.00,-1.00,-3.00,-7.00,+1.00,-1.00,+5.00,-2.00,-2.00,+0.00,-7.00,-7.00
+44.00,+9.00,+21.00,-2.00,-1.00,+2.00,-5.00,+7.00,-5.00,-4.00,-3.00,+0.00,-1.00,+1.00,+2.00,+1.00
+15.00,+6.00,-11.00,-4.00,-2.00,-6.00,-7.00,+4.00,-1.00,+6.00,+2.00,-1.00,+0.00,-2.00,+7.00,+0.00
-10.00,+4.00,+13.00,+4.00,+0.00,+2.00,-9.00,-26.00,+4.00,-14.00,-7.00,+2.00,+1.00,+0.00,-10.00,+2.00
+21.00,+3.00,+5.00,-3.00,+2.00,+1.00,+1.00,-5.00,+6.00,+8.00,-6.00,-3.00,-5.00,-2.00,+17.00,-8.00
+28.00,-15.00,-18.00,+0.00,-4.00,-4.00,+0.00,+11.00,+1.00,-3.00,+6.00,-2.00,+1.00,+0.00,+1.00,+15.00
-2.00,+42.00,+1.00,-2.00,+0.00,-3.00,+3.00,+17.00,-6.00,-4.00,-6.00,-3.00,+1.00,+0.00,+3.00,-13.00
-2.00,+6.00,-3.00,-1.00,+1.00,-2.00,+4.00,-1.00,+0.00,-4.00,-7.00,-2.00,-3.00,-3.00,-2.00,+3.00
+32.00,-9.00,+2.00,+3.00,+1.00,+1.00,-3.00,+16.00,-1.00,+2.00,+6.00,-2.00,+2.00,-1.00,-10.00,-6.00
+115.00,-22.00,-9.00,-1.00,-2.00,+0.00,-6.00,-7.00,+2.00,+3.00,+1.00,+0.00,-1.00,+0.00,+16.00,-3.00
+39.00,+45.00,-4.00,-2.00,-2.00,-2.00,-4.00,-2.00,+2.00,-8.00,-8.00,+1.00,-4.00,-2.00,+3.00,+1.00
-12.00,-19.00,-5.00,-2.00,+0.00,+3.00,-4.00,-5.00,+2.00,-5.00,-5.00,-4.00,+1.00,+1.00,+9.00,+4.00
-91.00,-6.00,+3.00,+1.00,-1.00,+0.00,-1.00,-3.00,-2.00,+4.00,+7.00,-3.00,-4.00,+2.00,+0.00,+1.00
-128.00,+9.00,-2.00,-2.00,-2.00,-2.00,-3.00,+4.00,-1.00,-5.00,-1.00,-1.00,-2.00,-2.00,-3.00,-5.00
