-9.00,-2.00,-1.00,-1.00,-3.00,+0.00,+0.00,-3.00,+0.00,-4.00,-3.00,-2.00,-2.00,-2.00,+1.00,-1.00
-2.00,-13.00,-1.00,-1.00,+0.00,-1.00,-1.00,+2.00,+1.00,+5.00,+4.00,+1.00,-1.00,-1.00,-1.00,+1.00
+8.00,+35.00,-1.00,-1.00,+2.00,+1.00,+11.00,+1.00,-1.00,-4.00,-4.00,-1.00,+0.00,+0.00,-2.00,-2.00
+3.00,+1.00,+0.00,+1.00,+1.00,-2.00,+0.00,+1.00,+3.00,+0.00,-3.00,-1.00,+1.00,-1.00,-1.00,+1.00
-8.00,+2.00,-3.00,-1.00,-2.00,-1.00,-1.00,-4.00,+4.00,+7.00,+0.00,+4.00,-2.00,+0.00,-3.00,-4.00
-2.00,-5.00,-2.00,-1.00,-1.00,-2.00,-1.00,-1.00,-2.00,-3.00,-2.00,-4.00,-4.00,-1.00,+0.00,+2.00
+9.00,-6.00,-2.00,-2.00,-3.00,+0.00,+5.00,-2.00,-10.00,-5.00,+0.00,+0.00,-2.00,-2.00,-2.00,-1.00
-7.00,-3.00,-5.00,-2.00,-1.00,-2.00,-7.00,-4.00,+10.00,+0.00,+0.00,-7.00,-2.00,-3.00,-3.00,+0.00
+4.00,+2.00,+1.00,+1.00,+0.00,-3.00,+1.00,+2.00,-12.00,-5.00,-3.00,+2.00,+5.00,-1.00,+0.00,-2.00
-5.00,-8.00,-2.00,-3.00,-1.00,+0.00,-1.00,+1.00,-4.00,+0.00,-4.00,+2.00,+5.00,-1.00,-4.00,+2.00
+2.00,-2.00,+1.00,+0.00,+0.00,-3.00,-2.00,+2.00,-18.00,-38.00,-2.00,-9.00,-7.00,-1.00,+4.00,+0.00
-4.00,-2.00,+1.00,+0.00,+1.00,+0.00,+1.00,-3.00,+25.00,+14.00,-2.00,-4.00,-7.00,-2.00,-1.00,+2.00
+1.00,-4.00,-1.00,-1.00,-1.00,+0.00,-2.00,+0.00,-12.00,+22.00,+4.00,+0.00,-4.00,-1.00,-2.00,-3.00
-3.00,+5.00,+0.00,-1.00,-6.00,-2.00,+1.00,-2.00,+5.00,+1.00,-1.00,+1.00,-1.00,-2.00,-1.00,-7.00
-5.00,-10.00,-4.00,-2.00,-12.00,-1.00,-6.00,-2.00,-5.00,+10.00,+0.00,+10.00,+14.00,-4.00,-2.00,-1.00
-2.00,-2.00,+1.00,+0.00,+10.00,-1.00,+3.00,-2.00,-28.00,-20.00,+0.00,-1.00,-35.00,+7.00,-1.00,-3.00
+2.00,-2.00,-2.00,-2.00,-3.00,-1.00,-3.00,+0.00,-7.00,+1.00,+3.00,-4.00,+45.00,+5.00,+1.00,+5.00
+1.00,+4.00,+1.00,+0.00,+6.00,+1.00,-1.00,-2.00,+14.00,-5.00,-1.00,-16.00,-20.00,-1.00,-3.00,+1.00
+9.00,-4.00,-2.00,+0.00,-6.00,-1.00,-5.00,-1.00,+17.00,-4.00,-4.00,+9.00,+2.00,+2.00,-2.00,+1.00
-3.00,-23.00,-2.00,-2.00,-17.00,-8.00,-4.00,-1.00,-11.00,+0.00,-1.00,-6.00,+1.00,-3.00,+2.00,-4.00
+1.00,+31.00,+0.00,+0.00,+24.00,+18.00,+1.00,+0.00,-6.00,-20.00,-2.00,+10.00,-21.00,-2.00,-6.00,-1.00
-6.00,-14.00,-3.00,+1.00,+12.00,-6.00,+3.00,-1.00,+1.00,+10.00,-2.00,-19.00,+17.00,+4.00,-1.00,+2.00
-7.00,+19.00,-2.00,+0.00,+4.00,+2.00,+7.00,-1.00,+3.00,+2.00,+0.00,-4.00,+5.00,+0.00,+6.00,+0.00
-8.00,-9.00,-1.00,+0.00,-3.00,-1.00,-10.00,-1.00,+17.00,-28.00,+1.00,+22.00,+13.00,+1.00,+2.00,+2.00
+2.00,-10.00,-1.00,-4.00,-41.00,-4.00,+1.00,+0.00,-8.00,-4.00,-7.00,+13.00,-13.00,-3.00,-7.00,-9.00
+6.00,-11.00,+3.00,-1.00,+30.00,+7.00,+1.00,-4.00,+44.00,+29.00,+2.00,-10.00,-35.00,+6.00,-7.00,+7.00
+11.00,+56.00,+5.00,+1.00,+9.00,-4.00,-4.00,+0.00,-22.00,-46.00,-5.00,-2.00,+14.00,-52.00,-7.00,+1.00
-4.00,-17.00,-3.00,-1.00,+13.00,+5.00,+18.00,-4.00,-23.00,+24.00,+5.00,-7.00,+44.00,+35.00,+36.00,+1.00
-15.00,+1.00,-2.00,-6.00,-35.00,+0.00,-5.00,-4.00,+8.00,+7.00,-6.00,-15.00,+12.00,-42.00,+16.00,+5.00
-5.00,-4.00,-2.00,+2.00,+8.00,-7.00,-3.00,+3.00,-18.00,+68.00,+7.00,+29.00,-10.00,+38.00,-4.00,-13.00
+1.00,-10.00,-2.00,-1.00,+13.00,-2.00,-5.00,-1.00,+42.00,+26.00,+2.00,-34.00,-21.00,+12.00,-14.00,+8.00
+5.00,+0.00,+0.00,+1.00,+1.00,-6.00,-1.00,+2.00,-21.00,-11.00,+2.00,+9.00,-6.00,-3.00,-11.00,+4.00
-2.00,-29.00,-1.00,+2.00,+22.00,+8.00,-12.00,-2.00,-26.00,-47.00,-6.00,-10.00,-17.00,-8.00,-4.00,-3.00
+8.00,+51.00,+8.00,-2.00,-41.00,-4.00,+8.00,+1.00,-26.00,-16.00,-1.00,+14.00,+8.00,-9.00,+6.00,-5.00
-17.00,-24.00,-5.00,-5.00,-32.00,-6.00,-35.00,-2.00,-4.00,+24.00,-3.00,-4.00,-18.00,+7.00,-4.00,-10.00
-19.00,-22.00,-7.00,+3.00,+41.00,-7.00,-25.00,-2.00,+24.00,-15.00,-1.00,+12.00,+12.00,-9.00,+1.00,-1.00
+12.00,+21.00,+3.00,-1.00,-8.00,+3.00,+36.00,+9.00,-22.00,-22.00,-1.00,-13.00,-16.00,+18.00,-4.00,-4.00
-6.00,+15.00,+0.00,-3.00,-20.00,-2.00,+8.00,-3.00,+23.00,-6.00,+0.00,+26.00,-8.00,-18.00,+6.00,+14.00
+4.00,+15.00,+2.00,+1.00,+30.00,+13.00,+18.00,-4.00,-19.00,-27.00,+1.00,-1.00,+22.00,+12.00,-37.00,-10.00
+10.00,+3.00,-9.00,-4.00,-21.00,-1.00,-42.00,-1.00,+59.00,+79.00,+5.00,-21.00,-26.00,-11.00,+5.00,+7.00
-11.00,-55.00,+1.00,+4.00,+31.00,-9.00,-8.00,-4.00,-31.00,+0.00,+0.00,+7.00,-3.00,-7.00,-4.00,-4.00
+18.00,+37.00,+5.00,+1.00,-12.00,+0.00,-6.00,+5.00,-44.00,-4.00,-2.00,-36.00,+43.00,-6.00,-3.00,-12.00
+3.00,-8.00,+3.00,-1.00,+1.00,+0.00,+6.00,+3.00,-3.00,-64.00,-2.00,+21.00,-15.00,+0.00,+12.00,+7.00
-2.00,-3.00,-2.00,-4.00,-35.00,+4.00,-7.00,-3.00,-62.00,+34.00,+3.00,-23.00,-7.00,-2.00,-39.00,-7.00
-9.00,-14.00,-7.00,-4.00,+8.00,-4.00,-2.00,-2.00,+101.00,-33.00,-9.00,-3.00,-6.00,+7.00,+77.00,+9.00
+10.00,-35.00,-8.00,-3.00,-22.00,-2.00,-4.00,-1.00,-21.00,-5.00,+2.00,-5.00,-1.00,+12.00,-24.00,-4.00
-24.00,-12.00,+1.00,-1.00,+11.00,-2.00,-9.00,-4.00,+30.00,+73.00,+9.00,+16.00,-3.00,+4.00,+24.00,+2.00
+21.00,+35.00,+2.00,-6.00,-9.00,-2.00,+15.00,+3.00,-83.00,-38.00,-7.00,-19.00,-19.00,-48.00,-1.00,-17.00
-3.00,+18.00,+0.00,+2.00,-5.00,-14.00,-8.00,-4.00,+61.00,+53.00,+1.00,+15.00,-29.00,+70.00,-23.00,+10.00
-16.00,-44.00,+0.00,+3.00,+4.00,+3.00,+7.00,+0.00,-11.00,-70.00,-4.00,+20.00,+27.00,+9.00,+1.00,+6.00
+29.00,+60.00,+5.00,-4.00,-50.00,-7.00,+15.00,+2.00,-16.00,+24.00,-6.00,-28.00,+4.00,-6.00,+1.00,-6.00
-8.00,+14.00,+1.00,+4.00,+37.00,-1.00,+28.00,-2.00,-10.00,+12.00,+0.00,-16.00,-30.00,-11.00,+2.00,-5.00
+9.00,+19.00,+5.00,+1.00,-4.00,-7.00,-12.00,+2.00,-53.00,-43.00,-1.00,-13.00,+19.00,-17.00,-15.00,-13.00
+5.00,-1.00,-6.00,-2.00,+0.00,+1.00,+4.00,+3.00,-4.00,+31.00,-8.00,-26.00,-14.00,-18.00,-7.00,+2.00
-8.00,-30.00,-6.00,-2.00,+11.00,+4.00,-15.00,-7.00,+45.00,+29.00,+8.00,+21.00,+6.00,+16.00,-1.00,+6.00
-26.00,-19.00,+4.00,-4.00,-19.00,-10.00,-1.00,-4.00,+25.00,-69.00,-6.00,+17.00,+32.00,+2.00,+8.00,-2.00
+16.00,+14.00,+2.00,+2.00,+4.00,+7.00,+4.00,-1.00,-23.00,+41.00,-2.00,-12.00,-4.00,-7.00,+5.00,+1.00
-7.00,-11.00,-5.00,+1.00,+17.00,-3.00,-33.00,-9.00,-47.00,-50.00,-1.00,-4.00,-11.00,+2.00,-28.00,-13.00
-1.00,-23.00,-3.00,-1.00,-6.00,+0.00,+19.00,+6.00,+8.00,-35.00,-1.00,+7.00,-23.00,-46.00,+27.00,+2.00
-2.00,-4.00,-3.00,-4.00,-45.00,-3.00,+8.00,-1.00,-5.00,+70.00,-7.00,+10.00,+32.00,+24.00,-71.00,-10.00
-12.00,-7.00,-3.00,-1.00,+45.00,+8.00,-10.00,-1.00,-20.00,-72.00,+1.00,+12.00,-13.00,+9.00,+26.00,+2.00
-20.00,+0.00,-1.00,-2.00,-9.00,-5.00,+2.00,-4.00,+66.00,+70.00,-2.00,+20.00,-14.00,-44.00,-15.00,+11.00
+1.00,-23.00,-2.00,+0.00,+6.00,-3.00,-21.00,+0.00,-45.00,+3.00,+2.00,+0.00,+30.00,+16.00,-22.00,+5.00
+6.00,+1.00,+1.00,-1.00,+7.00,-1.00,+15.00,+2.00,+27.00,-35.00,-4.00,-16.00,-2.00,+8.00,+19.00,+2.00
+8.00,-2.00,+1.00,-1.00,+3.00,+7.00,-32.00,+0.00,+17.00,+8.00,-1.00,-9.00,+7.00,-40.00,-24.00,-4.00
+0.00,+7.00,+0.00,-3.00,-40.00,+2.00,+14.00,+0.00,-3.00,-12.00,-7.00,-20.00,-20.00,+59.00,+13.00,-1.00
-3.00,-37.00,-9.00,-3.00,-5.00,+0.00,-1.00,-5.00,+22.00,+36.00,-5.00,+2.00,+9.00,+13.00,+4.00,+0.00
+19.00,-21.00,-1.00,-1.00,+33.00,+1.00,-2.00,-1.00,-52.00,-29.00,-5.00,+18.00,-9.00,-3.00,-6.00,+3.00
-13.00,-15.00,-4.00,-3.00,-29.00,-2.00,-40.00,-6.00,-2.00,+35.00,+4.00,-10.00,+18.00,+1.00,-9.00,-10.00
+22.00,+45.00,+0.00,-3.00,+0.00,-1.00,+15.00,-1.00,-34.00,-27.00,-3.00,+20.00,+16.00,-48.00,+23.00,+0.00
-10.00,+11.00,+4.00,-7.00,-10.00,-6.00,+3.00,-1.00,-32.00,-24.00,+2.00,-5.00,+5.00,-5.00,-17.00,-4.00
+4.00,-11.00,-4.00,+0.00,-2.00,+24.00,-23.00,+2.00,+15.00,+27.00,-1.00,-19.00,-19.00,+9.00,+31.00,+1.00
-6.00,+4.00,-2.00,+1.00,+16.00,-13.00,-2.00,-1.00,+59.00,-58.00,-8.00,+10.00,-26.00,-16.00,-56.00,-6.00
+18.00,-23.00,+3.00,+1.00,+44.00,+13.00,-10.00,+4.00,+50.00,+30.00,-4.00,-5.00,+41.00,-8.00,+17.00,+1.00
-8.00,-19.00,-7.00,+0.00,+19.00,+5.00,-3.00,-4.00,-122.00,-38.00,-5.00,-1.00,-11.00,-8.00,-26.00,-16.00
+5.00,+29.00,+6.00,+5.00,+6.00,-6.00,+10.00,+4.00,+45.00,-31.00,+2.00,+31.00,-20.00,-10.00,+82.00,+17.00
-25.00,-22.00,-6.00,-5.00,-23.00,-6.00,+2.00,-8.00,-21.00,+56.00,+9.00,-7.00,+0.00,-15.00,-8.00,+1.00
-23.00,-7.00,+1.00,-5.00,+31.00,+7.00,-2.00,+1.00,-37.00,-24.00,+6.00,-40.00,+13.00,+0.00,+15.00,-12.00
-5.00,-8.00,-7.00,+1.00,+34.00,-6.00,+14.00,+0.00,+91.00,+22.00,-5.00,+0.00,-39.00,-16.00,-22.00,+8.00
+0.00,-11.00,+0.00,-2.00,-30.00,+1.00,+27.00,+0.00,-66.00,-97.00,-3.00,-5.00,+48.00,+69.00,-19.00,-15.00
+7.00,+19.00,+3.00,+0.00,+7.00,+7.00,+22.00,+0.00,+31.00,+8.00,-6.00,+47.00,-2.00,-77.00,+20.00,+32.00
-8.00,+13.00,+8.00,+3.00,+25.00,-2.00,+10.00,-2.00,+66.00,+30.00,+4.00,-25.00,+24.00,-9.00,+16.00,+0.00
+20.00,+7.00,-3.00,-6.00,-32.00,-4.00,+5.00,-5.00,+0.00,+32.00,+7.00,-21.00,-38.00,+8.00,+19.00,+3.00
+29.00,-49.00,-9.00,-4.00,+14.00,-9.00,-8.00,-2.00,+8.00,+7.00,-7.00,+16.00,+6.00,-9.00,-23.00,+2.00
+18.00,+11.00,+7.00,-4.00,-5.00,+1.00,+40.00,+2.00,-53.00,+79.00,+9.00,+6.00,-13.00,+30.00,-7.00,-17.00
+23.00,+5.00,-2.00,-1.00,-36.00,+3.00,-33.00,+1.00,+1.00,-78.00,-4.00,+23.00,-42.00,-22.00,-3.00,-12.00
+6.00,+6.00,+2.00,+5.00,+54.00,+12.00,-7.00,+0.00,+121.00,-10.00,-5.00,-11.00,+30.00,-4.00,-29.00,+16.00
+3.00,-5.00,+2.00,+1.00,+2.00,-4.00,+35.00,+8.00,-67.00,+46.00,+3.00,-10.00,-24.00,-10.00,-13.00,-6.00
+1.00,+11.00,+4.00,-3.00,-34.00,-7.00,-5.00,-3.00,+27.00,-37.00,+0.00,+1.00,+59.00,+27.00,+52.00,-6.00
-16.00,+12.00,+9.00,+6.00,+49.00,+7.00,-41.00,-6.00,-28.00,+14.00,+0.00,-3.00,-25.00,-21.00,+15.00,+0.00
-32.00,+2.00,-9.00,-8.00,-45.00,+3.00,+51.00,-2.00,-29.00,-23.00,-4.00,+14.00,+1.00,+3.00,+14.00,-9.00
-25.00,-11.00,-10.00,+3.00,-12.00,+4.00,+0.00,-1.00,+112.00,+2.00,+2.00,-13.00,-12.00,-9.00,-25.00,+18.00
-21.00,+4.00,+17.00,+0.00,+25.00,+13.00,-27.00,+2.00,-15.00,-64.00,-8.00,-14.00,-3.00,+12.00,-21.00,-23.00
-18.00,-26.00,-18.00,-13.00,-60.00,-26.00,+15.00,-6.00,+12.00,+17.00,+13.00,+25.00,-14.00,+14.00,+12.00,+17.00
+13.00,-65.00,+1.00,+6.00,+1.00,-14.00,-13.00,-3.00,+29.00,+16.00,-7.00,-18.00,+14.00,-24.00,+5.00,-5.00
-2.00,+50.00,+2.00,-5.00,-10.00,+9.00,+17.00,-7.00,+70.00,+3.00,+0.00,+31.00,+26.00,-31.00,-27.00,+5.00
+10.00,+25.00,-14.00,+5.00,+35.00,-10.00,+32.00,+5.00,-36.00,+27.00,+9.00,+11.00,+4.00,+26.00,+32.00,+10.00
+9.00,-8.00,+13.00,-1.00,-17.00,+2.00,+3.00,+0.00,-12.00,-11.00,-14.00,-2.00,-17.00,+12.00,-28.00,-3.00
-6.00,-11.00,+6.00,+0.00,+4.00,-16.00,-52.00,-3.00,-40.00,+6.00,-1.00,-9.00,-20.00,+1.00,+37.00,+0.00
-1.00,-5.00,-5.00,+4.00,+27.00,+17.00,-30.00,-6.00,-80.00,-15.00,-7.00,-22.00,+0.00,-28.00,+2.00,-19.00
-9.00,-63.00,+0.00,+3.00,-16.00,-8.00,+10.00,+1.00,+64.00,+5.00,-11.00,-13.00,-8.00,-60.00,-28.00,+10.00
-9.00,+35.00,-2.00,+1.00,+7.00,+4.00,+8.00,+3.00,-65.00,+6.00,+2.00,+23.00,+33.00,-13.00,+28.00,-3.00
-19.00,-38.00,-3.00,-5.00,-15.00,+3.00,-2.00,-4.00,+16.00,+12.00,+1.00,+0.00,+7.00,+7.00,-50.00,-5.00
-30.00,+38.00,+4.00,-4.00,-15.00,+12.00,-12.00,+6.00,-71.00,+5.00,+2.00,+15.00,-12.00,+9.00,+80.00,+13.00
-21.00,-3.00,-10.00,+1.00,+15.00,+4.00,+8.00,-11.00,+9.00,+71.00,-2.00,-4.00,+9.00,+7.00,-19.00,+2.00
-13.00,-25.00,-3.00,-4.00,-4.00,+3.00,+35.00,+19.00,-53.00,-25.00,-5.00,-32.00,-21.00,+7.00,-42.00,-9.00
+1.00,+33.00,+8.00,+10.00,+33.00,+30.00,+12.00,+3.00,-14.00,+40.00,+5.00,+15.00,+7.00,+16.00,+59.00,-6.00
-5.00,+33.00,-2.00,-4.00,+12.00,-14.00,-1.00,-7.00,+69.00,-11.00,+0.00,-5.00,-29.00,-27.00,-54.00,+1.00
-11.00,-59.00,+0.00,-2.00,-17.00,-8.00,-23.00,+1.00,+12.00,-41.00,-10.00,-15.00,+20.00,+61.00,+50.00,+7.00
+14.00,+30.00,-16.00,-7.00,-2.00,+14.00,-27.00,-11.00,+127.00,+22.00,+1.00,-2.00,-42.00,+7.00,+8.00,-4.00
+17.00,-6.00,-1.00,-2.00,-25.00,-24.00,+54.00,+10.00,+34.00,-32.00,+1.00,-2.00,+34.00,+0.00,-14.00,-6.00
+6.00,+11.00,+12.00,+1.00,-9.00,-4.00,+7.00,-3.00,+100.00,-19.00,-5.00,-6.00,+30.00,-11.00,+16.00,-4.00
+37.00,+17.00,-5.00,+3.00,+21.00,+5.00,+24.00,+5.00,+21.00,+38.00,+16.00,+0.00,-41.00,-11.00,-23.00,-9.00
+3.00,-11.00,-4.00,+0.00,+1.00,-10.00,-32.00,-4.00,+95.00,-70.00,-18.00,+35.00,+6.00,+2.00,+0.00,+6.00
-38.00,+0.00,-6.00,-7.00,-21.00,+3.00,-29.00,-4.00,-27.00,-29.00,-10.00,-18.00,+23.00,+17.00,+0.00,-7.00
+0.00,-22.00,+1.00,-7.00,-12.00,-7.00,-9.00,-9.00,-69.00,-8.00,+0.00,-1.00,-3.00,-22.00,+18.00,+12.00
+16.00,+39.00,-3.00,+0.00,+21.00,+7.00,-23.00,+2.00,-25.00,-7.00,-2.00,-9.00,-25.00,+16.00,-73.00,-9.00
-4.00,-25.00,-6.00,+4.00,+5.00,-9.00,-42.00,+2.00,-68.00,-17.00,-1.00,+3.00,+59.00,+10.00,-1.00,+0.00
-5.00,+13.00,+0.00,-1.00,-13.00,+2.00,-34.00,-12.00,-82.00,+2.00,+0.00,-3.00,-38.00,-34.00,-27.00,-3.00
+22.00,-23.00,-5.00,-2.00,+28.00,+4.00,+21.00,+0.00,+117.00,-54.00,+0.00,+4.00,-37.00,-12.00,+47.00,+16.00
+28.00,+35.00,+5.00,+1.00,-24.00,+0.00,+4.00,+2.00,+19.00,+54.00,+8.00,-3.00,+21.00,-55.00,-77.00,-15.00
+5.00,-10.00,+1.00,+4.00,+0.00,+14.00,+24.00,-2.00,+101.00,-17.00,+5.00,+33.00,-11.00,+22.00,+50.00,+10.00
+7.00,+4.00,+2.00,+0.00,-6.00,+0.00,+11.00,+10.00,-47.00,-58.00,-1.00,+3.00,+1.00,+15.00,+1.00,-12.00
+7.00,-60.00,-7.00,-4.00,-17.00,+3.00,-32.00,+1.00,+98.00,+57.00,+12.00,-18.00,-65.00,-11.00,-32.00,+8.00
+7.00,+40.00,-5.00,-10.00,-36.00,-18.00,-3.00,+1.00,-9.00,-39.00,-3.00,-9.00,+7.00,+41.00,+40.00,-22.00
-17.00,+23.00,+4.00,+1.00,-5.00,-1.00,+5.00,-6.00,-36.00,+8.00,-3.00,-13.00,-3.00,-19.00,+6.00,+1.00
+31.00,+22.00,+3.00,+0.00,-5.00,-7.00,+9.00,+1.00,+98.00,-43.00,-17.00,+24.00,-2.00,+7.00,+22.00,-3.00
+1.00,-24.00,+5.00,+0.00,-18.00,-1.00,+4.00,-2.00,-121.00,-35.00,+2.00,-14.00,-6.00,+49.00,-92.00,-15.00
+4.00,-40.00,-6.00,-4.00,+17.00,-3.00,+1.00,+3.00,-54.00,+64.00,+3.00,-1.00,+22.00,-24.00,+62.00,+37.00
-22.00,+20.00,+7.00,+1.00,-21.00,-14.00,+30.00,-9.00,+34.00,-39.00,+8.00,+3.00,-19.00,-30.00,-61.00,-3.00
-32.00,-12.00,-7.00,+9.00,+72.00,+14.00,+59.00,+9.00,+29.00,+127.00,+5.00,+39.00,-29.00,+50.00,-29.00,-1.00
-5.00,+73.00,+8.00,+4.00,-23.00,-5.00,-1.00,+4.00,-6.00,-91.00,-14.00,-38.00,+36.00,-26.00,+11.00,+1.00
-29.00,-19.00,-5.00,-6.00,-27.00,+7.00,-7.00,-3.00,+34.00,-77.00,-14.00,+7.00,-1.00,+12.00,-70.00,-6.00
-5.00,+7.00,+1.00,-1.00,+3.00,-1.00,-24.00,+0.00,-126.00,+39.00,+15.00,-4.00,-3.00,-42.00,+0.00,+19.00
+1.00,-31.00,-10.00,-2.00,+16.00,-11.00,+16.00,-12.00,-81.00,+85.00,+30.00,+3.00,+0.00,-52.00,+43.00,-9.00
+4.00,+17.00,-14.00,-4.00,-19.00,-20.00,-63.00,+0.00,-8.00,-1.00,-3.00,+38.00,+20.00,+81.00,+44.00,-7.00
-1.00,+2.00,-1.00,-10.00,-12.00,+7.00,-18.00,-13.00,-96.00,+20.00,+7.00,-28.00,-25.00,+41.00,+1.00,-13.00
+37.00,-10.00,+4.00,+4.00,+41.00,+3.00,+28.00,+11.00,+83.00,-52.00,-28.00,-10.00,+28.00,-9.00,+0.00,-3.00
+26.00,+4.00,+7.00,+3.00,-39.00,-11.00,-12.00,-8.00,+76.00,-7.00,+10.00,-38.00,-32.00,+24.00,+12.00,+11.00
+46.00,+21.00,+8.00,+4.00,+42.00,+18.00,+45.00,+24.00,-28.00,+58.00,-1.00,+5.00,+37.00,+36.00,-38.00,-19.00
-18.00,-22.00,-9.00,-4.00,-36.00,+12.00,+105.00,+1.00,+40.00,-35.00,-14.00,+11.00,+1.00,-20.00,+101.00,+4.00
-11.00,-29.00,-5.00,-1.00,+17.00,-12.00,+74.00,+6.00,+12.00,+60.00,+6.00,+0.00,+7.00,+42.00,-23.00,+1.00
-14.00,-3.00,-1.00,-5.00,-3.00,+0.00,+73.00,+8.00,-93.00,+47.00,-3.00,+0.00,+15.00,-38.00,-56.00,-2.00
+3.00,+66.00,+9.00,+6.00,-3.00,+1.00,-16.00,+4.00,+45.00,-44.00,-5.00,+4.00,+2.00,-5.00,+0.00,+15.00
-78.00,+14.00,-1.00,+10.00,-11.00,-12.00,-111.00,-25.00,-14.00,+28.00,+3.00,+24.00,-10.00,-16.00,-19.00,+7.00
-1.00,+3.00,+1.00,+7.00,+74.00,+21.00,-9.00,+7.00,-11.00,-6.00,-5.00,-47.00,+10.00,+26.00,-50.00,-25.00
-33.00,+17.00,-3.00,-3.00,-11.00,-25.00,-50.00,+3.00,-24.00,-127.00,-12.00,+12.00,-24.00,+1.00,+36.00,+2.00
-40.00,-32.00,-11.00,-17.00,-32.00,-9.00,+3.00,-18.00,-99.00,+1.00,-4.00,-23.00,+15.00,-17.00,-2.00,-4.00
+8.00,+12.00,+13.00,+5.00,+20.00,+9.00,+63.00,+33.00,+24.00,+13.00,+22.00,+13.00,+22.00,-27.00,-128.00,+5.00
-47.00,-43.00,-7.00,-6.00,-28.00,+0.00,-37.00,-11.00,-120.00,+21.00,+3.00,+12.00,-31.00,+8.00,-17.00,-2.00
+14.00,-3.00,+1.00,-5.00,-36.00,-13.00,+0.00,-12.00,+46.00,-12.00,-1.00,-18.00,-13.00,+80.00,+26.00,+9.00
+21.00,+32.00,-9.00,+5.00,+34.00,-3.00,-22.00,+2.00,-85.00,-88.00,-3.00,+26.00,-11.00,-22.00,-45.00,-27.00
+96.00,+1.00,+7.00,+3.00,+24.00,+8.00,+42.00,+19.00,+69.00,+7.00,-14.00,-27.00,+7.00,+3.00,+39.00,+19.00
+36.00,-27.00,+2.00,-7.00,-21.00,-10.00,-18.00,+2.00,+23.00,+21.00,+6.00,-10.00,-11.00,-43.00,-13.00,-6.00
+39.00,-5.00,+1.00,+3.00,+3.00,+7.00,-5.00,+4.00,-61.00,-128.00,-15.00,+19.00,+27.00,-33.00,-37.00,+16.00
+15.00,-38.00,+5.00,+2.00,+18.00,-2.00,+66.00,+2.00,+90.00,+80.00,+5.00,-9.00,-16.00,-21.00,+3.00,-10.00
-1.00,+16.00,-9.00,-7.00,+0.00,+0.00,-25.00,-10.00,-43.00,-15.00,+5.00,-2.00,+4.00,-6.00,+121.00,+13.00
-10.00,+20.00,-8.00,-4.00,-13.00,-4.00,+61.00,-12.00,-50.00,-23.00,-4.00,+7.00,-34.00,+4.00,-8.00,-7.00
+25.00,-51.00,+0.00,+5.00,+20.00,+20.00,-25.00,+0.00,+4.00,+50.00,+15.00,-6.00,+19.00,-19.00,+18.00,+3.00
-9.00,-9.00,-4.00,-4.00,-10.00,-5.00,-41.00,-9.00,+48.00,+18.00,-3.00,+16.00,+0.00,-34.00,-29.00,+16.00
-13.00,-5.00,+14.00,+7.00,+0.00,-10.00,-13.00,+0.00,-29.00,-28.00,+1.00,+9.00,+15.00,+17.00,+38.00,-20.00
-7.00,-49.00,-22.00,-11.00,-36.00,-7.00,+13.00,+6.00,+79.00,-57.00,+1.00,-9.00,-9.00,+16.00,-22.00,+16.00
-16.00,+98.00,+11.00,-1.00,+56.00,+13.00,-73.00,+1.00,+3.00,-28.00,-10.00,-11.00,+10.00,+8.00,-7.00,-13.00
-28.00,-66.00,-13.00,-2.00,-10.00,+1.00,-77.00,+12.00,+46.00,+42.00,+2.00,-9.00,-4.00,+34.00,-50.00,-10.00
-52.00,-24.00,+1.00,-2.00,-4.00,+17.00,+0.00,-13.00,+47.00,+4.00,+2.00,-6.00,-19.00,-15.00,+69.00,+13.00
+17.00,-9.00,+11.00,+8.00,+20.00,-4.00,-61.00,+9.00,-128.00,+32.00,-15.00,+0.00,-5.00,-32.00,+24.00,-34.00
-4.00,+85.00,+8.00,-2.00,-24.00,+0.00,-46.00,-8.00,+9.00,-61.00,+3.00,+7.00,+6.00,+2.00,-35.00,+20.00
-7.00,-16.00,-20.00,-3.00,+34.00,+5.00,+40.00,-11.00,-12.00,+104.00,+4.00,-7.00,-2.00,-16.00,+6.00,-22.00
+17.00,-42.00,+13.00,+7.00,-6.00,-2.00,-10.00,+15.00,+53.00,+29.00,+0.00,+37.00,-25.00,-1.00,-89.00,+9.00
-20.00,+39.00,+5.00,-2.00,-24.00,+12.00,+14.00,-12.00,-23.00,+20.00,+5.00,-27.00,-6.00,+2.00,+97.00,-1.00
-18.00,-41.00,-12.00,-6.00,+0.00,-9.00,-14.00,-13.00,+101.00,-29.00,-3.00,-3.00,-3.00,+11.00,+31.00,-1.00
-61.00,-55.00,+15.00,+5.00,-11.00,-13.00,+50.00,-11.00,+24.00,+89.00,+19.00,-1.00,-23.00,-14.00,-18.00,+16.00
+40.00,+93.00,-12.00,-5.00,+2.00,-12.00,-88.00,-1.00,-30.00,-128.00,-21.00,+1.00,-30.00,-25.00,+79.00,-10.00
+18.00,-20.00,-4.00,-3.00,+5.00,-1.00,+2.00,+2.00,+6.00,+81.00,-3.00,+12.00,+22.00,+14.00,-34.00,+0.00
+20.00,+50.00,+7.00,+4.00,+10.00,-8.00,+4.00,+5.00,+27.00,-51.00,-7.00,-19.00,-16.00,+0.00,-66.00,-11.00
+9.00,-66.00,-16.00,-9.00,-14.00,+14.00,-5.00,-12.00,-48.00,-122.00,-35.00,+17.00,-26.00,+31.00,+7.00,+25.00
-14.00,+35.00,+11.00,+0.00,-2.00,-17.00,+29.00,-1.00,-58.00,+83.00,+8.00,-48.00,+8.00,+34.00,+10.00,-8.00
-34.00,-20.00,+5.00,-1.00,-6.00,-3.00,-29.00,-3.00,+50.00,+6.00,-2.00,+13.00,+19.00,-18.00,+7.00,+17.00
-8.00,+52.00,+7.00,-5.00,-39.00,-3.00,+11.00,+24.00,+36.00,+126.00,+18.00,+6.00,-28.00,-68.00,+8.00,-16.00
-14.00,+43.00,-9.00,-1.00,+22.00,+2.00,+28.00,-12.00,+45.00,+2.00,+2.00,+10.00,-32.00,-7.00,+74.00,+4.00
-7.00,-101.00,-16.00,-3.00,-11.00,-11.00,-32.00,+1.00,+54.00,-128.00,-24.00,+12.00,+39.00,-9.00,-80.00,-11.00
+14.00,+114.00,+21.00,+11.00,+1.00,-8.00,+48.00,+0.00,-11.00,-27.00,+17.00,-27.00,-6.00,-4.00,+58.00,+15.00
-25.00,-109.00,-11.00,-14.00,-5.00,+37.00,+72.00,-5.00,-55.00,+68.00,-10.00,+11.00,+3.00,-9.00,+51.00,-15.00
+31.00,+30.00,+8.00,+5.00,-14.00,-5.00,-24.00,+0.00,+80.00,+7.00,-6.00,-23.00,+41.00,+1.00,+31.00,+32.00
-4.00,-49.00,-9.00,-6.00,+11.00,-1.00,+29.00,-6.00,-107.00,-87.00,-16.00,+4.00,+0.00,-13.00,-34.00,-39.00
+49.00,+30.00,-16.00,-14.00,-60.00,-12.00,+105.00,+5.00,+94.00,+1.00,+16.00,-5.00,+2.00,+22.00,-9.00,+13.00
+17.00,+18.00,+0.00,+11.00,+21.00,-9.00,-64.00,-1.00,-82.00,+88.00,-3.00,+2.00,+1.00,+14.00,-34.00,-31.00
-5.00,-55.00,+18.00,+1.00,+8.00,+2.00,+41.00,+9.00,+38.00,+91.00,+12.00,+7.00,+35.00,-10.00,+48.00,+17.00
+20.00,-4.00,-15.00,+1.00,+15.00,-6.00,-20.00,-1.00,-119.00,-79.00,+6.00,-3.00,-40.00,+22.00,+6.00,-22.00
+11.00,-7.00,+8.00,+0.00,+6.00,+23.00,-21.00,+3.00,+103.00,-12.00,-16.00,+9.00,+5.00,-16.00,-26.00,+1.00
-17.00,-30.00,-7.00,-8.00,-10.00,-7.00,-23.00,-13.00,-85.00,-128.00,-4.00,+1.00,-1.00,-9.00,+12.00,+14.00
-2.00,+21.00,+6.00,+4.00,-6.00,-10.00,-83.00,+11.00,-83.00,-94.00,-8.00,-5.00,+8.00,+31.00,-25.00,-34.00
-26.00,-53.00,-23.00,-8.00,-22.00,+6.00,+83.00,-13.00,+26.00,+51.00,+10.00,+4.00,-21.00,-65.00,+67.00,+5.00
-7.00,-16.00,+4.00,+4.00,+52.00,+4.00,+40.00,+9.00,+90.00,-2.00,+6.00,+0.00,-17.00,-46.00,-62.00,+9.00
+7.00,-8.00,-5.00,-4.00,-20.00,-11.00,-89.00,-8.00,+39.00,+46.00,-5.00,+9.00,+68.00,+3.00,-12.00,+5.00
-25.00,+28.00,+6.00,+4.00,+13.00,-6.00,+47.00,-7.00,-57.00,-108.00,-4.00,+4.00,+5.00,-42.00,-17.00,-6.00
+33.00,+24.00,-20.00,-6.00,-2.00,+2.00,+9.00,+6.00,+106.00,+117.00,+16.00,+22.00,+10.00,+41.00,+10.00,+36.00
-21.00,-101.00,+0.00,+0.00,-22.00,-19.00,-17.00,-4.00,-105.00,-128.00,-23.00,-34.00,+2.00,+40.00,+21.00,+1.00
-8.00,+87.00,+11.00,+7.00,+39.00,+24.00,+47.00,+2.00,-21.00,+39.00,-12.00,-24.00,-27.00,+30.00,+0.00,+3.00
-25.00,-12.00,-8.00,-3.00,+0.00,+8.00,+36.00,+12.00,-128.00,+56.00,+19.00,-1.00,+28.00,-30.00,-13.00,-20.00
-20.00,+84.00,+16.00,+2.00,-6.00,-12.00,-85.00,-15.00,-42.00,+122.00,+8.00,-12.00,-9.00,-29.00,-68.00,+17.00
+1.00,-61.00,-14.00,-4.00,-1.00,-9.00,-19.00,-8.00,-36.00,-5.00,-3.00,+30.00,-21.00,-41.00,+68.00,-41.00
+18.00,+11.00,-2.00,-3.00,-38.00,+26.00,-42.00,+1.00,-92.00,-84.00,+7.00,-12.00,+31.00,+13.00,+46.00,-9.00
+26.00,-5.00,+1.00,-5.00,-5.00,-8.00,-16.00,-4.00,+19.00,-10.00,-11.00,-7.00,-5.00,+5.00,+26.00,-2.00
+13.00,+26.00,+0.00,+3.00,+3.00,+8.00,-10.00,-9.00,-40.00,-128.00,-35.00,-26.00,-19.00,+24.00,-54.00,-9.00
+3.00,+85.00,-6.00,-1.00,+23.00,+18.00,+37.00,-2.00,-109.00,+121.00,+31.00,+8.00,+16.00,+19.00,+51.00,-10.00
-28.00,-94.00,+20.00,+10.00,-2.00,-9.00,+66.00,+12.00,+107.00,-128.00,-23.00,-5.00,-25.00,-32.00,-58.00,+6.00
+11.00,+1.00,-2.00,-2.00,-9.00,+10.00,-30.00,+4.00,-90.00,+64.00,+17.00,+19.00,+11.00,+15.00,-21.00,-23.00
-12.00,-16.00,+13.00,-2.00,-2.00,+5.00,+62.00,+3.00,-25.00,-39.00,-12.00,-17.00,+3.00,+49.00,-2.00,-15.00
-11.00,-58.00,-19.00,-4.00,+12.00,-18.00,-47.00,-12.00,-34.00,+14.00,+7.00,+20.00,-3.00,-11.00,-4.00,+35.00
+0.00,+39.00,-13.00,+0.00,+19.00,+2.00,+59.00,-2.00,+91.00,-13.00,-22.00,-15.00,-5.00,+33.00,-29.00,+1.00
+7.00,+53.00,+13.00,-4.00,-34.00,+1.00,+127.00,+7.00,-74.00,-116.00,+0.00,+1.00,+12.00,-7.00,-33.00,-18.00
+10.00,-99.00,-12.00,-3.00,-6.00,-10.00,-95.00,-3.00,+105.00,+83.00,+9.00,-4.00,+12.00,+11.00,-53.00,+13.00
-15.00,+49.00,+8.00,-2.00,-18.00,-19.00,+15.00,+1.00,-104.00,-65.00,-3.00,+18.00,-13.00,+24.00,-5.00,-28.00
-21.00,-65.00,-7.00,-10.00,+21.00,+1.00,+22.00,-9.00,+92.00,+29.00,-5.00,-28.00,-25.00,+45.00,+10.00,+22.00
+24.00,+16.00,+6.00,+11.00,-2.00,+2.00,-92.00,+0.00,-5.00,+117.00,+14.00,+14.00,-17.00,+1.00,-5.00,-31.00
-41.00,-1.00,-9.00,-8.00,-4.00,+0.00,+29.00,-11.00,-128.00,-128.00,-11.00,-24.00,-14.00,+14.00,-40.00,-10.00
+11.00,-5.00,-15.00,+1.00,-27.00,-13.00,+11.00,+15.00,+9.00,+24.00,-4.00,-1.00,+42.00,+12.00,+41.00,-1.00
+2.00,-88.00,-21.00,-9.00,-33.00,-8.00,-83.00,-13.00,-20.00,-26.00,+5.00,+20.00,-36.00,+27.00,+21.00,+20.00
+11.00,+42.00,+43.00,+13.00,+34.00,+12.00,-75.00,+14.00,+24.00,-26.00,-23.00,-15.00,-9.00,-9.00,+100.00,-6.00
-18.00,-30.00,-10.00,-7.00,+0.00,-5.00,+22.00,-9.00,+106.00,+106.00,+13.00,+3.00,+25.00,-36.00,-31.00,-12.00
-9.00,-73.00,-23.00,-11.00,-38.00,+3.00,-11.00,-12.00,-3.00,+19.00,+1.00,-13.00,+0.00,+69.00,-59.00,+2.00
+29.00,+86.00,+33.00,+10.00,+8.00,+1.00,+3.00,+19.00,-61.00,+64.00,-1.00,+13.00,-4.00,-70.00,-14.00,-2.00
-3.00,-114.00,-47.00,-11.00,+3.00,-25.00,-22.00,-9.00,+94.00,+67.00,-2.00,-10.00,+7.00,+50.00,-2.00,+31.00
+9.00,+63.00,+25.00,+2.00,-9.00,+11.00,-68.00,+7.00,-6.00,-7.00,-10.00,+6.00,-13.00,+17.00,-18.00,+3.00
+5.00,-62.00,+2.00,+1.00,+10.00,-10.00,+34.00,-1.00,-39.00,+55.00,+18.00,+3.00,+1.00,-40.00,-58.00,+11.00
-4.00,+14.00,-9.00,-1.00,-4.00,+10.00,+10.00,-22.00,+6.00,-70.00,-20.00,-10.00,+7.00,-30.00,-40.00,-36.00
+10.00,+71.00,+22.00,+7.00,-21.00,-14.00,-82.00,-16.00,-24.00,-34.00,+14.00,+13.00,-9.00,-64.00,+48.00,+27.00
+9.00,+5.00,-1.00,+3.00,+21.00,+19.00,+116.00,+26.00,-3.00,-6.00,-3.00,+18.00,+6.00,+15.00,-43.00,-13.00
-16.00,-40.00,-13.00,-8.00,+18.00,+3.00,-19.00,+3.00,+59.00,-119.00,-18.00,+0.00,-8.00,+65.00,-38.00,-11.00
-13.00,-84.00,-18.00,+0.00,-2.00,+3.00,+55.00,-4.00,-36.00,-3.00,+23.00,-21.00,-1.00,+23.00,+72.00,+18.00
-18.00,-4.00,+17.00,+3.00,+26.00,+8.00,+97.00,+0.00,+100.00,+18.00,-28.00,-30.00,-15.00,-12.00,-124.00,-39.00
-13.00,-68.00,-13.00,-1.00,-3.00,-5.00,-8.00,+2.00,-42.00,+26.00,+28.00,+12.00,+1.00,+38.00,+84.00,+15.00
-29.00,+106.00,+15.00,+3.00,-15.00,+5.00,-38.00,-12.00,+48.00,-88.00,-4.00,+8.00,+0.00,-56.00,+62.00,+37.00
+10.00,-15.00,+12.00,+7.00,+32.00,-1.00,-14.00,+9.00,-46.00,-56.00,+14.00,+20.00,+34.00,+32.00,-21.00,-17.00
-28.00,-51.00,-25.00,-4.00,-20.00,+2.00,+108.00,-10.00,-9.00,+104.00,+10.00,-22.00,+17.00,+63.00,-51.00,-10.00
+34.00,+84.00,+10.00,-3.00,+5.00,-14.00,-28.00,+0.00,+23.00,-32.00,+1.00,-13.00,-13.00,+35.00,+110.00,-4.00
+15.00,+0.00,+22.00,+12.00,-1.00,-4.00,-59.00,+4.00,+27.00,-16.00,-31.00,+14.00,-7.00,+48.00,-7.00,-17.00
-25.00,-53.00,-5.00,-5.00,-33.00,-13.00,-28.00,+1.00,-92.00,-49.00,-4.00,-7.00,+10.00,+2.00,-24.00,-31.00
+9.00,-58.00,-27.00,-13.00,-15.00,-21.00,-13.00,-8.00,+91.00,+16.00,-3.00,+1.00,-20.00,+29.00,+71.00,+38.00
-26.00,-15.00,+16.00,+16.00,+53.00,+4.00,-52.00,-20.00,-92.00,-79.00,-6.00,-4.00,+3.00,-27.00,-93.00,-14.00
+38.00,-7.00,-13.00,-13.00,-1.00,+9.00,+87.00,+12.00,+100.00,-30.00,-9.00,-6.00,+8.00,-10.00,+50.00,+12.00
-15.00,-17.00,+12.00,+8.00,-2.00,+0.00,+19.00,-1.00,-31.00,+42.00,-6.00,+10.00,-1.00,-14.00,+27.00,+28.00
-26.00,-14.00,+14.00,+5.00,-17.00,+2.00,-79.00,-2.00,-82.00,+7.00,+16.00,-4.00,-8.00,-37.00,-34.00,-47.00
-12.00,-78.00,-19.00,-8.00,+2.00,+8.00,+8.00,+10.00,+90.00,+103.00,-1.00,+16.00,+30.00,+40.00,+37.00,+9.00
+17.00,+42.00,-9.00,+0.00,+19.00,-3.00,-115.00,-18.00,+106.00,+127.00,+7.00,+29.00,-14.00,-7.00,-47.00,+15.00
+39.00,+10.00,-8.00,-1.00,+0.00,-16.00,-92.00,+9.00,+127.00,-26.00,-19.00,-47.00,-20.00,-1.00,+115.00,+19.00
+10.00,-70.00,-30.00,-21.00,-36.00,-24.00,+3.00,-14.00,+125.00,-91.00,-8.00,+13.00,-9.00,-17.00,-86.00,+20.00
+23.00,+94.00,+13.00,+2.00,-12.00,+15.00,+30.00,-6.00,-43.00,-95.00,-17.00,-7.00,-5.00,+0.00,+8.00,-20.00
-3.00,-12.00,+16.00,+12.00,+52.00,+12.00,+59.00,+20.00,-10.00,+85.00,+25.00,-3.00,-5.00,+29.00,+23.00,-25.00
+10.00,-17.00,-14.00,-8.00,-4.00,-5.00,+37.00,+6.00,-43.00,-48.00,+3.00,+16.00,+13.00,-26.00,-37.00,+13.00
-14.00,+61.00,+9.00,+1.00,+6.00,+1.00,-53.00,+7.00,-128.00,-91.00,+9.00,-7.00,-2.00,+50.00,-37.00,-14.00
-51.00,-128.00,-13.00,-5.00,-13.00,-19.00,-87.00,-20.00,+127.00,-110.00,-11.00,+31.00,-20.00,-113.00,-65.00,+19.00
+29.00,-44.00,-6.00,+0.00,-4.00,-12.00,-65.00,-12.00,-128.00,+73.00,-4.00,-49.00,-27.00,+20.00,-50.00,-52.00
+11.00,+122.00,+30.00,+3.00,-32.00,-11.00,+26.00,-6.00,+52.00,+127.00,-1.00,+20.00,+25.00,-56.00,-11.00,+18.00
-1.00,-76.00,-13.00,-6.00,-28.00,+7.00,-64.00,-1.00,+65.00,-88.00,-8.00,-8.00,+11.00,+43.00,+83.00,+47.00
+24.00,+6.00,-2.00,+11.00,+55.00,-2.00,+127.00,+26.00,-118.00,+51.00,+17.00,+22.00,-1.00,-17.00,-70.00,-21.00
-59.00,+22.00,+0.00,-9.00,-12.00,+18.00,-60.00,-12.00,+0.00,-128.00,-32.00,-15.00,+17.00,-54.00,+45.00,-24.00
-28.00,-90.00,-14.00,-10.00,-23.00,-43.00,+40.00,+8.00,-101.00,+127.00,+19.00,-7.00,-19.00,+60.00,-100.00,-19.00
-2.00,-115.00,-26.00,+1.00,+7.00,+27.00,-39.00,-6.00,+1.00,+10.00,-4.00,+5.00,+0.00,-33.00,+46.00,+14.00
+16.00,+86.00,+15.00,+1.00,+6.00,+4.00,+11.00,+4.00,+49.00,+2.00,-3.00,-22.00,-11.00,+5.00,-43.00,+39.00
+7.00,-67.00,-1.00,+4.00,-12.00,-7.00,+13.00,+13.00,+76.00,-58.00,-14.00,-1.00,+6.00,+7.00,-97.00,-1.00
+9.00,+33.00,+26.00,+1.00,+12.00,+20.00,-16.00,+11.00,-80.00,-13.00,+22.00,+5.00,+18.00,-15.00,-12.00,-13.00
+27.00,+48.00,-19.00,+2.00,+36.00,+9.00,+124.00,-6.00,-16.00,+112.00,+0.00,+0.00,-8.00,-52.00,+58.00,+5.00
-7.00,-42.00,-34.00,-8.00,-23.00,-13.00,+22.00,-7.00,+19.00,-96.00,-27.00,-10.00,+28.00,+19.00,+24.00,-31.00
+57.00,+91.00,+51.00,+11.00,+11.00,+19.00,+87.00,+6.00,-36.00,+23.00,+18.00,-2.00,-15.00,-14.00,+29.00,+0.00
-19.00,-125.00,-23.00,-3.00,+13.00,+26.00,+0.00,+2.00,+75.00,-15.00,+0.00,-5.00,-8.00,+44.00,-50.00,+14.00
-24.00,+96.00,+5.00,-7.00,-4.00,-12.00,+46.00,+1.00,-51.00,-3.00,-2.00,+19.00,+20.00,-9.00,+30.00,-39.00
-10.00,-2.00,-16.00,-5.00,-3.00,+5.00,+48.00,+8.00,+127.00,+37.00,+21.00,-17.00,-17.00,-5.00,+82.00,+25.00
-51.00,+58.00,+6.00,-4.00,-32.00,+5.00,-97.00,-20.00,-44.00,+73.00,+2.00,+18.00,+12.00,+20.00,-82.00,-7.00
+15.00,-8.00,+8.00,+5.00,+6.00,-10.00,-104.00,-14.00,+106.00,-89.00,-7.00,+12.00,+4.00,+20.00,-54.00,+8.00
+17.00,+127.00,+2.00,-2.00,+1.00,+8.00,+30.00,-5.00,+55.00,+36.00,-11.00,-4.00,+17.00,+17.00,-56.00,+2.00
+60.00,+26.00,+27.00,+9.00,-7.00,-11.00,+49.00,+30.00,-11.00,+116.00,+19.00,-4.00,-9.00,-50.00,+70.00,-7.00
-24.00,-104.00,-37.00,-11.00,+1.00,-11.00,-16.00,+5.00,+2.00,+5.00,-5.00,-27.00,+3.00,-1.00,+30.00,+0.00
+9.00,+127.00,-11.00,-14.00,-20.00,-3.00,+35.00,-13.00,-69.00,-71.00,-7.00,+28.00,+6.00,-10.00,-71.00,-7.00
-24.00,-91.00,+7.00,+8.00,+20.00,+11.00,-49.00,+10.00,-38.00,+48.00,-2.00,-25.00,-10.00,-75.00,-87.00,+15.00
-27.00,-62.00,-7.00,-10.00,-34.00,-18.00,-20.00,-8.00,-121.00,-70.00,-1.00,+53.00,-14.00,+6.00,-64.00,-26.00
+40.00,+43.00,+23.00,+4.00,-13.00,+10.00,+33.00,+2.00,+75.00,-83.00,-10.00,-37.00,+73.00,-6.00,+49.00,+13.00
-4.00,-2.00,+10.00,+15.00,+36.00,+1.00,-70.00,-6.00,+68.00,+14.00,-5.00,-14.00,-86.00,-45.00,-47.00,-18.00
+32.00,+73.00,+12.00,+1.00,-11.00,+22.00,+96.00,+9.00,+27.00,+49.00,+17.00,+10.00,-7.00,-32.00,+77.00,+9.00
-21.00,-38.00,-16.00,-3.00,-23.00,-11.00,+59.00,-6.00,-96.00,+31.00,+1.00,+10.00,+54.00,+32.00,+12.00,+7.00
-56.00,-128.00,-19.00,-4.00,+9.00,-4.00,+1.00,-21.00,-38.00,+90.00,+9.00,+0.00,-34.00,+35.00,-75.00,+7.00
+36.00,+53.00,+1.00,+2.00,-4.00,+18.00,-50.00,+14.00,+74.00,-19.00,-8.00,+3.00,-6.00,+28.00,-11.00,-8.00
-42.00,-109.00,-2.00,-1.00,+39.00,-24.00,+9.00,+4.00,+48.00,-128.00,-15.00,+4.00,+20.00,+21.00,-27.00,-22.00
+54.00,+24.00,+48.00,+9.00,-43.00,+1.00,-93.00,+30.00,+115.00,+123.00,-5.00,-22.00,-15.00,+21.00,+8.00,+20.00
-3.00,+108.00,-7.00,+3.00,+67.00,+30.00,+30.00,+8.00,-21.00,-106.00,+0.00,+3.00,-19.00,-21.00,+39.00,-3.00
-38.00,-117.00,-34.00,-11.00,-12.00,-3.00,+33.00,-11.00,-71.00,+30.00,-2.00,-9.00,+18.00,-15.00,-35.00,-43.00
+17.00,+6.00,+4.00,-5.00,-28.00,-29.00,-128.00,-40.00,-17.00,-6.00,+7.00,-1.00,-18.00,+42.00,-62.00,-8.00
-35.00,-91.00,-14.00,-3.00,+48.00,+45.00,+1.00,-21.00,+10.00,-97.00,+0.00,-6.00,+11.00,-57.00,+40.00,-7.00
+49.00,+74.00,+6.00,+4.00,-6.00,-22.00,+59.00,+16.00,+26.00,-22.00,-21.00,+3.00,-14.00,-20.00,+18.00,+29.00
-28.00,+17.00,+7.00,+8.00,-4.00,-28.00,-6.00,+6.00,-99.00,+114.00,+9.00,-3.00,-1.00,-6.00,+72.00,+12.00
+4.00,+64.00,+3.00,-4.00,+21.00,+13.00,-76.00,-9.00,+7.00,+37.00,+10.00,+3.00,-15.00,+33.00,-2.00,-14.00
-24.00,-61.00,-14.00,-7.00,-9.00,-2.00,-32.00,-32.00,-106.00,-89.00,+2.00,-8.00,-5.00,-47.00,+10.00,-12.00
-1.00,-90.00,-10.00,-3.00,-30.00,-14.00,-36.00,-4.00,+88.00,+46.00,+24.00,+2.00,-14.00,-2.00,-42.00,+15.00
+28.00,+48.00,+11.00,+1.00,+33.00,-17.00,+19.00,-6.00,+2.00,-62.00,-12.00,+0.00,+3.00,+7.00,+83.00,+6.00
-70.00,-115.00,-39.00,-8.00,+0.00,+0.00,-6.00,-7.00,+33.00,-34.00,-9.00,+19.00,-4.00,+71.00,-10.00,+14.00
+85.00,+127.00,+48.00,+10.00,-1.00,-14.00,-22.00,+13.00,+54.00,-13.00,-12.00,-44.00,-7.00,+35.00,-25.00,-4.00
+11.00,-102.00,-4.00,+3.00,+13.00,+0.00,-51.00,+17.00,-29.00,+70.00,-2.00,+12.00,+19.00,-103.00,-95.00,-19.00
-11.00,-25.00,+3.00,+0.00,-31.00,+14.00,+103.00,+24.00,+112.00,+6.00,+10.00,+5.00,+8.00,+15.00,+93.00,+31.00
+19.00,-76.00,-14.00,-6.00,+8.00,-9.00,-45.00,+10.00,-98.00,+13.00,+18.00,-7.00,-12.00,-49.00,-19.00,-9.00
-33.00,-16.00,-8.00,-7.00,+3.00,-3.00,-37.00,-12.00,-44.00,+28.00,+11.00,+4.00,-15.00,+30.00,+15.00,+10.00
-3.00,+81.00,-22.00,-3.00,-23.00,-3.00,-117.00,-23.00,+0.00,-10.00,-16.00,-2.00,-7.00,+48.00,-4.00,-21.00
+57.00,+60.00,+39.00,+11.00,+6.00,-1.00,-11.00,+11.00,-22.00,-6.00,+4.00,+7.00,+16.00,-10.00,-22.00,-8.00
-21.00,+79.00,+3.00,+6.00,+7.00,+5.00,+75.00,-15.00,-60.00,-68.00,-12.00,-12.00,-3.00,-17.00,+60.00,+8.00
-21.00,-62.00,-4.00,-5.00,-25.00,-23.00,-86.00,+4.00,-63.00,+127.00,-6.00,-9.00,-20.00,+22.00,-14.00,-11.00
-23.00,-8.00,-1.00,-2.00,-4.00,-21.00,+44.00,-10.00,-64.00,-60.00,+11.00,+21.00,+40.00,-22.00,+23.00,+21.00
-27.00,-32.00,-10.00,-4.00,+0.00,-12.00,-55.00,-25.00,-81.00,-16.00,-7.00,-8.00,+29.00,-7.00,+51.00,-36.00
+14.00,+44.00,+20.00,+5.00,-1.00,+9.00,+70.00,+12.00,+57.00,-126.00,-4.00,-1.00,-13.00,+37.00,-26.00,+23.00
+7.00,-7.00,-12.00,+1.00,-1.00,-8.00,+54.00,+0.00,-21.00,+81.00,+5.00,+0.00,+1.00,+1.00,+104.00,-20.00
-42.00,-118.00,-8.00,-5.00,-11.00,-3.00,+39.00,-5.00,+14.00,-3.00,+2.00,-10.00,-35.00,-5.00,-34.00,+9.00
+20.00,+68.00,+25.00,+5.00,+14.00,+11.00,-53.00,+14.00,+20.00,-86.00,-12.00,-4.00,+23.00,+9.00,+33.00,-15.00
-12.00,-104.00,-8.00,-7.00,-13.00,-12.00,-82.00,-7.00,-23.00,+14.00,+16.00,-3.00,+7.00,-50.00,-71.00,-17.00
+7.00,+54.00,+9.00,+0.00,-13.00,-8.00,+56.00,+6.00,+48.00,-44.00,-6.00,-2.00,+11.00,+29.00,-24.00,+15.00
+18.00,-1.00,+1.00,+2.00,+17.00,+5.00,-38.00,+17.00,-18.00,-43.00,+8.00,+6.00,-17.00,+37.00,+8.00,-4.00
+7.00,+3.00,-28.00,-12.00,+1.00,-1.00,-4.00,-9.00,+96.00,+93.00,+1.00,-9.00,-20.00,-30.00,+61.00,+18.00
+17.00,+4.00,+16.00,+7.00,-12.00,+11.00,-59.00,-2.00,-71.00,-65.00,-38.00,+5.00,-2.00,-5.00,-24.00,+11.00
-26.00,-82.00,-4.00,-2.00,-12.00,-17.00,-64.00,+8.00,-84.00,+19.00,+10.00,-2.00,-11.00,-91.00,-64.00,-12.00
-8.00,-12.00,+15.00,+7.00,+21.00,+31.00,+4.00,+7.00,-58.00,+7.00,-25.00,+6.00,-5.00,+24.00,+29.00,-25.00
-33.00,-70.00,-25.00,-7.00,-1.00,-3.00,+28.00,-17.00,-83.00,-26.00,+6.00,-17.00,-15.00,-37.00,+41.00,+3.00
-11.00,-30.00,+4.00,+2.00,+4.00,-12.00,-1.00,+29.00,+127.00,+11.00,+3.00,+17.00,+12.00,-4.00,+33.00,+32.00
+0.00,-28.00,-20.00,-12.00,-4.00,-13.00,-26.00,-41.00,+20.00,+88.00,+12.00,-7.00,-1.00,+45.00,+19.00,+5.00
+21.00,+74.00,+18.00,+6.00,-3.00,+2.00,-33.00,+6.00,-85.00,-98.00,-6.00,+4.00,+17.00,+0.00,+85.00,-17.00
+24.00,+23.00,+0.00,-5.00,-22.00,+5.00,-47.00,-1.00,-85.00,-113.00,-17.00,-13.00,-26.00,-28.00,-42.00,+9.00
-48.00,-119.00,-23.00,-5.00,+17.00,+9.00,+76.00,-6.00,-21.00,+116.00,+6.00,-5.00,+30.00,+51.00,+99.00,+4.00
-19.00,+71.00,+0.00,+5.00,+20.00,+16.00,+30.00,+2.00,+26.00,-78.00,-10.00,+8.00,-17.00,+48.00,-102.00,-2.00
-2.00,-38.00,+17.00,-6.00,-16.00,-25.00,-63.00,-1.00,-65.00,+119.00,+7.00,-9.00,+7.00,-28.00,+14.00,+1.00
-36.00,-36.00,-21.00,-3.00,+26.00,+2.00,+76.00,-11.00,+78.00,-31.00,+12.00,+5.00,+10.00,+25.00,-14.00,+25.00
+23.00,-31.00,-5.00,-10.00,-13.00,+13.00,+24.00,+6.00,+1.00,-2.00,-2.00,-13.00,-18.00,+11.00,+43.00,-30.00
+41.00,+54.00,+2.00,+0.00,-14.00,-21.00,-82.00,-28.00,-7.00,+76.00,+21.00,+3.00,-7.00,+27.00,-12.00,+23.00
-15.00,+33.00,+4.00,+4.00,+11.00,+11.00,-3.00,-9.00,+90.00,-123.00,-17.00,+3.00,+0.00,+38.00,+55.00,+22.00
+17.00,+47.00,+6.00,+7.00,+2.00,+0.00,-46.00,+8.00,-54.00,+127.00,+43.00,+12.00,-1.00,-70.00,-94.00,-18.00
-16.00,-5.00,-1.00,-2.00,-1.00,-2.00,+19.00,-15.00,-23.00,-70.00,-16.00,-9.00,-23.00,-15.00,-46.00,-35.00
+7.00,+61.00,-4.00,-7.00,+2.00,+1.00,-61.00,+5.00,+27.00,-62.00,-17.00,-1.00,+8.00,-20.00,+86.00,+14.00
+6.00,-4.00,+14.00,-1.00,-29.00,-3.00,+78.00,+6.00,+98.00,-7.00,+2.00,+2.00,-7.00,-29.00,-88.00,+21.00
-19.00,-75.00,-18.00,-10.00,+1.00,-3.00,+115.00,+15.00,+118.00,-2.00,-4.00,-2.00,+1.00,+10.00,-24.00,+29.00
+26.00,+127.00,+15.00,+4.00,+16.00,-17.00,-42.00,-15.00,-17.00,-100.00,-11.00,-7.00,-8.00,-29.00,+5.00,-11.00
-3.00,-117.00,+0.00,+5.00,+4.00,+23.00,-15.00,+8.00,-70.00,-41.00,-5.00,+4.00,-5.00,-6.00,-41.00,-16.00
+13.00,+28.00,-12.00,-4.00,+15.00,-2.00,-29.00,-11.00,-8.00,-71.00,-20.00,-7.00,-12.00,-11.00,+39.00,+3.00
+8.00,+48.00,+24.00,+4.00,-6.00,+2.00,+17.00,+15.00,-27.00,+65.00,-1.00,-5.00,-9.00,+19.00,-7.00,-18.00
-20.00,+58.00,-1.00,-4.00,-17.00,-9.00,+50.00,+15.00,+13.00,+64.00,-11.00,+2.00,+1.00,-30.00,+48.00,-17.00
+58.00,+77.00,+41.00,+19.00,+3.00,+16.00,+15.00,+34.00,+101.00,-26.00,-9.00,-8.00,-7.00,+26.00,-45.00,+27.00
-8.00,+37.00,-21.00,-11.00,+23.00,+7.00,+36.00,-9.00,-67.00,+15.00,+22.00,+8.00,-13.00,-14.00,-38.00,-12.00
-58.00,-110.00,-7.00,+4.00,+3.00,-3.00,-46.00,-12.00,+15.00,+3.00,-26.00,-9.00,-16.00,+8.00,-30.00,-15.00
+41.00,+40.00,+15.00,+2.00,-5.00,+12.00,+6.00,+5.00,+68.00,+62.00,+16.00,-7.00,+28.00,+59.00,-5.00,+27.00
-33.00,-45.00,-23.00,-8.00,-7.00,-8.00,+117.00,+9.00,-55.00,-84.00,-8.00,-14.00,-5.00,+22.00,-6.00,-26.00
+12.00,+13.00,-12.00,-8.00,-20.00,-8.00,+46.00,+2.00,+84.00,+105.00,+7.00,+7.00,-10.00,-48.00,+73.00,+26.00
+2.00,-88.00,+5.00,-2.00,-14.00,-15.00,-62.00,-14.00,-87.00,-64.00,-15.00,-4.00,-2.00,+16.00,-1.00,-19.00
+5.00,+72.00,+1.00,-2.00,+5.00,-3.00,-37.00,-18.00,-18.00,-85.00,-1.00,+8.00,+32.00,+12.00,-30.00,+24.00
-26.00,+52.00,-31.00,-7.00,-6.00,-2.00,-6.00,+2.00,-22.00,+51.00,-10.00,+8.00,+13.00,+25.00,+34.00,-1.00
+60.00,-127.00,+18.00,+0.00,-20.00,+3.00,+18.00,+3.00,-7.00,+36.00,+19.00,-17.00,-1.00,+21.00,-35.00,-20.00
-30.00,-41.00,-2.00,+0.00,+3.00,-6.00,+127.00,+28.00,+56.00,-40.00,+1.00,+17.00,-10.00,+18.00,-22.00,+4.00
+16.00,+74.00,+15.00,+7.00,+13.00,-1.00,+14.00,-5.00,-66.00,+105.00,-4.00,-1.00,-14.00,-33.00,-16.00,-21.00
-28.00,-103.00,-22.00,-10.00,+23.00,-8.00,-2.00,-19.00,+9.00,-128.00,-13.00,+1.00,-2.00,-104.00,-43.00,-15.00
-19.00,+3.00,-2.00,+3.00,-5.00,-9.00,-45.00,-14.00,-44.00,+38.00,+9.00,+2.00,+13.00,+18.00,-21.00,+5.00
+34.00,+127.00,+6.00,-6.00,-11.00,-19.00,-85.00,-5.00,+2.00,-52.00,+3.00,-1.00,-1.00,+9.00,+29.00,+6.00
+1.00,-112.00,-12.00,-3.00,-1.00,+20.00,+67.00,-6.00,-10.00,-21.00,+15.00,+1.00,-16.00,+5.00,-12.00,+4.00
+16.00,+83.00,+9.00,+1.00,-29.00,+8.00,+9.00,+0.00,+107.00,+105.00,-4.00,-9.00,+10.00,-45.00,-22.00,-22.00
-43.00,+36.00,-4.00,+0.00,+47.00,+3.00,+40.00,+18.00,-90.00,+17.00,-12.00,+4.00,+6.00,+34.00,-68.00,-14.00
+15.00,-7.00,-5.00,-6.00,-16.00,+6.00,-4.00,-12.00,-44.00,+26.00,-6.00,-5.00,-1.00,+27.00,-47.00,-10.00
-13.00,-110.00,-16.00,+1.00,+3.00,-16.00,-46.00,+3.00,+68.00,+21.00,+17.00,+4.00,-7.00,-34.00,-48.00,+23.00
+28.00,-23.00,+27.00,+12.00,+10.00,+4.00,+6.00,+17.00,-37.00,-68.00,-8.00,-2.00,+9.00,-62.00,+2.00,-3.00
+1.00,-34.00,-6.00,-4.00,-22.00,+3.00,-35.00,+0.00,-60.00,-93.00,-16.00,+16.00,-25.00,-3.00,+21.00,-12.00
-28.00,-22.00,-21.00,-6.00,+1.00,+13.00,+109.00,-9.00,+127.00,+107.00,+10.00,-19.00,+26.00,+15.00,-10.00,+27.00
+38.00,+109.00,+22.00,+5.00,-5.00,-3.00,-32.00,+23.00,+11.00,-76.00,-2.00,+9.00,+9.00,+25.00,+6.00,+8.00
-2.00,+10.00,+2.00,+0.00,+3.00,+14.00,-45.00,-4.00,-69.00,+98.00,+17.00,-7.00,-16.00,+57.00,+80.00,-3.00
+14.00,+82.00,+4.00,+1.00,-10.00,-18.00,-54.00,-8.00,+79.00,-51.00,-7.00,-12.00,+9.00,-57.00,-42.00,-2.00
-21.00,-93.00,-7.00,-3.00,-1.00,+7.00,+6.00,-2.00,-128.00,-46.00,+7.00,+8.00,+14.00,+71.00,+18.00,-40.00
+13.00,-40.00,-17.00,-10.00,-35.00,-12.00,-11.00,+0.00,+46.00,+71.00,+3.00,+3.00,-26.00,-84.00,+46.00,+36.00
-17.00,-27.00,-9.00,+2.00,+12.00,+3.00,-68.00,-4.00,+7.00,-57.00,-5.00,+10.00,+14.00,+31.00,-78.00,-14.00
+1.00,-46.00,-8.00,+0.00,-19.00,+5.00,+122.00,-1.00,+4.00,+30.00,+11.00,-8.00,+1.00,+16.00,+79.00,+22.00
+42.00,+87.00,+12.00,+3.00,+25.00,+9.00,-78.00,-2.00,+45.00,-31.00,-4.00,+14.00,-10.00,-12.00,-28.00,-2.00
-26.00,-60.00,-2.00,-2.00,-20.00,+10.00,+17.00,-3.00,+26.00,-72.00,-12.00,-11.00,-4.00,-6.00,-14.00,-27.00
-35.00,-39.00,+0.00,+1.00,+30.00,+7.00,+83.00,+9.00,+18.00,+65.00,+20.00,+6.00,-7.00,+21.00,+34.00,+21.00
-57.00,+26.00,-11.00,-3.00,+16.00,+1.00,-93.00,-19.00,-21.00,-16.00,-8.00,-6.00,+6.00,-53.00,-21.00,+0.00
+63.00,+34.00,+2.00,+4.00,+14.00,+12.00,-24.00,+1.00,-34.00,+23.00,-15.00,-4.00,-13.00,-11.00,-54.00,-7.00
-48.00,-83.00,-9.00,-1.00,-9.00,-16.00,-17.00,-15.00,-128.00,-51.00,+8.00,-2.00,+19.00,+23.00,+1.00,-14.00
+57.00,+85.00,+10.00,+1.00,-5.00,-13.00,+76.00,+9.00,+106.00,-85.00,-13.00,-6.00,+5.00,-21.00,-3.00,+44.00
+25.00,-116.00,+9.00,+7.00,-5.00,+4.00,+62.00,+13.00,+44.00,-38.00,+1.00,-6.00,-2.00,+43.00,-61.00,-21.00
-2.00,+103.00,+5.00,-3.00,-24.00,-6.00,+50.00,-4.00,+40.00,-11.00,+3.00,+4.00,-3.00,-26.00,-6.00,+32.00
-11.00,-49.00,+12.00,+6.00,+25.00,-17.00,+33.00,+9.00,+60.00,+70.00,-5.00,-5.00,-16.00,+7.00,+14.00,-7.00
-46.00,-31.00,-22.00,-10.00,-14.00,+4.00,-40.00,-21.00,-61.00,-41.00,-14.00,+1.00,-12.00,+72.00,+70.00,+3.00
-17.00,-45.00,+3.00,-1.00,-3.00,-8.00,+28.00,-4.00,-55.00,-37.00,-2.00,-7.00,+44.00,-19.00,+3.00,-7.00
-5.00,+48.00,+11.00,+7.00,-1.00,-10.00,-57.00,-1.00,-11.00,-64.00,-1.00,+12.00,+1.00,-74.00,+43.00,-5.00
+11.00,-66.00,-13.00,-5.00,-6.00,+2.00,+56.00,+8.00,+40.00,-77.00,-22.00,-6.00,-16.00,+17.00,-50.00,+17.00
-9.00,+88.00,-20.00,-16.00,-11.00,-12.00,-36.00,-11.00,-71.00,+89.00,+17.00,-4.00,-7.00,-65.00,-42.00,-29.00
-22.00,-91.00,+4.00,+7.00,+2.00,+0.00,-11.00,+4.00,+39.00,+101.00,+12.00,-10.00,-4.00,+19.00,+71.00,+12.00
-12.00,-19.00,-11.00,-3.00,-1.00,+9.00,-3.00,+6.00,-73.00,+4.00,-1.00,-5.00,+2.00,+1.00,-46.00,+15.00
-16.00,-45.00,-8.00,-8.00,-13.00,-5.00,+38.00,+7.00,-47.00,+4.00,+2.00,+12.00,+11.00,-9.00,+9.00,-11.00
+31.00,+27.00,+35.00,+10.00,+13.00,+18.00,+24.00,-19.00,-13.00,-13.00,+6.00,+4.00,+3.00,-54.00,-3.00,-5.00
-9.00,-29.00,-23.00,-10.00,+2.00,+1.00,-41.00,-20.00,-15.00,+5.00,-11.00,-1.00,-16.00,-1.00,+2.00,-17.00
-2.00,+31.00,+4.00,-2.00,-29.00,-11.00,+55.00,+8.00,-73.00,+31.00,+3.00,+2.00,-10.00,-32.00,+102.00,-9.00
+5.00,+46.00,+3.00,+3.00,+57.00,+5.00,+48.00,+2.00,+54.00,-52.00,-22.00,-1.00,+28.00,+55.00,+7.00,+31.00
-19.00,-7.00,-4.00,-1.00,-6.00,-13.00,-51.00,+5.00,-14.00,+35.00,+14.00,+0.00,-4.00,+22.00,-34.00,+1.00
-37.00,-23.00,+1.00,+0.00,+14.00,-8.00,-10.00,-16.00,+40.00,+86.00,+5.00,-4.00,-8.00,+56.00,+5.00,-7.00
-4.00,-21.00,-20.00,-6.00,-7.00,-2.00,-72.00,-16.00,+21.00,-34.00,+6.00,+5.00,+9.00,+53.00,+78.00,+9.00
-27.00,-29.00,-3.00,+6.00,-2.00,-27.00,+16.00,+8.00,-105.00,-32.00,-2.00,-2.00,-10.00,-11.00,+16.00,-30.00
-28.00,-66.00,+7.00,+1.00,+3.00,-1.00,+70.00,+8.00,+74.00,-63.00,-16.00,-7.00,+3.00,-18.00,+17.00,-1.00
-27.00,+127.00,+11.00,+4.00,-8.00,+5.00,-30.00,+13.00,-25.00,-56.00,+16.00,+7.00,+2.00,+30.00,-49.00,+12.00
-60.00,-128.00,+3.00,+3.00,+8.00,+8.00,+6.00,-1.00,+4.00,+33.00,-4.00,+13.00,+6.00,+3.00,-26.00,-4.00
-25.00,+85.00,-10.00,-7.00,-16.00,-4.00,+51.00,-2.00,-17.00,+19.00,+1.00,-4.00,-4.00,-74.00,+31.00,-22.00
+18.00,-39.00,+14.00,+2.00,+6.00,+7.00,+47.00,-12.00,-79.00,+67.00,-9.00,-10.00,-26.00,+6.00,-67.00,-19.00
-19.00,+60.00,-4.00,-6.00,-22.00,-22.00,+60.00,+1.00,-101.00,-33.00,+10.00,-18.00,-30.00,-50.00,+32.00,+15.00
+62.00,-98.00,-15.00,+0.00,+8.00,+2.00,+87.00,+10.00,+127.00,-22.00,-5.00,-15.00,-29.00,-18.00,-19.00,-4.00
+58.00,+8.00,+19.00,-2.00,-8.00,+3.00,-128.00,-7.00,-19.00,+72.00,-9.00,-2.00,-13.00,-39.00,-22.00,-13.00
+3.00,-112.00,+2.00,+4.00,-3.00,-3.00,-62.00,-4.00,-77.00,-98.00,-8.00,-2.00,+2.00,-11.00,-25.00,+12.00
+21.00,+2.00,-28.00,-9.00,+0.00,+5.00,+19.00,+2.00,+68.00,+3.00,-9.00,-2.00,-4.00,-18.00,-74.00,-19.00
+7.00,+101.00,+21.00,-1.00,+2.00,-5.00,-49.00,-6.00,+74.00,+17.00,+11.00,-5.00,+14.00,+68.00,+93.00,+2.00
+34.00,+6.00,+4.00,+9.00,+18.00,+28.00,+72.00,+11.00,-25.00,-51.00,-27.00,-7.00,-15.00,-29.00,-24.00,+8.00
-13.00,+0.00,-8.00,-10.00,-49.00,-14.00,-42.00,-2.00,+123.00,+26.00,+34.00,+15.00,-4.00,-24.00,-10.00,+31.00
+22.00,-31.00,-12.00,-1.00,+33.00,-9.00,-26.00,-5.00,+60.00,-3.00,-11.00,+5.00,-23.00,+31.00,+74.00,-7.00
-9.00,-79.00,-9.00,-6.00,+3.00,-21.00,+40.00,+15.00,+67.00,-65.00,-34.00,-9.00,+17.00,-3.00,-13.00,+5.00
+4.00,+82.00,+7.00,+9.00,+15.00,+10.00,-39.00,-2.00,-56.00,+48.00,+33.00,+0.00,+9.00,+11.00,+15.00,-5.00
-40.00,-78.00,-16.00,-8.00,+7.00,-5.00,-6.00,-7.00,+22.00,-46.00,-16.00,+1.00,+9.00,+31.00,+35.00,-14.00
+46.00,-86.00,+9.00,+1.00,-17.00,+11.00,+38.00,+10.00,-45.00,-127.00,-15.00,+14.00,+11.00,+27.00,-10.00,+19.00
-8.00,+18.00,+22.00,+5.00,+4.00,+11.00,-25.00,+8.00,-75.00,+35.00,+5.00,-21.00,+14.00,-67.00,+4.00,-27.00
+16.00,+79.00,+17.00,+1.00,+2.00,-3.00,-57.00,-4.00,+42.00,+10.00,+2.00,-1.00,-42.00,-19.00,-37.00,+3.00
-30.00,-91.00,-40.00,-5.00,+1.00,-2.00,-2.00,+5.00,-52.00,-103.00,-26.00,+1.00,+23.00,-10.00,+12.00,+13.00
-6.00,-1.00,+23.00,+2.00,+14.00,+2.00,-62.00,+2.00,+55.00,+97.00,+42.00,-3.00,-14.00,-2.00,+19.00,+2.00
-3.00,+13.00,-11.00,+0.00,-4.00,-10.00,-30.00,-10.00,-128.00,-114.00,-3.00,+35.00,-30.00,-26.00,+16.00,-23.00
-31.00,-87.00,-16.00,-7.00,-35.00,-11.00,-128.00,-15.00,+24.00,+65.00,+14.00,-12.00,-11.00,+8.00,+81.00,+21.00
-10.00,+1.00,-2.00,-3.00,+6.00,-6.00,+54.00,-12.00,-76.00,-26.00,-14.00,-33.00,-12.00,-32.00,+9.00,-12.00
+71.00,+87.00,+9.00,+1.00,-12.00,+9.00,-36.00,+8.00,-25.00,-128.00,-26.00,-6.00,+4.00,+80.00,-65.00,+10.00
-20.00,-59.00,+6.00,+5.00,+5.00,-6.00,-40.00,-18.00,+14.00,-12.00,+3.00,+7.00,+10.00,+64.00,-23.00,-7.00
+11.00,+3.00,-2.00,-7.00,-26.00,+9.00,+72.00,+8.00,-23.00,+102.00,+15.00,-6.00,+12.00,+28.00,-37.00,-25.00
-2.00,-4.00,-19.00,-3.00,+18.00,+5.00,+11.00,-17.00,+1.00,-109.00,-28.00,+10.00,+7.00,-15.00,-23.00,-9.00
+0.00,-77.00,+24.00,+7.00,-4.00,-16.00,-58.00,+11.00,-102.00,+127.00,+16.00,-4.00,-2.00,-63.00,+65.00,-21.00
-4.00,+42.00,-3.00,-4.00,-9.00,+11.00,+12.00,-9.00,+67.00,+10.00,+10.00,-10.00,-1.00,+21.00,-24.00,+21.00
+36.00,+53.00,-11.00,+0.00,+5.00,-1.00,+11.00,+3.00,+10.00,-122.00,-18.00,+13.00,+3.00,+24.00,-23.00,+0.00
+24.00,-18.00,-4.00,+0.00,+8.00,+6.00,-79.00,+1.00,-10.00,+26.00,-10.00,-4.00,-7.00,+19.00,+63.00,-17.00
-16.00,-44.00,+6.00,+4.00,-17.00,+10.00,+29.00,+11.00,+48.00,+80.00,+7.00,-9.00,+14.00,-21.00,-44.00,+7.00
+0.00,+41.00,+1.00,-2.00,+45.00,+14.00,-111.00,-14.00,-105.00,-33.00,-19.00,-6.00,-15.00,-34.00,-92.00,-23.00
-25.00,-35.00,-9.00,-10.00,-21.00,-23.00,+26.00,-10.00,-28.00,+91.00,+21.00,+4.00,+6.00,+4.00,+47.00,-3.00
+23.00,-50.00,+18.00,+6.00,-9.00,+5.00,-58.00,+19.00,+92.00,+118.00,+18.00,+5.00,-2.00,+7.00,+49.00,+24.00
+42.00,+127.00,+3.00,+0.00,-1.00,-19.00,+13.00,-8.00,+36.00,-91.00,-13.00,+11.00,+1.00,-5.00,+27.00,-9.00
-22.00,-38.00,-27.00,-14.00,-21.00,+3.00,-3.00,-18.00,-2.00,+44.00,+16.00,+9.00,+25.00,-39.00,+43.00,+15.00
-12.00,-29.00,+2.00,+2.00,+2.00,-4.00,-104.00,-2.00,-3.00,-119.00,-21.00,-17.00,-24.00,+54.00,-73.00,-24.00
-9.00,+83.00,+0.00,+1.00,+1.00,+6.00,+69.00,-1.00,+69.00,-18.00,+0.00,+17.00,+28.00,+32.00,+74.00,+9.00
-9.00,-69.00,-7.00,-2.00,-11.00,+5.00,-26.00,-10.00,-19.00,-26.00,-4.00,-17.00,+4.00,+12.00,-20.00,+0.00
+24.00,-26.00,+13.00,+5.00,-14.00,-1.00,-12.00,+9.00,-27.00,+40.00,+2.00,+31.00,+11.00,-14.00,-2.00,+11.00
-6.00,+29.00,-9.00,-3.00,+16.00,-10.00,+6.00,-12.00,-52.00,-45.00,-7.00,-53.00,-5.00,-74.00,+8.00,-8.00
+22.00,-26.00,+13.00,+0.00,-11.00,+2.00,-18.00,+4.00,+43.00,-86.00,-16.00,-11.00,-31.00,-3.00,-3.00,+8.00
-26.00,+65.00,-6.00,+2.00,+14.00,+15.00,-85.00,-6.00,+23.00,+80.00,+36.00,+8.00,+4.00,+3.00,+28.00,-6.00
-23.00,+19.00,+3.00,-2.00,-3.00,-9.00,+12.00,+8.00,-59.00,-53.00,-4.00,-7.00,+1.00,+11.00,-46.00,-10.00
-19.00,+24.00,-1.00,-5.00,+1.00,-3.00,+1.00,-3.00,-5.00,-3.00,+19.00,+27.00,-28.00,+42.00,+19.00,+7.00
+35.00,+7.00,+11.00,+10.00,-21.00,+23.00,-76.00,+9.00,-34.00,-128.00,-20.00,-12.00,+14.00,-14.00,-36.00,-21.00
-6.00,-23.00,-12.00,-8.00,+8.00,-27.00,+84.00,-1.00,+14.00,-23.00,-17.00,+4.00,+1.00,-37.00,-46.00,+9.00
+13.00,-21.00,+1.00,+0.00,-29.00,+7.00,-10.00,+6.00,+8.00,+127.00,+16.00,-12.00,-14.00,-2.00,-15.00,+5.00
+3.00,+35.00,-3.00,+5.00,+46.00,+18.00,-14.00,-11.00,-37.00,-64.00,-8.00,+8.00,+4.00,-8.00,-33.00,-17.00
-68.00,-65.00,-7.00,-6.00,-16.00,+7.00,+66.00,-7.00,-75.00,+127.00,+44.00,-4.00,-8.00,+4.00,-75.00,-3.00
+30.00,-45.00,+10.00,+5.00,+20.00,+10.00,+43.00,+36.00,-50.00,-105.00,-22.00,+7.00,+0.00,-12.00,+5.00,-10.00
-49.00,-124.00,-11.00,-1.00,+31.00,-4.00,-77.00,+2.00,+2.00,+7.00,+0.00,-9.00,-12.00,+17.00,+19.00,+10.00
+55.00,+37.00,+6.00,-2.00,-26.00,+1.00,+10.00,+16.00,-85.00,-82.00,-9.00,+2.00,+20.00,+16.00,-3.00,+0.00
-13.00,+53.00,-13.00,-8.00,-6.00,-20.00,+35.00,-16.00,+2.00,-12.00,-4.00,+14.00,+8.00,+83.00,+5.00,-3.00
+8.00,-4.00,+4.00,+0.00,-6.00,-4.00,-5.00,-6.00,+16.00,-29.00,-9.00,-22.00,-1.00,+2.00,-20.00,-13.00
+104.00,-128.00,-22.00,-10.00,+4.00,-1.00,+52.00,-17.00,-45.00,-107.00,-2.00,-7.00,-16.00,+13.00,+2.00,-8.00
-3.00,-2.00,+21.00,+6.00,+6.00,+9.00,-33.00,-10.00,+111.00,-42.00,-7.00,+6.00,-7.00,-25.00,-40.00,+5.00
+3.00,+24.00,+6.00,+5.00,+23.00,+0.00,+6.00,+18.00,+65.00,+127.00,+21.00,+35.00,-1.00,-36.00,-52.00,-14.00
-80.00,+32.00,-26.00,-14.00,-27.00,-20.00,-61.00,-4.00,-65.00,-67.00,+9.00,-16.00,-20.00,+16.00,+27.00,+0.00
-53.00,+12.00,-13.00,+1.00,-4.00,+9.00,-26.00,-27.00,-27.00,-128.00,-19.00,-17.00,+16.00,+0.00,+36.00,-13.00
+60.00,-112.00,+19.00,+5.00,-4.00,-12.00,+86.00,+11.00,+94.00,+126.00,+6.00,+6.00,+20.00,+30.00,+16.00,+27.00
-17.00,+1.00,+1.00,-6.00,-24.00,-7.00,+76.00,-9.00,+54.00,+24.00,+12.00,+10.00,-10.00,-15.00,-12.00,+4.00
+53.00,-21.00,+10.00,+6.00,+19.00,+14.00,-114.00,-28.00,+2.00,-51.00,-20.00,+0.00,-1.00,-31.00,-16.00,-7.00
-32.00,+34.00,-11.00,-8.00,-39.00,-10.00,+108.00,+14.00,+8.00,+41.00,-8.00,+0.00,-10.00,-1.00,+3.00,-7.00
-39.00,-43.00,-17.00,+0.00,+40.00,+10.00,-43.00,-5.00,-18.00,-104.00,-11.00,+1.00,+1.00,+1.00,+43.00,+5.00
-33.00,+61.00,+12.00,+2.00,+16.00,-7.00,-62.00,+1.00,-43.00,+24.00,+13.00,-8.00,+26.00,+44.00,+20.00,-24.00
-65.00,-20.00,-13.00,-7.00,-31.00,-15.00,+26.00,-8.00,+46.00,+47.00,+7.00,+8.00,-35.00,-42.00,-25.00,+13.00
-40.00,+40.00,-7.00,-4.00,-16.00,+11.00,-23.00,+51.00,+42.00,-90.00,-19.00,-7.00,+1.00,-13.00,-25.00,+24.00
-27.00,+11.00,+10.00,+7.00,-6.00,+15.00,-33.00,+22.00,-13.00,+103.00,+23.00,+8.00,+6.00,-2.00,+14.00,-4.00
-17.00,+83.00,-3.00,-2.00,+22.00,-12.00,-20.00,+0.00,+46.00,-73.00,-10.00,-17.00,-11.00,+35.00,+35.00,-2.00
-32.00,-19.00,+6.00,+4.00,+17.00,+21.00,+122.00,-6.00,+28.00,-86.00,-11.00,+9.00,+13.00,+25.00,+10.00,+5.00
+14.00,-47.00,+10.00,+9.00,+8.00,-5.00,-1.00,-10.00,+48.00,+83.00,+14.00,+3.00,-2.00,+11.00,+22.00,+8.00
-7.00,-27.00,-6.00,-7.00,-20.00,-7.00,-72.00,+0.00,+33.00,-46.00,-7.00,-4.00,-13.00,-10.00,-45.00,-10.00
+71.00,-76.00,-15.00,-8.00,-4.00,+3.00,-66.00,-7.00,+2.00,+10.00,+1.00,-7.00,-3.00,-41.00,-5.00,+9.00
+31.00,+127.00,-6.00,-11.00,-10.00,+3.00,-16.00,+9.00,+8.00,+12.00,-11.00,-1.00,-9.00,-4.00,+27.00,-7.00
-26.00,-116.00,-8.00,+0.00,-8.00,+0.00,-29.00,-27.00,-2.00,-5.00,+0.00,+0.00,-3.00,+6.00,-7.00,+7.00
-22.00,-90.00,+4.00,+5.00,+5.00,+0.00,+127.00,+3.00,-76.00,+1.00,-3.00,-4.00,+4.00,+8.00,-3.00,-7.00
+40.00,+92.00,+56.00,+9.00,+3.00,+5.00,+94.00,+13.00,-117.00,+2.00,-2.00,-7.00,+33.00,-26.00,-3.00,-2.00
-7.00,-128.00,-13.00,+4.00,+3.00,+7.00,-21.00,-5.00,-55.00,+19.00,+0.00,+10.00,-4.00,-4.00,-15.00,-2.00
+17.00,+70.00,+2.00,-2.00,+10.00,-3.00,+64.00,+6.00,-42.00,+41.00,+5.00,-8.00,+9.00,-20.00,+5.00,-8.00
-16.00,+104.00,-1.00,-5.00,-13.00,-1.00,-42.00,-21.00,-73.00,-77.00,-12.00,-3.00,-36.00,-4.00,+50.00,-3.00
+9.00,+94.00,-4.00,+2.00,+8.00,-6.00,-86.00,-6.00,-13.00,-50.00,-3.00,-3.00,-17.00,-13.00,-49.00,-5.00
-12.00,-23.00,-2.00,-3.00,-5.00,-4.00,+4.00,-9.00,+5.00,+122.00,-1.00,+12.00,+22.00,+17.00,+5.00,+4.00
+9.00,+23.00,+5.00,+4.00,+2.00,-16.00,+29.00,+0.00,-33.00,-78.00,+12.00,-12.00,-27.00,+10.00,-9.00,-9.00
+0.00,-39.00,-7.00,-5.00,+8.00,+3.00,+11.00,-7.00,+15.00,+77.00,+1.00,+0.00,+35.00,+8.00,+17.00,-5.00
-6.00,-37.00,-4.00,-1.00,-12.00,-2.00,+1.00,+2.00,+69.00,-128.00,-37.00,-9.00,-3.00,-13.00,-53.00,+10.00
+6.00,+11.00,-10.00,-2.00,+5.00,+2.00,+5.00,+9.00,+10.00,+98.00,+44.00,+9.00,+3.00,+29.00,+4.00,-18.00
+13.00,+3.00,+5.00,+1.00,-4.00,+6.00,-8.00,-3.00,-37.00,-13.00,+2.00,+5.00,-47.00,+2.00,+11.00,-15.00
+91.00,+18.00,+1.00,-3.00,-19.00,-9.00,-2.00,-1.00,+127.00,-115.00,-23.00,-2.00,+20.00,-22.00,-37.00,+14.00
+34.00,+45.00,-26.00,-7.00,+9.00,-15.00,-20.00,+4.00,+2.00,-37.00,+1.00,-3.00,-16.00,-16.00,+105.00,-1.00
+29.00,-109.00,+5.00,+0.00,-16.00,+13.00,+47.00,+9.00,+30.00,-42.00,-9.00,-1.00,+22.00,-11.00,+1.00,+2.00
-32.00,+95.00,-2.00,-1.00,+14.00,+4.00,+22.00,+8.00,+53.00,-23.00,-10.00,-2.00,-5.00,-6.00,-6.00,+1.00
-69.00,-65.00,+16.00,+3.00,-27.00,-10.00,+12.00,+9.00,-13.00,+39.00,+9.00,+0.00,+5.00,-11.00,-25.00,-12.00
-3.00,-41.00,-8.00,+9.00,+51.00,+15.00,+52.00,+4.00,-11.00,+43.00,-1.00,+2.00,-12.00,-13.00,-22.00,+4.00
-38.00,-4.00,-16.00,-8.00,-10.00,-18.00,-57.00,-6.00,-47.00,-2.00,-2.00,+2.00,+10.00,-34.00,+62.00,-2.00
-17.00,-62.00,+23.00,+3.00,+6.00,+4.00,+5.00,+3.00,-24.00,+30.00,-3.00,-7.00,-15.00,+12.00,-9.00,+6.00
-31.00,+8.00,-3.00,+6.00,+4.00,+2.00,+28.00,-2.00,-51.00,+19.00,+3.00,+0.00,-21.00,+3.00,+26.00,-16.00
-9.00,-31.00,-7.00,-3.00,-23.00,-16.00,-7.00,-17.00,+36.00,-44.00,-3.00,-1.00,-10.00,-4.00,+105.00,+5.00
-29.00,-7.00,+1.00,-3.00,-3.00,-16.00,-34.00,-20.00,-46.00,+66.00,+29.00,+6.00,+54.00,+2.00,-7.00,+2.00
-24.00,-14.00,-3.00,-4.00,+2.00,-12.00,+2.00,-11.00,+29.00,+25.00,-1.00,-10.00,+41.00,+14.00,+11.00,-1.00
+6.00,+30.00,-5.00,-4.00,-1.00,-1.00,-24.00,-8.00,-10.00,-38.00,-6.00,-7.00,-11.00,-15.00,-62.00,-13.00
-35.00,-27.00,+4.00,-1.00,-10.00,-6.00,+4.00,-10.00,-79.00,-80.00,-2.00,-5.00,-27.00,+4.00,-76.00,+3.00
+10.00,-30.00,-5.00,-1.00,+6.00,+8.00,+17.00,+12.00,+40.00,+40.00,-15.00,-3.00,-11.00,-91.00,-99.00,+17.00
+26.00,+88.00,+5.00,+1.00,-5.00,-6.00,-1.00,+4.00,-35.00,+75.00,+18.00,+11.00,+26.00,-25.00,+19.00,-7.00
+9.00,-8.00,-8.00,+1.00,-4.00,+4.00,-32.00,+0.00,-25.00,-41.00,+6.00,+2.00,+7.00,+50.00,-7.00,+5.00
-24.00,-15.00,-1.00,-3.00,-1.00,+7.00,-11.00,-7.00,+41.00,-13.00,-5.00,-5.00,+44.00,+16.00,+49.00,+6.00
+29.00,+51.00,+3.00,+1.00,+0.00,-1.00,+17.00,+15.00,-15.00,-81.00,-11.00,-7.00,-75.00,-3.00,+57.00,+6.00
+10.00,-61.00,+9.00,+2.00,-5.00,-3.00,-66.00,+0.00,+15.00,+88.00,+6.00,+2.00,+9.00,-7.00,-9.00,-6.00
+9.00,+29.00,-8.00,+3.00,-11.00,-9.00,+8.00,-1.00,-15.00,+2.00,-3.00,-3.00,-12.00,-23.00,+0.00,+4.00
-15.00,-59.00,+0.00,-2.00,+11.00,+21.00,+7.00,-2.00,+18.00,+50.00,+2.00,+2.00,+5.00,-24.00,-16.00,-7.00
-4.00,-24.00,-26.00,-10.00,-1.00,-5.00,-27.00,-19.00,+44.00,-50.00,-5.00,-1.00,+14.00,+32.00,-14.00,-8.00
+12.00,+103.00,+25.00,+4.00,+1.00,-4.00,+60.00,-9.00,+24.00,-43.00,-9.00,-4.00,-18.00,-7.00,-47.00,+17.00
+8.00,-29.00,+1.00,-5.00,-7.00,-4.00,-81.00,+9.00,+2.00,+5.00,+3.00,+2.00,+7.00,+2.00,+42.00,-12.00
+14.00,+13.00,+12.00,+10.00,+6.00,+16.00,-36.00,-7.00,-26.00,+27.00,+8.00,+0.00,+4.00,-5.00,-63.00,-11.00
+8.00,-5.00,-6.00,-4.00,-4.00,+6.00,+40.00,+1.00,-31.00,-20.00,-7.00,-5.00,-4.00,+11.00,-13.00,+21.00
-6.00,-54.00,-19.00,-4.00,-1.00,+2.00,+35.00,-5.00,-5.00,-31.00,+1.00,+3.00,+7.00,-1.00,-30.00,-12.00
+3.00,+55.00,+14.00,-1.00,+7.00,-5.00,+18.00,-7.00,+26.00,+11.00,-5.00,-3.00,+6.00,-13.00,+0.00,+10.00
+11.00,-7.00,+0.00,+1.00,-9.00,-3.00,+15.00,+6.00,-41.00,+22.00,+7.00,-4.00,-1.00,-5.00,-20.00,-11.00
-3.00,+17.00,+2.00,-1.00,+0.00,-5.00,-10.00,-9.00,-15.00,-43.00,-13.00,-3.00,-4.00,+19.00,-2.00,-8.00
+2.00,-58.00,-9.00,-2.00,+1.00,+2.00,-61.00,-8.00,-31.00,+11.00,-1.00,+2.00,+3.00,-4.00,+52.00,+2.00
-14.00,-6.00,-5.00,-3.00,+4.00,+2.00,-19.00,-9.00,+21.00,+8.00,-7.00,+0.00,-28.00,+23.00,-22.00,+16.00
-1.00,-15.00,-2.00,-5.00,-11.00,-10.00,-6.00,+8.00,-10.00,-15.00,+8.00,-1.00,-16.00,-11.00,+52.00,-4.00
+48.00,+30.00,+10.00,+7.00,+2.00,+0.00,+8.00,+15.00,-9.00,-47.00,+1.00,-2.00,-18.00,+34.00,-1.00,-3.00
+5.00,+0.00,-9.00,-5.00,-4.00,-5.00,+4.00,+17.00,+1.00,-45.00,-12.00,-2.00,-5.00,-6.00,+17.00,+1.00
-22.00,-11.00,-7.00,-3.00,+1.00,+4.00,+43.00,-28.00,-15.00,+22.00,+3.00,+1.00,+10.00,+0.00,-11.00,-6.00
-30.00,+1.00,-3.00,-1.00,-3.00,+1.00,+14.00,+40.00,-13.00,-57.00,-3.00,-2.00,-8.00,-5.00,-15.00,-1.00
-36.00,+14.00,+2.00,-1.00,-1.00,+2.00,+14.00,-17.00,+21.00,+33.00,-11.00,-2.00,+6.00,+5.00,-11.00,-1.00
+41.00,+40.00,-3.00,-1.00,+1.00,+1.00,-12.00,+10.00,+7.00,-9.00,-2.00,+1.00,+11.00,+2.00,-10.00,-5.00
+58.00,-23.00,+7.00,-1.00,+7.00,-4.00,-2.00,-1.00,-2.00,-7.00,+2.00,-2.00,+0.00,-13.00,+7.00,-1.00
+68.00,-93.00,-1.00,+0.00,+0.00,+2.00,-11.00,-10.00,+10.00,+16.00,-10.00,+0.00,+11.00,-2.00,-19.00,-1.00
-32.00,+29.00,-1.00,-1.00,-2.00,-10.00,-15.00,-15.00,-24.00,-20.00,+3.00,+0.00,+13.00,-2.00,-3.00,-8.00
-37.00,-40.00,-6.00,-2.00,+0.00,-21.00,-18.00,-9.00,+29.00,-4.00,-2.00,+0.00,-5.00,-3.00,-2.00,+4.00
-90.00,-24.00,-9.00,-1.00,-4.00,-4.00,+64.00,+7.00,-1.00,+6.00,+0.00,-1.00,+8.00,-9.00,-26.00,-5.00
-38.00,+55.00,+9.00,-3.00,-6.00,-10.00,+16.00,-10.00,-2.00,+32.00,+3.00,-1.00,-9.00,-5.00,-3.00,+5.00
-16.00,-9.00,-3.00,-2.00,+3.00,+2.00,+7.00,+11.00,+1.00,+4.00,+1.00,-3.00,+1.00,+0.00,+17.00,-7.00
-15.00,+6.00,-8.00,-5.00,-2.00,+2.00,-2.00,-16.00,+6.00,-20.00,+0.00,+0.00,-3.00,-2.00,+2.00,-6.00
-5.00,-44.00,-4.00,-1.00,+2.00,-3.00,-2.00,+6.00,+10.00,-2.00,+1.00,+1.00,+2.00,-6.00,+10.00,+5.00
+5.00,-2.00,-5.00,+4.00,+0.00,-1.00,+3.00,+10.00,-20.00,+36.00,+3.00,+0.00,+2.00,-5.00,+4.00,-2.00
+9.00,-7.00,+1.00,-3.00,-2.00,+3.00,+3.00,-13.00,-13.00,-30.00,-7.00,-3.00,-4.00,-1.00,+4.00,-7.00
+6.00,+3.00,+3.00,+1.00,+1.00,+1.00,+14.00,+21.00,+14.00,-21.00,-1.00,+0.00,+7.00,+0.00,-2.00,+4.00
+20.00,+20.00,+3.00,-1.00,+2.00,+7.00,-3.00,-1.00,-2.00,+10.00,+3.00,-3.00,+4.00,-3.00,+12.00,+0.00
-6.00,-7.00,-2.00,-4.00,+0.00,-2.00,-4.00,+7.00,-6.00,+15.00,-3.00,+0.00,-4.00,-2.00,-1.00,-3.00
+9.00,+26.00,+7.00,+4.00,-1.00,+1.00,-6.00,-8.00,-3.00,+1.00,-1.00,-2.00,+0.00,-2.00,-6.00,-3.00
+11.00,-14.00,-8.00,-3.00,-4.00,+3.00,+12.00,-2.00,+9.00,-7.00,-1.00,-1.00,-4.00,+0.00,-2.00,-5.00
+8.00,+12.00,+5.00,+3.00,+3.00,+2.00,-6.00,+6.00,+1.00,+5.00,-3.00,-2.00,+1.00,-7.00,+6.00,+1.00
+2.00,+6.00,-3.00,-2.00,-6.00,-3.00,-14.00,-12.00,+0.00,+15.00,+3.00,-2.00,-2.00,-2.00,-31.00,-5.00
-3.00,-21.00,-4.00,+1.00,+3.00,-1.00,-8.00,+3.00,-3.00,-24.00,-2.00,-1.00,+1.00,+0.00,-9.00,-2.00
+14.00,+1.00,+4.00,+2.00,+5.00,+1.00,-1.00,-1.00,-4.00,-10.00,+1.00,-1.00,+0.00,+1.00,-38.00,-6.00
-1.00,-29.00,-4.00,-4.00,+3.00,+1.00,-5.00,-2.00,-5.00,+30.00,-1.00,-1.00,-2.00,-3.00,-9.00,-6.00
+5.00,+37.00,-2.00,-2.00,-10.00,-5.00,-4.00,-2.00,+9.00,+26.00,+7.00,+0.00,+1.00,-2.00,+8.00,+0.00
-4.00,-51.00,+0.00,+1.00,+2.00,+4.00,-4.00,-3.00,-4.00,-16.00,-13.00,-3.00,+4.00,+1.00,+7.00,-4.00
+7.00,+53.00,+0.00,-1.00,-3.00,+0.00,-1.00,+5.00,+11.00,-8.00,-5.00,-2.00,+0.00,-1.00,+10.00,-1.00
+1.00,+4.00,-2.00,-4.00,-7.00,+1.00,-10.00,-1.00,-4.00,-35.00,-1.00,+0.00,+1.00,-2.00,+14.00,+2.00
-9.00,-32.00,-7.00,+1.00,+2.00,-1.00,+1.00,-1.00,-1.00,+5.00,+1.00,-1.00,-2.00,-4.00,+5.00,-11.00
+4.00,+12.00,+12.00,+0.00,-3.00,-5.00,-3.00,+1.00,+0.00,+10.00,+2.00,-2.00,-2.00,-3.00,+5.00,+1.00
-11.00,-14.00,-14.00,-7.00,-3.00,+0.00,-7.00,-14.00,-1.00,-5.00,+0.00,+0.00,-1.00,-4.00,+7.00,+0.00
+7.00,+0.00,-6.00,-1.00,+2.00,-1.00,-5.00,+2.00,+1.00,-5.00,-3.00,+0.00,+0.00,+0.00,+4.00,+0.00
+0.00,+0.00,+5.00,+1.00,+0.00,-1.00,-1.00,+4.00,+1.00,-1.00,+1.00,+2.00,+1.00,+3.00,+5.00,+3.00
+27.00,+24.00,-8.00,-3.00,-2.00,+2.00,+1.00,+4.00,-3.00,-6.00,-1.00,-1.00,-1.00,-1.00,-6.00,-7.00
+103.00,-7.00,+2.00,+2.00,+4.00,+1.00,+2.00,+0.00,+4.00,-2.00,-1.00,-2.00,-1.00,-1.00,+32.00,+1.00
+36.00,+17.00,+0.00,-1.00,-4.00,+0.00,-1.00,-1.00,+3.00,+4.00,+2.00,-1.00,-2.00,-1.00,-20.00,+2.00
-8.00,-10.00,+2.00,-1.00,+0.00,-1.00,-3.00,-9.00,-5.00,-3.00,-5.00,-3.00,-1.00,+1.00,+0.00,-3.00
-61.00,+4.00,+3.00,+0.00,+0.00,+1.00,-1.00,+8.00,-8.00,-4.00,+1.00,+2.00,+1.00,-1.00,+3.00,-10.00
-80.00,-17.00,-3.00,+1.00,+0.00,+1.00,+1.00,-13.00,+3.00,-2.00,+2.00,-1.00,-2.00,-1.00,-5.00,+7.00
