+1.00,-2.00,-1.00,+0.00,-1.00,+0.00,+1.00,+2.00,-3.00,-2.00,-2.00,-9.00,-21.00,-1.00,+0.00,+1.00
+12.00,+5.00,-1.00,-1.00,+1.00,-1.00,+0.00,-35.00,-1.00,-1.00,-1.00,-6.00,+12.00,+1.00,-1.00,+2.00
-7.00,-3.00,-2.00,-1.00,-2.00,-4.00,+8.00,+33.00,+3.00,-1.00,-4.00,-1.00,+1.00,-1.00,-2.00,+0.00
-4.00,+0.00,-2.00,-1.00,-3.00,+0.00,-8.00,-1.00,-7.00,+0.00,-3.00,+1.00,+2.00,-2.00,-2.00,+0.00
+0.00,-2.00,-2.00,+0.00,+3.00,-2.00,-1.00,+2.00,-1.00,-3.00,+0.00,+2.00,-1.00,-1.00,-1.00,-3.00
-4.00,+3.00,+1.00,-1.00,-6.00,-1.00,-2.00,+4.00,+0.00,-2.00,+0.00,-4.00,-9.00,+0.00,+0.00,-1.00
+5.00,-2.00,-2.00,-1.00,+0.00,-1.00,+0.00,-5.00,-3.00,+2.00,-1.00,-1.00,-3.00,-1.00,+0.00,+1.00
+1.00,+5.00,-2.00,-1.00,+3.00,-5.00,+0.00,-1.00,-2.00,-4.00,-2.00,+1.00,+1.00,-1.00,-1.00,-4.00
-4.00,+0.00,-2.00,-1.00,-4.00,-2.00,-3.00,-3.00,-7.00,+1.00,-1.00,+4.00,+6.00,-2.00,+0.00,-3.00
-2.00,-1.00,+3.00,+0.00,-5.00,+6.00,+1.00,+8.00,+2.00,+0.00,+0.00,+0.00,-5.00,+0.00,-2.00,-2.00
+3.00,+0.00,+1.00,+2.00,+3.00,-8.00,-2.00,-5.00,-1.00,+1.00,-1.00,+5.00,+25.00,+0.00,-1.00,+1.00
-9.00,+1.00,-2.00,+0.00,-1.00,-1.00,-1.00,+2.00,-3.00,-2.00,+0.00,+2.00,-22.00,+3.00,+0.00,+0.00
-4.00,+0.00,-1.00,-3.00,-1.00,+1.00,-2.00,-6.00,-4.00,-5.00,-5.00,-22.00,-22.00,-6.00,-1.00,-4.00
-15.00,-6.00,-3.00,-1.00,+0.00,-4.00,-1.00,+6.00,+3.00,-1.00,-3.00,-4.00,-2.00,-1.00,+0.00,+1.00
+6.00,-1.00,+1.00,-1.00,+0.00,+4.00,-2.00,-2.00,-5.00,+0.00,-1.00,+0.00,-4.00,+1.00,-2.00,-5.00
+2.00,-7.00,-1.00,-1.00,+0.00,-1.00,+0.00,-1.00,+18.00,+4.00,-2.00,+7.00,-6.00,-1.00,-1.00,+5.00
-1.00,+5.00,-1.00,-2.00,-3.00,-1.00,+3.00,+5.00,-7.00,+1.00,+2.00,+17.00,+40.00,+4.00,+0.00,+0.00
-6.00,-8.00,-3.00,-3.00,+0.00,-1.00,-2.00,+6.00,+3.00,-11.00,+0.00,+74.00,+48.00,+5.00,-2.00,-3.00
+1.00,+2.00,+0.00,-3.00,-20.00,-4.00,-4.00,-10.00,-15.00,-8.00,-2.00,-77.00,-50.00,-2.00,-1.00,+1.00
-10.00,-7.00,-1.00,-2.00,+1.00,-1.00,+0.00,-3.00,-22.00,-10.00,+3.00,-36.00,-45.00,+1.00,+0.00,-9.00
+2.00,-3.00,-1.00,-1.00,-11.00,-10.00,-2.00,-1.00,+10.00,+16.00,-4.00,-1.00,+3.00,-10.00,+17.00,+4.00
-1.00,+3.00,-2.00,+3.00,+13.00,+0.00,-2.00,+5.00,+10.00,+17.00,+0.00,-10.00,+28.00,+0.00,-62.00,-1.00
+1.00,+2.00,-1.00,+1.00,+23.00,+13.00,-1.00,-3.00,+6.00,+0.00,-1.00,+25.00,-36.00,-1.00,+25.00,+1.00
+0.00,-15.00,-3.00,-1.00,-4.00,+5.00,+1.00,-5.00,-5.00,-5.00,-1.00,-8.00,-17.00,-2.00,-1.00,-1.00
-10.00,+15.00,-4.00,-3.00,-1.00,+1.00,+1.00,+6.00,+0.00,-5.00,-2.00,-2.00,-6.00,+4.00,+7.00,+0.00
+8.00,-14.00,+0.00,-5.00,-26.00,-7.00,-1.00,+1.00,-10.00,-8.00,-6.00,-24.00,+6.00,-1.00,+1.00,+0.00
-6.00,+39.00,-3.00,-16.00,-86.00,-32.00,-4.00,-6.00,-1.00,-3.00,+0.00,+32.00,+26.00,-1.00,-3.00,-4.00
+22.00,-15.00,+2.00,+9.00,+32.00,+17.00,+0.00,+2.00,-1.00,-1.00,-7.00,-14.00,+36.00,+16.00,-15.00,+3.00
+2.00,+7.00,+3.00,+6.00,+64.00,+1.00,+6.00,-1.00,-3.00,-5.00,-2.00,+18.00,-79.00,-9.00,-17.00,-4.00
+4.00,+62.00,+3.00,+7.00,+55.00,+4.00,-33.00,+0.00,-5.00,-2.00,-4.00,-14.00,-35.00,-9.00,+40.00,+8.00
-2.00,+5.00,-1.00,+0.00,-23.00,-2.00,-47.00,-2.00,+2.00,+1.00,+2.00,-7.00,+0.00,+8.00,-28.00,-3.00
-6.00,-5.00,+0.00,-2.00,+6.00,+2.00,+11.00,+0.00,-1.00,+6.00,-2.00,+21.00,+39.00,-21.00,+7.00,-18.00
-3.00,+1.00,-1.00,+0.00,+1.00,+6.00,+5.00,-1.00,+0.00,-2.00,+0.00,+1.00,+43.00,-5.00,-13.00,+4.00
-1.00,-19.00,-5.00,-1.00,+48.00,+2.00,+11.00,+1.00,-7.00,-6.00,-1.00,-15.00,-38.00,-12.00,+5.00,+1.00
-6.00,-20.00,+0.00,+5.00,+36.00,-5.00,+0.00,-5.00,+6.00,+3.00,+3.00,+1.00,-4.00,-4.00,+9.00,-4.00
-12.00,+24.00,-4.00,-7.00,-40.00,-15.00,-10.00,-4.00,+1.00,-3.00,-2.00,+14.00,+18.00,+14.00,-3.00,+14.00
+8.00,-23.00,-2.00,-7.00,-44.00,-26.00,-14.00,-1.00,+3.00,-3.00,-3.00,-8.00,+3.00,+6.00,+2.00,+3.00
+0.00,-2.00,-2.00,-1.00,-29.00,-43.00,-17.00,-8.00,-16.00,-3.00,-3.00,-15.00,-22.00,+3.00,+5.00,-8.00
-10.00,-8.00,-2.00,+2.00,+16.00,+41.00,+7.00,-7.00,+4.00,+3.00,+0.00,+23.00,+26.00,+3.00,-3.00,-3.00
-26.00,-8.00,+3.00,+3.00,+6.00,+17.00,+18.00,+20.00,+0.00,-2.00,+4.00,+46.00,+54.00,-1.00,-4.00,+3.00
+4.00,+8.00,+0.00,+3.00,+30.00,+15.00,+5.00,-21.00,-23.00,-22.00,-2.00,-33.00,-31.00,-2.00,-1.00,+0.00
+3.00,-17.00,+1.00,-5.00,-40.00,+55.00,+10.00,+2.00,+32.00,+20.00,+0.00,-10.00,-12.00,-2.00,+9.00,+7.00
+4.00,-4.00,+3.00,+2.00,+6.00,+3.00,+14.00,+10.00,-12.00,+7.00,-6.00,-27.00,+0.00,-10.00,-10.00,-9.00
+11.00,+14.00,-2.00,+0.00,+13.00,+11.00,+3.00,+6.00,+26.00,-14.00,-5.00,-20.00,+15.00,+15.00,+3.00,-1.00
-7.00,-6.00,-3.00,-4.00,-23.00,+25.00,-6.00,-3.00,-7.00,+21.00,+7.00,+20.00,+11.00,+3.00,-39.00,+12.00
-11.00,-5.00,-2.00,-3.00,-15.00,-24.00,+1.00,-3.00,-44.00,-17.00,+2.00,+21.00,+13.00,+4.00,+2.00,-11.00
+23.00,+27.00,-1.00,+2.00,+15.00,-22.00,-3.00,+0.00,+27.00,+13.00,+1.00,+31.00,-15.00,-7.00,+5.00,+0.00
+1.00,-46.00,-1.00,-7.00,-17.00,-7.00,-13.00,-9.00,-40.00,-20.00,+1.00,-11.00,-110.00,+3.00,-24.00,-8.00
+5.00,+34.00,+0.00,-6.00,-38.00,-41.00,+4.00,+6.00,+53.00,-1.00,-7.00,+3.00,+70.00,-16.00,+22.00,-2.00
+7.00,-13.00,+0.00,+2.00,-12.00,-3.00,-5.00,-4.00,+8.00,-2.00,+0.00,-40.00,-63.00,-8.00,+13.00,-3.00
-4.00,-26.00,-4.00,+0.00,+18.00,-2.00,+8.00,-12.00,+2.00,-7.00,-9.00,+68.00,+57.00,-20.00,-34.00,+0.00
+1.00,+4.00,-8.00,+2.00,+43.00,-11.00,-1.00,-11.00,-21.00,+1.00,-1.00,+16.00,-83.00,+26.00,-88.00,-19.00
+4.00,+13.00,+11.00,+1.00,+16.00,+23.00,+3.00,+5.00,-9.00,-1.00,+1.00,-28.00,+15.00,+78.00,+75.00,-8.00
-21.00,-55.00,-2.00,-1.00,-20.00,-31.00,-38.00,+8.00,-8.00,-19.00,+0.00,-43.00,-56.00,-8.00,+84.00,+12.00
+10.00,+71.00,+9.00,+1.00,-12.00,+6.00,+33.00,+7.00,+26.00,-27.00,-9.00,-29.00,-17.00,-78.00,+6.00,+3.00
-12.00,-76.00,-6.00,-5.00,+0.00,+6.00,-9.00,+3.00,-43.00,+47.00,+9.00,-63.00,+105.00,+34.00,-35.00,-23.00
-16.00,+72.00,-6.00,-13.00,-78.00,-25.00,-2.00,+5.00,+43.00,+15.00,-3.00,+33.00,-72.00,-17.00,+13.00,+12.00
+9.00,-7.00,-6.00,+6.00,+8.00,+22.00,+13.00,-14.00,-30.00,-38.00,-9.00,-2.00,+112.00,+15.00,-30.00,-14.00
-19.00,-36.00,-4.00,+2.00,+68.00,+5.00,-58.00,-17.00,-13.00,+17.00,+1.00,+30.00,+30.00,+44.00,+1.00,+3.00
-1.00,+16.00,+0.00,-5.00,-39.00,-17.00,+30.00,+8.00,-25.00,-20.00,-1.00,+26.00,-61.00,-19.00,+28.00,-7.00
-17.00,-33.00,-16.00,-16.00,-72.00,-24.00,+14.00,+10.00,+50.00,+9.00,+0.00,-16.00,-11.00,-76.00,-25.00,+4.00
-32.00,-8.00,-12.00,-14.00,-123.00,-20.00,-41.00,-11.00,-15.00,+17.00,-1.00,+17.00,-3.00,-8.00,-27.00,-6.00
+60.00,+51.00,+13.00,+20.00,+43.00,+78.00,-40.00,+5.00,-7.00,-26.00,-3.00,-8.00,-13.00,+4.00,-13.00,-5.00
-46.00,-53.00,+7.00,+7.00,+46.00,+6.00,-57.00,-20.00,+91.00,-10.00,-7.00,+12.00,+21.00,-21.00,+7.00,+13.00
+26.00,+46.00,+6.00,+15.00,+29.00,+17.00,+107.00,+9.00,-91.00,-12.00,+1.00,+9.00,+17.00,+21.00,+9.00,-8.00
+24.00,+29.00,-4.00,-10.00,+18.00,+13.00,+72.00,+9.00,+44.00,+19.00,+5.00,+28.00,-79.00,+0.00,-5.00,+2.00
-21.00,+30.00,-3.00,-4.00,-1.00,-17.00,+11.00,-3.00,-45.00,-28.00,-4.00,+24.00,+69.00,+25.00,-4.00,-5.00
+63.00,+67.00,+13.00,-5.00,-64.00,-21.00,+55.00,+12.00,+27.00,+14.00,-4.00,-73.00,+43.00,-15.00,+31.00,+14.00
-8.00,-94.00,-7.00,-7.00,+43.00,+27.00,-90.00,-2.00,-1.00,+3.00,-2.00,-40.00,-61.00,-9.00,-18.00,+1.00
-5.00,+31.00,+1.00,-1.00,+14.00,-16.00,+70.00,+2.00,+10.00,-21.00,-7.00,-22.00,+57.00,-12.00,-12.00,-6.00
-38.00,-58.00,-12.00,-6.00,-20.00,-4.00,+24.00,-1.00,-12.00,+15.00,+11.00,-30.00,-86.00,-21.00,-33.00,+5.00
-15.00,+49.00,-14.00,-9.00,-28.00,-2.00,-9.00,+23.00,+75.00,+37.00,+0.00,+47.00,-72.00,+1.00,+3.00,+10.00
+13.00,-16.00,+23.00,+7.00,-11.00,-26.00,-30.00,+0.00,-34.00,-24.00,+5.00,+75.00,+123.00,+28.00,-70.00,-2.00
+17.00,+74.00,+8.00,+1.00,+4.00,+14.00,-6.00,+7.00,+62.00,+24.00,-2.00,-46.00,-89.00,+2.00,+9.00,+5.00
-7.00,-44.00,-3.00,-10.00,-42.00,-7.00,+2.00,-1.00,+105.00,+19.00,+2.00,-50.00,-78.00,-24.00,+50.00,+13.00
-6.00,-29.00,-11.00,-10.00,-60.00,-49.00,-34.00,-14.00,-74.00,-43.00,-9.00,-11.00,+83.00,-42.00,-11.00,-19.00
+6.00,-41.00,-9.00,+2.00,+13.00,+46.00,-5.00,-8.00,-33.00,-22.00,-2.00,+3.00,-21.00,+1.00,+6.00,-13.00
-18.00,-17.00,+3.00,+17.00,+122.00,+45.00,-14.00,+2.00,-2.00,+22.00,+10.00,+59.00,-2.00,+1.00,+19.00,+12.00
-1.00,-25.00,-3.00,+7.00,+39.00,-4.00,+28.00,+8.00,-38.00,-33.00,-9.00,-8.00,+42.00,+14.00,-15.00,-25.00
-21.00,+25.00,-2.00,+6.00,+25.00,+47.00,-25.00,-15.00,-22.00,+39.00,+4.00,-16.00,-37.00,-43.00,+78.00,+9.00
-2.00,-40.00,-7.00,-4.00,+1.00,-10.00,-2.00,-5.00,+4.00,-93.00,-9.00,+10.00,+26.00,+10.00,+11.00,+1.00
+45.00,+97.00,+9.00,-13.00,-106.00,-36.00,-29.00,+2.00,+19.00,+107.00,+10.00,+24.00,+40.00,+16.00,-30.00,+0.00
-13.00,-51.00,-10.00,-3.00,+41.00,+10.00,+21.00,+6.00,+42.00,+23.00,-8.00,-2.00,-50.00,+28.00,+69.00,+7.00
+21.00,-20.00,-1.00,+17.00,+74.00,-9.00,+82.00,-7.00,-65.00,-21.00,+3.00,+12.00,+59.00,-54.00,-102.00,-7.00
-32.00,-45.00,+8.00,+3.00,-28.00,-11.00,+0.00,-1.00,-27.00,+9.00,-8.00,-45.00,+5.00,+43.00,-5.00,-19.00
+18.00,-6.00,+1.00,-2.00,-31.00,+4.00,-45.00,+7.00,-54.00,-67.00,-11.00,-18.00,-40.00,-20.00,-37.00,-7.00
-26.00,-11.00,+10.00,-2.00,-33.00,-59.00,-41.00,-2.00,-88.00,-22.00,-1.00,+24.00,-26.00,+27.00,+14.00,+2.00
+21.00,+2.00,-13.00,-4.00,-12.00,-9.00,-37.00,-6.00,+104.00,+26.00,-2.00,+17.00,-83.00,+32.00,-5.00,+12.00
-31.00,+29.00,-3.00,+4.00,+29.00,+12.00,-11.00,-3.00,+84.00,+52.00,+21.00,+19.00,-42.00,-15.00,+61.00,+32.00
-28.00,-76.00,+2.00,+4.00,+16.00,-14.00,+62.00,+2.00,+46.00,-2.00,-5.00,-4.00,+55.00,-14.00,-68.00,-13.00
+17.00,+4.00,+12.00,-7.00,-40.00,+17.00,+1.00,+3.00,-128.00,-67.00,-8.00,-24.00,+3.00,-7.00,+10.00,-5.00
-19.00,-8.00,-15.00,-13.00,-68.00,-30.00,-18.00,+32.00,-49.00,-25.00,+10.00,+66.00,+49.00,+4.00,+61.00,+15.00
+23.00,-43.00,+11.00,+16.00,+40.00,+24.00,+15.00,-5.00,+79.00,+15.00,-9.00,-74.00,-20.00,-18.00,-27.00,-14.00
+1.00,-57.00,-12.00,-3.00,-7.00,-18.00,-4.00,+18.00,+1.00,+83.00,+10.00,+27.00,+12.00,+0.00,+26.00,+16.00
+18.00,-4.00,-4.00,+0.00,+33.00,+23.00,+22.00,-2.00,-65.00,-26.00,+2.00,-1.00,-2.00,-7.00,+5.00,-4.00
+27.00,+63.00,+6.00,-3.00,-13.00,+23.00,-2.00,-7.00,+43.00,+59.00,+11.00,-37.00,-11.00,+23.00,-17.00,+14.00
+5.00,+4.00,-17.00,-15.00,-40.00,-17.00,-62.00,-8.00,+41.00,-44.00,-7.00,+27.00,-21.00,+2.00,+17.00,-3.00
-66.00,+7.00,+8.00,+7.00,+38.00,+8.00,+34.00,+4.00,-45.00,-25.00,-3.00,+42.00,-27.00,+0.00,-3.00,-18.00
-22.00,+16.00,-7.00,-9.00,-68.00,-24.00,+37.00,-4.00,+127.00,+64.00,+11.00,-76.00,+26.00,-33.00,-38.00,+35.00
+8.00,+103.00,+12.00,+9.00,+44.00,+9.00,+26.00,-1.00,-5.00,-41.00,-4.00,+18.00,+32.00,+1.00,-3.00,+2.00
-17.00,-21.00,-1.00,-8.00,-47.00,+3.00,-13.00,-3.00,-128.00,-51.00,+0.00,-13.00,-41.00,-8.00,-28.00,-16.00
-9.00,-16.00,-18.00,+2.00,+46.00,-2.00,+16.00,-12.00,+79.00,+66.00,-1.00,+31.00,+13.00,+43.00,+1.00,+12.00
+53.00,-29.00,+14.00,+4.00,+9.00,-7.00,-69.00,+9.00,+64.00,+46.00,+0.00,+29.00,-1.00,-51.00,+30.00,-10.00
-31.00,-5.00,-4.00,-2.00,-27.00,-1.00,-31.00,-24.00,-39.00,+8.00,-1.00,-28.00,-88.00,+3.00,+37.00,-4.00
+40.00,+46.00,+19.00,+13.00,+35.00,+1.00,+19.00,+7.00,-21.00,+26.00,-4.00,-19.00,+35.00,-42.00,+54.00,-6.00
-25.00,-116.00,-14.00,-11.00,-24.00,+0.00,-16.00,-6.00,-7.00,-36.00,+0.00,-3.00,-95.00,-4.00,+27.00,+0.00
-3.00,+96.00,-7.00,-15.00,-103.00,-46.00,+1.00,-4.00,+77.00,+6.00,-5.00,-16.00,+51.00,+21.00,-33.00,+1.00
+31.00,-3.00,+22.00,+17.00,+103.00,+22.00,-22.00,+18.00,-56.00,-4.00,-3.00,-2.00,-12.00,+15.00,+9.00,+9.00
-6.00,-89.00,-23.00,-10.00,+25.00,+0.00,+35.00,-7.00,-17.00,+6.00,-5.00,+21.00,+40.00,-1.00,-24.00,-7.00
+7.00,+80.00,+13.00,+0.00,-21.00,-4.00,-17.00,+0.00,-40.00,-56.00,-4.00,+7.00,+38.00,+9.00,-4.00,-6.00
-5.00,-128.00,-20.00,-8.00,-44.00,-5.00,-25.00,-4.00,-75.00,+3.00,+10.00,+23.00,+63.00,+21.00,+2.00,-8.00
+12.00,+16.00,+3.00,+0.00,-13.00,-7.00,+85.00,-11.00,+33.00,-18.00,+3.00,-39.00,+4.00,+7.00,+16.00,-6.00
-18.00,+45.00,+8.00,+4.00,+15.00,+0.00,+28.00,+1.00,-71.00,+30.00,-8.00,+66.00,-72.00,-40.00,-22.00,-30.00
+69.00,-60.00,-10.00,+2.00,+24.00,+10.00,-2.00,-4.00,+8.00,-7.00,+14.00,-94.00,+76.00,+8.00,+14.00,+32.00
-9.00,+68.00,+9.00,-1.00,+13.00,+14.00,+15.00,-5.00,+10.00,+7.00,+9.00,+27.00,-15.00,+9.00,-19.00,-10.00
+32.00,+39.00,+1.00,-1.00,-1.00,-46.00,-52.00,+1.00,-2.00,-19.00,-12.00,-9.00,-27.00,+12.00,-20.00,-15.00
+24.00,+35.00,-5.00,-3.00,-28.00,+10.00,-4.00,-3.00,-38.00,-26.00,+1.00,+20.00,-79.00,+8.00,+1.00,+15.00
-22.00,-2.00,-8.00,+1.00,+20.00,-13.00,+2.00,+4.00,-42.00,+2.00,-3.00,-3.00,-4.00,-26.00,+0.00,-22.00
-52.00,-104.00,-12.00,-5.00,+10.00,+33.00,-3.00,-9.00,+34.00,+16.00,-8.00,-8.00,+0.00,+8.00,-1.00,+7.00
+27.00,-15.00,+5.00,-2.00,-12.00,+13.00,+4.00,+10.00,-14.00,-22.00,+11.00,+71.00,+46.00,+6.00,-27.00,+3.00
-45.00,+8.00,+13.00,+7.00,+25.00,-4.00,-20.00,-1.00,+21.00,+51.00,+7.00,-66.00,-67.00,+1.00,-23.00,+16.00
+8.00,-3.00,-4.00,-18.00,-89.00,-22.00,-53.00,-7.00,+10.00,-43.00,-14.00,+38.00,-5.00,-2.00,-4.00,-29.00
+40.00,-40.00,+22.00,+32.00,+54.00,-3.00,+13.00,+23.00,+61.00,+33.00,-1.00,-14.00,-34.00,+6.00,-14.00,+29.00
-53.00,-100.00,-11.00,-8.00,+1.00,+19.00,+11.00,-12.00,-14.00,+7.00,-4.00,-8.00,-2.00,-6.00,+2.00,+8.00
+25.00,+120.00,-9.00,-5.00,+14.00,-13.00,+28.00,+2.00,+21.00,+24.00,-1.00,-27.00,+25.00,+13.00,+11.00,+0.00
-3.00,-32.00,+1.00,-2.00,-5.00,-11.00,-7.00,-3.00,+29.00,+1.00,-2.00,-10.00,-36.00,+8.00,+21.00,+6.00
-38.00,+127.00,+2.00,-2.00,+30.00,-10.00,-7.00,-9.00,-119.00,-72.00,-12.00,+22.00,+26.00,+39.00,-4.00,-31.00
-25.00,-59.00,-6.00,-4.00,-37.00,+2.00,-20.00,-7.00,+97.00,+25.00,-4.00,-2.00,+91.00,-19.00,+13.00,+7.00
+24.00,+11.00,-4.00,-11.00,-85.00,-59.00,-13.00,-5.00,-56.00,-4.00,+8.00,+5.00,+70.00,-25.00,+2.00,-3.00
-20.00,+16.00,-3.00,+12.00,+91.00,+41.00,+21.00,-4.00,+27.00,+26.00,+5.00,+31.00,+1.00,+9.00,-4.00,-6.00
+49.00,+25.00,-7.00,-11.00,-35.00,+17.00,+16.00,-2.00,-26.00,-8.00,-6.00,-59.00,+27.00,-17.00,+2.00,+4.00
-27.00,-59.00,-4.00,+11.00,+38.00,-7.00,+44.00,+0.00,+28.00,+14.00,+6.00,+21.00,+70.00,-23.00,+14.00,+16.00
-6.00,-60.00,+5.00,-8.00,-25.00,+27.00,-14.00,-4.00,+1.00,-17.00,-3.00,-60.00,-22.00,+70.00,-10.00,-3.00
-27.00,-61.00,+2.00,+9.00,+51.00,+14.00,-21.00,+21.00,-36.00,-28.00,-5.00,+45.00,+47.00,-40.00,-11.00,-23.00
-35.00,-60.00,-2.00,-5.00,-7.00,-22.00,-9.00,-9.00,+1.00,+3.00,+6.00,-14.00,-86.00,+0.00,-5.00,+11.00
+15.00,+89.00,-3.00,-12.00,-46.00,+28.00,-30.00,-5.00,-52.00,-7.00,-11.00,-14.00,-5.00,-43.00,-9.00,-39.00
-12.00,+12.00,-4.00,-7.00,-51.00,-38.00,-31.00,-16.00,+20.00,+11.00,+4.00,+21.00,+81.00,+82.00,+11.00,+24.00
-13.00,-18.00,-4.00,+0.00,+21.00,+69.00,-1.00,-12.00,-34.00,-4.00,+5.00,+27.00,-100.00,+2.00,+20.00,+2.00
+7.00,-62.00,-3.00,+4.00,+52.00,+29.00,+8.00,+9.00,+22.00,+28.00,-4.00,-1.00,-39.00,+4.00,+10.00,-2.00
+4.00,+35.00,-6.00,+2.00,-17.00,+4.00,-4.00,+3.00,-54.00,-41.00,-11.00,-55.00,-28.00,-13.00,-12.00,+2.00
+0.00,-26.00,+2.00,+8.00,+3.00,+26.00,+5.00,+9.00,+80.00,-5.00,+2.00,+30.00,-87.00,-23.00,+51.00,-7.00
+19.00,+80.00,+19.00,+3.00,+2.00,-58.00,-3.00,-1.00,-18.00,-8.00,-9.00,-13.00,+52.00,+19.00,-36.00,+6.00
-12.00,+66.00,-33.00,-15.00,+4.00,-66.00,+10.00,-15.00,+18.00,+3.00,+11.00,-28.00,+70.00,+6.00,+27.00,+6.00
+10.00,-82.00,+10.00,-3.00,-21.00,+10.00,+7.00,-6.00,+28.00,-12.00,-3.00,+17.00,+24.00,+40.00,+37.00,+6.00
-46.00,-84.00,-22.00,-6.00,+50.00,+10.00,-5.00,+3.00,-9.00,-15.00,-10.00,-15.00,-68.00,-34.00,-57.00,-11.00
+97.00,+111.00,+52.00,+9.00,-39.00,-20.00,-2.00,+20.00,+43.00,+14.00,-5.00,-12.00,+112.00,-17.00,-21.00,-4.00
-11.00,-103.00,-9.00,-8.00,-75.00,-14.00,-32.00,-13.00,+0.00,+15.00,+1.00,+101.00,+1.00,-9.00,-4.00,+9.00
-66.00,-125.00,-12.00,+4.00,+79.00,-19.00,+30.00,+0.00,+3.00,+15.00,-1.00,-91.00,+73.00,+30.00,-5.00,+6.00
+60.00,+92.00,+23.00,+9.00,+60.00,-7.00,+13.00,+0.00,+65.00,+13.00,+7.00,-20.00,+23.00,-49.00,+52.00,+1.00
-37.00,-128.00,-30.00,-11.00,-15.00,+22.00,+37.00,+1.00,-10.00,-39.00,-12.00,-8.00,-45.00,+4.00,+0.00,-5.00
+50.00,+112.00,+12.00,+6.00,-29.00,+3.00,+45.00,+7.00,-71.00,-19.00,+1.00,+3.00,-59.00,+23.00,-15.00,-9.00
+31.00,+105.00,+21.00,-6.00,-43.00,-14.00,-50.00,+2.00,+46.00,+29.00,+0.00,+17.00,+41.00,+11.00,-36.00,-6.00
-36.00,-102.00,-15.00,+0.00,+8.00,+7.00,+11.00,-5.00,-78.00,-3.00,+1.00,+24.00,+21.00,+7.00,+40.00,+11.00
-2.00,-1.00,-3.00,-3.00,+36.00,+78.00,+26.00,-7.00,+21.00,-16.00,-6.00,-41.00,-31.00,-7.00,+8.00,+15.00
-24.00,-44.00,-10.00,+0.00,-1.00,-58.00,-44.00,+19.00,-23.00,-11.00,+0.00,+29.00,+14.00,-11.00,+15.00,-15.00
-29.00,-8.00,-5.00,-5.00,-14.00,-3.00,+17.00,-10.00,+60.00,+4.00,-4.00,+19.00,-89.00,+2.00,+5.00,+6.00
-20.00,-77.00,+13.00,+15.00,+67.00,-32.00,-17.00,-2.00,-11.00,-18.00,-3.00,+2.00,+62.00,+16.00,-33.00,-14.00
+18.00,-38.00,-25.00,-11.00,-49.00,-41.00,-65.00,+1.00,+6.00,+20.00,+6.00,-18.00,+61.00,-14.00,+11.00,+1.00
-12.00,-14.00,-3.00,+1.00,+25.00,+3.00,+55.00,+6.00,-83.00,-41.00,-15.00,+15.00,-10.00,+9.00,-10.00,-24.00
-15.00,-42.00,-3.00,+3.00,-4.00,+14.00,+0.00,-4.00,+53.00,+16.00,-3.00,+24.00,+3.00,-35.00,-6.00,+4.00
+19.00,+49.00,-11.00,-13.00,-41.00,-25.00,-14.00,+8.00,-23.00,-17.00,-5.00,-29.00,+81.00,+1.00,-12.00,-19.00
+24.00,+112.00,+25.00,+7.00,-14.00,+2.00,-12.00,-7.00,+37.00,+6.00,+4.00,-14.00,-3.00,-25.00,+8.00,+22.00
+6.00,-71.00,-1.00,+2.00,+17.00,+13.00,-44.00,+4.00,-57.00,-5.00,+2.00,-24.00,+4.00,+6.00,-21.00,-17.00
-16.00,-12.00,-5.00,-9.00,-86.00,-35.00,-18.00,-14.00,+8.00,+1.00,+10.00,+26.00,+53.00,+23.00,+22.00,+21.00
+21.00,-51.00,-2.00,+4.00,+33.00,+16.00,-6.00,+8.00,-11.00,-34.00,-9.00,+9.00,-56.00,-52.00,-92.00,-7.00
-24.00,+1.00,-6.00,-7.00,-37.00,-15.00,+15.00,-11.00,-64.00,+27.00,+7.00,+4.00,+57.00,-18.00,+25.00,+5.00
+19.00,+29.00,-2.00,-3.00,-31.00,+27.00,+20.00,+18.00,-55.00,-36.00,-8.00,-64.00,-22.00,+57.00,-31.00,-7.00
+2.00,+113.00,+6.00,-1.00,+33.00,-9.00,-30.00,-5.00,-8.00,+23.00,+7.00,+58.00,+0.00,-26.00,+50.00,+8.00
-25.00,-103.00,-9.00,+6.00,+24.00,+16.00,+5.00,-5.00,+16.00,+34.00,+9.00,-15.00,+3.00,-7.00,+27.00,+23.00
-14.00,+53.00,+8.00,+9.00,+36.00,+33.00,-12.00,-5.00,+40.00,+3.00,-10.00,-18.00,-38.00,+30.00,-11.00,+2.00
-34.00,-46.00,+6.00,+3.00,+23.00,+6.00,+9.00,-14.00,-2.00,-17.00,+2.00,+34.00,+10.00,-5.00,-17.00,-12.00
+63.00,+31.00,-12.00,-8.00,-14.00,+2.00,-14.00,+12.00,-61.00,-16.00,-4.00,-8.00,-44.00,-14.00,-26.00,-14.00
-52.00,+41.00,+2.00,-12.00,-46.00,+7.00,+11.00,-10.00,-24.00,-14.00,-1.00,-45.00,-55.00,+24.00,+18.00,+9.00
+32.00,-75.00,-13.00,-8.00,-24.00,-69.00,-21.00,+8.00,-24.00,+18.00,+2.00,+5.00,+85.00,-14.00,-21.00,-20.00
-5.00,-65.00,+9.00,+10.00,+12.00,-7.00,-11.00,-8.00,+46.00,-1.00,+0.00,+6.00,-11.00,-11.00,-1.00,+9.00
-10.00,+39.00,+3.00,+4.00,+34.00,+38.00,+18.00,-3.00,-4.00,+2.00,-12.00,-21.00,+9.00,+15.00,+20.00,-15.00
-6.00,-3.00,-1.00,+3.00,+14.00,-20.00,-43.00,-10.00,-74.00,-28.00,-1.00,+58.00,-10.00,-56.00,-56.00,-26.00
-6.00,-39.00,+6.00,+2.00,+5.00,+30.00,+59.00,+6.00,-84.00,-13.00,+1.00,-67.00,-68.00,+3.00,+13.00,+18.00
-7.00,+49.00,-31.00,-15.00,-11.00,-6.00,-18.00,-15.00,+78.00,+31.00,+5.00,+39.00,-35.00,-19.00,+11.00,+11.00
+4.00,-61.00,+15.00,+7.00,-19.00,-19.00,+56.00,-13.00,-25.00,-41.00,-1.00,-55.00,-24.00,+8.00,+5.00,-3.00
+29.00,-7.00,+7.00,-1.00,-3.00,-9.00,+27.00,+7.00,+17.00,+13.00,-3.00,+11.00,-18.00,-4.00,-31.00,-12.00
+27.00,+88.00,+16.00,+9.00,+4.00,+4.00,-8.00,+5.00,-50.00,+9.00,-1.00,-18.00,-18.00,+25.00,-5.00,-9.00
-32.00,-22.00,-8.00,-3.00,-14.00,-16.00,-16.00,-11.00,+43.00,+1.00,+0.00,+21.00,+30.00,-45.00,+23.00,+1.00
+4.00,-57.00,-13.00,-10.00,-9.00,+10.00,-20.00,-8.00,-22.00,+8.00,-7.00,-24.00,-50.00,+9.00,-24.00,+2.00
+9.00,-16.00,+7.00,+12.00,+63.00,+32.00,-94.00,+4.00,-7.00,+5.00,+1.00,+19.00,-46.00,-1.00,+34.00,+1.00
-30.00,-14.00,-13.00,-10.00,-41.00,-20.00,+33.00,-9.00,-43.00,-13.00,+0.00,+8.00,-53.00,+19.00,+14.00,-15.00
+26.00,-58.00,+16.00,+1.00,+38.00,+42.00,+30.00,+4.00,+9.00,+30.00,+2.00,-10.00,+47.00,+17.00,-2.00,+18.00
-27.00,+26.00,+1.00,-2.00,+0.00,-24.00,-63.00,-2.00,+15.00,+26.00,+6.00,-22.00,+45.00,-23.00,+4.00,-6.00
+42.00,+91.00,+12.00,+2.00,-44.00,-24.00,+8.00,+6.00,-13.00,-15.00,-10.00,+6.00,+61.00,+5.00,-43.00,-9.00
-13.00,-93.00,-1.00,-6.00,-21.00,+7.00,-10.00,+4.00,+86.00,-3.00,+3.00,+50.00,-29.00,-2.00,+26.00,+12.00
+14.00,-1.00,+6.00,+5.00,-13.00,+31.00,-24.00,-16.00,-12.00,-6.00,+2.00,-45.00,+3.00,+6.00,-5.00,+6.00
-9.00,+7.00,-5.00,-5.00,-9.00,+23.00,-5.00,+0.00,-88.00,-33.00,+5.00,+5.00,+65.00,+5.00,-33.00,-31.00
-19.00,-57.00,-17.00,-6.00,+14.00,-1.00,+26.00,+1.00,+2.00,+3.00,-3.00,-1.00,+52.00,+17.00,+41.00,+10.00
-4.00,+84.00,+0.00,-2.00,-38.00,-25.00,+1.00,+2.00,+51.00,+0.00,-2.00,-9.00,-16.00,-3.00,-49.00,-1.00
-8.00,-36.00,+3.00,+9.00,+70.00,+39.00,+28.00,+9.00,+17.00,+24.00,+3.00,+30.00,-28.00,-18.00,+23.00,+7.00
+20.00,-5.00,+10.00,+3.00,+28.00,+6.00,+3.00,+9.00,+48.00,-24.00,-8.00,+30.00,-45.00,+62.00,+1.00,+5.00
-11.00,-34.00,-2.00,+0.00,-32.00,+12.00,+10.00,-7.00,+49.00,+12.00,+0.00,-53.00,-48.00,-19.00,-6.00,-2.00
+1.00,-21.00,-10.00,-6.00,-3.00,+2.00,-26.00,-20.00,+64.00,-12.00,+1.00,+18.00,+43.00,-12.00,+2.00,+1.00
+8.00,-75.00,-3.00,-10.00,-77.00,-6.00,-32.00,-14.00,-59.00,-19.00,+4.00,-5.00,-9.00,+14.00,+1.00,-2.00
-13.00,+2.00,+7.00,+13.00,+71.00,+15.00,+32.00,-2.00,+36.00,+21.00,-2.00,-20.00,-128.00,-59.00,-9.00,-1.00
+24.00,+64.00,-20.00,-12.00,-17.00,-18.00,+18.00,+9.00,+4.00,+2.00,-2.00,-20.00,-22.00,+6.00,-25.00,+11.00
+13.00,-48.00,+26.00,+12.00,+45.00,+20.00,-20.00,+6.00,-64.00,-29.00,-3.00,+1.00,+68.00,+18.00,-11.00,-19.00
-6.00,+60.00,-9.00,-1.00,-11.00,-27.00,+4.00,-6.00,+31.00,+38.00,+1.00,-13.00,+23.00,-25.00,-9.00,-6.00
-7.00,-128.00,-27.00,-9.00,-22.00,-1.00,-15.00,+1.00,-77.00,-47.00,-12.00,+16.00,-106.00,+17.00,+16.00,+5.00
+38.00,+81.00,+30.00,-5.00,-35.00,-36.00,+19.00,+8.00,+39.00,+11.00,+2.00,+14.00,+32.00,+23.00,+18.00,+3.00
+2.00,-128.00,-20.00,+6.00,+72.00,-4.00,-21.00,-7.00,+9.00,+40.00,+3.00,+25.00,+13.00,-11.00,+0.00,-3.00
-12.00,+65.00,+5.00,-2.00,+28.00,+22.00,-7.00,-4.00,-83.00,-19.00,-7.00,-23.00,+56.00,+8.00,-10.00,+1.00
+32.00,-22.00,+11.00,-4.00,-74.00,-28.00,-2.00,+11.00,+69.00,+13.00,+3.00,-3.00,+5.00,-3.00,+9.00,+11.00
-19.00,+21.00,-2.00,+9.00,+94.00,+35.00,+19.00,+6.00,-21.00,+6.00,-2.00,+2.00,+24.00,-7.00,+9.00,+1.00
-43.00,-27.00,-3.00,+5.00,+32.00,+29.00,+31.00,-6.00,-18.00,-41.00,-4.00,+22.00,-38.00,+3.00,-11.00,-13.00
-26.00,+1.00,-3.00,+3.00,-14.00,-24.00,+14.00,+0.00,+107.00,+32.00,+1.00,-26.00,-101.00,-16.00,+12.00,+19.00
+11.00,+50.00,-3.00,-3.00,+4.00,-22.00,+1.00,-3.00,+31.00,-3.00,-4.00,+2.00,+88.00,-4.00,-4.00,-1.00
+21.00,-21.00,-13.00,-9.00,-57.00,+15.00,-10.00,-5.00,+7.00,-2.00,-6.00,-23.00,-35.00,+5.00,-23.00,-9.00
-10.00,-58.00,+4.00,+0.00,-23.00,-27.00,-13.00,-4.00,-14.00,+5.00,-4.00,-11.00,+31.00,-9.00,+6.00,-4.00
-8.00,-28.00,-7.00,-5.00,-13.00,-36.00,-21.00,+1.00,+34.00,-11.00,-11.00,-4.00,-15.00,-34.00,-11.00,-5.00
-12.00,-37.00,-8.00,+2.00,-9.00,+17.00,+52.00,-23.00,+48.00,+35.00,+15.00,+48.00,-11.00,+12.00,-2.00,+19.00
+11.00,-84.00,-2.00,+0.00,-13.00,+13.00,-6.00,+5.00,+28.00,-3.00,-7.00,+11.00,+29.00,-8.00,+11.00,-2.00
-5.00,+87.00,+4.00,-3.00,-13.00,-20.00,+1.00,-16.00,-60.00,+2.00,+10.00,+13.00,+18.00,+0.00,-16.00,+7.00
+4.00,+25.00,+11.00,+1.00,+8.00,+1.00,-2.00,+24.00,-52.00,-45.00,-7.00,-21.00,-50.00,-8.00,-1.00,-18.00
+2.00,+21.00,+4.00,+3.00,+28.00,+18.00,-28.00,-2.00,-59.00,+27.00,+3.00,-18.00,+22.00,-20.00,-18.00,+1.00
+8.00,-52.00,+7.00,-4.00,-31.00,+15.00,+13.00,+0.00,-35.00,+0.00,-2.00,+25.00,+39.00,+30.00,+37.00,-12.00
-3.00,+27.00,-25.00,-3.00,+51.00,+7.00,+7.00,+3.00,+56.00,-19.00,-8.00,-39.00,-104.00,-2.00,+13.00,+2.00
+3.00,+45.00,+8.00,+3.00,-15.00,-24.00,-5.00,-10.00,+6.00,-1.00,-1.00,+18.00,+11.00,-8.00,-56.00,-2.00
+2.00,+20.00,-4.00,+6.00,+35.00,+14.00,-5.00,+7.00,+46.00,+48.00,+2.00,+2.00,-3.00,+3.00,+9.00,+1.00
-76.00,-73.00,+2.00,-5.00,-76.00,-3.00,+7.00,-20.00,+3.00,+7.00,-3.00,+3.00,-16.00,-37.00,-21.00,+7.00
+17.00,-23.00,+2.00,-3.00,+19.00,+4.00,+43.00,+13.00,+5.00,-9.00,+3.00,-20.00,-42.00,-23.00,+10.00,+4.00
+19.00,+0.00,-8.00,-10.00,-64.00,-56.00,+18.00,-8.00,-98.00,-22.00,-7.00,-2.00,+7.00,+20.00,-5.00,-36.00
-27.00,-44.00,+0.00,+11.00,+78.00,-18.00,-47.00,+20.00,-38.00,-40.00,-2.00,+6.00,-29.00,-18.00,+0.00,+3.00
+21.00,+46.00,-4.00,-2.00,-1.00,+10.00,+13.00,+5.00,+35.00,+6.00,-4.00,+3.00,+79.00,+15.00,-1.00,+8.00
-23.00,+17.00,-11.00,-3.00,-40.00,-33.00,-49.00,-13.00,-53.00,+5.00,+1.00,+9.00,-27.00,+17.00,-16.00,-7.00
+3.00,+7.00,+20.00,+9.00,+39.00,+26.00,-13.00,+3.00,-62.00,-47.00,-3.00,+9.00,+7.00,-5.00,-13.00,-10.00
+24.00,-67.00,-18.00,-10.00,-52.00,-6.00,+25.00,+5.00,-18.00,+25.00,+4.00,-26.00,-13.00,+6.00,+8.00,-4.00
-6.00,-28.00,-4.00,-3.00,-3.00,-19.00,-39.00,-7.00,+11.00,-12.00,+3.00,+15.00,+22.00,-46.00,+22.00,-10.00
-11.00,+58.00,-6.00,-2.00,+51.00,+45.00,-4.00,+1.00,-24.00,+16.00,-9.00,-8.00,-19.00,+39.00,-39.00,+5.00
+5.00,-42.00,+2.00,-2.00,-33.00,-24.00,-23.00,-4.00,-9.00,+11.00,+1.00,-13.00,+117.00,-9.00,-13.00,-4.00
+17.00,+63.00,+13.00,+1.00,-24.00,-24.00,+0.00,+13.00,-11.00,-15.00,-11.00,+2.00,-87.00,-30.00,+24.00,-20.00
-17.00,-31.00,-9.00,-2.00,+17.00,+2.00,-3.00,-9.00,+45.00,+16.00,+8.00,+28.00,-33.00,+39.00,+17.00,+22.00
+15.00,+49.00,-7.00,-5.00,-86.00,-25.00,+2.00,+4.00,-76.00,-44.00,-4.00,-75.00,-9.00,-54.00,+41.00,-20.00
+4.00,-6.00,+5.00,+2.00,+69.00,+31.00,+11.00,-35.00,+127.00,+65.00,+1.00,+18.00,+3.00,+10.00,+9.00,+25.00
-8.00,+69.00,-6.00,-18.00,-56.00,-25.00,-9.00,+13.00,-21.00,-17.00,-3.00,+27.00,-13.00,+9.00,-16.00,-9.00
-22.00,-60.00,+10.00,+14.00,+52.00,-9.00,+4.00,+12.00,-46.00,+2.00,+8.00,-31.00,+67.00,+8.00,+4.00,+1.00
-23.00,-55.00,-10.00,-5.00,-25.00,-14.00,-29.00,-5.00,+34.00,+9.00,-11.00,+24.00,-29.00,+0.00,+1.00,-7.00
-30.00,+5.00,-16.00,-3.00,+25.00,+18.00,+7.00,-15.00,-61.00,-24.00,-2.00,+31.00,-58.00,+8.00,+8.00,-2.00
-32.00,-95.00,+2.00,+1.00,-13.00,-3.00,+13.00,-9.00,-30.00,-11.00,-1.00,-8.00,+43.00,-7.00,+6.00,+0.00
+67.00,+91.00,+4.00,-3.00,+22.00,+14.00,-7.00,+5.00,-22.00,-5.00,-1.00,-15.00,-128.00,+13.00,-20.00,-10.00
+0.00,-95.00,+10.00,-6.00,-62.00,-4.00,+27.00,+2.00,-1.00,-16.00,-2.00,+9.00,+3.00,-13.00,-5.00,+8.00
+31.00,+88.00,+9.00,+16.00,+46.00,+45.00,-39.00,+19.00,+37.00,+2.00,+3.00,-49.00,-34.00,+4.00,+0.00,-3.00
-53.00,-95.00,-11.00,-8.00,-36.00,+11.00,-7.00,-23.00,-33.00,-20.00,-6.00,+15.00,+37.00,+29.00,-4.00,+7.00
-12.00,+22.00,-8.00,-7.00,-75.00,+1.00,-6.00,-3.00,-66.00,-62.00,-6.00,+26.00,-12.00,-16.00,-3.00,-14.00
+23.00,-5.00,+8.00,+11.00,+73.00,+8.00,+2.00,+4.00,+10.00,+56.00,+4.00,-1.00,-56.00,+5.00,-5.00,+11.00
+9.00,+41.00,-10.00,-9.00,-40.00,+19.00,+7.00,+15.00,+95.00,+3.00,-7.00,+14.00,-46.00,-9.00,+14.00,+14.00
+19.00,-42.00,+7.00,-5.00,-7.00,+10.00,-5.00,+15.00,-44.00,-6.00,+8.00,+0.00,+20.00,-26.00,+2.00,-17.00
-13.00,+60.00,-3.00,+12.00,+66.00,+4.00,-6.00,-1.00,+77.00,+32.00,+0.00,-8.00,+90.00,+54.00,+2.00,+12.00
-20.00,+94.00,-10.00,-12.00,-60.00,-3.00,+11.00,-14.00,+26.00,+0.00,+6.00,-6.00,+83.00,-31.00,+29.00,+12.00
+27.00,-42.00,+6.00,+1.00,+28.00,-8.00,+27.00,+8.00,+32.00,+4.00,+3.00,+37.00,-5.00,+12.00,+0.00,-9.00
+3.00,+15.00,+10.00,+11.00,+33.00,+11.00,-6.00,-6.00,-82.00,-16.00,-6.00,-31.00,+1.00,+40.00,-32.00,-20.00
-27.00,-10.00,-11.00,-7.00,-38.00,-11.00,+58.00,-5.00,+38.00,-10.00,-5.00,+17.00,-73.00,-21.00,+25.00,+11.00
+13.00,+33.00,+2.00,-9.00,-14.00,-22.00,-12.00,+3.00,+64.00,+13.00,-4.00,-20.00,-1.00,-10.00,+2.00,-9.00
-38.00,-65.00,-9.00,-2.00,+19.00,+15.00,+1.00,-2.00,-40.00,+39.00,+5.00,-11.00,+91.00,+28.00,-7.00,+3.00
+41.00,+44.00,+8.00,+7.00,-7.00,+23.00,-3.00,-28.00,+15.00,-7.00,-1.00,-27.00,+48.00,-33.00,+9.00,-2.00
+3.00,-109.00,+4.00,-2.00,+3.00,+7.00,-6.00,+3.00,+4.00,+14.00,-4.00,+10.00,+27.00,-4.00,+26.00,+0.00
-27.00,+57.00,-1.00,-7.00,+10.00,+25.00,-12.00,-10.00,-58.00,-25.00,+1.00,+28.00,+50.00,+40.00,-36.00,+5.00
-10.00,-64.00,+6.00,-3.00,-48.00,-49.00,+20.00,+18.00,-41.00,-8.00,-2.00,-13.00,-31.00,-46.00,+5.00,+6.00
+13.00,+73.00,-16.00,-3.00,+43.00,-8.00,-9.00,-9.00,+11.00,+3.00,-5.00,+11.00,-5.00,+51.00,-15.00,-18.00
-53.00,+3.00,-5.00,-4.00,-37.00,-10.00,-38.00,-12.00,-6.00,+11.00,+6.00,-3.00,-47.00,-17.00,-15.00,+1.00
+42.00,-99.00,+14.00,+10.00,+42.00,+8.00,-20.00,+14.00,+11.00,+6.00,-3.00,+28.00,+55.00,-10.00,+1.00,+10.00
+26.00,+115.00,+9.00,-3.00,-33.00,+2.00,+13.00,-7.00,+6.00,-38.00,-1.00,-24.00,+2.00,-11.00,+7.00,-1.00
-16.00,-52.00,-5.00,+2.00,+20.00,+58.00,-1.00,+10.00,-59.00,-20.00,-8.00,+2.00,-33.00,+58.00,-1.00,-13.00
-9.00,-14.00,-6.00,+0.00,+23.00,-10.00,+0.00,-8.00,+44.00,+13.00,+1.00,+12.00,-10.00,-21.00,+0.00,+13.00
-27.00,-1.00,-11.00,-7.00,-66.00,-46.00,-52.00,-7.00,+15.00,-3.00,+6.00,-29.00,+37.00,-3.00,+3.00,-3.00
-4.00,-21.00,-9.00,-4.00,-7.00,-22.00,+53.00,+7.00,-79.00,-28.00,-8.00,-8.00,+0.00,+4.00,+5.00,-14.00
+2.00,-8.00,-1.00,+0.00,+25.00,-17.00,+2.00,+2.00,+66.00,+21.00,+4.00,+8.00,-7.00,-19.00,+3.00,+19.00
+15.00,+40.00,+5.00,-2.00,-6.00,+29.00,+11.00,+4.00,-65.00,-15.00,-9.00,+5.00,-20.00,+7.00,-18.00,-23.00
-2.00,-13.00,+2.00,+2.00,-8.00,-25.00,+6.00,-5.00,+50.00,+12.00,-2.00,-4.00,-90.00,-12.00,-7.00,+15.00
-12.00,-34.00,-9.00,-6.00,-9.00,+4.00,-20.00,-4.00,-12.00,-7.00,+0.00,+4.00,+24.00,-17.00,-4.00,+3.00
-8.00,+65.00,+4.00,-5.00,-69.00,-8.00,+5.00,+0.00,+11.00,+16.00,+5.00,-9.00,+62.00,-5.00,+15.00,-8.00
+38.00,-94.00,-8.00,-4.00,+19.00,-13.00,+7.00,+13.00,-48.00,+4.00,+2.00,+9.00,-12.00,-81.00,-9.00,-5.00
-18.00,-32.00,-1.00,-1.00,+23.00,-13.00,-22.00,-4.00,+2.00,-17.00,+2.00,+23.00,+4.00,+63.00,+23.00,-8.00
+2.00,+58.00,+8.00,+3.00,-9.00,-27.00,-9.00,-28.00,+37.00,+22.00,+0.00,+11.00,-86.00,-42.00,-8.00,+10.00
+17.00,-5.00,-1.00,+4.00,+66.00,+22.00,+21.00,+15.00,+16.00,-23.00,-7.00,+19.00,-80.00,+14.00,-20.00,-19.00
-42.00,-59.00,-4.00,-2.00,+1.00,+17.00,-20.00,-11.00,+1.00,+3.00,-4.00,-67.00,-26.00,-1.00,+44.00,-1.00
+9.00,+16.00,+0.00,-2.00,-20.00,-19.00,+11.00,+1.00,-24.00,-12.00,-4.00,+5.00,+36.00,+8.00,+44.00,-3.00
+11.00,-47.00,-2.00,+2.00,+50.00,+50.00,-3.00,-6.00,+17.00,+7.00,-6.00,-53.00,-9.00,+31.00,+14.00,+0.00
-35.00,-23.00,+1.00,-5.00,-46.00,-7.00,-4.00,-4.00,+1.00,+6.00,-2.00,+69.00,-25.00,-67.00,-26.00,-10.00
+28.00,+36.00,+3.00,+6.00,+26.00,+5.00,+8.00,+13.00,-33.00,-14.00,+1.00,-5.00,+45.00,+51.00,-11.00,+15.00
-16.00,-67.00,-5.00,+0.00,+31.00,+19.00,+9.00,-31.00,+48.00,+35.00,-1.00,-9.00,+41.00,-67.00,-12.00,+14.00
+62.00,+28.00,+9.00,-1.00,-16.00,-27.00,-22.00,+38.00,-33.00,+2.00,-2.00,+64.00,-34.00,+50.00,+6.00,-8.00
-27.00,+7.00,-4.00,+2.00,-1.00,-45.00,+15.00,-10.00,+4.00,-11.00,-3.00,-128.00,+23.00,-31.00,-31.00,+4.00
+49.00,-47.00,-4.00,-10.00,-38.00,-4.00,+15.00,+8.00,+1.00,+2.00,+3.00,+41.00,+22.00,+37.00,-39.00,-24.00
+20.00,-44.00,+10.00,+14.00,+48.00,-13.00,-51.00,+13.00,-5.00,-10.00,-4.00,+20.00,+8.00,-6.00,+0.00,+5.00
-7.00,-19.00,-7.00,+2.00,+14.00,+35.00,-55.00,+4.00,-5.00,+1.00,-4.00,+18.00,+37.00,-35.00,-16.00,-2.00
-10.00,-38.00,+1.00,+7.00,+28.00,-65.00,-17.00,-22.00,-18.00,-12.00,+3.00,+8.00,+38.00,+53.00,-2.00,+7.00
-36.00,+10.00,-15.00,-8.00,-14.00,-77.00,+10.00,-3.00,-5.00,+13.00,+2.00,-11.00,-18.00,-17.00,+1.00,-8.00
-32.00,+15.00,-8.00,-8.00,-74.00,+106.00,+0.00,-18.00,-36.00,-11.00,+2.00,-46.00,-60.00,+0.00,-2.00,+5.00
-12.00,-31.00,-1.00,+1.00,+42.00,+40.00,+13.00,-2.00,+38.00,+10.00,-5.00,-10.00,+65.00,-12.00,-14.00,-17.00
+2.00,+20.00,+0.00,-13.00,-46.00,-6.00,-19.00,+20.00,-32.00,-24.00,+2.00,+61.00,-62.00,+33.00,+18.00,+1.00
+3.00,+29.00,+8.00,+27.00,+61.00,+61.00,-10.00,-19.00,+11.00,+1.00,-10.00,-69.00,-28.00,+51.00,+10.00,-5.00
-5.00,+7.00,+6.00,+0.00,-11.00,+4.00,+27.00,+26.00,-41.00,-4.00,+2.00,+21.00,+7.00,-58.00,-46.00,-8.00
-25.00,+27.00,+1.00,+0.00,-7.00,-17.00,+8.00,+25.00,-14.00,+1.00,+0.00,+34.00,-60.00,+38.00,-68.00,-9.00
-29.00,-52.00,-23.00,-12.00,-18.00,-1.00,+26.00,-26.00,+31.00,+6.00,-8.00,-100.00,+19.00,-82.00,+62.00,+19.00
+58.00,+22.00,+21.00,-8.00,-56.00,-44.00,-9.00,+7.00,+38.00,+11.00,+4.00,+84.00,-53.00,+34.00,-16.00,+22.00
+4.00,-35.00,-6.00,+0.00,+58.00,-23.00,+20.00,-16.00,-25.00,-18.00,-5.00,-93.00,-124.00,-63.00,-26.00,-32.00
+39.00,+7.00,-6.00,+0.00,-35.00,-12.00,-24.00,+5.00,-43.00,-7.00,+1.00,+66.00,+3.00,-28.00,-10.00,+4.00
+42.00,-40.00,-13.00,-13.00,-52.00,-54.00,+9.00,+0.00,+32.00,-9.00,-13.00,+39.00,-51.00,-10.00,+22.00,+7.00
+53.00,-12.00,+0.00,-9.00,+35.00,-28.00,+13.00,-2.00,+14.00,+10.00,+6.00,-13.00,-16.00,+28.00,-51.00,-12.00
+10.00,+3.00,+2.00,+10.00,+27.00,+4.00,+23.00,+6.00,-18.00,-11.00,-6.00,+0.00,+88.00,+119.00,-61.00,-6.00
+27.00,-24.00,-8.00,-22.00,-128.00,-31.00,+27.00,+3.00,+8.00,+12.00,+12.00,-78.00,-81.00,-59.00,+41.00,+16.00
-13.00,+18.00,+6.00,+9.00,+65.00,+55.00,-61.00,-7.00,-18.00,-4.00,+0.00,+64.00,+55.00,+25.00,+38.00,-16.00
-53.00,+37.00,+0.00,+13.00,+86.00,-27.00,+7.00,+17.00,-36.00,+6.00,+4.00,+17.00,+30.00,-64.00,-21.00,+6.00
-12.00,+12.00,-4.00,-16.00,-83.00,+14.00,-70.00,+0.00,+10.00,-11.00,-6.00,-14.00,-66.00,-77.00,-31.00,+4.00
-59.00,-3.00,+7.00,+25.00,+83.00,-26.00,+36.00,-12.00,-49.00,-2.00,+5.00,-30.00,-60.00,+6.00,+58.00,-20.00
-62.00,-9.00,-2.00,-20.00,-85.00,-43.00,-6.00,+21.00,+16.00,+3.00,+0.00,-15.00,+54.00,+11.00,+43.00,+7.00
-14.00,+37.00,-1.00,+13.00,+66.00,+63.00,-20.00,+0.00,+0.00,-17.00,-2.00,-76.00,+16.00,-22.00,+8.00,+1.00
-26.00,-10.00,+1.00,+5.00,-19.00,+37.00,-46.00,-3.00,+44.00,+19.00,-2.00,+36.00,-33.00,-12.00,-52.00,-9.00
-40.00,-8.00,-4.00,-13.00,-109.00,-42.00,+52.00,-9.00,+29.00,-4.00,-1.00,-16.00,+81.00,-36.00,-1.00,+2.00
+44.00,+16.00,+10.00,+2.00,-1.00,-29.00,-51.00,+7.00,-29.00,+4.00,+5.00,-57.00,-128.00,-12.00,-21.00,-11.00
-48.00,-9.00,-17.00,-22.00,-117.00,-60.00,-39.00,-38.00,-24.00,-2.00,-8.00,+79.00,-27.00,+65.00,+42.00,+4.00
+53.00,+54.00,+8.00,-5.00,+16.00,-77.00,+54.00,-32.00,-31.00,-5.00,+1.00,-6.00,+0.00,+67.00,-37.00,-12.00
-3.00,-29.00,+0.00,+0.00,+9.00,-2.00,-74.00,+18.00,-9.00,-32.00,-9.00,+36.00,+56.00,+75.00,-13.00,-6.00
+40.00,+4.00,+7.00,+18.00,+83.00,+64.00,+77.00,+16.00,+53.00,+37.00,+20.00,+127.00,-60.00,-43.00,-95.00,+14.00
-23.00,-21.00,-3.00,-15.00,-110.00,-26.00,+13.00,-7.00,-29.00,-5.00,-1.00,-116.00,-35.00,+17.00,-1.00,+6.00
-20.00,+40.00,-1.00,+17.00,+112.00,-5.00,-10.00,+12.00,-16.00,-7.00,-10.00,+51.00,-16.00,+4.00,-1.00,-23.00
+0.00,-19.00,-1.00,-2.00,+53.00,+33.00,+24.00,-28.00,+1.00,-21.00,-12.00,+17.00,-61.00,-70.00,+4.00,+1.00
-15.00,-12.00,-4.00,-24.00,-19.00,+116.00,-60.00,-19.00,-28.00,+14.00,+13.00,+25.00,-47.00,-124.00,-47.00,-3.00
-2.00,+15.00,+8.00,+12.00,+30.00,-21.00,-64.00,+20.00,+51.00,-7.00,-13.00,-12.00,+90.00,+72.00,+94.00,+10.00
+7.00,-55.00,-21.00,-11.00,-8.00,+65.00,+50.00,+10.00,-21.00,+5.00,+2.00,+35.00,+39.00,-42.00,+0.00,+6.00
+16.00,+28.00,+19.00,+29.00,+127.00,+78.00,+19.00,+14.00,-15.00,-3.00,-6.00,+68.00,-19.00,+50.00,-120.00,-25.00
-34.00,+12.00,-11.00,+1.00,-27.00,-8.00,-94.00,-22.00,-11.00,-9.00,-12.00,-52.00,-18.00,-34.00,+45.00,-9.00
+5.00,-78.00,-4.00,-26.00,-73.00,+35.00,+46.00,+6.00,-31.00,+16.00,+13.00,+112.00,-82.00,-69.00,+26.00,+6.00
+47.00,+30.00,+15.00,-20.00,-107.00,-48.00,+50.00,+35.00,-10.00,-6.00,-4.00,-40.00,+51.00,-85.00,+127.00,+0.00
-26.00,-5.00,-10.00,+2.00,+28.00,-23.00,+34.00,-14.00,+35.00,+13.00,+12.00,-51.00,+51.00,+78.00,+25.00,+20.00
+6.00,-20.00,-11.00,+8.00,+66.00,-50.00,+127.00,+12.00,-67.00,-7.00,-8.00,-72.00,+18.00,+74.00,-52.00,-33.00
-32.00,+3.00,+8.00,-4.00,+43.00,+90.00,-46.00,-5.00,+18.00,-12.00,+4.00,+81.00,+9.00,-31.00,-107.00,+3.00
+22.00,+3.00,-5.00,+14.00,+122.00,-50.00,+26.00,+20.00,-30.00,-17.00,-28.00,-59.00,+77.00,+127.00,+118.00,-11.00
-2.00,-8.00,-2.00,-5.00,+3.00,+58.00,+47.00,-3.00,+63.00,+37.00,+14.00,-95.00,-92.00,+25.00,+74.00,+43.00
+11.00,+3.00,+4.00,-7.00,+5.00,-128.00,+60.00,-17.00,-53.00,-10.00,+8.00,+81.00,-2.00,-34.00,-41.00,-10.00
+28.00,+42.00,+1.00,+22.00,+79.00,+75.00,+77.00,-1.00,+72.00,+2.00,-11.00,+79.00,-51.00,-16.00,-21.00,+1.00
-20.00,-7.00,+2.00,-14.00,-93.00,+28.00,-10.00,+21.00,-65.00,-18.00,+3.00,-22.00,-77.00,+3.00,-37.00,+12.00
+34.00,+22.00,-2.00,+20.00,+24.00,-19.00,-32.00,-6.00,-9.00,-2.00,-4.00,+75.00,+88.00,+23.00,+6.00,-3.00
+45.00,-1.00,+7.00,+17.00,+12.00,+76.00,-29.00,+36.00,+25.00,+0.00,+8.00,-21.00,+79.00,+48.00,-33.00,+34.00
+3.00,+27.00,-4.00,+9.00,-37.00,+31.00,+60.00,-19.00,-108.00,-4.00,+0.00,+95.00,+39.00,-48.00,-26.00,-63.00
-6.00,-5.00,-5.00,-10.00,-56.00,-40.00,+66.00,+21.00,+104.00,+51.00,+12.00,-30.00,-78.00,+75.00,-40.00,+25.00
+19.00,-13.00,-8.00,-1.00,-1.00,+6.00,+87.00,-48.00,-55.00,-9.00,-9.00,-128.00,+30.00,+23.00,+127.00,-31.00
+2.00,+43.00,+31.00,+35.00,+98.00,+15.00,+76.00,+23.00,+45.00,-6.00,-5.00,+65.00,+107.00,+38.00,-20.00,-4.00
+26.00,+12.00,-7.00,-22.00,-76.00,-59.00,+3.00,+5.00,+89.00,+12.00,+2.00,-23.00,+80.00,-6.00,-20.00,+8.00
-22.00,-51.00,-11.00,-5.00,-37.00,-17.00,-18.00,-1.00,+12.00,+1.00,+18.00,+44.00,-21.00,-16.00,+45.00,+30.00
-12.00,+1.00,+3.00,+19.00,+41.00,-46.00,-11.00,+11.00,-61.00,+9.00,+0.00,+79.00,+75.00,-71.00,-89.00,-13.00
+25.00,+53.00,-3.00,-32.00,-128.00,+3.00,-38.00,-10.00,-44.00,-2.00,+3.00,-59.00,+0.00,-45.00,-33.00,+5.00
+11.00,+27.00,+3.00,+4.00,-53.00,-47.00,-56.00,-13.00,+36.00,-7.00,-11.00,-22.00,+59.00,-32.00,-80.00,-24.00
-48.00,-35.00,-16.00,-13.00,-22.00,+41.00,+16.00,-37.00,-6.00,+0.00,-8.00,-64.00,-92.00,-90.00,-5.00,-19.00
-1.00,-6.00,-5.00,-14.00,-42.00,-35.00,+32.00,+16.00,+13.00,-5.00,+1.00,+127.00,+16.00,+12.00,-60.00,+7.00
+28.00,-14.00,+12.00,+15.00,+91.00,+20.00,-56.00,-22.00,-12.00,+0.00,+14.00,+60.00,+39.00,+30.00,-24.00,-11.00
-20.00,+4.00,-13.00,-17.00,-76.00,-63.00,-62.00,-12.00,+10.00,-14.00,-17.00,-25.00,+51.00,-34.00,+51.00,+18.00
-13.00,+20.00,+12.00,+30.00,+108.00,-22.00,-39.00,+6.00,-7.00,-8.00,+7.00,-6.00,+71.00,+41.00,+25.00,-9.00
-42.00,-36.00,-10.00,-28.00,-128.00,+7.00,-105.00,-32.00,-6.00,+6.00,+1.00,+8.00,-101.00,-67.00,-118.00,+0.00
-54.00,-50.00,-16.00,-21.00,-97.00,-53.00,-9.00,+21.00,+38.00,+16.00,+0.00,-1.00,+73.00,-9.00,-9.00,-14.00
+61.00,+14.00,-1.00,+2.00,+116.00,+97.00,+17.00,-8.00,-62.00,+21.00,+24.00,+41.00,-107.00,-3.00,+52.00,+2.00
-54.00,+8.00,-3.00,-4.00,-89.00,-71.00,-53.00,-16.00,-14.00,-4.00,+13.00,+127.00,-31.00,+93.00,+38.00,-11.00
+25.00,+6.00,+9.00,+25.00,+101.00,+84.00,-60.00,+30.00,+64.00,-2.00,-9.00,+37.00,-31.00,+18.00,+73.00,+46.00
-12.00,+0.00,+3.00,-2.00,+14.00,-21.00,-9.00,-16.00,+2.00,-2.00,-21.00,-77.00,-87.00,-30.00,-59.00,-24.00
-13.00,+22.00,+6.00,+6.00,+73.00,+10.00,+9.00,-9.00,+9.00,+4.00,+10.00,-128.00,+18.00,-56.00,+46.00,-3.00
-23.00,-20.00,-12.00,-1.00,+96.00,+28.00,+59.00,-29.00,-20.00,-14.00,-10.00,+74.00,-17.00,-23.00,-37.00,+1.00
+46.00,+9.00,+1.00,-28.00,-70.00,+5.00,-12.00,+6.00,-45.00,-6.00,+4.00,+79.00,-12.00,+74.00,+62.00,-12.00
+11.00,+11.00,-1.00,-3.00,+17.00,+53.00,+65.00,+26.00,+15.00,-10.00,-16.00,-85.00,+20.00,+8.00,+42.00,+7.00
-6.00,-15.00,-1.00,-17.00,-83.00,-44.00,+31.00,+11.00,+17.00,+5.00,-2.00,+60.00,+82.00,+85.00,-54.00,+0.00
+49.00,+18.00,+2.00,-25.00,-105.00,-21.00,-80.00,-6.00,+4.00,-11.00,-10.00,-43.00,-22.00,-118.00,+2.00,-15.00
+17.00,+3.00,-15.00,-41.00,+19.00,+32.00,+20.00,-20.00,+7.00,-4.00,-1.00,-71.00,-18.00,+33.00,-81.00,-11.00
-54.00,-12.00,-14.00,-1.00,-28.00,+4.00,+20.00,-7.00,+39.00,-2.00,-14.00,-101.00,-35.00,+16.00,+101.00,+23.00
+18.00,-26.00,+3.00,+22.00,+118.00,+29.00,+55.00,+11.00,-21.00,-11.00,-5.00,-16.00,+3.00,+28.00,-33.00,+1.00
+42.00,+32.00,+19.00,+18.00,-17.00,+26.00,+46.00,+26.00,+55.00,+19.00,+2.00,+54.00,+24.00,+50.00,-15.00,+7.00
-6.00,-1.00,-10.00,-33.00,-128.00,-42.00,-58.00,-36.00,+26.00,+3.00,+9.00,-61.00,+122.00,-46.00,+61.00,+13.00
+38.00,+0.00,-5.00,-19.00,-128.00,-47.00,+82.00,+1.00,-44.00,+10.00,+18.00,+127.00,-97.00,-46.00,+102.00,+14.00
-27.00,+9.00,+2.00,+28.00,+71.00,-50.00,+7.00,+24.00,-48.00,-4.00,-4.00,+34.00,-87.00,+66.00,+0.00,+5.00
+0.00,-21.00,-6.00,-30.00,-46.00,-46.00,+15.00,-30.00,-37.00,-18.00,-11.00,+80.00,+85.00,+81.00,-72.00,-23.00
+11.00,+1.00,+10.00,+42.00,+127.00,+49.00,+91.00,+51.00,+19.00,+6.00,-16.00,-115.00,+47.00,+28.00,-57.00,-36.00
+19.00,+3.00,+4.00,+17.00,+82.00,+39.00,-116.00,-30.00,+26.00,+1.00,-2.00,-6.00,-52.00,+29.00,-54.00,-19.00
-26.00,+11.00,+11.00,+28.00,+68.00,+55.00,+70.00,+17.00,-51.00,-9.00,-8.00,+10.00,-10.00,-25.00,+122.00,+3.00
+58.00,+21.00,+7.00,+12.00,-51.00,+4.00,+8.00,+16.00,+31.00,+9.00,+14.00,+84.00,+67.00,+30.00,-16.00,+15.00
-43.00,-10.00,-6.00,-41.00,-128.00,-115.00,-40.00,+6.00,+6.00,-2.00,-3.00,+75.00,+38.00,+8.00,+62.00,+18.00
+4.00,-3.00,+9.00,+20.00,+17.00,+20.00,+71.00,+13.00,-24.00,-16.00,-1.00,+89.00,-31.00,+126.00,-22.00,+6.00
+18.00,+5.00,-11.00,-43.00,-128.00,-30.00,-72.00,+0.00,-28.00,+3.00,-21.00,-100.00,-86.00,-52.00,+20.00,-12.00
-17.00,+2.00,-5.00,-18.00,+17.00,+8.00,-91.00,+8.00,-36.00,-25.00,-11.00,-88.00,-99.00,+50.00,+25.00,+11.00
-17.00,-7.00,-3.00,+22.00,+41.00,+87.00,-11.00,-5.00,+35.00,+11.00,-19.00,-107.00,+0.00,-52.00,+91.00,+1.00
+16.00,+10.00,+3.00,+2.00,-100.00,-36.00,-64.00,+9.00,+42.00,+2.00,+5.00,-57.00,+14.00,-41.00,-107.00,+20.00
+24.00,-1.00,+3.00,+22.00,+54.00,+66.00,+45.00,-3.00,-2.00,-1.00,+6.00,+79.00,+33.00,-45.00,-84.00,-13.00
+5.00,-3.00,-8.00,-6.00,-92.00,-16.00,-30.00,-6.00,+1.00,-9.00,+6.00,-118.00,+22.00,-63.00,+74.00,+26.00
-32.00,-5.00,-8.00,-40.00,-128.00,-27.00,-6.00,-1.00,-22.00,-14.00,+4.00,+107.00,+15.00,+1.00,+9.00,-12.00
-5.00,+9.00,+3.00,+2.00,+37.00,-62.00,-10.00,-5.00,-13.00,+13.00,-25.00,-94.00,+37.00,+26.00,-70.00,-11.00
-7.00,-1.00,-7.00,-27.00,-1.00,-30.00,-104.00,+2.00,+64.00,+1.00,-2.00,-128.00,+64.00,+64.00,-35.00,+17.00
-16.00,+1.00,-2.00,+40.00,+127.00,+91.00,-97.00,-34.00,-30.00,+1.00,+0.00,+98.00,+127.00,-6.00,+2.00,-21.00
+0.00,-1.00,+6.00,+11.00,-46.00,-27.00,-34.00,+35.00,+5.00,+5.00,+9.00,+26.00,-125.00,+6.00,-70.00,-1.00
-23.00,-2.00,+7.00,+24.00,+79.00,+36.00,-59.00,+26.00,-28.00,-10.00,-6.00,+47.00,-50.00,-5.00,+4.00,-12.00
-22.00,+3.00,+1.00,+29.00,+12.00,+5.00,-23.00,-13.00,+11.00,-14.00,+5.00,-12.00,+10.00,-27.00,-23.00,-4.00
-14.00,+3.00,-2.00,-21.00,-79.00,-41.00,-23.00,-30.00,+47.00,+28.00,+1.00,-92.00,-30.00,-36.00,-54.00,+38.00
+5.00,+13.00,+7.00,+28.00,+125.00,-50.00,+13.00,+24.00,-20.00,-8.00,+11.00,+3.00,-69.00,-99.00,+0.00,-2.00
-40.00,-27.00,-16.00,-37.00,-73.00,+14.00,-55.00,-61.00,-19.00,-20.00,-16.00,-16.00,-3.00,+41.00,-73.00,-25.00
+1.00,+4.00,+5.00,+16.00,+35.00,-62.00,+12.00,+8.00,-19.00,+5.00,-5.00,+22.00,+58.00,+75.00,+46.00,+27.00
+28.00,+9.00,+20.00,+37.00,+56.00,+68.00,+127.00,+36.00,-19.00,-11.00,-2.00,-9.00,-107.00,-12.00,+68.00,-4.00
-8.00,+11.00,-1.00,-4.00,-84.00,-58.00,-74.00,-48.00,-16.00,-9.00,+0.00,+38.00,-126.00,-37.00,-10.00,-24.00
+60.00,-1.00,+3.00,-7.00,+64.00,+47.00,+59.00,+5.00,-29.00,-3.00,+9.00,-23.00,+73.00,+12.00,+110.00,+24.00
-87.00,-33.00,-13.00,-28.00,+13.00,+18.00,+14.00,-14.00,-11.00,-9.00,+11.00,+28.00,-22.00,-6.00,-97.00,-25.00
+40.00,-6.00,-7.00,+6.00,+63.00,+31.00,+10.00,+7.00,-12.00,+9.00,-2.00,-14.00,-25.00,+7.00,-39.00,-18.00
+12.00,+13.00,+7.00,+2.00,+75.00,+4.00,+5.00,+5.00,+54.00,+14.00,+6.00,+80.00,+77.00,+54.00,+0.00,+30.00
-21.00,+38.00,-3.00,-11.00,-91.00,+27.00,-74.00,-14.00,-40.00,-7.00,+4.00,+65.00,-62.00,-73.00,+71.00,-1.00
-6.00,-15.00,+3.00,+19.00,+37.00,-90.00,-7.00,+1.00,+46.00,+1.00,-3.00,+26.00,-128.00,+33.00,-5.00,+10.00
-12.00,-1.00,+3.00,+18.00,+92.00,+53.00,+19.00,+27.00,-29.00,+3.00,-6.00,+4.00,-46.00,-64.00,-98.00,-24.00
+46.00,-26.00,+5.00,+9.00,+11.00,+15.00,+47.00,+1.00,-49.00,-20.00,-2.00,+4.00,-23.00,+121.00,+75.00,-6.00
-68.00,-32.00,-13.00,-14.00,-90.00,-35.00,-62.00,+0.00,+68.00,+22.00,+7.00,+87.00,-4.00,-77.00,+56.00,+47.00
+41.00,+40.00,+3.00,+4.00,+46.00,+2.00,+12.00,+20.00,-94.00,-28.00,-14.00,-93.00,-51.00,-57.00,+42.00,-23.00
-35.00,-21.00,-4.00,-15.00,-81.00,-62.00,-4.00,-13.00,+87.00,+22.00,+14.00,+62.00,+58.00,+24.00,+15.00,+31.00
+6.00,+11.00,+3.00,+4.00,-4.00,+34.00,-20.00,-1.00,-9.00,-8.00,-3.00,-128.00,+121.00,-70.00,-43.00,+5.00
-15.00,-15.00,-7.00,-28.00,-89.00,-64.00,+0.00,-4.00,-46.00,-7.00,-1.00,+12.00,+27.00,-38.00,+50.00,-12.00
-21.00,-22.00,-9.00,-19.00,-69.00,-56.00,+48.00,-8.00,+45.00,+2.00,+3.00,+40.00,+32.00,+67.00,+117.00,+15.00
-1.00,+3.00,-3.00,+22.00,+79.00,-7.00,+36.00,-10.00,+31.00,+17.00,+3.00,-3.00,+86.00,-17.00,-25.00,+2.00
-16.00,-14.00,-10.00,-26.00,-96.00,+18.00,-44.00,-11.00,-29.00,-19.00,-7.00,-45.00,-81.00,-54.00,-98.00,-17.00
+19.00,+3.00,-3.00,-7.00,-17.00,+10.00,+127.00,+20.00,+15.00,+12.00,+5.00,-63.00,-84.00,+67.00,+48.00,+21.00
+21.00,+27.00,-8.00,-31.00,-128.00,-60.00,-54.00,-16.00,+2.00,-8.00,+3.00,-8.00,+10.00,+13.00,-78.00,-4.00
+21.00,-1.00,+1.00,+22.00,+71.00,-1.00,+16.00,+4.00,-78.00,-20.00,-12.00,+45.00,-122.00,+88.00,+105.00,-25.00
-11.00,+15.00,-1.00,-12.00,-65.00,-78.00,+18.00,+9.00,+28.00,+13.00,+7.00,+82.00,+46.00,+120.00,-70.00,-18.00
-49.00,-3.00,+4.00,+40.00,+127.00,+67.00,+58.00,+4.00,-7.00,-9.00,-7.00,-1.00,-64.00,-122.00,-72.00,-23.00
+12.00,-28.00,-7.00,-15.00,-117.00,-21.00,+12.00,-20.00,-1.00,+7.00,-10.00,-52.00,-52.00,-80.00,+13.00,-5.00
-21.00,+25.00,+4.00,-14.00,+22.00,+9.00,-21.00,-4.00,+63.00,-3.00,+2.00,-30.00,-1.00,+24.00,-43.00,+13.00
+59.00,+10.00,+2.00,-1.00,-16.00,-21.00,+48.00,+32.00,+35.00,+14.00,+0.00,+60.00,+12.00,-16.00,+28.00,+21.00
+1.00,-17.00,+2.00,+12.00,+21.00,-46.00,-28.00,+6.00,-41.00,-25.00,-6.00,+100.00,+10.00,+48.00,-65.00,-18.00
+29.00,+22.00,+6.00,+17.00,+104.00,+48.00,+12.00,-1.00,+26.00,+11.00,-11.00,-98.00,-36.00,+32.00,-29.00,-4.00
-25.00,-13.00,-15.00,-28.00,-106.00,-22.00,-93.00,-26.00,-9.00,+6.00,+5.00,+32.00,+52.00,-10.00,-94.00,-16.00
-67.00,-18.00,-15.00,-30.00,-34.00,-17.00,+37.00,+3.00,-89.00,-2.00,+20.00,+40.00,+75.00,+28.00,+34.00,+31.00
+10.00,+0.00,-3.00,-26.00,+4.00,+4.00,+101.00,+20.00,+31.00,-21.00,+2.00,-13.00,+97.00,+42.00,-42.00,-27.00
-45.00,-13.00,+0.00,+22.00,+119.00,+47.00,+19.00,-6.00,+14.00,-8.00,+3.00,+76.00,-28.00,+75.00,-58.00,+0.00
+38.00,+5.00,+4.00,+11.00,+19.00,-56.00,+59.00,+8.00,-75.00,-18.00,+0.00,-49.00,-3.00,-128.00,-64.00,-10.00
-4.00,+2.00,+7.00,+16.00,-6.00,+52.00,+10.00,-35.00,+84.00,+23.00,-7.00,+44.00,+77.00,+44.00,-24.00,-19.00
+44.00,+8.00,+6.00,+12.00,+1.00,-7.00,-47.00,-9.00,-26.00,-14.00,+1.00,+22.00,-75.00,-6.00,-50.00,+6.00
-59.00,-27.00,-4.00,-8.00,-8.00,+45.00,-33.00,+0.00,-29.00,+39.00,+13.00,-33.00,+61.00,-31.00,-44.00,-12.00
+1.00,+3.00,-1.00,+1.00,+62.00,+26.00,+40.00,+14.00,+11.00,+4.00,-4.00,+31.00,+27.00,-95.00,-100.00,+9.00
-3.00,-4.00,+2.00,+11.00,-17.00,+9.00,+58.00,+8.00,-51.00,-19.00,-23.00,-128.00,-94.00,+32.00,+15.00,-1.00
+10.00,+9.00,+0.00,-5.00,+53.00,+78.00,+22.00,+5.00,+71.00,+18.00,+5.00,+14.00,+44.00,+37.00,+94.00,+21.00
+22.00,+7.00,-3.00,+1.00,+21.00,-20.00,-60.00,-9.00,-16.00,-3.00,+1.00,+22.00,+3.00,+21.00,+20.00,-19.00
-53.00,-7.00,-12.00,-40.00,-128.00,-34.00,-116.00,-32.00,-7.00,-11.00,+2.00,+86.00,+0.00,+40.00,+10.00,-37.00
+5.00,+2.00,+3.00,+25.00,+127.00,+27.00,-27.00,-2.00,+35.00,+2.00,-10.00,-117.00,-29.00,-98.00,-56.00,-14.00
-79.00,-27.00,-8.00,-15.00,-102.00,+4.00,-30.00,+5.00,-98.00,-8.00,+6.00,+68.00,-22.00,-27.00,+53.00,+23.00
+82.00,+13.00,+7.00,+19.00,-49.00,-65.00,+4.00,+15.00,+109.00,-1.00,-1.00,+84.00,-52.00,+39.00,+103.00,+24.00
-6.00,+1.00,+3.00,-15.00,-25.00,+23.00,+60.00,+20.00,-36.00,-10.00,-16.00,-82.00,-50.00,-31.00,-7.00,-9.00
-45.00,-9.00,-12.00,-5.00,+51.00,-70.00,-35.00,-13.00,-16.00,+13.00,+9.00,+24.00,-23.00,-3.00,-74.00,-8.00
+108.00,+11.00,+8.00,+15.00,+127.00,-16.00,+47.00,-10.00,+67.00,+7.00,+0.00,+14.00,+65.00,+37.00,-48.00,-10.00
-8.00,+2.00,-5.00,-25.00,-121.00,-44.00,-74.00,-16.00,-52.00,-6.00,-1.00,+52.00,+80.00,-116.00,+63.00,+2.00
+22.00,-11.00,+2.00,+8.00,+3.00,-8.00,+54.00,+16.00,+2.00,+6.00,+1.00,-45.00,+58.00,+101.00,-21.00,+3.00
+7.00,+11.00,-1.00,-13.00,-98.00,+32.00,-60.00,-21.00,-1.00,-12.00,+0.00,-51.00,+15.00,+3.00,-19.00,-2.00
+23.00,+12.00,+0.00,+21.00,+74.00,-24.00,-51.00,-6.00,-23.00,+4.00,-4.00,-4.00,-98.00,+50.00,-99.00,-17.00
-38.00,-1.00,-2.00,-19.00,-102.00,+21.00,+60.00,+3.00,-36.00,-2.00,+1.00,-40.00,-127.00,-51.00,-102.00,+0.00
+47.00,-4.00,+0.00,+6.00,-29.00,-37.00,-86.00,-21.00,+15.00,-16.00,-12.00,+12.00,-59.00,+77.00,+84.00,+17.00
-61.00,-20.00,-2.00,+8.00,+119.00,+60.00,+17.00,-4.00,-3.00,-2.00,-2.00,-62.00,-3.00,-24.00,+48.00,+3.00
+0.00,+13.00,-3.00,+0.00,-5.00,-18.00,+57.00,-7.00,+9.00,+1.00,-4.00,-14.00,+100.00,+83.00,+38.00,+1.00
+5.00,-2.00,+1.00,-9.00,-78.00,-23.00,-42.00,-8.00,+0.00,-12.00,+7.00,-1.00,+44.00,-8.00,-105.00,+12.00
-31.00,-20.00,+1.00,-1.00,+58.00,+57.00,+29.00,-26.00,-63.00,-7.00,-13.00,-60.00,-44.00,+117.00,+127.00,-40.00
+30.00,-17.00,+7.00,+9.00,+45.00,-16.00,-63.00,+6.00,+56.00,+4.00,+15.00,+127.00,+28.00,-1.00,+48.00,+50.00
+27.00,+12.00,+9.00,+29.00,+7.00,-6.00,-32.00,+8.00,+4.00,-11.00,-16.00,-128.00,-91.00,-30.00,+31.00,-22.00
-36.00,-7.00,-4.00,-8.00,-18.00,+7.00,+112.00,-7.00,+30.00,+33.00,+8.00,-45.00,+67.00,+57.00,+85.00,-29.00
+24.00,-5.00,+10.00,+19.00,+70.00,+12.00,+29.00,+33.00,+23.00,+7.00,+8.00,+16.00,+18.00,-94.00,-4.00,+25.00
-38.00,-5.00,-15.00,-12.00,-29.00,-62.00,-80.00,-24.00,-25.00,-27.00,-15.00,+78.00,+84.00,+7.00,+45.00,-13.00
+25.00,+12.00,+8.00,+3.00,+2.00,+44.00,+32.00,-2.00,-34.00,-1.00,-1.00,-62.00,+41.00,-45.00,+87.00,+2.00
+3.00,+0.00,+1.00,+3.00,+22.00,-29.00,+11.00,+1.00,+37.00,+45.00,+14.00,+76.00,-58.00,+28.00,+67.00,+14.00
+5.00,+13.00,+0.00,+0.00,-62.00,-11.00,+0.00,+67.00,-19.00,-10.00,-2.00,+39.00,+84.00,-32.00,-9.00,-11.00
-34.00,+3.00,-4.00,-2.00,-56.00,+13.00,-69.00,-38.00,+10.00,+13.00,+4.00,-81.00,+0.00,-78.00,-70.00,-18.00
-5.00,+1.00,-7.00,-24.00,-101.00,+42.00,-88.00,+0.00,-10.00,+7.00,+17.00,+78.00,+10.00,+84.00,+11.00,+24.00
-44.00,-2.00,+5.00,+32.00,+127.00,+75.00,-34.00,-2.00,+14.00,-24.00,-3.00,+53.00,+67.00,+12.00,+5.00,-2.00
+52.00,+21.00,+6.00,-11.00,-69.00,+2.00,-75.00,+17.00,-22.00,-10.00,+0.00,+55.00,-79.00,+72.00,-38.00,+2.00
+6.00,-15.00,+1.00,+9.00,-20.00,+36.00,+70.00,+20.00,+24.00,+10.00,+11.00,+39.00,-10.00,-14.00,+47.00,+31.00
-8.00,-7.00,-6.00,-10.00,-95.00,-73.00,-36.00,-15.00,+38.00,+25.00,+8.00,-22.00,+56.00,+16.00,-39.00,-23.00
+49.00,+21.00,+9.00,+10.00,+33.00,-3.00,-39.00,+12.00,-63.00,-12.00,-8.00,-40.00,-21.00,-79.00,-81.00,-1.00
-40.00,-20.00,-1.00,-3.00,-13.00,+38.00,-62.00,-41.00,+80.00,+10.00,+2.00,+26.00,+58.00,-45.00,+19.00,+41.00
-23.00,-1.00,-2.00,-1.00,-42.00,-29.00,+41.00,-5.00,-61.00,-5.00,-2.00,+48.00,-63.00,+86.00,+33.00,-38.00
+34.00,+0.00,+17.00,+34.00,+108.00,+20.00,+2.00,+41.00,+19.00,+2.00,-8.00,-62.00,-69.00,-19.00,-30.00,+30.00
-11.00,-4.00,-6.00,-27.00,-119.00,+72.00,+34.00,-6.00,+7.00,-6.00,-9.00,-47.00,-95.00,-57.00,+51.00,+44.00
-20.00,-1.00,-7.00,-4.00,-44.00,-43.00,-67.00,-15.00,-37.00,-14.00,-10.00,+39.00,-70.00,-2.00,-56.00,-31.00
+17.00,-2.00,-1.00,+1.00,+76.00,+55.00,-19.00,+1.00,+6.00,+1.00,+4.00,+11.00,-23.00,-94.00,+60.00,-1.00
-49.00,-2.00,-12.00,-61.00,-93.00,+3.00,+36.00,-11.00,+2.00,-13.00,-8.00,+83.00,+36.00,+62.00,-1.00,+18.00
+5.00,-15.00,+0.00,-7.00,-119.00,+5.00,+7.00,-33.00,-27.00,-13.00,-21.00,-64.00,-88.00,-63.00,+54.00,-39.00
+31.00,+11.00,-4.00,+15.00,+70.00,-15.00,+68.00,-2.00,+11.00,+8.00,-2.00,-19.00,-23.00,-33.00,+5.00,-13.00
-19.00,+5.00,+9.00,+22.00,+83.00,+10.00,+36.00,+14.00,-33.00,+5.00,+1.00,+40.00,+3.00,+0.00,-5.00,+5.00
+49.00,-12.00,-6.00,-19.00,-71.00,-23.00,+47.00,+7.00,+16.00,-3.00,-8.00,-71.00,+52.00,-51.00,+18.00,+14.00
-12.00,+4.00,-4.00,-4.00,+88.00,+43.00,+16.00,-2.00,+9.00,-15.00,+0.00,+39.00,+127.00,-17.00,-57.00,+4.00
-48.00,-17.00,-7.00,-8.00,+44.00,-74.00,-56.00,+3.00,-35.00,+3.00,+3.00,-111.00,+62.00,-28.00,-40.00,-16.00
-35.00,-17.00,-10.00,-5.00,+27.00,-25.00,-7.00,+5.00,-2.00,-2.00,-8.00,+15.00,+71.00,-31.00,-15.00,+11.00
+8.00,+5.00,+0.00,+19.00,-25.00,+4.00,-65.00,+6.00,-10.00,+6.00,-5.00,-88.00,+127.00,-11.00,-75.00,-12.00
+19.00,+3.00,+2.00,+0.00,-6.00,-17.00,+56.00,+4.00,-6.00,-2.00,+10.00,+48.00,+1.00,+111.00,-13.00,+4.00
-69.00,-8.00,+1.00,+25.00,+61.00,-16.00,+124.00,-13.00,-3.00,+0.00,+11.00,-21.00,+26.00,-11.00,+57.00,+30.00
+111.00,+19.00,+5.00,+0.00,+98.00,+13.00,-75.00,-6.00,+11.00,+0.00,-2.00,-2.00,+8.00,-5.00,-60.00,-5.00
-126.00,-30.00,-7.00,-1.00,-66.00,-21.00,-13.00,+0.00,+22.00,-9.00,-15.00,-37.00,+27.00,-77.00,+45.00,-1.00
+69.00,+12.00,+8.00,+17.00,+43.00,-67.00,-59.00,+38.00,-28.00,-18.00,-5.00,-28.00,-22.00,-13.00,+24.00,-2.00
-1.00,+6.00,+1.00,-8.00,+14.00,+63.00,+62.00,+13.00,+24.00,+17.00,+0.00,-52.00,-43.00,+64.00,+69.00,-13.00
+8.00,+19.00,+20.00,+30.00,+21.00,+14.00,+33.00,-3.00,-15.00,-6.00,-8.00,-75.00,-76.00,+11.00,-43.00,+5.00
-2.00,+4.00,+0.00,+0.00,-27.00,-8.00,-59.00,-8.00,-14.00,-8.00,+4.00,+127.00,-38.00,+6.00,-61.00,-27.00
+3.00,-11.00,-2.00,+1.00,+9.00,+0.00,-29.00,+2.00,-8.00,-15.00,-23.00,-69.00,-88.00,+100.00,+55.00,-11.00
-4.00,+3.00,-2.00,-9.00,-61.00,+22.00,-74.00,-10.00,-2.00,-12.00,-3.00,+6.00,-122.00,-61.00,-35.00,+10.00
-7.00,-3.00,+0.00,-4.00,-58.00,-16.00,-43.00,+6.00,-19.00,-11.00,-17.00,-23.00,-113.00,+18.00,-94.00,-23.00
-1.00,+26.00,-5.00,-28.00,-34.00,-28.00,+33.00,+4.00,+4.00,-4.00,-6.00,-39.00,-48.00,+42.00,-84.00,-17.00
-37.00,-14.00,-7.00,+25.00,+97.00,+65.00,-114.00,+15.00,+17.00,-18.00,+2.00,+3.00,+22.00,+38.00,-128.00,+4.00
+10.00,+14.00,+4.00,+4.00,+53.00,-29.00,+20.00,-18.00,-7.00,+4.00,+4.00,-40.00,+75.00,+49.00,-93.00,-11.00
+0.00,+3.00,+8.00,+18.00,+6.00,+15.00,+58.00,+15.00,+24.00,+15.00,-2.00,-119.00,+23.00,+70.00,+15.00,-14.00
+7.00,+12.00,+0.00,+11.00,+113.00,-1.00,-10.00,+13.00,-7.00,+2.00,+7.00,+37.00,+16.00,-13.00,+38.00,+1.00
+53.00,+16.00,-1.00,-12.00,-15.00,-55.00,+98.00,+20.00,-37.00,+6.00,-1.00,+127.00,+127.00,-28.00,+42.00,+7.00
-1.00,-13.00,+0.00,+20.00,+94.00,+10.00,+59.00,-18.00,+8.00,-19.00,-6.00,+1.00,-31.00,-46.00,+26.00,+3.00
+38.00,-1.00,-6.00,-12.00,+31.00,-115.00,-65.00,-3.00,+16.00,-4.00,+0.00,-88.00,-63.00,-19.00,+127.00,-4.00
-25.00,-13.00,-2.00,+16.00,+127.00,+37.00,-14.00,-20.00,+26.00,+17.00,+17.00,+127.00,+5.00,-38.00,+38.00,+5.00
-17.00,-14.00,+1.00,-2.00,+127.00,+50.00,-20.00,-10.00,+5.00,+14.00,-2.00,-108.00,+82.00,-25.00,+113.00,-11.00
-8.00,-4.00,-1.00,+19.00,-7.00,+25.00,-67.00,+0.00,+15.00,+4.00,+5.00,+49.00,+36.00,+2.00,+27.00,+22.00
+28.00,+21.00,+10.00,+25.00,+29.00,+38.00,+54.00,+0.00,-54.00,-15.00,-1.00,+14.00,+60.00,+39.00,+52.00,-9.00
+27.00,-29.00,+9.00,+30.00,+86.00,+47.00,+12.00,+8.00,-48.00,+2.00,+6.00,+107.00,+82.00,+17.00,+60.00,-11.00
+3.00,+11.00,+0.00,-14.00,-119.00,-28.00,-23.00,-10.00,+21.00,-3.00,-2.00,-25.00,+10.00,-93.00,-7.00,+24.00
+12.00,+9.00,-3.00,-38.00,-128.00,-17.00,+31.00,-17.00,-27.00,-9.00,-9.00,+6.00,+42.00,-40.00,-12.00,-9.00
-27.00,+1.00,-5.00,-6.00,-36.00,+7.00,-58.00,-8.00,+0.00,-18.00,-8.00,-60.00,-72.00,-5.00,+7.00,-22.00
+1.00,+1.00,+4.00,+14.00,+75.00,-6.00,+12.00,+12.00,+64.00,+41.00,+20.00,+37.00,-46.00,-32.00,-53.00,+31.00
-49.00,-7.00,-2.00,-18.00,-112.00,-1.00,-37.00,-6.00,-36.00,+4.00,+3.00,+104.00,-4.00,-8.00,+6.00,-57.00
+11.00,-12.00,+5.00,-6.00,+29.00,-30.00,+74.00,+10.00,-12.00,+4.00,+8.00,+48.00,-14.00,+35.00,+41.00,+11.00
+29.00,+17.00,-5.00,-9.00,-19.00,+27.00,+29.00,+7.00,-25.00,-15.00,-12.00,-32.00,-81.00,-117.00,-43.00,+38.00
-16.00,-11.00,-9.00,-16.00,-76.00,-18.00,-5.00,-10.00,+18.00,-10.00,-9.00,-59.00,+55.00,+88.00,+1.00,-4.00
+4.00,-13.00,-10.00,-33.00,-106.00,-22.00,+46.00,+4.00,+6.00,+6.00,+11.00,+28.00,-8.00,-39.00,-79.00,+14.00
-10.00,+6.00,+1.00,+25.00,+55.00,+26.00,-109.00,-8.00,+15.00,+2.00,+8.00,+116.00,-88.00,-33.00,-93.00,+0.00
+3.00,-2.00,-3.00,+6.00,+57.00,+10.00,-56.00,+26.00,+22.00,+10.00,+2.00,+22.00,-23.00,+97.00,+31.00,-4.00
+5.00,+12.00,-3.00,+8.00,-1.00,-58.00,-68.00,-39.00,+4.00,-17.00,-12.00,-128.00,-99.00,-106.00,-27.00,+7.00
-44.00,-34.00,-1.00,-8.00,-40.00,+68.00,-9.00,+6.00,+7.00,+8.00,+11.00,+91.00,-28.00,+53.00,-72.00,-10.00
+20.00,-7.00,-11.00,-23.00,-12.00,-13.00,-8.00,+1.00,-8.00,-8.00,-7.00,+24.00,+90.00,+51.00,+50.00,+11.00
-53.00,-6.00,-6.00,-15.00,-50.00,+41.00,+56.00,+8.00,-6.00,-2.00,-1.00,-46.00,+51.00,-33.00,-38.00,-10.00
+14.00,+5.00,+0.00,+14.00,+84.00,+24.00,-16.00,+8.00,-7.00,+2.00,+1.00,+39.00,-58.00,+28.00,+7.00,+7.00
+2.00,+16.00,-4.00,+3.00,-1.00,-12.00,+35.00,-6.00,+4.00,-4.00,-6.00,-19.00,-74.00,+48.00,+48.00,-12.00
+32.00,-18.00,+7.00,-1.00,-73.00,+2.00,-20.00,+21.00,-50.00,-14.00,-5.00,-107.00,-102.00,-62.00,-74.00,-24.00
+13.00,-12.00,-6.00,-26.00,-128.00,-44.00,-68.00,-2.00,+61.00,+21.00,+2.00,+108.00,+125.00,-17.00,+61.00,+43.00
-23.00,+9.00,-5.00,-11.00,+11.00,-2.00,+13.00,-9.00,-9.00,-6.00,-4.00,+3.00,-128.00,+62.00,+53.00,+20.00
-39.00,-18.00,+8.00,+21.00,+126.00,-35.00,-101.00,-16.00,-3.00,+0.00,-6.00,-50.00,-78.00,+28.00,+49.00,-2.00
-14.00,+3.00,-8.00,-30.00,-128.00,-18.00,-21.00,-14.00,+30.00,+0.00,-11.00,-39.00,+67.00,-23.00,-4.00,-30.00
+75.00,+6.00,-7.00,-4.00,-2.00,+27.00,+85.00,+18.00,-35.00,-11.00,+3.00,-16.00,-81.00,-60.00,-66.00,+2.00
+11.00,+10.00,+7.00,+15.00,+10.00,+17.00,-7.00,-13.00,-86.00,-26.00,-2.00,+45.00,+5.00,+14.00,+40.00,-43.00
+33.00,+8.00,-2.00,+0.00,-32.00,+21.00,+0.00,-22.00,+90.00,+14.00,+8.00,-18.00,+30.00,-50.00,-99.00,+21.00
-28.00,+6.00,+6.00,+8.00,+41.00,+34.00,-54.00,+3.00,-47.00,-1.00,+1.00,-28.00,+104.00,+20.00,+25.00,+4.00
-2.00,-3.00,+0.00,+3.00,-22.00,+8.00,-50.00,-5.00,+37.00,+6.00,+2.00,+114.00,+29.00,-38.00,+30.00,-8.00
-37.00,-6.00,-1.00,-7.00,-77.00,+18.00,-5.00,-20.00,-14.00,-1.00,-4.00,-34.00,-7.00,-51.00,+9.00,+0.00
-27.00,-1.00,-1.00,+13.00,+6.00,-26.00,+57.00,-9.00,-14.00,-12.00,-5.00,-10.00,+106.00,-11.00,-23.00,-5.00
+18.00,-6.00,-8.00,+1.00,-27.00,+35.00,-81.00,-28.00,+2.00,-5.00,-6.00,-47.00,-73.00,+30.00,+53.00,-19.00
-53.00,-3.00,-4.00,-1.00,+63.00,-26.00,-57.00,-10.00,+5.00,-1.00,+2.00,+13.00,+11.00,+38.00,-48.00,-16.00
+28.00,-5.00,-7.00,-7.00,-21.00,+22.00,-100.00,-9.00,+18.00,-2.00,+3.00,-13.00,+21.00,+10.00,+18.00,+4.00
+35.00,+4.00,-6.00,-14.00,-67.00,-7.00,-26.00,-9.00,-41.00,+1.00,+0.00,+49.00,-87.00,-9.00,+80.00,+7.00
-25.00,+14.00,+1.00,-5.00,+49.00,-14.00,-2.00,+15.00,+66.00,+12.00,+0.00,+40.00,+4.00,-45.00,-2.00,+14.00
+64.00,+17.00,+14.00,+28.00,+97.00,+14.00,+54.00,+2.00,-16.00,-2.00,-2.00,-15.00,-89.00,+118.00,+15.00,+5.00
-5.00,+1.00,-4.00,-25.00,-128.00,-65.00,-55.00,-5.00,-1.00,+1.00,-2.00,-8.00,+31.00,-81.00,-48.00,-16.00
-8.00,+0.00,+0.00,+11.00,+123.00,+14.00,+120.00,+15.00,+7.00,-7.00,+2.00,+88.00,-4.00,+19.00,-45.00,+8.00
+57.00,-6.00,-3.00,-6.00,-75.00,+18.00,+23.00,-5.00,+6.00,+6.00,+8.00,+46.00,+62.00,+42.00,-68.00,+8.00
+13.00,+2.00,+0.00,-1.00,+57.00,+2.00,-6.00,+4.00,-19.00,-5.00,-5.00,-9.00,+80.00,+76.00,+55.00,-12.00
+15.00,+6.00,+2.00,+9.00,+25.00,+0.00,+39.00,+17.00,+5.00,-12.00,-7.00,+1.00,-80.00,-55.00,-81.00,+8.00
+13.00,+8.00,+0.00,-6.00,-70.00,+11.00,-39.00,+0.00,-12.00,+5.00,-6.00,-106.00,+10.00,+1.00,+17.00,+3.00
-29.00,-6.00,-2.00,+4.00,+85.00,+19.00,+20.00,+0.00,+61.00,+26.00,+9.00,+18.00,+36.00,+31.00,+24.00,+6.00
-7.00,-13.00,-6.00,-19.00,-117.00,-61.00,-14.00,-7.00,+12.00,-10.00,+12.00,+58.00,+37.00,+10.00,-57.00,+9.00
-28.00,-11.00,+2.00,+7.00,+70.00,-13.00,+41.00,-1.00,-2.00,-5.00,-6.00,-7.00,-34.00,+44.00,+11.00,-14.00
+0.00,+4.00,+2.00,+4.00,+53.00,-5.00,+0.00,+8.00,-26.00,+4.00,+5.00,+69.00,-50.00,-3.00,-32.00,+3.00
-3.00,-1.00,-10.00,-27.00,-125.00,-20.00,+2.00,+0.00,-6.00,-18.00,-7.00,+50.00,-65.00,-45.00,+24.00,+8.00
+0.00,+1.00,+0.00,-10.00,-117.00,-5.00,+48.00,+2.00,-35.00,-5.00,-18.00,-121.00,-100.00,+1.00,-128.00,-14.00
+22.00,+4.00,-2.00,+20.00,+67.00,+66.00,+76.00,-2.00,+24.00,+6.00,-4.00,-51.00,+33.00,-38.00,+115.00,-3.00
-10.00,-19.00,-3.00,+13.00,+80.00,-43.00,-83.00,-14.00,-1.00,-11.00,-5.00,-39.00,+36.00,+28.00,-21.00,-15.00
-15.00,-23.00,+15.00,+33.00,-4.00,-24.00,+45.00,+26.00,+5.00,+1.00,+3.00,+26.00,-100.00,+106.00,-24.00,+11.00
-33.00,-25.00,-1.00,-5.00,-11.00,-3.00,+18.00,-8.00,-13.00,-2.00,+5.00,-7.00,-79.00,-89.00,-6.00,-3.00
+6.00,+18.00,-2.00,-19.00,-76.00,-54.00,-15.00,-13.00,+44.00,+26.00,+3.00,+39.00,+31.00,+64.00,-62.00,+14.00
-2.00,-2.00,-2.00,-5.00,-28.00,-14.00,-50.00,+12.00,-10.00,+1.00,-7.00,-81.00,+87.00,-25.00,-58.00,-6.00
+0.00,-17.00,-15.00,-26.00,-115.00,-28.00,-37.00,-23.00,-7.00,-12.00,-8.00,+77.00,-16.00,+19.00,-14.00,-13.00
-37.00,+1.00,-9.00,-8.00,-51.00,-33.00,-33.00,+18.00,-71.00,-12.00,-10.00,-33.00,-27.00,-41.00,+3.00,-17.00
+23.00,-23.00,+0.00,+2.00,+68.00,-71.00,-49.00,+27.00,+64.00,+7.00,+11.00,-13.00,+10.00,-22.00,-35.00,+2.00
-23.00,-4.00,+0.00,+2.00,+16.00,+31.00,-26.00,-16.00,+24.00,+25.00,+48.00,+3.00,-25.00,-10.00,+26.00,+20.00
-13.00,+25.00,+9.00,+12.00,+127.00,+15.00,-52.00,+2.00,-35.00,-14.00,-31.00,+34.00,+16.00,-34.00,-12.00,-11.00
+21.00,-17.00,-2.00,-2.00,+28.00,-15.00,-72.00,-26.00,+46.00,-26.00,-23.00,+44.00,-9.00,+10.00,-7.00,-8.00
+26.00,+9.00,+3.00,+5.00,+58.00,+4.00,+9.00,+25.00,-74.00,+21.00,-2.00,-20.00,+33.00,+14.00,+18.00,-8.00
+10.00,+7.00,-2.00,-19.00,-102.00,+15.00,+16.00,-8.00,+28.00,-1.00,-12.00,-22.00,-3.00,+1.00,-3.00,-9.00
+13.00,-8.00,-3.00,+10.00,+63.00,-11.00,+31.00,+3.00,-2.00,+7.00,+15.00,+16.00,+20.00,-7.00,+15.00,+2.00
-62.00,-4.00,-5.00,-17.00,-72.00,-29.00,+17.00,-12.00,-25.00,-26.00,-11.00,-32.00,+66.00,+53.00,+13.00,-7.00
-26.00,+7.00,+6.00,+29.00,+31.00,+72.00,-9.00,-2.00,+52.00,+2.00,-12.00,+15.00,-30.00,-22.00,-16.00,-9.00
+19.00,+1.00,-10.00,+12.00,+4.00,+0.00,+23.00,+11.00,+37.00,+5.00,+1.00,-7.00,+6.00,+10.00,+97.00,+16.00
-36.00,-53.00,-29.00,-6.00,-70.00,+3.00,+15.00,-4.00,-24.00,+5.00,+7.00,-35.00,+68.00,-19.00,+4.00,-3.00
+1.00,+25.00,+13.00,-17.00,-42.00,-10.00,+0.00,-12.00,+62.00,+31.00,+17.00,+118.00,+117.00,-41.00,+17.00,+10.00
+16.00,+77.00,+22.00,-11.00,-87.00,-25.00,+23.00,+2.00,-38.00,-28.00,-7.00,-58.00,+23.00,-23.00,-5.00,+6.00
-7.00,-20.00,+19.00,-2.00,-51.00,-10.00,+16.00,+2.00,-34.00,+2.00,+0.00,+2.00,+54.00,+17.00,-13.00,-7.00
-4.00,+70.00,+13.00,+4.00,+37.00,+6.00,+2.00,-1.00,+13.00,+0.00,-4.00,-24.00,+49.00,-19.00,+55.00,+37.00
-10.00,-62.00,-19.00,-3.00,-50.00,-14.00,+15.00,-1.00,-17.00,+6.00,+7.00,+34.00,+23.00,+11.00,+25.00,+38.00
+27.00,+2.00,+2.00,-6.00,+49.00,+21.00,-12.00,+1.00,-18.00,+1.00,+10.00,+9.00,+11.00,+21.00,+3.00,-7.00
-13.00,-6.00,-23.00,-6.00,+30.00,-8.00,-23.00,-6.00,+4.00,-10.00,-10.00,+24.00,-22.00,+2.00,-25.00,-11.00
+15.00,-31.00,-1.00,-6.00,-72.00,-45.00,-15.00,-2.00,-17.00,+4.00,+9.00,-35.00,+1.00,+4.00,-18.00,-13.00
-21.00,+25.00,-3.00,+4.00,+40.00,+89.00,+12.00,-3.00,-10.00,-10.00,+48.00,+28.00,+19.00,+3.00,-16.00,-13.00
-25.00,-51.00,-13.00,-20.00,-90.00,-36.00,+5.00,-20.00,-18.00,+22.00,-77.00,-5.00,-18.00,+21.00,-2.00,-12.00
-22.00,+3.00,+2.00,+18.00,+127.00,+32.00,-16.00,+2.00,-8.00,-17.00,-21.00,-4.00,-22.00,-10.00,-14.00,+3.00
+0.00,+8.00,+0.00,-7.00,-61.00,-28.00,+3.00,+2.00,+7.00,-17.00,-49.00,-22.00,-47.00,-3.00,-13.00,-4.00
+32.00,+6.00,-1.00,+4.00,+17.00,+23.00,+7.00,+17.00,+21.00,+5.00,+9.00,+5.00,+5.00,-5.00,+5.00,+3.00
-21.00,-14.00,-3.00,-3.00,-11.00,+12.00,+15.00,-5.00,+8.00,-8.00,+12.00,+10.00,+0.00,+13.00,-4.00,+1.00
+3.00,+13.00,-1.00,-8.00,-40.00,-30.00,+0.00,-2.00,-6.00,-11.00,+11.00,+4.00,-19.00,-14.00,-8.00,-13.00
+7.00,+1.00,+0.00,-5.00,+7.00,-3.00,+10.00,+20.00,-8.00,-15.00,-2.00,-11.00,-3.00,-4.00,-3.00,-22.00
-14.00,+6.00,-2.00,+9.00,+28.00,-8.00,-8.00,-11.00,+4.00,+8.00,-3.00,+10.00,+0.00,+3.00,-10.00,-24.00
-12.00,-18.00,-26.00,-11.00,-33.00,-6.00,-3.00,-4.00,-24.00,-3.00,+23.00,+15.00,+17.00,+7.00,-7.00,-12.00
+12.00,+12.00,+24.00,-3.00,-11.00,-4.00,+2.00,+2.00,-6.00,+6.00,-3.00,+7.00,-19.00,-2.00,-15.00,+1.00
-2.00,+6.00,+17.00,+0.00,+16.00,+18.00,+6.00,-7.00,+24.00,+6.00,+21.00,-20.00,-28.00,+4.00,-10.00,+6.00
+23.00,+21.00,+23.00,-4.00,+4.00,-5.00,+10.00,+2.00,-5.00,+10.00,-8.00,+30.00,+19.00,+1.00,-9.00,+9.00
-10.00,-18.00,-16.00,-5.00,-18.00,-1.00,+6.00,+1.00,+3.00,+2.00,+21.00,+20.00,+38.00,+13.00,+4.00,+15.00
-6.00,-7.00,-9.00,-6.00,-31.00,+4.00,+5.00,+1.00,-9.00,-8.00,-9.00,-11.00,+4.00,-7.00,-3.00,+0.00
-8.00,+1.00,-10.00,+3.00,+29.00,+12.00,+7.00,-2.00,+24.00,+3.00,+8.00,+19.00,-29.00,+4.00,-5.00,+5.00
-7.00,+2.00,+4.00,-1.00,+0.00,-9.00,-3.00,-4.00,+11.00,+8.00,-10.00,-51.00,+10.00,-4.00,+3.00,-6.00
-14.00,-8.00,-5.00,-6.00,-24.00,-14.00,-3.00,-10.00,+4.00,-14.00,+2.00,+19.00,-11.00,+3.00,+2.00,+1.00
-2.00,-3.00,-6.00,-4.00,-20.00,+7.00,-6.00,-6.00,+7.00,-8.00,-6.00,+19.00,-7.00,+2.00,-4.00,-6.00
+16.00,+6.00,+3.00,+5.00,+22.00,-3.00,+4.00,+2.00,-8.00,+7.00,+3.00,-54.00,-8.00,-4.00,+0.00,+0.00
-2.00,-5.00,-5.00,+3.00,+15.00,-12.00,+1.00,+1.00,+11.00,+7.00,-5.00,+23.00,-11.00,+1.00,+0.00,+8.00
-17.00,-7.00,+1.00,-7.00,-75.00,-8.00,-5.00,+2.00,-15.00,-11.00,+5.00,-11.00,-16.00,+1.00,+0.00,-3.00
+6.00,+2.00,+5.00,-1.00,+8.00,+29.00,+10.00,+13.00,-15.00,+0.00,-3.00,-13.00,-9.00,-2.00,+1.00,+1.00
-11.00,+2.00,-2.00,+3.00,+42.00,+21.00,+2.00,-3.00,-12.00,-1.00,+1.00,+5.00,+4.00,-3.00,-3.00,-6.00
+4.00,+2.00,-6.00,+0.00,-24.00,-1.00,-2.00,-7.00,-12.00,-1.00,+1.00,+0.00,-9.00,-4.00,+2.00,-6.00
+6.00,-2.00,+5.00,+3.00,-7.00,+0.00,+7.00,+2.00,-16.00,-12.00,-3.00,-17.00,-5.00,-2.00,+0.00,-3.00
+9.00,+2.00,-2.00,-9.00,-49.00,-8.00,-5.00,-2.00,-8.00,+1.00,-1.00,-5.00,+2.00,-6.00,+1.00,+1.00
+8.00,+1.00,-3.00,-7.00,-17.00,-7.00,-3.00,-5.00,+10.00,+8.00,+0.00,+7.00,+14.00,+2.00,+2.00,+0.00
+5.00,-1.00,-1.00,+5.00,+36.00,+5.00,+0.00,-2.00,-2.00,+24.00,+15.00,-4.00,-10.00,-3.00,-1.00,-10.00
+2.00,-1.00,+1.00,-6.00,-20.00,-2.00,-3.00,-6.00,+16.00,-13.00,+15.00,-10.00,-7.00,-1.00,+2.00,+5.00
+5.00,+0.00,-3.00,+0.00,+2.00,-7.00,+0.00,+2.00,+10.00,-25.00,-51.00,+7.00,-3.00,-1.00,-4.00,-1.00
+63.00,+5.00,+1.00,+0.00,+6.00,+5.00,+3.00,+2.00,-20.00,+1.00,+1.00,+2.00,+0.00,+0.00,-2.00,-3.00
+46.00,-7.00,-3.00,-3.00,-8.00,-1.00,+0.00,+0.00,-9.00,+13.00,-2.00,-4.00,-4.00,-2.00,-1.00,-7.00
+16.00,-6.00,+0.00,-1.00,+3.00,-2.00,-1.00,+2.00,+7.00,+9.00,+28.00,+1.00,-2.00,+0.00,-2.00,-8.00
-14.00,+1.00,-3.00,-1.00,+4.00,-6.00,+0.00,-1.00,+10.00,-28.00,-36.00,-9.00,-3.00,-3.00,+0.00,+2.00
-21.00,+5.00,+3.00,+1.00,+15.00,+6.00,+1.00,+0.00,+20.00,-8.00,-7.00,-3.00,+0.00,-2.00,+0.00,+6.00
-28.00,-4.00,-4.00,-4.00,-20.00,-8.00,-5.00,-3.00,-17.00,-3.00,-8.00,-1.00,-2.00,-3.00,-1.00,+5.00
-25.00,-9.00,-9.00,+5.00,+16.00,-2.00,-1.00,-2.00,-23.00,+3.00,-2.00,-1.00,+5.00,-1.00,+0.00,+2.00
-11.00,+0.00,+0.00,+0.00,+16.00,+0.00,+3.00,+4.00,-4.00,+16.00,+24.00,+11.00,-7.00,+2.00,+3.00,+3.00
-20.00,+27.00,+27.00,-6.00,-23.00,-5.00,-3.00,-2.00,+0.00,+2.00,-1.00,-4.00,+0.00,+0.00,-2.00,-7.00
-24.00,+1.00,-1.00,-1.00,-1.00,-3.00,+1.00,-1.00,-7.00,-3.00,-2.00,+2.00,-4.00,+0.00,-1.00,-9.00
+2.00,-10.00,-5.00,+2.00,+13.00,+5.00,+1.00,+0.00,+5.00,-13.00,+13.00,-2.00,-2.00,+2.00,-1.00,-1.00
+3.00,-11.00,-12.00,-2.00,-6.00,-1.00,-1.00,-3.00,+7.00,+35.00,+53.00,+8.00,+2.00,+3.00,+0.00,+0.00
-1.00,-2.00,+12.00,-6.00,-8.00,-1.00,-2.00,-4.00,+9.00,+47.00,+55.00,+0.00,-1.00,-1.00,-3.00,-3.00
-4.00,-10.00,+0.00,+1.00,-1.00,-3.00,+0.00,-2.00,+30.00,-38.00,-61.00,-13.00,-6.00,-5.00,+1.00,-1.00
-12.00,-18.00,+0.00,+1.00,+14.00,+2.00,+2.00,-2.00,-34.00,-37.00,-13.00,-6.00,-3.00,-3.00,-4.00,-7.00
+21.00,+48.00,-6.00,-1.00,-13.00,-6.00,+0.00,-3.00,-24.00,+0.00,+19.00,+0.00,+0.00,-3.00,-1.00,+2.00
+14.00,-17.00,-7.00,+2.00,-1.00,+1.00,+3.00,+2.00,+13.00,+10.00,+35.00,+4.00,+2.00,-1.00,-2.00,-2.00
-3.00,-9.00,+1.00,+1.00,+10.00,+1.00,-1.00,-3.00,+13.00,-23.00,-29.00,+0.00,-2.00,+1.00,+1.00,+5.00
+21.00,-16.00,-6.00,-4.00,-7.00,-2.00,-4.00,-3.00,+17.00,-2.00,-29.00,-13.00,-9.00,-5.00,-2.00,-1.00
+6.00,-57.00,-21.00,+0.00,+3.00,-1.00,+0.00,-1.00,-10.00,+4.00,-11.00,+1.00,-1.00,-1.00,-4.00,-1.00
-16.00,-1.00,-54.00,+4.00,+0.00,-3.00,-1.00,-5.00,+2.00,+30.00,-5.00,-2.00,-2.00,-3.00,-2.00,+5.00
-8.00,-14.00,-4.00,-10.00,-6.00,-4.00,-2.00,-1.00,-39.00,+15.00,+26.00,+1.00,+1.00,-1.00,-1.00,-7.00
-26.00,-26.00,+45.00,-7.00,-2.00,-4.00,+1.00,-2.00,+1.00,-26.00,-20.00,+3.00,-5.00,-1.00,-1.00,-1.00
+15.00,+97.00,+5.00,+2.00,-2.00,-5.00,+0.00,+1.00,-21.00,+1.00,+11.00,+3.00,+6.00,-1.00,-2.00,-4.00
-2.00,-17.00,+6.00,+9.00,+6.00,+0.00,+3.00,+3.00,-17.00,-11.00,-11.00,+3.00,-3.00,-1.00,+2.00,+4.00
-7.00,-8.00,-25.00,+2.00,-3.00,-2.00,-1.00,-3.00,+53.00,+8.00,+1.00,+2.00,+25.00,-3.00,-2.00,+7.00
-6.00,+6.00,+9.00,-8.00,-4.00,-2.00,+0.00,+2.00,+7.00,+49.00,+14.00,+9.00,-3.00,-1.00,-2.00,-7.00
-20.00,-95.00,+33.00,+1.00,+3.00,+0.00,-1.00,-1.00,+0.00,+1.00,+2.00,-10.00,-13.00,+1.00,-2.00,-3.00
-44.00,+35.00,-12.00,-7.00,-10.00,-1.00,-6.00,-10.00,-41.00,-46.00,-28.00,-8.00,-30.00,-4.00,-5.00,-3.00
+8.00,-35.00,-13.00,-2.00,-3.00,+0.00,-4.00,-4.00,+37.00,+23.00,+12.00,-6.00,-2.00,-2.00,-4.00,+4.00
+23.00,-49.00,+3.00,+6.00,+4.00,+5.00,+6.00,+11.00,-39.00,-6.00,+6.00,+6.00,-3.00,+2.00,+0.00,+0.00
+9.00,+122.00,+10.00,+0.00,+0.00,+2.00,+1.00,-2.00,-47.00,-11.00,-15.00,+3.00,+8.00,+0.00,-3.00,-9.00
-2.00,-27.00,-9.00,-6.00,-14.00,+14.00,-5.00,-4.00,+19.00,-26.00,-16.00,-3.00,+6.00,+0.00,-1.00,+8.00
+31.00,-15.00,+7.00,+5.00,-5.00,-4.00,+2.00,+4.00,-28.00,+1.00,+15.00,+5.00,-11.00,-1.00,-3.00,-7.00
-16.00,+62.00,-13.00,+2.00,+10.00,-2.00,-1.00,-5.00,+102.00,+26.00,-2.00,-7.00,+0.00,-3.00,-7.00,+3.00
-32.00,-118.00,-23.00,-4.00,-10.00,-5.00,-2.00,-4.00,-79.00,-74.00,-20.00,+0.00,-4.00,+2.00,+4.00,-3.00
+41.00,+97.00,+20.00,+3.00,-19.00,-2.00,+4.00,+11.00,-17.00,+42.00,+12.00,+1.00,+8.00,+0.00,-1.00,-9.00
-11.00,-38.00,+2.00,-3.00,+16.00,+5.00,-3.00,-3.00,+92.00,-31.00,-8.00,-6.00,-6.00,+0.00,+2.00,+8.00
-16.00,-46.00,-16.00,-2.00,-9.00,-1.00,-2.00,-5.00,-95.00,+16.00,-5.00,-2.00,+2.00,+2.00,+5.00,+1.00
+8.00,+63.00,+4.00,+2.00,+1.00,-1.00,+0.00,+2.00,+14.00,+52.00,+14.00,-3.00,+2.00,-3.00,+1.00,-3.00
-11.00,-71.00,+15.00,-2.00,-2.00,-2.00,+3.00,+3.00,+33.00,-58.00,-18.00,-3.00,+1.00,+0.00,+2.00,+3.00
-31.00,-86.00,-5.00,-4.00,-11.00,-1.00,-1.00,-5.00,-8.00,+30.00,+15.00,+2.00,-4.00,-1.00,-3.00,-3.00
+20.00,+39.00,+3.00,+3.00,+1.00,-3.00,+1.00,+5.00,+19.00,-19.00,-6.00,-4.00,-10.00,-2.00,-1.00,+1.00
-53.00,-86.00,-19.00,-4.00,-4.00,-3.00,-7.00,-15.00,+38.00,-3.00,+1.00,+1.00,+7.00,-3.00,-4.00,-1.00
+65.00,+35.00,+35.00,+2.00,+11.00,-2.00,+2.00,+6.00,-31.00,-8.00,+4.00,+14.00,+47.00,-2.00,+0.00,-4.00
-20.00,-60.00,-25.00,+3.00,+1.00,+2.00,+3.00,+2.00,-26.00,+5.00,+5.00,-12.00,-19.00,-2.00,-2.00,-3.00
+25.00,-45.00,+11.00,-7.00,+3.00,+0.00,-3.00,-4.00,-13.00,-14.00,-4.00,+7.00,-18.00,-1.00,-1.00,+0.00
+26.00,+103.00,+12.00,+3.00,+3.00,+3.00,+4.00,+7.00,+89.00,+49.00,+3.00,-7.00,+1.00,-1.00,-2.00,+13.00
-9.00,-62.00,-30.00,-3.00,+2.00,-1.00,-4.00,-7.00,-16.00,-11.00,-7.00,-21.00,-7.00,-3.00,-4.00,-6.00
+12.00,+78.00,+27.00,+2.00,+3.00,-1.00,+2.00,+6.00,-37.00,-6.00,-1.00,+3.00,-7.00,+2.00,+1.00,+5.00
-15.00,+16.00,-20.00,-3.00,-7.00,-3.00,-2.00,-4.00,-23.00,+0.00,+0.00,+1.00,+19.00,-1.00,-3.00,-5.00
+9.00,-98.00,-3.00,-3.00,-4.00,-3.00,-2.00,+0.00,+29.00,-13.00,-2.00,+11.00,-5.00,-1.00,-2.00,-3.00
-5.00,+58.00,+5.00,+2.00,+6.00,-6.00,-1.00,+0.00,+1.00,+3.00,-4.00,+1.00,-3.00,+1.00,+0.00,+2.00
+6.00,+82.00,-6.00,-5.00,-31.00,-1.00,-3.00,-1.00,-4.00,+1.00,-6.00,+6.00,+7.00,+0.00,+2.00,-2.00
-4.00,+4.00,-4.00,+5.00,+43.00,+0.00,+0.00,-1.00,+24.00,+1.00,-1.00,-5.00,-10.00,-2.00,+0.00,+7.00
+15.00,-16.00,+5.00,-2.00,-20.00,-1.00,+0.00,+1.00,-29.00,-1.00,+0.00,-1.00,-3.00,-1.00,+2.00,+2.00
-56.00,-48.00,-20.00,-8.00,+2.00,-5.00,-6.00,-11.00,+13.00,-13.00,-6.00,-3.00,-6.00,+2.00,+0.00,+3.00
+51.00,+59.00,+16.00,+7.00,+42.00,+7.00,-1.00,+7.00,-58.00,-27.00,-2.00,+2.00,-2.00,-3.00,-5.00,-16.00
+2.00,-10.00,+4.00,+2.00,-6.00,+0.00,+2.00,+2.00,+0.00,+30.00,+15.00,+1.00,+5.00,-2.00,+1.00,-2.00
+7.00,+78.00,+4.00,+0.00,+3.00,-1.00,+0.00,-1.00,+11.00,-25.00,-32.00,-12.00,-4.00,-6.00,+0.00,+12.00
-8.00,-5.00,-12.00,-4.00,-9.00,+0.00,-2.00,-3.00,-20.00,+3.00,-4.00,+1.00,-6.00,-2.00,+0.00,-1.00
-27.00,-62.00,+3.00,-3.00,-12.00,-1.00,-1.00,-6.00,+4.00,-21.00,-8.00,+0.00,-1.00,-4.00,-1.00,-8.00
