-3.00,-2.00,-1.00,-2.00,-1.00,-2.00,+0.00,-2.00,+0.00,+0.00,-1.00,+2.00,+1.00,-2.00,-1.00,-1.00
-4.00,-2.00,-1.00,-2.00,-1.00,-1.00,-2.00,+1.00,+0.00,-1.00,-2.00,+1.00,-1.00,+0.00,-2.00,-1.00
+4.00,+4.00,+0.00,+0.00,-2.00,+0.00,-2.00,-1.00,+0.00,+0.00,+0.00,-1.00,-2.00,-1.00,-1.00,+0.00
-3.00,-3.00,-2.00,-1.00,-1.00,+0.00,-1.00,-2.00,+0.00,+0.00,-1.00,-1.00,-1.00,+0.00,-1.00,+2.00
+3.00,+2.00,+1.00,-3.00,-1.00,-1.00,-1.00,+1.00,-1.00,-2.00,-2.00,-1.00,-1.00,-3.00,-1.00,-1.00
-4.00,-1.00,-2.00,+0.00,+0.00,-1.00,-1.00,+0.00,-1.00,-1.00,-1.00,+0.00,+1.00,-2.00,-3.00,+0.00
-4.00,-3.00,+1.00,-1.00,+0.00,-2.00,-2.00,-3.00,+0.00,+0.00,+0.00,+0.00,-1.00,-1.00,+2.00,-1.00
+1.00,-4.00,+0.00,+0.00,-1.00,-1.00,-2.00,-1.00,+0.00,-3.00,-1.00,-1.00,-1.00,+0.00,+0.00,+0.00
-4.00,-3.00,-3.00,-2.00,+0.00,-1.00,-2.00,-1.00,-2.00,-4.00,+0.00,+0.00,-2.00,-1.00,+0.00,-1.00
-2.00,+1.00,-1.00,+1.00,+0.00,-3.00,+1.00,+0.00,-2.00,-3.00,+0.00,-1.00,+0.00,-1.00,-1.00,-3.00
-3.00,+0.00,-2.00,-2.00,-1.00,-1.00,-1.00,-1.00,-2.00,+1.00,-1.00,+0.00,-2.00,-2.00,-3.00,-1.00
+6.00,-1.00,-3.00,-1.00,+0.00,-2.00,+1.00,-1.00,-2.00,-3.00,-1.00,+1.00,+0.00,-2.00,+0.00,+0.00
-4.00,-1.00,-4.00,-1.00,-3.00,-1.00,-1.00,-5.00,+0.00,+4.00,-1.00,+4.00,+9.00,+0.00,+0.00,+1.00
-1.00,+3.00,+0.00,+0.00,+2.00,-2.00,-1.00,+0.00,-5.00,-6.00,-4.00,-4.00,-15.00,-2.00,-3.00,-1.00
-6.00,-2.00,-1.00,-3.00,-2.00,+0.00,+0.00,+0.00,+1.00,+3.00,+1.00,-3.00,-7.00,-3.00,+0.00,-2.00
-7.00,-2.00,-1.00,-2.00,+1.00,+0.00,-1.00,-1.00,-20.00,+0.00,+1.00,-3.00,+13.00,-1.00,-3.00,-2.00
-1.00,-2.00,-3.00,-3.00,-4.00,-3.00,-3.00,-2.00,-8.00,-2.00,-3.00,+21.00,+15.00,-1.00,-1.00,-3.00
-5.00,-4.00,-1.00,-1.00,-2.00,-1.00,+2.00,-4.00,+1.00,+2.00,-2.00,-27.00,+1.00,+1.00,+3.00,+3.00
+5.00,+0.00,+3.00,+2.00,-1.00,-2.00,+0.00,+0.00,+6.00,-3.00,-3.00,-2.00,-2.00,-1.00,-2.00,-2.00
-1.00,-1.00,+3.00,+3.00,+5.00,+1.00,-1.00,-1.00,+3.00,-3.00,+0.00,-4.00,-9.00,-2.00,-1.00,-2.00
-5.00,-4.00,+0.00,-1.00,+1.00,+0.00,-2.00,-2.00,-4.00,-3.00,+2.00,-7.00,-6.00,-2.00,-1.00,-1.00
+3.00,+4.00,-6.00,+5.00,-18.00,-1.00,-1.00,-2.00,-3.00,-3.00,-3.00,+18.00,+0.00,-2.00,-4.00,-1.00
-3.00,-6.00,-12.00,-15.00,+3.00,-6.00,-2.00,-3.00,+5.00,-5.00,+2.00,+3.00,+32.00,+3.00,+0.00,+0.00
+4.00,-2.00,+7.00,-1.00,+13.00,+9.00,+1.00,+1.00,+5.00,+5.00,-4.00,-18.00,-4.00,-4.00,-2.00,-4.00
-3.00,+0.00,+7.00,+3.00,+6.00,+1.00,+2.00,+2.00,-2.00,-2.00,-1.00,+0.00,-3.00,+1.00,+0.00,-1.00
-3.00,-6.00,-11.00,+1.00,-9.00,-4.00,-2.00,-2.00,+7.00,+5.00,+1.00,-1.00,-3.00,-2.00,+0.00,-2.00
-4.00,-3.00,-4.00,-3.00,-32.00,-1.00,-2.00,-2.00,+4.00,+1.00,-3.00,+2.00,-14.00,-2.00,-1.00,-2.00
+0.00,-1.00,-1.00,-3.00,+23.00,-4.00,-1.00,-1.00,+3.00,-3.00,-2.00,+10.00,+14.00,+1.00,-2.00,-2.00
+6.00,+3.00,+3.00,+8.00,+0.00,+2.00,-1.00,+2.00,-2.00,-1.00,+0.00,-7.00,-2.00,-1.00,-2.00,-5.00
+2.00,-9.00,+10.00,-11.00,+4.00,-4.00,-1.00,+1.00,-8.00,-3.00,+1.00,+2.00,-1.00,-1.00,-1.00,-4.00
+3.00,+3.00,-7.00,-3.00,-21.00,-2.00,+2.00,-1.00,-10.00,-2.00,-1.00,+6.00,+0.00,-2.00,-1.00,+0.00
-6.00,-3.00,-6.00,-9.00,-51.00,-10.00,-3.00,-2.00,+19.00,-2.00,+0.00,+13.00,+0.00,+1.00,-1.00,+0.00
-5.00,-13.00,-5.00,-3.00,+26.00,+4.00,-1.00,-3.00,-1.00,-3.00,-1.00,-31.00,-18.00,-2.00,+1.00,+0.00
-1.00,+10.00,+2.00,+4.00,+20.00,+2.00,-3.00,-6.00,+4.00,+0.00,+0.00,-3.00,+5.00,-3.00,-1.00,+1.00
-3.00,+5.00,+6.00,+8.00,+22.00,+5.00,+1.00,+2.00,-4.00,-3.00,-1.00,+10.00,-1.00,-1.00,-1.00,-3.00
+10.00,+3.00,+7.00,+1.00,+2.00,+1.00,-1.00,+2.00,+7.00,+4.00,-2.00,-18.00,-6.00,-1.00,-2.00,+0.00
-1.00,+4.00,-5.00,-1.00,-23.00,-6.00,+2.00,-1.00,-8.00,-3.00,-2.00,+4.00,+2.00,+2.00,+0.00,-1.00
-7.00,-11.00,-3.00,+4.00,-10.00,-2.00,+0.00,-1.00,-13.00,-16.00,-6.00,-1.00,-15.00,-2.00,+0.00,-2.00
+4.00,-3.00,+0.00,-12.00,+2.00,+0.00,-2.00,-2.00,-17.00,+5.00,-1.00,+17.00,+2.00,+1.00,-3.00,-3.00
-4.00,+2.00,-1.00,+4.00,+2.00,+0.00,+0.00,-1.00,-20.00,+7.00,+1.00,-15.00,-17.00,-3.00,-5.00,-6.00
-1.00,-5.00,-3.00,-2.00,-21.00,-3.00,-3.00,-2.00,+17.00,+16.00,+5.00,-2.00,+7.00,-2.00,+1.00,+13.00
+8.00,+2.00,+1.00,+2.00,+2.00,+2.00,+1.00,+3.00,-12.00,-12.00,+1.00,-6.00,-10.00,-4.00,+0.00,-2.00
-5.00,+4.00,+3.00,+4.00,+13.00,+2.00,+1.00,-1.00,+5.00,+0.00,-2.00,+1.00,+14.00,-2.00,-1.00,+2.00
-3.00,-4.00,-9.00,-4.00,-6.00,-5.00,-2.00,-2.00,-36.00,-25.00,-4.00,-25.00,-9.00,+0.00,+1.00,-6.00
-8.00,-13.00,-5.00,-8.00,-19.00,-3.00,-2.00,-3.00,+24.00,+1.00,-6.00,+1.00,-7.00,-1.00,-1.00,+6.00
+1.00,+14.00,-8.00,-9.00,+8.00,+2.00,-2.00,-5.00,-12.00,+9.00,-6.00,+19.00,-12.00,+1.00,-1.00,+0.00
+0.00,-60.00,+10.00,+11.00,+7.00,+0.00,+2.00,+3.00,+22.00,-13.00,+0.00,+32.00,-19.00,-1.00,-1.00,+2.00
+4.00,+28.00,+2.00,+0.00,-17.00,-4.00,-1.00,+0.00,+11.00,+31.00,+1.00,-14.00,+1.00,+1.00,+2.00,+1.00
+0.00,-5.00,-3.00,+5.00,+29.00,+6.00,+2.00,+0.00,-22.00,+3.00,-8.00,-5.00,+9.00,-1.00,-3.00,-8.00
-27.00,+25.00,-5.00,-2.00,+4.00,+0.00,-3.00,-4.00,+19.00,+3.00,+0.00,-32.00,-2.00,-3.00,-3.00,+0.00
+16.00,+60.00,+11.00,+0.00,+17.00,+14.00,+2.00,+7.00,+7.00,-22.00,-10.00,-14.00,-16.00,-3.00,+1.00,+0.00
-1.00,-70.00,-9.00,+0.00,+42.00,-2.00,+2.00,+2.00,-24.00,-28.00,+0.00,+5.00,+9.00,+2.00,+1.00,-3.00
+12.00,+65.00,+3.00,-4.00,-34.00,+2.00,+1.00,-3.00,+33.00,+51.00,+3.00,+37.00,-18.00,+0.00,+1.00,-3.00
-20.00,-83.00,-8.00,+0.00,+2.00,-4.00,-1.00,+0.00,+9.00,+15.00,+4.00,+6.00,+34.00,+0.00,-1.00,+2.00
-17.00,-47.00,-13.00,-1.00,-2.00,-5.00,-3.00,-7.00,+1.00,+14.00,+1.00,-22.00,-6.00,-1.00,-1.00,-3.00
+20.00,+110.00,+7.00,-4.00,-36.00,-4.00,-1.00,+2.00,+6.00,-19.00,-1.00,+14.00,-13.00,-3.00,+0.00,+1.00
-15.00,-22.00,-3.00,+2.00,+3.00,-11.00,-4.00,-2.00,-31.00,-29.00,-3.00,-10.00,+8.00,+0.00,-1.00,-7.00
+27.00,-5.00,+1.00,-5.00,-17.00,-2.00,+0.00,+4.00,-12.00,-6.00,-2.00,+9.00,+4.00,+1.00,+0.00,-2.00
+14.00,+54.00,+18.00,+14.00,+46.00,+7.00,+1.00,-1.00,+21.00,+11.00,+3.00,-7.00,+12.00,+2.00,-1.00,-3.00
-10.00,-65.00,-19.00,+0.00,+24.00,+11.00,-1.00,-5.00,-17.00,-6.00,-1.00,+3.00,+11.00,+0.00,+0.00,+1.00
-11.00,-9.00,+1.00,-4.00,+10.00,+0.00,-2.00,-6.00,-19.00,-12.00,-3.00,+3.00,-11.00,-2.00,+0.00,-3.00
+16.00,+71.00,+6.00,-3.00,-8.00,+3.00,-1.00,+1.00,+18.00,-5.00,+1.00,+8.00,+18.00,-1.00,+3.00,+3.00
-13.00,-37.00,-1.00,-5.00,-15.00,-9.00,+1.00,+0.00,-18.00,-11.00,-1.00,-20.00,-40.00,-4.00,-3.00,-5.00
-21.00,-16.00,+2.00,+5.00,-13.00,+1.00,-2.00,-4.00,+17.00,+13.00,+1.00,+21.00,+25.00,+0.00,+1.00,+7.00
-4.00,-97.00,-6.00,-3.00,+10.00,+1.00,-2.00,+0.00,+1.00,-9.00,+3.00,-12.00,-20.00,+3.00,-1.00,-1.00
+3.00,+80.00,+2.00,-7.00,-13.00,-2.00,-1.00,-2.00,+4.00,-13.00,-6.00,-15.00,+21.00,+1.00,-3.00,-4.00
+3.00,-7.00,-8.00,-3.00,-34.00,-12.00,-4.00,-2.00,-37.00,-29.00,-4.00,-21.00,+11.00,-2.00,-1.00,-2.00
-16.00,-29.00,-5.00,-3.00,-7.00,+4.00,-1.00,-3.00,+68.00,+46.00,+6.00,+18.00,-45.00,-4.00,-4.00,-2.00
-11.00,+14.00,+2.00,+2.00,+4.00,+0.00,-2.00,-2.00,-6.00,-4.00,+0.00,-11.00,+50.00,+0.00,-2.00,+0.00
+17.00,-26.00,+3.00,+0.00,-4.00,-3.00,+4.00,+3.00,+15.00,+4.00,-3.00,+16.00,+27.00,-1.00,-1.00,+6.00
-5.00,+8.00,-10.00,-3.00,-4.00,-2.00,-4.00,-3.00,+6.00,-2.00,+0.00,+10.00,+23.00,+7.00,-1.00,+2.00
+1.00,+31.00,+2.00,-1.00,-11.00,-8.00,-3.00,-2.00,-49.00,+1.00,+7.00,+38.00,-45.00,-12.00,+32.00,+8.00
+13.00,+6.00,-4.00,-4.00,+19.00,+1.00,+0.00,+1.00,+14.00,-32.00,-3.00,-30.00,-10.00,-3.00,-34.00,+0.00
+0.00,-49.00,-8.00,-4.00,-33.00,-10.00,-4.00,-3.00,+19.00,+78.00,+7.00,+20.00,-66.00,-7.00,-15.00,-10.00
-6.00,+7.00,-1.00,+0.00,-8.00,+9.00,-3.00,-2.00,-51.00,-7.00,+0.00,-51.00,+36.00,+1.00,+1.00,-4.00
+18.00,+24.00,+4.00,+3.00,+12.00,+0.00,-1.00,+0.00,-15.00,+17.00,-10.00,-12.00,+26.00,+1.00,-28.00,-8.00
+8.00,+18.00,+4.00,+5.00,+49.00,+6.00,+1.00,+6.00,-5.00,-10.00,+1.00,+9.00,-8.00,+1.00,+46.00,-3.00
-22.00,-3.00,+2.00,-1.00,-21.00,+0.00,+0.00,+1.00,+11.00,-43.00,-2.00,-7.00,-3.00,+7.00,-9.00,-1.00
-8.00,-48.00,-14.00,-9.00,+5.00,+3.00,-3.00,-4.00,+6.00,+34.00,+3.00,+24.00,-43.00,-3.00,-3.00,-3.00
-7.00,-27.00,-4.00,-5.00,-55.00,-19.00,+6.00,-3.00,+1.00,-17.00,+3.00,-6.00,-6.00,+1.00,-10.00,+0.00
+19.00,+47.00,+2.00,-6.00,-24.00,-8.00,-97.00,-3.00,+13.00,+12.00,-1.00,+32.00,+20.00,-5.00,-13.00,-1.00
+32.00,+1.00,+8.00,+9.00,+85.00,+33.00,+34.00,+6.00,-17.00,-42.00,-10.00,-59.00,-78.00,-40.00,+1.00,-3.00
-22.00,-27.00,-2.00,-2.00,+8.00,-4.00,-2.00,-2.00,+42.00,-40.00,-3.00,+16.00,+17.00,+12.00,+27.00,+11.00
+23.00,+12.00,+3.00,+6.00,+7.00,+11.00,-14.00,+3.00,-42.00,+75.00,+9.00,+42.00,+3.00,+7.00,-25.00,+1.00
-5.00,+8.00,+5.00,+4.00,-17.00,-9.00,+17.00,+8.00,+29.00,+12.00,-10.00,-73.00,-6.00,-3.00,+3.00,-7.00
-27.00,-59.00,-5.00,-3.00,+7.00,-9.00,-24.00,-6.00,-50.00,+8.00,+9.00,+21.00,+36.00,+10.00,+8.00,+4.00
+6.00,+10.00,-1.00,-2.00,-34.00,-9.00,-3.00,-1.00,-13.00,+5.00,+3.00,+6.00,+8.00,-17.00,-21.00,+5.00
-27.00,-2.00,-11.00,-6.00,+24.00,+2.00,-6.00,-7.00,-35.00,+41.00,-3.00,-8.00,+15.00,+6.00,-47.00,-15.00
-3.00,-48.00,-2.00,-4.00,-43.00,-12.00,+13.00,+0.00,+67.00,-7.00,+5.00,+34.00,-34.00,-27.00,-4.00,+8.00
+14.00,+25.00,+2.00,-1.00,-1.00,+7.00,-19.00,+0.00,+63.00,+31.00,+2.00,-6.00,+80.00,+11.00,+1.00,-4.00
-15.00,-23.00,-14.00,-6.00,-45.00,-7.00,-16.00,-4.00,-31.00,-38.00,-2.00,-22.00,-52.00,-7.00,+23.00,+11.00
-14.00,+60.00,+10.00,+6.00,+62.00,+11.00,+69.00,+5.00,+36.00,-13.00,-5.00,-5.00,+79.00,+47.00,+10.00,+12.00
+19.00,-19.00,+6.00,+0.00,-7.00,+0.00,+33.00,+4.00,-30.00,-13.00,+3.00,-5.00,-34.00,-3.00,-24.00,-8.00
-6.00,+14.00,-6.00,+1.00,+0.00,-1.00,+6.00,-2.00,-11.00,+21.00,+4.00,+10.00,-4.00,-25.00,-3.00,-9.00
+22.00,+35.00,+0.00,+2.00,+16.00,+6.00,-21.00,+1.00,+7.00,+14.00,+1.00,-4.00,+11.00,+9.00,+2.00,-6.00
+16.00,-57.00,-1.00,-4.00,-17.00,-14.00,-31.00,+6.00,-15.00,-59.00,-10.00,-14.00,-10.00,-24.00,+5.00,-12.00
-10.00,-33.00,-8.00,+0.00,+13.00,+6.00,+10.00,-8.00,+14.00,-18.00,-5.00,+23.00,-19.00,+5.00,+14.00,-2.00
-12.00,+59.00,+0.00,+1.00,+35.00,+3.00,+3.00,-4.00,-31.00,+7.00,-8.00,-21.00,-33.00,+19.00,-13.00,-1.00
-8.00,-50.00,-7.00,-2.00,-17.00,+3.00,+30.00,+0.00,-3.00,+20.00,-4.00,+11.00,+23.00,-9.00,-7.00,-10.00
-14.00,-67.00,+0.00,+4.00,-1.00,-23.00,-24.00,-7.00,+0.00,-20.00,+7.00,-4.00,-34.00,-8.00,+11.00,+11.00
-4.00,+67.00,-1.00,-4.00,+14.00,+26.00,+14.00,-4.00,+0.00,-96.00,-13.00,+1.00,+23.00,+0.00,+6.00,+0.00
+21.00,-22.00,+10.00,-3.00,-45.00,-23.00,-97.00,-4.00,-48.00,+54.00,+6.00,+15.00,-8.00,+7.00,-38.00,-1.00
-12.00,+37.00,+3.00,+9.00,+36.00,-5.00,+28.00,-4.00,+15.00,+28.00,+1.00,+10.00,-11.00,-4.00,-20.00,-15.00
+17.00,+22.00,-4.00,-3.00,+21.00,+12.00,+22.00,+5.00,+27.00,+31.00,+9.00,-31.00,-15.00,-12.00,+18.00,+9.00
-9.00,-30.00,-7.00,-2.00,+31.00,-2.00,+19.00,-4.00,-68.00,-15.00,+5.00,+2.00,+27.00,+10.00,-3.00,-4.00
-3.00,-26.00,-3.00,-1.00,-21.00,-4.00,+15.00,+0.00,+2.00,-37.00,-15.00,-13.00,+14.00,+9.00,-24.00,-10.00
-12.00,+12.00,+6.00,-3.00,-4.00,+1.00,-7.00,+1.00,-35.00,+46.00,+8.00,-13.00,-26.00,+6.00,+26.00,-1.00
-35.00,-62.00,+0.00,+1.00,-9.00,+4.00,-4.00,-6.00,+38.00,+42.00,-7.00,+24.00,+10.00,+0.00,+3.00,-5.00
+3.00,+83.00,+7.00,+1.00,-20.00,-6.00,-19.00,+7.00,-30.00,+41.00,+7.00,-27.00,+1.00,+1.00,-9.00,-5.00
-39.00,-21.00,-13.00,-7.00,+20.00,-6.00,-24.00,-2.00,+77.00,-61.00,-2.00,+17.00,-67.00,+0.00,+34.00,+8.00
+10.00,-15.00,+2.00,-1.00,-5.00,-2.00,-3.00,-2.00,-74.00,-14.00,-11.00,-2.00,+98.00,-7.00,-72.00,-7.00
+14.00,+14.00,+6.00,+0.00,-10.00,-10.00,-4.00,-1.00,+3.00,-37.00,-2.00,-24.00,-12.00,+41.00,-22.00,-7.00
-4.00,-25.00,-3.00,+1.00,+24.00,+28.00,+0.00,-3.00,-20.00,+49.00,+7.00,+30.00,-1.00,+0.00,+38.00,-3.00
-6.00,-12.00,-3.00,+1.00,-7.00,+9.00,+33.00,+0.00,+49.00,-27.00,-4.00,-9.00,-8.00,-17.00,+15.00,+1.00
+27.00,+26.00,+7.00,-2.00,-27.00,-35.00,-12.00,+4.00,-10.00,-32.00,-6.00,+11.00,-14.00,+3.00,+73.00,+17.00
-5.00,+16.00,-10.00,-2.00,+13.00,+10.00,-17.00,-2.00,-41.00,-41.00,+1.00,+26.00,+28.00,-33.00,-50.00,+8.00
+30.00,+31.00,+10.00,+0.00,-29.00,-12.00,-5.00,-3.00,+22.00,-67.00,-25.00,-78.00,-24.00,+16.00,-14.00,-5.00
-15.00,-63.00,-6.00,+2.00,-15.00,+4.00,+30.00,+3.00,-20.00,+83.00,+22.00,+7.00,-25.00,-13.00,+33.00,+0.00
+17.00,+39.00,+6.00,+2.00,+12.00,-4.00,-48.00,+0.00,+35.00,+28.00,-14.00,+11.00,-5.00,-39.00,-52.00,+3.00
-3.00,-8.00,-16.00,-18.00,-33.00,+4.00,+47.00,-1.00,+23.00,-12.00,+1.00,-16.00,+8.00,-5.00,+15.00,-3.00
+14.00,+43.00,+2.00,+10.00,+65.00,+6.00,+11.00,-4.00,+10.00,-13.00,-4.00,+32.00,-73.00,+1.00,+3.00,+8.00
+18.00,+2.00,-8.00,-3.00,+17.00,-4.00,+7.00,+4.00,+19.00,-44.00,-18.00,+18.00,+56.00,-18.00,-32.00,-11.00
-14.00,-5.00,+0.00,-6.00,-59.00,-10.00,+38.00,-4.00,+20.00,+58.00,+9.00,-24.00,-28.00,+18.00,+59.00,+7.00
-32.00,+5.00,+4.00,+9.00,+75.00,+16.00,-56.00,-5.00,-91.00,-18.00,-14.00,-19.00,-13.00,+10.00,-1.00,-32.00
+11.00,-31.00,-6.00,+3.00,-32.00,-10.00,-37.00,+0.00,+67.00,-29.00,+7.00,+20.00,-2.00,-5.00,+41.00,+18.00
-15.00,-13.00,+1.00,-7.00,-2.00,+15.00,-1.00,-2.00,-11.00,+12.00,-4.00,-6.00,+0.00,+29.00,+16.00,+0.00
+22.00,-60.00,-1.00,+4.00,+38.00,+5.00,-39.00,-2.00,-57.00,+29.00,+23.00,+4.00,+40.00,+11.00,+68.00,-14.00
+25.00,+7.00,+4.00,+0.00,-4.00,-2.00,+40.00,+15.00,+62.00,-50.00,-24.00,+13.00,+2.00,+62.00,+42.00,+13.00
-48.00,+28.00,-2.00,-3.00,-23.00,-6.00,+17.00,-15.00,-128.00,+35.00,+6.00,-44.00,-8.00,-53.00,-52.00,-47.00
+14.00,+8.00,+10.00,+2.00,-10.00,-7.00,-28.00,+2.00,+84.00,-38.00,+13.00,-6.00,+4.00,+3.00,-9.00,+29.00
-35.00,-42.00,-7.00,-4.00,+1.00,+2.00,+10.00,-8.00,+74.00,+15.00,+0.00,+4.00,-79.00,-14.00,+2.00,-4.00
+9.00,+9.00,-3.00,-6.00,-37.00,-2.00,-39.00,+6.00,+19.00,+20.00,-3.00,-2.00,-8.00,-52.00,-46.00,-1.00
+3.00,-35.00,-12.00,-4.00,+6.00,-25.00,-29.00,+5.00,-32.00,+29.00,-12.00,+24.00,+44.00,+46.00,-35.00,-8.00
+21.00,+26.00,+9.00,+3.00,-3.00,+1.00,+35.00,-11.00,+2.00,-18.00,-5.00,-42.00,+14.00,+9.00,+101.00,+10.00
+25.00,+51.00,+2.00,-1.00,-13.00,+6.00,-47.00,+7.00,-32.00,-71.00,-7.00,+13.00,-42.00,+17.00,-102.00,-13.00
-10.00,-73.00,-27.00,-5.00,+21.00,-2.00,+73.00,-6.00,+2.00,+33.00,+2.00,-19.00,+5.00,-45.00,+35.00,-6.00
+30.00,+31.00,+40.00,+4.00,-11.00,+22.00,+33.00,+15.00,+109.00,-16.00,-4.00,+25.00,+8.00,+7.00,+1.00,+20.00
-27.00,-34.00,-9.00,+1.00,-19.00,+0.00,+50.00,-17.00,-128.00,-46.00,+5.00,+1.00,-16.00,-13.00,-28.00,-24.00
-16.00,+46.00,+5.00,-6.00,-4.00,+8.00,+82.00,+6.00,+66.00,+67.00,+10.00,-1.00,+17.00,-12.00,+2.00,+1.00
-3.00,-8.00,+5.00,+4.00,-15.00,+0.00,-11.00,+11.00,+22.00,-11.00,+2.00,-2.00,-24.00,-4.00,-7.00,+10.00
-37.00,-37.00,-23.00,-6.00,-20.00,-16.00,-16.00,-13.00,+68.00,-15.00,-7.00,-5.00,+15.00,+13.00,-24.00,-2.00
-7.00,-63.00,-6.00,-6.00,-6.00,-21.00,-26.00,+14.00,-103.00,-7.00,-5.00,+15.00,+8.00,-13.00,+2.00,-10.00
+1.00,+64.00,+22.00,+14.00,+33.00,+7.00,-89.00,-9.00,-57.00,-71.00,-11.00,-5.00,-10.00,+7.00,+3.00,+7.00
+15.00,+25.00,+1.00,+1.00,-3.00,-9.00,+87.00,-3.00,+7.00,+17.00,+12.00,+7.00,+90.00,+16.00,-18.00,-13.00
+0.00,-54.00,-1.00,-5.00,-15.00,-6.00,+36.00,-3.00,-35.00,+21.00,+12.00,+7.00,-14.00,-14.00,+0.00,-3.00
+13.00,+39.00,-9.00,-3.00,-25.00,-8.00,-6.00,+0.00,+47.00,-41.00,-8.00,-7.00,-30.00,-9.00,-53.00,-3.00
-32.00,-6.00,-11.00,-9.00,+1.00,-14.00,-63.00,-11.00,-26.00,-74.00,-24.00,-4.00,-5.00,-4.00,+9.00,-15.00
+21.00,+3.00,+10.00,-1.00,-14.00,-11.00,-8.00,-2.00,-32.00,+39.00,+12.00,+4.00,-34.00,-9.00,+51.00,+8.00
+31.00,-36.00,-5.00,+1.00,-1.00,-14.00,-19.00,+7.00,+67.00,-7.00,+0.00,+31.00,+63.00,-3.00,+9.00,+7.00
-6.00,+29.00,+0.00,+2.00,-10.00,+14.00,+40.00,-1.00,-57.00,+36.00,-2.00,-43.00,+3.00,-17.00,-14.00,-10.00
+6.00,-59.00,-2.00,-2.00,+4.00,-10.00,-11.00,-5.00,+35.00,+62.00,+7.00,+26.00,+34.00,+4.00,-5.00,+15.00
+0.00,+75.00,+14.00,+7.00,-4.00,+11.00,-5.00,-3.00,-43.00,-73.00,-13.00,-41.00,-51.00,-12.00,-58.00,-13.00
-3.00,-50.00,-17.00,-14.00,-35.00,+2.00,+9.00,+3.00,-17.00,-32.00,-2.00,-8.00,-10.00,-11.00,+8.00,+7.00
+18.00,+36.00,+11.00,+5.00,+49.00,+0.00,-13.00,+1.00,-61.00,+35.00,+2.00,+30.00,+15.00,+11.00,-7.00,-9.00
+18.00,-25.00,-3.00,+0.00,-28.00,+10.00,+72.00,+7.00,+66.00,-11.00,-10.00,-10.00,-30.00,+6.00,-3.00,+11.00
-2.00,-26.00,-4.00,-5.00,+43.00,-6.00,-44.00,-7.00,+2.00,+1.00,+3.00,+24.00,+35.00,+0.00,+45.00,-6.00
-10.00,+15.00,+3.00,-1.00,-10.00,+5.00,-1.00,+2.00,-22.00,+13.00,-1.00,-8.00,+11.00,-24.00,-30.00,+7.00
-10.00,+24.00,+6.00,+3.00,+22.00,-3.00,-2.00,+1.00,-16.00,+33.00,-2.00,-17.00,-5.00,+17.00,-6.00,-2.00
-40.00,-32.00,-9.00,+4.00,+7.00,+10.00,+29.00,+0.00,-13.00,-47.00,-10.00,-7.00,+11.00,-11.00,-11.00,-3.00
+39.00,+85.00,+5.00,-4.00,-36.00,-1.00,-1.00,+13.00,+78.00,+0.00,-4.00,+16.00,-2.00,-18.00,+16.00,-1.00
-24.00,-17.00,-8.00,-6.00,-13.00,-27.00,+3.00,+3.00,-3.00,+69.00,+18.00,-6.00,-23.00,+17.00,+6.00,+4.00
-14.00,+16.00,-4.00,+4.00,+51.00,+5.00,-86.00,-17.00,+81.00,+33.00,+0.00,+22.00,+16.00,+11.00,+3.00,+22.00
+26.00,-59.00,+2.00,+0.00,+2.00,+7.00,+42.00,+9.00,-1.00,-9.00,+1.00,+17.00,-17.00,-5.00,+57.00,-2.00
-9.00,+63.00,+14.00,+2.00,-16.00,-11.00,-25.00,-6.00,+26.00,-24.00,-5.00,-27.00,-52.00,+2.00,-3.00,-2.00
-24.00,-51.00,-15.00,-3.00,+5.00,-1.00,+14.00,-4.00,-106.00,+21.00,-8.00,-5.00,+4.00,+11.00,+19.00,-11.00
-10.00,+30.00,+10.00,-9.00,-57.00,-11.00,+37.00,+1.00,+41.00,-22.00,+5.00,+30.00,+20.00,-22.00,-40.00,+12.00
-12.00,+22.00,-19.00,+4.00,+28.00,+7.00,-52.00,-17.00,+26.00,+14.00,+0.00,-4.00,-9.00,-22.00,-23.00,-14.00
+1.00,+14.00,+7.00,-7.00,+21.00,+1.00,+6.00,+2.00,-21.00,-58.00,-14.00,-9.00,-13.00,+4.00,+2.00,+1.00
+7.00,-37.00,+6.00,+2.00,-4.00,+7.00,-10.00,-4.00,-53.00,+72.00,+6.00,-10.00,-45.00,-13.00,+10.00,+8.00
-6.00,+0.00,-1.00,+3.00,+10.00,-1.00,+32.00,+0.00,+7.00,-12.00,-4.00,+2.00,+20.00,+13.00,-58.00,-7.00
-2.00,+19.00,-1.00,-4.00,+16.00,-3.00,+14.00,+3.00,-44.00,+19.00,+1.00,-13.00,+31.00,-14.00,+18.00,-3.00
-3.00,-25.00,-5.00,+1.00,-35.00,-11.00,-42.00,+3.00,+1.00,-38.00,-1.00,+8.00,-1.00,+9.00,+36.00,+7.00
-1.00,+75.00,+2.00,-1.00,+36.00,+6.00,+5.00,-5.00,+1.00,+20.00,-1.00,+10.00,+29.00,-3.00,-21.00,-19.00
-16.00,-20.00,-5.00,-1.00,-7.00,+1.00,-9.00,-1.00,+38.00,+20.00,+4.00,-20.00,-27.00,-1.00,+37.00,+10.00
+30.00,+34.00,+4.00,-1.00,-17.00,-10.00,+10.00,+3.00,-21.00,+21.00,+6.00,-6.00,-8.00,-2.00,-9.00,-1.00
-18.00,-29.00,+4.00,-4.00,-1.00,+1.00,-32.00,-11.00,+22.00,-51.00,-16.00,-12.00,-15.00,+9.00,-4.00,+3.00
-5.00,-26.00,-1.00,+5.00,+56.00,+8.00,-39.00,-2.00,+53.00,-5.00,+5.00,+13.00,-1.00,+7.00,+7.00,+5.00
-7.00,-36.00,-8.00,-2.00,-6.00,+0.00,+4.00,+0.00,-82.00,-12.00,+3.00,+3.00,+11.00,-3.00,+5.00,-7.00
-7.00,+47.00,+5.00,+2.00,-9.00,+2.00,+20.00,-1.00,+42.00,-17.00,+2.00,-6.00,-6.00,+4.00,-19.00,+8.00
-18.00,-28.00,-6.00,-2.00,-13.00,+9.00,+3.00,-3.00,-38.00,-7.00,+5.00,+6.00,+3.00,-5.00,-59.00,-12.00
+14.00,+30.00,+11.00,+3.00,+0.00,-5.00,+5.00,+3.00,-111.00,-49.00,-7.00,+29.00,+11.00,+9.00,+16.00,-10.00
-4.00,-11.00,+0.00,+1.00,+13.00,+14.00,+3.00,+1.00,+68.00,-26.00,+1.00,-36.00,-8.00,+6.00,+7.00,+6.00
-5.00,-6.00,-14.00,-12.00,-21.00,-6.00,+39.00,+3.00,-1.00,+32.00,-4.00,-22.00,-20.00,+3.00,+35.00,-11.00
-11.00,-83.00,-4.00,+6.00,+13.00,-7.00,-23.00,-8.00,+14.00,+31.00,+7.00,+14.00,-9.00,+22.00,-13.00,+0.00
+0.00,+105.00,+3.00,-1.00,-20.00,+4.00,+15.00,+2.00,-8.00,-28.00,-7.00,+5.00,+0.00,-15.00,+14.00,-5.00
+10.00,-9.00,+5.00,+3.00,+5.00,+3.00,-20.00,+5.00,+31.00,-15.00,-9.00,-3.00,+1.00,-22.00,-7.00,-9.00
+11.00,+49.00,-5.00,-6.00,+12.00,+0.00,+16.00,+4.00,+12.00,+7.00,+2.00,-2.00,+18.00,+39.00,-32.00,-7.00
+11.00,-63.00,+2.00,-4.00,-9.00,+12.00,+5.00,+0.00,+47.00,+42.00,+6.00,+27.00,-39.00,-4.00,+29.00,+13.00
-2.00,-46.00,-4.00,+0.00,+6.00,-2.00,+8.00,+4.00,-47.00,-14.00,-5.00,-31.00,-15.00,-7.00,-25.00,-6.00
-1.00,-53.00,+1.00,-2.00,-2.00,-17.00,-12.00,-3.00,-5.00,-17.00,+1.00,-3.00,+14.00,+4.00,-1.00,+3.00
+12.00,+45.00,+13.00,+1.00,+6.00,-5.00,+3.00,-2.00,+58.00,-38.00,-6.00,+5.00,-4.00,-9.00,-19.00,+8.00
-13.00,-21.00,-15.00,+0.00,-21.00,+3.00,+12.00,-7.00,-1.00,+83.00,+9.00,-8.00,+20.00,-6.00,+4.00,-2.00
+9.00,+37.00,+3.00,+0.00,+22.00,+2.00,-23.00,-2.00,-31.00,-24.00,-5.00,-3.00,-10.00,+4.00,-12.00,+7.00
+17.00,-56.00,-8.00,-3.00,-11.00,+1.00,-30.00,+2.00,-8.00,+4.00,+5.00,+28.00,-12.00,-3.00,+29.00,-8.00
+3.00,+25.00,+6.00,+8.00,+10.00,-1.00,+40.00,+6.00,-17.00,+0.00,+4.00,-4.00,+5.00,+0.00,-27.00,-1.00
-18.00,+30.00,-2.00,-1.00,-24.00,-9.00,-24.00,-5.00,+18.00,+14.00,-1.00,-14.00,+9.00,-4.00,+2.00,+2.00
-3.00,-15.00,-5.00,-7.00,-64.00,-9.00,+9.00,-3.00,+31.00,-19.00,-2.00,-3.00,-15.00,-4.00,-33.00,+2.00
+2.00,+30.00,+0.00,+1.00,+57.00,+13.00,+23.00,+6.00,-21.00,-32.00,-9.00,+5.00,-4.00,+6.00,+7.00,+2.00
+17.00,-30.00,+1.00,-2.00,+7.00,+0.00,-32.00,+1.00,+28.00,+37.00,+2.00,-6.00,-3.00,-4.00,-26.00,+2.00
-5.00,+2.00,-5.00,-4.00,+3.00,-7.00,-2.00,-3.00,-32.00,-71.00,-4.00,-3.00,-1.00,-14.00,+11.00,-4.00
-16.00,+41.00,-1.00,+10.00,+8.00,+3.00,+0.00,-4.00,+38.00,+27.00,+7.00,-11.00,-8.00,-14.00,+2.00,+1.00
+9.00,+2.00,-3.00,-8.00,-24.00,-7.00,+16.00,+3.00,+7.00,+41.00,+3.00,+23.00,+15.00,+9.00,-2.00,-6.00
-4.00,-13.00,-9.00,-11.00,-11.00,+1.00,-42.00,-1.00,-39.00,-22.00,+4.00,-18.00,-17.00,+8.00,-13.00,+11.00
+17.00,+45.00,+7.00,+2.00,+0.00,+1.00,+14.00,-1.00,-17.00,+24.00,-3.00,-7.00,+10.00,-36.00,-24.00,+7.00
-2.00,-97.00,+3.00,+0.00,+0.00,+5.00,+1.00,+0.00,+24.00,-13.00,+2.00,-4.00,+34.00,+40.00,-5.00,-6.00
-1.00,+103.00,+1.00,+3.00,-9.00,-3.00,-2.00,-2.00,+5.00,-13.00,-3.00,-1.00,-23.00,-3.00,+53.00,+3.00
-16.00,-39.00,-5.00,+5.00,+5.00,-7.00,-16.00,-6.00,-10.00,-5.00,-6.00,-3.00,+28.00,+5.00,+12.00,-3.00
-1.00,-6.00,+1.00,-11.00,-11.00,-4.00,-1.00,+4.00,-13.00,-12.00,+0.00,-9.00,-24.00,-1.00,+0.00,+1.00
+15.00,+14.00,-13.00,-2.00,+5.00,-5.00,-2.00,-4.00,+31.00,+1.00,-5.00,+26.00,+20.00,-9.00,-14.00,+4.00
+2.00,-61.00,-3.00,-2.00,-3.00,-4.00,+4.00,-1.00,-30.00,-52.00,-7.00,-36.00,+42.00,+3.00,+21.00,-5.00
-19.00,-42.00,-2.00,-4.00,+1.00,+1.00,+1.00,-5.00,+8.00,+65.00,+6.00,-6.00,+0.00,+4.00,-37.00,-9.00
+4.00,+21.00,+1.00,-2.00,-29.00,-18.00,-19.00,-2.00,-23.00,-30.00,-1.00,+11.00,+61.00,+6.00,+92.00,+4.00
+1.00,-26.00,+5.00,+9.00,+11.00,+14.00,+54.00,+5.00,+13.00,+8.00,-3.00,-14.00,-19.00,-6.00,-45.00,-2.00
+11.00,+6.00,+3.00,-3.00,+13.00,+10.00,-13.00,-2.00,+16.00,+28.00,+8.00,+15.00,-7.00,+24.00,-23.00,-1.00
-11.00,+21.00,-4.00,-3.00,+15.00,+6.00,-27.00,+0.00,-7.00,-24.00,+3.00,+20.00,+3.00,-9.00,+38.00,+0.00
-5.00,-20.00,-12.00,+3.00,+9.00,+0.00,+9.00,-2.00,+30.00,-8.00,-9.00,+3.00,-7.00,+9.00,-29.00,-7.00
-2.00,-26.00,-2.00,-11.00,-33.00,-5.00,-20.00,-1.00,-44.00,+29.00,+9.00,-20.00,-5.00,-6.00,+73.00,+4.00
-16.00,+65.00,+0.00,+0.00,-28.00,-18.00,-5.00,-4.00,+33.00,+4.00,-10.00,+5.00,+7.00,-15.00,+15.00,+0.00
-8.00,-51.00,-2.00,+3.00,+29.00,+23.00,+26.00,+0.00,-38.00,-12.00,-3.00,-14.00,-23.00,-7.00,-5.00,-6.00
+7.00,-28.00,+6.00,+0.00,+9.00,-3.00,-22.00,+0.00,-9.00,-47.00,-6.00,+6.00,-17.00,+2.00,-11.00,-3.00
+3.00,+62.00,+4.00,+3.00,+35.00,+6.00,+0.00,+3.00,+51.00,-42.00,+0.00,+7.00,-31.00,-3.00,+7.00,+12.00
-10.00,-60.00,-10.00,-4.00,-26.00,+0.00,-9.00,-1.00,-13.00,+112.00,+3.00,+4.00,+16.00,+0.00,-29.00,-2.00
-1.00,+1.00,+1.00,-2.00,-15.00,-12.00,+11.00,-1.00,+19.00,-58.00,-13.00,-16.00,+19.00,-11.00,+12.00,-8.00
-3.00,-47.00,-10.00,+6.00,+10.00,+10.00,+5.00,-3.00,+8.00,+8.00,-3.00,+24.00,+6.00,+4.00,-20.00,-8.00
+5.00,+71.00,-4.00,-17.00,+3.00,-10.00,-10.00,+0.00,-6.00,+4.00,+1.00,-18.00,+49.00,-6.00,+27.00,+1.00
-8.00,-119.00,+5.00,-2.00,-38.00,-8.00,+21.00,+1.00,+6.00,-15.00,-1.00,-22.00,-60.00,-10.00,-17.00,+3.00
+12.00,+92.00,+14.00,+8.00,+26.00,+7.00,-9.00,+1.00,-45.00,-36.00,-3.00,+23.00,+8.00,+13.00,-32.00,-7.00
+3.00,-51.00,+4.00,+4.00,+9.00,+7.00,+18.00,+1.00,+40.00,+56.00,+10.00,+15.00,-9.00,+2.00,+45.00,+3.00
-23.00,+20.00,-4.00,+1.00,-5.00,-7.00,-4.00,-4.00,+15.00,+10.00,-7.00,-45.00,-29.00,-2.00,+83.00,-2.00
+20.00,+28.00,+0.00,-5.00,+3.00,+4.00,-62.00,-2.00,-28.00,-28.00,-10.00,+6.00,-18.00,+14.00,+19.00,-5.00
-10.00,-31.00,-8.00,-10.00,-55.00,-17.00,+18.00,-2.00,-25.00,+23.00,+1.00,+9.00,+40.00,-17.00,-46.00,+1.00
+1.00,+15.00,+1.00,+1.00,+37.00,-2.00,-6.00,-4.00,-41.00,-80.00,-9.00,+4.00,-59.00,-2.00,-8.00,-10.00
-6.00,-46.00,+1.00,-3.00,-28.00,+2.00,-14.00,+1.00,-28.00,-27.00,-4.00,+4.00,+38.00,-10.00,-9.00,-1.00
-8.00,+36.00,+3.00,+1.00,+0.00,-14.00,+3.00,-3.00,-9.00,-34.00,+13.00,+3.00,-14.00,-5.00,+11.00,+17.00
-2.00,-32.00,-6.00,+11.00,+21.00,+19.00,+23.00,+4.00,-43.00,+44.00,+9.00,+6.00,-65.00,-8.00,+11.00,+5.00
-4.00,-2.00,-15.00,-16.00,-39.00,-11.00,-25.00,+0.00,-19.00,+36.00,+0.00,+21.00,-8.00,+6.00,-24.00,-3.00
+13.00,+25.00,+7.00,+1.00,+45.00,+17.00,+12.00,+2.00,+100.00,+67.00,+1.00,-23.00,-9.00,-3.00,-31.00,+2.00
-10.00,-25.00,+1.00,+4.00,-3.00,-7.00,-15.00,+0.00,-33.00,-56.00,-10.00,+4.00,+68.00,-1.00,+21.00,-19.00
+8.00,+6.00,+2.00,+1.00,-29.00,-7.00,+59.00,+0.00,-25.00,-46.00,-8.00,+2.00,-14.00,-1.00,+17.00,-6.00
+13.00,+60.00,+10.00,+2.00,+16.00,+17.00,+33.00,+7.00,-19.00,-17.00,+0.00,-30.00,+6.00,+9.00,-67.00,-2.00
+24.00,-6.00,-2.00,+2.00,+18.00,-3.00,-35.00,-6.00,+9.00,+9.00,+2.00,+33.00,-12.00,+13.00,+46.00,-1.00
-6.00,+5.00,-1.00,+5.00,-15.00,-15.00,+96.00,+5.00,+32.00,+16.00,-12.00,-19.00,-30.00,+11.00,-14.00,+18.00
-2.00,+71.00,-4.00,-9.00,-20.00,-16.00,-62.00,-5.00,+13.00,-32.00,-5.00,+0.00,-3.00,+25.00,+27.00,-2.00
+22.00,-22.00,-8.00,+1.00,+18.00,+6.00,+3.00,+4.00,+76.00,-39.00,+10.00,+16.00,+4.00,-1.00,+15.00,+14.00
-11.00,-34.00,-4.00,-5.00,+2.00,-11.00,-26.00,-4.00,-28.00,-1.00,-5.00,-14.00,-58.00,-12.00,-69.00,-8.00
+47.00,+65.00,+4.00,+1.00,-29.00,+1.00,-24.00,+5.00,-53.00,+79.00,+5.00,-7.00,+10.00,+3.00,+26.00,-8.00
-42.00,-128.00,-9.00,+3.00,+29.00,-18.00,-10.00,+0.00,+18.00,+18.00,-1.00,+13.00,+56.00,-2.00,+8.00,-3.00
-29.00,-8.00,+0.00,-1.00,+26.00,+12.00,-3.00,-1.00,-25.00,-2.00,-2.00,-32.00,-14.00,-8.00,-31.00,-3.00
+24.00,+33.00,+8.00,+0.00,-16.00,-1.00,+5.00,+3.00,+28.00,+8.00,+2.00,+11.00,+17.00,+2.00,-23.00,-2.00
-39.00,-24.00,-13.00,-6.00,-2.00,+1.00,+2.00,-9.00,+20.00,-91.00,-4.00,+10.00,-16.00,-7.00,-16.00,-5.00
-1.00,-22.00,-12.00,-6.00,+22.00,+10.00,+3.00,+3.00,+7.00,+36.00,-6.00,-4.00,+0.00,+1.00,-4.00,-4.00
-1.00,-4.00,+10.00,+5.00,-31.00,-9.00,-10.00,-4.00,+31.00,+52.00,+1.00,+7.00,+14.00,-7.00,+4.00,-1.00
+10.00,-41.00,-1.00,+0.00,-40.00,-7.00,+7.00,-3.00,-24.00,-16.00,+5.00,-29.00,-18.00,-5.00,+5.00,-13.00
-8.00,+45.00,+5.00,+4.00,+64.00,+6.00,-35.00,-2.00,-25.00,+53.00,-6.00,+3.00,+38.00,+12.00,+4.00,+19.00
-7.00,-20.00,+0.00,-2.00,-37.00,-2.00,-40.00,-3.00,+12.00,+10.00,+8.00,+34.00,+2.00,-9.00,-34.00,-7.00
-11.00,+88.00,+13.00,+0.00,+19.00,+3.00,+3.00,-3.00,-32.00,-12.00,-5.00,-24.00,+85.00,+7.00,-24.00,-6.00
-35.00,-23.00,-11.00,-2.00,-7.00,-19.00,+3.00,+1.00,+45.00,+20.00,-1.00,-21.00,+8.00,-7.00,+3.00,+12.00
-8.00,+9.00,-6.00,+10.00,+30.00,+10.00,+15.00,+0.00,+6.00,-79.00,-16.00,+0.00,-68.00,+24.00,+26.00,-15.00
-16.00,-29.00,+4.00,-12.00,+9.00,+8.00,-15.00,-2.00,-31.00,+48.00,+4.00,-17.00,+36.00,-19.00,-2.00,-9.00
-4.00,+12.00,-7.00,-5.00,-20.00,+0.00,+44.00,+1.00,+13.00,+65.00,+1.00,+2.00,+5.00,+47.00,+4.00,+12.00
-5.00,+46.00,+8.00,+0.00,-17.00,-18.00,-3.00,-7.00,-82.00,-38.00,-3.00,+35.00,+8.00,+1.00,-15.00,-4.00
-19.00,-19.00,+0.00,-1.00,+39.00,+24.00,-12.00,+4.00,+68.00,-20.00,-3.00,+13.00,-1.00,-11.00,-78.00,-5.00
+47.00,+103.00,+2.00,+3.00,+16.00,+0.00,+30.00,+0.00,+22.00,-35.00,-3.00,-16.00,-24.00,-5.00,+29.00,+6.00
+22.00,-65.00,+5.00,+6.00,+18.00,+7.00,-5.00,+5.00,-61.00,-10.00,-4.00,-5.00,-33.00,-14.00,+22.00,-9.00
+33.00,+20.00,+3.00,+4.00,-13.00,+8.00,-19.00,-8.00,+26.00,-22.00,-4.00,+7.00,+16.00,+1.00,-5.00,-3.00
+44.00,+20.00,+1.00,-4.00,-36.00,-5.00,+60.00,+11.00,-70.00,+24.00,+7.00,+9.00,+40.00,-6.00,-23.00,-6.00
-28.00,+4.00,-3.00,+1.00,+42.00,+6.00,-28.00,-7.00,+45.00,-1.00,+4.00,+4.00,-48.00,+3.00,+9.00,+4.00
-22.00,-13.00,-6.00,-6.00,-9.00,-15.00,+23.00,-7.00,-14.00,+13.00,-2.00,-32.00,+22.00,-15.00,-6.00,-3.00
-22.00,-92.00,-3.00,+3.00,-10.00,+0.00,-36.00,-3.00,+11.00,-69.00,-16.00,+25.00,+3.00,+5.00,+9.00,+7.00
+15.00,+11.00,+6.00,-1.00,-31.00,+11.00,+10.00,+0.00,+9.00,+45.00,+20.00,+1.00,-41.00,-14.00,-2.00,-13.00
+26.00,+20.00,+6.00,-2.00,-30.00,-4.00,-3.00,+2.00,-20.00,-20.00,-10.00,-17.00,-47.00,-5.00,-5.00,-5.00
-19.00,+10.00,-11.00,-1.00,-29.00,-28.00,+17.00,-7.00,-44.00,-16.00,+2.00,-16.00,+2.00,-10.00,+57.00,+8.00
-13.00,-11.00,-2.00,+4.00,+40.00,+15.00,+3.00,-3.00,+62.00,+6.00,+0.00,+9.00,+11.00,+3.00,-12.00,-4.00
-4.00,-6.00,+4.00,+0.00,+28.00,+3.00,-5.00,-5.00,-31.00,+19.00,+5.00,+6.00,-36.00,-24.00,+13.00,+5.00
+1.00,-25.00,-5.00,-2.00,-19.00,-7.00,-29.00,-4.00,-63.00,-26.00,-13.00,-3.00,-12.00,+4.00,-28.00,-9.00
+25.00,+18.00,+1.00,-4.00,-17.00,+3.00,-4.00,+2.00,+63.00,-67.00,-6.00,-11.00,-65.00,-11.00,-21.00,+11.00
-11.00,-34.00,-8.00,-8.00,-17.00,+4.00,+15.00,-1.00,-16.00,+26.00,+0.00,+22.00,-6.00,+3.00,-31.00,-18.00
-11.00,-30.00,-8.00,-11.00,+12.00,-15.00,-19.00,-5.00,+71.00,+30.00,-12.00,-23.00,+30.00,-10.00,+9.00,+8.00
-13.00,-15.00,+1.00,+0.00,-44.00,+1.00,+10.00,-2.00,+45.00,-64.00,-3.00,-18.00,+20.00,-30.00,+23.00,+18.00
-8.00,+9.00,-11.00,+6.00,+14.00,-1.00,-27.00,-12.00,-43.00,+95.00,+15.00,+34.00,+65.00,+22.00,-10.00,-2.00
+15.00,+18.00,+19.00,+6.00,+2.00,+11.00,+1.00,+14.00,-40.00,+0.00,-1.00,-22.00,-40.00,+4.00,-14.00,-6.00
-24.00,-28.00,-12.00,-8.00,-10.00,+5.00,-24.00,-8.00,-77.00,-45.00,-11.00,-15.00,+4.00,-7.00,-9.00,-22.00
-5.00,-27.00,+13.00,+5.00,+7.00,+10.00,+11.00,+6.00,+102.00,+19.00,+6.00,+1.00,+0.00,-1.00,+1.00,+12.00
-4.00,-90.00,+1.00,+2.00,+22.00,-7.00,-8.00,+3.00,+44.00,+7.00,-4.00,+13.00,-14.00,-13.00,-7.00,-6.00
-26.00,+86.00,-11.00,-14.00,-35.00,-10.00,+3.00,-5.00,-50.00,-28.00,-7.00,-3.00,+64.00,+3.00,-14.00,+4.00
+63.00,+74.00,+9.00,+4.00,+13.00,-13.00,+1.00,+8.00,+29.00,+39.00,+7.00,+2.00,+32.00,+10.00,-22.00,+2.00
-15.00,-62.00,-10.00,-2.00,-38.00,-8.00,+10.00,-8.00,-94.00,-9.00,+2.00,-13.00,+1.00,+3.00,-25.00,-13.00
+0.00,-58.00,+8.00,+6.00,+23.00,+7.00,+16.00,+10.00,-41.00,-9.00,-3.00,+8.00,-6.00,-5.00,+82.00,-4.00
+9.00,+36.00,-2.00,+0.00,+11.00,+1.00,-24.00,-1.00,+57.00,+11.00,-2.00,-18.00,-8.00,+12.00,+56.00,+13.00
-26.00,-39.00,-2.00,-10.00,-41.00,-21.00,+17.00,-11.00,+13.00,-10.00,-2.00,+28.00,+40.00,-5.00,+13.00,-6.00
+5.00,+16.00,-3.00,+11.00,+51.00,+14.00,+6.00,-3.00,-2.00,-11.00,+8.00,-10.00,-25.00,+9.00,+0.00,+8.00
+12.00,+11.00,-3.00,-6.00,-14.00,+12.00,+2.00,-2.00,-105.00,-13.00,-2.00,-13.00,+18.00,+4.00,-32.00,-20.00
-9.00,-24.00,-6.00,-3.00,+11.00,-2.00,+19.00,-6.00,+89.00,-4.00,+5.00,+3.00,-44.00,-21.00,+2.00,-1.00
+87.00,-6.00,-3.00,-2.00,-21.00,-5.00,-17.00,-2.00,-8.00,+74.00,+13.00,+4.00,+34.00,+3.00,+27.00,-7.00
+68.00,-4.00,+1.00,-5.00,-40.00,-15.00,+3.00,+7.00,+111.00,+13.00,-2.00,+27.00,+37.00,+9.00,+28.00,+14.00
-30.00,-3.00,-7.00,+1.00,+56.00,+21.00,-20.00,-13.00,-80.00,-31.00,-11.00,-44.00,+32.00,-2.00,-10.00,-13.00
-6.00,-50.00,+5.00,+4.00,+15.00,-3.00,-16.00,+7.00,-126.00,-18.00,+2.00,-4.00,-30.00,-5.00,-24.00,+4.00
-46.00,+75.00,+1.00,-1.00,-11.00,+18.00,+21.00,+4.00,-46.00,-75.00,-13.00,+4.00,+9.00,+5.00,-15.00,-11.00
-56.00,-50.00,-14.00,-10.00,+18.00,-3.00,+1.00,-3.00,+25.00,+59.00,+15.00,+20.00,+9.00,-21.00,+1.00,+10.00
-44.00,+45.00,+1.00,-5.00,-62.00,-15.00,-26.00,-2.00,+11.00,+18.00,+3.00,+2.00,-111.00,+19.00,-55.00,-3.00
-21.00,-52.00,-4.00,+3.00,+16.00,-2.00,-3.00,-5.00,-4.00,+9.00,-6.00,-14.00,+100.00,+3.00,+12.00,-1.00
-12.00,+41.00,+7.00,+5.00,-20.00,-7.00,+16.00,+6.00,+104.00,-19.00,+6.00,-16.00,-6.00,+3.00,-21.00,+5.00
-1.00,-54.00,+5.00,+6.00,+35.00,+4.00,+8.00,+6.00,-64.00,-76.00,-27.00,+62.00,+67.00,+15.00,-1.00,-4.00
-1.00,+26.00,-1.00,-7.00,-32.00,-28.00,-3.00,+6.00,-15.00,+39.00,-4.00,-53.00,-16.00,-12.00,+19.00,+3.00
-43.00,-78.00,-12.00,-5.00,-17.00,+2.00,+20.00,+1.00,-41.00,+6.00,+9.00,+6.00,-121.00,-5.00,+30.00,-16.00
+48.00,-10.00,-7.00,+1.00,+10.00,+13.00,-24.00,-1.00,+13.00,-6.00,+5.00,-14.00,-29.00,+5.00,+9.00,+14.00
-10.00,+45.00,+4.00,+6.00,+18.00,-11.00,+2.00,-2.00,-32.00,-22.00,-12.00,-10.00,+8.00,+3.00,-13.00,-19.00
+31.00,+5.00,+1.00,-7.00,-46.00,+0.00,+3.00,+1.00,+35.00,+13.00,-3.00,+6.00,-6.00,-3.00,+11.00,+5.00
+8.00,-13.00,-3.00,+4.00,+9.00,-2.00,-4.00,-1.00,-7.00,+20.00,-7.00,+16.00,-7.00,+9.00,-60.00,-19.00
-22.00,-63.00,-5.00,-8.00,+6.00,-3.00,-17.00,-11.00,-51.00,-5.00,+7.00,-2.00,-32.00,-4.00,-17.00,+5.00
+5.00,-11.00,+4.00,+2.00,+7.00,-14.00,-6.00,-6.00,+11.00,+11.00,+0.00,-9.00,+2.00,+4.00,+6.00,-3.00
+5.00,+67.00,+1.00,-2.00,+18.00,+14.00,+21.00,+3.00,-9.00,-109.00,-12.00,+14.00,+23.00,-14.00,-17.00,+4.00
+4.00,+24.00,-9.00,-11.00,-98.00,-29.00,+33.00,-9.00,-45.00,+81.00,+17.00,+10.00,+32.00,+11.00,+4.00,+1.00
+29.00,-17.00,+5.00,+6.00,+48.00,+16.00,+51.00,+9.00,+114.00,+2.00,-2.00,+20.00,-105.00,-34.00,+4.00,-14.00
+32.00,+4.00,+2.00,+1.00,-13.00,+1.00,-12.00,+2.00,-119.00,+101.00,-3.00,-15.00,-68.00,+1.00,+15.00,-28.00
-9.00,-34.00,+0.00,+3.00,+4.00,+5.00,+1.00,+1.00,+49.00,-68.00,+0.00,-1.00,+4.00,-4.00,+1.00,-6.00
+24.00,+55.00,-2.00,-4.00,-21.00,+7.00,-7.00,-1.00,+34.00,-16.00,+3.00,+6.00,+30.00,+6.00,-8.00,-6.00
-50.00,-35.00,-13.00,-6.00,-27.00,-13.00,-33.00,-7.00,+44.00,+8.00,+10.00,-8.00,+4.00,+11.00,+54.00,+33.00
+24.00,+22.00,+8.00,-4.00,-2.00,+2.00,+10.00,+3.00,-41.00,-4.00,+19.00,+2.00,-29.00,-6.00,-2.00,-16.00
-4.00,+77.00,+8.00,+7.00,+10.00,+7.00,-18.00,-5.00,+45.00,+43.00,-20.00,-4.00,+62.00,-8.00,-4.00,-5.00
-28.00,-38.00,-5.00,+4.00,+54.00,-2.00,+0.00,-3.00,+16.00,-37.00,-5.00,+10.00,-35.00,+1.00,+41.00,-14.00
-20.00,-54.00,-6.00,-10.00,-41.00,-1.00,-5.00,-13.00,-51.00,-4.00,-12.00,-15.00,+18.00,-10.00,-50.00,-17.00
+17.00,+85.00,+0.00,+0.00,+27.00,+30.00,+0.00,-2.00,+5.00,-15.00,+9.00,-28.00,-13.00,+3.00,-2.00,+19.00
-50.00,-76.00,-8.00,-6.00,-40.00,-34.00,-34.00,-3.00,+53.00,+5.00,+9.00,+23.00,+114.00,-7.00,-12.00,+9.00
-10.00,+14.00,+7.00,+14.00,+73.00,+14.00,+25.00,+1.00,-64.00,+19.00,+3.00,+61.00,+32.00,+12.00,-16.00,+3.00
-38.00,-11.00,-3.00,-8.00,-54.00,+9.00,-4.00,-12.00,-45.00,-9.00,-11.00,-24.00,-7.00,-3.00,-16.00,+11.00
-75.00,-6.00,-21.00,+1.00,+33.00,+18.00,+5.00,-9.00,-38.00,-114.00,-24.00,-32.00,-59.00,-11.00,+18.00,+22.00
+22.00,-19.00,+1.00,-10.00,-5.00,+11.00,+15.00,-3.00,+103.00,+125.00,+15.00,+13.00,-128.00,-8.00,-90.00,+4.00
-6.00,+2.00,+19.00,+19.00,+87.00,-1.00,-22.00,+2.00,-21.00,-67.00,-43.00,-45.00,+61.00,-20.00,+55.00,-47.00
-34.00,-14.00,-14.00,-23.00,-76.00,-20.00,-11.00,+3.00,-86.00,-15.00,+5.00,+24.00,-74.00,-1.00,-33.00,-86.00
+27.00,+47.00,+1.00,-7.00,-72.00,+4.00,+1.00,+2.00,+48.00,+24.00,-8.00,-43.00,+20.00,-2.00,-1.00,-56.00
+4.00,-27.00,-1.00,+3.00,+55.00,+2.00,-19.00,-2.00,-13.00,+53.00,+15.00,+20.00,-49.00,-5.00,+1.00,-28.00
-17.00,+20.00,-4.00,-4.00,-32.00,+4.00,-38.00,-1.00,-6.00,-29.00,-2.00,-23.00,+16.00,-15.00,-31.00,+5.00
-14.00,-45.00,-1.00,+7.00,+127.00,+1.00,-7.00,-2.00,+37.00,+76.00,-20.00,+16.00,-26.00,+11.00,-8.00,-3.00
+33.00,+73.00,+5.00,+1.00,-25.00,+4.00,-1.00,+20.00,-55.00,+14.00,+15.00,-1.00,-16.00,+2.00,+2.00,-14.00
-45.00,-50.00,-9.00,-7.00,+45.00,+3.00,-31.00,-9.00,+74.00,-5.00,-1.00,+5.00,+23.00,+8.00,+29.00,+8.00
+58.00,+63.00,+3.00,-15.00,-7.00,+17.00,+4.00,+8.00,-27.00,+5.00,-1.00,-24.00,+72.00,-20.00,-18.00,+24.00
+0.00,-30.00,+13.00,+8.00,-11.00,+11.00,-26.00,+10.00,+61.00,-14.00,-3.00,+13.00,+33.00,+0.00,-4.00,+34.00
-86.00,+77.00,-4.00,-4.00,-7.00,-6.00,+29.00,-7.00,+56.00,+55.00,+13.00,-12.00,-26.00,+4.00,+10.00,+30.00
+51.00,-20.00,-2.00,+4.00,-31.00,+3.00,+9.00,+11.00,-48.00,+2.00,-4.00,-23.00,+8.00,-3.00,+4.00,+18.00
+20.00,+20.00,+6.00,+0.00,-5.00,-11.00,-4.00,-18.00,-12.00,-41.00,+11.00,+32.00,+25.00,+10.00,-11.00,+31.00
+38.00,+25.00,+14.00,+15.00,-21.00,+4.00,+28.00,+10.00,+57.00,+15.00,+9.00,-8.00,+27.00,-2.00,-15.00,+18.00
+22.00,-62.00,-2.00,-6.00,-30.00,-18.00,-17.00,-4.00,+36.00,-39.00,-16.00,-1.00,+50.00,+24.00,-7.00,+48.00
-5.00,-3.00,-5.00,+6.00,+59.00,+32.00,+8.00,-5.00,-44.00,-34.00,+9.00,-12.00,+5.00,+4.00,+23.00,+33.00
+40.00,+25.00,-6.00,-13.00,-59.00,-2.00,+17.00,+12.00,+55.00,-4.00,-6.00,-34.00,-115.00,-4.00,-8.00,+15.00
+8.00,+23.00,-2.00,-1.00,-9.00,+16.00,+26.00,+5.00,-22.00,-19.00,+3.00,+50.00,+45.00,+7.00,+21.00,+34.00
-22.00,-82.00,-12.00,-2.00,+53.00,-33.00,-44.00,-25.00,+62.00,+36.00,+18.00,-17.00,+27.00,+0.00,-2.00,+21.00
+6.00,-32.00,+5.00,+2.00,-39.00,-30.00,+29.00,+4.00,-87.00,+10.00,-1.00,+3.00,-29.00,-3.00,+22.00,+2.00
-37.00,+28.00,-2.00,+3.00,-57.00,+13.00,+13.00,+0.00,+77.00,+50.00,-12.00,+11.00,-16.00,+9.00,+35.00,+15.00
+15.00,+19.00,-13.00,-7.00,+54.00,-3.00,-3.00,-4.00,-105.00,-36.00,+7.00,+1.00,-21.00,-7.00,-4.00,-6.00
+74.00,-61.00,-2.00,-22.00,-66.00,+4.00,-4.00,+13.00,+101.00,+6.00,-13.00,-7.00,+7.00,-1.00,-50.00,-3.00
-49.00,+22.00,-3.00,+8.00,+50.00,-4.00,+11.00,-16.00,-12.00,-19.00,-2.00,-24.00,+56.00,+2.00,+54.00,+9.00
+1.00,+0.00,+22.00,+6.00,+2.00,-10.00,-9.00,+4.00,+18.00,-17.00,+8.00,+22.00,-53.00,-8.00,-14.00,-13.00
-41.00,-1.00,-6.00,+12.00,+37.00,-11.00,-27.00,-15.00,+14.00,-14.00,-15.00,-12.00,-22.00,-4.00,+10.00,-1.00
-13.00,-31.00,-8.00,-11.00,-55.00,-7.00,+14.00,+2.00,-30.00,+41.00,+1.00,+11.00,+24.00,-2.00,+1.00,-12.00
+29.00,+62.00,+6.00,+10.00,-61.00,-29.00,-15.00,+1.00,-44.00,-20.00,-21.00,-8.00,-28.00,-7.00,-69.00,-31.00
-39.00,-84.00,-30.00,-10.00,+53.00,-4.00,-32.00,-9.00,+71.00,+4.00,+1.00,-20.00,-8.00,+0.00,-18.00,+21.00
+57.00,+94.00,+11.00,+12.00,+19.00,-6.00,+8.00,-3.00,+45.00,-95.00,+12.00,-16.00,-13.00,+13.00,+7.00,-7.00
-32.00,-36.00,+0.00,+1.00,-40.00,-35.00,+16.00,-14.00,-94.00,+18.00,-7.00,+25.00,+22.00,-2.00,+7.00,-16.00
+46.00,+10.00,+7.00,-6.00,+28.00,+4.00,-17.00,+12.00,+68.00,+16.00,+18.00,+52.00,-25.00,-10.00,-6.00,-12.00
+7.00,-23.00,-7.00,-13.00,-60.00,-4.00,-21.00,+2.00,-61.00,-27.00,-12.00,-4.00,+11.00,+1.00,-3.00,-6.00
-49.00,-16.00,-4.00,-12.00,-40.00,-7.00,+2.00,-3.00,+26.00,+42.00,-8.00,-10.00,-50.00,-2.00,-11.00,+19.00
-7.00,+30.00,+9.00,+24.00,+69.00,+4.00,-5.00,-3.00,+61.00,-10.00,+3.00,-18.00,+47.00,-18.00,-9.00,+6.00
+35.00,+72.00,+12.00,+5.00,-70.00,-8.00,+19.00,+4.00,-32.00,-20.00,+4.00,+28.00,+52.00,-3.00,+28.00,-7.00
-5.00,-61.00,-7.00,-12.00,-102.00,-24.00,+24.00,+1.00,-23.00,-25.00,-4.00,-28.00,-6.00,+1.00,-19.00,-12.00
+73.00,+33.00,+5.00,-8.00,+56.00,+26.00,-21.00,-2.00,-128.00,-21.00,-7.00,+0.00,+65.00,+48.00,+21.00,-5.00
-69.00,-26.00,-2.00,-6.00,-70.00,-6.00,+0.00,-2.00,+98.00,+22.00,+4.00,+9.00,-28.00,+0.00,+11.00,-4.00
-24.00,-64.00,-18.00,-4.00,+51.00,+10.00,+3.00,+2.00,+75.00,+29.00,-9.00,-4.00,+3.00,+0.00,-4.00,-3.00
+34.00,+22.00,+3.00,-7.00,+4.00,+11.00,+10.00,+4.00,+5.00,-20.00,+20.00,+19.00,+27.00,+13.00,+44.00,-13.00
-9.00,+46.00,+11.00,+12.00,-3.00,-11.00,+9.00,+7.00,-8.00,-15.00,-14.00,-14.00,+26.00,-18.00,-3.00,-19.00
+16.00,-4.00,-5.00,-9.00,-82.00,-16.00,-11.00,-11.00,-76.00,-4.00,+26.00,+19.00,-125.00,-2.00,-7.00,+15.00
-86.00,-71.00,+0.00,+11.00,+32.00,+29.00,+7.00,-4.00,-9.00,+28.00,+9.00,-39.00,-42.00,-1.00,-9.00,-9.00
+6.00,-28.00,-3.00,+0.00,-11.00,+10.00,-12.00,+0.00,-6.00,-33.00,-11.00,-12.00,-2.00,-14.00,-18.00,+6.00
-60.00,-49.00,-8.00,-11.00,-116.00,-42.00,-7.00,-11.00,+19.00,+57.00,+29.00,+30.00,-13.00,-1.00,-7.00,-7.00
+85.00,+81.00,+1.00,-6.00,+32.00,+34.00,+7.00,+5.00,-61.00,-114.00,-12.00,-8.00,+41.00,-1.00,-12.00,-22.00
+28.00,+37.00,-6.00,-6.00,-42.00,-11.00,-10.00,-6.00,-79.00,-9.00,+10.00,+18.00,-32.00,+4.00,-71.00,+2.00
-32.00,-26.00,-13.00,-7.00,+7.00,-9.00,-21.00,-6.00,+64.00,+50.00,+9.00,+8.00,+13.00,+1.00,+21.00,+18.00
+11.00,+2.00,+6.00,+13.00,+33.00,-10.00,+13.00,-3.00,-4.00,+20.00,-8.00,+1.00,-4.00,-4.00,-52.00,-18.00
-27.00,-13.00,-9.00,+5.00,+127.00,+19.00,+9.00,-6.00,-60.00,+39.00,-13.00,+3.00,-45.00,-4.00,+30.00,-10.00
+10.00,-17.00,-6.00,-14.00,-58.00,+3.00,+10.00,+4.00,+22.00,-14.00,-9.00,+19.00,-58.00,+1.00,-15.00,+7.00
+46.00,+49.00,+21.00,+26.00,+26.00,-4.00,-9.00,+7.00,-57.00,-10.00,-15.00,-38.00,+5.00,-8.00,-26.00,-21.00
-64.00,+12.00,-6.00,-8.00,+10.00,+11.00,-11.00,+0.00,+68.00,-39.00,-6.00,+6.00,-26.00,-8.00,+3.00,+5.00
+37.00,-28.00,+3.00,+9.00,-3.00,-18.00,-3.00,+11.00,-7.00,+95.00,+18.00,+0.00,+77.00,+14.00,-26.00,+10.00
-51.00,-52.00,-46.00,-31.00,-58.00,+29.00,-14.00,-19.00,+4.00,-3.00,-12.00,+5.00,-46.00,+0.00,-22.00,-16.00
+71.00,+83.00,+19.00,-8.00,-59.00,-6.00,+27.00,+17.00,-25.00,+27.00,+5.00,+2.00,+12.00,-3.00,-1.00,-4.00
-1.00,-63.00,+12.00,+24.00,+110.00,+13.00,+1.00,+11.00,+63.00,-34.00,-5.00,-26.00,+35.00,-8.00,+4.00,+5.00
-39.00,-25.00,-18.00,-20.00,-10.00,-6.00,+2.00,+1.00,-34.00,-56.00,-17.00,-4.00,-49.00,-4.00,-31.00,-27.00
+25.00,+5.00,+10.00,+17.00,+99.00,+18.00,-47.00,+2.00,-55.00,-32.00,-1.00,+4.00,+2.00,-15.00,+39.00,+2.00
-32.00,+16.00,-7.00,+5.00,+15.00,-2.00,+13.00,-8.00,+91.00,+101.00,+15.00,-16.00,-43.00,+5.00,-16.00,+15.00
+23.00,-51.00,+0.00,-4.00,+16.00,-4.00,-5.00,-8.00,-100.00,-1.00,-21.00,-26.00,-5.00,-8.00,-4.00,-11.00
+65.00,+49.00,+22.00,+11.00,+17.00,+15.00,+0.00,+19.00,+21.00,-49.00,-5.00,-26.00,+32.00,+4.00,+5.00,+5.00
-3.00,+34.00,-6.00,-8.00,-47.00,-45.00,-6.00,-10.00,+21.00,+16.00,-3.00,-4.00,+52.00,+1.00,+46.00,-8.00
-34.00,+2.00,+1.00,+18.00,+105.00,+25.00,+48.00,+2.00,+5.00,+27.00,+10.00,+0.00,-14.00,-3.00,-17.00,+22.00
+22.00,+63.00,+1.00,-8.00,-54.00,-13.00,-36.00,-1.00,-87.00,-8.00,+6.00,+17.00,-79.00,-6.00,+15.00,-16.00
+0.00,-25.00,+13.00,+19.00,-1.00,+9.00,-8.00,+6.00,+84.00,+1.00,-18.00,+6.00,-26.00,-13.00,+6.00,+10.00
-53.00,-3.00,+2.00,-13.00,-68.00,-14.00,+5.00,-3.00,+30.00,-68.00,+6.00,-6.00,+6.00,+1.00,+21.00,-6.00
-41.00,-69.00,-7.00,+8.00,+77.00,-14.00,+6.00,-7.00,+14.00,+20.00,-4.00,+1.00,-19.00,-6.00,+3.00,-1.00
+19.00,+16.00,+14.00,+23.00,+77.00,-11.00,-33.00,-5.00,-42.00,+32.00,-1.00,-16.00,+9.00,+5.00,+30.00,+14.00
-42.00,-65.00,-18.00,-35.00,-91.00,-13.00,+10.00,-4.00,+95.00,-7.00,-6.00,+8.00,-30.00,+5.00,-27.00,-5.00
+1.00,+48.00,+2.00,-3.00,+27.00,+4.00,-3.00,-6.00,-60.00,+7.00,+3.00,+53.00,+78.00,+11.00,-7.00,-8.00
+21.00,+98.00,+5.00,+4.00,-16.00,+4.00,-5.00,+7.00,+32.00,+35.00,-22.00,-26.00,-71.00,-2.00,-4.00,+2.00
+4.00,-39.00,-14.00,-9.00,-45.00,-17.00,+0.00,-7.00,+80.00,+9.00,+10.00,+42.00,-55.00,-5.00,-10.00,+1.00
-21.00,-57.00,+4.00,+6.00,+39.00,-9.00,-16.00,-17.00,-128.00,+17.00,-7.00,-1.00,+40.00,-7.00,+3.00,-13.00
+49.00,-10.00,+20.00,+16.00,-4.00,+10.00,+14.00,+11.00,+104.00,+12.00,-1.00,-84.00,+59.00,+5.00,+0.00,+21.00
-73.00,-85.00,-17.00,-22.00,-30.00,-16.00,-4.00,-18.00,-128.00,-20.00,+1.00,+19.00,-75.00,-1.00,+31.00,-28.00
+18.00,+84.00,-12.00,+4.00,-35.00,+15.00,+24.00,+8.00,+98.00,+52.00,+20.00,+0.00,+9.00,-21.00,-73.00,-2.00
+28.00,+48.00,+22.00,+18.00,+91.00,-4.00,-15.00,+3.00,-5.00,-16.00,-4.00,-11.00,-21.00,-16.00,+35.00,+13.00
+33.00,+51.00,-5.00,-11.00,-46.00,-7.00,+28.00,+9.00,+12.00,+0.00,-7.00,+9.00,+54.00,+6.00,-1.00,+0.00
-24.00,-107.00,-4.00,-3.00,-3.00,-9.00,-18.00,-13.00,+11.00,-1.00,+16.00,+11.00,+26.00,+1.00,+4.00,-4.00
+9.00,+30.00,+9.00,+6.00,-9.00,+4.00,+9.00,+11.00,-30.00,-49.00,-29.00,+9.00,+37.00,+6.00,+9.00,-11.00
-75.00,+71.00,-4.00,-5.00,+80.00,+27.00,+5.00,-26.00,-25.00,+10.00,+12.00,-27.00,-27.00,+0.00,-36.00,+1.00
+54.00,+34.00,+1.00,-5.00,-65.00,+14.00,+14.00,+9.00,-3.00,+95.00,+10.00,+1.00,-52.00,-11.00,-14.00,+20.00
-45.00,-33.00,+5.00,+0.00,+65.00,+23.00,+30.00,+6.00,-43.00,-43.00,-4.00,+5.00,+92.00,+3.00,+3.00,-10.00
-1.00,+25.00,+9.00,+12.00,+24.00,-2.00,-4.00,-10.00,+19.00,-15.00,-3.00,-17.00,+23.00,-2.00,+14.00,-5.00
+11.00,+15.00,-13.00,-14.00,-48.00,-1.00,+5.00,+9.00,+40.00,-26.00,+1.00,+77.00,+10.00,+6.00,-23.00,+9.00
+2.00,-61.00,-5.00,-3.00,+1.00,-7.00,-60.00,+5.00,+0.00,-40.00,-6.00,-64.00,-110.00,-5.00,+34.00,-19.00
-23.00,-15.00,-6.00,-11.00,-52.00,-7.00,+27.00,-6.00,-28.00,+33.00,-6.00,-6.00,-16.00,+4.00,-22.00,+1.00
-15.00,-67.00,+5.00,+1.00,-51.00,+11.00,-3.00,+2.00,+84.00,+2.00,-9.00,+5.00,+17.00,+0.00,-18.00,-5.00
-3.00,+22.00,-6.00,-2.00,+51.00,+4.00,+2.00,+1.00,-103.00,-36.00,+4.00,+12.00,+100.00,+7.00,+12.00,-8.00
-10.00,-36.00,+1.00,-4.00,-25.00,-4.00,-9.00,-8.00,-22.00,+1.00,-2.00,-16.00,-26.00,-7.00,-50.00,+4.00
+75.00,+9.00,-4.00,+10.00,+64.00,-4.00,-13.00,+6.00,+41.00,+5.00,+5.00,+65.00,+5.00,+7.00,-2.00,+5.00
-81.00,-38.00,-11.00,-26.00,-38.00,-12.00,-8.00,-14.00,-33.00,-15.00,-20.00,-58.00,-30.00,-9.00,+12.00,-10.00
+83.00,+50.00,+15.00,+19.00,+15.00,+6.00,-2.00,+15.00,+42.00,+73.00,+9.00,+13.00,-28.00,+1.00,+12.00,-1.00
+24.00,-51.00,+1.00,+1.00,-42.00,-17.00,+11.00,+2.00,+19.00,-46.00,-5.00,-10.00,-6.00,-2.00,-2.00,-2.00
-52.00,+52.00,-1.00,+4.00,-12.00,+6.00,-11.00,-9.00,+5.00,-32.00,-11.00,-20.00,+46.00,-4.00,-22.00,-13.00
-7.00,-34.00,-13.00,-10.00,+62.00,-1.00,+20.00,+1.00,-73.00,+32.00,+13.00,+27.00,+10.00,+2.00,+21.00,+10.00
-31.00,-63.00,-16.00,-13.00,-73.00,-6.00,-21.00,-9.00,+37.00,-22.00,+6.00,-28.00,-39.00,+3.00,-17.00,-19.00
-54.00,+60.00,+10.00,+3.00,+3.00,+2.00,+26.00,-2.00,+4.00,+11.00,-5.00,+39.00,+69.00,-1.00,+10.00,-2.00
+96.00,+49.00,+15.00,+5.00,-23.00,-4.00,-11.00,+23.00,+14.00,+74.00,+21.00,+0.00,-33.00,-14.00,+3.00,+3.00
+34.00,+20.00,+2.00,+3.00,-60.00,-15.00,-13.00,+4.00,-37.00,-13.00,-2.00,+16.00,+86.00,+28.00,-14.00,-8.00
-13.00,+16.00,-12.00,-14.00,-55.00,+31.00,+26.00,+3.00,-64.00,-33.00,-21.00,-46.00,-24.00,+1.00,+30.00,+14.00
-18.00,+30.00,-10.00,-1.00,+63.00,-3.00,+35.00,-15.00,+15.00,-38.00,+7.00,+36.00,-24.00,+0.00,-17.00,-14.00
+26.00,-43.00,+9.00,+1.00,-76.00,-4.00,-4.00,+11.00,-16.00,-1.00,-26.00,-44.00,+48.00,-6.00,-86.00,-11.00
-32.00,-65.00,-3.00,-1.00,+6.00,+3.00,+8.00,+1.00,-34.00,+46.00,+12.00,-56.00,-31.00,-10.00,+50.00,+18.00
-3.00,+42.00,+2.00,+0.00,-9.00,-17.00,-10.00,-5.00,-18.00,+3.00,+8.00,+28.00,+19.00,-3.00,+38.00,+0.00
-4.00,-12.00,-1.00,+16.00,+99.00,+18.00,-2.00,+4.00,+80.00,+49.00,-11.00,+16.00,-2.00,+5.00,+4.00,+8.00
+24.00,+30.00,-11.00,-11.00,-17.00,-6.00,-64.00,-13.00,-84.00,-68.00,+2.00,+1.00,-24.00,+2.00,-44.00,-16.00
-31.00,-22.00,+1.00,-1.00,+3.00,-6.00,+30.00,+2.00,+43.00,+17.00,+1.00,-26.00,-99.00,-10.00,-10.00,+3.00
-1.00,-97.00,-2.00,+4.00,-4.00,-22.00,-4.00,-9.00,+42.00,-8.00,-5.00,+2.00,+11.00,-7.00,-23.00,+3.00
-24.00,+5.00,+8.00,+20.00,+90.00,-15.00,-7.00,-13.00,-51.00,-74.00,+2.00,-12.00,-17.00,-5.00,+13.00,+5.00
+11.00,+23.00,-8.00,-21.00,-46.00,+1.00,-8.00,+8.00,-2.00,+53.00,+11.00,-12.00,+52.00,+7.00,+11.00,-9.00
+2.00,+2.00,-12.00,-9.00,+18.00,-16.00,-8.00,-7.00,+20.00,-38.00,-7.00,-2.00,-4.00,-3.00,-1.00,+5.00
-24.00,-17.00,+20.00,+8.00,+3.00,+1.00,-57.00,+6.00,-11.00,-56.00,+5.00,+28.00,-46.00,+2.00,-2.00,-3.00
-19.00,-22.00,-10.00,-16.00,-40.00,+3.00,+20.00,-1.00,-72.00,-46.00,-30.00,-13.00,+37.00,-4.00,-2.00,+1.00
+59.00,+43.00,+12.00,+17.00,+112.00,+3.00,+22.00,-1.00,+121.00,+50.00,+8.00,-1.00,-31.00,+4.00,+5.00,+8.00
-4.00,-27.00,-17.00,-22.00,-42.00,-2.00,-9.00,-8.00,-74.00,-57.00,-4.00,+8.00,+37.00,+2.00,+5.00,-2.00
+16.00,+22.00,-3.00,-3.00,-56.00,+1.00,+43.00,+5.00,-5.00,+16.00,+2.00,-23.00,-10.00,-1.00,+8.00,+4.00
+19.00,-69.00,+14.00,+21.00,+55.00,+8.00,-3.00,+16.00,+25.00,+82.00,+18.00,+10.00,+13.00,+3.00,-3.00,-15.00
-70.00,-17.00,-8.00,-15.00,-40.00,-15.00,-12.00,-21.00,-41.00,-26.00,+10.00,+31.00,+22.00,-1.00,-3.00,+10.00
+34.00,+19.00,-4.00,+0.00,+45.00,+7.00,+30.00,+1.00,+22.00,+20.00,+8.00,-18.00,-60.00,+2.00,+1.00,+8.00
+10.00,+46.00,+1.00,+19.00,+82.00,-5.00,-4.00,-1.00,-61.00,-35.00,-20.00,-15.00,+47.00,+25.00,+44.00,-13.00
-16.00,-7.00,-9.00,-29.00,-53.00,-3.00,-9.00,-2.00,+98.00,+19.00,-2.00,+7.00,-9.00,-1.00,-10.00,+5.00
+3.00,-61.00,-7.00,-5.00,-65.00,-6.00,+6.00,+4.00,-68.00,-18.00,-3.00,-9.00,-69.00,-5.00,+26.00,+1.00
+30.00,+31.00,+16.00,+15.00,+43.00,+7.00,-13.00,-1.00,+118.00,+12.00,+1.00,+52.00,+28.00,-1.00,-6.00,-6.00
-8.00,+27.00,+0.00,+0.00,+6.00,+9.00,+3.00,-1.00,-46.00,-33.00,-3.00,-9.00,-5.00,-8.00,-12.00,-7.00
-11.00,+23.00,+3.00,-3.00,-56.00,-10.00,-8.00,-5.00,-14.00,+56.00,+16.00,-19.00,-20.00,-3.00,-42.00,-5.00
-63.00,-25.00,-21.00,-7.00,+56.00,+23.00,-2.00,-18.00,-12.00,-9.00,-2.00,+14.00,-6.00,-3.00,-8.00,+6.00
+21.00,+31.00,+3.00,-9.00,-52.00,+3.00,+5.00,+15.00,-36.00,-39.00,-31.00,+14.00,+34.00,-4.00,-1.00,+0.00
-25.00,-44.00,-7.00,+1.00,+28.00,-11.00,-1.00,-5.00,+67.00,+103.00,+19.00,+2.00,+5.00,-1.00,-10.00,-3.00
-2.00,-23.00,-1.00,+5.00,+50.00,+27.00,+8.00,+4.00,-77.00,-17.00,-13.00,-1.00,-33.00,-6.00,+15.00,-9.00
+56.00,+71.00,+2.00,+2.00,+6.00,+2.00,-8.00,+1.00,-61.00,-110.00,-9.00,-9.00,-9.00,-4.00,+6.00,-11.00
-21.00,+0.00,+3.00,+3.00,+1.00,+7.00,+5.00,+0.00,-3.00,+108.00,+25.00,+18.00,-71.00,+2.00,+3.00,+23.00
-13.00,-30.00,+3.00,-5.00,-38.00,+1.00,+10.00,-1.00,+74.00,-42.00,-6.00,-16.00,-31.00,-11.00,-4.00,+3.00
-44.00,-20.00,-10.00,-5.00,-36.00,-12.00,-12.00,-10.00,-97.00,-15.00,-14.00,-15.00,-46.00,+0.00,-1.00,-19.00
+69.00,+45.00,+8.00,+10.00,-1.00,+11.00,+17.00,+20.00,+33.00,-11.00,+9.00,+7.00,-12.00,+1.00,+23.00,+10.00
-66.00,-25.00,+1.00,-1.00,+1.00,+9.00,-14.00,-12.00,-20.00,-52.00,-13.00,-19.00,+14.00,-5.00,-8.00,-11.00
+37.00,+25.00,+11.00,+3.00,-28.00,-2.00,-4.00,+8.00,+109.00,+30.00,+4.00,+22.00,-3.00,-1.00,-19.00,+9.00
-1.00,+1.00,-8.00,-10.00,-33.00,+1.00,-14.00,-3.00,-58.00,-82.00,-4.00,-15.00,+21.00,-2.00,+4.00,-1.00
-40.00,-17.00,-6.00,+12.00,+36.00,+4.00,+3.00,-7.00,+15.00,+35.00,-15.00,+18.00,-16.00,-2.00,+43.00,-5.00
-24.00,-66.00,-8.00,-23.00,-34.00,+17.00,+3.00,-6.00,-9.00,+9.00,+2.00,-18.00,+30.00,+0.00,+8.00,-3.00
+37.00,+16.00,+1.00,+5.00,+15.00,-17.00,-11.00,+10.00,-16.00,+6.00,-12.00,+3.00,+1.00,-5.00,+12.00,+1.00
+56.00,+11.00,+5.00,+5.00,+59.00,-6.00,-31.00,+2.00,-78.00,-61.00,+7.00,+17.00,+11.00,+3.00,+4.00,+2.00
-26.00,-48.00,-1.00,+4.00,+49.00,-2.00,-6.00,-5.00,+121.00,+69.00,+2.00,-16.00,-2.00,-1.00,-29.00,-2.00
+2.00,+4.00,+6.00,+7.00,+9.00,-9.00,+5.00,+6.00,-26.00,+13.00,-3.00,-12.00,+2.00,-20.00,+2.00,+3.00
-18.00,+10.00,-11.00,-6.00,+38.00,+14.00,+29.00,-13.00,-6.00,-10.00,-7.00,+3.00,+7.00,+5.00,-6.00,+2.00
+81.00,+13.00,+13.00,+2.00,+7.00,-4.00,-10.00,+15.00,+50.00,+24.00,-2.00,+5.00,-7.00,-1.00,+8.00,+7.00
-29.00,+19.00,-1.00,-6.00,-24.00,-11.00,-5.00,-6.00,-32.00,-52.00,-8.00,-2.00,+4.00,-2.00,+0.00,+3.00
+10.00,-21.00,-7.00,-8.00,-43.00,+0.00,+7.00,-8.00,-17.00,+0.00,+14.00,+5.00,+23.00,+0.00,+1.00,-4.00
+58.00,+28.00,+2.00,+2.00,-38.00,-6.00,+0.00,+5.00,-81.00,-49.00,-20.00,-9.00,-14.00,-4.00,-23.00,-19.00
-13.00,-2.00,-9.00,+2.00,-4.00,-12.00,-4.00,-5.00,+94.00,+53.00,+1.00,+12.00,+18.00,+2.00,+7.00,+14.00
-18.00,+26.00,+5.00,-3.00,-31.00,+1.00,+3.00,-9.00,-27.00,+18.00,+9.00,+5.00,-19.00,-1.00,-7.00,-1.00
+35.00,+16.00,-5.00,-7.00,-13.00,+0.00,-8.00,+4.00,-2.00,-24.00,+0.00,-15.00,-3.00,-7.00,+8.00,-6.00
-56.00,-6.00,+5.00,+1.00,+2.00,+4.00,-28.00,-7.00,+43.00,+18.00,+0.00,+4.00,-11.00,-1.00,-2.00,+8.00
+11.00,+43.00,-2.00,+1.00,-4.00,+12.00,+34.00,+4.00,-11.00,+21.00,-1.00,+6.00,+12.00,+4.00,-3.00,+3.00
-9.00,-45.00,-3.00,-8.00,-13.00,-4.00,+4.00,-3.00,-40.00,-40.00,-9.00,-14.00,+26.00,-2.00,+23.00,+4.00
-4.00,+11.00,+2.00,+7.00,+4.00,-3.00,-7.00,-3.00,+13.00,+1.00,+0.00,-3.00,-20.00,+4.00,-33.00,+23.00
-28.00,-55.00,-8.00,-2.00,+5.00,-1.00,-1.00,-4.00,+33.00,+37.00,+0.00,+8.00,-11.00,+1.00,-25.00,+12.00
-18.00,-14.00,-8.00,-9.00,+1.00,+0.00,+3.00,-6.00,-19.00,+39.00,-1.00,+17.00,-35.00,-2.00,+13.00,+6.00
+53.00,-6.00,+16.00,+5.00,-22.00,-7.00,+11.00,+7.00,+20.00,-33.00,+3.00,-35.00,+84.00,-2.00,-15.00,-12.00
+10.00,-35.00,-4.00,+0.00,+61.00,+3.00,+6.00,+8.00,-12.00,+12.00,-4.00,-11.00,+15.00,+3.00,-8.00,-15.00
-4.00,+63.00,-1.00,+8.00,-17.00,-20.00,-3.00,-4.00,+9.00,+18.00,+11.00,-12.00,+1.00,-6.00,-2.00,-26.00
-38.00,+6.00,+3.00,-7.00,-8.00,+6.00,-6.00,-6.00,+19.00,+0.00,-12.00,-4.00,-3.00,-1.00,-5.00,-13.00
+11.00,+22.00,+1.00,+3.00,+10.00,+0.00,+19.00,-1.00,+0.00,-28.00,-9.00,+13.00,-17.00,-2.00,+10.00,+9.00
+2.00,-15.00,+6.00,+1.00,-49.00,+13.00,+25.00,+3.00,-24.00,+14.00,+4.00,+2.00,-1.00,+3.00,-5.00,+24.00
-2.00,+14.00,-9.00,-6.00,-7.00,-2.00,+6.00,-2.00,-17.00,+5.00,+1.00,+4.00,+19.00,-1.00,+1.00,+28.00
+1.00,-15.00,-8.00,+7.00,+22.00,-5.00,-3.00,-1.00,+25.00,-17.00,+7.00,-11.00,-3.00,+0.00,+8.00,+11.00
-23.00,-2.00,-5.00,-15.00,-52.00,-12.00,-7.00,-4.00,+8.00,+5.00,-10.00,-2.00,-20.00,+0.00,+10.00,-4.00
+22.00,+46.00,-6.00,-4.00,-20.00,+0.00,-32.00,+9.00,-57.00,-12.00,-1.00,-1.00,+12.00,+0.00,-6.00,-34.00
-27.00,-41.00,+0.00,-2.00,+32.00,+14.00,+14.00,+4.00,+53.00,-11.00,+1.00,+3.00,-17.00,-4.00,-9.00,-8.00
+34.00,+51.00,+4.00,+1.00,-22.00,-1.00,+6.00,+6.00,-12.00,-23.00,-9.00,-10.00,+10.00,-1.00,-5.00,-1.00
-10.00,-19.00,+5.00,+5.00,+9.00,+2.00,+7.00,+7.00,-18.00,+21.00,-6.00,+0.00,-11.00,-2.00,+4.00,+1.00
+7.00,+1.00,-3.00,+3.00,+2.00,-9.00,-8.00,+0.00,+67.00,+30.00,+0.00,+4.00,+3.00,+2.00,-4.00,+3.00
-8.00,-26.00,-3.00,-6.00,-11.00,+3.00,+0.00,+1.00,-51.00,-82.00,-4.00,-3.00,+5.00,-1.00,+3.00,+5.00
-30.00,-4.00,+1.00,+0.00,-11.00,-12.00,-10.00,-5.00,-39.00,+70.00,+7.00,-4.00,+1.00,+3.00,-1.00,+9.00
+32.00,+5.00,-1.00,-4.00,-12.00,-7.00,-16.00,+4.00,+45.00,-38.00,-13.00,+3.00,+0.00,-2.00,+2.00,+1.00
-11.00,+32.00,-3.00,-3.00,+4.00,-4.00,-14.00,+0.00,+9.00,+58.00,+4.00,+1.00,+14.00,+8.00,+10.00,-15.00
-4.00,-51.00,-2.00,-7.00,-3.00,+1.00,+4.00,-1.00,-93.00,-24.00,-6.00,+9.00,+6.00,-13.00,+7.00,-11.00
+64.00,+65.00,+12.00,+5.00,-4.00,+4.00,+0.00,+9.00,+24.00,-21.00,+6.00,+9.00,+45.00,-3.00,-5.00,+8.00
-23.00,+6.00,+3.00,+4.00,+6.00,+1.00,-4.00,-6.00,+3.00,-7.00,+0.00,+1.00,-72.00,+23.00,+27.00,+2.00
+2.00,+11.00,-1.00,+6.00,+11.00,-2.00,+4.00,-4.00,-42.00,-34.00,-3.00,-18.00,+36.00,-4.00,+4.00,-3.00
+23.00,-49.00,-14.00,-1.00,-10.00,-3.00,+3.00,-3.00,-31.00,+12.00,+1.00,+1.00,-2.00,+4.00,+13.00,+2.00
-44.00,-26.00,+3.00,-12.00,-5.00,-4.00,-7.00,-3.00,-4.00,-32.00,+4.00,-11.00,+4.00,-2.00,-7.00,-1.00
-6.00,+7.00,-5.00,+2.00,+21.00,-6.00,-3.00,-6.00,+24.00,+32.00,+3.00,+12.00,+9.00,-7.00,-6.00,-49.00
+7.00,+1.00,+8.00,-2.00,-16.00,-3.00,+0.00,+7.00,-21.00,-53.00,-10.00,+1.00,-15.00,-1.00,+1.00,-18.00
+6.00,-14.00,+2.00,-2.00,+3.00,+2.00,-13.00,-5.00,+18.00,+70.00,-1.00,-6.00,+2.00,+8.00,-18.00,+19.00
+8.00,-16.00,-8.00,+2.00,+14.00,+1.00,+26.00,-8.00,+27.00,-26.00,+0.00,-3.00,-16.00,-10.00,+31.00,+16.00
-30.00,+10.00,-5.00,-1.00,-10.00,-8.00,-6.00,-10.00,-105.00,-50.00,+0.00,+3.00,+3.00,-1.00,-9.00,+23.00
-6.00,-50.00,+1.00,+6.00,+12.00,-8.00,-6.00,-16.00,+51.00,+11.00,+7.00,+2.00,-9.00,+0.00,-22.00,+12.00
+2.00,+44.00,+6.00,+2.00,+11.00,+6.00,-11.00,-9.00,+13.00,-13.00,+0.00,-2.00,+5.00,-8.00,+18.00,-19.00
-43.00,-66.00,-8.00,-4.00,+1.00,+3.00,-8.00,-6.00,+12.00,+22.00,-1.00,-1.00,-14.00,+1.00,-2.00,-10.00
+17.00,+80.00,+4.00,+2.00,+16.00,+13.00,+8.00,+1.00,-8.00,+4.00,+2.00,-1.00,+6.00,-5.00,+2.00,+0.00
+0.00,-17.00,-6.00,-5.00,-18.00,-8.00,-7.00,-8.00,+13.00,+9.00,+9.00,+4.00,+4.00,-1.00,-8.00,+0.00
-10.00,-19.00,+0.00,-3.00,-19.00,-4.00,+1.00,+0.00,+1.00,-50.00,-7.00,-5.00,-3.00,+3.00,-3.00,+28.00
+11.00,+15.00,+0.00,-3.00,+7.00,-6.00,-7.00,-3.00,-38.00,+3.00,-2.00,-5.00,-3.00,+0.00,-7.00,+1.00
-10.00,-87.00,-6.00,-4.00,-25.00,-16.00,-7.00,+2.00,+0.00,+8.00,-1.00,+3.00,+8.00,-5.00,-7.00,+3.00
-36.00,-2.00,-8.00,-2.00,+3.00,+6.00,+41.00,-11.00,-9.00,+7.00,-4.00,+3.00,-11.00,-3.00,+37.00,+2.00
+43.00,+48.00,+13.00,+1.00,+12.00,+3.00,+19.00,+9.00,+30.00,+18.00,+0.00,-5.00,-3.00,+2.00,-5.00,-17.00
-24.00,-6.00,-3.00,+0.00,-2.00,+9.00,-14.00,-10.00,-49.00,-42.00,-7.00,-6.00,-8.00,+0.00,-4.00,-28.00
+25.00,-30.00,+1.00,-2.00,+4.00,-1.00,+14.00,+5.00,+79.00,+52.00,+13.00,+4.00,-9.00,-4.00,-10.00,-7.00
-15.00,+9.00,-12.00,-5.00,+3.00,+2.00,-17.00,-1.00,-11.00,-18.00,+0.00,+1.00,+13.00,+6.00,+5.00,+2.00
-15.00,-12.00,-2.00,-8.00,-7.00,+2.00,-16.00,-3.00,-16.00,+16.00,+5.00,+9.00,+2.00,-13.00,+26.00,-14.00
-12.00,-46.00,+1.00,+2.00,-7.00,-4.00,+29.00,+1.00,-19.00,+6.00,-1.00,-8.00,-3.00,-1.00,-1.00,-15.00
-34.00,+30.00,-5.00,+9.00,+5.00,+5.00,-9.00,-3.00,+47.00,+45.00,-2.00,+0.00,+4.00,-2.00,+3.00,-3.00
+17.00,-13.00,+10.00,-8.00,+2.00,+6.00,-4.00,+2.00,-8.00,-39.00,-9.00,-2.00,-7.00,-3.00,+7.00,+10.00
+22.00,-6.00,-12.00,-5.00,-16.00,-4.00,-4.00,+3.00,+12.00,-22.00,-8.00,-5.00,+2.00,+4.00,-15.00,-2.00
+2.00,+32.00,+2.00,-3.00,-6.00,-6.00,-20.00,+3.00,+39.00,+21.00,+10.00,+1.00,-7.00,-2.00,-8.00,-4.00
-27.00,-11.00,-7.00,-1.00,-9.00,+5.00,+7.00,-4.00,-40.00,-11.00,+5.00,+1.00,+24.00,-29.00,-2.00,-5.00
+12.00,+17.00,+7.00,+8.00,+26.00,+2.00,+19.00,+3.00,-24.00,-13.00,-6.00,-1.00,-9.00,+6.00,-13.00,-16.00
-48.00,-19.00,+3.00,-4.00,-12.00,-6.00,+6.00,-7.00,-27.00,-19.00,-9.00,-4.00,+2.00,-1.00,-7.00,-15.00
+33.00,+32.00,+2.00,+2.00,-3.00,-1.00,+0.00,+7.00,+65.00,+27.00,+3.00,-2.00,-5.00,+1.00,-4.00,+5.00
-3.00,+14.00,+5.00,-2.00,-1.00,+3.00,-8.00,+0.00,+15.00,-22.00,+2.00,-5.00,-4.00,-4.00,+4.00,+3.00
-3.00,-13.00,-7.00,+4.00,+15.00,-2.00,-7.00,-2.00,-27.00,+22.00,+7.00,+2.00,-3.00,-7.00,-5.00,-9.00
-38.00,+7.00,+0.00,-4.00,-3.00,-3.00,+2.00,-8.00,+0.00,-15.00,-6.00,-1.00,-2.00,+4.00,-7.00,-13.00
+36.00,+3.00,+4.00,+1.00,+3.00,-6.00,+1.00,+15.00,-20.00,-17.00,-3.00,-2.00,+0.00,-5.00,-5.00,+26.00
+10.00,-13.00,-6.00,-8.00,-5.00,+2.00,-2.00,+5.00,+22.00,-1.00,-5.00,-1.00,+0.00,+7.00,-4.00,+48.00
+11.00,+17.00,-5.00,-2.00,-14.00,-5.00,-9.00,+3.00,-11.00,-38.00,-3.00,-1.00,-4.00,-3.00,+2.00,+48.00
+1.00,-4.00,-3.00,+0.00,+1.00,+5.00,-7.00,+0.00,+25.00,+71.00,+0.00,-1.00,-5.00,+4.00,+8.00,+15.00
+38.00,+26.00,+3.00,+2.00,-1.00,-4.00,-51.00,-5.00,-62.00,-8.00,+6.00,+1.00,-12.00,+5.00,-14.00,-21.00
+5.00,-15.00,-4.00,-5.00,-6.00,-12.00,+5.00,-1.00,-14.00,-5.00,-12.00,-2.00,+24.00,+9.00,-33.00,-43.00
-2.00,+23.00,+4.00,-3.00,-7.00,+15.00,+8.00,+3.00,+3.00,+1.00,-3.00,-4.00,-6.00,-1.00,-1.00,-37.00
-3.00,+12.00,+1.00,+7.00,+10.00,+0.00,+13.00,+4.00,-19.00,+7.00,+7.00,-2.00,-1.00,-4.00,+4.00,-44.00
-18.00,+12.00,-4.00,+1.00,-5.00,-8.00,-8.00,+1.00,+27.00,-12.00,-3.00,+0.00,-19.00,-1.00,-17.00,-59.00
-10.00,+3.00,+1.00,-7.00,+2.00,+4.00,-7.00,-9.00,-38.00,-13.00,-9.00,-3.00,+4.00,-7.00,+2.00,-38.00
-1.00,+61.00,+0.00,+2.00,+1.00,-7.00,-7.00,-12.00,+40.00,+11.00,+9.00,+3.00,+5.00,+3.00,+1.00,-23.00
-26.00,-61.00,-6.00,-3.00,-5.00,-2.00,-2.00,-3.00,+30.00,-16.00,-1.00,-4.00,+1.00,+0.00,-47.00,+6.00
+11.00,+92.00,+5.00,+2.00,-2.00,+3.00,+12.00,-1.00,-34.00,+6.00,-4.00,-2.00,+7.00,-3.00,+0.00,+12.00
+20.00,-11.00,-9.00,+3.00,+1.00,+2.00,+37.00,+11.00,-7.00,-13.00,-8.00,-2.00,-4.00,+11.00,+13.00,+34.00
-5.00,+14.00,+14.00,-7.00,+0.00,-6.00,+31.00,-2.00,+16.00,+29.00,+2.00,-2.00,-13.00,-3.00,-3.00,+23.00
+29.00,-9.00,-4.00,+3.00,-1.00,+17.00,-14.00,-1.00,-8.00,+11.00,+1.00,-5.00,-20.00,-4.00,-1.00,+24.00
-35.00,+11.00,-4.00,+0.00,-2.00,-7.00,+6.00,-10.00,-7.00,-27.00,+4.00,+5.00,+3.00,+6.00,+7.00,+29.00
+5.00,-11.00,+2.00,+1.00,+5.00,+9.00,+12.00,+6.00,-9.00,+19.00,+5.00,-4.00,-8.00,-6.00,+5.00,+2.00
-12.00,-2.00,-3.00,-2.00,-6.00,-10.00,-23.00,-1.00,+13.00,-13.00,-4.00,+1.00,+8.00,-3.00,+4.00,+5.00
+16.00,-4.00,+1.00,-1.00,+1.00,-6.00,+3.00,-6.00,-47.00,-22.00,-2.00,+3.00,+5.00,+4.00,-20.00,+1.00
-17.00,-56.00,-3.00,+0.00,-11.00,+1.00,+8.00,+0.00,+24.00,+27.00,-14.00,-11.00,-12.00,-35.00,+8.00,+2.00
-35.00,+1.00,-1.00,-1.00,+31.00,+5.00,-13.00,-3.00,+21.00,+1.00,+9.00,+0.00,-17.00,+9.00,-33.00,+5.00
+23.00,+6.00,-1.00,-1.00,-11.00,-2.00,-5.00,+12.00,+1.00,-23.00,-7.00,+0.00,+9.00,-11.00,-38.00,+0.00
-11.00,-27.00,-3.00,-4.00,-11.00,+3.00,+29.00,+3.00,-16.00,+29.00,+6.00,-3.00,+3.00,+5.00,+16.00,-3.00
-14.00,+32.00,+1.00,-1.00,+8.00,-2.00,+5.00,-3.00,+29.00,-13.00,-3.00,-2.00,+10.00,-11.00,-2.00,+1.00
+10.00,-16.00,-1.00,-2.00,-10.00,-7.00,-7.00,-2.00,-5.00,-6.00,-3.00,+0.00,+2.00,-1.00,+9.00,+1.00
-2.00,+8.00,-4.00,+6.00,+3.00,+2.00,-4.00,-1.00,-31.00,+13.00,-7.00,-3.00,-5.00,+0.00,+2.00,+7.00
-6.00,+12.00,+0.00,-2.00,-1.00,-5.00,-14.00,-1.00,+61.00,-35.00,-5.00,-4.00,+3.00,-6.00,+5.00,-5.00
+2.00,-31.00,+1.00,-4.00,-4.00,+3.00,+5.00,-2.00,-71.00,+8.00,-8.00,+9.00,+8.00,+12.00,+9.00,+7.00
-22.00,-20.00,-2.00,+6.00,-12.00,-2.00,-1.00,-3.00,+15.00,+9.00,-6.00,-6.00,+7.00,+9.00,+8.00,+3.00
-6.00,+2.00,+4.00,-8.00,+5.00,-8.00,-72.00,-6.00,-27.00,-24.00,-3.00,+1.00,-10.00,-16.00,+7.00,-14.00
+16.00,+3.00,-11.00,-4.00,+0.00,-4.00,-15.00,+1.00,+16.00,-3.00,-4.00,-3.00,-7.00,-4.00,+1.00,+1.00
+14.00,-38.00,-2.00,+0.00,+1.00,+0.00,+8.00,+0.00,-1.00,-1.00,-2.00,-2.00,+18.00,+6.00,+18.00,+1.00
-8.00,+3.00,-1.00,-8.00,-4.00,-16.00,-16.00,-12.00,-11.00,-44.00,+6.00,+3.00,-11.00,+2.00,+6.00,-7.00
+13.00,-2.00,+2.00,+10.00,-1.00,+8.00,+16.00,-3.00,-6.00,+39.00,-5.00,-2.00,+10.00,+0.00,+4.00,+1.00
+7.00,-7.00,+1.00,+1.00,+1.00,-5.00,-9.00,+0.00,-11.00,-8.00,-1.00,-1.00,-8.00,-2.00,-4.00,-4.00
-22.00,-14.00,-2.00,-6.00,+0.00,-4.00,+6.00,+0.00,+33.00,+12.00,+3.00,-4.00,+2.00,+2.00,-9.00,-5.00
+12.00,-9.00,-1.00,+9.00,-17.00,-5.00,-35.00,-9.00,-5.00,+9.00,-1.00,+0.00,-4.00,-2.00,+11.00,+10.00
+28.00,+37.00,+3.00,-9.00,+6.00,+2.00,+23.00,+7.00,-23.00,-42.00,-8.00,-1.00,+3.00,+6.00,-32.00,-5.00
-1.00,+0.00,+12.00,+2.00,+13.00,+12.00,+27.00,-1.00,-5.00,+33.00,+17.00,+0.00,-7.00,-4.00,+0.00,+2.00
+3.00,-9.00,+1.00,+2.00,+6.00,-3.00,+3.00,-7.00,+22.00,+6.00,-2.00,-1.00,+15.00,+5.00,+2.00,-2.00
-14.00,-14.00,-8.00,+0.00,-7.00,+6.00,+4.00,-3.00,-35.00,-17.00,+0.00,+3.00,+6.00,-40.00,+6.00,-2.00
-3.00,-64.00,-8.00,+4.00,+3.00,+6.00,+6.00,+0.00,+19.00,+2.00,-4.00,-2.00,-9.00,+23.00,+12.00,-2.00
-2.00,+77.00,+1.00,-6.00,-16.00,-1.00,+1.00,-5.00,-11.00,-5.00,-5.00,-1.00,+6.00,+3.00,-1.00,-3.00
+8.00,-15.00,-6.00,+0.00,+2.00,-1.00,-10.00,+1.00,+0.00,-3.00,+0.00,+1.00,-8.00,+3.00,-10.00,+6.00
+9.00,+20.00,+10.00,-1.00,+10.00,+4.00,+0.00,+7.00,+30.00,+21.00,-2.00,-8.00,-6.00,-6.00,+10.00,+1.00
-1.00,-13.00,-9.00,-3.00,-8.00,-6.00,+6.00,+1.00,-8.00,+7.00,+1.00,+2.00,-2.00,-10.00,+6.00,-7.00
-16.00,-8.00,-5.00,+1.00,-1.00,-8.00,-11.00,-1.00,-14.00,-32.00,+2.00,+2.00,+3.00,-1.00,+0.00,+1.00
+13.00,+2.00,+8.00,+3.00,-1.00,+2.00,-70.00,-1.00,+4.00,+31.00,+1.00,-1.00,+7.00,+4.00,+6.00,-3.00
-15.00,-20.00,-3.00,-2.00,+2.00,-10.00,+26.00,-4.00,+10.00,+5.00,-4.00,-2.00,-6.00,+5.00,+12.00,+4.00
+4.00,+39.00,-3.00,-1.00,+2.00,+3.00,+19.00,+8.00,+28.00,+7.00,+2.00,-2.00,-20.00,+3.00,+2.00,+1.00
-9.00,-7.00,+3.00,-1.00,-6.00,-4.00,+4.00,+6.00,+11.00,+4.00,-9.00,-1.00,+15.00,+5.00,+1.00,+3.00
-24.00,-45.00,-7.00,-2.00,-7.00,-3.00,+2.00,-5.00,-21.00,-33.00,+0.00,+4.00,-10.00,-3.00,-9.00,+1.00
-4.00,+38.00,+2.00,+3.00,+0.00,+0.00,-13.00,-3.00,-11.00,-3.00,-3.00,+1.00,-10.00,+5.00,-3.00,+0.00
+6.00,-32.00,-8.00,-6.00,-3.00,+2.00,-11.00,-2.00,+14.00,-11.00,+2.00,+3.00,+20.00,+1.00,+14.00,+3.00
-8.00,+32.00,+9.00,+3.00,+7.00,-5.00,-9.00,-1.00,-19.00,+25.00,+2.00,-3.00,-11.00,-7.00,-43.00,-4.00
+24.00,+36.00,-1.00,-2.00,-4.00,-3.00,+9.00,-1.00,+6.00,-44.00,-14.00,-4.00,-2.00,+3.00,-14.00,-1.00
-5.00,+29.00,-1.00,-3.00,-8.00,+0.00,+12.00,+1.00,+32.00,+51.00,+8.00,-2.00,-3.00,+5.00,-12.00,+0.00
-13.00,-20.00,-6.00,+4.00,+17.00,+3.00,+3.00,-6.00,-2.00,+2.00,+0.00,+2.00,-9.00,-4.00,+10.00,-4.00
+10.00,-6.00,+1.00,+3.00,+0.00,-2.00,-10.00,+0.00,+9.00,-21.00,-4.00,-1.00,-1.00,-1.00,+15.00,+7.00
-16.00,-6.00,-5.00,-5.00,+6.00,+5.00,+11.00,-7.00,-17.00,+15.00,+0.00,-5.00,-4.00,+1.00,+9.00,-8.00
+19.00,-33.00,-2.00,-6.00,-11.00,-3.00,-2.00,+3.00,+7.00,+1.00,-2.00,+4.00,+2.00,+7.00,+0.00,-1.00
+13.00,+26.00,+6.00,+1.00,+6.00,-5.00,-5.00,-4.00,-4.00,-8.00,+2.00,+1.00,+5.00,-3.00,+4.00,-4.00
+23.00,-26.00,-5.00,+1.00,+4.00,+6.00,+16.00,+3.00,-7.00,-2.00,-7.00,-7.00,+0.00,+2.00,+13.00,+5.00
-28.00,-7.00,+6.00,+5.00,+5.00,-5.00,-24.00,-4.00,-1.00,-25.00,-4.00,-6.00,-9.00,-3.00,-14.00,-1.00
-6.00,-28.00,-12.00,+3.00,-2.00,+2.00,-8.00,-3.00,-17.00,-18.00,+3.00,+1.00,+0.00,+1.00,+1.00,-5.00
-28.00,+60.00,+4.00,-12.00,-13.00,-5.00,-1.00,-2.00,-7.00,+46.00,-2.00,-4.00,+1.00,-1.00,+2.00,+5.00
-31.00,+1.00,+1.00,+1.00,+5.00,-3.00,-2.00,-5.00,-2.00,-6.00,-2.00,+0.00,+0.00,+0.00,-3.00,-6.00
+17.00,-9.00,+3.00,+4.00,-7.00,+2.00,+21.00,+9.00,+5.00,+5.00,+4.00,+0.00,-4.00,-1.00,+0.00,-1.00
-3.00,+9.00,-4.00,-6.00,+3.00,+1.00,-5.00,-5.00,+3.00,+0.00,+0.00,-1.00,+2.00,+1.00,-8.00,+5.00
+13.00,-20.00,+1.00,+3.00,-6.00,-3.00,-3.00,+1.00,+7.00,+4.00,-6.00,-2.00,+4.00,-1.00,-5.00,+1.00
+5.00,+12.00,-2.00,-1.00,-4.00,-6.00,-4.00,-2.00,-9.00,-2.00,+3.00,+2.00,-3.00,+0.00,+12.00,-6.00
+1.00,+4.00,+1.00,+1.00,-12.00,+8.00,+48.00,+0.00,+11.00,+6.00,-1.00,-5.00,-5.00,-2.00,-38.00,-4.00
+10.00,+29.00,+5.00,+3.00,+12.00,+1.00,-4.00,+0.00,-6.00,-7.00,-1.00,-2.00,+9.00,+1.00,-1.00,+0.00
-2.00,-11.00,-5.00,-2.00,-5.00,+0.00,+6.00,-2.00,+8.00,-5.00,+4.00,-2.00,-10.00,-3.00,-4.00,+2.00
-2.00,+14.00,-2.00,-5.00,-10.00,-4.00,-7.00,-6.00,+19.00,+14.00,-2.00,-2.00,+0.00,-3.00,+7.00,+5.00
-8.00,-9.00,-5.00,-1.00,+2.00,-3.00,-3.00,+1.00,+3.00,-6.00,-3.00,+0.00,+1.00,-1.00,+12.00,+0.00
+17.00,-9.00,+3.00,+12.00,+7.00,+3.00,-3.00,+7.00,-15.00,-3.00,-3.00,-5.00,-2.00,+1.00,-5.00,-7.00
-8.00,-14.00,-4.00,-11.00,-6.00,-1.00,+3.00,+1.00,-9.00,-5.00,-3.00,-1.00,+0.00,-1.00,-4.00,-7.00
-13.00,-74.00,-7.00,-4.00,-4.00,-1.00,-11.00,-4.00,+6.00,+2.00,+1.00,+0.00,+0.00,-1.00,-3.00,-6.00
+7.00,+31.00,+0.00,-1.00,+2.00,+1.00,-3.00,+2.00,-6.00,-7.00,-1.00,-3.00,-2.00,-3.00,+2.00,+0.00
+16.00,+85.00,+14.00,+3.00,+1.00,-2.00,+2.00,+5.00,-10.00,-9.00,-2.00,+2.00,+0.00,+0.00,-7.00,-7.00
-24.00,-18.00,-4.00,+1.00,-15.00,-6.00,-4.00,-9.00,+2.00,-1.00,+2.00,+0.00,-2.00,+0.00,+3.00,+0.00
+11.00,-24.00,-1.00,-1.00,+19.00,+2.00,-3.00,+3.00,+13.00,-6.00,+0.00,+1.00,+0.00,-3.00,-4.00,-1.00
-5.00,-30.00,-8.00,-6.00,-2.00,+0.00,+3.00,-1.00,-15.00,-6.00,-7.00,-5.00,-3.00,-2.00,+4.00,-5.00
+0.00,-16.00,-1.00,-3.00,-2.00,+0.00,-1.00,-4.00,-8.00,-2.00,-1.00,+0.00,+0.00,-2.00,-1.00,-4.00
+4.00,-9.00,+1.00,+8.00,+1.00,+0.00,+1.00,+1.00,-4.00,-4.00,+1.00,-4.00,-3.00,-1.00,-2.00,-3.00
-5.00,+13.00,-3.00,-4.00,-7.00,-2.00,-4.00,-3.00,-2.00,+1.00,+0.00,-1.00,-2.00,+1.00,-1.00,-5.00
-8.00,+0.00,-6.00,-2.00,-1.00,-4.00,-3.00,-2.00,-1.00,+7.00,+5.00,+1.00,-2.00,-1.00,+1.00,+1.00
-13.00,+1.00,+9.00,-5.00,+1.00,+0.00,+0.00,+1.00,-1.00,-5.00,-2.00,-1.00,-2.00,-1.00,-3.00,-1.00
-6.00,-14.00,-10.00,+1.00,-4.00,-1.00,-3.00,+0.00,-9.00,-13.00,-4.00,+2.00,-2.00,-1.00,-2.00,-4.00
+2.00,-1.00,-1.00,-4.00,-5.00,+0.00,+0.00,+2.00,+12.00,+5.00,+0.00,+0.00,+0.00,-2.00,-2.00,+1.00
-2.00,+36.00,+4.00,+2.00,+4.00,-1.00,-6.00,-4.00,+7.00,+1.00,-6.00,-1.00,+0.00,+0.00,+4.00,-5.00
-14.00,-37.00,-5.00,-2.00,-6.00,+1.00,-3.00,-4.00,-29.00,-10.00,-1.00,-1.00,-5.00,-1.00,-3.00,-6.00
+25.00,+1.00,+4.00,-4.00,-2.00,-1.00,+0.00,+4.00,-3.00,-17.00,+1.00,+1.00,+16.00,+0.00,-3.00,+1.00
+9.00,+16.00,+2.00,+4.00,-5.00,-3.00,+0.00,+2.00,+1.00,+5.00,+0.00,+2.00,-2.00,-3.00,+1.00,-4.00
-3.00,-4.00,-4.00,-7.00,-1.00,-1.00,-2.00,-5.00,+6.00,-48.00,-7.00,-5.00,-1.00,+1.00,+2.00,-1.00
+7.00,-6.00,-2.00,+12.00,+1.00,+0.00,+0.00,+0.00,+14.00,+83.00,+9.00,+2.00,-1.00,-1.00,-3.00,-1.00
+1.00,+3.00,-4.00,-8.00,+1.00,-1.00,+0.00,-1.00,-3.00,-4.00,-2.00,-4.00,-3.00,-1.00,-2.00,+2.00
+7.00,+18.00,-1.00,-4.00,-4.00,+0.00,-4.00,+1.00,-3.00,+7.00,-2.00,-2.00,-3.00,+1.00,+0.00,+0.00
-8.00,-4.00,+1.00,-2.00,-2.00,-3.00,+0.00,-1.00,+7.00,-2.00,-4.00,+1.00,+1.00,+0.00,+0.00,+3.00
-13.00,-82.00,-10.00,-5.00,+1.00,+0.00,+4.00,+0.00,-1.00,-23.00,-3.00,+0.00,-1.00,+1.00,-1.00,+0.00
-1.00,+62.00,+5.00,+9.00,+5.00,+1.00,-6.00,-5.00,+1.00,+4.00,+0.00,-4.00,-6.00,-5.00,+13.00,-2.00
+33.00,+24.00,+13.00,+6.00,+1.00,+0.00,-2.00,+8.00,-5.00,+0.00,+0.00,-2.00,+5.00,-2.00,+8.00,+3.00
-9.00,-24.00,-5.00,-11.00,-11.00,+1.00,-3.00,-3.00,+5.00,+2.00,+0.00,-2.00,-3.00,+1.00,-32.00,-2.00
-2.00,+1.00,-3.00,-4.00,+11.00,-4.00,+0.00,+0.00,+1.00,-7.00,-3.00,+4.00,+7.00,+1.00,-4.00,+3.00
-18.00,-53.00,-7.00,-1.00,-2.00,-1.00,-2.00,-1.00,+20.00,+10.00,-2.00,-5.00,-18.00,-1.00,+1.00,-6.00
-16.00,+7.00,-3.00,+2.00,-5.00,-4.00,+0.00,-5.00,-18.00,-18.00,-7.00,-3.00,+8.00,+0.00,+3.00,-1.00
+12.00,+4.00,+0.00,+4.00,-4.00,+0.00,-1.00,+0.00,+6.00,+3.00,+0.00,+1.00,+0.00,+2.00,+10.00,+5.00
-10.00,-2.00,-2.00,-4.00,+1.00,+2.00,-3.00,-4.00,+2.00,-6.00,-1.00,-1.00,-2.00,-1.00,+3.00,+3.00
+4.00,+7.00,+10.00,+4.00,+2.00,-4.00,-3.00,-2.00,-6.00,-5.00,+0.00,+2.00,+1.00,+1.00,-12.00,-2.00
-8.00,-4.00,-10.00,-4.00,-4.00,+1.00,-5.00,-2.00,+16.00,+15.00,+6.00,+3.00,-11.00,-1.00,-49.00,-5.00
+5.00,-3.00,-3.00,-5.00,-3.00,-4.00,-1.00,-4.00,-2.00,+12.00,+0.00,-4.00,+10.00,-3.00,+12.00,-1.00
+2.00,+14.00,+0.00,-3.00,-3.00,-3.00,+2.00,+2.00,-30.00,-18.00,-1.00,+2.00,-13.00,-2.00,-4.00,-5.00
-1.00,-5.00,+3.00,+4.00,+1.00,+1.00,-17.00,+2.00,+2.00,-1.00,-2.00,+0.00,-9.00,-1.00,+3.00,-1.00
-1.00,-3.00,-2.00,+0.00,-14.00,-2.00,-2.00,-3.00,-3.00,-5.00,-3.00,-1.00,+7.00,-2.00,-9.00,-2.00
-14.00,-55.00,-6.00,-6.00,+13.00,-6.00,+2.00,-5.00,+2.00,+11.00,+6.00,+4.00,+2.00,-1.00,+4.00,+0.00
+24.00,+101.00,+3.00,+0.00,+0.00,+0.00,-2.00,+1.00,+15.00,+3.00,-6.00,-4.00,-5.00,-2.00,+2.00,+0.00
-5.00,-19.00,+13.00,-5.00,-1.00,+2.00,+10.00,+2.00,-13.00,+1.00,+3.00,-2.00,+1.00,-2.00,-15.00,-5.00
-2.00,-15.00,-14.00,+9.00,+8.00,+1.00,+37.00,+1.00,+1.00,-6.00,-1.00,+4.00,-3.00,+0.00,+9.00,-4.00
+1.00,-9.00,-3.00,-7.00,-5.00,-3.00,-6.00,+2.00,+1.00,+8.00,+1.00,-1.00,-6.00,-3.00,+1.00,-1.00
-22.00,-38.00,-7.00,-7.00,-11.00,-3.00,-5.00,-13.00,-3.00,-12.00,-4.00,-4.00,+2.00,-2.00,+6.00,+3.00
+14.00,+87.00,+2.00,+1.00,+9.00,-1.00,+0.00,+4.00,+5.00,+8.00,+0.00,+0.00,+4.00,-1.00,+0.00,+1.00
+6.00,+8.00,+6.00,+1.00,-7.00,-3.00,-9.00,+1.00,-5.00,-8.00,-1.00,-3.00,-5.00,-1.00,+7.00,-1.00
-2.00,-1.00,+1.00,+5.00,+14.00,+4.00,+8.00,-4.00,-10.00,+8.00,+3.00,-1.00,-1.00,+1.00,+6.00,-1.00
+3.00,-38.00,-7.00,-7.00,+6.00,+0.00,-3.00,+2.00,-9.00,-3.00,-2.00,-4.00,-2.00,+0.00,-9.00,-2.00
-5.00,-15.00,-1.00,+2.00,-11.00,-2.00,-2.00,-2.00,+14.00,+0.00,-2.00,+2.00,+7.00,+0.00,+1.00,+0.00
-9.00,-13.00,-1.00,-6.00,+2.00,-1.00,-5.00,-2.00,-6.00,-6.00,-3.00,-2.00,+7.00,+0.00,+26.00,+1.00
+4.00,+21.00,+0.00,+6.00,-2.00,+0.00,-1.00,+3.00,-3.00,-2.00,-2.00,+4.00,-6.00,-2.00,-9.00,+3.00
-2.00,-36.00,-1.00,-3.00,-1.00,-2.00,-9.00,-2.00,-1.00,+6.00,+4.00,+0.00,+2.00,-1.00,+4.00,-4.00
+1.00,+10.00,-1.00,-3.00,-2.00,+1.00,+2.00,+1.00,+0.00,-4.00,-2.00,+0.00,-4.00,+0.00,-2.00,+1.00
-10.00,-2.00,+1.00,+4.00,+9.00,-1.00,-2.00,-3.00,+16.00,+0.00,-5.00,-3.00,-4.00,-1.00,+11.00,+2.00
+14.00,+21.00,-5.00,-6.00,-11.00,-2.00,-1.00,+3.00,-3.00,+5.00,+0.00,+7.00,-15.00,-5.00,+24.00,-5.00
-3.00,+2.00,-1.00,-5.00,+4.00,+1.00,+1.00,-2.00,-2.00,-6.00,-1.00,-2.00,+19.00,+4.00,-25.00,-1.00
+5.00,+7.00,-3.00,+0.00,-4.00,-4.00,+5.00,-1.00,-37.00,-18.00,+1.00,-2.00,-9.00,-1.00,-9.00,-5.00
-4.00,-24.00,+2.00,+15.00,+8.00,+8.00,-1.00,-3.00,+19.00,+8.00,+0.00,-10.00,-1.00,+2.00,+29.00,+5.00
+5.00,+7.00,+5.00,-12.00,-4.00,-1.00,-15.00,+3.00,-8.00,-4.00,-1.00,-1.00,-2.00,-2.00,+15.00,+0.00
-1.00,-6.00,-5.00,-1.00,+4.00,-3.00,-1.00,-3.00,+10.00,+4.00,-2.00,+2.00,-2.00,-1.00,+2.00,-4.00
-5.00,-27.00,-5.00,-1.00,-3.00,-2.00,+5.00,-3.00,+7.00,-7.00,-7.00,+0.00,+2.00,+1.00,+7.00,+2.00
-8.00,+2.00,+0.00,-8.00,-3.00,-5.00,+0.00,-2.00,-12.00,-8.00,-6.00,-1.00,-5.00,-1.00,-21.00,-1.00
-2.00,-3.00,-1.00,+4.00,-3.00,-1.00,+4.00,-1.00,+9.00,+7.00,-3.00,-2.00,+1.00,-1.00,-15.00,-2.00
-4.00,+12.00,+1.00,-2.00,-12.00,-1.00,+3.00,+2.00,-1.00,-4.00,-1.00,+3.00,-1.00,-1.00,+11.00,+0.00
-17.00,-64.00,-8.00,-3.00,-2.00,-1.00,+10.00,-1.00,-1.00,+3.00,+3.00,-4.00,+4.00,-2.00,-12.00,+0.00
+3.00,+51.00,+3.00,-4.00,-4.00,+5.00,+20.00,-1.00,+1.00,+1.00,-1.00,+0.00,-5.00,-2.00,-4.00,-2.00
+19.00,+5.00,+6.00,+9.00,+6.00,+1.00,-10.00,+2.00,-19.00,-9.00,-3.00,-2.00,+5.00,+1.00,-2.00,-1.00
+2.00,-6.00,+12.00,-2.00,+0.00,-3.00,-16.00,+3.00,+7.00,-6.00,+0.00,+0.00,-4.00,-1.00,-7.00,-1.00
-2.00,-39.00,-17.00,-4.00,-12.00,-3.00,+2.00,-3.00,+4.00,+2.00,-2.00,+0.00,+0.00,-1.00,+2.00,+2.00
-4.00,+26.00,+1.00,-6.00,+9.00,-4.00,-11.00,-3.00,-5.00,+5.00,+4.00,-1.00,-19.00,-3.00,-8.00,-4.00
-5.00,-23.00,-5.00,+6.00,-7.00,-3.00,+1.00,-4.00,+3.00,-3.00,-1.00,-2.00,+17.00,-3.00,+0.00,-1.00
-7.00,+27.00,+2.00,-8.00,-2.00,+1.00,+2.00,-4.00,-5.00,-2.00,-4.00,-3.00,-2.00,-1.00,-1.00,+0.00
+0.00,-10.00,+0.00,-1.00,+5.00,-1.00,-15.00,-2.00,+4.00,+4.00,+1.00,-2.00,+1.00,+0.00,+2.00,+1.00
+3.00,-25.00,-5.00,-3.00,-8.00,-5.00,-3.00,+2.00,-6.00,-8.00,-1.00,+2.00,-3.00,+0.00,+0.00,-2.00
-7.00,+23.00,+2.00,+1.00,-3.00,-1.00,+2.00,+0.00,-3.00,-5.00,-2.00,-2.00,-5.00,+1.00,-14.00,-5.00
-1.00,-32.00,-3.00,+2.00,+3.00,-1.00,-2.00,-2.00,+9.00,+4.00,-3.00,-3.00,-4.00,-2.00,+3.00,-4.00
+4.00,+11.00,+0.00,-3.00,+0.00,+1.00,+3.00,-1.00,-2.00,-1.00,-2.00,+0.00,-2.00,-2.00,+3.00,-1.00
+3.00,-26.00,+4.00,+12.00,+4.00,+1.00,-7.00,+1.00,-5.00,+0.00,+0.00,+4.00,+0.00,+0.00,-8.00,-2.00
-5.00,+1.00,-2.00,-7.00,-2.00,+0.00,+4.00,-3.00,-5.00,+0.00,+1.00,-2.00,-3.00,-1.00,+10.00,+0.00
+6.00,-5.00,-6.00,+0.00,+5.00,+0.00,+5.00,+2.00,+7.00,+1.00,-1.00,-5.00,+0.00,-1.00,-2.00,+1.00
-3.00,+8.00,-1.00,-2.00,+0.00,-2.00,-3.00,+0.00,-11.00,+4.00,-2.00,+0.00,-1.00,-2.00,+3.00,-3.00
+2.00,-12.00,-3.00,-6.00,-3.00,-1.00,-6.00,-1.00,+8.00,+0.00,-3.00,-2.00,+0.00,-1.00,-7.00,+1.00
+5.00,-6.00,+0.00,+1.00,-1.00,+2.00,-4.00,+1.00,+4.00,+5.00,+0.00,+0.00,-4.00,-1.00,+0.00,-4.00
+6.00,+27.00,+3.00,+1.00,-3.00,-2.00,+2.00,-1.00,-5.00,-4.00,+0.00,+2.00,-5.00,-1.00,+2.00,+2.00
-6.00,-21.00,-1.00,-1.00,+1.00,+1.00,-4.00,-3.00,-1.00,+0.00,+0.00,-2.00,-2.00,-1.00,-3.00,+1.00
+1.00,-9.00,-2.00,-3.00,+0.00,-4.00,-6.00,+2.00,+2.00,+12.00,+6.00,-1.00,+2.00,-2.00,+3.00,-1.00
+1.00,+43.00,+3.00,+1.00,+1.00,+4.00,+3.00,+3.00,-14.00,-6.00,-2.00,+3.00,+3.00,+1.00,-5.00,-3.00
+4.00,-25.00,-5.00,-1.00,-3.00,-2.00,+1.00,+3.00,+2.00,-10.00,-5.00,-1.00,-1.00,-2.00,-1.00,-2.00
+1.00,+43.00,+1.00,+0.00,-1.00,-1.00,+0.00,-3.00,-1.00,-2.00,+0.00,-4.00,+1.00,-2.00,-4.00,-2.00
-5.00,-31.00,-3.00,-5.00,-3.00,-1.00,-3.00,-1.00,-10.00,+4.00,+1.00,+2.00,+7.00,-1.00,-3.00,-3.00
-8.00,-2.00,-1.00,-3.00,+2.00,-4.00,+0.00,-4.00,+9.00,+1.00,+1.00,+0.00,-5.00,-2.00,-4.00,+3.00
+3.00,+6.00,+2.00,+4.00,+0.00,+2.00,-1.00,-1.00,-5.00,-4.00,-1.00,-2.00,-6.00,-2.00,-1.00,-2.00
-4.00,-10.00,+5.00,+3.00,+3.00,+1.00,-5.00,-1.00,+3.00,-4.00,-2.00,+1.00,+8.00,+2.00,+3.00,-1.00
+7.00,+3.00,-9.00,+11.00,-6.00,-3.00,-1.00,+2.00,+0.00,-11.00,-7.00,-1.00,+2.00,+0.00,-1.00,+1.00
-4.00,-9.00,-10.00,-30.00,-4.00,-3.00,+0.00,-2.00,+3.00,-2.00,-2.00,-1.00,-2.00,+1.00,-6.00,-3.00
-7.00,+30.00,+1.00,+0.00,-4.00,-2.00,-2.00,-2.00,+2.00,+0.00,-2.00,-6.00,-2.00,-1.00,-1.00,-3.00
+8.00,-14.00,+6.00,+5.00,+1.00,+2.00,+0.00,+2.00,-13.00,-7.00,-2.00,-2.00,-4.00,-1.00,-1.00,-2.00
-4.00,+12.00,-2.00,-1.00,+8.00,-1.00,-1.00,-3.00,-7.00,+1.00,+0.00,+0.00,+2.00,+1.00,-3.00,-3.00
-7.00,-6.00,-3.00,+6.00,-6.00,-5.00,+2.00,+0.00,+1.00,+1.00,+0.00,+1.00,-10.00,-2.00,-4.00,-1.00
-8.00,-14.00,-2.00,-2.00,-10.00,+2.00,-3.00,-5.00,+1.00,-1.00,-2.00,+1.00,+10.00,+0.00,+2.00,+1.00
+12.00,+17.00,+1.00,+0.00,+12.00,+1.00,+2.00,+3.00,+1.00,-4.00,-3.00,-2.00,-5.00,-3.00,-2.00,-1.00
+0.00,+5.00,+3.00,-1.00,+1.00,+3.00,-2.00,+0.00,-3.00,-4.00,-1.00,+1.00,+0.00,-1.00,-3.00,+0.00
-4.00,-16.00,-2.00,+6.00,+0.00,-2.00,-1.00,-3.00,+2.00,+3.00,-1.00,-3.00,-8.00,-2.00,-2.00,+0.00
-2.00,-2.00,-2.00,-7.00,-2.00,-2.00,+0.00,-4.00,-7.00,-2.00,+1.00,-1.00,+0.00,+1.00,+0.00,-1.00
-9.00,-4.00,-6.00,-1.00,+1.00,-3.00,-3.00,-4.00,+2.00,+1.00,+3.00,+0.00,-2.00,-2.00,-3.00,-1.00
+4.00,+1.00,+1.00,-3.00,+0.00,-1.00,-2.00,-1.00,-7.00,-3.00,-2.00,+0.00,+0.00,-2.00,+1.00,-2.00
-1.00,-4.00,-1.00,+2.00,+2.00,+3.00,+1.00,-1.00,+22.00,+2.00,-1.00,+1.00,+4.00,+0.00,-2.00,+4.00
+2.00,+10.00,-1.00,+3.00,+0.00,-2.00,-2.00,+2.00,-18.00,-15.00,-2.00,-2.00,-7.00,-2.00,+0.00,-3.00
+1.00,+2.00,+1.00,-1.00,-2.00,+2.00,+0.00,-4.00,+3.00,+9.00,+1.00,+1.00,+2.00,-2.00,-2.00,+0.00
-7.00,-6.00,-4.00,-8.00,-5.00,-3.00,-3.00,-2.00,+4.00,-5.00,-2.00,+3.00,+0.00,+1.00,-2.00,+1.00
-12.00,-8.00,-3.00,-1.00,+1.00,+1.00,-1.00,-5.00,-5.00,+4.00,-3.00,-14.00,-1.00,-1.00,-2.00,+2.00
+12.00,+2.00,+4.00,+7.00,+2.00,+1.00,+1.00,+3.00,-4.00,+0.00,-3.00,+4.00,+0.00,-2.00,-3.00,-2.00
-7.00,-17.00,-6.00,-7.00,-6.00,-5.00,-1.00,+0.00,+0.00,-2.00,+1.00,+3.00,-1.00,-1.00,-2.00,-4.00
-1.00,+11.00,+0.00,-6.00,-2.00,-2.00,-1.00,-2.00,-6.00,-5.00,-4.00,-1.00,-5.00,+0.00,-2.00,-5.00
-6.00,-2.00,+3.00,+11.00,+0.00,-1.00,-1.00,-1.00,-4.00,+1.00,-1.00,+1.00,-1.00,+0.00,-1.00,+0.00
+1.00,-6.00,-1.00,-9.00,+0.00,-2.00,-1.00,-3.00,+4.00,+6.00,+3.00,-4.00,+0.00,-1.00,+1.00,+0.00
-12.00,-19.00,-7.00,-2.00,-1.00,+1.00,-2.00,-3.00,-3.00,-4.00,-4.00,-3.00,-2.00,-2.00,+1.00,-1.00
+10.00,-9.00,+2.00,-3.00,+0.00,+3.00,-2.00,+0.00,+4.00,-1.00,-2.00,-2.00,-2.00,-2.00,-2.00,+1.00
+4.00,+27.00,+6.00,+7.00,-3.00,-1.00,-3.00,+0.00,-9.00,-4.00,-1.00,+1.00,+1.00,+0.00,+1.00,-1.00
-7.00,+1.00,-10.00,-4.00,+12.00,+6.00,+2.00,-1.00,+3.00,+3.00,+1.00,-1.00,-1.00,-2.00,-2.00,-1.00
-4.00,-22.00,-3.00,-6.00,-4.00,-5.00,-2.00,-3.00,+3.00,-1.00,+0.00,+0.00,-3.00,+0.00,-2.00,-1.00
-7.00,-11.00,-5.00,+2.00,-4.00,-2.00,+1.00,-2.00,-3.00,-2.00,+0.00,-1.00,+1.00,-1.00,-3.00,-1.00
+3.00,-5.00,+4.00,-2.00,+6.00,+0.00,-1.00,+1.00,-1.00,-4.00,-3.00,-2.00,-1.00,-1.00,-2.00,-4.00
-3.00,-9.00,+0.00,+2.00,+1.00,-1.00,-1.00,-1.00,+0.00,+2.00,+3.00,-1.00,-2.00,-1.00,+0.00,+3.00
-2.00,-24.00,-3.00,+0.00,-7.00,+0.00,+0.00,+2.00,-1.00,-3.00,-6.00,-2.00,-2.00,+0.00,+3.00,+2.00
-1.00,+37.00,+5.00,-2.00,+4.00,+0.00,+0.00,+0.00,-3.00,+1.00,+1.00,-1.00,-1.00,+0.00,+0.00,+2.00
+2.00,-13.00,-1.00,+2.00,-6.00,-1.00,+1.00,-1.00,-4.00,-6.00,-2.00,-1.00,+2.00,-2.00,-4.00,-5.00
-1.00,+8.00,-3.00,-8.00,-5.00,-5.00,-1.00,+0.00,+1.00,+3.00,-2.00,+1.00,-1.00,+0.00,-1.00,+1.00
+3.00,+1.00,+2.00,+0.00,-1.00,-2.00,-2.00,-1.00,-2.00,-3.00,-1.00,-3.00,-2.00,+0.00,-2.00,+1.00
-1.00,-1.00,+1.00,+0.00,-5.00,-2.00,+2.00,+0.00,+3.00,+2.00,-1.00,-3.00,-2.00,+0.00,+1.00,+1.00
+0.00,-6.00,-1.00,-2.00,+0.00,-1.00,+0.00,+0.00,+1.00,-1.00,+1.00,+0.00,-2.00,-1.00,-1.00,+0.00
+0.00,-2.00,+0.00,+3.00,-2.00,+0.00,+0.00,-1.00,-1.00,-7.00,-3.00,+2.00,+1.00,-3.00,-3.00,+0.00
-2.00,+13.00,-3.00,-5.00,-3.00,-3.00,-3.00,-2.00,+0.00,-3.00,-2.00,-2.00,-3.00,+0.00,-1.00,-2.00
-5.00,-3.00,+0.00,-2.00,-2.00,-2.00,-2.00,-5.00,-1.00,-1.00,-1.00,-2.00,-2.00,+0.00,+0.00,-2.00
+8.00,+5.00,-2.00,+10.00,-3.00,-2.00,+0.00,+3.00,+2.00,+2.00,+3.00,+0.00,+1.00,-2.00,-3.00,-1.00
-5.00,+1.00,-1.00,-12.00,+0.00,+0.00,-1.00,-2.00,-2.00,+1.00,-6.00,-1.00,-1.00,-2.00,-4.00,-2.00
-4.00,+6.00,-1.00,-1.00,-4.00,-2.00,-3.00,-1.00,-2.00,-2.00,-4.00,-3.00,-4.00,-3.00,-3.00,-4.00
-1.00,+2.00,-1.00,-4.00,-1.00,-3.00,-2.00,+0.00,+2.00,+0.00,-3.00,-1.00,-1.00,-1.00,-2.00,-2.00
-7.00,-8.00,-4.00,-2.00,+1.00,-1.00,-3.00,-4.00,-6.00,-6.00,-1.00,-3.00,-1.00,+0.00,+11.00,+7.00
+2.00,+5.00,+7.00,+8.00,-1.00,-2.00,-2.00,+0.00,+0.00,+1.00,+1.00,-3.00,+0.00,-1.00,-9.00,-3.00
+0.00,+7.00,-2.00,+5.00,+5.00,+2.00,+5.00,+2.00,+2.00,+2.00,+1.00,+1.00,+0.00,-1.00,-4.00,-2.00
-3.00,-6.00,-1.00,-8.00,-2.00,-2.00,-2.00,-2.00,-6.00,-3.00,-3.00,-2.00,-2.00,+0.00,-3.00,-3.00
-1.00,-2.00,-3.00,-8.00,-4.00,+0.00,-1.00,-2.00,-3.00,-5.00,-2.00,-2.00,-1.00,+1.00,-1.00,-2.00
+2.00,-1.00,-2.00,+3.00,-2.00,-1.00,+1.00,+2.00,+3.00,+3.00,+2.00,-1.00,-2.00,+1.00,+3.00,+0.00
+2.00,+5.00,+12.00,+3.00,+4.00,+0.00,+0.00,+0.00,-8.00,-4.00,-1.00,-1.00,-1.00,+0.00,+0.00,-1.00
+4.00,-2.00,-10.00,-3.00,+0.00,+1.00,+0.00,+0.00,+0.00,+1.00,+0.00,-3.00,-2.00,-2.00,-1.00,+0.00
-3.00,-6.00,-2.00,-9.00,-6.00,-2.00,-1.00,-1.00,+2.00,+2.00,+1.00,+2.00,+0.00,-1.00,-2.00,-3.00
-5.00,+4.00,-1.00,+1.00,-1.00,-2.00,-1.00,-1.00,+0.00,+0.00,-1.00,+1.00,-1.00,-1.00,+1.00,-3.00
+8.00,-4.00,+0.00,+1.00,-2.00,+0.00,+0.00,-3.00,-2.00,-5.00,+0.00,+0.00,+0.00,-3.00,-1.00,-4.00
-2.00,+0.00,+5.00,+6.00,+3.00,+0.00,-1.00,+3.00,+4.00,+7.00,+0.00,-2.00,+0.00,-3.00,-2.00,-3.00
-6.00,-8.00,-2.00,-2.00,+6.00,-1.00,-2.00,-2.00,-1.00,+0.00,-2.00,-2.00,+0.00,-2.00,-3.00,-3.00
+2.00,-5.00,-4.00,-3.00,-6.00,-1.00,-1.00,-1.00,-3.00,-1.00,+1.00,-1.00,+1.00,+1.00,+1.00,-5.00
+3.00,+28.00,-1.00,+0.00,+0.00,-1.00,-1.00,-3.00,-1.00,+2.00,-1.00,-3.00,-3.00,-1.00,-3.00,+7.00
-1.00,-8.00,-1.00,-4.00,-4.00,-2.00,-3.00,-3.00,-5.00,-7.00,-2.00,-2.00,-1.00,-2.00,+0.00,-2.00
-2.00,+7.00,-2.00,-1.00,+1.00,-1.00,+1.00,-3.00,+0.00,+0.00,-4.00,-1.00,-1.00,-1.00,-2.00,-3.00
+2.00,-11.00,+1.00,+5.00,+1.00,+1.00,+1.00,+1.00,-1.00,-5.00,+1.00,-1.00,-9.00,-1.00,+1.00,-1.00
-2.00,-4.00,-1.00,+0.00,-1.00,-1.00,+0.00,+1.00,+0.00,+5.00,+1.00,-3.00,+4.00,-3.00,+0.00,-4.00
-5.00,-3.00,-2.00,-1.00,+0.00,-2.00,-2.00,-1.00,-2.00,+0.00,+3.00,-1.00,+1.00,-2.00,-1.00,-1.00
-5.00,-6.00,-1.00,+1.00,+2.00,+0.00,-2.00,+1.00,+2.00,-5.00,-3.00,-1.00,-1.00,-1.00,-4.00,-3.00
-5.00,+2.00,-5.00,-2.00,-3.00,-2.00,-2.00,-4.00,-3.00,-1.00,-3.00,+0.00,-2.00,+1.00,-10.00,-3.00
-1.00,+2.00,-3.00,-4.00,-5.00,-3.00,-1.00,-1.00,-3.00,+2.00,-1.00,-1.00,-3.00,+2.00,+24.00,+0.00
+2.00,+5.00,+0.00,-2.00,-2.00,+0.00,-1.00,-6.00,-4.00,-2.00,-2.00,+0.00,-3.00,-5.00,-2.00,+5.00
+1.00,+1.00,+0.00,+1.00,+1.00,+0.00,+3.00,+7.00,-1.00,+2.00,+2.00,+1.00,-3.00,-5.00,-26.00,-7.00
+2.00,+7.00,+3.00,+3.00,+3.00,+2.00,+0.00,+3.00,+1.00,-1.00,-2.00,+2.00,+0.00,-3.00,+9.00,-7.00
+1.00,-1.00,-1.00,-6.00,+0.00,-1.00,-2.00,+1.00,+1.00,-1.00,+0.00,+1.00,-1.00,+0.00,-11.00,+9.00
-3.00,-7.00,-1.00,+0.00,-4.00,-1.00,+0.00,-2.00,+2.00,+0.00,-2.00,+0.00,-1.00,+1.00,-8.00,-7.00
+2.00,-2.00,-5.00,-4.00,-4.00,-3.00,-2.00,-4.00,-3.00,-1.00,-2.00,-2.00,+1.00,+2.00,+10.00,+15.00
-1.00,+1.00,+3.00,+2.00,-3.00,-2.00,-1.00,-4.00,+0.00,-1.00,-1.00,-2.00,+0.00,+2.00,-9.00,-2.00
-2.00,-3.00,-9.00,-2.00,-3.00,+0.00,-3.00,-3.00,+0.00,-1.00,-3.00,+0.00,+0.00,+0.00,+2.00,-4.00
-4.00,+2.00,+3.00,-1.00,+1.00,+2.00,-8.00,-16.00,-1.00,-3.00,+0.00,-1.00,-2.00,+1.00,+9.00,-2.00
-2.00,-2.00,+0.00,+2.00,-4.00,-2.00,+5.00,+6.00,-1.00,-3.00,-1.00,+0.00,-1.00,-1.00,-7.00,-1.00
-3.00,-1.00,+0.00,-1.00,+2.00,-1.00,+6.00,+6.00,+0.00,-1.00,-1.00,-4.00,-2.00,-2.00,+2.00,+0.00
-2.00,-3.00,+2.00,+4.00,+3.00,+1.00,-2.00,-4.00,+1.00,+0.00,-1.00,+0.00,-2.00,+0.00,+0.00,-1.00
+0.00,+0.00,-2.00,-4.00,-4.00,+0.00,-3.00,+17.00,-2.00,-2.00,-2.00,-3.00,-1.00,+0.00,-3.00,+2.00
+0.00,-1.00,+0.00,-2.00,+1.00,+1.00,-4.00,+3.00,-1.00,+0.00,-1.00,-2.00,-2.00,-2.00,+1.00,-5.00
-1.00,-3.00,-4.00,-2.00,+0.00,+0.00,+2.00,+8.00,+1.00,+0.00,-1.00,+0.00,+1.00,-3.00,+3.00,+5.00
+16.00,+2.00,-1.00,-2.00,-1.00,+1.00,+2.00,+8.00,+0.00,-3.00,-1.00,+0.00,-3.00,-4.00,-2.00,-1.00
+1.00,-3.00,-5.00,-2.00,-3.00,-2.00,-2.00,-6.00,-2.00,-10.00,-1.00,+0.00,+2.00,+2.00,+3.00,+0.00
-3.00,-1.00,+0.00,-2.00,+0.00,+1.00,-5.00,-8.00,-2.00,+9.00,-1.00,-2.00,+0.00,-1.00,+6.00,-2.00
-7.00,-1.00,-4.00,-3.00,-2.00,-2.00,-3.00,-6.00,+0.00,+3.00,+0.00,+0.00,-4.00,-8.00,-6.00,+1.00
-12.00,+1.00,+1.00,+3.00,-2.00,-1.00,-2.00,-5.00,+0.00,-5.00,-5.00,-2.00,-2.00,-4.00,-12.00,-2.00
-9.00,-1.00,-1.00,+1.00,-1.00,-2.00,+0.00,+1.00,-2.00,-1.00,-2.00,-3.00,-2.00,-1.00,-9.00,-3.00
-6.00,-1.00,+0.00,-1.00,-1.00,-2.00,-1.00,-2.00,-2.00,-6.00,-2.00,-2.00,+1.00,+2.00,+31.00,-3.00
-4.00,+0.00,+0.00,-1.00,+0.00,-2.00,-3.00,-5.00,+0.00,+0.00,+0.00,-2.00,+1.00,-1.00,-9.00,+8.00
-3.00,-2.00,-1.00,-1.00,+0.00,-1.00,-1.00,-1.00,-2.00,+1.00,-1.00,-2.00,+0.00,+0.00,-9.00,-8.00
+4.00,-3.00,-3.00,-1.00,-1.00,-2.00,+1.00,+0.00,+1.00,+1.00,+0.00,+1.00,+1.00,+0.00,-1.00,+1.00
+4.00,+2.00,+1.00,+0.00,-2.00,-1.00,-5.00,-10.00,-2.00,-2.00,+0.00,+1.00,-3.00,+1.00,+20.00,-4.00
+3.00,-2.00,+0.00,+3.00,-2.00,-1.00,-9.00,-11.00,-1.00,-1.00,-3.00,-3.00,-1.00,+3.00,-6.00,-3.00
+2.00,-1.00,-9.00,-2.00,+1.00,-1.00,+21.00,+25.00,+1.00,-4.00,+2.00,-1.00,+1.00,+2.00,+11.00,+7.00
-2.00,+2.00,+5.00,+0.00,+3.00,+2.00,+5.00,+4.00,-2.00,-1.00,+0.00,-3.00,-3.00,-11.00,-33.00,-3.00
-2.00,-1.00,-4.00,-2.00,-1.00,+0.00,+0.00,+0.00,+1.00,-1.00,-1.00,-1.00,-1.00,-1.00,-14.00,+2.00
+3.00,+2.00,-1.00,-4.00,-3.00,-1.00,-7.00,-2.00,-1.00,-2.00,-2.00,-2.00,-1.00,-4.00,+5.00,-3.00
+59.00,-3.00,+0.00,+0.00,-4.00,-3.00,-6.00,-10.00,-2.00,+0.00,-2.00,+0.00,-1.00,+3.00,-7.00,-5.00
+43.00,+1.00,-1.00,+11.00,+2.00,+0.00,+2.00,-10.00,-2.00,-2.00,-2.00,+1.00,-2.00,+1.00,+31.00,-4.00
+15.00,+1.00,+3.00,-9.00,+2.00,-1.00,-1.00,+7.00,-1.00,-1.00,-3.00,-2.00,-3.00,-1.00,-14.00,+16.00
-15.00,-3.00,+0.00,+2.00,+0.00,-2.00,-5.00,-5.00,+0.00,+0.00,+3.00,+1.00,+2.00,+6.00,-9.00,-6.00
-50.00,-1.00,+0.00,-1.00,+0.00,-1.00,-4.00,-3.00,-1.00,+11.00,+3.00,-2.00,-2.00,-4.00,+35.00,-3.00
-37.00,-2.00,-4.00,-3.00,-3.00,-3.00,-14.00,-20.00,+2.00,+12.00,+13.00,+2.00,+1.00,-3.00,-36.00,+0.00
-4.00,+0.00,+1.00,+2.00,-1.00,-1.00,+5.00,+4.00,-4.00,-12.00,-8.00,-2.00,-4.00,-11.00,-11.00,-13.00
+18.00,+1.00,+2.00,-2.00,+2.00,+4.00,+17.00,+25.00,-3.00,-5.00,-1.00,-2.00,+0.00,+4.00,-46.00,-22.00
+9.00,+3.00,-5.00,+4.00,-1.00,+0.00,-1.00,-3.00,-5.00,-11.00,-15.00,-4.00,-5.00,-7.00,+97.00,+0.00
+4.00,-1.00,+1.00,-4.00,-1.00,-1.00,+7.00,+2.00,+1.00,+3.00,+2.00,-1.00,-1.00,-4.00,-62.00,+27.00
-13.00,-3.00,+0.00,+0.00,+0.00,+0.00,-12.00,-23.00,-1.00,+6.00,+8.00,-1.00,-1.00,+2.00,+16.00,-10.00
-16.00,-2.00,-2.00,-3.00,+1.00,-2.00,-9.00,-21.00,-2.00,-6.00,-3.00,-2.00,+0.00,+0.00,-1.00,+6.00
-31.00,-1.00,-2.00,-4.00,-5.00,-3.00,-4.00,-17.00,+0.00,-3.00,+2.00,+0.00,+3.00,+5.00,-23.00,-26.00
-32.00,+0.00,+0.00,+0.00,+0.00,-3.00,-14.00,+1.00,-4.00,-5.00,-7.00,-4.00,-1.00,+3.00,+30.00,+17.00
-20.00,-5.00,-9.00,-2.00,+0.00,+1.00,+14.00,+50.00,+2.00,+3.00,+1.00,+0.00,+0.00,+2.00,-6.00,+5.00
-13.00,+2.00,+1.00,+3.00,-2.00,-1.00,+10.00,-47.00,+2.00,-1.00,-4.00,+0.00,+0.00,-4.00,+17.00,+2.00
-14.00,+9.00,+13.00,+2.00,+2.00,+0.00,-7.00,+10.00,-1.00,-2.00,+1.00,+1.00,+0.00,-2.00,-25.00,+4.00
-29.00,-1.00,+4.00,-8.00,+0.00,-2.00,-8.00,-36.00,-1.00,-2.00,-6.00,-2.00,+0.00,+0.00,+15.00,-10.00
+5.00,+1.00,-12.00,-6.00,-6.00,+0.00,+2.00,+73.00,-1.00,-1.00,+0.00,+1.00,-1.00,+1.00,-16.00,+0.00
+11.00,-3.00,+1.00,+3.00,+3.00,+3.00,-11.00,+28.00,-3.00,+1.00,+2.00,-1.00,-3.00,-1.00,+20.00,+2.00
+12.00,+1.00,-1.00,-1.00,+2.00,+1.00,-6.00,-32.00,+0.00,+0.00,+1.00,-1.00,-2.00,-1.00,-27.00,+2.00
+14.00,-1.00,-1.00,-1.00,+0.00,+0.00,+2.00,+1.00,-2.00,-2.00,-2.00,-1.00,-2.00,+0.00,+6.00,-5.00
-2.00,-2.00,+1.00,+2.00,+0.00,-3.00,-10.00,-42.00,-1.00,-2.00,-2.00,-1.00,-1.00,+0.00,+5.00,-6.00
+2.00,-7.00,-3.00,-2.00,-2.00,-2.00,-1.00,-10.00,+0.00,-2.00,-2.00,-2.00,-1.00,-2.00,+6.00,+3.00
+15.00,-4.00,+2.00,-1.00,+1.00,-1.00,-1.00,+12.00,+0.00,-2.00,+0.00,-1.00,-1.00,-5.00,-23.00,+5.00
+17.00,-1.00,-4.00,+0.00,-2.00,-1.00,+3.00,+22.00,-2.00,-3.00,-5.00,+0.00,+0.00,+2.00,+11.00,-12.00
+4.00,-1.00,+2.00,-2.00,+0.00,-1.00,+2.00,-19.00,-1.00,-1.00,-1.00,+0.00,+1.00,+0.00,+1.00,-3.00
-7.00,-3.00,-4.00,-4.00,-2.00,-4.00,-6.00,-10.00,-1.00,-1.00,-3.00,+0.00,-2.00,-5.00,-8.00,-1.00
-5.00,-4.00,+1.00,-2.00,-1.00,-2.00,+1.00,+0.00,-1.00,+0.00,+1.00,+0.00,-2.00,+1.00,-17.00,-1.00
+7.00,-1.00,-2.00,-1.00,+1.00,+0.00,+5.00,+8.00,-1.00,-4.00,+1.00,+0.00,+0.00,+0.00,+14.00,-9.00
+9.00,-1.00,+2.00,+1.00,+1.00,-2.00,-1.00,-21.00,-1.00,-2.00,-3.00,-2.00,+1.00,+1.00,-5.00,-2.00
+6.00,+4.00,-4.00,-3.00,-3.00,-2.00,+1.00,+5.00,-3.00,-2.00,+1.00,-1.00,-1.00,+0.00,+4.00,+0.00
+16.00,-3.00,-3.00,-1.00,-2.00,+1.00,-3.00,+7.00,+1.00,-2.00,+2.00,-3.00,-2.00,-2.00,-5.00,+1.00
+20.00,-4.00,-1.00,-2.00,-1.00,+0.00,+6.00,+9.00,-1.00,-1.00,-1.00,-2.00,-2.00,-2.00,+3.00,-4.00
+18.00,+0.00,+1.00,+0.00,-2.00,+1.00,+1.00,-12.00,+0.00,-4.00,-1.00,-3.00,+0.00,-3.00,-4.00,-3.00
+5.00,+0.00,+0.00,-1.00,-1.00,-1.00,-1.00,+11.00,+0.00,+0.00,-3.00,-2.00,-2.00,-1.00,+5.00,-4.00
-10.00,-2.00,-3.00,-2.00,+1.00,-1.00,+1.00,+3.00,+0.00,-2.00,-1.00,+0.00,-1.00,-1.00,-5.00,+4.00
-10.00,+0.00,+0.00,-1.00,-1.00,+1.00,+2.00,+0.00,+1.00,+1.00,-2.00,-1.00,-2.00,-2.00,+5.00,-2.00
-5.00,+1.00,+2.00,+0.00,-1.00,-1.00,-2.00,-8.00,-3.00,-1.00,-1.00,-1.00,-2.00,+0.00,-1.00,+1.00
-6.00,+1.00,-3.00,-1.00,-2.00,-1.00,+2.00,+5.00,+0.00,-2.00,+1.00,-2.00,-2.00,-1.00,+6.00,-1.00
-6.00,-4.00,-2.00,-2.00,-2.00,-1.00,-1.00,-4.00,-2.00,+3.00,+0.00,+0.00,-1.00,-1.00,-10.00,-2.00
+19.00,-3.00,+0.00,+2.00,-2.00,-2.00,+0.00,+1.00,+3.00,+0.00,-2.00,-1.00,-2.00,+0.00,+3.00,-1.00
