-2.00,-5.00,-1.00,-1.00,-1.00,-1.00,-1.00,-3.00,-3.00,-1.00,+0.00,+1.00,-2.00,-1.00,+0.00,-1.00
-10.00,-2.00,-1.00,-1.00,+0.00,+0.00,-1.00,-2.00,+0.00,+0.00,+0.00,-2.00,-3.00,-1.00,-1.00,+1.00
+13.00,+1.00,+2.00,+0.00,-1.00,+1.00,-1.00,+4.00,-1.00,-6.00,-3.00,+2.00,+0.00,-2.00,-1.00,+1.00
-4.00,-3.00,-3.00,-1.00,-1.00,+1.00,-1.00,-1.00,-3.00,-4.00,-4.00,+1.00,-2.00,-1.00,-2.00,-1.00
-4.00,+0.00,-3.00,-2.00,-4.00,+0.00,+0.00,+2.00,+5.00,-3.00,-1.00,-2.00,-2.00,-1.00,+0.00,-2.00
-6.00,+1.00,-2.00,-2.00,+0.00,-3.00,-3.00,-2.00,-2.00,+6.00,+2.00,-1.00,-2.00,-1.00,-1.00,+0.00
-7.00,+4.00,+3.00,-2.00,+0.00,+0.00,+2.00,+0.00,+0.00,+2.00,+2.00,-1.00,-1.00,-2.00,-1.00,-2.00
-8.00,-5.00,+0.00,-2.00,+0.00,-2.00,-1.00,-3.00,-5.00,-1.00,+0.00,+0.00,+0.00,-1.00,-3.00,-3.00
+4.00,+7.00,+3.00,+1.00,-2.00,+0.00,-1.00,-1.00,+4.00,-4.00,-2.00,-2.00,+0.00,-1.00,-2.00,-2.00
+9.00,+3.00,+2.00,+0.00,-1.00,+1.00,-2.00,+0.00,-5.00,-4.00,-1.00,+1.00,-1.00,-1.00,+0.00,+4.00
-6.00,-2.00,-1.00,-1.00,-2.00,-2.00,-1.00,-3.00,+14.00,+4.00,-1.00,-4.00,-4.00,-2.00,-3.00,-1.00
+3.00,+2.00,-1.00,+1.00,+0.00,-2.00,-1.00,+0.00,-20.00,-2.00,+0.00,-2.00,-1.00,+0.00,+0.00,+0.00
-10.00,-4.00,-4.00,+0.00,-1.00,-2.00,-3.00,-2.00,-5.00,-7.00,-1.00,+0.00,-1.00,+1.00,+0.00,-2.00
+5.00,-9.00,-3.00,-2.00,-7.00,-4.00,-3.00,-2.00,+3.00,+0.00,+1.00,-1.00,+0.00,+0.00,+1.00,+5.00
-10.00,-24.00,+0.00,+1.00,+8.00,+2.00,-1.00,-1.00,-2.00,+4.00,+0.00,-2.00,+0.00,-2.00,+0.00,+0.00
+17.00,+44.00,+1.00,-2.00,-1.00,-1.00,+0.00,-2.00,+18.00,+1.00,-1.00,-1.00,-1.00,+0.00,-1.00,+3.00
+7.00,-2.00,+0.00,+0.00,-1.00,+0.00,+0.00,+4.00,-18.00,-4.00,+0.00,-1.00,+0.00,-2.00,-2.00,-4.00
-6.00,+4.00,+2.00,-2.00,+1.00,-1.00,-2.00,-4.00,-19.00,-8.00,-2.00,+1.00,+1.00,-2.00,-2.00,-4.00
+9.00,-1.00,+0.00,+0.00,-4.00,-2.00,-1.00,+2.00,+4.00,+1.00,-1.00,-2.00,+0.00,-2.00,+0.00,-1.00
-19.00,-23.00,-3.00,+0.00,-3.00,-1.00,-2.00,-3.00,-7.00,+3.00,+2.00,+2.00,+1.00,-1.00,+0.00,-5.00
+4.00,+22.00,+1.00,-1.00,-2.00,-2.00,-1.00,-3.00,-5.00,+4.00,-4.00,-3.00,-2.00,+0.00,+1.00,+2.00
+4.00,-1.00,-2.00,-1.00,-4.00,+0.00,+0.00,-4.00,-14.00,-24.00,-4.00,+4.00,-5.00,-3.00,-2.00,-2.00
+4.00,+3.00,-3.00,+1.00,-2.00,-2.00,-2.00,-7.00,-18.00,+4.00,+0.00,+0.00,+8.00,+2.00,-1.00,-5.00
+5.00,+8.00,+1.00,-2.00,+1.00,+3.00,-2.00,-2.00,+35.00,+7.00,-1.00,+4.00,-6.00,-3.00,+4.00,+13.00
-5.00,+4.00,-4.00,-1.00,-9.00,-3.00,+2.00,-3.00,+14.00,+30.00,+3.00,-20.00,-17.00,-4.00,-5.00,-5.00
+3.00,-79.00,-6.00,-1.00,+2.00,-2.00,-1.00,+3.00,-39.00,-21.00,-5.00,+29.00,-9.00,-1.00,+2.00,+0.00
-6.00,+57.00,+2.00,-4.00,-13.00,-10.00,+3.00,+4.00,-28.00,-5.00,+7.00,-17.00,+21.00,+2.00,+2.00,-2.00
-5.00,+21.00,+5.00,+3.00,-29.00,+2.00,-8.00,+7.00,+9.00,-4.00,-5.00,-32.00,-28.00,-4.00,-4.00,+6.00
-11.00,+11.00,+2.00,+3.00,+44.00,+0.00,-2.00,+1.00,-22.00,-10.00,+1.00,+1.00,+11.00,-16.00,+1.00,-2.00
+0.00,+46.00,+1.00,-6.00,-3.00,+19.00,-1.00,-2.00,+7.00,+13.00,-5.00,-10.00,+35.00,+9.00,+0.00,-8.00
+43.00,+7.00,+7.00,+7.00,-4.00,-7.00,+0.00,+11.00,+24.00,-30.00,-3.00,+39.00,-26.00,+1.00,-6.00,-4.00
-4.00,-17.00,-2.00,+4.00,+36.00,+12.00,+39.00,+2.00,+11.00,+22.00,-1.00,-21.00,+6.00,+7.00,-2.00,-1.00
-7.00,-12.00,-4.00,-4.00,-39.00,-6.00,-5.00,+1.00,+28.00,+13.00,+0.00,-14.00,-5.00,-11.00,-6.00,-5.00
-17.00,+3.00,-5.00,+2.00,-9.00,-5.00,-46.00,-7.00,+9.00,+26.00,+4.00,-10.00,-12.00,-10.00,-2.00,-2.00
-4.00,-45.00,-6.00,-10.00,-56.00,-5.00,-4.00,-2.00,-41.00,-31.00,-4.00,+17.00,-8.00,+17.00,+2.00,-1.00
-16.00,+26.00,+2.00,+1.00,+23.00,-1.00,-5.00,-6.00,-44.00,-39.00,-7.00,-15.00,+16.00,-3.00,+21.00,-12.00
+15.00,-27.00,-6.00,+1.00,+22.00,+1.00,+5.00,+1.00,-35.00,+47.00,+7.00,+7.00,-14.00,+13.00,-41.00,+3.00
-7.00,+4.00,-2.00,-2.00,+6.00,-5.00,+11.00,-1.00,+47.00,-31.00,-9.00,+4.00,+7.00,-5.00,+42.00,+3.00
-8.00,+10.00,+1.00,-2.00,-12.00,+5.00,-8.00,-2.00,+31.00,-54.00,-8.00,-3.00,-9.00,-3.00,-3.00,+6.00
+6.00,-28.00,-2.00,-4.00,-11.00,-8.00,-6.00,-1.00,-71.00,+48.00,-1.00,-9.00,+0.00,-31.00,+13.00,-8.00
-12.00,+4.00,-5.00,+1.00,+28.00,-8.00,+2.00,+0.00,+67.00,+45.00,-2.00,-3.00,+21.00,+74.00,+30.00,+15.00
+21.00,+11.00,+9.00,-3.00,-22.00,+3.00,+4.00,+1.00,-26.00,+9.00,+7.00,-11.00,+11.00,+13.00,-19.00,+1.00
-10.00,-8.00,+1.00,+1.00,+15.00,+2.00,-7.00,-2.00,+2.00,-5.00,-3.00,+6.00,-6.00,-6.00,+2.00,-5.00
+11.00,-85.00,-4.00,-2.00,+15.00,-12.00,+6.00,+3.00,-39.00,-89.00,-4.00,+24.00,-34.00,+9.00,-13.00,-13.00
-7.00,+57.00,+2.00,+0.00,-9.00,+6.00,-29.00,-3.00,+8.00,+9.00,-9.00,+8.00,+38.00,-12.00,-6.00,-8.00
+9.00,-34.00,+2.00,+2.00,-9.00,-13.00,-2.00,+5.00,-5.00,-46.00,-2.00,-31.00,-8.00,-13.00,-11.00,-5.00
-17.00,-47.00,-1.00,+1.00,+4.00,-7.00,+9.00,-6.00,+0.00,+21.00,-6.00,-14.00,-2.00,+1.00,+4.00,+3.00
+0.00,+62.00,+3.00,-8.00,-13.00,+4.00,+2.00,-3.00,+50.00,-57.00,+3.00,+41.00,-59.00,+3.00,-10.00,+1.00
+12.00,-45.00,-8.00,-1.00,-3.00,+2.00,+8.00,-3.00,-60.00,-52.00,-4.00,-29.00,+60.00,-22.00,-1.00,+1.00
-22.00,-40.00,-4.00,+0.00,+14.00,+10.00,-17.00,-2.00,+1.00,+40.00,+2.00,+4.00,-5.00,-13.00,-27.00,+6.00
-5.00,+16.00,-1.00,-3.00,+13.00,+3.00,-20.00,-3.00,-22.00,+20.00,+9.00,+11.00,+3.00,+6.00,-1.00,-12.00
+4.00,-39.00,-13.00,-7.00,-29.00,-6.00,-14.00,+2.00,+62.00,+127.00,-4.00,-11.00,-12.00,-59.00,+17.00,+14.00
-7.00,+9.00,+2.00,-5.00,-13.00,-22.00,+35.00,-8.00,+127.00,-34.00,+6.00,-6.00,+11.00,+65.00,+15.00,+13.00
-8.00,+59.00,+0.00,+2.00,+29.00,+6.00,-30.00,-3.00,-80.00,-58.00,-8.00,+6.00,-35.00,-8.00,-26.00,-13.00
+23.00,-65.00,+6.00,+5.00,-2.00,+20.00,+62.00,+9.00,-9.00,+28.00,-6.00,-2.00,-21.00,-13.00,-20.00,+0.00
-45.00,+2.00,-6.00,+1.00,+20.00,+14.00,-42.00,-10.00,-10.00,+31.00,+13.00,+46.00,+39.00,-14.00,+42.00,-9.00
+14.00,-11.00,-5.00,+0.00,+17.00,+1.00,+35.00,+4.00,-22.00,-20.00,+4.00,+20.00,-51.00,-38.00,-6.00,-12.00
+8.00,+50.00,+17.00,-1.00,+4.00,-2.00,+28.00,+0.00,-4.00,+25.00,+0.00,-22.00,+21.00,-16.00,-1.00,-1.00
+12.00,+97.00,-1.00,-3.00,-3.00,-12.00,-43.00,-3.00,-76.00,-45.00,-5.00,-14.00,-15.00,-37.00,+47.00,-14.00
+38.00,+39.00,+2.00,+1.00,-29.00,+1.00,+17.00,+7.00,+50.00,-25.00,-5.00,-1.00,+75.00,+38.00,-4.00,+28.00
-17.00,-67.00,+2.00,-2.00,-62.00,+1.00,-17.00,-5.00,-37.00,-3.00,+0.00,-4.00,-6.00,-8.00,+33.00,-10.00
+18.00,-61.00,-15.00,-1.00,+56.00,+7.00,-12.00,-11.00,+25.00,+12.00,-1.00,+45.00,-32.00,-4.00,-24.00,+9.00
+19.00,+11.00,-4.00,-1.00,+0.00,+3.00,+23.00,+0.00,+32.00,-15.00,+1.00,-49.00,+28.00,-24.00,-34.00,+8.00
-25.00,+37.00,-2.00,-7.00,-24.00,+10.00,+24.00,-2.00,-36.00,-55.00,-9.00,-41.00,-1.00,+97.00,-44.00,-24.00
+10.00,+38.00,+7.00,+4.00,-11.00,-6.00,-15.00,+3.00,+4.00,+70.00,+27.00,+20.00,-46.00,-30.00,+39.00,+7.00
-35.00,-20.00,-3.00,-2.00,-25.00,-12.00,+6.00,+1.00,+16.00,+27.00,-3.00,-6.00,+11.00,-8.00,-27.00,-27.00
-35.00,+73.00,-3.00,+4.00,+56.00,-31.00,-35.00,-7.00,+46.00,+44.00,+4.00,+23.00,-20.00,-49.00,-37.00,-10.00
+21.00,-49.00,+6.00,-1.00,-4.00,-18.00,+18.00,+6.00,+83.00,+7.00,-8.00,-5.00,+32.00,-9.00,-60.00,+18.00
-20.00,-87.00,-11.00,+3.00,+16.00,+13.00,-17.00,-6.00,-33.00,-43.00,-15.00,-2.00,+8.00,+7.00,+74.00,+18.00
+10.00,+23.00,+1.00,-1.00,-6.00,+3.00,+22.00,-3.00,+49.00,+65.00,+5.00,-4.00,-21.00,-21.00,+55.00,-2.00
-6.00,-61.00,-21.00,-9.00,-2.00,+3.00,+22.00,+0.00,-28.00,+19.00,-5.00,-8.00,+36.00,+91.00,+48.00,-3.00
+29.00,+52.00,+19.00,+1.00,-36.00,-39.00,+11.00,+8.00,-29.00,-86.00,-14.00,+2.00,-50.00,-25.00,+38.00,-10.00
+7.00,-6.00,+2.00,-3.00,-38.00,-1.00,-23.00,+1.00,-32.00,+19.00,+9.00,+16.00,+41.00,+15.00,-36.00,-7.00
+0.00,-10.00,+2.00,+4.00,+10.00,-6.00,-71.00,-8.00,+31.00,-72.00,-21.00,-22.00,-29.00,+52.00,-19.00,+1.00
-48.00,-82.00,-5.00,+1.00,+12.00,+38.00,+65.00,-8.00,-14.00,+102.00,+7.00,-9.00,+40.00,-42.00,-60.00,-8.00
-5.00,-33.00,+3.00,-3.00,-18.00,-18.00,-89.00,-12.00,+17.00,-60.00,+0.00,+19.00,+0.00,-51.00,+89.00,+10.00
+64.00,+95.00,-4.00,-3.00,+10.00,+28.00,+85.00,+8.00,-22.00,-59.00,-17.00,-47.00,-39.00,-74.00,-122.00,-17.00
+75.00,-59.00,-9.00,-2.00,+19.00,+30.00,-50.00,+2.00,+41.00,+24.00,+10.00,-20.00,+22.00,+47.00,+20.00,-2.00
+40.00,+18.00,+4.00,+1.00,+1.00,-17.00,+65.00,-4.00,-18.00,+9.00,+4.00,+25.00,-14.00,+0.00,+12.00,+34.00
+7.00,+38.00,+0.00,+3.00,-4.00,+25.00,-26.00,+19.00,-96.00,-27.00,-5.00,-22.00,-25.00,+13.00,-31.00,-35.00
-88.00,-39.00,-9.00,-4.00,+17.00,-19.00,+0.00,-5.00,+126.00,+10.00,-4.00,+27.00,-8.00,-72.00,-44.00,+33.00
-32.00,+4.00,+1.00,-3.00,-38.00,-8.00,+70.00,-7.00,-128.00,+69.00,+24.00,-10.00,+22.00,-43.00,-55.00,-23.00
-21.00,+23.00,+15.00,+2.00,+20.00,+31.00,-50.00,+1.00,+35.00,-41.00,-5.00,-1.00,+3.00,-50.00,-87.00,+0.00
-7.00,+4.00,-9.00,-1.00,+5.00,+4.00,+74.00,-6.00,-23.00,+126.00,+22.00,+28.00,+0.00,+8.00,+20.00,-10.00
-21.00,-114.00,-6.00,-4.00,-25.00,-16.00,-30.00,+0.00,-93.00,-128.00,-31.00,-1.00,-8.00,+68.00,+15.00,-8.00
+13.00,+127.00,+5.00,+13.00,+24.00,-13.00,+46.00,+12.00,+75.00,+62.00,+6.00,-11.00,-14.00,-15.00,+19.00,+6.00
-55.00,-35.00,-2.00,-3.00,-47.00,-3.00,+21.00,+2.00,+6.00,-89.00,-5.00,-3.00,-62.00,-39.00,+19.00,+12.00
-61.00,-94.00,-9.00,+0.00,+31.00,+28.00,-78.00,-15.00,+65.00,+33.00,+7.00,+9.00,+60.00,+15.00,+34.00,-1.00
+6.00,+59.00,+14.00,-3.00,-2.00,+35.00,+23.00,+7.00,+2.00,+67.00,+14.00,-6.00,-4.00,-12.00,+9.00,+8.00
-65.00,-53.00,+7.00,+4.00,+26.00,+6.00,-21.00,-5.00,-37.00,-85.00,-11.00,+17.00,+12.00,+14.00,+4.00,-7.00
+21.00,-15.00,+0.00,-1.00,-16.00,-10.00,+62.00,+7.00,-64.00,+50.00,+8.00,+1.00,+8.00,+11.00,+30.00,-20.00
-10.00,+0.00,-11.00,-1.00,+7.00,-28.00,+19.00,-27.00,+0.00,-41.00,-2.00,-23.00,-5.00,-38.00,-46.00,-7.00
+40.00,+15.00,+15.00,+6.00,-7.00,-14.00,+59.00,+10.00,-71.00,-42.00,-10.00,+20.00,-8.00,-49.00,+4.00,-18.00
+37.00,-10.00,-11.00,-6.00,+3.00,-19.00,+16.00,+4.00,+127.00,+1.00,-15.00,+0.00,+3.00,-4.00,+13.00,+3.00
+26.00,+55.00,+2.00,-1.00,-46.00,-57.00,-29.00,+12.00,+23.00,-41.00,-3.00,-13.00,+17.00,+9.00,+15.00,+0.00
+26.00,-68.00,-3.00,+0.00,+52.00,+24.00,-21.00,+0.00,-105.00,-56.00,-14.00,+13.00,-36.00,+8.00,-4.00,-29.00
+0.00,-25.00,-8.00,-6.00,-4.00,-27.00,-11.00,-12.00,+127.00,+85.00,+6.00,-36.00,-8.00,-10.00,-50.00,-6.00
+15.00,+71.00,+12.00,+1.00,+17.00,-9.00,-31.00,-3.00,-128.00,-128.00,-1.00,+24.00,-58.00,+7.00,-25.00,+2.00
+2.00,-48.00,-21.00,-5.00,+23.00,+8.00,+0.00,-1.00,+34.00,+99.00,+7.00,-34.00,+48.00,+22.00,+99.00,-16.00
+23.00,-19.00,-4.00,-3.00,-9.00,-8.00,+55.00,+3.00,-9.00,-26.00,+5.00,+1.00,+7.00,+54.00,-45.00,+17.00
+11.00,+56.00,+5.00,+4.00,-11.00,+0.00,-14.00,+7.00,-10.00,+44.00,-1.00,-1.00,-27.00,-69.00,+9.00,-4.00
-50.00,+20.00,-9.00,-3.00,+3.00,+2.00,-22.00,+8.00,+6.00,-89.00,-14.00,+26.00,+15.00,-4.00,-47.00,-34.00
+23.00,+1.00,+6.00,+0.00,-21.00,-4.00,-50.00,-16.00,+86.00,+75.00,+1.00,-34.00,-69.00,+39.00,-14.00,+29.00
-22.00,-23.00,+1.00,+4.00,+19.00,+12.00,-44.00,+7.00,+5.00,+14.00,-5.00,+17.00,+39.00,-32.00,+14.00,-1.00
-35.00,+8.00,-5.00,-5.00,+11.00,+5.00,-85.00,-9.00,+56.00,+52.00,-5.00,+19.00,+14.00,+30.00,+94.00,-11.00
+3.00,-61.00,-20.00,-14.00,-32.00,-8.00,+74.00,-10.00,-47.00,-49.00,-7.00,-21.00,-3.00,-23.00,+1.00,+16.00
-9.00,+26.00,+20.00,+6.00,+14.00,-4.00,+22.00,+7.00,-51.00,-2.00,-1.00,-11.00,+20.00,-27.00,-6.00,-1.00
+6.00,+55.00,-7.00,-8.00,-59.00,-36.00,+39.00,+4.00,-42.00,-21.00,+9.00,+53.00,-22.00,+18.00,+5.00,+16.00
-8.00,-13.00,-7.00,-6.00,-11.00,+6.00,-100.00,-3.00,+36.00,+28.00,+1.00,-61.00,-35.00,+13.00,-59.00,-15.00
-11.00,-82.00,-3.00,-1.00,+19.00,-1.00,+30.00,-1.00,+81.00,-32.00,-4.00,-15.00,+14.00,+7.00,+30.00,+19.00
+21.00,+36.00,-5.00,+3.00,+24.00,+7.00,-1.00,+2.00,+31.00,+33.00,+12.00,+73.00,-8.00,-8.00,+62.00,+15.00
+5.00,-32.00,+15.00,+2.00,-14.00,-8.00,-42.00,-5.00,+96.00,-21.00,-9.00,-69.00,-43.00,+5.00,-55.00,-11.00
+25.00,-55.00,-4.00,+6.00,+67.00,+7.00,+25.00,-8.00,-40.00,-126.00,-2.00,+78.00,+29.00,+85.00,+27.00,+21.00
-13.00,+114.00,+7.00,-5.00,-32.00,-2.00,-61.00,-12.00,-28.00,+67.00,+1.00,-17.00,-10.00,-11.00,+76.00,-1.00
+36.00,-90.00,+2.00,+3.00,-20.00,+8.00,-72.00,+5.00,-85.00,-25.00,-5.00,-45.00,+9.00,+26.00,-16.00,-12.00
-9.00,+17.00,-6.00,+1.00,+39.00,+16.00,-37.00,-11.00,+93.00,+103.00,+0.00,-21.00,-19.00,+26.00,-119.00,+13.00
+6.00,+9.00,-2.00,-9.00,-20.00,-15.00,-40.00,+8.00,-128.00,-124.00,-10.00,+0.00,+47.00,+45.00,+48.00,-23.00
-33.00,-96.00,-8.00,-1.00,+1.00,-15.00,+18.00,-8.00,+8.00,+81.00,+8.00,+8.00,-7.00,-24.00,-57.00,-2.00
-20.00,+25.00,-6.00,+0.00,+45.00,-20.00,-24.00,-3.00,+91.00,-17.00,+3.00,+26.00,+5.00,-27.00,-74.00,+21.00
-2.00,+28.00,-6.00,-2.00,-20.00,-27.00,+8.00,+1.00,-36.00,+31.00,-13.00,+16.00,+4.00,-31.00,+19.00,+4.00
+4.00,+42.00,-2.00,-4.00,+18.00,+13.00,-64.00,-16.00,+89.00,-20.00,-6.00,-42.00,+38.00,+4.00,-20.00,+10.00
+8.00,-11.00,+15.00,+6.00,-33.00,-15.00,+41.00,+20.00,-81.00,-37.00,+6.00,+54.00,+57.00,+39.00,+27.00,+0.00
-10.00,+31.00,+2.00,-3.00,-42.00,-4.00,-47.00,-4.00,-94.00,-77.00,-18.00,-46.00,-80.00,-45.00,-45.00,-29.00
+5.00,+65.00,+7.00,-1.00,-7.00,+5.00,+39.00,+7.00,+90.00,-5.00,+10.00,+3.00,+24.00,+0.00,+35.00,+11.00
-30.00,-23.00,-7.00,+0.00,-2.00,+1.00,+6.00,-5.00,-99.00,+22.00,+12.00,+8.00,-81.00,+12.00,-59.00,-9.00
-2.00,-21.00,-9.00,-3.00,+7.00,+16.00,+3.00,+11.00,+15.00,-62.00,-3.00,+0.00,-9.00,-55.00,-13.00,+11.00
-17.00,+1.00,-3.00,+6.00,+54.00,+14.00,+19.00,-1.00,-75.00,+74.00,+18.00,+13.00,+64.00,+22.00,+77.00,+7.00
-19.00,-3.00,+2.00,+3.00,+12.00,+8.00,+9.00,+4.00,-28.00,-85.00,-5.00,-11.00,+10.00,+8.00,-50.00,+8.00
-8.00,-9.00,-2.00,-1.00,-28.00,-11.00,+21.00,-6.00,-121.00,-34.00,-4.00,+30.00,-3.00,+5.00,+3.00,+3.00
-8.00,+11.00,+0.00,-3.00,-47.00,-1.00,-8.00,-22.00,-31.00,+52.00,+0.00,-38.00,+36.00,+0.00,-17.00,-2.00
+7.00,-74.00,+2.00,+1.00,+21.00,-19.00,+67.00,+7.00,+74.00,-4.00,-2.00,+10.00,-25.00,+28.00,-14.00,+13.00
+2.00,+32.00,+6.00,+6.00,+12.00,-1.00,+35.00,+0.00,-17.00,+10.00,+8.00,+4.00,+5.00,-16.00,+33.00,+2.00
-5.00,+1.00,-3.00,-3.00,+23.00,+13.00,+29.00,+4.00,+15.00,-59.00,-7.00,-17.00,+74.00,+7.00,-11.00,+6.00
-27.00,-1.00,-4.00,+1.00,+0.00,-6.00,-30.00,-5.00,-81.00,-9.00,+0.00,+32.00,-41.00,+24.00,-2.00,-10.00
-46.00,+20.00,+4.00,-1.00,-12.00,+8.00,-31.00,-1.00,+59.00,+19.00,-11.00,-2.00,+22.00,+33.00,+28.00,+6.00
+41.00,-30.00,+2.00,+0.00,-28.00,-19.00,-56.00,-5.00,-115.00,+12.00,+8.00,+50.00,+49.00,+36.00,+39.00,+6.00
+66.00,-15.00,+4.00,+0.00,-6.00,+18.00,+7.00,+0.00,+8.00,+24.00,-1.00,-52.00,-34.00,-87.00,-53.00,+8.00
+115.00,+6.00,-7.00,-2.00,-29.00,+13.00,+6.00,-7.00,-11.00,+15.00,-3.00,-8.00,-6.00,+20.00,-51.00,-19.00
+20.00,+34.00,+3.00,-7.00,-4.00,+13.00,-11.00,+1.00,+46.00,-98.00,-22.00,-19.00,-25.00,-39.00,-60.00,-3.00
-37.00,+17.00,-10.00,-10.00,-35.00,+6.00,-52.00,-2.00,-66.00,+24.00,-6.00,-5.00,+11.00,-11.00,+67.00,-23.00
-43.00,-4.00,+7.00,+15.00,+74.00,-18.00,-24.00,+7.00,+47.00,-9.00,+6.00,-40.00,-15.00,+29.00,-24.00,+22.00
-48.00,-34.00,-6.00,-6.00,-3.00,+10.00,+86.00,+5.00,+104.00,+102.00,+3.00,+24.00,-13.00,-13.00,+47.00,+2.00
-40.00,+6.00,-13.00,-4.00,+10.00,+2.00,-65.00,-15.00,+7.00,-128.00,-18.00,-20.00,+42.00,+10.00,-24.00,+1.00
-15.00,-41.00,+3.00,-5.00,-36.00,-14.00,-37.00,-9.00,-89.00,+97.00,+10.00,-5.00,-32.00,-5.00,-87.00,-28.00
+32.00,-7.00,+4.00,+2.00,+12.00,+3.00,+78.00,+15.00,+46.00,-7.00,-12.00,+17.00,-16.00,-21.00,+53.00,-13.00
+4.00,+66.00,-1.00,-3.00,+1.00,+9.00,+11.00,+2.00,+112.00,-37.00,-8.00,-30.00,-7.00,-11.00,+15.00,+4.00
-17.00,-47.00,-1.00,+0.00,+22.00,+7.00,+96.00,-2.00,+102.00,-28.00,+3.00,+14.00,-10.00,+79.00,+40.00,-4.00
-8.00,-34.00,-10.00,+0.00,+36.00,+17.00,+55.00,+4.00,+3.00,+22.00,-10.00,-20.00,+7.00,+5.00,-21.00,-3.00
-10.00,+71.00,+15.00,+0.00,-31.00,-2.00,-59.00,-1.00,-20.00,-5.00,+3.00,+23.00,+34.00,-14.00,+89.00,+5.00
+41.00,-37.00,-3.00,+2.00,+7.00,+1.00,-53.00,+15.00,+6.00,+83.00,+17.00,+33.00,+0.00,+9.00,-25.00,+14.00
+25.00,+1.00,+1.00,-6.00,-20.00,-14.00,+13.00,-1.00,-30.00,+20.00,-9.00,-13.00,-21.00,+0.00,-57.00,-14.00
+11.00,-52.00,-12.00,-2.00,+17.00,+8.00,+43.00,+10.00,-22.00,-105.00,-10.00,-19.00,-7.00,+10.00,-20.00,-13.00
-17.00,+21.00,+1.00,+0.00,-12.00,+17.00,+15.00,-17.00,-36.00,+109.00,+9.00,+2.00,-9.00,-13.00,+28.00,-3.00
+3.00,-31.00,+9.00,+2.00,+2.00,+7.00,+17.00,+18.00,-22.00,+62.00,+13.00,-18.00,+31.00,+8.00,-5.00,+26.00
+2.00,+18.00,-4.00,-3.00,-12.00,-10.00,+27.00,-4.00,-99.00,+19.00,+8.00,+24.00,-5.00,-14.00,+38.00,-7.00
+22.00,-31.00,-3.00,-8.00,-8.00,-3.00,+18.00,-11.00,-2.00,-60.00,+0.00,+4.00,-7.00,-38.00,-16.00,+5.00
+12.00,-11.00,-17.00,-3.00,+6.00,+10.00,+104.00,+11.00,-14.00,-17.00,+0.00,+62.00,+36.00,-13.00,-11.00,-3.00
+11.00,-10.00,+5.00,+5.00,+27.00,+15.00,+19.00,-1.00,-46.00,-21.00,-5.00,-52.00,-10.00,-11.00,+15.00,+1.00
+7.00,+17.00,+0.00,+4.00,-15.00,+2.00,-8.00,+2.00,-59.00,-92.00,+3.00,-7.00,-8.00,-23.00,+15.00,-29.00
-28.00,+2.00,+4.00,+5.00,+20.00,+15.00,-19.00,+3.00,+16.00,+27.00,+0.00,+2.00,-6.00,-10.00,+10.00,+4.00
+5.00,+10.00,+0.00,-8.00,-68.00,-12.00,+28.00,-3.00,-1.00,+90.00,+17.00,+32.00,+5.00,+16.00,-98.00,+27.00
-37.00,-28.00,-5.00,-2.00,+7.00,-30.00,+19.00,+2.00,-35.00,+10.00,-10.00,-43.00,-17.00,+5.00,+6.00,-18.00
-9.00,+58.00,-2.00,+4.00,+15.00,+18.00,-27.00,-15.00,-25.00,-69.00,-8.00,+17.00,-25.00,+51.00,-44.00,-14.00
-11.00,-79.00,+4.00,-1.00,-1.00,-3.00,-30.00,+2.00,+29.00,+89.00,+23.00,+9.00,+13.00,+18.00,+0.00,-1.00
-21.00,-2.00,+5.00,-2.00,-13.00,-6.00,+99.00,+6.00,-17.00,-73.00,-8.00,-20.00,-9.00,+15.00,+11.00,-21.00
-20.00,-76.00,-19.00,-5.00,-21.00,-24.00,+62.00,-6.00,-11.00,-111.00,-22.00,+1.00,-20.00,+10.00,-11.00,-9.00
+14.00,+32.00,-5.00,-8.00,-28.00,+8.00,+12.00,-3.00,-9.00,+127.00,+26.00,+3.00,+5.00,-36.00,+65.00,+13.00
+48.00,+8.00,+9.00,+9.00,+4.00,+9.00,+39.00,+8.00,+7.00,-123.00,-8.00,-9.00,-14.00,-33.00,-8.00,+21.00
+9.00,-3.00,+9.00,-1.00,-8.00,-3.00,-79.00,-18.00,-8.00,+32.00,-1.00,-23.00,-13.00,+7.00,+0.00,-18.00
-9.00,+64.00,+4.00,-7.00,+1.00,-21.00,-59.00,-12.00,-3.00,-103.00,-4.00,+18.00,+9.00,-43.00,-47.00,+10.00
+5.00,-114.00,-26.00,-1.00,-5.00,+4.00,-18.00,-7.00,-7.00,+34.00,-2.00,+24.00,-1.00,+37.00,+37.00,+11.00
+22.00,+41.00,+3.00,-1.00,-6.00,+4.00,+30.00,+5.00,+1.00,-24.00,-22.00,-24.00,-49.00,+6.00,+69.00,+7.00
+74.00,-29.00,-13.00,-6.00,+2.00,-16.00,-72.00,-6.00,-1.00,+16.00,-2.00,+3.00,+15.00,+11.00,+19.00,-6.00
+42.00,+39.00,+7.00,+1.00,-4.00,+23.00,-71.00,-2.00,+4.00,+8.00,-3.00,+6.00,+0.00,+29.00,+48.00,-6.00
-5.00,+13.00,+4.00,-8.00,-54.00,-8.00,-128.00,-12.00,-14.00,-63.00,-21.00,+14.00,+25.00,-15.00,-39.00,+1.00
-29.00,+20.00,-10.00,+4.00,+68.00,+4.00,+50.00,+7.00,+6.00,+34.00,+4.00,-36.00,-9.00,-27.00,-20.00,-11.00
-40.00,+4.00,+9.00,+9.00,+19.00,-13.00,-24.00,-5.00,+3.00,+14.00,-7.00,+56.00,-16.00,+3.00,-62.00,+6.00
-10.00,-1.00,-6.00,-6.00,-12.00,+5.00,-43.00,+9.00,-5.00,+3.00,+12.00,-17.00,-28.00,-10.00,-43.00,-16.00
-19.00,-2.00,-5.00,-11.00,-14.00,-7.00,+58.00,+5.00,-9.00,+25.00,-1.00,+6.00,-19.00,+11.00,+7.00,+24.00
-25.00,+0.00,-15.00,-7.00,-8.00,-10.00,-52.00,-9.00,+6.00,+68.00,+20.00,-6.00,+5.00,-27.00,+17.00,-10.00
-14.00,+45.00,+5.00,-2.00,-6.00,+16.00,+10.00,+2.00,+2.00,-128.00,-28.00,-22.00,-32.00,-4.00,+69.00,-26.00
-2.00,-36.00,+9.00,+11.00,+18.00,+9.00,+46.00,-4.00,-7.00,+98.00,+20.00,+21.00,+33.00,+7.00,+44.00,+28.00
-6.00,+78.00,+17.00,+3.00,+28.00,-6.00,-27.00,+14.00,-5.00,+33.00,+4.00,+12.00,+22.00,-3.00,-10.00,-17.00
-15.00,-54.00,-8.00,+9.00,+7.00,-1.00,-86.00,+1.00,+7.00,-128.00,-34.00,-2.00,+4.00,+28.00,-9.00,+24.00
-14.00,+28.00,-9.00,-9.00,+4.00,-3.00,+59.00,-11.00,-4.00,+112.00,+27.00,-22.00,-19.00,-7.00,+5.00,-4.00
+13.00,-13.00,+7.00,+8.00,-21.00,-6.00,-4.00,+11.00,-2.00,-18.00,-21.00,-1.00,+1.00,-7.00,-23.00,-17.00
+3.00,+7.00,+1.00,+1.00,-2.00,-8.00,+13.00,+3.00,-2.00,-44.00,+7.00,+4.00,+2.00,-9.00,+2.00,+34.00
-7.00,+3.00,+5.00,-7.00,-29.00,+9.00,+96.00,-3.00,+1.00,-65.00,+4.00,+22.00,-5.00,+16.00,+12.00,-2.00
+23.00,-43.00,-14.00,+4.00,+25.00,+0.00,-9.00,+8.00,-25.00,-59.00,-2.00,-36.00,+19.00,-48.00,-18.00,-11.00
-2.00,+5.00,-3.00,-4.00,-2.00,-12.00,-23.00,-8.00,+28.00,+0.00,-9.00,+45.00,+22.00,+20.00,-27.00,+11.00
-17.00,-32.00,-11.00,-3.00,-15.00,+9.00,+16.00,+12.00,-21.00,+69.00,+20.00,-25.00,-29.00,-8.00,-54.00,-14.00
+1.00,+42.00,+15.00,-2.00,-15.00,-7.00,-13.00,+1.00,-15.00,-36.00,-17.00,+4.00,+42.00,-19.00,+20.00,-8.00
-6.00,-42.00,-16.00,+0.00,+17.00,-15.00,-79.00,+2.00,-86.00,-7.00,-8.00,-76.00,-29.00,+33.00,+59.00,-13.00
-6.00,+40.00,+16.00,-2.00,-12.00,+13.00,+70.00,-3.00,+18.00,+21.00,+21.00,+28.00,+2.00,+9.00,+85.00,+39.00
+20.00,+9.00,-4.00,+7.00,+19.00,-4.00,-23.00,-4.00,-36.00,+7.00,-6.00,-8.00,+17.00,-11.00,+24.00,-22.00
+14.00,+15.00,-1.00,-4.00,+2.00,+2.00,+16.00,-8.00,+61.00,+31.00,-4.00,-16.00,+3.00,+12.00,-23.00,+9.00
-4.00,-73.00,+10.00,+6.00,+49.00,+19.00,+57.00,+18.00,-65.00,-23.00,-3.00,+47.00,-9.00,-19.00,+23.00,-14.00
+27.00,+28.00,-3.00,+2.00,-12.00,+2.00,-2.00,+18.00,-63.00,+19.00,+15.00,-57.00,-23.00,-15.00,+21.00,-4.00
+11.00,-13.00,+7.00,-1.00,-23.00,+3.00,-24.00,-5.00,-23.00,-10.00,+1.00,-8.00,-2.00,+24.00,-58.00,+4.00
-8.00,+8.00,-7.00,-2.00,+9.00,-4.00,-29.00,-13.00,-82.00,-13.00,+4.00,+36.00,+18.00,-11.00,+29.00,-6.00
+8.00,+30.00,+1.00,-7.00,-51.00,-5.00,+99.00,+0.00,+117.00,+46.00,+2.00,-47.00,+4.00,+48.00,-19.00,+31.00
-10.00,-36.00,-6.00,+1.00,+11.00,+21.00,-43.00,-8.00,-38.00,-110.00,-8.00,-5.00,-3.00,+12.00,-38.00,-1.00
+1.00,+27.00,+12.00,+6.00,+16.00,+14.00,+3.00,+4.00,+66.00,+86.00,-3.00,-1.00,-9.00,-45.00,-53.00,-31.00
-3.00,+6.00,-2.00,-6.00,-31.00,-7.00,-32.00,-8.00,-34.00,-28.00,+3.00,-8.00,+19.00,-2.00,+32.00,+5.00
-36.00,-26.00,+3.00,+4.00,-4.00,-7.00,-17.00,-7.00,+77.00,-14.00,+0.00,+23.00,-13.00,-62.00,-51.00,+10.00
-15.00,+8.00,+7.00,-3.00,+11.00,-1.00,-73.00,+2.00,-44.00,-20.00,-7.00,+1.00,-7.00,+48.00,-72.00,+6.00
-11.00,-43.00,-15.00,-3.00,+31.00,-1.00,+14.00,-8.00,-88.00,+58.00,+10.00,-9.00,+9.00,+41.00,+71.00,-23.00
+21.00,+46.00,+10.00,+0.00,-20.00,-6.00,+52.00,+21.00,-32.00,+8.00,-4.00,-15.00,-31.00,+2.00,-26.00,-4.00
-10.00,+34.00,+0.00,+0.00,+17.00,-2.00,-78.00,-6.00,+81.00,-53.00,-3.00,+27.00,-14.00,+18.00,-76.00,+5.00
-18.00,+26.00,-11.00,-5.00,+4.00,-15.00,+53.00,+0.00,-66.00,-8.00,-1.00,-6.00,+14.00,-39.00,+14.00,-14.00
-2.00,-101.00,+0.00,-3.00,-14.00,+10.00,-18.00,-4.00,+31.00,-25.00,-9.00,+0.00,-32.00,-16.00,+9.00,+9.00
+4.00,-10.00,+9.00,+4.00,+26.00,+5.00,-4.00,+5.00,+63.00,+30.00,+11.00,-16.00,-41.00,+17.00,-28.00,-4.00
+16.00,+22.00,+0.00,-3.00,-36.00,-5.00,+21.00,+5.00,-105.00,+9.00,-11.00,+20.00,+18.00,-19.00,+23.00,-21.00
-22.00,-23.00,-10.00,-1.00,+27.00,+13.00,+11.00,-6.00,+56.00,-101.00,-11.00,+26.00,+9.00,+5.00,-48.00,+1.00
-7.00,+4.00,-4.00,-3.00,-10.00,-20.00,+39.00,-4.00,-34.00,+13.00,-2.00,-22.00,+40.00,-13.00,-63.00,+5.00
-2.00,-18.00,-1.00,+2.00,-2.00,-5.00,+86.00,+2.00,+23.00,+44.00,-6.00,-28.00,-12.00,-15.00,+33.00,+2.00
+17.00,+7.00,-8.00,-10.00,-33.00,+0.00,-48.00,-13.00,+53.00,+16.00,+10.00,+7.00,+14.00,+23.00,-12.00,+2.00
-16.00,-31.00,-9.00,-9.00,-71.00,-28.00,+1.00,+0.00,+14.00,-58.00,-17.00,+8.00,-6.00,+30.00,+85.00,+2.00
-1.00,+28.00,+3.00,+9.00,+75.00,-3.00,-60.00,+6.00,-6.00,-69.00,+9.00,-10.00,-12.00,+3.00,-67.00,+1.00
-1.00,+0.00,+5.00,+0.00,-2.00,+4.00,-79.00,-12.00,+16.00,+48.00,+3.00,+11.00,+0.00,-6.00,-2.00,-6.00
-14.00,-17.00,-2.00,+3.00,+40.00,+5.00,+33.00,+10.00,-48.00,-15.00,-5.00,+10.00,+12.00,+32.00,-57.00,-4.00
-28.00,+13.00,+0.00,-10.00,-10.00,-4.00,-13.00,-11.00,+19.00,+81.00,-1.00,-9.00,+0.00,-3.00,+26.00,-11.00
+26.00,-4.00,+7.00,+2.00,-15.00,+3.00,-22.00,+4.00,+0.00,-105.00,-25.00,+2.00,-3.00,-97.00,+1.00,-3.00
-2.00,+37.00,-6.00,-2.00,+25.00,-2.00,-29.00,-2.00,-98.00,+90.00,+15.00,-3.00,+9.00,+51.00,+22.00,-23.00
-4.00,+12.00,+1.00,-8.00,-21.00,-1.00,-12.00,-4.00,+7.00,+34.00,-7.00,+6.00,-16.00,+53.00,+46.00,-1.00
+15.00,-12.00,-10.00,-3.00,-8.00,+1.00,-7.00,+7.00,+39.00,+14.00,+15.00,-40.00,+24.00,-7.00,-24.00,+36.00
-26.00,-37.00,-4.00,-4.00,-8.00,-14.00,-60.00,-17.00,+105.00,+52.00,-10.00,-2.00,-14.00,-15.00,+66.00,+0.00
+4.00,-111.00,-23.00,-3.00,-11.00,+4.00,+21.00,+4.00,+9.00,-86.00,+4.00,+0.00,+9.00,-5.00,+32.00,-12.00
+14.00,+67.00,+21.00,-2.00,-13.00,-5.00,+3.00,+8.00,-128.00,-43.00,-8.00,+14.00,-22.00,-11.00,+59.00,-20.00
+14.00,+26.00,+8.00,+14.00,+39.00,+9.00,+13.00,+16.00,+82.00,-37.00,-5.00,+1.00,-5.00,+6.00,-8.00,+9.00
-25.00,-55.00,-6.00,-7.00,+1.00,+8.00,+24.00,-10.00,+12.00,-75.00,-17.00,-18.00,+29.00,+30.00,+65.00,+8.00
+3.00,+50.00,-8.00,-2.00,-8.00,-15.00,-80.00,-6.00,+41.00,+41.00,+6.00,+5.00,+4.00,-35.00,-20.00,+1.00
+2.00,-2.00,+5.00,-4.00,-14.00,+5.00,+46.00,+3.00,-64.00,+31.00,-2.00,+0.00,-3.00,-23.00,-24.00,-5.00
-11.00,+30.00,+2.00,+2.00,-8.00,-9.00,+29.00,-3.00,-28.00,+60.00,-2.00,+23.00,+0.00,-24.00,+26.00,-6.00
-2.00,+19.00,-3.00,+0.00,+29.00,-11.00,-15.00,-1.00,-27.00,-47.00,-1.00,+12.00,-5.00,-26.00,-71.00,-11.00
-10.00,-12.00,-9.00,-2.00,-15.00,-1.00,+0.00,-7.00,+39.00,-16.00,-3.00,-15.00,-26.00,-14.00,-84.00,-3.00
-6.00,-71.00,-15.00,-2.00,-1.00,-5.00,-67.00,-4.00,+9.00,-13.00,+10.00,-5.00,-26.00,+36.00,-38.00,+16.00
-5.00,+18.00,+6.00,-3.00,-3.00,+5.00,-34.00,-8.00,+70.00,+24.00,-6.00,-2.00,-8.00,-48.00,+62.00,-9.00
+4.00,+27.00,-3.00,-5.00,-41.00,-18.00,-45.00,-9.00,-31.00,-19.00,-4.00,+2.00,+20.00,+57.00,-27.00,-14.00
+0.00,+44.00,+9.00,+5.00,+43.00,+7.00,+18.00,+7.00,+24.00,+63.00,+5.00,+8.00,+4.00,-6.00,-22.00,+9.00
-20.00,-25.00,-3.00,-2.00,-27.00,-14.00,+97.00,+15.00,+76.00,-35.00,+3.00,-4.00,+10.00,+21.00,+89.00,+27.00
-18.00,+14.00,-4.00,-3.00,-25.00,+8.00,-12.00,-24.00,-103.00,-3.00,-2.00,-3.00,+3.00,-32.00,-26.00,-23.00
+13.00,-17.00,+0.00,+2.00,+30.00,+2.00,-48.00,+5.00,+60.00,+75.00,+0.00,-13.00,-12.00,+33.00,+23.00,+10.00
+12.00,+6.00,+4.00,+1.00,-7.00,+4.00,+2.00,-5.00,-28.00,-1.00,-9.00,+0.00,-4.00,-2.00,+9.00,+6.00
+10.00,-16.00,+5.00,+3.00,+17.00,+0.00,-29.00,+2.00,+13.00,-30.00,+9.00,-1.00,+15.00,-30.00,-35.00,-2.00
+12.00,+29.00,-2.00,-2.00,+3.00,+4.00,+28.00,+7.00,-39.00,+4.00,+2.00,+43.00,-2.00,+20.00,-15.00,-13.00
-12.00,-25.00,-5.00,-3.00,-7.00,+12.00,+3.00,+3.00,-2.00,-80.00,+1.00,-33.00,+29.00,-36.00,+45.00,+0.00
-11.00,-16.00,-1.00,-7.00,-17.00,-10.00,-12.00,-9.00,+57.00,-128.00,-27.00,-9.00,-14.00,+10.00,+29.00,+8.00
+21.00,+15.00,+4.00,+6.00,+9.00,+4.00,-42.00,-7.00,-88.00,+119.00,+19.00,-5.00,-21.00,-86.00,+73.00,+2.00
-1.00,-70.00,-9.00,-6.00,+0.00,-8.00,-31.00,-15.00,+80.00,-68.00,-17.00,+0.00,+4.00,+42.00,+62.00,+18.00
+34.00,+79.00,+10.00,+4.00,-18.00,-5.00,+47.00,+7.00,-97.00,+98.00,+21.00,+28.00,-12.00,+39.00,+54.00,-12.00
-5.00,-44.00,-1.00,-3.00,+19.00,+8.00,+11.00,-2.00,-44.00,-1.00,-3.00,+9.00,+6.00,+17.00,+49.00,+3.00
+9.00,+63.00,+9.00,+7.00,-10.00,+0.00,+45.00,+12.00,+78.00,+35.00,-5.00,-16.00,-15.00,+48.00,-1.00,+9.00
-30.00,-30.00,-1.00,-3.00,+16.00,+6.00,-37.00,-18.00,-52.00,-23.00,+0.00,-6.00,-21.00,+63.00,-39.00,-33.00
+8.00,+17.00,-11.00,-4.00,-25.00,-2.00,+84.00,+6.00,+101.00,-3.00,+3.00,+22.00,-2.00,-34.00,-31.00,+24.00
+16.00,-16.00,-5.00,-4.00,+1.00,+2.00,+72.00,+8.00,-13.00,-12.00,-3.00,-26.00,-11.00,+1.00,+13.00,-15.00
-13.00,-20.00,-5.00,+1.00,+44.00,+6.00,-53.00,-13.00,-41.00,-42.00,-8.00,-1.00,-15.00,-5.00,+19.00,-16.00
+33.00,+24.00,+0.00,+3.00,-38.00,+5.00,+41.00,+9.00,-90.00,-49.00,-4.00,+52.00,-21.00,-48.00,-52.00,-11.00
-8.00,-38.00,+6.00,+2.00,+40.00,+33.00,+56.00,+16.00,-5.00,+57.00,+23.00,-18.00,-5.00,-40.00,-21.00,-5.00
-21.00,+6.00,-6.00,-2.00,-17.00,-20.00,+66.00,-15.00,-16.00,-82.00,-8.00,+14.00,-7.00,+12.00,+67.00,+19.00
+4.00,-59.00,-10.00,-5.00,+7.00,+0.00,-33.00,-14.00,+56.00,+75.00,+7.00,-8.00,+30.00,-7.00,-85.00,-3.00
-25.00,+55.00,+1.00,-7.00,-35.00,-9.00,+75.00,+10.00,+87.00,-63.00,-10.00,-8.00,-9.00,-18.00,+33.00,-16.00
-11.00,-41.00,+1.00,+13.00,+57.00,+10.00,+52.00,+28.00,+12.00,+20.00,+3.00,+14.00,+1.00,-25.00,+53.00,+5.00
-5.00,+17.00,+3.00,-2.00,-6.00,+2.00,+4.00,+8.00,-21.00,+41.00,+9.00,+6.00,+4.00,+79.00,-53.00,+17.00
-19.00,+0.00,+5.00,+2.00,-7.00,+1.00,+1.00,-2.00,+37.00,-101.00,-5.00,+5.00,+10.00,-85.00,-3.00,-8.00
+22.00,-30.00,-1.00,-2.00,+38.00,-5.00,-31.00,-4.00,-17.00,+127.00,+3.00,-21.00,-7.00,+3.00,+6.00,+6.00
+17.00,+20.00,-5.00,-3.00,-34.00,-10.00,-34.00,+0.00,-97.00,-54.00,-12.00,-2.00,-9.00,+35.00,-85.00,-22.00
-6.00,+4.00,+6.00,+5.00,+1.00,+8.00,+33.00,-3.00,-3.00,+7.00,+10.00,-4.00,+3.00,-31.00,-39.00,+2.00
+10.00,+21.00,-5.00,-6.00,+0.00,+1.00,+10.00,-5.00,-10.00,-60.00,-11.00,+7.00,+28.00,+47.00,-23.00,-5.00
+17.00,+32.00,-4.00,-2.00,-13.00,-11.00,-23.00,-2.00,+34.00,+97.00,+14.00,-18.00,+9.00,-14.00,-84.00,+0.00
+13.00,-28.00,-2.00,-4.00,-3.00,-7.00,+40.00,-12.00,-42.00,-50.00,-13.00,+2.00,-24.00,-5.00,-10.00,-2.00
+13.00,+56.00,+11.00,+5.00,+23.00,-6.00,-63.00,+2.00,+4.00,-13.00,-4.00,+14.00,+1.00,-82.00,+63.00,+3.00
-35.00,-38.00,-12.00,-4.00,-3.00,-17.00,-17.00,-5.00,-34.00,+27.00,+7.00,+3.00,-22.00,+0.00,+56.00,+0.00
+21.00,+2.00,+5.00,+2.00,+9.00,-3.00,-3.00,+1.00,-13.00,-44.00,+4.00,-21.00,+5.00,+1.00,+28.00,+0.00
+4.00,-20.00,-1.00,-4.00,-26.00,+3.00,-11.00,-8.00,+11.00,+92.00,+9.00,+47.00,+1.00,-23.00,-33.00,+4.00
-8.00,+34.00,+6.00,+1.00,-14.00,+0.00,+38.00,-16.00,-44.00,-28.00,-2.00,-23.00,-17.00,+43.00,-15.00,-1.00
+2.00,-9.00,-4.00,+2.00,+1.00,-2.00,-26.00,+9.00,+36.00,+14.00,-5.00,-11.00,+17.00,-32.00,-19.00,-8.00
+6.00,+13.00,+6.00,+4.00,+36.00,-2.00,-27.00,-6.00,-2.00,-21.00,-3.00,-29.00,-45.00,+1.00,-39.00,-2.00
-43.00,+34.00,+0.00,+1.00,-26.00,-3.00,-38.00,-11.00,-11.00,-1.00,+6.00,+7.00,+8.00,+19.00,+17.00,-17.00
-2.00,-9.00,+1.00,-2.00,-3.00,+2.00,-114.00,+4.00,-31.00,-40.00,+1.00,+28.00,+38.00,+10.00,-52.00,-27.00
-28.00,+25.00,-1.00,+2.00,-30.00,-4.00,-42.00,-12.00,+116.00,-60.00,-6.00,-21.00,-24.00,+4.00,+3.00,+29.00
-24.00,-46.00,-1.00,+1.00,+21.00,+3.00,+67.00,-3.00,-48.00,+102.00,+13.00,+5.00,-40.00,-26.00,-12.00,-20.00
+10.00,-15.00,-15.00,-5.00,-17.00,+9.00,+30.00,+9.00,+39.00,-86.00,-3.00,-12.00,+30.00,+5.00,-15.00,+18.00
+21.00,-91.00,+6.00,+1.00,-23.00,-3.00,-28.00,+9.00,-56.00,+71.00,+5.00,-7.00,-15.00,+9.00,+43.00,-6.00
-28.00,+123.00,+18.00,+9.00,+51.00,+9.00,-8.00,+1.00,+45.00,-44.00,-14.00,-2.00,+15.00,+1.00,-13.00,+4.00
+5.00,-19.00,-16.00,-9.00,-2.00,+27.00,+16.00,+0.00,+28.00,-96.00,+9.00,+4.00,+3.00,+7.00,+76.00,+4.00
+10.00,+19.00,+7.00,+0.00,-34.00,-17.00,-35.00,-5.00,+0.00,+18.00,-9.00,-17.00,-34.00,+14.00,+9.00,+7.00
-25.00,-14.00,-12.00,-1.00,+11.00,+2.00,-22.00,-7.00,-10.00,-38.00,-11.00,-1.00,+20.00,-16.00,-42.00,-26.00
+24.00,-60.00,-4.00,-4.00,-28.00,+12.00,+106.00,-6.00,+70.00,+96.00,+9.00,+7.00,+1.00,+46.00,-10.00,+8.00
-3.00,+10.00,+4.00,+9.00,-2.00,-30.00,-18.00,-1.00,-26.00,-87.00,-1.00,-3.00,-1.00,+52.00,-58.00,+20.00
-5.00,-13.00,+6.00,-8.00,+23.00,-4.00,-59.00,-7.00,+59.00,-27.00,-8.00,-6.00,+40.00,-10.00,-42.00,-12.00
+29.00,+43.00,-2.00,-5.00,-21.00,+3.00,+27.00,+1.00,+89.00,+34.00,+0.00,+0.00,+12.00,+8.00,-7.00,+13.00
-2.00,-82.00,-11.00,-1.00,-21.00,-1.00,+22.00,-4.00,-128.00,-2.00,+0.00,+10.00,-33.00,+54.00,-52.00,-26.00
+10.00,+68.00,+9.00,+3.00,+13.00,-17.00,-84.00,-2.00,+68.00,+14.00,-7.00,-12.00,+70.00,-5.00,-25.00,-1.00
-7.00,+6.00,-5.00,-4.00,-10.00,-6.00,+39.00,-14.00,-59.00,-29.00,+2.00,-19.00,-30.00,+6.00,+14.00,+15.00
+8.00,-51.00,-7.00,-2.00,+1.00,-14.00,-6.00,+0.00,+0.00,-31.00,-12.00,-1.00,+1.00,-6.00,+70.00,+3.00
+21.00,-8.00,-8.00,-7.00,+0.00,+12.00,+58.00,+7.00,-52.00,+55.00,+9.00,+10.00,+27.00,-32.00,+6.00,+0.00
+21.00,+54.00,+8.00,+0.00,-11.00,+2.00,-44.00,+10.00,-106.00,-15.00,-7.00,+16.00,+2.00,-19.00,+36.00,-15.00
+116.00,-45.00,-2.00,+3.00,+22.00,+2.00,+8.00,+3.00,-123.00,-57.00,-8.00,-11.00,+28.00,+43.00,+14.00,-8.00
+32.00,+6.00,+1.00,-2.00,-2.00,-7.00,-8.00,-10.00,-96.00,-80.00,-8.00,-10.00,+8.00,-63.00,-12.00,+0.00
-4.00,+37.00,-2.00,+0.00,+8.00,-10.00,+55.00,+0.00,-71.00,-83.00,-7.00,+6.00,-9.00,-26.00,-20.00,+1.00
-99.00,-40.00,-10.00,-12.00,-60.00,-1.00,-6.00,-5.00,+40.00,+124.00,+13.00,-12.00,+58.00,+2.00,+6.00,+13.00
-110.00,+9.00,-2.00,+2.00,+32.00,-12.00,-31.00,-8.00,-27.00,-28.00,-5.00,-1.00,-43.00,-14.00,+35.00,-1.00
-100.00,+22.00,-6.00,-7.00,+3.00,-8.00,+42.00,+2.00,+26.00,-29.00,+2.00,+4.00,+2.00,-15.00,-63.00,+3.00
-92.00,+21.00,+1.00,+0.00,-13.00,-22.00,-22.00,+1.00,+91.00,+72.00,-4.00,-8.00,+9.00,+20.00,-12.00,-15.00
+21.00,-16.00,+5.00,+6.00,+32.00,+11.00,+8.00,+6.00,+77.00,-70.00,-19.00,-7.00,-20.00,-14.00,+2.00,+4.00
-23.00,-34.00,+3.00,+1.00,-5.00,+4.00,+103.00,+2.00,+93.00,-48.00,+12.00,+35.00,+2.00,-2.00,+2.00,-13.00
+33.00,-16.00,-4.00,+2.00,+15.00,+1.00,-2.00,+1.00,+127.00,+126.00,+9.00,+0.00,+3.00,+48.00,-35.00,+20.00
+32.00,-41.00,+1.00,-7.00,-7.00,+1.00,-59.00,+4.00,+36.00,-35.00,-10.00,-10.00,-20.00,-23.00,-50.00,-8.00
-9.00,+16.00,+2.00,-1.00,+10.00,-18.00,+37.00,+2.00,+84.00,-2.00,-3.00,-9.00,-9.00,-30.00,+33.00,+3.00
+21.00,+13.00,-13.00,-7.00,-37.00,-2.00,-90.00,-5.00,+122.00,+51.00,-1.00,+19.00,+16.00,+13.00,-16.00,+25.00
+23.00,-46.00,-8.00,+5.00,-23.00,-4.00,-48.00,+0.00,+17.00,-96.00,-2.00,-7.00,-30.00,-19.00,-6.00,-16.00
+57.00,+34.00,+11.00,+2.00,+14.00,+20.00,+3.00,-5.00,-20.00,+54.00,+1.00,+0.00,+4.00,-14.00,+0.00,-12.00
+35.00,-8.00,-2.00,-3.00,+10.00,-2.00,-1.00,-5.00,-77.00,-27.00,-6.00,+11.00,+1.00,+23.00,-24.00,-9.00
-1.00,-24.00,+10.00,-1.00,-47.00,+8.00,-28.00,+4.00,-5.00,+45.00,+13.00,+22.00,-29.00,-56.00,-12.00,+9.00
-6.00,-9.00,-2.00,+1.00,+37.00,+15.00,+20.00,-6.00,-35.00,+95.00,-1.00,-32.00,+28.00,+2.00,-30.00,+0.00
+23.00,+30.00,-7.00,+1.00,-4.00,+7.00,+54.00,+6.00,+17.00,+2.00,-3.00,-5.00,-11.00,-15.00,+23.00,+8.00
+7.00,-85.00,-8.00,-5.00,-41.00,-27.00,+7.00,-11.00,-85.00,-28.00,-4.00,-10.00,+1.00,+1.00,+8.00,-5.00
+1.00,+113.00,+9.00,+0.00,-16.00,+15.00,-52.00,+1.00,-62.00,-101.00,-15.00,+5.00,+5.00,+0.00,+21.00,-18.00
-8.00,+22.00,+5.00,-4.00,-12.00,+5.00,+5.00,+6.00,+94.00,+10.00,+8.00,+44.00,+11.00,-65.00,-20.00,+9.00
-4.00,-88.00,-7.00,+3.00,+31.00,-1.00,-118.00,-18.00,+19.00,-11.00,-2.00,-27.00,-13.00,-2.00,+36.00,+2.00
+10.00,+58.00,-1.00,+1.00,+14.00,+3.00,-3.00,+6.00,+105.00,+98.00,+5.00,+2.00,-14.00,-1.00,+68.00,-16.00
-21.00,+9.00,-6.00,-4.00,-15.00,-28.00,-52.00,-20.00,+81.00,-100.00,-15.00,-30.00,-19.00,+2.00,-23.00,+10.00
+5.00,+5.00,+9.00,-2.00,-54.00,-7.00,+23.00,+7.00,-51.00,+78.00,+7.00,+9.00,+7.00,-2.00,-29.00,-11.00
-11.00,-52.00,-8.00,+1.00,+44.00,-6.00,+35.00,+9.00,-16.00,-127.00,-14.00,-16.00,+10.00,+30.00,+2.00,-5.00
+15.00,+78.00,-4.00,+0.00,+2.00,+10.00,-76.00,-9.00,+25.00,-9.00,+5.00,+10.00,+2.00,-1.00,-5.00,+21.00
-33.00,-34.00,-7.00,+1.00,+25.00,-4.00,+98.00,-2.00,+49.00,+72.00,+5.00,-9.00,-2.00,+35.00,+44.00,-10.00
-7.00,+72.00,+0.00,-1.00,+11.00,+8.00,-56.00,+5.00,+23.00,+4.00,-6.00,-2.00,-19.00,-28.00,+1.00,-5.00
-36.00,-9.00,-6.00,-8.00,-28.00,-16.00,+34.00,+1.00,-7.00,-14.00,-6.00,+17.00,+15.00,-3.00,+0.00,+0.00
-53.00,-79.00,+3.00,+7.00,+20.00,+16.00,-3.00,+3.00,-39.00,+74.00,+6.00,-22.00,-14.00,-7.00,-75.00,-4.00
+6.00,+61.00,+11.00,+2.00,+6.00,+2.00,-34.00,-10.00,-32.00,+89.00,+22.00,+2.00,+1.00,+28.00,+72.00,+0.00
-16.00,-27.00,-12.00,-4.00,+9.00,-4.00,+11.00,+2.00,-43.00,-69.00,-14.00,-4.00,-33.00,-22.00,+11.00,-17.00
+41.00,+3.00,-8.00,-7.00,-16.00,+1.00,+50.00,-2.00,+83.00,+7.00,-9.00,+11.00,+10.00,-26.00,+70.00,+18.00
+27.00,-7.00,+2.00,+2.00,+15.00,+9.00,-4.00,-7.00,-128.00,-13.00,+2.00,-3.00,-6.00,-33.00,+11.00,-7.00
+16.00,+42.00,+7.00,+6.00,+14.00,-3.00,-75.00,-2.00,+68.00,-40.00,-15.00,-1.00,+13.00,+3.00,+40.00,+21.00
-19.00,-54.00,-5.00,-4.00,-4.00,-15.00,+53.00,-5.00,-66.00,+10.00,+8.00,-18.00,-10.00,+95.00,+18.00,-11.00
+6.00,+66.00,+9.00,-4.00,-50.00,-17.00,-30.00,-4.00,-24.00,-42.00,+8.00,+35.00,-3.00,+38.00,-58.00,-4.00
-38.00,-48.00,-17.00,-3.00,+26.00,+19.00,+38.00,-1.00,+68.00,-21.00,-2.00,-10.00,-5.00,+7.00,+71.00,-2.00
+2.00,-56.00,-1.00,+4.00,+12.00,+4.00,-23.00,+13.00,-90.00,+90.00,-8.00,-26.00,-1.00,-48.00,+3.00,-20.00
-11.00,+34.00,+3.00,+3.00,+19.00,+0.00,+18.00,-7.00,-23.00,+14.00,+12.00,+14.00,+7.00,-2.00,-25.00,+5.00
-12.00,+0.00,+7.00,-4.00,-14.00,-10.00,-17.00,+2.00,-75.00,+46.00,+2.00,-4.00,-4.00,+9.00,-23.00,+4.00
+4.00,-44.00,-12.00,-12.00,-8.00,-13.00,-69.00,-22.00,-89.00,-56.00,-11.00,-3.00,-8.00,+29.00,-4.00,-15.00
-11.00,-1.00,-9.00,-3.00,+5.00,+2.00,+47.00,+1.00,-128.00,-5.00,+3.00,+5.00,+5.00,+12.00,-103.00,-27.00
-19.00,+11.00,+2.00,+5.00,-24.00,-21.00,-21.00,+8.00,-22.00,-62.00,-4.00,-7.00,-9.00,-1.00,+44.00,+33.00
-9.00,-57.00,-7.00,-1.00,+2.00,-10.00,+19.00,+0.00,-10.00,+69.00,+1.00,-3.00,+19.00,+65.00,-16.00,+4.00
+27.00,+22.00,+4.00,-2.00,-20.00,-8.00,-77.00,+0.00,+81.00,-60.00,-4.00,+3.00,-7.00,-71.00,-79.00,-18.00
-26.00,-56.00,-19.00,-5.00,-6.00,+16.00,+27.00,-3.00,+44.00,+19.00,-6.00,+1.00,-17.00,-16.00,+24.00,+9.00
+26.00,+73.00,+28.00,+5.00,+21.00,+7.00,+26.00,+9.00,+61.00,+21.00,-9.00,-12.00,+12.00,+25.00,+58.00,-9.00
-15.00,-3.00,-6.00,+0.00,-9.00,+0.00,-31.00,-4.00,+71.00,-76.00,+1.00,+9.00,+14.00,-3.00,+36.00,+8.00
+16.00,-7.00,-3.00,-1.00,+5.00,-9.00,+5.00,+4.00,+26.00,+66.00,+4.00,-6.00,+0.00,-40.00,+13.00,+30.00
+9.00,-13.00,+1.00,-7.00,-16.00,-2.00,+44.00,+6.00,+52.00,-54.00,-26.00,-7.00,+6.00,+44.00,-48.00,-6.00
-3.00,-37.00,-14.00,-5.00,+11.00,+0.00,-15.00,-8.00,+54.00,+123.00,+19.00,+15.00,+12.00,-8.00,+14.00,-11.00
-3.00,+21.00,+3.00,+4.00,+34.00,+31.00,-52.00,+0.00,+5.00,-1.00,+1.00,-18.00,-6.00,-30.00,-17.00,-2.00
+0.00,+79.00,+12.00,+11.00,+10.00,-10.00,-19.00,+4.00,+66.00,+0.00,-4.00,-8.00,+21.00,-8.00,+10.00,-4.00
+4.00,+17.00,+6.00,-2.00,+20.00,+9.00,+93.00,+12.00,+106.00,+10.00,-1.00,-1.00,-3.00,-2.00,+63.00,+33.00
-13.00,-39.00,-2.00,-4.00,-57.00,-10.00,+11.00,-9.00,+60.00,+51.00,+4.00,+47.00,+2.00,+34.00,-63.00,+11.00
+16.00,+62.00,+12.00,+4.00,+48.00,-5.00,+37.00,+8.00,-20.00,-24.00,-8.00,-52.00,-28.00,+7.00,-49.00,-34.00
-12.00,-88.00,-17.00,-3.00,+14.00,+17.00,+78.00,+8.00,+50.00,-44.00,+4.00,+5.00,-8.00,+31.00,-9.00,+8.00
+7.00,+102.00,+27.00,+5.00,-11.00,-6.00,+2.00,-3.00,+4.00,+45.00,+10.00,+3.00,-8.00,-69.00,-38.00,-27.00
+6.00,+5.00,-5.00,-5.00,-4.00,+0.00,-28.00,-4.00,-19.00,-126.00,-13.00,-7.00,-11.00,+4.00,-29.00,-15.00
+16.00,-37.00,-11.00,+4.00,+13.00,+14.00,+2.00,+0.00,+32.00,-23.00,+9.00,+12.00,-10.00,-29.00,+90.00,+36.00
-44.00,-7.00,+14.00,+2.00,-22.00,-10.00,-10.00,-1.00,+52.00,-23.00,-12.00,-6.00,+2.00,+29.00,+21.00,-1.00
+20.00,-42.00,-17.00,-3.00,-3.00,-20.00,+5.00,-1.00,+18.00,+89.00,+3.00,+1.00,+0.00,-8.00,+29.00,+5.00
-3.00,-29.00,-3.00,-4.00,+14.00,+28.00,-48.00,+3.00,-37.00,-86.00,-2.00,+29.00,+21.00,-54.00,-55.00,-15.00
+27.00,+49.00,+9.00,+5.00,+7.00,+17.00,-28.00,+7.00,+59.00,+81.00,+13.00,-24.00,-38.00,-14.00,-75.00,-3.00
+18.00,-3.00,-3.00,-4.00,+4.00,+4.00,+3.00,+0.00,-47.00,+3.00,+2.00,-8.00,+6.00,+35.00,+31.00,+17.00
+1.00,-59.00,-5.00,-2.00,-17.00,-11.00,-71.00,-2.00,-20.00,-24.00,-1.00,+2.00,-4.00,-7.00,-10.00,-16.00
-30.00,+25.00,+2.00,+0.00,-22.00,-15.00,-57.00,+9.00,-67.00,-69.00,-11.00,-19.00,-28.00,-43.00,+16.00,+7.00
-30.00,-14.00,-1.00,+6.00,+27.00,-1.00,+12.00,-2.00,+90.00,+68.00,+12.00,+8.00,+27.00,+19.00,-20.00,+0.00
-22.00,-26.00,+5.00,-4.00,-15.00,+4.00,-47.00,+2.00,-70.00,-64.00,-3.00,+15.00,-2.00,+28.00,-1.00,-4.00
-16.00,+27.00,+0.00,+0.00,+24.00,+13.00,+14.00,-9.00,+46.00,+27.00,+0.00,-9.00,+21.00,+32.00,-10.00,+13.00
+19.00,+53.00,-3.00,-1.00,-7.00,-12.00,-18.00,-7.00,-121.00,-62.00,-16.00,+10.00,-1.00,+14.00,-5.00,+0.00
+11.00,-26.00,+6.00,-3.00,-1.00,-7.00,+65.00,+10.00,-98.00,+34.00,-6.00,-3.00,+3.00,-22.00,+57.00,-1.00
+7.00,+70.00,+3.00,-2.00,-44.00,-20.00,+20.00,-3.00,-49.00,+123.00,+26.00,+8.00,+10.00,+12.00,-35.00,-6.00
+9.00,-16.00,+1.00,+0.00,+32.00,+7.00,-23.00,-4.00,-41.00,-128.00,-14.00,-8.00,-9.00,+6.00,-7.00,-20.00
-1.00,-40.00,-12.00,-7.00,+8.00,+6.00,-36.00,-5.00,+98.00,+45.00,+6.00,-7.00,-30.00,-2.00,+79.00,+25.00
+65.00,+14.00,-9.00,-3.00,-27.00,-7.00,-30.00,-8.00,-6.00,-5.00,-8.00,+16.00,+14.00,-3.00,-114.00,-9.00
+57.00,+0.00,+11.00,+2.00,-5.00,+2.00,+40.00,+17.00,+46.00,-78.00,-6.00,-12.00,-20.00,+19.00,-71.00,-7.00
-57.00,-17.00,-5.00,+0.00,-5.00,-15.00,-8.00,+2.00,+8.00,+21.00,+0.00,+7.00,-3.00,-25.00,-24.00,+7.00
-74.00,-15.00,+14.00,+3.00,+9.00,+14.00,+51.00,+12.00,+64.00,-18.00,-8.00,+0.00,-20.00,+37.00,+3.00,-13.00
-54.00,+1.00,-1.00,-6.00,-24.00,+2.00,+15.00,-4.00,-14.00,+47.00,+5.00,-11.00,-15.00,-13.00,-80.00,-24.00
-20.00,-44.00,-20.00,-2.00,+40.00,-5.00,+42.00,-5.00,-9.00,-17.00,-1.00,+4.00,+15.00,+5.00,+21.00,+15.00
+14.00,+60.00,+3.00,-7.00,-23.00,+1.00,+14.00,+10.00,+2.00,-76.00,-2.00,-4.00,-10.00,+49.00,+6.00,+11.00
+8.00,-8.00,+3.00,-1.00,-55.00,-8.00,+10.00,-6.00,+11.00,+89.00,-5.00,-14.00,+11.00,+17.00,-50.00,-10.00
-9.00,+20.00,-6.00,-3.00,+13.00,+4.00,+31.00,-6.00,-15.00,-106.00,-16.00,+12.00,+3.00,+32.00,+35.00,-8.00
+1.00,-22.00,+1.00,-4.00,-19.00,-3.00,-25.00,+1.00,+33.00,-7.00,-8.00,+3.00,-4.00,-4.00,-76.00,-27.00
+17.00,-48.00,+8.00,+6.00,-2.00,-3.00,+11.00,-2.00,+46.00,+32.00,+4.00,+15.00,-3.00,+5.00,+12.00,+3.00
+26.00,-15.00,-13.00,-3.00,+14.00,+4.00,+40.00,+5.00,+48.00,+67.00,+11.00,-13.00,-7.00,+7.00,+16.00,+2.00
-1.00,-9.00,-7.00,-8.00,-8.00,-11.00,-105.00,-8.00,+37.00,-23.00,-10.00,-1.00,-29.00,-2.00,+84.00,-4.00
+2.00,+15.00,-10.00,-9.00,-20.00,-12.00,+9.00,-8.00,-57.00,-41.00,-11.00,-9.00,+14.00,-4.00,+60.00,-8.00
+8.00,-24.00,+11.00,+3.00,+8.00,-4.00,+36.00,-5.00,-67.00,+23.00,+6.00,+7.00,-7.00,+3.00,+32.00,-15.00
+28.00,-9.00,-9.00,+1.00,+39.00,+9.00,+51.00,-2.00,+82.00,+80.00,+6.00,-19.00,-16.00,+30.00,+33.00,+14.00
+15.00,-5.00,+6.00,-1.00,-12.00,-15.00,+32.00,+14.00,+88.00,-17.00,-8.00,-2.00,-4.00,-29.00,+65.00,-17.00
-23.00,+9.00,-5.00,-1.00,+5.00,+4.00,-12.00,-21.00,+109.00,+0.00,-2.00,+14.00,-5.00,-1.00,-16.00,+19.00
+21.00,+48.00,-6.00,-3.00,-7.00,+4.00,-109.00,+2.00,+85.00,-80.00,-5.00,-8.00,+2.00,-27.00,-51.00,-13.00
+21.00,-5.00,+14.00,+4.00,+15.00,-4.00,-101.00,-7.00,+32.00,-33.00,+2.00,-4.00,-6.00,+1.00,+4.00,-2.00
+9.00,-89.00,-7.00,-2.00,-1.00,+3.00,+44.00,+0.00,+0.00,+40.00,-2.00,+11.00,+2.00,+11.00,+50.00,-1.00
-11.00,+46.00,+10.00,+4.00,+2.00,+17.00,-17.00,+9.00,-31.00,-41.00,-8.00,-3.00,+1.00,-35.00,+55.00,-3.00
-4.00,-57.00,-19.00,-5.00,-15.00,-16.00,+26.00,+1.00,+2.00,-38.00,-2.00,-18.00,+8.00,-26.00,-84.00,+4.00
+13.00,+41.00,-4.00,-4.00,+1.00,-2.00,-12.00,+2.00,-1.00,+29.00,+1.00,-9.00,+32.00,+9.00,+46.00,+3.00
-13.00,+6.00,-2.00,-2.00,+8.00,-5.00,-47.00,-10.00,-66.00,-67.00,-7.00,+24.00,+37.00,-5.00,-6.00,+19.00
+14.00,-42.00,+0.00,-1.00,-6.00,+5.00,-24.00,+4.00,-65.00,-15.00,+0.00,+1.00,-14.00,+25.00,-39.00,-10.00
-16.00,+16.00,-4.00,-1.00,-4.00,+2.00,+32.00,-14.00,-79.00,-31.00,-10.00,-19.00,-6.00,-70.00,-25.00,-24.00
+4.00,-20.00,-2.00,+2.00,+40.00,+21.00,+88.00,+11.00,-53.00,+82.00,+16.00,+58.00,+18.00,-23.00,-99.00,+9.00
-14.00,+36.00,+6.00,+0.00,-47.00,+0.00,-8.00,-5.00,-5.00,-33.00,+1.00,-54.00,+22.00,-64.00,-57.00,+2.00
-18.00,+4.00,-11.00,-3.00,-7.00,-8.00,+117.00,+6.00,+16.00,+15.00,-3.00,-6.00,-23.00,+6.00,+49.00,-9.00
+10.00,-71.00,-17.00,-5.00,+29.00,-11.00,-1.00,-16.00,-128.00,-4.00,+5.00,-5.00,+17.00,+30.00,+7.00,+8.00
+7.00,+43.00,+15.00,+4.00,-31.00,-16.00,+1.00,+5.00,+92.00,-68.00,-14.00,-8.00,+9.00,-13.00,+6.00,-12.00
-18.00,+25.00,+8.00,+2.00,+1.00,+25.00,-24.00,+4.00,-67.00,+25.00,+3.00,+14.00,-27.00,-48.00,-28.00,+7.00
-3.00,+17.00,+0.00,+1.00,+26.00,-7.00,+38.00,-5.00,-3.00,+41.00,+5.00,+5.00,+54.00,+2.00,-31.00,+4.00
+9.00,-36.00,-8.00,+1.00,-18.00,+3.00,-76.00,-3.00,-17.00,-27.00,-2.00,+3.00,-5.00,+29.00,+45.00,-5.00
-6.00,+9.00,-2.00,-4.00,+11.00,+12.00,-20.00,-10.00,-128.00,-95.00,+3.00,-19.00,-6.00,-43.00,+6.00,-15.00
-13.00,-68.00,-11.00,-1.00,-2.00,-6.00,-28.00,+5.00,+69.00,+48.00,+3.00,+5.00,-3.00,+35.00,+0.00,+2.00
+14.00,-27.00,+7.00,+2.00,-14.00,+1.00,+27.00,+16.00,-10.00,+50.00,+8.00,-7.00,-12.00,-21.00,+22.00,-1.00
+12.00,+43.00,+0.00,-3.00,+1.00,+9.00,-16.00,+8.00,-3.00,-19.00,-3.00,+10.00,+3.00,-14.00,-3.00,+8.00
-3.00,-34.00,-2.00,+0.00,+4.00,-9.00,-48.00,-11.00,+2.00,-4.00,+2.00,-16.00,-4.00,+25.00,+57.00,+0.00
-16.00,+25.00,-5.00,-5.00,-12.00,-5.00,-3.00,-9.00,-128.00,-95.00,-7.00,+20.00,-20.00,+38.00,-55.00,-30.00
+0.00,+10.00,+4.00,+0.00,-4.00,+2.00,-53.00,-10.00,+5.00,+38.00,+0.00,+5.00,+0.00,-5.00,-25.00,+18.00
-16.00,-18.00,+5.00,+4.00,+9.00,-6.00,+26.00,+1.00,-43.00,-15.00,+1.00,-16.00,-3.00,+45.00,-7.00,-7.00
-11.00,+25.00,+2.00,+2.00,-2.00,-5.00,-23.00,-4.00,-121.00,-21.00,-1.00,-17.00,+5.00,+1.00,-27.00,-10.00
-4.00,-4.00,-17.00,-12.00,-29.00,+17.00,+42.00,+0.00,+42.00,+29.00,+9.00,+2.00,+6.00,+5.00,-25.00,+12.00
+8.00,+14.00,+6.00,-4.00,+6.00,+25.00,-53.00,+4.00,+16.00,+5.00,+2.00,+0.00,-12.00,-10.00,-24.00,+4.00
+4.00,+86.00,+11.00,+1.00,-9.00,-5.00,+49.00,+2.00,+127.00,+0.00,-2.00,+11.00,+8.00,+0.00,-6.00,+14.00
+7.00,+15.00,-10.00,+2.00,+33.00,-10.00,+2.00,-3.00,-9.00,+60.00,-4.00,+9.00,+8.00,-17.00,-27.00,-6.00
-15.00,-71.00,+7.00,+2.00,-21.00,-16.00,-16.00,-6.00,-31.00,-32.00,-1.00,-15.00,+8.00,+25.00,+28.00,+4.00
+0.00,+15.00,+5.00,+4.00,+24.00,+9.00,-9.00,+5.00,+91.00,-1.00,-2.00,-5.00,-8.00,-5.00,-5.00,-7.00
-11.00,-21.00,+4.00,-6.00,-31.00,-9.00,-6.00,+7.00,+16.00,+3.00,-2.00,-11.00,-2.00,-8.00,+12.00,+1.00
+0.00,-20.00,-10.00,+1.00,+33.00,+3.00,-4.00,-5.00,-65.00,-35.00,-8.00,-1.00,-13.00,-3.00,+11.00,+0.00
-9.00,+28.00,+2.00,+0.00,-16.00,-12.00,-17.00,-6.00,-111.00,+38.00,+9.00,+9.00,+10.00,-28.00,+41.00,+5.00
-19.00,-9.00,-10.00,-1.00,+6.00,+5.00,+3.00,-4.00,-72.00,-15.00,+0.00,-2.00,-8.00,-5.00,-2.00,-6.00
-10.00,-21.00,+0.00,+1.00,+24.00,-4.00,-27.00,-4.00,-4.00,+22.00,-4.00,+9.00,-4.00,-1.00,+9.00,+0.00
-78.00,-13.00,-3.00,-7.00,-21.00,-3.00,+26.00,-3.00,+127.00,-6.00,+0.00,-4.00,+49.00,+1.00,+24.00,+0.00
-50.00,+17.00,+5.00,+1.00,+16.00,-2.00,-62.00,-9.00,+40.00,-35.00,-4.00,-4.00,-24.00,+6.00,+8.00,-2.00
+14.00,-7.00,-6.00,-1.00,-1.00,-7.00,+11.00,-3.00,-96.00,+4.00,+2.00,-1.00,-3.00,-10.00,-8.00,-4.00
+23.00,+7.00,+4.00,+1.00,-2.00,+9.00,+26.00,+0.00,-128.00,+15.00,-1.00,+7.00,-2.00,+20.00,+8.00,-4.00
+39.00,-10.00,-7.00,-2.00,-14.00,+6.00,-4.00,-1.00,-128.00,+22.00,-1.00,-9.00,+0.00,-4.00,-6.00,+8.00
+69.00,+22.00,+2.00,+1.00,+15.00,+0.00,-4.00,+2.00,-98.00,-11.00,+0.00,-6.00,+7.00,-10.00,-7.00,+0.00
+48.00,-15.00,-6.00,-4.00,-10.00,-3.00,-7.00,-3.00,-34.00,-10.00,-3.00,+0.00,-4.00,-2.00,+26.00,-5.00
-8.00,-2.00,-4.00,-3.00,-11.00,+4.00,+5.00,+2.00,+34.00,+34.00,+4.00,+1.00,+5.00,-6.00,+4.00,+4.00
+83.00,-16.00,-2.00,+1.00,-18.00,-7.00,-13.00,+1.00,+91.00,-32.00,-11.00,-8.00,-17.00,-9.00,-12.00,+3.00
+104.00,+33.00,+3.00,+1.00,+13.00,+4.00,-62.00,+0.00,+99.00,+4.00,-2.00,+4.00,+3.00,+5.00,+12.00,+4.00
+125.00,-13.00,+0.00,+2.00,-1.00,-1.00,-18.00,-1.00,+54.00,+7.00,-2.00,-1.00,-6.00,-3.00,-9.00,-2.00
+38.00,-2.00,-4.00,+0.00,+0.00,+3.00,-26.00,-7.00,+63.00,+0.00,+3.00,-3.00,-6.00,-8.00,-17.00,-10.00
-89.00,+8.00,+4.00,-4.00,-7.00,+0.00,+8.00,-4.00,+74.00,-9.00,-1.00,-3.00,+12.00,-2.00,-15.00,-3.00
-128.00,-10.00,+1.00,-1.00,+3.00,-4.00,+40.00,-6.00,+45.00,+11.00,+4.00,+0.00,+1.00,+6.00,-1.00,+5.00
-100.00,-4.00,-1.00,+0.00,-5.00,-5.00,+1.00,-11.00,+40.00,-2.00,+1.00,+1.00,-1.00,+2.00,-6.00,-2.00
+19.00,+13.00,-7.00,-3.00,-1.00,-1.00,+3.00,-4.00,+49.00,+1.00,-6.00,-3.00,-9.00,+2.00,+13.00,+10.00
+75.00,-12.00,-1.00,+1.00,-3.00,+9.00,+10.00,+25.00,+24.00,+4.00,+4.00,-2.00,-9.00,-6.00,-6.00,-3.00
+41.00,+10.00,+6.00,+5.00,+9.00,-1.00,+26.00,+2.00,+25.00,+10.00,-2.00,+5.00,+9.00,-2.00,-6.00,-1.00
-35.00,-3.00,+4.00,-1.00,+0.00,-1.00,+28.00,-4.00,+22.00,-14.00,-2.00,+0.00,-9.00,-10.00,+16.00,+1.00
-113.00,-8.00,-3.00,-6.00,-3.00,-3.00,+8.00,-13.00,+12.00,+4.00,+0.00,+1.00,+12.00,+48.00,+3.00,-5.00
-74.00,-22.00,-3.00,-4.00,-2.00,-6.00,+9.00,-8.00,+1.00,-1.00,-2.00,-4.00,-15.00,-4.00,-7.00,-3.00
-46.00,+8.00,+10.00,-2.00,-4.00,-4.00,+1.00,+2.00,+11.00,-4.00,+0.00,-1.00,-6.00,-1.00,+3.00,+6.00
-75.00,-15.00,+9.00,+2.00,+4.00,+12.00,+1.00,-1.00,+8.00,+0.00,-4.00,-3.00,+0.00,+3.00,+7.00,-7.00
-52.00,+6.00,+4.00,+0.00,+3.00,+2.00,+12.00,+5.00,-7.00,+7.00,-1.00,-1.00,+6.00,-15.00,+4.00,+3.00
-41.00,-10.00,-3.00,+0.00,-1.00,-5.00,-4.00,-5.00,+7.00,-2.00,-3.00,-3.00,-72.00,-7.00,-5.00,+3.00
-46.00,+0.00,-9.00,-2.00,+1.00,-3.00,-1.00,+7.00,+37.00,-1.00,+0.00,-3.00,-2.00,+10.00,-2.00,-11.00
-12.00,-2.00,-4.00,-3.00,-2.00,-5.00,-11.00,-3.00,+31.00,+3.00,-3.00,-3.00,-6.00,-13.00,+57.00,+0.00
+70.00,-6.00,-7.00,+1.00,-1.00,-2.00,+1.00,-4.00,+10.00,-5.00,+0.00,+1.00,-10.00,-46.00,-64.00,-9.00
+53.00,+14.00,-3.00,+1.00,+2.00,-5.00,-1.00,+15.00,+40.00,-5.00,+2.00,-4.00,+11.00,+30.00,+20.00,-1.00
+0.00,-12.00,-5.00,+1.00,+3.00,-7.00,+2.00,+6.00,+34.00,+4.00,-2.00,-3.00,+5.00,-21.00,+14.00,+3.00
+44.00,+3.00,-6.00,-5.00,-7.00,-15.00,-6.00,+0.00,+14.00,-9.00,-3.00,-2.00,-8.00,-13.00,-19.00,-6.00
+24.00,-6.00,-2.00,+0.00,+2.00,-7.00,+11.00,-6.00,+10.00,+9.00,+4.00,-1.00,-2.00,+7.00,-19.00,-8.00
-13.00,+11.00,+2.00,+0.00,-2.00,-4.00,+1.00,-28.00,+9.00,+4.00,-3.00,-3.00,+1.00,-9.00,-2.00,-2.00
-10.00,-28.00,-6.00,-1.00,+1.00,+2.00,+2.00,-1.00,-17.00,-13.00,-3.00,-2.00,-2.00,-1.00,-5.00,-9.00
-20.00,+26.00,-2.00,-1.00,+1.00,-7.00,+5.00,-11.00,+14.00,-2.00,-5.00,+0.00,+11.00,+10.00,-16.00,-12.00
-19.00,+5.00,+0.00,-1.00,-5.00,+2.00,+2.00,+9.00,-7.00,-2.00,+0.00,-3.00,-5.00,-5.00,+14.00,-2.00
+3.00,-21.00,-1.00,+0.00,-3.00,-4.00,-4.00,+25.00,-21.00,-14.00,-6.00,+1.00,+9.00,+0.00,-10.00,+0.00
+28.00,+41.00,+9.00,+2.00,+1.00,+1.00,-6.00,-8.00,+14.00,+8.00,-1.00,+1.00,+56.00,+13.00,+19.00,+3.00
-12.00,-45.00,-9.00,-2.00,-1.00,-1.00,+14.00,-5.00,-29.00,-9.00,-1.00,-1.00,-15.00,-3.00,-29.00,-1.00
+20.00,+45.00,+3.00,-1.00,+1.00,+2.00,+11.00,+11.00,+12.00,+5.00,+3.00,+1.00,+2.00,+2.00,+43.00,-5.00
+10.00,+1.00,+7.00,+0.00,+1.00,+5.00,-4.00,+7.00,+2.00,+7.00,-1.00,-2.00,-7.00,-6.00,-24.00,+7.00
-12.00,-42.00,-4.00,+1.00,+2.00,+7.00,-9.00,-11.00,-7.00,+8.00,+1.00,-4.00,-7.00,-9.00,+48.00,+0.00
+75.00,+12.00,-4.00,-1.00,-3.00,-4.00,-8.00,+0.00,+3.00,+3.00,+0.00,-1.00,+2.00,-8.00,-63.00,-14.00
+92.00,-35.00,-5.00,-4.00,-4.00,+0.00,-11.00,-8.00,-1.00,+2.00,-10.00,-4.00,-2.00,-8.00,-18.00,+5.00
-14.00,-6.00,-4.00,-5.00,-2.00,-4.00,-13.00,-15.00,-3.00,+6.00,+3.00,+0.00,+11.00,+0.00,+3.00,+10.00
-59.00,+34.00,-1.00,-1.00,-2.00,-9.00,-11.00,-13.00,-3.00,-8.00,-2.00,+3.00,-13.00,+6.00,-6.00,-12.00
-115.00,-23.00,+4.00,+4.00,+5.00,+4.00,-6.00,-48.00,+2.00,+9.00,+3.00,+3.00,+7.00,+9.00,-6.00,+4.00
-128.00,-28.00,+3.00,+2.00,+3.00,+3.00,+0.00,+20.00,+1.00,-3.00,+0.00,-1.00,-8.00,+2.00,+6.00,-8.00
-65.00,+61.00,+0.00,+0.00,+0.00,+5.00,+12.00,+69.00,-3.00,-21.00,-1.00,-3.00,+2.00,-6.00,+10.00,-2.00
-21.00,-17.00,-2.00,-2.00,+0.00,-1.00,+7.00,+21.00,+11.00,+14.00,+3.00,-1.00,-11.00,-1.00,-5.00,+2.00
+1.00,+2.00,+0.00,-2.00,+2.00,+2.00,+8.00,+30.00,-11.00,-8.00,-2.00,+0.00,-3.00,-4.00,+3.00,+0.00
+30.00,-8.00,-5.00,-2.00,-4.00,-3.00,-11.00,-28.00,-13.00,-2.00,-3.00,-2.00,+6.00,+5.00,+11.00,+3.00
+51.00,+37.00,+0.00,+1.00,-3.00,-3.00,-10.00,-37.00,+0.00,-13.00,-5.00,+0.00,+2.00,-2.00,+44.00,+8.00
+62.00,-5.00,-2.00,-1.00,-2.00,+0.00,+1.00,-9.00,-4.00,-11.00,-2.00,+1.00,-9.00,-4.00,-42.00,-2.00
+48.00,-27.00,-2.00,-1.00,-4.00,-3.00,-9.00,+1.00,-6.00,+4.00,-4.00,-3.00,+4.00,+2.00,-5.00,-1.00
+28.00,+34.00,+7.00,+0.00,+0.00,+0.00,-3.00,+0.00,+6.00,+4.00,-3.00,-5.00,-2.00,+1.00,+11.00,+11.00
+24.00,-35.00,-4.00,+0.00,+2.00,-2.00,+0.00,-5.00,-3.00,+10.00,+1.00,-1.00,+1.00,-1.00,-8.00,-17.00
+29.00,+14.00,-3.00,-1.00,+2.00,+1.00,+9.00,+9.00,-7.00,-5.00,+2.00,-3.00,-9.00,-3.00,-1.00,+0.00
+5.00,+15.00,+3.00,-1.00,-2.00,+0.00,+6.00,+12.00,+3.00,+4.00,-4.00,-1.00,-1.00,+2.00,+6.00,+6.00
-14.00,-36.00,-3.00,-2.00,-2.00,+1.00,-3.00,+16.00,-11.00,-3.00,-1.00,-1.00,-1.00,-1.00,+3.00,+0.00
-9.00,-15.00,-1.00,-2.00,+0.00,+0.00,-8.00,-16.00,+2.00,+3.00,+3.00,+0.00,-4.00,-7.00,-20.00,-6.00
+10.00,+12.00,-2.00,-1.00,-4.00,-3.00,-2.00,-1.00,-9.00,-6.00,-3.00,+0.00,+0.00,-2.00,-21.00,-5.00
-1.00,-22.00,-3.00,-1.00,+0.00,-1.00,-3.00,+12.00,-5.00,-1.00,-3.00,+0.00,+5.00,+12.00,+43.00,-7.00
-19.00,+13.00,-2.00,-2.00,+0.00,+0.00,-5.00,+1.00,-9.00,-5.00,-2.00,-1.00,-3.00,-9.00,+24.00,+13.00
+9.00,-20.00,+0.00,+0.00,+1.00,+1.00,+5.00,-15.00,-10.00,+2.00,+0.00,+0.00,+1.00,-4.00,-23.00,-8.00
+11.00,+3.00,-2.00,-2.00,+1.00,-3.00,+2.00,+1.00,+1.00,-1.00,-1.00,-2.00,-8.00,-7.00,-3.00,-3.00
-17.00,-14.00,-2.00,+0.00,-3.00,+1.00,-12.00,-8.00,-7.00,+2.00,+1.00,-1.00,+30.00,-1.00,-31.00,+4.00
-6.00,+22.00,-1.00,-2.00,-2.00,-27.00,+8.00,-25.00,+1.00,-3.00,+0.00,+0.00,-66.00,+4.00,+4.00,-4.00
+5.00,-9.00,-1.00,+2.00,+1.00,+6.00,+3.00,-5.00,-12.00,+2.00,+2.00,+1.00,-3.00,-3.00,+14.00,+8.00
+5.00,-6.00,-2.00,-2.00,-2.00,-2.00,+1.00,+19.00,-4.00,+2.00,-1.00,+0.00,-2.00,+2.00,-1.00,+3.00
+6.00,+0.00,+2.00,-1.00,+0.00,-1.00,+2.00,+30.00,-4.00,-2.00,-1.00,-1.00,-2.00,+1.00,-3.00,-1.00
-3.00,+1.00,+0.00,+0.00,+4.00,+0.00,-7.00,-7.00,-8.00,-10.00,-4.00,-3.00,+18.00,+3.00,+3.00,-4.00
+9.00,+8.00,+2.00,+0.00,-2.00,-4.00,-6.00,-4.00,+5.00,+3.00,-1.00,-1.00,-1.00,-4.00,-9.00,+2.00
-8.00,-12.00,-3.00,+0.00,-1.00,-2.00,+6.00,+7.00,-9.00,-5.00,-3.00,-3.00,-12.00,+1.00,-5.00,-4.00
-3.00,+31.00,-1.00,+1.00,-1.00,-2.00,-8.00,-22.00,-2.00,-6.00,-2.00,+0.00,-5.00,-2.00,+10.00,+4.00
+3.00,-13.00,+4.00,+0.00,-4.00,+6.00,-3.00,+21.00,-2.00,+0.00,+1.00,+1.00,+12.00,-1.00,-1.00,-2.00
-10.00,-2.00,-2.00,-3.00,-3.00,-4.00,+1.00,-10.00,-2.00,+5.00,-1.00,-2.00,-6.00,-2.00,-7.00,-6.00
+3.00,+8.00,-3.00,-3.00,-1.00,+3.00,-4.00,+1.00,+0.00,-1.00,-2.00,-1.00,+9.00,+8.00,+6.00,+0.00
-4.00,-8.00,-3.00,-5.00,-2.00,-3.00,+3.00,-3.00,-7.00,-4.00,+0.00,-2.00,-8.00,-13.00,+1.00,+0.00
-2.00,+3.00,-2.00,-3.00,-1.00,+3.00,+0.00,-10.00,-1.00,+2.00,+0.00,+0.00,+8.00,+2.00,-10.00,-6.00
-7.00,-4.00,+0.00,+0.00,-6.00,+1.00,-7.00,-5.00,-3.00,-1.00,-4.00,-2.00,+3.00,-2.00,-2.00,-2.00
+2.00,-11.00,-1.00,-2.00,-2.00,-3.00,-4.00,-5.00,-5.00,-3.00,-3.00,+0.00,-2.00,-2.00,+3.00,+2.00
+4.00,+7.00,+0.00,-2.00,+0.00,+0.00,+3.00,+2.00,-4.00,-2.00,-3.00,+0.00,-5.00,+0.00,-4.00,+1.00
-2.00,-1.00,+1.00,+3.00,+3.00,+4.00,-2.00,+0.00,+0.00,+2.00,+1.00,+1.00,+1.00,-1.00,-10.00,-3.00
+1.00,+3.00,+1.00,+0.00,+1.00,+2.00,+2.00,+3.00,-1.00,-3.00,-1.00,+0.00,+1.00,+0.00,+1.00,+0.00
-1.00,-4.00,-2.00,-2.00,-2.00,-1.00,-2.00,-14.00,-3.00,+1.00,+0.00,-2.00,-3.00,-2.00,-1.00,-1.00
-4.00,+7.00,-1.00,-1.00,-3.00,-3.00,+1.00,+6.00,+0.00,+0.00,+0.00,-2.00,-7.00,+2.00,+24.00,+0.00
-7.00,-3.00,-2.00,-1.00,-1.00,+1.00,-7.00,+2.00,-7.00,-4.00,-2.00,-1.00,+9.00,-4.00,-22.00,-3.00
+2.00,-5.00,+1.00,+0.00,+1.00,-1.00,+5.00,+14.00,-2.00,-3.00,+0.00,+0.00,-3.00,-2.00,-3.00,+0.00
-1.00,+0.00,-1.00,+1.00,+1.00,+2.00,-2.00,-11.00,-1.00,-2.00,-2.00,-2.00,-2.00,-2.00,+2.00,+3.00
-6.00,+0.00,-1.00,+1.00,-2.00,-2.00,-10.00,-5.00,-2.00,-2.00,-3.00,-4.00,-1.00,-1.00,-5.00,-1.00
+8.00,-5.00,+0.00,+1.00,+0.00,+2.00,+8.00,+1.00,-1.00,+0.00,+0.00,-1.00,+6.00,-1.00,+4.00,+0.00
-4.00,+1.00,-1.00,-2.00,+0.00,-2.00,+1.00,-7.00,-2.00,-1.00,+0.00,-1.00,-2.00,-3.00,+1.00,-1.00
-4.00,+1.00,+0.00,-2.00,-2.00,-1.00,-2.00,-5.00,-3.00,+0.00,+1.00,+0.00,-3.00,-1.00,-4.00,-1.00
+2.00,+2.00,+0.00,-1.00,+0.00,+0.00,+0.00,+2.00,-4.00,-1.00,-1.00,-2.00,-3.00,+0.00,-6.00,+0.00
-2.00,+0.00,-3.00,-2.00,-2.00,+0.00,-5.00,+0.00,-2.00,+0.00,-3.00,-2.00,+0.00,+1.00,+2.00,-5.00
-3.00,-1.00,+2.00,-1.00,-2.00,-2.00,-1.00,-9.00,-1.00,-3.00,+0.00,-1.00,-2.00,-3.00,-11.00,-2.00
+0.00,+0.00,+2.00,-1.00,-1.00,-1.00,-3.00,-2.00,-3.00,-3.00,-2.00,-1.00,-1.00,-2.00,+3.00,-1.00
