-2.00,-4.00,-1.00,-2.00,-2.00,+2.00,+1.00,+12.00,-1.00,+2.00,-1.00,+1.00,+2.00,+3.00,-12.00,+2.00
+11.00,+0.00,-2.00,+0.00,-2.00,-2.00,-2.00,+4.00,-2.00,-5.00,+1.00,-2.00,+0.00,+3.00,-1.00,-2.00
-2.00,+0.00,+3.00,+0.00,-2.00,-4.00,+0.00,-2.00,+0.00,+0.00,-2.00,+1.00,-5.00,-8.00,-2.00,-2.00
-4.00,-3.00,-4.00,-1.00,+1.00,+7.00,+2.00,+1.00,+1.00,+2.00,+2.00,-1.00,+0.00,-1.00,+1.00,-1.00
-5.00,+1.00,+3.00,+0.00,-1.00,+1.00,-3.00,+7.00,-2.00,-13.00,-3.00,+0.00,-2.00,-2.00,+2.00,+3.00
-9.00,+2.00,+0.00,-1.00,-2.00,-4.00,-1.00,-9.00,-2.00,+6.00,-5.00,-2.00,+0.00,+13.00,+0.00,-2.00
+4.00,+2.00,+0.00,+0.00,+1.00,+3.00,-1.00,+0.00,-3.00,+0.00,-6.00,-2.00,+1.00,-7.00,-2.00,+0.00
+7.00,-1.00,+3.00,+1.00,+2.00,-2.00,+4.00,+8.00,+0.00,-2.00,-4.00,-1.00,-2.00,-4.00,-3.00,-2.00
-4.00,-5.00,-3.00,-3.00,-3.00,+0.00,-1.00,-1.00,-1.00,+13.00,+6.00,-4.00,+0.00,-3.00,-2.00,-4.00
+7.00,-2.00,+0.00,+1.00,+1.00,+3.00,-1.00,+0.00,+1.00,-17.00,-8.00,-2.00,+1.00,-3.00,-1.00,+3.00
+11.00,-4.00,-3.00,-1.00,+0.00,-18.00,+1.00,+4.00,-2.00,+5.00,-2.00,+0.00,+2.00,+6.00,+1.00,-5.00
-9.00,+2.00,-4.00,-2.00,-4.00,-17.00,-6.00,-5.00,-1.00,-7.00,+6.00,+0.00,+0.00,+1.00,-7.00,+0.00
-14.00,+1.00,-1.00,-1.00,+0.00,+22.00,+3.00,+16.00,-3.00,+1.00,-16.00,-2.00,-4.00,+0.00,+4.00,-1.00
-5.00,-5.00,-1.00,-2.00,-1.00,-1.00,-5.00,-12.00,-4.00,+0.00,+0.00,-3.00,-2.00,-5.00,+1.00,+3.00
+6.00,+3.00,+2.00,-1.00,+2.00,+8.00,+7.00,+11.00,-1.00,+2.00,-5.00,-2.00,-2.00,-3.00,-2.00,-2.00
+3.00,-4.00,-4.00,+0.00,-1.00,-10.00,-6.00,-4.00,-3.00,-4.00,-5.00,-2.00,-1.00,-2.00,-3.00,-1.00
-1.00,+3.00,+1.00,-2.00,-5.00,-27.00,+0.00,-3.00,-1.00,+4.00,+9.00,+1.00,-2.00,+0.00,-3.00,-4.00
-3.00,-6.00,-6.00,+0.00,+4.00,+38.00,+3.00,+2.00,-3.00,-2.00,-8.00,-2.00,-1.00,-2.00,-1.00,-3.00
-8.00,-4.00,-5.00,+0.00,-1.00,-3.00,-5.00,-3.00,+0.00,-4.00,+1.00,-1.00,+1.00,+2.00,-2.00,-4.00
+5.00,+4.00,+8.00,-2.00,-1.00,+6.00,-1.00,-8.00,-2.00,+3.00,+2.00,-1.00,+0.00,+1.00,+2.00,+2.00
+1.00,-5.00,-5.00,+0.00,-1.00,-11.00,-2.00,+1.00,+0.00,-4.00,-2.00,+1.00,+1.00,-2.00,-3.00,+0.00
-2.00,+3.00,+0.00,+0.00,-2.00,-7.00,+2.00,-17.00,+0.00,+1.00,+5.00,-1.00,+4.00,-3.00,+9.00,+3.00
+0.00,+1.00,-1.00,-2.00,-1.00,-11.00,+1.00,+13.00,+1.00,-3.00,+3.00,-1.00,+2.00,+3.00,-4.00,-4.00
-5.00,-3.00,-5.00,-2.00,-3.00,+19.00,+0.00,+1.00,-2.00,-3.00,-7.00,-4.00,-7.00,-2.00,-2.00,-5.00
+5.00,-4.00,-2.00,+0.00,+1.00,+10.00,+1.00,+0.00,+1.00,-2.00,-5.00,-2.00,-2.00,-3.00,+1.00,+3.00
+1.00,-1.00,+0.00,-1.00,-1.00,-12.00,-2.00,+1.00,+0.00,-15.00,+4.00,+2.00,-5.00,-5.00,-2.00,-5.00
-8.00,-8.00,-2.00,+0.00,+0.00,+7.00,-3.00,-6.00,+0.00,+17.00,+11.00,+1.00,+0.00,+12.00,-8.00,-1.00
-9.00,-1.00,-4.00,-2.00,-2.00,-13.00,+0.00,-3.00,+0.00,-11.00,-15.00,-1.00,-1.00,-8.00,+2.00,-2.00
-1.00,-1.00,+2.00,-1.00,+0.00,-8.00,-3.00,+0.00,-2.00,-10.00,-11.00,-4.00,-2.00,-1.00,+3.00,-2.00
+5.00,+0.00,-3.00,-4.00,-1.00,-1.00,+0.00,+4.00,+2.00,-2.00,+1.00,-4.00,+0.00,-1.00,-1.00,+1.00
-2.00,-2.00,+2.00,-1.00,+0.00,-5.00,-2.00,-4.00,+3.00,-8.00,-6.00,-3.00,-2.00,-4.00,-8.00,+2.00
+22.00,+4.00,+3.00,+2.00,-1.00,-1.00,-1.00,+3.00,+13.00,+24.00,+6.00,+0.00,-2.00,+3.00,-2.00,+1.00
+4.00,+2.00,-2.00,-1.00,-2.00,+3.00,-1.00,-8.00,-19.00,-9.00,+4.00,+1.00,+0.00,-4.00,+2.00,-3.00
-4.00,-2.00,+5.00,-1.00,+1.00,-2.00,-2.00,+13.00,-6.00,-2.00,-2.00,-1.00,-2.00,+0.00,-2.00,-6.00
+4.00,+3.00,-1.00,-2.00,-3.00,+3.00,-4.00,-16.00,-12.00,-6.00,+0.00,+0.00,+3.00,+3.00,-20.00,-2.00
-5.00,-6.00,-4.00,+0.00,+2.00,-1.00,-5.00,+7.00,+2.00,+8.00,+0.00,-2.00,-3.00,+0.00,+55.00,-1.00
+2.00,+11.00,-4.00,+1.00,+1.00,+6.00,+8.00,-15.00,+0.00,-8.00,-3.00,-1.00,+0.00,+0.00,-28.00,+1.00
-5.00,-2.00,+13.00,-3.00,-4.00,-9.00,-3.00,-1.00,+10.00,+6.00,-2.00,-1.00,-3.00,-1.00,+43.00,-2.00
-11.00,-8.00,+1.00,+1.00,+0.00,+0.00,+1.00,+2.00,-11.00,-7.00,-4.00,+0.00,+0.00,-3.00,-31.00,+4.00
-11.00,-18.00,-7.00,-2.00,-2.00,-1.00,-9.00,-16.00,+6.00,-3.00,+1.00,+1.00,-1.00,+2.00,-21.00,-5.00
-1.00,+6.00,-8.00,-2.00,-2.00,-3.00,+9.00,+6.00,+2.00,+8.00,+2.00,-1.00,+1.00,+3.00,+4.00,-5.00
-22.00,-76.00,-14.00,-4.00,-3.00,-3.00,-1.00,-2.00,-2.00,+0.00,+3.00,+0.00,+1.00,-3.00,+1.00,+1.00
+27.00,+102.00,+14.00,+3.00,+1.00,+5.00,+3.00,+2.00,+13.00,+6.00,-1.00,-2.00,-6.00,-5.00,+9.00,+2.00
+6.00,+8.00,+1.00,+0.00,+0.00,-2.00,-4.00,-10.00,-17.00,-12.00,-1.00,+1.00,+2.00,+2.00,-12.00,-2.00
+20.00,-2.00,+1.00,+1.00,+2.00,+3.00,-10.00,+13.00,-11.00,-5.00,-1.00,-2.00,-1.00,+1.00,+21.00,-4.00
-4.00,-14.00,-3.00,-1.00,+0.00,-5.00,+3.00,+4.00,-7.00,-9.00,-6.00,+0.00,+0.00,+0.00,-31.00,+1.00
-9.00,-33.00,-1.00,+0.00,-1.00,+2.00,-11.00,-1.00,+17.00,+2.00,-4.00,-2.00,-3.00,-8.00,+5.00,-3.00
-13.00,-18.00,-2.00,-1.00,-2.00,-4.00,-2.00,-8.00,-4.00,+3.00,+0.00,-3.00,+0.00,+7.00,-22.00,-2.00
-14.00,-25.00,+2.00,-2.00,-1.00,-1.00,+5.00,-15.00,+2.00,+3.00,+0.00,+0.00,-1.00,-8.00,+18.00,+10.00
+20.00,+51.00,-4.00,+0.00,+2.00,+5.00,+3.00,+18.00,-4.00,+1.00,+0.00,-1.00,+2.00,+10.00,-47.00,-5.00
+9.00,-21.00,-7.00,-4.00,-2.00,-17.00,-14.00,-14.00,-11.00,-3.00,+0.00,-1.00,-3.00,-10.00,+48.00,-3.00
-21.00,+10.00,-2.00,-1.00,+1.00,+37.00,+2.00,+13.00,+10.00,+2.00,-3.00,-2.00,-1.00,+0.00,+2.00,+4.00
+11.00,-52.00,-1.00,-2.00,-2.00,-1.00,-5.00,+0.00,-5.00,-8.00,+0.00,+0.00,+0.00,+5.00,-11.00,-11.00
+5.00,+99.00,+7.00,+1.00,-2.00,-1.00,-2.00,-4.00,-5.00,-8.00,+0.00,-4.00,-5.00,-8.00,-1.00,-6.00
+17.00,-30.00,+4.00,+2.00,-1.00,+5.00,+1.00,+0.00,+12.00,+2.00,-1.00,-1.00,-4.00,+7.00,-5.00,+8.00
+11.00,+28.00,+3.00,+0.00,+1.00,-14.00,+11.00,-7.00,-14.00,-6.00,-1.00,-1.00,-4.00,-13.00,-15.00,-7.00
-18.00,-72.00,-8.00,-2.00,-2.00,-11.00,-5.00,+4.00,+11.00,+8.00,-2.00,-3.00,-1.00,-3.00,-1.00,-1.00
+0.00,+33.00,-5.00,-1.00,-3.00,-4.00,+5.00,-16.00,-1.00,+3.00,-3.00,+0.00,+7.00,+3.00,+32.00,+0.00
+2.00,-9.00,+0.00,-1.00,+1.00,+3.00,-3.00,+24.00,-10.00,-10.00,-2.00,+1.00,+2.00,+2.00,-4.00,-6.00
+11.00,-5.00,+1.00,+1.00,-1.00,-1.00,-5.00,+1.00,+11.00,+0.00,-1.00,-2.00,-3.00,+3.00,+6.00,+6.00
-1.00,+6.00,+0.00,+0.00,+0.00,-20.00,-5.00,+7.00,-16.00,-1.00,-2.00,+4.00,-7.00,+2.00,-18.00,-15.00
-8.00,-25.00,-5.00,-2.00,-2.00,-8.00,-3.00,-19.00,-21.00,+0.00,+2.00,+2.00,+7.00,-5.00,-13.00,+8.00
-5.00,+24.00,-1.00,-1.00,-1.00,-8.00,+3.00,+10.00,+5.00,+2.00,-1.00,-10.00,-4.00,-8.00,+5.00,-6.00
+7.00,+9.00,+2.00,-1.00,+1.00,+11.00,+0.00,-20.00,-3.00,-6.00,-1.00,+0.00,+6.00,+4.00,+16.00,+0.00
-24.00,-11.00,-3.00,-2.00,-2.00,-38.00,-12.00,-12.00,+16.00,+1.00,+0.00,-3.00,+3.00,+2.00,-24.00,+2.00
+13.00,+47.00,+1.00,+0.00,+4.00,+89.00,+17.00,+14.00,+8.00,+2.00,+1.00,-1.00,-6.00,-9.00,+2.00,-13.00
-9.00,-68.00,-8.00,-2.00,-2.00,+3.00,-5.00,-12.00,-5.00,-6.00,-2.00,+3.00,-3.00,-48.00,-43.00,+3.00
-6.00,+50.00,+4.00,-2.00,-3.00,-13.00,+2.00,+4.00,+0.00,+4.00,-1.00,-2.00,-1.00,+29.00,+43.00,+3.00
-4.00,-17.00,+1.00,+0.00,+1.00,+12.00,-8.00,+2.00,-8.00,-4.00,-4.00,+1.00,-2.00,-8.00,-17.00,-4.00
+4.00,-1.00,+1.00,+0.00,+0.00,-26.00,-13.00,-7.00,+10.00,+12.00,+2.00,-7.00,-7.00,+29.00,+73.00,+10.00
+4.00,+10.00,-5.00,-4.00,-20.00,-2.00,+5.00,-2.00,+4.00,+2.00,-3.00,-10.00,+5.00,-45.00,-79.00,-4.00
+19.00,+2.00,+7.00,+2.00,+9.00,-5.00,-1.00,+25.00,+3.00,-3.00,-3.00,+4.00,-7.00,-9.00,-43.00,-12.00
-2.00,-26.00,-2.00,+1.00,+1.00,+9.00,-18.00,-14.00,+4.00,+3.00,+2.00,-8.00,+17.00,+8.00,+3.00,+7.00
-14.00,+8.00,-2.00,-1.00,-3.00,-21.00,+6.00,+25.00,-6.00,+2.00,-2.00,+5.00,-5.00,-16.00,+6.00,-4.00
-1.00,-37.00,-3.00,-1.00,+1.00,+14.00,+8.00,+19.00,-23.00,-10.00,+1.00,+0.00,-3.00,+23.00,+32.00,+4.00
-21.00,+8.00,-7.00,-4.00,+1.00,-14.00,-2.00,+1.00,+11.00,-1.00,-3.00,+0.00,-4.00,-5.00,+22.00,+7.00
+14.00,+56.00,+5.00,+1.00,-2.00,+4.00,-4.00,+21.00,-2.00,+3.00,-2.00,+5.00,+16.00,+9.00,-36.00,-21.00
-18.00,-98.00,+0.00,+2.00,+2.00,-3.00,+1.00,-15.00,-1.00,-8.00,-3.00,-3.00,-6.00,-14.00,-14.00,+11.00
+11.00,+46.00,-6.00,-7.00,-9.00,-27.00,-10.00,-21.00,+5.00,-3.00,+1.00,+1.00,+2.00,+19.00,-21.00,-7.00
-24.00,-40.00,-6.00,+0.00,-14.00,-41.00,-4.00,-21.00,+6.00,+1.00,-3.00,+2.00,-2.00,+19.00,+4.00,+1.00
-25.00,-22.00,-5.00,+0.00,+13.00,+56.00,+18.00,+2.00,-5.00,-7.00,-2.00,-4.00,-11.00,-28.00,+47.00,-2.00
+37.00,+28.00,+5.00,+0.00,-12.00,+7.00,+9.00,+48.00,-13.00,-7.00,+0.00,-2.00,-3.00,-17.00,-40.00,+0.00
-20.00,-49.00,-2.00,+1.00,+29.00,+14.00,+7.00,-7.00,+7.00,+1.00,-2.00,+3.00,+7.00,+17.00,+7.00,+2.00
+18.00,-29.00,-4.00,-2.00,-2.00,-18.00,-18.00,+13.00,-24.00,-13.00,-6.00,-2.00,+12.00,-13.00,-64.00,-4.00
+9.00,+119.00,+2.00,-2.00,-4.00,-6.00,-8.00,-64.00,+1.00,+3.00,-1.00,-2.00,-3.00,-2.00,+101.00,-5.00
-28.00,-63.00,-5.00,-5.00,-6.00,-25.00,-5.00,+5.00,-18.00,-5.00,+0.00,+4.00,+1.00,-1.00,-33.00,+6.00
-3.00,-16.00,+0.00,+1.00,-6.00,-2.00,-4.00,+63.00,-2.00,+8.00,+1.00,+1.00,-4.00,+33.00,+47.00,+4.00
+11.00,-3.00,-3.00,-2.00,-3.00,-1.00,-4.00,+7.00,+2.00,-18.00,-3.00,-4.00,-4.00,-28.00,-23.00,-3.00
+4.00,-9.00,+0.00,+0.00,-4.00,+0.00,+3.00,-34.00,+15.00,+3.00,-3.00,-4.00,-1.00,+11.00,-13.00,+0.00
-15.00,-31.00,-7.00,-4.00,+1.00,+1.00,+1.00,-18.00,+18.00,+7.00,+0.00,-2.00,-6.00,-1.00,+50.00,-9.00
+1.00,-11.00,-1.00,+1.00,+1.00,-4.00,-23.00,-41.00,-10.00,+3.00,+1.00,+6.00,+1.00,+8.00,-14.00,+5.00
+9.00,+79.00,+3.00,+2.00,+5.00,+50.00,+6.00,-5.00,-20.00,+6.00,+3.00,-1.00,-7.00,+3.00,+38.00,-4.00
+6.00,-38.00,+3.00,+0.00,-4.00,-18.00,+27.00,+9.00,+16.00,-10.00,-3.00,-4.00,-4.00,-12.00,+5.00,+1.00
+2.00,+23.00,-2.00,-2.00,-1.00,+32.00,+1.00,-27.00,+21.00,+21.00,+1.00,-1.00,-2.00,+30.00,-76.00,+6.00
-6.00,+30.00,-5.00,-4.00,-3.00,-10.00,-7.00,+21.00,+13.00,-14.00,-4.00,-3.00,+5.00,-10.00,+12.00,-1.00
-1.00,+1.00,+4.00,+0.00,-8.00,+33.00,+5.00,+31.00,-30.00,-20.00,-3.00,+2.00,-12.00,+4.00,+0.00,+7.00
+20.00,-5.00,+1.00,+0.00,+19.00,+11.00,-8.00,-9.00,-27.00,-7.00,+6.00,+3.00,+13.00,-26.00,-6.00,-7.00
+13.00,+14.00,+7.00,+0.00,-5.00,-27.00,-4.00,+50.00,+14.00,+11.00,-4.00,-3.00,+10.00,-17.00,-63.00,+4.00
-22.00,-40.00,-9.00,-4.00,-6.00,+2.00,+0.00,-6.00,+9.00,+3.00,-2.00,-4.00,-22.00,-10.00,-37.00,-2.00
-35.00,-43.00,-12.00,-1.00,+1.00,-20.00,-14.00,-54.00,+10.00,+9.00,+5.00,-2.00,-15.00,+0.00,-18.00,-10.00
+18.00,+68.00,+5.00,-1.00,-10.00,+7.00,+0.00,-6.00,-3.00,-6.00,-8.00,+5.00,+24.00,+52.00,+5.00,+16.00
-14.00,-50.00,-1.00,+3.00,+8.00,-26.00,-4.00,-7.00,-7.00,-4.00,-6.00,-11.00,-13.00,-36.00,-44.00,-13.00
-3.00,+76.00,+2.00,-2.00,-3.00,+35.00,-4.00,-47.00,+0.00,+1.00,+2.00,+2.00,-16.00,-18.00,-17.00,-9.00
-22.00,-100.00,-11.00,-1.00,-6.00,-75.00,+19.00,+74.00,+9.00,+13.00,+4.00,-3.00,+23.00,-30.00,-18.00,-7.00
-5.00,+13.00,+0.00,-2.00,+1.00,+68.00,-2.00,-41.00,+10.00,-1.00,+3.00,+3.00,-8.00,+37.00,-35.00,-2.00
-2.00,-15.00,+5.00,+2.00,+2.00,-44.00,-1.00,-2.00,-11.00,+11.00,-1.00,-1.00,+16.00,+52.00,+45.00,-12.00
-14.00,+57.00,+8.00,+6.00,-1.00,+33.00,+11.00,-52.00,-30.00,-29.00,-3.00,-4.00,+38.00,-18.00,+33.00,+28.00
-41.00,-81.00,-9.00,-5.00,-16.00,-40.00,-27.00,+6.00,-13.00,-16.00,-4.00,+3.00,-14.00,-5.00,+15.00,-16.00
-29.00,+43.00,-4.00,-2.00,-1.00,-14.00,+14.00,+60.00,+0.00,+13.00,-1.00,-1.00,+5.00,-53.00,+62.00,+12.00
-14.00,-9.00,-4.00,-3.00,-16.00,-3.00,-7.00,-12.00,+4.00,-16.00,-5.00,+3.00,-7.00,+8.00,-34.00,+17.00
+16.00,-29.00,+5.00,-2.00,+13.00,-12.00,+4.00,-45.00,-14.00,+6.00,+1.00,+4.00,-1.00,+0.00,+67.00,-32.00
+1.00,+22.00,-9.00,-2.00,+4.00,+2.00,-24.00,-26.00,+5.00,+16.00,+6.00,+1.00,+50.00,+40.00,-51.00,+2.00
+3.00,-38.00,-5.00,-1.00,+7.00,-25.00,+36.00,+64.00,+22.00,-9.00,-4.00,-5.00,-79.00,+36.00,+84.00,+17.00
+14.00,-31.00,-1.00,+2.00,+10.00,+9.00,-37.00,+6.00,-11.00,+0.00,+4.00,+2.00,+24.00,-38.00,-9.00,-33.00
+12.00,+74.00,+5.00,+2.00,-5.00,-39.00,+20.00,+23.00,+24.00,+15.00,-2.00,-3.00,-54.00,+6.00,-30.00,+48.00
+18.00,-63.00,-8.00,-5.00,-8.00,+4.00,-11.00,-83.00,+15.00,-1.00,+0.00,+0.00,-10.00,-8.00,+99.00,-55.00
+3.00,+39.00,+19.00,+2.00,-3.00,-75.00,-11.00,+56.00,-36.00,-3.00,+2.00,-1.00,-6.00,+5.00,-103.00,+14.00
+3.00,-34.00,+2.00,+4.00,+6.00,+16.00,+8.00,-18.00,-9.00,-19.00,+1.00,+5.00,+7.00,+15.00,+63.00,+16.00
-13.00,-38.00,-11.00,-5.00,-5.00,+77.00,+0.00,-24.00,+2.00,-2.00,-4.00,+0.00,-11.00,+90.00,-26.00,-9.00
+28.00,+5.00,-8.00,-4.00,+1.00,+1.00,-4.00,+47.00,-24.00,-11.00,-2.00,+2.00,-8.00,-83.00,+63.00,-16.00
+25.00,-3.00,+3.00,-1.00,-8.00,-2.00,+0.00,-54.00,+24.00,+1.00,-4.00,-9.00,+13.00,+57.00,-90.00,-12.00
-13.00,+23.00,-3.00,+0.00,-20.00,+3.00,-22.00,-24.00,+26.00,+12.00,+4.00,-1.00,-4.00,-46.00,+94.00,+44.00
-7.00,-49.00,-3.00,+0.00,+18.00,-52.00,+12.00,+78.00,-10.00,-2.00,-1.00,-2.00,+27.00,-14.00,-1.00,-7.00
-5.00,+31.00,+7.00,+2.00,+9.00,+30.00,+30.00,-95.00,+3.00,+16.00,+2.00,-3.00,-21.00,+8.00,-31.00,+32.00
+10.00,-53.00,-13.00,-6.00,-11.00,-5.00,-30.00,+73.00,+9.00,-16.00,-2.00,+2.00,+12.00,+42.00,-71.00,-8.00
+5.00,+36.00,+5.00,+0.00,+1.00,+5.00,+3.00,-7.00,-1.00,+0.00,-3.00,-5.00,-56.00,-58.00,-1.00,-19.00
+11.00,-31.00,+1.00,+0.00,-5.00,-2.00,+16.00,+79.00,-25.00,-4.00,+0.00,-2.00,+5.00,+37.00,+46.00,-43.00
-1.00,+48.00,+17.00,+4.00,+5.00,+6.00,+5.00,+2.00,+37.00,+17.00,+7.00,+1.00,-37.00,-12.00,-45.00,+41.00
-3.00,-30.00,-8.00,-2.00,-9.00,-107.00,-14.00,-70.00,-34.00,-11.00,-10.00,-4.00,-13.00,-52.00,+14.00,-13.00
+21.00,+7.00,+2.00,+1.00,+15.00,+88.00,+23.00,-18.00,+0.00,-36.00,+18.00,+0.00,+23.00,+1.00,-86.00,-13.00
-13.00,-31.00,-8.00,-1.00,-19.00,-65.00,-37.00,+61.00,+4.00,+13.00,-23.00,-9.00,+96.00,-9.00,+34.00,+23.00
+27.00,+7.00,+3.00,-1.00,+5.00,+27.00,+41.00,-50.00,-26.00,-26.00,+5.00,-6.00,-84.00,-20.00,+4.00,-30.00
-22.00,-30.00,-8.00,+2.00,+10.00,+25.00,-7.00,+62.00,-9.00,+22.00,+2.00,+1.00,+19.00,-31.00,-52.00,+15.00
+7.00,+10.00,-5.00,-4.00,+0.00,-19.00,-1.00,+35.00,+11.00,-7.00,-18.00,-4.00,-14.00,+6.00,+63.00,+13.00
-35.00,+10.00,+8.00,+2.00,+0.00,+17.00,+3.00,-40.00,+9.00,-1.00,-4.00,-1.00,+3.00,-22.00,+106.00,+18.00
-6.00,+4.00,+2.00,+1.00,+2.00,-36.00,-6.00,-10.00,+3.00,-3.00,-4.00,-2.00,+43.00,+79.00,-68.00,+3.00
+1.00,+78.00,-12.00,-5.00,-8.00,+41.00,-17.00,-101.00,+2.00,-3.00,-2.00,-4.00,+7.00,+2.00,+127.00,+14.00
+17.00,-37.00,+2.00,+1.00,+6.00,+37.00,+26.00,+31.00,-13.00,+18.00,+16.00,+7.00,-7.00,-2.00,+0.00,-30.00
+17.00,+56.00,-1.00,+0.00,+5.00,+9.00,-2.00,+58.00,+28.00,-14.00,+5.00,+2.00,-17.00,-55.00,-81.00,+5.00
-23.00,+9.00,-4.00,-1.00,-9.00,-52.00,+6.00,+79.00,-26.00,-1.00,-13.00,-2.00,+67.00,+26.00,+45.00,+6.00
-36.00,-23.00,-5.00,-9.00,-11.00,+32.00,-9.00,-74.00,-3.00,-1.00,+6.00,-4.00,-36.00,-21.00,+54.00,-27.00
+25.00,+33.00,+1.00,-2.00,+8.00,+44.00,+2.00,+69.00,+4.00,-5.00,+4.00,-6.00,-17.00,-1.00,-78.00,-21.00
+30.00,-39.00,-18.00,+1.00,+0.00,+27.00,+23.00,-48.00,+1.00,+11.00,-6.00,+0.00,-6.00,+3.00,+4.00,+5.00
-28.00,-22.00,+14.00,+0.00,+3.00,+49.00,-4.00,+1.00,-9.00,+5.00,+11.00,-3.00,+7.00,-3.00,-43.00,-3.00
+3.00,-35.00,+2.00,+0.00,+2.00,+7.00,-10.00,-15.00,+9.00,-31.00,-32.00,+0.00,+32.00,-32.00,-45.00,-15.00
-9.00,+38.00,-7.00,-7.00,-15.00,-93.00,-3.00,-47.00,-16.00,-12.00,-13.00,+1.00,-44.00,+24.00,+7.00,-18.00
+5.00,-20.00,+1.00,-2.00,-13.00,+13.00,-52.00,-10.00,+6.00,+1.00,+9.00,+5.00,-4.00,+20.00,-16.00,-8.00
-6.00,-49.00,-13.00,+5.00,+10.00,-3.00,+26.00,+14.00,-1.00,-1.00,-6.00,-3.00,-2.00,-34.00,-10.00,+34.00
+29.00,+58.00,+11.00,+2.00,+1.00,+10.00,+32.00,-10.00,-23.00,+24.00,+29.00,+1.00,+10.00,+9.00,+84.00,-39.00
-20.00,+43.00,+5.00,+0.00,-4.00,-52.00,-22.00,-35.00,+15.00,-27.00,-42.00,-6.00,+20.00,+23.00,+32.00,+7.00
-12.00,-16.00,-1.00,-2.00,+7.00,-43.00,-39.00,-119.00,+11.00,+4.00,-8.00,-6.00,-47.00,+13.00,-83.00,-34.00
-9.00,+8.00,-6.00,+0.00,+3.00,+72.00,+34.00,+40.00,-37.00,+1.00,+9.00,+3.00,+24.00,-5.00,+16.00,+0.00
+5.00,-62.00,+1.00,-2.00,-7.00,+5.00,+10.00,+65.00,+1.00,-9.00,+5.00,-4.00,-45.00,-55.00,+25.00,+4.00
-14.00,+13.00,+19.00,+0.00,+4.00,-26.00,+0.00,+48.00,-23.00,+13.00,+1.00,-8.00,+50.00,+63.00,-75.00,-7.00
-30.00,+39.00,+27.00,-6.00,-4.00,-44.00,+21.00,-50.00,+16.00,+27.00,+35.00,+7.00,-35.00,-85.00,+31.00,+4.00
+32.00,+6.00,+3.00,+0.00,+4.00,+0.00,-26.00,-53.00,+22.00,+15.00,-32.00,-7.00,-31.00,-21.00,-66.00,-17.00
-8.00,-19.00,+13.00,+8.00,+9.00,+2.00,+1.00,+24.00,+13.00,-1.00,-15.00,+0.00,+36.00,+74.00,-29.00,+49.00
-19.00,-36.00,-21.00,-8.00,-4.00,+17.00,+17.00,-67.00,-4.00,+49.00,+23.00,+9.00,+7.00,-56.00,+113.00,+42.00
+8.00,+24.00,-12.00,+2.00,-6.00,+0.00,-30.00,-38.00,-6.00,-44.00,-49.00,-11.00,+36.00,+64.00,-28.00,+26.00
+18.00,-10.00,+21.00,-4.00,-16.00,-46.00,+16.00,+91.00,+8.00,-1.00,+4.00,+4.00,-14.00,+0.00,+63.00,+20.00
-2.00,-3.00,-17.00,-2.00,-2.00,-34.00,-22.00,+14.00,-7.00,-7.00,-10.00,-3.00,+13.00,+7.00,+52.00,+12.00
+16.00,+13.00,+3.00,+6.00,+2.00,+31.00,-10.00,-16.00,+11.00,+4.00,+26.00,+7.00,-95.00,-8.00,-53.00,+22.00
-9.00,-51.00,+2.00,-6.00,+0.00,+57.00,+25.00,-32.00,-15.00,+26.00,+23.00,+5.00,+5.00,+3.00,-8.00,-36.00
-25.00,+55.00,-20.00,-3.00,-2.00,-51.00,-12.00,-128.00,+16.00,-12.00,+1.00,+4.00,+26.00,+27.00,+72.00,-1.00
+56.00,-22.00,-6.00,+5.00,+2.00,+85.00,+44.00,+96.00,-19.00,+20.00,-1.00,-6.00,-67.00,-42.00,-83.00,-28.00
-8.00,-41.00,+1.00,+3.00,+6.00,-25.00,-17.00,+47.00,-2.00,-7.00,-5.00,-2.00,+38.00,+34.00,+18.00,-39.00
+2.00,-15.00,-15.00,-3.00,-5.00,-11.00,+8.00,+11.00,-8.00,+15.00,-12.00,+0.00,-2.00,+40.00,+45.00,-33.00
-14.00,-15.00,+11.00,-3.00,-1.00,+26.00,-13.00,-28.00,+21.00,+0.00,+0.00,+2.00,-23.00,-72.00,-34.00,-1.00
-13.00,-8.00,+15.00,-4.00,-15.00,-39.00,-14.00,+70.00,+3.00,-11.00,+13.00,+6.00,-15.00,+20.00,+40.00,-37.00
+5.00,-4.00,-5.00,+2.00,+10.00,+28.00,+2.00,-99.00,+7.00,+16.00,+19.00,-3.00,-12.00,+49.00,+95.00,-10.00
+20.00,+21.00,+0.00,+1.00,-18.00,-90.00,+13.00,+122.00,-19.00,-15.00,-4.00,-2.00,-36.00,-62.00,+45.00,+7.00
-6.00,-7.00,-26.00,+1.00,+29.00,+58.00,-19.00,+67.00,+1.00,-3.00,-14.00,+5.00,-3.00,-3.00,+55.00,-21.00
+9.00,+18.00,-8.00,+0.00,+4.00,-36.00,+10.00,-16.00,+18.00,-16.00,-19.00,-16.00,-10.00,-8.00,-31.00,+15.00
+7.00,-27.00,+7.00,+2.00,-7.00,+38.00,+8.00,-18.00,-11.00,-24.00,-9.00,+4.00,+7.00,-9.00,+25.00,+22.00
-22.00,+2.00,+3.00,-2.00,+7.00,-18.00,+1.00,+54.00,-18.00,-22.00,+15.00,-5.00,+43.00,+74.00,-34.00,+17.00
+10.00,+19.00,+1.00,-2.00,-9.00,-30.00,-14.00,-17.00,+11.00,+7.00,-16.00,-4.00,+13.00,-22.00,+46.00,-19.00
-42.00,-25.00,+11.00,+0.00,-14.00,-92.00,-52.00,-19.00,-4.00,+3.00,+32.00,+14.00,+44.00,+31.00,+58.00,-8.00
+1.00,+7.00,-8.00,+4.00,+23.00,+14.00,+11.00,+5.00,-18.00,-2.00,-35.00,-9.00,+43.00,-11.00,-82.00,+3.00
+39.00,+24.00,+2.00,+3.00,-1.00,-74.00,+1.00,+44.00,-4.00,-18.00,+4.00,+1.00,-86.00,-49.00,-45.00,+2.00
-9.00,-19.00,-21.00,-3.00,-2.00,+15.00,-32.00,-63.00,-7.00,-2.00,+4.00,-7.00,+13.00,+36.00,-39.00,-9.00
-8.00,+11.00,+16.00,+1.00,+3.00,-60.00,+5.00,-23.00,+5.00,+28.00,+12.00,+10.00,-26.00,-54.00,-46.00,-9.00
-2.00,+16.00,+19.00,-2.00,-16.00,-40.00,+12.00,+73.00,+7.00,-3.00,-14.00,-2.00,+20.00,+63.00,+84.00,+5.00
-9.00,-28.00,+6.00,-1.00,+23.00,+127.00,+23.00,-128.00,-9.00,-13.00,-13.00,-3.00,+79.00,-56.00,-36.00,+12.00
+15.00,+53.00,+13.00,+2.00,-7.00,-76.00,+18.00,+87.00,-17.00,-27.00,+5.00,-7.00,+14.00,-3.00,-98.00,+9.00
-27.00,+5.00,-27.00,-1.00,+8.00,+54.00,-54.00,-114.00,+6.00,+7.00,+0.00,-4.00,+12.00,+7.00,-101.00,+34.00
-10.00,-33.00,-13.00,-4.00,-5.00,+18.00,+17.00,+70.00,+4.00,+30.00,+34.00,+1.00,+13.00,+5.00,+81.00,+0.00
+4.00,+7.00,+7.00,-2.00,-7.00,+23.00,-14.00,-71.00,+16.00,-46.00,-46.00,-4.00,+15.00,+34.00,-15.00,+54.00
+15.00,-4.00,+2.00,-1.00,-4.00,-21.00,+3.00,-64.00,+7.00,-8.00,-1.00,-3.00,-62.00,-1.00,-22.00,+7.00
-14.00,-20.00,+15.00,+0.00,+2.00,+47.00,+37.00,+20.00,-5.00,-10.00,-2.00,-4.00,-5.00,+34.00,+60.00,-51.00
-31.00,-4.00,-11.00,-12.00,-7.00,-66.00,-33.00,-120.00,-3.00,+42.00,+32.00,-1.00,+3.00,-99.00,-58.00,+51.00
+21.00,+3.00,-2.00,+13.00,+27.00,+66.00,+25.00,+127.00,-8.00,-14.00,-19.00,-5.00,-2.00,+43.00,+36.00,-2.00
-6.00,-53.00,+17.00,-6.00,-13.00,+78.00,+7.00,+6.00,+6.00,-14.00,+24.00,-1.00,-35.00,+65.00,+87.00,+59.00
+26.00,+89.00,+7.00,+1.00,-8.00,-79.00,+0.00,-36.00,-1.00,-42.00,-41.00,-1.00,+15.00,+23.00,-71.00,+26.00
-8.00,+3.00,-7.00,-2.00,+3.00,+23.00,+0.00,-68.00,+8.00,-10.00,-27.00,-6.00,+32.00,-110.00,-3.00,+59.00
-6.00,+0.00,-6.00,-7.00,-9.00,-53.00,-7.00,+10.00,-15.00,+18.00,+32.00,+0.00,+53.00,+70.00,-91.00,-4.00
-15.00,-28.00,-16.00,+4.00,+3.00,+5.00,-9.00,+8.00,-4.00,+16.00,+1.00,-4.00,-79.00,-57.00,+97.00,+40.00
-7.00,-32.00,+12.00,-9.00,-13.00,-49.00,+8.00,-11.00,-2.00,+91.00,+34.00,+7.00,+37.00,+0.00,+18.00,+52.00
-25.00,+26.00,+4.00,+3.00,+14.00,+64.00,-23.00,-46.00,-12.00,-54.00,-31.00,-8.00,-14.00,+50.00,+73.00,-75.00
-37.00,+2.00,-14.00,+0.00,-9.00,-92.00,-11.00,-128.00,-5.00,-13.00,-9.00,-2.00,+11.00,-56.00,-12.00,+48.00
+32.00,-9.00,+0.00,+3.00,+11.00,+106.00,+42.00,+47.00,+11.00,+2.00,-14.00,+6.00,+71.00,-4.00,-43.00,-32.00
+7.00,+4.00,-32.00,-11.00,-16.00,-26.00,-34.00,-78.00,-2.00,-11.00,+7.00,-3.00,-60.00,-11.00,-44.00,-18.00
+27.00,+1.00,+24.00,-4.00,+1.00,-55.00,+20.00,+71.00,+18.00,+90.00,+65.00,+13.00,-40.00,-15.00,-128.00,-32.00
+15.00,+6.00,+26.00,-7.00,-6.00,-51.00,-31.00,-69.00,+2.00,-26.00,+12.00,+0.00,-7.00,+1.00,+68.00,-22.00
+29.00,+22.00,-1.00,+2.00,-2.00,-38.00,+40.00,+34.00,-21.00,-17.00,-17.00,-9.00,+35.00,+39.00,+41.00,-27.00
-18.00,-24.00,-7.00,-5.00,-11.00,+18.00,+12.00,-93.00,-25.00,-1.00,+2.00,-3.00,-27.00,-67.00,-75.00,+20.00
+27.00,-6.00,-29.00,+2.00,+4.00,+4.00,+24.00,+52.00,-12.00,-44.00,-29.00,-9.00,+20.00,+105.00,+54.00,+39.00
-29.00,-45.00,-80.00,+2.00,+5.00,+27.00,-19.00,-38.00,+1.00,+21.00,+12.00,+2.00,-88.00,-113.00,-32.00,-60.00
+30.00,+35.00,+61.00,+4.00,+10.00,+34.00,+7.00,+87.00,-1.00,+5.00,+1.00,-2.00,+66.00,+55.00,-116.00,-8.00
-31.00,-10.00,+14.00,-7.00,-3.00,-46.00,-2.00,-82.00,+19.00,-5.00,-12.00,+7.00,+127.00,+78.00,+53.00,+36.00
+27.00,+19.00,+22.00,+2.00,-7.00,+3.00,+11.00,+17.00,+4.00,+9.00,+6.00,-1.00,-104.00,-95.00,+3.00,-6.00
-29.00,+1.00,-32.00,-2.00,+2.00,+15.00,-11.00,-32.00,+11.00,+26.00,+4.00,-9.00,-43.00,-11.00,+10.00,-4.00
-35.00,-23.00,-49.00,+2.00,-4.00,-69.00,-23.00,-44.00,-5.00,+24.00,+1.00,+5.00,+49.00,-67.00,+11.00,-53.00
+25.00,+12.00,+7.00,+2.00,+13.00,-24.00,-8.00,+69.00,+8.00,+12.00,+2.00,-5.00,-22.00,+35.00,+54.00,-62.00
-14.00,-1.00,-10.00,-6.00,-22.00,+21.00,-8.00,-37.00,-3.00,-37.00,-8.00,+4.00,+49.00,+8.00,+9.00,-49.00
-12.00,-46.00,-30.00,-8.00,-10.00,-8.00,+30.00,-43.00,-28.00,-5.00,-9.00,+0.00,+55.00,+2.00,-3.00,-35.00
+34.00,+35.00,+42.00,-1.00,-4.00,-5.00,-41.00,+7.00,-15.00,+4.00,+22.00,+5.00,-26.00,+15.00,+30.00,-18.00
+5.00,+12.00,+2.00,+13.00,+29.00,+64.00,+48.00,-57.00,+0.00,+17.00,+12.00,-7.00,+21.00,+10.00,-23.00,-66.00
+18.00,-10.00,-6.00,+0.00,-11.00,-58.00,+16.00,+102.00,+5.00,+59.00,+14.00,-1.00,-16.00,+13.00,+25.00,+29.00
+31.00,+29.00,+14.00,+2.00,-26.00,-40.00,-46.00,-24.00,+2.00,-51.00,-75.00,-10.00,-27.00,-29.00,-41.00,+26.00
-46.00,-38.00,-21.00,-5.00,+17.00,+46.00,+13.00,-100.00,+11.00,-30.00,-2.00,+6.00,+8.00,+75.00,+50.00,-81.00
-23.00,-5.00,-18.00,-7.00,-11.00,-14.00,+6.00,+41.00,+7.00,-64.00,-38.00,+1.00,-38.00,-78.00,-3.00,+22.00
-11.00,+9.00,+0.00,+0.00,-4.00,-105.00,-35.00,-98.00,-10.00,-6.00,+7.00,+7.00,-25.00,+3.00,-128.00,-4.00
-14.00,-35.00,+15.00,-5.00,+9.00,+88.00,+24.00,+12.00,+13.00,+78.00,+29.00,+11.00,+110.00,+66.00,+18.00,-91.00
+17.00,+29.00,+2.00,-2.00,-11.00,-50.00,-12.00,-84.00,+76.00,-5.00,-9.00,-19.00,-76.00,-82.00,-69.00,+117.00
+29.00,+70.00,-1.00,-4.00,-4.00,+73.00,+3.00,+102.00,+1.00,+35.00,+1.00,-5.00,+53.00,+49.00,+1.00,-14.00
-10.00,-8.00,-20.00,-2.00,-10.00,-6.00,-20.00,-64.00,+9.00,+0.00,-1.00,-8.00,-73.00,-68.00,+53.00,-43.00
-15.00,+13.00,+30.00,+9.00,+14.00,+16.00,+29.00,+40.00,-14.00,-37.00,+27.00,+17.00,+110.00,+1.00,-14.00,-52.00
-75.00,-76.00,+1.00,-7.00,-12.00,-46.00,-25.00,-81.00,-35.00,-40.00,-19.00,+2.00,-71.00,+25.00,+23.00,-21.00
-59.00,-47.00,+28.00,-2.00,+4.00,+4.00,-11.00,-19.00,-12.00,-5.00,+8.00,-5.00,+60.00,-42.00,-27.00,-36.00
-3.00,+57.00,+35.00,-2.00,-8.00,+46.00,-6.00,+54.00,+40.00,-9.00,-11.00,-1.00,+117.00,+83.00,+46.00,-32.00
+36.00,-7.00,+38.00,+9.00,+8.00,+4.00,+20.00,+89.00,+48.00,+118.00,+18.00,-13.00,-128.00,-100.00,+20.00,-81.00
+64.00,+65.00,-31.00,+0.00,+1.00,+21.00,+27.00,+17.00,-3.00,+11.00,+10.00,+8.00,+120.00,+10.00,+11.00,+32.00
-25.00,-106.00,-39.00,+0.00,-1.00,+72.00,+1.00,+31.00,-6.00,+21.00,+2.00,+4.00,-100.00,-8.00,-17.00,-87.00
-52.00,-37.00,-13.00,-11.00,-4.00,-9.00,+6.00,-102.00,-45.00,-50.00,+4.00,-6.00,-61.00,+1.00,+0.00,+58.00
+18.00,-89.00,-23.00,-6.00,-4.00,-25.00,-53.00,-73.00,-16.00,-11.00,-1.00,+3.00,+68.00,+127.00,-45.00,+53.00
+66.00,+98.00,+27.00,+4.00,+9.00,-62.00,+12.00,+118.00,+84.00,+30.00,-23.00,-7.00,+15.00,-92.00,-31.00,-43.00
-8.00,-70.00,+29.00,+20.00,+14.00,+51.00,+21.00,-43.00,+9.00,-40.00,-16.00,-12.00,-65.00,+30.00,+80.00,+114.00
+74.00,+74.00,+15.00,+4.00,+11.00,-101.00,-19.00,+101.00,+91.00,-57.00,-29.00,+0.00,+127.00,+102.00,-47.00,+20.00
-43.00,-107.00,-5.00,-5.00,-1.00,+98.00,+27.00,-92.00,-110.00,-43.00,+14.00,+2.00,-128.00,-70.00,+93.00,+91.00
-17.00,+100.00,-22.00,-8.00,-27.00,-46.00,-20.00,-20.00,+109.00,-23.00,+19.00,+1.00,-41.00,-13.00,+29.00,-22.00
+0.00,-76.00,-29.00,-8.00,+23.00,+101.00,+15.00,+13.00,-91.00,+88.00,+12.00,+8.00,+15.00,-126.00,+76.00,+120.00
-11.00,+48.00,+8.00,+8.00,+21.00,+28.00,-15.00,-76.00,-62.00,-106.00,+23.00,+3.00,+81.00,+9.00,-58.00,-41.00
+24.00,-55.00,-8.00,+1.00,+6.00,-42.00,-23.00,-2.00,+64.00,+62.00,+19.00,+14.00,-40.00,-21.00,+11.00,+18.00
-4.00,+8.00,+7.00,-3.00,+0.00,-16.00,-9.00,-26.00,-128.00,-17.00,-4.00,+7.00,-31.00,+14.00,-28.00,+63.00
-11.00,+50.00,+8.00,-9.00,-18.00,+15.00,-6.00,-9.00,+55.00,+8.00,-10.00,-12.00,-20.00,+40.00,+4.00,-33.00
+48.00,-47.00,-12.00,+4.00,+3.00,+19.00,+23.00,+64.00,-38.00,-17.00,-28.00,-11.00,-65.00,-9.00,+7.00,-49.00
-66.00,+15.00,-19.00,-13.00,-16.00,-32.00,-22.00,-6.00,+86.00,-53.00,-12.00,-6.00,+64.00,+46.00,+73.00,+11.00
-81.00,-128.00,-70.00,-18.00,-26.00,-7.00,-89.00,-55.00,-25.00,+32.00,+3.00,-1.00,-53.00,-21.00,-66.00,+12.00
+47.00,-1.00,+12.00,+4.00,+17.00,-61.00,+27.00,+35.00,-72.00,-107.00,+5.00,+18.00,+1.00,-37.00,-39.00,+26.00
+24.00,+1.00,-5.00,-2.00,-14.00,-40.00,-6.00,-108.00,+71.00,+70.00,-6.00,-12.00,-67.00,+4.00,-9.00,-10.00
+51.00,+127.00,+74.00,+14.00,+0.00,-12.00,+77.00,+33.00,+15.00,-100.00,-20.00,-10.00,-40.00,-7.00,-74.00,+19.00
+81.00,-41.00,+65.00,+30.00,+18.00,+21.00,+33.00,-27.00,-2.00,+82.00,+11.00,+5.00,+53.00,+100.00,+76.00,+17.00
+47.00,+33.00,+26.00,+12.00,+15.00,-66.00,+4.00,-82.00,+51.00,-85.00,-12.00,-7.00,+103.00,+17.00,-69.00,-74.00
+54.00,-106.00,+29.00,+6.00,+1.00,-33.00,+20.00,+63.00,-46.00,+33.00,-18.00,-3.00,-27.00,-128.00,+49.00,+49.00
-97.00,-128.00,-67.00,-13.00,-6.00,-17.00,-18.00,-49.00,-16.00,+57.00,+23.00,+13.00,-78.00,+51.00,-46.00,-20.00
-104.00,-71.00,-46.00,-19.00,-12.00,+27.00,-8.00,+73.00,+5.00,-3.00,-2.00,+19.00,+127.00,+35.00,-101.00,-37.00
+21.00,+89.00,-30.00,-13.00,-15.00,-7.00,+2.00,+3.00,-93.00,-31.00,-18.00,-14.00,-37.00,+41.00,+1.00,+13.00
-100.00,-117.00,-37.00,-10.00,-12.00,+9.00,-27.00,-72.00,-57.00,+57.00,-7.00,-6.00,+12.00,-55.00,+33.00,-34.00
+47.00,+114.00,+49.00,+9.00,+8.00,+4.00,-5.00,+106.00,+55.00,+127.00,+36.00,-30.00,-60.00,-48.00,-49.00,+29.00
-127.00,-128.00,-16.00,-2.00,+12.00,-19.00,+2.00,+11.00,-128.00,-47.00,+1.00,-4.00,-13.00,-57.00,+26.00,-7.00
-2.00,-99.00,-30.00,-7.00,-3.00,+71.00,+5.00,+0.00,+120.00,-91.00,-14.00,+11.00,+34.00,+36.00,-5.00,+25.00
+34.00,+62.00,+5.00,-3.00,-13.00,+11.00,+9.00,-49.00,-32.00,+93.00,+23.00,+20.00,+10.00,+41.00,-3.00,-41.00
+6.00,-98.00,+8.00,+0.00,-8.00,+21.00,+1.00,+26.00,-58.00,-17.00,-18.00,+3.00,-50.00,+14.00,+127.00,+53.00
+127.00,+127.00,+55.00,+4.00,-10.00,-35.00,-71.00,+23.00,-43.00,-76.00,-10.00,-12.00,-83.00,-122.00,-111.00,-110.00
-69.00,-112.00,-31.00,-1.00,-10.00,-101.00,+36.00,-56.00,+8.00,-46.00,-2.00,+16.00,+15.00,+43.00,-28.00,-59.00
+37.00,+37.00,-18.00,-10.00,-29.00,+17.00,+22.00,+75.00,+37.00,+81.00,-9.00,+1.00,-8.00,+20.00,+84.00,-11.00
-44.00,+70.00,+63.00,+12.00,+9.00,+13.00,-30.00,-37.00,+53.00,-2.00,-4.00,+5.00,+45.00,+7.00,-55.00,-36.00
+90.00,+14.00,-14.00,+2.00,+22.00,-46.00,-69.00,-64.00,+13.00,+17.00,-8.00,-5.00,-22.00,+24.00,+1.00,+15.00
-15.00,+36.00,+8.00,+12.00,+10.00,-11.00,+25.00,+6.00,+19.00,+25.00,+15.00,-5.00,+70.00,-24.00,+46.00,+41.00
+53.00,+26.00,+58.00,+11.00,+25.00,+58.00,-45.00,-30.00,-88.00,-102.00,-1.00,-1.00,-17.00,+58.00,-31.00,-23.00
-73.00,-51.00,-48.00,-13.00,-3.00,-13.00,-53.00,-18.00,-21.00,+73.00,-16.00,+7.00,+51.00,-59.00,+28.00,-23.00
-9.00,-34.00,-21.00,-1.00,-8.00,+9.00,+51.00,+43.00,+89.00,+99.00,+8.00,-15.00,-19.00,-30.00,+10.00,+101.00
-118.00,-85.00,-26.00,-8.00,-23.00,-125.00,-107.00,+80.00,-18.00,-41.00,-11.00,-7.00,+97.00,+62.00,-39.00,+68.00
+11.00,+92.00,-5.00,+2.00,+16.00,+85.00,+94.00,-73.00,-35.00,+98.00,-4.00,-10.00,+49.00,-66.00,-80.00,-53.00
-18.00,-92.00,+24.00,+5.00,+2.00,+68.00,-36.00,-36.00,-59.00,+61.00,+6.00,+8.00,+50.00,+93.00,-11.00,+25.00
+17.00,-67.00,-8.00,+4.00,+17.00,+54.00,+40.00,+63.00,+12.00,-107.00,+8.00,+0.00,+42.00,+9.00,-46.00,+21.00
+51.00,-69.00,-22.00,-5.00,-8.00,-35.00,-28.00,-38.00,-32.00,+127.00,+14.00,+1.00,-10.00,-7.00,-14.00,-32.00
-35.00,-3.00,-12.00,-6.00,-3.00,+4.00,-3.00,+29.00,+56.00,-68.00,-20.00,+0.00,-73.00,+8.00,-127.00,+47.00
+12.00,-33.00,-49.00,-4.00,-8.00,-29.00,+11.00,-98.00,-26.00,-81.00,-9.00,-6.00,+90.00,+72.00,+47.00,-75.00
+53.00,+70.00,-3.00,-11.00,-20.00,-38.00,-25.00,-22.00,+87.00,-40.00,-23.00,-22.00,-70.00,+11.00,+54.00,-71.00
+59.00,+79.00,+97.00,+28.00,+32.00,+84.00,+54.00,+74.00,-96.00,+122.00,+21.00,+1.00,+29.00,+58.00,+5.00,+0.00
-124.00,-128.00,-82.00,-19.00,-19.00,-54.00,-43.00,-38.00,+2.00,-128.00,-24.00,+2.00,+1.00,-30.00,-14.00,+49.00
+127.00,+127.00,+41.00,+0.00,+0.00,-35.00,+50.00,+71.00,-9.00,-18.00,+14.00,-1.00,-27.00,-23.00,-68.00,-38.00
-128.00,-122.00,-22.00,-9.00,-13.00,-4.00,-86.00,-12.00,-14.00,+7.00,+8.00,+6.00,+127.00,+76.00,-5.00,+15.00
+64.00,+86.00,+65.00,+5.00,-5.00,-16.00,+90.00,-29.00,+105.00,-69.00,-59.00,-18.00,-128.00,-75.00,+72.00,+50.00
-30.00,-59.00,+47.00,+20.00,+18.00,+31.00,-102.00,+1.00,-30.00,-54.00,+23.00,+11.00,-5.00,+22.00,+1.00,-29.00
-17.00,-50.00,-57.00,-17.00,-20.00,+1.00,+29.00,+103.00,-21.00,-24.00,+6.00,+1.00,-17.00,+1.00,+90.00,+46.00
-117.00,-122.00,-40.00,-18.00,-19.00,-58.00,+28.00,-128.00,-116.00,-117.00,-44.00,-10.00,+53.00,+14.00,+94.00,+28.00
-7.00,-14.00,-40.00,-12.00,+2.00,+86.00,-24.00,+20.00,+37.00,+127.00,+22.00,+2.00,-43.00,+77.00,-82.00,-7.00
-36.00,-81.00,-30.00,-15.00,-18.00,-128.00,-11.00,+10.00,+86.00,+2.00,+8.00,+4.00,+13.00,-26.00,+29.00,+57.00
+25.00,+9.00,-5.00,+3.00,+8.00,+19.00,+16.00,+16.00,+81.00,-59.00,-1.00,-18.00,-71.00,-117.00,-66.00,+26.00
-38.00,-3.00,+65.00,+6.00,-7.00,-1.00,+2.00,-74.00,-112.00,-76.00,+14.00,+13.00,+13.00,+23.00,-74.00,-20.00
-30.00,-84.00,-34.00,+1.00,+13.00,-23.00,-21.00,+57.00,+39.00,+100.00,+55.00,+5.00,-57.00,-97.00,-64.00,-20.00
-41.00,+65.00,+4.00,-7.00,-14.00,-92.00,+22.00,-62.00,+21.00,-59.00,+8.00,-1.00,+7.00,+10.00,+27.00,-65.00
-79.00,-23.00,+11.00,-15.00,-9.00,+19.00,-32.00,-69.00,+52.00,+8.00,+16.00,+1.00,-52.00,+20.00,+22.00,-13.00
+78.00,+48.00,+0.00,+16.00,+17.00,+2.00,+38.00,+60.00,+34.00,+24.00,-13.00,-9.00,-3.00,+52.00,+54.00,+53.00
+65.00,+57.00,+64.00,+13.00,+12.00,+77.00,-6.00,-15.00,-3.00,-128.00,-2.00,+8.00,+6.00,-34.00,-54.00,-58.00
+23.00,-16.00,+49.00,+2.00,-4.00,+56.00,+5.00,+0.00,+3.00,+123.00,-7.00,-8.00,+46.00,+32.00,+16.00,+90.00
+24.00,-38.00,-46.00,-10.00,-3.00,-49.00,-6.00,+35.00,-75.00,-1.00,+5.00,+0.00,+10.00,-29.00,-49.00,+3.00
-5.00,+63.00,+49.00,+14.00,+8.00,-35.00,+48.00,-106.00,+49.00,+78.00,+30.00,-11.00,+15.00,+35.00,+39.00,+3.00
-41.00,-105.00,-34.00,-9.00,-10.00,+45.00,-87.00,-29.00,-30.00,-20.00,-13.00,+6.00,+91.00,-44.00,-39.00,+5.00
+61.00,+86.00,+49.00,+21.00,+16.00,+49.00,+67.00,-11.00,-44.00,-32.00,+39.00,+4.00,-30.00,-50.00,-91.00,-63.00
-67.00,-100.00,-5.00,+8.00,+22.00,-31.00,+11.00,-22.00,+29.00,-29.00,+48.00,+14.00,+109.00,+22.00,+96.00,-54.00
+91.00,+0.00,-15.00,+1.00,+10.00,+48.00,+56.00,+127.00,+23.00,-1.00,-69.00,-7.00,-65.00,+5.00,+26.00,-56.00
-61.00,-24.00,-33.00,-8.00,-4.00,-19.00,-28.00,-95.00,+6.00,-26.00,+32.00,-2.00,+50.00,+8.00,+24.00,+86.00
-18.00,-42.00,-18.00,-13.00,-17.00,+21.00,-17.00,+30.00,+13.00,-15.00,+44.00,+3.00,-25.00,-33.00,-14.00,+54.00
-20.00,+3.00,-8.00,+1.00,-1.00,+42.00,-30.00,-1.00,-86.00,-49.00,-16.00,+7.00,+34.00,+46.00,+32.00,-7.00
-51.00,-32.00,-3.00,-11.00,-17.00,-69.00,-40.00,-98.00,+64.00,+117.00,+20.00,+6.00,-16.00,-31.00,-56.00,+48.00
+13.00,+24.00,-31.00,+10.00,+5.00,-71.00,+30.00,+19.00,-67.00,-57.00,-14.00,+2.00,-45.00,+12.00,+1.00,-128.00
-40.00,-69.00,+15.00,-10.00,-1.00,+53.00,-69.00,-118.00,-1.00,+42.00,-23.00,+4.00,-62.00,-67.00,+92.00,+86.00
+56.00,+70.00,-38.00,+7.00,+9.00,+57.00,+55.00,+64.00,-33.00,-96.00,-18.00,+7.00,-95.00,-90.00,-54.00,+43.00
-51.00,+17.00,+15.00,-12.00,-10.00,-40.00,+9.00,-44.00,+53.00,+96.00,-12.00,-11.00,+45.00,+22.00,-1.00,-25.00
+73.00,-34.00,-20.00,+11.00,+0.00,-13.00,-11.00,+0.00,-41.00,-68.00,-40.00,-12.00,-14.00,-57.00,-5.00,-17.00
+18.00,+48.00,+74.00,+1.00,+8.00,+29.00,+20.00,+98.00,+38.00,+44.00,+16.00,-1.00,-43.00,-8.00,+20.00,+45.00
+29.00,+66.00,-33.00,+3.00,-5.00,+14.00,-12.00,-68.00,-5.00,-25.00,-41.00,-13.00,+34.00,-44.00,-128.00,-34.00
-51.00,-78.00,-10.00,+0.00,+8.00,+78.00,+10.00,-20.00,-76.00,-71.00,+38.00,+10.00,+66.00,-2.00,+42.00,-3.00
-32.00,-41.00,-1.00,-17.00,-13.00,-38.00,-10.00,-62.00,+32.00,+33.00,-36.00,-6.00,+70.00,+32.00,+127.00,-41.00
-14.00,+69.00,-16.00,+4.00,-1.00,-93.00,+18.00,+23.00,-41.00,-11.00,+40.00,+7.00,+24.00,-50.00,+62.00,+9.00
+8.00,+25.00,+38.00,-3.00,-10.00,-30.00,-48.00,-30.00,+35.00,+40.00,-65.00,-8.00,+40.00,-22.00,-63.00,-37.00
+75.00,-26.00,+1.00,+11.00,+11.00,+93.00,+52.00,-22.00,-10.00,+39.00,+76.00,+19.00,-128.00,-85.00,+23.00,+53.00
-27.00,+70.00,+24.00,-1.00,+18.00,-19.00,-9.00,-44.00,-23.00,-53.00,-83.00,-29.00,+7.00,+20.00,+9.00,+40.00
+9.00,-90.00,-39.00,-8.00,-5.00,-17.00,+5.00,+2.00,+7.00,+57.00,+1.00,-3.00,+76.00,+88.00,+25.00,+62.00
-31.00,+5.00,+37.00,+1.00,+0.00,-14.00,-30.00,-47.00,-32.00,-19.00,+38.00,-8.00,-46.00,+34.00,+118.00,-64.00
+4.00,-13.00,-68.00,+9.00,+19.00,-59.00,-32.00,-15.00,+23.00,+54.00,-17.00,-3.00,+25.00,+59.00,+91.00,-11.00
+46.00,+77.00,+21.00,-11.00,-10.00,+41.00,+6.00,+100.00,+1.00,+32.00,+42.00,+23.00,-26.00,+14.00,+48.00,+88.00
-54.00,+12.00,-30.00,-2.00,+3.00,+29.00,-30.00,-95.00,+5.00,-55.00,+56.00,+7.00,+86.00,+96.00,+42.00,-74.00
+24.00,+4.00,+43.00,+6.00,-12.00,-128.00,+39.00,+91.00,+32.00,-25.00,-69.00,-6.00,-24.00,+42.00,-13.00,+123.00
+21.00,-35.00,+5.00,+15.00,+11.00,-18.00,+50.00,+127.00,-19.00,-26.00,+14.00,-11.00,+42.00,+4.00,-40.00,+53.00
+9.00,+32.00,+37.00,-13.00,-9.00,+68.00,+14.00,-128.00,-67.00,+19.00,-28.00,-10.00,-71.00,-66.00,-87.00,-57.00
-67.00,-72.00,-72.00,+7.00,+16.00,-40.00,+28.00,+13.00,+2.00,-63.00,-49.00,-13.00,+125.00,+57.00,+18.00,-97.00
+14.00,-77.00,+37.00,-18.00,-9.00,-6.00,-5.00,-10.00,-3.00,-40.00,+7.00,-1.00,-74.00,+34.00,+96.00,-46.00
+18.00,+60.00,-62.00,+9.00,+3.00,+26.00,-18.00,-46.00,-26.00,+60.00,+26.00,-6.00,+5.00,+5.00,+36.00,-61.00
+10.00,+18.00,+79.00,-2.00,-5.00,-98.00,+5.00,-72.00,-9.00,-59.00,+37.00,-3.00,+75.00,+102.00,+127.00,+6.00
+19.00,-31.00,-46.00,-8.00,-5.00,+36.00,+10.00,+26.00,+51.00,+40.00,+11.00,+16.00,+71.00,-29.00,-46.00,-128.00
-25.00,-37.00,-44.00,+14.00,+0.00,-103.00,-6.00,-128.00,-1.00,+9.00,-9.00,-1.00,+47.00,-61.00,+9.00,+54.00
+7.00,+32.00,+20.00,-14.00,-19.00,+68.00,-9.00,-59.00,-11.00,-28.00,-30.00,-6.00,+12.00,-16.00,+14.00,-40.00
-52.00,-115.00,-6.00,-1.00,-12.00,-19.00,-81.00,-44.00,+64.00,+86.00,+73.00,+15.00,+0.00,+5.00,+7.00,+53.00
+44.00,+38.00,+0.00,+4.00,+7.00,+47.00,+16.00,+80.00,-6.00,-34.00,-46.00,-25.00,-104.00,+16.00,-66.00,+102.00
-19.00,+31.00,+35.00,-9.00,+4.00,+116.00,+36.00,-60.00,+75.00,+56.00,+49.00,+18.00,+66.00,+47.00,-18.00,-62.00
-95.00,+40.00,+32.00,-11.00,-10.00,-46.00,-27.00,-104.00,+83.00,-56.00,-45.00,+2.00,+56.00,-59.00,-101.00,-8.00
-13.00,-55.00,-49.00,+3.00,+1.00,-29.00,-16.00,+65.00,+14.00,-41.00,+17.00,-2.00,+28.00,+49.00,+84.00,-37.00
-35.00,-116.00,-33.00,-4.00,-6.00,-52.00,-15.00,+9.00,+27.00,+76.00,+37.00,+6.00,-107.00,-88.00,-47.00,+30.00
+28.00,+13.00,+39.00,-6.00,-12.00,-41.00,-43.00,-11.00,+8.00,-32.00,-32.00,+1.00,-1.00,+30.00,-90.00,+20.00
+25.00,-27.00,-43.00,+10.00,+14.00,+26.00,+8.00,-10.00,-32.00,+100.00,+72.00,+15.00,-7.00,+32.00,-39.00,-21.00
-36.00,+53.00,+56.00,-8.00,-9.00,+38.00,+15.00,-74.00,-59.00,-59.00,-15.00,-3.00,-75.00,+12.00,-67.00,-102.00
+4.00,-27.00,-5.00,-6.00,-13.00,+8.00,-49.00,+71.00,-59.00,+10.00,-43.00,-12.00,+17.00,-92.00,+6.00,+23.00
-35.00,-29.00,-22.00,+9.00,+2.00,-14.00,+21.00,+33.00,-43.00,+28.00,-5.00,-10.00,+9.00,-36.00,-66.00,-53.00
-14.00,+26.00,-21.00,-13.00,+3.00,+0.00,-33.00,-45.00,-39.00,+51.00,+31.00,+33.00,+78.00,-10.00,+6.00,-81.00
+36.00,+6.00,-23.00,+7.00,+16.00,+70.00,+87.00,+127.00,-8.00,-112.00,-10.00,-5.00,-122.00,-82.00,+75.00,-71.00
-50.00,+26.00,-1.00,+2.00,-6.00,-88.00,+19.00,-85.00,-42.00,+24.00,-22.00,+3.00,+98.00,+89.00,-41.00,+50.00
-34.00,+46.00,+20.00,-6.00,-1.00,+78.00,-30.00,-61.00,+50.00,+74.00,+29.00,+10.00,+14.00,-5.00,+119.00,+19.00
+20.00,-103.00,-32.00,+5.00,+8.00,-46.00,+44.00,+104.00,-23.00,-55.00,-38.00,-14.00,+21.00,+3.00,-78.00,-2.00
+81.00,+74.00,-8.00,-2.00,-3.00,-20.00,+6.00,+57.00,-8.00,+109.00,+60.00,+5.00,-65.00,-35.00,-73.00,+60.00
+69.00,-8.00,-1.00,+1.00,+2.00,+62.00,+49.00,-16.00,+19.00,-107.00,-91.00,-7.00,+0.00,+20.00,+23.00,+57.00
+16.00,+48.00,+43.00,+0.00,-9.00,-110.00,-84.00,-97.00,-78.00,+10.00,+42.00,-23.00,+72.00,+119.00,+15.00,+40.00
+98.00,-63.00,+61.00,+5.00,+31.00,+75.00,+60.00,+127.00,+24.00,-23.00,-34.00,+10.00,-75.00,-93.00,-30.00,+0.00
+37.00,+64.00,-57.00,+2.00,-7.00,-41.00,+25.00,-77.00,+5.00,+18.00,-18.00,-9.00,-31.00,-20.00,+18.00,-6.00
+88.00,+6.00,-72.00,+9.00,+2.00,+28.00,-32.00,-17.00,+43.00,+51.00,+82.00,+19.00,+47.00,+59.00,+20.00,-109.00
+88.00,-13.00,+98.00,-1.00,+16.00,-46.00,+2.00,+78.00,-25.00,-97.00,-27.00,-11.00,-58.00,-22.00,+99.00,-1.00
-112.00,-16.00,-22.00,-7.00,-17.00,+55.00,-16.00,+33.00,+32.00,-25.00,-17.00,-33.00,-5.00,+44.00,+63.00,+43.00
-20.00,+55.00,-10.00,-3.00,+1.00,-71.00,-24.00,+41.00,-48.00,+39.00,-40.00,-8.00,-28.00,-40.00,-110.00,+46.00
+8.00,+33.00,+53.00,+14.00,+2.00,+21.00,+23.00,-25.00,-30.00,+44.00,+89.00,+14.00,-83.00,+29.00,+123.00,-24.00
-118.00,-105.00,-128.00,-7.00,-1.00,-4.00,-12.00,-24.00,+23.00,+20.00,-63.00,-4.00,-5.00,-84.00,-18.00,-116.00
+105.00,+126.00,+62.00,+7.00,-5.00,-84.00,-21.00,+43.00,-20.00,+27.00,+33.00,-12.00,+17.00,+11.00,-86.00,+23.00
-69.00,+1.00,+11.00,-15.00,-28.00,-35.00,-57.00,-98.00,+68.00,+18.00,-25.00,-5.00,-49.00,-71.00,-90.00,-43.00
+19.00,-5.00,+35.00,+17.00,+58.00,+32.00,+40.00,+22.00,-44.00,-30.00,-66.00,-21.00,+28.00,+21.00,+66.00,+15.00
-33.00,-14.00,-80.00,-15.00,-17.00,-40.00,+8.00,-56.00,+10.00,-7.00,+55.00,+5.00,+42.00,+37.00,+44.00,+68.00
+19.00,-48.00,+33.00,+3.00,+4.00,+43.00,+13.00,-11.00,+1.00,+49.00,+1.00,+18.00,-21.00,-50.00,+127.00,+61.00
-72.00,-3.00,+74.00,-7.00,-6.00,-26.00,-19.00,-124.00,+13.00,-71.00,-7.00,-2.00,+127.00,+11.00,-79.00,+46.00
+79.00,-47.00,+4.00,-14.00,-24.00,-108.00,-20.00,-92.00,-33.00,+10.00,-18.00,-6.00,-121.00,-69.00,-63.00,-110.00
-80.00,+93.00,+29.00,+0.00,+0.00,-67.00,-8.00,-61.00,-45.00,+0.00,+12.00,-5.00,+127.00,-3.00,-49.00,-81.00
-44.00,-62.00,-89.00,-5.00,+5.00,+23.00,-10.00,+28.00,-5.00,-30.00,-17.00,-6.00,-115.00,+33.00,-78.00,+5.00
+93.00,+13.00,+25.00,+9.00,-1.00,-51.00,+32.00,-14.00,+7.00,+127.00,+127.00,+4.00,+75.00,+112.00,+127.00,+0.00
-128.00,-19.00,+17.00,-14.00,-17.00,-37.00,-56.00,-128.00,+3.00,-128.00,-87.00,-7.00,-20.00,-68.00,-5.00,+11.00
+22.00,-37.00,+10.00,-4.00,+18.00,+27.00,+34.00,-7.00,-19.00,+57.00,-37.00,+3.00,+68.00,+53.00,-37.00,-30.00
-54.00,+53.00,+9.00,-2.00,-30.00,-11.00,-12.00,-98.00,-14.00,-47.00,+98.00,+3.00,+23.00,-2.00,+39.00,+48.00
+68.00,-39.00,-63.00,+8.00,+12.00,+116.00,+36.00,+30.00,-19.00,+14.00,-86.00,-1.00,-59.00,-82.00,-91.00,+72.00
-76.00,+29.00,-38.00,+3.00,+4.00,-37.00,-21.00,+24.00,-12.00,-4.00,-15.00,-8.00,-3.00,-21.00,+37.00,-20.00
+108.00,+19.00,+41.00,+0.00,-28.00,-83.00,+13.00,+109.00,+3.00,+72.00,+44.00,+6.00,-3.00,+70.00,+25.00,-14.00
-80.00,+96.00,+22.00,-5.00,+16.00,+21.00,-17.00,-128.00,+73.00,-18.00,-10.00,+14.00,-3.00,+55.00,-20.00,-19.00
-84.00,-41.00,-37.00,-8.00,-24.00,-103.00,-55.00,-99.00,+0.00,-9.00,+15.00,+9.00,+19.00,-28.00,-79.00,+32.00
-15.00,-15.00,-6.00,+2.00,+15.00,+66.00,+33.00,-21.00,+35.00,+9.00,+3.00,+22.00,+18.00,-14.00,+58.00,-41.00
-15.00,-72.00,-111.00,+7.00,+1.00,-2.00,-16.00,-12.00,+20.00,-9.00,+67.00,+16.00,-84.00,+2.00,+21.00,-25.00
+76.00,+59.00,+112.00,-15.00,-14.00,-128.00,-37.00,+41.00,+38.00,-59.00,-105.00,-16.00,+16.00,-21.00,-27.00,+72.00
+47.00,-8.00,-58.00,+14.00,+14.00,+69.00,+85.00,+104.00,+27.00,-13.00,-6.00,-15.00,-108.00,-16.00,+74.00,-80.00
-36.00,-35.00,+53.00,-17.00,-23.00,-41.00,-34.00,+71.00,+28.00,-103.00,+11.00,+4.00,-11.00,+46.00,-28.00,+33.00
+80.00,-2.00,-31.00,+16.00,+3.00,-53.00,+46.00,+91.00,-20.00,+13.00,+1.00,-6.00,+92.00,+7.00,+80.00,+45.00
-45.00,-54.00,+19.00,-7.00,+0.00,+46.00,+12.00,-128.00,+5.00,+41.00,+33.00,+3.00,-29.00,-37.00,+48.00,-109.00
-1.00,-3.00,-50.00,+1.00,-4.00,-111.00,-93.00,+50.00,+32.00,-27.00,+36.00,-7.00,-49.00,-32.00,-8.00,-72.00
-15.00,-21.00,+2.00,+6.00,+9.00,-8.00,+44.00,-96.00,+14.00,+105.00,+17.00,-25.00,-54.00,+25.00,-9.00,+1.00
-89.00,+34.00,+11.00,+0.00,+3.00,-8.00,-28.00,-112.00,-10.00,-64.00,-76.00,-22.00,-37.00,-103.00,-2.00,+51.00
+76.00,-13.00,-45.00,+14.00,+18.00,+79.00,+65.00,+87.00,-41.00,-47.00,+27.00,+14.00,-19.00,+66.00,+14.00,-105.00
-28.00,-8.00,+6.00,-6.00,-8.00,-29.00,-34.00,+48.00,-100.00,-23.00,+2.00,+11.00,+56.00,-24.00,-16.00,+109.00
+67.00,+20.00,+15.00,+0.00,+6.00,+49.00,+24.00,+51.00,-66.00,+67.00,-10.00,-6.00,+1.00,+78.00,-35.00,+17.00
+61.00,-75.00,+6.00,-1.00,+0.00,-16.00,+16.00,+55.00,-39.00,-18.00,-26.00,-4.00,+31.00,-35.00,+26.00,+2.00
-47.00,+106.00,+16.00,-6.00,-8.00,-54.00,-48.00,-77.00,-35.00,+3.00,-11.00,-20.00,-83.00,-5.00,+24.00,-8.00
-65.00,-36.00,+20.00,-2.00,+12.00,+57.00,+3.00,-63.00,+28.00,+22.00,+41.00,+18.00,+1.00,+108.00,+123.00,-3.00
-88.00,-44.00,-59.00,+1.00,-10.00,-117.00,-64.00,-79.00,+32.00,-14.00,+22.00,+10.00,-30.00,-94.00,-10.00,-21.00
+88.00,+31.00,+6.00,+7.00,+20.00,+26.00,+98.00,+39.00,+35.00,+34.00,-11.00,+3.00,-82.00,+8.00,-128.00,-14.00
+23.00,-42.00,+21.00,-2.00,-15.00,-128.00,-13.00,+80.00,-10.00,+23.00,-11.00,-3.00,+107.00,-10.00,+47.00,-60.00
-96.00,+15.00,+21.00,-17.00,+11.00,+109.00,+12.00,-65.00,-29.00,-17.00,-31.00,+2.00,-17.00,-45.00,-56.00,-75.00
+76.00,-20.00,-7.00,-2.00,-19.00,-81.00,-16.00,+49.00,+17.00,-46.00,-11.00,-12.00,+57.00,+0.00,+27.00,+68.00
-58.00,+67.00,-22.00,+4.00,+20.00,+6.00,-24.00,-45.00,-43.00,-52.00,-35.00,-11.00,-61.00,-49.00,+108.00,+13.00
-119.00,-20.00,+2.00,-8.00,-35.00,-73.00,-24.00,-91.00,+74.00,-41.00,-3.00,+1.00,+109.00,+4.00,+2.00,-18.00
+43.00,+11.00,+49.00,+7.00,+10.00,+1.00,+45.00,+95.00,+20.00,+45.00,-12.00,-11.00,-20.00,+33.00,-67.00,-6.00
-71.00,-11.00,+2.00,-7.00,+2.00,+86.00,+6.00,-12.00,-7.00,+52.00,+49.00,+13.00,+45.00,+89.00,+32.00,+33.00
-98.00,-33.00,-26.00,-3.00,-6.00,+5.00,-63.00,-97.00,+8.00,-6.00,+15.00,+4.00,+81.00,-77.00,-105.00,-50.00
+18.00,-88.00,-31.00,-2.00,+11.00,-4.00,+18.00,+122.00,-9.00,-45.00,+7.00,-12.00,+52.00,+115.00,+70.00,+66.00
+41.00,-18.00,-24.00,+5.00,-3.00,+26.00,-17.00,-13.00,+17.00,+77.00,-28.00,+0.00,+68.00,-73.00,+40.00,+49.00
-72.00,+54.00,+34.00,+1.00,-11.00,-117.00,+13.00,-77.00,-26.00,-97.00,-5.00,+4.00,+85.00,+9.00,-50.00,-35.00
+107.00,+20.00,-3.00,+2.00,+23.00,+6.00,+38.00,+71.00,+29.00,+99.00,+18.00,+0.00,-115.00,-44.00,+6.00,+23.00
-99.00,+8.00,+30.00,-21.00,-33.00,-46.00,-8.00,-29.00,-24.00,-33.00,+16.00,-3.00,+42.00,+4.00,-49.00,+47.00
+71.00,+9.00,+4.00,+7.00,+14.00,-128.00,-20.00,-118.00,+40.00,-46.00,-14.00,-1.00,-13.00,-8.00,+22.00,-30.00
+90.00,+51.00,+31.00,+1.00,-4.00,+71.00,+25.00,+101.00,-65.00,+51.00,+25.00,+7.00,+80.00,+27.00,-101.00,-39.00
-97.00,-45.00,-6.00,-6.00,-9.00,+64.00,+17.00,-119.00,+32.00,+87.00,+65.00,+8.00,-97.00,+51.00,+61.00,-69.00
-30.00,+6.00,-33.00,+4.00,-1.00,-50.00,-36.00,-57.00,+17.00,+7.00,-41.00,-13.00,+80.00,-33.00,+91.00,-69.00
+4.00,-55.00,-14.00,-5.00,-16.00,+66.00,+85.00,+83.00,-25.00,-80.00,-42.00,-4.00,+3.00,+11.00,+59.00,-18.00
-46.00,+16.00,+14.00,+2.00,-8.00,-118.00,-84.00,-120.00,+30.00,+23.00,-3.00,+1.00,-32.00,-20.00,-1.00,-5.00
+26.00,-4.00,+16.00,-1.00,+0.00,+98.00,+25.00,+75.00,+5.00,-39.00,-19.00,-4.00,+89.00,+50.00,-16.00,-31.00
+97.00,+65.00,+9.00,+3.00,+13.00,+27.00,+4.00,+85.00,-20.00,+37.00,+25.00,+13.00,-128.00,-42.00,+40.00,+1.00
-36.00,-16.00,-45.00,+2.00,-5.00,-44.00,-41.00,-66.00,+1.00,+88.00,+50.00,+3.00,+22.00,+2.00,+50.00,-20.00
-20.00,-9.00,-25.00,-2.00,-4.00,+12.00,-20.00,-31.00,-2.00,-91.00,-69.00,-12.00,-2.00,+84.00,-19.00,-13.00
-109.00,-28.00,+77.00,-6.00,-12.00,-41.00,+1.00,-78.00,-29.00,-19.00,+16.00,+9.00,-90.00,-126.00,-58.00,+78.00
+83.00,-56.00,-35.00,+13.00,-3.00,-8.00,+32.00,+37.00,-37.00,-34.00,+19.00,+5.00,+55.00,+53.00,-52.00,+32.00
-122.00,+17.00,-17.00,-2.00,+8.00,-50.00,-58.00,-56.00,+4.00,-59.00,-53.00,-5.00,-4.00,-24.00,+26.00,+9.00
+52.00,+38.00,+9.00,+1.00,+14.00,+88.00,+63.00,-34.00,+9.00,+19.00,-13.00,-9.00,-53.00,-14.00,-64.00,+26.00
-85.00,-19.00,+5.00,-8.00,-15.00,-63.00,-43.00,-95.00,+32.00,-6.00,-25.00,-1.00,+127.00,+84.00,-19.00,+18.00
+3.00,+5.00,-3.00,+3.00,+12.00,+53.00,-11.00,-62.00,-19.00,-35.00,-27.00,+1.00,-45.00,-52.00,-76.00,-35.00
-16.00,-17.00,+30.00,-4.00,-18.00,-62.00,-30.00,-112.00,-19.00,+12.00,+19.00,+3.00,-2.00,-1.00,+43.00,-36.00
+52.00,-60.00,-46.00,+8.00,+29.00,+7.00,+29.00,+15.00,-29.00,+4.00,+13.00,-8.00,+6.00,-79.00,-78.00,-8.00
-7.00,-17.00,-41.00,-2.00,+15.00,+87.00,-4.00,+12.00,+66.00,+83.00,+77.00,+7.00,+82.00,+64.00,+36.00,+3.00
+57.00,+64.00,+57.00,+1.00,-5.00,+11.00,+1.00,-60.00,-60.00,-91.00,-95.00,-16.00,-48.00,-12.00,+86.00,-5.00
-87.00,-24.00,-2.00,-3.00,-3.00,-17.00,-32.00,-50.00,+50.00,+16.00,-2.00,-7.00,+17.00,+33.00,-96.00,-5.00
-31.00,+1.00,-23.00,-10.00,-19.00,-65.00,+23.00,-47.00,+28.00,+28.00,+86.00,+14.00,-80.00,-33.00,-5.00,+29.00
+34.00,+37.00,+39.00,+2.00,+0.00,-28.00,-38.00,+19.00,-19.00,-85.00,-90.00,-7.00,+32.00,-7.00,+29.00,-60.00
+59.00,-41.00,-6.00,+0.00,+10.00,+86.00,+6.00,+23.00,-43.00,+37.00,-2.00,+2.00,-6.00,+31.00,-108.00,+19.00
-108.00,-45.00,+1.00,-5.00,-24.00,-76.00,-36.00,-80.00,+32.00,+63.00,+55.00,+5.00,+2.00,-8.00,+73.00,-17.00
+77.00,+68.00,+28.00,-1.00,+35.00,+92.00,+68.00,+121.00,+10.00,-24.00,-42.00,-8.00,-39.00,-26.00,+90.00,-9.00
-48.00,-19.00,-16.00,+3.00,+1.00,-85.00,-10.00,-31.00,-46.00,-51.00,+10.00,+4.00,-76.00,-36.00,+20.00,+36.00
-24.00,-17.00,-6.00,-10.00,-4.00,+24.00,+21.00,+7.00,+28.00,+77.00,+15.00,+4.00,+34.00,-9.00,-86.00,-22.00
-15.00,-80.00,-65.00,-2.00,-5.00,-58.00,+13.00,+37.00,-32.00,-80.00,-41.00,-4.00,+16.00,+2.00,-26.00,+3.00
-11.00,+90.00,+104.00,-8.00,-5.00,+42.00,-32.00,-31.00,+32.00,+21.00,+11.00,-2.00,+91.00,+27.00,+27.00,-30.00
+65.00,+10.00,-34.00,-2.00,-10.00,-18.00,+28.00,+21.00,+20.00,-10.00,+38.00,+12.00,+18.00,-3.00,+52.00,+45.00
-123.00,+4.00,+8.00,+2.00,+10.00,-39.00,-22.00,-87.00,-31.00,+13.00,-45.00,-3.00,-8.00,-1.00,+34.00,+45.00
+71.00,-17.00,+16.00,-2.00,-3.00,+31.00,+18.00,+33.00,-11.00,-60.00,-24.00,-2.00,+44.00,+40.00,+81.00,+0.00
-82.00,+35.00,-25.00,-3.00,-25.00,-70.00,-43.00,-77.00,+25.00,+8.00,+8.00,+12.00,-24.00,-68.00,+11.00,+10.00
+82.00,-22.00,-52.00,+6.00,+16.00,+77.00,+41.00,+124.00,-50.00,-18.00,-27.00,-19.00,-77.00,-16.00,+29.00,-23.00
-13.00,-20.00,+19.00,-11.00,-11.00,-71.00,-52.00,-117.00,+24.00,+25.00,+16.00,-6.00,+48.00,+7.00,-22.00,+6.00
-13.00,+14.00,+19.00,+1.00,+13.00,+60.00,+22.00,+22.00,+53.00,+52.00,+31.00,+4.00,-45.00,-68.00,-67.00,+27.00
+7.00,-25.00,-27.00,-1.00,-10.00,-82.00,-26.00,+46.00,-56.00,-20.00,-12.00,-2.00,+86.00,+62.00,+47.00,+25.00
-33.00,+49.00,+31.00,+7.00,-4.00,+6.00,-1.00,-63.00,+4.00,-52.00,-29.00,+2.00,-85.00,-10.00,-24.00,-60.00
+9.00,-58.00,-62.00,-9.00,-15.00,-1.00,-3.00,+57.00,+11.00,+13.00,+53.00,+10.00,-31.00,-31.00,+15.00,+15.00
+29.00,-5.00,+5.00,-3.00,-8.00,-79.00,-15.00,-64.00,+11.00,-20.00,-16.00,-11.00,-18.00,+4.00,+5.00,+10.00
-3.00,-18.00,+1.00,-1.00,+3.00,+19.00,-11.00,-4.00,-8.00,-33.00,-54.00,-8.00,+23.00,-17.00,+54.00,-57.00
-38.00,+40.00,+31.00,-3.00,-18.00,-98.00,-10.00,-30.00,+6.00,+33.00,+15.00,-3.00,+0.00,+75.00,+1.00,+45.00
-52.00,-68.00,+12.00,+7.00,+3.00,-10.00,+12.00,-14.00,+33.00,-2.00,+22.00,+6.00,-37.00,-32.00,+19.00,-2.00
+70.00,+67.00,-20.00,-5.00,+22.00,+127.00,+17.00,-38.00,+18.00,+48.00,+44.00,+11.00,+95.00,-9.00,+32.00,+7.00
-22.00,+36.00,-12.00,-2.00,-12.00,-111.00,-36.00,+114.00,-25.00,-8.00,-15.00,+4.00,-37.00,+1.00,+50.00,+0.00
-25.00,-92.00,-33.00,-5.00,+10.00,-51.00,+25.00,-28.00,-13.00,+31.00,+33.00,-7.00,-37.00,-57.00,-50.00,+79.00
+39.00,+62.00,+31.00,-1.00,-11.00,-27.00,-13.00,-90.00,-10.00,-44.00,-61.00,-12.00,+17.00,+32.00,+48.00,-95.00
-26.00,-9.00,-7.00,+5.00,+9.00,-3.00,+13.00,+23.00,-59.00,-26.00,+27.00,+8.00,+8.00,+30.00,+20.00,+25.00
+12.00,-98.00,+12.00,-3.00,+0.00,+84.00,-5.00,-63.00,+60.00,+47.00,-27.00,-6.00,-56.00,-2.00,-128.00,-36.00
-3.00,-5.00,+15.00,-5.00,-14.00,-86.00,-8.00,-13.00,-3.00,+30.00,+23.00,+7.00,+127.00,+25.00,+58.00,+11.00
-93.00,+42.00,+1.00,-6.00,-3.00,+40.00,-30.00,-29.00,+43.00,+1.00,+11.00,+5.00,-97.00,+6.00,+15.00,+38.00
+26.00,-13.00,+6.00,-2.00,-8.00,+38.00,+34.00,+5.00,-12.00,-46.00,-46.00,-9.00,-74.00,-12.00,-90.00,+4.00
-81.00,-38.00,-51.00,-2.00,-2.00,-59.00,+9.00,-25.00,-35.00,+18.00,+6.00,-9.00,+45.00,+8.00,+38.00,-4.00
+100.00,-77.00,+3.00,+1.00,+9.00,+86.00,+29.00,+94.00,-6.00,+14.00,+7.00,+2.00,-60.00,+90.00,-74.00,-32.00
-46.00,+78.00,+30.00,+7.00,+9.00,-16.00,-11.00,-53.00,-1.00,-42.00,-3.00,-6.00,+4.00,-110.00,-84.00,-5.00
+78.00,-47.00,-59.00,-5.00,-1.00,+34.00,+47.00,+82.00,-24.00,+79.00,+4.00,+7.00,-15.00,-15.00,-20.00,-77.00
-121.00,+23.00,+48.00,-9.00,-9.00,+42.00,-23.00,-128.00,+46.00,-24.00,+28.00,-3.00,+110.00,+48.00,-48.00,+61.00
-30.00,+30.00,-6.00,+4.00,-2.00,+11.00,-20.00,+32.00,-22.00,-59.00,-38.00,-9.00,+2.00,-73.00,+18.00,-41.00
+56.00,-58.00,-28.00,-1.00,-7.00,-48.00,+43.00,+43.00,+11.00,+20.00,+39.00,+0.00,+85.00,+79.00,+47.00,+4.00
+23.00,+127.00,+18.00,+4.00,+7.00,+0.00,-22.00,-50.00,-19.00,-21.00,-9.00,-1.00,-7.00,-21.00,+14.00,-18.00
-44.00,-73.00,+7.00,-4.00,-7.00,-95.00,-22.00,-37.00,-27.00,+29.00,-25.00,+5.00,+62.00,+26.00,+12.00,-2.00
+8.00,+2.00,+12.00,-3.00,+5.00,+90.00,+10.00,-58.00,+7.00,+34.00,+31.00,-5.00,-2.00,-5.00,-55.00,+1.00
+4.00,-9.00,-28.00,+3.00,+10.00,+60.00,+15.00,+103.00,-8.00,+3.00,+4.00,-1.00,+98.00,+1.00,+75.00,+13.00
-3.00,-43.00,+5.00,+1.00,-2.00,-71.00,-14.00,+18.00,-3.00,-12.00,-30.00,-11.00,-34.00,+5.00,+1.00,+37.00
-3.00,+33.00,+8.00,-1.00,+0.00,-28.00,+1.00,-4.00,+31.00,+26.00,+25.00,+1.00,-98.00,-54.00,+9.00,-25.00
+65.00,+43.00,-13.00,+5.00,+17.00,+94.00,-15.00,-8.00,-60.00,-64.00,-2.00,+1.00,-66.00,+29.00,+40.00,+0.00
+43.00,-69.00,-11.00,-1.00,-10.00,-110.00,+5.00,+5.00,-10.00,+0.00,-25.00,+3.00,-51.00,+6.00,-77.00,-23.00
-7.00,+64.00,+41.00,-5.00,-4.00,+50.00,-1.00,+40.00,-5.00,+29.00,-13.00,+0.00,+32.00,-11.00,+38.00,+13.00
-37.00,-54.00,+15.00,+2.00,+1.00,+6.00,+21.00,-63.00,+6.00,+13.00,+25.00,+8.00,+42.00,-25.00,+43.00,-16.00
-17.00,-9.00,+34.00,+4.00,-17.00,-122.00,-24.00,+42.00,+45.00,-33.00,-42.00,-13.00,-29.00,-3.00,-54.00,-5.00
-48.00,+11.00,-22.00,+10.00,+1.00,+51.00,+10.00,-33.00,-57.00,+12.00,+15.00,+0.00,-90.00,-74.00,+39.00,+115.00
-10.00,-23.00,-8.00,-7.00,-15.00,-48.00,-29.00,-51.00,+7.00,-21.00,-14.00,-4.00,-19.00,+11.00,-45.00,-28.00
+43.00,+13.00,-43.00,-5.00,-7.00,-92.00,+2.00,+34.00,+18.00,+22.00,+42.00,-2.00,+21.00,+9.00,-7.00,-6.00
+30.00,-37.00,+2.00,-2.00,+7.00,+3.00,+6.00,-16.00,-3.00,-47.00,-41.00,-7.00,+63.00,+71.00,-63.00,+127.00
-37.00,+52.00,-6.00,-4.00,+5.00,-68.00,-7.00,+1.00,-8.00,+19.00,-21.00,-2.00,-13.00,-79.00,-30.00,-18.00
-45.00,+17.00,+23.00,+6.00,-3.00,+35.00,-12.00,-97.00,-39.00,-17.00,+15.00,+4.00,+108.00,+58.00,-49.00,+44.00
+127.00,-11.00,+7.00,+2.00,+15.00,+9.00,+14.00,+111.00,+80.00,+9.00,+5.00,+5.00,+38.00,-28.00,+10.00,-57.00
-36.00,+53.00,-27.00,-3.00,-10.00,-20.00,+8.00,+35.00,+8.00,+14.00,-13.00,-3.00,+21.00,-9.00,+80.00,-47.00
-66.00,-55.00,-38.00,-1.00,+1.00,-17.00,-2.00,-31.00,-35.00,-1.00,+16.00,+4.00,+77.00,+19.00,-81.00,-79.00
-23.00,-33.00,+15.00,-4.00,+0.00,+42.00,+16.00,+84.00,-27.00,+3.00,-6.00,-3.00,-67.00,-16.00,-10.00,-24.00
-4.00,-10.00,-4.00,+1.00,+3.00,+1.00,-28.00,-122.00,-3.00,+24.00,+23.00,+4.00,-12.00,+7.00,+46.00,-10.00
+109.00,-4.00,+5.00,+2.00,+0.00,+57.00,+32.00,+90.00,-47.00,-34.00,-62.00,-11.00,+6.00,-42.00,-14.00,-18.00
-75.00,-81.00,-61.00,-7.00,-15.00,-7.00,-23.00,-55.00,+59.00,-21.00,-9.00,-8.00,-35.00,+25.00,+10.00,+51.00
+50.00,+56.00,+75.00,-4.00,-11.00,-121.00,-9.00,+59.00,+0.00,+25.00,+37.00,+15.00,+51.00,+36.00,+36.00,-26.00
-44.00,-67.00,-23.00,+10.00,+21.00,+87.00,+28.00,-7.00,-42.00,-91.00,-48.00,-11.00,+8.00,+74.00,+9.00,+19.00
-44.00,+119.00,+14.00,-6.00,-6.00,-52.00,-35.00,-47.00,+24.00,+61.00,+18.00,+2.00,-85.00,-109.00,-40.00,-20.00
+9.00,-73.00,+21.00,+2.00,-12.00,-97.00,+22.00,+11.00,-85.00,-59.00,+10.00,-1.00,+21.00,+2.00,+26.00,-35.00
-25.00,+26.00,-25.00,+3.00,-4.00,-69.00,-42.00,-36.00,+61.00,+21.00,+18.00,+10.00,-13.00,+37.00,+9.00,+44.00
+44.00,-44.00,-11.00,+6.00,+14.00,+85.00,+28.00,+47.00,-14.00,-112.00,-100.00,-20.00,-103.00,-49.00,-29.00,+29.00
-35.00,-5.00,-10.00,-7.00,-9.00,+21.00,+3.00,-59.00,-9.00,+27.00,+33.00,+6.00,+83.00,+22.00,+34.00,+39.00
+32.00,-55.00,+0.00,+2.00,+2.00,-22.00,-21.00,-21.00,+45.00,+39.00,+25.00,-5.00,-85.00,+19.00,+53.00,-20.00
+8.00,+64.00,-10.00,-4.00,+4.00,+78.00,+22.00,-23.00,+10.00,-1.00,+23.00,+6.00,+85.00,+66.00,+19.00,-54.00
+4.00,-24.00,+21.00,-8.00,-20.00,-65.00,-29.00,+7.00,-53.00,+1.00,-5.00,+0.00,-66.00,-112.00,-52.00,+94.00
-11.00,+40.00,-5.00,+2.00,-1.00,+29.00,+6.00,-100.00,+18.00,+2.00,+35.00,+8.00,+24.00,+24.00,-11.00,+48.00
+55.00,-12.00,+28.00,-3.00,-1.00,+54.00,+7.00,+93.00,+12.00,+55.00,-18.00,+0.00,+2.00,-26.00,-65.00,+25.00
+14.00,-128.00,-54.00,+0.00,+21.00,+34.00,+7.00,+38.00,-9.00,-54.00,-21.00,-4.00,-9.00,+43.00,+8.00,-58.00
+1.00,+127.00,+23.00,-1.00,-6.00,-10.00,-16.00,+90.00,-13.00,-28.00,-3.00,+1.00,+38.00,+33.00,-11.00,-93.00
+34.00,-108.00,-9.00,+1.00,+1.00,-102.00,-7.00,-19.00,+8.00,+35.00,+11.00,+1.00,+7.00,-33.00,+21.00,-70.00
+90.00,+75.00,+66.00,-8.00,+11.00,+71.00,+27.00,+21.00,+10.00,-4.00,+46.00,+8.00,-14.00,+29.00,+90.00,-41.00
-50.00,+16.00,-12.00,+0.00,-1.00,+52.00,+6.00,-31.00,-34.00,-46.00,-72.00,-19.00,-56.00,-21.00,-76.00,-67.00
+127.00,+8.00,-25.00,+2.00,-5.00,+10.00,+8.00,-63.00,+90.00,+36.00,+33.00,+8.00,+38.00,-17.00,-45.00,-48.00
-10.00,-31.00,-16.00,-3.00,-14.00,-96.00,-32.00,+60.00,+57.00,-3.00,+5.00,-3.00,-40.00,+0.00,+24.00,-18.00
-1.00,+12.00,-2.00,+1.00,+6.00,-1.00,-6.00,-66.00,+0.00,+23.00,-5.00,+1.00,+118.00,-20.00,+41.00,-34.00
-117.00,-63.00,+3.00,-8.00,-6.00,-47.00,-15.00,+6.00,-19.00,+7.00,+8.00,-2.00,-40.00,-12.00,+40.00,-2.00
-128.00,-4.00,-18.00,+5.00,+6.00,+33.00,+34.00,+24.00,-61.00,+77.00,+53.00,+3.00,+11.00,+17.00,+10.00,-13.00
-111.00,+98.00,+33.00,-9.00,-2.00,-65.00,-20.00,-65.00,-38.00,-83.00,-20.00,-2.00,+48.00,+39.00,-45.00,-32.00
+36.00,-40.00,+1.00,+3.00,+0.00,+42.00,+13.00,-50.00,-74.00,+19.00,-8.00,-3.00,-11.00,-26.00,+74.00,+23.00
-81.00,+1.00,-23.00,+3.00,+1.00,-49.00,+2.00,-1.00,+12.00,-48.00,-13.00,-7.00,-26.00,-57.00,+22.00,+26.00
-49.00,-50.00,+24.00,-3.00,+4.00,-14.00,-5.00,-32.00,-15.00,+43.00,+15.00,-5.00,-36.00,+25.00,+71.00,+122.00
+57.00,+71.00,+37.00,+3.00,-2.00,+64.00,+30.00,+58.00,-28.00,-26.00,+10.00,+7.00,-5.00,-41.00,+39.00,+35.00
-103.00,-23.00,-22.00,+3.00,+14.00,-72.00,-18.00,+16.00,+7.00,+45.00,+11.00,+2.00,-8.00,+110.00,-58.00,-26.00
+70.00,+62.00,+10.00,-1.00,+0.00,+22.00,+11.00,-23.00,+1.00,-69.00,-21.00,-3.00,+11.00,-88.00,+26.00,-25.00
-29.00,-5.00,-18.00,-2.00,-14.00,-26.00,+3.00,-15.00,+10.00,+18.00,+20.00,+4.00,+47.00,+62.00,-31.00,-101.00
-112.00,-83.00,-4.00,-2.00,+3.00,+4.00,-17.00,-63.00,+30.00,+58.00,-8.00,-5.00,-26.00,-30.00,+9.00,+44.00
+16.00,-14.00,-78.00,-9.00,-2.00,+108.00,+5.00,+7.00,+23.00,-40.00,-16.00,-5.00,+8.00,+1.00,-72.00,+115.00
+90.00,-2.00,+60.00,+1.00,-1.00,+27.00,+19.00,+36.00,+3.00,+88.00,+41.00,+0.00,-35.00,+5.00,-29.00,+127.00
+1.00,-33.00,-6.00,+1.00,+4.00,-77.00,-8.00,+58.00,-22.00,-48.00,-13.00,+2.00,-40.00,+20.00,-8.00,+64.00
-30.00,-27.00,+11.00,-7.00,-4.00,+25.00,+2.00,-61.00,+14.00,+20.00,+9.00,+9.00,+67.00,-31.00,+42.00,-76.00
+25.00,+50.00,-10.00,+6.00,-2.00,-5.00,+4.00,+15.00,+39.00,-6.00,-33.00,-11.00,-104.00,-32.00,-27.00,-89.00
+41.00,-45.00,-32.00,+2.00,-2.00,-37.00,-36.00,+11.00,+60.00,+31.00,+41.00,+2.00,+51.00,+15.00,-6.00,-114.00
+54.00,+25.00,-2.00,+0.00,+6.00,+42.00,+10.00,-2.00,-48.00,-34.00,-32.00,-7.00,+83.00,+45.00,+7.00,-72.00
+31.00,+29.00,+42.00,+3.00,+8.00,-15.00,+19.00,+78.00,-47.00,+17.00,+11.00,+8.00,-28.00,-12.00,-13.00,-67.00
+39.00,-18.00,+27.00,-6.00,-13.00,-49.00,-7.00,+30.00,-67.00,-6.00,+10.00,-2.00,+5.00,-16.00,+108.00,-19.00
-40.00,+14.00,-19.00,-1.00,+5.00,+33.00,-1.00,-85.00,-14.00,+43.00,+24.00,-5.00,-11.00,+9.00,-94.00,-70.00
+47.00,-12.00,+7.00,+3.00,-10.00,+6.00,+17.00,+64.00,-17.00,+36.00,-7.00,-6.00,-16.00,-33.00,+30.00,-58.00
+22.00,-32.00,-58.00,-2.00,+4.00,-26.00,+3.00,+53.00,+9.00,-66.00,-31.00,-4.00,+66.00,+49.00,+34.00,-36.00
+19.00,+0.00,+24.00,+0.00,+1.00,+83.00,+9.00,-19.00,+20.00,-8.00,-15.00,+0.00,+51.00,-2.00,-72.00,+36.00
-1.00,+27.00,+11.00,+6.00,+0.00,-39.00,-15.00,-22.00,-62.00,-49.00,-21.00,-6.00,-30.00,-34.00,-11.00,+63.00
+48.00,-36.00,-4.00,+0.00,+12.00,+28.00,-4.00,-35.00,-37.00,+19.00,-19.00,-1.00,+17.00,+37.00,+52.00,+47.00
-41.00,-15.00,-13.00,-1.00,-5.00,-28.00,+4.00,+33.00,-18.00,+45.00,+51.00,+1.00,-25.00,-48.00,-12.00,+24.00
-58.00,+31.00,+18.00,-3.00,-12.00,-59.00,-21.00,-45.00,+38.00,+54.00,+25.00,-1.00,-42.00,+6.00,-72.00,-15.00
+63.00,-40.00,-9.00,+6.00,+13.00,-15.00,+29.00,+83.00,+11.00,-24.00,-40.00,-9.00,+37.00,+11.00,+64.00,+27.00
-70.00,+55.00,-15.00,-2.00,-4.00,-30.00,-15.00,-39.00,+1.00,-30.00,-14.00,+1.00,-26.00,-6.00,-10.00,-22.00
+19.00,-45.00,-3.00,-3.00,+9.00,+98.00,-1.00,-32.00,+10.00,+4.00,+7.00,+3.00,-51.00,+15.00,+7.00,+29.00
-60.00,-22.00,-29.00,+1.00,-5.00,-42.00,-20.00,-73.00,+2.00,-4.00,+40.00,+8.00,+24.00,-12.00,+13.00,-18.00
+16.00,-39.00,+47.00,-11.00,-4.00,+46.00,+24.00,+26.00,+7.00,+3.00,-42.00,-2.00,+9.00,+69.00,+12.00,+26.00
-65.00,+22.00,-8.00,+1.00,-2.00,+14.00,-6.00,-49.00,-16.00,-78.00,-51.00,-12.00,+5.00,-31.00,+34.00,-28.00
-10.00,+6.00,+20.00,-7.00,-8.00,+13.00,+15.00,-39.00,+6.00,+8.00,-16.00,-5.00,+14.00,-28.00,-22.00,-6.00
+1.00,+26.00,-23.00,+7.00,-4.00,-66.00,-20.00,-8.00,-41.00,-28.00,-20.00,-4.00,-1.00,+17.00,+7.00,-22.00
-98.00,-24.00,-19.00,-2.00,-4.00,-27.00,+7.00,-75.00,-67.00,+59.00,+49.00,+11.00,-6.00,-24.00,-8.00,-2.00
+35.00,-42.00,-22.00,-4.00,-5.00,-12.00,+28.00,+34.00,+3.00,+6.00,+13.00,+2.00,-29.00,+31.00,-20.00,-13.00
+11.00,-14.00,+6.00,-5.00,-4.00,+30.00,-32.00,-63.00,-51.00,-37.00,-12.00,-3.00,+21.00,+8.00,-4.00,+9.00
-22.00,+52.00,+25.00,+0.00,-1.00,+26.00,+13.00,-16.00,+49.00,+3.00,+2.00,+1.00,+35.00,-12.00,-10.00,-19.00
+22.00,-27.00,-13.00,+2.00,+4.00,-6.00,-3.00,+101.00,+55.00,-5.00,+8.00,+6.00,+21.00,+9.00,+44.00,+4.00
-22.00,-3.00,-10.00,+4.00,-3.00,-18.00,-2.00,-8.00,+21.00,+23.00,+8.00,-2.00,-56.00,-26.00,-19.00,+25.00
+62.00,-40.00,-12.00,-4.00,-14.00,-18.00,-16.00,-36.00,+45.00,+10.00,+7.00,-11.00,-1.00,+22.00,-8.00,+8.00
+35.00,+69.00,+47.00,-4.00,+3.00,+57.00,-2.00,+30.00,+44.00,-1.00,-9.00,-7.00,+18.00,+13.00,+4.00,+5.00
-6.00,+22.00,+5.00,-1.00,-8.00,-59.00,+3.00,+1.00,+64.00,-10.00,-7.00,-7.00,+25.00,-71.00,-5.00,-40.00
-29.00,+54.00,+3.00,-3.00,-9.00,-12.00,+5.00,-35.00,+14.00,-5.00,+6.00,+6.00,+83.00,+56.00,-24.00,-45.00
-28.00,-98.00,-48.00,+8.00,+18.00,+61.00,+9.00,-19.00,+25.00,+17.00,+6.00,+11.00,-72.00,-69.00,-25.00,-124.00
+25.00,-28.00,+11.00,-3.00,-2.00,-34.00,-7.00,+40.00,-20.00,-13.00,-15.00,-6.00,+32.00,+35.00,+12.00,-72.00
-39.00,+74.00,+15.00,+3.00,+1.00,+14.00,+2.00,-33.00,+31.00,-21.00,-6.00,+15.00,-24.00,+34.00,+16.00,-43.00
-6.00,-14.00,-5.00,-2.00,-6.00,-9.00,-15.00,-10.00,-20.00,+17.00,+19.00,-42.00,+17.00,-69.00,-21.00,+67.00
-9.00,+19.00,+1.00,-3.00,-22.00,-38.00,-4.00,+14.00,-63.00,-8.00,+0.00,+2.00,-5.00,+46.00,+10.00,+127.00
-16.00,-42.00,-3.00,-3.00,+16.00,-1.00,+7.00,+2.00,-34.00,+41.00,-1.00,-5.00,+6.00,+5.00,+2.00,+93.00
-17.00,-27.00,-10.00,+6.00,+3.00,-23.00,-5.00,-12.00,-55.00,-62.00,-24.00,+0.00,+4.00,+1.00,-23.00,+122.00
+21.00,-10.00,+1.00,-1.00,-5.00,-23.00,-11.00,+19.00,-32.00,+11.00,+2.00,+16.00,-5.00,-15.00,-5.00,+119.00
+23.00,+15.00,+14.00,+2.00,+3.00,+13.00,+6.00,+33.00,-40.00,-11.00,-4.00,-1.00,+58.00,+33.00,-3.00,+109.00
+5.00,+11.00,-6.00,-2.00,-10.00,+21.00,-1.00,+14.00,+16.00,-18.00,-9.00,+16.00,-100.00,+16.00,-3.00,+34.00
+3.00,-23.00,-12.00,+0.00,-6.00,+9.00,-10.00,-6.00,-38.00,+24.00,+17.00,-5.00,-87.00,-36.00,+17.00,-89.00
+0.00,-4.00,+7.00,-2.00,+5.00,+54.00,-10.00,+6.00,-88.00,+18.00,+8.00,+11.00,-51.00,+7.00,-11.00,-128.00
-118.00,+41.00,+11.00,+3.00,-2.00,-57.00,-17.00,+8.00,-71.00,-17.00,-10.00,-27.00,-1.00,-11.00,-17.00,-91.00
+102.00,-7.00,-12.00,+3.00,+24.00,+73.00,+12.00,+13.00,-62.00,+10.00,+9.00,+17.00,-1.00,+39.00,+17.00,+3.00
+105.00,-9.00,-6.00,-5.00,-9.00,-41.00,-15.00,-9.00,+2.00,-14.00,-2.00,-33.00,-45.00,-33.00,+14.00,-19.00
-5.00,-11.00,-13.00,-1.00,+4.00,+4.00,-8.00,-6.00,+94.00,-7.00,+0.00,+5.00,+10.00,-16.00,-1.00,-73.00
-69.00,+46.00,+48.00,-2.00,-10.00,+14.00,+5.00,-7.00,+74.00,+18.00,+4.00,+18.00,-24.00,+5.00,+0.00,-122.00
-128.00,-3.00,-10.00,-5.00,-22.00,-24.00,+3.00,+24.00,+61.00,-8.00,-7.00,-9.00,+59.00,-10.00,+5.00,-127.00
-26.00,-9.00,+5.00,-4.00,+8.00,-39.00,+1.00,-3.00,-2.00,+9.00,+1.00,+0.00,+38.00,+31.00,+5.00,-109.00
+117.00,+7.00,+5.00,+2.00,-30.00,+17.00,+9.00,+17.00,+40.00,-5.00,-4.00,+8.00,-27.00,-22.00,-6.00,-53.00
+78.00,-7.00,-14.00,+5.00,+23.00,+2.00,+7.00,+14.00,+32.00,+5.00,-2.00,+1.00,-6.00,+4.00,-4.00,-28.00
+61.00,-16.00,-17.00,-2.00,-14.00,-27.00,-8.00,+16.00,-16.00,-21.00,-4.00,+4.00,-38.00,-37.00,-9.00,+37.00
+8.00,+6.00,+4.00,+0.00,+27.00,+30.00,+18.00,-11.00,-7.00,+5.00,-3.00,+5.00,+50.00,+6.00,-1.00,+52.00
-40.00,-2.00,-11.00,-7.00,-5.00,+0.00,-14.00,-28.00,+10.00,+9.00,+7.00,+32.00,-51.00,-21.00,-6.00,+36.00
+127.00,+12.00,+4.00,+4.00,+22.00,-19.00,+2.00,-17.00,+42.00,+5.00,+4.00,-40.00,-23.00,+25.00,-2.00,+19.00
+127.00,+4.00,+6.00,+0.00,+6.00,-18.00,+4.00,-34.00,+106.00,-14.00,-8.00,-41.00,+25.00,-13.00,-7.00,-5.00
-113.00,-19.00,-8.00,-5.00,-13.00,+19.00,+7.00,-8.00,+34.00,+8.00,+3.00,+8.00,+8.00,+1.00,+2.00,-6.00
-103.00,-15.00,+2.00,+0.00,+1.00,+3.00,-4.00,-5.00,-12.00,+5.00,+2.00,-31.00,+1.00,-4.00,+1.00,+2.00
-25.00,-27.00,-7.00,-1.00,-28.00,-14.00,-5.00,-18.00,-38.00,+6.00,-2.00,+19.00,-9.00,+10.00,-1.00,-1.00
+65.00,+39.00,+0.00,-1.00,+11.00,-6.00,+7.00,+17.00,-64.00,-6.00,-3.00,+21.00,-3.00,-26.00,-6.00,-22.00
+127.00,-13.00,-9.00,-3.00,-11.00,-11.00,-5.00,-13.00,-17.00,-1.00,+3.00,-23.00,+6.00,+17.00,+4.00,+1.00
+127.00,+9.00,+11.00,+0.00,+3.00,-5.00,+2.00,-5.00,-19.00,-1.00,+3.00,+17.00,-14.00,-4.00,-2.00,+0.00
+101.00,-18.00,-6.00,-5.00,-15.00,-2.00,+0.00,-9.00,-13.00,-2.00,-3.00,-15.00,-11.00,+1.00,-2.00,+19.00
+36.00,+5.00,-4.00,-2.00,-38.00,-23.00,+0.00,-19.00,-8.00,-5.00,-4.00,-2.00,-8.00,-14.00,-2.00,+10.00
+18.00,-1.00,+1.00,+4.00,+50.00,+17.00,-4.00,-1.00,+16.00,+4.00,+2.00,+19.00,+55.00,+20.00,+5.00,+59.00
-18.00,-6.00,+9.00,+5.00,+58.00,+3.00,+1.00,+0.00,-12.00,-4.00,-4.00,-7.00,-33.00,-13.00,+0.00,+42.00
-41.00,+2.00,-8.00,-1.00,-2.00,+1.00,+0.00,+10.00,+0.00,-1.00,+0.00,-2.00,+15.00,-2.00,-1.00,+42.00
-88.00,-4.00,+2.00,+2.00,+13.00,-3.00,+2.00,-8.00,+7.00,-4.00,-3.00,+2.00,+9.00,-4.00,+0.00,+85.00
-100.00,+2.00,+0.00,-5.00,-19.00,-4.00,-4.00,-2.00,-22.00,-4.00,+2.00,+3.00,+59.00,+8.00,-2.00,+78.00
-3.00,+1.00,+3.00,-5.00,-21.00,+3.00,+5.00,+0.00,+14.00,-1.00,-2.00,-7.00,-25.00,-9.00,-4.00,+45.00
+7.00,+4.00,-7.00,+0.00,+16.00,-13.00,-3.00,+5.00,+25.00,+4.00,-2.00,+7.00,+17.00,+5.00,-2.00,-6.00
-20.00,-5.00,+1.00,-3.00,-13.00,-13.00,-3.00,+0.00,-4.00,-3.00,-2.00,-4.00,-19.00,-6.00,-2.00,-31.00
-8.00,-11.00,-2.00,+0.00,+1.00,-4.00,-1.00,+0.00,-3.00,-3.00,-4.00,+5.00,+7.00,+2.00,+0.00,-49.00
-18.00,+3.00,-3.00,-3.00,-13.00,-3.00,-2.00,+4.00,+6.00,+0.00,+1.00,-7.00,+15.00,-3.00,-5.00,-53.00
-73.00,+5.00,-1.00,-3.00,-21.00,-2.00,-1.00,+1.00,+19.00,-4.00,-1.00,+5.00,+14.00,+4.00,-1.00,-45.00
-90.00,-44.00,-1.00,+2.00,+36.00,+0.00,+0.00,-6.00,-23.00,+1.00,-3.00,+0.00,-11.00,-4.00,-1.00,-17.00
-76.00,+35.00,+0.00,-1.00,-8.00,+1.00,-3.00,-2.00,+25.00,+9.00,+1.00,-5.00,-14.00,+6.00,-2.00,-12.00
-20.00,-1.00,+0.00,+0.00,+0.00,+4.00,-2.00,-1.00,-16.00,-22.00,-4.00,-4.00,+15.00,-13.00,-2.00,-4.00
+53.00,+30.00,+2.00,+0.00,+1.00,+1.00,-2.00,-11.00,-5.00,-2.00,-2.00,+1.00,-9.00,+4.00,+3.00,+0.00
+52.00,-13.00,+1.00,-2.00,-1.00,+3.00,+0.00,+8.00,+5.00,-6.00,-1.00,-3.00,-8.00,-9.00,-4.00,-12.00
+43.00,-12.00,-2.00,-1.00,-11.00,-8.00,-5.00,+2.00,+8.00,+4.00,+0.00,-1.00,-12.00,+3.00,+0.00,-4.00
+9.00,-5.00,+2.00,-2.00,+5.00,-2.00,-4.00,+2.00,+12.00,+8.00,+1.00,-2.00,+3.00,+3.00,+0.00,+8.00
-30.00,+3.00,-2.00,-1.00,-14.00,-5.00,-2.00,+5.00,+5.00,+2.00,+2.00,+13.00,+27.00,+1.00,-3.00,+12.00
-29.00,-3.00,-1.00,+0.00,+6.00,-4.00,-2.00,+2.00,+9.00,-2.00,-3.00,-11.00,+1.00,-4.00,-4.00,-5.00
+54.00,-6.00,-1.00,+2.00,-8.00,-5.00,-2.00,+8.00,-6.00,+3.00,-2.00,-2.00,-16.00,-1.00,-2.00,-3.00
+29.00,-25.00,+2.00,-2.00,-8.00,+1.00,-1.00,+7.00,-2.00,+1.00,+1.00,-4.00,-10.00,+1.00,-5.00,+3.00
-8.00,+10.00,-2.00,+0.00,-9.00,+0.00,-4.00,+4.00,+10.00,+0.00,-1.00,+1.00,+8.00,-4.00,-1.00,+5.00
+25.00,+13.00,+8.00,+1.00,+5.00,-4.00,+1.00,+4.00,-12.00,-5.00,-2.00,+1.00,-3.00,+3.00,+0.00,-14.00
-3.00,-5.00,-3.00,+0.00,+11.00,+5.00,+0.00,+3.00,-3.00,-7.00,-1.00,-2.00,-5.00,-4.00,+0.00,-12.00
-18.00,+3.00,-1.00,-1.00,+2.00,+1.00,-1.00,-4.00,+0.00,+3.00,+1.00,+2.00,-4.00,-4.00,+0.00,-7.00
+4.00,-23.00,-7.00,-1.00,-2.00,-3.00,-1.00,+4.00,+1.00,-2.00,-1.00,-1.00,-1.00,+2.00,+0.00,-8.00
-10.00,+7.00,-1.00,-2.00,+1.00,+2.00,-2.00,-4.00,+2.00,-6.00,-2.00,-2.00,-1.00,-3.00,-3.00,-22.00
-16.00,+4.00,+1.00,-2.00,-30.00,-6.00,-3.00,-9.00,-14.00,-2.00,+0.00,+2.00,-3.00,-1.00,+1.00,-6.00
-10.00,-15.00,-1.00,+1.00,+0.00,-2.00,-1.00,-5.00,+2.00,-4.00,-2.00,-1.00,+4.00,-1.00,-1.00,-5.00
-10.00,+12.00,-1.00,-5.00,+12.00,+2.00,+1.00,+5.00,+3.00,-3.00,+0.00,-1.00,+1.00,+0.00,+2.00,-7.00
-29.00,-4.00,+0.00,+2.00,+2.00,+0.00,-1.00,+1.00,+1.00,-1.00,+0.00,+0.00,+1.00,+0.00,+1.00,-5.00
-22.00,-13.00,+1.00,+0.00,-6.00,-2.00,+0.00,+7.00,-5.00,+0.00,+0.00,+1.00,-6.00,-3.00,+1.00,+1.00
+0.00,+32.00,+0.00,-2.00,-1.00,+0.00,-2.00,+4.00,+7.00,+2.00,-3.00,+0.00,+1.00,+1.00,-1.00,-3.00
-30.00,-11.00,+0.00,+1.00,+0.00,-7.00,+0.00,+4.00,-6.00,-1.00,-5.00,-3.00,+0.00,+1.00,-3.00,-2.00
-37.00,+2.00,-1.00,-2.00,+1.00,+1.00,-2.00,-1.00,-4.00,-2.00,-2.00,+3.00,-6.00,-5.00,-2.00,+3.00
-52.00,-2.00,-3.00,-2.00,-2.00,-1.00,-1.00,-1.00,+2.00,-3.00,-4.00,-2.00,-4.00,+0.00,-2.00,+11.00
-18.00,-1.00,-1.00,-1.00,+0.00,-2.00,+1.00,+1.00,+0.00,+3.00,-2.00,-3.00,+4.00,+1.00,-1.00,+5.00
+7.00,+3.00,+2.00,-1.00,+0.00,+0.00,+0.00,+0.00,+1.00,+0.00,-2.00,-1.00,+1.00,-2.00,-4.00,+9.00
