-4.00,+1.00,+0.00,+0.00,-2.00,-2.00,-3.00,-2.00,+4.00,+0.00,+1.00,-2.00,-2.00,+0.00,-1.00,+1.00
+1.00,-1.00,-1.00,-1.00,+0.00,+1.00,-2.00,+0.00,+0.00,+0.00,-2.00,+0.00,+0.00,+0.00,+0.00,+1.00
+0.00,-3.00,-5.00,-1.00,+0.00,-1.00,+1.00,-1.00,-1.00,-2.00,+0.00,-3.00,-2.00,-1.00,-2.00,+0.00
+1.00,-2.00,+3.00,-2.00,+0.00,+0.00,+0.00,-1.00,-6.00,-4.00,+3.00,+1.00,-1.00,-3.00,+1.00,-3.00
-3.00,+0.00,-2.00,-2.00,+0.00,-2.00,+0.00,-2.00,-1.00,+4.00,+2.00,-1.00,+0.00,-1.00,-2.00,+0.00
-2.00,-1.00,+0.00,+1.00,-1.00,-1.00,-2.00,-2.00,-2.00,-9.00,-1.00,+0.00,-1.00,+0.00,+0.00,-2.00
-3.00,-1.00,+0.00,+1.00,-1.00,-2.00,+0.00,-2.00,-2.00,-1.00,+0.00,+0.00,-2.00,-1.00,-1.00,+0.00
+1.00,-4.00,-5.00,-2.00,-2.00,-4.00,-2.00,+0.00,+3.00,+0.00,+2.00,-1.00,-3.00,+0.00,+0.00,+1.00
-3.00,-1.00,+2.00,+2.00,-2.00,-2.00,-1.00,-2.00,+4.00,-1.00,-3.00,-1.00,+0.00,+0.00,+0.00,+2.00
+1.00,+0.00,-1.00,-2.00,-2.00,-3.00,-1.00,+0.00,-3.00,-2.00,-1.00,-1.00,-2.00,-3.00,-5.00,-8.00
+4.00,-2.00,+1.00,-1.00,-1.00,+3.00,-1.00,+1.00,+2.00,+0.00,+2.00,+0.00,-2.00,+1.00,+1.00,+4.00
-5.00,-1.00,-1.00,-2.00,+0.00,+0.00,+1.00,-2.00,+5.00,-1.00,-5.00,-2.00,+0.00,-2.00,-2.00,+1.00
+5.00,-2.00,-3.00,+0.00,+0.00,+1.00,+0.00,+1.00,+4.00,-4.00,+4.00,-1.00,-2.00,-1.00,+1.00,-1.00
-6.00,-1.00,-2.00,-1.00,+0.00,-2.00,-2.00,-4.00,-39.00,+1.00,+1.00,+1.00,+0.00,+0.00,+0.00,-1.00
+0.00,-1.00,+3.00,+0.00,-1.00,-3.00,-2.00,+0.00,+11.00,+5.00,+0.00,-1.00,-1.00,-2.00,-2.00,-4.00
+4.00,-1.00,-2.00,+0.00,+1.00,+1.00,+1.00,+2.00,+0.00,+2.00,+1.00,-2.00,+0.00,-2.00,-1.00,-1.00
+1.00,+0.00,-4.00,+0.00,+0.00,+1.00,-1.00,+1.00,-13.00,-10.00,+3.00,+1.00,+1.00,+0.00,-1.00,-2.00
-4.00,-2.00,-1.00,-2.00,-1.00,-1.00,-2.00,-2.00,+17.00,+5.00,-1.00,-3.00,-2.00,-2.00,+1.00,+5.00
-16.00,-4.00,-4.00,-3.00,-2.00,-4.00,-1.00,-3.00,-3.00,-6.00,-1.00,-2.00,-3.00,-1.00,+0.00,-3.00
+13.00,-10.00,+0.00,+2.00,-1.00,-1.00,-1.00,+0.00,+10.00,+10.00,-5.00,+0.00,+0.00,+1.00,+0.00,+4.00
-4.00,+4.00,-1.00,-2.00,-1.00,-1.00,+0.00,-2.00,+3.00,+1.00,-6.00,-3.00,-2.00,-2.00,-2.00,-3.00
+15.00,+33.00,-5.00,-3.00,-1.00,+2.00,-1.00,+2.00,+2.00,-10.00,-5.00,+0.00,-1.00,+0.00,-2.00,-1.00
-8.00,+43.00,+5.00,+0.00,+0.00,+1.00,-2.00,+0.00,+0.00,+3.00,+1.00,+2.00,-1.00,-2.00,-2.00,+1.00
-6.00,-14.00,+3.00,-1.00,+2.00,-2.00,-1.00,+1.00,+0.00,-1.00,+7.00,-2.00,+0.00,-1.00,-2.00,-6.00
-6.00,+10.00,-3.00,-1.00,-3.00,-4.00,-1.00,-5.00,-7.00,-3.00,-9.00,-3.00,-2.00,-1.00,-2.00,+0.00
+13.00,-19.00,+3.00,+2.00,+1.00,+2.00,+1.00,+3.00,+7.00,+6.00,+1.00,-1.00,+1.00,+0.00,-2.00,+1.00
-2.00,-10.00,-3.00,+0.00,+1.00,+2.00,-1.00,-2.00,-5.00,-9.00,-5.00,-5.00,-1.00,+1.00,-1.00,-2.00
+13.00,+15.00,-5.00,-3.00,-3.00,-1.00,-1.00,-1.00,+36.00,+15.00,+3.00,-2.00,-4.00,-2.00,-2.00,-4.00
-20.00,-5.00,-1.00,-2.00,+0.00,+0.00,-2.00,+0.00,-97.00,-50.00,+1.00,+2.00,+1.00,+0.00,+2.00,-1.00
-18.00,-11.00,-9.00,-3.00,-2.00,-4.00,-1.00,-3.00,+54.00,+22.00,+1.00,+0.00,-2.00,-3.00,-1.00,+5.00
+9.00,+6.00,+3.00,-1.00,-1.00,-3.00,+2.00,-1.00,-42.00,+13.00,+1.00,+0.00,-3.00,+0.00,-2.00,-13.00
-11.00,-10.00,-1.00,+1.00,-2.00,+2.00,-3.00,-3.00,+10.00,+0.00,+2.00,-2.00,-5.00,+0.00,-1.00,+8.00
+9.00,-7.00,-2.00,+0.00,-1.00,-3.00,+1.00,-1.00,+20.00,+21.00,+2.00,-3.00,+1.00,-3.00,-4.00,-11.00
+6.00,+0.00,+0.00,-2.00,-1.00,-1.00,-1.00,-1.00,+11.00,-8.00,-7.00,-2.00,-3.00,+0.00,+0.00,+3.00
-5.00,-35.00,-3.00,+0.00,-8.00,-3.00,+1.00,+1.00,-2.00,-4.00,-2.00,+15.00,-1.00,-1.00,-3.00,-4.00
-4.00,-63.00,-6.00,-4.00,+1.00,-7.00,-3.00,-4.00,-2.00,+6.00,+0.00,-15.00,+8.00,+1.00,+2.00,+6.00
-16.00,+55.00,-5.00,-3.00,-3.00,-9.00,-2.00,+0.00,+5.00,-12.00,-5.00,-2.00,-2.00,+2.00,-1.00,-5.00
+74.00,+69.00,+21.00,+4.00,+6.00,+22.00,+3.00,+8.00,-33.00,-11.00,-2.00,+0.00,-1.00,+0.00,-3.00,-4.00
-12.00,-34.00,-4.00,-3.00,-2.00,+1.00,+0.00,-4.00,+34.00,+14.00,-1.00,-2.00,+11.00,-12.00,-4.00,+1.00
+10.00,-54.00,-1.00,+0.00,-5.00,-1.00,+0.00,+2.00,-21.00,-14.00,-1.00,+4.00,-23.00,+1.00,-1.00,-2.00
-3.00,+13.00,+0.00,+1.00,+0.00,-1.00,-2.00,-2.00,+12.00,-1.00,-6.00,+0.00,+11.00,+3.00,-16.00,+6.00
-11.00,-61.00,-3.00,-1.00,+6.00,+1.00,+0.00,+1.00,-2.00,+2.00,-2.00,+8.00,-21.00,-4.00,+33.00,-7.00
-4.00,-9.00,+0.00,+0.00,+0.00,-4.00,-2.00,+1.00,-5.00,-2.00,+2.00,+5.00,-5.00,-1.00,-13.00,+6.00
-23.00,+38.00,-6.00,-5.00,-24.00,-10.00,-3.00,-6.00,+7.00,-3.00,-4.00,+6.00,+7.00,-4.00,-5.00,-12.00
+6.00,-53.00,+5.00,+1.00,-1.00,+5.00,+1.00,+5.00,+3.00,+5.00,+5.00,-18.00,+2.00,+0.00,+3.00,+4.00
-1.00,+33.00,-3.00,-1.00,+12.00,+0.00,-2.00,-3.00,-24.00,-14.00,-8.00,-43.00,-18.00,-4.00,-15.00,-9.00
+14.00,-3.00,+1.00,-1.00,+6.00,-9.00,-1.00,+0.00,-18.00,-13.00,-5.00,+1.00,-1.00,+2.00,+7.00,-2.00
-16.00,+3.00,-5.00,-2.00,-6.00,+6.00,-1.00,-2.00,-65.00,-36.00,-7.00,-12.00,-5.00,-2.00,+0.00,-19.00
-7.00,+10.00,-4.00,+1.00,+12.00,+1.00,+3.00,-1.00,+70.00,+30.00,+7.00,+22.00,-1.00,+1.00,+2.00,+22.00
-11.00,-2.00,+1.00,-3.00,-24.00,-14.00,+1.00,+0.00,+10.00,+32.00,+3.00,+4.00,+12.00,+0.00,-1.00,+9.00
-5.00,+14.00,-4.00,-2.00,+3.00,-9.00,-8.00,-12.00,-16.00,-7.00,+3.00,-12.00,-25.00,-3.00,+4.00,-6.00
-2.00,+20.00,+4.00,-3.00,-30.00,+26.00,+1.00,+20.00,+25.00,+5.00,-5.00,+11.00,+25.00,-1.00,-8.00,+0.00
+11.00,-37.00,-7.00,-3.00,+19.00,+4.00,+1.00,-4.00,-9.00,-8.00,-1.00,+4.00,-27.00,+0.00,+7.00,+6.00
-15.00,-24.00,+0.00,+4.00,+11.00,+4.00,+8.00,+0.00,+3.00,-9.00,+0.00,-10.00,+27.00,-1.00,-9.00,-3.00
+7.00,+86.00,+8.00,+11.00,+50.00,+1.00,-17.00,+1.00,+5.00,-2.00,-1.00,-5.00,-26.00,+0.00,+11.00,+8.00
+19.00,+22.00,-6.00,-2.00,-7.00,-13.00,-1.00,-7.00,-16.00,-2.00,+0.00,+9.00,+14.00,-2.00,-5.00,-12.00
+36.00,+20.00,+6.00,+0.00,-4.00,+0.00,-4.00,+5.00,-15.00,-9.00,+2.00,-1.00,-6.00,-7.00,-1.00,-11.00
-3.00,-49.00,-3.00,-6.00,-16.00,-15.00,-4.00,-2.00,+33.00,+22.00,+5.00,+8.00,-2.00,+1.00,-8.00,-1.00
-59.00,-31.00,-4.00,-4.00,-31.00,-2.00,+5.00,-2.00,+3.00,+1.00,-5.00,+1.00,+9.00,+2.00,+0.00,-3.00
+32.00,-50.00,+5.00,+3.00,+23.00,-1.00,+2.00,+1.00,-7.00,-4.00,-1.00,-3.00,-5.00,+3.00,+8.00,+6.00
+6.00,-22.00,-3.00,-3.00,-3.00,+3.00,-3.00,-5.00,+16.00,+11.00,+0.00,-3.00,-11.00,-5.00,-4.00,-2.00
-25.00,+69.00,-4.00,+0.00,+25.00,-6.00,+1.00,+4.00,-32.00,-15.00,+2.00,+6.00,+18.00,+3.00,+0.00,+0.00
+23.00,-7.00,+0.00,-2.00,-16.00,+6.00,-5.00,-1.00,-19.00,-12.00,+1.00,-1.00,+16.00,+2.00,-2.00,-5.00
-11.00,+9.00,-1.00,+1.00,+5.00,-2.00,-8.00,-10.00,+36.00,-1.00,-2.00,+0.00,-5.00,-2.00,+0.00,+5.00
-21.00,-41.00,-4.00,-2.00,-6.00,-23.00,+7.00,+4.00,-21.00,+4.00,-6.00,-3.00,+0.00,-1.00,+0.00,-1.00
+18.00,+23.00,+2.00,+1.00,-9.00,+31.00,-3.00,-2.00,+25.00,-7.00,-3.00,+0.00,+3.00,-1.00,-2.00,+2.00
+2.00,-24.00,-2.00,-2.00,-14.00,+6.00,+4.00,+3.00,-6.00,-11.00,+4.00,+2.00,-5.00,-1.00,-2.00,-6.00
-22.00,+14.00,+0.00,+0.00,+14.00,-4.00,-5.00,-4.00,-5.00,+25.00,+0.00,-6.00,-8.00,-1.00,-2.00,+6.00
+18.00,+7.00,+0.00,-1.00,-13.00,-3.00,-4.00,-2.00,+6.00,-12.00,-7.00,-1.00,-9.00,+1.00,-1.00,-7.00
-30.00,-103.00,-9.00,-2.00,-5.00,-7.00,-5.00,-8.00,+19.00,+14.00,-1.00,+3.00,+12.00,-3.00,-5.00,-8.00
+22.00,+55.00,+10.00,-1.00,-2.00,-1.00,+3.00,+10.00,-21.00,-5.00,+1.00,-6.00,+5.00,+1.00,-2.00,+1.00
+9.00,-81.00,-7.00,-2.00,-2.00,-8.00,+0.00,-10.00,-40.00,-14.00,+1.00,+9.00,-4.00,+1.00,-3.00,-5.00
-9.00,+52.00,+9.00,+2.00,+3.00,+9.00,-1.00,+1.00,+2.00,-2.00,-2.00,-8.00,-10.00,-4.00,-2.00,-12.00
-13.00,-77.00,-3.00,+1.00,-7.00,-3.00,+0.00,-2.00,-49.00,-31.00,-6.00,-4.00,-16.00,-5.00,-3.00,-6.00
+19.00,-20.00,-7.00,-4.00,+9.00,-5.00,+1.00,-8.00,+12.00,+10.00,+2.00,-4.00,+20.00,+1.00,-3.00,+9.00
-34.00,+13.00,-6.00,-3.00,-9.00,-3.00,+1.00,+6.00,-8.00,-4.00,-1.00,-5.00,-4.00,-2.00,+1.00,+3.00
+4.00,+17.00,+3.00,+4.00,-5.00,+3.00,+1.00,+3.00,+4.00,-5.00,-6.00,-1.00,+42.00,+0.00,+0.00,-3.00
-3.00,+44.00,-1.00,-4.00,-2.00,-9.00,-6.00,-3.00,+25.00,+20.00,+4.00,+3.00,-4.00,-1.00,-1.00,+1.00
-33.00,-41.00,-6.00,-2.00,+3.00,+7.00,+0.00,-6.00,+24.00,-15.00,-7.00,+1.00,+6.00,-3.00,-2.00,-7.00
+32.00,+83.00,-2.00,+1.00,+17.00,-2.00,+1.00,+4.00,-28.00,+19.00,-4.00,+0.00,-25.00,-3.00,-2.00,-5.00
+5.00,-20.00,+1.00,-3.00,-24.00,-15.00,-3.00,+1.00,+0.00,-15.00,+4.00,+10.00,+13.00,+2.00,-1.00,+3.00
-27.00,+11.00,-5.00,-6.00,-12.00,+6.00,-4.00,-4.00,-27.00,-54.00,-6.00,+11.00,-51.00,-3.00,-2.00,-7.00
+37.00,+6.00,+13.00,+10.00,+39.00,+11.00,+8.00,+12.00,+53.00,+72.00,+3.00,-22.00,+11.00,+1.00,+1.00,+11.00
-29.00,+10.00,-2.00,-1.00,-13.00,+1.00,+1.00,-2.00,+15.00,-17.00,+0.00,+4.00,+10.00,-2.00,+2.00,+1.00
+11.00,+9.00,+6.00,+4.00,+39.00,+10.00,+2.00,+3.00,+86.00,+43.00,+3.00,+2.00,-5.00,-2.00,+2.00,+9.00
-1.00,-35.00,-4.00,-1.00,-16.00,-22.00,-3.00,-2.00,-61.00,-5.00,+7.00,-4.00,+7.00,+1.00,+2.00,-6.00
-13.00,+6.00,-14.00,-9.00,-21.00,+0.00,+2.00,-5.00,+39.00,-9.00,-9.00,+4.00,-17.00,-2.00,-1.00,+8.00
+6.00,+6.00,+4.00,+3.00,+13.00,+4.00,-11.00,-2.00,+24.00,-24.00,+5.00,+0.00,+8.00,+0.00,+0.00,+9.00
-43.00,-64.00,-10.00,-7.00,-9.00,-6.00,-3.00,-10.00,-28.00,+8.00,-7.00,-2.00,+3.00,-3.00,+0.00,-2.00
+36.00,+73.00,+2.00,-3.00,-33.00,-10.00,+0.00,+1.00,+23.00,+3.00,-3.00,+3.00,+2.00,-3.00,-4.00,-5.00
-13.00,-35.00,+0.00,-2.00,+28.00,-8.00,+0.00,+1.00,-10.00,-13.00,-3.00,+3.00,+3.00,+0.00,+1.00,+12.00
-2.00,+53.00,+4.00,+2.00,+19.00,+8.00,+5.00,-2.00,+8.00,+20.00,-1.00,-5.00,-11.00,+1.00,-2.00,-4.00
+2.00,-48.00,+4.00,+4.00,+12.00,+16.00,+4.00,+3.00,-34.00,-14.00,+6.00,+10.00,-8.00,-1.00,-3.00,+2.00
-53.00,-99.00,-9.00,-2.00,+15.00,-4.00,-6.00,-7.00,+12.00,+11.00,-4.00,-3.00,+29.00,+2.00,-1.00,+9.00
+28.00,+81.00,+4.00,-2.00,-28.00,-3.00,+2.00,+2.00,-49.00,-5.00,+7.00,-4.00,-38.00,-2.00,-2.00,-7.00
-16.00,-82.00,-11.00,-3.00,-8.00,-9.00,+1.00,-5.00,-49.00,-42.00,-5.00,+20.00,+75.00,+1.00,-2.00,-12.00
+14.00,+104.00,+1.00,+0.00,+0.00,-5.00,-3.00,-2.00,-98.00,-31.00,-2.00,-38.00,-35.00,-4.00,-2.00,-20.00
+2.00,+4.00,-6.00,-2.00,-9.00,+5.00,-1.00,-5.00,+45.00,-9.00,+1.00,+11.00,+5.00,+2.00,+5.00,+23.00
-7.00,-38.00,-7.00,-8.00,-16.00,-10.00,-8.00,-3.00,+22.00,+90.00,+0.00,+24.00,+24.00,-2.00,-4.00,-7.00
-2.00,-9.00,+4.00,+0.00,+0.00,+0.00,+1.00,+1.00,-11.00,-21.00,+5.00,-16.00,-54.00,-1.00,+0.00,+10.00
+2.00,-11.00,-7.00,-3.00,-14.00,-2.00,-5.00,-2.00,-7.00,+18.00,+1.00,-10.00,+15.00,-1.00,-4.00,-15.00
+17.00,+4.00,+4.00,+2.00,-9.00,+3.00,+0.00,-3.00,-38.00,-24.00,-19.00,-6.00,+1.00,-8.00,-6.00,-10.00
-19.00,-52.00,-13.00,-4.00,-13.00,-9.00,-3.00,-4.00,+22.00,-80.00,-10.00,-2.00,+15.00,-1.00,-2.00,-8.00
+55.00,+112.00,+17.00,-4.00,-4.00,-1.00,-4.00,+6.00,+19.00,+95.00,+14.00,+18.00,-19.00,-1.00,-1.00,+1.00
-12.00,-66.00,+0.00,+2.00,+5.00,-12.00,+0.00,-4.00,-34.00,-33.00,-3.00,-24.00,-3.00,-6.00,+3.00,-1.00
+37.00,+72.00,+3.00,+3.00,+41.00,+22.00,+1.00,-3.00,-13.00,-40.00,-4.00,-13.00,-63.00,+0.00,-8.00,-17.00
-45.00,-128.00,+4.00,+8.00,+19.00,+5.00,+6.00,+8.00,-4.00,-22.00,+5.00,-1.00,-20.00,+6.00,+3.00,+21.00
-10.00,+39.00,-3.00,-5.00,-14.00,-6.00,-1.00,-7.00,-31.00,-15.00,-6.00,-10.00,+15.00,-11.00,-6.00,-15.00
-9.00,+35.00,+13.00,+0.00,-34.00,-11.00,-2.00,+3.00,-3.00,-6.00,-6.00,+1.00,+20.00,-2.00,-1.00,+2.00
+8.00,-42.00,+7.00,+4.00,+3.00,-13.00,-1.00,+6.00,-1.00,-9.00,-2.00,+15.00,+14.00,+3.00,+3.00,+9.00
-16.00,-37.00,-13.00,-5.00,+3.00,+21.00,-6.00,-9.00,+23.00,+49.00,-1.00,-13.00,+13.00,-6.00,-6.00,-8.00
-7.00,+54.00,-3.00,-1.00,-6.00,-3.00,+0.00,-1.00,+93.00,+74.00,+7.00,+7.00,-52.00,+5.00,+3.00,+10.00
-10.00,-83.00,-23.00,-17.00,-58.00,-24.00,-12.00,-10.00,-48.00,-12.00,-4.00,-7.00,+25.00,+6.00,+4.00,-8.00
+1.00,+17.00,+9.00,+12.00,+79.00,+19.00,-1.00,+4.00,+83.00,+3.00,-2.00,+11.00,+15.00,-11.00,+23.00,+3.00
+55.00,+111.00,+10.00,-1.00,+7.00,+10.00,+23.00,+9.00,-17.00,-20.00,-5.00,-3.00,-40.00,+1.00,-18.00,-2.00
-47.00,-33.00,+8.00,+0.00,+15.00,-22.00,-25.00,-3.00,+37.00,-30.00,-6.00,+1.00,-34.00,-4.00,-11.00,-2.00
+8.00,-13.00,-4.00,+3.00,+13.00,+24.00,+16.00,-1.00,+51.00,+18.00,+1.00,+26.00,+72.00,+1.00,-3.00,+2.00
-31.00,+0.00,-7.00,+0.00,-13.00,+7.00,-11.00,-3.00,-86.00,-30.00,-5.00,-30.00,-33.00,+0.00,-5.00,-20.00
+2.00,-46.00,+2.00,-2.00,-19.00,-14.00,-3.00,+6.00,+35.00,+1.00,+3.00,+13.00,+44.00,-8.00,+14.00,+14.00
+0.00,-122.00,-17.00,-5.00,-18.00,+4.00,+9.00,-8.00,-13.00,+12.00,+2.00,-36.00,+16.00,+15.00,+2.00,-1.00
-35.00,+1.00,-14.00,-8.00,-55.00,-20.00,-19.00,-8.00,-53.00,+9.00,+4.00,+6.00,-2.00,-3.00,-4.00,-13.00
+75.00,+48.00,+16.00,+0.00,-32.00,-16.00,+2.00,+21.00,+107.00,+9.00,+3.00,+20.00,-12.00,+2.00,+1.00,+21.00
+12.00,-41.00,+3.00,+11.00,+68.00,+29.00,-3.00,-1.00,-106.00,-31.00,-9.00,-6.00,-23.00,+0.00,-2.00,-23.00
+1.00,-70.00,+7.00,+7.00,+25.00,+15.00,+3.00,+2.00,-70.00,-89.00,-11.00,+5.00,+32.00,-17.00,+1.00,-2.00
+13.00,+7.00,+3.00,-1.00,+17.00,+18.00,+3.00,+1.00,-17.00,+17.00,-10.00,-1.00,-19.00,+31.00,+1.00,+7.00
-26.00,-41.00,-16.00,-8.00,-13.00,-17.00,+4.00,-3.00,-25.00,+33.00,+18.00,+6.00,+35.00,+8.00,-3.00,+7.00
+1.00,+32.00,-6.00,-10.00,-71.00,-25.00,-4.00,-7.00,-50.00,+35.00,-4.00,+2.00,+51.00,-57.00,-4.00,-9.00
+51.00,+67.00,+13.00,+8.00,-32.00,-17.00,-3.00,+11.00,+34.00,-26.00,-6.00,-28.00,+39.00,+65.00,+13.00,-3.00
+16.00,-56.00,-3.00,+6.00,+23.00,+18.00,+6.00,+0.00,+3.00,-25.00,-7.00,-15.00,-43.00,-21.00,-23.00,-10.00
-44.00,+28.00,-2.00,+1.00,+44.00,+23.00,+3.00,-7.00,+26.00,+5.00,+0.00,+11.00,-56.00,+7.00,-19.00,+0.00
+9.00,+18.00,+6.00,-6.00,-12.00,-19.00,-12.00,+2.00,-4.00,-49.00,-7.00,-15.00,-18.00,+15.00,+11.00,-5.00
-41.00,-60.00,-12.00,-7.00,+7.00,+9.00,+3.00,-9.00,-16.00,+69.00,+2.00,+13.00,-12.00,-31.00,+4.00,+0.00
+29.00,+82.00,+8.00,-5.00,-41.00,-20.00,-44.00,-2.00,+52.00,-12.00,+0.00,+15.00,+13.00,+8.00,-7.00,+4.00
+29.00,+60.00,+0.00,-11.00,-43.00,+8.00,+61.00,+1.00,-15.00,+46.00,+4.00,-11.00,+12.00,+8.00,-28.00,-15.00
+20.00,+44.00,+6.00,+7.00,+33.00,-46.00,+41.00,+3.00,-58.00,-69.00,-10.00,-4.00,-30.00,+3.00,+35.00,-4.00
+20.00,+2.00,+2.00,+1.00,+26.00,+57.00,-6.00,+6.00,-25.00,-1.00,+6.00,-7.00,-3.00,-3.00,+9.00,+4.00
-40.00,-31.00,+10.00,+9.00,+17.00,-29.00,+23.00,+1.00,+99.00,+5.00,-7.00,+2.00,-22.00,-5.00,-3.00,-8.00
-21.00,-56.00,-6.00,-1.00,+17.00,+6.00,-25.00,+3.00,-51.00,-11.00,+2.00,+23.00,+18.00,-33.00,+4.00,+19.00
-27.00,-1.00,-5.00,+1.00,+8.00,+12.00,-21.00,-11.00,+31.00,-8.00,-3.00,-27.00,-2.00,+18.00,-9.00,-2.00
+34.00,+16.00,-7.00,-6.00,-22.00,-16.00,+23.00,+2.00,-21.00,+6.00,+0.00,-4.00,+11.00,+9.00,+0.00,-7.00
-8.00,-27.00,-14.00,-6.00,+29.00,+12.00,-9.00,-3.00,+9.00,+13.00,-2.00,-2.00,-49.00,-29.00,+3.00,+9.00
+2.00,+24.00,+1.00,-3.00,-12.00,-30.00,-18.00,-5.00,-24.00,-58.00,-1.00,-5.00,+61.00,+0.00,-2.00,-16.00
-42.00,-31.00,-7.00,-4.00,-32.00,+12.00,-2.00,-9.00,+28.00,+50.00,-2.00,-6.00,-2.00,+5.00,-5.00,+3.00
+30.00,-9.00,-7.00,+0.00,+17.00,-4.00,-8.00,+1.00,-32.00,-9.00,-4.00,+3.00,-20.00,-14.00,-9.00,-1.00
-22.00,-15.00,+5.00,+1.00,+14.00,+25.00,-4.00,-7.00,+46.00,+50.00,+5.00,+3.00,-16.00,+1.00,-2.00,+12.00
-6.00,-38.00,-11.00,-3.00,-13.00,-19.00,-4.00,-2.00,-43.00,-14.00,-10.00,-12.00,+22.00,-8.00,+10.00,-3.00
+32.00,+64.00,+0.00,-5.00,-19.00,+12.00,-1.00,+3.00,+39.00,+39.00,+11.00,+10.00,-37.00,+8.00,-9.00,+5.00
-30.00,-64.00,+0.00,+1.00,-17.00,-2.00,-4.00,-8.00,-15.00,-18.00,-4.00,+10.00,+30.00,-8.00,-9.00,-2.00
+40.00,+5.00,-1.00,+2.00,+23.00,-1.00,-54.00,+6.00,-58.00,-50.00,-2.00,+8.00,+1.00,-1.00,+9.00,-6.00
-43.00,-99.00,-4.00,-2.00,+21.00,-10.00,+30.00,-7.00,+8.00,+49.00,+5.00,-28.00,-8.00,+1.00,+27.00,+8.00
+18.00,+75.00,+11.00,+4.00,+5.00,+15.00,-13.00,+0.00,+15.00,-16.00,+4.00,+9.00,-39.00,+5.00,-31.00,+1.00
-17.00,+37.00,-2.00,-2.00,+2.00,-21.00,-1.00,-3.00,-17.00,-10.00,-12.00,-11.00,-5.00,-6.00,-9.00,-11.00
+14.00,-29.00,-7.00,+1.00,+6.00,-10.00,+8.00,-5.00,+44.00,+20.00,+13.00,+9.00,+23.00,+0.00,+10.00,+12.00
-26.00,-85.00,+3.00,+0.00,+4.00,+1.00,-16.00,-1.00,-31.00,-47.00,-14.00,+5.00,-15.00,+7.00,-3.00,-8.00
+3.00,-3.00,-8.00,-5.00,-18.00,+0.00,-8.00,-2.00,+12.00,+88.00,+14.00,-1.00,+12.00,+2.00,+7.00,-2.00
-12.00,+6.00,-5.00,-5.00,-11.00,-8.00,-2.00,-2.00,+14.00,-70.00,-2.00,-5.00,-11.00,-12.00,-1.00,+6.00
-1.00,+24.00,+2.00,-4.00,+10.00,+1.00,+18.00,-6.00,-94.00,+77.00,-8.00,-2.00,+2.00,+3.00,-5.00,-14.00
+35.00,-71.00,-2.00,-1.00,-12.00,-3.00,-12.00,-1.00,+101.00,+45.00,+4.00,-5.00,-14.00,+1.00,-1.00,+0.00
-23.00,-2.00,+8.00,+10.00,+12.00,-8.00,+24.00,+12.00,+14.00,+62.00,+6.00,+6.00,+11.00,-1.00,-2.00,-18.00
-19.00,-5.00,-3.00,+0.00,+5.00,+12.00,-29.00,-9.00,-62.00,-51.00,-21.00,+5.00,+0.00,-2.00,-2.00,+13.00
-25.00,-38.00,-11.00,-6.00,+5.00,-5.00,+9.00,-3.00,-33.00,+2.00,+12.00,-6.00,+8.00,+2.00,+7.00,+1.00
+39.00,-62.00,-3.00,-3.00,-21.00,-1.00,-5.00,+7.00,-9.00,+46.00,+12.00,+6.00,-18.00,-22.00,-5.00,-9.00
+2.00,+10.00,-1.00,-3.00,-16.00,-3.00,-7.00,-4.00,-120.00,-128.00,-35.00,-5.00,+16.00,+16.00,-4.00,-17.00
+26.00,+66.00,+46.00,+14.00,+9.00,+7.00,+12.00,+19.00,+115.00,+18.00,+32.00,+6.00,+5.00,-4.00,+6.00,+30.00
-43.00,-30.00,-14.00,-5.00,-5.00,+6.00,+6.00,-8.00,-22.00,+10.00,-17.00,-5.00,-20.00,+0.00,-2.00,+4.00
+28.00,-24.00,-3.00,-4.00,-6.00,-2.00,-8.00,-2.00,+58.00,-5.00,+8.00,-1.00,+6.00,-2.00,-2.00,+6.00
-48.00,-126.00,-2.00,-2.00,+1.00,-3.00,-10.00,-12.00,-14.00,-98.00,+0.00,+0.00,+35.00,-3.00,+1.00,+8.00
+71.00,-33.00,-22.00,-7.00,-7.00,-10.00,+7.00,+10.00,+53.00,+67.00,-11.00,+7.00,-47.00,+1.00,-3.00,-18.00
+7.00,+127.00,+9.00,-1.00,-5.00,-4.00,+8.00,-8.00,+15.00,-28.00,-12.00,-9.00,-12.00,-3.00,+4.00,+19.00
-35.00,+1.00,-1.00,+1.00,-7.00,+3.00,-2.00,-1.00,-52.00,-12.00,-21.00,+2.00,+18.00,+6.00,-4.00,-12.00
+41.00,-12.00,+36.00,+13.00,+17.00,+5.00,+0.00,+16.00,+115.00,+127.00,+20.00,+14.00,-9.00,-6.00,+4.00,+18.00
-29.00,-69.00,-27.00,-13.00,-10.00,-6.00,-2.00,-17.00,+11.00,+33.00,+22.00,-16.00,+32.00,+6.00,-2.00,-19.00
+8.00,+76.00,+27.00,+10.00,+6.00,+0.00,+6.00,+10.00,-20.00,+109.00,+21.00,+8.00,+5.00,-9.00,-4.00,+1.00
+4.00,+44.00,-14.00,-5.00,-9.00,-2.00,-5.00,-4.00,+48.00,-5.00,-27.00,-6.00,-11.00,+11.00,+4.00,+20.00
+10.00,+113.00,-14.00,-8.00,+15.00,+5.00,-6.00,-2.00,-92.00,-78.00,+35.00,+9.00,+15.00,+0.00,+5.00,-2.00
+19.00,+33.00,-1.00,-1.00,-3.00,-9.00,+2.00,-5.00,+63.00,-96.00,-20.00,+6.00,-2.00,-5.00,-3.00,-2.00
+34.00,+49.00,+3.00,+0.00,-21.00,+0.00,+6.00,+14.00,+47.00,-66.00,+22.00,+8.00,-1.00,+4.00,-2.00,-21.00
-42.00,+66.00,+25.00,+13.00,+44.00,+5.00,+2.00,+5.00,+9.00,+95.00,-11.00,-13.00,+5.00,-5.00,-13.00,-17.00
+21.00,+38.00,-2.00,-3.00,-9.00,-19.00,-3.00,-7.00,+46.00,-47.00,-29.00,-2.00,-12.00,-2.00,+0.00,+15.00
-87.00,-83.00,-29.00,-5.00,-5.00,+10.00,-1.00,-9.00,-65.00,+47.00,+17.00,+0.00,+6.00,-5.00,-4.00,-6.00
+70.00,-128.00,-12.00,+3.00,-19.00,+20.00,+3.00,+7.00,+39.00,-97.00,+7.00,-4.00,-35.00,-3.00,-4.00,+1.00
-44.00,-25.00,+3.00,+4.00,+5.00,+4.00,-6.00,-12.00,-46.00,+34.00,-2.00,-2.00,+26.00,+5.00,-1.00,-4.00
-58.00,-128.00,+6.00,-9.00,-4.00,-3.00,-5.00,+3.00,+102.00,-54.00,-49.00,-26.00,-81.00,-13.00,-7.00,+1.00
+64.00,+37.00,+3.00,-1.00,+3.00,-7.00,+7.00,+3.00,-96.00,-108.00,-5.00,+3.00,+20.00,-2.00,-5.00,+1.00
-67.00,-62.00,+8.00,+0.00,-16.00,-5.00,-11.00,-2.00,+127.00,+77.00,-5.00,-10.00,+16.00,+4.00,+4.00,+11.00
+10.00,-65.00,-17.00,-2.00,-8.00,-6.00,-1.00,-1.00,-111.00,-108.00,+22.00,-1.00,-6.00,-7.00,-9.00,-28.00
-54.00,-25.00,-40.00,-12.00,-16.00,-19.00,-12.00,-27.00,-96.00,-84.00,+15.00,+10.00,+13.00,+1.00,+7.00,-4.00
+33.00,+62.00,+28.00,-1.00,-11.00,+3.00,+0.00,-1.00,-39.00,+66.00,-10.00,+4.00,-6.00,+1.00,+5.00,-8.00
-13.00,+17.00,-14.00,-1.00,+26.00,+11.00,+20.00,-2.00,-47.00,-86.00,-44.00,-7.00,-5.00,-6.00,+7.00,+27.00
-27.00,-21.00,-26.00,-10.00,+15.00,-25.00,-29.00,-13.00,-27.00,+41.00,+11.00,-1.00,-29.00,+5.00,-8.00,+9.00
-22.00,-115.00,+4.00,+1.00,-21.00,+25.00,-1.00,-2.00,+53.00,+72.00,+56.00,-2.00,+19.00,-3.00,-5.00,-9.00
-72.00,-103.00,-21.00,-5.00,+29.00,-10.00,-14.00,-20.00,+127.00,+103.00,+11.00,+0.00,-11.00,-1.00,-3.00,+9.00
+115.00,+121.00,+53.00,+8.00,+12.00,-11.00,+16.00,+19.00,-24.00,-108.00,+5.00,-1.00,+10.00,+0.00,+5.00,+2.00
-67.00,-21.00,+3.00,+5.00,-8.00,+12.00,+7.00,+0.00,-36.00,-27.00,-40.00,+3.00,-3.00,+4.00,+13.00,+3.00
-19.00,-56.00,-49.00,-5.00,-3.00,+6.00,+8.00,-17.00,+27.00,+3.00,-16.00,-4.00,+6.00,-5.00,-9.00,+0.00
+69.00,+71.00,+75.00,+22.00,+19.00,+11.00,+6.00,+37.00,-40.00,+56.00,+19.00,-7.00,-4.00,-5.00,-13.00,-17.00
-61.00,+5.00,+8.00,+3.00,+11.00,+5.00,+2.00,-1.00,-82.00,+97.00,+24.00,+10.00,+1.00,+1.00,-5.00,-22.00
-20.00,+46.00,-30.00,-22.00,-40.00,-19.00,-10.00,-30.00,+90.00,-105.00,+20.00,-7.00,-8.00,-3.00,+4.00,+20.00
+10.00,-20.00,+26.00,+11.00,+8.00,-3.00,-14.00,+17.00,+43.00,+58.00,-34.00,+1.00,+12.00,+1.00,-1.00,-1.00
-66.00,-53.00,-62.00,-5.00,-5.00,-3.00,-1.00,-15.00,-51.00,-9.00,+11.00,+2.00,-13.00,-2.00,+4.00,-2.00
-27.00,+30.00,+17.00,-7.00,-16.00,-12.00,-8.00,-8.00,+55.00,-42.00,-24.00,-16.00,-14.00,-8.00,-18.00,-24.00
+115.00,+99.00,-7.00,-11.00,-16.00,+10.00,+7.00,+9.00,-16.00,-9.00,+4.00,+2.00,+15.00,+2.00,-5.00,-10.00
+71.00,+85.00,+47.00,+12.00,+22.00,+11.00,+11.00,+32.00,-98.00,+123.00,+47.00,+8.00,+13.00,-4.00,+0.00,-16.00
-87.00,-69.00,-13.00,-8.00,-7.00,-12.00,-8.00,-25.00,+33.00,+49.00,+17.00,+3.00,-1.00,+2.00,+3.00,+20.00
-6.00,-96.00,-73.00,-21.00,-27.00,-13.00,-6.00,-19.00,+5.00,-58.00,-56.00,+2.00,+10.00,+8.00,+7.00,-3.00
+3.00,+20.00,+45.00,+20.00,+14.00,+15.00,+7.00,+12.00,-3.00,+127.00,+45.00,+20.00,-1.00,+0.00,+15.00,+4.00
+52.00,+66.00,-22.00,-11.00,-4.00,-6.00,+0.00,-2.00,+65.00,+32.00,+27.00,-5.00,-9.00,-1.00,-11.00,+20.00
-6.00,-111.00,+11.00,+3.00,+5.00,+0.00,+6.00,+4.00,-115.00,+58.00,+24.00,-6.00,-3.00,-7.00,-6.00,-30.00
+51.00,+46.00,-19.00,+7.00,+13.00,+5.00,-6.00,+3.00,-22.00,+123.00,-19.00,-4.00,-5.00,-3.00,+2.00,+18.00
-31.00,+12.00,-20.00,-16.00,-1.00,-2.00,-9.00,-21.00,+65.00,-7.00,-14.00,-10.00,-25.00,+1.00,-4.00,-2.00
+24.00,-112.00,-22.00,+2.00,+8.00,-12.00,-2.00,-1.00,-105.00,-87.00,+16.00,+3.00,+22.00,+1.00,+5.00,-15.00
-4.00,+117.00,+45.00,+19.00,-3.00,+13.00,+9.00,+12.00,+89.00,-101.00,-99.00,-15.00,-7.00,-4.00,-3.00,+13.00
-22.00,-123.00,-50.00,-6.00,+11.00,+3.00,-2.00,-6.00,-39.00,+33.00,+18.00,+1.00,+15.00,-1.00,-4.00,-12.00
+65.00,+102.00,+68.00,+2.00,-1.00,-1.00,+9.00,+24.00,+30.00,-95.00,-41.00,-2.00,+1.00,+1.00,+6.00,+9.00
+6.00,+30.00,+33.00,+4.00,-16.00,-12.00,+21.00,+2.00,+71.00,+49.00,-1.00,+1.00,-6.00,+1.00,+3.00,+23.00
+4.00,+88.00,-27.00,-7.00,+5.00,+12.00,-33.00,-11.00,-44.00,-53.00,-1.00,+9.00,+8.00,+12.00,+13.00,+34.00
+33.00,-22.00,+20.00,-5.00,-3.00,+3.00,+6.00,+13.00,-101.00,-58.00,+14.00,+5.00,+5.00,-1.00,-6.00,-40.00
-73.00,-24.00,-8.00,+4.00,+3.00,+4.00,+1.00,+0.00,+76.00,-27.00,-7.00,-1.00,-9.00,-2.00,+0.00,+44.00
+58.00,+15.00,-36.00,-7.00,+6.00,+0.00,+0.00,+6.00,-38.00,+103.00,-23.00,-4.00,-3.00,-3.00,-11.00,-51.00
-13.00,+26.00,-24.00,-16.00,-23.00,-25.00,-7.00,-23.00,+11.00,-128.00,-37.00,+2.00,+0.00,+6.00,+9.00,+39.00
-38.00,-6.00,+24.00,-5.00,-5.00,-2.00,-8.00,-5.00,+127.00,+127.00,-21.00,-7.00,-18.00,-3.00,+3.00,+32.00
-41.00,-93.00,-3.00,+9.00,+8.00,+7.00,+4.00,+4.00,-96.00,-64.00,-4.00,-2.00,+25.00,+1.00,-9.00,-25.00
-32.00,-31.00,+51.00,+10.00,+6.00,+8.00,-1.00,-1.00,+79.00,+63.00,-5.00,+1.00,-7.00,+1.00,+7.00,+37.00
+42.00,+4.00,-68.00,-4.00,-6.00,-5.00,+8.00,+9.00,-37.00,-31.00,-14.00,-6.00,+1.00,-6.00,-7.00,-30.00
-69.00,+41.00,+2.00,-12.00,+6.00,-9.00,-12.00,-15.00,+36.00,+70.00,+52.00,-1.00,-5.00,-3.00,+1.00,+12.00
+5.00,-121.00,-14.00,+5.00,-15.00,+0.00,+6.00,+7.00,-128.00,-79.00,-7.00,+4.00,-2.00,+2.00,-10.00,-22.00
-53.00,+90.00,-4.00,-3.00,-12.00,+0.00,-8.00,-14.00,+11.00,-43.00,-22.00,-4.00,+6.00,+5.00,+7.00,+12.00
-25.00,-66.00,-14.00,-9.00,+0.00,+0.00,+0.00,+2.00,-15.00,+127.00,-23.00,+0.00,-3.00,+0.00,-3.00,-14.00
+42.00,-21.00,+25.00,+6.00,+8.00,-8.00,-3.00,-1.00,-12.00,-128.00,+75.00,-3.00,-8.00,-6.00,-12.00,+0.00
-40.00,-39.00,+13.00,+3.00,-3.00,+5.00,-1.00,-1.00,+2.00,-39.00,-35.00,-1.00,+1.00,+2.00,+6.00,-19.00
-32.00,-52.00,-23.00,-7.00,+0.00,-10.00,-1.00,-11.00,-94.00,-91.00,+18.00,+6.00,+7.00,+0.00,+2.00,-16.00
-22.00,+33.00,+40.00,+9.00,+8.00,+5.00,+1.00,+10.00,+92.00,+2.00,+25.00,+0.00,-5.00,-4.00,-2.00,+5.00
-4.00,+18.00,-34.00,-12.00,-11.00,-9.00,-11.00,-18.00,-30.00,-70.00,+29.00,+2.00,+7.00,+3.00,+1.00,-21.00
-34.00,-96.00,-8.00,+0.00,+1.00,-9.00,-8.00,-8.00,-69.00,-24.00,+84.00,+6.00,-3.00,+1.00,+1.00,-11.00
+71.00,+15.00,+72.00,+18.00,+13.00,+10.00,+10.00,+29.00,-107.00,-128.00,-37.00,+3.00,-2.00,-1.00,+1.00,+1.00
+40.00,+24.00,-5.00,-12.00,-14.00,-13.00,-2.00,-9.00,-41.00,+50.00,+33.00,+4.00,+6.00,+10.00,+11.00,-12.00
-20.00,-128.00,+24.00,+18.00,+16.00,+14.00,+2.00,-7.00,+35.00,-77.00,-33.00,-5.00,-1.00,-5.00,-10.00,-1.00
+24.00,-27.00,-74.00,-25.00,-27.00,-8.00,-7.00,-18.00,+123.00,+68.00,-5.00,-8.00,-4.00,+1.00,+4.00,+20.00
-46.00,-53.00,+57.00,+3.00,+6.00,-5.00,-10.00,-12.00,+38.00,+127.00,+12.00,+2.00,+0.00,+1.00,+0.00,+6.00
+22.00,-114.00,+31.00,+3.00,+7.00,+8.00,+24.00,+23.00,+36.00,+99.00,+14.00,-10.00,-10.00,-15.00,-21.00,-9.00
-28.00,+56.00,+8.00,+1.00,-20.00,-12.00,-20.00,-4.00,-102.00,-24.00,+48.00,+35.00,+23.00,+24.00,+29.00,+12.00
+40.00,-28.00,-27.00,-11.00,+13.00,-7.00,-6.00,-3.00,-47.00,-28.00,-4.00,-4.00,-6.00,-2.00,-2.00,+4.00
+10.00,+117.00,-48.00,+0.00,+2.00,+2.00,-9.00,-3.00,+91.00,+24.00,-62.00,-20.00,-8.00,-11.00,-10.00,+8.00
+49.00,+49.00,+80.00,+8.00,-1.00,+2.00,+7.00,+15.00,-108.00,+44.00,+7.00,-2.00,-2.00,-3.00,-7.00,-14.00
+79.00,+14.00,+63.00,+22.00,+6.00,+13.00,+26.00,+61.00,-19.00,+111.00,-15.00,-2.00,-1.00,+3.00,+1.00,+17.00
-46.00,+40.00,+6.00,+1.00,+21.00,+4.00,-3.00,-17.00,-48.00,-26.00,+20.00,-13.00,-10.00,-11.00,-14.00,-11.00
-51.00,-86.00,-89.00,-30.00,-20.00,-11.00,-8.00,-16.00,+12.00,-113.00,-39.00,-9.00,-2.00,-3.00,-7.00,-18.00
-58.00,-34.00,-5.00,+4.00,+1.00,+3.00,+4.00,+9.00,-19.00,-128.00,+23.00,+1.00,+1.00,+3.00,+13.00,+28.00
-44.00,-44.00,-66.00,-23.00,-14.00,-10.00,-7.00,-23.00,-19.00,-16.00,-65.00,-10.00,-3.00,-2.00,-28.00,+5.00
+127.00,+19.00,+114.00,+64.00,+43.00,+31.00,+40.00,+106.00,+99.00,+127.00,+43.00,+9.00,+2.00,-1.00,-2.00,+1.00
-12.00,-63.00,-26.00,-13.00,-14.00,-5.00,-4.00,-19.00,-14.00,-58.00,+2.00,+3.00,+2.00,-3.00,-2.00,-22.00
-128.00,-2.00,-54.00,-19.00,-20.00,-18.00,-26.00,-49.00,+75.00,-128.00,-88.00,-15.00,-4.00,-1.00,-4.00,+5.00
+51.00,+39.00,-16.00,+6.00,+11.00,+6.00,+8.00,+13.00,-101.00,+37.00,+63.00,+5.00,-3.00,-5.00,-2.00,-22.00
-71.00,-40.00,-8.00,-22.00,-20.00,-15.00,-14.00,-31.00,+92.00,-77.00,-22.00,-14.00,-10.00,-10.00,-13.00,+2.00
+29.00,+11.00,-35.00,-3.00,-5.00,+0.00,-10.00,-20.00,+41.00,+116.00,+46.00,+10.00,+5.00,+5.00,+2.00,+9.00
-15.00,-76.00,-66.00,-13.00,-15.00,-11.00,-9.00,-13.00,+112.00,-100.00,-40.00,-5.00,-5.00,-5.00,-7.00,-18.00
+11.00,+101.00,+62.00,+4.00,+8.00,-1.00,+4.00,+5.00,+67.00,+39.00,-34.00,-9.00,-1.00,-2.00,+2.00,+15.00
-34.00,-59.00,+24.00,+6.00,-2.00,+6.00,+11.00,+7.00,+19.00,+41.00,-1.00,-1.00,+1.00,+2.00,+6.00,+33.00
-9.00,+85.00,+23.00,+7.00,+10.00,-2.00,-16.00,+3.00,-9.00,+69.00,+102.00,+21.00,+4.00,+4.00,+5.00,-4.00
+43.00,-46.00,+21.00,+13.00,+13.00,+1.00,+0.00,+2.00,+31.00,-35.00,-29.00,-8.00,-6.00,-9.00,-10.00,-14.00
-36.00,-30.00,-13.00,-9.00,-23.00,-5.00,-4.00,-10.00,-28.00,-44.00,+44.00,+10.00,+4.00,+3.00,+2.00,-13.00
+10.00,+100.00,-25.00,+6.00,+10.00,+2.00,+2.00,-7.00,-27.00,+80.00,-29.00,-3.00,-2.00,+0.00,+2.00,-12.00
-62.00,-120.00,-54.00,-22.00,-18.00,-10.00,-13.00,-28.00,-107.00,+71.00,+77.00,+6.00,+0.00,+1.00,-3.00,+17.00
+22.00,+9.00,+20.00,+19.00,+15.00,+9.00,+14.00,+11.00,+43.00,-41.00,+18.00,+1.00,-3.00,-5.00,-7.00,-7.00
-53.00,-67.00,-27.00,-12.00,-9.00,-7.00,-6.00,-19.00,+61.00,-97.00,-42.00,-6.00,-5.00,-6.00,-5.00,-7.00
+5.00,-31.00,-25.00,-7.00,+0.00,-3.00,-4.00,-15.00,+20.00,+8.00,-29.00,-19.00,-10.00,-10.00,-9.00,-31.00
+19.00,+39.00,+35.00,+10.00,+8.00,+8.00,+11.00,+22.00,-15.00,-103.00,-48.00,-1.00,+3.00,+5.00,-8.00,+3.00
+7.00,+36.00,-69.00,+0.00,+4.00,+2.00,+0.00,+9.00,-47.00,+92.00,+55.00,+17.00,+6.00,+5.00,+6.00,+16.00
-72.00,-26.00,+9.00,-13.00,-5.00,-6.00,-3.00,-24.00,-28.00,+37.00,-10.00,+3.00,+2.00,+5.00,+11.00,-8.00
+72.00,+104.00,+26.00,-1.00,-26.00,+3.00,+1.00,+23.00,-85.00,-79.00,-25.00,-1.00,+0.00,-3.00,+4.00,-2.00
-18.00,+23.00,+8.00,+21.00,+23.00,+11.00,+18.00,+31.00,+58.00,-85.00,-7.00,+7.00,+3.00,-2.00,+5.00,+15.00
-63.00,-95.00,-20.00,-8.00,-4.00,-1.00,+0.00,-8.00,-29.00,+73.00,+1.00,-13.00,-4.00,-1.00,-1.00,-12.00
+7.00,-128.00,+3.00,+4.00,+7.00,+4.00,+4.00,+7.00,+34.00,-124.00,-106.00,-26.00,-10.00,-9.00,-12.00,+0.00
+7.00,-61.00,-39.00,-12.00,-15.00,-11.00,-11.00,-12.00,-125.00,+123.00,+112.00,+19.00,+5.00,+5.00,+1.00,-15.00
-84.00,-74.00,-2.00,-13.00,-14.00,-12.00,-14.00,-41.00,-80.00,-65.00,-80.00,-16.00,-6.00,-6.00,-4.00,-17.00
+118.00,-62.00,+57.00,+26.00,+20.00,+19.00,+29.00,+60.00,-10.00,+24.00,+20.00,+18.00,+8.00,+7.00,+10.00,+19.00
-16.00,+54.00,+16.00,-9.00,-5.00,-5.00,-12.00,-22.00,+26.00,+127.00,+17.00,-2.00,-6.00,-4.00,+4.00,+9.00
-14.00,-44.00,+23.00,+1.00,+9.00,+3.00,+5.00,+20.00,+67.00,+16.00,+12.00,+0.00,+2.00,+1.00,-2.00,+21.00
-11.00,-85.00,-8.00,+6.00,+6.00,+5.00,+10.00,+8.00,-50.00,-71.00,-35.00,-24.00,-10.00,-13.00,-18.00,-36.00
-39.00,+114.00,+73.00,+13.00,+8.00,+0.00,-8.00,-15.00,+50.00,+93.00,-22.00,+11.00,+4.00,+7.00,+12.00,+7.00
+23.00,-74.00,-39.00,-9.00,-7.00,-4.00,+2.00,+18.00,-68.00,-31.00,-67.00,-10.00,+0.00,-4.00,+0.00,+1.00
-63.00,-14.00,-35.00,-18.00,-15.00,-11.00,-9.00,-19.00,-103.00,-127.00,-81.00,-10.00,-5.00,-2.00,-6.00,-35.00
+125.00,+46.00,+7.00,+29.00,+27.00,+20.00,+28.00,+62.00,-63.00,-8.00,+96.00,+9.00,+0.00,-4.00,+1.00,+0.00
-56.00,-123.00,+24.00,-12.00,-3.00,-9.00,-14.00,-13.00,+13.00,-10.00,+14.00,-11.00,-5.00,-9.00,-9.00,+4.00
+10.00,-22.00,+5.00,+16.00,+4.00,+5.00,+11.00,+20.00,+21.00,-126.00,-53.00,-6.00,+1.00,+5.00,+7.00,+27.00
-7.00,+77.00,+35.00,+10.00,+11.00,-5.00,-5.00,-7.00,-52.00,-49.00,+25.00,+3.00,+0.00,-5.00,-1.00,-5.00
+15.00,-108.00,-43.00,-12.00,-20.00,-5.00,-3.00,-2.00,-67.00,-44.00,+28.00,-4.00,-4.00,-1.00,-9.00,-29.00
+25.00,+31.00,-56.00,-16.00,-27.00,-12.00,-8.00,-24.00,-57.00,-34.00,-9.00,+3.00,+2.00,+1.00,+4.00,-19.00
+105.00,+40.00,+85.00,+30.00,+46.00,+19.00,+23.00,+60.00,+15.00,+61.00,+92.00,+14.00,+2.00,-16.00,-4.00,+0.00
-25.00,+63.00,-7.00,-2.00,+5.00,+1.00,-2.00,-8.00,+63.00,-95.00,-70.00,-10.00,-4.00,-4.00,-11.00,+17.00
-13.00,-75.00,+6.00,-13.00,-11.00,-4.00,-8.00,-18.00,-42.00,+24.00,-19.00,-15.00,-9.00,-6.00,-2.00,-41.00
+29.00,-7.00,-39.00,-3.00,-4.00,+0.00,+2.00,-6.00,+22.00,+46.00,+46.00,+9.00,+2.00,+1.00,+0.00,+1.00
-71.00,+43.00,-45.00,-11.00,-16.00,-9.00,-14.00,-36.00,+33.00,+24.00,+35.00,+0.00,-3.00,-5.00,-10.00,-5.00
+87.00,+22.00,+32.00,-13.00,-9.00,-9.00,-6.00,+0.00,-68.00,+86.00,-28.00,+16.00,+8.00,+10.00,+13.00,-15.00
-28.00,-14.00,-54.00,+5.00,+3.00,-2.00,-4.00,-15.00,-41.00,-32.00,-5.00,-6.00,-4.00,-3.00,-4.00,-8.00
-1.00,-52.00,+16.00,-6.00,-9.00,-6.00,-8.00,-11.00,-88.00,-8.00,+42.00,+16.00,+7.00,+6.00,+7.00,+6.00
-6.00,+69.00,+18.00,+9.00,+5.00,+0.00,-6.00,-1.00,-6.00,-58.00,+3.00,-1.00,+2.00,+9.00,+12.00,+7.00
+55.00,-29.00,+1.00,+7.00,+3.00,+11.00,+16.00,-1.00,+92.00,+45.00,-22.00,-8.00,-6.00,-7.00,-4.00,+13.00
-38.00,+100.00,-10.00,-15.00,-15.00,-8.00,+20.00,-25.00,+72.00,-28.00,+21.00,+2.00,+2.00,+1.00,+0.00,+17.00
+36.00,-19.00,+13.00,-9.00,+0.00,-5.00,-15.00,-5.00,+76.00,+64.00,-51.00,-4.00,+0.00,+2.00,+4.00,+29.00
-14.00,-92.00,-1.00,+13.00,+12.00,+9.00,+18.00,+0.00,-49.00,+115.00,+50.00,+5.00,+0.00,+1.00,-3.00,-24.00
-66.00,-61.00,-88.00,-16.00,-26.00,-14.00,-28.00,-39.00,-44.00,-16.00,+32.00,-1.00,-2.00,-1.00,-2.00,+3.00
+84.00,+1.00,+103.00,+18.00,+20.00,+12.00,+5.00,+45.00,+67.00,+100.00,-25.00,+4.00,+4.00,+1.00,+10.00,+51.00
-10.00,+37.00,-38.00,-5.00,+2.00,+3.00,+7.00,-3.00,-27.00,+17.00,+22.00,-11.00,-6.00,-7.00,-2.00,+4.00
+24.00,+92.00,+7.00,-2.00,+10.00,-3.00,-8.00,+1.00,+13.00,+67.00,-48.00,-10.00,-4.00,-4.00,-4.00,-21.00
+25.00,-63.00,+6.00,+18.00,+11.00,+13.00,+14.00,+27.00,-28.00,+34.00,+49.00,+7.00,+4.00,+5.00,+8.00,+12.00
-44.00,+4.00,+4.00,-4.00,-3.00,-4.00,-10.00,-9.00,+88.00,+58.00,-57.00,-5.00,-3.00,-2.00,+4.00,+0.00
+24.00,+113.00,-40.00,-12.00,-16.00,-16.00,-14.00,-21.00,-11.00,-92.00,-62.00,-1.00,+2.00,+6.00,+10.00,+10.00
-44.00,-91.00,-32.00,+1.00,-6.00,-2.00,-8.00,+1.00,-69.00,+32.00,+71.00,+13.00,+1.00,+3.00,-3.00,-30.00
-31.00,+15.00,-22.00,+2.00,+3.00,+6.00,+9.00,+3.00,+50.00,-28.00,+5.00,+3.00,+0.00,-3.00,-3.00,+2.00
-3.00,+13.00,+4.00,-11.00,-9.00,-5.00,-11.00,-21.00,+96.00,+38.00,-9.00,-5.00,-2.00,+0.00,+4.00,+17.00
-60.00,-71.00,+11.00,-6.00,+0.00,-9.00,-15.00,+3.00,+63.00,+94.00,+5.00,-10.00,-5.00,-3.00,-8.00,-8.00
-5.00,-84.00,-57.00,-3.00,-4.00,-1.00,+2.00,-20.00,-19.00,-105.00,+29.00,-6.00,-3.00,-4.00,+0.00,+5.00
+10.00,-65.00,+11.00,-16.00,-14.00,-11.00,-9.00,-12.00,+121.00,-52.00,-41.00,+1.00,+4.00,+4.00,+9.00,+36.00
+79.00,-3.00,+28.00,+14.00,+9.00,+6.00,+3.00,+29.00,+73.00,+64.00,+33.00,+14.00,+5.00,+3.00,+6.00,+4.00
+11.00,+72.00,-43.00,-6.00,-1.00,+5.00,+8.00,-3.00,-89.00,-128.00,+13.00,-6.00,-9.00,-15.00,-25.00,-50.00
+109.00,+51.00,+100.00,+8.00,+6.00,+7.00,+12.00,+27.00,-10.00,+73.00,+21.00,+10.00,+2.00,+1.00,+8.00,+29.00
-37.00,+68.00,-19.00,+2.00,+2.00,+0.00,-5.00,-17.00,-121.00,-81.00,-20.00,-14.00,-6.00,-7.00,-4.00,-26.00
-43.00,-71.00,+13.00,-16.00,-20.00,-10.00,-11.00,-12.00,+54.00,+80.00,+25.00,-3.00,-4.00,-4.00,-5.00,+24.00
-13.00,-56.00,+13.00,+6.00,+2.00,+0.00,+5.00,+15.00,-23.00,-114.00,-18.00,+1.00,+1.00,+2.00,+4.00,-4.00
-30.00,-65.00,-100.00,-17.00,-13.00,-7.00,-5.00,-17.00,+90.00,-67.00,-15.00,-10.00,-5.00,-4.00,-6.00,+2.00
-3.00,+74.00,+24.00,-5.00,+1.00,-5.00,-7.00,+11.00,+74.00,+74.00,+44.00,+9.00,+2.00,+0.00,-1.00,+3.00
+9.00,+18.00,+10.00,-3.00,-3.00,-1.00,+0.00,+7.00,-110.00,-98.00,-65.00,-14.00,-5.00,-1.00,+10.00,-10.00
+6.00,+57.00,+52.00,+23.00,+14.00,+17.00,+17.00,+25.00,-66.00,+95.00,+5.00,+1.00,+1.00,-2.00,-6.00,+15.00
-47.00,+21.00,-61.00,-19.00,-19.00,-13.00,-25.00,-59.00,-32.00,-95.00,+1.00,-7.00,-2.00,-6.00,-11.00,-20.00
-66.00,-20.00,+33.00,+13.00,+10.00,+2.00,+1.00,-2.00,+12.00,-15.00,-9.00,-3.00,-3.00,+0.00,-3.00,+1.00
-3.00,-115.00,-18.00,+12.00,+8.00,+1.00,-2.00,-5.00,-92.00,+1.00,-62.00,-6.00,-1.00,-2.00,-3.00,-27.00
-9.00,-79.00,+0.00,-10.00,-7.00,-9.00,-8.00,-24.00,+64.00,+93.00,+81.00,+3.00,-3.00,-4.00,-4.00,+4.00
+127.00,+48.00,+5.00,+12.00,-3.00,+4.00,+7.00,+25.00,-9.00,+3.00,+52.00,+19.00,+7.00,+7.00,+4.00,+4.00
-33.00,+40.00,+35.00,-14.00,-7.00,-14.00,-13.00,-15.00,-128.00,+22.00,+31.00,+13.00,+5.00,+2.00,+7.00,+17.00
-10.00,+120.00,+27.00,+1.00,-10.00,-5.00,-14.00,-6.00,-97.00,-91.00,-54.00,-23.00,-8.00,-4.00,-10.00,-10.00
-6.00,-44.00,-33.00,-14.00,-13.00,-4.00,+11.00,-2.00,-109.00,+9.00,+9.00,-1.00,-2.00,-2.00,-5.00,-32.00
-44.00,-87.00,+11.00,+1.00,+6.00,+7.00,+2.00,+6.00,+5.00,-9.00,-116.00,-1.00,+2.00,+3.00,+2.00,+8.00
+25.00,-128.00,-58.00,-10.00,-10.00,-6.00,-3.00,-14.00,+85.00,-29.00,+79.00,-6.00,-6.00,-7.00,-14.00,-19.00
+14.00,-7.00,+14.00,+5.00,+9.00,+3.00,-1.00,+17.00,-85.00,+59.00,+0.00,+13.00,+6.00,+8.00,+9.00,+4.00
+48.00,+55.00,-1.00,-6.00,-1.00,+0.00,-1.00,+8.00,-41.00,+43.00,+15.00,+18.00,+11.00,+9.00,+6.00,-13.00
-48.00,+28.00,-28.00,-9.00,-11.00,-11.00,-4.00,+0.00,+73.00,-55.00,+34.00,-15.00,-10.00,-5.00,+0.00,+17.00
+7.00,+55.00,+49.00,+24.00,+22.00,+15.00,+21.00,+34.00,-64.00,-35.00,+10.00,+0.00,+0.00,-2.00,-3.00,-15.00
+2.00,+125.00,-21.00,-8.00,-8.00,+0.00,-5.00,-16.00,+59.00,-14.00,+13.00,-11.00,-5.00,-5.00,+1.00,+2.00
-12.00,+32.00,+41.00,-14.00,-5.00,-3.00,-6.00,-12.00,+92.00,-73.00,+102.00,+0.00,-2.00,-5.00,-12.00,-13.00
-21.00,+30.00,-30.00,+5.00,+8.00,+6.00,+4.00,+5.00,-121.00,-59.00,+7.00,+4.00,+6.00,+9.00,+10.00,-13.00
+40.00,+73.00,+110.00,+12.00,+11.00,+10.00,+9.00,+24.00,+127.00,-4.00,+6.00,+10.00,+4.00,+8.00,-5.00,+3.00
+36.00,+30.00,-32.00,-20.00,-23.00,-20.00,-18.00,-38.00,+9.00,-50.00,-6.00,-2.00,+1.00,-4.00,+20.00,+4.00
+102.00,+67.00,-15.00,+29.00,+26.00,+17.00,+20.00,+72.00,+62.00,+31.00,-11.00,-1.00,+1.00,+10.00,+12.00,+40.00
+47.00,+71.00,+60.00,+15.00,+14.00,+11.00,+12.00,+29.00,-51.00,+24.00,+24.00,-9.00,-5.00,-5.00,-2.00,+2.00
-71.00,-75.00,-65.00,-31.00,-28.00,-17.00,-21.00,-46.00,-115.00,-40.00,-66.00,-10.00,-4.00,+0.00,+2.00,-11.00
-19.00,-104.00,+1.00,+5.00,+14.00,-2.00,+8.00,-5.00,-31.00,-60.00,+24.00,+13.00,+5.00,+2.00,-7.00,+4.00
-39.00,+22.00,-14.00,+1.00,-5.00,+7.00,-15.00,-10.00,-86.00,-36.00,-45.00,-7.00,-5.00,-5.00,-4.00,-5.00
-34.00,-24.00,-73.00,-7.00,-17.00,-15.00,-19.00,+1.00,-45.00,+82.00,-13.00,+10.00,+6.00,+9.00,+14.00,+8.00
+109.00,-106.00,-128.00,+12.00,-1.00,+16.00,+14.00,+44.00,-48.00,+46.00,-46.00,-9.00,-5.00,-3.00,-6.00,-16.00
-11.00,+63.00,+94.00,+18.00,+14.00,+10.00,+52.00,+35.00,+53.00,-19.00,+51.00,+11.00,+4.00,+2.00,-7.00,+5.00
-6.00,+36.00,+72.00,+3.00,+15.00,+6.00,-7.00,-4.00,-31.00,-1.00,-74.00,-20.00,-11.00,-11.00,-8.00,-11.00
-29.00,+26.00,+43.00,-4.00,+1.00,+3.00,+18.00,-4.00,-11.00,+44.00,-2.00,-11.00,-9.00,-11.00,-17.00,+6.00
-24.00,-5.00,-60.00,-8.00,-9.00,-10.00,-2.00,-23.00,-30.00,-30.00,-52.00,-13.00,-4.00,-4.00,+2.00,-6.00
-5.00,-2.00,-16.00,-4.00,+0.00,+3.00,-2.00,+19.00,-34.00,+74.00,+41.00,+16.00,+5.00,+2.00,+0.00,+1.00
-15.00,+44.00,+7.00,+12.00,+8.00,+3.00,+10.00,+21.00,-71.00,+22.00,-39.00,-15.00,-7.00,-4.00,-3.00,-13.00
-128.00,-72.00,-6.00,-8.00,-4.00,-1.00,-20.00,-20.00,+86.00,-128.00,-64.00,-15.00,-7.00,-8.00,-4.00,-14.00
+99.00,+101.00,+78.00,+23.00,+20.00,+7.00,+15.00,+42.00,-113.00,-11.00,+94.00,+15.00,+7.00,+7.00,-23.00,-15.00
-23.00,-97.00,+6.00,-10.00,-2.00,+0.00,-7.00,-6.00,-17.00,-52.00,-23.00,-12.00,-7.00,-4.00,-12.00,-13.00
-85.00,-122.00,-54.00,-18.00,-19.00,-17.00,-16.00,-50.00,+31.00,+4.00,-1.00,+6.00,+4.00,+3.00,+4.00,+16.00
+91.00,-114.00,-26.00,-9.00,-4.00,-3.00,-4.00,-9.00,+98.00,+125.00,-54.00,+0.00,-1.00,+3.00,+6.00,+35.00
+14.00,-57.00,-62.00,-28.00,-25.00,-19.00,-26.00,-59.00,+32.00,-71.00,-16.00,-7.00,-5.00,-3.00,-1.00,+8.00
+108.00,-93.00,+27.00,+11.00,+13.00,+10.00,+10.00,+18.00,-38.00,-29.00,-45.00,-15.00,-7.00,-12.00,-9.00,-6.00
+113.00,+50.00,-37.00,+20.00,+7.00,+8.00,+5.00,+8.00,-28.00,+52.00,+41.00,+16.00,+7.00,+1.00,+2.00,-6.00
+78.00,+108.00,+39.00,-35.00,-15.00,-14.00,-9.00,-12.00,-47.00,-36.00,-14.00,-7.00,-1.00,-6.00,-8.00,-18.00
-27.00,-74.00,+3.00,-5.00,-3.00,-4.00,-8.00,-14.00,+46.00,+117.00,+36.00,+4.00,+3.00,+3.00,+13.00,+18.00
-68.00,-20.00,-66.00,+0.00,-4.00,-5.00,-18.00,-18.00,-52.00,-77.00,-36.00,-12.00,-6.00,-2.00,-5.00,-6.00
-121.00,-128.00,-73.00,-25.00,-9.00,-4.00,+3.00,-29.00,+19.00,-128.00,-58.00,-16.00,-7.00,-10.00,-4.00,+3.00
-91.00,-10.00,+22.00,-2.00,+8.00,-8.00,-4.00,-4.00,-51.00,+85.00,+51.00,+20.00,+7.00,+2.00,-6.00,-30.00
-124.00,-16.00,-42.00,+6.00,+1.00,+4.00,+3.00,+28.00,+0.00,+127.00,+50.00,+2.00,-1.00,+3.00,-2.00,+26.00
-128.00,-86.00,-14.00,-20.00,-19.00,-16.00,-20.00,-44.00,+19.00,+19.00,-6.00,+1.00,+2.00,-7.00,+5.00,-1.00
-75.00,-68.00,-7.00,-15.00,-1.00,-7.00,+2.00,+5.00,-118.00,-71.00,-38.00,-8.00,-4.00,-6.00,-10.00,-48.00
-87.00,+26.00,+39.00,+28.00,+22.00,+16.00,+21.00,+13.00,-24.00,+75.00,+118.00,+28.00,+12.00,+12.00,+26.00,+53.00
-126.00,-24.00,+24.00,-5.00,-1.00,-4.00,-19.00,-23.00,-80.00,+22.00,-59.00,-15.00,-9.00,-10.00,-32.00,-50.00
+28.00,+47.00,-56.00,+7.00,-16.00,+1.00,+2.00,+34.00,+16.00,+25.00,+26.00,+11.00,+4.00,+5.00,+6.00,-4.00
+24.00,-28.00,+29.00,-6.00,+1.00,-10.00,-10.00,-10.00,+44.00,-80.00,-41.00,-6.00,+0.00,+3.00,+3.00,-4.00
-97.00,+30.00,-10.00,-7.00,-15.00,-7.00,-8.00,-22.00,+33.00,-51.00,-15.00,-11.00,-8.00,-7.00,-8.00,-1.00
+28.00,+60.00,+115.00,+26.00,+21.00,+14.00,+17.00,+27.00,-18.00,-84.00,+24.00,+0.00,-4.00,-2.00,+6.00,-4.00
-84.00,-80.00,-57.00,-2.00,-1.00,-3.00,+13.00,+10.00,+104.00,+71.00,+12.00,+14.00,+7.00,+14.00,+7.00,+35.00
+49.00,-63.00,+84.00,+32.00,+26.00,+13.00,+26.00,+44.00,-15.00,-73.00,-8.00,-3.00,-1.00,-2.00,-4.00,+8.00
+61.00,-34.00,-1.00,+8.00,-1.00,+8.00,+5.00,+11.00,-16.00,+59.00,+8.00,-9.00,-6.00,-6.00,-13.00,-13.00
+39.00,+2.00,+10.00,+16.00,+8.00,+3.00,-21.00,+9.00,+31.00,-20.00,-12.00,+1.00,+4.00,+0.00,+12.00,+14.00
+13.00,-4.00,-39.00,-18.00,+3.00,-2.00,+4.00,-3.00,+100.00,-5.00,+26.00,-5.00,-3.00,-4.00,-6.00,+23.00
-20.00,+106.00,-45.00,-2.00,-11.00,-9.00,-14.00,-12.00,-71.00,+45.00,+42.00,+9.00,-1.00,-1.00,+4.00,+5.00
-5.00,+18.00,+76.00,-5.00,+2.00,+1.00,+5.00,+0.00,+84.00,+35.00,+1.00,-4.00,-3.00,-4.00,-6.00,-5.00
-53.00,-106.00,-23.00,-7.00,-8.00,-9.00,-12.00,-27.00,+126.00,-42.00,-2.00,-14.00,-6.00,-4.00,+0.00,+13.00
+7.00,-55.00,-15.00,-10.00,+3.00,-10.00,-18.00,-9.00,+14.00,-112.00,-93.00,-10.00,-2.00,+2.00,-1.00,+12.00
-20.00,+58.00,+9.00,+12.00,+4.00,+16.00,+17.00,+8.00,+48.00,+110.00,+64.00,+18.00,+7.00,+5.00,+5.00,+3.00
-42.00,-21.00,-38.00,-24.00,-28.00,-15.00,-23.00,-27.00,-20.00,-124.00,-47.00,-2.00,+3.00,+10.00,+12.00,+11.00
-62.00,+56.00,-3.00,-22.00,-21.00,-14.00,-7.00,-37.00,+32.00,-88.00,-96.00,-3.00,+0.00,-8.00,+2.00,+4.00
+56.00,+48.00,+10.00,+19.00,+21.00,+14.00,+6.00,+12.00,-39.00,+117.00,+41.00,+2.00,-1.00,-2.00,-8.00,-20.00
-31.00,+18.00,-33.00,-11.00,-22.00,-15.00,-12.00,-30.00,-5.00,-25.00,-54.00,-6.00,+0.00,+0.00,-1.00,+0.00
+1.00,-2.00,-26.00,+6.00,+4.00,+7.00,+3.00,+28.00,-104.00,-109.00,-26.00,-9.00,-5.00,-4.00,-7.00,-17.00
+6.00,-69.00,-82.00,-14.00,+3.00,+0.00,+4.00,+4.00,-30.00,-97.00,-20.00,-7.00,-2.00,+0.00,+5.00,+2.00
-94.00,-60.00,+1.00,-11.00,-7.00,-4.00,+1.00,-11.00,-59.00,+93.00,+79.00,+12.00,+5.00,+5.00,+10.00,+4.00
+35.00,-44.00,+38.00,+9.00,+16.00,+1.00,+3.00,+40.00,+41.00,-110.00,-100.00,-7.00,-1.00,-4.00,-24.00,+0.00
+26.00,-18.00,+41.00,+19.00,+2.00,+8.00,+9.00,+10.00,+28.00,-33.00,+70.00,+7.00,+0.00,-4.00,-4.00,-6.00
+34.00,+86.00,+67.00,+7.00,+18.00,+11.00,+26.00,+52.00,-82.00,+127.00,+43.00,+10.00,-1.00,-3.00,-1.00,-26.00
+59.00,-20.00,+41.00,-1.00,-3.00,+2.00,-5.00,-3.00,+79.00,+13.00,-37.00,+1.00,+3.00,+7.00,+10.00,+46.00
-4.00,-26.00,-50.00,-1.00,+3.00,+0.00,-7.00,-2.00,-35.00,+93.00,+78.00,-2.00,-1.00,-3.00,+1.00,-5.00
+43.00,-109.00,+38.00,+5.00,+15.00,+0.00,+7.00,+14.00,-86.00,-72.00,-79.00,-9.00,-6.00,-7.00,-6.00,-8.00
-53.00,+4.00,-41.00,-1.00,+0.00,+0.00,+0.00,-14.00,-75.00,+113.00,-13.00,+4.00,-3.00,-1.00,-5.00,-23.00
+13.00,+66.00,-10.00,-12.00,-14.00,-3.00,-12.00,-7.00,+14.00,-123.00,+24.00,-1.00,-5.00,-6.00,-7.00,-17.00
-74.00,-65.00,+13.00,-3.00,-4.00,-10.00,+4.00,-26.00,-51.00,+124.00,+34.00,+4.00,-2.00,+0.00,+6.00,-1.00
-25.00,-28.00,-48.00,+4.00,+12.00,+1.00,-5.00,-20.00,+4.00,+40.00,+11.00,+0.00,+4.00,+2.00,-1.00,-2.00
+31.00,-104.00,-45.00,-3.00,-16.00,+3.00,+4.00,-8.00,-17.00,-26.00,+46.00,+4.00,+3.00,+2.00,+6.00,+2.00
+24.00,+61.00,+29.00,+5.00,+5.00,+1.00,+0.00,+17.00,-77.00,-28.00,-27.00,-8.00,-6.00,-4.00,-9.00,-25.00
-60.00,+97.00,-81.00,-25.00,-20.00,-10.00,-12.00,-21.00,-20.00,-94.00,+23.00,+2.00,+3.00,+6.00,+10.00,+18.00
-23.00,-33.00,+27.00,+6.00,-3.00,+1.00,+2.00,-10.00,+103.00,+26.00,+29.00,-9.00,-5.00,-8.00,-8.00,-4.00
+39.00,-73.00,-17.00,+1.00,+6.00,-3.00,+0.00,-4.00,-43.00,+32.00,+5.00,+3.00,+6.00,+4.00,+6.00,+2.00
-19.00,+12.00,+20.00,+6.00,+10.00,+1.00,+0.00,+1.00,+0.00,+3.00,+66.00,+4.00,-2.00,-1.00,-4.00,-14.00
+57.00,-71.00,+17.00,+9.00,-8.00,+3.00,+2.00,+20.00,-5.00,+19.00,-2.00,-2.00,-1.00,-3.00,-1.00,+3.00
+67.00,-25.00,+28.00,+10.00,+2.00,+6.00,+8.00,+26.00,-13.00,-46.00,+5.00,+1.00,-1.00,-1.00,+0.00,-1.00
+30.00,-45.00,-41.00,-7.00,-2.00,-4.00,-2.00,-3.00,+84.00,-59.00,+11.00,+0.00,+0.00,-3.00,-2.00,+4.00
-9.00,-93.00,-44.00,+6.00,-2.00,+0.00,-2.00,-6.00,-70.00,-53.00,-42.00,+0.00,+0.00,+2.00,+0.00,-18.00
+11.00,-6.00,+49.00,-9.00,-9.00,-8.00,-6.00,+2.00,-17.00,+65.00,+8.00,-5.00,-6.00,-3.00,+2.00,+1.00
-1.00,+52.00,+14.00,+0.00,+5.00,+3.00,+4.00,+11.00,-10.00,+7.00,-4.00,+5.00,+0.00,-1.00,-4.00,-5.00
-9.00,+31.00,-53.00,-4.00,-14.00,-4.00,-4.00,-11.00,+46.00,+53.00,+5.00,-3.00,-3.00,-6.00,-3.00,+0.00
+5.00,+60.00,+8.00,+1.00,+4.00,+1.00,+2.00,+9.00,-67.00,-83.00,-63.00,-10.00,-3.00,-2.00,+5.00,-14.00
+4.00,-49.00,-4.00,+7.00,+1.00,+4.00,-3.00,-8.00,+66.00,-67.00,+1.00,-2.00,-1.00,-1.00,-2.00,+4.00
+25.00,+9.00,-29.00,-7.00,+1.00,-6.00,-10.00,-7.00,+54.00,+65.00,-33.00,-2.00,-1.00,-2.00,-2.00,-4.00
-12.00,+60.00,+46.00,-9.00,-9.00,-4.00,-3.00,-1.00,-57.00,-49.00,-23.00,-3.00,-2.00,+0.00,-1.00,+4.00
-25.00,-38.00,-32.00,-5.00,-11.00,-5.00,-6.00,-14.00,-4.00,+74.00,+26.00,+3.00,+2.00,+1.00,+2.00,+1.00
+79.00,+90.00,+82.00,+16.00,+19.00,+11.00,+9.00,+27.00,-25.00,-9.00,-14.00,-2.00,-1.00,-4.00,-1.00,+2.00
-73.00,-68.00,-7.00,-5.00,-5.00,+0.00,+1.00,-13.00,-34.00,-17.00,+9.00,+2.00,+0.00,+0.00,-3.00,-4.00
+22.00,+11.00,+3.00,-3.00,-8.00,-6.00,-20.00,-3.00,-30.00,-24.00,-10.00,-10.00,-6.00,-1.00,+0.00,-4.00
-35.00,+31.00,+19.00,-6.00,-15.00,-7.00,+2.00,-17.00,-57.00,-26.00,-18.00,-8.00,-2.00,-4.00,-11.00,-16.00
-13.00,-47.00,+42.00,-4.00,+6.00,+5.00,-6.00,+4.00,-11.00,+53.00,+20.00,+1.00,+1.00,+0.00,+1.00,-2.00
+6.00,+3.00,-37.00,+1.00,+1.00,-5.00,-7.00,-4.00,-19.00,+0.00,-59.00,-10.00,-4.00,-2.00,-3.00,-4.00
-9.00,+76.00,+43.00,-1.00,+4.00,-5.00,+6.00,-3.00,+62.00,+17.00,+9.00,+0.00,-1.00,-2.00,-3.00,+4.00
+33.00,+67.00,+14.00,+3.00,+1.00,+5.00,+3.00,+11.00,-30.00,+68.00,+14.00,+1.00,-1.00,-2.00,-2.00,-1.00
-1.00,-24.00,-26.00,-4.00,+13.00,-10.00,-5.00,-11.00,+4.00,-39.00,-10.00,-2.00,-4.00,-1.00,-4.00,-2.00
-7.00,+6.00,-5.00,-7.00,-18.00,-4.00,-1.00,-7.00,-22.00,+1.00,+1.00,+1.00,+4.00,-1.00,+2.00,-7.00
+10.00,-16.00,+16.00,+6.00,+6.00,-1.00,-1.00,+1.00,+13.00,+3.00,-12.00,+2.00,-2.00,-1.00,+2.00,+8.00
+5.00,+4.00,-4.00,-3.00,+4.00,+3.00,-3.00,-10.00,+65.00,-19.00,+25.00,-4.00,-6.00,-7.00,-9.00,+7.00
-34.00,-14.00,-6.00,-8.00,-22.00,-6.00,-2.00,-14.00,+23.00,+92.00,+9.00,+6.00,+2.00,+2.00,+6.00,-3.00
-15.00,-73.00,-27.00,+3.00,+5.00,-1.00,-5.00,-2.00,-31.00,-5.00,-5.00,-3.00,-13.00,-1.00,+0.00,-9.00
+4.00,+60.00,+33.00,-1.00,+12.00,+6.00,+7.00,+5.00,+32.00,-39.00,-20.00,+0.00,+34.00,-1.00,+2.00,+0.00
-22.00,-23.00,-21.00,-3.00,+0.00,-6.00,-3.00,-5.00,+22.00,+11.00,+10.00,-4.00,+3.00,+2.00,-5.00,-1.00
-26.00,-18.00,+1.00,+0.00,-6.00,+4.00,-1.00,-4.00,+40.00,-38.00,+0.00,-6.00,-7.00,-7.00,-4.00,+8.00
+24.00,-14.00,-8.00,-10.00,-14.00,-7.00,-4.00,-9.00,+62.00,+13.00,-12.00,-6.00,-10.00,-6.00,-8.00,-8.00
+51.00,+10.00,-4.00,+6.00,-1.00,+1.00,+3.00,+6.00,+57.00,+50.00,+3.00,+3.00,-6.00,-1.00,+4.00,+10.00
+22.00,-5.00,+18.00,+3.00,+8.00,+1.00,+2.00,+3.00,-4.00,+26.00,-1.00,+7.00,+8.00,-15.00,+10.00,+6.00
-11.00,+24.00,-35.00,-6.00,-3.00,-5.00,-10.00,-19.00,-29.00,-53.00,-11.00,-10.00,-2.00,+14.00,-20.00,-9.00
-74.00,+39.00,+23.00,+9.00,+11.00,+7.00,+6.00,+25.00,-2.00,-15.00,-5.00,-5.00,+7.00,+3.00,-1.00,-11.00
-72.00,-23.00,-5.00,-6.00,-3.00,+1.00,+5.00,+2.00,-2.00,-5.00,-7.00,+10.00,+8.00,+3.00,+2.00,+5.00
-123.00,-56.00,+1.00,-2.00,-1.00,-5.00,-2.00,+0.00,+18.00,-29.00,-13.00,-10.00,+17.00,+11.00,+3.00,-3.00
-116.00,+14.00,-4.00,-3.00,-12.00,-3.00,-47.00,-5.00,+42.00,-23.00,-2.00,+1.00,-11.00,-25.00,-5.00,+2.00
-47.00,+62.00,-30.00,-4.00,+1.00,+10.00,+13.00,-8.00,-93.00,-10.00,+5.00,+0.00,-16.00,+0.00,+6.00,-5.00
-61.00,-106.00,-16.00,-7.00,-5.00,-7.00,-4.00,-24.00,-50.00,-42.00,-11.00,-12.00,-5.00,-12.00,-11.00,-7.00
+40.00,-48.00,+27.00,+10.00,+15.00,+15.00,+0.00,+16.00,+5.00,+3.00,-2.00,+8.00,-14.00,+11.00,+5.00,+7.00
+101.00,-29.00,+4.00,-4.00,-15.00,-12.00,+20.00,-2.00,+0.00,+0.00,-4.00,-4.00,-1.00,+3.00,+4.00,-3.00
+85.00,-7.00,-17.00,-5.00,+8.00,+15.00,-23.00,-7.00,-4.00,+2.00,+5.00,-2.00,+5.00,+0.00,-1.00,+9.00
+100.00,-31.00,+3.00,+1.00,+9.00,-2.00,-6.00,+1.00,-5.00,-34.00,-10.00,-1.00,-3.00,-3.00,-3.00,+4.00
+87.00,+10.00,-23.00,-9.00,-9.00,-9.00,+2.00,-11.00,+2.00,+46.00,-7.00,-3.00,-18.00,-5.00,+0.00,+0.00
+56.00,-48.00,-3.00,+0.00,+4.00,+3.00,-7.00,-2.00,+10.00,-6.00,+2.00,-1.00,+13.00,-1.00,+4.00,-3.00
+78.00,-50.00,-4.00,+0.00,-8.00,-14.00,+13.00,-1.00,-5.00,-1.00,-2.00,+2.00,+13.00,+13.00,-4.00,-4.00
+51.00,+48.00,+23.00,+4.00,-5.00,+8.00,-4.00,+6.00,-45.00,-28.00,+4.00,-1.00,-5.00,-2.00,+2.00,-5.00
+32.00,-44.00,-33.00,-8.00,-17.00,-14.00,-16.00,-27.00,-7.00,-18.00,-9.00,+2.00,-3.00,+3.00,-6.00,+0.00
+35.00,+70.00,+51.00,+15.00,+31.00,+31.00,+26.00,+51.00,+25.00,-2.00,-6.00,-2.00,+0.00,-1.00,+1.00,-1.00
+25.00,-60.00,-12.00,-5.00,-13.00,-9.00,-2.00,-6.00,-108.00,-43.00,+7.00,-2.00,-16.00,-13.00,+5.00,-1.00
+29.00,-21.00,+1.00,-4.00,-11.00,+4.00,-1.00,+1.00,+48.00,+53.00,+6.00,+6.00,+15.00,+11.00,-7.00,+1.00
-12.00,-12.00,+1.00,+0.00,+3.00,-5.00,-6.00,-2.00,+3.00,-10.00,-2.00,+8.00,-2.00,-16.00,-2.00,-11.00
+7.00,-21.00,-14.00,-7.00,-16.00,-13.00,+1.00,-13.00,+0.00,+8.00,-6.00,-13.00,-26.00,-14.00,+8.00,+0.00
+4.00,+9.00,-8.00,-2.00,+8.00,+4.00,-1.00,+4.00,-19.00,-7.00,+1.00,+13.00,+16.00,+15.00,-6.00,+3.00
+0.00,+23.00,+10.00,+2.00,+10.00,-4.00,-1.00,+7.00,+58.00,+17.00,+5.00,-14.00,-30.00,+6.00,+2.00,-1.00
+21.00,+31.00,+18.00,+5.00,-2.00,-5.00,+5.00,+11.00,+24.00,-3.00,+0.00,+0.00,+10.00,+12.00,-1.00,+2.00
+26.00,-10.00,-11.00,-6.00,-8.00,-7.00,+6.00,-12.00,-65.00,-66.00,-11.00,+2.00,+0.00,-4.00,+6.00,-11.00
+21.00,+15.00,-9.00,-5.00,-10.00,-8.00,-1.00,-3.00,-9.00,+52.00,+11.00,-4.00,+3.00,+9.00,+5.00,+5.00
+58.00,+1.00,+5.00,+0.00,+7.00,-7.00,-15.00,-4.00,-24.00,+3.00,+2.00,+16.00,-8.00,-18.00,-20.00,-3.00
+41.00,+35.00,+2.00,+0.00,-5.00,+2.00,+7.00,+6.00,+9.00,+6.00,+1.00,-2.00,-22.00,-6.00,+34.00,+5.00
+47.00,+7.00,-2.00,+0.00,-3.00,+1.00,+4.00,-7.00,+1.00,-5.00,-1.00,-6.00,-6.00,+4.00,-15.00,-12.00
-7.00,-82.00,-12.00,+0.00,+12.00,-9.00,-16.00,-7.00,+58.00,+18.00,-8.00,-7.00,-2.00,-10.00,+27.00,+3.00
+2.00,-11.00,+5.00,-1.00,-6.00,+3.00,+15.00,+2.00,-48.00,-20.00,-6.00,+2.00,-14.00,+0.00,-8.00,-12.00
+31.00,+99.00,-4.00,-1.00,+17.00,-18.00,-9.00,-5.00,-24.00,+6.00,+5.00,-10.00,+24.00,+4.00,-6.00,+2.00
-25.00,-35.00,+4.00,+5.00,+14.00,+3.00,+3.00,+2.00,-1.00,+7.00,+1.00,+2.00,+8.00,+2.00,-16.00,+0.00
+33.00,+54.00,-3.00,-5.00,-17.00,-9.00,-11.00,-2.00,+7.00,-1.00,-6.00,-2.00,-7.00,-4.00,-8.00,-1.00
-9.00,-32.00,+11.00,+3.00,+8.00,+8.00,+24.00,+11.00,+25.00,+6.00,+1.00,+5.00,+28.00,+0.00,+7.00,+5.00
-2.00,-17.00,+2.00,-1.00,-20.00,-6.00,-19.00,+2.00,+7.00,-15.00,-2.00,+8.00,+15.00,-2.00,+5.00,-2.00
-25.00,-38.00,-7.00,-5.00,-14.00,-1.00,-20.00,-10.00,-14.00,+11.00,+4.00,-7.00,-6.00,-15.00,+5.00,+3.00
+36.00,+56.00,+0.00,+1.00,+12.00,+3.00,+1.00,+0.00,+13.00,-8.00,-4.00,-2.00,+3.00,+18.00,-13.00,-5.00
-34.00,+4.00,-8.00,-4.00,+3.00,-8.00,-10.00,-6.00,-4.00,-7.00,-3.00,-14.00,-20.00,-1.00,+8.00,+7.00
-1.00,+6.00,+0.00,-1.00,+3.00,+26.00,+16.00,+2.00,-17.00,-19.00,-5.00,-1.00,+12.00,-3.00,-15.00,-6.00
-9.00,+4.00,-2.00,-1.00,-12.00,-10.00,+9.00,-4.00,-11.00,-5.00,-1.00,+0.00,-10.00,-13.00,+4.00,+5.00
-23.00,+8.00,+4.00,+1.00,-3.00,+19.00,-6.00,+0.00,+16.00,-8.00,-7.00,+0.00,-14.00,+12.00,-3.00,+2.00
-9.00,+3.00,-2.00,-3.00,-14.00,-5.00,-2.00,-1.00,+18.00,+2.00,+4.00,+4.00,-1.00,-7.00,+5.00,-14.00
+3.00,-43.00,-3.00,-3.00,-6.00,+2.00,+1.00,+5.00,-56.00,+2.00,+3.00,-5.00,+10.00,-3.00,-10.00,-6.00
-34.00,-20.00,-1.00,+0.00,-9.00,-1.00,-4.00,+2.00,+30.00,+4.00,-5.00,-1.00,-11.00,+5.00,-9.00,-2.00
+8.00,+20.00,+4.00,+4.00,+25.00,-3.00,+6.00,-1.00,+30.00,+22.00,-2.00,-10.00,-18.00,-14.00,+2.00,+7.00
+14.00,+31.00,+2.00,-1.00,-16.00,+5.00,+3.00,+0.00,+6.00,-5.00,+1.00,+1.00,+33.00,+4.00,-18.00,-9.00
-13.00,-8.00,-2.00,-2.00,-9.00,-1.00,+2.00,+1.00,-1.00,+6.00,+1.00,-5.00,-28.00,+7.00,+19.00,-1.00
-33.00,-40.00,-19.00,-6.00,+8.00,-7.00,+5.00,-13.00,-14.00,-4.00,-2.00,+11.00,+21.00,-5.00,-6.00,-2.00
+27.00,-36.00,+6.00,+0.00,-11.00,-7.00,-17.00,+3.00,-27.00,-33.00,+2.00,-6.00,+1.00,-16.00,-3.00,-8.00
+5.00,+78.00,+9.00,+5.00,+19.00,+3.00,-7.00,-1.00,+4.00,+23.00,+3.00,-2.00,-9.00,+2.00,-32.00,+4.00
+32.00,+71.00,+7.00,+2.00,-1.00,-4.00,-2.00,-2.00,+5.00,+8.00,-2.00,-1.00,-10.00,-5.00,-20.00,-2.00
-19.00,-21.00,-4.00,-4.00,-16.00,-9.00,+35.00,+0.00,-16.00,-3.00,+1.00,-8.00,-17.00,+15.00,+7.00,+1.00
-26.00,+1.00,-3.00,-2.00,-10.00,-4.00,-4.00,+1.00,-4.00,-13.00,-4.00,+8.00,+47.00,-3.00,-1.00,-1.00
-20.00,-44.00,-11.00,-6.00,-11.00,-10.00,+34.00,-6.00,-3.00,+0.00,-2.00,+0.00,-19.00,-4.00,+13.00,-1.00
-42.00,-23.00,-2.00,+1.00,+13.00,+3.00,-48.00,-2.00,-14.00,-18.00,-3.00,+10.00,+1.00,-5.00,-8.00,-5.00
+38.00,+51.00,+5.00,-1.00,+1.00,+0.00,-25.00,-4.00,+4.00,+2.00,+4.00,+4.00,+3.00,+7.00,+8.00,-1.00
+12.00,-45.00,-8.00,-1.00,+15.00,+13.00,+12.00,-2.00,+0.00,+0.00,-5.00,-9.00,-34.00,-3.00,-11.00,-3.00
+21.00,-21.00,+0.00,+0.00,-3.00,+7.00,-6.00,+1.00,+14.00,+2.00,+1.00,-24.00,+2.00,-4.00,+7.00,+6.00
-23.00,-23.00,+2.00,+1.00,-6.00,-1.00,+15.00,+3.00,+12.00,-12.00,-4.00,-12.00,-17.00,-3.00,-5.00,-2.00
-5.00,-8.00,+1.00,-4.00,-12.00,-8.00,-6.00,-4.00,-7.00,+4.00,+1.00,+4.00,-2.00,+2.00,-4.00,+3.00
-16.00,+9.00,+1.00,-3.00,+1.00,+0.00,+2.00,+0.00,-11.00,+0.00,+0.00,+12.00,-3.00,-3.00,+1.00,-2.00
-29.00,-15.00,-5.00,-1.00,-1.00,+11.00,-7.00,-5.00,+12.00,+6.00,-3.00,+5.00,+12.00,+6.00,+10.00,+2.00
-9.00,+12.00,+0.00,+3.00,+15.00,-7.00,+17.00,+1.00,-47.00,-19.00,-1.00,-1.00,-15.00,+3.00,-6.00,+2.00
+10.00,-24.00,+3.00,+2.00,+23.00,+17.00,-20.00,+5.00,+49.00,+23.00,+5.00,+9.00,+36.00,+6.00,+9.00,+4.00
-24.00,+24.00,+1.00,-1.00,-62.00,-19.00,+7.00,-7.00,-4.00,-1.00,-2.00,-1.00,-3.00,-5.00,-2.00,-2.00
+12.00,+45.00,-3.00,-6.00,+1.00,-19.00,-14.00,-2.00,-21.00,-20.00,-3.00,+3.00,-60.00,-2.00,+3.00,-3.00
+2.00,+6.00,+5.00,+9.00,+24.00,+30.00,+10.00,+1.00,+23.00,+7.00,-4.00,-6.00,+21.00,-1.00,-1.00,-1.00
+5.00,+0.00,-1.00,+4.00,+28.00,+7.00,+6.00,+1.00,-3.00,+1.00,-3.00,-3.00,-2.00,-7.00,+0.00,-3.00
-3.00,-1.00,+4.00,+1.00,+14.00,+4.00,+36.00,+1.00,+1.00,+9.00,+2.00,+10.00,+40.00,-1.00,-28.00,+1.00
-17.00,+38.00,+0.00,-4.00,-9.00,-8.00,-13.00,-2.00,-17.00,-13.00,-4.00,+9.00,-11.00,+2.00,+7.00,+0.00
-40.00,-46.00,-5.00,-8.00,-35.00,-11.00,+7.00,-3.00,+21.00,+11.00,+2.00,+2.00,+7.00,-3.00,+1.00,+1.00
+42.00,+17.00,+1.00,-3.00,+5.00,-3.00,+3.00,+1.00,-11.00,+0.00,-3.00,-30.00,-6.00,+1.00,-39.00,-2.00
-61.00,-34.00,-6.00,+1.00,-4.00,-1.00,-31.00,-5.00,+9.00,-4.00,+0.00,-5.00,-20.00,-6.00,+12.00,-3.00
+8.00,+33.00,+6.00,+1.00,-5.00,-12.00,+3.00,+4.00,-9.00,-4.00,-3.00,-17.00,-22.00,+5.00,+12.00,+2.00
+9.00,+9.00,+0.00,-5.00,-7.00,-4.00,-2.00,-2.00,+11.00,+4.00,-3.00,+9.00,+28.00,-3.00,-4.00,+0.00
+9.00,+16.00,+0.00,-2.00,+28.00,+10.00,-5.00,-1.00,-16.00,-8.00,-1.00,+16.00,-11.00,-1.00,-13.00,-1.00
+7.00,+20.00,-5.00,-1.00,-13.00,-5.00,+2.00,-1.00,+10.00,+1.00,+0.00,-14.00,-10.00,-3.00,+5.00,+1.00
+6.00,-33.00,-2.00,+0.00,-4.00,+0.00,+2.00,-1.00,-13.00,-5.00,+3.00,+8.00,+22.00,-6.00,-5.00,-4.00
+12.00,-8.00,-2.00,-3.00,+1.00,-9.00,+3.00,-3.00,+18.00,+12.00,+0.00,-3.00,-11.00,-3.00,+3.00,-2.00
+72.00,+10.00,+2.00,+1.00,-10.00,-3.00,-16.00,+4.00,-17.00,-25.00,-4.00,+1.00,-6.00,+3.00,+7.00,+0.00
+38.00,+13.00,+0.00,+3.00,+13.00,+6.00,+9.00,+1.00,-24.00,+2.00,+4.00,+9.00,+12.00,+0.00,-14.00,-3.00
-12.00,-17.00,-1.00,+4.00,+24.00,+11.00,-15.00,+0.00,-2.00,-2.00,-2.00,-5.00,+12.00,+0.00,+27.00,+0.00
-40.00,-44.00,-1.00,-1.00,+15.00,+5.00,+7.00,-2.00,+2.00,-10.00,-6.00,-8.00,+6.00,+1.00,-8.00,-4.00
-36.00,+51.00,+2.00,-4.00,-22.00,-12.00,+6.00,-2.00,+4.00,-1.00,-1.00,+10.00,-9.00,+3.00,+8.00,+1.00
-11.00,+24.00,+1.00,-3.00,-4.00,+6.00,-1.00,+0.00,+8.00,+1.00,+0.00,-16.00,-20.00,-2.00,+6.00,+0.00
-24.00,-18.00,+1.00,+0.00,-17.00,+1.00,-4.00,+1.00,-7.00,-7.00,-2.00,-2.00,-10.00,-1.00,-11.00,+0.00
+5.00,+0.00,+1.00,+1.00,+17.00,+7.00,+18.00,+6.00,+0.00,+1.00,+2.00,+1.00,+18.00,+4.00,-2.00,+2.00
-17.00,-4.00,-2.00,-2.00,-6.00,-16.00,-2.00,-1.00,+0.00,+6.00,+0.00,+14.00,+2.00,-1.00,+6.00,-1.00
-32.00,+2.00,-4.00,-5.00,-7.00,-5.00,-7.00,-6.00,+0.00,+0.00,-2.00,-8.00,-3.00,+0.00,+2.00,+2.00
+52.00,+7.00,+8.00,+1.00,+0.00,+4.00,+9.00,+6.00,-5.00,+0.00,-2.00,-4.00,+15.00,-2.00,-9.00,-1.00
-1.00,-16.00,-4.00,-3.00,-11.00,-6.00,-16.00,-7.00,+7.00,+4.00,-1.00,-1.00,-25.00,-6.00,+1.00,-1.00
-13.00,+28.00,-2.00,-1.00,-12.00,-2.00,+2.00,-2.00,-3.00,+3.00,-2.00,-5.00,+2.00,+1.00,+6.00,-4.00
-13.00,+14.00,+0.00,-2.00,+4.00,-4.00,+6.00,-1.00,+6.00,-1.00,-3.00,+8.00,+16.00,-3.00,+1.00,-3.00
-26.00,-20.00,-5.00,-1.00,+25.00,+4.00,+2.00,-3.00,-1.00,-5.00,-1.00,-1.00,+3.00,+0.00,-2.00,-4.00
-1.00,+5.00,-1.00,-2.00,-4.00,+0.00,-4.00,-1.00,-3.00,-1.00,-1.00,+4.00,-6.00,-3.00,-1.00,-3.00
-5.00,-5.00,+2.00,+3.00,+2.00,+1.00,+2.00,+4.00,-2.00,+1.00,+0.00,-8.00,-6.00,-1.00,+2.00,-1.00
-3.00,-6.00,-2.00,-4.00,-3.00,-9.00,+1.00,-1.00,+0.00,-2.00,-1.00,+0.00,-2.00,-3.00,+0.00,-4.00
-2.00,-9.00,-3.00,-2.00,-13.00,-1.00,-4.00,+1.00,-4.00,+1.00,-1.00,+2.00,+10.00,+0.00,-2.00,-2.00
+16.00,+19.00,+0.00,-2.00,-5.00,-4.00,-4.00,-1.00,+4.00,+0.00,+1.00,+5.00,+9.00,+1.00,-3.00,+2.00
-8.00,-16.00,-2.00,+1.00,+2.00,+5.00,+6.00,-2.00,+1.00,+1.00,-3.00,-2.00,-15.00,-1.00,+3.00,+1.00
+19.00,+10.00,+2.00,+0.00,-6.00,-4.00,-15.00,+0.00,+5.00,+0.00,-2.00,-1.00,-3.00,-2.00,+1.00,-1.00
+3.00,-13.00,-3.00,-1.00,-5.00,-1.00,+1.00,-1.00,-4.00,-1.00,-1.00,-13.00,-6.00,-2.00,-3.00,-3.00
+1.00,+14.00,+0.00,+0.00,+4.00,+2.00,+0.00,-1.00,+1.00,-2.00,-3.00,-6.00,-9.00,+1.00,-2.00,+0.00
-1.00,-6.00,-1.00,+0.00,+3.00,+5.00,-1.00,-1.00,-3.00,-2.00,-3.00,-2.00,-5.00,+2.00,+2.00,-1.00
+12.00,+4.00,+1.00,+0.00,+8.00,+1.00,-3.00,+0.00,-2.00,-1.00,-1.00,+9.00,+8.00,+0.00,+1.00,-1.00
-5.00,-1.00,+0.00,-1.00,+2.00,-1.00,-3.00,-2.00,-2.00,+1.00,+1.00,+3.00,+6.00,-1.00,-3.00,+1.00
+7.00,+1.00,-1.00,-3.00,-9.00,+1.00,+0.00,-2.00,-4.00,-3.00,-1.00,-3.00,-6.00,-2.00,-1.00,-1.00
+5.00,-4.00,+1.00,+0.00,-10.00,-4.00,-1.00,+0.00,-1.00,+0.00,-1.00,-2.00,+4.00,-3.00,+0.00,-2.00
+12.00,+4.00,-1.00,-1.00,+20.00,+0.00,-1.00,-1.00,-1.00,-1.00,-1.00,-9.00,-6.00,-2.00,-1.00,-1.00
-11.00,-9.00,-4.00,-1.00,-10.00,-10.00,-1.00,-4.00,-1.00,-1.00,-2.00,+1.00,-18.00,-3.00,-4.00,-1.00
-3.00,+5.00,+0.00,+3.00,+22.00,+3.00,-5.00,-1.00,+1.00,+1.00,-1.00,-4.00,-6.00,-1.00,+0.00,+2.00
+2.00,-9.00,-1.00,-1.00,-3.00,+2.00,+1.00,+0.00,-3.00,-1.00,+1.00,+11.00,+13.00,-2.00,-2.00,+0.00
