-1.00,-1.00,-1.00,+0.00,-2.00,-1.00,+1.00,-2.00,-3.00,+0.00,-3.00,+0.00,-3.00,-6.00,-5.00,-9.00
+0.00,+0.00,+0.00,+0.00,-1.00,-1.00,-1.00,-5.00,-2.00,-6.00,+0.00,+1.00,-1.00,+12.00,+6.00,+1.00
-1.00,+1.00,+2.00,-1.00,+0.00,-3.00,-2.00,-3.00,-4.00,-4.00,-2.00,-2.00,-2.00,-7.00,+7.00,+5.00
+2.00,-3.00,-1.00,-1.00,+0.00,+0.00,-2.00,-4.00,-2.00,-1.00,+1.00,+0.00,+1.00,+2.00,-24.00,-6.00
-5.00,+0.00,-1.00,-1.00,-1.00,-3.00,-3.00,-3.00,-3.00,-8.00,-4.00,+0.00,-5.00,-8.00,-13.00,-14.00
+0.00,-2.00,-1.00,-1.00,-1.00,-1.00,-1.00,-4.00,-2.00,+14.00,+1.00,-4.00,+0.00,-3.00,-10.00,+12.00
+3.00,-1.00,-1.00,-1.00,-1.00,-1.00,+2.00,+18.00,+1.00,-4.00,-13.00,-1.00,+0.00,-1.00,-3.00,-17.00
-5.00,+0.00,-3.00,-1.00,-2.00,-1.00,-1.00,-8.00,+0.00,+2.00,-1.00,+1.00,+2.00,+3.00,+16.00,+11.00
+2.00,-2.00,+1.00,-2.00,-2.00,-1.00,-4.00,-1.00,+0.00,-3.00,+3.00,-1.00,+0.00,+0.00,+8.00,+10.00
-4.00,+0.00,-1.00,+0.00,+2.00,+3.00,+2.00,+5.00,-3.00,-8.00,-6.00,-2.00,-2.00,-1.00,+8.00,-4.00
+0.00,-1.00,-1.00,+0.00,+0.00,-2.00,+2.00,-7.00,-2.00,+3.00,+5.00,+0.00,-2.00,+1.00,-14.00,-1.00
-1.00,-3.00,+0.00,-1.00,-1.00,+5.00,-2.00,-6.00,+2.00,-3.00,+1.00,+0.00,-1.00,-1.00,+15.00,+2.00
-2.00,-5.00,-7.00,-1.00,-2.00,-14.00,-8.00,-21.00,-3.00,+6.00,-1.00,-1.00,+0.00,+2.00,-25.00,-29.00
+0.00,+1.00,+5.00,+0.00,-3.00,-23.00,+6.00,+14.00,+1.00,-8.00,-3.00,-1.00,-1.00,-4.00,+10.00,+40.00
+6.00,+6.00,+3.00,-1.00,+3.00,+35.00,+13.00,+34.00,+0.00,+24.00,+12.00,+2.00,-2.00,-1.00,+16.00,-31.00
-3.00,-6.00,-8.00,-2.00,+0.00,+0.00,+2.00,-15.00,+2.00,-21.00,-3.00,-1.00,-2.00,-5.00,-6.00,+0.00
-1.00,-2.00,+5.00,-1.00,+0.00,+13.00,-3.00,+19.00,-4.00,-2.00,-11.00,-5.00,-1.00,+3.00,+7.00,+9.00
+2.00,+0.00,-3.00,+2.00,+1.00,-8.00,-4.00,-21.00,-2.00,-8.00,-6.00,+0.00,-1.00,-6.00,-31.00,-31.00
-9.00,-6.00,-3.00,-2.00,-3.00,-16.00,-2.00,-9.00,-1.00,-8.00,-5.00,+0.00,-1.00,+3.00,+13.00,+20.00
+0.00,+3.00,+0.00,+0.00,-1.00,-1.00,+4.00,+16.00,+10.00,-14.00,+6.00,+1.00,-1.00,-7.00,-22.00,-26.00
+16.00,-3.00,-3.00,+0.00,+1.00,-3.00,-1.00,-1.00,+11.00,+48.00,+0.00,+1.00,+0.00,+7.00,+52.00,+0.00
-20.00,+0.00,-2.00,+0.00,+0.00,+2.00,-5.00,-13.00,-32.00,-32.00,-9.00,-3.00,+3.00,+8.00,+1.00,-11.00
-10.00,-2.00,-1.00,-1.00,-2.00,-6.00,-9.00,+12.00,+5.00,-73.00,-6.00,-5.00,-7.00,-7.00,-7.00,+15.00
+2.00,+0.00,+0.00,+0.00,-1.00,-1.00,-1.00,-11.00,+5.00,+91.00,+7.00,+0.00,-7.00,-13.00,-40.00,+6.00
-5.00,-8.00,-15.00,+0.00,-2.00,-4.00,+3.00,-18.00,-3.00,+2.00,+6.00,-3.00,+0.00,-1.00,-22.00,+16.00
+2.00,-29.00,+2.00,-6.00,-2.00,+6.00,+1.00,-17.00,-17.00,-18.00,+3.00,+1.00,-4.00,+1.00,+20.00,-34.00
+4.00,+23.00,+1.00,-1.00,-2.00,-1.00,-7.00,-3.00,-10.00,+12.00,+2.00,-2.00,-1.00,+2.00,+21.00,-14.00
+11.00,+12.00,+5.00,-1.00,-2.00,-7.00,+13.00,+10.00,+1.00,-33.00,-10.00,-3.00,+3.00,+6.00,-21.00,+14.00
-1.00,-8.00,+0.00,+3.00,+2.00,+2.00,+0.00,+54.00,+28.00,-8.00,-7.00,-3.00,-4.00,-8.00,+14.00,-10.00
-13.00,-29.00,-15.00,-3.00,-2.00,+1.00,-3.00,-41.00,+3.00,+10.00,-1.00,+0.00,-4.00,+1.00,-6.00,+7.00
-2.00,-32.00,-3.00,-2.00,-3.00,-4.00,-10.00,-9.00,-7.00,+9.00,-4.00,-1.00,+0.00,-1.00,-20.00,-13.00
+21.00,+62.00,+15.00,-1.00,-5.00,-6.00,-25.00,-29.00,-4.00,-12.00,+2.00,-3.00,+0.00,+0.00,-4.00,-2.00
-8.00,-9.00,+5.00,+1.00,+2.00,+0.00,+30.00,+21.00,-7.00,+4.00,+7.00,+1.00,+3.00,+8.00,-15.00,+6.00
+12.00,-15.00,-9.00,+1.00,+3.00,+22.00,+3.00,+35.00,+22.00,-5.00,-5.00,-4.00,-1.00,-6.00,+24.00,+40.00
-9.00,+88.00,+5.00,+0.00,-2.00,-4.00,-6.00,-60.00,+9.00,-2.00,+4.00,+0.00,+2.00,-6.00,-69.00,-19.00
+3.00,-36.00,+3.00,+2.00,+3.00,+4.00,+0.00,+23.00,-20.00,-5.00,-14.00,-6.00,-12.00,-1.00,+90.00,-17.00
-2.00,+8.00,-4.00,-5.00,-7.00,+0.00,-8.00,-21.00,-40.00,-40.00,+12.00,-2.00,+7.00,-3.00,-12.00,-6.00
-8.00,-54.00,-1.00,-5.00,-4.00,-6.00,+0.00,-12.00,+81.00,-12.00,-15.00,-1.00,-7.00,-10.00,-58.00,+59.00
-7.00,-10.00,-6.00,-2.00,-2.00,-5.00,+3.00,+30.00,-73.00,+8.00,+2.00,+1.00,+5.00,+12.00,-7.00,+0.00
-5.00,-22.00,-6.00,-2.00,-2.00,+3.00,+1.00,-9.00,-33.00,+23.00,-8.00,-5.00,-12.00,-11.00,-30.00,-10.00
+9.00,+26.00,+3.00,+0.00,+1.00,-1.00,-8.00,-9.00,-3.00,-40.00,+10.00,-3.00,-2.00,+0.00,+48.00,+29.00
+4.00,+77.00,+2.00,+0.00,+0.00,-2.00,+2.00,+29.00,-17.00,+6.00,-20.00,-5.00,-11.00,-35.00,-5.00,-56.00
+4.00,-58.00,-4.00,-2.00,+0.00,-2.00,-4.00,-9.00,+19.00,-22.00,+3.00,+5.00,+1.00,-5.00,+27.00,-6.00
-28.00,+34.00,-4.00,-3.00,-5.00,-6.00,-12.00,-31.00,+47.00,+12.00,-5.00,+3.00,+11.00,+26.00,+24.00,+0.00
-21.00,+1.00,-10.00,-6.00,-6.00,-13.00,-2.00,-24.00,-23.00,-50.00,-11.00,-2.00,-2.00,+6.00,-32.00,+19.00
+26.00,-13.00,+4.00,-2.00,-5.00,-11.00,-27.00,-49.00,-2.00,+65.00,+22.00,+4.00,+12.00,+25.00,-54.00,-20.00
-13.00,+2.00,-4.00,-3.00,-6.00,-23.00,+39.00,+35.00,+38.00,+23.00,+0.00,+0.00,-3.00,-17.00,+55.00,+4.00
-13.00,-128.00,-7.00,-1.00,+9.00,+58.00,+12.00,+117.00,-34.00,-30.00,-3.00,-4.00,-6.00,-7.00,-18.00,-42.00
+60.00,+89.00,+31.00,+4.00,-1.00,-1.00,-21.00,-56.00,+21.00,-7.00,-4.00,-1.00,+0.00,-16.00,-40.00,+34.00
+15.00,+127.00,+11.00,+3.00,+1.00,-4.00,+13.00,+87.00,-16.00,+40.00,+13.00,+2.00,-4.00,+5.00,+119.00,-43.00
-4.00,-69.00,-16.00,-3.00,-2.00,+0.00,-39.00,-105.00,+4.00,+2.00,-6.00,-6.00,-5.00,-1.00,-37.00,-22.00
-1.00,+3.00,+15.00,+2.00,+0.00,-42.00,-6.00,-45.00,+12.00,+14.00,+8.00,+0.00,-4.00,+3.00,+38.00,-6.00
+1.00,+18.00,-1.00,+2.00,+4.00,+21.00,+42.00,+33.00,-1.00,-23.00,-12.00,+3.00,+10.00,+13.00,+2.00,+17.00
-18.00,-86.00,-6.00,-2.00,+0.00,-4.00,-14.00,-53.00,-24.00,-72.00,-3.00,-2.00,-1.00,-17.00,-92.00,+0.00
+32.00,+45.00,+34.00,+11.00,+6.00,+10.00,+28.00,+127.00,+2.00,+34.00,+2.00,+9.00,+7.00,+9.00,+54.00,+38.00
+18.00,+32.00,-15.00,-2.00,-2.00,-12.00,+15.00,+56.00,+26.00,-20.00,-6.00,-4.00,-7.00,-17.00,-40.00,-59.00
-45.00,-70.00,-8.00,-3.00,-3.00,-17.00,-13.00,-45.00,+15.00,+62.00,+0.00,+0.00,-3.00,+6.00,+26.00,+6.00
-1.00,+24.00,-6.00,-5.00,-5.00,+1.00,-9.00,-40.00,-21.00,+32.00,+7.00,+3.00,+45.00,+3.00,+53.00,+57.00
-19.00,-16.00,-6.00,-3.00,-3.00,-15.00,-25.00,-68.00,+11.00,-38.00,-8.00,-7.00,-28.00,+2.00,+8.00,+28.00
+9.00,-2.00,+0.00,+2.00,+2.00,+5.00,+12.00,-30.00,-3.00,-33.00,+3.00,+2.00,+9.00,+5.00,-44.00,+9.00
-21.00,-10.00,+0.00,-2.00,-1.00,+5.00,-3.00,+19.00,-53.00,+7.00,-4.00,-4.00,-11.00,+21.00,-68.00,-70.00
-15.00,-73.00,-13.00,-2.00,-5.00,-13.00,+0.00,-8.00,-12.00,-25.00,-9.00,+0.00,+0.00,-43.00,+27.00,-35.00
+17.00,+20.00,+6.00,+2.00,+2.00,+19.00,-2.00,-7.00,+31.00,+10.00,+6.00,-3.00,-2.00,-42.00,-90.00,+84.00
+6.00,+35.00,-7.00,-3.00,-4.00,-8.00,-11.00,+78.00,-20.00,+16.00,+1.00,+2.00,-2.00,-3.00,+54.00,-42.00
+12.00,-26.00,+6.00,+7.00,+9.00,+7.00,+14.00,-5.00,+34.00,+23.00,-12.00,-6.00,-8.00,-16.00,-55.00,+45.00
-37.00,+30.00,-11.00,-3.00,-3.00,+3.00,-3.00,-74.00,-14.00,-56.00,+10.00,+1.00,-6.00,+34.00,+3.00,+6.00
-5.00,-85.00,+1.00,-1.00,-2.00,-26.00,-13.00,-3.00,-12.00,+27.00,-1.00,+1.00,+4.00,+35.00,+38.00,-46.00
+1.00,+60.00,+9.00,+5.00,+4.00,+43.00,+13.00,-16.00,+14.00,+51.00,+2.00,+2.00,+5.00,-15.00,-30.00,+49.00
+11.00,+11.00,-5.00,-4.00,+0.00,-3.00,-12.00,+7.00,+23.00,+9.00,+15.00,+1.00,+4.00,+3.00,+35.00,-20.00
-19.00,-22.00,-12.00,-3.00,-3.00,-15.00,-45.00,-25.00,-10.00,+23.00,-4.00,+2.00,-8.00,+12.00,+78.00,-27.00
+31.00,+52.00,+3.00,-5.00,-10.00,-22.00,+12.00,-110.00,-57.00,-63.00,-10.00,-11.00,-18.00,-22.00,-81.00,-41.00
+5.00,-89.00,+14.00,+6.00,+9.00,+47.00,+26.00,-8.00,+47.00,-11.00,+6.00,+5.00,+22.00,+27.00,+22.00,+37.00
-48.00,-25.00,-28.00,-5.00,-4.00,-4.00,-22.00,-106.00,-15.00,-24.00,-15.00,-2.00,-5.00,-21.00,+59.00,+52.00
+42.00,+48.00,+22.00,+8.00,+11.00,+12.00,+30.00,+105.00,+27.00,+9.00,+4.00,-4.00,-16.00,+2.00,-35.00,+8.00
-17.00,-12.00,-15.00,-3.00,-3.00,-24.00,-3.00,-80.00,-14.00,-64.00,-8.00,+3.00,+13.00,+28.00,+33.00,-27.00
+4.00,-3.00,-12.00,-4.00,-6.00,-19.00,-42.00,-21.00,+7.00,-21.00,+1.00,+1.00,+8.00,-2.00,+33.00,+63.00
+3.00,-40.00,+16.00,+5.00,+1.00,+6.00,+6.00,+33.00,+2.00,+31.00,+5.00,+5.00,-14.00,-19.00,-60.00,-52.00
+2.00,-50.00,-13.00,-4.00,-3.00,-7.00,+20.00,+61.00,+11.00,+54.00,+11.00,-1.00,+2.00,-13.00,-47.00,-23.00
-4.00,+31.00,-14.00,-5.00,-3.00,+17.00,-19.00,+44.00,+72.00,+16.00,+15.00,+8.00,-8.00,-5.00,-3.00,+41.00
+66.00,+5.00,+11.00,+0.00,+0.00,-14.00,-13.00,+10.00,-67.00,-13.00,-26.00,-6.00,+3.00,+6.00,+0.00,+20.00
-44.00,+6.00,+1.00,-2.00,-5.00,-25.00,+16.00,-64.00,-12.00,-59.00,-3.00,+4.00,+1.00,+4.00,+56.00,-29.00
+2.00,-89.00,+2.00,+0.00,+2.00,+49.00,+14.00,+51.00,+17.00,-31.00,+2.00,-6.00,-21.00,+13.00,-3.00,+55.00
-4.00,+57.00,+6.00,-1.00,-2.00,+13.00,-15.00,-56.00,+1.00,-39.00,-17.00,-5.00,+35.00,+18.00,+21.00,-97.00
-46.00,-24.00,-13.00,-2.00,-5.00,-81.00,-7.00,+40.00,+65.00,+99.00,+20.00,-7.00,+1.00,-70.00,-76.00,+26.00
-6.00,+16.00,+12.00,+1.00,+2.00,+26.00,-8.00,+26.00,-29.00,+6.00,+2.00,+4.00,+0.00,-79.00,+31.00,-30.00
-12.00,-66.00,-4.00,-3.00,-1.00,+23.00,-11.00,+15.00,+25.00,+45.00,+0.00,+4.00,+29.00,+80.00,-72.00,+5.00
-24.00,+37.00,+8.00,+7.00,+12.00,+34.00,+48.00,+127.00,-27.00,-12.00,+3.00,-5.00,-26.00,-22.00,-34.00,-8.00
+38.00,+46.00,-18.00,-6.00,-6.00,+1.00,-17.00,-128.00,-27.00,-32.00,-5.00,+4.00,+22.00,+71.00,+42.00,-13.00
-38.00,-118.00,-39.00,-7.00,-6.00,-23.00,-8.00,+93.00,-14.00,-26.00,-11.00,-4.00,-10.00,+15.00,-33.00,+0.00
+23.00,+111.00,+43.00,+8.00,+0.00,-13.00,+15.00,-95.00,+13.00,+19.00,+16.00,+2.00,-7.00,-42.00,-77.00,+31.00
+5.00,-122.00,+17.00,+11.00,+15.00,+24.00,+0.00,-24.00,+23.00,+75.00,-21.00,-2.00,+13.00,-20.00,+99.00,-59.00
-2.00,-91.00,-16.00,-3.00,-11.00,-46.00,-14.00,+85.00,-48.00,-9.00,+14.00,+4.00,+21.00,+24.00,+59.00,+72.00
+19.00,+28.00,+3.00,-3.00,+1.00,+4.00,+1.00,-75.00,+27.00,+102.00,+21.00,+9.00,+24.00,+33.00,+17.00,-5.00
-9.00,+106.00,-33.00,-17.00,-19.00,-26.00,+11.00,-30.00,-16.00,-111.00,-26.00,-3.00,-13.00,+7.00,+42.00,-22.00
+0.00,-87.00,+2.00,+6.00,+6.00,+7.00,-11.00,+76.00,-9.00,+71.00,+25.00,-6.00,-25.00,-4.00,-40.00,-8.00
-10.00,+23.00,+9.00,+2.00,+10.00,+34.00,-20.00,-35.00,+54.00,-77.00,-41.00,-9.00,-7.00,-31.00,-105.00,-26.00
+13.00,+2.00,-2.00,-2.00,-2.00,-20.00,+11.00,-50.00,-43.00,+97.00,+0.00,+0.00,+28.00,+89.00,+97.00,-7.00
-7.00,+53.00,+9.00,-1.00,-3.00,-41.00,-11.00,-26.00,-57.00,-25.00,+3.00,-7.00,+24.00,-111.00,+29.00,-15.00
+28.00,+94.00,-10.00,-6.00,-1.00,+71.00,+1.00,-11.00,-37.00,-39.00,-3.00,-5.00,-84.00,-57.00,-26.00,-35.00
-49.00,-70.00,-13.00,+2.00,+2.00,-20.00,+34.00,+104.00,-4.00,+57.00,+26.00,+9.00,+39.00,+93.00,-68.00,-78.00
+20.00,-8.00,+1.00,-9.00,-4.00,+53.00,-38.00,+78.00,+30.00,-43.00,-12.00,-3.00,+24.00,-45.00,-62.00,+10.00
+26.00,+0.00,+28.00,+13.00,+12.00,-19.00,+24.00,-66.00,+23.00,+40.00,-21.00,-8.00,+18.00,+1.00,-53.00,-11.00
+18.00,-33.00,-6.00,+0.00,-1.00,-33.00,+0.00,-24.00,-28.00,-124.00,+2.00,-3.00,-41.00,+24.00,+57.00,+44.00
-31.00,+25.00,-9.00,-10.00,-6.00,+27.00,-25.00,-128.00,+51.00,-30.00,-8.00,-15.00,-77.00,-63.00,+100.00,-30.00
+44.00,-16.00,+3.00,+4.00,-4.00,-44.00,-12.00,+2.00,+14.00,-128.00,-34.00,-17.00,-27.00,+17.00,-12.00,-36.00
-43.00,-54.00,-9.00,-7.00,-6.00,+8.00,+19.00,+22.00,-33.00,+120.00,+20.00,+13.00,+26.00,+97.00,+62.00,-96.00
-2.00,+79.00,+3.00,-4.00,-1.00,+1.00,+1.00,-48.00,+51.00,+48.00,+0.00,-1.00,+50.00,-65.00,+46.00,+91.00
+9.00,-71.00,+23.00,+8.00,-8.00,+23.00,-14.00,-23.00,+4.00,+34.00,+4.00,-3.00,+68.00,+54.00,+8.00,-84.00
+36.00,+36.00,+22.00,+4.00,+11.00,-39.00,-4.00,+44.00,-29.00,-44.00,+5.00,-10.00,-71.00,-61.00,-67.00,+74.00
-20.00,+44.00,-18.00,-5.00,-3.00,+18.00,-12.00,-44.00,+16.00,-54.00,-12.00,-16.00,+27.00,-31.00,+27.00,-65.00
-33.00,-15.00,+1.00,-3.00,-2.00,-22.00,-20.00,-99.00,-77.00,-38.00,+0.00,+14.00,+31.00,+85.00,+29.00,+9.00
+1.00,-30.00,-3.00,-6.00,+2.00,-8.00,+47.00,-56.00,+18.00,-32.00,-4.00,-1.00,-6.00,-38.00,-32.00,+21.00
+8.00,+71.00,-5.00,-3.00,-5.00,+22.00,-25.00,+21.00,+40.00,+23.00,+23.00,-1.00,+33.00,+23.00,+113.00,+13.00
+3.00,-128.00,-19.00,-11.00,-4.00,+0.00,+28.00,+0.00,-23.00,-49.00,-25.00,+5.00,+53.00,-28.00,-49.00,+43.00
-26.00,+84.00,-32.00,-18.00,-20.00,-29.00,-57.00,+6.00,+14.00,+124.00,+8.00,-11.00,-2.00,+20.00,+14.00,-62.00
+66.00,+44.00,+32.00,+13.00,+10.00,+36.00,+97.00,+113.00,-14.00,-96.00,-22.00,-1.00,-43.00,-30.00,-13.00,+120.00
-66.00,-128.00,-20.00,-3.00,-7.00,-7.00,+11.00,-126.00,-33.00,-2.00,-9.00,-11.00,+10.00,-10.00,+69.00,+15.00
+30.00,-68.00,-25.00,-8.00,-4.00,+0.00,-20.00,+45.00,+3.00,+69.00,+20.00,+17.00,-9.00,+75.00,+31.00,-4.00
-33.00,-13.00,+12.00,-4.00,+0.00,+12.00,-29.00,-32.00,+34.00,+66.00,+8.00,+0.00,+15.00,-34.00,-3.00,+64.00
-15.00,-9.00,+3.00,-4.00,-8.00,-28.00,-13.00,+16.00,-85.00,-65.00,-1.00,-3.00,-14.00,-35.00,+30.00,-37.00
+10.00,-42.00,+19.00,+8.00,+12.00,+28.00,+0.00,-100.00,+17.00,-44.00,+2.00,+1.00,+68.00,+79.00,-33.00,+23.00
-16.00,+15.00,-5.00,+3.00,-2.00,-22.00,-38.00,+124.00,-1.00,-26.00,-1.00,-5.00,-30.00,-66.00,-96.00,-50.00
-34.00,-86.00,-49.00,-9.00,-7.00,+13.00,+13.00,-93.00,+32.00,-58.00,+25.00,+11.00,-9.00,+1.00,-30.00,+112.00
+4.00,+112.00,+36.00,+1.00,+3.00,+19.00,+7.00,-21.00,+8.00,+101.00,+37.00,+4.00,-8.00,-14.00,-96.00,-25.00
+41.00,-11.00,+9.00,+3.00,+3.00,+20.00,+48.00,+109.00,-7.00,+34.00,+8.00,-6.00,+6.00,-9.00,-88.00,-34.00
-9.00,-57.00,-13.00,-4.00,-6.00,-28.00,-47.00,-128.00,+35.00,+63.00,-9.00,+21.00,+22.00,+4.00,+78.00,-19.00
+52.00,+78.00,+38.00,+3.00,+0.00,+6.00,+9.00,-32.00,+23.00,-15.00,-51.00,-10.00,+53.00,+0.00,-28.00,-62.00
-18.00,-47.00,-31.00,+1.00,+2.00,-8.00,-15.00,+16.00,-50.00,-39.00,+8.00,-1.00,+28.00,+70.00,+127.00,+40.00
-27.00,+6.00,-6.00,-3.00,-6.00,-35.00,-30.00,-48.00,+10.00,+15.00,-17.00,+12.00,-28.00,-102.00,-53.00,+26.00
+2.00,+11.00,+29.00,+7.00,+4.00,+66.00,+31.00,-87.00,+8.00,+23.00,+24.00,-10.00,-42.00,-21.00,-5.00,-4.00
+19.00,+37.00,-9.00,-6.00,-9.00,-7.00,-39.00,+50.00,-2.00,+45.00,+29.00,+2.00,+27.00,-5.00,-32.00,+35.00
-31.00,-101.00,-19.00,+2.00,+6.00,+16.00,+37.00,-42.00,+2.00,+16.00,+27.00,+2.00,+3.00,+32.00,-21.00,-26.00
-29.00,+13.00,-17.00,+1.00,+3.00,-13.00,-26.00,+6.00,-24.00,-79.00,-86.00,-9.00,-15.00,+16.00,+89.00,-77.00
+9.00,-5.00,+4.00,+6.00,-3.00,-44.00,+90.00,+5.00,+27.00,+22.00,+73.00,-2.00,+4.00,-2.00,-57.00,+18.00
+7.00,-40.00,+7.00,-9.00,+2.00,+90.00,-25.00,-23.00,-31.00,-107.00,-106.00,-14.00,-21.00,-23.00,-32.00,-4.00
+0.00,-21.00,+19.00,+13.00,+9.00,-41.00,-6.00,-6.00,-33.00,+61.00,+2.00,-7.00,+22.00,-8.00,+38.00,-24.00
-2.00,-80.00,-18.00,-9.00,-3.00,+13.00,+17.00,+64.00,-15.00,+113.00,+41.00,+5.00,-15.00,+9.00,-33.00,+25.00
-29.00,+95.00,+14.00,-7.00,-6.00,-21.00,-44.00,-128.00,-9.00,-99.00,-75.00,-16.00,-81.00,-20.00,-21.00,+14.00
+64.00,-46.00,-11.00,+12.00,+19.00,+32.00,+123.00,+127.00,+9.00,+54.00,+50.00,+7.00,-17.00,+51.00,-36.00,-62.00
-17.00,-11.00,-44.00,-4.00,+1.00,-16.00,-79.00,-29.00,+20.00,-26.00,-24.00,-8.00,-6.00,-46.00,-112.00,+12.00
+16.00,+1.00,-24.00,-3.00,-2.00,+3.00,+43.00,+2.00,-18.00,-32.00,-14.00,-10.00,-12.00,-52.00,+73.00,+97.00
+12.00,-13.00,+0.00,+3.00,+6.00,+10.00,-33.00,-5.00,+18.00,+32.00,+23.00,+7.00,+52.00,+75.00,+14.00,-99.00
-14.00,-20.00,+41.00,+3.00,-8.00,-64.00,-25.00,-77.00,-18.00,-19.00,+19.00,-11.00,+3.00,-55.00,+79.00,+127.00
-16.00,-37.00,-38.00,-17.00,-23.00,-44.00,-14.00,-20.00,+18.00,+64.00,+40.00,+26.00,-32.00,+11.00,+19.00,+64.00
-1.00,+56.00,+29.00,-6.00,+0.00,+39.00,+22.00,-16.00,+34.00,-61.00,-15.00,-5.00,+0.00,+21.00,+39.00,+37.00
+54.00,-51.00,-2.00,+6.00,+11.00,+28.00,-1.00,+74.00,+5.00,-31.00,-25.00,+2.00,-14.00,-11.00,+59.00,+57.00
-11.00,-87.00,+0.00,-1.00,-6.00,-76.00,+2.00,-61.00,-6.00,-35.00,-34.00,-14.00,-37.00,-25.00,-46.00,-69.00
-14.00,-12.00,+38.00,-6.00,+1.00,+70.00,-14.00,+6.00,+1.00,-68.00,-43.00,-3.00,+1.00,-13.00,-2.00,-61.00
-30.00,-18.00,-33.00,+2.00,-14.00,-37.00,-20.00,-3.00,+16.00,+25.00,+8.00,-5.00,-14.00,+27.00,+66.00,-128.00
-15.00,+40.00,-1.00,-6.00,+1.00,+23.00,+17.00,+105.00,-4.00,-12.00,+48.00,+3.00,+0.00,+33.00,-5.00,-66.00
-46.00,+21.00,-21.00,-3.00,-11.00,-77.00,-8.00,-53.00,-24.00,+18.00,-20.00,-2.00,-11.00,-18.00,-73.00,-87.00
+42.00,+31.00,+0.00,+0.00,-1.00,+55.00,+45.00,+23.00,-4.00,+19.00,+52.00,+15.00,-3.00,+7.00,+88.00,-128.00
-17.00,+9.00,+9.00,-2.00,-7.00,-34.00,-29.00,-124.00,-9.00,-42.00,-31.00,-3.00,-30.00,+2.00,-112.00,-128.00
+27.00,-29.00,-68.00,+16.00,+16.00,-52.00,+2.00,+80.00,-6.00,-9.00,-54.00,-23.00,+2.00,+3.00,+40.00,-33.00
+3.00,+2.00,+37.00,-12.00,-6.00,-22.00,+3.00,+28.00,-9.00,-13.00,+44.00,+3.00,+21.00,+30.00,+119.00,+54.00
-7.00,+36.00,+20.00,+11.00,+15.00,-49.00,+2.00,-71.00,+3.00,+9.00,-12.00,-16.00,-59.00,-51.00,+40.00,+127.00
-8.00,+42.00,+28.00,-9.00,-13.00,-48.00,-15.00,-85.00,-22.00,-12.00,-7.00,+5.00,+40.00,-6.00,-44.00,+96.00
+4.00,-1.00,-1.00,-3.00,+0.00,+0.00,+11.00,-55.00,+3.00,+26.00,+33.00,+11.00,+43.00,+5.00,+58.00,+110.00
-59.00,-22.00,-3.00,-5.00,-19.00,-58.00,-77.00,-128.00,+2.00,+42.00,+17.00,+1.00,-2.00,+6.00,-23.00,+33.00
+65.00,+3.00,-12.00,-1.00,+1.00,-32.00,+44.00,+1.00,+28.00,-10.00,+34.00,+13.00,-10.00,+22.00,+59.00,-57.00
+31.00,+41.00,+5.00,+8.00,+2.00,+32.00,+23.00,+55.00,-6.00,-30.00,-33.00,-9.00,-18.00,-23.00,-4.00,-48.00
-29.00,-66.00,-10.00,-5.00,-6.00,-28.00,-26.00,-31.00,-20.00,-29.00,-33.00,-29.00,+0.00,-33.00,+9.00,+127.00
-31.00,-11.00,-23.00,-6.00,-2.00,-36.00,+1.00,-13.00,+16.00,+38.00,+26.00,+37.00,+22.00,+50.00,+42.00,-37.00
-50.00,+56.00,+17.00,-4.00,-18.00,-41.00,-23.00,+42.00,-21.00,-40.00,-1.00,+2.00,+21.00,-27.00,+66.00,+82.00
-15.00,+25.00,+25.00,+1.00,+8.00,+17.00,-6.00,-48.00,+32.00,+18.00,-9.00,+8.00,-15.00,+45.00,-47.00,+1.00
+21.00,+13.00,+13.00,+0.00,-9.00,-35.00,+31.00,+36.00,+7.00,+21.00,-18.00,-7.00,-37.00,+7.00,+19.00,+71.00
+43.00,-34.00,+3.00,+3.00,+9.00,+60.00,+1.00,-5.00,+27.00,+19.00,+14.00,-15.00,+1.00,-39.00,+4.00,+66.00
+42.00,+16.00,-26.00,+1.00,-12.00,-63.00,-35.00,+48.00,+0.00,-40.00,-48.00,-15.00,-4.00,+15.00,-70.00,+50.00
-37.00,-21.00,-40.00,-2.00,+2.00,-39.00,-40.00,-35.00,+17.00,+19.00,+37.00,+7.00,+31.00,+16.00,+91.00,+121.00
+15.00,+31.00,+39.00,+7.00,+24.00,+83.00,+72.00,+39.00,-28.00,+11.00,+7.00,-5.00,-56.00,-54.00,-5.00,+1.00
-4.00,-9.00,+8.00,+5.00,+5.00,+34.00,+24.00,+85.00,-16.00,-14.00,-21.00,-9.00,+52.00,+105.00,+4.00,+38.00
-20.00,+1.00,-8.00,-11.00,-10.00,-60.00,-15.00,-50.00,-37.00,+64.00,+29.00,-4.00,-27.00,-112.00,-110.00,+14.00
+4.00,-38.00,-37.00,+9.00,+14.00,-26.00,-13.00,+6.00,-24.00,-17.00,-8.00,-4.00,-24.00,+89.00,+78.00,+74.00
-46.00,+34.00,+50.00,-3.00,-6.00,-3.00,-65.00,-128.00,-11.00,-7.00,+7.00,-7.00,-66.00,-47.00,+53.00,+104.00
+43.00,-11.00,-1.00,+7.00,+7.00,+5.00,+71.00,+98.00,+49.00,+57.00,+58.00,+15.00,+14.00,-14.00,-19.00,-77.00
-54.00,+0.00,-37.00,-9.00,-9.00,+50.00,+4.00,-128.00,+74.00,-100.00,-103.00,-15.00,+16.00,+70.00,+71.00,+87.00
-1.00,-10.00,+1.00,-10.00,-7.00,-1.00,-4.00,+113.00,+88.00,+127.00,+71.00,+12.00,+51.00,-26.00,-92.00,+30.00
+50.00,-14.00,+15.00,-1.00,-14.00,+7.00,-2.00,-87.00,+32.00,-107.00,+5.00,+10.00,-70.00,-6.00,+18.00,-87.00
+10.00,+21.00,-1.00,+7.00,+5.00,-23.00,-65.00,-22.00,+4.00,-21.00,-52.00,+5.00,-15.00,+11.00,-16.00,-120.00
-98.00,+3.00,+12.00,-9.00,-12.00,-59.00,+21.00,-33.00,-12.00,+41.00,+46.00,+16.00,-11.00,-16.00,-36.00,-105.00
-100.00,+5.00,+9.00,-3.00,+1.00,+50.00,+22.00,-116.00,-20.00,-34.00,-3.00,-9.00,+41.00,+33.00,+71.00,-116.00
-41.00,-39.00,-34.00,+2.00,+14.00,-23.00,-9.00,+97.00,-36.00,+114.00,-3.00,-14.00,-40.00,-1.00,-89.00,-58.00
+51.00,+38.00,+30.00,-3.00,-7.00,-62.00,+4.00,-8.00,-33.00,-120.00,+40.00,+24.00,-18.00,-37.00,+3.00,-68.00
+47.00,-25.00,-5.00,-5.00,-5.00,+27.00,-59.00,-24.00,-59.00,-17.00,-76.00,-19.00,+45.00,+4.00,-72.00,-39.00
+81.00,+17.00,-8.00,+6.00,+15.00,+9.00,+88.00,+72.00,-45.00,+44.00,+48.00,+8.00,-5.00,-33.00,+1.00,-103.00
-99.00,+19.00,+25.00,-12.00,-19.00,-26.00,-64.00,-119.00,-41.00,-55.00,-11.00,-8.00,+61.00,+19.00,-84.00,+41.00
+40.00,-50.00,-93.00,+14.00,+14.00,+87.00,+74.00,+18.00,-46.00,+11.00,-39.00,-18.00,-1.00,-5.00,+4.00,+125.00
+99.00,+58.00,+79.00,+5.00,+17.00,-38.00,+22.00,+21.00,-21.00,+67.00,+44.00,+5.00,+11.00,-12.00,-20.00,+67.00
+127.00,+18.00,+21.00,+0.00,+0.00,+4.00,-15.00,-16.00,-16.00,-89.00,-45.00,-6.00,-32.00,-31.00,+7.00,+123.00
+127.00,-2.00,-45.00,+3.00,+12.00,+78.00,+53.00,+56.00,+45.00,+100.00,+19.00,+13.00,+74.00,+14.00,-74.00,-103.00
+49.00,-13.00,+10.00,-5.00,-5.00,+28.00,+7.00,+58.00,+9.00,-71.00,-58.00,-6.00,+2.00,+25.00,-110.00,+38.00
-15.00,-22.00,-86.00,-7.00,-10.00,-10.00,+6.00,+4.00,+16.00,-30.00,+19.00,+2.00,-29.00,-46.00,+57.00,+18.00
+61.00,+9.00,+61.00,+11.00,+6.00,+20.00,+49.00,+52.00,-7.00,+23.00,+18.00,+3.00,+48.00,+9.00,-7.00,-21.00
+10.00,+18.00,+27.00,-12.00,-14.00,-63.00,-5.00,-59.00,-13.00,-5.00,-21.00,-3.00,+14.00,-8.00,+12.00,-26.00
-60.00,-25.00,-25.00,-2.00,-11.00,-99.00,-12.00,+33.00,+2.00,+6.00,-1.00,-9.00,-4.00,-15.00,-68.00,-61.00
-68.00,-23.00,+26.00,-4.00,+2.00,+53.00,-49.00,+67.00,+16.00,+103.00,+47.00,+7.00,+22.00,-11.00,+34.00,-105.00
-85.00,+14.00,-6.00,-10.00,-12.00,+40.00,-30.00,+9.00,+3.00,-21.00,-46.00,-22.00,-68.00,+31.00,+16.00,-58.00
-74.00,-9.00,-38.00,-5.00,-10.00,-78.00,-49.00,-58.00,+17.00,-84.00,+45.00,+10.00,-11.00,-41.00,-62.00,-71.00
-54.00,+25.00,+44.00,-2.00,+15.00,+86.00,+30.00,-72.00,-15.00,-2.00,-16.00,-26.00,-8.00,+10.00,+93.00,-102.00
+91.00,-17.00,-42.00,+7.00,-2.00,+12.00,-17.00,+48.00,+13.00,-82.00,-26.00,+12.00,-23.00,+17.00,-112.00,-28.00
-119.00,+42.00,+33.00,+4.00,-3.00,-75.00,-29.00,-115.00,+8.00,+14.00,-6.00,+2.00,+33.00,-45.00,-43.00,+2.00
-43.00,+0.00,+25.00,+6.00,+14.00,+64.00,-6.00,-21.00,-1.00,-34.00,+20.00,+14.00,-2.00,+32.00,-21.00,+32.00
-60.00,-4.00,-4.00,-3.00,-10.00,-49.00,-40.00,-7.00,-11.00,-10.00,-33.00,-30.00,-32.00,-40.00,-6.00,+89.00
+18.00,-2.00,-8.00,+0.00,+2.00,+21.00,-2.00,+26.00,+1.00,+33.00,+22.00,+2.00,+2.00,+6.00,+23.00,-55.00
-60.00,-21.00,-43.00,-13.00,-27.00,-68.00,-16.00,-89.00,-7.00,-3.00,+22.00,+4.00,-10.00,-2.00,-68.00,-8.00
+100.00,-27.00,-15.00,+4.00,+12.00,+53.00,+35.00,+97.00,+2.00,+35.00,-1.00,+11.00,-22.00,+14.00,+55.00,+36.00
+14.00,+2.00,-4.00,-13.00,-24.00,-128.00,-23.00,+52.00,-13.00,+10.00,-8.00,+3.00,+41.00,-62.00,-46.00,+29.00
+62.00,-3.00,+34.00,+9.00,+36.00,+116.00,+56.00,+27.00,+26.00,-57.00,-37.00,-16.00,-17.00,+19.00,+22.00,-4.00
+113.00,+31.00,+41.00,-3.00,-8.00,-33.00,-13.00,+37.00,+7.00,-6.00,+24.00,+8.00,-9.00,-25.00,-18.00,+66.00
+18.00,-11.00,+1.00,+9.00,+3.00,-46.00,-1.00,+107.00,+7.00,-32.00,-14.00,-3.00,+17.00,+36.00,+82.00,-75.00
+6.00,-1.00,-11.00,-3.00,+7.00,+46.00,+22.00,-83.00,+6.00,+40.00,+27.00,+14.00,-34.00,-5.00,+116.00,+75.00
-25.00,+5.00,+21.00,-1.00,-2.00,-36.00,-17.00,-23.00,-24.00,-24.00,+16.00,-4.00,+0.00,+25.00,-71.00,+42.00
-54.00,-33.00,-22.00,-10.00,-12.00,+41.00,-10.00,-34.00,-25.00,+10.00,-16.00,-5.00,-27.00,-33.00,-25.00,-18.00
-56.00,-9.00,-16.00,-1.00,-7.00,-42.00,-28.00,-39.00,-7.00,+28.00,-3.00,-2.00,+87.00,+18.00,-65.00,+38.00
-28.00,-1.00,-14.00,+0.00,+2.00,+91.00,+23.00,-66.00,-10.00,-31.00,-17.00,+3.00,+8.00,+26.00,-45.00,+0.00
-10.00,-35.00,-10.00,+8.00,+1.00,-59.00,-11.00,-19.00,-7.00,+28.00,+19.00,+1.00,+28.00,+27.00,+65.00,-9.00
-14.00,+15.00,-17.00,-1.00,+0.00,+15.00,-39.00,-82.00,-21.00,+21.00,+24.00,+6.00,-1.00,-30.00,-44.00,-30.00
+66.00,+44.00,+23.00,-11.00,-7.00,+50.00,+51.00,+36.00,-31.00,+40.00,-29.00,-11.00,+33.00,-14.00,+86.00,+59.00
-67.00,-10.00,+4.00,-2.00,-4.00,+14.00,-39.00,-88.00,+7.00,-10.00,+9.00,+10.00,-10.00,-25.00,-12.00,-63.00
+39.00,+11.00,+10.00,+3.00,+1.00,-84.00,+24.00,+72.00,-14.00,-38.00,-24.00,-6.00,-3.00,+32.00,+58.00,-55.00
-36.00,-9.00,-19.00,+0.00,+10.00,+22.00,+19.00,-5.00,+0.00,+0.00,+20.00,-12.00,-41.00,-44.00,-16.00,-73.00
-35.00,-1.00,+8.00,+4.00,-9.00,-56.00,-36.00,+14.00,+7.00,-23.00,-17.00,+11.00,-11.00,+18.00,+45.00,+77.00
+38.00,+9.00,-1.00,+3.00,+9.00,+49.00,-3.00,+37.00,+3.00,+35.00,+20.00,+11.00,+31.00,+42.00,+36.00,-1.00
-70.00,+10.00,-22.00,-5.00,-3.00,+52.00,+16.00,-76.00,+20.00,+28.00,-3.00,+5.00,-25.00,-36.00,+30.00,+22.00
-21.00,-23.00,+8.00,+0.00,-10.00,-68.00,-34.00,-14.00,+40.00,-17.00,+14.00,+2.00,+11.00,+28.00,-3.00,+14.00
+60.00,-26.00,-35.00,+3.00,+1.00,-65.00,-1.00,+56.00,-11.00,-36.00,-69.00,-12.00,-26.00,-48.00,-106.00,-5.00
+2.00,+43.00,+4.00,-3.00,+8.00,+11.00,+24.00,-30.00,+16.00,+55.00,+47.00,+5.00,-35.00,+23.00,+68.00,-23.00
-78.00,+0.00,-14.00,-8.00,-27.00,-73.00,-55.00,-57.00,-6.00,-39.00,-42.00,-3.00,+47.00,+45.00,+63.00,+34.00
+118.00,+18.00,+10.00,+3.00,+17.00,+74.00,+46.00,+87.00,-2.00,+42.00,-12.00,-1.00,+25.00,-46.00,+17.00,-11.00
+10.00,+14.00,+27.00,+2.00,-2.00,+3.00,-34.00,-128.00,+5.00,-100.00,+12.00,+8.00,-112.00,-12.00,+61.00,-30.00
+78.00,-10.00,+26.00,+4.00,+11.00,-19.00,+11.00,+119.00,+8.00,+31.00,+15.00,-4.00,+27.00,+14.00,-46.00,+39.00
-70.00,+4.00,-31.00,-7.00,-4.00,-9.00,+8.00,-24.00,-4.00,+26.00,-11.00,+0.00,+75.00,+1.00,+46.00,-3.00
-41.00,-10.00,+4.00,+3.00,-13.00,-95.00,-27.00,-80.00,-4.00,-26.00,-25.00,+0.00,+32.00,+32.00,+101.00,+33.00
-34.00,-26.00,+2.00,+4.00,+15.00,+82.00,+11.00,-40.00,-4.00,+86.00,+62.00,+2.00,-38.00,-80.00,-95.00,-7.00
+4.00,-39.00,-33.00,+2.00,-10.00,-99.00,+8.00,+7.00,-3.00,-35.00,-62.00,-1.00,-25.00,+4.00,+118.00,-95.00
-35.00,+39.00,+64.00,-3.00,-2.00,+103.00,-27.00,-128.00,-13.00,+11.00,+16.00,-12.00,-56.00,+11.00,+15.00,-103.00
+39.00,+11.00,-23.00,+7.00,+12.00,-15.00,+32.00,+127.00,+24.00,+91.00,+66.00,+18.00,+15.00,+24.00,-39.00,-9.00
-66.00,+7.00,+27.00,-4.00,-16.00,-24.00,-16.00,-91.00,-9.00,-78.00,-79.00,-14.00,+5.00,+37.00,+89.00,-12.00
-81.00,-4.00,-11.00,+0.00,-6.00,-12.00,+12.00,-100.00,+3.00,+18.00,+25.00,+9.00,+47.00,+16.00,-80.00,-54.00
+38.00,-20.00,+22.00,+6.00,+24.00,+61.00,+35.00,+22.00,+5.00,+6.00,-10.00,-17.00,-38.00,-67.00,-30.00,+86.00
+13.00,-35.00,-20.00,-6.00,-3.00,-24.00,+11.00,-19.00,-11.00,-14.00,-6.00,+3.00,+46.00,+37.00,-42.00,+25.00
+30.00,+23.00,+5.00,-1.00,-3.00,-34.00,+26.00,+69.00,+17.00,+42.00,+19.00,+0.00,+4.00,-25.00,-21.00,-31.00
-40.00,+12.00,-3.00,-2.00,+0.00,+72.00,-33.00,-17.00,+2.00,-82.00,-15.00,+2.00,+25.00,-34.00,-33.00,+19.00
+75.00,-8.00,-20.00,-3.00,+7.00,-97.00,+16.00,-17.00,+3.00,-15.00,-29.00,-4.00,-12.00,+19.00,+31.00,+2.00
-55.00,+4.00,+36.00,+1.00,-11.00,-32.00,+4.00,-25.00,+2.00,-26.00,-7.00,+4.00,-28.00,+4.00,+83.00,+19.00
-80.00,-19.00,-29.00,-2.00,+5.00,+57.00,-35.00,-98.00,+10.00,+82.00,+47.00,+2.00,+12.00,-10.00,+10.00,+33.00
+57.00,-20.00,-42.00,+9.00,+9.00,-66.00,+41.00,+50.00,-3.00,-82.00,-57.00,-14.00,-18.00,+5.00,+18.00,+65.00
-62.00,+59.00,+61.00,-2.00,-9.00,-8.00,-26.00,-60.00,+2.00,+57.00,+37.00,+3.00,-22.00,-30.00,-111.00,+17.00
+115.00,-14.00,-15.00,+5.00,+3.00,+55.00,+27.00,+127.00,-11.00,-63.00,-44.00,-12.00,-27.00,+10.00,+2.00,+6.00
-33.00,-7.00,-4.00,-13.00,-8.00,-37.00,-8.00,+30.00,-8.00,+3.00,+9.00,-6.00,+16.00,+9.00,+2.00,-14.00
-102.00,-23.00,-26.00,-11.00,-13.00,-4.00,-40.00,-128.00,+7.00,+46.00,+44.00,+15.00,+57.00,+14.00,+14.00,-13.00
+9.00,-4.00,-6.00,+5.00,+7.00,+86.00,+31.00,-13.00,+1.00,-6.00,-3.00,+2.00,-4.00,+11.00,-5.00,+12.00
-62.00,+18.00,+26.00,-1.00,+3.00,-8.00,-4.00,-13.00,-3.00,+16.00,-1.00,-6.00,-24.00,+9.00,-61.00,-27.00
+53.00,+10.00,+8.00,-3.00,-6.00,-16.00,+24.00,+35.00,-5.00,+1.00,+16.00,-2.00,+26.00,+40.00,-4.00,+14.00
-18.00,-3.00,+4.00,+1.00,-1.00,-20.00,-36.00,-52.00,-8.00,-21.00,-4.00,-9.00,+6.00,-25.00,+0.00,+29.00
+24.00,-26.00,-46.00,-8.00,-9.00,-30.00,+9.00,+90.00,+0.00,+3.00,+30.00,+6.00,-12.00,+26.00,-71.00,+20.00
-42.00,-14.00,+18.00,+1.00,-5.00,+15.00,-48.00,-33.00,+10.00,-28.00,-23.00,-5.00,+42.00,-57.00,+23.00,-5.00
-73.00,-12.00,-20.00,+0.00,+7.00,-32.00,+28.00,-66.00,-9.00,+63.00,-8.00,+1.00,+2.00,-10.00,-72.00,+34.00
+8.00,+20.00,+35.00,-5.00,+1.00,+14.00,+2.00,-14.00,+11.00,-11.00,+6.00,-5.00,+39.00,+34.00,+43.00,-36.00
-18.00,-8.00,+1.00,+0.00,-11.00,-107.00,-14.00,-12.00,-10.00,-31.00,-8.00,+3.00,-25.00,-21.00,+48.00,-15.00
+72.00,-25.00,-41.00,+2.00,+7.00,+61.00,+10.00,+43.00,+6.00,+32.00,+6.00,+9.00,+36.00,+35.00,+113.00,-22.00
+40.00,-17.00,-17.00,-1.00,-1.00,-2.00,+8.00,+32.00,+2.00,-7.00,-8.00,-7.00,-58.00,-8.00,-78.00,-15.00
+10.00,+59.00,+18.00,+0.00,+3.00,-51.00,-13.00,-5.00,-2.00,-6.00,+9.00,-3.00,-11.00,-23.00,+9.00,+8.00
+35.00,-34.00,-26.00,+0.00,+13.00,+25.00,+14.00,+110.00,+0.00,+56.00,+10.00,-1.00,+22.00,+18.00,+8.00,+11.00
-79.00,+18.00,+34.00,-9.00,-13.00,-77.00,-13.00,-61.00,-5.00,-42.00,+5.00,+6.00,-27.00,-6.00,-11.00,-5.00
-15.00,-4.00,-16.00,+4.00,+8.00,+77.00,+12.00,-77.00,-2.00,-47.00,-22.00,-1.00,+14.00,-2.00,+92.00,+36.00
+55.00,+2.00,+50.00,-3.00,-5.00,-99.00,-2.00,+108.00,-4.00,+51.00,+8.00,-1.00,-38.00,-9.00,-7.00,+5.00
-76.00,-6.00,-40.00,+3.00,+5.00,+30.00,-14.00,-105.00,-3.00,-68.00,-42.00,-4.00,+16.00,+1.00,-14.00,-27.00
-2.00,+2.00,+14.00,+1.00,+1.00,-1.00,+24.00,-2.00,+6.00,+38.00,+13.00,-3.00,-41.00,+91.00,+18.00,+84.00
-68.00,-6.00,-10.00,+1.00,+2.00,-16.00,-20.00,-15.00,+0.00,+31.00,-3.00,+4.00,+15.00,-78.00,-35.00,+1.00
+2.00,-23.00,-26.00,+0.00,-14.00,+7.00,-23.00,-32.00,-3.00,-7.00,+13.00,-4.00,-49.00,+6.00,-104.00,+15.00
+85.00,+37.00,+19.00,-1.00,+9.00,+63.00,+29.00,+26.00,-3.00,-10.00,-14.00,+9.00,+16.00,-6.00,+43.00,-16.00
+2.00,-19.00,-18.00,-3.00,-2.00,-21.00,+3.00,-68.00,-3.00,-3.00,+11.00,-10.00,+2.00,-13.00,-22.00,+11.00
-19.00,-8.00,-16.00,-5.00,-11.00,-70.00,-13.00,+12.00,-4.00,-64.00,-42.00,-11.00,-73.00,-8.00,+36.00,-26.00
-59.00,+9.00,+33.00,+5.00,+8.00,+101.00,+16.00,-13.00,+5.00,+16.00,-10.00,-5.00,-5.00,+9.00,+17.00,+4.00
-45.00,+5.00,+7.00,-6.00,-6.00,+4.00,-25.00,-71.00,-2.00,+8.00,+24.00,-3.00,-16.00,-27.00,+24.00,-22.00
+98.00,-7.00,-19.00,+0.00,+3.00,+24.00,+4.00,+72.00,+4.00,+63.00,+5.00,+1.00,+11.00,+5.00,-19.00,+17.00
-24.00,+25.00,+35.00,-2.00,+1.00,+12.00,+22.00,+9.00,+1.00,-4.00,+35.00,+5.00,-20.00,+30.00,+22.00,-7.00
-48.00,-26.00,-31.00,-4.00,-8.00,-116.00,-38.00,-73.00,-5.00,-10.00,-31.00,-3.00,+3.00,-65.00,-55.00,-37.00
+25.00,+10.00,+2.00,+3.00,+6.00,+21.00,+18.00,+35.00,+6.00,-31.00,+6.00,+5.00,+24.00,+25.00,+40.00,-12.00
-109.00,+4.00,+8.00,-6.00,+1.00,-32.00,-12.00,-80.00,-1.00,+26.00,-4.00,-6.00,-79.00,-24.00,-18.00,-10.00
-46.00,+12.00,+16.00,+4.00,-1.00,-61.00,-19.00,-31.00,-4.00,-36.00,-8.00,+3.00,+48.00,+70.00,+86.00,+14.00
+47.00,-18.00,-22.00,+1.00,-2.00,+70.00,+33.00,-11.00,+5.00,+45.00,+20.00,-2.00,-10.00,-6.00,-63.00,-16.00
-45.00,-9.00,+40.00,-5.00,-3.00,+0.00,-7.00,-18.00,-4.00,+13.00,+15.00,-4.00,+19.00,-49.00,+1.00,+44.00
+27.00,-19.00,-5.00,+0.00,-3.00,-15.00,-12.00,-44.00,-6.00,-40.00,-15.00,+0.00,-45.00,+13.00,-11.00,-45.00
-48.00,-6.00,-5.00,-4.00,-3.00,-21.00,-7.00,-49.00,+6.00,+16.00,+19.00,-5.00,-27.00,-30.00,+12.00,-4.00
+34.00,-4.00,-8.00,+1.00,-7.00,-93.00,+1.00,+88.00,-12.00,-50.00,+2.00,-9.00,+31.00,+13.00,+41.00,+49.00
-21.00,+1.00,-10.00,-3.00,+12.00,+36.00,+0.00,-63.00,+1.00,+29.00,-29.00,-8.00,-46.00,+7.00,+7.00,+24.00
+1.00,-7.00,-13.00,-1.00,+3.00,+9.00,+0.00,-5.00,+3.00,+24.00,+8.00,+3.00,+25.00,-68.00,-123.00,-6.00
+39.00,-5.00,+35.00,+1.00,-3.00,+1.00,-3.00,-22.00,+0.00,-69.00,-22.00,+5.00,+55.00,+58.00,+66.00,+4.00
+0.00,-6.00,-8.00,-4.00,+0.00,+32.00,+0.00,+79.00,+2.00,+74.00,+14.00,+0.00,-37.00,-15.00,+27.00,+26.00
-6.00,-1.00,-17.00,-1.00,-20.00,-97.00,-25.00,-47.00,+0.00,+4.00,+18.00,-1.00,+13.00,+11.00,-1.00,+3.00
+33.00,-5.00,-4.00,-4.00,-8.00,-21.00,-1.00,+76.00,+6.00,+24.00,+14.00,+3.00,-21.00,+6.00,+57.00,-15.00
+7.00,-19.00,-22.00,-9.00,+0.00,+37.00,+4.00,-7.00,-4.00,-18.00,-10.00,-1.00,+71.00,+36.00,-34.00,+1.00
-50.00,+6.00,+17.00,+4.00,+3.00,-15.00,+14.00,+0.00,-3.00,-36.00,-7.00,+3.00,-54.00,-72.00,-24.00,+0.00
+12.00,-22.00,-31.00,-2.00,+1.00,-6.00,-9.00,+2.00,-1.00,+9.00,-12.00,+2.00,-5.00,+26.00,-13.00,+2.00
-33.00,+0.00,+11.00,-7.00,-5.00,+17.00,-29.00,-62.00,-3.00,+38.00,+10.00,-2.00,+8.00,-56.00,+19.00,+41.00
-39.00,-6.00,-6.00,+0.00,-7.00,-103.00,-27.00,-36.00,+12.00,-19.00,+41.00,+12.00,+36.00,+32.00,-9.00,-45.00
+80.00,+7.00,+1.00,+7.00,+21.00,+46.00,+52.00,+44.00,-5.00,+5.00,-8.00,-1.00,+3.00,+27.00,-10.00,+19.00
+1.00,+12.00,+48.00,+1.00,-12.00,+9.00,-7.00,-20.00,-3.00,-2.00,-14.00,-1.00,-7.00,+59.00,+41.00,-8.00
-21.00,-11.00,-47.00,+1.00,+4.00,-25.00,-4.00,-24.00,-4.00,+16.00,+5.00,-3.00,+3.00,-22.00,+32.00,-16.00
-26.00,-6.00,-8.00,-5.00,-12.00,-31.00,-44.00,-35.00,-6.00,+18.00,+18.00,+2.00,-72.00,-79.00,-84.00,-33.00
+2.00,-11.00,+20.00,-1.00,+3.00,+42.00,+10.00,+23.00,-1.00,+3.00,+7.00,+4.00,+27.00,+44.00,+26.00,-19.00
-42.00,+0.00,-19.00,-3.00,-11.00,-52.00,-14.00,+12.00,-4.00,-17.00,-13.00,-7.00,-1.00,-33.00,-12.00,+78.00
+54.00,+22.00,+38.00,+5.00,+20.00,+65.00,+21.00,+15.00,+1.00,-55.00,-18.00,-9.00,+6.00,+47.00,-7.00,-11.00
+32.00,+10.00,+0.00,-2.00,-11.00,+38.00,+1.00,+114.00,-4.00,+2.00,+21.00,+9.00,-43.00,-4.00,+38.00,-48.00
-31.00,-15.00,-38.00,+4.00,+1.00,+0.00,-14.00,-70.00,-11.00,-32.00,-60.00,-11.00,+37.00,-1.00,+31.00,-128.00
+43.00,-20.00,+0.00,+5.00,+3.00,-23.00,+20.00,+27.00,+10.00,+51.00,+25.00,+4.00,-26.00,+31.00,+13.00,-128.00
-14.00,+11.00,-3.00,+0.00,-2.00,+22.00,-25.00,-52.00,-5.00,-29.00,-8.00,+2.00,-5.00,-11.00,-61.00,-116.00
+0.00,+9.00,+8.00,+3.00,-2.00,-21.00,-1.00,-5.00,-32.00,-43.00,-7.00,-5.00,+9.00,-4.00,+15.00,-52.00
-46.00,-16.00,-26.00,-2.00,+3.00,+17.00,-12.00,-36.00,-11.00,-28.00,-51.00,-3.00,-2.00,+1.00,-8.00,-29.00
+14.00,+7.00,+0.00,+4.00,+8.00,+53.00,+25.00,+40.00,-5.00,+16.00,+26.00,-9.00,-38.00,-42.00,-15.00,-58.00
-35.00,+3.00,+8.00,-2.00,-4.00,-40.00,+11.00,-31.00,-6.00,-53.00,-30.00,+4.00,+85.00,+4.00,+46.00,-22.00
+45.00,+15.00,+7.00,-2.00,+5.00,+58.00,-2.00,-37.00,+18.00,+58.00,+27.00,+0.00,+34.00,+54.00,+17.00,-4.00
+107.00,+16.00,+13.00,-4.00,-7.00,-8.00,+10.00,+63.00,+12.00,+34.00,+18.00,+3.00,-23.00,-22.00,-52.00,-4.00
-99.00,-4.00,-7.00,-3.00,-5.00,-60.00,-16.00,-52.00,+0.00,-71.00,-25.00,-7.00,-53.00,-1.00,-7.00,+1.00
+19.00,-4.00,+0.00,-3.00,-8.00,-34.00,-16.00,+18.00,+12.00,+13.00,+12.00,-5.00,-21.00,-41.00,+74.00,+8.00
+37.00,-3.00,-1.00,+7.00,+3.00,-61.00,+0.00,-34.00,-3.00,+24.00,-15.00,-4.00,+47.00,-8.00,-40.00,+42.00
+76.00,+16.00,+15.00,+1.00,+10.00,+82.00,+38.00,+69.00,+4.00,+21.00,+24.00,+1.00,+3.00,+30.00,+28.00,-5.00
-44.00,-27.00,-14.00,-8.00,-9.00,-29.00,-23.00,-21.00,-1.00,+32.00,-2.00,+0.00,+8.00,-19.00,-36.00,+38.00
-7.00,+25.00,+10.00,-5.00,-13.00,-62.00,-18.00,-41.00,-4.00,-24.00,+6.00,+7.00,-3.00,+9.00,-42.00,+0.00
-32.00,-13.00,-25.00,+1.00,+15.00,-3.00,+29.00,+31.00,-6.00,-27.00,-40.00,-8.00,+8.00,-1.00,+0.00,+18.00
-56.00,+7.00,+28.00,+4.00,-7.00,-48.00,-21.00,-91.00,+0.00,-3.00,+15.00,+7.00,+19.00,+74.00,+59.00,+39.00
+17.00,-20.00,-31.00,-2.00,-5.00,-16.00,-16.00,-1.00,-5.00,-33.00,-2.00,-1.00,-13.00,-101.00,-36.00,-19.00
+18.00,-13.00,-1.00,+3.00,+4.00,-13.00,+24.00,+26.00,-3.00,+34.00,+27.00,-2.00,-19.00,+15.00,+22.00,+70.00
-67.00,-3.00,-9.00,-5.00,+3.00,+27.00,-18.00,-11.00,+4.00,-39.00,-52.00,-9.00,+31.00,-14.00,-32.00,+11.00
+83.00,+21.00,-5.00,-5.00,-3.00,-35.00,-4.00,+59.00,+0.00,+5.00,+3.00,+1.00,-20.00,+1.00,+26.00,+29.00
+0.00,+1.00,-5.00,+0.00,-7.00,-5.00,+27.00,+24.00,-7.00,-28.00,-10.00,+1.00,+48.00,+38.00,+45.00,+11.00
+31.00,-5.00,-31.00,+1.00,-1.00,-10.00,-1.00,+43.00,+0.00,+34.00,+40.00,+7.00,+13.00,-14.00,-22.00,-2.00
+9.00,+4.00,+4.00,+1.00,+4.00,+6.00,+12.00,+15.00,+8.00,-65.00,-88.00,-18.00,-33.00,+21.00,-11.00,+27.00
-28.00,-8.00,+15.00,-3.00,-6.00,-15.00,-13.00,-67.00,+26.00,+45.00,+26.00,+1.00,+4.00,-36.00,+29.00,+12.00
+38.00,+3.00,+19.00,-2.00,+1.00,+8.00,-14.00,+30.00,+3.00,+27.00,+16.00,+7.00,-14.00,+13.00,-13.00,-17.00
-53.00,+11.00,-4.00,+0.00,-5.00,-3.00,-24.00,-21.00,-13.00,-35.00,-21.00,-7.00,-5.00,-15.00,+4.00,+17.00
-10.00,+6.00,+8.00,-4.00,+5.00,+98.00,+30.00,-84.00,-5.00,+73.00,+48.00,+14.00,+46.00,-6.00,+34.00,-41.00
-10.00,-23.00,-16.00,-2.00,-4.00,-14.00,-5.00,+91.00,-15.00,-24.00,+7.00,-4.00,-2.00,-15.00,-50.00,+43.00
+40.00,+25.00,+26.00,-2.00,-5.00,+15.00,+8.00,-2.00,-6.00,+37.00,-24.00,-3.00,+59.00,+18.00,+58.00,+26.00
-43.00,-14.00,+2.00,-3.00,-3.00,-33.00,+11.00,-58.00,+1.00,-45.00,+10.00,+4.00,-39.00,+40.00,-55.00,-47.00
+45.00,+15.00,-6.00,+2.00,-1.00,-25.00,-30.00,+58.00,-2.00,-1.00,-12.00,-8.00,+5.00,-30.00,-1.00,-28.00
+24.00,-22.00,-3.00,+0.00,-2.00,+51.00,+4.00,-128.00,-6.00,-3.00,-13.00,-2.00,+6.00,-15.00,+26.00,+15.00
+54.00,+49.00,+34.00,-7.00,-3.00,+56.00,+9.00,+18.00,+0.00,+12.00,-2.00,-3.00,+22.00,-17.00,-71.00,+37.00
+23.00,-9.00,-19.00,+4.00,+4.00,+42.00,+19.00,-1.00,+14.00,-4.00,+15.00,+3.00,+5.00,+0.00,-77.00,+50.00
+0.00,+0.00,-2.00,+1.00,-3.00,-26.00,-4.00,-2.00,+0.00,+76.00,+34.00,+6.00,-27.00,+4.00,+17.00,+5.00
-78.00,-2.00,+10.00,-6.00,+3.00,+84.00,+5.00,-38.00,-4.00,-51.00,-12.00,+3.00,-10.00,-19.00,-39.00,-23.00
-32.00,-31.00,-38.00,+13.00,+7.00,-53.00,-17.00,-47.00,+3.00,+33.00,+7.00,+0.00,-9.00,+32.00,+74.00,+91.00
+14.00,+2.00,+18.00,-1.00,+9.00,+38.00,+37.00,+71.00,-4.00,-1.00,-11.00,-1.00,-11.00,-1.00,+33.00,-4.00
-35.00,+0.00,-14.00,-7.00,-18.00,-18.00,-19.00,-65.00,+5.00,+11.00,+22.00,+6.00,+25.00,+34.00,-23.00,-22.00
+59.00,+2.00,+14.00,+4.00,+6.00,-45.00,+16.00,+76.00,-9.00,+35.00,-17.00,-14.00,-26.00,+39.00,+2.00,-106.00
-36.00,+9.00,+26.00,-4.00,-6.00,+11.00,-10.00,-71.00,+4.00,-33.00,+15.00,+3.00,+3.00,-61.00,-17.00,-102.00
-87.00,-7.00,-7.00,-1.00,-15.00,-70.00,-33.00,-63.00,-7.00,-74.00,-18.00,-4.00,+1.00,-22.00,+24.00,-86.00
+77.00,-11.00,-5.00,-2.00,-1.00,+24.00,+25.00,+89.00,+0.00,-44.00,-17.00,-4.00,+0.00,-25.00,+6.00,-12.00
-64.00,-2.00,-13.00,+1.00,+2.00,+46.00,-24.00,-64.00,+9.00,+26.00,+0.00,+5.00,+46.00,+75.00,-26.00,+23.00
-24.00,+9.00,-47.00,+6.00,+10.00,-13.00,-5.00,-36.00,+13.00,+18.00,-11.00,-14.00,-95.00,-21.00,+29.00,-19.00
+85.00,+35.00,+40.00,-2.00,+4.00,+18.00,-7.00,+109.00,+12.00,+24.00,-10.00,-4.00,+2.00,-8.00,+47.00,+44.00
+50.00,-5.00,-2.00,+3.00,+8.00,+22.00,+12.00,-39.00,-1.00,-28.00,+0.00,-1.00,-5.00,+7.00,+20.00,-18.00
-38.00,+11.00,+2.00,-5.00,-8.00,-72.00,-17.00,+33.00,-5.00,-20.00,+9.00,-1.00,-43.00,+9.00,-47.00,-12.00
-11.00,-24.00,-37.00,-2.00,-11.00,-17.00,+5.00,+19.00,-1.00,-21.00,+0.00,+9.00,-7.00,-14.00,-38.00,-2.00
+8.00,-9.00,-18.00,-2.00,+5.00,+60.00,-8.00,-87.00,-6.00,+21.00,+15.00,+3.00,+23.00,+27.00,+12.00,-4.00
-14.00,+40.00,+46.00,+6.00,+0.00,-8.00,+22.00,+89.00,-13.00,+18.00,-2.00,-5.00,+2.00,+4.00,-1.00,+8.00
+26.00,-10.00,+1.00,-13.00,-10.00,-44.00,-12.00,+21.00,-11.00,-29.00,-22.00,-11.00,-12.00,-26.00,+24.00,+7.00
+34.00,+4.00,+2.00,+5.00,+6.00,+63.00,+11.00,+0.00,-13.00,-5.00,+6.00,+0.00,+48.00,+22.00,-84.00,-24.00
-39.00,-11.00,-29.00,-2.00,-3.00,-26.00,-4.00,-32.00,-3.00,+25.00,-7.00,-1.00,-11.00,+0.00,-3.00,-78.00
-48.00,-16.00,-5.00,-8.00,-5.00,-53.00,-26.00,-63.00,+1.00,+51.00,+37.00,+7.00,-33.00,+46.00,+64.00,+3.00
-8.00,-18.00,+1.00,+6.00,+7.00,-33.00,+1.00,+16.00,+7.00,-21.00,+31.00,+5.00,+25.00,-103.00,-19.00,+10.00
+71.00,+28.00,+18.00,-6.00,-8.00,-51.00,+14.00,+9.00,-9.00,-55.00,-35.00,-5.00,+23.00,+1.00,-27.00,+1.00
+9.00,-3.00,+2.00,-1.00,+8.00,+97.00,-8.00,+21.00,-8.00,+41.00,+12.00,+0.00,+2.00,+11.00,+4.00,+5.00
+16.00,-4.00,+8.00,+6.00,+7.00,+15.00,+19.00,+12.00,-12.00,-17.00,-27.00,-10.00,-33.00,+15.00,+41.00,-4.00
-37.00,-18.00,-15.00,-2.00,-8.00,+1.00,-9.00,-86.00,+28.00,+27.00,+34.00,+17.00,+3.00,-7.00,+21.00,-33.00
-1.00,-21.00,+7.00,-2.00,-11.00,-85.00,-4.00,+49.00,-9.00,-26.00,-23.00,-8.00,-29.00,-4.00,-30.00,-10.00
+18.00,+11.00,+19.00,-2.00,+2.00,+43.00,+6.00,-22.00,-8.00,-23.00,-32.00,-9.00,+68.00,-1.00,-26.00,+37.00
+6.00,-8.00,+3.00,-3.00,-6.00,-15.00,-11.00,+27.00,+6.00,+67.00,+48.00,+14.00,-13.00,-19.00,+17.00,-20.00
-9.00,+8.00,-8.00,+4.00,+2.00,-54.00,+11.00,+22.00,-11.00,+19.00,-4.00,-13.00,-22.00,+15.00,+5.00,+15.00
-9.00,-15.00,-43.00,-4.00,-5.00,+83.00,-3.00,+16.00,+10.00,-14.00,+0.00,+6.00,+56.00,+27.00,+3.00,+4.00
+30.00,-4.00,+22.00,+1.00,+8.00,-12.00,+35.00,-31.00,-8.00,-64.00,-47.00,-9.00,-28.00,-31.00,-55.00,-7.00
-13.00,-6.00,+8.00,-1.00,-4.00,+19.00,-2.00,-70.00,+6.00,-4.00,+10.00,-3.00,+0.00,-13.00,-29.00,+24.00
-27.00,+2.00,-20.00,+2.00,+2.00,-20.00,+3.00,-13.00,-18.00,-4.00,-1.00,-1.00,-17.00,-18.00,-2.00,-15.00
-44.00,+3.00,+17.00,-13.00,-9.00,-53.00,-16.00,+0.00,+1.00,+64.00,+21.00,-7.00,+29.00,+16.00,+4.00,-16.00
+52.00,-21.00,-25.00,+16.00,+15.00,-53.00,-4.00,-13.00,-3.00,-56.00,-13.00,-9.00,+43.00,+38.00,+6.00,+4.00
-2.00,+22.00,-2.00,-11.00,+4.00,+51.00,+10.00,-59.00,+0.00,+32.00,-10.00,-10.00,-51.00,-90.00,-68.00,+25.00
+31.00,+13.00,+4.00,-3.00,-13.00,-53.00,+4.00,+14.00,+4.00,-18.00,-1.00,+0.00,+5.00,+32.00,+61.00,+16.00
-14.00,-4.00,+9.00,+10.00,+19.00,+23.00,-4.00,+32.00,-1.00,+31.00,+15.00,+5.00,+14.00,+16.00,+51.00,+1.00
-14.00,-45.00,-18.00,-11.00,-12.00,-36.00,-17.00,+44.00,-2.00,-12.00,+10.00,+2.00,-77.00,-40.00,-54.00,+18.00
+49.00,-2.00,+6.00,+0.00,-7.00,-10.00,-16.00,-26.00,-4.00,-52.00,-4.00,+5.00,+34.00,+21.00,+8.00,+13.00
+6.00,+54.00,+41.00,+1.00,+0.00,+34.00,+16.00,+23.00,-11.00,+76.00,+35.00,+3.00,+12.00,-6.00,-21.00,-13.00
+2.00,-14.00,+6.00,+2.00,+6.00,+14.00,-1.00,-36.00,+9.00,-59.00,-49.00,-1.00,+15.00,+22.00,-25.00,-28.00
-37.00,-8.00,-5.00,-2.00,-6.00,-16.00,+2.00,-67.00,+3.00,-1.00,-17.00,-3.00,-38.00,-8.00,+18.00,+8.00
+57.00,-11.00,-33.00,-5.00,-15.00,-49.00,-17.00,+93.00,+9.00,-6.00,-2.00,-4.00,+40.00,-17.00,+68.00,+2.00
-33.00,+12.00,+11.00,-8.00,-5.00,-12.00,-21.00,-128.00,-5.00,-42.00,-24.00,-4.00,-5.00,-18.00,-60.00,+1.00
-20.00,-14.00,-14.00,-1.00,+2.00,+26.00,+9.00,-79.00,-3.00,+33.00,+29.00,+6.00,-38.00,+36.00,-10.00,-3.00
+5.00,+26.00,+21.00,+3.00,+4.00,+58.00,+3.00,+1.00,+7.00,+0.00,-18.00,+2.00,+55.00,+33.00,+91.00,-48.00
-61.00,-19.00,-32.00,+5.00,-3.00,-23.00,-22.00,-32.00,+0.00,+16.00,+0.00,-4.00,-25.00,-33.00,+9.00,-18.00
+60.00,-6.00,+1.00,-3.00,+5.00,+27.00,+32.00,+65.00,-8.00,-46.00,+5.00,-4.00,-23.00,-24.00,-43.00,+29.00
-51.00,+1.00,+7.00,-2.00,-1.00,-40.00,-33.00,-92.00,+1.00,+43.00,-39.00,-3.00,+54.00,-11.00,-54.00,-41.00
+1.00,-21.00,-53.00,-1.00,-2.00,+41.00,+3.00,+78.00,-1.00,-26.00,+50.00,+13.00,-6.00,+28.00,-7.00,-16.00
+54.00,+38.00,+56.00,+1.00,-2.00,-28.00,+15.00,+96.00,-12.00,-71.00,-71.00,-18.00,-7.00,-2.00,-30.00,+5.00
+19.00,-3.00,-4.00,+7.00,+9.00,+94.00,+4.00,+27.00,+3.00,+24.00,-1.00,+4.00,-25.00,+38.00,-9.00,+19.00
+27.00,+3.00,+5.00,+0.00,+1.00,-20.00,+15.00,+10.00,-3.00,-34.00,+2.00,-2.00,-4.00,-16.00,+38.00,+0.00
-22.00,+18.00,+15.00,-1.00,-7.00,-71.00,-1.00,-92.00,+2.00,+71.00,+21.00,+3.00,-30.00,-19.00,+11.00,+33.00
-13.00,-39.00,-33.00,+3.00,+19.00,+56.00,+11.00,+34.00,+1.00,+20.00,+23.00,+2.00,-45.00,+6.00,-16.00,+57.00
+74.00,+42.00,+11.00,-1.00,-5.00,-37.00,+4.00,+47.00,-5.00,-22.00,-27.00,-5.00,+19.00,-21.00,+28.00,-48.00
-17.00,-3.00,-6.00,-1.00,-4.00,-36.00,-7.00,+32.00,-9.00,-51.00,-13.00,-6.00,+21.00,-14.00,+50.00,+25.00
-44.00,-10.00,+0.00,-7.00,+0.00,+40.00,-26.00,-120.00,+3.00,+87.00,-12.00,+1.00,-27.00,+4.00,+22.00,+9.00
+32.00,+13.00,+23.00,+2.00,-1.00,+55.00,+35.00,-5.00,-4.00,-76.00,+49.00,+7.00,-8.00,+0.00,-90.00,+1.00
-47.00,-34.00,-18.00,-2.00,-8.00,-94.00,-22.00,-11.00,+9.00,+47.00,-7.00,-2.00,-2.00,+3.00,+30.00,-12.00
-5.00,+6.00,+31.00,+1.00,+0.00,+12.00,+17.00,-6.00,+0.00,+24.00,-17.00,-7.00,+14.00,+58.00,+17.00,+37.00
-36.00,+4.00,-14.00,+3.00,-1.00,-120.00,-10.00,+60.00,-16.00,-78.00,-20.00,-13.00,+57.00,-61.00,-11.00,-23.00
-28.00,+1.00,+2.00,+0.00,+12.00,+56.00,+4.00,-121.00,-4.00,-8.00,-22.00,-4.00,-53.00,-5.00,-17.00,+29.00
-47.00,-12.00,-10.00,-1.00,+6.00,-22.00,-1.00,+6.00,+9.00,-5.00,-8.00,+1.00,+5.00,+13.00,+73.00,-27.00
+0.00,-17.00,-14.00,+3.00,-4.00,-47.00,-9.00,-56.00,-7.00,+1.00,+35.00,+1.00,-27.00,+7.00,-12.00,-39.00
-26.00,+4.00,+5.00,-8.00,-9.00,-32.00,-2.00,+46.00,-1.00,+11.00,+11.00,+5.00,+6.00,-16.00,-53.00,+79.00
-20.00,+8.00,+14.00,-6.00,-6.00,-46.00,+1.00,+36.00,+2.00,+11.00,-17.00,-8.00,+27.00,+29.00,+40.00,-32.00
-10.00,-35.00,-42.00,+3.00,-1.00,+44.00,-22.00,-94.00,-9.00,-16.00,+3.00,+5.00,+40.00,-9.00,+74.00,+34.00
+15.00,+9.00,+21.00,-5.00,-4.00,-15.00,+9.00,+23.00,+9.00,+5.00,+9.00,+4.00,-13.00,+2.00,-33.00,-29.00
+8.00,-18.00,+30.00,+4.00,+8.00,+27.00,+11.00,-69.00,-7.00,-44.00,-6.00,-5.00,-12.00,+11.00,+63.00,-18.00
+25.00,+29.00,-1.00,-8.00,-6.00,-26.00,+31.00,+80.00,+3.00,+44.00,+15.00,+15.00,+31.00,+36.00,+55.00,+20.00
-39.00,-7.00,+8.00,-2.00,-10.00,+25.00,-44.00,-56.00,-2.00,+18.00,-5.00,-12.00,+29.00,+14.00,-50.00,+0.00
-1.00,+14.00,+8.00,-4.00,+5.00,+31.00,-10.00,-64.00,-4.00,-66.00,-33.00,+2.00,-15.00,-50.00,-41.00,+39.00
-4.00,+2.00,-6.00,+4.00,+0.00,-33.00,+6.00,-9.00,+9.00,+20.00,+0.00,+9.00,+9.00,+8.00,+32.00,-40.00
-41.00,-29.00,-13.00,-1.00,-1.00,+42.00,-27.00,-75.00,+9.00,+21.00,-4.00,-6.00,+18.00,+39.00,-1.00,-17.00
+37.00,-25.00,+6.00,+3.00,+4.00,-31.00,+33.00,+83.00,-2.00,-2.00,+10.00,+5.00,+5.00,-30.00,-1.00,-20.00
-42.00,-8.00,-15.00,-6.00,-11.00,+19.00,-3.00,-14.00,+1.00,+44.00,+16.00,+4.00,+9.00,+4.00,-46.00,+59.00
+33.00,+15.00,+5.00,-4.00,-1.00,+107.00,+8.00,-12.00,+3.00,-66.00,-39.00,-13.00,-43.00,-13.00,+7.00,-42.00
+39.00,-2.00,-16.00,+1.00,+4.00,-36.00,+0.00,+83.00,-5.00,+27.00,+25.00,-3.00,+4.00,-4.00,+21.00,+1.00
-20.00,+5.00,+4.00,-9.00,-8.00,+31.00,-1.00,+24.00,+4.00,+15.00,+7.00,+4.00,-12.00,+22.00,-24.00,+0.00
+40.00,-24.00,-12.00,+7.00,+9.00,-11.00,+9.00,+36.00,-5.00,+4.00,+21.00,-1.00,-48.00,-36.00,-21.00,-18.00
-16.00,+16.00,-30.00,-9.00,-14.00,-28.00,-19.00,-68.00,+1.00,-16.00,-21.00,-5.00,+36.00,+43.00,-27.00,-9.00
-27.00,+4.00,+32.00,+0.00,+6.00,+54.00,-12.00,-95.00,+2.00,+9.00,-24.00,+0.00,-4.00,-51.00,-13.00,-1.00
-15.00,+3.00,+6.00,+6.00,+8.00,+13.00,+6.00,-2.00,-3.00,-21.00,+18.00,-1.00,-38.00,-6.00,+2.00,+25.00
+15.00,+0.00,-32.00,-10.00,-8.00,+21.00,+2.00,-35.00,-1.00,+37.00,+13.00,-6.00,+4.00,-14.00,+50.00,-22.00
+13.00,-7.00,+0.00,+6.00,+8.00,-44.00,+4.00,+20.00,+0.00,+28.00,+19.00,+1.00,+34.00,+48.00,+19.00,+6.00
-50.00,+0.00,-23.00,-4.00,-15.00,-79.00,-12.00,-115.00,-7.00,-35.00,+28.00,+1.00,-81.00,-24.00,+1.00,-16.00
+68.00,+21.00,+28.00,+1.00,+6.00,+27.00,+18.00,+18.00,+4.00,+28.00,-43.00,-8.00,+24.00,-8.00,+24.00,-2.00
-60.00,+29.00,-7.00,-4.00,-3.00,+51.00,-20.00,+42.00,-3.00,-28.00,-12.00,-3.00,+5.00,-2.00,+22.00,+21.00
-24.00,-6.00,-5.00,+1.00,-5.00,-58.00,-31.00,-61.00,-9.00,+12.00,+4.00,-8.00,-38.00,-30.00,-14.00,-40.00
+39.00,-9.00,-9.00,+0.00,-3.00,+38.00,+46.00,+127.00,+0.00,-9.00,+22.00,+3.00,+20.00,+5.00,-66.00,-40.00
+6.00,+10.00,+8.00,-2.00,-4.00,-25.00,-5.00,-34.00,-10.00,-37.00,-47.00,-8.00,-3.00,+39.00,-23.00,+3.00
+16.00,+0.00,+5.00,+4.00,+6.00,+4.00,+17.00,-13.00,+4.00,+18.00,+7.00,-3.00,-12.00,-27.00,-21.00,+34.00
-21.00,-5.00,+4.00,+2.00,+0.00,+0.00,-18.00,-28.00,+5.00,+92.00,+30.00,+5.00,+34.00,-12.00,+24.00,+35.00
+22.00,-3.00,-9.00,-2.00,-5.00,-35.00,-11.00,-77.00,-3.00,-100.00,-40.00,-1.00,-5.00,-12.00,-8.00,+7.00
-52.00,-17.00,-31.00,-1.00,-11.00,-4.00,+8.00,+24.00,+3.00,+26.00,+30.00,+1.00,+3.00,+18.00,+2.00,-27.00
-37.00,+9.00,+20.00,-6.00,+3.00,-24.00,-13.00,-97.00,+2.00,-38.00,-15.00,+5.00,+0.00,+7.00,-33.00,+10.00
+96.00,-1.00,-9.00,+5.00,+6.00,+61.00,+11.00,+127.00,-10.00,+7.00,-7.00,-4.00,-12.00,-10.00,-25.00,+24.00
-50.00,+2.00,+17.00,-1.00,-8.00,-54.00,-17.00,-34.00,-3.00,+42.00,+3.00,+2.00,+19.00,+1.00,+19.00,-36.00
-4.00,-5.00,-20.00,-6.00,+1.00,+52.00,-7.00,-62.00,+1.00,-15.00,+5.00,+5.00,-9.00,-3.00,+2.00,+28.00
+1.00,-15.00,+0.00,+4.00,-2.00,+9.00,-22.00,+50.00,+1.00,-11.00,+6.00,+1.00,-10.00,+30.00,+61.00,-24.00
-71.00,+31.00,+24.00,-7.00,-8.00,-1.00,+1.00,-30.00,-9.00,+32.00,+17.00,+2.00,-7.00,-37.00,-39.00,+2.00
+44.00,-5.00,-2.00,-2.00,-3.00,-45.00,+21.00,+10.00,-7.00,+10.00,-4.00,-6.00,-32.00,+43.00,-23.00,-4.00
+7.00,-10.00,-38.00,-1.00,+4.00,+1.00,-11.00,-12.00,+1.00,-42.00,-16.00,-4.00,-15.00,-64.00,+12.00,+26.00
+13.00,+2.00,+29.00,+3.00,+3.00,-7.00,-1.00,+0.00,+13.00,+72.00,+40.00,+2.00,-45.00,+6.00,+23.00,-43.00
+4.00,-14.00,-18.00,-5.00,-6.00,-62.00,-1.00,-1.00,+1.00,-76.00,-59.00,-12.00,-34.00,-2.00,-52.00,-12.00
+54.00,-11.00,+1.00,+1.00,+4.00,+78.00,+3.00,+96.00,-4.00,-7.00,-23.00,-6.00,+11.00,-9.00,+9.00,-7.00
-40.00,+7.00,+7.00,-1.00,+1.00,+20.00,-15.00,-111.00,+6.00,+2.00,-2.00,+5.00,-30.00,+92.00,+47.00,-51.00
+75.00,-2.00,-11.00,+2.00,+1.00,-22.00,+15.00,+84.00,+4.00,+50.00,+31.00,+2.00,-14.00,-78.00,-59.00,+10.00
-1.00,+5.00,+3.00,+0.00,+2.00,-7.00,+21.00,+24.00,-8.00,-39.00,+4.00,-2.00,+6.00,-2.00,+57.00,-8.00
-6.00,+1.00,-7.00,+1.00,+3.00,+3.00,+0.00,-18.00,-6.00,-15.00,-21.00,-2.00,-8.00,-16.00,+14.00,-29.00
-4.00,-17.00,-3.00,-2.00,-6.00,-62.00,-16.00,-33.00,-2.00,+7.00,+16.00,+1.00,+3.00,+17.00,-5.00,+28.00
-5.00,-9.00,-10.00,-4.00,-9.00,-30.00,+7.00,-1.00,-8.00,-27.00,-15.00,-2.00,+33.00,-4.00,+13.00,+0.00
-11.00,+6.00,+19.00,+1.00,+4.00,+21.00,-14.00,+4.00,-3.00,+38.00,+32.00,+0.00,-19.00,+1.00,-9.00,-13.00
-21.00,-24.00,-39.00,+2.00,-7.00,-54.00,-4.00,-6.00,-3.00,-5.00,-7.00,+3.00,+12.00,-11.00,-5.00,+23.00
-3.00,+28.00,+63.00,-7.00,+4.00,+81.00,-7.00,-9.00,-5.00,+12.00,+9.00,-1.00,+10.00,+4.00,-12.00,+6.00
-33.00,+5.00,+9.00,+0.00,-3.00,-67.00,-14.00,-32.00,+12.00,-23.00,-15.00,-4.00,+11.00,+18.00,+5.00,-29.00
+10.00,+1.00,-11.00,+0.00,-6.00,-10.00,-12.00,+44.00,+42.00,+9.00,+4.00,+1.00,+6.00,-12.00,-22.00,+82.00
-54.00,-6.00,+3.00,+9.00,+8.00,-5.00,+9.00,-30.00,+6.00,+8.00,+7.00,+0.00,+22.00,+12.00,-6.00,+124.00
-20.00,+15.00,+2.00,+0.00,+5.00,-59.00,-11.00,-7.00,-16.00,+3.00,+4.00,-1.00,+3.00,-18.00,-20.00,+98.00
+7.00,+14.00,+5.00,-3.00,+1.00,-2.00,+7.00,-45.00,-44.00,-23.00,-10.00,+0.00,-29.00,+5.00,-1.00,-31.00
-3.00,-11.00,-2.00,-1.00,-6.00,-16.00,-9.00,-9.00,-34.00,+8.00,-1.00,+2.00,-5.00,+10.00,+21.00,-120.00
-8.00,-2.00,-1.00,-3.00,-2.00,+8.00,-19.00,+19.00,+22.00,+1.00,+4.00,-1.00,+7.00,-5.00,-12.00,-113.00
+7.00,-9.00,-8.00,+1.00,-1.00,-4.00,+9.00,+12.00,+14.00,+1.00,+2.00,+1.00,-9.00,+16.00,-22.00,-127.00
+106.00,-2.00,+7.00,+1.00,+0.00,-7.00,-3.00,-6.00,+12.00,-18.00,-5.00,-1.00,+3.00,-39.00,+2.00,-106.00
+127.00,-5.00,-7.00,-2.00,+1.00,+24.00,+21.00,+4.00,+5.00,+2.00,-3.00,+5.00,+4.00,+12.00,+4.00,-128.00
+72.00,+4.00,+7.00,-1.00,-3.00,-7.00,-13.00,-15.00,-25.00,+11.00,+4.00,+0.00,+5.00,-2.00,-4.00,-100.00
+13.00,-1.00,-3.00,-1.00,-2.00,-14.00,+6.00,-1.00,-8.00,+21.00,+8.00,+0.00,+52.00,-20.00,-17.00,-122.00
+57.00,+1.00,-7.00,+0.00,+1.00,+18.00,+5.00,+21.00,-13.00,-26.00,+0.00,-2.00,+15.00,+29.00,+2.00,-117.00
-26.00,-4.00,-3.00,-1.00,+1.00,-1.00,+4.00,+16.00,-21.00,-1.00,-8.00,-4.00,-1.00,+2.00,-6.00,-118.00
-83.00,+7.00,+3.00,-3.00,-1.00,+4.00,-4.00,-5.00,-94.00,+16.00,+3.00,+1.00,+3.00,-12.00,-8.00,-85.00
-70.00,-6.00,-6.00,+1.00,+0.00,-10.00,+0.00,+15.00,-117.00,-26.00,-10.00,-2.00,+0.00,-10.00,-1.00,+97.00
+76.00,+6.00,-2.00,-1.00,-1.00,+4.00,+1.00,+27.00,-74.00,+7.00,+0.00,+0.00,+23.00,+45.00,+6.00,+97.00
+126.00,-9.00,-9.00,+0.00,+2.00,+11.00,+7.00,+4.00,+20.00,+3.00,+3.00,+1.00,-82.00,-25.00,-1.00,+88.00
+127.00,+9.00,+17.00,+1.00,+3.00,+0.00,-1.00,+4.00,+56.00,-3.00,+1.00,+7.00,+28.00,-34.00,+1.00,+116.00
+127.00,-3.00,-9.00,+2.00,+1.00,+0.00,+9.00,+10.00,+41.00,+10.00,+4.00,-11.00,-16.00,-17.00,-2.00,+75.00
+9.00,-4.00,-1.00,+1.00,+0.00,+5.00,+0.00,-1.00,+60.00,-2.00,-2.00,+22.00,+1.00,-6.00,+0.00,+29.00
+106.00,+1.00,-9.00,-1.00,+0.00,+21.00,+4.00,-10.00,+11.00,-1.00,-1.00,-8.00,-1.00,+14.00,-8.00,+127.00
+56.00,-7.00,+6.00,-3.00,-3.00,-4.00,-9.00,+8.00,+26.00,+4.00,+0.00,-11.00,+13.00,+16.00,-3.00,-124.00
+127.00,+1.00,+1.00,+1.00,-1.00,-12.00,+0.00,+35.00,+43.00,+0.00,+2.00,-21.00,-34.00,-6.00,-1.00,-120.00
+20.00,-7.00,-6.00,+0.00,+3.00,+13.00,+4.00,+18.00,+32.00,-14.00,-10.00,-20.00,-65.00,-11.00,-2.00,-124.00
+87.00,+12.00,+15.00,-3.00,-5.00,-15.00,+0.00,-5.00,+39.00,-1.00,+1.00,+48.00,+43.00,+11.00,+4.00,-120.00
-72.00,-5.00,-9.00,+1.00,+4.00,+1.00,-5.00,-19.00,+89.00,-2.00,+0.00,-29.00,+1.00,+26.00,+0.00,-11.00
-79.00,-2.00,+1.00,-2.00,+1.00,-33.00,+1.00,-19.00,+113.00,-5.00,-2.00,-10.00,+1.00,-33.00,-6.00,-23.00
-128.00,-2.00,-5.00,-4.00,-28.00,+6.00,+1.00,-13.00,+100.00,-8.00,-4.00,-10.00,+7.00,+5.00,-2.00,-24.00
+10.00,-4.00,-4.00,+5.00,+18.00,+6.00,+10.00,+0.00,+38.00,-12.00,-4.00,+7.00,-26.00,-3.00,+3.00,-74.00
+65.00,+2.00,-1.00,-5.00,-37.00,-9.00,-4.00,-16.00,-38.00,+29.00,+2.00,+15.00,+2.00,-2.00,-2.00,-74.00
+110.00,-5.00,-2.00,+1.00,+22.00,+3.00,+5.00,-3.00,-81.00,-10.00,+1.00,+0.00,+17.00,+9.00,-3.00,-103.00
+127.00,-1.00,-1.00,+4.00,+27.00,+2.00,+1.00,+0.00,-69.00,+16.00,-6.00,-7.00,-4.00,+2.00,+0.00,-39.00
+54.00,+0.00,+0.00,-3.00,-14.00,-17.00,+3.00,+4.00,-69.00,-2.00,+0.00,+0.00,+0.00,-7.00,-9.00,+41.00
+95.00,-3.00,-4.00,-5.00,+6.00,+2.00,+1.00,-12.00,-98.00,-29.00,-8.00,-19.00,+4.00,-16.00,+5.00,+36.00
-8.00,+2.00,-6.00,-4.00,+0.00,+0.00,-1.00,-9.00,-50.00,-15.00,+6.00,+47.00,+6.00,+1.00,-3.00,+32.00
-85.00,-6.00,-2.00,-2.00,+2.00,-3.00,+4.00,+1.00,-43.00,+28.00,+5.00,-26.00,+8.00,-3.00,-4.00,+74.00
-57.00,-4.00,+3.00,+4.00,-10.00,+1.00,+5.00,-7.00,-17.00,+6.00,+1.00,-7.00,+6.00,+6.00,+2.00,+81.00
-83.00,+22.00,-2.00,+0.00,-10.00,-4.00,+0.00,-3.00,+9.00,-6.00,-3.00,+28.00,-12.00,+4.00,-3.00,+87.00
-61.00,-13.00,-6.00,-9.00,-3.00,+4.00,+1.00,+1.00,+19.00,-9.00,-2.00,+7.00,+2.00,-11.00,+4.00,+114.00
-83.00,-40.00,-1.00,-5.00,-14.00,-7.00,-4.00,+1.00,-53.00,-15.00,+3.00,-4.00,+15.00,+0.00,+7.00,+75.00
-29.00,+76.00,+8.00,+1.00,+26.00,+1.00,+3.00,-3.00,-21.00,+11.00,-5.00,-14.00,+8.00,+2.00,-4.00,-13.00
-30.00,-46.00,-9.00,-2.00,-7.00,+6.00,+5.00,+4.00,+12.00,-1.00,-4.00,+11.00,+8.00,+9.00,+2.00,-38.00
+6.00,-55.00,-11.00,-5.00,-41.00,-9.00,-4.00,+0.00,-8.00,+3.00,-4.00,-2.00,-16.00,-17.00,-4.00,-53.00
+78.00,+7.00,+10.00,+1.00,+29.00,+11.00,-2.00,+3.00,+7.00,-7.00,-2.00,-2.00,+8.00,+6.00,-1.00,-15.00
+7.00,-7.00,+8.00,+1.00,-27.00,+2.00,-6.00,+6.00,+11.00,+0.00,+0.00,-11.00,+6.00,+1.00,+0.00,-9.00
+5.00,-34.00,+3.00,+5.00,+34.00,-4.00,-28.00,+2.00,+5.00,-6.00,+2.00,-1.00,-12.00,-8.00,-7.00,+0.00
+1.00,-24.00,+5.00,+2.00,+4.00,+7.00,+60.00,+2.00,-2.00,+5.00,-2.00,-3.00,-4.00,+8.00,-3.00,-2.00
+15.00,-23.00,-12.00,-4.00,-35.00,-10.00,+11.00,-2.00,+34.00,-2.00,-3.00,+14.00,+20.00,+5.00,+2.00,+11.00
-30.00,+40.00,-1.00,-7.00,-12.00,-2.00,-3.00,-3.00,-9.00,-8.00,+1.00,-5.00,-14.00,-9.00,+1.00,+9.00
+24.00,-43.00,+3.00,+3.00,+23.00,+2.00,+15.00,+2.00,-9.00,-10.00,-1.00,-4.00,-14.00,-1.00,-4.00,+22.00
+21.00,+71.00,-1.00,+0.00,-8.00,-4.00,-20.00,-4.00,+35.00,+33.00,+2.00,-7.00,+15.00,+2.00,-2.00,+8.00
-10.00,+0.00,-3.00,-4.00,-18.00,-2.00,-11.00,-4.00,-10.00,-14.00,-1.00,+11.00,+10.00,-2.00,+3.00,+31.00
-42.00,-11.00,-7.00,+0.00,+21.00,+0.00,+10.00,-1.00,-7.00,+3.00,+1.00,-4.00,+2.00,-2.00,-1.00,+8.00
-24.00,-2.00,-2.00,-1.00,-9.00,+0.00,-13.00,-5.00,+15.00,-3.00,+1.00,-10.00,+2.00,+3.00,-4.00,+5.00
-34.00,+18.00,+4.00,+0.00,-12.00,-1.00,-12.00,-2.00,-26.00,-12.00,-5.00,-5.00,-10.00,+0.00,-3.00,-26.00
-32.00,+15.00,+2.00,+2.00,+34.00,+4.00,+2.00,-4.00,+25.00,-1.00,-2.00,+1.00,-3.00,-2.00,-1.00,-28.00
-56.00,-32.00,-5.00,-4.00,-14.00,-3.00,-8.00,-2.00,-4.00,+5.00,+1.00,+1.00,+14.00,+3.00,+0.00,-17.00
-29.00,+0.00,-3.00,-3.00,-21.00,-2.00,+3.00,+1.00,+2.00,+4.00,-1.00,-2.00,-9.00,-3.00,-4.00,-12.00
-9.00,+10.00,+2.00,+1.00,-25.00,-2.00,-10.00,+8.00,+25.00,-7.00,+1.00,-8.00,-4.00,-3.00,+0.00,-15.00
+23.00,+58.00,+5.00,+6.00,+49.00,+13.00,+4.00,+9.00,-7.00,+6.00,+0.00,+5.00,-3.00,+0.00,-1.00,-9.00
-38.00,-39.00,-5.00,-3.00,-3.00,-2.00,-2.00,-2.00,-3.00,-11.00,-2.00,-6.00,+5.00,+0.00,-3.00,-11.00
-9.00,+32.00,+4.00,-3.00,-15.00,-5.00,+1.00,+11.00,+12.00,+7.00,+0.00,+0.00,-3.00,-5.00,+1.00,-1.00
-29.00,-1.00,-1.00,-1.00,+9.00,+7.00,-3.00,+2.00,-22.00,-1.00,-1.00,-2.00,-9.00,-2.00,-5.00,-4.00
-20.00,+4.00,+1.00,+2.00,-8.00,-5.00,-5.00,+1.00,-4.00,+0.00,-1.00,+2.00,+3.00,+1.00,-2.00,+2.00
-24.00,-15.00,-5.00,-3.00,+0.00,-1.00,+1.00,+1.00,+33.00,+7.00,-1.00,-5.00,+1.00,-2.00,-3.00,-4.00
+22.00,+25.00,-2.00,-2.00,+5.00,+0.00,+1.00,+6.00,-15.00,-4.00,+1.00,-1.00,-5.00,-2.00,+0.00,+7.00
+4.00,-10.00,-1.00,+0.00,+8.00,+0.00,-10.00,+2.00,-2.00,-7.00,+0.00,+3.00,+12.00,+3.00,-2.00,-1.00
+5.00,-17.00,-3.00,+0.00,-7.00,-2.00,-4.00,+5.00,+4.00,+2.00,-1.00,+10.00,-1.00,-3.00,-2.00,-1.00
-13.00,+9.00,+1.00,+2.00,+6.00,+2.00,-3.00,+4.00,-1.00,+5.00,-1.00,-34.00,+0.00,-4.00,-2.00,-7.00
-2.00,-11.00,-3.00,-2.00,-3.00,-2.00,-1.00,+2.00,+0.00,+3.00,+2.00,+4.00,-1.00,+0.00,+1.00,+9.00
+11.00,+18.00,-4.00,+1.00,+9.00,+1.00,-2.00,+7.00,+0.00,-4.00,-4.00,-4.00,-8.00,+1.00,-1.00,+2.00
+6.00,-23.00,+0.00,-1.00,-9.00,-2.00,-3.00,+0.00,+7.00,-6.00,+0.00,-1.00,+5.00,-1.00,-4.00,+2.00
+0.00,-12.00,-2.00,+0.00,-3.00,+0.00,+0.00,+0.00,-8.00,+27.00,-5.00,+3.00,-1.00,+0.00,-3.00,+2.00
-38.00,+13.00,+1.00,+0.00,+7.00,-2.00,-4.00,-5.00,-16.00,-5.00,+2.00,+1.00,+6.00,+1.00,-2.00,-5.00
-57.00,-29.00,-7.00,+1.00,+6.00,-1.00,-4.00,-6.00,+17.00,-19.00,+2.00,-6.00,+1.00,-1.00,+1.00,+8.00
+32.00,+48.00,+4.00,+0.00,-7.00,-2.00,-1.00,+5.00,-14.00,+18.00,-7.00,+4.00,-5.00,+1.00,-2.00,+4.00
+12.00,-4.00,+0.00,-2.00,+2.00,+0.00,-1.00,-2.00,-2.00,-4.00,+2.00,+5.00,+1.00,+12.00,+0.00,+8.00
+64.00,+5.00,+0.00,-5.00,-11.00,+0.00,-1.00,-1.00,+6.00,+1.00,-1.00,-4.00,+0.00,-11.00,-2.00,+4.00
+35.00,-19.00,-1.00,+3.00,+30.00,-3.00,-5.00,-4.00,-2.00,+9.00,-2.00,+2.00,-6.00,-2.00,-5.00,-4.00
+41.00,-8.00,+2.00,-2.00,-5.00,+1.00,+0.00,-1.00,+4.00,-15.00,+0.00,-3.00,-4.00,-2.00,+0.00,+0.00
+1.00,-37.00,-4.00,-4.00,-5.00,+0.00,+0.00,+0.00,-8.00,-16.00,-1.00,+1.00,+0.00,+1.00,-2.00,-2.00
-44.00,+19.00,-2.00,+0.00,+6.00,+0.00,-2.00,-3.00,+14.00,+3.00,-1.00,-2.00,+3.00,+3.00,-1.00,+2.00
-10.00,+17.00,+3.00,-2.00,-15.00,-2.00,-4.00,-2.00,+7.00,+10.00,+0.00,-1.00,-10.00,+0.00,+0.00,+7.00
+3.00,+16.00,-4.00,+2.00,+2.00,+4.00,-3.00,-2.00,-14.00,-16.00,-3.00,-5.00,+12.00,+3.00,-2.00,+0.00
+7.00,-16.00,+0.00,+2.00,+7.00,-2.00,+0.00,-4.00,+6.00,-26.00,-1.00,-2.00,+1.00,-1.00,+0.00,+4.00
+29.00,-20.00,-3.00,-1.00,+0.00,+3.00,+0.00,+1.00,-8.00,+21.00,+3.00,+1.00,-2.00,-1.00,-2.00,+2.00
+23.00,+30.00,+0.00,-1.00,-2.00,+3.00,-3.00,-4.00,-9.00,-5.00,-5.00,-3.00,-13.00,-2.00,+0.00,+3.00
+0.00,-20.00,+0.00,-1.00,-1.00,-3.00,-1.00,-3.00,+6.00,+9.00,+1.00,+3.00,+16.00,+2.00,+1.00,+4.00
-20.00,-7.00,-3.00,-2.00,-11.00,-3.00,-2.00,-6.00,-13.00,-6.00,-3.00,-1.00,-8.00,-5.00,-1.00,-7.00
+3.00,-7.00,-2.00,+0.00,+1.00,+0.00,-1.00,-2.00,+4.00,-14.00,-5.00,-2.00,-4.00,-1.00,-3.00,-6.00
+18.00,+35.00,+4.00,+1.00,+0.00,-2.00,-1.00,+0.00,+1.00,+6.00,+0.00,+2.00,-2.00,+1.00,+0.00,+1.00
-2.00,+22.00,-4.00,-3.00,-7.00,-2.00,-2.00,-2.00,-5.00,-12.00,-1.00,-4.00,+2.00,+0.00,-3.00,-7.00
-15.00,+4.00,-2.00,-2.00,+3.00,+2.00,-2.00,+0.00,-11.00,+6.00,+2.00,+15.00,-3.00,-4.00,-1.00,+1.00
+8.00,-23.00,-2.00,+0.00,-2.00,-4.00,-1.00,+0.00,-1.00,-25.00,-2.00,-8.00,-7.00,-1.00,-1.00,+3.00
+8.00,+41.00,+4.00,-1.00,+4.00,+3.00,+0.00,+0.00,+2.00,+33.00,-1.00,-4.00,-6.00,-1.00,-3.00,-3.00
-10.00,-32.00,-1.00,-1.00,-5.00,+0.00,-1.00,-4.00,-10.00,-8.00,-1.00,-1.00,-17.00,-7.00,-1.00,-10.00
+4.00,+24.00,+2.00,-1.00,-8.00,-5.00,-1.00,+4.00,+4.00,-3.00,-2.00,-6.00,+4.00,-1.00,+2.00,-1.00
+10.00,-7.00,+2.00,+0.00,+16.00,-1.00,+2.00,+5.00,-5.00,-1.00,-5.00,-3.00,-15.00,+0.00,-3.00,-3.00
-1.00,-39.00,-5.00,-1.00,+2.00,+0.00,+0.00,-1.00,-4.00,+1.00,-2.00,-4.00,+16.00,+1.00,-1.00,+2.00
-18.00,+0.00,-2.00,-3.00,-4.00,-2.00,-2.00,-1.00,+21.00,-28.00,-2.00,-4.00,-6.00,-3.00,-1.00,-2.00
-7.00,-17.00,-2.00,+0.00,-1.00,+3.00,-2.00,+0.00,-30.00,+7.00,+3.00,+2.00,+2.00,-1.00,-2.00,-6.00
-3.00,-2.00,-1.00,-4.00,-1.00,-6.00,-4.00,-4.00,+8.00,+4.00,-3.00,+3.00,+0.00,-1.00,+0.00,+2.00
+5.00,+0.00,+2.00,+3.00,-17.00,-5.00,+1.00,+1.00,-12.00,-13.00,-3.00,-2.00,-1.00,+0.00,+0.00,-3.00
-5.00,-10.00,+0.00,+0.00,+6.00,-2.00,+0.00,+1.00,+24.00,+17.00,-1.00,-1.00,-6.00,-1.00,-2.00,-1.00
-2.00,-5.00,-2.00,-4.00,-4.00,-1.00,-3.00,-2.00,-26.00,-1.00,+3.00,+4.00,-2.00,+1.00,+0.00,+1.00
-23.00,+33.00,-3.00,-1.00,-9.00,-5.00,-1.00,-5.00,-8.00,-7.00,-1.00,-17.00,-1.00,+1.00,+1.00,+3.00
+11.00,+3.00,+1.00,+0.00,+20.00,+2.00,+0.00,+5.00,-4.00,-9.00,-4.00,+3.00,-12.00,-1.00,+0.00,-1.00
-7.00,-13.00,-4.00,-4.00,-5.00,-2.00,-2.00,+0.00,-7.00,+8.00,+1.00,-5.00,+5.00,+0.00,+1.00,+2.00
-9.00,-34.00,-1.00,+0.00,-3.00,-3.00,+1.00,+1.00,+0.00,-13.00,-3.00,-2.00,+8.00,-3.00,-4.00,-5.00
-10.00,+10.00,-3.00,-4.00,-9.00,+1.00,-2.00,-3.00,+41.00,+12.00,+2.00,+17.00,+10.00,+1.00,+0.00,+2.00
+12.00,+17.00,+5.00,+0.00,-2.00,+0.00,-2.00,+0.00,-8.00,+10.00,+3.00,-11.00,+5.00,+1.00,+0.00,+2.00
-9.00,-15.00,-5.00,-1.00,-9.00,-3.00,-1.00,-5.00,-9.00,+0.00,-6.00,-5.00,-11.00,-2.00,+2.00,+2.00
-1.00,+22.00,+0.00,+0.00,+8.00,+1.00,+0.00,+2.00,+19.00,-1.00,-4.00,-6.00,+0.00,+0.00,-3.00,-1.00
+2.00,-11.00,-5.00,-2.00,+1.00,+2.00,+0.00,-2.00,-20.00,-13.00,-5.00,+0.00,-6.00,-2.00,-2.00,-2.00
-6.00,-43.00,-3.00,-2.00,-13.00,-6.00,+0.00,-1.00,+9.00,-11.00,+0.00,+5.00,+7.00,-2.00,-2.00,-5.00
+22.00,+38.00,+5.00,+4.00,+17.00,-1.00,-3.00,+2.00,-4.00,+10.00,+6.00,+3.00,-2.00,+1.00,+0.00,+2.00
-6.00,-20.00,-5.00,-3.00,-4.00,-1.00,+0.00,-1.00,-5.00,-6.00,-2.00,-1.00,-1.00,-2.00,-1.00,-3.00
+18.00,+25.00,+2.00,+1.00,+16.00,+5.00,+2.00,+3.00,+3.00,+3.00,-2.00,+0.00,+1.00,-7.00,+0.00,+3.00
-19.00,+18.00,-6.00,-5.00,-12.00,-2.00,-3.00,-5.00,-2.00,+1.00,-2.00,-2.00,-2.00,-1.00,-3.00,-2.00
+5.00,-22.00,+1.00,-5.00,-23.00,+2.00,+2.00,+1.00,-25.00,-8.00,-2.00,+6.00,+4.00,+0.00,-1.00,-1.00
-1.00,-4.00,+2.00,+7.00,+25.00,+4.00,+3.00,+3.00,+17.00,+2.00,-2.00,-3.00,-6.00,-2.00,+0.00,+3.00
+3.00,-9.00,-1.00,+1.00,+16.00,-2.00,+1.00,+5.00,-1.00,+0.00,-4.00,-9.00,-9.00,+1.00,-1.00,+3.00
