+0.00,-1.00,-2.00,-1.00,-1.00,-4.00,+0.00,+1.00,-2.00,-16.00,+0.00,-2.00,-1.00,-2.00,-1.00,-2.00
-1.00,+1.00,-1.00,-1.00,-2.00,-1.00,-1.00,+1.00,+1.00,+16.00,-3.00,-2.00,-1.00,-1.00,-1.00,-2.00
+0.00,-1.00,-2.00,+0.00,-2.00,+0.00,-2.00,-1.00,+0.00,+4.00,+0.00,+1.00,+0.00,-2.00,+0.00,+0.00
+1.00,-2.00,-1.00,+0.00,-2.00,-2.00,-1.00,+0.00,-2.00,-2.00,-3.00,-1.00,-1.00,-1.00,-1.00,-3.00
+0.00,+0.00,+0.00,+0.00,-1.00,-1.00,-1.00,-1.00,+0.00,+2.00,-1.00,+1.00,+0.00,-1.00,+0.00,+0.00
-1.00,+0.00,-2.00,-2.00,-1.00,-2.00,+0.00,-2.00,-2.00,-11.00,-1.00,-2.00,-1.00,-3.00,-2.00,+1.00
-2.00,-7.00,+1.00,-1.00,+1.00,+0.00,+0.00,+0.00,-2.00,-6.00,-1.00,-2.00,-1.00,+0.00,-1.00,-1.00
-1.00,-3.00,+1.00,+1.00,+0.00,-1.00,+0.00,-1.00,-4.00,+0.00,-3.00,+0.00,-2.00,+1.00,+0.00,-1.00
-2.00,-4.00,-2.00,-3.00,-2.00,-2.00,+1.00,+0.00,+0.00,-1.00,-2.00,-1.00,-2.00,-2.00,-1.00,-1.00
+0.00,+3.00,-3.00,-2.00,-3.00,-2.00,-1.00,-4.00,-4.00,-5.00,-3.00,-3.00,-2.00,+0.00,-1.00,-2.00
-2.00,-6.00,-1.00,-2.00,-1.00,-2.00,-3.00,-2.00,-3.00,+0.00,-1.00,-1.00,+0.00,-1.00,+0.00,-3.00
+1.00,-11.00,+0.00,+2.00,-1.00,-1.00,-1.00,+1.00,+1.00,-4.00,+0.00,-3.00,-1.00,-1.00,-1.00,-2.00
+0.00,+19.00,+1.00,+1.00,-2.00,-1.00,+0.00,+0.00,+2.00,+3.00,+0.00,+2.00,-1.00,-2.00,-1.00,-3.00
-1.00,-2.00,+0.00,+0.00,-1.00,-2.00,-3.00,+0.00,-3.00,+4.00,-2.00,-2.00,+1.00,+0.00,-1.00,-1.00
-1.00,+5.00,+0.00,+0.00,+1.00,+1.00,-1.00,-3.00,+8.00,+4.00,-1.00,+0.00,-2.00,-1.00,+0.00,+1.00
-3.00,-7.00,+1.00,+0.00,+1.00,-1.00,-2.00,-1.00,-9.00,-5.00,-1.00,-1.00,-2.00,-3.00,-3.00,-3.00
-1.00,-9.00,-1.00,-1.00,+0.00,-2.00,+0.00,-1.00,-27.00,-5.00,+1.00,+3.00,+0.00,-1.00,-2.00,-3.00
+1.00,-1.00,-2.00,-3.00,-1.00,-1.00,+0.00,-1.00,+18.00,-5.00,-5.00,-6.00,-3.00,-4.00,+2.00,-2.00
+1.00,-1.00,+1.00,-2.00,-3.00,-2.00,-1.00,-1.00,-1.00,+3.00,+2.00,+3.00,-3.00,-1.00,+0.00,+3.00
-2.00,+2.00,-4.00,+12.00,+1.00,-2.00,-2.00,-3.00,-3.00,+0.00,+1.00,-1.00,+6.00,+1.00,+0.00,-1.00
-1.00,-1.00,-3.00,-8.00,+1.00,-1.00,-2.00,-1.00,+2.00,+10.00,-2.00,-4.00,-3.00,-3.00,-1.00,-1.00
-3.00,-1.00,-4.00,-2.00,-3.00,-4.00,-2.00,-1.00,-8.00,-4.00,+3.00,+1.00,-1.00,+1.00,-1.00,-1.00
+2.00,+0.00,+0.00,-10.00,+1.00,-1.00,-2.00,-1.00,-5.00,-11.00,-4.00,+2.00,-7.00,-4.00,-3.00,-3.00
+9.00,-4.00,+7.00,+7.00,+0.00,+3.00,+0.00,+0.00,+4.00,-8.00,+1.00,-2.00,-7.00,-2.00,-2.00,+2.00
-5.00,-20.00,-4.00,-11.00,-3.00,-3.00,-3.00,-3.00,+5.00,+0.00,-3.00,-4.00,+1.00,-2.00,-1.00,+1.00
+0.00,+28.00,-8.00,-13.00,-3.00,-2.00,-3.00,-4.00,-5.00,-5.00,-2.00,-6.00,+3.00,-1.00,-2.00,+2.00
+6.00,-16.00,-8.00,+3.00,-8.00,-3.00,-1.00,-1.00,+1.00,-1.00,-5.00,-6.00,-5.00,-2.00,-2.00,-1.00
+2.00,+32.00,-3.00,-20.00,-5.00,-2.00,-2.00,+1.00,+0.00,-3.00,-1.00,+4.00,-14.00,-1.00,-3.00,+0.00
-13.00,-29.00,+9.00,+11.00,-1.00,-1.00,-1.00,-2.00,-2.00,-1.00,+2.00,-2.00,+15.00,+0.00,+0.00,-1.00
+3.00,-15.00,-3.00,+7.00,+1.00,-2.00,-1.00,+1.00,-6.00,+2.00,+4.00,+19.00,+3.00,-1.00,+0.00,+3.00
-2.00,+10.00,+1.00,-1.00,-1.00,+1.00,-3.00,-1.00,-3.00,-1.00,-3.00,+0.00,-2.00,+0.00,-2.00,-3.00
-1.00,+34.00,+1.00,+3.00,+5.00,+0.00,+1.00,-1.00,+12.00,+8.00,-6.00,-20.00,+0.00,-2.00,-5.00,-5.00
-6.00,-4.00,+0.00,+0.00,-15.00,-6.00,+1.00,-1.00,+12.00,-5.00,-4.00,-7.00,+1.00,-2.00,-6.00,-8.00
-4.00,-11.00,+1.00,+4.00,-11.00,-2.00,+0.00,+0.00,-44.00,-11.00,+3.00,+38.00,+3.00,-4.00,-5.00,-10.00
-11.00,+13.00,+3.00,+9.00,+29.00,+4.00,+2.00,-2.00,-2.00,+2.00,-1.00,-1.00,-3.00,-1.00,-1.00,-1.00
-8.00,-23.00,-2.00,+20.00,-2.00,-5.00,-1.00,-3.00,-16.00,-5.00,-2.00,-40.00,+17.00,-2.00,+0.00,-9.00
+16.00,+7.00,-3.00,-17.00,+1.00,+2.00,+0.00,+7.00,+2.00,+2.00,+2.00,-18.00,-6.00,+1.00,+2.00,+0.00
-8.00,-29.00,+1.00,+4.00,+2.00,+0.00,-2.00,-4.00,-21.00,-9.00,+3.00,-5.00,-26.00,-1.00,+2.00,+8.00
+7.00,+19.00,+1.00,-11.00,-11.00,-4.00,+0.00,+2.00,+8.00,+5.00,+1.00,+14.00,+37.00,-1.00,-2.00,-3.00
+1.00,-16.00,-4.00,-8.00,-17.00,-2.00,-2.00,-1.00,-14.00,-3.00,-1.00,+35.00,-19.00,+0.00,+2.00,-5.00
-9.00,-10.00,-3.00,+22.00,-2.00,-3.00,-3.00,-7.00,+5.00,-2.00,-3.00,-16.00,-9.00,-4.00,-3.00,-4.00
-7.00,-53.00,-4.00,-13.00,+38.00,+5.00,+1.00,-2.00,+19.00,+2.00,-4.00,-2.00,+11.00,-1.00,-2.00,-3.00
+11.00,+71.00,+3.00,-2.00,-19.00,-4.00,-2.00,-1.00,+2.00,+0.00,+1.00,-14.00,+51.00,+2.00,+0.00,+0.00
-4.00,+38.00,+4.00,-9.00,-24.00,-6.00,+0.00,-3.00,+16.00,+7.00,+1.00,+8.00,-33.00,+2.00,-1.00,+3.00
+17.00,-27.00,-4.00,+11.00,-14.00,+9.00,+3.00,+6.00,-8.00,-7.00,-4.00,+7.00,-4.00,-9.00,-4.00,-2.00
-16.00,-37.00,-2.00,+6.00,+24.00,+3.00,+0.00,-2.00,+14.00,-5.00,-3.00,-5.00,-11.00,+1.00,-1.00,-3.00
+23.00,+72.00,+9.00,+8.00,+1.00,-2.00,+4.00,+7.00,-7.00,+4.00,+1.00,-2.00,-8.00,-3.00,-1.00,-2.00
-6.00,-53.00,-4.00,-14.00,+15.00,+2.00,+0.00,+0.00,-7.00,-1.00,+0.00,-2.00,+15.00,+16.00,-1.00,-3.00
+0.00,-11.00,-8.00,-14.00,-37.00,-5.00,-3.00,-4.00,+8.00,+1.00,-2.00,+17.00,-5.00,-7.00,+0.00,+6.00
-5.00,-4.00,-3.00,-2.00,-18.00,-1.00,+1.00,+1.00,+3.00,+8.00,+0.00,-11.00,+29.00,-7.00,-4.00,-5.00
-26.00,-65.00,-10.00,-4.00,+3.00,+3.00,-3.00,-4.00,-24.00,-12.00,-1.00,-6.00,-36.00,-4.00,+0.00,+2.00
+10.00,-8.00,+3.00,+5.00,-2.00,-2.00,-2.00,+2.00,-5.00,-4.00,-3.00,-5.00,+4.00,+10.00,+1.00,-3.00
-9.00,+22.00,-1.00,-2.00,+15.00,-4.00,-2.00,-2.00,+7.00,+6.00,-1.00,+29.00,-27.00,-1.00,-2.00,+2.00
+1.00,+11.00,+8.00,+1.00,-10.00,+1.00,+0.00,+0.00,-21.00,-13.00,-3.00,-27.00,+25.00,-4.00,-2.00,-3.00
-4.00,-20.00,-9.00,+0.00,-4.00,-10.00,-1.00,-2.00,+22.00,+3.00,+1.00,-15.00,-23.00,-2.00,+0.00,+3.00
-9.00,+12.00,+1.00,-4.00,+3.00,-2.00,-1.00,-2.00,-17.00,+3.00,+2.00,+21.00,+19.00,-6.00,+0.00,+1.00
+9.00,-6.00,+2.00,+4.00,+7.00,+0.00,-1.00,-2.00,+2.00,-2.00,-5.00,-55.00,-13.00,+2.00,+0.00,+0.00
+13.00,+39.00,+5.00,-4.00,-2.00,+1.00,-2.00,+0.00,+14.00,-1.00,-1.00,+3.00,-20.00,-1.00,+2.00,+1.00
-9.00,-33.00,-3.00,-5.00,-15.00,-7.00,-3.00,-4.00,-6.00,+1.00,+3.00,+6.00,-8.00,-1.00,-2.00,-4.00
-9.00,-41.00,-12.00,-8.00,-26.00,+1.00,+0.00,-2.00,+12.00,-6.00,+0.00,+2.00,+2.00,-7.00,-1.00,+2.00
+17.00,+85.00,+4.00,+3.00,+53.00,+3.00,-1.00,+1.00,+3.00,+2.00,+0.00,+11.00,+19.00,+3.00,+0.00,+1.00
+16.00,+61.00,+11.00,-3.00,-28.00,-3.00,+0.00,+3.00,-3.00,-2.00,+0.00,+5.00,-16.00,+1.00,-1.00,-2.00
-9.00,-32.00,+1.00,+6.00,+25.00,-4.00,+3.00,+2.00,-8.00,-7.00,-5.00,-8.00,+3.00,+3.00,+1.00,+2.00
+2.00,+3.00,-2.00,+3.00,+11.00,-3.00,-1.00,-3.00,+8.00,+3.00,+1.00,+10.00,+1.00,-6.00,-2.00,-2.00
-15.00,-46.00,-7.00,-7.00,+9.00,-4.00,+1.00,-2.00,-24.00,-5.00,-1.00,+8.00,+12.00,+0.00,-1.00,+2.00
-3.00,+8.00,+0.00,+7.00,-16.00,-4.00,+0.00,-4.00,+32.00,-1.00,-5.00,+8.00,-39.00,+6.00,-2.00,+1.00
-4.00,+9.00,-2.00,+0.00,+21.00,+1.00,-2.00,-6.00,+4.00,-10.00,-11.00,+39.00,+44.00,+0.00,-1.00,-2.00
-7.00,+4.00,-2.00,+0.00,-5.00,-2.00,+0.00,-1.00,-22.00,-13.00,+3.00,-51.00,-57.00,-11.00,-1.00,+5.00
+2.00,+2.00,+5.00,+6.00,+4.00,+5.00,-2.00,+0.00,+6.00,+26.00,-2.00,-27.00,+41.00,+0.00,+1.00,-1.00
+0.00,-20.00,-1.00,-2.00,-9.00,-7.00,-3.00,-3.00,-33.00,+1.00,+6.00,-4.00,+15.00,-4.00,+0.00,-2.00
+3.00,-24.00,-3.00,-8.00,-18.00,-3.00,-1.00,-1.00,+16.00,-19.00,-4.00,-13.00,-93.00,-5.00,-1.00,-13.00
+1.00,+3.00,-5.00,-1.00,+9.00,+2.00,-1.00,+1.00,-17.00,+12.00,+7.00,+28.00,+0.00,-6.00,-8.00,-2.00
-6.00,+1.00,-1.00,-6.00,-16.00,-2.00,-1.00,+0.00,+63.00,+1.00,-3.00,+37.00,+63.00,+5.00,+5.00,+16.00
-10.00,-27.00,-9.00,-2.00,+10.00,-3.00,-4.00,-2.00,+46.00,+1.00,-8.00,-38.00,+20.00,-1.00,+5.00,-1.00
+2.00,+5.00,+0.00,-10.00,-107.00,-12.00,-3.00,-2.00,+5.00,+35.00,+6.00,+22.00,+89.00,+4.00,+38.00,+7.00
-11.00,-24.00,-1.00,+5.00,+103.00,+31.00,-3.00,-4.00,+11.00,-13.00,-2.00,-32.00,+44.00,+14.00,-27.00,-7.00
+9.00,-7.00,-2.00,-2.00,-36.00,-31.00,+1.00,-1.00,-45.00,-13.00,+0.00,-18.00,-9.00,-4.00,+21.00,-6.00
-11.00,+19.00,+1.00,+9.00,+37.00,+23.00,+1.00,+0.00,+13.00,-29.00,-8.00,+12.00,+20.00,+1.00,+16.00,-10.00
+2.00,+35.00,+9.00,+9.00,+14.00,+5.00,+3.00,+7.00,-10.00,-6.00,+0.00,+31.00,-34.00,-23.00,+4.00,-3.00
+22.00,+11.00,-2.00,-9.00,-55.00,-2.00,+4.00,+4.00,+54.00,+29.00,+0.00,+20.00,-17.00,+7.00,+18.00,+1.00
+6.00,-37.00,-3.00,-5.00,+23.00,-8.00,-15.00,-1.00,+29.00,-7.00,-5.00,+41.00,-36.00,+22.00,-10.00,-7.00
+1.00,-16.00,+3.00,+4.00,+1.00,+25.00,-1.00,-4.00,-41.00,-30.00,-4.00,-29.00,-14.00,-26.00,+9.00,-13.00
-31.00,-42.00,-7.00,-5.00,-55.00,-16.00,-41.00,-10.00,+62.00,+41.00,+5.00,-73.00,-16.00,-25.00,-18.00,+20.00
+47.00,+61.00,+8.00,-1.00,-6.00,+7.00,+53.00,+10.00,-31.00,+8.00,-2.00,-1.00,+4.00,-1.00,+69.00,+13.00
-1.00,-3.00,+12.00,+8.00,+65.00,+12.00,-1.00,+8.00,-5.00,+9.00,+8.00,-36.00,-67.00,-7.00,-32.00,+1.00
-12.00,-66.00,-6.00,+3.00,+6.00,-9.00,-1.00,-2.00,+47.00,-63.00,-6.00,+45.00,+48.00,+8.00,-52.00,+0.00
+12.00,-6.00,+0.00,+7.00,+115.00,+14.00,+18.00,+5.00,-102.00,-27.00,-10.00,+1.00,-16.00,+5.00,+0.00,-15.00
-27.00,-24.00,-11.00,-14.00,-42.00,-17.00,-32.00,-16.00,+1.00,+75.00,+0.00,+10.00,+17.00,-4.00,-8.00,-5.00
+18.00,+19.00,-8.00,-1.00,-25.00,+7.00,-1.00,+8.00,-9.00,-31.00,+1.00,+22.00,-11.00,+4.00,+33.00,-9.00
-11.00,+24.00,+4.00,-5.00,+3.00,-4.00,+6.00,+3.00,-47.00,+16.00,+4.00,+19.00,+23.00,+11.00,-2.00,+10.00
+17.00,-34.00,-17.00,-26.00,-111.00,-18.00,-2.00,-9.00,+94.00,-18.00,+0.00,+4.00,-5.00,-37.00,+16.00,-1.00
-13.00,+18.00,+9.00,+19.00,+108.00,-17.00,+16.00,+4.00,+28.00,-5.00,-4.00,-10.00,+31.00,+60.00,-12.00,+22.00
-46.00,-57.00,-7.00,+11.00,+59.00,+14.00,-51.00,-6.00,-14.00,-52.00,-18.00,-67.00,-21.00,+17.00,-23.00,-19.00
+44.00,+47.00,+11.00,+5.00,-9.00,-5.00,-5.00,+5.00,-12.00,+66.00,+3.00,+13.00,-79.00,-35.00,+6.00,+6.00
+1.00,+8.00,+5.00,+3.00,+16.00,+17.00,-16.00,+4.00,-17.00,-45.00,+0.00,+25.00,-19.00,+53.00,-66.00,-6.00
-25.00,-81.00,-18.00,-12.00,-43.00,-7.00,+23.00,-11.00,+66.00,+34.00,+0.00,+0.00,+32.00,-64.00,-35.00,-8.00
+52.00,+90.00,+11.00,-5.00,-62.00,-13.00,+19.00,+3.00,-53.00,+10.00,+8.00,+21.00,-11.00,-15.00,-75.00,-9.00
-6.00,-25.00,-15.00,-6.00,-13.00,+6.00,-16.00,+0.00,-22.00,-106.00,-10.00,-31.00,+62.00,+14.00,+40.00,-7.00
-15.00,-86.00,-4.00,-7.00,-16.00,-14.00,+2.00,-8.00,+18.00,+111.00,+8.00,-21.00,-20.00,-4.00,+18.00,-4.00
-38.00,+52.00,+0.00,+4.00,-12.00,-9.00,-47.00,+1.00,-4.00,-80.00,-8.00,+26.00,-47.00,-6.00,+10.00,+12.00
-49.00,+12.00,-2.00,-13.00,-74.00,+4.00,-25.00,-8.00,+26.00,+35.00,-3.00,-11.00,-11.00,+17.00,+16.00,+4.00
-22.00,-1.00,-1.00,+17.00,+78.00,-5.00,+78.00,+3.00,-13.00,+34.00,+5.00,+17.00,+47.00,-18.00,-20.00,-2.00
+27.00,+14.00,+6.00,+8.00,+56.00,+3.00,-45.00,+6.00,-57.00,-36.00,-3.00,-22.00,+7.00,-21.00,-7.00,-19.00
+27.00,-20.00,-4.00,+0.00,+6.00,+18.00,+80.00,+8.00,-109.00,-85.00,+0.00,+11.00,+11.00,+69.00,+21.00,-8.00
+12.00,+88.00,+22.00,+6.00,+28.00,-10.00,+48.00,-4.00,+79.00,-80.00,+5.00,-16.00,-9.00,-26.00,-19.00,+2.00
+11.00,-19.00,-11.00,-7.00,-37.00,+9.00,-35.00,-6.00,-70.00,+100.00,+13.00,+28.00,-50.00,+3.00,+1.00,-13.00
-4.00,-41.00,+11.00,+8.00,+20.00,+7.00,-8.00,+1.00,+101.00,-61.00,+0.00,-9.00,-31.00,+31.00,+33.00,+22.00
+9.00,+9.00,+5.00,+1.00,-26.00,-2.00,-8.00,-1.00,-78.00,-6.00,-1.00,-5.00,+57.00,-20.00,-25.00,-26.00
+21.00,+22.00,-10.00,-5.00,-12.00,-7.00,-12.00,-5.00,+66.00,+34.00,-2.00,-14.00,+18.00,-14.00,+22.00,+16.00
-2.00,-34.00,-2.00,-5.00,+2.00,-11.00,-5.00,+3.00,+3.00,+38.00,+2.00,-15.00,-40.00,+10.00,+2.00,+3.00
+26.00,+25.00,-11.00,+0.00,-17.00,-1.00,+41.00,+3.00,-21.00,+25.00,-8.00,+15.00,+8.00,-1.00,-16.00,-7.00
-17.00,-51.00,-2.00,-1.00,+20.00,+3.00,-67.00,-9.00,+16.00,-47.00,+5.00,-7.00,-22.00,-16.00,+2.00,-17.00
-9.00,-10.00,-2.00,-3.00,-2.00,-9.00,+13.00,-1.00,-32.00,+7.00,+5.00,+40.00,+14.00,+2.00,+30.00,+7.00
+4.00,+23.00,+1.00,-1.00,+7.00,+1.00,-12.00,-2.00,+52.00,+4.00,+1.00,-42.00,-29.00,-2.00,-14.00,-2.00
-56.00,-39.00,+9.00,+4.00,-18.00,-3.00,+15.00,-9.00,-89.00,-2.00,+1.00,-3.00,+29.00,+13.00,-6.00,-5.00
+12.00,-25.00,-5.00,-1.00,+11.00,+10.00,-37.00,+6.00,+64.00,-9.00,-9.00,-16.00,+3.00,-25.00,-5.00,+6.00
-22.00,+74.00,+8.00,-4.00,-14.00,+5.00,-51.00,-4.00,-64.00,+2.00,+0.00,+38.00,+25.00,+6.00,+8.00,-8.00
-4.00,-13.00,-3.00,+2.00,+22.00,+4.00,+19.00,-10.00,+13.00,+21.00,+7.00,-10.00,-31.00,+4.00,-17.00,+6.00
+24.00,+36.00,+0.00,-4.00,+2.00,+8.00,+16.00,+0.00,+64.00,-70.00,-12.00,+36.00,+7.00,+7.00,+11.00,-1.00
-19.00,-89.00,+3.00,+0.00,-31.00,-21.00,-15.00,-4.00,+46.00,+85.00,+5.00,-67.00,-12.00,-10.00,-5.00,+24.00
-17.00,-113.00,-17.00,-3.00,+3.00,+4.00,+9.00,-9.00,-58.00,-23.00,+7.00,-4.00,+14.00,-11.00,-3.00,-3.00
+25.00,+16.00,+4.00,-9.00,-50.00,-5.00,-28.00,+7.00,+9.00,+21.00,-9.00,+1.00,-2.00,-10.00,+7.00,+2.00
-12.00,+3.00,-8.00,-2.00,-10.00,-6.00,+0.00,-7.00,-54.00,+42.00,-3.00,-6.00,-50.00,+43.00,-35.00,+0.00
-12.00,+58.00,+4.00,+0.00,-23.00,+0.00,+23.00,-2.00,-49.00,-43.00,-4.00,+45.00,+28.00,-9.00,+11.00,-8.00
-14.00,-31.00,-3.00,+3.00,-7.00,+0.00,+39.00,-2.00,-41.00,+59.00,+2.00,-18.00,+5.00,+33.00,+27.00,-14.00
-7.00,+48.00,+5.00,-1.00,+5.00,-17.00,+7.00,-5.00,+33.00,-79.00,-6.00,+17.00,+6.00,+15.00,+16.00,+22.00
+0.00,-51.00,-15.00,-7.00,+6.00,-2.00,+25.00,+6.00,-14.00,+1.00,+9.00,+1.00,+19.00,-17.00,-24.00,-6.00
+33.00,+109.00,+9.00,+11.00,+61.00,-1.00,-31.00,+2.00,+41.00,-48.00,-14.00,-29.00,-27.00,-23.00,-19.00,+2.00
+4.00,-80.00,-10.00,-8.00,-4.00,+3.00,+2.00,+6.00,-68.00,+9.00,-7.00,+25.00,+15.00,+19.00,-4.00,+3.00
+52.00,+10.00,+2.00,+1.00,+29.00,-2.00,+2.00,+5.00,-7.00,+13.00,-10.00,-30.00,+18.00,+8.00,-4.00,-17.00
+14.00,+52.00,+9.00,+9.00,+33.00,+6.00,-2.00,+0.00,-43.00,-2.00,+1.00,-21.00,+75.00,-4.00,+33.00,+13.00
-9.00,-16.00,-4.00,-4.00,-33.00,+6.00,-12.00,-6.00,-68.00,+3.00,+1.00,+4.00,-45.00,+11.00,-1.00,-17.00
-8.00,-34.00,+1.00,-4.00,-1.00,-8.00,+11.00,-1.00,+36.00,+17.00,-4.00,+26.00,-30.00,-13.00,-33.00,+10.00
-16.00,+15.00,-2.00,-5.00,+4.00,-3.00,-53.00,-2.00,-8.00,-8.00,+1.00,+22.00,+44.00,-2.00,+17.00,-3.00
-11.00,-4.00,-8.00,+1.00,+5.00,+11.00,+9.00,-5.00,+68.00,+19.00,-11.00,-39.00,-38.00,-24.00,-22.00,-7.00
-8.00,-3.00,+2.00,-1.00,-43.00,-3.00,+23.00,+8.00,+10.00,-5.00,-3.00,+33.00,-43.00,-1.00,+3.00,+0.00
-2.00,+44.00,-8.00,+3.00,-13.00,+0.00,+6.00,-2.00,+30.00,+48.00,+7.00,-25.00,-3.00,-12.00,+9.00,+12.00
-44.00,+17.00,+11.00,-3.00,-32.00,-2.00,-16.00,+2.00,-104.00,-50.00,+1.00,+7.00,-26.00,-6.00,-5.00,-5.00
+4.00,+16.00,+1.00,-7.00,-1.00,-8.00,-5.00,-1.00,+70.00,+18.00,-1.00,-11.00,-45.00,+35.00,-40.00,+8.00
-21.00,+40.00,+0.00,+1.00,+4.00,-2.00,-13.00,+5.00,+47.00,-2.00,-7.00,-1.00,+21.00,-5.00,+17.00,+3.00
-3.00,+29.00,+7.00,+2.00,+22.00,+17.00,+38.00,-9.00,-5.00,-81.00,-15.00,+41.00,+42.00,-1.00,+35.00,-11.00
+0.00,-45.00,-4.00,+4.00,+3.00,+6.00,-93.00,-8.00,+53.00,+76.00,+11.00,-46.00,-21.00,+6.00,-2.00,+2.00
+1.00,-48.00,-2.00,-1.00,-19.00,-16.00,+32.00,+6.00,-20.00,-89.00,-10.00,+2.00,+24.00,-12.00,+3.00,+1.00
+6.00,+37.00,+5.00,-7.00,-20.00,+19.00,+43.00,-5.00,-48.00,+46.00,+12.00,-2.00,-14.00,-8.00,-13.00,-3.00
-10.00,-39.00,-17.00,-4.00,-1.00,+1.00,-65.00,-1.00,-4.00,-87.00,-10.00,+1.00,-9.00,+5.00,-8.00,+4.00
+3.00,-33.00,-2.00,-9.00,-51.00,-21.00,+31.00,+0.00,+21.00,+14.00,+4.00,+8.00,+45.00,-27.00,+20.00,-7.00
-8.00,+6.00,-3.00,+9.00,+38.00,+13.00,-68.00,-5.00,-58.00,+6.00,+8.00,+19.00,+16.00,-9.00,+2.00,-10.00
+29.00,-51.00,-11.00,-8.00,-14.00,-38.00,-1.00,-1.00,+83.00,+9.00,-5.00,+49.00,-13.00,+23.00,-2.00,+21.00
+1.00,-16.00,-3.00,+3.00,+36.00,+1.00,+28.00,-1.00,-5.00,+20.00,-1.00,-62.00,-3.00,-1.00,+20.00,-11.00
-29.00,+84.00,-6.00,-8.00,+2.00,+23.00,+8.00,-9.00,-19.00,-25.00,-9.00,+9.00,-48.00,-1.00,-13.00,+17.00
+26.00,+54.00,+14.00,+9.00,-33.00,-19.00,+9.00,+11.00,+32.00,-25.00,+9.00,+1.00,-108.00,-18.00,+50.00,+12.00
-9.00,-62.00,-1.00,+3.00,+20.00,-2.00,-8.00,-1.00,-105.00,+30.00,+0.00,+20.00,+97.00,+13.00,+1.00,-15.00
+31.00,-64.00,-6.00,-4.00,-13.00,-5.00,-4.00,+1.00,+65.00,-13.00,+2.00,-3.00,+24.00,+10.00,-3.00,-6.00
+15.00,+92.00,+0.00,-2.00,-7.00,-21.00,+5.00,+3.00,+47.00,+10.00,-8.00,-11.00,+33.00,-7.00,-29.00,+3.00
-7.00,+8.00,-6.00,-6.00,-20.00,+11.00,-5.00,-6.00,-31.00,-28.00,+0.00,+9.00,+2.00,+46.00,-18.00,+10.00
-10.00,+24.00,-10.00,-2.00,+36.00,+10.00,-10.00,+3.00,-64.00,-18.00,+8.00,-10.00,-39.00,+0.00,+36.00,-23.00
+24.00,-33.00,+0.00,-3.00,-33.00,-8.00,+43.00,+11.00,+28.00,-17.00,-5.00,-19.00,-8.00,-5.00,+11.00,+5.00
-16.00,-91.00,-12.00,-10.00,-51.00,+8.00,+29.00,-8.00,-5.00,+8.00,+2.00,+40.00,+37.00,-3.00,-19.00,+1.00
+16.00,+107.00,+21.00,+11.00,+56.00,+11.00,-14.00,+1.00,-41.00,-14.00,-12.00,-1.00,-56.00,-24.00,-7.00,-15.00
+2.00,-48.00,-3.00,-2.00,-41.00,-10.00,+9.00,-3.00,+77.00,+39.00,+9.00,-6.00,+27.00,+23.00,-8.00,+12.00
+9.00,+35.00,+8.00,+3.00,+58.00,+21.00,-14.00,-2.00,-91.00,-10.00,-1.00,+1.00,+0.00,-6.00,+7.00,-16.00
+5.00,-51.00,-3.00,+7.00,-42.00,-3.00,-5.00,-6.00,+71.00,-24.00,-4.00,+8.00,-21.00,+20.00,+11.00,-4.00
-3.00,-37.00,-9.00,-10.00,+24.00,-10.00,+64.00,+0.00,-79.00,+26.00,+10.00,-15.00,+7.00,-30.00,-34.00,-18.00
-16.00,-44.00,-8.00,-10.00,-7.00,-3.00,-33.00,-12.00,+36.00,+72.00,+3.00,-10.00,+5.00,-3.00,-11.00,+14.00
-26.00,+95.00,+12.00,+10.00,+64.00,+9.00,+8.00,+4.00,-39.00,-47.00,-7.00,+14.00,-57.00,-14.00,+16.00,-6.00
-14.00,-14.00,+2.00,+0.00,+11.00,+8.00,+37.00,+0.00,+22.00,-23.00,-5.00,-14.00,+34.00,+17.00,-23.00,-6.00
-18.00,-63.00,-11.00,+2.00,+1.00,-13.00,-5.00,-3.00,+9.00,+72.00,+9.00,+9.00,+46.00,-16.00,+24.00,-2.00
+0.00,+24.00,+1.00,-4.00,-13.00,+25.00,+0.00,+5.00,-47.00,-65.00,-10.00,-7.00,+0.00,-6.00,+2.00,-7.00
-15.00,-16.00,-6.00,-6.00,-19.00,-35.00,-2.00,-7.00,+69.00,+89.00,+5.00,+17.00,-12.00,-29.00,-62.00,+3.00
-45.00,-40.00,-8.00,+5.00,+58.00,+17.00,+82.00,+3.00,-90.00,-80.00,-5.00,-21.00,-59.00,+28.00,-40.00,-15.00
+1.00,+72.00,+14.00,+3.00,-12.00,+0.00,+2.00,-1.00,+32.00,-9.00,-6.00,-3.00,+31.00,-8.00,+50.00,-3.00
-21.00,-59.00,-11.00,-4.00,+42.00,+8.00,+69.00,+4.00,+43.00,-25.00,-10.00,-20.00,+28.00,-1.00,-20.00,-9.00
-6.00,-16.00,+6.00,-1.00,-41.00,-2.00,-18.00,+2.00,-2.00,+30.00,+2.00,+8.00,+58.00,-1.00,+17.00,+2.00
-8.00,-70.00,-8.00,-7.00,-25.00,-27.00,-76.00,+1.00,-50.00,-8.00,-16.00,+8.00,-29.00,+13.00,-86.00,-17.00
-48.00,-70.00,-5.00,-6.00,+11.00,+23.00,+5.00,-6.00,-18.00,-91.00,-12.00,-31.00,+12.00,-22.00,+59.00,+22.00
-3.00,+113.00,+5.00,+1.00,-48.00,-14.00,+1.00,-9.00,-50.00,+90.00,+12.00,-5.00,+1.00,-7.00,+67.00,+1.00
+10.00,-6.00,+0.00,+6.00,+55.00,+3.00,-36.00,+4.00,+8.00,-3.00,+3.00,+5.00,-15.00,-7.00,-24.00,+0.00
+26.00,+7.00,+4.00,+1.00,+1.00,-9.00,+19.00,-3.00,+64.00,+38.00,+2.00,-12.00,+16.00,+1.00,+28.00,+16.00
-6.00,-128.00,-8.00,-5.00,-40.00,+3.00,-36.00,-4.00,+1.00,-6.00,-4.00,+8.00,+36.00,+8.00,-24.00,+0.00
+27.00,+55.00,+11.00,+6.00,+7.00,-13.00,-20.00,-2.00,+39.00,-100.00,-6.00,+10.00,+1.00,-28.00,-3.00,-14.00
+9.00,-78.00,-11.00,-5.00,-30.00,-1.00,-17.00,-4.00,-25.00,+17.00,-5.00,-19.00,-25.00,-12.00,-48.00,-3.00
+31.00,+103.00,+7.00,+1.00,+31.00,-10.00,+21.00,+12.00,-29.00,+5.00,+6.00,+1.00,+14.00,+10.00,+78.00,+4.00
+7.00,+6.00,-9.00,+2.00,+1.00,+2.00,-43.00,-9.00,+34.00,+7.00,-9.00,+34.00,+26.00,-16.00,-21.00,-5.00
+26.00,+3.00,-1.00,+2.00,+0.00,-13.00,+52.00,-2.00,-9.00,-81.00,-7.00,-39.00,-14.00,+33.00,-16.00,+6.00
+32.00,-13.00,+5.00,-7.00,-42.00,+6.00,+37.00,+5.00,-39.00,+61.00,+13.00,+10.00,-12.00,+19.00,+33.00,-4.00
-23.00,+0.00,+2.00,+6.00,+10.00,-11.00,+35.00,-3.00,+17.00,+41.00,+0.00,-9.00,-30.00,-17.00,-5.00,-8.00
+72.00,+9.00,+12.00,+7.00,+28.00,+15.00,+24.00,+18.00,-23.00,-17.00,+2.00,-3.00,+1.00,-1.00,+4.00,+1.00
+10.00,+23.00,-2.00,-4.00,+8.00,-1.00,-15.00,+8.00,+36.00,+102.00,+1.00,+0.00,+19.00,-4.00,-86.00,-15.00
-44.00,-71.00,-7.00,-3.00,-27.00,+12.00,-20.00,-6.00,-26.00,-37.00,+0.00,+3.00,-28.00,-17.00,+73.00,+0.00
+11.00,+40.00,+1.00,-2.00,-30.00,-15.00,-8.00,+8.00,-28.00,-40.00,-5.00,+5.00,-28.00,-4.00,+31.00,+13.00
-22.00,+11.00,-6.00,-2.00,+13.00,+4.00,+53.00,-7.00,+63.00,+38.00,+3.00,+2.00,+35.00,-14.00,+0.00,-5.00
-1.00,+19.00,-1.00,-1.00,+11.00,+3.00,-30.00,-1.00,+3.00,-28.00,+4.00,+4.00,-16.00,+13.00,-20.00,+2.00
+8.00,-6.00,+0.00,-1.00,-10.00,-5.00,-21.00,-2.00,+1.00,+26.00,+3.00,-4.00,-2.00,+15.00,-38.00,+0.00
+8.00,-73.00,-14.00,-5.00,+20.00,+14.00,+6.00,+7.00,-22.00,-8.00,-2.00,+8.00,-1.00,-24.00,-19.00,-12.00
+2.00,+97.00,+1.00,-5.00,-36.00,-4.00,-13.00,+3.00,-24.00,+36.00,+20.00,+27.00,-10.00,-6.00,-31.00,+10.00
+6.00,-66.00,+3.00,+4.00,+26.00,-3.00,-22.00,+5.00,-6.00,-11.00,+0.00,-29.00,-42.00,-29.00,+7.00,+9.00
-26.00,+38.00,-12.00,-7.00,-9.00,-2.00,+23.00,-12.00,+3.00,+5.00,-12.00,+9.00,+18.00,-73.00,-17.00,-8.00
-62.00,-74.00,-12.00,-6.00,+3.00,+3.00,-89.00,-16.00,-60.00,-76.00,-11.00,-28.00,+6.00,+23.00,-16.00,+2.00
+41.00,+108.00,+23.00,+9.00,+23.00,-4.00,+0.00,+4.00,+57.00,+49.00,-8.00,-2.00,+8.00,+24.00,+3.00,-2.00
+28.00,-39.00,-3.00,-3.00,-5.00,+10.00,+6.00,+1.00,-19.00,+62.00,-2.00,+20.00,-16.00,-19.00,-26.00,-3.00
+27.00,-52.00,-7.00,+0.00,+9.00,-13.00,-5.00,-5.00,-5.00,-16.00,-5.00,-24.00,+22.00,+20.00,+5.00,+5.00
+88.00,+68.00,+10.00,+1.00,+7.00,+7.00,-8.00,+1.00,+69.00,+3.00,+8.00,-5.00,+45.00,+18.00,+13.00,-1.00
+7.00,-51.00,-11.00,-3.00,+2.00,-22.00,+31.00,+4.00,-10.00,+30.00,+6.00,+1.00,+1.00,-2.00,+6.00,-13.00
-19.00,-33.00,-5.00,-4.00,-13.00,-5.00,+21.00,-11.00,+7.00,-34.00,+2.00,-4.00,-15.00,+4.00,-11.00,+10.00
-15.00,+44.00,+6.00,+4.00,-30.00,+3.00,-26.00,+3.00,+39.00,+9.00,-5.00,+6.00,-2.00,+14.00,+25.00,+0.00
-39.00,-16.00,-2.00,-4.00,+12.00,-14.00,-39.00,-10.00,-23.00,-69.00,-3.00,+9.00,+10.00,-32.00,-62.00,-11.00
-68.00,-23.00,-9.00,-6.00,-9.00,-2.00,+3.00,+3.00,-21.00,+63.00,+7.00,-3.00,-21.00,+41.00,+18.00,+7.00
+21.00,+72.00,+18.00,+6.00,+4.00,+20.00,+20.00,+3.00,+13.00,+46.00,-2.00,+12.00,+6.00,-4.00,-4.00,-3.00
-69.00,-15.00,-10.00,+3.00,+19.00,+4.00,+72.00,+4.00,-69.00,-24.00,+2.00,-17.00,-22.00,+23.00,-35.00,+8.00
-31.00,+23.00,+7.00,-3.00,-16.00,-5.00,-60.00,-8.00,+10.00,+23.00,+4.00,-9.00,+5.00,+5.00,+34.00,-3.00
+29.00,-53.00,-6.00,-5.00,+5.00,-17.00,-14.00,+6.00,-88.00,-87.00,-9.00,+11.00,-6.00,-22.00,-6.00,-9.00
-7.00,+59.00,-12.00,-4.00,-14.00,+16.00,+19.00,-7.00,-14.00,+9.00,-2.00,+6.00,-43.00,-13.00,+22.00,-19.00
-7.00,+22.00,+10.00,+1.00,+2.00,-1.00,-23.00,-4.00,+103.00,-8.00,+4.00,+0.00,+5.00,+59.00,-2.00,+16.00
+61.00,-20.00,+7.00,+9.00,-6.00,-1.00,+11.00,+16.00,+1.00,+59.00,+5.00,-30.00,+0.00,-33.00,+15.00,-1.00
-16.00,-56.00,-5.00,-6.00,+6.00,-1.00,-16.00,-10.00,+37.00,+16.00,+0.00,-15.00,-5.00,+9.00,+56.00,-16.00
+14.00,+36.00,+4.00,-3.00,-2.00,-14.00,-41.00,+5.00,-71.00,-13.00,-6.00,+12.00,+21.00,+14.00,+3.00,-11.00
+56.00,+36.00,-5.00,-7.00,-18.00,+5.00,+14.00,+8.00,+6.00,-98.00,+5.00,+19.00,-4.00,-8.00,+15.00,+9.00
+6.00,-25.00,-3.00,+3.00,+33.00,+8.00,+31.00,-4.00,+60.00,+68.00,-1.00,+14.00,-7.00,+24.00,+0.00,+10.00
-10.00,+50.00,-4.00,-3.00,-31.00,-5.00,-58.00,-8.00,-22.00,-31.00,-8.00,-1.00,+1.00,+1.00,-12.00,-36.00
-7.00,-106.00,-6.00,+3.00,+29.00,+1.00,-6.00,-4.00,+9.00,-113.00,+1.00,-11.00,-9.00,-11.00,+12.00,+15.00
+22.00,+36.00,+8.00,-3.00,-52.00,-10.00,-12.00,-9.00,+33.00,+64.00,+0.00,+1.00,-4.00,-29.00,-19.00,-1.00
+5.00,+8.00,-12.00,+3.00,+30.00,-3.00,-2.00,+1.00,+0.00,+51.00,+13.00,+6.00,-8.00,+1.00,+61.00,+12.00
+45.00,+0.00,+4.00,+0.00,+5.00,+25.00,+60.00,+0.00,+75.00,+9.00,-9.00,-6.00,+3.00,+13.00,-69.00,+2.00
-20.00,-2.00,-3.00,+1.00,+14.00,-7.00,-53.00,+4.00,+11.00,+29.00,+7.00,+6.00,+3.00,+8.00,+60.00,+14.00
-87.00,-31.00,-3.00,-2.00,+9.00,-3.00,+53.00,-6.00,-35.00,-58.00,-16.00,-23.00,-5.00,-7.00,-4.00,+12.00
-47.00,+27.00,-11.00,-9.00,-46.00,-2.00,+2.00,+4.00,+10.00,-16.00,-1.00,+16.00,+6.00,-34.00,-17.00,-3.00
-15.00,+44.00,+11.00,+3.00,+6.00,+0.00,+11.00,+2.00,-83.00,+33.00,-5.00,+0.00,-15.00,+59.00,+1.00,-5.00
-30.00,-84.00,-9.00,-3.00,-10.00,+3.00,+14.00,-9.00,+53.00,+13.00,-2.00,-16.00,+43.00,-16.00,-44.00,-1.00
-5.00,+39.00,+4.00,+1.00,-3.00,-4.00,+8.00,+4.00,-11.00,-24.00,-4.00,+4.00,-14.00,-2.00,+21.00,+23.00
+46.00,+39.00,+2.00,-1.00,-10.00,+0.00,-33.00,+5.00,+9.00,-39.00,-3.00,+14.00,+3.00,-19.00,+25.00,+25.00
-26.00,-38.00,-16.00,-3.00,+10.00,-7.00,-51.00,-15.00,-7.00,+9.00,-6.00,-31.00,-10.00,-20.00,+36.00,+21.00
+57.00,+41.00,+13.00,+1.00,-17.00,+8.00,-10.00,+3.00,+0.00,-23.00,+4.00,+1.00,+3.00,-14.00,-4.00,-17.00
+69.00,-56.00,-6.00,-1.00,+10.00,-1.00,-55.00,-9.00,+5.00,+79.00,+7.00,+9.00,+11.00,+26.00,+39.00,+6.00
-6.00,-33.00,+1.00,+5.00,+26.00,+10.00,+53.00,-10.00,-96.00,+3.00,-1.00,+2.00,-14.00,+6.00,+31.00,-15.00
+30.00,+50.00,-2.00,-6.00,-31.00,-11.00,-1.00,+3.00,+17.00,-9.00,+7.00,+11.00,+14.00,-2.00,-37.00,+32.00
-37.00,-32.00,+2.00,+3.00,+8.00,-2.00,-50.00,-7.00,-80.00,-22.00,-27.00,-14.00,-18.00,-7.00,+34.00,+18.00
+38.00,+25.00,-7.00,-4.00,-4.00,-2.00,-2.00,+3.00,+35.00,+76.00,+24.00,-4.00,+5.00,+17.00,-18.00,-28.00
-39.00,-53.00,+5.00,+3.00,+11.00,-3.00,-46.00,-4.00,+6.00,-33.00,-5.00,+1.00,-22.00,-26.00,+9.00,+26.00
-18.00,-18.00,+0.00,+2.00,+18.00,+5.00,-15.00,-2.00,+27.00,-17.00,-10.00,+8.00,+30.00,-15.00,-10.00,-16.00
+6.00,-29.00,-8.00,-4.00,-22.00,-6.00,+17.00,+2.00,+10.00,+37.00,-3.00,+3.00,-13.00,-7.00,-17.00,+18.00
+24.00,+104.00,+8.00,+0.00,+2.00,-3.00,+31.00,+8.00,+1.00,-24.00,-6.00,+2.00,+1.00,-12.00,-22.00,+0.00
-58.00,-66.00,-1.00,-4.00,-13.00,-9.00,+27.00,-16.00,-8.00,-1.00,-1.00,+2.00,+1.00,-8.00,-34.00,+18.00
-106.00,-17.00,-14.00,-9.00,-36.00,-7.00,-9.00,-12.00,-40.00,-58.00,+1.00,+2.00,+0.00,+3.00,-3.00,+18.00
-2.00,-14.00,+4.00,+2.00,+7.00,-5.00,+22.00,+6.00,+7.00,-8.00,-9.00,+1.00,+1.00,+13.00,-34.00,-5.00
-75.00,-3.00,+1.00,+3.00,+24.00,+3.00,+12.00,-1.00,-25.00,+28.00,+8.00,-1.00,-1.00,+2.00,+53.00,+27.00
+2.00,-35.00,-8.00,-5.00,-16.00,+0.00,+62.00,+7.00,+27.00,-18.00,-9.00,-3.00,+2.00,+24.00,+34.00,-22.00
-51.00,+65.00,+5.00,-2.00,-3.00,-9.00,-69.00,-26.00,+126.00,+24.00,+4.00,+3.00,-4.00,-3.00,-81.00,-7.00
-24.00,-9.00,-1.00,-2.00,+1.00,+1.00,+60.00,-1.00,+85.00,-18.00,+0.00,-2.00,-17.00,-2.00,+50.00,+19.00
-8.00,-64.00,+1.00,+0.00,-6.00,-6.00,-14.00,-6.00,-29.00,-39.00,-5.00,-12.00,-4.00,-5.00,-76.00,+67.00
+23.00,-27.00,-6.00,+0.00,-4.00,+4.00,+13.00,+1.00,+50.00,+56.00,-6.00,-3.00,-5.00,+46.00,-21.00,+85.00
+58.00,+34.00,-1.00,-3.00,+8.00,+4.00,-18.00,+10.00,-33.00,-51.00,+2.00,-3.00,-5.00,+20.00,+54.00,+35.00
+13.00,+5.00,+11.00,+8.00,-20.00,-6.00,+51.00,+3.00,-34.00,+11.00,+5.00,+7.00,+7.00,+59.00,+46.00,-12.00
-33.00,-8.00,-3.00,+0.00,+22.00,+2.00,-111.00,-12.00,-14.00,-26.00,-15.00,-2.00,+9.00,-4.00,-41.00,-29.00
-28.00,+58.00,-7.00,-7.00,-19.00,-6.00,+14.00,+5.00,+15.00,-23.00,+11.00,-1.00,-6.00,-63.00,-3.00,+3.00
-5.00,-83.00,+0.00,+3.00,+4.00,+0.00,+51.00,+12.00,-21.00,+18.00,-5.00,-6.00,-2.00,-10.00,+9.00,-16.00
+26.00,-16.00,-14.00,-8.00,+2.00,-11.00,+1.00,+4.00,-116.00,-63.00,-9.00,+5.00,-6.00,+22.00,-42.00,-82.00
+62.00,-4.00,-4.00,+2.00,+11.00,+5.00,-26.00,-2.00,+127.00,+70.00,+2.00,-8.00,-3.00,-13.00,+47.00,+19.00
+53.00,+49.00,+7.00,-4.00,-23.00,-4.00,+12.00,+14.00,-88.00,-33.00,+4.00,+0.00,-7.00,-20.00,-53.00,-65.00
-6.00,+14.00,+1.00,+5.00,+9.00,+0.00,+23.00,-4.00,-41.00,+16.00,-19.00,-5.00,-6.00,-61.00,+33.00,-41.00
+31.00,-15.00,-8.00,-7.00,-2.00,-9.00,-18.00,-7.00,+14.00,-3.00,+8.00,+3.00,+5.00,+8.00,+0.00,+51.00
-1.00,-9.00,+3.00,-2.00,+6.00,+16.00,+89.00,+12.00,-27.00,-44.00,-9.00,-2.00,-1.00,+7.00,-23.00,+17.00
-22.00,-6.00,-8.00,-3.00,-15.00,-2.00,-46.00,-29.00,+7.00,-23.00,-6.00,-1.00,+0.00,+13.00,+10.00,-44.00
+63.00,-25.00,-3.00,-2.00,+14.00,+7.00,+48.00,+9.00,-50.00,-26.00,+5.00,-2.00,-1.00,-29.00,-2.00,-48.00
-32.00,+0.00,-1.00,+2.00,+4.00,+2.00,-53.00,-15.00,-20.00,-49.00,-11.00,-5.00,-4.00,-13.00,-20.00,-68.00
+0.00,-22.00,+1.00,-1.00,-7.00,-2.00,+48.00,+4.00,-48.00,+10.00,-7.00,-8.00,-8.00,-38.00,-15.00,-87.00
+72.00,-35.00,-10.00,-5.00,-3.00,+4.00,+52.00,-7.00,-34.00,-21.00,-5.00,-3.00,-2.00,-28.00,+13.00,-72.00
-13.00,+29.00,+12.00,+2.00,+0.00,+8.00,+1.00,+20.00,+92.00,+0.00,+2.00,+0.00,-5.00,+60.00,-91.00,-28.00
-43.00,+44.00,+0.00,+1.00,+5.00,-6.00,+72.00,-13.00,-104.00,-15.00,+0.00,-8.00,-11.00,+2.00,-26.00,-24.00
-43.00,-30.00,-6.00,+0.00,-8.00,-4.00,-40.00,-3.00,-8.00,-16.00,-1.00,+2.00,+1.00,+39.00,+80.00,-22.00
-38.00,-9.00,+6.00,+3.00,+11.00,+2.00,-32.00,-7.00,+57.00,+13.00,+5.00,+2.00,+1.00,+12.00,-31.00,+11.00
-1.00,+30.00,-6.00,-1.00,+3.00,+1.00,-36.00,-17.00,-75.00,-31.00,-6.00,+1.00,+7.00,+3.00,-44.00,-13.00
-34.00,+11.00,+5.00,+4.00,-2.00,+0.00,-31.00,+2.00,-18.00,+8.00,+9.00,+5.00,-1.00,+13.00,-45.00,-4.00
+17.00,+95.00,+8.00,-4.00,-3.00,+4.00,+48.00,-4.00,-36.00,-26.00,+3.00,+2.00,+1.00,-10.00,-11.00,-28.00
-8.00,-22.00,+10.00,+8.00,+10.00,-1.00,+3.00,+3.00,+1.00,-3.00,-6.00,-3.00,+2.00,+45.00,+62.00,+14.00
-4.00,-111.00,-9.00,+0.00,-3.00,-1.00,+18.00,+3.00,-52.00,+3.00,+12.00,+1.00,-5.00,-59.00,+28.00,+44.00
+43.00,+38.00,+13.00,+1.00,+0.00,+13.00,-35.00,+19.00,+127.00,+14.00,-7.00,-3.00,-4.00,-22.00,+1.00,+8.00
-16.00,-41.00,-7.00,+1.00,+7.00,-7.00,+2.00,-1.00,-13.00,-1.00,-3.00,+5.00,+5.00,-10.00,+8.00,+0.00
+11.00,+62.00,+15.00,+2.00,+6.00,+15.00,-112.00,+14.00,-8.00,+28.00,+8.00,-1.00,-4.00,+0.00,-76.00,+17.00
-18.00,-39.00,-10.00,+1.00,-1.00,-7.00,+86.00,+7.00,+99.00,+61.00,+3.00,-4.00,-13.00,+0.00,+15.00,+20.00
+11.00,-26.00,-9.00,-6.00,-4.00,+3.00,-4.00,-16.00,-74.00,-3.00,+5.00,-4.00,+3.00,-31.00,-42.00,+17.00
-49.00,-8.00,-9.00,-4.00,-1.00,-1.00,-47.00,-10.00,+66.00,+45.00,+0.00,+5.00,+7.00,-6.00,+47.00,+2.00
-12.00,+59.00,+19.00,+5.00,-3.00,-11.00,+89.00,+16.00,-5.00,-24.00,-2.00,+2.00,+3.00,+39.00,-78.00,+11.00
-13.00,+35.00,+7.00,-1.00,-8.00,-7.00,-64.00,-8.00,+29.00,-3.00,+0.00,-1.00,-3.00,+17.00,+27.00,+48.00
-14.00,-52.00,-8.00,-4.00,-7.00,-5.00,-1.00,+5.00,-7.00,+25.00,-2.00,-4.00,-10.00,-94.00,-43.00,+18.00
+34.00,+92.00,+1.00,-1.00,+0.00,-1.00,-5.00,+9.00,+35.00,+1.00,-5.00,-2.00,-6.00,+37.00,-65.00,-6.00
-43.00,-46.00,-14.00,-6.00,+1.00,-1.00,-5.00,-11.00,-6.00,+21.00,+7.00,+1.00,+3.00,+17.00,+1.00,+10.00
-19.00,-3.00,+19.00,+7.00,+0.00,+0.00,-75.00,-18.00,-107.00,-16.00,-6.00,-10.00,-5.00,-6.00,+57.00,-10.00
-8.00,+50.00,+1.00,-3.00,-5.00,-2.00,-17.00,+7.00,+18.00,-14.00,+1.00,+0.00,-5.00,+45.00,-45.00,+18.00
+43.00,-19.00,-27.00,-10.00,-6.00,-2.00,+39.00,-2.00,-63.00,+23.00,+9.00,+5.00,+5.00,-36.00,+59.00,+33.00
+78.00,+100.00,+16.00,+4.00,+6.00,+16.00,+58.00,+23.00,+68.00,+7.00,-8.00,+0.00,+1.00,-39.00,+48.00,-15.00
-9.00,-46.00,-4.00,-5.00,-9.00,+0.00,-61.00,-10.00,-39.00,+5.00,+4.00,+0.00,+0.00,+19.00,-84.00,-23.00
+32.00,+83.00,+3.00,-5.00,+2.00,+4.00,+1.00,-4.00,+119.00,-22.00,-1.00,+2.00,-3.00,-48.00,+63.00,-15.00
+15.00,-42.00,+2.00,+4.00,-1.00,-16.00,-58.00,+0.00,-60.00,-8.00,+2.00,-8.00,-7.00,+16.00,-62.00,+6.00
+21.00,-33.00,-4.00,-2.00,+1.00,+13.00,-58.00,-1.00,-68.00,+37.00,+5.00,-2.00,-6.00,+34.00,-31.00,-33.00
-32.00,+22.00,-13.00,-5.00,-5.00,-1.00,+65.00,-3.00,+55.00,-33.00,-12.00,-7.00,-3.00,+1.00,+23.00,-4.00
-4.00,-80.00,-12.00,+0.00,+8.00,+0.00,-6.00,-9.00,-12.00,-3.00,+1.00,-5.00,-4.00,+14.00,+43.00,-26.00
-32.00,-28.00,+3.00,-1.00,-5.00,+3.00,-33.00,-1.00,+11.00,-7.00,+3.00,-2.00,-5.00,-20.00,-69.00,-14.00
-10.00,-108.00,-19.00,-8.00,-8.00,-14.00,+62.00,-10.00,-19.00,+15.00,+3.00,-3.00,+0.00,-11.00,+21.00,-12.00
+41.00,+102.00,+20.00,+3.00,-4.00,-4.00,-85.00,-12.00,+8.00,-5.00,-7.00,+2.00,+4.00,-12.00,+31.00,-20.00
-14.00,-41.00,-1.00,+3.00,+6.00,+3.00,+3.00,+17.00,+28.00,+22.00,+4.00,+0.00,+0.00,+2.00,+70.00,+40.00
+8.00,-12.00,-1.00,+0.00,+0.00,-8.00,-41.00,+5.00,-57.00,-57.00,-2.00,+6.00,+6.00,-10.00,+33.00,-53.00
-41.00,-84.00,-25.00,-10.00,-9.00,-6.00,-39.00,-23.00,-30.00,-24.00,-7.00,-8.00,-10.00,-9.00,-45.00,+11.00
+55.00,+32.00,+6.00,-2.00,+8.00,+3.00,+22.00,+20.00,+26.00,+64.00,-3.00,-1.00,+1.00,-3.00,+17.00,+11.00
-4.00,-67.00,+1.00,-2.00,+0.00,-13.00,-35.00,-10.00,+21.00,+47.00,-3.00,-2.00,-1.00,+44.00,-38.00,-10.00
+5.00,+72.00,+20.00,+8.00,-2.00,+6.00,-9.00,+20.00,-53.00,-50.00,-4.00,-1.00,+1.00,+5.00,-17.00,-42.00
+7.00,-55.00,-12.00,-3.00,+3.00,-2.00,+51.00,+1.00,-2.00,-52.00,-5.00,-5.00,-5.00,-34.00,+78.00,+18.00
+8.00,+19.00,+0.00,+2.00,+1.00,+6.00,+19.00,+9.00,-82.00,+4.00,+0.00,+2.00,+10.00,+56.00,-3.00,-8.00
+1.00,+69.00,+0.00,+1.00,-3.00,-4.00,+5.00,-3.00,-7.00,+22.00,-1.00,+0.00,-4.00,+7.00,-31.00,+25.00
-15.00,-91.00,-1.00,-1.00,+1.00,+5.00,-11.00,-9.00,+72.00,+14.00,+2.00,-2.00,-1.00,-43.00,+4.00,+15.00
+22.00,-26.00,-2.00,-4.00,-1.00,-3.00,-34.00,-12.00,-25.00,+25.00,-2.00,-1.00,-5.00,+25.00,+11.00,-7.00
+0.00,-84.00,-15.00,-6.00,+1.00,-3.00,+48.00,+3.00,+3.00,-50.00,-2.00,-1.00,-1.00,-19.00,-46.00,-19.00
-12.00,+104.00,+22.00,+8.00,-3.00,+4.00,+12.00,-3.00,+46.00,+3.00,-2.00,+4.00,+5.00,-22.00,+53.00,+0.00
-17.00,-29.00,-4.00,+1.00,-2.00,-5.00,+13.00,-22.00,-27.00,-23.00,-3.00,-1.00,+0.00,+73.00,-16.00,+9.00
+13.00,+82.00,+5.00,+6.00,+9.00,+3.00,-56.00,-9.00,+23.00,-19.00,-8.00,+1.00,+7.00,-12.00,+4.00,-13.00
-14.00,-81.00,-3.00,-3.00,+2.00,-5.00,+35.00,-1.00,-5.00,+5.00,+3.00,+3.00,+1.00,+13.00,-31.00,+16.00
-6.00,-57.00,-10.00,-5.00,-3.00,+1.00,+8.00,+8.00,-14.00,+10.00,+1.00,+0.00,+0.00,+1.00,+53.00,+9.00
+27.00,-56.00,-1.00,-1.00,+8.00,+5.00,+36.00,-1.00,-26.00,+2.00,+6.00,+1.00,+0.00,-23.00,+6.00,-6.00
-41.00,+21.00,+6.00,+1.00,-7.00,-12.00,-29.00,+9.00,-1.00,+47.00,+3.00,+10.00,+3.00,-1.00,+8.00,+8.00
+11.00,-38.00,-22.00,-6.00,+0.00,+9.00,-7.00,+4.00,+17.00,+19.00,-2.00,-3.00,-2.00,-5.00,+16.00,+5.00
+21.00,-29.00,+0.00,-2.00,-5.00,-9.00,+27.00,+7.00,+13.00,-2.00,+2.00,+2.00,+4.00,-36.00,+38.00,+8.00
-15.00,+7.00,+5.00,-3.00,-8.00,-2.00,+5.00,+0.00,+44.00,+23.00,-7.00,-4.00,-1.00,+18.00,+1.00,-12.00
+11.00,+26.00,+15.00,+11.00,+12.00,+14.00,-38.00,+13.00,-75.00,+11.00,+3.00,+2.00,+5.00,+46.00,+10.00,+23.00
+4.00,+49.00,-1.00,-3.00,-6.00,-5.00,-19.00,-2.00,+35.00,-56.00,-10.00,-8.00,-7.00,-23.00,+30.00,+11.00
-19.00,+26.00,-7.00,-3.00,-5.00,+4.00,+94.00,+5.00,-23.00,-46.00,-2.00,-3.00,+1.00,-20.00,-58.00,-2.00
+14.00,+38.00,-1.00,-2.00,-5.00,-5.00,+26.00,-2.00,+56.00,+72.00,+3.00,+6.00,+3.00,-1.00,+47.00,-1.00
-14.00,-58.00,-9.00,-9.00,-11.00,-5.00,+21.00,+1.00,+31.00,-14.00,-1.00,-1.00,-7.00,+8.00,-34.00,-11.00
+12.00,-11.00,+10.00,+4.00,+3.00,+1.00,-5.00,+3.00,-35.00,-18.00,-3.00,+1.00,+4.00,-61.00,+12.00,-24.00
+21.00,-47.00,-11.00,-4.00,-7.00,-8.00,-119.00,-17.00,+5.00,+28.00,+1.00,-2.00,-2.00,+24.00,-10.00,+2.00
-6.00,+60.00,+6.00,+3.00,-1.00,-1.00,+9.00,+3.00,-22.00,+2.00,+6.00,+6.00,+5.00,-15.00,-45.00,+3.00
+6.00,+42.00,+13.00,+1.00,+3.00,-1.00,+102.00,+13.00,+52.00,-3.00,+3.00,-8.00,-6.00,-14.00,-14.00,+35.00
-47.00,-14.00,-16.00,-6.00,-17.00,-10.00,+1.00,-5.00,-43.00,+16.00,+2.00,-1.00,-3.00,+10.00,-4.00,-10.00
-3.00,-30.00,-9.00,-3.00,+1.00,+5.00,+52.00,+1.00,-26.00,-1.00,+2.00,+0.00,-3.00,+4.00,-38.00,-11.00
-12.00,-61.00,-9.00,-5.00,-2.00,-9.00,-30.00,-1.00,-52.00,-41.00,-6.00,+0.00,+1.00,-18.00,+28.00,+1.00
+41.00,+35.00,+0.00,+1.00,+1.00,+3.00,+2.00,-3.00,-7.00,+16.00,-5.00,-8.00,-9.00,+3.00,+1.00,+17.00
-8.00,-33.00,+8.00,+5.00,+3.00,-3.00,-71.00,-7.00,+61.00,+23.00,+2.00,+3.00,+1.00,-38.00,-56.00,+27.00
-2.00,+28.00,-5.00,-2.00,+2.00,-2.00,+42.00,-1.00,-23.00,-52.00,-6.00,-2.00,+0.00,+15.00,+50.00,-1.00
+8.00,+76.00,+12.00,+1.00,+1.00,+2.00,+7.00,-3.00,-24.00,+24.00,+7.00,-3.00,-8.00,+5.00,-8.00,+27.00
-9.00,-14.00,+4.00,-1.00,-1.00,-6.00,-48.00,+9.00,-14.00,-20.00,+3.00,+0.00,+1.00,-17.00,-8.00,+13.00
+33.00,-3.00,-13.00,-5.00,+5.00,+2.00,+10.00,-7.00,+28.00,+10.00,+5.00,+2.00,-1.00,-5.00,+13.00,+14.00
-7.00,-24.00,-5.00,+2.00,+0.00,-1.00,-49.00,-9.00,-3.00,-9.00,-5.00,-4.00,-2.00,+48.00,-11.00,-7.00
+14.00,+46.00,+1.00,-4.00,-2.00,+2.00,+41.00,+2.00,-6.00,-20.00,-10.00,-5.00,-6.00,+8.00,-45.00,-14.00
-20.00,-45.00,-9.00,-5.00,-7.00,-12.00,-65.00,-9.00,-25.00,-2.00,+3.00,+6.00,+5.00,-13.00,+46.00,-13.00
+35.00,+19.00,+2.00,-4.00,+6.00,-1.00,-7.00,+7.00,-60.00,-6.00,-1.00,-8.00,-10.00,+10.00,-61.00,-16.00
-8.00,+6.00,+6.00,+4.00,-3.00,-3.00,-34.00,+5.00,+74.00,+25.00,+0.00,-2.00,-6.00,+11.00,+10.00,-5.00
-13.00,-72.00,-16.00,-8.00,-3.00,+4.00,-12.00,+0.00,+15.00,-33.00,-8.00,-4.00,+0.00,+32.00,-26.00,-3.00
+15.00,-59.00,-4.00,+1.00,+8.00,+11.00,+21.00,+9.00,+6.00,+22.00,+7.00,+5.00,+6.00,-4.00,+7.00,-8.00
-7.00,-62.00,-5.00,-3.00,-5.00,+2.00,+53.00,+10.00,-24.00,-12.00,+1.00,-2.00,-4.00,-6.00,+33.00,-7.00
+24.00,+41.00,+7.00,-4.00,-6.00,+0.00,-36.00,+2.00,+29.00,+6.00,-3.00,-3.00,-1.00,+31.00,-32.00,+10.00
-19.00,-11.00,+0.00,+2.00,+2.00,-8.00,-17.00,-4.00,-54.00,+4.00,+5.00,+1.00,-6.00,+14.00,-15.00,-27.00
-7.00,-57.00,-14.00,-4.00,-6.00,+5.00,+21.00,-13.00,+20.00,+6.00,-7.00,-4.00,-3.00,-29.00,+8.00,-10.00
+10.00,-33.00,+1.00,+4.00,+1.00,+1.00,+83.00,+14.00,-12.00,-21.00,+8.00,+4.00,+3.00,+13.00,-39.00,+1.00
-6.00,-6.00,+9.00,+3.00,+16.00,+6.00,+4.00,-6.00,-17.00,-16.00,+2.00,+0.00,-3.00,-30.00,-34.00,-16.00
+18.00,+9.00,+1.00,+3.00,-5.00,+9.00,-68.00,+12.00,-2.00,+12.00,+0.00,-6.00,-1.00,-18.00,+7.00,+24.00
-7.00,-28.00,-6.00,+0.00,-4.00,-3.00,+72.00,-1.00,+76.00,+11.00,-11.00,-3.00,-2.00,+2.00,-8.00,-18.00
+18.00,+71.00,+7.00,-1.00,-2.00,-2.00,-33.00,+2.00,-58.00,-32.00,-6.00,-3.00,-3.00,+16.00,+2.00,-9.00
-9.00,-69.00,-6.00,-1.00,+1.00,+3.00,+15.00,+1.00,-15.00,+92.00,+2.00,-1.00,-1.00,-25.00,+11.00,-8.00
+15.00,+40.00,+7.00,+3.00,-1.00,-1.00,+14.00,+5.00,+51.00,-41.00,-4.00,+1.00,+1.00,-25.00,-19.00,-4.00
-6.00,-54.00,-2.00,-3.00,-1.00,-6.00,-25.00,-6.00,-13.00,-52.00,+0.00,+1.00,-4.00,-3.00,-11.00,+4.00
-37.00,-83.00,-11.00,-3.00,-5.00,-2.00,-15.00,-16.00,+76.00,+27.00,-5.00,-7.00,-1.00,+43.00,+44.00,+5.00
+37.00,+85.00,+6.00,+2.00,+3.00,+5.00,-2.00,+15.00,-72.00,+2.00,-2.00,-1.00,+1.00,-18.00,+5.00,-5.00
+15.00,-54.00,-13.00,-3.00,+5.00,+5.00,-16.00,-7.00,-3.00,+4.00,-3.00,+0.00,+2.00,-3.00,+12.00,+6.00
-23.00,+16.00,+1.00,-5.00,-3.00,-2.00,+34.00,-5.00,+4.00,+6.00,-3.00,+1.00,+1.00,-11.00,-14.00,-26.00
-5.00,-37.00,-10.00,+1.00,+1.00,-2.00,-57.00,-8.00,+55.00,-22.00,-7.00,+6.00,+1.00,+49.00,+11.00,+26.00
-18.00,+45.00,+26.00,+9.00,+9.00,-1.00,+13.00,-3.00,-48.00,-49.00,+4.00,+3.00,+8.00,-1.00,+49.00,+19.00
-24.00,+15.00,-2.00,-2.00,-6.00,+1.00,+42.00,-12.00,+80.00,+34.00,-2.00,-2.00,-1.00,+2.00,+35.00,+49.00
+8.00,-31.00,-3.00,-2.00,+1.00,-6.00,-11.00,-4.00,-19.00,+37.00,+10.00,+2.00,+4.00,-2.00,-4.00,-7.00
+18.00,-8.00,+0.00,-2.00,+4.00,+10.00,-40.00,-10.00,+40.00,-11.00,-2.00,-4.00,-2.00,+46.00,+5.00,+15.00
-32.00,+9.00,+3.00,-3.00,-2.00,-9.00,-54.00,+1.00,+12.00,-13.00,-3.00,-3.00,-6.00,-46.00,-30.00,-11.00
-9.00,-35.00,-2.00,+2.00,+3.00,+0.00,+68.00,+1.00,-9.00,+56.00,+8.00,+1.00,-1.00,-32.00,+4.00,+1.00
+6.00,+127.00,+12.00,+3.00,+1.00,+7.00,+12.00,-2.00,-55.00,-76.00,-8.00,+1.00,+5.00,+0.00,+6.00,-15.00
+2.00,-21.00,-1.00,-2.00,-3.00,-6.00,-36.00,-6.00,+29.00,+71.00,+10.00,+4.00,+3.00,-42.00,+42.00,-3.00
-11.00,-89.00,-19.00,-6.00,-7.00,+4.00,-1.00,-12.00,-51.00,-20.00,-6.00,-6.00,-3.00,+21.00,+71.00,-13.00
+12.00,+79.00,+24.00,+6.00,+1.00,-2.00,+54.00,+15.00,-53.00,-66.00,-13.00,-8.00,-4.00,+0.00,-56.00,-36.00
+16.00,-8.00,-3.00,-3.00,-9.00,-6.00,-12.00,-1.00,-25.00,-17.00,-1.00,+0.00,-5.00,-14.00,+47.00,+31.00
-10.00,+32.00,+3.00,-1.00,+1.00,-5.00,+75.00,+9.00,-52.00,-16.00,-4.00,-1.00,+3.00,-6.00,-19.00,-24.00
+15.00,+59.00,+13.00,+4.00,+1.00,+3.00,-28.00,+2.00,+119.00,-67.00,-3.00,-7.00,-11.00,+27.00,-9.00,+28.00
-19.00,-32.00,-5.00,-7.00,-6.00,-3.00,+3.00,-7.00,-86.00,+59.00,+6.00,-3.00,-1.00,+6.00,-29.00,-20.00
-10.00,-11.00,-7.00,+2.00,+5.00,-2.00,-10.00,-4.00,+1.00,-26.00,-2.00,+4.00,+3.00,+21.00,-25.00,-16.00
+25.00,+25.00,+2.00,-1.00,-1.00,-9.00,-15.00,+4.00,+32.00,+70.00,-4.00,+0.00,-7.00,-20.00,-17.00,+5.00
-21.00,-18.00,-9.00,-5.00,-19.00,-7.00,+15.00,-11.00,-29.00,+12.00,-3.00,+0.00,+0.00,+5.00,-9.00,-22.00
+1.00,-45.00,-7.00,-5.00,-4.00,-1.00,-20.00,-6.00,-37.00,-55.00,-11.00,-2.00,-4.00,-3.00,+34.00,-5.00
-7.00,+52.00,+6.00,+2.00,+2.00,+4.00,-17.00,-2.00,-26.00,+12.00,+7.00,-2.00,-4.00,-5.00,-116.00,+1.00
-38.00,-34.00,-9.00,-6.00,-5.00,-10.00,-7.00,-20.00,-91.00,-68.00,-3.00,+8.00,+7.00,+11.00,-10.00,-76.00
+2.00,+36.00,+12.00,+4.00,-4.00,-4.00,-16.00,+5.00,-83.00,+14.00,+6.00,+0.00,-3.00,+5.00,-43.00,+18.00
+5.00,-116.00,-24.00,-7.00,-2.00,-4.00,-4.00,-3.00,-14.00,+51.00,+6.00,+1.00,-4.00,+76.00,+56.00,-18.00
-42.00,+72.00,+21.00,+6.00,-1.00,+0.00,-3.00,-6.00,+34.00,+48.00,+0.00,-8.00,-8.00,-3.00,+59.00,+18.00
+35.00,+73.00,+12.00,+8.00,+4.00,+7.00,+26.00,+16.00,-9.00,+7.00,+7.00,+4.00,+4.00,+1.00,+3.00,-15.00
-19.00,-40.00,-14.00,-8.00,-5.00,-4.00,-17.00,-6.00,-90.00,+45.00,+8.00,+5.00,+5.00,+2.00,-35.00,+5.00
+18.00,+47.00,-7.00,-4.00,-6.00,-1.00,-11.00,-5.00,+94.00,-54.00,-1.00,+5.00,+3.00,+28.00,+19.00,+12.00
+17.00,-109.00,-9.00,-1.00,-4.00,-6.00,-45.00,+4.00,-17.00,-8.00,-6.00,-4.00,-3.00,-7.00,-29.00,-43.00
-2.00,+49.00,+15.00,+8.00,+10.00,+13.00,+51.00,+21.00,-47.00,-30.00,-10.00,-9.00,-7.00,-30.00,-16.00,-8.00
+6.00,+9.00,-5.00,-3.00,-12.00,-10.00,+50.00,+7.00,+52.00,+44.00,+7.00,-2.00,-6.00,-27.00,-21.00,+2.00
-34.00,+28.00,+15.00,+8.00,+7.00,+15.00,-73.00,+6.00,+13.00,-44.00,-3.00,+8.00,+8.00,-36.00,-49.00,-4.00
-32.00,-31.00,-14.00,-4.00,-4.00,+6.00,-37.00,-10.00,-80.00,-56.00,-15.00,-13.00,-12.00,-48.00,-57.00,-15.00
+8.00,+51.00,+3.00,-3.00,-2.00,-3.00,+12.00,-3.00,-93.00,+91.00,+11.00,-3.00,-7.00,+8.00,+68.00,+20.00
-2.00,+61.00,-2.00,-1.00,+1.00,+7.00,+39.00,+7.00,+87.00,+4.00,+3.00,+5.00,+2.00,-7.00,-28.00,+14.00
-10.00,-54.00,-16.00,-7.00,-5.00,-6.00,+117.00,-5.00,+37.00,-29.00,+1.00,-1.00,+4.00,+68.00,+37.00,+17.00
+29.00,+41.00,+6.00,-3.00,+2.00,+6.00,-15.00,+0.00,-59.00,-9.00,-5.00,-2.00,+0.00,-66.00,-24.00,-2.00
-52.00,+30.00,+0.00,+2.00,-11.00,-2.00,-29.00,-6.00,+69.00,+3.00,+3.00,+1.00,+3.00,-25.00,-32.00,+9.00
+19.00,-86.00,-4.00,-1.00,+10.00,+3.00,+5.00,+6.00,-49.00,-3.00,-8.00,-4.00,-4.00,+47.00,-17.00,+2.00
+17.00,-22.00,-8.00,-1.00,+2.00,-9.00,-83.00,-10.00,-14.00,+40.00,+11.00,-1.00,-2.00,-68.00,-54.00,-9.00
+10.00,+59.00,+12.00,+5.00,+2.00,+4.00,+108.00,+18.00,+7.00,-24.00,-19.00,-9.00,-9.00,+10.00,+44.00,-19.00
+52.00,-59.00,-7.00,-3.00,+8.00,+0.00,-102.00,-13.00,-30.00,-9.00,+6.00,+1.00,-5.00,+5.00,+2.00,+44.00
-27.00,-80.00,-9.00,-1.00,-6.00,-7.00,-15.00,-8.00,+48.00,+37.00,+13.00,-1.00,-3.00,-53.00,-45.00,-10.00
-6.00,+51.00,+13.00,+4.00,+1.00,-3.00,+0.00,+16.00,+61.00,+3.00,+2.00,-4.00,-9.00,-64.00,+80.00,+18.00
+8.00,-20.00,-15.00,-7.00,-11.00,-13.00,-5.00,-17.00,+19.00,+0.00,-6.00,-1.00,-2.00,+84.00,+6.00,-1.00
+26.00,-65.00,+15.00,+5.00,+14.00,+16.00,+59.00,+25.00,-56.00,-26.00,-3.00,-5.00,+0.00,-8.00,-78.00,-14.00
+8.00,-127.00,-6.00,-3.00,-3.00,+2.00,+24.00,+3.00,+34.00,-46.00,-18.00,-4.00,-2.00,+27.00,+103.00,+5.00
+34.00,+75.00,+9.00,+5.00,+10.00,+8.00,-48.00,-2.00,-123.00,+3.00,+0.00,-6.00,-4.00,-22.00,-77.00,-10.00
-2.00,+35.00,-8.00,-2.00,+1.00,+2.00,-19.00,-18.00,+37.00,-30.00,+5.00,-1.00,-11.00,-95.00,+91.00,-5.00
-6.00,-60.00,-14.00,-5.00,-6.00,-2.00,+38.00,+1.00,+121.00,-2.00,-13.00,-4.00,-11.00,+11.00,-74.00,+10.00
-51.00,-16.00,+1.00,+5.00,+7.00,-4.00,-79.00,-25.00,-114.00,+42.00,+10.00,+4.00,+1.00,+26.00,-9.00,-19.00
-55.00,-4.00,-5.00,-8.00,-5.00,-6.00,+66.00,-7.00,+95.00,+9.00,-13.00,-6.00,+9.00,+47.00,-16.00,-26.00
-5.00,-16.00,-8.00,-8.00,-6.00,-8.00,+3.00,+16.00,-25.00,-45.00,-8.00,+5.00,+3.00,-17.00,+29.00,+34.00
-28.00,+3.00,-4.00,-2.00,-7.00,-2.00,+9.00,-1.00,-29.00,+51.00,+10.00,+4.00,+0.00,-28.00,-93.00,-16.00
+13.00,-29.00,-6.00,-1.00,+8.00,+4.00,-31.00,-11.00,-41.00,+43.00,-13.00,-3.00,+1.00,-50.00,+10.00,-11.00
-12.00,-9.00,-3.00,+3.00,+2.00,+7.00,-51.00,+4.00,+52.00,-1.00,+0.00,-3.00,-9.00,-26.00,+13.00,+14.00
+9.00,+4.00,+8.00,+1.00,+1.00,+3.00,+43.00,+12.00,+90.00,+84.00,+4.00,+1.00,+5.00,+36.00,+25.00,-8.00
+45.00,+83.00,+7.00,+0.00,+3.00,+17.00,+46.00,+2.00,-26.00,-60.00,-4.00,+1.00,+5.00,+6.00,+56.00,-26.00
+38.00,+121.00,+14.00,+5.00,+10.00,+5.00,-82.00,-11.00,+28.00,-24.00,+5.00,+0.00,-4.00,+49.00,-27.00,+35.00
+21.00,-2.00,+4.00,-1.00,-6.00,-2.00,+80.00,+5.00,-27.00,+44.00,-9.00,-5.00,-4.00,-74.00,+55.00,+22.00
+56.00,-62.00,-14.00,+1.00,+3.00,+5.00,+12.00,+10.00,-56.00,-85.00,-4.00,+1.00,+3.00,+43.00,-52.00,-3.00
-100.00,-110.00,-8.00,-1.00,-4.00,-6.00,-83.00,-22.00,-79.00,+65.00,+14.00,+0.00,-2.00,-94.00,-17.00,+28.00
+78.00,+116.00,+27.00,+0.00,-4.00,+4.00,+53.00,+44.00,+55.00,+28.00,+4.00,+5.00,+14.00,-53.00,+79.00,+46.00
-12.00,-12.00,-4.00,+1.00,-2.00,-8.00,+45.00,-10.00,-59.00,-63.00,-3.00,-2.00,-10.00,-45.00,-9.00,+19.00
-58.00,-107.00,-5.00,+1.00,-2.00,-8.00,-128.00,-23.00,-123.00,-19.00,+3.00,-1.00,+6.00,+33.00,-29.00,-61.00
+11.00,+57.00,+9.00,-1.00,-4.00,-10.00,+54.00,+14.00,-5.00,-13.00,+3.00,-2.00,-5.00,-12.00,+23.00,+4.00
+10.00,-78.00,-28.00,-11.00,-4.00,-8.00,-34.00,-14.00,+31.00,-45.00,+2.00,-4.00,-10.00,+23.00,-34.00,+0.00
-26.00,-15.00,+4.00,-1.00,+2.00,+11.00,+44.00,+1.00,+3.00,+48.00,+7.00,+3.00,-2.00,-62.00,-92.00,+91.00
+10.00,-24.00,+15.00,+6.00,+0.00,-10.00,+25.00,-9.00,+39.00,+3.00,+0.00,-3.00,+2.00,+1.00,-18.00,+12.00
+12.00,+8.00,-9.00,+0.00,+3.00,+4.00,-26.00,-18.00,-30.00,+18.00,-6.00,+0.00,+1.00,+8.00,+73.00,-24.00
+10.00,+92.00,-6.00,-8.00,-11.00,-7.00,-24.00,-2.00,-2.00,-113.00,-17.00,-1.00,+4.00,-11.00,+47.00,-39.00
+9.00,-15.00,+8.00,+1.00,+3.00,-8.00,-85.00,-15.00,-75.00,-32.00,-5.00,-11.00,-11.00,+66.00,-37.00,-80.00
-17.00,+19.00,-4.00,-1.00,+2.00,+1.00,+76.00,+10.00,-8.00,+96.00,+7.00,+2.00,+8.00,-9.00,-10.00,-70.00
+1.00,-25.00,-1.00,+2.00,+0.00,+1.00,+103.00,+3.00,+76.00,-89.00,-3.00,-4.00,+0.00,+43.00,-23.00,-32.00
-28.00,-12.00,-8.00,-2.00,-2.00,+1.00,-23.00,-16.00,-42.00,+48.00,+6.00,+11.00,+6.00,-3.00,+79.00,-56.00
+17.00,-31.00,-1.00,+2.00,+6.00,+5.00,-22.00,-16.00,+3.00,-57.00,-4.00,+0.00,-3.00,+49.00,-17.00,-19.00
+26.00,-3.00,-3.00,-4.00,-1.00,-5.00,-81.00,-24.00,+65.00,+46.00,+4.00,-1.00,-2.00,-3.00,+28.00,+26.00
-11.00,-28.00,-2.00,-1.00,-4.00,-7.00,-10.00,-61.00,+74.00,-66.00,-9.00,-2.00,+0.00,-41.00,+26.00,+41.00
+11.00,-34.00,-3.00,+0.00,+1.00,+4.00,+55.00,-9.00,-64.00,-5.00,+1.00,+0.00,-1.00,-19.00,-91.00,-5.00
+31.00,+13.00,-8.00,-4.00,-6.00,-13.00,-46.00,-11.00,+10.00,-10.00,+8.00,+6.00,+0.00,-19.00,+55.00,+9.00
-10.00,+46.00,+9.00,+0.00,-1.00,+8.00,-13.00,+12.00,+60.00,-42.00,-11.00,-1.00,+3.00,+37.00,-5.00,+21.00
-31.00,-16.00,+0.00,+3.00,-2.00,+4.00,+69.00,+55.00,-28.00,+72.00,+3.00,+1.00,+3.00,-37.00,-15.00,-31.00
-27.00,-47.00,-18.00,-4.00,+0.00,+6.00,-8.00,-6.00,-23.00,-47.00,-11.00,-10.00,-9.00,+18.00,-51.00,+23.00
-30.00,-39.00,+26.00,+9.00,+1.00,-4.00,+3.00,+11.00,+84.00,+46.00,+0.00,+2.00,+8.00,+43.00,+18.00,-2.00
-1.00,+1.00,-2.00,-3.00,-6.00,+1.00,+16.00,+17.00,+86.00,+8.00,+6.00,+0.00,-3.00,-16.00,+4.00,+46.00
+50.00,-19.00,-12.00,-9.00,-7.00,-12.00,-9.00,+8.00,-96.00,-22.00,-7.00,-6.00,-9.00,+60.00,-25.00,-1.00
-50.00,+15.00,+0.00,+1.00,+3.00,-4.00,+0.00,+7.00,+63.00,+8.00,-8.00,-2.00,+2.00,-13.00,-83.00,+19.00
-6.00,-60.00,-16.00,-8.00,-6.00,-5.00,-48.00,-1.00,-51.00,-78.00,-12.00,-3.00,-2.00,-32.00,+62.00,+2.00
-18.00,+10.00,+12.00,+2.00,-2.00,-2.00,+21.00,+6.00,-49.00,+75.00,+14.00,+5.00,+2.00,-32.00,+13.00,+16.00
+11.00,+92.00,+4.00,+1.00,+0.00,-11.00,-64.00,+6.00,+79.00,-40.00,-3.00,+2.00,-2.00,+23.00,+50.00,+22.00
+14.00,-51.00,+2.00,+1.00,-3.00,-5.00,+49.00,+19.00,-87.00,-40.00,+3.00,+1.00,+1.00,-42.00,+40.00,+14.00
+3.00,-97.00,-18.00,-2.00,+5.00,+9.00,-2.00,+12.00,+13.00,+14.00,+0.00,-3.00,-2.00,-11.00,+3.00,-40.00
+6.00,+115.00,+13.00,+1.00,+1.00,-17.00,-78.00,+16.00,-72.00,-27.00,-5.00,-1.00,+1.00,+8.00,-78.00,+2.00
-24.00,-70.00,-9.00,-3.00,+1.00,+11.00,+29.00,-2.00,-24.00,-28.00,-7.00,-2.00,+0.00,-57.00,+44.00,-25.00
-16.00,+57.00,+10.00,+3.00,+0.00,-4.00,-15.00,+4.00,-41.00,-47.00,-6.00,-3.00,-3.00,-7.00,-20.00,-5.00
+34.00,+1.00,-5.00,-2.00,+2.00,+2.00,+79.00,+4.00,-49.00,+49.00,-1.00,-2.00,-2.00,+15.00,-1.00,+5.00
-19.00,-62.00,-8.00,-2.00,-2.00,-2.00,+16.00,-4.00,-2.00,-11.00,+5.00,+0.00,-3.00,+14.00,+20.00,-12.00
-4.00,+73.00,+10.00,+1.00,+0.00,+0.00,+22.00,-5.00,+55.00,+25.00,-6.00,-4.00,-4.00,+18.00,-5.00,+39.00
+11.00,-7.00,-18.00,-11.00,-10.00,-8.00,+0.00,-22.00,-88.00,+39.00,+9.00,+6.00,+4.00,+8.00,-1.00,-46.00
+3.00,+14.00,-14.00,-1.00,+0.00,-6.00,+13.00,+13.00,+88.00,-24.00,-7.00,-7.00,-2.00,+15.00,-44.00,+32.00
-1.00,-2.00,+24.00,+7.00,+10.00,+3.00,+53.00,+18.00,+10.00,+37.00,-9.00,-5.00,-9.00,-29.00,+57.00,-15.00
-10.00,-112.00,-16.00,-6.00,-5.00,-5.00,-47.00,-5.00,+44.00,-12.00,+5.00,+1.00,+2.00,-17.00,-41.00,+25.00
-16.00,-53.00,+8.00,+5.00,+5.00,+5.00,-53.00,-5.00,+32.00,-45.00,-2.00,+1.00,+4.00,-51.00,-19.00,-21.00
+5.00,+87.00,+11.00,-3.00,-7.00,-7.00,+17.00,+3.00,+11.00,+65.00,+2.00,+1.00,-1.00,-66.00,-24.00,-11.00
+15.00,-19.00,-17.00,-4.00,+6.00,+10.00,-39.00,-5.00,+70.00,-52.00,+1.00,+7.00,+4.00,-7.00,+37.00,+41.00
-12.00,-7.00,+8.00,+3.00,-4.00,-5.00,-7.00,+4.00,-1.00,-42.00,-3.00,+0.00,+2.00,-29.00,-7.00,+6.00
+35.00,-41.00,-2.00,+3.00,+5.00,+9.00,+63.00,+17.00,-55.00,+42.00,+2.00,-8.00,-8.00,-5.00,+26.00,-8.00
-18.00,+35.00,-1.00,-7.00,-6.00,-2.00,-30.00,-5.00,-43.00,-25.00,+0.00,-1.00,+1.00,+42.00,+30.00,-12.00
-17.00,-15.00,-7.00,+1.00,+0.00,+4.00,+7.00,-19.00,-8.00,+38.00,-5.00,-3.00,-7.00,+4.00,+31.00,+44.00
-26.00,+84.00,+8.00,-1.00,-3.00,-1.00,-60.00,-3.00,-8.00,+48.00,+4.00,-1.00,+3.00,+9.00,-48.00,-15.00
+5.00,+3.00,-7.00,-3.00,-4.00,-9.00,+29.00,-6.00,+90.00,+25.00,+1.00,+2.00,-2.00,+26.00,+33.00,+13.00
-42.00,+71.00,+18.00,+2.00,+1.00,+0.00,-91.00,-7.00,-62.00,-23.00,+6.00,+4.00,+8.00,+17.00,-97.00,-24.00
+22.00,-7.00,-17.00,-2.00,+4.00,+17.00,+67.00,-12.00,+3.00,-21.00,-1.00,-4.00,-2.00,+37.00,+4.00,+2.00
+0.00,+46.00,+4.00,-1.00,-3.00,-9.00,-7.00,+3.00,-37.00,+0.00,+3.00,+6.00,+4.00,+12.00,+45.00,-31.00
-2.00,-12.00,+6.00,-1.00,-7.00,-15.00,+14.00,-10.00,+18.00,+9.00,+3.00,-5.00,-6.00,-3.00,+57.00,+9.00
+27.00,+17.00,-7.00,-6.00,+1.00,+4.00,+12.00,+8.00,+32.00,+20.00,-8.00,-2.00,+1.00,+5.00,-14.00,+11.00
-24.00,+1.00,-2.00,-3.00,-6.00,-21.00,-7.00,-20.00,+24.00,+11.00,+8.00,+5.00,+2.00,-9.00,-45.00,+13.00
-57.00,-13.00,-4.00,-3.00,-6.00,-1.00,+48.00,-8.00,+12.00,-6.00,+2.00,-1.00,+1.00,+12.00,-1.00,+20.00
+32.00,-37.00,-1.00,+3.00,+5.00,-1.00,+92.00,+18.00,-3.00,+33.00,-3.00,-1.00,-1.00,+8.00,+1.00,-15.00
-10.00,+59.00,+9.00,-1.00,-2.00,+12.00,+24.00,+4.00,-4.00,-21.00,+7.00,+3.00,-3.00,-40.00,-21.00,+15.00
+42.00,-17.00,-8.00,-4.00,-3.00,-2.00,-17.00,+9.00,-1.00,-16.00,-10.00,-8.00,-8.00,+18.00,-65.00,+34.00
+32.00,-90.00,-10.00,-1.00,+1.00,+3.00,+6.00,-11.00,+74.00,+47.00,+6.00,-1.00,-3.00,+5.00,+50.00,+33.00
-27.00,+35.00,+1.00,-2.00,-3.00,-4.00,-72.00,-15.00,+28.00,-16.00,-4.00,-2.00,-3.00,+59.00,-60.00,-15.00
-14.00,-35.00,-11.00,-3.00,-9.00,-11.00,+38.00,-6.00,-54.00,-25.00,+4.00,+4.00,+6.00,+63.00,+60.00,-11.00
+1.00,+21.00,+3.00,+3.00,+2.00,+3.00,+62.00,+17.00,-26.00,-57.00,-6.00,-7.00,-6.00,-22.00,-74.00,-33.00
+54.00,+41.00,-4.00,-5.00,-1.00,-1.00,-86.00,-10.00,+21.00,+66.00,+2.00,-1.00,+0.00,+13.00,+52.00,+1.00
-49.00,-92.00,-9.00,-3.00,-5.00,+3.00,-19.00,-12.00,+38.00,-9.00,+3.00,+1.00,+0.00,-27.00,-7.00,+20.00
+7.00,-32.00,+5.00,+4.00,+3.00,+4.00,-13.00,+5.00,+101.00,-9.00,-5.00,+1.00,+4.00,+14.00,+30.00,+20.00
+5.00,-7.00,-26.00,-10.00,-10.00,-4.00,-75.00,-19.00,+12.00,-35.00,-2.00,-5.00,-5.00,+70.00,-57.00,-41.00
+24.00,+5.00,-1.00,+6.00,+6.00,-3.00,-23.00,-9.00,-107.00,+30.00,+13.00,+7.00,+6.00,-22.00,+56.00,-6.00
+32.00,+49.00,-3.00,-2.00,-1.00,+1.00,+14.00,+19.00,+56.00,+53.00,+8.00,-3.00,+1.00,-23.00,-52.00,+19.00
-4.00,-2.00,+9.00,+4.00,+3.00,-2.00,-62.00,-1.00,-14.00,-7.00,+1.00,-1.00,-1.00,+57.00,-7.00,-15.00
+22.00,-49.00,-10.00,-8.00,-5.00,-2.00,-45.00,-23.00,+20.00,+9.00,-2.00,+2.00,+4.00,-7.00,+20.00,+7.00
-8.00,-3.00,-2.00,+0.00,-3.00,+1.00,+33.00,+4.00,-49.00,-32.00,-9.00,-8.00,-10.00,+57.00,+4.00,-20.00
+18.00,+52.00,+5.00,-1.00,+0.00,-3.00,+3.00,+2.00,+23.00,-37.00,-9.00,-4.00,-3.00,-62.00,+17.00,-31.00
+2.00,-21.00,+6.00,+4.00,+8.00,+9.00,-60.00,+0.00,-21.00,+35.00,+1.00,-3.00,-4.00,-22.00,+16.00,-11.00
-7.00,+30.00,+12.00,+2.00,+2.00,+1.00,+35.00,+14.00,-59.00,+38.00,+5.00,-1.00,-2.00,+14.00,+18.00,-26.00
+32.00,-66.00,-9.00,-5.00,-4.00,-11.00,+21.00,+2.00,+32.00,-30.00,-7.00,-6.00,-5.00,-54.00,-42.00,-21.00
-54.00,+80.00,+10.00,+0.00,+0.00,+8.00,-74.00,-10.00,-33.00,-50.00,-8.00,+2.00,+1.00,+1.00,-33.00,-6.00
+35.00,-53.00,-11.00,-8.00,-9.00,-9.00,+81.00,-2.00,-21.00,+29.00,-3.00,-5.00,-7.00,-13.00,-75.00,+3.00
-28.00,-68.00,-2.00,+2.00,+3.00,+0.00,-50.00,-9.00,+15.00,+66.00,+10.00,+2.00,+6.00,-77.00,+49.00,-15.00
-6.00,+22.00,+3.00,-2.00,+1.00,+3.00,+52.00,-2.00,+47.00,+12.00,+7.00,+8.00,-2.00,-20.00,+43.00,+51.00
-15.00,-77.00,-6.00,-4.00,-5.00,-11.00,-22.00,+0.00,-58.00,-91.00,-10.00,-5.00,-2.00,+4.00,-91.00,+37.00
+7.00,+8.00,-10.00,-2.00,-3.00,-2.00,+72.00,+6.00,-64.00,+20.00,+1.00,+0.00,+1.00,-26.00,+1.00,-19.00
-26.00,-39.00,+9.00,+2.00,+3.00,+5.00,-27.00,-4.00,+15.00,-4.00,-7.00,+1.00,+0.00,+0.00,-36.00,+27.00
+2.00,+88.00,+15.00,+3.00,+2.00,+2.00,-15.00,+15.00,-63.00,-50.00,-8.00,-2.00,+3.00,+31.00,-25.00,-16.00
+4.00,-52.00,-3.00,+1.00,+8.00,+3.00,-2.00,-7.00,-14.00,+25.00,-2.00,-2.00,-2.00,+43.00,+90.00,-34.00
-28.00,+54.00,-1.00,-1.00,-1.00,-7.00,+21.00,-17.00,-52.00,+6.00,-5.00,+0.00,-3.00,-34.00,+61.00,+22.00
+24.00,-8.00,-6.00,-5.00,-3.00,+3.00,-33.00,+5.00,-14.00,+44.00,+6.00,+5.00,+4.00,+11.00,-28.00,-7.00
-38.00,-34.00,-12.00,-7.00,-8.00,-9.00,+58.00,+8.00,+12.00,-22.00,-2.00,-3.00,-4.00,+19.00,+4.00,+9.00
+20.00,+12.00,+14.00,+3.00,+0.00,+1.00,-69.00,-7.00,-27.00,-6.00,-5.00,+0.00,-4.00,+7.00,+22.00,+28.00
-7.00,+61.00,-2.00,-1.00,-6.00,-3.00,-38.00,-7.00,+3.00,-24.00,+1.00,+1.00,+2.00,+2.00,+2.00,-8.00
-13.00,+1.00,+14.00,+6.00,+6.00,-1.00,-5.00,+15.00,+44.00,-31.00,-8.00,-3.00,-6.00,+48.00,+10.00,-7.00
-39.00,-76.00,-15.00,-2.00,+0.00,-4.00,-128.00,-36.00,+16.00,-17.00,+1.00,-1.00,+7.00,-48.00,-105.00,-2.00
+10.00,-60.00,+0.00,-5.00,-7.00,+6.00,+121.00,+12.00,-10.00,+42.00,-2.00,-8.00,-9.00,+7.00,+46.00,-28.00
+5.00,-31.00,-12.00,-4.00,-1.00,-1.00,+31.00,+2.00,+12.00,-7.00,+1.00,-2.00,+2.00,+20.00,-17.00,-23.00
-5.00,+4.00,+6.00,+1.00,-3.00,-6.00,+21.00,+0.00,+9.00,-13.00,+0.00,+0.00,-4.00,+9.00,-28.00,-12.00
-36.00,-28.00,-7.00,-3.00,-6.00,-7.00,-15.00,-9.00,+14.00,-46.00,-7.00,+2.00,+6.00,-8.00,-10.00,-8.00
+14.00,+16.00,-4.00,+1.00,+1.00,+1.00,-24.00,-2.00,-59.00,+38.00,+5.00,+2.00,+3.00,+22.00,-7.00,+15.00
-2.00,-46.00,+6.00,+2.00,+1.00,+5.00,-119.00,-23.00,+8.00,-14.00,-9.00,-2.00,-6.00,-73.00,-77.00,+7.00
-1.00,+0.00,-9.00,-3.00,-3.00,-4.00,+31.00,+6.00,-32.00,-24.00,-3.00,-2.00,-2.00,-3.00,-21.00,+5.00
+29.00,+56.00,+4.00,+0.00,-4.00,-1.00,-20.00,-1.00,-55.00,+14.00,-1.00,+0.00,+0.00,+44.00,-17.00,-14.00
-5.00,+8.00,-6.00,-7.00,-5.00,-6.00,+9.00,+3.00,+95.00,-4.00,-11.00,-2.00,+2.00,-8.00,+15.00,-13.00
+1.00,-102.00,-1.00,+3.00,+3.00,+2.00,+5.00,-5.00,-3.00,-14.00,+1.00,-4.00,-8.00,+7.00,-32.00,-12.00
+28.00,+127.00,+6.00,+0.00,-1.00,+1.00,-72.00,+6.00,+17.00,-21.00,-6.00,-2.00,+1.00,-29.00,+27.00,+16.00
+23.00,+12.00,+7.00,+4.00,+4.00,+5.00,-26.00,-6.00,-31.00,-40.00,+0.00,-3.00,+0.00,+52.00,-21.00,+10.00
-8.00,-67.00,+5.00,+0.00,-1.00,+2.00,+75.00,+5.00,+18.00,+17.00,+0.00,-2.00,-4.00,-65.00,+33.00,+1.00
-15.00,+16.00,+0.00,-1.00,-5.00,+0.00,+17.00,+7.00,+66.00,-18.00,-1.00,-1.00,+0.00,+23.00,-66.00,+26.00
+47.00,-9.00,+10.00,+1.00,-1.00,-1.00,+48.00,+13.00,-4.00,+32.00,+8.00,+1.00,-2.00,+31.00,+39.00,-2.00
-17.00,+3.00,+8.00,+6.00,+9.00,+9.00,+12.00,+1.00,-36.00,-23.00,-7.00,-5.00,-4.00,+4.00,-4.00,+1.00
-2.00,-24.00,-8.00,-1.00,-3.00,+0.00,-43.00,-4.00,-28.00,+15.00,+4.00,+1.00,+1.00,+0.00,-21.00,-13.00
+18.00,-10.00,-4.00,-1.00,-1.00,-8.00,-8.00,+4.00,+36.00,-33.00,-4.00,+1.00,+2.00,+10.00,+8.00,+21.00
-51.00,+17.00,-3.00,+1.00,+2.00,+3.00,+15.00,-13.00,-73.00,-2.00,+3.00,-1.00,+2.00,-69.00,+80.00,-5.00
+3.00,+46.00,+7.00,+2.00,-3.00,-1.00,+42.00,+10.00,+84.00,+6.00,-3.00,-4.00,-3.00,-8.00,+16.00,+30.00
+8.00,-7.00,-5.00,-2.00,-3.00,-5.00,-76.00,-8.00,-25.00,+10.00,+3.00,+1.00,+1.00,+16.00,-31.00,-8.00
+31.00,+29.00,+7.00,+0.00,+2.00,-4.00,-15.00,+4.00,-21.00,-15.00,-7.00,-5.00,-7.00,-60.00,-19.00,-17.00
-58.00,-32.00,-4.00,+2.00,+1.00,+8.00,+55.00,-9.00,+6.00,-3.00,+2.00,-3.00,-7.00,-30.00,-91.00,-21.00
+18.00,-30.00,-5.00,-6.00,-5.00,-1.00,+11.00,+6.00,-84.00,-14.00,+3.00,-3.00,-9.00,+24.00,+23.00,-4.00
-15.00,-23.00,+7.00,+8.00,+8.00,-6.00,-80.00,-4.00,+17.00,-7.00,-3.00,+0.00,+3.00,+6.00,+20.00,-9.00
+17.00,-15.00,-7.00,-7.00,-3.00,-3.00,-45.00,+0.00,+97.00,-15.00,+12.00,+7.00,+7.00,+32.00,+73.00,+54.00
+19.00,+32.00,-6.00,-5.00,-4.00,-4.00,-12.00,-5.00,-13.00,+4.00,+0.00,-2.00,-2.00,+6.00,-22.00,+0.00
-8.00,-41.00,-1.00,-1.00,-2.00,-7.00,+15.00,+6.00,-2.00,+19.00,-5.00,-2.00,+0.00,+4.00,+30.00,-7.00
+4.00,+19.00,-11.00,-5.00,-3.00,-1.00,+43.00,-12.00,+51.00,+42.00,-2.00,-1.00,-1.00,+4.00,+21.00,+19.00
-2.00,-76.00,+3.00,+3.00,+4.00,+0.00,+3.00,+3.00,-128.00,-71.00,-16.00,-5.00,-8.00,+65.00,+38.00,-48.00
+5.00,+63.00,-2.00,-5.00,-3.00,+1.00,+5.00,-7.00,+19.00,+79.00,-3.00,+0.00,+5.00,-9.00,+9.00,+52.00
+19.00,+18.00,-2.00,-1.00,+1.00,+3.00,-80.00,+6.00,+19.00,+19.00,-1.00,-2.00,-2.00,-5.00,+16.00,+14.00
+14.00,-14.00,+0.00,+3.00,+3.00,+4.00,+84.00,+15.00,-28.00,-38.00,+1.00,+2.00,-1.00,+21.00,-39.00,-9.00
-19.00,-15.00,+1.00,+0.00,+1.00,-4.00,+60.00,-23.00,+27.00,+8.00,-6.00,-4.00,+0.00,-6.00,+81.00,-28.00
+9.00,+31.00,-6.00,-5.00,-8.00,-2.00,+39.00,-3.00,-53.00,-19.00,+7.00,+0.00,-1.00,-35.00,+36.00,-34.00
+10.00,-71.00,-1.00,+0.00,+5.00,+6.00,+40.00,+16.00,+1.00,+42.00,-2.00,-2.00,-3.00,+17.00,-55.00,-8.00
+1.00,+12.00,-1.00,-3.00,-1.00,-2.00,-31.00,+6.00,+39.00,-20.00,-4.00,-4.00,-2.00,+5.00,-7.00,+16.00
-5.00,+41.00,-3.00,-4.00,-3.00,-5.00,-47.00,+10.00,+12.00,+16.00,+2.00,+2.00,+2.00,-15.00,-32.00,-6.00
-5.00,-26.00,-14.00,-7.00,-7.00,-2.00,-56.00,-16.00,+10.00,-9.00,+1.00,-1.00,+0.00,+9.00,+20.00,+19.00
-4.00,-10.00,+15.00,+8.00,+8.00,-3.00,+69.00,+32.00,-3.00,-26.00,-6.00,+2.00,+1.00,-89.00,+44.00,-29.00
-15.00,-31.00,-2.00,+3.00,+2.00,+5.00,-8.00,-9.00,-22.00,-22.00,+1.00,+1.00,-2.00,+1.00,-8.00,-21.00
+0.00,+43.00,+2.00,+1.00,-2.00,-4.00,+2.00,+3.00,+50.00,+58.00,+4.00,-4.00,+1.00,+3.00,-70.00,-7.00
-9.00,-37.00,-5.00,-1.00,+1.00,-5.00,-25.00,-5.00,+3.00,+2.00,-3.00,+1.00,+5.00,-22.00,+40.00,-7.00
+2.00,+33.00,-5.00,-7.00,-4.00,+1.00,-1.00,-9.00,+18.00,+32.00,+4.00,+1.00,-2.00,+13.00,-12.00,-10.00
+2.00,-53.00,+0.00,+0.00,+0.00,-3.00,+8.00,+2.00,-27.00,+4.00,+3.00,+1.00,+0.00,-1.00,-13.00,-5.00
+0.00,+38.00,-2.00,-1.00,+1.00,+6.00,+3.00,+1.00,+18.00,-37.00,-4.00,+0.00,+0.00,-13.00,+32.00,+9.00
-7.00,-50.00,+2.00,+1.00,+3.00,-1.00,+11.00,+8.00,-7.00,+5.00,-3.00,-2.00,-8.00,+8.00,-37.00,-12.00
+1.00,+29.00,+2.00,-2.00,-2.00,+10.00,-42.00,-17.00,-8.00,-8.00,-7.00,-4.00,-4.00,-14.00,+7.00,-19.00
-8.00,+79.00,+1.00,-3.00,-4.00,-9.00,+25.00,-2.00,+9.00,-25.00,-2.00,+2.00,+2.00,+31.00,-39.00,+5.00
+3.00,+31.00,-6.00,-2.00,-3.00,+0.00,+25.00,-4.00,-6.00,-10.00,-2.00,-11.00,-4.00,+4.00,+14.00,+15.00
+5.00,-11.00,+8.00,+3.00,+0.00,-1.00,+14.00,+12.00,-107.00,-2.00,+6.00,+0.00,-5.00,+7.00,-22.00,+0.00
-10.00,-52.00,-9.00,-3.00,-4.00,-5.00,-14.00,-15.00,-48.00,-4.00,+1.00,+0.00,+5.00,+19.00,+8.00,-2.00
-9.00,+35.00,-4.00,-4.00,-4.00,+3.00,-17.00,-13.00,-21.00,+15.00,+0.00,-2.00,-1.00,+4.00,+2.00,+10.00
+112.00,-34.00,+2.00,+3.00,+4.00,+1.00,-5.00,+2.00,-18.00,-11.00,-4.00,+1.00,-3.00,-8.00,+8.00,-11.00
+31.00,-17.00,+2.00,-1.00,+1.00,-1.00,+9.00,-2.00,-19.00,-28.00,-7.00,+0.00,+3.00,+14.00,-9.00,-13.00
-90.00,-43.00,-2.00,+1.00,+1.00,-1.00,+3.00,+7.00,+89.00,-3.00,+0.00,-2.00,+0.00,-4.00,-18.00,-8.00
-110.00,+54.00,+5.00,+0.00,-1.00,+8.00,+31.00,+20.00,+65.00,-3.00,+1.00,+6.00,-1.00,-9.00,+3.00,+12.00
-128.00,-31.00,+2.00,-1.00,-4.00,+0.00,+7.00,-1.00,+13.00,+23.00,+3.00,+8.00,+1.00,+3.00,+0.00,+0.00
-53.00,+18.00,+1.00,+3.00,+2.00,-5.00,+8.00,-1.00,+23.00,-9.00,-4.00,-5.00,-2.00,-2.00,-44.00,-11.00
+19.00,-30.00,-8.00,-4.00,-5.00,-8.00,-58.00,-5.00,-35.00,+1.00,-3.00,-7.00,-6.00,+5.00,+9.00,-5.00
-24.00,+42.00,+2.00,+0.00,-3.00,+0.00,+44.00,-11.00,-17.00,-7.00,-2.00,+8.00,-5.00,-4.00,+4.00,-17.00
-8.00,-32.00,+1.00,+2.00,+1.00,+3.00,-2.00,-1.00,-17.00,+30.00,+4.00,+1.00,+1.00,+7.00,+18.00,+7.00
+0.00,+1.00,+3.00,+0.00,-1.00,-2.00,-8.00,+1.00,+4.00,-14.00,+0.00,+21.00,+3.00,-1.00,-18.00,+2.00
-2.00,+31.00,+1.00,-3.00,-2.00,-6.00,-9.00,-13.00,-14.00,-13.00,-3.00,-20.00,-23.00,+14.00,-24.00,+7.00
+16.00,-4.00,+0.00,+2.00,+1.00,-2.00,-17.00,-7.00,-24.00,+0.00,-1.00,-13.00,+28.00,+3.00,-13.00,+9.00
-4.00,+1.00,-3.00,-1.00,-9.00,-3.00,-2.00,-4.00,-54.00,+14.00,+0.00,+8.00,+2.00,-3.00,-4.00,+3.00
-9.00,+8.00,+0.00,-5.00,+1.00,-1.00,+10.00,+37.00,-1.00,-7.00,-4.00,+2.00,-16.00,-2.00,+33.00,+10.00
+2.00,+9.00,-2.00,+1.00,-1.00,+12.00,+24.00,+34.00,-44.00,-7.00,+0.00,+19.00,+23.00,-3.00,-1.00,+4.00
+17.00,-29.00,-3.00,-3.00,-4.00,+0.00,-7.00,+75.00,-14.00,+3.00,-1.00,-12.00,-42.00,-8.00,+2.00,-5.00
-16.00,+14.00,-1.00,-1.00,-6.00,-3.00,-6.00,+46.00,+12.00,+7.00,+0.00,-17.00,+52.00,+5.00,-11.00,-16.00
+14.00,-17.00,+2.00,+3.00,+15.00,+4.00,-20.00,+72.00,+24.00,-9.00,-10.00,-33.00,-11.00,+9.00,+12.00,-13.00
+7.00,+24.00,+3.00,+0.00,-43.00,-13.00,-23.00,+61.00,-82.00,+2.00,+2.00,+6.00,-25.00,-6.00,-2.00,-5.00
+21.00,+9.00,+3.00,+1.00,+51.00,+5.00,-4.00,+11.00,-128.00,+2.00,+1.00,+2.00,+6.00,+1.00,-4.00,-1.00
-16.00,-21.00,+0.00,+1.00,+4.00,+4.00,-22.00,-40.00,+48.00,-6.00,+5.00,-10.00,-3.00,-10.00,+7.00,-5.00
-13.00,+12.00,-2.00,+4.00,-2.00,-5.00,-11.00,-61.00,+100.00,-8.00,-7.00,+1.00,+0.00,+5.00,+1.00,-2.00
+26.00,+13.00,-2.00,-4.00,+2.00,-1.00,+8.00,-31.00,+58.00,+3.00,-3.00,-21.00,+12.00,-1.00,+2.00,+0.00
+35.00,-1.00,+5.00,-8.00,-37.00,-1.00,-16.00,-11.00,+45.00,+0.00,+0.00,-11.00,-18.00,-9.00,-1.00,+0.00
+43.00,-12.00,-12.00,-7.00,+24.00,-9.00,-1.00,-11.00,-41.00,+2.00,+0.00,+27.00,-3.00,-2.00,+0.00,-8.00
+12.00,-5.00,-2.00,-4.00,+4.00,+3.00,+20.00,-30.00,+24.00,-5.00,+3.00,+16.00,-14.00,+7.00,+6.00,+5.00
-96.00,+9.00,+3.00,+10.00,-45.00,-17.00,-5.00,-29.00,+31.00,+0.00,-1.00,-22.00,+4.00,-2.00,-7.00,+0.00
-88.00,+9.00,+3.00,+14.00,+58.00,+31.00,+2.00,-34.00,-3.00,-3.00,+2.00,+13.00,+22.00,+1.00,+6.00,-8.00
-95.00,-9.00,-7.00,-10.00,-13.00,+7.00,+1.00,-12.00,+10.00,+0.00,-5.00,-24.00,-23.00,-5.00,-5.00,+1.00
-71.00,-8.00,-2.00,-10.00,-31.00,-8.00,-2.00,-13.00,-12.00,-1.00,+0.00,+37.00,+9.00,+4.00,-2.00,-1.00
-13.00,+8.00,-1.00,+1.00,+12.00,+6.00,-2.00,-20.00,+12.00,-5.00,+0.00,+20.00,-10.00,-5.00,+1.00,+7.00
-9.00,+1.00,+0.00,-6.00,-44.00,-15.00,-23.00,-28.00,+62.00,-2.00,+2.00,+30.00,-22.00,+0.00,+0.00,+12.00
+103.00,+11.00,+2.00,+6.00,-7.00,-3.00,-1.00,-20.00,+15.00,-2.00,-9.00,-42.00,-1.00,-8.00,-6.00,+3.00
-1.00,+5.00,+0.00,+1.00,-5.00,-13.00,-2.00,-20.00,+20.00,-1.00,-1.00,-13.00,+9.00,+1.00,-2.00,+7.00
-27.00,+3.00,-1.00,-3.00,-4.00,+11.00,+0.00,-20.00,+39.00,-4.00,-8.00,-48.00,+1.00,-5.00,-1.00,+5.00
-75.00,+3.00,+1.00,+5.00,+30.00,+0.00,+6.00,-19.00,+22.00,+1.00,+0.00,+2.00,+4.00,+0.00,-2.00,+1.00
-66.00,+1.00,-1.00,-2.00,+3.00,+5.00,-2.00,-18.00,-5.00,+1.00,+2.00,+3.00,-28.00,+0.00,-4.00,+6.00
-38.00,+6.00,+5.00,+3.00,+1.00,-4.00,+5.00,-18.00,-22.00,-4.00,+0.00,+9.00,+10.00,+0.00,+0.00,-2.00
-17.00,-7.00,+0.00,+2.00,+35.00,+13.00,+8.00,-14.00,+6.00,+2.00,-1.00,+19.00,+9.00,+1.00,+1.00,-1.00
-92.00,-4.00,-12.00,-19.00,-38.00,-12.00,-2.00,-6.00,+27.00,+0.00,-2.00,+32.00,-9.00,-1.00,-5.00,+0.00
+12.00,+0.00,+7.00,-9.00,-26.00,-19.00,-3.00,+8.00,-16.00,+2.00,-1.00,-4.00,+10.00,-1.00,+2.00,-4.00
-80.00,-6.00,-4.00,+4.00,+55.00,+16.00,+5.00,+5.00,+31.00,-3.00,-1.00,-30.00,-17.00,-2.00,+0.00,-10.00
+53.00,+1.00,-3.00,+6.00,+11.00,-22.00,-1.00,-8.00,+50.00,+0.00,+1.00,+14.00,-2.00,+0.00,+1.00,-109.00
+104.00,-1.00,+0.00,+0.00,+44.00,+18.00,+1.00,+1.00,+13.00,-3.00,-3.00,-1.00,+1.00,-2.00,+1.00,-108.00
-58.00,+1.00,-1.00,+16.00,-38.00,-7.00,+0.00,+9.00,-10.00,-5.00,+2.00,+23.00,-12.00,-1.00,+0.00,+35.00
+44.00,-3.00,+1.00,-10.00,+10.00,-2.00,+5.00,+5.00,-40.00,-1.00,-1.00,+2.00,+15.00,-3.00,-2.00,+89.00
+6.00,+0.00,-4.00,-5.00,-24.00,+8.00,+2.00,+4.00,-32.00,+4.00,-2.00,-27.00,-9.00,-3.00,-4.00,+40.00
+34.00,+0.00,-3.00,-2.00,-20.00,-15.00,-3.00,+2.00,-34.00,-4.00,-2.00,-44.00,-2.00,-2.00,+0.00,+0.00
+80.00,+5.00,+3.00,+1.00,+16.00,+9.00,+4.00,+10.00,-10.00,+6.00,-2.00,+21.00,+2.00,-3.00,-3.00,+31.00
+77.00,+6.00,+1.00,+4.00,-37.00,-2.00,+0.00,+4.00,-38.00,-6.00,-1.00,-19.00,+20.00,+0.00,+0.00,+69.00
+106.00,-4.00,+3.00,+5.00,+19.00,-3.00,+5.00,+2.00,-14.00,-4.00,+0.00,+21.00,+11.00,-1.00,+0.00,+127.00
+127.00,+0.00,-1.00,+1.00,+13.00,+0.00,+0.00,+4.00,-6.00,-4.00,+0.00,+22.00,+4.00,+0.00,-2.00,+98.00
+12.00,-3.00,+1.00,-2.00,+16.00,+6.00,+6.00,+9.00,-7.00,+2.00,-1.00,-52.00,+8.00,-3.00,-1.00,+31.00
+12.00,-7.00,-4.00,-1.00,-35.00,+1.00,-4.00,+1.00,+4.00,-1.00,-1.00,+11.00,-14.00,+0.00,+0.00,+7.00
-11.00,+2.00,-5.00,-12.00,+23.00,-2.00,-1.00,+2.00,+12.00,-1.00,-1.00,-5.00,+0.00,+0.00,-1.00,-24.00
-22.00,-10.00,-4.00,-8.00,-49.00,-10.00,+1.00,-1.00,+3.00,+0.00,-1.00,-11.00,+9.00,+1.00,+2.00,+4.00
-46.00,-3.00,+3.00,+5.00,+39.00,+3.00,+0.00,+0.00,+10.00,-2.00,-5.00,+27.00,-5.00,+0.00,-2.00,-20.00
-69.00,+5.00,-5.00,+2.00,+5.00,+2.00,+3.00,+4.00,-4.00,+1.00,+1.00,-7.00,-11.00,+0.00,+1.00,-41.00
-65.00,-52.00,-1.00,-5.00,-33.00,+6.00,-2.00,-1.00,-12.00,-1.00,-1.00,+10.00,-10.00,+1.00,+0.00,-25.00
-33.00,+70.00,+3.00,+7.00,+25.00,-1.00,+3.00,+3.00,+8.00,+0.00,-1.00,-16.00,+20.00,+1.00,-1.00,-6.00
+38.00,+1.00,+2.00,-1.00,-13.00,-1.00,+0.00,+0.00,+6.00,-3.00,+1.00,+10.00,-10.00,+0.00,+1.00,-15.00
+45.00,+1.00,+2.00,-1.00,-6.00,+7.00,-4.00,-2.00,+6.00,-1.00,+2.00,+19.00,+13.00,-1.00,-2.00,-46.00
-13.00,+12.00,-2.00,-1.00,+6.00,-12.00,+4.00,+0.00,+2.00,+1.00,-1.00,-9.00,+19.00,+1.00,-2.00,-51.00
-29.00,-38.00,-1.00,+2.00,-19.00,-6.00,-4.00,-2.00,+10.00,-3.00,-5.00,+1.00,-25.00,-5.00,-1.00,-29.00
-35.00,-3.00,+5.00,+1.00,-3.00,-1.00,+3.00,+3.00,-7.00,+0.00,+0.00,-10.00,+5.00,+0.00,+0.00,-67.00
-28.00,-4.00,-6.00,+0.00,+2.00,+0.00,-1.00,-1.00,-15.00,-3.00,-1.00,+9.00,+4.00,+3.00,+0.00,-28.00
-29.00,-8.00,-7.00,-6.00,-2.00,-3.00,-2.00,+1.00,+0.00,+1.00,+5.00,-6.00,-23.00,-2.00,+1.00,+42.00
-12.00,-10.00,-1.00,-2.00,+2.00,+0.00,-3.00,+0.00,-2.00,+0.00,-1.00,+18.00,+25.00,+2.00,+1.00,+57.00
-13.00,+9.00,+1.00,+13.00,-13.00,-3.00,-4.00,+0.00,+3.00,-1.00,-3.00,-26.00,-22.00,-3.00,-2.00,+38.00
+10.00,-8.00,-3.00,-6.00,+14.00,-5.00,-3.00,-4.00,+12.00,-2.00,-3.00,-15.00,-3.00,-2.00,+0.00,+18.00
+4.00,+11.00,+1.00,-4.00,-8.00,+0.00,-2.00,-5.00,+3.00,-1.00,-1.00,+14.00,+0.00,-2.00,-2.00,-25.00
+28.00,-3.00,-3.00,+2.00,+1.00,-2.00,-4.00,+6.00,+7.00,-1.00,-1.00,+1.00,+3.00,-2.00,-2.00,-22.00
+69.00,+3.00,-10.00,-12.00,-13.00,-5.00,+2.00,+3.00,+2.00,-3.00,+2.00,+8.00,+35.00,+1.00,+0.00,-21.00
+31.00,-7.00,+10.00,+7.00,+34.00,+4.00,-1.00,+1.00,+8.00,+1.00,-3.00,-6.00,-20.00,-4.00,-2.00,-4.00
+15.00,+9.00,-14.00,+0.00,-13.00,-6.00,-3.00,-1.00,-4.00,+1.00,+2.00,+19.00,-5.00,+3.00,+2.00,+13.00
-31.00,+1.00,+4.00,+1.00,+31.00,+7.00,+0.00,+0.00,-6.00,+1.00,-1.00,-36.00,+15.00,-2.00,-3.00,+11.00
-44.00,-6.00,+0.00,-5.00,-38.00,+1.00,-4.00,-1.00,+8.00,+1.00,+1.00,+32.00,-21.00,+0.00,-1.00,+11.00
-8.00,+2.00,-4.00,+1.00,+40.00,-2.00,-1.00,+0.00,+0.00,+1.00,-1.00,+2.00,+40.00,+2.00,-1.00,-4.00
-13.00,+7.00,+3.00,-5.00,+14.00,+1.00,-2.00,+1.00,-5.00,-2.00,-2.00,-28.00,-9.00,+1.00,+0.00,+6.00
-8.00,-10.00,-1.00,+0.00,-31.00,-9.00,-5.00,-5.00,+30.00,-3.00,-7.00,-13.00,-16.00,-5.00,-2.00,+4.00
-24.00,-4.00,-1.00,-2.00,+18.00,+3.00,+1.00,+0.00,-16.00,-1.00,+0.00,-1.00,+1.00,-2.00,+0.00,-3.00
-4.00,-2.00,-1.00,-3.00,-10.00,-9.00,-1.00,-3.00,-2.00,-3.00,+1.00,+16.00,-8.00,-1.00,-2.00,-11.00
+7.00,+5.00,+6.00,+7.00,+18.00,+9.00,+2.00,+1.00,-5.00,-2.00,-1.00,-2.00,-4.00,+0.00,-1.00,+4.00
+11.00,-8.00,-8.00,-4.00,-12.00,+0.00,-1.00,-1.00,-13.00,-2.00,+2.00,-11.00,-1.00,+1.00,+0.00,+12.00
+6.00,+2.00,-2.00,-4.00,+29.00,-4.00,-1.00,+1.00,+0.00,+1.00,-1.00,+23.00,-16.00,-3.00,-3.00,+13.00
-5.00,-2.00,-1.00,-2.00,-18.00,-2.00,-2.00,+0.00,-4.00,+3.00,+3.00,-13.00,+7.00,+2.00,+2.00,+6.00
+7.00,+2.00,+2.00,+3.00,-16.00,+0.00,-2.00,+2.00,-7.00,-3.00,-5.00,-13.00,-5.00,-4.00,-2.00,+13.00
+0.00,-2.00,+2.00,-1.00,-17.00,-3.00,-3.00,+1.00,-8.00,+2.00,+0.00,-3.00,-22.00,-2.00,-2.00,+35.00
-13.00,+0.00,-3.00,+0.00,+30.00,-2.00,+0.00,+0.00,-6.00,-1.00,-1.00,-19.00,+15.00,+1.00,+0.00,+24.00
+27.00,-2.00,+2.00,-1.00,-25.00,+2.00,-1.00,-1.00,-2.00,-2.00,+3.00,+20.00,+14.00,-1.00,-4.00,+13.00
+24.00,+0.00,-6.00,-1.00,+21.00,-2.00,+0.00,-2.00,+3.00,-1.00,-1.00,+13.00,+14.00,-1.00,-2.00,+7.00
+5.00,+0.00,-3.00,+2.00,-5.00,-2.00,-1.00,-2.00,+0.00,+1.00,-1.00,-5.00,-33.00,-2.00,-1.00,-13.00
-14.00,+1.00,-1.00,-5.00,+8.00,+10.00,-4.00,-3.00,-10.00,-2.00,-1.00,-7.00,-7.00,-3.00,+1.00,-14.00
-33.00,-1.00,-7.00,-4.00,+3.00,-2.00,+0.00,+0.00,+18.00,+1.00,+0.00,-8.00,-10.00,+2.00,+0.00,-7.00
-19.00,+0.00,+0.00,-2.00,-23.00,+2.00,-1.00,-3.00,-4.00,-5.00,-2.00,+13.00,+4.00,+0.00,-2.00,-10.00
+1.00,+0.00,+2.00,+1.00,+34.00,+12.00,+3.00,+0.00,+2.00,-2.00,-5.00,-19.00,-17.00,-4.00,-2.00,-7.00
-3.00,-4.00,+0.00,+4.00,+1.00,-4.00,-2.00,-1.00,-4.00,-3.00,+0.00,+31.00,+12.00,+0.00,-1.00,-9.00
+4.00,+1.00,-5.00,-4.00,-8.00,+1.00,+0.00,+0.00,-6.00,+0.00,-5.00,-32.00,-12.00,-3.00,+0.00,-16.00
+3.00,+0.00,-3.00,-5.00,+1.00,-6.00,-2.00,+1.00,+3.00,+0.00,-2.00,+7.00,-23.00,-4.00,-5.00,-12.00
-5.00,-1.00,-2.00,+0.00,-14.00,-6.00,-1.00,-4.00,-17.00,-1.00,+0.00,-6.00,+18.00,+3.00,+0.00,-12.00
-9.00,-1.00,+0.00,-3.00,-14.00,-1.00,-3.00,+1.00,+28.00,+0.00,-3.00,-1.00,-1.00,-2.00,-1.00,-8.00
-1.00,-2.00,+7.00,+8.00,+9.00,+2.00,+2.00,+1.00,+6.00,-4.00,-3.00,-12.00,-11.00,-4.00,-1.00,-8.00
+0.00,+1.00,-2.00,-3.00,-18.00,-7.00,-1.00,+1.00,-5.00,+0.00,+0.00,+9.00,+15.00,+0.00,+1.00,-6.00
-6.00,-1.00,-1.00,-3.00,+50.00,+0.00,+1.00,+3.00,-3.00,+1.00,+0.00,+10.00,+6.00,-3.00,-1.00,-12.00
-3.00,-4.00,-2.00,-3.00,-35.00,+1.00,-2.00,-1.00,-20.00,+0.00,-4.00,-27.00,+1.00,+0.00,+0.00,-9.00
-11.00,-5.00,+0.00,-2.00,-21.00,-1.00,-3.00,-1.00,-4.00,-2.00,+2.00,+11.00,-12.00,-1.00,-2.00,-8.00
-1.00,+8.00,+6.00,+9.00,+54.00,-4.00,+4.00,+0.00,+3.00,+2.00,+2.00,-8.00,-3.00,+0.00,-2.00,+1.00
+0.00,-2.00,+4.00,-1.00,-29.00,-5.00,+1.00,-2.00,-6.00,-1.00,-1.00,+0.00,+2.00,+1.00,+0.00,-16.00
-1.00,+0.00,-9.00,-9.00,+5.00,+0.00,-2.00,-3.00,+4.00,+1.00,+0.00,+7.00,-10.00,-1.00,-2.00,-10.00
+0.00,-1.00,-4.00,-3.00,-20.00,-14.00,-4.00,-1.00,-4.00,-1.00,-2.00,-2.00,-7.00,+0.00,-1.00,+4.00
-5.00,-3.00,+3.00,+11.00,-17.00,+0.00,+1.00,-2.00,-22.00,-1.00,+2.00,+26.00,-15.00,-1.00,+0.00,+15.00
+5.00,-2.00,-2.00,-11.00,+14.00,-1.00,-2.00,-1.00,+27.00,-1.00,-4.00,-16.00,-6.00,-3.00,-2.00,+22.00
-3.00,+0.00,+1.00,-2.00,+10.00,-3.00,+0.00,+2.00,-2.00,+0.00,+1.00,-3.00,+2.00,-1.00,-2.00,+10.00
-3.00,-2.00,-1.00,+1.00,-21.00,-2.00,+0.00,+0.00,-5.00,-3.00,-2.00,+10.00,+22.00,-1.00,+0.00,-7.00
-1.00,+1.00,+5.00,-3.00,+13.00,-3.00,-2.00,-1.00,+2.00,+2.00,-4.00,+2.00,+18.00,+1.00,-2.00,-12.00
+5.00,-1.00,-6.00,+2.00,+22.00,+1.00,-2.00,-2.00,-9.00,-3.00,+2.00,-5.00,-16.00,-2.00,-3.00,-10.00
-3.00,+0.00,-2.00,+3.00,+0.00,-8.00,+0.00,+0.00,+4.00,+3.00,-2.00,+2.00,-3.00,+0.00,-1.00,-6.00
+8.00,+4.00,+0.00,-4.00,+0.00,+2.00,+0.00,+1.00,-13.00,-3.00,-1.00,-19.00,-33.00,-3.00,-1.00,-8.00
+7.00,+1.00,+0.00,+0.00,+15.00,+3.00,+2.00,+1.00,-2.00,-3.00,-3.00,+6.00,+23.00,+0.00,-2.00,-3.00
+4.00,-14.00,-4.00,-4.00,-19.00,-7.00,-2.00,-3.00,-5.00,+1.00,-1.00,+8.00,+11.00,+1.00,+1.00,+0.00
+30.00,-6.00,+0.00,+3.00,+12.00,-3.00,+1.00,+0.00,-5.00,-3.00,+2.00,-4.00,-9.00,+0.00,-1.00,-2.00
+19.00,+15.00,+4.00,+4.00,+15.00,+4.00,-1.00,+1.00,-8.00,-1.00,-4.00,-4.00,-2.00,-1.00,-1.00,-5.00
+92.00,-4.00,+4.00,-2.00,-4.00,+0.00,+0.00,+0.00,+2.00,-2.00,+0.00,+3.00,+0.00,-1.00,+1.00,-1.00
+115.00,-2.00,-11.00,-3.00,-34.00,-8.00,-3.00,-3.00,-3.00,-2.00,+1.00,+10.00,+5.00,-3.00,-1.00,+0.00
+38.00,-5.00,-9.00,-6.00,+4.00,+8.00,-2.00,-1.00,+1.00,-4.00,-2.00,-18.00,-1.00,+0.00,-1.00,-1.00
-22.00,-5.00,+7.00,+1.00,-13.00,-1.00,-2.00,-2.00,-1.00,-3.00,-6.00,+2.00,+4.00,-1.00,+0.00,-2.00
-88.00,-9.00,-12.00,-4.00,+5.00,+8.00,+3.00,-2.00,+1.00,-2.00,-1.00,-14.00,-11.00,-1.00,+0.00,-3.00
-70.00,+15.00,+9.00,+5.00,-7.00,+0.00,+1.00,+1.00,-9.00,+1.00,+1.00,+6.00,+19.00,-1.00,-1.00,+0.00
-33.00,-5.00,+1.00,+5.00,-17.00,-4.00,-2.00,-3.00,-6.00,-3.00,-5.00,+1.00,-18.00,-2.00,+1.00,+0.00
-24.00,-16.00,+1.00,-4.00,+17.00,+0.00,+0.00,-1.00,-11.00,-1.00,-1.00,+5.00,+7.00,-1.00,-1.00,-1.00
-24.00,+21.00,-1.00,-3.00,-9.00,+3.00,-3.00,-1.00,+17.00,+2.00,+0.00,-16.00,-19.00,-5.00,-3.00,-2.00
-38.00,-6.00,-1.00,-7.00,-2.00,-3.00,-2.00,+0.00,-5.00,+1.00,+1.00,+12.00,+32.00,+1.00,-1.00,-3.00
-54.00,+1.00,-2.00,-4.00,-30.00,+1.00,+0.00,-1.00,+1.00,-2.00,-1.00,+9.00,-3.00,+1.00,-2.00,-1.00
-38.00,-8.00,-1.00,+3.00,+6.00,+2.00,+0.00,-1.00,-20.00,-4.00,-2.00,-16.00,-21.00,-1.00,-2.00,-4.00
-28.00,-10.00,-4.00,-3.00,-4.00,-4.00,-3.00,-4.00,+5.00,-3.00,-3.00,-19.00,-1.00,-4.00,-3.00,+1.00
-36.00,+0.00,+0.00,+4.00,+21.00,+5.00,+2.00,+1.00,+2.00,-1.00,-1.00,+18.00,+27.00,+1.00,+0.00,-1.00
-37.00,+0.00,+2.00,-6.00,-4.00,-2.00,-4.00,-3.00,-4.00,-1.00,+0.00,-20.00,-9.00,-3.00,-2.00,+0.00
-35.00,+0.00,-8.00,-3.00,+8.00,-2.00,+2.00,-1.00,+9.00,+3.00,+1.00,+12.00,-6.00,-2.00,-3.00,+1.00
-39.00,-5.00,+0.00,+2.00,+4.00,+1.00,-1.00,-1.00,-5.00,-2.00,+0.00,-8.00,-22.00,-3.00,-1.00,-2.00
-20.00,+5.00,+5.00,+2.00,+5.00,-3.00,+1.00,+0.00,+0.00,-3.00,-2.00,+4.00,+9.00,+1.00,+0.00,+5.00
-11.00,-2.00,+0.00,-3.00,-8.00,+9.00,+0.00,-2.00,-2.00,+0.00,-1.00,+2.00,+13.00,+0.00,+0.00,+6.00
+12.00,-3.00,+6.00,-3.00,+7.00,+4.00,-2.00,-3.00,+0.00,-1.00,-3.00,-4.00,+5.00,+0.00,+0.00,-1.00
+20.00,+1.00,-7.00,+13.00,-15.00,-7.00,+1.00,+0.00,-3.00,-2.00,+1.00,+3.00,+3.00,-1.00,-2.00,-6.00
+13.00,-5.00,-2.00,-11.00,+11.00,+5.00,-1.00,-1.00,-1.00,-2.00,-1.00,-4.00,-30.00,-1.00,-1.00,-5.00
+31.00,+6.00,+1.00,+1.00,+4.00,+1.00,+1.00,+3.00,-2.00,-3.00,-2.00,+4.00,+35.00,+1.00,-2.00,-4.00
+37.00,+4.00,-2.00,+5.00,-1.00,-11.00,-1.00,-1.00,+2.00,-1.00,+0.00,-7.00,+3.00,+0.00,-3.00,-2.00
+24.00,-4.00,-4.00,-5.00,-5.00,+6.00,+0.00,+1.00,-4.00,-1.00,-2.00,-1.00,+3.00,-1.00,-1.00,-2.00
+15.00,-3.00,+2.00,+2.00,-11.00,-2.00,+0.00,-2.00,-3.00,-1.00,-4.00,-9.00,-17.00,-3.00,-1.00,-3.00
+22.00,+1.00,-6.00,-4.00,+10.00,-2.00,-1.00,-2.00,-2.00,-2.00,-1.00,+4.00,-8.00,+0.00,+2.00,-2.00
+15.00,+2.00,-1.00,-2.00,-13.00,-3.00,-1.00,-1.00,+1.00,+1.00,+0.00,+4.00,+12.00,-2.00,+0.00,-1.00
+13.00,-4.00,+2.00,+1.00,-6.00,-6.00,-2.00,-3.00,-4.00,-2.00,-1.00,-16.00,-7.00,-2.00,-1.00,+0.00
+10.00,+0.00,-3.00,+1.00,+10.00,+1.00,-1.00,-1.00,+4.00,+0.00,-1.00,-6.00,-5.00,+0.00,-2.00,+0.00
+6.00,+0.00,+2.00,+0.00,-4.00,-4.00,-3.00,+0.00,-4.00,+0.00,+1.00,-2.00,-10.00,-1.00,-3.00,-1.00
+6.00,+0.00,-2.00,-4.00,-1.00,+2.00,-2.00,+0.00,+1.00,-2.00,+0.00,+1.00,+0.00,+0.00,-1.00,-1.00
+2.00,-5.00,+0.00,-7.00,-15.00,-1.00,-2.00,-2.00,-2.00,-1.00,-2.00,+4.00,+4.00,+1.00,+2.00,+1.00
-1.00,-1.00,-3.00,+3.00,-2.00,-3.00,+0.00,+2.00,-3.00,-2.00,+0.00,+1.00,-7.00,-3.00,-3.00,-1.00
-1.00,-3.00,-3.00,+2.00,+10.00,-1.00,-1.00,+0.00,+1.00,+0.00,-2.00,-4.00,+0.00,-2.00,-3.00,-2.00
+1.00,-1.00,+4.00,-1.00,-11.00,-1.00,+0.00,+1.00,+2.00,+0.00,+1.00,-2.00,+6.00,-2.00,-3.00,+3.00
+0.00,+2.00,-7.00,-6.00,-21.00,-5.00,-5.00,-1.00,-1.00,-4.00,-5.00,+4.00,+2.00,+0.00,-3.00,-1.00
-1.00,+4.00,-3.00,+4.00,+24.00,+8.00,+4.00,+1.00,-2.00,-2.00,-3.00,+14.00,-6.00,+0.00,+0.00,+0.00
+0.00,+4.00,+10.00,+1.00,+7.00,-1.00,+0.00,-1.00,-2.00,-1.00,+0.00,-11.00,-9.00,-3.00,-1.00,-3.00
+1.00,+1.00,-15.00,-5.00,-6.00,-4.00,-2.00,-2.00,-4.00,-1.00,-1.00,+0.00,-11.00,+2.00,-1.00,-4.00
+11.00,+1.00,+8.00,-2.00,+8.00,+4.00,+0.00,+2.00,-3.00,+0.00,+2.00,+1.00,+10.00,-3.00,+0.00,+1.00
-5.00,-5.00,-3.00,+0.00,-22.00,-7.00,-5.00,-4.00,-5.00,-2.00,-4.00,-19.00,+1.00,+0.00,-1.00,+4.00
-3.00,-4.00,-2.00,-2.00,-2.00,-7.00,-3.00,-2.00,+0.00,-1.00,-1.00,+7.00,-8.00,-1.00,-1.00,+7.00
-10.00,-4.00,+4.00,+0.00,+11.00,+6.00,+5.00,+4.00,-2.00,+0.00,-2.00,-8.00,+0.00,-2.00,-1.00,+0.00
-17.00,-2.00,-4.00,-2.00,-7.00,-9.00,-2.00,+0.00,-1.00,+1.00,+1.00,+14.00,+5.00,+0.00,+0.00,-1.00
-9.00,-1.00,+3.00,-2.00,-33.00,-1.00,-3.00,-1.00,-3.00,-4.00,-1.00,+1.00,-8.00,-2.00,-1.00,-4.00
+9.00,+0.00,+1.00,+4.00,+24.00,+7.00,+2.00,+0.00,-1.00,-2.00,+0.00,-1.00,+4.00,-1.00,-4.00,-5.00
+17.00,+0.00,-2.00,-1.00,-8.00,-7.00,+0.00,-5.00,+2.00,-1.00,-2.00,-2.00,-1.00,-2.00,+1.00,-1.00
+6.00,-2.00,-5.00,-4.00,+5.00,-5.00,-2.00,+0.00,-2.00,+1.00,+1.00,+5.00,+1.00,-1.00,-3.00,-6.00
+1.00,-1.00,+1.00,+9.00,-36.00,-3.00,-1.00,+0.00,-1.00,-1.00,-1.00,-8.00,+18.00,+0.00,+0.00,-2.00
-3.00,+0.00,-1.00,-8.00,+21.00,-2.00,-1.00,-2.00,+2.00,-1.00,-2.00,+0.00,-15.00,+0.00,+1.00,-3.00
+2.00,-1.00,-5.00,+0.00,-10.00,+1.00,-2.00,-3.00,-1.00,-1.00,-1.00,+3.00,+13.00,-2.00,-5.00,-3.00
+1.00,+0.00,+8.00,+1.00,+11.00,+2.00,+0.00,-1.00,-3.00,-3.00,-1.00,-3.00,-3.00,+1.00,-1.00,+0.00
+1.00,-2.00,-1.00,-5.00,-9.00,-3.00,+0.00,-2.00,-2.00,+0.00,+1.00,-3.00,-6.00,+0.00,-1.00,-3.00
+2.00,-5.00,-8.00,-4.00,-23.00,-1.00,-1.00,-1.00,+0.00,+1.00,+1.00,+3.00,+4.00,+0.00,+1.00,-2.00
+0.00,-1.00,-2.00,+0.00,+9.00,-2.00,+2.00,+0.00,-2.00,-2.00,+0.00,+18.00,-4.00,-1.00,+0.00,-3.00
-12.00,+1.00,+0.00,-2.00,-2.00,+1.00,-3.00,-1.00,+1.00,-1.00,-1.00,-22.00,+17.00,-2.00,+1.00,-1.00
-3.00,+0.00,+3.00,+0.00,+8.00,-1.00,-2.00,-3.00,-1.00,-2.00,-1.00,-5.00,-7.00,-1.00,+0.00,-1.00
+0.00,+0.00,-7.00,-1.00,+0.00,-2.00,-1.00,-2.00,+0.00,+0.00,-1.00,+12.00,-1.00,-1.00,+0.00,-6.00
-1.00,+0.00,+1.00,-2.00,-1.00,-4.00,-3.00,-1.00,+1.00,+1.00,-1.00,-11.00,-6.00,-2.00,+1.00,-2.00
+0.00,+0.00,-8.00,-4.00,+4.00,+5.00,+1.00,-7.00,-3.00,-2.00,-3.00,+6.00,+41.00,+2.00,+0.00,+0.00
-1.00,-3.00,-1.00,-4.00,+4.00,-3.00,+1.00,+13.00,+0.00,+4.00,+1.00,-8.00,-28.00,-3.00,-2.00,-1.00
-3.00,-1.00,+3.00,+4.00,+0.00,+0.00,+2.00,+2.00,-2.00,-2.00,-3.00,+5.00,+1.00,-2.00,-4.00,+0.00
-2.00,-3.00,+1.00,-1.00,-10.00,+0.00,-3.00,+0.00,+1.00,-2.00,-2.00,+4.00,-3.00,+1.00,-1.00,+1.00
+2.00,-1.00,+0.00,+1.00,-13.00,+1.00,-1.00,+0.00,-1.00,-2.00,-2.00,-4.00,-29.00,-2.00,-2.00,-3.00
+2.00,-1.00,+4.00,-1.00,+8.00,-6.00,-3.00,-4.00,-2.00,-2.00,-1.00,+4.00,+15.00,+0.00,+1.00,+0.00
-2.00,+0.00,-6.00,-4.00,-11.00,-2.00,+0.00,+0.00,+1.00,+0.00,+0.00,-8.00,-2.00,+0.00,+0.00,+2.00
-4.00,+0.00,-3.00,+1.00,+25.00,+5.00,-3.00,+1.00,+0.00,-1.00,+1.00,-5.00,+0.00,+0.00,-1.00,-1.00
-1.00,-1.00,+6.00,+4.00,+20.00,+2.00,-1.00,-1.00,+0.00,-2.00,+1.00,+2.00,-24.00,-1.00,+1.00,-1.00
+1.00,+0.00,-3.00,-5.00,-17.00,-8.00,+4.00,+0.00,+0.00,+0.00,+1.00,+7.00,+22.00,+1.00,+0.00,-3.00
-5.00,-2.00,+0.00,+2.00,-2.00,+7.00,+1.00,-1.00,+0.00,-1.00,-1.00,-5.00,-10.00,-3.00,-2.00,-1.00
-3.00,+0.00,-1.00,-1.00,+0.00,-2.00,-3.00,-4.00,-1.00,-2.00,-3.00,-5.00,+1.00,-2.00,-2.00,+1.00
+1.00,-3.00,-1.00,-5.00,-23.00,-4.00,-1.00,-1.00,-2.00,-1.00,-1.00,+6.00,-2.00,+0.00,+0.00,-1.00
+2.00,-2.00,-1.00,+2.00,+36.00,+10.00,-2.00,-2.00,-4.00,-2.00,-1.00,-7.00,-10.00,-1.00,+1.00,-4.00
-1.00,+1.00,+2.00,+2.00,+1.00,-2.00,+0.00,-1.00,-1.00,+2.00,+1.00,-1.00,+13.00,-4.00,-3.00,-2.00
+1.00,-3.00,+2.00,-2.00,-7.00,+0.00,-2.00,-1.00,-3.00,+2.00,-1.00,-4.00,-5.00,-5.00,-3.00,-3.00
+42.00,-4.00,-12.00,-5.00,+9.00,+1.00,+0.00,+0.00,+1.00,+2.00,-2.00,+1.00,-5.00,-1.00,+0.00,-1.00
+38.00,-1.00,+0.00,+4.00,-11.00,-3.00,-2.00,-2.00,-1.00,-2.00,-1.00,+1.00,+10.00,+0.00,-2.00,-2.00
+30.00,-2.00,-2.00,-4.00,+1.00,-4.00,-1.00,-1.00,-1.00,-2.00,-1.00,-4.00,-4.00,+2.00,+4.00,+3.00
+2.00,-2.00,-3.00,-9.00,-20.00,-6.00,-2.00,-3.00,-1.00,-3.00,-1.00,-1.00,-10.00,-1.00,-1.00,-3.00
-27.00,-3.00,+1.00,+2.00,+9.00,-2.00,-1.00,+0.00,+1.00,-2.00,+2.00,+3.00,+7.00,+1.00,-7.00,+1.00
-33.00,-2.00,-2.00,-2.00,+9.00,-1.00,+0.00,+0.00,-1.00,-2.00,-2.00,-7.00,-26.00,-3.00,+0.00,-1.00
-32.00,+1.00,+0.00,+3.00,-1.00,+0.00,-4.00,-4.00,-3.00,-5.00,-4.00,-5.00,+6.00,-2.00,-2.00,+0.00
-24.00,+1.00,+1.00,+1.00,-6.00,+0.00,-2.00,-3.00,-4.00,-1.00,-1.00,-8.00,+0.00,+0.00,-1.00,+2.00
-19.00,+0.00,+1.00,-4.00,+2.00,-2.00,+9.00,+7.00,+0.00,+0.00,-1.00,+15.00,+14.00,+1.00,+2.00,+2.00
-15.00,-2.00,-4.00,+0.00,-1.00,+3.00,-2.00,+0.00,+1.00,-3.00,-3.00,+7.00,-6.00,+0.00,-2.00,+3.00
-10.00,-2.00,+3.00,+0.00,-15.00,-2.00,+0.00,+1.00,-1.00,-2.00,-2.00,-12.00,-11.00,+0.00,-1.00,-1.00
-1.00,-1.00,-2.00,-1.00,+13.00,+4.00,-2.00,-1.00,-2.00,-1.00,-1.00,+6.00,+4.00,-1.00,-1.00,-2.00
-2.00,-2.00,-1.00,-2.00,+0.00,+2.00,-4.00,-11.00,-2.00,+0.00,-2.00,-9.00,+3.00,-4.00,-3.00,-4.00
-3.00,-3.00,-3.00,-3.00,-6.00,+2.00,-1.00,+5.00,-3.00,-3.00,+0.00,+0.00,-3.00,-2.00,+0.00,-2.00
+3.00,-1.00,-2.00,-1.00,-8.00,+0.00,+1.00,+1.00,-3.00,-2.00,-2.00,-4.00,+1.00,-1.00,-30.00,-8.00
+5.00,-1.00,+0.00,+0.00,+36.00,+2.00,+2.00,+2.00,-2.00,-1.00,-1.00,+3.00,+1.00,+1.00,+45.00,-8.00
+4.00,-3.00,-5.00,-3.00,-2.00,+0.00,-3.00,+0.00,+1.00,+1.00,+2.00,-7.00,-10.00,-1.00,-3.00,+19.00
+1.00,+0.00,+0.00,-4.00,-8.00,-1.00,-1.00,-8.00,+3.00,+2.00,+0.00,-1.00,+0.00,-3.00,-13.00,-6.00
+2.00,-3.00,-5.00,+0.00,-3.00,-3.00,-4.00,-2.00,-1.00,-2.00,-3.00,+5.00,+3.00,-4.00,-9.00,+6.00
+7.00,+1.00,-3.00,+1.00,-24.00,-1.00,+1.00,+0.00,+0.00,+0.00,-1.00,-5.00,-5.00,+0.00,-12.00,-4.00
+1.00,+0.00,+3.00,+0.00,+1.00,-2.00,-1.00,-2.00,+0.00,+1.00,-1.00,+1.00,-4.00,+1.00,+8.00,-16.00
-2.00,+0.00,-1.00,-2.00,-3.00,-2.00,-2.00,-3.00,-3.00,-1.00,+1.00,+0.00,+2.00,+0.00,-2.00,+0.00
+2.00,+1.00,-4.00,-1.00,+1.00,-4.00,-1.00,-1.00,-1.00,+1.00,+1.00,+6.00,-2.00,+1.00,+1.00,-7.00
+1.00,+1.00,+0.00,+2.00,+0.00,+3.00,-1.00,-1.00,-2.00,+0.00,-1.00,-5.00,-2.00,+0.00,-8.00,+3.00
-7.00,-3.00,+0.00,+0.00,-2.00,-1.00,-2.00,-7.00,-4.00,-2.00,-2.00,-6.00,-7.00,-2.00,+5.00,-1.00
+18.00,-4.00,-2.00,-2.00,-6.00,-2.00,-5.00,-12.00,-1.00,-2.00,-3.00,-2.00,+0.00,-2.00,+1.00,+2.00
+66.00,-1.00,+0.00,-2.00,+0.00,-5.00,-1.00,-17.00,-3.00,-2.00,-2.00,-4.00,+0.00,-1.00,+9.00,-1.00
+54.00,+0.00,-1.00,+0.00,-2.00,+4.00,+9.00,+51.00,-1.00,-2.00,-1.00,+1.00,-1.00,-1.00,-3.00,+3.00
+29.00,-1.00,+3.00,+0.00,+1.00,+1.00,-1.00,+5.00,-1.00,-2.00,+0.00,+0.00,+0.00,-1.00,-7.00,-1.00
-19.00,-2.00,-2.00,+1.00,+0.00,+0.00,+2.00,+18.00,+0.00,-3.00,-1.00,+1.00,-4.00,+0.00,+3.00,-2.00
-46.00,-1.00,+7.00,+3.00,+4.00,+0.00,-7.00,-25.00,-1.00,-3.00,-1.00,-5.00,-1.00,-2.00,+4.00,-3.00
-45.00,-1.00,-4.00,-1.00,-6.00,-4.00,-2.00,-7.00,+2.00,+0.00,+0.00,+1.00,-2.00,-3.00,-23.00,+1.00
-50.00,+1.00,-1.00,-1.00,+1.00,+1.00,+2.00,+27.00,-3.00,+0.00,-3.00,-6.00,-9.00,-4.00,+22.00,-4.00
-29.00,+0.00,-6.00,-5.00,-4.00,-3.00,-2.00,-9.00,+0.00,+0.00,-2.00,-3.00,+1.00,+1.00,-4.00,+4.00
-22.00,-1.00,-3.00,-2.00,+0.00,-2.00,-1.00,-2.00,-1.00,-1.00,+1.00,+8.00,+0.00,-2.00,+6.00,-1.00
-11.00,-3.00,-1.00,+2.00,-5.00,-4.00,-2.00,-17.00,-2.00,-1.00,+2.00,+2.00,+3.00,-5.00,-13.00,-5.00
-6.00,-1.00,+3.00,+3.00,+7.00,+1.00,-1.00,-5.00,-1.00,-2.00,-4.00,-7.00,-16.00,-2.00,-3.00,+4.00
+3.00,+0.00,+0.00,+0.00,-3.00,+0.00,-1.00,-8.00,-5.00,-3.00,-3.00,-7.00,+10.00,-3.00,-21.00,-15.00
+0.00,-1.00,-4.00,-8.00,+0.00,+0.00,+0.00,+7.00,-3.00,-3.00,-3.00,+3.00,-4.00,+2.00,+35.00,+2.00
-3.00,-1.00,+0.00,-1.00,-5.00,-2.00,-3.00,-7.00,+0.00,-2.00,-2.00,-2.00,+16.00,+0.00,-9.00,+15.00
+4.00,-1.00,-2.00,-4.00,-2.00,-3.00,+1.00,-7.00,-1.00,+0.00,+0.00,+1.00,+1.00,+0.00,-8.00,-8.00
+4.00,-3.00,-4.00,+8.00,+7.00,-4.00,+0.00,-2.00,-1.00,+2.00,+0.00,-1.00,-4.00,-2.00,-8.00,+1.00
-10.00,-1.00,+2.00,-8.00,+4.00,-4.00,+5.00,+12.00,+1.00,+0.00,-1.00,+0.00,+8.00,-1.00,+5.00,-6.00
-6.00,+0.00,-2.00,+2.00,-8.00,-1.00,-2.00,-5.00,+0.00,-2.00,-3.00,-4.00,-8.00,-1.00,-1.00,-2.00
+5.00,+1.00,-3.00,-4.00,-2.00,-9.00,-3.00,-3.00,-1.00,-2.00,+2.00,+2.00,+2.00,+0.00,+4.00,+0.00
+3.00,-1.00,-2.00,-2.00,+8.00,+5.00,-2.00,-8.00,+1.00,-1.00,-1.00,+0.00,-1.00,+1.00,-2.00,+0.00
-3.00,-1.00,-1.00,+5.00,-4.00,-2.00,+1.00,-1.00,+1.00,-1.00,+1.00,-1.00,-1.00,+1.00,-19.00,-2.00
+9.00,-2.00,+4.00,+0.00,+10.00,+1.00,-2.00,+8.00,-3.00,-2.00,-2.00,-1.00,-5.00,+1.00,+29.00,-9.00
+8.00,-2.00,-4.00,-1.00,-21.00,-1.00,+7.00,-15.00,-2.00,-4.00,-1.00,+0.00,-2.00,-3.00,-36.00,+10.00
+4.00,+0.00,-2.00,-3.00,+9.00,-2.00,+0.00,+32.00,+0.00,+0.00,-1.00,+0.00,-6.00,+0.00,+11.00,-9.00
+1.00,-1.00,-1.00,+2.00,+3.00,+1.00,+1.00,+8.00,-1.00,+0.00,-2.00,-5.00,+8.00,-4.00,-14.00,+10.00
-2.00,+0.00,+2.00,+0.00,-10.00,-5.00,-2.00,-15.00,-1.00,-1.00,-1.00,-3.00,-4.00,+0.00,+8.00,-6.00
-3.00,-2.00,-4.00,-1.00,-5.00,-2.00,-6.00,-6.00,-2.00,-2.00,-1.00,+1.00,+3.00,+3.00,+2.00,-13.00
+0.00,-1.00,-3.00,-5.00,-7.00,+0.00,+0.00,-12.00,-4.00,-4.00,-3.00,-2.00,-1.00,-1.00,-14.00,+11.00
+2.00,+0.00,+0.00,+1.00,+2.00,-4.00,-3.00,-11.00,+2.00,+0.00,-2.00,+2.00,-2.00,+2.00,+35.00,-9.00
-3.00,-2.00,+1.00,-1.00,-1.00,-1.00,-2.00,+13.00,+0.00,+3.00,+2.00,-3.00,-1.00,-1.00,-25.00,+17.00
+1.00,-1.00,+0.00,+0.00,+4.00,+0.00,-4.00,-6.00,+2.00,-2.00,-7.00,+2.00,+1.00,-1.00,+3.00,-15.00
+0.00,+0.00,+2.00,-4.00,-2.00,+0.00,+1.00,+2.00,-1.00,-2.00,+1.00,+2.00,-4.00,-1.00,+10.00,+0.00
+1.00,+1.00,+8.00,+1.00,+0.00,+1.00,-4.00,-15.00,-2.00,+0.00,+1.00,-4.00,-3.00,-2.00,-13.00,-4.00
-3.00,+0.00,-16.00,-2.00,-2.00,-2.00,+1.00,+12.00,-2.00,-2.00,-3.00,-1.00,-2.00,+1.00,-15.00,-11.00
-1.00,-1.00,+4.00,-1.00,+4.00,+0.00,+2.00,-6.00,-1.00,+0.00,-1.00,-1.00,+0.00,-1.00,+18.00,+4.00
+2.00,+0.00,-1.00,+1.00,-7.00,-3.00,-2.00,+3.00,-2.00,-2.00,-2.00,-2.00,-1.00,-4.00,-14.00,-2.00
+1.00,-1.00,+1.00,+0.00,-1.00,-1.00,-3.00,+7.00,-3.00,-1.00,-1.00,-2.00,-1.00,-5.00,-7.00,-5.00
+0.00,-1.00,+4.00,+2.00,+0.00,+0.00,-8.00,-21.00,-2.00,-1.00,-2.00,-3.00,-3.00,-2.00,+3.00,-4.00
+2.00,+0.00,-1.00,-1.00,+3.00,+3.00,+13.00,-14.00,+1.00,-13.00,+2.00,-4.00,+1.00,+1.00,-1.00,+12.00
+4.00,+0.00,+0.00,-3.00,-1.00,+1.00,+10.00,+40.00,+1.00,+5.00,+0.00,-1.00,-2.00,+1.00,+9.00,-2.00
+4.00,-1.00,-6.00,+3.00,+0.00,+0.00,-2.00,+22.00,+0.00,+4.00,+0.00,-2.00,-3.00,+1.00,+0.00,+4.00
-1.00,-1.00,+4.00,-5.00,+0.00,+1.00,+8.00,-5.00,+3.00,+2.00,-3.00,+0.00,-3.00,-2.00,-2.00,+0.00
-2.00,-5.00,-7.00,-2.00,-1.00,-1.00,-20.00,-12.00,-3.00,+0.00,-3.00,-1.00,+1.00,+0.00,-4.00,-8.00
-1.00,+0.00,-1.00,+1.00,-3.00,-1.00,-4.00,+2.00,+0.00,-3.00,-2.00,+2.00,+0.00,-2.00,+12.00,-2.00
-3.00,+0.00,+0.00,-1.00,+1.00,+0.00,+8.00,+1.00,-2.00,-3.00,+0.00,-1.00,-2.00,-2.00,-13.00,+1.00
+2.00,+0.00,-2.00,-2.00,-1.00,+0.00,-2.00,-3.00,-1.00,-4.00,+0.00,+0.00,+0.00,+0.00,+6.00,-3.00
+4.00,+3.00,+1.00,+4.00,+0.00,+0.00,+0.00,+12.00,+0.00,+0.00,+0.00,-2.00,-2.00,+0.00,-4.00,-1.00
-2.00,-3.00,+1.00,-3.00,-2.00,-3.00,-9.00,-22.00,+2.00,+1.00,+1.00,+0.00,+0.00,-1.00,+2.00,+0.00
-2.00,-1.00,-6.00,+0.00,+0.00,+0.00,-8.00,-21.00,-3.00,-1.00,-1.00,-3.00,-3.00,-1.00,-1.00,-2.00
-1.00,+0.00,+1.00,+1.00,+0.00,-1.00,+2.00,+34.00,+0.00,-3.00,-2.00,+0.00,+1.00,-1.00,-2.00,-3.00
-3.00,-1.00,+1.00,-2.00,-3.00,-1.00,+0.00,+0.00,-2.00,+1.00,+1.00,+0.00,-1.00,-2.00,-3.00,-2.00
+0.00,+0.00,+1.00,-1.00,-2.00,-1.00,+0.00,-4.00,-5.00,-2.00,-1.00,-1.00,-1.00,-1.00,+0.00,+1.00
-1.00,-3.00,-1.00,-2.00,-3.00,-1.00,-1.00,-4.00,-4.00,-2.00,-1.00,-1.00,-3.00,+0.00,+1.00,+1.00
+1.00,-1.00,-5.00,-3.00,-2.00,-2.00,+0.00,-20.00,-4.00,-3.00,+0.00,-1.00,-1.00,-4.00,+1.00,-2.00
+3.00,+1.00,+2.00,-1.00,+2.00,+0.00,-3.00,+9.00,-1.00,+2.00,-1.00,+0.00,-1.00,-4.00,-7.00,+1.00
