+4.00,+1.00,+0.00,+0.00,+0.00,+8.00,-3.00,+1.00,-1.00,-2.00,-2.00,-1.00,+1.00,+0.00,+0.00,-2.00
-3.00,+1.00,-2.00,-2.00,-2.00,-7.00,-1.00,-23.00,+2.00,+2.00,-2.00,-2.00,+2.00,-6.00,+0.00,+2.00
+5.00,-3.00,-1.00,+0.00,-2.00,-5.00,-3.00,+3.00,+4.00,+5.00,+0.00,+1.00,-5.00,+3.00,+3.00,+3.00
-4.00,+0.00,-1.00,-2.00,-2.00,-4.00,-2.00,-6.00,-2.00,+0.00,-1.00,-4.00,-3.00,-5.00,-6.00,-4.00
+2.00,-5.00,+1.00,-2.00,+0.00,+10.00,+3.00,-1.00,-2.00,+1.00,-1.00,+0.00,+0.00,+0.00,+0.00,-2.00
-6.00,-15.00,-2.00,-1.00,+0.00,-8.00,-3.00,-4.00,-1.00,-3.00,-2.00,+1.00,+1.00,+12.00,-1.00,-2.00
+11.00,+12.00,+4.00,+0.00,+1.00,-3.00,-1.00,+4.00,+0.00,-2.00,-3.00,+0.00,+1.00,-7.00,+4.00,+1.00
-1.00,-21.00,-5.00,-1.00,-1.00,+1.00,+2.00,+2.00,-3.00,-1.00,-1.00,+1.00,-1.00,+0.00,-10.00,-1.00
+4.00,+10.00,+4.00,+1.00,-1.00,+10.00,-2.00,-1.00,+0.00,+1.00,-1.00,-2.00,-3.00,-5.00,-3.00,-2.00
-11.00,+1.00,-1.00,+0.00,+1.00,-5.00,+2.00,+3.00,-4.00,-3.00,-6.00,-3.00,-1.00,-2.00,-1.00,+0.00
+3.00,-5.00,+1.00,+0.00,-1.00,-2.00,-1.00,-1.00,+9.00,-15.00,-1.00,-3.00,+0.00,+6.00,+4.00,+0.00
+3.00,-4.00,+1.00,-2.00,-2.00,-2.00,-2.00,-5.00,-1.00,+22.00,+3.00,-1.00,-1.00,+0.00,-8.00,-6.00
+1.00,-4.00,-3.00,-2.00,+3.00,+10.00,-1.00,+2.00,-11.00,-1.00,-2.00,+1.00,+1.00,-5.00,+4.00,-4.00
-3.00,+2.00,+0.00,-1.00,-2.00,-5.00,+1.00,+8.00,-8.00,-11.00,+0.00,-1.00,+1.00,-10.00,-6.00,-3.00
-17.00,-7.00,-3.00,+0.00,-1.00,+1.00,+0.00,-1.00,-1.00,+13.00,-1.00,+0.00,-6.00,-5.00,-5.00,-1.00
-18.00,+5.00,+1.00,+0.00,-2.00,+3.00,+1.00,-7.00,+4.00,-9.00,+0.00,-3.00,-1.00,-2.00,+9.00,-1.00
+3.00,-3.00,-3.00,-1.00,-4.00,-2.00,+0.00,+3.00,-13.00,-10.00,+0.00,+0.00,+3.00,+14.00,-3.00,-3.00
+0.00,+4.00,-1.00,-1.00,+0.00,-2.00,+4.00,+24.00,+0.00,-11.00,-1.00,-2.00,-4.00,-7.00,+6.00,+2.00
+3.00,-5.00,-5.00,-2.00,-1.00,+1.00,-1.00,-2.00,-7.00,-8.00,-2.00,-1.00,+0.00,-2.00,+1.00,-1.00
+6.00,+11.00,+3.00,-1.00,+0.00,+2.00,-3.00,-3.00,+19.00,+4.00,-2.00,-3.00,-2.00,+0.00,-3.00,+0.00
-17.00,-71.00,-11.00,-3.00,-3.00,-10.00,-8.00,-6.00,+18.00,+33.00,-4.00,-1.00,+1.00,-10.00,+4.00,+4.00
+17.00,+92.00,+5.00,+1.00,+0.00,-16.00,+1.00,+6.00,-18.00,-7.00,+2.00,+0.00,+3.00,+5.00,+2.00,-4.00
+14.00,-29.00,+6.00,+2.00,-1.00,+14.00,+1.00,+1.00,+5.00,+19.00,-3.00,-1.00,-1.00,-5.00,-8.00,+7.00
-1.00,+20.00,+2.00,-1.00,-3.00,-11.00,+3.00,+4.00,-16.00,+4.00,-1.00,-1.00,-4.00,+1.00,+4.00,-4.00
+6.00,-4.00,-2.00,-1.00,+5.00,+30.00,-1.00,+1.00,+2.00,-25.00,+3.00,-2.00,+2.00,+4.00,+1.00,+2.00
-16.00,-50.00,-7.00,-2.00,-1.00,-13.00,-11.00,+15.00,+12.00,+6.00,-2.00,-3.00,-4.00,-7.00,-8.00,+3.00
+13.00,+74.00,+6.00,-1.00,+0.00,-2.00,+4.00,-1.00,-1.00,+10.00,+4.00,+1.00,+3.00,+5.00,-4.00,-11.00
-9.00,-11.00,+3.00,-3.00,-2.00,-19.00,-10.00,-6.00,-4.00,-26.00,-2.00,-1.00,-3.00,-3.00,-3.00,+0.00
-6.00,+4.00,+4.00,+0.00,-1.00,-8.00,+0.00,-2.00,+8.00,+9.00,-1.00,-2.00,-2.00,-1.00,-3.00,+0.00
-18.00,-58.00,-12.00,-5.00,-6.00,+1.00,-5.00,-21.00,-2.00,-2.00,+2.00,+1.00,+4.00,+7.00,+2.00,-3.00
-3.00,+49.00,-10.00,-1.00,+1.00,+24.00,+6.00,+2.00,-8.00,-32.00,-5.00,-4.00,-12.00,-16.00,-1.00,-3.00
-3.00,-52.00,-3.00,+2.00,-1.00,+7.00,+0.00,+4.00,-18.00,+11.00,-3.00,-1.00,+2.00,-13.00,+1.00,-2.00
+9.00,+29.00,+1.00,+2.00,+1.00,-4.00,-1.00,-4.00,+6.00,-4.00,-3.00,-3.00,-2.00,+23.00,-39.00,-3.00
+7.00,-33.00,+8.00,+2.00,+3.00,-3.00,+2.00,+1.00,+15.00,+10.00,-4.00,+0.00,-3.00,-45.00,+44.00,+6.00
-10.00,+13.00,-2.00,-2.00,-4.00,-14.00,-12.00,-27.00,-18.00,-7.00,+0.00,-3.00,+24.00,+61.00,-13.00,-6.00
+14.00,+13.00,-7.00,-4.00,-2.00,+1.00,+3.00,-1.00,-27.00,-9.00,+0.00,+2.00,-59.00,-23.00,+5.00,-3.00
-14.00,-2.00,-1.00,+2.00,+1.00,-1.00,+1.00,+2.00,-13.00,+3.00,+0.00,-2.00,-12.00,-7.00,-9.00,-1.00
-2.00,-37.00,-2.00,-1.00,-2.00,+3.00,-4.00,+0.00,+21.00,-6.00,-2.00,-2.00,+0.00,-3.00,-12.00,-2.00
-4.00,-21.00,-5.00,-3.00,-4.00,-17.00,-4.00,-1.00,-1.00,+0.00,-1.00,+1.00,-6.00,+2.00,+9.00,+6.00
-5.00,+13.00,-4.00,+0.00,-1.00,-20.00,-6.00,-4.00,+3.00,-1.00,-4.00,-1.00,+21.00,+18.00,+40.00,-1.00
-6.00,-1.00,-3.00,-3.00,+0.00,+64.00,-7.00,-7.00,-4.00,-4.00,+2.00,+0.00,+6.00,+8.00,+6.00,+0.00
+19.00,+35.00,+7.00,+2.00,+1.00,+2.00,+8.00,+5.00,+14.00,+7.00,+0.00,-1.00,-11.00,+5.00,-4.00,-1.00
-9.00,-78.00,-7.00,-3.00,-2.00,+7.00,+4.00,+0.00,-12.00,-33.00,-4.00,-2.00,-5.00,-18.00,+7.00,-3.00
-4.00,+1.00,+1.00,-1.00,+1.00,-6.00,-4.00,+4.00,-2.00,+27.00,+2.00,-1.00,+15.00,-4.00,-25.00,-1.00
+1.00,-27.00,-1.00,-2.00,-5.00,-37.00,+7.00,-6.00,+0.00,-3.00,-3.00,-2.00,-11.00,-14.00,+5.00,+0.00
+0.00,+102.00,+4.00,+1.00,+5.00,+17.00,-20.00,-20.00,+5.00,+2.00,-5.00,+0.00,+7.00,-16.00,-2.00,-1.00
-10.00,-1.00,+2.00,+1.00,+1.00,-6.00,+7.00,+20.00,+7.00,+12.00,-2.00,+0.00,+1.00,+65.00,-3.00,+1.00
-9.00,-32.00,-8.00,-3.00,-1.00,+6.00,-11.00,-2.00,+11.00,-22.00,-2.00,-1.00,+3.00,-19.00,-14.00,+2.00
+15.00,+34.00,+9.00,+1.00,+0.00,-15.00,-12.00,+10.00,-6.00,+8.00,+0.00,+0.00,+5.00,+3.00,+14.00,+2.00
-2.00,-36.00,-1.00,-2.00,-3.00,-4.00,-5.00,+0.00,-37.00,-21.00,-4.00,-2.00,-8.00,-3.00,-14.00,-9.00
+0.00,-8.00,+0.00,-1.00,-2.00,-16.00,+0.00,+0.00,+0.00,+0.00,+2.00,+1.00,-3.00,-29.00,-5.00,+3.00
+1.00,-10.00,-4.00,+0.00,+0.00,-7.00,+16.00,-15.00,-11.00,-6.00,+2.00,-1.00,+5.00,+19.00,+2.00,-12.00
+27.00,+44.00,-3.00,-4.00,+2.00,+19.00,-12.00,+2.00,+5.00,+6.00,+0.00,+1.00,+3.00,+0.00,+3.00,+5.00
-10.00,-29.00,-2.00,-2.00,-2.00,-1.00,-2.00,-11.00,+2.00,+4.00,-2.00,-2.00,+31.00,-9.00,-8.00,+2.00
+12.00,+20.00,+2.00,-1.00,-1.00,+6.00,+3.00,+15.00,+8.00,+6.00,-3.00,-1.00,-56.00,-19.00,+1.00,+2.00
-14.00,-50.00,-6.00,-3.00,-2.00,+9.00,-13.00,-3.00,+15.00,-5.00,-2.00,-4.00,+0.00,+7.00,-3.00,+3.00
-9.00,+24.00,+0.00,+0.00,-2.00,-7.00,-1.00,-10.00,-21.00,-8.00,-2.00,+0.00,-2.00,-7.00,+2.00,-10.00
+3.00,+26.00,-1.00,-2.00,-6.00,-15.00,+11.00,-1.00,+6.00,-18.00,+5.00,+2.00,+10.00,+41.00,-29.00,-1.00
+15.00,-18.00,+0.00,-1.00,+1.00,-11.00,-10.00,+1.00,-5.00,+57.00,-4.00,-2.00,+10.00,-38.00,+31.00,-4.00
-11.00,+65.00,+16.00,+4.00,+4.00,+41.00,+11.00,+3.00,+10.00,+0.00,+0.00,+1.00,+5.00,+14.00,-11.00,+12.00
+7.00,-29.00,+2.00,+0.00,+0.00,-20.00,+2.00,-3.00,-2.00,+1.00,-3.00,-4.00,-11.00,-17.00,+5.00,-8.00
+3.00,-23.00,-5.00,-4.00,-4.00,+22.00,+5.00,-6.00,-25.00,-10.00,-1.00,+3.00,+31.00,+11.00,-26.00,-4.00
+0.00,-8.00,-4.00,+2.00,+1.00,-7.00,-9.00,-3.00,+7.00,-2.00,-1.00,-1.00,-18.00,+46.00,+34.00,-2.00
+18.00,+23.00,-2.00,-2.00,+0.00,-4.00,-5.00,-7.00,+28.00,-22.00,+4.00,-1.00,-8.00,-5.00,-60.00,-1.00
-38.00,+3.00,+1.00,-1.00,+1.00,+7.00,+4.00,+2.00,-25.00,-16.00,-5.00,-2.00,+3.00,-25.00,+6.00,-4.00
+20.00,-48.00,-1.00,-2.00,+1.00,-6.00,+6.00,-22.00,+17.00,+52.00,-2.00,-4.00,-3.00,-7.00,-30.00,+2.00
-8.00,-16.00,+0.00,-1.00,-2.00,-16.00,-8.00,-4.00,-8.00,+1.00,+7.00,+0.00,+21.00,+2.00,+21.00,+3.00
-1.00,+7.00,-2.00,-1.00,-3.00,-1.00,-1.00,+1.00,-3.00,-7.00,-1.00,-3.00,-4.00,+1.00,+21.00,+4.00
+14.00,-22.00,-5.00,-2.00,-1.00,-2.00,-3.00,+2.00,+10.00,-13.00,-4.00,-2.00,-4.00,-19.00,+10.00,-4.00
-5.00,+6.00,-5.00,-1.00,-2.00,-23.00,+5.00,+1.00,-16.00,+2.00,-4.00,-2.00,-18.00,+14.00,-8.00,-3.00
+3.00,+22.00,+3.00,-2.00,-1.00,+16.00,+17.00,-13.00,+28.00,+29.00,-1.00,-1.00,+4.00,-40.00,-12.00,+7.00
-3.00,+8.00,+5.00,+2.00,+2.00,+2.00,-11.00,+5.00,-23.00,-7.00,-4.00,-1.00,-2.00,+11.00,-1.00,-4.00
-26.00,-38.00,-5.00,-2.00,-1.00,-9.00,+11.00,-7.00,+18.00,+1.00,+0.00,+0.00,+6.00,+8.00,+16.00,-3.00
-27.00,+10.00,-5.00,-1.00,+1.00,-2.00,-10.00,+11.00,-28.00,-23.00,-2.00,+0.00,+12.00,-9.00,+16.00,+0.00
+18.00,-9.00,+7.00,+2.00,+0.00,-15.00,-21.00,+1.00,+17.00,+1.00,+0.00,-2.00,+10.00,-31.00,-15.00,+5.00
+8.00,-25.00,-7.00,-3.00,-3.00,+1.00,+7.00,+20.00,-15.00,-10.00,-5.00,-3.00,+3.00,+1.00,+5.00,+1.00
+25.00,-14.00,+3.00,+2.00,-1.00,-27.00,+5.00,+3.00,-5.00,+8.00,+2.00,-1.00,-11.00,+12.00,+9.00,+0.00
+2.00,+7.00,-5.00,-2.00,-2.00,-23.00,-28.00,+5.00,+11.00,-3.00,-1.00,-1.00,+42.00,+18.00,+8.00,+0.00
+14.00,+9.00,-2.00,-3.00,+1.00,+53.00,-6.00,-30.00,-7.00,-16.00,+3.00,-1.00,-1.00,-23.00,-19.00,-3.00
-18.00,-19.00,+1.00,-1.00,-3.00,-3.00,+10.00,+1.00,+7.00,+17.00,+0.00,-2.00,+2.00,-16.00,+6.00,+0.00
+5.00,-46.00,-4.00,+2.00,+6.00,+0.00,-1.00,+23.00,-16.00,-8.00,-4.00,-1.00,+2.00,+10.00,-23.00,-5.00
+16.00,+73.00,+1.00,+0.00,-4.00,-9.00,-9.00,+4.00,+17.00,+11.00,+2.00,-4.00,-22.00,-12.00,+6.00,+2.00
-17.00,-8.00,+4.00,-1.00,-3.00,-5.00,+8.00,+17.00,-9.00,-4.00,-3.00,-1.00,+6.00,-4.00,-11.00,-8.00
+33.00,+39.00,+2.00,+2.00,-2.00,-14.00,+10.00,-15.00,-15.00,-14.00,-2.00,+2.00,-2.00,+11.00,+18.00,-5.00
-17.00,-4.00,-6.00,-2.00,-5.00,+12.00,-2.00,-13.00,-4.00,-6.00,-1.00,+0.00,+10.00,+8.00,-11.00,+2.00
-3.00,-29.00,+2.00,+0.00,+1.00,+9.00,+16.00,+1.00,+4.00,-4.00,-1.00,-1.00,-19.00,-17.00,+10.00,-3.00
-16.00,-13.00,-9.00,-3.00,-2.00,-10.00,-3.00,-1.00,-6.00,-8.00,-5.00,-1.00,-1.00,+16.00,-10.00,-6.00
+24.00,+3.00,-2.00,-2.00,-5.00,+6.00,-50.00,+4.00,+11.00,+14.00,-1.00,+0.00,-1.00,-14.00,+5.00,+0.00
-41.00,+28.00,+2.00,-1.00,-2.00,-3.00,+61.00,+22.00,+11.00,+8.00,+1.00,+3.00,-1.00,-9.00,-12.00,+1.00
+27.00,-34.00,-1.00,+1.00,+0.00,+7.00,-8.00,+4.00,-1.00,-8.00,-2.00,+0.00,-18.00,+0.00,+9.00,+3.00
+0.00,+10.00,+0.00,+1.00,+0.00,-2.00,+6.00,+2.00,-28.00,-31.00,-6.00,-1.00,+4.00,+16.00,-6.00,-6.00
-25.00,+7.00,-9.00,-2.00,+0.00,-10.00,-15.00,-5.00,+6.00,+6.00,-2.00,-2.00,+1.00,-14.00,-6.00,-2.00
+19.00,-63.00,-2.00,-2.00,-3.00,+1.00,-21.00,-5.00,-14.00,-14.00,-2.00,-1.00,-2.00,-2.00,-1.00,+2.00
-11.00,+52.00,+6.00,+1.00,+0.00,+9.00,+9.00,+4.00,+1.00,+3.00,+0.00,+2.00,-18.00,-11.00,+2.00,-8.00
-3.00,-28.00,+1.00,+0.00,-2.00,-5.00,+16.00,+4.00,+2.00,-2.00,+0.00,+0.00,+5.00,+57.00,-1.00,+16.00
-7.00,-8.00,-5.00,-3.00,-2.00,-2.00,+1.00,-11.00,+2.00,+5.00,+1.00,+0.00,+3.00,-1.00,+4.00,+3.00
-17.00,-15.00,-3.00,-2.00,+0.00,+9.00,-8.00,-17.00,+8.00,+3.00,-3.00,-4.00,-4.00,+0.00,-7.00,+2.00
-18.00,-23.00,-4.00,-2.00,+2.00,+0.00,+16.00,+19.00,+0.00,-1.00,+0.00,-3.00,-10.00,+28.00,+13.00,-7.00
+3.00,+1.00,-6.00,-1.00,-2.00,-5.00,-12.00,-2.00,-1.00,-11.00,-4.00,-2.00,-1.00,-42.00,-14.00,-8.00
+2.00,-46.00,+4.00,+1.00,+0.00,+2.00,+9.00,+1.00,-1.00,+4.00,+0.00,-1.00,+0.00,-9.00,-2.00,-4.00
+17.00,+94.00,+8.00,+0.00,-1.00,-3.00,-11.00,-1.00,+2.00,+1.00,+2.00,+0.00,+0.00,+9.00,+3.00,+6.00
-6.00,-30.00,-1.00,-1.00,+0.00,+17.00,+5.00,-2.00,-4.00,+0.00,+0.00,+0.00,-4.00,-6.00,+5.00,+5.00
+3.00,+30.00,-1.00,+0.00,-2.00,-7.00,-3.00,+2.00,+4.00,-6.00,-4.00,-2.00,-2.00,-6.00,-9.00,-6.00
-2.00,-16.00,+0.00,-2.00,+0.00,+4.00,+5.00,-4.00,+1.00,+7.00,+1.00,-1.00,+0.00,+22.00,-1.00,+0.00
-9.00,+22.00,-2.00,-3.00,-3.00,-1.00,-2.00,+5.00,+2.00,-1.00,-2.00,-3.00,-5.00,-31.00,+1.00,-1.00
+4.00,-15.00,-3.00,+1.00,-1.00,-2.00,-4.00,-2.00,+10.00,-1.00,-2.00,-2.00,-4.00,-6.00,-3.00,-2.00
-6.00,-19.00,-3.00,-1.00,-2.00,-8.00,+2.00,+2.00,-17.00,-10.00,-2.00,-1.00,-4.00,-6.00,-3.00,-5.00
-6.00,-4.00,+0.00,-1.00,-1.00,+4.00,+0.00,-8.00,-10.00,-5.00,-3.00,+0.00,+0.00,+4.00,+3.00,-3.00
+2.00,+44.00,+0.00,+0.00,-1.00,-4.00,-11.00,-4.00,+19.00,+12.00,+1.00,+0.00,+5.00,+20.00,-7.00,+2.00
-5.00,+0.00,+0.00,-1.00,-1.00,+1.00,+1.00,-2.00,-10.00,-11.00,-1.00,+1.00,-7.00,-17.00,-3.00,-2.00
+0.00,+1.00,+0.00,-1.00,+1.00,+1.00,-2.00,-4.00,-6.00,+1.00,-2.00,-3.00,+1.00,+2.00,+0.00,+3.00
-10.00,+5.00,+1.00,+1.00,+0.00,-12.00,+2.00,-1.00,+2.00,-7.00,-4.00,+2.00,-1.00,-3.00,+2.00,+1.00
+20.00,-5.00,-1.00,-3.00,-4.00,-16.00,-8.00,+2.00,-2.00,-2.00,+1.00,+1.00,+24.00,+6.00,+2.00,+1.00
-13.00,-13.00,-3.00,-1.00,+0.00,+14.00,+4.00,-8.00,-4.00,+1.00,+2.00,-2.00,-3.00,-12.00,+0.00,+3.00
+6.00,+16.00,-2.00,-1.00,-2.00,-6.00,-4.00,+2.00,+8.00,+4.00,+1.00,-2.00,-1.00,-12.00,-2.00,-5.00
+14.00,-17.00,-4.00,-2.00,+0.00,+8.00,+3.00,-14.00,-6.00,-3.00,+1.00,+0.00,-12.00,+40.00,+3.00,+1.00
+7.00,+9.00,+5.00,+0.00,-1.00,-12.00,+2.00,+4.00,+4.00,+1.00,-5.00,-2.00,+5.00,+3.00,+0.00,+1.00
+5.00,+13.00,-1.00,-2.00,+0.00,-4.00,-9.00,-8.00,+12.00,+11.00,-1.00,-3.00,-5.00,+0.00,+0.00,+0.00
-14.00,-43.00,-2.00,-1.00,-2.00,+3.00,-3.00,-9.00,-11.00,-4.00,+0.00,-1.00,+0.00,+3.00,-2.00,-5.00
+22.00,+88.00,+5.00,+2.00,+1.00,-12.00,+1.00,+8.00,+4.00,+4.00,+1.00,+1.00,+15.00,-11.00,-1.00,+0.00
-18.00,-30.00,-4.00,-4.00,-4.00,+9.00,+1.00,-13.00,-4.00,-5.00,+0.00,-2.00,-4.00,-5.00,-3.00,-4.00
+4.00,-8.00,+2.00,-1.00,-2.00,-1.00,+2.00,-3.00,-3.00,-3.00,+1.00,+0.00,-7.00,+13.00,+2.00,+2.00
+11.00,+0.00,+4.00,+0.00,+0.00,-4.00,-2.00,+8.00,+9.00,+2.00,-1.00,-2.00,-7.00,-12.00,-5.00,-2.00
+5.00,-1.00,-1.00,+0.00,-1.00,+1.00,+2.00,+6.00,+0.00,+3.00,+0.00,-2.00,-1.00,-7.00,-2.00,-3.00
-6.00,-10.00,-4.00,+0.00,+0.00,-5.00,-11.00,-11.00,-8.00,-6.00,+0.00,-2.00,-10.00,-6.00,-3.00,-2.00
+15.00,+21.00,+2.00,-2.00,-2.00,+16.00,+4.00,+7.00,-14.00,-1.00,-4.00,-2.00,-4.00,+1.00,+5.00,-6.00
-15.00,-19.00,-5.00,-3.00,-1.00,-4.00,+3.00,-1.00,+6.00,-2.00,-2.00,+0.00,+5.00,+2.00,+4.00,+3.00
-10.00,-62.00,-5.00,-2.00,-1.00,+2.00,+1.00,+2.00,+11.00,+4.00,+0.00,+0.00,-4.00,-9.00,-2.00,+2.00
+6.00,+70.00,+4.00,-1.00,+1.00,+4.00,+1.00,+0.00,-12.00,-8.00,+0.00,+1.00,+1.00,+29.00,-3.00,-1.00
-18.00,-32.00,-4.00,+1.00,+0.00,-13.00,-4.00,-7.00,+5.00,+4.00,-3.00,-2.00,+5.00,-11.00,+4.00,+4.00
+4.00,+25.00,-1.00,-1.00,-2.00,-2.00,+1.00,-5.00,-9.00,-2.00,+2.00,+1.00,-1.00,+29.00,-21.00,-7.00
-6.00,+4.00,+4.00,+1.00,+6.00,+13.00,-1.00,+3.00,-3.00,-2.00,-2.00,-2.00,+3.00,-28.00,+38.00,-4.00
+4.00,-27.00,-5.00,+0.00,+1.00,+8.00,+4.00,+6.00,+6.00,+0.00,-4.00,-3.00,-18.00,-22.00,-16.00,-1.00
+5.00,+4.00,-3.00,-1.00,+0.00,-5.00,+2.00,+2.00,+10.00,+7.00,-1.00,-3.00,-9.00,-2.00,-21.00,-7.00
-2.00,+3.00,+1.00,+1.00,+2.00,+3.00,-1.00,-2.00,-5.00,-1.00,+1.00,+1.00,+22.00,-6.00,+11.00,+21.00
-3.00,-3.00,+0.00,-2.00,-3.00,-2.00,-1.00,+1.00,-23.00,-25.00,+1.00,+0.00,-65.00,-10.00,-9.00,+9.00
+1.00,-14.00,+0.00,-1.00,-2.00,-6.00,+4.00,-2.00,+7.00,+15.00,-4.00,-2.00,+5.00,+8.00,+8.00,-2.00
-1.00,-16.00,-4.00,+0.00,+1.00,-3.00,+0.00,-3.00,+0.00,+4.00,+2.00,-1.00,+34.00,-8.00,-14.00,-1.00
+32.00,+41.00,+4.00,+3.00,+2.00,-3.00,+3.00,+6.00,-10.00,-36.00,-8.00,-5.00,-57.00,-38.00,-11.00,-10.00
-37.00,-24.00,-7.00,-4.00,-3.00,-8.00,-6.00,-2.00,+2.00,-28.00,-7.00,-3.00,+45.00,+73.00,-14.00,-1.00
+11.00,+16.00,+7.00,+2.00,-4.00,-12.00,+8.00,+6.00,+0.00,+45.00,+5.00,-2.00,-1.00,+1.00,+53.00,-2.00
-36.00,-6.00,+1.00,-2.00,-4.00,+11.00,-10.00,-7.00,-8.00,-2.00,+0.00,+0.00,-6.00,-1.00,-55.00,-6.00
+16.00,+44.00,-4.00,+1.00,+3.00,+0.00,-5.00,+19.00,+9.00,-14.00,-3.00,-2.00,+2.00,+2.00,+42.00,-2.00
+5.00,-60.00,-10.00,-3.00,+0.00,+7.00,+1.00,-2.00,+0.00,-30.00,-13.00,-5.00,+16.00,-46.00,-14.00,-6.00
-31.00,+25.00,+2.00,+0.00,+2.00,+17.00,+2.00,+2.00,+3.00,+44.00,+6.00,+1.00,-10.00,+21.00,+3.00,-4.00
+15.00,+14.00,+7.00,+3.00,+1.00,-24.00,-2.00,-14.00,-27.00,-68.00,-5.00,+1.00,+0.00,-23.00,+40.00,-6.00
-19.00,-38.00,+0.00,-2.00,-5.00,-34.00,-5.00,+7.00,+18.00,+116.00,+10.00,+3.00,+20.00,+45.00,-19.00,+9.00
+7.00,-5.00,-5.00,-1.00,-2.00,-7.00,+8.00,-6.00,+4.00,+16.00,+2.00,-6.00,-22.00,-4.00,+54.00,+3.00
+11.00,+25.00,+1.00,-2.00,+0.00,+9.00,-2.00,+0.00,-7.00,-41.00,-6.00,+0.00,-7.00,-97.00,-1.00,-2.00
-9.00,-10.00,-5.00,-3.00,-3.00,+3.00,-10.00,-2.00,-17.00,+0.00,-2.00,+0.00,-10.00,+50.00,+9.00,-10.00
-9.00,-31.00,-11.00,-4.00,-6.00,-6.00,+0.00,-5.00,+0.00,-42.00,-3.00,-1.00,-2.00,-15.00,+1.00,-11.00
+4.00,+49.00,-4.00,-2.00,-2.00,+12.00,-10.00,-9.00,-5.00,+13.00,-4.00,-2.00,-2.00,+8.00,-12.00,-4.00
-23.00,-125.00,+2.00,+2.00,+1.00,+2.00,+3.00,-9.00,+12.00,-4.00,+2.00,+1.00,+4.00,-3.00,-18.00,+4.00
+13.00,+25.00,-9.00,-6.00,-5.00,-2.00,+8.00,-8.00,+2.00,-25.00,-8.00,-1.00,+1.00,-5.00,+12.00,+2.00
-19.00,+8.00,+0.00,-2.00,+0.00,+10.00,-10.00,-14.00,-3.00,-2.00,-1.00,+1.00,-10.00,-2.00,-1.00,-2.00
+19.00,+102.00,+14.00,+2.00,+0.00,+14.00,+9.00,+7.00,+14.00,+38.00,+7.00,-1.00,+23.00,+15.00,-31.00,+0.00
+18.00,-51.00,-9.00,-2.00,-2.00,+1.00,-55.00,+4.00,-11.00,-25.00,-6.00,-2.00,+1.00,-2.00,-4.00,-6.00
-15.00,+31.00,-2.00,-3.00,-7.00,-8.00,+42.00,+0.00,-5.00,+10.00,+1.00,+0.00,-5.00,-8.00,-4.00,+1.00
-22.00,-37.00,+6.00,+2.00,+2.00,-17.00,+12.00,-2.00,+7.00,-5.00,-3.00,-1.00,+7.00,+10.00,+18.00,-3.00
+4.00,-18.00,+2.00,+2.00,+2.00,-8.00,+17.00,-10.00,+5.00,+16.00,+2.00,+0.00,-5.00,-7.00,-22.00,-2.00
+7.00,-19.00,-6.00,-2.00,-1.00,+1.00,+10.00,-13.00,+19.00,+4.00,-1.00,-3.00,-6.00,-27.00,-44.00,+0.00
+17.00,+16.00,+2.00,-1.00,+0.00,-9.00,-29.00,+3.00,-50.00,-42.00,-2.00,+2.00,-8.00,+37.00,+88.00,-10.00
-12.00,+2.00,-6.00,+1.00,-1.00,+19.00,+4.00,-19.00,+13.00,+68.00,+1.00,-1.00,-4.00,-6.00,-70.00,-2.00
-36.00,-4.00,+0.00,-1.00,-2.00,-5.00,-21.00,+1.00,+3.00,-10.00,+4.00,+1.00,+2.00,-36.00,+23.00,+3.00
+17.00,+1.00,-3.00,+1.00,+1.00,-5.00,+11.00,-5.00,-31.00,-29.00,-2.00,+0.00,-1.00,+16.00,-5.00,-4.00
-29.00,-56.00,-9.00,+0.00,-3.00,+0.00,+8.00,+16.00,+49.00,+41.00,+3.00,-2.00,+10.00,+15.00,-7.00,+8.00
-11.00,+27.00,+0.00,-4.00,-4.00,+7.00,+12.00,-4.00,-12.00,-35.00,-3.00,-1.00,+8.00,+8.00,+6.00,-8.00
-3.00,-7.00,+1.00,+1.00,-1.00,-20.00,-30.00,-3.00,-25.00,-9.00,-2.00,+0.00,-5.00,-25.00,-6.00,-11.00
-8.00,+7.00,-3.00,-3.00,-2.00,+19.00,-33.00,-8.00,+12.00,+17.00,+1.00,-1.00,-1.00,+28.00,-7.00,-3.00
-4.00,-84.00,-7.00,+0.00,-1.00,+1.00,-5.00,-8.00,+3.00,+6.00,+1.00,-1.00,-9.00,-15.00,-24.00,+3.00
+4.00,+61.00,-4.00,-1.00,+1.00,+2.00,-5.00,+9.00,-9.00,-16.00,-4.00,+2.00,+6.00,-2.00,+16.00,-3.00
+84.00,+62.00,+24.00,+4.00,+1.00,-8.00,+22.00,+19.00,+1.00,+6.00,-1.00,+0.00,-2.00,+9.00,-15.00,-2.00
-14.00,-26.00,-10.00,-1.00,+1.00,-16.00,-17.00,-9.00,-2.00,-10.00,-1.00,+0.00,-2.00,+2.00,+6.00,-2.00
-16.00,+20.00,+2.00,+2.00,+4.00,+8.00,+4.00,+5.00,+0.00,+0.00,+0.00,-1.00,-3.00,+2.00,-7.00,+7.00
+30.00,+27.00,+2.00,-2.00,-1.00,+10.00,+6.00,-3.00,+12.00,-1.00,+0.00,-4.00,-2.00,-7.00,+2.00,+5.00
-31.00,-89.00,-13.00,-4.00,-6.00,-13.00,-12.00,+10.00,-6.00,+1.00,-3.00,-1.00,+0.00,+8.00,+11.00,+5.00
+47.00,+99.00,+7.00,-2.00,-2.00,-1.00,+5.00,+1.00,+1.00,-12.00,+0.00,-2.00,+5.00,+1.00,-8.00,-4.00
+7.00,+24.00,+8.00,+2.00,+4.00,+18.00,+5.00,+1.00,+1.00,+13.00,-4.00,-5.00,-8.00,-21.00,-13.00,-2.00
+9.00,-57.00,-8.00,-2.00,-3.00,+3.00,-6.00,-10.00,-17.00,-19.00,-4.00,+0.00,+1.00,+3.00,+0.00,-2.00
-29.00,+43.00,-3.00,+0.00,-3.00,+5.00,+11.00,-5.00,-2.00,-1.00,-2.00,+1.00,+0.00,+6.00,-4.00,-2.00
+9.00,-19.00,+2.00,-1.00,-1.00,-8.00,+10.00,-3.00,-1.00,+5.00,-2.00,+1.00,+0.00,+4.00,+11.00,+3.00
+2.00,+7.00,-2.00,-1.00,-4.00,-8.00,-13.00,-1.00,+27.00,+24.00,+4.00,+0.00,-4.00,+28.00,-10.00,+8.00
-12.00,-14.00,-3.00,+0.00,-4.00,+4.00,-14.00,-6.00,-3.00,-5.00,+0.00,-2.00,+1.00,-10.00,+7.00,-2.00
+8.00,+28.00,+5.00,+1.00,+1.00,-6.00,+1.00,+10.00,-5.00,-6.00,+2.00,-1.00,+2.00,+4.00,-7.00,+0.00
-30.00,-55.00,-11.00,-2.00,-3.00,-10.00,+13.00,+0.00,+7.00,-2.00,-4.00,+0.00,+2.00,+18.00,+1.00,+1.00
+19.00,+20.00,+1.00,-2.00,+1.00,+15.00,-7.00,+16.00,-2.00,+6.00,+0.00,-3.00,+0.00,-30.00,-3.00,-8.00
-14.00,+33.00,+1.00,-1.00,+0.00,-7.00,-4.00,+7.00,-5.00,-13.00,+1.00,-1.00,-3.00,-9.00,-3.00,+1.00
+7.00,-29.00,-4.00,-3.00,-2.00,+8.00,+3.00,-11.00,+1.00,+1.00,+0.00,-2.00,+2.00,-15.00,-11.00,-2.00
-9.00,+26.00,+4.00,+2.00,+3.00,+2.00,+7.00,+3.00,-6.00,-6.00,-3.00,+0.00,+3.00,+0.00,+1.00,-1.00
+13.00,-15.00,+3.00,-1.00,-1.00,-11.00,-2.00,-11.00,-2.00,-2.00,+0.00,+0.00,+1.00,+4.00,-5.00,+1.00
+6.00,-30.00,+1.00,-2.00,-1.00,+5.00,-8.00,+6.00,-1.00,-3.00,-1.00,-1.00,+0.00,-5.00,+8.00,-3.00
-40.00,-44.00,-14.00,-4.00,-2.00,-4.00,+2.00,-5.00,+5.00,+0.00,-2.00,-2.00,-17.00,-11.00,-9.00,+3.00
+7.00,+17.00,-1.00,-2.00,-3.00,-3.00,-3.00,-2.00,-5.00,-4.00,-2.00,-2.00,+4.00,+4.00,+1.00,-2.00
+3.00,+3.00,+1.00,+2.00,+2.00,-1.00,+8.00,+2.00,-11.00,-6.00,-3.00,-1.00,-1.00,-6.00,+0.00,-3.00
-15.00,-26.00,-2.00,-2.00,-3.00,+5.00,+3.00,-5.00,+7.00,-9.00,-2.00,-1.00,-4.00,+7.00,-1.00,-2.00
-3.00,+5.00,-3.00,-2.00,-2.00,-19.00,-61.00,-10.00,-1.00,+7.00,-2.00,+1.00,+15.00,+11.00,+5.00,-13.00
+11.00,+6.00,+3.00,+1.00,+0.00,-2.00,+28.00,+8.00,-5.00,-10.00,+2.00,+1.00,-8.00,-38.00,+2.00,+8.00
-11.00,-2.00,-2.00,-4.00,-2.00,-2.00,+7.00,-5.00,-6.00,+4.00,-1.00,+1.00,+1.00,-3.00,-52.00,-5.00
+5.00,+4.00,+1.00,+1.00,-1.00,-3.00,+0.00,+3.00,-4.00,+2.00,+3.00,-1.00,+0.00,+7.00,+70.00,+0.00
+3.00,-5.00,-1.00,-1.00,+1.00,+7.00,+8.00,+0.00,-3.00,-16.00,-2.00,+0.00,+0.00,+3.00,+1.00,-8.00
-13.00,+0.00,-3.00,-2.00,-4.00,-5.00,-17.00,-5.00,+2.00,+2.00,+0.00,-2.00,-4.00,-9.00,+1.00,-2.00
-7.00,+2.00,-2.00,+1.00,-1.00,-8.00,+0.00,+1.00,+9.00,+8.00,+1.00,-1.00,-8.00,-8.00,-6.00,-1.00
-9.00,-25.00,+1.00,-2.00,-2.00,-5.00,+2.00,+4.00,-3.00,+1.00,-1.00,+0.00,-2.00,-2.00,-23.00,-6.00
+11.00,+17.00,+0.00,+0.00,+1.00,+4.00,+2.00,-3.00,+0.00,-2.00,-1.00,+0.00,+2.00,-15.00,+4.00,+4.00
-11.00,+9.00,+2.00,+0.00,+0.00,+4.00,+2.00,+5.00,-3.00,+1.00,+0.00,+0.00,-4.00,+17.00,+2.00,-5.00
-4.00,-46.00,-5.00,-3.00,-5.00,+5.00,+21.00,-4.00,+3.00,+3.00,+3.00,-1.00,+7.00,+5.00,+15.00,+6.00
+40.00,+50.00,+6.00,+2.00,+3.00,-9.00,-38.00,-1.00,+1.00,-3.00,-4.00,-1.00,-1.00,-10.00,-21.00,+1.00
-20.00,-28.00,+0.00,-1.00,+1.00,+12.00,+19.00,+0.00,+7.00,+4.00,+1.00,-3.00,-3.00,+8.00,+10.00,+2.00
-8.00,+13.00,-3.00,+0.00,-2.00,+3.00,-18.00,-1.00,-12.00,+1.00,-2.00,-2.00,+0.00,+5.00,-14.00,-5.00
+3.00,+2.00,+3.00,+1.00,-1.00,-14.00,+4.00,-2.00,-5.00,-5.00,-2.00,+0.00,-3.00,+3.00,+7.00,-2.00
-13.00,-41.00,-4.00,-2.00,-1.00,+4.00,+4.00,-6.00,+1.00,-1.00,+0.00,+0.00,-1.00,-9.00,-8.00,-4.00
+6.00,+9.00,-1.00,-1.00,-4.00,+3.00,+15.00,-3.00,+0.00,-5.00,-5.00,-5.00,-7.00,-1.00,-10.00,+2.00
+11.00,+3.00,-1.00,+0.00,+2.00,-4.00,-10.00,-9.00,+1.00,+5.00,+5.00,+0.00,+2.00,+11.00,+5.00,+4.00
-7.00,+15.00,+0.00,-2.00,+0.00,-6.00,-15.00,+11.00,-3.00,-3.00,-5.00,-1.00,+2.00,+2.00,+6.00,-4.00
+1.00,-19.00,+1.00,+1.00,+2.00,+1.00,+6.00,-13.00,+2.00,+7.00,+1.00,-1.00,-2.00,-2.00,-1.00,+4.00
+14.00,+5.00,+2.00,+1.00,+2.00,+2.00,+5.00,+10.00,-6.00,-4.00,+0.00,-1.00,+0.00,-1.00,-8.00,-2.00
-7.00,-15.00,-2.00,-2.00,-2.00,-1.00,+12.00,-1.00,+2.00,-1.00,-1.00,-3.00,-1.00,-2.00,+1.00,-5.00
+12.00,-17.00,-3.00,+1.00,-2.00,+1.00,-14.00,-10.00,-14.00,-11.00,-4.00,+1.00,-3.00,-10.00,+8.00,+1.00
+3.00,+27.00,+0.00,-2.00,+0.00,+1.00,+10.00,-3.00,+11.00,+0.00,-2.00,-3.00,+3.00,+1.00,-13.00,+5.00
-5.00,+29.00,-1.00,+0.00,-1.00,-1.00,-1.00,-2.00,-2.00,+0.00,-1.00,+0.00,+0.00,+3.00,-1.00,-4.00
+0.00,+2.00,+3.00,+1.00,+1.00,+0.00,+0.00,+10.00,-3.00,-2.00,-2.00,-1.00,-2.00,+4.00,-1.00,-1.00
-5.00,+14.00,+0.00,-4.00,-1.00,-1.00,-6.00,-2.00,-2.00,+6.00,+0.00,-2.00,-2.00,+1.00,-3.00,-3.00
+12.00,-21.00,+1.00,+2.00,-1.00,+2.00,+2.00,+8.00,-6.00,-4.00,-2.00,-2.00,-1.00,-4.00,-8.00,-6.00
-4.00,-16.00,-1.00,-1.00,-1.00,+0.00,-3.00,-13.00,+0.00,+0.00,-1.00,+1.00,+1.00,+0.00,+1.00,+5.00
-2.00,-23.00,-1.00,-1.00,+1.00,-20.00,+8.00,+3.00,+0.00,+0.00,-2.00,-2.00,-2.00,+3.00,+1.00,+0.00
+7.00,+38.00,+1.00,+0.00,-1.00,+5.00,-5.00,-4.00,+11.00,+9.00,+0.00,-2.00,-1.00,-30.00,+0.00,-3.00
-15.00,-41.00,-4.00,+1.00,+0.00,-3.00,+0.00,-3.00,-4.00,-4.00,-2.00,+0.00,+1.00,+59.00,-2.00,+1.00
-2.00,+20.00,+2.00,+1.00,+0.00,+0.00,+4.00,+4.00,-21.00,-12.00,-3.00,-1.00,-5.00,+1.00,+5.00,+12.00
-4.00,-6.00,-1.00,-2.00,-3.00,+0.00,+4.00,-4.00,+4.00,-6.00,+0.00,+1.00,+5.00,+3.00,-2.00,+0.00
-3.00,-17.00,-4.00,+0.00,+1.00,-3.00,-6.00,+0.00,+2.00,+0.00,+0.00,+0.00,+1.00,-11.00,+0.00,-2.00
+0.00,+24.00,+2.00,-2.00,-3.00,-3.00,+0.00,-1.00,-3.00,-1.00,-4.00,-1.00,-2.00,-15.00,-2.00,-4.00
-5.00,-31.00,-5.00,-2.00,+0.00,-3.00,-1.00,+1.00,+8.00,+7.00,+0.00,-1.00,-1.00,+0.00,-3.00,+0.00
+10.00,+15.00,-1.00,-1.00,-3.00,+3.00,-1.00,-1.00,-6.00,-2.00,-5.00,-3.00,-2.00,+6.00,-1.00,-3.00
-12.00,+2.00,+0.00,-1.00,+1.00,-3.00,-3.00,-2.00,+3.00,-3.00,+0.00,+0.00,-3.00,+2.00,+0.00,+1.00
-3.00,+4.00,-1.00,-1.00,-1.00,-1.00,+4.00,-1.00,+5.00,+5.00,+0.00,-2.00,-1.00,-18.00,-4.00,-3.00
+4.00,-59.00,-6.00,-2.00,-2.00,-1.00,+1.00,-1.00,+0.00,+0.00,+0.00,-2.00,+1.00,+11.00,-2.00,-6.00
-22.00,+29.00,+3.00,-1.00,+0.00,+5.00,+7.00,+2.00,+1.00,+2.00,-2.00,-2.00,-2.00,-7.00,+0.00,+3.00
+55.00,+74.00,+6.00,+1.00,+1.00,+3.00,-1.00,+3.00,+0.00,-6.00,-2.00,-2.00,+1.00,+11.00,-1.00,-1.00
-9.00,-6.00,-1.00,+0.00,-1.00,+1.00,-4.00,-4.00,-16.00,-3.00,+1.00,-2.00,-3.00,-10.00,-5.00,-3.00
-4.00,-10.00,+0.00,-1.00,-3.00,+2.00,-3.00,-2.00,-11.00,+0.00,+1.00,-1.00,-3.00,-9.00,-2.00,-2.00
+0.00,-43.00,-5.00,-4.00,-2.00,+1.00,-1.00,+2.00,+1.00,-2.00,-4.00,+0.00,-1.00,+1.00,-3.00,+0.00
-17.00,-25.00,-4.00,-1.00,-1.00,-3.00,-2.00,+5.00,+12.00,+6.00,-2.00,+1.00,-1.00,+2.00,+0.00,+2.00
+4.00,+7.00,+1.00,-1.00,+0.00,-1.00,+1.00,+3.00,-10.00,-9.00,-2.00,-2.00,-2.00,-11.00,-2.00,-2.00
-1.00,+6.00,+0.00,+0.00,+0.00,-1.00,-1.00,-3.00,+6.00,-2.00,-1.00,-1.00,+0.00,-4.00,-1.00,-3.00
-2.00,+4.00,-3.00,-3.00,-4.00,+0.00,-1.00,+1.00,+0.00,-3.00,+1.00,-1.00,-3.00,-2.00,-3.00,-2.00
-21.00,-6.00,-3.00,-2.00,+1.00,+1.00,-13.00,-7.00,-5.00,-2.00,-1.00,+0.00,-1.00,+8.00,+1.00,-2.00
+20.00,-4.00,-2.00,-2.00,-1.00,+0.00,+1.00,+2.00,+0.00,+5.00,+1.00,+0.00,+3.00,+5.00,+2.00,+0.00
-3.00,+11.00,+0.00,-2.00,+0.00,+4.00,+0.00,-1.00,-7.00,+5.00,+0.00,+1.00,+0.00,-3.00,-1.00,+1.00
-4.00,+4.00,-1.00,+0.00,-2.00,-27.00,-2.00,-10.00,-2.00,-8.00,-3.00,-2.00,+0.00,+1.00,+0.00,+0.00
+14.00,-9.00,+1.00,+0.00,+0.00,+7.00,+2.00,-1.00,-1.00,-4.00,-2.00,-2.00,-2.00,+11.00,-1.00,+0.00
-17.00,-10.00,-3.00,-2.00,+0.00,+0.00,-1.00,-2.00,+3.00,+1.00,-2.00,-1.00,-3.00,-15.00,-5.00,-3.00
-2.00,-45.00,-4.00,+0.00,-2.00,-2.00,+2.00,-1.00,-3.00,-1.00,+0.00,+0.00,-1.00,-1.00,-1.00,-9.00
+5.00,+55.00,+0.00,-1.00,+0.00,-1.00,+3.00,+1.00,+1.00,+0.00,-3.00,-3.00,+0.00,+7.00,+0.00,+0.00
+2.00,-1.00,+2.00,+1.00,-3.00,-6.00,-2.00,-1.00,-4.00,-4.00,-1.00,+0.00,-3.00,-15.00,-3.00,-4.00
-25.00,-10.00,-4.00,-2.00,-3.00,-2.00,+1.00,+1.00,-1.00,+7.00,+2.00,-2.00,+0.00,-5.00,+1.00,-1.00
-4.00,+15.00,+0.00,+0.00,+0.00,+1.00,-1.00,+9.00,+2.00,-3.00,-1.00,-2.00,+1.00,+5.00,+0.00,+0.00
+5.00,-31.00,-3.00,-1.00,-2.00,+9.00,-2.00,+3.00,+3.00,+7.00,+2.00,-3.00,-4.00,-7.00,-7.00,-8.00
+0.00,-5.00,-2.00,+0.00,-1.00,-1.00,+0.00,-3.00,-9.00,-10.00,-2.00,-2.00,+3.00,+1.00,+0.00,-3.00
+14.00,+18.00,+4.00,+0.00,-1.00,-2.00,-1.00,-4.00,-11.00,-7.00,-3.00,-1.00,-1.00,-1.00,-4.00,-4.00
-3.00,-3.00,-3.00,-1.00,+0.00,-4.00,-4.00,-7.00,+8.00,-5.00,-2.00,+1.00,+1.00,+4.00,-2.00,-1.00
-5.00,-7.00,-2.00,-1.00,+1.00,+3.00,-3.00,+3.00,+1.00,+6.00,+5.00,+1.00,+1.00,-3.00,+1.00,-2.00
+9.00,+0.00,+0.00,+0.00,+0.00,-1.00,-1.00,-3.00,-1.00,-1.00,-1.00,+0.00,-4.00,+3.00,+1.00,-1.00
+1.00,-6.00,-7.00,-5.00,-1.00,-3.00,+1.00,+0.00,+3.00,-5.00,-2.00,+1.00,+0.00,+2.00,-1.00,+2.00
-5.00,+9.00,+0.00,-2.00,-3.00,-2.00,-2.00,-7.00,+1.00,+3.00,+0.00,-1.00,-2.00,-8.00,-2.00,-4.00
+4.00,-4.00,+0.00,-1.00,-2.00,+4.00,-1.00,-3.00,-4.00,-8.00,-5.00,+1.00,-2.00,+0.00,+0.00,+0.00
+4.00,+1.00,+2.00,-2.00,-2.00,-1.00,-1.00,-1.00,+2.00,+2.00,+1.00,+0.00,+0.00,+4.00,-1.00,+4.00
-31.00,-15.00,-1.00,-2.00,-2.00,-4.00,-2.00,-9.00,-1.00,-2.00,-5.00,-1.00,+1.00,+3.00,+1.00,+0.00
+13.00,+27.00,+1.00,-1.00,-1.00,-1.00,-4.00,+4.00,+0.00,+2.00,-1.00,-1.00,-3.00,-10.00,-3.00,-4.00
-12.00,+0.00,-2.00,-1.00,+0.00,+2.00,+0.00,+9.00,+2.00,-7.00,-3.00,-1.00,-3.00,+11.00,+0.00,+3.00
-9.00,-9.00,-1.00,+1.00,-1.00,-1.00,-2.00,-6.00,+1.00,+3.00,+3.00,-1.00,+4.00,-5.00,+1.00,+2.00
-19.00,-4.00,-1.00,+2.00,+2.00,+1.00,-3.00,-3.00,-4.00,-5.00,-3.00,-5.00,-5.00,-6.00,-1.00,-5.00
-3.00,+3.00,+4.00,+0.00,+1.00,-3.00,+1.00,+5.00,+3.00,-2.00,+1.00,-2.00,+1.00,+1.00,-2.00,+1.00
+7.00,-6.00,+1.00,+0.00,-2.00,+2.00,+0.00,-6.00,-6.00,-1.00,+0.00,-2.00,-1.00,+0.00,-1.00,-3.00
-6.00,+1.00,-3.00,+0.00,-2.00,-4.00,-2.00,-3.00,-4.00,-2.00,-3.00,+0.00,-2.00,-38.00,-3.00,+1.00
+10.00,+1.00,-2.00,-2.00,+0.00,+3.00,-2.00,+2.00,+2.00,+4.00,+2.00,+1.00,+0.00,+21.00,-2.00,-2.00
+10.00,+2.00,+0.00,-2.00,+0.00,+1.00,+1.00,-2.00,+7.00,+4.00,-2.00,-1.00,-1.00,+3.00,+3.00,+2.00
+4.00,+0.00,-1.00,-2.00,-2.00,-1.00,-2.00,-5.00,+4.00,-2.00,-2.00,-2.00,-3.00,-2.00,-4.00,-4.00
-2.00,-10.00,-3.00,+0.00,-2.00,+12.00,+3.00,-2.00,-15.00,-17.00,-4.00,-1.00,-2.00,-2.00,-2.00,+3.00
-8.00,+8.00,+0.00,-2.00,-3.00,+5.00,+1.00,+0.00,-16.00,-9.00,+0.00,-2.00,+0.00,-12.00,-2.00,-7.00
-11.00,+0.00,-1.00,+1.00,+2.00,+2.00,-5.00,-9.00,-4.00,-3.00,-1.00,-3.00,-2.00,+2.00,+1.00,+0.00
+1.00,-4.00,-3.00,-3.00,-1.00,+3.00,-1.00,+4.00,+2.00,+3.00,+0.00,+0.00,+2.00,-6.00,-1.00,-1.00
-13.00,-2.00,-3.00,-1.00,+0.00,-6.00,-1.00,+0.00,+8.00,+3.00,-1.00,-2.00,-2.00,+12.00,-2.00,-3.00
+26.00,-6.00,+2.00,+0.00,+0.00,-5.00,-4.00,+2.00,+4.00,+1.00,-1.00,+0.00,-2.00,-4.00,-2.00,+1.00
-7.00,+5.00,-2.00,-1.00,-1.00,+0.00,+0.00,-3.00,+1.00,-5.00,-1.00,-1.00,+1.00,+4.00,-1.00,+2.00
-3.00,-2.00,+1.00,-1.00,+0.00,+0.00,+0.00,-1.00,-4.00,+2.00,+0.00,+1.00,+3.00,+1.00,-3.00,-4.00
+15.00,-19.00,-3.00,-1.00,-1.00,-3.00,-3.00,+0.00,-4.00,-1.00,-2.00,-4.00,-4.00,+5.00,-2.00,-3.00
-46.00,-39.00,-4.00,-1.00,-1.00,-3.00,-1.00,-2.00,+4.00,+1.00,+1.00,-2.00,-4.00,-6.00,-3.00,-4.00
+23.00,+14.00,+7.00,-1.00,+1.00,-2.00,+0.00,-6.00,-2.00,+1.00,-3.00,-3.00,-2.00,+5.00,-1.00,-2.00
+21.00,+35.00,+3.00,+1.00,+1.00,-2.00,-2.00,-5.00,-2.00,-3.00,-3.00,+0.00,-2.00,-14.00,+0.00,+0.00
+1.00,+16.00,+1.00,-1.00,+0.00,-2.00,+1.00,+4.00,-5.00,+4.00,+0.00,-2.00,-1.00,+11.00,+2.00,-4.00
+1.00,-21.00,-3.00,+1.00,+0.00,+4.00,+0.00,-1.00,-8.00,-4.00,-3.00,+1.00,-4.00,-3.00,-2.00,-2.00
-9.00,-24.00,-6.00,-2.00,-3.00,-2.00,+1.00,+5.00,+11.00,+0.00,+1.00,+0.00,+2.00,-2.00,+0.00,+10.00
-15.00,-7.00,-2.00,+0.00,-1.00,-3.00,-4.00,-8.00,-5.00,-3.00,-2.00,-3.00,+2.00,+19.00,-3.00,-4.00
-4.00,-12.00,-1.00,+0.00,-2.00,+2.00,-2.00,+1.00,+1.00,-3.00,-4.00,-1.00,+0.00,-7.00,+1.00,-2.00
-12.00,+17.00,+1.00,+0.00,-1.00,+1.00,-3.00,-7.00,-2.00,+2.00,+0.00,+0.00,-1.00,-5.00,-1.00,+1.00
-2.00,+2.00,-4.00,-2.00,-4.00,-26.00,+5.00,+1.00,-10.00,-3.00,-1.00,+0.00,-3.00,-8.00,-4.00,-10.00
-3.00,-4.00,-1.00,+0.00,-1.00,+6.00,-3.00,-4.00,-2.00,-4.00,+0.00,+1.00,-1.00,+0.00,-1.00,-1.00
-28.00,-2.00,-4.00,-3.00,+0.00,-3.00,+0.00,+25.00,+4.00,+1.00,+2.00,-2.00,+3.00,+2.00,+2.00,-1.00
+17.00,+18.00,+2.00,+0.00,-1.00,+3.00,+1.00,-8.00,+3.00,+6.00,+4.00,+0.00,+4.00,+1.00,+1.00,+2.00
-18.00,+4.00,-4.00,-2.00,-2.00,+2.00,-1.00,+8.00,-2.00,-5.00,-3.00,-1.00,-6.00,+3.00,-2.00,-2.00
-15.00,-17.00,-2.00,+0.00,-2.00,-3.00,+1.00,+3.00,-1.00,-3.00,+1.00,-1.00,+0.00,-2.00,+1.00,-1.00
+22.00,+3.00,+1.00,+0.00,+0.00,-2.00,-2.00,-12.00,+8.00,+8.00,-1.00,-3.00,-10.00,-9.00,-8.00,-1.00
-28.00,+11.00,-2.00,-2.00,-3.00,-2.00,-3.00,+0.00,-11.00,-14.00,-4.00,-1.00,+2.00,-3.00,-1.00,-1.00
+16.00,-4.00,+0.00,+0.00,+0.00,-1.00,-1.00,+0.00,-3.00,-1.00,+0.00,+0.00,-1.00,+0.00,-2.00,+4.00
+7.00,-4.00,-1.00,+1.00,+2.00,+0.00,+1.00,+0.00,-8.00,-1.00,-2.00,-2.00,+0.00,-2.00,+0.00,-5.00
-5.00,+0.00,+0.00,+0.00,+0.00,+1.00,+0.00,-3.00,-1.00,+5.00,+1.00,+1.00,+0.00,+4.00,-1.00,-3.00
+13.00,+5.00,-1.00,-1.00,-1.00,-4.00,-1.00,+2.00,+10.00,-1.00,-1.00,+0.00,-1.00,+2.00,+2.00,+4.00
-2.00,-7.00,-3.00,+0.00,-2.00,+2.00,-3.00,-6.00,+0.00,+2.00,+2.00,+1.00,+3.00,-6.00,-2.00,+0.00
-3.00,-12.00,-1.00,-1.00,-3.00,-3.00,-2.00,-2.00,+0.00,-4.00,-1.00,-1.00,-5.00,-5.00,+2.00,-1.00
-5.00,+6.00,+1.00,-2.00,+2.00,-2.00,-1.00,-9.00,+2.00,-2.00,-1.00,+0.00,+2.00,+7.00,-2.00,+0.00
+3.00,-19.00,-1.00,-1.00,+0.00,-16.00,-2.00,+2.00,+0.00,-1.00,-2.00,-1.00,-4.00,-10.00,-1.00,-1.00
-3.00,-2.00,-4.00,-1.00,+0.00,+15.00,+6.00,-4.00,-5.00,+0.00,-2.00,+0.00,+6.00,-1.00,-1.00,-5.00
+4.00,+42.00,+5.00,+0.00,+0.00,+1.00,-1.00,-2.00,+2.00,-3.00,-2.00,+0.00,-2.00,-6.00,-1.00,+1.00
-8.00,-4.00,+1.00,+1.00,+1.00,-2.00,+0.00,-5.00,-4.00,-3.00,-1.00,-1.00,-2.00,+6.00,+3.00,+2.00
+23.00,+13.00,-1.00,+0.00,-2.00,-2.00,-1.00,+2.00,+4.00,-3.00,-3.00,+0.00,-2.00,-1.00,-4.00,+2.00
+16.00,-12.00,+0.00,+0.00,-1.00,-2.00,-2.00,-1.00,-4.00,+0.00,+1.00,-3.00,-4.00,-5.00,-1.00,-6.00
-25.00,-15.00,-3.00,-1.00,-1.00,-3.00,+0.00,-2.00,+2.00,+2.00,+0.00,+0.00,+2.00,+7.00,-1.00,+1.00
+18.00,+5.00,+0.00,-1.00,-2.00,-1.00,-2.00,-6.00,-3.00,-4.00,-1.00,+0.00,+0.00,-3.00,-3.00,-5.00
-18.00,-4.00,-3.00,-1.00,+0.00,+1.00,+1.00,+6.00,-3.00,+0.00,-2.00,-3.00,+0.00,-3.00,+0.00,-1.00
+2.00,+2.00,-1.00,-2.00,+1.00,-4.00,+0.00,-3.00,-1.00,+1.00,-3.00,-2.00,-7.00,-1.00,-2.00,-1.00
+6.00,-6.00,-3.00,-2.00,-1.00,-2.00,+0.00,-3.00,+1.00,+1.00,-1.00,+1.00,-3.00,-2.00,-1.00,+2.00
-8.00,-1.00,+0.00,-2.00,+0.00,-3.00,+0.00,-2.00,-14.00,-14.00,-4.00,-1.00,+0.00,+23.00,+0.00,-4.00
+19.00,+1.00,+1.00,+2.00,+0.00,+0.00,-2.00,-26.00,+5.00,+1.00,-2.00,+0.00,+0.00,-55.00,+1.00,+1.00
+5.00,-3.00,+0.00,-1.00,-3.00,+1.00,-1.00,+16.00,-18.00,-7.00,-3.00,-1.00,+0.00,+24.00,-5.00,-3.00
-14.00,-2.00,-5.00,-1.00,+0.00,-4.00,-1.00,+1.00,+20.00,+5.00,+2.00,-2.00,-1.00,-3.00,+0.00,+3.00
+1.00,-11.00,-1.00,-1.00,-3.00,+0.00,+0.00,+0.00,-1.00,+1.00,-3.00,+1.00,+2.00,+4.00,-2.00,+2.00
+20.00,+8.00,+0.00,-2.00,-3.00,+6.00,-3.00,+2.00,-6.00,-2.00,-1.00,-1.00,+3.00,+13.00,-2.00,+0.00
-22.00,+7.00,+2.00,+2.00,+1.00,-22.00,-1.00,-12.00,-4.00,-1.00,+0.00,-1.00,+2.00,-15.00,+2.00,-3.00
+0.00,-7.00,-1.00,-2.00,-2.00,+2.00,+0.00,-5.00,-8.00,-1.00,-2.00,-1.00,-7.00,-19.00,-5.00,-3.00
-1.00,-23.00,-4.00,+0.00,+0.00,-2.00,-1.00,-1.00,+5.00,-2.00,-3.00,+0.00,-2.00,-6.00,-2.00,-1.00
-5.00,-3.00,-1.00,-1.00,+3.00,+7.00,+0.00,+2.00,+0.00,+2.00,-2.00,-1.00,+82.00,+12.00,+1.00,-3.00
-6.00,+27.00,+3.00,-1.00,+0.00,+5.00,-2.00,-1.00,-2.00,+3.00,+0.00,-1.00,-54.00,-2.00,-3.00,-3.00
+8.00,-7.00,+0.00,+0.00,-1.00,-4.00,-3.00,+3.00,-9.00,-2.00,-2.00,+0.00,-5.00,+2.00,+0.00,+1.00
-6.00,+5.00,-4.00,-3.00,-1.00,+0.00,+1.00,-8.00,+12.00,+5.00,+1.00,+0.00,-13.00,-16.00,-3.00,+0.00
-16.00,-13.00,-1.00,-2.00,-2.00,-5.00,+3.00,+11.00,+3.00,+3.00,+0.00,-1.00,-1.00,+12.00,+2.00,+1.00
-8.00,-21.00,-3.00,+0.00,-1.00,+3.00,-1.00,-1.00,-2.00,-2.00,+2.00,+1.00,+22.00,+27.00,-2.00,-3.00
+9.00,+7.00,+0.00,+0.00,-1.00,-13.00,-4.00,-2.00,-1.00,+0.00,+1.00,+0.00,-3.00,-26.00,+1.00,+3.00
-1.00,-4.00,+0.00,-1.00,-3.00,-11.00,-5.00,+4.00,-5.00,+0.00,-3.00,-2.00,+0.00,-5.00,-1.00,-5.00
-1.00,+4.00,-4.00,-2.00,-2.00,+6.00,+0.00,-2.00,+1.00,-3.00,-2.00,+1.00,-19.00,+7.00,+2.00,+3.00
-5.00,+0.00,-2.00,-2.00,+1.00,+3.00,-1.00,-25.00,+9.00,+3.00,+1.00,+1.00,+10.00,-6.00,+1.00,-2.00
+21.00,-5.00,-1.00,+0.00,-4.00,+16.00,+2.00,+11.00,-3.00,+1.00,+0.00,-2.00,-9.00,+7.00,-4.00,-7.00
-2.00,+5.00,-2.00,-1.00,+1.00,-20.00,-8.00,+2.00,-14.00,-5.00,+0.00,-1.00,+7.00,+4.00,+4.00,+3.00
+29.00,+6.00,+1.00,+0.00,-2.00,-5.00,+2.00,+11.00,+4.00,+2.00,+1.00,-2.00,-20.00,+2.00,-5.00,-3.00
-7.00,-10.00,-1.00,+0.00,+0.00,+44.00,+5.00,+4.00,-1.00,-3.00,+1.00,-1.00,+0.00,-7.00,+0.00,+1.00
+0.00,-10.00,-1.00,+0.00,+0.00,-7.00,-3.00,-3.00,+4.00,+4.00,+1.00,-2.00,+15.00,+17.00,+1.00,-5.00
+11.00,+16.00,+2.00,+0.00,-4.00,+2.00,+3.00,-1.00,+6.00,+5.00,-1.00,-1.00,-1.00,+8.00,-2.00,+4.00
-3.00,+16.00,+1.00,+2.00,+1.00,-8.00,-2.00,-7.00,-25.00,-21.00,-3.00,-1.00,-16.00,-20.00,-4.00,-6.00
-1.00,+0.00,-1.00,-3.00,-3.00,-6.00,-4.00,-15.00,+2.00,-1.00,-4.00,-2.00,+6.00,-5.00,+1.00,+1.00
+17.00,-5.00,-2.00,+0.00,+1.00,+4.00,-1.00,+9.00,-6.00,-11.00,-7.00,+0.00,-4.00,-9.00,-4.00,-2.00
-38.00,-5.00,-2.00,-3.00,+0.00,+11.00,+3.00,+0.00,+10.00,+7.00,+0.00,-1.00,+0.00,+3.00,-1.00,-2.00
-16.00,-22.00,-4.00,-3.00,-3.00,+3.00,-3.00,+0.00,-17.00,-6.00,-5.00,-1.00,-18.00,+11.00,+2.00,-8.00
+18.00,+25.00,+1.00,+1.00,-1.00,-10.00,-1.00,+2.00,+25.00,+4.00,+0.00,-3.00,+2.00,-9.00,+1.00,+6.00
+5.00,+1.00,-1.00,-3.00,-1.00,-1.00,+3.00,+0.00,-3.00,-2.00,-5.00,-3.00,+5.00,+0.00,-6.00,-7.00
+7.00,+8.00,+2.00,-1.00,+0.00,+0.00,-1.00,+2.00,+8.00,+6.00,+2.00,+0.00,+33.00,-32.00,+0.00,+28.00
-12.00,-53.00,-4.00,-3.00,-3.00,-6.00,+0.00,-2.00,+8.00,+5.00,+1.00,-3.00,-64.00,+14.00,-7.00,+5.00
-4.00,+12.00,+0.00,-1.00,-2.00,-6.00,-9.00,+6.00,-11.00,-27.00,-3.00,+0.00,-3.00,+14.00,+6.00,-3.00
+3.00,+50.00,+8.00,+1.00,-1.00,-1.00,+1.00,-4.00,-7.00,+29.00,+1.00,-2.00,+2.00,-3.00,+4.00,+0.00
+2.00,+5.00,+0.00,+1.00,+0.00,+4.00,-2.00,+0.00,-20.00,-12.00,-1.00,+0.00,-4.00,-13.00,-5.00,-15.00
+2.00,+9.00,+0.00,+0.00,+0.00,+11.00,+3.00,-2.00,+25.00,+5.00,+3.00,-1.00,+8.00,-8.00,-3.00,+1.00
-3.00,-52.00,-4.00,-1.00,-1.00,+13.00,+1.00,+7.00,+9.00,+31.00,-1.00,+0.00,+3.00,+10.00,+11.00,+14.00
-27.00,-5.00,-2.00,-1.00,+3.00,+2.00,-7.00,-8.00,-36.00,-27.00,+0.00,+2.00,-10.00,+25.00,-13.00,-7.00
+28.00,+9.00,-2.00,+1.00,-1.00,+4.00,+1.00,-3.00,-3.00,-37.00,-5.00,-2.00,-1.00,-38.00,-12.00,-1.00
-10.00,-15.00,-3.00,-2.00,-1.00,-4.00,-2.00,-2.00,-2.00,+6.00,+0.00,+0.00,+50.00,+11.00,+11.00,-3.00
+20.00,+22.00,-3.00,-3.00,+0.00,-8.00,+5.00,+6.00,+14.00,-10.00,+0.00,-2.00,-11.00,+21.00,+43.00,+0.00
-29.00,-40.00,-2.00,-2.00,+2.00,+0.00,-1.00,-12.00,+40.00,+73.00,+7.00,-1.00,+5.00,+4.00,+2.00,+13.00
+20.00,+14.00,+0.00,+0.00,-2.00,-9.00,-8.00,-7.00,-27.00,-19.00,-3.00,+2.00,-18.00,+42.00,-2.00,-14.00
-9.00,+57.00,-2.00,-1.00,-1.00,-18.00,-5.00,+13.00,-3.00,+1.00,-6.00,+0.00,+15.00,-22.00,-8.00,-25.00
+13.00,-8.00,+6.00,+1.00,+1.00,+46.00,+2.00,+9.00,-16.00,+19.00,+1.00,+0.00,+16.00,+10.00,-7.00,+8.00
-17.00,-100.00,-17.00,-5.00,-3.00,-12.00,-5.00,-5.00,+7.00,-20.00,+0.00,-1.00,+56.00,+25.00,-2.00,+9.00
-6.00,+0.00,-7.00,-3.00,-2.00,+2.00,-53.00,-13.00,+11.00,+21.00,-2.00,+0.00,+26.00,-7.00,+16.00,+9.00
+16.00,-3.00,+19.00,+3.00,+4.00,+9.00,+29.00,+1.00,+6.00,-43.00,+1.00,-1.00,-20.00,-24.00,-8.00,+1.00
-15.00,+89.00,-1.00,-2.00,-1.00,-9.00,+33.00,+1.00,+31.00,+3.00,-8.00,-8.00,+11.00,-16.00,-35.00,-27.00
+0.00,-24.00,+6.00,+1.00,-2.00,-27.00,-14.00,-4.00,-28.00,-8.00,-6.00,-6.00,-31.00,-79.00,-99.00,-2.00
-30.00,-23.00,-8.00,-1.00,+0.00,+8.00,-7.00,-6.00,+17.00,-3.00,+4.00,+4.00,-78.00,-21.00,+48.00,+1.00
-6.00,-4.00,-22.00,-6.00,-1.00,+4.00,-11.00,-9.00,+11.00,+50.00,+11.00,+5.00,+1.00,+73.00,-56.00,+2.00
-3.00,-46.00,+8.00,+1.00,+0.00,-3.00,+15.00,+25.00,-16.00,-21.00,-7.00,+6.00,-8.00,-75.00,+73.00,+10.00
-17.00,-1.00,+4.00,+0.00,-3.00,+12.00,-28.00,+3.00,-27.00,-63.00,-3.00,+1.00,+73.00,+8.00,+15.00,-19.00
-8.00,+34.00,+2.00,+0.00,-2.00,-9.00,+21.00,-3.00,-5.00,-40.00,+2.00,-11.00,-77.00,+0.00,+30.00,+1.00
-10.00,+11.00,+7.00,-1.00,-4.00,+0.00,-31.00,-15.00,-6.00,+79.00,+7.00,-10.00,+35.00,-37.00,+29.00,-13.00
-9.00,-59.00,-15.00,-6.00,-23.00,-14.00,-8.00,+0.00,+28.00,+13.00,-2.00,-4.00,-40.00,+8.00,-54.00,+6.00
+16.00,+122.00,+3.00,+1.00,+18.00,-47.00,+20.00,-17.00,+28.00,-46.00,+0.00,+0.00,-12.00,-28.00,+16.00,-6.00
-24.00,-123.00,-4.00,-3.00,-5.00,+45.00,+6.00,+11.00,-86.00,+7.00,-12.00,+5.00,+24.00,+23.00,+6.00,-2.00
+41.00,+103.00,-2.00,-2.00,+4.00,-37.00,-35.00,-9.00,-16.00,+42.00,+16.00,+5.00,+27.00,+86.00,-18.00,+24.00
+1.00,-48.00,+9.00,+8.00,+9.00,+12.00,-21.00,+38.00,+81.00,+27.00,-11.00,-1.00,-3.00,-44.00,+27.00,-32.00
+3.00,-76.00,-6.00,+0.00,-4.00,+16.00,-84.00,-1.00,-68.00,-10.00,-2.00,+2.00,-41.00,-25.00,-4.00,+7.00
+2.00,+92.00,+13.00,-1.00,-9.00,-5.00,+76.00,-28.00,-30.00,-31.00,-2.00,-6.00,+66.00,+37.00,+6.00,-45.00
+22.00,-10.00,-2.00,+1.00,-17.00,-6.00,+53.00,+9.00,+63.00,-20.00,-6.00,-4.00,-21.00,-80.00,+40.00,-16.00
-17.00,+26.00,-14.00,-2.00,+1.00,-3.00,-59.00,-10.00,-61.00,+11.00,-3.00,+5.00,+29.00,+77.00,-3.00,-5.00
+14.00,+12.00,+9.00,+1.00,+10.00,-1.00,+88.00,-6.00,+70.00,+44.00,+5.00,-6.00,-103.00,-48.00,-3.00,-2.00
+19.00,-75.00,-12.00,-2.00,+5.00,-18.00,-115.00,+31.00,-11.00,-10.00,+4.00,+3.00,+26.00,-15.00,-80.00,+10.00
-73.00,-77.00,-13.00,-4.00,-2.00,-10.00,+62.00,+6.00,-60.00,-36.00,-15.00,+2.00,+42.00,+3.00,+46.00,-3.00
+14.00,-27.00,+26.00,+4.00,+5.00,-5.00,+3.00,-1.00,-18.00,-53.00,-4.00,+0.00,-48.00,-12.00,-32.00,-6.00
-19.00,+24.00,-12.00,-2.00,-8.00,+34.00,+8.00,-13.00,+57.00,+83.00,-1.00,-14.00,+94.00,+62.00,+36.00,+30.00
-54.00,-60.00,+11.00,+0.00,-3.00,-10.00,-12.00,-61.00,+6.00,-4.00,-2.00,-2.00,-99.00,-28.00,-41.00,-25.00
+116.00,-15.00,+10.00,+4.00,+0.00,-15.00,-4.00,+93.00,+55.00,+6.00,+6.00,+7.00,+2.00,+60.00,+4.00,+54.00
-2.00,+21.00,+2.00,-4.00,-10.00,-61.00,+15.00,-56.00,-81.00,-82.00,-10.00,-12.00,-39.00,+60.00,+19.00,+8.00
-10.00,-27.00,-24.00,-9.00,+1.00,+67.00,+27.00,+25.00,-94.00,+60.00,+20.00,+12.00,-16.00,-2.00,+29.00,-3.00
+40.00,+63.00,+36.00,+4.00,+0.00,+33.00,-11.00,+18.00,+31.00,+16.00,-12.00,-8.00,-24.00,+8.00,-46.00,+6.00
+13.00,-113.00,-13.00,+0.00,+10.00,+7.00,-13.00,-14.00,+66.00,+95.00,+5.00,+7.00,-76.00,-22.00,-53.00,-5.00
+34.00,+103.00,+12.00,+5.00,+11.00,-22.00,+16.00,+48.00,-20.00,-63.00,+9.00,-5.00,+0.00,-14.00,-39.00,+14.00
+58.00,-22.00,+8.00,+0.00,-11.00,-39.00,+21.00,+0.00,+71.00,+20.00,-8.00,-3.00,+48.00,+19.00,-44.00,+24.00
-17.00,-14.00,-24.00,-5.00,-7.00,-7.00,+11.00,-19.00,-62.00,-67.00,-2.00,-10.00,-2.00,-60.00,+51.00,-6.00
-61.00,-95.00,-26.00,-8.00,-5.00,+20.00,-12.00,-69.00,-14.00,-128.00,-6.00,-1.00,+60.00,+23.00,+30.00,+19.00
-13.00,+59.00,-5.00,-6.00,-3.00,+13.00,-43.00,+34.00,-38.00,+59.00,+6.00,+8.00,+4.00,+14.00,-9.00,-36.00
-49.00,-97.00,-27.00,-11.00,-16.00,-50.00,-70.00,-71.00,+67.00,+39.00,-9.00,-2.00,-40.00,+17.00,-65.00,-43.00
+41.00,+75.00,+31.00,+7.00,+5.00,+70.00,-2.00,+116.00,+103.00,+97.00,+8.00,+4.00,+33.00,+95.00,+16.00,+51.00
+9.00,-22.00,+27.00,+14.00,+19.00,-63.00,-47.00,-43.00,-40.00,-101.00,-21.00,+0.00,+48.00,-100.00,-100.00,-7.00
+18.00,-50.00,-2.00,-5.00,-1.00,+42.00,+116.00,-39.00,+25.00,+2.00,+16.00,+1.00,+127.00,+25.00,+89.00,-24.00
+2.00,+49.00,-9.00,-6.00,-30.00,-21.00,+65.00,+35.00,-75.00,-55.00,-21.00,-4.00,-46.00,-61.00,+9.00,-13.00
-36.00,-58.00,-18.00,-5.00,+8.00,-33.00,-9.00,-31.00,+12.00,-30.00,+0.00,-1.00,+49.00,+29.00,-41.00,-30.00
-63.00,-42.00,-35.00,-15.00,-9.00,+63.00,+20.00,-32.00,-61.00,+2.00,-5.00,-13.00,-108.00,-42.00,+6.00,+13.00
+51.00,+77.00,+30.00,+6.00,+15.00,-10.00,-23.00,+1.00,+56.00,+122.00,+8.00,+2.00,+45.00,+45.00,-29.00,+49.00
+18.00,-61.00,+12.00,+6.00,+1.00,+0.00,-36.00,+31.00,-14.00,-83.00,-10.00,+1.00,+83.00,+3.00,+69.00,-2.00
-35.00,-33.00,-10.00,-3.00,-13.00,-36.00,+47.00,-40.00,+59.00,+103.00,+3.00,+1.00,-24.00,-72.00,-49.00,-2.00
-29.00,-38.00,-14.00,-4.00,+0.00,+32.00,-30.00,+3.00,-16.00,-63.00,-8.00,-5.00,-20.00,+55.00,+46.00,-7.00
-55.00,-56.00,-28.00,-8.00,-6.00,-22.00,-25.00,+23.00,-73.00,+34.00,-1.00,+5.00,-34.00,-76.00,-75.00,-15.00
+6.00,-75.00,-2.00,-2.00,-2.00,-8.00,+34.00,+10.00,+89.00,+40.00,-9.00,-4.00,+24.00,+107.00,+75.00,-28.00
+10.00,+32.00,+7.00,+7.00,+2.00,-1.00,+7.00,-9.00,-100.00,-52.00,-8.00,+5.00,-68.00,-97.00,-75.00,-12.00
+18.00,+127.00,+8.00,-7.00,+0.00,+23.00,-21.00,-12.00,+39.00,+50.00,+17.00,+0.00,+2.00,-30.00,+105.00,-7.00
+91.00,-54.00,+1.00,+5.00,+1.00,+4.00,+12.00,-55.00,+2.00,+10.00,-8.00,-3.00,-24.00,+80.00,+41.00,-64.00
-36.00,+121.00,+22.00,+4.00,+8.00,-13.00,-37.00,-4.00,-62.00,-73.00,+1.00,+5.00,-2.00,-5.00,-71.00,+11.00
-51.00,-123.00,-42.00,-6.00,-1.00,+4.00,+33.00,+26.00,-36.00,-77.00,-11.00,-9.00,+9.00,+56.00,-15.00,-9.00
+7.00,+127.00,+22.00,-3.00,-14.00,-48.00,+7.00,+7.00,-8.00,+96.00,+4.00,+3.00,+99.00,+60.00,-8.00,-17.00
-50.00,-119.00,-19.00,-5.00,-5.00,+24.00,-54.00,-65.00,+1.00,+67.00,+1.00,-1.00,-52.00,-98.00,-31.00,+31.00
-39.00,+125.00,-7.00,-4.00,-3.00,+37.00,-26.00,+1.00,-13.00,+66.00,+4.00,-11.00,+39.00,+5.00,-57.00,-12.00
+76.00,+97.00,+44.00,+14.00,+17.00,-75.00,+68.00,+19.00,+21.00,-31.00,+13.00,+1.00,-61.00,-9.00,+97.00,+14.00
-61.00,-111.00,-29.00,-7.00,-4.00,+64.00,-15.00,-41.00,+79.00,+39.00,-2.00,-1.00,+31.00,+24.00,+10.00,-9.00
+26.00,-19.00,+42.00,+13.00,+10.00,-40.00,+44.00,+76.00,-45.00,-94.00,+0.00,-2.00,+21.00,+20.00,-9.00,+75.00
-21.00,-128.00,-20.00,-2.00,+9.00,+2.00,-29.00,-15.00,-65.00,-85.00,-4.00,+2.00,-127.00,-100.00,+44.00,+26.00
+4.00,+85.00,+3.00,-6.00,-21.00,-11.00,+12.00,-43.00,+60.00,+53.00,-7.00,-1.00,+62.00,+59.00,-31.00,-11.00
-3.00,-104.00,+9.00,+5.00,+11.00,-18.00,-2.00,+107.00,-18.00,+2.00,-4.00,-2.00,-80.00,-4.00,-12.00,-29.00
-15.00,-38.00,-23.00,-11.00,-11.00,+36.00,-47.00,-5.00,+64.00,+3.00,-1.00,-6.00,-69.00,+13.00,-29.00,+20.00
+14.00,+57.00,+9.00,+1.00,-10.00,+33.00,+74.00,+43.00,-56.00,-50.00,+10.00,+5.00,-86.00,+27.00,+127.00,+31.00
-48.00,-42.00,-24.00,-6.00,+3.00,-7.00,-27.00,-75.00,+74.00,+55.00,+2.00,+6.00,+27.00,-39.00,-67.00,-13.00
+69.00,-37.00,-12.00,-6.00,-8.00,+26.00,+48.00,+15.00,-61.00,+88.00,-5.00,+4.00,+79.00,+42.00,+77.00,-21.00
-54.00,+9.00,-9.00,+1.00,+1.00,-19.00,-22.00,-54.00,+104.00,-100.00,+1.00,-5.00,+45.00,+90.00,-52.00,+16.00
-62.00,-12.00,-7.00,-2.00,-11.00,-46.00,-18.00,-39.00,-106.00,+10.00,+10.00,+7.00,+96.00,-69.00,-33.00,-14.00
+123.00,+6.00,+55.00,+18.00,+14.00,+57.00,-16.00,+77.00,+67.00,+102.00,+4.00,+0.00,+86.00,+52.00,+56.00,+4.00
-45.00,+68.00,+25.00,+7.00,+8.00,-9.00,+11.00,-16.00,-15.00,-101.00,-13.00,-10.00,-64.00,-105.00,-108.00,+3.00
-31.00,-78.00,-17.00,-4.00,+7.00,+39.00,-62.00,+16.00,+56.00,+22.00,+6.00,+0.00,+30.00,+76.00,+73.00,-18.00
+107.00,+98.00,+7.00,+0.00,+0.00,-19.00,+42.00,+19.00,+24.00,-62.00,-7.00,+7.00,-75.00,-113.00,-75.00,+15.00
-51.00,-58.00,-40.00,-16.00,-1.00,+1.00,-66.00,+11.00,+39.00,+80.00,+17.00,-3.00,+43.00,+46.00,+78.00,+24.00
+8.00,-46.00,+3.00,+3.00,-1.00,-84.00,+34.00,-60.00,-36.00,-128.00,-9.00,-2.00,+3.00,-6.00,-1.00,-3.00
-63.00,-49.00,+24.00,+13.00,+9.00,-10.00,-25.00,+37.00,+69.00,+104.00,+15.00,+3.00,+10.00,-53.00,-16.00,+15.00
-28.00,-128.00,-2.00,+1.00,+4.00,+24.00,+46.00,-11.00,-61.00,-89.00,-8.00,-5.00,-59.00,+68.00,-12.00,-27.00
-1.00,+78.00,-1.00,+1.00,+5.00,+10.00,+10.00,+11.00,+5.00,-23.00,+0.00,+6.00,+84.00,+48.00,+12.00,-23.00
+92.00,-5.00,+21.00,+11.00,+9.00,+59.00,-41.00,+85.00,+1.00,+103.00,+4.00,-2.00,-54.00,-42.00,-91.00,+31.00
-68.00,-57.00,-36.00,-14.00,-16.00,-5.00,+33.00,-32.00,-60.00,-90.00,-1.00,+9.00,-59.00,-47.00,+22.00,-60.00
+33.00,+56.00,+8.00,-3.00,+9.00,-48.00,-31.00,+6.00,+8.00,+127.00,-9.00,-5.00,+41.00,+45.00,-34.00,-4.00
-60.00,-43.00,-26.00,-6.00,-2.00,+49.00,-27.00,+20.00,-20.00,-128.00,-21.00,-7.00,-100.00,-97.00,-28.00,-20.00
-1.00,+27.00,+19.00,+9.00,+6.00,-25.00,+0.00,-10.00,-46.00,+101.00,+7.00,-2.00,-15.00,+65.00,-60.00,-7.00
+94.00,+127.00,+3.00,+0.00,-2.00,-18.00,+38.00,-37.00,-36.00,+6.00,-2.00,-4.00,+13.00,-70.00,-6.00,+5.00
+23.00,+42.00,+6.00,+1.00,+1.00,+31.00,+2.00,+27.00,-9.00,-34.00,-2.00,-3.00,+6.00,+73.00,-10.00,-28.00
-45.00,-128.00,-36.00,-8.00,-10.00,-32.00,+2.00,-15.00,-52.00,-128.00,-4.00,+1.00,+43.00,-104.00,+24.00,+48.00
+15.00,+127.00,+46.00,+9.00,-3.00,+15.00,+19.00,-5.00,-2.00,+16.00,-7.00,-6.00,+79.00,-12.00,-53.00,-40.00
-12.00,-52.00,-19.00,-7.00,-11.00,-19.00,-4.00,-55.00,+27.00,+3.00,-1.00,+3.00,-40.00,-42.00,+42.00,+13.00
-62.00,-63.00,-6.00,-1.00,+6.00,-33.00,+58.00,-47.00,+3.00,-22.00,-2.00,-5.00,+32.00,+19.00,+9.00,+20.00
+45.00,-43.00,+11.00,+4.00,+8.00,-38.00,-60.00,+78.00,-31.00,+105.00,+7.00,+0.00,+67.00,+103.00,-46.00,+20.00
-39.00,+27.00,-20.00,-9.00,-6.00,-7.00,-6.00,-36.00,-24.00,+16.00,+8.00,+5.00,-128.00,-24.00,+48.00,-47.00
-16.00,+95.00,-3.00,-10.00,-14.00,-55.00,+16.00,+42.00,+9.00,+24.00,-21.00,-15.00,-22.00,-27.00,+33.00,-64.00
+12.00,-110.00,+3.00,+7.00,+21.00,+103.00,+32.00,-50.00,+15.00,+112.00,+14.00,+4.00,+127.00,+93.00,+93.00,+0.00
-4.00,+55.00,+13.00,+4.00,+1.00,-9.00,+76.00,-40.00,-21.00,+15.00,+9.00,-3.00,-104.00,-112.00,-74.00,-35.00
-18.00,+73.00,+10.00,+3.00,-1.00,-48.00,-9.00,-44.00,+85.00,-90.00,-16.00,-2.00,-31.00,+2.00,-38.00,+49.00
+3.00,-6.00,-15.00,-1.00,+2.00,+113.00,+31.00,+49.00,-67.00,+41.00,-7.00,+1.00,-20.00,+87.00,+63.00,-3.00
-78.00,+26.00,-9.00,-7.00,-6.00,-1.00,-105.00,-16.00,-24.00,-51.00,-1.00,-12.00,-92.00,-93.00,-61.00,+0.00
+36.00,-86.00,+13.00,+3.00,+7.00,-38.00,+20.00,+19.00,-31.00,-18.00,-8.00,-11.00,+23.00,-20.00,+58.00,+4.00
-86.00,-109.00,-43.00,-10.00,+1.00,+60.00,-14.00,-23.00,+33.00,+53.00,+19.00,+6.00,+81.00,+87.00,+39.00,+50.00
+71.00,+98.00,+24.00,+4.00,-4.00,-27.00,-25.00,-104.00,-44.00,-42.00,-8.00,-4.00,-18.00,-77.00,-32.00,-10.00
+60.00,-106.00,-9.00,+4.00,+16.00,+12.00,+6.00,+37.00,+114.00,+18.00,+11.00,+2.00,-25.00,+27.00,-128.00,+17.00
-1.00,-77.00,+2.00,-8.00,-8.00,+10.00,-14.00,+26.00,-42.00,-77.00,-11.00,+0.00,+11.00,+38.00,+111.00,-18.00
+32.00,+24.00,-11.00,-2.00,-26.00,-31.00,+31.00,+55.00,+65.00,+52.00,-7.00,-5.00,+46.00,+3.00,+60.00,+3.00
+21.00,+0.00,-1.00,+6.00,+28.00,-74.00,-42.00,-23.00,-51.00,-30.00,+10.00,+2.00,+16.00,-15.00,-23.00,+21.00
-2.00,-9.00,-16.00,-5.00,+0.00,+50.00,+30.00,-49.00,-7.00,-8.00,-9.00,+4.00,+118.00,-37.00,+44.00,-10.00
+44.00,+11.00,+11.00,-4.00,-20.00,-7.00,-21.00,-42.00,+7.00,+90.00,+10.00,-1.00,-70.00,+50.00,-97.00,-2.00
+0.00,+20.00,-23.00,-5.00,+9.00,-15.00,+29.00,+12.00,+34.00,-33.00,-4.00,+0.00,+107.00,+39.00,+64.00,+56.00
-10.00,-90.00,+19.00,+9.00,+4.00,-47.00,+10.00,+127.00,+28.00,+29.00,-14.00,-2.00,-12.00,-55.00,-27.00,-15.00
+14.00,+127.00,+33.00,+11.00,+7.00,+6.00,-7.00,+3.00,-4.00,+94.00,+18.00,+2.00,+44.00,+75.00,-7.00,+36.00
+80.00,-23.00,-2.00,-2.00,+1.00,+25.00,+19.00,-35.00,-19.00,-17.00,+10.00,+8.00,-103.00,-92.00,+11.00,-4.00
-1.00,-122.00,-12.00,-5.00,-3.00,-13.00,+11.00,-3.00,-16.00,-55.00,+0.00,-2.00,+31.00,+42.00,-73.00,-37.00
-37.00,-48.00,-14.00,-12.00,-10.00,+31.00,+40.00,-60.00,+22.00,+42.00,+3.00,+1.00,+85.00,+1.00,+69.00,+36.00
-64.00,-83.00,-12.00,-5.00,-8.00,-40.00,-89.00,-72.00,+21.00,-123.00,-13.00,-6.00,-12.00,-24.00,-15.00,-2.00
-12.00,+127.00,+20.00,+10.00,+4.00,-17.00,+72.00,+51.00,+1.00,+108.00,-8.00,-2.00,+44.00,+66.00,-10.00,+19.00
+24.00,-12.00,+16.00,+3.00,-12.00,-12.00,-18.00,+79.00,-84.00,-15.00,+17.00,+4.00,-30.00,-44.00,+53.00,+2.00
-59.00,-58.00,-30.00,-6.00,+1.00,-16.00,-33.00,-30.00,-47.00,-90.00,-14.00,-11.00,+95.00,-55.00,-56.00,-4.00
+53.00,+21.00,+7.00,+1.00,-13.00,-59.00,+2.00,+7.00,+102.00,+41.00,-10.00,+0.00,-32.00,+69.00,+60.00,+9.00
+6.00,-5.00,-19.00,-5.00,+6.00,-23.00,-5.00,+10.00,+15.00,+76.00,+3.00,-5.00,+112.00,-108.00,-46.00,-10.00
+16.00,-78.00,-24.00,-3.00,+8.00,+63.00,-27.00,-11.00,-49.00,-14.00,+5.00,-5.00,+2.00,-68.00,-15.00,-13.00
+56.00,+125.00,+59.00,+22.00,+27.00,-10.00,+64.00,+70.00,-24.00,-14.00,+5.00,+9.00,+71.00,+54.00,+6.00,-9.00
+42.00,-50.00,+3.00,+1.00,-4.00,+8.00,+2.00,+5.00,+31.00,+108.00,+0.00,+3.00,-74.00,-69.00,+9.00,+2.00
-63.00,+19.00,-23.00,-9.00,-6.00,+23.00,-64.00,-66.00,-33.00,-30.00,-1.00,-3.00,+64.00,+126.00,+8.00,+15.00
-9.00,+69.00,+12.00,-1.00,+1.00,-21.00,+1.00,-25.00,+10.00,-85.00,-5.00,-2.00,+15.00,-124.00,-22.00,-54.00
-56.00,-46.00,-36.00,-14.00,-20.00,-2.00,+13.00,+0.00,+69.00,+83.00,-5.00,-3.00,+16.00,+42.00,-7.00,+56.00
+72.00,+125.00,+20.00,+3.00,-5.00,-20.00,+47.00,-50.00,-15.00,+37.00,+3.00,-2.00,+20.00,-35.00,+80.00,-44.00
+25.00,-14.00,-2.00,+1.00,+5.00,+15.00,+53.00,+95.00,-60.00,-110.00,-10.00,+2.00,+93.00,+108.00,+62.00,+17.00
-85.00,-107.00,-21.00,-13.00,-18.00,-50.00,-44.00,-91.00,-48.00,-40.00,-2.00,-11.00,-35.00,-95.00,-68.00,-39.00
-40.00,-84.00,-13.00,-5.00,-9.00,+22.00,-9.00,-26.00,+17.00,+1.00,+20.00,+6.00,+47.00,+102.00,-9.00,+11.00
+29.00,+75.00,-1.00,-2.00,-13.00,-46.00,+16.00,+39.00,-122.00,-68.00,+5.00,+5.00,-67.00,-17.00,-128.00,-75.00
+19.00,+90.00,+17.00,+3.00,-2.00,+57.00,-15.00,-24.00,+59.00,-50.00,-17.00,-7.00,-15.00,-45.00,+55.00,+37.00
-8.00,-64.00,+7.00,+5.00,+7.00,-41.00,-38.00,-15.00,+10.00,+73.00,-12.00,-2.00,+25.00,+41.00,-51.00,+1.00
+10.00,+63.00,+11.00,+0.00,-6.00,-8.00,-47.00,-36.00,-5.00,+62.00,+8.00,-1.00,+5.00,-30.00,-24.00,+17.00
-46.00,+47.00,-9.00,-7.00,-1.00,-13.00,-29.00,-29.00,+6.00,-57.00,-9.00,-4.00,+38.00,+24.00,+115.00,+17.00
-7.00,-62.00,-16.00,-9.00,-11.00,-51.00,-18.00,+23.00,+73.00,+83.00,+0.00,+1.00,+72.00,-47.00,-51.00,-76.00
+26.00,-51.00,+8.00,+5.00,+2.00,+19.00,+7.00,-2.00,-74.00,-88.00,+3.00,+5.00,+69.00,+95.00,+18.00,+32.00
+26.00,+8.00,+18.00,+1.00,-23.00,-15.00,-31.00,-84.00,+50.00,-5.00,-9.00,-6.00,+16.00,+4.00,-68.00,-35.00
-8.00,-120.00,-17.00,+3.00,+28.00,+44.00,+52.00,+99.00,-86.00,+5.00,+6.00,+2.00,+71.00,-3.00,+35.00,+40.00
-18.00,+117.00,+11.00,+0.00,+2.00,+14.00,+9.00,-56.00,+4.00,+17.00,+10.00,+13.00,+32.00,+39.00,-5.00,+31.00
+55.00,-19.00,+7.00,+8.00,+9.00,-28.00,+87.00,-27.00,-1.00,-49.00,-11.00,-2.00,-52.00,-113.00,-8.00,+10.00
-20.00,-113.00,+7.00,-9.00,-2.00,+23.00,-2.00,-34.00,-9.00,+25.00,+14.00,+4.00,+23.00,+7.00,+28.00,-43.00
-1.00,-66.00,-9.00,-10.00,-14.00,+11.00,-12.00,+28.00,+51.00,-50.00,-1.00,-8.00,+35.00,+16.00,+4.00,+49.00
-15.00,-31.00,+4.00,+9.00,+4.00,-29.00,-24.00,-10.00,-10.00,-24.00,-6.00,-1.00,-102.00,-35.00,-85.00,-46.00
-29.00,+19.00,-10.00,-3.00,-3.00,-21.00,-12.00,-95.00,-4.00,-1.00,+4.00,+6.00,+33.00,+83.00,+29.00,+42.00
+4.00,-76.00,-18.00,-3.00,-6.00,+15.00,-18.00,+109.00,-69.00,-43.00,-6.00,-4.00,-38.00,-65.00,+84.00,-1.00
+19.00,+80.00,+14.00,+6.00,-1.00,+27.00,-29.00,-70.00,+43.00,+42.00,-2.00,-2.00,+25.00,+0.00,+5.00,-22.00
-23.00,-56.00,-19.00,-5.00,-6.00,+9.00,+4.00,+8.00,-3.00,-22.00,+1.00,+5.00,+27.00,+6.00,-6.00,-3.00
+84.00,+121.00,+56.00,+12.00,+7.00,+11.00,+4.00,+16.00,+8.00,+21.00,+6.00,-1.00,-1.00,+31.00,-10.00,+2.00
-45.00,-97.00,-7.00,+2.00,-11.00,-6.00,+20.00,-53.00,-13.00,-30.00,-14.00,-10.00,-52.00,-109.00,-96.00,-40.00
+9.00,-57.00,-10.00,-2.00,+10.00,-39.00,+9.00,+20.00,-19.00,-25.00,-17.00,+2.00,+30.00,-2.00,-22.00,+8.00
+21.00,-44.00,-1.00,+8.00,+2.00,-29.00,+30.00,+58.00,+6.00,+75.00,-6.00,-5.00,+31.00,-26.00,+94.00,+0.00
-32.00,+50.00,-20.00,-9.00,-11.00,+26.00,-39.00,-86.00,+11.00,+0.00,+1.00,-3.00,-73.00,-5.00,-22.00,+16.00
+20.00,+116.00,-1.00,-1.00,+18.00,+40.00,+56.00,+66.00,-17.00,+18.00,+32.00,+10.00,-7.00,+52.00,-2.00,-2.00
-26.00,-108.00,+13.00,+2.00,-3.00,+6.00,-54.00,-15.00,+15.00,-28.00,-15.00,-9.00,+120.00,-10.00,-24.00,-23.00
+4.00,+93.00,-6.00,-8.00,-7.00,-35.00,+15.00,-91.00,+8.00,-31.00,-31.00,-4.00,-58.00,-13.00,-13.00,+47.00
-23.00,+47.00,-27.00,-7.00,-2.00,+0.00,-28.00,+74.00,-2.00,+24.00,+5.00,-2.00,+31.00,+61.00,+7.00,-17.00
+60.00,-16.00,+28.00,+4.00,-2.00,-14.00,+31.00,-3.00,-6.00,+70.00,+23.00,-4.00,+12.00,-37.00,-62.00,-30.00
-30.00,-84.00,-2.00,+3.00,+2.00,+8.00,-14.00,+36.00,-3.00,-1.00,-16.00,+4.00,+10.00,+21.00,-31.00,+51.00
-21.00,+22.00,-15.00,-4.00,-3.00,-14.00,-21.00,+11.00,+9.00,-29.00,-20.00,-9.00,-44.00,-21.00,+17.00,-60.00
-11.00,+25.00,+24.00,+1.00,+3.00,+43.00,+7.00,+2.00,+10.00,+36.00,-25.00,-6.00,-115.00,-51.00,-22.00,+34.00
-19.00,+23.00,-29.00,-10.00,-5.00,-41.00,-36.00,-56.00,+16.00,-24.00,-2.00,-2.00,+40.00,+55.00,+21.00,+24.00
-32.00,-2.00,-7.00,-2.00,-2.00,-25.00,+29.00,-43.00,-25.00,-2.00,+34.00,-1.00,-61.00,-76.00,-39.00,-16.00
-4.00,-112.00,+11.00,+4.00,+3.00,+19.00,-41.00,+25.00,+19.00,+22.00,-1.00,-5.00,-62.00,+31.00,+8.00,-31.00
+2.00,+48.00,+14.00,-9.00,-13.00,-4.00,+13.00,+15.00,-22.00,+25.00,+6.00,-1.00,+1.00,-33.00,-46.00,+21.00
-2.00,-39.00,-10.00,+0.00,+4.00,-2.00,-9.00,+7.00,-9.00,-83.00,+20.00,-1.00,-76.00,+37.00,-3.00,+2.00
-3.00,+125.00,+14.00,-2.00,-5.00,+0.00,-2.00,-91.00,+40.00,+21.00,-23.00,-6.00,-12.00,-9.00,+72.00,-12.00
-11.00,-98.00,-37.00,+1.00,-2.00,+55.00,+4.00,-1.00,-34.00,-6.00,-2.00,+5.00,-43.00,-19.00,+19.00,+21.00
-25.00,-65.00,+18.00,+0.00,-4.00,-22.00,-14.00,+7.00,-3.00,+51.00,+38.00,+9.00,+14.00,+60.00,+100.00,-37.00
-16.00,+33.00,-7.00,-5.00,+1.00,-71.00,-37.00,+50.00,-5.00,-43.00,-24.00,-13.00,-3.00,-2.00,-36.00,+20.00
-47.00,-78.00,+1.00,-2.00,+13.00,+103.00,+55.00,+57.00,-2.00,-19.00,-2.00,+2.00,-26.00,-36.00,+3.00,-13.00
-42.00,-95.00,-17.00,+0.00,-2.00,-17.00,-67.00,-59.00,-4.00,+38.00,+43.00,+4.00,-16.00,+14.00,-39.00,+2.00
+45.00,+53.00,+0.00,+5.00,+7.00,+21.00,+34.00,+95.00,+8.00,-13.00,+5.00,-3.00,+26.00,+1.00,+35.00,-33.00
+3.00,-35.00,-9.00,-3.00,+2.00,+10.00,-29.00,-37.00,-10.00,+35.00,-5.00,+9.00,-2.00,-32.00,+44.00,+21.00
+44.00,+35.00,-7.00,-2.00,-8.00,-3.00,+9.00,-35.00,+16.00,-75.00,-41.00,-2.00,-3.00,+29.00,-41.00,-49.00
+20.00,+39.00,+34.00,-1.00,+5.00,+15.00,+4.00,-52.00,-43.00,-44.00,-45.00,-3.00,+63.00,+38.00,+77.00,-9.00
-42.00,-98.00,-31.00,-8.00,-3.00,-26.00,+10.00,+42.00,+22.00,-22.00,-7.00,-16.00,-77.00,-78.00,+23.00,+32.00
+38.00,-27.00,-2.00,+2.00,+2.00,+41.00,+23.00,+32.00,-2.00,+28.00,-1.00,+5.00,+0.00,+44.00,+127.00,-49.00
+37.00,+117.00,-6.00,+7.00,+3.00,-28.00,-41.00,-51.00,-6.00,+18.00,+38.00,+0.00,-110.00,-53.00,+51.00,-22.00
-5.00,-22.00,+33.00,-8.00,-6.00,+3.00,+14.00,+10.00,-1.00,-25.00,-8.00,+0.00,+52.00,+15.00,+79.00,+31.00
-28.00,-33.00,+0.00,+1.00,-2.00,-25.00,-39.00,-41.00,+19.00,+32.00,+0.00,+2.00,+20.00,+35.00,-90.00,+3.00
+3.00,+20.00,-23.00,+3.00,+2.00,+66.00,+37.00,-6.00,-8.00,-77.00,-40.00,-4.00,-11.00,+17.00,-25.00,+45.00
+11.00,-68.00,-23.00,-5.00,-5.00,-28.00,-29.00,+33.00,-3.00,+37.00,+24.00,+2.00,+41.00,-28.00,+1.00,-5.00
+10.00,+10.00,+9.00,+2.00,+3.00,-8.00,+17.00,-39.00,-13.00,-8.00,+34.00,-3.00,-61.00,-22.00,-88.00,+4.00
-9.00,-9.00,+55.00,+1.00,+8.00,+3.00,-23.00,+92.00,+9.00,+18.00,-15.00,+1.00,+24.00,+1.00,+23.00,-13.00
-18.00,+20.00,+24.00,+2.00,-17.00,-65.00,-19.00,-38.00,+10.00,+3.00,-10.00,-1.00,+14.00,+10.00,+28.00,+19.00
-1.00,+17.00,-29.00,-4.00,+7.00,-22.00,+52.00,-29.00,-17.00,+10.00,-5.00,-2.00,-53.00,+40.00,+17.00,-6.00
+19.00,-7.00,+7.00,+7.00,+6.00,+12.00,+15.00,+107.00,-6.00,-15.00,-29.00,-9.00,-10.00,+27.00,-76.00,+7.00
-6.00,-8.00,-25.00,-7.00,+0.00,-45.00,-3.00,-78.00,-2.00,+7.00,+17.00,+5.00,-64.00,-67.00,-67.00,+3.00
-10.00,+26.00,+20.00,-1.00,+2.00,+29.00,-16.00,-47.00,+2.00,+31.00,-10.00,+0.00,+33.00,-21.00,-63.00,-36.00
-24.00,-59.00,+12.00,-3.00,-9.00,-75.00,-19.00,+92.00,+23.00,-12.00,+16.00,-2.00,-3.00,+64.00,-38.00,+4.00
+16.00,+47.00,+11.00,-3.00,-4.00,+46.00,+0.00,-73.00,-1.00,+0.00,+0.00,+5.00,+13.00,-68.00,-58.00,+65.00
+27.00,-24.00,-21.00,+6.00,-1.00,+36.00,-20.00,-47.00,+10.00,-58.00,-53.00,-9.00,+23.00,+26.00,+44.00,-30.00
+1.00,+16.00,+21.00,+0.00,+8.00,+7.00,+29.00,+16.00,-16.00,-28.00,+2.00,+2.00,-23.00,-26.00,-20.00,+10.00
-9.00,-21.00,+10.00,-2.00,-10.00,-24.00,-39.00,-26.00,+15.00,+61.00,+38.00,+8.00,+26.00,+15.00,-101.00,+40.00
-25.00,+41.00,-18.00,-1.00,+4.00,-7.00,-7.00,-30.00,+4.00,-8.00,+14.00,-5.00,-32.00,+24.00,+34.00,+18.00
+20.00,+6.00,-3.00,-4.00,-2.00,+25.00,+6.00,-53.00,-5.00,-18.00,-21.00,+7.00,+116.00,+22.00,+6.00,-39.00
-4.00,-2.00,-3.00,+5.00,-5.00,-12.00,-4.00,+19.00,+12.00,-2.00,-33.00,-7.00,-34.00,-30.00,+10.00,+37.00
-11.00,-6.00,-4.00,+2.00,+17.00,+4.00,+24.00,-30.00,-3.00,+48.00,+19.00,-9.00,+9.00,+2.00,-64.00,+0.00
+12.00,-29.00,-24.00,+3.00,+1.00,-16.00,+11.00,+54.00,-2.00,-81.00,-33.00,+6.00,+8.00,+12.00,-7.00,-19.00
-7.00,-6.00,+13.00,-6.00,-5.00,-7.00,+6.00,-48.00,-14.00,+59.00,+36.00,+9.00,+54.00,+92.00,+41.00,+32.00
-6.00,+12.00,-11.00,+1.00,+1.00,-14.00,-4.00,-6.00,-2.00,-42.00,-27.00,-16.00,-26.00,-85.00,+0.00,+6.00
+15.00,+37.00,+42.00,-5.00,-8.00,+60.00,+3.00,-25.00,-7.00,-20.00,-12.00,+0.00,+11.00,+1.00,+77.00,-46.00
-28.00,-7.00,-26.00,-3.00,-3.00,-49.00,-19.00,-4.00,-14.00,-10.00,+15.00,-2.00,+77.00,+14.00,+44.00,-7.00
+50.00,-21.00,-35.00,+3.00,+6.00,+58.00,+30.00,+10.00,-2.00,+49.00,+13.00,+0.00,-30.00,+45.00,+29.00,+0.00
+9.00,-25.00,-15.00,-6.00,-6.00,-78.00,-28.00,+12.00,-14.00,+9.00,-3.00,+1.00,+36.00,+18.00,-50.00,-17.00
+29.00,+43.00,+12.00,+6.00,+5.00,+102.00,+6.00,+125.00,-11.00,+14.00,+1.00,+2.00,-12.00,+23.00,+64.00,+11.00
-32.00,-31.00,+10.00,+4.00,+7.00,+7.00,+18.00,-121.00,+1.00,-22.00,+12.00,-1.00,-54.00,-74.00,+53.00,-37.00
-10.00,-26.00,-7.00,-3.00,-4.00,-11.00,-31.00,-48.00,+7.00,+20.00,+29.00,+9.00,+13.00,+19.00,+15.00,-10.00
+8.00,+26.00,+32.00,+1.00,-5.00,-34.00,+19.00,+97.00,-10.00,-16.00,-5.00,-5.00,-8.00,-19.00,-104.00,+15.00
-18.00,-17.00,-65.00,+1.00,-11.00,+42.00,-37.00,-21.00,+20.00,-11.00,-62.00,-5.00,+5.00,-17.00,+66.00,-10.00
-4.00,+24.00,+31.00,-11.00,+1.00,-92.00,+26.00,-94.00,+3.00,+11.00,+65.00,+8.00,+19.00,+51.00,+39.00,-38.00
+8.00,-1.00,+13.00,+7.00,+10.00,+14.00,+25.00,+88.00,-1.00,-3.00,-42.00,-13.00,-53.00,-57.00,+1.00,+0.00
-25.00,+43.00,-13.00,-9.00,-5.00,+5.00,-2.00,-1.00,-1.00,-39.00,+13.00,+8.00,+4.00,-9.00,-17.00,-29.00
+6.00,-2.00,+16.00,+0.00,-3.00,-64.00,-6.00,+77.00,+6.00,-20.00,-21.00,-1.00,+56.00,+10.00,-47.00,+2.00
-8.00,+42.00,-3.00,-2.00,-4.00,+7.00,-15.00,+7.00,-11.00,+64.00,+15.00,-4.00,-68.00,-36.00,+1.00,+16.00
-64.00,-16.00,-22.00,+1.00,-2.00,+6.00,-55.00,-120.00,+5.00,-12.00,-6.00,+5.00,+3.00,+9.00,-14.00,-10.00
+58.00,-1.00,+5.00,+6.00,+15.00,+36.00,+80.00,+53.00,+5.00,-24.00,-5.00,-9.00,+63.00,-18.00,-23.00,+17.00
-12.00,-52.00,+11.00,-3.00,-10.00,-35.00,-32.00,-47.00,-5.00,-10.00,+0.00,-4.00,-60.00,-35.00,-19.00,-12.00
+5.00,+29.00,+3.00,+2.00,-2.00,-12.00,-8.00,+2.00,+4.00,-9.00,-15.00,-6.00,+53.00,+38.00,+0.00,-54.00
+19.00,-17.00,-11.00,-3.00,+2.00,+7.00,-2.00,-23.00,+11.00,-9.00,+11.00,+0.00,+14.00,-17.00,+24.00,-6.00
+8.00,+33.00,-10.00,-1.00,-5.00,+8.00,-37.00,+61.00,-21.00,+29.00,+16.00,+6.00,-3.00,-9.00,-12.00,-27.00
-22.00,-22.00,-14.00,-3.00,+1.00,-50.00,-24.00,-96.00,+4.00,-9.00,+30.00,+0.00,-20.00,+3.00,+19.00,+29.00
-11.00,-27.00,+14.00,+1.00,+6.00,+20.00,+44.00,+38.00,+5.00,+69.00,-5.00,-7.00,-3.00,+6.00,+12.00,-8.00
+1.00,-4.00,+0.00,+2.00,-7.00,-21.00,+13.00,+50.00,+4.00,-41.00,-7.00,+0.00,-80.00,-28.00,-41.00,+14.00
-29.00,+20.00,-40.00,-6.00,+5.00,+13.00,-14.00,-108.00,+9.00,-9.00,+9.00,+2.00,-1.00,+57.00,+47.00,-22.00
+8.00,+9.00,+18.00,+2.00,-2.00,-66.00,-5.00,+58.00,-1.00,-18.00,-3.00,+2.00,+12.00,+5.00,+26.00,+15.00
-7.00,+8.00,+22.00,-9.00,-15.00,+80.00,-33.00,-31.00,-8.00,-39.00,-9.00,+0.00,+0.00,-8.00,-35.00,+35.00
-6.00,+45.00,+1.00,+7.00,+9.00,-8.00,+34.00,-24.00,-4.00,-7.00,-20.00,-8.00,+38.00,+49.00,+28.00,-12.00
+21.00,-30.00,+8.00,-4.00,-5.00,+4.00,+18.00,+85.00,+15.00,+43.00,+17.00,+7.00,-23.00,-27.00,+54.00,+3.00
-32.00,+13.00,-17.00,-3.00,-4.00,-38.00,-27.00,-16.00,-4.00,+8.00,+1.00,-4.00,-12.00,-15.00,-42.00,+7.00
+19.00,-34.00,-33.00,-1.00,-11.00,-30.00,+12.00,+47.00,-5.00,-24.00,-2.00,-1.00,+36.00,+8.00,-91.00,+27.00
+4.00,+10.00,+5.00,-1.00,+1.00,-21.00,-9.00,+4.00,-2.00,+35.00,+0.00,+0.00,+21.00,+16.00,+118.00,+21.00
-32.00,-20.00,-3.00,+1.00,+6.00,+75.00,+9.00,-38.00,-11.00,-34.00,+3.00,-7.00,+29.00,+3.00,+67.00,+12.00
+11.00,-9.00,+0.00,-1.00,+2.00,-5.00,+19.00,-17.00,+7.00,-9.00,-26.00,-4.00,+61.00,+55.00,-19.00,-76.00
+2.00,+8.00,-11.00,-1.00,+1.00,-25.00,-6.00,+61.00,-6.00,+41.00,+3.00,+2.00,-14.00,-69.00,-21.00,-18.00
+12.00,+36.00,+24.00,+2.00,-3.00,+20.00,-2.00,+1.00,+1.00,-55.00,-8.00,-8.00,+4.00,-12.00,-9.00,-51.00
-16.00,-6.00,+11.00,+0.00,-4.00,-68.00,-10.00,-100.00,+4.00,+12.00,+7.00,+16.00,-17.00,+14.00,+38.00,+0.00
-23.00,-17.00,-12.00,+0.00,-4.00,+75.00,-21.00,-40.00,+10.00,+9.00,+15.00,+3.00,+61.00,+12.00,+47.00,+25.00
+9.00,-37.00,-14.00,+2.00,+5.00,-23.00,+10.00,-2.00,+29.00,+54.00,+2.00,-2.00,+10.00,+15.00,+11.00,+10.00
+12.00,+41.00,-3.00,-4.00,-1.00,-8.00,+5.00,+98.00,+40.00,-24.00,+16.00,+2.00,+14.00,-37.00,+7.00,-12.00
-2.00,+20.00,+13.00,-4.00,-9.00,-5.00,-7.00,-75.00,+32.00,+20.00,+5.00,-3.00,-5.00,+16.00,-9.00,-5.00
+8.00,-25.00,-19.00,-1.00,-5.00,+7.00,-4.00,-77.00,-3.00,-19.00,+10.00,+0.00,-19.00,+10.00,-89.00,-4.00
+23.00,+15.00,+31.00,-2.00,+0.00,-7.00,+35.00,+43.00,-26.00,+56.00,+13.00,+2.00,+32.00,+53.00,+36.00,+11.00
-25.00,-53.00,-7.00,-8.00,-14.00,-15.00,-33.00,+17.00,-32.00,-58.00,+22.00,+5.00,+1.00,-78.00,-27.00,+5.00
-5.00,+39.00,-27.00,+10.00,+7.00,-5.00,-31.00,-44.00,-30.00,-51.00,-54.00,-5.00,-11.00,+8.00,+41.00,-58.00
+11.00,+3.00,+30.00,-10.00,-11.00,-55.00,+28.00,+89.00,-16.00,+14.00,-15.00,-6.00,-54.00,-22.00,+30.00,+27.00
-3.00,+49.00,-31.00,+3.00,+4.00,-3.00,-10.00,-52.00,-20.00,-11.00,+21.00,-9.00,+10.00,+5.00,+14.00,-1.00
+0.00,-22.00,+6.00,-5.00,-9.00,-22.00,+19.00,+24.00,-19.00,+53.00,+15.00,+5.00,+3.00,+16.00,+0.00,+31.00
+4.00,-26.00,-12.00,+3.00,+9.00,+76.00,+11.00,-97.00,-6.00,+50.00,-9.00,-5.00,-10.00,+57.00,+5.00,+2.00
+17.00,-6.00,+30.00,+4.00,+6.00,-15.00,+13.00,+69.00,-3.00,-29.00,-17.00,-2.00,+56.00,-62.00,-57.00,+11.00
-3.00,-10.00,-22.00,+0.00,+2.00,+30.00,-37.00,-38.00,+1.00,-44.00,-46.00,-16.00,-20.00,-9.00,-46.00,-6.00
+5.00,+22.00,-4.00,-3.00,+2.00,+20.00,+16.00,+17.00,+3.00,-7.00,-6.00,+8.00,+8.00,+19.00,+8.00,+4.00
-42.00,-42.00,-55.00,-6.00,-19.00,-82.00,-29.00,-46.00,-7.00,-26.00,+18.00,+5.00,-17.00,+7.00,-45.00,+82.00
+8.00,-3.00,+47.00,+2.00,+9.00,+87.00,+40.00,-19.00,-6.00,+127.00,+28.00,+3.00,+26.00,+9.00,+64.00,-18.00
+24.00,+25.00,+2.00,-5.00,-3.00,-8.00,-12.00,-6.00,+5.00,-104.00,-26.00,+6.00,-67.00,-21.00,-35.00,+8.00
+6.00,-15.00,-23.00,+4.00,+3.00,-39.00,+20.00,+38.00,-13.00,-1.00,-24.00,-8.00,-24.00,-8.00,+9.00,-52.00
-24.00,+43.00,+17.00,-4.00,-2.00,+51.00,-30.00,-44.00,-9.00,-37.00,+22.00,-5.00,+16.00,+9.00,+15.00,-7.00
-18.00,-17.00,-20.00,+0.00,+2.00,-9.00,-10.00,-19.00,+1.00,+7.00,+4.00,+8.00,-94.00,+25.00,-25.00,+19.00
-3.00,-19.00,-26.00,+2.00,-6.00,-49.00,+4.00,+5.00,+7.00,-13.00,-9.00,-4.00,-15.00,-61.00,-40.00,-24.00
-25.00,-13.00,+19.00,-4.00,+2.00,+72.00,-3.00,-128.00,+8.00,+2.00,-23.00,-1.00,-9.00,+0.00,-2.00,+1.00
+46.00,-9.00,+8.00,-8.00,-7.00,-17.00,+31.00,+120.00,-6.00,+16.00,+32.00,-1.00,+2.00,-7.00,-13.00,+29.00
-5.00,+23.00,-15.00,+2.00,+4.00,+31.00,+3.00,-73.00,-3.00,-17.00,-10.00,+6.00,+64.00,+25.00,-27.00,+8.00
+8.00,-7.00,+3.00,+3.00,-2.00,-37.00,-6.00,-23.00,+0.00,+32.00,-8.00,-3.00,-13.00,+14.00,+3.00,+49.00
-15.00,-53.00,-78.00,+0.00,-9.00,-72.00,-26.00,-19.00,+6.00,-33.00,-8.00,-2.00,-2.00,+12.00,+9.00,+45.00
+28.00,+61.00,+95.00,+2.00,+20.00,+65.00,+19.00,+21.00,+0.00,+68.00,+6.00,-2.00,+5.00,-30.00,-112.00,+46.00
-7.00,+31.00,-22.00,+0.00,+0.00,-35.00,-2.00,-33.00,-13.00,-87.00,-15.00,-5.00,-15.00,+9.00,+58.00,+24.00
-33.00,+25.00,+32.00,-10.00,-15.00,+6.00,-1.00,-52.00,-13.00,+82.00,+43.00,+12.00,+18.00,+84.00,+77.00,-36.00
-7.00,-2.00,-4.00,+4.00,+14.00,-13.00,-10.00,+56.00,-17.00,-3.00,+16.00,-4.00,+66.00,-66.00,-2.00,-44.00
+3.00,-47.00,-18.00,+4.00,-2.00,+13.00,+20.00,-43.00,-7.00,-47.00,-52.00,+2.00,-22.00,+2.00,+119.00,+32.00
-6.00,-2.00,-6.00,-3.00,+2.00,-3.00,-16.00,+10.00,+9.00,+38.00,-1.00,-6.00,-1.00,-2.00,-109.00,-75.00
-43.00,-3.00,-7.00,+5.00,+5.00,-30.00,-16.00,+21.00,-1.00,-91.00,-28.00,+4.00,-3.00,-29.00,+26.00,-8.00
+30.00,-2.00,+10.00,+2.00,-5.00,+49.00,+11.00,-31.00,+6.00,+42.00,+16.00,-3.00,+8.00,-2.00,+25.00,-35.00
+23.00,-12.00,-20.00,-3.00,+0.00,-11.00,+4.00,+77.00,-4.00,+4.00,+0.00,+0.00,+2.00,+16.00,+76.00,-1.00
+14.00,+4.00,-16.00,+0.00,-8.00,-69.00,-5.00,+24.00,+7.00,+4.00,+21.00,-1.00,-1.00,-17.00,-24.00,-72.00
+1.00,-21.00,+2.00,+2.00,+15.00,+114.00,+15.00,-24.00,+1.00,+17.00,-10.00,-2.00,-29.00,+23.00,+32.00,-31.00
+0.00,+57.00,+41.00,-4.00,-6.00,-63.00,-37.00,-89.00,-2.00,-17.00,+13.00,-11.00,-41.00,-16.00,-37.00,+16.00
-2.00,-36.00,-33.00,+5.00,+0.00,+3.00,-19.00,+12.00,+10.00,-22.00,-23.00,-5.00,-46.00,-21.00,+7.00,-45.00
+7.00,-7.00,+11.00,-6.00,-8.00,-37.00,+11.00,+19.00,-3.00,+15.00,+1.00,-2.00,-25.00,+18.00,+102.00,+15.00
+5.00,+2.00,+30.00,+6.00,+9.00,+25.00,-1.00,-51.00,+20.00,+80.00,+36.00,+12.00,+56.00,+28.00,-10.00,+17.00
-1.00,-7.00,-37.00,-2.00,-7.00,-11.00,+19.00,+111.00,-10.00,-85.00,-34.00,-7.00,+8.00,-22.00,-71.00,+5.00
-13.00,+23.00,+44.00,+0.00,+7.00,+23.00,-29.00,-24.00,-1.00,+12.00,-6.00,-11.00,-29.00,+0.00,-71.00,-62.00
-23.00,-12.00,-17.00,-1.00,-6.00,+19.00,+2.00,+0.00,-2.00,+22.00,+20.00,+3.00,+18.00,+8.00,+23.00,+97.00
+9.00,-6.00,-18.00,-1.00,-5.00,-31.00,-19.00,-41.00,-7.00,-77.00,-32.00,-6.00,+4.00,-48.00,-61.00,-56.00
+12.00,+24.00,+3.00,+1.00,+5.00,+29.00,+35.00,+79.00,+17.00,+31.00,+17.00,+5.00,-74.00,+20.00,+95.00,+26.00
-16.00,-6.00,-15.00,-3.00,-3.00,-103.00,-4.00,-39.00,+2.00,+27.00,+28.00,+0.00,+13.00,+51.00,-36.00,+13.00
-17.00,-16.00,+0.00,-1.00,+7.00,+104.00,+6.00,-25.00,-8.00,-47.00,-54.00,-12.00,-9.00,-71.00,-63.00,-27.00
+9.00,+14.00,+18.00,-4.00,+2.00,-3.00,-13.00,-25.00,+1.00,+14.00,+12.00,-3.00,+4.00,+1.00,+89.00,+33.00
-6.00,-16.00,-1.00,+2.00,-1.00,-8.00,-40.00,+22.00,+0.00,+24.00,-5.00,+0.00,-12.00,-13.00,-105.00,+15.00
-5.00,-60.00,-65.00,+0.00,-9.00,-64.00,+24.00,+15.00,+7.00,-18.00,-4.00,+5.00,+33.00,+1.00,-39.00,-46.00
+1.00,+45.00,+23.00,-1.00,+2.00,-6.00,+22.00,+24.00,-3.00,+53.00,+47.00,+5.00,-35.00,-8.00,+62.00,-20.00
-38.00,-4.00,-3.00,-4.00,-6.00,-16.00,+25.00,+47.00,+5.00,-41.00,-70.00,-4.00,+9.00,-5.00,-101.00,+9.00
-10.00,+12.00,+7.00,-1.00,-5.00,+9.00,-10.00,-99.00,-12.00,-12.00,+0.00,-3.00,+24.00,+7.00,+47.00,+49.00
+27.00,+26.00,+38.00,+2.00,+3.00,-34.00,+6.00,+38.00,+1.00,-7.00,+34.00,+4.00,-76.00,-52.00,-111.00,-17.00
-52.00,-20.00,-13.00,+3.00,+2.00,+6.00,-3.00,-36.00,+3.00,-69.00,-47.00,-10.00,-23.00,-29.00,-28.00,-7.00
+0.00,-17.00,-19.00,-3.00,-9.00,+21.00,+14.00,+79.00,-3.00,+89.00,+45.00,-9.00,-3.00,+0.00,-19.00,-23.00
-1.00,+24.00,+22.00,-10.00,-8.00,-15.00,+12.00,-43.00,+3.00,-78.00,-18.00,+8.00,+15.00,+34.00,-17.00,+17.00
-17.00,-21.00,-10.00,-3.00,-4.00,+14.00,-30.00,-113.00,+0.00,+32.00,-15.00,+0.00,+47.00,+37.00,+52.00,+3.00
+44.00,+7.00,-2.00,-2.00,+4.00,-26.00,+13.00,+112.00,-1.00,+1.00,+24.00,+2.00,-6.00,-13.00,+7.00,+59.00
+16.00,-16.00,+3.00,+3.00,-4.00,-3.00,-8.00,-56.00,+1.00,+45.00,+27.00,+11.00,+71.00,+18.00,-73.00,+19.00
-9.00,-44.00,-29.00,-5.00,-8.00,-30.00,-28.00,-108.00,-6.00,-19.00,-32.00,-15.00,-36.00,-33.00,-9.00,+3.00
+54.00,+52.00,+45.00,+5.00,+9.00,+6.00,+25.00,+107.00,+8.00,-12.00,+24.00,+11.00,+36.00,+14.00,+28.00,-34.00
+4.00,-27.00,+0.00,-4.00,-8.00,+21.00,-3.00,-90.00,-1.00,-15.00,-23.00,+1.00,-10.00,+3.00,-42.00,+18.00
+18.00,+14.00,+4.00,+1.00,+15.00,-64.00,-6.00,+24.00,-6.00,-23.00,+15.00,-10.00,+22.00,-13.00,+40.00,-15.00
+30.00,+4.00,-3.00,+1.00,+5.00,+38.00,+24.00,+58.00,+12.00,+98.00,+22.00,+5.00,-41.00,+13.00,-10.00,-6.00
-42.00,-32.00,-23.00,+4.00,-7.00,-22.00,-14.00,-34.00,-7.00,-4.00,+36.00,-1.00,+24.00,-1.00,+5.00,+16.00
+2.00,+56.00,+51.00,-13.00,-4.00,-1.00,-14.00,-6.00,-5.00,-1.00,-27.00,-6.00,-28.00,+7.00,-9.00,+6.00
-11.00,-8.00,-18.00,+2.00,-6.00,+17.00,-33.00,-98.00,+14.00,+48.00,+44.00,+8.00,-14.00,-4.00,+99.00,+38.00
-17.00,-12.00,+4.00,-2.00,+2.00,+1.00,+31.00,+86.00,-22.00,-84.00,-75.00,-14.00,+35.00,+38.00,-36.00,-24.00
+12.00,-12.00,-4.00,+1.00,-7.00,-3.00,-24.00,+43.00,-5.00,+44.00,-16.00,-7.00,-7.00,-17.00,+14.00,-8.00
-60.00,+1.00,+3.00,-5.00,+2.00,+12.00,+7.00,-98.00,+16.00,-35.00,+30.00,+14.00,-5.00,+30.00,+38.00,-28.00
+23.00,+3.00,+19.00,+4.00,+2.00,+39.00,-16.00,+96.00,+7.00,-31.00,-6.00,-5.00,+10.00,+11.00,+30.00,-8.00
+5.00,+7.00,-14.00,-3.00,-3.00,-30.00,-7.00,-27.00,-5.00,+62.00,+30.00,+7.00,-54.00,-44.00,+69.00,-32.00
+0.00,+15.00,+6.00,-10.00,-6.00,+62.00,-1.00,+93.00,+1.00,-41.00,-23.00,+1.00,+32.00,-8.00,+35.00,+23.00
-14.00,-22.00,-18.00,+7.00,+0.00,-21.00,-16.00,-47.00,+2.00,+2.00,+24.00,-8.00,-24.00,-24.00,+8.00,-4.00
+24.00,-22.00,-47.00,-8.00,-8.00,-42.00,-15.00,-29.00,-17.00,-88.00,-68.00,-8.00,-25.00,+29.00,+55.00,+20.00
+7.00,+4.00,+19.00,+2.00,+10.00,+24.00,+23.00,+1.00,+11.00,+117.00,+56.00,+1.00,+32.00,-6.00,-100.00,-25.00
+7.00,-25.00,-5.00,+2.00,+10.00,+43.00,-2.00,-57.00,+5.00,-64.00,-19.00,-1.00,-26.00,+17.00,+23.00,-18.00
+43.00,+36.00,+24.00,-6.00,-8.00,-11.00,-25.00,+78.00,+12.00,+55.00,+17.00,+8.00,+90.00,+36.00,-16.00,+17.00
-57.00,-15.00,-20.00,-11.00,-13.00,-56.00,-22.00,-77.00,+2.00,+3.00,+24.00,+6.00,-16.00,-43.00,-21.00,+17.00
+36.00,-7.00,+3.00,+5.00,+10.00,+79.00,+44.00,+74.00,-17.00,-17.00,+11.00,-4.00,+39.00,+36.00,+27.00,+6.00
-44.00,-46.00,-3.00,-10.00,-10.00,-56.00,-22.00,-128.00,-2.00,+57.00,-4.00,-13.00,-11.00,-25.00,-66.00,+19.00
+41.00,+37.00,+3.00,-2.00,-2.00,+46.00,-4.00,+28.00,-15.00,-66.00,-22.00,-3.00,+9.00,+10.00,-36.00,-2.00
+43.00,+27.00,+15.00,+3.00,+12.00,+30.00,-1.00,+41.00,-11.00,+13.00,-4.00,+1.00,+28.00,+54.00,-42.00,-46.00
-50.00,-44.00,+25.00,-3.00,+0.00,-6.00,-4.00,-82.00,-3.00,-42.00,-15.00,-7.00,-1.00,-17.00,+14.00,+1.00
-26.00,+63.00,+6.00,-10.00,-10.00,-14.00,-25.00,-49.00,-8.00,+33.00,-10.00,+2.00,-5.00,-42.00,+43.00,-4.00
-42.00,-51.00,-32.00,+12.00,+3.00,-38.00,+7.00,+64.00,-13.00,+30.00,+32.00,-9.00,-23.00,-7.00,+110.00,+43.00
-10.00,+21.00,+20.00,-3.00,-9.00,-3.00,+28.00,-61.00,+9.00,-106.00,-45.00,-1.00,+40.00,-10.00,+59.00,-72.00
+12.00,-6.00,-1.00,+8.00,+2.00,+45.00,-7.00,+43.00,+7.00,+56.00,+46.00,+5.00,-10.00,+58.00,+13.00,-22.00
+21.00,-40.00,-42.00,+5.00,+13.00,+39.00,+38.00,-23.00,+6.00,-65.00,-54.00,-14.00,-11.00,-42.00,+39.00,+28.00
-10.00,+6.00,+8.00,-11.00,-26.00,-86.00,-22.00,-91.00,+0.00,-12.00,-32.00,-2.00,+6.00,-20.00,+1.00,-36.00
+31.00,+1.00,+4.00,-2.00,-2.00,+27.00,+56.00,+77.00,-25.00,+24.00,+47.00,+4.00,+31.00,-12.00,+38.00,+54.00
-20.00,+4.00,-7.00,-2.00,-6.00,-116.00,-51.00,-45.00,+4.00,+7.00,-51.00,-13.00,+20.00,+39.00,-78.00,-33.00
-1.00,-4.00,-19.00,+2.00,+1.00,+18.00,+24.00,-7.00,-19.00,+3.00,+21.00,+8.00,-40.00,-11.00,-61.00,-12.00
+23.00,+26.00,+24.00,+3.00,+9.00,+10.00,+28.00,+27.00,+7.00,+100.00,+21.00,-3.00,+59.00,+36.00,-2.00,+42.00
-59.00,-29.00,-19.00,-3.00,-4.00,-52.00,-22.00,-51.00,+1.00,+7.00,+23.00,-4.00,-56.00,-73.00,-60.00,-70.00
-16.00,+23.00,+0.00,-7.00,+6.00,+14.00,-2.00,-101.00,+3.00,-120.00,-57.00,-4.00,-34.00,-18.00,+16.00,+36.00
+62.00,+25.00,+38.00,+5.00,-4.00,+49.00,+59.00,+109.00,-10.00,+22.00,+20.00,+14.00,+57.00,+96.00,-29.00,+0.00
+0.00,-25.00,-40.00,+6.00,+0.00,-93.00,-31.00,-40.00,+3.00,+8.00,-28.00,-9.00,-39.00,-49.00,-20.00,+34.00
+4.00,-11.00,+7.00,+0.00,+17.00,+77.00,+42.00,+26.00,-20.00,-5.00,+30.00,+6.00,-17.00,+28.00,-1.00,+35.00
+12.00,+18.00,+22.00,+2.00,-5.00,+8.00,-25.00,-31.00,+9.00,+42.00,+24.00,+7.00,+4.00,-2.00,+12.00,+32.00
-22.00,+31.00,-9.00,-9.00,-14.00,-64.00,-17.00,-68.00,-27.00,-52.00,+1.00,-5.00,+17.00,-7.00,+32.00,+40.00
+12.00,-15.00,-2.00,-8.00,-12.00,+9.00,+15.00,-82.00,-10.00,-48.00,-43.00,-1.00,-46.00,-5.00,-22.00,-62.00
+50.00,+22.00,+16.00,+5.00,+12.00,-10.00,+14.00,+92.00,+8.00,+73.00,+8.00,-1.00,-15.00,-7.00,+31.00,+2.00
+0.00,-47.00,-24.00,-2.00,-9.00,-25.00,-15.00,-45.00,+10.00,+34.00,+16.00,+17.00,-6.00,-8.00,-78.00,+95.00
+1.00,-12.00,+24.00,-9.00,-2.00,+53.00,+7.00,+73.00,+14.00,+16.00,+8.00,+2.00,-41.00,-8.00,-56.00,+36.00
+4.00,-3.00,+29.00,-7.00,-1.00,+2.00,+18.00,-55.00,+5.00,-74.00,-10.00,-6.00,-64.00,-3.00,-29.00,+9.00
+8.00,+4.00,-34.00,-1.00,-12.00,-62.00,-36.00,+64.00,+3.00,-17.00,-31.00,-9.00,-21.00,-9.00,+39.00,-28.00
+2.00,+41.00,+23.00,+1.00,+1.00,+51.00,-4.00,-22.00,+2.00,+32.00,+23.00,+2.00,-7.00,-25.00,+63.00,-27.00
-19.00,-30.00,-7.00,+0.00,+7.00,-25.00,-13.00,-19.00,+13.00,-23.00,-35.00,-4.00,+78.00,+84.00,+8.00,-13.00
-57.00,-48.00,-30.00,-2.00,-13.00,+29.00,-13.00,-18.00,-11.00,-11.00,+25.00,+5.00,-28.00,-97.00,-3.00,-39.00
-17.00,+38.00,+20.00,-5.00,+4.00,+97.00,+6.00,-19.00,-13.00,+18.00,-6.00,+0.00,+49.00,+23.00,-30.00,+9.00
+38.00,+48.00,-36.00,-1.00,-1.00,-96.00,+31.00,+110.00,-27.00,-17.00,+0.00,-12.00,-41.00,-17.00,+1.00,-27.00
-36.00,-18.00,+2.00,+8.00,+7.00,-59.00,-60.00,-66.00,+11.00,+56.00,+19.00,+14.00,+22.00,-13.00,+68.00,-71.00
+34.00,-19.00,-47.00,+1.00,+16.00,+67.00,+32.00,+78.00,+14.00,-47.00,-5.00,-3.00,-14.00,+25.00,-62.00,-47.00
-1.00,-11.00,+11.00,+1.00,+2.00,+7.00,+19.00,-80.00,+12.00,-24.00,-17.00,-1.00,+20.00,+11.00,+10.00,-8.00
+3.00,+7.00,+20.00,-4.00,-5.00,-24.00,-2.00,+2.00,-1.00,+0.00,-21.00,+2.00,+23.00,+71.00,-21.00,-6.00
-8.00,-10.00,+16.00,-3.00,-12.00,-16.00,-10.00,-62.00,+3.00,-30.00,-11.00,-11.00,-25.00,-104.00,-28.00,-34.00
+24.00,+43.00,-8.00,+6.00,+17.00,+13.00,-1.00,+56.00,+12.00,+48.00,+28.00,-1.00,+2.00,+28.00,+50.00,+39.00
-27.00,-45.00,-15.00,-4.00,-15.00,-65.00,-45.00,-62.00,-2.00,-8.00,-38.00,-8.00,-42.00,-30.00,-81.00,-48.00
+16.00,+3.00,-6.00,+0.00,+6.00,+39.00,+21.00,+59.00,+15.00,-15.00,+18.00,+5.00,+58.00,+40.00,+27.00,+17.00
-4.00,-33.00,-7.00,+1.00,-14.00,-31.00,+14.00,-79.00,+0.00,+16.00,-18.00,-2.00,-56.00,-49.00,-21.00,+14.00
+2.00,+39.00,+18.00,-1.00,+14.00,+83.00,-4.00,-1.00,-8.00,+81.00,+49.00,+21.00,+39.00,+86.00,+97.00,+6.00
+1.00,-26.00,-17.00,+6.00,+1.00,-18.00,+8.00,+75.00,+1.00,-40.00,+27.00,+1.00,-33.00,-76.00,-4.00,+23.00
-13.00,-50.00,-15.00,-9.00,+0.00,+67.00,+24.00,+7.00,-10.00,-26.00,-35.00,-4.00,+8.00,-3.00,+24.00,-37.00
-31.00,+40.00,-10.00,-6.00,-7.00,-29.00,-34.00,-51.00,+24.00,+13.00,+10.00,+1.00,-29.00,+87.00,+48.00,+29.00
+17.00,+25.00,+29.00,+0.00,-9.00,-70.00,+18.00,-16.00,-20.00,+67.00,+30.00,+0.00,+34.00,-81.00,+77.00,-41.00
+2.00,-30.00,+14.00,+1.00,+5.00,-8.00,-36.00,-33.00,-8.00,-75.00,-23.00,+5.00,+29.00,+93.00,+106.00,+9.00
+31.00,+38.00,+1.00,+1.00,+2.00,+31.00,-8.00,-120.00,+4.00,+75.00,+16.00,-7.00,+1.00,-25.00,+36.00,+19.00
-15.00,+1.00,-10.00,+0.00,+7.00,-6.00,+19.00,+19.00,-14.00,-75.00,-7.00,-7.00,-36.00,-81.00,-67.00,-9.00
-15.00,-52.00,-7.00,+0.00,-4.00,-3.00,-15.00,-69.00,-11.00,-6.00,-15.00,+6.00,+12.00,+45.00,+24.00,-36.00
-7.00,+79.00,-4.00,+0.00,+6.00,+49.00,+29.00,+51.00,+13.00,+23.00,+26.00,+8.00,+58.00,-1.00,+22.00,+55.00
-18.00,-22.00,-25.00,+8.00,-14.00,-119.00,-60.00,-52.00,+11.00,-3.00,+1.00,-3.00,+12.00,+18.00,+13.00,-5.00
+0.00,-21.00,-1.00,-4.00,+22.00,+92.00,+41.00,+2.00,+23.00,+8.00,-2.00,+3.00,+52.00,+8.00,+39.00,-44.00
+18.00,+45.00,+29.00,+0.00,-6.00,-67.00,-17.00,+35.00,-45.00,+40.00,-11.00,-3.00,-73.00,-5.00,+24.00,+23.00
-32.00,-38.00,+2.00,+3.00,-1.00,+34.00,+1.00,-54.00,-21.00,-82.00,-29.00,-8.00,-4.00,-12.00,-87.00,-19.00
+7.00,+6.00,-27.00,+2.00,-11.00,-28.00,-5.00,-38.00,+19.00,+8.00,-2.00,+8.00,+11.00,+80.00,-10.00,-8.00
-20.00,+35.00,+59.00,-4.00,-6.00,-18.00,-29.00,-24.00,-6.00,+72.00,+48.00,-9.00,-1.00,-30.00,+53.00,-1.00
-14.00,-21.00,-21.00,-1.00,-11.00,-105.00,-31.00,-55.00,+11.00,-99.00,-22.00,-11.00,-27.00,-51.00,+4.00,-25.00
+31.00,+15.00,+29.00,+3.00,+22.00,-13.00,+47.00,+66.00,+6.00,+54.00,+1.00,+8.00,-8.00,+1.00,-20.00,+21.00
+8.00,+87.00,+28.00,+2.00,+7.00,+62.00,+42.00,+12.00,-24.00,+25.00,+24.00,-9.00,-105.00,-20.00,-24.00,-16.00
+26.00,-43.00,-28.00,+5.00,+5.00,+20.00,-35.00,+99.00,+7.00,-77.00,-87.00,-6.00,+4.00,+57.00,+24.00,+36.00
-6.00,-7.00,-4.00,-4.00,-4.00,+0.00,+13.00,-61.00,-1.00,+25.00,+6.00,-3.00,-17.00,-11.00,+70.00,+4.00
+1.00,-72.00,-29.00,-1.00,-19.00,-67.00,-30.00,+28.00,+7.00,+11.00,+16.00,-2.00,-33.00,+0.00,-58.00,+5.00
-12.00,+61.00,+22.00,+5.00,+10.00,+16.00,-3.00,+29.00,-14.00,-18.00,+5.00,+0.00,+33.00,-54.00,+16.00,-8.00
+17.00,+1.00,+32.00,-9.00,-9.00,-25.00,+17.00,+25.00,-14.00,+17.00,+10.00,-4.00,+26.00,+13.00,-10.00,-29.00
+0.00,-28.00,-21.00,+6.00,+3.00,+36.00,-12.00,-5.00,+7.00,-29.00,+0.00,-4.00,-5.00,+49.00,-53.00,-17.00
-18.00,-38.00,-22.00,-8.00,-9.00,-25.00,-42.00,-30.00,+11.00,+61.00,-17.00,-5.00,+34.00,-21.00,-32.00,-25.00
+18.00,-78.00,+1.00,+0.00,+15.00,+37.00,+62.00,+107.00,-8.00,-61.00,+2.00,-5.00,-57.00,-71.00,-24.00,+26.00
+5.00,+71.00,-6.00,-1.00,-7.00,+41.00,-21.00,-46.00,-9.00,+108.00,+35.00,+2.00,-4.00,-4.00,+18.00,-7.00
+14.00,-16.00,-5.00,+3.00,+6.00,-14.00,-8.00,-24.00,-1.00,-92.00,-61.00,-6.00,-25.00,+31.00,+41.00,+12.00
+9.00,+91.00,+70.00,-9.00,-6.00,+10.00,+1.00,-71.00,+0.00,+115.00,+48.00,+5.00,-26.00,-12.00,+18.00,+34.00
-39.00,-69.00,-26.00,-1.00,-2.00,-79.00,-41.00,-66.00,-18.00,-125.00,-30.00,+10.00,+36.00,-8.00,-37.00,-92.00
+93.00,+73.00,-13.00,+6.00,+3.00,+0.00,+55.00,+114.00,+3.00,+25.00,+40.00,+0.00,-6.00,-3.00,+27.00,+22.00
-57.00,-10.00,-21.00,-6.00,-9.00,+2.00,-32.00,-60.00,-23.00,+17.00,+6.00,+4.00,+55.00,+14.00,-30.00,+8.00
-7.00,+5.00,+3.00,-1.00,-8.00,+3.00,+7.00,+29.00,+2.00,-18.00,-26.00,-5.00,+35.00,+42.00,+92.00,-65.00
-22.00,-22.00,+15.00,-5.00,+4.00,-28.00,-13.00,-96.00,+7.00,+56.00,+2.00,-4.00,-18.00,-7.00,+100.00,+26.00
-20.00,-32.00,-45.00,+2.00,-11.00,-48.00,-13.00,-91.00,+1.00,-13.00,+20.00,+4.00,-7.00,-27.00,-17.00,-25.00
+40.00,+24.00,+11.00,+1.00,+11.00,+56.00,+19.00,+66.00,+0.00,+4.00,+13.00,+1.00,+12.00,-6.00,-80.00,+16.00
-30.00,-30.00,-13.00,+2.00,-6.00,-22.00,+29.00,+9.00,+0.00,-14.00,-7.00,-2.00,-26.00,-3.00,+75.00,+47.00
-23.00,+2.00,+48.00,-7.00,-5.00,+18.00,-77.00,-59.00,+35.00,+33.00,-16.00,-9.00,+69.00,-48.00,-46.00,+57.00
-40.00,-36.00,-33.00,+0.00,+0.00,-41.00,+42.00,-28.00,-29.00,-2.00,-1.00,+0.00,+21.00,+64.00,-52.00,+0.00
+106.00,+57.00,+56.00,+15.00,+15.00,-53.00,+35.00,+114.00,+28.00,+6.00,+5.00,+4.00,-14.00,-31.00,-4.00,+23.00
-32.00,-32.00,-29.00,-2.00,-10.00,-5.00,-33.00,-110.00,-9.00,-70.00,-39.00,-9.00,-43.00,-27.00,+1.00,-35.00
+5.00,+33.00,+3.00,-2.00,+1.00,+32.00,+17.00,-7.00,+10.00,-3.00,+24.00,+4.00,+30.00,+29.00,-65.00,+13.00
+9.00,+8.00,+18.00,+1.00,-8.00,-52.00,-25.00,+38.00,-2.00,+27.00,-15.00,-3.00,+47.00,+20.00,-106.00,+31.00
-19.00,-25.00,-18.00,-7.00,+0.00,+61.00,-12.00,-40.00,-18.00,-16.00,-1.00,-2.00,+43.00,-25.00,-11.00,-58.00
+20.00,-21.00,-13.00,+0.00,+0.00,+2.00,+12.00,+0.00,+18.00,+49.00,+28.00,+5.00,+38.00,+50.00,-6.00,+18.00
-27.00,-6.00,+9.00,-6.00,-3.00,+58.00,+2.00,+12.00,-20.00,+23.00,+15.00,-1.00,-38.00,-20.00,+33.00,-2.00
+1.00,+5.00,-4.00,+0.00,+0.00,-35.00,-30.00,-38.00,+11.00,-24.00,+3.00,-9.00,+1.00,-2.00,-7.00,-16.00
-32.00,-61.00,-9.00,-13.00,-18.00,+7.00,+9.00,+6.00,-2.00,-12.00,-13.00,+1.00,+27.00,+6.00,+8.00,+4.00
+43.00,+88.00,+2.00,+3.00,+9.00,-41.00,+1.00,+36.00,+3.00,-12.00,-11.00,-13.00,+4.00,+1.00,+2.00,+25.00
-3.00,-41.00,-10.00,-3.00,-7.00,+72.00,-6.00,+29.00,+8.00,+112.00,+5.00,-2.00,-9.00,+23.00,-53.00,+23.00
+40.00,-8.00,+13.00,+8.00,+17.00,+43.00,+7.00,+97.00,-2.00,-91.00,+25.00,+9.00,-32.00,-4.00,-15.00,-18.00
-9.00,-50.00,-10.00,-1.00,-7.00,-17.00,-5.00,-67.00,+10.00,-15.00,-18.00,+4.00,+57.00,-46.00,-70.00,+33.00
-12.00,+1.00,+4.00,-1.00,-4.00,-4.00,+24.00,-11.00,-16.00,+5.00,+8.00,-2.00,-48.00,-16.00,-4.00,-24.00
+26.00,+45.00,-4.00,-5.00,-4.00,-60.00,+2.00,+72.00,-3.00,+18.00,-10.00,+0.00,+60.00,+35.00,-17.00,-47.00
-26.00,-9.00,-23.00,-1.00,-2.00,-30.00,+10.00,+9.00,+3.00,+13.00,+11.00,+4.00,-40.00,-43.00,+1.00,-9.00
-25.00,-16.00,+3.00,-1.00,+4.00,+32.00,-7.00,-59.00,-12.00,-73.00,-18.00,-8.00,-1.00,+27.00,+27.00,-5.00
-12.00,-17.00,-22.00,-5.00,-3.00,-31.00,-12.00,+42.00,+7.00,+2.00,-12.00,+3.00,+14.00,+11.00,-27.00,+11.00
+16.00,+39.00,+7.00,+2.00,+1.00,-2.00,+0.00,-39.00,-13.00,-36.00,+3.00,-2.00,-73.00,-42.00,+50.00,-11.00
-51.00,-38.00,-4.00,-12.00,-21.00,-72.00,-37.00,-80.00,+26.00,+24.00,-13.00,+0.00,+20.00,+22.00,+14.00,-1.00
+16.00,-24.00,-15.00,+5.00,+9.00,-14.00,+32.00,+103.00,+1.00,+25.00,-3.00,+0.00,-4.00,+5.00,+42.00,+14.00
+10.00,+56.00,+27.00,+1.00,+8.00,+3.00,+17.00,-18.00,+2.00,+17.00,+4.00,+1.00,-60.00,-12.00,-112.00,+18.00
+2.00,+22.00,+12.00,+3.00,-2.00,-3.00,+19.00,-7.00,-8.00,-49.00,-9.00,+3.00,+49.00,+24.00,+39.00,+7.00
+8.00,-37.00,-6.00,+0.00,+13.00,+11.00,+6.00,+32.00,+3.00,-10.00,+24.00,+3.00,-13.00,-11.00,+36.00,+11.00
+42.00,-30.00,-15.00,+2.00,-9.00,+22.00,-12.00,-26.00,-6.00,-36.00,-23.00,-4.00,-40.00,+32.00,+3.00,+37.00
+44.00,+53.00,+9.00,+1.00,+3.00,+24.00,+33.00,+72.00,-2.00,+2.00,+12.00,-7.00,-12.00,-47.00,+0.00,+17.00
-19.00,-74.00,-26.00,-8.00,-5.00,-28.00,-20.00,-40.00,-22.00,-62.00,-62.00,-4.00,+49.00,+16.00,+55.00,-34.00
+2.00,+10.00,+27.00,-4.00,-6.00,+16.00,+32.00,-64.00,+3.00,+51.00,-1.00,-6.00,-48.00,-58.00,-10.00,+88.00
-30.00,+63.00,+9.00,-3.00,+4.00,+11.00,+1.00,-21.00,+25.00,+67.00,-7.00,+5.00,+27.00,+38.00,-39.00,-17.00
+8.00,-60.00,-27.00,-2.00,+5.00,+63.00,-21.00,+28.00,-31.00,-68.00,-3.00,-2.00,+7.00,-30.00,+7.00,+11.00
+2.00,+32.00,-3.00,-1.00,-5.00,+8.00,-15.00,-6.00,+0.00,+52.00,+20.00,+1.00,-32.00,+22.00,-30.00,-17.00
-17.00,-18.00,-10.00,+3.00,+9.00,+13.00,+20.00,-22.00,-8.00,-49.00,-35.00,-7.00,+1.00,-23.00,-5.00,-24.00
-22.00,+13.00,+5.00,+0.00,-2.00,-35.00,-5.00,+42.00,+3.00,+28.00,+13.00,-2.00,-12.00,+32.00,-11.00,-10.00
-30.00,-52.00,-10.00,-2.00,-9.00,+60.00,+1.00,-55.00,+16.00,-1.00,+16.00,+9.00,-1.00,-20.00,-18.00,+7.00
+24.00,-15.00,+9.00,-1.00,+3.00,-15.00,-31.00,+19.00,-14.00,+3.00,+22.00,-2.00,-15.00,-23.00,-19.00,+14.00
+13.00,+10.00,+4.00,-2.00,+4.00,-15.00,-12.00,-11.00,-6.00,+11.00,-19.00,+0.00,+17.00,+25.00,+28.00,+3.00
-9.00,+19.00,+17.00,-5.00,-13.00,-69.00,-14.00,-86.00,+7.00,+78.00,+35.00,-1.00,+2.00,+0.00,-60.00,+24.00
+6.00,-22.00,-10.00,+3.00,+8.00,+3.00,+8.00,+20.00,-7.00,-82.00,-30.00,-4.00,-9.00,+4.00,+33.00,-39.00
-11.00,-65.00,-20.00,+8.00,-3.00,-45.00,+8.00,+13.00,+10.00,-5.00,+2.00,-1.00,+16.00,+52.00,+23.00,-13.00
+4.00,+38.00,+28.00,-4.00,-10.00,+31.00,+3.00,-46.00,-29.00,-21.00,-5.00,-7.00,+44.00,-70.00,-5.00,-18.00
-26.00,-19.00,-7.00,-3.00,+0.00,-28.00,-25.00,-83.00,-4.00,+1.00,-21.00,-5.00,+14.00,+6.00,+22.00,-30.00
+23.00,+17.00,+6.00,-1.00,+6.00,-31.00,+15.00,+71.00,+10.00,+40.00,+10.00,-1.00,-10.00,+23.00,-25.00,+11.00
-10.00,-33.00,-20.00,+0.00,-2.00,-43.00,+9.00,+24.00,+0.00,+36.00,+22.00,+3.00,-8.00,-44.00,+9.00,+27.00
+15.00,+51.00,+24.00,+3.00,+5.00,+91.00,-13.00,+15.00,+7.00,-46.00,-36.00,-3.00,-23.00,+28.00,+10.00,+11.00
-14.00,-2.00,-18.00,-1.00,+2.00,-25.00,+15.00,+3.00,-3.00,-19.00,-4.00,-6.00,+20.00,-1.00,+13.00,+4.00
-18.00,-19.00,+8.00,-3.00,-14.00,-60.00,-36.00,-127.00,-3.00,+31.00,+2.00,+0.00,+1.00,-3.00,-3.00,+12.00
-4.00,-16.00,-34.00,-7.00,-4.00,+76.00,+23.00,+55.00,+0.00,-22.00,+2.00,-1.00,-30.00,+61.00,-22.00,+16.00
-11.00,-14.00,+24.00,+1.00,-3.00,-26.00,-7.00,-40.00,-11.00,+16.00,+14.00,+2.00,-6.00,-44.00,+19.00,-1.00
+15.00,-22.00,-1.00,-1.00,+1.00,+18.00,+5.00,+121.00,-3.00,-4.00,+4.00,+0.00,+41.00,-22.00,-7.00,-3.00
-12.00,+51.00,+11.00,-1.00,+3.00,+11.00,-1.00,-113.00,+1.00,-2.00,-11.00,-7.00,-46.00,+15.00,-4.00,-21.00
+6.00,+1.00,-1.00,-2.00,-17.00,-80.00,-1.00,+76.00,-7.00,-19.00,-2.00,+3.00,+7.00,-33.00,+1.00,-97.00
+4.00,-16.00,-14.00,+4.00,+7.00,-33.00,-2.00,+10.00,-8.00,+3.00,-15.00,-4.00,+6.00,+19.00,-5.00,-96.00
-5.00,-18.00,-22.00,-5.00,+3.00,+95.00,+15.00,+2.00,+2.00,-20.00,+5.00,+1.00,-6.00,+23.00,+4.00,-64.00
-10.00,-12.00,+19.00,+2.00,-9.00,-48.00,-16.00,-18.00,-4.00,+21.00,+3.00,+1.00,-41.00,-28.00,+18.00,-25.00
+7.00,+49.00,+16.00,-5.00,-1.00,-20.00,-6.00,-24.00,+4.00,-7.00,+0.00,-5.00,+0.00,-12.00,-16.00,-32.00
+0.00,-21.00,-17.00,-2.00,+1.00,+18.00,+8.00,+47.00,+9.00,+10.00,-1.00,-1.00,+37.00,+23.00,-4.00,+33.00
+9.00,+27.00,+2.00,+4.00,+3.00,+11.00,-2.00,+6.00,-5.00,-7.00,+7.00,+0.00,-53.00,+73.00,-9.00,+16.00
-13.00,-16.00,-10.00,-2.00,-1.00,-41.00,-10.00,-18.00,-8.00,+8.00,-4.00,-4.00,+25.00,-68.00,-7.00,+34.00
-16.00,-9.00,+7.00,-3.00,-6.00,+2.00,+1.00,-32.00,+7.00,-5.00,-8.00,+0.00,-33.00,-45.00,+14.00,-69.00
-16.00,-25.00,-8.00,-1.00,+8.00,+35.00,+0.00,-5.00,+3.00,-10.00,-2.00,-1.00,-14.00,+0.00,-33.00,-56.00
-9.00,-1.00,+9.00,+3.00,+0.00,-28.00,-4.00,+29.00,+38.00,+7.00,+2.00,+3.00,+86.00,-5.00,+2.00,+16.00
+0.00,-3.00,+2.00,-5.00,-11.00,+9.00,-6.00,+2.00,+34.00,+4.00,+4.00,+4.00,+4.00,+29.00,-2.00,-20.00
-14.00,-4.00,-1.00,+0.00,+3.00,+8.00,-5.00,-33.00,+41.00,-21.00,-9.00,+14.00,+19.00,+10.00,+5.00,+60.00
+82.00,+3.00,-2.00,-1.00,-1.00,+0.00,+10.00,+3.00,-19.00,+11.00,+5.00,-1.00,-5.00,+33.00,+6.00,+104.00
+44.00,+4.00,-9.00,-2.00,-3.00,-30.00,-33.00,-6.00,-46.00,+1.00,+4.00,-3.00,-34.00,-47.00,+5.00,+43.00
+5.00,-5.00,-5.00,-4.00,-9.00,+8.00,-12.00,-9.00,-57.00,+3.00,-4.00,-39.00,-1.00,+17.00,+0.00,-12.00
-3.00,+15.00,+1.00,+0.00,+4.00,-56.00,+1.00,-1.00,-43.00,-12.00,-6.00,-20.00,+7.00,-28.00,-8.00,-29.00
-4.00,-1.00,-10.00,+1.00,+4.00,+46.00,+10.00,+19.00,-49.00,+3.00,+0.00,+10.00,+23.00,+35.00,+15.00,-36.00
-14.00,+7.00,+6.00,+0.00,+3.00,+20.00,+10.00,+3.00,-34.00,-2.00,-4.00,-13.00,-35.00,-32.00,-11.00,-72.00
-4.00,+0.00,-2.00,-1.00,+6.00,+28.00,+6.00,-15.00,-20.00,-3.00,-2.00,+8.00,+6.00,+12.00,+11.00,-86.00
-25.00,-6.00,+3.00,+3.00,-6.00,-39.00,+4.00,-16.00,+40.00,+11.00,+0.00,-7.00,+2.00,+4.00,+3.00,-33.00
+94.00,-6.00,-8.00,-6.00,-12.00,-19.00,-1.00,-2.00,+108.00,+4.00,+5.00,+15.00,-7.00,+0.00,-9.00,-47.00
-75.00,+5.00,+5.00,-6.00,-43.00,-10.00,+7.00,+2.00,+46.00,-9.00,-3.00,+4.00,-20.00,+6.00,+1.00,-16.00
+127.00,-9.00,-4.00,-2.00,-7.00,-10.00,+1.00,+13.00,-3.00,+16.00,+6.00,+13.00,+28.00,-34.00,-7.00,-77.00
-103.00,+12.00,+6.00,+9.00,+48.00,+21.00,+14.00,-3.00,-46.00,-6.00,-7.00,-3.00,+5.00,+3.00,-5.00,-82.00
-128.00,-59.00,-10.00,+4.00,+47.00,-3.00,+0.00,-14.00,-47.00,-26.00,-9.00,-2.00,-14.00,+12.00,-1.00,-91.00
+35.00,+78.00,+6.00,+1.00,+16.00,+12.00,+6.00,-28.00,-34.00,+6.00,+5.00,+5.00,+26.00,-43.00,-9.00,-51.00
+33.00,-10.00,-7.00,-6.00,-10.00,+3.00,-10.00,-23.00,+6.00,+1.00,+0.00,+1.00,+6.00,+32.00,+3.00,+35.00
+127.00,-8.00,-2.00,-2.00,-13.00,+21.00,+0.00,-14.00,-33.00,+1.00,+8.00,-2.00,+17.00,+0.00,-1.00,+92.00
+121.00,-7.00,-6.00,-2.00,-17.00,-7.00,-7.00,+4.00,-14.00,-2.00,+0.00,-4.00,-17.00,-13.00,+5.00,+70.00
+44.00,-17.00,-3.00,+0.00,+3.00,-11.00,-6.00,-8.00,+16.00,-15.00,-10.00,+7.00,+18.00,+11.00,+1.00,+83.00
-58.00,+1.00,-4.00,-5.00,-5.00,+2.00,-3.00,+0.00,+4.00,-6.00,-5.00,-3.00,-28.00,+8.00,-2.00,+127.00
+124.00,+6.00,-1.00,+3.00,-6.00,+12.00,-1.00,-1.00,+16.00,-6.00,-4.00,-3.00,-23.00,-11.00,-2.00,+89.00
-28.00,-12.00,+1.00,-3.00,-8.00,-17.00,+0.00,-5.00,-6.00,+12.00,+3.00,+2.00,-13.00,+5.00,+1.00,+47.00
+19.00,-13.00,+0.00,+0.00,+0.00,-5.00,-1.00,+2.00,-10.00,-2.00,+1.00,-38.00,+3.00,-6.00,-3.00,-3.00
-97.00,-11.00,-3.00,-1.00,+3.00,+5.00,+1.00,+2.00,+15.00,+0.00,+2.00,+8.00,+45.00,+10.00,-3.00,-27.00
-128.00,+29.00,+5.00,-4.00,-6.00,-6.00,+0.00,-5.00,+30.00,+1.00,+0.00,+18.00,-19.00,-4.00,-8.00,-37.00
-126.00,+0.00,-6.00,+0.00,-11.00,+1.00,-9.00,-7.00,-9.00,+0.00,+0.00,-18.00,-5.00,+1.00,-2.00,-58.00
-59.00,-9.00,+1.00,+0.00,+4.00,-8.00,+1.00,+26.00,+2.00,+1.00,+1.00,+10.00,-27.00,-8.00,-6.00,-25.00
-94.00,+10.00,+7.00,+0.00,-14.00,-2.00,+0.00,+7.00,+9.00,-8.00,+1.00,+5.00,+9.00,+32.00,+1.00,-20.00
+11.00,-30.00,+2.00,-1.00,+2.00,-1.00,-5.00,-8.00,+7.00,-1.00,-2.00,-11.00,-8.00,-27.00,-4.00,-14.00
+34.00,+31.00,-6.00,-3.00,-1.00,-5.00,-6.00,-1.00,+1.00,+5.00,+0.00,+2.00,+16.00,+4.00,+0.00,+0.00
+97.00,+1.00,+4.00,+2.00,+18.00,-2.00,-7.00,-8.00,+0.00,-13.00,-1.00,+3.00,+2.00,-15.00,-6.00,+2.00
+97.00,-9.00,-5.00,+1.00,+0.00,+7.00,-6.00,-1.00,+0.00,-3.00,-2.00,-7.00,+2.00,+9.00,-2.00,-9.00
+47.00,+10.00,+3.00,+5.00,+24.00,+8.00,+2.00,-6.00,-10.00,-2.00,-2.00,+8.00,+5.00,+10.00,+1.00,+9.00
+27.00,-4.00,+1.00,-3.00,-13.00,-11.00,-1.00,+1.00,+7.00,+6.00,+1.00,+0.00,-7.00,-6.00,+0.00,+9.00
+37.00,-35.00,-5.00,-4.00,-5.00,+5.00,+1.00,-2.00,+3.00,+3.00,-3.00,-9.00,-23.00,-8.00,-3.00,+0.00
+28.00,+43.00,+2.00,-3.00,-19.00,-13.00,-2.00,+8.00,+7.00,+0.00,+0.00,+1.00,-6.00,-2.00,-1.00,+4.00
-10.00,+30.00,+0.00,-5.00,-8.00,+3.00,+2.00,-4.00,-17.00,-6.00,-2.00,+0.00,-3.00,+3.00,+1.00,+24.00
-13.00,-5.00,+0.00,+1.00,-9.00,-26.00,-1.00,+8.00,-12.00,-7.00,-8.00,-3.00,+0.00,-13.00,-1.00,+5.00
-35.00,-13.00,-2.00,-2.00,+6.00,+1.00,+4.00,-2.00,+7.00,-1.00,-2.00,+1.00,-1.00,+4.00,-2.00,-8.00
-12.00,+16.00,-3.00,-3.00,+5.00,-1.00,+4.00,-7.00,+2.00,-1.00,+0.00,+3.00,-1.00,-3.00,+1.00,-2.00
-15.00,-4.00,+5.00,+0.00,-10.00,+2.00,-4.00,+2.00,+6.00,+3.00,+0.00,-4.00,+4.00,-1.00,+0.00,+0.00
-16.00,+10.00,-1.00,+0.00,+6.00,-4.00,-1.00,+9.00,-4.00,+0.00,-4.00,-9.00,-5.00,+3.00,-2.00,+8.00
-19.00,+9.00,+1.00,-2.00,-11.00,-9.00,+3.00,+2.00,+24.00,+9.00,-2.00,+6.00,-4.00,-1.00,-2.00,-3.00
-15.00,-23.00,-3.00,+1.00,+9.00,-6.00,+1.00,+3.00,-14.00,-1.00,+0.00,+0.00,-8.00,-5.00,+0.00,+3.00
-6.00,-11.00,-4.00,+0.00,-3.00,+14.00,+6.00,+2.00,-12.00,-10.00,-6.00,-2.00,+4.00,+5.00,+0.00,-6.00
+5.00,-8.00,+0.00,-3.00,-9.00,-2.00,-1.00,-13.00,+4.00,+0.00,+0.00,+1.00,-19.00,+2.00,+1.00,-11.00
+0.00,+34.00,+4.00,-1.00,+1.00,+2.00,+2.00,+2.00,-10.00,+0.00,+3.00,+1.00,-5.00,+14.00,-2.00,-16.00
-7.00,+3.00,+2.00,+0.00,+9.00,+7.00,+2.00,-2.00,+16.00,+6.00,-4.00,-2.00,+1.00,-17.00,+0.00,-10.00
-54.00,-12.00,-3.00,-3.00,-3.00,-3.00,-3.00,-4.00,+5.00,+6.00,+1.00,+2.00,+2.00,+6.00,-2.00,+14.00
-26.00,+7.00,-1.00,+0.00,-3.00,+6.00,-1.00,-3.00,-3.00,+0.00,+0.00,+1.00,+1.00,-4.00,-3.00,-3.00
-23.00,-17.00,-1.00,+2.00,-1.00,+2.00,+0.00,-8.00,-2.00,-6.00,+1.00,-8.00,+1.00,-5.00,-2.00,-4.00
-4.00,-10.00,+0.00,+1.00,+9.00,-1.00,-3.00,-8.00,+0.00,-8.00,-4.00,-2.00,+1.00,+4.00,-3.00,-15.00
-16.00,-35.00,-5.00,-1.00,-9.00,-3.00,-1.00,-2.00,-7.00,-5.00,-1.00,-2.00,-2.00,+1.00,-2.00,-15.00
+15.00,+36.00,+1.00,-1.00,+1.00,+7.00,+0.00,-1.00,-2.00,-4.00,-1.00,+1.00,+3.00,-4.00,-1.00,-10.00
+22.00,+31.00,+4.00,+0.00,-18.00,+1.00,+2.00,+7.00,+3.00,-4.00,+0.00,+3.00,-5.00,-3.00,+0.00,-12.00
+29.00,+4.00,-4.00,+1.00,+22.00,+4.00,-1.00,-5.00,-10.00,-5.00,+1.00,+0.00,-3.00,+1.00,-1.00,-4.00
+34.00,-19.00,-1.00,+2.00,+6.00,+5.00,-1.00,-9.00,+4.00,-5.00,+0.00,+0.00,-4.00,-3.00,-2.00,-2.00
+12.00,-20.00,-5.00,-4.00,-4.00,+2.00,-2.00,+5.00,+1.00,+2.00,+0.00,-3.00,+3.00,+1.00,+0.00,-3.00
+5.00,-9.00,+0.00,-2.00,+4.00,-1.00,-3.00,-2.00,-4.00,+3.00,-1.00,+1.00,-3.00,-4.00,-2.00,-4.00
+2.00,+1.00,+3.00,+0.00,-16.00,-7.00,-3.00,+1.00,-6.00,-5.00,-3.00,-2.00,-5.00,-2.00,-2.00,+0.00
-103.00,-12.00,+0.00,-1.00,-4.00,-7.00,+1.00,+6.00,+3.00,+2.00,-3.00,+1.00,+4.00,+1.00,+1.00,+5.00
-44.00,+4.00,-3.00,+0.00,+8.00,-1.00,+0.00,+13.00,-1.00,+4.00,+0.00,-4.00,+2.00,+0.00,+2.00,+0.00
-13.00,+5.00,+0.00,-1.00,-3.00,-2.00,-3.00,+2.00,-5.00,+0.00,-2.00,+0.00,-2.00,-4.00,+2.00,+8.00
+34.00,-13.00,-1.00,-3.00,-3.00,-1.00,+1.00,+12.00,-3.00,-4.00,-2.00,+2.00,-5.00,-2.00,+1.00,+6.00
+82.00,+6.00,-2.00,-2.00,-2.00,-3.00,-2.00,-4.00,-1.00,+61.00,-1.00,-3.00,+6.00,+2.00,-3.00,+2.00
+46.00,+11.00,+2.00,+1.00,-8.00,-1.00,+1.00,+2.00,+5.00,+44.00,+2.00,-1.00,+3.00,-1.00,-1.00,+0.00
+13.00,-15.00,-1.00,-1.00,+3.00,-1.00,-2.00,-5.00,-6.00,+11.00,-1.00,-1.00,-3.00,-4.00,-1.00,+10.00
+12.00,-9.00,-3.00,-2.00,+3.00,+1.00,-1.00,+4.00,-12.00,-14.00,+0.00,+0.00,+0.00,-1.00,+0.00,+2.00
+26.00,+15.00,-1.00,-1.00,-3.00,+0.00,+0.00,+5.00,+14.00,-32.00,+1.00,-1.00,-12.00,-1.00,+0.00,+0.00
-9.00,+2.00,+2.00,-1.00,+1.00,-1.00,+1.00,-16.00,+3.00,-25.00,-1.00,+0.00,+2.00,-1.00,-1.00,+1.00
-5.00,-13.00,+0.00,-2.00,+0.00,-1.00,+0.00,+1.00,-5.00,-16.00,-2.00,+3.00,+3.00,-3.00,-1.00,+2.00
-11.00,+2.00,+1.00,-2.00,+2.00,+3.00,-2.00,-5.00,-1.00,-16.00,-5.00,-2.00,-2.00,+0.00,+2.00,+1.00
+9.00,+3.00,-1.00,-4.00,-6.00,-2.00,-1.00,-3.00,-5.00,-18.00,+1.00,-3.00,-8.00,-2.00,+1.00,+0.00
-2.00,-8.00,-3.00,-2.00,-3.00,+2.00,-1.00,-1.00,+0.00,-11.00,-3.00,-3.00,+3.00,-1.00,-2.00,-2.00
-15.00,+0.00,-2.00,+0.00,+3.00,-2.00,-2.00,-8.00,+0.00,-10.00,-3.00,-1.00,-4.00,-2.00,-4.00,-2.00
-16.00,-10.00,-2.00,+2.00,-4.00,-3.00,-2.00,-6.00,-5.00,+1.00,+2.00,-1.00,+1.00,+1.00,-2.00,-1.00
+3.00,+38.00,+0.00,+1.00,-2.00,-6.00,-1.00,-2.00,-3.00,-5.00,-1.00,-1.00,-3.00,-2.00,-3.00,-1.00
+12.00,+40.00,-1.00,+0.00,-1.00,+0.00,-1.00,+1.00,+1.00,-9.00,+0.00,-1.00,-2.00,-2.00,-3.00,+2.00
-9.00,-17.00,-2.00,+0.00,+2.00,-2.00,-2.00,-3.00,-3.00,-5.00,+0.00,+1.00,-2.00,+0.00,-3.00,-3.00
-14.00,+1.00,-1.00,+0.00,-1.00,+1.00,+0.00,+1.00,+13.00,+8.00,-1.00,-1.00,-1.00,-1.00,-4.00,-3.00
+1.00,-23.00,-2.00,-1.00,-4.00,-2.00,-1.00,-1.00,+9.00,-7.00,-2.00,+0.00,+5.00,-1.00,-2.00,+1.00
-9.00,-13.00,-5.00,+0.00,+2.00,+0.00,-1.00,+1.00,+8.00,-7.00,-2.00,-3.00,+0.00,-2.00,-2.00,+2.00
+12.00,+10.00,+2.00,+0.00,+0.00,+3.00,+2.00,-2.00,+2.00,-4.00,+1.00,+0.00,-3.00,-2.00,+1.00,+1.00
-11.00,-2.00,-1.00,-1.00,-1.00,+0.00,+0.00,-1.00,-7.00,+0.00,-2.00,-2.00,-1.00,-2.00,-1.00,+0.00
-1.00,-5.00,+0.00,-3.00,-2.00,+1.00,-2.00,-1.00,-16.00,-8.00,-5.00,-1.00,-1.00,+2.00,-2.00,+1.00
-3.00,-4.00,+0.00,+1.00,-3.00,+2.00,-1.00,+7.00,-17.00,-5.00,+0.00,+0.00,-4.00,+0.00,-2.00,+0.00
+3.00,-3.00,-2.00,-1.00,+1.00,+3.00,-1.00,+4.00,-6.00,+3.00,-3.00,-1.00,-1.00,-2.00,-2.00,+1.00
+3.00,-2.00,+3.00,+3.00,+1.00,+3.00,+0.00,+3.00,-1.00,+8.00,+3.00,+0.00,+0.00,-1.00,+2.00,+1.00
+0.00,-1.00,-2.00,-2.00,-3.00,+3.00,+1.00,+2.00,-6.00,-1.00,-1.00,-2.00,-1.00,+0.00,+0.00,+2.00
-5.00,-13.00,-2.00,-1.00,+0.00,+2.00,-3.00,-1.00,-3.00,+5.00,-1.00,+2.00,+1.00,+1.00,+2.00,+5.00
