-14.00,-40.00,-4.00,-2.00,+0.00,+1.00,-2.00,-17.00,-2.00,+0.00,+0.00,-8.00,-6.00,-2.00,+0.00,-2.00
-5.00,+40.00,+3.00,+1.00,-2.00,-1.00,+8.00,+31.00,+11.00,+3.00,-2.00,+2.00,+2.00,+1.00,-2.00,+3.00
+2.00,+9.00,-2.00,+0.00,-3.00,-4.00,-1.00,+10.00,+5.00,-1.00,-1.00,+2.00,-2.00,+0.00,-1.00,+3.00
+19.00,+8.00,+5.00,+1.00,+6.00,-2.00,-1.00,+2.00,-8.00,-4.00,-2.00,+0.00,+1.00,+0.00,-4.00,-5.00
-11.00,-26.00,-3.00,-4.00,-2.00,-1.00,-5.00,-5.00,-6.00,+2.00,+0.00,+1.00,+3.00,+0.00,-1.00,-4.00
-5.00,+29.00,+0.00,+0.00,+0.00,+0.00,-4.00,-17.00,+6.00,+3.00,+1.00,-1.00,-2.00,+1.00,+1.00,+2.00
-13.00,-40.00,-7.00,-2.00,-5.00,-4.00,-2.00,-5.00,-3.00,+1.00,-4.00,+2.00,+5.00,+0.00,-4.00,-6.00
+32.00,+32.00,+5.00,+1.00,+8.00,-3.00,+2.00,+9.00,-13.00,-16.00,-3.00,-3.00,-5.00,+0.00,+2.00,+5.00
-20.00,-4.00,-4.00,-2.00,+2.00,+0.00,-1.00,-1.00,+6.00,-11.00,-3.00,-4.00,-17.00,+3.00,-1.00,-1.00
+9.00,-14.00,-3.00,+0.00,-4.00,+3.00,+0.00,-2.00,-1.00,+36.00,+6.00,+4.00,+11.00,-6.00,+2.00,+2.00
-16.00,-20.00,-3.00,-3.00,+0.00,+1.00,-1.00,+1.00,-7.00,-5.00,-3.00,-8.00,+9.00,+2.00,-4.00,-2.00
+7.00,+4.00,-2.00,-2.00,-4.00,-2.00,-1.00,-7.00,-10.00,-1.00,-2.00,+3.00,+7.00,-9.00,+8.00,-11.00
-18.00,+4.00,-1.00,-1.00,-1.00,-3.00,+0.00,-10.00,+17.00,+3.00,+2.00,-6.00,-30.00,+0.00,-20.00,+10.00
-12.00,-6.00,-3.00,+0.00,-1.00,-3.00,-3.00,+9.00,-10.00,-15.00,-6.00,-18.00,+5.00,-1.00,+5.00,-4.00
+10.00,-37.00,-2.00,-2.00,-4.00,+0.00,-2.00,+2.00,+5.00,+5.00,+0.00,+19.00,+5.00,+3.00,+1.00,+0.00
+10.00,+31.00,-1.00,-2.00,-7.00,-1.00,-4.00,-6.00,-3.00,+5.00,+0.00,-8.00,-8.00,-5.00,-5.00,+2.00
+17.00,+31.00,+1.00,-1.00,-2.00,+1.00,+9.00,-5.00,-12.00,-11.00,-6.00,-4.00,+10.00,-2.00,+8.00,-4.00
-6.00,+1.00,-3.00,-2.00,+0.00,+0.00,+2.00,-8.00,-2.00,-2.00,+3.00,+5.00,-1.00,-1.00,-3.00,-4.00
+11.00,-44.00,+7.00,+1.00,-30.00,+2.00,-13.00,+1.00,-6.00,+5.00,+0.00,+3.00,-6.00,-6.00,-6.00,-2.00
-26.00,-61.00,-6.00,+0.00,+13.00,-12.00,-17.00,+0.00,-3.00,-8.00,-1.00,+5.00,+12.00,+8.00,-11.00,-5.00
-4.00,-20.00,-2.00,+1.00,+22.00,+7.00,-3.00,+9.00,+10.00,+4.00,-3.00,+3.00,+6.00,-6.00,+26.00,-2.00
-12.00,-3.00,-2.00,-2.00,-7.00,+5.00,+4.00,-12.00,-30.00,-4.00,+0.00,-1.00,-2.00,+1.00,+2.00,-4.00
+13.00,+59.00,-3.00,+1.00,+32.00,-3.00,-3.00,+0.00,+11.00,+1.00,-3.00,-15.00,-10.00,-1.00,-2.00,-5.00
-11.00,-33.00,+1.00,-5.00,-29.00,+3.00,+1.00,-1.00,-16.00,-17.00,-2.00,+11.00,-15.00,-2.00,-7.00,+0.00
-2.00,-31.00,+0.00,+0.00,-13.00,-2.00,+1.00,+6.00,+29.00,+0.00,+3.00,+2.00,+23.00,-11.00,-52.00,+4.00
+10.00,-7.00,+0.00,+0.00,+17.00,-5.00,-4.00,+0.00,+0.00,-7.00,-5.00,+2.00,-8.00,+0.00,+9.00,-8.00
+20.00,+11.00,+0.00,+0.00,-8.00,-2.00,+1.00,-3.00,+48.00,+5.00,+1.00,+21.00,+4.00,+6.00,+31.00,+11.00
-8.00,+11.00,-3.00,-1.00,+1.00,-2.00,+7.00,-1.00,+76.00,+38.00,+2.00,-7.00,+9.00,-13.00,-2.00,-4.00
-6.00,-13.00,-2.00,-6.00,-30.00,-13.00,-1.00,+0.00,-71.00,-17.00,-5.00,-60.00,-22.00,+7.00,-3.00,-6.00
-5.00,+28.00,+0.00,+0.00,+3.00,+2.00,-10.00,-7.00,+26.00,-8.00,-7.00,+28.00,+22.00,-30.00,-8.00,+1.00
-12.00,+7.00,-1.00,-3.00,-4.00,-1.00,-60.00,-4.00,-34.00,-30.00,-2.00,-47.00,-21.00,+11.00,-9.00,-3.00
+6.00,-35.00,-7.00,+0.00,+13.00,+1.00,+21.00,+2.00,+11.00,+41.00,+0.00,+8.00,-26.00,-2.00,+15.00,-7.00
+16.00,+103.00,+7.00,-2.00,-12.00,-3.00,-31.00,+2.00,+5.00,+9.00,+0.00,+16.00,-33.00,+3.00,+23.00,+4.00
-7.00,-35.00,-6.00,+0.00,+2.00,+0.00,+40.00,+25.00,+42.00,-2.00,+0.00,-16.00,+33.00,+1.00,-4.00,+4.00
-28.00,+17.00,-6.00,-5.00,-6.00,-24.00,-53.00,+18.00,-8.00,-1.00,-3.00,+11.00,+0.00,+3.00,-7.00,-1.00
-3.00,+6.00,+8.00,+4.00,-2.00,+19.00,+7.00,+6.00,-2.00,-10.00,-3.00,-3.00,+26.00,-2.00,-4.00,-4.00
-27.00,-58.00,-19.00,-11.00,-64.00,+3.00,+4.00,-12.00,-13.00,-1.00,+1.00,+9.00,-18.00,-4.00,+0.00,-6.00
+29.00,+55.00,+17.00,+15.00,+80.00,+19.00,-13.00,+1.00,+16.00,-5.00,-2.00,+18.00,-9.00,+6.00,-4.00,+3.00
+0.00,-53.00,+6.00,+5.00,+25.00,-6.00,+17.00,-2.00,+0.00,+2.00,+3.00,+6.00,+26.00,-6.00,-10.00,-7.00
+8.00,-17.00,+4.00,+0.00,-26.00,-12.00,-40.00,+4.00,+19.00,-13.00,-6.00,-17.00,-17.00,-11.00,-10.00,+3.00
-10.00,-30.00,+1.00,+3.00,+25.00,+3.00,+64.00,+4.00,-35.00,-10.00,-1.00,-7.00,-43.00,-6.00,+48.00,-9.00
-14.00,-10.00,-13.00,-10.00,-25.00,-5.00,-2.00,-19.00,-47.00,+13.00,+5.00,-23.00,+20.00,+11.00,-21.00,+7.00
-14.00,+17.00,-3.00,+1.00,-18.00,+2.00,+27.00,-3.00,+29.00,-13.00,-2.00,-1.00,+9.00,+0.00,+8.00,+0.00
+3.00,-17.00,-10.00,-3.00,+21.00,-1.00,-2.00,-11.00,-6.00,+8.00,+1.00,+0.00,+2.00,+3.00,-20.00,+14.00
-17.00,+4.00,+2.00,-3.00,-4.00,-5.00,-13.00,-1.00,-11.00,+2.00,+1.00,+27.00,+40.00,-1.00,-11.00,-5.00
-9.00,-8.00,-3.00,-3.00,-23.00,-6.00,-12.00,-12.00,-9.00,-12.00,-8.00,-4.00,-18.00,+3.00,+6.00,-5.00
-10.00,+5.00,-3.00,-5.00,-8.00,-6.00,+31.00,-10.00,+46.00,-12.00,+5.00,-10.00,-17.00,-20.00,+1.00,-3.00
-7.00,-29.00,+1.00,-1.00,-39.00,-1.00,+0.00,+6.00,-8.00,+2.00,-5.00,+12.00,+0.00,+34.00,-28.00,-14.00
+24.00,+78.00,-1.00,+1.00,+25.00,-5.00,-16.00,+4.00,+21.00,+13.00,+4.00,+5.00,+11.00,-4.00,+38.00,+4.00
+28.00,-17.00,-3.00,+0.00,+19.00,+12.00,-11.00,-4.00,-34.00,-3.00,+1.00,-9.00,-2.00,+14.00,+4.00,+2.00
+8.00,+51.00,+7.00,+7.00,+49.00,+27.00,+40.00,+1.00,-56.00,-9.00,-4.00,-11.00,-7.00,+5.00,-9.00,-9.00
-8.00,-17.00,+7.00,+1.00,+3.00,+6.00,-2.00,-1.00,+45.00,+11.00,-1.00,-7.00,-5.00,-6.00,+4.00,-4.00
-4.00,-26.00,+0.00,-1.00,-2.00,-2.00,+5.00,-3.00,+6.00,-13.00,-2.00,+0.00,+29.00,+4.00,-19.00,-5.00
+5.00,-28.00,-2.00,-6.00,-27.00,-18.00,-7.00,-5.00,+12.00,-7.00,-2.00,-8.00,-18.00,-3.00,+5.00,+3.00
+0.00,-26.00,-16.00,-12.00,-37.00,-9.00,-6.00,-19.00,-22.00,-4.00,-3.00,+3.00,+7.00,-5.00,-1.00,-4.00
+7.00,+84.00,+1.00,+3.00,+6.00,-1.00,+10.00,-1.00,-38.00,-4.00,+1.00,+3.00,-17.00,+7.00,+9.00,+7.00
-17.00,-65.00,-5.00,-1.00,+22.00,+7.00,-6.00,-6.00,-18.00,+10.00,-4.00,+17.00,+22.00,-4.00,-14.00,-5.00
+16.00,+60.00,+14.00,+2.00,-14.00,-2.00,+0.00,+14.00,+24.00,+3.00,+3.00,+9.00,+6.00,-2.00,+0.00,-8.00
-8.00,-8.00,-7.00,-8.00,-56.00,-6.00,-8.00,-7.00,-8.00,-16.00,-8.00,-17.00,-17.00,-7.00,-8.00,+6.00
+32.00,+22.00,-4.00,+4.00,+37.00,+5.00,+25.00,+2.00,-45.00,-4.00,+4.00,-1.00,+6.00,+17.00,+20.00,+6.00
-25.00,-95.00,-5.00,+2.00,+7.00,-4.00,-24.00,+0.00,+40.00,-1.00,+2.00,-9.00,-12.00,-4.00,-14.00,+4.00
-3.00,-43.00,-1.00,+1.00,+7.00,+4.00,+12.00,-9.00,+14.00,+11.00,-4.00,-6.00,+22.00,-4.00,-16.00,-3.00
+27.00,+23.00,+15.00,+3.00,+4.00,-5.00,-40.00,+13.00,+58.00,+34.00,+1.00,+12.00,-88.00,-8.00,-24.00,+9.00
+7.00,+44.00,-4.00,-1.00,-10.00,-5.00,+11.00,+12.00,-72.00,-29.00,-3.00,-11.00,+38.00,-8.00,+9.00,-12.00
+0.00,+37.00,-3.00,-2.00,-2.00,+0.00,-2.00,-7.00,+50.00,-81.00,-12.00,-2.00,+23.00,+5.00,+0.00,-7.00
-24.00,-9.00,-6.00,-6.00,-17.00,-4.00,+1.00,-1.00,-34.00,+32.00,+4.00,+21.00,-8.00,+0.00,-18.00,+23.00
-18.00,-34.00,+2.00,-2.00,-28.00,+1.00,+12.00,+2.00,+29.00,+18.00,-1.00,+4.00,+3.00,-3.00,+43.00,+1.00
-7.00,+10.00,-14.00,-6.00,+20.00,+2.00,-30.00,-7.00,+50.00,+8.00,+0.00,-9.00,-20.00,-6.00,+1.00,+1.00
+13.00,-65.00,+24.00,+10.00,+21.00,+9.00,-1.00,+11.00,-11.00,+12.00,+3.00,+4.00,-17.00,+0.00,-14.00,-6.00
-33.00,+4.00,-7.00,-2.00,-13.00,+11.00,+25.00,-4.00,-26.00,-43.00,-9.00,-13.00,-25.00,-8.00,+2.00,-26.00
+4.00,-56.00,-9.00,-1.00,+19.00,-8.00,-13.00,-12.00,-19.00,+0.00,-1.00,+14.00,+43.00,+6.00,+4.00,+11.00
-25.00,+18.00,-6.00,-4.00,-22.00,+0.00,+47.00,-12.00,+0.00,-12.00,-3.00,-10.00,-10.00,-7.00,-1.00,+0.00
+45.00,+112.00,+8.00,+3.00,+6.00,+9.00,+20.00,+9.00,-24.00,-21.00,-4.00,+0.00,+14.00,+1.00,+1.00,-8.00
+25.00,-68.00,+4.00,-1.00,-6.00,-14.00,-27.00,+1.00,+59.00,+49.00,+0.00,-13.00,-36.00,-1.00,-1.00,+12.00
-10.00,-14.00,-3.00,-1.00,+2.00,+9.00,+29.00,+1.00,-102.00,-37.00,-1.00,+4.00,+36.00,+4.00,-5.00,-21.00
-9.00,-128.00,-9.00,-4.00,-9.00,+0.00,-23.00,-5.00,+68.00,+31.00,+1.00,+9.00,-1.00,-5.00,-3.00,+14.00
+16.00,+127.00,+6.00,+2.00,+11.00,-6.00,-9.00,+5.00,-60.00,+0.00,-1.00,-4.00,-1.00,+1.00,-15.00,-14.00
-10.00,-40.00,-6.00,-2.00,+2.00,-7.00,+4.00,-2.00,+45.00,-33.00,+7.00,+9.00,-26.00,+3.00,+19.00,+18.00
+23.00,-4.00,-4.00,-1.00,+5.00,-2.00,-8.00,+0.00,-80.00,+38.00,+12.00,-3.00,-20.00,-7.00,-8.00,-8.00
+20.00,+90.00,+15.00,+1.00,-8.00,-4.00,+0.00,+1.00,+17.00,-48.00,-3.00,-30.00,+29.00,-3.00,+4.00,-4.00
-29.00,-55.00,-11.00,-4.00,-8.00,+3.00,-8.00,-12.00,-1.00,+45.00,-4.00,+18.00,-2.00,+2.00,+6.00,+7.00
-13.00,+1.00,-9.00,-2.00,-9.00,-7.00,-14.00,+0.00,-11.00,-6.00,-2.00,-19.00,+19.00,-11.00,+10.00,-15.00
-23.00,+36.00,-1.00,+1.00,+5.00,+7.00,+12.00,-1.00,-16.00,-2.00,-2.00,+1.00,-5.00,-17.00,-33.00,-6.00
+41.00,-1.00,+4.00,-2.00,-8.00,-3.00,-14.00,+4.00,-43.00,-23.00,-2.00,+6.00,-35.00,+2.00,+2.00,-14.00
-56.00,-71.00,-11.00,-4.00,+36.00,+3.00,+3.00,-6.00,-17.00,+5.00,+1.00,+1.00,-4.00,+5.00,-9.00,-9.00
-16.00,+100.00,-1.00,-2.00,-20.00,-9.00,-5.00,-2.00,-8.00,-14.00,-2.00,-5.00,-5.00,+12.00,+19.00,-3.00
+36.00,+87.00,+18.00,+0.00,+0.00,+0.00,+1.00,-25.00,+58.00,+10.00,-3.00,+3.00,+13.00,-7.00,-17.00,+0.00
-11.00,-104.00,+4.00,+5.00,+27.00,-3.00,-2.00,+15.00,-31.00,-6.00,+3.00,+9.00,+33.00,+2.00,+3.00,+8.00
+19.00,+82.00,-3.00,+0.00,-12.00,-9.00,-4.00,-7.00,+18.00,+8.00,+0.00,+8.00,-53.00,-7.00,-4.00,+0.00
+0.00,-70.00,+12.00,+1.00,-5.00,-5.00,+1.00,+5.00,-10.00,-6.00,+0.00,-2.00,-31.00,-5.00,+1.00,-3.00
-40.00,-7.00,-11.00,+0.00,-22.00,+3.00,+0.00,-12.00,+15.00,-2.00,-2.00,-25.00,+61.00,+8.00,+12.00,+7.00
+2.00,+27.00,-4.00,+2.00,+42.00,+4.00,+3.00,-5.00,+11.00,+11.00,+2.00,-7.00,-18.00,-9.00,-5.00,-4.00
+5.00,-3.00,-1.00,-4.00,-22.00,-3.00,-4.00,+0.00,-6.00,+24.00,+2.00,-1.00,+32.00,+1.00,+7.00,+12.00
-5.00,-36.00,-11.00,+0.00,+14.00,+0.00,+26.00,+0.00,+11.00,-42.00,-6.00,+7.00,-28.00,-3.00,-7.00,-3.00
-13.00,-13.00,+3.00,+2.00,-1.00,-3.00,+18.00,+11.00,+13.00,+33.00,-4.00,+2.00,+8.00,+2.00,+2.00,+1.00
-19.00,+3.00,-2.00,-3.00,-27.00,-9.00,-11.00,-9.00,+25.00,-17.00,-9.00,+28.00,+12.00,+3.00,-8.00,-15.00
+3.00,-28.00,-4.00,-1.00,-7.00,-2.00,-18.00,+2.00,-18.00,+30.00,+10.00,-21.00,-67.00,-7.00,-8.00,+17.00
+15.00,+24.00,+10.00,+0.00,+8.00,+3.00,-3.00,+0.00,-22.00,-27.00,-11.00,-24.00,+47.00,+2.00,+37.00,-7.00
-2.00,-112.00,-21.00,-6.00,-30.00,-17.00,-12.00,-1.00,+19.00,-6.00,+9.00,+6.00,+10.00,+14.00,-35.00,+15.00
+8.00,+8.00,+14.00,+5.00,+12.00,+4.00,+7.00,+9.00,+14.00,+5.00,-5.00,-17.00,-33.00,+3.00,+19.00,+5.00
-7.00,-58.00,-9.00,-2.00,-7.00,+0.00,+0.00,-9.00,+40.00,+6.00,+1.00,-10.00,+19.00,+0.00,-14.00,+3.00
+37.00,+36.00,-5.00,-3.00,-7.00,+4.00,-12.00,-7.00,+6.00,+19.00,+0.00,+12.00,-42.00,-7.00,-14.00,-5.00
+55.00,-6.00,+15.00,+6.00,+25.00,-4.00,+9.00,+20.00,+16.00,-4.00,-1.00,+10.00,+34.00,+19.00,+15.00,+0.00
-67.00,-56.00,-14.00,-6.00,-8.00,+4.00,-15.00,-20.00,-7.00,-2.00,-2.00,+11.00,+11.00,+1.00,+9.00,-4.00
+1.00,+46.00,+3.00,-7.00,-57.00,-7.00,+13.00,+4.00,+10.00,-68.00,-5.00,+14.00,+14.00,+3.00,-28.00,+2.00
-23.00,-17.00,+3.00,+9.00,+16.00,+3.00,-16.00,-5.00,+63.00,+23.00,+2.00,-11.00,-3.00,-22.00,-9.00,-6.00
-8.00,+68.00,+1.00,+0.00,+17.00,-11.00,+4.00,+6.00,+32.00,+4.00,+1.00,-9.00,-42.00,+12.00,+6.00,+7.00
+46.00,+14.00,+5.00,+0.00,-21.00,+2.00,-11.00,+2.00,-66.00,+20.00,+1.00,+0.00,+48.00,+30.00,-11.00,-1.00
+1.00,-42.00,-3.00,-3.00,-3.00,+0.00,-9.00,+1.00,+65.00,+8.00,+1.00,+9.00,+52.00,-4.00,+17.00,+7.00
-28.00,-40.00,-15.00,-1.00,+44.00,-1.00,+6.00,-3.00,-94.00,-19.00,-3.00,+2.00,+9.00,-5.00,-14.00,-10.00
+8.00,-12.00,+4.00,-2.00,-1.00,-5.00,+1.00,-1.00,+62.00,-15.00,-12.00,-12.00,-28.00,-18.00,+4.00,-12.00
+4.00,-76.00,-14.00,-3.00,-22.00,-12.00,+11.00,-6.00,-44.00,+1.00,+6.00,-1.00,-81.00,-36.00,-2.00,+0.00
-17.00,-10.00,-17.00,-6.00,+11.00,+18.00,-8.00,-7.00,+2.00,+3.00,-9.00,-4.00,+0.00,+22.00,+7.00,-1.00
+34.00,+54.00,+18.00,+1.00,-24.00,+6.00,+17.00,+15.00,-24.00,+1.00,+0.00,+16.00,+37.00,+1.00,-1.00,+5.00
-29.00,-9.00,-3.00,+0.00,-12.00,-13.00,-12.00,+1.00,+13.00,-12.00,-2.00,-9.00,-37.00,+13.00,+5.00,+0.00
-18.00,+73.00,+2.00,+2.00,+65.00,+16.00,-4.00,+1.00,-41.00,+3.00,+2.00,-1.00,+11.00,-14.00,-11.00,-5.00
+35.00,-67.00,+4.00,+2.00,+10.00,-12.00,+7.00,+11.00,-6.00,+15.00,+8.00,+1.00,+30.00,+2.00,+4.00,+11.00
-16.00,-19.00,-7.00,+0.00,+10.00,+16.00,-37.00,-43.00,+36.00,-7.00,+8.00,+4.00,-19.00,+4.00,-9.00,+3.00
+27.00,+33.00,+3.00,+1.00,+19.00,+18.00,+5.00,+9.00,-9.00,-14.00,-20.00,-2.00,-12.00,-8.00,+4.00,+13.00
+6.00,+50.00,+2.00,-4.00,-33.00,-7.00,+0.00,-3.00,+57.00,+49.00,+3.00,+1.00,+13.00,-19.00,-8.00,-16.00
-8.00,-31.00,-4.00,+0.00,-12.00,-13.00,-27.00,-4.00,-20.00,-16.00,-7.00,-4.00,-3.00,+1.00,+7.00,+3.00
+6.00,+55.00,+8.00,-1.00,+24.00,+7.00,+7.00,+1.00,-66.00,-31.00,-8.00,-3.00,-7.00,+9.00,-6.00,-21.00
+0.00,-31.00,-7.00,-4.00,-1.00,+15.00,-6.00,-5.00,-2.00,+21.00,+15.00,+7.00,+0.00,-3.00,+4.00,-7.00
-47.00,-17.00,-11.00,-2.00,-17.00,+0.00,+0.00,-12.00,-21.00,-46.00,-4.00,+6.00,+21.00,+22.00,+2.00,+6.00
+36.00,+2.00,+1.00,+2.00,+23.00,-16.00,+9.00,+6.00,+9.00,+45.00,+2.00,-1.00,-65.00,-13.00,+2.00,+5.00
-33.00,+33.00,+9.00,-2.00,-40.00,-4.00,-3.00,+4.00,-39.00,+7.00,+1.00,+10.00,+35.00,-10.00,+0.00,+5.00
-17.00,+17.00,-6.00,+0.00,+15.00,-18.00,-3.00,-5.00,-14.00,-14.00,-5.00,-24.00,-85.00,-1.00,-4.00,-14.00
+37.00,+32.00,+4.00,-8.00,-6.00,-15.00,-9.00,+6.00,+2.00,-14.00,-3.00,+0.00,+29.00,-19.00,+2.00,+5.00
-16.00,-41.00,-6.00,-1.00,-12.00,+14.00,+5.00,-4.00,+7.00,-7.00,-4.00,-30.00,-20.00,+7.00,-9.00,-8.00
+56.00,+55.00,+22.00,+8.00,+3.00,-1.00,+9.00,+31.00,+19.00,+11.00,-2.00,+12.00,+9.00,-22.00,+28.00,+0.00
-13.00,-66.00,-14.00,-2.00,+1.00,+16.00,-1.00,-11.00,-24.00,+6.00,+5.00,+9.00,+20.00,-16.00,+0.00,+7.00
-24.00,-30.00,+4.00,+3.00,+2.00,-9.00,+1.00,-3.00,+9.00,-7.00,-1.00,+3.00,+23.00,+49.00,+17.00,+18.00
+6.00,+63.00,+0.00,-3.00,-17.00,+4.00,+7.00,-5.00,+15.00,+19.00,+1.00,+9.00,+46.00,-17.00,-26.00,-4.00
-18.00,-34.00,-14.00,-6.00,-22.00,-35.00,-6.00,-4.00,-1.00,+6.00,-3.00,-11.00,-33.00,-4.00,-18.00,-9.00
-8.00,-15.00,+0.00,-4.00,+8.00,+0.00,+3.00,+6.00,-18.00,-4.00,+5.00,+4.00,+15.00,-9.00,+4.00,+34.00
-3.00,+26.00,+1.00,+6.00,+66.00,+15.00,+3.00,-1.00,-39.00,-16.00,-5.00,-2.00,-14.00,+5.00,+4.00,-16.00
+19.00,+52.00,+4.00,-1.00,-52.00,-19.00,+3.00,+11.00,+36.00,+9.00,-2.00,+9.00,-1.00,+2.00,+17.00,+16.00
-24.00,-13.00,-8.00,+0.00,+22.00,-26.00,-11.00,-4.00,+13.00,-9.00,-4.00,-7.00,+18.00,+18.00,-13.00,+3.00
-15.00,+5.00,+3.00,+3.00,+23.00,+13.00,-4.00,-16.00,-99.00,+15.00,+1.00,-6.00,-39.00,+4.00,+1.00,-15.00
+24.00,-6.00,-5.00,-3.00,-15.00,+4.00,+0.00,-2.00,+54.00,-9.00,+1.00,-11.00,-73.00,-2.00,-5.00,+12.00
-23.00,+11.00,+5.00,-1.00,-2.00,+9.00,+0.00,+4.00,+45.00,+4.00,-3.00,+3.00,+79.00,+0.00,+8.00,+3.00
+12.00,-8.00,-4.00,-3.00,-14.00,+11.00,+20.00,+14.00,-33.00,+8.00,-4.00,-24.00,+75.00,-9.00,-8.00,-18.00
-32.00,-8.00,-6.00,-2.00,-18.00,-35.00,-2.00,+5.00,+8.00,-11.00,-3.00,+26.00,-25.00,+2.00,+2.00,+4.00
-39.00,-49.00,+6.00,+0.00,-13.00,-4.00,+4.00,+19.00,+52.00,+24.00,+2.00,-11.00,-8.00,-16.00,+0.00,+6.00
+28.00,+71.00,+6.00,+2.00,+15.00,+17.00,-6.00,-6.00,-25.00,-12.00,-4.00,+14.00,-35.00,+8.00,-5.00,-16.00
+20.00,+19.00,-2.00,-3.00,-24.00,-5.00,-11.00,-2.00,+14.00,-2.00,+2.00,-7.00,+18.00,+2.00,+8.00,+6.00
-15.00,+4.00,-8.00,-1.00,-8.00,+10.00,-2.00,-21.00,-5.00,+7.00,+2.00,+66.00,+127.00,-95.00,-16.00,-11.00
-43.00,-40.00,-3.00,+4.00,+17.00,-9.00,-2.00,-12.00,-12.00,+8.00,+4.00,-10.00,-115.00,+81.00,+37.00,-1.00
-10.00,-93.00,+6.00,-2.00,-16.00,+7.00,-2.00,+3.00,+20.00,-10.00,-3.00,-94.00,-52.00,-81.00,+16.00,+2.00
+6.00,-45.00,-6.00,+0.00,+32.00,+7.00,+0.00,+0.00,-56.00,-3.00,-4.00,+62.00,+56.00,+33.00,-10.00,+6.00
-8.00,+17.00,-1.00,-1.00,-14.00,+71.00,+1.00,+3.00,+6.00,-8.00,+1.00,-80.00,-102.00,+24.00,+8.00,-15.00
+19.00,+32.00,-9.00,-9.00,-22.00,-27.00,-12.00,-9.00,-21.00,-17.00,-9.00,-25.00,+26.00,-46.00,-26.00,+4.00
+4.00,+74.00,+1.00,-1.00,-12.00,+5.00,-24.00,+2.00,+12.00,-1.00,+8.00,+54.00,-22.00,+20.00,+26.00,+12.00
-9.00,-82.00,-7.00,+1.00,-10.00,+15.00,+39.00,-5.00,-25.00,+24.00,+1.00,-25.00,-101.00,-4.00,-33.00,+24.00
+8.00,+37.00,+10.00,-2.00,-11.00,-9.00,+4.00,+4.00,+21.00,-13.00,-5.00,-9.00,+17.00,+11.00,+14.00,-6.00
+17.00,-15.00,-4.00,-5.00,-17.00,+6.00,-13.00,+0.00,+45.00,+4.00,-3.00,+28.00,-79.00,-39.00,+14.00,+2.00
+2.00,-4.00,-2.00,-2.00,-23.00,+5.00,-43.00,-17.00,-28.00,-11.00,-9.00,-28.00,+72.00,+46.00,-42.00,-31.00
-45.00,-10.00,-3.00,+2.00,+53.00,-10.00,-23.00,-5.00,-16.00,-12.00,+7.00,+35.00,-14.00,-35.00,-55.00,+1.00
+5.00,-30.00,+3.00,+6.00,+49.00,-39.00,+16.00,+14.00,-7.00,+12.00,-3.00,+51.00,+99.00,+61.00,+23.00,-6.00
+13.00,+26.00,+3.00,-3.00,-67.00,-11.00,-50.00,+2.00,+35.00,+4.00,-5.00,-41.00,+17.00,+11.00,+31.00,+1.00
-13.00,-32.00,-7.00,+10.00,+73.00,+17.00,+71.00,-3.00,-33.00,-5.00,+0.00,-2.00,-108.00,-98.00,-14.00,-17.00
-13.00,-6.00,+1.00,-7.00,-62.00,-20.00,+12.00,-6.00,+65.00,+1.00,-4.00,-15.00,-44.00,+71.00,+12.00,+13.00
+21.00,-49.00,+1.00,+1.00,+9.00,-22.00,-26.00,-2.00,-60.00,-27.00,-2.00,-23.00,+7.00,-16.00,-76.00,-13.00
+29.00,+34.00,-3.00,-6.00,-3.00,+5.00,-20.00,+0.00,+12.00,+0.00,+1.00,+15.00,+75.00,-47.00,+64.00,+3.00
+18.00,+14.00,-2.00,-9.00,-34.00,-23.00,+5.00,-10.00,-24.00,+1.00,-6.00,-24.00,+108.00,+60.00,-3.00,-8.00
-10.00,+50.00,-5.00,+3.00,+39.00,+13.00,-13.00,+11.00,+32.00,-9.00,-2.00,+29.00,-94.00,-86.00,-7.00,-21.00
+0.00,+35.00,+8.00,+0.00,-25.00,+12.00,+16.00,-7.00,+24.00,+5.00,+5.00,-58.00,+34.00,+57.00,+28.00,+31.00
+15.00,-37.00,+1.00,-3.00,+17.00,+34.00,+35.00,+13.00,+25.00,+14.00,+1.00,+49.00,+42.00,+7.00,-48.00,-4.00
-45.00,-29.00,-10.00,-3.00,-45.00,-18.00,-78.00,-15.00,-79.00,-5.00,+10.00,-29.00,-32.00,+32.00,-6.00,+7.00
+30.00,+10.00,+3.00,+3.00,+77.00,+52.00,-10.00,+4.00,+17.00,-10.00,-6.00,+74.00,+49.00,-83.00,+29.00,-1.00
-11.00,+0.00,-1.00,+1.00,-6.00,-58.00,+61.00,+0.00,+8.00,+9.00,+2.00,-75.00,-39.00,+37.00,+44.00,-12.00
-19.00,+4.00,-4.00,+7.00,+74.00,-51.00,+50.00,+2.00,-7.00,-12.00,-4.00,+15.00,+127.00,+45.00,-40.00,+25.00
-3.00,-2.00,+6.00,+0.00,-25.00,-19.00,-62.00,-9.00,+55.00,+7.00,-10.00,-68.00,-126.00,-79.00,-76.00,+0.00
+1.00,-33.00,-10.00,-7.00,-71.00,-6.00,-32.00,-41.00,-23.00,-15.00,+0.00,+16.00,-5.00,-38.00,-48.00,-7.00
-15.00,+12.00,+2.00,+8.00,+89.00,+39.00,+24.00,+32.00,-20.00,-8.00,-5.00,+4.00,+59.00,+13.00,+8.00,-11.00
-5.00,-32.00,+3.00,+9.00,-78.00,+29.00,+24.00,-12.00,-3.00,+1.00,+3.00,-11.00,-22.00,-3.00,+0.00,-13.00
+7.00,+14.00,-4.00,-12.00,-65.00,-61.00,+22.00,+1.00,-10.00,-3.00,-1.00,+76.00,+91.00,+7.00,+24.00,-14.00
-24.00,-102.00,-6.00,+7.00,-23.00,+19.00,-28.00,-6.00,+25.00,+8.00,+4.00,-22.00,-41.00,+74.00,+30.00,+14.00
+27.00,+57.00,+9.00,-15.00,-35.00,+39.00,-58.00,-10.00,+37.00,-18.00,-6.00,+49.00,-3.00,-74.00,-26.00,-5.00
-13.00,+14.00,+5.00,+0.00,+43.00,+18.00,+2.00,-6.00,-11.00,+8.00,+0.00,-72.00,-78.00,+38.00,+32.00,-7.00
-5.00,-21.00,+1.00,+12.00,+121.00,+58.00,+80.00,+20.00,-6.00,-19.00,-12.00,+23.00,-16.00,+46.00,+24.00,-6.00
-5.00,+6.00,+0.00,+13.00,+53.00,-81.00,+17.00,-5.00,+5.00,+17.00,+13.00,-44.00,+22.00,-10.00,+21.00,+2.00
+8.00,-36.00,-11.00,-7.00,-21.00,+38.00,-24.00,+6.00,-10.00,-8.00,-4.00,+30.00,+31.00,+22.00,-18.00,-23.00
-37.00,-17.00,-2.00,-2.00,-13.00,-29.00,-31.00,+7.00,-11.00,+37.00,+10.00,+31.00,-16.00,-5.00,-18.00,-10.00
+7.00,+10.00,+3.00,-4.00,-13.00,-97.00,+15.00,-22.00,-5.00,-17.00,-2.00,-29.00,-1.00,+21.00,+5.00,+8.00
-15.00,+32.00,+0.00,-8.00,-4.00,-16.00,+33.00,+21.00,-37.00,-21.00,-6.00,+49.00,-57.00,+17.00,+10.00,-9.00
+4.00,-79.00,+0.00,+10.00,+47.00,+4.00,-30.00,-1.00,-41.00,+8.00,-9.00,-107.00,-108.00,-19.00,+4.00,-2.00
-3.00,+89.00,-3.00,-14.00,-82.00,-13.00,-12.00,-8.00,+31.00,+7.00,+1.00,+97.00,+4.00,-47.00,-13.00,+0.00
-3.00,-71.00,+0.00,+12.00,+91.00,+71.00,+2.00,+3.00,+1.00,-7.00,+1.00,-56.00,+28.00,+27.00,+26.00,+5.00
+46.00,+107.00,+3.00,-3.00,+0.00,+4.00,+58.00,+11.00,+15.00,+21.00,+0.00,-73.00,-55.00,-18.00,-3.00,-1.00
-43.00,-59.00,+10.00,+0.00,-43.00,-15.00,+7.00,+8.00,+37.00,-8.00,+2.00,+10.00,-30.00,+81.00,-21.00,-5.00
+39.00,+13.00,-9.00,-4.00,-14.00,+34.00,-20.00,-8.00,-52.00,-8.00,-2.00,+17.00,+58.00,-30.00,+9.00,+1.00
-2.00,+70.00,+10.00,+7.00,+4.00,-30.00,-10.00,+11.00,-18.00,+23.00,+8.00,+92.00,-51.00,+1.00,+13.00,+3.00
+37.00,-84.00,+1.00,-7.00,-32.00,-11.00,-13.00,-20.00,+11.00,-9.00,+0.00,-18.00,-26.00,+62.00,-5.00,-1.00
+6.00,+1.00,-12.00,-31.00,-128.00,-27.00,-50.00,+2.00,-14.00,+4.00,+1.00,+37.00,+50.00,-71.00,+13.00,+4.00
+38.00,-48.00,+4.00,+35.00,+124.00,+14.00,+104.00,+7.00,+14.00,-7.00,+9.00,-76.00,+47.00,+52.00,-14.00,-5.00
+12.00,-11.00,-5.00,-3.00,+21.00,-23.00,-15.00,+9.00,-22.00,-13.00,-1.00,-9.00,+44.00,+1.00,+1.00,+0.00
+9.00,+3.00,-4.00,+2.00,-9.00,+25.00,+24.00,-12.00,-16.00,+6.00,+1.00,-6.00,+55.00,-15.00,-39.00,+25.00
+9.00,+63.00,+6.00,+13.00,+34.00,-31.00,+10.00,-10.00,-12.00,-3.00,-6.00,+44.00,+90.00,-17.00,+13.00,-14.00
-32.00,-36.00,-5.00,-4.00,-15.00,+24.00,+16.00,-4.00,-10.00,-4.00,-1.00,+127.00,+13.00,-20.00,-9.00,+8.00
-27.00,-5.00,-6.00,-12.00,-78.00,-34.00,-1.00,+11.00,-11.00,-27.00,-6.00,-105.00,+71.00,+28.00,-21.00,-21.00
-28.00,-15.00,+4.00,-17.00,-62.00,-9.00,-31.00,+7.00,+26.00,-17.00,-13.00,-7.00,+71.00,-24.00,+16.00,-5.00
+21.00,-3.00,+3.00,+18.00,+120.00,+1.00,-4.00,-2.00,+3.00,+24.00,+4.00,-35.00,-69.00,-18.00,-97.00,+1.00
-8.00,-14.00,-11.00,-17.00,-77.00,-17.00,+0.00,+0.00,+18.00,+4.00,+1.00,-10.00,-82.00,-13.00,+78.00,+3.00
-3.00,+29.00,+5.00,-15.00,-63.00,+76.00,-4.00,-10.00,-7.00,-7.00,+3.00,+25.00,-56.00,+2.00,+6.00,+3.00
+13.00,-4.00,-1.00,+20.00,+87.00,-25.00,+35.00,+9.00,-47.00,+4.00,+0.00,+14.00,-8.00,-10.00,+2.00,-17.00
-13.00,+36.00,+0.00,+2.00,-16.00,+41.00,+0.00,+8.00,-11.00,-3.00,+1.00,+48.00,+74.00,+3.00,+51.00,-4.00
-18.00,+4.00,-7.00,-14.00,-86.00,-79.00,-65.00,-38.00,+30.00,+2.00,-6.00,-11.00,-90.00,-35.00,-20.00,-5.00
-4.00,-111.00,-18.00,-15.00,+28.00,+17.00,+17.00,+7.00,+11.00,+10.00,+2.00,-69.00,-66.00,-4.00,-53.00,-16.00
+26.00,+79.00,+24.00,+4.00,-25.00,+50.00,-32.00,+8.00,+3.00,+5.00,+4.00,-12.00,+121.00,+52.00,+75.00,+8.00
-3.00,-41.00,-15.00,-12.00,-20.00,-60.00,+38.00,-26.00,+24.00,-7.00,-12.00,+66.00,+28.00,-73.00,-38.00,+8.00
-18.00,-25.00,+9.00,+8.00,-1.00,+56.00,+8.00,-13.00,-33.00,-2.00,+8.00,-43.00,+67.00,+55.00,-29.00,+12.00
-12.00,-5.00,-3.00,+9.00,+110.00,-57.00,+31.00,+12.00,+8.00,-8.00,-12.00,+9.00,-19.00,-7.00,-9.00,+8.00
-35.00,-30.00,-14.00,-6.00,-63.00,+26.00,+6.00,+4.00,+14.00,+0.00,-1.00,-27.00,-78.00,+113.00,-1.00,-12.00
-6.00,-10.00,-5.00,-3.00,-31.00,+18.00,+51.00,-5.00,+24.00,+14.00,+13.00,-67.00,-60.00,-56.00,+46.00,+16.00
+13.00,+12.00,-1.00,-16.00,-114.00,+18.00,-3.00,+9.00,-17.00,-22.00,-12.00,+24.00,+106.00,-7.00,-12.00,-19.00
+19.00,-14.00,+4.00,+17.00,+52.00,+20.00,-8.00,-15.00,-14.00,+9.00,+3.00,+58.00,-75.00,-90.00,-36.00,-6.00
+10.00,+57.00,+8.00,+4.00,-36.00,+8.00,+2.00,+5.00,+53.00,+4.00,+2.00,-11.00,+93.00,+9.00,+76.00,+0.00
-6.00,+13.00,-6.00,-5.00,-14.00,-20.00,-46.00,-21.00,-22.00,-22.00,-4.00,+101.00,-121.00,+57.00,-42.00,+3.00
-15.00,-24.00,-5.00,-1.00,-15.00,+31.00,-9.00,-53.00,-49.00,-23.00,-10.00,-6.00,-28.00,-37.00,-40.00,-24.00
-3.00,+16.00,+6.00,-11.00,-109.00,+47.00,+26.00,+84.00,+34.00,+28.00,+11.00,-18.00,+39.00,-40.00,+36.00,+42.00
+6.00,-23.00,-3.00,+14.00,+86.00,+51.00,-59.00,-4.00,-23.00,+2.00,+0.00,+64.00,+46.00,+38.00,-1.00,-4.00
+8.00,-3.00,+5.00,+0.00,-108.00,-76.00,+38.00,+9.00,+12.00,-9.00,+6.00,-111.00,-97.00,-76.00,+6.00,-11.00
-16.00,+31.00,+3.00,+6.00,+57.00,+58.00,+87.00,+10.00,-38.00,-12.00,-7.00,+108.00,-117.00,-46.00,+7.00,-12.00
+5.00,-3.00,+1.00,+9.00,+16.00,+105.00,+39.00,-27.00,+60.00,-14.00,-15.00,-52.00,+47.00,+18.00,-23.00,-13.00
+6.00,-48.00,-3.00,-19.00,-58.00,-84.00,-88.00,-1.00,-30.00,+9.00,-5.00,+1.00,-94.00,-128.00,-105.00,-4.00
+5.00,+60.00,-1.00,-2.00,-10.00,+15.00,+25.00,+17.00,+74.00,+27.00,+13.00,-40.00,-22.00,+92.00,+63.00,+23.00
-10.00,-34.00,-1.00,+0.00,+53.00,-9.00,+48.00,+10.00,+5.00,-10.00,-9.00,-86.00,+68.00,+18.00,+11.00,-14.00
+17.00,+59.00,-3.00,-12.00,-54.00,-13.00,-41.00,-19.00,-60.00,+33.00,+28.00,+127.00,-26.00,+45.00,-44.00,+13.00
+6.00,-61.00,+14.00,+34.00,+51.00,+49.00,+16.00,+21.00,+56.00,-7.00,-7.00,+20.00,+64.00,-48.00,-10.00,-6.00
+27.00,+85.00,-2.00,-13.00,+62.00,-38.00,-39.00,-37.00,-24.00,-12.00,-1.00,-86.00,-8.00,+45.00,+45.00,-6.00
+6.00,-21.00,+0.00,+7.00,+8.00,-15.00,-36.00,+4.00,-27.00,-7.00,-14.00,-1.00,-128.00,-13.00,-75.00,-24.00
-13.00,-11.00,-9.00,-20.00,-92.00,-11.00,+19.00,+11.00,-44.00,-9.00,+3.00,+76.00,-61.00,-74.00,+50.00,-6.00
-44.00,-18.00,-12.00,-19.00,-82.00,-46.00,+59.00,-18.00,+70.00,+9.00,-7.00,-104.00,+71.00,-2.00,-13.00,+5.00
+19.00,-31.00,+0.00,+26.00,+77.00,+8.00,-104.00,-17.00,-27.00,+2.00,+11.00,+127.00,-42.00,-11.00,+53.00,-6.00
+40.00,+27.00,+8.00,-9.00,+1.00,-17.00,-83.00,+25.00,+22.00,+1.00,+3.00,+36.00,+93.00,-5.00,-71.00,-7.00
-18.00,-6.00,-4.00,+13.00,+63.00,-7.00,+36.00,-9.00,+52.00,+23.00,+0.00,-102.00,+85.00,+21.00,+127.00,-5.00
-26.00,-21.00,-8.00,-47.00,-109.00,+18.00,-27.00,-18.00,-48.00,-26.00,-5.00,-63.00,-106.00,+48.00,-48.00,+5.00
+1.00,-18.00,-7.00,-5.00,-18.00,-33.00,-52.00,-17.00,+2.00,+3.00,+0.00,-66.00,+51.00,+21.00,-17.00,-5.00
+9.00,+9.00,+2.00,+4.00,+3.00,-73.00,-66.00,+32.00,+40.00,+23.00,+12.00,+10.00,+41.00,-5.00,-62.00,+35.00
+9.00,-2.00,+4.00,+19.00,+34.00,-20.00,-27.00,-3.00,-61.00,-46.00,-19.00,+52.00,-16.00,+6.00,+78.00,-22.00
+1.00,+17.00,-7.00,-7.00,+28.00,+42.00,-47.00,+9.00,+64.00,+19.00,+13.00,+25.00,-62.00,-53.00,-42.00,+12.00
-21.00,-24.00,+1.00,+16.00,+15.00,+52.00,-50.00,-9.00,-6.00,-2.00,-5.00,+89.00,-19.00,+70.00,-128.00,-10.00
+1.00,-4.00,-3.00,-12.00,-35.00,-93.00,+55.00,+3.00,-58.00,-10.00,-15.00,-58.00,-30.00,+10.00,+9.00,+11.00
-25.00,-6.00,-11.00,-28.00,+52.00,+4.00,-106.00,-13.00,+18.00,+14.00,+7.00,+98.00,-21.00,+32.00,+35.00,+1.00
-10.00,-12.00,+7.00,+45.00,+121.00,-1.00,-4.00,+1.00,-46.00,-10.00,-4.00,+22.00,-17.00,-90.00,-25.00,-40.00
+30.00,+27.00,+17.00,+9.00,+7.00,+7.00,+34.00,-8.00,-22.00,-26.00,-10.00,+77.00,-45.00,-24.00,+10.00,-13.00
-13.00,-13.00,-9.00,+2.00,-28.00,+27.00,-97.00,+12.00,+32.00,-1.00,+1.00,-121.00,-74.00,+26.00,+7.00,-3.00
-25.00,+11.00,-3.00,-20.00,-128.00,-103.00,-95.00,-18.00,-21.00,-9.00,-11.00,-70.00,+38.00,+56.00,-11.00,+44.00
+15.00,+7.00,-11.00,-8.00,+34.00,+39.00,-95.00,-26.00,+43.00,+13.00,+10.00,+114.00,-62.00,+80.00,+69.00,+14.00
-1.00,-48.00,-5.00,-23.00,-79.00,-26.00,+88.00,+14.00,-15.00,-2.00,-7.00,-38.00,+72.00,-16.00,-2.00,-23.00
-27.00,+15.00,-4.00,-8.00,+80.00,+15.00,+70.00,-18.00,+1.00,-16.00,-4.00,-35.00,+12.00,+2.00,-44.00,-26.00
+20.00,+2.00,+19.00,+54.00,+93.00,+34.00,-71.00,+12.00,+4.00,-11.00,+1.00,-56.00,+125.00,-7.00,-7.00,+0.00
-2.00,-24.00,-8.00,-14.00,-92.00,-84.00,+40.00,-28.00,-21.00,+32.00,+12.00,-1.00,+41.00,-64.00,+39.00,+26.00
+18.00,+39.00,+1.00,-2.00,-108.00,+15.00,+51.00,+0.00,+24.00,+7.00,-12.00,-53.00,+121.00,+3.00,-74.00,-21.00
+13.00,+1.00,-2.00,+4.00,-1.00,+5.00,-32.00,+29.00,-9.00,-3.00,+38.00,-86.00,+77.00,+1.00,-10.00,+12.00
-13.00,+1.00,+5.00,-1.00,+14.00,-57.00,+1.00,-9.00,+24.00,+15.00,-36.00,+62.00,+13.00,-34.00,-57.00,-20.00
-2.00,+27.00,+5.00,+6.00,+59.00,+47.00,+79.00,-1.00,+6.00,+1.00,+3.00,-39.00,+41.00,-36.00,-18.00,+18.00
-33.00,-69.00,-13.00,-41.00,-113.00,+18.00,-48.00,-4.00,-27.00,-7.00,-13.00,-65.00,-78.00,-47.00,+17.00,-13.00
-3.00,-25.00,-1.00,+22.00,+86.00,+99.00,+65.00,-1.00,+35.00,-4.00,-7.00,-11.00,+60.00,+63.00,+43.00,-7.00
+29.00,+38.00,+3.00,+8.00,+39.00,-46.00,-25.00,-17.00,+47.00,+15.00,+20.00,-40.00,+54.00,-10.00,-126.00,+21.00
-15.00,+18.00,+10.00,+5.00,-29.00,-43.00,-20.00,+30.00,-27.00,-25.00,+7.00,+27.00,-86.00,+127.00,+62.00,-5.00
+15.00,+8.00,+2.00,+8.00,+77.00,+34.00,+37.00,+25.00,+34.00,-4.00,-10.00,+48.00,-71.00,+26.00,-20.00,+0.00
-34.00,-9.00,-5.00,-40.00,-96.00,-42.00,+51.00,-40.00,+15.00,+21.00,+7.00,+116.00,+45.00,+43.00,+127.00,+41.00
+80.00,+18.00,+4.00,+5.00,-10.00,+11.00,-25.00,+29.00,-60.00,-16.00,-13.00,-42.00,-66.00,-57.00,+21.00,-17.00
-20.00,+14.00,-7.00,-8.00,-16.00,+31.00,+82.00,-19.00,-24.00,-9.00,-13.00,+52.00,-45.00,-25.00,-82.00,-39.00
+2.00,+5.00,-1.00,+2.00,+127.00,+16.00,-81.00,+0.00,+33.00,+11.00,+4.00,-68.00,-15.00,-55.00,-17.00,+34.00
-16.00,-40.00,+4.00,+22.00,+120.00,+30.00,+5.00,+3.00,-32.00,-5.00,-5.00,+44.00,-128.00,+24.00,+5.00,+2.00
-14.00,+34.00,-11.00,-20.00,-119.00,+38.00,-30.00,-35.00,+23.00,-4.00,-7.00,-35.00,-54.00,-97.00,+18.00,-10.00
+41.00,+5.00,+9.00,-6.00,-123.00,-56.00,+9.00,+30.00,-110.00,-26.00,-19.00,-117.00,-39.00,+46.00,-57.00,-20.00
-38.00,-2.00,-4.00,-9.00,-21.00,-6.00,+78.00,+7.00,+13.00,+17.00,+8.00,-47.00,+43.00,-81.00,-43.00,+15.00
+34.00,+19.00,-7.00,-5.00,-37.00,-63.00,-58.00,+1.00,+67.00,+9.00,-14.00,-72.00,+20.00,-78.00,+65.00,+11.00
-11.00,-27.00,+5.00,-8.00,-66.00,-40.00,-25.00,-18.00,+11.00,+21.00,+17.00,+6.00,-116.00,+104.00,+54.00,+27.00
-6.00,-17.00,-12.00,+5.00,+125.00,+54.00,-55.00,-6.00,-2.00,-12.00,-17.00,-107.00,+81.00,+11.00,-74.00,-26.00
-2.00,+28.00,-4.00,-10.00,-102.00,+32.00,+8.00,+18.00,-53.00,+1.00,+10.00,+36.00,+48.00,+93.00,+47.00,+22.00
+20.00,+22.00,+20.00,+41.00,+91.00,-9.00,-7.00,+31.00,+13.00,+0.00,+7.00,+29.00,+34.00,-95.00,+40.00,+20.00
-42.00,-27.00,-7.00,-5.00,-8.00,+25.00,+50.00,+8.00,-22.00,-21.00,-1.00,+94.00,-112.00,+75.00,+20.00,-15.00
+2.00,+8.00,+6.00,+21.00,-18.00,-19.00,-56.00,+10.00,+52.00,+2.00,-12.00,-90.00,-90.00,-21.00,+104.00,+22.00
-3.00,-27.00,-4.00,+26.00,+125.00,-56.00,-71.00,-1.00,-11.00,-10.00,+28.00,+7.00,+35.00,+49.00,+98.00,-15.00
+11.00,+1.00,+7.00,+19.00,+77.00,+100.00,+6.00,+17.00,-25.00,+0.00,-38.00,+40.00,-11.00,+42.00,-5.00,-10.00
+10.00,-17.00,-6.00,-17.00,-58.00,+37.00,+19.00,-3.00,+24.00,-33.00,-4.00,+2.00,-55.00,+23.00,-34.00,+8.00
+19.00,+15.00,+10.00,+22.00,+99.00,+12.00,-42.00,-7.00,+77.00,+18.00,-4.00,+83.00,-37.00,-17.00,-6.00,+8.00
+30.00,-4.00,-2.00,-4.00,-90.00,+26.00,+39.00,+0.00,-43.00,-29.00,-13.00,-46.00,+87.00,-50.00,-63.00,-7.00
+2.00,+6.00,-7.00,-34.00,-128.00,-63.00,-94.00,+5.00,+62.00,+21.00,+16.00,+50.00,-123.00,-18.00,-30.00,-11.00
-18.00,-12.00,+5.00,+35.00,+127.00,+74.00,+127.00,+12.00,+0.00,+4.00,+12.00,-3.00,+64.00,-22.00,-68.00,+9.00
-31.00,-2.00,-14.00,-37.00,-112.00,-15.00,-2.00,-7.00,+1.00,+4.00,+6.00,+127.00,+85.00,-9.00,+6.00,-5.00
-9.00,+4.00,+7.00,+27.00,+78.00,+84.00,+6.00,-7.00,-7.00,-1.00,-4.00,-36.00,-111.00,+3.00,+3.00,+21.00
-12.00,-6.00,-3.00,-18.00,-113.00,-18.00,+7.00,+3.00,-58.00,-9.00,-3.00,-76.00,-66.00,-16.00,+27.00,-8.00
+12.00,-12.00,-2.00,-9.00,-27.00,-28.00,+55.00,+8.00,-44.00,-4.00,-1.00,+127.00,+127.00,+22.00,-17.00,-23.00
-2.00,+17.00,-13.00,-27.00,-90.00,-39.00,+104.00,-4.00,-22.00,+1.00,+13.00,+18.00,-24.00,-28.00,+75.00,+18.00
-11.00,-14.00,-1.00,-1.00,+0.00,-15.00,-63.00,-12.00,-24.00,-20.00,-19.00,+41.00,-56.00,+82.00,+29.00,+14.00
+7.00,-24.00,+1.00,+19.00,+56.00,+60.00,+45.00,+15.00,-37.00,+7.00,+6.00,+62.00,+105.00,+23.00,-18.00,-19.00
-6.00,+29.00,+2.00,-14.00,-59.00,-29.00,-46.00,-1.00,-17.00,+0.00,-15.00,-121.00,+3.00,-123.00,-3.00,-5.00
+7.00,+37.00,-6.00,+8.00,-72.00,+19.00,+0.00,+26.00,-43.00,-20.00,-9.00,-21.00,+54.00,+74.00,+50.00,-22.00
-3.00,-8.00,-10.00,-46.00,-128.00,-13.00,+57.00,-7.00,+38.00,+10.00,+2.00,-61.00,-49.00,+17.00,+15.00,+7.00
+24.00,-1.00,+1.00,+30.00,+119.00,+47.00,-3.00,-10.00,-12.00,-6.00,-7.00,+23.00,+39.00,+54.00,-92.00,+3.00
-35.00,-31.00,-7.00,-9.00,-15.00,-27.00,-100.00,+6.00,-24.00,-24.00,-10.00,-1.00,-48.00,+126.00,+54.00,-13.00
+43.00,-22.00,-6.00,-19.00,-88.00,-56.00,-31.00,-34.00,+18.00,+11.00,+3.00,-19.00,-14.00,+31.00,-25.00,-3.00
+0.00,-8.00,+1.00,+6.00,+17.00,+1.00,-39.00,+13.00,-36.00,+5.00,+2.00,+109.00,+28.00,+7.00,-76.00,-11.00
-69.00,+21.00,-12.00,-22.00,-48.00,+9.00,+33.00,-1.00,+40.00,+7.00,+0.00,-8.00,-104.00,-50.00,+42.00,+4.00
+9.00,+17.00,+18.00,+20.00,+118.00,-46.00,+46.00,+4.00,-42.00,+1.00,+37.00,+53.00,+40.00,+42.00,+65.00,-10.00
-34.00,-22.00,-1.00,-7.00,-96.00,-8.00,-18.00,-17.00,+33.00,-10.00,-38.00,-24.00,-26.00,-43.00,-7.00,+29.00
-10.00,-7.00,+5.00,+35.00,+103.00,-11.00,+43.00,-5.00,+3.00,+5.00,-6.00,+89.00,+95.00,-94.00,-79.00,+9.00
+59.00,+20.00,+6.00,+0.00,-128.00,-90.00,-82.00,+10.00,-35.00,-28.00,-16.00,-94.00,-5.00,-20.00,-66.00,-23.00
-11.00,-20.00,-20.00,-16.00,-5.00,+34.00,-51.00,-20.00,+38.00,+18.00,+19.00,-55.00,-75.00,-75.00,-11.00,+45.00
+0.00,-50.00,+12.00,+1.00,+127.00,+12.00,-11.00,+18.00,-67.00,+4.00,+20.00,+92.00,-95.00,+0.00,-24.00,-8.00
+29.00,+71.00,+15.00,+11.00,+15.00,+5.00,+74.00,-3.00,+115.00,+2.00,-14.00,-2.00,-106.00,+118.00,+39.00,+0.00
+37.00,-5.00,-5.00,-25.00,-70.00,-38.00,-47.00,-17.00,-51.00,-10.00,-8.00,+53.00,+74.00,-45.00,-66.00,-35.00
-32.00,-7.00,-11.00,-15.00,-109.00,+38.00,+56.00,+0.00,-19.00,-13.00,-12.00,-39.00,-62.00,-44.00,+57.00,+5.00
+3.00,+3.00,+4.00,+8.00,+62.00,-19.00,-44.00,+7.00,-2.00,+11.00,+9.00,-74.00,-26.00,+84.00,-27.00,+16.00
-27.00,-13.00,-7.00,-1.00,+72.00,+26.00,-47.00,+2.00,+46.00,+17.00,-6.00,-65.00,-63.00,+17.00,-19.00,-6.00
-24.00,-11.00,+1.00,+0.00,-43.00,-2.00,+2.00,-9.00,-64.00,-25.00,+15.00,+81.00,+58.00,+96.00,+38.00,-11.00
+12.00,+2.00,+6.00,+24.00,+58.00,+13.00,+28.00,+15.00,+97.00,+34.00,-12.00,-98.00,-32.00,-9.00,+18.00,-26.00
+14.00,+22.00,-2.00,-1.00,-76.00,+74.00,-79.00,-6.00,-61.00,-29.00,+4.00,+126.00,-69.00,+52.00,+21.00,+1.00
-28.00,-14.00,-9.00,-13.00,-21.00,+14.00,+20.00,+14.00,+39.00,+14.00,+5.00,-79.00,+78.00,-67.00,+51.00,+8.00
-43.00,-7.00,-15.00,-5.00,+60.00,+48.00,-28.00,-43.00,+8.00,+13.00,+3.00,-90.00,-125.00,-12.00,+97.00,+13.00
+27.00,-13.00,-3.00,-3.00,+37.00,+62.00,+13.00,-7.00,+1.00,-12.00,-7.00,+98.00,+57.00,-79.00,-96.00,-11.00
-12.00,+2.00,-7.00,+1.00,+48.00,+50.00,+84.00,+9.00,+5.00,+4.00,+1.00,+70.00,+127.00,+36.00,-50.00,-33.00
+48.00,+10.00,-2.00,-11.00,-122.00,-54.00,+2.00,-1.00,-59.00,-12.00,-10.00,-5.00,-21.00,-43.00,-35.00,+6.00
-62.00,-7.00,-4.00,+16.00,+94.00,+51.00,-4.00,-3.00,+19.00,+8.00,+58.00,+20.00,+36.00,+43.00,-15.00,-6.00
+36.00,-16.00,+1.00,-18.00,-128.00,-26.00,+18.00,-3.00,+30.00,-4.00,-50.00,+47.00,+123.00,+19.00,-98.00,+7.00
-37.00,-9.00,-4.00,-1.00,-51.00,-46.00,+14.00,-1.00,-13.00,+20.00,+8.00,-2.00,-78.00,-36.00,-68.00,-7.00
+19.00,-17.00,-8.00,-41.00,-128.00,-40.00,-5.00,-10.00,-15.00,-2.00,-3.00,-21.00,-81.00,+3.00,+23.00,-24.00
+11.00,+6.00,+16.00,+13.00,+73.00,-47.00,+31.00,+8.00,-38.00,+10.00,-8.00,+57.00,-67.00,-67.00,-3.00,-15.00
-16.00,-22.00,+5.00,+18.00,+59.00,-25.00,+17.00,-13.00,+22.00,-9.00,+9.00,+48.00,+75.00,+11.00,+65.00,+20.00
+58.00,+29.00,-1.00,-11.00,-39.00,+7.00,-31.00,+7.00,+20.00,-11.00,-4.00,-89.00,+14.00,+32.00,+34.00,-18.00
-11.00,-20.00,+2.00,-9.00,-87.00,-32.00,+31.00,+33.00,+1.00,-12.00,-11.00,-19.00,+5.00,-118.00,-58.00,+11.00
-9.00,+31.00,+7.00,+23.00,+14.00,-56.00,-10.00,+5.00,-6.00,+1.00,-9.00,+34.00,-88.00,+95.00,-60.00,+20.00
+19.00,+16.00,-1.00,-6.00,-49.00,+23.00,-90.00,+0.00,-12.00,-8.00,+5.00,+75.00,-116.00,-4.00,-37.00,-35.00
-17.00,-19.00,-1.00,-14.00,-18.00,+10.00,+84.00,+33.00,-18.00,-1.00,+1.00,-68.00,-15.00,+44.00,+0.00,-9.00
-22.00,-1.00,+0.00,+14.00,+15.00,-47.00,+34.00,-9.00,+12.00,+2.00,+15.00,+127.00,-4.00,-57.00,-2.00,-4.00
+22.00,-5.00,-10.00,-32.00,-55.00,+40.00,+50.00,-2.00,+30.00,-1.00,-5.00,+8.00,-96.00,+33.00,+50.00,+13.00
-5.00,-10.00,+0.00,-33.00,-79.00,-91.00,-63.00,-20.00,-51.00,-8.00,-14.00,-113.00,-74.00,-4.00,-113.00,-8.00
-3.00,+12.00,-2.00,+19.00,+21.00,-31.00,+1.00,-4.00,-35.00,-13.00,+28.00,-26.00,-1.00,-64.00,-43.00,-7.00
-17.00,-13.00,-3.00,+14.00,+67.00,+76.00,-88.00,-27.00,+79.00,+18.00,-35.00,+47.00,-47.00,+20.00,-42.00,+14.00
+59.00,-2.00,-3.00,-11.00,-15.00,-49.00,+46.00,+8.00,-28.00,-24.00,-16.00,-95.00,-64.00,-9.00,-43.00,+3.00
-77.00,-4.00,-1.00,+16.00,+69.00,+1.00,+39.00,-24.00,+15.00,+18.00,+0.00,-13.00,-97.00,-65.00,-15.00,-20.00
+9.00,+1.00,+3.00,+0.00,+73.00,+50.00,+19.00,-18.00,-19.00,+2.00,+6.00,-54.00,+57.00,-27.00,-23.00,-5.00
-28.00,-39.00,-15.00,-23.00,-14.00,-53.00,+31.00,-17.00,-14.00,-6.00,+14.00,+88.00,-8.00,-13.00,+22.00,-13.00
+19.00,-39.00,-5.00,-18.00,-93.00,+16.00,-53.00,-2.00,+25.00,+17.00,+1.00,+48.00,-23.00,+53.00,+26.00,+3.00
+40.00,+29.00,+0.00,-6.00,+67.00,+45.00,-14.00,+6.00,+25.00,+0.00,+6.00,-88.00,+5.00,+127.00,-29.00,+18.00
-5.00,+3.00,+2.00,+19.00,-13.00,-40.00,-29.00,+6.00,+10.00,+4.00,+1.00,+38.00,+117.00,+8.00,+13.00,+12.00
-41.00,-3.00,-4.00,+10.00,+12.00,+67.00,-11.00,-6.00,+11.00,-15.00,-15.00,+31.00,-74.00,-39.00,+63.00,-21.00
-20.00,-50.00,-3.00,-19.00,-41.00,-52.00,+7.00,-27.00,-33.00,+22.00,-4.00,-30.00,-58.00,-67.00,-128.00,+7.00
+16.00,+46.00,+9.00,+9.00,-5.00,+15.00,+21.00,+16.00,-18.00,+15.00,+21.00,-24.00,+20.00,-29.00,-44.00,+24.00
-26.00,+6.00,+7.00,+25.00,+21.00,-56.00,-28.00,-7.00,+10.00,+5.00,-1.00,-64.00,-67.00,-46.00,+85.00,+24.00
+45.00,+21.00,+6.00,+3.00,-68.00,-65.00,-67.00,+15.00,-43.00,-8.00,+2.00,-76.00,+85.00,+31.00,+3.00,-28.00
-3.00,-6.00,-11.00,-18.00,-58.00,+47.00,-4.00,-5.00,-7.00,-16.00,-13.00,+7.00,+90.00,-74.00,+42.00,+4.00
-57.00,-24.00,-8.00,+9.00,-34.00,-9.00,+21.00,-3.00,+75.00,+27.00,+3.00,+0.00,+36.00,+52.00,-1.00,+3.00
+48.00,+50.00,+22.00,+26.00,+28.00,-17.00,-41.00,+33.00,-29.00,-2.00,-4.00,-33.00,+13.00,+50.00,+20.00,+32.00
+0.00,-1.00,-4.00,-22.00,-108.00,+0.00,-34.00,-5.00,-39.00,+0.00,+38.00,-99.00,+40.00,-46.00,-37.00,+0.00
-42.00,+20.00,-1.00,+6.00,+93.00,-9.00,-47.00,+23.00,+23.00,-7.00,-45.00,+36.00,-32.00,+53.00,+7.00,+1.00
+24.00,+5.00,+18.00,+37.00,+91.00,+101.00,-49.00,+30.00,-36.00,-18.00,-6.00,+65.00,-17.00,-55.00,+105.00,-7.00
+2.00,-14.00,-6.00,-25.00,-24.00,-5.00,-2.00,-23.00,-35.00,-29.00,-38.00,-9.00,+85.00,+111.00,+12.00,-23.00
-21.00,-6.00,-1.00,+8.00,-55.00,+29.00,-30.00,-14.00,+56.00,+34.00,+11.00,+58.00,-65.00,+6.00,+2.00,+6.00
-4.00,+37.00,+5.00,+7.00,-54.00,+58.00,+32.00,-3.00,-6.00,-9.00,+8.00,+0.00,+3.00,+21.00,-47.00,+6.00
-10.00,-41.00,-17.00,-25.00,-115.00,-59.00,+64.00,-19.00,-15.00,+3.00,+18.00,+127.00,-71.00,+89.00,+0.00,+3.00
+1.00,-29.00,-3.00,-1.00,-67.00,-16.00,-10.00,+18.00,+4.00,+1.00,-4.00,+4.00,-4.00,-15.00,+4.00,-29.00
+29.00,+44.00,+16.00,+27.00,+52.00,+5.00,+4.00,+23.00,-64.00,-20.00,-11.00,+60.00,+71.00,+107.00,-27.00,+5.00
-7.00,-10.00,+4.00,+6.00,+23.00,+34.00,-18.00,-17.00,+65.00,+1.00,-2.00,+28.00,+82.00,+12.00,+30.00,-24.00
-38.00,-18.00,-5.00,-10.00,-107.00,-37.00,-34.00,+2.00,-10.00,+12.00,-2.00,+22.00,-60.00,-49.00,+55.00,+6.00
+67.00,+8.00,+4.00,+9.00,+36.00,-16.00,+72.00,-4.00,+75.00,+27.00,+21.00,+33.00,-60.00,+27.00,+19.00,+10.00
-47.00,+1.00,-8.00,+6.00,+35.00,-44.00,-15.00,-3.00,-67.00,-2.00,+1.00,+15.00,-22.00,+54.00,+22.00,+3.00
-26.00,-6.00,-2.00,-37.00,-96.00,-62.00,+42.00,+15.00,+4.00,+5.00,+5.00,+15.00,-44.00,-61.00,+98.00,+3.00
+59.00,+0.00,-4.00,+4.00,+48.00,+63.00,-70.00,-4.00,-35.00,-29.00,-7.00,-83.00,+17.00,-38.00,-14.00,-26.00
-86.00,+5.00,-28.00,-73.00,-128.00,-52.00,-84.00,-19.00,+32.00,+17.00,+11.00,+67.00,-3.00,+7.00,-37.00,+11.00
+31.00,-17.00,-10.00,+51.00,+127.00,+57.00,-25.00,+17.00,-12.00,-7.00,-13.00,+39.00,+0.00,-44.00,+34.00,+3.00
-1.00,+12.00,-14.00,-43.00,-128.00,-105.00,-47.00,-25.00,+10.00,+9.00,+11.00,+10.00,-12.00,+0.00,+46.00,+13.00
+7.00,-20.00,+0.00,+23.00,+71.00,+12.00,+22.00,-38.00,-23.00,-19.00,+38.00,+15.00,+30.00,+22.00,-25.00,-18.00
-17.00,+3.00,+2.00,-15.00,-24.00,+30.00,-46.00,-21.00,+71.00,+15.00,-48.00,-16.00,-21.00,-51.00,-53.00,+52.00
-6.00,-14.00,+1.00,-15.00,-69.00,+6.00,-47.00,-5.00,-12.00,-5.00,+0.00,+106.00,+91.00,+109.00,+6.00,-17.00
+21.00,-5.00,+3.00,+29.00,-61.00,-27.00,-27.00,-9.00,-24.00,-15.00,-4.00,-128.00,-54.00,-19.00,-56.00,-10.00
+11.00,+4.00,-2.00,-29.00,-128.00,-15.00,+26.00,+6.00,+25.00,+15.00,+1.00,+37.00,-32.00,-102.00,-95.00,-6.00
+12.00,-14.00,-8.00,+38.00,+127.00,+56.00,-26.00,-6.00,-46.00,-24.00,-1.00,+100.00,-111.00,+24.00,+67.00,-30.00
-18.00,+2.00,-5.00,-32.00,-59.00,-17.00,-4.00,+10.00,+67.00,+9.00,+3.00,-128.00,-41.00,-80.00,+38.00,+18.00
-2.00,+9.00,+1.00,+6.00,+56.00,+42.00,-61.00,-11.00,-10.00,+0.00,-5.00,+116.00,-58.00,-23.00,-46.00,-9.00
+20.00,+39.00,+3.00,-21.00,-83.00,-55.00,-8.00,+10.00,-44.00,+4.00,-1.00,-32.00,+31.00,+43.00,+110.00,+20.00
-17.00,-9.00,-9.00,-21.00,-76.00,-17.00,+14.00,-15.00,+44.00,+7.00,+0.00,+24.00,-47.00,-46.00,+28.00,-15.00
+1.00,-18.00,+8.00,+2.00,+8.00,+1.00,-31.00,-18.00,-75.00,-13.00,+1.00,+10.00,-100.00,-76.00,-70.00,-9.00
-17.00,+10.00,-1.00,-19.00,-70.00,+21.00,-65.00,+7.00,+16.00,+10.00,+11.00,-19.00,+90.00,+3.00,+55.00,+12.00
-9.00,+17.00,+17.00,+64.00,+118.00,+44.00,+13.00,+19.00,-7.00,-2.00,-8.00,+57.00,-30.00,+43.00,-74.00,-13.00
+20.00,+0.00,-2.00,-8.00,-128.00,+36.00,-40.00,+3.00,-2.00,-4.00,+5.00,-54.00,+122.00,-23.00,+39.00,+3.00
-39.00,+2.00,-19.00,-32.00,+17.00,-33.00,-37.00,-29.00,+63.00,+19.00,+3.00,-61.00,-57.00,+23.00,+14.00,+19.00
+39.00,+6.00,+14.00,+54.00,+125.00,+68.00,+85.00,+14.00,-42.00,-7.00,+7.00,+58.00,+48.00,-32.00,-86.00,-6.00
-30.00,-15.00,-11.00,-32.00,-122.00,-50.00,-12.00,-1.00,-10.00,+14.00,+12.00,-57.00,+48.00,+21.00,-40.00,-12.00
+2.00,+1.00,+8.00,+9.00,-26.00,-28.00,-84.00,-21.00,-12.00,-6.00,+2.00,+1.00,+76.00,+25.00,+36.00,+15.00
+45.00,-1.00,+7.00,+18.00,+67.00,+105.00,-28.00,-12.00,-13.00,-6.00,+0.00,+58.00,-8.00,-28.00,-52.00,-22.00
-2.00,-2.00,-6.00,-5.00,-80.00,-13.00,-26.00,-13.00,-31.00,-5.00,-8.00,-38.00,+83.00,-23.00,-7.00,-13.00
+30.00,+21.00,+5.00,-20.00,-34.00,-49.00,+0.00,-10.00,-9.00,-10.00,-10.00,-37.00,-63.00,+13.00,-18.00,+2.00
-20.00,-11.00,-7.00,-5.00,-30.00,-33.00,+60.00,+10.00,-8.00,+8.00,+6.00,+82.00,-47.00,-35.00,+44.00,-8.00
-8.00,-11.00,-8.00,-37.00,-106.00,-1.00,+82.00,-3.00,-4.00,-19.00,+25.00,-44.00,-105.00,-30.00,-18.00,+1.00
+28.00,+20.00,+3.00,+24.00,+110.00,+36.00,+18.00,+16.00,+78.00,+7.00,-26.00,+75.00,-84.00,+20.00,-75.00,+6.00
+15.00,-10.00,+2.00,-23.00,-105.00,+9.00,+59.00,-4.00,-63.00,-9.00,-19.00,+19.00,-25.00,+34.00,+113.00,-3.00
-23.00,-8.00,-1.00,-23.00,-46.00,-51.00,-39.00,-13.00,+23.00,-1.00,-9.00,+37.00,-73.00,+11.00,+44.00,+12.00
+42.00,+3.00,+2.00,+11.00,+38.00,+48.00,+41.00,+0.00,-38.00,+2.00,-3.00,+61.00,+43.00,+41.00,-39.00,-16.00
-22.00,+8.00,-8.00,-21.00,-74.00,+6.00,+23.00,+11.00,+20.00,-5.00,+5.00,-36.00,+46.00,-28.00,-8.00,-15.00
-45.00,-27.00,-6.00,+12.00,-1.00,-5.00,+74.00,+9.00,+17.00,-16.00,-16.00,+67.00,-30.00,+44.00,+25.00,-2.00
-5.00,+8.00,-2.00,+6.00,-52.00,+33.00,-51.00,+10.00,-2.00,-21.00,-19.00,-116.00,-120.00,-75.00,-74.00,-8.00
-6.00,+4.00,+1.00,-38.00,-94.00,-41.00,-46.00,+23.00,+2.00,+20.00,-8.00,-48.00,-40.00,+21.00,-14.00,+12.00
+50.00,-19.00,+12.00,+18.00,+99.00,+68.00,+65.00,-20.00,+38.00,+9.00,+10.00,-20.00,-20.00,+1.00,+55.00,+27.00
-17.00,-7.00,-17.00,-12.00,+1.00,-9.00,-17.00,+13.00,+42.00,+0.00,-11.00,-14.00,+55.00,-13.00,-40.00,-11.00
-15.00,-20.00,-8.00,-29.00,-79.00,-28.00,-12.00,+0.00,-36.00,-9.00,+6.00,-74.00,+28.00,+0.00,-94.00,-13.00
+0.00,+13.00,-1.00,+20.00,-10.00,+26.00,-2.00,-23.00,-43.00,-22.00,+5.00,-30.00,-71.00,-12.00,+6.00,+1.00
-57.00,-4.00,+0.00,+30.00,-94.00,-23.00,-23.00,+21.00,+46.00,-3.00,-24.00,-108.00,+38.00,+33.00,-26.00,-6.00
+22.00,+6.00,+5.00,-21.00,-25.00,-23.00,-3.00,+11.00,-16.00,-5.00,+2.00,+2.00,+73.00,-79.00,-88.00,+10.00
+15.00,+8.00,+2.00,+10.00,+73.00,+41.00,+39.00,+3.00,-32.00,+1.00,+3.00,+57.00,+26.00,-28.00,-36.00,-39.00
+31.00,+13.00,+19.00,+65.00,+98.00,+38.00,+81.00,-2.00,+70.00,+3.00,+6.00,+29.00,+113.00,-38.00,-10.00,+19.00
-27.00,-5.00,+4.00,-20.00,-82.00,-70.00,+1.00,-9.00,-29.00,-5.00,+5.00,-40.00,-68.00,-20.00,+59.00,+3.00
-31.00,-1.00,-7.00,+1.00,-31.00,-26.00,+37.00,-7.00,+5.00,-4.00,-2.00,+47.00,+84.00,+11.00,+80.00,-29.00
+11.00,-6.00,+4.00,+32.00,+126.00,+45.00,+29.00,+5.00,+23.00,+9.00,+11.00,+68.00,-50.00,+20.00,+20.00,+58.00
-27.00,-29.00,+1.00,+19.00,+22.00,+56.00,+45.00,+34.00,-30.00,-16.00,-20.00,-64.00,+1.00,+27.00,+117.00,-21.00
+5.00,+6.00,-4.00,-1.00,+32.00,-20.00,-34.00,+8.00,-14.00,-3.00,+4.00,+101.00,-40.00,-31.00,-13.00,+10.00
-4.00,-4.00,-2.00,+18.00,+115.00,+2.00,+20.00,-6.00,-8.00,-9.00,-12.00,-76.00,-50.00,+61.00,+83.00,+1.00
-29.00,-1.00,+2.00,+7.00,-46.00,-1.00,+44.00,+7.00,-23.00,+3.00,+4.00,-81.00,-53.00,-40.00,+19.00,+10.00
+21.00,+1.00,-3.00,-30.00,-128.00,-46.00,-33.00,-9.00,+26.00,+0.00,-2.00,+97.00,-21.00,+65.00,+9.00,+19.00
+32.00,-2.00,+0.00,+4.00,-16.00,+11.00,+8.00,-5.00,-19.00,+0.00,+2.00,+10.00,+27.00,+17.00,+54.00,-5.00
-24.00,-1.00,-4.00,+11.00,+16.00,-13.00,-128.00,-7.00,+17.00,-3.00,-3.00,+1.00,+27.00,-44.00,+50.00,+12.00
+9.00,-3.00,+4.00,-11.00,-34.00,+19.00,+112.00,-12.00,-12.00,+12.00,+5.00,+10.00,+117.00,+5.00,-84.00,-26.00
+26.00,-6.00,+1.00,-16.00,-79.00,-44.00,-56.00,+7.00,-14.00,-4.00,+28.00,+45.00,+10.00,-5.00,-51.00,-8.00
-32.00,-4.00,-8.00,+21.00,+44.00,+28.00,-77.00,+6.00,-3.00,-11.00,-38.00,-102.00,+73.00,-11.00,-79.00,-13.00
+11.00,-18.00,+4.00,+9.00,+4.00,+28.00,-23.00,+10.00,+8.00,+2.00,+0.00,+21.00,-78.00,-27.00,+6.00,+14.00
+69.00,+4.00,+7.00,+19.00,+76.00,+37.00,-41.00,+8.00,+23.00,-19.00,-14.00,-9.00,+28.00,-2.00,+61.00,-14.00
-26.00,+9.00,+6.00,+24.00,+42.00,+10.00,+17.00,+2.00,-10.00,+8.00,-8.00,-70.00,-40.00,-76.00,+83.00,+1.00
-9.00,+4.00,-1.00,-48.00,-128.00,+10.00,+62.00,-27.00,+17.00,-2.00,+7.00,+16.00,-37.00,-38.00,-34.00,+8.00
+2.00,+1.00,-6.00,+21.00,+112.00,+8.00,-10.00,-1.00,-24.00,-3.00,+2.00,+43.00,-35.00,-43.00,-59.00,-1.00
-38.00,-18.00,-4.00,+5.00,-5.00,-31.00,-46.00,+12.00,+20.00,-2.00,-7.00,+4.00,-88.00,+47.00,-59.00,+0.00
+11.00,+6.00,-2.00,-10.00,-69.00,-14.00,+51.00,+11.00,-34.00,-2.00,-6.00,-2.00,+72.00,-7.00,-54.00,-15.00
+4.00,-11.00,-6.00,+7.00,-10.00,-71.00,-115.00,-2.00,-32.00,+4.00,+10.00,-57.00,+27.00,+23.00,+24.00,-4.00
+15.00,+8.00,+3.00,-5.00,+32.00,+27.00,-29.00,-17.00,+70.00,+0.00,-5.00,+28.00,-26.00,+38.00,-28.00,+13.00
+21.00,+1.00,+1.00,-7.00,-68.00,-21.00,-64.00,+6.00,-7.00,-4.00,+10.00,+43.00,+56.00,+22.00,+25.00,-4.00
-23.00,+8.00,-5.00,-7.00,-73.00,-37.00,-44.00,-7.00,+33.00,+22.00,-7.00,+64.00,+125.00,+23.00,-10.00,+2.00
+11.00,+0.00,+4.00,+19.00,+97.00,+16.00,+73.00,+9.00,-42.00,-5.00,+7.00,-16.00,+16.00,-37.00,+40.00,-1.00
+16.00,+6.00,+6.00,-11.00,+37.00,+69.00,-38.00,+9.00,+19.00,+9.00,+4.00,-71.00,+96.00,+0.00,-35.00,-4.00
-39.00,-9.00,-20.00,-11.00,-47.00,-64.00,-12.00,-20.00,+1.00,+6.00,+8.00,+39.00,-17.00,+4.00,-49.00,-3.00
+0.00,-8.00,+3.00,+9.00,+126.00,+34.00,+18.00,+2.00,+13.00,-5.00,-3.00,-12.00,-62.00,-10.00,-50.00,-3.00
+57.00,+12.00,+7.00,-8.00,-63.00,+47.00,-22.00,+11.00,+6.00,+2.00,+3.00,+40.00,-63.00,+3.00,+10.00,+7.00
-21.00,-1.00,-2.00,+13.00,+49.00,-5.00,-2.00,-3.00,-20.00,-10.00,-11.00,-60.00,+9.00,+61.00,+54.00,+13.00
+11.00,-4.00,+4.00,-4.00,-10.00,-14.00,+47.00,+22.00,+6.00,+5.00,-4.00,-11.00,+13.00,-21.00,-28.00,-5.00
-6.00,+13.00,-1.00,-3.00,+9.00,-7.00,-61.00,-4.00,+3.00,+0.00,-5.00,+4.00,-17.00,+104.00,+49.00,+7.00
-16.00,-23.00,-6.00,-15.00,+9.00,-39.00,-11.00,-1.00,+23.00,+7.00,+7.00,-9.00,-13.00,-3.00,+10.00,+7.00
+25.00,+8.00,+2.00,+1.00,+56.00,+34.00,-28.00,-23.00,-9.00,-5.00,+4.00,+14.00,-74.00,-21.00,-17.00,-7.00
-22.00,-2.00,+6.00,+16.00,+14.00,+26.00,-8.00,+1.00,-24.00,-7.00,-11.00,+22.00,-49.00,-2.00,+6.00,-8.00
+1.00,-3.00,-8.00,-6.00,+27.00,+10.00,-41.00,-3.00,-14.00,-7.00,-10.00,-39.00,-105.00,-2.00,+30.00,-8.00
+21.00,+0.00,-5.00,-10.00,-64.00,-18.00,-76.00,-13.00,-15.00,-7.00,+0.00,+23.00,-29.00,+9.00,-86.00,-13.00
+0.00,+18.00,+1.00,+6.00,+17.00,-15.00,+27.00,+3.00,-14.00,+7.00,+2.00,+13.00,-24.00,+7.00,-17.00,-1.00
-13.00,+15.00,+4.00,+11.00,+64.00,+24.00,-74.00,+2.00,-20.00,+0.00,-4.00,-7.00,+21.00,-29.00,-3.00,-8.00
+1.00,+0.00,+3.00,-3.00,-61.00,+0.00,+28.00,+0.00,+36.00,+0.00,-3.00,-6.00,-59.00,-17.00,+56.00,+4.00
+0.00,+7.00,+3.00,+3.00,+47.00,+4.00,+16.00,+17.00,-4.00,-5.00,-2.00,-40.00,-94.00,+64.00,-10.00,+1.00
-12.00,-13.00,-7.00,-6.00,-93.00,-16.00,+5.00,-2.00,+1.00,+4.00,-5.00,-34.00,-87.00,+2.00,-29.00,-6.00
-1.00,-5.00,-4.00,-10.00,-38.00,+7.00,+5.00,-7.00,-2.00,+0.00,+8.00,-47.00,-7.00,-15.00,+13.00,+3.00
-11.00,+2.00,+0.00,-9.00,-16.00,-18.00,-10.00,+2.00,-5.00,-6.00,-8.00,+22.00,-24.00,+1.00,-24.00,-4.00
-7.00,-7.00,+1.00,+10.00,+91.00,-27.00,+8.00,-4.00,-9.00,-2.00,+1.00,-4.00,+33.00,+64.00,+2.00,+2.00
-8.00,-6.00,-7.00,-8.00,-96.00,-28.00,-17.00,-2.00,+6.00,+3.00,+1.00,+46.00,+58.00,+18.00,-26.00,-4.00
+14.00,+5.00,+1.00,-3.00,+25.00,+19.00,+18.00,-8.00,-20.00,+4.00,-10.00,-31.00,+50.00,-25.00,+0.00,+6.00
+1.00,-13.00,-6.00,+4.00,+102.00,+10.00,-4.00,-6.00,-10.00,+1.00,+3.00,-1.00,+4.00,+29.00,+1.00,+0.00
-20.00,-3.00,-6.00,-5.00,-24.00,-26.00,-58.00,-11.00,-4.00,-2.00,+6.00,+64.00,+20.00,-44.00,+30.00,-3.00
+11.00,-2.00,+2.00,+4.00,+17.00,-6.00,-25.00,+11.00,+7.00,+1.00,-1.00,-38.00,+83.00,+14.00,+11.00,+1.00
-4.00,+4.00,+0.00,+3.00,+28.00,-4.00,+15.00,-6.00,+15.00,-4.00,+5.00,-7.00,+26.00,+0.00,-5.00,+2.00
-1.00,-5.00,+2.00,-2.00,-27.00,+3.00,+18.00,+1.00,-8.00,+2.00,+1.00,+9.00,-66.00,-74.00,-18.00,+1.00
-1.00,-5.00,-10.00,-18.00,-39.00,-5.00,+9.00,-6.00,+1.00,-7.00,-7.00,+2.00,+7.00,+4.00,+7.00,+0.00
+4.00,+1.00,-5.00,-9.00,-106.00,-21.00,+16.00,+6.00,-13.00,+7.00,+3.00,-4.00,+21.00,-49.00,+5.00,-6.00
-1.00,-3.00,-1.00,-4.00,-42.00,+22.00,-11.00,-10.00,+11.00,+1.00,+1.00,+21.00,-44.00,+20.00,+1.00,+2.00
-16.00,+0.00,+2.00,+11.00,+21.00,-39.00,-13.00,+1.00,-9.00,-2.00,-3.00,-27.00,+43.00,-3.00,-5.00,+0.00
-8.00,-2.00,+1.00,+5.00,+16.00,+15.00,+21.00,+0.00,-14.00,-3.00,-2.00,+8.00,-16.00,-20.00,+18.00,-4.00
+0.00,-6.00,+0.00,-7.00,-60.00,+2.00,-1.00,-5.00,-7.00,-1.00,+3.00,+16.00,-27.00,+10.00,+3.00,-4.00
+9.00,+5.00,+2.00,+7.00,-51.00,-14.00,+14.00,-3.00,+14.00,-2.00,-1.00,+2.00,-24.00,-2.00,-2.00,-3.00
+4.00,+0.00,-2.00,-3.00,-3.00,+20.00,-3.00,+2.00,+18.00,-8.00,-10.00,-16.00,+26.00,-10.00,-5.00,-11.00
-4.00,-4.00,+3.00,-7.00,-60.00,-33.00,+6.00,-1.00,+5.00,+7.00,+4.00,-6.00,-25.00,-11.00,+34.00,+0.00
+1.00,+1.00,-8.00,+6.00,+14.00,-2.00,+13.00,+5.00,-24.00,-4.00,+0.00,+15.00,+23.00,+15.00,+20.00,-5.00
+0.00,+0.00,+1.00,-10.00,-17.00,+0.00,-19.00,-2.00,-1.00,-1.00,-2.00,+15.00,-43.00,-9.00,-6.00,-3.00
+0.00,+0.00,-4.00,-1.00,+8.00,+1.00,+6.00,+1.00,-1.00,-2.00,-1.00,-70.00,+19.00,+62.00,+5.00,+0.00
-5.00,+0.00,-1.00,+5.00,+19.00,+27.00,+18.00,+1.00,-7.00,-2.00,-2.00,+32.00,+31.00,-99.00,-45.00,-2.00
+12.00,+3.00,+5.00,+0.00,-6.00,-10.00,-1.00,+2.00,+4.00,-1.00,-1.00,-37.00,-4.00,+16.00,+21.00,+10.00
-4.00,-2.00,-5.00,+0.00,-12.00,-10.00,+0.00,-9.00,-15.00,+0.00,-2.00,-5.00,-24.00,+7.00,+0.00,+1.00
+7.00,-5.00,-2.00,-8.00,-11.00,-19.00,-1.00,-1.00,-5.00,-1.00,+2.00,-26.00,-44.00,-14.00,-55.00,-6.00
-5.00,-2.00,-1.00,-3.00,+5.00,+20.00,+21.00,-3.00,+8.00,-2.00,+0.00,-12.00,+34.00,+30.00,-7.00,-5.00
-4.00,+1.00,+5.00,+5.00,+30.00,+6.00,+34.00,+6.00,-21.00,-6.00,-2.00,+16.00,-18.00,-23.00,-39.00,-7.00
-5.00,+3.00,-4.00,-5.00,-13.00,+19.00,+15.00,+6.00,+11.00,-2.00,+2.00,+6.00,-41.00,-20.00,+74.00,+6.00
-6.00,+2.00,+0.00,-2.00,-21.00,-11.00,-22.00,+4.00,+2.00,+1.00,+3.00,+35.00,+37.00,+6.00,-5.00,+3.00
-4.00,-2.00,-1.00,+8.00,+46.00,+33.00,+29.00,+7.00,-3.00,+5.00,+2.00,-8.00,+6.00,+2.00,+0.00,-4.00
-19.00,-7.00,-4.00,-9.00,-36.00,-3.00,+7.00,-4.00,+17.00,+1.00,+10.00,+0.00,-51.00,-11.00,+2.00,-5.00
+7.00,-1.00,-2.00,+0.00,-1.00,-2.00,-1.00,-1.00,-5.00,-10.00,-15.00,+2.00,+45.00,+10.00,-11.00,-7.00
-12.00,-3.00,-1.00,-2.00,-18.00,-8.00,+60.00,+3.00,+4.00,+2.00,-3.00,+6.00,+4.00,-14.00,+3.00,-5.00
+5.00,+2.00,-1.00,+4.00,+2.00,-2.00,-37.00,-4.00,-4.00,-5.00,-7.00,+1.00,-64.00,+14.00,+2.00,-2.00
-2.00,-3.00,+1.00,-1.00,+32.00,+11.00,-16.00,-2.00,-17.00,-4.00,-5.00,+1.00,+24.00,-11.00,+14.00,-3.00
-11.00,-6.00,-4.00,-3.00,+11.00,-5.00,-56.00,-9.00,+19.00,+6.00,+4.00,-3.00,+6.00,-8.00,-7.00,+1.00
+6.00,+5.00,-2.00,-4.00,-39.00,-8.00,-18.00,-14.00,-6.00,+3.00,+2.00,+17.00,+32.00,-42.00,+5.00,-1.00
-3.00,-4.00,-1.00,-3.00,-19.00,+1.00,+13.00,-5.00,+2.00,-8.00,+3.00,-4.00,+30.00,+22.00,-26.00,-4.00
+9.00,+1.00,-2.00,+0.00,-5.00,+1.00,-15.00,-6.00,+8.00,-1.00,-2.00,-1.00,-32.00,-6.00,+6.00,-1.00
-7.00,-5.00,+0.00,-4.00,+21.00,-2.00,-4.00,-4.00,-7.00,-3.00,+0.00,+3.00,+30.00,-1.00,-2.00,+5.00
-10.00,+2.00,+4.00,-5.00,+7.00,-1.00,-26.00,+0.00,-17.00,-6.00,-4.00,+17.00,-13.00,+13.00,-58.00,+4.00
+2.00,-1.00,-10.00,-1.00,-6.00,-23.00,-5.00,-1.00,+5.00,+5.00,+5.00,+16.00,-31.00,+10.00,-3.00,+6.00
-4.00,+4.00,+5.00,-6.00,-9.00,-11.00,-37.00,+0.00,-4.00,-11.00,-8.00,-42.00,+60.00,-15.00,-5.00,-5.00
+1.00,-4.00,-1.00,+4.00,+29.00,+3.00,+4.00,+2.00,-16.00,-10.00,-4.00,+22.00,+9.00,+1.00,-18.00,-4.00
-7.00,-2.00,+2.00,+1.00,-3.00,+23.00,-4.00,-3.00,+41.00,+17.00,-4.00,-35.00,+11.00,-10.00,+29.00,+6.00
+1.00,-5.00,-8.00,-2.00,-14.00,-49.00,+20.00,-1.00,-11.00,+4.00,+4.00,+20.00,-3.00,-8.00,-4.00,-3.00
+4.00,-14.00,-8.00,+0.00,-1.00,+8.00,+18.00,+0.00,+12.00,+1.00,-6.00,+4.00,-26.00,+20.00,-5.00,-5.00
+14.00,-13.00,-2.00,+1.00,+18.00,+18.00,+11.00,+1.00,-33.00,+8.00,+4.00,-7.00,-65.00,-1.00,-12.00,-8.00
+18.00,+56.00,+4.00,+0.00,-1.00,-1.00,+2.00,+3.00,-34.00,-9.00,+2.00,+6.00,+68.00,+13.00,+10.00,-8.00
+5.00,-4.00,+2.00,-5.00,-43.00,-11.00,-4.00,-3.00,-10.00,+0.00,-5.00,+4.00,-11.00,-16.00,+2.00,+0.00
+7.00,-2.00,-2.00,-5.00,-32.00,+5.00,-5.00,+3.00,+32.00,+3.00,-1.00,+4.00,-30.00,-28.00,+4.00,-2.00
-9.00,+15.00,+2.00,+6.00,+61.00,+17.00,+50.00,+5.00,+3.00,+14.00,+15.00,-10.00,+35.00,-1.00,+2.00,-3.00
+1.00,-7.00,-3.00,+2.00,+12.00,-3.00,-39.00,-2.00,-22.00,-12.00,+2.00,+17.00,+13.00,+11.00,+8.00,-4.00
-7.00,-18.00,-1.00,+7.00,+26.00,+26.00,+0.00,+4.00,+16.00,+27.00,+0.00,-16.00,+12.00,+15.00,-2.00,+4.00
+4.00,+21.00,+3.00,-5.00,-48.00,-14.00,+3.00,+3.00,-37.00,-31.00,-38.00,+1.00,-3.00,+4.00,+3.00,-3.00
-4.00,-15.00,-1.00,-2.00,-7.00,+1.00,+11.00,-1.00,+33.00,+1.00,-13.00,-11.00,-3.00,-9.00,-4.00,+4.00
-4.00,-11.00,-6.00,-1.00,+0.00,-9.00,+4.00,+0.00,-7.00,-13.00,+5.00,+10.00,-11.00,+3.00,+7.00,+3.00
+45.00,+11.00,-1.00,-3.00,-6.00,+16.00,-9.00,-2.00,+26.00,-16.00,+3.00,-7.00,+17.00,+5.00,-4.00,-5.00
+27.00,+15.00,-2.00,-2.00,+1.00,+3.00,-11.00,-2.00,-4.00,+30.00,+16.00,+0.00,-9.00,-4.00,-3.00,+7.00
-7.00,-9.00,+3.00,-3.00,-5.00,-22.00,+3.00,+0.00,-28.00,-19.00,-7.00,+5.00,+1.00,-10.00,-1.00,-7.00
+5.00,-42.00,-9.00,+2.00,+7.00,+10.00,+1.00,-1.00,+9.00,+16.00,+5.00,+3.00,-47.00,+4.00,+11.00,+10.00
-36.00,+19.00,-18.00,-3.00,-4.00,+4.00,-12.00,-2.00,-36.00,-25.00,-7.00,-1.00,+18.00,-6.00,-2.00,-15.00
+2.00,-12.00,+10.00,+2.00,+14.00,+4.00,-4.00,-2.00,+91.00,+20.00,+5.00,+12.00,+12.00,+15.00,+28.00,+15.00
+11.00,+9.00,+14.00,-3.00,+0.00,+2.00,-13.00,-1.00,-14.00,-15.00,+4.00,-25.00,-16.00,-10.00,+0.00,-3.00
-7.00,+33.00,+10.00,+2.00,+0.00,-10.00,+6.00,+2.00,-41.00,-14.00,-1.00,+5.00,+75.00,+6.00,-6.00,-7.00
-7.00,+5.00,+11.00,-2.00,-8.00,+1.00,+4.00,+0.00,+17.00,+9.00,-4.00,-8.00,+11.00,-14.00,+38.00,-6.00
-20.00,+2.00,-17.00,-1.00,+17.00,-5.00,+3.00,-1.00,-22.00,+10.00,+4.00,-1.00,-52.00,-17.00,+1.00,-1.00
-22.00,-97.00,-19.00,-8.00,-8.00,+2.00,-5.00,+0.00,+35.00,+15.00,+2.00,+23.00,+12.00,+10.00,-6.00,-5.00
+56.00,+85.00,+11.00,-1.00,-11.00,-6.00,-1.00,+7.00,-69.00,-21.00,-7.00,-20.00,-7.00,-20.00,-2.00,-4.00
-7.00,-43.00,+1.00,+3.00,-3.00,-1.00,+0.00,+2.00,+46.00,+9.00,-2.00,-15.00,+14.00,+24.00,-6.00,+2.00
-8.00,+12.00,-3.00,-5.00,-5.00,+3.00,-9.00,-6.00,-15.00,-15.00,+4.00,+7.00,+12.00,+7.00,-3.00,+0.00
-32.00,-10.00,-2.00,+3.00,+2.00,+2.00,-11.00,+1.00,+46.00,+1.00,-2.00,-13.00,+17.00,-15.00,+5.00,+7.00
+7.00,-2.00,-2.00,+4.00,+36.00,-6.00,+3.00,+0.00,-18.00,+8.00,-5.00,+12.00,-12.00,-2.00,+0.00,-16.00
-5.00,+12.00,+3.00,+1.00,+16.00,-7.00,+29.00,+0.00,-73.00,-23.00,-5.00,+1.00,-17.00,+4.00,-11.00,-5.00
-13.00,-36.00,-3.00,+3.00,+24.00,-17.00,-7.00,-3.00,+67.00,+27.00,+4.00,-7.00,-1.00,+0.00,-1.00,+10.00
+7.00,+36.00,-3.00,-4.00,-18.00,-29.00,+7.00,-2.00,-30.00,-25.00,-2.00,+5.00,-19.00,+4.00,-10.00,-4.00
-17.00,-52.00,-11.00,-6.00,-36.00,-7.00,+5.00,-5.00,+32.00,+8.00,-6.00,+0.00,+2.00,-3.00,+8.00,+10.00
-12.00,+11.00,+2.00,-4.00,+11.00,-20.00,-4.00,-2.00,+18.00,+7.00,+2.00,-5.00,+8.00,-5.00,-10.00,+6.00
-5.00,+5.00,+9.00,+6.00,+6.00,-7.00,+1.00,+3.00,-25.00,-11.00,-1.00,+4.00,+3.00,+3.00,-10.00,+6.00
+23.00,+69.00,+0.00,-3.00,-9.00,+16.00,-6.00,-3.00,-1.00,-6.00,-1.00,-3.00,+21.00,-4.00,+2.00,-1.00
-18.00,-19.00,-2.00,+0.00,+3.00,-8.00,-5.00,-2.00,+10.00,-7.00,-7.00,+3.00,+0.00,-1.00,+0.00,-3.00
+0.00,-34.00,-4.00,-5.00,-9.00,-1.00,-16.00,-7.00,-1.00,+0.00,+0.00,-5.00,+1.00,+0.00,+2.00,+6.00
-6.00,-26.00,-6.00,-3.00,-4.00,-1.00,-3.00,-2.00,-21.00,-15.00,+0.00,+5.00,-8.00,-5.00,-6.00,-16.00
-4.00,-42.00,-3.00,-1.00,+7.00,-1.00,-9.00,-1.00,+29.00,+30.00,+4.00,-5.00,+2.00,+9.00,+2.00,+5.00
+14.00,+83.00,+3.00,+0.00,-1.00,+4.00,+4.00,+0.00,-16.00,-9.00,+0.00,-1.00,-21.00,-10.00,+19.00,-5.00
-10.00,+17.00,+2.00,+1.00,-7.00,+4.00,-1.00,-2.00,-20.00,+0.00,-3.00,+3.00,-10.00,+0.00,-46.00,-7.00
-5.00,-58.00,-8.00,-3.00,+5.00,+4.00,+5.00,-1.00,+19.00,-7.00,-2.00,-4.00,-51.00,+3.00,-2.00,-4.00
+7.00,+93.00,+7.00,+2.00,+1.00,+6.00,+5.00,+1.00,-25.00,+3.00,-2.00,+1.00,+14.00,-16.00,-1.00,-1.00
