+0.00,+1.00,+1.00,+0.00,+9.00,+3.00,+0.00,-1.00,-4.00,-4.00,-4.00,-1.00,+3.00,-4.00,-2.00,+3.00
-16.00,-6.00,-3.00,+0.00,-15.00,-2.00,-1.00,-1.00,-2.00,-2.00,+1.00,+2.00,+3.00,+0.00,-3.00,+0.00
+5.00,+0.00,-2.00,+0.00,+9.00,+0.00,-2.00,-4.00,+3.00,+4.00,+2.00,-3.00,-13.00,-5.00,-1.00,+4.00
-14.00,-11.00,-3.00,-3.00,+1.00,+5.00,-1.00,-6.00,-10.00,-4.00,+0.00,-7.00,+4.00,+1.00,-2.00,-1.00
+14.00,+9.00,+6.00,+3.00,+23.00,-2.00,+3.00,+8.00,-19.00,-3.00,+0.00,-5.00,-2.00,-3.00,-5.00,-9.00
-1.00,-9.00,+0.00,+2.00,+8.00,+1.00,-2.00,+0.00,+17.00,-11.00,-5.00,+3.00,-3.00,-2.00,-4.00,-4.00
-1.00,+2.00,-2.00,-1.00,+2.00,+0.00,-2.00,-5.00,+11.00,+6.00,+2.00,+3.00,-3.00,-3.00,+2.00,+16.00
+9.00,+2.00,+1.00,-1.00,+4.00,+4.00,+0.00,+1.00,+1.00,-2.00,+0.00,-4.00,-1.00,+0.00,-3.00,-3.00
-7.00,-5.00,-2.00,-2.00,-17.00,-2.00,-5.00,-7.00,+0.00,+11.00,+2.00,+0.00,-3.00,-3.00,+0.00,+0.00
-1.00,+0.00,+0.00,-1.00,+7.00,-1.00,-4.00,-5.00,-9.00,-9.00,-5.00,+0.00,+4.00,+3.00,-2.00,-5.00
-7.00,-7.00,-3.00,-3.00,-4.00,+2.00,-1.00,+7.00,-4.00,-5.00,-1.00,-3.00,+2.00,+1.00,-2.00,-2.00
+22.00,+6.00,+3.00,+1.00,-2.00,-7.00,+3.00,+5.00,-2.00,-1.00,+1.00,+6.00,-1.00,-3.00,+0.00,+1.00
-5.00,+1.00,+0.00,+0.00,+1.00,+2.00,-2.00,-1.00,+4.00,-3.00,-1.00,-1.00,+7.00,-1.00,-2.00,-7.00
+1.00,+2.00,+0.00,+0.00,-4.00,-3.00,+2.00,+0.00,-9.00,-6.00,-6.00,-1.00,+0.00,+0.00,+1.00,+6.00
-8.00,-1.00,-3.00,-1.00,-7.00,-3.00,-2.00,-8.00,-4.00,+2.00,-3.00,+0.00,-7.00,-7.00,+0.00,-5.00
+8.00,+1.00,-1.00,-1.00,+2.00,-1.00,-1.00,+3.00,-5.00,+1.00,+0.00,+2.00,-1.00,+0.00,-1.00,-3.00
-6.00,-7.00,-6.00,+1.00,-4.00,+3.00,-4.00,-3.00,+1.00,-6.00,-4.00,+1.00,-1.00,-1.00,+0.00,-5.00
-4.00,-3.00,+0.00,-2.00,+3.00,+0.00,+1.00,+6.00,+2.00,+0.00,+2.00,-2.00,+5.00,+7.00,-2.00,-3.00
-3.00,+2.00,-2.00,-1.00,-2.00,+0.00,+0.00,-3.00,-6.00,-1.00,-4.00,-6.00,-3.00,-12.00,-1.00,-3.00
-7.00,+1.00,+0.00,+0.00,+2.00,+3.00,-1.00,-3.00,+2.00,-2.00,+1.00,+0.00,-5.00,-15.00,-3.00,-2.00
-1.00,+1.00,-1.00,-1.00,-1.00,-2.00,+1.00,-5.00,+0.00,+2.00,-2.00,-1.00,+0.00,+3.00,-2.00,-3.00
-1.00,+1.00,+2.00,-1.00,-5.00,-3.00,-4.00,-2.00,+1.00,+2.00,+1.00,-3.00,-4.00,-4.00,-1.00,-1.00
+3.00,-2.00,+2.00,+1.00,+3.00,+2.00,+0.00,+1.00,-5.00,-4.00,-1.00,-2.00,-2.00,+9.00,-1.00,-2.00
+4.00,-1.00,-1.00,+0.00,+3.00,-2.00,-2.00,+0.00,+2.00,-4.00,+1.00,+1.00,-3.00,+2.00,-2.00,-1.00
-3.00,-1.00,-1.00,+0.00,-2.00,+0.00,-2.00,-3.00,+2.00,-2.00,-2.00,-1.00,+7.00,-5.00,-2.00,+0.00
-5.00,+0.00,-2.00,+0.00,-3.00,-2.00,+0.00,-1.00,-7.00,+2.00,-4.00,-2.00,-2.00,+0.00,-3.00,+3.00
+6.00,+0.00,+2.00,-1.00,-3.00,-2.00,-1.00,+0.00,-2.00,+0.00,+0.00,-3.00,-4.00,+0.00,-1.00,-4.00
-7.00,-2.00,-1.00,+1.00,+1.00,+0.00,-3.00,-3.00,+1.00,-9.00,-3.00,+1.00,+3.00,+1.00,+1.00,-2.00
-10.00,-3.00,-2.00,-2.00,-5.00,-3.00,-3.00,-3.00,+4.00,-3.00,-3.00,+0.00,-4.00,-1.00,+2.00,+5.00
+15.00,+2.00,+0.00,-2.00,+1.00,-1.00,-2.00,+8.00,+0.00,-5.00,-8.00,-1.00,-2.00,-1.00,+0.00,+1.00
+2.00,+1.00,-4.00,-2.00,-4.00,+0.00,-2.00,+0.00,+2.00,-1.00,-7.00,-3.00,+1.00,+4.00,+0.00,+4.00
-14.00,-1.00,+0.00,+0.00,+0.00,-9.00,+0.00,-3.00,-2.00,+1.00,-3.00,+0.00,+1.00,+2.00,+0.00,-1.00
+5.00,+5.00,+2.00,-1.00,+0.00,-2.00,+3.00,-1.00,+0.00,+2.00,+4.00,+0.00,-1.00,+0.00,-1.00,-3.00
-3.00,-2.00,+0.00,-2.00,-7.00,-1.00,-2.00,-3.00,-1.00,+4.00,+1.00,-1.00,-3.00,-8.00,-1.00,-6.00
-8.00,+0.00,+1.00,+0.00,+0.00,+4.00,+0.00,+1.00,+0.00,+0.00,+2.00,+3.00,-1.00,-2.00,-4.00,+1.00
-3.00,-10.00,-4.00,+0.00,-2.00,-1.00,-2.00,+0.00,-3.00,+1.00,+1.00,-6.00,+0.00,+3.00,-1.00,+0.00
+1.00,-2.00,+2.00,+1.00,-2.00,-3.00,-1.00,+1.00,-1.00,-2.00,-3.00,-2.00,-2.00,-1.00,-1.00,+0.00
+2.00,-2.00,-2.00,-1.00,+1.00,+2.00,+0.00,-2.00,-4.00,-12.00,-5.00,-3.00,+1.00,-1.00,+0.00,-6.00
-5.00,-1.00,-2.00,+1.00,-1.00,-5.00,+0.00,-1.00,-2.00,+4.00,+2.00,-1.00,-1.00,-2.00,+0.00,-2.00
-12.00,-1.00,-2.00,-1.00,-2.00,+0.00,-3.00,-4.00,-1.00,-3.00,-1.00,+3.00,-1.00,+2.00,-3.00,-2.00
+2.00,-2.00,-2.00,-1.00,-1.00,-1.00,-2.00,+1.00,+0.00,+1.00,+3.00,-1.00,-6.00,-2.00,-1.00,-1.00
+5.00,-3.00,+2.00,+1.00,+0.00,-1.00,-1.00,+0.00,-2.00,+1.00,+3.00,-3.00,-8.00,-2.00,-2.00,+3.00
-2.00,+1.00,+0.00,-1.00,-2.00,-2.00,+0.00,-5.00,-2.00,-4.00,-3.00,-1.00,+2.00,+1.00,-2.00,+1.00
+4.00,+3.00,+1.00,-1.00,-1.00,-1.00,+2.00,+2.00,+0.00,-7.00,-3.00,-3.00,+4.00,+0.00,-2.00,-3.00
+4.00,+3.00,+0.00,-1.00,+0.00,+0.00,-1.00,-3.00,-1.00,+3.00,-1.00,+0.00,+0.00,+2.00,-1.00,-3.00
-2.00,+0.00,-1.00,-1.00,+2.00,-1.00,+1.00,-2.00,-4.00,+0.00,+2.00,-1.00,-2.00,-5.00,+0.00,-8.00
-3.00,-3.00,+0.00,+0.00,+0.00,+1.00,+1.00,+9.00,+0.00,+1.00,-1.00,-3.00,-4.00,-1.00,+0.00,+1.00
+9.00,+7.00,+0.00,-2.00,-1.00,+0.00,-1.00,-1.00,+2.00,+0.00,-1.00,+1.00,+1.00,-1.00,+3.00,-1.00
-3.00,-1.00,+0.00,+0.00,+1.00,-3.00,-2.00,+0.00,+5.00,+3.00,-2.00,-1.00,-2.00,-2.00,-1.00,+3.00
+5.00,-1.00,-1.00,+0.00,-2.00,+0.00,-2.00,-7.00,-2.00,-2.00,+1.00,-3.00,+3.00,+3.00,+0.00,+2.00
+5.00,+0.00,+0.00,+0.00,-2.00,-1.00,-2.00,-2.00,-1.00,-1.00,-2.00,+0.00,-1.00,+0.00,-3.00,-6.00
-6.00,-1.00,-2.00,-2.00,-2.00,-1.00,-1.00,+1.00,-4.00,-6.00,-5.00,+0.00,-1.00,-2.00,-1.00,-1.00
-3.00,-2.00,-3.00,-2.00,+6.00,+3.00,-1.00,-1.00,+0.00,-1.00,-5.00,+0.00,+2.00,-2.00,-1.00,+0.00
-7.00,+3.00,-5.00,-2.00,-3.00,+3.00,-1.00,-1.00,+0.00,+11.00,+6.00,+0.00,-2.00,-2.00,-1.00,-2.00
-12.00,-1.00,-2.00,-2.00,+0.00,-8.00,-1.00,-1.00,-4.00,-1.00,+2.00,-2.00,-1.00,+1.00,-1.00,-1.00
+0.00,-6.00,-2.00,+0.00,+1.00,+3.00,+5.00,+2.00,+1.00,+1.00,-2.00,-2.00,-2.00,-1.00,+0.00,+2.00
-1.00,-2.00,-3.00,-1.00,-2.00,+0.00,-3.00,-4.00,-4.00,+3.00,+1.00,-1.00,-3.00,-8.00,+0.00,-3.00
+3.00,-2.00,+3.00,+0.00,+1.00,+3.00,-2.00,+4.00,-1.00,+1.00,+1.00,+2.00,+2.00,-2.00,-5.00,+0.00
-4.00,+2.00,+0.00,-3.00,+0.00,-1.00,+0.00,-1.00,-6.00,-9.00,-3.00,-4.00,-2.00,-3.00,-2.00,-6.00
-10.00,+2.00,-3.00,-2.00,-3.00,-3.00,-1.00,-6.00,+0.00,+2.00,+2.00,-1.00,+0.00,+2.00,-2.00,-2.00
+8.00,+3.00,+2.00,+1.00,-2.00,+0.00,+1.00,+3.00,+0.00,-2.00,+1.00,-1.00,-1.00,+2.00,+0.00,+0.00
-9.00,-3.00,-1.00,+1.00,+0.00,-4.00,-3.00,-2.00,+0.00,-3.00,-3.00,+0.00,-1.00,-4.00,-1.00,-3.00
-1.00,-2.00,-1.00,-3.00,-2.00,+1.00,-1.00,-1.00,-2.00,-5.00,-2.00,-1.00,-2.00,-1.00,+1.00,-3.00
+0.00,-2.00,+0.00,+1.00,+2.00,-2.00,-1.00,-2.00,-3.00,+2.00,+0.00,+0.00,-1.00,-2.00,-2.00,-3.00
-6.00,-2.00,-1.00,-1.00,-1.00,+3.00,-3.00,-2.00,+0.00,-4.00,+3.00,-1.00,+1.00,-2.00,-1.00,+4.00
-11.00,-1.00,-2.00,-1.00,+0.00,-2.00,-3.00,-4.00,+3.00,-5.00,-4.00,-2.00,+0.00,+0.00,-3.00,-2.00
+8.00,+3.00,-1.00,+1.00,-2.00,+2.00,+1.00,+2.00,+0.00,-1.00,+1.00,-1.00,+1.00,+6.00,-3.00,-1.00
-5.00,-3.00,-3.00,-2.00,+1.00,+3.00,-2.00,-5.00,-4.00,-2.00,-1.00,-1.00,-2.00,-8.00,+0.00,-2.00
-1.00,-6.00,+0.00,-1.00,-2.00,-2.00,-1.00,-1.00,-2.00,+1.00,-1.00,+1.00,-3.00,-14.00,+0.00,+0.00
+7.00,+2.00,+0.00,-1.00,+1.00,-3.00,+0.00,+1.00,+0.00,-6.00,-3.00,+0.00,+0.00,+4.00,+0.00,+1.00
+1.00,+2.00,-4.00,+0.00,-1.00,+1.00,-2.00,-1.00,-1.00,+2.00,+0.00,-2.00,-1.00,-4.00,-3.00,-3.00
+1.00,-1.00,-4.00,+0.00,-2.00,-2.00,-5.00,+1.00,+2.00,-2.00,-1.00,-2.00,+0.00,+4.00,-1.00,+1.00
-3.00,-1.00,-2.00,+1.00,-1.00,-2.00,-1.00,+0.00,+2.00,+1.00,-1.00,-2.00,+2.00,+8.00,-2.00,+0.00
+3.00,-1.00,-4.00,-2.00,-1.00,+4.00,+0.00,+2.00,+0.00,-1.00,+1.00,-1.00,+0.00,-8.00,-1.00,+2.00
+2.00,-3.00,+1.00,-1.00,-2.00,-12.00,-1.00,-2.00,-2.00,-1.00,-2.00,+1.00,-2.00,-2.00,-1.00,-3.00
+7.00,-1.00,+1.00,+0.00,+0.00,+7.00,+2.00,+4.00,+0.00,+1.00,+1.00,+0.00,+0.00,+4.00,+0.00,+0.00
-1.00,-3.00,-1.00,+0.00,+1.00,+0.00,-1.00,+2.00,-5.00,-4.00,-1.00,+0.00,-5.00,-9.00,-2.00,+0.00
+5.00,-2.00,-2.00,-1.00,-2.00,+0.00,+1.00,-1.00,+0.00,+0.00,-3.00,-2.00,-3.00,+2.00,-2.00,-3.00
+5.00,-2.00,-2.00,-3.00,+0.00,-1.00,-1.00,-3.00,-2.00,+3.00,+3.00,+0.00,-2.00,+0.00,+0.00,-3.00
+0.00,+2.00,+1.00,+0.00,+0.00,-3.00,-3.00,-2.00,+3.00,+1.00,-3.00,-2.00,+0.00,-1.00,+1.00,+3.00
+0.00,-3.00,+2.00,-1.00,-1.00,-5.00,-1.00,+0.00,+0.00,+0.00,-2.00,-1.00,+0.00,+1.00,-2.00,-4.00
-2.00,-2.00,+0.00,-2.00,-3.00,-2.00,-1.00,-3.00,+2.00,-1.00,-3.00,-3.00,+0.00,+0.00,+0.00,-1.00
-3.00,-6.00,-3.00,-1.00,-1.00,+3.00,-1.00,-3.00,+3.00,+3.00,-1.00,-1.00,+0.00,-3.00,-1.00,-1.00
+26.00,+6.00,+4.00,+0.00,+2.00,+0.00,-1.00,+2.00,-4.00,-4.00,-5.00,-1.00,+0.00,-1.00,-1.00,-2.00
+0.00,+3.00,-2.00,-2.00,-1.00,+3.00,+0.00,-17.00,+0.00,-8.00,-2.00,-4.00,-1.00,+3.00,-2.00,-4.00
+6.00,+4.00,+0.00,+0.00,+1.00,-3.00,+2.00,+3.00,-2.00,+2.00,+1.00,-1.00,-4.00,-4.00,-3.00,+0.00
-2.00,-4.00,+1.00,+1.00,-2.00,+0.00,-2.00,-1.00,-3.00,-5.00,-4.00,-4.00,-1.00,-1.00,+1.00,+0.00
-12.00,-2.00,-4.00,-1.00,-2.00,-2.00,+0.00,+1.00,-3.00,+4.00,+0.00,-1.00,+0.00,+0.00,+0.00,+2.00
-5.00,-1.00,+1.00,-1.00,-1.00,-3.00,-1.00,-3.00,+1.00,+1.00,-2.00,-2.00,+0.00,-1.00,+1.00,-4.00
-5.00,-2.00,-1.00,+0.00,-1.00,+0.00,-3.00,-4.00,+1.00,-3.00,+0.00,-1.00,-2.00,+0.00,-1.00,-1.00
+0.00,-1.00,+1.00,-1.00,+1.00,+2.00,+0.00,-2.00,-3.00,-6.00,-3.00,+1.00,+0.00,-2.00,-2.00,-1.00
-2.00,+2.00,+0.00,+1.00,+0.00,+1.00,-2.00,-4.00,-2.00,-2.00,+0.00,-2.00,+0.00,-1.00,-2.00,-2.00
-4.00,-4.00,+0.00,-1.00,-1.00,+1.00,-4.00,+0.00,-6.00,-4.00,+0.00,+0.00,-2.00,+0.00,-1.00,+0.00
-3.00,+1.00,-2.00,-1.00,-1.00,+0.00,-2.00,+1.00,-1.00,+5.00,+1.00,-2.00,-2.00,+0.00,+1.00,+0.00
-5.00,-1.00,-2.00,-2.00,+1.00,+0.00,+1.00,+1.00,+3.00,-1.00,-1.00,+0.00,-2.00,-2.00,-1.00,-2.00
-3.00,-4.00,-4.00,-3.00,-2.00,-3.00,+1.00,+0.00,-1.00,+0.00,+1.00,+2.00,-1.00,-3.00,-3.00,+2.00
+4.00,+2.00,-3.00,-2.00,-1.00,-1.00,+0.00,+3.00,+1.00,+0.00,-1.00,+0.00,+1.00,+1.00,-2.00,-2.00
-6.00,+1.00,+1.00,-1.00,+0.00,-3.00,-2.00,-1.00,-3.00,-3.00,+0.00,-1.00,+0.00,+1.00,-2.00,-4.00
-9.00,-2.00,+0.00,+0.00,-1.00,+0.00,-3.00,-9.00,+1.00,+1.00,-2.00,-2.00,-2.00,-1.00,-1.00,+3.00
-1.00,+0.00,+3.00,+1.00,+0.00,-1.00,+0.00,+3.00,-1.00,+0.00,-1.00,-4.00,-4.00,-3.00,-2.00,-3.00
+2.00,-5.00,-3.00,+0.00,-4.00,-5.00,-1.00,+3.00,+1.00,-4.00,-4.00,-4.00,+0.00,-5.00,+1.00,+4.00
-2.00,+0.00,+1.00,-3.00,-2.00,+9.00,+2.00,-1.00,-1.00,+3.00,-2.00,-1.00,+4.00,+8.00,-2.00,+1.00
-1.00,-2.00,-1.00,+0.00,-3.00,+2.00,+0.00,+2.00,-5.00,-8.00,-1.00,+0.00,-5.00,-6.00,-1.00,-2.00
+4.00,-2.00,-3.00,+0.00,+0.00,+1.00,-1.00,-3.00,-1.00,+0.00,+1.00,-1.00,-2.00,-1.00,-5.00,-7.00
-6.00,-1.00,-3.00,+0.00,+0.00,+3.00,-1.00,-2.00,+0.00,+3.00,+2.00,-1.00,-1.00,-1.00,-3.00,+2.00
+1.00,-4.00,-2.00,+1.00,-1.00,-5.00,-4.00,-3.00,-3.00,-8.00,-3.00,-1.00,-3.00,-3.00,+2.00,+1.00
+5.00,+1.00,+0.00,-2.00,-1.00,-2.00,-2.00,+2.00,-3.00,+6.00,+3.00,+0.00,+1.00,+3.00,+0.00,-1.00
-7.00,-4.00,-4.00,-1.00,-3.00,+0.00,+0.00,-1.00,-1.00,-5.00,-5.00,+0.00,+0.00,+0.00,+0.00,+2.00
-3.00,+2.00,-1.00,-2.00,-1.00,-3.00,-1.00,+0.00,-4.00,-7.00,-2.00,+0.00,+0.00,+2.00,+0.00,-2.00
+0.00,-2.00,+0.00,-3.00,-2.00,-2.00,+1.00,-3.00,+0.00,-1.00,+2.00,-1.00,+1.00,-1.00,-1.00,+0.00
+4.00,+3.00,+0.00,-1.00,-1.00,-1.00,-4.00,-4.00,+1.00,-2.00,-1.00,-3.00,+0.00,+0.00,-3.00,+0.00
-2.00,-1.00,-1.00,-1.00,-1.00,-5.00,+0.00,-1.00,+0.00,+0.00,+0.00,-1.00,-1.00,-2.00,-1.00,-3.00
+2.00,-6.00,-4.00,-1.00,+0.00,-1.00,+2.00,+5.00,-4.00,+2.00,-1.00,+1.00,+1.00,+0.00,-2.00,-4.00
-4.00,-6.00,-2.00,-1.00,+0.00,-4.00,+0.00,+0.00,-1.00,-2.00,+1.00,-1.00,-3.00,-4.00,-2.00,-4.00
+3.00,+3.00,+1.00,+0.00,+1.00,+1.00,-1.00,+3.00,-5.00,-7.00,-5.00,-1.00,+0.00,-2.00,+0.00,-2.00
-4.00,+3.00,+1.00,-1.00,+0.00,-1.00,-4.00,-1.00,-1.00,-7.00,-8.00,-5.00,-1.00,+0.00,+0.00,+0.00
-7.00,-3.00,-1.00,+1.00,-1.00,-2.00,+1.00,-1.00,-1.00,-1.00,-1.00,+0.00,-1.00,+3.00,+0.00,+3.00
-2.00,+1.00,-1.00,+0.00,+0.00,-1.00,+0.00,-3.00,+0.00,+5.00,+1.00,+1.00,-1.00,-1.00,+0.00,-1.00
+0.00,-4.00,-2.00,-1.00,-2.00,-1.00,+0.00,-1.00,-2.00,-3.00,+0.00,-2.00,-1.00,-1.00,-2.00,-2.00
-4.00,-6.00,+0.00,-1.00,-1.00,+0.00,-3.00,-4.00,+0.00,+1.00,+2.00,+0.00,-4.00,-2.00,-3.00,-1.00
+4.00,+0.00,-3.00,-3.00,-3.00,+2.00,+0.00,+2.00,-1.00,+1.00,+0.00,-2.00,-1.00,-2.00,+0.00,+2.00
-7.00,-3.00,+0.00,+0.00,-1.00,-1.00,-1.00,-3.00,-5.00,+0.00,-1.00,-2.00,-3.00,-2.00,-3.00,-5.00
+3.00,+2.00,-2.00,-2.00,-2.00,+0.00,+1.00,+3.00,+1.00,-1.00,+2.00,+2.00,+0.00,-1.00,+0.00,+0.00
-5.00,-2.00,-1.00,-1.00,-1.00,-1.00,+1.00,+0.00,+3.00,+0.00,+0.00,+2.00,+0.00,+1.00,-1.00,+2.00
+2.00,+3.00,+2.00,-1.00,-1.00,-1.00,-2.00,+0.00,-3.00,+1.00,-1.00,-1.00,-3.00,-1.00,-1.00,-6.00
+6.00,+3.00,-4.00,-2.00,-1.00,+0.00,+3.00,+6.00,+1.00,-9.00,-2.00,-1.00,-1.00,-2.00,+0.00,+4.00
-1.00,+0.00,-2.00,-2.00,-1.00,+3.00,-2.00,-1.00,-1.00,+5.00,+0.00,-2.00,+0.00,-1.00,-1.00,+0.00
-4.00,+1.00,-1.00,-2.00,-1.00,-12.00,+1.00,-2.00,-3.00,+5.00,+3.00,-1.00,+0.00,-1.00,-1.00,-1.00
+3.00,-3.00,-3.00,-2.00,-1.00,+2.00,+0.00,+0.00,-2.00,-2.00,+1.00,-2.00,+2.00,+6.00,-3.00,-6.00
-3.00,-2.00,-1.00,-1.00,+1.00,-1.00,-2.00,+1.00,-2.00,-1.00,+0.00,-2.00,-3.00,-13.00,-2.00,-1.00
+3.00,+0.00,+1.00,+2.00,+0.00,+0.00,+0.00,-1.00,+2.00,+0.00,+1.00,-1.00,+1.00,+1.00,-1.00,-2.00
+4.00,+6.00,-1.00,+0.00,+0.00,+0.00,-1.00,+2.00,-4.00,-3.00,-2.00,+0.00,-1.00,-3.00,-1.00,-3.00
-3.00,+0.00,+0.00,-2.00,-2.00,-3.00,-2.00,-1.00,+3.00,+0.00,+2.00,-1.00,-4.00,+1.00,+1.00,+1.00
-4.00,-4.00,-4.00,+0.00,-1.00,-3.00,-2.00,-4.00,-2.00,+0.00,-3.00,+0.00,-1.00,+3.00,+0.00,-2.00
-3.00,+0.00,-1.00,+0.00,-2.00,-1.00,+0.00,-1.00,-1.00,-3.00,-6.00,-1.00,-2.00,-3.00,+0.00,+2.00
-1.00,-3.00,-2.00,-1.00,-1.00,+0.00,+0.00,+0.00,+0.00,+3.00,+0.00,+0.00,-1.00,+0.00,-1.00,-2.00
-3.00,+2.00,+0.00,+0.00,+0.00,-3.00,+1.00,-3.00,-3.00,-1.00,-2.00,-1.00,-1.00,+0.00,+0.00,-3.00
-3.00,-5.00,-1.00,-1.00,-3.00,+0.00,+0.00,+0.00,-2.00,-2.00,-1.00,-3.00,-1.00,-1.00,-2.00,+1.00
-1.00,-2.00,+1.00,-1.00,+0.00,-2.00,+0.00,-3.00,+2.00,+3.00,+0.00,-1.00,-2.00,-4.00,-2.00,+1.00
+3.00,-5.00,-1.00,+0.00,-1.00,+1.00,-1.00,+2.00,-2.00,-6.00,-2.00,-1.00,+0.00,+2.00,+0.00,-2.00
+3.00,+2.00,-1.00,-1.00,+0.00,-2.00,-1.00,+1.00,+1.00,+6.00,-1.00,+1.00,-4.00,-5.00,-4.00,-1.00
-2.00,-4.00,-3.00,-2.00,-3.00,-3.00,-2.00,-3.00,-2.00,+0.00,-2.00,-1.00,+0.00,-1.00,-1.00,-1.00
+0.00,-2.00,-3.00,+0.00,-2.00,-1.00,-1.00,-2.00,-4.00,-1.00,+0.00,+1.00,-1.00,+1.00,-1.00,-1.00
-4.00,-6.00,-2.00,-2.00,+1.00,+1.00,-1.00,-3.00,+0.00,+1.00,+1.00,+1.00,+1.00,-3.00,-2.00,+3.00
-3.00,+0.00,-2.00,-2.00,+0.00,+2.00,-1.00,-1.00,-3.00,-1.00,-3.00,+0.00,-1.00,-1.00,+0.00,+1.00
-5.00,+3.00,+0.00,+0.00,-1.00,-2.00,-1.00,+0.00,-3.00,-3.00,-2.00,+1.00,-1.00,+0.00,-1.00,-1.00
-5.00,-6.00,-4.00,-3.00,-1.00,-3.00,-1.00,-2.00,-1.00,+0.00,-2.00,-2.00,-2.00,+1.00,-1.00,-3.00
-1.00,+2.00,+1.00,+0.00,-3.00,+3.00,-2.00,+1.00,+0.00,-1.00,+1.00,-2.00,-2.00,-1.00,-2.00,-1.00
-8.00,-1.00,+2.00,-1.00,-3.00,-1.00,+2.00,-2.00,-4.00,-9.00,-2.00,-3.00,+0.00,-3.00,+0.00,+5.00
+6.00,+4.00,+0.00,-1.00,+0.00,+0.00,+0.00,+1.00,-2.00,+0.00,-1.00,-2.00,+0.00,+1.00,+0.00,+0.00
-10.00,-4.00,-1.00,+0.00,-1.00,+1.00,-2.00,-3.00,-1.00,-3.00,-4.00,-1.00,-1.00,-2.00,-4.00,-2.00
+8.00,+1.00,-4.00,-3.00,-2.00,-1.00,-2.00,+0.00,+1.00,+0.00,-2.00,-1.00,-1.00,-2.00,-1.00,+1.00
-1.00,-5.00,-6.00,+0.00,+0.00,-2.00,-2.00,+0.00,-1.00,-2.00,+1.00,+1.00,-1.00,+0.00,+0.00,-3.00
-2.00,+2.00,+0.00,-3.00,-1.00,-1.00,+2.00,+2.00,-1.00,-5.00,-1.00,+0.00,-1.00,+0.00,+1.00,-3.00
+1.00,+1.00,+1.00,+1.00,+3.00,-1.00,+0.00,-2.00,-4.00,+0.00,+2.00,-2.00,-2.00,-1.00,+0.00,-3.00
+1.00,-3.00,+2.00,+1.00,+0.00,+0.00,+1.00,-1.00,-1.00,-1.00,-1.00,-1.00,-2.00,-2.00,-1.00,+0.00
-2.00,+3.00,+1.00,-3.00,-1.00,+0.00,-2.00,-5.00,+4.00,-3.00,-3.00,-2.00,+1.00,-2.00,+0.00,-2.00
+1.00,-5.00,+1.00,-1.00,-1.00,+0.00,-1.00,-1.00,-1.00,+2.00,+2.00,+1.00,-1.00,-1.00,+1.00,+2.00
-2.00,+0.00,-4.00,+0.00,+0.00,-3.00,+1.00,+2.00,-1.00,-2.00,-1.00,+2.00,+0.00,+1.00,+0.00,-2.00
+0.00,-2.00,-1.00,-2.00,-2.00,-2.00,-1.00,-2.00,-1.00,+0.00,-2.00,+1.00,-1.00,+1.00,-4.00,-4.00
-1.00,+1.00,-1.00,+1.00,+1.00,+0.00,-1.00,+0.00,+1.00,+3.00,+1.00,-1.00,-1.00,-2.00,+0.00,-2.00
+5.00,+1.00,-1.00,+1.00,+0.00,-1.00,-3.00,-1.00,+0.00,+5.00,+3.00,-1.00,-1.00,+0.00,-1.00,+1.00
-3.00,+0.00,-2.00,-2.00,-4.00,+0.00,-1.00,-1.00,+1.00,-6.00,-8.00,-3.00,-1.00,+1.00,-1.00,+0.00
+0.00,+1.00,+2.00,-1.00,+0.00,+1.00,-1.00,-1.00,-3.00,+2.00,+0.00,+0.00,+0.00,+0.00,+0.00,-3.00
-13.00,-6.00,-1.00,-2.00,-3.00,-1.00,-3.00,-3.00,-3.00,-7.00,-4.00,-1.00,-1.00,-2.00,+0.00,+3.00
+6.00,+0.00,+2.00,+0.00,+0.00,+1.00,+0.00,+0.00,-2.00,-2.00,-2.00,-3.00,+0.00,-2.00,-3.00,-5.00
+0.00,-1.00,-2.00,-2.00,+0.00,-1.00,-3.00,-2.00,+2.00,+0.00,+0.00,-1.00,+0.00,+1.00,+0.00,+5.00
-1.00,-1.00,-4.00,-2.00,-1.00,+1.00,-2.00,-1.00,-1.00,+0.00,+0.00,-1.00,+0.00,-1.00,-1.00,+0.00
+2.00,-3.00,-1.00,-1.00,+0.00,-1.00,+4.00,+3.00,+1.00,+0.00,-2.00,-3.00,-1.00,-5.00,-2.00,-6.00
-8.00,-3.00,-2.00,-1.00,-1.00,-1.00,-2.00,-3.00,+0.00,-3.00,-2.00,-1.00,-1.00,-1.00,+0.00,+3.00
+8.00,+1.00,+0.00,+0.00,-1.00,-1.00,+0.00,+2.00,-1.00,+0.00,+3.00,-1.00,-1.00,-1.00,+0.00,-1.00
-9.00,+0.00,+1.00,+0.00,+0.00,+0.00,-1.00,-5.00,+0.00,-11.00,-6.00,-5.00,+1.00,+1.00,+0.00,-2.00
-2.00,+2.00,+1.00,+0.00,-1.00,+1.00,-1.00,+0.00,-4.00,+0.00,+1.00,-2.00,+0.00,+3.00,-3.00,-5.00
-3.00,-1.00,+0.00,+1.00,+0.00,-1.00,-1.00,-5.00,+0.00,+4.00,-3.00,-1.00,+0.00,-3.00,+0.00,-1.00
+4.00,+1.00,+1.00,-1.00,-1.00,-2.00,+1.00,+0.00,-2.00,-6.00,-4.00,-1.00,-1.00,-5.00,-3.00,-4.00
-4.00,-5.00,-3.00,+0.00,+0.00,-1.00,+0.00,+0.00,+0.00,+0.00,+0.00,-1.00,-2.00,-1.00,-2.00,-4.00
-1.00,-1.00,+0.00,+0.00,-1.00,+0.00,-2.00,-3.00,-3.00,+4.00,+1.00,-1.00,-3.00,-2.00,-2.00,-2.00
+0.00,+0.00,+0.00,+1.00,+1.00,-2.00,-1.00,-1.00,+0.00,+0.00,+1.00,+1.00,-1.00,+2.00,-4.00,-3.00
-9.00,-1.00,-1.00,-2.00,-2.00,-2.00,-3.00,-2.00,-3.00,-4.00,-4.00,+1.00,+0.00,-1.00,+2.00,+4.00
+0.00,-1.00,-2.00,-1.00,+0.00,+0.00,+1.00,+1.00,-3.00,-1.00,+0.00,-1.00,-3.00,-3.00,-3.00,-1.00
-12.00,-4.00,-5.00,-2.00,+1.00,-1.00,-3.00,-5.00,-4.00,-2.00,+0.00,-1.00,-1.00,-1.00,-2.00,-2.00
+3.00,+5.00,-1.00,-1.00,-2.00,+0.00,-1.00,+3.00,+1.00,+2.00,+0.00,+0.00,-3.00,-1.00,-2.00,-4.00
+22.00,+0.00,-2.00,+2.00,+2.00,+1.00,+1.00,+7.00,+0.00,+5.00,+1.00,-2.00,-3.00,-1.00,+0.00,-4.00
+6.00,+2.00,+0.00,-1.00,-3.00,-3.00,+0.00,+5.00,+1.00,+2.00,-2.00,-1.00,+0.00,+0.00,-1.00,-1.00
+2.00,-4.00,+0.00,+0.00,+0.00,+0.00,-1.00,+0.00,-5.00,-2.00,+1.00,+0.00,+0.00,-1.00,+0.00,-3.00
+3.00,-3.00,-2.00,-3.00,-3.00,+0.00,-1.00,-20.00,+2.00,-1.00,-4.00,-2.00,-2.00,+0.00,+2.00,+2.00
-10.00,-3.00,-3.00,-1.00,-1.00,-1.00,-1.00,+6.00,-1.00,-1.00,+3.00,+0.00,+0.00,-1.00,-3.00,-1.00
-2.00,+2.00,+3.00,-1.00,-1.00,-1.00,+0.00,+1.00,+0.00,+1.00,-1.00,+1.00,-1.00,-3.00,-2.00,-3.00
+9.00,-5.00,+1.00,+2.00,+0.00,+0.00,-1.00,+3.00,+0.00,+1.00,+2.00,-2.00,+0.00,-3.00,-2.00,+1.00
+1.00,+3.00,+0.00,-1.00,+0.00,-1.00,-1.00,-5.00,-2.00,-6.00,-3.00,-2.00,-1.00,+1.00,+0.00,+0.00
-8.00,-4.00,-3.00,+0.00,-1.00,+1.00,-1.00,-6.00,-1.00,-3.00,-5.00,-1.00,+0.00,+2.00,-1.00,+0.00
-9.00,-3.00,-2.00,-1.00,+0.00,-1.00,-1.00,-3.00,-2.00,-6.00,-3.00,-1.00,-2.00,+1.00,-1.00,+0.00
+0.00,-1.00,+0.00,-1.00,-2.00,-2.00,-2.00,+0.00,+0.00,-5.00,-5.00,+1.00,-1.00,-1.00,-1.00,+0.00
-6.00,-3.00,-4.00,-1.00,+0.00,-2.00,-1.00,+4.00,-2.00,+0.00,-2.00,+0.00,+2.00,-1.00,+0.00,+2.00
-4.00,+2.00,-2.00,-3.00,-2.00,-2.00,-2.00,-5.00,+2.00,+0.00,+2.00,-1.00,-1.00,-1.00,-2.00,-5.00
+9.00,-1.00,+1.00,+1.00,+0.00,-1.00,+1.00,+6.00,-1.00,+1.00,+0.00,-1.00,+1.00,-1.00,+2.00,+3.00
+0.00,-3.00,+0.00,-1.00,-1.00,-1.00,-3.00,-4.00,-2.00,-2.00,-6.00,-2.00,+2.00,+0.00,-1.00,+1.00
-8.00,-4.00,-1.00,-1.00,-3.00,-1.00,-1.00,+1.00,-2.00,-4.00,-2.00,-2.00,-1.00,-3.00,-2.00,-4.00
+5.00,+0.00,-3.00,-2.00,-3.00,+0.00,+2.00,-1.00,+1.00,-1.00,-1.00,+0.00,+0.00,-2.00,-3.00,+1.00
-13.00,+1.00,-2.00,+1.00,+0.00,+0.00,-1.00,-4.00,-1.00,+1.00,+2.00,+0.00,-3.00,-2.00,+0.00,+0.00
+1.00,+1.00,-1.00,+0.00,+1.00,-2.00,-1.00,+0.00,-2.00,-4.00,+1.00,-1.00,-2.00,+0.00,+0.00,+1.00
-4.00,-6.00,-4.00,-2.00,-1.00,+1.00,+1.00,+4.00,-3.00,-5.00,-3.00,+2.00,+1.00,+0.00,-1.00,-1.00
+3.00,-3.00,+2.00,-2.00,-1.00,+0.00,+0.00,+0.00,-2.00,+3.00,+2.00,+0.00,-2.00,-1.00,-3.00,+0.00
-4.00,-4.00,-1.00,-3.00,-3.00,-1.00,-2.00,-5.00,+1.00,+0.00,-1.00,-4.00,+0.00,-2.00,+1.00,+1.00
+1.00,+0.00,-1.00,-1.00,+0.00,-1.00,+0.00,-1.00,+3.00,+2.00,-1.00,-2.00,+0.00,-1.00,-1.00,-2.00
-10.00,+0.00,-1.00,-1.00,+1.00,-2.00,-1.00,+1.00,-1.00,-6.00,-1.00,-2.00,-2.00,-1.00,+0.00,-4.00
+1.00,+3.00,+2.00,-1.00,+0.00,-3.00,-1.00,-1.00,+0.00,-3.00,-3.00,-2.00,-2.00,-1.00,+0.00,-1.00
+2.00,-2.00,-1.00,-2.00,-1.00,-1.00,+0.00,-2.00,-2.00,-4.00,-2.00,-1.00,-2.00,-1.00,-2.00,-5.00
+2.00,-2.00,-1.00,-1.00,-1.00,-1.00,+0.00,-2.00,-3.00,-2.00,-2.00,+0.00,-2.00,+0.00,+0.00,-2.00
-2.00,-1.00,+2.00,+0.00,-2.00,-2.00,-2.00,-3.00,-2.00,+4.00,+1.00,-1.00,+0.00,+1.00,+0.00,-1.00
-4.00,+0.00,+0.00,+0.00,+1.00,+1.00,+4.00,-3.00,+2.00,-2.00,-3.00,-2.00,+0.00,-1.00,+1.00,+1.00
+5.00,-1.00,+0.00,-1.00,+0.00,-1.00,+0.00,+1.00,-2.00,-5.00,-2.00,-2.00,-1.00,-2.00,-2.00,-4.00
+9.00,-1.00,-3.00,-2.00,-1.00,-1.00,-1.00,+1.00,-2.00,+1.00,+0.00,+1.00,+0.00,-2.00,-2.00,+2.00
-2.00,-4.00,-3.00,-2.00,-2.00,-1.00,+0.00,-4.00,-1.00,+0.00,+0.00,-1.00,+0.00,-1.00,-2.00,-1.00
+4.00,+0.00,+0.00,+1.00,-1.00,-2.00,-2.00,+2.00,-5.00,-3.00,-1.00,-1.00,-2.00,+0.00,+3.00,+2.00
-4.00,-1.00,-1.00,-1.00,+0.00,+0.00,-1.00,+0.00,+1.00,-1.00,-3.00,+0.00,-1.00,+0.00,+3.00,+6.00
-1.00,-4.00,-2.00,-2.00,+0.00,+1.00,-1.00,-1.00,+0.00,-3.00,+0.00,-2.00,-1.00,-1.00,-3.00,-1.00
-5.00,-2.00,-3.00,+0.00,-1.00,-1.00,-2.00,+0.00,+3.00,+0.00,-1.00,-3.00,-2.00,-1.00,-4.00,-2.00
+3.00,+0.00,-2.00,+1.00,+0.00,-1.00,-3.00,-3.00,-3.00,-4.00,-1.00,-1.00,+0.00,+1.00,+0.00,-5.00
-4.00,+0.00,-5.00,-2.00,-1.00,-1.00,-1.00,-5.00,+5.00,+0.00,+0.00,+0.00,-1.00,-2.00,-3.00,-1.00
-13.00,+4.00,-2.00,-1.00,+0.00,-1.00,-2.00,-5.00,-3.00,-4.00,-3.00,+0.00,-1.00,-1.00,-3.00,+0.00
+5.00,-2.00,-1.00,+0.00,+0.00,-1.00,+0.00,+2.00,+0.00,+1.00,+0.00,-2.00,+1.00,+0.00,+0.00,+4.00
-5.00,-4.00,+0.00,-3.00,-1.00,-2.00,+0.00,+0.00,+0.00,+0.00,-3.00,-2.00,-1.00,-1.00,+0.00,-2.00
-4.00,+1.00,+0.00,-1.00,-1.00,-3.00,-3.00,-3.00,-2.00,-3.00,+0.00,-1.00,+1.00,+1.00,+0.00,+1.00
+4.00,+1.00,-1.00,+0.00,-2.00,+0.00,-2.00,+0.00,-1.00,+2.00,+0.00,+2.00,-2.00,-1.00,+0.00,+0.00
+3.00,+2.00,+0.00,+0.00,+0.00,+2.00,-1.00,+0.00,-2.00,-2.00,-2.00,+2.00,-2.00,-2.00,-2.00,-3.00
-5.00,-3.00,-2.00,-2.00,-3.00,-1.00,-2.00,-2.00,-1.00,-1.00,+0.00,-1.00,+0.00,-1.00,-1.00,+2.00
-4.00,-4.00,-2.00,-3.00,-2.00,-2.00,+1.00,+0.00,-2.00,+1.00,-1.00,+0.00,-1.00,+1.00,-1.00,-2.00
-6.00,+0.00,+0.00,+0.00,-2.00,+0.00,+0.00,-2.00,-1.00,-3.00,+1.00,+0.00,-3.00,-2.00,-1.00,-3.00
+10.00,-6.00,+0.00,-1.00,-1.00,-2.00,+1.00,+3.00,-4.00,+0.00,+1.00,-1.00,+0.00,-2.00,-1.00,-2.00
-4.00,-6.00,-3.00,-3.00,-2.00,+0.00,-2.00,-1.00,+1.00,+0.00,-2.00,-1.00,-1.00,-1.00,-2.00,-2.00
+1.00,+1.00,-2.00,-3.00,-1.00,-1.00,-1.00,+2.00,-5.00,+3.00,+2.00,+0.00,-2.00,+0.00,-1.00,+1.00
+11.00,+5.00,+1.00,-1.00,+1.00,+0.00,+1.00,+2.00,-3.00,+3.00,+2.00,-2.00,-1.00,-2.00,-2.00,-1.00
-1.00,+2.00,-1.00,-1.00,-2.00,-1.00,+0.00,-3.00,-1.00,-4.00,-2.00,-4.00,-3.00,-1.00,-2.00,-4.00
-6.00,+3.00,+1.00,+2.00,-1.00,+0.00,-2.00,-4.00,+2.00,+0.00,+0.00,-2.00,-1.00,-2.00,-2.00,-2.00
-5.00,+0.00,+1.00,+1.00,-1.00,+0.00,-2.00,-5.00,-2.00,+3.00,+0.00,-2.00,+1.00,+0.00,+0.00,-1.00
+0.00,+1.00,+2.00,+1.00,+0.00,-5.00,+2.00,+3.00,-1.00,+1.00,-1.00,-3.00,-1.00,+1.00,-2.00,-2.00
+3.00,+1.00,-1.00,-3.00,-2.00,+0.00,-1.00,-2.00,+2.00,+0.00,-1.00,+1.00,-2.00,-6.00,-1.00,-2.00
+2.00,-2.00,+0.00,+0.00,-1.00,-3.00,-2.00,-2.00,-2.00,+1.00,+2.00,+2.00,-3.00,+1.00,-1.00,-1.00
+1.00,+0.00,-6.00,-1.00,-1.00,+0.00,-4.00,-2.00,-3.00,-5.00,+0.00,-2.00,-2.00,-1.00,-2.00,+0.00
-6.00,-4.00,-4.00,-1.00,-1.00,-1.00,-2.00,-4.00,+0.00,-2.00,-4.00,-1.00,-1.00,+0.00,-1.00,-2.00
+2.00,+2.00,-1.00,+1.00,+0.00,+2.00,+1.00,+5.00,-1.00,-5.00,-4.00,-2.00,+1.00,+1.00,+1.00,+1.00
-17.00,-3.00,-3.00,-3.00,-1.00,-2.00,-2.00,-6.00,-4.00,-2.00,+3.00,-1.00,-1.00,-4.00,-3.00,-2.00
+15.00,+4.00,+0.00,+0.00,+1.00,+0.00,+0.00,+4.00,-2.00,-3.00,-1.00,-2.00,-3.00,-1.00,-2.00,-1.00
-4.00,-3.00,-2.00,+0.00,+0.00,+1.00,-2.00,+0.00,-2.00,+1.00,+2.00,-1.00,-2.00,-2.00,+0.00,+2.00
-5.00,-3.00,-2.00,-2.00,-1.00,-1.00,-3.00,-1.00,-4.00,+0.00,+0.00,-1.00,-1.00,+0.00,-2.00,-2.00
-7.00,-4.00,-2.00,+0.00,+0.00,+0.00,+1.00,-3.00,-1.00,-2.00,-1.00,-2.00,+0.00,-1.00,+0.00,-5.00
+2.00,-3.00,+1.00,+1.00,-3.00,-2.00,-1.00,-3.00,+1.00,+4.00,+2.00,+0.00,+0.00,+1.00,+1.00,+3.00
-3.00,+0.00,+0.00,-1.00,-1.00,-1.00,+0.00,-3.00,+3.00,-10.00,-7.00,+0.00,+3.00,+0.00,+0.00,-5.00
-8.00,+5.00,+1.00,-2.00,-1.00,+0.00,-1.00,-2.00,-2.00,-4.00,+2.00,-2.00,+0.00,-1.00,+1.00,+1.00
+9.00,+4.00,+0.00,-1.00,+1.00,+0.00,+1.00,+2.00,-1.00,+1.00,-1.00,-1.00,+2.00,-2.00,-2.00,+0.00
+9.00,+0.00,-2.00,-2.00,+1.00,-1.00,+0.00,+6.00,-3.00,-5.00,-2.00,-1.00,+0.00,-4.00,-2.00,-6.00
+8.00,-2.00,-6.00,-2.00,-1.00,+1.00,-1.00,-11.00,+1.00,+1.00,+0.00,-2.00,+0.00,-2.00,-2.00,-3.00
-11.00,-2.00,-1.00,+1.00,+0.00,-2.00,-2.00,+14.00,-1.00,+1.00,-3.00,+1.00,+0.00,+0.00,+1.00,+0.00
+5.00,+0.00,+0.00,+0.00,+0.00,-1.00,-2.00,+1.00,+0.00,-3.00,-1.00,+1.00,-1.00,-1.00,+0.00,-1.00
-6.00,-3.00,+0.00,-1.00,+0.00,+1.00,+1.00,-2.00,+1.00,-1.00,-2.00,+0.00,+0.00,+0.00,-2.00,-3.00
-1.00,-6.00,-1.00,-1.00,-1.00,+0.00,-1.00,-1.00,-2.00,+4.00,+4.00,+2.00,-1.00,-2.00,+0.00,+0.00
+7.00,+5.00,+1.00,+0.00,-1.00,-2.00,-1.00,-3.00,+0.00,-1.00,-3.00,-1.00,-2.00,-1.00,-3.00,-2.00
+3.00,+0.00,-1.00,-1.00,-2.00,+0.00,-1.00,-3.00,-3.00,-4.00,-2.00,-4.00,-3.00,-1.00,-2.00,+1.00
-15.00,-4.00,-2.00,+1.00,-1.00,-2.00,-2.00,-4.00,-3.00,-2.00,-2.00,-1.00,+2.00,-1.00,+0.00,-3.00
-2.00,+4.00,+0.00,-1.00,+0.00,-1.00,-2.00,+4.00,-1.00,+0.00,+0.00,-2.00,-1.00,+1.00,+0.00,+0.00
-8.00,-5.00,-4.00,-2.00,+0.00,-1.00,+0.00,-8.00,-3.00,+0.00,-1.00,+0.00,-1.00,+0.00,-3.00,-2.00
+10.00,+0.00,+0.00,-1.00,+1.00,-2.00,-3.00,+2.00,-4.00,-1.00,+0.00,-1.00,-1.00,-1.00,+3.00,+1.00
-2.00,-2.00,+1.00,-2.00,-1.00,+1.00,-1.00,-1.00,+0.00,+0.00,-4.00,+0.00,-2.00,-2.00,-1.00,-1.00
-10.00,+6.00,+0.00,-2.00,-4.00,-3.00,+3.00,+2.00,-1.00,-2.00,-6.00,-5.00,+1.00,+2.00,-2.00,-2.00
+2.00,-5.00,-1.00,+1.00,+0.00,+0.00,-1.00,-1.00,+1.00,-3.00,-2.00,+0.00,-1.00,-3.00,+1.00,+2.00
+13.00,+6.00,+0.00,+0.00,+0.00,+1.00,+1.00,+2.00,+0.00,-5.00,-2.00,+0.00,-1.00,-3.00,-2.00,-3.00
-6.00,+1.00,+0.00,+0.00,+0.00,-1.00,-1.00,-7.00,+2.00,-3.00,-1.00,-2.00,-2.00,-1.00,+0.00,+4.00
+4.00,-3.00,+2.00,+0.00,-1.00,-1.00,-1.00,+4.00,-1.00,+7.00,+2.00,+0.00,-2.00,-1.00,-1.00,-1.00
-3.00,-2.00,+1.00,+0.00,+0.00,-1.00,-4.00,+1.00,+0.00,+0.00,-1.00,+1.00,-2.00,+1.00,-2.00,+0.00
-5.00,-2.00,+0.00,+0.00,-2.00,+0.00,+0.00,-2.00,-1.00,+1.00,-2.00,-3.00,+1.00,-2.00,-2.00,+1.00
+2.00,-4.00,-2.00,+1.00,-2.00,+0.00,+2.00,+1.00,-3.00,-4.00,+0.00,-4.00,+1.00,-2.00,-1.00,-2.00
-7.00,+1.00,+0.00,-1.00,+0.00,-1.00,-2.00,+0.00,-1.00,-4.00,-1.00,-1.00,-1.00,-1.00,-1.00,-2.00
+7.00,+2.00,-3.00,+1.00,+0.00,-1.00,+0.00,-4.00,-1.00,-2.00,+0.00,-2.00,-1.00,+1.00,-1.00,-2.00
-7.00,-4.00,-1.00,+0.00,-1.00,-1.00,-4.00,-3.00,+1.00,-1.00,-3.00,+0.00,-2.00,-2.00,-3.00,-2.00
+5.00,+2.00,-3.00,+1.00,+0.00,-1.00,+3.00,+1.00,-1.00,-2.00,-5.00,+0.00,-1.00,-3.00,+0.00,-3.00
-7.00,-2.00,-1.00,-2.00,-3.00,+0.00,+0.00,-3.00,-1.00,-1.00,-4.00,-3.00,-2.00,-1.00,-2.00,+0.00
+3.00,-3.00,-2.00,-2.00,-1.00,+0.00,+1.00,-6.00,-1.00,-1.00,+0.00,-4.00,-1.00,-3.00,-1.00,+0.00
-3.00,-1.00,-4.00,-3.00,-2.00,+0.00,+0.00,-6.00,+1.00,+4.00,+1.00,-1.00,+0.00,-1.00,-1.00,-2.00
-7.00,+0.00,-2.00,+0.00,-2.00,-1.00,-2.00,-4.00,-3.00,-2.00,+1.00,-2.00,-1.00,+1.00,-2.00,-1.00
+2.00,+0.00,+1.00,+1.00,+0.00,-1.00,-2.00,+0.00,+2.00,+2.00,+3.00,+0.00,-1.00,-2.00,+1.00,+1.00
+2.00,+2.00,+4.00,+0.00,+1.00,+0.00,+0.00,+2.00,-1.00,-2.00,+1.00,+0.00,-1.00,+0.00,-1.00,+0.00
-4.00,+0.00,+3.00,-2.00,-1.00,-3.00,+0.00,+2.00,+3.00,+0.00,-1.00,-1.00,-3.00,+2.00,+0.00,-3.00
+7.00,-5.00,+0.00,-2.00,-3.00,-3.00,-3.00,+7.00,+1.00,+1.00,-1.00,-1.00,-3.00,+0.00,-2.00,+0.00
+12.00,+1.00,-3.00,-4.00,+0.00,+1.00,+0.00,+6.00,-3.00,-13.00,-4.00,-1.00,+0.00,+0.00,+2.00,-2.00
-7.00,-2.00,+0.00,+0.00,-1.00,-3.00,-3.00,-2.00,+1.00,+0.00,-6.00,-3.00,+0.00,+0.00,-6.00,-2.00
-7.00,+1.00,+1.00,-1.00,-1.00,-1.00,-1.00,-3.00,+3.00,-1.00,-1.00,+1.00,+1.00,-2.00,+1.00,+4.00
-8.00,-3.00,-1.00,+1.00,+3.00,+0.00,-1.00,-1.00,-2.00,+2.00,-3.00,-4.00,-1.00,-2.00,-2.00,-1.00
-3.00,-2.00,+0.00,-1.00,+0.00,-1.00,-1.00,-4.00,+0.00,-8.00,-3.00,+0.00,-2.00,-1.00,-2.00,+0.00
+5.00,+0.00,-1.00,-3.00,-1.00,+0.00,-1.00,+4.00,+1.00,-5.00,-5.00,+1.00,-1.00,-1.00,-2.00,-1.00
-2.00,-2.00,-2.00,+0.00,-2.00,-2.00,-1.00,-3.00,-3.00,+7.00,+3.00,+0.00,+0.00,-1.00,-2.00,+0.00
-6.00,-2.00,-2.00,+0.00,-1.00,+0.00,-1.00,-3.00,-1.00,-1.00,-1.00,-1.00,-1.00,-2.00,-1.00,+0.00
-3.00,-4.00,-2.00,+0.00,-1.00,-1.00,-3.00,+1.00,-2.00,-5.00,-1.00,+0.00,+2.00,+2.00,+0.00,+1.00
-2.00,-3.00,-3.00,-4.00,+0.00,+1.00,+0.00,-4.00,+0.00,+2.00,+1.00,-1.00,-3.00,-3.00,+2.00,-2.00
-5.00,-1.00,-2.00,-1.00,+2.00,-2.00,-2.00,+1.00,-4.00,-1.00,-2.00,-2.00,-4.00,-4.00,-3.00,-5.00
+0.00,-3.00,-3.00,-2.00,-2.00,+0.00,-3.00,-3.00,-1.00,-6.00,-2.00,-1.00,-1.00,+1.00,+1.00,+0.00
-3.00,+1.00,+1.00,+2.00,-1.00,-2.00,-1.00,+0.00,-3.00,+2.00,-1.00,-2.00,+0.00,-2.00,-2.00,-2.00
+1.00,+1.00,-1.00,+0.00,-1.00,-3.00,-2.00,+0.00,-3.00,-2.00,+0.00,-2.00,-1.00,+3.00,-1.00,+0.00
-2.00,-1.00,-2.00,-1.00,-2.00,-2.00,-1.00,-1.00,-1.00,-1.00,+0.00,-1.00,+0.00,+1.00,-2.00,+0.00
-8.00,-3.00,-2.00,-3.00,+0.00,-1.00,+0.00,+1.00,-2.00,-4.00,-2.00,-2.00,+1.00,-1.00,-1.00,-2.00
-5.00,+0.00,-3.00,-2.00,-1.00,-1.00,-1.00,-1.00,+2.00,+2.00,-1.00,-1.00,-1.00,-2.00,-2.00,-1.00
+1.00,+1.00,-1.00,-1.00,-1.00,+1.00,+1.00,-2.00,-2.00,-2.00,-3.00,-1.00,+0.00,-1.00,+0.00,-1.00
-3.00,-4.00,-2.00,-4.00,-1.00,+1.00,-2.00,+0.00,-5.00,-6.00,-3.00,-1.00,+0.00,+0.00,+1.00,-4.00
+2.00,-1.00,+2.00,+0.00,+1.00,+0.00,-1.00,+1.00,-3.00,+0.00,-1.00,-2.00,-1.00,-1.00,-1.00,-3.00
+7.00,+2.00,+2.00,+0.00,+0.00,-1.00,-1.00,+2.00,+0.00,-2.00,-1.00,-2.00,-2.00,-1.00,-2.00,-1.00
+6.00,-3.00,-1.00,-1.00,+0.00,-2.00,+0.00,+1.00,-3.00,+1.00,+0.00,-3.00,+0.00,-2.00,-2.00,-5.00
-9.00,-1.00,-1.00,+0.00,-1.00,-1.00,+0.00,-3.00,+1.00,-2.00,-1.00,-2.00,-2.00,+0.00,-1.00,+3.00
+10.00,-1.00,+0.00,-2.00,-3.00,+0.00,-1.00,-2.00,-1.00,+6.00,+5.00,+1.00,-2.00,-1.00,-1.00,-4.00
-5.00,-2.00,+0.00,-1.00,+0.00,-1.00,+1.00,-3.00,+1.00,-2.00,-1.00,+2.00,-2.00,-2.00,-1.00,+5.00
-11.00,-2.00,+0.00,+0.00,-2.00,-3.00,-2.00,-3.00,-3.00,+1.00,-2.00,+0.00,+0.00,+0.00,-3.00,-2.00
+2.00,-6.00,-3.00,-2.00,-1.00,-2.00,+0.00,+1.00,+1.00,+3.00,-2.00,+0.00,+0.00,+0.00,+2.00,+1.00
+5.00,+3.00,+0.00,+1.00,+1.00,-3.00,-2.00,-2.00,+1.00,-2.00,+0.00,+1.00,-1.00,-2.00,+0.00,-2.00
+4.00,+1.00,-1.00,+1.00,+2.00,+0.00,-2.00,-3.00,+0.00,+2.00,+0.00,-2.00,-2.00,-2.00,-1.00,-1.00
-6.00,+0.00,-4.00,-5.00,-5.00,-1.00,+0.00,+1.00,+0.00,-12.00,-6.00,-1.00,-1.00,+2.00,+3.00,+3.00
+1.00,+2.00,-1.00,+1.00,-1.00,-1.00,+2.00,+1.00,+2.00,+2.00,-2.00,-3.00,-2.00,+1.00,-1.00,+0.00
-7.00,-1.00,-2.00,-1.00,-1.00,-3.00,+0.00,-2.00,+0.00,-6.00,-5.00,-3.00,-1.00,+4.00,-2.00,-3.00
+2.00,-5.00,-1.00,-2.00,+1.00,-1.00,+0.00,+3.00,+1.00,+2.00,-3.00,-1.00,+0.00,-4.00,-1.00,-1.00
-2.00,-1.00,-1.00,-2.00,-1.00,+0.00,+1.00,-6.00,+1.00,+6.00,-2.00,+2.00,-3.00,-3.00,-1.00,+1.00
+2.00,+2.00,+1.00,+0.00,+0.00,+0.00,-3.00,+0.00,-4.00,-1.00,+0.00,+2.00,-1.00,-1.00,-1.00,-2.00
-3.00,-4.00,-2.00,-1.00,-2.00,+2.00,-1.00,-3.00,+3.00,+2.00,+0.00,-1.00,-1.00,-1.00,+0.00,-1.00
+4.00,+2.00,-1.00,+0.00,-1.00,-1.00,-2.00,+0.00,-5.00,-1.00,-2.00,-1.00,-1.00,+1.00,-1.00,-3.00
+8.00,-2.00,+1.00,+1.00,-1.00,-1.00,-4.00,-24.00,-2.00,+0.00,+3.00,-1.00,-1.00,-1.00,-1.00,+0.00
+4.00,-3.00,+0.00,-1.00,+2.00,+1.00,+0.00,+4.00,+0.00,-1.00,-1.00,-1.00,+0.00,+0.00,+1.00,-2.00
-1.00,+0.00,+2.00,+1.00,+2.00,+0.00,+0.00,-1.00,-4.00,+0.00,-2.00,-1.00,-2.00,+0.00,+1.00,+0.00
-6.00,-5.00,-4.00,-3.00,+0.00,-3.00,-1.00,+4.00,-5.00,-6.00,-1.00,-4.00,-1.00,-2.00,-2.00,-1.00
-4.00,-2.00,-3.00,+1.00,+0.00,+0.00,-2.00,-4.00,-1.00,+3.00,+3.00,-2.00,-1.00,-4.00,-2.00,+1.00
+0.00,+2.00,-2.00,-1.00,-1.00,-2.00,-1.00,-4.00,-1.00,-2.00,+0.00,-3.00,-3.00,-1.00,-3.00,-3.00
+9.00,+5.00,-1.00,+0.00,-2.00,+0.00,+0.00,+1.00,-4.00,-7.00,-5.00,-2.00,+0.00,-2.00,+0.00,-3.00
-5.00,-2.00,+2.00,-1.00,-3.00,-1.00,+0.00,-5.00,+0.00,+2.00,+3.00,+2.00,-1.00,-2.00,-1.00,-6.00
-7.00,+0.00,+0.00,+1.00,-3.00,+0.00,-3.00,+5.00,+1.00,-6.00,-3.00,-4.00,-1.00,-1.00,+1.00,-1.00
-5.00,-3.00,-2.00,-1.00,-1.00,-1.00,-2.00,-2.00,-3.00,+4.00,+3.00,-3.00,-1.00,-1.00,-2.00,-2.00
-3.00,+0.00,-1.00,-1.00,-1.00,-1.00,+3.00,+4.00,+0.00,+2.00,+3.00,-2.00,-1.00,-1.00,+0.00,+3.00
-2.00,-5.00,-6.00,+1.00,-1.00,+0.00,-1.00,-6.00,-1.00,+2.00,+0.00,-12.00,-2.00,+0.00,+0.00,-3.00
-5.00,+1.00,+1.00,-1.00,+0.00,+1.00,+0.00,+4.00,+0.00,+2.00,-1.00,-6.00,-1.00,+1.00,-2.00,-5.00
+18.00,+2.00,-1.00,+0.00,-1.00,+2.00,+0.00,+7.00,+2.00,-5.00,-5.00,-2.00,-1.00,-3.00,+1.00,-1.00
-2.00,+3.00,-2.00,-1.00,-3.00,+0.00,-2.00,-6.00,-3.00,-2.00,-4.00,+2.00,-3.00,-3.00,-1.00,+2.00
-4.00,-2.00,-3.00,-2.00,-2.00,-1.00,+0.00,-1.00,-2.00,+1.00,-2.00,+2.00,-2.00,+2.00,-1.00,+1.00
-1.00,-4.00,+1.00,+0.00,+0.00,-3.00,-1.00,+4.00,+1.00,+0.00,-1.00,+3.00,-2.00,-1.00,+0.00,-2.00
+15.00,+0.00,+1.00,-1.00,-1.00,-1.00,+0.00,+2.00,-2.00,-9.00,-5.00,+2.00,-1.00,-2.00,-2.00,+0.00
-12.00,-6.00,-3.00,-1.00,-1.00,-3.00,-2.00,-4.00,-4.00,+3.00,-1.00,+1.00,+0.00,-3.00,-3.00,-4.00
+8.00,+6.00,+1.00,-3.00,-1.00,+1.00,-1.00,+3.00,-1.00,+0.00,+0.00,+1.00,+0.00,-2.00,+0.00,-5.00
-12.00,+5.00,-2.00,-1.00,+0.00,-3.00,-3.00,-3.00,-7.00,-3.00,+1.00,+1.00,-1.00,-1.00,-2.00,-4.00
+8.00,+15.00,+1.00,-1.00,-7.00,-3.00,+1.00,+6.00,+18.00,-2.00,-3.00,-1.00,-1.00,+0.00,-1.00,-4.00
-6.00,+3.00,+3.00,+1.00,+0.00,+3.00,-1.00,-1.00,+2.00,-2.00,+0.00,-1.00,+1.00,-1.00,-3.00,+3.00
+0.00,-1.00,-3.00,+0.00,+3.00,+1.00,+1.00,+1.00,+17.00,+4.00,+7.00,+8.00,+5.00,-1.00,+3.00,+5.00
-4.00,+4.00,+1.00,+0.00,+2.00,+1.00,-2.00,-2.00,-3.00,+7.00,+2.00,-7.00,-6.00,+1.00,-2.00,-3.00
-11.00,-7.00,-4.00,-1.00,+3.00,-1.00,-1.00,-7.00,-11.00,-3.00,-3.00,-5.00,-15.00,-4.00,+0.00,-1.00
-8.00,-4.00,-4.00,-5.00,-2.00,-3.00,+0.00,-2.00,-1.00,-7.00,-2.00,-3.00,+13.00,-4.00,-1.00,-5.00
+5.00,+4.00,-1.00,+0.00,-3.00,-3.00,+1.00,+0.00,-6.00,-4.00,-4.00,-2.00,-1.00,+0.00,-3.00,-6.00
-3.00,+0.00,-3.00,-2.00,-1.00,+1.00,-1.00,-2.00,-2.00,-4.00,+2.00,+5.00,+4.00,-2.00,+0.00,+1.00
-5.00,-4.00,+0.00,+0.00,-3.00,-5.00,-3.00,-1.00,+0.00,+0.00,+2.00,+0.00,+0.00,+3.00,+0.00,+0.00
+2.00,-4.00,-2.00,+0.00,-5.00,-5.00,+4.00,+4.00,-1.00,+3.00,+2.00,-2.00,-8.00,+2.00,-1.00,-1.00
-3.00,-4.00,-1.00,-3.00,+1.00,-10.00,+1.00,+1.00,-10.00,+1.00,-3.00,+0.00,-1.00,+2.00,-2.00,-1.00
+9.00,-4.00,-1.00,+1.00,+0.00,+12.00,+3.00,+6.00,-2.00,-3.00,+1.00,+2.00,-8.00,-6.00,-1.00,+1.00
-9.00,-2.00,-3.00,-2.00,+1.00,+2.00,-1.00,+0.00,+1.00,+0.00,-1.00,-1.00,+3.00,-6.00,-5.00,+4.00
+7.00,-4.00,-2.00,-4.00,-2.00,+6.00,-2.00,-2.00,+1.00,+2.00,+3.00,+1.00,-3.00,-3.00,+0.00,+1.00
-4.00,+5.00,-2.00,+0.00,-3.00,-7.00,-3.00,-7.00,-6.00,+2.00,-3.00,-1.00,+2.00,-1.00,-2.00,-6.00
+10.00,-5.00,-1.00,-1.00,-2.00,-5.00,+0.00,+7.00,+6.00,+6.00,+1.00,-4.00,-3.00,+4.00,+0.00,+2.00
-11.00,-2.00,-1.00,+1.00,-2.00,-2.00,+1.00,-5.00,+0.00,+7.00,-1.00,-3.00,+2.00,+3.00,+2.00,-1.00
-2.00,-3.00,+1.00,+0.00,+1.00,-4.00,-3.00,-2.00,-2.00,-2.00,+0.00,-1.00,-1.00,-2.00,-2.00,-1.00
-9.00,-7.00,+1.00,+1.00,+0.00,+4.00,-1.00,-3.00,+1.00,+3.00,+1.00,-3.00,-5.00,-1.00,-3.00,+0.00
-26.00,-4.00,+2.00,+0.00,-3.00,-5.00,-2.00,-6.00,-4.00,-5.00,-5.00,-1.00,+0.00,-1.00,-2.00,-4.00
+13.00,-3.00,+2.00,+0.00,+0.00,+4.00,-2.00,+1.00,-7.00,-3.00,-4.00,+2.00,+2.00,-1.00,+1.00,+1.00
-2.00,-1.00,-3.00,-1.00,-2.00,+10.00,-10.00,-8.00,+2.00,+3.00,-1.00,-3.00,-2.00,+6.00,-2.00,-2.00
+4.00,+1.00,-3.00,+2.00,-1.00,-28.00,+1.00,+10.00,-3.00,-6.00,-2.00,-5.00,+0.00,+6.00,+0.00,+0.00
-3.00,-5.00,-1.00,-1.00,-2.00,-24.00,-26.00,-26.00,+0.00,-4.00,-1.00,+1.00,-7.00,-5.00,+5.00,+3.00
-12.00,+2.00,-1.00,-2.00,-13.00,-117.00,+31.00,+57.00,-4.00,-6.00,+6.00,+0.00,+1.00,-15.00,-13.00,-4.00
+15.00,-3.00,-6.00,+1.00,+12.00,+91.00,-2.00,-29.00,-2.00,-11.00,-9.00,-4.00,+5.00,+13.00,+30.00,-9.00
-34.00,-7.00,-11.00,-2.00,+2.00,+8.00,+8.00,+33.00,+5.00,-11.00,+4.00,-1.00,-57.00,-27.00,-46.00,+4.00
+19.00,+13.00,+15.00,-2.00,+5.00,+7.00,+28.00,+22.00,+0.00,-3.00,-8.00,+2.00,-11.00,-16.00,+11.00,+8.00
-24.00,+2.00,-3.00,-2.00,+3.00,+0.00,-13.00,-8.00,-15.00,+9.00,+16.00,-1.00,-9.00,-20.00,-17.00,-32.00
-2.00,+4.00,+2.00,+0.00,-5.00,-31.00,+4.00,+2.00,+2.00,-11.00,-31.00,-3.00,-1.00,-10.00,-14.00,+17.00
+2.00,+0.00,+1.00,+1.00,-7.00,+7.00,-13.00,-16.00,+17.00,-1.00,-10.00,+2.00,+41.00,+10.00,+16.00,+3.00
+5.00,+1.00,-7.00,-2.00,-6.00,-3.00,-8.00,-6.00,+1.00,+0.00,+0.00,+0.00,+12.00,+25.00,-3.00,-1.00
+3.00,-3.00,-2.00,+0.00,+1.00,+7.00,-10.00,-22.00,+8.00,+10.00,+6.00,+0.00,-1.00,+0.00,+7.00,+9.00
+3.00,-2.00,-1.00,+0.00,-3.00,-10.00,-3.00,+4.00,-7.00,+4.00,+8.00,-2.00,-6.00,+10.00,+3.00,-9.00
-15.00,-3.00,+1.00,-1.00,+0.00,+16.00,-8.00,-23.00,-5.00,+1.00,+6.00,-14.00,+22.00,+11.00,+2.00,-1.00
-10.00,-7.00,-1.00,-2.00,-1.00,-33.00,+2.00,+7.00,-4.00,-4.00,-3.00,-13.00,-44.00,-1.00,-2.00,-2.00
+17.00,-2.00,+1.00,-1.00,+0.00,+2.00,-4.00,-9.00,-3.00,-7.00,-9.00,-8.00,-12.00,-11.00,+10.00,+0.00
+3.00,-1.00,-3.00,+0.00,+1.00,-8.00,+1.00,+7.00,-4.00,+2.00,+9.00,+3.00,+3.00,+0.00,-9.00,+1.00
+1.00,+6.00,+3.00,+0.00,-1.00,+49.00,+5.00,-2.00,-3.00,-6.00,-5.00,+8.00,-7.00,-5.00,+9.00,+2.00
+4.00,+2.00,-2.00,+1.00,-1.00,-15.00,-1.00,+6.00,-1.00,-1.00,+4.00,+7.00,+15.00,+3.00,-6.00,-3.00
-24.00,-12.00,-4.00,+0.00,-2.00,-19.00,-25.00,-28.00,-3.00,-10.00,-9.00,+6.00,+8.00,-1.00,+0.00,+1.00
-6.00,-4.00,+1.00,-2.00,-1.00,+6.00,+16.00,+11.00,+4.00,+3.00,+1.00,+6.00,+22.00,+10.00,-19.00,-6.00
+11.00,+0.00,+5.00,+0.00,-2.00,-62.00,-20.00,-22.00,-4.00,+3.00,-1.00,+10.00,+8.00,-15.00,+50.00,+19.00
+1.00,+2.00,-4.00,-1.00,-2.00,-22.00,+34.00,+11.00,-9.00,-9.00,-5.00,-1.00,+13.00,+13.00,-7.00,-19.00
+1.00,-1.00,-3.00,+1.00,+12.00,+103.00,+1.00,+34.00,+0.00,-10.00,-7.00,-2.00,+11.00,-4.00,+1.00,+18.00
+3.00,-1.00,+2.00,+0.00,+2.00,-12.00,+1.00,+15.00,+1.00,+7.00,+6.00,+1.00,-57.00,-15.00,-40.00,-11.00
+12.00,-4.00,+0.00,+0.00,-1.00,+14.00,+0.00,+5.00,-8.00,+3.00,+1.00,-1.00,-7.00,-4.00,+35.00,-14.00
-4.00,-5.00,-6.00,-3.00,-9.00,-15.00,-12.00,-8.00,+11.00,-4.00,-8.00,-1.00,+12.00,+11.00,-33.00,+7.00
+18.00,+7.00,+3.00,+0.00,+1.00,-48.00,-7.00,-23.00,-2.00,-6.00,-5.00,-2.00,+53.00,+26.00,+8.00,+3.00
-1.00,+0.00,+1.00,+0.00,-1.00,+8.00,+3.00,-6.00,-1.00,+0.00,+2.00,+1.00,-82.00,-27.00,+4.00,+1.00
+1.00,-1.00,-3.00,-4.00,-2.00,-15.00,-5.00,-9.00,-6.00,-5.00,-3.00,-5.00,-13.00,-9.00,-9.00,-5.00
-32.00,-10.00,-5.00,-2.00,+0.00,+2.00,-11.00,-5.00,-1.00,-1.00,-1.00,+1.00,-18.00,-28.00,+5.00,+5.00
+11.00,+1.00,+3.00,-2.00,-5.00,+0.00,+6.00,-1.00,+0.00,+9.00,+1.00,-1.00,+0.00,+19.00,+0.00,+5.00
-12.00,+8.00,+1.00,-3.00,+0.00,-1.00,-6.00,-1.00,-4.00,-4.00,+4.00,-3.00,+27.00,+14.00,+2.00,-9.00
+9.00,-3.00,+1.00,+1.00,+0.00,-23.00,+2.00,-3.00,-6.00,-1.00,-3.00,-4.00,-17.00,-5.00,-20.00,-6.00
+5.00,+1.00,-4.00,-1.00,+2.00,+31.00,+2.00,+5.00,-1.00,-1.00,+1.00,-3.00,+14.00,-5.00,+16.00,-2.00
+0.00,+0.00,+1.00,+0.00,+0.00,-3.00,+2.00,-8.00,-1.00,+3.00,+2.00,+1.00,-14.00,-3.00,-12.00,-7.00
+1.00,+2.00,-2.00,-3.00,-4.00,-29.00,-7.00,+7.00,-1.00,-2.00,+0.00,-2.00,+58.00,-2.00,+14.00,+9.00
-5.00,-2.00,-2.00,-1.00,-1.00,-18.00,+1.00,+2.00,+3.00,-2.00,-5.00,+0.00,-2.00,+3.00,-10.00,-2.00
+9.00,+1.00,+4.00,+2.00,+4.00,+8.00,-6.00,-10.00,-2.00,+1.00,-1.00,+0.00,+11.00,+17.00,-6.00,-2.00
-1.00,-3.00,-2.00,+1.00,+1.00,+26.00,+10.00,+18.00,-3.00,-3.00,-3.00,-3.00,-14.00,-20.00,+13.00,-1.00
+1.00,-2.00,-2.00,-1.00,-2.00,-39.00,+3.00,-3.00,+4.00,+0.00,-6.00,-3.00,+1.00,+4.00,+4.00,+3.00
-6.00,-7.00,-4.00,-3.00,+1.00,+87.00,+13.00,+8.00,-3.00,-1.00,+1.00,-1.00,+17.00,-17.00,-16.00,-4.00
+5.00,-1.00,-2.00,+2.00,-1.00,-3.00,-6.00,-5.00,-2.00,+6.00,+1.00,-2.00,-5.00,+1.00,-2.00,-4.00
-15.00,-5.00,-2.00,-3.00,-8.00,+20.00,-9.00,-26.00,+0.00,-12.00,-5.00,+0.00,+15.00,+2.00,-38.00,-1.00
+6.00,+2.00,+1.00,+4.00,+11.00,+11.00,-10.00,-1.00,-4.00,-2.00,+1.00,+0.00,+16.00,+26.00,+52.00,+3.00
+4.00,-4.00,+0.00,-1.00,-2.00,-55.00,+9.00,+8.00,-2.00,-2.00,-4.00,-2.00,-51.00,-19.00,-24.00,-1.00
-6.00,+3.00,-1.00,-2.00,+0.00,+15.00,+0.00,-10.00,-4.00,-18.00,-1.00,-1.00,+18.00,-15.00,+38.00,+1.00
+8.00,+0.00,-2.00,+0.00,+6.00,+62.00,+0.00,+19.00,+0.00,+6.00,+0.00,-1.00,-11.00,+18.00,-5.00,-4.00
-10.00,-4.00,+3.00,+0.00,-1.00,+22.00,+16.00,+17.00,-2.00,+2.00,-3.00,-3.00,-14.00,-12.00,-31.00,-8.00
+1.00,-2.00,+0.00,+0.00,+1.00,+6.00,-14.00,-25.00,-1.00,+4.00,+3.00,+0.00,+20.00,+7.00,-11.00,+13.00
+13.00,+1.00,+2.00,+2.00,+1.00,+4.00,-4.00,+10.00,+2.00,-6.00,-7.00,-3.00,+25.00,+3.00,-12.00,-4.00
-6.00,-4.00,-3.00,-1.00,-4.00,-38.00,+8.00,-5.00,+0.00,-6.00,+0.00,-1.00,-66.00,-30.00,+21.00,+7.00
-8.00,-4.00,-3.00,-1.00,-3.00,-6.00,-7.00,-14.00,+0.00,-8.00,-15.00,-1.00,+26.00,+18.00,-2.00,+5.00
+1.00,+4.00,+0.00,+1.00,-2.00,+0.00,+0.00,-6.00,-3.00,-1.00,-2.00,-1.00,-3.00,+4.00,+11.00,-1.00
+1.00,-1.00,-1.00,-2.00,-4.00,-3.00,-2.00,+5.00,-4.00,+0.00,+0.00,-2.00,-1.00,-5.00,-19.00,+1.00
-1.00,-2.00,-3.00,+0.00,-2.00,-17.00,-3.00,-8.00,+4.00,+6.00,+3.00,+2.00,+15.00,+16.00,+7.00,-3.00
-1.00,-4.00,-4.00,-1.00,-4.00,-8.00,-5.00,-7.00,-4.00,+4.00,+4.00,-1.00,-13.00,-9.00,-3.00,-4.00
+2.00,-1.00,-2.00,-3.00,+1.00,+5.00,+3.00,+10.00,-1.00,-3.00,+0.00,+2.00,+12.00,+7.00,-1.00,-8.00
+3.00,+4.00,+2.00,-2.00,+0.00,+0.00,-8.00,-2.00,-1.00,+4.00,-2.00,+0.00,-18.00,-7.00,-3.00,-4.00
-1.00,+4.00,-3.00,-3.00,+0.00,+3.00,+4.00,-1.00,-1.00,+2.00,-1.00,-8.00,+5.00,+10.00,+2.00,-8.00
+7.00,+0.00,+0.00,+0.00,-3.00,-4.00,+0.00,-3.00,-2.00,+2.00,+3.00,-4.00,-5.00,-18.00,+8.00,-3.00
-1.00,+5.00,+0.00,+0.00,+0.00,-6.00,+1.00,+20.00,+0.00,+3.00,+1.00,-5.00,+5.00,+3.00,-24.00,-1.00
+0.00,-4.00,-4.00,-1.00,+0.00,+0.00,-9.00,+14.00,-4.00,+2.00,+2.00,+0.00,+4.00,+3.00,+0.00,-3.00
-9.00,-4.00,-1.00,-2.00,-3.00,-60.00,-7.00,-15.00,-5.00,-2.00,-3.00,+1.00,+0.00,-2.00,+2.00,-5.00
+1.00,+0.00,-2.00,-1.00,+4.00,+74.00,+22.00,+3.00,-1.00,-1.00,+2.00,+2.00,+4.00,+7.00,-57.00,-5.00
-9.00,-6.00,-4.00,-3.00,-6.00,-25.00,-5.00,+1.00,-1.00,-2.00,-9.00,-2.00,+19.00,+4.00,+71.00,+0.00
-2.00,-2.00,+0.00,+1.00,+2.00,+22.00,+7.00,-19.00,+1.00,+6.00,-1.00,+1.00,+17.00,+9.00,-29.00,-5.00
-6.00,-3.00,-1.00,-1.00,-1.00,+3.00,-10.00,+1.00,+1.00,-4.00,-4.00,+1.00,-58.00,-44.00,-1.00,+5.00
+31.00,+1.00,-1.00,-1.00,-3.00,-44.00,-12.00,+2.00,-3.00,-4.00,+0.00,-2.00,-8.00,-6.00,-5.00,-2.00
+3.00,+2.00,+2.00,+0.00,+1.00,+17.00,+0.00,-1.00,-3.00,-2.00,-1.00,+1.00,+4.00,+17.00,-11.00,-4.00
+1.00,-3.00,+1.00,-1.00,-2.00,-4.00,+1.00,-20.00,-1.00,-2.00,+2.00,+3.00,-10.00,+17.00,+12.00,+2.00
-4.00,-8.00,-2.00,+0.00,-2.00,-5.00,+7.00,-1.00,-5.00,-5.00,-1.00,-1.00,+20.00,+20.00,-3.00,-7.00
+0.00,+5.00,-2.00,-2.00,-2.00,-17.00,-1.00,-1.00,+4.00,+3.00,-1.00,+0.00,+2.00,-19.00,+13.00,+9.00
+0.00,+8.00,+5.00,+0.00,+1.00,+20.00,-1.00,+1.00,+1.00,-4.00,-2.00,-2.00,-17.00,-5.00,-11.00,-7.00
-1.00,-4.00,-2.00,+0.00,+1.00,-11.00,+1.00,-6.00,+1.00,-1.00,-1.00,-1.00,-5.00,+0.00,+9.00,+3.00
+0.00,-3.00,-4.00,-3.00,+1.00,+4.00,+0.00,-2.00,-1.00,-4.00,-7.00,-1.00,+15.00,+25.00,-9.00,+0.00
-11.00,-1.00,-2.00,+0.00,+1.00,-5.00,-10.00,+19.00,-3.00,+0.00,+1.00,+1.00,-7.00,-16.00,+10.00,-2.00
+6.00,-2.00,-2.00,-2.00,-5.00,-15.00,+8.00,-7.00,-5.00,-1.00,+4.00,+3.00,+28.00,+7.00,-16.00,-6.00
-4.00,-5.00,-1.00,+0.00,+0.00,-7.00,+7.00,+7.00,+2.00,+3.00,+2.00,-3.00,-6.00,-16.00,+1.00,+1.00
+1.00,+1.00,+0.00,-1.00,+1.00,+19.00,+1.00,-11.00,-1.00,+6.00,+5.00,+1.00,+16.00,+19.00,+2.00,+0.00
-13.00,-4.00,-4.00,-3.00,-4.00,+8.00,-3.00,-9.00,-2.00,-3.00,-8.00,-2.00,-13.00,-13.00,+0.00,-1.00
-6.00,-1.00,-2.00,+0.00,+2.00,-8.00,-4.00,-1.00,+1.00,+3.00,-1.00,-2.00,+4.00,-3.00,-2.00,+2.00
+4.00,-3.00,-3.00,-2.00,+0.00,+3.00,-3.00,+1.00,+0.00,+2.00,+3.00,+0.00,-2.00,-4.00,+0.00,+0.00
-1.00,+0.00,-1.00,-3.00,-2.00,+1.00,-2.00,+3.00,-2.00,-6.00,-2.00,-2.00,-8.00,-7.00,+5.00,+1.00
-9.00,-1.00,-1.00,-2.00,-3.00,-22.00,-4.00,-8.00,+0.00,+1.00,+2.00,-1.00,+24.00,+7.00,+7.00,-2.00
+4.00,-1.00,-1.00,+0.00,+0.00,+6.00,-1.00,-1.00,-3.00,-2.00,-1.00,+1.00,-9.00,+3.00,-17.00,-1.00
+5.00,-3.00,+1.00,-1.00,-2.00,-33.00,-4.00,+2.00,-2.00,-5.00,-6.00,-2.00,-7.00,-11.00,+0.00,-3.00
-6.00,-1.00,-4.00,+0.00,-1.00,-36.00,-11.00,-11.00,+1.00,-3.00,+1.00,-2.00,-6.00,-1.00,-1.00,-1.00
-14.00,-1.00,-1.00,-2.00,-3.00,-10.00,+3.00,+7.00,-1.00,+4.00,+0.00,-1.00,-8.00,+7.00,+1.00,+1.00
+18.00,+0.00,-1.00,+3.00,+6.00,+45.00,+4.00,+1.00,-2.00,+2.00,+0.00,-1.00,+52.00,-11.00,+4.00,+4.00
-3.00,+1.00,-4.00,-2.00,-3.00,+11.00,-3.00,+8.00,-1.00,+1.00,+2.00,-2.00,-66.00,-19.00,-3.00,-3.00
-4.00,-2.00,-1.00,+0.00,+0.00,-10.00,-1.00,+5.00,+0.00,+2.00,+0.00,+0.00,+11.00,-13.00,-1.00,-1.00
-11.00,-2.00,-1.00,-2.00,-2.00,-22.00,-5.00,-17.00,-2.00,-4.00,-1.00,+2.00,-34.00,+40.00,-4.00,-8.00
+5.00,+2.00,+2.00,-1.00,-2.00,-11.00,+0.00,+7.00,+3.00,+5.00,-4.00,+0.00,-13.00,-38.00,+3.00,+3.00
-1.00,+2.00,+2.00,-2.00,+0.00,-1.00,+1.00,+2.00,+2.00,+4.00,-1.00,-2.00,+23.00,+14.00,+0.00,-2.00
+2.00,+0.00,+0.00,+0.00,-2.00,+15.00,-5.00,+0.00,-1.00,+1.00,-1.00,-1.00,-9.00,-8.00,-2.00,+0.00
+4.00,+0.00,+0.00,+0.00,+1.00,-13.00,-1.00,-2.00,-1.00,-5.00,+1.00,-4.00,+4.00,+17.00,+3.00,+3.00
-10.00,-4.00,-3.00,-3.00,-2.00,-7.00,-2.00,-4.00,+0.00,-5.00,-4.00,+0.00,+37.00,+2.00,-1.00,-1.00
+1.00,-9.00,-8.00,+1.00,+1.00,+10.00,-2.00,+4.00,-3.00,-4.00,+0.00,-2.00,-13.00,-13.00,-5.00,-1.00
+5.00,+10.00,+3.00,-2.00,-1.00,+8.00,+2.00,+1.00,-2.00,+0.00,-3.00,-1.00,+5.00,+8.00,+0.00,-1.00
-3.00,-3.00,+1.00,+1.00,-1.00,+6.00,+0.00,-3.00,-4.00,-1.00,+1.00,+0.00,+13.00,-9.00,+2.00,-3.00
+1.00,-1.00,+0.00,+1.00,+0.00,-8.00,-1.00,+0.00,-3.00,-5.00,-4.00,-3.00,-12.00,+10.00,-3.00,-2.00
-13.00,+2.00,+0.00,-3.00,-6.00,-59.00,-13.00,-6.00,-4.00,+3.00,-3.00,-1.00,+13.00,-5.00,+2.00,-3.00
+6.00,-2.00,+1.00,+2.00,+6.00,+95.00,+11.00,+4.00,-3.00,+0.00,+0.00,-2.00,+12.00,+9.00,+0.00,-1.00
+2.00,-2.00,+1.00,+0.00,+1.00,-9.00,+12.00,+10.00,+1.00,-1.00,-4.00,+0.00,+12.00,+25.00,+11.00,+2.00
-3.00,-4.00,-4.00,-3.00,-1.00,-7.00,-3.00,-3.00,+1.00,-3.00,+1.00,-1.00,-32.00,-51.00,-1.00,-2.00
-1.00,-2.00,-5.00,+0.00,-2.00,+13.00,+6.00,-1.00,-1.00,-2.00,+2.00,+0.00,-6.00,+11.00,-12.00,-2.00
+3.00,-7.00,+0.00,+0.00,-2.00,-19.00,-9.00,-2.00,-4.00,-3.00,+3.00,-1.00,+1.00,-7.00,-1.00,-1.00
-2.00,+6.00,+0.00,+0.00,-3.00,+8.00,-10.00,-4.00,+1.00,-10.00,-5.00,-2.00,+1.00,-7.00,-2.00,+2.00
-3.00,-3.00,-2.00,-2.00,-2.00,+0.00,-1.00,+3.00,-1.00,+1.00,-1.00,-2.00,-13.00,+29.00,+4.00,+2.00
+4.00,+1.00,+1.00,+0.00,+2.00,+7.00,+6.00,+5.00,-1.00,+1.00,+0.00,-1.00,+6.00,+3.00,+4.00,-1.00
+1.00,+1.00,+0.00,-1.00,-3.00,-14.00,+6.00,+4.00,+0.00,+2.00,-3.00,-2.00,+12.00,+0.00,-6.00,-4.00
+4.00,-4.00,-2.00,+1.00,+0.00,-8.00,-5.00,-6.00,-3.00,+0.00,+0.00,-2.00,-2.00,-22.00,-2.00,-2.00
-8.00,+1.00,-3.00,-1.00,-6.00,-19.00,+0.00,-11.00,-4.00,-5.00,+1.00,+0.00,-7.00,+14.00,-3.00,-1.00
+10.00,+1.00,+3.00,-1.00,+1.00,+23.00,+2.00,+12.00,+1.00,+1.00,-9.00,-1.00,+3.00,-6.00,-1.00,+2.00
-8.00,-5.00,-3.00,-2.00,+0.00,+2.00,-1.00,+11.00,+1.00,-2.00,-3.00,+1.00,-16.00,+0.00,-3.00,-1.00
-4.00,+0.00,+0.00,+0.00,+2.00,+1.00,-2.00,+0.00,-2.00,-1.00,+0.00,+0.00,+4.00,-13.00,-2.00,-2.00
-10.00,+2.00,+1.00,-2.00,+2.00,-10.00,-8.00,-6.00,-5.00,-8.00,-1.00,-2.00,-17.00,-1.00,-6.00,-7.00
+15.00,+12.00,+3.00,+0.00,+1.00,+7.00,+1.00,+0.00,+0.00,-3.00,-1.00,-3.00,+6.00,+3.00,-1.00,-3.00
-8.00,-4.00,-3.00,-2.00,-2.00,-10.00,-1.00,-10.00,-2.00,-2.00,+1.00,-3.00,-15.00,-2.00,+2.00,+0.00
+5.00,-1.00,+0.00,-1.00,-5.00,-46.00,-4.00,-5.00,+4.00,+6.00,+3.00,-2.00,+2.00,-8.00,+4.00,-1.00
-1.00,-3.00,-2.00,+2.00,+2.00,+48.00,+3.00,+15.00,-3.00,-11.00,-12.00,-4.00,+95.00,+15.00,-16.00,+4.00
-8.00,-5.00,-2.00,+2.00,+0.00,-29.00,-4.00,-9.00,-3.00,+0.00,-1.00,-1.00,-12.00,-23.00,-1.00,-4.00
-6.00,-1.00,-1.00,-1.00,+1.00,+44.00,+3.00,-8.00,-3.00,-4.00,-4.00,-4.00,+14.00,+24.00,+0.00,-1.00
-3.00,-3.00,+1.00,-1.00,+1.00,-8.00,+4.00,+7.00,-1.00,-3.00,+0.00,+0.00,-10.00,-20.00,-2.00,-6.00
+7.00,+3.00,+4.00,+0.00,-3.00,-17.00,-1.00,-4.00,-3.00,+4.00,+3.00,+2.00,-3.00,-4.00,+6.00,+3.00
-5.00,-4.00,-3.00,-1.00,+1.00,+7.00,-2.00,-3.00,-2.00,-6.00,-1.00,+0.00,+44.00,-1.00,-5.00,+0.00
-8.00,-2.00,-2.00,-2.00,-3.00,-16.00,-4.00,-3.00,-1.00,-2.00,-2.00,+0.00,-50.00,-17.00,-6.00,+1.00
-3.00,+2.00,+2.00,-2.00,-4.00,-1.00,-9.00,-9.00,-1.00,-3.00,+1.00,-3.00,+12.00,+12.00,+0.00,-2.00
-3.00,-4.00,-2.00,-2.00,-1.00,+1.00,-8.00,-5.00,+2.00,-4.00,+1.00,+0.00,-33.00,+14.00,+4.00,-2.00
+2.00,+0.00,-2.00,-1.00,-2.00,-5.00,+9.00,-6.00,+2.00,+0.00,-1.00,-1.00,+13.00,+4.00,+5.00,+5.00
+2.00,+4.00,+0.00,-1.00,-6.00,-72.00,-13.00,+3.00,-2.00,-3.00,+1.00,+0.00,+2.00,-3.00,-5.00,+2.00
+3.00,-1.00,-2.00,-1.00,+6.00,+64.00,+7.00,+1.00,-5.00,+2.00,-3.00,+0.00,-1.00,+8.00,+16.00,-1.00
-6.00,-1.00,+0.00,+1.00,+2.00,+27.00,-3.00,+1.00,-3.00,-1.00,+0.00,+1.00,-24.00,-6.00,-3.00,-4.00
+2.00,-1.00,-3.00,-2.00,+2.00,+13.00,+15.00,+2.00,+0.00,+8.00,+2.00,+1.00,-18.00,+22.00,+1.00,-2.00
-6.00,+3.00,-1.00,+0.00,-3.00,-23.00,+0.00,-10.00,+2.00,+3.00,-1.00,-1.00,+18.00,-37.00,+3.00,-1.00
+1.00,-8.00,-4.00,-2.00,-4.00,-38.00,-1.00,+2.00,-3.00,-5.00,-3.00,-2.00,-12.00,-5.00,-14.00,-1.00
+3.00,+2.00,+0.00,+0.00,-3.00,-19.00,-5.00,-2.00,-1.00,-3.00,-3.00,-3.00,-5.00,+6.00,-8.00,-4.00
-2.00,+0.00,+2.00,+0.00,-2.00,-8.00,-9.00,-8.00,-5.00,+1.00,+0.00,-1.00,-4.00,+18.00,+30.00,-1.00
-3.00,-3.00,-3.00,-1.00,-2.00,-9.00,+2.00,-7.00,-2.00,-3.00,-2.00,+2.00,+5.00,-3.00,-10.00,-3.00
-5.00,-4.00,-1.00,+0.00,+2.00,+72.00,+8.00,+17.00,-1.00,+1.00,+2.00,+2.00,+26.00,-11.00,-3.00,-1.00
+10.00,+8.00,+5.00,-1.00,-3.00,-27.00,+0.00,+7.00,+2.00,-8.00,+8.00,+1.00,-34.00,+6.00,+16.00,-2.00
-6.00,+1.00,+2.00,-1.00,-1.00,+7.00,-7.00,+5.00,+0.00,-4.00,-3.00,-2.00,-32.00,-18.00,-31.00,-10.00
+0.00,-1.00,+1.00,+0.00,+6.00,-18.00,-1.00,-1.00,-3.00,-5.00,-2.00,+0.00,+14.00,+57.00,+6.00,+0.00
-4.00,+0.00,-2.00,-1.00,-3.00,-29.00,-7.00,-10.00,+2.00,-2.00,-5.00,-1.00,-18.00,-39.00,-3.00,+8.00
+0.00,-4.00,-7.00,-2.00,+0.00,+2.00,+5.00,-4.00,+0.00,+2.00,-5.00,-1.00,+11.00,-2.00,+3.00,-1.00
+2.00,+3.00,+5.00,-2.00,-3.00,+10.00,-4.00,-4.00,-4.00,-4.00,+2.00,-2.00,+5.00,-1.00,-4.00,-3.00
-1.00,-2.00,-1.00,+0.00,-3.00,+28.00,-7.00,-4.00,-2.00,-2.00,+5.00,-2.00,-9.00,-7.00,+2.00,-3.00
+6.00,+1.00,+1.00,+0.00,-1.00,-7.00,+2.00,+1.00,-4.00,-8.00,-4.00,+1.00,+36.00,+17.00,-8.00,-2.00
-5.00,-6.00,+0.00,+1.00,+0.00,-1.00,+2.00,-3.00,-1.00,+8.00,+0.00,-1.00,-62.00,+3.00,-2.00,-4.00
+14.00,-2.00,-1.00,-1.00,-4.00,-6.00,-8.00,-16.00,-2.00,-3.00,-2.00,+0.00,+0.00,-11.00,-1.00,+0.00
+8.00,+0.00,+0.00,-1.00,+1.00,-8.00,+6.00,+11.00,+0.00,+0.00,-1.00,-2.00,+6.00,-5.00,-7.00,-7.00
-2.00,-3.00,-3.00,-2.00,-1.00,+7.00,-4.00,-6.00,-5.00,+3.00,-1.00,-2.00,+4.00,+15.00,+5.00,+0.00
-8.00,-2.00,-4.00,+0.00,-1.00,-9.00,-1.00,-2.00,+1.00,+7.00,+1.00,+2.00,-8.00,-43.00,-7.00,-2.00
-7.00,-2.00,-6.00,-1.00,-2.00,-27.00,-4.00,-1.00,-4.00,-2.00,-6.00,+2.00,+0.00,+0.00,+0.00,+0.00
+2.00,+1.00,+1.00,+0.00,-2.00,+33.00,+3.00,+8.00,+1.00,+0.00,-3.00,-2.00,+4.00,-3.00,-2.00,+0.00
+4.00,-3.00,-4.00,-2.00,+2.00,+19.00,+7.00,-5.00,+0.00,-2.00,+2.00,-2.00,-9.00,+7.00,+19.00,-6.00
+5.00,+2.00,+0.00,-3.00,+1.00,+2.00,+0.00,-5.00,+1.00,-1.00,+1.00,-3.00,+2.00,+7.00,-5.00,+2.00
-27.00,-8.00,-4.00,-2.00,-1.00,-5.00,-2.00,-3.00,+0.00,-6.00,-1.00,+0.00,+0.00,+2.00,-2.00,+2.00
+18.00,+3.00,+0.00,-1.00,+1.00,-9.00,+1.00,+7.00,+1.00,+3.00,-4.00,+1.00,+13.00,-9.00,+5.00,-3.00
-11.00,+1.00,-3.00,-4.00,-4.00,-14.00,-6.00,-6.00,+0.00,+1.00,+0.00,+2.00,-8.00,-3.00,-12.00,+2.00
-3.00,+3.00,-1.00,-1.00,-3.00,+2.00,+1.00,-4.00,-3.00,+5.00,+3.00,-1.00,+6.00,+6.00,-4.00,+0.00
-7.00,-3.00,-2.00,-2.00,+1.00,+10.00,+2.00,+6.00,-6.00,-3.00,+0.00,-2.00,-1.00,+1.00,+11.00,+1.00
-7.00,+3.00,+4.00,+0.00,+0.00,-5.00,-2.00,-6.00,+3.00,+4.00,-2.00,-2.00,+5.00,-2.00,-8.00,+0.00
+6.00,+0.00,+3.00,+1.00,+1.00,+5.00,+0.00,-4.00,-5.00,-3.00,-4.00,-1.00,-5.00,+11.00,-2.00,-7.00
+4.00,-4.00,-4.00,-3.00,+0.00,-15.00,-2.00,-1.00,-2.00,-1.00,+0.00,+0.00,-6.00,+7.00,-2.00,+0.00
-4.00,+6.00,+1.00,+1.00,-1.00,+6.00,-5.00,-3.00,-1.00,-1.00,+1.00,-2.00,+3.00,+6.00,-7.00,-4.00
+0.00,-3.00,-6.00,-1.00,-4.00,+7.00,+7.00,+10.00,-7.00,-3.00,-3.00,+1.00,-5.00,-3.00,+8.00,+3.00
+7.00,+3.00,+2.00,+3.00,-1.00,-30.00,-9.00,-5.00,+1.00,+2.00,+1.00,-1.00,-2.00,-10.00,-5.00,+1.00
-2.00,-4.00,-1.00,+0.00,+3.00,-2.00,+4.00,+3.00,+2.00,-2.00,-1.00,-4.00,+4.00,+29.00,-8.00,-6.00
+1.00,-4.00,-1.00,-1.00,+2.00,+25.00,+2.00,+5.00,-1.00,-1.00,+0.00,+0.00,+10.00,-41.00,-2.00,-2.00
-4.00,-2.00,-2.00,-3.00,+1.00,+9.00,+2.00,-5.00,-1.00,-5.00,+0.00,-2.00,+4.00,-8.00,-4.00,-2.00
-7.00,+1.00,-3.00,-1.00,-1.00,-3.00,-6.00,+0.00,+0.00,-2.00,+2.00,-1.00,-62.00,-12.00,+2.00,-3.00
-6.00,-5.00,-4.00,-2.00,-2.00,-11.00,-2.00,+1.00,-4.00,-3.00,-7.00,-2.00,+7.00,+1.00,-1.00,+1.00
+9.00,+0.00,+1.00,+2.00,+0.00,-32.00,-7.00,+2.00,-2.00,+4.00,+0.00,+0.00,-7.00,+4.00,-1.00,+0.00
-5.00,+0.00,+0.00,+0.00,+4.00,+34.00,+2.00,-3.00,-3.00,-6.00,-5.00,-4.00,-7.00,+0.00,+2.00,+0.00
-2.00,-5.00,+1.00,+0.00,-2.00,-29.00,-3.00,+1.00,-5.00,+4.00,+0.00,+0.00,+41.00,+14.00,-9.00,-5.00
+5.00,+2.00,+3.00,+1.00,+2.00,+32.00,+2.00,+1.00,+0.00,-5.00,-4.00,-2.00,-1.00,-32.00,+1.00,+1.00
+1.00,-2.00,-5.00,-4.00,-2.00,-15.00,+0.00,-1.00,+1.00,+0.00,-3.00,-3.00,-4.00,+37.00,+1.00,-1.00
-2.00,-1.00,-1.00,+1.00,-2.00,-20.00,-4.00,-4.00,-1.00,-2.00,+4.00,+1.00,+13.00,-34.00,+0.00,+0.00
+0.00,+2.00,+0.00,+1.00,+2.00,+6.00,-3.00,-3.00,-1.00,-6.00,-4.00,-5.00,-6.00,+11.00,-4.00,+0.00
-1.00,+1.00,+1.00,-2.00,+0.00,-10.00,-3.00,-7.00,-2.00,-2.00,-2.00,-2.00,+5.00,+1.00,+0.00,-3.00
-15.00,-2.00,-2.00,-2.00,-2.00,+17.00,-6.00,-8.00,+1.00,+6.00,+2.00,+0.00,+6.00,-3.00,+2.00,+0.00
-1.00,-3.00,-1.00,-2.00,-3.00,-28.00,-2.00,-4.00,+0.00,+3.00,+0.00,-3.00,+7.00,+16.00,-2.00,+3.00
-7.00,-2.00,-1.00,-1.00,+1.00,-2.00,+5.00,+13.00,+1.00,+1.00,-2.00,-2.00,-1.00,-16.00,+1.00,+0.00
-9.00,-4.00,-3.00,-1.00,-3.00,-5.00,+0.00,-6.00,-2.00,-1.00,-1.00,-1.00,-10.00,+1.00,+4.00,-2.00
+0.00,-1.00,+2.00,+0.00,+1.00,-3.00,+2.00,-6.00,+1.00,+1.00,+2.00,+0.00,-14.00,-30.00,-5.00,-2.00
-9.00,+5.00,+3.00,-1.00,+0.00,+3.00,-7.00,+11.00,-2.00,+2.00,-4.00,-3.00,-17.00,-2.00,-6.00,+1.00
+1.00,+0.00,-2.00,-1.00,-1.00,-1.00,-3.00,-4.00,+3.00,-7.00,-1.00,-1.00,+2.00,-4.00,+15.00,+4.00
+2.00,+2.00,-2.00,-2.00,-3.00,-7.00,-4.00,-2.00,-1.00,+1.00,-2.00,+0.00,+3.00,+7.00,-6.00,+1.00
-15.00,-4.00,-1.00,-1.00,+2.00,+8.00,-1.00,-7.00,-1.00,+0.00,+1.00,+1.00,+7.00,+8.00,-2.00,+1.00
+17.00,+1.00,-3.00,-1.00,+0.00,+0.00,+9.00,+7.00,-1.00,-1.00,-4.00,-1.00,-10.00,+0.00,+0.00,-3.00
-3.00,+0.00,+2.00,-2.00,-1.00,-15.00,-4.00,-2.00,+2.00,+1.00,-2.00,-1.00,+8.00,-8.00,+3.00,-1.00
-13.00,-8.00,-4.00,-3.00,-2.00,-16.00,-5.00,+0.00,+0.00,+1.00,+3.00,+1.00,+12.00,+1.00,-5.00,-2.00
+15.00,+3.00,+0.00,+1.00,+2.00,+12.00,+2.00,+2.00,+0.00,-2.00,-2.00,+0.00,+1.00,+7.00,-1.00,-1.00
-1.00,+1.00,+0.00,+1.00,+0.00,-3.00,-7.00,-10.00,-3.00,-2.00,+0.00,+1.00,-4.00,-7.00,+0.00,-2.00
+5.00,-3.00,-1.00,+0.00,-3.00,+2.00,+0.00,+12.00,-4.00,+1.00,+2.00,+0.00,-7.00,+6.00,-5.00,-3.00
-6.00,-1.00,-3.00,-1.00,-2.00,+2.00,+4.00,-2.00,+3.00,+6.00,+0.00,-2.00,-2.00,-3.00,-1.00,-3.00
+4.00,-3.00,-4.00,+0.00,-3.00,-4.00,-2.00,+8.00,-4.00,-3.00,-2.00,-1.00,+51.00,-18.00,-3.00,+2.00
-2.00,-5.00,-1.00,-1.00,-4.00,-4.00,-2.00,-6.00,+0.00,+0.00,+1.00,+1.00,-27.00,+2.00,+1.00,-1.00
+0.00,-1.00,+2.00,+0.00,+0.00,-16.00,-4.00,-7.00,-3.00,-5.00,-3.00,+3.00,-1.00,-6.00,-4.00,+0.00
+9.00,+2.00,+3.00,+0.00,-1.00,+29.00,+0.00,+0.00,+0.00,-3.00,-2.00,-3.00,+2.00,+14.00,-3.00,+0.00
-5.00,-3.00,+0.00,+0.00,-2.00,-8.00,+0.00,+1.00,+3.00,-6.00,-3.00,-1.00,-1.00,-6.00,+3.00,-1.00
+2.00,+0.00,-1.00,+0.00,-3.00,+9.00,-4.00,+2.00,-1.00,-5.00,-3.00,+0.00,+10.00,+1.00,+1.00,+1.00
-4.00,+0.00,-2.00,-3.00,+3.00,+2.00,+5.00,-4.00,-1.00,-5.00,-4.00,-3.00,+8.00,+13.00,-6.00,-3.00
-3.00,-5.00,-3.00,+0.00,-3.00,-5.00,-8.00,-1.00,-4.00,+1.00,-2.00,+1.00,-11.00,-20.00,+1.00,-4.00
-5.00,-1.00,-1.00,+0.00,+0.00,+2.00,+3.00,+2.00,-2.00,-2.00,-3.00,-3.00,-17.00,-5.00,+0.00,+1.00
-3.00,-1.00,-2.00,-2.00,+0.00,-6.00,-1.00,+1.00,-2.00,-2.00,-4.00,-2.00,+7.00,+4.00,+0.00,-3.00
+14.00,+0.00,+1.00,-2.00,-2.00,+8.00,-4.00,+1.00,+3.00,+4.00,+3.00,-2.00,-16.00,-11.00,-9.00,+3.00
-1.00,+0.00,+0.00,+0.00,+0.00,-14.00,+0.00,-2.00,-3.00,+0.00,-4.00,-2.00,+3.00,+9.00,+1.00,+1.00
-1.00,-1.00,-2.00,-1.00,-2.00,-15.00,-2.00,-1.00,-3.00,-4.00,-1.00,-1.00,-5.00,+3.00,+1.00,-1.00
-5.00,-3.00,+0.00,+1.00,-2.00,-10.00,-2.00,-4.00,+0.00,-1.00,-1.00,-1.00,+3.00,+2.00,-2.00,-2.00
-12.00,-6.00,-4.00,+0.00,+0.00,+9.00,+1.00,+0.00,-2.00,+0.00,+0.00,-1.00,+9.00,-3.00,+0.00,-2.00
+9.00,-1.00,+0.00,-2.00,+0.00,-2.00,-1.00,+3.00,-1.00,-4.00,+0.00,+1.00,+2.00,-2.00,+3.00,-2.00
+2.00,+4.00,+0.00,+0.00,+0.00,-5.00,-3.00,-4.00,+0.00,+6.00,+4.00,-1.00,-17.00,-10.00,-1.00,-2.00
-1.00,+2.00,-1.00,-2.00,-2.00,+5.00,+5.00,+3.00,-4.00,-2.00,-4.00,-3.00,+44.00,+8.00,+0.00,+3.00
-6.00,+1.00,-2.00,-1.00,-3.00,+5.00,-3.00,-5.00,+3.00,+3.00,-5.00,-3.00,-9.00,-4.00,-3.00,+3.00
+0.00,-2.00,-2.00,+1.00,+1.00,-6.00,+4.00,-1.00,+0.00,-4.00,-1.00,-1.00,+5.00,+16.00,+1.00,-2.00
-9.00,-2.00,-1.00,-5.00,-2.00,+18.00,-3.00,-2.00,+0.00,+0.00,-2.00,-2.00,-23.00,-10.00,+0.00,-2.00
+1.00,-1.00,-1.00,-1.00,+3.00,-21.00,-2.00,-8.00,+0.00,+3.00,+4.00,+2.00,+10.00,+15.00,-1.00,-2.00
+9.00,-3.00,-3.00,-1.00,+0.00,+9.00,-1.00,-14.00,-2.00,-4.00,-1.00,+0.00,-1.00,-25.00,-3.00,-4.00
-14.00,-1.00,-1.00,-1.00,-2.00,-3.00,+1.00,+22.00,-1.00,+3.00,+1.00,-1.00,-7.00,-14.00,+1.00,+1.00
+1.00,-2.00,-1.00,-1.00,-1.00,+1.00,-1.00,-2.00,+1.00,+0.00,+0.00,-1.00,+10.00,+15.00,-1.00,-2.00
-4.00,-4.00,-4.00,+0.00,+0.00,+3.00,+1.00,-2.00,-3.00,-1.00,+0.00,-1.00,-13.00,+6.00,-1.00,-5.00
+1.00,+2.00,-1.00,-2.00,+1.00,-5.00,-1.00,+0.00,+1.00,-1.00,+0.00,-1.00,-4.00,-9.00,-2.00,+2.00
-1.00,-2.00,-1.00,+2.00,-1.00,+2.00,-3.00,-7.00,-3.00,-2.00,+1.00,-2.00,-7.00,-5.00,-3.00,-3.00
-4.00,+0.00,+1.00,+1.00,+0.00,+8.00,+2.00,-2.00,-1.00,+0.00,+0.00,+0.00,-1.00,+1.00,-2.00,+2.00
-7.00,-6.00,-3.00,-1.00,-5.00,-2.00,-2.00,+1.00,-1.00,-3.00,+3.00,+1.00,-12.00,-6.00,-2.00,-3.00
-4.00,-2.00,-2.00,-2.00,-1.00,+6.00,-2.00,-2.00,-2.00,+1.00,+0.00,+0.00,+5.00,+12.00,-1.00,-4.00
+5.00,+5.00,+1.00,-3.00,-3.00,-4.00,-1.00,-5.00,-1.00,+1.00,+0.00,+0.00,-1.00,-4.00,+0.00,+3.00
+5.00,+2.00,+2.00,-1.00,+3.00,+7.00,+0.00,+3.00,-2.00,-3.00,-2.00,-1.00,+5.00,+3.00,-1.00,-2.00
-3.00,-3.00,-2.00,-3.00,+0.00,+3.00,-2.00,-11.00,+0.00,-3.00,-4.00,-3.00,-13.00,-3.00,-1.00,+1.00
-2.00,+0.00,+0.00,+0.00,-1.00,+0.00,-3.00,-2.00,-3.00,-2.00,-1.00,-2.00,+3.00,+2.00,-2.00,-2.00
-8.00,-1.00,-3.00,-1.00,-2.00,+3.00,+1.00,-6.00,+4.00,-3.00,-3.00,-1.00,+2.00,-5.00,-1.00,+1.00
+2.00,-9.00,-3.00,-2.00,-3.00,-2.00,-2.00,+3.00,-2.00,-2.00,-2.00,+0.00,-7.00,+6.00,-1.00,+0.00
+19.00,+6.00,+2.00,-1.00,+1.00,+3.00,+0.00,+8.00,-2.00,-1.00,+1.00,+2.00,-2.00,-6.00,-1.00,-2.00
+1.00,-4.00,-3.00,-1.00,-1.00,+12.00,+0.00,+1.00,+2.00,+2.00,+1.00,-3.00,-5.00,-4.00,-5.00,-1.00
-1.00,+4.00,+2.00,-2.00,-1.00,-30.00,-1.00,-2.00,-2.00,+3.00,+1.00,-2.00,-1.00,+1.00,+1.00,+0.00
+2.00,-2.00,+0.00,-2.00,+0.00,+53.00,+1.00,-5.00,+0.00,+3.00,+4.00,-1.00,-2.00,+8.00,+0.00,+0.00
-11.00,-1.00,-1.00,+1.00,-3.00,-13.00,-2.00,+4.00,-1.00,+2.00,+0.00,-3.00,-4.00,-11.00,-4.00,-7.00
+6.00,-2.00,+4.00,+1.00,+1.00,+37.00,+1.00,+6.00,-1.00,+0.00,-1.00,+1.00,-3.00,-3.00,-1.00,+4.00
+8.00,-2.00,-3.00,-1.00,-1.00,+4.00,-2.00,+1.00,-2.00,+0.00,-1.00,-1.00,-1.00,-4.00,-3.00,-4.00
-2.00,-3.00,-3.00,-2.00,+0.00,-17.00,+4.00,+4.00,-3.00,-5.00,+0.00,-2.00,+10.00,+21.00,-3.00,+0.00
-8.00,+1.00,-1.00,-2.00,+1.00,+3.00,-1.00,-4.00,-2.00,+2.00,+1.00,-2.00,-10.00,-27.00,-3.00,-2.00
+7.00,+0.00,-2.00,+0.00,-4.00,-12.00,-2.00,-2.00,-5.00,-10.00,-4.00,+2.00,+0.00,+12.00,-1.00,-4.00
+0.00,-2.00,-5.00,-1.00,-1.00,+4.00,-2.00,-1.00,+4.00,+1.00,-1.00,+0.00,+1.00,-1.00,-1.00,+2.00
-1.00,+2.00,-3.00,+1.00,-1.00,-8.00,-2.00,+1.00,+0.00,-5.00,-1.00,-1.00,-5.00,-2.00,+2.00,-1.00
-6.00,+0.00,+0.00,-2.00,-2.00,-1.00,-3.00,-3.00,-2.00,+1.00,+1.00,-2.00,+1.00,+4.00,-1.00,+2.00
-4.00,+1.00,+2.00,+1.00,-1.00,-14.00,+1.00,+4.00,-1.00,-5.00,-1.00,-1.00,-1.00,+2.00,+0.00,+0.00
+0.00,-1.00,+2.00,+1.00,+0.00,+8.00,-1.00,-2.00,+1.00,+7.00,-1.00,-2.00,+0.00,+0.00,-1.00,-1.00
-14.00,-2.00,-5.00,-1.00,-1.00,-22.00,+1.00,-3.00,-2.00,+0.00,-2.00,-2.00,-3.00,-9.00,-3.00,-3.00
+10.00,+0.00,-1.00,+1.00,+1.00,+6.00,+3.00,+5.00,+0.00,-2.00,-3.00,+0.00,-11.00,+5.00,+1.00,+2.00
-8.00,+3.00,-3.00,-2.00,-1.00,-2.00,-1.00,-2.00,-5.00,-6.00,-1.00,-3.00,-5.00,-15.00,-2.00,-4.00
+5.00,-1.00,-1.00,+0.00,-1.00,+5.00,-2.00,+0.00,-3.00,-1.00,+0.00,-3.00,+1.00,+4.00,-1.00,-3.00
+4.00,+2.00,+2.00,+0.00,+0.00,+0.00,-4.00,-2.00,-4.00,-1.00,-5.00,-4.00,+0.00,-6.00,-1.00,-2.00
-5.00,-9.00,-1.00,+0.00,-3.00,-22.00,-5.00,-1.00,-1.00,-5.00,-5.00,-3.00,+2.00,+3.00,+1.00,+2.00
+13.00,+4.00,+0.00,+0.00,+3.00,-8.00,+3.00,+1.00,+0.00,-5.00,-3.00,-1.00,+5.00,+9.00,+1.00,+1.00
-9.00,-3.00,+3.00,-1.00,+0.00,+22.00,+0.00,-4.00,-3.00,-2.00,-2.00,+0.00,-7.00,-7.00,-4.00,-3.00
+1.00,+4.00,+2.00,-1.00,-2.00,-4.00,+2.00,+0.00,+2.00,-5.00,-3.00,+0.00,-7.00,-7.00,+0.00,+3.00
-4.00,-1.00,+1.00,+1.00,+2.00,+1.00,+0.00,-9.00,+2.00,+0.00,+0.00,+0.00,+4.00,-3.00,-2.00,-2.00
-8.00,-3.00,-3.00,-2.00,-3.00,-16.00,-5.00,-6.00,-2.00,+2.00,-3.00,-2.00,-4.00,+1.00,-1.00,-2.00
-2.00,-2.00,-1.00,-1.00,-2.00,-14.00,-2.00,+0.00,-4.00,-3.00,-2.00,+1.00,+3.00,+11.00,-2.00,-3.00
+1.00,+0.00,-1.00,-1.00,-1.00,+0.00,+0.00,+0.00,-2.00,-5.00,-3.00,-2.00,-7.00,-8.00,+0.00,-2.00
+5.00,-4.00,-3.00,-2.00,-3.00,+7.00,-1.00,+2.00,+0.00,-6.00,-1.00,+3.00,+5.00,+3.00,+2.00,+7.00
-8.00,-4.00,-3.00,-2.00,-1.00,+0.00,+0.00,-3.00,+9.00,+9.00,-1.00,+0.00,-1.00,-3.00,-2.00,+1.00
-2.00,-3.00,-1.00,-1.00,-1.00,+2.00,+0.00,-2.00,-5.00,-2.00,-5.00,-3.00,-2.00,+1.00,+1.00,+0.00
+2.00,-4.00,-1.00,+1.00,+0.00,-1.00,-1.00,+1.00,+0.00,+1.00,-1.00,-2.00,-4.00,+1.00,+0.00,-3.00
+0.00,-6.00,-1.00,+0.00,-1.00,+2.00,-1.00,-3.00,-4.00,+3.00,+1.00,-2.00,-6.00,+0.00,-1.00,-4.00
-6.00,+7.00,+5.00,+0.00,-2.00,-5.00,+2.00,-1.00,-1.00,+3.00,+0.00,-1.00,+1.00,+21.00,-1.00,-1.00
-3.00,+0.00,-1.00,+0.00,-2.00,-6.00,-3.00,-5.00,+1.00,-10.00,-3.00,+0.00,-2.00,-24.00,+0.00,-1.00
+2.00,+4.00,+2.00,-1.00,-1.00,-7.00,-1.00,-1.00,+1.00,-1.00,-2.00,-4.00,+1.00,+3.00,-2.00,+2.00
-1.00,+1.00,-2.00,+0.00,-1.00,+7.00,-1.00,-1.00,+0.00,+3.00,-1.00,-2.00,-1.00,-3.00,-6.00,-3.00
-1.00,-9.00,-2.00,-1.00,-2.00,+2.00,-4.00,-1.00,-3.00,-2.00,-3.00,+2.00,+0.00,-2.00,-6.00,+1.00
+3.00,-3.00,-3.00,-1.00,+2.00,+0.00,-2.00,-23.00,+5.00,+4.00,+3.00,+0.00,+2.00,+6.00,-5.00,-2.00
-3.00,+4.00,-1.00,+0.00,+1.00,+1.00,-2.00,+3.00,-6.00,-2.00,-4.00,-1.00,+0.00,-2.00,-3.00,-1.00
+1.00,+5.00,+0.00,-3.00,-2.00,+7.00,+0.00,-1.00,+0.00,-3.00,-4.00,-3.00,-4.00,-2.00,-1.00,-6.00
+3.00,+1.00,-1.00,-1.00,+0.00,-6.00,+0.00,-1.00,-1.00,-4.00,-1.00,-2.00,-1.00,-2.00,+2.00,-1.00
-16.00,-8.00,-2.00,-1.00,+0.00,-5.00,-3.00,-5.00,-1.00,-1.00,+1.00,+0.00,-1.00,+0.00,+4.00,+1.00
+11.00,+3.00,-1.00,-1.00,-1.00,+0.00,-2.00,+4.00,-1.00,+3.00,-1.00,-1.00,-1.00,-10.00,+3.00,+0.00
+7.00,+1.00,+1.00,+0.00,+1.00,-1.00,+3.00,+2.00,-2.00,-1.00,-1.00,-1.00,+3.00,+7.00,+3.00,-1.00
-1.00,-1.00,+1.00,-1.00,-1.00,-1.00,-5.00,-1.00,-1.00,+2.00,+2.00,-3.00,-23.00,-13.00,+1.00,-3.00
-4.00,+0.00,+0.00,-3.00,-1.00,-1.00,-4.00,+5.00,-1.00,-4.00,-5.00,-1.00,+8.00,-6.00,+2.00,-1.00
-1.00,-4.00,-3.00,-1.00,-2.00,+0.00,-2.00,-1.00,+3.00,-3.00,-1.00,+1.00,+2.00,+3.00,+0.00,+0.00
+2.00,+0.00,+4.00,+0.00,-2.00,-3.00,+0.00,+4.00,-3.00,-3.00,-1.00,+1.00,+0.00,-2.00,-1.00,-2.00
+1.00,-3.00,-1.00,+0.00,+1.00,+2.00,+4.00,+2.00,-2.00,+3.00,+2.00,-1.00,+3.00,+0.00,+1.00,+0.00
+0.00,-1.00,+0.00,+0.00,-1.00,-9.00,+3.00,+3.00,-2.00,-7.00,-1.00,-1.00,-3.00,+10.00,-1.00,+1.00
+8.00,-1.00,+1.00,+0.00,-1.00,-3.00,+1.00,+1.00,+0.00,-2.00,+2.00,+0.00,-3.00,-7.00,-1.00,-1.00
-5.00,-1.00,-3.00,-2.00,-2.00,+0.00,+0.00,-6.00,+4.00,-1.00,-4.00,-2.00,+0.00,-1.00,+0.00,+2.00
-3.00,-4.00,-1.00,+0.00,-1.00,+1.00,+1.00,-3.00,-4.00,-1.00,-2.00,-1.00,-2.00,-5.00,+0.00,-5.00
+2.00,+1.00,-1.00,+0.00,-1.00,+5.00,+2.00,+4.00,+1.00,+2.00,+0.00,-1.00,-2.00,+1.00,-1.00,-1.00
-12.00,-9.00,-3.00,-1.00,-2.00,-4.00,+0.00,-4.00,-3.00,-4.00,-2.00,-1.00,+2.00,+2.00,-2.00,-4.00
+12.00,+8.00,+2.00,+3.00,+1.00,+1.00,+1.00,+4.00,+4.00,-5.00,-4.00,+0.00,-2.00,-2.00,+0.00,-3.00
+1.00,-1.00,-2.00,+0.00,-1.00,+2.00,-1.00,+1.00,-16.00,+6.00,+3.00,-1.00,+2.00,-6.00,-2.00,-8.00
+5.00,-1.00,+3.00,-1.00,-1.00,-1.00,+1.00,+1.00,+4.00,-5.00,-3.00,-2.00,-2.00,+0.00,-3.00,-4.00
+6.00,-2.00,+1.00,-4.00,-3.00,+3.00,+0.00,+2.00,-7.00,+10.00,+4.00,+1.00,+0.00,+2.00,+0.00,+4.00
-12.00,-1.00,-5.00,-2.00,-1.00,-16.00,-4.00,-3.00,+1.00,+7.00,+3.00,+1.00,-4.00,-3.00,-3.00,+2.00
-2.00,-4.00,-5.00,-1.00,-1.00,+7.00,-1.00,+0.00,+2.00,-2.00,-3.00,-1.00,+4.00,+5.00,+0.00,+0.00
+2.00,+4.00,+0.00,+0.00,+0.00,-1.00,+0.00,-1.00,-7.00,-3.00,+0.00,-2.00,-6.00,-11.00,-2.00,-5.00
-13.00,+1.00,-1.00,+0.00,-1.00,+4.00,-3.00,-9.00,+1.00,-8.00,-2.00,-1.00,+0.00,+1.00,-1.00,-3.00
+1.00,+0.00,+1.00,-2.00,+1.00,-12.00,+3.00,-4.00,+0.00,-3.00,-2.00,-1.00,+1.00,+23.00,-1.00,-2.00
+4.00,+5.00,+2.00,-3.00,+0.00,-8.00,+2.00,+1.00,-4.00,-5.00,-1.00,-2.00,-3.00,-5.00,-1.00,-1.00
+0.00,+0.00,+0.00,-1.00,-1.00,+0.00,+1.00,+3.00,-3.00,+1.00,+1.00,-2.00,-5.00,-27.00,-2.00,-1.00
-4.00,-2.00,-3.00,+0.00,+1.00,+0.00,-2.00,-3.00,+0.00,-4.00,-3.00,-3.00,-1.00,+2.00,-3.00,+0.00
-9.00,-5.00,-1.00,-2.00,-1.00,+4.00,-4.00,-1.00,-4.00,-3.00,-1.00,-2.00,-2.00,-7.00,-1.00,+1.00
-13.00,-3.00,-3.00,-2.00,-2.00,-2.00,-1.00,-3.00,+2.00,+0.00,-4.00,-1.00,+4.00,+12.00,-2.00,-3.00
+1.00,-1.00,-3.00,-3.00,-2.00,+1.00,-1.00,+2.00,+0.00,-2.00,+0.00,+2.00,+1.00,+10.00,+1.00,-1.00
+3.00,+2.00,-2.00,+1.00,-1.00,-4.00,+0.00,+3.00,+2.00,+4.00,+1.00,-1.00,-2.00,-5.00,-3.00,-1.00
+2.00,-2.00,-1.00,-2.00,-3.00,+5.00,-1.00,-2.00,-4.00,-2.00,+3.00,+2.00,-2.00,-3.00,-3.00,-4.00
+4.00,+2.00,+2.00,+0.00,-1.00,-1.00,+0.00,+2.00,+4.00,+1.00,+0.00,-1.00,-3.00,-7.00,-1.00,+2.00
-6.00,-2.00,-3.00,+1.00,+2.00,+0.00,-2.00,-1.00,-4.00,-2.00,-3.00,+4.00,+4.00,+0.00,+1.00,-2.00
+3.00,+5.00,+2.00,+1.00,-7.00,+0.00,-1.00,+1.00,+1.00,+1.00,+0.00,-2.00,-3.00,+0.00,+1.00,+1.00
-1.00,-2.00,+0.00,+3.00,+3.00,+5.00,-2.00,-1.00,-2.00,-8.00,-3.00,+0.00,-10.00,+0.00,+0.00,-2.00
-7.00,+6.00,+2.00,-2.00,-1.00,+1.00,-1.00,-3.00,+7.00,+0.00,-2.00,-13.00,+3.00,-5.00,-1.00,+5.00
+1.00,-2.00,-2.00,-2.00,+1.00,+1.00,-1.00,+1.00,-2.00,+0.00,+0.00,-3.00,-3.00,+0.00,-1.00,-5.00
-11.00,+0.00,+0.00,-3.00,-1.00,-5.00,+0.00,-1.00,-1.00,+0.00,+0.00,+1.00,+5.00,+5.00,+0.00,-3.00
+2.00,-4.00,-2.00,-3.00,-2.00,+1.00,+1.00,+1.00,+2.00,-4.00,-3.00,+0.00,-10.00,-8.00,-2.00,-3.00
-3.00,-2.00,-3.00,+0.00,-3.00,-3.00,-4.00,-4.00,-6.00,-4.00,+2.00,+2.00,+7.00,-6.00,-1.00,+0.00
+1.00,-4.00,-1.00,+0.00,-4.00,-4.00,+1.00,+4.00,-1.00,-2.00,-2.00,+0.00,+2.00,+8.00,-2.00,+2.00
-5.00,-5.00,-3.00,-2.00,+0.00,-3.00,+1.00,-3.00,-2.00,+0.00,-1.00,+0.00,-2.00,-1.00,-1.00,-4.00
+17.00,+3.00,+5.00,+0.00,-1.00,+1.00,-1.00,+6.00,-3.00,+2.00,-1.00,-2.00,-1.00,-5.00,-1.00,-2.00
+3.00,-1.00,+0.00,+0.00,+2.00,-2.00,-2.00,-1.00,-2.00,-10.00,-4.00,+3.00,-5.00,-2.00,-2.00,-8.00
-2.00,+3.00,-1.00,-2.00,+0.00,+0.00,+0.00,+2.00,+5.00,+0.00,-6.00,-3.00,-1.00,+6.00,+0.00,+5.00
-1.00,-5.00,-2.00,-1.00,+2.00,+0.00,+0.00,+0.00,-2.00,-1.00,+2.00,+1.00,-4.00,-4.00,+0.00,+0.00
-20.00,+2.00,+0.00,-1.00,+0.00,+0.00,-1.00,-2.00,-1.00,+5.00,-1.00,-3.00,+4.00,-5.00,+1.00,+3.00
+2.00,-2.00,+0.00,+0.00,-2.00,-1.00,-1.00,+2.00,+1.00,-2.00,+0.00,+2.00,+0.00,+1.00,-2.00,-2.00
-8.00,-4.00,-3.00,-1.00,-1.00,-3.00,-2.00,+16.00,-5.00,-5.00,-1.00,-3.00,-3.00,+1.00,-2.00,+2.00
+3.00,-2.00,-3.00,+0.00,+1.00,+4.00,+2.00,-1.00,+2.00,-2.00,-2.00,-2.00,+3.00,+2.00,-3.00,-4.00
+6.00,-4.00,-3.00,-1.00,-1.00,+2.00,-2.00,-2.00,-5.00,-4.00,-3.00,-3.00,+3.00,-3.00,-1.00,+0.00
-7.00,+6.00,-3.00,-1.00,-1.00,-1.00,-2.00,+2.00,-1.00,+3.00,-2.00,-1.00,-4.00,-4.00,+0.00,-1.00
-5.00,+0.00,+0.00,+0.00,-3.00,+1.00,-3.00,-9.00,-2.00,+4.00,+5.00,+0.00,-2.00,+0.00,-2.00,-5.00
+4.00,-3.00,-2.00,+0.00,-1.00,-3.00,-1.00,+1.00,+1.00,+5.00,+0.00,-2.00,-2.00,-2.00,+1.00,+2.00
-5.00,-1.00,-3.00,+0.00,+0.00,-1.00,-1.00,-3.00,-2.00,-1.00,+2.00,+1.00,+3.00,+2.00,-2.00,-5.00
-1.00,-4.00,-5.00,-3.00,-2.00,+1.00,+0.00,-6.00,+2.00,-3.00,+2.00,-5.00,-3.00,+0.00,+0.00,+4.00
+12.00,+1.00,+2.00,+0.00,-1.00,-3.00,+1.00,-2.00,+0.00,+4.00,-1.00,-2.00,-3.00,-1.00,+0.00,+1.00
-4.00,+1.00,-3.00,-2.00,+0.00,-2.00,-1.00,+1.00,-1.00,-4.00,-4.00,-2.00,+3.00,-1.00,-1.00,-4.00
-1.00,-3.00,+0.00,-2.00,+0.00,+0.00,+0.00,-4.00,+0.00,+3.00,+3.00,+1.00,-5.00,+1.00,+2.00,+4.00
+4.00,-5.00,+0.00,-1.00,+1.00,-1.00,-3.00,+0.00,-4.00,-1.00,-1.00,+2.00,-4.00,-3.00,+0.00,-1.00
+3.00,+1.00,+2.00,+2.00,-1.00,-3.00,-2.00,-2.00,-3.00,+3.00,+0.00,-3.00,+0.00,+2.00,+0.00,-2.00
+3.00,-2.00,+0.00,-1.00,-1.00,-3.00,-1.00,+3.00,-4.00,-9.00,-6.00,-3.00,-1.00,-1.00,-2.00,+0.00
-7.00,-2.00,-1.00,+0.00,+1.00,+2.00,-2.00,-3.00,+0.00,-3.00,-5.00,-1.00,+2.00,-1.00,-3.00,-1.00
-3.00,-1.00,+0.00,-1.00,-1.00,-3.00,+0.00,-4.00,+0.00,+0.00,-1.00,-2.00,-1.00,+0.00,-2.00,-4.00
+6.00,-2.00,-4.00,-4.00,-1.00,+2.00,+2.00,+0.00,-2.00,-2.00,+0.00,-2.00,+1.00,-1.00,-2.00,-2.00
+5.00,+1.00,+1.00,+0.00,+0.00,+4.00,-3.00,-6.00,-1.00,+1.00,-3.00,-2.00,-5.00,-4.00,-1.00,+1.00
-2.00,+0.00,+0.00,-1.00,+1.00,-1.00,+0.00,+1.00,-1.00,-3.00,-3.00,-2.00,-2.00,-2.00,+0.00,+1.00
-5.00,+0.00,-1.00,+1.00,-1.00,+0.00,-1.00,-3.00,+0.00,-3.00,-3.00,+0.00,+0.00,-4.00,-1.00,+0.00
-4.00,-1.00,-2.00,-1.00,+2.00,-1.00,-1.00,-4.00,+1.00,+5.00,+1.00,+2.00,+1.00,+1.00,+0.00,-4.00
-5.00,+2.00,+1.00,-1.00,-1.00,-2.00,-1.00,-2.00,-2.00,+3.00,-3.00,-1.00,-1.00,-4.00,-2.00,-1.00
-6.00,-2.00,-1.00,-1.00,-3.00,-2.00,-1.00,-3.00,+0.00,+1.00,-2.00,-2.00,+1.00,+0.00,-2.00,+0.00
+2.00,-6.00,+2.00,+0.00,+1.00,+2.00,+0.00,+3.00,+0.00,-1.00,-2.00,-2.00,-1.00,+1.00,+0.00,-3.00
-3.00,-3.00,-2.00,-1.00,+0.00,+1.00,-2.00,-3.00,+0.00,-2.00,+0.00,-2.00,-1.00,-1.00,+0.00,+2.00
+8.00,+2.00,+1.00,-1.00,+1.00,-1.00,+1.00,+2.00,-2.00,-2.00,+2.00,+1.00,-2.00,+2.00,-1.00,+2.00
-1.00,+0.00,-2.00,-1.00,-2.00,-1.00,-2.00,+0.00,-5.00,-1.00,+0.00,-3.00,+0.00,-1.00,-2.00,-4.00
-7.00,-1.00,-2.00,-1.00,-3.00,-1.00,-1.00,-4.00,+3.00,-3.00,-4.00,-1.00,-3.00,+0.00,+0.00,+2.00
+3.00,+0.00,+2.00,+0.00,-1.00,-1.00,-3.00,+0.00,-3.00,-5.00,-1.00,-2.00,-3.00,-2.00,-2.00,+1.00
+1.00,-2.00,-1.00,+0.00,-1.00,-2.00,-1.00,+0.00,-1.00,+0.00,+1.00,-1.00,-2.00,+0.00,+1.00,-1.00
-2.00,-4.00,-7.00,-3.00,-3.00,-2.00,-1.00,-1.00,-1.00,+1.00,+0.00,-1.00,+0.00,-2.00,-2.00,-3.00
+1.00,+5.00,-1.00,+0.00,+2.00,+0.00,+0.00,+2.00,-3.00,-3.00,+0.00,+0.00,+0.00,-3.00,-1.00,+0.00
-1.00,+1.00,-1.00,-1.00,-1.00,+1.00,+0.00,-2.00,-2.00,+3.00,+1.00,+0.00,-2.00,-1.00,-1.00,-2.00
-3.00,-3.00,+0.00,+0.00,+0.00,-2.00,-2.00,-1.00,+2.00,-2.00,-3.00,-2.00,-1.00,-1.00,-4.00,-2.00
+1.00,+0.00,+2.00,+0.00,-1.00,-1.00,-2.00,+0.00,-2.00,-1.00,-1.00,+0.00,-1.00,-2.00,-1.00,-2.00
+2.00,+1.00,+0.00,-1.00,-2.00,-1.00,-2.00,-1.00,+1.00,-4.00,-7.00,-2.00,-2.00,+2.00,-2.00,+2.00
-2.00,-1.00,+0.00,+0.00,+0.00,+0.00,+0.00,-3.00,+3.00,-6.00,-4.00,-2.00,+1.00,+0.00,-1.00,+0.00
-12.00,-3.00,-3.00,-1.00,-1.00,-1.00,-2.00,-5.00,-3.00,-7.00,-4.00,+1.00,+2.00,-1.00,+1.00,-1.00
+2.00,-1.00,-2.00,+1.00,+5.00,+1.00,+0.00,+2.00,+1.00,+4.00,+1.00,-1.00,-5.00,-2.00,-1.00,-1.00
+9.00,-4.00,-2.00,-3.00,-1.00,-2.00,-2.00,+2.00,-3.00,+2.00,+0.00,+1.00,-5.00,+0.00,-3.00,-5.00
-1.00,+5.00,+2.00,-1.00,-15.00,-2.00,-1.00,-1.00,-1.00,-8.00,-7.00,-6.00,-5.00,-2.00,+1.00,+2.00
+4.00,+4.00,+2.00,+0.00,+9.00,-2.00,-1.00,+0.00,-1.00,+4.00,+3.00,+6.00,+0.00,+0.00,-1.00,-1.00
-6.00,-2.00,-4.00,-2.00,-2.00,-3.00,-1.00,-5.00,+4.00,-6.00,-2.00,-6.00,-2.00,+0.00,+0.00,+1.00
-5.00,-6.00,-1.00,+0.00,+0.00,-1.00,-2.00,+0.00,-5.00,+3.00,+1.00,+1.00,+1.00,+1.00,-2.00,-6.00
+5.00,+0.00,+1.00,-1.00,-2.00,-3.00,+0.00,+1.00,+1.00,+1.00,+1.00,-1.00,+0.00,-1.00,-1.00,-3.00
+2.00,-1.00,+0.00,-1.00,-3.00,+0.00,+0.00,+1.00,-1.00,-4.00,-1.00,-2.00,-1.00,+0.00,+0.00,-2.00
-6.00,+0.00,+1.00,-2.00,-2.00,-1.00,-1.00,-1.00,-2.00,+5.00,+0.00,+1.00,+2.00,+0.00,-2.00,+0.00
+1.00,+0.00,-2.00,-1.00,-2.00,+1.00,-1.00,+1.00,-2.00,+1.00,+0.00,+0.00,+0.00,-2.00,+0.00,-1.00
-14.00,-3.00,-3.00,+0.00,+1.00,+1.00,-3.00,-2.00,+0.00,+4.00,-2.00,+0.00,+1.00,+1.00,-1.00,+0.00
-1.00,+1.00,-1.00,+0.00,-3.00,-1.00,-2.00,-2.00,+4.00,-2.00,+1.00,+0.00,-2.00,-2.00,+1.00,-1.00
+4.00,+3.00,+0.00,+1.00,+1.00,-1.00,+0.00,-1.00,-8.00,-4.00,-1.00,+0.00,+0.00,-1.00,+0.00,-2.00
-8.00,-3.00,-3.00,-2.00,-2.00,-2.00,+0.00,-3.00,-2.00,-1.00,+1.00,-3.00,-1.00,-1.00,+0.00,-1.00
-3.00,-3.00,-3.00,-1.00,+3.00,-2.00,-1.00,-1.00,+3.00,+1.00,+0.00,-2.00,+0.00,-1.00,-2.00,-4.00
+5.00,+26.00,-2.00,-1.00,-1.00,-2.00,+0.00,+3.00,-2.00,+2.00,+0.00,-3.00,-1.00,-2.00,-4.00,-3.00
+1.00,-3.00,+1.00,-3.00,-5.00,+1.00,-2.00,-1.00,-3.00,+6.00,+5.00,-1.00,-1.00,-1.00,+0.00,+1.00
-2.00,+4.00,-1.00,+2.00,+3.00,+0.00,-3.00,-2.00,-3.00,-6.00,-2.00,+2.00,+1.00,-1.00,-2.00,-2.00
-10.00,-2.00,-2.00,-1.00,+3.00,-6.00,-2.00,-4.00,-5.00,+0.00,+3.00,-2.00,+0.00,+3.00,-1.00,-1.00
+2.00,-16.00,-2.00,+0.00,-1.00,-2.00,-1.00,-2.00,-1.00,+12.00,+0.00,-3.00,-2.00,-2.00,+1.00,+1.00
+4.00,+2.00,-3.00,-3.00,-4.00,-1.00,-1.00,+0.00,-1.00,-6.00,+0.00,-2.00,-1.00,-1.00,+0.00,+2.00
-6.00,-1.00,-2.00,-3.00,-3.00,-3.00,+0.00,-4.00,-2.00,+0.00,+3.00,+0.00,-2.00,-1.00,-1.00,+0.00
+3.00,-7.00,-3.00,-1.00,+4.00,+4.00,+1.00,+0.00,-2.00,-4.00,-4.00,+2.00,-1.00,-1.00,+0.00,-8.00
-5.00,-6.00,-3.00,-5.00,-6.00,-2.00,-1.00,-1.00,+1.00,+0.00,-1.00,+1.00,-1.00,+2.00,+0.00,+5.00
-1.00,+2.00,-1.00,+2.00,+9.00,+0.00,+1.00,+0.00,-1.00,-1.00,-1.00,+0.00,+2.00,-2.00,-1.00,-3.00
-1.00,-3.00,+1.00,+0.00,+0.00,+1.00,-2.00,-2.00,+1.00,+4.00,+0.00,-4.00,+0.00,-2.00,-3.00,+0.00
-2.00,-2.00,+2.00,-1.00,-1.00,-1.00,-2.00,-1.00,-4.00,-4.00,-4.00,-2.00,-5.00,-2.00,-2.00,-1.00
-1.00,-5.00,-1.00,-1.00,+0.00,-1.00,-1.00,-1.00,-1.00,-5.00,-1.00,-5.00,+0.00,-3.00,-2.00,-5.00
-1.00,-44.00,-2.00,-1.00,-3.00,+0.00,-2.00,-1.00,+1.00,+0.00,-2.00,+0.00,+0.00,-1.00,-2.00,-3.00
-3.00,+55.00,+4.00,-1.00,-3.00,+0.00,-1.00,+0.00,+1.00,-2.00,-2.00,+0.00,-2.00,+0.00,-1.00,+0.00
+0.00,-19.00,-3.00,-2.00,+0.00,-1.00,+0.00,-1.00,+8.00,+1.00,+2.00,+0.00,+2.00,-3.00,-1.00,+0.00
+3.00,-23.00,+0.00,-1.00,-1.00,+0.00,-3.00,-2.00,-18.00,-17.00,-2.00,+0.00,-1.00,-1.00,-1.00,-5.00
-2.00,+7.00,+1.00,-1.00,-1.00,-3.00,-1.00,-2.00,+6.00,-5.00,-4.00,+2.00,-2.00,+1.00,+0.00,+0.00
+2.00,-12.00,-3.00,-1.00,+1.00,+7.00,+2.00,-1.00,-19.00,-3.00,+0.00,-1.00,+1.00,+6.00,+2.00,-1.00
+6.00,+1.00,+1.00,-1.00,+1.00,+0.00,+0.00,+1.00,-4.00,-5.00,-1.00,+1.00,-3.00,-5.00,-1.00,+1.00
-7.00,-18.00,-2.00,-1.00,+0.00,+0.00,+1.00,+0.00,+4.00,+4.00,+0.00,-1.00,-2.00,-4.00,-2.00,+3.00
+4.00,-4.00,-3.00,-3.00,-4.00,+4.00,+1.00,+0.00,+2.00,+0.00,-2.00,-4.00,-1.00,-2.00,-1.00,-5.00
-1.00,-12.00,-2.00,-2.00,-3.00,-5.00,-2.00,-2.00,+5.00,+0.00,-1.00,-3.00,+0.00,-1.00,-1.00,-3.00
-5.00,+8.00,-2.00,+0.00,+1.00,-2.00,-1.00,-1.00,+0.00,+0.00,-1.00,+0.00,+2.00,+1.00,+0.00,+0.00
-3.00,-1.00,+0.00,+1.00,-1.00,+1.00,-2.00,-2.00,+2.00,-1.00,+1.00,-3.00,-2.00,+0.00,+0.00,-2.00
+8.00,+17.00,+4.00,+0.00,+1.00,-4.00,-1.00,+5.00,-1.00,+0.00,-1.00,-3.00,-2.00,+0.00,-2.00,-1.00
+3.00,+4.00,+1.00,-1.00,+0.00,-2.00,-1.00,-2.00,+4.00,+5.00,-2.00,-2.00,-2.00,-4.00,-2.00,-1.00
+0.00,-6.00,-2.00,-4.00,-1.00,-1.00,+1.00,+1.00,-7.00,-2.00,-2.00,+1.00,-1.00,-4.00,-2.00,-1.00
+1.00,+10.00,+2.00,+1.00,-1.00,-1.00,-1.00,-2.00,+2.00,+0.00,-3.00,-1.00,+0.00,+0.00,-1.00,-1.00
-7.00,+10.00,-1.00,-2.00,-3.00,-1.00,+0.00,+0.00,-6.00,-4.00,+0.00,+0.00,+0.00,-2.00,+1.00,+0.00
-3.00,-20.00,-1.00,+2.00,+0.00,-3.00,-2.00,-1.00,+2.00,-11.00,-1.00,-1.00,+0.00,+1.00,-1.00,+3.00
-1.00,-2.00,-3.00,-1.00,+0.00,+1.00,-1.00,+0.00,+3.00,-1.00,+1.00,+0.00,-4.00,-2.00,-1.00,+1.00
+1.00,+8.00,+2.00,+0.00,+1.00,-1.00,+0.00,+0.00,+1.00,-1.00,-1.00,+1.00,-1.00,-1.00,-1.00,-2.00
-7.00,+3.00,-2.00,+0.00,+0.00,-3.00,-2.00,-3.00,-3.00,+0.00,+1.00,-1.00,+0.00,+0.00,+0.00,-1.00
+2.00,-11.00,-2.00,+0.00,-1.00,-1.00,+1.00,+0.00,+0.00,+2.00,-2.00,-1.00,-2.00,-2.00,+0.00,-3.00
-2.00,+6.00,-1.00,+1.00,-1.00,-3.00,-1.00,-3.00,-5.00,-2.00,-2.00,-3.00,+3.00,-1.00,-1.00,-3.00
-1.00,+8.00,-5.00,-2.00,-1.00,-1.00,-1.00,+0.00,-1.00,+0.00,-3.00,+0.00,+0.00,+0.00,-1.00,-3.00
+5.00,+0.00,+0.00,+0.00,-1.00,-2.00,+0.00,+2.00,-2.00,-1.00,-3.00,-1.00,-1.00,+0.00,+0.00,-3.00
+4.00,-3.00,+2.00,+1.00,+1.00,-3.00,-1.00,-4.00,-1.00,-3.00,-3.00,+1.00,-4.00,-5.00,-2.00,+1.00
-6.00,-1.00,-1.00,-1.00,-2.00,-1.00,+0.00,-2.00,-2.00,+6.00,-1.00,+0.00,-2.00,+1.00,-1.00,+1.00
-8.00,-3.00,+0.00,-3.00,-3.00,-2.00,-3.00,-4.00,-3.00,-1.00,-1.00,-3.00,+0.00,+1.00,+1.00,+0.00
+1.00,-5.00,-2.00,-2.00,+1.00,+3.00,+1.00,+1.00,+3.00,-3.00,-3.00,-1.00,-1.00,-1.00,-1.00,+4.00
-3.00,-1.00,-2.00,-2.00,-1.00,+0.00,-1.00,-1.00,-1.00,-3.00,-2.00,-2.00,-1.00,-4.00,+0.00,+1.00
-2.00,+6.00,-2.00,-2.00,-2.00,-1.00,-2.00,-3.00,+0.00,-6.00,-2.00,-2.00,+1.00,+2.00,-2.00,-2.00
-1.00,-6.00,+0.00,+1.00,-1.00,-1.00,+1.00,+0.00,+1.00,+2.00,+1.00,-2.00,-2.00,-2.00,-2.00,-2.00
-7.00,+0.00,-2.00,-2.00,-1.00,-1.00,-1.00,-3.00,-2.00,-4.00,-2.00,-2.00,-2.00,-1.00,-2.00,-4.00
+2.00,-1.00,+2.00,-1.00,+0.00,+0.00,-1.00,+3.00,-3.00,+7.00,+2.00,-1.00,-1.00,-1.00,-1.00,-4.00
+14.00,+2.00,+4.00,-2.00,+0.00,+0.00,-2.00,+4.00,-2.00,+0.00,+0.00,-1.00,-2.00,-1.00,-2.00,-2.00
-6.00,+2.00,-1.00,+0.00,-1.00,-2.00,-1.00,-2.00,+2.00,-9.00,+1.00,-1.00,+0.00,+2.00,+2.00,+5.00
+0.00,-2.00,+1.00,+1.00,+0.00,-1.00,-2.00,-1.00,+2.00,+8.00,-1.00,-1.00,-3.00,-3.00,+0.00,-3.00
-4.00,-6.00,-3.00,-2.00,-1.00,+1.00,-1.00,-1.00,-2.00,-5.00,-5.00,-1.00,+1.00,-1.00,-1.00,-2.00
-9.00,-3.00,-2.00,-1.00,-3.00,-1.00,-1.00,-4.00,-1.00,-2.00,-3.00,-2.00,+2.00,-1.00,-1.00,-1.00
+3.00,+4.00,-2.00,+0.00,+2.00,+0.00,-1.00,+1.00,-6.00,+0.00,-3.00,+0.00,-3.00,-3.00,-2.00,-2.00
-3.00,-1.00,-3.00,-1.00,-4.00,-3.00,-1.00,-1.00,-1.00,-7.00,+0.00,+0.00,-2.00,-1.00,+0.00,+3.00
+7.00,-3.00,+1.00,+0.00,-1.00,-2.00,+1.00,+0.00,+4.00,+4.00,+0.00,+0.00,-1.00,-1.00,-3.00,+2.00
+0.00,-3.00,-1.00,+1.00,+1.00,+0.00,-2.00,+0.00,-3.00,+1.00,-1.00,+0.00,-1.00,-2.00,-1.00,-1.00
-4.00,-1.00,-3.00,-1.00,-2.00,+0.00,-1.00,-1.00,+0.00,+1.00,+0.00,-1.00,-1.00,+1.00,-1.00,-2.00
-8.00,+0.00,-2.00,-2.00,+1.00,+0.00,-2.00,-8.00,-2.00,-2.00,-2.00,+0.00,-2.00,-2.00,-2.00,-3.00
+1.00,-3.00,-4.00,-2.00,-2.00,+0.00,+0.00,-4.00,+3.00,-4.00,-1.00,-1.00,-1.00,-4.00,-1.00,-2.00
-9.00,-1.00,-3.00,+0.00,+0.00,+0.00,+1.00,-2.00,-3.00,-1.00,-2.00,-1.00,+0.00,+1.00,+3.00,+1.00
+5.00,+3.00,+0.00,+0.00,-1.00,+1.00,+2.00,+2.00,-4.00,-1.00,+1.00,+0.00,-1.00,+1.00,+0.00,+0.00
+0.00,-4.00,-1.00,+0.00,+0.00,-2.00,-1.00,+0.00,-2.00,-2.00,+0.00,-1.00,-2.00,+0.00,-4.00,-5.00
-1.00,+1.00,+1.00,-3.00,-2.00,-1.00,-1.00,+0.00,-2.00,-1.00,-2.00,-1.00,+0.00,+1.00,+0.00,-1.00
+1.00,+0.00,-2.00,-1.00,-1.00,-2.00,-3.00,-4.00,-3.00,-4.00,+0.00,-1.00,-2.00,-2.00,-2.00,-2.00
-7.00,-4.00,-4.00,-3.00,-2.00,+0.00,-3.00,-5.00,-1.00,-6.00,-4.00,+0.00,+0.00,-1.00,-1.00,-2.00
-5.00,+1.00,+0.00,+0.00,+0.00,+2.00,+0.00,-3.00,-2.00,-2.00,-2.00,-2.00,+0.00,-4.00,-3.00,-3.00
-12.00,-1.00,+2.00,-1.00,-2.00,+0.00,-1.00,+1.00,-3.00,+1.00,+1.00,+0.00,+2.00,+0.00,+2.00,+0.00
+8.00,-2.00,+4.00,+2.00,+0.00,+0.00,+0.00,+4.00,+5.00,+5.00,+1.00,-2.00,-3.00,-2.00,+0.00,+2.00
-7.00,-1.00,+1.00,-1.00,-1.00,-4.00,-3.00,-5.00,-1.00,+1.00,-1.00,-3.00,-2.00,-2.00,-1.00,-2.00
+0.00,+3.00,+4.00,+1.00,-2.00,-1.00,-1.00,-2.00,-5.00,-4.00,-1.00,-3.00,+0.00,-1.00,-2.00,-5.00
-1.00,-4.00,-5.00,+1.00,+0.00,+1.00,+0.00,-3.00,+2.00,-2.00,-2.00,-2.00,-2.00,+0.00,-3.00,+3.00
-1.00,+2.00,-2.00,-1.00,+1.00,-2.00,-1.00,-4.00,-1.00,+0.00,+1.00,+0.00,-1.00,-1.00,-3.00,-2.00
+2.00,+0.00,-2.00,-1.00,+0.00,-1.00,-1.00,+1.00,-1.00,-1.00,-1.00,-2.00,+0.00,+0.00,-3.00,+0.00
-2.00,-3.00,+0.00,-2.00,-1.00,-1.00,-2.00,+0.00,-1.00,+0.00,-1.00,-2.00,-1.00,-1.00,+0.00,+0.00
+1.00,+0.00,-1.00,+1.00,+0.00,-1.00,-3.00,+0.00,+0.00,-5.00,-2.00,+0.00,-1.00,+1.00,+0.00,+0.00
-4.00,+3.00,-2.00,+0.00,+0.00,+0.00,-1.00,+0.00,-3.00,-2.00,-2.00,-2.00,+0.00,-1.00,+1.00,-2.00
-1.00,-1.00,-1.00,-1.00,-1.00,-2.00,+0.00,-1.00,+1.00,+0.00,-4.00,+0.00,-2.00,-2.00,-1.00,+0.00
+5.00,-1.00,-2.00,-1.00,-2.00,+1.00,+0.00,+1.00,-1.00,-1.00,-1.00,+1.00,+0.00,+1.00,+0.00,+3.00
+1.00,-2.00,-3.00,-1.00,-1.00,-2.00,-2.00,-1.00,-3.00,+0.00,-1.00,-1.00,-4.00,-1.00,-3.00,-6.00
+0.00,-1.00,-3.00,-1.00,-4.00,-2.00,+0.00,-2.00,-1.00,-6.00,-2.00,-2.00,+0.00,+0.00,-2.00,-1.00
-2.00,-2.00,+0.00,-2.00,+0.00,-1.00,-1.00,-2.00,-3.00,+3.00,+3.00,-1.00,-2.00,-1.00,-1.00,-2.00
-11.00,-5.00,-2.00,-1.00,-1.00,-4.00,-2.00,-5.00,-1.00,+2.00,+0.00,+0.00,+0.00,-1.00,+0.00,+1.00
+12.00,+4.00,+5.00,+0.00,-1.00,-1.00,+2.00,+3.00,-2.00,-2.00,+0.00,-1.00,-2.00,-2.00,-1.00,-3.00
-14.00,-1.00,+0.00,+1.00,-1.00,+1.00,-1.00,-8.00,+0.00,-8.00,-6.00,-1.00,-3.00,-1.00,-1.00,-6.00
+5.00,+1.00,+2.00,-1.00,+0.00,+2.00,+1.00,+4.00,+1.00,+0.00,+1.00,+1.00,-2.00,-1.00,-1.00,-3.00
+7.00,+0.00,-6.00,-4.00,+0.00,-1.00,+1.00,-2.00,+4.00,-2.00,-5.00,-2.00,-2.00,+0.00,+0.00,+2.00
+3.00,+0.00,-3.00,-1.00,+0.00,+2.00,-1.00,+2.00,-2.00,-2.00,-1.00,-2.00,-1.00,-5.00,-3.00,-5.00
-5.00,-2.00,+0.00,+0.00,+0.00,-1.00,-2.00,+0.00,-2.00,+5.00,+2.00,-1.00,+0.00,+1.00,-1.00,-2.00
+1.00,+0.00,-1.00,+1.00,+1.00,-1.00,+0.00,-1.00,-2.00,-2.00,-3.00,-2.00,-1.00,-1.00,+0.00,+0.00
+0.00,+2.00,-3.00,-3.00,-1.00,+0.00,+0.00,+1.00,-2.00,-7.00,+0.00,-2.00,-1.00,+0.00,-3.00,-1.00
-9.00,-4.00,-1.00,-2.00,-3.00,-2.00,-2.00,-3.00,-2.00,+0.00,+2.00,-1.00,-1.00,+0.00,-1.00,-4.00
+13.00,-1.00,+0.00,-2.00,+0.00,+0.00,+0.00,+3.00,-1.00,-1.00,+0.00,-2.00,-2.00,-1.00,-1.00,+1.00
-10.00,-5.00,+0.00,-1.00,-3.00,+0.00,-2.00,-2.00,+0.00,-2.00,-1.00,-4.00,-1.00,-2.00,+0.00,-1.00
+3.00,-3.00,-2.00,+0.00,+1.00,-1.00,-1.00,+1.00,-2.00,-4.00,-1.00,-2.00,-1.00,-1.00,-2.00,-4.00
-11.00,+2.00,+0.00,-1.00,+0.00,-2.00,+0.00,-1.00,+2.00,-3.00,-1.00,-1.00,+1.00,+0.00,+1.00,+2.00
+4.00,+0.00,-2.00,-1.00,-3.00,-2.00,+0.00,+3.00,-1.00,+3.00,-4.00,+0.00,-1.00,-2.00,-1.00,-1.00
-1.00,-1.00,-5.00,-2.00,-1.00,-3.00,-1.00,+0.00,-1.00,+4.00,+2.00,+1.00,+1.00,-1.00,-1.00,-2.00
+1.00,-1.00,-1.00,+1.00,-1.00,-2.00,+1.00,+2.00,-3.00,+1.00,+2.00,-2.00,+1.00,-1.00,+0.00,+0.00
+0.00,-5.00,-1.00,+1.00,+1.00,-1.00,-1.00,-1.00,+0.00,-7.00,-4.00,-1.00,+0.00,+2.00,+2.00,+2.00
-7.00,+0.00,+1.00,-3.00,-2.00,-2.00,-2.00,-3.00,-3.00,-3.00,-1.00,-1.00,-2.00,-1.00,-1.00,-1.00
+3.00,+0.00,-1.00,-1.00,+0.00,+0.00,-1.00,+2.00,-2.00,-5.00,-1.00,+1.00,+1.00,-1.00,+0.00,-3.00
+4.00,+4.00,+1.00,+1.00,+0.00,+2.00,+0.00,+0.00,-1.00,+0.00,-1.00,-1.00,-2.00,-1.00,-2.00,+0.00
+2.00,-5.00,-2.00,-2.00,-1.00,+0.00,-2.00,-2.00,-5.00,+0.00,+0.00,+0.00,-1.00,+0.00,-4.00,-4.00
-5.00,-2.00,-1.00,-2.00,-1.00,+0.00,+0.00,+0.00,+0.00,-1.00,+1.00,-3.00,-1.00,+0.00,-1.00,-1.00
+2.00,-1.00,+2.00,+0.00,-1.00,+0.00,-1.00,-2.00,-2.00,-3.00,+1.00,+0.00,-2.00,-2.00,-2.00,-2.00
-2.00,-3.00,-1.00,+2.00,-2.00,+0.00,-2.00,-1.00,+2.00,+1.00,+0.00,+0.00,-1.00,-2.00,-1.00,+2.00
-1.00,+0.00,+0.00,-1.00,-3.00,-1.00,+2.00,+0.00,+1.00,+2.00,+0.00,-3.00,-2.00,-2.00,-2.00,+0.00
+3.00,-1.00,+3.00,+1.00,+1.00,-1.00,-1.00,-1.00,-1.00,-6.00,-2.00,-1.00,-2.00,-2.00,-2.00,+0.00
+1.00,+2.00,+0.00,-2.00,+0.00,-2.00,+0.00,+0.00,-1.00,+1.00,-3.00,-1.00,+0.00,-2.00,-2.00,-4.00
+1.00,-1.00,+1.00,+2.00,+1.00,-2.00,+0.00,-1.00,-2.00,+1.00,+1.00,-1.00,-1.00,-2.00,-2.00,-3.00
+3.00,-2.00,-4.00,-2.00,-2.00,+0.00,-2.00,+2.00,+0.00,-2.00,-1.00,+1.00,-2.00,-1.00,+0.00,+0.00
+12.00,-1.00,+0.00,-1.00,+1.00,+0.00,-1.00,+1.00,+4.00,-3.00,-1.00,-1.00,+2.00,+0.00,+0.00,+4.00
+3.00,+1.00,-2.00,+0.00,+0.00,-1.00,-2.00,-4.00,-2.00,+0.00,+1.00,+2.00,+0.00,+1.00,+0.00,+0.00
-3.00,+0.00,+1.00,-1.00,-3.00,-3.00,-1.00,-3.00,-2.00,+5.00,+0.00,-1.00,-1.00,+3.00,-1.00,-4.00
+2.00,+0.00,-2.00,-1.00,-1.00,-2.00,-1.00,+1.00,-3.00,+2.00,-5.00,-2.00,-1.00,-3.00,-1.00,-3.00
+0.00,-5.00,-2.00,+1.00,-1.00,-1.00,+0.00,-4.00,-1.00,-1.00,-2.00,-1.00,-2.00,-2.00,-3.00,+1.00
-2.00,-3.00,-2.00,-1.00,-2.00,-2.00,+0.00,-3.00,-3.00,-5.00,-2.00,-1.00,-2.00,-1.00,-3.00,-2.00
-4.00,+0.00,+0.00,-1.00,+0.00,+0.00,-1.00,-1.00,+0.00,-3.00,+1.00,+0.00,-1.00,+1.00,+0.00,+0.00
-9.00,-1.00,+3.00,-1.00,+1.00,-1.00,-3.00,-30.00,+1.00,-5.00,+0.00,-4.00,-2.00,+0.00,-2.00,-2.00
-12.00,-1.00,-3.00,-3.00,+1.00,-1.00,+0.00,+9.00,-1.00,-6.00,-3.00,-1.00,+0.00,+0.00,+1.00,+3.00
-1.00,-1.00,-1.00,+0.00,+1.00,+1.00,+1.00,+0.00,+0.00,+2.00,-2.00,-3.00,+0.00,-2.00,-1.00,+2.00
-1.00,+3.00,-1.00,+0.00,-3.00,-1.00,-1.00,-3.00,-1.00,+1.00,+1.00,-3.00,-2.00,-2.00,-1.00,-3.00
+6.00,-2.00,-1.00,+1.00,+1.00,-2.00,+0.00,+0.00,-1.00,+1.00,-2.00,-2.00,+0.00,+1.00,+0.00,-2.00
-4.00,+1.00,-2.00,+0.00,+0.00,+0.00,-2.00,-5.00,+1.00,+1.00,+1.00,-1.00,+1.00,-3.00,-3.00,-3.00
+0.00,-1.00,-1.00,-1.00,-3.00,+2.00,-1.00,+1.00,+1.00,+1.00,+0.00,-2.00,-1.00,+0.00,-3.00,+3.00
-8.00,-2.00,-1.00,+0.00,+1.00,-10.00,-1.00,+0.00,-2.00,+1.00,-2.00,+0.00,+1.00,+3.00,+2.00,+0.00
-3.00,+2.00,+1.00,-1.00,+2.00,+2.00,-1.00,+3.00,-2.00,-2.00,-1.00,+0.00,-3.00,-2.00,-1.00,-3.00
-3.00,-2.00,-3.00,-3.00,-3.00,-2.00,+0.00,-2.00,-2.00,-1.00,-2.00,+0.00,-6.00,-5.00,-2.00,-4.00
+0.00,-2.00,-1.00,-3.00,-3.00,+1.00,+0.00,+2.00,+0.00,-4.00,-4.00,-1.00,-1.00,-1.00,-2.00,-3.00
+2.00,-5.00,+0.00,-1.00,-2.00,+0.00,+0.00,+2.00,-3.00,-3.00,-2.00,-2.00,-2.00,-4.00,-1.00,-3.00
+0.00,-2.00,-4.00,+1.00,-2.00,-4.00,-1.00,+3.00,+0.00,+4.00,+0.00,-1.00,+1.00,+2.00,+0.00,+1.00
-1.00,+2.00,+2.00,+0.00,+0.00,-2.00,+0.00,-2.00,-5.00,+0.00,+1.00,+1.00,+1.00,+1.00,+1.00,-2.00
-2.00,+0.00,+1.00,+1.00,-1.00,-5.00,-1.00,-4.00,-4.00,-5.00,-1.00,-4.00,-3.00,-3.00,-2.00,-3.00
-1.00,-2.00,-5.00,-3.00,-2.00,+2.00,-2.00,-1.00,+2.00,+4.00,+0.00,-1.00,+0.00,-1.00,-1.00,+0.00
-5.00,-2.00,+0.00,-1.00,-1.00,+0.00,+0.00,+3.00,+0.00,+3.00,+3.00,+1.00,-2.00,-1.00,-2.00,+1.00
-5.00,+0.00,+0.00,-3.00,-1.00,+1.00,-1.00,-3.00,+0.00,+11.00,+2.00,-1.00,+2.00,-1.00,+0.00,-3.00
-2.00,-2.00,-1.00,-2.00,-1.00,-2.00,-1.00,-4.00,-2.00,-1.00,-2.00,-1.00,-1.00,+0.00,-1.00,-3.00
+0.00,-4.00,+0.00,-1.00,+0.00,+1.00,+0.00,-1.00,-1.00,-2.00,-3.00,+0.00,+0.00,+0.00,+0.00,-2.00
+5.00,-1.00,-2.00,+0.00,-2.00,-3.00,+2.00,+5.00,-2.00,+0.00,-1.00,-3.00,+0.00,+1.00,-3.00,-1.00
+7.00,-1.00,-1.00,+0.00,-1.00,+0.00,-1.00,-3.00,-3.00,-7.00,-6.00,-3.00,+0.00,-4.00,-2.00,-1.00
+1.00,-2.00,-2.00,-1.00,+0.00,-2.00,-1.00,+0.00,+1.00,-5.00,+1.00,-1.00,-1.00,-2.00,-1.00,-1.00
+1.00,+1.00,+2.00,+0.00,+1.00,+0.00,-1.00,-2.00,-3.00,-1.00,-1.00,+1.00,-2.00,-3.00,-2.00,-1.00
-4.00,-2.00,+0.00,-2.00,-2.00,-2.00,-1.00,-1.00,-4.00,-1.00,-1.00,-2.00,-4.00,-1.00,-2.00,-2.00
-8.00,-5.00,-3.00,-1.00,+0.00,-3.00,-1.00,-2.00,-1.00,-4.00,-2.00,-2.00,+0.00,+2.00,-1.00,-2.00
-1.00,+4.00,+1.00,+0.00,+0.00,-2.00,+0.00,+0.00,+0.00,+2.00,-2.00,-2.00,-1.00,+0.00,-1.00,-2.00
-2.00,-1.00,+0.00,-1.00,-1.00,+0.00,+1.00,+0.00,+1.00,-4.00,+0.00,-2.00,+0.00,-2.00,+2.00,+6.00
+6.00,+0.00,-3.00,-3.00,-1.00,-2.00,-2.00,+3.00,-2.00,-6.00,-4.00,-1.00,-2.00,+0.00,+2.00,+4.00
+1.00,+1.00,+0.00,-1.00,-5.00,-2.00,-1.00,-2.00,-1.00,+0.00,+1.00,+0.00,+1.00,+0.00,-1.00,-4.00
-12.00,-5.00,-2.00,-1.00,-1.00,+1.00,+1.00,+1.00,-2.00,+0.00,+1.00,-1.00,+1.00,-1.00,-1.00,-1.00
+8.00,+0.00,-2.00,-1.00,-2.00,+1.00,+0.00,+0.00,-2.00,+4.00,+3.00,+1.00,-1.00,-3.00,-2.00,-1.00
-3.00,+0.00,+1.00,+0.00,+0.00,+0.00,+0.00,+1.00,+4.00,-1.00,-3.00,+0.00,-1.00,-1.00,-2.00,-2.00
-2.00,-4.00,+0.00,-1.00,-1.00,-2.00,-1.00,-5.00,+2.00,+3.00,+1.00,-1.00,-2.00,-3.00,-1.00,+0.00
+5.00,-4.00,-1.00,+0.00,-1.00,-2.00,-1.00,+1.00,-2.00,+0.00,-3.00,+1.00,-1.00,-2.00,+0.00,+1.00
-2.00,+2.00,+2.00,-3.00,-2.00,-2.00,-2.00,-3.00,-2.00,-1.00,-4.00,-3.00,-1.00,-1.00,-4.00,-5.00
-10.00,+0.00,-1.00,-2.00,-2.00,+1.00,-3.00,-3.00,-5.00,-3.00,-1.00,+0.00,+2.00,-3.00,-1.00,-4.00
-1.00,+3.00,-3.00,-1.00,-1.00,-2.00,-1.00,+2.00,+1.00,-2.00,-1.00,-1.00,-2.00,+1.00,-1.00,-2.00
+13.00,-1.00,-1.00,+1.00,+0.00,-2.00,+0.00,-1.00,+2.00,-3.00,-3.00,-1.00,+0.00,-1.00,-2.00,+0.00
-1.00,+6.00,+2.00,-1.00,+0.00,-1.00,-4.00,+0.00,+1.00,-4.00,+0.00,+0.00,+0.00,-1.00,-1.00,-1.00
-5.00,-10.00,-1.00,-1.00,+1.00,+0.00,-2.00,-3.00,-4.00,-2.00,-2.00,-1.00,-1.00,+0.00,+0.00,-1.00
+11.00,+3.00,+2.00,-1.00,-1.00,+0.00,+0.00,+5.00,-2.00,-7.00,-3.00,-1.00,-2.00,+0.00,-1.00,-2.00
-7.00,-2.00,-6.00,+0.00,-2.00,+0.00,-1.00,-3.00,-3.00,-3.00,-5.00,+0.00,-2.00,+0.00,+0.00,+3.00
+0.00,-4.00,-3.00,+0.00,+0.00,+1.00,+0.00,+0.00,-2.00,-3.00,-2.00,-1.00,-1.00,-1.00,-2.00,-3.00
+3.00,+1.00,-1.00,-2.00,+0.00,+0.00,-1.00,-3.00,+1.00,+0.00,+2.00,+2.00,+0.00,-3.00,-2.00,-3.00
-1.00,+1.00,-1.00,-1.00,+0.00,+0.00,-1.00,-1.00,-1.00,-3.00,-1.00,+1.00,+0.00,-1.00,-2.00,+0.00
-1.00,-1.00,-1.00,-2.00,-1.00,+2.00,-1.00,+2.00,-1.00,+3.00,+0.00,-2.00,-3.00,+0.00,-1.00,-3.00
-4.00,-1.00,-2.00,-1.00,+0.00,-4.00,+0.00,-3.00,+0.00,-2.00,-1.00,-2.00,-3.00,+1.00,+0.00,-2.00
+2.00,+1.00,-1.00,+1.00,+0.00,+2.00,+0.00,+2.00,-2.00,+2.00,+2.00,-1.00,-2.00,-5.00,-1.00,+0.00
+4.00,-2.00,+1.00,+0.00,-1.00,+0.00,-2.00,+1.00,-1.00,+1.00,+1.00,-2.00,-2.00,+0.00,+0.00,-1.00
+0.00,+2.00,+0.00,-3.00,+0.00,-2.00,-3.00,-1.00,+0.00,-1.00,+2.00,+1.00,+0.00,+0.00,+0.00,-1.00
-4.00,-2.00,-1.00,+0.00,-2.00,+1.00,+3.00,+2.00,+0.00,-1.00,-1.00,+1.00,-1.00,-1.00,+1.00,+3.00
+4.00,-4.00,-2.00,+0.00,+1.00,+0.00,-1.00,-4.00,-5.00,+3.00,+0.00,-3.00,-2.00,+1.00,-1.00,-4.00
-2.00,+4.00,+3.00,-2.00,-2.00,-2.00,+1.00,-2.00,-3.00,-6.00,-3.00,-1.00,-2.00,-1.00,+0.00,-1.00
-9.00,-8.00,-2.00,-1.00,+0.00,-1.00,-1.00,-2.00,-4.00,+2.00,+0.00,-2.00,-1.00,-1.00,-1.00,-4.00
+8.00,+4.00,+1.00,-2.00,+0.00,-1.00,-2.00,+2.00,-2.00,-5.00,-4.00,-2.00,+0.00,-1.00,+1.00,+0.00
+0.00,+3.00,-1.00,-1.00,+0.00,-3.00,-1.00,+1.00,+2.00,-3.00,-1.00,-1.00,-2.00,-1.00,-1.00,+2.00
-3.00,-6.00,-4.00,-1.00,+0.00,+1.00,+0.00,+0.00,-2.00,+0.00,+0.00,+1.00,-1.00,+0.00,+0.00,+1.00
-5.00,-2.00,+0.00,-1.00,-1.00,-2.00,-4.00,-4.00,+0.00,+1.00,+2.00,-1.00,-1.00,+1.00,-1.00,-1.00
-5.00,-4.00,-2.00,-3.00,-4.00,-2.00,-2.00,-3.00,-3.00,+0.00,-1.00,-2.00,-1.00,-2.00,-3.00,-4.00
-1.00,+0.00,+1.00,-1.00,-4.00,-2.00,+1.00,+1.00,+1.00,-3.00,-5.00,-1.00,+0.00,-1.00,-1.00,+3.00
-5.00,-5.00,-2.00,-1.00,+1.00,+1.00,-3.00,+2.00,+0.00,+1.00,+1.00,-2.00,-2.00,-1.00,-2.00,-2.00
+1.00,+4.00,+3.00,+0.00,+0.00,+0.00,-2.00,+2.00,+0.00,-4.00,-3.00,-2.00,-1.00,+0.00,+0.00,-1.00
-2.00,+1.00,+0.00,-1.00,-1.00,-1.00,-1.00,-2.00,-3.00,-2.00,-3.00,+0.00,-1.00,+0.00,+1.00,+1.00
+1.00,+1.00,-1.00,-2.00,-1.00,+0.00,+0.00,+0.00,+1.00,-3.00,-2.00,+1.00,+0.00,-1.00,-1.00,-5.00
-10.00,-2.00,-2.00,-3.00,-2.00,-2.00,-1.00,-4.00,-2.00,+3.00,-1.00,+0.00,-1.00,-2.00,-1.00,-1.00
+12.00,+2.00,-1.00,+0.00,+0.00,-1.00,+1.00,-1.00,-1.00,+2.00,+2.00,+0.00,+1.00,-2.00,-1.00,-2.00
-1.00,-6.00,-1.00,+2.00,+0.00,+0.00,-3.00,-2.00,-1.00,+1.00,+0.00,+0.00,-4.00,-1.00,-2.00,+2.00
+2.00,-1.00,+0.00,+1.00,-2.00,-3.00,+0.00,+0.00,-3.00,-3.00,-3.00,-2.00,-1.00,+2.00,+1.00,-4.00
-4.00,+0.00,-1.00,-1.00,+0.00,-2.00,+1.00,-2.00,+1.00,-7.00,-7.00,+0.00,-2.00,-2.00,-1.00,+4.00
-5.00,-2.00,-4.00,-2.00,-3.00,-2.00,+1.00,+2.00,-1.00,-5.00,-6.00,+4.00,-1.00,-2.00,-1.00,+0.00
+14.00,-2.00,-1.00,-1.00,+1.00,+1.00,-1.00,+4.00,+1.00,+2.00,-3.00,+3.00,+1.00,-3.00,-1.00,-1.00
-5.00,+0.00,-1.00,+1.00,+0.00,-1.00,-1.00,-1.00,+0.00,+1.00,+1.00,+1.00,+0.00,-2.00,-1.00,-2.00
+3.00,+3.00,-1.00,+2.00,-1.00,-1.00,-1.00,-3.00,-5.00,-1.00,+2.00,-4.00,+0.00,-2.00,-2.00,-4.00
-7.00,-2.00,+0.00,-1.00,-2.00,-2.00,-4.00,-7.00,-1.00,-1.00,+0.00,-6.00,-1.00,-2.00,-1.00,-4.00
-8.00,-3.00,-2.00,+0.00,-3.00,+2.00,+0.00,-3.00,-1.00,+0.00,+0.00,-3.00,-3.00,-1.00,-1.00,+1.00
-19.00,-1.00,-2.00,-1.00,-1.00,-4.00,-1.00,+1.00,-4.00,-4.00,-4.00,-2.00,-1.00,+4.00,-1.00,+1.00
+7.00,+2.00,-1.00,-1.00,-2.00,+1.00,-1.00,+2.00,-2.00,+1.00,+0.00,-4.00,+0.00,-3.00,-2.00,-3.00
-2.00,+1.00,+1.00,-2.00,-1.00,+1.00,+1.00,-5.00,+0.00,-9.00,-4.00,-3.00,+3.00,+6.00,-2.00,+1.00
-2.00,-4.00,-4.00,-1.00,+0.00,+2.00,-1.00,-2.00,+2.00,-4.00,-1.00,-1.00,-3.00,-4.00,-1.00,-3.00
-1.00,+0.00,+1.00,+0.00,+0.00,+1.00,-2.00,-2.00,+1.00,+7.00,+4.00,-2.00,-2.00,-5.00,-1.00,+2.00
-3.00,-3.00,-1.00,-1.00,-1.00,+3.00,-2.00,-2.00,-2.00,-9.00,-5.00,+0.00,-1.00,+3.00,+2.00,+0.00
-1.00,-3.00,-3.00,+0.00,-1.00,-2.00,-1.00,+2.00,+2.00,+5.00,-2.00,-2.00,-1.00,-3.00,-3.00,+1.00
-11.00,+2.00,-1.00,-2.00,-4.00,-1.00,-1.00,-5.00,-2.00,-4.00,-2.00,-3.00,+1.00,+1.00,-3.00,-3.00
+7.00,-3.00,+0.00,-1.00,+0.00,+2.00,+0.00,+4.00,-1.00,-2.00,+1.00,+0.00,+0.00,-2.00,-1.00,-1.00
+0.00,+2.00,-1.00,-2.00,-2.00,-4.00,-1.00,-1.00,-1.00,-2.00,-3.00,+0.00,+0.00,-3.00,+0.00,-1.00
+5.00,+0.00,+3.00,-2.00,-3.00,-1.00,+0.00,+1.00,-4.00,-5.00,+0.00,-1.00,-3.00,-1.00,+1.00,+0.00
-1.00,+0.00,+2.00,+1.00,+0.00,-2.00,-2.00,-1.00,-2.00,-3.00,-2.00,-2.00,-1.00,-1.00,+0.00,-3.00
+1.00,+0.00,-2.00,-2.00,-1.00,-2.00,-1.00,-1.00,-1.00,-2.00,-1.00,-2.00,-1.00,+0.00,+0.00,+0.00
-2.00,-5.00,-1.00,+0.00,+0.00,-2.00,+0.00,+1.00,-2.00,+0.00,-1.00,-2.00,+1.00,-1.00,-1.00,-3.00
-5.00,+1.00,-4.00,+0.00,-1.00,-2.00,-2.00,+1.00,+1.00,+2.00,-1.00,+0.00,-1.00,-1.00,+1.00,+0.00
+2.00,+5.00,+0.00,-1.00,-1.00,+0.00,+0.00,-1.00,-3.00,-2.00,-1.00,-1.00,+1.00,-2.00,-2.00,-2.00
-1.00,+0.00,-1.00,-1.00,-1.00,-1.00,-1.00,+0.00,-1.00,+0.00,-2.00,+0.00,-2.00,+0.00,+0.00,+2.00
+7.00,-4.00,-1.00,-1.00,-1.00,+0.00,-2.00,-1.00,+0.00,+3.00,-1.00,-1.00,-1.00,-1.00,+0.00,+0.00
-3.00,-4.00,-3.00,-2.00,+1.00,+0.00,+1.00,-1.00,+1.00,+0.00,-2.00,-2.00,-3.00,-4.00,+0.00,-3.00
+3.00,+4.00,+3.00,+0.00,-1.00,-2.00,+0.00,+3.00,+2.00,-2.00,+0.00,+1.00,-1.00,+0.00,+1.00,+1.00
-8.00,+4.00,+1.00,+1.00,-1.00,-1.00,-3.00,-6.00,-2.00,+2.00,-2.00,+1.00,+0.00,-1.00,-1.00,+0.00
-4.00,+1.00,+2.00,+1.00,-1.00,+0.00,-3.00,-5.00,-1.00,-4.00,+0.00,+1.00,-2.00,+2.00,-2.00,+3.00
-6.00,-2.00,-3.00,-1.00,+0.00,-1.00,-3.00,-1.00,+0.00,-3.00,-6.00,-4.00,-1.00,-2.00,-2.00,+0.00
+5.00,-2.00,-3.00,-2.00,+1.00,-3.00,-1.00,+2.00,-1.00,+4.00,+1.00,-3.00,+0.00,-1.00,-2.00,-2.00
+11.00,+1.00,-3.00,-1.00,+0.00,+0.00,+0.00,+3.00,-2.00,-8.00,-2.00,-2.00,+2.00,-2.00,-1.00,-2.00
+1.00,+2.00,-2.00,+0.00,+0.00,+1.00,-1.00,+2.00,+0.00,+10.00,+5.00,-2.00,+0.00,-2.00,-2.00,+1.00
-1.00,-2.00,+1.00,-1.00,+0.00,-4.00,+3.00,-3.00,-7.00,+2.00,+1.00,+1.00,+0.00,+1.00,-1.00,-5.00
-4.00,-5.00,-2.00,+0.00,-1.00,-1.00,-3.00,-4.00,-1.00,-1.00,-5.00,-1.00,-2.00,-3.00,+0.00,-2.00
+1.00,-3.00,-1.00,-3.00,-2.00,+0.00,+0.00,+1.00,-1.00,-5.00,-1.00,+1.00,-1.00,+0.00,-2.00,-3.00
-3.00,-1.00,+0.00,-2.00,-2.00,-3.00,+1.00,+0.00,-1.00,-4.00,+1.00,+1.00,-3.00,+0.00,-4.00,-4.00
+0.00,+1.00,+2.00,-1.00,+1.00,+1.00,-1.00,+0.00,+1.00,+0.00,+4.00,+0.00,-2.00,+0.00,-3.00,+0.00
-5.00,-2.00,+0.00,+0.00,+0.00,-2.00,-1.00,-2.00,+0.00,-1.00,+0.00,+0.00,+0.00,+0.00,+0.00,+0.00
+0.00,-1.00,-1.00,-1.00,-1.00,+5.00,+0.00,-4.00,+1.00,+0.00,+0.00,+0.00,-2.00,-1.00,+0.00,-3.00
+0.00,-1.00,-1.00,-2.00,-1.00,-19.00,-3.00,+0.00,+1.00,+1.00,-3.00,+1.00,+1.00,+1.00,-3.00,-4.00
+1.00,+2.00,-2.00,-2.00,-2.00,+2.00,-1.00,+0.00,-2.00,-1.00,-3.00,-2.00,-2.00,-2.00,+0.00,-2.00
+0.00,-4.00,-2.00,-3.00,-1.00,-2.00,-1.00,+1.00,-2.00,+4.00,+0.00,+1.00,-4.00,-7.00,+0.00,-3.00
-6.00,-4.00,+0.00,+1.00,-2.00,+0.00,-3.00,-4.00,-1.00,-2.00,-4.00,-3.00,+1.00,-2.00,+0.00,+1.00
+13.00,-3.00,-4.00,-2.00,-1.00,-1.00,-1.00,+6.00,-2.00,-3.00,-2.00,+1.00,+1.00,-2.00,-1.00,-3.00
-1.00,-2.00,-2.00,+1.00,+1.00,-2.00,-2.00,+0.00,-2.00,-1.00,-1.00,+0.00,-1.00,+1.00,-2.00,+1.00
-7.00,+1.00,-2.00,-3.00,-1.00,-1.00,+1.00,-2.00,-1.00,-1.00,-2.00,+0.00,+0.00,+0.00,-1.00,+2.00
-6.00,-2.00,-1.00,-1.00,-2.00,-3.00,-1.00,-3.00,-2.00,+1.00,+2.00,-1.00,-2.00,-2.00,-1.00,-6.00
-2.00,-1.00,+2.00,-2.00,+2.00,+3.00,+0.00,-2.00,-1.00,+1.00,-1.00,-1.00,-3.00,-1.00,-1.00,+0.00
+1.00,+3.00,-1.00,+1.00,-2.00,-1.00,-4.00,-2.00,+0.00,-1.00,+0.00,-1.00,+0.00,-1.00,-1.00,-2.00
+2.00,-3.00,+2.00,-1.00,-1.00,-1.00,-3.00,-2.00,-3.00,-6.00,-6.00,-2.00,+0.00,+2.00,-2.00,-3.00
-3.00,-3.00,-4.00,-3.00,-1.00,-4.00,-1.00,-1.00,-1.00,+4.00,+2.00,+0.00,+0.00,-1.00,-2.00,-2.00
-9.00,+2.00,-1.00,-1.00,-2.00,+1.00,+0.00,-4.00,+0.00,-2.00,-1.00,-1.00,-1.00,-1.00,+0.00,+2.00
+3.00,-3.00,+2.00,+0.00,-1.00,+1.00,+5.00,+5.00,+1.00,-4.00,-4.00,-2.00,-2.00,-1.00,+1.00,+3.00
-6.00,+0.00,-1.00,+0.00,-1.00,-2.00,-1.00,-7.00,-2.00,-5.00,+0.00,-3.00,-4.00,-1.00,-1.00,-5.00
-2.00,-1.00,-1.00,+1.00,-1.00,-3.00,+0.00,+0.00,-2.00,-1.00,-1.00,-1.00,-1.00,-1.00,+1.00,+4.00
+6.00,-2.00,+0.00,+0.00,+1.00,+0.00,-1.00,+6.00,-1.00,-3.00,-1.00,-4.00,-3.00,-3.00,+0.00,-2.00
-4.00,-4.00,-2.00,-2.00,-1.00,-3.00,-5.00,-7.00,-2.00,+1.00,+0.00,-2.00,-3.00,-4.00,-3.00,-3.00
+0.00,+5.00,-1.00,+0.00,+0.00,+0.00,+0.00,+0.00,-2.00,-1.00,+3.00,-2.00,+0.00,+1.00,-1.00,+0.00
+0.00,+5.00,+0.00,-2.00,+0.00,-2.00,-2.00,-3.00,-2.00,-5.00,-3.00,-2.00,-3.00,+1.00,-1.00,-4.00
-3.00,-3.00,-6.00,-2.00,-4.00,-1.00,+0.00,-7.00,-3.00,+1.00,-1.00,-2.00,-1.00,+1.00,-1.00,+4.00
-2.00,+0.00,-1.00,-1.00,+0.00,+0.00,+0.00,-2.00,-4.00,-2.00,-1.00,+1.00,-1.00,-4.00,+0.00,-2.00
-7.00,-5.00,-1.00,+1.00,-3.00,+0.00,-1.00,+1.00,-3.00,-1.00,-2.00,-1.00,-1.00,+0.00,-1.00,+10.00
+6.00,+0.00,+2.00,-1.00,+0.00,-1.00,-1.00,-1.00,-2.00,+1.00,+1.00,-2.00,-3.00,-1.00,-2.00,+4.00
-1.00,+0.00,+1.00,+1.00,+0.00,+0.00,-1.00,-2.00,-4.00,-4.00,-3.00,-3.00,-4.00,-3.00,-3.00,-1.00
-2.00,-1.00,+0.00,-1.00,-1.00,-3.00,-1.00,-1.00,+0.00,-2.00,-2.00,-3.00,-1.00,+2.00,-1.00,+0.00
+0.00,-2.00,-1.00,+0.00,+0.00,-3.00,-1.00,+0.00,+2.00,+5.00,-4.00,-1.00,-1.00,-2.00,-1.00,-8.00
+1.00,-2.00,-3.00,-1.00,+0.00,+6.00,+4.00,+3.00,+0.00,-3.00,-4.00,-2.00,+1.00,+5.00,-2.00,-4.00
-6.00,-4.00,-2.00,+1.00,+1.00,+1.00,-1.00,-4.00,+0.00,+1.00,-1.00,-1.00,-1.00,-4.00,+0.00,-3.00
+6.00,+3.00,-3.00,+0.00,+0.00,-1.00,-2.00,+2.00,+2.00,+0.00,+0.00,+1.00,+1.00,-2.00,-2.00,-1.00
+1.00,+3.00,-4.00,-2.00,-1.00,+4.00,-1.00,-1.00,-3.00,-1.00,+0.00,+2.00,+0.00,-1.00,-1.00,-2.00
-2.00,-4.00,-1.00,+0.00,-1.00,-3.00,+0.00,+3.00,+0.00,-1.00,+0.00,+0.00,-2.00,-3.00,-1.00,-1.00
