+1.00,+0.00,-1.00,-1.00,-1.00,+0.00,-1.00,+0.00,-3.00,-4.00,-1.00,-1.00,-1.00,-2.00,+0.00,+0.00
-2.00,+2.00,-1.00,-2.00,-2.00,+0.00,-2.00,+0.00,+7.00,+2.00,-2.00,-1.00,-1.00,-2.00,-2.00,-2.00
-4.00,+2.00,-1.00,+0.00,-1.00,-1.00,-1.00,-2.00,-13.00,-4.00,-3.00,-2.00,-1.00,-1.00,+1.00,-1.00
-3.00,-3.00,+0.00,+0.00,-1.00,-1.00,-1.00,-2.00,-4.00,-5.00,+0.00,-1.00,-1.00,-1.00,+1.00,+5.00
+4.00,+5.00,-2.00,-2.00,-1.00,-1.00,+0.00,+0.00,+4.00,-1.00,+0.00,+1.00,-1.00,-1.00,-1.00,+2.00
-2.00,+3.00,+0.00,-1.00,-1.00,-1.00,-1.00,+1.00,+0.00,-3.00,-1.00,-2.00,-1.00,-1.00,-1.00,-2.00
+3.00,-4.00,-1.00,+0.00,+0.00,-2.00,-1.00,-1.00,-3.00,-3.00,-2.00,+1.00,+0.00,-2.00,+0.00,-2.00
-5.00,+1.00,-1.00,-1.00,-1.00,+0.00,-1.00,-2.00,+9.00,+4.00,+1.00,-1.00,-1.00,-1.00,-1.00,-2.00
-3.00,+7.00,-1.00,-1.00,+0.00,-2.00,-2.00,-2.00,+2.00,-1.00,+2.00,-3.00,-2.00,-2.00,-2.00,-3.00
-1.00,-10.00,-1.00,+0.00,+1.00,-1.00,+0.00,-1.00,+3.00,-14.00,-12.00,-2.00,-3.00,+1.00,+1.00,+3.00
-8.00,+0.00,-2.00,+1.00,-1.00,-2.00,-1.00,-1.00,+16.00,+21.00,+1.00,-3.00,-1.00,-3.00,-3.00,+2.00
+7.00,-39.00,-2.00,-1.00,-1.00,-1.00,+1.00,+0.00,+4.00,+13.00,-5.00,-3.00,+3.00,-1.00,-2.00,-7.00
+5.00,+26.00,-2.00,+0.00,-1.00,-1.00,-2.00,-3.00,-63.00,-71.00,-1.00,+3.00,-4.00,+1.00,-1.00,-5.00
+5.00,+8.00,+4.00,-2.00,-1.00,+0.00,-1.00,-1.00,+14.00,+54.00,+8.00,+5.00,+7.00,-3.00,+0.00,+7.00
-8.00,-30.00,-3.00,-2.00,-1.00,-2.00,-2.00,-2.00,-2.00,-14.00,+5.00,+19.00,-11.00,+5.00,+3.00,-1.00
-2.00,+50.00,+1.00,+0.00,-1.00,-1.00,+0.00,-4.00,+7.00,+66.00,+3.00,-16.00,+21.00,-3.00,-2.00,+1.00
-4.00,-18.00,+0.00,-1.00,+0.00,+0.00,-1.00,+1.00,+3.00,+8.00,-3.00,-3.00,+2.00,-2.00,-1.00,-5.00
-16.00,-40.00,-11.00,-2.00,-2.00,-2.00,-2.00,-5.00,+25.00,-15.00,-3.00,-12.00,-1.00,-1.00,-2.00,-4.00
+3.00,+42.00,+7.00,-1.00,-1.00,+1.00,+0.00,+4.00,-3.00,-6.00,-3.00,-5.00,-20.00,-4.00,-2.00,-1.00
-37.00,-68.00,-10.00,-2.00,-3.00,-2.00,-3.00,-7.00,-13.00,-16.00,-1.00,+70.00,+10.00,+0.00,-4.00,-5.00
+36.00,+28.00,-10.00,-4.00,-4.00,-5.00,-2.00,-1.00,+32.00,+16.00,+2.00,-60.00,-4.00,+3.00,+2.00,+7.00
+9.00,+27.00,+12.00,+5.00,+3.00,+3.00,+4.00,+9.00,+30.00,-25.00,-3.00,-7.00,+18.00,+0.00,+0.00,+3.00
-38.00,+37.00,-9.00,-4.00,-18.00,-3.00,+5.00,-11.00,-3.00,+12.00,-3.00,-22.00,-2.00,-1.00,-1.00,-4.00
+78.00,+84.00,+24.00,+6.00,+19.00,-2.00,-6.00,+21.00,-9.00,-30.00,-5.00,-4.00,-9.00,-4.00,+1.00,+1.00
-48.00,-85.00,-5.00,+1.00,-9.00,+9.00,-2.00,-7.00,-4.00,+6.00,-4.00,+23.00,+5.00,-3.00,+0.00,+0.00
+8.00,-10.00,-5.00,-1.00,+8.00,-5.00,-1.00,-2.00,-15.00,-2.00,+2.00,+6.00,-11.00,-2.00,-1.00,-4.00
-4.00,-12.00,-5.00,-1.00,+0.00,-5.00,-4.00,-2.00,-6.00,-5.00,+1.00,+1.00,+9.00,-1.00,-1.00,+0.00
-25.00,-21.00,-9.00,+0.00,+16.00,+5.00,+0.00,-8.00,-11.00,-11.00,-3.00,-4.00,-7.00,+1.00,-2.00,-5.00
+0.00,+31.00,-4.00,-17.00,-55.00,-33.00,-2.00,+0.00,+14.00,+7.00,-4.00,+10.00,-2.00,+0.00,+0.00,+7.00
-3.00,-21.00,-4.00,+1.00,-10.00,+22.00,+0.00,+0.00,-20.00,-4.00,+2.00,-7.00,-3.00,-2.00,+0.00,-4.00
+18.00,-16.00,+1.00,+6.00,+41.00,+3.00,+1.00,+3.00,+6.00,+1.00,-7.00,+6.00,+6.00,+0.00,-2.00,-2.00
+2.00,+43.00,-4.00,+3.00,+22.00,+10.00,+1.00,-3.00,+0.00,-13.00,+2.00,-12.00,-9.00,-1.00,-3.00,-2.00
-6.00,-11.00,+6.00,+6.00,+29.00,-2.00,-1.00,+3.00,+13.00,+11.00,+1.00,+0.00,-4.00,+0.00,+0.00,+1.00
+0.00,+25.00,-4.00,-7.00,-38.00,+0.00,-1.00,-5.00,-21.00,-22.00,-4.00,+3.00,-2.00,-1.00,-2.00,-5.00
+11.00,-2.00,+0.00,-3.00,-11.00,-5.00,-2.00,+1.00,-29.00,-2.00,+3.00,+0.00,+3.00,-1.00,-4.00,-2.00
-6.00,-36.00,-5.00,-2.00,-9.00,+0.00,+0.00,+1.00,+12.00,+0.00,-1.00,-10.00,-7.00,-1.00,+1.00,+3.00
+3.00,+39.00,+2.00,-1.00,-2.00,-1.00,-3.00,+1.00,-3.00,+7.00,-4.00,+1.00,+0.00,-3.00,-2.00,-5.00
-6.00,-4.00,-1.00,-1.00,-5.00,-11.00,-1.00,-5.00,-6.00,+7.00,+2.00,+5.00,-2.00,+0.00,-1.00,-2.00
+4.00,-3.00,+0.00,+1.00,+0.00,+4.00,-2.00,-2.00,+12.00,-9.00,-5.00,-3.00,+2.00,-1.00,-2.00,-2.00
-9.00,-18.00,-2.00,-4.00,-5.00,-8.00,-2.00,-4.00,-10.00,-4.00,+3.00,-12.00,-4.00,+0.00,+2.00,+7.00
-4.00,-45.00,+0.00,+1.00,-2.00,+6.00,+0.00,-4.00,+0.00,-2.00,-2.00,+7.00,+1.00,-1.00,-2.00,-4.00
+26.00,+48.00,+3.00,+1.00,+13.00,-3.00,+1.00,+4.00,-19.00,-4.00,+0.00,+1.00,-2.00,+1.00,-2.00,-2.00
+11.00,+18.00,+3.00,-1.00,+3.00,+1.00,-2.00,+4.00,+8.00,+2.00,-1.00,-5.00,+0.00,-2.00,-2.00,+2.00
-18.00,-24.00,+0.00,-2.00,-21.00,-3.00,-1.00,-2.00,+4.00,-7.00,-2.00,-5.00,-1.00,-1.00,-1.00,+0.00
-5.00,-8.00,+2.00,+2.00,+8.00,+4.00,+2.00,+2.00,+4.00,+4.00,+0.00,+3.00,-1.00,-1.00,-2.00,-2.00
-9.00,-31.00,+0.00,+2.00,+14.00,+0.00,-3.00,-2.00,-1.00,+3.00,-1.00,-3.00,-3.00,-1.00,+0.00,+3.00
+2.00,+15.00,-11.00,-4.00,-8.00,-3.00,-2.00,+0.00,-10.00,-6.00,+0.00,-1.00,+1.00,-1.00,+0.00,+0.00
-3.00,+17.00,-4.00,-4.00,-11.00,-2.00,+0.00,-1.00,+7.00,+0.00,-1.00,-1.00,-5.00,-2.00,-2.00,-3.00
+32.00,-21.00,+0.00,+1.00,+9.00,+4.00,+0.00,+1.00,-20.00,-9.00,-2.00,+0.00,+2.00,+1.00,+0.00,-1.00
-9.00,+34.00,+0.00,+0.00,+5.00,-3.00,-2.00,-1.00,-29.00,-18.00,+0.00,-3.00,-4.00,-3.00,-1.00,-6.00
-2.00,-40.00,-1.00,-1.00,-8.00,+0.00,+1.00,-1.00,+51.00,+32.00,-1.00,+0.00,-5.00,-2.00,+0.00,+2.00
-8.00,-7.00,-2.00,+0.00,-3.00,-2.00,+0.00,-1.00,+3.00,+1.00,-3.00,-5.00,-5.00,-1.00,-1.00,-2.00
-2.00,+0.00,+2.00,+2.00,+9.00,+3.00,-1.00,-1.00,-13.00,-6.00,-1.00,+5.00,+9.00,+0.00,-1.00,-3.00
-9.00,-14.00,+0.00,-3.00,-4.00,-3.00,-2.00,-3.00,+9.00,+4.00,+1.00,-3.00,-9.00,-1.00,+0.00,+3.00
-4.00,-20.00,+0.00,-2.00,-5.00,-3.00,-1.00,-2.00,-13.00,-12.00,-2.00,-2.00,+14.00,+0.00,+0.00,-2.00
+8.00,+10.00,-1.00,-1.00,-1.00,+1.00,+1.00,+0.00,+11.00,+1.00,-3.00,-4.00,+1.00,-1.00,-1.00,+0.00
-2.00,-23.00,+2.00,+0.00,+0.00,-2.00,-1.00,+0.00,+11.00,+12.00,+2.00,+0.00,+1.00,-2.00,-3.00,-1.00
-18.00,-16.00,-3.00,-2.00,-2.00,-2.00,-2.00,-2.00,-3.00,+1.00,-1.00,+3.00,-4.00,+0.00,-2.00,+1.00
+26.00,+54.00,+10.00,+1.00,+3.00,+1.00,+1.00,+2.00,-15.00,-10.00,-1.00,+1.00,-4.00,+2.00,-1.00,-1.00
-9.00,-39.00,-3.00,-2.00,+3.00,-3.00,+1.00,-2.00,-17.00,+0.00,+0.00,-5.00,-2.00,-1.00,-3.00,-4.00
+16.00,+16.00,-1.00,-1.00,-3.00,-1.00,-1.00,+0.00,+9.00,-3.00,+2.00,+3.00,+0.00,-1.00,-2.00,-2.00
+11.00,+0.00,+0.00,-1.00,-4.00,-6.00,-2.00,-1.00,+11.00,+7.00,-4.00,-7.00,-3.00,+1.00,+2.00,+3.00
-10.00,-18.00,-2.00,-1.00,-1.00,+5.00,-1.00,-1.00,-4.00,-3.00,-3.00,-1.00,-9.00,-2.00,-1.00,-1.00
-7.00,+2.00,-1.00,+0.00,+1.00,+1.00,+1.00,+0.00,-8.00,-6.00,+3.00,-4.00,+0.00,+0.00,+1.00,-1.00
-14.00,-3.00,+0.00,-1.00,+2.00,+0.00,-1.00,-2.00,+7.00,+8.00,-1.00,+2.00,-4.00,-2.00,-2.00,+0.00
+7.00,-13.00,-4.00,+0.00,+4.00,+0.00,+0.00,-1.00,-7.00,-4.00,-2.00,+2.00,+0.00,+0.00,-1.00,-3.00
-29.00,+14.00,-2.00,-2.00,-9.00,-5.00,-3.00,-3.00,-8.00,-5.00,-3.00,-4.00,-8.00,-3.00,+0.00,-2.00
+29.00,+69.00,+5.00,+0.00,-6.00,-1.00,+0.00,+3.00,-20.00,-8.00,+1.00,+2.00,+8.00,+0.00,-1.00,-6.00
-18.00,-11.00,-6.00,-1.00,-2.00,+0.00,+0.00,-4.00,+14.00,+3.00,-2.00,-2.00,+0.00,-4.00,-1.00,+1.00
+4.00,+33.00,+0.00,-2.00,+3.00,-4.00,-2.00,-4.00,+1.00,+5.00,-1.00,-3.00,+7.00,+0.00,-1.00,+2.00
+8.00,-13.00,+0.00,+2.00,+3.00,+1.00,-1.00,+0.00,-17.00,-6.00,+0.00,+0.00,+4.00,+0.00,-2.00,-3.00
-10.00,-26.00,-5.00,+1.00,+0.00,-2.00,-1.00,-1.00,+12.00,+3.00,+0.00,-2.00,-13.00,-1.00,-2.00,-1.00
-1.00,+18.00,+0.00,+0.00,+3.00,-1.00,+1.00,+2.00,-26.00,-9.00,+1.00,-1.00,-11.00,-1.00,+1.00,-1.00
-14.00,-69.00,-5.00,-4.00,+1.00,+1.00,-1.00,-2.00,+4.00,-1.00,-4.00,+0.00,+4.00,+0.00,-2.00,-2.00
+9.00,+62.00,+1.00,+0.00,-1.00,-3.00,-3.00,-2.00,+1.00,-6.00,+0.00,-2.00,-7.00,-2.00,-1.00,+0.00
+13.00,+20.00,-1.00,-3.00,-5.00,+1.00,+0.00,+1.00,+9.00,+6.00,-1.00,+1.00,+0.00,-2.00,-2.00,+4.00
+19.00,+12.00,-1.00,+0.00,-4.00,-7.00,+0.00,-1.00,+5.00,-6.00,-2.00,-1.00,+0.00,+1.00,-1.00,-2.00
-21.00,-20.00,-2.00,+0.00,-1.00,+5.00,-1.00,-3.00,-8.00,+1.00,+0.00,-2.00,-5.00,-3.00,-1.00,+0.00
-6.00,-13.00,-4.00,-1.00,+3.00,-1.00,-3.00,-1.00,+15.00,+6.00,+0.00,-2.00,+3.00,+0.00,+0.00,+0.00
-17.00,-49.00,+0.00,+1.00,-2.00,+1.00,-1.00,-1.00,+5.00,-3.00,-3.00,-4.00,-4.00,-2.00,+0.00,-3.00
-16.00,-21.00,-6.00,-2.00,+0.00,+0.00,-1.00,-2.00,-10.00,+1.00,+2.00,-2.00,+4.00,-2.00,-1.00,-1.00
+35.00,+45.00,+6.00,+0.00,-2.00,-2.00,-1.00,+4.00,-1.00,+0.00,+0.00,+4.00,-1.00,-1.00,+1.00,+1.00
-5.00,+33.00,+1.00,-2.00,-1.00,+2.00,+1.00,+1.00,-24.00,-16.00,-2.00,-2.00,-1.00,-1.00,-2.00,-9.00
+0.00,+13.00,+1.00,-1.00,+0.00,-2.00,+0.00,-3.00,+7.00,+8.00,+1.00,+4.00,+3.00,+0.00,-1.00,+1.00
+1.00,+5.00,-3.00,+1.00,+1.00,+2.00,+1.00,+1.00,-2.00,-7.00,-6.00,-2.00,+2.00,-2.00,-3.00,-5.00
-10.00,-9.00,-1.00,-2.00,+1.00,-2.00,-2.00,+0.00,+5.00,+3.00,+2.00,+4.00,+16.00,-1.00,-1.00,+2.00
+2.00,-27.00,-1.00,-1.00,-2.00,+0.00,+0.00,-2.00,-7.00,+1.00,-1.00,-7.00,-23.00,+1.00,+0.00,-2.00
-23.00,-35.00,-5.00,-2.00,-5.00,-5.00,-3.00,-4.00,+11.00,-6.00,-3.00,-3.00,+12.00,+0.00,+1.00,+3.00
+15.00,+37.00,+4.00,+1.00,+4.00,+2.00,+0.00,+2.00,-10.00,-4.00,+0.00,+0.00,-7.00,-2.00,-1.00,-3.00
-2.00,-2.00,-4.00,+0.00,+0.00,-2.00,-1.00,-1.00,+23.00,+7.00,+2.00,-1.00,-2.00,-1.00,-1.00,+0.00
-9.00,+1.00,+0.00,+2.00,+2.00,-2.00,-1.00,-2.00,-1.00,-6.00,-3.00,+1.00,+7.00,+0.00,-1.00,-2.00
+18.00,+8.00,+1.00,-3.00,-4.00,+0.00,-1.00,+0.00,-19.00,-4.00,+2.00,+0.00,-12.00,+0.00,+1.00,+1.00
+3.00,-17.00,-3.00,-3.00,+1.00,+0.00,-2.00,-3.00,+14.00,+5.00,-1.00,-3.00,-3.00,-2.00,-1.00,+2.00
-4.00,-18.00,-1.00,-1.00,-11.00,-1.00,-1.00,+2.00,-13.00,-4.00,-3.00,-1.00,+0.00,+0.00,-3.00,-4.00
+1.00,-6.00,+0.00,+0.00,+2.00,+0.00,+0.00,+0.00,+18.00,+6.00,+0.00,-1.00,-2.00,-2.00,-3.00,+1.00
-6.00,+5.00,-2.00,-2.00,-13.00,-7.00,-2.00,-3.00,-11.00,-13.00,-7.00,-1.00,-3.00,-1.00,-2.00,-2.00
-3.00,+0.00,+0.00,+0.00,+9.00,+5.00,+0.00,-1.00,-10.00,+0.00,+0.00,-1.00,+2.00,+0.00,-1.00,-2.00
+3.00,+10.00,+2.00,+0.00,+15.00,+2.00,-1.00,-2.00,-9.00,-2.00,+2.00,+1.00,-7.00,+0.00,-1.00,-5.00
-3.00,-56.00,-3.00,+0.00,+3.00,+0.00,+1.00,-4.00,+14.00,+6.00,+3.00,+2.00,+3.00,-2.00,+0.00,+4.00
-2.00,+50.00,+0.00,-1.00,-9.00,-2.00,-3.00,-2.00,+0.00,-5.00,-2.00,-2.00,+1.00,-1.00,-2.00,-7.00
+1.00,-2.00,+3.00,+2.00,+0.00,+0.00,+1.00,+6.00,+7.00,-9.00,-1.00,+1.00,+2.00,+0.00,+2.00,+2.00
-8.00,+4.00,-1.00,-2.00,-3.00,-4.00,-1.00,-2.00,-2.00,-2.00,+1.00,+1.00,+8.00,-3.00,+0.00,-3.00
+16.00,-13.00,-1.00,-1.00,-8.00,-3.00,+0.00,+0.00,-14.00,-6.00,-5.00,-3.00,-6.00,+0.00,+0.00,-4.00
-19.00,-37.00,-6.00,-2.00,+1.00,+1.00,-4.00,-2.00,+19.00,+9.00,+0.00,-2.00,+1.00,-1.00,-1.00,+3.00
-22.00,+18.00,+2.00,-1.00,-5.00,-2.00,-2.00,-5.00,+1.00,-4.00,-8.00,-3.00,-27.00,+0.00,-3.00,-3.00
-4.00,+6.00,-1.00,+0.00,+1.00,+2.00,+0.00,+1.00,+1.00,+3.00,+2.00,+0.00,+15.00,-1.00,-1.00,+1.00
+8.00,-1.00,+0.00,-2.00,-1.00,-1.00,+0.00,+3.00,+1.00,+0.00,+1.00,+6.00,+33.00,+1.00,+0.00,-2.00
+0.00,-29.00,-4.00,-2.00,+2.00,-1.00,+0.00,-3.00,-25.00,-6.00,-3.00,-6.00,-5.00,-3.00,-1.00,-6.00
+11.00,+29.00,-5.00,-2.00,-2.00,-3.00,-2.00,-5.00,+9.00,+6.00,+2.00,-4.00,-3.00,-1.00,-1.00,-1.00
-8.00,+48.00,+3.00,+0.00,-4.00,-1.00,-2.00,-2.00,+0.00,-3.00,-4.00,-3.00,-17.00,+0.00,-2.00,-3.00
+21.00,-41.00,+2.00,+0.00,+1.00,-2.00,-1.00,+3.00,-39.00,-18.00,-1.00,+0.00,+0.00,+0.00,+1.00,-1.00
+6.00,-8.00,+0.00,+2.00,+11.00,-4.00,+0.00,+0.00,+18.00,+12.00,+0.00,+3.00,+22.00,+2.00,-2.00,-1.00
-22.00,-59.00,-2.00,-1.00,-9.00,-1.00,-1.00,-3.00,+7.00,+10.00,+3.00,-1.00,-17.00,+0.00,+0.00,+6.00
+7.00,+69.00,-1.00,-3.00,+4.00,-6.00,-2.00,-1.00,+13.00,-2.00,-3.00,-4.00,+15.00,-3.00,+1.00,-3.00
+1.00,-33.00,-2.00,+1.00,-8.00,+5.00,-1.00,+0.00,-4.00,+4.00,+0.00,+0.00,-20.00,-3.00,-2.00,-2.00
+1.00,+6.00,+2.00,+0.00,-1.00,+1.00,+3.00,+5.00,-8.00,-13.00,-1.00,+10.00,+18.00,+3.00,+1.00,-3.00
+10.00,-11.00,-1.00,-2.00,+12.00,-3.00,-2.00,-2.00,+0.00,-2.00,+1.00,+8.00,-5.00,-2.00,+1.00,+5.00
-7.00,+13.00,-2.00,+0.00,-12.00,+4.00,+0.00,-2.00,-29.00,-3.00,-1.00,-16.00,+6.00,+0.00,-1.00,-6.00
-11.00,-5.00,-5.00,-3.00,+13.00,+0.00,-2.00,-4.00,+18.00,+10.00,-2.00,-7.00,-28.00,-5.00,-3.00,+8.00
+15.00,+35.00,+1.00,-2.00,-7.00,-1.00,-2.00,-2.00,-17.00,-11.00,+0.00,-2.00,+34.00,+0.00,-1.00,-4.00
+2.00,+9.00,+2.00,-5.00,-22.00,-8.00,-2.00,+0.00,-46.00,-3.00,-6.00,+1.00,+4.00,-1.00,-5.00,-12.00
-11.00,-51.00,-4.00,-1.00,-7.00,-1.00,+4.00,-3.00,+13.00,+1.00,+3.00,+6.00,-12.00,-1.00,-1.00,-1.00
-4.00,+18.00,+1.00,+1.00,+12.00,-2.00,-5.00,+1.00,+7.00,-1.00,-4.00,-2.00,-26.00,-2.00,+1.00,+1.00
-12.00,+8.00,-4.00,+1.00,+6.00,+3.00,-3.00,-3.00,-2.00,-3.00,-3.00,-10.00,+19.00,+0.00,+0.00,+2.00
+9.00,+69.00,+2.00,-3.00,-12.00,-21.00,-4.00,+1.00,+7.00,+4.00,+1.00,+21.00,+52.00,-1.00,+0.00,-2.00
+0.00,-49.00,-4.00,-2.00,-11.00,+7.00,+2.00,-3.00,-43.00,-9.00,-2.00,-12.00,-29.00,+0.00,-2.00,-5.00
-10.00,-8.00,+0.00,-3.00,-16.00,-6.00,+0.00,-3.00,+9.00,-8.00,-2.00,-2.00,-1.00,+0.00,-3.00,-3.00
-3.00,-25.00,-1.00,+2.00,+30.00,+14.00,+2.00,+0.00,+42.00,-3.00,+0.00,-2.00,-41.00,-4.00,-2.00,-3.00
+15.00,+14.00,+1.00,+3.00,-15.00,-1.00,+1.00,+2.00,-32.00,+13.00,-2.00,+8.00,-11.00,-2.00,-4.00,-6.00
-19.00,-28.00,-5.00,-1.00,+6.00,-8.00,-2.00,-3.00,+2.00,-4.00,-3.00,-19.00,+33.00,+4.00,-3.00,-5.00
+16.00,+20.00,-4.00,+0.00,+18.00,+4.00,-3.00,-7.00,+6.00,+25.00,-1.00,+41.00,+75.00,+0.00,+0.00,+13.00
-14.00,-19.00,-1.00,-4.00,-10.00,+2.00,-2.00,+0.00,-16.00,-57.00,+2.00,-24.00,-83.00,-2.00,-1.00,-1.00
-8.00,-43.00,-2.00,+0.00,+3.00,-5.00,+0.00,+0.00,-7.00,+7.00,-6.00,-52.00,-6.00,+1.00,+4.00,+2.00
+3.00,+51.00,+1.00,-3.00,-13.00,-2.00,-2.00,+1.00,+1.00,-25.00,+2.00,+36.00,-13.00,-5.00,+2.00,+10.00
-22.00,-56.00,+3.00,+2.00,+5.00,-6.00,+1.00,+2.00,-16.00,+42.00,-5.00,-47.00,+10.00,+4.00,-4.00,-13.00
+1.00,+19.00,-7.00,-4.00,+1.00,-5.00,-2.00,-4.00,+40.00,+2.00,-6.00,-10.00,+34.00,-4.00,-3.00,+3.00
-2.00,-18.00,+2.00,+1.00,+22.00,+11.00,+0.00,-1.00,-33.00,-10.00,+2.00,+33.00,-54.00,-3.00,+0.00,+0.00
+14.00,-66.00,-7.00,-6.00,-28.00,-7.00,-6.00,-6.00,+4.00,+15.00,+1.00,-14.00,-8.00,+0.00,+0.00,-8.00
+29.00,+116.00,+3.00,-6.00,-2.00,-19.00,-3.00,+3.00,+18.00,-28.00,-5.00,-8.00,+16.00,-2.00,-1.00,-3.00
-23.00,-55.00,-2.00,+6.00,-19.00,+1.00,+1.00,+0.00,-13.00,+24.00,+1.00,+15.00,-40.00,-3.00,-1.00,-1.00
-56.00,-34.00,-14.00,-6.00,-29.00,-5.00,-4.00,-5.00,+35.00,-3.00,+3.00,-8.00,+47.00,+0.00,-2.00,-1.00
+70.00,+62.00,+21.00,+16.00,+111.00,+31.00,+3.00,+16.00,-11.00,-15.00,-12.00,+16.00,+16.00,-1.00,-5.00,-9.00
+8.00,-47.00,-4.00,+3.00,+54.00,+25.00,+9.00,-2.00,-43.00,+5.00,+15.00,+20.00,-68.00,+3.00,+2.00,+5.00
-39.00,-86.00,-14.00,-10.00,-71.00,-36.00,-15.00,-11.00,-21.00,+6.00,-2.00,+36.00,+91.00,+0.00,-5.00,-4.00
+17.00,+24.00,+15.00,+10.00,+58.00,+32.00,+0.00,+1.00,-32.00,-34.00,+11.00,+20.00,+71.00,+2.00,+16.00,+18.00
-24.00,-25.00,-9.00,-12.00,-61.00,-9.00,-1.00,-2.00,-29.00,+13.00,+3.00,-69.00,-49.00,-4.00,-14.00,-4.00
-17.00,+13.00,+1.00,+3.00,-5.00,+7.00,-1.00,+2.00,+44.00,-35.00,-14.00,-28.00,+36.00,+7.00,-12.00,-20.00
+29.00,+50.00,+1.00,+0.00,+18.00,-10.00,+3.00,-1.00,-104.00,+82.00,+9.00,-21.00,-27.00,-4.00,+4.00,+7.00
-17.00,-24.00,-8.00,-5.00,-19.00,-1.00,-2.00,-8.00,-24.00,-81.00,+0.00,+23.00,+12.00,-1.00,-1.00,+6.00
-12.00,-7.00,-7.00,-4.00,-14.00,-12.00,-6.00,-4.00,+30.00,+57.00,-1.00,+63.00,-4.00,+6.00,+0.00,-5.00
-22.00,-62.00,-8.00,-8.00,-37.00,-14.00,-1.00,-1.00,+11.00,-47.00,-3.00,-10.00,+63.00,-1.00,-4.00,+3.00
+27.00,+57.00,+10.00,-5.00,-26.00,+4.00,-1.00,+6.00,-11.00,+14.00,+4.00,-35.00,-53.00,-9.00,+20.00,-15.00
-11.00,-28.00,-21.00,-10.00,+7.00,-27.00,-3.00,-11.00,+60.00,+80.00,-2.00,-23.00,-32.00,-4.00,-8.00,-13.00
+9.00,-59.00,+31.00,+4.00,-39.00,-7.00,+2.00,+8.00,-61.00,-52.00,-7.00,-31.00,-43.00,-4.00,+3.00,-10.00
+67.00,+102.00,+42.00,+17.00,-42.00,+38.00,+9.00,+55.00,+65.00,-53.00,-17.00,+14.00,-55.00,-10.00,-6.00,+7.00
-4.00,+11.00,-23.00,+8.00,+85.00,+20.00,+2.00,-4.00,+29.00,-59.00,-6.00,+42.00,-3.00,-1.00,-4.00,+0.00
+2.00,-70.00,+18.00,+11.00,+14.00,+9.00,+2.00,+7.00,+22.00,+39.00,+13.00,-19.00,+56.00,-2.00,+0.00,+9.00
+9.00,+77.00,-12.00,-1.00,+22.00,-1.00,+1.00,+7.00,-23.00,-93.00,-13.00,-1.00,-1.00,-7.00,-2.00,-8.00
-43.00,-62.00,-23.00,-21.00,-56.00,-42.00,-12.00,-25.00,+74.00,+43.00,-2.00,+11.00,+28.00,-4.00,-4.00,-8.00
-13.00,-94.00,+7.00,-7.00,-76.00,-19.00,+6.00,+0.00,-73.00,+31.00,+7.00,+9.00,+2.00,+9.00,+7.00,+18.00
+23.00,+70.00,+11.00,+17.00,+101.00,+30.00,-6.00,+10.00,+8.00,-51.00,-39.00,-29.00,-73.00,-4.00,-11.00,-26.00
-30.00,+13.00,-18.00,-4.00,+5.00,+5.00,+8.00,-12.00,+84.00,+127.00,+34.00,+27.00,+27.00,+2.00,-1.00,+10.00
+23.00,-14.00,-1.00,+0.00,-15.00,+9.00,-15.00,-2.00,-68.00,-88.00,-17.00,-12.00,+9.00,-1.00,-4.00,-31.00
+39.00,+101.00,+2.00,+2.00,+53.00,+20.00,+3.00,+1.00,+2.00,-40.00,+10.00,-15.00,-24.00,+5.00,+6.00,+17.00
-100.00,-104.00,-25.00,-13.00,-46.00,-17.00,-5.00,-25.00,+37.00,+43.00,+0.00,+24.00,-7.00,+2.00,-5.00,+7.00
+61.00,-94.00,+13.00,+7.00,-20.00,-4.00,+7.00,+18.00,-57.00,-52.00,-4.00,-11.00,+46.00,+2.00,+7.00,+9.00
-17.00,-32.00,+2.00,-1.00,+24.00,-2.00,-1.00,-9.00,+35.00,+59.00,-3.00,+4.00,-1.00,-2.00,+0.00,+6.00
-40.00,-87.00,-12.00,-9.00,-17.00,+1.00,-7.00,-5.00,-51.00,-70.00,-9.00,-9.00,-71.00,-5.00,-16.00,-32.00
+82.00,-1.00,+26.00,+6.00,-40.00,+0.00,+11.00,+30.00,+42.00,-111.00,-17.00,-22.00,+16.00,+1.00,+4.00,+13.00
-83.00,-78.00,-35.00,-7.00,+9.00,+4.00,-8.00,-19.00,+17.00,+88.00,+7.00,+15.00,+4.00,+1.00,+2.00,+8.00
+28.00,-7.00,+28.00,+7.00,+3.00,-5.00,+5.00,+14.00,-100.00,-71.00,-4.00,-9.00,-30.00,+0.00,+3.00,-1.00
-2.00,+17.00,-20.00,-10.00,-19.00,-18.00,-9.00,-17.00,+1.00,+75.00,+5.00,-13.00,+55.00,+5.00,-7.00,+0.00
+52.00,+116.00,+15.00,+0.00,+0.00,+17.00,+4.00,+4.00,-37.00,-52.00,-5.00,+20.00,+15.00,-1.00,-3.00,-11.00
-42.00,-85.00,-10.00,+2.00,-1.00,-1.00,-6.00,-1.00,-33.00,-124.00,-17.00,-34.00,-20.00,-6.00,-6.00,-8.00
+14.00,+68.00,-19.00,-5.00,+21.00,-6.00,-1.00,-8.00,-8.00,+37.00,+9.00,+26.00,-22.00,+2.00,+5.00,+18.00
-60.00,-119.00,-10.00,+0.00,+4.00,-1.00,+1.00,-5.00,-44.00,+11.00,-17.00,-9.00,-9.00,-9.00,-13.00,-31.00
+15.00,+74.00,-19.00,-14.00,-29.00,+3.00,-9.00,-10.00,-59.00,+68.00,+31.00,+7.00,+0.00,+5.00,+7.00,+16.00
-61.00,-43.00,+2.00,+1.00,+57.00,+6.00,-3.00,-14.00,+67.00,-70.00,-5.00,+27.00,-9.00,+4.00,+3.00,+10.00
-18.00,+6.00,-11.00,+1.00,+3.00,+0.00,+4.00,-11.00,+38.00,+107.00,+3.00,-23.00,+8.00,-4.00,-3.00,-5.00
+51.00,+50.00,+21.00,+3.00,+5.00,+12.00,+2.00,+12.00,+7.00,+26.00,+7.00,+0.00,-42.00,-6.00,+2.00,+19.00
-6.00,+42.00,-21.00,-3.00,-32.00,-28.00,-2.00,-2.00,+92.00,-81.00,-59.00,+3.00,-75.00,-4.00,-5.00,+7.00
+24.00,+5.00,+2.00,-4.00,-30.00,-12.00,-6.00,-1.00,-38.00,+127.00,+79.00,+4.00,+60.00,+5.00,+7.00,+4.00
-20.00,-4.00,-30.00,-7.00,+11.00,+15.00,-1.00,-15.00,+23.00,+1.00,+6.00,+0.00,-21.00,-3.00,+0.00,-5.00
-38.00,+4.00,+12.00,+0.00,+0.00,+3.00,-5.00,-10.00,-32.00,-53.00,-14.00,-9.00,+59.00,+5.00,-2.00,+0.00
-4.00,-99.00,-20.00,-1.00,+18.00,+2.00,+2.00,-5.00,+53.00,+20.00,-2.00,+2.00,+23.00,+0.00,-2.00,+4.00
+96.00,+126.00,+34.00,+4.00,-6.00,-1.00,+10.00,+40.00,-38.00,-5.00,-23.00,+4.00,-19.00,-1.00,-1.00,-16.00
-1.00,+66.00,+26.00,-1.00,-54.00,-32.00,-6.00,-8.00,+34.00,+87.00,-3.00,-9.00,-7.00,-1.00,+4.00,+11.00
+35.00,+26.00,-21.00,-8.00,+9.00,-7.00,-8.00,+2.00,-65.00,-57.00,+14.00,+15.00,+42.00,-9.00,-6.00,-18.00
-65.00,-69.00,+27.00,+10.00,+11.00,+38.00,+5.00,-1.00,+58.00,-43.00,-25.00,-5.00,-12.00,-1.00,-10.00,-19.00
-38.00,+1.00,+2.00,-9.00,-6.00,-30.00,-1.00,-27.00,+55.00,+38.00,-9.00,-10.00,-9.00,-3.00,+2.00,+18.00
+3.00,-32.00,+9.00,+17.00,+23.00,+40.00,+3.00,+24.00,-126.00,-90.00,+6.00,+6.00,+2.00,+1.00,-7.00,-37.00
-7.00,-48.00,-12.00,+3.00,+19.00,+8.00,+3.00,-3.00,+127.00,+112.00,+37.00,+28.00,+18.00,+2.00,+4.00,+16.00
-1.00,+30.00,+3.00,-12.00,-36.00,-17.00,+3.00,-3.00,-114.00,-99.00,-2.00,-12.00,+9.00,+3.00,+1.00,-13.00
+4.00,+52.00,-15.00,+1.00,+24.00,-5.00,-12.00,-5.00,+67.00,+2.00,-37.00,-35.00,-78.00,-15.00,-10.00,+4.00
+56.00,+54.00,+29.00,-6.00,-4.00,-6.00,+2.00,+4.00,-38.00,+47.00,+44.00,+38.00,+81.00,+6.00,+8.00,+7.00
+45.00,-23.00,+26.00,+3.00,-9.00,-4.00,+4.00,+5.00,+16.00,-78.00,-50.00,-26.00,+15.00,-3.00,-7.00,-12.00
-46.00,-8.00,-40.00,-2.00,+17.00,+3.00,-2.00,-7.00,+39.00,+124.00,+63.00,+5.00,-30.00,+1.00,+11.00,+15.00
+36.00,-87.00,-1.00,-8.00,-32.00,-6.00,-2.00,-10.00,+39.00,+110.00,-30.00,+11.00,+34.00,-3.00,+7.00,-9.00
+24.00,+6.00,+61.00,+26.00,+20.00,+9.00,+9.00,+12.00,-40.00,-107.00,+16.00,-2.00,-41.00,+11.00,-6.00,-5.00
+2.00,-13.00,-45.00,-12.00,+4.00,-14.00,-5.00,-6.00,+5.00,+76.00,+8.00,+6.00,-19.00,-4.00,-3.00,-5.00
-39.00,-107.00,+28.00,+5.00,-21.00,-13.00,-1.00,-3.00,-13.00,+26.00,+11.00,+0.00,+22.00,+0.00,-6.00,-8.00
+59.00,-11.00,+3.00,+0.00,-18.00,+20.00,+5.00,+15.00,-10.00,-96.00,-11.00,+2.00,-5.00,+2.00,+0.00,-3.00
-89.00,-8.00,-52.00,-12.00,+67.00,+5.00,-9.00,-30.00,-22.00,-20.00,-36.00,-12.00,-1.00,-4.00,+9.00,+6.00
+77.00,+41.00,+67.00,+24.00,+16.00,+7.00,+15.00,+32.00,-39.00,+84.00,+23.00,+5.00,-3.00,+7.00,-1.00,-8.00
+97.00,-44.00,-12.00,-3.00,-38.00,-4.00,+1.00,+8.00,-72.00,-75.00,+6.00,-10.00,-10.00,-9.00,-6.00,-26.00
-17.00,+127.00,+6.00,+5.00,+14.00,+1.00,-4.00,-7.00,-93.00,-128.00,-19.00,+14.00,+12.00,+7.00,+2.00,-20.00
-81.00,-56.00,-56.00,-23.00,-6.00,-14.00,-8.00,-31.00,+16.00,-29.00,-15.00,-12.00,-2.00,-9.00,-8.00,+19.00
+102.00,+94.00,+92.00,+40.00,+9.00,+23.00,+18.00,+60.00,-64.00,-64.00,+4.00,-8.00,-8.00,-8.00,-11.00,-22.00
-30.00,-16.00,-11.00,-8.00,+9.00,-12.00,-25.00,-8.00,-27.00,+105.00,-2.00,-6.00,-3.00,-1.00,+7.00,+16.00
+1.00,-22.00,-4.00,+0.00,+5.00,+11.00,+16.00,+6.00,-10.00,-66.00,+1.00,+5.00,+18.00,+0.00,-2.00,-1.00
+46.00,+37.00,-11.00,-19.00,-34.00,-32.00,-24.00,-21.00,+91.00,-86.00,-53.00,-6.00,-22.00,-6.00,-8.00,+19.00
-115.00,-92.00,-19.00,-9.00,-3.00,+3.00,-4.00,-30.00,-62.00,+58.00,-27.00,-20.00,-25.00,-10.00,-9.00,-40.00
+103.00,+110.00,+9.00,+5.00,+0.00,-7.00,+2.00,+22.00,+92.00,-58.00,+14.00,-10.00,-16.00,-1.00,+11.00,+10.00
-128.00,-105.00,-10.00,+2.00,+12.00,+7.00,-1.00,-7.00,-57.00,-48.00,+1.00,-10.00,+36.00,-4.00,-34.00,+11.00
+79.00,+39.00,+79.00,+25.00,+13.00,+2.00,+22.00,+51.00,-59.00,+123.00,+30.00,+2.00,-25.00,-1.00,-1.00,-18.00
-97.00,+91.00,-53.00,-32.00,-38.00,-15.00,-33.00,-55.00,+22.00,-128.00,+8.00,+9.00,-5.00,-5.00,-3.00,-11.00
-33.00,-38.00,-26.00,+4.00,+14.00,+5.00,+6.00,+5.00,-41.00,+58.00,+15.00,+4.00,+18.00,-8.00,-1.00,+18.00
+49.00,+19.00,+51.00,+10.00,+11.00,+3.00,+6.00,+17.00,-66.00,+124.00,+21.00,+0.00,-9.00,+2.00,+15.00,+4.00
-21.00,+24.00,-22.00,-4.00,-14.00,-5.00,+0.00,-3.00,-62.00,-75.00,-25.00,-13.00,-25.00,-13.00,-17.00,-35.00
-22.00,-44.00,-43.00,-22.00,-40.00,-15.00,-6.00,-13.00,-6.00,-78.00,-3.00,+0.00,-25.00,+8.00,+1.00,+12.00
-89.00,+60.00,+11.00,-2.00,+46.00,+8.00,+0.00,-24.00,-88.00,-22.00,-27.00,-6.00,+53.00,+6.00,+1.00,-11.00
+54.00,+127.00,-6.00,+7.00,+29.00,+3.00,+5.00,+4.00,+33.00,-32.00,-26.00,+3.00,+4.00,-10.00,+4.00,+1.00
-43.00,-44.00,-24.00,-6.00,+8.00,+12.00,-9.00,-3.00,-22.00,+118.00,+41.00,-2.00,-11.00,+0.00,-12.00,-16.00
+70.00,-56.00,-20.00,+4.00,+13.00,-6.00,-1.00,+8.00,+102.00,-92.00,-28.00,-9.00,+1.00,-5.00,-7.00,+21.00
-3.00,-93.00,-11.00,-12.00,-7.00,+4.00,+6.00,+3.00,+31.00,+61.00,-28.00,+8.00,-7.00,+4.00,-3.00,+1.00
-77.00,+4.00,-29.00,-14.00,-37.00,-23.00,-21.00,-34.00,+70.00,-26.00,-24.00,-3.00,-20.00,+2.00,+1.00,+1.00
+76.00,-51.00,+10.00,+5.00,-6.00,+6.00,+9.00,+13.00,+91.00,+22.00,+13.00,-19.00,-7.00,-1.00,+6.00,-8.00
-48.00,-53.00,-69.00,-22.00,-5.00,-14.00,-8.00,-43.00,+83.00,-29.00,-34.00,-21.00,-27.00,-7.00,+9.00,+25.00
+5.00,+112.00,+25.00,+6.00,-12.00,-11.00,+1.00,+8.00,+25.00,+4.00,-38.00,-10.00,-10.00,+0.00,-31.00,+8.00
+19.00,-90.00,+41.00,+18.00,+31.00,+13.00,+11.00,+11.00,-83.00,+6.00,+53.00,+16.00,+12.00,+7.00,+3.00,-1.00
+21.00,-47.00,-8.00,-10.00,-21.00,-10.00,-14.00,-10.00,-36.00,-85.00,-19.00,+2.00,+4.00,-3.00,+4.00,+6.00
-65.00,-58.00,-9.00,+5.00,-9.00,+12.00,+6.00,-2.00,-42.00,+55.00,+52.00,+19.00,+7.00,+12.00,+3.00,+10.00
+46.00,-85.00,+3.00,-5.00,-3.00,+2.00,-8.00,-3.00,-5.00,-128.00,-37.00,-16.00,-29.00,-5.00,-3.00,-32.00
-12.00,-78.00,+25.00,+9.00,-1.00,-18.00,-2.00,+22.00,+96.00,+73.00,+1.00,+8.00,+9.00,+2.00,+13.00,+38.00
-16.00,+107.00,-6.00,-9.00,-16.00,-18.00,+37.00,-6.00,+35.00,-94.00,-14.00,-6.00,+2.00,+0.00,-5.00,+18.00
+3.00,-91.00,+1.00,+6.00,-6.00,+22.00,-9.00,+9.00,+97.00,+54.00,-11.00,+5.00,+13.00,+1.00,+9.00,+42.00
-19.00,+35.00,+15.00,+3.00,+47.00,+33.00,+6.00,-17.00,-4.00,+12.00,-21.00,-2.00,-5.00,-7.00,-3.00,-4.00
+28.00,+28.00,-63.00,-25.00,-28.00,-6.00,-15.00,-35.00,+25.00,-3.00,+30.00,+2.00,+30.00,+14.00,+14.00,+42.00
+65.00,-57.00,+20.00,+13.00,+22.00,+7.00,+0.00,+25.00,-128.00,-104.00,+12.00,+7.00,-20.00,-2.00,+2.00,-29.00
+4.00,+70.00,+15.00,-5.00,-14.00,-22.00,-5.00,+1.00,+59.00,+1.00,-44.00,-16.00,+8.00,-1.00,-3.00,+12.00
-12.00,+25.00,+8.00,+3.00,-15.00,-13.00,-1.00,+15.00,-13.00,-16.00,+11.00,+28.00,-50.00,-3.00,+5.00,-11.00
+9.00,-81.00,-48.00,-23.00,-28.00,-11.00,-11.00,-17.00,-34.00,-6.00,+8.00,-34.00,+49.00,-2.00,-9.00,-34.00
-113.00,-44.00,+0.00,+10.00,+16.00,+14.00,-29.00,+2.00,+51.00,-28.00,-25.00,+0.00,+21.00,+1.00,-3.00,+18.00
-13.00,-29.00,-15.00,-14.00,-12.00,-14.00,+4.00,-31.00,+25.00,+79.00,+15.00,+11.00,+28.00,+3.00,+8.00,+4.00
-28.00,+5.00,-20.00,-1.00,+6.00,-6.00,-3.00,+4.00,+60.00,-13.00,+14.00,-2.00,-8.00,-4.00,+1.00,-8.00
+18.00,+17.00,-12.00,-11.00,-19.00,-10.00,+3.00,-7.00,+32.00,-39.00,-39.00,-3.00,-20.00,+2.00,-16.00,+14.00
-60.00,-88.00,-70.00,-17.00,-35.00,-21.00,-15.00,-25.00,+10.00,+73.00,+16.00,-3.00,-5.00,-5.00,+12.00,+4.00
+37.00,+33.00,+18.00,+4.00,+12.00,+12.00,+8.00,+6.00,-75.00,-11.00,+16.00,+6.00,+4.00,+3.00,-4.00,-24.00
-39.00,+24.00,-23.00,-7.00,-8.00,-20.00,-5.00,-6.00,+71.00,+92.00,+34.00,+3.00,+25.00,-3.00,-2.00,+22.00
-73.00,+42.00,+20.00,+6.00,+11.00,+15.00,+2.00,+4.00,-13.00,-31.00,-13.00,+4.00,-38.00,-4.00,+10.00,+2.00
-18.00,+30.00,+3.00,-7.00,-36.00,+0.00,-9.00,-8.00,-10.00,-48.00,-49.00,-13.00,+9.00,-1.00,-6.00,-8.00
-16.00,+54.00,+72.00,+17.00,+31.00,+5.00,+1.00,+19.00,+90.00,-29.00,+22.00,+6.00,-4.00,-4.00,-2.00,+42.00
+63.00,+24.00,+21.00,+12.00,+5.00,+12.00,+19.00,+31.00,-125.00,-64.00,+1.00,-4.00,+13.00,+4.00,+7.00,-12.00
+16.00,-92.00,+4.00,-5.00,-3.00,-12.00,-14.00,-13.00,-81.00,+30.00,+28.00,+17.00,-13.00,-5.00,-8.00,-30.00
-37.00,+61.00,-11.00,-8.00,-2.00,-4.00,+1.00,-22.00,-6.00,+127.00,+38.00,+3.00,+10.00,+3.00,+2.00,+21.00
-48.00,+56.00,-24.00,-13.00,-13.00,-12.00,+3.00,-5.00,-80.00,-45.00,-43.00,+8.00,+30.00,+2.00,+0.00,-5.00
+32.00,-18.00,+27.00,+6.00,-2.00,-10.00,-5.00,+8.00,+19.00,+53.00,+14.00,-10.00,-39.00,-1.00,+1.00,-12.00
-7.00,+78.00,+5.00,+0.00,+2.00,+18.00,+12.00,+13.00,+13.00,+48.00,+26.00,-4.00,-18.00,-7.00,-5.00,-21.00
-9.00,-55.00,+27.00,+17.00,+14.00,+2.00,+13.00,+28.00,+2.00,+46.00,+5.00,+9.00,+24.00,+3.00,+3.00,+5.00
+52.00,+49.00,+33.00,+8.00,+1.00,-2.00,-6.00,+4.00,-70.00,-4.00,-10.00,+16.00,-7.00,+1.00,+5.00,-26.00
-41.00,-4.00,-23.00,-11.00,-11.00,-8.00,-6.00,-20.00,+96.00,-17.00,+4.00,-18.00,+17.00,-1.00,-2.00,+17.00
+61.00,-10.00,+23.00,+13.00,+16.00,+8.00,+11.00,+38.00,+16.00,-5.00,-47.00,-4.00,-28.00,-8.00,-15.00,-8.00
-29.00,-85.00,-34.00,-20.00,-17.00,-19.00,-6.00,-27.00,+55.00,-10.00,-16.00,-8.00,-9.00,-4.00,+30.00,+0.00
+31.00,+48.00,-5.00,+1.00,+12.00,+18.00,+4.00,+13.00,-90.00,-22.00,-16.00,-16.00,-15.00,+1.00,-10.00,-21.00
+29.00,+13.00,-8.00,-2.00,-14.00,-17.00,+5.00,-5.00,-128.00,-90.00,-2.00,+2.00,+38.00,-1.00,-4.00,-24.00
-61.00,-54.00,-9.00,+0.00,-21.00,+11.00,-2.00,-13.00,-89.00,-85.00,+10.00,+3.00,-7.00,+0.00,+7.00,-16.00
-29.00,-49.00,-16.00,+1.00,+32.00,+15.00,+8.00,+7.00,+41.00,-38.00,-14.00,+9.00,-12.00,+4.00,-14.00,+5.00
+35.00,-46.00,+40.00,+12.00,+12.00,+10.00,+16.00,+19.00,-1.00,-48.00,+2.00,-6.00,+5.00,-6.00,-6.00,+6.00
+57.00,+15.00,+15.00,+5.00,-5.00,-7.00,-6.00,+8.00,+5.00,+72.00,+19.00,+10.00,+19.00,-1.00,-9.00,-9.00
-34.00,+43.00,-28.00,-18.00,-14.00,-9.00,-10.00,-17.00,+35.00,-56.00,-2.00,-1.00,-29.00,+2.00,+2.00,+33.00
-29.00,+28.00,-13.00,-14.00,-10.00,+4.00,-7.00,-16.00,+17.00,-52.00,+40.00,+1.00,+11.00,+0.00,-6.00,-3.00
-24.00,-66.00,-7.00,+0.00,-1.00,-3.00,+3.00,-7.00,-106.00,-74.00,+7.00,-5.00,-16.00,+5.00,+4.00,-28.00
+2.00,+31.00,-25.00,-14.00,-20.00,-1.00,-15.00,-19.00,+42.00,+4.00,+28.00,+10.00,+5.00,+2.00,+13.00,+41.00
+40.00,-32.00,+23.00,+14.00,+7.00,-15.00,+4.00,+13.00,-42.00,-80.00,-28.00,-9.00,+0.00,+0.00,-6.00,-25.00
+34.00,+45.00,+8.00,+11.00,-11.00,-12.00,+3.00,+12.00,+40.00,+82.00,+0.00,+12.00,+10.00,-4.00,+18.00,+33.00
+89.00,+105.00,+59.00,+22.00,+45.00,+45.00,+12.00,+42.00,-18.00,+29.00,+33.00,+17.00,+7.00,+6.00,+3.00,-10.00
-19.00,+25.00,+11.00,-4.00,+2.00,-2.00,-4.00,-17.00,-100.00,-83.00,-13.00,-12.00,-14.00,-6.00,-9.00,-17.00
-60.00,-14.00,-32.00,-22.00,-6.00,+1.00,-12.00,-27.00,-95.00,-58.00,-18.00,-31.00,-24.00,-9.00,-9.00,-17.00
+70.00,-79.00,-3.00,-5.00,-21.00,-1.00,+9.00,+10.00,-32.00,+29.00,+3.00,+12.00,-2.00,+5.00,+10.00,+17.00
+2.00,-37.00,-42.00,+1.00,+4.00,-11.00,-6.00,-2.00,+24.00,-92.00,-35.00,-22.00,+0.00,-9.00,-17.00,-10.00
-22.00,-47.00,+4.00,+14.00,+22.00,+9.00,+5.00,+5.00,-53.00,+48.00,+17.00,+11.00,+26.00,+7.00,+5.00,+0.00
+95.00,+127.00,+37.00,+7.00,+15.00,+12.00,+7.00,+33.00,+2.00,+12.00,-8.00,+4.00,-41.00,-1.00,+3.00,-22.00
-113.00,-79.00,-9.00,-4.00,-7.00,-17.00,-10.00,-25.00,+0.00,-67.00,-8.00,-18.00,+4.00,-4.00,-18.00,+0.00
+62.00,+96.00,+1.00,-5.00,-10.00,-13.00,+4.00,+16.00,+33.00,-7.00,+6.00,+5.00,-16.00,-3.00,+0.00,+7.00
+8.00,-12.00,-28.00,-9.00,-25.00,-2.00,-11.00,-13.00,-33.00,+71.00,+22.00,-2.00,+27.00,-2.00,+0.00,+0.00
-22.00,-14.00,-8.00,+0.00,+5.00,-14.00,-7.00,-22.00,+3.00,-37.00,-18.00,+3.00,+41.00,-4.00,-6.00,+7.00
-84.00,+29.00,-5.00,+0.00,+29.00,+27.00,+4.00,-22.00,+24.00,+44.00,+24.00,+9.00,+3.00,+2.00,-7.00,+7.00
-17.00,-64.00,+28.00,+23.00,+20.00,+8.00,-7.00,+29.00,-88.00,-84.00,-13.00,-10.00,-42.00,-2.00,+36.00,-2.00
-54.00,-100.00,-78.00,-33.00,-24.00,-20.00,-11.00,-45.00,-72.00,+79.00,-14.00,-5.00,+33.00,+2.00,+0.00,-25.00
-2.00,-107.00,-2.00,+1.00,-18.00,-7.00,-5.00,-2.00,+31.00,+13.00,+28.00,+3.00,-26.00,-3.00,+8.00,+2.00
+11.00,-91.00,-19.00,+11.00,-2.00,-5.00,-5.00,-7.00,-116.00,-80.00,-1.00,-1.00,+4.00,+5.00,-9.00,-8.00
-89.00,-116.00,-40.00,-26.00,-15.00,-11.00,-16.00,-40.00,-20.00,+69.00,+41.00,+10.00,+13.00,-5.00,-2.00,+0.00
-26.00,-34.00,+24.00,+14.00,-14.00,-15.00,+34.00,+17.00,+106.00,-79.00,+21.00,+10.00,-36.00,+2.00,-27.00,+17.00
+20.00,-91.00,-29.00,-8.00,+5.00,+8.00,-1.00,+8.00,+23.00,-45.00,-7.00,-9.00,+30.00,+0.00,+12.00,+17.00
+90.00,+42.00,+29.00,-7.00,+15.00,+9.00,+2.00,+23.00,-109.00,+2.00,+11.00,-4.00,-18.00,+0.00,-4.00,-20.00
+10.00,+42.00,-4.00,-1.00,-8.00,-5.00,+0.00,-3.00,+46.00,+127.00,-18.00,-10.00,-7.00,-5.00,-10.00,-3.00
+20.00,+38.00,+29.00,+5.00,+11.00,+7.00,+2.00,-4.00,-5.00,+100.00,-1.00,-9.00,-6.00,+1.00,+13.00,+0.00
+5.00,-37.00,+13.00,+20.00,+24.00,+0.00,+8.00,+15.00,-52.00,-13.00,+12.00,+5.00,+13.00,-2.00,-19.00,-21.00
+12.00,+39.00,+20.00,+7.00,+4.00,+3.00,+4.00,+1.00,-66.00,-49.00,+16.00,+8.00,-1.00,+2.00,+7.00,+5.00
+10.00,-87.00,+9.00,+14.00,+14.00,+3.00,+6.00,+12.00,-1.00,-59.00,-21.00,-10.00,+7.00,-6.00,-14.00,-12.00
-21.00,-56.00,-15.00,-8.00,-6.00,+2.00,-7.00,-3.00,-9.00,+73.00,+32.00,+14.00,-19.00,+6.00,+14.00,+25.00
-35.00,-22.00,-6.00,-17.00,-8.00,-6.00,-6.00,-11.00,+22.00,-31.00,-7.00,-1.00,-2.00,-1.00,-4.00,+0.00
+26.00,+6.00,-2.00,+8.00,+4.00,-8.00,-1.00,+18.00,-30.00,-34.00,-18.00,-10.00,-3.00,-7.00,-7.00,-22.00
-39.00,+8.00,-25.00,-18.00,-18.00,-11.00,-7.00,-20.00,+59.00,-37.00,+7.00,+10.00,-16.00,+2.00,+4.00,+26.00
-63.00,-88.00,-2.00,-2.00,-11.00,-1.00,-6.00,+0.00,-48.00,-14.00,-18.00,-16.00,-5.00,-7.00,-17.00,-24.00
+17.00,-15.00,-3.00,+16.00,+13.00,+20.00,+15.00,+9.00,+24.00,+88.00,+9.00,-2.00,+4.00,+1.00,+4.00,+16.00
+10.00,-59.00,-32.00,-14.00,-5.00,-6.00,-1.00,-13.00,-79.00,+48.00,-11.00,+0.00,+21.00,+0.00,+1.00,-2.00
-49.00,-11.00,+36.00,+13.00,+3.00,+2.00,-1.00,+5.00,+121.00,+84.00,-9.00,+5.00,-9.00,-2.00,-6.00,+15.00
-17.00,+17.00,+21.00,+1.00,-4.00,-3.00,-4.00,+1.00,+12.00,+22.00,-11.00,-8.00,-20.00,-6.00,+10.00,+2.00
+39.00,+115.00,+9.00,+9.00,+13.00,+3.00,+4.00,+21.00,+40.00,+21.00,+18.00,+6.00,-3.00,+4.00,-18.00,+25.00
+20.00,+45.00,+0.00,-14.00,-16.00,-10.00,+1.00,+0.00,-6.00,+46.00,-41.00,+1.00,+21.00,-3.00,-14.00,-34.00
-21.00,-29.00,-19.00,-13.00,-13.00,+1.00,-3.00,-33.00,-103.00,+21.00,+39.00,-7.00,+9.00,+1.00,+2.00,+14.00
-2.00,+42.00,+8.00,+11.00,+46.00,+24.00,+3.00,+21.00,-4.00,-97.00,-18.00,-3.00,-8.00,-5.00,+2.00,+3.00
-53.00,+13.00,+34.00,+7.00,-8.00,-7.00,+1.00,-18.00,+60.00,-74.00,-1.00,-4.00,+16.00,-6.00,+10.00,+3.00
+26.00,+12.00,-21.00,+4.00,+6.00,+5.00,+1.00,+4.00,+13.00,+21.00,+5.00,+10.00,-41.00,+6.00,-10.00,+8.00
+19.00,-31.00,-2.00,-9.00,-2.00,-21.00,+5.00,+19.00,-39.00,+5.00,-7.00,-18.00,-21.00,+1.00,-8.00,-13.00
+3.00,+53.00,+10.00,-3.00,-24.00,+14.00,-6.00,-9.00,+53.00,+48.00,+4.00,+4.00,+31.00,-10.00,+0.00,+6.00
+50.00,+108.00,-9.00,-1.00,-6.00,-6.00,-8.00,-6.00,+7.00,+56.00,-1.00,+14.00,+20.00,-1.00,-1.00,-18.00
-58.00,-81.00,+22.00,+7.00,-8.00,-12.00,-2.00,-3.00,+7.00,-50.00,-12.00,-3.00,+3.00,-2.00,+4.00,+7.00
+3.00,-51.00,-36.00,-16.00,-8.00,-4.00,+6.00,-12.00,-28.00,-49.00,+15.00,+13.00,+2.00,+13.00,+16.00,-5.00
+65.00,-41.00,+28.00,+17.00,+16.00,+12.00,-6.00,+18.00,-73.00,-19.00,-35.00,-11.00,-14.00,-5.00,-10.00,-30.00
+19.00,-109.00,-44.00,-7.00,+3.00,-11.00,-1.00,+2.00,+2.00,-9.00,-4.00,-7.00,-51.00,-4.00,-4.00,+1.00
+25.00,+32.00,+0.00,-26.00,-25.00,+6.00,-10.00,-6.00,+113.00,+127.00,+33.00,-4.00,+46.00,+7.00,+6.00,+16.00
+8.00,-14.00,+25.00,+9.00,-4.00,-2.00,+8.00,+17.00,+69.00,+1.00,-29.00,-1.00,+6.00,-7.00,-1.00,-8.00
-16.00,-25.00,-1.00,+1.00,+17.00,-14.00,+2.00,-7.00,-30.00,-128.00,-19.00,-2.00,-3.00,+10.00,-4.00,+2.00
-60.00,-71.00,+7.00,+3.00,+1.00,+20.00,-25.00,-7.00,+9.00,-17.00,-14.00,+6.00,-5.00,-1.00,+5.00,+16.00
+18.00,+27.00,+25.00,+14.00,+10.00,+6.00,+40.00,+7.00,-30.00,+3.00,+38.00,+39.00,+34.00,-6.00,-15.00,-5.00
+15.00,+50.00,-12.00,-17.00,-29.00,-4.00,-5.00,-3.00,+84.00,+82.00,+2.00,-41.00,-36.00,+0.00,+18.00,+8.00
+49.00,+124.00,+28.00,-5.00,+17.00,+2.00,-9.00,+8.00,+84.00,+60.00,-5.00,-2.00,+5.00,-4.00,+4.00,+23.00
-84.00,-99.00,+6.00,+1.00,+4.00,+3.00,-6.00,-14.00,-50.00,-39.00,-12.00,+0.00,-8.00,+6.00,+4.00,-15.00
-9.00,-25.00,-14.00,-2.00,-2.00,-5.00,-16.00,-8.00,-120.00,-128.00,-24.00,-16.00,-27.00,-6.00,-4.00,-28.00
-13.00,+77.00,-5.00,-2.00,-6.00,-2.00,-2.00,-4.00,-104.00,+53.00,+19.00,+22.00,+28.00,+3.00,+0.00,-7.00
-19.00,-112.00,+2.00,+6.00,-8.00,-7.00,+12.00,+0.00,+7.00,-128.00,-34.00,+0.00,-7.00,+0.00,-1.00,+4.00
+95.00,+104.00,+13.00,-5.00,+0.00,-9.00,-44.00,+7.00,-29.00,-35.00,+3.00,-2.00,+10.00,-2.00,-4.00,+1.00
+13.00,-5.00,+7.00,+5.00,+18.00,+25.00,+82.00,+17.00,+76.00,+73.00,+11.00,-5.00,-11.00,+2.00,+7.00,+14.00
-9.00,+110.00,-5.00,-13.00,-7.00,-26.00,-11.00,-29.00,-42.00,-110.00,-21.00,+6.00,+24.00,-4.00,-9.00,-9.00
-1.00,-49.00,-12.00,-1.00,-40.00,-2.00,-10.00,+2.00,-99.00,-10.00,+3.00,-11.00,-29.00,-9.00,-8.00,-15.00
-26.00,-57.00,+0.00,+10.00,+61.00,+16.00,+23.00,+15.00,-8.00,-50.00,+1.00,+7.00,+3.00,+2.00,-4.00,-13.00
+56.00,-52.00,+22.00,+13.00,+0.00,-6.00,-20.00,+22.00,+5.00,-16.00,-5.00,-14.00,-12.00,-7.00,-8.00,-10.00
+8.00,-45.00,-5.00,+7.00,+3.00,+10.00,-10.00,-5.00,+33.00,+47.00,-1.00,+1.00,+15.00,+3.00,+1.00,+23.00
+36.00,+48.00,-10.00,-9.00,+11.00,+1.00,+8.00,+9.00,-13.00,+127.00,+66.00,+18.00,+3.00,+0.00,+3.00,+0.00
-21.00,-21.00,+31.00,-3.00,-4.00,+2.00,+10.00,-3.00,-27.00,+27.00,+17.00,+11.00,+51.00,-1.00,+5.00,-3.00
-71.00,+56.00,+2.00,-1.00,-4.00,-12.00,-34.00,-14.00,+80.00,-37.00,-12.00,-22.00,-51.00,-4.00,+6.00,+11.00
+16.00,+43.00,-13.00,+5.00,+0.00,-3.00,+15.00,+19.00,+0.00,-32.00,+2.00,-1.00,+5.00,-4.00,+7.00,+9.00
+7.00,-31.00,+15.00,-4.00,-34.00,-10.00,-11.00,-8.00,+28.00,+18.00,-31.00,-10.00,-16.00,+2.00,-18.00,-18.00
-34.00,-78.00,-31.00,-6.00,+13.00,+0.00,+10.00,-15.00,-102.00,+127.00,+27.00,+12.00,-9.00,+1.00,+6.00,+0.00
+36.00,+65.00,+24.00,+3.00,+16.00,+10.00,-9.00,+7.00,-7.00,+12.00,-23.00,-15.00,-10.00,-8.00,-3.00,-11.00
-91.00,-92.00,-43.00,-11.00,-11.00,-3.00,-20.00,-34.00,-25.00,-119.00,-33.00,-11.00,+49.00,-1.00,-5.00,-10.00
+10.00,+73.00,+3.00,-4.00,-10.00,-13.00,+15.00,-3.00,+18.00,+85.00,+15.00,+12.00,+1.00,+3.00,+0.00,-15.00
+20.00,+55.00,-23.00,-3.00,-33.00,-5.00,-15.00,-9.00,+85.00,-10.00,-19.00,-24.00,-20.00,-3.00,-2.00,+18.00
+22.00,-72.00,+22.00,+9.00,+4.00,+8.00,-2.00,+14.00,+4.00,-18.00,-19.00,+15.00,+23.00,+0.00,+7.00,+9.00
+15.00,-128.00,-2.00,+3.00,+28.00,+11.00,+5.00,+6.00,-37.00,-54.00,+48.00,+10.00,-13.00,+0.00,-10.00,-5.00
+21.00,+19.00,+1.00,+1.00,+13.00,+3.00,+2.00,-2.00,-62.00,-128.00,-35.00,-14.00,+4.00,-2.00,-4.00,-20.00
-26.00,-74.00,-39.00,-12.00,-16.00,-10.00,+5.00,-8.00,-122.00,+99.00,+24.00,+2.00,+4.00,-2.00,-3.00,-12.00
-93.00,-60.00,-7.00,+1.00,-7.00,-23.00,-19.00,-17.00,+58.00,+32.00,+19.00,+9.00,-4.00,+4.00,+3.00,+31.00
+0.00,-2.00,+3.00,+0.00,-10.00,+22.00,-1.00,-5.00,+68.00,+119.00,+0.00,+4.00,-14.00,-2.00,-6.00,+6.00
-36.00,-32.00,+1.00,+2.00,+6.00,-3.00,-28.00,-8.00,+16.00,-57.00,+15.00,+3.00,+14.00,+7.00,+10.00,+0.00
+47.00,-4.00,-4.00,+3.00,+2.00,-1.00,+43.00,+17.00,+17.00,-85.00,-8.00,-1.00,-13.00,-8.00,-1.00,-13.00
-2.00,+77.00,+9.00,-6.00,-3.00,+6.00,+34.00,+9.00,+33.00,+83.00,+32.00,-7.00,+23.00,-4.00,-15.00,+14.00
+25.00,-25.00,+27.00,+15.00,+9.00,+5.00,-4.00,+11.00,-43.00,-47.00,-8.00,-1.00,-56.00,-3.00,-12.00,-7.00
-11.00,-108.00,-56.00,-13.00,-31.00,-7.00,-2.00,-6.00,-60.00,+92.00,+11.00,+4.00,+6.00,+0.00,+14.00,-6.00
-56.00,-70.00,+4.00,-4.00,-16.00,+1.00,-21.00,-17.00,-61.00,+127.00,+33.00,+8.00,+35.00,+2.00,-13.00,+1.00
-7.00,-94.00,-21.00,+1.00,+3.00,-11.00,-14.00,+1.00,-33.00,-71.00,-39.00,-10.00,-34.00,+2.00,+12.00,-14.00
-30.00,-29.00,+27.00,+6.00,-5.00,+8.00,+15.00,+9.00,+13.00,+33.00,+9.00,+0.00,+33.00,-5.00,-9.00,-11.00
+32.00,+53.00,+9.00,-3.00,+30.00,+7.00,+2.00,+15.00,-29.00,-105.00,-1.00,+6.00,-2.00,+0.00,+6.00,+11.00
+6.00,+73.00,-14.00,-8.00,-24.00,-17.00,-15.00,+1.00,+48.00,+89.00,+6.00,-22.00,-20.00,-2.00,+3.00,-1.00
-16.00,-32.00,+9.00,+4.00,+5.00,+8.00,-2.00,-12.00,-121.00,-113.00,-22.00,-9.00,-28.00,-3.00,-7.00,-33.00
+20.00,-56.00,-27.00,-3.00,-10.00,-14.00,+1.00,+5.00,+57.00,-12.00,+9.00,+7.00,+30.00,+2.00,+0.00,+2.00
+33.00,-13.00,-1.00,+0.00,-11.00,+9.00,+9.00,-2.00,+52.00,+24.00,-5.00,-12.00,-4.00,-3.00,-3.00,+13.00
+23.00,+48.00,+22.00,+2.00,+11.00,+5.00,+2.00,+7.00,+127.00,+41.00,-16.00,-9.00,+4.00,-2.00,-3.00,+8.00
-58.00,+42.00,-37.00,-13.00,-29.00,-10.00,-33.00,-38.00,-10.00,-8.00,+27.00,+3.00,+7.00,+1.00,+2.00,+4.00
+30.00,-59.00,+18.00,+4.00,+35.00,+10.00,+11.00,+15.00,-88.00,-18.00,-24.00,-7.00,-8.00,-2.00,-2.00,-21.00
-24.00,-11.00,-18.00,+1.00,+17.00,-5.00,-9.00,-7.00,-49.00,-91.00,-35.00,-4.00,-3.00,-5.00,-10.00,-21.00
-25.00,+20.00,-10.00,-5.00,-11.00,+4.00,-8.00,-6.00,-89.00,-95.00,-4.00,+4.00,-13.00,+2.00,-7.00,-2.00
+27.00,+1.00,+3.00,-2.00,-8.00,-13.00,-13.00,-7.00,+37.00,-11.00,-8.00,+0.00,+26.00,+2.00,+9.00,+5.00
+33.00,+106.00,+15.00,+3.00,-2.00,-2.00,+0.00,+0.00,-63.00,+106.00,+10.00,+9.00,-9.00,+0.00,-3.00,-7.00
+10.00,+8.00,+8.00,+5.00,+25.00,+7.00,+7.00,+9.00,-22.00,-27.00,-9.00,+4.00,+23.00,+3.00,+1.00,+9.00
-27.00,-30.00,+32.00,+8.00,-4.00,-10.00,+2.00,-4.00,+33.00,+50.00,-3.00,-1.00,-4.00,+3.00,+6.00,+10.00
+2.00,-4.00,-18.00,-6.00,-1.00,+14.00,-6.00,+0.00,-16.00,-10.00,+7.00,-6.00,-43.00,-3.00,+9.00,+3.00
-43.00,+53.00,-22.00,-18.00,-5.00,-6.00,+1.00,-22.00,+48.00,-26.00,-22.00,-8.00,+6.00,+1.00,-12.00,+15.00
-12.00,-97.00,+6.00,+0.00,-13.00,+2.00,-2.00,+5.00,-16.00,+118.00,+7.00,+4.00,+14.00,-3.00,-3.00,+2.00
+0.00,-29.00,-14.00,-8.00,+16.00,-6.00,-6.00,-7.00,+71.00,+51.00,-14.00,-16.00,-36.00,-2.00,-4.00,-9.00
+31.00,-53.00,+8.00,+13.00,-1.00,-1.00,+15.00,+15.00,+33.00,+64.00,+36.00,+25.00,+30.00,+6.00,+5.00,+12.00
+6.00,+12.00,+50.00,+24.00,+12.00,+13.00,+2.00,+25.00,-12.00,-70.00,-18.00,-9.00,+11.00,+0.00,+12.00,+3.00
+28.00,+96.00,-7.00,-3.00,+9.00,-4.00,-9.00,-4.00,+16.00,+60.00,+23.00,-17.00,-47.00,-6.00,-12.00,+5.00
+9.00,-128.00,+2.00,+1.00,-24.00,+4.00,+10.00,+2.00,+14.00,-34.00,+1.00,+9.00,+40.00,-2.00,+1.00,+15.00
+41.00,-59.00,-15.00,-17.00,-4.00,-6.00,-5.00,+3.00,-32.00,+63.00,-14.00,-8.00,-44.00,-1.00,+1.00,+0.00
-12.00,-19.00,-8.00,-5.00,+9.00,-7.00,-5.00,-3.00,-12.00,+34.00,+21.00,+6.00,+3.00,+0.00,+2.00,+6.00
-27.00,-3.00,+22.00,+13.00,+0.00,-1.00,+3.00,+4.00,+45.00,-3.00,-16.00,+0.00,+27.00,+2.00,+6.00,+13.00
+25.00,+10.00,+10.00,+5.00,+6.00,+6.00,+15.00,+5.00,-27.00,-128.00,+1.00,+2.00,+5.00,-3.00,-3.00,+0.00
-53.00,+23.00,-13.00,-2.00,-4.00,-11.00,-26.00,-8.00,+77.00,+65.00,+4.00,+2.00,-7.00,+0.00,+4.00,+26.00
+47.00,-56.00,-34.00,-6.00,-4.00,-2.00,-25.00,+0.00,+6.00,+91.00,+16.00,+23.00,+26.00,-1.00,+0.00,-9.00
-14.00,+10.00,+3.00,-2.00,-21.00,+2.00,+47.00,-2.00,+36.00,-28.00,+4.00,-12.00,-26.00,+3.00,-2.00,+4.00
+40.00,+23.00,-7.00,-2.00,+22.00,+2.00,+10.00,+0.00,-15.00,-5.00,-22.00,-5.00,-18.00,-3.00,+3.00,+7.00
-22.00,+66.00,-9.00,-2.00,+15.00,+26.00,-7.00,-11.00,-53.00,-111.00,-19.00,-8.00,+14.00,+0.00,-2.00,-4.00
-47.00,+20.00,+11.00,-4.00,-28.00,-6.00,-1.00,+3.00,+34.00,+55.00,+14.00,+6.00,-4.00,-1.00,-5.00,+2.00
-15.00,+22.00,-15.00,-1.00,+7.00,-9.00,-12.00,-11.00,+19.00,-41.00,-9.00,-3.00,-17.00,-4.00,+1.00,-5.00
+10.00,+71.00,+26.00,+5.00,-15.00,+7.00,-2.00,+5.00,+63.00,+59.00,+8.00,+8.00,-12.00,+3.00,+15.00,+19.00
-8.00,+111.00,-3.00,-5.00,+19.00,-19.00,+9.00,-4.00,-1.00,-30.00,-6.00,+4.00,+16.00,-2.00,-3.00,-7.00
+28.00,+125.00,+19.00,-1.00,+5.00,+19.00,-3.00,+9.00,-50.00,+12.00,-5.00,-4.00,+2.00,+2.00,-7.00,-2.00
+13.00,-57.00,-12.00,-6.00,-11.00,-6.00,+2.00,+12.00,-26.00,+0.00,-16.00,-7.00,-16.00,-7.00,-11.00,-13.00
-31.00,+6.00,-6.00,-2.00,-12.00,+4.00,-5.00,-6.00,+20.00,-77.00,+5.00,-4.00,-13.00,-1.00,+5.00,+5.00
-14.00,-4.00,-14.00,+4.00,+32.00,+0.00,-4.00,+3.00,-24.00,+127.00,+0.00,-4.00,+50.00,-1.00,-10.00,-21.00
-41.00,+7.00,+10.00,+4.00,-9.00,-7.00,-3.00,-15.00,-47.00,-76.00,-19.00,-11.00,-30.00,-3.00,-2.00,-6.00
-39.00,-110.00,-10.00,-13.00,-13.00,-8.00,-10.00,-14.00,-67.00,-57.00,+13.00,+2.00,+9.00,+1.00,+10.00,+4.00
-10.00,+40.00,+2.00,-2.00,-22.00,-7.00,-5.00,-5.00,-38.00,-51.00,-17.00,-9.00,-25.00,-5.00,-10.00,-19.00
+60.00,+42.00,+23.00,+14.00,+20.00,+10.00,+3.00,+18.00,+15.00,-53.00,-5.00,-1.00,+19.00,-3.00,-9.00,-4.00
+9.00,-57.00,-16.00,-15.00,-14.00,-8.00,-3.00,-4.00,-41.00,+71.00,-4.00,+6.00,+14.00,+0.00,+1.00,-1.00
+29.00,+64.00,+7.00,-9.00,+7.00,-2.00,-3.00,-10.00,+16.00,+65.00,+18.00,-11.00,-5.00,+7.00,+13.00,+5.00
-67.00,-60.00,-30.00,-2.00,+0.00,-1.00,-5.00,-12.00,-18.00,+58.00,-9.00,+17.00,+0.00,-5.00,-20.00,-16.00
+0.00,-23.00,+19.00,+2.00,-27.00,+6.00,+20.00,+12.00,+56.00,-105.00,+6.00,-3.00,-29.00,-1.00,-2.00,+16.00
-33.00,-36.00,-28.00,-9.00,-10.00,-34.00,-23.00,-23.00,+4.00,+11.00,+16.00,-10.00,-21.00,-5.00,-1.00,-2.00
+4.00,+90.00,+17.00,+5.00,+6.00,+23.00,-9.00,-6.00,-11.00,-83.00,-8.00,+1.00,-17.00,-5.00,-4.00,+4.00
+19.00,+44.00,-6.00,-1.00,+8.00,+7.00,-6.00,+4.00,-71.00,-48.00,+25.00,+11.00,+37.00,+4.00,+5.00,-11.00
+6.00,-9.00,-2.00,-5.00,-1.00,+6.00,-3.00,-7.00,-20.00,-55.00,-20.00,-6.00,+16.00,-2.00,+10.00,-15.00
-41.00,-89.00,-16.00,-6.00,-16.00,-15.00,+1.00,-13.00,+12.00,-66.00,-18.00,+5.00,+17.00,+3.00,-18.00,+8.00
+48.00,-24.00,-17.00,-2.00,+9.00,-8.00,-6.00,+19.00,+24.00,+49.00,+25.00,+12.00,+4.00,+1.00,+3.00,+5.00
-10.00,+1.00,+27.00,+5.00,-25.00,-15.00,-22.00,+11.00,-41.00,-18.00,-6.00,-7.00,-14.00,-1.00,-6.00,-15.00
+8.00,+17.00,+20.00,+9.00,+35.00,+48.00,+79.00,+11.00,-35.00,-45.00,-6.00,+0.00,-6.00,-2.00,+0.00,-13.00
+6.00,-83.00,+6.00,+5.00,-14.00,-19.00,-22.00,+3.00,+7.00,-69.00,+2.00,-6.00,-10.00,-1.00,+6.00,+1.00
+0.00,+58.00,-8.00,+2.00,+14.00,+11.00,-1.00,+0.00,+46.00,+61.00,+8.00,+8.00,+5.00,+2.00,-1.00,+6.00
+24.00,-33.00,+0.00,+3.00,+40.00,+6.00,+10.00,+1.00,+69.00,-19.00,-16.00,-12.00,+1.00,-1.00,+0.00,+13.00
+25.00,-75.00,-7.00,-8.00,-17.00,-11.00,-25.00,+0.00,-25.00,-4.00,-6.00,+2.00,-5.00,-1.00,-6.00,-3.00
-27.00,+85.00,+3.00,-6.00,+0.00,+1.00,+7.00,-3.00,-34.00,+69.00,+16.00,+3.00,-2.00,+1.00,+6.00,-4.00
+1.00,+0.00,+11.00,+5.00,-10.00,-1.00,+7.00,-2.00,+18.00,-34.00,-18.00,-4.00,-7.00,-3.00,-6.00,-1.00
+11.00,+24.00,-12.00,-6.00,-12.00,-19.00,-7.00,+0.00,-32.00,+82.00,-5.00,-3.00,+18.00,-4.00,-1.00,-3.00
-16.00,-86.00,-3.00,-7.00,-15.00,-12.00,-15.00,-7.00,-31.00,+37.00,+6.00,+2.00,-10.00,-3.00,-1.00,-2.00
+29.00,+46.00,+4.00,+8.00,+23.00,+12.00,+12.00,+3.00,-12.00,-64.00,-23.00,-12.00,-16.00,-4.00,-5.00,-12.00
-26.00,-128.00,-10.00,-6.00,-23.00,-9.00,-15.00,-5.00,-53.00,-8.00,+6.00,+4.00,+7.00,-2.00,-2.00,-9.00
+22.00,+25.00,+26.00,-3.00,-9.00,-1.00,+2.00,-5.00,-30.00,-32.00,-3.00,+3.00,+1.00,+1.00,+1.00,-5.00
-51.00,-84.00,-38.00,-5.00,-6.00,-12.00,-14.00,-13.00,-6.00,+9.00,+7.00,-5.00,-26.00,-3.00,-8.00,-5.00
+66.00,+13.00,+13.00,+9.00,+11.00,+12.00,+15.00,+17.00,+27.00,-11.00,-1.00,-3.00,+37.00,+0.00,+2.00,+7.00
-54.00,-76.00,+10.00,+6.00,+8.00,+0.00,+1.00,+6.00,-6.00,-46.00,-10.00,+2.00,-12.00,+0.00,-2.00,+2.00
-9.00,+25.00,-5.00,-5.00,-5.00,-2.00,-1.00,-6.00,+45.00,+1.00,-2.00,-4.00,-5.00,-3.00,-3.00,-5.00
-18.00,+25.00,-2.00,-5.00,-10.00,-2.00,-10.00,-7.00,+32.00,+32.00,+1.00,-4.00,-24.00,+0.00,-1.00,+3.00
+44.00,+14.00,-12.00,-3.00,+0.00,+2.00,-3.00,+0.00,+24.00,-9.00,-9.00,+3.00,+31.00,+2.00,+3.00,+5.00
-46.00,-70.00,-10.00,-4.00,+1.00,-3.00,-3.00,-10.00,-7.00,-10.00,+3.00,-4.00,+4.00,-1.00,-5.00,-7.00
+17.00,-25.00,-8.00,+4.00,+4.00,+8.00,+3.00,+2.00,-16.00,-35.00,-14.00,-9.00,-6.00,-4.00,-5.00,-9.00
+11.00,+40.00,+10.00,+4.00,-10.00,-15.00,-13.00,-3.00,-86.00,+54.00,+14.00,+6.00,-1.00,-2.00,+0.00,-3.00
-16.00,-25.00,-6.00,+2.00,+4.00,+9.00,+2.00,-5.00,+35.00,+15.00,+7.00,+2.00,-16.00,-4.00,+3.00,-2.00
+17.00,+86.00,+13.00,+2.00,+3.00,+1.00,+1.00,+2.00,+16.00,+24.00,-14.00,+9.00,+31.00,-1.00,-1.00,+5.00
-12.00,+0.00,-9.00,-4.00,+4.00,+0.00,+2.00,+0.00,-17.00,-5.00,-4.00,-21.00,-47.00,+1.00,+0.00,-3.00
+9.00,-65.00,-8.00,-6.00,-8.00,-4.00,-11.00,-10.00,-13.00,-34.00,-13.00,-2.00,+15.00,-2.00,-4.00,-3.00
+17.00,+21.00,+6.00,+0.00,-4.00,-5.00,+2.00,+2.00,-15.00,+3.00,+4.00,+0.00,-11.00,-2.00,+5.00,-2.00
+19.00,+46.00,+6.00,-4.00,-14.00,-7.00,+6.00,+0.00,-51.00,-28.00,-4.00,-10.00,-14.00,+0.00,-15.00,-11.00
+18.00,-24.00,+2.00,+2.00,+8.00,+4.00,-8.00,+6.00,+9.00,+42.00,+4.00,+14.00,-25.00,-2.00,+4.00,+17.00
+25.00,+7.00,-16.00,-5.00,+3.00,-6.00,-6.00,-5.00,+12.00,-21.00,-1.00,+1.00,+55.00,+3.00,+0.00,-2.00
+81.00,+7.00,+0.00,+3.00,+15.00,+12.00,+2.00,-2.00,+1.00,-9.00,-3.00,-10.00,+9.00,+1.00,+11.00,+0.00
+113.00,-7.00,-6.00,+2.00,+6.00,-3.00,-6.00,-1.00,+13.00,+7.00,-5.00,-2.00,-27.00,-9.00,-32.00,-7.00
+6.00,+6.00,-1.00,-7.00,-9.00,-14.00,+4.00,-4.00,-21.00,-7.00,+1.00,+1.00,-21.00,+0.00,-1.00,+0.00
+14.00,+32.00,+7.00,-2.00,-25.00,-7.00,-1.00,+5.00,-13.00,+1.00,-3.00,-10.00,+16.00,-3.00,-9.00,-5.00
-114.00,+1.00,-4.00,+2.00,+35.00,+6.00,-2.00,-6.00,+11.00,-5.00,-3.00,+6.00,-2.00,-3.00,-13.00,+0.00
-88.00,-5.00,+0.00,+1.00,-16.00,+8.00,+1.00,-2.00,-10.00,-4.00,-3.00,-8.00,-13.00,+0.00,+2.00,-3.00
-88.00,-69.00,-3.00,-1.00,+11.00,+5.00,-2.00,-5.00,-28.00,-7.00,+2.00,-8.00,+54.00,+30.00,-19.00,-4.00
-77.00,+5.00,+2.00,+5.00,+6.00,+10.00,+9.00,+4.00,-3.00,-18.00,+0.00,+9.00,-33.00,-17.00,+19.00,+0.00
-51.00,-5.00,+2.00,-10.00,-29.00,-32.00,-12.00,-1.00,-6.00,-21.00,-10.00,-10.00,-10.00,+12.00,-15.00,-6.00
-52.00,-33.00,-11.00,-10.00,-38.00,-10.00,-19.00,+0.00,-7.00,+4.00,+2.00,+10.00,+19.00,-9.00,+13.00,+1.00
-67.00,-7.00,-4.00,+6.00,+71.00,+41.00,+39.00,+0.00,-34.00,-9.00,+2.00,+8.00,-3.00,-7.00,+10.00,-8.00
-21.00,-1.00,+9.00,+5.00,-12.00,-9.00,-31.00,+0.00,+10.00,-14.00,-3.00,-1.00,-2.00,+8.00,-36.00,+6.00
-5.00,+41.00,-11.00,+0.00,-11.00,+11.00,+8.00,-3.00,+2.00,-8.00,-10.00,-8.00,-1.00,-8.00,+1.00,-2.00
+64.00,-5.00,+1.00,-7.00,+17.00,-29.00,-2.00,+7.00,+16.00,+8.00,+4.00,-7.00,-12.00,+3.00,+4.00,+6.00
+56.00,-62.00,+2.00,-8.00,-35.00,-14.00,-15.00,-2.00,+5.00,-10.00,-2.00,+5.00,+6.00,-7.00,+11.00,-8.00
+74.00,+73.00,+2.00,+4.00,+11.00,+8.00,+11.00,+1.00,+24.00,+9.00,+3.00,-12.00,+8.00,+2.00,+8.00,+2.00
+45.00,+44.00,+6.00,+1.00,-12.00,-2.00,-4.00,+1.00,+9.00,-6.00,-2.00,+8.00,-36.00,-10.00,-1.00,-6.00
+5.00,-58.00,-2.00,+7.00,+10.00,+15.00,+0.00,-2.00,-9.00,+2.00,+0.00,+2.00,+38.00,+6.00,+5.00,-2.00
+3.00,+20.00,-3.00,-5.00,-13.00,-16.00,+12.00,+0.00,+15.00,-2.00,-1.00,+12.00,-6.00,-2.00,-5.00,-5.00
+2.00,-39.00,-4.00,-3.00,+0.00,-13.00,-22.00,-6.00,-6.00,+4.00,-5.00,-8.00,+6.00,+3.00,+6.00,+2.00
-8.00,-11.00,-8.00,-7.00,-17.00,-10.00,+4.00,-8.00,-8.00,+2.00,+1.00,-9.00,-54.00,+1.00,-7.00,-1.00
-32.00,-4.00,-3.00,-5.00,-26.00,+2.00,+0.00,-3.00,+26.00,+13.00,+4.00,+18.00,+36.00,+9.00,+5.00,+1.00
-4.00,+40.00,-3.00,+1.00,-17.00,-17.00,+0.00,-1.00,-20.00,-10.00,-6.00,-23.00,-7.00,-15.00,+4.00,-5.00
+4.00,-21.00,+2.00,-2.00,+0.00,+6.00,-1.00,-1.00,-1.00,+0.00,-2.00,+14.00,-24.00,+10.00,-33.00,-4.00
+4.00,-5.00,-1.00,+0.00,+12.00,+13.00,-5.00,+0.00,+4.00,+4.00,-1.00,-17.00,+8.00,+0.00,+14.00,+6.00
+2.00,+17.00,+0.00,+2.00,+35.00,+18.00,+34.00,+1.00,+2.00,-7.00,-3.00,-13.00,-27.00,-4.00,+2.00,-1.00
+9.00,+8.00,-1.00,+2.00,-19.00,-9.00,-11.00,-2.00,+1.00,-2.00,+2.00,+4.00,+13.00,-4.00,+5.00,+1.00
-13.00,-4.00,-4.00,-8.00,-14.00,-14.00,-2.00,-2.00,-10.00,+1.00,-1.00,-6.00,-16.00,-1.00,+0.00,-3.00
-4.00,-8.00,+6.00,+14.00,-25.00,-20.00,-3.00,+3.00,+9.00,-3.00,+0.00,+16.00,+27.00,+0.00,-25.00,-2.00
+2.00,-7.00,-7.00,-14.00,+4.00,+25.00,+2.00,+0.00,+31.00,+8.00,+0.00,+6.00,-1.00,-1.00,+2.00,+0.00
-5.00,+3.00,-7.00,-10.00,+16.00,-14.00,-18.00,-1.00,-81.00,-28.00,-1.00,+0.00,+4.00,-1.00,-13.00,+0.00
+12.00,+1.00,+2.00,+2.00,+1.00,+20.00,+33.00,+5.00,+3.00,+3.00,-2.00,-3.00,-7.00,-5.00,+14.00,-2.00
-4.00,-24.00,+0.00,+5.00,+22.00,+5.00,-29.00,-3.00,+4.00,-4.00,+2.00,-4.00,-27.00,+1.00,+0.00,+5.00
-11.00,+12.00,+3.00,+7.00,-3.00,-17.00,-5.00,-2.00,+13.00,+2.00,+1.00,-8.00,+37.00,-2.00,+4.00,+2.00
+5.00,+8.00,-2.00,+1.00,-30.00,-13.00,-2.00,-4.00,+5.00,+9.00,-1.00,+5.00,+21.00,+3.00,+1.00,+0.00
+1.00,+0.00,+0.00,-2.00,+31.00,+14.00,-1.00,+0.00,+2.00,+0.00,-2.00,+4.00,-13.00,-3.00,-3.00,-2.00
+4.00,+2.00,+2.00,-2.00,+2.00,-4.00,+13.00,-1.00,+7.00,+1.00,+5.00,+12.00,+11.00,-3.00,+10.00,+4.00
-9.00,+21.00,+0.00,+5.00,+5.00,-2.00,-8.00,-3.00,-17.00,-4.00,-1.00,-18.00,-37.00,-3.00,-4.00,-3.00
-5.00,-67.00,-9.00,-5.00,-9.00,+0.00,-7.00,-5.00,+21.00,+3.00,-1.00,+0.00,+11.00,-1.00,+0.00,-1.00
+33.00,+70.00,+9.00,+3.00,+10.00,-2.00,+11.00,+6.00,-8.00,-3.00,-2.00,-1.00,+7.00,+0.00,+5.00,-3.00
-6.00,-80.00,-9.00,-8.00,+5.00,+16.00,+3.00,-7.00,+5.00,+6.00,-1.00,-6.00,-27.00,-3.00,-3.00,-4.00
+14.00,-27.00,+6.00,+2.00,-2.00,-4.00,-4.00,+3.00,-4.00,-1.00,-1.00,-3.00,+5.00,+1.00,+3.00,-1.00
+33.00,-16.00,-1.00,+5.00,-7.00,+12.00,-3.00,-2.00,+6.00,-2.00,-1.00,+5.00,+0.00,-2.00,-4.00,-4.00
-17.00,+1.00,-3.00,+0.00,-10.00,-4.00,-6.00,-3.00,+15.00,+3.00,+0.00,-4.00,-11.00,-3.00,+6.00,+0.00
-54.00,-28.00,-6.00,-10.00,-25.00,-26.00,+2.00,+0.00,+4.00,-1.00,-2.00,-1.00,+10.00,+0.00,+2.00,-4.00
-36.00,+26.00,+2.00,+7.00,+48.00,+25.00,+0.00,+2.00,-10.00,-4.00,-3.00,-1.00,-28.00,-4.00,-5.00,-6.00
-45.00,+26.00,-2.00,+7.00,+12.00,+8.00,+3.00,+2.00,+3.00,+0.00,+0.00,+3.00,+28.00,+1.00,-2.00,-3.00
-16.00,-28.00,-3.00,-3.00,-3.00,-2.00,-5.00,-1.00,-3.00,+4.00,-2.00,-4.00,+13.00,-1.00,+0.00,+0.00
+16.00,+25.00,+1.00,-8.00,-11.00,-4.00,+5.00,+1.00,-5.00,-3.00,-1.00,+7.00,+7.00,-4.00,-1.00,-1.00
+3.00,-18.00,-5.00,-3.00,-14.00,-5.00,-3.00,-4.00,-1.00,+1.00,+1.00,+8.00,+18.00,+1.00,+0.00,+6.00
+90.00,+30.00,+12.00,+3.00,+33.00,+9.00,-1.00,+3.00,+6.00,+4.00,-1.00,-9.00,-39.00,+0.00,-1.00,+1.00
+29.00,+4.00,-7.00,+0.00,-19.00,-8.00,-1.00,-1.00,-15.00,-9.00,-1.00,+3.00,-23.00,-3.00,+3.00,-4.00
+3.00,-17.00,+3.00,-1.00,+25.00,+8.00,+0.00,+3.00,-4.00,-2.00,+0.00,-1.00,+28.00,+2.00,-1.00,-3.00
-32.00,+9.00,-1.00,+0.00,-13.00,-9.00,-5.00,-3.00,-1.00,+0.00,+0.00,+5.00,-3.00,-6.00,-1.00,-2.00
-36.00,+13.00,+2.00,+1.00,+4.00,+9.00,+2.00,+1.00,+9.00,+3.00,+0.00,-9.00,+3.00,-1.00,+2.00,+3.00
-25.00,-23.00,-1.00,-1.00,-4.00,-9.00,-4.00,-6.00,+5.00,+2.00,+1.00,-7.00,+0.00,-2.00,-1.00,-1.00
-12.00,+3.00,-1.00,+1.00,-5.00,+3.00,+0.00,-3.00,-3.00,-2.00,-1.00,+0.00,-4.00,+0.00,+2.00,-2.00
+1.00,-8.00,-4.00,-2.00,+1.00,-2.00,-1.00,+0.00,-8.00,-3.00,-4.00,+5.00,-3.00,-1.00,-3.00,-3.00
-6.00,+12.00,-1.00,-4.00,-8.00,-11.00,+0.00,-2.00,+7.00,-1.00,-4.00,-3.00,-5.00,-1.00,-2.00,+0.00
+3.00,-4.00,+1.00,-1.00,-16.00,-5.00,-3.00,+0.00,-2.00,-1.00,-1.00,+1.00,+12.00,-1.00,+0.00,-1.00
+7.00,+20.00,+0.00,+2.00,+26.00,+8.00,+0.00,+2.00,+3.00,+1.00,+0.00,-1.00,+2.00,+0.00,-1.00,+0.00
+17.00,+6.00,+1.00,-1.00,-21.00,-11.00,-1.00,-3.00,+2.00,+1.00,-3.00,+2.00,-8.00,-2.00,-1.00,+2.00
-1.00,-7.00,-2.00,+2.00,+25.00,+4.00,+1.00,+1.00,+0.00,+0.00,-1.00,+1.00,+2.00,-2.00,-2.00,-2.00
-14.00,-7.00,-3.00,-6.00,-13.00,+1.00,-1.00,-2.00,+1.00,+0.00,-3.00,-1.00,+4.00,+1.00,+0.00,-3.00
+17.00,+5.00,-2.00,+2.00,+11.00,+2.00,+1.00,-2.00,+0.00,+0.00,-2.00,-3.00,-6.00,-1.00,+0.00,-2.00
+21.00,-11.00,-2.00,-3.00,-13.00,-5.00,-2.00,-1.00,-5.00,-5.00,+0.00,-6.00,-7.00,-1.00,-1.00,+0.00
+6.00,+7.00,+0.00,-1.00,-13.00,-5.00,-5.00,+0.00,+0.00,-1.00,+0.00,-1.00,+1.00,-1.00,+0.00,+0.00
-10.00,-11.00,+7.00,-2.00,+0.00,-2.00,-3.00,-3.00,+0.00,+1.00,+0.00,+3.00,+3.00,-2.00,-1.00,+1.00
-4.00,+1.00,-9.00,-2.00,-9.00,-2.00,+0.00,+0.00,-1.00,-1.00,-1.00,-7.00,-6.00,-3.00,-1.00,+1.00
-6.00,-5.00,+0.00,+0.00,+4.00,-4.00,-3.00,-4.00,-8.00,-3.00,-2.00,-3.00,-1.00,-1.00,+1.00,-3.00
-16.00,+4.00,+1.00,-2.00,-16.00,-1.00,-2.00,-1.00,+2.00,-1.00,-2.00,+0.00,+1.00,-2.00,+0.00,+1.00
+0.00,-4.00,-2.00,+0.00,+12.00,+0.00,+1.00,+2.00,+3.00,-1.00,-2.00,+0.00,+1.00,-1.00,-1.00,-4.00
+6.00,-6.00,+2.00,+0.00,-9.00,-3.00,+0.00,-1.00,-2.00,-1.00,-3.00,-1.00,-3.00,-2.00,+0.00,-4.00
-2.00,+0.00,-2.00,+0.00,+3.00,+0.00,-2.00,+2.00,-4.00,-1.00,+0.00,-2.00,-3.00,+0.00,+0.00,-3.00
-9.00,+1.00,-2.00,-1.00,+2.00,+3.00,+0.00,+0.00,+0.00,-2.00,-1.00,+0.00,-2.00,-2.00,-3.00,-4.00
-12.00,-5.00,-1.00,-2.00,+0.00,-2.00,+0.00,+1.00,-3.00,-1.00,-1.00,-2.00,-2.00,-2.00,+1.00,-3.00
-21.00,-2.00,+1.00,+2.00,+0.00,+0.00,+0.00,-2.00,-1.00,+1.00,-4.00,+0.00,-1.00,-2.00,+0.00,-5.00
-12.00,+0.00,-6.00,-1.00,+4.00,+1.00,-1.00,-3.00,+3.00,+0.00,-1.00,+0.00,+0.00,+0.00,-1.00,+2.00
-1.00,+5.00,+0.00,-4.00,-5.00,-2.00,+0.00,+0.00,-4.00,-2.00,+0.00,-2.00,-3.00,-2.00,-2.00,-2.00
-1.00,-6.00,-3.00,+1.00,+2.00,-1.00,-1.00,-1.00,+1.00,+0.00,-2.00,-2.00,+1.00,-1.00,-2.00,+0.00
