+0.00,-3.00,-2.00,-3.00,-2.00,-2.00,-1.00,-5.00,+1.00,+3.00,-2.00,-8.00,-3.00,-1.00,-2.00,-2.00
-1.00,+1.00,+1.00,+0.00,+1.00,+1.00,+1.00,-1.00,-4.00,-1.00,+0.00,+0.00,-1.00,+0.00,-1.00,-3.00
-7.00,-3.00,-3.00,-2.00,-1.00,-1.00,+0.00,-3.00,+3.00,-2.00,-6.00,-4.00,-4.00,-3.00,-2.00,-1.00
+6.00,-2.00,+2.00,+1.00,+1.00,+0.00,+0.00,-2.00,+1.00,+1.00,+1.00,+3.00,-3.00,-1.00,-2.00,-3.00
-1.00,-2.00,-1.00,-3.00,-1.00,-1.00,-2.00,-2.00,-1.00,-7.00,-2.00,+2.00,-1.00,+0.00,-1.00,+1.00
+6.00,-1.00,+0.00,-1.00,-2.00,-1.00,-2.00,+0.00,-3.00,+1.00,+0.00,-3.00,+0.00,+0.00,-2.00,-2.00
-3.00,-1.00,-3.00,-2.00,-2.00,-2.00,-1.00,+1.00,+0.00,-2.00,+0.00,+0.00,-3.00,-2.00,-1.00,-1.00
-3.00,+6.00,-2.00,-1.00,-5.00,+0.00,-3.00,-1.00,-1.00,-3.00,-3.00,-1.00,+0.00,-2.00,-3.00,-1.00
-4.00,-3.00,+1.00,+0.00,-4.00,-1.00,+0.00,+0.00,+1.00,+0.00,+1.00,+0.00,-1.00,-2.00,-3.00,-4.00
+6.00,+1.00,-1.00,+1.00,+5.00,+0.00,+0.00,-3.00,-10.00,-7.00,-5.00,-1.00,+0.00,-1.00,-2.00,-3.00
+2.00,+2.00,+3.00,+0.00,+0.00,-1.00,-1.00,+1.00,+10.00,+5.00,+0.00,+7.00,+6.00,+0.00,+2.00,+5.00
-4.00,-3.00,+0.00,-3.00,-1.00,-2.00,-2.00,-3.00,-9.00,-4.00,-1.00,+3.00,-21.00,+1.00,+2.00,+1.00
+3.00,+3.00,-3.00,-1.00,+1.00,+1.00,-1.00,-1.00,+31.00,+3.00,-4.00,+3.00,+23.00,+1.00,-2.00,+1.00
-8.00,-1.00,-2.00,-1.00,+0.00,+0.00,+0.00,+2.00,-42.00,-9.00,-2.00,-9.00,-8.00,-1.00,+0.00,-1.00
+3.00,+1.00,-1.00,-1.00,+0.00,+1.00,-1.00,+4.00,+0.00,-4.00,-1.00,+19.00,-2.00,-1.00,-2.00,-5.00
-1.00,-3.00,-1.00,+0.00,-3.00,-2.00,-1.00,-5.00,-5.00,-4.00,-4.00,-35.00,-2.00,-2.00,-2.00,-4.00
-5.00,-2.00,+0.00,+0.00,-1.00,-1.00,-1.00,+4.00,-12.00,-2.00,+0.00,+1.00,-14.00,-2.00,-1.00,+2.00
+1.00,-7.00,-3.00,-3.00,-2.00,-1.00,+0.00,-7.00,+25.00,+3.00,+0.00,-2.00,+7.00,-1.00,+0.00,-1.00
-3.00,-19.00,-1.00,-1.00,-1.00,-2.00,-2.00,-5.00,-2.00,+1.00,-2.00,-1.00,+3.00,-1.00,+0.00,+1.00
-1.00,+28.00,-2.00,-2.00,+1.00,-1.00,-1.00,-1.00,+1.00,+3.00,+0.00,+14.00,+10.00,-2.00,-1.00,+0.00
+4.00,-2.00,+2.00,+0.00,-20.00,-3.00,+0.00,-3.00,-4.00,-1.00,-4.00,-2.00,-5.00,+0.00,-2.00,-3.00
+2.00,-36.00,+1.00,-1.00,+2.00,+0.00,-3.00,+0.00,+6.00,-1.00,-4.00,+3.00,+2.00,-1.00,-2.00,+2.00
-3.00,+11.00,-3.00,+2.00,+24.00,-1.00,+0.00,-1.00,-6.00,-2.00,+1.00,-6.00,-16.00,-1.00,+1.00,+0.00
+0.00,-11.00,+0.00,-1.00,-6.00,+2.00,-2.00,+1.00,+0.00,+2.00,-2.00,+4.00,+13.00,-1.00,-1.00,-2.00
-2.00,+44.00,+1.00,+0.00,+7.00,-3.00,-1.00,-2.00,-5.00,-2.00,+1.00,-5.00,-1.00,-1.00,-1.00,-1.00
+9.00,+29.00,+2.00,+3.00,+23.00,+5.00,-1.00,-1.00,+7.00,+1.00,+0.00,+3.00,-2.00,-1.00,-1.00,+0.00
-9.00,-31.00,-1.00,-2.00,-11.00,-2.00,+0.00,+0.00,-5.00,+0.00,+0.00,-3.00,-3.00,+1.00,-2.00,-2.00
-5.00,+28.00,-1.00,-1.00,+9.00,-1.00,+0.00,-2.00,+3.00,+0.00,+0.00,-2.00,-5.00,-2.00,-2.00,-4.00
-7.00,-20.00,-4.00,-3.00,-8.00,-2.00,-1.00,+2.00,-9.00,-4.00,+2.00,+2.00,-1.00,-1.00,+0.00,-1.00
-4.00,-15.00,-2.00,-4.00,-23.00,-7.00,-1.00,-4.00,-3.00,-1.00,-2.00,+3.00,-2.00,+0.00,+0.00,+0.00
+2.00,+11.00,-3.00,-2.00,+1.00,+0.00,-1.00,-3.00,+2.00,-3.00,-2.00,-8.00,-2.00,-1.00,-1.00,-3.00
-1.00,-18.00,-1.00,+0.00,-7.00,-1.00,+0.00,+1.00,-4.00,-2.00,-1.00,-1.00,+0.00,+0.00,-1.00,-1.00
-6.00,-16.00,-1.00,-1.00,+1.00,+2.00,-2.00,-1.00,+2.00,+2.00,+1.00,+0.00,-1.00,-2.00,+0.00,-1.00
+4.00,+10.00,-3.00,-1.00,-8.00,-2.00,-2.00,-2.00,+1.00,+0.00,+0.00,+0.00,-5.00,+0.00,-1.00,-3.00
-5.00,-3.00,-2.00,-2.00,+8.00,+1.00,-1.00,-5.00,+1.00,-1.00,+0.00,-6.00,+2.00,+0.00,-1.00,+1.00
+9.00,-9.00,+2.00,+1.00,-3.00,-2.00,-3.00,+2.00,+0.00,+0.00,-3.00,+2.00,-2.00,-1.00,-2.00,+0.00
+1.00,-3.00,-3.00,-1.00,+7.00,+2.00,-1.00,+1.00,-3.00,+0.00,-1.00,+2.00,-3.00,-2.00,-1.00,-1.00
-8.00,+6.00,-2.00,+0.00,+2.00,+0.00,-1.00,-5.00,-3.00,-4.00,+1.00,-2.00,+0.00,-1.00,+0.00,-2.00
+3.00,+9.00,+1.00,-2.00,-9.00,-1.00,-1.00,+1.00,-7.00,-3.00,-2.00,-3.00,-1.00,-1.00,-2.00,-1.00
-3.00,-11.00,-5.00,-1.00,+0.00,+0.00,-1.00,+0.00,+8.00,-2.00,-2.00,+0.00,-3.00,-2.00,-1.00,+0.00
-1.00,+2.00,+1.00,+0.00,+7.00,+0.00,-2.00,-4.00,-5.00,+0.00,-3.00,-2.00,-1.00,-1.00,+0.00,+0.00
-2.00,+1.00,-1.00,-2.00,-6.00,-3.00,+0.00,-1.00,-1.00,-2.00,-1.00,+0.00,+1.00,-1.00,+0.00,+0.00
-6.00,-2.00,+1.00,-1.00,-8.00,-3.00,-2.00,-3.00,-2.00,-3.00,-1.00,-2.00,-3.00,-3.00,-4.00,-5.00
-5.00,-7.00,-2.00,-1.00,+3.00,+1.00,-1.00,-2.00,-7.00,-1.00,+0.00,+1.00,+2.00,+0.00,+1.00,+0.00
-1.00,-5.00,-3.00,-1.00,-1.00,-1.00,-2.00,-1.00,+10.00,+4.00,+0.00,-4.00,-3.00,-1.00,-1.00,+2.00
-1.00,-5.00,-1.00,+0.00,-3.00,-1.00,-1.00,+2.00,-13.00,-5.00,-3.00,-2.00,+1.00,+0.00,+1.00,+0.00
-2.00,-7.00,+0.00,-2.00,-3.00,-1.00,-1.00,-3.00,+1.00,+0.00,+0.00,-2.00,-2.00,-1.00,-1.00,-4.00
-2.00,+14.00,-1.00,+0.00,+0.00,-3.00,+0.00,+0.00,+8.00,+1.00,-2.00,-2.00,-2.00,-2.00,-1.00,-4.00
+6.00,-9.00,-3.00,-2.00,-1.00,+1.00,-1.00,+2.00,-2.00,-3.00,-2.00,-1.00,-1.00,-2.00,-1.00,-2.00
+1.00,+5.00,+2.00,+0.00,-3.00,+1.00,+0.00,+0.00,+3.00,+4.00,+1.00,-1.00,-2.00,-3.00,-2.00,+1.00
+3.00,-19.00,-1.00,+0.00,+0.00,+0.00,+1.00,+0.00,+0.00,-3.00,-2.00,-2.00,-1.00,+0.00,+0.00,-1.00
+7.00,+8.00,+0.00,+0.00,+0.00,-3.00,-2.00,+0.00,+2.00,+1.00,+0.00,-1.00,-8.00,+0.00,-1.00,+0.00
-10.00,+15.00,-2.00,-1.00,-1.00,-1.00,-1.00,-5.00,-13.00,-2.00,+0.00,+3.00,+11.00,+1.00,-1.00,-4.00
-8.00,-8.00,-4.00,+0.00,+0.00,-2.00,+0.00,-2.00,+3.00,-1.00,+1.00,-2.00,+9.00,+0.00,-3.00,-2.00
+29.00,+14.00,+0.00,+0.00,-1.00,+0.00,+1.00,-18.00,-3.00,-1.00,-2.00,-4.00,-2.00,-3.00,-1.00,+2.00
+0.00,+1.00,+1.00,-1.00,-1.00,-1.00,+0.00,+7.00,+2.00,+2.00,+0.00,-6.00,-2.00,+0.00,-1.00,+2.00
-5.00,-2.00,+0.00,+0.00,+2.00,-2.00,-1.00,+0.00,-8.00,-5.00,+2.00,-2.00,-10.00,+0.00,+0.00,-1.00
-7.00,-7.00,-1.00,-1.00,+1.00,-1.00,-1.00,-3.00,+7.00,-2.00,-4.00,+0.00,-3.00,-1.00,-1.00,-1.00
-8.00,+10.00,-2.00,-1.00,-4.00,-1.00,-1.00,-5.00,-22.00,+3.00,+0.00,-1.00,+6.00,-1.00,-1.00,+2.00
-1.00,-11.00,-1.00,-1.00,+0.00,-2.00,-2.00,-4.00,+7.00,+0.00,-1.00,+4.00,-1.00,+0.00,+0.00,+1.00
+3.00,-10.00,-1.00,-2.00,-1.00,+0.00,-2.00,+0.00,+2.00,-3.00,+0.00,+3.00,-9.00,-1.00,-1.00,+1.00
-3.00,+19.00,-2.00,-1.00,-2.00,-1.00,-2.00,-2.00,-27.00,-10.00,-4.00,-3.00,-3.00,-1.00,-1.00,-10.00
+6.00,-16.00,-1.00,-2.00,-10.00,-1.00,-1.00,+5.00,+12.00,-10.00,-2.00,-10.00,-10.00,-1.00,-1.00,+0.00
-3.00,-20.00,+0.00,+0.00,+9.00,-1.00,+1.00,-3.00,+27.00,+11.00,+4.00,+1.00,+1.00,+0.00,-1.00,+5.00
-2.00,+9.00,+0.00,+1.00,-4.00,-1.00,+1.00,+3.00,-3.00,-4.00,-3.00,-5.00,+2.00,-1.00,-2.00,-1.00
+0.00,-10.00,-2.00,-1.00,+3.00,-1.00,+0.00,-1.00,+8.00,+1.00,+2.00,+6.00,+0.00,-1.00,-3.00,+2.00
-13.00,+20.00,-2.00,-1.00,+2.00,+1.00,-2.00,+1.00,-6.00,-3.00,-2.00,+3.00,+0.00,-1.00,-1.00,-4.00
+2.00,-1.00,+1.00,+0.00,-7.00,-1.00,-1.00,+0.00,-18.00,-3.00,+0.00,-3.00,+0.00,-2.00,-3.00,-4.00
-4.00,-10.00,-1.00,-1.00,-16.00,-5.00,+0.00,-6.00,+7.00,+1.00,-2.00,+4.00,+0.00,-1.00,+0.00,-1.00
-3.00,-55.00,-3.00,+0.00,+28.00,+6.00,-1.00,+2.00,-14.00,-4.00,-2.00,-4.00,-4.00,-1.00,+0.00,-2.00
+3.00,+70.00,+5.00,+1.00,-19.00,-2.00,+1.00,+4.00,+9.00,+3.00,-1.00,+1.00,-10.00,+0.00,+1.00,-1.00
-4.00,-16.00,-2.00,+0.00,+19.00,+0.00,-1.00,-4.00,-7.00,-5.00,-2.00,+1.00,+12.00,-1.00,+0.00,-3.00
+4.00,+5.00,+2.00,+1.00,+12.00,+2.00,+1.00,+2.00,-1.00,+4.00,-3.00,-4.00,-7.00,+0.00,-2.00,-1.00
-1.00,-9.00,-2.00,+0.00,-10.00,-3.00,-1.00,+1.00,+10.00,+6.00,+0.00,-2.00,+5.00,-1.00,-1.00,+2.00
-7.00,-13.00,-2.00,-2.00,+2.00,-2.00,-2.00,+5.00,-17.00,-2.00,+3.00,+10.00,-2.00,+0.00,-1.00,-1.00
-7.00,-5.00,-2.00,-1.00,-12.00,+0.00,-2.00,-1.00,+4.00,-9.00,-7.00,-17.00,-10.00,+1.00,+0.00,+1.00
-5.00,+11.00,-3.00,+1.00,+0.00,-1.00,-3.00,-4.00,+1.00,+1.00,+2.00,+3.00,-2.00,-2.00,+1.00,-1.00
+0.00,-26.00,-2.00,-4.00,-4.00,-3.00,-2.00,-4.00,-3.00,+5.00,-2.00,-2.00,-6.00,-3.00,-2.00,-4.00
+2.00,+2.00,+1.00,+0.00,-1.00,+0.00,-1.00,+2.00,+18.00,+0.00,+1.00,+13.00,+7.00,-2.00,-1.00,-2.00
-1.00,+15.00,-2.00,-2.00,-7.00,-1.00,-1.00,-1.00,-40.00,-10.00,-1.00,-15.00,-11.00,-3.00,+1.00,-5.00
-1.00,-29.00,+0.00,-2.00,+4.00,+0.00,+0.00,-2.00,+13.00,+0.00,-2.00,-8.00,+13.00,+0.00,-1.00,+1.00
+4.00,+27.00,+2.00,+1.00,-7.00,+0.00,-1.00,-2.00,-4.00,-2.00,+2.00,-6.00,-3.00,+0.00,-3.00,-1.00
-5.00,-15.00,-4.00,-2.00,-1.00,-1.00,-2.00,-2.00,+0.00,+6.00,+1.00,+2.00,+3.00,+0.00,+1.00,+1.00
-1.00,-14.00,+1.00,+0.00,-8.00,-4.00,+1.00,+0.00,-3.00,-1.00,-2.00,+12.00,+5.00,-1.00,-3.00,-1.00
+6.00,+4.00,-1.00,+1.00,+5.00,+3.00,+0.00,+0.00,+0.00,-6.00,-2.00,-6.00,-5.00,-1.00,+0.00,+0.00
+11.00,+15.00,+3.00,+3.00,+30.00,+3.00,+0.00,+2.00,+4.00,+5.00,+1.00,+6.00,-2.00,+0.00,-2.00,-2.00
+4.00,-29.00,-1.00,-1.00,-6.00,-3.00,-1.00,+1.00,-9.00,-4.00,-4.00,-8.00,-11.00,-1.00,-3.00,-3.00
-12.00,-23.00,-3.00,-3.00,+2.00,+3.00,+0.00,-5.00,+4.00,+1.00,-1.00,-1.00,+8.00,+1.00,-2.00,-1.00
-1.00,+19.00,+3.00,-1.00,-17.00,-3.00,+0.00,+0.00,+14.00,+1.00,-2.00,-1.00,+0.00,-2.00,-2.00,+1.00
+6.00,+29.00,+0.00,-2.00,+5.00,-3.00,-3.00,+0.00,-2.00,-1.00,+0.00,+1.00,+1.00,+0.00,+3.00,+2.00
-14.00,-29.00,-2.00,+2.00,+10.00,+0.00,-1.00,-1.00,-5.00,-6.00,-2.00,-7.00,-3.00,-2.00,-1.00,+1.00
+3.00,+2.00,-3.00,+0.00,-2.00,-2.00,-1.00,+0.00,+2.00,+5.00,+0.00,+6.00,-5.00,-3.00,-1.00,-2.00
-7.00,-11.00,-4.00,-3.00,-7.00,-3.00,-3.00,-4.00,-1.00,+2.00,+1.00,-2.00,-10.00,-2.00,-4.00,-4.00
-2.00,+1.00,+0.00,-2.00,-12.00,-2.00,-1.00,+0.00,+10.00,-5.00,-4.00,-4.00,+5.00,-2.00,-1.00,+0.00
-2.00,-6.00,-1.00,-1.00,+10.00,+3.00,-1.00,+1.00,-20.00,+0.00,+1.00,-1.00,+2.00,+2.00,-1.00,-1.00
-5.00,-5.00,-1.00,-1.00,-5.00,-2.00,-2.00,-2.00,+0.00,-5.00,-2.00,-6.00,-10.00,-4.00,-1.00,+1.00
+3.00,+8.00,-2.00,-2.00,+3.00,+0.00,-1.00,+1.00,-9.00,+0.00,+0.00,+3.00,-5.00,-1.00,+1.00,+0.00
-5.00,-4.00,-4.00,-3.00,-11.00,-4.00,+0.00,-1.00,+6.00,+4.00,+1.00,-12.00,-8.00,-1.00,-1.00,+0.00
-2.00,+2.00,+0.00,-1.00,+0.00,+0.00,-1.00,+2.00,+3.00,-4.00,-1.00,-3.00,+0.00,-3.00,-2.00,+0.00
-2.00,+17.00,+1.00,-1.00,-1.00,+3.00,-1.00,+1.00,+1.00,+1.00,+1.00,+4.00,+10.00,+0.00,-3.00,-2.00
+7.00,-5.00,+1.00,+0.00,+4.00,-2.00,+2.00,+3.00,-13.00,-8.00,-2.00,-6.00,-3.00,+0.00,-1.00,-3.00
-5.00,+6.00,-2.00,-2.00,-8.00,-1.00,-1.00,-4.00,+3.00,+1.00,-1.00,+0.00,+0.00,+0.00,+0.00,+2.00
+3.00,-8.00,+0.00,+0.00,-1.00,-5.00,+1.00,-1.00,+5.00,+3.00,-2.00,-3.00,+1.00,+0.00,+0.00,+0.00
-12.00,-9.00,-2.00,-2.00,-6.00,-2.00,-2.00,-5.00,-2.00,+2.00,+0.00,+4.00,-2.00,+0.00,-1.00,+0.00
+12.00,+13.00,+1.00,+0.00,+17.00,+3.00,+0.00,+1.00,-2.00,-1.00,-1.00,+0.00,+4.00,+0.00,-2.00,-2.00
+0.00,+2.00,+0.00,-1.00,-7.00,+0.00,-2.00,-2.00,-1.00,-3.00,-1.00,+8.00,-8.00,+0.00,-2.00,-2.00
+6.00,+11.00,-2.00,+0.00,+11.00,+3.00,+0.00,+1.00,+3.00,-2.00,-1.00,+4.00,+15.00,-1.00,-2.00,-2.00
+3.00,-14.00,+0.00,+0.00,+3.00,+2.00,-1.00,+1.00,-8.00,+1.00,-1.00,-9.00,-4.00,-2.00,-1.00,+1.00
-12.00,-13.00,-1.00,-3.00,-8.00,-3.00,-3.00,-4.00,-5.00,-1.00,-3.00,+0.00,+3.00,-1.00,-3.00,+1.00
+4.00,+30.00,+1.00,+1.00,-7.00,-4.00,-2.00,-1.00,+0.00,+2.00,-1.00,-3.00,-1.00,+0.00,-1.00,-1.00
-4.00,+9.00,+2.00,+0.00,+0.00,+0.00,-1.00,-1.00,-14.00,+2.00,+0.00,+3.00,-2.00,+1.00,-1.00,-4.00
+2.00,-4.00,-2.00,+1.00,-3.00,-1.00,+0.00,+1.00,+30.00,+1.00,-1.00,+5.00,+4.00,-1.00,-2.00,+0.00
-1.00,-11.00,-1.00,-2.00,+3.00,-1.00,+0.00,+1.00,-19.00,-12.00,-2.00,-1.00,-1.00,-2.00,-3.00,-8.00
+0.00,-2.00,-2.00,-2.00,-6.00,-2.00,+0.00,-4.00,+0.00,-2.00,-3.00,-3.00,+0.00,-1.00,+1.00,+4.00
-10.00,-11.00,-1.00,-2.00,-6.00,-3.00,-1.00,-4.00,-4.00,-5.00,-1.00,-5.00,-6.00,-2.00,-1.00,+2.00
+6.00,+18.00,-2.00,-4.00,-2.00,-2.00,+0.00,+0.00,-2.00,-4.00,-3.00,+3.00,+5.00,+2.00,+2.00,+2.00
-4.00,+0.00,-1.00,+1.00,-5.00,-4.00,-1.00,-3.00,+29.00,+6.00,+1.00,-5.00,+1.00,+0.00,-2.00,-2.00
-3.00,-5.00,-1.00,+1.00,+10.00,+2.00,-1.00,+0.00,+1.00,-1.00,+0.00,+4.00,-3.00,-1.00,+1.00,-1.00
-1.00,+1.00,-1.00,-2.00,-4.00,-1.00,-1.00,-2.00,-5.00,-1.00,-2.00,-4.00,+3.00,-3.00,-2.00,-2.00
-4.00,+3.00,+0.00,-1.00,+3.00,+0.00,-1.00,-2.00,-7.00,+0.00,-2.00,-1.00,-5.00,-1.00,-2.00,-1.00
-1.00,-30.00,-3.00,-2.00,-2.00,+0.00,-1.00,-1.00,-12.00,-3.00,-1.00,+7.00,-1.00,-2.00,+0.00,-2.00
-5.00,+6.00,+1.00,-2.00,-14.00,+0.00,-1.00,+1.00,-6.00,-5.00,-1.00,+13.00,+6.00,+0.00,-3.00,-2.00
-7.00,+5.00,-4.00,-3.00,-4.00,-3.00,-3.00,-3.00,+7.00,+2.00,+0.00,-25.00,-7.00,-2.00,+1.00,-3.00
+9.00,-12.00,+0.00,+3.00,-7.00,-4.00,+2.00,+2.00,+0.00,-2.00,+2.00,-6.00,-7.00,+0.00,-2.00,-1.00
-6.00,-2.00,-3.00,-2.00,-3.00,-4.00,-3.00,+0.00,-11.00,+0.00,-2.00,-2.00,+3.00,-1.00,+0.00,-2.00
-2.00,-7.00,-1.00,+2.00,+17.00,+0.00,+2.00,+2.00,+4.00,+3.00,+0.00,+0.00,-4.00,+0.00,+0.00,+0.00
-4.00,-13.00,-1.00,+2.00,+20.00,+5.00,+0.00,+1.00,+6.00,-6.00,-5.00,+5.00,+6.00,-1.00,-2.00,-2.00
+1.00,+7.00,+1.00,-1.00,+3.00,+0.00,-2.00,-1.00,-40.00,-17.00,-1.00,+6.00,-12.00,-2.00,-3.00,-8.00
-5.00,-22.00,-2.00,-2.00,-4.00,+0.00,+1.00,-3.00,-14.00,+21.00,-2.00,+4.00,+37.00,+2.00,+0.00,+4.00
+6.00,+1.00,-2.00,-4.00,-14.00,+2.00,+1.00,+1.00,+13.00,+1.00,+2.00,-12.00,-28.00,-5.00,-3.00,-1.00
+0.00,+3.00,-2.00,-3.00,-6.00,-3.00,+0.00,-1.00,+1.00,-8.00,-3.00,+31.00,+22.00,+3.00,+2.00,+4.00
+1.00,-4.00,+1.00,-1.00,-23.00,-1.00,-1.00,+0.00,-3.00,-8.00,+3.00,-52.00,-10.00,-1.00,-2.00,+1.00
-6.00,+15.00,+1.00,+1.00,-4.00,-1.00,-1.00,-3.00,+11.00,+13.00,-1.00,+0.00,+2.00,-2.00,-1.00,-3.00
-10.00,-8.00,+1.00,+1.00,+14.00,+1.00,+0.00,-3.00,-12.00,+12.00,+2.00,-3.00,+19.00,-1.00,-1.00,-1.00
+21.00,+18.00,+2.00,-2.00,-5.00,+0.00,+0.00,+4.00,-13.00,-27.00,+0.00,+8.00,-8.00,+1.00,+1.00,+1.00
-4.00,-15.00,-5.00,-4.00,+1.00,-1.00,-3.00,-2.00,-41.00,+24.00,+0.00,+43.00,+14.00,+0.00,-2.00,-12.00
-4.00,+33.00,-5.00,-7.00,-26.00,-4.00,-2.00,-4.00,+26.00,-21.00,+2.00,-12.00,-38.00,+0.00,-1.00,+11.00
+3.00,+24.00,-1.00,-6.00,-19.00,-2.00,-1.00,-1.00,+67.00,+3.00,-3.00,-32.00,+6.00,-5.00,-3.00,-4.00
-1.00,-64.00,-4.00,+4.00,+7.00,-5.00,+1.00,+0.00,-38.00,+3.00,-1.00,+12.00,-10.00,-2.00,-3.00,-5.00
-29.00,+69.00,+2.00,-1.00,+60.00,+4.00,+0.00,-4.00,+24.00,-97.00,-5.00,+0.00,+25.00,-1.00,+4.00,+1.00
+26.00,-9.00,-2.00,+0.00,-10.00,+0.00,+2.00,+4.00,-27.00,+90.00,-2.00,-3.00,+1.00,+7.00,+13.00,-8.00
-12.00,-13.00,+0.00,-1.00,+7.00,+4.00,-2.00,+0.00,+2.00,+37.00,+5.00,-9.00,-37.00,-28.00,-35.00,-3.00
+1.00,-8.00,-5.00,+0.00,-14.00,-4.00,-1.00,-3.00,+3.00,+0.00,-1.00,-11.00,+48.00,+3.00,+7.00,-3.00
-14.00,-11.00,+1.00,-2.00,-16.00,-1.00,-1.00,-4.00,-11.00,-2.00,-2.00,+1.00,-29.00,-3.00,+8.00,-5.00
-3.00,-31.00,-2.00,-1.00,-24.00,-9.00,-2.00,+1.00,-3.00,-29.00,-5.00,+15.00,-15.00,+4.00,-22.00,+4.00
+1.00,-3.00,-3.00,-6.00,-25.00,-10.00,-3.00,-2.00,-22.00,-49.00,-9.00,-2.00,+18.00,+2.00,+12.00,-3.00
+4.00,+27.00,+1.00,+4.00,+28.00,+11.00,+15.00,-1.00,-18.00,-47.00,-5.00,-4.00,-28.00,-1.00,+0.00,+4.00
+0.00,-67.00,-3.00,+3.00,+18.00,-1.00,-21.00,+1.00,+34.00,+97.00,+16.00,+18.00,-5.00,-4.00,-49.00,-3.00
+6.00,+78.00,+9.00,+0.00,+15.00,-1.00,-44.00,-2.00,+0.00,-23.00,+5.00,-15.00,-6.00,-7.00,+50.00,-5.00
+22.00,+26.00,+3.00,+0.00,-13.00,+4.00,+73.00,+6.00,+18.00,+57.00,+4.00,+0.00,-2.00,+4.00,+0.00,+8.00
-10.00,+3.00,-8.00,+1.00,-12.00,+7.00,+32.00,-1.00,-12.00,-54.00,-7.00,-9.00,-20.00,-2.00,-10.00,-1.00
+2.00,-39.00,+0.00,+0.00,-3.00,-3.00,+10.00,-3.00,+44.00,-60.00,-14.00,+21.00,+8.00,+2.00,+7.00,+2.00
+4.00,+8.00,-8.00,-3.00,-12.00,-7.00,+12.00,-2.00,-20.00,+55.00,+3.00,-34.00,+27.00,-37.00,-16.00,-7.00
-23.00,-27.00,-2.00,-1.00,+15.00,+4.00,-36.00,-5.00,-44.00,-11.00,+2.00,+21.00,+3.00,+58.00,-1.00,+3.00
-18.00,-54.00,+2.00,-4.00,+14.00,-1.00,-6.00,-6.00,-3.00,-16.00,-3.00,-12.00,+13.00,+1.00,+10.00,-5.00
+12.00,+102.00,+4.00,+2.00,-10.00,-4.00,+16.00,+0.00,+20.00,-47.00,-10.00,+9.00,+0.00,+5.00,-21.00,+6.00
-10.00,-56.00,-1.00,-2.00,+7.00,+8.00,+0.00,+6.00,-51.00,+2.00,+1.00,+10.00,-34.00,-8.00,-10.00,-9.00
-3.00,-47.00,-10.00,-1.00,-26.00,-7.00,-8.00,-2.00,+15.00,-62.00,-9.00,-24.00,-30.00,-21.00,+10.00,-3.00
+4.00,+36.00,+6.00,+1.00,-7.00,-8.00,-10.00,+1.00,+78.00,+120.00,+11.00,+2.00,-36.00,+10.00,+12.00,+9.00
-6.00,-11.00,-6.00,-8.00,-8.00,-1.00,-14.00,-1.00,+11.00,+20.00,+5.00,-22.00,+73.00,+6.00,-2.00,-13.00
-9.00,-9.00,-5.00,-4.00,+5.00,-9.00,+11.00,-5.00,+0.00,-53.00,-3.00,+17.00,+14.00,+11.00,-14.00,+0.00
+5.00,-17.00,-5.00,-3.00,-41.00,+1.00,+3.00,+1.00,-28.00,-53.00,-4.00,+8.00,+5.00,-2.00,+0.00,+1.00
-10.00,+19.00,+5.00,+5.00,+33.00,+4.00,-96.00,-4.00,-30.00,+57.00,+5.00,+0.00,-1.00,-1.00,-1.00,+1.00
-20.00,-116.00,-12.00,-2.00,-43.00,-2.00,+21.00,-3.00,-56.00,-23.00,-8.00,-5.00,-39.00,-5.00,-3.00,+0.00
+47.00,+117.00,+23.00,+7.00,+60.00,+5.00,+28.00,+9.00,+25.00,-107.00,-17.00,-7.00,-12.00,+6.00,-6.00,+6.00
-8.00,-46.00,+3.00,+1.00,+23.00,-1.00,+1.00,+2.00,-4.00,+35.00,+5.00,+11.00,+44.00,-6.00,-30.00,-8.00
+43.00,+64.00,+3.00,-1.00,+9.00,-8.00,-2.00,+8.00,+23.00,-1.00,-4.00,+0.00,-32.00,-6.00,-4.00,-2.00
-8.00,-5.00,+2.00,+3.00,-5.00,+12.00,+31.00,-1.00,-60.00,+14.00,-1.00,-7.00,+22.00,+2.00,+2.00,-6.00
-11.00,-77.00,-17.00,-1.00,+13.00,+8.00,+9.00,-3.00,+68.00,+67.00,+10.00,-13.00,-16.00,+1.00,+1.00,+4.00
-5.00,-16.00,-10.00,-1.00,-3.00,-10.00,-24.00,-2.00,-29.00,-54.00,-11.00,+25.00,+12.00,-2.00,-2.00,+6.00
+7.00,+19.00,+12.00,-3.00,-20.00,-7.00,+3.00,+0.00,-35.00,-66.00,-4.00,-10.00,-12.00,-5.00,-14.00,-8.00
+1.00,-7.00,-10.00,-2.00,+20.00,-4.00,+6.00,-1.00,+41.00,+73.00,-3.00,-15.00,-20.00,-6.00,+28.00,+6.00
-24.00,-73.00,-5.00,-3.00,-34.00,+4.00,-9.00,-7.00,-16.00,-6.00,+2.00,+16.00,+5.00,+3.00,-17.00,-4.00
+27.00,+48.00,+21.00,+1.00,+1.00,+4.00,-10.00,+8.00,-31.00,-2.00,-2.00,+6.00,+26.00,-1.00,+18.00,-4.00
-15.00,-34.00,-5.00,-1.00,-2.00,-5.00,+19.00,-2.00,+58.00,+26.00,+0.00,-5.00,+18.00,+0.00,-3.00,+4.00
+12.00,+97.00,-4.00,-6.00,-12.00,-4.00,-18.00,-2.00,-58.00,-2.00,-1.00,+15.00,-26.00,-5.00,+22.00,+0.00
-15.00,-64.00,-6.00,-1.00,-20.00,-13.00,-16.00,-4.00,+57.00,-36.00,-3.00,-11.00,-2.00,+2.00,+9.00,-5.00
+12.00,-7.00,-8.00,+3.00,+20.00,-2.00,-17.00,-9.00,-91.00,+47.00,+8.00,+5.00,+29.00,+1.00,+1.00,+1.00
+9.00,+3.00,-1.00,+0.00,+8.00,+3.00,-43.00,+2.00,+0.00,-37.00,-3.00,-7.00,+12.00,-2.00,+3.00,-5.00
+45.00,-14.00,+9.00,-2.00,-23.00,-7.00,+5.00,+2.00,+49.00,-35.00,-2.00,-16.00,-11.00,+0.00,-11.00,+7.00
-6.00,-22.00,-1.00,+4.00,+22.00,+5.00,+3.00,-1.00,-25.00,+33.00,+8.00,-1.00,-36.00,-4.00,+2.00,+3.00
+9.00,+5.00,+1.00,+1.00,-4.00,+1.00,+2.00,+0.00,-5.00,+37.00,+1.00,+16.00,-3.00,+1.00,-1.00,-12.00
-11.00,-4.00,-9.00,-11.00,-69.00,-8.00,+6.00,-5.00,+5.00,-11.00,-7.00,-25.00,-16.00,-13.00,+0.00,-5.00
-28.00,+22.00,+0.00,+6.00,+78.00,-1.00,-9.00,-1.00,+20.00,-9.00,+1.00,-9.00,+29.00,+18.00,+9.00,+10.00
-28.00,+9.00,+12.00,+3.00,-18.00,+9.00,+3.00,+3.00,-13.00,-21.00,-3.00,+1.00,+8.00,+5.00,+0.00,+0.00
-33.00,-111.00,-15.00,-5.00,+18.00,-5.00,+7.00,-3.00,+21.00,-106.00,-10.00,-10.00,-16.00,-5.00,+8.00,-8.00
-18.00,+75.00,+8.00,+3.00,+2.00,+9.00,+17.00,-3.00,-49.00,+104.00,+15.00,+1.00,+24.00,+7.00,-5.00,-1.00
-2.00,-33.00,+13.00,+6.00,+0.00,+5.00,-13.00,+0.00,+28.00,+31.00,+2.00,+28.00,-27.00,-13.00,-4.00,-5.00
+2.00,+26.00,-3.00,-3.00,-7.00,-7.00,+6.00,-3.00,-67.00,-52.00,-5.00,-22.00,+19.00,+4.00,+10.00,+3.00
+3.00,+6.00,-3.00,+3.00,+31.00,+4.00,-1.00,+1.00,+23.00,-12.00,+3.00,+1.00,-51.00,+1.00,-13.00,-13.00
+26.00,-12.00,-8.00,-10.00,-12.00,-5.00,+9.00,-2.00,+104.00,-12.00,-11.00,+11.00,+15.00,-14.00,-30.00,+4.00
-7.00,-4.00,-10.00,-10.00,-39.00,+4.00,-34.00,-9.00,-65.00,+24.00,+7.00,-8.00,+2.00,-2.00,-6.00,-15.00
+22.00,+11.00,+4.00,+5.00,+28.00,-6.00,+7.00,-1.00,+66.00,+23.00,-3.00,-1.00,-11.00,+0.00,-14.00,+17.00
+6.00,-13.00,+2.00,-2.00,-18.00,+2.00,+7.00,-1.00,+31.00,+45.00,+3.00,+9.00,-33.00,-3.00,+46.00,-1.00
+15.00,-24.00,-4.00,-1.00,+26.00,+8.00,+12.00,-1.00,-72.00,-52.00,-4.00,+4.00,+18.00,+0.00,+7.00,+0.00
+13.00,+33.00,+2.00,+4.00,+14.00,+6.00,-14.00,+4.00,+13.00,+23.00,+5.00,+7.00,-52.00,-5.00,+20.00,-2.00
-21.00,+44.00,-5.00,-5.00,-15.00,-1.00,-12.00,-4.00,-25.00,-14.00,-5.00,-13.00,+9.00,+4.00,-22.00,-8.00
-28.00,-56.00,+4.00,-1.00,-28.00,-10.00,-4.00,-3.00,+44.00,+70.00,+1.00,+11.00,+16.00,-7.00,-7.00,-1.00
-28.00,+61.00,+3.00,+3.00,+25.00,+10.00,+66.00,+4.00,-103.00,-22.00,+2.00,-9.00,+26.00,+7.00,-11.00,-8.00
+5.00,+25.00,-6.00,-7.00,-25.00,-8.00,-13.00,+0.00,+27.00,-31.00,-13.00,+7.00,-13.00,-8.00,+49.00,+12.00
+8.00,-65.00,-3.00,+4.00,-1.00,-6.00,+10.00,+4.00,-26.00,+8.00,-1.00,+10.00,+38.00,-4.00,-5.00,-6.00
-2.00,+127.00,+12.00,-1.00,+8.00,-7.00,+7.00,-2.00,+11.00,+6.00,+6.00,-33.00,-46.00,-9.00,-9.00,+5.00
-5.00,-86.00,-7.00,-1.00,+7.00,+12.00,-20.00,-2.00,-2.00,-29.00,-6.00,-2.00,-22.00,+2.00,+0.00,-4.00
+8.00,-31.00,-7.00,-1.00,-4.00,-8.00,+3.00,-3.00,-3.00,-24.00,-8.00,-10.00,+11.00,+4.00,-17.00,-4.00
+11.00,-46.00,+0.00,-1.00,-15.00,-1.00,+2.00,+4.00,+42.00,+30.00,+1.00,+8.00,-25.00,-5.00,+4.00,-1.00
+2.00,+65.00,-3.00,+3.00,+11.00,+7.00,+0.00,+1.00,-35.00,+0.00,-7.00,+1.00,+28.00,+0.00,-6.00,-8.00
-31.00,-55.00,+5.00,-1.00,-2.00,-5.00,-6.00,-5.00,-2.00,-17.00,-3.00,+3.00,-10.00,+4.00,+6.00,-3.00
-18.00,-36.00,-18.00,-7.00,-41.00,-8.00,+3.00,-6.00,+2.00,+20.00,+4.00,+10.00,+20.00,-2.00,-10.00,+5.00
+3.00,+80.00,+13.00,+7.00,+76.00,+5.00,-1.00,+2.00,-8.00,+5.00,-8.00,+1.00,-24.00,-3.00,+3.00,-5.00
-16.00,-12.00,+3.00,-5.00,-28.00,+5.00,-7.00,-2.00,+46.00,-42.00,-2.00,-30.00,+23.00,-1.00,-5.00,+8.00
-16.00,-45.00,-6.00,-2.00,-7.00,-13.00,-4.00,+4.00,-7.00,-12.00,-1.00,+8.00,-9.00,-5.00,+2.00,+6.00
-14.00,-38.00,+5.00,+2.00,-2.00,+5.00,+8.00,+1.00,-28.00,+30.00,+5.00,-5.00,+21.00,+2.00,-9.00,-5.00
-14.00,+31.00,+0.00,-4.00,-18.00,-3.00,-2.00,-8.00,-9.00,-21.00,-1.00,+15.00,+5.00,-4.00,+16.00,-2.00
-6.00,-12.00,-7.00,+2.00,+28.00,+7.00,-2.00,+0.00,-7.00,+16.00,-6.00,+1.00,+16.00,+0.00,-43.00,-8.00
+7.00,+52.00,-2.00,-2.00,-19.00,-3.00,+0.00,-2.00,+66.00,-52.00,-5.00,-28.00,-20.00,-1.00,+6.00,+3.00
+28.00,-33.00,+5.00,+1.00,+8.00,-2.00,+8.00,+6.00,-22.00,-6.00,+8.00,+19.00,+84.00,+4.00,-7.00,-6.00
-2.00,-23.00,-14.00,-11.00,-13.00,+3.00,-12.00,-5.00,-21.00,+23.00,-1.00,-20.00,-30.00,+5.00,+0.00,-7.00
+41.00,-33.00,+11.00,+3.00,+0.00,-9.00,-3.00,+2.00,-25.00,-66.00,+4.00,+13.00,-22.00,-6.00,+9.00,+12.00
+5.00,+58.00,-4.00,+2.00,+29.00,+14.00,-8.00,-5.00,+42.00,+29.00,+5.00,-16.00,+34.00,-6.00,+0.00,-1.00
+20.00,+65.00,+14.00,+6.00,+27.00,-1.00,+4.00,+5.00,-22.00,-71.00,-7.00,+15.00,-36.00,-1.00,-14.00,-6.00
+2.00,+11.00,-3.00,-7.00,-27.00,+2.00,-7.00,-1.00,+24.00,+54.00,+0.00,-26.00,+10.00,-4.00,+3.00,+1.00
+16.00,-85.00,-14.00,+0.00,+2.00,+6.00,+4.00,-3.00,+24.00,-19.00,-8.00,-9.00,-6.00,-5.00,+3.00,-3.00
+6.00,-5.00,+2.00,-2.00,-39.00,-16.00,-3.00,+4.00,+7.00,-38.00,-6.00,+14.00,-16.00,+3.00,-4.00,+8.00
-14.00,-6.00,-7.00,+0.00,-8.00,+1.00,-4.00,-9.00,-25.00,+57.00,+22.00,+4.00,-23.00,-5.00,+1.00,-4.00
+7.00,+7.00,-1.00,+2.00,+36.00,+16.00,+3.00,+8.00,+0.00,-13.00,-3.00,-2.00,+0.00,+2.00,-2.00,+8.00
-9.00,+62.00,-4.00,-4.00,-24.00,-14.00,-61.00,-8.00,-10.00,+6.00,+0.00,-1.00,+7.00,-1.00,+2.00,-8.00
+11.00,-20.00,-3.00,+3.00,-9.00,-5.00,+11.00,-2.00,-8.00,+31.00,+3.00,+7.00,-24.00,-1.00,+0.00,-12.00
+0.00,+5.00,+2.00,-4.00,+5.00,-7.00,-2.00,+0.00,+40.00,-12.00,-15.00,-3.00,-22.00,-6.00,-7.00,+3.00
+24.00,+26.00,+2.00,-3.00,-37.00,-7.00,+1.00,-2.00,+13.00,-74.00,+7.00,-3.00,+16.00,-1.00,+0.00,-2.00
-13.00,-49.00,-4.00,+3.00,+23.00,-6.00,+4.00,-1.00,-44.00,+29.00,-4.00,-2.00,+2.00,+4.00,+3.00,-5.00
-1.00,+11.00,-5.00,-1.00,-4.00,-3.00,-5.00,-1.00,-4.00,-26.00,+3.00,+30.00,+35.00,+3.00,+3.00,-2.00
+0.00,-3.00,+0.00,-2.00,+19.00,+7.00,-2.00,+1.00,+29.00,+53.00,-1.00,-52.00,+3.00,-1.00,-4.00,+3.00
+7.00,-35.00,-7.00,-4.00,-14.00,-5.00,-14.00,-7.00,+3.00,-30.00,+0.00,+21.00,-5.00,-4.00,-2.00,-5.00
+6.00,+9.00,-5.00,+1.00,+18.00,-5.00,+10.00,+7.00,-28.00,-44.00,-5.00,+27.00,-31.00,+0.00,+5.00,-1.00
+9.00,-2.00,+11.00,+5.00,+1.00,+2.00,+0.00,-1.00,-22.00,+47.00,-5.00,-30.00,-6.00,-5.00,-4.00,-6.00
-14.00,-1.00,+12.00,-2.00,-6.00,-10.00,+7.00,-2.00,-7.00,-3.00,+2.00,-11.00,-13.00,-2.00,-3.00,-3.00
-35.00,-5.00,-14.00,-9.00,-14.00,+1.00,-6.00,-5.00,+11.00,+38.00,-5.00,-2.00,+2.00,+2.00,+3.00,+1.00
-32.00,-55.00,-3.00,-4.00,-9.00,+5.00,+10.00,-5.00,+10.00,+19.00,+2.00,+2.00,+5.00,+0.00,+2.00,+6.00
-14.00,-2.00,-9.00,-1.00,-3.00,-2.00,+3.00,+0.00,+16.00,+8.00,+7.00,+22.00,+1.00,-2.00,+1.00,-1.00
-1.00,-31.00,-11.00,-1.00,-15.00,-9.00,-9.00,+0.00,+52.00,-40.00,-10.00,-13.00,+9.00,+5.00,-4.00,+0.00
+19.00,+77.00,+14.00,+5.00,+20.00,+3.00,-2.00,+5.00,-42.00,+11.00,-9.00,-14.00,-7.00,-3.00,-4.00,-6.00
-26.00,-2.00,-4.00,+2.00,-14.00,-13.00,+4.00,-6.00,-3.00,-86.00,-12.00,+1.00,+10.00,-2.00,+8.00,+2.00
+4.00,-77.00,+14.00,+5.00,+13.00,+3.00,-3.00,+3.00,-18.00,+98.00,+15.00,+0.00,-34.00,+3.00,-7.00,-5.00
+4.00,-32.00,-4.00,-2.00,-37.00,+4.00,+1.00,+1.00,+69.00,+2.00,-4.00,+10.00,+77.00,+2.00,+1.00,+6.00
-11.00,-27.00,-5.00,+2.00,+46.00,+2.00,-1.00,+0.00,-36.00,-22.00,-4.00,-5.00,+5.00,+14.00,-3.00,-3.00
-12.00,+45.00,-8.00,-5.00,-8.00,+6.00,+7.00,-3.00,+32.00,+61.00,+7.00,-15.00,-8.00,-9.00,-2.00,-3.00
+0.00,+27.00,+6.00,+0.00,+8.00,+0.00,-2.00,+0.00,-15.00,-57.00,-8.00,-10.00,-16.00,-7.00,+2.00,-3.00
+4.00,+23.00,+2.00,-2.00,-20.00,+4.00,+1.00,+2.00,-15.00,-6.00,+0.00,+10.00,-26.00,-2.00,+0.00,+5.00
-4.00,-57.00,-9.00,-7.00,-52.00,-11.00,+0.00,-1.00,-46.00,+53.00,+5.00,+11.00,+14.00,+0.00,+0.00,-2.00
+18.00,+86.00,+7.00,+0.00,+24.00,+16.00,+1.00,+3.00,+33.00,+0.00,-2.00,+4.00,+9.00,+1.00,+0.00,+1.00
-4.00,-29.00,-9.00,-3.00,+12.00,-6.00,-3.00,-3.00,-8.00,-36.00,-10.00,-6.00,-15.00,-2.00,-3.00,-7.00
-12.00,-2.00,+3.00,-4.00,+1.00,-17.00,+42.00,-3.00,+17.00,+18.00,+6.00,+1.00,-3.00,-1.00,-1.00,-7.00
-3.00,-17.00,-6.00,+1.00,-17.00,-7.00,+4.00,+0.00,-25.00,-66.00,-4.00,+11.00,+3.00,-2.00,-3.00,-4.00
+8.00,-17.00,+4.00,+7.00,-13.00,-7.00,+7.00,+2.00,+34.00,+67.00,+8.00,-5.00,+13.00,+0.00,+2.00,+5.00
+17.00,+26.00,+0.00,+0.00,+13.00,+10.00,+8.00,+3.00,+39.00,-15.00,-5.00,+7.00,-26.00,-3.00,-2.00,+7.00
-10.00,-18.00,+0.00,+2.00,+19.00,+5.00,-12.00,-3.00,-25.00,-14.00,-1.00,+10.00,-13.00,+2.00,+0.00,-5.00
-4.00,-32.00,-2.00,-4.00,-5.00,+4.00,-7.00,-5.00,+17.00,-53.00,+2.00,-15.00,-15.00,-8.00,+8.00,+0.00
+1.00,+54.00,+2.00,-7.00,-5.00,-2.00,+8.00,-2.00,-40.00,+24.00,-8.00,-6.00,-29.00,-1.00,+0.00,-3.00
+17.00,-31.00,+3.00,+1.00,-19.00,+0.00,-10.00,+4.00,+6.00,+11.00,-3.00,-26.00,-29.00,+2.00,+2.00,+7.00
+13.00,+57.00,-1.00,+3.00,+18.00,+5.00,-6.00,+0.00,-11.00,-29.00,-11.00,+11.00,+33.00,-1.00,+7.00,-7.00
-7.00,-80.00,-1.00,+1.00,+1.00,+1.00,-4.00,-1.00,-25.00,-7.00,-3.00,-11.00,-31.00,-8.00,-6.00,-6.00
-12.00,-38.00,+2.00,-4.00,-22.00,-2.00,-9.00,-4.00,+17.00,-42.00,+5.00,+7.00,-15.00,+2.00,-6.00,+4.00
-19.00,-71.00,-5.00,-1.00,+0.00,-4.00,-1.00,-6.00,+32.00,-29.00,-6.00,-7.00,+5.00,-2.00,+1.00,+1.00
+2.00,-4.00,+4.00,+2.00,+20.00,+16.00,-6.00,+0.00,-47.00,+38.00,+2.00,+6.00,-47.00,-4.00,+0.00,-3.00
-23.00,+13.00,-11.00,-6.00,-29.00,-11.00,+2.00,-6.00,+75.00,+21.00,+8.00,+3.00,+21.00,-1.00,+4.00,+9.00
+34.00,+15.00,-1.00,-2.00,+10.00,+1.00,+1.00,+9.00,-23.00,+14.00,-5.00,-15.00,+7.00,+4.00,+1.00,-1.00
-3.00,-40.00,-13.00,-1.00,-20.00,-10.00,-6.00,-7.00,-25.00,-20.00,-8.00,+2.00,-3.00,-1.00,-6.00,-4.00
+4.00,-12.00,+5.00,+0.00,-45.00,-4.00,+1.00,+5.00,-5.00,+47.00,-6.00,-13.00,+43.00,-5.00,-3.00,-1.00
-6.00,-10.00,+2.00,+4.00,+51.00,+10.00,-7.00,-4.00,+47.00,+60.00,+9.00,+2.00,-10.00,-9.00,-2.00,-1.00
-1.00,+83.00,+4.00,-1.00,-16.00,-1.00,-53.00,-9.00,-82.00,-62.00,+0.00,-4.00,+16.00,+0.00,-6.00,-8.00
-6.00,-24.00,-8.00,-8.00,-9.00,-10.00,+13.00,+1.00,+55.00,+123.00,+24.00,+10.00,+26.00,+4.00,+8.00,+15.00
-6.00,-22.00,-6.00,-1.00,+11.00,-6.00,+1.00,-1.00,-4.00,-120.00,-11.00,+5.00,-49.00,-1.00,-5.00,-2.00
+1.00,+22.00,+8.00,+3.00,-3.00,+1.00,+1.00,+5.00,-77.00,+83.00,-1.00,-3.00,+6.00,+3.00,-6.00,-8.00
-3.00,-37.00,-1.00,-1.00,-4.00,-2.00,-2.00,-1.00,+68.00,+21.00,+3.00,-3.00,+11.00,+0.00,+0.00,-1.00
+2.00,-39.00,-10.00,-5.00,-18.00,+1.00,-3.00,+0.00,-18.00,-3.00,+2.00,+10.00,-7.00,-6.00,-1.00,+4.00
+7.00,+84.00,+9.00,+0.00,+14.00,-1.00,-11.00,+0.00,-22.00,-105.00,-6.00,-12.00,-38.00,+1.00,-3.00,+2.00
+2.00,+6.00,+0.00,-1.00,-1.00,-2.00,-7.00,+0.00,-6.00,+82.00,+1.00,+10.00,+1.00,-1.00,-3.00,+4.00
-30.00,-68.00,-6.00,+3.00,+2.00,-3.00,+7.00,-2.00,+11.00,-15.00,-5.00,-11.00,+1.00,-1.00,+3.00,-4.00
+16.00,+80.00,+5.00,-2.00,+11.00,-9.00,-6.00,-4.00,-39.00,+47.00,+5.00,-17.00,+53.00,+2.00,-4.00,-10.00
-8.00,-33.00,-5.00,+0.00,-3.00,+4.00,+6.00,+3.00,+10.00,-1.00,+6.00,+8.00,+71.00,-10.00,-5.00,+0.00
-20.00,-21.00,-1.00,+3.00,+3.00,-4.00,-3.00,-7.00,-21.00,-128.00,-15.00,+20.00,-64.00,+22.00,-1.00,-1.00
+26.00,+31.00,+16.00,-1.00,-3.00,+10.00,+12.00,+6.00,+24.00,+115.00,+11.00,-23.00,-28.00,-10.00,+1.00,+6.00
-7.00,-19.00,-3.00,-3.00,+4.00,+4.00,+7.00,+2.00,+2.00,-14.00,-19.00,+18.00,+4.00,+1.00,-4.00,-3.00
+11.00,+3.00,-13.00,-9.00,-6.00,-11.00,-11.00,-4.00,+1.00,-65.00,+0.00,-37.00,-34.00,+2.00,+5.00,+6.00
-2.00,+33.00,-6.00,-3.00,+26.00,+10.00,+2.00,+0.00,+16.00,-8.00,+4.00,+4.00,+12.00,-6.00,+1.00,+1.00
-4.00,+2.00,-4.00,+1.00,-1.00,-3.00,+9.00,+2.00,+12.00,-9.00,-4.00,+10.00,-8.00,+2.00,-5.00,-3.00
-7.00,+83.00,-3.00,+0.00,+8.00,+2.00,-11.00,-6.00,-2.00,-21.00,-9.00,-5.00,-15.00,-2.00,-4.00,-10.00
+2.00,-3.00,-1.00,-4.00,+12.00,+2.00,-5.00,-1.00,+4.00,+26.00,-5.00,+7.00,-2.00,+0.00,-2.00,+3.00
+10.00,+11.00,+3.00,+8.00,+0.00,-2.00,+2.00,+8.00,+27.00,-16.00,-5.00,+13.00,+32.00,-1.00,-1.00,-3.00
-14.00,-49.00,-7.00,-5.00,-34.00,-19.00,+5.00,-6.00,-36.00,-9.00,-3.00,-10.00,-8.00,+6.00,-1.00,-4.00
+0.00,+77.00,+0.00,+3.00,+60.00,-10.00,+2.00,+7.00,+2.00,-9.00,+1.00,+7.00,+14.00,-7.00,+0.00,-2.00
-23.00,-59.00,+4.00,-3.00,+6.00,-5.00,-74.00,-10.00,+9.00,+0.00,+2.00,-2.00,-5.00,-2.00,-3.00,-4.00
+19.00,+11.00,+9.00,-2.00,-23.00,-4.00,+25.00,+7.00,-22.00,+18.00,+1.00,-1.00,+12.00,-3.00,+0.00,-5.00
+24.00,-20.00,-9.00,+3.00,+39.00,+8.00,+6.00,+5.00,-15.00,-21.00,+1.00,-2.00,+17.00,+0.00,-2.00,+0.00
-18.00,-22.00,+16.00,-1.00,-19.00,-2.00,-3.00,-6.00,+4.00,-31.00,-1.00,-10.00,+7.00,+1.00,-2.00,-1.00
-21.00,-33.00,-8.00,+6.00,+15.00,+1.00,-1.00,-2.00,-64.00,+68.00,-5.00,+13.00,+2.00,+4.00,-3.00,-10.00
+2.00,+5.00,-3.00,-4.00,-21.00,-12.00,-9.00,-4.00,+32.00,+17.00,+11.00,-4.00,-22.00,-8.00,-1.00,+7.00
-8.00,-27.00,+1.00,-2.00,+8.00,+4.00,-2.00,-3.00,-28.00,-109.00,-10.00,-2.00,-1.00,-3.00,+3.00,+6.00
-6.00,-44.00,-5.00,+0.00,-21.00,+1.00,-8.00,-4.00,+0.00,+39.00,+14.00,+7.00,-4.00,+2.00,-2.00,-14.00
+9.00,+56.00,-2.00,-4.00,+2.00,+10.00,+19.00,+0.00,+13.00,+1.00,-9.00,-9.00,+28.00,-3.00,-1.00,+12.00
+4.00,+44.00,+8.00,-1.00,-3.00,-18.00,-6.00,-2.00,-27.00,-32.00,-9.00,-10.00,+2.00,-4.00,-5.00,-12.00
-8.00,-40.00,-1.00,+2.00,+6.00,+5.00,+12.00,-3.00,+9.00,+31.00,+7.00,+10.00,+35.00,+0.00,-2.00,-2.00
+17.00,-4.00,-3.00,-1.00,-8.00,+4.00,+1.00,+6.00,+24.00,+5.00,-8.00,-9.00,-38.00,-4.00,-2.00,+7.00
+6.00,+4.00,-1.00,+3.00,+4.00,+1.00,+12.00,+0.00,-37.00,-1.00,+1.00,+11.00,-33.00,-4.00,+1.00,-6.00
-10.00,-66.00,-6.00,+1.00,+1.00,+2.00,+0.00,+0.00,+11.00,+20.00,+1.00,+8.00,+47.00,-5.00,+1.00,+8.00
+20.00,+96.00,+5.00,-8.00,-32.00,-10.00,-13.00,+1.00,+13.00,-33.00,-7.00,+24.00,+5.00,-28.00,+1.00,+8.00
-33.00,-32.00,-8.00,+4.00,+12.00,-2.00,+2.00,-4.00,-34.00,-27.00,-4.00,-14.00,+1.00,+26.00,+12.00,-3.00
+36.00,+48.00,+21.00,+5.00,-21.00,-9.00,+13.00,+13.00,+14.00,-20.00,-3.00,-12.00,+5.00,+0.00,+1.00,-8.00
-25.00,-7.00,-6.00,+1.00,+30.00,+22.00,+5.00,-3.00,+24.00,+27.00,-2.00,+14.00,-38.00,+6.00,-31.00,-2.00
+2.00,-8.00,-8.00,-6.00,+0.00,-4.00,-2.00,+2.00,-24.00,+41.00,+6.00,-22.00,+0.00,+17.00,-2.00,-4.00
+4.00,-4.00,-7.00,-5.00,+3.00,+12.00,-4.00,-9.00,+33.00,-3.00,+4.00,+31.00,+17.00,-11.00,-4.00,+4.00
-11.00,+0.00,-7.00,-3.00,-5.00,+2.00,+7.00,-2.00,-2.00,+12.00,-6.00,-41.00,-36.00,+7.00,+14.00,+0.00
-30.00,-43.00,-5.00,-1.00,+2.00,-5.00,-5.00,-14.00,+37.00,-55.00,-1.00,+3.00,+11.00,-7.00,+8.00,+0.00
-8.00,+28.00,+0.00,-1.00,-13.00,+1.00,-32.00,+2.00,-61.00,+18.00,+2.00,+4.00,+18.00,-10.00,-3.00,-15.00
-14.00,-3.00,-2.00,-7.00,-13.00,-8.00,-38.00,-4.00,-17.00,+9.00,-5.00,+2.00,+6.00,-6.00,-9.00,-4.00
+3.00,-51.00,-4.00,+1.00,-2.00,+13.00,+15.00,+3.00,+26.00,-37.00,+9.00,+2.00,-12.00,+7.00,-6.00,+12.00
+9.00,+56.00,+5.00,+0.00,+0.00,+1.00,+2.00,-4.00,-16.00,+36.00,+1.00,-2.00,+3.00,+3.00,+6.00,-1.00
-18.00,-21.00,-6.00,-4.00,+9.00,+14.00,+6.00,-6.00,+18.00,+8.00,+2.00,-6.00,-3.00,+0.00,+7.00,+2.00
-1.00,-58.00,-6.00,-3.00,-25.00,-4.00,-42.00,-3.00,-38.00,-52.00,-2.00,+0.00,+10.00,+0.00,-4.00,-9.00
-12.00,+26.00,-3.00,-1.00,-2.00,-10.00,+0.00,-2.00,+43.00,+12.00,+3.00,+11.00,+9.00,-10.00,-7.00,+1.00
+13.00,+15.00,+2.00,-4.00,-17.00,+5.00,-12.00,+5.00,-52.00,-26.00,-21.00,-13.00,+2.00,-3.00,+7.00,-2.00
+42.00,-34.00,+1.00,+6.00,+44.00,+5.00,+11.00,+9.00,+45.00,+15.00,+0.00,+4.00,-26.00,+2.00,+0.00,-3.00
+18.00,+64.00,+8.00,-3.00,-7.00,+15.00,+19.00,-3.00,+12.00,-7.00,-3.00,-4.00,-91.00,-5.00,-72.00,+11.00
+2.00,-10.00,-1.00,-1.00,-4.00,-17.00,+3.00,-5.00,+6.00,-64.00,-5.00,-2.00,+25.00,-13.00,+32.00,-10.00
+15.00,-28.00,+1.00,+0.00,-22.00,-4.00,+1.00,+5.00,-23.00,+88.00,+5.00,+8.00,-3.00,-26.00,-13.00,+11.00
-29.00,+20.00,+0.00,-2.00,-4.00,-9.00,+6.00,-3.00,+12.00,-1.00,-11.00,+2.00,+13.00,+24.00,-5.00,+6.00
-22.00,-59.00,-9.00,-7.00,-19.00,-3.00,-27.00,-4.00,+13.00,-8.00,-9.00,-23.00,+14.00,-26.00,-4.00,-16.00
-8.00,+69.00,+4.00,+2.00,+23.00,+2.00,+55.00,+4.00,+3.00,-10.00,-2.00,+6.00,-11.00,+40.00,-4.00,+0.00
-3.00,+1.00,-1.00,+1.00,-5.00,-4.00,-11.00,-1.00,+22.00,-49.00,+3.00,+14.00,+18.00,-10.00,+1.00,+0.00
-13.00,-32.00,+1.00,+3.00,+6.00,+6.00,+2.00,+0.00,-61.00,+22.00,-8.00,-13.00,+7.00,-6.00,+4.00,-5.00
+16.00,+42.00,+4.00,-3.00,-19.00,-16.00,+15.00,+6.00,-3.00,-26.00,-5.00,+2.00,-11.00,-1.00,+9.00,-9.00
-4.00,+8.00,-2.00,+1.00,+7.00,+13.00,-33.00,+2.00,+48.00,+24.00,-1.00,-4.00,+40.00,+1.00,-4.00,+11.00
-1.00,-7.00,-3.00,-1.00,+13.00,-8.00,+21.00,-1.00,+3.00,-32.00,-10.00,+21.00,+8.00,-17.00,+18.00,-3.00
-9.00,-25.00,-1.00,-4.00,-13.00,+8.00,+34.00,+3.00,+6.00,+12.00,-5.00,-16.00,-31.00,+15.00,-9.00,-2.00
+31.00,+47.00,+6.00,+7.00,+23.00,+2.00,+24.00,+3.00,+9.00,-2.00,-1.00,-6.00,+68.00,-7.00,+27.00,+6.00
-23.00,-54.00,-15.00,-7.00,+1.00,-3.00,-25.00,-11.00,-65.00,-15.00,+3.00,-2.00,-11.00,-6.00,-9.00,-14.00
+33.00,+76.00,+20.00,+6.00,+14.00,+7.00,-73.00,+3.00,-11.00,+49.00,-2.00,+12.00,-12.00,+15.00,+6.00,-2.00
-38.00,-76.00,-7.00,-4.00,-23.00,-18.00,-14.00,-8.00,+26.00,-8.00,+15.00,+35.00,+35.00,-1.00,-28.00,+4.00
-3.00,+5.00,+2.00,+3.00,+0.00,+14.00,+21.00,-3.00,-10.00,+2.00,-3.00,-38.00,-43.00,-4.00,+3.00,+5.00
+0.00,+18.00,+7.00,+2.00,+4.00,-3.00,+14.00,+2.00,-32.00,+34.00,+6.00,+17.00,-31.00,-13.00,-8.00,-14.00
+12.00,-38.00,-6.00,-4.00,-23.00,-4.00,-4.00,+4.00,+13.00,-7.00,+9.00,-27.00,+83.00,-26.00,-4.00,-1.00
+16.00,+127.00,+4.00,+1.00,+35.00,-8.00,-9.00,-1.00,-39.00,-30.00,-7.00,+24.00,-6.00,+38.00,+8.00,+1.00
+6.00,-34.00,-2.00,-1.00,+0.00,+17.00,-1.00,+1.00,+7.00,+34.00,+0.00,-26.00,+14.00,+11.00,+17.00,-1.00
+9.00,+3.00,+2.00,+2.00,-19.00,-8.00,-5.00,-5.00,+1.00,+49.00,+5.00,-8.00,-38.00,-4.00,-7.00,+8.00
-2.00,+2.00,-17.00,-5.00,+5.00,-36.00,+14.00,-5.00,+20.00,-21.00,-1.00,-20.00,-14.00,+9.00,-9.00,-2.00
+30.00,-61.00,+6.00,+2.00,-3.00,+4.00,-2.00,-5.00,-37.00,-2.00,+1.00,+2.00,-48.00,-25.00,+36.00,-17.00
+11.00,+88.00,+2.00,-7.00,-31.00,-14.00,+15.00,+4.00,+33.00,+3.00,+8.00,+39.00,+54.00,+6.00,-39.00,+15.00
+15.00,-21.00,-5.00,+0.00,+15.00,+4.00,-4.00,-1.00,-2.00,+16.00,-5.00,-25.00,-13.00,+7.00,+4.00,+4.00
+24.00,+2.00,+0.00,+0.00,-8.00,+5.00,-4.00,-8.00,-25.00,-49.00,-2.00,+2.00,+41.00,-8.00,-14.00,-5.00
+46.00,-22.00,-2.00,-1.00,+11.00,-4.00,+10.00,+5.00,+74.00,-18.00,+0.00,-5.00,-16.00,-1.00,+58.00,+18.00
-2.00,-22.00,-2.00,+0.00,+25.00,-7.00,-28.00,-4.00,-19.00,-1.00,-2.00,+5.00,-16.00,-3.00,+4.00,-15.00
-61.00,-18.00,+0.00,-1.00,-37.00,+1.00,+35.00,-4.00,-58.00,-28.00,-5.00,+0.00,-18.00,-2.00,-3.00,-21.00
-57.00,+32.00,-9.00,-7.00,+1.00,+18.00,+10.00,+2.00,+20.00,+60.00,+11.00,+2.00,-31.00,+11.00,+23.00,+1.00
-13.00,+16.00,+4.00,+4.00,+3.00,-5.00,-7.00,+5.00,+14.00,-2.00,-4.00,-22.00,+9.00,-8.00,-47.00,-7.00
-5.00,-8.00,+3.00,-3.00,-8.00,+3.00,+11.00,-2.00,-43.00,+8.00,+4.00,+7.00,+18.00,+2.00,+21.00,+0.00
+23.00,+10.00,-5.00,-1.00,-2.00,-6.00,-11.00,+5.00,+24.00,+6.00,-7.00,+11.00,+16.00,-8.00,-8.00,+5.00
-39.00,-117.00,-9.00,-4.00,-18.00,-4.00,+25.00,-4.00,+9.00,-24.00,+0.00,-6.00,-23.00,+13.00,-5.00,-5.00
-41.00,+56.00,+11.00,+1.00,+21.00,+16.00,-6.00,-7.00,+7.00,-21.00,-6.00,-21.00,+27.00,-22.00,-7.00,-10.00
-42.00,+11.00,-2.00,+3.00,+10.00,-10.00,+7.00,+5.00,-31.00,+10.00,-5.00,+4.00,+2.00,+2.00,-2.00,-8.00
-34.00,-33.00,+0.00,-4.00,-19.00,-2.00,-5.00,-3.00,+47.00,+14.00,-3.00,+0.00,-16.00,-20.00,-9.00,+3.00
-15.00,+4.00,+5.00,+4.00,+44.00,+2.00,-6.00,+5.00,-25.00,-29.00,-2.00,+1.00,-35.00,-17.00,+2.00,-5.00
-1.00,-10.00,-9.00,-2.00,-5.00,+4.00,+0.00,-12.00,+4.00,-90.00,-13.00,+9.00,-1.00,+14.00,-17.00,-9.00
-14.00,-16.00,-1.00,-4.00,-1.00,+6.00,-5.00,-3.00,-6.00,+70.00,+11.00,-1.00,+95.00,+7.00,+10.00,+16.00
+32.00,-37.00,-4.00,+0.00,-15.00,-1.00,-2.00,+0.00,+7.00,+27.00,+2.00,-7.00,-52.00,-2.00,+0.00,+7.00
+54.00,+78.00,+0.00,-2.00,-33.00,-3.00,+4.00,+4.00,+7.00,-7.00,+1.00,+1.00,-11.00,-14.00,-2.00,-10.00
+16.00,-53.00,+9.00,+5.00,+21.00,-4.00,-1.00,+2.00,+17.00,-27.00,-2.00,+7.00,+8.00,-26.00,+13.00,+18.00
+19.00,-16.00,-1.00,+6.00,+14.00,+1.00,+11.00,-3.00,+57.00,-50.00,-4.00,+2.00,-25.00,+5.00,+0.00,+1.00
-3.00,-27.00,-9.00,-7.00,-2.00,+12.00,-17.00,-9.00,-47.00,-4.00,-8.00,+5.00,+7.00,+6.00,-4.00,+1.00
+53.00,+42.00,+5.00,-1.00,-16.00,-1.00,+5.00,+13.00,+45.00,+54.00,+1.00,-9.00,-18.00,+16.00,-2.00,+2.00
+21.00,+18.00,-5.00,-6.00,-8.00,+1.00,+14.00,+2.00,-48.00,+8.00,+1.00,-13.00,-33.00,-17.00,-24.00,-6.00
+0.00,+14.00,-2.00,+1.00,-4.00,+2.00,-43.00,-4.00,-13.00,-20.00,-4.00,+7.00,-23.00,+1.00,+12.00,+5.00
+11.00,-8.00,-4.00,-3.00,-4.00,-7.00,-13.00,-2.00,+33.00,+19.00,+7.00,+18.00,+11.00,-4.00,-28.00,+3.00
-12.00,-18.00,+4.00,+1.00,-1.00,+8.00,+10.00,+0.00,-39.00,-29.00,-7.00,-11.00,-18.00,-4.00,+44.00,-10.00
+52.00,-24.00,-4.00,-1.00,+5.00,+7.00,-5.00,+4.00,+62.00,+40.00,+1.00,+10.00,+15.00,+5.00,+16.00,+14.00
+12.00,-34.00,+1.00,-2.00,-5.00,-18.00,+42.00,+3.00,-32.00,+18.00,+3.00,-31.00,-22.00,-4.00,-29.00,-18.00
-2.00,+44.00,+1.00,-1.00,+6.00,+8.00,-6.00,+0.00,-11.00,-25.00,+0.00,+11.00,+11.00,-2.00,+6.00,+3.00
-29.00,-46.00,-3.00,+0.00,+27.00,+9.00,+10.00,+0.00,-19.00,-24.00,-4.00,-6.00,+27.00,+12.00,-17.00,+5.00
-29.00,+16.00,-3.00,-5.00,-39.00,-1.00,+3.00,-4.00,+15.00,+24.00,+10.00,+16.00,-30.00,-30.00,-12.00,-4.00
-63.00,-50.00,-2.00,+0.00,+12.00,+0.00,-37.00,-2.00,-3.00,-3.00,-3.00,+1.00,-7.00,+45.00,+1.00,-13.00
-23.00,+3.00,+8.00,+7.00,+41.00,+7.00,-1.00,+2.00,-6.00,-4.00,+2.00,-6.00,+17.00,-1.00,+17.00,+5.00
-15.00,-35.00,-8.00,-4.00,-1.00,-13.00,-12.00,-12.00,+10.00,+3.00,+2.00,+1.00,+1.00,+13.00,-9.00,+19.00
+44.00,+33.00,+6.00,+6.00,+10.00,-1.00,+2.00,+12.00,-6.00,+24.00,-1.00,-10.00,+1.00,-7.00,+16.00,-14.00
+14.00,-5.00,-14.00,-8.00,-6.00,+3.00,+14.00,-3.00,+4.00,-39.00,-4.00,+11.00,-26.00,-13.00,-28.00,+18.00
-1.00,-14.00,-1.00,-4.00,-29.00,-3.00,+2.00,+1.00,+0.00,-15.00,-6.00,-2.00,+17.00,+6.00,-7.00,-8.00
-9.00,+42.00,+16.00,+8.00,+20.00,-7.00,-23.00,-2.00,+20.00,+7.00,-6.00,+1.00,-1.00,+33.00,+16.00,-6.00
-33.00,-10.00,-8.00,-2.00,-9.00,+5.00,+63.00,+2.00,-58.00,+22.00,-1.00,-4.00,+1.00,-15.00,-16.00,-2.00
+12.00,-29.00,+2.00,-1.00,-5.00,+4.00,+8.00,+0.00,-15.00,+1.00,+4.00,+15.00,+0.00,-9.00,+25.00,+3.00
+8.00,+50.00,+0.00,-1.00,-10.00,-3.00,-19.00,+3.00,+41.00,+26.00,-3.00,-23.00,+48.00,-14.00,-1.00,-12.00
-18.00,-84.00,-11.00,-6.00,-15.00,-2.00,+3.00,-14.00,-29.00,-52.00,-5.00,-6.00,-60.00,-8.00,-15.00,-3.00
-3.00,+71.00,+4.00,+1.00,+27.00,-3.00,-25.00,-3.00,+20.00,+52.00,+2.00,+18.00,+6.00,-2.00,+9.00,-5.00
+31.00,+22.00,+2.00,+2.00,-11.00,+2.00,-7.00,+2.00,-9.00,-89.00,-4.00,-24.00,-8.00,+0.00,-1.00,+9.00
-14.00,-57.00,-7.00,-2.00,+10.00,-5.00,+6.00,-11.00,-31.00,+33.00,-2.00,-1.00,-7.00,-15.00,-10.00,-23.00
+61.00,+18.00,-1.00,-3.00,-7.00,+11.00,+35.00,+8.00,-5.00,-13.00,-7.00,-9.00,+14.00,-1.00,-5.00,-14.00
-8.00,-20.00,-4.00,+1.00,-5.00,-6.00,-5.00,+1.00,+0.00,-11.00,-2.00,+3.00,+5.00,-1.00,+1.00,+9.00
-11.00,-4.00,-1.00,-2.00,+11.00,-3.00,+4.00,-3.00,+5.00,+0.00,-3.00,-6.00,-24.00,+34.00,-13.00,-8.00
-19.00,+13.00,+8.00,-1.00,-22.00,-27.00,-18.00,-5.00,+46.00,-29.00,+1.00,-11.00,-7.00,+13.00,+33.00,+10.00
-25.00,+8.00,-4.00,+0.00,+5.00,+28.00,+0.00,-2.00,-14.00,+0.00,-3.00,+18.00,+7.00,-11.00,-13.00,-31.00
-22.00,-70.00,-2.00,-1.00,-2.00,+9.00,-13.00,+0.00,+26.00,+52.00,+6.00,+5.00,-7.00,+29.00,+1.00,+24.00
-21.00,+71.00,+1.00,+0.00,-16.00,-8.00,+43.00,+2.00,+13.00,+5.00,+1.00,+6.00,+51.00,-26.00,+22.00,+7.00
+16.00,+3.00,-6.00,-3.00,+9.00,-2.00,-67.00,+2.00,+8.00,-2.00,-4.00,-10.00,-19.00,+2.00,-18.00,+0.00
+19.00,+45.00,+5.00,+1.00,+1.00,+5.00,+94.00,+12.00,+0.00,-30.00,-1.00,+8.00,+15.00,-17.00,+18.00,+31.00
-14.00,-35.00,-4.00,-2.00,-12.00,-14.00,-32.00,-12.00,-14.00,-15.00,-4.00,-9.00,-9.00,+7.00,-19.00,-23.00
-29.00,-17.00,-5.00,-3.00,-8.00,+3.00,+1.00,-13.00,+21.00,+4.00,-3.00,+24.00,-25.00,-17.00,+27.00,+8.00
+26.00,-19.00,-6.00,-3.00,-29.00,+8.00,+11.00,+5.00,-10.00,+14.00,+1.00,-33.00,+1.00,+14.00,+9.00,+8.00
+39.00,+21.00,+9.00,+2.00,+15.00,-7.00,-24.00,+4.00,+6.00,+30.00,+2.00,-4.00,+33.00,-7.00,-13.00,-26.00
+0.00,-20.00,-9.00,-4.00,-14.00,+3.00,-20.00,-7.00,-90.00,-78.00,-9.00,-11.00,-4.00,+1.00,+2.00,+30.00
+30.00,-8.00,-2.00,-8.00,-17.00,-1.00,+3.00,+0.00,+23.00,-1.00,+1.00,+1.00,-4.00,-10.00,-5.00,-1.00
+37.00,+28.00,+14.00,+4.00,+22.00,+1.00,-22.00,+9.00,-11.00,-17.00,+0.00,+20.00,-3.00,-1.00,+7.00,+34.00
-26.00,-16.00,-10.00,+2.00,+24.00,+1.00,+3.00,-10.00,+6.00,-9.00,+1.00,+1.00,-24.00,-41.00,-37.00,+12.00
+24.00,-3.00,+4.00,-1.00,-12.00,-7.00,-14.00,+8.00,-32.00,+31.00,+2.00,-11.00,+28.00,+39.00,+45.00,-39.00
+21.00,+9.00,+2.00,+0.00,-13.00,-7.00,-24.00,+1.00,+33.00,-21.00,-5.00,+0.00,-9.00,-6.00,-30.00,-5.00
-53.00,-42.00,-16.00,-4.00,+6.00,+14.00,+15.00,-10.00,+34.00,+48.00,+0.00,+12.00,+2.00,+15.00,+56.00,-19.00
+28.00,+11.00,+3.00,+2.00,+13.00,-1.00,-66.00,+5.00,-22.00,-18.00,-8.00,-7.00,+0.00,-3.00,+27.00,-16.00
-14.00,+55.00,-2.00,-1.00,+5.00,+5.00,+48.00,-3.00,-10.00,-17.00,-1.00,+8.00,-14.00,-12.00,-52.00,-1.00
+70.00,+11.00,+3.00,+4.00,+12.00,-1.00,-23.00,+5.00,+13.00,-4.00,+1.00,-10.00,+21.00,+18.00,-6.00,+7.00
+81.00,-51.00,+3.00,-1.00,+18.00,+8.00,+18.00,+14.00,-13.00,+32.00,+3.00,+15.00,-13.00,+0.00,-33.00,-12.00
-76.00,+70.00,+5.00,-1.00,-16.00,-11.00,-46.00,-17.00,+11.00,+22.00,+4.00,-17.00,+4.00,+2.00,-1.00,-10.00
-71.00,+7.00,+1.00,-2.00,-23.00,-2.00,+26.00,+8.00,+33.00,+3.00,+1.00,-11.00,-24.00,-6.00,+11.00,-28.00
-60.00,+2.00,-4.00,+0.00,+20.00,-4.00,-11.00,+3.00,-97.00,-4.00,-6.00,-6.00,-6.00,+1.00,-1.00,-43.00
-68.00,-2.00,-8.00,-1.00,+4.00,-1.00,+35.00,-16.00,+22.00,+7.00,-2.00,+4.00,+8.00,-12.00,-18.00,+27.00
-9.00,-11.00,-8.00,-7.00,-8.00,-6.00,-9.00,-2.00,-8.00,+19.00,+5.00,+8.00,+5.00,+24.00,-6.00,-70.00
+46.00,-54.00,-1.00,+2.00,+6.00,-6.00,-20.00,+3.00,+8.00,-29.00,-4.00,-1.00,+1.00,-8.00,-13.00,-93.00
+56.00,-30.00,+9.00,+2.00,-2.00,+12.00,+35.00,+12.00,-28.00,+41.00,+4.00,-2.00,-22.00,-19.00,+10.00,-77.00
+26.00,+44.00,+0.00,-3.00,-16.00,-8.00,-16.00,+3.00,-50.00,+0.00,+3.00,-6.00,+7.00,+3.00,+5.00,+41.00
+4.00,-47.00,-8.00,-4.00,+12.00,+4.00,+12.00,-11.00,+7.00,+5.00,-1.00,+31.00,-14.00,-2.00,-4.00,+123.00
+1.00,+36.00,-1.00,-2.00,+2.00,-12.00,+19.00,-3.00,+72.00,-9.00,-8.00,-38.00,+8.00,+9.00,-2.00,+90.00
+2.00,-5.00,+3.00,+0.00,+1.00,+3.00,-26.00,-6.00,+12.00,+54.00,+1.00,-6.00,-16.00,+8.00,+12.00,+50.00
-39.00,-52.00,-4.00,+2.00,+7.00,+0.00,+75.00,+0.00,-25.00,-76.00,-5.00,-3.00,+2.00,+2.00,-37.00,+7.00
-20.00,+91.00,+3.00,-2.00,-23.00,+7.00,-20.00,+1.00,-22.00,+57.00,+2.00,-9.00,+1.00,-5.00,-16.00,+38.00
-21.00,+1.00,+0.00,+0.00,+14.00,-5.00,+7.00,+2.00,+5.00,+5.00,+2.00,+14.00,+7.00,+0.00,+5.00,+28.00
-35.00,-54.00,-9.00,-3.00,-5.00,+8.00,-16.00,-11.00,+0.00,-15.00,-1.00,+29.00,+10.00,-27.00,+4.00,+27.00
+65.00,+7.00,+13.00,+4.00,+8.00,-10.00,-27.00,+10.00,+7.00,-5.00,+1.00,-23.00,-1.00,-3.00,+2.00,-7.00
-10.00,-40.00,-4.00,+0.00,+3.00,+1.00,+1.00,-9.00,-19.00,-37.00,-7.00,-1.00,-11.00,+7.00,-7.00,-15.00
-4.00,+21.00,-3.00,-5.00,-9.00,-3.00,+4.00,-5.00,+19.00,+4.00,+1.00,+2.00,+2.00,+4.00,+41.00,-14.00
+25.00,+37.00,-3.00,-3.00,-10.00,+2.00,-2.00,+5.00,+19.00,+5.00,-2.00,+3.00,-5.00,-24.00,+4.00,+12.00
-22.00,+5.00,-7.00,-3.00,-2.00,-14.00,+14.00,-9.00,-29.00,-13.00,-3.00,+3.00,-9.00,+11.00,-4.00,-28.00
+55.00,-46.00,-8.00,+0.00,-3.00,-7.00,-6.00,+6.00,+19.00,-19.00,-4.00,+4.00,-3.00,+1.00,+10.00,+15.00
+65.00,-23.00,-6.00,-1.00,+7.00,-2.00,-20.00,-4.00,-8.00,+0.00,+1.00,+3.00,+41.00,-5.00,+26.00,+72.00
+25.00,-2.00,+5.00,+3.00,-7.00,-4.00,-1.00,+3.00,+21.00,-15.00,-3.00,-11.00,-12.00,-27.00,-15.00,+99.00
-1.00,-54.00,-12.00,-7.00,-1.00,+4.00,+8.00,-8.00,-4.00,-6.00,-8.00,-20.00,+4.00,+49.00,+1.00,+70.00
+42.00,+92.00,+14.00,+5.00,+1.00,-9.00,+6.00,+15.00,+10.00,+39.00,+5.00,+3.00,-2.00,+13.00,+2.00,+25.00
-46.00,-1.00,-2.00,-1.00,-20.00,+1.00,-3.00,-3.00,-72.00,+5.00,-2.00,-15.00,-4.00,-2.00,-54.00,-4.00
-31.00,-25.00,-4.00,+0.00,+12.00,-5.00,-24.00,-6.00,-16.00,-4.00,+2.00,-15.00,-22.00,+0.00,+7.00,-7.00
+5.00,+17.00,-1.00,-3.00,+6.00,+6.00,+50.00,+0.00,+29.00,-1.00,-4.00,-18.00,+5.00,-23.00,-38.00,-39.00
+1.00,+38.00,-2.00,+3.00,+8.00,-5.00,-2.00,-3.00,+6.00,-5.00,-1.00,+9.00,+9.00,+2.00,+23.00,-4.00
+7.00,-90.00,+6.00,+0.00,-8.00,+1.00,-33.00,-4.00,-21.00,-7.00,-3.00,+12.00,-3.00,+21.00,-4.00,-50.00
-29.00,+13.00,-2.00,+1.00,+7.00,-3.00,+10.00,-1.00,-3.00,+0.00,+2.00,-9.00,+1.00,+18.00,+9.00,+11.00
+12.00,+7.00,+8.00,+1.00,-24.00,+10.00,-18.00,+4.00,+7.00,+17.00,+1.00,+1.00,-13.00,-22.00,-2.00,-46.00
-30.00,-49.00,-4.00,+0.00,+7.00,+3.00,-6.00,-4.00,+22.00,-49.00,-11.00,-18.00,+7.00,+10.00,-7.00,-66.00
-27.00,+42.00,-3.00,-1.00,+6.00,-7.00,+16.00,-3.00,+30.00,+20.00,+0.00,+16.00,-9.00,-10.00,-9.00,-55.00
-16.00,-20.00,-12.00,-9.00,-23.00,-18.00,-26.00,+2.00,+12.00,+0.00,-6.00,-2.00,+16.00,+7.00,-2.00,-28.00
+5.00,-8.00,+7.00,+6.00,+26.00,-6.00,+5.00,+6.00,-13.00,+44.00,+9.00,+13.00,-5.00,-12.00,+6.00,-46.00
-17.00,+6.00,-1.00,-3.00,-20.00,+6.00,+33.00,+5.00,-25.00,-12.00,+0.00,-2.00,+5.00,-14.00,+5.00,-23.00
-14.00,-28.00,-4.00,-2.00,+10.00,+3.00,-63.00,-13.00,+26.00,-4.00,+0.00,-9.00,-11.00,+7.00,+18.00,+5.00
-15.00,-16.00,+4.00,+2.00,-29.00,-4.00,+34.00,+3.00,+16.00,-11.00,-4.00,+1.00,-6.00,+1.00,-8.00,-29.00
-21.00,+43.00,-6.00,-1.00,+40.00,+6.00,-38.00,-6.00,+41.00,+4.00,+0.00,+20.00,+14.00,-19.00,+4.00,-11.00
-24.00,-4.00,+5.00,+0.00,-3.00,-3.00,+7.00,+3.00,-48.00,+18.00,+2.00,-9.00,-4.00,-23.00,+6.00,-23.00
-11.00,-27.00,-2.00,+0.00,-2.00,+3.00,+30.00,-7.00,+25.00,+1.00,+0.00,-6.00,-16.00,+41.00,-19.00,+2.00
-16.00,+54.00,+8.00,+0.00,+1.00,+3.00,+41.00,-2.00,-67.00,+4.00,+1.00,-12.00,+6.00,+8.00,+14.00,-23.00
-17.00,-7.00,-2.00,-2.00,-18.00,+0.00,-3.00,-3.00,+25.00,+8.00,+6.00,+17.00,+22.00,-8.00,+11.00,+4.00
+2.00,-7.00,+6.00,+0.00,+7.00,-3.00,-14.00,+2.00,-7.00,-4.00,+0.00,-2.00,+5.00,+9.00,-29.00,-18.00
+5.00,-12.00,-2.00,-6.00,-6.00,-4.00,+8.00,+2.00,+1.00,-10.00,+1.00,+10.00,-26.00,-21.00,+24.00,+9.00
+18.00,-4.00,-1.00,+4.00,+6.00,+5.00,+12.00,+4.00,-19.00,+19.00,-2.00,-14.00,-6.00,-32.00,-14.00,-28.00
-9.00,-23.00,-1.00,+2.00,+8.00,-8.00,-36.00,-2.00,-17.00,-27.00,-4.00,-31.00,+19.00,+34.00,+15.00,+2.00
+30.00,+0.00,+3.00,-2.00,-22.00,-7.00,+13.00,+4.00,+15.00,+11.00,+1.00,+9.00,+2.00,-21.00,-26.00,-6.00
+11.00,+41.00,+0.00,-4.00,-1.00,-6.00,-11.00,-5.00,+11.00,+9.00,+6.00,-6.00,+10.00,-18.00,+20.00,+9.00
+28.00,+9.00,+4.00,+5.00,+15.00,+0.00,-3.00,+3.00,+31.00,-9.00,-11.00,+10.00,+1.00,+9.00,-27.00,-13.00
-13.00,+22.00,-7.00,-4.00,+2.00,+4.00,-10.00,-11.00,-42.00,-11.00,+0.00,+5.00,-19.00,-27.00,-4.00,-18.00
-23.00,-26.00,-9.00,-2.00,-5.00,+0.00,-14.00,-5.00,+53.00,-22.00,-13.00,-19.00,-5.00,+19.00,+7.00,+36.00
+28.00,-13.00,+7.00,+3.00,-23.00,+1.00,+14.00,+10.00,-63.00,-24.00,-2.00,+6.00,+5.00,+5.00,-35.00,+1.00
-8.00,+39.00,+3.00,-3.00,-15.00,-6.00,-27.00,-8.00,+23.00,+10.00,+1.00,+9.00,+0.00,-9.00,+17.00,-4.00
+11.00,+7.00,+2.00,+0.00,+9.00,+1.00,+3.00,+8.00,-18.00,-8.00,+1.00,+10.00,-8.00,+1.00,+12.00,+11.00
-13.00,-35.00,-9.00,-3.00,+3.00,-4.00,-39.00,-11.00,+46.00,+32.00,+4.00,+2.00,-3.00,+10.00,-35.00,-14.00
-5.00,+35.00,-2.00,+1.00,+8.00,+3.00,-6.00,-6.00,-55.00,-28.00,-6.00,+1.00,+9.00,-10.00,-13.00,+0.00
-37.00,-77.00,-16.00,-4.00,-2.00,-5.00,-18.00,-6.00,+31.00,-3.00,+2.00,+2.00,+6.00,+20.00,+14.00,+9.00
+19.00,+87.00,+7.00,+0.00,-38.00,-20.00,+1.00,+6.00,-21.00,-13.00,-3.00,+8.00,-2.00,-1.00,-10.00,-1.00
-14.00,-6.00,+7.00,-2.00,+13.00,+1.00,+1.00,+3.00,-1.00,-38.00,+0.00,-6.00,-5.00,+13.00,+30.00,+37.00
-26.00,-16.00,-10.00,-5.00,+5.00,-1.00,-13.00,-11.00,+5.00,+10.00,-2.00,-5.00,+1.00,-10.00,-5.00,-15.00
-6.00,-43.00,-1.00,-1.00,-4.00,-2.00,+4.00,-2.00,-32.00,-7.00,-2.00,+2.00,+6.00,-1.00,-11.00,-21.00
+16.00,+15.00,-1.00,+4.00,+13.00,+20.00,-30.00,+7.00,+5.00,+24.00,+4.00,+1.00,-8.00,-2.00,+8.00,+6.00
-5.00,-1.00,-2.00,-1.00,+0.00,-3.00,+28.00,+0.00,-5.00,-5.00,-4.00,-9.00,+6.00,-11.00,+11.00,-10.00
-9.00,+16.00,+0.00,+0.00,-2.00,+4.00,+1.00,+3.00,+69.00,+12.00,-2.00,-3.00,-18.00,-42.00,-22.00,+10.00
-32.00,-77.00,-18.00,-7.00,+7.00,+1.00,+4.00,-13.00,-58.00,-9.00,-3.00,-20.00,-10.00,+20.00,+6.00,+2.00
-10.00,+35.00,+11.00,+0.00,-7.00,-10.00,-11.00,-1.00,+0.00,+6.00,-1.00,+9.00,+2.00,-16.00,-38.00,-25.00
+0.00,+3.00,-1.00,+2.00,+0.00,+5.00,+28.00,+4.00,+8.00,+12.00,+3.00,-22.00,-5.00,+5.00,-26.00,+20.00
+4.00,-13.00,-13.00,-2.00,+0.00,+5.00,-1.00,+2.00,+7.00,+2.00,+0.00,+8.00,-3.00,+6.00,+14.00,-1.00
-1.00,+20.00,+7.00,+1.00,+7.00,+8.00,+33.00,+8.00,-39.00,+3.00,-8.00,-22.00,-18.00,-27.00,+7.00,-16.00
-16.00,-88.00,-7.00,-1.00,+2.00,-6.00,-10.00,-10.00,+24.00,+1.00,-3.00,-5.00,+16.00,-15.00,-2.00,+12.00
+0.00,+66.00,+3.00,-2.00,-8.00,+5.00,-13.00,-3.00,-74.00,-46.00,-3.00,+7.00,+5.00,+2.00,+12.00,-6.00
-8.00,-15.00,-1.00,-1.00,-9.00,-8.00,+10.00,-2.00,+44.00,+12.00,+4.00,+3.00,+14.00,+42.00,+17.00,+15.00
+17.00,+36.00,+1.00,+2.00,+22.00,-13.00,-6.00,-5.00,-2.00,-13.00,+2.00,+12.00,-9.00,+7.00,-18.00,+4.00
+12.00,+7.00,-4.00,-2.00,-1.00,+2.00,+17.00,+4.00,-75.00,-25.00,+0.00,+6.00,-9.00,-2.00,+8.00,+5.00
+11.00,-47.00,+1.00,+0.00,+10.00,-1.00,-6.00,+4.00,+30.00,+17.00,+2.00,+1.00,-4.00,+5.00,+10.00,-1.00
-2.00,-21.00,-3.00,-4.00,-30.00,-11.00,-18.00,-2.00,-16.00,+22.00,+0.00,-2.00,+7.00,-6.00,-9.00,+4.00
+10.00,+92.00,+13.00,+6.00,+49.00,+3.00,+4.00,+4.00,+43.00,-3.00,+1.00,+10.00,+8.00,+5.00,+6.00,+6.00
-20.00,-4.00,-3.00,-4.00,-23.00,-4.00,+21.00,-7.00,+23.00,-2.00,-4.00,-1.00,-6.00,-3.00,-1.00,-9.00
+18.00,-26.00,-7.00,+0.00,+0.00,+1.00,-9.00,-4.00,-27.00,-26.00,-3.00,+4.00,-3.00,-8.00,+7.00,-2.00
+9.00,+0.00,-2.00,-1.00,+9.00,-5.00,-27.00,+0.00,-3.00,-13.00,-7.00,-8.00,-9.00,-10.00,-7.00,-3.00
+23.00,-14.00,+3.00,+1.00,-19.00,-3.00,-24.00,+4.00,+6.00,+20.00,+5.00,+7.00,+10.00,-6.00,-29.00,+14.00
-45.00,-39.00,-7.00,-1.00,+3.00,+2.00,+15.00,-8.00,+21.00,+1.00,-1.00,-10.00,-8.00,+21.00,+35.00,-8.00
+15.00,+78.00,+5.00,-2.00,-2.00,-10.00,+10.00,-1.00,-6.00,+38.00,+0.00,+8.00,-9.00,+6.00,-32.00,-10.00
+2.00,-49.00,-2.00,+0.00,+1.00,+6.00,+17.00,+4.00,+19.00,-22.00,-5.00,-5.00,+10.00,-22.00,-15.00,-9.00
+3.00,+58.00,+2.00,-2.00,-11.00,+5.00,-17.00,-2.00,-35.00,+4.00,+3.00,+4.00,+5.00,+31.00,+29.00,-16.00
+0.00,-9.00,-6.00,-1.00,+8.00,-3.00,+22.00,+0.00,+25.00,-28.00,-8.00,-2.00,-17.00,+4.00,+16.00,+28.00
-12.00,-45.00,-6.00,-3.00,-10.00,-3.00,-25.00,-2.00,+12.00,+1.00,-8.00,-4.00,+2.00,-11.00,+14.00,+1.00
+19.00,-24.00,+2.00,+3.00,+10.00,+7.00,+7.00,-1.00,-2.00,-35.00,-3.00,-8.00,-16.00,+45.00,-3.00,+5.00
-10.00,-47.00,+2.00,-2.00,+0.00,+1.00,+3.00,-2.00,+7.00,+39.00,+4.00,+14.00,+6.00,-20.00,-15.00,-5.00
+5.00,+33.00,+4.00,+0.00,-9.00,-6.00,-58.00,-5.00,+22.00,-5.00,-3.00,-6.00,-2.00,+3.00,+18.00,+14.00
-21.00,-39.00,-8.00,-2.00,+0.00,+3.00,+12.00,-2.00,-42.00,+12.00,+0.00,-3.00,-4.00,+6.00,+33.00,+8.00
-28.00,+82.00,+5.00,+0.00,+9.00,-4.00,-10.00,-8.00,-4.00,-3.00,+0.00,+15.00,+3.00,-43.00,-32.00,+9.00
+1.00,-84.00,-19.00,-2.00,+7.00,+0.00,-30.00,-8.00,+45.00,+4.00,-1.00,-23.00,+0.00,-5.00,+0.00,-20.00
+19.00,+20.00,+15.00,+5.00,-24.00,-10.00,+36.00,+3.00,-65.00,-3.00,+3.00,-5.00,+10.00,+6.00,-5.00,+8.00
+0.00,+33.00,+4.00,+3.00,+32.00,+13.00,+25.00,+1.00,+43.00,+15.00,-1.00,-6.00,+2.00,+1.00,-10.00,-14.00
+15.00,+16.00,+1.00,+0.00,+19.00,+10.00,-16.00,+8.00,+9.00,-1.00,+0.00,-1.00,+3.00,+21.00,+21.00,+5.00
+4.00,-5.00,-2.00,-5.00,-21.00,-9.00,-14.00,+1.00,+1.00,-19.00,-1.00,+1.00,-6.00,+3.00,+3.00,+14.00
+15.00,-5.00,-3.00,-7.00,-8.00,-6.00,-9.00,+2.00,+29.00,+18.00,+4.00,+6.00,-3.00,-9.00,-14.00,+2.00
-2.00,-15.00,-5.00,+0.00,-4.00,-2.00,+5.00,-3.00,-21.00,-32.00,-6.00,-2.00,+1.00,-2.00,-15.00,-15.00
-30.00,-11.00,-2.00,-5.00,-25.00,-12.00,+36.00,-10.00,-2.00,+24.00,-3.00,-2.00,-2.00,+1.00,-6.00,+0.00
-21.00,+31.00,+3.00,+2.00,+12.00,+10.00,-34.00,+1.00,+18.00,+11.00,+3.00,+3.00,+1.00,+8.00,+1.00,+5.00
+5.00,+21.00,-4.00,-2.00,+10.00,+0.00,+23.00,-1.00,-12.00,-8.00,+0.00,+3.00,-7.00,+2.00,-2.00,-10.00
-6.00,-60.00,-2.00,-1.00,-16.00,-2.00,-4.00,-4.00,+22.00,+10.00,+2.00,+3.00,+10.00,-1.00,-26.00,-3.00
+29.00,+99.00,+12.00,+4.00,+9.00,+5.00,-20.00,+9.00,-40.00,+13.00,+2.00,-6.00,-14.00,-30.00,+18.00,-3.00
-12.00,-53.00,-8.00,-3.00,-5.00,-3.00,+13.00,-5.00,-31.00,-24.00,-1.00,+9.00,+3.00,-21.00,+6.00,+18.00
+16.00,-14.00,+1.00,+3.00,+8.00,+5.00,+9.00,+2.00,-16.00,+2.00,-4.00,-5.00,+2.00,-2.00,-30.00,-2.00
-11.00,-9.00,-7.00,-6.00,-8.00,-5.00,-19.00,-3.00,+10.00,+9.00,+3.00,+14.00,-2.00,+10.00,+6.00,+2.00
+9.00,+11.00,+4.00,+0.00,-7.00,+0.00,+15.00,+3.00,-2.00,-6.00,-5.00,-33.00,-15.00,-30.00,+19.00,-18.00
-4.00,+67.00,+9.00,+3.00,-2.00,-2.00,-5.00,-1.00,+5.00,+4.00,-2.00,+4.00,+16.00,-4.00,-22.00,-2.00
+0.00,-17.00,-7.00,-2.00,+6.00,+7.00,+25.00,+2.00,+7.00,-18.00,+0.00,+4.00,-14.00,+4.00,-10.00,+5.00
+1.00,-30.00,+1.00,-1.00,-7.00,-5.00,-3.00,-3.00,-5.00,+42.00,+5.00,-10.00,+0.00,-8.00,+5.00,-1.00
-24.00,-36.00,-8.00,-1.00,+0.00,-2.00,+3.00,-7.00,-62.00,-24.00,-1.00,+9.00,+4.00,+10.00,+4.00,-4.00
+16.00,+52.00,+1.00,-4.00,-8.00,-5.00,+9.00,+4.00,+54.00,+2.00,-4.00,-19.00,-13.00,-4.00,+2.00,-1.00
-24.00,-26.00,-8.00,-7.00,+4.00,-5.00,-25.00,-7.00,-59.00,-21.00,+0.00,+6.00,-12.00,-24.00,+17.00,-9.00
+2.00,-10.00,+3.00,+3.00,-4.00,+14.00,-5.00,+4.00,+88.00,-3.00,+2.00,-3.00,+11.00,-3.00,-60.00,+2.00
+8.00,+21.00,+3.00,-2.00,-10.00,-14.00,+5.00,+0.00,+18.00,+14.00,+6.00,+9.00,-14.00,+13.00,+3.00,-13.00
-8.00,-52.00,-4.00,+1.00,-7.00,+1.00,-29.00,-8.00,-26.00,-15.00,-7.00,+6.00,+27.00,+7.00,+26.00,+4.00
+2.00,+16.00,+3.00,+0.00,-1.00,+4.00,+29.00,+5.00,+8.00,-4.00,-5.00,-17.00,-11.00,-27.00,-6.00,+0.00
-13.00,+1.00,-3.00,-4.00,-11.00,-12.00,-15.00,-9.00,-8.00,+2.00,+3.00,-1.00,-6.00,+67.00,-23.00,+7.00
+20.00,-4.00,+2.00,+2.00,+28.00,+4.00,+14.00,+13.00,-8.00,-7.00,-1.00,+7.00,+2.00,-11.00,-1.00,+7.00
-6.00,-39.00,+0.00,+0.00,-4.00,+0.00,+10.00,+3.00,+31.00,+4.00,-1.00,+1.00,-14.00,+1.00,-17.00,+5.00
+11.00,+103.00,+11.00,+7.00,+0.00,+9.00,-31.00,+1.00,+8.00,+19.00,-3.00,-2.00,+2.00,-3.00,-1.00,-6.00
-3.00,-17.00,-5.00,-6.00,-19.00,-11.00,-4.00,+3.00,-25.00,-23.00,-5.00,+9.00,+1.00,-4.00,+33.00,+7.00
-14.00,-9.00,+0.00,-1.00,-11.00,+9.00,+25.00,-7.00,+30.00,-2.00,-5.00,-6.00,+11.00,+11.00,-18.00,+7.00
+6.00,-37.00,+0.00,+1.00,+21.00,-1.00,-25.00,-2.00,-69.00,-1.00,+3.00,+4.00,-6.00,+10.00,+19.00,-19.00
-8.00,-82.00,-2.00,-2.00,+8.00,+2.00,-24.00,-1.00,+47.00,+12.00,+2.00,+5.00,+7.00,+10.00,-17.00,+15.00
+5.00,+46.00,-1.00,+0.00,+2.00,-1.00,+13.00,+0.00,-17.00,-5.00,-6.00,-4.00,-5.00,-26.00,+20.00,-6.00
+13.00,-3.00,-1.00,+1.00,+1.00,-1.00,-16.00,-1.00,-53.00,-3.00,-1.00,+9.00,+2.00,+8.00,-20.00,-4.00
+10.00,+8.00,-4.00,-2.00,+1.00,+3.00,-26.00,+3.00,+36.00,+1.00,-2.00,-15.00,-5.00,-9.00,-1.00,+1.00
-29.00,-36.00,-9.00,-3.00,-1.00,-4.00,+19.00,-12.00,-28.00,+8.00,-2.00,+1.00,+8.00,+5.00,+18.00,-24.00
+6.00,-38.00,-3.00,-1.00,-3.00,-3.00,-6.00,-5.00,-13.00,-39.00,-3.00,-8.00,-11.00,-3.00,-49.00,+10.00
-30.00,-30.00,-7.00,-2.00,-6.00,-6.00,-5.00,-4.00,+21.00,+16.00,+0.00,-2.00,+2.00,-3.00,+7.00,+3.00
+27.00,+87.00,+11.00,+1.00,-3.00,+5.00,+30.00,+2.00,-10.00,-30.00,-1.00,+10.00,-12.00,-2.00,-4.00,-8.00
-5.00,-6.00,-1.00,-1.00,-7.00,-4.00,-7.00,+2.00,-7.00,+41.00,-1.00,-11.00,+12.00,+8.00,-5.00,+1.00
-7.00,+14.00,+0.00,+0.00,+0.00,-3.00,-4.00,-5.00,-36.00,-5.00,+2.00,+1.00,+1.00,-3.00,-12.00,-1.00
-16.00,+11.00,+3.00,+1.00,+3.00,+0.00,-7.00,+0.00,-7.00,-28.00,-7.00,+6.00,-7.00,-11.00,+24.00,-4.00
+3.00,-14.00,-4.00,-4.00,-5.00,+11.00,+25.00,-4.00,+16.00,+28.00,+3.00,-9.00,-15.00,+0.00,-11.00,+5.00
-11.00,+3.00,+3.00,+2.00,-11.00,+2.00,-27.00,-5.00,+25.00,-8.00,-1.00,+0.00,+21.00,+2.00,-17.00,-2.00
-18.00,-20.00,-1.00,+2.00,+26.00,-3.00,+36.00,-4.00,+30.00,-13.00,-7.00,-5.00,-8.00,+0.00,+5.00,-1.00
+12.00,+25.00,+2.00,-1.00,-13.00,+0.00,-51.00,+6.00,-79.00,-20.00,-7.00,-6.00,+4.00,-31.00,+14.00,-12.00
-8.00,+4.00,-2.00,+0.00,+4.00,+0.00,+14.00,-2.00,+36.00,+11.00,+3.00,+5.00,-6.00,+0.00,+8.00,+32.00
+3.00,+9.00,-4.00,-4.00,-16.00,-1.00,-14.00,+3.00,+70.00,+0.00,+3.00,+4.00,-7.00,+0.00,-18.00,+4.00
+4.00,-25.00,-1.00,-2.00,+12.00,+3.00,-17.00,+2.00,-48.00,-1.00,+3.00,-8.00,-8.00,-31.00,+25.00,-12.00
-29.00,-12.00,-10.00,-3.00,+1.00,-5.00,+12.00,-7.00,+27.00,+15.00,+2.00,-2.00,+2.00,+25.00,-3.00,+12.00
-8.00,+17.00,+4.00,+2.00,-8.00,-2.00,-60.00,-5.00,-7.00,-14.00,-1.00,-2.00,+4.00,+4.00,+20.00,-13.00
+12.00,-25.00,-8.00,-4.00,+5.00,+6.00,+63.00,+3.00,-5.00,-4.00,-3.00,+10.00,-9.00,-16.00,+4.00,-5.00
-2.00,-25.00,-8.00,+2.00,+2.00,-4.00,-27.00,-3.00,+21.00,-1.00,-2.00,+7.00,+16.00,+11.00,-23.00,+8.00
-2.00,-7.00,-6.00,-4.00,+4.00,+12.00,+12.00,-4.00,+34.00,+3.00,-1.00,-19.00,+7.00,+2.00,+39.00,-7.00
+7.00,+44.00,+3.00,+1.00,+0.00,-10.00,+30.00,+14.00,-27.00,-3.00,+0.00,-11.00,-18.00,-8.00,-12.00,-11.00
-5.00,-59.00,-8.00,-3.00,+11.00,-1.00,-6.00,-3.00,-40.00,+10.00,+2.00,+3.00,+7.00,-42.00,+6.00,-7.00
+19.00,+15.00,+4.00,-5.00,-7.00,+5.00,-5.00,+8.00,-5.00,-14.00,-5.00,+6.00,-6.00,+2.00,+22.00,-10.00
-2.00,-24.00,-5.00,-5.00,-12.00,-6.00,-6.00,-2.00,+41.00,+15.00,+0.00,+14.00,-2.00,+3.00,-24.00,+0.00
+6.00,-1.00,-6.00,-2.00,-3.00,-3.00,+23.00,+2.00,-26.00,-3.00,-3.00,-14.00,+0.00,-6.00,-28.00,+11.00
+14.00,+13.00,+1.00,-1.00,-1.00,-7.00,-25.00,+2.00,-1.00,-8.00,-3.00,-19.00,-25.00,+4.00,+17.00,-11.00
-5.00,+8.00,+1.00,+0.00,-9.00,-6.00,+29.00,+0.00,-33.00,+0.00,+0.00,-14.00,+22.00,-3.00,+24.00,-3.00
+25.00,-25.00,-2.00,+0.00,+3.00,+1.00,+3.00,+3.00,+47.00,+15.00,+2.00,+17.00,+2.00,+1.00,-10.00,+13.00
-1.00,-19.00,-1.00,-1.00,-5.00,-9.00,-28.00,+0.00,+6.00,+11.00,-1.00,-4.00,+3.00,-13.00,-7.00,-7.00
-4.00,+24.00,+4.00,+3.00,-7.00,+5.00,+4.00,+3.00,+18.00,-27.00,-1.00,-11.00,-18.00,+13.00,-18.00,+11.00
+2.00,+8.00,+2.00,+0.00,+32.00,+0.00,-17.00,+2.00,-19.00,+51.00,+6.00,-7.00,-5.00,-1.00,+14.00,-9.00
-6.00,+10.00,+4.00,+0.00,-28.00,-3.00,+14.00,-4.00,+0.00,+22.00,+5.00,-4.00,+5.00,+3.00,-11.00,+94.00
+2.00,-14.00,-4.00,-1.00,+28.00,+6.00,+18.00,-2.00,+15.00,+1.00,-5.00,+12.00,+8.00,+9.00,+5.00,+60.00
-1.00,-35.00,-8.00,-5.00,-34.00,-5.00,-13.00,-6.00,-22.00,-34.00,-4.00,+4.00,-4.00,+15.00,+7.00,+23.00
+11.00,+59.00,+3.00,+3.00,+11.00,+9.00,+15.00,+2.00,+24.00,+4.00,-3.00,+1.00,-4.00,+0.00,-2.00,-19.00
+14.00,+48.00,+10.00,+5.00,+21.00,-10.00,-19.00,+8.00,-18.00,-10.00,+4.00,+20.00,+2.00,-3.00,-12.00,-59.00
-5.00,-19.00,-10.00,-4.00,-20.00,-1.00,+24.00,-6.00,-35.00,-3.00,-1.00,-2.00,+8.00,+11.00,+8.00,-68.00
+6.00,-43.00,-10.00,-6.00,+17.00,+5.00,-1.00,-1.00,-11.00,+16.00,+0.00,-4.00,-7.00,-4.00,+1.00,-30.00
-4.00,+48.00,+9.00,+1.00,-20.00,-1.00,+8.00,+0.00,+0.00,-14.00,-2.00,-4.00,-21.00,-6.00,+2.00,-26.00
+10.00,-26.00,-1.00,+1.00,-2.00,+4.00,+48.00,+7.00,-8.00,-5.00,-6.00,+7.00,+14.00,-12.00,-2.00,-25.00
-23.00,+4.00,+6.00,+6.00,+14.00,-4.00,+3.00,-5.00,+28.00,-8.00,-4.00,-52.00,+1.00,+61.00,-7.00,+4.00
-4.00,-6.00,+3.00,+1.00,-9.00,-16.00,-4.00,-4.00,-34.00,+2.00,-3.00,-19.00,-8.00,-25.00,-29.00,-37.00
-14.00,-48.00,-8.00,-9.00,-38.00,+0.00,-15.00,-8.00,-46.00,-30.00,-1.00,-20.00,-15.00,-18.00,+43.00,-1.00
+8.00,+72.00,+1.00,+0.00,+23.00,+6.00,-7.00,+0.00,+39.00,+21.00,-4.00,+8.00,+3.00,+24.00,-16.00,-14.00
-2.00,-33.00,-5.00,-2.00,+2.00,-6.00,+15.00,-6.00,-58.00,-12.00,+7.00,+25.00,-8.00,-19.00,+29.00,+10.00
+3.00,+58.00,+6.00,+1.00,+14.00,+3.00,+0.00,+4.00,+3.00,+8.00,+2.00,+11.00,+8.00,+9.00,-44.00,-14.00
+0.00,-17.00,-1.00,-2.00,-33.00,+0.00,-23.00,-4.00,+95.00,+8.00,+1.00,+0.00,-2.00,+2.00,+3.00,+27.00
-22.00,-30.00,-3.00,+0.00,+34.00,-1.00,+10.00,-3.00,-30.00,+7.00,-1.00,-21.00,-15.00,-12.00,-2.00,-28.00
-11.00,-15.00,-7.00,-10.00,-50.00,+0.00,+22.00,+0.00,+6.00,+4.00,-2.00,+21.00,+13.00,-13.00,+0.00,-37.00
-12.00,+7.00,-2.00,+1.00,+5.00,-14.00,-32.00,+0.00,+1.00,+1.00,+0.00,+21.00,+4.00,+16.00,+18.00,-14.00
+14.00,+10.00,+1.00,+4.00,+29.00,-1.00,-17.00,-4.00,-28.00,-29.00,-2.00,+1.00,-1.00,-4.00,-7.00,-1.00
-17.00,+10.00,-5.00,+2.00,+0.00,-1.00,-8.00,-3.00,+11.00,-13.00,-1.00,-12.00,-7.00,+4.00,+0.00,-1.00
+7.00,-2.00,+4.00,+0.00,+8.00,+6.00,+13.00,+1.00,+8.00,+12.00,-3.00,+6.00,-3.00,-6.00,-17.00,-18.00
-8.00,-16.00,-1.00,-4.00,+3.00,+1.00,-9.00,-9.00,+26.00,+3.00,+3.00,+1.00,+3.00,+2.00,+12.00,+16.00
+14.00,+48.00,+6.00,-1.00,-21.00,-8.00,+7.00,+7.00,+17.00,+31.00,-1.00,+17.00,+2.00,+2.00,+31.00,+35.00
+5.00,-32.00,-6.00,-7.00,+0.00,+2.00,-13.00,-3.00,-4.00,-7.00,+1.00,-2.00,+14.00,-1.00,-10.00,+62.00
-26.00,-24.00,-3.00,-2.00,+8.00,+0.00,-1.00,-4.00,-47.00,-17.00,-2.00,+13.00,+4.00,-1.00,-13.00,+21.00
-24.00,-46.00,-6.00,-1.00,-32.00,-13.00,+3.00,-3.00,-3.00,-26.00,-1.00,-17.00,+5.00,-16.00,+21.00,-4.00
+19.00,+28.00,+3.00,+4.00,+17.00,+7.00,+8.00,+7.00,-20.00,+14.00,-3.00,-2.00,-20.00,-3.00,-17.00,-18.00
+7.00,-27.00,-3.00,-4.00,-4.00,+2.00,-7.00,-5.00,+7.00,+7.00,-4.00,-27.00,-6.00,-22.00,-15.00,-25.00
+17.00,+17.00,+4.00,-1.00,-23.00,-8.00,+12.00,+2.00,+24.00,-26.00,-3.00,-29.00,+4.00,-11.00,+10.00,+52.00
+4.00,+17.00,+2.00,+2.00,+20.00,-4.00,-12.00,-3.00,-24.00,+14.00,-5.00,+23.00,-29.00,+1.00,-16.00,-29.00
-5.00,-17.00,-7.00,-5.00,-9.00,+8.00,+5.00,-4.00,+5.00,-16.00,+1.00,-2.00,+23.00,+18.00,+41.00,-21.00
+5.00,-48.00,+0.00,+1.00,+19.00,-7.00,-57.00,-7.00,-28.00,+0.00,-1.00,+4.00,-4.00,-16.00,-16.00,-38.00
+2.00,+42.00,+3.00,-1.00,+2.00,+0.00,+40.00,+0.00,-9.00,-7.00,-2.00,+32.00,-1.00,+8.00,-12.00,-39.00
+8.00,+31.00,+4.00,+1.00,-7.00,-6.00,-10.00,-1.00,+8.00,+4.00,-3.00,-14.00,+0.00,+1.00,+15.00,+14.00
-7.00,-43.00,-5.00,+0.00,+15.00,+13.00,-6.00,-9.00,-2.00,-4.00,+3.00,-2.00,-6.00,+7.00,-14.00,-11.00
+10.00,+14.00,+10.00,+3.00,-18.00,-9.00,+0.00,+6.00,-30.00,-20.00,+0.00,-3.00,-3.00,+7.00,+5.00,-47.00
+1.00,-28.00,-10.00,-1.00,+3.00,-15.00,-31.00,-11.00,+9.00,+13.00,+1.00,+15.00,-8.00,-5.00,+10.00,-59.00
+5.00,+39.00,+2.00,-3.00,-3.00,+20.00,+16.00,+7.00,-34.00,+15.00,-1.00,+3.00,+12.00,+12.00,-4.00,-30.00
-18.00,+7.00,-4.00,+0.00,+17.00,-12.00,+5.00,-4.00,-3.00,+0.00,+0.00,+27.00,+10.00,-8.00,-17.00,-18.00
-1.00,+3.00,-3.00,+0.00,+35.00,+22.00,+4.00,-1.00,-18.00,-19.00,-2.00,-32.00,-5.00,+6.00,+11.00,+15.00
-9.00,-35.00,+2.00,+4.00,+6.00,-1.00,-17.00,+1.00,+2.00,-3.00,-6.00,-22.00,-5.00,-3.00,-15.00,+6.00
-14.00,+37.00,+2.00,-1.00,-17.00,+7.00,+6.00,+3.00,-13.00,-6.00,-1.00,+7.00,-3.00,-3.00,+3.00,+26.00
-15.00,-14.00,-6.00,-5.00,-28.00,-13.00,-18.00,-2.00,+26.00,+12.00,-3.00,+1.00,-6.00,-3.00,-12.00,+49.00
-14.00,+12.00,-1.00,+0.00,-7.00,-10.00,+47.00,+2.00,+22.00,-2.00,+1.00,+25.00,+0.00,+7.00,+12.00,+49.00
+4.00,+56.00,+1.00,-5.00,-7.00,+3.00,-14.00,+0.00,+17.00,-4.00,-1.00,+2.00,+7.00,-13.00,-8.00,+25.00
+5.00,-94.00,-2.00,+2.00,+34.00,-3.00,+0.00,-3.00,+22.00,-5.00,-3.00,+2.00,-1.00,+6.00,-1.00,+18.00
+82.00,-12.00,-4.00,-2.00,+0.00,+12.00,+1.00,+3.00,+2.00,-16.00,+0.00,+5.00,+14.00,+0.00,+1.00,-5.00
+9.00,-7.00,-1.00,-5.00,-32.00,+0.00,+9.00,-1.00,-5.00,+8.00,+1.00,-10.00,-5.00,+5.00,-8.00,+2.00
-28.00,-5.00,-3.00,+0.00,+29.00,+1.00,-7.00,-4.00,+25.00,+0.00,-8.00,+13.00,-31.00,-19.00,+14.00,-3.00
-43.00,-25.00,+1.00,+0.00,+17.00,+6.00,+0.00,-1.00,+3.00,+45.00,+4.00,-24.00,+32.00,+10.00,+4.00,+8.00
-42.00,+4.00,+0.00,+1.00,+5.00,-11.00,+7.00,-2.00,-2.00,-46.00,-3.00,+6.00,+17.00,-9.00,-18.00,-7.00
-9.00,+7.00,+2.00,+1.00,-25.00,+3.00,-9.00,+3.00,-10.00,+47.00,-3.00,-44.00,-27.00,+46.00,+12.00,-34.00
-16.00,-28.00,-3.00,-4.00,-15.00,+3.00,-10.00,+0.00,-50.00,-2.00,+1.00,-14.00,+0.00,-3.00,+9.00,+119.00
-6.00,-23.00,-6.00,-4.00,-20.00,-6.00,-30.00,-7.00,-4.00,-36.00,-2.00,+33.00,-32.00,+3.00,-5.00,+28.00
+1.00,+4.00,+9.00,+7.00,+35.00,+0.00,+61.00,+9.00,+15.00,+26.00,+0.00,-44.00,-6.00,-2.00,-6.00,+8.00
-3.00,+2.00,-4.00,-7.00,-54.00,-12.00,-6.00,-3.00,-86.00,-20.00,-1.00,+42.00,+36.00,-6.00,-4.00,-46.00
+3.00,+38.00,+3.00,+8.00,+44.00,+7.00,-5.00,+2.00,-85.00,+23.00,+3.00,-27.00,+4.00,-1.00,-7.00,-99.00
+15.00,-21.00,-4.00,-1.00,+22.00,+15.00,+8.00,+1.00,-30.00,-22.00,-2.00,+3.00,+8.00,+9.00,-5.00,-45.00
-14.00,+11.00,-1.00,-5.00,-34.00,-19.00,-11.00,-2.00,+43.00,+12.00,+1.00,-5.00,+0.00,-6.00,+0.00,-5.00
-12.00,+33.00,-2.00,-1.00,+18.00,-2.00,-39.00,-3.00,+33.00,-25.00,+0.00,+12.00,+2.00,-11.00,+0.00,+28.00
-3.00,-64.00,-9.00,-3.00,-47.00,-6.00,+0.00,-6.00,+46.00,+0.00,+2.00,+37.00,-20.00,+19.00,-28.00,-6.00
+16.00,+127.00,+9.00,+2.00,+10.00,-13.00,+38.00,+7.00,+91.00,+4.00,-1.00,-38.00,+33.00,-11.00,+16.00,+41.00
-3.00,-13.00,-2.00,-3.00,-20.00,+16.00,-27.00,+2.00,+46.00,+4.00,-5.00,+3.00,-38.00,+1.00,-13.00,-2.00
-10.00,-10.00,-1.00,+1.00,-8.00,+3.00,+23.00,-2.00,+40.00,-27.00,+2.00,+11.00,+25.00,-26.00,+1.00,-10.00
-103.00,-22.00,-6.00,-5.00,+15.00,+8.00,-9.00,-3.00,+65.00,+1.00,-2.00,+24.00,+4.00,-2.00,+8.00,-47.00
-26.00,+1.00,-2.00,-1.00,-11.00,+1.00,+0.00,+0.00,-7.00,+25.00,-3.00,-52.00,-1.00,+1.00,+1.00,-76.00
-52.00,-14.00,-3.00,-1.00,+11.00,-3.00,-3.00,-1.00,+17.00,+6.00,+0.00,+4.00,-1.00,+2.00,+2.00,-39.00
+9.00,+14.00,+0.00,-2.00,-25.00,-15.00,-20.00,-1.00,-44.00,+5.00,-1.00,-4.00,-25.00,-6.00,+7.00,+37.00
+27.00,-33.00,-3.00,+0.00,-16.00,-8.00,+5.00,+3.00,-11.00,-10.00,+0.00,+2.00,+47.00,+7.00,+8.00,+47.00
+10.00,+52.00,+5.00,+2.00,+22.00,+14.00,+4.00,+2.00,-14.00,-25.00,-1.00,+3.00,+1.00,-4.00,-16.00,+43.00
+6.00,-16.00,-4.00,-2.00,-12.00,+0.00,-2.00,-5.00,-61.00,+45.00,-1.00,-6.00,+2.00,-37.00,-3.00,+106.00
+18.00,+11.00,+0.00,+6.00,+7.00,-1.00,+27.00,-1.00,+2.00,+2.00,+0.00,+0.00,-8.00,+31.00,-6.00,+90.00
-73.00,-32.00,-3.00,-5.00,+1.00,-2.00,+13.00,+5.00,+18.00,+2.00,+2.00,+5.00,+9.00,-1.00,-4.00,+41.00
-116.00,+2.00,-2.00,-1.00,-19.00,-20.00,-16.00,+1.00,-27.00,-11.00,-7.00,+10.00,+43.00,-3.00,-11.00,+69.00
-43.00,+33.00,+4.00,-1.00,+10.00,+7.00,+7.00,+3.00,-82.00,-15.00,-6.00,-8.00,-50.00,-10.00,+19.00,+48.00
-3.00,-28.00,-4.00,+0.00,+46.00,+11.00,-7.00,-4.00,+36.00,+4.00,+1.00,-14.00,+2.00,-8.00,-17.00,+10.00
+68.00,+63.00,+0.00,+2.00,-20.00,+1.00,+2.00,-3.00,-30.00,-3.00,+2.00,+10.00,+41.00,+9.00,+36.00,-37.00
+70.00,+1.00,-1.00,-4.00,-10.00,+4.00,+11.00,-1.00,+3.00,+12.00,+0.00,+0.00,-19.00,+5.00,+2.00,-42.00
+51.00,-48.00,-3.00,-2.00,-43.00,-11.00,-18.00,-3.00,-2.00,-11.00,+2.00,+26.00,+22.00,+12.00,-27.00,-53.00
-5.00,-70.00,-2.00,+1.00,+18.00,-1.00,-1.00,-1.00,-3.00,+11.00,-1.00,+28.00,-5.00,-5.00,+7.00,-21.00
+25.00,+67.00,+3.00,-4.00,+9.00,-5.00,+9.00,+3.00,+37.00,-21.00,-5.00,-60.00,-5.00,+12.00,-10.00,-27.00
-26.00,-5.00,-2.00,+1.00,-7.00,+12.00,-3.00,-3.00,+111.00,-28.00,+0.00,+20.00,-27.00,-14.00,+6.00,-39.00
+62.00,-3.00,+1.00,-1.00,-9.00,-23.00,-20.00,-3.00,+2.00,+10.00,+0.00,+4.00,+39.00,+11.00,+5.00,-20.00
+89.00,+47.00,+0.00,-3.00,+8.00,+22.00,+1.00,+0.00,+6.00,+5.00,-2.00,+2.00,-27.00,-6.00,-13.00,-12.00
+54.00,-29.00,+1.00,+1.00,-18.00,-5.00,-21.00,+2.00,+9.00,+22.00,+1.00,+5.00,-23.00,-4.00,-9.00,+2.00
+22.00,-31.00,-2.00,-1.00,-2.00,-14.00,-1.00,-4.00,-126.00,-24.00,+1.00,+7.00,-5.00,-16.00,+11.00,+11.00
+78.00,+4.00,+7.00,+3.00,+9.00,+5.00,+11.00,-1.00,-66.00,-22.00,-7.00,-1.00,+10.00,+6.00,-16.00,-5.00
+51.00,+3.00,-7.00,-3.00,-11.00,-20.00,-7.00,-5.00,-27.00,-5.00,-2.00,+35.00,+26.00,-2.00,+32.00,+35.00
+28.00,+10.00,-1.00,-1.00,+7.00,+14.00,-3.00,+3.00,-1.00,+10.00,-2.00,-68.00,-46.00,-12.00,+2.00,+38.00
+69.00,+23.00,+0.00,-1.00,-12.00,-1.00,-2.00,+0.00,-2.00,+15.00,-1.00,+27.00,+20.00,+11.00,-9.00,-71.00
+18.00,+17.00,-5.00,+2.00,+35.00,+9.00,-1.00,-5.00,-14.00,+4.00,+5.00,-14.00,-11.00,+3.00,+11.00,-86.00
+10.00,-3.00,+2.00,-4.00,-14.00,-10.00,-8.00,+1.00,-29.00,-6.00,-6.00,-36.00,-29.00,-8.00,-6.00,-37.00
-8.00,-3.00,+1.00,+2.00,-17.00,-13.00,-48.00,-4.00,-35.00,-18.00,-2.00,+17.00,+26.00,-43.00,-9.00,-8.00
-37.00,-94.00,-6.00,-4.00,+17.00,-3.00,+6.00,-6.00,+13.00,+9.00,+2.00,-10.00,-10.00,+36.00,+1.00,+48.00
-9.00,+33.00,+3.00,+1.00,+30.00,+8.00,-1.00,+4.00,-29.00,-8.00,-3.00,+3.00,+17.00,-7.00,-13.00,+15.00
-21.00,+64.00,+5.00,+2.00,-6.00,-4.00,+15.00,+1.00,+23.00,+17.00,-1.00,-1.00,-2.00,+5.00,+25.00,-16.00
-39.00,+42.00,-2.00,-3.00,-14.00,+9.00,+9.00,+2.00,+32.00,-33.00,+1.00,+31.00,-5.00,-10.00,-3.00,+23.00
+1.00,+11.00,-3.00,+4.00,+25.00,+14.00,+6.00,-5.00,-17.00,-7.00,-2.00,-27.00,-18.00,+3.00,+15.00,+31.00
-49.00,-53.00,-5.00,-5.00,-15.00,-10.00,-22.00,-1.00,+11.00,+12.00,-4.00,+9.00,-15.00,+1.00,-9.00,+29.00
-55.00,-37.00,-2.00,+2.00,+17.00,+12.00,-2.00,-2.00,-4.00,+7.00,+5.00,+1.00,+0.00,-3.00,-7.00,+28.00
+127.00,-9.00,-3.00,+0.00,-1.00,-5.00,+14.00,+0.00,-16.00,-6.00,-5.00,+1.00,+26.00,+16.00,+1.00,-22.00
+127.00,+16.00,-1.00,-2.00,-12.00,-1.00,+20.00,+2.00,+45.00,+12.00,-1.00,+36.00,-13.00,-15.00,+3.00,-6.00
-17.00,+43.00,+5.00,+0.00,+17.00,+2.00,-7.00,+0.00,-22.00,-18.00,+3.00,-34.00,-7.00,-1.00,+16.00,-11.00
-72.00,-12.00,-5.00,-4.00,-25.00,-15.00,-6.00,+2.00,+34.00,-14.00,-12.00,-52.00,-86.00,-3.00,-25.00,-31.00
-112.00,-18.00,+3.00,+2.00,+10.00,+14.00,+21.00,+0.00,+7.00,+16.00,+2.00,+20.00,-3.00,-3.00,-11.00,-32.00
-110.00,-75.00,-7.00,-1.00,-8.00,+0.00,+9.00,-3.00,+5.00,-20.00,+0.00,+15.00,+8.00,+7.00,-3.00,-18.00
-63.00,+80.00,+6.00,+1.00,+18.00,+6.00,+3.00,+3.00,+30.00,+14.00,+1.00,-1.00,+61.00,-3.00,+13.00,-9.00
-46.00,+45.00,+0.00,-1.00,-21.00,-2.00,-28.00,-7.00,-11.00,-10.00,+6.00,+21.00,-3.00,-5.00,-4.00,-20.00
-26.00,-47.00,-1.00,-1.00,+40.00,+1.00,-1.00,-3.00,-9.00,+6.00,-3.00,-12.00,+16.00,+5.00,+1.00,-9.00
-6.00,+8.00,+4.00,-5.00,-53.00,-11.00,-19.00,+0.00,-24.00,-2.00,-3.00,-15.00,-36.00,-7.00,-10.00,+1.00
-23.00,-34.00,-9.00,+3.00,+38.00,-2.00,+13.00,-5.00,+47.00,+1.00,+1.00,+25.00,+26.00,+7.00,+4.00,-1.00
-5.00,+33.00,+9.00,+1.00,+31.00,+1.00,-5.00,-1.00,+1.00,-16.00,+0.00,-12.00,+30.00,+0.00,-23.00,+5.00
-36.00,+18.00,-3.00,+4.00,+9.00,+16.00,+12.00,+2.00,+40.00,+21.00,+0.00,-9.00,-28.00,+5.00,+5.00,+13.00
-101.00,+7.00,-4.00,-1.00,+11.00,-1.00,-35.00,-4.00,-40.00,+18.00,-2.00,-3.00,+12.00,-6.00,+0.00,+16.00
-63.00,-13.00,-4.00,-4.00,-40.00,-15.00,+62.00,+3.00,+5.00,-28.00,+1.00,+5.00,-3.00,-2.00,-8.00,+3.00
-50.00,-21.00,+0.00,-4.00,-19.00,+3.00,+5.00,-2.00,-13.00,+8.00,-3.00,+12.00,+32.00,+0.00,-7.00,-12.00
-15.00,-50.00,-4.00,-4.00,-4.00,-8.00,+3.00,-2.00,+25.00,+23.00,+6.00,+23.00,-9.00,-12.00,+13.00,+13.00
+33.00,+9.00,+7.00,+3.00,+26.00,+2.00,+8.00,+3.00,+10.00,-15.00,-2.00,-25.00,-15.00,+17.00,-24.00,+7.00
+7.00,-33.00,-4.00,+0.00,+3.00,-6.00,-23.00,+0.00,-31.00,+0.00,-4.00,+21.00,+0.00,+3.00,-11.00,+1.00
+59.00,-16.00,-2.00,-5.00,-4.00,-3.00,+3.00,-1.00,+31.00,-12.00,+1.00,-24.00,-15.00,-34.00,+9.00,-5.00
+36.00,-11.00,-2.00,-3.00,-29.00,-15.00,+35.00,-3.00,-37.00,+3.00,-4.00,-22.00,+31.00,+13.00,-12.00,-10.00
+33.00,+68.00,-1.00,+3.00,+24.00,+13.00,-49.00,-6.00,+27.00,+12.00,-2.00,+7.00,-1.00,-5.00,-13.00,+8.00
+28.00,-85.00,-5.00,-1.00,+20.00,+3.00,-1.00,-3.00,-15.00,-16.00,+1.00,+5.00,-44.00,+12.00,-16.00,-4.00
+39.00,+71.00,+7.00,+2.00,-30.00,-8.00,+8.00,+4.00,+25.00,-9.00,-4.00,-5.00,+27.00,-16.00,+10.00,-9.00
+11.00,-13.00,+1.00,+1.00,+11.00,+6.00,-12.00,-2.00,+2.00,+22.00,-5.00,+0.00,-19.00,+10.00,+6.00,-9.00
+8.00,-14.00,-6.00,-7.00,-31.00,-15.00,+11.00,+0.00,-33.00,+5.00,+3.00,+22.00,+9.00,-14.00,-6.00,-6.00
+6.00,+26.00,+1.00,-1.00,-16.00,+3.00,-12.00,-7.00,+14.00,-5.00,-3.00,-16.00,-31.00,-3.00,-8.00,-7.00
-29.00,-37.00,-1.00,+1.00,+24.00,-22.00,-3.00,-3.00,+5.00,+6.00,+2.00,-18.00,+13.00,+11.00,-3.00,+8.00
+5.00,-51.00,-7.00,-10.00,-30.00,+1.00,-2.00,+3.00,-1.00,-40.00,-4.00,+2.00,-16.00,-6.00,-11.00,+2.00
+19.00,+49.00,+5.00,+2.00,+33.00,+3.00,+14.00,-2.00,+2.00,+13.00,+0.00,+18.00,+17.00,+4.00,+5.00,-3.00
+8.00,-7.00,+1.00,+2.00,-15.00,+2.00,+3.00,+3.00,-11.00,-4.00,-3.00,-31.00,-11.00,-4.00,+10.00,+3.00
-1.00,-69.00,-6.00,-6.00,-23.00,-4.00,-31.00,-9.00,+3.00,+5.00,-2.00,+16.00,+2.00,+8.00,+29.00,-6.00
+18.00,+60.00,+9.00,+3.00,+31.00,+2.00,+16.00,-2.00,-21.00,-18.00,-9.00,-12.00,+5.00,+1.00,-16.00,-7.00
-11.00,-33.00,+3.00,+0.00,+1.00,+2.00,+3.00,+1.00,+30.00,+20.00,+1.00,-9.00,-2.00,-8.00,-29.00,+4.00
+1.00,+3.00,-2.00,-5.00,-14.00,-4.00,-7.00,-3.00,+16.00,-4.00,+0.00,+8.00,-3.00,-2.00,+9.00,-1.00
+0.00,-1.00,-5.00,+4.00,+26.00,+17.00,+42.00,+4.00,-24.00,+9.00,+2.00,+9.00,+15.00,+7.00,-8.00,-7.00
-20.00,-2.00,-5.00,-5.00,-23.00,-12.00,-16.00,-6.00,+13.00,-6.00,-1.00,-8.00,-23.00,-10.00,+1.00,+0.00
+115.00,-16.00,-3.00,+1.00,+12.00,+12.00,+3.00,+5.00,-67.00,-36.00,-6.00,+5.00,-1.00,-7.00,+15.00,-4.00
+36.00,+29.00,+2.00,-3.00,-16.00,-3.00,+8.00,+3.00,+40.00,+78.00,+1.00,+4.00,-4.00,-2.00,-5.00,+8.00
+10.00,-3.00,-4.00,+1.00,+18.00,+8.00,-6.00,-1.00,+3.00,-13.00,+2.00,+2.00,-38.00,+1.00,-8.00,-4.00
+0.00,-1.00,+1.00,-1.00,-16.00,-5.00,+11.00,-2.00,-37.00,-25.00,-2.00,-3.00,-6.00,-3.00,+0.00,+1.00
-63.00,+42.00,+2.00,+2.00,+8.00,-6.00,-29.00,+0.00,+98.00,+12.00,-1.00,-17.00,-16.00,-2.00,+12.00,+4.00
-35.00,-26.00,+1.00,+0.00,-21.00,+2.00,-21.00,+0.00,-39.00,-38.00,-4.00,-3.00,-20.00,-1.00,+4.00,-3.00
-49.00,-27.00,-6.00,-5.00,-22.00,-10.00,+15.00,+0.00,+4.00,+24.00,+0.00,+8.00,-8.00,+5.00,+7.00,+5.00
-45.00,-17.00,+3.00,+3.00,+39.00,+6.00,-5.00,+1.00,+10.00,+13.00,+2.00,+16.00,+3.00,-4.00,+2.00,-2.00
-29.00,+26.00,+2.00,+3.00,-11.00,-16.00,+6.00,+3.00,-32.00,-12.00,+1.00,-27.00,-48.00,-3.00,-2.00,-6.00
-24.00,-2.00,-10.00,-2.00,+10.00,+5.00,-5.00,-5.00,+1.00,-3.00,-1.00,-2.00,+52.00,-3.00,+4.00,+5.00
+98.00,+22.00,+13.00,-1.00,-22.00,+8.00,-8.00,+9.00,+5.00,+4.00,-2.00,+6.00,+9.00,+1.00,-3.00,+2.00
+33.00,+17.00,-5.00,+1.00,+28.00,+11.00,+0.00,+0.00,+3.00,-8.00,+0.00,+4.00,-20.00,+9.00,-4.00,+0.00
-1.00,+7.00,+1.00,-7.00,-33.00,-26.00,+10.00,+1.00,-24.00,-5.00,-2.00,-8.00,+38.00,-4.00,+6.00,-2.00
-71.00,-55.00,-17.00,-6.00,-16.00,-4.00,-4.00,-6.00,+16.00,-20.00,+2.00,+7.00,+1.00,+2.00,+7.00,+0.00
-96.00,-24.00,+3.00,+2.00,+27.00,+4.00,+10.00,+2.00,-2.00,+16.00,-4.00,-20.00,+10.00,-8.00,-15.00,-2.00
-9.00,+44.00,+4.00,-1.00,+7.00,-4.00,-12.00,-2.00,-8.00,+45.00,+4.00,+8.00,-10.00,+12.00,+3.00,-3.00
-32.00,-46.00,-8.00,+1.00,-17.00,+6.00,+5.00,-1.00,-15.00,-14.00,-5.00,+2.00,-10.00,-15.00,+19.00,+3.00
-2.00,+13.00,+5.00,+0.00,+10.00,-3.00,+0.00,-2.00,+14.00,+3.00,-1.00,-19.00,+4.00,-1.00,-30.00,+0.00
-4.00,-53.00,-11.00,-5.00,-32.00,-3.00,-9.00,-5.00,-23.00,-30.00,-3.00,+0.00,-12.00,-3.00,+46.00,-4.00
+1.00,+83.00,+9.00,+2.00,-32.00,-25.00,-8.00,-1.00,+19.00,-7.00,-2.00,+13.00,+15.00,-12.00,-3.00,+0.00
-19.00,-6.00,+1.00,-3.00,+7.00,+2.00,+4.00,-1.00,+64.00,+21.00,+2.00,-3.00,+14.00,+4.00,+3.00,+3.00
+19.00,+0.00,+1.00,+1.00,+5.00,+4.00,+4.00,+2.00,-47.00,-35.00,-1.00,+0.00,-17.00,-5.00,-6.00,-4.00
-2.00,-12.00,-7.00,-4.00,+11.00,-5.00,-34.00,-4.00,-8.00,+25.00,+2.00,-6.00,-10.00,+3.00,-23.00,-5.00
-5.00,+19.00,+0.00,-2.00,-9.00,+3.00,+80.00,-2.00,-60.00,-4.00,-4.00,-1.00,+9.00,-2.00,+4.00,-8.00
-8.00,-75.00,-4.00,+2.00,+1.00,-1.00,+9.00,+0.00,+18.00,+0.00,+4.00,-7.00,+1.00,+6.00,+5.00,+2.00
+23.00,+59.00,+9.00,-2.00,-14.00,-2.00,+16.00,+5.00,-17.00,-18.00,-1.00,-5.00,-8.00,-4.00,+2.00,-1.00
+13.00,-20.00,-4.00,-1.00,+12.00,+11.00,-14.00,+1.00,+45.00,-2.00,-2.00,+11.00,-1.00,+2.00,-8.00,+2.00
+13.00,-94.00,-10.00,-4.00,-17.00,-10.00,-36.00,+3.00,+37.00,+40.00,+1.00,+1.00,+23.00,-6.00,+6.00,+6.00
+36.00,+86.00,+7.00,+4.00,+24.00,+5.00,+2.00,+1.00,-49.00,-15.00,-2.00,-15.00,+22.00,+3.00,-15.00,-4.00
+11.00,-18.00,-3.00,-2.00,-18.00,-5.00,+10.00,-3.00,-9.00,+18.00,+1.00,+20.00,+5.00,-1.00,+2.00,+0.00
+0.00,+25.00,-2.00,+4.00,+2.00,+17.00,+1.00,-2.00,-16.00,-23.00,-1.00,-15.00,+26.00,-1.00,-3.00,-1.00
+11.00,-17.00,-1.00,-1.00,+6.00,-9.00,-12.00,+2.00,-16.00,-22.00,-5.00,-3.00,+6.00,+4.00,-13.00,-7.00
-7.00,-10.00,+2.00,-1.00,+5.00,+6.00,+6.00,-2.00,+36.00,-6.00,-5.00,+5.00,-17.00,+0.00,+3.00,+1.00
-5.00,-9.00,-4.00,-1.00,-10.00,+3.00,-23.00,-1.00,-10.00,+19.00,+8.00,+9.00,-3.00,+2.00,+9.00,+5.00
+2.00,-12.00,-2.00,+4.00,+16.00,-1.00,+14.00,+0.00,+26.00,-14.00,-8.00,-4.00,-5.00,-7.00,-4.00,-1.00
+12.00,+54.00,-4.00,-2.00,+19.00,+5.00,-6.00,-1.00,-27.00,+1.00,+6.00,-11.00,+7.00,+7.00,+7.00,+9.00
-12.00,-25.00,+0.00,-4.00,-32.00,-16.00,-6.00,-3.00,-11.00,+13.00,+1.00,+9.00,+1.00,-7.00,+3.00,-1.00
-7.00,-14.00,-5.00,-1.00,+24.00,+17.00,-2.00,-5.00,+1.00,-10.00,-8.00,-16.00,+1.00,+1.00,+3.00,-8.00
-3.00,-8.00,+1.00,+0.00,+15.00,+5.00,+4.00,-3.00,-3.00,+4.00,-1.00,+9.00,+7.00,+3.00,-7.00,+1.00
-11.00,-64.00,-6.00,-4.00,-36.00,-14.00,-4.00,-4.00,-10.00,-3.00,+1.00,+3.00,-17.00,-3.00,-4.00,-3.00
+11.00,+41.00,-4.00,-2.00,+7.00,+4.00,-8.00,-3.00,-31.00,-33.00,-3.00,+4.00,+2.00,+3.00,+0.00,-3.00
+4.00,-21.00,+4.00,+2.00,+4.00,-8.00,+5.00,+2.00,+39.00,+52.00,-1.00,-19.00,-26.00,-3.00,-5.00,-3.00
-7.00,-21.00,-1.00,-1.00,+4.00,-3.00,-1.00,-6.00,+1.00,+4.00,+1.00,+6.00,-6.00,+1.00,+3.00,+1.00
+13.00,+37.00,+5.00,+4.00,+16.00,+5.00,-18.00,+2.00,-10.00,-14.00,+0.00,-11.00,-10.00,-3.00,-4.00,-5.00
-15.00,+11.00,-2.00,-6.00,-27.00,-13.00,+6.00,-4.00,-11.00,+12.00,+7.00,+12.00,+11.00,+3.00,+1.00,+1.00
-6.00,+7.00,+4.00,+4.00,+5.00,+2.00,-4.00,-1.00,+0.00,-21.00,-15.00,-6.00,-11.00,-2.00,-3.00,-5.00
+0.00,+26.00,+0.00,-2.00,-4.00,-4.00,+5.00,+3.00,-19.00,-4.00,+0.00,-9.00,+0.00,+2.00,+3.00,-1.00
-15.00,-49.00,-7.00,-4.00,-1.00,+2.00,-10.00,-5.00,+28.00,-2.00,-2.00,+15.00,-31.00,-5.00,-2.00,-2.00
+9.00,+21.00,+1.00,+3.00,+3.00,+4.00,-4.00,+2.00,+36.00,-5.00,-6.00,-1.00,+43.00,+0.00,-5.00,-3.00
-2.00,+4.00,-4.00,-3.00,-2.00,+1.00,+2.00,+1.00,+18.00,+3.00,-1.00,-4.00,-18.00,-2.00,+9.00,+8.00
+11.00,+62.00,+6.00,+2.00,+12.00,-12.00,+2.00,+5.00,-77.00,-8.00,+0.00,+0.00,+25.00,+10.00,-6.00,-4.00
+3.00,-4.00,+2.00,+1.00,+18.00,+4.00,-12.00,-2.00,+23.00,-16.00,-4.00,+0.00,-5.00,-9.00,-7.00,-1.00
-6.00,-35.00,-4.00,-4.00,+3.00,+7.00,-3.00,-4.00,-29.00,-79.00,-5.00,-2.00,-13.00,-8.00,+15.00,-3.00
+16.00,+18.00,+0.00,-4.00,+4.00,-4.00,-4.00,+0.00,+5.00,+74.00,+9.00,+4.00,+12.00,-3.00,-26.00,-4.00
-3.00,-6.00,-1.00,+3.00,-26.00,-1.00,+8.00,+3.00,+9.00,-9.00,+4.00,+17.00,-4.00,+8.00,+30.00,+1.00
-7.00,-14.00,+2.00,+0.00,-15.00,+6.00,-4.00,-1.00,-27.00,+5.00,+4.00,-29.00,+10.00,+3.00,-4.00,-1.00
+109.00,-67.00,-6.00,-1.00,-7.00,+6.00,-3.00,-4.00,-10.00,+5.00,-1.00,-13.00,-15.00,-1.00,+5.00,-1.00
+55.00,+56.00,-1.00,-3.00,+0.00,-12.00,-1.00,-3.00,+19.00,-30.00,-1.00,+30.00,-14.00,-1.00,+12.00,+0.00
-9.00,-7.00,+0.00,+1.00,+45.00,+22.00,+3.00,+1.00,-12.00,-35.00,-2.00,-36.00,-15.00,-5.00,-18.00,-9.00
-51.00,+26.00,-2.00,+2.00,+10.00,-3.00,+2.00,-1.00,+7.00,+15.00,-1.00,+3.00,-6.00,-3.00,+2.00,+6.00
-73.00,-26.00,+2.00,+3.00,-14.00,+16.00,+0.00,+2.00,+44.00,+35.00,-3.00,+4.00,+2.00,-4.00,-9.00,-6.00
-43.00,-43.00,-6.00,-2.00,-2.00,-13.00,-1.00,+0.00,-89.00,-37.00,+1.00,-18.00,+39.00,+2.00,-7.00,+1.00
-12.00,-38.00,-11.00,-8.00,-26.00,-6.00,+1.00,-4.00,-4.00,+6.00,-7.00,+15.00,-3.00,-2.00,-11.00,+1.00
-26.00,+34.00,+5.00,+2.00,+4.00,-4.00,-16.00,+0.00,+25.00,+0.00,-1.00,+7.00,+2.00,-3.00,+5.00,-1.00
-25.00,-19.00,+4.00,+0.00,-7.00,-3.00,+2.00,+2.00,-14.00,+17.00,-3.00,-17.00,-21.00,-1.00,-9.00,-2.00
-30.00,+5.00,+0.00,+4.00,-8.00,+2.00,+13.00,-1.00,+14.00,+3.00,-1.00,+21.00,-4.00,-3.00,+1.00,-10.00
-60.00,+2.00,+0.00,-2.00,+6.00,-11.00,-26.00,-1.00,-4.00,-1.00,-1.00,-7.00,+8.00,-3.00,+0.00,-1.00
-55.00,-45.00,-4.00,-4.00,-22.00,-3.00,-4.00,-4.00,+6.00,-10.00,-3.00,-8.00,+10.00,+1.00,+4.00,-1.00
-34.00,+47.00,+3.00,+1.00,-1.00,-11.00,+0.00,+2.00,-23.00,+28.00,+4.00,+16.00,-24.00,-1.00,-8.00,-2.00
-38.00,-19.00,-1.00,-2.00,+8.00,-1.00,+2.00,+3.00,+9.00,-12.00,+1.00,-3.00,+7.00,+2.00,+5.00,+2.00
-36.00,+15.00,-1.00,-3.00,-17.00,-3.00,+0.00,-7.00,-11.00,-7.00,-3.00,-3.00,-14.00,-2.00,-4.00,+0.00
+34.00,+59.00,+4.00,-2.00,-6.00,+1.00,+8.00,+8.00,+30.00,+1.00,+2.00,-3.00,+9.00,-2.00,+0.00,+5.00
-8.00,-82.00,-9.00,-4.00,+6.00,-1.00,+3.00,-5.00,-21.00,+6.00,+2.00,+0.00,+0.00,+3.00,-3.00,+2.00
+33.00,+110.00,+11.00,+2.00,-18.00,-5.00,-15.00,+4.00,-20.00,-21.00,-2.00,-9.00,-6.00,-2.00,+6.00,+1.00
+10.00,-53.00,-2.00,-1.00,+24.00,-13.00,-1.00,-4.00,+45.00,+23.00,+0.00,-1.00,+7.00,+0.00,-9.00,+4.00
+16.00,-52.00,-1.00,+2.00,+6.00,+9.00,-5.00,-5.00,-21.00,-4.00,-2.00,+25.00,+1.00,-1.00,+3.00,-6.00
+7.00,+40.00,-1.00,+1.00,+25.00,+3.00,+4.00,+3.00,-70.00,-23.00,+0.00,-19.00,-2.00,+6.00,+2.00,-2.00
-8.00,-82.00,-8.00,-4.00,+0.00,+7.00,-5.00,-3.00,+41.00,-12.00,-5.00,+1.00,+7.00,+0.00,+2.00,+0.00
+34.00,+30.00,-1.00,-7.00,-23.00,-5.00,+3.00,+1.00,-46.00,-3.00,-2.00,+3.00,-20.00,-9.00,+1.00,-5.00
+35.00,+14.00,+0.00,-1.00,+0.00,+3.00,+2.00,+1.00,+9.00,+4.00,+1.00,-5.00,-7.00,-1.00,-6.00,-2.00
+3.00,+1.00,+1.00,-1.00,-6.00,+0.00,-6.00,-4.00,+11.00,+23.00,+0.00,+3.00,-2.00,+1.00,-1.00,-2.00
-13.00,-29.00,+1.00,-2.00,-8.00,-5.00,-10.00,-4.00,+11.00,-2.00,-3.00,-1.00,+1.00,-1.00,+1.00,-2.00
+22.00,+32.00,+3.00,+1.00,+15.00,+6.00,+2.00,+2.00,+4.00,+2.00,-1.00,+3.00,+8.00,+4.00,-3.00,-3.00
+2.00,-4.00,-3.00,+0.00,+12.00,+3.00,+2.00,-3.00,-16.00,-1.00,+7.00,-7.00,-8.00,-4.00,-29.00,-10.00
+11.00,-38.00,-9.00,-7.00,-11.00,-1.00,-3.00,-5.00,+9.00,-6.00,-11.00,+3.00,+4.00,-5.00,+24.00,+0.00
+25.00,+46.00,+0.00,-3.00,-8.00,-11.00,-1.00,+1.00,-9.00,-2.00,-5.00,-2.00,-7.00,-3.00,+2.00,-1.00
+4.00,-65.00,-2.00,-1.00,-20.00,-1.00,+3.00,-1.00,+23.00,-3.00,-4.00,+1.00,+3.00,-4.00,-8.00,+9.00
+9.00,+55.00,-1.00,-2.00,+8.00,-17.00,-2.00,-2.00,-9.00,-5.00,-2.00,-7.00,-2.00,-3.00,-3.00,+2.00
+13.00,-3.00,+0.00,-1.00,-3.00,-4.00,+0.00,+5.00,+11.00,-3.00,+1.00,+5.00,+4.00,+4.00,-14.00,-9.00
-4.00,-59.00,-2.00,+2.00,+13.00,+6.00,-1.00,-2.00,+2.00,+4.00,+2.00,-1.00,+26.00,-4.00,+4.00,-1.00
-1.00,+28.00,+7.00,+5.00,+5.00,+4.00,+2.00,-1.00,+7.00,+5.00,-3.00,-4.00,-25.00,+0.00,+8.00,+1.00
-13.00,-29.00,-5.00,-4.00,-16.00,+0.00,-5.00,-11.00,-1.00,-10.00,-6.00,-4.00,-3.00,-2.00,-4.00,-1.00
-12.00,+2.00,-6.00,-5.00,-8.00,-7.00,-8.00,-3.00,+5.00,+5.00,+1.00,+4.00,-16.00,+0.00,-6.00,-1.00
-3.00,-2.00,+1.00,+2.00,+9.00,+2.00,+5.00,+9.00,+6.00,+4.00,-2.00,-5.00,+2.00,+0.00,+5.00,+1.00
+0.00,+16.00,-3.00,-3.00,-10.00,-4.00,+5.00,-6.00,-16.00,-12.00,+1.00,+0.00,+14.00,+6.00,-6.00,-4.00
+6.00,-16.00,-1.00,-2.00,-3.00,+4.00,+0.00,+4.00,-5.00,-3.00,-3.00,-4.00,-5.00,-3.00,+9.00,+2.00
-3.00,+32.00,+3.00,+0.00,+12.00,+5.00,+8.00,+24.00,+2.00,-4.00,-3.00,+0.00,-4.00,-9.00,-3.00,-2.00
+26.00,+6.00,-5.00,+1.00,+7.00,+7.00,-1.00,-14.00,-1.00,-3.00,+3.00,-4.00,-14.00,+3.00,-6.00,+0.00
+25.00,-17.00,+1.00,+1.00,-12.00,-2.00,-4.00,+12.00,+16.00,+11.00,+1.00,+2.00,+4.00,-3.00,-5.00,+0.00
+18.00,+10.00,+5.00,+0.00,-1.00,+4.00,-3.00,-10.00,-7.00,-9.00,-4.00,+1.00,-3.00,+5.00,+9.00,-1.00
-6.00,-8.00,-3.00,+0.00,+14.00,+0.00,-3.00,-7.00,+4.00,+8.00,+0.00,+0.00,+8.00,+2.00,+0.00,-2.00
-16.00,+31.00,-1.00,-1.00,-7.00,-2.00,-2.00,-3.00,-2.00,-1.00,+1.00,+1.00,-7.00,-6.00,-15.00,-5.00
-20.00,+22.00,+0.00,-5.00,-11.00,-3.00,-3.00,-9.00,+1.00,-1.00,-1.00,-2.00,+2.00,-6.00,-2.00,-2.00
-15.00,-42.00,-1.00,+1.00,+5.00,-5.00,+1.00,-2.00,+4.00,+1.00,-5.00,-4.00,+0.00,+3.00,+2.00,+5.00
-14.00,+31.00,+2.00,+0.00,-2.00,+0.00,-3.00,-6.00,-6.00,-3.00,-1.00,+0.00,+10.00,-7.00,-4.00,-4.00
-13.00,-23.00,-6.00,-1.00,+0.00,-15.00,-1.00,-8.00,-3.00,-2.00,+0.00,+0.00,-9.00,+4.00,+3.00,-2.00
-11.00,-1.00,+3.00,+1.00,+3.00,+5.00,+1.00,+4.00,-5.00,-7.00,+0.00,+1.00,-3.00,-1.00,+2.00,-3.00
-12.00,-14.00,-4.00,+1.00,+3.00,+0.00,+2.00,+10.00,-2.00,+1.00,-2.00,-3.00,-6.00,-1.00,-1.00,-7.00
+89.00,-3.00,-3.00,-5.00,-8.00,-3.00,-3.00,+2.00,+10.00,-1.00,+0.00,-1.00,+0.00,-2.00,-4.00,+1.00
+59.00,-17.00,-2.00,-1.00,+2.00,+0.00,-2.00,-10.00,-2.00,+2.00,-4.00,-1.00,-6.00,+1.00,+2.00,+5.00
-3.00,-9.00,-1.00,-1.00,-1.00,-2.00,+2.00,-12.00,-7.00,-6.00,-2.00,+1.00,-2.00,+3.00,+2.00,-6.00
-24.00,+16.00,+4.00,+2.00,+0.00,+0.00,+4.00,+28.00,+1.00,+2.00,-1.00,-3.00,+5.00,-3.00,-21.00,+14.00
-34.00,-27.00,-3.00,-1.00,-2.00,+1.00,+2.00,-2.00,+3.00,+3.00,+0.00,-1.00,-3.00,-1.00,+29.00,-19.00
-22.00,+17.00,-3.00,-1.00,+0.00,+3.00,-2.00,-6.00,-2.00,-1.00,-1.00,-1.00,-1.00,-2.00,-13.00,-10.00
+1.00,-1.00,+4.00,+2.00,-1.00,-2.00,-1.00,+3.00,+1.00,-3.00,+1.00,+1.00,-2.00,-3.00,-9.00,+4.00
-41.00,-19.00,-1.00,+1.00,+2.00,+5.00,-3.00,-10.00,-6.00,-4.00,-2.00,-1.00,-3.00,+0.00,+1.00,+17.00
-44.00,+19.00,+1.00,-2.00,-1.00,-4.00,-5.00,-6.00,+8.00,+3.00,+1.00,+1.00,-2.00,-8.00,-26.00,-12.00
-35.00,-9.00,-4.00,-3.00,-8.00,+3.00,+1.00,+2.00,-4.00,-4.00,-2.00,-3.00,-5.00,-3.00,-21.00,+17.00
+2.00,+41.00,-5.00,-1.00,+11.00,-4.00,+0.00,-1.00,+13.00,+9.00,+1.00,-1.00,+4.00,+1.00,+10.00,-6.00
+36.00,-6.00,+1.00,-3.00,-8.00,-7.00,-5.00,-8.00,-17.00,-11.00,-1.00,+0.00,+0.00,+2.00,+4.00,-3.00
+27.00,-10.00,+2.00,+2.00,+4.00,-5.00,-9.00,-22.00,-7.00,-2.00,-1.00,+2.00,-14.00,+5.00,+9.00,+2.00
+1.00,-7.00,+1.00,-1.00,+2.00,+0.00,+2.00,-38.00,-4.00,-2.00,-3.00,-3.00,+21.00,-1.00,+13.00,-11.00
-23.00,-18.00,-2.00,+0.00,-2.00,-4.00,+2.00,+10.00,+11.00,+3.00,+0.00,-2.00,-1.00,-4.00,-5.00,-4.00
+2.00,+1.00,-3.00,+0.00,+3.00,-1.00,-2.00,+31.00,-3.00,-3.00,-1.00,-1.00,+1.00,+2.00,+24.00,+7.00
-19.00,+25.00,+0.00,+0.00,+3.00,+0.00,-6.00,+14.00,-3.00,-4.00,-1.00,-2.00,-3.00,+3.00,-15.00,+17.00
-37.00,-11.00,+1.00,-1.00,-2.00,-1.00,+10.00,+13.00,-6.00,-3.00,-1.00,+0.00,-13.00,-14.00,-11.00,-25.00
+1.00,+2.00,+0.00,-1.00,-7.00,+1.00,+15.00,-5.00,-1.00,-3.00,-6.00,+0.00,+2.00,-2.00,+17.00,+9.00
+11.00,+1.00,-2.00,-1.00,+11.00,+4.00,+10.00,+24.00,+20.00,+7.00,+2.00,+3.00,+1.00,-2.00,-37.00,-10.00
-16.00,+0.00,-2.00,+1.00,-3.00,-1.00,-4.00,-4.00,-20.00,-4.00,+1.00,-4.00,+5.00,+2.00,+37.00,+10.00
+6.00,-25.00,+2.00,+1.00,+2.00,+1.00,-13.00,+0.00,+8.00,+3.00,-1.00,+4.00,-5.00,+7.00,-13.00,+3.00
+4.00,+33.00,-3.00,-6.00,-8.00,-4.00,-12.00,-17.00,-4.00,+0.00,+3.00,-2.00,-3.00,-2.00,-5.00,-4.00
+2.00,+6.00,-6.00,-7.00,-5.00,+0.00,-6.00,-20.00,+2.00,+3.00,-1.00,-4.00,-6.00,-1.00,+16.00,+7.00
-4.00,-25.00,+1.00,+3.00,+1.00,-5.00,-3.00,-39.00,+4.00,+3.00,-3.00,-2.00,-6.00,+1.00,-5.00,-15.00
+2.00,+13.00,-1.00,+1.00,+2.00,+2.00,-3.00,+0.00,+0.00,+1.00,+2.00,-2.00,+3.00,+3.00,+15.00,+1.00
+13.00,-19.00,+2.00,+0.00,-2.00,-2.00,+5.00,+50.00,-5.00,+4.00,-1.00,+0.00,-3.00,-5.00,-32.00,-22.00
+0.00,-7.00,+0.00,+0.00,-3.00,+8.00,+6.00,-28.00,-3.00,-6.00,-3.00,+0.00,+8.00,-9.00,-6.00,+0.00
+0.00,+58.00,-1.00,-5.00,+0.00,+3.00,+15.00,+30.00,+6.00,+2.00,-1.00,+1.00,-4.00,+2.00,+4.00,+27.00
+11.00,-34.00,-3.00,-1.00,-2.00,+4.00,+11.00,+49.00,+0.00,+0.00,+0.00,+0.00,-4.00,+2.00,+14.00,+25.00
+5.00,+11.00,+1.00,+2.00,+1.00,+0.00,-9.00,-5.00,+9.00,+6.00,+0.00,+1.00,+14.00,+0.00,+2.00,-9.00
-9.00,+7.00,+0.00,-2.00,-4.00,-2.00,-11.00,-20.00,-21.00,-17.00,-7.00,-11.00,-9.00,-1.00,-39.00,-29.00
+3.00,-24.00,+1.00,+3.00,+11.00,-3.00,+2.00,-11.00,-8.00,-3.00,-3.00,+9.00,-8.00,-6.00,+33.00,+6.00
-9.00,-8.00,-3.00,-6.00,-7.00,-2.00,-12.00,-25.00,+8.00,+2.00,+1.00,-16.00,+1.00,+7.00,+20.00,+10.00
-10.00,-11.00,-2.00,-2.00,-3.00,-3.00,+0.00,-26.00,-15.00,-5.00,+1.00,+4.00,+5.00,+1.00,+4.00,-1.00
+7.00,-1.00,-1.00,+0.00,-9.00,-4.00,-12.00,-3.00,+23.00,+12.00,+2.00,-5.00,+3.00,+1.00,-12.00,+13.00
-2.00,-4.00,-1.00,+1.00,+3.00,-1.00,+9.00,+27.00,-13.00,-9.00,-1.00,-1.00,-1.00,-5.00,-20.00,-18.00
+3.00,+7.00,+1.00,+0.00,-2.00,-2.00,+14.00,+25.00,+0.00,-2.00,-1.00,+0.00,-12.00,+2.00,+9.00,-2.00
-6.00,-8.00,-4.00,-1.00,+6.00,+2.00,-9.00,-17.00,+6.00,-2.00,-1.00,-2.00,-1.00,-2.00,-14.00,+2.00
+2.00,-1.00,-1.00,-1.00,-17.00,-9.00,+2.00,-1.00,-2.00,+3.00,-1.00,+3.00,+2.00,+0.00,+24.00,-1.00
-19.00,-37.00,-5.00,+0.00,+18.00,+5.00,-12.00,-1.00,+8.00,-3.00,-2.00,-2.00,+7.00,+0.00,-15.00,-3.00
+23.00,+32.00,+3.00,-2.00,+3.00,-1.00,-13.00,-14.00,+2.00,+0.00,-3.00,+0.00,-3.00,-3.00,+0.00,+5.00
-2.00,+12.00,-2.00,-2.00,-10.00,-1.00,+17.00,+11.00,-7.00,-3.00,-2.00,-1.00,-1.00,-1.00,-2.00,-5.00
+11.00,+4.00,+0.00,+0.00,+4.00,-2.00,-2.00,+35.00,-4.00,-1.00,+2.00,+3.00,-3.00,+1.00,-9.00,-34.00
-5.00,-23.00,-2.00,-5.00,-34.00,-7.00,-3.00,-5.00,+7.00,+6.00,-1.00,-4.00,+3.00,+1.00,+34.00,+38.00
-17.00,-28.00,-5.00,+1.00,+23.00,-4.00,+3.00,-11.00,-5.00,-7.00,-4.00,-1.00,-1.00,-2.00,-21.00,-15.00
+11.00,+69.00,+1.00,+0.00,-3.00,-1.00,-5.00,+19.00,-1.00,+4.00,-1.00,-3.00,-6.00,-8.00,-3.00,+7.00
+0.00,-2.00,-2.00,+1.00,-1.00,-1.00,-1.00,-5.00,-1.00,-3.00,+0.00,+5.00,-4.00,+2.00,+4.00,+2.00
-7.00,-7.00,+0.00,-1.00,-4.00,-2.00,+2.00,-7.00,+1.00,+2.00,+1.00,+0.00,+5.00,-3.00,-45.00,-20.00
-3.00,+4.00,-1.00,-1.00,-1.00,-3.00,-4.00,-26.00,-6.00,-2.00,+0.00,+3.00,+3.00,+0.00,+25.00,+14.00
-1.00,+7.00,+0.00,-3.00,-2.00,-4.00,-7.00,+8.00,-4.00,-6.00,-3.00,-3.00,-2.00,+0.00,-8.00,+6.00
-7.00,+2.00,-4.00,-2.00,+4.00,+0.00,+3.00,+4.00,-4.00,+0.00,+0.00,-4.00,-1.00,+1.00,+28.00,+16.00
+2.00,+6.00,+0.00,-2.00,+5.00,-5.00,-10.00,-15.00,+10.00,+0.00,-1.00,-1.00,-6.00,+0.00,-16.00,-26.00
-3.00,-1.00,-1.00,-2.00,-16.00,-4.00,-2.00,-3.00,-6.00,-3.00,-2.00,+2.00,+9.00,+1.00,+9.00,-21.00
-4.00,-35.00,-1.00,+0.00,+3.00,+0.00,-10.00,-24.00,-11.00,-3.00,-3.00,-2.00,-4.00,-3.00,-22.00,+9.00
+3.00,+0.00,+0.00,+1.00,+4.00,-1.00,+25.00,-16.00,+9.00,+8.00,+1.00,+1.00,-1.00,-1.00,-6.00,-6.00
+7.00,+16.00,+1.00,+3.00,+2.00,+3.00,+0.00,+29.00,+3.00,-4.00,-2.00,-1.00,-6.00,-1.00,+3.00,+3.00
+7.00,+4.00,+3.00,+0.00,+1.00,+6.00,+11.00,+58.00,-14.00,-4.00,-2.00,-4.00,+5.00,-2.00,-17.00,-11.00
+3.00,-16.00,-3.00,-2.00,+3.00,+2.00,-7.00,-12.00,+3.00,+0.00,-1.00,-2.00,-2.00,-1.00,+11.00,-4.00
-7.00,+3.00,-2.00,-3.00,-2.00,-3.00,+3.00,-53.00,-7.00,-6.00,-3.00,-1.00,+1.00,-1.00,+12.00,-5.00
-3.00,-5.00,-1.00,-1.00,-10.00,-3.00,-9.00,-7.00,+9.00,+4.00,+2.00,+0.00,-1.00,-2.00,-13.00,+3.00
-11.00,+7.00,-3.00,+1.00,+5.00,+5.00,-5.00,-24.00,+8.00,+5.00,+0.00,-2.00,-6.00,-5.00,+1.00,-4.00
+1.00,-19.00,-5.00,-2.00,-3.00,-1.00,-7.00,+2.00,-7.00,-6.00,-1.00,-3.00,-3.00,+2.00,+8.00,-4.00
+3.00,-9.00,+2.00,+1.00,+4.00,+0.00,-4.00,+18.00,-1.00,-1.00,-2.00,+0.00,-5.00,-1.00,+2.00,+4.00
+6.00,+41.00,-1.00,+0.00,-3.00,-1.00,+10.00,+30.00,+0.00,+2.00,-1.00,-1.00,+6.00,+0.00,-4.00,-3.00
-4.00,-30.00,-2.00,+2.00,-5.00,-1.00,-2.00,-1.00,-3.00,-3.00,+1.00,+2.00,-5.00,-5.00,-23.00,-4.00
-3.00,+52.00,+4.00,-1.00,+9.00,-1.00,+1.00,-16.00,-1.00,-3.00,-1.00,-1.00,-1.00,-2.00,-2.00,-9.00
+4.00,-18.00,+2.00,+0.00,-1.00,+0.00,-5.00,+9.00,-2.00,-3.00,-5.00,+2.00,-2.00,-2.00,-2.00,+5.00
+2.00,+4.00,+1.00,+1.00,+4.00,+4.00,+1.00,-8.00,-5.00,-2.00,+0.00,-3.00,+2.00,-1.00,+3.00,-6.00
-2.00,-6.00,-2.00,-3.00,+0.00,-3.00,-4.00,-10.00,-3.00,+0.00,-1.00,+0.00,-2.00,+0.00,-9.00,+1.00
-6.00,-32.00,-6.00,-5.00,-10.00,-2.00,-2.00,+5.00,+0.00,-1.00,-2.00,-3.00,-2.00,+0.00,+8.00,+3.00
+2.00,+7.00,-4.00,-4.00,-1.00,-4.00,-3.00,+3.00,+0.00,-1.00,+1.00,+2.00,+0.00,-3.00,+1.00,-4.00
+2.00,-4.00,-1.00,-2.00,+0.00,+2.00,+1.00,-6.00,-3.00,+1.00,+1.00,-2.00,+0.00,-1.00,-6.00,+0.00
-1.00,+15.00,+0.00,+1.00,-1.00,+1.00,+0.00,-18.00,+4.00,+0.00,+0.00,-2.00,-6.00,-1.00,+2.00,+4.00
+1.00,-19.00,-1.00,+2.00,+2.00,-1.00,+4.00,+1.00,-1.00,+0.00,+1.00,+3.00,+1.00,+1.00,+3.00,+0.00
+0.00,+15.00,-2.00,-1.00,+3.00,+0.00,-4.00,+7.00,-4.00,-5.00,-1.00,-1.00,+0.00,-1.00,+2.00,-2.00
+3.00,-15.00,-2.00,-1.00,-2.00,+0.00,+4.00,+19.00,+0.00,-4.00,-5.00,-5.00,+0.00,-3.00,-2.00,+2.00
-3.00,+4.00,-3.00,-1.00,+5.00,+0.00,-4.00,+8.00,-1.00,+0.00,+0.00,+1.00,-2.00,-1.00,+2.00,-7.00
+1.00,-5.00,+2.00,+0.00,-6.00,-1.00,+1.00,+0.00,-1.00,-1.00,-1.00,-1.00,-1.00,-1.00,+0.00,+5.00
-2.00,-4.00,+1.00,+0.00,-4.00,-2.00,-2.00,-23.00,-4.00,-1.00,+0.00,-1.00,+1.00,+0.00,-1.00,-8.00
-4.00,-5.00,-4.00,-4.00,+3.00,-1.00,-2.00,-12.00,-1.00,+2.00,+1.00,+0.00,-2.00,-3.00,-7.00,+0.00
+2.00,+12.00,+2.00,+0.00,-4.00,-1.00,+1.00,-1.00,+1.00,-1.00,-2.00,-1.00,-4.00,-3.00,-1.00,+3.00
-1.00,-11.00,-2.00,+1.00,+6.00,+4.00,-1.00,+8.00,-1.00,-1.00,-1.00,+0.00,+0.00,+1.00,+1.00,-4.00
-3.00,-1.00,+0.00,+0.00,+0.00,+1.00,-3.00,-6.00,-2.00,+1.00,-2.00,+0.00,-2.00,+0.00,+1.00,+2.00
-2.00,-6.00,-1.00,-1.00,-4.00,-1.00,-1.00,-19.00,-2.00,-7.00,-3.00,-3.00,+2.00,-2.00,-17.00,-7.00
+2.00,+10.00,+0.00,-2.00,-5.00,-2.00,-2.00,+5.00,+3.00,+1.00,-1.00,-1.00,-1.00,-2.00,+23.00,+8.00
-2.00,-16.00,-5.00,-4.00,-4.00,-2.00,+3.00,+6.00,-1.00,-1.00,-1.00,-4.00,-1.00,+0.00,-1.00,-1.00
-1.00,-3.00,-2.00,-2.00,-3.00,-2.00,-5.00,+2.00,+1.00,-2.00,-3.00,+0.00,-1.00,-1.00,+0.00,-9.00
