-2.00,+0.00,-1.00,-1.00,-1.00,-2.00,-1.00,+0.00,-1.00,+0.00,+0.00,-2.00,-1.00,-1.00,-1.00,-1.00
-1.00,-2.00,-1.00,-2.00,+0.00,-2.00,-3.00,-1.00,-2.00,-2.00,+0.00,-1.00,-1.00,-1.00,+0.00,+0.00
+0.00,-1.00,-1.00,-2.00,-1.00,+1.00,+1.00,+2.00,-2.00,-2.00,-2.00,-1.00,-1.00,-2.00,-1.00,-3.00
-1.00,-1.00,-3.00,-1.00,+0.00,-1.00,+0.00,-3.00,+1.00,-1.00,-1.00,-3.00,-2.00,-2.00,-2.00,+0.00
+0.00,-2.00,-2.00,-1.00,-2.00,+1.00,-1.00,+1.00,+0.00,+0.00,-1.00,-1.00,+0.00,+0.00,-2.00,-1.00
+0.00,-1.00,+0.00,-1.00,+0.00,-2.00,-2.00,-2.00,+0.00,+0.00,+0.00,-1.00,-2.00,-1.00,-2.00,+0.00
+0.00,-1.00,-2.00,-1.00,-2.00,-1.00,-1.00,-1.00,-4.00,-1.00,-2.00,-1.00,-1.00,-1.00,+1.00,-2.00
+1.00,+0.00,-1.00,-1.00,+0.00,+3.00,-3.00,+0.00,-7.00,-5.00,+0.00,+0.00,+0.00,-2.00,-3.00,-4.00
-3.00,+0.00,-2.00,+0.00,+0.00,+0.00,+0.00,-2.00,+2.00,+0.00,-2.00,-1.00,+0.00,-1.00,+1.00,+0.00
-2.00,+0.00,-1.00,-1.00,+0.00,-1.00,-2.00,-2.00,-1.00,+0.00,-1.00,-3.00,-1.00,+0.00,-2.00,+1.00
+0.00,+0.00,-2.00,+0.00,-1.00,-2.00,-2.00,-1.00,+4.00,+2.00,-4.00,+0.00,-2.00,-3.00,-1.00,-3.00
-3.00,+0.00,-1.00,+0.00,-3.00,-1.00,+0.00,+1.00,+3.00,+5.00,-2.00,-2.00,-1.00,-1.00,-1.00,+1.00
+1.00,-1.00,-1.00,+0.00,-1.00,-1.00,+0.00,-1.00,-23.00,-12.00,+0.00,+3.00,+0.00,-1.00,-1.00,+0.00
-9.00,-1.00,-1.00,-1.00,-1.00,+0.00,-2.00,-8.00,-14.00,-15.00,-3.00,-3.00,-2.00,-1.00,-2.00,+0.00
-2.00,-1.00,-2.00,+0.00,-1.00,-1.00,-2.00,-2.00,-1.00,+11.00,+2.00,-2.00,+1.00,+0.00,-1.00,+0.00
-1.00,-17.00,-1.00,-1.00,-1.00,-2.00,-1.00,-1.00,+6.00,+1.00,-3.00,-1.00,-2.00,-1.00,-1.00,-4.00
+0.00,+16.00,-1.00,-2.00,-1.00,+0.00,+5.00,-1.00,+9.00,+7.00,+1.00,-1.00,+1.00,-2.00,+0.00,+0.00
-1.00,-2.00,-2.00,-1.00,-2.00,-1.00,+1.00,+8.00,-3.00,-9.00,-4.00,+1.00,+0.00,-1.00,+0.00,-3.00
-2.00,+0.00,+0.00,-1.00,-1.00,-1.00,-1.00,-1.00,+0.00,-4.00,-2.00,+0.00,-4.00,-3.00,-1.00,+0.00
-1.00,-3.00,-4.00,-2.00,-2.00,-2.00,-3.00,-3.00,-4.00,-3.00,-1.00,-2.00,+0.00,-2.00,+1.00,-1.00
-12.00,-7.00,-3.00,-2.00,-5.00,-1.00,+0.00,+0.00,+6.00,+3.00,-2.00,+1.00,-1.00,-3.00,-3.00,-2.00
+15.00,+24.00,+7.00,+1.00,-4.00,-1.00,+0.00,+1.00,+0.00,+1.00,+2.00,+1.00,+0.00,+1.00,-1.00,-2.00
-6.00,-24.00,-2.00,+2.00,+12.00,+2.00,-1.00,-1.00,+0.00,-3.00,-2.00,+0.00,+6.00,+0.00,-2.00,+0.00
+21.00,+26.00,+4.00,+2.00,+3.00,+1.00,+2.00,+4.00,-1.00,-1.00,+0.00,+11.00,+17.00,+2.00,+3.00,+2.00
-7.00,-28.00,-2.00,+0.00,+2.00,-2.00,-1.00,-1.00,+3.00,+0.00,-2.00,+30.00,-7.00,+0.00,-3.00,-5.00
-8.00,-14.00,-5.00,-1.00,-1.00,-2.00,-2.00,-3.00,+3.00,-21.00,-2.00,-6.00,+20.00,-4.00,+20.00,+0.00
+1.00,+47.00,+2.00,-1.00,-5.00,-4.00,-1.00,+0.00,-3.00,+15.00,+2.00,-24.00,-17.00,+0.00,-30.00,+8.00
-2.00,-11.00,-2.00,-1.00,+1.00,+3.00,+0.00,-4.00,+14.00,+17.00,+1.00,+18.00,-26.00,+34.00,+13.00,-4.00
-11.00,+3.00,-1.00,-1.00,+1.00,-1.00,-1.00,+0.00,-66.00,-21.00,+4.00,-6.00,+23.00,-30.00,-14.00,+1.00
-17.00,+1.00,-3.00,-2.00,-2.00,+0.00,+0.00,-7.00,-24.00,-9.00,-5.00,-2.00,-3.00,+1.00,-3.00,-8.00
+6.00,+5.00,-2.00,+0.00,-1.00,-2.00,+0.00,-1.00,-1.00,-2.00,+2.00,-8.00,+17.00,-7.00,+31.00,+4.00
-11.00,-7.00,-2.00,-3.00,-2.00,-2.00,-2.00,-9.00,+10.00,-6.00,-5.00,-23.00,-19.00,-2.00,-9.00,+2.00
+3.00,+18.00,-2.00,-5.00,-23.00,-6.00,-3.00,+23.00,+51.00,+25.00,-1.00,+12.00,-20.00,+7.00,-1.00,+2.00
-4.00,-72.00,-6.00,-11.00,-44.00,-20.00,+2.00,-4.00,-5.00,-7.00,+1.00,+1.00,-15.00,-1.00,-6.00,+5.00
-1.00,+9.00,+3.00,+1.00,+19.00,-14.00,-96.00,-1.00,+0.00,-9.00,-3.00,+7.00,-10.00,-2.00,-10.00,-1.00
+6.00,+63.00,-3.00,+4.00,+31.00,+13.00,+62.00,+8.00,-12.00,-1.00,-3.00,-4.00,-5.00,-12.00,-8.00,+2.00
+13.00,-78.00,+2.00,+3.00,+6.00,+10.00,+2.00,-7.00,+2.00,-7.00,-1.00,-1.00,+8.00,+7.00,+11.00,+0.00
+35.00,+98.00,+23.00,+7.00,-2.00,+20.00,+10.00,+9.00,+4.00,+7.00,+0.00,+4.00,+2.00,-3.00,-13.00,+1.00
+26.00,-72.00,+2.00,+1.00,-2.00,+1.00,+3.00,+3.00,+10.00,-4.00,-3.00,+6.00,-10.00,+1.00,+5.00,-4.00
-15.00,-61.00,-7.00,-2.00,+11.00,+2.00,-17.00,-5.00,-14.00,-1.00,+0.00,+4.00,+29.00,-3.00,+3.00,-7.00
-7.00,+21.00,-1.00,+2.00,+16.00,-4.00,-11.00,-15.00,+11.00,-9.00,-4.00,-14.00,+0.00,+1.00,-2.00,+1.00
-14.00,+3.00,-11.00,-6.00,-11.00,-10.00,+11.00,+13.00,+19.00,+20.00,-1.00,-4.00,-3.00,+7.00,+1.00,-10.00
-17.00,-26.00,+1.00,+0.00,+6.00,+13.00,+14.00,-3.00,-16.00,-5.00,+0.00,+8.00,-6.00,+0.00,-4.00,-5.00
-6.00,+12.00,-3.00,-1.00,-12.00,-10.00,-19.00,-3.00,-3.00,-13.00,-1.00,-17.00,-11.00,-9.00,-3.00,-5.00
-8.00,+2.00,-7.00,-6.00,-8.00,-3.00,+14.00,-5.00,-7.00,+2.00,+1.00,-4.00,+15.00,+1.00,+0.00,-2.00
+5.00,-12.00,-3.00,+1.00,+1.00,-9.00,-16.00,-2.00,-13.00,-1.00,-4.00,-1.00,-32.00,-4.00,-1.00,-13.00
+10.00,+37.00,-2.00,-2.00,-10.00,+8.00,+15.00,-31.00,+3.00,-6.00,-6.00,-10.00,+6.00,+1.00,+5.00,+2.00
+20.00,-28.00,-2.00,-1.00,-9.00,-9.00,-5.00,+13.00,+9.00,+5.00,-2.00,+26.00,+43.00,-4.00,-1.00,+11.00
-10.00,+23.00,+2.00,+0.00,-17.00,-7.00,-9.00,-7.00,-10.00,-20.00,-3.00,-18.00,-26.00,-1.00,-3.00,-10.00
+6.00,-6.00,-3.00,+1.00,+15.00,+8.00,-7.00,-8.00,+19.00,+35.00,-2.00,-29.00,-52.00,-20.00,+29.00,+1.00
-13.00,-59.00,-8.00,-3.00,-7.00,-5.00,-28.00,+3.00,-12.00,-2.00,+4.00,-3.00,-12.00,+1.00,-38.00,-8.00
+9.00,+89.00,+11.00,-1.00,-17.00,+2.00,+36.00,+3.00,-9.00,-13.00,-3.00,-10.00,-19.00,-4.00,-26.00,-5.00
+11.00,-21.00,-2.00,+2.00,+20.00,+1.00,-11.00,-3.00,+7.00,+20.00,-1.00,+16.00,+22.00,+4.00,-4.00,+3.00
+15.00,+16.00,+3.00,+2.00,+3.00,+2.00,-8.00,-5.00,-17.00,-9.00,+3.00,-8.00,-35.00,-23.00,+7.00,-2.00
+20.00,-51.00,-6.00,-4.00,-26.00,-7.00,+24.00,+5.00,+8.00,+0.00,-1.00,+11.00,+67.00,+38.00,+66.00,+4.00
-13.00,+4.00,+6.00,+1.00,+24.00,-9.00,-17.00,-4.00,+4.00,+9.00,-2.00,-20.00,-51.00,-30.00,-3.00,-2.00
-17.00,+18.00,-2.00,-2.00,-23.00,-6.00,+1.00,+4.00,-6.00,-24.00,-1.00,-14.00,+43.00,+29.00,+6.00,-3.00
-16.00,-78.00,-8.00,-7.00,-12.00,+19.00,+12.00,-8.00,-33.00,+7.00,-2.00,-9.00,-21.00,-18.00,-28.00,-4.00
-10.00,+32.00,+1.00,+12.00,+56.00,+10.00,+8.00,+4.00,-8.00,+2.00,-2.00,+15.00,+65.00,+13.00,-9.00,+1.00
+8.00,-54.00,-2.00,+1.00,-12.00,-5.00,-35.00,-1.00,-19.00,+2.00,+5.00,+18.00,-24.00,-14.00,+17.00,-3.00
-11.00,+48.00,-2.00,+0.00,+1.00,-4.00,+31.00,-5.00,+23.00,-8.00,-4.00,-28.00,-23.00,+6.00,-5.00,-10.00
-8.00,-27.00,+1.00,-4.00,+0.00,-8.00,-3.00,+3.00,-18.00,-17.00,+1.00,+19.00,-2.00,+11.00,+15.00,+10.00
+0.00,+34.00,+1.00,-1.00,+13.00,+2.00,+12.00,+4.00,+6.00,-4.00,-5.00,-30.00,-35.00,-13.00,-27.00,-8.00
-3.00,-16.00,-1.00,-4.00,-19.00,+13.00,-9.00,-8.00,-1.00,+8.00,+9.00,+21.00,+67.00,+18.00,+9.00,+13.00
+6.00,-32.00,-2.00,+3.00,+18.00,-9.00,-25.00,+7.00,-11.00,+1.00,-5.00,-15.00,-42.00,-24.00,+16.00,+21.00
-8.00,+19.00,+1.00,+0.00,-12.00,+14.00,+18.00,-7.00,+15.00,+14.00,+4.00,+29.00,+61.00,+20.00,-30.00,+1.00
-1.00,-7.00,+3.00,+2.00,+6.00,-26.00,+5.00,+2.00,-17.00,-15.00,-3.00,-12.00,-11.00,-21.00,+12.00,+2.00
-18.00,-19.00,-3.00,-1.00,+7.00,-13.00,-1.00,-2.00,+15.00,-11.00,-6.00,-15.00,-19.00,+12.00,-12.00,-10.00
-6.00,+27.00,-5.00,-5.00,+5.00,+2.00,-6.00,-2.00,+30.00,+26.00,+2.00,+3.00,+11.00,-1.00,+4.00,+10.00
+27.00,-5.00,-3.00,+3.00,+10.00,-3.00,-6.00,-7.00,+10.00,-14.00,-4.00,+3.00,+28.00,+3.00,+2.00,-1.00
-13.00,+43.00,+2.00,-9.00,-15.00,-8.00,-4.00,-4.00,-24.00,-4.00,+4.00,+15.00,-44.00,+0.00,-18.00,-6.00
+6.00,+39.00,-3.00,+0.00,-10.00,+22.00,-7.00,-3.00,-6.00,-3.00,-5.00,-14.00,+6.00,-5.00,+8.00,-6.00
-13.00,-68.00,+8.00,+4.00,+9.00,+2.00,+3.00,-11.00,-44.00,-6.00,-2.00,+21.00,+31.00,-7.00,-5.00,-14.00
-6.00,-23.00,-2.00,+3.00,+30.00,+4.00,-4.00,+7.00,+14.00,-9.00,-4.00,-14.00,+15.00,+2.00,+39.00,+3.00
-19.00,+14.00,-2.00,-4.00,-34.00,+5.00,+8.00,-11.00,+23.00,+27.00,-1.00,-2.00,-36.00,-22.00,-1.00,-7.00
-5.00,-13.00,+0.00,+2.00,+24.00,+0.00,-6.00,+0.00,+9.00,-8.00,-2.00,-28.00,-14.00,+9.00,+2.00,+6.00
+21.00,+2.00,-4.00,-3.00,-3.00,-2.00,-4.00,+0.00,-13.00,-6.00,-1.00,-1.00,-5.00,-13.00,+0.00,-4.00
-39.00,+34.00,-4.00,-1.00,+16.00,-2.00,-6.00,-4.00,+1.00,+14.00,+2.00,+11.00,+20.00,+11.00,-14.00,+0.00
+0.00,-23.00,-5.00,-3.00,-25.00,+3.00,+3.00,+4.00,-4.00,-54.00,-11.00,+6.00,+4.00,-10.00,+2.00,-14.00
-6.00,-10.00,+0.00,-3.00,-24.00,-18.00,+9.00,+0.00,-6.00,+31.00,+4.00,+9.00,+20.00,+5.00,+2.00,+2.00
+22.00,+18.00,+1.00,+1.00,-2.00,+6.00,-7.00,-21.00,-31.00,+2.00,+3.00,-1.00,-41.00,-4.00,+11.00,-4.00
+4.00,-50.00,-8.00,-9.00,-25.00,-37.00,-18.00,+7.00,+73.00,+11.00,-3.00,-10.00,+12.00,-4.00,-9.00,+15.00
+17.00,+51.00,+3.00,+3.00,+11.00,+11.00,+50.00,-4.00,+1.00,+3.00,+5.00,-5.00,-45.00,-10.00,-25.00,-1.00
-14.00,+32.00,+1.00,+1.00,+14.00,+0.00,+14.00,+4.00,-10.00,-18.00,-4.00,+5.00,+25.00,-6.00,-6.00,-10.00
-5.00,+4.00,-1.00,+1.00,+0.00,+3.00,+14.00,+0.00,-20.00,-5.00,-3.00,-4.00,+8.00,+5.00,-7.00,-11.00
+11.00,-8.00,+7.00,+8.00,+42.00,+19.00,+7.00,-1.00,-5.00,-3.00,-2.00,+5.00,-1.00,-1.00,+7.00,+3.00
-25.00,-77.00,-10.00,-8.00,-24.00,+7.00,-17.00,-11.00,+27.00,+2.00,-2.00,+3.00,+10.00,+5.00,+4.00,+1.00
+16.00,-7.00,-2.00,-2.00,+6.00,+3.00,+3.00,+6.00,-18.00,-14.00,+2.00,-3.00,-19.00,+0.00,+0.00,-2.00
+22.00,+65.00,+3.00,-4.00,-49.00,-21.00,-8.00,+1.00,+15.00,+22.00,+2.00,+1.00,-10.00,-8.00,-5.00,+2.00
-17.00,-35.00,+1.00,+4.00,+21.00,+7.00,+2.00,+7.00,-11.00,-10.00,-2.00,+1.00,+30.00,+13.00,-9.00,-6.00
-19.00,-30.00,-6.00,-1.00,-2.00,-6.00,-15.00,-1.00,-1.00,-3.00,-2.00,+14.00,-24.00,-1.00,+11.00,+9.00
-12.00,-8.00,+6.00,+1.00,+11.00,+7.00,+6.00,-6.00,-2.00,+0.00,+3.00,-8.00,+10.00,-5.00,-7.00,-2.00
+27.00,-14.00,-1.00,-4.00,+27.00,-3.00,-7.00,+6.00,+22.00,+1.00,-1.00,-13.00,-41.00,+2.00,-3.00,+8.00
+2.00,+2.00,-5.00,-2.00,-11.00,-5.00,-5.00,-8.00,+37.00,+8.00,-4.00,+7.00,+19.00,+1.00,-11.00,+3.00
-2.00,+46.00,+4.00,+1.00,+7.00,+2.00,-6.00,-1.00,-26.00,-14.00,+3.00,-7.00,+29.00,+2.00,-3.00,-3.00
+9.00,-14.00,-9.00,-5.00,-26.00,-12.00,-9.00,-2.00,-12.00,-13.00,-1.00,+10.00,-2.00,-5.00,-1.00,-10.00
-2.00,-78.00,-6.00,-2.00,-7.00,+0.00,-1.00,+3.00,+7.00,+2.00,+1.00,-12.00,-1.00,+4.00,-5.00,-1.00
-1.00,+70.00,+5.00,+3.00,-4.00,-8.00,-3.00,-5.00,+34.00,+20.00,-5.00,+0.00,-11.00,-3.00,-3.00,+2.00
-8.00,+18.00,+2.00,-1.00,-4.00,+3.00,+7.00,+12.00,+7.00,+21.00,-2.00,+5.00,+4.00,+5.00,+4.00,-2.00
-6.00,-11.00,-8.00,-6.00,-22.00,-5.00,-7.00,-10.00,+3.00,-1.00,+0.00,-12.00,-21.00,-9.00,-4.00,+2.00
+19.00,+10.00,+11.00,+5.00,+22.00,+4.00,+4.00,+4.00,+12.00,-10.00,-3.00,+1.00,+1.00,-3.00,-3.00,+2.00
-10.00,-37.00,-13.00,-6.00,-23.00,+0.00,-5.00,-10.00,-46.00,-26.00,-1.00,-9.00,-10.00,-13.00,-6.00,-4.00
+0.00,+29.00,-7.00,-5.00,-7.00,-11.00,-4.00,+5.00,-4.00,+2.00,-1.00,+9.00,-4.00,+18.00,+14.00,+2.00
+15.00,+12.00,+10.00,+5.00,-15.00,-7.00,-3.00,-4.00,-16.00,-4.00,-1.00,+0.00,-15.00,+2.00,-20.00,+5.00
-6.00,-95.00,-7.00,-1.00,+14.00,+5.00,+5.00,-9.00,-2.00,-7.00,-3.00,+22.00,-17.00,-8.00,-11.00,-7.00
+15.00,+88.00,+7.00,+5.00,+31.00,+5.00,-1.00,+17.00,-23.00,-7.00,-4.00,-23.00,-13.00,+10.00,+15.00,-16.00
-27.00,-74.00,-4.00,+1.00,+1.00,-3.00,-6.00,+1.00,+24.00,+21.00,+7.00,+10.00,+7.00,-10.00,+15.00,+37.00
-13.00,-22.00,+2.00,-5.00,-36.00,-19.00,-12.00,-9.00,+17.00,+6.00,-4.00,-10.00,+24.00,+6.00,-16.00,+1.00
-26.00,-71.00,-5.00,-1.00,+24.00,+13.00,+62.00,-3.00,-7.00,-7.00,-4.00,+1.00,+9.00,+10.00,+4.00,-1.00
+23.00,+66.00,+4.00,+4.00,-11.00,+0.00,-5.00,-1.00,-4.00,+5.00,+9.00,+9.00,-18.00,-3.00,-10.00,-7.00
+29.00,+15.00,+0.00,+1.00,+10.00,+3.00,+6.00,+1.00,-22.00,-6.00,-7.00,-17.00,-20.00,-7.00,+4.00,-11.00
+13.00,+5.00,-5.00,-2.00,+5.00,-12.00,+2.00,+2.00,-37.00,-31.00,-7.00,-2.00,-7.00,+4.00,+8.00,+1.00
-17.00,+5.00,-1.00,-4.00,-34.00,+2.00,-23.00,+7.00,-19.00,+19.00,+3.00,+4.00,+17.00,-4.00,-6.00,-11.00
-15.00,-1.00,-5.00,-6.00,+16.00,+5.00,-5.00,-8.00,+26.00,+1.00,-1.00,+3.00,+4.00,+2.00,-4.00,+3.00
+21.00,-4.00,+2.00,+4.00,-19.00,-16.00,+1.00,+6.00,-15.00,-8.00,-3.00,-6.00,-16.00,-1.00,-8.00,-13.00
-17.00,-25.00,+1.00,+0.00,+27.00,+15.00,-7.00,-5.00,+80.00,+10.00,+0.00,+16.00,+18.00,-3.00,+6.00,+19.00
-13.00,+21.00,-4.00,-3.00,-16.00,-8.00,-19.00,-2.00,-50.00,-32.00,+1.00,-12.00,-10.00,+2.00,-5.00,-13.00
-10.00,+7.00,+0.00,-4.00,-17.00,-3.00,+5.00,-3.00,-16.00,+23.00,-1.00,+11.00,+7.00,-6.00,+2.00,+4.00
+7.00,+16.00,+4.00,+2.00,+25.00,-6.00,-8.00,-3.00,+0.00,+1.00,-3.00,-4.00,-21.00,-3.00,-6.00,-6.00
+30.00,-53.00,-6.00,-1.00,-10.00,+15.00,+2.00,+5.00,+29.00,+15.00,+0.00,-5.00,+19.00,+18.00,+4.00,-1.00
-22.00,+44.00,-1.00,+1.00,+33.00,+1.00,-8.00,-2.00,-19.00,-12.00,-2.00,-4.00,+5.00,-4.00,+1.00,-1.00
+21.00,-16.00,+0.00,-3.00,-21.00,-3.00,+5.00,+2.00,+24.00,+11.00,+4.00,+28.00,+46.00,+1.00,-7.00,+0.00
-23.00,-54.00,-5.00,-3.00,-10.00,-3.00,-1.00,-2.00,-4.00,-18.00,-7.00,-13.00,+6.00,-3.00,+2.00,-4.00
-2.00,+29.00,+5.00,+1.00,-1.00,-6.00,-2.00,+5.00,-28.00,-8.00,-5.00,-27.00,-74.00,-26.00,-7.00,-7.00
+8.00,+12.00,+3.00,+0.00,-8.00,+5.00,-3.00,-8.00,-4.00,+14.00,+0.00,-5.00,-7.00,+22.00,+9.00,+6.00
+13.00,-43.00,-3.00,+0.00,-24.00,-9.00,-6.00,-17.00,+28.00,+15.00,-2.00,-12.00,-55.00,+11.00,-8.00,+3.00
-24.00,+39.00,-1.00,-4.00,-6.00,-3.00,-3.00,-13.00,-28.00,+8.00,+5.00,+16.00,+57.00,-15.00,-23.00,-4.00
+4.00,-33.00,-7.00,-1.00,+6.00,+8.00,-2.00,-2.00,+10.00,-16.00,-5.00,+14.00,-1.00,+20.00,+9.00,-4.00
+1.00,-2.00,+1.00,+0.00,-10.00,-15.00,-1.00,-3.00,+39.00,+14.00,-2.00,-5.00,-27.00,-6.00,-2.00,+19.00
-6.00,+4.00,-2.00,-2.00,-3.00,-18.00,-18.00,-5.00,-6.00,-19.00,-6.00,-7.00,+3.00,-5.00,-2.00,-5.00
-20.00,-1.00,-8.00,-7.00,-4.00,+7.00,+6.00,-19.00,-15.00,+3.00,+6.00,+4.00,+16.00,+9.00,+4.00,-6.00
+49.00,+88.00,+12.00,+2.00,-89.00,-11.00,-57.00,+16.00,-7.00,+12.00,-1.00,+1.00,-24.00,-13.00,-4.00,-1.00
-4.00,+22.00,+0.00,+5.00,+62.00,+17.00,+16.00,+13.00,+17.00,-11.00,-1.00,-2.00,-14.00,-4.00,-2.00,+4.00
-12.00,-32.00,+0.00,+2.00,+42.00,-1.00,-16.00,+2.00,-19.00,-19.00,-4.00,-1.00,+2.00,+2.00,+4.00,-8.00
-2.00,-16.00,-5.00,-4.00,-6.00,+7.00,+22.00,+1.00,+13.00,+4.00,-2.00,-2.00,-22.00,-2.00,-3.00,+1.00
-25.00,-55.00,-10.00,-3.00,+11.00,-8.00,+0.00,-9.00,-21.00,-4.00,+3.00,+1.00,+77.00,-3.00,-1.00,-13.00
+20.00,+102.00,+14.00,-1.00,-34.00,-21.00,-11.00,+8.00,+20.00,-1.00,-2.00,+8.00,-3.00,+3.00,-1.00,-7.00
+4.00,-59.00,-4.00,+0.00,-16.00,+0.00,+11.00,-1.00,-38.00,-11.00,+0.00,-10.00,+0.00,-5.00,+3.00,+0.00
-8.00,+16.00,+0.00,+0.00,-7.00,-9.00,-21.00,+4.00,+15.00,-8.00,+0.00,-2.00,-25.00,+0.00,-4.00,-9.00
-32.00,-25.00,-8.00,+0.00,+39.00,+3.00,+14.00,-5.00,+14.00,-24.00,-3.00,-3.00,-20.00,+3.00,+1.00,+6.00
-13.00,-11.00,-6.00,-5.00,-18.00,-2.00,-14.00,-4.00,+4.00,+41.00,+2.00,+9.00,+39.00,-4.00,+3.00,-11.00
+9.00,-75.00,-1.00,+3.00,+15.00,+4.00,+18.00,+3.00,-7.00,-14.00,+0.00,-29.00,-79.00,-10.00,-23.00,+2.00
+19.00,+64.00,+9.00,+1.00,-3.00,+9.00,-3.00,+0.00,-47.00,-6.00,-5.00,+4.00,+52.00,+15.00,-15.00,+0.00
-10.00,-5.00,-3.00,-3.00,+6.00,+2.00,+8.00,+0.00,-7.00,+7.00,+1.00,+5.00,+8.00,-11.00,+39.00,+4.00
+11.00,+26.00,+1.00,+0.00,-23.00,+2.00,+7.00,-20.00,+24.00,-14.00,+1.00,+3.00,+13.00,+5.00,+4.00,-2.00
-12.00,+17.00,-3.00,-5.00,-18.00,-14.00,-16.00,+3.00,+1.00,-6.00,-3.00,+20.00,-24.00,-4.00,-2.00,-6.00
-3.00,-35.00,-4.00,+2.00,+21.00,+14.00,+9.00,+3.00,+22.00,+9.00,+2.00,-17.00,-36.00,+4.00,-2.00,+6.00
+39.00,+12.00,+1.00,+2.00,+24.00,-2.00,+7.00,+10.00,-18.00,+3.00,-3.00,-12.00,+17.00,+0.00,-5.00,-3.00
+0.00,-29.00,-2.00,-1.00,+1.00,-14.00,-6.00,-3.00,+8.00,-1.00,+0.00,-3.00,-23.00,-15.00,-3.00,+0.00
+2.00,+43.00,+5.00,+0.00,+21.00,+31.00,-17.00,-1.00,-5.00,+3.00,+0.00,-1.00,+58.00,+4.00,-21.00,-3.00
+30.00,-1.00,-1.00,+3.00,+14.00,+7.00,-19.00,+3.00,-45.00,-19.00,-5.00,-2.00,+1.00,-5.00,+8.00,-8.00
-34.00,-42.00,+1.00,-2.00,+12.00,+2.00,+11.00,-18.00,+86.00,+39.00,+0.00,+10.00,+19.00,+5.00,-3.00,+12.00
+11.00,+27.00,+4.00,+1.00,-9.00,+13.00,+44.00,+6.00,-2.00,+13.00,+1.00,-7.00,-18.00,-5.00,-2.00,-1.00
-11.00,-6.00,-2.00,-2.00,-13.00,-9.00,-3.00,-1.00,+18.00,-38.00,-6.00,-2.00,+10.00,+0.00,+5.00,-5.00
+0.00,+14.00,-2.00,-5.00,-1.00,-13.00,+3.00,+0.00,+6.00,+31.00,+12.00,-9.00,-7.00,-1.00,+11.00,+17.00
-12.00,-24.00,-6.00,-1.00,-18.00,-4.00,+2.00,-3.00,+22.00,+2.00,-6.00,-2.00,+2.00,-2.00,-16.00,-17.00
+2.00,+15.00,-1.00,-2.00,-34.00,-2.00,-32.00,+7.00,-12.00,-27.00,-13.00,+1.00,+17.00,+7.00,+1.00,+23.00
-26.00,-5.00,-4.00,+3.00,+58.00,+22.00,+6.00,-2.00,-37.00,-45.00,-1.00,+1.00,+0.00,-4.00,+6.00,+2.00
+12.00,-1.00,+0.00,-1.00,-4.00,+7.00,+2.00,+2.00,+65.00,+11.00,+1.00,-3.00,-1.00,-3.00,-6.00,+5.00
+4.00,+27.00,+2.00,-1.00,+2.00,-15.00,+1.00,+1.00,+26.00,+8.00,-9.00,+7.00,-21.00,-2.00,+3.00,+2.00
-14.00,-28.00,-2.00,-4.00,-22.00,-9.00,-7.00,+2.00,-26.00,+24.00,+7.00,+8.00,-1.00,-1.00,-5.00,-17.00
-14.00,-57.00,-9.00,-5.00,-15.00,+2.00,+6.00,-6.00,-45.00,+18.00,+4.00,-19.00,+11.00,-2.00,+5.00,-5.00
+21.00,-16.00,-2.00,-1.00,-11.00,-11.00,-1.00,-3.00,+6.00,-7.00,-9.00,+9.00,+21.00,-3.00,+0.00,-4.00
+7.00,+107.00,+16.00,+6.00,+36.00,+13.00,+3.00,+11.00,-40.00,-20.00,+5.00,+5.00,-24.00,+2.00,-3.00,-11.00
-28.00,-11.00,-18.00,-6.00,+14.00,+7.00,-4.00,-1.00,-7.00,-7.00,-5.00,-13.00,+26.00,-4.00,-4.00,-3.00
+76.00,-48.00,+22.00,+5.00,-20.00,-2.00,+11.00,+19.00,+75.00,+31.00,+1.00,+0.00,-3.00,-11.00,+0.00,+12.00
-4.00,-45.00,+1.00,+0.00,-8.00,-9.00,-8.00,-4.00,-97.00,-22.00,+0.00,-1.00,+2.00,+8.00,-2.00,-11.00
-10.00,+72.00,+3.00,-5.00,-12.00,-1.00,+0.00,-3.00,-40.00,-78.00,-4.00,-5.00,-6.00,-4.00,-9.00,-12.00
-6.00,-110.00,+9.00,+7.00,+12.00,+4.00,+2.00,+11.00,+40.00,+16.00,+0.00,+5.00,+5.00,+9.00,+5.00,+21.00
-25.00,+55.00,-16.00,-7.00,-29.00,-18.00,-3.00,-25.00,+86.00,+62.00,+11.00,+2.00,-11.00,-8.00,+1.00,-1.00
+8.00,-51.00,+5.00,+4.00,+6.00,+0.00,+3.00,+4.00,-21.00,+3.00,-6.00,+1.00,+9.00,-1.00,+3.00,+1.00
-12.00,+91.00,-8.00,-6.00,-14.00,-9.00,-2.00,-1.00,-103.00,-19.00,-4.00,-2.00,-13.00,-2.00,-5.00,-16.00
+11.00,+15.00,-4.00,-3.00,+19.00,+5.00,-25.00,-1.00,-5.00,+51.00,+16.00,+5.00,+0.00,-3.00,+5.00,+21.00
-32.00,-7.00,-3.00,+3.00,+0.00,-2.00,+79.00,-2.00,+17.00,-24.00,-2.00,+1.00,+2.00,+5.00,+5.00,+4.00
+14.00,-27.00,-6.00,+0.00,+9.00,+3.00,+3.00,+0.00,+22.00,+19.00,-16.00,-2.00,-9.00,-7.00,-4.00,-9.00
-24.00,+26.00,-6.00,-3.00,+2.00,+6.00,+4.00,-3.00,-11.00,-31.00,+2.00,-2.00,-2.00,+1.00,-3.00,+0.00
-7.00,+11.00,-13.00,-10.00,-10.00,-14.00,-30.00,-22.00,+0.00,-40.00,-7.00,-2.00,+7.00,-4.00,-7.00,-6.00
+38.00,+25.00,+34.00,+9.00,-7.00,+2.00,-11.00,+29.00,+73.00,+18.00,-5.00,-1.00,+5.00,+0.00,-4.00,-1.00
-45.00,-88.00,-7.00,+0.00,-5.00,-3.00,-2.00,-12.00,-63.00,-27.00,+6.00,+5.00,+0.00,+2.00,+1.00,-12.00
+1.00,-8.00,-8.00,-2.00,-2.00,+5.00,+10.00,+9.00,+69.00,+24.00,-3.00,-8.00,-20.00,-11.00,-7.00,+3.00
-27.00,-67.00,+3.00,+0.00,-2.00,+2.00,+4.00,-7.00,-4.00,-33.00,+4.00,+2.00,+12.00,+3.00,+0.00,-7.00
+49.00,+127.00,+11.00,+1.00,+3.00,-4.00,-13.00,+3.00,-28.00,-96.00,-11.00,+4.00,-1.00,+6.00,+7.00,+8.00
+0.00,-19.00,+2.00,+1.00,-3.00,+5.00,+6.00,+19.00,+37.00,-54.00,-7.00,-4.00,-12.00,-11.00,-6.00,-8.00
-18.00,-117.00,-14.00,-6.00,+5.00,-1.00,-12.00,-24.00,+8.00,+111.00,+19.00,+0.00,+7.00,+2.00,-1.00,+4.00
+4.00,+81.00,+2.00,+2.00,+2.00,+3.00,+6.00,+18.00,-107.00,+46.00,+12.00,-3.00,-13.00,-2.00,-3.00,-10.00
-30.00,+39.00,-21.00,-11.00,-9.00,-7.00,-20.00,-13.00,-15.00,+6.00,+5.00,+1.00,-5.00,+0.00,+1.00,-1.00
+0.00,-52.00,-10.00,-3.00,-12.00,-16.00,-3.00,-7.00,-21.00,-83.00,-18.00,-8.00,+11.00,-4.00,-5.00,-23.00
+13.00,+80.00,+20.00,+11.00,+8.00,+6.00,+4.00,+5.00,-6.00,+22.00,+4.00,+4.00,-41.00,-2.00,+3.00,+21.00
-42.00,-26.00,-23.00,-5.00,+6.00,+3.00,-1.00,-26.00,-33.00,-89.00,-3.00,-2.00,+40.00,+2.00,-7.00,-17.00
+82.00,+15.00,+17.00,+6.00,+1.00,+2.00,+4.00,+25.00,-58.00,+76.00,-1.00,-2.00,-4.00,-3.00,+0.00,-4.00
-31.00,-35.00,+28.00,+4.00,-7.00,+3.00,+2.00,+11.00,+87.00,+32.00,-6.00,-6.00,+29.00,+1.00,+1.00,+17.00
+12.00,+58.00,-15.00,-5.00,+7.00,-4.00,-7.00,-6.00,+14.00,-21.00,-5.00,+15.00,-6.00,+2.00,-1.00,-4.00
-38.00,-89.00,-12.00,+4.00,+4.00,+7.00,+4.00,-3.00,+1.00,-97.00,-26.00,-21.00,-14.00,-2.00,-5.00,-13.00
+23.00,+23.00,+7.00,-1.00,+1.00,+3.00,-9.00,+0.00,-101.00,+117.00,+22.00,+3.00,-22.00,+0.00,+1.00,-7.00
-12.00,+109.00,+9.00,+4.00,-3.00,-7.00,+1.00,-5.00,+52.00,-12.00,+18.00,+5.00,-4.00,-3.00,+1.00,+11.00
+31.00,-99.00,-5.00,-6.00,-17.00,-6.00,-3.00,+8.00,-91.00,+73.00,+2.00,-2.00,+15.00,+1.00,-1.00,-7.00
+4.00,+29.00,+10.00,+0.00,-2.00,+0.00,+3.00,-7.00,+10.00,-87.00,-25.00,+6.00,-7.00,+0.00,+5.00,+14.00
-25.00,-76.00,-14.00,-1.00,-1.00,-15.00,-5.00,-8.00,-29.00,+54.00,+4.00,-5.00,+4.00,-2.00,-6.00,-25.00
+26.00,+19.00,-12.00,-3.00,+18.00,+13.00,-1.00,-2.00,-75.00,-58.00,-11.00,-2.00,-14.00,-1.00,+0.00,+3.00
-19.00,-128.00,-8.00,-3.00,-12.00,+2.00,+2.00,-1.00,+21.00,+15.00,+6.00,+7.00,+19.00,+0.00,+0.00,-1.00
+46.00,+41.00,-7.00,-4.00,-22.00,-17.00,-1.00,+4.00,-48.00,+127.00,+30.00,+17.00,-4.00,-3.00,-10.00,-30.00
-11.00,+36.00,+2.00,-10.00,-15.00,-11.00,-5.00,-6.00,-65.00,-116.00,-6.00,-26.00,-44.00,-1.00,+0.00,+4.00
+75.00,+119.00,+28.00,+15.00,+37.00,+28.00,+5.00,+11.00,-66.00,-37.00,-4.00,-11.00,-30.00,-3.00,+2.00,+7.00
-37.00,-105.00,-8.00,+3.00,+6.00,+1.00,-1.00,-9.00,-15.00,+51.00,+8.00,+21.00,+41.00,-3.00,+5.00,+7.00
+35.00,-49.00,+8.00,+0.00,-9.00,-4.00,+1.00,+4.00,+29.00,-24.00,-20.00,-11.00,-12.00,-1.00,-1.00,+1.00
-16.00,-36.00,+3.00,-2.00,-3.00,+2.00,+1.00,+13.00,-58.00,-78.00,-18.00,-13.00,+9.00,+2.00,+1.00,+2.00
-23.00,-79.00,-34.00,-13.00,-23.00,-15.00,-12.00,-21.00,-69.00,+7.00,+14.00,-1.00,-50.00,-6.00,-5.00,-6.00
+8.00,+79.00,+22.00,+3.00,+7.00,+0.00,+0.00,+3.00,-105.00,-39.00,+20.00,-1.00,-9.00,+4.00,+6.00,-5.00
+5.00,+79.00,-3.00,-2.00,-14.00,+4.00,+10.00,+1.00,+17.00,+62.00,+2.00,+9.00,+23.00,+1.00,+2.00,+9.00
-22.00,-37.00,-17.00,-3.00,+4.00,-12.00,-18.00,-26.00,+64.00,+50.00,+17.00,+21.00,-26.00,-5.00,-6.00,-2.00
+71.00,+68.00,-1.00,-5.00,-42.00,-13.00,-5.00,+17.00,+37.00,-27.00,-33.00,-12.00,+48.00,+2.00,+3.00,+3.00
-27.00,-128.00,+2.00,+3.00,+47.00,+16.00,+3.00,+6.00,+23.00,-128.00,-29.00,-18.00,+16.00,-1.00,-5.00,+3.00
+32.00,+89.00,+38.00,+10.00,+35.00,+24.00,+23.00,+8.00,+29.00,+38.00,+12.00,-9.00,-27.00,-2.00,+0.00,-15.00
-67.00,-90.00,-24.00,-8.00,-12.00,-8.00,-29.00,-24.00,+7.00,-128.00,-5.00,+14.00,-19.00,+1.00,+4.00,+13.00
+1.00,+6.00,-8.00,-5.00,-4.00,-2.00,-10.00,-5.00,+4.00,+54.00,-10.00,+3.00,+16.00,-2.00,-13.00,-24.00
-29.00,+32.00,+10.00,-2.00,-15.00,-12.00,+31.00,-26.00,+114.00,-26.00,+21.00,+4.00,+71.00,+3.00,+6.00,+19.00
+91.00,+87.00,+34.00,+15.00,+19.00,+13.00,+13.00,+34.00,-95.00,-56.00,+2.00,+3.00,-42.00,-7.00,-12.00,-29.00
-22.00,-95.00,+8.00,+4.00,+1.00,+10.00,+15.00,+16.00,+28.00,+76.00,-15.00,-14.00,-4.00,-1.00,-3.00,+5.00
-88.00,-51.00,-43.00,-21.00,-34.00,-44.00,-3.00,-25.00,-17.00,+123.00,+50.00,+17.00,-6.00,+0.00,+3.00,+3.00
-35.00,-61.00,+14.00,+6.00,-4.00,+26.00,-9.00,+21.00,+42.00,-111.00,-92.00,-18.00,-23.00,+0.00,+5.00,+16.00
-39.00,-45.00,-22.00,-12.00,-26.00,-23.00,-18.00,-29.00,+100.00,+41.00,+28.00,+0.00,+14.00,+3.00,+3.00,+24.00
+2.00,-39.00,+15.00,+2.00,+16.00,+13.00,+11.00,+13.00,+52.00,+41.00,+8.00,+6.00,+13.00,-5.00,-7.00,+4.00
+73.00,+49.00,+0.00,+2.00,+28.00,-7.00,-10.00,+7.00,-38.00,-84.00,-14.00,-8.00,-4.00,-3.00,-3.00,-10.00
-63.00,-60.00,-43.00,-13.00,-24.00,+11.00,-6.00,-16.00,-74.00,+75.00,+6.00,+15.00,-14.00,+6.00,+7.00,+3.00
+22.00,+7.00,+41.00,+13.00,+3.00,+5.00,-3.00,+19.00,+50.00,-20.00,-28.00,-25.00,+32.00,-8.00,-9.00,+4.00
-7.00,-53.00,-37.00,-6.00,-38.00,-16.00,-9.00,-17.00,-60.00,-122.00,+1.00,+7.00,-49.00,+3.00,+4.00,-1.00
-22.00,+65.00,+27.00,+1.00,+20.00,-8.00,+3.00,-6.00,-5.00,+97.00,-16.00,-5.00,+75.00,-2.00,-2.00,-19.00
+3.00,+10.00,+23.00,+9.00,+10.00,+18.00,-2.00,+21.00,-3.00,+23.00,+18.00,-21.00,-85.00,-4.00,+3.00,-6.00
-8.00,+49.00,-10.00,-20.00,-4.00,-13.00,-3.00,-2.00,+7.00,-80.00,-8.00,-2.00,+16.00,+4.00,-14.00,+28.00
-36.00,-19.00,+7.00,+13.00,+1.00,-1.00,+7.00,-1.00,-54.00,-115.00,-61.00,-1.00,+23.00,+3.00,+6.00,-26.00
-24.00,-110.00,-15.00,-4.00,-1.00,+12.00,+1.00,-23.00,+5.00,-14.00,+44.00,+19.00,-20.00,+3.00,+5.00,+20.00
+32.00,+77.00,-7.00,-6.00,-14.00,-27.00,-6.00,-9.00,+46.00,-91.00,-11.00,-18.00,-15.00,-10.00,-11.00,-15.00
+46.00,+64.00,+49.00,+13.00,-2.00,-8.00,-3.00,+17.00,+26.00,+127.00,+78.00,+18.00,-4.00,+8.00,+12.00,-7.00
-76.00,-25.00,-15.00,-10.00,+23.00,+21.00,-5.00,-21.00,-67.00,-96.00,+29.00,+1.00,+22.00,+1.00,+1.00,-6.00
+38.00,-112.00,-25.00,+5.00,+18.00,+4.00,+18.00,+23.00,+112.00,-55.00,-32.00,-3.00,-25.00,-2.00,-5.00,+18.00
+24.00,+46.00,+10.00,+3.00,-5.00,-14.00,-17.00,-4.00,-96.00,-41.00,-83.00,-10.00,+8.00,-3.00,-9.00,-20.00
-28.00,-53.00,-49.00,-16.00,-7.00,-6.00,-12.00,-18.00,-100.00,+46.00,+63.00,+13.00,-5.00,+0.00,+1.00,-40.00
+53.00,+103.00,+7.00,+5.00,+50.00,+25.00,+9.00,+12.00,+92.00,+109.00,+12.00,-2.00,+28.00,-3.00,-3.00,+42.00
+41.00,+16.00,+51.00,+14.00,+5.00,+11.00,+12.00,+22.00,+10.00,+50.00,+0.00,+8.00,-1.00,+6.00,+13.00,+10.00
-13.00,+88.00,-18.00,-4.00,+4.00,-10.00,+7.00,-10.00,+60.00,+89.00,+5.00,-6.00,+5.00,-2.00,-7.00,-2.00
+1.00,-39.00,-22.00,-15.00,-24.00,-12.00,-29.00,-12.00,-71.00,+20.00,-24.00,-8.00,-26.00,-8.00,+9.00,-19.00
-10.00,+33.00,+19.00,+16.00,+1.00,+1.00,+12.00,+27.00,+9.00,+68.00,+11.00,+6.00,+1.00,+4.00,-42.00,-3.00
+38.00,+77.00,+39.00,+16.00,+14.00,+8.00,-3.00,+6.00,+33.00,+79.00,+55.00,+2.00,+12.00,-13.00,+1.00,+7.00
-28.00,+99.00,+6.00,-23.00,-21.00,-15.00,-9.00,-14.00,-8.00,+107.00,+13.00,+2.00,-2.00,+0.00,-5.00,+0.00
+35.00,-128.00,-25.00,+0.00,+9.00,+2.00,+6.00,+6.00,+93.00,+68.00,-12.00,-4.00,+6.00,+2.00,+6.00,+47.00
+63.00,+72.00,-17.00,+5.00,-3.00,-4.00,-2.00,+3.00,-80.00,-105.00,-42.00,-13.00,+10.00,-5.00,-2.00,-47.00
-54.00,+23.00,-37.00,-21.00,-30.00,-6.00,-15.00,-28.00,-103.00,-11.00,+0.00,-6.00,-61.00,-4.00,-12.00,-17.00
+0.00,+21.00,+14.00,+12.00,+7.00,+6.00,+9.00,+15.00,+90.00,-26.00,+74.00,+8.00,+14.00,-4.00,+15.00,+13.00
-107.00,-64.00,-39.00,-13.00,+3.00,-10.00,-16.00,-34.00,-61.00,-128.00,+1.00,-1.00,+2.00,-4.00,-6.00,-27.00
+32.00,-8.00,-50.00,-18.00,-18.00,-10.00,+11.00,-18.00,-37.00,-43.00,-61.00,-17.00,-4.00,-10.00,+0.00,-7.00
+12.00,+27.00,-6.00,+4.00,+5.00,+3.00,+4.00,+24.00,-36.00,-30.00,-49.00,-12.00,+7.00,-4.00,-12.00,+15.00
-15.00,-97.00,-8.00,+3.00,-5.00,+6.00,+41.00,-7.00,-42.00,-98.00,-50.00,-1.00,-22.00,+6.00,+4.00,-17.00
-94.00,-128.00,-1.00,+7.00,+34.00,+8.00,+0.00,+1.00,-82.00,-64.00,-42.00,-15.00,-20.00,-7.00,-13.00,-13.00
+4.00,-87.00,-32.00,-10.00,-32.00,-11.00,-13.00,-1.00,+119.00,+101.00,+18.00,+9.00,+15.00,+0.00,+13.00,+38.00
-77.00,-117.00,-28.00,-4.00,-13.00,+0.00,-3.00,-7.00,+17.00,+3.00,+10.00,-16.00,-32.00,-3.00,+2.00,-44.00
-19.00,-126.00,-5.00,+0.00,-11.00,-6.00,+3.00,+0.00,+53.00,-59.00,+36.00,+18.00,+47.00,+13.00,+9.00,+30.00
-35.00,+88.00,-2.00,+1.00,-4.00,+2.00,-41.00,-17.00,+127.00,-71.00,-52.00,-4.00,-10.00,-8.00,+10.00,+19.00
+15.00,-51.00,-28.00,+0.00,-3.00,-2.00,+0.00,+8.00,-128.00,-28.00,+15.00,+1.00,-12.00,-3.00,-23.00,-45.00
-54.00,-63.00,+5.00,-7.00,+4.00,-4.00,-13.00,-22.00,+31.00,+57.00,+8.00,+4.00,+16.00,+1.00,+14.00,+18.00
-28.00,-70.00,-56.00,-17.00,-8.00,-6.00,-21.00,-19.00,-128.00,-63.00,-43.00,-11.00,-34.00,-1.00,-14.00,-26.00
-33.00,-126.00,+23.00,+16.00,+0.00,+8.00,+33.00,+26.00,-31.00,+92.00,+74.00,+1.00,+30.00,+17.00,-1.00,-15.00
-59.00,+91.00,-11.00,-20.00,-1.00,-11.00,-25.00,-39.00,-12.00,-41.00,-7.00,-1.00,+7.00,-13.00,+21.00,-16.00
+53.00,-6.00,+39.00,+16.00,+11.00,+8.00,+5.00,+20.00,+31.00,+77.00,-8.00,+10.00,-7.00,+3.00,-34.00,+36.00
-6.00,-63.00,-51.00,-13.00,-15.00,-13.00,-17.00,-37.00,-27.00,+52.00,+11.00,-4.00,+7.00,+4.00,+11.00,-22.00
-49.00,-42.00,+0.00,+1.00,-5.00,-15.00,+1.00,+2.00,-36.00,-91.00,-51.00,+2.00,-3.00,-6.00,-9.00,+18.00
-99.00,-105.00,+31.00,-2.00,-14.00,+5.00,+10.00,-8.00,+11.00,+11.00,+19.00,-6.00,+3.00,+1.00,-8.00,-25.00
+19.00,+98.00,+7.00,+5.00,-3.00,+11.00,+13.00,+5.00,+104.00,+20.00,+3.00,-1.00,+2.00,+1.00,-3.00,-1.00
-39.00,-18.00,+18.00,+1.00,+11.00,+7.00,-20.00,-9.00,-99.00,+127.00,+47.00,+16.00,+22.00,-2.00,-5.00,-7.00
+71.00,+61.00,+5.00,-8.00,-7.00,-5.00,-2.00,+2.00,-33.00,-43.00,-3.00,-3.00,-25.00,+0.00,-7.00,-15.00
-1.00,-36.00,-38.00,+8.00,+5.00,-4.00,-2.00,+1.00,+22.00,+100.00,+26.00,-3.00,-9.00,+5.00,+12.00,+39.00
+0.00,-70.00,+2.00,-4.00,+2.00,+2.00,+5.00,-8.00,-83.00,-46.00,-25.00,-6.00,+2.00,-3.00,+8.00,-13.00
+9.00,+56.00,+19.00,+3.00,+1.00,-13.00,+4.00,+22.00,-77.00,-91.00,-13.00,-9.00,-16.00,-11.00,-29.00,-13.00
-6.00,-44.00,-34.00,-4.00,-3.00,+6.00,-28.00,-14.00,-12.00,+48.00,-6.00,+5.00,+16.00,+2.00,+36.00,-6.00
-18.00,-90.00,+57.00,+9.00,+0.00,+4.00,+64.00,+2.00,-1.00,+72.00,-32.00,-8.00,-6.00,-3.00,-10.00,-8.00
-63.00,-33.00,-48.00,-15.00,-28.00,-18.00,-15.00,-25.00,-44.00,+38.00,+39.00,+14.00,+6.00,+5.00,+13.00,+5.00
-57.00,-39.00,+4.00,+0.00,+10.00,-2.00,-15.00,+5.00,-63.00,+58.00,+24.00,-12.00,-13.00,-7.00,-9.00,+8.00
+61.00,-117.00,+36.00,+23.00,+19.00,+8.00,+46.00,+34.00,+119.00,+39.00,-18.00,-1.00,-3.00,+0.00,-11.00,+28.00
+5.00,+15.00,-24.00,-16.00,-22.00,-3.00,-40.00,-23.00,+43.00,-97.00,-37.00,-4.00,+3.00,+5.00,+13.00,+19.00
-83.00,-109.00,-17.00,-6.00,+10.00,-2.00,-15.00,-13.00,-52.00,-28.00,+36.00,+0.00,-9.00,+1.00,-7.00,-2.00
+72.00,-54.00,+34.00,+12.00,-2.00,-4.00,+12.00,+11.00,-15.00,-76.00,-21.00,+7.00,+12.00,+0.00,+0.00,-3.00
-22.00,+76.00,-26.00,-16.00,-3.00,-12.00,-14.00,-28.00,+19.00,-5.00,-25.00,-5.00,-10.00,-3.00,-4.00,+13.00
+66.00,+36.00,+25.00,+14.00,+17.00,+16.00,-9.00,+30.00,+9.00,+54.00,+12.00,+2.00,+13.00,+3.00,+10.00,+8.00
-62.00,+46.00,-10.00,-12.00,-7.00,-5.00,-3.00,-22.00,-40.00,+33.00,+15.00,-2.00,-5.00,+2.00,-1.00,-16.00
+96.00,+127.00,-8.00,+7.00,+8.00,+2.00,-6.00,+26.00,+13.00,-32.00,-53.00,-15.00,-29.00,-8.00,-10.00,-18.00
-13.00,-11.00,+14.00,-2.00,-7.00,+4.00,+11.00,-12.00,+13.00,-115.00,-1.00,+0.00,+40.00,+4.00,+3.00,+2.00
-6.00,+4.00,-15.00,-9.00,-10.00,-17.00,-7.00,-1.00,-60.00,-49.00,-19.00,+0.00,+8.00,-8.00,-8.00,-8.00
+9.00,-8.00,-8.00,-11.00,-12.00,-10.00,-21.00,+29.00,+50.00,-109.00,+5.00,+9.00,-2.00,+8.00,+11.00,+15.00
+18.00,+41.00,+16.00,+11.00,+22.00,+9.00,+1.00,+1.00,+71.00,+60.00,+4.00,-10.00,-18.00,-12.00,-12.00,-13.00
-21.00,-18.00,+22.00,-1.00,-5.00,-7.00,-3.00,+0.00,-45.00,+123.00,-31.00,-5.00,-13.00,-3.00,-1.00,-4.00
+64.00,+0.00,+3.00,-4.00,+3.00,+7.00,+12.00,+19.00,+90.00,+68.00,+23.00,+3.00,+10.00,+3.00,+10.00,+22.00
+18.00,+69.00,+9.00,+3.00,+8.00,+7.00,+10.00,+0.00,-67.00,-38.00,+2.00,-2.00,-2.00,-2.00,-1.00,-24.00
+4.00,-43.00,-6.00,+0.00,-3.00,-12.00,-25.00,-5.00,+36.00,+5.00,-29.00,-3.00,+2.00,-1.00,+4.00,+16.00
+18.00,-28.00,-33.00,-14.00,-18.00,+1.00,+7.00,-8.00,+74.00,+31.00,-5.00,-2.00,-14.00,+4.00,+6.00,+25.00
-42.00,-42.00,+28.00,+2.00,+0.00,-12.00,-18.00,-18.00,-18.00,-61.00,+29.00,+15.00,+37.00,+5.00,+2.00,-5.00
-22.00,-45.00,+6.00,+8.00,+2.00,+0.00,+1.00,-4.00,+17.00,+51.00,+9.00,-8.00,-11.00,-1.00,+0.00,-7.00
+127.00,+15.00,+11.00,+19.00,+16.00,+12.00,+30.00,+44.00,+33.00,-24.00,+90.00,+12.00,-13.00,+4.00,+15.00,+30.00
-98.00,-22.00,-40.00,-18.00,-11.00,-9.00,-11.00,-50.00,-128.00,-128.00,-49.00,+1.00,+3.00,-3.00,-7.00,-30.00
-47.00,+8.00,+7.00,+2.00,+4.00,-7.00,-17.00,-14.00,+6.00,+57.00,+13.00,+2.00,-23.00,+3.00,+6.00,+27.00
+44.00,+53.00,+12.00,+10.00,+15.00,+9.00,+16.00,+29.00,+94.00,-63.00,-22.00,-2.00,+8.00,-14.00,-3.00,+31.00
+11.00,+42.00,-3.00,-4.00,-12.00,-4.00,-1.00,-10.00,+82.00,-128.00,-46.00,+0.00,+20.00,+3.00,+2.00,+16.00
+45.00,+53.00,+9.00,-5.00,-1.00,+4.00,-5.00,+6.00,-7.00,-10.00,+36.00,-8.00,-17.00,-7.00,-14.00,-18.00
-40.00,-52.00,+9.00,+7.00,+9.00,-8.00,+6.00,+20.00,-53.00,+41.00,-19.00,+3.00,+4.00,+6.00,+12.00,-4.00
+24.00,+60.00,+4.00,-1.00,-18.00,+2.00,+4.00,+33.00,-108.00,-128.00,-51.00,-1.00,+5.00,-2.00,-2.00,-15.00
-24.00,-47.00,+21.00,+0.00,+2.00,+10.00,-15.00,-7.00,+25.00,+114.00,-2.00,-6.00,-9.00,-4.00,+6.00,+24.00
+113.00,+68.00,+15.00,+17.00,+30.00,+17.00,+58.00,+43.00,+1.00,-20.00,+1.00,+1.00,+1.00,-1.00,-7.00,-10.00
+57.00,+59.00,+61.00,+12.00,+10.00,+10.00,+7.00,+26.00,+14.00,+102.00,-13.00,-2.00,-4.00,+2.00,+7.00,+22.00
-29.00,+19.00,+10.00,-4.00,-8.00,-9.00,-6.00,-3.00,-14.00,-72.00,-6.00,-2.00,+9.00,+5.00,+2.00,-6.00
-101.00,-99.00,-71.00,-25.00,-27.00,-19.00,-27.00,-46.00,-57.00,+33.00,+38.00,+8.00,-18.00,-8.00,-20.00,-28.00
+8.00,+53.00,+25.00,+7.00,-3.00,+1.00,-10.00,-4.00,+12.00,-63.00,+29.00,+8.00,+20.00,+3.00,+1.00,+1.00
+10.00,+87.00,-70.00,-25.00,-10.00,-19.00,-3.00,-13.00,+40.00,+18.00,-8.00,-9.00,-1.00,-14.00,-29.00,-19.00
+38.00,+69.00,+54.00,+25.00,+17.00,+20.00,+5.00,+8.00,+73.00,+108.00,-37.00,-10.00,-22.00,+4.00,+30.00,+14.00
+24.00,-14.00,-30.00,-9.00,-9.00,-5.00,-2.00,-3.00,+78.00,+100.00,+10.00,+17.00,+0.00,+10.00,+25.00,+25.00
-28.00,+31.00,+19.00,-3.00,-2.00,-5.00,-4.00,-3.00,-32.00,+73.00,+10.00,+12.00,+39.00,-4.00,-7.00,+7.00
-53.00,-63.00,+18.00,-3.00,-5.00,+3.00,+15.00,+1.00,+3.00,-38.00,+34.00,-19.00,-13.00,+4.00,+10.00,+7.00
-32.00,-116.00,+10.00,+14.00,+17.00,+3.00,-15.00,+12.00,-96.00,-91.00,-9.00,-7.00,+0.00,-9.00,-29.00,-50.00
-58.00,-42.00,-13.00,-4.00,-6.00,-12.00,-11.00,-29.00,+0.00,+72.00,-3.00,-14.00,-19.00,-8.00,-20.00,-24.00
+67.00,-6.00,-4.00,+3.00,+7.00,+8.00,-2.00,+24.00,-119.00,-7.00,-14.00,-8.00,-14.00,-5.00,+2.00,-21.00
-40.00,-13.00,+2.00,+0.00,-4.00,+1.00,-8.00,-18.00,-15.00,+55.00,+88.00,+25.00,+8.00,-2.00,-16.00,-27.00
+10.00,+20.00,-5.00,-17.00,-26.00,-17.00,+3.00,-21.00,+18.00,-45.00,-83.00,-16.00,+11.00,+1.00,+8.00,+19.00
-16.00,+68.00,+33.00,+7.00,+22.00,+6.00,+12.00,+12.00,-34.00,-94.00,+1.00,-14.00,-7.00,-3.00,-4.00,-16.00
+53.00,-69.00,+50.00,+27.00,+21.00,+22.00,+11.00,+45.00,-83.00,-34.00,+9.00,+11.00,+1.00,-7.00,-1.00,+5.00
-37.00,+6.00,-42.00,-18.00,-15.00,-28.00,-32.00,-47.00,-128.00,-18.00,-37.00,-15.00,-19.00,-8.00,-2.00,-43.00
+24.00,-81.00,+17.00,+1.00,+14.00,+15.00,-27.00,+3.00,+84.00,+67.00,+102.00,+13.00,+0.00,+1.00,-4.00,-6.00
+77.00,+67.00,-2.00,-6.00,-18.00,+7.00,+8.00,+17.00,+68.00,-88.00,-24.00,+3.00,-9.00,+0.00,+2.00,+24.00
-128.00,-65.00,-36.00,-16.00,-8.00,-15.00,-44.00,-59.00,-2.00,+30.00,+6.00,-18.00,-3.00,-4.00,-3.00,-17.00
+45.00,+71.00,+34.00,+5.00,+4.00,+13.00,+21.00,+9.00,-90.00,-51.00,-13.00,-3.00,-3.00,+0.00,-4.00,-36.00
+6.00,-123.00,-44.00,+6.00,+3.00,-2.00,+14.00,-3.00,-95.00,-5.00,+70.00,+15.00,+6.00,-1.00,-9.00,-3.00
-80.00,-93.00,+4.00,-13.00,+0.00,-8.00,+1.00,+4.00,+11.00,+31.00,-71.00,-5.00,+11.00,+0.00,-2.00,+8.00
-46.00,-32.00,-29.00,-10.00,-11.00,-12.00,-23.00,-28.00,-44.00,+32.00,+20.00,-3.00,-24.00,-8.00,-17.00,-31.00
+127.00,-26.00,+68.00,+28.00,+21.00,+22.00,+3.00,+50.00,+45.00,+39.00,-10.00,-7.00,-4.00,-5.00,-10.00,+3.00
-23.00,-26.00,-50.00,-18.00,-15.00,-16.00,-9.00,-28.00,+62.00,-60.00,+23.00,+13.00,+7.00,+11.00,+24.00,+25.00
+45.00,-105.00,-23.00,+7.00,+11.00,+14.00,+11.00,+13.00,+11.00,+98.00,+4.00,-1.00,+14.00,-12.00,-11.00,-15.00
+1.00,+33.00,+37.00,+3.00,-1.00,-1.00,+14.00,+7.00,-35.00,-88.00,+20.00,-1.00,-18.00,+6.00,-1.00,+11.00
-110.00,-115.00,-56.00,-16.00,-14.00,-11.00,-16.00,+12.00,+100.00,-49.00,-73.00,+1.00,-1.00,+1.00,+4.00,+23.00
-41.00,-93.00,+10.00,+17.00,+14.00,+9.00,+22.00,+4.00,-22.00,-50.00,-103.00,-14.00,-3.00,+0.00,-8.00,-17.00
+45.00,+123.00,-8.00,+3.00,+5.00,+4.00,+10.00,-1.00,+0.00,-57.00,+35.00,-4.00,+9.00,-7.00,+8.00,+5.00
-15.00,-114.00,+16.00,-6.00,-2.00,-4.00,+7.00,+2.00,+89.00,-54.00,+22.00,+19.00,+6.00,+6.00,+13.00,+30.00
-5.00,+33.00,-74.00,-20.00,-18.00,-8.00,-16.00,-44.00,-19.00,-103.00,-55.00,-22.00,-9.00,-6.00,-13.00,-4.00
-40.00,-26.00,-32.00,-15.00,-11.00,-7.00,-7.00,-19.00,-75.00,-45.00,+18.00,+7.00,+3.00,+8.00,+17.00,-12.00
-14.00,-88.00,+111.00,+45.00,+32.00,+25.00,+17.00,+64.00,-79.00,-45.00,+47.00,+10.00,+12.00,+3.00,-22.00,-15.00
-28.00,-54.00,-39.00,-15.00,-21.00,-16.00,+7.00,-16.00,-31.00,-7.00,+24.00,-15.00,-11.00,-2.00,+15.00,-3.00
+38.00,-27.00,-18.00,-8.00,+11.00,+10.00,-7.00,-9.00,+85.00,+52.00,-68.00,+2.00,-5.00,-3.00,-3.00,-9.00
-39.00,-82.00,+21.00,+9.00,+11.00,+2.00,+23.00,+19.00,+69.00,+4.00,-82.00,-14.00,-4.00,-5.00,-2.00,+38.00
-5.00,+74.00,+12.00,-13.00,-8.00,-17.00,-25.00,-45.00,-128.00,-45.00,+8.00,+2.00,+5.00,+4.00,+0.00,-31.00
-44.00,-42.00,-77.00,-15.00,-12.00,-1.00,-11.00,-26.00,+127.00,+70.00,-5.00,+6.00,+3.00,+5.00,+8.00,+40.00
+48.00,-68.00,+25.00,+16.00,+15.00,+13.00,+23.00,+32.00,-14.00,-14.00,+64.00,+3.00,-1.00,-4.00,-2.00,+2.00
+18.00,+48.00,-48.00,-37.00,-36.00,-23.00,-24.00,-36.00,+51.00,+17.00,-28.00,-13.00,-9.00,-9.00,-1.00,-2.00
+96.00,+8.00,+16.00,+15.00,+18.00,+13.00,+14.00,+32.00,-21.00,-75.00,-41.00,+2.00,+3.00,+8.00,-20.00,-11.00
+1.00,-36.00,-62.00,-5.00,-5.00,-1.00,+2.00,-9.00,+2.00,-84.00,-108.00,-22.00,-12.00,-11.00,-17.00,-21.00
-12.00,-28.00,-17.00,-20.00,-28.00,-24.00,-34.00,-37.00,-56.00,-76.00,+105.00,+21.00,+12.00,+13.00,+21.00,+29.00
+75.00,-29.00,-3.00,+12.00,+12.00,+7.00,+5.00,+3.00,-67.00,+33.00,+27.00,+7.00,-1.00,-7.00,-14.00,-25.00
-44.00,-39.00,+45.00,-12.00,-3.00,-4.00,+6.00,+1.00,-72.00,-120.00,-16.00,-12.00,-1.00,+2.00,+18.00,+8.00
+45.00,+39.00,+14.00,-3.00,-5.00,-2.00,-1.00,+10.00,+55.00,+111.00,+97.00,+26.00,+9.00,+11.00,+13.00,+9.00
-3.00,+2.00,+36.00,+11.00,-9.00,+4.00,+20.00,+32.00,-43.00,-82.00,-59.00,-8.00,-3.00,-5.00,-7.00,-10.00
-32.00,-18.00,-66.00,-6.00,+6.00,-8.00,-13.00,-27.00,+26.00,-68.00,-26.00,-1.00,-2.00,-1.00,-7.00,+2.00
-95.00,-74.00,-20.00,-31.00,-30.00,-16.00,-33.00,-35.00,+99.00,+48.00,+23.00,+8.00,+4.00,+1.00,+10.00,+14.00
+14.00,-90.00,+43.00,+28.00,+24.00,+16.00,+4.00,+37.00,-74.00,+105.00,+16.00,-4.00,-1.00,-2.00,-4.00,-6.00
-36.00,-37.00,+17.00,+1.00,+0.00,+0.00,+41.00,-47.00,-2.00,+19.00,+27.00,+7.00,+3.00,+2.00,+1.00,-6.00
+18.00,+90.00,+48.00,+16.00,+4.00,+9.00,+20.00,+50.00,-34.00,-18.00,-18.00,+0.00,+0.00,-1.00,+3.00,+5.00
-29.00,+39.00,-11.00,+0.00,-2.00,-10.00,-15.00,-37.00,+54.00,+92.00,+56.00,+7.00,+3.00,+1.00,+11.00,+6.00
+37.00,+30.00,+11.00,-12.00,-15.00,-8.00,-11.00,+2.00,+30.00,+66.00,-33.00,-4.00,-2.00,-7.00,-5.00,+12.00
+110.00,+127.00,+5.00,+13.00,+16.00,+7.00,+0.00,+28.00,-3.00,+65.00,+43.00,+9.00,+6.00,+8.00,+2.00,+15.00
-47.00,-45.00,-13.00,-17.00,-11.00,-3.00,-11.00,-28.00,+56.00,+23.00,-1.00,-11.00,-5.00,-6.00,-10.00,-3.00
-4.00,+34.00,-44.00,-11.00,-7.00,-1.00,+6.00,-14.00,+96.00,+127.00,+82.00,+13.00,+2.00,+1.00,+5.00,+13.00
-12.00,-1.00,+95.00,+20.00,-1.00,+8.00,+11.00,+12.00,-44.00,-128.00,-28.00,-5.00,-2.00,-4.00,-16.00,+3.00
-60.00,+9.00,+0.00,+9.00,+9.00,-8.00,-19.00,-5.00,-45.00,+41.00,+17.00,+2.00,-2.00,+8.00,+32.00,+4.00
+39.00,+58.00,+14.00,-7.00,-8.00,-7.00,+3.00,+7.00,+76.00,+127.00,+60.00,+15.00,+9.00,+13.00,+13.00,+39.00
+22.00,+23.00,-1.00,-17.00,-23.00,-6.00,-11.00,-2.00,-82.00,-124.00,-50.00,-9.00,+1.00,-2.00,+3.00,-9.00
-13.00,+101.00,-63.00,-10.00,-1.00,-8.00,+1.00,-21.00,-22.00,-43.00,-17.00,-5.00,-14.00,-8.00,-18.00,-32.00
+60.00,-49.00,-4.00,+18.00,+7.00,+13.00,+4.00,+27.00,-73.00,-97.00,-80.00,-19.00,-5.00,-9.00,-19.00,-4.00
-3.00,+60.00,+32.00,-5.00,-2.00,+0.00,-2.00,+10.00,+24.00,+17.00,-26.00,-14.00,-4.00,-3.00,-4.00,+10.00
-46.00,+45.00,-45.00,-4.00,+8.00,-1.00,+0.00,-15.00,+37.00,-11.00,+19.00,+9.00,+6.00,+4.00,+4.00,-12.00
+7.00,+58.00,+44.00,+7.00,-4.00,+7.00,+8.00,+5.00,+50.00,-64.00,-8.00,+0.00,-2.00,+2.00,+5.00,-1.00
-13.00,-65.00,+18.00,+2.00,+11.00,-2.00,-10.00,+12.00,-78.00,+7.00,+31.00,+14.00,+2.00,-5.00,-11.00,-23.00
+22.00,+93.00,+4.00,+14.00,+7.00,+5.00,+8.00,+32.00,+11.00,+20.00,-20.00,-5.00,-5.00,-3.00,+9.00,+12.00
+127.00,+9.00,-15.00,+16.00,+1.00,+12.00,+19.00,+33.00,+11.00,-10.00,-54.00,-7.00,-1.00,+1.00,-3.00,+23.00
-53.00,-12.00,-6.00,-5.00,-3.00,-6.00,-19.00,-19.00,-90.00,-79.00,+50.00,+0.00,-2.00,+1.00,+7.00,-13.00
-29.00,-49.00,-11.00,-16.00,-16.00,-6.00,+1.00,-15.00,-37.00,-89.00,-20.00,-5.00,-4.00,-4.00,-6.00,-6.00
-41.00,-128.00,-6.00,-16.00,-10.00,-8.00,-13.00,-33.00,+17.00,-33.00,+26.00,+9.00,+3.00,+1.00,+1.00,+2.00
-44.00,-45.00,+18.00,-7.00,-6.00,-5.00,+3.00,+6.00,+34.00,+18.00,-29.00,-2.00,-1.00,+1.00,+2.00,+5.00
+91.00,-76.00,-32.00,+19.00,+26.00,+15.00,+18.00,+50.00,+127.00,-29.00,-3.00,+2.00,+2.00,+4.00,+5.00,+31.00
+41.00,+72.00,+27.00,-13.00,-18.00,-11.00,-36.00,-28.00,+10.00,+122.00,-6.00,-5.00,-1.00,-1.00,+3.00,-3.00
-16.00,+10.00,-14.00,+3.00,+8.00,+2.00,-3.00,-20.00,-107.00,-43.00,+34.00,+0.00,+0.00,-4.00,-8.00,-23.00
-29.00,-47.00,+16.00,+1.00,+3.00,-3.00,+4.00,+25.00,-128.00,-85.00,-25.00,-11.00,-7.00,-3.00,-9.00,-29.00
+65.00,+104.00,+46.00,-11.00,-8.00,-7.00,-7.00,-12.00,-17.00,+65.00,-59.00,-10.00,-5.00,-1.00,+7.00,+13.00
+12.00,+52.00,-10.00,+14.00,+18.00,+7.00,+0.00,+15.00,+29.00,+20.00,+28.00,+6.00,+1.00,-3.00,-4.00,+0.00
+50.00,+69.00,-40.00,-14.00,-13.00,-6.00,-4.00,-5.00,+13.00,-63.00,-17.00,-8.00,-4.00,-6.00,-13.00,-11.00
+35.00,+24.00,+2.00,+15.00,+16.00,+9.00,+5.00,+16.00,+72.00,-24.00,-20.00,+6.00,+2.00,+3.00,+4.00,+22.00
+26.00,+35.00,+39.00,+1.00,+6.00,+5.00,+3.00,+12.00,-1.00,+30.00,-34.00,-10.00,-3.00,+0.00,-1.00,-13.00
-56.00,+6.00,+31.00,-7.00,-1.00,-8.00,-5.00,-16.00,-5.00,-100.00,+59.00,-7.00,-3.00,-6.00,+14.00,+11.00
+59.00,-38.00,-25.00,-3.00,+7.00,+0.00,+1.00,+2.00,+38.00,+127.00,+39.00,+14.00,+4.00,+5.00,-34.00,-15.00
+13.00,+3.00,-51.00,-5.00,-38.00,-4.00,-1.00,+10.00,-10.00,+114.00,+9.00,+7.00,+0.00,-1.00,+10.00,+32.00
+38.00,+25.00,-30.00,-12.00,+1.00,-10.00,-7.00,-8.00,-5.00,+39.00,-24.00,-2.00,+1.00,+1.00,-2.00,-23.00
-107.00,-103.00,-3.00,+3.00,-7.00,-1.00,+1.00,-11.00,+88.00,-77.00,-48.00,-6.00,-2.00,+0.00,-2.00,+2.00
+18.00,-67.00,+31.00,+28.00,+41.00,+16.00,+12.00,+18.00,-43.00,+8.00,-22.00,-10.00,-6.00,-6.00,+3.00,-18.00
-21.00,-59.00,+12.00,-15.00,-18.00,-13.00,-1.00,-16.00,-32.00,-80.00,-33.00,-4.00,-3.00,-4.00,-6.00,-14.00
-47.00,-101.00,-75.00,-12.00,-4.00,-6.00,-5.00,-16.00,+43.00,-27.00,-3.00,+5.00,+2.00,+5.00,+3.00,+40.00
-18.00,-27.00,+22.00,-6.00,-4.00,+4.00,+16.00,+12.00,+95.00,-33.00,-3.00,-2.00,-2.00,+1.00,+1.00,+4.00
-59.00,-51.00,-39.00,-12.00,-24.00,-16.00,-22.00,-12.00,-91.00,+84.00,+41.00,+11.00,+6.00,+1.00,+8.00,+5.00
-44.00,-84.00,+39.00,+24.00,+29.00,+17.00,+13.00,+13.00,+63.00,+38.00,+22.00,-8.00,-1.00,-1.00,-7.00,-10.00
-13.00,-5.00,+74.00,+6.00,-6.00,-4.00,-3.00,-9.00,-35.00,-54.00,-45.00,-11.00,-5.00,-5.00,-6.00,-14.00
-15.00,-65.00,-60.00,-7.00,+9.00,+2.00,+4.00,+18.00,-23.00,+7.00,+12.00,+9.00,+4.00,-1.00,-2.00,+20.00
-22.00,-128.00,+39.00,-2.00,-6.00,+4.00,+10.00,-3.00,-42.00,+23.00,-28.00,+1.00,-3.00,-8.00,-10.00,-12.00
+30.00,+63.00,-15.00,-5.00,-4.00,-9.00,-10.00,-20.00,+42.00,+10.00,-13.00,-5.00,+0.00,+5.00,+23.00,+6.00
-62.00,+30.00,-7.00,-6.00,-6.00,-5.00,-6.00,-25.00,+53.00,+38.00,-43.00,-10.00,-5.00,-15.00,+35.00,+18.00
+11.00,+100.00,-38.00,-18.00,-13.00,-4.00,+4.00,-4.00,-113.00,-8.00,-34.00,-11.00,-5.00,-2.00,-4.00,-20.00
+35.00,+10.00,+58.00,+15.00,+11.00,+10.00,-2.00,+13.00,-69.00,-86.00,+18.00,-5.00,-6.00,-5.00,-11.00,-7.00
+35.00,+68.00,-2.00,+5.00,+8.00,-1.00,-1.00,+10.00,-109.00,+52.00,+9.00,-16.00,-8.00,-9.00,-19.00,-32.00
+2.00,-54.00,-11.00,+11.00,+10.00,+10.00,-5.00,+3.00,+62.00,-80.00,+5.00,+6.00,+6.00,+5.00,-9.00,-2.00
-44.00,-76.00,-14.00,-18.00,-15.00,-21.00,-39.00,-34.00,+108.00,+65.00,+14.00,-11.00,-6.00,-4.00,+5.00,+12.00
+35.00,+127.00,+46.00,+15.00,+1.00,+11.00,+28.00,+28.00,+80.00,-81.00,-52.00,-6.00,-4.00,-5.00,+5.00,+9.00
-2.00,-72.00,+5.00,+4.00,+10.00,+7.00,+5.00,-4.00,+71.00,+79.00,+40.00,+3.00,-4.00,-5.00,-12.00,-17.00
+12.00,-4.00,-20.00,-7.00,-13.00,-15.00,-5.00,-5.00,-48.00,-10.00,+12.00,+7.00,+4.00,+4.00,-6.00,-17.00
-20.00,-104.00,-17.00,+5.00,+10.00,+13.00,-7.00,-1.00,+11.00,-97.00,+15.00,+1.00,-1.00,-2.00,-13.00,+1.00
-63.00,-83.00,-47.00,-23.00,-27.00,-18.00,-22.00,-41.00,+32.00,+7.00,+25.00,+5.00,+0.00,+5.00,+9.00,+4.00
-100.00,-79.00,-14.00,-11.00,+14.00,-8.00,-15.00,-27.00,+18.00,-15.00,-39.00,+6.00,+3.00,+6.00,-2.00,+16.00
+34.00,-87.00,+1.00,-4.00,-7.00,+1.00,+9.00,+22.00,+94.00,+104.00,+41.00,+0.00,-1.00,-4.00,-3.00,+23.00
-8.00,+111.00,+30.00,+20.00,+24.00,+6.00,+20.00,+21.00,+28.00,+65.00,+15.00,+8.00,+5.00,+2.00,-3.00,+11.00
-2.00,+47.00,+43.00,-2.00,-4.00,-1.00,-15.00,-20.00,-78.00,-22.00,+35.00,-4.00,-2.00,-3.00,+6.00,-1.00
-14.00,+36.00,-15.00,-3.00,-5.00,-5.00,-2.00,+5.00,+28.00,+40.00,+25.00,-11.00,-7.00,-2.00,+3.00,+11.00
+11.00,-5.00,-70.00,-4.00,-5.00,-2.00,-4.00,-7.00,-72.00,+20.00,+25.00,+5.00,+0.00,-4.00,-6.00,-13.00
+39.00,-6.00,+40.00,+0.00,+5.00,+5.00,+16.00,+11.00,+100.00,+82.00,+35.00,+13.00,+1.00,-4.00,-5.00,+5.00
+10.00,-128.00,-22.00,-4.00,+11.00,+3.00,+3.00,-5.00,+22.00,+80.00,-77.00,-25.00,-10.00,-6.00,+3.00,+6.00
+78.00,+63.00,-3.00,+6.00,+2.00,-1.00,-2.00,+15.00,+3.00,-128.00,-36.00,+0.00,+2.00,+3.00,-1.00,+0.00
+18.00,-31.00,+73.00,+27.00,+33.00,+15.00,+29.00,+56.00,-44.00,+46.00,+22.00,+1.00,+0.00,-1.00,-8.00,-14.00
+33.00,+89.00,-14.00,-5.00,-15.00,-1.00,-1.00,+21.00,+14.00,+43.00,+23.00,+2.00,-1.00,+0.00,-3.00,-10.00
-6.00,+18.00,-11.00,-4.00,-10.00,-3.00,-1.00,+6.00,+8.00,+3.00,-21.00,-8.00,-3.00,-5.00,-11.00,-12.00
-5.00,-33.00,-41.00,+6.00,-2.00,+4.00,+2.00,+5.00,-102.00,+59.00,+36.00,+8.00,+3.00,+0.00,-1.00,-6.00
-52.00,-62.00,-62.00,-21.00,-12.00,-12.00,-12.00,-31.00,-107.00,+127.00,+14.00,+2.00,-1.00,-1.00,-13.00,-9.00
+36.00,-41.00,-4.00,+6.00,+0.00,+7.00,+4.00,-3.00,-10.00,-110.00,+1.00,-5.00,-2.00,+0.00,+11.00,-14.00
-28.00,+67.00,+31.00,-7.00,-15.00,-10.00,-9.00,-19.00,+31.00,-93.00,-2.00,+5.00,+3.00,+6.00,+6.00,+0.00
-49.00,+45.00,-2.00,-28.00,-14.00,-19.00,-20.00,-51.00,+53.00,+72.00,-24.00,-8.00,-8.00,-12.00,-10.00,+5.00
-68.00,+52.00,-19.00,+13.00,+11.00,+8.00,+4.00,-10.00,-84.00,-123.00,-8.00,-2.00,-1.00,+0.00,-1.00,-16.00
+35.00,-65.00,-16.00,+0.00,-1.00,+3.00,-5.00,-24.00,+48.00,+55.00,+5.00,+0.00,+2.00,+2.00,-1.00,+16.00
-34.00,+10.00,-26.00,-7.00,+0.00,-4.00,-11.00,-14.00,-52.00,-93.00,+23.00,+6.00,+2.00,+2.00,-7.00,-19.00
-27.00,-128.00,-51.00,-13.00,-16.00,-7.00,-9.00,-22.00,-68.00,+84.00,+85.00,+25.00,+8.00,+8.00,-3.00,-2.00
-18.00,-2.00,+41.00,-2.00,-7.00,+2.00,-2.00,+15.00,-9.00,-114.00,-92.00,-12.00,-3.00,-4.00,+13.00,-5.00
+11.00,-41.00,-13.00,-3.00,+2.00,-13.00,+2.00,-6.00,-125.00,-84.00,-31.00,-8.00,-3.00,-2.00,-10.00,-23.00
-3.00,+10.00,-30.00,+11.00,+11.00,+10.00,-2.00,+5.00,+101.00,+119.00,+39.00,+6.00,+4.00,+7.00,+13.00,+32.00
+53.00,-128.00,+14.00,-2.00,-12.00,+8.00,-7.00,+11.00,-95.00,-106.00,+0.00,+5.00,+1.00,-2.00,-2.00,-4.00
-24.00,+61.00,+32.00,-9.00,-13.00,-12.00,-21.00,-27.00,+86.00,+73.00,+49.00,-3.00,-5.00,-4.00,-14.00,-2.00
+61.00,-28.00,-8.00,+0.00,-1.00,-1.00,+6.00,+8.00,+44.00,-60.00,+28.00,+0.00,+0.00,+3.00,+8.00,+13.00
-3.00,+53.00,+14.00,+6.00,+8.00,+4.00,+11.00,+19.00,+40.00,-34.00,-10.00,+3.00,+2.00,-2.00,-2.00,+2.00
-17.00,-39.00,+3.00,+1.00,+3.00,-7.00,-6.00,-5.00,-28.00,-52.00,-25.00,-12.00,-5.00,-4.00,+6.00,-16.00
+28.00,-55.00,-43.00,+14.00,+11.00,+14.00,+14.00,+21.00,-124.00,+9.00,+52.00,+11.00,+4.00,+6.00,+1.00,+0.00
-49.00,-30.00,+33.00,-2.00,-4.00,-3.00,+2.00,+9.00,-109.00,-73.00,-64.00,-9.00,-6.00,-2.00,-4.00,-27.00
+40.00,-5.00,-11.00,-7.00,-4.00,-8.00,-6.00,-7.00,+28.00,+84.00,+34.00,+7.00,+2.00,+0.00,-3.00,-10.00
-2.00,+84.00,+22.00,-1.00,+3.00,+4.00,+10.00,+7.00,+61.00,-24.00,-38.00,-7.00,-6.00,-7.00,+4.00,+1.00
-22.00,-19.00,+12.00,+5.00,+6.00,+3.00,+3.00,-2.00,-5.00,-105.00,-12.00,-8.00,-1.00,-1.00,-2.00,-2.00
-32.00,-22.00,-54.00,-12.00,-13.00,-5.00,-5.00,-25.00,-25.00,+127.00,-40.00,+0.00,-1.00,+2.00,-3.00,+10.00
+27.00,+34.00,+7.00,+1.00,+0.00,+3.00,+0.00,+15.00,-90.00,-36.00,-13.00,-4.00,-1.00,-1.00,+1.00,-20.00
-9.00,+51.00,+35.00,+4.00,+2.00,+4.00,+5.00,+0.00,-84.00,-107.00,+14.00,-2.00,-3.00,-1.00,-4.00,-8.00
+30.00,-49.00,-25.00,-10.00,-7.00,-5.00,+0.00,+27.00,+127.00,-27.00,-33.00,-11.00,-4.00,-5.00,-9.00,+13.00
-46.00,-43.00,+26.00,+11.00,+5.00,+2.00,+0.00,+8.00,-20.00,+52.00,+48.00,+5.00,-1.00,-2.00,-5.00,-2.00
+17.00,-18.00,+35.00,-5.00,-6.00,-2.00,-1.00,-16.00,-113.00,-63.00,-27.00,-2.00,+1.00,+0.00,-1.00,-14.00
-3.00,-2.00,-18.00,-4.00,-7.00,-4.00,-5.00,-11.00,+40.00,+127.00,+64.00,+8.00,+3.00,+1.00,+1.00,-4.00
+21.00,-6.00,+5.00,-11.00,-7.00,-4.00,+3.00,-18.00,+42.00,+36.00,+5.00,+7.00,+2.00,+3.00,+3.00,+16.00
-2.00,-13.00,+29.00,+5.00,+4.00,-1.00,-14.00,-6.00,+10.00,-128.00,-67.00,-13.00,-5.00,-7.00,-9.00,-9.00
-16.00,-93.00,-7.00,-3.00,-14.00,+2.00,+8.00,+17.00,-50.00,-67.00,-5.00,+1.00,+0.00,-2.00,-1.00,+2.00
-40.00,-55.00,-1.00,+7.00,+13.00,-3.00,+7.00,+12.00,+74.00,-41.00,-23.00,-6.00,+1.00,+1.00,-2.00,+12.00
+59.00,+127.00,+3.00,-5.00,-9.00,+0.00,+0.00,-2.00,-19.00,+14.00,-31.00,-7.00,-4.00,-4.00,-7.00,-19.00
-32.00,-18.00,-17.00,-14.00,-19.00,-13.00,-11.00,-25.00,-62.00,+60.00,-30.00,-3.00,-2.00,-2.00,-5.00,-2.00
-42.00,-20.00,-8.00,+13.00,+15.00,+9.00,+7.00,-3.00,+43.00,+29.00,+66.00,+9.00,+2.00,+2.00,+1.00,+17.00
+117.00,+31.00,+26.00,+7.00,+5.00,+2.00,+4.00,+23.00,-77.00,-4.00,-17.00,+5.00,+3.00,+2.00,+1.00,-7.00
-10.00,-43.00,-2.00,+0.00,+33.00,-4.00,-1.00,-8.00,-56.00,-56.00,+4.00,-2.00,-2.00,-4.00,-5.00,-11.00
+45.00,+21.00,+9.00,+8.00,-10.00,+7.00,+9.00,+23.00,+35.00,+100.00,+22.00,+1.00,-3.00,-3.00,-4.00,+4.00
-1.00,+43.00,-5.00,-18.00,-14.00,-7.00,-10.00,-14.00,+58.00,+92.00,+8.00,+2.00,+1.00,+1.00,+10.00,+0.00
-7.00,-4.00,-5.00,+3.00,+1.00,+1.00,-1.00,-8.00,-11.00,-74.00,-15.00,-7.00,-4.00,-2.00,-28.00,+13.00
-25.00,-16.00,+26.00,+11.00,+2.00,+2.00,+1.00,+3.00,-95.00,+78.00,+32.00,+5.00,+0.00,+0.00,+2.00,-9.00
-27.00,+48.00,+1.00,-6.00,-6.00,-14.00,-10.00,-21.00,-38.00,+31.00,+5.00,+1.00,+0.00,+0.00,-1.00,+5.00
-64.00,-66.00,-36.00,+2.00,+8.00,-3.00,-3.00,-38.00,-23.00,-27.00,-7.00,-1.00,-1.00,-1.00,+0.00,-3.00
-73.00,-39.00,-11.00,+7.00,+5.00,+12.00,+14.00,+19.00,-8.00,+6.00,-1.00,-7.00,-4.00,-4.00,+3.00,-8.00
+30.00,+23.00,+33.00,+1.00,-4.00,-1.00,-4.00,-8.00,-9.00,-76.00,-1.00,+2.00,-1.00,+1.00,-1.00,-4.00
-24.00,+19.00,-11.00,+1.00,+1.00,+1.00,-6.00,-16.00,-73.00,-108.00,-67.00,-10.00,-1.00,-3.00,-4.00,-2.00
+27.00,+57.00,+15.00,-2.00,-11.00,-6.00,-5.00,-2.00,-93.00,+107.00,+30.00,-5.00,-6.00,-6.00,-14.00,-66.00
+59.00,+74.00,+18.00,+9.00,+15.00,+7.00,+14.00,+18.00,-28.00,+48.00,+25.00,+11.00,+4.00,+0.00,+8.00,+1.00
-74.00,-69.00,-28.00,-3.00,-9.00,-4.00,-11.00,-15.00,-45.00,-16.00,+33.00,+1.00,+1.00,+1.00,-3.00,-17.00
+51.00,-29.00,+7.00,+4.00,+9.00,+8.00,+9.00,+15.00,-5.00,+66.00,-35.00,+1.00,-1.00,+1.00,+7.00,+1.00
-14.00,+4.00,+15.00,-1.00,+5.00,-1.00,-1.00,+3.00,-38.00,-93.00,-36.00,-10.00,-4.00,-4.00,-5.00,+8.00
+24.00,+52.00,+8.00,+0.00,-3.00,-4.00,-2.00,+7.00,+61.00,+78.00,-46.00,-14.00,-9.00,-3.00,+4.00,+15.00
+15.00,-52.00,+0.00,+0.00,-5.00,+0.00,+3.00,+6.00,+76.00,+113.00,-2.00,-5.00,-5.00,-4.00,-5.00,+5.00
-4.00,+57.00,+13.00,-2.00,-4.00,+0.00,-4.00,-2.00,-24.00,+51.00,+55.00,+16.00,+6.00,+6.00,+5.00,+6.00
+25.00,-75.00,-10.00,-9.00,-1.00,-4.00,-4.00,+9.00,-59.00,-93.00,-48.00,-5.00,-3.00,-3.00,-3.00,-7.00
+40.00,-65.00,-50.00,-4.00,-8.00,-3.00,-1.00,-14.00,-126.00,+83.00,+29.00,+4.00,+3.00,+0.00,-3.00,-28.00
-46.00,+59.00,+9.00,+15.00,+4.00,+7.00,+4.00,-1.00,+7.00,+103.00,-2.00,-3.00,-1.00,-4.00,+4.00,+9.00
+75.00,+69.00,+33.00,+7.00,+7.00,+2.00,+3.00,+10.00,+27.00,-59.00,+8.00,-3.00,-1.00,-2.00,-2.00,+4.00
-13.00,+5.00,+5.00,-2.00,+5.00,+1.00,+1.00,+10.00,+19.00,-24.00,-18.00,-2.00,-2.00,-1.00,-3.00,+6.00
+10.00,-7.00,+3.00,-9.00,-3.00,-9.00,-8.00,-14.00,+19.00,-128.00,-1.00,-4.00,+0.00,-1.00,+2.00,+1.00
-32.00,-73.00,-23.00,-12.00,-13.00,-2.00,-5.00,+19.00,+50.00,-56.00,-15.00,+2.00,-3.00,+1.00,-1.00,+2.00
-4.00,-45.00,-55.00,-17.00,-21.00,-15.00,-13.00,-25.00,+81.00,-18.00,+13.00,+1.00,+1.00,+1.00,+0.00,-6.00
+41.00,+94.00,+86.00,+26.00,+23.00,+14.00,+17.00,+34.00,+18.00,+20.00,-3.00,-1.00,-3.00,-2.00,-2.00,+3.00
+26.00,-3.00,+21.00,+2.00,-4.00,+3.00,-2.00,+10.00,-46.00,-48.00,+0.00,+2.00,+2.00,+1.00,+2.00,+4.00
-39.00,+77.00,+2.00,-9.00,-9.00,-8.00,-3.00,-25.00,-37.00,-36.00,-2.00,+1.00,+2.00,+1.00,+2.00,+3.00
-6.00,+79.00,-12.00,+1.00,+4.00,+0.00,+3.00,+3.00,+2.00,+2.00,+24.00,+3.00,+1.00,+0.00,+1.00,-1.00
-12.00,+32.00,-30.00,-7.00,-14.00,-5.00,-5.00,-14.00,+31.00,-19.00,-8.00,-1.00,-2.00,-1.00,+0.00,+20.00
-35.00,-38.00,+1.00,-3.00,+1.00,-5.00,-8.00,-17.00,+51.00,+9.00,-15.00,-7.00,-2.00,-3.00,-5.00,-3.00
+43.00,+0.00,-10.00,-3.00,+6.00,-6.00,-3.00,+4.00,-16.00,-25.00,-13.00,-1.00,+2.00,+2.00,-2.00,+1.00
-33.00,-72.00,+9.00,+3.00,+4.00,+4.00,+5.00,+0.00,-58.00,+44.00,+43.00,+1.00,-2.00,-1.00,-1.00,-15.00
+6.00,-40.00,-16.00,+0.00,+2.00,-2.00,+3.00,+13.00,+36.00,+17.00,-15.00,+1.00,+2.00,+0.00,+2.00,+14.00
-19.00,-49.00,+7.00,+2.00,+3.00,+2.00,+2.00,-1.00,-7.00,-61.00,-75.00,-9.00,-4.00,-2.00,-6.00,-8.00
+16.00,+8.00,+19.00,+3.00,-1.00,-1.00,+1.00,+8.00,+11.00,+5.00,-10.00,-3.00,-2.00,-1.00,-1.00,-13.00
-14.00,+47.00,+26.00,+9.00,+7.00,+5.00,+6.00,+12.00,+40.00,-4.00,+43.00,-2.00,-1.00,-2.00,+0.00,+7.00
+27.00,-7.00,-26.00,-2.00,-6.00,-1.00,+0.00,+13.00,+7.00,+15.00,-12.00,+0.00,+2.00,+1.00,+0.00,-1.00
-48.00,-35.00,+1.00,-6.00,-2.00,-2.00,-5.00,-17.00,+50.00,+43.00,+14.00,-1.00,-4.00,-2.00,+1.00,+19.00
+16.00,-14.00,-14.00,-12.00,-3.00,-6.00,-5.00,-12.00,-11.00,-34.00,-2.00,-2.00,-1.00,-1.00,+0.00,-3.00
-2.00,+78.00,-12.00,-3.00,-8.00,+3.00,-2.00,-1.00,-36.00,-64.00,-13.00,-3.00,-1.00,+0.00,-3.00,-8.00
+7.00,-116.00,-18.00,-1.00,-5.00,+3.00,+3.00,+4.00,+1.00,+38.00,+43.00,+1.00,+1.00,-1.00,-2.00,+1.00
+5.00,-22.00,+16.00,+6.00,-2.00,+3.00,+1.00,+2.00,-24.00,-50.00,-24.00,+2.00,+0.00,-2.00,+1.00,+0.00
+44.00,-39.00,+5.00,-7.00,-6.00,-2.00,-3.00,-5.00,+6.00,+17.00,+9.00,+2.00,-2.00,+0.00,+2.00,-2.00
+26.00,-98.00,+15.00,+0.00,+9.00,+2.00,+0.00,+5.00,+1.00,-7.00,-15.00,-2.00,-3.00,-1.00,-1.00,+1.00
+5.00,-30.00,-7.00,+5.00,+1.00,-1.00,-1.00,-4.00,-21.00,+11.00,+7.00,-2.00,-3.00,-1.00,-3.00,+1.00
-14.00,-24.00,+3.00,-3.00,-9.00,-4.00,-2.00,+2.00,+5.00,+21.00,+11.00,-1.00,+0.00,+0.00,-2.00,-3.00
-35.00,-20.00,-13.00,+2.00,+4.00,+5.00,+1.00,+2.00,-14.00,+16.00,+12.00,+1.00,+0.00,+1.00,+1.00,+6.00
+5.00,-4.00,+2.00,-1.00,-2.00,-4.00,+1.00,+4.00,-6.00,-19.00,-21.00,-1.00,+0.00,+1.00,+1.00,-3.00
-43.00,+58.00,-4.00,+0.00,-3.00,-1.00,-3.00,-6.00,+33.00,-3.00,-7.00,-3.00,-1.00,-1.00,-1.00,+2.00
-6.00,-106.00,-12.00,+0.00,+0.00,-5.00,-3.00,-2.00,+3.00,-26.00,+12.00,-1.00,-1.00,+1.00,+0.00,-4.00
-17.00,+8.00,+18.00,+3.00,-7.00,+0.00,+2.00,+4.00,+0.00,+0.00,-5.00,+1.00,+0.00,-1.00,+0.00,+4.00
+23.00,-20.00,-4.00,-3.00,+9.00,+2.00,+1.00,+5.00,+20.00,-20.00,-8.00,-4.00,-1.00,-1.00,-2.00,+0.00
+9.00,+22.00,+7.00,-2.00,+2.00,-2.00,-1.00,-2.00,-3.00,+2.00,+4.00,+2.00,-1.00,-1.00,+0.00,-4.00
-18.00,+34.00,+7.00,-1.00,-1.00,-2.00,-5.00,-4.00,-21.00,-38.00,+7.00,+1.00,-3.00,-1.00,+1.00,+10.00
-16.00,+14.00,-12.00,-1.00,-3.00,-2.00,-3.00,-6.00,-18.00,+8.00,-4.00,+1.00,+0.00,+0.00,+1.00,-3.00
-28.00,+9.00,+4.00,-2.00,-1.00,+0.00,-1.00,+2.00,+12.00,+2.00,-4.00,-3.00,-2.00,-1.00,-2.00,+0.00
+35.00,-42.00,+22.00,+0.00,+2.00,+1.00,+5.00,+6.00,-2.00,+7.00,-1.00,-1.00,+0.00,-2.00,+0.00,-7.00
-1.00,+32.00,-6.00,-6.00,-2.00,-2.00,-2.00,-6.00,+1.00,+2.00,-1.00,+0.00,+0.00,-1.00,-2.00,-5.00
+9.00,-74.00,-10.00,-1.00,-2.00,+0.00,+1.00,-2.00,+2.00,-10.00,-5.00,-1.00,+0.00,-1.00,-3.00,-4.00
+9.00,+21.00,-1.00,+1.00,-1.00,+0.00,+2.00,+4.00,+21.00,-1.00,+2.00,-1.00,-1.00,+0.00,+2.00,+20.00
+16.00,+78.00,+2.00,-2.00,+1.00,-1.00,-3.00,-4.00,-19.00,-21.00,-15.00,-4.00,-4.00,-2.00,-2.00,+10.00
+13.00,+9.00,-3.00,-3.00,-2.00,+1.00,+0.00,+2.00,-1.00,+5.00,+18.00,+0.00,+0.00,-2.00,-2.00,-8.00
+14.00,-44.00,-4.00,+1.00,+12.00,+1.00,+0.00,-1.00,+0.00,+0.00,+5.00,-1.00,+0.00,+0.00,-2.00,+0.00
-16.00,-52.00,-13.00,+2.00,-11.00,+2.00,+0.00,-1.00,+7.00,-1.00,-15.00,-1.00,+0.00,-1.00,-1.00,-7.00
-31.00,+3.00,+0.00,-6.00,-4.00,-2.00,-6.00,-11.00,-1.00,-3.00,+0.00,+0.00,-1.00,-2.00,+0.00,+0.00
+8.00,+26.00,+6.00,+2.00,+0.00,+1.00,+3.00,+4.00,+7.00,+12.00,+1.00,-2.00,-2.00,+1.00,-1.00,-4.00
+10.00,+35.00,-2.00,+2.00,-3.00,-2.00,-1.00,+2.00,+0.00,-11.00,-2.00,+0.00,+1.00,-1.00,+0.00,+5.00
-33.00,-32.00,-4.00,-3.00,+6.00,-1.00,-3.00,-7.00,-15.00,-7.00,-10.00,-2.00,-1.00,-2.00,+0.00,-7.00
+23.00,+22.00,-7.00,-3.00,-8.00,+0.00,+0.00,+0.00,+14.00,+19.00,+6.00,+0.00,-1.00,+0.00,+1.00,+1.00
+20.00,-10.00,-8.00,-7.00,-6.00,-3.00,-3.00,-8.00,+1.00,-3.00,-8.00,-1.00,+0.00,+0.00,+0.00,-3.00
-22.00,-42.00,-11.00,+1.00,-1.00,+0.00,+0.00,+1.00,+1.00,+0.00,+1.00,+1.00,-1.00,-1.00,+0.00,+0.00
+3.00,+15.00,+5.00,+0.00,+1.00,-5.00,-2.00,-1.00,+2.00,+2.00,-9.00,-2.00,-1.00,+0.00,-1.00,-1.00
-4.00,-6.00,+6.00,-2.00,+0.00,-3.00,+0.00,+1.00,-2.00,-18.00,+5.00,-2.00,+0.00,+0.00,+0.00,-1.00
-11.00,+31.00,+1.00,-1.00,+4.00,+0.00,-2.00,-1.00,+12.00,+15.00,+5.00,-2.00,-3.00,-2.00,+0.00,-1.00
+16.00,+39.00,-2.00,-2.00,-3.00,-3.00,-2.00,-1.00,-4.00,+0.00,-2.00,-2.00,+1.00,-1.00,-1.00,-1.00
+6.00,+11.00,+8.00,+0.00,-2.00,+0.00,-1.00,+1.00,-6.00,-9.00,+5.00,+1.00,-1.00,-3.00,-3.00,-9.00
+11.00,-25.00,-4.00,-1.00,+3.00,-1.00,-1.00,+1.00,+2.00,+4.00,-7.00,+0.00,+0.00,-1.00,-1.00,+1.00
-40.00,+2.00,+4.00,+1.00,+0.00,-1.00,-1.00,-3.00,+0.00,-1.00,+3.00,+0.00,+1.00,-1.00,-1.00,-6.00
+16.00,+17.00,-12.00,-2.00,-4.00,-1.00,-1.00,-2.00,+5.00,-7.00,+6.00,-2.00,-1.00,-2.00,+1.00,+8.00
+0.00,-6.00,+2.00,+2.00,+0.00,+1.00,+1.00,+0.00,-14.00,-1.00,-4.00,+0.00,-2.00,-1.00,-2.00,-9.00
-7.00,-6.00,+0.00,-1.00,+2.00,+0.00,+0.00,-1.00,+0.00,+2.00,+10.00,+0.00,+0.00,-2.00,-3.00,+1.00
+16.00,+29.00,+21.00,+1.00,+0.00,+1.00,+0.00,+3.00,+11.00,+8.00,-3.00,+0.00,-2.00,-2.00,+0.00,+4.00
-8.00,+20.00,+6.00,+1.00,-2.00,+1.00,-1.00,-1.00,+0.00,-2.00,-12.00,-4.00,-1.00,-2.00,-4.00,-3.00
-26.00,-9.00,-21.00,-3.00,+0.00,+0.00,+0.00,-2.00,+2.00,-4.00,+1.00,-2.00,-1.00,+0.00,+0.00,+4.00
+20.00,+14.00,+15.00,+1.00,+3.00,+0.00,-1.00,-2.00,-4.00,+2.00,-3.00,-2.00,-1.00,+1.00,-1.00,-2.00
-9.00,+3.00,-6.00,+1.00,-2.00,+0.00,+1.00,-1.00,-2.00,+0.00,-3.00,-3.00,-1.00,-3.00,+0.00,+0.00
-2.00,+5.00,-7.00,-3.00,+0.00,+0.00,-3.00,+1.00,-1.00,-5.00,-2.00,-2.00,-2.00,-1.00,-1.00,-1.00
-9.00,+43.00,+7.00,+3.00,+2.00,+1.00,-1.00,+0.00,-6.00,-5.00,+1.00,+1.00,+1.00,-1.00,+1.00,-6.00
+20.00,-20.00,-2.00,+1.00,+0.00,-1.00,+1.00,+2.00,+6.00,+28.00,-5.00,-1.00,+0.00,-2.00,-1.00,+12.00
-8.00,+0.00,-9.00,-4.00,-3.00,+0.00,+2.00,+2.00,+0.00,-8.00,-2.00,-1.00,-1.00,+0.00,-1.00,-6.00
+8.00,+10.00,+2.00,+1.00,+3.00,+1.00,+1.00,-1.00,+1.00,-6.00,-17.00,-4.00,-3.00,+0.00,-1.00,-2.00
+1.00,-16.00,+0.00,-2.00,-1.00,-3.00,+0.00,-2.00,-1.00,-3.00,+0.00,-4.00,+0.00,-1.00,+0.00,-4.00
-18.00,-4.00,-10.00,-1.00,+6.00,+1.00,-2.00,-2.00,+2.00,-2.00,-2.00,+4.00,-2.00,-1.00,+3.00,-4.00
+5.00,+17.00,+1.00,+2.00,+0.00,+1.00,-2.00,+1.00,+3.00,+10.00,+7.00,+2.00,-1.00,-1.00,-2.00,-1.00
+4.00,+12.00,+0.00,-2.00,-4.00,-2.00,-3.00,+1.00,+1.00,+5.00,+9.00,+0.00,+0.00,-1.00,-4.00,+3.00
+10.00,-4.00,-3.00,-2.00,+1.00,-1.00,-1.00,+1.00,-1.00,+0.00,-5.00,+2.00,-2.00,-2.00,-4.00,-1.00
-6.00,-4.00,+6.00,+0.00,-4.00,-1.00,-2.00,-1.00,-4.00,-10.00,+0.00,+0.00,-1.00,+1.00,+0.00,-3.00
-7.00,-18.00,-16.00,-2.00,+0.00,-2.00,-1.00,-7.00,-6.00,-6.00,-1.00,-2.00,-2.00,+1.00,-1.00,-2.00
+5.00,+19.00,+11.00,-3.00,+0.00,+0.00,+1.00,+10.00,+0.00,-6.00,+0.00,-2.00,-1.00,-2.00,+1.00,-3.00
+8.00,-6.00,-8.00,-2.00,-3.00,-2.00,-2.00,-1.00,-1.00,+2.00,+0.00,-1.00,+0.00,-2.00,-2.00,+3.00
-9.00,-6.00,-5.00,+1.00,-2.00,+0.00,-1.00,+0.00,+0.00,-3.00,+1.00,+0.00,+0.00,-1.00,+0.00,-2.00
-5.00,+7.00,+12.00,+1.00,+0.00,-1.00,-1.00,-1.00,-3.00,+7.00,-3.00,-1.00,-2.00,-2.00,-2.00,-5.00
+8.00,-3.00,-11.00,-1.00,-1.00,-1.00,+7.00,-4.00,-2.00,+2.00,-1.00,-1.00,-2.00,-2.00,-1.00,+0.00
+6.00,-1.00,+5.00,+0.00,+1.00,+0.00,-1.00,-9.00,+4.00,-1.00,-1.00,-2.00,-1.00,-1.00,-1.00,+5.00
-19.00,-5.00,-5.00,-2.00,-1.00,-1.00,+1.00,+6.00,-3.00,-10.00,+0.00,-1.00,-3.00,-1.00,-3.00,-3.00
+16.00,+5.00,-2.00,+0.00,+1.00,+1.00,+0.00,+2.00,+2.00,+5.00,-3.00,+0.00,+1.00,-1.00,+0.00,+1.00
