+0.00,-26.00,-4.00,-1.00,+6.00,-1.00,+0.00,+15.00,+13.00,+5.00,+0.00,-3.00,-6.00,-2.00,-1.00,-2.00
-33.00,+5.00,-3.00,+0.00,+2.00,+2.00,-1.00,+0.00,-31.00,-4.00,+1.00,+1.00,+5.00,+1.00,+3.00,+3.00
+5.00,+9.00,-1.00,-1.00,-3.00,-2.00,+2.00,-4.00,-1.00,-6.00,-2.00,-1.00,+5.00,-2.00,+1.00,+1.00
+7.00,+6.00,+0.00,-2.00,-2.00,-2.00,+0.00,-2.00,-1.00,+3.00,+2.00,-6.00,-5.00,+0.00,-1.00,-1.00
+5.00,+23.00,+0.00,+1.00,-3.00,-3.00,-2.00,-5.00,+50.00,+4.00,+0.00,+4.00,+2.00,-2.00,-2.00,+3.00
+2.00,-1.00,-3.00,-1.00,-2.00,-2.00,+0.00,-8.00,+8.00,-6.00,-4.00,-7.00,-15.00,-2.00,-2.00,-2.00
-21.00,-59.00,-7.00,-1.00,+1.00,-3.00,-3.00,+2.00,-13.00,+9.00,+3.00,+0.00,-2.00,+0.00,+1.00,-2.00
+19.00,+80.00,+6.00,+2.00,+0.00,+4.00,+0.00,+7.00,-35.00,-4.00,-3.00,+7.00,+2.00,+0.00,+2.00,-5.00
-6.00,-21.00,-3.00,-1.00,-3.00,-1.00,+0.00,-7.00,-6.00,+0.00,+0.00,-10.00,-4.00,-1.00,+1.00,-2.00
+7.00,-5.00,-8.00,-3.00,-3.00,-1.00,-4.00,+2.00,+17.00,+2.00,-3.00,-3.00,-1.00,-3.00,-3.00,-4.00
+0.00,+4.00,+7.00,+1.00,-1.00,+3.00,+2.00,+3.00,+0.00,-1.00,-5.00,+9.00,+0.00,-1.00,-1.00,-4.00
-10.00,-32.00,-1.00,+0.00,-5.00,-4.00,-2.00,+3.00,-28.00,-27.00,+1.00,-21.00,-5.00,+2.00,-3.00,-2.00
-4.00,-1.00,-2.00,+1.00,+2.00,+1.00,-1.00,-9.00,+27.00,+31.00,-2.00,+7.00,+6.00,-2.00,+0.00,+3.00
-4.00,-29.00,-6.00,-2.00,-8.00,-4.00,-3.00,-9.00,-22.00,-21.00,+0.00,+22.00,+21.00,-3.00,-5.00,-8.00
-18.00,-50.00,-2.00,-1.00,-7.00,+4.00,-3.00,-6.00,-15.00,+6.00,+0.00,-7.00,-25.00,-2.00,+0.00,+0.00
+54.00,+107.00,+7.00,+3.00,+16.00,+5.00,+4.00,+11.00,-9.00,-3.00,+2.00,-4.00,-1.00,-4.00,+0.00,+3.00
-20.00,+8.00,+4.00,-3.00,-17.00,-6.00,-2.00,-3.00,-14.00,-1.00,+1.00,-15.00,-2.00,+4.00,-1.00,-2.00
+25.00,-53.00,-2.00,+2.00,+16.00,+6.00,+0.00,+1.00,-8.00,+3.00,-3.00,-7.00,+1.00,-2.00,+0.00,-4.00
-6.00,-13.00,-6.00,+0.00,+8.00,-3.00,-3.00,-5.00,+31.00,+7.00,-2.00,+4.00,-5.00,-3.00,-1.00,-1.00
-26.00,-3.00,-1.00,-4.00,-13.00,-4.00,+6.00,+0.00,+13.00,-3.00,-1.00,+20.00,-4.00,+1.00,-3.00,+1.00
+15.00,-26.00,-3.00,-1.00,+16.00,+1.00,-19.00,-8.00,-33.00,-8.00,-1.00,-4.00,-1.00,+0.00,+1.00,-2.00
-4.00,+47.00,+0.00,-2.00,-21.00,-12.00,+0.00,+2.00,+1.00,+4.00,+0.00,-2.00,-4.00,-2.00,-4.00,+2.00
+26.00,-5.00,+1.00,-2.00,-11.00,+2.00,-2.00,-14.00,-15.00,-7.00,-3.00,-12.00,+16.00,+1.00,-2.00,-6.00
-7.00,+26.00,+4.00,+5.00,+16.00,+7.00,+3.00,+1.00,+23.00,+11.00,+2.00,-5.00,-11.00,-2.00,+0.00,+8.00
+4.00,-1.00,-3.00,+1.00,+10.00,+2.00,+2.00,-2.00,+16.00,-8.00,-3.00,+8.00,+3.00,-2.00,-3.00,-1.00
-18.00,+6.00,-4.00,-1.00,+3.00,-9.00,-5.00,-5.00,+15.00,-7.00,-1.00,+3.00,-22.00,+1.00,-2.00,-4.00
+10.00,-13.00,-2.00,+0.00,-4.00,+9.00,+2.00,+0.00,-51.00,+12.00,-1.00,-11.00,+23.00,-1.00,-2.00,-5.00
-12.00,-32.00,-7.00,-6.00,-14.00,+0.00,-4.00,-9.00,+7.00,+9.00,+0.00,+14.00,+4.00,-1.00,-3.00,-6.00
+8.00,+31.00,+3.00,-5.00,-15.00,-2.00,+4.00,+1.00,-26.00,+9.00,-5.00,-15.00,+13.00,-2.00,-3.00,+4.00
-21.00,-42.00,+1.00,-1.00,-10.00,+5.00,-11.00,+2.00,+0.00,-27.00,-4.00,-1.00,+11.00,+0.00,+1.00,+4.00
+11.00,+40.00,+4.00,+0.00,+13.00,-4.00,+13.00,+11.00,-23.00,+0.00,-1.00,-5.00,-19.00,+2.00,-1.00,-5.00
-3.00,-49.00,-4.00,-1.00,-6.00,-5.00,-5.00,-4.00,-12.00,-31.00,-8.00,+4.00,+1.00,-2.00,-1.00,-2.00
-5.00,+20.00,+5.00,+2.00,-1.00,+0.00,+1.00,-28.00,+74.00,+48.00,+5.00,+10.00,-17.00,-2.00,+0.00,+1.00
+28.00,+25.00,-7.00,-4.00,-1.00,-2.00,+0.00,-6.00,-37.00,+15.00,+2.00,-24.00,+6.00,-2.00,-2.00,-4.00
+6.00,+55.00,+1.00,-3.00,-7.00,-5.00,-6.00,-8.00,+11.00,+10.00,+4.00,-6.00,-11.00,-3.00,+1.00,-2.00
-23.00,-57.00,-7.00,-1.00,+2.00,-3.00,-4.00,-3.00,+0.00,-14.00,-3.00,+15.00,+1.00,-3.00,-3.00,-4.00
+6.00,-1.00,-4.00,-1.00,+10.00,+2.00,+1.00,+3.00,-5.00,-29.00,-4.00,-30.00,-15.00,-3.00,-1.00,-3.00
-4.00,-58.00,+3.00,+2.00,-7.00,+0.00,+5.00,-1.00,+5.00,+4.00,-1.00,+3.00,-5.00,-1.00,-2.00,-4.00
+19.00,+45.00,+8.00,+0.00,+5.00,+2.00,-1.00,+5.00,+25.00,-2.00,-1.00,+2.00,+15.00,-1.00,-2.00,-1.00
-15.00,-19.00,-1.00,-2.00,-15.00,-8.00,-2.00,-4.00,-3.00,+4.00,-5.00,-6.00,-10.00,-1.00,-3.00,-4.00
+6.00,-19.00,-10.00,-4.00,-21.00,-7.00,-2.00,+0.00,-16.00,-13.00,-4.00,+7.00,+5.00,+1.00,-2.00,-3.00
-20.00,-12.00,-12.00,-6.00,-6.00,+3.00,-1.00,-1.00,+11.00,+11.00,+1.00,+4.00,+3.00,+0.00,-1.00,+1.00
+4.00,-77.00,+10.00,+10.00,+56.00,+10.00,+3.00,+5.00,+0.00,-24.00,-6.00,-1.00,-15.00,+0.00,-4.00,+2.00
+24.00,-3.00,+1.00,+3.00,+28.00,-1.00,-1.00,+15.00,+16.00,+15.00,+2.00,-7.00,+3.00,+0.00,+0.00,+2.00
-10.00,-19.00,+1.00,-6.00,-24.00,-4.00,+0.00,-7.00,-61.00,-17.00,-1.00,+9.00,+1.00,-1.00,+1.00,-3.00
+6.00,+2.00,-1.00,+4.00,+26.00,+3.00,+3.00,+7.00,+13.00,+0.00,+0.00,-5.00,-4.00,+0.00,+0.00,+6.00
-21.00,+27.00,-6.00,-6.00,-22.00,-5.00,-5.00,-9.00,+28.00,-11.00,-6.00,+4.00,-1.00,-2.00,-2.00,+1.00
+1.00,+33.00,-3.00,-2.00,-7.00,-4.00,+1.00,-3.00,+13.00,-2.00,-1.00,-6.00,+5.00,-1.00,-2.00,+1.00
-7.00,-33.00,-2.00,-1.00,+9.00,+0.00,-1.00,-12.00,-45.00,-1.00,+2.00,+4.00,+0.00,-1.00,+1.00,-5.00
-5.00,+39.00,+5.00,-4.00,-15.00,-1.00,+1.00,+18.00,+28.00,+9.00,+4.00,+3.00,-3.00,-1.00,-1.00,+1.00
-6.00,-3.00,-6.00,-4.00,-15.00,-4.00,-4.00,+9.00,+41.00,-4.00,-4.00,+0.00,+2.00,+1.00,-1.00,+4.00
-13.00,-14.00,-1.00,-2.00,-1.00,-1.00,-1.00,-4.00,+0.00,-11.00,-3.00,-3.00,-2.00,+1.00,+3.00,-1.00
-10.00,-37.00,-4.00,-2.00,-8.00,+0.00,-1.00,+5.00,-42.00,-13.00,-4.00,+1.00,+2.00,-2.00,-3.00,-2.00
+28.00,+108.00,+18.00,+3.00,+4.00,-2.00,-1.00,-2.00,-5.00,-6.00,-7.00,-1.00,-3.00,-1.00,-2.00,-1.00
-22.00,-19.00,-12.00,-5.00,-3.00,-1.00,-1.00,-2.00,+15.00,+14.00,+6.00,-1.00,-8.00,+0.00,-2.00,-2.00
+3.00,-34.00,-3.00,-2.00,-6.00,+0.00,-3.00,-1.00,+24.00,+18.00,+3.00,-9.00,+17.00,-3.00,-2.00,+5.00
-9.00,+22.00,+3.00,+3.00,+8.00,+3.00,+0.00,+5.00,+0.00,-22.00,-4.00,+5.00,+31.00,+0.00,-4.00,-2.00
+6.00,-37.00,+9.00,+3.00,+8.00,+3.00,+5.00,+2.00,-3.00,-6.00,-3.00,+29.00,-8.00,+3.00,+2.00,-2.00
-36.00,-62.00,-25.00,-6.00,-9.00,-9.00,-8.00,-15.00,-21.00,-1.00,+7.00,-12.00,-22.00,-2.00,+1.00,-4.00
+9.00,+69.00,+8.00,+1.00,-1.00,+1.00,+1.00,+1.00,-23.00,+1.00,-1.00,+8.00,-14.00,+11.00,-1.00,-4.00
+19.00,-82.00,+19.00,+4.00,+10.00,+10.00,+4.00,+14.00,+12.00,+5.00,+1.00,-27.00,-39.00,-8.00,-14.00,-4.00
-4.00,-55.00,-5.00,-1.00,-1.00,-4.00,-1.00,-9.00,-5.00,+2.00,-4.00,-22.00,+70.00,+4.00,+20.00,-1.00
-15.00,+49.00,+6.00,-1.00,-15.00,-2.00,-1.00,+3.00,-28.00,-16.00,-6.00,+8.00,-25.00,-11.00,+1.00,-2.00
-3.00,-56.00,-14.00,-4.00,+3.00,-2.00,-4.00,-9.00,-3.00,+7.00,+4.00,+6.00,+52.00,+14.00,-2.00,+0.00
-16.00,+17.00,-11.00,-3.00,+4.00,+3.00,-3.00,-2.00,+20.00,-2.00,-3.00,-1.00,-35.00,+26.00,-7.00,+2.00
+1.00,+12.00,+5.00,-1.00,-1.00,+2.00,-3.00,-5.00,+14.00,+0.00,-3.00,+5.00,+3.00,-52.00,+28.00,+1.00
+20.00,+66.00,+8.00,+0.00,-10.00,-10.00,-1.00,+4.00,-18.00,-2.00,-1.00,+4.00,+20.00,+9.00,-43.00,-9.00
+0.00,+30.00,-2.00,-2.00,-69.00,-12.00,-3.00,+0.00,+2.00,+1.00,+1.00,-6.00,-24.00,-35.00,-11.00,-12.00
+12.00,+13.00,+2.00,+7.00,+75.00,+2.00,+2.00,+9.00,+13.00,+0.00,-1.00,+15.00,+23.00,+46.00,-12.00,+6.00
-4.00,+4.00,-3.00,-3.00,-36.00,-2.00,-4.00,-9.00,-26.00,+4.00,+0.00,-14.00,-22.00,-16.00,-2.00,+2.00
-10.00,-35.00,-3.00,+1.00,+16.00,+13.00,-5.00,-4.00,+18.00,-6.00,-2.00,+12.00,+99.00,+34.00,+24.00,+0.00
+3.00,-6.00,+3.00,-3.00,+1.00,-16.00,-1.00,-5.00,-11.00,-2.00,-1.00,-8.00,-74.00,-38.00,+5.00,-8.00
+2.00,+32.00,+3.00,-1.00,-16.00,+7.00,+2.00,+4.00,+6.00,+0.00,+2.00,+0.00,+17.00,+20.00,+3.00,-12.00
+3.00,-35.00,-10.00,-5.00,-9.00,-77.00,-25.00,-16.00,-1.00,-4.00,+0.00,+12.00,-11.00,-2.00,+3.00,+7.00
-4.00,+10.00,-3.00,-8.00,-18.00,-100.00,-29.00,-10.00,+2.00,+7.00,+1.00,-14.00,-43.00,+9.00,-10.00,+3.00
-6.00,+3.00,+4.00,+5.00,+14.00,+95.00,+67.00,+45.00,-6.00,-2.00,-3.00,-12.00,+31.00,+27.00,-2.00,-4.00
-2.00,-9.00,-5.00,-2.00,+0.00,+43.00,+9.00,-18.00,+7.00,-1.00,-3.00,-3.00,-25.00,-21.00,+12.00,+6.00
+4.00,+26.00,+3.00,+0.00,+6.00,+56.00,-1.00,+26.00,+2.00,+5.00,+1.00,-12.00,-23.00,-27.00,-8.00,-3.00
+52.00,-1.00,+3.00,+2.00,+18.00,+0.00,+27.00,+6.00,-13.00,-7.00,-6.00,+11.00,+8.00,+14.00,-13.00,-7.00
-14.00,-6.00,-1.00,-4.00,+0.00,-69.00,-40.00,-25.00,-3.00,-4.00,-5.00,-20.00,-8.00,-16.00,+27.00,+9.00
-12.00,+0.00,-4.00,-2.00,-3.00,-74.00,+3.00,+1.00,-8.00,-8.00,-3.00,+15.00,-55.00,-33.00,+18.00,+5.00
-3.00,+5.00,-1.00,-4.00,-1.00,+45.00,+15.00,+12.00,-7.00,+6.00,+11.00,+20.00,-26.00,+6.00,-48.00,-16.00
-5.00,+1.00,+1.00,+1.00,-35.00,-41.00,-13.00,+1.00,+31.00,-3.00,-3.00,-37.00,+6.00,-21.00,+8.00,+27.00
-17.00,-21.00,-4.00,+1.00,-3.00,+22.00,-10.00,-3.00,+1.00,+0.00,-3.00,+17.00,+1.00,+49.00,-13.00,+0.00
-15.00,+11.00,-5.00,+0.00,+10.00,+21.00,-5.00,-7.00,+10.00,+2.00,+5.00,+24.00,+101.00,-48.00,-27.00,-12.00
-9.00,+6.00,-4.00,-5.00,-35.00,-49.00,-14.00,-18.00,-7.00,-9.00,-8.00,-39.00,-51.00,+51.00,+40.00,+8.00
-7.00,-12.00,-1.00,+1.00,+14.00,-5.00,-2.00,+0.00,+20.00,+12.00,+2.00,-10.00,-40.00,+11.00,-36.00,-6.00
-13.00,+5.00,-3.00,-8.00,-39.00,-86.00,-13.00,+25.00,-49.00,-20.00,-7.00,-17.00,+25.00,+28.00,+21.00,-2.00
+6.00,+4.00,+1.00,+0.00,-1.00,-68.00,-58.00,-3.00,-9.00,-2.00,+2.00,+40.00,-66.00,-14.00,-17.00,+1.00
-32.00,+1.00,+2.00,+5.00,+45.00,+79.00,+45.00,-5.00,+10.00,+6.00,-1.00,-16.00,-20.00,+27.00,+8.00,-9.00
-1.00,-15.00,-5.00,-9.00,-62.00,+17.00,+28.00,-18.00,-13.00,-10.00,-8.00,-1.00,+30.00,-8.00,-2.00,-33.00
+39.00,+19.00,+8.00,+11.00,+75.00,-33.00,-11.00,+53.00,+7.00,+1.00,-1.00,+4.00,-14.00,-40.00,-19.00,+7.00
+7.00,+8.00,-1.00,+0.00,-3.00,+77.00,+14.00,-2.00,+13.00,+9.00,+2.00,-4.00,+56.00,-25.00,-50.00,+5.00
+6.00,-7.00,+0.00,-3.00,-19.00,-65.00,-6.00,+22.00,+4.00,+2.00,+2.00,+20.00,-54.00,-24.00,+19.00,+19.00
-13.00,+0.00,+1.00,+8.00,+66.00,-4.00,-79.00,-30.00,-5.00,+4.00,+3.00,-6.00,+22.00,+4.00,-22.00,-9.00
+1.00,-34.00,-3.00,-1.00,+4.00,-43.00,+17.00,-29.00,+18.00,+0.00,-2.00,+65.00,+68.00,+8.00,+5.00,+22.00
-1.00,+71.00,-2.00,-3.00,+12.00,-19.00,+4.00,-28.00,-31.00,-14.00,-6.00,-59.00,-32.00,-1.00,+23.00,-20.00
+9.00,+0.00,-1.00,-6.00,-30.00,-45.00,-10.00,+21.00,-9.00,-7.00,+3.00,-15.00,-32.00,+9.00,-18.00,-9.00
+0.00,+0.00,-1.00,-2.00,+17.00,+107.00,+1.00,+11.00,-5.00,+0.00,-3.00,+8.00,-45.00,-30.00,+40.00,-18.00
-16.00,-11.00,-3.00,-2.00,-22.00,-82.00,-36.00,-49.00,-12.00,-2.00,+0.00,-27.00,-23.00,+20.00,+4.00,-22.00
-15.00,-39.00,-2.00,-1.00,-11.00,+5.00,+35.00,-35.00,+16.00,-4.00,-5.00,-1.00,+55.00,+5.00,+1.00,+14.00
+8.00,-4.00,-3.00,-2.00,-1.00,+47.00,+59.00,+77.00,+2.00,+2.00,-3.00,+9.00,+59.00,+7.00,+2.00,-10.00
-1.00,-5.00,+3.00,-2.00,-32.00,+69.00,-5.00,+12.00,-11.00,+3.00,-1.00,+5.00,+55.00,+25.00,+20.00,-3.00
+2.00,+9.00,-2.00,+6.00,+45.00,+88.00,+22.00,-3.00,-10.00,-2.00,+3.00,+2.00,-42.00,-71.00,+22.00,+9.00
+26.00,+43.00,+5.00,-4.00,-32.00,+0.00,+6.00,+18.00,+42.00,+6.00,+3.00,-1.00,+65.00,+5.00,+2.00,+30.00
-19.00,-29.00,-4.00,-1.00,-27.00,+72.00,-19.00,-14.00,+9.00,+7.00,+3.00,+6.00,-7.00,-13.00,-43.00,-11.00
+36.00,+50.00,+12.00,+9.00,+30.00,-19.00,+11.00,+7.00,-2.00,-4.00,+0.00,+19.00,+90.00,+46.00,+10.00,+10.00
-21.00,-12.00,-6.00,-8.00,-16.00,-11.00,-23.00,-39.00,+21.00,+7.00,+3.00,+17.00,-15.00,-45.00,-35.00,+2.00
+7.00,-33.00,-3.00,+5.00,+74.00,-35.00,-16.00,-6.00,-88.00,-27.00,+1.00,-22.00,+8.00,+22.00,+46.00,-34.00
-15.00,+3.00,-10.00,-9.00,-33.00,-45.00,-5.00,-21.00,+62.00,+15.00,-8.00,+31.00,-23.00,+14.00,-1.00,+4.00
-21.00,-22.00,-9.00,-3.00,+5.00,-38.00,-1.00,+8.00,-25.00,+1.00,+4.00,-19.00,+2.00,-13.00,+5.00,+17.00
+39.00,-6.00,+1.00,-3.00,-13.00,+14.00,-4.00,-28.00,+17.00,+0.00,-2.00,-27.00,+12.00,+37.00,+8.00,+13.00
+15.00,+37.00,+1.00,-1.00,-37.00,-31.00,-9.00,-21.00,+4.00,+7.00,+1.00,+16.00,+51.00,-9.00,+5.00,+4.00
-1.00,+1.00,+1.00,+6.00,+43.00,-98.00,+12.00,+52.00,-22.00,-13.00,-5.00,-30.00,-66.00,-25.00,-21.00,-6.00
-4.00,-74.00,-4.00,+3.00,-5.00,+22.00,+39.00,+53.00,+3.00,-6.00,-4.00,+9.00,+52.00,-16.00,+1.00,+9.00
-3.00,+103.00,+6.00,-1.00,-7.00,+17.00,+18.00,+59.00,+24.00,+20.00,-3.00,+43.00,+71.00,+114.00,+64.00,-9.00
-41.00,-98.00,-2.00,-4.00,-16.00,-8.00,-17.00,+18.00,-21.00,-14.00,-11.00,-66.00,-102.00,-86.00,-68.00,+1.00
-2.00,+12.00,-1.00,+3.00,+14.00,-18.00,-11.00,-9.00,-19.00,-11.00,-8.00,-29.00,+50.00,+55.00,+25.00,+2.00
+18.00,+9.00,-1.00,-9.00,-48.00,-34.00,+7.00,-17.00,+30.00,+5.00,+1.00,-3.00,-82.00,-27.00,-5.00,+2.00
-31.00,-52.00,-5.00,-3.00,-2.00,-28.00,-10.00,+26.00,-13.00,-8.00,-3.00,-27.00,+1.00,-23.00,-24.00,+6.00
+11.00,+45.00,-2.00,+0.00,-7.00,+25.00,-8.00,+0.00,+13.00,+11.00,+5.00,+34.00,-85.00,+37.00,+10.00,-23.00
+8.00,-12.00,+2.00,+3.00,+15.00,-20.00,-7.00,-69.00,-17.00,-8.00,-2.00,-4.00,+82.00,-26.00,-3.00,+33.00
-25.00,-18.00,-7.00,+3.00,+53.00,-25.00,-45.00,-1.00,-12.00,-4.00,-1.00,+13.00,-26.00,+2.00,-9.00,+8.00
+21.00,-1.00,+3.00,-4.00,-88.00,+29.00,+48.00,-5.00,+1.00,-3.00,+5.00,+12.00,-52.00,+4.00,-19.00,-17.00
-14.00,-28.00,-7.00,-15.00,-34.00,-35.00,-14.00,-8.00,+8.00,+9.00,-3.00,+40.00,+91.00,+2.00,+16.00,-1.00
+37.00,+6.00,+10.00,+21.00,+88.00,+10.00,+6.00,-7.00,+8.00,-8.00,+2.00,-36.00,+20.00,-16.00,-11.00,-14.00
-88.00,+20.00,-3.00,+2.00,+7.00,-64.00,-18.00,-15.00,-45.00,-21.00,-4.00,+4.00,-71.00,-19.00,+19.00,+10.00
+32.00,-18.00,+1.00,+5.00,+19.00,+100.00,+0.00,-15.00,+34.00,+26.00,+0.00,+16.00,+86.00,-5.00,-51.00,+1.00
+10.00,+1.00,-1.00,-3.00,+25.00,-7.00,-13.00,+21.00,-15.00,-13.00,-1.00,-36.00,-85.00,-11.00,+45.00,+4.00
+14.00,+6.00,-2.00,-9.00,-32.00,+63.00,+3.00,-6.00,+29.00,+31.00,+4.00,+15.00,+33.00,+22.00,-22.00,+6.00
+22.00,+16.00,+8.00,+12.00,+90.00,+8.00,+24.00,-12.00,+25.00,-13.00,-5.00,-4.00,-13.00,-36.00,-10.00,-16.00
+29.00,-1.00,-6.00,-1.00,-19.00,-32.00,+3.00,-20.00,-49.00,-15.00,-1.00,-48.00,-128.00,-26.00,-13.00,-14.00
-52.00,-4.00,+0.00,-5.00,-23.00,-33.00,+21.00,+77.00,-27.00,-4.00,-1.00,+53.00,+11.00,+36.00,+3.00,-16.00
+26.00,-12.00,-5.00,+0.00,-5.00,+25.00,-21.00,-26.00,-2.00,-7.00,-3.00,+85.00,+35.00,+43.00,+7.00,-2.00
+3.00,+24.00,+0.00,-4.00,-30.00,-12.00,+11.00,-27.00,+16.00,+11.00,+8.00,+43.00,+12.00,-86.00,-69.00,-10.00
-17.00,+5.00,+2.00,-3.00,+17.00,+10.00,-24.00,+1.00,+19.00,+4.00,-4.00,-104.00,+87.00,+46.00,+69.00,+3.00
+11.00,-9.00,-1.00,+2.00,+0.00,+14.00,+2.00,+1.00,+34.00,+0.00,-4.00,-61.00,-38.00,-53.00,+7.00,+29.00
+3.00,+24.00,+0.00,+1.00,+45.00,-3.00,-107.00,-21.00,-44.00,-11.00,+2.00,+14.00,+51.00,+33.00,+17.00,-11.00
+14.00,-8.00,-8.00,-8.00,-8.00,+18.00,+52.00,+8.00,-16.00,+3.00,-1.00,-52.00,+26.00,-75.00,-3.00,-5.00
-23.00,+23.00,+4.00,-7.00,-22.00,-14.00,-6.00,-8.00,-27.00,-15.00,-2.00,-3.00,-101.00,-1.00,+4.00,-14.00
+28.00,+71.00,+11.00,+19.00,+54.00,-3.00,+0.00,-4.00,+32.00,+21.00,+4.00,+106.00,+90.00,+11.00,-49.00,-6.00
-35.00,-11.00,-5.00,-14.00,-96.00,-55.00,+0.00,-11.00,-15.00,-13.00,-7.00,-47.00,+49.00,+3.00,-20.00,-12.00
+26.00,-25.00,-7.00,-15.00,-102.00,-13.00,-17.00,-19.00,-3.00,+1.00,+3.00,+89.00,-30.00,+85.00,+34.00,+3.00
-27.00,-38.00,-6.00,-13.00,-17.00,+31.00,-48.00,-9.00,+11.00,-4.00,-7.00,-73.00,+87.00,-51.00,-16.00,-4.00
+11.00,-16.00,+3.00,+27.00,+66.00,-34.00,-20.00,+7.00,-54.00,-19.00,+2.00,+70.00,-128.00,+9.00,-39.00,-13.00
+25.00,+12.00,+1.00,+5.00,-4.00,+62.00,+2.00,-17.00,+57.00,+34.00,+11.00,+115.00,-116.00,-49.00,+70.00,+11.00
+29.00,+5.00,+1.00,-1.00,-59.00,+20.00,-53.00,+15.00,-53.00,-37.00,-18.00,-90.00,+77.00,+87.00,-21.00,-12.00
+20.00,-1.00,-1.00,+7.00,+44.00,-22.00,+65.00,-1.00,-8.00,+0.00,+11.00,+56.00,+18.00,+78.00,-68.00,+21.00
-61.00,-23.00,-7.00,-5.00,+26.00,-9.00,-3.00,-24.00,-9.00,-2.00,-7.00,-73.00,-47.00,+77.00,+24.00,+1.00
+8.00,+19.00,+1.00,-11.00,-51.00,+4.00,+27.00,+20.00,-19.00,+0.00,-1.00,+46.00,-1.00,-59.00,-18.00,-4.00
+9.00,-24.00,+3.00,+7.00,+37.00,-11.00,-2.00,-7.00,+49.00,+17.00,+9.00,-13.00,+59.00,-6.00,+98.00,+15.00
-28.00,+2.00,-2.00,-5.00,-19.00,+29.00,-17.00,-16.00,-29.00,+11.00,+13.00,+126.00,+14.00,+29.00,-3.00,-17.00
+12.00,-24.00,+6.00,+10.00,+9.00,-9.00,-13.00,-10.00,-13.00,-8.00,-9.00,-82.00,-26.00,-21.00,-24.00,-17.00
+0.00,+9.00,-3.00,+1.00,+29.00,+34.00,+38.00,+14.00,+4.00,-24.00,-12.00,-8.00,+96.00,-20.00,-17.00,-5.00
-59.00,-59.00,-9.00,-37.00,-128.00,-28.00,+15.00,-14.00,+22.00,+24.00,+6.00,-6.00,-128.00,-26.00,-15.00,+10.00
+42.00,+98.00,+15.00,+24.00,+109.00,-13.00,+27.00,+40.00,+26.00,-9.00,-10.00,+70.00,+2.00,-69.00,-13.00,+0.00
+1.00,-22.00,-5.00,-10.00,+29.00,-4.00,+2.00,-1.00,+11.00,+23.00,+16.00,+90.00,+51.00,+79.00,-18.00,-9.00
-60.00,+21.00,+0.00,+12.00,+86.00,-7.00,+53.00,-18.00,-32.00,-15.00,+0.00,-44.00,-106.00,-49.00,+6.00,-17.00
+0.00,-12.00,+0.00,+4.00,+40.00,+32.00,-4.00,-4.00,-1.00,+6.00,-8.00,-5.00,-107.00,-1.00,-21.00,-11.00
-17.00,-23.00,-5.00,-1.00,-59.00,-37.00,+12.00,-3.00,-37.00,-38.00,-16.00,-73.00,+19.00,-90.00,+9.00,-5.00
+62.00,-34.00,-11.00,-47.00,-128.00,-26.00,-11.00,-6.00,+35.00,+18.00,+3.00,+11.00,+127.00,+53.00,+17.00,+23.00
+7.00,+48.00,+10.00,+36.00,+108.00,+10.00,-4.00,+42.00,-1.00,+7.00,+5.00,-65.00,-64.00,+95.00,-29.00,+1.00
+6.00,+13.00,-3.00,+1.00,-1.00,+19.00,+4.00,+3.00,-1.00,+3.00,-2.00,-92.00,-11.00,-64.00,-7.00,+26.00
-19.00,-23.00,-5.00,+5.00,-54.00,+21.00,-3.00,+7.00,-83.00,-13.00,+8.00,+81.00,-98.00,+24.00,-4.00,-29.00
-15.00,+33.00,-3.00,+0.00,+16.00,+21.00,-14.00,-8.00,+61.00,-1.00,-9.00,+85.00,-41.00,-43.00,+74.00,+28.00
-21.00,-73.00,-10.00,-29.00,-116.00,-42.00,-12.00,-7.00,+24.00,+4.00,+1.00,+2.00,-35.00,+72.00,-84.00,+10.00
-2.00,+19.00,+3.00,-1.00,-57.00,-65.00,-7.00,+8.00,-17.00,+5.00,-3.00,-49.00,+95.00,-18.00,+61.00,-5.00
-8.00,-37.00,-8.00,-1.00,+78.00,+6.00,-38.00,-21.00,+14.00,-3.00,-8.00,-95.00,-42.00,+29.00,+44.00,-1.00
+8.00,+62.00,+1.00,+20.00,+59.00,+27.00,+33.00,+17.00,-54.00,-16.00,-1.00,+39.00,+21.00,-113.00,-20.00,-32.00
+14.00,+22.00,+3.00,-10.00,-50.00,-48.00,+51.00,+5.00,+15.00,-7.00,+3.00,-50.00,-99.00,-30.00,+36.00,-3.00
+9.00,+29.00,+10.00,+25.00,+34.00,+54.00,+27.00,+20.00,+15.00,+7.00,+12.00,+89.00,-58.00,+35.00,-100.00,+1.00
+0.00,-27.00,-2.00,+4.00,-8.00,-95.00,-25.00,-6.00,+3.00,-2.00,+1.00,+83.00,+75.00,+67.00,+13.00,+3.00
+8.00,-37.00,-9.00,-24.00,-97.00,-28.00,-3.00,-24.00,-6.00,-8.00,+3.00,+30.00,-94.00,+72.00,-68.00,+3.00
-27.00,-24.00,-12.00,-1.00,+88.00,-44.00,-82.00,-39.00,-28.00,-2.00,-9.00,-119.00,+110.00,+79.00,-30.00,-47.00
-10.00,+58.00,+19.00,+24.00,+84.00,-15.00,+28.00,+3.00,-23.00,-11.00,-2.00,+127.00,+25.00,+22.00,+33.00,+10.00
+46.00,-23.00,+0.00,-8.00,-47.00,+67.00,+13.00,+18.00,+58.00,+21.00,+7.00,-107.00,-59.00,-78.00,-11.00,+33.00
-28.00,+10.00,+10.00,+32.00,+42.00,-6.00,+50.00,+11.00,+3.00,+0.00,-3.00,+7.00,-58.00,-54.00,+59.00,-2.00
+21.00,-23.00,-8.00,-15.00,-25.00,+30.00,-99.00,+2.00,-14.00,-18.00,-18.00,-67.00,+102.00,+87.00,-26.00,+9.00
+33.00,+25.00,-3.00,-19.00,-45.00,+29.00,+29.00,-1.00,-45.00,-7.00,-9.00,+6.00,-32.00,-49.00,+72.00,-10.00
-24.00,-35.00,-7.00,-40.00,-78.00,-41.00,-51.00,-31.00,+4.00,-12.00,-9.00,+73.00,+44.00,+56.00,-26.00,-3.00
-5.00,+42.00,-2.00,-1.00,-25.00,+52.00,+40.00,-4.00,+45.00,+29.00,+9.00,-109.00,+4.00,-74.00,-45.00,+17.00
-38.00,-34.00,-1.00,-15.00,-106.00,-71.00,-46.00,-5.00,-13.00,-32.00,-10.00,+62.00,+3.00,-76.00,-94.00,-24.00
+40.00,-18.00,-5.00,+21.00,+79.00,+37.00,+82.00,+3.00,+50.00,+29.00,+0.00,+40.00,-49.00,+95.00,+11.00,-1.00
-8.00,+0.00,-6.00,-20.00,+13.00,+44.00,+0.00,+18.00,-38.00,-3.00,-4.00,-65.00,+6.00,+45.00,+35.00,-9.00
+19.00,-2.00,+5.00,+2.00,-10.00,+52.00,-53.00,+33.00,-26.00,-12.00,-1.00,-106.00,+35.00,-42.00,+64.00,-1.00
+13.00,-2.00,-1.00,+1.00,-48.00,+9.00,-5.00,-14.00,+16.00,-2.00,-2.00,+13.00,-34.00,+2.00,-28.00,+8.00
-15.00,-1.00,-7.00,-1.00,+45.00,+14.00,+43.00,-21.00,-41.00,-26.00,-8.00,-54.00,+21.00,-23.00,+4.00,-15.00
+13.00,+23.00,+12.00,+37.00,+102.00,+2.00,+39.00,+38.00,+38.00,+12.00,+6.00,+59.00,-61.00,+76.00,-112.00,-3.00
+23.00,-28.00,+3.00,-2.00,+19.00,-31.00,+30.00,+8.00,-18.00,+2.00,+4.00,+38.00,-91.00,+50.00,+16.00,-19.00
-51.00,-24.00,-3.00,-11.00,-33.00,+98.00,+40.00,+4.00,-16.00,-3.00,-1.00,+69.00,+79.00,-128.00,-2.00,+0.00
-9.00,+6.00,-1.00,-5.00,+28.00,-75.00,+46.00,-17.00,+6.00,-26.00,-1.00,+23.00,-30.00,+48.00,+80.00,+4.00
+75.00,+27.00,-5.00,-4.00,+90.00,+74.00,+108.00,-3.00,+43.00,+18.00,-18.00,-43.00,+11.00,-55.00,+51.00,+19.00
-7.00,+25.00,+10.00,+30.00,+35.00,-41.00,-5.00,+9.00,+32.00,+1.00,+6.00,+21.00,+127.00,+56.00,+58.00,+20.00
+41.00,+33.00,+13.00,+9.00,-56.00,-69.00,+0.00,+17.00,-27.00,+11.00,+0.00,+27.00,-90.00,-109.00,+76.00,+18.00
-27.00,-16.00,-6.00,-4.00,-32.00,+60.00,-67.00,-1.00,+7.00,+3.00,+19.00,+127.00,+35.00,+51.00,-83.00,+5.00
-29.00,-6.00,+3.00,+9.00,-34.00,-27.00,+19.00,-10.00,-7.00,-14.00,-1.00,-104.00,+25.00,-93.00,-4.00,+8.00
-2.00,-25.00,-10.00,-26.00,-128.00,-21.00,+37.00,-20.00,+15.00,+4.00,-1.00,+20.00,-44.00,-38.00,+16.00,+11.00
-29.00,-6.00,-3.00,-2.00,+51.00,-25.00,-45.00,-22.00,+22.00,+15.00,+21.00,+77.00,+94.00,-9.00,-44.00,+9.00
-29.00,-32.00,-12.00,-19.00,-89.00,-4.00,-38.00,+4.00,+17.00,+3.00,+2.00,+64.00,+83.00,+73.00,-74.00,+0.00
-10.00,+4.00,-1.00,-5.00,-2.00,+1.00,+60.00,-5.00,-60.00,-14.00,-11.00,+87.00,+15.00,+47.00,+6.00,-19.00
-31.00,-25.00,+2.00,+15.00,+94.00,+31.00,+7.00,-2.00,+48.00,-5.00,-7.00,-83.00,-87.00,-99.00,-75.00,+1.00
+40.00,-9.00,+1.00,-14.00,-52.00,-85.00,+54.00,-15.00,-29.00,+1.00,-12.00,-125.00,+21.00,+25.00,+71.00,-10.00
-28.00,+4.00,-2.00,+24.00,+55.00,+52.00,+11.00,-8.00,-46.00,-6.00,-3.00,-27.00,+112.00,+90.00,-61.00,-18.00
-31.00,-1.00,-10.00,-44.00,-128.00,+33.00,-3.00,-6.00,+67.00,+15.00,+12.00,+116.00,+32.00,-122.00,+99.00,+28.00
-4.00,-5.00,-6.00,-10.00,+72.00,-35.00,-14.00,+14.00,-80.00,-32.00,-13.00,+7.00,-84.00,-18.00,-41.00,-15.00
+22.00,+12.00,-4.00,+3.00,+94.00,+35.00,-24.00,-29.00,+41.00,+18.00,+1.00,-43.00,-71.00,+18.00,+89.00,+9.00
+22.00,-12.00,-9.00,-20.00,-79.00,-54.00,-40.00,+7.00,-8.00,-24.00,-10.00,-41.00,+35.00,-72.00,+91.00,-2.00
-27.00,+28.00,-4.00,-19.00,-89.00,-109.00,-84.00,-1.00,-24.00,-5.00,+4.00,-10.00,-117.00,-22.00,-74.00,-19.00
+0.00,-25.00,-3.00,+10.00,+38.00,+89.00,+56.00,-25.00,-29.00,-11.00,-11.00,+80.00,+103.00,-2.00,+92.00,-16.00
+58.00,+15.00,+13.00,+45.00,+112.00,+86.00,+90.00,+32.00,-28.00,-4.00,+2.00,+67.00,-85.00,-21.00,+45.00,+41.00
+33.00,-7.00,+11.00,+24.00,+83.00,+27.00,-15.00,+11.00,+38.00,+20.00,-8.00,-113.00,-35.00,-69.00,+86.00,+10.00
-15.00,+6.00,+1.00,+11.00,-86.00,+3.00,-32.00,-7.00,+5.00,+10.00,+6.00,+0.00,-35.00,+86.00,-10.00,+1.00
+4.00,+0.00,+6.00,-22.00,-128.00,-77.00,-57.00,+4.00,-30.00,-16.00,-3.00,-63.00,+81.00,+93.00,+4.00,-4.00
-18.00,+30.00,+4.00,+15.00,+76.00,+23.00,+65.00,+8.00,+47.00,+23.00,+7.00,+16.00,-60.00,+34.00,+20.00,-12.00
-18.00,+6.00,-1.00,-4.00,-83.00,-78.00,-40.00,-9.00,-30.00,-13.00,+3.00,+49.00,-19.00,+31.00,+16.00,-4.00
-8.00,-12.00,+2.00,+7.00,-29.00,+31.00,+2.00,+19.00,+5.00,+11.00,+3.00,-33.00,+6.00,-48.00,-58.00,+6.00
-21.00,-42.00,-5.00,-3.00,+8.00,-8.00,+28.00,-9.00,+4.00,+9.00,+15.00,+43.00,+6.00,+52.00,-4.00,+31.00
+11.00,+22.00,-7.00,-5.00,-48.00,+1.00,-21.00,-6.00,-16.00,-13.00,-13.00,+42.00,+21.00,-65.00,+10.00,-17.00
+58.00,+33.00,+14.00,+23.00,+74.00,-17.00,-78.00,+20.00,+17.00,+2.00,-10.00,-57.00,-128.00,+61.00,-128.00,+0.00
+1.00,-51.00,+0.00,+20.00,+127.00,+12.00,-111.00,-21.00,-21.00,-25.00,-5.00,-45.00,+66.00,-75.00,-14.00,+24.00
+3.00,+24.00,-1.00,-1.00,-23.00,+3.00,-29.00,-4.00,-15.00,-9.00,+3.00,+101.00,-60.00,-34.00,+15.00,-22.00
+11.00,-29.00,-7.00,-16.00,-92.00,+6.00,+31.00,+10.00,-3.00,-9.00,-5.00,-73.00,+42.00,+14.00,+48.00,-1.00
-40.00,-17.00,-6.00,-24.00,-101.00,-33.00,+13.00,-11.00,+26.00,+21.00,-3.00,-35.00,-11.00,-50.00,-55.00,-8.00
+6.00,-24.00,-7.00,-2.00,-33.00,-34.00,-65.00,-23.00,-42.00,-13.00,-1.00,+39.00,-75.00,+1.00,+62.00,-12.00
-32.00,+1.00,-1.00,-2.00,-15.00,-38.00,-40.00,-6.00,+60.00,+29.00,+6.00,+22.00,+51.00,+22.00,+50.00,+14.00
+26.00,-51.00,-11.00,-56.00,-114.00,+54.00,-19.00,-17.00,-4.00,-5.00,+4.00,+2.00,+8.00,+54.00,+22.00,-14.00
-69.00,-26.00,-11.00,+11.00,+98.00,-62.00,-43.00,-4.00,+17.00,+5.00,+1.00,-19.00,+38.00,-118.00,+70.00,-17.00
+40.00,+27.00,+5.00,+21.00,+127.00,+26.00,+17.00,+2.00,-74.00,-31.00,-19.00,+25.00,+10.00,+27.00,+38.00,-31.00
+27.00,+64.00,+15.00,+1.00,-42.00,-65.00,+3.00,-20.00,+42.00,+7.00,-13.00,-128.00,-71.00,-45.00,-91.00,+13.00
-6.00,+17.00,+5.00,+2.00,-41.00,-13.00,-27.00,+43.00,+5.00,+7.00,-10.00,-46.00,+62.00,-67.00,+14.00,-16.00
+26.00,-2.00,-12.00,-23.00,-128.00,+1.00,-5.00,+1.00,-37.00,-21.00,+5.00,+8.00,+27.00,-74.00,+60.00,+44.00
-45.00,-49.00,-4.00,-9.00,-31.00,-28.00,-24.00,+5.00,+24.00,+20.00,+0.00,+45.00,+30.00,+40.00,-75.00,-13.00
+33.00,+2.00,-15.00,-2.00,-51.00,+4.00,-8.00,+1.00,-23.00,-13.00,-3.00,+36.00,-93.00,-59.00,+19.00,-9.00
-25.00,+4.00,+0.00,-12.00,-93.00,-40.00,-59.00,-13.00,-21.00,-7.00,-5.00,+56.00,+19.00,+38.00,-66.00,-12.00
+38.00,-11.00,+4.00,-8.00,+59.00,+67.00,-43.00,+5.00,+42.00,+4.00,-12.00,-63.00,-35.00,-61.00,-59.00,-2.00
+18.00,+7.00,+7.00,+9.00,-97.00,-70.00,+70.00,+27.00,+6.00,+13.00,+14.00,+10.00,-38.00,+57.00,-61.00,-3.00
+21.00,-23.00,-15.00,-22.00,+18.00,+28.00,+29.00,-15.00,-18.00,+1.00,-4.00,-70.00,-12.00,+22.00,-11.00,-9.00
-37.00,+17.00,+13.00,+48.00,+54.00,-76.00,+95.00,+32.00,-49.00,-15.00,+12.00,+127.00,-74.00,+75.00,-19.00,+1.00
+3.00,-15.00,+5.00,-5.00,+23.00,+29.00,+70.00,+12.00,+7.00,-7.00,-9.00,-6.00,+31.00,+108.00,+28.00,-2.00
+3.00,+11.00,-5.00,+1.00,+95.00,+14.00,-52.00,-8.00,+56.00,+10.00,+3.00,+19.00,-52.00,-128.00,-28.00,+17.00
-14.00,-13.00,-1.00,-17.00,-54.00,-5.00,-59.00,-10.00,-32.00,-9.00,+2.00,-59.00,-35.00,+65.00,+57.00,-15.00
+3.00,+4.00,-5.00,+8.00,+68.00,-57.00,-22.00,+7.00,+30.00,-2.00,-8.00,-101.00,+33.00,-42.00,-32.00,-21.00
+16.00,+6.00,-3.00,-14.00,-50.00,+2.00,+47.00,-6.00,+18.00,+19.00,+24.00,+67.00,+34.00,+17.00,+38.00,+42.00
+9.00,+35.00,+6.00,+11.00,+19.00,-9.00,-4.00,+7.00,+29.00,+3.00,-16.00,-128.00,+8.00,-34.00,+18.00,+0.00
-61.00,-36.00,+2.00,+1.00,-42.00,+45.00,+94.00,+30.00,-33.00,-15.00,-9.00,+25.00,+7.00,+27.00,-39.00,-25.00
-36.00,+3.00,-8.00,-3.00,+13.00,+23.00,+4.00,-25.00,+22.00,+29.00,+19.00,+102.00,-72.00,+82.00,-5.00,+26.00
+1.00,+18.00,-5.00,-20.00,-119.00,+53.00,+24.00,-5.00,-11.00,-11.00,-10.00,-118.00,-88.00,-67.00,-70.00,-32.00
-5.00,-19.00,-4.00,-2.00,+79.00,-45.00,-48.00,-6.00,-17.00,-3.00,-1.00,+1.00,-9.00,-20.00,+0.00,+12.00
+7.00,+40.00,+11.00,+10.00,+76.00,+101.00,+55.00,+16.00,+50.00,+19.00,+7.00,+26.00,+34.00,-27.00,-39.00,+10.00
+10.00,-37.00,-3.00,-15.00,-55.00,-16.00,+10.00,-42.00,-15.00,-16.00,-7.00,+2.00,-82.00,+23.00,-91.00,-24.00
-85.00,-3.00,-3.00,-4.00,+10.00,+9.00,+67.00,-4.00,+14.00,-6.00,-5.00,+34.00,+69.00,+58.00,-89.00,-18.00
+54.00,+14.00,+0.00,-33.00,-120.00,+11.00,-19.00,-13.00,-20.00,+1.00,+4.00,-36.00,-75.00,-34.00,+58.00,+14.00
-8.00,-11.00,+6.00,+66.00,+127.00,+26.00,+41.00,+2.00,+46.00,-3.00,-15.00,-29.00,+50.00,+120.00,-46.00,-3.00
+43.00,+8.00,-1.00,-1.00,-37.00,-4.00,-56.00,-4.00,-67.00,-15.00,+1.00,-69.00,-26.00,-97.00,-4.00,+9.00
-3.00,+7.00,-2.00,-6.00,-96.00,-3.00,-51.00,+2.00,+25.00,+10.00,+1.00,+88.00,-128.00,-20.00,+9.00,-25.00
-50.00,-13.00,+0.00,-1.00,+52.00,-51.00,-14.00,-23.00,-10.00,-18.00,-5.00,+5.00,-1.00,-17.00,-16.00,-7.00
+1.00,+24.00,-3.00,-27.00,-54.00,+35.00,-19.00,+21.00,-51.00,-13.00,-6.00,-63.00,+18.00,-47.00,+51.00,+2.00
-4.00,+3.00,-2.00,-10.00,-39.00,+22.00,-3.00,-2.00,+24.00,-2.00,-6.00,+23.00,+38.00,+44.00,-4.00,-4.00
-15.00,-24.00,-3.00,+0.00,+1.00,-15.00,-10.00,-7.00,+14.00,+17.00,+7.00,-31.00,+32.00,+53.00,-74.00,+9.00
-22.00,+18.00,-4.00,+3.00,-30.00,-24.00,+74.00,+34.00,-10.00,-1.00,-4.00,-31.00,+16.00,+64.00,-66.00,-21.00
+27.00,-64.00,-5.00,+7.00,+105.00,-48.00,-109.00,-21.00,+37.00,+7.00,+8.00,+77.00,+38.00,-53.00,+76.00,+37.00
-28.00,+35.00,-1.00,-6.00,-5.00,-4.00,-24.00,-9.00,-34.00,-1.00,+1.00,-71.00,-9.00,+15.00,+36.00,+22.00
+7.00,+36.00,+17.00,+43.00,+127.00,+28.00,-76.00,+8.00,-32.00,-17.00,-4.00,+31.00,-29.00,-53.00,+55.00,+0.00
+4.00,+25.00,-5.00,-16.00,-101.00,+67.00,+34.00,-23.00,+0.00,-4.00,+0.00,+71.00,+47.00,-18.00,+89.00,-44.00
+41.00,-8.00,-4.00,+2.00,-2.00,+20.00,-89.00,-18.00,-15.00,+3.00,+4.00,-21.00,-25.00,+11.00,-10.00,+18.00
-54.00,-26.00,+3.00,+22.00,+90.00,+40.00,+15.00,-5.00,+37.00,-9.00,+1.00,-35.00,-31.00,+74.00,+22.00,-10.00
-11.00,-14.00,-4.00,-12.00,-74.00,-55.00,+16.00,-14.00,-1.00,+7.00,+24.00,+0.00,-42.00,-47.00,-15.00,+5.00
-2.00,-10.00,+1.00,+16.00,+76.00,+76.00,-14.00,+35.00,+8.00,+10.00,-13.00,+46.00,+7.00,+61.00,+23.00,-27.00
-46.00,+8.00,-2.00,-4.00,-62.00,-23.00,+85.00,-12.00,+11.00,-1.00,+1.00,+57.00,-39.00,+39.00,+21.00,+36.00
+34.00,-11.00,-4.00,-2.00,-27.00,-9.00,+15.00,+6.00,-10.00,-11.00,-13.00,+28.00,-19.00,-128.00,+5.00,+13.00
+49.00,+38.00,+3.00,+1.00,-13.00,-27.00,-25.00,+2.00,+19.00,+17.00,+11.00,-74.00,+64.00,+20.00,-47.00,-8.00
-49.00,+1.00,+0.00,+3.00,-40.00,-51.00,-31.00,+6.00,+1.00,-4.00,+8.00,+46.00,+8.00,+11.00,+4.00,+15.00
-25.00,+4.00,-6.00,-24.00,-47.00,-44.00,-39.00,+28.00,+33.00,+10.00,-8.00,+4.00,+72.00,-19.00,-11.00,+2.00
+1.00,+2.00,+0.00,+7.00,+53.00,-32.00,-8.00,+8.00,-38.00,-4.00,+0.00,-25.00,+77.00,+38.00,+56.00,-16.00
+25.00,-7.00,-3.00,-10.00,-77.00,-27.00,-59.00,-14.00,+8.00,-2.00,-9.00,-16.00,+15.00,+33.00,-20.00,+15.00
+34.00,-7.00,-1.00,+0.00,-23.00,-4.00,+47.00,+20.00,+23.00,+8.00,+3.00,-14.00,-11.00,-78.00,-25.00,-9.00
-3.00,+8.00,-5.00,-17.00,-111.00,+9.00,-15.00,-6.00,-28.00,-8.00,-7.00,-10.00,+34.00,-53.00,-79.00,-20.00
-7.00,-10.00,+2.00,+12.00,+56.00,+28.00,-43.00,-6.00,+37.00,+9.00,+9.00,+76.00,+23.00,+14.00,-62.00,+17.00
+13.00,+6.00,-1.00,-8.00,-71.00,-62.00,-78.00,-8.00,-64.00,-17.00,-11.00,-81.00,-67.00,-24.00,-8.00,-16.00
-48.00,+5.00,+5.00,+10.00,-42.00,-46.00,+46.00,-37.00,-24.00,-1.00,-1.00,+22.00,+15.00,+26.00,-45.00,-12.00
+65.00,-2.00,+3.00,-20.00,-42.00,+36.00,+6.00,+21.00,+43.00,+13.00,+1.00,-49.00,-63.00,-100.00,+11.00,+13.00
-52.00,-42.00,-16.00,-16.00,-72.00,-56.00,-14.00,-14.00,+20.00,+9.00,+7.00,+56.00,-41.00,-18.00,+5.00,-10.00
+6.00,+29.00,+3.00,+3.00,+25.00,+68.00,-14.00,-10.00,-31.00,-4.00,-2.00,+74.00,-60.00,-32.00,+95.00,+8.00
+16.00,-3.00,+2.00,+12.00,+11.00,+4.00,+39.00,-14.00,+21.00,-10.00,-3.00,-50.00,-70.00,+64.00,+29.00,+27.00
+2.00,+6.00,+5.00,-3.00,+9.00,+6.00,+28.00,+1.00,-38.00,+2.00,+1.00,+43.00,+42.00,+17.00,+73.00,-27.00
-24.00,+40.00,+4.00,+4.00,-80.00,-60.00,+53.00,+11.00,-15.00,+6.00,-6.00,-54.00,+43.00,-13.00,-14.00,-3.00
+8.00,-40.00,+4.00,+11.00,+127.00,+22.00,+71.00,-5.00,-1.00,-8.00,-6.00,+15.00,+31.00,-21.00,+21.00,-2.00
-22.00,+6.00,-2.00,+3.00,+30.00,-7.00,+18.00,-10.00,+7.00,-1.00,+9.00,-3.00,+97.00,+44.00,-68.00,+9.00
-15.00,-15.00,-4.00,-7.00,+14.00,+46.00,+37.00,-9.00,+17.00,+4.00,+7.00,-5.00,-32.00,+26.00,-8.00,-1.00
+40.00,-13.00,+0.00,-2.00,-60.00,+25.00,+5.00,-12.00,-53.00,-21.00,-3.00,+67.00,-21.00,-45.00,-18.00,-1.00
-59.00,-6.00,-3.00,+4.00,-3.00,-79.00,+15.00,+2.00,+67.00,+15.00,-7.00,-14.00,+56.00,-32.00,-13.00,+1.00
+56.00,-1.00,-4.00,+0.00,+35.00,+35.00,-65.00,-18.00,-30.00,+2.00,+4.00,+44.00,-10.00,+0.00,+4.00,+2.00
-33.00,+0.00,-3.00,+7.00,+40.00,-40.00,+90.00,+34.00,-9.00,-8.00,-1.00,-15.00,-8.00,+65.00,-25.00,-5.00
+10.00,-2.00,-3.00,-11.00,+2.00,-1.00,-28.00,+10.00,+1.00,-1.00,+3.00,+13.00,-49.00,-62.00,-35.00,-7.00
-19.00,-19.00,-7.00,+1.00,-4.00,-13.00,+46.00,+17.00,-14.00,-8.00,-3.00,+20.00,-10.00,+49.00,-66.00,+17.00
+51.00,+11.00,+6.00,-5.00,+11.00,+53.00,-32.00,+2.00,+21.00,+2.00,+2.00,-46.00,+111.00,-53.00,-7.00,+3.00
-26.00,-10.00,-8.00,-21.00,-124.00,-64.00,-12.00,-25.00,-25.00,+2.00,-2.00,-15.00,-110.00,-5.00,+8.00,+0.00
-29.00,-8.00,-2.00,+12.00,+122.00,+25.00,+5.00,+0.00,-23.00,-8.00,-11.00,-11.00,-74.00,+12.00,+37.00,+4.00
+62.00,-5.00,-9.00,-22.00,-75.00,-25.00,-5.00,+3.00,+33.00,+9.00,+1.00,+34.00,+22.00,-24.00,-62.00,-1.00
-48.00,-25.00,-3.00,+6.00,+86.00,-10.00,-18.00,-6.00,+2.00,+0.00,-4.00,-70.00,-63.00,-79.00,+66.00,+10.00
-3.00,-10.00,+8.00,+3.00,-38.00,+43.00,-6.00,+8.00,+5.00,-5.00,-3.00,+28.00,+0.00,+26.00,-47.00,-18.00
+5.00,+78.00,+6.00,+3.00,+60.00,-21.00,+14.00,+8.00,+19.00,+2.00,-1.00,-49.00,+110.00,+56.00,-26.00,+18.00
-24.00,-4.00,+2.00,-2.00,+16.00,+26.00,-16.00,+2.00,-38.00,-20.00,-14.00,-59.00,+88.00,+28.00,+22.00,-34.00
-26.00,-16.00,-10.00,-10.00,-66.00,-16.00,+11.00,-5.00,+1.00,-7.00,+0.00,-23.00,+56.00,+58.00,+12.00,+23.00
+15.00,-1.00,-2.00,+9.00,-39.00,+3.00,-35.00,-22.00,-19.00,+10.00,+1.00,+17.00,+47.00,+21.00,-74.00,-23.00
+2.00,-19.00,+0.00,+0.00,+53.00,+34.00,-16.00,+9.00,+16.00,+7.00,+1.00,+24.00,-95.00,+54.00,-44.00,+6.00
-24.00,+11.00,-2.00,-1.00,+44.00,-4.00,-12.00,+3.00,-7.00,-2.00,-5.00,-43.00,-47.00,-2.00,-59.00,-3.00
-20.00,+15.00,+7.00,+11.00,+38.00,+7.00,+17.00,+19.00,+27.00,-10.00,-6.00,-1.00,-43.00,+3.00,-23.00,-26.00
-10.00,+2.00,+1.00,+14.00,+78.00,-11.00,-2.00,-14.00,-52.00,-18.00,-3.00,+45.00,-74.00,-11.00,-22.00,-41.00
-10.00,-11.00,-4.00,-9.00,-82.00,+28.00,-56.00,-7.00,+17.00,+10.00,+8.00,+39.00,+78.00,+60.00,+24.00,+8.00
+14.00,+3.00,+4.00,+5.00,+4.00,+9.00,+68.00,+29.00,+19.00,+6.00,+4.00,+21.00,-85.00,-69.00,+67.00,+5.00
+15.00,+15.00,+0.00,+5.00,+11.00,+10.00,+37.00,+8.00,-29.00,-2.00,-3.00,-18.00,-7.00,-6.00,-27.00,+17.00
-13.00,+2.00,-1.00,+15.00,+50.00,+22.00,+6.00,-17.00,+38.00,+4.00,-3.00,-6.00,+17.00,+1.00,-21.00,-15.00
+14.00,-8.00,-4.00,-10.00,-84.00,-19.00,-16.00,+5.00,+0.00,-3.00,+1.00,+8.00,+1.00,-19.00,+36.00,-4.00
+34.00,-2.00,-2.00,+4.00,+108.00,+33.00,+32.00,+2.00,-29.00,-6.00,-6.00,+3.00,-13.00,+56.00,+68.00,-18.00
+7.00,+19.00,-1.00,-7.00,-47.00,-14.00,-4.00,+10.00,+15.00,-2.00,+0.00,+60.00,+24.00,-60.00,+41.00,-8.00
-28.00,-3.00,-5.00,-3.00,-9.00,-103.00,-47.00,-14.00,-31.00,-24.00,-9.00,-18.00,-60.00,-67.00,-22.00,+10.00
-37.00,-12.00,-6.00,-7.00,-5.00,+34.00,+35.00,-18.00,+16.00,+11.00,+7.00,-6.00,-47.00,-27.00,-18.00,-4.00
+13.00,+20.00,+5.00,+2.00,-15.00,-30.00,-54.00,-3.00,-18.00,+3.00,+0.00,+17.00,+74.00,+30.00,+9.00,-7.00
+22.00,-16.00,-6.00,-7.00,-33.00,-17.00,-30.00,-4.00,+18.00,+15.00,+5.00,+54.00,-128.00,+17.00,+12.00,+15.00
-14.00,+6.00,-4.00,-6.00,-17.00,+30.00,-43.00,-11.00,-7.00,-1.00,-3.00,-60.00,+109.00,+25.00,-64.00,-5.00
-10.00,+22.00,+0.00,+0.00,+29.00,-9.00,-4.00,+16.00,+11.00,-11.00,+0.00,+3.00,-68.00,-60.00,-11.00,+10.00
+6.00,+34.00,+6.00,-5.00,-17.00,+21.00,-33.00,-11.00,-35.00,-9.00,+0.00,+23.00,-36.00,-2.00,-9.00,+1.00
+49.00,+12.00,+3.00,+0.00,+16.00,+26.00,-27.00,-6.00,+2.00,+12.00,+2.00,+52.00,+64.00,+38.00,+13.00,-12.00
+33.00,+13.00,+2.00,+3.00,-15.00,-38.00,+3.00,+18.00,-34.00,-15.00,+2.00,+14.00,-54.00,-77.00,-3.00,+2.00
+2.00,-32.00,-4.00,+6.00,+67.00,+32.00,+9.00,-5.00,+5.00,-9.00,-12.00,-26.00,-16.00,-78.00,+29.00,-3.00
-54.00,-5.00,-5.00,+1.00,-13.00,+35.00,-44.00,-26.00,+12.00,+7.00,-1.00,+43.00,+33.00,-16.00,-8.00,-8.00
+77.00,-24.00,-3.00,-8.00,-19.00,-22.00,+12.00,-6.00,-12.00,-3.00,-1.00,+18.00,-5.00,+11.00,-10.00,-24.00
-8.00,-3.00,-2.00,-3.00,+54.00,+29.00,-30.00,-9.00,+19.00,+16.00,+4.00,-82.00,+4.00,+2.00,+6.00,+31.00
+27.00,+2.00,+3.00,+15.00,+88.00,+4.00,+38.00,+8.00,+1.00,+6.00,-3.00,-33.00,-6.00,+11.00,+9.00,+1.00
-37.00,-29.00,-6.00,+0.00,+9.00,-27.00,-4.00,-5.00,-12.00,-8.00,-2.00,+50.00,-24.00,-38.00,-1.00,-3.00
-6.00,+54.00,+3.00,-7.00,-41.00,+13.00,+11.00,-10.00,+7.00,+5.00,+5.00,-7.00,-20.00,-67.00,-18.00,+11.00
-6.00,-36.00,-4.00,-7.00,+10.00,+0.00,-33.00,+13.00,+0.00,-3.00,-6.00,+10.00,-6.00,-29.00,+81.00,+4.00
+36.00,+76.00,+3.00,+5.00,-15.00,-38.00,-21.00,-2.00,-9.00,-1.00,+1.00,+21.00,-48.00,+11.00,+24.00,-21.00
+17.00,-17.00,-10.00,-23.00,-97.00,-38.00,+11.00,+2.00,-9.00,-5.00,+3.00,-52.00,+29.00,+1.00,+17.00,+3.00
-70.00,-31.00,+2.00,+13.00,+100.00,+43.00,+18.00,-12.00,-28.00,-2.00,-8.00,-2.00,+16.00,+115.00,+41.00,-27.00
+26.00,-1.00,+1.00,+4.00,+5.00,+18.00,-26.00,+19.00,+55.00,-3.00,+2.00,-9.00,+22.00,-62.00,+26.00,+20.00
-8.00,-14.00,+4.00,+4.00,+53.00,+6.00,+23.00,+3.00,+31.00,+20.00,+0.00,+11.00,+6.00,-40.00,+8.00,-4.00
-1.00,-22.00,-4.00,+0.00,-9.00,-2.00,-11.00,+10.00,-13.00,-2.00,-4.00,-8.00,-55.00,+8.00,+14.00,+21.00
+26.00,+7.00,-10.00,-15.00,-82.00,-44.00,-49.00,+15.00,-37.00,-12.00,-1.00,-36.00,-35.00,-10.00,-7.00,-10.00
-13.00,+9.00,+1.00,-2.00,+16.00,-46.00,-56.00,-11.00,+7.00,-4.00,+0.00,+32.00,+51.00,+31.00,+47.00,-38.00
+15.00,-34.00,-6.00,-5.00,+14.00,+48.00,+46.00,-2.00,+3.00,-2.00,-3.00,+10.00,+127.00,+31.00,-8.00,+23.00
+23.00,+6.00,-4.00,-13.00,-47.00,-36.00,-7.00,-5.00,-11.00,+0.00,+3.00,-10.00,+13.00,+24.00,+3.00,+11.00
-31.00,-15.00,+2.00,+11.00,+98.00,+28.00,+37.00,+14.00,+13.00,-1.00,-4.00,-7.00,+49.00,-28.00,-3.00,+14.00
-2.00,+14.00,-6.00,-6.00,-14.00,-1.00,-18.00,+3.00,-29.00,-14.00,-1.00,-3.00,-46.00,+32.00,-8.00,-3.00
+34.00,+3.00,+3.00,-1.00,-23.00,+58.00,-56.00,-4.00,+42.00,+21.00,+1.00,-19.00,+53.00,-41.00,-33.00,-2.00
-21.00,+6.00,+1.00,+7.00,+68.00,+55.00,+29.00,+1.00,-28.00,+0.00,+0.00,-4.00,+5.00,+23.00,+15.00,-17.00
-29.00,-61.00,-3.00,-3.00,-24.00,-57.00,-22.00,+2.00,+53.00,+6.00,+5.00,-12.00,-29.00,-14.00,-16.00,+22.00
-14.00,+67.00,+0.00,-3.00,-76.00,-16.00,-5.00,+7.00,-3.00,-2.00,-5.00,-19.00,-52.00,+14.00,-80.00,+10.00
+55.00,-1.00,-1.00,-11.00,-67.00,-2.00,-20.00,-12.00,-20.00,-8.00,-3.00,+44.00,-26.00,+59.00,-10.00,-29.00
-23.00,-15.00,-2.00,+4.00,+31.00,+3.00,+0.00,+13.00,+43.00,+6.00,+0.00,+16.00,+24.00,-4.00,+4.00,+24.00
+21.00,-18.00,-3.00,-16.00,-100.00,+11.00,-10.00,-1.00,-24.00,-6.00,+0.00,-32.00,-46.00,-40.00,-5.00,-15.00
+31.00,-6.00,+5.00,+16.00,+104.00,+58.00,+34.00,-6.00,+5.00,+2.00,-4.00,+29.00,+26.00,+40.00,-22.00,-1.00
-10.00,-24.00,-6.00,+0.00,-45.00,-16.00,-1.00,+11.00,+27.00,-4.00,+2.00,+9.00,+39.00,-51.00,+61.00,-6.00
+35.00,+14.00,+2.00,+0.00,-74.00,+3.00,+26.00,+1.00,-3.00,+1.00,+1.00,-1.00,+35.00,-15.00,+50.00,+11.00
-39.00,+10.00,+3.00,+0.00,+0.00,-18.00,+2.00,-5.00,-6.00,-2.00,-1.00,-35.00,-52.00,-50.00,-18.00,+2.00
+5.00,-10.00,+2.00,-4.00,-43.00,+15.00,+24.00,-11.00,+1.00,+12.00,+3.00,+21.00,+67.00,-4.00,-20.00,-7.00
-7.00,+7.00,-2.00,-2.00,+26.00,-32.00,-32.00,-20.00,-25.00,-13.00,-8.00,-58.00,-33.00,+12.00,-21.00,-8.00
-48.00,-29.00,-3.00,-4.00,-8.00,-24.00,+9.00,-16.00,+1.00,-2.00,+2.00,+42.00,+70.00,+13.00,-28.00,+13.00
+5.00,+4.00,-6.00,+2.00,+0.00,+16.00,-21.00,+13.00,+16.00,+8.00,+1.00,+28.00,-2.00,+48.00,+29.00,+9.00
+31.00,+3.00,+1.00,-10.00,-90.00,-19.00,-14.00,-4.00,+6.00,-9.00,-2.00,-34.00,+38.00,-30.00,+12.00,+10.00
-34.00,-26.00,-2.00,-1.00,-20.00,-14.00,+63.00,-3.00,+11.00,-5.00,+1.00,-2.00,-7.00,-4.00,-2.00,-2.00
+23.00,+12.00,-4.00,+5.00,+34.00,+21.00,-36.00,+0.00,-4.00,-4.00,-2.00,-15.00,-2.00,-25.00,-14.00,-15.00
-9.00,+6.00,+2.00,-1.00,-53.00,+26.00,+1.00,-10.00,+2.00,+0.00,+0.00,+29.00,+22.00,+54.00,-21.00,+12.00
-17.00,+7.00,+0.00,-1.00,+43.00,-2.00,+13.00,-3.00,+10.00,-1.00,-5.00,-32.00,+25.00,-22.00,+1.00,-2.00
-21.00,-18.00,-2.00,+0.00,+4.00,-1.00,+5.00,-15.00,-21.00,-1.00,+2.00,-22.00,-72.00,+73.00,-17.00,-4.00
+12.00,+4.00,-3.00,+8.00,+83.00,+16.00,+28.00,+3.00,+20.00,-3.00,-4.00,+9.00,-38.00,-86.00,-37.00,-27.00
+27.00,+1.00,+8.00,-6.00,-76.00,-41.00,+6.00,+0.00,-39.00,-16.00,-7.00,-9.00,+89.00,+37.00,+1.00,-6.00
-22.00,-37.00,-7.00,-7.00,-32.00,+5.00,+4.00,+5.00,+21.00,+15.00,+6.00,-30.00,+31.00,-37.00,+32.00,+11.00
-39.00,+43.00,+6.00,+7.00,+64.00,+19.00,-10.00,-2.00,-3.00,-18.00,-5.00,-35.00,-21.00,+15.00,+11.00,+22.00
+46.00,+10.00,+4.00,+4.00,-6.00,+25.00,+17.00,+18.00,-10.00,+5.00,-2.00,-3.00,+3.00,+65.00,+22.00,+11.00
-60.00,-9.00,-4.00,+4.00,+80.00,+19.00,-15.00,-14.00,-28.00,-9.00,+2.00,+37.00,-3.00,+1.00,-6.00,-6.00
-1.00,-10.00,-3.00,-5.00,-43.00,-35.00,+25.00,+9.00,+37.00,+22.00,-2.00,-3.00,-49.00,-2.00,+1.00,+7.00
+13.00,-2.00,+0.00,-5.00,-27.00,+13.00,-61.00,-3.00,-11.00,+1.00,-1.00,+38.00,-18.00,+34.00,+5.00,-2.00
-12.00,-8.00,+4.00,+2.00,-28.00,-26.00,-30.00,-6.00,-6.00,-7.00,-2.00,-5.00,-27.00,+11.00,+11.00,-6.00
-13.00,+1.00,-7.00,+2.00,+19.00,+5.00,+3.00,-2.00,-3.00,-2.00,-5.00,+12.00,+19.00,-58.00,+0.00,-12.00
+28.00,+6.00,-3.00,-2.00,-80.00,-11.00,-29.00,-5.00,-18.00,-13.00,-8.00,+9.00,-46.00,+39.00,-14.00,+2.00
-33.00,-9.00,-2.00,-2.00,+8.00,-43.00,+1.00,+1.00,+10.00,+5.00,+3.00,-10.00,+54.00,-60.00,-10.00,+5.00
+12.00,+7.00,+5.00,+2.00,+1.00,+40.00,-22.00,+6.00,-7.00,-5.00,-3.00,-32.00,-109.00,+12.00,+31.00,-5.00
-3.00,+17.00,-4.00,-6.00,-6.00,-10.00,+29.00,-2.00,+4.00,-3.00,-4.00,-2.00,+4.00,-6.00,-4.00,-4.00
+15.00,+12.00,+1.00,-5.00,-33.00,-10.00,+7.00,-3.00,+5.00,-1.00,+4.00,+31.00,+16.00,+10.00,+28.00,-2.00
+9.00,+0.00,-3.00,+1.00,-1.00,-30.00,+22.00,+1.00,-5.00,+9.00,-2.00,+6.00,-6.00,+26.00,+2.00,-5.00
-36.00,-11.00,-4.00,-9.00,-28.00,-14.00,-10.00,+16.00,+2.00,-5.00,+2.00,+39.00,-28.00,+56.00,-28.00,+18.00
+33.00,+2.00,+1.00,+9.00,+25.00,-27.00,-4.00,-2.00,+24.00,+6.00,-4.00,-21.00,-62.00,-86.00,-13.00,+3.00
-15.00,+0.00,+1.00,+5.00,+13.00,+9.00,+5.00,+2.00,-57.00,-3.00,-3.00,-15.00,+72.00,+14.00,-8.00,-12.00
+14.00,-13.00,+0.00,+3.00,+45.00,+16.00,+34.00,+9.00,+34.00,-4.00,-2.00,+25.00,+29.00,+7.00,-17.00,+5.00
+16.00,+7.00,+3.00,+6.00,+40.00,-45.00,+20.00,-1.00,+5.00,+5.00,+1.00,+9.00,-24.00,+14.00,+17.00,-4.00
+10.00,+2.00,-1.00,-2.00,+28.00,+14.00,-2.00,-11.00,+0.00,+4.00,-4.00,-23.00,-12.00,+7.00,+14.00,-1.00
-5.00,+1.00,-3.00,-4.00,+20.00,-1.00,+22.00,-5.00,-18.00,-11.00,+6.00,+79.00,+52.00,+25.00,-22.00,+4.00
+16.00,-3.00,+3.00,+5.00,+52.00,+15.00,-26.00,+13.00,+10.00,+1.00,-5.00,-42.00,-47.00,-21.00,-58.00,+7.00
+15.00,+1.00,-3.00,+0.00,+16.00,+7.00,+8.00,-11.00,-15.00,-10.00,-2.00,-16.00,+65.00,-20.00,+9.00,-27.00
-8.00,+5.00,-2.00,-7.00,-29.00,-22.00,-16.00,+2.00,+20.00,+0.00,+1.00,-25.00,-10.00,-19.00,+29.00,+13.00
-31.00,-8.00,-3.00,+4.00,+6.00,+4.00,-5.00,-17.00,-9.00,-2.00,-6.00,+0.00,-2.00,+52.00,-16.00,-14.00
+4.00,+0.00,+3.00,+3.00,-3.00,+11.00,+12.00,+20.00,-36.00,-1.00,+3.00,-24.00,+15.00,-78.00,+23.00,-15.00
+10.00,-2.00,-5.00,-18.00,-98.00,-13.00,-5.00,-18.00,+66.00,+9.00,+2.00,-8.00,+15.00,-4.00,-27.00,+25.00
+17.00,+3.00,+3.00,+6.00,+106.00,+37.00,-1.00,-1.00,+7.00,+5.00,+4.00,+25.00,-37.00,+37.00,+69.00,-1.00
-24.00,-32.00,-8.00,-7.00,-15.00,+2.00,-22.00,+9.00,+12.00,+5.00,-2.00,-36.00,-75.00,-19.00,+23.00,+0.00
+5.00,+26.00,+1.00,-9.00,-38.00,-14.00,-9.00,-6.00,-25.00,-6.00,-1.00,-39.00,-14.00,+48.00,-40.00,-5.00
-1.00,+5.00,+1.00,+9.00,+56.00,-6.00,+5.00,-1.00,-12.00,-10.00,-7.00,+2.00,-91.00,-108.00,+39.00,-27.00
+25.00,-3.00,+0.00,+0.00,-33.00,-1.00,+6.00,+8.00,-5.00,+3.00,+1.00,-12.00,+76.00,+13.00,+12.00,+4.00
+20.00,+10.00,-1.00,-4.00,+16.00,+6.00,+7.00,-2.00,+6.00,-3.00,-1.00,+14.00,-40.00,-1.00,-7.00,+2.00
-94.00,-24.00,-4.00,+9.00,+39.00,-18.00,+9.00,+11.00,-15.00,-1.00,-2.00,+32.00,+43.00,+50.00,+12.00,-21.00
+2.00,-9.00,+0.00,-5.00,-12.00,-8.00,+1.00,+2.00,-25.00,-9.00,-6.00,-27.00,-38.00,-6.00,-85.00,-8.00
+35.00,+6.00,+0.00,+0.00,-65.00,-11.00,+13.00,-6.00,+23.00,+9.00,-1.00,+11.00,+29.00,+7.00,-13.00,+4.00
+9.00,+11.00,+2.00,+2.00,+57.00,+22.00,-26.00,+1.00,-12.00,-4.00,+2.00,+2.00,-1.00,-31.00,+7.00,-16.00
-31.00,-15.00,-5.00,-16.00,-125.00,-25.00,-8.00,-11.00,-2.00,-9.00,-4.00,+13.00,-70.00,+2.00,+9.00,+15.00
+4.00,+5.00,+1.00,+6.00,+21.00,+11.00,+17.00,+0.00,-7.00,-3.00,-6.00,-79.00,+91.00,-5.00,-32.00,-7.00
-5.00,-2.00,-3.00,-1.00,-6.00,-27.00,-46.00,-17.00,-8.00,-1.00,+1.00,-31.00,-54.00,+3.00,+1.00,-7.00
+23.00,-4.00,+2.00,+1.00,-12.00,+5.00,+1.00,-3.00,+6.00,+4.00,+0.00,+18.00,-73.00,-25.00,-7.00,-9.00
+25.00,-2.00,+0.00,-2.00,+21.00,+64.00,+0.00,-12.00,+32.00,-4.00,-2.00,-17.00,-32.00,-50.00,-3.00,+13.00
-72.00,+4.00,-5.00,-3.00,-17.00,-5.00,-23.00,-4.00,-4.00,+3.00,+3.00,+48.00,+58.00,+21.00,+32.00,+9.00
-3.00,+1.00,-1.00,-1.00,+1.00,+2.00,-5.00,+1.00,-13.00,-9.00,-2.00,-26.00,+33.00,+1.00,-52.00,-11.00
-2.00,-3.00,+2.00,+1.00,+54.00,-4.00,-5.00,+1.00,+15.00,+5.00,+1.00,+3.00,-6.00,+35.00,+51.00,+19.00
+9.00,-7.00,-2.00,-6.00,-53.00,-13.00,-9.00,-24.00,-8.00,+3.00,+1.00,+12.00,+47.00,+2.00,+16.00,+0.00
+6.00,+16.00,-1.00,-6.00,-37.00,-23.00,-10.00,+13.00,-17.00,+4.00,+1.00,+45.00,-37.00,-24.00,-10.00,-5.00
+5.00,+3.00,+5.00,+15.00,+51.00,+31.00,+13.00,+9.00,-10.00,-12.00,-6.00,+33.00,-87.00,-6.00,-15.00,+3.00
-22.00,+11.00,-1.00,+2.00,+49.00,-9.00,+14.00,-3.00,-1.00,-7.00,-11.00,-71.00,+3.00,-3.00,+27.00,+0.00
+20.00,-38.00,-4.00,-4.00,-36.00,+2.00,+1.00,-1.00,-45.00,-6.00,-4.00,-11.00,+93.00,-13.00,+9.00,-47.00
-15.00,+13.00,+2.00,+9.00,+53.00,-4.00,-5.00,-4.00,+53.00,+7.00,+6.00,+9.00,+53.00,+22.00,+32.00,+65.00
+3.00,+26.00,-2.00,-11.00,-48.00,+1.00,+1.00,-3.00,-20.00,-1.00,+2.00,+52.00,+10.00,+83.00,-18.00,-19.00
-12.00,+3.00,+3.00,+4.00,-9.00,-2.00,-18.00,-2.00,+6.00,+0.00,+3.00,+33.00,+20.00,-94.00,-17.00,+6.00
+8.00,-6.00,-3.00,+0.00,+12.00,-1.00,-15.00,-21.00,+12.00,-2.00,-3.00,+8.00,-6.00,+32.00,+5.00,+9.00
-7.00,-17.00,-2.00,-6.00,-46.00,-3.00,+9.00,+20.00,-37.00,-5.00,-4.00,-24.00,-59.00,-18.00,+14.00,-29.00
-38.00,-7.00,-1.00,-14.00,-48.00,+25.00,-17.00,-3.00,+22.00,+7.00,+2.00,-20.00,+125.00,+35.00,-10.00,+3.00
+15.00,-16.00,-3.00,-1.00,-11.00,-1.00,+33.00,+0.00,-10.00,-5.00,+3.00,+60.00,+25.00,+30.00,-1.00,+16.00
+15.00,+12.00,+1.00,+10.00,+89.00,-12.00,+0.00,+1.00,-23.00,+1.00,+0.00,-61.00,+20.00,+9.00,-12.00,-14.00
+12.00,-18.00,-2.00,+8.00,+28.00,+56.00,-6.00,-13.00,-8.00,-1.00,-1.00,+6.00,-24.00,-14.00,+13.00,-12.00
-63.00,-20.00,-2.00,-3.00,-23.00,+0.00,-53.00,-13.00,+19.00,-1.00,-2.00,-1.00,+17.00,+2.00,+11.00,+10.00
+52.00,+13.00,+0.00,-6.00,-21.00,+22.00,-22.00,+8.00,-9.00,+4.00,-2.00,-22.00,+34.00,-22.00,+15.00,-21.00
+8.00,-4.00,+3.00,-1.00,-28.00,-54.00,+17.00,+21.00,+6.00,+3.00,+1.00,+7.00,-50.00,-30.00,-23.00,+8.00
+22.00,-1.00,-1.00,-5.00,-16.00,+7.00,+1.00,-7.00,-25.00,-3.00,-1.00,+8.00,+18.00,+70.00,+60.00,+1.00
-4.00,-10.00,-6.00,+2.00,+9.00,+11.00,-1.00,+4.00,-9.00,-2.00,-2.00,-10.00,-38.00,-70.00,-15.00,-10.00
-9.00,+0.00,-2.00,-3.00,-6.00,-16.00,+19.00,-2.00,+5.00,+0.00,-1.00,+6.00,-11.00,+19.00,-12.00,-1.00
-10.00,-21.00,-7.00,-17.00,-74.00,-13.00,-2.00,-5.00,+1.00,-10.00,-4.00,+1.00,+67.00,-3.00,+7.00,+6.00
+11.00,+46.00,+7.00,+21.00,+96.00,+42.00,+0.00,+4.00,+20.00,+9.00,+6.00,+10.00,+70.00,+6.00,-18.00,+4.00
+1.00,+3.00,-1.00,+0.00,-24.00,-40.00,+6.00,-3.00,-21.00,-6.00,-4.00,+34.00,-21.00,-5.00,-1.00,-14.00
-6.00,-12.00,+0.00,-1.00,-22.00,+10.00,-7.00,-7.00,+1.00,-6.00,-7.00,-89.00,-54.00,-25.00,-11.00,-1.00
+6.00,+8.00,-1.00,-1.00,-4.00,+4.00,-12.00,+5.00,+16.00,+3.00,+3.00,+13.00,-92.00,+15.00,+4.00,+18.00
-38.00,-18.00,-3.00,-6.00,-11.00,-21.00,+6.00,+6.00,-25.00,-3.00,-4.00,-24.00,+65.00,-3.00,-14.00,-23.00
-18.00,-4.00,-3.00,-6.00,-39.00,+6.00,+0.00,-8.00,+10.00,+2.00,-1.00,-1.00,+1.00,-5.00,-29.00,+8.00
+31.00,+12.00,-1.00,+6.00,+29.00,-40.00,+25.00,+5.00,+16.00,-2.00,-3.00,-22.00,-27.00,+1.00,+12.00,-6.00
-17.00,+3.00,-1.00,-5.00,-11.00,+4.00,-12.00,-1.00,+0.00,+3.00,+1.00,+36.00,+1.00,-19.00,-6.00,+9.00
+22.00,-13.00,-1.00,-1.00,-4.00,-9.00,-8.00,-24.00,-3.00,-2.00,-3.00,-4.00,+2.00,-24.00,-16.00,+2.00
+5.00,+24.00,+5.00,+3.00,-37.00,-10.00,+5.00,+12.00,-14.00,-2.00,+1.00,-19.00,+27.00,+11.00,+10.00,-8.00
-33.00,-15.00,-6.00,+0.00,+47.00,+17.00,-46.00,-6.00,+26.00,-4.00,+2.00,+36.00,+15.00,+26.00,-3.00,+11.00
+48.00,+22.00,+7.00,+25.00,+90.00,+27.00,+7.00,+3.00,+33.00,+9.00,+3.00,+32.00,-5.00,-3.00,-2.00,+12.00
-6.00,-9.00,+0.00,-7.00,-71.00,-21.00,-6.00,-14.00,+17.00,+1.00,+2.00,+26.00,-37.00,+45.00,+6.00,-2.00
-4.00,-21.00,-5.00,-6.00,+14.00,-23.00,+37.00,+18.00,-5.00,-8.00,-5.00,-74.00,-27.00,-34.00,-32.00,-14.00
-41.00,+10.00,-1.00,+0.00,+18.00,+66.00,+14.00,+1.00,-20.00,+8.00,+4.00,+40.00,+34.00,-1.00,-27.00,+27.00
+2.00,+1.00,+0.00,-4.00,-26.00,+16.00,-9.00,-9.00,-25.00,-6.00,-8.00,-29.00,-20.00,-12.00,+6.00,-11.00
+52.00,-4.00,+0.00,+0.00,-5.00,+18.00,+1.00,+14.00,+19.00,-2.00,-2.00,+7.00,-106.00,-22.00,-27.00,+3.00
-32.00,-7.00,+1.00,+1.00,+31.00,+19.00,-10.00,-11.00,+9.00,-2.00,-3.00,+2.00,+47.00,+38.00,+19.00,+4.00
-34.00,-3.00,+1.00,-1.00,-22.00,-13.00,-3.00,+9.00,-5.00,+0.00,+2.00,+6.00,-8.00,-33.00,-47.00,-19.00
-7.00,+9.00,-3.00,-11.00,-57.00,-21.00,-7.00,-5.00,-49.00,-16.00,-3.00,-10.00,-23.00,+3.00,+2.00,+0.00
-8.00,-12.00,-3.00,-6.00,-14.00,-22.00,-9.00,-5.00,+51.00,+15.00,+1.00,+89.00,+18.00,+12.00,-1.00,+0.00
+22.00,-10.00,-1.00,-6.00,-23.00,+4.00,-13.00,-9.00,-9.00,-5.00,-7.00,-91.00,+12.00,-25.00,+17.00,-1.00
-4.00,+20.00,+4.00,+15.00,+65.00,+16.00,+4.00,-3.00,-7.00,-7.00,-2.00,+1.00,-5.00,-19.00,-10.00,+1.00
-16.00,-14.00,-1.00,-6.00,-19.00,-3.00,+7.00,-27.00,+26.00,+5.00,+1.00,-22.00,-36.00,-23.00,-4.00,+5.00
-8.00,-2.00,-2.00,+5.00,+35.00,+2.00,+11.00,+5.00,-36.00,+0.00,+0.00,+15.00,-2.00,+10.00,-36.00,-22.00
+23.00,-4.00,-3.00,-1.00,+42.00,-2.00,-3.00,+0.00,+19.00,+1.00,+1.00,+28.00,+2.00,-10.00,+34.00,-3.00
+1.00,-23.00,+0.00,+0.00,-44.00,-17.00,-4.00,-5.00,-9.00,+5.00,+2.00,+3.00,+35.00,-1.00,-4.00,-10.00
+17.00,+39.00,+0.00,-1.00,+3.00,+15.00,-9.00,+7.00,-2.00,-5.00,-1.00,+2.00,-37.00,-7.00,+5.00,+6.00
-18.00,-34.00,+1.00,+1.00,+25.00,+2.00,+3.00,-7.00,+13.00,-4.00,-3.00,-19.00,-62.00,+23.00,+3.00,+24.00
-1.00,+32.00,+0.00,-9.00,-78.00,-4.00,-30.00,-2.00,-33.00,+3.00,+2.00,+50.00,+2.00,-32.00,+6.00,+4.00
+13.00,+7.00,-4.00,-6.00,-45.00,-22.00,-3.00,-8.00,+28.00,-2.00,-2.00,-37.00,-41.00,+82.00,+3.00,-2.00
+15.00,-7.00,+7.00,+11.00,+72.00,+32.00,+16.00,+14.00,+17.00,-1.00,-2.00,+16.00,+5.00,-62.00,+4.00,+3.00
-49.00,-20.00,-5.00,-7.00,+21.00,+4.00,-17.00,-1.00,-48.00,-14.00,-4.00,-12.00,+37.00,+2.00,-7.00,-16.00
+24.00,-7.00,-1.00,+4.00,+50.00,+7.00,+14.00,+1.00,+54.00,+14.00,+2.00,-25.00,+76.00,+28.00,+2.00,+21.00
+12.00,-12.00,-5.00,-10.00,-2.00,+8.00,+26.00,-7.00,-63.00,-3.00,+2.00,+11.00,+7.00,+10.00,+10.00,-10.00
+55.00,+2.00,+1.00,+0.00,-3.00,-7.00,+2.00,+3.00,+25.00,+7.00,-1.00,+7.00,+30.00,+18.00,-3.00,-8.00
-53.00,+16.00,-3.00,-3.00,-9.00,-7.00,+6.00,+16.00,+4.00,+1.00,+1.00,-25.00,+17.00,-16.00,+10.00,+5.00
+12.00,-11.00,-4.00,-3.00,+13.00,+19.00,-4.00,-8.00,+18.00,-6.00,-2.00,+5.00,-107.00,-19.00,-39.00,+5.00
-39.00,+7.00,+1.00,+0.00,-23.00,-41.00,-7.00,+4.00,-9.00,-1.00,+0.00,+7.00,+42.00,+0.00,+6.00,-14.00
+7.00,-5.00,-2.00,+3.00,+8.00,-24.00,+1.00,-9.00,+1.00,+7.00,+2.00,+0.00,+7.00,+25.00,+11.00,-18.00
-31.00,+8.00,+0.00,+0.00,+5.00,+1.00,+3.00,+5.00,+13.00,+10.00,+3.00,+4.00,+11.00,-28.00,+5.00,+27.00
+9.00,+1.00,-3.00,-4.00,-37.00,-7.00,+7.00,+13.00,-33.00,-10.00,-3.00,+1.00,-25.00,+11.00,+2.00,-2.00
+21.00,-10.00,+1.00,+4.00,-9.00,-6.00,+5.00,+11.00,-8.00,-7.00,-4.00,+26.00,-68.00,-3.00,-2.00,-6.00
-47.00,-2.00,-2.00,-4.00,-19.00,+6.00,-14.00,-3.00,-23.00,-12.00,-10.00,-49.00,-6.00,-15.00,-3.00,+1.00
+18.00,+6.00,-3.00,-7.00,-38.00,-20.00,-7.00,-16.00,+7.00,-9.00,-3.00,+9.00,+4.00,+36.00,-22.00,-12.00
-58.00,-17.00,+1.00,-1.00,-15.00,+0.00,+3.00,+1.00,+4.00,+5.00,+2.00,+13.00,-81.00,-2.00,-4.00,-6.00
+21.00,+8.00,-1.00,+1.00,+23.00,-11.00,-5.00,-7.00,+9.00,+3.00,-1.00,+17.00,+33.00,+38.00,-40.00,+7.00
-20.00,-5.00,-5.00,-6.00,-59.00,+6.00,-1.00,+5.00,-8.00,-2.00,+2.00,-7.00,-13.00,-39.00,+11.00,-4.00
+43.00,+11.00,+2.00,-1.00,+15.00,-4.00,-54.00,-8.00,-27.00,-1.00,-4.00,-13.00,+59.00,-29.00,+8.00,+8.00
-7.00,+2.00,-5.00,-2.00,+18.00,-10.00,+5.00,-9.00,-8.00,-1.00,-1.00,-10.00,-8.00,-19.00,+14.00,+2.00
-4.00,-38.00,-2.00,+1.00,+35.00,+10.00,-2.00,-8.00,+1.00,-4.00,-1.00,+57.00,+5.00,+4.00,-5.00,-7.00
+3.00,+71.00,+2.00,-18.00,-118.00,-21.00,-5.00,+2.00,+17.00,+1.00,-2.00,-24.00,+63.00,+69.00,-5.00,+11.00
+8.00,+1.00,+2.00,+12.00,+89.00,-13.00,+5.00,+1.00,-13.00,+0.00,-3.00,-32.00,-93.00,-61.00,-14.00,-16.00
+3.00,+2.00,+2.00,+3.00,+28.00,-12.00,+11.00,-7.00,-40.00,-6.00,+0.00,+0.00,+70.00,-1.00,-7.00,-23.00
-2.00,-10.00,-1.00,-2.00,-44.00,+16.00,-5.00,+1.00,+34.00,+6.00,+0.00,-22.00,+33.00,-11.00,+18.00,+15.00
-31.00,-37.00,-5.00,+0.00,-10.00,+1.00,-8.00,+4.00,-16.00,-1.00,+0.00,+30.00,+42.00,+16.00,+8.00,-13.00
+29.00,+8.00,+3.00,+1.00,-5.00,+15.00,-2.00,-3.00,-1.00,-9.00,-6.00,-25.00,-51.00,+2.00,+7.00,-7.00
-11.00,-1.00,-1.00,+2.00,+11.00,-4.00,-5.00,-1.00,-13.00,-2.00,+2.00,+23.00,+40.00,+5.00,+7.00,+6.00
+8.00,-3.00,-2.00,+2.00,+16.00,+2.00,-5.00,+4.00,+21.00,-3.00,-1.00,-18.00,-10.00,-7.00,+6.00,-5.00
-15.00,-8.00,-3.00,-7.00,-35.00,-28.00,-6.00,+3.00,+2.00,+12.00,+3.00,+6.00,+14.00,+9.00,-3.00,+6.00
+33.00,+4.00,+0.00,+4.00,+10.00,-1.00,-3.00,-15.00,-22.00,-8.00,+3.00,+25.00,+41.00,+2.00,-4.00,-3.00
+14.00,-11.00,+1.00,+7.00,+44.00,+11.00,+0.00,+8.00,+7.00,-5.00,-2.00,+20.00,+9.00,+5.00,-9.00,-12.00
-45.00,+14.00,+1.00,-5.00,-34.00,+14.00,+4.00,+0.00,+10.00,+0.00,-1.00,-29.00,-4.00,-4.00,+12.00,+3.00
-16.00,-5.00,-1.00,+2.00,+65.00,+43.00,+12.00,+1.00,+12.00,+5.00,-3.00,+7.00,-9.00,-5.00,-7.00,+5.00
+47.00,+6.00,+1.00,-7.00,-45.00,+3.00,+12.00,+4.00,-33.00,-16.00,+8.00,-3.00,+1.00,+2.00,-1.00,-8.00
+4.00,-4.00,-3.00,+1.00,+0.00,-4.00,-4.00,-24.00,-4.00,-11.00,-17.00,+14.00,-5.00,+0.00,+3.00,+7.00
+29.00,+16.00,-1.00,-4.00,-18.00,-12.00,-3.00,-4.00,-41.00,-8.00,-4.00,-18.00,-79.00,-16.00,+5.00,-4.00
-29.00,-13.00,-2.00,+2.00,+30.00,-21.00,-2.00,+1.00,+22.00,-5.00,-11.00,-19.00,+7.00,-4.00,-3.00,+0.00
-31.00,-13.00,-1.00,+0.00,-17.00,+2.00,+15.00,+6.00,+28.00,+6.00,-1.00,+1.00,-42.00,+1.00,+0.00,-6.00
+15.00,+28.00,+2.00,-4.00,-25.00,-7.00,-3.00,-1.00,+5.00,+11.00,+6.00,-44.00,+19.00,+46.00,-3.00,-18.00
+9.00,+4.00,+1.00,+1.00,+14.00,-6.00,-7.00,+4.00,+23.00,-1.00,+1.00,-9.00,+65.00,-12.00,+1.00,+14.00
+2.00,-11.00,-5.00,+2.00,+21.00,+0.00,+0.00,-4.00,-15.00,-1.00,+1.00,+24.00,-47.00,-93.00,+2.00,-5.00
-24.00,-57.00,-6.00,+0.00,-6.00,-4.00,+6.00,-6.00,-7.00,+2.00,-2.00,-10.00,+32.00,+25.00,-4.00,-9.00
+10.00,+42.00,-4.00,-5.00,-34.00,-3.00,-5.00,+1.00,-8.00,-2.00,+1.00,-17.00,-22.00,+1.00,-4.00,+0.00
+16.00,+37.00,+12.00,+3.00,+4.00,+11.00,+0.00,-1.00,-11.00,+1.00,+0.00,+10.00,+17.00,+8.00,+0.00,-9.00
+9.00,-7.00,+0.00,+2.00,-5.00,-6.00,+1.00,-3.00,-2.00,-5.00,+1.00,+12.00,-6.00,+47.00,+1.00,-1.00
+2.00,-7.00,-4.00,-6.00,-33.00,-8.00,+6.00,+0.00,-3.00,+1.00,-3.00,-24.00,+43.00,-37.00,+2.00,+1.00
-5.00,-4.00,+1.00,+6.00,+55.00,-12.00,+0.00,+9.00,+19.00,+5.00,-1.00,+13.00,+23.00,-8.00,+2.00,+5.00
-14.00,-19.00,-4.00,+2.00,+23.00,+0.00,+50.00,-1.00,+6.00,+7.00,+1.00,-7.00,-7.00,+6.00,+1.00,+0.00
+32.00,+6.00,-1.00,+3.00,+17.00,-13.00,-2.00,+8.00,-10.00,-7.00,+1.00,+13.00,+12.00,+10.00,-3.00,+0.00
-5.00,-14.00,-1.00,-4.00,-16.00,+6.00,+5.00,-1.00,+6.00,+1.00,-4.00,-20.00,-59.00,+0.00,-1.00,+1.00
-7.00,-11.00,-2.00,-1.00,-16.00,+14.00,+11.00,+1.00,-24.00,-7.00,-2.00,+0.00,-15.00,+0.00,-2.00,-2.00
-8.00,+6.00,-1.00,-7.00,-41.00,-15.00,-21.00,-5.00,+18.00,+9.00,+1.00,-4.00,+3.00,-8.00,+5.00,+1.00
+17.00,-7.00,+1.00,+1.00,+7.00,+0.00,-9.00,+0.00,+49.00,+10.00,+5.00,+11.00,-14.00,+10.00,-4.00,+0.00
-12.00,+7.00,-2.00,-2.00,-8.00,+1.00,+5.00,-3.00,-23.00,-9.00,-3.00,-5.00,+52.00,+4.00,-2.00,-7.00
+11.00,-4.00,+1.00,-1.00,-15.00,-4.00,-5.00,+1.00,-18.00,-16.00,-5.00,+2.00,-26.00,-15.00,+2.00,-2.00
-4.00,-2.00,-2.00,-2.00,+7.00,-4.00,-11.00,-4.00,+29.00,+16.00,-5.00,+2.00,-14.00,-5.00,+0.00,-5.00
-10.00,-9.00,+0.00,-2.00,-8.00,+13.00,-5.00,+2.00,-31.00,-10.00,-1.00,+7.00,-9.00,+4.00,+0.00,+1.00
+13.00,+23.00,+4.00,-2.00,-16.00,-3.00,-6.00,+4.00,+32.00,+13.00,+0.00,+7.00,-9.00,+5.00,+0.00,+1.00
-6.00,-13.00,-2.00,+5.00,+58.00,+9.00,+3.00,-1.00,+22.00,-4.00,-2.00,-22.00,-41.00,-4.00,+1.00,+13.00
+1.00,-41.00,-2.00,-2.00,-3.00,+6.00,-13.00,-2.00,-12.00,+1.00,+1.00,+21.00,-4.00,+8.00,+1.00,+3.00
+17.00,+56.00,-2.00,-1.00,+12.00,-6.00,+8.00,+2.00,-13.00,+3.00,+0.00,-7.00,+33.00,-14.00,-3.00,+5.00
-13.00,-6.00,+3.00,+0.00,-18.00,+1.00,+3.00,+0.00,+26.00,+1.00,-4.00,-14.00,-19.00,+0.00,-3.00,+4.00
+1.00,-27.00,+1.00,-2.00,+5.00,-3.00,-8.00,-1.00,-28.00,+16.00,+5.00,+13.00,+2.00,-1.00,-2.00,+2.00
+19.00,+44.00,+9.00,+2.00,-20.00,+1.00,-2.00,+0.00,-12.00,-16.00,+0.00,-1.00,-1.00,+1.00,-1.00,+1.00
-1.00,-62.00,-5.00,-1.00,+2.00,-1.00,+2.00,-4.00,+48.00,-2.00,+0.00,-5.00,+1.00,+16.00,+16.00,+4.00
-1.00,+43.00,+5.00,+0.00,-4.00,-2.00,+3.00,+1.00,-34.00,-8.00,+2.00,-5.00,-4.00,-10.00,+0.00,+9.00
-21.00,-35.00,-4.00,-3.00,-37.00,+8.00,-1.00,-4.00,+14.00,+3.00,-5.00,+14.00,-15.00,-10.00,+1.00,+0.00
+5.00,+33.00,-3.00,+3.00,+41.00,+0.00,-5.00,+0.00,-17.00,+1.00,-3.00,-8.00,+10.00,-3.00,-4.00,-12.00
-5.00,+0.00,+2.00,-2.00,-17.00,+2.00,+3.00,+1.00,-43.00,-11.00,+2.00,+5.00,+7.00,+4.00,+2.00,-3.00
-9.00,-19.00,-6.00,-2.00,+2.00,-5.00,-2.00,-4.00,+5.00,+12.00,-1.00,-3.00,-1.00,+3.00,-3.00,-12.00
-3.00,-37.00,-2.00,-2.00,-1.00,+2.00,+3.00,+2.00,-27.00,-7.00,+1.00,+3.00,+2.00,+4.00,+4.00,-3.00
-13.00,-27.00,-9.00,-6.00,-17.00,-3.00,-1.00,-1.00,+12.00,-4.00,-6.00,-4.00,-6.00,-8.00,+4.00,+6.00
+13.00,+26.00,+4.00,+2.00,+15.00,-5.00,+0.00,+2.00,-14.00,+1.00,-3.00,+0.00,+8.00,+13.00,-8.00,-6.00
-6.00,-23.00,-1.00,-3.00,+10.00,+17.00,+2.00,+0.00,+87.00,-6.00,+1.00,-1.00,-28.00,-21.00,-1.00,+5.00
-3.00,+27.00,+2.00,+0.00,-7.00,-35.00,-3.00,-3.00,-33.00,+1.00,+0.00,+0.00,+6.00,-10.00,-5.00,+2.00
+7.00,+18.00,+0.00,+0.00,-1.00,-1.00,-2.00,+0.00,-24.00,-16.00,-4.00,-4.00,-4.00,-3.00,-3.00,-8.00
+4.00,+6.00,-3.00,-1.00,+1.00,+2.00,+9.00,-1.00,-5.00,-3.00,+0.00,-2.00,-9.00,-2.00,-4.00,-4.00
-2.00,+53.00,+0.00,-1.00,-19.00,-3.00,-10.00,+1.00,-8.00,+13.00,+5.00,+3.00,-1.00,+11.00,-4.00,-2.00
+21.00,-8.00,+3.00,+3.00,+21.00,-4.00,-15.00,+1.00,+28.00,-5.00,-4.00,+6.00,+0.00,-2.00,+1.00,-10.00
-5.00,-74.00,-2.00,-2.00,-4.00,-3.00,-2.00,+1.00,-2.00,-2.00,-8.00,-15.00,-8.00,-9.00,-4.00,-9.00
+3.00,+33.00,+2.00,-3.00,-8.00,-1.00,-1.00,-1.00,-25.00,-2.00,-1.00,-4.00,-4.00,+5.00,-3.00,-4.00
+7.00,-49.00,-13.00,-3.00,+0.00,-3.00,+0.00,-1.00,+4.00,-1.00,-2.00,-3.00,+12.00,-3.00,+1.00,+1.00
+16.00,+108.00,+4.00,-1.00,+2.00,+8.00,-2.00,+0.00,+17.00,-18.00,+0.00,+0.00,-10.00,-22.00,-2.00,+0.00
-23.00,-39.00,+10.00,+0.00,+3.00,-7.00,-3.00,+3.00,-15.00,+13.00,+2.00,+18.00,-20.00,+9.00,-1.00,+3.00
+5.00,+11.00,+6.00,+0.00,-3.00,-2.00,-3.00,+4.00,-19.00,-5.00,+0.00,-22.00,-8.00,-10.00,-6.00,+6.00
+2.00,-2.00,-1.00,-1.00,+7.00,-4.00,-2.00,+1.00,-19.00,+4.00,-4.00,-7.00,+26.00,+13.00,-1.00,+1.00
-3.00,-38.00,-12.00,-2.00,-6.00,+9.00,+2.00,+3.00,+19.00,-5.00,-2.00,-2.00,+28.00,+4.00,-1.00,+8.00
-5.00,+4.00,-7.00,-2.00,+1.00,+0.00,-4.00,-2.00,+25.00,+4.00,+5.00,-2.00,-37.00,-15.00,-2.00,+5.00
-22.00,-27.00,-2.00,-5.00,-16.00,-1.00,-3.00,-6.00,+15.00,-11.00,-11.00,+4.00,-94.00,-10.00,-1.00,-3.00
+17.00,+15.00,-1.00,+3.00,+17.00,+3.00,+3.00,+2.00,-4.00,+28.00,+1.00,+3.00,+10.00,-3.00,+1.00,+0.00
-9.00,-32.00,-1.00,+0.00,-6.00,+10.00,+6.00,-1.00,-27.00,-21.00,-6.00,-6.00,+13.00,+11.00,-5.00,-9.00
+16.00,+37.00,-1.00,-2.00,-3.00,-8.00,-4.00,-1.00,-72.00,-23.00,+3.00,+1.00,+19.00,+2.00,+1.00,-16.00
-16.00,-90.00,-7.00,-5.00,-46.00,-10.00,-4.00,-2.00,+37.00,+10.00,+9.00,+5.00,+17.00,+2.00,-2.00,+4.00
+13.00,+84.00,+5.00,+3.00,+30.00,+4.00,-2.00,-3.00,-19.00,+2.00,-11.00,-6.00,-5.00,+4.00,+0.00,-6.00
-1.00,+23.00,+0.00,+2.00,+2.00,+5.00,+2.00,+0.00,-10.00,+3.00,+1.00,+2.00,-29.00,-3.00,-2.00,-4.00
+11.00,+31.00,+2.00,-2.00,+3.00,+2.00,-1.00,-3.00,+47.00,+7.00,-2.00,-1.00,+7.00,+5.00,+0.00,+13.00
-6.00,-21.00,+0.00,+2.00,+5.00,-19.00,-2.00,+0.00,-41.00,-8.00,+3.00,+1.00,+8.00,+1.00,-1.00,-10.00
-10.00,-28.00,+2.00,-4.00,-18.00,-20.00,+11.00,-5.00,+32.00,-4.00,-1.00,+1.00,+10.00,-14.00,-1.00,+0.00
-7.00,-22.00,-8.00,-1.00,-3.00,+3.00,-5.00,+2.00,+22.00,+16.00,+2.00,+4.00,+2.00,+9.00,+0.00,+2.00
-12.00,-27.00,-4.00,-2.00,-10.00,-3.00,-1.00,-3.00,-23.00,-26.00,-4.00,-9.00,+0.00,-8.00,-1.00,-4.00
+43.00,+76.00,+9.00,+1.00,+3.00,+12.00,-1.00,+3.00,+10.00,-2.00,-7.00,+1.00,+28.00,+7.00,-4.00,+9.00
-26.00,-26.00,-6.00,+1.00,-7.00,+1.00,+1.00,-5.00,-25.00,-6.00,-1.00,+1.00,-3.00,+4.00,-1.00,+2.00
-9.00,+17.00,-4.00,-2.00,+4.00,-5.00,-1.00,-2.00,-11.00,-4.00,-3.00,-5.00,-12.00,-6.00,-2.00,-5.00
+13.00,+51.00,-4.00,-4.00,-14.00,-4.00,-1.00,-2.00,+30.00,+24.00,+0.00,-1.00,+9.00,+5.00,+0.00,-7.00
-29.00,-62.00,-8.00,-2.00,+6.00,+1.00,-4.00,-6.00,+45.00,+18.00,+2.00,+4.00,-3.00,-2.00,+0.00,-2.00
+9.00,+61.00,+8.00,+3.00,+4.00,+5.00,-2.00,+3.00,-67.00,-27.00,-7.00,-3.00,-12.00,+3.00,-2.00,-15.00
-1.00,-46.00,-6.00,-1.00,-10.00,-5.00,+3.00,-1.00,+49.00,+14.00,-4.00,-9.00,-12.00,-5.00,-1.00,+1.00
-13.00,-95.00,+0.00,+0.00,+2.00,+5.00,-2.00,-1.00,+15.00,+16.00,+7.00,+5.00,-3.00,+1.00,+1.00,+10.00
