+10.00,+5.00,+0.00,-1.00,-1.00,+1.00,+1.00,+2.00,-1.00,-2.00,-2.00,-1.00,-1.00,+0.00,+0.00,-4.00
-9.00,-3.00,+0.00,+0.00,-1.00,-1.00,-2.00,-7.00,-3.00,-4.00,-2.00,-3.00,-1.00,-1.00,-1.00,-1.00
-4.00,+0.00,+0.00,-3.00,-1.00,+0.00,-2.00,-1.00,-1.00,-2.00,-4.00,-2.00,-1.00,+0.00,+2.00,+1.00
-12.00,-4.00,-2.00,-2.00,-3.00,-2.00,-2.00,-3.00,+1.00,-1.00,-2.00,+0.00,-1.00,-2.00,-3.00,+2.00
-6.00,-8.00,-1.00,+0.00,-1.00,-1.00,+0.00,-1.00,-1.00,-1.00,-1.00,-2.00,-1.00,-2.00,-1.00,-4.00
+8.00,-1.00,-1.00,+0.00,+0.00,+0.00,+0.00,+0.00,-1.00,-4.00,-3.00,-3.00,-2.00,-1.00,-1.00,-5.00
+16.00,+6.00,+0.00,-1.00,+0.00,+0.00,-1.00,+2.00,-6.00,+2.00,+3.00,-1.00,+1.00,+1.00,-1.00,-5.00
-2.00,+4.00,-3.00,-4.00,-2.00,+0.00,-3.00,-3.00,+0.00,+3.00,+3.00,+0.00,+0.00,-2.00,-3.00,-1.00
-7.00,+4.00,+2.00,-2.00,-1.00,-1.00,-1.00,+3.00,-5.00,-18.00,-6.00,+0.00,+0.00,-2.00,+3.00,+8.00
-8.00,-10.00,+0.00,-2.00,-1.00,-2.00,-3.00,-1.00,+1.00,+0.00,-4.00,-2.00,-1.00,-1.00,+1.00,+4.00
+2.00,-7.00,-3.00,+2.00,+1.00,+1.00,+1.00,+2.00,+0.00,-11.00,-5.00,-1.00,-1.00,+0.00,-1.00,-6.00
-1.00,+1.00,+1.00,+1.00,+0.00,-2.00,+1.00,+0.00,-9.00,-44.00,-3.00,-2.00,-1.00,-1.00,-2.00,-2.00
-1.00,-1.00,-2.00,+1.00,-2.00,-2.00,-2.00,-2.00,+9.00,+91.00,+11.00,+2.00,-1.00,+1.00,+1.00,-1.00
+8.00,+6.00,+2.00,-2.00,-1.00,-1.00,+1.00,+2.00,+0.00,+10.00,+2.00,-1.00,-2.00,-3.00,-2.00,-3.00
-2.00,-1.00,+0.00,-2.00,-2.00,-2.00,+0.00,-2.00,+1.00,+6.00,+0.00,-1.00,-1.00,-1.00,+1.00,+2.00
+6.00,-2.00,-1.00,+0.00,-1.00,+0.00,-1.00,+1.00,-5.00,-2.00,+0.00,-1.00,-1.00,+0.00,-1.00,-1.00
-3.00,-1.00,+0.00,-1.00,+1.00,-2.00,-2.00,-4.00,-5.00,-34.00,-6.00,-2.00,-2.00,-3.00,-2.00,-4.00
+4.00,-5.00,-1.00,-1.00,-2.00,-1.00,-1.00,+0.00,-3.00,-8.00,+0.00,-1.00,-1.00,+0.00,-1.00,-2.00
-4.00,-4.00,-3.00,-1.00,-1.00,+0.00,-1.00,-3.00,+0.00,+3.00,-2.00,-2.00,-1.00,-2.00,+0.00,+1.00
+4.00,+1.00,-2.00,-1.00,+2.00,+2.00,-4.00,+3.00,+3.00,+2.00,-4.00,-1.00,-1.00,-3.00,-3.00,-1.00
-9.00,-4.00,-1.00,-2.00,+0.00,-2.00,-2.00,-4.00,-2.00,-13.00,-1.00,-3.00,-2.00,-2.00,-1.00,-3.00
+1.00,-3.00,-3.00,-1.00,-2.00,+0.00,+0.00,+0.00,+2.00,+8.00,-2.00,+0.00,+0.00,-3.00,-1.00,+0.00
-8.00,-11.00,-1.00,+0.00,+0.00,+0.00,-2.00,-5.00,-2.00,-10.00,-2.00,-3.00,-2.00,-1.00,-3.00,-3.00
+6.00,+6.00,-1.00,+0.00,+0.00,+1.00,+0.00,+3.00,-2.00,+7.00,-2.00,-2.00,-1.00,+3.00,+2.00,+1.00
-21.00,-33.00,-8.00,-3.00,-6.00,-10.00,+7.00,-4.00,-6.00,-6.00,+0.00,-1.00,+0.00,+1.00,-5.00,-12.00
+7.00,-14.00,-4.00,-2.00,-1.00,-5.00,-26.00,-5.00,+4.00,-12.00,-5.00,+0.00,+0.00,+1.00,+3.00,+7.00
+27.00,+28.00,+11.00,+0.00,-6.00,+0.00,+41.00,+4.00,+11.00,+4.00,-2.00,-3.00,-1.00,+3.00,-2.00,-2.00
+7.00,+36.00,+5.00,+2.00,+7.00,-1.00,+3.00,+6.00,-36.00,+0.00,-3.00,+0.00,-1.00,-1.00,+1.00,-3.00
+5.00,+19.00,+5.00,+1.00,+1.00,+3.00,+9.00,+2.00,+13.00,-17.00,-2.00,+2.00,+1.00,-25.00,-51.00,+6.00
-18.00,-36.00,-8.00,-1.00,+2.00,-3.00,+10.00,+6.00,+4.00,+8.00,+5.00,-6.00,-1.00,+17.00,+13.00,+6.00
+3.00,+56.00,+2.00,+1.00,-6.00,+1.00,+6.00,-3.00,-18.00,+21.00,+2.00,+3.00,-2.00,+2.00,+10.00,+0.00
+7.00,-22.00,+0.00,-2.00,+0.00,+0.00,+2.00,-3.00,+21.00,+12.00,-3.00,+5.00,-3.00,-5.00,-42.00,-5.00
-2.00,-8.00,-6.00,-6.00,-21.00,-3.00,+12.00,-1.00,-40.00,-32.00,-1.00,-2.00,+4.00,+3.00,+11.00,-5.00
-6.00,+0.00,-1.00,+2.00,+11.00,+3.00,+4.00,+1.00,-7.00,-2.00,-3.00,-1.00,-3.00,-10.00,-9.00,-10.00
-15.00,-30.00,-6.00,-3.00,+2.00,-1.00,-19.00,-4.00,+18.00,-3.00,-5.00,+1.00,-5.00,-2.00,-3.00,+6.00
+2.00,+2.00,+2.00,+1.00,+1.00,+1.00,+2.00,+0.00,+0.00,+1.00,+1.00,-9.00,+1.00,-9.00,-1.00,-3.00
-7.00,+3.00,-2.00,+0.00,+3.00,+0.00,-20.00,-6.00,+7.00,-2.00,-3.00,-2.00,-1.00,+5.00,+5.00,+1.00
+2.00,+2.00,-1.00,-2.00,-7.00,-1.00,+0.00,-5.00,+4.00,-5.00,+0.00,+2.00,+1.00,-5.00,-5.00,+2.00
-6.00,-8.00,-2.00,-1.00,+0.00,-2.00,-13.00,+2.00,-13.00,+0.00,+2.00,-3.00,+1.00,+3.00,+14.00,-5.00
-12.00,-4.00,-3.00,-1.00,-5.00,-4.00,+0.00,-5.00,+11.00,-3.00,-3.00,+1.00,-4.00,+2.00,+2.00,-1.00
+6.00,-11.00,+0.00,+1.00,-1.00,-1.00,-5.00,+4.00,+6.00,+2.00,-1.00,-2.00,-3.00,+1.00,+1.00,-4.00
-5.00,+13.00,+2.00,+0.00,+1.00,-6.00,-13.00,-10.00,-7.00,-2.00,-2.00,-1.00,+1.00,+4.00,+8.00,-2.00
-3.00,-1.00,+0.00,-2.00,-1.00,+28.00,+19.00,+2.00,-3.00,-9.00,+1.00,+2.00,-1.00,-8.00,-18.00,-3.00
-14.00,-12.00,-6.00,-3.00,-34.00,-12.00,-3.00,-11.00,+4.00,+3.00,+1.00,-2.00,-2.00,+6.00,+10.00,+4.00
+17.00,+12.00,+3.00,-2.00,+24.00,+12.00,+23.00,+4.00,-10.00,-2.00,-3.00,-1.00,-5.00,-12.00,+6.00,+1.00
-16.00,-28.00,+1.00,+4.00,+37.00,-1.00,+19.00,+7.00,-16.00,-4.00,-2.00,+14.00,+12.00,+18.00,+66.00,-6.00
-6.00,-7.00,-3.00,+4.00,+34.00,+0.00,-37.00,+0.00,-1.00,-28.00,-2.00,-4.00,+15.00,+11.00,-46.00,+0.00
-4.00,-29.00,+1.00,-5.00,+1.00,+9.00,+15.00,+5.00,+67.00,+10.00,-4.00,-13.00,-21.00,-26.00,-10.00,+16.00
+37.00,+42.00,+1.00,+4.00,-2.00,-9.00,-23.00,+0.00,+6.00,+60.00,+6.00,-3.00,+12.00,+19.00,+79.00,+6.00
+43.00,+75.00,+15.00,+5.00,-26.00,+2.00,-3.00,+9.00,-47.00,-26.00,-2.00,+16.00,-27.00,-56.00,-20.00,-12.00
-18.00,-39.00,-3.00,+2.00,+8.00,-3.00,-8.00,-6.00,+10.00,+23.00,+8.00,-4.00,+24.00,+34.00,+8.00,+7.00
+6.00,-25.00,-4.00,+3.00,+7.00,-3.00,-23.00,+7.00,-20.00,-45.00,-2.00,-26.00,+17.00,+12.00,+20.00,-9.00
-13.00,+9.00,-3.00,-3.00,-16.00,-2.00,-8.00,-4.00,-10.00,-39.00,-3.00,-14.00,-16.00,-11.00,-25.00,+0.00
-18.00,-32.00,-6.00,-8.00,-18.00,-3.00,+2.00,-3.00,+30.00,+101.00,+6.00,+1.00,+1.00,-2.00,-17.00,+2.00
-1.00,-2.00,-2.00,-1.00,-6.00,-7.00,-8.00,+0.00,+43.00,-9.00,+0.00,+8.00,-12.00,-20.00,+12.00,-1.00
+18.00,+7.00,+0.00,-2.00,-16.00,+2.00,-3.00,-1.00,+1.00,+7.00,+0.00,+5.00,-11.00,-4.00,-19.00,-6.00
-3.00,-22.00,-5.00,-3.00,-9.00,+0.00,+0.00,-4.00,+7.00,-9.00,-1.00,+1.00,-5.00,+0.00,-3.00,-3.00
+3.00,-6.00,+0.00,-1.00,+2.00,-3.00,+3.00,-3.00,-33.00,-41.00,-2.00,+3.00,+1.00,+8.00,-14.00,-7.00
-12.00,+23.00,-2.00,-9.00,-53.00,-16.00,+2.00,-2.00,+5.00,-5.00,-7.00,+1.00,-11.00,-9.00,-2.00,-3.00
+20.00,-37.00,-1.00,+3.00,+67.00,+9.00,-12.00,-1.00,-6.00,-5.00,+0.00,+10.00,+4.00,+22.00,+13.00,+3.00
+1.00,+19.00,-6.00,-1.00,+2.00,+4.00,+29.00,-5.00,+14.00,-21.00,-6.00,+14.00,+1.00,+10.00,-14.00,-7.00
-23.00,+23.00,+1.00,-2.00,+8.00,+6.00,-64.00,-4.00,-18.00,+11.00,+0.00,-29.00,-14.00,+0.00,+13.00,+9.00
+6.00,-3.00,-7.00,-2.00,-26.00,-25.00,+7.00,-2.00,+25.00,-8.00,-6.00,+0.00,+14.00,-9.00,+1.00,-5.00
+15.00,+49.00,+16.00,+7.00,+12.00,+10.00,+16.00,-3.00,-53.00,-48.00,-13.00,-3.00,-1.00,-25.00,+6.00,+2.00
-30.00,+20.00,-1.00,-1.00,+6.00,+1.00,+24.00,+3.00,-16.00,+88.00,+10.00,+33.00,+13.00,-17.00,-7.00,-1.00
+8.00,+4.00,-4.00,-4.00,-25.00,+12.00,-15.00,-7.00,+50.00,+2.00,+2.00,-21.00,+23.00,+78.00,-61.00,+6.00
-2.00,-52.00,-2.00,+1.00,+14.00,+7.00,+6.00,+1.00,-5.00,-4.00,-1.00,-10.00,-25.00,+16.00,+8.00,+3.00
-33.00,-9.00,-7.00,-9.00,-33.00,-19.00,-16.00,-5.00,-37.00,+17.00,+3.00,+3.00,+9.00,-14.00,+15.00,-11.00
+12.00,-14.00,-1.00,+0.00,+23.00,-1.00,-26.00,-5.00,+38.00,-40.00,-5.00,-8.00,-4.00,-16.00,-25.00,+0.00
-13.00,+30.00,-5.00,-4.00,-23.00,-7.00,+31.00,+3.00,+1.00,+3.00,-8.00,+5.00,-5.00,-31.00,+21.00,-12.00
+20.00,+60.00,+3.00,+0.00,+21.00,-5.00,+5.00,-4.00,-78.00,-33.00,+0.00,-12.00,-11.00,+17.00,-3.00,-9.00
-11.00,-40.00,-6.00,+3.00,-28.00,+5.00,-21.00,+3.00,+90.00,-9.00,-1.00,-4.00,-7.00,+17.00,-19.00,+4.00
+57.00,-9.00,+6.00,-9.00,-66.00,-9.00,-47.00,+10.00,-6.00,+59.00,-2.00,-12.00,-12.00,+13.00,+5.00,+4.00
-13.00,-21.00,-5.00,+6.00,+77.00,-6.00,+47.00,+5.00,+4.00,+65.00,+5.00,+8.00,-20.00,+15.00,+5.00,+6.00
+25.00,+27.00,+12.00,+2.00,+35.00,+1.00,-15.00,+1.00,-51.00,-75.00,-3.00,+53.00,+44.00,-12.00,-13.00,-12.00
-19.00,-60.00,-8.00,-4.00,-27.00,+17.00,+22.00,-8.00,-25.00,+78.00,+1.00,-55.00,-39.00,+25.00,+56.00,+6.00
+6.00,+59.00,+16.00,+6.00,+11.00,+7.00,+9.00,-5.00,+30.00,-91.00,-6.00,-10.00,-32.00,-42.00,-18.00,-4.00
+22.00,-13.00,+4.00,-1.00,-33.00,-11.00,-34.00,+5.00,+84.00,-34.00,+5.00,-2.00,+29.00,+12.00,-27.00,+8.00
-10.00,+0.00,+0.00,+6.00,+23.00,+2.00,+8.00,-1.00,+21.00,-10.00,+0.00,+9.00,+22.00,-7.00,+4.00,+1.00
-20.00,-30.00,-4.00,-3.00,-9.00,-11.00,-6.00,-4.00,-57.00,+126.00,+10.00,+34.00,+11.00,+18.00,+2.00,+6.00
+4.00,-37.00,-9.00,-1.00,+3.00,+2.00,-24.00,+4.00,-35.00,+18.00,+8.00,-39.00,+25.00,-36.00,+10.00,+8.00
+1.00,-6.00,-6.00,-7.00,-17.00,+6.00,+37.00,-9.00,+0.00,-72.00,-4.00,+7.00,+11.00,+7.00,+0.00,+5.00
-51.00,-53.00,-7.00,-3.00,+29.00,+0.00,-51.00,-6.00,+0.00,+79.00,+6.00,-11.00,-34.00,-6.00,-12.00,+10.00
+16.00,+7.00,-8.00,+0.00,-10.00,-28.00,-9.00,-1.00,-50.00,-56.00,-1.00,+27.00,+38.00,-26.00,-28.00,-29.00
-21.00,-16.00,-20.00,-5.00,-20.00,-9.00,+36.00,-1.00,+9.00,-100.00,-18.00,-3.00,-8.00,-15.00,-16.00,-3.00
-22.00,-28.00,+20.00,+8.00,+46.00,+27.00,-8.00,-9.00,-11.00,+77.00,+5.00,-46.00,-14.00,+14.00,-40.00,-16.00
-21.00,-103.00,-1.00,-8.00,-63.00,-8.00,+17.00,-2.00,-66.00,+41.00,+8.00,-9.00,+25.00,-32.00,+67.00,-13.00
+13.00,+104.00,+1.00,+7.00,+43.00,+6.00,+85.00,+10.00,+88.00,-38.00,-4.00,+11.00,-2.00,-21.00,-64.00,+6.00
+7.00,-6.00,+5.00,+1.00,+9.00,-10.00,-80.00,-8.00,-20.00,+59.00,-2.00,+21.00,-1.00,+78.00,+36.00,-10.00
-4.00,-38.00,-14.00,-2.00,-23.00,-24.00,-31.00,-9.00,-17.00,+3.00,+23.00,+20.00,-26.00,-42.00,+4.00,+2.00
-1.00,-20.00,-1.00,-1.00,-17.00,+4.00,+42.00,+2.00,+53.00,-36.00,-7.00,-20.00,+11.00,-22.00,+3.00,-7.00
+53.00,+34.00,+8.00,-6.00,+20.00,+14.00,+8.00,+8.00,+58.00,-13.00,-1.00,-14.00,+3.00,+3.00,-16.00,+0.00
+12.00,-12.00,-1.00,+4.00,-13.00,-9.00,-49.00,+2.00,-76.00,+29.00,-7.00,+16.00,-15.00,-26.00,+12.00,-1.00
-28.00,+26.00,+1.00,-8.00,-50.00,-13.00,+14.00,-2.00,+12.00,+22.00,-7.00,-10.00,-23.00,+1.00,-24.00,-3.00
+13.00,-38.00,-5.00,+11.00,+16.00,+10.00,-28.00,+8.00,-76.00,-34.00,-4.00,-5.00,-18.00,-30.00,-7.00,-17.00
+36.00,+13.00,-7.00,-3.00,+16.00,+7.00,+35.00,-12.00,+15.00,-53.00,-7.00,+27.00,+10.00,-29.00,+27.00,+6.00
+31.00,+8.00,+2.00,+4.00,+1.00,+13.00,+36.00,-1.00,-11.00,+35.00,+17.00,+18.00,+8.00,+72.00,-61.00,-6.00
+53.00,-2.00,+1.00,+3.00,+29.00,+17.00,+83.00,+23.00,+87.00,-12.00,-28.00,-36.00,-27.00,-18.00,+120.00,+13.00
+31.00,+9.00,+8.00,+0.00,-23.00,-18.00,+46.00,-4.00,+9.00,+110.00,+17.00,-27.00,+1.00,-41.00,-106.00,+19.00
-22.00,-17.00,-6.00,-4.00,-2.00,-9.00,-71.00,-6.00,+24.00,+72.00,+3.00,-9.00,-1.00,-1.00,-27.00,+15.00
-28.00,+28.00,-3.00,-2.00,+23.00,+5.00,+1.00,+1.00,+12.00,-38.00,+0.00,-2.00,+21.00,+48.00,+0.00,-4.00
-25.00,-43.00,-10.00,-9.00,-66.00,-26.00,-13.00,-6.00,-127.00,-21.00,+2.00,+9.00,-22.00,-82.00,-19.00,-22.00
+0.00,+64.00,-3.00,+4.00,+50.00,+8.00,+51.00,-2.00,+61.00,-52.00,-17.00,-7.00,-18.00,+22.00,+19.00,-9.00
-37.00,-19.00,+5.00,+4.00,-12.00,+11.00,-66.00,+3.00,-78.00,-109.00,-15.00,+11.00,+14.00,+58.00,+59.00,-14.00
-21.00,-5.00,+4.00,+1.00,+10.00,+11.00,+29.00,-4.00,+69.00,+114.00,+26.00,-24.00,-32.00,-5.00,-38.00,-23.00
+25.00,+30.00,+14.00,+7.00,+29.00,-3.00,-104.00,-4.00,-80.00,-16.00,+13.00,+38.00,+19.00,-71.00,+2.00,+26.00
+10.00,+38.00,-3.00,-6.00,-12.00,+1.00,+43.00,-9.00,+54.00,-124.00,-12.00,+5.00,+21.00,-37.00,-30.00,+20.00
+21.00,+56.00,+10.00,-4.00,-10.00,-5.00,+49.00,-5.00,+45.00,+79.00,+11.00,-5.00,-23.00,-11.00,-37.00,+25.00
-81.00,+9.00,-10.00,+2.00,+3.00,-7.00,+38.00,-9.00,+66.00,-61.00,-3.00,+4.00,-8.00,-1.00,+6.00,+12.00
-34.00,+20.00,+12.00,+0.00,-30.00,-2.00,+5.00,+20.00,-79.00,-14.00,-22.00,-4.00,+28.00,+16.00,+55.00,-12.00
-77.00,-40.00,-13.00,-4.00,+31.00,-3.00,-33.00,-7.00,+30.00,+59.00,+6.00,-18.00,-33.00,+14.00,+8.00,-18.00
-36.00,-13.00,+10.00,+1.00,+21.00,+8.00,-48.00,+2.00,+9.00,+76.00,+12.00,+7.00,+43.00,+6.00,-12.00,+23.00
+36.00,+36.00,+5.00,-7.00,-26.00,+3.00,+0.00,+1.00,-40.00,-34.00,-9.00,-12.00,-13.00,-34.00,+9.00,+12.00
+39.00,+19.00,-7.00,+4.00,+21.00,+21.00,-67.00,-10.00,+68.00,+28.00,+4.00,+20.00,-4.00,-4.00,-1.00,-12.00
-15.00,-17.00,+0.00,-11.00,-19.00,-20.00,+12.00,-4.00,-73.00,-68.00,-24.00,-10.00,-14.00,+19.00,-24.00,+0.00
-50.00,-54.00,-14.00,-2.00,+2.00,-11.00,-26.00,-23.00,+14.00,+56.00,+18.00,-1.00,+12.00,+14.00,+24.00,-30.00
-40.00,-15.00,-4.00,-6.00,+5.00,-20.00,+9.00,+14.00,-23.00,-107.00,-24.00,+3.00,+15.00,-21.00,-25.00,+11.00
-35.00,-30.00,+0.00,+2.00,+14.00,+6.00,+20.00,-12.00,-99.00,+24.00,+0.00,-14.00,-16.00,+69.00,-38.00,-28.00
+28.00,+65.00,-2.00,+0.00,-13.00,-9.00,-20.00,+15.00,+10.00,+22.00,-5.00,+19.00,-30.00,-45.00,-66.00,-10.00
-20.00,-60.00,+3.00,+2.00,-27.00,-9.00,-1.00,+8.00,+51.00,-79.00,-9.00,-8.00,+1.00,-4.00,+53.00,+33.00
-30.00,-30.00,+2.00,+3.00,+28.00,+19.00,-43.00,-5.00,-83.00,-15.00,+0.00,-3.00,+13.00,+13.00,-41.00,-36.00
+42.00,+37.00,-8.00,-5.00,+8.00,-1.00,+42.00,+1.00,+9.00,-79.00,+3.00,+6.00,+36.00,+54.00,+36.00,+47.00
+43.00,+29.00,-10.00,-10.00,-30.00,-5.00,+2.00,+3.00,+80.00,-77.00,-6.00,+6.00,-2.00,-57.00,+53.00,+10.00
+52.00,+74.00,+7.00,+1.00,-8.00,-1.00,+33.00,+5.00,-34.00,-42.00,-8.00,-5.00,-30.00,+9.00,-14.00,-29.00
+102.00,-109.00,-14.00,-7.00,-21.00,-17.00,-36.00,-7.00,+82.00,-39.00,-12.00,+7.00,+4.00,+14.00,-42.00,-16.00
+118.00,+21.00,+8.00,-2.00,+3.00,-19.00,-40.00,-4.00,+88.00,-69.00,-9.00,-41.00,-1.00,-41.00,+11.00,+8.00
-44.00,+16.00,+2.00,+4.00,-13.00,+13.00,-39.00,+6.00,+39.00,+127.00,+11.00,+1.00,-8.00,+33.00,+13.00,-14.00
-93.00,-35.00,+1.00,+0.00,+5.00,-19.00,-67.00,+9.00,+105.00,-116.00,-14.00,+11.00,-20.00,+19.00,+18.00,+18.00
-48.00,+25.00,-4.00,-2.00,+10.00,+3.00,+104.00,+10.00,-1.00,+81.00,+8.00,-2.00,-2.00,+31.00,+52.00,+14.00
+46.00,-47.00,-8.00,-1.00,-5.00,+10.00,+29.00,+5.00,-87.00,+79.00,+7.00,+4.00,+10.00,+15.00,-40.00,-40.00
-17.00,+22.00,-6.00,-2.00,-9.00,+5.00,-9.00,+0.00,-96.00,-26.00,-3.00,+12.00,+6.00,+11.00,-30.00,+31.00
-63.00,+18.00,+6.00,-1.00,-20.00,-3.00,+91.00,+0.00,-128.00,+15.00,-10.00,-22.00,-33.00,-67.00,-7.00,-43.00
-126.00,-14.00,+6.00,+9.00,+13.00,-21.00,-57.00,+12.00,-79.00,+30.00,-6.00,-17.00,+10.00,-30.00,-3.00,+14.00
-128.00,+4.00,-12.00,-7.00,-38.00,-4.00,-78.00,-15.00,-36.00,-116.00,+2.00,+18.00,+0.00,+14.00,+22.00,+5.00
-112.00,-94.00,+8.00,-1.00,+25.00,-2.00,+29.00,+5.00,+54.00,+127.00,+28.00,+26.00,+5.00,+44.00,+14.00,-4.00
-4.00,+54.00,+2.00,+7.00,+10.00,+11.00,+61.00,+15.00,-13.00,+42.00,-3.00,-11.00,+26.00,-23.00,+68.00,+8.00
+9.00,+87.00,+14.00,+4.00,+4.00,-2.00,-33.00,-23.00,+127.00,-68.00,-20.00,+41.00,+12.00,+36.00,-31.00,+16.00
+21.00,+12.00,-8.00,-2.00,-16.00,+15.00,+3.00,-8.00,+18.00,+98.00,+24.00,-57.00,+11.00,+6.00,+1.00,+6.00
+106.00,-33.00,-6.00,+5.00,+17.00,+23.00,-15.00,+11.00,-27.00,-128.00,-20.00,+6.00,+14.00,+66.00,+38.00,+57.00
+33.00,-31.00,-3.00,-4.00,-30.00,-8.00,+15.00,-12.00,+67.00,+36.00,+0.00,+5.00,-23.00,-84.00,+41.00,-14.00
+82.00,+29.00,+0.00,-4.00,-17.00,-13.00,-82.00,-5.00,-117.00,+43.00,+18.00,+9.00,-2.00,+12.00,+86.00,-4.00
+18.00,-14.00,-4.00,-1.00,+27.00,+13.00,+29.00,+8.00,+107.00,+14.00,-19.00,+13.00,+43.00,+17.00,-3.00,+29.00
-20.00,-2.00,+2.00,-1.00,-30.00,-5.00,-10.00,-10.00,-17.00,-92.00,-4.00,-7.00,+0.00,+34.00,-37.00,-21.00
-63.00,-85.00,-12.00,-8.00,+10.00,+0.00,-21.00,-5.00,-55.00,+59.00,+0.00,-3.00,-24.00,+60.00,-54.00,-38.00
-36.00,-7.00,-3.00,-2.00,-2.00,+17.00,+112.00,-6.00,+65.00,+5.00,+3.00,-2.00,+14.00,-13.00,+90.00,+32.00
+21.00,+25.00,+6.00,-2.00,-25.00,-6.00,-82.00,-1.00,+31.00,-116.00,-11.00,+18.00,-39.00,-18.00,+27.00,-36.00
+48.00,-39.00,-6.00,-5.00,-2.00,-5.00,+60.00,-11.00,+25.00,+58.00,+3.00,-22.00,-24.00,-9.00,-52.00,+3.00
+127.00,+16.00,-1.00,+6.00,+8.00,+20.00,+26.00,+1.00,-100.00,-89.00,-9.00,+6.00,-4.00,+0.00,+27.00,-4.00
+35.00,-30.00,-2.00,-2.00,-2.00,+4.00,+3.00,-14.00,+36.00,+88.00,+5.00,+8.00,-45.00,-79.00,-97.00,-11.00
+28.00,-48.00,-5.00,-5.00,-8.00,-13.00,+2.00,+13.00,-7.00,+9.00,+9.00,-8.00,+44.00,-22.00,+6.00,-1.00
-16.00,-6.00,+6.00,-3.00,-39.00,-30.00,-123.00,-19.00,+48.00,-8.00,-4.00,+2.00,+55.00,+68.00,-29.00,-7.00
+47.00,-16.00,-28.00,-6.00,+47.00,+1.00,-20.00,-3.00,+99.00,+33.00,+14.00,+32.00,+8.00,-1.00,-17.00,+1.00
+91.00,-23.00,+3.00,+6.00,+46.00,+18.00,+73.00,+11.00,+46.00,-99.00,-19.00,-22.00,-11.00,+14.00,-21.00,+5.00
+107.00,-42.00,-3.00,-3.00,-7.00,-4.00,+65.00,-3.00,-52.00,+92.00,+11.00,+1.00,-27.00,+5.00,-20.00,-26.00
+75.00,+60.00,+0.00,+4.00,+1.00,+5.00,-36.00,+0.00,-87.00,+56.00,-8.00,-15.00,+27.00,-40.00,+11.00,-3.00
+6.00,-83.00,-9.00,-9.00,-30.00,-28.00,-24.00,-8.00,-128.00,-85.00,+2.00,+32.00,-3.00,+5.00,-79.00,-19.00
-74.00,+88.00,+9.00,+3.00,-21.00,+1.00,-18.00,+14.00,-46.00,-31.00,-5.00,-35.00,+4.00,-38.00,-24.00,-5.00
-108.00,-46.00,-15.00,-6.00,+32.00,+2.00,+58.00,-11.00,+93.00,+9.00,-18.00,+13.00,-19.00,-53.00,-33.00,+3.00
-90.00,+26.00,+9.00,+5.00,+19.00,+24.00,+65.00,+22.00,-100.00,+45.00,+14.00,-2.00,+7.00,+39.00,+60.00,+5.00
-39.00,-10.00,-9.00,-4.00,+1.00,-8.00,-72.00,-27.00,-54.00,-87.00,-19.00,-10.00,-6.00,+77.00,-121.00,-41.00
+23.00,-9.00,+8.00,-3.00,-15.00,+3.00,-33.00,+17.00,+79.00,+69.00,+18.00,+20.00,+61.00,+42.00,+34.00,+51.00
-54.00,+41.00,+6.00,+9.00,+26.00,-2.00,+33.00,+0.00,-80.00,-54.00,-24.00,-49.00,-23.00,+14.00,-13.00,-21.00
-43.00,-4.00,+0.00,-3.00,-12.00,-6.00,-66.00,-9.00,+127.00,+1.00,+5.00,-1.00,-13.00,-9.00,+103.00,+10.00
+28.00,+6.00,-8.00,-5.00,-38.00,-8.00,-47.00,-5.00,+39.00,+106.00,+12.00,+17.00,+27.00,+16.00,-15.00,+14.00
-73.00,-83.00,-17.00,-13.00,+5.00,-9.00,-70.00,-4.00,+56.00,+22.00,-7.00,-42.00,+2.00,-53.00,-73.00,-10.00
-39.00,+20.00,-3.00,+5.00,+26.00,-14.00,-97.00,-6.00,+127.00,+36.00,+6.00,+32.00,-41.00,+41.00,+5.00,+2.00
+3.00,-12.00,+11.00,-2.00,-3.00,+17.00,-74.00,+0.00,+123.00,-93.00,-28.00,+27.00,+48.00,-70.00,-19.00,-16.00
-30.00,+55.00,+12.00,+5.00,+4.00,+0.00,+81.00,+2.00,+26.00,+117.00,+16.00,-26.00,+8.00,-10.00,-76.00,-8.00
-29.00,-26.00,-6.00,+3.00,+17.00,-12.00,-66.00,-8.00,-76.00,-128.00,-18.00,-2.00,+17.00,+66.00,+19.00,-21.00
-64.00,+10.00,+4.00,-5.00,-25.00,-6.00,-33.00,+7.00,-65.00,+26.00,+2.00,+14.00,-62.00,-58.00,-12.00,-11.00
+33.00,-72.00,-10.00,-3.00,+2.00,-14.00,+11.00,-8.00,-118.00,+35.00,+23.00,-4.00,-42.00,-19.00,-57.00,+1.00
+39.00,+64.00,+7.00,+1.00,+24.00,+1.00,-82.00,+4.00,-25.00,-110.00,-19.00,-2.00,-43.00,-6.00,+52.00,+16.00
+3.00,+14.00,+1.00,+5.00,+15.00,-9.00,-6.00,-9.00,-95.00,-14.00,+5.00,+9.00,+2.00,-22.00,-18.00,-19.00
+36.00,-26.00,-1.00,+1.00,-19.00,+14.00,+107.00,+13.00,-56.00,+40.00,+5.00,-15.00,+36.00,-11.00,+12.00,+1.00
+15.00,+3.00,-6.00,-8.00,-35.00,-17.00,-69.00,-11.00,-62.00,+115.00,+4.00,-14.00,-58.00,+22.00,+26.00,-14.00
+31.00,-27.00,-3.00,+4.00,+75.00,+32.00,+0.00,+12.00,-34.00,+38.00,+11.00,+1.00,+20.00,-4.00,+54.00,+26.00
+58.00,-4.00,-1.00,-1.00,-34.00,-2.00,+47.00,+8.00,-48.00,-58.00,-14.00,-11.00,-23.00,-64.00,+42.00,-10.00
+58.00,+22.00,+7.00,+1.00,+10.00,+1.00,-2.00,-4.00,-36.00,-54.00,-15.00,+22.00,-13.00,+76.00,-32.00,-4.00
+79.00,+26.00,+2.00,+0.00,-19.00,-7.00,+80.00,+7.00,-38.00,-68.00,+2.00,-34.00,+70.00,-20.00,-11.00,-5.00
+12.00,-18.00,+6.00,-8.00,-34.00,+2.00,+89.00,+3.00,-5.00,+58.00,-1.00,-29.00,+2.00,-48.00,+62.00,+41.00
+47.00,-35.00,-15.00,+6.00,+9.00,+4.00,-15.00,-2.00,-32.00,-35.00,+5.00,+25.00,-11.00,+20.00,-53.00,-26.00
+19.00,+11.00,+3.00,-2.00,+0.00,+4.00,+61.00,-2.00,+5.00,-57.00,-26.00,+55.00,+44.00,-26.00,+5.00,+26.00
+43.00,+40.00,+0.00,+5.00,+57.00,+15.00,+35.00,+28.00,-20.00,+100.00,+22.00,-58.00,-40.00,-17.00,-90.00,-25.00
+31.00,-72.00,-8.00,-2.00,-11.00,-1.00,+6.00,-9.00,+4.00,-33.00,+4.00,-12.00,-50.00,+46.00,-84.00,+19.00
-64.00,+87.00,+31.00,+3.00,-16.00,+4.00,-17.00,-13.00,-8.00,-7.00,-13.00,-3.00,+69.00,-62.00,-56.00,-11.00
-7.00,-46.00,-11.00,-3.00,+4.00,-7.00,+18.00,-7.00,-5.00,+4.00,+6.00,-14.00,-13.00,+71.00,+8.00,-17.00
+23.00,+30.00,+10.00,+2.00,+5.00,+9.00,-7.00,+13.00,-8.00,-64.00,-13.00,+34.00,+1.00,+46.00,+3.00,+36.00
+22.00,+25.00,-6.00,-6.00,+8.00,-7.00,+11.00,+8.00,+4.00,+69.00,-2.00,-6.00,+36.00,+39.00,-61.00,-2.00
-4.00,-69.00,-8.00,-1.00,-12.00,+3.00,+64.00,+1.00,-7.00,-29.00,+19.00,+5.00,-71.00,-19.00,+25.00,-18.00
-46.00,-22.00,-3.00,+1.00,+13.00,-12.00,+30.00,+3.00,+0.00,-22.00,-4.00,-11.00,+37.00,-18.00,-92.00,+16.00
-15.00,+27.00,+5.00,+2.00,+10.00,+13.00,+36.00,-7.00,-9.00,+78.00,+3.00,+14.00,+10.00,+6.00,+61.00,-4.00
-18.00,+54.00,+0.00,-5.00,-49.00,-10.00,-59.00,+4.00,+8.00,-89.00,-15.00,-19.00,-2.00,-27.00,+37.00,-12.00
+3.00,-25.00,-26.00,-15.00,+10.00,-17.00,+62.00,+5.00,-19.00,+57.00,-1.00,+6.00,-22.00,+23.00,+28.00,-6.00
-48.00,-28.00,+17.00,+6.00,+26.00,-6.00,-69.00,-6.00,+38.00,-51.00,+15.00,+26.00,-12.00,+0.00,+47.00,+30.00
+22.00,+66.00,-12.00,-5.00,+23.00,+21.00,+77.00,-5.00,+21.00,-42.00,-26.00,+10.00,-31.00,-3.00,-11.00,-30.00
-17.00,+40.00,+17.00,+2.00,-49.00,-11.00,+42.00,-6.00,-28.00,+74.00,+5.00,-40.00,-3.00,+13.00,+18.00,+5.00
+81.00,-33.00,-16.00,-4.00,+62.00,+7.00,-83.00,-12.00,-85.00,+89.00,+7.00,+12.00,+30.00,+96.00,-27.00,-12.00
+28.00,+1.00,-6.00,+1.00,-4.00,-2.00,-69.00,-3.00,+54.00,-40.00,-3.00,+6.00,-40.00,-17.00,-4.00,+13.00
-41.00,-26.00,-2.00,+6.00,+36.00,+5.00,-59.00,-5.00,-45.00,-15.00,-10.00,-38.00,-65.00,-24.00,-4.00,-24.00
-14.00,+13.00,+2.00,+1.00,-10.00,-17.00,-60.00,-9.00,-35.00,+60.00,+7.00,+10.00,+0.00,-54.00,+45.00,-10.00
-25.00,-24.00,-2.00,-4.00,-30.00,+3.00,-27.00,+1.00,-99.00,-3.00,+1.00,-16.00,+18.00,+6.00,+1.00,+3.00
+4.00,-43.00,-6.00,-8.00,+7.00,+4.00,+66.00,-8.00,+41.00,+63.00,+0.00,-15.00,+12.00,-5.00,+24.00,-14.00
-78.00,-44.00,+8.00,+3.00,+6.00,-12.00,-33.00,-12.00,-11.00,-97.00,-7.00,+26.00,+9.00,-58.00,+9.00,+24.00
-57.00,-6.00,+1.00,+2.00,+28.00,+32.00,+70.00,-5.00,+2.00,-65.00,-10.00,+5.00,+53.00,-10.00,+44.00,-36.00
-2.00,-14.00,+8.00,+5.00,-10.00,-4.00,+7.00,+12.00,-43.00,-4.00,+10.00,-4.00,-89.00,-10.00,+102.00,+47.00
+22.00,+60.00,-2.00,+0.00,-3.00,+8.00,-9.00,+9.00,-112.00,-30.00,-11.00,+10.00,-2.00,+35.00,+16.00,-22.00
+4.00,-59.00,-13.00,-7.00,-26.00,-8.00,-6.00,-4.00,+87.00,-24.00,+13.00,+3.00,+14.00,+18.00,+28.00,+8.00
+2.00,-67.00,-12.00,-2.00,-4.00,+5.00,-54.00,-7.00,+79.00,-19.00,-7.00,-14.00,+17.00,+19.00,+4.00,+21.00
-10.00,+30.00,+7.00,+0.00,-36.00,-14.00,+27.00,-5.00,+71.00,-30.00,-13.00,+9.00,+9.00,+61.00,-7.00,+4.00
+1.00,-32.00,-9.00,-3.00,-1.00,+12.00,-15.00,+3.00,-25.00,+32.00,+11.00,-24.00,+7.00,-4.00,-9.00,-9.00
+3.00,+14.00,-2.00,-7.00,-18.00,-11.00,+52.00,-6.00,-58.00,-104.00,-6.00,+2.00,+4.00,-6.00,-4.00,-16.00
-12.00,+72.00,+9.00,+8.00,+45.00,-18.00,-27.00,+13.00,+53.00,+107.00,+11.00,+14.00,-31.00,+27.00,-17.00,+6.00
-31.00,-18.00,-1.00,-4.00,+0.00,-10.00,-56.00,-17.00,-36.00,-70.00,-16.00,-16.00,-7.00,+31.00,-28.00,-23.00
+22.00,-2.00,-6.00,-5.00,+10.00,+11.00,+6.00,+1.00,+16.00,-5.00,+13.00,-5.00,+14.00,-62.00,+3.00,+42.00
+10.00,-7.00,-14.00,-6.00,-20.00,-7.00,+76.00,+1.00,+54.00,+27.00,-6.00,+33.00,+27.00,+21.00,+40.00,+4.00
+15.00,+9.00,+11.00,+0.00,-71.00,+2.00,+69.00,+32.00,+31.00,-82.00,-14.00,-57.00,+6.00,-6.00,-56.00,-6.00
-34.00,-10.00,-4.00,-2.00,+32.00,+21.00,+40.00,-9.00,-71.00,-17.00,+0.00,-21.00,+6.00,-89.00,-31.00,-23.00
+45.00,-18.00,-1.00,-1.00,-8.00,-8.00,+15.00,+7.00,-12.00,+109.00,+18.00,+26.00,-24.00,+27.00,-23.00,+8.00
-45.00,-23.00,-1.00,+3.00,+10.00,+2.00,+40.00,-5.00,-31.00,-61.00,-16.00,-22.00,-2.00,-22.00,-4.00,+1.00
+60.00,-42.00,-9.00,-5.00,-25.00,-6.00,-31.00,-7.00,-112.00,-90.00,-5.00,+15.00,+6.00,-25.00,+39.00,-2.00
-42.00,+100.00,+11.00,+4.00,+0.00,+6.00,-14.00,+13.00,-30.00,+1.00,+9.00,-4.00,-3.00,-36.00,+8.00,+18.00
+16.00,-42.00,-6.00,-2.00,+9.00,+3.00,-1.00,-4.00,+8.00,-7.00,-4.00,-16.00,+2.00,-2.00,-31.00,-30.00
-19.00,+23.00,+2.00,-2.00,-6.00,-3.00,+4.00,-1.00,-92.00,-18.00,+6.00,+16.00,+13.00,+33.00,+6.00,+12.00
+3.00,-1.00,-12.00,-5.00,+15.00,+10.00,-70.00,+1.00,-79.00,+81.00,-1.00,-2.00,-35.00,-52.00,-87.00,-14.00
+32.00,-23.00,+3.00,+2.00,-10.00,-9.00,+66.00,+17.00,+98.00,+1.00,-11.00,+9.00,+18.00,+10.00,+7.00,-1.00
-33.00,+29.00,+10.00,-4.00,-20.00,-21.00,+39.00,-6.00,-57.00,-83.00,-4.00,+4.00,+10.00,-26.00,-46.00,-19.00
+3.00,+3.00,-17.00,-2.00,+12.00,-17.00,-3.00,-25.00,+54.00,-13.00,+8.00,+3.00,+10.00,+9.00,-59.00,+20.00
-47.00,-42.00,+8.00,+11.00,+56.00,+1.00,-24.00,+17.00,+10.00,-99.00,-7.00,+34.00,+26.00,+10.00,+28.00,-14.00
+0.00,-21.00,-5.00,-10.00,-71.00,+0.00,+64.00,-9.00,+104.00,-13.00,-6.00,-13.00,+18.00,-22.00,+52.00,+17.00
-17.00,+31.00,+0.00,+3.00,+33.00,+11.00,+3.00,-3.00,-60.00,+34.00,+7.00,-24.00,+8.00,+34.00,+17.00,+4.00
+62.00,-16.00,-5.00,-2.00,+4.00,+5.00,-4.00,+5.00,-18.00,-15.00,-19.00,+52.00,-8.00,+5.00,+1.00,-15.00
-20.00,+32.00,+8.00,-5.00,-22.00,-21.00,+32.00,-9.00,-70.00,+0.00,+3.00,-37.00,-12.00,+58.00,+1.00,-9.00
+47.00,-50.00,-11.00,+1.00,+4.00,+6.00,-26.00,+6.00,+54.00,+97.00,-4.00,+6.00,+5.00,+15.00,-6.00,-15.00
-5.00,+48.00,+8.00,-2.00,-16.00,-2.00,-78.00,-6.00,+127.00,-115.00,-23.00,-7.00,+11.00,-3.00,-10.00,+28.00
-7.00,-38.00,-2.00,-1.00,-8.00,+10.00,-101.00,+5.00,-128.00,+64.00,+30.00,+4.00,+0.00,+16.00,-13.00,-20.00
+10.00,+83.00,+1.00,-2.00,+33.00,+11.00,+32.00,-1.00,+73.00,-90.00,-12.00,+34.00,+20.00,-4.00,+87.00,+18.00
-33.00,-42.00,+4.00,+2.00,-45.00,-4.00,+44.00,-3.00,+73.00,+127.00,+20.00,-4.00,+13.00,-5.00,+74.00,+9.00
-1.00,-27.00,-13.00,-6.00,-27.00,-20.00,+21.00,-7.00,-40.00,-113.00,-22.00,-9.00,-74.00,+6.00,+42.00,+1.00
-8.00,+23.00,+11.00,+6.00,-3.00,-4.00,-8.00,+7.00,-49.00,+127.00,+18.00,-20.00,-11.00,+20.00,-103.00,+9.00
+28.00,-19.00,-7.00,+0.00,-19.00,-6.00,+30.00,-4.00,+1.00,-80.00,-10.00,+10.00,-15.00,-30.00,-7.00,-13.00
+1.00,-18.00,-4.00,-2.00,+6.00,+6.00,-65.00,-22.00,+24.00,+24.00,+12.00,-9.00,-24.00,+5.00,-25.00,+5.00
-37.00,+46.00,+9.00,-3.00,-37.00,-14.00,+7.00,-1.00,-83.00,+97.00,+6.00,-8.00,+53.00,+23.00,+1.00,-4.00
+32.00,-8.00,-5.00,+4.00,+2.00,-15.00,-65.00,-2.00,-23.00,-23.00,-8.00,+23.00,-6.00,-42.00,+70.00,-1.00
+7.00,-20.00,-8.00,-8.00,-29.00,-13.00,+31.00,-10.00,+120.00,+3.00,-4.00,+6.00,-19.00,+4.00,+64.00,+29.00
-28.00,+41.00,+14.00,+9.00,+34.00,+16.00,-39.00,-7.00,-128.00,-29.00,+4.00,+13.00,-33.00,+55.00,-21.00,-16.00
-59.00,-1.00,+6.00,+9.00,+40.00,+9.00,+31.00,+8.00,+75.00,+7.00,-5.00,+17.00,+0.00,-27.00,-77.00,-44.00
+12.00,+14.00,-1.00,-6.00,-34.00,-16.00,-27.00,-2.00,+46.00,+57.00,+0.00,-1.00,-27.00,-22.00,+37.00,+5.00
-45.00,-3.00,-4.00,+9.00,+64.00,+4.00,-5.00,-13.00,-98.00,+24.00,+2.00,-41.00,+2.00,+44.00,-57.00,+5.00
+5.00,-35.00,-4.00,-6.00,+7.00,-3.00,-10.00,-7.00,+40.00,-14.00,+3.00,+11.00,-40.00,-42.00,+10.00,-7.00
+11.00,-33.00,-8.00,-4.00,-14.00,+8.00,-73.00,+8.00,-11.00,+49.00,+22.00,+1.00,+2.00,-6.00,-51.00,+7.00
-42.00,+16.00,+2.00,-2.00,-16.00,+3.00,+38.00,-5.00,+78.00,-127.00,-19.00,-28.00,+4.00,+14.00,+11.00,-7.00
+29.00,+21.00,-4.00,+1.00,+11.00,+7.00,+0.00,-11.00,+47.00,+111.00,+0.00,+32.00,+8.00,+16.00,-55.00,-18.00
-42.00,-3.00,+5.00,-3.00,-14.00,-4.00,-39.00,+3.00,-11.00,-5.00,-16.00,+24.00,-11.00,-11.00,+25.00,+6.00
-48.00,-2.00,+3.00,+10.00,+57.00,-7.00,-92.00,-4.00,-97.00,+59.00,-5.00,-30.00,-7.00,-12.00,-11.00,-16.00
-26.00,-32.00,-1.00,-7.00,-29.00,-12.00,-66.00,-14.00,+16.00,+30.00,+2.00,-2.00,-8.00,-50.00,-30.00,+1.00
-21.00,-5.00,+1.00,+1.00,+11.00,+15.00,-43.00,-7.00,+1.00,-9.00,+8.00,-16.00,-16.00,+62.00,+67.00,+20.00
+40.00,+10.00,+1.00,-3.00,-4.00,+11.00,+12.00,+6.00,+4.00,-128.00,-26.00,-16.00,+51.00,+6.00,-7.00,-5.00
-30.00,+13.00,+9.00,+0.00,-11.00,-3.00,+81.00,-11.00,-42.00,+34.00,+3.00,+23.00,-4.00,-43.00,-22.00,-16.00
+64.00,-64.00,-5.00,+6.00,+26.00,-2.00,+39.00,+8.00,+53.00,+41.00,+6.00,+4.00,+2.00,+35.00,-39.00,+8.00
-51.00,+70.00,+16.00,+1.00,-3.00,-6.00,-39.00,+5.00,+52.00,-74.00,+2.00,+5.00,+2.00,-24.00,-15.00,+0.00
+0.00,+27.00,-1.00,-4.00,+16.00,-3.00,-46.00,-12.00,-105.00,+66.00,+11.00,+30.00,-13.00,+9.00,+43.00,-17.00
+9.00,+41.00,-6.00,+1.00,-6.00,+5.00,-18.00,+5.00,+99.00,+15.00,+1.00,-20.00,+0.00,-30.00,+93.00,+34.00
-53.00,-16.00,+2.00,+0.00,+20.00,+10.00,+43.00,-10.00,-27.00,-43.00,-8.00,+8.00,-30.00,+12.00,+16.00,-12.00
+62.00,-53.00,-13.00,-10.00,-43.00,-14.00,+13.00,+13.00,-5.00,+10.00,+1.00,-22.00,-58.00,-8.00,-24.00,+3.00
+13.00,+20.00,-4.00,-3.00,+31.00,+8.00,-15.00,+9.00,-16.00,-88.00,-22.00,-19.00,+32.00,+24.00,-51.00,+0.00
+12.00,+5.00,-5.00,-3.00,-40.00,-21.00,-27.00,-15.00,+8.00,+96.00,-3.00,+14.00,+26.00,+17.00,-55.00,-12.00
+13.00,+4.00,+7.00,+3.00,+32.00,+8.00,+95.00,+10.00,-15.00,-8.00,-13.00,-73.00,-9.00,-8.00,-33.00,+4.00
+12.00,-66.00,-10.00,-4.00,-39.00,-3.00,-59.00,-5.00,-86.00,-15.00,+9.00,+26.00,-10.00,-7.00,+64.00,-8.00
-25.00,+14.00,+5.00,+7.00,+36.00,-31.00,+54.00,+11.00,+2.00,-10.00,+4.00,-2.00,-4.00,+17.00,-46.00,-2.00
+29.00,+23.00,-13.00,-10.00,-19.00,-5.00,-11.00,-8.00,-4.00,+8.00,+1.00,+1.00,+20.00,+4.00,+10.00,+12.00
-29.00,+20.00,+5.00,-2.00,-25.00,-5.00,-77.00,-1.00,+12.00,-18.00,+14.00,-3.00,-51.00,+28.00,+2.00,-3.00
-42.00,-31.00,+9.00,+4.00,+30.00,+7.00,-27.00,-4.00,-128.00,-2.00,-9.00,+8.00,-8.00,-103.00,-19.00,-33.00
-23.00,+56.00,+11.00,+5.00,+33.00,-6.00,+127.00,+5.00,+103.00,+54.00,+4.00,-10.00,-10.00,-26.00,-92.00,+12.00
+51.00,-38.00,-2.00,+2.00,-2.00,-12.00,+32.00,+12.00,-63.00,-91.00,+2.00,-13.00,+9.00,-29.00,+27.00,+7.00
-58.00,+31.00,+4.00,+0.00,+7.00,-7.00,-97.00,-18.00,-89.00,+73.00,+7.00,+22.00,+16.00,+29.00,-3.00,+10.00
-14.00,-22.00,-16.00,+0.00,+8.00,+12.00,+87.00,+5.00,+113.00,-20.00,-3.00,-15.00,+5.00,+7.00,-23.00,-15.00
+27.00,-33.00,-4.00,-1.00,-30.00,-5.00,-31.00,-7.00,-10.00,-30.00,+4.00,+9.00,+33.00,+11.00,+94.00,+9.00
+26.00,+40.00,+1.00,-3.00,-6.00,+3.00,-23.00,+6.00,-28.00,+29.00,+3.00,-36.00,+1.00,-2.00,-42.00,-8.00
-30.00,-19.00,+2.00,-1.00,-7.00,+13.00,+27.00,+7.00,-5.00,+99.00,+2.00,-3.00,+11.00,-14.00,+47.00,-11.00
-57.00,+4.00,+6.00,+5.00,+25.00,+0.00,-12.00,+2.00,-85.00,-65.00,-4.00,+9.00,+30.00,-9.00,-4.00,-19.00
+23.00,-63.00,-18.00,-7.00,+12.00,-8.00,-6.00,-7.00,+17.00,+52.00,-1.00,+12.00,+35.00,-16.00,-32.00,+13.00
+33.00,+28.00,+23.00,+7.00,-46.00,-12.00,-28.00,+10.00,+98.00,-36.00,-7.00,+23.00,+0.00,+27.00,+37.00,+19.00
+18.00,+34.00,-1.00,+0.00,+15.00,+9.00,+9.00,+4.00,+30.00,-76.00,-14.00,-16.00,+33.00,+38.00,-59.00,-16.00
+10.00,-48.00,-6.00,+0.00,+31.00,-12.00,-36.00,+0.00,-33.00,+44.00,+6.00,+27.00,+5.00,+56.00,+47.00,+21.00
+36.00,+65.00,+2.00,+2.00,+6.00,+14.00,-32.00,+6.00,-26.00,+42.00,+5.00,-18.00,-9.00,-34.00,+34.00,+10.00
-74.00,-38.00,+0.00,-7.00,+5.00,+13.00,-86.00,-21.00,-49.00,-60.00,-7.00,-25.00,-22.00,+27.00,-30.00,-15.00
+69.00,-79.00,-9.00,+1.00,-23.00,-9.00,-12.00,+7.00,+6.00,-32.00,-11.00,-8.00,-4.00,-56.00,+6.00,+14.00
+17.00,+14.00,+3.00,-3.00,-11.00,-10.00,-47.00,+3.00,-65.00,-110.00,-21.00,+25.00,-15.00,+11.00,-55.00,+14.00
+27.00,+21.00,-2.00,-4.00,-25.00,+14.00,-24.00,+0.00,+95.00,+55.00,+30.00,-9.00,-2.00,+20.00,+6.00,-2.00
-62.00,-69.00,-3.00,+2.00,+4.00,-4.00,+5.00,-13.00,+42.00,-67.00,-9.00,-15.00,-2.00,+27.00,+27.00,-3.00
-92.00,+62.00,-3.00,-6.00,-4.00,-1.00,-56.00,-6.00,+4.00,+35.00,+4.00,+50.00,+24.00,+53.00,+74.00,+4.00
-59.00,+5.00,-8.00,+1.00,-3.00,+22.00,-23.00,-2.00,+85.00,-87.00,-8.00,-22.00,-15.00,-18.00,-32.00,+12.00
-34.00,-80.00,-5.00,-6.00,-50.00,-40.00,-51.00,-13.00,-68.00,-57.00,-17.00,-2.00,-26.00,-38.00,+5.00,-24.00
+42.00,-30.00,-5.00,+4.00,+46.00,+41.00,+62.00,+0.00,-90.00,+18.00,+3.00,+0.00,-13.00,+18.00,-65.00,+4.00
+54.00,-16.00,+12.00,+2.00,+4.00,-9.00,+18.00,+15.00,+23.00,+16.00,+3.00,-13.00,+16.00,+27.00,+29.00,-14.00
+19.00,-19.00,-4.00,-3.00,-25.00,-5.00,+57.00,+4.00,+88.00,-25.00,-6.00,+4.00,+10.00,-18.00,-22.00,-1.00
+27.00,+29.00,+10.00,+3.00,+13.00,-2.00,+24.00,+5.00,+83.00,+96.00,+12.00,-6.00,-18.00,+3.00,-56.00,+14.00
+46.00,+68.00,+3.00,-2.00,+1.00,+5.00,+59.00,+8.00,-32.00,-90.00,+12.00,+36.00,-13.00,-13.00,+53.00,-3.00
+91.00,+3.00,-9.00,-4.00,-29.00,-1.00,+35.00,-1.00,-58.00,+19.00,-7.00,-21.00,+31.00,-9.00,-12.00,-31.00
+24.00,-23.00,-5.00,-10.00,-15.00,-9.00,-37.00,-22.00,+93.00,+11.00,+2.00,+7.00,+4.00,-38.00,-111.00,+11.00
+6.00,-22.00,-8.00,+0.00,+6.00,+12.00,+38.00,+2.00,-128.00,-45.00,-15.00,-23.00,+15.00,-38.00,+30.00,-11.00
+60.00,-39.00,-5.00,-1.00,-17.00,-3.00,+94.00,-11.00,-51.00,-11.00,-19.00,-5.00,-17.00,-25.00,+61.00,+2.00
-60.00,+11.00,-2.00,-4.00,-17.00,+7.00,+28.00,+5.00,+70.00,+86.00,+9.00,+17.00,-2.00,+70.00,-84.00,+9.00
+42.00,-7.00,+14.00,+6.00,+45.00,-7.00,-31.00,+15.00,-64.00,+4.00,+6.00,-35.00,+35.00,-18.00,+21.00,-37.00
-50.00,+35.00,-19.00,+0.00,+32.00,+2.00,-82.00,-21.00,+34.00,-54.00,-14.00,+21.00,+8.00,-9.00,+18.00,+23.00
-34.00,-40.00,-8.00,-3.00,+1.00,+10.00,-101.00,+0.00,+98.00,-23.00,+10.00,+12.00,-39.00,+61.00,-43.00,+21.00
-17.00,+36.00,+9.00,+1.00,+7.00,-5.00,+15.00,-14.00,-67.00,-19.00,-1.00,-58.00,-16.00,-76.00,-63.00,-7.00
+7.00,+76.00,-2.00,+4.00,-38.00,+3.00,+90.00,+10.00,+32.00,+10.00,-2.00,+17.00,+63.00,+9.00,+30.00,+8.00
-101.00,-35.00,-7.00,-8.00,-2.00,-7.00,-24.00,+10.00,-31.00,-72.00,-8.00,+0.00,-25.00,+18.00,-47.00,-24.00
+11.00,+43.00,+22.00,+6.00,+29.00,-11.00,-9.00,+29.00,-76.00,+33.00,+19.00,+15.00,+23.00,-54.00,+1.00,+4.00
-47.00,-16.00,-14.00,+1.00,+0.00,+5.00,+68.00,-23.00,+27.00,-103.00,-2.00,+30.00,-48.00,-27.00,+44.00,+14.00
-29.00,+16.00,-11.00,-8.00,-6.00,-10.00,+34.00,+8.00,-65.00,-40.00,-12.00,-29.00,+23.00,+2.00,+58.00,-21.00
+57.00,-96.00,+9.00,+1.00,-24.00,+12.00,-60.00,-10.00,-16.00,+127.00,+29.00,+35.00,+10.00,-52.00,-85.00,-16.00
-76.00,-16.00,-39.00,-9.00,-46.00,-18.00,+37.00,-3.00,+86.00,-97.00,-30.00,-13.00,-24.00,+53.00,+12.00,+14.00
-43.00,+27.00,+34.00,+7.00,+5.00,+21.00,+2.00,-3.00,-26.00,+36.00,-14.00,-39.00,+10.00,+7.00,+47.00,-6.00
+65.00,+78.00,-1.00,-1.00,-30.00,+0.00,+2.00,-3.00,-12.00,+36.00,+32.00,+32.00,+5.00,+13.00,-8.00,+7.00
+20.00,-89.00,+6.00,+3.00,+40.00,-6.00,-24.00,-18.00,+98.00,-120.00,-32.00,-16.00,-17.00,+23.00,+29.00,+28.00
+21.00,+79.00,-20.00,-14.00,+10.00,-25.00,-19.00,-23.00,+58.00,+118.00,+19.00,+5.00,+2.00,-21.00,-4.00,-24.00
+127.00,-55.00,+2.00,+14.00,+11.00,-3.00,-115.00,+37.00,+48.00,-128.00,-2.00,+17.00,-26.00,-48.00,-62.00,+6.00
-84.00,+5.00,-11.00,-9.00,-11.00,+1.00,+112.00,-16.00,+72.00,-7.00,-37.00,-37.00,-35.00,+79.00,-14.00,-13.00
+22.00,+72.00,+10.00,-7.00,-38.00,+1.00,+82.00,-6.00,-128.00,+92.00,+58.00,+8.00,-16.00,+7.00,+114.00,-5.00
+46.00,+57.00,+3.00,+1.00,-24.00,-13.00,-12.00,-13.00,+42.00,+21.00,-14.00,-17.00,+22.00,-92.00,-24.00,+4.00
-11.00,-12.00,+1.00,+6.00,+57.00,+8.00,+7.00,+4.00,+3.00,-40.00,-13.00,+16.00,+10.00,+17.00,-27.00,-4.00
-86.00,-96.00,-10.00,-13.00,-30.00,-18.00,-96.00,-2.00,+13.00,-30.00,+2.00,+22.00,-20.00,-98.00,+34.00,+2.00
-55.00,+29.00,+4.00,+11.00,+41.00,+0.00,-47.00,+22.00,-59.00,-12.00,+2.00,-28.00,-25.00,-50.00,-8.00,+7.00
-45.00,+42.00,-7.00,-4.00,+6.00,-2.00,+7.00,+3.00,-128.00,-20.00,-28.00,+28.00,+18.00,+65.00,+75.00,-26.00
-11.00,-18.00,-28.00,-11.00,-51.00,-35.00,-95.00,-24.00,+61.00,+40.00,+15.00,-23.00,-31.00,-40.00,-35.00,+10.00
+120.00,-59.00,+30.00,+11.00,+13.00,+0.00,+24.00,+24.00,-30.00,-10.00,+5.00,-8.00,-18.00,+7.00,-64.00,+1.00
+118.00,-44.00,-21.00,-5.00,-28.00,+20.00,+27.00,+6.00,-62.00,+33.00,-6.00,+6.00,+3.00,+13.00,-65.00,-1.00
+101.00,+22.00,+15.00,+2.00,+9.00,+10.00,-20.00,-7.00,-37.00,-15.00,-17.00,+12.00,+6.00,-45.00,-10.00,-8.00
+98.00,-38.00,-25.00,-3.00,+35.00,-2.00,+33.00,-5.00,-128.00,+19.00,+3.00,-11.00,+7.00,-16.00,+21.00,-14.00
+117.00,+40.00,+7.00,+3.00,-3.00,+20.00,-122.00,+1.00,-98.00,-34.00,-4.00,+10.00,-26.00,+31.00,-30.00,+32.00
+86.00,-52.00,+2.00,+3.00,+4.00,+7.00,+48.00,-4.00,+11.00,+40.00,+8.00,-28.00,-16.00,+33.00,+3.00,-20.00
-21.00,+23.00,+13.00,+3.00,-5.00,-3.00,-15.00,+8.00,+82.00,-61.00,+2.00,-10.00,+16.00,+25.00,-52.00,-8.00
-5.00,-54.00,-20.00,-10.00,-18.00,+17.00,+13.00,-10.00,-13.00,-11.00,+0.00,+17.00,+0.00,+0.00,+90.00,+14.00
-59.00,+109.00,+23.00,+0.00,+6.00,-1.00,-41.00,-16.00,-29.00,+80.00,+1.00,+3.00,+15.00,-4.00,-31.00,+14.00
-59.00,+74.00,-5.00,-4.00,-13.00,-7.00,+22.00,+21.00,-29.00,-62.00,-15.00,+2.00,+20.00,+8.00,+73.00,-5.00
-35.00,-128.00,-13.00,+1.00,-13.00,+9.00,-29.00,-6.00,-78.00,-87.00,-5.00,-3.00,+2.00,-34.00,-1.00,+6.00
-8.00,-38.00,+6.00,-5.00,+22.00,+0.00,-70.00,+8.00,-37.00,+50.00,-2.00,+2.00,+17.00,-39.00,-23.00,-7.00
-72.00,-55.00,-7.00,+4.00,+44.00,-2.00,+89.00,-22.00,+23.00,+106.00,+32.00,+12.00,+13.00,+29.00,-34.00,-17.00
+5.00,-70.00,+11.00,+4.00,-20.00,+9.00,+16.00,+1.00,-6.00,-93.00,-40.00,-10.00,-17.00,+15.00,+47.00,-28.00
-77.00,-76.00,+2.00,+2.00,+27.00,+2.00,+28.00,+10.00,+110.00,+127.00,+34.00,+37.00,-1.00,+33.00,-24.00,+3.00
+9.00,-46.00,-3.00,-7.00,+13.00,+4.00,-5.00,+10.00,-44.00,-103.00,+1.00,-30.00,+36.00,+41.00,-38.00,+8.00
+31.00,-44.00,-22.00,-7.00,-7.00,+1.00,-29.00,-7.00,-28.00,+2.00,-5.00,-18.00,-41.00,-11.00,+61.00,+10.00
-32.00,-23.00,-5.00,+0.00,+11.00,-10.00,-22.00,-3.00,+27.00,-97.00,-19.00,-15.00,+52.00,+1.00,-17.00,-22.00
+67.00,+39.00,+13.00,+3.00,+28.00,+13.00,-5.00,-11.00,+21.00,+81.00,+14.00,+12.00,-35.00,+29.00,+42.00,-11.00
-39.00,-69.00,-19.00,-8.00,-38.00,-14.00,-18.00,-9.00,-57.00,-24.00,+2.00,-11.00,+13.00,+22.00,+0.00,+7.00
+42.00,+64.00,+4.00,+2.00,-3.00,-5.00,+80.00,+33.00,-14.00,-44.00,-6.00,-4.00,+6.00,+19.00,+26.00,-25.00
-117.00,-30.00,-13.00,-5.00,-32.00,+4.00,+56.00,-3.00,+9.00,+74.00,-12.00,-2.00,-23.00,+5.00,-25.00,+3.00
-5.00,+107.00,+17.00,+3.00,+16.00,+20.00,-25.00,+9.00,-114.00,-67.00,+9.00,-15.00,-4.00,-26.00,+37.00,-20.00
-25.00,+26.00,-1.00,+0.00,+36.00,-6.00,-27.00,-13.00,+0.00,-38.00,-5.00,+36.00,+38.00,-6.00,+6.00,+3.00
-14.00,-26.00,+15.00,+7.00,+5.00,+15.00,+24.00,-5.00,-43.00,+29.00,-1.00,-15.00,-9.00,-24.00,+63.00,-2.00
-42.00,-36.00,-10.00,-10.00,-31.00,-30.00,+7.00,+0.00,+27.00,-21.00,+0.00,+1.00,-20.00,+11.00,-28.00,+2.00
-48.00,-40.00,-8.00,+1.00,-3.00,+13.00,-28.00,-2.00,-110.00,+19.00,-6.00,-6.00,+12.00,-90.00,+64.00,-10.00
+35.00,-66.00,+11.00,+5.00,+1.00,+8.00,+107.00,+21.00,-7.00,+90.00,-2.00,-2.00,-22.00,+20.00,-51.00,-12.00
+2.00,+59.00,+3.00,+0.00,+5.00,-20.00,-68.00,-11.00,+82.00,+2.00,+1.00,+7.00,+34.00,-15.00,-8.00,+9.00
+13.00,-48.00,-4.00,-6.00,-31.00,-26.00,-2.00,-10.00,+64.00,-1.00,+11.00,+14.00,-21.00,-46.00,-102.00,+2.00
-6.00,+10.00,+5.00,-2.00,+23.00,+8.00,-45.00,+4.00,-87.00,-65.00,+2.00,-18.00,+8.00,-47.00,+52.00,+6.00
-50.00,+39.00,+4.00,+10.00,+21.00,+3.00,+110.00,+19.00,+50.00,-115.00,-25.00,+9.00,+19.00,+24.00,+18.00,+1.00
+26.00,-40.00,-9.00,-5.00,-8.00,+13.00,-39.00,+13.00,+45.00,+65.00,+7.00,-4.00,-40.00,-40.00,+45.00,+3.00
+16.00,+14.00,+10.00,+6.00,+11.00,+9.00,+57.00,+15.00,-10.00,+105.00,+16.00,-8.00,+25.00,-66.00,+30.00,+27.00
-4.00,+37.00,-7.00,-3.00,-33.00,-18.00,-76.00,-17.00,+66.00,-47.00,-8.00,-7.00,+4.00,+10.00,-55.00,-8.00
+51.00,+14.00,+18.00,+5.00,+21.00,-3.00,+21.00,+12.00,-125.00,-54.00,+1.00,+9.00,-20.00,+6.00,+70.00,-6.00
+26.00,-48.00,-16.00,+2.00,+6.00,+12.00,-3.00,-13.00,+60.00,+84.00,+10.00,-5.00,+26.00,+30.00,-36.00,+25.00
+127.00,+15.00,+6.00,+5.00,+24.00,+2.00,-12.00,+7.00,-104.00,-76.00,+5.00,+16.00,-29.00,-3.00,-5.00,-3.00
-48.00,-127.00,-13.00,-7.00,-19.00,+5.00,+115.00,+11.00,+77.00,-15.00,+3.00,-9.00,-9.00,-25.00,-33.00,+13.00
-90.00,+81.00,+14.00,+3.00,-38.00,+10.00,+53.00,+0.00,+91.00,-57.00,-10.00,-1.00,+7.00,+26.00,+15.00,-21.00
-128.00,+2.00,-6.00,+0.00,+61.00,+5.00,-57.00,-14.00,-31.00,+25.00,+2.00,+8.00,+4.00,+10.00,-78.00,-8.00
-128.00,+14.00,-2.00,-5.00,-15.00,-8.00,-15.00,-6.00,+46.00,+89.00,+28.00,+22.00,+77.00,+69.00,+84.00,+18.00
-38.00,-62.00,+5.00,+12.00,+13.00,+17.00,+52.00,+38.00,+21.00,-47.00,-4.00,-34.00,-35.00,+24.00,-73.00,+14.00
-82.00,-44.00,+2.00,-7.00,-37.00,-13.00,-65.00,-17.00,+25.00,+20.00,-8.00,+23.00,+18.00,-37.00,-74.00,-11.00
-71.00,-57.00,-5.00,-7.00,-11.00,-7.00,+55.00,+0.00,-52.00,+91.00,+8.00,-10.00,-5.00,-18.00,-26.00,-22.00
-85.00,-15.00,-15.00,-3.00,+4.00,+12.00,-117.00,+3.00,+66.00,-59.00,-13.00,-16.00,+16.00,-22.00,+87.00,+17.00
-26.00,-64.00,+20.00,+5.00,+15.00,-14.00,+86.00,+11.00,-67.00,-15.00,-6.00,+13.00,+11.00,-31.00,-8.00,-37.00
-24.00,-22.00,-19.00,-5.00,-1.00,+6.00,-93.00,-27.00,+127.00,+127.00,+27.00,+8.00,-30.00,-10.00,-74.00,+35.00
+4.00,-51.00,+7.00,+3.00,+1.00,+1.00,+26.00,+12.00,-67.00,-128.00,-12.00,-14.00,-41.00,-20.00,+25.00,-9.00
+21.00,-56.00,-5.00,-8.00,+9.00,+12.00,+39.00,-18.00,-40.00,-42.00,-15.00,-11.00,-37.00,+23.00,-77.00,-2.00
-66.00,+21.00,+1.00,-5.00,-38.00,-11.00,-8.00,+10.00,-57.00,-98.00,-16.00,+5.00,-2.00,+25.00,+33.00,+4.00
+0.00,+48.00,-7.00,-5.00,+0.00,+11.00,-23.00,-5.00,+36.00,+68.00,+8.00,-23.00,-35.00,-50.00,+74.00,-25.00
-70.00,+20.00,+22.00,+4.00,-11.00,-11.00,-43.00,+0.00,-51.00,-93.00,-6.00,+17.00,+11.00,-18.00,-52.00,+14.00
-32.00,-28.00,-7.00,-6.00,-32.00,-14.00,+63.00,-11.00,-75.00,-16.00,-2.00,+6.00,-29.00,-53.00,-4.00,-6.00
-22.00,-53.00,-8.00,+1.00,+20.00,-18.00,-73.00,-11.00,+6.00,-22.00,+0.00,+12.00,+26.00,+31.00,+62.00,+47.00
+51.00,+127.00,+10.00,-2.00,+13.00,+3.00,+20.00,-8.00,-127.00,-74.00,+1.00,+1.00,-16.00,+16.00,-27.00,-30.00
-41.00,-101.00,-16.00,+0.00,-14.00,+8.00,-24.00,+5.00,+7.00,+48.00,-3.00,-19.00,+56.00,+24.00,+53.00,+9.00
+90.00,+127.00,+17.00,+5.00,-11.00,-6.00,-35.00,+25.00,-7.00,-109.00,-17.00,-39.00,-16.00,-43.00,-104.00,-13.00
-32.00,-87.00,-9.00,-4.00,-8.00,+10.00,-5.00,-18.00,-71.00,+48.00,+5.00,+19.00,+10.00,+15.00,+8.00,-9.00
-64.00,+97.00,-2.00,-8.00,-28.00,-10.00,+20.00,+9.00,+50.00,-68.00,+11.00,+9.00,+12.00,-27.00,+34.00,-33.00
-118.00,-8.00,+0.00,+4.00,+24.00,-3.00,+8.00,-14.00,-34.00,+8.00,+0.00,+5.00,-32.00,-25.00,+86.00,+9.00
-14.00,+11.00,-5.00,-3.00,-15.00,-10.00,-39.00,-12.00,-115.00,-50.00,-7.00,+10.00,+11.00,+7.00,-19.00,+6.00
-12.00,+43.00,+5.00,-5.00,+1.00,-2.00,+109.00,-6.00,+78.00,+0.00,-7.00,-12.00,+14.00,+4.00,+17.00,+32.00
+35.00,-10.00,-26.00,-3.00,+32.00,+10.00,-15.00,+5.00,-8.00,+110.00,-7.00,+4.00,-9.00,+51.00,+22.00,+18.00
+61.00,-64.00,-4.00,+3.00,-28.00,+1.00,-10.00,-6.00,-33.00,-119.00,-11.00,+22.00,-22.00,-33.00,-43.00,-35.00
+20.00,-88.00,-7.00,-2.00,+34.00,-25.00,+50.00,+15.00,+24.00,+76.00,+1.00,-19.00,+28.00,+101.00,-52.00,+7.00
+16.00,+93.00,+13.00,+5.00,+16.00,+7.00,-103.00,-21.00,-9.00,+13.00,+10.00,+7.00,-13.00,+73.00,-117.00,-20.00
-60.00,-32.00,-3.00,-4.00,-17.00,-20.00,-88.00,-17.00,+3.00,-46.00,-14.00,-21.00,-8.00,-46.00,+6.00,-7.00
+60.00,-65.00,-27.00,-10.00,-46.00,+9.00,+44.00,-13.00,-11.00,+15.00,-2.00,-3.00,+31.00,-7.00,-49.00,-6.00
+4.00,+25.00,+15.00,+9.00,+44.00,+31.00,-112.00,-2.00,-4.00,+72.00,-8.00,+17.00,-10.00,+20.00,-1.00,+13.00
+55.00,-48.00,+5.00,+0.00,-46.00,-32.00,+56.00,+30.00,+15.00,+56.00,+0.00,-7.00,+8.00,-58.00,+30.00,-5.00
-17.00,-106.00,-10.00,-5.00,+3.00,+10.00,+28.00,-15.00,+20.00,+53.00,+13.00,-10.00,+3.00,-56.00,+25.00,-10.00
+55.00,+106.00,+11.00,-5.00,-11.00,-15.00,-23.00,-13.00,-91.00,+7.00,-1.00,-5.00,-2.00,+2.00,+39.00,+0.00
+19.00,+75.00,-31.00,-10.00,+29.00,+18.00,+78.00,-12.00,+127.00,-30.00,-3.00,+5.00,-9.00,-66.00,+33.00,-1.00
+64.00,-40.00,+13.00,+8.00,-19.00,+12.00,+85.00,+7.00,-113.00,-33.00,-16.00,-18.00,-14.00,-22.00,-37.00,-14.00
+1.00,-9.00,-18.00,-4.00,+8.00,-13.00,-94.00,-14.00,+8.00,-105.00,-20.00,-15.00,+3.00,-11.00,+105.00,+36.00
+17.00,+89.00,+23.00,-4.00,-32.00,-32.00,-56.00,+26.00,-56.00,-5.00,+11.00,-1.00,+32.00,+33.00,-34.00,-29.00
-52.00,-88.00,+17.00,+8.00,+21.00,+27.00,+34.00,+10.00,+12.00,+0.00,+8.00,+5.00,-23.00,+8.00,+25.00,+8.00
-74.00,-59.00,-23.00,-7.00,+14.00,+1.00,-10.00,-21.00,-83.00,+2.00,+3.00,-5.00,+6.00,+27.00,-50.00,-35.00
-106.00,-33.00,+3.00,-1.00,+11.00,+31.00,+42.00,+12.00,+35.00,-27.00,-12.00,+23.00,-34.00,-2.00,-5.00,+15.00
-88.00,+45.00,+33.00,+7.00,+5.00,-1.00,-23.00,-18.00,+9.00,-80.00,+4.00,-6.00,-32.00,+69.00,+46.00,-10.00
-28.00,+95.00,-7.00,-7.00,-8.00,-16.00,+6.00,-12.00,-10.00,-11.00,-22.00,-9.00,+9.00,-36.00,-36.00,-22.00
+14.00,+51.00,-27.00,-12.00,-17.00,-3.00,-94.00,-25.00,+59.00,+23.00,+5.00,+9.00,+19.00,+33.00,+21.00,+44.00
+127.00,-128.00,+33.00,+22.00,+16.00,+1.00,+98.00,+34.00,+14.00,+96.00,+32.00,+6.00,-5.00,+6.00,-75.00,-19.00
+63.00,+92.00,-3.00,+4.00,+18.00,-31.00,-79.00,+19.00,+97.00,+17.00,+2.00,+6.00,-15.00,+17.00,-64.00,+19.00
-18.00,-66.00,+11.00,-1.00,-18.00,-2.00,+16.00,-8.00,-127.00,-11.00,-4.00,-27.00,-31.00,+1.00,+51.00,-28.00
+72.00,+63.00,-7.00,-2.00,-9.00,+6.00,+78.00,+6.00,-73.00,-17.00,+3.00,+15.00,+11.00,-46.00,+78.00,+25.00
+29.00,-63.00,-16.00,-4.00,+19.00,+6.00,+4.00,+0.00,-128.00,+14.00,-20.00,+17.00,-1.00,+25.00,+37.00,+8.00
+42.00,+77.00,+11.00,-7.00,-5.00,+10.00,+37.00,+7.00,-128.00,-102.00,-8.00,-24.00,-2.00,-46.00,+21.00,+23.00
+53.00,-12.00,+10.00,+4.00,-39.00,-34.00,-8.00,+24.00,-67.00,+61.00,+23.00,+6.00,+1.00,-47.00,+3.00,+0.00
-28.00,-107.00,-10.00,+7.00,+42.00,+30.00,+29.00,-4.00,+54.00,-66.00,-16.00,-11.00,-42.00,-23.00,-57.00,-13.00
+10.00,+127.00,+4.00,-12.00,-74.00,-42.00,-30.00,+4.00,+0.00,-43.00,+3.00,-9.00,+81.00,+38.00,+46.00,-15.00
+10.00,-57.00,+20.00,+11.00,+48.00,+35.00,+100.00,+13.00,+113.00,+6.00,-18.00,-2.00,-14.00,+87.00,+7.00,-1.00
-53.00,-20.00,-24.00,-10.00,+10.00,-4.00,-64.00,-30.00,+72.00,-36.00,-6.00,+12.00,+7.00,+55.00,-38.00,+10.00
+3.00,+8.00,+9.00,-1.00,-7.00,-9.00,-41.00,+6.00,+91.00,+118.00,+5.00,-25.00,-25.00,+11.00,-57.00,-5.00
+30.00,-32.00,-1.00,+0.00,-9.00,-7.00,-55.00,+7.00,+37.00,-116.00,-10.00,-13.00,+3.00,-38.00,+13.00,-12.00
-7.00,-30.00,-17.00,-7.00,+35.00,+3.00,-91.00,-14.00,+73.00,+37.00,+2.00,+13.00,+8.00,-13.00,-32.00,-13.00
-44.00,-99.00,-23.00,-4.00,-1.00,+6.00,-8.00,-13.00,+58.00,+53.00,+8.00,+11.00,+16.00,+53.00,+13.00,+13.00
-9.00,-45.00,+26.00,+11.00,+9.00,-6.00,+15.00,+16.00,+49.00,-127.00,-29.00,-13.00,+15.00,+50.00,-9.00,-13.00
+2.00,+116.00,+13.00,+0.00,+3.00,-1.00,-88.00,+18.00,+17.00,+74.00,+16.00,-14.00,-4.00,+9.00,-27.00,+3.00
-10.00,-128.00,-28.00,-2.00,-15.00,+1.00,-79.00,-14.00,+40.00,+11.00,+2.00,+2.00,+0.00,-3.00,-53.00,+7.00
+5.00,-41.00,+6.00,+9.00,+30.00,+9.00,+22.00,+16.00,+18.00,-109.00,-1.00,+22.00,-2.00,+19.00,+48.00,-5.00
-20.00,+66.00,+18.00,-5.00,-6.00,-23.00,-53.00,-2.00,+39.00,+41.00,+3.00,-6.00,+3.00,+47.00,-46.00,+10.00
+23.00,-102.00,-38.00,-18.00,-46.00,-18.00,-63.00,-1.00,-11.00,-29.00,+3.00,+9.00,-14.00,+12.00,-37.00,+8.00
-26.00,+74.00,+25.00,+9.00,+27.00,-9.00,+63.00,-18.00,+14.00,-14.00,-8.00,-9.00,+1.00,-14.00,-38.00,-16.00
-15.00,-28.00,-10.00,+1.00,+11.00,-9.00,+13.00,+19.00,+11.00,+68.00,+0.00,+42.00,-34.00,-84.00,+13.00,-12.00
+28.00,-51.00,-24.00,-12.00,-32.00,+5.00,-56.00,-48.00,+16.00,-113.00,+0.00,-59.00,-26.00,+34.00,-32.00,-15.00
+41.00,+105.00,+64.00,+17.00,+35.00,+15.00,+94.00,+38.00,-7.00,+122.00,+17.00,-20.00,-3.00,-7.00,+1.00,+14.00
-8.00,-61.00,-24.00,-11.00,-53.00,-14.00,-12.00,+0.00,+3.00,+91.00,+12.00,+7.00,-36.00,-37.00,+35.00,+8.00
-14.00,-30.00,-1.00,+4.00,-7.00,-10.00,-8.00,-15.00,+7.00,-128.00,-21.00,+13.00,+14.00,-40.00,-4.00,+13.00
-41.00,+127.00,-12.00,-10.00,+30.00,+3.00,-26.00,-5.00,+10.00,+15.00,+7.00,+0.00,+3.00,-90.00,+19.00,+18.00
-70.00,-119.00,-18.00,-1.00,-29.00,-3.00,-56.00,-44.00,-13.00,+0.00,-3.00,-4.00,-22.00,+3.00,-57.00,-6.00
+40.00,+32.00,+19.00,-1.00,-14.00,+6.00,+73.00,+16.00,+9.00,+23.00,-2.00,+10.00,+11.00,+1.00,+41.00,-6.00
+9.00,+82.00,+8.00,-5.00,-4.00,+7.00,+9.00,-8.00,+13.00,+26.00,+5.00,-34.00,+45.00,+56.00,-27.00,-15.00
-3.00,-30.00,-37.00,-17.00,-25.00,-14.00,-68.00,-4.00,+19.00,+51.00,+5.00,+16.00,+6.00,-19.00,+22.00,-9.00
+0.00,+12.00,+23.00,+14.00,+7.00,+8.00,+79.00,+1.00,+84.00,-64.00,-9.00,-5.00,-8.00,-2.00,+62.00,+24.00
+23.00,+83.00,+13.00,-3.00,+11.00,+0.00,+6.00,+4.00,-55.00,-18.00,-14.00,+1.00,-19.00,-59.00,+79.00,+0.00
+74.00,-62.00,+3.00,+3.00,-8.00,-9.00,-122.00,-2.00,+111.00,+54.00,+16.00,+3.00,+30.00,+56.00,+33.00,+7.00
-52.00,-9.00,+8.00,-2.00,+9.00,-1.00,-92.00,-11.00,-80.00,-76.00,-3.00,+21.00,-9.00,-5.00,-21.00,+12.00
+0.00,+52.00,-26.00,-3.00,+17.00,-2.00,+26.00,-6.00,-70.00,-49.00,-4.00,-6.00,-3.00,-25.00,-28.00,-13.00
+0.00,-128.00,-14.00,-6.00,-20.00,-1.00,-31.00,-1.00,+106.00,+67.00,+1.00,+14.00,-8.00,+14.00,+22.00,+18.00
+12.00,+80.00,+13.00,-5.00,-27.00,-1.00,+41.00,+13.00,-76.00,-13.00,+7.00,-35.00,+4.00,+9.00,-64.00,+7.00
+0.00,-128.00,+4.00,+7.00,+25.00,+3.00,-14.00,+10.00,+109.00,+77.00,-13.00,-10.00,-8.00,+41.00,-10.00,-16.00
-63.00,-109.00,-29.00,-11.00,-19.00,-10.00,-32.00,-25.00,-30.00,+7.00,-2.00,+19.00,-21.00,-43.00,-66.00,+1.00
+32.00,+41.00,+1.00,+2.00,+18.00,-11.00,+127.00,+6.00,+65.00,+24.00,-5.00,-18.00,+13.00,+68.00,-55.00,+15.00
-27.00,-48.00,+2.00,+1.00,-3.00,+28.00,-29.00,-8.00,+25.00,-4.00,+4.00,+9.00,-11.00,+24.00,-35.00,-1.00
+44.00,+64.00,-2.00,+5.00,+3.00,-12.00,+51.00,+7.00,+24.00,-1.00,-4.00,-2.00,-13.00,-4.00,+15.00,-9.00
+14.00,-34.00,-1.00,+2.00,+2.00,+5.00,+59.00,+7.00,-12.00,-118.00,-5.00,-5.00,-3.00,+47.00,-10.00,+12.00
-27.00,-69.00,-12.00,-9.00,-5.00,-15.00,+26.00,+2.00,+46.00,+54.00,+0.00,-1.00,+16.00,+32.00,-33.00,-9.00
-9.00,+12.00,-6.00,-7.00,-25.00,+6.00,+41.00,-4.00,+119.00,+107.00,+10.00,-1.00,-24.00,-47.00,+14.00,+5.00
+11.00,-67.00,-17.00,-4.00,-29.00,-24.00,+7.00,+2.00,+113.00,-72.00,-11.00,+5.00,+2.00,+9.00,+102.00,+4.00
+12.00,-1.00,+14.00,+0.00,+19.00,-2.00,-3.00,-13.00,-1.00,-47.00,-9.00,+3.00,+32.00,+36.00,-57.00,-22.00
+29.00,+61.00,-5.00,-4.00,-19.00,+0.00,+54.00,+11.00,-96.00,+6.00,-5.00,+1.00,+6.00,+3.00,-35.00,-7.00
-41.00,-6.00,+12.00,+9.00,+59.00,+15.00,+68.00,+13.00,-128.00,-24.00,+2.00,+7.00,-23.00,+20.00,+35.00,-32.00
+15.00,+28.00,-2.00,-5.00,+1.00,+7.00,-2.00,+2.00,-96.00,-38.00,-5.00,+4.00,+5.00,-25.00,-30.00,+9.00
+27.00,+120.00,-3.00,-9.00,-23.00,-25.00,-107.00,-11.00,-33.00,+127.00,+13.00,+4.00,+26.00,-43.00,-59.00,+20.00
-57.00,-128.00,-2.00,+9.00,+6.00,+17.00,-51.00,-9.00,-75.00,-63.00,-1.00,-9.00,-14.00,-10.00,-26.00,-19.00
-14.00,-57.00,-21.00,-4.00,-22.00,-10.00,-90.00,-9.00,-93.00,-6.00,-2.00,+38.00,+13.00,+42.00,-26.00,-13.00
+50.00,+107.00,+57.00,+19.00,+18.00,+34.00,+45.00,+14.00,-16.00,-17.00,-4.00,-31.00,+10.00,+15.00,+6.00,+2.00
+73.00,-103.00,-31.00,-9.00,-12.00,-10.00,+98.00,-18.00,-5.00,-1.00,+12.00,+11.00,+37.00,+56.00,+68.00,-5.00
+55.00,+29.00,+18.00,+9.00,+17.00,+11.00,-89.00,+4.00,-85.00,-128.00,-8.00,-3.00,+13.00,+2.00,+68.00,+13.00
-15.00,+6.00,-1.00,-2.00,-9.00,-8.00,+57.00,-8.00,+114.00,-28.00,-7.00,-4.00,-10.00,+68.00,+12.00,+8.00
-69.00,-40.00,-8.00,-3.00,+6.00,-2.00,-9.00,-12.00,-71.00,+66.00,+14.00,+26.00,-11.00,+4.00,-2.00,+10.00
-68.00,-71.00,-9.00,+0.00,-1.00,+6.00,-30.00,+2.00,+41.00,-30.00,-9.00,-7.00,+12.00,+10.00,+14.00,+8.00
-23.00,-32.00,-5.00,-2.00,-11.00,+9.00,-17.00,+8.00,+64.00,-33.00,-4.00,-5.00,-12.00,-33.00,+36.00,+4.00
+23.00,-15.00,-1.00,-2.00,-2.00,-7.00,-21.00,+4.00,-27.00,+34.00,-1.00,-9.00,-8.00,-25.00,-18.00,-1.00
-30.00,-46.00,-11.00,-7.00,-18.00,-9.00,+40.00,-1.00,+60.00,-35.00,+4.00,+16.00,+15.00,-15.00,+3.00,+5.00
-20.00,+73.00,+19.00,+4.00,+7.00,+13.00,-7.00,+2.00,-31.00,+116.00,+8.00,-13.00,-22.00,-7.00,+26.00,-21.00
-88.00,+11.00,-38.00,-14.00,-14.00,-11.00,+77.00,-16.00,-1.00,-19.00,+0.00,+8.00,+17.00,-6.00,+49.00,-2.00
-4.00,+25.00,+31.00,+14.00,+1.00,+2.00,-44.00,+11.00,+76.00,-2.00,-12.00,-20.00,+7.00,-11.00,-73.00,+3.00
-11.00,+97.00,+23.00,+10.00,+27.00,+7.00,+30.00,+20.00,+126.00,-12.00,-13.00,+10.00,+32.00,+53.00,-10.00,+7.00
+0.00,-11.00,+8.00,+4.00,+16.00,+6.00,+46.00,-11.00,-53.00,-5.00,+16.00,+2.00,-32.00,-34.00,+23.00,+11.00
-13.00,-58.00,-15.00,-2.00,+9.00,-4.00,-29.00,+3.00,-95.00,-10.00,+5.00,-5.00,-6.00,+40.00,-65.00,-11.00
-1.00,+99.00,-6.00,-11.00,-17.00,-6.00,-5.00,-13.00,-128.00,-30.00,-4.00,-12.00,+4.00,-13.00,+29.00,+5.00
+36.00,-13.00,-7.00,-1.00,-18.00,-1.00,+12.00,+1.00,-128.00,+39.00,+4.00,-2.00,-7.00,+18.00,-3.00,+1.00
-11.00,-36.00,+7.00,+3.00,+4.00,-23.00,+18.00,+8.00,-90.00,-31.00,-20.00,+2.00,+37.00,+3.00,-12.00,-4.00
-31.00,+66.00,-3.00,-5.00,-14.00,+23.00,-13.00,-7.00,-114.00,+78.00,+11.00,+7.00,-8.00,-8.00,-28.00,+0.00
-6.00,-48.00,-4.00,+0.00,+7.00,+4.00,+19.00,-27.00,-81.00,-58.00,-5.00,-11.00,-39.00,-28.00,-12.00,-7.00
-5.00,-67.00,-11.00,-9.00,-13.00,+7.00,-22.00,+23.00,-55.00,+2.00,+2.00,+1.00,+58.00,-17.00,-19.00,-14.00
+14.00,-27.00,+6.00,+5.00,+11.00,-12.00,-21.00,+10.00,+11.00,-34.00,-7.00,-4.00,-28.00,+12.00,+4.00,-5.00
+67.00,-6.00,-4.00,-2.00,+6.00,-3.00,-1.00,-6.00,+1.00,-15.00,-2.00,-4.00,+53.00,-5.00,-15.00,+1.00
+127.00,-54.00,-12.00,-5.00,+2.00,-10.00,-81.00,+6.00,+2.00,+0.00,-1.00,-1.00,-63.00,-21.00,+16.00,-2.00
+77.00,-39.00,-6.00,-1.00,+2.00,-8.00,-50.00,-38.00,+43.00,+21.00,-1.00,+2.00,-7.00,-21.00,+0.00,-5.00
+50.00,+127.00,+26.00,+6.00,-8.00,+11.00,+39.00,+30.00,-11.00,+2.00,-16.00,-2.00,-58.00,+32.00,-17.00,-1.00
-5.00,-94.00,+7.00,+7.00,+5.00,+2.00,-30.00,-6.00,+60.00,+17.00,+4.00,-2.00,-4.00,-29.00,+45.00,-25.00
-42.00,+29.00,+0.00,-4.00,-2.00,+0.00,+66.00,+0.00,-43.00,-8.00,+13.00,-1.00,+13.00,+20.00,-33.00,+16.00
+80.00,+11.00,-8.00,-5.00,-9.00,-8.00,-4.00,-6.00,-41.00,+26.00,+6.00,-3.00,-7.00,-62.00,+8.00,-3.00
-18.00,-30.00,-7.00,-2.00,+3.00,-3.00,-7.00,+6.00,+61.00,+59.00,-3.00,-3.00,+0.00,+10.00,-26.00,+2.00
-80.00,+2.00,-2.00,-1.00,-5.00,-2.00,+11.00,+5.00,+27.00,-35.00,-5.00,-2.00,-27.00,-26.00,-27.00,+2.00
-104.00,+39.00,-6.00,-7.00,-1.00,-3.00,+3.00,+6.00,+98.00,-6.00,-3.00,-5.00,+9.00,+4.00,+3.00,-14.00
-128.00,-12.00,-7.00,-5.00,-3.00,-4.00,+21.00,+2.00,+70.00,-36.00,-1.00,-2.00,-17.00,-1.00,+1.00,-9.00
-96.00,-14.00,+4.00,+1.00,-4.00,+4.00,+23.00,-2.00,+66.00,-56.00,-11.00,-3.00,-6.00,-4.00,+1.00,+1.00
-38.00,-9.00,-4.00,+0.00,+3.00,+1.00,+9.00,+0.00,+76.00,-13.00,-1.00,+0.00,-1.00,-11.00,-5.00,+3.00
-50.00,+2.00,+5.00,+1.00,+0.00,+0.00,-27.00,-4.00,+50.00,-1.00,-1.00,+1.00,+25.00,-13.00,+25.00,+1.00
-26.00,-14.00,-2.00,+2.00,-2.00,+10.00,-74.00,+2.00,+26.00,+31.00,+3.00,-1.00,-13.00,-2.00,-12.00,-1.00
-37.00,-18.00,+1.00,+0.00,-3.00,+4.00,-99.00,-7.00,+46.00,-51.00,-3.00,+1.00,+18.00,-9.00,+28.00,-6.00
-102.00,+27.00,-4.00,-4.00,-7.00,-13.00,-63.00,-8.00,+37.00,+33.00,+5.00,+4.00,+0.00,+10.00,+13.00,+4.00
+12.00,-27.00,-5.00,-1.00,-10.00,-10.00,-11.00,-4.00,+11.00,-34.00,-7.00,+1.00,+6.00,+3.00,+18.00,-1.00
+5.00,-44.00,-2.00,+8.00,+42.00,+1.00,+38.00,-3.00,-8.00,+24.00,-3.00,-2.00,-11.00,+21.00,+16.00,-12.00
+109.00,+53.00,+30.00,+3.00,+4.00,+18.00,+23.00,+9.00,+36.00,+28.00,+9.00,+5.00,+3.00,-22.00,-13.00,-1.00
-3.00,-42.00,-1.00,-5.00,-1.00,-8.00,+46.00,-9.00,+75.00,-25.00,+0.00,-13.00,-15.00,-12.00,+2.00,-1.00
+86.00,+2.00,-5.00,+3.00,+6.00,+4.00,+69.00,-3.00,+42.00,-92.00,-10.00,-1.00,+51.00,-1.00,+8.00,+4.00
-57.00,-20.00,-3.00,-1.00,-14.00,+1.00,+60.00,-6.00,+46.00,+63.00,-3.00,-4.00,-7.00,+6.00,-11.00,-3.00
-79.00,+2.00,-9.00,-4.00,-2.00,+2.00,+1.00,-9.00,+29.00,+81.00,+11.00,-2.00,+10.00,-2.00,-16.00,-3.00
-36.00,+17.00,-5.00,-5.00,-8.00,-2.00,+5.00,-1.00,+5.00,+11.00,+0.00,+2.00,+37.00,+2.00,-30.00,+5.00
-43.00,+13.00,+6.00,+1.00,+12.00,+0.00,+7.00,-1.00,-15.00,-13.00,-2.00,+2.00,-17.00,-10.00,+10.00,-1.00
+119.00,+19.00,-4.00,-1.00,-8.00,-5.00,+19.00,-1.00,-51.00,-28.00,+1.00,+4.00,-3.00,+0.00,-4.00,-3.00
+53.00,-8.00,-6.00,-1.00,+5.00,-3.00,+20.00,-3.00,-41.00,-46.00,-9.00,-8.00,-12.00,+1.00,+0.00,+1.00
-6.00,+18.00,+2.00,+1.00,-5.00,+1.00,-2.00,-1.00,-25.00,+27.00,+1.00,+1.00,+12.00,+5.00,-16.00,+1.00
-100.00,-7.00,-8.00,-8.00,-34.00,-11.00,-2.00,+2.00,-35.00,-7.00,+0.00,-5.00,-7.00,+7.00,-7.00,-5.00
-82.00,+8.00,+3.00,-2.00,-11.00,+19.00,+6.00,+6.00,-32.00,-11.00,-3.00,+1.00,-4.00,-3.00,-3.00,+1.00
-74.00,-21.00,+2.00,+11.00,+64.00,+9.00,+30.00,-1.00,-27.00,-9.00,-2.00,+7.00,+13.00,-5.00,+2.00,-4.00
+10.00,-12.00,-2.00,-4.00,-27.00,-2.00,-6.00,-5.00,-27.00,-18.00,-1.00,+15.00,-27.00,+1.00,-6.00,-2.00
-35.00,+19.00,+7.00,+9.00,+82.00,+7.00,+11.00,+0.00,+0.00,-3.00,+0.00,-9.00,-18.00,+3.00,-4.00,+2.00
-18.00,-10.00,+2.00,+1.00,-9.00,-18.00,+5.00,+7.00,-13.00,+30.00,+4.00,+1.00,-43.00,-11.00,-36.00,+6.00
+12.00,-14.00,-2.00,-4.00,-27.00,+2.00,-7.00,-5.00,+1.00,-14.00,-7.00,-44.00,+31.00,-3.00,+6.00,-2.00
+80.00,+8.00,-4.00,-3.00,+11.00,+6.00,-15.00,+1.00,+8.00,+38.00,+7.00,+20.00,+73.00,+4.00,-15.00,-1.00
+56.00,-3.00,+3.00,+1.00,-14.00,-4.00,-54.00,-4.00,+7.00,+20.00,-1.00,-14.00,+11.00,+2.00,-9.00,-2.00
+60.00,+39.00,+12.00,-1.00,-24.00,-2.00,+11.00,+3.00,+19.00,-25.00,-3.00,-12.00,+7.00,-15.00,+21.00,-6.00
+28.00,-6.00,-6.00,-2.00,+1.00,-4.00,-5.00,-2.00,-50.00,-38.00,+0.00,+16.00,-26.00,+8.00,-41.00,-5.00
+43.00,+56.00,+2.00,+1.00,+4.00,-9.00,-27.00,+3.00,-21.00,-25.00,-3.00,+1.00,-12.00,+10.00,-9.00,-1.00
+21.00,-30.00,-2.00,-5.00,-16.00,+3.00,+0.00,-3.00,-29.00,+24.00,+2.00,-3.00,-5.00,-2.00,+1.00,-2.00
-4.00,-23.00,-7.00,-1.00,+10.00,-1.00,-2.00,+0.00,+10.00,-16.00,+5.00,+17.00,+11.00,-10.00,+2.00,-1.00
-6.00,-28.00,-12.00,-6.00,-19.00,+1.00,-32.00,-7.00,+25.00,+17.00,-7.00,+5.00,+2.00,-4.00,+15.00,+2.00
+31.00,+23.00,+10.00,+3.00,+14.00,-20.00,+12.00,+3.00,-5.00,-9.00,+1.00,-9.00,-31.00,+1.00,+4.00,+1.00
+64.00,+18.00,+2.00,-3.00,-9.00,+0.00,+6.00,+3.00,+32.00,+46.00,+2.00,+6.00,-3.00,-12.00,+12.00,-1.00
-5.00,+6.00,-6.00,-1.00,+9.00,+0.00,-43.00,-7.00,-50.00,-38.00,-2.00,-6.00,-9.00,-2.00,-1.00,-7.00
+0.00,-25.00,-3.00,-3.00,-9.00,+0.00,+13.00,-3.00,+2.00,-26.00,-2.00,+7.00,-7.00,+0.00,+8.00,+1.00
-12.00,+6.00,+0.00,-2.00,-23.00,+6.00,+10.00,+0.00,+1.00,-40.00,-7.00,-12.00,-18.00,-6.00,-37.00,-1.00
-24.00,-5.00,+0.00,+1.00,+7.00,+5.00,+4.00,+1.00,-4.00,+27.00,-1.00,-4.00,+5.00,-17.00,+69.00,+1.00
-18.00,+11.00,-2.00,-1.00,+9.00,-1.00,-2.00,+3.00,+3.00,+14.00,+1.00,+11.00,+15.00,+10.00,+3.00,-3.00
-34.00,-6.00,+2.00,-3.00,-6.00,-6.00,-4.00,-5.00,+0.00,-11.00,+1.00,-19.00,+30.00,+7.00,-32.00,+0.00
+9.00,-30.00,-4.00,-1.00,+4.00,+3.00,+4.00,+0.00,+4.00,+16.00,-1.00,-5.00,-19.00,-2.00,-2.00,+0.00
+7.00,+10.00,+1.00,+1.00,-22.00,-9.00,+1.00,+3.00,-11.00,-35.00,-5.00,+2.00,+2.00,+3.00,-20.00,-4.00
-24.00,-18.00,-2.00,-2.00,+10.00,+6.00,+3.00,-4.00,+6.00,-2.00,+0.00,+2.00,-8.00,+5.00,+1.00,+1.00
-2.00,-33.00,-6.00,-1.00,-16.00,-9.00,+3.00,-1.00,-16.00,+9.00,+2.00,+8.00,+23.00,-10.00,+21.00,-6.00
+29.00,+27.00,+2.00,+3.00,+22.00,+6.00,+3.00,-1.00,+12.00,+18.00,-5.00,-5.00,-15.00,-6.00,+7.00,+5.00
-5.00,+17.00,+1.00,-2.00,+13.00,+1.00,+1.00,-1.00,+6.00,-37.00,-1.00,+3.00,-17.00,+3.00,-25.00,+0.00
+0.00,-5.00,-1.00,-5.00,-12.00,-7.00,+0.00,-2.00,-28.00,+36.00,+3.00,+16.00,+49.00,+3.00,+3.00,-6.00
-5.00,-5.00,-6.00,-1.00,+9.00,-1.00,-1.00,+1.00,+9.00,-17.00,-4.00,-11.00,-30.00,+2.00,-1.00,-1.00
+4.00,-19.00,-3.00,-3.00,-15.00,-3.00,+1.00,+2.00,-4.00,+5.00,+1.00,+2.00,+1.00,-3.00,+6.00,-1.00
+2.00,-16.00,+4.00,+1.00,-8.00,-3.00,-3.00,+2.00,+4.00,+10.00,-5.00,-10.00,-3.00,+7.00,-2.00,+0.00
-2.00,+11.00,+1.00,+1.00,+6.00,-1.00,+4.00,-2.00,+3.00,+5.00,-1.00,+5.00,-11.00,-2.00,-8.00,-2.00
+1.00,+28.00,-2.00,-3.00,-21.00,+3.00,-3.00,+0.00,-7.00,-16.00,-1.00,+6.00,-11.00,-4.00,+8.00,-2.00
-3.00,-4.00,-2.00,+1.00,+6.00,-2.00,-1.00,+0.00,-2.00,+1.00,+0.00,-1.00,-5.00,+1.00,+5.00,-4.00
-9.00,+1.00,+0.00,+0.00,-2.00,+2.00,+3.00,-3.00,-9.00,+18.00,+2.00,+11.00,-1.00,-2.00,-6.00,-2.00
+9.00,+10.00,+2.00,-1.00,-5.00,-4.00,+6.00,+2.00,+9.00,-22.00,-3.00,-12.00,-12.00,+0.00,-4.00,-3.00
+30.00,-9.00,+5.00,-1.00,+7.00,-3.00,+4.00,+3.00,+15.00,-6.00,-2.00,+4.00,-10.00,+0.00,+4.00,+0.00
+19.00,+2.00,-2.00,-1.00,-3.00,+14.00,+2.00,+0.00,-5.00,+17.00,+3.00,-4.00,-4.00,-2.00,+9.00,+0.00
-15.00,-29.00,-5.00,+0.00,+16.00,+0.00,-12.00,-3.00,-30.00,+7.00,+1.00,+6.00,-1.00,+6.00,-13.00,-7.00
-8.00,+6.00,-1.00,-1.00,-7.00,-3.00,+1.00,+2.00,-9.00,-9.00,-4.00,-13.00,-3.00,-5.00,-1.00,+0.00
-31.00,+11.00,-3.00,-1.00,-2.00,-1.00,+8.00,+0.00,+9.00,+10.00,+1.00,-11.00,-10.00,-4.00,+8.00,-1.00
-18.00,-15.00,-1.00,+0.00,+7.00,-5.00,+2.00,+0.00,+1.00,-4.00,+0.00,+3.00,+0.00,+0.00,-6.00,+0.00
-9.00,+8.00,-2.00,+0.00,-12.00,+1.00,+0.00,-1.00,+1.00,-6.00,-2.00,-2.00,+8.00,+0.00,-6.00,+0.00
-8.00,-13.00,-1.00,+0.00,-2.00,+1.00,-10.00,-4.00,+3.00,-35.00,-3.00,-7.00,-9.00,+4.00,-1.00,+0.00
-3.00,+9.00,-2.00,-1.00,-2.00,-2.00,-5.00,-3.00,-14.00,+40.00,+4.00,+9.00,-5.00,-3.00,+5.00,-1.00
+1.00,-31.00,-3.00,-3.00,-5.00,-2.00,-1.00,-5.00,-1.00,-12.00,-2.00,-6.00,-6.00,-1.00,+2.00,-1.00
+11.00,+14.00,+3.00,+0.00,+7.00,-1.00,+5.00,+1.00,-5.00,+12.00,-1.00,+0.00,+0.00,-1.00,-5.00,-1.00
+8.00,-1.00,-1.00,+0.00,-4.00,-1.00,+0.00,-1.00,-1.00,+2.00,+1.00,-2.00,-8.00,+1.00,-3.00,+0.00
-20.00,-51.00,-3.00,+0.00,+12.00,-5.00,+0.00,-1.00,+1.00,-19.00,-2.00,-4.00,-2.00,+0.00,-1.00,+1.00
-5.00,+48.00,+5.00,+1.00,+2.00,+0.00,-2.00,+2.00,-3.00,-5.00,-4.00,-1.00,+0.00,+0.00,+1.00,-2.00
-2.00,+10.00,+1.00,+0.00,-4.00,+0.00,-2.00,+1.00,+9.00,+5.00,-1.00,-8.00,-3.00,-4.00,-3.00,-1.00
-5.00,-12.00,-4.00,-5.00,-1.00,-2.00,-1.00,-1.00,-7.00,-3.00,-2.00,-3.00,-1.00,+1.00,-1.00,+2.00
-1.00,-1.00,-1.00,+0.00,-1.00,-9.00,-1.00,-1.00,-7.00,-10.00,-2.00,+3.00,-4.00,+0.00,+0.00,+0.00
-2.00,-19.00,-4.00,-2.00,-14.00,+3.00,-3.00,-2.00,+0.00,+10.00,-2.00,-2.00,+3.00,+0.00,+0.00,-4.00
+2.00,+12.00,+3.00,+2.00,+30.00,+6.00,+4.00,+2.00,-1.00,-3.00,-1.00,+0.00,-5.00,-2.00,-3.00,-1.00
-8.00,-10.00,-3.00,-1.00,-4.00,+2.00,+1.00,-4.00,+3.00,+2.00,-3.00,+8.00,-1.00,+0.00,-2.00,-1.00
+1.00,-6.00,-2.00,-3.00,+0.00,+3.00,+1.00,+1.00,+0.00,+3.00,-1.00,-14.00,-18.00,-3.00,+0.00,-3.00
-4.00,-20.00,-2.00,+0.00,+3.00,-5.00,-1.00,-2.00,+4.00,-5.00,-1.00,-4.00,-11.00,-4.00,+1.00,+0.00
+19.00,+32.00,+2.00,-1.00,-20.00,-4.00,+2.00,+3.00,+3.00,-1.00,+0.00,+0.00,+3.00,+4.00,-1.00,+0.00
+4.00,-6.00,-1.00,+0.00,-1.00,-3.00,-1.00,-1.00,+9.00,+10.00,-2.00,-6.00,+6.00,+0.00,-3.00,+0.00
+23.00,+4.00,+0.00,+0.00,-1.00,+2.00,-6.00,+0.00,-21.00,-8.00,+0.00,+9.00,+5.00,+0.00,+1.00,-1.00
+30.00,-8.00,-2.00,+0.00,+2.00,-4.00,-1.00,+0.00,+2.00,-3.00,-3.00,-2.00,+2.00,-2.00,+0.00,-1.00
+3.00,-11.00,-5.00,-5.00,-9.00,-1.00,-2.00,-6.00,-8.00,-1.00,-1.00,-1.00,-9.00,-1.00,-3.00,-2.00
+7.00,-2.00,+1.00,-1.00,+0.00,-1.00,-1.00,-1.00,-4.00,+9.00,+1.00,-2.00,-2.00,+0.00,-2.00,-2.00
-9.00,+19.00,-2.00,-2.00,-7.00,+0.00,-2.00,+2.00,+1.00,-5.00,-2.00,+2.00,+2.00,+0.00,+0.00,+0.00
-22.00,-14.00,-3.00,+0.00,+5.00,-4.00,+0.00,-4.00,-2.00,+0.00,+2.00,-2.00,-7.00,-2.00,+1.00,+0.00
-12.00,+1.00,+1.00,-1.00,-6.00,+1.00,+2.00,-1.00,-5.00,+3.00,-2.00,-1.00,+3.00,-3.00,-3.00,-1.00
-12.00,+1.00,+1.00,+1.00,+3.00,-1.00,+0.00,+0.00,-5.00,+0.00,+0.00,-7.00,-2.00,-1.00,-3.00,-2.00
-9.00,-1.00,+0.00,-2.00,-2.00,-1.00,-1.00,-3.00,+0.00,-3.00,-2.00,+1.00,+1.00,+0.00,+0.00,+0.00
-5.00,-3.00,-1.00,-2.00,-1.00,-1.00,-1.00,+0.00,-6.00,-4.00,-4.00,+0.00,-1.00,-1.00,-1.00,-1.00
+1.00,+28.00,-2.00,-3.00,-21.00,+3.00,-3.00,+0.00,+1.00,-2.00,-1.00,-2.00,+1.00,-1.00,-1.00,-1.00
-3.00,-4.00,-2.00,+1.00,+6.00,-2.00,-1.00,+0.00,-1.00,-1.00,-1.00,+1.00,-3.00,+0.00,+0.00,-2.00
-9.00,+1.00,+0.00,+0.00,-2.00,+2.00,+3.00,-3.00,+2.00,-3.00,-1.00,-4.00,+16.00,-1.00,+1.00,+0.00
+9.00,+10.00,+2.00,-1.00,-5.00,-4.00,+6.00,+2.00,-2.00,+0.00,+0.00,+0.00,+3.00,+0.00,-1.00,+0.00
+30.00,-9.00,+5.00,-1.00,+7.00,-3.00,+4.00,+3.00,-1.00,+0.00,-1.00,-3.00,-2.00,-2.00,-1.00,+0.00
+19.00,+2.00,-2.00,-1.00,-3.00,+14.00,+2.00,+0.00,+1.00,+1.00,+1.00,-4.00,-4.00,-1.00,+2.00,+1.00
-8.00,-6.00,-3.00,-1.00,-3.00,-3.00,+1.00,+2.00,-1.00,-2.00,-2.00,+4.00,-2.00,+0.00,+0.00,+0.00
-6.00,-3.00,-2.00,-2.00,+0.00,+1.00,-1.00,-1.00,-1.00,-3.00,-2.00,+0.00,+0.00,-2.00,-2.00,-1.00
-3.00,+8.00,-1.00,+0.00,+7.00,-2.00,-3.00,-1.00,+0.00,-3.00,+0.00,+0.00,+4.00,-1.00,-3.00,-1.00
+0.00,-2.00,-1.00,+0.00,+2.00,-3.00,+1.00,-1.00,-4.00,+3.00,-2.00,-3.00,-4.00,-2.00,-1.00,-3.00
+3.00,+0.00,+0.00,-2.00,-3.00,-2.00,+0.00,-2.00,+3.00,+1.00,-1.00,-2.00,-5.00,-1.00,-2.00,-2.00
-1.00,-6.00,+0.00,+0.00,+3.00,-1.00,-2.00,+0.00,-3.00,-3.00,+0.00,+0.00,+1.00,+1.00,+0.00,-2.00
-2.00,+5.00,-2.00,+1.00,-3.00,+1.00,-3.00,-1.00,-2.00,+0.00,-2.00,+1.00,-6.00,-2.00,-3.00,+0.00
-3.00,+2.00,+0.00,+0.00,+2.00,-4.00,-3.00,-3.00,+1.00,+2.00,+0.00,-1.00,+0.00,-3.00,+0.00,+1.00
-30.00,-8.00,-2.00,-2.00,-3.00,-2.00,-2.00,+0.00,+0.00,-4.00,-1.00,+2.00,-4.00,-2.00,-1.00,-4.00
-20.00,-1.00,+2.00,+0.00,-1.00,+0.00,+1.00,+4.00,+1.00,-2.00,-2.00,+1.00,+0.00,+1.00,-2.00,-4.00
+1.00,+0.00,-2.00,-2.00,-4.00,+0.00,-3.00,+2.00,-4.00,-2.00,-1.00,-2.00,+0.00,-2.00,-1.00,-1.00
