-1.00,-3.00,-2.00,+0.00,-1.00,-2.00,+0.00,+2.00,-1.00,-1.00,-1.00,-3.00,-3.00,+0.00,-3.00,+0.00
+0.00,-1.00,-2.00,-1.00,+0.00,-2.00,-7.00,-1.00,-1.00,-1.00,+0.00,+2.00,+3.00,+1.00,+0.00,+1.00
-1.00,-1.00,-2.00,-2.00,-2.00,-1.00,-5.00,-2.00,-1.00,-2.00,-1.00,+1.00,-3.00,-3.00,-3.00,-1.00
+0.00,+0.00,-1.00,-2.00,+1.00,-2.00,+8.00,+1.00,-1.00,-1.00,-2.00,-2.00,-1.00,+0.00,-2.00,-1.00
-1.00,-1.00,+1.00,-2.00,-1.00,-3.00,-4.00,+4.00,-1.00,-1.00,-1.00,+0.00,+0.00,+0.00,+0.00,+0.00
+2.00,-2.00,-2.00,+0.00,+0.00,+2.00,+4.00,+1.00,+0.00,-2.00,-3.00,-2.00,-4.00,-2.00,-3.00,-2.00
-10.00,-4.00,-1.00,-1.00,+0.00,+2.00,-6.00,-14.00,+0.00,+0.00,-1.00,-3.00,-1.00,-1.00,-3.00,-1.00
-1.00,+0.00,-2.00,-1.00,-3.00,-2.00,+0.00,+5.00,+0.00,+0.00,-1.00,-1.00,-1.00,-2.00,+0.00,+0.00
+3.00,+2.00,-2.00,+0.00,-2.00,-1.00,-4.00,-10.00,-1.00,+0.00,+0.00,-1.00,-1.00,+0.00,-3.00,-4.00
-6.00,-4.00,+1.00,+0.00,+0.00,-4.00,-3.00,+10.00,-2.00,-2.00,-2.00,-1.00,-1.00,-3.00,-3.00,-1.00
+17.00,+9.00,+3.00,+0.00,+0.00,+2.00,+8.00,+11.00,-7.00,-2.00,+0.00,-1.00,-1.00,+1.00,-1.00,-3.00
-3.00,-4.00,+0.00,+1.00,-1.00,-3.00,-13.00,-2.00,+8.00,+2.00,+0.00,-2.00,-4.00,-6.00,+4.00,+5.00
-2.00,-1.00,+0.00,-1.00,-2.00,+0.00,+8.00,+2.00,-6.00,-2.00,+0.00,+0.00,-1.00,-4.00,-8.00,-8.00
-5.00,-1.00,+0.00,+0.00,+0.00,-1.00,-11.00,-10.00,-6.00,-6.00,-3.00,-1.00,-1.00,+1.00,-4.00,-3.00
-13.00,-5.00,-1.00,-1.00,-1.00,-3.00,+0.00,-8.00,+12.00,+4.00,+0.00,+2.00,+2.00,+4.00,+8.00,+6.00
-1.00,-2.00,-1.00,-3.00,-3.00,+0.00,-2.00,+0.00,-8.00,-9.00,-3.00,-2.00,+1.00,+0.00,-2.00,+0.00
-2.00,+0.00,+0.00,+0.00,+0.00,-1.00,-1.00,+0.00,+15.00,+8.00,-2.00,-2.00,-2.00,-2.00,+8.00,+13.00
-7.00,-3.00,-2.00,-3.00,-4.00,-5.00,+4.00,-3.00,+1.00,+1.00,+1.00,+0.00,+0.00,+2.00,+2.00,-2.00
+0.00,-2.00,-1.00,+0.00,+0.00,-1.00,-8.00,+1.00,-3.00,+0.00,-1.00,+0.00,-1.00,-5.00,-5.00,-2.00
-1.00,-2.00,-4.00,-3.00,+1.00,-1.00,+11.00,-5.00,-3.00,+0.00,-2.00,-2.00,-2.00,+1.00,+0.00,-5.00
-5.00,+0.00,+0.00,-2.00,-2.00,+1.00,+2.00,+5.00,-7.00,-7.00,-3.00,-2.00,-1.00,-4.00,-4.00,-6.00
+25.00,+5.00,+0.00,-2.00,+1.00,+1.00,+8.00,+2.00,-2.00,-2.00,-1.00,-3.00,-1.00,-3.00,-3.00,-1.00
-2.00,-1.00,-2.00,-2.00,-1.00,-1.00,+1.00,-2.00,+0.00,+1.00,+0.00,+0.00,+0.00,+0.00,-2.00,-2.00
+1.00,+0.00,-1.00,-1.00,-3.00,-6.00,-17.00,+0.00,-2.00,-5.00,-2.00,+1.00,+0.00,+1.00,-4.00,-5.00
-5.00,+0.00,+1.00,+1.00,+3.00,+4.00,-12.00,-9.00,-3.00,-5.00,-1.00,+0.00,-1.00,+1.00,-4.00,-2.00
-4.00,+0.00,+0.00,-1.00,+0.00,+0.00,+6.00,+6.00,+1.00,+1.00,-1.00,-1.00,-2.00,-8.00,+1.00,+2.00
+11.00,+4.00,+1.00,+1.00,-1.00,+0.00,-5.00,-8.00,+7.00,+1.00,+1.00,-3.00,+1.00,+2.00,-2.00,+3.00
-2.00,+0.00,+1.00,+1.00,+0.00,+1.00,+9.00,+7.00,-12.00,+0.00,-1.00,-1.00,+0.00,+0.00,+6.00,-2.00
-3.00,-4.00,-3.00,-2.00,-2.00,-4.00,-5.00,+6.00,-1.00,-1.00,+0.00,+1.00,+2.00,+4.00,+1.00,+0.00
-8.00,-3.00,+0.00,+0.00,-2.00,-2.00,-17.00,-5.00,-1.00,-1.00,+0.00,+0.00,+0.00,+8.00,+1.00,-4.00
-9.00,-2.00,-2.00,+0.00,+1.00,+0.00,+15.00,+1.00,-7.00,-5.00,-2.00,-5.00,-9.00,-20.00,-12.00,-5.00
+9.00,+2.00,-1.00,-1.00,-3.00,-3.00,-6.00,-12.00,+8.00,+1.00,+1.00,+0.00,+0.00,+0.00,-2.00,+7.00
+6.00,+0.00,+0.00,+1.00,+0.00,+0.00,+5.00,+14.00,+1.00,+1.00,-1.00,-1.00,-3.00,-4.00,+4.00,-2.00
+3.00,+0.00,-2.00,+0.00,+0.00,+6.00,+5.00,+1.00,+1.00,-2.00,-3.00,+0.00,+1.00,-3.00,-2.00,+1.00
-10.00,-6.00,-1.00,-2.00,-1.00,-4.00,-4.00,-3.00,-3.00,-1.00,-1.00,+0.00,+2.00,+7.00,+0.00,-3.00
-7.00,+0.00,-2.00,+0.00,+0.00,-2.00,-7.00,-4.00,+2.00,-1.00,-2.00,-3.00,-5.00,-3.00,-6.00,-3.00
-6.00,-3.00,-3.00,-1.00,-1.00,-3.00,-2.00,-10.00,-5.00,-3.00,+0.00,+0.00,-1.00,-4.00,+1.00,+0.00
+6.00,-1.00,-1.00,-3.00,-2.00,-5.00,-6.00,+10.00,-6.00,-2.00,-1.00,-2.00,-2.00,+1.00,-3.00,-5.00
+3.00,+0.00,-1.00,-1.00,+1.00,+4.00,+8.00,-5.00,-4.00,-3.00,-2.00,-1.00,+0.00,+4.00,+6.00,+0.00
+10.00,+3.00,+1.00,+2.00,+1.00,+3.00,+5.00,+2.00,+0.00,+0.00,-3.00,-1.00,-3.00,-8.00,+3.00,+1.00
-1.00,+0.00,-3.00,-1.00,-2.00,-2.00,-5.00,-8.00,+3.00,+1.00,+1.00,+1.00,+1.00,+1.00,-8.00,-2.00
-17.00,-5.00,-4.00,-3.00,+0.00,-4.00,-5.00,-20.00,-1.00,-1.00,+1.00,+1.00,+0.00,+2.00,-7.00,-5.00
+1.00,+0.00,+0.00,-2.00,-2.00,+1.00,+8.00,+9.00,+8.00,-1.00,-1.00,-2.00,-2.00,-5.00,+4.00,+4.00
+1.00,-1.00,+2.00,-1.00,+0.00,+1.00,-5.00,+9.00,-9.00,-1.00,+0.00,-2.00,-3.00,+2.00,-10.00,-3.00
-6.00,+0.00,+1.00,+1.00,+0.00,-2.00,+11.00,-7.00,+8.00,+2.00,-2.00,-2.00,-3.00,+0.00,+10.00,+7.00
-1.00,-2.00,-1.00,-2.00,-3.00,+2.00,+17.00,+3.00,-11.00,-2.00,+0.00,+1.00,-2.00,-5.00,-7.00,-3.00
-5.00,-6.00,-4.00,-2.00,-4.00,-7.00,-20.00,-3.00,-5.00,-2.00,-1.00,-2.00,+1.00,+2.00,-13.00,-7.00
-7.00,-5.00,-4.00,-1.00,+2.00,+0.00,-4.00,+2.00,-3.00,-4.00,-1.00,+2.00,+4.00,+9.00,+27.00,+0.00
+5.00,+3.00,+1.00,-1.00,+2.00,+1.00,+2.00,-10.00,-7.00,-6.00,-3.00,-5.00,-7.00,-8.00,-5.00,-2.00
+1.00,+1.00,+1.00,+1.00,-1.00,+0.00,-4.00,+2.00,+8.00,+6.00,+1.00,-1.00,+1.00,+1.00,-7.00,+5.00
+0.00,-2.00,-1.00,-1.00,-2.00,-3.00,-2.00,-13.00,+1.00,+0.00,+1.00,+2.00,+2.00,-2.00,+7.00,+2.00
-12.00,-4.00,-5.00,-3.00,-4.00,-6.00,-5.00,+6.00,-2.00,+1.00,-1.00,+0.00,+0.00,-11.00,-19.00,-8.00
-6.00,-2.00,+2.00,-1.00,+0.00,+0.00,+4.00,-1.00,-7.00,-5.00,-5.00,-5.00,-7.00,-4.00,-7.00,-7.00
-2.00,-1.00,-4.00,+0.00,+1.00,-1.00,+11.00,+2.00,-1.00,-3.00,-1.00,-2.00,+1.00,-3.00,-36.00,-8.00
+3.00,-1.00,-1.00,+1.00,+2.00,+1.00,-4.00,-4.00,+2.00,+1.00,+2.00,+0.00,+2.00,+9.00,+55.00,+16.00
+11.00,+6.00,+1.00,-1.00,-4.00,-6.00,-19.00,-9.00,+0.00,+2.00,+1.00,-1.00,+0.00,+4.00,+0.00,+0.00
+6.00,-1.00,-2.00,-4.00,-6.00,-9.00,-6.00,+7.00,-1.00,-1.00,+1.00,+0.00,+3.00,+3.00,+7.00,+1.00
+3.00,+3.00,+2.00,+1.00,+2.00,+5.00,+9.00,-7.00,-3.00,-2.00,-3.00,-3.00,-4.00,-4.00,-8.00,-2.00
-13.00,-2.00,+1.00,+2.00,+4.00,+8.00,+29.00,+38.00,+4.00,+0.00,+0.00,+2.00,+1.00,+3.00,+2.00,+0.00
+19.00,+0.00,+0.00,-1.00,+2.00,+5.00,+4.00,-3.00,+0.00,-2.00,-1.00,-1.00,-4.00,-5.00,-9.00,-3.00
-5.00,-6.00,-2.00,+0.00,-2.00,+1.00,+3.00,-4.00,-19.00,-5.00,-1.00,+0.00,+0.00,-3.00,-5.00,-1.00
-9.00,-1.00,-1.00,-1.00,-3.00,-8.00,-18.00,-13.00,+20.00,+6.00,-1.00,+1.00,+1.00,+10.00,+21.00,+3.00
-4.00,+2.00,+2.00,-1.00,-2.00,-6.00,-17.00,-6.00,-7.00,-1.00,-3.00,-3.00,-1.00,+3.00,-16.00,-6.00
-6.00,-10.00,-6.00,-2.00,+1.00,-3.00,+4.00,-3.00,-1.00,-4.00,-5.00,-5.00,-7.00,-16.00,-1.00,-3.00
-2.00,+3.00,-5.00,-4.00,-3.00,-2.00,-6.00,+10.00,+15.00,+8.00,+2.00,+2.00,+4.00,+0.00,+2.00,-1.00
+8.00,-3.00,-3.00,-2.00,+0.00,+1.00,+5.00,-3.00,-6.00,-2.00,-3.00,-1.00,+0.00,+0.00,+19.00,+8.00
+2.00,+4.00,+0.00,+0.00,-1.00,+0.00,-6.00,-10.00,-2.00,-2.00,-1.00,-1.00,+1.00,-3.00,-5.00,+5.00
+4.00,+3.00,+1.00,-1.00,-3.00,-5.00,-4.00,-3.00,+2.00,+0.00,+0.00,-1.00,+0.00,+4.00,+0.00,+0.00
-3.00,+4.00,+6.00,+0.00,-1.00,-1.00,-24.00,-10.00,-8.00,-6.00,-4.00,+0.00,+1.00,+0.00,-8.00,-5.00
+8.00,-3.00,-4.00,+1.00,+0.00,+3.00,-2.00,+10.00,+2.00,+11.00,+3.00,-1.00,+0.00,-2.00,+4.00,-4.00
-5.00,+3.00,+1.00,+1.00,+1.00,+0.00,+11.00,+9.00,-2.00,-20.00,-11.00,-4.00,-4.00,-3.00,-13.00,-6.00
-14.00,-2.00,+1.00,+0.00,+1.00,+0.00,+8.00,-10.00,-13.00,-9.00,-1.00,+0.00,+0.00,+4.00,+14.00,-5.00
+22.00,+0.00,-3.00,-3.00,-1.00,-3.00,-1.00,+7.00,-12.00,-4.00,-5.00,-1.00,-1.00,-4.00,-10.00,-4.00
-8.00,+0.00,+4.00,+1.00,-3.00,-3.00,-19.00,-10.00,+12.00,+6.00,-1.00,+1.00,+0.00,+8.00,+10.00,+8.00
-2.00,-3.00,-1.00,-3.00,-4.00,-10.00,+3.00,+3.00,+2.00,+10.00,+1.00,-1.00,-4.00,-3.00,-2.00,-1.00
-15.00,-15.00,-3.00,+0.00,+1.00,+2.00,+2.00,-16.00,+6.00,+9.00,-1.00,+2.00,+0.00,-6.00,-17.00,-1.00
+4.00,+3.00,+0.00,+0.00,+4.00,+8.00,+2.00,+7.00,-5.00,-6.00,+0.00,-2.00,-2.00,+0.00,+10.00,-6.00
+1.00,+4.00,+0.00,-1.00,-1.00,-2.00,-7.00,+7.00,+1.00,-10.00,-5.00,-3.00,-5.00,-7.00,-5.00,+4.00
+0.00,-2.00,-3.00,-1.00,-4.00,-2.00,-4.00,-10.00,-30.00,-10.00,-2.00,-1.00,+0.00,-2.00,-19.00,-16.00
-12.00,+0.00,-2.00,-3.00,-2.00,-3.00,-4.00,-19.00,+21.00,+8.00,+1.00,+3.00,+6.00,+9.00,+17.00,+11.00
+5.00,-3.00,+1.00,+2.00,+2.00,+3.00,+18.00,+15.00,+5.00,+7.00,+1.00,-1.00,+1.00,+5.00,-42.00,-14.00
-13.00,+0.00,+1.00,-1.00,+0.00,+1.00,+0.00,+9.00,-3.00,+0.00,-2.00,-5.00,-6.00,-11.00,+36.00,+8.00
+22.00,-1.00,-4.00,-2.00,-1.00,-4.00,-9.00,+15.00,+3.00,+12.00,+4.00,+1.00,-1.00,-2.00,+17.00,-1.00
-10.00,-8.00,-5.00,-2.00,-3.00,+0.00,-4.00,+0.00,-15.00,-28.00,-10.00,-4.00,+2.00,+5.00,-7.00,+0.00
-13.00,-6.00,-1.00,+0.00,-4.00,-3.00,-10.00,-27.00,+4.00,+0.00,+0.00,+1.00,-2.00,+2.00,-4.00,-1.00
+2.00,+7.00,+0.00,+0.00,+1.00,-1.00,+18.00,+8.00,-3.00,-8.00,-3.00,-3.00,-4.00,-6.00,-10.00,-3.00
-16.00,-7.00,-2.00,-2.00,+1.00,+2.00,-2.00,-2.00,-1.00,+5.00,+2.00,+1.00,+3.00,-1.00,-3.00,-7.00
+7.00,+7.00,+1.00,-3.00,-4.00,-6.00,-6.00,+9.00,+24.00,+20.00,+5.00,-3.00,-6.00,-4.00,+7.00,+17.00
-10.00,-9.00,-3.00,+0.00,-5.00,-13.00,-27.00,-22.00,-5.00,-5.00,-3.00,-2.00,+0.00,+0.00,-26.00,-14.00
-11.00,+0.00,+0.00,+1.00,+5.00,+8.00,+25.00,+9.00,-20.00,-21.00,-7.00,-3.00,-2.00,+3.00,+28.00,+1.00
+9.00,+7.00,-1.00,+1.00,+3.00,+8.00,+8.00,+20.00,+1.00,-4.00,-1.00,-2.00,-6.00,-4.00,-22.00,-5.00
+23.00,+3.00,+2.00,+4.00,+0.00,+4.00,+9.00,+7.00,-2.00,-5.00,+3.00,+1.00,+0.00,+1.00,+3.00,-3.00
+7.00,+6.00,+3.00,+1.00,-2.00,-1.00,-7.00,-3.00,+8.00,+2.00,+3.00,+2.00,+3.00,+3.00,+2.00,+9.00
-8.00,-7.00,-3.00,-4.00,-6.00,-13.00,-22.00,-17.00,-5.00,+6.00,+2.00,-1.00,-1.00,-1.00,-29.00,-13.00
-1.00,-1.00,-2.00,-2.00,-2.00,-2.00,-2.00,-10.00,-1.00,+3.00,+2.00,-1.00,+1.00,+3.00,+5.00,-4.00
-8.00,+3.00,+1.00,+1.00,+1.00,-2.00,+0.00,+6.00,-5.00,-9.00,-7.00,-6.00,-11.00,-26.00,-25.00,-9.00
-6.00,-2.00,-1.00,+0.00,-2.00,+0.00,-15.00,+0.00,+16.00,-1.00,-1.00,+0.00,+3.00,+6.00,+42.00,+26.00
+0.00,-3.00,-5.00,-4.00,-4.00,-6.00,+16.00,-5.00,-13.00,+0.00,+2.00,+1.00,+1.00,-2.00,-5.00,-10.00
+9.00,-1.00,+0.00,+4.00,+4.00,+9.00,+4.00,-5.00,-3.00,-5.00,-2.00,+1.00,+3.00,+5.00,-11.00,+0.00
-5.00,+2.00,+2.00,+1.00,+0.00,-2.00,-2.00,+20.00,-10.00,-1.00,-1.00,+1.00,+2.00,+9.00,-10.00,-13.00
-7.00,-5.00,-4.00,+0.00,+0.00,+6.00,+31.00,-2.00,+3.00,+4.00,-1.00,-5.00,-6.00,-8.00,+12.00,+3.00
+1.00,-3.00,-4.00,-4.00,-4.00,-6.00,-14.00,-10.00,-3.00,-5.00,-5.00,+0.00,+3.00,+7.00,-6.00,-4.00
-3.00,+1.00,+2.00,+0.00,-2.00,-4.00,-19.00,-10.00,+8.00,-1.00,-6.00,-4.00,-6.00,-8.00,-9.00,+2.00
-2.00,-6.00,-5.00,-1.00,-2.00,-2.00,+9.00,+6.00,-7.00,+5.00,-1.00,+0.00,+0.00,+3.00,-4.00,-7.00
-7.00,-2.00,-4.00,-3.00,-1.00,-3.00,-8.00,-10.00,-5.00,-3.00,-5.00,-2.00,-4.00,-7.00,+20.00,+3.00
+4.00,-2.00,+2.00,+3.00,+0.00,+1.00,+8.00,+24.00,+2.00,-3.00,-1.00,+0.00,+1.00,+6.00,-5.00,+2.00
+10.00,-6.00,+1.00,-4.00,-3.00,+2.00,+3.00,-21.00,-1.00,+3.00,-1.00,-4.00,-5.00,-9.00,-3.00,-6.00
+5.00,+9.00,+4.00,+1.00,+5.00,+7.00,+18.00,+12.00,+1.00,-3.00,-2.00,+0.00,+4.00,+10.00,+11.00,+2.00
-12.00,-7.00,-2.00,-3.00,-1.00,+1.00,+5.00,+9.00,-7.00,-5.00,-2.00,-1.00,-5.00,-9.00,-9.00,-5.00
+17.00,+3.00,+0.00,-1.00,-3.00,-4.00,-19.00,-15.00,+11.00,-1.00,-3.00,-3.00,-3.00,-4.00,-12.00,+0.00
-10.00,-2.00,-1.00,-3.00,-3.00,-6.00,+12.00,+10.00,-9.00,-4.00,+0.00,+1.00,+4.00,+14.00,+36.00,-1.00
-16.00,-5.00,-3.00,-2.00,-2.00,-1.00,-7.00,-16.00,+5.00,+4.00,-2.00,-5.00,-6.00,-12.00,-35.00,-2.00
+9.00,+6.00,+0.00,+2.00,+3.00,+1.00,+4.00,-2.00,-16.00,-4.00,-2.00,-1.00,-3.00,-7.00,+9.00,-5.00
-3.00,-2.00,+1.00,-1.00,-1.00,+0.00,-12.00,-7.00,+13.00,+9.00,+3.00,-1.00,-2.00,-5.00,+6.00,+16.00
-1.00,-1.00,-2.00,-1.00,-2.00,-7.00,-12.00,-1.00,-3.00,-13.00,-6.00,-4.00,-4.00,-6.00,-13.00,+1.00
+0.00,-4.00,-2.00,-2.00,-1.00,-1.00,+10.00,-4.00,+0.00,-4.00,-2.00,-1.00,+3.00,+9.00,+6.00,+10.00
-5.00,+1.00,-4.00,-1.00,-1.00,-3.00,+13.00,+16.00,+8.00,+5.00,-1.00,-2.00,-5.00,+4.00,-11.00,-11.00
+3.00,-1.00,-1.00,+0.00,+0.00,+5.00,-1.00,+1.00,-5.00,+0.00,+1.00,-1.00,-1.00,-1.00,+8.00,+1.00
+13.00,+0.00,+0.00,+0.00,-1.00,+0.00,-4.00,-6.00,-4.00,-3.00,+2.00,+0.00,+0.00,-7.00,-19.00,-4.00
-6.00,-2.00,-2.00,-4.00,-6.00,-7.00,-13.00,-4.00,+4.00,+4.00,+1.00,+2.00,+2.00,+4.00,+14.00,+20.00
-3.00,-3.00,-2.00,-1.00,+1.00,+3.00,-24.00,-17.00,-5.00,+2.00,+0.00,-2.00,+4.00,+2.00,-10.00,-23.00
+1.00,-4.00,+0.00,+2.00,+2.00,+2.00,+33.00,+23.00,-6.00,-6.00,+0.00,-3.00,-3.00,-8.00,-15.00,-10.00
-16.00,+2.00,+1.00,-2.00,-1.00,+2.00,-13.00,-16.00,-3.00,-4.00,-1.00,+0.00,+1.00,+9.00,+21.00,-3.00
-5.00,-2.00,-1.00,+1.00,+0.00,-1.00,-4.00,+2.00,-11.00,-4.00,+1.00,-2.00,-5.00,-16.00,-26.00,-6.00
+8.00,+2.00,+0.00,-2.00,-5.00,-10.00,-23.00,-19.00,+4.00,+2.00,+2.00,+1.00,+4.00,+8.00,+24.00,+10.00
-21.00,-13.00,-4.00,-4.00,-3.00,-4.00,+16.00,+12.00,+0.00,-6.00,-5.00,-6.00,-6.00,+1.00,-16.00,-2.00
+15.00,+3.00,+3.00,+5.00,+6.00,+14.00,+6.00,+24.00,+5.00,+2.00,+1.00,+2.00,+2.00,+1.00,+9.00,+7.00
+14.00,+0.00,+0.00,-1.00,+0.00,+2.00,+3.00,+14.00,+4.00,+4.00,+1.00,-1.00,-1.00,-6.00,-11.00,-8.00
-9.00,+3.00,-1.00,+0.00,-1.00,+4.00,+1.00,-8.00,+8.00,-2.00,-2.00,-2.00,+0.00,-1.00,+12.00,+0.00
+0.00,+1.00,+0.00,-1.00,-1.00,-2.00,-13.00,-22.00,-8.00,+1.00,+2.00,-1.00,+1.00,-4.00,-9.00,-5.00
-32.00,-7.00,-4.00,-1.00,-3.00,-13.00,-8.00,-3.00,-4.00,-4.00,-2.00,-2.00,+2.00,+9.00,-6.00,-4.00
+13.00,+1.00,-2.00,-1.00,-2.00,+1.00,+7.00,-7.00,-10.00,-8.00,-6.00,-6.00,-7.00,-7.00,+6.00,-15.00
+4.00,-9.00,+1.00,-2.00,-7.00,-3.00,-2.00,+18.00,-4.00,-1.00,+4.00,+4.00,+2.00,-10.00,-4.00,+14.00
+1.00,+0.00,+0.00,+0.00,-2.00,-5.00,-17.00,-9.00,+9.00,+6.00,+2.00,+1.00,-2.00,-3.00,-4.00,+16.00
-9.00,-3.00,-3.00,+0.00,+1.00,+2.00,+15.00,-16.00,+13.00,+4.00,-3.00,-3.00,-2.00,-5.00,+2.00,-13.00
+2.00,+5.00,+1.00,+0.00,+1.00,+1.00,-1.00,-5.00,-1.00,-1.00,+3.00,+3.00,+3.00,+8.00,+11.00,+5.00
-3.00,-6.00,-3.00,-3.00,+1.00,+0.00,+13.00,+5.00,-14.00,-8.00,-5.00,-5.00,-3.00,+3.00,-8.00,-4.00
+3.00,+3.00,+0.00,+0.00,-1.00,-4.00,-28.00,-3.00,+2.00,-4.00,-2.00,-1.00,-2.00,-3.00,+20.00,-5.00
+2.00,-3.00,-4.00,-3.00,-6.00,-10.00,-4.00,-6.00,-5.00,+7.00,+3.00,+1.00,+3.00,+3.00,-12.00,+15.00
-11.00,-1.00,+2.00,+4.00,+4.00,+10.00,+15.00,-1.00,-5.00,-1.00,-1.00,-4.00,-7.00,-1.00,-30.00,-28.00
-3.00,+1.00,+1.00,+0.00,+1.00,+4.00,+40.00,+23.00,-12.00,-1.00,+4.00,+3.00,+3.00,+4.00,+49.00,+11.00
+15.00,+0.00,+0.00,+1.00,+3.00,+7.00,+4.00,+6.00,+9.00,-4.00,-4.00,+0.00,+0.00,+2.00,-7.00,-9.00
-28.00,-11.00,-5.00,-7.00,-13.00,-22.00,-48.00,-20.00,+5.00,+4.00,-1.00,-1.00,-1.00,-6.00,-10.00,+2.00
-12.00,-3.00,-3.00,-4.00,-6.00,-16.00,-70.00,-29.00,-1.00,-2.00,+2.00,+3.00,+4.00,+5.00,+7.00,+3.00
+7.00,-9.00,+1.00,+9.00,+12.00,+24.00,+58.00,+1.00,+1.00,+2.00,-4.00,-3.00,-3.00,+3.00,-21.00,-9.00
+20.00,+18.00,-1.00,+0.00,-1.00,+6.00,+7.00,+0.00,-5.00,+0.00,+2.00,+0.00,-1.00,-13.00,+9.00,+5.00
+9.00,-6.00,-5.00,-2.00,+0.00,+6.00,+11.00,+5.00,+5.00,+0.00,-2.00,-4.00,-8.00,-20.00,-10.00,+3.00
+2.00,+5.00,-1.00,-3.00,-5.00,-9.00,-4.00,-11.00,-9.00,-3.00,-3.00,+2.00,-1.00,-3.00,+11.00,+0.00
+0.00,+2.00,-1.00,-3.00,-5.00,-11.00,-43.00,+6.00,-10.00,-11.00,-4.00,-1.00,+2.00,-2.00,-56.00,-11.00
-2.00,-3.00,+2.00,-1.00,+3.00,+3.00,+33.00,-11.00,-2.00,-8.00,-10.00,-8.00,-10.00,+10.00,+36.00,-22.00
+8.00,-7.00,-1.00,-3.00,-1.00,-1.00,-5.00,+9.00,+20.00,+12.00,+8.00,+6.00,+8.00,+15.00,+57.00,+45.00
-25.00,-9.00,+0.00,+1.00,+1.00,+2.00,+6.00,-21.00,+2.00,+8.00,+4.00,+0.00,+0.00,+1.00,+6.00,+3.00
+9.00,+4.00,+0.00,+3.00,+7.00,+3.00,+17.00,+41.00,+7.00,+10.00,+0.00,-2.00,-4.00,-4.00,-11.00,+3.00
+28.00,+7.00,+0.00,-1.00,-2.00,-1.00,-14.00,-21.00,-23.00,-12.00,-2.00,+0.00,+3.00,-4.00,-26.00,-15.00
-4.00,+4.00,+2.00,-3.00,-4.00,-6.00,+9.00,+21.00,+7.00,+3.00,-4.00,-3.00,-3.00,+2.00,-16.00,-20.00
-10.00,-12.00,-1.00,-1.00,-1.00,-6.00,-36.00,-21.00,-4.00,-11.00,-2.00,-2.00,-1.00,-5.00,+14.00,+21.00
-14.00,+12.00,-5.00,-2.00,+2.00,+7.00,+11.00,-32.00,+12.00,+11.00,+2.00,+2.00,-2.00,-1.00,+0.00,-4.00
+14.00,+6.00,-1.00,-4.00,-6.00,-4.00,+4.00,+41.00,-7.00,-5.00,-1.00,-1.00,+0.00,-2.00,-9.00,+9.00
-2.00,-4.00,-3.00,+1.00,-2.00,-1.00,+3.00,-2.00,-25.00,-14.00,-2.00,-1.00,-2.00,-11.00,-11.00,-7.00
-35.00,-19.00,-2.00,+0.00,+35.00,+9.00,-8.00,-12.00,+14.00,+15.00,+4.00,+3.00,+6.00,+18.00,+6.00,-9.00
-8.00,-11.00,+1.00,+1.00,-26.00,-6.00,-6.00,-12.00,-6.00,-5.00,-5.00,-5.00,-11.00,-19.00,-28.00,-14.00
+11.00,+4.00,-2.00,-2.00,-14.00,-6.00,-3.00,+9.00,+9.00,+8.00,+0.00,-3.00,-4.00,+3.00,+10.00,+8.00
+40.00,+12.00,+0.00,-1.00,-12.00,-5.00,-7.00,-7.00,+2.00,+12.00,+4.00,+0.00,-1.00,-4.00,-23.00,-2.00
+7.00,+3.00,-4.00,-8.00,-23.00,-22.00,+6.00,+13.00,-16.00,-23.00,-7.00,+2.00,+6.00,+7.00,+16.00,+4.00
-32.00,-11.00,+3.00,+2.00,+25.00,+5.00,-4.00,-21.00,-46.00,-30.00,-9.00,-4.00,-2.00,-3.00,-28.00,-18.00
-3.00,-3.00,-2.00,+3.00,+6.00,+13.00,+13.00,+7.00,+15.00,+9.00,+3.00,+1.00,+6.00,+22.00,+53.00,-1.00
-10.00,-2.00,+0.00,+2.00,-2.00,+2.00,+8.00,+8.00,+49.00,+5.00,-1.00,-7.00,-12.00,-7.00,+22.00,+25.00
+1.00,-1.00,-2.00,+2.00,+9.00,+12.00,+47.00,+25.00,-11.00,+8.00,+2.00,+3.00,+7.00,-8.00,-8.00,+2.00
+6.00,+6.00,+1.00,-3.00,-7.00,-11.00,-25.00,-9.00,-30.00,-12.00,-2.00,+0.00,+6.00,+12.00,+4.00,-9.00
-14.00,-8.00,-10.00,-3.00,+1.00,-5.00,-34.00,-6.00,-12.00,-1.00,-6.00,-5.00,-6.00,-13.00,-22.00,-14.00
-13.00,+3.00,-3.00,-1.00,-2.00,-3.00,+23.00,-2.00,+1.00,-1.00,+1.00,+1.00,-1.00,+2.00,-26.00,-11.00
+18.00,-4.00,+6.00,+4.00,-5.00,+6.00,+9.00,+19.00,+18.00,+8.00,+2.00,-3.00,-5.00,-11.00,+3.00,+13.00
+5.00,-2.00,-2.00,-4.00,-9.00,-12.00,-2.00,-4.00,+13.00,+4.00,-1.00,-1.00,+1.00,-2.00,+20.00,+5.00
-24.00,-18.00,-2.00,-4.00,-3.00,-6.00,+0.00,-23.00,+0.00,+3.00,+6.00,+8.00,+11.00,+8.00,-17.00,+8.00
+7.00,+12.00,+11.00,+14.00,+25.00,+31.00,+38.00,-10.00,+1.00,+11.00,+0.00,-4.00,-5.00,-6.00,-19.00,-17.00
-3.00,+15.00,-1.00,-4.00,-10.00,+1.00,-15.00,-8.00,-13.00,-11.00,-7.00,-4.00,-7.00,+4.00,+8.00,-12.00
+14.00,-5.00,-3.00,-3.00,-3.00,+2.00,+27.00,+5.00,+10.00,-19.00,-8.00,-3.00,-3.00,-12.00,+3.00,+3.00
+4.00,+11.00,+0.00,-3.00,+0.00,-9.00,-25.00,-14.00,-8.00,-8.00,-1.00,-1.00,-2.00,-8.00,-47.00,-10.00
-10.00,-7.00,-2.00,-2.00,-2.00,-5.00,-10.00,-18.00,-13.00,-12.00,-6.00,+1.00,+9.00,+19.00,+22.00,-2.00
+13.00,+1.00,-3.00,-1.00,-11.00,-11.00,+1.00,+11.00,-22.00,-7.00,-10.00,-11.00,-21.00,-35.00,-69.00,-31.00
-4.00,+0.00,+0.00,-1.00,+3.00,+0.00,-18.00,+1.00,+57.00,+54.00,+26.00,+10.00,+15.00,+31.00,+108.00,+61.00
-21.00,-9.00,+1.00,+2.00,+5.00,+5.00,+8.00,-24.00,-8.00,-33.00,-13.00,-3.00,-3.00,-9.00,-14.00,-3.00
-14.00,-14.00,-8.00,-4.00,+18.00,+1.00,-32.00,-8.00,-29.00,-12.00,-3.00,-1.00,-4.00,-13.00,-18.00,-17.00
+15.00,+9.00,+3.00,+1.00,-34.00,-4.00,+3.00,+2.00,-10.00,-13.00,-5.00,-1.00,+3.00,+11.00,-2.00,-5.00
-6.00,-7.00,+1.00,-1.00,-1.00,-9.00,+14.00,+13.00,+22.00,+12.00,-1.00,+0.00,-2.00,+0.00,-22.00,+11.00
+9.00,+1.00,+11.00,+6.00,+2.00,+4.00,+29.00,+32.00,+10.00,+14.00,+2.00,-1.00,-1.00,-1.00,-2.00,+2.00
-10.00,+0.00,-5.00,-3.00,+2.00,+8.00,-5.00,+0.00,+2.00,-1.00,-2.00,-2.00,-1.00,-2.00,+22.00,+11.00
+11.00,-6.00,-10.00,-4.00,+7.00,+0.00,-10.00,+6.00,+16.00,+19.00,+8.00,+2.00,+1.00,+0.00,+5.00,+4.00
-5.00,+0.00,+1.00,+1.00,-1.00,-1.00,-5.00,+7.00,-19.00,-25.00,-8.00,-4.00,-6.00,-7.00,-24.00,-24.00
-38.00,-14.00,-5.00,-1.00,+0.00,-3.00,-27.00,-46.00,-7.00,+1.00,+3.00,+4.00,+2.00,-4.00,-3.00,+3.00
+34.00,+4.00,+8.00,+2.00,-1.00,+0.00,+28.00,+42.00,-9.00,-11.00,-6.00,-2.00,+1.00,+8.00,+22.00,-16.00
+16.00,+19.00,+1.00,+0.00,+3.00,+2.00,-5.00,-11.00,+13.00,+15.00,+7.00,+5.00,+3.00,+4.00,+3.00,+3.00
+13.00,-6.00,-6.00,-3.00,-10.00,-2.00,-9.00,-8.00,+4.00,+6.00,-2.00,-6.00,-12.00,-28.00,-22.00,+3.00
-13.00,+3.00,-3.00,-4.00,+3.00,-2.00,-9.00,+22.00,-4.00,-14.00,-5.00,-3.00,-1.00,+6.00,+20.00,-1.00
-35.00,-18.00,-5.00,-3.00,-9.00,-9.00,-28.00,-14.00,-6.00,-8.00,+1.00,+2.00,+0.00,-7.00,-26.00,+0.00
-4.00,-1.00,+1.00,-1.00,-3.00,-4.00,+15.00,-18.00,+15.00,+7.00,-1.00,-2.00,+1.00,+10.00,+33.00,+2.00
+22.00,+23.00,+10.00,+5.00,+7.00,+6.00,+4.00,+36.00,-18.00,+2.00,-2.00,+0.00,+2.00,+7.00,+1.00,-3.00
+17.00,-1.00,+1.00,-2.00,-7.00,-5.00,-12.00,+12.00,-22.00,-2.00,+0.00,-1.00,-5.00,-7.00,-12.00,-10.00
+10.00,+16.00,+7.00,+0.00,+0.00,+3.00,+30.00,-5.00,-1.00,+10.00,-3.00,-2.00,-4.00,-13.00,-19.00,+4.00
-10.00,-14.00,-13.00,-5.00,+1.00,-3.00,-21.00,-28.00,-6.00,-10.00,+1.00,-1.00,+1.00,-1.00,-3.00,-12.00
-20.00,-12.00,-7.00,-4.00,+0.00,-3.00,-13.00,-27.00,+28.00,-5.00,-7.00,-4.00,-2.00,+5.00,-5.00,-4.00
+14.00,-1.00,-5.00,+1.00,+5.00,+9.00,+37.00,+54.00,-12.00,+0.00,+0.00,+2.00,+3.00,+6.00,+10.00,+6.00
+13.00,+2.00,+3.00,+0.00,-9.00,-9.00,+15.00,+11.00,-8.00,-4.00,+0.00,-1.00,-2.00,-6.00,-14.00,+2.00
-4.00,+4.00,+15.00,+5.00,+24.00,+12.00,-26.00,-21.00,-13.00,-3.00,-2.00,-1.00,-5.00,+3.00,+2.00,-16.00
-19.00,-8.00,-18.00,-9.00,-24.00,-18.00,+5.00,-9.00,+5.00,+5.00,+2.00,+5.00,+6.00,+14.00,+20.00,+9.00
+0.00,+12.00,+5.00,+2.00,+1.00,-1.00,-5.00,-9.00,+15.00,+12.00,+5.00,-2.00,-5.00,-13.00,-7.00,+5.00
+2.00,-2.00,-6.00,-2.00,-2.00,+0.00,-13.00,+2.00,+8.00,+1.00,-6.00,-4.00,-3.00,+9.00,+19.00,-4.00
+2.00,-1.00,-1.00,-1.00,+0.00,-3.00,+8.00,-20.00,-14.00,-24.00,-2.00,+5.00,+8.00,+3.00,-3.00,+10.00
+3.00,-1.00,+1.00,+0.00,+1.00,-8.00,-9.00,-5.00,-5.00,+6.00,-1.00,-5.00,-5.00,-15.00,-26.00,-12.00
-4.00,-40.00,+14.00,+12.00,+13.00,+26.00,+36.00,-30.00,+4.00,-6.00,+0.00,+1.00,+0.00,+8.00,+25.00,+0.00
-4.00,+38.00,-11.00,-5.00,-1.00,+6.00,+2.00,+27.00,-10.00,-3.00,-5.00,-6.00,-10.00,-9.00,-23.00,-12.00
-5.00,+4.00,-3.00,-6.00,-5.00,-7.00,-6.00,-1.00,+17.00,+36.00,+2.00,-2.00,-3.00,+0.00,+9.00,+8.00
+17.00,+8.00,+2.00,-1.00,+4.00,+3.00,-17.00,-8.00,-22.00,-41.00,-6.00,-1.00,-2.00,-10.00,-16.00,-9.00
-16.00,-4.00,-9.00,-5.00,-10.00,-15.00,+3.00,-14.00,-1.00,+9.00,+1.00,+1.00,+1.00,+7.00,+5.00,+0.00
+8.00,-13.00,+8.00,+4.00,-1.00,-8.00,-56.00,-4.00,-7.00,-5.00,+0.00,+3.00,+3.00,+8.00,-21.00,-11.00
-11.00,-6.00,+2.00,-4.00,-7.00,-2.00,+42.00,+22.00,+15.00,+47.00,+8.00,+2.00,-9.00,-38.00,-9.00,-3.00
+37.00,+14.00,+2.00,+5.00,+11.00,+19.00,+28.00,+86.00,+10.00,+8.00,+21.00,+4.00,+3.00,+11.00,-1.00,+30.00
-40.00,-20.00,-13.00,-8.00,-10.00,-22.00,-89.00,-109.00,-19.00,-38.00,-40.00,-15.00,-11.00,-16.00,-37.00,-18.00
-7.00,-9.00,+5.00,+2.00,-2.00,+10.00,+95.00,+96.00,-8.00,-11.00,-1.00,+4.00,+8.00,+13.00,+27.00,+4.00
+25.00,+17.00,+1.00,+0.00,+2.00,+15.00,+11.00,+15.00,-1.00,-14.00,-5.00,-3.00,-2.00,+5.00,+8.00,-4.00
+4.00,-11.00,+5.00,+4.00,+6.00,+9.00,+20.00,-2.00,-5.00,+24.00,+6.00,+6.00,+3.00,+8.00,+36.00,-9.00
-8.00,+10.00,+9.00,+0.00,+1.00,-2.00,-24.00,-31.00,+8.00,+9.00,+2.00,-2.00,-6.00,-17.00,-20.00,-8.00
-19.00,-21.00,-19.00,-8.00,-1.00,-21.00,-85.00,-84.00,+4.00,+6.00,+11.00,+7.00,+7.00,-3.00,+31.00,+21.00
+6.00,+17.00,-2.00,+1.00,-5.00,-2.00,+64.00,+40.00,-7.00,-5.00,-10.00,-5.00,-2.00,+3.00,-3.00,-2.00
+22.00,+5.00,+6.00,+8.00,+28.00,+21.00,-4.00,-19.00,+0.00,+2.00,-4.00,+0.00,-3.00,-34.00,-107.00,-26.00
+3.00,+10.00,-8.00,-8.00,-21.00,-12.00,+6.00,+12.00,+3.00,-8.00,+2.00,+3.00,+9.00,+37.00,+115.00,+23.00
-13.00,-10.00,+7.00,-3.00,-10.00,-17.00,-28.00,-30.00,+14.00,+21.00,+3.00,-1.00,-6.00,-7.00,-8.00,+5.00
+5.00,-22.00,+3.00,+5.00,-11.00,-1.00,+32.00,+47.00,-4.00,-16.00,-8.00,-1.00,+2.00,+9.00,+10.00,+8.00
-14.00,+20.00,+2.00,-2.00,-2.00,+1.00,-31.00,+0.00,-3.00,+7.00,+0.00,-2.00,+5.00,+30.00,+36.00,+2.00
-4.00,-7.00,+0.00,+7.00,+10.00,+21.00,+44.00,-27.00,-18.00,-36.00,-7.00,-7.00,-19.00,-54.00,-85.00,-20.00
+13.00,+10.00,+4.00,-1.00,+5.00,-2.00,-40.00,-55.00,-1.00,+14.00,+8.00,+8.00,+14.00,+11.00,+11.00,+7.00
-8.00,-13.00,-14.00,-5.00,+1.00,-4.00,-13.00,-54.00,+14.00,-26.00,-11.00,-6.00,-3.00,+8.00,+27.00,+15.00
-1.00,+2.00,+0.00,-4.00,-12.00,-17.00,-13.00,+31.00,-16.00,-18.00,-10.00,-1.00,-4.00,-2.00,-18.00,-23.00
+3.00,+19.00,-1.00,-2.00,+5.00,+4.00,+18.00,+6.00,+11.00,+53.00,+15.00,+9.00,+8.00,-15.00,-35.00,+1.00
+5.00,-7.00,-1.00,+2.00,+1.00,+9.00,+11.00,-5.00,-3.00,-20.00,-9.00,-6.00,-6.00,+16.00,+45.00,-15.00
-5.00,-10.00,+7.00,+2.00,+3.00,+1.00,+5.00,+32.00,+3.00,+19.00,+11.00,+8.00,+11.00,+9.00,+29.00,+25.00
-2.00,-7.00,-1.00,-3.00,-4.00,+1.00,+14.00,-36.00,-20.00,-7.00,+1.00,+0.00,+1.00,+18.00,+77.00,+6.00
-7.00,+7.00,+6.00,-4.00,-6.00,-18.00,-31.00,+32.00,-4.00,-38.00,-12.00,-9.00,-7.00,+1.00,-50.00,-12.00
+1.00,-14.00,-11.00,+0.00,-1.00,-5.00,-21.00,-67.00,+4.00,+29.00,+9.00,+4.00,+2.00,-5.00,-11.00,+2.00
-8.00,+9.00,+0.00,+0.00,+9.00,+15.00,+14.00,+36.00,-6.00,-17.00,-13.00,-9.00,-6.00,+1.00,+31.00,-11.00
+9.00,-9.00,+6.00,+3.00,+3.00,+2.00,-1.00,+39.00,+16.00,+3.00,+0.00,+3.00,+3.00,+0.00,+21.00,+17.00
+12.00,+0.00,-3.00,-3.00,-5.00,+3.00,+7.00,-4.00,-17.00,-2.00,-1.00,-3.00,-2.00,+0.00,-2.00,-5.00
-3.00,+1.00,+7.00,+1.00,+9.00,+2.00,+6.00,-4.00,+1.00,-3.00,-2.00,-2.00,-4.00,-9.00,-16.00,+2.00
-17.00,-17.00,-5.00,-3.00,-14.00,-19.00,-28.00,-29.00,-2.00,+3.00,+0.00,+4.00,+3.00,+8.00,-23.00,-18.00
-24.00,+6.00,-17.00,-15.00,-27.00,-33.00,-83.00,-112.00,+6.00,+39.00,+8.00,-3.00,-9.00,-20.00,-45.00,-2.00
-2.00,-10.00,+5.00,+5.00,+17.00,+33.00,+84.00,+95.00,+0.00,-44.00,-12.00,-4.00,+1.00,+24.00,+75.00,+8.00
+43.00,+27.00,+4.00,+3.00,+7.00,+12.00,+31.00,+59.00,+4.00,-3.00,+0.00,+3.00,+4.00,+10.00,-8.00,+8.00
-12.00,-12.00,+5.00,+5.00,-3.00,+9.00,-29.00,-18.00,-19.00,-14.00,+1.00,-1.00,-7.00,-12.00,-17.00,-16.00
-13.00,-19.00,+9.00,-6.00,-26.00,-23.00,-2.00,-54.00,-6.00,-13.00,-9.00,-1.00,+0.00,-2.00,-21.00,-7.00
-2.00,-24.00,-42.00,-15.00,-13.00,-34.00,-45.00,-3.00,+30.00,+76.00,+15.00,+5.00,-2.00,+0.00,-11.00,-1.00
-12.00,+11.00,+3.00,+3.00,+18.00,+18.00,+9.00,-17.00,-28.00,-58.00,-20.00,-13.00,-11.00,-25.00,-19.00,-20.00
+13.00,+7.00,-3.00,+0.00,+1.00,-2.00,-27.00,+42.00,-12.00,-29.00,-4.00,-1.00,-3.00,-6.00,+4.00,+15.00
+3.00,+17.00,+7.00,+2.00,+9.00,+12.00,+33.00,-3.00,+12.00,+10.00,+5.00,+6.00,+1.00,-2.00,-20.00,-1.00
+9.00,+9.00,+14.00,+6.00,+4.00,+2.00,-10.00,-14.00,+26.00,+41.00,+14.00,+8.00,+4.00,+12.00,+7.00,+15.00
-14.00,-20.00,+2.00,-7.00,-17.00,-19.00,-21.00,-6.00,+3.00,+8.00,+6.00,+1.00,+4.00,+0.00,+17.00,-5.00
+7.00,+4.00,-16.00,-1.00,+14.00,+11.00,+8.00,+19.00,-3.00,+44.00,-8.00,-15.00,-14.00,-16.00,-104.00,-37.00
-9.00,-8.00,-4.00,+2.00,+9.00,+13.00,+23.00,+62.00,-31.00,-78.00,-21.00,-9.00,-7.00,-11.00,+46.00,+14.00
+9.00,+7.00,+2.00,-1.00,-1.00,-3.00,-18.00,+8.00,-2.00,-22.00,+6.00,+4.00,+9.00,+29.00,+66.00,+23.00
-6.00,-20.00,+2.00,+0.00,-4.00,+2.00,+21.00,+13.00,+3.00,-5.00,-1.00,-1.00,-6.00,+0.00,-16.00,-5.00
-17.00,+9.00,+10.00,-6.00,-12.00,-23.00,-13.00,-49.00,+8.00,+12.00,+9.00,+8.00,+9.00,+1.00,-5.00,+5.00
+12.00,-11.00,-14.00,+4.00,+12.00,+19.00,+68.00,+81.00,+8.00,+22.00,-2.00,-4.00,-2.00,+5.00,-11.00,-14.00
+9.00,+24.00,+1.00,-2.00,-6.00,-7.00,-39.00,-69.00,-7.00,+7.00,+10.00,-1.00,+2.00,-14.00,-6.00,+8.00
+0.00,+7.00,+6.00,+0.00,-7.00,-7.00,+29.00,-2.00,-1.00,-3.00,-8.00,-6.00,-6.00,-3.00,+10.00,-3.00
+3.00,+7.00,+10.00,+9.00,+13.00,+14.00,-9.00,-9.00,+3.00,-12.00,+2.00,+1.00,+0.00,+8.00,+10.00,+2.00
-5.00,-12.00,-10.00,-7.00,-3.00,-9.00,-27.00,-29.00,-2.00,-4.00,-6.00,+0.00,+2.00,+1.00,-4.00,-1.00
-6.00,-10.00,-3.00,-4.00,-2.00,-3.00,+3.00,-34.00,+0.00,+14.00,-2.00,-2.00,+1.00,+16.00,+16.00,-10.00
-4.00,-20.00,+11.00,+0.00,-21.00,-16.00,-20.00,+5.00,+10.00,+25.00,+9.00,-3.00,-11.00,-48.00,-126.00,-13.00
+12.00,+10.00,-15.00,+0.00,+19.00,+21.00,+94.00,+23.00,-12.00,-40.00,-7.00,+5.00,+15.00,+37.00,+69.00,+32.00
+5.00,-1.00,+2.00,+0.00,+13.00,+10.00,-4.00,+18.00,-10.00,-22.00,-5.00,-3.00,-9.00,-9.00,+1.00,-2.00
+1.00,+33.00,-2.00,+2.00,-2.00,+2.00,+19.00,+27.00,+15.00,+15.00,+8.00,+3.00,+1.00,+1.00,-36.00,+6.00
-1.00,+10.00,-7.00,-5.00,-2.00,+9.00,+43.00,+42.00,-7.00,+8.00,-4.00,-5.00,-6.00,-2.00,-2.00,-10.00
-13.00,-28.00,+8.00,-1.00,-6.00,-15.00,-55.00,-79.00,-4.00,+5.00,-3.00,-2.00,-2.00,-8.00,-4.00,-1.00
-15.00,-42.00,-5.00,-4.00,-9.00,-18.00,-64.00,-54.00,+22.00,+38.00,+16.00,+21.00,+28.00,+39.00,+59.00,+9.00
+2.00,+30.00,-25.00,-10.00,-13.00,-18.00,+21.00,+20.00,-8.00,+34.00,+6.00,-17.00,-19.00,-63.00,-77.00,-2.00
+11.00,+2.00,+6.00,+9.00,+22.00,+39.00,+63.00,+65.00,-26.00,-71.00,-38.00,-14.00,-19.00,-8.00,-20.00,-11.00
-1.00,-2.00,+1.00,-2.00,-5.00,-2.00,+2.00,+27.00,-8.00,-39.00,-4.00,-11.00,-20.00,-9.00,+66.00,-7.00
-11.00,+6.00,+4.00,-2.00,-3.00,-1.00,-58.00,-76.00,+1.00,-11.00,-3.00,-1.00,-2.00,-10.00,-52.00,+5.00
-6.00,-17.00,+15.00,+2.00,-3.00,-9.00,-43.00,-24.00,+18.00,+30.00,+10.00,+15.00,+19.00,+26.00,+5.00,+3.00
-12.00,-32.00,+6.00,+4.00,-5.00,-23.00,-60.00,-34.00,+17.00,+54.00,+17.00,+9.00,+9.00,+22.00,+53.00,+5.00
+24.00,+67.00,-16.00,+1.00,+9.00,+17.00,+67.00,+88.00,-31.00,-53.00,-4.00,-4.00,+1.00,-16.00,-50.00,-24.00
-6.00,-3.00,-7.00,-8.00,-12.00,-18.00,-30.00,-76.00,+3.00,-19.00,-22.00,-16.00,-11.00,-38.00,-46.00,+0.00
-18.00,-66.00,+2.00,-1.00,-17.00,-19.00,+19.00,+72.00,-17.00,-31.00,-11.00,-6.00,-14.00,-3.00,-12.00,-18.00
-6.00,+6.00,+12.00,+5.00,+14.00,+22.00,-26.00,-116.00,-3.00,-3.00,+2.00,+0.00,+4.00,+5.00,+12.00,+2.00
+21.00,+55.00,-26.00,-6.00,+18.00,+10.00,+18.00,+73.00,+12.00,+18.00,+0.00,+7.00,+6.00,+7.00,-15.00,+1.00
+1.00,+4.00,-1.00,+0.00,+2.00,+9.00,+14.00,-12.00,+14.00,+56.00,+19.00,+6.00,+8.00,+20.00,+34.00,-5.00
+4.00,+4.00,+1.00,+3.00,+10.00,+16.00,+31.00,+21.00,-8.00,-8.00,+3.00,+2.00,+5.00,-6.00,+13.00,+25.00
-17.00,-29.00,-15.00,-14.00,-20.00,-28.00,-29.00,-39.00,-18.00,-44.00,-21.00,-5.00,-8.00,+16.00,+25.00,-6.00
-11.00,-18.00,+28.00,+8.00,-11.00,-20.00,-73.00,-77.00,+21.00,+36.00,+14.00,+14.00,+22.00,-3.00,-87.00,-16.00
+6.00,+7.00,+4.00,+3.00,+9.00,+12.00,+64.00,+120.00,+25.00,+69.00,+15.00,-6.00,-11.00,-28.00,+56.00,+18.00
-1.00,+1.00,-2.00,-2.00,-5.00,-11.00,-42.00,-42.00,-36.00,-37.00,-2.00,-26.00,-38.00,+17.00,+53.00,+4.00
-2.00,+31.00,+9.00,+6.00,+5.00,+7.00,-14.00,+5.00,-6.00,-26.00,-23.00,+0.00,+9.00,+3.00,+10.00,+12.00
-11.00,-32.00,-20.00,-14.00,-17.00,-8.00,-31.00,-26.00,-3.00,+4.00,-8.00,-6.00,-10.00,-13.00,-4.00,+3.00
-14.00,-6.00,+2.00,-9.00,-20.00,-40.00,-35.00,-32.00,-11.00,-9.00,-8.00,+1.00,+1.00,-9.00,-66.00,-29.00
+12.00,+12.00,-6.00,+8.00,+25.00,+43.00,+63.00,+32.00,+14.00,+12.00,+4.00,+8.00,+10.00,+10.00,+37.00,-7.00
-9.00,+11.00,-7.00,-6.00,-5.00,-15.00,-22.00,-61.00,+13.00,+23.00,+17.00,+2.00,+1.00,-5.00,-6.00,+12.00
+4.00,-13.00,+2.00,-6.00,+0.00,-3.00,+20.00,+89.00,-6.00,+8.00,+5.00,+4.00,+5.00,+6.00,-17.00,-10.00
-17.00,+11.00,+9.00,+3.00,+1.00,+16.00,+52.00,-81.00,+11.00,+24.00,+2.00,-3.00,-17.00,-9.00,+26.00,+5.00
+8.00,-24.00,-13.00,+3.00,+2.00,+12.00,-9.00,+42.00,-30.00,-75.00,-39.00,-7.00,+1.00,-13.00,-28.00,-15.00
-16.00,+21.00,-38.00,-34.00,-23.00,-33.00,-71.00,-95.00,+5.00,+18.00,-8.00,+2.00,+13.00,+8.00,-19.00,-17.00
+12.00,-15.00,+33.00,+29.00,+22.00,+17.00,+60.00,+35.00,-8.00,-46.00,+8.00,-1.00,+16.00,-3.00,+13.00,+15.00
+6.00,+28.00,-9.00,-3.00,-1.00,+1.00,-47.00,-34.00,-5.00,-5.00,+10.00,-1.00,-8.00,+24.00,+18.00,-10.00
-9.00,-14.00,+21.00,-1.00,+4.00,+8.00,+40.00,+16.00,+0.00,-3.00,-5.00,+5.00,+0.00,+3.00,-25.00,-1.00
+10.00,-20.00,-8.00,+2.00,-12.00,-9.00,+17.00,+42.00,+15.00,+39.00,-1.00,-14.00,-39.00,-62.00,-49.00,-11.00
-16.00,-14.00,-36.00,-24.00,-16.00,-16.00,-56.00,-66.00,+40.00,+86.00,+36.00,+19.00,+34.00,+47.00,+83.00,+24.00
-6.00,-52.00,+2.00,+7.00,+13.00,-1.00,-16.00,+32.00,-94.00,-115.00,-92.00,-39.00,-24.00,-12.00,+11.00,-37.00
+9.00,+44.00,+7.00,+5.00,-3.00,-11.00,-30.00,-91.00,+43.00,+55.00,+26.00,+23.00,+27.00,+14.00,+14.00,+48.00
+10.00,-49.00,-8.00,+0.00,+7.00,+27.00,+91.00,+127.00,-20.00,+3.00,+9.00,-4.00,-9.00,+1.00,+45.00,-3.00
+2.00,+38.00,+22.00,+6.00,-10.00,-11.00,-34.00,-33.00,+16.00,+22.00,-5.00,-3.00,-18.00,-13.00,+34.00,+12.00
+9.00,+0.00,-14.00,-1.00,+5.00,+17.00,+36.00,+48.00,+21.00,+18.00,+24.00,+14.00,+9.00,+8.00,-13.00,+11.00
-20.00,-14.00,+12.00,+2.00,-2.00,-9.00,-60.00,-120.00,-38.00,-51.00,-27.00,-6.00,+23.00,-10.00,-45.00,-36.00
+12.00,+55.00,-23.00,-10.00,-18.00,-17.00,+6.00,+43.00,-9.00,-26.00,-22.00,-21.00,-46.00,-12.00,+11.00,-8.00
-10.00,-20.00,+4.00,-1.00,+7.00,+2.00,-28.00,-3.00,+2.00,-3.00,+8.00,+2.00,-3.00,-1.00,-9.00,+8.00
-6.00,-26.00,+5.00,-1.00,-2.00,-8.00,-38.00,-22.00,+13.00,-15.00,-3.00,-4.00,-2.00,-16.00,-32.00,+7.00
+23.00,+29.00,+6.00,+2.00,+4.00,+9.00,+55.00,+94.00,-1.00,+24.00,+20.00,+7.00,+0.00,+1.00,-15.00,-15.00
-13.00,-6.00,-9.00,-6.00,-4.00,-5.00,-15.00,-51.00,+26.00,+29.00,+32.00,+17.00,+27.00,+6.00,-65.00,+7.00
+3.00,-24.00,+20.00,+10.00,-5.00,-5.00,-6.00,-27.00,-13.00,-25.00,-23.00,-9.00,-11.00,+14.00,+69.00,+3.00
+0.00,+32.00,-9.00,-2.00,+1.00,+5.00,+18.00,-23.00,-4.00,+41.00,+23.00,+6.00,+4.00,-3.00,-44.00,-12.00
-9.00,-17.00,-18.00,-8.00,-6.00,-22.00,-33.00,+26.00,-2.00,-51.00,-26.00,-11.00,-6.00,+17.00,+83.00,+27.00
+0.00,+7.00,+0.00,-3.00,-3.00,-6.00,+39.00,+39.00,+13.00,+33.00,+19.00,+6.00,+13.00,+20.00,+4.00,-7.00
-3.00,+0.00,-1.00,+8.00,+21.00,+31.00,+22.00,-70.00,-13.00,+7.00,-17.00,-16.00,-35.00,-49.00,-33.00,+2.00
-8.00,-11.00,+9.00,+0.00,-8.00,-10.00,-6.00,+1.00,-11.00,-48.00,-23.00,-2.00,+6.00,+14.00,-47.00,-22.00
+0.00,+13.00,+5.00,-6.00,-7.00,-7.00,-44.00,-35.00,+32.00,+33.00,+14.00,+8.00,+12.00,+14.00,+40.00,+20.00
-13.00,-50.00,-21.00,-8.00,-7.00,-21.00,-10.00,+9.00,-5.00,+16.00,+24.00,+17.00,+29.00,+36.00,+52.00,-2.00
+22.00,+35.00,+4.00,+4.00,+8.00,+27.00,+71.00,+43.00,-10.00,-21.00,-20.00,-18.00,-33.00,-18.00,-43.00,-15.00
+5.00,+13.00,-1.00,+1.00,-8.00,-4.00,-19.00,-41.00,-17.00,-30.00,-9.00,-10.00,-41.00,-23.00,-10.00,-6.00
-20.00,-30.00,-11.00,-13.00,-11.00,-10.00,+21.00,-37.00,-1.00,-18.00,-5.00,-6.00,+7.00,-20.00,-75.00,-5.00
+24.00,+26.00,+20.00,+19.00,+25.00,+23.00,-16.00,-33.00,+5.00,+18.00,+7.00,+5.00,-3.00,-3.00,-3.00,+2.00
-23.00,-15.00,-13.00,-14.00,-22.00,-34.00,-45.00,-34.00,+8.00,+54.00,+16.00,+10.00,+12.00,+10.00,+3.00,-7.00
+3.00,-11.00,+6.00,+11.00,+5.00,+4.00,+5.00,+41.00,+2.00,-8.00,-1.00,+0.00,+6.00,+13.00,-9.00,-4.00
+1.00,+18.00,-10.00,-6.00,+6.00,+10.00,+16.00,+17.00,-9.00,-21.00,-19.00,-3.00,-14.00,-29.00,-31.00,-1.00
-9.00,-14.00,+23.00,+5.00,+1.00,+4.00,-24.00,+3.00,+9.00,+30.00,+16.00,+2.00,+4.00,-10.00,-17.00,+6.00
+9.00,+19.00,+19.00,+8.00,-4.00,+0.00,-15.00,-24.00,-25.00,-74.00,-35.00,-12.00,-1.00,+7.00,+3.00,-8.00
+28.00,+14.00,-15.00,+7.00,+14.00,+13.00,+58.00,+109.00,+16.00,+18.00,+4.00,+1.00,+13.00,+0.00,+12.00,+20.00
-14.00,-16.00,-5.00,-2.00,-4.00,-17.00,-114.00,-109.00,-11.00,+4.00,-5.00,+0.00,+2.00,+11.00,+11.00,-26.00
-18.00,-27.00,+3.00,-1.00,-8.00,-18.00,+19.00,+55.00,+17.00,+32.00,+7.00,+0.00,+3.00,-14.00,-22.00,+1.00
+41.00,+25.00,+0.00,+10.00,+34.00,+54.00,+60.00,+78.00,-35.00,-78.00,-17.00,-10.00,-7.00,-7.00,-53.00,-13.00
-29.00,+5.00,-11.00,-26.00,-26.00,-22.00,-46.00,-110.00,+21.00,+42.00,+6.00,+2.00,+5.00,-1.00,+77.00,+18.00
+3.00,-8.00,+12.00,+20.00,+15.00,+11.00,+6.00,+4.00,+17.00,+47.00,+17.00,+13.00,+7.00,+10.00,-47.00,-2.00
+4.00,+27.00,+3.00,+0.00,-6.00,-16.00,-23.00,-56.00,-20.00,-36.00,-15.00,-12.00,-13.00,+24.00,+95.00,+22.00
-16.00,-41.00,-19.00,-13.00,-19.00,-24.00,-21.00,-20.00,-12.00,-30.00,-10.00,+1.00,+10.00,+3.00,+17.00,-7.00
-5.00,+17.00,+7.00,-5.00,-2.00,-11.00,+2.00,+28.00,-6.00,+26.00,+8.00,-10.00,-13.00,-40.00,-82.00,-40.00
-4.00,+2.00,-11.00,-7.00,-6.00,-4.00,-34.00,-11.00,+26.00,+2.00,+16.00,+7.00,-1.00,+29.00,+81.00,+48.00
+14.00,+4.00,+17.00,+17.00,+18.00,+27.00,+17.00,+33.00,-33.00,-51.00,-36.00,-10.00,-4.00,-5.00,+5.00,-30.00
-15.00,-26.00,-14.00,-10.00,-18.00,-21.00,-20.00,-46.00,+37.00,+75.00,+43.00,+13.00,+1.00,+5.00,+8.00,+13.00
+5.00,-8.00,-3.00,+8.00,+5.00,+4.00,-22.00,-15.00,-8.00,-2.00,+1.00,+2.00,+11.00,+20.00,+52.00,+12.00
+9.00,+2.00,-4.00,-3.00,+6.00,+21.00,+91.00,+86.00,-17.00,-10.00,-1.00,-1.00,-1.00,-27.00,-37.00,-30.00
-19.00,+2.00,-2.00,-2.00,-2.00,-9.00,-60.00,-79.00,-14.00,-59.00,-34.00,-14.00,-18.00,-12.00,-37.00,+2.00
-5.00,-22.00,+8.00,+5.00,+5.00,-1.00,+16.00,-1.00,+15.00,+36.00,+14.00,+3.00,+9.00,+12.00,+5.00,+4.00
+12.00,+16.00,+6.00,+4.00,+7.00,+23.00,+35.00,+42.00,+13.00,+37.00,+10.00,+3.00,-2.00,+2.00,+3.00,+11.00
-9.00,-49.00,+1.00,+3.00,-2.00,-13.00,-37.00,-32.00,-29.00,-30.00,-24.00,-16.00,-18.00,-23.00,-23.00,-37.00
+7.00,+50.00,+2.00,-7.00,-4.00,+7.00,+25.00,-14.00,-1.00,-2.00,+13.00,+8.00,+15.00,-6.00,+37.00,+4.00
-13.00,-4.00,-9.00,-10.00,-11.00,-16.00,-4.00,+13.00,+11.00,-9.00,-6.00,+0.00,-8.00,+0.00,-61.00,+13.00
+1.00,+19.00,+14.00,-1.00,-2.00,-8.00,+20.00,-15.00,-9.00,-10.00,-7.00,-7.00,+0.00,+21.00,+3.00,-13.00
-19.00,-8.00,+8.00,-6.00,-6.00,-4.00,-41.00,-48.00,+38.00,+60.00,+26.00,-4.00,-24.00,-23.00,+8.00,+21.00
+28.00,+7.00,-6.00,+10.00,+9.00,+6.00,+30.00,+40.00,+2.00,+9.00,+10.00,+10.00,+15.00,+12.00,-5.00,+17.00
+1.00,-14.00,-16.00,-9.00,-12.00,-15.00,-27.00,+3.00,-6.00,-2.00,-18.00,-13.00,-21.00,-26.00,-50.00,-33.00
+10.00,-21.00,+10.00,+10.00,+15.00,+28.00,+26.00,+6.00,-33.00,-42.00,-11.00,+6.00,+16.00,+3.00,-17.00,-16.00
+4.00,+44.00,-5.00,-4.00,-2.00,+8.00,+47.00,+9.00,-1.00,+14.00,+8.00,+0.00,+4.00,+34.00,+72.00,+10.00
-2.00,+20.00,+4.00,-3.00,-3.00,+1.00,-12.00,+11.00,-18.00,-47.00,-36.00,-19.00,-19.00,-43.00,-80.00,-28.00
-18.00,+5.00,+0.00,-6.00,-5.00,-16.00,-22.00,-19.00,+21.00,+9.00,-1.00,-6.00,-6.00,+0.00,+40.00,+13.00
-10.00,-9.00,-11.00,-12.00,-13.00,-24.00,-67.00,-72.00,+21.00,+66.00,+46.00,+20.00,+22.00,+30.00,+25.00,+21.00
+5.00,+9.00,+22.00,+12.00,+7.00,+14.00,+52.00,+113.00,-36.00,-73.00,-38.00,-12.00,-1.00,-21.00,-25.00,-17.00
+3.00,-26.00,-12.00,-5.00,+6.00,+10.00,+33.00,+9.00,+9.00,+2.00,+1.00,+7.00,+7.00,-8.00,-9.00,+9.00
-21.00,-19.00,-20.00,-12.00,-11.00,-15.00,-19.00,-54.00,+3.00,+29.00,+4.00,-1.00,-11.00,+0.00,+31.00,-1.00
-3.00,+9.00,-2.00,-7.00,-12.00,-13.00,-45.00,-22.00,-16.00,-31.00,-11.00,-5.00,-5.00,-7.00,+4.00,-2.00
-1.00,-27.00,+9.00,+15.00,+22.00,+14.00,-2.00,-63.00,-20.00,-23.00,-13.00,-8.00,-21.00,-9.00,-31.00,-28.00
+28.00,+49.00,+3.00,+8.00,-5.00,-10.00,+46.00,+101.00,+3.00,+3.00,+1.00,-2.00,+13.00,+27.00,+47.00,+14.00
-4.00,+2.00,+3.00,-6.00,+3.00,+18.00,-28.00,-15.00,+13.00,+19.00,+18.00,+19.00,+15.00,-3.00,-36.00,-4.00
-8.00,-16.00,+5.00,+2.00,+2.00,-5.00,+17.00,+1.00,+7.00,+6.00,-9.00,-10.00,-4.00,-12.00,-4.00,+6.00
+12.00,+10.00,-5.00,-8.00,-2.00,+5.00,+43.00,+43.00,-6.00,+10.00,+1.00,-7.00,-7.00,+0.00,-27.00,-13.00
-16.00,-24.00,-1.00,-2.00,-10.00,+4.00,-4.00,-45.00,-20.00,-59.00,-22.00,-8.00,-5.00,-1.00,-14.00,-7.00
-5.00,-17.00,+6.00,+5.00,+6.00,-10.00,-39.00,-46.00,+20.00,+35.00,+21.00,-1.00,-13.00,+4.00,+53.00,+26.00
+9.00,+16.00,-20.00,-7.00,-1.00,-4.00,-19.00,+29.00,-4.00,+13.00,+3.00,+2.00,+5.00,-15.00,-43.00,+7.00
+11.00,-3.00,-3.00,-2.00,-5.00,+2.00,+10.00,+36.00,-12.00,-34.00,-16.00,-1.00,+22.00,+0.00,-12.00,-10.00
-13.00,-7.00,+8.00,-5.00,+0.00,-4.00,-8.00,-7.00,+12.00,+30.00,+12.00,+1.00,-26.00,-3.00,+2.00,-6.00
-21.00,-32.00,-2.00,-8.00,-9.00,-3.00,-8.00,-62.00,-7.00,-7.00,+4.00,+6.00,+23.00,-4.00,-23.00,+1.00
+15.00,+11.00,+13.00,+16.00,+9.00,+9.00,+37.00,+55.00,+3.00,-16.00,+7.00,+11.00,+11.00,+3.00,+24.00,+4.00
+6.00,-18.00,-31.00,-14.00,-14.00,-17.00,-15.00,-35.00,+31.00,+75.00,+39.00,+3.00,-4.00,+11.00,+1.00,+3.00
-8.00,+3.00,+9.00,+0.00,+1.00,+5.00,+14.00,-7.00,-27.00,-63.00,-13.00,-2.00,+7.00,+2.00,-13.00,+3.00
+11.00,-1.00,+6.00,+9.00,+2.00,-3.00,-25.00,+52.00,-8.00,-15.00,-3.00,+4.00,+9.00,+3.00,+16.00,+7.00
-7.00,-2.00,-5.00,-6.00,-2.00,+2.00,+11.00,-38.00,-1.00,-26.00,-5.00,-5.00,-20.00,-15.00,-32.00,-11.00
-3.00,-8.00,+7.00,-1.00,-19.00,-13.00,+9.00,-20.00,+28.00,+66.00,-2.00,+4.00,+13.00,+2.00,+20.00,-7.00
-3.00,+5.00,-24.00,-5.00,+9.00,-1.00,-55.00,-51.00,-3.00,-44.00,+18.00,+16.00,+20.00,+24.00,+32.00,+19.00
+20.00,+19.00,+4.00,+0.00,-5.00,+5.00,+37.00,+82.00,-17.00,-17.00,+2.00,-9.00,-2.00,+7.00,+28.00,+0.00
-10.00,-37.00,+1.00,+2.00,+9.00,+3.00,+24.00,+5.00,-8.00,-40.00,-12.00,-3.00,-12.00,-11.00,-26.00,-5.00
+1.00,+45.00,+0.00,+2.00,+4.00,+0.00,-19.00,-12.00,+16.00,+40.00,+8.00,-5.00,-12.00,-13.00,+6.00,+6.00
-8.00,-38.00,-12.00,-10.00,-11.00,-13.00,-54.00,-20.00,-3.00,+20.00,-10.00,-7.00,+1.00,-4.00,+9.00,-6.00
+4.00,+31.00,-9.00,-2.00,-4.00,+0.00,+28.00,+12.00,+7.00,+9.00,-1.00,+12.00,+12.00,+19.00,+7.00,-5.00
+1.00,-4.00,-2.00,-2.00,-13.00,-25.00,-25.00,-19.00,+1.00,+15.00,+5.00,-10.00,-12.00,-20.00,+15.00,-3.00
-14.00,-23.00,+10.00,-4.00,+1.00,+4.00,-7.00,+18.00,-23.00,-45.00,-19.00,+3.00,+8.00,+6.00,-31.00,-3.00
+8.00,-7.00,-12.00,+6.00,+1.00,-3.00,-17.00,+18.00,+26.00,+44.00,+9.00,-12.00,-29.00,-12.00,+0.00,+6.00
+6.00,+10.00,+9.00,+7.00,+17.00,+16.00,+19.00,-24.00,-13.00,+13.00,+4.00,-1.00,-14.00,-24.00,-35.00,-15.00
-9.00,+15.00,-4.00,-10.00,-10.00,-2.00,+3.00,+4.00,-6.00,-49.00,-25.00,-7.00,+6.00,+21.00,+7.00,-9.00
+9.00,-2.00,-4.00,+9.00,-5.00,-8.00,-12.00,+1.00,+5.00,+21.00,+26.00,+13.00,+2.00,-1.00,+4.00,+9.00
+6.00,+17.00,+5.00,+3.00,+11.00,+4.00,+4.00,-4.00,-6.00,-30.00,-23.00,+2.00,+14.00,+6.00,-9.00,-3.00
-6.00,-6.00,+12.00,+5.00,+1.00,+6.00,+17.00,+28.00,+18.00,+24.00,-6.00,-8.00,+5.00,-11.00,+33.00,-11.00
-9.00,+12.00,+3.00,+1.00,-6.00,-9.00,-20.00,-27.00,+8.00,+12.00,+16.00,+8.00,+12.00,+17.00,+0.00,+11.00
-1.00,-8.00,-19.00,-10.00,+1.00,+1.00,+8.00,-2.00,-6.00,-33.00,-6.00,-9.00,-16.00,+4.00,+44.00,+6.00
+4.00,-17.00,+3.00,-5.00,-5.00,-2.00,+7.00,+8.00,+2.00,+24.00,+4.00,+3.00,+7.00,-9.00,-44.00,-16.00
-8.00,+19.00,+19.00,+16.00,+0.00,-13.00,-72.00,-76.00,-20.00,-15.00,-16.00,+2.00,+10.00,-5.00,-8.00,+2.00
+8.00,-11.00,+8.00,+5.00,+15.00,+19.00,+35.00,+45.00,+9.00,+10.00,-9.00,-16.00,-29.00,-3.00,+39.00,+16.00
+16.00,+2.00,-7.00,+0.00,+4.00,+18.00,+52.00,+67.00,-5.00,-23.00,-8.00,+4.00,+1.00,-8.00,-22.00,-6.00
-5.00,+8.00,-17.00,-5.00,-5.00,-3.00,+3.00,+1.00,+15.00,+61.00,+28.00,+7.00,+10.00,+20.00,+11.00,-6.00
-14.00,-3.00,-9.00,-14.00,-5.00,-4.00,-25.00,-57.00,-24.00,-59.00,-29.00,-13.00,-13.00,-28.00,-43.00,-6.00
-6.00,-67.00,+8.00,+3.00,-4.00,+2.00,+29.00,+57.00,-6.00,-14.00,+0.00,+10.00,+29.00,+10.00,+9.00,+2.00
+15.00,+46.00,-6.00,+0.00,+0.00,-6.00,-14.00,-9.00,+21.00,+27.00,+10.00,+11.00,+11.00,+19.00,+7.00,+4.00
-2.00,-19.00,+9.00,+9.00,+11.00,+17.00,+33.00,+15.00,+3.00,+46.00,+11.00,-8.00,-21.00,-10.00,+26.00,+8.00
+11.00,+11.00,-12.00,-4.00,-8.00,-14.00,-3.00,-4.00,+4.00,+9.00,+17.00,+7.00,+4.00,-10.00,-58.00,+1.00
-17.00,-12.00,-4.00,-10.00,-9.00,+4.00,-22.00,-38.00,+14.00,+30.00,+20.00,+10.00,+10.00,+11.00,+2.00,+9.00
-3.00,+8.00,+19.00,+10.00,+11.00,-5.00,-14.00,-10.00,-45.00,-108.00,-48.00,-27.00,-27.00,-26.00,+2.00,-20.00
-8.00,+9.00,-10.00,-12.00,-18.00,-15.00,-8.00,-12.00,+51.00,+89.00,+45.00,+31.00,+34.00,+15.00,-10.00,+12.00
+1.00,-3.00,-6.00,-2.00,-3.00,-3.00,-1.00,+2.00,-42.00,-75.00,-19.00,-10.00,-13.00,+6.00,+48.00,-10.00
+3.00,-7.00,-2.00,+0.00,+2.00,+11.00,+44.00,+24.00,+19.00,+23.00,+11.00,+8.00,-6.00,+6.00,-8.00,+13.00
-9.00,+12.00,+2.00,-5.00,-8.00,-15.00,-40.00,-45.00,+3.00,+37.00,+11.00,-3.00,-13.00,-11.00,-27.00,-4.00
-1.00,+4.00,+9.00,+7.00,+11.00,+15.00,+34.00,+19.00,-29.00,-70.00,-46.00,-10.00,+9.00,-15.00,+1.00,-14.00
-8.00,-25.00,-18.00,-12.00,-2.00,-3.00,+2.00,-18.00,+27.00,+77.00,+26.00,-3.00,-23.00,+7.00,+18.00,+6.00
+4.00,-3.00,+9.00,+9.00,+1.00,-3.00,-20.00,+1.00,-19.00,-27.00,-16.00,-6.00,-5.00,-7.00,-22.00,-17.00
-9.00,+15.00,-18.00,-11.00,-5.00,-6.00,-28.00,-54.00,-12.00,-23.00,-10.00,+0.00,+15.00,+15.00,+31.00,+0.00
-9.00,-29.00,+7.00,+1.00,+1.00,+12.00,+26.00,-4.00,-16.00,-31.00,-26.00,-15.00,-16.00,-23.00,-38.00,-17.00
-5.00,+10.00,+2.00,-1.00,-5.00,-4.00,+26.00,-57.00,+15.00,+27.00,+4.00,+4.00,+7.00,+13.00,+29.00,+10.00
-4.00,-23.00,-6.00,-2.00,+4.00,+2.00,-2.00,+15.00,+1.00,+35.00,+12.00,+8.00,+31.00,+3.00,-13.00,-9.00
-3.00,+5.00,-7.00,-7.00,-11.00,-8.00,-23.00,-45.00,-21.00,-19.00,-22.00,-22.00,-44.00,-31.00,-59.00,-13.00
+0.00,-2.00,+0.00,-3.00,-4.00,-16.00,-26.00,-13.00,+22.00,+24.00,+27.00,+18.00,-2.00,+14.00,-4.00,+8.00
-10.00,-28.00,-9.00,-4.00,-15.00,+8.00,+63.00,+55.00,-27.00,-34.00,-13.00,-5.00,+2.00,+10.00,-15.00,-10.00
+23.00,+23.00,+23.00,+20.00,+26.00,+2.00,-7.00,+19.00,-2.00,-41.00,-21.00,-6.00,-3.00,-19.00,+30.00,-5.00
-10.00,-26.00,+10.00,+5.00,+4.00,+6.00,+60.00,+10.00,+9.00,+30.00,+22.00,+10.00,+8.00,+3.00,-19.00,+10.00
-1.00,+16.00,-15.00,-14.00,-11.00,-3.00,-24.00,-68.00,+5.00,-12.00,-8.00,-10.00,-8.00,-5.00,+8.00,+0.00
+9.00,-4.00,+12.00,+10.00,+13.00,+15.00,+28.00,+39.00,-13.00,-29.00,-7.00,+3.00,+13.00,+1.00,-18.00,-11.00
+1.00,+34.00,-11.00,-2.00,-8.00,-4.00,-12.00,-22.00,-9.00,-19.00,-11.00,-7.00,-13.00,+6.00,+13.00,-1.00
-9.00,-29.00,+8.00,+0.00,-4.00,+0.00,-10.00,+21.00,+10.00,+10.00,-5.00,+9.00,+1.00,-5.00,-40.00,-5.00
+0.00,-26.00,-10.00,+0.00,+3.00,+1.00,-27.00,-44.00,-1.00,+2.00,+8.00,-9.00,-1.00,+13.00,+48.00,+21.00
+1.00,+41.00,+2.00,+4.00,+14.00,-2.00,-20.00,+16.00,+38.00,+75.00,+20.00,-2.00,-18.00,-26.00,-41.00,-8.00
+7.00,+20.00,-9.00,-8.00,-8.00,+0.00,+1.00,-1.00,-58.00,-93.00,-37.00,-26.00,-19.00,-19.00,+35.00,-16.00
-5.00,-33.00,+5.00,+3.00,-5.00,-7.00,+11.00,+25.00,+34.00,+34.00,+19.00,+14.00,+12.00,+9.00,+15.00,+28.00
-38.00,+7.00,+7.00,-6.00,-9.00,-19.00,-109.00,-115.00,-18.00,-13.00,+3.00,+3.00,+8.00,+0.00,+14.00,+1.00
+38.00,+5.00,-8.00,+5.00,+7.00,+14.00,+95.00,+124.00,+3.00,+0.00,-5.00,+4.00,+11.00,+11.00,-9.00,-9.00
+6.00,+12.00,+1.00,+8.00,+15.00,+32.00,-7.00,-119.00,+8.00,+45.00,+22.00,+5.00,-12.00,-5.00,+0.00,+2.00
+4.00,-13.00,-13.00,-7.00,-6.00,-15.00,-25.00,-22.00,+0.00,+12.00,-13.00,-11.00,-7.00,+0.00,+2.00,-11.00
+5.00,-28.00,+11.00,+12.00,-4.00,+1.00,+37.00,+40.00,-33.00,-70.00,-13.00,+0.00,+3.00,-3.00,-9.00,-4.00
-23.00,-27.00,-28.00,-16.00,-12.00,-18.00,-96.00,-79.00,+14.00,+6.00,+2.00,+3.00,-1.00,-5.00,-27.00,-2.00
+1.00,+20.00,-4.00,-9.00,+2.00,-8.00,+42.00,+77.00,+19.00,+15.00,+6.00,+7.00,+30.00,+31.00,+68.00,+4.00
+14.00,-3.00,+14.00,+13.00,+9.00,+17.00,+24.00,+6.00,-13.00,+15.00,+22.00,+8.00,+12.00,-29.00,-64.00,-13.00
-1.00,+25.00,+1.00,+0.00,+0.00,+2.00,+14.00,+6.00,+26.00,+16.00,+11.00,+3.00,-11.00,+16.00,+74.00,+49.00
-14.00,-37.00,+9.00,+3.00,-1.00,-2.00,-16.00,+14.00,-16.00,-39.00,-17.00,-10.00,-13.00,-6.00,+4.00,-4.00
+8.00,+46.00,-6.00,-8.00,-20.00,-33.00,-13.00,+15.00,+33.00,+48.00,+31.00,+29.00,+30.00,+29.00,-8.00,+10.00
-10.00,+9.00,-9.00,-6.00,+11.00,+15.00,-16.00,+0.00,-23.00,-38.00,-10.00,-13.00,+13.00,+0.00,-15.00,-10.00
+9.00,+4.00,-5.00,-5.00,-5.00,+8.00,+43.00,+45.00,-18.00,-23.00,-18.00,-20.00,-33.00,-17.00,-17.00,-15.00
-5.00,-26.00,+13.00,+5.00,-4.00,-9.00,-13.00,-29.00,+21.00,+28.00,+23.00,+14.00,+17.00,+7.00,+6.00,+15.00
-12.00,+12.00,-24.00,-18.00,-23.00,-29.00,-4.00,-25.00,+5.00,+20.00,-2.00,-6.00,-20.00,-7.00,-30.00,+1.00
-8.00,+5.00,-8.00,+0.00,+5.00,+0.00,-15.00,+24.00,+12.00,+27.00,+13.00,+7.00,+14.00,+9.00,+57.00,+3.00
+10.00,+17.00,+5.00,+4.00,+14.00,+4.00,-10.00,-15.00,+0.00,+28.00,-4.00,-1.00,+6.00,-3.00,-85.00,-16.00
+27.00,+10.00,+9.00,+13.00,+19.00,+37.00,+105.00,+75.00,-20.00,-68.00,-26.00,-15.00,-3.00,+5.00,+24.00,-2.00
-25.00,-44.00,+0.00,-8.00,-9.00,+8.00,-30.00,-35.00,-10.00,-18.00,-13.00,-5.00,-11.00,-30.00,-45.00,-8.00
-9.00,-10.00,-4.00,-7.00,-34.00,-44.00,-42.00,-27.00,+1.00,+4.00,+2.00,+2.00,-13.00,+9.00,+24.00,-9.00
+9.00,+42.00,-1.00,-3.00,+25.00,+4.00,+17.00,+14.00,-12.00,+12.00,-4.00,-1.00,+32.00,+1.00,-20.00,-13.00
+5.00,+17.00,+15.00,+4.00,+2.00,+0.00,-41.00,-41.00,+2.00,-6.00,-9.00,-11.00,-15.00,-2.00,+14.00,+2.00
-6.00,-17.00,-4.00,-1.00,+0.00,+6.00,-1.00,-11.00,-9.00,-31.00,-8.00,-4.00,-17.00,+10.00,-19.00,+12.00
-7.00,+6.00,+7.00,-1.00,-2.00,-1.00,-11.00,-2.00,+20.00,+12.00,+12.00,+9.00,+9.00,+11.00,+46.00,+30.00
-5.00,-10.00,-5.00,-1.00,-14.00,-17.00,-9.00,-1.00,-1.00,+23.00,-5.00,+7.00,+15.00,+2.00,-19.00,-23.00
+2.00,+34.00,-1.00,-1.00,-5.00,-5.00,-19.00,-12.00,+24.00,+67.00,+18.00,+17.00,+12.00,+11.00,-7.00,-7.00
+1.00,-35.00,-3.00,+0.00,-2.00,-12.00,-10.00,+22.00,-51.00,-106.00,-35.00,-39.00,-51.00,-38.00,-24.00,-5.00
-8.00,-31.00,-5.00,-8.00,+2.00,+22.00,+18.00,-15.00,+3.00,+8.00,-5.00,-2.00,-3.00,+10.00,+29.00,+10.00
+5.00,+45.00,+9.00,+0.00,-4.00,-4.00,+7.00,+24.00,+2.00,+2.00,+6.00,+7.00,+3.00,-7.00,-8.00,-5.00
-17.00,-36.00,-6.00,-7.00,-10.00,-8.00,-38.00,-44.00,+0.00,+18.00,-1.00,+0.00,+0.00,+4.00,+19.00,-1.00
-3.00,+19.00,+17.00,+6.00,+6.00,+6.00,-6.00,+8.00,+11.00,+45.00,+4.00,+6.00,+5.00,-3.00,-8.00,-14.00
+30.00,+25.00,-17.00,+3.00,+19.00,+14.00,+62.00,+95.00,-9.00,-3.00,+0.00,+2.00,+15.00,+2.00,-24.00,-3.00
+8.00,-15.00,+15.00,+7.00,+1.00,+13.00,+33.00,+19.00,-19.00,-71.00,-18.00,-8.00,-13.00,+0.00,+9.00,-2.00
-8.00,+15.00,+3.00,-4.00,-19.00,-22.00,-35.00,-18.00,+1.00,+21.00,-2.00,+0.00,+2.00,-9.00,-14.00,+2.00
-15.00,-14.00,-7.00,-4.00,+2.00,-1.00,-25.00,-41.00,-4.00,-2.00,+5.00,-2.00,-10.00,-4.00,-10.00,+0.00
-11.00,-30.00,+1.00,-4.00,-18.00,-38.00,-19.00,-28.00,+24.00,+32.00,+2.00,+0.00,+2.00,-2.00,+4.00,-4.00
-3.00,+5.00,+9.00,+0.00,+8.00,+21.00,+14.00,+5.00,+9.00,+0.00,+5.00,+9.00,+1.00,+17.00,-2.00,+1.00
+6.00,+48.00,-10.00,-3.00,+2.00,-2.00,-13.00,-15.00,-17.00,+24.00,+25.00,-5.00,-28.00,-33.00,+25.00,+13.00
+10.00,+14.00,+2.00,-3.00,-4.00,+10.00,+45.00,+50.00,-8.00,-3.00,-23.00,+5.00,+11.00,-7.00,-16.00,-4.00
+1.00,+16.00,+9.00,+4.00,+4.00,-2.00,-25.00,-16.00,-5.00,+1.00,-7.00,+0.00,+2.00,+2.00,+4.00,-11.00
-4.00,-31.00,-9.00,-3.00,-10.00,-7.00,-3.00,-6.00,+2.00,+7.00,-8.00,-14.00,-12.00,-7.00,+2.00,-2.00
-27.00,-26.00,+18.00,-6.00,-11.00,-14.00,-30.00,-29.00,+8.00,+6.00,+5.00,+10.00,-1.00,+21.00,+4.00,-1.00
+18.00,+8.00,-16.00,+8.00,+15.00,+14.00,+26.00,+15.00,-7.00,-12.00,-9.00,-16.00,-7.00,-36.00,-36.00,-16.00
+14.00,+53.00,-12.00,-7.00,-7.00,+1.00,+29.00,+5.00,+11.00,+60.00,+21.00,+8.00,+12.00,+30.00,+81.00,+21.00
-12.00,-46.00,+0.00,+2.00,+6.00,+10.00,-33.00,-43.00,-26.00,-52.00,-28.00,-8.00,-19.00,-33.00,-61.00,-14.00
+8.00,+0.00,-6.00,-14.00,-8.00,-6.00,+5.00,+113.00,-9.00,-23.00,-15.00,-9.00,+3.00,+1.00,+18.00,-2.00
+3.00,-2.00,+16.00,+14.00,+16.00,+15.00,+23.00,-18.00,+13.00,+24.00,+16.00,+14.00,+20.00,+16.00,+8.00,+7.00
+4.00,+45.00,+24.00,+2.00,-8.00,-9.00,+7.00,-6.00,+12.00,+1.00,-7.00,+1.00,-4.00,+10.00,-2.00,-5.00
-18.00,-39.00,-20.00,-2.00,-3.00,-7.00,-77.00,-60.00,+17.00,+96.00,+53.00,+8.00,-18.00,-28.00,-6.00,+14.00
+17.00,+9.00,-15.00,-7.00,-3.00,+1.00,+26.00,+63.00,-40.00,-64.00,-36.00,-9.00,+9.00,+21.00,-18.00,-10.00
-10.00,-2.00,-4.00,-1.00,-10.00,-23.00,-41.00,-50.00,+4.00,-11.00,-10.00,-14.00,-26.00,-23.00,-2.00,-9.00
-10.00,+4.00,+5.00,+2.00,+8.00,+12.00,-23.00,+13.00,-10.00,-33.00,-4.00,+5.00,+20.00,+11.00,-9.00,-1.00
-3.00,-3.00,+16.00,-4.00,-22.00,-11.00,-14.00,-29.00,+23.00,+42.00,+13.00,-4.00,-17.00,-10.00,-6.00,+1.00
-14.00,-31.00,-22.00,-1.00,+12.00,-13.00,+35.00,+30.00,+0.00,+21.00,+13.00,+14.00,+14.00,+4.00,-4.00,-3.00
+29.00,+30.00,+6.00,+7.00,+14.00,+28.00,+33.00,-6.00,+28.00,+50.00,+5.00,-8.00,-32.00,-9.00,+22.00,-7.00
-9.00,-31.00,-6.00,+0.00,+3.00,+7.00,-3.00,-43.00,-59.00,-118.00,-40.00,-16.00,-9.00,-5.00,-25.00,-7.00
+0.00,+7.00,-3.00,-8.00,-5.00,-2.00,+13.00,+19.00,-3.00,+28.00,-4.00,-1.00,-4.00,-2.00,+2.00,-8.00
-2.00,-9.00,-4.00,+5.00,+1.00,+2.00,-9.00,-54.00,+9.00,-10.00,+0.00,-5.00,+6.00,-13.00,-7.00,+0.00
-7.00,-3.00,+0.00,-7.00,-14.00,-17.00,+3.00,+2.00,+17.00,+36.00,+10.00,+25.00,+35.00,+28.00,+41.00,+5.00
-11.00,-73.00,-6.00,-6.00,+5.00,+0.00,+21.00,+13.00,-17.00,+0.00,+8.00,-37.00,-43.00,-37.00,-119.00,-34.00
+21.00,+73.00,-2.00,-2.00,-4.00,-8.00,-21.00,+18.00,-1.00,-11.00,+2.00,+17.00,+24.00,+22.00,+103.00,+48.00
-12.00,-12.00,+0.00,-1.00,-8.00,-23.00,-29.00,-74.00,-16.00,-45.00,-17.00,-8.00,-9.00,+5.00,-33.00,-10.00
+5.00,+16.00,-3.00,+3.00,+13.00,+21.00,+27.00,+68.00,+11.00,+4.00,+5.00,+1.00,-1.00,+0.00,+2.00,+10.00
-1.00,-17.00,-10.00,-8.00,-10.00,+0.00,-61.00,-33.00,+25.00,+39.00,+14.00,+8.00,+1.00,-2.00,-3.00,+12.00
-8.00,-13.00,+9.00,-1.00,+4.00,-5.00,+33.00,+18.00,-17.00,-64.00,-17.00,+2.00,+15.00,+11.00,+3.00,-12.00
+12.00,-27.00,+8.00,+8.00,+4.00,+13.00,+32.00,+60.00,+29.00,+46.00,+4.00,-9.00,-26.00,-11.00,+9.00,+5.00
-5.00,-38.00,-4.00,-3.00,+5.00,+1.00,-24.00,-44.00,-40.00,-57.00,-5.00,+7.00,+23.00,+9.00,-10.00,+2.00
+6.00,+17.00,+1.00,-2.00,+1.00,+0.00,+21.00,+12.00,+9.00,+33.00,+0.00,-2.00,-11.00,-6.00,+1.00,-18.00
+2.00,+14.00,-8.00,+3.00,+2.00,-3.00,+14.00,+9.00,-4.00,-12.00,+1.00,-10.00,+0.00,-1.00,+9.00,-2.00
-5.00,+19.00,+1.00,-5.00,-1.00,+4.00,+8.00,-29.00,-22.00,-44.00,-23.00,-4.00,-16.00,-22.00,-19.00,-8.00
-29.00,-35.00,-13.00,-10.00,-16.00,-18.00,-20.00,-29.00,+10.00,+0.00,-9.00,-9.00,+0.00,+0.00,-4.00,+4.00
+9.00,+3.00,+24.00,+20.00,+15.00,+7.00,-15.00,+17.00,+7.00,+8.00,+17.00,+19.00,+32.00,+3.00,+9.00,-2.00
+12.00,+17.00,-5.00,-5.00,-12.00,-18.00,+9.00,+14.00,-6.00,-27.00,-7.00,-19.00,-31.00,+0.00,-17.00,+3.00
+0.00,-11.00,-13.00,-4.00,+7.00,+14.00,-28.00,-30.00,+1.00,+12.00,+8.00,+3.00,+9.00,-3.00,-41.00,-1.00
-7.00,-7.00,+5.00,-5.00,+0.00,-8.00,+4.00,-12.00,+11.00,+1.00,+9.00,-5.00,+0.00,+6.00,+23.00,+17.00
+4.00,+10.00,-11.00,+3.00,+5.00,+13.00,+28.00,+48.00,-6.00,-32.00,-19.00,+0.00,-8.00,-8.00,-5.00,+0.00
-5.00,-14.00,+11.00,+7.00,+0.00,+2.00,-17.00,+1.00,+10.00,+23.00,+2.00,+2.00,+6.00,-5.00,-16.00,-13.00
-16.00,+6.00,+23.00,+0.00,-2.00,+2.00,+36.00,-73.00,+24.00,+30.00,+27.00,+10.00,+13.00,+11.00,+43.00,+9.00
+35.00,+34.00,-33.00,-6.00,+1.00,+17.00,+4.00,+96.00,-29.00,-4.00,+5.00,+5.00,+0.00,+8.00,-26.00,-14.00
-28.00,-1.00,-6.00,-18.00,-21.00,-29.00,-40.00,-80.00,-38.00,-26.00,-21.00,-16.00,-18.00,-15.00,+17.00,-10.00
+12.00,-13.00,+8.00,+15.00,+15.00,+14.00,+84.00,+72.00,+24.00,-7.00,-15.00,-12.00,-30.00,-12.00,-10.00,-2.00
+9.00,-8.00,+1.00,+3.00,+1.00,-1.00,-31.00,-33.00,-8.00,+20.00,+13.00,-1.00,-5.00,+0.00,+23.00,+11.00
-22.00,+15.00,+11.00,+0.00,-6.00,-11.00,-33.00,-35.00,+32.00,+49.00,+19.00,+11.00,+8.00,+12.00,+23.00,+8.00
-2.00,-19.00,-7.00,-4.00,+0.00,+5.00,+47.00,+56.00,-16.00,-62.00,-33.00,-13.00,-12.00,-33.00,-57.00,-15.00
+4.00,-24.00,-16.00,-4.00,+1.00,-6.00,-41.00,-30.00,-8.00,+4.00,+25.00,+12.00,+13.00,+21.00,-24.00,+16.00
+2.00,-9.00,+13.00,+5.00,+6.00,+4.00,-4.00,+0.00,-21.00,-56.00,-46.00,-15.00,-5.00,-15.00,-20.00,-33.00
+1.00,+37.00,+4.00,-3.00,-14.00,-21.00,+1.00,+8.00,+30.00,+15.00,+7.00,-3.00,-8.00,+7.00,+8.00,+33.00
+7.00,+6.00,-4.00,+6.00,+11.00,+8.00,-9.00,-2.00,+12.00,+7.00,+13.00,+7.00,+6.00,+14.00,+24.00,+10.00
+0.00,+1.00,-4.00,-6.00,-2.00,+0.00,-8.00,+1.00,+11.00,+56.00,+7.00,+3.00,-1.00,+0.00,-7.00,-16.00
+4.00,+21.00,-12.00,-4.00,-4.00,-4.00,-8.00,+8.00,-12.00,-27.00,-9.00,-1.00,+3.00,-3.00,-9.00,-4.00
-5.00,-16.00,+0.00,+0.00,-4.00,+1.00,+14.00,-8.00,-25.00,-8.00,-8.00,-11.00,-19.00,-2.00,-15.00,-15.00
-15.00,-46.00,-11.00,-7.00,-12.00,-7.00,-45.00,-67.00,+19.00,+22.00,+7.00,-4.00,-14.00,-7.00,+20.00,+10.00
+11.00,+43.00,+10.00,+14.00,+29.00,+28.00,+68.00,+92.00,-9.00,+2.00,-8.00,-2.00,+0.00,-4.00,-5.00,-12.00
+13.00,+16.00,+1.00,+3.00,+9.00,+10.00,-1.00,+3.00,+25.00,+34.00,+13.00,+4.00,+0.00,+8.00,+16.00,+19.00
+2.00,-23.00,+6.00,+7.00,+7.00,+14.00,+15.00,+4.00,-41.00,-46.00,-7.00,+0.00,+14.00,-17.00,-25.00,-24.00
+3.00,+16.00,+6.00,-2.00,-4.00,-4.00,-25.00,-22.00,-17.00,-8.00,-8.00,-1.00,-2.00,+23.00,+49.00,+12.00
-14.00,-13.00,-8.00,-8.00,-12.00,-11.00,-17.00,-24.00,+24.00,+8.00,+2.00,+4.00,+13.00,-5.00,+3.00,-3.00
-10.00,-1.00,-3.00,-5.00,-1.00,+3.00,+19.00,+28.00,-20.00,-36.00,-15.00,+1.00,+22.00,-6.00,-22.00,-16.00
+6.00,+5.00,+3.00,-2.00,-3.00,-7.00,-18.00,+2.00,+26.00,+42.00,+7.00,-9.00,-20.00,+11.00,+7.00,+12.00
-3.00,-9.00,+4.00,+3.00,-5.00,-7.00,+9.00,+5.00,+7.00,+11.00,+7.00,-1.00,-16.00,-9.00,-42.00,+10.00
-6.00,-24.00,-9.00,-6.00,-1.00,-6.00,+1.00,-19.00,-2.00,-15.00,+0.00,+6.00,+13.00,+5.00,+27.00,+15.00
+10.00,+24.00,-9.00,-1.00,-4.00,-5.00,-12.00,+7.00,-7.00,+13.00,+6.00,+1.00,+5.00,+7.00,+9.00,+0.00
-2.00,+0.00,-1.00,-2.00,-4.00,-3.00,-17.00,-8.00,+7.00,+14.00,+7.00,+6.00,+5.00,+3.00,-11.00,-15.00
-1.00,-17.00,+11.00,+0.00,-10.00,-5.00,+20.00,-5.00,-21.00,-9.00,-2.00,+2.00,+6.00,-7.00,-10.00,-9.00
+9.00,-13.00,-21.00,-9.00,-11.00,-4.00,-6.00,+11.00,+2.00,-16.00,-9.00,-1.00,+6.00,+7.00,+7.00,-1.00
-12.00,-28.00,-1.00,-2.00,-8.00,-14.00,+4.00,-19.00,+27.00,+29.00,+9.00,+8.00,+1.00,-4.00,-16.00,+9.00
+11.00,+21.00,+12.00,+10.00,+20.00,+11.00,+18.00,+30.00,-11.00,-20.00,-7.00,-14.00,-27.00,-4.00,+18.00,-2.00
+4.00,+16.00,-7.00,-1.00,+2.00,+5.00,-12.00,-17.00,+6.00,+47.00,+12.00,+1.00,-1.00,-1.00,-10.00,-21.00
-7.00,-5.00,+7.00,+0.00,-8.00,-9.00,+2.00,-7.00,-38.00,-68.00,-25.00,-6.00,+7.00,-8.00,+3.00,-8.00
-21.00,-57.00,-2.00,-4.00,-5.00,+1.00,-64.00,-53.00,-16.00,+7.00,+4.00,-5.00,-7.00,-5.00,-3.00,-13.00
+11.00,+56.00,-4.00,-1.00,-6.00,+2.00,+4.00,+64.00,+17.00,+21.00,+8.00,+13.00,+18.00,+14.00,-3.00,+16.00
-4.00,+12.00,-3.00,+2.00,+12.00,-1.00,+3.00,-8.00,+33.00,+12.00,+10.00,+12.00,+23.00,+10.00,+23.00,+23.00
+0.00,+2.00,-1.00,-4.00,-4.00,+6.00,+0.00,-25.00,-14.00,-17.00,-12.00,-20.00,-32.00,-25.00,+17.00,-7.00
+2.00,+9.00,-3.00,-3.00,-2.00,-11.00,+4.00,+13.00,-2.00,-13.00,-2.00,-4.00,+1.00,+11.00,+8.00,+2.00
-11.00,-28.00,-6.00,-3.00,-14.00,-11.00,-22.00,-29.00,-22.00,+5.00,-3.00,+7.00,+9.00,+0.00,-15.00,-18.00
+6.00,+6.00,+3.00,-5.00,-13.00,+6.00,+8.00,+11.00,+27.00,+26.00,+4.00,+9.00,+20.00,+17.00,+44.00,+9.00
+0.00,-1.00,-5.00,+0.00,+10.00,-2.00,-7.00,+0.00,-15.00,-3.00,+5.00,+2.00,+2.00,-3.00,-8.00,-3.00
+8.00,+12.00,+7.00,+2.00,+0.00,-8.00,+2.00,+17.00,+2.00,-5.00,-5.00,-14.00,-29.00,-11.00,+2.00,+1.00
+4.00,-30.00,-11.00,-10.00,-13.00,+7.00,-21.00,-25.00,-19.00,-20.00,-6.00,-3.00,+1.00,-12.00,-4.00,-9.00
-3.00,+11.00,-6.00,+1.00,+4.00,+7.00,+36.00,+14.00,-32.00,-25.00,-10.00,-5.00,-6.00,+0.00,-2.00,-15.00
-5.00,-8.00,+3.00,+0.00,-3.00,+0.00,-22.00,-5.00,+10.00,+17.00,+13.00,+29.00,+18.00,+10.00,-7.00,-3.00
-4.00,-6.00,+12.00,+2.00,+6.00,+4.00,+44.00,+22.00,+3.00,+0.00,-1.00,+4.00,+2.00,-3.00,+4.00,+5.00
-2.00,+26.00,-18.00,-2.00,-13.00,-14.00,-34.00,-47.00,+3.00,-9.00,-9.00,-19.00,-9.00,-3.00,-1.00,-5.00
+24.00,+35.00,+16.00,+11.00,+25.00,+24.00,+38.00,+67.00,-13.00,-12.00,-4.00,-4.00,-5.00,-3.00,-2.00,+0.00
-1.00,-12.00,-3.00,-1.00,-2.00,+2.00,-10.00,-26.00,+15.00,+30.00,+6.00,+5.00,+14.00,+7.00,-6.00,+5.00
-5.00,+18.00,-3.00,+0.00,+2.00,+7.00,+1.00,-3.00,-4.00,-7.00,-3.00,-10.00,-16.00,-5.00,-2.00,+2.00
-20.00,-30.00,+5.00,-6.00,-6.00,-13.00,-5.00,-21.00,-5.00,-11.00,-2.00,+12.00,+5.00,+3.00,+13.00,-4.00
-9.00,-4.00,+1.00,+1.00,-1.00,-5.00,-13.00,-7.00,-8.00,+5.00,+5.00,+7.00,+1.00,-5.00,-19.00,-12.00
+11.00,+15.00,-6.00,+1.00,+2.00,+0.00,+2.00,+4.00,+10.00,+65.00,+24.00,+10.00,+30.00,+24.00,-3.00,-2.00
+3.00,+1.00,+5.00,-2.00,-7.00,+3.00,+3.00,+12.00,-26.00,-78.00,-33.00,-23.00,-40.00,-41.00,-22.00,+7.00
-8.00,-24.00,-6.00,-3.00,+2.00,-5.00,+3.00,-10.00,-11.00,-9.00,-7.00,-6.00,-1.00,-8.00,-3.00,-8.00
-3.00,-7.00,-9.00,-5.00,+0.00,-6.00,-15.00,-11.00,+14.00,+0.00,-3.00,-2.00,-11.00,-6.00,+0.00,+7.00
+0.00,-2.00,+11.00,+5.00,-1.00,+6.00,+14.00,+9.00,+17.00,+17.00,+7.00,+7.00,+6.00,+15.00,-3.00,-3.00
-5.00,+2.00,-6.00,-1.00,-1.00,-4.00,-10.00,-1.00,+14.00,+24.00,+9.00,+7.00,+15.00,+9.00,-3.00,-4.00
-5.00,-7.00,-2.00,-3.00,-9.00,-1.00,+5.00,+10.00,-11.00,+10.00,+3.00,-1.00,-7.00,-5.00,+2.00,-1.00
+0.00,+12.00,+0.00,-2.00,+5.00,+3.00,-2.00,-9.00,+2.00,-29.00,-10.00,-2.00,+2.00,+0.00,-2.00,+6.00
-11.00,-7.00,+4.00,+3.00,+4.00,-3.00,-6.00,-6.00,-15.00,-25.00,-14.00,-14.00,-17.00,-13.00,-14.00,-10.00
+11.00,+8.00,-5.00,-1.00,-6.00,+1.00,+2.00,+8.00,-5.00,-3.00,+4.00,+6.00,+6.00,+3.00,+8.00,-3.00
-5.00,-9.00,+3.00,+5.00,+17.00,+5.00,+7.00,+7.00,+12.00,+6.00,+0.00,+3.00,+1.00,-6.00,-1.00,+4.00
-5.00,-16.00,-3.00,-1.00,+6.00,-2.00,+0.00,+2.00,+13.00,+26.00,+7.00,-14.00,-2.00,+6.00,+8.00,+2.00
+8.00,+11.00,+2.00,-6.00,-13.00,-7.00,-2.00,-1.00,-23.00,-33.00,-13.00,+1.00,-6.00,-7.00,-1.00,-7.00
+14.00,+3.00,-7.00,-3.00,-3.00,-1.00,-4.00,+4.00,+7.00,-4.00,-10.00,-25.00,-12.00,+1.00,+3.00,+10.00
+3.00,+2.00,+12.00,+9.00,+12.00,+3.00,+10.00,+1.00,+19.00,+14.00,+8.00,+3.00,+10.00,+10.00,+2.00,+4.00
-5.00,-9.00,-15.00,-9.00,-13.00,-9.00,-9.00,-13.00,-15.00,-15.00,+0.00,+9.00,+4.00,-5.00,-7.00,-6.00
-20.00,-12.00,-15.00,-4.00,+6.00,+0.00,-4.00,-4.00,-9.00,+3.00,-6.00,-26.00,-18.00,-4.00,+4.00,+6.00
-12.00,+2.00,-5.00,+1.00,+0.00,+2.00,-4.00,-8.00,+0.00,+3.00,+15.00,+27.00,+19.00,+8.00,-4.00,-17.00
-2.00,-7.00,+2.00,-3.00,-7.00,-2.00,-9.00,-3.00,-6.00,-2.00,-8.00,-4.00,-7.00,-7.00,-3.00,+11.00
-11.00,+9.00,+4.00,+3.00,+4.00,-10.00,+0.00,+0.00,+20.00,-5.00,-11.00,-19.00,-12.00,-1.00,+7.00,+11.00
+5.00,-7.00,-2.00,+0.00,+2.00,+6.00,+0.00,+8.00,-7.00,-4.00,-1.00,-2.00,-4.00,-2.00,+2.00,-1.00
+2.00,+4.00,+0.00,-2.00,-9.00,-4.00,-4.00,-4.00,+4.00,+35.00,+10.00,+14.00,+11.00,+12.00,+0.00,-5.00
-3.00,-4.00,-1.00,+0.00,-1.00,+0.00,+0.00,-8.00,-11.00,-28.00,-7.00,-9.00,-2.00,-1.00,+7.00,-3.00
+1.00,-8.00,-3.00,-7.00,-4.00,-3.00,-11.00,-2.00,-16.00,-14.00,-3.00,+4.00,+0.00,-2.00,-6.00,-12.00
+7.00,+10.00,+4.00,+0.00,-3.00,-1.00,+3.00,+5.00,+4.00,+3.00,+0.00,+7.00,+4.00,+8.00,+0.00,-4.00
+9.00,+0.00,-1.00,+3.00,+1.00,+0.00,+2.00,+3.00,+6.00,+8.00,+2.00,-11.00,-10.00,+0.00,-10.00,-5.00
-13.00,-6.00,+1.00,-3.00,-2.00,-3.00,-4.00,-1.00,+7.00,+17.00,+10.00,+11.00,+2.00,-6.00,+3.00,+4.00
-10.00,+0.00,-1.00,-1.00,-3.00,-1.00,+0.00,-6.00,-7.00,-3.00,-6.00,-5.00,-3.00,-1.00,+0.00,+0.00
-14.00,-2.00,+1.00,+0.00,+1.00,+0.00,+1.00,-6.00,+10.00,-5.00,-5.00,-1.00,-7.00,-8.00,-2.00,-4.00
+6.00,+5.00,-1.00,-2.00,+3.00,+3.00,+1.00,+5.00,-3.00,+7.00,-3.00,-16.00,+0.00,+5.00,+3.00,-1.00
-12.00,-10.00,-10.00,-4.00,-2.00,-4.00,+1.00,-9.00,+1.00,-11.00,-3.00,-1.00,-3.00,-3.00,-6.00,+0.00
+8.00,+17.00,+12.00,+5.00,-4.00,+2.00,+2.00,-4.00,-15.00,-3.00,+2.00,+0.00,+0.00,-3.00,-1.00,-10.00
+14.00,-16.00,-10.00,-2.00,+0.00,+2.00,+3.00,+13.00,+3.00,+4.00,-6.00,-8.00,-5.00,-4.00,-4.00,+4.00
+23.00,+11.00,+5.00,+3.00,+0.00,-1.00,-3.00,+4.00,+4.00,-1.00,+1.00,+9.00,+5.00,-4.00,+0.00,+2.00
-11.00,+11.00,-5.00,-1.00,+0.00,-1.00,+4.00,-3.00,+25.00,+15.00,+1.00,-5.00,-3.00,+0.00,+0.00,+9.00
+2.00,-2.00,-5.00,-2.00,-6.00,-2.00,-2.00,+1.00,-34.00,+3.00,+6.00,+4.00,+0.00,-2.00,-5.00,-21.00
-30.00,-10.00,+1.00,-2.00,-5.00,-3.00,-7.00,-14.00,-14.00,-23.00,-9.00,-5.00,-6.00,-9.00,-10.00,+3.00
-12.00,-7.00,+0.00,-1.00,-1.00,+1.00,+0.00,-1.00,+33.00,+0.00,-1.00,+2.00,+2.00,+2.00,+5.00,+15.00
+9.00,-5.00,+1.00,-1.00,+0.00,+2.00,+3.00,+1.00,-7.00,+3.00,+3.00,+5.00,+2.00,+1.00,+2.00,-2.00
-8.00,-5.00,-4.00,-3.00,-4.00,-3.00,-2.00,-2.00,-52.00,+0.00,-3.00,-3.00,-2.00,+3.00,+0.00,-11.00
+3.00,+4.00,+0.00,+1.00,+0.00,-1.00,-2.00,-6.00,+15.00,-13.00,-1.00,-8.00,-4.00,-3.00,-3.00,-2.00
-7.00,-3.00,-4.00,-1.00,-2.00,+1.00,+2.00,-1.00,-1.00,-13.00,-6.00,+4.00,+3.00,+0.00,+5.00,+4.00
+3.00,-1.00,+2.00,-2.00,-3.00,-3.00,+2.00,+5.00,+10.00,-3.00,-4.00,-3.00,-1.00,-1.00,-6.00,-4.00
+5.00,-5.00,-8.00,-5.00,-5.00,-1.00,-2.00,+5.00,+15.00,-1.00,+0.00,+1.00,-1.00,+0.00,-1.00,-2.00
+7.00,-6.00,+0.00,+2.00,+4.00,-1.00,-2.00,+4.00,-7.00,+10.00,+9.00,+9.00,+3.00,+5.00,+5.00,+1.00
-8.00,+4.00,+0.00,-1.00,-4.00,-1.00,+0.00,-7.00,-4.00,-2.00,-2.00,-11.00,-4.00,-3.00,+0.00,+0.00
+6.00,+6.00,+6.00,+0.00,+0.00,+1.00,+0.00,+8.00,+0.00,+11.00,+1.00,-4.00,-1.00,+0.00,-1.00,-4.00
+13.00,-12.00,-3.00,+2.00,+6.00,+2.00,+1.00,+3.00,+10.00,-7.00,-6.00,-4.00,-4.00,+0.00,+1.00,+5.00
-4.00,+0.00,-1.00,-2.00,-5.00,-4.00,+0.00,+0.00,+2.00,+5.00,-3.00,-1.00,-4.00,-4.00,-2.00,-4.00
-3.00,+15.00,+2.00,+1.00,+6.00,+1.00,-3.00,-7.00,-1.00,-15.00,-2.00,+6.00,+2.00,+0.00,+1.00,+3.00
-3.00,-11.00,-8.00,-1.00,+1.00,-1.00,-3.00,-3.00,-15.00,+8.00,+2.00,+2.00,+0.00,-2.00,-4.00,-11.00
+15.00,+9.00,+2.00,-2.00,-9.00,-3.00,+0.00,+1.00,+17.00,-12.00,-5.00,-7.00,+0.00,-2.00,-3.00,+8.00
+13.00,-3.00,+4.00,+1.00,-4.00,-1.00,-2.00,+0.00,+15.00,+10.00,+11.00,+24.00,+7.00,+4.00,+8.00,+9.00
-5.00,+8.00,-1.00,-2.00,+1.00,+0.00,-3.00,-1.00,-14.00,-5.00,-9.00,-15.00,-9.00,-5.00,-1.00,-9.00
-9.00,-2.00,+5.00,+5.00,+6.00,+5.00,+18.00,-3.00,+21.00,+14.00,+1.00,+4.00,+2.00,+0.00,+1.00,+19.00
-12.00,-9.00,-3.00,+0.00,+2.00,+2.00,-2.00,-2.00,-5.00,-31.00,-7.00,-3.00,-1.00,-5.00,-4.00,-5.00
-3.00,+7.00,+1.00,-2.00,+1.00,-3.00,-6.00,-12.00,-17.00,+0.00,+4.00,+2.00,+1.00,-3.00,-4.00,-12.00
+1.00,-13.00,+1.00,+0.00,+3.00,+1.00,+3.00,+7.00,-6.00,+9.00,+3.00,+9.00,+4.00,+0.00,+0.00,+3.00
+16.00,+10.00,-5.00,-3.00,-4.00,-2.00,-5.00,+6.00,-2.00,-3.00,-3.00,-4.00,-4.00,+2.00,+0.00,-4.00
+11.00,-5.00,-5.00,+1.00,+0.00,+0.00,-2.00,-7.00,+5.00,+15.00,+6.00,+2.00,+2.00,-1.00,+1.00,+1.00
-3.00,-2.00,-5.00,-5.00,-10.00,-1.00,+3.00,-4.00,+16.00,-1.00,-4.00,-9.00,-10.00,-10.00,-3.00,+10.00
-21.00,-13.00,-4.00,-3.00,-8.00,-3.00,-1.00,-3.00,-28.00,-4.00,+0.00,+1.00,+1.00,-3.00,-3.00,-9.00
+17.00,+0.00,+3.00,+0.00,+0.00,-1.00,+0.00,+6.00,-1.00,-10.00,-5.00,-7.00,-4.00,-3.00,-5.00,-4.00
-3.00,+7.00,+2.00,+5.00,+8.00,+0.00,+3.00,+5.00,+18.00,+29.00,+12.00,+12.00,+4.00,+3.00,+4.00,+8.00
+4.00,+1.00,-1.00,-3.00,-1.00,-3.00,-2.00,+2.00,-19.00,-21.00,-8.00,-5.00,-2.00,+1.00,-3.00,-12.00
-9.00,-2.00,-2.00,-5.00,-3.00,-2.00,+0.00,-2.00,-17.00,-10.00,-6.00,-5.00,-2.00,-3.00,-6.00,-9.00
-15.00,-9.00,-1.00,-2.00,-3.00,-2.00,-6.00,-18.00,+5.00,-9.00,-3.00,-3.00,-3.00,-4.00,-7.00,-8.00
+5.00,+0.00,+3.00,+1.00,-2.00,+3.00,-1.00,+5.00,+20.00,+3.00,+1.00,+5.00,+2.00,-2.00,+2.00,+10.00
+9.00,+5.00,+0.00,-2.00,+0.00,+0.00,+4.00,+13.00,-8.00,+11.00,-1.00,-7.00,-3.00,+1.00,-2.00,-4.00
-6.00,-5.00,-4.00,-1.00,+2.00,-1.00,-2.00,-1.00,+21.00,+7.00,-2.00,-10.00,-4.00,+0.00,+4.00,+10.00
+3.00,+1.00,-2.00,-2.00,-3.00,-2.00,-4.00,-7.00,-21.00,+0.00,+1.00,+5.00,+3.00,-2.00,+1.00,-10.00
-10.00,-8.00,-1.00,-3.00,+0.00,-2.00,-3.00,-2.00,-13.00,-17.00,-7.00,-4.00,-4.00,-4.00,-6.00,+2.00
-10.00,+6.00,+2.00,+0.00,-3.00,-3.00,-2.00,-11.00,+13.00,-3.00,-8.00,-9.00,-3.00,-5.00,-5.00,-2.00
+5.00,-9.00,+0.00,+1.00,-5.00,-3.00,+0.00,+5.00,-2.00,+4.00,+4.00,+7.00,+5.00,+1.00,+0.00,+0.00
+23.00,+12.00,-6.00,-5.00,+8.00,+0.00,+0.00,+11.00,+0.00,+1.00,+4.00,+12.00,+6.00,+3.00,+5.00,+6.00
-10.00,-4.00,+1.00,+0.00,-3.00,-1.00,-1.00,-4.00,+0.00,-1.00,-4.00,-9.00,-7.00,-4.00,-3.00,-7.00
-9.00,-8.00,-3.00,-1.00,+2.00,-1.00,-1.00,-2.00,-13.00,-1.00,-2.00,+0.00,+1.00,-1.00,-3.00,-7.00
+21.00,+12.00,+4.00,+8.00,+10.00,+1.00,+1.00,-7.00,+1.00,+4.00,+2.00,+3.00,-3.00,+0.00,-4.00,-6.00
+2.00,-11.00,+0.00,-7.00,-11.00,+0.00,-3.00,-1.00,+17.00,-2.00,-1.00,+5.00,+1.00,-1.00,-1.00,+3.00
-8.00,+4.00,-6.00,-5.00,-3.00,-3.00,-5.00,+3.00,+6.00,+18.00,+2.00,-2.00,-3.00,+0.00,+1.00,-7.00
+5.00,+10.00,-2.00,-3.00,-5.00,+0.00,+6.00,+4.00,-7.00,-29.00,-6.00,-6.00,-3.00,+0.00,+2.00,+12.00
-16.00,-5.00,-4.00,-1.00,+4.00,-1.00,-4.00,-7.00,+9.00,-13.00,-9.00,-1.00,-2.00,+0.00,+2.00,+4.00
-6.00,-8.00,+1.00,+2.00,-1.00,-3.00,-2.00,-6.00,-19.00,-9.00,-6.00,-11.00,-4.00,-4.00,-6.00,-10.00
-3.00,+1.00,+2.00,+1.00,+2.00,+0.00,-1.00,-2.00,+11.00,-2.00,+1.00,+5.00,+5.00,+1.00,+3.00,+14.00
+3.00,-2.00,+1.00,+4.00,-2.00,-2.00,-6.00,+0.00,+10.00,+15.00,+4.00,-1.00,-2.00,+2.00,+2.00,-3.00
+0.00,+1.00,-1.00,-6.00,-5.00,+1.00,-4.00,-1.00,+5.00,+10.00,+4.00,+1.00,-1.00,+1.00,+2.00,+3.00
+8.00,-3.00,-3.00,-1.00,-1.00,-2.00,+7.00,-3.00,-13.00,-36.00,-9.00,-4.00,-4.00,-5.00,-6.00,-3.00
-9.00,-2.00,+1.00,-2.00,-3.00,+0.00,-1.00,-6.00,-4.00,+6.00,+2.00,-3.00,-1.00,-1.00,-2.00,-8.00
-27.00,-2.00,+2.00,+4.00,+3.00,+3.00,+0.00,-4.00,-5.00,+3.00,+3.00,+9.00,+4.00,-1.00,-1.00,-2.00
+30.00,+6.00,-2.00,-3.00,+2.00,+1.00,+4.00,+22.00,+8.00,+4.00,+0.00,-1.00,+0.00,-2.00,-1.00,+0.00
-20.00,-5.00,+2.00,+2.00,-13.00,-2.00,-6.00,-5.00,+4.00,+9.00,-1.00,-8.00,-2.00,+1.00,+1.00,+9.00
+16.00,+3.00,+0.00,+0.00,+0.00,-1.00,+1.00,+4.00,-12.00,+0.00,+1.00,+1.00,-1.00,-1.00,-1.00,-11.00
-9.00,-7.00,+0.00,+0.00,+5.00,+0.00,-2.00,-6.00,+12.00,+11.00,+0.00,-3.00,-2.00,-4.00,-1.00,-5.00
-6.00,-5.00,-1.00,-3.00,-2.00,-2.00,-2.00,-1.00,-18.00,-2.00,+1.00,-1.00,-2.00,-1.00,-2.00,+2.00
-8.00,-6.00,-3.00,+0.00,+4.00,-1.00,-4.00,-8.00,+37.00,+17.00,+5.00,+3.00,+1.00,+2.00,+11.00,+24.00
-4.00,+18.00,-1.00,+0.00,+0.00,-1.00,+2.00,+3.00,-4.00,-19.00,+2.00,+2.00,+0.00,+2.00,+2.00,+5.00
+30.00,+8.00,+2.00,-6.00,-10.00,-2.00,+2.00,+9.00,+11.00,+3.00,-4.00,-7.00,-1.00,+3.00,-2.00,-1.00
-2.00,-1.00,-2.00,+2.00,+7.00,-2.00,+0.00,-3.00,-20.00,-5.00,-6.00,-4.00,-2.00,-1.00,-5.00,-16.00
-9.00,-4.00,+3.00,+1.00,-3.00,-4.00,-6.00,-3.00,-4.00,-7.00,-2.00,-3.00,-1.00,-1.00,-4.00,-5.00
-10.00,-4.00,-1.00,-1.00,+0.00,-1.00,+4.00,-9.00,+10.00,+0.00,-5.00,-3.00,-2.00,+0.00,+0.00,+5.00
-11.00,-12.00,-6.00,-2.00,+3.00,+0.00,-1.00,+3.00,-39.00,-6.00,+1.00,-1.00,+1.00,-2.00,-5.00,-16.00
-2.00,-4.00,-3.00,-1.00,-2.00,-1.00,-5.00,-7.00,+9.00,-18.00,+1.00,+6.00,+1.00,-1.00,+2.00,+9.00
-15.00,+6.00,+2.00,+0.00,+3.00,+2.00,-1.00,-1.00,-14.00,+9.00,+2.00,+15.00,+3.00,+3.00,+2.00,-11.00
+5.00,-8.00,-4.00,-2.00,+1.00,+3.00,+2.00,-4.00,+11.00,+14.00,-1.00,-13.00,-6.00,-2.00,-4.00,+3.00
+8.00,+4.00,-2.00,-3.00,-9.00,-2.00,-5.00,-3.00,+17.00,+18.00,+1.00,-3.00,-2.00,+2.00,+0.00,+3.00
-19.00,-14.00,-6.00,-2.00,-5.00,-1.00,+1.00,-1.00,-10.00,-7.00,+1.00,-1.00,+0.00,-4.00,-4.00,+0.00
+12.00,-9.00,+1.00,-3.00,-3.00,-1.00,-6.00,+2.00,+7.00,-16.00,-7.00,-4.00,-2.00,-1.00,+0.00,+0.00
+11.00,+30.00,+2.00,+1.00,+2.00,-3.00,-2.00,+1.00,-21.00,-6.00,-2.00,+3.00,+3.00,+2.00,+1.00,+0.00
+0.00,-9.00,-2.00,-6.00,-6.00,+2.00,+3.00,+4.00,-2.00,-7.00,+1.00,+3.00,-1.00,+0.00,+2.00,+8.00
-3.00,+6.00,+3.00,+1.00,-4.00,-1.00,-3.00,-10.00,-11.00,+3.00,-1.00,-6.00,+0.00,-6.00,-4.00,-14.00
-15.00,-2.00,-5.00,+0.00,+3.00,+1.00,+0.00,+2.00,-7.00,+8.00,+2.00,+13.00,+2.00,-3.00,-6.00,-12.00
-7.00,-12.00,-2.00,-2.00,-6.00,+0.00,-2.00,-3.00,+40.00,+8.00,-1.00,-11.00,-5.00,-2.00,+2.00,+8.00
-9.00,-6.00,+0.00,+3.00,+11.00,+1.00,-1.00,-1.00,-24.00,-3.00,-6.00,-6.00,-3.00,-1.00,-4.00,-1.00
+38.00,+4.00,-2.00,-4.00,-3.00,+0.00,+0.00,+9.00,-8.00,+0.00,+1.00,+1.00,-1.00,+0.00,-2.00,-2.00
+11.00,+13.00,+1.00,+2.00,+4.00,+0.00,+2.00,+1.00,-7.00,+6.00,+1.00,-2.00,-2.00,-1.00,+1.00,-2.00
-11.00,-13.00,-1.00,+2.00,+1.00,-2.00,-1.00,-4.00,-17.00,-15.00,-6.00,-2.00,-2.00,-2.00,-4.00,+0.00
-11.00,+2.00,-4.00,-2.00,-1.00,-3.00,-4.00,-3.00,+17.00,-10.00,-2.00,+1.00,-1.00,-1.00,-1.00,+1.00
-16.00,-4.00,+0.00,+1.00,+2.00,+1.00,+1.00,+1.00,+23.00,-1.00,+0.00,+0.00,+0.00,-1.00,+2.00,-2.00
+1.00,-8.00,-1.00,+0.00,+0.00,-1.00,+1.00,-3.00,+4.00,+4.00,-2.00,-10.00,-1.00,+0.00,+2.00,+11.00
+8.00,-1.00,-2.00,-3.00,-1.00,+0.00,-3.00,+0.00,-11.00,-3.00,-2.00,+5.00,+0.00,+0.00,+3.00,-1.00
-4.00,+7.00,+4.00,+1.00,-2.00,-2.00,-2.00,-5.00,-20.00,-11.00,-5.00,-7.00,-3.00,-1.00,-1.00,-11.00
-12.00,-15.00,-9.00,-4.00,-8.00,-5.00,-1.00,-6.00,-13.00,+10.00,+1.00,+3.00,+0.00,-1.00,-6.00,-10.00
+14.00,+8.00,-3.00,-4.00,+4.00,+0.00,-2.00,+5.00,+9.00,-13.00,-5.00,+3.00,-2.00,-1.00,-2.00,-1.00
+0.00,-9.00,+1.00,-2.00,-1.00,+0.00,-2.00,+0.00,+2.00,-6.00,-2.00,-4.00,-1.00,-3.00,-1.00,+0.00
+8.00,+4.00,+4.00,+0.00,-7.00,+0.00,+4.00,+11.00,-7.00,-1.00,+2.00,+3.00,+0.00,-2.00,-5.00,-5.00
-17.00,+6.00,+1.00,+1.00,+6.00,-1.00,-1.00,-9.00,-6.00,+10.00,+0.00,+1.00,-4.00,-2.00,+0.00,-3.00
-3.00,+1.00,+1.00,-2.00,+3.00,-2.00,-3.00,-7.00,-5.00,-2.00,+2.00,-6.00,-2.00,-1.00,-1.00,-1.00
+20.00,-4.00,-2.00,-2.00,-10.00,-4.00,-2.00,-2.00,-6.00,+5.00,+2.00,+3.00,-2.00,-3.00,-6.00,-7.00
+12.00,-1.00,-4.00,+1.00,+1.00,+0.00,-1.00,-3.00,-10.00,-8.00,-8.00,-7.00,-3.00,-3.00,-3.00,-10.00
+5.00,+3.00,+4.00,+3.00,-1.00,+3.00,+1.00,+0.00,+25.00,-2.00,-3.00,-5.00,-1.00,+0.00,-3.00,+7.00
-11.00,+8.00,-2.00,+0.00,-4.00,-1.00,-2.00,-2.00,+2.00,+3.00,+1.00,+4.00,+2.00,+3.00,+10.00,+18.00
-10.00,-6.00,-1.00,-3.00,-6.00,-1.00,-1.00,-1.00,+10.00,+5.00,+2.00,+0.00,-3.00,-2.00,-3.00,+1.00
+8.00,+5.00,+0.00,-1.00,-2.00,-2.00,-7.00,-7.00,-1.00,+9.00,+5.00,+0.00,+0.00,-1.00,-1.00,-2.00
-6.00,-2.00,+0.00,-1.00,+1.00,+0.00,+7.00,+1.00,-20.00,-19.00,-13.00,-11.00,-3.00,-4.00,-3.00,-10.00
-16.00,-8.00,-5.00,-2.00,+0.00,+0.00,-1.00,-7.00,-13.00,-2.00,-3.00,-8.00,-5.00,-4.00,-9.00,-21.00
-4.00,-1.00,-1.00,-3.00,-1.00,+1.00,-1.00,+8.00,-6.00,-2.00,+2.00,+10.00,+5.00,+5.00,+2.00,+11.00
+4.00,-10.00,-4.00,+2.00,+10.00,-2.00,-5.00,-5.00,+16.00,+6.00,+1.00,+0.00,-5.00,-2.00,+0.00,+6.00
-1.00,+13.00,+2.00,-1.00,+2.00,+0.00,-2.00,+9.00,+10.00,+10.00,+5.00,+7.00,+1.00,+1.00,+1.00,+6.00
+3.00,-6.00,+1.00,+2.00,+2.00,-1.00,+1.00,-2.00,-15.00,-14.00,-6.00,-14.00,-6.00,-4.00,-1.00,-4.00
+3.00,+3.00,+2.00,+3.00,+8.00,+2.00,+1.00,+2.00,-1.00,-4.00,-7.00,-6.00,-2.00,-3.00,-2.00,-4.00
-24.00,-9.00,+1.00,-2.00,-3.00,+0.00,-1.00,-9.00,+5.00,+8.00,-1.00,-2.00,-1.00,-1.00,-2.00,-2.00
-3.00,-8.00,-9.00,-3.00,-1.00,-1.00,-2.00,-1.00,+10.00,-3.00,+2.00,+4.00,+1.00,+2.00,+7.00,+10.00
+26.00,+5.00,+5.00,+2.00,-4.00,+0.00,+1.00,+5.00,-11.00,-4.00,-2.00,-12.00,-2.00,+0.00,-5.00,-7.00
-26.00,-8.00,-8.00,-1.00,+0.00,-3.00,-4.00,-6.00,-5.00,-8.00,-2.00,-1.00,+0.00,-1.00,-2.00,-7.00
+14.00,+6.00,+1.00,+1.00,+1.00,-2.00,+1.00,+0.00,-4.00,+0.00,-4.00,-7.00,-4.00,-1.00,+2.00,+3.00
+5.00,-5.00,-1.00,+0.00,+7.00,-1.00,-1.00,+1.00,+7.00,+10.00,+2.00,+5.00,+3.00,+2.00,+2.00,+0.00
-6.00,-1.00,-2.00,-4.00,-6.00,+1.00,-2.00,+0.00,+14.00,+0.00,-4.00,+3.00,-3.00,-4.00,-7.00,-9.00
-1.00,-4.00,-1.00,-1.00,-2.00,+1.00,+0.00,+0.00,-11.00,-3.00,-4.00,-11.00,-5.00,-5.00,-2.00,+6.00
-19.00,-6.00,-4.00,-2.00,+0.00,-1.00,-2.00,-2.00,+14.00,+15.00,+2.00,+3.00,-1.00,+3.00,+4.00,+4.00
+16.00,+6.00,+0.00,-2.00,-4.00,+1.00,-2.00,-6.00,+3.00,+0.00,-4.00,-3.00,-3.00,-1.00,-2.00,+1.00
+4.00,+0.00,+2.00,+1.00,+1.00,+0.00,+1.00,+16.00,-2.00,-4.00,+0.00,+8.00,+2.00,-1.00,-3.00,-5.00
-14.00,-7.00,-3.00,+0.00,+1.00,-2.00,-1.00,-8.00,-21.00,-4.00,+1.00,-3.00,-2.00,-2.00,-6.00,-15.00
-25.00,-16.00,-8.00,-4.00,-1.00,+1.00,-1.00,-11.00,+0.00,-7.00,+0.00,+4.00,+1.00,-1.00,-2.00,+1.00
-41.00,-20.00,-3.00,-5.00,-1.00,-4.00,-5.00,-5.00,+5.00,+14.00,+3.00,+0.00,+0.00,+0.00,+2.00,+1.00
+65.00,+46.00,+11.00,+5.00,-5.00,+1.00,+4.00,+10.00,-4.00,-17.00,-4.00,-15.00,-6.00,-1.00,-3.00,-3.00
+6.00,+2.00,+1.00,+2.00,+1.00,+1.00,+3.00,+4.00,+3.00,+7.00,+8.00,+17.00,+5.00,+1.00,+1.00,+9.00
+1.00,+2.00,+2.00,+2.00,+0.00,-1.00,+0.00,+0.00,+5.00,-11.00,-12.00,-20.00,-10.00,-4.00,-2.00,-1.00
-19.00,-9.00,-8.00,-3.00,-3.00,-4.00,-3.00,-8.00,-19.00,+1.00,+2.00,-3.00,-4.00,-2.00,-3.00,-8.00
-35.00,-26.00,-7.00,-5.00,-3.00,-2.00,-5.00,-9.00,-4.00,-11.00,-3.00,+8.00,+4.00,+1.00,-1.00,-10.00
-1.00,+3.00,+0.00,-2.00,+0.00,-1.00,-4.00,-5.00,+29.00,+9.00,-4.00,-3.00,-1.00,-2.00,-2.00,+2.00
+4.00,+1.00,+0.00,+1.00,-1.00,-2.00,+0.00,-4.00,-22.00,+9.00,+3.00,+6.00,+1.00,+1.00,+1.00,-2.00
+9.00,+4.00,+6.00,+2.00,+1.00,+0.00,+0.00,+6.00,+10.00,+12.00,+1.00,-8.00,-8.00,-1.00,+2.00,+8.00
-7.00,-11.00,-10.00,-6.00,-5.00,-2.00,-2.00,-1.00,-8.00,+3.00,-1.00,-2.00,-3.00,-1.00,-1.00,+6.00
+15.00,+3.00,+3.00,+2.00,+0.00,-1.00,-1.00,+4.00,+1.00,-8.00,-3.00,-6.00,-2.00,+0.00,-2.00,-5.00
-3.00,+3.00,-2.00,-2.00,+1.00,-2.00,+2.00,-2.00,+6.00,-6.00,+0.00,+7.00,+4.00,-1.00,-3.00,-5.00
+2.00,-5.00,+3.00,+0.00,-6.00,-1.00,+0.00,-11.00,-9.00,-11.00,-6.00,-8.00,-3.00,-3.00,-6.00,-11.00
-10.00,-10.00,+0.00,+2.00,+4.00,+0.00,+2.00,+3.00,+7.00,+13.00,+5.00,+7.00,+1.00,+0.00,+1.00,+4.00
-2.00,+12.00,-5.00,-6.00,-3.00,-1.00,-2.00,-4.00,+2.00,-4.00,-4.00,-4.00,-2.00,-1.00,+1.00,-3.00
+5.00,-2.00,+2.00,+1.00,-3.00,-2.00,-2.00,-3.00,+5.00,-4.00,-1.00,+2.00,+2.00,+1.00,+3.00,+4.00
+15.00,+10.00,-18.00,-6.00,+1.00,-1.00,+0.00,+4.00,-12.00,-7.00,+0.00,+3.00,+2.00,-1.00,+1.00,-4.00
-8.00,+3.00,+5.00,+4.00,+5.00,-2.00,-1.00,-7.00,+3.00,+2.00,+0.00,-3.00,-3.00,-2.00,+0.00,+3.00
-7.00,-9.00,+3.00,+0.00,-4.00,-1.00,+2.00,+1.00,-4.00,+7.00,-3.00,+1.00,-1.00,-1.00,-2.00,-6.00
+4.00,+7.00,+3.00,-1.00,-1.00,-1.00,-5.00,-6.00,+0.00,+11.00,+7.00,+0.00,-1.00,-1.00,-3.00,-5.00
+8.00,+1.00,+5.00,+2.00,-2.00,+0.00,+5.00,+3.00,-9.00,-9.00,-12.00,-6.00,-1.00,-2.00,-5.00,-3.00
-12.00,-11.00,-5.00,+0.00,+2.00,+1.00,-3.00,-6.00,+7.00,-14.00,-6.00,-1.00,-1.00,+1.00,+8.00,+12.00
+2.00,+0.00,-2.00,-2.00,+1.00,-1.00,-1.00,+5.00,-10.00,-18.00,+2.00,-1.00,+1.00,+0.00,+2.00,-2.00
+8.00,+4.00,-3.00,+1.00,+6.00,+0.00,+1.00,+1.00,+0.00,-17.00,-5.00,+2.00,+2.00,-1.00,-2.00,+2.00
+0.00,-1.00,+6.00,+3.00,-8.00,+0.00,-1.00,+0.00,+9.00,+13.00,+3.00,-3.00,+0.00,+1.00,-1.00,-1.00
-11.00,+0.00,-5.00,-7.00,-8.00,-2.00,+0.00,-6.00,+3.00,+16.00,+5.00,-1.00,-2.00,-2.00,-3.00,+1.00
-8.00,-3.00,+2.00,+0.00,-2.00,-2.00,-2.00,-4.00,-2.00,+15.00,+3.00,+1.00,-2.00,+0.00,+0.00,-2.00
+11.00,+1.00,-4.00,-2.00,+0.00,-1.00,+0.00,+1.00,+7.00,-1.00,+1.00,-1.00,-2.00,-2.00,-5.00,+1.00
-4.00,-1.00,+1.00,+0.00,+0.00,+0.00,-4.00,-7.00,-11.00,-11.00,+2.00,+4.00,+3.00,+2.00,+4.00,-4.00
+9.00,+2.00,-1.00,-1.00,-1.00,-3.00,+0.00,+7.00,-3.00,+5.00,-1.00,-5.00,-1.00,+0.00,-4.00,-3.00
-2.00,-2.00,+4.00,+2.00,+2.00,+0.00,-1.00,+3.00,+1.00,-5.00,-1.00,+7.00,+3.00,+1.00,+3.00,+1.00
+8.00,-5.00,-9.00,-8.00,-5.00,+1.00,+0.00,+3.00,+2.00,-5.00,-9.00,-10.00,-9.00,-3.00,-4.00,-1.00
+3.00,+5.00,+0.00,+1.00,-1.00,+0.00,+0.00,+0.00,+3.00,-6.00,-7.00,+0.00,-1.00,-2.00,-1.00,+3.00
-17.00,-3.00,-4.00,-1.00,+0.00,-3.00,-3.00,-5.00,-9.00,+1.00,+0.00,-2.00,-1.00,-1.00,-3.00,-3.00
+27.00,-6.00,+4.00,+1.00,-3.00,+1.00,-1.00,-1.00,-3.00,-3.00,-4.00,-1.00,-1.00,-3.00,-1.00,-4.00
-4.00,+9.00,+3.00,+4.00,+3.00,+0.00,+0.00,+1.00,+3.00,-4.00,+1.00,-1.00,+1.00,-1.00,+2.00,+3.00
+3.00,-5.00,-11.00,-8.00,-5.00,-2.00,-2.00,+5.00,-1.00,-3.00,-1.00,+4.00,+1.00,+1.00,-3.00,-3.00
-8.00,-6.00,-6.00,-4.00,-3.00,+0.00,-1.00,-1.00,-13.00,+0.00,-3.00,-1.00,-2.00,-3.00,-4.00,-7.00
-14.00,-2.00,+0.00,+0.00,+1.00,+1.00,-1.00,-11.00,+2.00,-1.00,+1.00,+0.00,-1.00,-1.00,+0.00,+3.00
+6.00,-7.00,+3.00,+0.00,-6.00,-1.00,+0.00,+0.00,+4.00,+2.00,-1.00,-5.00,+0.00,+1.00,+0.00,+2.00
+4.00,+5.00,+4.00,+2.00,+1.00,+0.00,-2.00,+1.00,-2.00,+29.00,+7.00,+3.00,-2.00,-2.00,-4.00,-6.00
-13.00,-8.00,-3.00,-3.00,-3.00,-3.00,-3.00,-2.00,-2.00,-31.00,-5.00,-6.00,-1.00,-1.00,-2.00,+2.00
+2.00,+0.00,-5.00,-3.00,-5.00,-2.00,+1.00,+4.00,-16.00,-24.00,-9.00,-10.00,-5.00,-4.00,-11.00,-12.00
-4.00,-5.00,+0.00,+0.00,-1.00,+0.00,+1.00,+0.00,-11.00,-11.00,-5.00,-3.00,-3.00,-4.00,-9.00,-10.00
-6.00,+4.00,+1.00,+0.00,+0.00,-2.00,-2.00,+0.00,+21.00,+1.00,+3.00,+8.00,+4.00,+4.00,+18.00,+25.00
+7.00,-2.00,-3.00,-3.00,-2.00,+0.00,+1.00,+1.00,+0.00,+12.00,+1.00,+0.00,-2.00,-1.00,+0.00,+0.00
-4.00,+4.00,+3.00,+2.00,+0.00,-2.00,-1.00,-1.00,+5.00,+15.00,+3.00,+0.00,+0.00,+2.00,+4.00,+3.00
-3.00,-2.00,-1.00,-3.00,-4.00,-3.00,+1.00,+4.00,+5.00,-5.00,-2.00,+2.00,-1.00,-1.00,-3.00,-2.00
+3.00,-1.00,-1.00,-1.00,-4.00,-3.00,-4.00,-3.00,-15.00,-13.00,-2.00,-5.00,-2.00,-5.00,-13.00,-16.00
+1.00,-3.00,-1.00,+4.00,+8.00,+6.00,-1.00,-1.00,+1.00,+13.00,+5.00,+4.00,-1.00,+0.00,+3.00,+0.00
-2.00,-1.00,-4.00,-1.00,+1.00,-1.00,-1.00,+4.00,+3.00,+4.00,+0.00,-2.00,-1.00,+0.00,+0.00,+2.00
+3.00,-4.00,+3.00,+2.00,+2.00,+0.00,+3.00,-3.00,-6.00,+0.00,+1.00,+3.00,+2.00,+0.00,-1.00,-1.00
-2.00,-6.00,+3.00,+2.00,+0.00,+2.00,+4.00,-1.00,-2.00,-5.00,-1.00,+0.00,+1.00,-1.00,-3.00,-2.00
+0.00,+21.00,+5.00,-2.00,-4.00,-2.00,-2.00,-4.00,-4.00,+8.00,-1.00,+2.00,+0.00,+0.00,-3.00,-5.00
-14.00,-23.00,-3.00,-3.00,-3.00,+1.00,+8.00,-4.00,+1.00,-21.00,-14.00,-11.00,+3.00,+2.00,+6.00,+7.00
-6.00,-4.00,-5.00,-2.00,+3.00,-3.00,-9.00,+3.00,-2.00,+3.00,+0.00,+0.00,-10.00,-4.00,+1.00,+0.00
+29.00,+14.00,-12.00,-6.00,-5.00,-4.00,+5.00,+9.00,-10.00,-9.00,+1.00,-1.00,-5.00,-9.00,-22.00,-15.00
+15.00,+8.00,+4.00,+4.00,+5.00,+3.00,+5.00,-1.00,+7.00,-3.00,+0.00,+3.00,+3.00,+4.00,+21.00,+14.00
-5.00,+4.00,+0.00,-1.00,+3.00,+0.00,-3.00,-8.00,+8.00,+21.00,+6.00,+0.00,+1.00,+0.00,+5.00,+6.00
-12.00,-4.00,+1.00,-1.00,-3.00,-2.00,-1.00,+7.00,+8.00,+2.00,+1.00,+1.00,+6.00,+5.00,+6.00,+5.00
-17.00,-9.00,+5.00,+0.00,+0.00,-4.00,-6.00,-5.00,+6.00,+0.00,-4.00,+2.00,+1.00,+1.00,+3.00,+4.00
-5.00,-3.00,+0.00,-4.00,+0.00,-3.00,-9.00,-6.00,-13.00,+12.00,+5.00,-10.00,-8.00,-9.00,-22.00,-18.00
-11.00,+1.00,-3.00,-3.00,-3.00,-2.00,+0.00,-8.00,-20.00,-13.00,-3.00,-5.00,-6.00,-8.00,-12.00,-9.00
+36.00,+3.00,+1.00,+1.00,+0.00,+1.00,+1.00,+2.00,-16.00,-26.00,-12.00,-8.00,+0.00,+4.00,+1.00,+1.00
-8.00,+0.00,+1.00,-1.00,+0.00,+0.00,-4.00,+2.00,+5.00,+2.00,+1.00,+3.00,+1.00,+2.00,+8.00,-3.00
+5.00,-3.00,+2.00,+0.00,-4.00,-1.00,+7.00,-3.00,+0.00,-5.00,-7.00,+0.00,+0.00,+0.00,-3.00,-2.00
+3.00,-1.00,+0.00,-1.00,-1.00,+0.00,-2.00,+7.00,+13.00,+22.00,+5.00,+6.00,+0.00,+2.00,+6.00,+6.00
-9.00,+4.00,-1.00,-2.00,-2.00,+1.00,+0.00,+2.00,+4.00,+7.00,+1.00,-3.00,-3.00,-3.00,+2.00,+2.00
-5.00,-10.00,-1.00,+1.00,+1.00,-1.00,-4.00,-1.00,+10.00,-4.00,-3.00,-2.00,-1.00,-1.00,-1.00,+5.00
-2.00,+3.00,-5.00,-2.00,-3.00,-7.00,-4.00,-6.00,-18.00,-3.00,-2.00,-1.00,-3.00,-3.00,-7.00,-8.00
+3.00,+7.00,-1.00,-3.00,+0.00,-3.00,-16.00,-7.00,+2.00,-7.00,-1.00,+1.00,+0.00,+0.00,+1.00,-7.00
-3.00,-4.00,-7.00,+0.00,+3.00,+9.00,+25.00,+17.00,-10.00,+3.00,+3.00,+5.00,+3.00,-1.00,-5.00,-7.00
+0.00,+5.00,+4.00,+1.00,+2.00,-1.00,-2.00,-4.00,-4.00,-8.00,-3.00,-4.00,+1.00,+0.00,+1.00,+3.00
-5.00,-14.00,+0.00,-1.00,+0.00,-1.00,-6.00,+1.00,+4.00,-1.00,+0.00,+2.00,+0.00,+1.00,+4.00,+6.00
+5.00,+3.00,-2.00,-2.00,-4.00,-8.00,-3.00,+3.00,-1.00,+0.00,-2.00,+0.00,-1.00,-2.00,-10.00,-5.00
-5.00,+4.00,+1.00,+0.00,+0.00,+3.00,-1.00,-1.00,+2.00,+12.00,+6.00,+1.00,+2.00,+4.00,-1.00,+0.00
-1.00,-4.00,+4.00,+1.00,+0.00,+4.00,+3.00,-6.00,-7.00,-16.00,-13.00,-8.00,-6.00,+0.00,+5.00,+1.00
+1.00,+6.00,+0.00,+0.00,-2.00,+1.00,-2.00,-2.00,-1.00,-12.00,-2.00,+1.00,-1.00,-7.00,-17.00,-2.00
-1.00,+0.00,-1.00,+0.00,+1.00,-1.00,-1.00,-3.00,-4.00,-5.00,-1.00,-2.00,-2.00,+0.00,-2.00,+2.00
-13.00,-9.00,-4.00,-1.00,-3.00,-6.00,-9.00,-14.00,+3.00,+13.00,+3.00,+2.00,+3.00,+3.00,+6.00,+3.00
-8.00,-5.00,-1.00,+1.00,-1.00,-2.00,-5.00,-2.00,-7.00,+3.00,-2.00,-4.00,-5.00,+1.00,+1.00,-6.00
+8.00,-4.00,-4.00,-2.00,+0.00,-3.00,-4.00,+4.00,+6.00,+2.00,-1.00,+4.00,+1.00,-1.00,-9.00,+2.00
+4.00,+4.00,+0.00,+1.00,+0.00,+4.00,+21.00,+3.00,-1.00,-13.00,-2.00,-1.00,-1.00,-1.00,+3.00,+1.00
-5.00,+1.00,+0.00,+2.00,-1.00,+1.00,+1.00,-1.00,+2.00,+3.00,+2.00,+0.00,+1.00,-1.00,+2.00,+0.00
-8.00,-1.00,+1.00,-1.00,-2.00,-2.00,+2.00,-5.00,-3.00,+5.00,+3.00,-1.00,-1.00,-2.00,-8.00,-1.00
-5.00,-1.00,+2.00,+0.00,-1.00,+2.00,-8.00,+5.00,-1.00,-10.00,-8.00,-4.00,-2.00,-2.00,+3.00,-3.00
+1.00,-8.00,+1.00,-1.00,-1.00,+0.00,-9.00,-2.00,+9.00,+9.00,+2.00,+1.00,+1.00,+3.00,+4.00,+2.00
-2.00,+5.00,-4.00,-2.00,-2.00,-4.00,-2.00,-7.00,-10.00,+1.00,-2.00,-3.00,-4.00,-3.00,-2.00,-5.00
-2.00,+1.00,-8.00,-3.00,-2.00,-7.00,-3.00,-3.00,-8.00,-11.00,-2.00,-1.00,-1.00,-6.00,-6.00,-3.00
-2.00,-3.00,-1.00,-3.00,-5.00,-7.00,-11.00,+1.00,+5.00,+8.00,+1.00,-2.00,+1.00,+1.00,+11.00,+4.00
+8.00,+4.00,+2.00,+3.00,+3.00,+7.00,+23.00,+1.00,-1.00,-3.00,-2.00,-1.00,-1.00,+2.00,-2.00,-2.00
+1.00,+3.00,+3.00,+0.00,+1.00,+4.00,+0.00,+2.00,+1.00,-5.00,-3.00,-2.00,-3.00,-6.00,-10.00,-2.00
+1.00,-4.00,+5.00,+1.00,+0.00,+2.00,-7.00,+4.00,+2.00,-1.00,-1.00,-2.00,-2.00,-1.00,+4.00,+1.00
-4.00,-1.00,-5.00,-2.00,+0.00,-1.00,-4.00,-9.00,+2.00,+5.00,+2.00,+0.00,+0.00,+0.00,+1.00,+0.00
-8.00,-9.00,-7.00,-3.00,-4.00,-6.00,-8.00,-2.00,-5.00,+6.00,-5.00,-3.00,-3.00,-7.00,-22.00,-7.00
-4.00,-6.00,-1.00,-1.00,-2.00,-2.00,+3.00,-3.00,-12.00,-40.00,-11.00,-8.00,-5.00,+4.00,-3.00,-10.00
+7.00,+0.00,+0.00,-1.00,+0.00,-1.00,+3.00,+2.00,+2.00,+4.00,+1.00,+3.00,+5.00,+7.00,+30.00,+11.00
-9.00,-6.00,+1.00,-1.00,+0.00,-1.00,+3.00,-3.00,+1.00,-11.00,-2.00,+0.00,-4.00,-9.00,-24.00,+1.00
+15.00,+4.00,+0.00,-1.00,-2.00,-3.00,-9.00,+9.00,+6.00,+16.00,+2.00,+0.00,+0.00,+2.00,+15.00,+0.00
-7.00,-3.00,-3.00,-2.00,-1.00,-3.00,-5.00,-9.00,-1.00,+0.00,+3.00,+0.00,-2.00,+0.00,+0.00,+3.00
-2.00,-1.00,-1.00,+0.00,+0.00,+1.00,+2.00,+3.00,-2.00,-5.00,-2.00,-2.00,-4.00,-5.00,-9.00,-8.00
-7.00,-2.00,+1.00,+0.00,-2.00,+0.00,+5.00,+0.00,-3.00,+1.00,-2.00,-3.00,+0.00,+0.00,-4.00,-8.00
+8.00,+4.00,-1.00,+0.00,+0.00,-2.00,-5.00,-3.00,-2.00,-2.00,-1.00,+1.00,+0.00,-2.00,-3.00,+1.00
-5.00,-1.00,+0.00,-2.00,-1.00,-3.00,-2.00,+0.00,+4.00,+8.00,+1.00,+0.00,-1.00,-4.00,-3.00,-2.00
-1.00,+4.00,+3.00,-1.00,+0.00,+0.00,+1.00,+0.00,-9.00,-4.00,+0.00,-1.00,+1.00,+4.00,+4.00,+0.00
+17.00,-3.00,-2.00,+2.00,-1.00,+1.00,+3.00,+4.00,-1.00,-2.00,-1.00,+0.00,-3.00,+1.00,+6.00,-1.00
-11.00,-1.00,+0.00,+0.00,+0.00,-2.00,-4.00,-2.00,-3.00,-5.00,-1.00,-2.00,-4.00,-3.00,-4.00,-4.00
+6.00,-3.00,-2.00,-4.00,-1.00,-3.00,-2.00,-3.00,+11.00,+6.00,-1.00,+0.00,+1.00,+1.00,+9.00,+5.00
-1.00,-4.00,-2.00,-3.00,-2.00,-1.00,-2.00,-1.00,-6.00,-3.00,-3.00,-2.00,+1.00,-3.00,-7.00,-2.00
-6.00,+6.00,+1.00,+0.00,+4.00,+2.00,+4.00,-1.00,-3.00,+1.00,-2.00,-1.00,-1.00,+0.00,+2.00,-3.00
-2.00,-4.00,-5.00,-3.00,-3.00,+0.00,-5.00,-1.00,-4.00,-8.00,-1.00,+0.00,-3.00,+1.00,+1.00,-3.00
-5.00,-3.00,-1.00,-1.00,-3.00,-3.00,-9.00,-6.00,-8.00,+1.00,+1.00,+0.00,+0.00,-2.00,+2.00,-4.00
-3.00,-1.00,-1.00,+0.00,+0.00,-5.00,-6.00,-6.00,+6.00,+3.00,-2.00,-1.00,-1.00,-1.00,-8.00,+0.00
+2.00,-10.00,+0.00,+1.00,-1.00,+1.00,+17.00,+2.00,-4.00,-2.00,+0.00,-2.00,+1.00,+0.00,+0.00,-2.00
+4.00,+13.00,+4.00,+2.00,+2.00,+2.00,+2.00,+10.00,+4.00,+2.00,-1.00,+3.00,+0.00,+3.00,+7.00,+0.00
-1.00,-4.00,-4.00,-4.00,-1.00,+0.00,-8.00,-9.00,+1.00,-3.00,-2.00,-5.00,-2.00,-7.00,-5.00,+2.00
-2.00,+3.00,-2.00,-1.00,+1.00,+3.00,+11.00,+5.00,-2.00,+0.00,+0.00,-1.00,-2.00,-2.00,-8.00,-3.00
+2.00,-3.00,-1.00,-2.00,-3.00,-5.00,-5.00,-2.00,+0.00,+0.00,+1.00,-1.00,+1.00,+3.00,+9.00,+0.00
-5.00,-5.00,-2.00,-3.00,-2.00,-1.00,+0.00,-5.00,-3.00,-6.00,-4.00,-2.00,+0.00,+2.00,-1.00,-1.00
-5.00,-2.00,-1.00,-1.00,-2.00,-3.00,-3.00,-6.00,+3.00,+7.00,-1.00,-2.00,-4.00,-7.00,-13.00,-1.00
+2.00,+0.00,-1.00,-2.00,-2.00,-1.00,-4.00,+3.00,-1.00,+4.00,+2.00,-1.00,-2.00,-4.00,-5.00,+0.00
-3.00,+1.00,-1.00,+1.00,-1.00,+0.00,+1.00,-1.00,-3.00,-4.00,-4.00,-3.00,-3.00,-4.00,+3.00,-1.00
-8.00,-4.00,-2.00,+0.00,-2.00,+0.00,-2.00,-1.00,-1.00,+0.00,+1.00,+1.00,+0.00,-3.00,+1.00,-1.00
+19.00,+5.00,+2.00,+0.00,+0.00,-1.00,+0.00,+5.00,-5.00,-5.00,-3.00,+0.00,+0.00,+4.00,+0.00,-2.00
