+1.00,-2.00,-1.00,+0.00,-2.00,+0.00,-2.00,-2.00,-2.00,-1.00,-2.00,-3.00,-1.00,-2.00,-1.00,-1.00
-1.00,-1.00,-3.00,-1.00,-1.00,-1.00,-3.00,-1.00,-1.00,+1.00,+0.00,-1.00,-1.00,+1.00,+0.00,+1.00
-2.00,-2.00,-1.00,-1.00,+0.00,+0.00,+0.00,-1.00,-2.00,-2.00,-2.00,-3.00,-3.00,+0.00,-2.00,-1.00
-4.00,-2.00,+2.00,-1.00,-2.00,-3.00,-11.00,-4.00,-2.00,-4.00,-2.00,-1.00,-5.00,-1.00,-3.00,-4.00
-3.00,-2.00,+1.00,-2.00,+0.00,+1.00,+9.00,+8.00,-1.00,-3.00,+1.00,+2.00,+0.00,+0.00,+1.00,+1.00
+8.00,-1.00,-3.00,-2.00,-2.00,+0.00,-3.00,-2.00,-2.00,-2.00,-5.00,-3.00,-6.00,-6.00,-9.00,+0.00
-4.00,-8.00,-6.00,-2.00,+0.00,-3.00,+0.00,+3.00,-1.00,+1.00,+0.00,+0.00,+1.00,+1.00,+5.00,+0.00
-4.00,-1.00,-2.00,+0.00,-3.00,-1.00,-5.00,-1.00,+0.00,-1.00,-1.00,-1.00,+0.00,+2.00,+0.00,-1.00
+5.00,+0.00,-1.00,+2.00,-1.00,+0.00,+0.00,-1.00,-1.00,-3.00,-2.00,+0.00,+0.00,+0.00,+0.00,-1.00
-2.00,+0.00,+1.00,+1.00,-1.00,+0.00,+1.00,+5.00,-1.00,-1.00,+0.00,-1.00,+0.00,+1.00,+3.00,+1.00
-2.00,+1.00,+1.00,-2.00,-2.00,-1.00,+1.00,-1.00,-3.00,-1.00,+0.00,+0.00,-2.00,-3.00,-6.00,-2.00
+2.00,-3.00,-3.00,-2.00,-2.00,+1.00,+0.00,-4.00,-1.00,+0.00,+0.00,-1.00,+0.00,-2.00,-3.00,-2.00
-8.00,-4.00,-2.00,+0.00,-1.00,+0.00,-2.00,+0.00,+5.00,+0.00,+0.00,+0.00,-2.00,-2.00,-1.00,+0.00
-14.00,-4.00,-3.00,-4.00,-3.00,-2.00,-2.00,-1.00,-2.00,-1.00,-1.00,-1.00,+0.00,-1.00,+3.00,+0.00
-5.00,-3.00,-4.00,-1.00,-2.00,+1.00,-2.00,-4.00,-3.00,-4.00,-2.00,-3.00,-2.00,-2.00,-1.00,-2.00
+27.00,+6.00,+2.00,+2.00,+1.00,-1.00,+0.00,+4.00,-1.00,+3.00,-1.00,+0.00,-1.00,+1.00,+2.00,+0.00
+1.00,+2.00,+0.00,+1.00,-1.00,+2.00,+7.00,+1.00,-1.00,-1.00,-2.00,-1.00,-1.00,-1.00,-3.00,-3.00
-4.00,+2.00,+1.00,-1.00,-1.00,-1.00,-7.00,-9.00,-1.00,+0.00,+1.00,-1.00,-2.00,+0.00,-1.00,-2.00
-6.00,+1.00,+1.00,+1.00,+1.00,+0.00,+1.00,+7.00,+3.00,-1.00,-1.00,-1.00,-1.00,-2.00,-2.00,-1.00
+2.00,+0.00,-1.00,-1.00,-1.00,+0.00,+1.00,-5.00,+8.00,+2.00,+1.00,-3.00,+0.00,+0.00,-2.00,+3.00
-17.00,-5.00,-3.00,-4.00,-1.00,-4.00,-5.00,-1.00,-5.00,-3.00,-2.00,-2.00,-2.00,-1.00,-1.00,-3.00
-53.00,-11.00,-3.00,-3.00,+0.00,-2.00,-1.00,-12.00,-10.00,-2.00,+0.00,-1.00,+0.00,+2.00,-2.00,-5.00
+66.00,+8.00,+4.00,+0.00,-1.00,+0.00,+4.00,+7.00,-2.00,-3.00,-2.00,+0.00,-1.00,-4.00,-3.00,-1.00
+28.00,+11.00,+3.00,-1.00,-2.00,+0.00,-1.00,+10.00,+3.00,-1.00,+0.00,+1.00,+1.00,+1.00,+6.00,+2.00
+14.00,-4.00,-3.00,+0.00,-3.00,-2.00,-3.00,-6.00,+3.00,+0.00,-2.00,-1.00,+1.00,-1.00,+1.00,+5.00
-40.00,-5.00,+3.00,+1.00,+3.00,+1.00,+2.00,-1.00,-8.00,-2.00,-1.00,-2.00,-2.00,+0.00,-2.00,-6.00
+4.00,+23.00,+1.00,+1.00,-1.00,-1.00,-3.00,-3.00,+19.00,+2.00,-1.00,-3.00,-1.00,-2.00,-1.00,+5.00
+4.00,-3.00,-4.00,-1.00,-2.00,+0.00,+0.00,+8.00,+12.00,+0.00,-1.00,-1.00,+0.00,-3.00,-3.00,+1.00
-20.00,-6.00,-2.00,-1.00,-2.00,-2.00,-4.00,-8.00,-27.00,-5.00,-2.00,+0.00,+0.00,-2.00,-9.00,-16.00
+26.00,-8.00,-6.00,-3.00,-1.00,-1.00,+0.00,+0.00,-49.00,-5.00,-4.00,-2.00,+0.00,-3.00,-3.00,-15.00
-22.00,-13.00,-1.00,-2.00,+0.00,-2.00,-1.00,-1.00,+24.00,-7.00,-1.00,-2.00,+0.00,-1.00,-3.00,-2.00
-21.00,-5.00,-1.00,-2.00,+1.00,+0.00,-1.00,-3.00,+14.00,+7.00,+2.00,+0.00,+1.00,+2.00,+10.00,+27.00
-30.00,-5.00,-2.00,-2.00,-4.00,-3.00,-2.00,-3.00,+3.00,+5.00,+2.00,-1.00,-1.00,+0.00,+5.00,+3.00
+58.00,+10.00,+3.00,+3.00,-3.00,-2.00,+2.00,+8.00,+5.00,-1.00,-2.00,-1.00,-2.00,-2.00,-1.00,+0.00
-15.00,-14.00,-1.00,-1.00,+3.00,+1.00,+0.00,-6.00,-17.00,+4.00,-1.00,+1.00,-3.00,+1.00,+5.00,-1.00
+6.00,+8.00,+2.00,+4.00,+8.00,+1.00,-1.00,-6.00,+7.00,-7.00,-6.00,-3.00,-3.00,-2.00,-9.00,-14.00
-6.00,+8.00,+2.00,+2.00,+6.00,+0.00,-3.00,+0.00,+2.00,-3.00,+0.00,+1.00,-2.00,+1.00,-2.00,+0.00
-15.00,-9.00,-2.00,+1.00,+4.00,-2.00,-3.00,-8.00,+8.00,+1.00,+3.00,+2.00,+0.00,+0.00,+1.00,+3.00
+22.00,+5.00,+0.00,-2.00,+2.00,-1.00,+3.00,+10.00,+5.00,-3.00,-7.00,-8.00,-2.00,-2.00,-4.00,-1.00
-17.00,-11.00,-6.00,-8.00,-14.00,-4.00,-5.00,-10.00,-31.00,-6.00,-1.00,+0.00,-2.00,+1.00,-4.00,-14.00
-11.00,-3.00,+6.00,+4.00,+6.00,+5.00,+2.00,+1.00,+6.00,-3.00,+0.00,+5.00,+2.00,-1.00,+1.00,+5.00
+62.00,+28.00,+6.00,+2.00,+4.00,+3.00,+2.00,+9.00,-9.00,+0.00,+0.00,+12.00,+3.00,-1.00,+0.00,-2.00
-23.00,-15.00,-3.00,+1.00,-5.00,-2.00,+1.00,-3.00,+2.00,+4.00,-1.00,-8.00,-4.00,+1.00,+1.00,+2.00
-16.00,-13.00,-6.00,-2.00,+0.00,-4.00,-3.00,+1.00,+8.00,+4.00,+1.00,-3.00,+2.00,+0.00,+2.00,+5.00
-5.00,-18.00,-4.00,-1.00,-5.00,-4.00,-1.00,-2.00,-56.00,-25.00,-6.00,+0.00,+1.00,-2.00,-1.00,-15.00
+24.00,-8.00,-2.00,+1.00,+5.00,+1.00,-2.00,-4.00,+54.00,+13.00,+13.00,+23.00,+5.00,-1.00,-1.00,+6.00
-1.00,+29.00,+0.00,-3.00,-5.00,-2.00,-2.00,-7.00,-52.00,-6.00,-4.00,-10.00,+0.00,-1.00,-5.00,-21.00
+25.00,+4.00,+5.00,-4.00,-12.00,-4.00,+0.00,+7.00,-16.00,-4.00,-5.00,-6.00,-8.00,-3.00,-5.00,+4.00
+13.00,+25.00,-1.00,-4.00,-6.00,-2.00,+0.00,-3.00,+37.00,+9.00,-4.00,-10.00,-5.00,-2.00,-3.00,+9.00
-20.00,-15.00,-2.00,+3.00,-3.00,-2.00,-3.00,-3.00,+48.00,+10.00,-5.00,-13.00,-4.00,+1.00,+12.00,+21.00
-29.00,-14.00,-6.00,-5.00,-2.00,-3.00,-5.00,-6.00,+29.00,+12.00,+5.00,+11.00,+3.00,-1.00,+1.00,+1.00
-28.00,-11.00,-5.00,+1.00,+10.00,+1.00,-3.00,-9.00,-56.00,-16.00,+0.00,+5.00,+4.00,-4.00,-17.00,-29.00
+46.00,+2.00,+3.00,-1.00,+0.00,+1.00,+0.00,+8.00,-45.00,-28.00,-6.00,-9.00,-4.00,-2.00,-4.00,-19.00
-30.00,-9.00,-1.00,-3.00,+3.00,+2.00,+0.00,-3.00,-36.00,-11.00,-4.00,+5.00,-3.00,-2.00,-6.00,+9.00
+13.00,+17.00,+2.00,+1.00,-2.00,-2.00,-1.00,+2.00,+2.00,+1.00,-6.00,-18.00,-8.00,-3.00,-2.00,-3.00
-23.00,-6.00,-1.00,-2.00,+21.00,+7.00,-2.00,-7.00,+54.00,+26.00,+2.00,-2.00,-1.00,+2.00,+19.00,+27.00
+0.00,-5.00,-1.00,-2.00,-27.00,-7.00,-1.00,-3.00,+31.00,+10.00,+2.00,+5.00,-1.00,-4.00,-11.00,-4.00
+6.00,+0.00,-3.00,-5.00,-1.00,-2.00,+3.00,+4.00,-15.00,-13.00,-1.00,-6.00,+0.00,-3.00,-11.00,-21.00
+2.00,-16.00,-1.00,+0.00,-5.00,-6.00,-9.00,-3.00,+4.00,+4.00,-1.00,-5.00,-2.00,+0.00,+3.00,+2.00
-5.00,+3.00,+3.00,+2.00,+6.00,+1.00,-7.00,-6.00,+20.00,-3.00,-5.00,-2.00,-2.00,-1.00,+4.00,+12.00
-35.00,+8.00,-1.00,+2.00,+2.00,+4.00,+16.00,-3.00,-20.00,+3.00,+1.00,+0.00,-1.00,-1.00,+0.00,-8.00
+26.00,+32.00,+0.00,-2.00,-4.00,+0.00,+0.00,+9.00,+7.00,-1.00,-3.00,-6.00,-2.00,-1.00,-3.00,+1.00
+12.00,-26.00,-1.00,+1.00,+0.00,+0.00,+2.00,-2.00,-18.00,-21.00,-2.00,+6.00,+1.00,-3.00,-5.00,+1.00
-11.00,-23.00,-4.00,-4.00,-6.00,-4.00,-6.00,-8.00,-3.00,-6.00,-5.00,-2.00,+2.00,+2.00,-2.00,-9.00
+29.00,+7.00,+5.00,-1.00,+3.00,-4.00,-10.00,-1.00,+22.00,+11.00,+3.00,-1.00,+0.00,+3.00,+6.00,+12.00
-3.00,+49.00,+1.00,+1.00,-1.00,-2.00,+0.00,-1.00,-13.00,-12.00,-1.00,+0.00,+2.00,-1.00,-2.00,-7.00
-15.00,-2.00,-4.00,+1.00,+4.00,+6.00,+7.00,+0.00,-20.00,+9.00,+1.00,-1.00,-4.00,-7.00,-5.00,+2.00
+4.00,-5.00,-3.00,+4.00,+1.00,-4.00,-13.00,+1.00,-28.00,-3.00,+1.00,-2.00,-3.00,-5.00,-9.00,-23.00
-48.00,-50.00,-11.00,-11.00,-14.00,-2.00,-3.00,-17.00,+3.00,-18.00,-5.00,+2.00,+2.00,-2.00,+5.00,+3.00
+30.00,-12.00,+2.00,+0.00,+4.00,+5.00,+15.00,+4.00,-23.00,-7.00,-5.00,-9.00,-3.00,-3.00,-9.00,-9.00
+13.00,+57.00,+6.00,+0.00,+1.00,+2.00,-5.00,+1.00,+46.00,+8.00,+8.00,+9.00,+4.00,+8.00,+19.00,+17.00
+20.00,+8.00,+2.00,-1.00,-3.00,+1.00,+10.00,+2.00,-56.00,-18.00,+2.00,-1.00,-6.00,-2.00,-2.00,-11.00
+2.00,-6.00,-1.00,-2.00,-2.00,-4.00,-15.00,-8.00,-3.00,+28.00,+4.00,-2.00,-3.00,-9.00,-11.00,-6.00
+12.00,-12.00,-2.00,-2.00,-10.00,-2.00,-6.00,+8.00,+27.00,+3.00,-3.00,-9.00,-1.00,+5.00,+2.00,+2.00
-1.00,-24.00,+1.00,+5.00,+20.00,+1.00,+5.00,-2.00,+25.00,-21.00,-3.00,+21.00,+8.00,-2.00,-4.00,-2.00
-18.00,+26.00,+2.00,+2.00,-4.00,+0.00,-2.00,-4.00,-18.00,+21.00,+5.00,+4.00,+0.00,-4.00,-1.00,+2.00
-63.00,-41.00,-13.00,-1.00,+20.00,+2.00,-7.00,-20.00,-30.00,-24.00,-14.00,-30.00,-13.00,-3.00,-4.00,-9.00
+44.00,+42.00,+7.00,-3.00,-19.00,-6.00,+2.00,+16.00,+10.00,+1.00,-8.00,-13.00,-9.00,-4.00,+0.00,+2.00
+38.00,+16.00,+7.00,+1.00,-8.00,-1.00,+4.00,+11.00,-11.00,-13.00,-2.00,+5.00,+6.00,+0.00,-7.00,-3.00
+15.00,+33.00,+4.00,-4.00,-7.00,-1.00,+4.00,+12.00,+35.00,+8.00,-2.00,-7.00,-4.00,+5.00,+8.00,+7.00
+11.00,-8.00,-2.00,+3.00,+14.00,+4.00,-2.00,-2.00,-12.00,-5.00,+8.00,+15.00,+10.00,+2.00,-4.00,-11.00
-81.00,-26.00,-9.00,+1.00,-5.00,-3.00,-3.00,-18.00,-16.00,+2.00,-1.00,-2.00,-4.00,-3.00,+0.00,-1.00
-31.00,-26.00,-9.00,-10.00,-6.00,-5.00,-12.00,-18.00,+33.00,+25.00,+12.00,+0.00,+3.00,-2.00,-14.00,-6.00
+5.00,-19.00,-2.00,-10.00,-15.00,-2.00,+1.00,-7.00,-11.00,-33.00,-17.00,-4.00,-4.00,+1.00,+1.00,+5.00
+12.00,+30.00,+3.00,+0.00,+7.00,+3.00,+3.00,-1.00,+13.00,+7.00,+7.00,+15.00,+5.00,+6.00,+20.00,+23.00
+12.00,-19.00,-2.00,-1.00,-12.00,-4.00,-5.00,+5.00,-16.00,+19.00,+2.00,-1.00,+1.00,+2.00,+6.00,+4.00
-25.00,-5.00,-5.00,+0.00,+8.00,+2.00,-6.00,-8.00,-29.00,-24.00,+4.00,+14.00,+4.00,+1.00,-3.00,-6.00
-13.00,+18.00,-4.00,-7.00,-6.00,-10.00,-7.00,-13.00,+48.00,+11.00,+5.00,+1.00,+4.00,-2.00,+0.00,+3.00
+39.00,+31.00,+7.00,+2.00,-10.00,+1.00,+6.00,+8.00,+1.00,+2.00,-5.00,-7.00,-4.00,-7.00,-15.00,-29.00
-10.00,+13.00,+8.00,+3.00,+21.00,+9.00,+1.00,+9.00,-14.00,-11.00,+0.00,+24.00,+9.00,+0.00,-5.00,-9.00
+11.00,-20.00,-1.00,-1.00,-15.00,-3.00,-11.00,-16.00,-41.00,-8.00,-17.00,-44.00,-27.00,-11.00,-11.00,+13.00
-47.00,-36.00,-16.00,+0.00,+7.00,+1.00,+14.00,-6.00,+0.00,-14.00,+8.00,+25.00,+12.00,+6.00,+8.00,+4.00
+12.00,-3.00,-3.00,-3.00,-9.00,-3.00,-3.00,-3.00,+99.00,+16.00,-6.00,-15.00,-8.00,-1.00,+0.00,+24.00
-36.00,-4.00,+3.00,+9.00,+8.00,-6.00,-9.00,-22.00,-79.00,-18.00,-2.00,-18.00,-11.00,-10.00,-2.00,-57.00
+30.00,-2.00,+1.00,-6.00,-16.00,+8.00,+11.00,+38.00,-56.00,-10.00,-5.00,+7.00,-2.00,-5.00,-10.00,+25.00
+7.00,-1.00,+4.00,+0.00,+19.00,+4.00,-8.00,-5.00,+15.00,+7.00,+11.00,+2.00,-3.00,+5.00,+11.00,+5.00
+13.00,+0.00,-1.00,+1.00,-22.00,-5.00,+1.00,+10.00,+24.00,+5.00,-1.00,+25.00,+10.00,+3.00,+7.00,+6.00
-37.00,-10.00,-8.00,-2.00,+12.00,+0.00,+1.00,-8.00,+22.00,-17.00,-6.00,-18.00,-7.00,-7.00,-11.00,-11.00
-10.00,+3.00,+5.00,-2.00,+16.00,-1.00,-7.00,-29.00,-49.00,-15.00,-14.00,-9.00,-6.00,-7.00,-13.00,-49.00
+46.00,+53.00,+16.00,-3.00,-28.00,-2.00,+2.00,+22.00,-2.00,+25.00,+2.00,-11.00,+1.00,-4.00,-7.00,+5.00
+31.00,+8.00,-9.00,+2.00,+8.00,-2.00,+2.00,+15.00,+34.00,+2.00,+13.00,+18.00,+6.00,+10.00,+22.00,+24.00
+4.00,-24.00,-8.00,-3.00,+2.00,+1.00,-4.00,-5.00,-17.00,+4.00,+0.00,-5.00,-9.00,-5.00,-10.00,-15.00
-61.00,-31.00,-16.00,-2.00,-9.00,-11.00,-8.00,-29.00,+49.00,-11.00,+6.00,+12.00,+5.00,+7.00,+22.00,+34.00
+5.00,+11.00,+6.00,+11.00,+29.00,+9.00,+3.00,+17.00,-36.00,-26.00,-9.00,-13.00,-5.00,-9.00,-17.00,-9.00
-57.00,-27.00,+5.00,-2.00,-15.00,-6.00,-9.00,-12.00,+6.00,+59.00,+4.00,-7.00,-3.00,-12.00,-27.00,-32.00
+47.00,+1.00,+1.00,+8.00,+23.00,+10.00,+19.00,+33.00,-17.00,+35.00,+6.00,+1.00,-10.00,-4.00,+5.00,+27.00
+20.00,+7.00,+3.00,-8.00,-34.00,-5.00,+3.00,+19.00,+3.00,+16.00,+1.00,-13.00,-4.00,+0.00,+12.00,+0.00
-50.00,-18.00,-7.00,-1.00,+4.00,-3.00,-12.00,-17.00,-15.00,+1.00,+1.00,+3.00,+1.00,-1.00,-5.00,-15.00
-3.00,+7.00,+3.00,+1.00,+17.00,+5.00,+3.00,-2.00,+20.00,-8.00,+0.00,-5.00,-3.00,-6.00,-3.00,+0.00
-18.00,-5.00,-3.00,-6.00,-7.00,-2.00,+3.00,-12.00,+11.00,-16.00,-2.00,-7.00,+2.00,+8.00,+15.00,+32.00
-75.00,-36.00,-6.00,+3.00,+20.00,+1.00,-4.00,-28.00,+17.00,+19.00,+8.00,+36.00,+15.00,-4.00,-21.00,-46.00
+101.00,-12.00,+1.00,+0.00,-13.00,+1.00,+11.00,+42.00,+58.00,+26.00,+9.00,+0.00,+0.00,+7.00,+19.00,+45.00
+7.00,+30.00,-3.00,+0.00,+9.00,+2.00,-4.00,-1.00,-46.00,-29.00,-16.00,-5.00,-2.00,+3.00,+7.00,-4.00
+9.00,+15.00,+7.00,+3.00,-3.00,-3.00,-7.00,-10.00,+51.00,-15.00,+1.00,+5.00,+6.00,+3.00,+7.00,+19.00
+11.00,+19.00,+5.00,+4.00,+11.00,+3.00,+8.00,+16.00,-17.00,+21.00,+0.00,-9.00,-4.00,-4.00,+2.00,-6.00
-43.00,-13.00,+2.00,+5.00,-11.00,-4.00,-3.00,-1.00,-29.00,-14.00,-2.00,+6.00,+1.00,-4.00,-11.00,-25.00
+10.00,-27.00,-1.00,+10.00,+35.00,+3.00,+0.00,-6.00,+20.00,+6.00,+3.00,-8.00,-6.00,-13.00,-24.00,-6.00
-20.00,-5.00,-7.00,-13.00,-20.00,-6.00,-5.00,-15.00,+16.00,-5.00,+5.00,+18.00,+14.00,+17.00,+30.00,+30.00
-44.00,-3.00,-4.00,+9.00,-5.00,+9.00,-1.00,+0.00,-7.00,+6.00,-1.00,+2.00,+0.00,+1.00,+2.00,-4.00
+56.00,+32.00,+2.00,-10.00,-27.00,-7.00,+0.00,+4.00,-39.00,-50.00,-14.00,+5.00,+5.00,-2.00,-6.00,-22.00
+33.00,+12.00,+7.00,+2.00,+1.00,+2.00,+4.00,+19.00,+7.00,-2.00,-1.00,+1.00,-3.00,+1.00,+7.00,+16.00
-37.00,-10.00,-3.00,+0.00,-5.00,-3.00,-4.00,-8.00,+31.00,+12.00,+17.00,+16.00,+10.00,+0.00,-8.00,+6.00
-1.00,-36.00,-11.00,-1.00,+13.00,-4.00,-6.00,-16.00,-3.00,+16.00,+14.00,-2.00,+6.00,+4.00,+0.00,-13.00
-13.00,+4.00,-3.00,-4.00,-4.00,-5.00,-2.00,-7.00,-12.00,-6.00,-4.00,+7.00,-1.00,-3.00,+0.00,+18.00
+2.00,+52.00,+8.00,+9.00,+18.00,+9.00,+9.00,+19.00,-7.00,-14.00,+8.00,-6.00,+2.00,+5.00,+10.00,-13.00
+32.00,-7.00,+4.00,+6.00,-10.00,+5.00,-1.00,+7.00,+14.00,-33.00,-24.00,-3.00,-8.00,-5.00,+0.00,+10.00
+12.00,+24.00,+4.00,+2.00,+3.00,-8.00,-5.00,+10.00,-21.00,-2.00,+4.00,+3.00,-8.00,-3.00,-2.00,-4.00
-61.00,-58.00,-14.00,+0.00,+13.00,+4.00,+8.00,-16.00,-20.00,-2.00,-4.00,-7.00,-5.00,-5.00,-12.00,-22.00
+26.00,-6.00,-5.00,-17.00,-33.00,-14.00,-9.00,-2.00,-54.00,-38.00,+3.00,+18.00,+16.00,+3.00,-9.00,-48.00
-39.00,+15.00,+4.00,-7.00,-1.00,-6.00,-9.00,-11.00,+34.00,+25.00,-12.00,-22.00,-12.00,-12.00,-15.00,-4.00
+36.00,-7.00,-5.00,+4.00,+20.00,+0.00,-1.00,+7.00,+50.00,+21.00,+1.00,-16.00,-4.00,+9.00,+21.00,+63.00
+22.00,-7.00,-3.00,+0.00,-1.00,+0.00,+3.00,+4.00,+64.00,+25.00,+7.00,+0.00,+7.00,+13.00,+24.00,+50.00
-29.00,-13.00,-2.00,-2.00,+2.00,+3.00,-2.00,-12.00,+14.00,+48.00,+3.00,-19.00,-12.00,-5.00,+2.00,+24.00
-39.00,-36.00,-10.00,+0.00,-6.00,-4.00,-10.00,-15.00,-6.00,-18.00,-2.00,+3.00,+7.00,-9.00,-29.00,-43.00
+82.00,+8.00,-2.00,-13.00,-13.00,-3.00,+5.00,+28.00,-89.00,-49.00,-21.00,-5.00,-9.00,-9.00,-19.00,-55.00
-23.00,+28.00,+8.00,+6.00,+6.00,+1.00,-3.00,-16.00,+17.00,+37.00,+6.00,+12.00,+1.00,-6.00,-13.00,-12.00
+6.00,+2.00,+0.00,-1.00,-9.00,-5.00,+2.00,+5.00,-62.00,-42.00,-23.00,-62.00,-28.00,-11.00,-18.00,-22.00
+14.00,+8.00,-4.00,-7.00,-3.00,-5.00,-3.00,+7.00,+11.00,+2.00,+8.00,+9.00,+10.00,+12.00,+26.00,+13.00
+27.00,+13.00,+6.00,-1.00,+8.00,+1.00,+2.00,+24.00,+15.00,-12.00,+0.00,+9.00,+2.00,-1.00,-6.00,-1.00
-22.00,-11.00,-9.00,-10.00,-12.00,-7.00,-8.00,-35.00,-90.00,-27.00,-4.00,-17.00,-7.00,-14.00,-32.00,-84.00
+48.00,+9.00,+13.00,+9.00,+28.00,+5.00,+8.00,+41.00,+38.00,+13.00,-5.00,+20.00,+2.00,+4.00,+20.00,+47.00
-1.00,+9.00,+4.00,+5.00,-17.00,+0.00,+2.00,+2.00,-57.00,-23.00,+0.00,-7.00,+0.00,-2.00,-3.00,+4.00
-66.00,-9.00,-6.00,+0.00,-3.00,-4.00,-11.00,-46.00,+61.00,+30.00,-2.00,+2.00,+2.00,+0.00,+3.00,+20.00
-30.00,-34.00,-4.00,+2.00,+40.00,+4.00,-4.00,-1.00,-32.00,-27.00,-25.00,-38.00,-18.00,-5.00,-9.00,-12.00
+14.00,+1.00,-3.00,-18.00,-70.00,-22.00,-7.00,-14.00,+25.00,+7.00,+19.00,+44.00,+17.00,+8.00,+16.00,+0.00
+43.00,+41.00,+12.00,-9.00,-13.00,-6.00,+3.00,+12.00,-41.00,+9.00,-11.00,-28.00,-17.00,-12.00,-14.00,-16.00
-57.00,-15.00,+4.00,+0.00,-4.00,+2.00,+6.00,+7.00,+86.00,+38.00,+21.00,+30.00,+20.00,+20.00,+39.00,+80.00
+84.00,+53.00,+8.00,+7.00,+18.00,+3.00,+2.00,+28.00,+6.00,-2.00,-16.00,-39.00,-22.00,-6.00,-1.00,-6.00
-40.00,-21.00,-13.00,-8.00,+2.00,-3.00,-8.00,-30.00,-82.00,-60.00,-6.00,+11.00,+9.00,-9.00,-34.00,-37.00
+3.00,-23.00,-8.00,-7.00,-10.00,-6.00,-10.00,+6.00,+80.00,+55.00,+13.00,+15.00,-1.00,-1.00,+6.00,+22.00
-22.00,+10.00,-5.00,-9.00,+0.00,-1.00,+12.00,-2.00,-72.00,-41.00,-15.00,+7.00,+4.00,-8.00,-25.00,-98.00
+25.00,-18.00,+5.00,+5.00,+1.00,+8.00,+11.00,+20.00,-52.00,-22.00,-8.00,-2.00,-2.00,-1.00,+5.00,+27.00
-1.00,-1.00,-1.00,+1.00,+15.00,-1.00,-9.00,-15.00,+105.00,+71.00,+6.00,-24.00,-23.00,-2.00,+13.00,+65.00
-50.00,-28.00,-14.00,-3.00,+14.00,-2.00,-14.00,-59.00,-75.00,-18.00,+4.00,-5.00,-2.00,+1.00,+0.00,-19.00
+48.00,+22.00,+6.00,-9.00,-19.00,+3.00,+10.00,+50.00,-13.00,-10.00,-4.00,+13.00,+8.00,-2.00,-17.00,-7.00
+29.00,+11.00,+5.00,+3.00,-9.00,+4.00,+15.00,+46.00,+47.00,-24.00,-15.00,-42.00,-27.00,-8.00,+2.00,-5.00
+14.00,+41.00,+22.00,+22.00,+13.00,+13.00,+9.00,+7.00,-52.00,-31.00,-9.00,+8.00,+1.00,-2.00,-16.00,-40.00
+4.00,-13.00,+1.00,-7.00,-14.00,-7.00,+4.00,+20.00,+21.00,+11.00,+14.00,+11.00,+11.00,+9.00,+9.00,+15.00
-10.00,-5.00,-4.00,-3.00,+8.00,+1.00,-9.00,-26.00,+16.00,+13.00,-5.00,-17.00,-13.00,-3.00,+12.00,+20.00
-3.00,-10.00,-19.00,-14.00,-7.00,-6.00,-11.00,-22.00,-62.00,-22.00,+13.00,+48.00,+31.00,+2.00,-17.00,-23.00
-14.00,-6.00,-8.00,-2.00,-23.00,-4.00,+5.00,+23.00,+105.00,+39.00,-9.00,-13.00,-5.00,+19.00,+62.00,+100.00
-28.00,-24.00,-7.00,-5.00,+7.00,-4.00,+2.00,-2.00,+74.00,+38.00,-8.00,-24.00,-18.00,+2.00,+7.00,+51.00
+13.00,+19.00,+3.00,+5.00,+10.00,+3.00,-4.00,-15.00,-64.00,-8.00,+19.00,+23.00,+16.00,+5.00,+4.00,-12.00
-70.00,-21.00,-2.00,-6.00,-27.00,-14.00,-1.00,-4.00,-38.00,-10.00,-5.00,+26.00,+4.00,-10.00,-33.00,-45.00
-12.00,-52.00,-11.00,-2.00,+24.00,+1.00,-14.00,-27.00,-40.00,+11.00,+9.00,+18.00,+16.00,+2.00,-2.00,-31.00
+91.00,+43.00,+8.00,+6.00,+18.00,+7.00,+4.00,+15.00,-98.00,-59.00,-29.00,-19.00,-4.00,-15.00,-29.00,-95.00
+24.00,+30.00,+13.00,+4.00,+16.00,+5.00,+7.00,+24.00,+73.00,+19.00,-5.00,-31.00,-22.00,+6.00,+28.00,+72.00
-25.00,-10.00,+0.00,-3.00,-15.00,-9.00,-9.00,-17.00,+69.00,+13.00,-1.00,+18.00,+13.00,+3.00,+1.00,+45.00
-33.00,-8.00,-4.00,-8.00,-6.00,-3.00,+6.00,-4.00,-75.00,-26.00,-4.00,+19.00,+8.00,-2.00,-16.00,-42.00
-30.00,-72.00,-11.00,+2.00,-3.00,+11.00,-1.00,-6.00,-10.00,-22.00,+1.00,+24.00,+14.00,+5.00,-3.00,+11.00
-5.00,+43.00,-6.00,-8.00,-17.00,-12.00,-12.00,-22.00,-25.00,+11.00,+2.00,-33.00,-28.00,-17.00,-20.00,-50.00
+29.00,+10.00,+7.00,-2.00,-8.00,+0.00,-7.00,-24.00,-10.00,-5.00,-7.00,-15.00,-3.00,+5.00,+18.00,-41.00
-42.00,-19.00,+4.00,+5.00,+13.00,+8.00,+4.00,+4.00,+9.00,+8.00,+1.00,-5.00,-9.00,+3.00,+23.00,+51.00
+2.00,+4.00,+2.00,-1.00,-16.00,-8.00,+1.00,+15.00,+23.00,+21.00,+0.00,-1.00,-5.00,-3.00,+2.00,+11.00
-39.00,-15.00,-8.00,+10.00,+55.00,+10.00,+0.00,-1.00,-9.00,-45.00,-5.00,+15.00,+14.00,+3.00,-1.00,+32.00
+4.00,+19.00,+1.00,-2.00,-27.00,-3.00,+1.00,+2.00,+57.00,-9.00,+7.00,-11.00,-8.00,+1.00,+3.00,+12.00
-43.00,-31.00,-14.00,-9.00,-11.00,-13.00,-16.00,-41.00,-79.00,+3.00,+1.00,-5.00,-1.00,-8.00,-14.00,-46.00
-30.00,+9.00,+12.00,+13.00,+5.00,+10.00,+2.00,-16.00,-75.00,+4.00,-6.00,-2.00,-1.00,-5.00,-14.00,-64.00
+38.00,+27.00,+12.00,+1.00,-1.00,+3.00,+6.00,+27.00,+29.00,+16.00,+10.00,+22.00,+10.00,-4.00,-12.00,+10.00
+4.00,-16.00,-1.00,+12.00,-11.00,-2.00,+4.00,+10.00,+27.00,+31.00,+1.00,+10.00,-3.00,-4.00,-10.00,-12.00
+22.00,-4.00,-8.00,-15.00,-5.00,-1.00,-1.00,+19.00,+77.00,+6.00,-3.00,-40.00,-21.00,-11.00,-22.00,+16.00
+19.00,-4.00,-7.00,-3.00,+19.00,+5.00,+1.00,-1.00,+20.00,+3.00,+3.00,+32.00,+13.00,+6.00,+16.00,+33.00
+37.00,+7.00,+9.00,+7.00,-16.00,-1.00,+8.00,+10.00,-78.00,-9.00,+3.00,+5.00,+2.00,-10.00,-32.00,-102.00
-13.00,-9.00,-5.00,+2.00,+90.00,+22.00,+1.00,-3.00,-20.00,+1.00,-6.00,-18.00,-2.00,-6.00,-2.00,+14.00
-22.00,-17.00,-11.00,-7.00,-89.00,-25.00,-5.00,-13.00,+70.00,+22.00,+13.00,+25.00,+13.00,+12.00,+30.00,+82.00
+3.00,+6.00,+2.00,+3.00,+0.00,-6.00,-5.00,+18.00,+25.00,+4.00,+26.00,+29.00,+17.00,+9.00,+6.00,+20.00
-6.00,-10.00,-2.00,+7.00,+38.00,+22.00,+4.00,+2.00,+12.00,-6.00,-16.00,-14.00,-8.00,+1.00,+8.00,-4.00
+35.00,+21.00,+3.00,-8.00,-33.00,-8.00,+7.00,+13.00,-24.00,+6.00,-7.00,-2.00,-7.00,-4.00,-5.00,-52.00
+7.00,+41.00,+9.00,+5.00,+12.00,+10.00,-3.00,-13.00,+27.00,-21.00,+5.00,+8.00,+1.00,+8.00,+15.00,+41.00
-49.00,-22.00,-6.00,-8.00,+9.00,-1.00,-8.00,-21.00,+16.00,-14.00,-16.00,-32.00,-16.00,-6.00,-9.00,-13.00
+4.00,-45.00,-7.00,-9.00,-4.00,-15.00,-10.00,-4.00,-8.00,-55.00,-26.00,-24.00,-4.00,-2.00,-4.00,+3.00
-53.00,+23.00,+3.00,-2.00,-68.00,-20.00,-3.00,+4.00,+36.00,+28.00,+17.00,+4.00,+3.00,+6.00,+8.00,+1.00
+86.00,-9.00,-2.00,+11.00,+78.00,+11.00,-3.00,+9.00,-9.00,+5.00,+5.00,+17.00,+12.00,+6.00,+0.00,-5.00
+50.00,+92.00,+20.00,-2.00,-78.00,-29.00,+6.00,+11.00,-3.00,-13.00,+1.00,+5.00,+0.00,+3.00,+18.00,+7.00
-32.00,-39.00,-15.00,-10.00,+35.00,+12.00,-8.00,-16.00,-43.00,+18.00,-7.00,-21.00,-16.00,-8.00,-8.00,-3.00
-50.00,-20.00,-6.00,+4.00,+80.00,+17.00,+0.00,-15.00,-1.00,-13.00,-10.00,+4.00,-3.00,-7.00,-20.00,-17.00
+53.00,+10.00,+3.00,-9.00,-53.00,-29.00,+9.00,+41.00,+23.00,+2.00,+0.00,-2.00,+1.00,-6.00,-9.00,-30.00
+0.00,-38.00,-10.00,+7.00,+84.00,+32.00,+2.00,+14.00,+5.00,+27.00,-3.00,-23.00,-24.00,-13.00,-9.00,-16.00
-63.00,-6.00,-9.00,-2.00,-34.00,-4.00,-1.00,-19.00,-16.00,-20.00,+0.00,-3.00,+8.00,+5.00,+3.00,-32.00
+27.00,-41.00,-7.00,-2.00,-1.00,-4.00,-9.00,-8.00,+9.00,+21.00,-1.00,-9.00,+2.00,+2.00,+40.00,+116.00
-9.00,+40.00,-1.00,-12.00,-53.00,-31.00,+0.00,+9.00,-78.00,-40.00,-4.00,+29.00,+5.00,+0.00,-21.00,-85.00
+6.00,+23.00,+2.00,-6.00,+18.00,+7.00,-2.00,-12.00,+24.00,+6.00,+8.00,+15.00,+8.00,+0.00,-3.00,+20.00
+47.00,+24.00,+6.00,-5.00,-48.00,-23.00,+2.00,+14.00,+101.00,+30.00,+6.00,-4.00,+0.00,+6.00,+33.00,+47.00
-24.00,-6.00,-3.00,+3.00,+38.00,+14.00,-5.00,-16.00,-25.00,-23.00,+1.00,-4.00,-5.00,+4.00,+0.00,-26.00
-17.00,-24.00,-3.00,+1.00,+12.00,+10.00,-3.00,-12.00,+7.00,-21.00,-8.00,+4.00,-7.00,-5.00,-5.00,+60.00
-6.00,-33.00,-5.00,-2.00,-14.00,+1.00,-3.00,+3.00,-18.00,-2.00,-14.00,-33.00,-10.00,-1.00,-8.00,-50.00
-56.00,-7.00,-4.00,+8.00,+50.00,+13.00,-7.00,-35.00,+29.00,-3.00,-8.00,-15.00,+6.00,+0.00,+1.00,+11.00
+64.00,+38.00,+10.00,-5.00,-57.00,-17.00,+6.00,+7.00,+7.00,+27.00,+7.00,+13.00,+11.00,+4.00,+3.00,+32.00
-2.00,+3.00,-3.00,-12.00,+0.00,+9.00,+5.00,+8.00,-68.00,-2.00,-13.00,-27.00,-19.00,-8.00,-9.00,-44.00
-26.00,-30.00,-11.00,+1.00,+35.00,+4.00,+0.00,+0.00,-16.00,-12.00,+1.00,+6.00,-4.00,+0.00,-7.00,-10.00
-2.00,-22.00,+3.00,+15.00,+16.00,+7.00,-6.00,-7.00,+21.00,-4.00,+2.00,+11.00,+1.00,+2.00,-1.00,+1.00
-109.00,-18.00,-12.00,-12.00,-58.00,-24.00,-20.00,-56.00,-11.00,-14.00,-2.00,-8.00,-8.00,+2.00,+6.00,-5.00
+88.00,+44.00,+13.00,+4.00,+62.00,+13.00,+5.00,+31.00,-70.00,-15.00,+5.00,-3.00,+9.00,-10.00,-31.00,-49.00
+50.00,+52.00,+9.00,+1.00,-39.00,-5.00,+2.00,+5.00,+25.00,+3.00,-2.00,+10.00,+7.00,+5.00,+28.00,+50.00
+9.00,-14.00,+0.00,+2.00,+10.00,-13.00,+7.00,+18.00,+24.00,+13.00,-2.00,-2.00,-9.00,-1.00,+11.00,+21.00
-56.00,-25.00,-4.00,-3.00,-64.00,-8.00,-4.00,-21.00,+91.00,+0.00,+8.00,-3.00,-2.00,+4.00,+13.00,+44.00
-41.00,-14.00,-6.00,+4.00,+69.00,+20.00,-6.00,-11.00,-24.00,+25.00,+14.00,+3.00,-3.00,-4.00,-16.00,-20.00
-35.00,-35.00,+0.00,-7.00,-76.00,-28.00,+0.00,-1.00,-69.00,-73.00,-17.00,+16.00,+7.00,-27.00,-74.00,-64.00
+32.00,+5.00,+0.00,+1.00,-26.00,-5.00,-6.00,-5.00,-52.00,-18.00,-19.00,-38.00,-31.00,-3.00,+27.00,-5.00
-9.00,+10.00,-4.00,+0.00,+33.00,+7.00,-6.00,-6.00,+0.00,+16.00,-4.00,-15.00,-6.00,+1.00,+11.00,+14.00
-6.00,+10.00,+3.00,+2.00,-10.00,+7.00,-3.00,-22.00,+48.00,-1.00,-4.00,-8.00,-7.00,+0.00,+18.00,+64.00
+14.00,-17.00,-4.00,+4.00,+28.00,+19.00,+9.00,+20.00,+64.00,+20.00,+5.00,-8.00,+2.00,+1.00,-4.00,+9.00
+4.00,-12.00,-5.00,-11.00,-20.00,-6.00,-4.00,+6.00,-16.00,+11.00,+9.00,+11.00,-1.00,-7.00,-19.00,-16.00
+27.00,+6.00,+0.00,-3.00,-19.00,-8.00,+0.00,+20.00,+46.00,+37.00,+16.00,+27.00,+18.00,+6.00,-6.00,-14.00
-59.00,-18.00,-12.00,+0.00,-12.00,-17.00,-10.00,-36.00,-1.00,-18.00,-2.00,+8.00,+9.00,+3.00,+4.00,-14.00
+70.00,+64.00,+12.00,-1.00,-23.00,-1.00,+7.00,+37.00,-77.00,+30.00,-3.00,-30.00,-21.00,-10.00,-24.00,-61.00
-19.00,+8.00,+6.00,+2.00,+11.00,+1.00,+0.00,-24.00,-64.00,-37.00,-9.00,+8.00,+9.00,+3.00,-9.00,+6.00
+0.00,-43.00,-8.00,+0.00,+26.00,+6.00,+0.00,+8.00,+62.00,+12.00,+6.00,-12.00,-10.00,+11.00,+30.00,+18.00
-41.00,-27.00,-11.00,-7.00,+9.00,-2.00,-10.00,-7.00,-18.00,-18.00,-10.00,+6.00,+6.00,-2.00,-5.00,-31.00
+28.00,+39.00,+0.00,+2.00,+40.00,+18.00,+5.00,-10.00,+23.00,+4.00,-8.00,-26.00,-18.00,+1.00,+20.00,+25.00
+50.00,+31.00,+8.00,-7.00,-87.00,-36.00,+2.00,+21.00,-24.00,-21.00,+0.00,+0.00,+7.00,-12.00,-33.00,-55.00
-40.00,-33.00,-13.00,-5.00,+24.00,-8.00,-12.00,-11.00,-36.00,+11.00,-9.00,-16.00,-13.00,+1.00,+6.00,+13.00
-16.00,-79.00,-10.00,-9.00,-22.00,+19.00,+12.00,+13.00,+39.00,+2.00,+2.00,+8.00,+8.00,+8.00,+26.00,+67.00
+70.00,+69.00,+21.00,+1.00,+7.00,-6.00,+4.00,+33.00,+80.00,+14.00,+8.00,+8.00,+10.00,+9.00,+10.00,+20.00
-67.00,-24.00,-2.00,+12.00,+11.00,+7.00,-3.00,-23.00,-32.00,-22.00,-3.00,-5.00,-2.00,-10.00,-25.00,-51.00
+98.00,+14.00,+10.00,+3.00,+15.00,+7.00,-1.00,+24.00,-49.00,-50.00,-1.00,+18.00,+9.00,+8.00,+15.00,+17.00
+5.00,+8.00,+0.00,+2.00,+12.00,-5.00,+1.00,+17.00,-26.00,+9.00,-3.00,+4.00,+7.00,+0.00,+7.00,-3.00
-52.00,-54.00,-15.00,-11.00,-56.00,-31.00,-12.00,-27.00,+51.00,+8.00,-4.00,-24.00,-13.00,-6.00,-10.00,+8.00
+35.00,+22.00,+12.00,+10.00,+71.00,+21.00,+9.00,+14.00,+94.00,-12.00,+10.00,+47.00,+24.00,+18.00,+14.00,+6.00
-61.00,-6.00,-5.00,+1.00,+2.00,+2.00,+4.00,+2.00,-96.00,+47.00,+2.00,-32.00,-23.00,-12.00,+0.00,+35.00
+26.00,-22.00,+1.00,+4.00,-20.00,+12.00,+0.00,-13.00,+58.00,+33.00,-4.00,-43.00,-29.00,-12.00,-18.00,-5.00
+26.00,+43.00,+5.00,-2.00,-43.00,-31.00,+1.00,+6.00,-56.00,-6.00,+7.00,+22.00,+15.00,+5.00,+13.00,-41.00
-50.00,-4.00,-12.00,-2.00,+29.00,+6.00,-12.00,-29.00,+45.00,+12.00,-22.00,-82.00,-43.00,-9.00,+26.00,+88.00
+29.00,+14.00,+2.00,+3.00,-10.00,+5.00,+0.00,-8.00,+17.00,-20.00,-3.00,+23.00,+9.00,-6.00,-33.00,-77.00
+0.00,+18.00,+2.00,+2.00,+35.00,-5.00,+4.00,+19.00,+15.00,+10.00,+0.00,-12.00,-4.00,+11.00,+20.00,+1.00
-37.00,-50.00,-6.00,+4.00,-22.00,+5.00,-2.00,-13.00,-31.00,-8.00,-1.00,+0.00,+3.00,+1.00,-18.00,+6.00
-1.00,-2.00,-4.00,-4.00,-18.00,-3.00,+5.00,+13.00,-21.00,+8.00,+20.00,+52.00,+27.00,+13.00,+13.00,-30.00
+39.00,+26.00,-4.00,-3.00,+23.00,+13.00,+0.00,+7.00,-31.00,-10.00,-6.00,-1.00,+1.00,-11.00,-2.00,-2.00
+47.00,+47.00,+24.00,+26.00,+42.00,+31.00,+22.00,+42.00,-15.00,+5.00,-2.00,-25.00,-8.00,-13.00,-34.00,-38.00
-84.00,-25.00,-9.00,-6.00,-9.00,-13.00,-13.00,-33.00,-5.00,-31.00,-5.00,+12.00,-4.00,+0.00,+9.00,+0.00
+78.00,-54.00,-16.00,-21.00,-41.00,-22.00,-13.00,-12.00,-13.00,+25.00,+5.00,+12.00,+6.00,-3.00,-14.00,-5.00
-16.00,-29.00,+6.00,-4.00,+2.00,+1.00,+7.00,+15.00,+43.00,+16.00,+13.00,+40.00,+14.00,+4.00,+6.00,+11.00
+6.00,+87.00,+18.00,+1.00,+63.00,+7.00,-1.00,+4.00,-25.00,-15.00,-8.00,-4.00,-2.00,-7.00,-11.00,-18.00
+51.00,+0.00,+1.00,-2.00,-61.00,-20.00,+1.00,-1.00,-54.00,-25.00,-6.00,+2.00,+0.00,+4.00,+10.00,-34.00
+24.00,+27.00,+9.00,+4.00,+9.00,+10.00,+3.00,+8.00,-6.00,-1.00,+6.00,-9.00,-4.00,+10.00,+22.00,+54.00
-51.00,-44.00,-12.00,-7.00,-25.00,-3.00,-1.00,-15.00,+27.00,+13.00,+7.00,+13.00,+5.00,-5.00,-13.00,+4.00
+7.00,+11.00,+0.00,+1.00,-32.00,-17.00,-4.00,-6.00,-9.00,-37.00,-19.00,-26.00,+1.00,+2.00,+15.00,-73.00
-40.00,-59.00,-3.00,+10.00,+95.00,+40.00,-2.00,-5.00,+122.00,+32.00,+15.00,+30.00,+3.00,+2.00,+24.00,+97.00
+2.00,+7.00,-7.00,-12.00,-64.00,-23.00,-2.00,-2.00,-87.00,-2.00,+5.00,-12.00,-10.00,-4.00,-8.00,-8.00
+23.00,+19.00,+6.00,+6.00,-9.00,-10.00,+1.00,-4.00,-26.00,+2.00,-14.00,-56.00,-24.00,-4.00,-3.00,-38.00
-59.00,-56.00,-18.00,-17.00,+3.00,-8.00,-8.00,-24.00,-24.00,+6.00,+8.00,+37.00,+4.00,+6.00,+15.00,+10.00
-26.00,+6.00,+2.00,-9.00,-21.00,+5.00,+5.00,+4.00,+52.00,+15.00,-1.00,-8.00,-5.00,-4.00,-4.00,+19.00
+4.00,+4.00,+5.00,+14.00,+31.00,+4.00,-7.00,+1.00,+67.00,+18.00,+7.00,+7.00,+6.00,+7.00,+18.00,+28.00
+1.00,-45.00,-4.00,-3.00,-30.00,-9.00,-5.00,-6.00,-9.00,-27.00,+0.00,+6.00,-2.00,+0.00,-20.00,-41.00
+14.00,+52.00,+17.00,+13.00,+39.00,+20.00,+5.00,+1.00,-23.00,-2.00,-5.00,+5.00,+7.00,-5.00,-14.00,-12.00
+52.00,-3.00,-3.00,-5.00,-35.00,-12.00,-7.00,-2.00,-40.00,+4.00,+7.00,-9.00,-2.00,+1.00,+0.00,-18.00
-41.00,-30.00,-7.00,-5.00,-11.00,-5.00,-2.00,-11.00,-15.00,-35.00,-14.00,-4.00,-9.00,-13.00,-38.00,-65.00
+3.00,+53.00,+9.00,+4.00,+37.00,+17.00,-3.00,-13.00,+39.00,+26.00,-3.00,-14.00,-14.00,-4.00,+5.00,+66.00
-43.00,-85.00,-15.00,-9.00,-66.00,-33.00,-14.00,-8.00,-35.00,-6.00,+8.00,-42.00,-20.00,-8.00,-11.00,-33.00
+12.00,+29.00,+0.00,-1.00,+45.00,+1.00,-1.00,-13.00,+11.00,+29.00,+9.00,+56.00,+27.00,+8.00,+7.00,-5.00
-44.00,+21.00,-3.00,-2.00,-2.00,+20.00,+7.00,+12.00,+6.00,+37.00,+18.00,+24.00,+11.00,+9.00,+17.00,+31.00
+33.00,+8.00,+3.00,+2.00,+13.00,+6.00,+2.00,+3.00,-43.00,-13.00,-9.00,+17.00,+1.00,-8.00,-20.00,-71.00
-3.00,-5.00,-4.00,-5.00,-41.00,-9.00,-8.00,-23.00,-7.00,-29.00,-14.00,+7.00,+6.00,-8.00,-14.00,+20.00
-8.00,-9.00,+4.00,+13.00,+71.00,+34.00,+6.00,+7.00,-47.00,+21.00,+7.00,-5.00,-1.00,-1.00,+7.00,+26.00
+23.00,-11.00,-3.00,-13.00,-67.00,-32.00,-11.00,-7.00,+73.00,+36.00,-8.00,-35.00,-14.00,-14.00,-15.00,+2.00
+23.00,+12.00,-4.00,+2.00,+38.00,+3.00,-8.00,-3.00,-83.00,-49.00,-8.00,+6.00,+5.00,-6.00,-17.00,-84.00
-19.00,-29.00,-12.00,-8.00,-24.00,-18.00,-1.00,-15.00,+44.00,+24.00,+10.00,+0.00,-10.00,+1.00,+4.00,+59.00
+5.00,-20.00,-6.00,+5.00,+63.00,+20.00,-2.00,-6.00,-67.00,-50.00,-27.00,-30.00,-11.00,-4.00,-12.00,-85.00
-7.00,+66.00,+10.00,-1.00,-55.00,-9.00,+3.00,-6.00,-18.00,+16.00,+2.00,+28.00,+7.00,-4.00,-8.00,+34.00
+8.00,+21.00,+3.00,-5.00,-10.00,-4.00,-3.00,+6.00,+56.00,+30.00,-1.00,-20.00,-12.00,+2.00,+9.00,+15.00
+14.00,-29.00,-1.00,+3.00,-20.00,-7.00,-2.00,-8.00,+36.00,-2.00,-8.00,-3.00,+10.00,+2.00,+9.00,-17.00
-19.00,+30.00,-5.00,-3.00,+30.00,+7.00,-6.00,-4.00,-24.00,-21.00,+8.00,-9.00,-3.00,-4.00,-8.00,-10.00
+0.00,-38.00,-4.00,+7.00,+32.00,+4.00,-3.00,-2.00,+12.00,-25.00,-11.00,-21.00,-10.00,-7.00,+0.00,+25.00
-10.00,-14.00,-5.00,-12.00,-32.00,-15.00,-2.00,+8.00,+23.00,+22.00,+1.00,-3.00,+0.00,+4.00,+2.00,+5.00
+3.00,-14.00,-3.00,-3.00,-17.00,-7.00,+0.00,+1.00,-107.00,-30.00,-3.00,-18.00,-15.00,-8.00,-17.00,-11.00
-24.00,+2.00,-9.00,-7.00,+13.00,+6.00,-3.00,-3.00,+44.00,+32.00,-2.00,-13.00,-2.00,+2.00,+21.00,+39.00
+30.00,-14.00,+4.00,-2.00,+16.00,+9.00,+8.00,+18.00,+18.00,-33.00,+1.00,+13.00,+11.00,+5.00,+5.00,-22.00
+61.00,+44.00,+3.00,-5.00,-37.00,-18.00,+0.00,-3.00,-65.00,-29.00,+1.00,+12.00,+3.00,-4.00,-7.00,+22.00
-34.00,-4.00,-2.00,+0.00,+27.00,+9.00,-4.00,-11.00,-2.00,+28.00,-2.00,+1.00,+4.00,+0.00,-18.00,-70.00
-11.00,-20.00,+0.00,+0.00,-37.00,-18.00,+2.00,+10.00,-5.00,-21.00,-13.00,+7.00,-1.00,-7.00,-6.00,-1.00
+19.00,+44.00,+3.00,+2.00,+9.00,+8.00,+3.00,+11.00,+41.00,+28.00,+2.00,-19.00,-11.00,+0.00,+6.00,+17.00
-55.00,-58.00,-10.00,-1.00,+10.00,-4.00,-2.00,-4.00,-51.00,-30.00,-8.00,-1.00,-5.00,-7.00,-20.00,-41.00
+44.00,+33.00,+2.00,-7.00,+9.00,+5.00,-1.00,+14.00,+12.00,+28.00,+29.00,+45.00,+15.00,+12.00,+24.00,+6.00
+33.00,+27.00,-2.00,-14.00,-10.00,-16.00,-7.00,-19.00,-73.00,-43.00,-26.00,-44.00,-22.00,-15.00,-16.00,-33.00
-37.00,-28.00,-7.00,-5.00,-20.00,+2.00,+1.00,+1.00,+1.00,-8.00,-7.00,+0.00,+0.00,+2.00,+2.00,+4.00
+13.00,+2.00,+7.00,+14.00,+81.00,+26.00,+11.00,-4.00,+75.00,+13.00,+13.00,+25.00,+21.00,+10.00,+25.00,+50.00
+14.00,+31.00,+3.00,-10.00,-92.00,-28.00,-5.00,+3.00,-79.00,-11.00,-8.00,-3.00,-4.00,-4.00,-17.00,-26.00
-45.00,-45.00,-6.00,+7.00,+0.00,+2.00,+3.00,+1.00,+70.00,+17.00,+7.00,+26.00,+8.00,+1.00,-6.00,-14.00
+23.00,-22.00,-2.00,+1.00,+6.00,+10.00,-1.00,+2.00,-39.00,+10.00,+12.00,+27.00,+3.00,+8.00,+14.00,-27.00
+5.00,+45.00,+10.00,+7.00,+24.00,+3.00,-5.00,-6.00,-51.00,-33.00,-18.00,-31.00,-14.00,-3.00,+10.00,-24.00
-20.00,+5.00,+8.00,+12.00,+58.00,+26.00,+11.00,+13.00,+23.00,-35.00,-20.00,-29.00,-14.00,-3.00,+10.00,+65.00
-9.00,-31.00,-6.00,-5.00,-29.00,-8.00,-3.00,+4.00,+22.00,+12.00,+6.00,+18.00,+4.00,+9.00,+3.00,+32.00
-1.00,+15.00,-9.00,-13.00,-20.00,-20.00,-15.00,-28.00,-54.00,-13.00,-9.00,+20.00,+14.00,-6.00,-13.00,-28.00
-8.00,-10.00,+4.00,+8.00,-20.00,+1.00,+1.00,+12.00,+87.00,+10.00,+5.00,+2.00,+1.00,-1.00,-10.00,+23.00
-26.00,-3.00,-3.00,+4.00,+16.00,+14.00,+5.00,-1.00,+21.00,+15.00,+3.00,+6.00,+5.00,+6.00,+4.00,-27.00
+52.00,+11.00,+7.00,+5.00,+5.00,-10.00,+3.00,+18.00,-70.00,-26.00,-4.00,-7.00,+4.00,+0.00,-4.00,-21.00
-1.00,-7.00,-1.00,-3.00,-26.00,-4.00,-5.00,-9.00,+32.00,+11.00,+24.00,+49.00,+17.00,+11.00,+11.00,+39.00
-5.00,-3.00,+3.00,+1.00,+11.00,+3.00,+10.00,+19.00,+26.00,+25.00,+2.00,-1.00,+7.00,-3.00,+1.00,+17.00
-26.00,-3.00,-3.00,-5.00,-17.00,+3.00,-7.00,-21.00,-61.00,-32.00,-21.00,-16.00,-9.00,-15.00,-27.00,-45.00
-4.00,+15.00,-1.00,+2.00,-6.00,-12.00,-5.00,-8.00,+57.00,+25.00,+8.00,-2.00,+0.00,+4.00,+17.00,+35.00
-10.00,+3.00,-3.00,+6.00,+39.00,+17.00,+2.00,+3.00,+24.00,+9.00,-3.00,+1.00,+2.00,-2.00,-18.00,-18.00
-3.00,-8.00,-7.00,-8.00,-25.00,-16.00,-3.00,-2.00,-46.00,-16.00,+4.00,-4.00,-2.00,-1.00,+11.00,+23.00
-5.00,-54.00,-6.00,+2.00,+28.00,+5.00,-7.00,-16.00,+0.00,+3.00,+1.00,+11.00,+3.00,+3.00,+2.00,-28.00
+50.00,+88.00,+11.00,-13.00,-43.00,-4.00,+8.00,+44.00,+66.00,+50.00,+14.00,+17.00,+8.00,+7.00,+4.00,+7.00
+2.00,+8.00,+3.00,-1.00,+3.00,+5.00,+8.00,+14.00,-10.00,+5.00,+0.00,-1.00,-8.00,-8.00,+2.00,+15.00
+9.00,-17.00,-12.00,-5.00,+28.00,+14.00,+0.00,+6.00,-65.00,-9.00,-15.00,-19.00,-13.00,-10.00,-16.00,-30.00
+15.00,+4.00,+2.00,-5.00,-41.00,-35.00,-6.00,+2.00,+13.00,-13.00,-10.00,-35.00,-19.00,-4.00,+2.00,+14.00
-51.00,-28.00,-5.00,+2.00,+19.00,+5.00,+2.00,-26.00,-41.00,-11.00,-2.00,-1.00,+3.00,-2.00,-5.00,-6.00
-8.00,+26.00,+3.00,-6.00,+8.00,-13.00,-2.00,+2.00,+29.00,-26.00,-3.00,-8.00,+6.00,-1.00,-10.00,-22.00
+7.00,-9.00,+3.00,-3.00,+7.00,-2.00,-2.00,+17.00,-4.00,+11.00,+0.00,-13.00,-14.00,+2.00,+17.00,+4.00
-27.00,-25.00,-20.00,-12.00,+5.00,-4.00,-10.00,-25.00,+69.00,+21.00,+13.00,+24.00,+0.00,+5.00,+17.00,+72.00
-7.00,+31.00,+14.00,+17.00,-19.00,+19.00,+6.00,+1.00,-35.00,+0.00,-5.00,-8.00,-5.00,+1.00,+3.00,-15.00
+14.00,-30.00,-3.00,-4.00,-8.00,-4.00,+1.00,+18.00,+48.00,+17.00,-9.00,-20.00,-6.00,-3.00,+10.00,+38.00
-41.00,-8.00,-7.00,+4.00,+19.00,+3.00,+9.00,-16.00,-72.00,-43.00,-12.00,-12.00,+1.00,-9.00,-34.00,-84.00
+59.00,+26.00,+7.00,+2.00,-33.00,-9.00,+6.00,+16.00,+65.00,+34.00,+13.00,+33.00,+22.00,+2.00,+3.00,+46.00
-32.00,-54.00,-12.00,-5.00,+22.00,+9.00,-8.00,-7.00,-77.00,-28.00,-6.00,-32.00,-19.00,-6.00,-13.00,-49.00
-9.00,+21.00,+2.00,+1.00,+57.00,+9.00,-4.00,-8.00,-91.00,-51.00,-30.00,-53.00,-36.00,-14.00,-22.00,-68.00
-30.00,-19.00,-9.00,-11.00,-37.00,-25.00,-8.00,-11.00,+124.00,+45.00,+23.00,+7.00,+6.00,+19.00,+53.00,+118.00
+68.00,+46.00,+14.00,+11.00,-3.00,+10.00,+21.00,+60.00,+15.00,+33.00,-2.00,+10.00,+2.00,-10.00,-7.00,-41.00
-33.00,-36.00,-11.00,-2.00,+3.00,-2.00,-9.00,-35.00,+19.00,-14.00,-5.00,+2.00,+6.00,-6.00,-16.00,+5.00
+58.00,+8.00,+8.00,+7.00,+26.00,+8.00,-2.00,-4.00,-45.00,-20.00,-1.00,-9.00,+4.00,+2.00,+2.00,-33.00
-38.00,+5.00,+3.00,+3.00,-24.00,+5.00,-3.00,-10.00,-35.00,-50.00,-14.00,+11.00,-2.00,-7.00,-17.00,-21.00
+15.00,+15.00,+5.00,-1.00,-17.00,-12.00,+5.00,+7.00,-33.00,+2.00,+12.00,+36.00,+14.00,+8.00,+3.00,-10.00
+0.00,-20.00,-3.00,+7.00,+24.00,+6.00,+0.00,+7.00,+66.00,+3.00,-2.00,-23.00,-9.00,-5.00,-1.00,+45.00
-7.00,-38.00,-11.00,-10.00,-59.00,-48.00,-10.00,-4.00,-15.00,+13.00,+10.00,+5.00,+7.00,+18.00,+27.00,+11.00
-32.00,+4.00,+9.00,+19.00,+62.00,+46.00,+6.00,-8.00,+62.00,+11.00,+17.00,+37.00,+18.00,+2.00,-4.00,+26.00
-41.00,-12.00,-9.00,+4.00,+8.00,+17.00,-9.00,-39.00,-11.00,-2.00,+0.00,-5.00,+3.00,+6.00,+18.00,-33.00
+45.00,+0.00,+4.00,-12.00,-13.00,+0.00,-8.00,+7.00,-33.00,-3.00,-13.00,-35.00,-26.00,-12.00,-25.00,-9.00
-14.00,-12.00,+2.00,+5.00,-33.00,-5.00,+22.00,+7.00,+91.00,+30.00,+0.00,+6.00,-3.00,+6.00,+35.00,+85.00
+21.00,+20.00,+0.00,+1.00,+21.00,+2.00,-6.00,+1.00,+12.00,+4.00,+3.00,+18.00,+24.00,+9.00,+3.00,+2.00
-48.00,-35.00,-11.00,-5.00,-13.00,-8.00,+0.00,-14.00,-62.00,-29.00,-11.00,+2.00,+35.00,+1.00,-21.00,-80.00
-35.00,-16.00,+6.00,+13.00,+34.00,+8.00,-9.00,-31.00,+71.00,+22.00,+21.00,+5.00,+7.00,+8.00,+19.00,+90.00
+7.00,-7.00,+6.00,+4.00,+40.00,+2.00,+9.00,+20.00,-39.00,-4.00,-10.00,-57.00,-98.00,-32.00,-26.00,-16.00
+29.00,+15.00,-3.00,-23.00,-98.00,-5.00,-8.00,-6.00,-25.00,-8.00,-4.00,+6.00,+5.00,+2.00,+17.00,-31.00
-19.00,-3.00,+2.00,+7.00,+32.00,+1.00,-2.00,-2.00,+31.00,-2.00,-2.00,-14.00,-2.00,-2.00,-6.00,+25.00
-39.00,+38.00,-5.00,-5.00,-33.00,-24.00,-11.00,-19.00,+59.00,+24.00,-3.00,+1.00,+32.00,+10.00,+24.00,+57.00
+15.00,-16.00,-8.00,-5.00,+13.00,+0.00,-4.00,+7.00,-69.00,-16.00,+2.00,+30.00,+11.00,-10.00,-35.00,-57.00
+11.00,+14.00,+10.00,+16.00,+0.00,+0.00,+16.00,+26.00,-19.00,+8.00,-7.00,-43.00,-28.00,-13.00,-28.00,-70.00
-4.00,-31.00,+0.00,-10.00,-3.00,+7.00,-5.00,-17.00,+62.00,-14.00,-7.00,+30.00,+4.00,+4.00,+14.00,+65.00
-21.00,-25.00,-17.00,-9.00,+0.00,-7.00,-2.00,-5.00,-54.00,-12.00,-7.00,-2.00,-3.00,-3.00,-7.00,-70.00
+90.00,+68.00,+15.00,+1.00,+4.00,+18.00,+3.00,+12.00,+84.00,+37.00,+6.00,-19.00,-2.00,-6.00,-5.00,+66.00
-24.00,-8.00,-8.00,-4.00,+6.00,-14.00,-7.00,+2.00,-60.00,-26.00,-6.00,+23.00,+7.00,+2.00,-8.00,+1.00
+0.00,+21.00,-1.00,+0.00,-29.00,+9.00,+0.00,+6.00,-62.00,-16.00,-5.00,-16.00,-10.00,-9.00,-20.00,-95.00
-17.00,-26.00,+1.00,-3.00,-20.00,-16.00,-2.00,-14.00,+86.00,+32.00,+27.00,+39.00,+10.00,+15.00,+40.00,+103.00
-68.00,-33.00,-14.00,-2.00,+37.00,+13.00,-7.00,-16.00,+45.00,+10.00,-7.00,-1.00,+8.00,+5.00,+7.00,+12.00
+63.00,+17.00,+1.00,+1.00,-13.00,-13.00,-2.00,-1.00,-64.00,-9.00,-8.00,-6.00,-4.00,-14.00,-40.00,-57.00
-30.00,-14.00,+12.00,+11.00,+42.00,+14.00,+13.00,+20.00,+64.00,+19.00,+11.00,+0.00,+1.00,+16.00,+46.00,+71.00
+31.00,+85.00,+9.00,+4.00,+0.00,-2.00,+5.00,+20.00,-77.00,-22.00,-7.00,+2.00,-17.00,-11.00,-18.00,-59.00
-14.00,-12.00,-3.00,-6.00,-22.00,-7.00,-6.00,-5.00,-29.00,-18.00,+3.00,+20.00,+13.00,+5.00,-3.00,-42.00
+13.00,-40.00,-11.00,-6.00,+0.00,-26.00,-10.00,-12.00,+46.00,+69.00,+23.00,+42.00,+30.00,+3.00,-2.00,+13.00
-25.00,-3.00,-9.00,-7.00,+27.00,+11.00,-7.00,-8.00,-4.00,+9.00,-10.00,-48.00,-33.00,-14.00,-17.00,+24.00
-3.00,-62.00,-9.00,-6.00,-1.00,+2.00,+11.00,+39.00,+35.00,+16.00,-12.00,-17.00,-11.00,-4.00,+11.00,-26.00
+24.00,+41.00,+6.00,+3.00,-11.00,+2.00,-7.00,-22.00,+14.00,+25.00,+13.00,+22.00,+20.00,+11.00,+20.00,+52.00
+45.00,+32.00,+14.00,+10.00,+46.00,+18.00,+17.00,+45.00,-1.00,-20.00,-6.00,-16.00,-12.00,+9.00,+21.00,+20.00
+15.00,-3.00,-11.00,-17.00,-77.00,-36.00,-2.00,+2.00,+31.00,-2.00,-6.00,-28.00,-20.00,-3.00,+4.00,+20.00
+5.00,+38.00,+4.00,+4.00,+38.00,+38.00,-2.00,-23.00,-115.00,-82.00,-19.00,-20.00,+6.00,-12.00,-43.00,-110.00
-38.00,-2.00,+4.00,+2.00,-26.00,-8.00,+2.00,-2.00,+43.00,+32.00,+7.00,-5.00,-1.00,+12.00,+5.00,-11.00
-39.00,-42.00,-7.00,-12.00,+7.00,+2.00,-5.00,-16.00,+52.00,+1.00,+5.00,+2.00,-16.00,-6.00,-2.00,+11.00
+16.00,+15.00,+3.00,+13.00,+33.00,+10.00,-3.00,+1.00,-89.00,-19.00,-2.00,+0.00,-9.00,-7.00,-8.00,-37.00
-5.00,-41.00,-6.00,-6.00,-61.00,-20.00,-1.00,+2.00,+69.00,+21.00,+12.00,+15.00,+11.00,+23.00,+32.00,+80.00
-23.00,-17.00,-1.00,+8.00,+29.00,+14.00,-12.00,-25.00,-25.00,-21.00,-14.00,-9.00,+15.00,-11.00,-25.00,-76.00
-24.00,+50.00,+1.00,-3.00,-32.00,-13.00,+5.00,-18.00,-5.00,+20.00,+5.00,-26.00,-15.00,-3.00,+7.00,+24.00
+29.00,+13.00,+8.00,+2.00,+21.00,+0.00,-1.00,+13.00,+48.00,+0.00,+6.00,+14.00,+9.00,+6.00,+12.00,+33.00
+8.00,+0.00,-9.00,-6.00,+14.00,-1.00,+0.00,-2.00,-37.00,-10.00,-2.00,+27.00,+7.00,-5.00,-9.00,-16.00
-33.00,-20.00,-7.00,+0.00,-7.00,-2.00,-7.00,-16.00,-35.00,-10.00,-4.00,-9.00,-18.00,-3.00,-3.00,-12.00
-25.00,-22.00,+10.00,+12.00,+18.00,+6.00,+9.00,+11.00,+4.00,-44.00,-13.00,+5.00,+16.00,-2.00,-9.00,-13.00
+65.00,+52.00,+9.00,-1.00,-13.00,+9.00,+0.00,+8.00,-56.00,+12.00,+3.00,+7.00,+3.00,+2.00,-10.00,-43.00
-30.00,-11.00,+1.00,-2.00,-18.00,-13.00,+1.00,+2.00,-81.00,-38.00,-3.00,+9.00,+5.00,-13.00,-27.00,-21.00
+13.00,-27.00,-11.00,-9.00,-1.00,+10.00,-1.00,-10.00,+45.00,+59.00,+14.00,+4.00,+8.00,+3.00,+18.00,+30.00
+20.00,+30.00,+6.00,+8.00,+10.00,-12.00,-7.00,-8.00,+15.00,+2.00,-8.00,-13.00,-11.00,-6.00,+3.00,+30.00
-3.00,-8.00,-2.00,-3.00,-17.00,+0.00,-2.00,+3.00,-49.00,-3.00,-6.00,-7.00,-1.00,-4.00,-11.00,-14.00
+10.00,-42.00,-4.00,+7.00,+13.00,+0.00,-3.00,+2.00,+67.00,+38.00,+15.00,+21.00,+4.00,+3.00,+6.00,+17.00
-20.00,+62.00,+6.00,-7.00,-11.00,-7.00,+3.00,+6.00,-91.00,-27.00,-8.00,+8.00,+4.00,-2.00,-11.00,-35.00
+10.00,-20.00,+1.00,+13.00,+30.00,+31.00,-11.00,-10.00,+49.00,+18.00,+3.00,+14.00,+5.00,+2.00,+9.00,+61.00
+34.00,+5.00,+0.00,-5.00,-25.00,-28.00,+6.00,-12.00,-25.00,-9.00,-5.00,-3.00,-5.00,-7.00,-20.00,-68.00
-22.00,+6.00,+3.00,+0.00,+12.00,-14.00,+8.00,+12.00,+4.00,+34.00,+14.00,+16.00,+21.00,+10.00,+32.00,+53.00
+12.00,-35.00,-9.00,-7.00,-23.00,+2.00,+5.00,+9.00,+24.00,-5.00,-5.00,-22.00,-14.00,-2.00,+7.00,+22.00
-2.00,-19.00,-8.00,-11.00,+10.00,+17.00,-7.00,-5.00,+25.00,+14.00,-7.00,-30.00,-20.00,-5.00,-12.00,-66.00
-61.00,+0.00,-5.00,+6.00,+37.00,+38.00,-1.00,-3.00,+27.00,+1.00,-3.00,+13.00,-7.00,-3.00,+9.00,+88.00
+24.00,-15.00,-2.00,-5.00,+7.00,+1.00,-7.00,-17.00,-6.00,+4.00,-1.00,+5.00,+0.00,+4.00,-2.00,-45.00
-14.00,+17.00,+0.00,+0.00,+11.00,+3.00,+3.00,-1.00,-106.00,-62.00,-20.00,-20.00,-6.00,-15.00,-23.00,-83.00
-41.00,-31.00,-11.00,-16.00,-53.00,-35.00,-4.00,+5.00,+44.00,+10.00,+9.00,+34.00,+39.00,+11.00,+11.00,+65.00
+12.00,-17.00,-9.00,-7.00,-16.00,-7.00,-9.00,-19.00,+25.00,-13.00,-12.00,-13.00,+4.00,+0.00,+2.00,-33.00
+10.00,+50.00,+6.00,-3.00,+15.00,+4.00,-4.00,+11.00,-40.00,-9.00,-5.00,-10.00,-17.00,-9.00,-11.00,-33.00
-1.00,-24.00,-1.00,+10.00,+38.00,+2.00,+13.00,+31.00,-16.00,+3.00,+8.00,+1.00,-49.00,-14.00,-20.00,-27.00
-14.00,-6.00,-5.00,-9.00,-37.00,-2.00,-3.00,-26.00,+5.00,-2.00,-10.00,-9.00,-18.00,-9.00,+2.00,-19.00
-54.00,-40.00,-14.00,-6.00,-39.00,-25.00,-11.00,-18.00,-56.00,-53.00,-4.00,+0.00,+4.00,-1.00,-8.00,+10.00
-46.00,-13.00,+8.00,+5.00,+7.00,+10.00,+3.00,+5.00,+43.00,+24.00,-5.00,-8.00,+13.00,-4.00,-9.00,+12.00
+38.00,+33.00,+13.00,+9.00,+17.00,+5.00,+22.00,+47.00,-78.00,-56.00,-7.00,+9.00,+27.00,+2.00,-17.00,-89.00
-34.00,-72.00,-18.00,-1.00,-24.00,-13.00,-5.00,-22.00,-4.00,+24.00,-13.00,-58.00,-35.00,-9.00,-11.00,+68.00
+29.00,+94.00,+8.00,-5.00,+18.00,+6.00,+6.00,+4.00,+75.00,+0.00,+19.00,+21.00,+11.00,+5.00,+23.00,+38.00
-8.00,-18.00,-7.00,-2.00,+3.00,+6.00,-7.00,-17.00,-10.00,-28.00,-7.00,+5.00,-3.00,+0.00,+3.00,-10.00
-3.00,-2.00,+0.00,+1.00,-6.00,+1.00,-9.00,-21.00,-15.00,+9.00,+2.00,+3.00,+9.00,-10.00,-23.00,-52.00
+12.00,-10.00,+4.00,-6.00,+7.00,-7.00,-2.00,-1.00,-42.00,-44.00,+0.00,+21.00,+11.00,+17.00,+0.00,+8.00
+71.00,+34.00,+8.00,+0.00,+0.00,-12.00,+0.00,+50.00,+70.00,+40.00,+15.00,+14.00,+10.00,+3.00,+6.00,+41.00
-7.00,-2.00,-1.00,-6.00,-12.00,+17.00,+5.00,-6.00,-19.00,-6.00,+12.00,+12.00,+0.00,+3.00,-21.00,-57.00
-53.00,-20.00,-12.00,-9.00,+8.00,-2.00,-8.00,-17.00,-44.00,-41.00,-11.00,-22.00,-14.00,-1.00,+18.00,+25.00
-19.00,-28.00,+1.00,-3.00,-30.00,-26.00,-6.00,-16.00,+82.00,+12.00,+4.00,+10.00,+7.00,+8.00,+28.00,+33.00
+14.00,+17.00,+0.00,+2.00,+8.00,-10.00,-3.00,-4.00,-106.00,-47.00,-1.00,+18.00,+2.00,-4.00,-23.00,-70.00
+28.00,+6.00,-6.00,-2.00,+15.00,+10.00,-9.00,-33.00,+112.00,+72.00,-7.00,-43.00,-27.00,-9.00,+10.00,+40.00
+5.00,-23.00,-1.00,-2.00,-37.00,-3.00,-2.00,+16.00,+47.00,+35.00,+0.00,+6.00,+23.00,+11.00,+1.00,+55.00
+1.00,+60.00,+10.00,+4.00,+10.00,+16.00,+6.00,+19.00,-30.00,-8.00,+1.00,+15.00,-13.00,-8.00,-13.00,-68.00
+2.00,-42.00,-9.00,-2.00,-15.00,-19.00,-6.00,-10.00,+30.00,+12.00,-9.00,-50.00,-43.00,-16.00,-4.00,+27.00
-39.00,-21.00,-10.00,-4.00,+7.00,-3.00,+1.00,+2.00,-46.00,-30.00,-18.00,-13.00,-8.00,-11.00,-20.00,-57.00
-8.00,+4.00,-4.00,-1.00,-8.00,-2.00,-10.00,-21.00,-11.00,+17.00,-1.00,+8.00,+41.00,+6.00,+1.00,+38.00
+55.00,+21.00,+4.00,-6.00,-4.00,-10.00,+6.00,+22.00,-66.00,-14.00,-1.00,-8.00,-29.00,-4.00,+6.00,-41.00
-32.00,+4.00,+7.00,+7.00,+12.00,+17.00,+9.00,+9.00,+24.00,+20.00,-4.00,+8.00,+7.00,-8.00,-19.00,-37.00
-5.00,-18.00,-8.00,-6.00,+6.00,-10.00,-5.00,-10.00,-4.00,-15.00,+10.00,+12.00,-13.00,+9.00,+8.00,+56.00
-45.00,-51.00,-13.00,-5.00,-3.00,-5.00,-11.00,-26.00,-9.00,-31.00,-7.00,-4.00,+4.00,+1.00,+13.00,+24.00
+71.00,+71.00,+9.00,+9.00,+41.00,+23.00,+6.00,+3.00,+0.00,-22.00,+3.00,-7.00,+1.00,-12.00,-30.00,-51.00
+53.00,+0.00,+6.00,+1.00,-45.00,-21.00,-14.00,+7.00,-78.00,-1.00,-2.00,+9.00,+4.00,+2.00,-12.00,-46.00
-44.00,-9.00,-1.00,-4.00,-1.00,-11.00,+5.00,+3.00,+47.00,+12.00,-6.00,+0.00,+0.00,+7.00,+34.00,+36.00
+19.00,+48.00,+11.00,+11.00,-3.00,+10.00,+7.00,+19.00,+56.00,-4.00,+9.00,+17.00,+5.00,+8.00,+11.00,+48.00
+18.00,-39.00,-17.00,-7.00,-3.00,+5.00,-10.00,-3.00,-60.00,+1.00,+0.00,+13.00,+6.00,-5.00,-11.00,-38.00
-54.00,-12.00,+6.00,+9.00,+5.00,+0.00,+15.00,-7.00,+39.00,+7.00,-8.00,-30.00,-14.00,-8.00,-14.00,-11.00
+32.00,+37.00,+9.00,-14.00,-44.00,-4.00,+0.00,+6.00,-60.00,-34.00,+2.00,+13.00,+16.00,+4.00,+14.00,+40.00
-11.00,-11.00,+1.00,+4.00,+8.00,-1.00,+0.00,-2.00,-36.00,+33.00,+15.00,+24.00,+8.00,+18.00,-6.00,-52.00
-23.00,-11.00,-7.00,-2.00,+10.00,+4.00,-8.00,-21.00,+61.00,-37.00,-8.00,+2.00,+10.00,+3.00,+21.00,+78.00
-14.00,-43.00,-8.00,-4.00,+10.00,+8.00,-2.00,-9.00,+22.00,+58.00,+17.00,-17.00,+13.00,+14.00,+19.00,+51.00
+50.00,+37.00,+14.00,+16.00,+11.00,-2.00,+6.00,+24.00,-30.00,-18.00,-5.00,-10.00,-22.00,-5.00,-16.00,-75.00
+36.00,+6.00,-2.00,-9.00,-20.00,-6.00,+10.00,+16.00,+80.00,+12.00,+4.00,+20.00,-9.00,-11.00,+14.00,+85.00
+15.00,+4.00,-3.00,-7.00,-16.00,-9.00,-3.00,+2.00,-47.00,-13.00,-31.00,-78.00,-31.00,-10.00,-9.00,-29.00
-20.00,+2.00,+3.00,+1.00,+21.00,+7.00,-1.00,-9.00,-40.00,-17.00,+1.00,+15.00,+10.00,-1.00,-20.00,-36.00
-31.00,-10.00,-1.00,+6.00,+2.00,+7.00,+5.00,+4.00,-27.00,-7.00,-4.00,+0.00,-4.00,-4.00,-11.00,-34.00
+5.00,-6.00,-6.00,-7.00,+1.00,-1.00,-12.00,-23.00,+14.00,-17.00,-12.00,-13.00,-3.00,-7.00,-11.00,-16.00
+33.00,+8.00,+0.00,+3.00,+18.00,-1.00,+1.00,+14.00,+13.00,+25.00,+19.00,+24.00,+14.00,+6.00,+16.00,+30.00
-124.00,-86.00,-29.00,-16.00,-26.00,-14.00,-12.00,-37.00,+82.00,-2.00,-11.00,+14.00,+5.00,+9.00,+32.00,+66.00
+101.00,+67.00,+27.00,+12.00,+30.00,+16.00,+12.00,+42.00,-56.00,-16.00,-18.00,-28.00,-20.00,-13.00,-17.00,-26.00
+10.00,+5.00,-3.00,-6.00,-56.00,-54.00,-11.00,-10.00,+29.00,+22.00,+6.00,+15.00,+6.00,+1.00,+3.00,+0.00
-70.00,-21.00,-4.00,+0.00,+26.00,+30.00,+5.00,-10.00,+4.00,+15.00,+7.00,+13.00,+9.00,-3.00,-15.00,-4.00
-45.00,-63.00,-12.00,+3.00,+7.00,+11.00,-12.00,-30.00,-42.00,-23.00,-8.00,-11.00,-16.00,-2.00,+9.00,-13.00
+48.00,+45.00,+10.00,+9.00,+20.00,+7.00,+25.00,+53.00,-54.00,-13.00,-1.00,+5.00,+8.00,+2.00,+0.00,-30.00
-5.00,+1.00,+1.00,-2.00,-2.00,-3.00,-1.00,+9.00,-14.00,-19.00,-21.00,-29.00,-15.00,-23.00,-53.00,-79.00
-18.00,+11.00,+4.00,+1.00,-3.00,-23.00,-3.00,-15.00,+17.00,+39.00,+24.00,+32.00,+24.00,+22.00,+42.00,+74.00
+11.00,-8.00,-8.00,-7.00,+2.00,+2.00,-4.00,-4.00,-54.00,-13.00,-6.00,+0.00,-1.00,-2.00,-15.00,-95.00
-41.00,-56.00,-14.00,-6.00,-24.00,-17.00,-18.00,-38.00,+116.00,+19.00,+1.00,-6.00,+15.00,+3.00,+15.00,+127.00
+22.00,+29.00,+11.00,+3.00,+13.00,+15.00,+3.00,+8.00,-99.00,-29.00,-10.00,-28.00,-53.00,-26.00,-29.00,-91.00
-36.00,-16.00,-8.00,+0.00,-7.00,-2.00,+3.00,+4.00,+50.00,-4.00,-4.00,-7.00,+6.00,+15.00,+35.00,+44.00
+35.00,+33.00,+7.00,+3.00,+30.00,+14.00,+2.00,+14.00,+47.00,+24.00,+0.00,-11.00,-13.00,+1.00,+5.00,+13.00
-4.00,-18.00,-6.00,-2.00,-21.00,-17.00,-7.00,-9.00,-11.00,-3.00,-5.00,-5.00,+3.00,-5.00,-9.00,-31.00
-6.00,+13.00,+2.00,+1.00,+11.00,+4.00,+0.00,-6.00,-15.00,-11.00,+5.00,+19.00,+34.00,+15.00,+6.00,-12.00
-2.00,+5.00,+3.00,+2.00,-35.00,-12.00,+0.00,+2.00,-35.00,-14.00,-2.00,+4.00,+3.00,-13.00,-27.00,-66.00
+39.00,+20.00,+2.00,+0.00,+16.00,+8.00,+4.00,+7.00,-3.00,-5.00,+0.00,+1.00,-18.00,-4.00,+5.00,+38.00
+19.00,-1.00,-4.00,-3.00,-8.00,-6.00,-8.00,-11.00,-5.00,-7.00,+3.00,+3.00,+4.00,-6.00,-12.00,-13.00
-23.00,-11.00,+0.00,+7.00,+10.00,+14.00,+12.00,+12.00,+67.00,+25.00,-4.00,-17.00,-7.00,+3.00,+24.00,+53.00
-40.00,-20.00,-8.00,-4.00,-3.00,-1.00,-4.00,-8.00,-24.00,-1.00,-5.00,-1.00,-4.00,-2.00,-10.00,-28.00
-66.00,-7.00,-6.00,+1.00,+4.00,-8.00,+3.00,-9.00,-6.00,-2.00,-1.00,-2.00,+9.00,-3.00,+2.00,+27.00
+81.00,+15.00,+1.00,-16.00,-31.00,-7.00,-2.00,+12.00,-13.00,+5.00,+16.00,+50.00,+18.00,+5.00,-2.00,-16.00
+28.00,-3.00,-2.00,-1.00,+17.00,+7.00,-4.00,-4.00,+23.00,+7.00,+2.00,+0.00,+7.00,+2.00,+9.00,+20.00
+12.00,+27.00,+11.00,+9.00,+2.00,-6.00,+11.00,+23.00,-82.00,-15.00,-8.00,-6.00,-23.00,-10.00,-20.00,-62.00
-4.00,+3.00,-2.00,-4.00,-15.00,-5.00,-2.00,+3.00,+80.00,+19.00,+10.00,-7.00,+1.00,+7.00,+19.00,+59.00
-58.00,-37.00,-12.00,-1.00,+9.00,+7.00,-15.00,-25.00,-5.00,+0.00,-3.00,-9.00,-12.00,-9.00,-22.00,-42.00
-14.00,-12.00,-3.00,-2.00,-1.00,-3.00,-9.00,-8.00,-6.00,+13.00,+16.00,+13.00,+15.00,+6.00,+2.00,+16.00
+4.00,+7.00,+1.00,-12.00,-20.00,-4.00,-4.00,-3.00,+72.00,+39.00,-8.00,+1.00,+1.00,+12.00,+27.00,+20.00
+13.00,-1.00,-2.00,+2.00,+9.00,-2.00,-2.00,-1.00,-93.00,-25.00,-8.00,-17.00,-12.00,-15.00,-23.00,-86.00
+11.00,+8.00,-1.00,+2.00,+14.00,+2.00,+1.00,+5.00,+71.00,+18.00,+4.00,-2.00,-10.00,+7.00,+28.00,+106.00
+22.00,+5.00,+1.00,-4.00,+0.00,-7.00,-1.00,-1.00,+5.00,+4.00,+2.00,+9.00,+17.00,+1.00,-2.00,-4.00
+0.00,-3.00,-2.00,+0.00,-12.00,-4.00,-2.00,-1.00,-29.00,-16.00,-4.00,-13.00,-26.00,-13.00,-24.00,-41.00
+11.00,+11.00,+0.00,-3.00,+4.00,+5.00,+0.00,+1.00,-16.00,-10.00,-3.00,+6.00,+5.00,+0.00,-1.00,-15.00
-29.00,-8.00,-4.00,-2.00,-4.00,-2.00,+0.00,-10.00,-8.00,+2.00,-10.00,-21.00,-6.00,-2.00,+4.00,-8.00
-45.00,-18.00,-4.00,+0.00,+7.00,+1.00,-4.00,-15.00,+15.00,-16.00,+2.00,+1.00,+2.00,+3.00,+1.00,-2.00
+55.00,+6.00,+1.00,+2.00,+2.00,+4.00,+0.00,+10.00,+7.00,-7.00,+3.00,+7.00,+5.00,+1.00,+5.00,+8.00
+27.00,+20.00,+6.00,-2.00,-9.00,+0.00,+2.00,+10.00,-5.00,-1.00,-6.00,+4.00,+2.00,+0.00,+1.00,+15.00
-10.00,-4.00,-3.00,+1.00,+2.00,-3.00,-1.00,-2.00,-42.00,-16.00,-3.00,-3.00,+2.00,-3.00,-10.00,-33.00
-19.00,-9.00,-3.00,+1.00,+4.00,+2.00,-2.00,-4.00,+1.00,+7.00,+2.00,+4.00,-15.00,+1.00,+6.00,+14.00
-43.00,-20.00,-6.00,-1.00,+2.00,+2.00,-3.00,-12.00,-13.00,+1.00,+7.00,+14.00,+12.00,-3.00,-7.00,-15.00
+37.00,+6.00,+5.00,+2.00,+0.00,-1.00,+2.00,+13.00,+22.00,-1.00,-6.00,-23.00,-14.00,-6.00,-11.00,+0.00
+28.00,+9.00,+2.00,+4.00,-2.00,-4.00,+0.00,+2.00,-24.00,+1.00,+1.00,-3.00,+2.00,+0.00,-1.00,-18.00
+7.00,+7.00,+4.00,+4.00,+4.00,+2.00,+5.00,+12.00,-12.00,+0.00,-5.00,-8.00,-11.00,-2.00,+10.00,+15.00
+16.00,+12.00,+3.00,+0.00,-13.00,-6.00,+2.00,+9.00,+0.00,+0.00,+0.00,+2.00,+11.00,-2.00,+0.00,+4.00
-12.00,-1.00,-3.00,+1.00,+5.00,+7.00,+0.00,-1.00,-1.00,-5.00,+1.00,+0.00,-2.00,-1.00,-3.00,+8.00
-35.00,-23.00,-6.00,+2.00,+5.00,+2.00,-4.00,-10.00,-30.00,-21.00,-6.00,-5.00,-5.00,-9.00,-23.00,-38.00
+10.00,-3.00,+2.00,-3.00,-4.00,+0.00,-6.00,-9.00,+37.00,+18.00,+3.00,-1.00,+1.00,+6.00,+26.00,+22.00
-6.00,+3.00,+6.00,-3.00,+2.00,+0.00,-2.00,-4.00,-62.00,-19.00,-5.00,-7.00,+3.00,-5.00,-16.00,-45.00
-4.00,-19.00,-7.00,+3.00,-4.00,-1.00,+3.00,+2.00,+59.00,+13.00,+2.00,-2.00,+3.00,+3.00,+14.00,+70.00
+13.00,+8.00,+1.00,-2.00,-5.00,-1.00,-1.00,-1.00,-8.00,+6.00,+3.00,+1.00,+2.00,+1.00,+2.00,-10.00
-2.00,-9.00,-1.00,+1.00,+2.00,+1.00,+0.00,+2.00,+3.00,-2.00,-4.00,-6.00,-10.00,-5.00,-6.00,-4.00
-5.00,+0.00,+2.00,+2.00,-6.00,-3.00,-2.00,-3.00,+11.00,+0.00,-2.00,-15.00,-9.00,-4.00,-7.00,-8.00
-2.00,+13.00,+6.00,-3.00,-7.00,-3.00,-1.00,-6.00,-26.00,-11.00,-3.00,+3.00,-5.00,-4.00,-7.00,-28.00
-14.00,-3.00,-3.00,+0.00,+0.00,-1.00,-2.00,+1.00,+22.00,+0.00,+0.00,-2.00,-3.00,+2.00,+7.00,+8.00
-1.00,+2.00,-2.00,-6.00,-11.00,-2.00,-1.00,+0.00,-7.00,+4.00,+7.00,+24.00,+20.00,+7.00,+4.00,+1.00
+1.00,+3.00,-2.00,+2.00,+9.00,+3.00,-1.00,-2.00,-17.00,-1.00,-5.00,-14.00,-1.00,+1.00,+1.00,-1.00
+17.00,+13.00,+3.00,+1.00,+1.00,-3.00,+0.00,+2.00,-10.00,-8.00,-7.00,-8.00,-5.00,+1.00,+0.00,-5.00
-8.00,-2.00,-3.00,-1.00,-6.00,-4.00,-2.00,-4.00,+2.00,-5.00,-6.00,-3.00,-1.00,+3.00,+5.00,+4.00
-10.00,-2.00,-3.00,-3.00,-1.00,-4.00,-2.00,-5.00,-6.00,-3.00,-2.00,+8.00,+0.00,+4.00,+1.00,-6.00
+10.00,-1.00,-4.00,-2.00,+1.00,+3.00,-4.00,-3.00,-3.00,-11.00,-4.00,-10.00,-4.00,+2.00,+2.00,+1.00
+7.00,+5.00,-1.00,-2.00,+1.00,-4.00,-3.00,+0.00,+0.00,+5.00,+1.00,+8.00,+3.00,+4.00,+4.00,-3.00
-9.00,-3.00,-2.00,+0.00,+2.00,+0.00,+7.00,-5.00,+10.00,+5.00,-1.00,-10.00,-6.00,+0.00,+3.00,+0.00
+2.00,-4.00,-3.00,-1.00,-2.00,+2.00,+2.00,-4.00,-13.00,-6.00,-6.00,-13.00,-9.00,-2.00,-5.00,-4.00
+2.00,+0.00,-2.00,-3.00,-14.00,-10.00,-2.00,-2.00,+12.00,+4.00,-1.00,+9.00,+5.00,-4.00,-6.00,+7.00
+2.00,+5.00,+6.00,+2.00,+15.00,+7.00,+2.00,+2.00,-7.00,-7.00,-2.00,-5.00,-1.00,-10.00,-14.00,-5.00
-11.00,-12.00,-9.00,-3.00,+3.00,+2.00,-5.00,-3.00,-5.00,-7.00,+0.00,+6.00,+1.00,-10.00,-11.00,-5.00
+4.00,-1.00,-5.00,-2.00,+1.00,-1.00,-1.00,+0.00,-10.00,-1.00,-3.00,-8.00,-2.00,-13.00,-20.00,-6.00
+6.00,+4.00,-1.00,+0.00,+3.00,+0.00,+2.00,+0.00,+10.00,+0.00,+2.00,+1.00,+2.00,-11.00,-7.00,+9.00
-6.00,-5.00,+0.00,-5.00,-12.00,-12.00,+0.00,+1.00,-5.00,-2.00,+3.00,+12.00,+3.00,-8.00,-8.00,-6.00
-3.00,+9.00,+6.00,+0.00,-6.00,-5.00,-6.00,-3.00,-4.00,-2.00,+2.00,+7.00,+6.00,-1.00,-5.00,-7.00
-2.00,-2.00,-7.00,-2.00,+2.00,-2.00,-4.00,-1.00,-3.00,-2.00,+0.00,-11.00,-8.00,-2.00,+0.00,+1.00
-2.00,+1.00,-1.00,+0.00,+0.00,+0.00,-7.00,-5.00,+7.00,+4.00,-2.00,-5.00,-22.00,-5.00,-2.00,-2.00
+2.00,+1.00,-1.00,+1.00,+1.00,+0.00,+19.00,+3.00,-5.00,-7.00,-1.00,+0.00,+6.00,+3.00,+4.00,-4.00
-3.00,-5.00,-5.00,-3.00,-1.00,+2.00,+8.00,+13.00,-7.00,-5.00,-4.00,-2.00,-4.00,+5.00,+5.00,+1.00
-1.00,+3.00,+6.00,+1.00,+1.00,+1.00,-1.00,+4.00,-3.00,+15.00,+1.00,-6.00,+5.00,+7.00,+2.00,-2.00
-1.00,-1.00,-6.00,-2.00,+0.00,-1.00,-13.00,-4.00,-4.00,-26.00,-7.00,+4.00,+10.00,+9.00,+5.00,-3.00
+2.00,+3.00,+1.00,-1.00,+0.00,+2.00,-5.00,-9.00,-6.00,+2.00,+1.00,-3.00,-7.00,+3.00,+8.00,-5.00
+0.00,+0.00,+2.00,+2.00,+1.00,+2.00,+5.00,-13.00,-3.00,-5.00,-2.00,+5.00,+3.00,+10.00,+26.00,+3.00
-4.00,-2.00,-2.00,+0.00,+4.00,-3.00,+2.00,+2.00,-3.00,-3.00,-4.00,-3.00,-1.00,+3.00,-2.00,-1.00
+3.00,-3.00,+0.00,-4.00,+2.00,+4.00,+8.00,+4.00,+4.00,+15.00,+3.00,-1.00,-1.00,-1.00,-2.00,-1.00
+2.00,+3.00,-1.00,-1.00,-3.00,-3.00,-11.00,-7.00,-4.00,+1.00,-4.00,+0.00,-2.00,-8.00,-18.00,+0.00
-8.00,-5.00,-2.00,-3.00,-6.00,-5.00,-13.00,-7.00,-3.00,-2.00,-4.00,-3.00,-1.00,+8.00,+16.00,-7.00
-1.00,-5.00,-2.00,+0.00,-3.00,-1.00,+2.00,+0.00,+0.00,-1.00,-3.00,-2.00,-5.00,+4.00,+26.00,+8.00
+0.00,-1.00,+1.00,+0.00,+4.00,+3.00,+0.00,-1.00,+1.00,+0.00,+0.00,+0.00,+2.00,+3.00,+2.00,+6.00
+0.00,-5.00,-7.00,-3.00,+1.00,-4.00,-3.00,+4.00,-4.00,-8.00,-6.00,-7.00,-2.00,+0.00,+4.00,-5.00
-2.00,-3.00,+1.00,-2.00,-4.00,-6.00,-2.00,+4.00,-2.00,+3.00,-1.00,-5.00,-9.00,-11.00,-22.00,-1.00
+0.00,-3.00,-2.00,-1.00,-1.00,-1.00,-4.00,-3.00,-5.00,-9.00,-4.00,-4.00,-6.00,-5.00,-7.00,-4.00
+0.00,+7.00,-2.00,+1.00,+2.00,+2.00,+4.00,-19.00,-2.00,-2.00,-1.00,+0.00,+3.00,-3.00,-9.00,-5.00
+1.00,+1.00,+3.00,+0.00,-2.00,+1.00,+4.00,+6.00,+1.00,+3.00,+3.00,+5.00,+2.00,-1.00,-1.00,-3.00
+0.00,-2.00,-3.00,+0.00,+0.00,+0.00,-1.00,+9.00,+0.00,+8.00,+1.00,-4.00,-6.00,-5.00,-9.00,-1.00
-1.00,-3.00,-2.00,-1.00,-2.00,+0.00,-2.00,+3.00,-6.00,-11.00,-3.00,-5.00,-3.00,-4.00,-16.00,-3.00
+0.00,-4.00,-2.00,-1.00,+0.00,-2.00,-1.00,+5.00,-1.00,+0.00,+1.00,+6.00,+5.00,-2.00,-1.00,+0.00
+0.00,+4.00,+1.00,-1.00,-3.00,-3.00,-5.00,-7.00,-1.00,+1.00,-1.00,+0.00,-1.00,+2.00,-18.00,-5.00
