+1.00,-1.00,-1.00,-2.00,-1.00,+1.00,+1.00,+3.00,-2.00,+0.00,-1.00,-1.00,-3.00,-1.00,-1.00,+0.00
-2.00,-3.00,-1.00,+1.00,-1.00,+0.00,-3.00,-1.00,+0.00,-3.00,-3.00,+0.00,+0.00,-1.00,+1.00,+0.00
-5.00,+0.00,-2.00,-2.00,-1.00,+2.00,+8.00,-2.00,+0.00,-1.00,-1.00,-1.00,+0.00,-1.00,-2.00,+0.00
-1.00,+1.00,-2.00,-1.00,-1.00,-1.00,+0.00,+2.00,+2.00,+0.00,-1.00,-3.00,-1.00,-1.00,+1.00,+2.00
+1.00,-1.00,-2.00,+0.00,+0.00,+0.00,+3.00,+0.00,-3.00,-1.00,+0.00,+0.00,-1.00,-1.00,-2.00,-3.00
-4.00,-2.00,-2.00,-3.00,+0.00,-3.00,-4.00,-5.00,+0.00,+0.00,-1.00,+0.00,+0.00,+0.00,+1.00,+0.00
-9.00,-1.00,+0.00,-1.00,-2.00,-4.00,-7.00,-4.00,-2.00,-1.00,-2.00,-2.00,-2.00,-3.00,+1.00,+0.00
-2.00,-3.00,+0.00,+1.00,-1.00,-2.00,+1.00,-4.00,+1.00,+0.00,-1.00,-1.00,+0.00,+0.00,+1.00,-1.00
-1.00,-1.00,-2.00,+0.00,-2.00,-1.00,+1.00,+0.00,+1.00,+0.00,+0.00,-1.00,-3.00,-4.00,-3.00,-1.00
-1.00,-4.00,-2.00,-2.00,-1.00,+2.00,-2.00,+0.00,-1.00,+1.00,-1.00,-2.00,+0.00,+0.00,-2.00,-2.00
+34.00,+8.00,+2.00,+0.00,+0.00,+0.00,+0.00,+4.00,-3.00,-4.00,+0.00,+0.00,-1.00,-1.00,+0.00,+0.00
+4.00,+4.00,+0.00,-1.00,+0.00,+0.00,+0.00,+0.00,+1.00,+0.00,-1.00,-1.00,-2.00,+0.00,-2.00,-2.00
+24.00,+6.00,+3.00,+0.00,+0.00,+0.00,-2.00,+3.00,+3.00,+0.00,-1.00,-1.00,+0.00,-1.00,-3.00,-1.00
-2.00,-1.00,+0.00,+1.00,+2.00,-1.00,+1.00,+0.00,+0.00,-3.00,-1.00,-1.00,-1.00,+0.00,+0.00,+2.00
-22.00,-6.00,+0.00,-1.00,+1.00,+0.00,-1.00,-3.00,+0.00,-1.00,-1.00,-2.00,+1.00,+0.00,-1.00,-1.00
-16.00,-5.00,-1.00,+0.00,+0.00,+0.00,+0.00,-1.00,+3.00,-3.00,-1.00,+1.00,-1.00,+1.00,+0.00,+0.00
+14.00,+0.00,-1.00,-1.00,-1.00,-2.00,-1.00,-1.00,-29.00,-11.00,-3.00,-1.00,-2.00,-1.00,-3.00,-14.00
-5.00,-1.00,-1.00,-1.00,-2.00,-1.00,+0.00,-3.00,-9.00,+1.00,+0.00,-1.00,-1.00,-1.00,-1.00,-2.00
-13.00,-7.00,-1.00,-2.00,-2.00,-2.00,-3.00,-4.00,+1.00,+6.00,+0.00,+1.00,+0.00,+1.00,+0.00,+0.00
-12.00,-2.00,-1.00,-1.00,-1.00,+0.00,-4.00,-4.00,+8.00,+2.00,+0.00,-2.00,-2.00,+0.00,+4.00,+7.00
+7.00,-1.00,-6.00,-2.00,-1.00,+0.00,+0.00,-2.00,+15.00,+3.00,-2.00,-3.00,-2.00,+1.00,+3.00,+7.00
-3.00,-4.00,-4.00,-1.00,-1.00,+0.00,-1.00,-1.00,-25.00,-6.00,-3.00,-2.00,-2.00,-3.00,-2.00,-8.00
-5.00,+1.00,-1.00,+0.00,-1.00,-2.00,-1.00,-1.00,+12.00,-7.00,-3.00,+0.00,-2.00,-2.00,-5.00,-3.00
+2.00,-2.00,+1.00,+0.00,-2.00,-1.00,-1.00,+2.00,-7.00,+0.00,+0.00,+1.00,-1.00,-4.00,-7.00,-5.00
+21.00,+6.00,+0.00,+0.00,-2.00,-2.00,+0.00,+8.00,+7.00,-1.00,-1.00,-1.00,+0.00,-2.00,-1.00,+1.00
+9.00,+5.00,+2.00,-1.00,+3.00,+1.00,-4.00,-3.00,+3.00,-2.00,+0.00,-1.00,+1.00,+0.00,+1.00,+3.00
+16.00,+0.00,-2.00,+0.00,-2.00,-1.00,-1.00,+2.00,-12.00,+1.00,-1.00,-1.00,-1.00,-2.00,-4.00,-6.00
-17.00,-4.00,-3.00,-3.00,-1.00,-4.00,-2.00,-4.00,-2.00,-2.00,-2.00,-1.00,-2.00,-3.00,-3.00,-2.00
-44.00,-15.00,-2.00,-3.00,-1.00,-2.00,-1.00,-7.00,+10.00,+1.00,-1.00,-1.00,+1.00,+1.00,-2.00,+0.00
+25.00,+2.00,+3.00,+1.00,-2.00,+0.00,+0.00,-2.00,-7.00,+1.00,+1.00,-1.00,+1.00,+0.00,+4.00,+6.00
-26.00,+8.00,-1.00,-2.00,+4.00,+3.00,+3.00,+1.00,+6.00,-5.00,-2.00,+1.00,-1.00,+0.00,-3.00,-8.00
+20.00,+4.00,+0.00,+3.00,+4.00,+2.00,+1.00,+6.00,-9.00,-1.00,-1.00,-4.00,+0.00,+4.00,+5.00,+3.00
-1.00,-1.00,-3.00,-3.00,-11.00,+0.00,-1.00,-4.00,-9.00,-2.00,-4.00,+1.00,-1.00,+2.00,-1.00,-4.00
-28.00,-14.00,-5.00,-1.00,+13.00,-1.00,-4.00,-8.00,+13.00,+0.00,-1.00,-1.00,-2.00,-1.00,-4.00,+0.00
+29.00,-2.00,+1.00,-1.00,-7.00,-4.00,-4.00,-5.00,+13.00,-2.00,+0.00,+0.00,+0.00,-3.00,-2.00,+4.00
+22.00,+12.00,-1.00,+0.00,+1.00,+0.00,+1.00,+6.00,-25.00,-7.00,-4.00,-3.00,-1.00,-1.00,-2.00,-7.00
-15.00,-1.00,+0.00,+1.00,+2.00,-1.00,+0.00,-2.00,+14.00,+12.00,+0.00,-1.00,+0.00,-3.00,-6.00,-4.00
+4.00,-2.00,-3.00,+0.00,-7.00,-1.00,+0.00,-1.00,+5.00,+2.00,+5.00,+6.00,-2.00,-1.00,-4.00,-3.00
-23.00,-6.00,-4.00,-2.00,+3.00,+3.00,+1.00,+3.00,+16.00,+7.00,+2.00,-2.00,-2.00,+0.00,+11.00,+16.00
-3.00,-2.00,-3.00,-2.00,-5.00,-1.00,-4.00,-5.00,+19.00,+0.00,-5.00,-7.00,-6.00,-1.00,-1.00,-4.00
+3.00,+0.00,+3.00,+0.00,+1.00,+1.00,-2.00,+0.00,-64.00,-13.00,-5.00,-5.00,-4.00,-1.00,-3.00,-21.00
-7.00,-1.00,+0.00,-1.00,-4.00,-1.00,+0.00,+1.00,+17.00,-2.00,+0.00,+1.00,+1.00,+0.00,-1.00,+16.00
+0.00,-6.00,+1.00,+0.00,-1.00,-2.00,-1.00,+0.00,-1.00,-5.00,-2.00,+1.00,-2.00,-2.00,-1.00,+2.00
-9.00,-2.00,-3.00,-2.00,-3.00,-1.00,-3.00,-4.00,-2.00,+3.00,+0.00,+1.00,-2.00,-4.00,-6.00,-5.00
-8.00,-3.00,-3.00,-2.00,+0.00,-2.00,-2.00,+0.00,+23.00,-2.00,+4.00,+4.00,+1.00,+0.00,+0.00,+2.00
+23.00,+8.00,+5.00,+0.00,-6.00,-2.00,+0.00,+2.00,-4.00,-2.00,-7.00,-10.00,-4.00,+0.00,+0.00,-12.00
-13.00,-3.00,-1.00,+2.00,+7.00,-3.00,-2.00,-9.00,-15.00,-4.00,-2.00,-2.00,+0.00,-2.00,-2.00,-1.00
-7.00,-14.00,-3.00,+3.00,+4.00,-3.00,+1.00,+0.00,-5.00,-6.00,+1.00,+1.00,+1.00,+0.00,+5.00,+3.00
+7.00,+9.00,+5.00,+0.00,+7.00,+2.00,+2.00,+2.00,+22.00,-1.00,-4.00,+0.00,-2.00,-2.00,-1.00,+3.00
-18.00,-5.00,-3.00,-3.00,-2.00,+2.00,+0.00,-3.00,-11.00,+3.00,+5.00,+7.00,+1.00,-1.00,-2.00,-3.00
-2.00,-12.00,+1.00,-1.00,-2.00,-4.00,-2.00,-1.00,+6.00,-3.00,-6.00,-10.00,-2.00,-4.00,-6.00,-3.00
-4.00,+8.00,+2.00,-3.00,+5.00,-2.00,-1.00,-5.00,-31.00,-3.00,+1.00,+2.00,+2.00,-1.00,-2.00,-11.00
-24.00,-5.00,-6.00,+2.00,+3.00,-2.00,-1.00,-3.00,+13.00,+8.00,+4.00,+1.00,+1.00,+2.00,-4.00,+5.00
+69.00,+19.00,+5.00,-1.00,-2.00,-4.00,+3.00,+12.00,+11.00,-3.00,+0.00,-1.00,+1.00,+0.00,+3.00,+3.00
+9.00,+2.00,-3.00,-1.00,-2.00,-2.00,-6.00,-1.00,-32.00,-3.00,+1.00,-2.00,+0.00,+1.00,+0.00,-11.00
-10.00,-8.00,-2.00,-1.00,-3.00,-7.00,-8.00,-6.00,+7.00,-8.00,-5.00,-4.00,-1.00,-3.00,-3.00,+6.00
-13.00,-9.00,-1.00,-4.00,-8.00,+1.00,+18.00,+3.00,+14.00,+0.00,-1.00,+0.00,-3.00,-5.00,+1.00,+13.00
-21.00,-5.00,-1.00,+0.00,+4.00,+3.00,-2.00,-1.00,+17.00,+6.00,-2.00,-2.00,-3.00,+1.00,+6.00,+14.00
+16.00,+10.00,-2.00,-2.00,-4.00,+1.00,-3.00,-6.00,-9.00,+5.00,-1.00,+4.00,+1.00,-1.00,-6.00,-8.00
+1.00,-1.00,+0.00,+0.00,-1.00,-1.00,-2.00,+3.00,-35.00,-1.00,+4.00,+12.00,+4.00,+3.00,-3.00,-13.00
+4.00,+1.00,+2.00,-1.00,+4.00,+2.00,-5.00,+1.00,+2.00,-7.00,-7.00,-14.00,-5.00,-1.00,-3.00,-4.00
-13.00,-1.00,+0.00,+0.00,-12.00,-7.00,-1.00,+2.00,-13.00,-5.00,-2.00,+1.00,-1.00,-2.00,-6.00,-10.00
-3.00,+0.00,-4.00,-2.00,-5.00,-2.00,+2.00,+1.00,+24.00,+5.00,-1.00,-2.00,+2.00,-2.00,+3.00,+12.00
-5.00,-1.00,+2.00,-2.00,-6.00,-2.00,-2.00,-9.00,+8.00,+0.00,+1.00,-3.00,-5.00,-5.00,-3.00,+2.00
+3.00,-7.00,+2.00,+0.00,+2.00,-2.00,+0.00,+4.00,-31.00,-7.00,-2.00,+2.00,+1.00,-3.00,-4.00,-11.00
-20.00,-25.00,-8.00,+1.00,+6.00,+1.00,+1.00,+4.00,+6.00,-2.00,-2.00,+1.00,+2.00,+1.00,-1.00,-4.00
+14.00,+39.00,+2.00,+0.00,-2.00,-1.00,+0.00,+1.00,-8.00,-1.00,+1.00,+2.00,+0.00,+4.00,+5.00,+11.00
+0.00,+1.00,-1.00,-1.00,-1.00,+2.00,+5.00,+3.00,+22.00,+6.00,-1.00,-2.00,+0.00,-1.00,+2.00,+5.00
-34.00,-7.00,-5.00,-2.00,-8.00,-2.00,-4.00,-9.00,+0.00,-5.00,-1.00,+0.00,+0.00,-2.00,-3.00,+2.00
+5.00,-2.00,-2.00,-1.00,+10.00,-5.00,-7.00,-7.00,-17.00,-10.00,-1.00,-3.00,-4.00,-2.00,+0.00,-7.00
-1.00,-15.00,-2.00,+1.00,-1.00,+1.00,+0.00,-3.00,+13.00,+10.00,+3.00,+1.00,-1.00,-1.00,+1.00,-5.00
-1.00,-10.00,-1.00,+0.00,+6.00,+2.00,+3.00,+9.00,+22.00,+9.00,+1.00,-3.00,-2.00,+0.00,+2.00,+12.00
-16.00,+11.00,+1.00,-2.00,-2.00,-2.00,-5.00,-11.00,-53.00,-8.00,+2.00,+2.00,+1.00,+1.00,+0.00,-11.00
+18.00,+15.00,+6.00,+2.00,-6.00,+0.00,+1.00,+1.00,+8.00,-4.00,-5.00,-3.00,-2.00,-3.00,-2.00,+7.00
-16.00,-11.00,-8.00,-2.00,+11.00,+7.00,+2.00,+8.00,-6.00,-17.00,-4.00,+3.00,-1.00,-3.00,-6.00,-7.00
+1.00,-2.00,-2.00,-2.00,-1.00,-3.00,-2.00,-11.00,+4.00,+10.00,-4.00,-24.00,-8.00,+0.00,-8.00,-14.00
+16.00,-14.00,-2.00,+2.00,-2.00,-2.00,-4.00,+2.00,+12.00,+9.00,+2.00,+5.00,+4.00,+3.00,+5.00,+7.00
-25.00,-6.00,-3.00,-2.00,+0.00,+0.00,-2.00,-7.00,-3.00,-2.00,-2.00,+3.00,+1.00,-1.00,-10.00,-12.00
+41.00,+25.00,+8.00,+0.00,-2.00,-1.00,+2.00,+7.00,+3.00,-2.00,-4.00,-1.00,-3.00,-1.00,+1.00,+8.00
-6.00,-6.00,-1.00,-3.00,-4.00,+0.00,-2.00,-4.00,+9.00,-9.00,+0.00,+4.00,+2.00,+3.00,+11.00,+14.00
-6.00,-9.00,-6.00,-2.00,-1.00,-2.00,-4.00,-4.00,-4.00,-2.00,-2.00,-6.00,-2.00,-1.00,+3.00,+1.00
+17.00,+17.00,+1.00,-2.00,-1.00,+0.00,+0.00,-2.00,-5.00,+5.00,-1.00,-2.00,-4.00,-5.00,-4.00,-10.00
-5.00,-22.00,+4.00,+2.00,-4.00,+0.00,+4.00,+7.00,+12.00,-1.00,-2.00,+0.00,-1.00,+2.00,+1.00,+2.00
-5.00,-9.00,-1.00,-3.00,-4.00,-2.00,-2.00,-6.00,-6.00,-4.00,-1.00,+4.00,+1.00,-1.00,+0.00,-2.00
+26.00,+21.00,+4.00,+2.00,+0.00,-2.00,+1.00,+16.00,-20.00,+0.00,+1.00,+5.00,+0.00,+1.00,-1.00,+2.00
-30.00,-11.00,-5.00,+2.00,+11.00,-1.00,-5.00,-12.00,+16.00,+3.00,+1.00,-1.00,-2.00,+0.00,+0.00,+1.00
-24.00,-1.00,+1.00,-6.00,-13.00,+4.00,+3.00,+3.00,+33.00,+5.00,+0.00,-1.00,-1.00,-1.00,+1.00,+3.00
+12.00,+0.00,-4.00,-4.00,+1.00,-3.00,-1.00,+2.00,-69.00,-6.00,-1.00,-1.00,-2.00,-7.00,-17.00,-30.00
+13.00,-3.00,-2.00,+0.00,-6.00,-1.00,+0.00,-5.00,+58.00,+8.00,+4.00,+12.00,+3.00,+3.00,+9.00,+12.00
-11.00,-7.00,-2.00,-1.00,-3.00,+0.00,-1.00,-2.00,-37.00,-11.00,-7.00,-13.00,-5.00,-1.00,-3.00,-13.00
-22.00,-25.00,-5.00,-1.00,-3.00,-4.00,-2.00,-5.00,-5.00,+11.00,-5.00,-7.00,-5.00,-3.00,-5.00,+0.00
+15.00,+18.00,+3.00,+2.00,-2.00,+2.00,-1.00,+3.00,+18.00,+1.00,-2.00,-3.00,-2.00,-1.00,-2.00,+2.00
-3.00,+1.00,+2.00,-2.00,+1.00,+1.00,-1.00,-2.00,+14.00,+5.00,+4.00,+13.00,+3.00,+0.00,-1.00,+3.00
-11.00,-6.00,-2.00,-2.00,-1.00,+0.00,+0.00,-2.00,+3.00,-4.00,-2.00,-10.00,-5.00,+3.00,+2.00,-1.00
+16.00,-9.00,+0.00,+6.00,+9.00,-1.00,-2.00,+4.00,-19.00,-5.00,+4.00,+17.00,+6.00,+1.00,-2.00,-11.00
+1.00,+29.00,-1.00,-5.00,-14.00,-6.00,-1.00,+4.00,+11.00,-19.00,-13.00,-23.00,-8.00,-4.00,+1.00,+15.00
+18.00,-1.00,-4.00,+0.00,+4.00,-1.00,-1.00,+2.00,+8.00,+12.00,-3.00,-6.00,-5.00,-4.00,-9.00,-12.00
-16.00,-5.00,+2.00,+0.00,-8.00,+5.00,+4.00,+7.00,-13.00,+3.00,+2.00,+1.00,+1.00,-2.00,-3.00,-4.00
+3.00,-18.00,-3.00,-3.00,+8.00,+0.00,-3.00,-5.00,-21.00,-9.00,-4.00,-6.00,-3.00,-1.00,-3.00,-18.00
-22.00,+13.00,-1.00,-1.00,-5.00,+2.00,+2.00,-2.00,+10.00,+11.00,+5.00,+10.00,+6.00,-1.00,+0.00,+14.00
+15.00,+7.00,+3.00,+3.00,+0.00,-1.00,-1.00,-1.00,-6.00,-18.00,-5.00,-12.00,-5.00,+0.00,-6.00,-11.00
-7.00,-10.00,-6.00,-4.00,-2.00,+0.00,-2.00,-11.00,+26.00,+17.00,+3.00,+7.00,+2.00,+0.00,+3.00,+13.00
+1.00,-6.00,-2.00,+0.00,-6.00,-8.00,-3.00,-4.00,-26.00,-4.00,+0.00,+4.00,-2.00,-3.00,-12.00,-27.00
+5.00,-20.00,-4.00,+1.00,+14.00,+3.00,-1.00,+1.00,+28.00,-4.00,+5.00,+11.00,+1.00,-1.00,+7.00,+18.00
-42.00,-3.00,-7.00,-4.00,-4.00,-6.00,-7.00,-8.00,+11.00,-13.00,-6.00,-12.00,-3.00,+4.00,+21.00,+32.00
+23.00,+23.00,+3.00,+4.00,+0.00,+1.00,+4.00,-3.00,-28.00,+1.00,+0.00,+11.00,+4.00,-3.00,-10.00,-10.00
+58.00,+15.00,+2.00,-7.00,-15.00,-4.00,+3.00,+2.00,+17.00,+16.00,+1.00,-20.00,-4.00,-2.00,+2.00,+7.00
-23.00,-15.00,-2.00,+0.00,+18.00,+5.00,-1.00,-1.00,-15.00,-11.00,-5.00,+1.00,-2.00,-5.00,-8.00,-34.00
-1.00,-11.00,+0.00,+1.00,-6.00,-4.00,-2.00,-7.00,+3.00,+11.00,-4.00,-12.00,-7.00,-6.00,-8.00,+3.00
-9.00,-2.00,-3.00,-6.00,-8.00,-5.00,-7.00,-1.00,+18.00,-7.00,+0.00,-2.00,-2.00,+3.00,+11.00,+20.00
-16.00,+12.00,+5.00,+4.00,+5.00,+2.00,+2.00,+6.00,-13.00,-9.00,-2.00,+2.00,-2.00,-6.00,-11.00,-4.00
+1.00,-11.00,-3.00,+3.00,+13.00,-1.00,+0.00,-8.00,-33.00,+5.00,+7.00,+2.00,+6.00,+2.00,+1.00,-9.00
+4.00,-6.00,-2.00,-9.00,-20.00,+4.00,-1.00,+4.00,-38.00,-5.00,-8.00,-6.00,-3.00,-7.00,-9.00,-26.00
+3.00,+4.00,-3.00,+1.00,+8.00,-6.00,-4.00,-3.00,+12.00,-17.00,+3.00,+11.00,+4.00,-3.00,+5.00,+14.00
-49.00,-5.00,-5.00,-3.00,-8.00,-2.00,-5.00,-24.00,+4.00,+4.00,-8.00,-15.00,-6.00,-2.00,+1.00,-3.00
+49.00,-1.00,+1.00,-1.00,-1.00,+4.00,+4.00,+31.00,+4.00,-9.00,-2.00,+12.00,+0.00,+1.00,-6.00,-3.00
+2.00,+9.00,+1.00,+7.00,+12.00,-6.00,+1.00,-1.00,+31.00,+18.00,+3.00,-6.00,-4.00,+1.00,+10.00,+33.00
+39.00,+10.00,+3.00,+0.00,-9.00,-6.00,+4.00,+13.00,+14.00,-1.00,-4.00,-15.00,-9.00,-9.00,-11.00,-10.00
-29.00,+3.00,-3.00,-8.00,-13.00,-3.00,-4.00,-8.00,-19.00,-14.00,+3.00,+13.00,+7.00,+4.00,+9.00,+4.00
-43.00,-18.00,-3.00,+7.00,+9.00,+1.00,+2.00,-1.00,-28.00,-7.00,-4.00,+6.00,+3.00,+0.00,-8.00,-31.00
+37.00,+33.00,+4.00,-3.00,-1.00,+4.00,-4.00,+0.00,-27.00,-17.00,-8.00,-6.00,+0.00,-7.00,-13.00,-18.00
+1.00,-9.00,+0.00,-10.00,-23.00,-4.00,+9.00,+10.00,+20.00,+2.00,+1.00,+2.00,+2.00,+11.00,+17.00,+8.00
-17.00,-13.00,-6.00,+6.00,+22.00,-3.00,-6.00,-13.00,-27.00,+2.00,+2.00,+10.00,+0.00,-1.00,-7.00,+0.00
-2.00,+1.00,-1.00,+0.00,-4.00,-3.00,-3.00,-6.00,-33.00,-10.00,-2.00,-8.00,+1.00,+3.00,+11.00,+9.00
+9.00,+1.00,+4.00,+6.00,+17.00,+8.00,+5.00,-1.00,+25.00,-8.00,-6.00,-8.00,-8.00,-8.00,-13.00,-18.00
+6.00,+17.00,+1.00,-3.00,+7.00,-1.00,-3.00,+9.00,+32.00,+16.00,+15.00,+31.00,+17.00,+5.00,+0.00,+12.00
+1.00,-8.00,+0.00,-7.00,-20.00,+3.00,-2.00,+6.00,-29.00,-3.00,-10.00,-17.00,-10.00,+2.00,+8.00,+16.00
-5.00,-12.00,+1.00,-4.00,+4.00,-4.00,-2.00,-14.00,+38.00,+6.00,+5.00,+40.00,+10.00,+0.00,+8.00,+28.00
+10.00,-3.00,-4.00,-1.00,-8.00,-9.00,-1.00,+12.00,-16.00,-8.00,-8.00,-34.00,-13.00,-3.00,-5.00,-24.00
-16.00,-9.00,-3.00,+3.00,+4.00,+3.00,-4.00,-8.00,-38.00,+17.00,+9.00,+11.00,+6.00,-2.00,-15.00,-50.00
+5.00,+7.00,-3.00,+1.00,+7.00,-5.00,-4.00,-4.00,+55.00,+4.00,-4.00,-1.00,-7.00,-3.00,+11.00,+47.00
+28.00,+14.00,+2.00,-2.00,-19.00,-2.00,-10.00,+5.00,-17.00,-14.00,-6.00,-9.00,-7.00,+0.00,-5.00,-19.00
+5.00,+10.00,+0.00,+3.00,+3.00,+5.00,+16.00,-5.00,-11.00,-13.00,-3.00,-1.00,-2.00,+0.00,+1.00,+0.00
-28.00,-4.00,+2.00,+3.00,-9.00,+0.00,+2.00,+9.00,-27.00,-18.00,-5.00,+2.00,+5.00,-6.00,-9.00,-22.00
-9.00,-11.00,-6.00,-4.00,-6.00,-3.00,-1.00,+1.00,+1.00,+15.00,-3.00,-29.00,-11.00,-1.00,-4.00,-17.00
+29.00,+5.00,+5.00,+5.00,-3.00,+3.00,+3.00,+2.00,+60.00,+16.00,+4.00,-9.00,-3.00,+1.00,+3.00,+23.00
-15.00,+6.00,-3.00,-2.00,+28.00,+0.00,-11.00,-11.00,-41.00,-13.00,+6.00,+27.00,+11.00,+0.00,-4.00,-13.00
-15.00,-12.00,+2.00,+5.00,+11.00,+5.00,-2.00,-9.00,-28.00,-4.00,-7.00,-16.00,-7.00,-3.00,-1.00,-23.00
+34.00,-6.00,+1.00,+8.00,+9.00,+6.00,+7.00,+21.00,-59.00,-29.00,+0.00,+11.00,+6.00,-10.00,-19.00,-32.00
-15.00,-4.00,-4.00,+0.00,-3.00,+7.00,-7.00,-14.00,+84.00,+29.00,+0.00,+1.00,+3.00,+4.00,+21.00,+67.00
-26.00,-16.00,+0.00,-6.00,-50.00,-19.00,-3.00,-5.00,-19.00,-4.00,-7.00,-13.00,-10.00,-9.00,-5.00,-13.00
+52.00,+19.00,+1.00,+1.00,+8.00,+0.00,+2.00,+0.00,-18.00,-8.00,+6.00,+26.00,+12.00,+10.00,+11.00,+18.00
-3.00,+2.00,+3.00,+1.00,+11.00,+3.00,-3.00,-5.00,+29.00,+7.00,+4.00,+8.00,+4.00,+4.00,+5.00,+17.00
+12.00,-4.00,-1.00,-3.00,-9.00,-9.00,-3.00,+8.00,-20.00,+20.00,+4.00,+5.00,-2.00,-4.00,-13.00,-35.00
+3.00,-7.00,-6.00,+0.00,+13.00,+6.00,+1.00,+10.00,+11.00,-20.00,+3.00,-2.00,+7.00,+8.00,+17.00,+26.00
-40.00,-18.00,-2.00,+11.00,+10.00,+11.00,-2.00,-17.00,-29.00,+6.00,+0.00,-7.00,-10.00,-7.00,-13.00,-27.00
+17.00,+25.00,+9.00,+1.00,+5.00,+4.00,+6.00,+10.00,+13.00,-13.00,-16.00,-11.00,+2.00,-6.00,-10.00,-12.00
-14.00,-18.00,-5.00,-2.00,-5.00,-5.00,-4.00,-18.00,-27.00,-6.00,-7.00,-14.00,-8.00,-2.00,-5.00,-3.00
+16.00,+9.00,+5.00,+4.00,+11.00,-9.00,-1.00,+5.00,-7.00,+4.00,+13.00,+25.00,+13.00,+6.00,+5.00,-9.00
-43.00,+3.00,-6.00,-19.00,-42.00,-9.00,-4.00,-12.00,-10.00,-18.00,-16.00,-20.00,-17.00,-9.00,-5.00,+13.00
-5.00,+5.00,-6.00,+0.00,+12.00,+2.00,-10.00,-19.00,+5.00,-6.00,+10.00,+28.00,+13.00,+9.00,+2.00,-24.00
+16.00,+16.00,+9.00,+2.00,-6.00,+6.00,+11.00,+20.00,+5.00,+8.00,+11.00,+13.00,+11.00,-2.00,-10.00,-1.00
-30.00,-23.00,-5.00,+5.00,+21.00,+2.00,-1.00,-2.00,+11.00,+11.00,+1.00,+21.00,+5.00,+4.00,+13.00,+13.00
+24.00,-9.00,-8.00,-9.00,-18.00,-13.00,-5.00,-3.00,+39.00,+21.00,+7.00,+6.00,+0.00,+6.00,+5.00,+10.00
-18.00,-8.00,-8.00,-9.00,-19.00,-7.00,-6.00,-11.00,+2.00,-5.00,+0.00,-9.00,+2.00,-5.00,+7.00,-1.00
-39.00,-8.00,-1.00,-8.00,-5.00,-5.00,-2.00,-13.00,+17.00,-12.00,-19.00,-30.00,-22.00,-6.00,+4.00,+44.00
+74.00,+22.00,-3.00,+0.00,+21.00,+13.00,-4.00,+4.00,-28.00,+6.00,-5.00,-11.00,-5.00,-5.00,-11.00,-24.00
+5.00,-3.00,+4.00,-5.00,-20.00,+0.00,+6.00,+9.00,+52.00,+23.00,+3.00,-10.00,-3.00,+4.00,+6.00,+37.00
-3.00,-7.00,-2.00,+3.00,-2.00,-7.00,-3.00,-8.00,+13.00,-2.00,+4.00,+17.00,+7.00,+4.00,-2.00,+12.00
+37.00,+7.00,+1.00,+4.00,+0.00,+3.00,+4.00,+22.00,-15.00,-13.00,+0.00,+3.00,+4.00,-1.00,+3.00,-13.00
-69.00,-25.00,-1.00,+1.00,-3.00,+6.00,-1.00,-17.00,-25.00,-13.00,-10.00,-26.00,-7.00,-5.00,-4.00,-3.00
+26.00,+13.00,+8.00,+18.00,+55.00,+11.00,+11.00,+29.00,+20.00,-11.00,-16.00,-33.00,-23.00,-9.00,-10.00,+0.00
+16.00,+26.00,-1.00,-10.00,+22.00,+7.00,-2.00,+3.00,-94.00,+4.00,+3.00,-2.00,-3.00,-3.00,-15.00,-39.00
+4.00,+5.00,-2.00,-3.00,-51.00,-10.00,+4.00,+3.00,-4.00,-33.00,-13.00,-11.00,-2.00,-1.00,-2.00,-23.00
+7.00,-13.00,-6.00,-9.00,-7.00,-14.00,-8.00,-10.00,+22.00,-4.00,+2.00,+17.00,+6.00,-2.00,-3.00,+28.00
-23.00,-26.00,-14.00,-16.00,-23.00,-11.00,-14.00,-29.00,+2.00,-12.00,+10.00,+28.00,+20.00,+7.00,+19.00,-8.00
-23.00,-19.00,-2.00,+3.00,+32.00,+5.00,+1.00,+2.00,+36.00,+6.00,+3.00,-9.00,-6.00,-2.00,+5.00,+31.00
-20.00,+15.00,-5.00,+0.00,-9.00,-3.00,-3.00,-13.00,+39.00,+8.00,+6.00,+8.00,+3.00,+6.00,+17.00,+44.00
-25.00,-3.00,+0.00,-2.00,-10.00,+6.00,-3.00,-9.00,-64.00,-11.00,+2.00,+22.00,+2.00,-1.00,-13.00,-39.00
+18.00,+16.00,+3.00,+2.00,-18.00,-2.00,+4.00,+1.00,-17.00,+9.00,-2.00,+3.00,+5.00,+0.00,+5.00,-6.00
+8.00,+0.00,+6.00,+7.00,+12.00,+0.00,+0.00,+1.00,+54.00,+1.00,-9.00,-21.00,-14.00,-5.00,+5.00,+32.00
-13.00,-13.00,-1.00,-5.00,-33.00,-7.00,+1.00,+0.00,-40.00,-7.00,-11.00,+4.00,+4.00,-9.00,-20.00,-57.00
+5.00,+4.00,-7.00,-5.00,-12.00,-13.00,-12.00,-18.00,+41.00,+31.00,+6.00,+2.00,-9.00,+0.00,+2.00,+6.00
-28.00,-22.00,+2.00,+5.00,+42.00,+11.00,-3.00,-13.00,+4.00,-23.00,-25.00,-16.00,-6.00,-8.00,-18.00,+20.00
-67.00,-31.00,-8.00,-5.00,-15.00,-3.00,-2.00,-8.00,-37.00,+1.00,+8.00,+19.00,+7.00,+0.00,-12.00,-53.00
+95.00,+21.00,+11.00,+8.00,+23.00,+7.00,+9.00,+41.00,+50.00,+54.00,+18.00,-3.00,-3.00,+3.00,+11.00,+63.00
-13.00,+21.00,+4.00,+5.00,+9.00,+2.00,+7.00,+17.00,+8.00,+11.00,-5.00,-11.00,-4.00,+7.00,+1.00,-31.00
+5.00,-3.00,-5.00,-9.00,-12.00,+1.00,-2.00,-2.00,+13.00,-9.00,-1.00,+0.00,-4.00,+0.00,+5.00,+29.00
+33.00,+10.00,-2.00,-12.00,-49.00,-12.00,-8.00,+0.00,-56.00,-7.00,-5.00,-11.00,-4.00,-6.00,-16.00,-71.00
-38.00,-26.00,-2.00,+4.00,+37.00,+4.00,+3.00,-13.00,+32.00,+6.00,+6.00,+6.00,+7.00,+3.00,+1.00,+26.00
+42.00,+30.00,+7.00,-3.00,-27.00,-4.00,+3.00,+7.00,+24.00,-47.00,-6.00,-12.00,-4.00,+1.00,+3.00,+31.00
+10.00,+6.00,-1.00,+1.00,+4.00,+2.00,+1.00,+6.00,+13.00,+56.00,+20.00,+7.00,+6.00,+3.00,+9.00,-7.00
+2.00,-7.00,+10.00,+13.00,+1.00,+0.00,-3.00,-1.00,+25.00,-17.00,+2.00,+12.00,+6.00,+10.00,+13.00,+28.00
-61.00,-22.00,-12.00,-13.00,-9.00,-12.00,-12.00,-26.00,-41.00,-10.00,+5.00,+5.00,+0.00,-1.00,-11.00,-59.00
-1.00,+5.00,+7.00,+5.00,-5.00,+2.00,-1.00,-6.00,-3.00,+18.00,-5.00,+10.00,+1.00,-5.00,-3.00,+9.00
-4.00,-7.00,-8.00,-7.00,-14.00,-6.00,-5.00,+9.00,-11.00,-15.00,-11.00,-38.00,-17.00,-10.00,-11.00,-18.00
-18.00,+17.00,+9.00,+9.00,+29.00,+6.00,+8.00,+16.00,-8.00,+4.00,+1.00,+4.00,+2.00,+2.00,+25.00,+38.00
+31.00,+11.00,-5.00,-12.00,-18.00,-2.00,-12.00,-10.00,-23.00,-20.00,-7.00,+0.00,+3.00,+1.00,-4.00,-17.00
-70.00,-55.00,-6.00,+11.00,+8.00,+5.00,+3.00,-16.00,+1.00,+20.00,+10.00,+3.00,+8.00,+3.00,+1.00,-26.00
+1.00,+15.00,+5.00,+8.00,+20.00,+6.00,-2.00,-6.00,-16.00,-8.00,-6.00,+4.00,-2.00,-10.00,-21.00,+1.00
+46.00,+37.00,+1.00,+5.00,+15.00,-5.00,+3.00,+12.00,+64.00,+35.00,+6.00,-12.00,-11.00,-5.00,-1.00,+20.00
-58.00,-9.00,-9.00,+1.00,+29.00,+4.00,-1.00,-5.00,-40.00,-15.00,-12.00,-14.00,-13.00,-2.00,-5.00,-37.00
+32.00,+16.00,-8.00,-20.00,-46.00,-14.00,-9.00,-2.00,+94.00,+42.00,+14.00,+7.00,+0.00,-1.00,+13.00,+89.00
-36.00,-45.00,-9.00,-14.00,-18.00,-8.00,-8.00,-21.00,+2.00,+14.00,-1.00,-17.00,-13.00,-6.00,-5.00,-35.00
+29.00,+24.00,+3.00,+10.00,+5.00,+7.00,+10.00,+8.00,+60.00,+12.00,-2.00,-22.00,-2.00,-5.00,-13.00,+4.00
+4.00,+16.00,+5.00,+3.00,+1.00,+0.00,-3.00,-8.00,-73.00,-21.00,+6.00,+7.00,+3.00,-5.00,-17.00,-35.00
-28.00,-36.00,-8.00,-5.00,+1.00,+0.00,+0.00,+7.00,-70.00,-9.00,-3.00,-2.00,-3.00,-2.00,-14.00,-67.00
+13.00,+20.00,-3.00,-3.00,-5.00,-3.00,-2.00,+7.00,+0.00,-33.00,-12.00,-4.00,+1.00,+3.00,+10.00,+46.00
-67.00,-39.00,-12.00,-6.00,+3.00,+3.00,-3.00,-24.00,-31.00,-2.00,-12.00,-20.00,-17.00,-7.00,-7.00,-10.00
+55.00,+9.00,+2.00,-4.00,-13.00,-5.00,+2.00,+10.00,+29.00,-24.00,-11.00,-18.00,-13.00,-8.00,-6.00,-10.00
+21.00,+14.00,-5.00,-2.00,+19.00,+6.00,-2.00,+6.00,+19.00,-3.00,+5.00,-1.00,+7.00,+4.00,+4.00,+25.00
+14.00,+10.00,+0.00,+3.00,-3.00,-2.00,+2.00,+11.00,-51.00,-14.00,+4.00,+36.00,+11.00,+2.00,+1.00,-30.00
-2.00,-12.00,-3.00,-8.00,-10.00,-9.00,-13.00,-24.00,+64.00,+3.00,+0.00,+17.00,+8.00,+9.00,+14.00,+31.00
-51.00,-32.00,-14.00,-17.00,-4.00,-10.00,-10.00,-21.00,-49.00,-3.00,-6.00,-7.00,-6.00,-5.00,-4.00,-6.00
+6.00,+11.00,+6.00,+0.00,-24.00,-9.00,+3.00,+9.00,+17.00,-26.00,-1.00,+1.00,+1.00,-6.00,-5.00,+13.00
+4.00,+26.00,+14.00,+5.00,+0.00,+1.00,+7.00,+14.00,+8.00,+37.00,+6.00,+2.00,-4.00,+0.00,+7.00,+9.00
+43.00,+12.00,-8.00,-2.00,-9.00,+4.00,+4.00,+19.00,-47.00,-20.00,-10.00,-35.00,-20.00,-6.00,-2.00,-43.00
-14.00,-16.00,-3.00,+10.00,+2.00,+7.00,-2.00,-11.00,+10.00,-12.00,-2.00,+0.00,+0.00,+1.00,+8.00,+45.00
+2.00,+2.00,+4.00,+3.00,+11.00,+2.00,+0.00,-8.00,+6.00,-15.00,-9.00,+0.00,+0.00,-7.00,-5.00,-13.00
-15.00,-18.00,-3.00,+1.00,-4.00,-5.00,-1.00,+17.00,+2.00,-21.00,-20.00,-50.00,-29.00,-17.00,-26.00,-37.00
+4.00,+21.00,+8.00,-5.00,-25.00,-1.00,+4.00,+9.00,-107.00,-66.00,-13.00,+4.00,+5.00,-6.00,-11.00,-57.00
+2.00,-7.00,+0.00,+6.00,+25.00,+14.00,+3.00,+1.00,+69.00,+58.00,-2.00,-20.00,-18.00,-3.00,+7.00,+78.00
-31.00,+1.00,-5.00,-3.00,-12.00,+2.00,-1.00,-21.00,-22.00,-34.00,-9.00,-4.00,-2.00,+10.00,+15.00,-6.00
+26.00,+26.00,-1.00,-9.00,-29.00,-5.00,+0.00,+3.00,-21.00,-5.00,-2.00,+7.00,+13.00,+3.00,-7.00,-53.00
-12.00,-32.00,-5.00,-6.00,-4.00,-1.00,+3.00,+23.00,+51.00,+15.00,-4.00,+10.00,+0.00,-4.00,-2.00,+41.00
-2.00,+7.00,-1.00,+3.00,+13.00,-1.00,-1.00,-2.00,+20.00,+32.00,-3.00,-16.00,-7.00,+0.00,+6.00,-15.00
-6.00,-23.00,-5.00,-6.00,+2.00,-2.00,-9.00,-9.00,-29.00,-18.00,+14.00,+46.00,+18.00,+10.00,+18.00,+20.00
-25.00,-5.00,-5.00,+0.00,-1.00,-1.00,-6.00,-21.00,+10.00,+4.00,+0.00,+4.00,+3.00,+1.00,-1.00,-7.00
+15.00,-31.00,-10.00,+3.00,+17.00,+7.00,-2.00,+2.00,-61.00,-31.00,+0.00,-15.00,-6.00,-1.00,-4.00,-34.00
+66.00,+44.00,+20.00,+8.00,-6.00,-10.00,+9.00,+32.00,+10.00,+2.00,+4.00,+3.00,+7.00,+0.00,+4.00,+36.00
-12.00,+15.00,+8.00,+4.00,+4.00,+7.00,+8.00,+10.00,+42.00,+39.00,+1.00,-10.00,-12.00,-2.00,-1.00,+15.00
-3.00,+8.00,-6.00,+2.00,+9.00,-1.00,-2.00,-7.00,-8.00,-10.00,+0.00,-25.00,-12.00,-2.00,+1.00,-3.00
+10.00,+14.00,+3.00,+6.00,-10.00,-7.00,+0.00,+0.00,+41.00,+25.00,-1.00,+1.00,-4.00,+1.00,+7.00,+13.00
-6.00,-24.00,-7.00,-6.00,-11.00,-6.00,-9.00,-14.00,-21.00,-34.00,+3.00,+30.00,+17.00,+3.00,-8.00,-24.00
+51.00,-6.00,-4.00,+3.00,+34.00,+3.00,-4.00,+3.00,-5.00,+0.00,+0.00,+1.00,+7.00,+0.00,+0.00,-39.00
-24.00,+30.00,+19.00,+29.00,+39.00,+17.00,+17.00,+21.00,-90.00,-66.00,-12.00,-3.00,+7.00,+5.00,-1.00,+15.00
+7.00,-7.00,-2.00,-13.00,-28.00,-8.00,-3.00,+1.00,+45.00,+28.00,+8.00,+8.00,-5.00,+3.00,+9.00,+52.00
+2.00,-21.00,-4.00,+10.00,+31.00,+9.00,+4.00,+3.00,-24.00,-19.00,+1.00,+2.00,+7.00,+2.00,-2.00,-29.00
+1.00,+9.00,+0.00,-6.00,-4.00,+2.00,-4.00,-6.00,-31.00,+26.00,+9.00,+23.00,+14.00,-2.00,-17.00,-56.00
+1.00,-10.00,-7.00,-3.00,-30.00,-16.00,-10.00,-14.00,+58.00,+16.00,-6.00,+3.00,+1.00,-4.00,+6.00,+37.00
-6.00,-6.00,-5.00,-4.00,-2.00,-3.00,-4.00,-9.00,-74.00,-28.00,-12.00,-24.00,-5.00,-10.00,-22.00,-73.00
-49.00,+5.00,+2.00,-7.00,-2.00,+3.00,+3.00,+2.00,+56.00,+32.00,+35.00,+51.00,+25.00,+22.00,+28.00,+85.00
-22.00,-13.00,-4.00,-3.00,+8.00,+0.00,+0.00,+0.00,+42.00,+6.00,-8.00,-20.00,-9.00,+1.00,+16.00,+18.00
+37.00,-17.00,-4.00,-2.00,-2.00,+1.00,+2.00,+1.00,+6.00,+2.00,+14.00,+30.00,+15.00,+4.00,+0.00,+0.00
-56.00,-19.00,-9.00,-6.00,+3.00,-11.00,-9.00,-26.00,-4.00,+13.00,-13.00,-19.00,-13.00,-4.00,-4.00,-7.00
+8.00,+13.00,-2.00,-3.00,-19.00,-2.00,-2.00,+2.00,-70.00,-14.00,-10.00,-14.00,-7.00,-13.00,-26.00,-82.00
+20.00,-14.00,+1.00,+5.00,-20.00,+7.00,+2.00,+13.00,-27.00,-7.00,-1.00,-25.00,-14.00,-10.00,-14.00,-46.00
-2.00,+15.00,-2.00,-7.00,+37.00,+6.00,-7.00,-1.00,+22.00,+13.00,+14.00,+30.00,+13.00,+8.00,+13.00,+60.00
+31.00,+34.00,+21.00,+13.00,-1.00,+8.00,+16.00,+24.00,+89.00,+35.00,+10.00,+25.00,+8.00,+7.00,+21.00,+83.00
-46.00,-16.00,-3.00,+4.00,+6.00,+0.00,-5.00,-20.00,-23.00,-24.00,+0.00,+7.00,+5.00,+3.00,+2.00,-41.00
-2.00,+2.00,-3.00,-5.00,-53.00,-19.00,-9.00,-9.00,-18.00,+24.00,-2.00,-3.00,-4.00,-8.00,-17.00,-31.00
-8.00,-30.00,-6.00,-4.00,+3.00,-6.00,-10.00,-21.00,-32.00,-13.00,-4.00,-22.00,-15.00,-9.00,-19.00,-4.00
+0.00,+1.00,+0.00,-3.00,-3.00,+0.00,-4.00,-14.00,-21.00,-24.00,+5.00,+2.00,+0.00,+1.00,-7.00,-43.00
-24.00,+8.00,+2.00,+0.00,+2.00,+1.00,+0.00,+0.00,+81.00,+36.00,-2.00,-19.00,-14.00,+1.00,+17.00,+46.00
+55.00,+22.00,+9.00,+12.00,+29.00,+6.00,+2.00,+10.00,+83.00,+40.00,+6.00,-18.00,-7.00,+11.00,+29.00,+92.00
+19.00,-3.00,-3.00,-9.00,-8.00,-6.00,+2.00,+7.00,+45.00,+23.00,+1.00,+1.00,+7.00,-2.00,-12.00,-34.00
-50.00,-1.00,-7.00,+4.00,+35.00,+14.00,-3.00,-33.00,-92.00,-30.00,-14.00,-5.00,+6.00,-5.00,-21.00,-39.00
+16.00,-2.00,-1.00,+2.00,-20.00,-11.00,+6.00,+23.00,+12.00,+16.00,+3.00,-22.00,-18.00,-11.00,-3.00,-28.00
-25.00,-20.00,-2.00,-7.00,+22.00,+11.00,-1.00,-16.00,-57.00,-35.00,-16.00,-12.00,-3.00,-11.00,-29.00,-34.00
-8.00,-28.00,-1.00,-1.00,-33.00,-15.00,-12.00,-9.00,+2.00,-4.00,+6.00,+4.00,+3.00,+4.00,+9.00,+9.00
+16.00,+10.00,-2.00,-3.00,-2.00,-6.00,-4.00,-14.00,-13.00,+2.00,+15.00,+34.00,+28.00,+17.00,+26.00,+10.00
-2.00,+17.00,-4.00,-12.00,-25.00,-11.00,-4.00,+1.00,-14.00,-17.00,-10.00,+8.00,+3.00,-1.00,+1.00,-37.00
+14.00,+3.00,-4.00,+4.00,+7.00,+2.00,+2.00,+7.00,+21.00,-23.00,-14.00,-20.00,-15.00,-18.00,-34.00,+48.00
-6.00,-27.00,-1.00,+5.00,+35.00,+11.00,+2.00,-4.00,-4.00,-15.00,+3.00,+20.00,+3.00,+6.00,+19.00,+35.00
+8.00,+23.00,+2.00,-6.00,-22.00,-5.00,+1.00,+4.00,+25.00,+9.00,-8.00,-22.00,-16.00,-7.00,-10.00,-20.00
+2.00,+18.00,+0.00,+6.00,+13.00,+3.00,+0.00,+3.00,+55.00,+24.00,+1.00,+8.00,+4.00,+3.00,+3.00,+21.00
+9.00,-11.00,-7.00,-1.00,+11.00,-6.00,+0.00,+8.00,-104.00,-34.00,-5.00,+7.00,-3.00,-8.00,-17.00,-70.00
-4.00,-2.00,+0.00,-16.00,-24.00,-1.00,+0.00,+5.00,+21.00,+17.00,-7.00,-14.00,-4.00,-4.00,+4.00,+24.00
-14.00,-21.00,+0.00,+3.00,+4.00,+7.00,+10.00,+22.00,-16.00,-28.00,+5.00,+6.00,+6.00,+1.00,-2.00,+2.00
+9.00,-4.00,-2.00,-5.00,-13.00,-8.00,-4.00,+1.00,+2.00,+1.00,+4.00,+21.00,+14.00,+2.00,-9.00,-2.00
-9.00,-9.00,-1.00,-1.00,-3.00,+1.00,+0.00,+3.00,-55.00,-29.00,-13.00,-11.00,-6.00,-1.00,-2.00,-27.00
-1.00,+5.00,-6.00,-3.00,+4.00,+4.00,-2.00,-8.00,-1.00,+15.00,+3.00,-7.00,-5.00,-1.00,+2.00,+3.00
+3.00,-4.00,-1.00,+2.00,+9.00,+1.00,-3.00,+7.00,+29.00,+13.00,+11.00,+11.00,+5.00,+5.00,+11.00,+0.00
+11.00,+6.00,+1.00,-4.00,-28.00,-4.00,-4.00,-7.00,-47.00,-10.00,-15.00,-10.00,-15.00,-11.00,-19.00,-35.00
-12.00,-4.00,+4.00,-4.00,-19.00,-3.00,+5.00,+9.00,+38.00,+8.00,+13.00,+6.00,+4.00,+7.00,+11.00,+29.00
+4.00,+4.00,+3.00,+15.00,+20.00,+5.00,-2.00,-8.00,+12.00,+7.00,-2.00,-11.00,-4.00,-1.00,+1.00,-24.00
+17.00,-7.00,-5.00,-4.00,+3.00,-1.00,+4.00,+18.00,+34.00,+9.00,-9.00,-5.00,-5.00,-2.00,+1.00,+22.00
-14.00,-14.00,-4.00,-10.00,-1.00,-1.00,-7.00,-24.00,-64.00,-22.00,-5.00,+1.00,+2.00,-3.00,-13.00,-60.00
-8.00,+34.00,+3.00,+5.00,-5.00,-9.00,-8.00,-17.00,+4.00,-3.00,+2.00,+9.00,+2.00,+1.00,+3.00,+29.00
-4.00,-4.00,+4.00,-7.00,-27.00,+3.00,+12.00,+17.00,+6.00,-5.00,-4.00,+7.00,+4.00,-3.00,-8.00,-11.00
-26.00,-6.00,+1.00,+2.00,+6.00,+3.00,-5.00,-22.00,+0.00,+11.00,+2.00,+19.00,+5.00,+0.00,-4.00,-3.00
+19.00,-20.00,-3.00,-1.00,+18.00,+9.00,+1.00,+9.00,-26.00,-15.00,-5.00,-31.00,-11.00,-4.00,-1.00,-9.00
-26.00,-8.00,-11.00,-8.00,-11.00,-7.00,-9.00,-16.00,+109.00,+11.00,+1.00,-2.00,-3.00,+9.00,+32.00,+78.00
-5.00,-30.00,-8.00,-2.00,-6.00,-15.00,-11.00,-9.00,-77.00,+4.00,-4.00,-4.00,-8.00,-10.00,-25.00,-80.00
+18.00,+21.00,+3.00,-4.00,-16.00,+2.00,+6.00,+18.00,+8.00,+17.00,+6.00,+15.00,+8.00,-4.00,+1.00,+29.00
+4.00,+11.00,+6.00,+11.00,+28.00,+8.00,+2.00,-8.00,+60.00,+38.00,+2.00,-19.00,-18.00,-4.00,+2.00,+48.00
+11.00,-2.00,+2.00,+0.00,-7.00,+0.00,+3.00,+17.00,+11.00,+15.00,+1.00,+2.00,+0.00,-2.00,+1.00,+15.00
+5.00,+11.00,-8.00,-2.00,-8.00,-7.00,-11.00,-15.00,+25.00,-5.00,-9.00,-16.00,-10.00,-1.00,+2.00,-9.00
-30.00,-38.00,-7.00,-7.00,-15.00,-8.00,-2.00,-12.00,-29.00,-18.00,-15.00,-28.00,-15.00,-10.00,-13.00,-24.00
-1.00,+4.00,+0.00,+5.00,+12.00,+6.00,+0.00,+6.00,-69.00,-23.00,-9.00,+1.00,+0.00,-5.00,-17.00,-48.00
-2.00,+31.00,+3.00,-3.00,+10.00,+0.00,+1.00,+1.00,+60.00,+24.00,+11.00,+11.00,+0.00,+7.00,+22.00,+39.00
-21.00,-3.00,-1.00,+4.00,+5.00,-3.00,-7.00,-32.00,-6.00,-13.00,-4.00,-18.00,-4.00,+2.00,-3.00,-5.00
+27.00,+17.00,+3.00,-2.00,-10.00,-5.00,-4.00,-3.00,-21.00,+2.00,+1.00,+13.00,+4.00,+2.00,-1.00,-7.00
-7.00,-2.00,-3.00,+7.00,+21.00,+2.00,-4.00,-11.00,-12.00,-5.00,-3.00,+0.00,-3.00,-7.00,-13.00,-52.00
-4.00,-8.00,-4.00,-12.00,-18.00,+1.00,+11.00,+37.00,+18.00,-1.00,-6.00,-8.00,-5.00,-7.00,-8.00,+43.00
-23.00,-17.00,-5.00,-8.00,+9.00,+0.00,-12.00,-25.00,-65.00,-27.00,+4.00,+10.00,+0.00,+6.00,+1.00,-30.00
+19.00,+14.00,+1.00,+1.00,-11.00,-3.00,+8.00,+6.00,+44.00,+5.00,+4.00,+6.00,+3.00,+3.00,+15.00,+50.00
-4.00,-21.00,+0.00,-3.00,-1.00,-1.00,-3.00,-2.00,-12.00,+5.00,+0.00,-16.00,-5.00,-6.00,-12.00,+5.00
-13.00,-30.00,-1.00,+11.00,+28.00,+2.00,-1.00,-6.00,-7.00,+4.00,+0.00,+11.00,+4.00,-2.00,-5.00,-37.00
+3.00,+5.00,-2.00,-3.00,-28.00,-8.00,+1.00,+5.00,-69.00,-24.00,-8.00,-11.00,-4.00,-8.00,-10.00,-32.00
-4.00,+20.00,+2.00,-2.00,+7.00,+3.00,-6.00,-11.00,+112.00,+47.00,+10.00,+2.00,-4.00,+9.00,+34.00,+101.00
+1.00,+0.00,-3.00,-3.00,-4.00,-7.00,-3.00,+9.00,-13.00,-7.00,-5.00,-11.00,-10.00,-4.00,-5.00,-14.00
+9.00,+4.00,-1.00,+3.00,+3.00,-3.00,+0.00,+5.00,-52.00,+0.00,-2.00,+4.00,+6.00,-2.00,-7.00,-39.00
+5.00,+4.00,+5.00,+3.00,+17.00,+11.00,+12.00,+31.00,-6.00,+2.00,+1.00,+1.00,+1.00,-2.00,+5.00,-15.00
+0.00,-42.00,-5.00,+0.00,+15.00,-3.00,-3.00,-7.00,-27.00,-19.00,+0.00,-4.00,+2.00,-3.00,-15.00,-32.00
+21.00,+23.00,+0.00,-4.00,-16.00,-6.00,-2.00,-14.00,-1.00,-15.00,+1.00,+14.00,+7.00,+4.00,+5.00,+22.00
-5.00,+4.00,-1.00,-4.00,+1.00,-8.00,-9.00,-2.00,-34.00,-11.00,-2.00,-10.00,-4.00,-1.00,-3.00,-34.00
+36.00,+22.00,+5.00,+2.00,-3.00,+5.00,+8.00,+15.00,+27.00,+15.00,-7.00,-9.00,-11.00,-7.00,-7.00,+7.00
+5.00,-20.00,-8.00,-2.00,-17.00,-11.00,-8.00,-10.00,-44.00,+0.00,+0.00,-7.00,-5.00,-6.00,-7.00,-24.00
-6.00,-6.00,-4.00,-3.00,+24.00,+3.00,+2.00,+19.00,+61.00,+2.00,+6.00,+12.00,+8.00,+11.00,+24.00,+70.00
-9.00,-13.00,+0.00,+5.00,+11.00,+9.00,+1.00,+4.00,+12.00,-18.00,-11.00,-17.00,-3.00,+4.00,+1.00,+6.00
+13.00,+25.00,+8.00,+7.00,+21.00,-6.00,+2.00,+2.00,-11.00,+10.00,+6.00,+14.00,+4.00,-6.00,-1.00,-22.00
+15.00,+47.00,+6.00,+2.00,-12.00,+2.00,+5.00,+10.00,-32.00,-8.00,-7.00,+4.00,-5.00,-10.00,-18.00,-22.00
-9.00,-11.00,-8.00,-12.00,-26.00,-7.00,-10.00,-22.00,-17.00,-11.00,+1.00,+12.00,-1.00,+4.00,+11.00,+9.00
-3.00,-14.00,-4.00,-1.00,+0.00,+1.00,+1.00,-8.00,-51.00,-28.00,-11.00,-12.00,-4.00,-8.00,-17.00,-82.00
-14.00,-14.00,-8.00,-2.00,+11.00,+3.00,-5.00,-2.00,+100.00,+31.00,+11.00,+2.00,-1.00,+11.00,+22.00,+93.00
+7.00,-20.00,-1.00,-4.00,-30.00,-11.00,-1.00,+8.00,+11.00,+22.00,+3.00,-10.00,-7.00,-6.00,-18.00,-61.00
-13.00,-2.00,+4.00,+4.00,+14.00,+3.00,+10.00,+2.00,-26.00,-24.00,-2.00,+15.00,+15.00,+3.00,+4.00,+12.00
+2.00,-8.00,+0.00,-6.00,-6.00,+2.00,+3.00,+6.00,-6.00,+6.00,-3.00,+1.00,-5.00,+2.00,+7.00,+31.00
+19.00,+20.00,+2.00,+1.00,-22.00,-6.00,-2.00,-1.00,-43.00,-13.00,-11.00,-14.00,-15.00,-15.00,-20.00,-66.00
-14.00,-10.00,-6.00,-6.00,+5.00,+1.00,-5.00,-14.00,+7.00,-22.00,-6.00,-17.00,-3.00,+3.00,+7.00,+32.00
+12.00,-1.00,-5.00,-5.00,-22.00,-7.00,-5.00,+1.00,-2.00,-1.00,-3.00,-7.00,-1.00,-2.00,-7.00,-23.00
-18.00,+46.00,+9.00,+6.00,+1.00,+1.00,-5.00,-17.00,+15.00,+8.00,+7.00,+14.00,+9.00,+0.00,+8.00,+3.00
-2.00,-10.00,-4.00,-11.00,-7.00,+0.00,+7.00,+5.00,-36.00,-15.00,+4.00,+6.00,+5.00,+3.00,-6.00,-10.00
-19.00,-15.00,-4.00,+1.00,-4.00,-2.00,+0.00,+7.00,+7.00,-18.00,-11.00,-9.00,-5.00,+0.00,+1.00,+13.00
+5.00,-16.00,-6.00,-4.00,+13.00,+3.00,-3.00,-15.00,+13.00,+15.00,+5.00,-6.00,-3.00,+2.00,+6.00,+4.00
+9.00,-13.00,-7.00,-3.00,-27.00,-4.00,-2.00,+8.00,+30.00,+15.00,-1.00,+3.00,-2.00,-3.00,-6.00,+20.00
+14.00,+12.00,+5.00,+9.00,+13.00,+1.00,+0.00,+0.00,+85.00,+18.00,+6.00,+8.00,+2.00,+8.00,+17.00,+44.00
-4.00,-5.00,-1.00,+1.00,+20.00,+0.00,-3.00,-6.00,-116.00,-13.00,-7.00,-24.00,-10.00,-11.00,-19.00,-41.00
-3.00,+16.00,+12.00,+3.00,-13.00,+0.00,+6.00,+21.00,-16.00,-21.00,-13.00,+0.00,-6.00,-7.00,-5.00,-30.00
+13.00,+14.00,-1.00,+1.00,+29.00,+5.00,-2.00,-1.00,+47.00,+12.00,+7.00,+7.00,+4.00,+1.00,+1.00,+29.00
-23.00,-11.00,-2.00,-1.00,-12.00,+0.00,+0.00,-1.00,+16.00,+5.00,-9.00,-17.00,-8.00,-2.00,+3.00,-17.00
+21.00,-3.00,-4.00,-7.00,-23.00,-9.00,-5.00,-6.00,-22.00,-38.00,-1.00,+12.00,+2.00,+0.00,-6.00,+3.00
+34.00,+41.00,+10.00,+10.00,+1.00,+2.00,+0.00,-4.00,+52.00,+32.00,+9.00,+4.00,+0.00,+0.00,+12.00,+35.00
+2.00,-14.00,+0.00,+3.00,+24.00,+2.00,+3.00,+4.00,-40.00,-20.00,-6.00,-1.00,-3.00,-3.00,-8.00,-26.00
-33.00,-27.00,-10.00,-12.00,-21.00,+1.00,-5.00,-14.00,-15.00,-13.00,-3.00,+11.00,+7.00,+3.00,+4.00,+29.00
-26.00,+18.00,+5.00,+3.00,+13.00,+10.00,+0.00,-1.00,+40.00,+25.00,+8.00,-4.00,-4.00,+4.00,+16.00,+3.00
+20.00,-16.00,-7.00,-9.00,-12.00,-8.00,+2.00,+30.00,+17.00,+17.00,+9.00,+11.00,+10.00,+0.00,-2.00,+18.00
+38.00,+16.00,+2.00,-3.00,-18.00,-6.00,+2.00,+0.00,-14.00,+4.00,+2.00,+6.00,+2.00,+2.00,+4.00,-13.00
+0.00,-8.00,-1.00,+2.00,+17.00,+0.00,-1.00,+2.00,-91.00,-26.00,-8.00,-2.00,+0.00,-12.00,-22.00,-62.00
-46.00,-14.00,-2.00,+1.00,+10.00,+8.00,-2.00,-9.00,+51.00,+15.00,+4.00,+18.00,+3.00,+7.00,+10.00,+37.00
-12.00,+26.00,+4.00,+1.00,-16.00,-1.00,+7.00,+16.00,-20.00,-20.00,-6.00,+2.00,-4.00,-3.00,-14.00,-42.00
+15.00,-16.00,-7.00,-7.00,-13.00,-7.00,-4.00,-13.00,+22.00,+18.00,+2.00,+6.00,+1.00,-5.00,+1.00,+27.00
+6.00,-2.00,-2.00,+5.00,+37.00,+13.00,+2.00,+22.00,-29.00,-27.00,-9.00,-4.00,-1.00,+3.00,-3.00,-28.00
+17.00,-8.00,-8.00,-3.00,-4.00,-7.00,-6.00,-9.00,-44.00,-14.00,-7.00,-15.00,-3.00,+2.00,+14.00,+3.00
-32.00,-19.00,-1.00,+2.00,+15.00,+6.00,+1.00,-12.00,+38.00,+0.00,-6.00,-20.00,-8.00,+2.00,+13.00,+2.00
-25.00,+8.00,+8.00,+5.00,+33.00,+8.00,+2.00,+1.00,-4.00,-3.00,+3.00,+1.00,+0.00,-4.00,-10.00,+41.00
+15.00,+26.00,+8.00,+6.00,-28.00,-10.00,+2.00,-2.00,+69.00,+6.00,+16.00,+20.00,+6.00,+13.00,+28.00,+66.00
+18.00,+7.00,+5.00,+3.00,-10.00,-1.00,+5.00,+21.00,-34.00,-17.00,-6.00,+20.00,+7.00,-5.00,-16.00,-48.00
-3.00,-33.00,-8.00,-4.00,+10.00,+0.00,-9.00,-20.00,-9.00,+14.00,+1.00,-9.00,-5.00,-3.00,-6.00,-7.00
-18.00,+3.00,-3.00,-2.00,-1.00,-5.00,-3.00,-24.00,-39.00,-9.00,-5.00,-1.00,-1.00,-4.00,-7.00,-37.00
-17.00,-2.00,+1.00,+0.00,+4.00,-4.00,-2.00,+3.00,+0.00,-18.00,-11.00,-7.00,-3.00,-7.00,-15.00,-24.00
+5.00,+9.00,+0.00,+0.00,+1.00,-3.00,-4.00,+4.00,+23.00,+6.00,+8.00,+23.00,+11.00,+2.00,-4.00,+27.00
+23.00,+19.00,+2.00,-6.00,-10.00,+3.00,+6.00,-1.00,+19.00,+8.00,+3.00,-2.00,+0.00,+2.00,+15.00,+48.00
-14.00,-33.00,-3.00,+6.00,+1.00,-4.00,+0.00,+6.00,+2.00,+4.00,-6.00,-16.00,-11.00,+3.00,+4.00,-18.00
-10.00,-6.00,-9.00,-8.00,+2.00,-6.00,-6.00,-14.00,+17.00,+14.00,-1.00,-6.00,-3.00,-4.00,-5.00,-2.00
+15.00,-17.00,+0.00,-4.00,-9.00,-7.00,-3.00,+10.00,-28.00,+1.00,-4.00,+10.00,+5.00,-8.00,-19.00,-41.00
+1.00,-5.00,+4.00,+5.00,-17.00,-6.00,-4.00,+3.00,+1.00,-5.00,+1.00,+11.00,-2.00,-3.00,-7.00,+3.00
+1.00,-13.00,-6.00,-7.00,-4.00,+3.00,-1.00,+3.00,+7.00,+4.00,-4.00,-9.00,-3.00,+3.00,+4.00,+6.00
+12.00,+32.00,+0.00,+0.00,+13.00,+3.00,-6.00,-9.00,-12.00,+16.00,-1.00,-6.00,-2.00,-2.00,+1.00,+8.00
-1.00,+11.00,-5.00,-4.00,-5.00,-5.00,-1.00,-5.00,+12.00,-3.00,+4.00,+7.00,+3.00,+5.00,+6.00,-4.00
-12.00,-10.00,+2.00,+12.00,+35.00,+9.00,+3.00,-7.00,-30.00,-16.00,-8.00,+5.00,+6.00,-5.00,-8.00,-29.00
+9.00,+1.00,+2.00,-2.00,-6.00,-7.00,-5.00,-3.00,+10.00,-11.00,-11.00,-23.00,-14.00,-3.00,+9.00,+34.00
+24.00,+3.00,+5.00,+1.00,-14.00,+2.00,+9.00,+35.00,+17.00,+25.00,-1.00,-32.00,-11.00,-4.00,+0.00,+4.00
-13.00,-11.00,-7.00,-5.00,-1.00,+2.00,-4.00,-18.00,+43.00,+11.00,+2.00,-3.00,-4.00,-2.00,-2.00,+1.00
-27.00,-6.00,-6.00,+3.00,+15.00,+0.00,-4.00,-13.00,-52.00,-18.00,-4.00,-11.00,-3.00,-4.00,-10.00,-22.00
-17.00,-19.00,-5.00,-3.00,-9.00,+0.00,-2.00,-6.00,-68.00,-22.00,-4.00,-9.00,-3.00,-7.00,-14.00,-56.00
-5.00,+9.00,+3.00,+5.00,-2.00,-5.00,-4.00,-13.00,-15.00,+2.00,-1.00,+17.00,+9.00,+2.00,+1.00,+47.00
+7.00,+13.00,+5.00,-2.00,+12.00,+6.00,-5.00,+6.00,-24.00,-8.00,-8.00,-11.00,-5.00,-4.00,-7.00,-36.00
-3.00,-24.00,-6.00,-8.00,-14.00,-5.00,+10.00,+7.00,+39.00,-2.00,+14.00,+10.00,+7.00,+16.00,+32.00,+56.00
-2.00,+16.00,+2.00,-1.00,-10.00,-6.00,-7.00,-17.00,+36.00,+4.00,-4.00,-2.00,+1.00,+0.00,+0.00,+1.00
-16.00,-15.00,-7.00,-5.00,+38.00,+7.00,+1.00,-1.00,+2.00,-1.00,+0.00,-4.00,+0.00,-2.00,-1.00,+9.00
+16.00,+4.00,+6.00,+3.00,-47.00,-10.00,+1.00,+5.00,-3.00,-18.00,-1.00,+0.00,+0.00,+1.00,+0.00,-15.00
+5.00,+1.00,-3.00,-7.00,-15.00,-3.00,-9.00,-5.00,-36.00,+7.00,-4.00,-9.00,-1.00,-2.00,-11.00,-21.00
+10.00,+3.00,+2.00,+7.00,+9.00,+8.00,+5.00,+10.00,-35.00,-7.00,-4.00,+0.00,-1.00,-6.00,-10.00,-28.00
-13.00,-16.00,+0.00,-3.00,+4.00,+6.00,-6.00,-14.00,+49.00,+18.00,-1.00,+5.00,-11.00,-6.00,-3.00,+25.00
-3.00,-4.00,-1.00,+4.00,+17.00,-2.00,+0.00,-8.00,-27.00,-15.00,-5.00,-4.00,-3.00,+0.00,+6.00,+14.00
-8.00,-1.00,-6.00,-5.00,-22.00,-14.00,-10.00,-18.00,-6.00,-6.00,-5.00,-6.00,-9.00,-7.00,-14.00,-26.00
-28.00,-45.00,-16.00,-13.00,-34.00,-17.00,-4.00,-7.00,+49.00,+22.00,+18.00,+19.00,+13.00,+11.00,+23.00,+47.00
+78.00,+57.00,+13.00,+1.00,-5.00,+3.00,+2.00,+8.00,-42.00,-10.00,-9.00,-16.00,-11.00,-7.00,-11.00,-48.00
-12.00,+6.00,+12.00,+7.00,+24.00,+8.00,+6.00,+4.00,+56.00,+19.00,+5.00,-20.00,-6.00,-2.00,+5.00,+29.00
+6.00,+26.00,+4.00,+5.00,-1.00,+7.00,+6.00,+9.00,-7.00,-5.00,-7.00,-12.00,-6.00,+1.00,+8.00,+16.00
-8.00,-5.00,-6.00,-5.00,+5.00,+0.00,-4.00,-5.00,-42.00,-7.00,+5.00,+12.00,+3.00,-3.00,-7.00,-32.00
+0.00,-19.00,-9.00,-1.00,-1.00,-1.00,-1.00,+2.00,-14.00,-12.00,-9.00,-13.00,-2.00,-8.00,-14.00,-42.00
-11.00,-24.00,-10.00,-4.00,+2.00,-1.00,-2.00,+2.00,+40.00,+9.00,-7.00,+4.00,+0.00,-5.00,-4.00,+42.00
+24.00,+23.00,+6.00,-6.00,-10.00,-3.00,-1.00,+8.00,-41.00,+22.00,+2.00,-24.00,-16.00,-1.00,+6.00,-6.00
+5.00,+15.00,+2.00,+1.00,+3.00,-1.00,-1.00,+1.00,+7.00,+4.00,+1.00,+5.00,+2.00,+5.00,+4.00,+3.00
-41.00,-29.00,-4.00,-1.00,-16.00,-1.00,-2.00,-7.00,+24.00,+2.00,+13.00,+9.00,+6.00,+9.00,+16.00,+29.00
+21.00,+4.00,-3.00,-2.00,+15.00,-7.00,-10.00,+6.00,+20.00,-1.00,+1.00,-6.00,-4.00,-1.00,-2.00,-3.00
-20.00,-23.00,-3.00,+7.00,+21.00,+3.00,+11.00,-12.00,-21.00,-25.00,-8.00,-2.00,+2.00,-2.00,-8.00,-42.00
-30.00,+24.00,+5.00,+6.00,+11.00,+3.00,+0.00,-2.00,+9.00,-1.00,-4.00,-6.00,-2.00,-2.00,-3.00,+6.00
+12.00,+1.00,-1.00,-3.00,+5.00,-2.00,+3.00,+15.00,+14.00,+8.00,+1.00,-5.00,-1.00,+4.00,+13.00,+24.00
-5.00,-16.00,-3.00,-3.00,-21.00,-6.00,-6.00,-9.00,-61.00,-7.00,-3.00,+1.00,-2.00,-1.00,-3.00,-45.00
-12.00,-6.00,-5.00,+0.00,+3.00,+1.00,-9.00,-13.00,+59.00,+2.00,+2.00,+14.00,+4.00,+2.00,-6.00,+35.00
+16.00,-9.00,-6.00,-4.00,+1.00,+4.00,-3.00,-6.00,-24.00,-16.00,-12.00,-25.00,-7.00,-2.00,+5.00,-8.00
+1.00,+7.00,+3.00,-4.00,-15.00,-10.00,-2.00,+2.00,+6.00,+5.00,+5.00,+10.00,+4.00,-2.00,-7.00,-10.00
-8.00,-15.00,-4.00,-4.00,-10.00,+2.00,+5.00,+4.00,+24.00,+7.00,-1.00,-7.00,-7.00,-5.00,-1.00,+35.00
-4.00,+8.00,+6.00,+2.00,+17.00,+5.00,+3.00,+5.00,+1.00,+7.00,+0.00,+9.00,+6.00,+2.00,+9.00,+6.00
+50.00,+65.00,+13.00,+3.00,-29.00,+1.00,+4.00,+9.00,+1.00,+3.00,+0.00,-7.00,-6.00,-5.00,-14.00,-17.00
-35.00,-21.00,-6.00,-7.00,-8.00,-2.00,-4.00,-8.00,-15.00,-21.00,-6.00,-4.00,+1.00,-3.00,-7.00,-6.00
-10.00,-11.00,-5.00,+0.00,+3.00,+6.00,+0.00,-8.00,-25.00,-6.00,-10.00,-10.00,-2.00,-4.00,-7.00,-27.00
+35.00,+9.00,+5.00,+4.00,-4.00,-2.00,+5.00,+33.00,+22.00,+21.00,-1.00,-6.00,-6.00,+2.00,+6.00,-13.00
-38.00,-22.00,-7.00,+2.00,+29.00,-3.00,-9.00,-12.00,+58.00,+10.00,+1.00,-3.00,-2.00,+1.00,+5.00,+39.00
-9.00,-23.00,-7.00,-9.00,-33.00,-3.00,+0.00,-5.00,+13.00,-24.00,-3.00,+2.00,+1.00,+3.00,+12.00,+24.00
+38.00,+27.00,+11.00,+6.00,+16.00,+6.00,+10.00,+20.00,-69.00,+27.00,+7.00,+11.00,+2.00,+0.00,+0.00,-18.00
-26.00,+14.00,+4.00,+0.00,-6.00,+2.00,-3.00,-10.00,+36.00,-7.00,-7.00,-5.00,-5.00,-7.00,-9.00,+23.00
+13.00,-26.00,-8.00,+3.00,+16.00,-5.00,+0.00,+5.00,-40.00,-11.00,+4.00,+21.00,+10.00,-8.00,-21.00,-69.00
+18.00,+34.00,+2.00,+0.00,+16.00,+0.00,-1.00,-2.00,+28.00,+23.00,+5.00,-3.00,-5.00,+2.00,+10.00,+20.00
-50.00,-29.00,-7.00,-13.00,-43.00,-5.00,-2.00,-20.00,+7.00,-21.00,-2.00,+1.00,-2.00,+1.00,-4.00,+8.00
+15.00,-5.00,-2.00,-4.00,-7.00,-8.00,-10.00,-8.00,+18.00,+15.00,+9.00,+13.00,+2.00,-7.00,-15.00,-14.00
+12.00,+17.00,+10.00,+9.00,+17.00,+10.00,+10.00,+19.00,-51.00,-22.00,-1.00,+4.00,+5.00,+8.00,+15.00,-3.00
-12.00,-22.00,-6.00,+3.00,+8.00,+5.00,-2.00,-7.00,+29.00,+25.00,+3.00,+0.00,+0.00,+2.00,+11.00,+56.00
+6.00,+19.00,-2.00,+5.00,+29.00,+5.00,-6.00,-9.00,-14.00,-21.00,-3.00,-2.00,+3.00,-1.00,-3.00,-43.00
-1.00,-3.00,+0.00,-1.00,-39.00,-11.00,-6.00,+1.00,-61.00,+1.00,-1.00,+10.00,-3.00,-7.00,-10.00,+5.00
-32.00,-4.00,-5.00,-13.00,-23.00,-4.00,+5.00,-25.00,+56.00,+12.00,-1.00,-6.00,-9.00,+0.00,-1.00,+9.00
-5.00,-17.00,-2.00,+4.00,+13.00,-1.00,+5.00,+16.00,-98.00,-39.00,-11.00,+12.00,+10.00,-7.00,-27.00,-82.00
-8.00,+18.00,+1.00,+4.00,+23.00,+3.00,-1.00,-9.00,+46.00,+35.00,+12.00,-6.00,-7.00,+7.00,+23.00,+73.00
-7.00,-28.00,-11.00,-8.00,-21.00,-10.00,-8.00,-9.00,+24.00,-1.00,-1.00,+1.00,+0.00,-3.00,-11.00,-28.00
+37.00,+5.00,-2.00,-5.00,-13.00,-2.00,-4.00,+14.00,-5.00,+6.00,+7.00,+17.00,+11.00,+5.00,+8.00,+16.00
-10.00,+15.00,+3.00,-1.00,-10.00,-3.00,-1.00,+1.00,-19.00,-7.00,-3.00,-5.00,-5.00,-5.00,-7.00,-16.00
+22.00,+16.00,+5.00,+11.00,+28.00,+7.00,+6.00,+4.00,-16.00,-13.00,-5.00,+7.00,+4.00,-7.00,-13.00,-19.00
-8.00,-20.00,-8.00,-5.00,+14.00,-4.00,-7.00,-5.00,-10.00,-22.00,-1.00,-5.00,+0.00,-4.00,-3.00,-8.00
+19.00,-1.00,+1.00,-4.00,-13.00,+0.00,+2.00,+15.00,-7.00,+4.00,-1.00,+1.00,-4.00,-3.00,-7.00,+10.00
-8.00,-4.00,-4.00,-1.00,+8.00,-5.00,-4.00,-8.00,+27.00,+5.00,-2.00,+6.00,-5.00,-1.00,-2.00,-2.00
-2.00,+23.00,-5.00,-4.00,-23.00,-13.00,-2.00,+1.00,+4.00,+4.00,+1.00,-3.00,-3.00,-3.00,-4.00,-19.00
+6.00,+8.00,+4.00,+7.00,+15.00,+10.00,+4.00,+8.00,+12.00,+3.00,-5.00,-8.00,-5.00,-7.00,-8.00,-11.00
+1.00,-6.00,+8.00,+5.00,+2.00,+2.00,+4.00,+9.00,-16.00,-21.00,-7.00,-16.00,-5.00,+1.00,+10.00,+36.00
+3.00,-7.00,+2.00,+5.00,+10.00,+5.00,-3.00,-4.00,-11.00,-10.00,-12.00,-15.00,-10.00,-5.00,-8.00,-18.00
-5.00,-36.00,-8.00,+2.00,+25.00,+2.00,-1.00,-2.00,+36.00,+0.00,-1.00,-8.00,-2.00,+7.00,+18.00,+27.00
-9.00,+27.00,-3.00,+2.00,+16.00,-2.00,-8.00,-30.00,-77.00,-29.00,-7.00,-1.00,+6.00,-1.00,-11.00,-24.00
+37.00,+22.00,+6.00,+0.00,+5.00,+3.00,+5.00,+27.00,+1.00,+5.00,-4.00,-15.00,-13.00,-9.00,-14.00,-31.00
-13.00,+0.00,+10.00,+6.00,-1.00,+4.00,+10.00,+21.00,+1.00,+11.00,+13.00,+9.00,+8.00,+9.00,+26.00,+21.00
-12.00,-12.00,-3.00,-9.00,-20.00,-5.00,-5.00,-8.00,+21.00,+12.00,+0.00,+8.00,+3.00,+4.00,+3.00,+23.00
-2.00,+1.00,-6.00,-4.00,+10.00,+5.00,-2.00,-6.00,-7.00,-2.00,+5.00,+11.00,+5.00,-1.00,-11.00,-24.00
-14.00,-22.00,-11.00,-4.00,-21.00,-10.00,-8.00,-24.00,-1.00,-10.00,+1.00,+3.00,+5.00,+0.00,+2.00,-12.00
+4.00,-1.00,+2.00,+3.00,+17.00,+3.00,-1.00,+0.00,-76.00,-15.00,-3.00,-7.00,+3.00,-6.00,-27.00,-41.00
-11.00,-2.00,-2.00,-3.00,-13.00,-3.00,-6.00,-5.00,+3.00,-10.00,-4.00,+15.00,+2.00,+6.00,+5.00,+16.00
+9.00,-16.00,+3.00,-2.00,+4.00,+3.00,+11.00,+18.00,+79.00,+25.00,+12.00,+8.00,+3.00,+15.00,+33.00,+73.00
-10.00,+18.00,-1.00,-2.00,-23.00,-9.00,-6.00,-10.00,+2.00,+7.00,+3.00,+29.00,+10.00,-1.00,-8.00,+1.00
-30.00,-24.00,-10.00,-15.00,-26.00,-7.00,-8.00,-33.00,+20.00,-3.00,-1.00,+0.00,-4.00,-2.00,+1.00,+4.00
-10.00,-8.00,-1.00,-1.00,+5.00,-6.00,-10.00,-13.00,-34.00,-23.00,-7.00,-8.00,-1.00,-7.00,-10.00,-38.00
-3.00,+5.00,+8.00,+3.00,+9.00,+10.00,+9.00,+23.00,-13.00,-11.00,-7.00,-11.00,-6.00,-3.00,-6.00,+6.00
+34.00,+18.00,+11.00,+6.00,+10.00,+9.00,+8.00,+14.00,+26.00,+29.00,+7.00,+11.00,+2.00,-1.00,-5.00,-6.00
-8.00,+18.00,+3.00,-5.00,-5.00,-2.00,+0.00,+9.00,-6.00,-14.00,-1.00,+5.00,+2.00,+0.00,+3.00,-11.00
-15.00,-41.00,-13.00,-7.00,-2.00,-1.00,-6.00,-24.00,-25.00,+0.00,-2.00,+0.00,+0.00,-4.00,-9.00,-5.00
-16.00,+1.00,-17.00,-8.00,+11.00,+0.00,-9.00,-23.00,+34.00,-10.00,-5.00,+6.00,+2.00,-2.00,+6.00,+19.00
-4.00,-9.00,+14.00,+5.00,-24.00,+0.00,+5.00,+21.00,-74.00,-11.00,-8.00,-23.00,-11.00,-9.00,-20.00,-72.00
+46.00,+27.00,+2.00,+0.00,-12.00,-6.00,+1.00,+21.00,+74.00,+19.00,+8.00,+8.00,+2.00,+8.00,+28.00,+97.00
+2.00,+18.00,+2.00,+3.00,+8.00,-4.00,+2.00,+4.00,-11.00,+2.00,+2.00,-10.00,-5.00,+0.00,+9.00,+36.00
-10.00,-17.00,-3.00,-2.00,-15.00,+1.00,+5.00,+9.00,+8.00,-5.00,-4.00,-3.00,-3.00,-1.00,+5.00,+7.00
-32.00,-38.00,-17.00,-11.00,+3.00,+0.00,-9.00,-27.00,-6.00,-22.00,-4.00,-3.00,+6.00,-2.00,-8.00,-21.00
-5.00,-1.00,-2.00,+1.00,-1.00,-2.00,-4.00,-2.00,-28.00,-2.00,-10.00,-15.00,-9.00,-15.00,-26.00,-33.00
+14.00,+1.00,+1.00,-5.00,-8.00,+0.00,-2.00,+11.00,+11.00,+21.00,+10.00,+17.00,+15.00,+13.00,+5.00,-6.00
-20.00,+13.00,+3.00,+0.00,+5.00,+2.00,+0.00,-20.00,+25.00,+22.00,+6.00,-11.00,-3.00,+8.00,+26.00,+9.00
-2.00,-4.00,+5.00,+6.00,-6.00,-1.00,-3.00,-5.00,-30.00,-17.00,-7.00,-5.00,-4.00,-1.00,-4.00,-8.00
+1.00,-14.00,-3.00,+3.00,+31.00,+8.00,+5.00,-1.00,+43.00,-3.00,+4.00,+6.00,+2.00,+7.00,+19.00,+43.00
+13.00,+26.00,+6.00,+2.00,-7.00,+0.00,+4.00,+11.00,+35.00,+8.00,+0.00,-7.00,-7.00,-9.00,-15.00,-18.00
+9.00,+9.00,+0.00,+2.00,-6.00,-8.00,-5.00,+4.00,-53.00,-10.00,-6.00,-1.00,+2.00,-4.00,-14.00,-25.00
-39.00,-15.00,-12.00,-9.00,+20.00,+3.00,-11.00,-15.00,-5.00,-24.00,-4.00,+0.00,+2.00,+0.00,+3.00,-3.00
+7.00,-32.00,-4.00,+2.00,-20.00,-7.00,+1.00,-13.00,-26.00,+2.00,-2.00,+4.00,+4.00,-9.00,-22.00,-48.00
+8.00,+43.00,+10.00,+1.00,+6.00,+11.00,+11.00,+14.00,+10.00,+25.00,+7.00,+9.00,+2.00,+0.00,+5.00,+10.00
-37.00,-3.00,-4.00,-1.00,-6.00,-3.00,-7.00,-16.00,+37.00,-2.00,+0.00,+9.00,-7.00,-4.00,+0.00,+28.00
+64.00,+7.00,+1.00,+1.00,+6.00,-3.00,+8.00,+30.00,+46.00,+37.00,+5.00,+3.00,-2.00,+5.00,+19.00,+61.00
-4.00,+33.00,+8.00,+7.00,+9.00,+5.00,+6.00,+23.00,-10.00,-2.00,+1.00,+1.00,+0.00,+1.00,-2.00,-13.00
-18.00,-21.00,-6.00,+0.00,+6.00,-2.00,-4.00,-15.00,-39.00,-25.00,-13.00,-17.00,-11.00,-13.00,-23.00,-38.00
+27.00,+4.00,+1.00,+1.00,+6.00,-2.00,+2.00,+15.00,+6.00,-3.00,-4.00,-11.00,+1.00,-3.00,-3.00,-34.00
-24.00,-13.00,-2.00,-5.00,-18.00,-9.00,-9.00,-18.00,-9.00,-4.00,+9.00,+22.00,+7.00,+7.00,+10.00,+48.00
+8.00,+8.00,+1.00,+3.00,+3.00,+0.00,+0.00,-4.00,-42.00,-2.00,+8.00,+18.00,+2.00,-5.00,-19.00,-24.00
+11.00,+2.00,+1.00,+3.00,+13.00,+4.00,+3.00,+8.00,-21.00,-14.00,-11.00,-30.00,-7.00,+1.00,+8.00,-44.00
+1.00,-4.00,-1.00,-6.00,-21.00,-7.00,-3.00,-2.00,+38.00,+8.00,+7.00,+15.00,+6.00,+11.00,+25.00,+85.00
-35.00,-23.00,-10.00,+2.00,+11.00,-1.00,-4.00,-14.00,+0.00,-8.00,-10.00,-17.00,-10.00,-10.00,-17.00,-10.00
+5.00,-4.00,+1.00,-2.00,-9.00,-3.00,+0.00,+9.00,+63.00,+21.00,-1.00,-14.00,-4.00,+5.00,+12.00,+4.00
-2.00,+10.00,-1.00,+1.00,+15.00,+5.00,+3.00,+1.00,-9.00,+5.00,+3.00,+13.00,+3.00,+1.00,+6.00,+8.00
+21.00,-8.00,-2.00,-12.00,-37.00,-12.00,-7.00,-7.00,-1.00,+17.00,+4.00,-14.00,-7.00,+0.00,+3.00,+18.00
-6.00,+7.00,-6.00,-3.00,+13.00,+1.00,-1.00,+3.00,+24.00,+6.00,+0.00,-7.00,-3.00,+2.00,+9.00,+10.00
-26.00,-24.00,-5.00,-9.00,-33.00,-7.00,-2.00,-12.00,-38.00,-17.00,-5.00,+1.00,-2.00,-3.00,-10.00,-17.00
+4.00,-14.00,-7.00,-6.00,-3.00,-2.00,-2.00,+4.00,+48.00,+6.00,+1.00,-8.00,-1.00,-2.00,-5.00,+7.00
+0.00,-20.00,+1.00,+6.00,+7.00,+8.00,-1.00,-2.00,-59.00,-22.00,-4.00,+2.00,+6.00,-1.00,-12.00,-41.00
+9.00,+32.00,+9.00,+4.00,-9.00,-7.00,+1.00,+15.00,-17.00,+0.00,+0.00,-1.00,-1.00,-1.00,-2.00,-12.00
+10.00,+24.00,+1.00,+7.00,+20.00,+5.00,+8.00,-3.00,-19.00,+9.00,-3.00,-11.00,-12.00,-6.00,-8.00,-41.00
-28.00,-15.00,+2.00,+2.00,-13.00,-6.00,-2.00,+0.00,+33.00,-4.00,-7.00,-3.00,-1.00,-1.00,+7.00,+58.00
+16.00,-7.00,-5.00,+1.00,+11.00,+4.00,+1.00,+6.00,-30.00,-18.00,-7.00,-9.00,-6.00,-5.00,-8.00,-13.00
-21.00,-11.00,-5.00,-2.00,-5.00,-3.00,-5.00,-17.00,+31.00,+14.00,-1.00,-5.00,-4.00,-1.00,-11.00,-25.00
-10.00,-14.00,-9.00,-3.00,+4.00,-1.00,-10.00,-22.00,+17.00,-3.00,+5.00,+6.00,+1.00,+4.00,+6.00,+12.00
-2.00,-3.00,-2.00,-4.00,-11.00,-5.00,-3.00,-5.00,-56.00,-12.00,-8.00,+2.00,+3.00,+1.00,+3.00,-28.00
+5.00,+3.00,+0.00,+1.00,+9.00,+0.00,+3.00,+10.00,-20.00,-7.00,+1.00,-2.00,+4.00,-1.00,-2.00,+12.00
-21.00,-6.00,+1.00,+2.00,+4.00,+4.00,+0.00,-8.00,+14.00,-4.00,-10.00,-19.00,-10.00,-6.00,-4.00,+15.00
+8.00,+1.00,-3.00,-5.00,-1.00,-3.00,-5.00,+3.00,+10.00,-4.00,+1.00,+2.00,+1.00,+1.00,+7.00,+14.00
+6.00,+2.00,+1.00,-1.00,-3.00,+1.00,+2.00,-1.00,+12.00,-1.00,+1.00,+3.00,+0.00,-1.00,-11.00,-16.00
-10.00,-5.00,+0.00,-2.00,+0.00,+0.00,-3.00,-3.00,-16.00,-11.00,-6.00,-11.00,-8.00,-5.00,-13.00,-37.00
-6.00,-9.00,-3.00,+4.00,+1.00,+0.00,-1.00,-7.00,-23.00,-6.00,-3.00,+1.00,-1.00,-4.00,-10.00,-24.00
+11.00,-1.00,-4.00,-4.00,+1.00,-2.00,-3.00,-2.00,+6.00,+3.00,-2.00,-4.00,+1.00,+1.00,+6.00,+14.00
-15.00,-3.00,+6.00,+2.00,-11.00,+1.00,+0.00,-5.00,+14.00,-1.00,+5.00,+13.00,+3.00,+2.00,+3.00,+16.00
-3.00,+9.00,+8.00,+3.00,+5.00,+1.00,+4.00,+8.00,-18.00,-7.00,-7.00,-4.00,-2.00,-3.00,-7.00,-25.00
+0.00,+9.00,+0.00,-1.00,+3.00,+0.00,+3.00,+2.00,+19.00,+7.00,+2.00,+7.00,+1.00,+1.00,+2.00,+17.00
+1.00,-2.00,-9.00,-4.00,-3.00,-3.00,-3.00,-4.00,+6.00,+0.00,-4.00,+3.00,+2.00,-2.00,-1.00,+11.00
+0.00,-3.00,-3.00,-1.00,+4.00,-3.00,-10.00,-6.00,-13.00,-10.00,-1.00,-5.00,+1.00,-3.00,-8.00,-8.00
+0.00,-3.00,-3.00,-3.00,-7.00,-3.00,+6.00,-5.00,-24.00,+7.00,-2.00,+4.00,-8.00,-9.00,-17.00,-34.00
+1.00,-2.00,-1.00,-3.00,+1.00,+0.00,+1.00,+12.00,+19.00,+11.00,+2.00,+6.00,+4.00,+4.00,+8.00,-4.00
-7.00,-4.00,+4.00,-3.00,-3.00,+0.00,+2.00,-4.00,+16.00,-8.00,-5.00,-10.00,-6.00,-1.00,+6.00,+50.00
-1.00,-6.00,-8.00,-3.00,-2.00,-2.00,-4.00,-8.00,+35.00,+13.00,+2.00,+4.00,-2.00,+0.00,+8.00,+32.00
-5.00,+0.00,+2.00,+3.00,+5.00,-1.00,-2.00,-2.00,+0.00,+0.00,+1.00,+0.00,+0.00,+0.00,-4.00,-14.00
-7.00,-7.00,-10.00,-2.00,+8.00,+0.00,-3.00,-2.00,-16.00,-3.00,+0.00,-1.00,-1.00,-3.00,+0.00,-6.00
+0.00,+4.00,+1.00,-4.00,-10.00,+2.00,-4.00,-5.00,-23.00,-8.00,-4.00,+0.00,+3.00,-2.00,-8.00,-29.00
+19.00,+6.00,+3.00,-1.00,-11.00,-3.00,+5.00,+13.00,-10.00,-4.00,-2.00,-1.00,-2.00,-1.00,-2.00,-6.00
-1.00,+2.00,+0.00,-1.00,-4.00,-1.00,-2.00,-2.00,+13.00,+3.00,+0.00,-2.00,-3.00,+0.00,-1.00,+8.00
+1.00,+0.00,-1.00,-2.00,+0.00,+1.00,+1.00,-3.00,-15.00,-6.00,-5.00,-7.00,-4.00,-3.00,-5.00,-14.00
-7.00,-2.00,+0.00,-1.00,-8.00,-4.00,-4.00,-3.00,+6.00,+3.00,+3.00,+0.00,+3.00,+4.00,+4.00,+5.00
+0.00,-1.00,-1.00,+2.00,-1.00,+1.00,+1.00,+6.00,-15.00,-7.00,-2.00,+1.00,-2.00,-4.00,-6.00,-9.00
+8.00,+0.00,-2.00,-1.00,+0.00,-2.00,-4.00,-5.00,+23.00,+3.00,-4.00,-7.00,+0.00,+3.00,+11.00,+8.00
+1.00,-1.00,-1.00,-7.00,+2.00,-2.00,-11.00,-5.00,-1.00,-1.00,-2.00,-2.00,-1.00,+0.00,+5.00,+15.00
+2.00,-2.00,-1.00,-2.00,-2.00,-6.00,-10.00,-3.00,+4.00,+2.00,+1.00,+5.00,-1.00,+1.00,+0.00,-1.00
+2.00,+2.00,-1.00,-1.00,+2.00,+2.00,+20.00,+8.00,-4.00,-3.00,-1.00,-3.00,-4.00,-1.00,-4.00,-3.00
-1.00,-3.00,-3.00,+2.00,+3.00,+5.00,+10.00,+1.00,-9.00,-2.00,+0.00,+7.00,+4.00,-2.00,-5.00,-6.00
+3.00,+0.00,+2.00,-1.00,-1.00,+3.00,-1.00,+4.00,+2.00,+0.00,-2.00,-17.00,-7.00,-1.00,+0.00,+2.00
+0.00,+6.00,+4.00,+2.00,+4.00,+0.00,-4.00,+7.00,+0.00,-4.00,-3.00,+4.00,+0.00,+0.00,+0.00,-1.00
+1.00,-1.00,-3.00,-4.00,-2.00,-6.00,-10.00,-5.00,-17.00,-1.00,+4.00,+11.00,+3.00,+3.00,+4.00,-6.00
-3.00,-1.00,+1.00,-2.00,-1.00,+0.00,-6.00,-4.00,+3.00,+0.00,-6.00,-9.00,-3.00,+4.00,+7.00,+2.00
+4.00,-3.00,-12.00,-3.00,-2.00,-1.00,+11.00,+3.00,-5.00,-2.00,-1.00,+1.00,-4.00,-5.00,-2.00,+2.00
-3.00,-3.00,-1.00,-1.00,-1.00,-2.00,-2.00,-2.00,-5.00,+2.00,-1.00,-4.00,-1.00,-5.00,-11.00,-6.00
+1.00,-2.00,-1.00,-1.00,-2.00,-3.00,-3.00,-3.00,-3.00,-2.00,-1.00,+1.00,-2.00,-3.00,-8.00,-9.00
-5.00,-3.00,-4.00,-2.00,-1.00,-1.00,-1.00,+0.00,+4.00,+2.00,+3.00,+2.00,+1.00,+0.00,+3.00,-1.00
-4.00,+4.00,+5.00,+1.00,-2.00,-2.00,-7.00,-7.00,-2.00,-1.00,+1.00,+3.00,+1.00,+4.00,+5.00,+0.00
-3.00,-2.00,-2.00,+2.00,+0.00,-4.00,-5.00,+1.00,+4.00,+0.00,-3.00,-2.00,-2.00,-1.00,+0.00,+0.00
+0.00,+0.00,-2.00,+0.00,-1.00,-2.00,-1.00,-1.00,+1.00,+0.00,-1.00,-2.00,-2.00,-1.00,+6.00,+0.00
-11.00,-1.00,+1.00,-3.00,-2.00,+1.00,+14.00,-7.00,-1.00,-4.00,-2.00,-4.00,-2.00,-3.00,-4.00,+1.00
+14.00,+4.00,+5.00,-1.00,-6.00,+2.00,+12.00,+13.00,+0.00,-4.00,-1.00,-3.00,-2.00,-2.00,-5.00,-3.00
-3.00,-3.00,-1.00,-4.00,-1.00,+5.00,+2.00,-4.00,+0.00,-2.00,-1.00,-4.00,-1.00,-3.00,+1.00,-1.00
+3.00,+2.00,+0.00,+0.00,+1.00,-1.00,-2.00,-1.00,+7.00,+2.00,-1.00,-4.00,-2.00,-1.00,-2.00,+3.00
-1.00,+2.00,-1.00,-1.00,-1.00,-5.00,-15.00,-3.00,+0.00,+7.00,+1.00,-2.00,-1.00,-2.00,-4.00,-4.00
-9.00,-7.00,-2.00,+0.00,-1.00,-2.00,-8.00,-11.00,-2.00,-11.00,-4.00,+2.00,+2.00,+1.00,+0.00,-5.00
+0.00,-6.00,-8.00,-1.00,+0.00,-2.00,+8.00,+2.00,+7.00,-1.00,-5.00,-7.00,-3.00,-5.00,+6.00,+2.00
+2.00,-1.00,+0.00,-1.00,+0.00,+1.00,-3.00,+4.00,-10.00,-6.00,-6.00,-14.00,-5.00,-3.00,+4.00,-2.00
-4.00,-11.00,-2.00,-1.00,-2.00,+0.00,+5.00,-2.00,-6.00,+1.00,-3.00,-2.00,-1.00,-2.00,-4.00,-7.00
+1.00,+10.00,-1.00,-3.00,+1.00,-3.00,-1.00,+3.00,+5.00,+3.00,-1.00,+4.00,+3.00,+3.00,+2.00,+3.00
+1.00,-6.00,-7.00,+1.00,+1.00,-1.00,+5.00,-1.00,-3.00,-1.00,-4.00,-3.00,+0.00,+4.00,+1.00,-1.00
-3.00,+12.00,-1.00,-3.00,+0.00,-4.00,-10.00,-4.00,+5.00,+7.00,+0.00,+1.00,-1.00,-1.00,-5.00,+0.00
+13.00,-1.00,-3.00,+0.00,+2.00,+1.00,+17.00,+0.00,-2.00,-14.00,-4.00,-4.00,-5.00,-4.00,-5.00,+0.00
+1.00,+0.00,+3.00,+0.00,-2.00,+2.00,+0.00,-1.00,-1.00,+6.00,+2.00,+1.00,-1.00,+2.00,+8.00,+6.00
-2.00,-1.00,+3.00,+0.00,+0.00,+0.00,-6.00,-4.00,+6.00,+32.00,+8.00,+2.00,+0.00,+3.00,+0.00,+6.00
-3.00,-5.00,+0.00,+0.00,-3.00,+1.00,-1.00,-1.00,-11.00,-30.00,-3.00,-2.00,-1.00,-1.00,+1.00,+2.00
-2.00,-3.00,-2.00,+0.00,-1.00,-3.00,-12.00,+2.00,-1.00,+2.00,-3.00,+4.00,+1.00,-1.00,-6.00,+5.00
-2.00,+2.00,+1.00,-1.00,-2.00,-4.00,-10.00,-9.00,-3.00,-9.00,-4.00,-1.00,-2.00,-1.00,-2.00,+0.00
-2.00,-3.00,-3.00,+0.00,+0.00,+1.00,+16.00,+2.00,-6.00,-11.00,-5.00,-1.00,+0.00,-1.00,-6.00,-1.00
-1.00,-9.00,+0.00,-1.00,+1.00,+0.00,+4.00,+1.00,+4.00,+15.00,+4.00,+1.00,-2.00,-6.00,-7.00,+0.00
-2.00,+0.00,+1.00,-1.00,+0.00,-3.00,-8.00,+4.00,-1.00,+0.00,-1.00,-2.00,+0.00,-3.00,-10.00,-5.00
-3.00,-2.00,-2.00,+1.00,+0.00,+0.00,-9.00,-8.00,+3.00,+1.00,+2.00,+0.00,+0.00,-6.00,-1.00,+0.00
-2.00,+4.00,+1.00,-1.00,+0.00,-1.00,-5.00,+0.00,-1.00,+3.00,+2.00,-3.00,-2.00,-4.00,-7.00,-5.00
+0.00,+1.00,+1.00,-1.00,+0.00,+1.00,+0.00,-1.00,+1.00,+2.00,-2.00,-3.00,-3.00,-4.00,-4.00,-4.00
-1.00,+1.00,-4.00,-1.00,-1.00,-1.00,+2.00,+2.00,-1.00,-6.00,-2.00,-1.00,-3.00,-10.00,-7.00,-3.00
-5.00,-4.00,-3.00,-3.00,-2.00,-4.00,-2.00,-2.00,-2.00,+3.00,-2.00,-3.00,-2.00,-6.00,-13.00,-3.00
+3.00,+1.00,+1.00,-2.00,-1.00,-2.00,-2.00,+4.00,-6.00,-10.00,+0.00,+0.00,-1.00,+0.00,-3.00,-5.00
-2.00,-3.00,+0.00,+0.00,+1.00,+0.00,-1.00,-3.00,-1.00,-4.00,-1.00,+1.00,-1.00,-4.00,-4.00,-3.00
-2.00,+1.00,+1.00,-2.00,-1.00,-2.00,-9.00,-1.00,+2.00,+1.00,+1.00,+0.00,+1.00,+3.00,+4.00,+3.00
-3.00,-1.00,-3.00,+1.00,+0.00,-3.00,+0.00,-4.00,-2.00,+1.00,+0.00,-1.00,-1.00,-1.00,-6.00,-3.00
-1.00,+3.00,+1.00,+0.00,-1.00,-1.00,-9.00,-4.00,-2.00,-5.00,-1.00,-2.00,+1.00,+5.00,+7.00,+1.00
+1.00,-1.00,-1.00,+0.00,+0.00,+2.00,+16.00,+3.00,-2.00,+0.00,+0.00,-3.00,+0.00,+4.00,+6.00,-3.00
-2.00,-2.00,-2.00,-2.00,-1.00,-1.00,-7.00,-1.00,-2.00,+2.00,+1.00,-2.00,+0.00,+4.00,+9.00,-1.00
-2.00,+2.00,+4.00,-2.00,+0.00,-1.00,-1.00,-6.00,+0.00,-2.00,+1.00,-2.00,-1.00,+5.00,+5.00,-3.00
-1.00,-10.00,-5.00,-2.00,-1.00,-1.00,-1.00,+5.00,-5.00,-7.00,-1.00,-2.00,+1.00,+4.00,+4.00,-3.00
+1.00,+3.00,-2.00,-1.00,+0.00,+0.00,+0.00,-6.00,+1.00,+3.00,+0.00,+0.00,+0.00,+5.00,+1.00,-2.00
-1.00,-3.00,-2.00,-1.00,+0.00,+0.00,+3.00,+3.00,+0.00,-4.00,-2.00,-2.00,-3.00,+2.00,+6.00,+0.00
-2.00,-11.00,+2.00,+2.00,-1.00,+0.00,+3.00,+0.00,+0.00,-1.00,-4.00,-2.00,+0.00,-3.00,-4.00,-2.00
-1.00,+11.00,-4.00,-1.00,-2.00,-1.00,-7.00,-3.00,+1.00,+0.00,+0.00,-1.00,-4.00,+0.00,+4.00,-1.00
+0.00,+2.00,-2.00,-1.00,-1.00,+0.00,+5.00,-2.00,+3.00,+11.00,+3.00,+2.00,+0.00,-2.00,-9.00,-2.00
+0.00,+3.00,+0.00,+1.00,+0.00,+0.00,+0.00,+5.00,-4.00,-15.00,-8.00,-3.00,+0.00,+0.00,+3.00,-3.00
+0.00,-3.00,+0.00,-1.00,-1.00,-1.00,+4.00,-1.00,-4.00,-3.00,+2.00,+1.00,+2.00,+4.00,+2.00,+4.00
-6.00,-4.00,+2.00,-1.00,-3.00,-7.00,-11.00,-8.00,-4.00,-3.00,-2.00,-3.00,-2.00,-8.00,-8.00,-3.00
-1.00,-6.00,-2.00,-2.00,-4.00,-6.00,-7.00,-3.00,+1.00,+3.00,+1.00,+2.00,-1.00,-4.00,-5.00,-2.00
+4.00,+4.00,-1.00,+1.00,+4.00,+7.00,+5.00,+7.00,-2.00,+13.00,+7.00,+0.00,-2.00,-1.00,-6.00,-4.00
+1.00,+1.00,+1.00,+3.00,+3.00,+4.00,+1.00,-1.00,-4.00,-19.00,-9.00,-3.00,-3.00,-6.00,-10.00,-4.00
-3.00,+2.00,+0.00,-1.00,+0.00,+1.00,+6.00,-8.00,+0.00,-3.00,-1.00,+2.00,+1.00,+0.00,+4.00,+4.00
-2.00,-5.00,-1.00,-1.00,-2.00,-4.00,-11.00,+1.00,-2.00,-4.00,-3.00,-2.00,-1.00,-3.00,-8.00,-1.00
-3.00,-1.00,+1.00,-4.00,-5.00,-7.00,-12.00,-6.00,+2.00,+12.00,+2.00,-1.00,-2.00,-3.00,-7.00,-2.00
-3.00,+0.00,-4.00,-2.00,-2.00,-3.00,-7.00,+1.00,+0.00,+16.00,+4.00,+1.00,-3.00,-10.00,-25.00,-3.00
-3.00,+0.00,+3.00,-1.00,+0.00,+2.00,+27.00,-2.00,-4.00,-17.00,-5.00,-3.00,+0.00,+14.00,+45.00,+2.00
-1.00,-2.00,-5.00,-2.00,-2.00,+0.00,-19.00,+3.00,+3.00,-2.00,-1.00,-1.00,+1.00,+2.00,+17.00,+5.00
-1.00,-4.00,-2.00,+0.00,+2.00,+4.00,+19.00,-1.00,+0.00,-3.00,-2.00,-1.00,-4.00,-2.00,-1.00,+1.00
-2.00,+1.00,-2.00,-1.00,-1.00,+2.00,-6.00,+1.00,+2.00,+7.00,-1.00,-2.00,-1.00,-3.00,+12.00,+2.00
+0.00,-8.00,+2.00,+0.00,-1.00,-4.00,-10.00,-5.00,-3.00,-9.00,-3.00,-2.00,-3.00,-10.00,-30.00,-7.00
+3.00,+14.00,+3.00,+1.00,-1.00,+0.00,+4.00,+11.00,-4.00,+0.00,-3.00,-2.00,-2.00,-1.00,-3.00,-3.00
-1.00,-9.00,-4.00,-1.00,-3.00,-3.00,-6.00,-5.00,+1.00,-2.00,+0.00,+0.00,+1.00,-2.00,+12.00,-1.00
-5.00,-5.00,-3.00,-3.00,-4.00,-4.00,-3.00,-11.00,-2.00,-7.00,-3.00,-1.00,-2.00,+0.00,+3.00,-2.00
+1.00,+8.00,-5.00,+0.00,+0.00,+0.00,+3.00,+9.00,+7.00,+13.00,+4.00,+1.00,-2.00,-6.00,-4.00,+3.00
+1.00,-2.00,+2.00,+1.00,+1.00,+1.00,-8.00,-4.00,-2.00,-5.00,-2.00,-2.00,-2.00,+0.00,-8.00,-3.00
-5.00,+3.00,+2.00,+0.00,+1.00,+0.00,+6.00,-10.00,-1.00,+1.00,-3.00,+0.00,+0.00,-1.00,+1.00,+3.00
-1.00,-3.00,-1.00,-3.00,-4.00,-3.00,+3.00,+9.00,-4.00,+1.00,+3.00,+0.00,-1.00,+0.00,+0.00,-1.00
+0.00,-3.00,+1.00,+1.00,-2.00,+2.00,-4.00,-1.00,-1.00,+5.00,-3.00,-2.00,-1.00,-1.00,-2.00,-1.00
+2.00,-2.00,+1.00,+3.00,+7.00,+5.00,+10.00,+11.00,-6.00,-20.00,-9.00,-2.00,-4.00,-5.00,-3.00,-1.00
+0.00,-1.00,+0.00,+0.00,+2.00,+0.00,-8.00,-2.00,-1.00,+2.00,+1.00,-1.00,-2.00,-5.00,-6.00,-1.00
+1.00,-1.00,+0.00,+1.00,+2.00,-4.00,-4.00,+4.00,-3.00,-14.00,-7.00,-2.00,+1.00,+0.00,-22.00,-4.00
-2.00,-3.00,-3.00,-3.00,-2.00,+2.00,+11.00,-1.00,+1.00,+3.00,-2.00,+1.00,+2.00,+7.00,+36.00,+5.00
-3.00,-3.00,-4.00,-4.00,-6.00,-5.00,-4.00,-17.00,-1.00,+2.00,+1.00,-1.00,+3.00,+2.00,-8.00,-1.00
-3.00,-1.00,-1.00,-1.00,-4.00,-4.00,-13.00,-7.00,+0.00,+4.00,+3.00,+3.00,+0.00,+1.00,+10.00,-1.00
-1.00,+0.00,-1.00,-1.00,+0.00,-2.00,+28.00,+10.00,+1.00,+1.00,-1.00,-4.00,-3.00,+1.00,+16.00,+4.00
-1.00,-3.00,-1.00,+0.00,+1.00,-1.00,-22.00,+2.00,-2.00,-3.00,-1.00,-3.00,-6.00,-11.00,-30.00,-5.00
-1.00,+3.00,+2.00,+0.00,+1.00,+3.00,+13.00,-1.00,+1.00,+4.00,+0.00,+0.00,+1.00,+0.00,+0.00,-1.00
+1.00,-2.00,+0.00,-1.00,-2.00,-1.00,+4.00,+3.00,-4.00,-7.00,-5.00,-3.00,-2.00,-4.00,-13.00,-4.00
+0.00,-1.00,-2.00,-4.00,-9.00,-7.00,-11.00,-2.00,-1.00,+3.00,+3.00,+1.00,+3.00,+9.00,+32.00,+2.00
-3.00,+0.00,+0.00,+1.00,+2.00,-2.00,-8.00,-11.00,-4.00,-1.00,-1.00,+2.00,+0.00,-3.00,-10.00,-3.00
-4.00,-7.00,+0.00,+1.00,+4.00,-1.00,+4.00,+1.00,-4.00,-5.00,-5.00,-5.00,-9.00,-14.00,-20.00,-5.00
+0.00,+6.00,-4.00,-1.00,+2.00,+2.00,+3.00,-1.00,+5.00,+4.00,-1.00,+0.00,+1.00,+8.00,+10.00,+3.00
+4.00,+2.00,-2.00,-1.00,+2.00,+4.00,+0.00,+6.00,-2.00,-10.00,+0.00,+2.00,+2.00,-1.00,-3.00,+1.00
-1.00,-3.00,-1.00,-1.00,-2.00,-1.00,+7.00,+0.00,+1.00,+1.00,+0.00,-1.00,-2.00,+1.00,-4.00,+1.00
-5.00,-2.00,-1.00,-2.00,-4.00,-5.00,-13.00,-7.00,+1.00,+0.00,+1.00,+3.00,+3.00,+0.00,+0.00,+0.00
-2.00,-2.00,-1.00,+1.00,-1.00,-4.00,-7.00,-6.00,-1.00,+2.00,-2.00,-1.00,+2.00,-1.00,-6.00,-4.00
-4.00,-2.00,-2.00,-2.00,+0.00,-2.00,-1.00,-3.00,-2.00,-1.00,-2.00,-6.00,-10.00,-7.00,-4.00,-4.00
+0.00,-1.00,-1.00,-3.00,-3.00,-4.00,-7.00,+3.00,+2.00,+8.00,+6.00,+3.00,+3.00,+7.00,+8.00,+3.00
+1.00,-2.00,-2.00,-1.00,-1.00,+5.00,+24.00,-1.00,-4.00,-11.00,-3.00,-1.00,+1.00,-1.00,+0.00,-1.00
+1.00,+1.00,+0.00,+1.00,+1.00,-3.00,+1.00,+5.00,-1.00,-3.00,-2.00,+0.00,-1.00,-4.00,-10.00,-1.00
+0.00,+0.00,+0.00,+1.00,+3.00,+3.00,-11.00,-10.00,+3.00,+5.00,+0.00,-1.00,+3.00,+4.00,+6.00,-2.00
+0.00,+0.00,-1.00,+1.00,+1.00,-2.00,-2.00,+0.00,-2.00,-1.00,-1.00,-4.00,-3.00,-5.00,-13.00,-5.00
-1.00,+1.00,-2.00,+0.00,-1.00,-3.00,-7.00,-6.00,+0.00,+3.00,+0.00,-1.00,-3.00,-1.00,-1.00,-1.00
+0.00,-2.00,-1.00,+0.00,-3.00,-4.00,-2.00,+8.00,-2.00,-3.00,-2.00,-2.00,+2.00,+6.00,+4.00,-1.00
-3.00,+2.00,-1.00,-2.00,-6.00,-3.00,+6.00,-4.00,+0.00,+3.00,-1.00,+2.00,+1.00,-8.00,-4.00,+0.00
+3.00,+1.00,+1.00,+1.00,+4.00,+2.00,-6.00,-3.00,-1.00,-3.00,-1.00,-2.00,-3.00,-3.00,-2.00,+0.00
+0.00,-8.00,-5.00,-1.00,+0.00,-3.00,-13.00,+0.00,-1.00,+0.00,-3.00,-7.00,-8.00,+1.00,+6.00,+0.00
+0.00,-2.00,+0.00,-2.00,+1.00,+4.00,+19.00,+7.00,-3.00,-4.00,+0.00,+3.00,+1.00,-1.00,+1.00,+2.00
+2.00,-1.00,+2.00,+3.00,+2.00,+4.00,-3.00,+5.00,-2.00,+0.00,+0.00,-1.00,-3.00,-4.00,-14.00,-4.00
-1.00,+1.00,-1.00,-3.00,-10.00,-6.00,+2.00,+2.00,-2.00,-4.00,-4.00,+0.00,-3.00,-4.00,-6.00,-2.00
-2.00,-3.00,+1.00,-1.00,-1.00,+2.00,-1.00,-1.00,-1.00,+0.00,+1.00,+2.00,+4.00,+9.00,+9.00,+1.00
-4.00,-2.00,+5.00,+2.00,+4.00,-3.00,-12.00,-7.00,-2.00,-2.00,-1.00,-4.00,-4.00,-2.00,-2.00,+4.00
+0.00,+5.00,-3.00,-1.00,+0.00,-3.00,-13.00,-6.00,-3.00,-7.00,-7.00,-6.00,-6.00,-3.00,-14.00,-7.00
+2.00,-1.00,-1.00,-1.00,+3.00,+5.00,+22.00,-5.00,-1.00,-3.00,-3.00,-2.00,-3.00,-8.00,-19.00,-5.00
-1.00,-1.00,+0.00,-1.00,-3.00,-2.00,-10.00,+4.00,+2.00,+4.00,+2.00,+2.00,+0.00,+3.00,+24.00,+8.00
+3.00,-1.00,-3.00,-2.00,-6.00,-3.00,+5.00,+4.00,-2.00,+1.00,-1.00,+0.00,+4.00,-3.00,-4.00,-2.00
-2.00,+0.00,+1.00,-3.00,-13.00,-17.00,+4.00,+1.00,+1.00,+8.00,+4.00,+1.00,+10.00,+3.00,+2.00,+1.00
-2.00,-3.00,-1.00,+2.00,+8.00,+8.00,-9.00,-2.00,-4.00,-18.00,-10.00,-9.00,-13.00,-6.00,-10.00,-6.00
-1.00,+2.00,+1.00,+4.00,+13.00,+9.00,+4.00,-3.00,-4.00,+7.00,+0.00,-1.00,-6.00,-4.00,-14.00,-6.00
-4.00,-3.00,+0.00,-1.00,+1.00,+3.00,-2.00,-6.00,-4.00,-18.00,-8.00,-2.00,-1.00,+3.00,+22.00,+4.00
-1.00,-5.00,+0.00,-4.00,-9.00,-8.00,-8.00,+0.00,+2.00,+4.00,-2.00,-1.00,-5.00,-1.00,-2.00,+1.00
-1.00,+3.00,-3.00,-6.00,-19.00,-9.00,-7.00,-1.00,-1.00,+3.00,+2.00,+3.00,+7.00,+0.00,+1.00,-2.00
+0.00,-5.00,-2.00,+4.00,+22.00,+10.00,+7.00,+10.00,+3.00,+3.00,+3.00,+8.00,+8.00,+3.00,+4.00,+0.00
-2.00,-1.00,-2.00,+0.00,+7.00,+5.00,-5.00,-3.00,-2.00,+2.00,-2.00,-3.00,+4.00,+1.00,-7.00,-2.00
-1.00,-4.00,-1.00,+2.00,+6.00,+4.00,-1.00,-4.00,-3.00,-4.00,-3.00,-9.00,-32.00,-9.00,-1.00,-1.00
-3.00,-1.00,-1.00,-4.00,-7.00,-6.00,-10.00,-11.00,-1.00,+0.00,-2.00,+0.00,-2.00,+1.00,+6.00,-1.00
-1.00,+1.00,+0.00,-5.00,-12.00,-5.00,+8.00,+2.00,-1.00,-3.00,+0.00,+7.00,+10.00,+3.00,-2.00,-1.00
-2.00,-1.00,-4.00,-3.00,-3.00,-5.00,-9.00,-1.00,-1.00,+5.00,+2.00,+3.00,+12.00,+7.00,-5.00,+0.00
+1.00,-1.00,+1.00,-1.00,+0.00,+2.00,+9.00,+13.00,-6.00,-13.00,-10.00,-19.00,-21.00,-12.00,+6.00,-1.00
+1.00,-1.00,+1.00,+1.00,+2.00,+2.00,+4.00,+6.00,+0.00,-1.00,-1.00,-7.00,-23.00,-6.00,-2.00,-2.00
+0.00,+5.00,+0.00,-1.00,-6.00,-5.00,-7.00,-2.00,-1.00,-1.00,-1.00,-5.00,-9.00,-2.00,-3.00,-2.00
-1.00,-2.00,+1.00,-2.00,-4.00,-3.00,-5.00,-4.00,-2.00,-2.00,+0.00,+3.00,-1.00,-4.00,-10.00,-2.00
-1.00,-3.00,-2.00,-1.00,+0.00,+2.00,+3.00,-3.00,+2.00,+5.00,+3.00,+10.00,+22.00,+8.00,-1.00,+2.00
-1.00,-1.00,+1.00,+1.00,+6.00,+0.00,+3.00,+5.00,-1.00,+0.00,+0.00,-1.00,+3.00,+2.00,+2.00,+0.00
-3.00,-2.00,-1.00,-2.00,-7.00,-4.00,-10.00,-9.00,-4.00,-5.00,-5.00,-2.00,+2.00,-4.00,-7.00,-2.00
+1.00,+0.00,-1.00,-2.00,-4.00,-1.00,+13.00,+6.00,+0.00,-2.00,-1.00,+1.00,-3.00,-1.00,+12.00,+1.00
-2.00,+0.00,-1.00,+0.00,+3.00,+6.00,-1.00,-4.00,-1.00,+0.00,+1.00,+1.00,+0.00,-2.00,-5.00,-3.00
-1.00,-3.00,-1.00,-2.00,+0.00,-2.00,-3.00,+1.00,-1.00,+0.00,+0.00,+2.00,+6.00,+5.00,+12.00,+2.00
-2.00,-2.00,-1.00,-3.00,-17.00,-17.00,-7.00,-2.00,+0.00,+0.00,-1.00,-2.00,-1.00,-1.00,-10.00,-3.00
-3.00,-2.00,-3.00,-1.00,+6.00,+12.00,+3.00,-5.00,-2.00,-4.00,-2.00,-6.00,-12.00,-5.00,-8.00,-4.00
+0.00,-1.00,+2.00,+2.00,+11.00,+6.00,+7.00,-3.00,+0.00,+1.00,+0.00,+2.00,+2.00,+3.00,+5.00,-1.00
-2.00,-2.00,+0.00,+1.00,+2.00,+1.00,+7.00,+6.00,-1.00,+1.00,+1.00,+3.00,+2.00,-3.00,-5.00,+0.00
+1.00,-1.00,-2.00,+0.00,-3.00,-3.00,-10.00,+4.00,+0.00,-2.00,-2.00,-5.00,-3.00,-3.00,+1.00,-2.00
+1.00,+0.00,-1.00,-2.00,-6.00,-3.00,-7.00,-10.00,-2.00,-2.00,-2.00,-3.00,-5.00,-2.00,-2.00,-2.00
-1.00,-3.00,-3.00,+0.00,+0.00,+0.00,+10.00,+4.00,+0.00,+0.00,+1.00,+13.00,+14.00,+8.00,-5.00,+0.00
-2.00,+2.00,-1.00,-1.00,+2.00,-3.00,-6.00,+2.00,+0.00,-2.00,+0.00,-3.00,+5.00,+2.00,+10.00,+2.00
-1.00,-2.00,+0.00,-1.00,-2.00,-1.00,+1.00,-8.00,-3.00,-1.00,-4.00,-14.00,-29.00,-14.00,+1.00,-2.00
+0.00,-1.00,-1.00,+1.00,+0.00,-2.00,-7.00,-10.00,+0.00,-1.00,+0.00,+0.00,-4.00,-4.00,-14.00,-4.00
