-5.00,-3.00,-2.00,-3.00,-1.00,-2.00,-5.00,-6.00,-2.00,-3.00,-1.00,+0.00,-2.00,+1.00,-5.00,-3.00
-12.00,-4.00,+0.00,-1.00,-2.00,-1.00,+0.00,+10.00,+1.00,+0.00,-2.00,-1.00,-2.00,+1.00,+10.00,+1.00
+16.00,+3.00,+0.00,+0.00,+0.00,+0.00,+1.00,+6.00,-2.00,-3.00,-3.00,-2.00,-1.00,+0.00,-5.00,-3.00
-1.00,+0.00,-1.00,-1.00,-3.00,-3.00,-6.00,-5.00,+0.00,-1.00,-2.00,+0.00,-2.00,-3.00,+2.00,+2.00
-1.00,+0.00,+0.00,-1.00,-3.00,-3.00,-1.00,-7.00,-2.00,-2.00,-1.00,-1.00,-1.00,-6.00,-7.00,-4.00
+2.00,+1.00,-3.00,-1.00,+0.00,+2.00,+7.00,+1.00,-1.00,-2.00,-1.00,-2.00,-1.00,+0.00,-4.00,-3.00
-12.00,-6.00,+0.00,-1.00,+1.00,+0.00,-2.00,-1.00,-4.00,-1.00,+2.00,+2.00,-1.00,-2.00,-1.00,-3.00
-9.00,-5.00,-2.00,-2.00,+1.00,-1.00,-4.00,-5.00,+9.00,+1.00,-2.00,-2.00,-4.00,+1.00,+4.00,+4.00
+6.00,+1.00,+0.00,+0.00,+0.00,+2.00,+2.00,+5.00,-4.00,+1.00,+0.00,+0.00,+0.00,-1.00,-2.00,+0.00
+4.00,-1.00,-1.00,-2.00,-3.00,-5.00,-4.00,-10.00,-7.00,-2.00,-1.00,-1.00,+0.00,+0.00,+0.00,-3.00
+4.00,+0.00,-1.00,-4.00,-2.00,-3.00,-10.00,+8.00,+1.00,-2.00,-4.00,-2.00,-2.00,-1.00,-5.00,+1.00
-1.00,-1.00,+1.00,+1.00,+1.00,+4.00,+2.00,-18.00,+0.00,-1.00,+0.00,+0.00,+0.00,+1.00,+8.00,+2.00
-16.00,-3.00,+0.00,+0.00,+0.00,+4.00,+16.00,+25.00,+4.00,-1.00,-2.00,+0.00,-2.00,-1.00,+7.00,+2.00
-7.00,-3.00,-2.00,+2.00,+1.00,+2.00,+2.00,-3.00,+1.00,-1.00,-2.00,-1.00,+1.00,+0.00,+1.00,+2.00
+48.00,+16.00,+3.00,+2.00,-2.00,-1.00,-1.00,+6.00,-9.00,-1.00,+2.00,+0.00,-2.00,-5.00,-9.00,-7.00
+1.00,-4.00,-3.00,+0.00,-2.00,-6.00,-12.00,-6.00,-1.00,+1.00,+1.00,-1.00,+0.00,+1.00,-7.00,-3.00
+2.00,-2.00,-5.00,-4.00,-3.00,-2.00,-5.00,-5.00,-1.00,-3.00,-1.00,-2.00,+0.00,+3.00,+11.00,+1.00
-10.00,-4.00,-2.00,+0.00,-1.00,+2.00,+2.00,-6.00,-3.00,+1.00,-2.00,+1.00,-3.00,-7.00,-4.00,-3.00
-20.00,-7.00,-3.00,-1.00,-1.00,-2.00,-1.00,+13.00,+10.00,-2.00,-2.00,-2.00,-4.00,-8.00,-17.00,+5.00
-8.00,-3.00,-2.00,-1.00,-1.00,-4.00,+1.00,-1.00,-3.00,-2.00,+0.00,+0.00,-1.00,-4.00,-3.00,-7.00
+21.00,+7.00,+3.00,+0.00,+1.00,+1.00,-8.00,-2.00,-26.00,-3.00,-1.00,-1.00,-1.00,+1.00,-6.00,-8.00
+3.00,-2.00,+0.00,+0.00,-3.00,-4.00,+0.00,+0.00,+4.00,+3.00,+0.00,+1.00,+1.00,+9.00,+19.00,+4.00
+0.00,-1.00,-1.00,-4.00,-3.00,-5.00,-9.00,-6.00,-5.00,-3.00,-4.00,-2.00,-2.00,+2.00,+7.00,-1.00
+10.00,+2.00,+3.00,+2.00,+3.00,+8.00,+9.00,-19.00,+2.00,-2.00,-2.00,-2.00,-5.00,-12.00,-22.00,-2.00
-10.00,-4.00,-3.00,-2.00,+1.00,+0.00,+12.00,+18.00,+6.00,+0.00,-2.00,-2.00,+0.00,+1.00,+11.00,+3.00
-8.00,-3.00,-3.00,-1.00,-1.00,-1.00,-12.00,-11.00,-1.00,-2.00,-1.00,-2.00,-2.00,-7.00,-24.00,-5.00
-11.00,-5.00,+0.00,-1.00,-2.00,-2.00,-1.00,-7.00,-4.00,-1.00,+1.00,+0.00,+2.00,+12.00,+21.00,+4.00
+1.00,-4.00,-4.00,-1.00,-3.00,-5.00,-8.00,+9.00,-4.00,-3.00,-3.00,-2.00,+2.00,-6.00,-13.00,-4.00
-11.00,-2.00,-1.00,-2.00,-3.00,-4.00,+4.00,-9.00,-6.00,+0.00,-2.00,-2.00,-6.00,+2.00,-5.00,-9.00
+5.00,-1.00,+0.00,-2.00,-1.00,-3.00,-9.00,-3.00,-1.00,-5.00,-1.00,-1.00,-1.00,-5.00,+10.00,+6.00
-26.00,-5.00,-4.00,+0.00,+0.00,+0.00,+4.00,-7.00,+5.00,+1.00,+1.00,+0.00,-1.00,-4.00,-4.00,+2.00
+18.00,+1.00,+4.00,+0.00,+0.00,+3.00,+10.00,+14.00,+1.00,-2.00,-1.00,-1.00,+1.00,+4.00,+5.00,-3.00
+12.00,+2.00,-1.00,+0.00,-2.00,+1.00,+5.00,+10.00,+4.00,+2.00,+1.00,+0.00,-1.00,-2.00,-11.00,+1.00
+1.00,-1.00,-2.00,-4.00,-5.00,-5.00,-22.00,-8.00,-4.00,-1.00,-2.00,-1.00,-1.00,+0.00,-1.00,-6.00
-18.00,-4.00,-3.00,-2.00,-1.00,+1.00,+2.00,-5.00,+0.00,-2.00,-3.00,-3.00,-3.00,-4.00,-4.00,-2.00
-7.00,+1.00,+2.00,+0.00,+3.00,+2.00,+4.00,+6.00,+1.00,+0.00,-1.00,+0.00,-2.00,-4.00,+1.00,+1.00
-8.00,-5.00,-4.00,-2.00,-1.00,-1.00,-4.00,-12.00,+28.00,+0.00,-1.00,-1.00,-1.00,+1.00,+25.00,+11.00
+3.00,+3.00,+4.00,+1.00,+1.00,+4.00,+12.00,+6.00,-34.00,-6.00,-1.00,+2.00,+0.00,-5.00,-33.00,-19.00
-9.00,+0.00,+0.00,+0.00,-2.00,-6.00,-15.00,-16.00,-6.00,-2.00,+1.00,+0.00,+1.00,+2.00,+5.00,-2.00
-3.00,-2.00,+0.00,-3.00,-4.00,-6.00,-2.00,+5.00,-2.00,-2.00,-1.00,+0.00,-3.00,-3.00,+1.00,+1.00
+5.00,+3.00,+2.00,+0.00,+1.00,+2.00,+7.00,+1.00,+0.00,-7.00,-3.00,-4.00,-5.00,-4.00,-11.00,-8.00
-2.00,-1.00,-1.00,-3.00,-2.00,-1.00,-4.00,-3.00,+15.00,+7.00,+2.00,+0.00,+2.00,+8.00,+24.00,+12.00
+4.00,-1.00,+0.00,+1.00,+0.00,+4.00,+12.00,-4.00,+3.00,+2.00,-1.00,-1.00,+0.00,-1.00,-7.00,+0.00
+5.00,+2.00,-1.00,+0.00,-2.00,-3.00,-8.00,+11.00,-4.00,-2.00,-1.00,-2.00,-3.00,-3.00,-1.00,-6.00
-6.00,-4.00,+0.00,+0.00,-2.00,+0.00,-9.00,-8.00,-1.00,-1.00,+0.00,+0.00,-1.00,-5.00,-3.00,+2.00
-4.00,+0.00,-2.00,-1.00,-3.00,-3.00,-1.00,-6.00,-1.00,-2.00,-2.00,-1.00,+0.00,+1.00,-2.00,-4.00
+1.00,-6.00,-4.00,-3.00,-2.00,-4.00,-1.00,+9.00,-3.00,-3.00,-3.00,-4.00,-4.00,-8.00,-5.00,+0.00
-7.00,-1.00,-1.00,-2.00,-1.00,+3.00,+5.00,-5.00,+6.00,+3.00,+0.00,+0.00,+2.00,+7.00,+11.00,+5.00
+11.00,-1.00,-2.00,-1.00,+0.00,-2.00,-9.00,+4.00,-8.00,-4.00,-1.00,-3.00,-1.00,-7.00,-22.00,-5.00
+9.00,+3.00,+3.00,+2.00,+3.00,+6.00,+20.00,+14.00,-1.00,-3.00,-1.00,+0.00,-1.00,+6.00,+19.00,+2.00
+5.00,+0.00,-4.00,-1.00,-1.00,-3.00,-10.00,+0.00,+2.00,+4.00,+1.00,+0.00,+0.00,+0.00,+6.00,-4.00
-11.00,-4.00,-6.00,-2.00,-5.00,-4.00,-16.00,-9.00,-6.00,-4.00,-2.00,-2.00,-2.00,-1.00,-8.00,-4.00
-14.00,-5.00,+1.00,+2.00,-1.00,-1.00,+7.00,-11.00,-4.00,-1.00,-1.00,-2.00,-2.00,+1.00,-5.00,-2.00
+1.00,+2.00,+1.00,+1.00,+1.00,-2.00,-3.00,+6.00,+9.00,-2.00,-4.00,-3.00,-1.00,-9.00,-12.00,+5.00
-5.00,-3.00,-1.00,-4.00,-2.00,+1.00,+20.00,+3.00,-1.00,-1.00,-1.00,-1.00,+1.00,+1.00,+1.00,-2.00
+11.00,+2.00,-3.00,-1.00,+3.00,+4.00,+6.00,-5.00,-5.00,-1.00,+3.00,+0.00,-2.00,-4.00,+2.00,-1.00
+27.00,+6.00,+2.00,-1.00,+0.00,-2.00,-5.00,+4.00,-3.00,+0.00,-1.00,+2.00,+3.00,+5.00,-3.00,-3.00
-7.00,-5.00,-3.00,-3.00,-3.00,-10.00,-14.00,-5.00,+7.00,+1.00,+0.00,-2.00,-3.00,+3.00,+10.00,+4.00
-5.00,+1.00,-1.00,+2.00,+3.00,+8.00,+9.00,-3.00,-2.00,-5.00,-4.00,-2.00,-6.00,-13.00,-34.00,-7.00
-14.00,+0.00,-2.00,+0.00,-2.00,+0.00,+12.00,+0.00,+1.00,+0.00,+1.00,+0.00,+2.00,+0.00,+6.00,+3.00
+15.00,+4.00,-2.00,-2.00,-1.00,+1.00,-2.00,+2.00,-2.00,-4.00,-3.00,-3.00,-6.00,-5.00,+2.00,-1.00
-20.00,-6.00,+0.00,+1.00,-1.00,-1.00,+7.00,+1.00,+2.00,+5.00,+3.00,+2.00,+3.00,+3.00,+0.00,+4.00
-4.00,-9.00,-2.00,-3.00,-2.00,-4.00,-20.00,-10.00,-8.00,-2.00,-2.00,+1.00,+0.00,+2.00,-1.00,-3.00
+23.00,+5.00,+0.00,-1.00,-3.00,-2.00,+1.00,+2.00,-10.00,-5.00,-1.00,-1.00,+0.00,+3.00,-15.00,-9.00
-17.00,-3.00,-1.00,+0.00,-1.00,-4.00,-3.00,+3.00,-1.00,-1.00,-1.00,+0.00,+0.00,-10.00,+13.00,-3.00
+1.00,+0.00,-2.00,-2.00,-3.00,-2.00,+1.00,+4.00,+9.00,+1.00,-1.00,-1.00,-4.00,-2.00,+16.00,+7.00
+1.00,+8.00,+2.00,+2.00,+4.00,+3.00,+13.00,+2.00,-1.00,+0.00,-2.00,-2.00,+0.00,+0.00,+1.00,+0.00
-11.00,-7.00,+0.00,+1.00,-2.00,-3.00,-16.00,+2.00,+9.00,+1.00,+0.00,+0.00,-1.00,+0.00,-11.00,+1.00
-4.00,-3.00,-1.00,-2.00,-1.00,-1.00,+1.00,-13.00,+5.00,-2.00,+0.00,-2.00,+0.00,+3.00,+7.00,-1.00
+1.00,-1.00,-3.00,-2.00,-3.00,-6.00,-7.00,+2.00,-21.00,-7.00,-3.00,-3.00,-2.00,-2.00,-3.00,-4.00
-7.00,-5.00,-3.00,-3.00,-4.00,-7.00,-11.00,-2.00,-2.00,-3.00,+1.00,+2.00,+1.00,+4.00,+1.00,+0.00
+7.00,+6.00,+2.00,+2.00,+6.00,+10.00,+20.00,-7.00,+1.00,-1.00,-3.00,-3.00,-2.00,+0.00,+1.00,+3.00
-5.00,-2.00,-3.00,+0.00,-1.00,-1.00,+2.00,+3.00,+17.00,+6.00,-1.00,-2.00,-7.00,-16.00,-11.00,+8.00
+3.00,-4.00,-3.00,-3.00,-1.00,+1.00,-6.00,-10.00,+5.00,+3.00,+1.00,+0.00,+0.00,-1.00,-11.00,-5.00
+23.00,+1.00,+3.00,+3.00,+0.00,+0.00,-4.00,+0.00,-8.00,-5.00,+0.00,+0.00,+1.00,+2.00,+23.00,-2.00
+3.00,-7.00,-4.00,-5.00,-6.00,-11.00,-10.00,+8.00,-2.00,-1.00,+0.00,+2.00,+3.00,+3.00,-7.00,-3.00
-5.00,-2.00,+0.00,-1.00,-3.00,-1.00,+3.00,-6.00,-7.00,-5.00,-2.00,-4.00,-4.00,+4.00,+1.00,-9.00
-12.00,+2.00,-5.00,+1.00,+4.00,+6.00,+17.00,+9.00,+8.00,+0.00,+1.00,-1.00,-3.00,-8.00,-28.00,+3.00
+2.00,+6.00,-3.00,-3.00,-2.00,-2.00,-1.00,+0.00,-2.00,+1.00,-1.00,+0.00,+0.00,+2.00,+14.00,+4.00
-16.00,-14.00,+10.00,+2.00,+0.00,+3.00,+3.00,-4.00,-4.00,-1.00,-6.00,-4.00,-4.00,-4.00,-10.00,-6.00
+5.00,-6.00,+0.00,-2.00,-3.00,-4.00,-13.00,-7.00,-13.00,+1.00,+0.00,+4.00,+6.00,+6.00,+17.00,-1.00
+3.00,-3.00,-1.00,-3.00,-4.00,-7.00,-3.00,-7.00,-14.00,+0.00,-2.00,-2.00,-4.00,-4.00,-25.00,-15.00
-1.00,+1.00,-4.00,-3.00,-1.00,-2.00,-19.00,-6.00,+12.00,-4.00,-4.00,-4.00,-4.00,-4.00,-3.00,+1.00
-10.00,+4.00,-5.00,+0.00,+3.00,+2.00,+9.00,+14.00,+16.00,+8.00,+3.00,-3.00,-4.00,-3.00,+20.00,+16.00
-13.00,-5.00,-2.00,-1.00,-1.00,-1.00,-2.00,-10.00,+2.00,-3.00,-4.00,-4.00,-3.00,-4.00,-14.00,+1.00
+12.00,+5.00,+3.00,+1.00,+1.00,+4.00,-3.00,-6.00,-19.00,-11.00,+0.00,+2.00,+2.00,+2.00,+1.00,-17.00
-1.00,+0.00,-1.00,-1.00,-2.00,-4.00,-7.00,-5.00,-8.00,+1.00,+0.00,+1.00,+1.00,+2.00,+0.00,-5.00
+1.00,+0.00,-3.00,-4.00,-6.00,-8.00,-9.00,-4.00,-7.00,-4.00,-2.00,-2.00,+0.00,+4.00,+7.00,-2.00
+1.00,-3.00,-4.00,-5.00,-4.00,-2.00,-6.00,+15.00,-5.00,-4.00,-4.00,-1.00,-4.00,-8.00,-17.00,-2.00
+1.00,-1.00,+2.00,+3.00,+3.00,+5.00,+10.00,-2.00,+9.00,+2.00,+0.00,-2.00,-1.00,-4.00,-9.00,+0.00
-8.00,-4.00,+0.00,+0.00,+2.00,+3.00,+11.00,+5.00,+1.00,+0.00,-3.00,-3.00,-3.00,+1.00,+20.00,+1.00
+14.00,+6.00,+1.00,+0.00,-2.00,-4.00,-6.00,-8.00,-7.00,-4.00,+0.00,+1.00,+1.00,+4.00,+3.00,+3.00
+0.00,+2.00,-2.00,-2.00,-2.00,-6.00,-13.00,+1.00,+4.00,+6.00,+2.00,+0.00,+3.00,+8.00,+8.00,-1.00
+0.00,+2.00,-1.00,-3.00,-2.00,-3.00,-16.00,-3.00,-2.00,-4.00,-3.00,-2.00,-1.00,+2.00,-7.00,-6.00
-5.00,-6.00,+2.00,+0.00,+0.00,-2.00,+7.00,-5.00,-9.00,-5.00,-2.00,-5.00,-7.00,-17.00,-31.00,-9.00
-29.00,-12.00,-6.00,-2.00,+2.00,+8.00,+12.00,-1.00,+11.00,+7.00,+1.00,+2.00,+3.00,+9.00,+18.00,+7.00
+6.00,+5.00,+2.00,+0.00,+1.00,+1.00,-3.00,-1.00,-1.00,+2.00,+1.00,+3.00,+1.00,-3.00,-2.00,+7.00
+19.00,+1.00,-1.00,-3.00,-3.00,-1.00,+7.00,+7.00,-9.00,-4.00,-2.00,-1.00,-1.00,+0.00,+7.00,-5.00
-31.00,-11.00,-8.00,-3.00,-4.00,-6.00,-24.00,-22.00,-4.00,+0.00,-2.00,-2.00,+1.00,+4.00,-2.00,+0.00
+34.00,+7.00,+8.00,+2.00,-2.00,-6.00,+2.00,+16.00,-6.00,-7.00,-4.00,-2.00,-1.00,-4.00,-12.00,-8.00
-22.00,-10.00,-4.00,+0.00,+1.00,+3.00,+31.00,-4.00,-14.00,-3.00,+1.00,+0.00,+2.00,+9.00,+8.00,-4.00
-16.00,+1.00,-2.00,+0.00,+3.00,+1.00,-10.00,+3.00,-6.00,-8.00,-3.00,-1.00,-3.00,-16.00,-34.00,-6.00
+9.00,-1.00,-1.00,-2.00,-6.00,-1.00,+0.00,-10.00,+27.00,+9.00,+1.00,+1.00,+1.00,+5.00,+9.00,+16.00
+41.00,+10.00,-1.00,-1.00,+1.00,-2.00,-10.00,+6.00,-16.00,-3.00,+0.00,+1.00,+0.00,+1.00,-3.00,-10.00
-3.00,+0.00,+0.00,-2.00,-4.00,-1.00,+9.00,-2.00,+22.00,+9.00,-1.00,-4.00,-2.00,-2.00,-15.00,-4.00
-11.00,+0.00,+0.00,+1.00,-3.00,-6.00,-5.00,-10.00,-28.00,-14.00,-6.00,-3.00,-4.00,+2.00,+16.00,-10.00
-19.00,-9.00,-8.00,-5.00,-4.00,-6.00,+21.00,+2.00,+2.00,+0.00,-1.00,+1.00,+1.00,-2.00,+3.00,+15.00
-32.00,+0.00,-9.00,-2.00,+4.00,+2.00,-18.00,-8.00,+14.00,+4.00,-1.00,-4.00,-5.00,-13.00,+0.00,+9.00
+2.00,-3.00,+6.00,+0.00,-4.00,-3.00,+5.00,+1.00,-10.00,-9.00,+2.00,+2.00,+3.00,+4.00,+5.00,-6.00
+15.00,-7.00,+5.00,+1.00,+2.00,+4.00,-6.00,+10.00,-19.00,-4.00,+0.00,+2.00,+2.00,+11.00,+17.00,+1.00
+16.00,+2.00,+4.00,+3.00,-1.00,+3.00,-10.00,-12.00,-1.00,-1.00,+2.00,+1.00,+2.00,+1.00,-11.00,-14.00
-11.00,-5.00,-4.00,+0.00,-7.00,-5.00,-25.00,+7.00,+1.00,-4.00,-3.00,-3.00,-6.00,-7.00,+5.00,-2.00
-19.00,+7.00,-8.00,-2.00,+10.00,+8.00,+38.00,+3.00,-1.00,-8.00,-4.00,-5.00,-6.00,-6.00,-17.00,+3.00
-13.00,-13.00,+1.00,+0.00,+6.00,-1.00,-22.00,+1.00,+29.00,+13.00,+4.00,-1.00,+5.00,+7.00,+35.00,+21.00
+46.00,+10.00,+4.00,+0.00,-13.00,-4.00,+10.00,+12.00,+10.00,+1.00,-6.00,-3.00,-5.00,-2.00,-5.00,-1.00
+11.00,-3.00,+6.00,-1.00,-1.00,-2.00,+12.00,+14.00,-23.00,-7.00,-2.00,+0.00,+0.00,+4.00,+9.00,-12.00
-12.00,+0.00,+1.00,+2.00,-1.00,-4.00,-33.00,-6.00,-2.00,+0.00,-1.00,-1.00,+0.00,-2.00,-9.00,-13.00
-9.00,-5.00,-5.00,-3.00,+1.00,-2.00,-3.00,-16.00,+6.00,-3.00,-3.00,-2.00,-6.00,-4.00,+0.00,-1.00
-15.00,+4.00,-1.00,+2.00,+10.00,+7.00,+1.00,+14.00,+17.00,+8.00,+2.00,-1.00,-1.00,-8.00,+11.00,+12.00
-10.00,+7.00,-12.00,-5.00,+4.00,-2.00,-9.00,-8.00,-32.00,-7.00,+0.00,+1.00,+3.00,+0.00,-11.00,-24.00
+28.00,-13.00,+13.00,+3.00,-15.00,-4.00,-17.00,-3.00,+12.00,-1.00,-7.00,-5.00,-7.00,-16.00,-9.00,+28.00
-5.00,-7.00,-2.00,-3.00,-7.00,-8.00,+28.00,+10.00,-1.00,+6.00,+4.00,+3.00,+4.00,+8.00,+17.00,-8.00
+8.00,+7.00,+9.00,+4.00,+1.00,+7.00,+5.00,-10.00,+4.00,+2.00,+4.00,+2.00,+0.00,+2.00,+3.00,+9.00
-1.00,+9.00,-3.00,-2.00,+5.00,+3.00,+38.00,+63.00,+8.00,-3.00,-4.00,-3.00,-2.00,+1.00,-6.00,-4.00
-34.00,-14.00,-18.00,-6.00,+11.00,+12.00,-35.00,-11.00,-9.00,+1.00,+0.00,+0.00,+1.00,+1.00,-1.00,-4.00
+60.00,+35.00,-6.00,-2.00,-3.00,+9.00,+11.00,+3.00,+21.00,+15.00,+2.00,-2.00,-1.00,-9.00,-27.00,-3.00
-5.00,-2.00,+14.00,+4.00,-26.00,-14.00,-12.00,+31.00,-28.00,-12.00,-4.00,+3.00,+7.00,+15.00,+39.00,-18.00
+42.00,-23.00,+16.00,+2.00,-7.00,-5.00,+1.00,-27.00,-11.00,-10.00,-5.00,-2.00,-1.00,+1.00,-35.00,-3.00
-9.00,-2.00,-2.00,-4.00,-8.00,-19.00,-40.00,-4.00,+1.00,-5.00,-6.00,-3.00,-7.00,-19.00,+18.00,-3.00
-36.00,-14.00,-2.00,+0.00,+1.00,-4.00,+19.00,-8.00,+6.00,+3.00,+0.00,-2.00,-9.00,-13.00,+6.00,+12.00
-38.00,+6.00,-15.00,-6.00,+14.00,+8.00,+6.00,-10.00,+27.00,+8.00,+0.00,-6.00,-7.00,-10.00,-54.00,-9.00
-25.00,+1.00,-4.00,-2.00,-4.00,-7.00,-12.00,-11.00,-10.00,+5.00,+3.00,+1.00,+1.00,+2.00,+35.00,+27.00
+13.00,-6.00,-3.00,+0.00,+1.00,+6.00,+12.00,+2.00,-3.00,+6.00,+1.00,+3.00,+10.00,+18.00,-3.00,-21.00
+5.00,+10.00,+1.00,-3.00,-2.00,-8.00,-31.00,-9.00,-49.00,-13.00,-2.00,+4.00,+9.00,+7.00,-2.00,-20.00
+20.00,-6.00,+7.00,+5.00,+7.00,+6.00,-10.00,+0.00,-18.00,-13.00,-1.00,+0.00,-1.00,+14.00,+6.00,+0.00
-6.00,-10.00,+6.00,+6.00,+3.00,+12.00,+53.00,-12.00,+21.00,+0.00,-8.00,-11.00,-18.00,-12.00,-7.00,-5.00
-4.00,+40.00,+10.00,+2.00,+2.00,-6.00,-14.00,-5.00,+21.00,+11.00,+4.00,+0.00,-1.00,-14.00,-14.00,+20.00
-14.00,-27.00,-32.00,-14.00,-8.00,-4.00,-4.00,-10.00,-7.00,-17.00,-10.00,-7.00,-1.00,+6.00,-2.00,+5.00
+1.00,-3.00,-4.00,-3.00,-4.00,-9.00,+3.00,+15.00,-14.00,-11.00,-9.00,-5.00,-7.00,-18.00,+1.00,-14.00
+0.00,-9.00,+2.00,-4.00,-6.00,-11.00,-94.00,-17.00,+19.00,+18.00,+4.00,+4.00,+7.00,+17.00,-8.00,-9.00
-16.00,-34.00,+7.00,+8.00,+6.00,+0.00,+41.00,+0.00,-5.00,+5.00,+5.00,+4.00,+2.00,+3.00,+25.00,-2.00
+33.00,+50.00,+12.00,+1.00,+4.00,+15.00,-14.00,+11.00,+21.00,+45.00,+9.00,-1.00,-9.00,-13.00,-10.00,+7.00
-4.00,-8.00,-5.00,-6.00,-5.00,-8.00,-15.00,-21.00,-10.00,-33.00,-9.00,-1.00,+1.00,+2.00,-9.00,+12.00
-61.00,-51.00,-22.00,-8.00,-5.00,-4.00,+14.00,-34.00,-16.00,-40.00,-20.00,-10.00,-8.00,-11.00,-2.00,-20.00
+28.00,+60.00,-13.00,-6.00,-5.00,-6.00,-28.00,+16.00,-22.00,-17.00,-5.00,-2.00,+2.00,+6.00,-18.00,-23.00
+60.00,-11.00,+12.00,+3.00,-6.00,+1.00,+28.00,-6.00,+9.00,-12.00,-4.00,+0.00,+3.00,+9.00,-4.00,+8.00
+2.00,-29.00,+8.00,+3.00,+1.00,-13.00,-9.00,+22.00,+24.00,+60.00,+17.00,+3.00,-3.00,+6.00,+2.00,+6.00
+2.00,+47.00,-20.00,-8.00,+0.00,-1.00,-16.00,-12.00,-8.00,+2.00,+7.00,+0.00,-4.00,-18.00,+18.00,+12.00
-35.00,-26.00,-9.00,-3.00,-3.00,+1.00,-1.00,-11.00,-20.00,-27.00,-11.00,-5.00,-3.00,+8.00,-8.00,-7.00
-61.00,-29.00,-21.00,-10.00,-2.00,+1.00,+14.00,-2.00,+21.00,+45.00,+7.00,+1.00,+2.00,-11.00,-2.00,-14.00
+36.00,+14.00,+8.00,+1.00,+4.00,+3.00,-24.00,-11.00,-12.00,-51.00,-3.00,-3.00,+0.00,+9.00,+13.00,+9.00
-1.00,-9.00,+13.00,+3.00,-11.00,-14.00,-5.00,-4.00,-16.00,-1.00,-2.00,+4.00,+6.00,+9.00,-2.00,+3.00
-22.00,-3.00,-1.00,-7.00,-5.00,+8.00,+26.00,+8.00,+17.00,+51.00,+14.00,+1.00,-11.00,+1.00,+5.00,+15.00
+18.00,+7.00,+3.00,+6.00,+6.00,-3.00,-28.00,-37.00,+3.00,-70.00,-20.00,-14.00,-13.00,-15.00,+11.00,+9.00
-16.00,-45.00,+4.00,+2.00,+4.00,+5.00,+16.00,-10.00,-8.00,-9.00,-7.00,-1.00,-3.00,-19.00,-30.00,-13.00
+13.00,+43.00,+2.00,+3.00,+11.00,+15.00,+31.00,+43.00,-4.00,-10.00,-2.00,-2.00,+3.00,-12.00,-17.00,-19.00
+17.00,+4.00,-5.00,-4.00,-2.00,-6.00,-3.00,+10.00,-42.00,-35.00,-10.00,+2.00,+11.00,+23.00,+8.00,+1.00
-8.00,+12.00,+18.00,+5.00,-4.00,-4.00,-7.00,+21.00,+45.00,+62.00,+12.00,+1.00,-5.00,+13.00,+27.00,+40.00
+19.00,+7.00,-7.00,-2.00,+3.00,+1.00,+27.00,+2.00,+11.00,+14.00,+2.00,-2.00,-7.00,-33.00,-28.00,-9.00
-13.00,-18.00,-1.00,+0.00,-3.00,-2.00,-27.00,-40.00,+1.00,+15.00,+5.00,+0.00,-4.00,+26.00,+54.00,+12.00
+17.00,-12.00,+2.00,+0.00,+1.00,+7.00,+19.00,+21.00,-6.00,-7.00,-3.00,-3.00,-4.00,-18.00,-31.00,-5.00
-24.00,+0.00,-1.00,+1.00,-3.00,-12.00,+43.00,-9.00,-11.00,+32.00,+10.00,+3.00,+9.00,+8.00,+9.00,-23.00
-7.00,+6.00,-3.00,+0.00,+3.00,-2.00,-84.00,+21.00,-5.00,-39.00,-26.00,-12.00,-10.00,-2.00,+2.00,+22.00
+5.00,+18.00,-1.00,-6.00,-4.00,+1.00,+27.00,-9.00,-2.00,-10.00,+1.00,+3.00,+3.00,-12.00,-39.00,-24.00
+11.00,-15.00,-9.00,-1.00,-3.00,-4.00,-13.00,+17.00,+12.00,-1.00,-6.00,-8.00,+0.00,+10.00,+31.00,+9.00
-19.00,-1.00,-1.00,-1.00,+3.00,+0.00,+44.00,-2.00,-15.00,-34.00,-6.00,+0.00,-17.00,-24.00,-17.00,+11.00
-11.00,-9.00,-15.00,-9.00,-5.00,-2.00,+30.00,-6.00,-4.00,+36.00,+11.00,+4.00,+9.00,+13.00,+0.00,-34.00
+21.00,+5.00,+9.00,+3.00,+2.00,+7.00,-2.00,-9.00,+16.00,+19.00,+4.00,+4.00,+4.00,-1.00,-9.00,+5.00
+14.00,+28.00,+11.00,+7.00,+7.00,+6.00,+30.00,+19.00,+33.00,+19.00,+15.00,+12.00,+8.00,+17.00,+1.00,+5.00
-12.00,-8.00,+6.00,+5.00,+2.00,+3.00,-12.00,-12.00,-22.00,-66.00,-23.00,-10.00,-2.00,-9.00,+10.00,+8.00
+3.00,+17.00,+3.00,+0.00,+3.00,+6.00,+4.00,+8.00,-17.00,+20.00,+4.00,+0.00,+0.00,+8.00,-10.00,-19.00
+15.00,-9.00,-21.00,-9.00,-7.00,-4.00,-40.00,-11.00,-2.00,-8.00,-12.00,-11.00,-18.00,-26.00,+1.00,+8.00
+6.00,-12.00,-3.00,-1.00,+5.00,-2.00,-18.00,-8.00,+7.00,-25.00,-11.00,-2.00,+6.00,+10.00,-4.00,+4.00
-19.00,-31.00,-4.00,+0.00,-10.00,+5.00,+61.00,-12.00,-13.00,+32.00,+12.00,+10.00,+9.00,+7.00,+10.00,-20.00
-12.00,+22.00,+14.00,+2.00,+2.00,+3.00,+10.00,+30.00,-25.00,-51.00,-3.00,-7.00,-4.00,-6.00,+4.00,-1.00
-9.00,+6.00,+5.00,+1.00,-3.00,-7.00,+22.00,-12.00,+32.00,+26.00,+8.00,+5.00,+5.00,+5.00,+6.00,+26.00
+0.00,-98.00,-10.00,+4.00,+6.00,+9.00,+59.00,+9.00,+4.00,+22.00,+2.00,-2.00,-8.00,-19.00,-23.00,-13.00
+27.00,+92.00,+16.00,+2.00,+0.00,-15.00,-121.00,-29.00,-11.00,-24.00,-1.00,-2.00,+2.00,+20.00,+2.00,-6.00
-2.00,+4.00,-9.00,-6.00,-2.00,+1.00,+52.00,+5.00,-11.00,-11.00,-11.00,+9.00,+10.00,+16.00,+1.00,-9.00
+11.00,+23.00,+12.00,+1.00,-1.00,+1.00,+22.00,-1.00,-1.00,+4.00,+2.00,-2.00,-9.00,-23.00,-24.00,-14.00
-17.00,-24.00,-12.00,-5.00,-7.00,-4.00,-5.00,-21.00,-8.00,-4.00,+5.00,+5.00,+6.00,+8.00,+10.00,-2.00
-7.00,-18.00,+16.00,+7.00,+8.00,+8.00,-23.00,+34.00,+10.00,-14.00,-13.00,-13.00,-12.00,-19.00,-29.00,+13.00
+5.00,-25.00,-14.00,-3.00,-7.00,-11.00,-5.00,-23.00,+42.00,+110.00,+24.00,+6.00,+12.00,+15.00,+27.00,+14.00
-11.00,+13.00,+4.00,+2.00,+3.00,+4.00,+23.00,+34.00,-57.00,-107.00,-18.00,+3.00,-6.00,+4.00,+0.00,-14.00
-4.00,-6.00,-10.00,-6.00,+0.00,+4.00,+8.00,-40.00,-6.00,-18.00,-18.00,-13.00,-15.00,-32.00,-6.00,+2.00
-10.00,-12.00,-9.00,-7.00,-10.00,-13.00,-45.00,+8.00,-24.00,-29.00,-4.00,+0.00,+3.00,-2.00,-24.00,-23.00
+11.00,+1.00,-1.00,+0.00,-3.00,+4.00,+30.00,+5.00,-8.00,-19.00,-6.00,-4.00,+2.00,+5.00,+9.00,+1.00
-2.00,-10.00,+6.00,-2.00,+4.00,+4.00,-42.00,-27.00,+33.00,+58.00,+6.00,-1.00,-7.00,+7.00,+7.00,+17.00
+15.00,+62.00,+19.00,+7.00,-4.00,-10.00,-22.00,+19.00,+12.00,+60.00,+15.00,+5.00,+4.00,+13.00,+18.00,-3.00
+27.00,-5.00,-18.00,-2.00,+9.00,+20.00,+29.00,+49.00,-5.00,-54.00,-15.00,-1.00,+4.00,-7.00,-20.00,-2.00
-36.00,-44.00,-9.00,-4.00,-10.00,-16.00,-10.00,-13.00,-4.00,-3.00,-6.00,-10.00,-11.00,-14.00,-1.00,+7.00
-18.00,-17.00,-8.00,-10.00,-12.00,-9.00,-48.00,-19.00,-12.00,-17.00,+0.00,-5.00,+11.00,+29.00,+29.00,-7.00
+22.00,+47.00,+18.00,+3.00,+0.00,-17.00,+10.00,-28.00,+16.00,+72.00,+30.00,+25.00,+20.00,-1.00,-21.00,+4.00
+2.00,-25.00,+7.00,+12.00,+19.00,+29.00,+39.00,+19.00,-9.00,-66.00,-30.00,-17.00,-14.00,+8.00,+46.00,+2.00
+10.00,+47.00,+0.00,-2.00,+2.00,+13.00,+22.00,-13.00,+11.00,+52.00,+27.00,+10.00,+0.00,-2.00,-4.00,-4.00
-13.00,-24.00,-13.00,-5.00,-2.00,+0.00,-6.00,+25.00,-23.00,-42.00,-6.00,-1.00,-10.00,-29.00,-24.00,-9.00
-1.00,+3.00,-3.00,-7.00,-12.00,-22.00,-76.00,-37.00,+1.00,-28.00,-10.00,+0.00,+5.00,+21.00,+8.00,+4.00
-5.00,-30.00,+0.00,-2.00,-3.00,-4.00,+16.00,+14.00,-3.00,+58.00,+10.00,+1.00,+7.00,+10.00,+5.00,-31.00
-6.00,+19.00,-1.00,+2.00,-2.00,-5.00,-29.00,-14.00,+18.00,+4.00,+3.00,-5.00,-5.00,-20.00,-13.00,+35.00
+20.00,-9.00,-8.00,+2.00,+6.00,+5.00,+49.00,+13.00,+34.00,+67.00,+13.00,+4.00,-9.00,-28.00,+0.00,+23.00
-24.00,+5.00,+12.00,-2.00,-5.00,-9.00,-35.00,+4.00,-22.00,-80.00,-25.00,-11.00,-10.00,-25.00,+0.00,-8.00
+2.00,-5.00,-11.00,-5.00,-10.00,-5.00,+16.00,-7.00,-7.00,+24.00,+13.00,+3.00,+1.00,+0.00,-26.00,-10.00
+22.00,+26.00,+24.00,+13.00,+6.00,+2.00,-64.00,+18.00,-28.00,-45.00,-16.00,+0.00,+16.00,+27.00,+37.00,-19.00
-8.00,-16.00,-9.00,+5.00,+31.00,+47.00,+84.00,+34.00,+17.00,+29.00,+4.00,+3.00,+12.00,+20.00,-20.00,-2.00
-15.00,-9.00,+3.00,-1.00,-3.00,+0.00,-39.00,-6.00,+22.00,+55.00,+7.00,-10.00,-18.00,-16.00,+23.00,+16.00
-16.00,-33.00,-13.00,-11.00,-11.00,-9.00,+21.00,-23.00,+7.00,+8.00,+0.00,+8.00,+12.00,+3.00,+1.00,+4.00
-10.00,-28.00,-15.00,-5.00,-7.00,-15.00,-43.00,-32.00,-28.00,-76.00,-22.00,-5.00,+3.00,+7.00,-17.00,-15.00
+15.00,+46.00,-7.00,-7.00,-20.00,-21.00,+11.00,+34.00,+8.00,+42.00,+28.00,+20.00,+24.00,+14.00,+19.00,+15.00
+25.00,-21.00,-1.00,+3.00,+8.00,+27.00,+39.00,-4.00,-8.00,-42.00,-15.00,-8.00,-7.00,+13.00,+1.00,-4.00
+3.00,+88.00,+33.00,-1.00,-17.00,-28.00,-65.00,-10.00,+7.00,+15.00,+0.00,-13.00,-13.00,-59.00,-52.00,-9.00
-1.00,-14.00,-14.00,+7.00,+20.00,+26.00,+10.00,+8.00,-1.00,+8.00,-5.00,-9.00,-20.00,-11.00,-8.00,-5.00
-9.00,+9.00,+19.00,+11.00,+31.00,+4.00,-26.00,-12.00,-5.00,+10.00,-1.00,+0.00,+1.00,-6.00,-7.00,-15.00
-9.00,-11.00,-27.00,-8.00,-2.00,-8.00,-69.00,-15.00,+7.00,+22.00,+9.00,-1.00,-4.00,+18.00,+8.00,+1.00
+41.00,-6.00,-3.00,+1.00,-3.00,-2.00,+70.00,+41.00,-14.00,-33.00,+4.00,+16.00,+38.00,+5.00,-23.00,+1.00
-13.00,+4.00,+12.00,-7.00,-7.00,+7.00,+64.00,-3.00,-6.00,-31.00,-8.00,-6.00,-5.00,-8.00,-6.00,+6.00
-13.00,-39.00,+2.00,-1.00,-16.00,-11.00,-92.00,-15.00,+9.00,+44.00,+16.00,+17.00,+31.00,+47.00,+48.00,+0.00
+10.00,+58.00,+16.00,+13.00,+29.00,+12.00,+39.00,+18.00,-6.00,+6.00,+4.00,-4.00,+9.00,-38.00,-46.00,-11.00
-13.00,-5.00,+9.00,+5.00,+5.00,+8.00,-12.00,-2.00,-5.00,-30.00,-31.00,-37.00,-99.00,-35.00,+15.00,+7.00
+12.00,-5.00,-20.00,-7.00,-5.00,-11.00,-26.00,-3.00,+11.00,+42.00,+13.00,+5.00,+13.00,+24.00,+12.00,-3.00
+3.00,+41.00,-5.00,-4.00,-5.00,+0.00,+58.00,+9.00,-17.00,-66.00,-23.00,-5.00,+0.00,-14.00,+10.00,+4.00
-8.00,-33.00,-7.00,-7.00,-14.00,-12.00,-54.00,-37.00,-9.00,+0.00,+5.00,+14.00,+43.00,+0.00,+2.00,-9.00
-9.00,-24.00,-12.00,-6.00,-11.00,-21.00,-80.00,-26.00,+26.00,+46.00,+19.00,+17.00,+24.00,+42.00,+9.00,-4.00
+11.00,-4.00,+18.00,+4.00,+1.00,+32.00,+117.00,+21.00,+5.00,+43.00,+9.00,-9.00,-9.00,-32.00,-22.00,+9.00
-22.00,-97.00,-13.00,+6.00,+10.00,-32.00,-102.00,-25.00,+11.00,+16.00,-3.00,-17.00,-33.00,-26.00,-14.00,+0.00
+18.00,+48.00,+3.00,-2.00,-5.00,+27.00,+97.00,+71.00,-40.00,-81.00,-24.00,-7.00,-16.00,-4.00,-10.00,-16.00
-10.00,+6.00,-10.00,-7.00,+19.00,+14.00,-26.00,-19.00,-10.00,+1.00,+4.00,+3.00,+0.00,-4.00,-11.00,-8.00
-16.00,+29.00,-17.00,-13.00,-19.00,-29.00,-60.00,-23.00,+11.00,+11.00,-6.00,+5.00,+5.00,+24.00,+28.00,-1.00
-9.00,-1.00,+10.00,+0.00,-12.00,+2.00,+32.00,-13.00,+7.00,-24.00,-1.00,+7.00,+30.00,+38.00,+12.00,+21.00
-12.00,-48.00,+4.00,+8.00,+8.00,-6.00,-13.00,+12.00,+12.00,+34.00,+14.00,-4.00,-13.00,-25.00,+0.00,-7.00
+18.00,+21.00,-19.00,-9.00,-3.00,-7.00,+22.00,-33.00,+5.00,-4.00,-4.00,-15.00,-43.00,-19.00,-33.00,-5.00
-13.00,-17.00,-5.00,-4.00,-2.00,-4.00,-43.00,+12.00,-20.00,-14.00,+9.00,+18.00,+14.00,-16.00,+34.00,+0.00
+4.00,-23.00,-2.00,+2.00,-8.00,+7.00,+37.00,+17.00,-32.00,-64.00,-32.00,-37.00,-53.00,-20.00,-20.00,-8.00
+6.00,+43.00,+11.00,-4.00,-6.00,-16.00,-59.00,-21.00,-3.00,+0.00,-3.00,+0.00,-2.00,+0.00,-19.00,-9.00
-13.00,+1.00,+2.00,-2.00,-11.00,-4.00,-68.00,-27.00,+36.00,+19.00,+0.00,+5.00,+32.00,+30.00,+29.00,+27.00
-15.00,-46.00,-9.00,+9.00,+23.00,+14.00,+10.00,+56.00,+32.00,+48.00,+5.00,+3.00,-5.00,-6.00,-32.00,-12.00
+9.00,+36.00,+6.00,+1.00,+1.00,-3.00,-61.00,-22.00,-58.00,-98.00,-23.00,-22.00,-16.00,-14.00,+1.00,-7.00
-6.00,-20.00,-17.00,-12.00,-9.00,+8.00,+32.00,+19.00,+15.00,+27.00,+7.00,+0.00,+5.00,+10.00,+3.00,+3.00
+17.00,-26.00,+16.00,+2.00,-2.00,-2.00,-21.00,+12.00,+1.00,+7.00,+6.00,+11.00,+23.00,+17.00,+39.00,+9.00
-2.00,+2.00,-27.00,-13.00,-29.00,-39.00,-28.00,-84.00,-6.00,+4.00,+6.00,+2.00,-4.00,+18.00,+8.00,+4.00
+17.00,+33.00,+11.00,+13.00,+29.00,+21.00,+58.00,+16.00,+21.00,+36.00,+0.00,+7.00,+34.00,+27.00,+16.00,-10.00
-13.00,-20.00,-3.00,+0.00,-3.00,+12.00,+9.00,+34.00,+0.00,-25.00,-11.00,-19.00,-73.00,-66.00,-61.00,-5.00
-12.00,-16.00,-3.00,-1.00,-1.00,-1.00,+15.00,+0.00,-11.00,-11.00,-3.00,-2.00,-4.00,-13.00,+6.00,-6.00
+36.00,+27.00,+15.00,-3.00,-3.00,-2.00,+29.00,+17.00,-26.00,-62.00,-12.00,+6.00,+14.00,-3.00,-1.00,-3.00
-16.00,-19.00,-4.00,-10.00,-23.00,-28.00,-73.00,-35.00,+29.00,+62.00,+17.00,+0.00,-5.00,+14.00,-18.00,+1.00
+0.00,-23.00,-10.00,-2.00,-5.00,-12.00,-34.00,-47.00,-27.00,-32.00,-9.00,-1.00,+3.00,+23.00,+72.00,+15.00
-11.00,+5.00,-20.00,-4.00,+7.00,+11.00,+37.00,+42.00,+1.00,+23.00,+4.00,-12.00,-14.00,-25.00,-23.00,-9.00
-5.00,-17.00,-1.00,-4.00,+4.00,+6.00,-22.00,+8.00,+16.00,-35.00,-18.00,-4.00,-8.00,+3.00,+17.00,+11.00
-21.00,-24.00,+3.00,-2.00,-10.00,-21.00,-9.00,-45.00,-11.00,-4.00,+1.00,+2.00,+4.00,-18.00,-31.00,-14.00
+16.00,+6.00,+28.00,+12.00,+6.00,+8.00,+32.00,+37.00,-24.00,-59.00,-9.00,+1.00,+22.00,+25.00,+10.00,-6.00
-2.00,+37.00,-32.00,-9.00,-3.00,+1.00,+24.00,+2.00,+26.00,+70.00,+14.00,+12.00,+4.00,+3.00,+10.00,+8.00
-3.00,+11.00,+12.00,+0.00,-5.00,+1.00,-24.00,-22.00,+36.00,+45.00,+21.00,+14.00,+17.00,+22.00,+5.00,+12.00
+11.00,+26.00,+5.00,-4.00,-11.00,-34.00,-109.00,-3.00,-49.00,-89.00,-29.00,-24.00,-39.00,-31.00,-22.00,-13.00
-2.00,-13.00,-10.00,-1.00,+13.00,+26.00,+110.00,+32.00,+16.00,+42.00,+8.00,+1.00,+33.00,+14.00,+1.00,+8.00
-8.00,-53.00,+3.00,+2.00,-10.00,-1.00,-44.00,-22.00,-7.00,-54.00,-21.00,+1.00,+4.00,+41.00,+17.00,-8.00
-4.00,+34.00,+6.00,+2.00,+6.00,+5.00,-5.00,+1.00,+14.00,+38.00,+13.00,+3.00,-21.00,-41.00,-58.00,-12.00
+3.00,+30.00,+7.00,+1.00,+5.00,+0.00,+36.00,+7.00,-5.00,+19.00,+3.00,-3.00,+4.00,-18.00,-4.00,+6.00
+13.00,+14.00,-2.00,+1.00,-12.00,-22.00,-67.00,-23.00,-14.00,-18.00,-3.00,+9.00,-3.00,+1.00,-8.00,-1.00
-2.00,-28.00,-3.00,-1.00,+5.00,+3.00,-3.00,+22.00,+14.00,+64.00,+16.00,+0.00,+28.00,+53.00,+50.00,-6.00
-35.00,+11.00,+9.00,+3.00,+3.00,+1.00,+3.00,+12.00,-43.00,-86.00,-27.00,-25.00,-23.00,-58.00,-38.00,-5.00
+8.00,+17.00,+8.00,-6.00,-2.00,+12.00,+4.00,+3.00,+22.00,+11.00,-4.00,+16.00,+15.00,+12.00,+6.00,+4.00
+31.00,-11.00,-33.00,-8.00,-3.00,-12.00,-10.00,+39.00,-13.00,+11.00,-2.00,-1.00,-9.00,-6.00,-14.00,-12.00
-20.00,-42.00,-4.00,-5.00,-20.00,-31.00,+18.00,-47.00,-15.00,-48.00,-12.00,-6.00,-10.00,+3.00,+5.00,+8.00
-2.00,+15.00,+1.00,+0.00,+6.00,+6.00,-11.00,-11.00,+8.00,+44.00,+7.00,+15.00,+29.00,+12.00,+7.00,+7.00
+6.00,-3.00,-5.00,-3.00,+0.00,+16.00,-19.00,+26.00,+15.00,+30.00,+9.00,-12.00,-26.00,-8.00,-14.00,-13.00
-13.00,+21.00,-2.00,-7.00,+6.00,-14.00,-119.00,-53.00,+45.00,+81.00,+15.00,+1.00,+1.00,+0.00,+13.00,+15.00
-25.00,-27.00,+43.00,+16.00,+2.00,+11.00,+19.00,-1.00,-56.00,-80.00,-23.00,-15.00,-33.00,-19.00,-48.00,-15.00
+31.00,-1.00,-44.00,-12.00,-6.00,-17.00,+5.00,+22.00,-18.00,-11.00,-3.00,-2.00,+2.00,+11.00,+35.00,+3.00
-19.00,+8.00,-1.00,-7.00,-20.00,-4.00,+2.00,-25.00,+26.00,+31.00,+8.00,+11.00,+25.00,+33.00,+13.00,+5.00
-32.00,-86.00,+1.00,+1.00,+2.00,-23.00,-44.00,-35.00,-13.00,-29.00,-15.00,-16.00,-2.00,+11.00,+25.00,-14.00
+10.00,+103.00,+12.00,+2.00,+6.00,+12.00,+35.00,+0.00,+6.00,+15.00,+11.00,+18.00,+12.00,-11.00,-13.00,+10.00
+16.00,-14.00,+8.00,+4.00,+3.00,-2.00,-39.00,+20.00,-17.00,-39.00,-19.00,-37.00,-41.00,+9.00,+23.00,+1.00
-23.00,+19.00,+28.00,+2.00,+0.00,+4.00,+67.00,-11.00,+71.00,+105.00,+35.00,+25.00,+6.00,-43.00,-29.00,+7.00
+16.00,-7.00,-64.00,-14.00,-13.00,+7.00,+22.00,+1.00,-69.00,-88.00,-36.00,-22.00,-20.00,+0.00,-26.00,-18.00
+14.00,+4.00,+9.00,+1.00,+12.00,+11.00,-6.00,+33.00,-11.00,-16.00,-15.00,+11.00,+35.00,-5.00,+6.00,+1.00
-22.00,-79.00,+26.00,+12.00,+1.00,-1.00,-5.00,-9.00,+25.00,+15.00,-4.00,-21.00,-27.00,+19.00,+28.00,-6.00
+6.00,+1.00,-8.00,-10.00,-17.00,-30.00,-102.00,-29.00,+1.00,+35.00,+5.00,-5.00,-10.00,-3.00,+13.00,+17.00
-10.00,+101.00,-19.00,-7.00,+10.00,+20.00,+45.00,+12.00,+8.00,+0.00,+5.00,-6.00,-15.00,-1.00,-24.00,-13.00
+8.00,-5.00,-5.00,+5.00,+7.00,+0.00,+48.00,-2.00,+6.00,+6.00,-3.00,+4.00,+8.00,+5.00,+34.00,-3.00
-3.00,-15.00,+25.00,+2.00,+10.00,+15.00,+63.00,+31.00,-8.00,+55.00,+33.00,+33.00,+39.00,+16.00,-27.00,+5.00
+2.00,-6.00,-18.00,-4.00,-3.00,+15.00,-39.00,+16.00,-28.00,-15.00,-9.00,-21.00,-30.00,-11.00,-33.00,-22.00
-4.00,-3.00,+31.00,+14.00,+12.00,+2.00,-14.00,-54.00,+39.00,+13.00,-2.00,+18.00,+8.00,-15.00,+18.00,+26.00
+10.00,+15.00,-23.00,-11.00,-19.00,-9.00,-38.00,-1.00,-37.00,-14.00,+0.00,+4.00,+31.00,+49.00,+34.00,+5.00
-31.00,-14.00,-27.00,-19.00,-15.00,-22.00,-26.00,-49.00,+38.00,+127.00,+55.00,-3.00,-21.00,-19.00,-21.00,-12.00
-6.00,-43.00,+23.00,+13.00,-2.00,-21.00,+56.00,+19.00,-34.00,-72.00,-53.00,-28.00,-29.00,-32.00,+6.00,-16.00
-8.00,+13.00,+7.00,-6.00,-8.00,+17.00,+5.00,-37.00,-21.00,-59.00,-8.00,-2.00,-6.00,-5.00,-24.00,-8.00
+10.00,-19.00,+2.00,+3.00,+19.00,+30.00,+71.00,+93.00,+62.00,+127.00,+47.00,+20.00,+15.00,+2.00,-38.00,+18.00
-37.00,-24.00,+22.00,+13.00,-4.00,-12.00,-87.00,-65.00,-12.00,-46.00,-8.00,-13.00,-30.00,-12.00,+48.00,+3.00
+50.00,-19.00,-28.00,-3.00,+28.00,+22.00,+71.00,+47.00,-24.00,-40.00,+11.00,+20.00,+50.00,+42.00,+18.00,+7.00
-16.00,+1.00,+15.00,-1.00,-10.00,-10.00,+13.00,-68.00,-14.00,-27.00,-26.00,-19.00,-28.00,-19.00,-4.00,-12.00
+17.00,-31.00,-30.00,-12.00,-21.00,-35.00,-35.00,+36.00,+57.00,+23.00,+16.00,+12.00,+15.00,+26.00,+12.00,+7.00
-21.00,-5.00,+23.00,+1.00,+7.00,+21.00,+17.00,-46.00,-24.00,-66.00,-7.00,+15.00,+39.00,+29.00,+4.00,+20.00
+15.00,-54.00,+1.00,+20.00,+14.00,+12.00,+23.00,+12.00,+16.00,+15.00,-2.00,-10.00,-27.00,-50.00,-19.00,-7.00
+15.00,+89.00,-8.00,-8.00,+4.00,+18.00,-11.00,+52.00,+111.00,+127.00,+52.00,+34.00,+36.00,+37.00,-26.00,-10.00
-13.00,-34.00,+35.00,+13.00,+11.00,+15.00,-16.00,-3.00,-97.00,-121.00,-62.00,-48.00,-80.00,-73.00,+26.00,-4.00
+19.00,+47.00,-28.00,-9.00,-14.00,+5.00,+32.00,+49.00,+18.00,+49.00,+0.00,-2.00,+15.00,+9.00,+9.00,-8.00
-28.00,-9.00,+22.00,+1.00,+3.00,-11.00,+6.00,-50.00,-52.00,-74.00,-34.00,-6.00,-2.00,-6.00,-27.00,-18.00
-10.00,-75.00,-26.00,-5.00,+3.00,-8.00,-11.00,-10.00,+29.00,+49.00,+2.00,+3.00,+41.00,+22.00,+16.00,+3.00
-16.00,+40.00,-11.00,-11.00,-20.00,-28.00,-46.00,-60.00,+3.00,-10.00,+2.00,-2.00,-15.00,-4.00,+5.00,+20.00
+28.00,+60.00,+6.00,+13.00,+18.00,+3.00,-16.00,-9.00,-47.00,-28.00,-18.00,-6.00,-21.00,-15.00,-14.00,-35.00
-17.00,-15.00,-17.00,-5.00,-5.00,+1.00,+38.00,+35.00,+55.00,+44.00,+21.00,+13.00,-6.00,-3.00,-30.00,+15.00
-3.00,-9.00,+63.00,+13.00,-2.00,+2.00,+1.00,+28.00,-41.00,-20.00,-8.00,+11.00,-1.00,-19.00,+12.00,+2.00
+15.00,+47.00,-29.00,-9.00,+10.00,+14.00,+58.00,+56.00,+29.00,+55.00,+2.00,-16.00,-3.00,-17.00,-22.00,-17.00
-1.00,-34.00,+0.00,-12.00,-49.00,-22.00,-63.00,-23.00,-27.00,-79.00,-16.00,-15.00,-33.00,+2.00,+10.00,+2.00
+0.00,-2.00,-41.00,+5.00,+37.00,+12.00,+62.00,-46.00,-23.00,-44.00,-17.00,+0.00,+3.00,+13.00,+21.00,-7.00
+9.00,+3.00,+16.00,+6.00,-10.00,-11.00,+20.00,+37.00,-15.00,+37.00,+7.00,-20.00,-17.00,+0.00,-11.00,+3.00
-18.00,-20.00,+3.00,-3.00,-9.00,+3.00,-28.00,-64.00,+33.00,+16.00,+1.00,+12.00,-5.00,+6.00,+5.00,-4.00
+31.00,-14.00,-8.00,-3.00,+8.00,+4.00,-20.00,+31.00,+20.00,-32.00,-18.00,+3.00,+28.00,-13.00,-26.00,+12.00
+13.00,+72.00,+10.00,-2.00,-5.00,+19.00,+23.00,+26.00,+0.00,+79.00,+32.00,-2.00,-11.00,-20.00,-40.00,-12.00
-16.00,-33.00,-15.00,-4.00,-2.00,+4.00,+28.00,-31.00,-26.00,-68.00,-12.00,+35.00,+74.00,+59.00,+70.00,+13.00
-6.00,-37.00,+44.00,+22.00,+9.00,-14.00,-61.00,-9.00,-6.00,-16.00,-10.00,-54.00,-87.00,-84.00,-71.00,-9.00
-3.00,+51.00,-50.00,-17.00,+11.00,+12.00,+95.00,+65.00,-6.00,-38.00,-17.00,+10.00,+31.00,+0.00,-15.00,-9.00
-4.00,+9.00,+5.00,-13.00,-40.00,-46.00,-75.00,-78.00,+3.00,+56.00,+24.00,+12.00,+43.00,+16.00,-1.00,-6.00
+15.00,+64.00,-1.00,+13.00,+37.00,+53.00,+84.00,+92.00,-11.00,-25.00,+1.00,-8.00,-35.00,+10.00,+18.00,+15.00
-6.00,-13.00,-14.00,-7.00,-12.00,-28.00,-79.00,-65.00,+12.00,+80.00,+31.00,+29.00,+32.00,+31.00,+31.00,+4.00
-14.00,-14.00,+36.00,+12.00,+22.00,+43.00,+114.00,+59.00,-11.00,-14.00,-14.00,+1.00,-11.00,-19.00,+14.00,+3.00
+20.00,-61.00,-37.00,-7.00,-2.00,-2.00,-66.00,+5.00,+37.00,+42.00,+4.00,+9.00,+13.00,+18.00,+25.00,+16.00
-33.00,+8.00,-15.00,-19.00,-34.00,-31.00,-35.00,-89.00,+1.00,+82.00,+20.00,-13.00,-18.00,-14.00,-50.00,-13.00
-14.00,-74.00,+21.00,+8.00,+13.00,+5.00,+16.00,+11.00,-85.00,-124.00,-35.00,+9.00,+54.00,+15.00,+39.00,-16.00
+44.00,+116.00,-11.00,+3.00,+17.00,-6.00,-67.00,+28.00,+66.00,+121.00,+39.00,-14.00,-57.00,-43.00,-71.00,+19.00
+13.00,+22.00,+16.00,+1.00,+2.00,+18.00,+90.00,+60.00,-21.00,-21.00,+4.00,+12.00,+2.00,+48.00,+90.00,+8.00
+15.00,-32.00,+32.00,+15.00,-15.00,+13.00,-53.00,+11.00,+19.00,-45.00,-30.00,-12.00,-15.00,-55.00,-72.00,-8.00
-6.00,+25.00,+31.00,+2.00,+12.00,+13.00,+32.00,-4.00,+15.00,+32.00,+41.00,+23.00,+17.00,+47.00,+84.00,+35.00
+25.00,-108.00,-65.00,+0.00,+13.00,-12.00,-19.00,-51.00,+23.00,+60.00,-4.00,+23.00,+47.00,+26.00,+10.00,-3.00
+3.00,+84.00,+13.00,+4.00,+10.00,+15.00,+9.00,-3.00,+14.00,-47.00,-6.00,-26.00,-15.00,+5.00,-10.00,-3.00
-4.00,-64.00,+0.00,+0.00,-6.00,+5.00,+27.00,+16.00,-86.00,-104.00,-33.00,-35.00,-92.00,-50.00,-23.00,-21.00
-33.00,-41.00,+30.00,+10.00,+11.00,-6.00,-65.00,-46.00,-7.00,-20.00,-17.00,+0.00,+0.00,-27.00,-41.00,-9.00
-3.00,+79.00,-14.00,-15.00,-15.00,-17.00,-5.00,+32.00,+30.00,+45.00,+32.00,+51.00,+75.00,+42.00,+40.00,+3.00
+6.00,-50.00,-35.00,-15.00,-16.00,+10.00,-28.00,-16.00,-5.00,-30.00,-33.00,-34.00,-58.00,-6.00,-2.00,-2.00
+16.00,+27.00,+34.00,+27.00,+15.00,-13.00,-46.00,-11.00,+17.00,+82.00,+38.00,+2.00,-3.00,-3.00,+12.00,+1.00
+11.00,+24.00,-37.00,-17.00,-3.00,+0.00,-54.00,+36.00,-18.00,+14.00,+8.00,-7.00,-23.00,-15.00,-24.00,-14.00
-2.00,-24.00,+27.00,+18.00,-2.00,+11.00,+88.00,-1.00,-18.00,-74.00,-50.00,-2.00,-2.00,+4.00,-10.00,-6.00
-47.00,-59.00,+18.00,-2.00,+6.00,+2.00,-102.00,-41.00,+1.00,-34.00,-14.00,-30.00,-30.00,-10.00,+9.00,+8.00
+14.00,+77.00,+0.00,+8.00,+22.00,+15.00,+61.00,+14.00,-24.00,+24.00,+4.00,-1.00,+20.00,+10.00,+54.00,+1.00
+23.00,-11.00,-35.00,-14.00,-4.00,+14.00,+3.00,+20.00,+26.00,+34.00,-6.00,+2.00,+8.00,+4.00,-24.00,+1.00
-20.00,+25.00,+13.00,+3.00,-15.00,-18.00,-55.00,-9.00,-30.00,+14.00,+32.00,+5.00,-4.00,-1.00,-13.00,-12.00
-3.00,+6.00,-4.00,+4.00,-1.00,-23.00,+27.00,+33.00,-49.00,-44.00,-16.00,-13.00,-21.00,-9.00,-15.00,-7.00
-34.00,-20.00,+25.00,-1.00,-4.00,-12.00,-80.00,-32.00,+48.00,+52.00,+14.00,+30.00,+59.00,+7.00,-3.00,+3.00
+17.00,+49.00,-8.00,+9.00,+6.00,+18.00,+63.00,+13.00,+0.00,-44.00,-23.00,-27.00,-41.00,+4.00,+10.00,-5.00
+2.00,-42.00,-4.00,-15.00,-11.00,-12.00,-67.00,-50.00,+21.00,+52.00,+26.00,-15.00,-70.00,-22.00,+22.00,+11.00
-2.00,-99.00,-2.00,-3.00,-13.00,-12.00,+37.00,-19.00,-54.00,-58.00,-60.00,-11.00,-6.00,-17.00,-20.00,-20.00
+23.00,+76.00,-26.00,-14.00,-6.00,-35.00,-12.00,+54.00,+36.00,+64.00,+14.00,+7.00,+17.00,+39.00,+36.00,+24.00
-10.00,-8.00,-1.00,-2.00,-6.00,+3.00,+49.00,-116.00,-6.00,-6.00,-4.00,+5.00,+28.00,+12.00,-6.00,+4.00
-17.00,-19.00,+2.00,-10.00,-8.00,-12.00,-28.00,+46.00,+24.00,+19.00,-5.00,+2.00,+23.00,+11.00,-6.00,-15.00
-11.00,-10.00,+10.00,+5.00,-3.00,+8.00,-1.00,+47.00,+11.00,+71.00,+47.00,+16.00,+19.00,-17.00,-3.00,+18.00
+5.00,-106.00,-21.00,-4.00,-10.00,-22.00,-13.00,-28.00,+2.00,+43.00,-8.00,-4.00,-28.00,+29.00,-2.00,-14.00
-8.00,+72.00,+5.00,-7.00,-1.00,+5.00,-9.00,+29.00,-2.00,-58.00,-31.00,-22.00,+5.00,-58.00,-38.00,+5.00
+39.00,-19.00,+2.00,+3.00,-3.00,+6.00,+1.00,-50.00,-59.00,-76.00,-18.00,-33.00,-15.00,+0.00,+5.00,-9.00
+8.00,+65.00,+10.00,+1.00,-4.00,+10.00,+20.00,+21.00,+18.00,-15.00,+5.00,+9.00,-8.00,-18.00,+3.00,-7.00
-43.00,-64.00,-13.00,+1.00,-12.00,-53.00,-64.00,-1.00,-13.00,-61.00,-13.00,-3.00,+8.00,-32.00,-52.00,-8.00
-5.00,-3.00,-28.00,-25.00,-17.00,-6.00,-64.00,-25.00,+57.00,+95.00,+48.00,+17.00,+26.00,+45.00,+22.00,+20.00
-11.00,-54.00,+33.00,+19.00,+25.00,+27.00,+61.00,+12.00,-19.00,+4.00,+11.00,+17.00,-10.00,-11.00,-13.00,-8.00
+43.00,+97.00,-17.00,-4.00,-6.00,+7.00,-42.00,+37.00,-21.00,-42.00,-8.00,-6.00,+13.00,+2.00,+3.00,+7.00
-4.00,-43.00,-4.00,-10.00,+14.00,+25.00,-46.00,-24.00,-26.00,+67.00,+31.00,+9.00,+11.00,+16.00,+26.00,-2.00
-24.00,+0.00,+36.00,+21.00,+10.00,+14.00,+45.00,-19.00,-21.00,-48.00,-47.00,-3.00,-1.00,-10.00,-28.00,-14.00
+14.00,+38.00,-32.00,-8.00,+5.00,+2.00,+3.00,+23.00,+82.00,+53.00,+11.00,-7.00,+28.00,+29.00,+9.00,+9.00
-5.00,-39.00,+1.00,+3.00,+4.00,+18.00,+29.00,-13.00,-57.00,-59.00,-19.00,+3.00,+11.00,-10.00,-10.00,-17.00
-5.00,+17.00,+2.00,-9.00,-11.00,-2.00,+25.00,+49.00,-2.00,-91.00,+19.00,+15.00,-10.00,+5.00,+0.00,+30.00
+4.00,+11.00,+26.00,+14.00,+6.00,-4.00,-34.00,-9.00,-23.00,+39.00,+45.00,+43.00,+65.00,+32.00,+77.00,+10.00
-21.00,+1.00,-18.00,-10.00,+2.00,+16.00,+91.00,+21.00,-29.00,-77.00,-54.00,-48.00,-72.00,-30.00,-25.00,-9.00
-6.00,+1.00,-1.00,-2.00,-1.00,-17.00,-49.00,-93.00,+71.00,+110.00,+39.00,+28.00,+16.00,+2.00,+35.00,+11.00
+6.00,+10.00,+6.00,-2.00,+2.00,+33.00,+7.00,-6.00,-1.00,+8.00,-3.00,-16.00,+15.00,+24.00,-15.00,+1.00
+24.00,-12.00,-19.00,-7.00,-7.00,-20.00,-25.00,+36.00,+14.00,+15.00,+14.00,+7.00,-33.00,-18.00,-25.00,+7.00
-8.00,+50.00,+17.00,+12.00,+5.00,+8.00,+7.00,-28.00,-15.00,-31.00,+2.00,+14.00,+32.00,+21.00,+17.00,+2.00
-22.00,-9.00,-6.00,-6.00,+5.00,-5.00,-18.00,+7.00,+34.00,+61.00,+26.00,+18.00,+12.00,+30.00,+3.00,+3.00
-2.00,-8.00,+2.00,-3.00,-8.00,-10.00,+19.00,-8.00,+18.00,+40.00,-13.00,-37.00,-74.00,-88.00,-56.00,-14.00
-21.00,-79.00,-2.00,+3.00,+0.00,-5.00,-28.00,+5.00,-64.00,-72.00,-43.00,-9.00,-2.00,+21.00,+22.00,-16.00
+6.00,+9.00,+22.00,+4.00,-2.00,-7.00,-44.00,-39.00,+57.00,+102.00,+23.00,+10.00,+10.00,-9.00,+15.00,+5.00
-9.00,+0.00,+26.00,+11.00,+7.00,+6.00,+27.00,+27.00,-68.00,-101.00,-41.00,-32.00,-33.00,+2.00,-24.00,-15.00
+10.00,+77.00,-17.00,-17.00,-22.00,-23.00,-9.00,-4.00,+45.00,+83.00,+37.00,+37.00,+24.00,+6.00,+33.00,+18.00
+3.00,-8.00,-20.00,+3.00,+4.00,+13.00,+26.00,-50.00,-26.00,-67.00,-40.00,-24.00,-32.00,-24.00,-18.00,-10.00
-12.00,-27.00,-12.00,-1.00,+12.00,-21.00,-78.00,+36.00,-22.00,-25.00,-23.00,-1.00,-1.00,-4.00,-27.00,-13.00
+24.00,+47.00,+11.00,+8.00,+17.00,+38.00,+33.00,+109.00,+65.00,+88.00,+20.00,+2.00,+27.00,+21.00,+23.00,+11.00
-5.00,-33.00,+6.00,-4.00,-6.00,+5.00,+92.00,-6.00,-19.00,-94.00,-6.00,+18.00,+32.00,+34.00,+21.00,+18.00
-16.00,-63.00,+17.00,+9.00,-16.00,+7.00,+14.00,-10.00,+43.00,+63.00,+19.00,-4.00,-11.00,-9.00,-46.00,-20.00
+4.00,+77.00,-32.00,-14.00,+6.00,-12.00,-37.00,-45.00,-53.00,-72.00,-18.00,-5.00,+17.00,+16.00,+36.00,+7.00
+5.00,+1.00,-29.00,-7.00,+2.00,+4.00,+20.00,-29.00,+16.00,+37.00,+30.00,+31.00,+52.00,-17.00,-34.00,-6.00
-13.00,+4.00,+32.00,+18.00,+11.00,+9.00,+72.00,+28.00,-47.00,-84.00,-47.00,-46.00,-90.00,-7.00,+30.00,-14.00
+52.00,+79.00,-30.00,-5.00,+0.00,+4.00,+59.00,+102.00,+44.00,+38.00,+37.00,+16.00,+31.00,+8.00,-43.00,+18.00
-19.00,-33.00,+19.00,-2.00,-12.00,-5.00,+22.00,-18.00,-21.00,-28.00,-19.00,-5.00,-11.00,-73.00,-70.00,-14.00
-8.00,+13.00,+39.00,+11.00,-4.00,-14.00,-107.00,-23.00,+55.00,+65.00,+24.00,+51.00,+42.00,+39.00,+46.00,+10.00
+8.00,-19.00,-36.00,-2.00,+1.00,+5.00,-23.00,-29.00,+5.00,+61.00,+33.00,-17.00,-19.00,+6.00,+11.00,-1.00
-4.00,+48.00,-4.00,+4.00,+14.00,-13.00,+17.00,+4.00,-77.00,-74.00,-65.00,-36.00,-27.00,-10.00,-35.00,-38.00
-12.00,-60.00,+21.00,+1.00,-19.00,+0.00,+45.00,+49.00,+16.00,+48.00,+5.00,-2.00,-5.00,-3.00,+25.00,+26.00
+2.00,+34.00,-5.00,-8.00,+2.00,+8.00,-15.00,-2.00,-28.00,-1.00,-16.00,-4.00,-4.00,-8.00,-11.00,+11.00
-31.00,-70.00,-13.00,-20.00,-34.00,-31.00,-77.00,-57.00,-22.00,-58.00,-29.00,-2.00,+12.00,-23.00,-33.00,-18.00
+20.00,+82.00,-4.00,+12.00,+6.00,-14.00,-67.00,+3.00,+49.00,+62.00,+39.00,+33.00,+43.00,+58.00,+32.00,+17.00
+7.00,-27.00,-9.00,-8.00,+1.00,+28.00,+25.00,+46.00,+22.00,+78.00,+46.00,+19.00,+16.00,+10.00,+1.00,+8.00
-29.00,-75.00,+16.00,+3.00,+6.00,-2.00,+13.00,-48.00,-44.00,-87.00,-41.00,-41.00,-45.00,-33.00,-35.00,-22.00
+18.00,+54.00,-12.00,-7.00,+11.00,+16.00,+68.00,+18.00,+16.00,-21.00,-26.00,+18.00,+35.00,-8.00,-22.00,-6.00
-7.00,-44.00,+5.00,-9.00,-21.00,-38.00,+48.00,+15.00,+1.00,+4.00,+3.00,-17.00,-34.00,-29.00,-17.00,+0.00
-12.00,-17.00,+13.00,+13.00,+2.00,-20.00,-107.00,-107.00,+20.00,+13.00,+5.00,+22.00,+39.00,+51.00,+42.00,+4.00
-3.00,+40.00,+0.00,-4.00,+7.00,+9.00,+31.00,+70.00,+34.00,+79.00,+24.00,-16.00,-11.00,+11.00,+49.00,+24.00
+12.00,+22.00,-26.00,-5.00,-3.00,-1.00,-26.00,+7.00,-29.00,-45.00,-19.00,-4.00,+2.00,-25.00,-58.00,-25.00
+7.00,-11.00,-20.00,-10.00,+5.00,+9.00,-31.00,-7.00,-2.00,-35.00,+7.00,+10.00,-32.00,-30.00,-5.00,-8.00
-12.00,-29.00,+19.00,+3.00,-20.00,-22.00,+41.00,+63.00,-45.00,+24.00,+10.00,-3.00,-38.00,-22.00,-14.00,-13.00
-17.00,-43.00,+1.00,-3.00,-6.00,-24.00,-33.00,-40.00,+60.00,+51.00,+15.00,+16.00,+34.00,+55.00,+17.00,+16.00
+11.00,-6.00,+27.00,+10.00,+24.00,+33.00,-16.00,-1.00,+62.00,+85.00,+24.00,+7.00,+35.00,+19.00,+54.00,+10.00
+4.00,+58.00,+11.00,-5.00,-10.00,+4.00,-13.00,+40.00,-74.00,-59.00,-62.00,-46.00,-67.00,-64.00,-63.00,-23.00
+27.00,+75.00,-47.00,-8.00,+1.00,+23.00,-28.00,-22.00,+1.00,+54.00,+11.00,-6.00,-7.00,-4.00,-13.00,+5.00
-14.00,-31.00,+4.00,+12.00,-3.00,-11.00,-57.00,-33.00,-49.00,-28.00,-9.00,-4.00,-6.00,-1.00,-11.00,-22.00
+15.00,+13.00,+21.00,+7.00,+9.00,-10.00,+47.00,+95.00,+16.00,-15.00,-6.00,+19.00,+35.00,+11.00,+7.00,+1.00
-21.00,-52.00,+7.00,+15.00,+14.00,+15.00,-17.00,-65.00,+33.00,+22.00,+17.00,+8.00,+42.00,+7.00,+28.00,+12.00
+6.00,-8.00,-3.00,-17.00,-11.00,-3.00,-1.00,-1.00,+18.00,-5.00,-6.00,-33.00,-48.00,-22.00,-9.00,-12.00
+0.00,+45.00,+7.00,-6.00,-20.00,-21.00,-28.00,-24.00,-29.00,-43.00,-15.00,+4.00,+16.00,+4.00,-9.00,-3.00
+3.00,-43.00,-17.00,+1.00,-3.00,-25.00,-96.00,-42.00,-8.00,+85.00,+37.00,+7.00,-5.00,+14.00,+23.00,+11.00
-16.00,+42.00,+10.00,-3.00,+9.00,+31.00,+40.00,+20.00,+32.00,+68.00,-12.00,+21.00,+11.00,+45.00,+50.00,+0.00
-3.00,-88.00,-17.00,+6.00,-2.00,+8.00,-82.00,+10.00,-82.00,-128.00,-83.00,-52.00,-44.00,-74.00,-101.00,-19.00
+36.00,+79.00,-34.00,-16.00,+3.00,+3.00,+92.00,+8.00,+43.00,+127.00,+25.00,+8.00,-7.00,-4.00,+19.00,-5.00
-27.00,-90.00,+28.00,+6.00,+8.00,+43.00,+20.00,-36.00,-27.00,-95.00,-26.00,-14.00,-2.00,+14.00,+19.00,+2.00
-1.00,-23.00,-49.00,-19.00,-1.00,-17.00,-41.00,+0.00,+19.00,+46.00,+48.00,+31.00,+45.00,+64.00,+54.00,+16.00
-19.00,-37.00,+18.00,+4.00,-5.00,-9.00,-3.00,-22.00,+8.00,+42.00,+8.00,+14.00,+9.00,+22.00,+16.00,-15.00
-7.00,-11.00,-11.00,-6.00,-10.00,-10.00,-64.00,+18.00,+60.00,+80.00,+24.00,-1.00,-4.00,-11.00,-12.00,+25.00
+25.00,+84.00,+14.00,+8.00,-10.00,+4.00,+3.00,-5.00,-20.00,-62.00,-28.00,-3.00,-20.00,-32.00,-35.00,-8.00
+5.00,+27.00,-15.00,-5.00,+7.00,-22.00,+69.00,+17.00,-95.00,-56.00,-24.00,-36.00,-51.00,-55.00,-23.00,-20.00
+4.00,+77.00,+54.00,+14.00,+3.00,+31.00,+111.00,+82.00,+31.00,+14.00,+4.00,+8.00,+6.00,+22.00,+15.00,+8.00
-32.00,-128.00,-38.00,-13.00,-6.00,-15.00,+10.00,-30.00,-26.00,+8.00,+1.00,-16.00,-35.00,-21.00,-7.00,-9.00
-17.00,+12.00,+1.00,+3.00,+8.00,+4.00,-3.00,-21.00,+21.00,+34.00,+10.00,+18.00,+19.00,+20.00,+6.00,+4.00
+16.00,+41.00,+24.00,+2.00,-13.00,+7.00,-21.00,-3.00,+56.00,+107.00,+38.00,+1.00,+26.00,+6.00,-13.00,-5.00
-6.00,-15.00,-27.00,-7.00,-1.00,-44.00,-36.00,-31.00,-34.00,-77.00,-25.00,+14.00,+39.00,+7.00,+13.00,+1.00
-7.00,+22.00,+3.00,-7.00,-12.00,+42.00,+50.00,-1.00,-62.00,-121.00,-57.00,-48.00,-79.00,-33.00,-58.00,-29.00
-21.00,+0.00,-25.00,-11.00,-16.00,-44.00,-117.00,-50.00,+32.00,+32.00,+8.00,+18.00,+33.00,-5.00,-15.00,+13.00
+26.00,+41.00,+49.00,+28.00,+42.00,+48.00,+107.00,+22.00,-11.00,-33.00,-23.00,-38.00,-53.00,-33.00,-21.00,-15.00
+7.00,-80.00,-13.00,-4.00,-9.00,-7.00,+20.00,+37.00,+52.00,+75.00,+48.00,+33.00,+35.00,+26.00,+32.00,+19.00
-6.00,+44.00,-6.00,+8.00,+23.00,+2.00,-40.00,-20.00,-22.00,-35.00,+10.00,+18.00,+31.00,+15.00,+8.00,+4.00
+4.00,-7.00,-4.00,-13.00,-8.00,+0.00,-3.00,+54.00,-16.00,+19.00,-5.00,-23.00,-23.00,+19.00,+25.00,-2.00
-28.00,-40.00,+39.00,+11.00,-12.00,-14.00,-47.00,-66.00,+33.00,+33.00,+15.00,+24.00,+29.00,+3.00,-6.00,-1.00
+14.00,+6.00,-18.00,-4.00,-1.00,-9.00,-9.00,-31.00,-32.00,-117.00,-41.00,+6.00,+6.00,+48.00,+78.00,+13.00
+5.00,-13.00,+15.00,+2.00,-9.00,-5.00,+4.00,-2.00,-18.00,-25.00,-13.00,-45.00,-68.00,-98.00,-88.00,-15.00
-26.00,+7.00,+23.00,+10.00,+0.00,-12.00,-26.00,-22.00,+17.00,+60.00,+24.00,+39.00,+58.00,+13.00,+17.00,+3.00
-14.00,-116.00,-9.00,-10.00,-5.00,-15.00,-18.00,+17.00,+19.00,+33.00,-26.00,-66.00,-78.00,-55.00,-47.00,-15.00
+16.00,+39.00,-41.00,-18.00,-9.00,-2.00,+4.00,-7.00,-68.00,-78.00,-62.00,-23.00,+8.00,-2.00,-30.00,-21.00
+11.00,-12.00,-4.00,-3.00,-17.00,-13.00,-11.00,+11.00,+43.00,+33.00,+18.00,+15.00,+29.00,+23.00,+6.00,+4.00
-9.00,-20.00,+3.00,+5.00,+9.00,-14.00,+17.00,+3.00,-53.00,-18.00,-31.00,-8.00,-17.00,-7.00,-7.00,-20.00
-17.00,-25.00,+1.00,-2.00,+1.00,+20.00,-47.00,+14.00,+9.00,+4.00,+18.00,+25.00,+47.00,+25.00,+35.00,+16.00
-3.00,+36.00,+15.00,+1.00,+5.00,-13.00,-61.00,-71.00,+81.00,+88.00,+22.00,-11.00,-24.00,-19.00,-44.00,-24.00
-10.00,-46.00,+9.00,+4.00,+12.00,+18.00,+2.00,+20.00,-44.00,-92.00,-23.00,-3.00,-17.00,+0.00,+14.00,-2.00
-8.00,-68.00,+10.00,+12.00,-12.00,-3.00,+8.00,+29.00,-46.00,-11.00,-16.00,-32.00,-27.00,-13.00,-14.00,-1.00
+40.00,+70.00,-47.00,-34.00,-41.00,-56.00,+49.00,-64.00,-15.00,-21.00,-3.00,+26.00,+38.00,+25.00,+12.00,+4.00
+6.00,+25.00,-9.00,+6.00,+37.00,+36.00,+40.00,+86.00,+37.00,+55.00,+45.00,+11.00,+13.00,+2.00,-2.00,+4.00
+5.00,+23.00,+33.00,+4.00,-4.00,-12.00,-31.00,-68.00,+60.00,+98.00,+20.00,+23.00,+49.00,+57.00,+76.00,+23.00
-32.00,-101.00,+24.00,+7.00,+0.00,-4.00,-9.00,-33.00,-49.00,-82.00,-52.00,-38.00,-58.00,-27.00,-19.00,-14.00
-8.00,-12.00,-51.00,-24.00,-34.00,-40.00,-47.00,-51.00,+2.00,+14.00,+7.00,-3.00,+0.00,+18.00,+14.00,-10.00
-10.00,-29.00,+7.00,-3.00,-13.00,-12.00,-54.00,-35.00,+72.00,+102.00,+49.00,+13.00,+9.00,+4.00,+9.00,+30.00
-7.00,+18.00,+35.00,+4.00,+3.00,+1.00,+47.00,+38.00,-70.00,-39.00,-24.00,+13.00,+14.00,-55.00,-93.00,-35.00
+56.00,+66.00,-42.00,+2.00,+10.00,+13.00,+23.00,+26.00,-43.00,-70.00,-36.00,-60.00,-50.00,-54.00,-62.00,-17.00
-19.00,-29.00,+0.00,-2.00,-7.00,+6.00,-45.00,+10.00,+21.00,-13.00,-2.00,+10.00,+11.00,+20.00,+34.00,+17.00
-2.00,-20.00,+12.00,+7.00,+4.00,+7.00,+11.00,-12.00,+70.00,+61.00,+27.00,+0.00,+1.00,+7.00,+1.00,-4.00
+1.00,+32.00,+6.00,-2.00,-12.00,-18.00,-67.00,+13.00,-81.00,-66.00,-44.00,-5.00,+14.00,+22.00,+42.00,-6.00
+27.00,+97.00,-27.00,-6.00,+8.00,+17.00,+44.00,+52.00,+41.00,+75.00,+34.00,+26.00,+50.00,+10.00,-21.00,-7.00
-18.00,-2.00,+1.00,+6.00,+5.00,+4.00,-100.00,-50.00,+6.00,+20.00,+3.00,+2.00,-14.00,-4.00,+12.00,+9.00
-6.00,-12.00,-13.00,-8.00,-5.00,+1.00,+92.00,+7.00,-1.00,+77.00,+32.00,+4.00,+23.00,+13.00,+28.00,+10.00
+4.00,-16.00,+0.00,+9.00,-1.00,+3.00,+14.00,+27.00,-1.00,-47.00,-17.00,-1.00,+3.00,+11.00,+6.00,+6.00
-18.00,-82.00,+28.00,+2.00,-1.00,-40.00,-73.00,-45.00,+17.00,+19.00,+17.00,+13.00,+16.00,+10.00,+28.00,+11.00
+23.00,+31.00,-21.00,-10.00,-25.00,+1.00,+65.00,+65.00,-27.00,-13.00,-2.00,+20.00,+16.00,+9.00,-7.00,-6.00
-22.00,+69.00,+5.00,+2.00,+32.00,+25.00,-85.00,-102.00,-23.00,+10.00,+10.00,+21.00,+19.00,-7.00,-23.00,-20.00
+6.00,-32.00,-5.00,+12.00,+15.00,+22.00,+87.00,+26.00,-24.00,-77.00,-35.00,-42.00,-59.00,-25.00,+42.00,-3.00
-9.00,+35.00,-21.00,-20.00,-14.00,-12.00,+24.00,-13.00,+10.00,+19.00,+38.00,+16.00,+28.00,+20.00,-9.00,+21.00
-13.00,-127.00,+48.00,+24.00,+18.00,+28.00,+3.00,+22.00,+52.00,+88.00,+32.00,+15.00,+6.00,-8.00,+12.00,+12.00
+15.00,+59.00,+12.00,-12.00,-23.00,-27.00,+3.00,-10.00,-62.00,-128.00,-53.00,-14.00,+19.00,+14.00,+11.00,-15.00
+9.00,+71.00,-62.00,-15.00,-19.00,-58.00,-99.00,-40.00,+28.00,+102.00,+75.00,+48.00,+65.00,+35.00,-28.00,+4.00
-4.00,-17.00,+11.00,+6.00,+14.00,+60.00,+35.00,+85.00,+7.00,-63.00,-65.00,-74.00,-84.00,-14.00,+70.00,-8.00
-27.00,-18.00,+13.00,+3.00,+18.00,-5.00,+54.00,-35.00,-30.00,-83.00,-14.00,+4.00,-29.00,-98.00,-116.00,-9.00
+22.00,-26.00,+4.00,+7.00,+4.00,+19.00,+59.00,+42.00,-51.00,-95.00,-36.00,-25.00,-18.00,-3.00,+25.00,+0.00
-3.00,-34.00,-23.00,-3.00,+3.00,+2.00,-45.00,-19.00,+102.00,+81.00,+31.00,+31.00,+28.00,+14.00,+23.00,+7.00
-23.00,-24.00,+24.00,-7.00,-25.00,-4.00,+25.00,+13.00,-44.00,-34.00,+18.00,+17.00,+31.00,+48.00,+37.00,+7.00
+7.00,+48.00,-19.00,+0.00,+7.00,-14.00,-47.00,-19.00,+2.00,+61.00,+22.00,+1.00,+40.00,+45.00,+14.00,-16.00
-12.00,+61.00,+59.00,+21.00,+18.00,+16.00,+6.00,+14.00,-21.00,-85.00,-63.00,-23.00,-27.00,-30.00,+6.00,+2.00
-4.00,-102.00,-40.00,-14.00,-7.00,+3.00,+22.00,+6.00,-21.00,-100.00,-27.00,-30.00,-80.00,-29.00,-19.00,+9.00
+4.00,+8.00,-12.00,-8.00,-8.00,-13.00,-23.00,-15.00,+34.00,+100.00,+22.00,+23.00,+7.00,-6.00,+3.00,-10.00
-8.00,+58.00,-9.00,-12.00,-10.00,+17.00,+12.00,+30.00,+9.00,-19.00,-6.00,-5.00,-2.00,+15.00,+34.00,+23.00
+10.00,-18.00,+32.00,+6.00,-15.00,-29.00,-112.00,-36.00,+2.00,+17.00,-6.00,+26.00,+51.00,+4.00,-22.00,-16.00
+3.00,-54.00,+13.00,+7.00,+11.00,+18.00,+76.00,+47.00,+11.00,+34.00,+25.00,-24.00,-32.00,+16.00,+18.00,+22.00
+84.00,+127.00,-105.00,-21.00,+18.00,+3.00,+23.00,-17.00,+46.00,+46.00,+10.00,+12.00,+2.00,-29.00,-34.00,-1.00
-4.00,-50.00,+18.00,+8.00,+6.00,-12.00,-27.00,-7.00,-68.00,-105.00,-45.00,-18.00,-15.00,+1.00,+1.00,-9.00
-33.00,-63.00,+21.00,+4.00,+1.00,+27.00,+0.00,-11.00,+26.00,+52.00,+15.00,+2.00,-6.00,-2.00,-12.00,+16.00
-35.00,+64.00,+29.00,+6.00,-8.00,-1.00,+25.00,-41.00,-12.00,+30.00,+4.00,+20.00,+45.00,+28.00,+31.00,-5.00
-12.00,-66.00,-34.00,-7.00,+6.00,+1.00,+0.00,+30.00,+6.00,-12.00,+0.00,+17.00,+29.00,+32.00,+6.00,-1.00
+66.00,+20.00,+1.00,-3.00,-13.00,+5.00,+41.00,+32.00,+32.00,+110.00,+34.00,-7.00,+8.00,+4.00,-13.00,-9.00
+17.00,+4.00,-23.00,-5.00,+1.00,-15.00,+18.00,-29.00,-97.00,+74.00,+13.00,-49.00,-103.00,-49.00,+9.00,+4.00
-38.00,-67.00,+56.00,+14.00,+1.00,+13.00,-22.00,-8.00,+13.00,+2.00,-59.00,-15.00,+23.00,-2.00,+50.00,-12.00
-47.00,-11.00,-10.00,-21.00,-26.00,-22.00,+1.00,-48.00,+49.00,+85.00,+26.00,+39.00,+3.00,-19.00,-55.00,+11.00
+20.00,+39.00,-40.00,+0.00,+39.00,+5.00,+6.00,-33.00,+92.00,+61.00,+19.00,+25.00,+73.00,+48.00,+35.00,+18.00
-43.00,-66.00,-11.00,-6.00,-14.00,-24.00,-3.00,+16.00,-83.00,-70.00,-25.00,-31.00,-47.00,-29.00,-61.00,-17.00
+39.00,+21.00,+8.00,+6.00,+12.00,+15.00,-3.00,+17.00,-13.00,+24.00,+19.00,+13.00,+4.00,-18.00,-47.00,-16.00
+2.00,+2.00,+34.00,+1.00,-15.00,-17.00,-63.00,-9.00,-12.00,+14.00,+11.00,-11.00,+3.00,+16.00,+74.00,+18.00
-26.00,-59.00,+1.00,-7.00,-9.00,+26.00,-10.00,+35.00,+83.00,+39.00,+6.00,+22.00,+21.00,-1.00,-28.00,-1.00
+18.00,+18.00,-1.00,+0.00,+8.00,+16.00,-38.00,-4.00,-35.00,-39.00,+0.00,+18.00,+28.00,+45.00,+35.00,-3.00
-17.00,-26.00,-1.00,-2.00,+2.00,-12.00,+2.00,-1.00,-100.00,-89.00,-42.00,-62.00,-93.00,-63.00,-53.00,-21.00
+49.00,+96.00,-56.00,-20.00,+0.00,-1.00,+16.00,-40.00,+49.00,+33.00,-10.00,-1.00,+9.00,+17.00,-19.00,+4.00
-9.00,+7.00,+21.00,+16.00,+6.00,+8.00,+23.00,+95.00,-76.00,-125.00,-49.00,-38.00,-59.00,-50.00,+31.00,-9.00
+15.00,-25.00,-9.00,-1.00,-13.00,-8.00,-7.00,-8.00,+63.00,+58.00,+46.00,+55.00,+58.00,+52.00,+32.00,+25.00
-13.00,+14.00,+2.00,-10.00,-5.00,-13.00,-32.00,-24.00,+36.00,+48.00,+4.00,+24.00,+24.00,-10.00,-59.00,-10.00
+27.00,-5.00,+8.00,+18.00,+21.00,+24.00,+6.00,+41.00,-4.00,+66.00,+18.00,-16.00,-17.00,+10.00,+21.00,-4.00
-27.00,-18.00,+6.00,-5.00,-11.00,-8.00,-27.00,-48.00,-45.00,-54.00,-18.00,-12.00,-61.00,-26.00,-20.00,-7.00
-27.00,-26.00,+21.00,+7.00,-23.00,-21.00,+47.00,+24.00,-33.00,+26.00,+6.00,-12.00,+4.00,+8.00,+9.00,-8.00
+27.00,+19.00,-44.00,-10.00,+8.00,-39.00,-99.00,-23.00,+17.00,+55.00,+18.00,+26.00,+20.00,-7.00,+1.00,+8.00
-31.00,-52.00,+16.00,+15.00,+17.00,+25.00,+116.00,+29.00,+18.00,+45.00,+7.00,+9.00,+23.00,+28.00,+29.00,+8.00
+11.00,+26.00,-6.00,-5.00,+1.00,+17.00,-65.00,+9.00,-9.00,+36.00,-3.00,-12.00,-3.00,+0.00,-8.00,+3.00
-18.00,-38.00,-15.00,-13.00,-17.00,-14.00,+13.00,+25.00,+41.00,+92.00,+24.00,+4.00,+3.00,-2.00,-9.00,-2.00
-8.00,-13.00,+7.00,+2.00,+0.00,+1.00,-88.00,-33.00,-15.00,-47.00,-28.00,-16.00,-11.00,+10.00,+2.00,-13.00
-9.00,-65.00,+31.00,+14.00,-2.00,+7.00,+15.00,-16.00,+19.00,-3.00,+23.00,+54.00,+39.00,+0.00,-5.00,-4.00
+2.00,+16.00,-4.00,+0.00,+5.00,-4.00,+20.00,-10.00,-12.00,+34.00,+8.00,-7.00,+7.00,+74.00,+71.00,+13.00
-17.00,-34.00,+8.00,-2.00,-3.00,-24.00,-35.00,+14.00,-45.00,-110.00,-53.00,-28.00,-57.00,-124.00,-128.00,-29.00
+48.00,+63.00,-21.00,+1.00,+2.00,+37.00,+125.00,+30.00,+28.00,+57.00,+26.00,+21.00,+21.00,+9.00,+6.00,+0.00
+16.00,-13.00,-12.00,-8.00,+7.00,+5.00,-49.00,-14.00,-28.00,-67.00,-30.00,-16.00,-11.00,-2.00,+28.00,+10.00
-17.00,+0.00,+21.00,-1.00,-8.00,-4.00,+14.00,-1.00,+45.00,+55.00,+22.00,+25.00,+47.00,+19.00,-21.00,-1.00
-3.00,+10.00,-8.00,-3.00,+2.00,-5.00,-15.00,-20.00,+38.00,-26.00,+3.00,+16.00,+25.00,+54.00,+36.00,+11.00
+26.00,+24.00,-35.00,-13.00,-21.00,-15.00,+48.00,+41.00,-16.00,-38.00,-14.00,-20.00,-46.00,-36.00,-29.00,+0.00
-4.00,+30.00,+8.00,-2.00,-31.00,-25.00,-1.00,-13.00,+10.00,-2.00,+12.00,-11.00,-17.00,-29.00,-29.00,-8.00
-61.00,-94.00,+29.00,+24.00,+40.00,-1.00,-28.00,-43.00,-9.00,+4.00,+23.00,+30.00,+36.00,-6.00,-18.00,-4.00
+35.00,+17.00,-33.00,-16.00,+2.00,+14.00,+15.00,+58.00,-58.00,-100.00,-53.00,-39.00,-40.00,-27.00,-5.00,-18.00
-6.00,-46.00,+9.00,-2.00,+1.00,+11.00,+5.00,+27.00,+14.00,-28.00,+10.00,+12.00,+35.00,+19.00,+21.00,+5.00
+11.00,+18.00,+22.00,-6.00,-13.00,+2.00,-32.00,+11.00,+25.00,+41.00,+3.00,-7.00,-9.00,-1.00,+2.00,+2.00
-40.00,-59.00,-1.00,-10.00,-38.00,-71.00,-102.00,-97.00,-20.00,+28.00,+21.00,+14.00,+30.00,+11.00,+0.00,+5.00
+7.00,+63.00,-29.00,+0.00,+14.00,+37.00,-2.00,+48.00,+33.00,+56.00,+23.00,+44.00,+34.00,+24.00,+3.00,-6.00
+5.00,+34.00,-3.00,-10.00,-28.00,+1.00,+40.00,+26.00,+88.00,+55.00,-1.00,-43.00,-43.00,-7.00,+37.00,+4.00
-43.00,-38.00,+9.00,+8.00,+25.00,-4.00,-15.00,-46.00,-106.00,-128.00,-66.00,-29.00,-15.00,-5.00,-17.00,-8.00
+19.00,+6.00,+9.00,-13.00,-48.00,-30.00,-27.00,+44.00,+7.00,-22.00,-16.00,-10.00,-26.00,-28.00,-24.00,-1.00
-11.00,-29.00,-4.00,+8.00,+37.00,+2.00,-30.00,-37.00,+3.00,+44.00,+17.00,+3.00,+17.00,+25.00,+18.00,-1.00
+24.00,+14.00,-38.00,-17.00,-6.00,-1.00,-11.00,+17.00,+91.00,+127.00,+55.00,+48.00,+38.00,+56.00,+43.00,+14.00
-26.00,-6.00,+37.00,+13.00,+4.00,-3.00,+24.00,-34.00,-9.00,+34.00,-2.00,-16.00,-17.00,-32.00,-17.00,-7.00
+22.00,+12.00,-34.00,-6.00,+8.00,+23.00,+20.00,+6.00,-63.00,-80.00,-37.00,-7.00,-29.00,-58.00,-78.00,-32.00
-3.00,-22.00,-7.00,-3.00,-15.00,-4.00,+21.00,-16.00,+17.00,-14.00,-16.00,-30.00,-59.00,-19.00,+29.00,+14.00
-14.00,+3.00,+24.00,+5.00,+1.00,-9.00,-9.00,+8.00,+17.00,+33.00,+28.00,+57.00,+90.00,+71.00,+56.00,+23.00
+2.00,+6.00,-6.00,-1.00,+2.00,+5.00,-17.00,+11.00,+59.00,+102.00,+27.00,-41.00,-33.00,-24.00,-25.00,-11.00
+29.00,+27.00,+0.00,+5.00,+8.00,+2.00,+35.00,+21.00,-118.00,-120.00,-69.00,-39.00,-49.00,-14.00,-19.00,-20.00
+1.00,-18.00,+0.00,+0.00,-9.00,-12.00,+5.00,-13.00,+52.00,+52.00,+17.00,+14.00,+13.00,-5.00,+6.00,+3.00
-29.00,-5.00,+7.00,+2.00,+12.00,-31.00,-11.00,-24.00,-43.00,+23.00,-1.00,-14.00,-7.00,-9.00,-14.00,-1.00
-22.00,+5.00,+35.00,+7.00,-10.00,+30.00,-27.00,+2.00,-4.00,-92.00,-23.00,+17.00,+8.00,+2.00,-9.00,-1.00
+22.00,-7.00,-40.00,+2.00,+27.00,-29.00,-34.00,+1.00,+23.00,+22.00,+10.00,+0.00,+14.00,+8.00,+21.00,+7.00
-3.00,-17.00,+11.00,+12.00,+25.00,+42.00,+55.00,+5.00,+0.00,-17.00,+2.00,-7.00,+7.00,+5.00,-9.00,+6.00
+3.00,+12.00,-1.00,+1.00,+1.00,-1.00,-7.00,-19.00,-35.00,-43.00,-2.00,-2.00,-13.00,-10.00,-8.00,-8.00
+0.00,-8.00,+10.00,-5.00,-14.00,-3.00,+12.00,+11.00,-23.00,-25.00,+2.00,+12.00,+7.00,-3.00,-8.00,-30.00
-17.00,+28.00,-15.00,-11.00,-24.00,-7.00,-12.00,-10.00,+17.00,+33.00,+28.00,+25.00,+30.00,+19.00,+12.00,+1.00
+36.00,-9.00,-1.00,+6.00,+14.00,-8.00,-17.00,+40.00,+68.00,+40.00,+8.00,+33.00,+85.00,+40.00,+21.00,+61.00
-3.00,+19.00,+3.00,-1.00,+1.00,+8.00,-7.00,-16.00,-41.00,-16.00,-23.00,-90.00,-88.00,-33.00,-21.00,-17.00
+2.00,+26.00,-1.00,-1.00,-5.00,-13.00,+23.00,+12.00,+3.00,-38.00,-16.00,-16.00,-35.00,-61.00,-27.00,+17.00
+15.00,-6.00,+15.00,+0.00,-1.00,+21.00,+24.00,+2.00,-15.00,-6.00,-6.00,-5.00,-9.00,-15.00,-2.00,-13.00
-11.00,+30.00,+5.00,-2.00,-10.00,-8.00,-24.00,-32.00,+12.00,+26.00,+15.00,+22.00,+14.00,-10.00,-13.00,-10.00
+13.00,-55.00,-27.00,-3.00,-6.00,+2.00,+5.00,+4.00,+41.00,+71.00,+24.00,+45.00,+67.00,+38.00,+1.00,+14.00
-29.00,-19.00,-17.00,-6.00,-2.00,-10.00,-24.00,-10.00,-65.00,-76.00,-36.00,-15.00,-26.00,+15.00,+17.00,-19.00
-3.00,+8.00,+11.00,-16.00,-41.00,+3.00,+20.00,+6.00,+6.00,-1.00,-6.00,-14.00,-18.00,-10.00,+19.00,+0.00
-7.00,-5.00,-8.00,-6.00,+5.00,+1.00,+7.00,-19.00,-38.00,-30.00,-4.00,+4.00,-1.00,+3.00,-2.00,-16.00
-2.00,-7.00,+4.00,+3.00,+8.00,+1.00,-14.00,+13.00,+5.00,+5.00,+0.00,+4.00,+2.00,-1.00,-6.00,-7.00
-13.00,-4.00,-10.00,+0.00,+6.00,-7.00,-13.00,-18.00,+9.00,+19.00,+13.00,+12.00,+18.00,+16.00,+23.00,+6.00
+59.00,+9.00,+4.00,+9.00,+3.00,+18.00,+27.00,+25.00,+24.00,+46.00,+26.00,+21.00,+4.00,+3.00,-3.00,+5.00
-1.00,+21.00,+5.00,-1.00,-16.00,-9.00,-10.00,-3.00,+10.00,+7.00,+15.00,+19.00,+3.00,-1.00,+4.00,-4.00
-18.00,+7.00,+8.00,-1.00,+7.00,+7.00,-9.00,-13.00,-13.00,-51.00,-23.00,+19.00,+9.00,-11.00,-6.00,-1.00
+18.00,-1.00,-3.00,+3.00,+12.00,-4.00,+0.00,+12.00,+18.00,+17.00,-14.00,-58.00,-30.00,-9.00,-7.00,+4.00
-31.00,-10.00,-3.00,-3.00,+15.00,+11.00,+11.00,-12.00,+5.00,+21.00,+3.00,-20.00,-8.00,+9.00,+13.00,+17.00
+14.00,+19.00,+1.00,-1.00,-5.00,-6.00,-8.00,+17.00,-34.00,-29.00,-24.00,-31.00,-37.00,-17.00,-21.00,-29.00
-21.00,-26.00,+1.00,+9.00,+5.00,+1.00,+3.00,-17.00,-29.00,-11.00,+8.00,+27.00,+16.00,-8.00,-6.00,+0.00
+7.00,+15.00,-14.00,-5.00,+5.00,+7.00,-15.00,-8.00,+8.00,+15.00,+9.00,+16.00,+15.00,+17.00,+9.00,+16.00
-1.00,-9.00,+3.00,+3.00,+5.00,-2.00,+72.00,+20.00,+76.00,+20.00,+1.00,-11.00,-7.00,+4.00,+10.00,+36.00
-10.00,+16.00,+0.00,+1.00,-4.00,-1.00,-21.00,-25.00,-11.00,+15.00,-3.00,-16.00,-24.00,-11.00,-10.00,-15.00
-9.00,-6.00,+9.00,+2.00,+4.00,+7.00,+18.00,+0.00,-11.00,-15.00,-1.00,+4.00,+10.00,+1.00,+10.00,-9.00
+7.00,-3.00,-14.00,-9.00,-14.00,-7.00,-8.00,-1.00,-32.00,-28.00,-1.00,+8.00,+10.00,+11.00,+1.00,-13.00
-9.00,+14.00,+5.00,-2.00,+1.00,+1.00,-15.00,+2.00,+3.00,+11.00,+3.00,+1.00,-2.00,+1.00,+1.00,-13.00
+34.00,+0.00,+5.00,+0.00,-12.00,-5.00,-1.00,-3.00,-13.00,-1.00,+3.00,+0.00,-2.00,-3.00,+3.00,+1.00
-21.00,+0.00,+5.00,-2.00,+1.00,+6.00,+3.00,+1.00,+8.00,+17.00,+1.00,-2.00,-2.00,-2.00,-8.00,-2.00
+3.00,-1.00,+3.00,+2.00,+3.00,-4.00,-6.00,+11.00,-17.00,-73.00,-21.00,+1.00,-6.00,-12.00,-7.00,-1.00
-17.00,-11.00,-3.00,+1.00,+6.00,+2.00,-8.00,-1.00,+6.00,+4.00,+11.00,+8.00,-2.00,-6.00,-1.00,-3.00
+59.00,+7.00,-2.00,-2.00,-1.00,+2.00,+12.00,+7.00,-14.00,-22.00,-18.00,-3.00,-7.00,-8.00,-11.00,-7.00
+31.00,+9.00,+1.00,-1.00,-1.00,-2.00,-22.00,+2.00,-7.00,-20.00,-20.00,-44.00,-20.00,+1.00,+2.00,-3.00
+3.00,-5.00,+0.00,+4.00,+5.00,-2.00,+7.00,-4.00,-2.00,+37.00,+14.00,+22.00,+21.00,+14.00,+9.00,-2.00
-24.00,-12.00,-6.00,+1.00,+0.00,+3.00,-8.00,-3.00,+7.00,+2.00,-6.00,-15.00,-9.00,-9.00,-14.00,-8.00
-67.00,-10.00,-2.00,-5.00,+0.00,-3.00,-7.00,-13.00,+3.00,-11.00,-4.00,-5.00,-4.00,+4.00,+10.00,+3.00
-3.00,+1.00,+1.00,+1.00,-5.00,-2.00,-3.00,-1.00,-17.00,-8.00,-1.00,+1.00,+3.00,-7.00,-7.00,+1.00
+2.00,-2.00,+0.00,+1.00,+4.00,+1.00,+4.00,-5.00,+26.00,+17.00,+15.00,+30.00,+16.00,+2.00,-3.00,+1.00
+29.00,+10.00,+8.00,+3.00,+3.00,+5.00,+4.00,+13.00,-55.00,-18.00,-10.00,-8.00,-6.00,+3.00,-3.00,-24.00
-3.00,+5.00,+4.00,-1.00,-7.00,-7.00,-9.00,-11.00,+36.00,+18.00,+3.00,-13.00,-10.00,-3.00,-1.00,+26.00
+26.00,+5.00,+1.00,+1.00,-4.00,-1.00,-1.00,+6.00,-29.00,-23.00,-6.00,-10.00,+1.00,-6.00,-7.00,-8.00
-16.00,-1.00,+4.00,+2.00,-5.00,-2.00,+5.00,+4.00,+70.00,+27.00,+6.00,-2.00,-2.00,+1.00,-3.00,+22.00
+1.00,-7.00,-12.00,-2.00,+7.00,+4.00,-11.00,-5.00,+3.00,+6.00,+2.00,+7.00,+6.00,+5.00,+5.00,+0.00
-19.00,-6.00,-12.00,-4.00,-6.00,-7.00,-4.00,-10.00,-7.00,+3.00,+4.00,-5.00,-3.00,-5.00,-6.00,-15.00
-14.00,+6.00,+10.00,-11.00,-7.00,-4.00,-5.00,-4.00,-12.00,-4.00,-5.00,+5.00,+1.00,-1.00,-5.00,-7.00
+0.00,+2.00,-5.00,+3.00,+2.00,+0.00,-6.00,+0.00,-42.00,-4.00,+0.00,+1.00,+1.00,+3.00,+1.00,-14.00
-3.00,-13.00,-12.00,-5.00,-2.00,-1.00,-7.00,-5.00,+2.00,-13.00,-1.00,+1.00,+1.00,+0.00,+1.00,-1.00
-12.00,+9.00,+6.00,+4.00,+5.00,+2.00,+6.00,+9.00,+5.00,+4.00,-6.00,-2.00,-7.00,-3.00,-1.00,+0.00
-5.00,+1.00,-2.00,+2.00,+8.00,+0.00,-1.00,-5.00,+15.00,+6.00,+10.00,+4.00,+0.00,-1.00,+0.00,+5.00
-13.00,-10.00,-1.00,-3.00,+4.00,+2.00,+0.00,-3.00,-20.00,-25.00,-9.00,-11.00,-3.00,+1.00,-3.00,-7.00
+40.00,+9.00,+5.00,+2.00,-5.00,+1.00,-8.00,-2.00,-2.00,-2.00,-3.00,+3.00,-1.00,-1.00,-1.00,+0.00
-38.00,-17.00,-4.00,-1.00,+7.00,+2.00,-1.00,-7.00,+8.00,+17.00,+1.00,-19.00,-10.00,-2.00,+1.00,+3.00
+51.00,+3.00,+1.00,-2.00,+1.00,+1.00,+3.00,+17.00,-11.00,-21.00,-7.00,+10.00,+6.00,+6.00,+1.00,-3.00
+50.00,+18.00,+3.00,+1.00,+3.00,+2.00,-2.00,-1.00,+17.00,+22.00,+6.00,+5.00,-1.00,-6.00,-10.00,+0.00
-32.00,+0.00,-2.00,-1.00,+4.00,-1.00,+2.00,-3.00,-9.00,-3.00,-2.00,-8.00,+0.00,-2.00,-2.00,+9.00
-11.00,-10.00,-3.00,-4.00,-5.00,-3.00,-3.00,-5.00,+15.00,-3.00,-3.00,-1.00,-2.00,-2.00,+1.00,+2.00
-40.00,-13.00,-8.00,-3.00,-5.00,-5.00,-4.00,-14.00,-4.00,+3.00,+3.00,+1.00,+0.00,-3.00,-5.00,-2.00
-28.00,-3.00,+5.00,-1.00,+2.00,-2.00,+1.00,-10.00,+7.00,+10.00,+5.00,+6.00,+3.00,+5.00,+8.00,-2.00
+75.00,+24.00,+3.00,+2.00,+1.00,+3.00,+6.00,+12.00,-5.00,-5.00,-2.00,+3.00,+1.00,-3.00,-1.00,+0.00
-9.00,-11.00,-1.00,+2.00,-2.00,-1.00,-1.00,-3.00,+6.00,+13.00,+4.00,-4.00,-4.00,-3.00,+2.00,+7.00
-21.00,-1.00,-12.00,-6.00,-7.00,-2.00,-5.00,-4.00,+13.00,-2.00,-2.00,-3.00,-1.00,-7.00,+0.00,+9.00
-6.00,-17.00,-12.00,-6.00,-7.00,-4.00,+0.00,-1.00,+6.00,+2.00,+2.00,+6.00,+0.00,-1.00,-3.00,-1.00
-32.00,-9.00,+2.00,-4.00,-5.00,-2.00,-3.00,-7.00,+10.00,+6.00,+3.00,+3.00,+1.00,-4.00,-5.00,-10.00
+9.00,+7.00,+11.00,+1.00,+1.00,-1.00,-2.00,+1.00,+2.00,+5.00,-3.00,-4.00,+0.00,-1.00,+2.00,+4.00
-8.00,+5.00,+5.00,+6.00,-1.00,+0.00,+0.00,-5.00,-54.00,-27.00,-2.00,+3.00,+1.00,-3.00,-4.00,-19.00
+24.00,+3.00,-5.00,-8.00,+2.00,-1.00,+1.00,+3.00,-8.00,-6.00,-6.00,-3.00,+0.00,-2.00,+1.00,-8.00
-5.00,+10.00,+3.00,+0.00,-6.00,-2.00,-2.00,+1.00,+21.00,+10.00,-3.00,-10.00,-2.00,+1.00,+6.00,+24.00
+11.00,-6.00,-2.00,+2.00,+9.00,-1.00,-2.00,+0.00,-16.00,-16.00,-8.00,-5.00,-3.00,-6.00,-8.00,-3.00
+17.00,+2.00,+3.00,-2.00,-5.00,-1.00,+3.00,+11.00,+33.00,-2.00,-2.00,+6.00,+1.00,-2.00,+0.00,+14.00
+6.00,+1.00,-2.00,+1.00,-3.00,-2.00,+1.00,+2.00,+0.00,+38.00,+6.00,-5.00,-6.00,+1.00,-1.00,-1.00
-10.00,-8.00,+0.00,-2.00,-5.00,+1.00,-2.00,+2.00,+1.00,-10.00,+1.00,+12.00,+6.00,+0.00,-3.00,-7.00
-7.00,+0.00,-6.00,-4.00,-7.00,-3.00,-1.00,+0.00,-31.00,-8.00,-5.00,-9.00,-8.00,-5.00,-6.00,-15.00
-19.00,-15.00,-2.00,+3.00,+7.00,+1.00,-1.00,-9.00,-4.00,-7.00,-8.00,-13.00,-6.00,-4.00,-2.00,-6.00
-12.00,+8.00,+7.00,+1.00,-9.00,-2.00,+1.00,+1.00,+2.00,+7.00,+5.00,+2.00,+4.00,+0.00,+1.00,+3.00
-4.00,+15.00,+1.00,+0.00,+4.00,+1.00,-1.00,-5.00,+11.00,+2.00,-5.00,-4.00,-5.00,-2.00,+2.00,+9.00
-9.00,-21.00,-18.00,-6.00,-3.00,-2.00,-2.00,-9.00,-6.00,+12.00,+5.00,+2.00,+0.00,-2.00,-6.00,-12.00
-3.00,-7.00,-4.00,+1.00,+3.00,-1.00,-2.00,-5.00,+1.00,-7.00,-4.00,+1.00,-2.00,-3.00,-6.00,-7.00
+16.00,+5.00,+3.00,-1.00,-4.00,-1.00,-1.00,+3.00,-19.00,-10.00,-6.00,-8.00,-2.00,-1.00,+0.00,-10.00
-16.00,-1.00,+7.00,+1.00,-1.00,-2.00,+0.00,-5.00,+6.00,+4.00,+1.00,-1.00,+0.00,+1.00,-6.00,-3.00
+22.00,+9.00,+1.00,+0.00,-1.00,+3.00,-1.00,-1.00,-3.00,-14.00,-3.00,+5.00,+1.00,-1.00,+2.00,+4.00
+30.00,-9.00,-1.00,-4.00,+2.00,+4.00,+0.00,+4.00,-16.00,+1.00,+1.00,-2.00,-2.00,-1.00,+0.00,-2.00
-12.00,+6.00,-5.00,+0.00,-9.00,-3.00,-1.00,-4.00,+41.00,-12.00,-10.00,-7.00,-2.00,-4.00,+2.00,+19.00
-8.00,-1.00,-4.00,+2.00,+10.00,-1.00,-2.00,-1.00,-20.00,+4.00,+4.00,-1.00,+0.00,-2.00,-4.00,-12.00
-20.00,-4.00,+4.00,-3.00,-9.00,-2.00,-1.00,-2.00,-26.00,-26.00,-14.00,-7.00,-4.00,-3.00,-4.00,-10.00
-14.00,-4.00,-4.00,-3.00,-4.00,-4.00,-1.00,-1.00,+22.00,+9.00,+2.00,+5.00,+1.00,-2.00,-3.00,+0.00
+9.00,+7.00,+5.00,+1.00,+9.00,+4.00,+4.00,+4.00,-25.00,-5.00,+0.00,+4.00,+0.00,-3.00,-4.00,-9.00
-12.00,-28.00,-8.00,+1.00,-1.00,-1.00,+2.00,+5.00,+0.00,+15.00,+3.00,-2.00,-2.00,+0.00,+2.00,-5.00
+0.00,+8.00,+2.00,-1.00,-2.00,-4.00,-3.00,-2.00,-27.00,-17.00,-7.00,-8.00,-3.00,-2.00,-2.00,-5.00
+12.00,+7.00,+5.00,-1.00,-2.00,+0.00,-1.00,+1.00,+7.00,-3.00,-3.00,-19.00,-5.00,-2.00,+0.00,+8.00
-19.00,-9.00,-2.00,-2.00,-3.00,-1.00,-3.00,-8.00,-22.00,-1.00,+6.00,+26.00,+11.00,+2.00,-2.00,-12.00
+0.00,+5.00,+3.00,+3.00,+6.00,+2.00,+2.00,+6.00,+19.00,+0.00,-11.00,-30.00,-14.00,-7.00,-6.00,-3.00
+21.00,+1.00,+3.00,+1.00,-2.00,+1.00,+0.00,+8.00,+43.00,+26.00,+12.00,+6.00,+3.00,+3.00,+9.00,+36.00
+4.00,+4.00,-4.00,-3.00,-8.00,-3.00,+0.00,+9.00,+9.00,+15.00,-1.00,+1.00,-2.00,+1.00,+1.00,+3.00
-10.00,-15.00,-6.00,-1.00,+6.00,+3.00,-1.00,-5.00,-14.00,-26.00,-11.00,-8.00,-6.00,-2.00,-2.00,-1.00
-7.00,-13.00,-6.00,-6.00,-7.00,-3.00,-3.00,-5.00,-29.00,-6.00,+0.00,+3.00,+2.00,+0.00,-2.00,-15.00
+16.00,+15.00,+3.00,+2.00,+0.00,+0.00,+1.00,+5.00,-2.00,-8.00,+1.00,+6.00,+3.00,+1.00,-2.00,-11.00
-9.00,+10.00,+2.00,+2.00,-1.00,+1.00,+0.00,-2.00,+29.00,+8.00,-3.00,+0.00,+1.00,+0.00,+0.00,+11.00
-7.00,-4.00,+3.00,-3.00,-5.00,-2.00,-1.00,-1.00,-8.00,+22.00,+5.00,-7.00,-3.00,-1.00,-1.00,-4.00
-10.00,-18.00,-7.00,-6.00,-3.00,+1.00,+0.00,-3.00,-25.00,-23.00,-4.00,+5.00,+1.00,+2.00,+4.00,-3.00
-17.00,-2.00,-2.00,+5.00,+2.00,-1.00,-4.00,-9.00,+24.00,+4.00,+1.00,-3.00,-2.00,+1.00,+1.00,+2.00
+0.00,-9.00,-5.00,-3.00,-4.00,-2.00,-3.00,-4.00,-8.00,-11.00,-4.00,+2.00,+1.00,-1.00,+1.00,+0.00
+24.00,+13.00,-1.00,+4.00,+7.00,+1.00,+2.00,+3.00,+12.00,+12.00,+3.00,+2.00,-2.00,+1.00,-1.00,-2.00
-3.00,+13.00,+3.00,+0.00,+4.00,+1.00,+0.00,+1.00,-12.00,+3.00,+0.00,+3.00,-1.00,-1.00,-5.00,-6.00
-4.00,-13.00,-5.00,-4.00,+3.00,-1.00,-3.00,-5.00,+25.00,+2.00,-4.00,-8.00,-1.00,+0.00,+5.00,+19.00
+0.00,-3.00,+1.00,+3.00,+4.00,+1.00,+0.00,-2.00,-3.00,+8.00,+5.00,+2.00,+2.00,+0.00,-3.00,-4.00
-4.00,-10.00,-1.00,+1.00,-1.00,-2.00,+1.00,+10.00,+25.00,-9.00,+0.00,-7.00,-1.00,+0.00,+2.00,+9.00
+18.00,+10.00,+1.00,-2.00,-3.00,-1.00,+0.00,+0.00,-10.00,-10.00,-7.00,-9.00,-5.00,-1.00,+1.00,+2.00
-3.00,+3.00,+3.00,+2.00,-1.00,+2.00,+2.00,+2.00,-21.00,+8.00,+8.00,+13.00,+4.00,+2.00,-1.00,-12.00
+0.00,-1.00,-1.00,-3.00,+0.00,+0.00,+0.00,-7.00,-14.00,-11.00,-6.00,+6.00,+2.00,-2.00,-3.00,-5.00
+13.00,+0.00,+0.00,+0.00,+5.00,-1.00,+0.00,+3.00,-5.00,-7.00,-4.00,-10.00,-5.00,+0.00,+0.00,+2.00
+12.00,+0.00,+0.00,+5.00,+9.00,+1.00,+0.00,+6.00,+15.00,-1.00,+3.00,+4.00,+3.00,+0.00,+0.00,+2.00
+4.00,-7.00,-9.00,-7.00,-15.00,-1.00,-1.00,-1.00,-5.00,+2.00,+1.00,+7.00,+0.00,-2.00,-4.00,-11.00
-15.00,+6.00,+5.00,-1.00,+0.00,-1.00,-3.00,-6.00,-9.00,-1.00,-3.00,-9.00,-4.00,-3.00,-3.00,-2.00
+9.00,+0.00,-1.00,+1.00,+7.00,-2.00,+1.00,+0.00,+10.00,+19.00,+5.00,+2.00,+1.00,+2.00,+5.00,+6.00
-8.00,+13.00,+1.00,-1.00,-13.00,-4.00,-2.00,-8.00,-2.00,+6.00,+2.00,+3.00,+2.00,+1.00,+0.00,+0.00
+17.00,+3.00,+3.00,-1.00,+4.00,+1.00,+1.00,+6.00,-6.00,-15.00,-9.00,-7.00,-2.00,-3.00,-2.00,-4.00
-6.00,-4.00,+0.00,+3.00,+1.00,+2.00,+0.00,-2.00,-5.00,+0.00,+5.00,+9.00,+2.00,+0.00,+1.00,-2.00
-10.00,-14.00,-12.00,-6.00,-4.00,+0.00,-1.00,-1.00,-5.00,+16.00,+2.00,-4.00,+0.00,+0.00,-3.00,-5.00
-9.00,-9.00,-3.00,-5.00,-7.00,-5.00,-3.00,-6.00,-12.00,-41.00,-14.00,-5.00,-3.00,-5.00,-5.00,-4.00
+4.00,+2.00,+1.00,-1.00,+4.00,-1.00,+0.00,+2.00,+10.00,-2.00,+7.00,+20.00,+6.00,+2.00,+5.00,+6.00
-10.00,-2.00,-3.00,-1.00,-2.00,-1.00,-4.00,-7.00,-9.00,-3.00,-11.00,-16.00,-10.00,-4.00,-7.00,-25.00
-15.00,+0.00,+3.00,+1.00,+1.00,+0.00,-3.00,-3.00,-2.00,-4.00,-5.00,-1.00,-2.00,-2.00,+2.00,+19.00
+18.00,+0.00,-4.00,-3.00,-3.00,-2.00,-2.00,+1.00,+15.00,+33.00,+9.00,+2.00,+3.00,+1.00,+2.00,+4.00
-7.00,-3.00,-3.00,+0.00,-1.00,-4.00,-2.00,-3.00,-11.00,-15.00,-2.00,+4.00,+2.00,-1.00,-3.00,-8.00
-3.00,+2.00,+4.00,-1.00,+1.00,-1.00,+1.00,+2.00,+2.00,-11.00,-1.00,+5.00,+2.00,+1.00,-2.00,+2.00
-8.00,+0.00,-1.00,+0.00,-6.00,-3.00,-2.00,-4.00,-16.00,-4.00,+0.00,-7.00,-3.00,-2.00,-6.00,-12.00
-22.00,-16.00,-12.00,-5.00,+1.00,+0.00,+0.00,-3.00,+21.00,+3.00,-1.00,-3.00,-3.00,-3.00,-4.00,+3.00
+6.00,-4.00,-2.00,+0.00,+3.00,+0.00,+0.00,-1.00,+4.00,+6.00,+0.00,-5.00,-3.00,-2.00,-3.00,-4.00
+18.00,+1.00,+5.00,-3.00,-2.00,-1.00,+0.00,+6.00,-22.00,-1.00,-2.00,-3.00,-3.00,-2.00,-4.00,-5.00
+4.00,+14.00,+9.00,+0.00,-6.00,+0.00,+1.00,+2.00,-15.00,-17.00,-7.00,-11.00,-3.00,-1.00,-5.00,-10.00
-4.00,-4.00,-5.00,-2.00,-2.00,-1.00,-3.00,-8.00,+15.00,+9.00,+3.00,+6.00,+2.00,+1.00,+5.00,+13.00
-13.00,-7.00,-1.00,+1.00,+1.00,+0.00,+1.00,+1.00,+9.00,+23.00,-1.00,-7.00,-3.00,-1.00,-1.00,-4.00
+6.00,+0.00,-4.00,-1.00,+1.00,-1.00,-2.00,+2.00,+15.00,-14.00,-2.00,-1.00,-1.00,-1.00,+1.00,+8.00
+7.00,+1.00,+1.00,-1.00,-4.00,-2.00,+0.00,-3.00,-3.00,+6.00,+2.00,+11.00,+4.00,-1.00,-1.00,-1.00
-4.00,+5.00,+4.00,+3.00,+0.00,+0.00,+0.00,-3.00,-18.00,-20.00,-4.00,-4.00,-3.00,+0.00,+0.00,-7.00
-10.00,-6.00,-3.00,-3.00,-3.00,-3.00,-2.00,-5.00,-7.00,+13.00,+4.00,-4.00,-5.00,+0.00,-5.00,-8.00
-6.00,+1.00,-1.00,+0.00,-1.00,-1.00,+0.00,+1.00,-6.00,-12.00,-8.00,-1.00,-2.00,-1.00,-2.00,-1.00
+18.00,+1.00,+2.00,-2.00,-1.00,-3.00,-2.00,+2.00,+18.00,+1.00,+1.00,+5.00,-1.00,-2.00,+1.00,+7.00
+17.00,+4.00,-1.00,+1.00,+0.00,-1.00,+0.00,+3.00,-12.00,+0.00,+1.00,-3.00,-2.00,-2.00,-3.00,-8.00
+10.00,+5.00,+0.00,-1.00,-4.00,-2.00,-2.00,+3.00,+9.00,+0.00,-2.00,-5.00,-3.00,-3.00,-5.00,-2.00
-22.00,-5.00,-2.00,-2.00,-2.00,-1.00,-1.00,-5.00,+11.00,+6.00,+6.00,+4.00,+2.00,+4.00,+9.00,+16.00
-8.00,-4.00,-4.00,-3.00,+2.00,-1.00,-3.00,-7.00,-11.00,-6.00,-1.00,-2.00,+0.00,-3.00,-3.00,-7.00
-17.00,-8.00,+0.00,+2.00,+5.00,+2.00,-2.00,-2.00,+4.00,+15.00,+1.00,+0.00,+1.00,+2.00,+2.00,+1.00
+7.00,+7.00,+0.00,-6.00,-4.00,-1.00,+1.00,+9.00,-16.00,-6.00,-4.00,-2.00,-2.00,-1.00,-3.00,-7.00
+40.00,+13.00,+4.00,+2.00,-5.00,+0.00,+3.00,+15.00,-6.00,-4.00,-2.00,+1.00,+2.00,-1.00,-2.00,-6.00
-9.00,-13.00,-7.00,-2.00,-2.00,-2.00,+0.00,+2.00,+1.00,+0.00,-3.00,-11.00,-5.00,-4.00,-3.00,-5.00
-6.00,+2.00,+1.00,-2.00,+1.00,+0.00,-3.00,-3.00,-1.00,-5.00,+0.00,+6.00,+0.00,-2.00,-4.00,-1.00
-25.00,-9.00,-3.00,+0.00,-1.00,-2.00,-3.00,-9.00,-4.00,-4.00,-8.00,-9.00,-4.00,-2.00,+1.00,+1.00
-7.00,+3.00,-2.00,+2.00,+8.00,-2.00,-3.00,-8.00,-10.00,+1.00,+4.00,+0.00,+0.00,-3.00,-5.00,-9.00
-8.00,-8.00,-1.00,-3.00,-2.00,+1.00,-1.00,+2.00,+20.00,+0.00,+2.00,+11.00,+4.00,+2.00,+4.00,+8.00
-10.00,-1.00,-2.00,-2.00,-6.00,-3.00,-2.00,-4.00,+1.00,-8.00,-8.00,-3.00,-5.00,-2.00,+1.00,+7.00
-6.00,-5.00,+1.00,+0.00,+1.00,+2.00,+1.00,+7.00,+4.00,+0.00,+1.00,-2.00,-1.00,+1.00,+5.00,+2.00
+3.00,+2.00,-6.00,-2.00,-1.00,-1.00,+1.00,-2.00,+2.00,+2.00,-1.00,-5.00,-3.00,-2.00,+0.00,+2.00
+9.00,-2.00,+2.00,+0.00,-4.00,-2.00,-3.00,-7.00,-8.00,+11.00,+4.00,+11.00,+3.00,-1.00,-7.00,-17.00
-17.00,+2.00,-2.00,-3.00,-1.00,+0.00,+2.00,+2.00,-4.00,-21.00,-7.00,-7.00,-2.00,-2.00,-5.00,-2.00
+6.00,+1.00,+3.00,+1.00,+0.00,-2.00,-3.00,-11.00,+7.00,+2.00,+3.00,+12.00,+3.00,+1.00,+5.00,+1.00
-2.00,+3.00,+12.00,+5.00,-2.00,+0.00,+2.00,-2.00,+3.00,+4.00,-6.00,-8.00,-6.00,-3.00,-3.00,+0.00
+4.00,-11.00,-8.00,-2.00,-1.00,+0.00,-1.00,+4.00,-10.00,-10.00,-7.00,-15.00,-6.00,-3.00,-2.00,-2.00
-1.00,+14.00,-11.00,-5.00,-7.00,-4.00,-3.00,+0.00,+21.00,+23.00,+5.00,+1.00,-1.00,+1.00,+4.00,+12.00
-3.00,-4.00,-1.00,-1.00,-1.00,-3.00,-2.00,-4.00,-37.00,-20.00,-9.00,-4.00,-4.00,-4.00,-5.00,-9.00
-12.00,-10.00,-6.00,-5.00,-8.00,-4.00,-4.00,-8.00,-2.00,-6.00,+0.00,+6.00,+4.00,+1.00,-2.00,-4.00
-3.00,+6.00,+3.00,+0.00,-4.00,-1.00,-2.00,-5.00,+2.00,-3.00,+0.00,-7.00,-3.00,-1.00,+5.00,-1.00
+5.00,-10.00,+4.00,+2.00,+3.00,-1.00,+1.00,+0.00,-3.00,+6.00,+0.00,+0.00,-1.00,-2.00,+1.00,+10.00
+5.00,+10.00,-2.00,-1.00,+0.00,-2.00,-2.00,-3.00,+20.00,+32.00,+8.00,+0.00,-1.00,+1.00,+0.00,+0.00
-16.00,-2.00,-3.00,-3.00,-1.00,-1.00,-2.00,-1.00,-9.00,-33.00,-14.00,-5.00,-3.00,-2.00,-1.00,+0.00
+21.00,+6.00,+3.00,+2.00,-2.00,+0.00,+2.00,+1.00,-10.00,-10.00,-3.00,+3.00,+0.00,-1.00,-5.00,-4.00
+5.00,-5.00,-1.00,-2.00,+4.00,-1.00,+0.00,+3.00,-15.00,-8.00,-4.00,-7.00,-1.00,-2.00,-7.00,-17.00
+7.00,+3.00,+0.00,+0.00,-2.00,+0.00,-1.00,+0.00,+5.00,+0.00,+0.00,+0.00,-3.00,-2.00,-2.00,+5.00
-6.00,-10.00,-2.00,+0.00,+0.00,+1.00,-1.00,+2.00,+11.00,+26.00,+6.00,+1.00,+0.00,+0.00,-1.00,+2.00
-7.00,+2.00,-12.00,-6.00,-2.00,-3.00,-3.00,-4.00,-6.00,-15.00,-4.00,-1.00,-2.00,+0.00,+0.00,-1.00
+0.00,-3.00,+0.00,+2.00,-1.00,-1.00,-1.00,-3.00,-1.00,+0.00,+1.00,+6.00,+2.00,-2.00,-2.00,-9.00
+2.00,+11.00,+10.00,+2.00,-1.00,+2.00,+1.00,-3.00,-11.00,-13.00,-4.00,-3.00,+2.00,+1.00,+1.00,+3.00
-5.00,-21.00,-9.00,-2.00,-1.00,-2.00,-1.00,+1.00,+10.00,+11.00,+2.00,-6.00,-3.00,+1.00,+4.00,+8.00
+1.00,+4.00,+0.00,+0.00,+2.00,-2.00,+0.00,-3.00,-11.00,-4.00,-5.00,-5.00,-3.00,-3.00,-2.00,-2.00
+3.00,-5.00,-3.00,-1.00,-2.00,-1.00,-1.00,+0.00,+13.00,+18.00,+4.00,+0.00,-1.00,+0.00,+3.00,+1.00
