+15.00,-2.00,-2.00,+3.00,-2.00,-1.00,+0.00,+0.00,+2.00,+1.00,-1.00,+0.00,+0.00,-1.00,-2.00,+0.00
-1.00,+0.00,+2.00,-1.00,-1.00,-2.00,-1.00,+2.00,+2.00,-3.00,-2.00,-4.00,-1.00,-2.00,+1.00,+2.00
+4.00,-3.00,-4.00,-2.00,+0.00,+0.00,+1.00,-1.00,+1.00,-2.00,+2.00,+2.00,+0.00,-1.00,-2.00,-3.00
-3.00,+2.00,-2.00,+0.00,-2.00,-1.00,-4.00,-4.00,-8.00,-5.00,-1.00,-3.00,-1.00,+2.00,+0.00,+0.00
-15.00,-3.00,+2.00,-1.00,+1.00,-3.00,-6.00,-2.00,+5.00,+2.00,-1.00,+4.00,+1.00,+0.00,-2.00,-1.00
+2.00,+3.00,+1.00,-2.00,+2.00,+3.00,+2.00,-1.00,-9.00,-4.00,-3.00,+1.00,-2.00,-2.00,-3.00,-2.00
+0.00,-3.00,+0.00,-1.00,+0.00,+2.00,+7.00,+1.00,+7.00,+3.00,+0.00,-3.00,-6.00,-1.00,-2.00,-1.00
-7.00,-10.00,-6.00,-4.00,-3.00,-3.00,-1.00,-5.00,-7.00,-9.00,-4.00,+0.00,-2.00,+0.00,-1.00,-4.00
+2.00,+3.00,-2.00,+1.00,+1.00,+0.00,-1.00,-2.00,+5.00,+1.00,+0.00,-1.00,-2.00,-1.00,+3.00,+4.00
+3.00,+2.00,+2.00,+0.00,+0.00,-2.00,-2.00,+7.00,-2.00,+1.00,+0.00,+2.00,+1.00,-1.00,-2.00,+0.00
-8.00,+2.00,+2.00,+0.00,+3.00,-2.00,-4.00,-4.00,-4.00,-1.00,-1.00,-1.00,-1.00,+1.00,-3.00,-3.00
+16.00,+2.00,+0.00,-2.00,-2.00,-1.00,+2.00,+12.00,+6.00,+2.00,-2.00,-2.00,+0.00,-2.00,+0.00,+3.00
-13.00,-2.00,-1.00,+0.00,-4.00,-1.00,+0.00,+3.00,+0.00,-1.00,-2.00,-1.00,-2.00,+1.00,-1.00,-2.00
+33.00,+3.00,-3.00,-2.00,-4.00,-1.00,-2.00,+2.00,+4.00,+0.00,-1.00,-3.00,-3.00,-3.00,-5.00,-5.00
+16.00,+4.00,+1.00,-1.00,-5.00,-1.00,+0.00,+9.00,+8.00,-1.00,+0.00,+1.00,-1.00,+1.00,-1.00,+3.00
-5.00,+2.00,+0.00,-1.00,-3.00,-2.00,-2.00,-11.00,-13.00,-1.00,+1.00,+2.00,-1.00,-1.00,-2.00,-5.00
-2.00,-2.00,+1.00,+1.00,+4.00,-2.00,-1.00,-2.00,-12.00,-6.00,-2.00,-2.00,-2.00,-1.00,-2.00,-5.00
-14.00,-5.00,-2.00,-1.00,+0.00,+0.00,+1.00,+1.00,-5.00,+0.00,-2.00,-4.00,-2.00,-1.00,-2.00,-1.00
-12.00,-6.00,-3.00,-3.00,-1.00,-4.00,-1.00,-3.00,-4.00,+0.00,+0.00,+6.00,+4.00,+2.00,+2.00,-2.00
-13.00,-2.00,-1.00,+2.00,+0.00,-1.00,-1.00,-5.00,+6.00,+1.00,-4.00,-11.00,-3.00,-4.00,-5.00,-3.00
+21.00,+4.00,-1.00,-5.00,-10.00,+0.00,+0.00,+1.00,+9.00,+1.00,+0.00,+0.00,-1.00,-2.00,-1.00,+5.00
-7.00,+0.00,+0.00,+0.00,-4.00,-1.00,-1.00,-6.00,+0.00,-1.00,-1.00,-4.00,-3.00,+0.00,+5.00,+3.00
+0.00,-2.00,-2.00,-1.00,+1.00,-1.00,-2.00,-7.00,-10.00,-2.00,-2.00,-2.00,-1.00,-2.00,-2.00,-4.00
-11.00,-1.00,-2.00,-2.00,-3.00,-2.00,+0.00,-2.00,+2.00,-2.00,+2.00,+12.00,+1.00,-1.00,+1.00,+2.00
-6.00,-2.00,-2.00,-1.00,+2.00,+1.00,-1.00,+0.00,-9.00,-2.00,-1.00,-7.00,-1.00,+1.00,-2.00,-5.00
+3.00,-2.00,-2.00,-2.00,+2.00,-1.00,-3.00,+0.00,+5.00,-1.00,+0.00,+0.00,+0.00,+0.00,-1.00,+1.00
+2.00,+1.00,+2.00,+1.00,+2.00,+0.00,-2.00,+0.00,+4.00,+0.00,-1.00,-4.00,-3.00,-1.00,+0.00,+0.00
+0.00,-10.00,-2.00,-1.00,+1.00,-2.00,-3.00,+0.00,-5.00,+0.00,+1.00,+4.00,+0.00,-1.00,-2.00,-5.00
+1.00,+6.00,-3.00,+0.00,+2.00,+0.00,-3.00,+2.00,-4.00,-4.00,-4.00,-2.00,-3.00,-2.00,-4.00,-3.00
+0.00,+3.00,-2.00,+1.00,+2.00,+1.00,+4.00,-1.00,+0.00,+1.00,+2.00,+6.00,+1.00,-1.00,+0.00,+0.00
+2.00,-6.00,+0.00,-1.00,+2.00,-1.00,-1.00,+15.00,+1.00,+0.00,-6.00,-6.00,-3.00,-1.00,-2.00,-1.00
-8.00,+1.00,+1.00,-2.00,-1.00,-1.00,-1.00,-10.00,-8.00,-8.00,-3.00,-5.00,-3.00,-2.00,-4.00,-3.00
-20.00,-11.00,-4.00,-3.00,-1.00,-4.00,-8.00,-19.00,+3.00,-1.00,-1.00,+0.00,-1.00,-2.00,-1.00,-1.00
+13.00,+1.00,-1.00,+0.00,+2.00,+0.00,+0.00,+22.00,+0.00,-3.00,-2.00,-1.00,+1.00,-1.00,+4.00,+2.00
-1.00,+2.00,-1.00,+1.00,+2.00,+0.00,+0.00,-5.00,+0.00,-1.00,+1.00,+1.00,+0.00,-2.00,-5.00,-3.00
-7.00,-2.00,-1.00,-2.00,-5.00,-1.00,-4.00,-2.00,-11.00,-1.00,-2.00,+1.00,+0.00,-1.00,+0.00,-3.00
-25.00,-2.00,+1.00,+0.00,+1.00,-2.00,-7.00,-39.00,+1.00,+1.00,+1.00,+0.00,-1.00,-1.00,+2.00,-2.00
+17.00,+4.00,+2.00,-2.00,+1.00,+0.00,+5.00,+46.00,+2.00,-2.00,+1.00,+3.00,+1.00,-1.00,-3.00,-3.00
-4.00,-1.00,-1.00,-1.00,-2.00,-1.00,-1.00,-8.00,+14.00,+5.00,+4.00,+1.00,-1.00,-4.00,-8.00,-1.00
+7.00,+0.00,+0.00,-1.00,-2.00,-2.00,-4.00,-1.00,-11.00,-2.00,-6.00,-9.00,-3.00,-1.00,+7.00,+0.00
-8.00,-7.00,-4.00,-3.00,-3.00,-3.00,-2.00,-9.00,-2.00,-2.00,+0.00,+2.00,+0.00,+3.00,+6.00,+3.00
-10.00,-3.00,+1.00,+0.00,-2.00,-1.00,-2.00,-23.00,-8.00,-2.00,-3.00,-3.00,-2.00,-1.00,-4.00,-3.00
+8.00,+2.00,+1.00,-1.00,+0.00,+2.00,+4.00,+8.00,+0.00,-2.00,-1.00,-2.00,+0.00,+1.00,-2.00,-1.00
-5.00,-2.00,-2.00,+0.00,+1.00,+3.00,+2.00,-2.00,+10.00,+5.00,+3.00,+2.00,-1.00,-1.00,-2.00,+0.00
+10.00,+1.00,+0.00,-2.00,-2.00,-1.00,+3.00,+13.00,-2.00,-2.00,+1.00,+2.00,-1.00,-1.00,+0.00,-1.00
-4.00,-1.00,-1.00,+0.00,-3.00,-5.00,-8.00,-13.00,-6.00,-2.00,-2.00,+3.00,-1.00,+0.00,+2.00,+0.00
-10.00,-10.00,-8.00,+0.00,+0.00,-2.00,+0.00,-1.00,+3.00,-4.00,-6.00,-13.00,-4.00,-1.00,-3.00,+1.00
-10.00,-2.00,-1.00,+3.00,-2.00,+3.00,+2.00,-3.00,+1.00,+0.00,+0.00,+1.00,+3.00,+3.00,+2.00,-2.00
+38.00,+6.00,+3.00,-2.00,+4.00,+4.00,+10.00,+18.00,-1.00,+3.00,-1.00,-4.00,-1.00,+2.00,+3.00,+0.00
-4.00,-4.00,-5.00,-1.00,-1.00,-2.00,-2.00,-2.00,+4.00,-7.00,-5.00,-4.00,-3.00,-8.00,-3.00,+0.00
-7.00,+5.00,+3.00,-2.00,-5.00,-4.00,-8.00,-17.00,-15.00,-2.00,+1.00,+7.00,+3.00,-2.00,+1.00,-3.00
-1.00,+0.00,-1.00,-4.00,+3.00,-4.00,-3.00,+0.00,-9.00,-4.00,-4.00,-5.00,-4.00,-1.00,-1.00,-4.00
-6.00,+0.00,-1.00,+1.00,-1.00,-1.00,+0.00,-10.00,+9.00,+2.00,-1.00,+1.00,+1.00,+1.00,-1.00,+7.00
-1.00,-4.00,+0.00,+1.00,+0.00,+3.00,+1.00,-2.00,+1.00,+2.00,+3.00,+1.00,+0.00,+5.00,+2.00,+0.00
-2.00,+1.00,+1.00,+2.00,+3.00,+1.00,+1.00,+13.00,-3.00,-2.00,-2.00,-2.00,-3.00,+0.00,-1.00,+1.00
-2.00,-1.00,-2.00,-1.00,-2.00,-2.00,-3.00,-1.00,-2.00,+1.00,-2.00,+0.00,-2.00,-7.00,-4.00,-1.00
-1.00,-2.00,-1.00,-2.00,-3.00,-5.00,-5.00,+1.00,-1.00,+2.00,+0.00,-1.00,-1.00,-4.00,-4.00,+2.00
+5.00,+4.00,-1.00,-1.00,+0.00,-4.00,-8.00,-39.00,+4.00,-2.00,-4.00,-3.00,-1.00,-2.00,-1.00,+0.00
+10.00,-3.00,-3.00,-2.00,-1.00,+1.00,+11.00,+32.00,+0.00,-3.00,-2.00,-1.00,+0.00,-1.00,-1.00,+1.00
+5.00,+0.00,+0.00,+1.00,+4.00,+0.00,+4.00,+6.00,-2.00,+1.00,+3.00,-1.00,-1.00,-2.00,-7.00,-7.00
-7.00,+0.00,+0.00,-1.00,-1.00,+0.00,-1.00,+0.00,-4.00,-5.00,-4.00,+0.00,+2.00,+2.00,+6.00,+1.00
-26.00,-8.00,-2.00,-1.00,-3.00,-4.00,-6.00,-16.00,-6.00,-2.00,-3.00,-3.00,+0.00,+0.00,+5.00,+1.00
+7.00,-3.00,-2.00,+1.00,+3.00,-1.00,+1.00,-9.00,-2.00,+0.00,+0.00,-1.00,-3.00,-3.00,-1.00,-2.00
+5.00,+4.00,+1.00,+0.00,+1.00,+1.00,+0.00,+1.00,+7.00,+1.00,+0.00,-2.00,-4.00,-1.00,-2.00,+1.00
+4.00,-2.00,-4.00,-1.00,-1.00,+0.00,+1.00,+6.00,+2.00,-2.00,+4.00,+4.00,+0.00,-3.00,-5.00,-4.00
-8.00,-5.00,-2.00,-2.00,-1.00,-2.00,-2.00,+0.00,-12.00,-2.00,+1.00,-1.00,+2.00,+1.00,-1.00,-5.00
+1.00,+4.00,+5.00,+0.00,+0.00,-1.00,-7.00,-5.00,-4.00,-2.00,-4.00,-7.00,-4.00,+0.00,+3.00,+1.00
-5.00,-6.00,-3.00,-1.00,-1.00,-2.00,+2.00,-2.00,+5.00,+0.00,+2.00,+2.00,+0.00,+0.00,+1.00,-2.00
+3.00,+1.00,+0.00,+1.00,-2.00,-2.00,-1.00,+1.00,+2.00,-1.00,-4.00,-1.00,+0.00,+0.00,+1.00,+2.00
+0.00,-2.00,+0.00,-2.00,-2.00,+0.00,+1.00,+14.00,+2.00,-2.00,-3.00,-9.00,-9.00,-2.00,-3.00,-2.00
-4.00,+0.00,-1.00,-1.00,-2.00,-1.00,-2.00,-9.00,-4.00,-3.00,-1.00,-1.00,+0.00,-2.00,-1.00,-3.00
+3.00,+2.00,+0.00,-1.00,-1.00,+0.00,+2.00,-4.00,-9.00,-6.00,-1.00,-2.00,+1.00,+1.00,+0.00,-3.00
-7.00,-5.00,-1.00,-1.00,-5.00,+0.00,-1.00,+1.00,+1.00,-2.00,-2.00,-3.00,-2.00,-3.00,-5.00,-2.00
+11.00,+3.00,-3.00,-2.00,-2.00,+0.00,-3.00,+0.00,+0.00,+2.00,+2.00,+1.00,+1.00,-1.00,+0.00,-3.00
-6.00,-5.00,-3.00,-4.00,-5.00,-3.00,-7.00,-9.00,+3.00,+2.00,+2.00,+2.00,+3.00,+1.00,+0.00,+1.00
-8.00,+0.00,-1.00,+0.00,-1.00,-1.00,+2.00,+2.00,+4.00,+0.00,-2.00,-2.00,-1.00,+0.00,+0.00,+2.00
-6.00,-3.00,-3.00,-3.00,+0.00,+0.00,+0.00,+5.00,-7.00,-4.00,-2.00,-1.00,-6.00,-1.00,-3.00,-6.00
+2.00,-2.00,-2.00,+1.00,+1.00,+0.00,+3.00,-3.00,+1.00,+2.00,+0.00,-3.00,-3.00,-4.00,-6.00,+0.00
-10.00,-5.00,-2.00,-2.00,-4.00,-4.00,-6.00,-16.00,+1.00,+0.00,-1.00,+1.00,-1.00,+1.00,+1.00,+3.00
+8.00,+0.00,-1.00,-1.00,-3.00,+0.00,-3.00,+14.00,-10.00,-2.00,-1.00,+0.00,+2.00,+1.00,+2.00,-3.00
+3.00,-1.00,+2.00,+3.00,-1.00,+1.00,+4.00,+0.00,-9.00,-4.00,-3.00,-6.00,-3.00,-1.00,-4.00,-5.00
-12.00,-5.00,+0.00,-2.00,-2.00,+0.00,+2.00,+2.00,+1.00,-4.00,+0.00,+3.00,-1.00,-1.00,-3.00,-1.00
+2.00,+1.00,-4.00,-6.00,-5.00,-4.00,-1.00,+7.00,-5.00,+2.00,+0.00,+2.00,+0.00,-1.00,+1.00,-4.00
-3.00,-5.00,-2.00,+1.00,+1.00,-2.00,-7.00,-18.00,+10.00,-6.00,-5.00,-3.00,-5.00,-3.00,-3.00,+4.00
-3.00,-4.00,+2.00,+2.00,+0.00,+1.00,+5.00,+4.00,+0.00,-1.00,-3.00,-3.00,-2.00,-1.00,-2.00,-2.00
+20.00,+13.00,+3.00,+1.00,+1.00,+3.00,+7.00,+34.00,-5.00,-1.00,+1.00,+0.00,+1.00,+1.00,-3.00,-4.00
-5.00,-8.00,-3.00,+1.00,+0.00,+0.00,-2.00,-9.00,+5.00,+0.00,-2.00,-2.00,-3.00,-3.00,-3.00,-1.00
-4.00,-2.00,-1.00,+0.00,-2.00,-3.00,-5.00,-9.00,+1.00,+2.00,-2.00,-3.00,-3.00,-3.00,-1.00,+1.00
+10.00,+4.00,-1.00,-2.00,+0.00,-2.00,-3.00,-5.00,+1.00,-3.00,-1.00,-3.00,-1.00,+1.00,+3.00,+1.00
-12.00,-4.00,+0.00,-5.00,-4.00,-5.00,-3.00,-16.00,+0.00,+2.00,+0.00,+2.00,+1.00,+0.00,+0.00,-2.00
+5.00,+4.00,+0.00,+0.00,+3.00,+3.00,-1.00,+5.00,-2.00,-6.00,-2.00,-1.00,-1.00,-1.00,-3.00,-2.00
+1.00,+1.00,+1.00,+1.00,-3.00,-1.00,+3.00,+6.00,-1.00,-2.00,+0.00,-2.00,-4.00,-1.00,-3.00,-2.00
+11.00,+3.00,+3.00,+0.00,-2.00,+2.00,+0.00,+4.00,+2.00,+2.00,+3.00,+5.00,+0.00,+1.00,+0.00,+0.00
-10.00,-4.00,-4.00,-3.00,+2.00,+0.00,-5.00,-3.00,-3.00,-2.00,-5.00,-8.00,-3.00,-1.00,-3.00,-2.00
-10.00,-7.00,-1.00,-1.00,+0.00,-2.00,-10.00,-6.00,-5.00,+0.00,+2.00,+6.00,+0.00,-3.00,-1.00,-3.00
+16.00,+9.00,+2.00,+0.00,+1.00,+0.00,+13.00,+10.00,-3.00,-2.00,-4.00,-7.00,-4.00,-2.00,-2.00,-1.00
-7.00,+0.00,-2.00,+0.00,-2.00,+1.00,-2.00,+4.00,+0.00,-1.00,-2.00,-1.00,-2.00,+0.00,-1.00,-1.00
-3.00,-4.00,-1.00,+2.00,+0.00,+1.00,-3.00,-9.00,-4.00,+1.00,-1.00,-2.00,-2.00,-2.00,-3.00,-2.00
-14.00,-7.00,-6.00,-3.00,-5.00,-2.00,-1.00,-10.00,-1.00,-2.00,+0.00,-2.00,+1.00,+3.00,-1.00,+1.00
+13.00,+2.00,+3.00,-2.00,-1.00,+0.00,-3.00,+11.00,+1.00,-2.00,+1.00,+6.00,+2.00,+0.00,+1.00,+0.00
-12.00,-3.00,-5.00,-3.00,-3.00,-3.00,-2.00,-3.00,-1.00,-2.00,+0.00,-3.00,-3.00,-2.00,-3.00,-2.00
+1.00,-2.00,+0.00,-1.00,-7.00,-3.00,+5.00,-1.00,-8.00,-3.00,-4.00,-5.00,-3.00,-2.00,-1.00,-4.00
+3.00,-3.00,-3.00,+2.00,+5.00,+1.00,+0.00,+8.00,+7.00,-1.00,-1.00,+0.00,-1.00,-1.00,+0.00,+1.00
-11.00,-6.00,-3.00,-3.00,-3.00,-2.00,-4.00,-7.00,+0.00,+1.00,+2.00,+1.00,+1.00,+1.00,+0.00,+0.00
+4.00,-2.00,-3.00,-1.00,+1.00,-1.00,-2.00,-1.00,-1.00,-1.00,-3.00,-5.00,-1.00,-2.00,-5.00,-3.00
-7.00,-5.00,-2.00,-1.00,-1.00,-1.00,-6.00,-12.00,+0.00,+2.00,+0.00,-2.00,+0.00,-1.00,+2.00,+4.00
+8.00,+8.00,+5.00,+2.00,+0.00,+0.00,+7.00,+6.00,-5.00,-1.00,-1.00,-2.00,-1.00,+1.00,+0.00,-2.00
-18.00,-8.00,-4.00,-1.00,-4.00,-1.00,-7.00,-25.00,-5.00,-3.00,-1.00,+1.00,+1.00,+1.00,+0.00,-1.00
+15.00,+3.00,-3.00,-3.00,+0.00,+2.00,+9.00,+41.00,+2.00,+4.00,+2.00,+3.00,+0.00,-4.00,-3.00,-2.00
+0.00,-2.00,-1.00,-1.00,-2.00,+0.00,-4.00,-1.00,-3.00,-6.00,+0.00,-4.00,-2.00,-2.00,-1.00,-1.00
-1.00,+0.00,+1.00,+0.00,-2.00,-3.00,+3.00,-1.00,+5.00,+1.00,+0.00,-1.00,-3.00,-5.00,-3.00,-1.00
-3.00,-1.00,-1.00,+2.00,+4.00,-2.00,-6.00,-4.00,-6.00,+2.00,-2.00,-1.00,+0.00,+1.00,+3.00,-3.00
-9.00,+3.00,+4.00,+2.00,-2.00,-3.00,-4.00,-13.00,-1.00,-1.00,+2.00,+6.00,+1.00,-3.00,-4.00,-2.00
+7.00,+0.00,-5.00,-2.00,-2.00,-2.00,+6.00,-1.00,+3.00,+0.00,-3.00,-1.00,+0.00,+2.00,-1.00,-1.00
+7.00,+5.00,+2.00,+0.00,-3.00,+0.00,+0.00,+11.00,-8.00,-2.00,-3.00,-5.00,-7.00,-2.00,-1.00,-4.00
+5.00,-8.00,-3.00,-2.00,-1.00,-1.00,+3.00,+10.00,+1.00,+1.00,+1.00,-2.00,+1.00,-1.00,-2.00,-3.00
-18.00,-6.00,-2.00,-2.00,+1.00,+0.00,-8.00,-10.00,-4.00,-3.00,+0.00,-2.00,+0.00,-3.00,-2.00,-3.00
+8.00,-6.00,-1.00,-1.00,+2.00,+0.00,-1.00,-6.00,-5.00,-2.00,+2.00,+3.00,-1.00,-2.00,-1.00,-2.00
-11.00,+13.00,+4.00,-2.00,+1.00,+0.00,+0.00,-16.00,+5.00,-2.00,+0.00,+1.00,+2.00,+1.00,-1.00,+2.00
+2.00,+4.00,-2.00,-2.00,-2.00,-1.00,+4.00,+12.00,-15.00,-2.00,-1.00,-2.00,-3.00,+1.00,+2.00,-4.00
-4.00,-1.00,-2.00,+0.00,-2.00,+0.00,+0.00,-1.00,+6.00,+5.00,-2.00,-5.00,-1.00,+1.00,+1.00,+2.00
-20.00,-6.00,-1.00,-1.00,-3.00,-1.00,-3.00,-14.00,-5.00,-2.00,-1.00,+1.00,+0.00,+1.00,+1.00,+0.00
+23.00,-5.00,-6.00,-6.00,-2.00,-3.00,+2.00,+9.00,-4.00,-2.00,-3.00,-1.00,+0.00,+1.00,+2.00,+2.00
+0.00,+2.00,+3.00,+2.00,+0.00,-1.00,-1.00,-3.00,+12.00,+3.00,+8.00,+7.00,+1.00,-2.00,-2.00,+3.00
+4.00,-2.00,-1.00,+0.00,-4.00,+0.00,+0.00,+0.00,-8.00,-3.00,-10.00,-11.00,-4.00,-2.00,-1.00,-2.00
-17.00,-2.00,-5.00,-4.00,+0.00,-5.00,-9.00,-12.00,+0.00,-2.00,-3.00,+3.00,-1.00,+1.00,+2.00,+3.00
+12.00,-2.00,-1.00,+0.00,+0.00,-2.00,+5.00,+18.00,-4.00,+1.00,+1.00,+2.00,-1.00,-2.00,-5.00,-4.00
+4.00,+3.00,-2.00,-1.00,-2.00,+0.00,+4.00,+9.00,+6.00,+0.00,+1.00,+1.00,-2.00,-2.00,-5.00,+1.00
+0.00,-2.00,-2.00,-1.00,+2.00,+6.00,+0.00,-6.00,-3.00,-6.00,-2.00,-2.00,-1.00,-2.00,-3.00,-2.00
+4.00,+5.00,+1.00,+2.00,-1.00,-1.00,-1.00,-11.00,+2.00,+0.00,-1.00,-1.00,+0.00,-3.00,+1.00,+1.00
+1.00,+1.00,+2.00,+3.00,+3.00,-7.00,-5.00,+8.00,-10.00,-2.00,-2.00,+6.00,+2.00,-1.00,+1.00,-3.00
-2.00,-5.00,-6.00,-6.00,-7.00,-1.00,+1.00,-3.00,+0.00,+0.00,+1.00,-11.00,-2.00,-1.00,-1.00,-1.00
-7.00,+0.00,-1.00,+1.00,+4.00,-2.00,-3.00,-7.00,+1.00,-3.00,+1.00,+5.00,-2.00,-5.00,-7.00,-5.00
+0.00,+4.00,+2.00,+3.00,+0.00,+2.00,+2.00,+18.00,-2.00,-3.00,-1.00,-2.00,-1.00,+2.00,+2.00,-1.00
-11.00,-2.00,+2.00,-1.00,+5.00,+6.00,+2.00,+1.00,+0.00,+0.00,+1.00,-1.00,+0.00,+0.00,+0.00,-1.00
+15.00,+2.00,+3.00,+0.00,+0.00,-1.00,-3.00,-1.00,-2.00,-3.00,+0.00,+5.00,+0.00,-2.00,-2.00,-2.00
+11.00,-1.00,-2.00,-2.00,-2.00,-4.00,-7.00,-29.00,-1.00,-1.00,-4.00,-2.00,+0.00,-2.00,-1.00,+0.00
-7.00,-3.00,-1.00,-3.00,+2.00,-2.00,-2.00,+8.00,+1.00,-3.00,-1.00,-6.00,-5.00,-4.00,-4.00,-3.00
+6.00,-2.00,-4.00,+3.00,+4.00,+23.00,-7.00,-28.00,-12.00,-4.00,-2.00,+0.00,-1.00,-1.00,-3.00,-8.00
+16.00,+5.00,+1.00,+1.00,+1.00,+12.00,+1.00,+35.00,+7.00,+0.00,-5.00,-2.00,+1.00,+1.00,+2.00,+8.00
-1.00,-4.00,-1.00,-1.00,-1.00,+1.00,-1.00,-13.00,-7.00,+0.00,+1.00,-3.00,+0.00,+0.00,+0.00,-4.00
-4.00,-4.00,-2.00,+1.00,+1.00,-4.00,+0.00,-9.00,+12.00,+1.00,-2.00,+1.00,+0.00,+3.00,+1.00,+5.00
-37.00,-9.00,-5.00,-2.00,-11.00,-16.00,-11.00,-52.00,+0.00,-1.00,+0.00,-3.00,-2.00,-2.00,-1.00,+0.00
-7.00,-2.00,+0.00,+0.00,+5.00,-7.00,-2.00,+5.00,-4.00,-1.00,+1.00,+4.00,+0.00,-2.00,-3.00,-2.00
+1.00,+1.00,-2.00,-2.00,-1.00,-10.00,-6.00,+2.00,+3.00,+1.00,+1.00,+3.00,-1.00,+3.00,+6.00,+7.00
+4.00,+0.00,+0.00,-2.00,-7.00,+1.00,+12.00,+5.00,+8.00,+3.00,+1.00,-5.00,-2.00,-2.00,+2.00,+5.00
-9.00,-3.00,-1.00,-1.00,-1.00,-6.00,+2.00,+10.00,-6.00,-3.00,-3.00,-3.00,-2.00,-1.00,-3.00,-5.00
-7.00,-2.00,-1.00,+0.00,+2.00,+0.00,-1.00,-13.00,-3.00,+2.00,-1.00,+2.00,-1.00,+1.00,-3.00,-4.00
-15.00,-4.00,-3.00,-2.00,-3.00,-3.00,+4.00,+13.00,-1.00,-6.00,-1.00,+0.00,-5.00,-4.00,+0.00,+0.00
-3.00,-4.00,-4.00,-6.00,-6.00,-9.00,-8.00,-15.00,-4.00,-2.00,-1.00,+3.00,+0.00,-3.00,-6.00,-7.00
+10.00,-2.00,-3.00,-6.00,-6.00,-3.00,-6.00,-15.00,+8.00,+1.00,-1.00,-7.00,-1.00,-7.00,-2.00,+1.00
+2.00,+4.00,+2.00,+1.00,-1.00,-3.00,-2.00,-1.00,-1.00,-1.00,-1.00,+0.00,-2.00,+2.00,-4.00,-3.00
+18.00,+5.00,+1.00,+1.00,+1.00,+3.00,+2.00,+20.00,-1.00,+1.00,-3.00,-7.00,+0.00,+2.00,+3.00,+1.00
-6.00,-2.00,+0.00,+3.00,+1.00,+0.00,+0.00,+2.00,+0.00,+2.00,+1.00,-1.00,+1.00,+6.00,+15.00,+11.00
-7.00,-2.00,-2.00,-1.00,-1.00,-7.00,+2.00,-8.00,+0.00,-2.00,-1.00,+0.00,+1.00,+5.00,+1.00,-1.00
-5.00,-5.00,-3.00,-2.00,-5.00,-3.00,-2.00,+0.00,+0.00,-2.00,-4.00,-3.00,-2.00,-6.00,-2.00,-2.00
-10.00,-6.00,+0.00,+0.00,-2.00,-2.00,-4.00,-8.00,+0.00,+1.00,-1.00,-1.00,+0.00,-1.00,-1.00,+0.00
-29.00,-7.00,-3.00,+0.00,+0.00,-1.00,-15.00,-27.00,-2.00,-2.00,-1.00,+2.00,-1.00,-1.00,-1.00,-2.00
+18.00,+1.00,+1.00,+1.00,+0.00,+3.00,+13.00,+16.00,-1.00,+0.00,+0.00,-3.00,-1.00,-3.00,-2.00,+0.00
-7.00,-2.00,-2.00,-4.00,+4.00,+0.00,-6.00,-21.00,+1.00,-2.00,-1.00,-2.00,+2.00,+2.00,-4.00,-3.00
+0.00,-6.00,-2.00,-3.00,-1.00,+3.00,+1.00,+7.00,-5.00,-5.00,-1.00,-1.00,-5.00,-4.00,+3.00,+2.00
+7.00,+0.00,+0.00,+0.00,+1.00,-6.00,+0.00,+0.00,-6.00,-2.00,+1.00,-1.00,+0.00,-4.00,-7.00,-5.00
-5.00,-3.00,-2.00,-2.00,-3.00,-5.00,-9.00,+3.00,+1.00,-4.00,+2.00,+1.00,-2.00,-1.00,-2.00,-1.00
-13.00,+0.00,-2.00,-3.00,-5.00,+10.00,-4.00,-24.00,-3.00,-1.00,-2.00,-2.00,-1.00,-3.00,+2.00,+0.00
-8.00,-3.00,-2.00,+2.00,+3.00,-2.00,-3.00,-13.00,+3.00,+1.00,+2.00,+2.00,+0.00,+8.00,+0.00,+1.00
+0.00,+0.00,+0.00,-2.00,+0.00,+3.00,-3.00,-7.00,-1.00,+2.00,+3.00,+15.00,+5.00,+1.00,-4.00,-4.00
-6.00,-4.00,-3.00,+0.00,-1.00,+2.00,+1.00,+11.00,-3.00,-3.00,-3.00,-10.00,-6.00,+0.00,+2.00,+0.00
+8.00,+5.00,+1.00,-1.00,-4.00,-7.00,-4.00,+1.00,-6.00,-3.00,-5.00,-5.00,-2.00,+2.00,-2.00,-3.00
+21.00,+7.00,+2.00,-1.00,-4.00,-3.00,-2.00,+6.00,+0.00,-4.00,-3.00,-4.00,+0.00,-4.00,+0.00,+2.00
+6.00,-1.00,+0.00,-1.00,-1.00,+5.00,+9.00,+7.00,+3.00,+1.00,-2.00,-4.00,-4.00,+1.00,+8.00,+6.00
-9.00,-3.00,+1.00,-3.00,-2.00,+4.00,+2.00,+13.00,-6.00,+1.00,+2.00,+9.00,+2.00,+3.00,-10.00,-7.00
-14.00,-5.00,-5.00,-3.00,-2.00,-8.00,-12.00,-14.00,-3.00,+1.00,+3.00,+3.00,+1.00,-1.00,+10.00,+8.00
-4.00,+1.00,-1.00,+3.00,+5.00,+10.00,+12.00,+6.00,+1.00,+0.00,-1.00,+2.00,+1.00,-8.00,-9.00,-7.00
+36.00,+11.00,+4.00,+2.00,+1.00,-2.00,+10.00,+33.00,-9.00,+1.00,+1.00,+0.00,-1.00,+1.00,+4.00,+1.00
-13.00,+1.00,+1.00,-1.00,-3.00,+0.00,-5.00,-15.00,+2.00,+2.00,-5.00,+0.00,+3.00,+6.00,+0.00,-1.00
+2.00,-1.00,+3.00,+4.00,+3.00,-3.00,+6.00,+11.00,-2.00,+2.00,+0.00,-4.00,-6.00,-5.00,-4.00,-2.00
-9.00,-7.00,+2.00,-2.00,+8.00,+3.00,-3.00,+2.00,-6.00,-4.00,-3.00,-2.00,-2.00,-2.00,-6.00,-6.00
+8.00,+4.00,-3.00,-1.00,-1.00,+20.00,+1.00,+13.00,+11.00,-1.00,-3.00,-1.00,-2.00,-6.00,+1.00,+5.00
-8.00,+0.00,+0.00,+0.00,+4.00,-9.00,-11.00,-6.00,-1.00,-7.00,-8.00,-2.00,+1.00,-1.00,-10.00,-7.00
-4.00,+1.00,-4.00,-3.00,-7.00,+1.00,+2.00,-10.00,+4.00,+1.00,-8.00,-8.00,+0.00,+5.00,+2.00,+0.00
+43.00,+2.00,+6.00,+3.00,-4.00,-16.00,-3.00,-6.00,+8.00,+4.00,+3.00,+4.00,-3.00,+2.00,+7.00,+7.00
+7.00,-2.00,+1.00,-2.00,+0.00,-14.00,-2.00,+1.00,+18.00,+0.00,-3.00,-5.00,-4.00,+5.00,-8.00,+1.00
+2.00,+0.00,-2.00,+1.00,+6.00,+34.00,-7.00,-24.00,+0.00,+2.00,+0.00,+0.00,-1.00,-2.00,+3.00,-2.00
+1.00,+0.00,+0.00,+0.00,+1.00,-1.00,+14.00,+3.00,-24.00,-13.00,+0.00,+4.00,+4.00,+10.00,-9.00,-8.00
-37.00,-4.00,-5.00,-4.00,-6.00,-5.00,-2.00,-12.00,+1.00,-2.00,+1.00,+3.00,+3.00,-15.00,+13.00,+10.00
-15.00,-9.00,-7.00,-4.00,-5.00,-5.00,-2.00,-13.00,-13.00,-6.00,-3.00,-4.00,-10.00,+0.00,+6.00,-1.00
+31.00,+8.00,+4.00,+2.00,+0.00,-7.00,+0.00,+24.00,+16.00,+4.00,+1.00,+1.00,-3.00,-8.00,+4.00,+12.00
-15.00,+2.00,+2.00,+0.00,-1.00,-2.00,-5.00,-23.00,+9.00,+4.00,-3.00,-1.00,-3.00,-5.00,-5.00,-3.00
+1.00,+8.00,+3.00,-2.00,+0.00,+7.00,+7.00,+25.00,-23.00,-5.00,-4.00,-1.00,+3.00,+7.00,-7.00,-18.00
-6.00,-1.00,-1.00,-3.00,-5.00,-6.00,-8.00,-5.00,+0.00,-3.00,+0.00,+0.00,-2.00,-7.00,-12.00,-2.00
-8.00,-2.00,+0.00,-1.00,-2.00,-11.00,+5.00,+4.00,-6.00,-6.00,+0.00,-2.00,-2.00,+1.00,+2.00,+0.00
-3.00,-5.00,-2.00,-1.00,+1.00,+8.00,+0.00,+0.00,+5.00,-2.00,-3.00,-2.00,-1.00,-3.00,+3.00,+5.00
+14.00,+5.00,+2.00,+2.00,+2.00,+31.00,+1.00,+7.00,-4.00,+1.00,-2.00,-1.00,+0.00,+2.00,-8.00,-7.00
-12.00,-1.00,+5.00,+6.00,+10.00,-1.00,-7.00,+2.00,-2.00,+3.00,-2.00,+1.00,+2.00,-7.00,-3.00,-3.00
+9.00,+3.00,-1.00,-4.00,-7.00,-5.00,+21.00,+11.00,-14.00,-6.00,-6.00,-10.00,+0.00,+10.00,-4.00,-7.00
+28.00,+5.00,+5.00,+3.00,-1.00,-6.00,+6.00,+7.00,+13.00,+6.00,+5.00,-1.00,-11.00,-11.00,+2.00,+2.00
-22.00,-9.00,-7.00,-5.00,-3.00,-10.00,-7.00,-17.00,-2.00,-7.00,-7.00,-10.00,-2.00,+20.00,-3.00,-1.00
+5.00,-2.00,-4.00,+3.00,-2.00,+5.00,-3.00,-34.00,-15.00,-3.00,+0.00,-1.00,+4.00,-13.00,+12.00,+3.00
+1.00,-5.00,-3.00,+0.00,+3.00,-3.00,+2.00,+26.00,-5.00,-2.00,-2.00,-1.00,-1.00,-10.00,-8.00,-6.00
-12.00,-8.00,-4.00,-1.00,-5.00,-25.00,-12.00,-5.00,-9.00,-2.00,-1.00,-1.00,+0.00,-5.00,-9.00,-3.00
-18.00,-3.00,-6.00,-3.00,-1.00,+32.00,-8.00,-21.00,-5.00,+1.00,+1.00,+1.00,+1.00,-3.00,+2.00,-3.00
+25.00,+16.00,+3.00,-2.00,+1.00,+8.00,+20.00,+38.00,-14.00,-8.00,-3.00,-4.00,-1.00,+5.00,-7.00,-7.00
+7.00,-9.00,+2.00,-1.00,-3.00,-10.00,-9.00,+15.00,+14.00,+9.00,+5.00,+1.00,+2.00,+1.00,+7.00,+8.00
+33.00,+6.00,-1.00,-1.00,-2.00,+2.00,+5.00,+13.00,+16.00,+2.00,-4.00,-5.00,-8.00,-10.00,-20.00,-12.00
-11.00,-9.00,-2.00,+0.00,-2.00,-18.00,-4.00,+10.00,-11.00,-4.00,+1.00,+3.00,+5.00,+9.00,+15.00,+4.00
+17.00,+3.00,+1.00,-1.00,+0.00,-8.00,-3.00,+19.00,-6.00,+2.00,-2.00,-4.00,-2.00,+2.00,-19.00,-18.00
-6.00,+2.00,+0.00,+2.00,-1.00,-12.00,-3.00,-1.00,-5.00,-6.00,-3.00,+0.00,+1.00,-12.00,+9.00,+10.00
-8.00,+0.00,+0.00,-1.00,+1.00,+6.00,-8.00,-3.00,-7.00,-2.00,-2.00,+0.00,+3.00,-1.00,-10.00,-9.00
+12.00,-2.00,-2.00,-3.00,-4.00,-12.00,+1.00,+0.00,-6.00,+2.00,-4.00,-5.00,-5.00,+0.00,-7.00,-7.00
+5.00,-6.00,-4.00,-2.00,-2.00,+3.00,-1.00,+11.00,+5.00,+6.00,+2.00,+1.00,-4.00,-9.00,+10.00,+9.00
-10.00,-1.00,+1.00,-2.00,-3.00,-4.00,-1.00,-4.00,-3.00,+4.00,+3.00,-1.00,-4.00,+7.00,-6.00,-4.00
-18.00,-5.00,-6.00,-3.00,-2.00,+0.00,-8.00,-30.00,+13.00,+7.00,+1.00,+0.00,-2.00,-9.00,-4.00,-2.00
-39.00,-16.00,-6.00,+0.00,-1.00,-13.00,-22.00,-36.00,+7.00,+1.00,-1.00,+2.00,+1.00,+3.00,+14.00,+11.00
-8.00,-3.00,-1.00,-5.00,-4.00,-4.00,+16.00,+4.00,-15.00,-6.00,-2.00,-1.00,+0.00,-6.00,-8.00,-11.00
-27.00,-17.00,-9.00,-3.00,+3.00,-8.00,-13.00,-53.00,+5.00,+3.00,+2.00,+2.00,-2.00,+10.00,+19.00,+16.00
+24.00,-1.00,-2.00,-2.00,-1.00,+8.00,+6.00,+2.00,-5.00,-4.00,-2.00,-2.00,+1.00,+6.00,+19.00,+17.00
+10.00,+2.00,-1.00,-1.00,+0.00,+2.00,-5.00,+4.00,+1.00,-1.00,-3.00,-1.00,-1.00,-7.00,-11.00,-12.00
+30.00,+13.00,+5.00,+2.00,+3.00,+3.00,+4.00,+36.00,-2.00,-1.00,+2.00,+0.00,+6.00,-2.00,-10.00,-5.00
-1.00,+2.00,+1.00,+0.00,-2.00,+17.00,+4.00,+6.00,+3.00,-3.00,-5.00,-6.00,-8.00,-3.00,+10.00,+8.00
-40.00,-6.00,-4.00,+0.00,+0.00,-12.00,-3.00,+0.00,-7.00,-8.00,-3.00,-4.00,+1.00,-6.00,-5.00,-3.00
-34.00,-19.00,-5.00,-3.00,-3.00,-23.00,-4.00,-11.00,+8.00,+2.00,+0.00,-5.00,-6.00,-10.00,-16.00,-5.00
+34.00,+1.00,+2.00,+1.00,+0.00,+4.00,+2.00,+10.00,+11.00,+0.00,-2.00,-3.00,-3.00,+4.00,-5.00,+2.00
-1.00,+11.00,+5.00,-2.00,-2.00,-1.00,+9.00,+34.00,+2.00,-5.00,-5.00,-2.00,+0.00,+2.00,+15.00,+8.00
-15.00,-5.00,+0.00,+4.00,+2.00,-3.00,-3.00,-8.00,-9.00,-8.00,-1.00,-3.00,+2.00,+22.00,+7.00,-1.00
+34.00,+16.00,+1.00,+0.00,+0.00,-2.00,+19.00,+18.00,+5.00,-5.00,-2.00,-3.00,-2.00,-14.00,-6.00,-2.00
-30.00,-9.00,-5.00,-2.00,-4.00,+4.00,-29.00,-34.00,+4.00,+3.00,-2.00,-2.00,-1.00,-4.00,-14.00,-9.00
+14.00,+8.00,+7.00,+5.00,+5.00,+2.00,+17.00,+21.00,-10.00,+1.00,+3.00,+0.00,+7.00,-3.00,-12.00,-15.00
+30.00,+11.00,-1.00,-12.00,-5.00,+9.00,+7.00,+75.00,+11.00,+2.00,-1.00,+1.00,-7.00,+0.00,+20.00,+18.00
+35.00,+13.00,+6.00,+2.00,+8.00,+24.00,+8.00,+23.00,+20.00,+11.00,+7.00,+0.00,-9.00,-8.00,-18.00,-3.00
-29.00,-10.00,-9.00,-5.00,+0.00,+0.00,+17.00,-26.00,-14.00,-15.00,-7.00,-2.00,-6.00,+0.00,-27.00,-27.00
+66.00,+18.00,+6.00,+4.00,-1.00,+2.00,-1.00,+19.00,+7.00,+1.00,-4.00,-1.00,+4.00,+5.00,+19.00,+9.00
-7.00,-6.00,+6.00,+5.00,+6.00,+4.00,-2.00,+4.00,-18.00,-4.00,+0.00,+0.00,-1.00,+1.00,+4.00,+5.00
-48.00,-13.00,-5.00,-2.00,-4.00,-12.00,+0.00,-22.00,-15.00,-1.00,-2.00,+0.00,+9.00,-3.00,-51.00,-43.00
-16.00,-13.00,-5.00,+0.00,+1.00,-1.00,-8.00,+26.00,+20.00,+7.00,+1.00,-1.00,-9.00,+18.00,+55.00,+53.00
-4.00,-7.00,-9.00,-8.00,-5.00,-3.00,-4.00,-16.00,+5.00,+1.00,+3.00,-2.00,-6.00,-23.00,-10.00,-3.00
+1.00,-1.00,-3.00,-4.00,-3.00,-4.00,+4.00,+11.00,-6.00,-8.00,-5.00,-3.00,-3.00,-19.00,-45.00,-27.00
+41.00,+9.00,+4.00,+3.00,+0.00,+3.00,+4.00,+38.00,-9.00,+3.00,+5.00,+2.00,-3.00,-4.00,+23.00,+11.00
-79.00,-38.00,-19.00,-6.00,-12.00,-13.00,-26.00,-97.00,-9.00,-4.00,-3.00,-2.00,+7.00,+12.00,+8.00,+3.00
-65.00,-15.00,-10.00,-8.00,-2.00,-15.00,-15.00,-21.00,-24.00,-10.00,-5.00,-1.00,+0.00,+6.00,-14.00,-14.00
+52.00,+10.00,+3.00,+5.00,+3.00,+3.00,+8.00,-5.00,+1.00,-5.00,-3.00,-2.00,+7.00,+0.00,+10.00,+4.00
-3.00,-6.00,-2.00,-3.00,-3.00,-7.00,-4.00,-53.00,+9.00,+0.00,-1.00,+0.00,-8.00,+18.00,+32.00,+24.00
+11.00,+10.00,-3.00,-7.00,-7.00,-1.00,+4.00,+17.00,-4.00,-7.00,-6.00,-4.00,+6.00,-7.00,-21.00,-14.00
+8.00,+7.00,-2.00,-4.00,-7.00,-1.00,+2.00,+13.00,-36.00,+5.00,+13.00,+5.00,-2.00,-5.00,-1.00,-11.00
-46.00,-13.00,-7.00,-2.00,-4.00,-33.00,+1.00,-36.00,-27.00,-4.00,+13.00,+2.00,+1.00,-5.00,-11.00,-20.00
-26.00,-4.00,+1.00,+4.00,+2.00,-4.00,-21.00,-50.00,+7.00,+1.00,-2.00,+0.00,+6.00,+15.00,+30.00,+27.00
-1.00,-14.00,-8.00,-7.00,-4.00,-13.00,-2.00,-23.00,+12.00,+1.00,-5.00,-2.00,-3.00,-13.00,-14.00,-4.00
+8.00,+8.00,+8.00,+6.00,+7.00,+14.00,-2.00,-4.00,-4.00,-2.00,-9.00,-1.00,-9.00,+2.00,-14.00,-11.00
-55.00,-29.00,-14.00,+3.00,+1.00,-12.00,-24.00,-96.00,-6.00,-6.00,-9.00,-2.00,+10.00,+5.00,+24.00,+13.00
+3.00,+0.00,-6.00,-13.00,-13.00,-9.00,+1.00,+66.00,-10.00,-11.00,-9.00,-5.00,-2.00,-6.00,-3.00,-1.00
+54.00,+13.00,+9.00,+4.00,+1.00,+10.00,+10.00,+31.00,-3.00,+13.00,+5.00,+2.00,-8.00,-12.00,-9.00,-22.00
-18.00,-13.00,-14.00,-10.00,-9.00,-7.00,-19.00,-25.00,+43.00,+14.00,+2.00,+0.00,+14.00,+11.00,+2.00,+20.00
+1.00,+4.00,+6.00,+3.00,+3.00,-6.00,-8.00,+32.00,+8.00,+3.00,-2.00,+2.00,-6.00,+12.00,+46.00,+23.00
-20.00,+1.00,-1.00,-3.00,-4.00,-28.00,+1.00,+8.00,+1.00,-8.00,-2.00,-3.00,-2.00,+1.00,-6.00,+0.00
+40.00,+13.00,+5.00,+2.00,+1.00,+32.00,-20.00,+22.00,+15.00,-2.00,+0.00,+0.00,-14.00,-20.00,-26.00,-10.00
-6.00,-20.00,-2.00,+6.00,+13.00,+36.00,+32.00,-11.00,-15.00,-8.00,-3.00,-4.00,-5.00,-16.00,-54.00,-47.00
-30.00,+4.00,-6.00,-16.00,-8.00,+6.00,+1.00,+38.00,+10.00,+2.00,-4.00,+3.00,+36.00,+27.00,-7.00,-11.00
+26.00,+10.00,+1.00,-3.00,+1.00,+7.00,+12.00,+7.00,+20.00,+13.00,+5.00,-2.00,-51.00,-18.00,+29.00,+10.00
-22.00,-7.00,+7.00,+2.00,+1.00,-16.00,+2.00,+30.00,+14.00,+2.00,+8.00,+4.00,+2.00,-29.00,-52.00,-23.00
+33.00,-2.00,-1.00,+3.00,-4.00,-7.00,-18.00,-32.00,-5.00,-7.00,-4.00,-2.00,+0.00,+11.00,+42.00,+21.00
+36.00,-1.00,-1.00,+6.00,+2.00,+14.00,-4.00,+0.00,+13.00,-1.00,-4.00,-2.00,-10.00,-8.00,+12.00,+7.00
-29.00,-8.00,-9.00,-4.00,+2.00,-7.00,+0.00,+8.00,+7.00,+6.00,-2.00,+0.00,+17.00,+6.00,-14.00,-2.00
-25.00,+11.00,+3.00,+3.00,+0.00,-3.00,+2.00,-19.00,-17.00,+2.00,+3.00,+0.00,-2.00,+5.00,+0.00,+0.00
-16.00,-2.00,+0.00,+4.00,+2.00,-10.00,-18.00,-16.00,-22.00,-10.00,-10.00,-4.00,+4.00,+19.00,-16.00,-25.00
+50.00,+10.00,+17.00,+15.00,+15.00,+51.00,+12.00,+51.00,-9.00,-4.00,+1.00,+3.00,+1.00,-6.00,+23.00,+13.00
-19.00,-4.00,-4.00,-8.00,-9.00,-1.00,-4.00,-7.00,-1.00,+10.00,-2.00,-1.00,+3.00,-10.00,-27.00,-21.00
-8.00,-3.00,+5.00,+8.00,+6.00,-14.00,+3.00,-16.00,-41.00,-19.00,-9.00,-7.00,+11.00,+16.00,+12.00,-14.00
-30.00,-7.00,-3.00,+0.00,+4.00,+5.00,-8.00,-22.00,+32.00,+6.00,+4.00,-2.00,-18.00,-10.00,+22.00,+32.00
+25.00,+16.00,-2.00,-5.00,-7.00,+2.00,+6.00,+59.00,-23.00,-11.00,-1.00,-1.00,-7.00,-5.00,-26.00,-24.00
+15.00,-1.00,+6.00,+6.00,+1.00,-5.00,+7.00,+21.00,+39.00,+5.00,-1.00,-3.00,+1.00,-1.00,+4.00,+13.00
-18.00,-8.00,-7.00,-4.00,+0.00,+4.00,-5.00,-21.00,+24.00,+4.00,-3.00,-4.00,-5.00,-16.00,-20.00,-9.00
-12.00,+11.00,+0.00,-10.00,-11.00,-8.00,+5.00,-1.00,+0.00,+2.00,-2.00,-1.00,+6.00,+18.00,+31.00,+16.00
+0.00,+2.00,-1.00,-7.00,-8.00,-20.00,-2.00,-19.00,+17.00,+7.00,+1.00,-1.00,-13.00,-2.00,-4.00,+1.00
+0.00,-3.00,+6.00,+10.00,+11.00,+29.00,-10.00,-6.00,-4.00,-8.00,+0.00,+1.00,-3.00,-20.00,-21.00,-17.00
-5.00,+2.00,-5.00,+0.00,+2.00,+7.00,-5.00,-46.00,-8.00,-7.00,-11.00,-1.00,+4.00,+12.00,+6.00,-3.00
+37.00,+17.00,+10.00,-2.00,-4.00,-7.00,+8.00,+49.00,+24.00,+11.00,-1.00,+1.00,+0.00,+3.00,+14.00,+15.00
-35.00,-19.00,-8.00,-2.00,-3.00,-12.00,+4.00,-49.00,+2.00,+4.00,+13.00,+0.00,-10.00,-8.00,+6.00,+7.00
+65.00,+21.00,+8.00,-1.00,-3.00,+3.00,+7.00,+46.00,-31.00,-11.00,+2.00,-2.00,+13.00,+17.00,+13.00,+6.00
-23.00,-4.00,+0.00,-1.00,-3.00,-22.00,-15.00,-21.00,+2.00,-3.00,-6.00,-4.00,-6.00,-9.00,-2.00,-1.00
-19.00,-5.00,-6.00,+4.00,+12.00,+2.00,+7.00,-25.00,+6.00,+2.00,+2.00,+1.00,-4.00,-16.00,-15.00,-15.00
-6.00,+0.00,+3.00,-5.00,-5.00,+2.00,-7.00,+11.00,-21.00,-7.00,-12.00,-4.00,-3.00,+4.00,+5.00,-2.00
-3.00,+5.00,+3.00,+4.00,+0.00,-4.00,+8.00,+3.00,+12.00,+5.00,-2.00,+4.00,+6.00,-21.00,-59.00,-36.00
+52.00,+8.00,+1.00,+1.00,+2.00,+2.00,+4.00,+6.00,-14.00,-11.00,+0.00,+0.00,+6.00,+33.00,+72.00,+50.00
-16.00,-18.00,-10.00,-9.00,-10.00,-3.00,+1.00,-28.00,+16.00,-2.00,-8.00,-3.00,-8.00,-16.00,-5.00,+4.00
+1.00,-7.00,-7.00,-1.00,-2.00,-28.00,-1.00,-21.00,-8.00,-4.00,-7.00,-3.00,+2.00,+0.00,-21.00,-17.00
+1.00,-2.00,+0.00,+2.00,+5.00,+34.00,-6.00,-19.00,-6.00,+6.00,+3.00,+3.00,+1.00,-10.00,-25.00,-16.00
-26.00,-8.00,-5.00,-6.00,-9.00,+0.00,+4.00,-16.00,+18.00,+7.00,-4.00,-2.00,-4.00,+7.00,+19.00,+16.00
-25.00,-21.00,-10.00,-2.00,-2.00,-7.00,-2.00,-64.00,-10.00,+2.00,+8.00,+2.00,+13.00,+11.00,+28.00,+20.00
+44.00,+9.00,+0.00,-2.00,-5.00,+4.00,-8.00,-23.00,+16.00,+9.00,+6.00,-1.00,-6.00,+6.00,+8.00,+9.00
-4.00,-3.00,-1.00,-1.00,-4.00,-11.00,-12.00,-18.00,-20.00,-10.00,-3.00,-5.00,-6.00,-7.00,-14.00,-4.00
-39.00,-7.00,-4.00,-3.00,-2.00,-6.00,-5.00,-6.00,-19.00,-2.00,+1.00,-1.00,+4.00,+7.00,+18.00,+8.00
+18.00,+3.00,+5.00,+8.00,-1.00,+2.00,-10.00,-9.00,+3.00,+1.00,-1.00,+2.00,-1.00,+16.00,+29.00,+15.00
-10.00,+1.00,+5.00,+0.00,+2.00,-3.00,+4.00,-12.00,+5.00,+1.00,-6.00,-6.00,-6.00,-13.00,-33.00,-14.00
-3.00,-2.00,-4.00,-4.00,-1.00,-11.00,+6.00,+28.00,-22.00,-9.00,-3.00,+1.00,+2.00,+5.00,+19.00,-8.00
+25.00,+5.00,+1.00,-3.00,-6.00,-3.00,+4.00,+9.00,+19.00,+3.00,-1.00,+1.00,-4.00,+2.00,-5.00,+11.00
-15.00,-8.00,-4.00,+1.00,+2.00,-23.00,-25.00,+3.00,-8.00,-11.00,-8.00,-6.00,-1.00,-11.00,-15.00,-6.00
+4.00,+2.00,-8.00,-1.00,+3.00,-4.00,-1.00,-7.00,-8.00,+0.00,+3.00,-1.00,+0.00,+2.00,-9.00,-4.00
+16.00,-8.00,+6.00,+6.00,+15.00,+32.00,+15.00,+20.00,+5.00,-6.00,+22.00,-3.00,+5.00,+0.00,-5.00,+6.00
+6.00,+0.00,+1.00,-3.00,-17.00,-20.00,+5.00,+22.00,-8.00,+2.00,+33.00,-1.00,-3.00,-18.00,-24.00,-23.00
+11.00,+4.00,+0.00,-3.00,-3.00,+7.00,+2.00,+25.00,-10.00,+2.00,+29.00,+4.00,+14.00,+11.00,+1.00,-5.00
-59.00,-31.00,-14.00,+2.00,-3.00,-27.00,-31.00,-65.00,+27.00,-3.00,+0.00,-9.00,-25.00,-17.00,+3.00,+5.00
+29.00,+9.00,-3.00,-6.00,-7.00,+4.00,+24.00,+27.00,-8.00,-6.00,-17.00,-3.00,+0.00,+6.00,+8.00,+9.00
+10.00,+8.00,+3.00,+0.00,+8.00,+16.00,+4.00,+25.00,+13.00,+1.00,-7.00,-2.00,-4.00,+8.00,-2.00,+3.00
-11.00,-5.00,-4.00,-4.00,-6.00,+6.00,-3.00,-14.00,-11.00,-7.00,+4.00,-7.00,-6.00,-22.00,-36.00,-12.00
-19.00,-7.00,-2.00,-1.00,-2.00,+5.00,-4.00,-1.00,+16.00,+22.00,+5.00,+7.00,+15.00,+17.00,+52.00,+45.00
-19.00,-4.00,-5.00,-2.00,-6.00,-16.00,+17.00,+5.00,+6.00,+2.00,-16.00,+1.00,-7.00,+6.00,+18.00,+9.00
-13.00,-4.00,+0.00,+2.00,+5.00,+1.00,-4.00,-13.00,-7.00,-2.00,-28.00,+2.00,+1.00,+11.00,+2.00,+1.00
+12.00,+2.00,-1.00,-2.00,-3.00,-1.00,+0.00,-16.00,-9.00,-4.00,-27.00,+0.00,-4.00,-16.00,-19.00,-14.00
+11.00,+14.00,+6.00,-1.00,+3.00,+11.00,+13.00,+63.00,-5.00,-2.00,+19.00,+1.00,+6.00,-9.00,-27.00,-10.00
+11.00,-5.00,+3.00,+3.00,-5.00,-10.00,-10.00,-17.00,-9.00,-8.00,+28.00,-2.00,-1.00,+9.00,+21.00,+11.00
-14.00,-5.00,-9.00,-5.00,-4.00,+2.00,-6.00,-22.00,-1.00,-3.00,-6.00,-6.00,-3.00,-4.00,+6.00,+8.00
+11.00,+3.00,-1.00,-3.00,-1.00,-21.00,+5.00,-4.00,+3.00,+2.00,+27.00,+5.00,+5.00,+20.00,+45.00,+33.00
-68.00,-10.00,+1.00,+0.00,+3.00,+14.00,-2.00,-9.00,+5.00,-1.00,-9.00,-1.00,-4.00,-8.00,-21.00,-13.00
+83.00,+15.00,+6.00,-2.00,-4.00,-13.00,-9.00,+12.00,-28.00,-8.00,-23.00,+1.00,+1.00,-8.00,-7.00,-20.00
-30.00,-14.00,-9.00,+2.00,+2.00,-4.00,-14.00,-36.00,+49.00,+15.00,-6.00,+4.00,+8.00,-8.00,+18.00,+35.00
-14.00,+8.00,-1.00,-7.00,-5.00,-3.00,+4.00,+20.00,-25.00,-2.00,-29.00,+1.00,+2.00,+16.00,+6.00,-23.00
+27.00,+17.00,+3.00,-1.00,-3.00,+2.00,-9.00,+13.00,-34.00,-13.00,-30.00,-4.00,-7.00,-13.00,-7.00,-13.00
-52.00,-13.00,-8.00,-2.00,-5.00,-7.00,+8.00,-36.00,+19.00,+8.00,-5.00,+0.00,-5.00,-10.00,-18.00,-2.00
+2.00,-10.00,-3.00,-1.00,+7.00,-4.00,+12.00,+4.00,-36.00,-11.00,+22.00,+2.00,+10.00,+25.00,+55.00,+10.00
+17.00,-6.00,-2.00,+0.00,+0.00,+5.00,-8.00,+2.00,+35.00,+7.00,+61.00,-2.00,+5.00,-1.00,-8.00,+6.00
+26.00,+5.00,+2.00,-3.00,-2.00,+9.00,+12.00,+35.00,-7.00,+6.00,+85.00,+0.00,-22.00,-4.00,+10.00,-2.00
-32.00,-3.00,-2.00,-6.00,-6.00,-3.00,-12.00,-9.00,-8.00,-3.00,+64.00,+0.00,+4.00,-1.00,-16.00,-2.00
+39.00,+18.00,+6.00,-3.00,+4.00,-2.00,-1.00,+75.00,-24.00,-8.00,+43.00,-5.00,-6.00,-22.00,-49.00,-39.00
-11.00,-4.00,-4.00,+0.00,-1.00,+3.00,+7.00,+11.00,+7.00,+2.00,+28.00,+2.00,-6.00,+7.00,+23.00,+16.00
+6.00,+5.00,+4.00,-2.00,-6.00,-9.00,+1.00,+9.00,+5.00,-3.00,+12.00,+3.00,+7.00,+6.00,-7.00,-2.00
+17.00,-11.00,-1.00,+3.00,+1.00,+1.00,-7.00,-26.00,-2.00,-8.00,-9.00,-5.00,-4.00,-3.00,+9.00,+3.00
+19.00,+7.00,+2.00,-1.00,+0.00,+0.00,+1.00,-1.00,+19.00,+9.00,+0.00,+4.00,-4.00,-9.00,-11.00,-2.00
+11.00,+0.00,+2.00,+0.00,+2.00,+19.00,+5.00,+53.00,-36.00,-15.00,-27.00,-5.00,-4.00,+1.00,-46.00,-44.00
+18.00,+7.00,+4.00,+0.00,+2.00,+3.00,+5.00,+1.00,+23.00,-2.00,-24.00,-1.00,-3.00,-7.00,-9.00,+15.00
-54.00,-20.00,-15.00,-5.00,-4.00,-15.00,-25.00,-69.00,+28.00,+9.00,-22.00,+0.00,+2.00,+8.00,+49.00,+32.00
+26.00,+15.00,+5.00,-2.00,+0.00,+4.00,-7.00,+36.00,-19.00,-9.00,-20.00,-1.00,-4.00,-17.00,-37.00,-32.00
+11.00,+10.00,+12.00,+7.00,+2.00,+0.00,+7.00,+29.00,+6.00,-2.00,-28.00,+1.00,-4.00,-9.00,-1.00,+4.00
+25.00,-1.00,+0.00,+2.00,+1.00,+8.00,+0.00,-15.00,+8.00,+5.00,-27.00,+0.00,+5.00,+1.00,-22.00,-10.00
-19.00,-10.00,-6.00,+0.00,+5.00,+4.00,-8.00,-33.00,-12.00,-6.00,-32.00,-4.00,-3.00,-7.00,-10.00,-14.00
-35.00,-13.00,-8.00,-8.00,-13.00,-9.00,-4.00,-30.00,-7.00,+0.00,-38.00,+0.00,+3.00,+2.00,+10.00,+5.00
-18.00,-3.00,-3.00,-1.00,+4.00,+4.00,-4.00,+18.00,-15.00,-7.00,-61.00,-3.00,-14.00,-20.00,-26.00,-13.00
+7.00,+3.00,-1.00,-3.00,-5.00,+2.00,-17.00,+1.00,-5.00,+2.00,-67.00,+0.00,+2.00,-5.00,-10.00,-3.00
+5.00,+7.00,+2.00,-3.00,-10.00,-6.00,-9.00,+15.00,+4.00,-4.00,-67.00,-4.00,+5.00,+15.00,+33.00,+23.00
-30.00,-15.00,-7.00,+2.00,+11.00,+11.00,+39.00,-32.00,-10.00,+8.00,-47.00,+6.00,+7.00,+20.00,+26.00,-4.00
-4.00,-2.00,-4.00,-5.00,-10.00,-11.00,+2.00,+1.00,+26.00,+2.00,-46.00,-3.00,+8.00,-4.00,+3.00,+12.00
+4.00,+2.00,+5.00,+4.00,+3.00,+3.00,+1.00,-3.00,+3.00,+2.00,-26.00,-2.00,-15.00,+23.00,+8.00,-4.00
+13.00,+7.00,-2.00,+0.00,+2.00,+4.00,+3.00,-5.00,-51.00,-11.00,-15.00,+0.00,+0.00,-28.00,-38.00,-38.00
-15.00,-4.00,+2.00,+2.00,-3.00,-2.00,-7.00,+2.00,+4.00,-12.00,-12.00,-2.00,-2.00,+1.00,+4.00,+5.00
-30.00,-11.00,-3.00,+0.00,+2.00,+1.00,-4.00,-15.00,+16.00,+6.00,+3.00,+0.00,-3.00,-3.00,+4.00,+5.00
+8.00,+6.00,+3.00,+0.00,+0.00,+2.00,+13.00,+30.00,-7.00,-4.00,+3.00,-4.00,+5.00,-1.00,-1.00,-6.00
-3.00,+5.00,+3.00,+2.00,+2.00,+1.00,-4.00,+8.00,+19.00,+6.00,+12.00,-1.00,-2.00,+5.00,-19.00,-3.00
+15.00,+6.00,+4.00,+3.00,-2.00,-7.00,+3.00,+14.00,-12.00,-10.00,+9.00,-1.00,-4.00,+2.00,+7.00,+10.00
-20.00,-7.00,-1.00,+0.00,+2.00,+16.00,-9.00,-27.00,-11.00,+2.00,+14.00,+0.00,-4.00,-17.00,-19.00,-13.00
-42.00,-29.00,-12.00,-4.00,+2.00,-1.00,-5.00,-31.00,-8.00,-9.00,+8.00,-2.00,+4.00,-4.00,+7.00,+0.00
+23.00,+15.00,+4.00,+0.00,+0.00,-8.00,+12.00,+47.00,+2.00,+5.00,+21.00,+1.00,-3.00,+5.00,+1.00,-2.00
+15.00,+5.00,+4.00,+0.00,-1.00,+0.00,-7.00,+9.00,+15.00,+5.00,+25.00,-1.00,-1.00,-18.00,-23.00,-2.00
+18.00,-4.00,-5.00,-1.00,-5.00,-25.00,-11.00,-32.00,-18.00,-4.00,+48.00,+2.00,+0.00,+18.00,+26.00,+7.00
+11.00,+4.00,-2.00,-3.00,-1.00,+14.00,+1.00,+11.00,+23.00,+3.00,+24.00,-2.00,+3.00,+7.00,+29.00,+26.00
-46.00,-6.00,-1.00,-1.00,-4.00,-20.00,-11.00,-8.00,-6.00,-6.00,+36.00,-5.00,-4.00,-4.00,+9.00,+8.00
+15.00,+5.00,+4.00,+4.00,+10.00,+0.00,-9.00,-23.00,+1.00,-5.00,+30.00,-5.00,-2.00,+6.00,-23.00,-10.00
+25.00,+7.00,+5.00,+3.00,-7.00,-4.00,+5.00,-6.00,+2.00,+3.00,+33.00,+0.00,-7.00,-13.00,-34.00,-24.00
-26.00,-11.00,-3.00,+1.00,+2.00,-7.00,-2.00,-23.00,-20.00,-2.00,+55.00,+2.00,+7.00,-10.00,-11.00,-31.00
-16.00,-5.00,-2.00,-1.00,+4.00,-2.00,+1.00,+7.00,-9.00,-13.00,+36.00,-9.00,-4.00,+1.00,+17.00,+4.00
+3.00,+1.00,+0.00,+0.00,-5.00,+5.00,-10.00,+8.00,+2.00,+2.00,+43.00,-1.00,-4.00,-10.00,-11.00,+4.00
-9.00,-2.00,-1.00,-2.00,+6.00,-4.00,+8.00,+1.00,-1.00,-4.00,+24.00,-5.00,-4.00,-5.00,-9.00,-1.00
+17.00,+3.00,+0.00,-1.00,-3.00,-1.00,+2.00,-2.00,-8.00,-7.00,+13.00,+2.00,+7.00,+7.00,+4.00,-5.00
-5.00,-7.00,-3.00,-2.00,+1.00,+8.00,+3.00,-16.00,+32.00,+16.00,+9.00,+7.00,+2.00,+10.00,+28.00,+27.00
-21.00,-10.00,-5.00,-4.00,-5.00,-5.00,-1.00,-14.00,-17.00,-3.00,-39.00,-2.00,-1.00,-4.00,-9.00,-21.00
+4.00,-3.00,+0.00,+1.00,+2.00,+10.00,-5.00,+4.00,-1.00,-6.00,-76.00,-1.00,+0.00,-7.00,-4.00,-2.00
+45.00,+12.00,+3.00,+1.00,+1.00,+0.00,+19.00,+49.00,-4.00,-4.00,-85.00,-2.00,+1.00,+6.00,-3.00,+5.00
-18.00,-3.00,-1.00,-1.00,-5.00,-2.00,-4.00,-3.00,-4.00,+4.00,-68.00,-1.00,-1.00,-4.00,-26.00,-18.00
-5.00,-3.00,+0.00,+0.00,-3.00,-7.00,+3.00,+7.00,+9.00,+1.00,-46.00,+1.00,+2.00,+15.00,+19.00,+19.00
+22.00,+12.00,+4.00,-2.00,+0.00,+6.00,+2.00,+35.00,+4.00,+3.00,-34.00,-3.00,-7.00,-6.00,+12.00,+13.00
-20.00,-7.00,-4.00,-1.00,-2.00,-3.00,-3.00,-19.00,-4.00,-5.00,-29.00,-4.00,-1.00,-6.00,-13.00,-5.00
+10.00,+3.00,+0.00,+0.00,+1.00,-22.00,-19.00,-9.00,-14.00,-4.00,-12.00,+1.00,-4.00,+10.00,-12.00,-13.00
-2.00,+2.00,+0.00,+3.00,+7.00,+34.00,+6.00,+0.00,+10.00,+0.00,-8.00,-2.00,-2.00,+0.00,+13.00,+12.00
-1.00,-3.00,+1.00,+0.00,+5.00,+4.00,+5.00,+27.00,-6.00,-4.00,-3.00,-3.00,+1.00,+2.00,-8.00,-9.00
-20.00,+0.00,-3.00,-2.00,-11.00,-10.00,-3.00,-8.00,+1.00,-5.00,+8.00,-3.00,+2.00,-13.00,-9.00,+0.00
+29.00,+8.00,+1.00,+0.00,+3.00,+18.00,+5.00,+21.00,+8.00,-1.00,+5.00,-3.00,-4.00,-7.00,-16.00,-4.00
+0.00,+3.00,-2.00,-4.00,-4.00,-1.00,+0.00,+35.00,-13.00,+0.00,+9.00,+1.00,-2.00,-9.00,-24.00,-23.00
+55.00,+19.00,+7.00,+2.00,+2.00,+0.00,+2.00,+17.00,+9.00,+3.00,+12.00,+1.00,+2.00,+7.00,+21.00,+19.00
+3.00,+0.00,+2.00,+3.00,+5.00,+3.00,-6.00,+1.00,+16.00,+0.00,+10.00,-9.00,-9.00,-4.00,-8.00,+1.00
-1.00,-10.00,-4.00,+0.00,+0.00,-3.00,-8.00,-26.00,+5.00,-4.00,+6.00,+2.00,+2.00,-1.00,-9.00,-10.00
+6.00,+1.00,+2.00,-3.00,-7.00,-9.00,+27.00,+21.00,-18.00,-10.00,+7.00,-3.00,-7.00,-4.00,-4.00,-11.00
-25.00,-7.00,-2.00,+1.00,+0.00,+11.00,+2.00,-13.00,+7.00,-5.00,+7.00,-1.00,+0.00,+1.00,-3.00,-9.00
-5.00,-1.00,-5.00,-5.00,-6.00,-10.00,-2.00,-6.00,+16.00,+6.00,+12.00,+1.00,-3.00,-10.00,-5.00,-9.00
-11.00,-2.00,-1.00,+1.00,+1.00,+7.00,-2.00,+2.00,-13.00,-4.00,+3.00,-4.00,-4.00,-7.00,+3.00,+7.00
+5.00,+3.00,-3.00,+0.00,+1.00,-6.00,-3.00,-6.00,-9.00,+0.00,+9.00,-2.00,-2.00,-4.00,-8.00,-14.00
-23.00,-10.00,-6.00,-1.00,+2.00,-5.00,-3.00,-9.00,-4.00,-3.00,+7.00,-1.00,-3.00,+2.00,+0.00,+13.00
-9.00,+1.00,+3.00,+3.00,-6.00,+1.00,+5.00,+8.00,-8.00,-1.00,+8.00,+1.00,-4.00,-1.00,+4.00,+4.00
+33.00,+8.00,+3.00,-1.00,-4.00,-3.00,+6.00,+15.00,+0.00,+4.00,+6.00,+2.00,+1.00,-6.00,+5.00,-2.00
+6.00,-2.00,+0.00,+2.00,+7.00,+3.00,-8.00,+2.00,-6.00,+4.00,+7.00,+1.00,-1.00,+0.00,+1.00,-7.00
-11.00,+0.00,-1.00,-3.00,-14.00,-3.00,-1.00,-8.00,+2.00,-1.00,+6.00,+1.00,+1.00,-1.00,+4.00,+8.00
-17.00,-4.00,-2.00,-3.00,+3.00,-6.00,-4.00,-15.00,-16.00,-7.00,-1.00,-3.00,-6.00,+0.00,-6.00,-16.00
+15.00,-2.00,-1.00,-2.00,+0.00,+4.00,-1.00,-7.00,+0.00,-3.00,+6.00,+1.00,+2.00,+6.00,+3.00,+5.00
+17.00,-1.00,+1.00,+0.00,-5.00,-15.00,-7.00,-17.00,+1.00,-4.00,+0.00,-5.00,+1.00,+8.00,+4.00,+7.00
-14.00,-8.00,-4.00,-2.00,-6.00,-3.00,-2.00,-3.00,-10.00,-1.00,+2.00,-1.00,-6.00,-26.00,-16.00,-21.00
-10.00,-6.00,-2.00,-2.00,+0.00,-9.00,-10.00,+10.00,+0.00,+1.00,+4.00,+5.00,+5.00,+2.00,-11.00,+0.00
-6.00,+13.00,+2.00,+1.00,-1.00,+13.00,+2.00,-3.00,+5.00,+0.00,+2.00,-1.00,-3.00,-2.00,+8.00,+8.00
-18.00,-2.00,+0.00,+0.00,-2.00,-9.00,+3.00,-9.00,+19.00,+8.00,+6.00,+1.00,-3.00,-1.00,+9.00,+17.00
+25.00,-9.00,-8.00,-2.00,+6.00,+26.00,-1.00,-19.00,+3.00,-3.00,-2.00,-3.00,+5.00,+12.00,+13.00,+6.00
-9.00,-7.00,-5.00,-3.00,-5.00,+5.00,+0.00,-21.00,-18.00,-5.00,+0.00,-3.00,-2.00,+7.00,-2.00,-14.00
+2.00,+10.00,+4.00,+2.00,+2.00,+0.00,+18.00,+25.00,+4.00,-2.00,-2.00,-3.00,-1.00,-19.00,-10.00,-25.00
+0.00,+1.00,+2.00,-2.00,-1.00,-10.00,-5.00,+9.00,+18.00,+1.00,-1.00,+2.00,-4.00,+0.00,+5.00,+35.00
-9.00,-2.00,-1.00,-2.00,-2.00,-9.00,-12.00,-9.00,+4.00,+6.00,+7.00,+1.00,+5.00,+2.00,+11.00,+10.00
+12.00,+1.00,+1.00,+2.00,+5.00,+3.00,+15.00,+17.00,-8.00,-1.00,+0.00,+0.00,+5.00,+8.00,+14.00,+11.00
-34.00,-19.00,-9.00,-3.00,-2.00,-2.00,-14.00,-25.00,+1.00,-3.00,-1.00,+1.00,+3.00,+8.00,+0.00,+7.00
+36.00,+12.00,+4.00,-1.00,+1.00,+13.00,+20.00,+36.00,-11.00,-6.00,-3.00,-1.00,-1.00,-10.00,-11.00,-17.00
-4.00,-2.00,+0.00,+0.00,-3.00,-11.00,-9.00,-1.00,+35.00,+3.00,+5.00,-2.00,-1.00,-7.00,-23.00,-12.00
+11.00,+0.00,+0.00,+1.00,+1.00,+2.00,-3.00,-7.00,-3.00,-1.00,+1.00,-1.00,+0.00,-8.00,-4.00,-1.00
-26.00,-7.00,-3.00,-2.00,-13.00,-9.00,-1.00,-2.00,-15.00,-4.00,-5.00,-6.00,-7.00,+3.00,+9.00,+1.00
-14.00,-4.00,-4.00,-2.00,+3.00,+2.00,-9.00,-13.00,-20.00,-4.00,-2.00,-4.00,-3.00,-4.00,-8.00,-12.00
-7.00,-9.00,-2.00,-3.00,-6.00,-5.00,+16.00,-1.00,-12.00,-9.00,-3.00,-1.00,-4.00,+4.00,-10.00,-10.00
+35.00,+16.00,+4.00,+0.00,+4.00,-1.00,+1.00,+17.00,+5.00,+5.00,+1.00,-2.00,-2.00,-5.00,+5.00,+0.00
+7.00,-4.00,+0.00,+0.00,+8.00,+4.00,+1.00,+19.00,+18.00,+3.00,+3.00,+1.00,+6.00,+5.00,-6.00,+0.00
+0.00,+0.00,+3.00,+1.00,-9.00,+3.00,+0.00,-2.00,-5.00,-7.00,-2.00,-1.00,-3.00,-3.00,+3.00,+4.00
+8.00,+7.00,+1.00,+0.00,+6.00,+2.00,-2.00,+7.00,+15.00,+8.00,+4.00,+2.00,-2.00,+3.00,+6.00,+15.00
-29.00,-12.00,-6.00,-2.00,-6.00,-4.00,-7.00,-23.00,-6.00,-2.00,+2.00,+3.00,-1.00,-6.00,+0.00,-2.00
-22.00,-12.00,-9.00,-4.00,-1.00,-3.00,-12.00,-14.00,-17.00,-4.00,-4.00,-2.00,-4.00,+6.00,+8.00,+7.00
+41.00,+0.00,+2.00,+2.00,+4.00,-1.00,-3.00,+34.00,+4.00,-1.00,-1.00,+2.00,+3.00,+2.00,+3.00,-8.00
+40.00,+26.00,+9.00,+3.00,+2.00,-5.00,+19.00,+41.00,-17.00,-8.00,-7.00,-10.00,-5.00,-9.00,-23.00,-14.00
-4.00,+1.00,+0.00,-1.00,-2.00,+2.00,-6.00,-11.00,-24.00,-2.00,-1.00,-1.00,-2.00,-18.00,-46.00,-36.00
-31.00,-3.00,-5.00,-5.00,-10.00,-5.00,-5.00,-19.00,+31.00,+11.00,+5.00,+1.00,+3.00,+16.00,+42.00,+46.00
-32.00,-15.00,-7.00,-3.00,-9.00,-1.00,-1.00,-13.00,+7.00,+6.00,+5.00,+3.00,+2.00,+6.00,+13.00,+5.00
+11.00,+2.00,+2.00,+1.00,+4.00,-12.00,+4.00,+2.00,-7.00,-6.00,-7.00,-1.00,-5.00,-9.00,-5.00,+1.00
-5.00,-3.00,-2.00,+2.00,+3.00,+0.00,-3.00,-2.00,-14.00,-4.00,-2.00,-4.00,+4.00,+12.00,-7.00,-8.00
+12.00,+1.00,+2.00,+1.00,+2.00,+1.00,-3.00,+0.00,-26.00,-8.00,+1.00,+0.00,-6.00,-14.00,-15.00,-10.00
-28.00,-5.00,+1.00,-1.00,-2.00,-7.00,+1.00,-15.00,+2.00,+5.00,+0.00,-3.00,+5.00,+0.00,+4.00,-4.00
+4.00,+0.00,-1.00,-6.00,-1.00,+1.00,+9.00,+9.00,-4.00,+3.00,+3.00,+2.00,+1.00,+15.00,+3.00,-1.00
+24.00,+6.00,-1.00,-4.00,-5.00,+5.00,+6.00,+3.00,+3.00,+0.00,-2.00,-6.00,-5.00,-6.00,+8.00,+8.00
-14.00,-5.00,-2.00,-2.00,+1.00,-6.00,+7.00,-6.00,+4.00,+0.00,+0.00,-1.00,+3.00,+3.00,-7.00,-4.00
+23.00,+12.00,+2.00,+2.00,+3.00,+3.00,-4.00,+3.00,-12.00,-1.00,+1.00,+0.00,+0.00,-2.00,+6.00,-5.00
+5.00,-3.00,+1.00,+2.00,-2.00,+4.00,-11.00,+6.00,-13.00,-5.00,+0.00,+4.00,-3.00,-9.00,-17.00,-11.00
-12.00,-6.00,-3.00,-2.00,-9.00,-7.00,-1.00,+0.00,+26.00,+0.00,+1.00,+1.00,+3.00,+6.00,+26.00,+24.00
+6.00,+1.00,+0.00,+0.00,-3.00,-1.00,+0.00,+6.00,+8.00,-8.00,-4.00,+0.00,-2.00,+1.00,+1.00,-15.00
+8.00,+2.00,-1.00,-1.00,+5.00,-2.00,-18.00,-3.00,+29.00,+8.00,+1.00,-2.00,-4.00,-2.00,-3.00,+6.00
-16.00,-5.00,-2.00,-3.00,-10.00,+5.00,+17.00,-7.00,+3.00,-2.00,-3.00,-2.00,+0.00,+0.00,+0.00,-6.00
-6.00,-5.00,-1.00,+2.00,+5.00,+1.00,-3.00,+3.00,-7.00,-3.00,-2.00,-2.00,-5.00,+2.00,+7.00,+18.00
-14.00,+3.00,+12.00,+2.00,+4.00,+1.00,-14.00,-9.00,-7.00,+0.00,+0.00,+2.00,-1.00,-4.00,-8.00,-1.00
-20.00,-6.00,-4.00,-5.00,-7.00,-5.00,+15.00,-7.00,+10.00,+3.00,-2.00,-2.00,-3.00,-6.00,-11.00,-18.00
+21.00,-2.00,-13.00,-10.00,-1.00,-4.00,-10.00,-3.00,-10.00,-4.00,+7.00,+9.00,+4.00,+0.00,+4.00,+25.00
+10.00,-5.00,-14.00,-3.00,-2.00,-5.00,-15.00,-5.00,+16.00,+1.00,-8.00,-8.00,-6.00,+1.00,+16.00,+11.00
+61.00,+9.00,+4.00,+4.00,-2.00,+4.00,+35.00,+19.00,-6.00,-2.00,-2.00,+0.00,-1.00,-8.00,-14.00,-18.00
-25.00,-6.00,-8.00,-3.00,+1.00,+0.00,-15.00,-21.00,+7.00,-7.00,-4.00,-11.00,-6.00,+5.00,+5.00,+0.00
-16.00,+7.00,+21.00,+5.00,-2.00,-1.00,-2.00,+18.00,-7.00,-5.00,-5.00,-2.00,-3.00,-7.00,+0.00,-13.00
-22.00,+1.00,-4.00,-4.00,+4.00,-1.00,-6.00,-7.00,-2.00,-5.00,+1.00,+4.00,-2.00,-8.00,-18.00,-18.00
+11.00,-7.00,-12.00,-6.00,-8.00,-7.00,-20.00,-1.00,+9.00,+3.00,-3.00,-5.00,-2.00,+3.00,+0.00,+5.00
-10.00,-1.00,+9.00,-1.00,+2.00,+0.00,+14.00,-8.00,-24.00,-4.00,+4.00,+12.00,+4.00,+1.00,-3.00,-6.00
-17.00,-9.00,-21.00,+4.00,+0.00,-5.00,-6.00,-14.00,-18.00,-5.00,-4.00,-11.00,-7.00,-3.00,-5.00,-9.00
+2.00,-8.00,+7.00,+4.00,+9.00,+1.00,+0.00,-6.00,+0.00,-6.00,+2.00,+4.00,-2.00,-1.00,+7.00,+1.00
-26.00,+2.00,+2.00,+0.00,+8.00,+0.00,-9.00,-14.00,+1.00,+2.00,-1.00,-6.00,-2.00,-5.00,-4.00,-6.00
+27.00,-4.00,-16.00,-12.00,-13.00,-2.00,+10.00,+21.00,+30.00,-5.00,-5.00,-3.00,+0.00,+0.00,+0.00,+10.00
+7.00,+2.00,+4.00,+4.00,+0.00,-3.00,-7.00,-7.00,+6.00,+0.00,+1.00,-3.00,-1.00,-4.00,-5.00,-11.00
+20.00,+3.00,+6.00,-1.00,+1.00,+1.00,-1.00,-11.00,+4.00,+7.00,+4.00,+5.00,+3.00,-6.00,-22.00,-28.00
+25.00,+12.00,+7.00,+0.00,-5.00,-2.00,+11.00,-1.00,-2.00,+1.00,-2.00,-7.00,-3.00,+4.00,+12.00,+10.00
-17.00,-3.00,-4.00,+4.00,-3.00,-3.00,-17.00,-9.00,-9.00,+1.00,-2.00,-5.00,-2.00,+3.00,+4.00,+3.00
-20.00,-5.00,+1.00,+3.00,+6.00,+1.00,+0.00,-16.00,-7.00,+0.00,-5.00,-1.00,+1.00,-2.00,+3.00,-5.00
+15.00,+1.00,+9.00,-6.00,-6.00,+1.00,+4.00,+8.00,-15.00,-3.00,+1.00,+0.00,+1.00,+2.00,-5.00,-3.00
-21.00,-8.00,-17.00,-4.00,-5.00,+0.00,-5.00,-1.00,+0.00,+0.00,-1.00,+3.00,-1.00,-5.00,-14.00,-6.00
+23.00,+6.00,+0.00,+4.00,+3.00,+3.00,+6.00,-3.00,-11.00,+0.00,-2.00,+2.00,+1.00,-1.00,+4.00,+4.00
-13.00,+2.00,+7.00,+1.00,-2.00,-3.00,-14.00,+1.00,+8.00,-2.00,-4.00,-5.00,-5.00,-2.00,-2.00,-4.00
-15.00,-3.00,+6.00,+4.00,-3.00,-1.00,-1.00,-12.00,-4.00,+4.00,+3.00,+1.00,-5.00,+3.00,+10.00,+13.00
+6.00,-12.00,-16.00,-2.00,+10.00,+3.00,+2.00,+1.00,-13.00,-1.00,-3.00,+0.00,+0.00,+3.00,+5.00,-5.00
+10.00,-7.00,-2.00,+0.00,+12.00,+0.00,-8.00,-2.00,-2.00,-9.00,-4.00,+3.00,-3.00,-3.00,-5.00,-2.00
+11.00,-2.00,-14.00,-6.00,-13.00,-1.00,-6.00,+7.00,-11.00,+0.00,+3.00,+2.00,+2.00,+0.00,-5.00,-9.00
-4.00,-3.00,+0.00,+2.00,-3.00,-1.00,+3.00,+0.00,-5.00,+0.00,-4.00,-5.00,-3.00,+1.00,+11.00,+6.00
-3.00,+2.00,+5.00,-1.00,+0.00,+1.00,+3.00,+10.00,-20.00,-5.00,-5.00,-8.00,-6.00,-5.00,-15.00,-10.00
-19.00,+4.00,+0.00,+4.00,+1.00,-1.00,-4.00,-10.00,+0.00,+8.00,-3.00,-4.00,-3.00,+1.00,+7.00,+14.00
-28.00,+4.00,+18.00,+3.00,+3.00,-1.00,+3.00,-13.00,-19.00,-3.00,+1.00,+6.00,-1.00,-1.00,-7.00,-10.00
-54.00,-7.00,-7.00,-6.00,-3.00,-3.00,-4.00,-15.00,+1.00,+0.00,-3.00,+1.00,+0.00,+2.00,+2.00,+3.00
+66.00,+6.00,+0.00,+3.00,-4.00,-2.00,+1.00,+16.00,-7.00,-2.00,-4.00,+0.00,-1.00,-3.00,-2.00,-1.00
+8.00,+1.00,-8.00,-9.00,-8.00,+2.00,+4.00,-3.00,-2.00,-3.00,+3.00,+2.00,+1.00,-6.00,-8.00,+0.00
-5.00,-7.00,-14.00,-3.00,-1.00,-2.00,-8.00,+6.00,-30.00,-6.00,-1.00,+1.00,+0.00,-3.00,-10.00,-13.00
-12.00,-4.00,-2.00,+6.00,-1.00,-2.00,-1.00,+2.00,-2.00,+6.00,+1.00,+5.00,+5.00,+7.00,+6.00,-3.00
-31.00,-11.00,+5.00,+0.00,-5.00,+0.00,+6.00,-1.00,-2.00,-1.00,-4.00,-9.00,-4.00,-2.00,+1.00,+8.00
-8.00,-2.00,+14.00,+0.00,-1.00,-2.00,-9.00,-6.00,-8.00,+0.00,-1.00,-3.00,+0.00,+1.00,+2.00,-4.00
-1.00,+0.00,-3.00,-10.00,-20.00,-2.00,-2.00,+0.00,+13.00,+2.00,-7.00,-5.00,+1.00,-3.00,+5.00,+14.00
+10.00,-4.00,-19.00,-3.00,+9.00,-1.00,-1.00,-1.00,-7.00,-2.00,+6.00,+2.00,+3.00,-3.00,-7.00,-3.00
-7.00,-3.00,+6.00,-3.00,+1.00,-1.00,+4.00,-3.00,-2.00,+2.00,+5.00,+7.00,+2.00,-3.00,-5.00,-2.00
+6.00,+5.00,+2.00,+3.00,-2.00,+0.00,-1.00,+15.00,+9.00,-3.00,-5.00,-8.00,-4.00,+1.00,+6.00,+10.00
-13.00,-4.00,+4.00,+1.00,+4.00,-2.00,-1.00,-6.00,+6.00,-2.00,-2.00,-1.00,-3.00,+1.00,+4.00,+12.00
-1.00,+5.00,+1.00,+4.00,-5.00,-2.00,+4.00,+11.00,-1.00,-1.00,+0.00,-4.00,-1.00,-3.00,-7.00,-14.00
+1.00,-5.00,-1.00,-3.00,+0.00,-4.00,-9.00,-11.00,+2.00,-6.00,+2.00,+5.00,-1.00,+1.00,+6.00,+1.00
+9.00,+5.00,-7.00,-4.00,-1.00,-1.00,-6.00,+2.00,-3.00,-6.00,+1.00,+0.00,+1.00,-3.00,-8.00,-6.00
+8.00,-1.00,-4.00,+1.00,+8.00,+2.00,+9.00,-5.00,+1.00,+3.00,+2.00,+2.00,-1.00,-1.00,+6.00,+2.00
+9.00,+0.00,+11.00,-2.00,-3.00,+1.00,+2.00,+7.00,+3.00,+3.00,+0.00,+1.00,-1.00,-2.00,+0.00,+8.00
-17.00,+2.00,-15.00,+1.00,+3.00,+1.00,-1.00,-10.00,+1.00,-17.00,-8.00,-3.00,-2.00,-5.00,+1.00,+8.00
-16.00,-11.00,+2.00,+2.00,-2.00,+2.00,+2.00,-4.00,-5.00,+1.00,+1.00,+0.00,+0.00,-3.00,-1.00,-10.00
-1.00,+4.00,+7.00,-2.00,-1.00,-3.00,-4.00,-4.00,-1.00,-1.00,-2.00,-5.00,-5.00,-2.00,-3.00,+0.00
+22.00,-5.00,-11.00,-1.00,+0.00,-3.00,-10.00,+3.00,+0.00,+5.00,+1.00,-2.00,-1.00,-2.00,+3.00,+3.00
+3.00,+9.00,+11.00,-2.00,-6.00,+1.00,+20.00,+16.00,+1.00,+5.00,+3.00,+0.00,-2.00,-2.00,-4.00,-4.00
-4.00,-7.00,-3.00,-2.00,-4.00,-4.00,-10.00,-3.00,-6.00,-6.00,-4.00,-9.00,-3.00,-1.00,+0.00,+1.00
-12.00,-8.00,-8.00,+2.00,+9.00,+3.00,-4.00,+1.00,+7.00,+0.00,+2.00,+0.00,-2.00,-2.00,-5.00,-6.00
-1.00,+6.00,+9.00,-1.00,-2.00,+2.00,+14.00,-1.00,+0.00,-4.00,-5.00,-4.00,-2.00,-1.00,-1.00,+0.00
+11.00,+4.00,+0.00,+2.00,-4.00,-2.00,-7.00,-2.00,+5.00,+1.00,+4.00,+7.00,+2.00,+1.00,+3.00,+3.00
-14.00,-1.00,+2.00,+2.00,+1.00,-1.00,+0.00,-4.00,+3.00,+1.00,-1.00,+0.00,-3.00,-4.00,-2.00,-2.00
+6.00,+3.00,-1.00,-5.00,+1.00,+0.00,-1.00,-2.00,-5.00,-1.00,-1.00,-4.00,-1.00,-1.00,-5.00,-7.00
-9.00,+3.00,+3.00,+3.00,+8.00,+0.00,-5.00,+3.00,+6.00,-8.00,-2.00,+4.00,-1.00,+0.00,+3.00,+13.00
-10.00,-7.00,-1.00,-4.00,+0.00,-2.00,-7.00,-3.00,-5.00,-3.00,-2.00,-6.00,+1.00,+4.00,+7.00,+2.00
+2.00,+8.00,+1.00,+0.00,-2.00,-2.00,+2.00,-5.00,-2.00,+1.00,+2.00,+9.00,+0.00,+0.00,-6.00,-14.00
+6.00,-4.00,-7.00,+2.00,-6.00,-2.00,-3.00,-3.00,+4.00,+3.00,-2.00,-8.00,-2.00,+2.00,+1.00,-4.00
+2.00,+1.00,+2.00,+2.00,+2.00,+2.00,-3.00,-7.00,-9.00,-15.00,-9.00,-2.00,+0.00,-2.00,-7.00,-18.00
+7.00,+11.00,+14.00,+3.00,-4.00,-4.00,-2.00,-2.00,+9.00,+0.00,+0.00,-1.00,+1.00,+1.00,+2.00,+9.00
-2.00,-16.00,-5.00,-7.00,-2.00,+2.00,-4.00,-5.00,-9.00,-1.00,-2.00,+0.00,+1.00,+1.00,+3.00,+0.00
+2.00,+11.00,-10.00,-6.00,+3.00,+2.00,+2.00,+1.00,+4.00,-7.00,-4.00,+1.00,+2.00,+1.00,+5.00,+6.00
+6.00,+3.00,-7.00,-3.00,-3.00,+0.00,+3.00,-3.00,+14.00,+12.00,+1.00,-3.00,+4.00,+4.00,+5.00,+4.00
-13.00,-10.00,-3.00,+2.00,+3.00,+0.00,-3.00,+9.00,+0.00,+14.00,+2.00,-4.00,-6.00,-5.00,-2.00,-4.00
+2.00,-18.00,+4.00,+4.00,+1.00,-1.00,+1.00,-4.00,-16.00,-30.00,-12.00,-10.00,-8.00,-8.00,-9.00,-9.00
+5.00,+10.00,+2.00,-2.00,-2.00,-3.00,-6.00,-2.00,+5.00,+6.00,+4.00,+8.00,+1.00,-1.00,-1.00,+0.00
+5.00,+11.00,+5.00,-6.00,-7.00,-4.00,-6.00,+8.00,-11.00,-9.00,-2.00,-6.00,-4.00,-1.00,-4.00,+0.00
-3.00,-2.00,-7.00,+6.00,+1.00,+1.00,+3.00,-8.00,+22.00,+15.00,+4.00,+7.00,+7.00,+7.00,+2.00,+2.00
-1.00,+1.00,-3.00,-5.00,-4.00,-1.00,+2.00,+3.00,-2.00,+4.00,+2.00,-6.00,-4.00,-4.00,-3.00,+4.00
-1.00,-6.00,+4.00,+3.00,-2.00,+1.00,+2.00,+4.00,+10.00,+3.00,+1.00,+7.00,+2.00,-1.00,-2.00,+4.00
-5.00,-3.00,+3.00,-5.00,-4.00,-2.00,-4.00,-3.00,+4.00,-1.00,+3.00,+2.00,-1.00,-1.00,+0.00,+3.00
-5.00,-5.00,-6.00,-6.00,-5.00,-4.00,-3.00,+1.00,-16.00,-27.00,-1.00,-5.00,-3.00,-2.00,-3.00,-5.00
-6.00,+5.00,-2.00,+0.00,+3.00,+0.00,+2.00,+2.00,-2.00,+5.00,-1.00,+1.00,+2.00,+0.00,-3.00,-6.00
-1.00,-7.00,+4.00,+3.00,+1.00,-3.00,+3.00,-1.00,+8.00,+5.00,-4.00,-7.00,-2.00,+1.00,+2.00,+3.00
-9.00,-1.00,+1.00,-5.00,-6.00,-1.00,-1.00,+1.00,-4.00,+6.00,-2.00,+0.00,+0.00,+1.00,+1.00,-1.00
-5.00,-7.00,-12.00,-6.00,-7.00,-3.00,-4.00,-6.00,+4.00,+7.00,-3.00,+2.00,-1.00,+0.00,+0.00,+0.00
+0.00,+2.00,-4.00,-2.00,+6.00,+0.00,-3.00,-5.00,+4.00,+3.00,+1.00,+0.00,+2.00,+0.00,-1.00,+1.00
+2.00,-6.00,-3.00,+0.00,+1.00,-1.00,-5.00,-14.00,-6.00,+5.00,+4.00,-1.00,+0.00,-2.00,+1.00,-3.00
-1.00,-5.00,-5.00,+3.00,+2.00,-1.00,+2.00,-3.00,+6.00,+2.00,-3.00,+0.00,+0.00,+2.00,+2.00,+3.00
+13.00,+7.00,+7.00,+1.00,+5.00,+0.00,+0.00,+0.00,-4.00,-5.00,-3.00,-2.00,-1.00,-2.00,-4.00,-7.00
-5.00,+6.00,+6.00,-1.00,-2.00,-3.00,-3.00,+2.00,+7.00,+9.00,+1.00,-1.00,+0.00,+1.00,+0.00,+0.00
+2.00,+7.00,+4.00,+1.00,-4.00,-4.00,-1.00,-6.00,-11.00,-18.00,-6.00,+1.00,-1.00,-1.00,+0.00,-2.00
-9.00,-23.00,-16.00,-8.00,-3.00,+0.00,+2.00,-2.00,-14.00,-11.00,-4.00,-5.00,-2.00,-1.00,-1.00,-4.00
-1.00,+6.00,+3.00,+0.00,+2.00,+1.00,-8.00,-6.00,+9.00,+5.00,+1.00,+5.00,+2.00,-1.00,-3.00,-2.00
+5.00,+3.00,-8.00,-1.00,+3.00,-1.00,-4.00,-2.00,-2.00,-17.00,-6.00,-5.00,-1.00,-3.00,+0.00,-2.00
-3.00,-4.00,+7.00,-1.00,-1.00,+0.00,+5.00,+12.00,+9.00,+11.00,+5.00,+4.00,+1.00,-1.00,+3.00,+3.00
+1.00,-6.00,-3.00,-3.00,-2.00,-2.00,-1.00,-7.00,-6.00,-11.00,-5.00,-12.00,-9.00,-3.00,+4.00,+1.00
+15.00,+1.00,-4.00,-4.00,-5.00,-1.00,+1.00,+0.00,+6.00,+6.00,+2.00,+5.00,+0.00,-2.00,-8.00,-2.00
+3.00,+4.00,+3.00,-1.00,-4.00,-2.00,+1.00,+4.00,-4.00,+3.00,-1.00,-2.00,-2.00,-1.00,-3.00,-2.00
-12.00,-5.00,+2.00,+0.00,-2.00,-3.00,-4.00,+7.00,+4.00,-2.00,-1.00,+1.00,-1.00,-1.00,-2.00,-2.00
+0.00,-1.00,+6.00,+4.00,+6.00,-1.00,-1.00,+0.00,-6.00,-6.00,-7.00,-1.00,+1.00,-1.00,+0.00,-2.00
-8.00,+0.00,-7.00,-4.00,-2.00,-3.00,-5.00,+1.00,+16.00,+10.00,+2.00,-7.00,-4.00,-2.00,+3.00,+10.00
+3.00,+1.00,-5.00,-3.00,-1.00,+0.00,+5.00,-12.00,-4.00,-1.00,-1.00,+0.00,+0.00,-1.00,-2.00,-1.00
-15.00,-4.00,-5.00,-2.00,-2.00,-1.00,-1.00,-8.00,-2.00,-1.00,-2.00,-2.00,-1.00,+0.00,-3.00,+0.00
-2.00,-11.00,-10.00,+1.00,-2.00,+0.00,+1.00,+0.00,-5.00,-1.00,+1.00,-2.00,+0.00,-4.00,-3.00,-7.00
+7.00,-1.00,+12.00,+3.00,+4.00,+1.00,-1.00,+0.00,-11.00,-4.00,-3.00,-3.00,-2.00,-3.00,-4.00,-9.00
+12.00,+4.00,+1.00,+2.00,-4.00,-1.00,-1.00,+6.00,+19.00,+15.00,+3.00,+4.00,+0.00,+0.00,+1.00,+7.00
-5.00,+3.00,-4.00,+1.00,+0.00,-2.00,+0.00,-6.00,-48.00,-33.00,-12.00,-1.00,-2.00,+0.00,-3.00,-17.00
-13.00,-2.00,+6.00,+2.00,-1.00,+1.00,-2.00,-2.00,+25.00,+4.00,+0.00,-3.00,-2.00,+0.00,+5.00,+6.00
-13.00,-5.00,-5.00,-6.00,+3.00,+0.00,-2.00,-6.00,-18.00,-12.00,-1.00,+8.00,+0.00,+1.00,-1.00,-4.00
-1.00,+9.00,+10.00,-3.00,-1.00,-1.00,+5.00,+1.00,+3.00,+2.00,-3.00,-5.00,-2.00,+0.00,-2.00,+0.00
+1.00,-4.00,-19.00,-9.00,-3.00,+1.00,+2.00,-4.00,+18.00,+23.00,+0.00,-8.00,-4.00,-1.00,+1.00,+2.00
+10.00,+6.00,-4.00,+2.00,-7.00,-1.00,-4.00,+3.00,-14.00,-2.00,+0.00,-1.00,-2.00,-3.00,-2.00,-4.00
-10.00,-8.00,+3.00,+6.00,+1.00,+0.00,+1.00,-5.00,-7.00,-20.00,-5.00,-3.00,-1.00,-4.00,-1.00,-3.00
-6.00,-4.00,+9.00,+4.00,+2.00,-1.00,-1.00,-5.00,+2.00,+0.00,-1.00,+0.00,-1.00,-1.00,+0.00,+2.00
+5.00,+2.00,+7.00,+1.00,+2.00,+1.00,+1.00,-1.00,+4.00,-1.00,+0.00,+0.00,+1.00,+0.00,+0.00,+0.00
-23.00,-2.00,-9.00,-7.00,-2.00,-2.00,-1.00,-10.00,-4.00,+6.00,+0.00,-4.00,+0.00,-3.00,-10.00,-9.00
+42.00,+4.00,-9.00,-5.00,-1.00,-1.00,+0.00,+7.00,+0.00,+4.00,+0.00,-1.00,+1.00,+0.00,-1.00,-2.00
-11.00,-9.00,-6.00,+1.00,+1.00,-1.00,-1.00,+4.00,+1.00,+3.00,-2.00,-1.00,-3.00,-3.00,-1.00,+4.00
+15.00,+1.00,+3.00,+1.00,-3.00,+0.00,-10.00,-6.00,-6.00,-3.00,-2.00,-4.00,-2.00,+1.00,+2.00,+3.00
-7.00,+2.00,+1.00,-3.00,+5.00,+0.00,+3.00,-3.00,-6.00,-3.00,-1.00,+5.00,+1.00,+3.00,+2.00,+4.00
-34.00,-5.00,+3.00,+1.00,-7.00,-2.00,-2.00,-10.00,+2.00,+5.00,+0.00,+0.00,-1.00,+0.00,-3.00,-3.00
-2.00,-6.00,-11.00,-1.00,+2.00,-1.00,-3.00,-4.00,-11.00,-10.00,-3.00,-2.00,-2.00,-2.00,-2.00,-6.00
+7.00,-2.00,+3.00,-3.00,-2.00,-1.00,-1.00,+10.00,+4.00,-4.00,-2.00,+1.00,-1.00,-3.00,-2.00,-3.00
+3.00,+4.00,+2.00,+2.00,+2.00,-3.00,-8.00,+8.00,-4.00,+1.00,+2.00,+1.00,+1.00,-1.00,+0.00,-1.00
-13.00,-9.00,-4.00,-5.00,-4.00,-1.00,+4.00,-2.00,-1.00,-9.00,-6.00,-6.00,-3.00,-2.00,-3.00,-1.00
+1.00,+4.00,+2.00,-1.00,-2.00,+1.00,-2.00,-5.00,-2.00,+2.00,+7.00,+5.00,+1.00,+5.00,+3.00,-3.00
-14.00,-9.00,-11.00,-1.00,+3.00,-2.00,+3.00,-1.00,+9.00,+4.00,+0.00,-8.00,-3.00,-5.00,-4.00,+3.00
+16.00,+7.00,+3.00,-4.00,-8.00,-2.00,-1.00,+5.00,-5.00,+2.00,-1.00,+5.00,+1.00,+1.00,-2.00,-1.00
-21.00,-6.00,-1.00,+3.00,+5.00,-3.00,-2.00,+0.00,-4.00,-5.00,+3.00,-2.00,-1.00,-1.00,+1.00,+1.00
+14.00,-1.00,+2.00,+2.00,-5.00,+0.00,-4.00,+8.00,-12.00,-11.00,-6.00,-4.00,+0.00,-5.00,-3.00,-4.00
-9.00,+4.00,+4.00,+1.00,+1.00,+1.00,-3.00,-9.00,+2.00,-4.00,+4.00,+5.00,+3.00,+1.00,-1.00,-2.00
+13.00,+6.00,+1.00,-1.00,-1.00,-1.00,+2.00,-1.00,+10.00,+0.00,-3.00,+1.00,-1.00,-1.00,+0.00,+3.00
+13.00,+1.00,-1.00,-1.00,+1.00,+2.00,+3.00,+8.00,-19.00,-1.00,-5.00,-5.00,-3.00,-1.00,-3.00,+1.00
-31.00,-1.00,-1.00,-3.00,-2.00,-1.00,+3.00,-2.00,+1.00,+3.00,+2.00,+1.00,+2.00,+2.00,+3.00,-2.00
+20.00,-7.00,-4.00,+3.00,+4.00,+0.00,-1.00,+3.00,+4.00,-1.00,-1.00,-2.00,-1.00,+1.00,-5.00,-5.00
+19.00,+8.00,+2.00,+0.00,-2.00,+1.00,+2.00,+3.00,+18.00,+7.00,+1.00,+1.00,-4.00,-1.00,+2.00,+12.00
-11.00,-2.00,-2.00,-2.00,+1.00,+1.00,+0.00,-2.00,-15.00,-3.00,+5.00,+8.00,+2.00,-2.00,-2.00,-10.00
-6.00,+0.00,+0.00,+0.00,+2.00,-3.00,-12.00,-14.00,+4.00,-11.00,-12.00,-11.00,-5.00,-1.00,-1.00,+5.00
+5.00,+3.00,+3.00,+1.00,-2.00,-1.00,+9.00,-1.00,-12.00,-1.00,-1.00,+1.00,-2.00,+0.00,-3.00,-7.00
-13.00,-5.00,-2.00,-3.00,-11.00,-3.00,+0.00,-4.00,+4.00,-4.00,-2.00,-1.00,-1.00,+2.00,-1.00,-1.00
-1.00,+1.00,+0.00,+4.00,+7.00,+1.00,-5.00,-10.00,+2.00,-1.00,-6.00,-5.00,-4.00,-1.00,+1.00,+2.00
+5.00,+0.00,-2.00,+1.00,+1.00,-2.00,-1.00,+2.00,-4.00,+9.00,+4.00,+5.00,+4.00,-2.00,-4.00,-3.00
-13.00,-1.00,-1.00,-1.00,-3.00,-3.00,-6.00,-2.00,+2.00,-1.00,+1.00,-6.00,-2.00,-1.00,+0.00,+2.00
-9.00,-7.00,-5.00,+3.00,-3.00,-2.00,+0.00,-1.00,-1.00,-4.00,-7.00,-10.00,-6.00,-3.00,+0.00,-5.00
+6.00,+1.00,+3.00,-5.00,-5.00,+0.00,+2.00,+0.00,-4.00,+0.00,-3.00,+1.00,+0.00,+2.00,+3.00,-2.00
+18.00,+7.00,+1.00,-1.00,+2.00,+0.00,-1.00,+2.00,-1.00,+0.00,+2.00,-3.00,-1.00,+0.00,-2.00,-2.00
-1.00,-7.00,-3.00,-1.00,-5.00,-1.00,-1.00,+2.00,+8.00,+0.00,-4.00,+0.00,-3.00,-2.00,-2.00,+1.00
+0.00,+2.00,+10.00,+1.00,+6.00,+0.00,+1.00,+2.00,-17.00,-2.00,+4.00,+5.00,+3.00,+2.00,+3.00,+0.00
-9.00,+3.00,-8.00,-1.00,-3.00,-1.00,-3.00,-7.00,-2.00,-5.00,-2.00,-2.00,-1.00,-1.00,-1.00,+0.00
-9.00,-16.00,-8.00,-4.00,-2.00,+0.00,+6.00,+3.00,+2.00,-1.00,-2.00,+2.00,-3.00,-2.00,-4.00,-4.00
+17.00,+3.00,+1.00,-1.00,-1.00,+2.00,-1.00,-4.00,-2.00,-1.00,+2.00,+1.00,-1.00,+3.00,+5.00,+4.00
+4.00,+1.00,-1.00,+0.00,+3.00,+2.00,+2.00,-2.00,+9.00,-1.00,-5.00,-3.00,-3.00,-5.00,-7.00,+1.00
-9.00,-6.00,+1.00,+0.00,-1.00,-1.00,-4.00,-3.00,-8.00,-12.00,-12.00,-5.00,-3.00,+0.00,-1.00,-4.00
-11.00,+4.00,-5.00,-1.00,-3.00,-1.00,-2.00,+3.00,-16.00,-6.00,+0.00,+0.00,+1.00,-1.00,-1.00,-4.00
-6.00,+1.00,-3.00,-2.00,+0.00,+0.00,+1.00,+2.00,+6.00,+2.00,+1.00,+2.00,-1.00,+0.00,-3.00,+4.00
-3.00,-1.00,+5.00,+1.00,-2.00,+1.00,-8.00,-13.00,+6.00,+1.00,+2.00,+0.00,+1.00,+0.00,-3.00,-3.00
+5.00,+4.00,+5.00,+4.00,+3.00,+2.00,+7.00,-1.00,+9.00,+5.00,-1.00,-8.00,+0.00,-1.00,-1.00,+2.00
+10.00,+10.00,+4.00,+1.00,+0.00,-1.00,+1.00,+1.00,-9.00,-2.00,-1.00,+3.00,+1.00,+1.00,-1.00,-6.00
+2.00,-10.00,-8.00,-8.00,-4.00,-3.00,-8.00,+1.00,+0.00,-1.00,-5.00,-6.00,-4.00,-1.00,+7.00,+7.00
-6.00,-3.00,-3.00,+1.00,+2.00,-5.00,-2.00,-1.00,-5.00,-6.00,-1.00,+4.00,+0.00,-2.00,-1.00,-3.00
+2.00,+0.00,+4.00,-1.00,+2.00,+0.00,-4.00,+6.00,+2.00,+4.00,+4.00,-3.00,+0.00,-2.00,-1.00,-1.00
+5.00,-3.00,+2.00,+5.00,+0.00,-1.00,+8.00,+2.00,+3.00,-4.00,+1.00,+4.00,+2.00,+1.00,+0.00,+2.00
-11.00,+0.00,-4.00,-5.00,-2.00,-1.00,-1.00,-1.00,-9.00,-6.00,-1.00,+5.00,-1.00,-3.00,-6.00,-8.00
+1.00,-9.00,-6.00,-4.00,-2.00,+1.00,+0.00,+4.00,+3.00,+0.00,-3.00,-5.00,-5.00,-5.00,-1.00,+2.00
+4.00,+5.00,-4.00,-2.00,-2.00,-2.00,-4.00,-1.00,+3.00,+5.00,+3.00,+2.00,+0.00,+1.00,-3.00,+0.00
-15.00,-7.00,-3.00,+0.00,-1.00,-3.00,-5.00,-7.00,-7.00,-1.00,-1.00,+2.00,-1.00,+0.00,+2.00,+0.00
-7.00,+2.00,+2.00,-1.00,+2.00,+0.00,-2.00,-5.00,+8.00,+14.00,+1.00,-2.00,+0.00,-1.00,-1.00,+3.00
+26.00,+5.00,+1.00,+1.00,-1.00,+0.00,+0.00,+7.00,+1.00,-16.00,-5.00,-7.00,-3.00,-3.00,+1.00,+1.00
-11.00,-18.00,+1.00,+0.00,-1.00,-1.00,+0.00,+9.00,-5.00,+2.00,+1.00,+3.00,+0.00,-2.00,-6.00,-7.00
+2.00,+7.00,+0.00,-3.00,-2.00,+0.00,-3.00,+0.00,+0.00,-1.00,-4.00,-1.00,-3.00,-3.00,-3.00,-1.00
-7.00,+0.00,+3.00,+1.00,-1.00,-2.00,+2.00,-4.00,-2.00,-1.00,-1.00,+1.00,-1.00,+1.00,+0.00,-3.00
-8.00,-3.00,-1.00,-4.00,+1.00,+1.00,-1.00,-1.00,-6.00,+0.00,+2.00,+1.00,+1.00,+1.00,-1.00,+0.00
+2.00,-2.00,-5.00,-1.00,+0.00,-1.00,+1.00,+9.00,+3.00,+4.00,+0.00,-2.00,-2.00,+0.00,+3.00,+3.00
-1.00,-7.00,-6.00,-1.00,-4.00,+0.00,+0.00,-2.00,+2.00,-3.00,+0.00,+2.00,-1.00,-1.00,-4.00,+0.00
-11.00,-1.00,-1.00,+2.00,+5.00,-1.00,-3.00,+0.00,-7.00,-4.00,+3.00,-7.00,-2.00,-2.00,-2.00,-3.00
+22.00,+7.00,+6.00,+2.00,+0.00,-1.00,+0.00,+2.00,-3.00,+2.00,-5.00,-8.00,-3.00,-2.00,-3.00,-5.00
+3.00,-1.00,-3.00,-1.00,-2.00,+0.00,-5.00,-3.00,-2.00,-5.00,-1.00,+3.00,+0.00,-1.00,+3.00,+3.00
-10.00,-4.00,-6.00,-5.00,-2.00,+0.00,+5.00,-4.00,+7.00,+3.00,+1.00,-1.00,-2.00,-1.00,-4.00,+0.00
-3.00,+2.00,+5.00,+0.00,-4.00,+0.00,+1.00,+1.00,-9.00,-4.00,-1.00,+0.00,+0.00,-2.00,-1.00,-2.00
-7.00,-1.00,-5.00,+0.00,+2.00,-1.00,-1.00,-3.00,-11.00,-5.00,-2.00,+2.00,+1.00,-3.00,-1.00,-4.00
+7.00,+3.00,+2.00,+1.00,-5.00,-1.00,+2.00,-2.00,+11.00,+0.00,-5.00,-9.00,-2.00,-4.00,-1.00,+2.00
+12.00,+4.00,+4.00,+1.00,+4.00,+1.00,-6.00,+0.00,-8.00,-1.00,+0.00,+0.00,-1.00,+0.00,+0.00,-3.00
-11.00,-7.00,+2.00,+0.00,-2.00,+0.00,+0.00,-4.00,-4.00,-5.00,-4.00,-4.00,-1.00,-2.00,-3.00,-5.00
-7.00,+1.00,-3.00,-2.00,-3.00,-1.00,+1.00,+1.00,-3.00,+1.00,+1.00,-1.00,+0.00,+1.00,+1.00,+0.00
+2.00,-7.00,-7.00,-4.00,+1.00,-2.00,-2.00,-4.00,+2.00,+4.00,-1.00,+1.00,-2.00,+0.00,+0.00,+1.00
-9.00,+7.00,+2.00,-2.00,-8.00,-3.00,-1.00,-3.00,+4.00,+5.00,-1.00,-4.00,-3.00,+0.00,+2.00,+2.00
+6.00,-1.00,-3.00,-2.00,+3.00,-2.00,-1.00,+10.00,-5.00,-9.00,-3.00,+2.00,-1.00,-2.00,+0.00,-2.00
-2.00,-3.00,-1.00,+1.00,-4.00,+1.00,+2.00,-3.00,+2.00,+3.00,+0.00,+4.00,+0.00,-1.00,+2.00,+3.00
-4.00,+3.00,-1.00,+2.00,+2.00,+1.00,-2.00,-4.00,-9.00,-7.00,-5.00,-8.00,-3.00,-3.00,-3.00,-7.00
-2.00,-2.00,+4.00,+1.00,-2.00,-1.00,-5.00,-7.00,+6.00,+3.00,+1.00,-2.00,+0.00,-3.00,-6.00,-9.00
+6.00,+1.00,-8.00,-1.00,-1.00,+0.00,+0.00,+2.00,+0.00,+2.00,+0.00,+2.00,+0.00,+1.00,+3.00,+4.00
-8.00,-6.00,-2.00,-1.00,+0.00,-4.00,-5.00,-1.00,-11.00,-3.00,-2.00,-3.00,-1.00,+0.00,-6.00,-18.00
-5.00,-2.00,+1.00,-3.00,-2.00,-1.00,+0.00,-2.00,+4.00,+3.00,+5.00,+4.00,+1.00,+2.00,+4.00,+6.00
-4.00,-8.00,-8.00,-3.00,-2.00,+0.00,-3.00,+1.00,-6.00,-10.00,-7.00,-4.00,-1.00,-2.00,+1.00,+6.00
+5.00,+2.00,-4.00,+2.00,+4.00,-1.00,+2.00,-1.00,+1.00,-6.00,-5.00,-3.00,+0.00,-3.00,-3.00,-2.00
-10.00,-1.00,-4.00,-1.00,-3.00,-1.00,+1.00,-2.00,+3.00,+4.00,+3.00,+6.00,+0.00,+0.00,-1.00,+1.00
-10.00,+2.00,+5.00,-3.00,-3.00,-2.00,+0.00,+7.00,-2.00,-1.00,+1.00,-4.00,-2.00,-2.00,-3.00,-2.00
+6.00,-1.00,+2.00,+2.00,-1.00,-3.00,-3.00,-6.00,+2.00,+2.00,+1.00,-3.00,-1.00,-1.00,-1.00,-2.00
-8.00,-1.00,+1.00,-2.00,+2.00,-3.00,-1.00,+7.00,-1.00,-9.00,-3.00,+1.00,+0.00,+0.00,-3.00,-1.00
+6.00,+4.00,+1.00,+1.00,-1.00,+1.00,+2.00,+1.00,-2.00,-3.00,-2.00,-2.00,-1.00,+0.00,+0.00,-1.00
+0.00,-2.00,-1.00,-3.00,-3.00,-1.00,+1.00,-7.00,-4.00,+1.00,+0.00,+4.00,-2.00,-1.00,+1.00,-4.00
-8.00,-7.00,-3.00,-1.00,-4.00,-2.00,-10.00,-1.00,-2.00,-1.00,+0.00,-1.00,-2.00,+0.00,-3.00,+0.00
+3.00,+0.00,+0.00,-1.00,-4.00,+1.00,+8.00,-3.00,-9.00,-1.00,+0.00,+0.00,-1.00,+2.00,-2.00,-3.00
-4.00,-2.00,-2.00,-1.00,+1.00,-1.00,-1.00,-1.00,+5.00,-1.00,+0.00,+1.00,+0.00,+2.00,+2.00,+5.00
+3.00,+4.00,+1.00,+3.00,+0.00,-2.00,-3.00,-2.00,+1.00,-3.00,-3.00,+0.00,-1.00,-6.00,-4.00,+1.00
+0.00,+0.00,+1.00,-2.00,+1.00,+1.00,+3.00,-2.00,+2.00,+2.00,+0.00,-2.00,-2.00,+0.00,+0.00,+0.00
+2.00,-2.00,+2.00,-1.00,-1.00,-1.00,-1.00,-3.00,-2.00,-1.00,+0.00,-1.00,-1.00,-2.00,-1.00,-3.00
-5.00,+1.00,-2.00,-1.00,-1.00,-3.00,+0.00,-3.00,+0.00,-4.00,-1.00,-1.00,-3.00,-2.00,+1.00,-3.00
+5.00,+1.00,+1.00,+1.00,+0.00,-4.00,-4.00,-5.00,+1.00,-4.00,-1.00,-1.00,-1.00,-1.00,-3.00,-5.00
+3.00,+0.00,+1.00,-1.00,+0.00,-2.00,-1.00,+7.00,-2.00,+12.00,+3.00,+0.00,-1.00,-1.00,+0.00,-2.00
+4.00,+2.00,+2.00,+0.00,-2.00,+0.00,-1.00,-1.00,-3.00,-24.00,-7.00,-3.00,-1.00,-1.00,+0.00,+5.00
-4.00,-5.00,-8.00,-4.00,-1.00,+0.00,+1.00,-1.00,-1.00,+1.00,-1.00,+0.00,-1.00,-1.00,-3.00,-4.00
-3.00,-1.00,-1.00,+1.00,+1.00,+0.00,-1.00,+0.00,-4.00,+0.00,+0.00,+0.00,-1.00,+0.00,+0.00,-8.00
+0.00,-1.00,+0.00,+2.00,+2.00,+2.00,+3.00,+4.00,+1.00,+1.00,-1.00,+1.00,-1.00,-2.00,+0.00,+3.00
+1.00,-2.00,+1.00,-1.00,-2.00,+0.00,-1.00,-1.00,+1.00,+7.00,+0.00,-1.00,-3.00,+0.00,-1.00,-5.00
-4.00,+1.00,+3.00,+3.00,+3.00,-2.00,-6.00,-3.00,+0.00,-2.00,-1.00,-2.00,+0.00,-3.00,+0.00,+5.00
-2.00,-4.00,-4.00,-2.00,-6.00,-3.00,+1.00,-4.00,+2.00,+3.00,+1.00,+0.00,-1.00,-1.00,-1.00,+3.00
-1.00,-3.00,-2.00,+0.00,-1.00,-1.00,+1.00,-1.00,-4.00,-11.00,-3.00,-3.00,-2.00,-1.00,+0.00,-4.00
+4.00,+0.00,-2.00,-1.00,-3.00,+0.00,+2.00,+12.00,+1.00,+3.00,-2.00,-3.00,-4.00,-4.00,-2.00,+0.00
-2.00,-1.00,-1.00,-1.00,+3.00,-1.00,-1.00,-2.00,-1.00,-3.00,-3.00,-2.00,+0.00,-1.00,-3.00,+0.00
+0.00,+0.00,+0.00,+2.00,+5.00,+1.00,-3.00,+2.00,+0.00,+1.00,-1.00,+1.00,+0.00,-2.00,-1.00,-2.00
+8.00,+5.00,-1.00,-3.00,-2.00,-2.00,+1.00,-1.00,-1.00,-1.00,-2.00,-1.00,-1.00,+0.00,+2.00,+0.00
-4.00,-2.00,+3.00,+0.00,-5.00,-2.00,-3.00,-7.00,+2.00,+1.00,-1.00,-2.00,+0.00,+0.00,+1.00,-3.00
-2.00,-2.00,-2.00,-2.00,-1.00,-2.00,-1.00,-3.00,+0.00,+1.00,+1.00,-1.00,-1.00,-1.00,+0.00,-1.00
-1.00,+0.00,-2.00,-2.00,-1.00,+2.00,-1.00,+0.00,-5.00,-5.00,-1.00,-1.00,-2.00,+0.00,+2.00,+0.00
-6.00,-2.00,+3.00,+3.00,+5.00,+0.00,+1.00,+12.00,-2.00,+2.00,+1.00,-2.00,+1.00,+0.00,-2.00,-1.00
+13.00,-2.00,-3.00,-3.00,-3.00,-2.00,-4.00,-4.00,-2.00,-1.00,-1.00,-1.00,-1.00,+0.00,-2.00,-3.00
-1.00,-1.00,-2.00,-1.00,-2.00,+0.00,+1.00,+0.00,+0.00,-1.00,-2.00,-2.00,-3.00,-2.00,-2.00,-1.00
-4.00,+3.00,+5.00,-1.00,+0.00,+0.00,-1.00,-5.00,-2.00,+2.00,+2.00,+1.00,-1.00,+2.00,+1.00,+2.00
-5.00,-4.00,-9.00,-2.00,-2.00,-2.00,-1.00,-5.00,-3.00,-5.00,-2.00,-1.00,-1.00,-1.00,-1.00,-1.00
-4.00,+0.00,-1.00,-1.00,+0.00,-1.00,+0.00,-2.00,+0.00,+2.00,-1.00,+0.00,-1.00,+0.00,+1.00,-1.00
+2.00,-3.00,-1.00,+1.00,+0.00,-1.00,+1.00,+5.00,-1.00,+0.00,+0.00,-1.00,+0.00,+0.00,+0.00,+1.00
+0.00,-1.00,+1.00,-2.00,-4.00,-4.00,-2.00,-4.00,+1.00,-2.00,-4.00,-1.00,+0.00,-2.00,-2.00,-2.00
+0.00,+0.00,+2.00,+0.00,+2.00,+1.00,-3.00,-3.00,-1.00,-2.00,-1.00,-1.00,+0.00,-1.00,+1.00,-2.00
-3.00,-2.00,+2.00,-1.00,+0.00,+0.00,+4.00,-4.00,+1.00,+7.00,-1.00,+0.00,-3.00,-2.00,-1.00,-2.00
+0.00,-4.00,-4.00,-1.00,+0.00,+0.00,+0.00,-4.00,-6.00,-21.00,-6.00,-2.00,-2.00,-1.00,+3.00,-1.00
-2.00,+6.00,+1.00,+0.00,-1.00,-1.00,+1.00,+8.00,+0.00,-3.00,-3.00,+0.00,-1.00,-3.00,-1.00,+1.00
-3.00,-2.00,+0.00,+2.00,-1.00,-3.00,-6.00,-4.00,-1.00,+1.00,+0.00,-3.00,-1.00,+0.00,-1.00,-1.00
+0.00,-3.00,-1.00,-1.00,-1.00,+0.00,+4.00,-4.00,+0.00,+5.00,+0.00,+0.00,+0.00,-1.00,+1.00,+0.00
-2.00,+1.00,+4.00,+2.00,+4.00,+3.00,+8.00,-1.00,-1.00,+1.00,+1.00,-2.00,-1.00,+0.00,-4.00,-1.00
+3.00,-5.00,-4.00,-2.00,-7.00,+1.00,+5.00,+3.00,-4.00,-1.00,-1.00,-2.00,-4.00,-1.00,-9.00,-1.00
-3.00,-1.00,+1.00,-2.00,+0.00,+0.00,-2.00,+2.00,-1.00,-2.00,-1.00,+0.00,-3.00,-3.00,+5.00,+0.00
-4.00,+3.00,+0.00,+0.00,-1.00,-1.00,-4.00,-4.00,-1.00,-2.00,+0.00,-1.00,-1.00,-2.00,-7.00,+0.00
-2.00,+1.00,+0.00,+0.00,-4.00,-3.00,-4.00,-2.00,+2.00,+5.00,+1.00,+0.00,-1.00,+1.00,+2.00,-1.00
+0.00,+1.00,-2.00,-1.00,-2.00,-2.00,-6.00,-1.00,-1.00,-3.00,-2.00,-1.00,+0.00,+0.00,-5.00,-1.00
+1.00,-4.00,-2.00,-2.00,-2.00,-1.00,+2.00,-5.00,-1.00,-3.00,-4.00,+0.00,-2.00,-2.00,-4.00,-2.00
-5.00,-5.00,-3.00,-3.00,-3.00,-3.00,-4.00,-3.00,-4.00,+1.00,-1.00,-1.00,+0.00,-1.00,-2.00,-1.00
+0.00,-1.00,-1.00,-3.00,-3.00,-2.00,-1.00,+5.00,+1.00,+8.00,+2.00,+2.00,+1.00,-2.00,-2.00,+0.00
-5.00,-12.00,-1.00,+1.00,+2.00,+0.00,-3.00,-11.00,+0.00,+8.00,+2.00,-1.00,-1.00,-1.00,+1.00,-1.00
+3.00,+9.00,-1.00,-1.00,+0.00,-1.00,+2.00,+4.00,-4.00,-13.00,-4.00,-1.00,-2.00,-2.00,+0.00,+0.00
-2.00,+2.00,-2.00,-1.00,+0.00,-1.00,-4.00,-1.00,+1.00,-2.00,-2.00,-2.00,+0.00,+0.00,+1.00,+1.00
-3.00,-1.00,+0.00,-1.00,-2.00,+0.00,-2.00,+3.00,+5.00,+12.00,+3.00,+1.00,-1.00,+0.00,+2.00,+0.00
+2.00,+3.00,+0.00,-1.00,+1.00,-2.00,-1.00,-2.00,-10.00,-26.00,-6.00,-2.00,+0.00,-2.00,-4.00,-7.00
-6.00,-2.00,+2.00,+0.00,-2.00,-1.00,-4.00,-10.00,+0.00,+3.00,+0.00,+0.00,+0.00,-2.00,-5.00,-4.00
+0.00,-10.00,-2.00,-1.00,+1.00,+2.00,+5.00,+11.00,-3.00,-4.00,-2.00,-2.00,+0.00,+0.00,-1.00,-3.00
+2.00,-3.00,-6.00,-3.00,-2.00,-1.00,-4.00,+1.00,+0.00,+7.00,+1.00,-1.00,+0.00,+1.00,+2.00,+2.00
-3.00,+1.00,+2.00,-1.00,+1.00,+0.00,-1.00,-3.00,+5.00,+10.00,+2.00,+1.00,-1.00,-2.00,+2.00,-1.00
+3.00,-12.00,-3.00,-1.00,-1.00,-2.00,-4.00,+3.00,-6.00,-6.00,-5.00,-2.00,-2.00,+0.00,-1.00,-2.00
-4.00,-4.00,+5.00,+2.00,+1.00,-1.00,-2.00,-2.00,-7.00,-17.00,-9.00,-2.00,-3.00,-5.00,-8.00,-8.00
-4.00,+8.00,-8.00,-7.00,-5.00,-4.00,-6.00,-8.00,-4.00,-2.00,+0.00,-1.00,+0.00,+2.00,+6.00,+2.00
+6.00,-3.00,-6.00,+0.00,+1.00,+0.00,+9.00,+13.00,+11.00,+6.00,+3.00,+2.00,-1.00,+0.00,+4.00,-1.00
-5.00,+2.00,+1.00,+1.00,+1.00,-1.00,+0.00,-8.00,-4.00,+18.00,+6.00,-1.00,-2.00,+0.00,+3.00,+4.00
+5.00,+6.00,+3.00,+1.00,-1.00,-2.00,-7.00,+0.00,+0.00,-4.00,-3.00,+3.00,-1.00,-2.00,-3.00,-1.00
+0.00,-5.00,-1.00,-2.00,+0.00,-1.00,+5.00,-6.00,-5.00,-9.00,-4.00,-1.00,-2.00,-3.00,-2.00,-5.00
-1.00,+6.00,-3.00,-3.00,-3.00,-1.00,-2.00,-1.00,-1.00,+5.00,-1.00,-3.00,-2.00,-1.00,-4.00,+4.00
-2.00,-4.00,+0.00,-2.00,-2.00,-2.00,-1.00,-3.00,+1.00,-5.00,+0.00,+2.00,+2.00,+3.00,+17.00,-5.00
-5.00,+1.00,-2.00,+1.00,-3.00,-3.00,-5.00,-9.00,+2.00,+7.00,+2.00,-2.00,-3.00,+0.00,+4.00,+3.00
+4.00,-1.00,+1.00,+0.00,+1.00,+2.00,-2.00,+7.00,-5.00,-9.00,-2.00,-3.00,-1.00,-2.00,+1.00,-3.00
+2.00,+2.00,-2.00,-1.00,-1.00,+0.00,-5.00,-5.00,+5.00,+9.00,+1.00,+0.00,+0.00,+0.00,+0.00,+1.00
-5.00,-3.00,+1.00,-1.00,-2.00,+0.00,-1.00,-6.00,+5.00,+14.00,+1.00,-4.00,-1.00,-4.00,-5.00,-1.00
-2.00,+0.00,-3.00,-2.00,+0.00,+0.00,-1.00,+0.00,-7.00,-15.00,-3.00,-4.00,-2.00,-2.00,+4.00,-1.00
-2.00,+8.00,+6.00,+2.00,-1.00,-1.00,-3.00,-2.00,-2.00,-3.00,-2.00,-3.00,+0.00,-3.00,-5.00,-3.00
-2.00,-10.00,-1.00,+0.00,-2.00,-2.00,+1.00,+1.00,-4.00,-3.00,-2.00,-1.00,+0.00,-1.00,+9.00,-3.00
-13.00,-31.00,+14.00,+5.00,+0.00,+0.00,-2.00,-9.00,-3.00,-6.00,-1.00,-1.00,+0.00,-3.00,-4.00,+0.00
+17.00,+37.00,-18.00,-7.00,-2.00,-2.00,+2.00,+12.00,+3.00,+4.00,+2.00,-1.00,+0.00,-1.00,-1.00,+1.00
+2.00,+3.00,-3.00,-5.00,-3.00,-4.00,+0.00,-1.00,+1.00,-3.00,-3.00,-1.00,-2.00,-3.00,-5.00,+0.00
+0.00,-7.00,-3.00,-1.00,+2.00,+0.00,-2.00,+6.00,+39.00,+100.00,+21.00,+9.00,+3.00,-1.00,-3.00,+0.00
+2.00,+4.00,-4.00,-3.00,+0.00,+1.00,+4.00,+8.00,-63.00,-108.00,-38.00,-15.00,-5.00,-8.00,-15.00,-6.00
-8.00,-15.00,+10.00,+4.00,+1.00,+1.00,-5.00,-6.00,+3.00,+11.00,+0.00,-1.00,+0.00,-1.00,-9.00,-2.00
-6.00,-7.00,+2.00,+1.00,-1.00,+0.00,+3.00,-3.00,-7.00,-3.00,-2.00,-1.00,-2.00,-3.00,-10.00,-1.00
+1.00,+8.00,-2.00,-3.00,-2.00,-2.00,+1.00,-1.00,-3.00,-15.00,-5.00,-1.00,-4.00,-1.00,-3.00,+1.00
+0.00,+3.00,+3.00,+0.00,-1.00,-3.00,-2.00,-3.00,+22.00,+35.00,+12.00,+6.00,+3.00,-1.00,-13.00,+2.00
-5.00,-7.00,-1.00,-1.00,-2.00,-2.00,-4.00,-4.00,-1.00,+4.00,+2.00,-1.00,+0.00,-1.00,-6.00,+0.00
+1.00,+3.00,-1.00,-1.00,-1.00,-3.00,-2.00,-2.00,+0.00,-10.00,-1.00,-1.00,-2.00,-2.00,-10.00,-2.00
-17.00,-4.00,+2.00,-1.00,+0.00,-2.00,-8.00,-19.00,-9.00,-18.00,-1.00,-2.00,+0.00,+2.00,-6.00,-4.00
+15.00,+8.00,-5.00,-2.00,-1.00,+0.00,+9.00,+8.00,+9.00,+17.00,+6.00,+2.00,+1.00,+3.00,-2.00,+0.00
+2.00,-3.00,+0.00,+0.00,+0.00,-1.00,+4.00,+14.00,-8.00,-19.00,-5.00,-3.00,+0.00,+2.00,+8.00,+7.00
