-7.00,-1.00,-2.00,-1.00,-1.00,+0.00,-5.00,-8.00,-3.00,-3.00,-3.00,+2.00,+1.00,+1.00,-1.00,-1.00
-2.00,-3.00,-2.00,-2.00,-5.00,-1.00,-4.00,-1.00,+0.00,+0.00,-1.00,-1.00,-5.00,-2.00,+0.00,-1.00
+5.00,+2.00,+0.00,-1.00,-2.00,-3.00,-1.00,+9.00,+0.00,-2.00,-3.00,-8.00,-6.00,-4.00,-3.00,-3.00
-3.00,+2.00,+1.00,-2.00,-4.00,-4.00,-6.00,-15.00,-3.00,-4.00,-3.00,+3.00,-2.00,-1.00,-2.00,-3.00
+2.00,-4.00,+0.00,-2.00,+4.00,-1.00,-5.00,+10.00,+1.00,+3.00,+2.00,+1.00,+2.00,+2.00,+2.00,-1.00
-3.00,-1.00,-1.00,+1.00,+3.00,+2.00,+9.00,+0.00,-3.00,+0.00,-1.00,+2.00,+1.00,+1.00,-1.00,-4.00
+1.00,-2.00,-3.00,-4.00,-5.00,-3.00,-2.00,-5.00,-1.00,-3.00,-1.00,+2.00,+0.00,-1.00,-3.00,-2.00
+5.00,-1.00,-1.00,-1.00,+2.00,-1.00,+0.00,+3.00,+0.00,+1.00,-1.00,-4.00,-3.00,+0.00,+4.00,+4.00
-1.00,+1.00,+2.00,-1.00,-7.00,-2.00,+0.00,+3.00,+0.00,-2.00,-1.00,-4.00,-2.00,-3.00,-5.00,-3.00
-14.00,-2.00,-3.00,-1.00,-1.00,-3.00,-5.00,-12.00,-10.00,+0.00,+0.00,+1.00,+0.00,+1.00,+0.00,-4.00
+10.00,+1.00,+0.00,+2.00,+4.00,+1.00,-2.00,-6.00,+15.00,-1.00,-3.00,-3.00,-2.00,-1.00,+1.00,+7.00
+3.00,-1.00,+0.00,+1.00,-2.00,+2.00,+3.00,-3.00,+2.00,-2.00,-1.00,-9.00,-1.00,-1.00,-2.00,+0.00
+1.00,+4.00,+0.00,+0.00,-2.00,+17.00,+0.00,+12.00,+1.00,+8.00,+5.00,+6.00,+3.00,-2.00,-2.00,+0.00
+0.00,-2.00,-4.00,-1.00,-3.00,+11.00,-4.00,-1.00,-9.00,-11.00,-6.00,-5.00,-6.00,-4.00,+1.00,-5.00
-9.00,+2.00,+3.00,-2.00,-1.00,+10.00,+1.00,-9.00,-4.00,-3.00,-2.00,+0.00,+0.00,-2.00,+0.00,+0.00
-7.00,+0.00,-1.00,-2.00,-2.00,-2.00,-1.00,-7.00,-3.00,-2.00,+0.00,+1.00,-1.00,+1.00,-2.00,-3.00
-4.00,-9.00,-3.00,-2.00,-2.00,-11.00,+1.00,-1.00,+1.00,+0.00,-4.00,-3.00,-2.00,-4.00,+0.00,+1.00
+3.00,-3.00,-4.00,-3.00,-5.00,-13.00,-6.00,-5.00,+5.00,+5.00,+1.00,-3.00,+0.00,+1.00,-1.00,+3.00
+1.00,+2.00,+2.00,+4.00,+0.00,-5.00,+2.00,+8.00,-8.00,+0.00,+1.00,+1.00,+0.00,-2.00,-3.00,-3.00
+3.00,+4.00,+0.00,-5.00,+1.00,-7.00,-8.00,-4.00,+3.00,-2.00,+0.00,+3.00,+1.00,-1.00,-3.00,+1.00
-5.00,-2.00,+0.00,+1.00,-1.00,-9.00,-1.00,-2.00,-6.00,-3.00,+0.00,+3.00,-1.00,-4.00,-2.00,-4.00
-1.00,-4.00,-1.00,-1.00,+0.00,-6.00,+0.00,-4.00,+3.00,+1.00,+0.00,-5.00,+0.00,-3.00,-1.00,+0.00
-1.00,-3.00,+1.00,-1.00,-1.00,-2.00,+4.00,-2.00,-5.00,-3.00,-2.00,+4.00,+1.00,+5.00,+4.00,+1.00
-4.00,-2.00,-2.00,-1.00,-6.00,-3.00,-4.00,+2.00,-3.00,+2.00,-3.00,-4.00,-2.00,-1.00,+0.00,-2.00
-3.00,+1.00,+1.00,+0.00,-3.00,+0.00,+0.00,-11.00,-2.00,-5.00,-3.00,-1.00,-1.00,-1.00,-1.00,+0.00
-2.00,+3.00,+0.00,-2.00,-1.00,+0.00,-1.00,+0.00,+3.00,+0.00,+1.00,+4.00,+1.00,-2.00,-2.00,+0.00
+4.00,+1.00,-2.00,-2.00,-1.00,+0.00,+1.00,+5.00,+0.00,-3.00,+0.00,-2.00,-1.00,+0.00,+2.00,-1.00
+3.00,-2.00,-1.00,-3.00,-1.00,-3.00,-5.00,+6.00,-3.00,+0.00,-2.00,+1.00,+0.00,-3.00,+0.00,-1.00
-11.00,-6.00,-5.00,-2.00,-3.00,+0.00,-2.00,-19.00,-3.00,+3.00,-1.00,-2.00,-1.00,-3.00,-1.00,+0.00
+14.00,-1.00,+2.00,+2.00,+4.00,+0.00,+3.00,+21.00,-3.00,-14.00,-5.00,-3.00,-1.00,+1.00,-1.00,-1.00
+6.00,-1.00,-1.00,-4.00,-3.00,-2.00,+5.00,+14.00,-1.00,+4.00,-1.00,-4.00,-3.00,-1.00,-3.00,+1.00
-2.00,-2.00,-1.00,+0.00,-2.00,+0.00,-9.00,+3.00,-2.00,+1.00,+1.00,+4.00,-2.00,-3.00,-7.00,-3.00
-3.00,+1.00,+1.00,-1.00,+1.00,+0.00,+14.00,+3.00,-2.00,+0.00,-2.00,-8.00,-5.00,-3.00,-9.00,-6.00
+5.00,+2.00,+0.00,+0.00,-5.00,-1.00,+4.00,-7.00,-2.00,+4.00,+0.00,+0.00,+2.00,+3.00,+3.00,+0.00
-11.00,+2.00,+0.00,+1.00,+5.00,+0.00,-4.00,-8.00,+5.00,+1.00,-1.00,+0.00,-1.00,+2.00,+4.00,+1.00
-3.00,-5.00,-3.00,-1.00,+1.00,-2.00,+0.00,+5.00,-8.00,-3.00,-2.00,-2.00,-1.00,-4.00,-2.00,-6.00
+16.00,+8.00,-1.00,+1.00,+4.00,-1.00,-2.00,+3.00,+2.00,+0.00,+4.00,+6.00,-1.00,-3.00,-5.00,-1.00
-4.00,-6.00,-2.00,+0.00,+1.00,+0.00,-1.00,-1.00,-3.00,-1.00,-3.00,-7.00,-1.00,+0.00,+4.00,+2.00
-8.00,-11.00,-5.00,-4.00,-7.00,-3.00,+1.00,-3.00,-7.00,-4.00,-2.00,-2.00,-4.00,-3.00,+0.00,-6.00
+0.00,+1.00,-4.00,+2.00,-1.00,-1.00,-5.00,-6.00,-2.00,-1.00,-2.00,-4.00,-1.00,+0.00,+2.00,+0.00
-9.00,-3.00,+2.00,-3.00,-3.00,+0.00,-6.00,-2.00,-1.00,-2.00,-2.00,+1.00,-1.00,-1.00,+1.00,-2.00
-3.00,+1.00,-2.00,-1.00,-2.00,+1.00,+2.00,-2.00,+6.00,-1.00,-3.00,-1.00,-2.00,-4.00,-2.00,+2.00
-5.00,-1.00,-1.00,+0.00,+3.00,-2.00,-6.00,-5.00,+2.00,-1.00,-1.00,-1.00,+0.00,-2.00,-2.00,+1.00
+0.00,+0.00,+1.00,+0.00,+1.00,+0.00,+0.00,-3.00,-1.00,-2.00,-2.00,-3.00,-1.00,-1.00,+2.00,-1.00
+1.00,-1.00,-2.00,-4.00,-5.00,-2.00,+3.00,+0.00,+0.00,-1.00,-2.00,+0.00,+0.00,+3.00,+0.00,+0.00
-1.00,-2.00,+0.00,-1.00,-1.00,+0.00,-4.00,+0.00,+1.00,+2.00,-4.00,-9.00,-5.00,-2.00,-2.00,-2.00
+5.00,+7.00,+1.00,+1.00,+0.00,-2.00,-8.00,+4.00,-7.00,-1.00,-1.00,+1.00,+1.00,-1.00,-3.00,-3.00
-5.00,+1.00,-3.00,-1.00,+0.00,+3.00,+9.00,+0.00,+2.00,-2.00,-1.00,+0.00,-3.00,-3.00,-3.00,-1.00
-4.00,-3.00,-2.00,+1.00,-1.00,-2.00,-4.00,+2.00,-2.00,+1.00,+1.00,+4.00,+1.00,+1.00,+2.00,+1.00
+6.00,-3.00,-2.00,-5.00,+0.00,+1.00,+4.00,+1.00,-1.00,+0.00,+0.00,-4.00,-3.00,-2.00,-1.00,+0.00
-6.00,-3.00,-1.00,-1.00,-2.00,-4.00,+1.00,-3.00,+4.00,+2.00,+3.00,+3.00,+0.00,-1.00,-2.00,-2.00
+19.00,+10.00,+5.00,+2.00,-2.00,-1.00,-2.00,+3.00,-12.00,-1.00,+0.00,+0.00,-2.00,-1.00,+0.00,-3.00
+3.00,-1.00,+0.00,+0.00,+0.00,-1.00,-1.00,+17.00,+5.00,+5.00,-3.00,-5.00,-4.00,-3.00,-3.00,-1.00
-9.00,-2.00,-2.00,+0.00,-3.00,+0.00,-1.00,-8.00,-10.00,-8.00,-4.00,+1.00,-2.00,-2.00,-9.00,-11.00
+2.00,-3.00,-1.00,-1.00,-3.00,+1.00,+0.00,-5.00,-4.00,-5.00,-2.00,-3.00,+1.00,+7.00,+16.00,+10.00
-22.00,-10.00,-1.00,-4.00,-1.00,-4.00,-3.00,-18.00,+1.00,+1.00,+1.00,+1.00,+0.00,+1.00,+1.00,+1.00
+2.00,-1.00,-5.00,-2.00,+0.00,-1.00,+0.00,-5.00,-4.00,+1.00,-1.00,-4.00,-2.00,+0.00,+0.00,-2.00
+4.00,+3.00,+0.00,+0.00,-3.00,-4.00,-4.00,-3.00,+1.00,+2.00,+1.00,+1.00,+0.00,+0.00,-2.00,-3.00
-9.00,-3.00,+1.00,+0.00,+0.00,+0.00,-1.00,-10.00,+4.00,+4.00,-1.00,-1.00,-3.00,-4.00,-8.00,-4.00
+13.00,+1.00,-1.00,-2.00,-2.00,-2.00,-1.00,-1.00,-5.00,-10.00,-7.00,-4.00,-1.00,+0.00,+3.00,+0.00
-8.00,+3.00,+3.00,+0.00,+3.00,-1.00,-6.00,-3.00,-1.00,-3.00,+4.00,+6.00,+4.00,+2.00,+5.00,+3.00
-10.00,-6.00,-6.00,-1.00,+2.00,+1.00,-1.00,-8.00,+1.00,+0.00,-6.00,-12.00,-1.00,+1.00,+0.00,+0.00
+1.00,-4.00,-1.00,-3.00,-7.00,+3.00,+5.00,+14.00,-4.00,-1.00,-1.00,+5.00,-1.00,-1.00,-1.00,-1.00
-2.00,-2.00,+1.00,+6.00,+3.00,+0.00,-1.00,+6.00,+4.00,+3.00,+1.00,-2.00,-1.00,+0.00,+4.00,+1.00
+2.00,-3.00,-4.00,-4.00,+1.00,-4.00,-9.00,-11.00,-2.00,-7.00,-2.00,+0.00,-3.00,-4.00,-7.00,-6.00
-3.00,+2.00,+1.00,-2.00,-1.00,-1.00,+5.00,-19.00,-4.00,+0.00,+2.00,+0.00,+2.00,-1.00,-1.00,+0.00
+2.00,+2.00,+1.00,+2.00,+0.00,+0.00,+4.00,+13.00,+5.00,+1.00,-3.00,-4.00,-1.00,+2.00,-2.00,-1.00
+7.00,-5.00,-4.00,-4.00,-3.00,+2.00,+2.00,+23.00,-4.00,-4.00,-2.00,-2.00,-3.00,+2.00,+1.00,-2.00
-10.00,-1.00,+1.00,+3.00,+2.00,+5.00,+2.00,-1.00,+0.00,-4.00,-1.00,-2.00,+0.00,-1.00,-1.00,+2.00
+14.00,+1.00,+3.00,+1.00,+0.00,-6.00,-7.00,-8.00,+1.00,+4.00,+2.00,+3.00,-1.00,-2.00,-4.00,-2.00
+3.00,+5.00,-1.00,+0.00,-2.00,-1.00,-2.00,-4.00,+3.00,-3.00,-2.00,+0.00,+0.00,-5.00,-2.00,+0.00
+2.00,+1.00,+0.00,-2.00,-2.00,-3.00,-4.00,+8.00,+6.00,+2.00,+0.00,+2.00,-2.00,-2.00,-1.00,+1.00
+4.00,+3.00,+3.00,+2.00,+3.00,+1.00,+7.00,+8.00,-8.00,-2.00,-1.00,-3.00,-3.00,-2.00,+0.00,-2.00
-20.00,-6.00,-3.00,-2.00,-4.00,+1.00,-4.00,-3.00,+2.00,+1.00,+0.00,+6.00,+1.00,+1.00,+3.00,+2.00
-5.00,+2.00,+2.00,+2.00,+3.00,-2.00,+0.00,+1.00,-7.00,-4.00,-3.00,-11.00,-3.00,+3.00,+3.00,-1.00
+25.00,+1.00,-5.00,-3.00,-11.00,-3.00,-5.00,-13.00,+4.00,+0.00,+0.00,+1.00,+1.00,-8.00,-5.00,-1.00
+3.00,+3.00,+2.00,+3.00,+0.00,-1.00,+0.00,+0.00,+4.00,-2.00,-5.00,-5.00,-5.00,-2.00,-3.00,+2.00
+7.00,+0.00,+1.00,+0.00,+1.00,+0.00,+3.00,+28.00,-8.00,-1.00,+0.00,+3.00,+1.00,-1.00,-1.00,+1.00
+0.00,-4.00,-3.00,-1.00,+1.00,+0.00,-1.00,-10.00,-1.00,-3.00,-6.00,-6.00,-2.00,+0.00,-5.00,-5.00
-24.00,-10.00,-6.00,-1.00,-2.00,-1.00,-5.00,-23.00,-2.00,-4.00,-1.00,-1.00,+1.00,+5.00,+0.00,-2.00
-4.00,-7.00,-2.00,-1.00,+2.00,-2.00,+0.00,+3.00,-4.00,+0.00,+0.00,-3.00,+0.00,+0.00,+3.00,+0.00
+16.00,+7.00,+2.00,+1.00,-3.00,-4.00,+5.00,+3.00,-2.00,+1.00,-1.00,+0.00,-1.00,+0.00,-4.00,-1.00
-9.00,-2.00,-1.00,-3.00,+0.00,-2.00,-6.00,-9.00,+4.00,-3.00,+1.00,+3.00,-1.00,-5.00,-3.00,+0.00
+19.00,+2.00,+0.00,-2.00,+4.00,+4.00,+2.00,+21.00,+0.00,-2.00,-2.00,-1.00,+0.00,+3.00,-1.00,-2.00
-3.00,-2.00,-2.00,-1.00,-2.00,+0.00,+3.00,+5.00,+0.00,-2.00,-1.00,-3.00,+1.00,-1.00,-3.00,-1.00
-2.00,-3.00,-1.00,-1.00,+0.00,-3.00,+0.00,+11.00,-1.00,-2.00,+2.00,+3.00,+2.00,+10.00,+0.00,-1.00
-12.00,-5.00,-3.00,-1.00,+1.00,+16.00,-7.00,-14.00,-11.00,-4.00,-3.00,-3.00,-1.00,-18.00,-12.00,-9.00
+15.00,+8.00,+2.00,-1.00,-1.00,-9.00,+7.00,+17.00,+3.00,+1.00,-1.00,-3.00,-3.00,-5.00,-2.00,+4.00
+4.00,+2.00,+1.00,+0.00,+3.00,+0.00,-6.00,-5.00,-3.00,-1.00,-1.00,-2.00,+2.00,+3.00,+3.00,-2.00
-16.00,-2.00,-3.00,-2.00,+0.00,-4.00,+1.00,-28.00,-1.00,+2.00,+4.00,+5.00,-8.00,-13.00,-11.00,-8.00
-10.00,-9.00,-6.00,-2.00,-3.00,-2.00,+1.00,-9.00,-4.00,-5.00,-2.00,-1.00,+6.00,+13.00,-2.00,-5.00
-20.00,-4.00,+0.00,-1.00,+2.00,+3.00,-4.00,-3.00,-6.00,-5.00,-3.00,-4.00,-3.00,+13.00,+7.00,+3.00
+5.00,+0.00,-3.00,-3.00,-6.00,-1.00,+8.00,+4.00,+8.00,+6.00,+3.00,+1.00,+2.00,-9.00,+12.00,+11.00
-8.00,-2.00,-5.00,-2.00,-1.00,-3.00,-6.00,-13.00,+2.00,+0.00,-4.00,-7.00,-2.00,-2.00,+2.00,+0.00
+10.00,+5.00,+1.00,+1.00,+5.00,-4.00,+2.00,-5.00,-4.00,+1.00,+1.00,-1.00,-3.00,-10.00,-8.00,-7.00
-17.00,-2.00,+0.00,-5.00,-3.00,-6.00,-14.00,-30.00,+0.00,+3.00,+4.00,+5.00,+2.00,+2.00,+5.00,+8.00
-5.00,-4.00,-2.00,-3.00,-2.00,-2.00,+9.00,+16.00,+0.00,+0.00,+0.00,+0.00,-1.00,+2.00,+0.00,-2.00
-5.00,-8.00,-4.00,-1.00,-2.00,+2.00,-8.00,-10.00,-2.00,-4.00,-3.00,-4.00,-2.00,+1.00,+4.00,+2.00
+18.00,+6.00,+2.00,+1.00,-1.00,-4.00,+3.00,+2.00,+2.00,+2.00,+2.00,-2.00,-4.00,-3.00,+1.00,+3.00
+2.00,+0.00,-3.00,+3.00,+1.00,+2.00,+1.00,+20.00,-1.00,+0.00,-1.00,+3.00,-1.00,-2.00,-7.00,-6.00
-14.00,-6.00,-3.00,-4.00,-3.00,-1.00,-11.00,-23.00,-7.00,-2.00,-1.00,-3.00,-4.00,-5.00,-8.00,-7.00
+9.00,+2.00,+2.00,+0.00,-1.00,+2.00,+2.00,+15.00,+2.00,-2.00,-3.00,-3.00,-1.00,+0.00,+1.00,+3.00
-6.00,-5.00,-2.00,-4.00,-4.00,+2.00,-2.00,+0.00,-7.00,-1.00,+0.00,+1.00,-1.00,+1.00,-6.00,-6.00
+4.00,+0.00,-1.00,+0.00,+0.00,-18.00,+0.00,-6.00,-4.00,-3.00,+0.00,+5.00,+0.00,-3.00,+3.00,-1.00
+13.00,+5.00,+3.00,+4.00,+2.00,+3.00,-5.00,+5.00,+2.00,-2.00,-6.00,-2.00,-1.00,+1.00,-3.00,-1.00
-11.00,-4.00,-3.00,+0.00,-1.00,-6.00,-15.00,-13.00,-3.00,-4.00,+2.00,+3.00,+1.00,+2.00,+1.00,+1.00
-2.00,-3.00,-2.00,-3.00,-3.00,-10.00,+23.00,+24.00,-2.00,-3.00,-2.00,+2.00,+3.00,+2.00,+8.00,+8.00
-5.00,-7.00,-2.00,+1.00,+2.00,+5.00,-1.00,-31.00,+6.00,+2.00,+2.00,-5.00,-6.00,-3.00,-2.00,+3.00
+2.00,+0.00,-2.00,-1.00,-5.00,+0.00,+10.00,+11.00,+8.00,+1.00,+0.00,-1.00,+3.00,+6.00,-12.00,-6.00
+1.00,+2.00,+3.00,+0.00,-1.00,+1.00,-4.00,-11.00,-18.00,-8.00,-3.00,+1.00,+0.00,-11.00,+3.00,-5.00
+6.00,-1.00,+1.00,+1.00,-2.00,-3.00,-10.00,+17.00,+21.00,+8.00,+3.00,+2.00,-1.00,-4.00,+12.00,+15.00
-6.00,-3.00,-1.00,-1.00,-2.00,+7.00,+1.00,-9.00,-27.00,-9.00,-5.00,-3.00,-2.00,-1.00,-7.00,-15.00
+0.00,+3.00,-1.00,+1.00,-6.00,+8.00,+6.00,+4.00,-1.00,-9.00,-5.00,+2.00,-2.00,-1.00,-4.00,-4.00
-20.00,-5.00,+1.00,+1.00,+6.00,-9.00,-7.00,-5.00,+0.00,+2.00,+1.00,-6.00,-5.00,-4.00,-15.00,-10.00
-12.00,+2.00,-4.00,-5.00,-6.00,+1.00,-1.00,-7.00,-5.00,-5.00,-3.00,+1.00,+2.00,+12.00,+0.00,-4.00
+10.00,-2.00,+3.00,+2.00,+3.00,+7.00,+4.00,+19.00,+9.00,+3.00,-4.00,-5.00,-7.00,-11.00,-4.00,+2.00
-5.00,-2.00,-3.00,-4.00,-5.00,-4.00,-14.00,-12.00,+0.00,-5.00,+3.00,+5.00,+7.00,+9.00,-11.00,-6.00
+23.00,+10.00,+1.00,+0.00,-1.00,+13.00,+15.00,+17.00,-18.00,-10.00,-1.00,+1.00,-6.00,-7.00,-2.00,-6.00
-11.00,-1.00,+0.00,+1.00,+2.00,-11.00,+2.00,-15.00,-1.00,+0.00,+1.00,-2.00,+0.00,-2.00,+16.00,+12.00
-35.00,-6.00,-2.00,-4.00,-4.00,-5.00,-6.00,-1.00,+2.00,+2.00,+1.00,+0.00,-2.00,-5.00,-9.00,-9.00
+3.00,-3.00,-2.00,-5.00,-4.00,-10.00,-6.00,-7.00,-14.00,-2.00,-2.00,-2.00,+0.00,-3.00,+7.00,+4.00
-1.00,+0.00,+1.00,-2.00,+1.00,+8.00,+1.00,-10.00,+23.00,+6.00,+9.00,+0.00,+5.00,+4.00,+10.00,+15.00
+24.00,+19.00,+7.00,+2.00,+0.00,+5.00,-1.00,+12.00,+10.00,+3.00,+2.00,-3.00,-1.00,-2.00,-2.00,+0.00
-2.00,-4.00,-5.00,-2.00,-2.00,+1.00,+0.00,-12.00,-10.00,-2.00,-3.00,-1.00,+3.00,-2.00,-7.00,-8.00
-19.00,-2.00,-3.00,-3.00,-2.00,-3.00,-3.00,-6.00,-21.00,-6.00,-6.00,-5.00,-4.00,-5.00,+7.00,-1.00
-8.00,-5.00,-2.00,+1.00,+1.00,+0.00,+6.00,-3.00,-3.00,-3.00,-9.00,-2.00,+1.00,+6.00,+6.00,-1.00
+3.00,-2.00,-1.00,-1.00,-2.00,-2.00,-12.00,-24.00,+4.00,+1.00,-2.00,+2.00,-2.00,+2.00,+3.00,+4.00
+40.00,+10.00,+3.00,+0.00,+2.00,+2.00,+1.00,+33.00,+19.00,+4.00,+1.00,+0.00,+2.00,-3.00,+0.00,+6.00
-30.00,-13.00,-3.00,+1.00,+0.00,-6.00,+1.00,-26.00,+0.00,+3.00,-2.00,-5.00,-6.00,-6.00,+0.00,-1.00
+13.00,+6.00,+2.00,-4.00,-6.00,-6.00,-8.00,+30.00,-8.00,+3.00,+1.00,-1.00,+1.00,+5.00,+2.00,-4.00
-29.00,-9.00,-5.00,-3.00,-1.00,-9.00,+3.00,-30.00,-16.00,-8.00,-3.00,-1.00,-2.00,-7.00,-6.00,-7.00
+8.00,+4.00,-1.00,-1.00,-5.00,-3.00,-4.00,-8.00,-6.00,-2.00,-2.00,+0.00,-1.00,-4.00,-10.00,-4.00
+10.00,-5.00,-1.00,+1.00,+6.00,-9.00,-7.00,+8.00,-3.00,+3.00,+0.00,+0.00,-4.00,-1.00,-2.00,-1.00
-2.00,-1.00,+4.00,+2.00,-3.00,-9.00,+13.00,+41.00,-9.00,-2.00,-5.00,+0.00,+0.00,-1.00,-1.00,-2.00
+65.00,+10.00,+0.00,-1.00,+2.00,+36.00,-1.00,+11.00,+1.00,+10.00,+5.00,+3.00,-2.00,+23.00,+12.00,+5.00
-31.00,-1.00,+1.00,+1.00,+0.00,+1.00,+5.00,-12.00,+3.00,+2.00,-4.00,-5.00,-1.00,-35.00,-17.00,-9.00
+8.00,-1.00,+0.00,-2.00,-7.00,+12.00,-9.00,-31.00,-17.00,-6.00,+0.00,-1.00,+2.00,+1.00,+8.00,-1.00
+13.00,-9.00,-3.00,+0.00,+5.00,+1.00,+2.00,-1.00,+5.00,-1.00,-2.00,-5.00,-10.00,-6.00,-23.00,-13.00
+8.00,-6.00,-3.00,-2.00,-4.00,-17.00,-2.00,+9.00,-6.00,-1.00,+3.00,+3.00,+15.00,-5.00,-5.00,-11.00
-8.00,-2.00,-4.00,+0.00,-2.00,-14.00,-6.00,-18.00,+6.00,+4.00,+5.00,-1.00,-22.00,+9.00,+23.00,+18.00
-7.00,-1.00,-2.00,+0.00,+1.00,+21.00,-7.00,-13.00,+18.00,+3.00,+0.00,+0.00,+1.00,+4.00,+2.00,+3.00
-16.00,+0.00,-3.00,-3.00,-3.00,+1.00,+5.00,-1.00,+1.00,+0.00,-2.00,-6.00,-2.00,-4.00,-2.00,-5.00
-18.00,-11.00,-3.00,-1.00,+1.00,-8.00,-1.00,+5.00,-2.00,-2.00,-2.00,-2.00,-4.00,+2.00,-5.00,-1.00
-10.00,-2.00,-4.00,-9.00,-6.00,-3.00,+4.00,-18.00,+9.00,-2.00,-2.00,-1.00,-1.00,+4.00,-2.00,+0.00
-10.00,+0.00,+3.00,+1.00,+1.00,-12.00,+1.00,+8.00,+7.00,+0.00,+0.00,-1.00,-6.00,-11.00,+1.00,+0.00
+12.00,+8.00,+1.00,-2.00,-2.00,+19.00,+1.00,+9.00,+0.00,+0.00,+1.00,+2.00,-2.00,+5.00,+8.00,+7.00
-9.00,-2.00,+2.00,+3.00,+0.00,-7.00,-9.00,+3.00,-3.00,-1.00,-3.00,-4.00,-5.00,-7.00,-10.00,-6.00
-15.00,+3.00,+5.00,+4.00,+3.00,+18.00,+14.00,-10.00,-4.00,-4.00,-3.00,-1.00,+10.00,+13.00,+16.00,+9.00
+35.00,+9.00,+1.00,-4.00,-2.00,+2.00,-1.00,+18.00,+2.00,-4.00,+2.00,+0.00,-4.00,+5.00,+13.00,+13.00
+5.00,-2.00,+2.00,+0.00,+1.00,-12.00,-9.00,+22.00,+24.00,+12.00,+5.00,+1.00,+3.00,-4.00,-17.00,-2.00
+27.00,+2.00,-3.00,+0.00,-4.00,-12.00,+13.00,-13.00,+7.00,+5.00,+6.00,-2.00,-12.00,-14.00,-10.00,-3.00
-23.00,-1.00,-2.00,+2.00,+3.00,+36.00,+2.00,-9.00,+1.00,-8.00,-8.00,-5.00,+3.00,+14.00,-4.00,-5.00
-1.00,-6.00,-4.00,-3.00,+0.00,-9.00,-2.00,+0.00,-13.00,-7.00,-4.00,-5.00,-4.00,-16.00,-10.00,-12.00
-11.00,-7.00,-5.00,-1.00,-2.00,+1.00,-7.00,-31.00,+15.00,+0.00,-1.00,+1.00,+5.00,+9.00,+16.00,+16.00
+20.00,+5.00,+4.00,-4.00,-4.00,+17.00,-2.00,+46.00,-1.00,-8.00,-7.00,-7.00,-8.00,+7.00,-11.00,-9.00
+7.00,+2.00,+7.00,+5.00,+5.00,-21.00,+9.00,+5.00,+0.00,+6.00,+4.00,+3.00,+1.00,-12.00,-2.00,-7.00
+31.00,+15.00,+8.00,+2.00,+5.00,-10.00,+13.00,+72.00,-18.00,-8.00,-5.00,-4.00,+9.00,+4.00,+2.00,+0.00
-21.00,+2.00,-5.00,-6.00,-5.00,-4.00,-28.00,-23.00,-23.00,-6.00,-5.00,-4.00,-19.00,-6.00,+10.00,+9.00
-58.00,-16.00,-6.00,-3.00,+0.00,+9.00,-1.00,-77.00,-33.00,-7.00,-5.00,-1.00,+0.00,-21.00,-23.00,-12.00
+21.00,-6.00,-1.00,-2.00,-3.00,+0.00,-6.00,+5.00,-23.00,-2.00,-3.00,+0.00,+7.00,+8.00,-3.00,+0.00
-11.00,-4.00,-3.00,-3.00,-3.00,+3.00,+0.00,-6.00,-25.00,+1.00,-1.00,-1.00,-3.00,-8.00,-25.00,-23.00
-5.00,+5.00,-4.00,-8.00,-4.00,-9.00,-8.00,-36.00,-21.00,-4.00,-3.00,+1.00,+1.00,+10.00,+34.00,+10.00
-12.00,+1.00,+0.00,+1.00,+4.00,+5.00,-4.00,-10.00,-37.00,-18.00,-6.00,-3.00,-4.00,-4.00,-3.00,-4.00
-4.00,-1.00,-4.00,-6.00,-6.00,-3.00,-3.00,+6.00,+12.00,+0.00,+3.00,+2.00,-5.00,+7.00,+12.00,+5.00
-21.00,-7.00,-5.00,+0.00,-5.00,-49.00,-10.00,-65.00,+26.00,+2.00,+3.00,+0.00,+4.00,-10.00,-2.00,+7.00
-3.00,-7.00,+1.00,+3.00,+5.00,+18.00,+4.00,+14.00,+9.00,-4.00,+0.00,-1.00,+2.00,+2.00,-9.00,-8.00
-15.00,-10.00,-9.00,-3.00,-6.00,-10.00,-4.00,-2.00,+20.00,+1.00,-1.00,-1.00,-6.00,+8.00,+17.00,+6.00
-3.00,+9.00,+5.00,-1.00,+2.00,+16.00,+1.00,+10.00,-3.00,-8.00,-2.00,-1.00,+1.00,-13.00,-11.00,-11.00
+3.00,-4.00,-3.00,-6.00,-3.00,+3.00,+12.00,+36.00,+14.00,-4.00,-5.00,-4.00,-10.00,+4.00,-9.00,-11.00
+26.00,+5.00,+3.00,+4.00,+3.00,+12.00,+7.00,+5.00,+15.00,-4.00,-1.00,+2.00,+4.00,+1.00,+15.00,+9.00
-32.00,-13.00,-1.00,+8.00,+0.00,+8.00,-19.00,-53.00,+29.00,+5.00,+1.00,+0.00,-6.00,-3.00,+5.00,+5.00
+36.00,+12.00,+1.00,+0.00,+6.00,-14.00,-3.00,+22.00,-22.00,-2.00,-2.00,+0.00,+8.00,+7.00,-9.00,-19.00
-19.00,-4.00,-3.00,+2.00,+1.00,+13.00,-5.00,-21.00,+20.00,+11.00,+6.00,+2.00,+3.00,+3.00,+3.00,+4.00
-8.00,+0.00,-1.00,-2.00,-2.00,-4.00,-1.00,-24.00,-2.00,-2.00,-5.00,-6.00,-13.00,+10.00,+30.00,+28.00
-51.00,-36.00,-16.00,-6.00,-2.00,-7.00,-9.00,-35.00,-11.00,-13.00,-9.00,-4.00,+3.00,-6.00,+1.00,-6.00
+15.00,+2.00,+5.00,+4.00,+1.00,-6.00,+1.00,+44.00,+9.00,-7.00,-4.00,-3.00,-5.00,-5.00,-6.00,+2.00
+6.00,+3.00,+1.00,+1.00,-3.00,+7.00,-10.00,-5.00,-6.00,-6.00,-8.00,-7.00,-8.00,-10.00,-24.00,-19.00
-46.00,-30.00,-11.00,+3.00,-1.00,-13.00,+18.00,-60.00,+16.00,+4.00,+3.00,+4.00,+12.00,-4.00,-27.00,-20.00
+56.00,+21.00,+11.00,+4.00,+5.00,+2.00,+9.00,+93.00,+6.00,+5.00,-1.00,-4.00,+0.00,+19.00,+27.00,+19.00
-24.00,-5.00,-6.00,-5.00,-13.00,-47.00,-17.00,-25.00,+2.00,+1.00,-2.00,-1.00,-10.00,-12.00,-7.00,-7.00
+8.00,+4.00,+2.00,-2.00,+3.00,+44.00,+21.00,+3.00,-2.00,+3.00,-2.00,-2.00,+4.00,-5.00,-16.00,-1.00
+15.00,+9.00,+5.00,+2.00,+6.00,+6.00,+7.00,+24.00,-3.00,-4.00,-7.00,-4.00,+2.00,-7.00,-14.00,-7.00
+50.00,+32.00,+8.00,-8.00,-3.00,+6.00,+8.00,+43.00,-10.00,+4.00,+4.00,+5.00,+14.00,+26.00,-28.00,-29.00
+27.00,+1.00,+0.00,-2.00,-1.00,-5.00,+11.00,+19.00,+8.00,-2.00,+2.00,+0.00,-23.00,-25.00,+19.00,+15.00
-62.00,-23.00,-8.00,-3.00,-3.00,+3.00,-7.00,-36.00,+1.00,-3.00,+0.00,-1.00,+3.00,-1.00,+13.00,+5.00
+34.00,+11.00,+3.00,+0.00,-1.00,-12.00,-2.00,+19.00,-9.00,-7.00,-6.00,-4.00,-3.00,-6.00,-13.00,-9.00
-1.00,-5.00,-2.00,-2.00,+0.00,-4.00,+2.00,-10.00,+14.00,+4.00,+1.00,+1.00,+0.00,-12.00,+7.00,+7.00
-24.00,-15.00,-9.00,-5.00,-1.00,+10.00,-13.00,-27.00,-8.00,-3.00,-3.00,-1.00,+8.00,+11.00,-14.00,-11.00
-12.00,-3.00,-2.00,-1.00,-4.00,-14.00,-9.00,-25.00,-6.00,+7.00,+8.00,+9.00,+3.00,+20.00,+30.00,+13.00
-72.00,-22.00,-12.00,-5.00,-2.00,-2.00,-24.00,-47.00,-15.00,-2.00,-3.00,-1.00,-6.00,-14.00,-30.00,-24.00
+17.00,+11.00,+7.00,+5.00,+10.00,+4.00,-1.00,+38.00,-1.00,-3.00,-8.00,-4.00,+7.00,+17.00,+38.00,+28.00
+47.00,+4.00,+2.00,+3.00,+2.00,+3.00,+5.00,+7.00,+10.00,+10.00,+7.00,+2.00,+5.00,-15.00,-7.00,+3.00
+2.00,-3.00,-6.00,-2.00,+0.00,-5.00,-6.00,+15.00,+15.00,+5.00,+1.00,-1.00,-2.00,+18.00,+6.00,+7.00
-15.00,-12.00,-7.00,+0.00,-4.00,-11.00,-14.00,-36.00,-22.00,-1.00,+6.00,+0.00,+2.00,-3.00,+13.00,-4.00
+10.00,+17.00,+6.00,-4.00,-4.00,+1.00,+3.00,+24.00,-11.00,-9.00,-3.00,-3.00,-9.00,-14.00,-26.00,-17.00
-51.00,-11.00,-2.00,+1.00,-1.00,+7.00,+7.00,-25.00,-5.00,-7.00,-3.00,-3.00,-3.00,+3.00,-1.00,-5.00
+13.00,-2.00,+2.00,+2.00,+5.00,+36.00,+5.00,-4.00,+2.00,-3.00,-4.00,-2.00,-5.00,-11.00,-23.00,-5.00
+53.00,+26.00,+9.00,-4.00,+0.00,+11.00,+6.00,+76.00,+32.00,+5.00,+1.00,+3.00,+8.00,+26.00,+30.00,+28.00
-31.00,-10.00,-6.00,+0.00,-4.00,-9.00,+9.00,-36.00,-26.00,-5.00,+3.00,+3.00,-8.00,-22.00,-16.00,-20.00
-23.00,-10.00,-5.00,-1.00,-1.00,+6.00,-13.00,-34.00,-20.00,-12.00,-7.00,-6.00,+8.00,+18.00,+4.00,-8.00
+111.00,+59.00,+29.00,+7.00,+2.00,-23.00,+27.00,+110.00,-3.00,+2.00,-2.00,+0.00,-16.00,+2.00,-3.00,-5.00
-11.00,-2.00,-2.00,-1.00,-6.00,-8.00,-4.00,-18.00,+12.00,-1.00,+1.00,+2.00,-3.00,-21.00,-15.00,+2.00
+8.00,-13.00,-7.00,-6.00,-2.00,+0.00,-16.00,-42.00,+9.00,+3.00,+1.00,+0.00,-11.00,-28.00,-59.00,-27.00
-4.00,-10.00,-7.00,-5.00,-6.00,-7.00,+3.00,-33.00,-2.00,-4.00,-3.00,+1.00,+8.00,+11.00,+20.00,+14.00
-60.00,-18.00,-12.00,+3.00,+1.00,-2.00,-3.00,-21.00,-15.00,-7.00,-2.00,+0.00,-1.00,-4.00,-16.00,-15.00
+28.00,+21.00,+10.00,-7.00,-4.00,+3.00,+7.00,+31.00,-1.00,+3.00,+3.00,+1.00,+1.00,+7.00,+0.00,-1.00
+109.00,+29.00,+16.00,+4.00,-1.00,+4.00,+26.00,+69.00,+6.00,+4.00,-2.00,-2.00,+2.00,-6.00,+1.00,+6.00
-53.00,-20.00,-10.00,-3.00,+0.00,+2.00,-28.00,-61.00,+10.00,+8.00,+4.00,+0.00,-4.00,-9.00,-13.00,+5.00
-51.00,-37.00,-20.00,-6.00,-7.00,-61.00,-33.00,-55.00,-35.00,-7.00,+0.00,+1.00,+10.00,+18.00,+38.00,+0.00
-29.00,-2.00,+0.00,-4.00,+0.00,+35.00,+31.00,+31.00,+0.00,-4.00,-2.00,-4.00,-17.00,+1.00,+7.00,+3.00
+21.00,+0.00,+5.00,+4.00,-1.00,-8.00,+4.00,+10.00,+18.00,+3.00,+1.00,+0.00,+24.00,+30.00,-11.00,-3.00
+25.00,+11.00,+1.00,-1.00,+0.00,+14.00,+10.00,+33.00,+15.00,+17.00,+9.00,+1.00,-25.00,-40.00,-35.00,-8.00
-33.00,-22.00,-10.00,+0.00,-7.00,-7.00,-29.00,-110.00,+30.00,+15.00,+7.00,+4.00,+6.00,-1.00,+68.00,+52.00
+19.00,-2.00,+0.00,+3.00,+3.00,-14.00,-2.00,+46.00,-23.00,-6.00,-2.00,-4.00,-1.00,-8.00,-16.00,-14.00
-55.00,-19.00,-9.00,-4.00,-1.00,+1.00,-6.00,-33.00,-10.00,-13.00,+19.00,-2.00,-3.00,-9.00,+15.00,+9.00
+4.00,-3.00,-1.00,+1.00,-4.00,-15.00,-6.00,+8.00,+15.00,+2.00,+22.00,-4.00,+3.00,+25.00,+2.00,+7.00
+21.00,+10.00,+2.00,-7.00,+2.00,+6.00,+2.00,+7.00,+6.00,+0.00,+11.00,+0.00,-2.00,-8.00,-32.00,-17.00
+5.00,-5.00,+0.00,+0.00,-4.00,-3.00,-14.00,-27.00,+0.00,+5.00,-8.00,+0.00,+3.00,-5.00,+3.00,+3.00
-56.00,-22.00,-7.00,+3.00,+7.00,-1.00,-1.00,-51.00,+21.00,+10.00,-13.00,+3.00,-2.00,+20.00,+42.00,+32.00
+0.00,+16.00,+1.00,-8.00,-5.00,-2.00,+4.00,+24.00,-17.00,-12.00,-25.00,+0.00,+4.00,-1.00,-9.00,-10.00
+42.00,+23.00,+15.00,+2.00,+4.00,+6.00,+23.00,+83.00,-2.00,-2.00,-13.00,-2.00,-5.00,-14.00,-12.00,-3.00
+15.00,+0.00,+3.00,+0.00,-1.00,-1.00,+5.00,+5.00,+12.00,+9.00,-1.00,+3.00,+5.00,+6.00,+2.00,+5.00
-58.00,-39.00,-23.00,-5.00,-4.00,-17.00,-29.00,-97.00,-11.00,-7.00,-19.00,-8.00,-10.00,-9.00,-4.00,-6.00
-30.00,-2.00,+0.00,-1.00,-2.00,+8.00,+8.00,+9.00,-28.00,-17.00,-7.00,+2.00,+1.00,+17.00,+56.00,+22.00
+34.00,+14.00,+5.00,+1.00,-3.00,-20.00,-8.00,+19.00,-2.00,-7.00,-9.00,-7.00,-4.00,-10.00,-19.00,-11.00
-2.00,+0.00,-3.00,+0.00,+7.00,+54.00,-1.00,-4.00,-7.00,-2.00,+3.00,+2.00,+4.00,-6.00,-28.00,-11.00
-39.00,-19.00,-9.00,-3.00,-5.00,-3.00,-16.00,-49.00,+12.00,+1.00,-1.00,-1.00,+0.00,+2.00,+30.00,+31.00
+1.00,-11.00,+0.00,+9.00,+8.00,+1.00,+2.00,+25.00,+7.00,+4.00,+0.00,+0.00,+19.00,+21.00,+6.00,+4.00
+33.00,+12.00,+7.00,+2.00,+6.00,+18.00,+24.00,+36.00,-12.00,-8.00,-3.00,-5.00,-35.00,-10.00,-13.00,-14.00
-47.00,-14.00,-10.00,-3.00,-6.00,-13.00,-5.00,-24.00,-9.00,-9.00,-6.00,-6.00,-3.00,-10.00,-17.00,-13.00
+41.00,+10.00,+3.00,+4.00,+6.00,-2.00,-12.00,+15.00,-4.00,+5.00,+0.00,-5.00,-3.00,-15.00,-29.00,-24.00
+55.00,+20.00,+16.00,+6.00,+6.00,+11.00,+14.00,+95.00,+20.00,+5.00,-2.00,-2.00,+6.00,+8.00,+15.00,+19.00
+13.00,+5.00,+3.00,+1.00,+1.00,+16.00,+13.00,+17.00,-4.00,+3.00,+1.00,+1.00,+5.00,+8.00,-2.00,+4.00
-26.00,-18.00,-8.00,+1.00,+0.00,-14.00,-12.00,-42.00,-2.00,-8.00,-1.00,-4.00,-3.00,-20.00,-38.00,-19.00
-18.00,-2.00,-3.00,+1.00,+2.00,+11.00,+9.00,+23.00,-19.00,-8.00,-2.00,-4.00,-1.00,+7.00,+15.00,-5.00
+5.00,+2.00,-2.00,-4.00,-1.00,-10.00,-4.00,+13.00,-3.00,-2.00,-3.00,-3.00,-15.00,-10.00,-20.00,-15.00
-6.00,-8.00,-4.00,+0.00,-2.00,+5.00,-7.00,-5.00,+25.00,+4.00,+2.00,-1.00,+4.00,-6.00,-24.00,-5.00
-9.00,-4.00,-2.00,+0.00,-4.00,-16.00,+11.00,-7.00,+9.00,+7.00,+1.00,-3.00,+2.00,+6.00,+24.00,+15.00
-32.00,-13.00,-8.00,-7.00,-5.00,+0.00,-11.00,-29.00,-15.00,-4.00,+1.00,+4.00,-2.00,+1.00,-5.00,-11.00
+32.00,+23.00,+8.00,-6.00,-2.00,-2.00,+11.00,+46.00,+9.00,+4.00,-3.00,-2.00,-7.00,+3.00,-5.00,+4.00
-5.00,+3.00,+1.00,+1.00,-3.00,+3.00,-2.00,-3.00,-9.00,-6.00,+2.00,+3.00,+5.00,-16.00,+6.00,+2.00
-4.00,-7.00,-4.00,-1.00,-2.00,-12.00,-12.00,-17.00,-6.00,-9.00,-5.00,-5.00,-4.00,-7.00,-32.00,-18.00
-16.00,+2.00,-1.00,-9.00,-10.00,-16.00,+2.00,+37.00,+5.00,+3.00,+4.00,+4.00,+5.00,+22.00,+70.00,+47.00
+35.00,-15.00,-7.00,+9.00,+16.00,+3.00,-17.00,-87.00,+6.00,+3.00,+1.00,-3.00,-1.00,-6.00,-3.00,-8.00
-32.00,-23.00,-10.00,-3.00,-1.00,+3.00,-7.00,-35.00,+16.00,+5.00,-1.00,-1.00,-1.00,+1.00,-29.00,-6.00
-14.00,+6.00,+2.00,-8.00,-6.00,-31.00,-18.00,+40.00,-9.00,+4.00,+3.00,+4.00,-1.00,-8.00,+19.00,-3.00
+16.00,+17.00,+7.00,+2.00,+5.00,+12.00,+7.00,+29.00,+7.00,-2.00,-5.00,-8.00,-3.00,-15.00,-5.00,+2.00
-4.00,-9.00,-1.00,+0.00,-5.00,-1.00,+0.00,-20.00,-13.00,-6.00,+4.00,+2.00,+0.00,-20.00,-48.00,-27.00
-9.00,-5.00,-3.00,-1.00,+10.00,+9.00,-14.00,-20.00,-11.00,-3.00,-3.00,-1.00,+0.00,+29.00,+46.00,+22.00
+13.00,-10.00,+3.00,+7.00,-7.00,-5.00,+10.00,+11.00,+0.00,-11.00,+0.00,+1.00,+4.00,+8.00,+19.00,+5.00
-6.00,+16.00,+2.00,-1.00,-4.00,-9.00,-9.00,+23.00,-10.00,-1.00,+11.00,+0.00,-7.00,-25.00,-31.00,-26.00
-7.00,-2.00,-5.00,-4.00,-7.00,+7.00,+10.00,-11.00,-13.00,-6.00,+7.00,+1.00,-6.00,-2.00,-23.00,-20.00
-1.00,+3.00,+8.00,+3.00,+4.00,-9.00,+2.00,+9.00,+9.00,-3.00,-8.00,-7.00,+4.00,-9.00,+1.00,+4.00
+30.00,+6.00,-3.00,-4.00,+1.00,-2.00,+0.00,+2.00,-13.00,+7.00,-4.00,+0.00,+3.00,-1.00,-19.00,-25.00
-12.00,+0.00,+2.00,-1.00,-1.00,-1.00,+2.00,+5.00,+15.00,+9.00,-5.00,+3.00,-20.00,-4.00,+15.00,+14.00
+17.00,+11.00,+5.00,+1.00,-5.00,-32.00,-8.00,+16.00,-4.00,-4.00,-13.00,-3.00,+3.00,+8.00,+11.00,+1.00
-31.00,-8.00,-10.00,-5.00,-3.00,+18.00,+3.00,-18.00,-18.00,-11.00,-7.00,+0.00,+0.00,-6.00,-16.00,-16.00
+5.00,+1.00,-1.00,-1.00,+1.00,-5.00,-6.00,-13.00,+0.00,-2.00,-3.00,-1.00,-5.00,-1.00,+1.00,-2.00
+18.00,+1.00,-4.00,-5.00,-4.00,+8.00,+7.00,-12.00,+7.00,+6.00,+0.00,+1.00,+6.00,+12.00,-10.00,-6.00
+13.00,+23.00,+10.00,-5.00,+3.00,-3.00,+12.00,+46.00,-7.00,-2.00,-4.00,-3.00,+0.00,-11.00,+0.00,-5.00
-1.00,+3.00,+1.00,+1.00,-1.00,-2.00,-1.00,-4.00,-5.00,-1.00,-1.00,+1.00,+1.00,+1.00,-3.00,-4.00
+12.00,+3.00,-2.00,-1.00,+2.00,-2.00,-2.00,-14.00,+5.00,-5.00,+2.00,+3.00,-13.00,-12.00,-10.00,+7.00
-1.00,+0.00,-1.00,+2.00,+0.00,+8.00,-6.00,-4.00,-4.00,-5.00,-5.00,-1.00,+6.00,+0.00,-22.00,-21.00
+37.00,-4.00,+1.00,+3.00,-4.00,+0.00,+5.00,-18.00,+8.00,+5.00,+0.00,-1.00,-1.00,+10.00,+21.00,+13.00
-21.00,-22.00,-11.00,-1.00,-3.00,-10.00,-7.00,-33.00,-24.00,-13.00,-7.00,-2.00,+1.00,-21.00,-24.00,-14.00
+10.00,+8.00,+2.00,-1.00,-3.00,+15.00,+8.00,+30.00,+5.00,+3.00,+1.00,-1.00,-1.00,+14.00,+30.00,+12.00
-12.00,+0.00,-2.00,-9.00,-6.00,-12.00,+7.00,+13.00,+3.00,-2.00,-4.00,-6.00,-6.00,-12.00,-26.00,-14.00
-81.00,-25.00,-12.00,-4.00,-8.00,-5.00,-27.00,-53.00,+3.00,+2.00,+4.00,-3.00,+0.00,+10.00,+19.00,+9.00
+66.00,+19.00,+8.00,-2.00,-6.00,-42.00,+15.00,+45.00,+4.00,+7.00,+31.00,+4.00,-5.00,-15.00,+1.00,-2.00
-40.00,-20.00,-8.00,-1.00,-1.00,-14.00,-15.00,-84.00,+7.00,+2.00,+42.00,-4.00,+9.00,-7.00,-20.00,-7.00
+42.00,+4.00,+3.00,+5.00,+6.00,+12.00,+3.00,+18.00,-21.00,-7.00,+106.00,+3.00,-14.00,+11.00,+34.00,+19.00
-49.00,-7.00,-5.00,+0.00,+3.00,+15.00,-28.00,-49.00,+21.00,+5.00,+105.00,-1.00,+2.00,-3.00,+33.00,+21.00
-1.00,+3.00,-4.00,-5.00,-12.00,-9.00,+3.00,-2.00,-4.00,-2.00,+89.00,-3.00,-3.00,-12.00,-31.00,-21.00
+18.00,+4.00,+3.00,+2.00,-1.00,-6.00,+1.00,+15.00,-15.00,-5.00,+52.00,+0.00,-1.00,-1.00,+14.00,+6.00
+2.00,-15.00,-1.00,-3.00,+0.00,-1.00,+1.00,-14.00,+5.00,+5.00,-6.00,-4.00,+1.00,+1.00,-19.00,-15.00
+30.00,+27.00,+13.00,+2.00,+2.00,+0.00,+20.00,+84.00,-24.00,-5.00,-56.00,+3.00,+3.00,+2.00,-22.00,-28.00
-16.00,-8.00,-4.00,-1.00,+0.00,+11.00,-11.00,-20.00,+19.00,+5.00,-107.00,-2.00,-7.00,+11.00,+20.00,+18.00
-20.00,+6.00,+4.00,+3.00,+5.00,+5.00,+8.00,-5.00,+2.00,-5.00,-113.00,-2.00,-2.00,-17.00,-15.00,-6.00
+69.00,+23.00,+2.00,-1.00,-5.00,-7.00,-19.00,+22.00,-19.00,-12.00,-89.00,-3.00,+5.00,+6.00,-6.00,-10.00
-17.00,-15.00,-7.00,-2.00,+0.00,-5.00,+22.00,-22.00,-4.00,+1.00,-72.00,+2.00,-2.00,-10.00,-15.00,-5.00
-17.00,-1.00,-1.00,-1.00,-1.00,+13.00,+2.00,-4.00,+14.00,+7.00,+21.00,-4.00,+4.00,-2.00,-20.00,-14.00
+6.00,-3.00,-2.00,+0.00,+2.00,+2.00,+7.00,+14.00,-27.00,-4.00,+13.00,-2.00,-8.00,+17.00,+20.00,-1.00
-10.00,+0.00,+2.00,+2.00,+2.00,-10.00,-4.00,+5.00,+6.00,+4.00,-18.00,+3.00,+3.00,-11.00,-19.00,-12.00
-57.00,-34.00,-20.00,-11.00,-4.00,-7.00,-17.00,-49.00,-19.00,-15.00,+1.00,-4.00,-4.00,-11.00,-7.00,-5.00
+45.00,+18.00,+10.00,+3.00,+3.00,+7.00,+10.00,+57.00,+7.00,+8.00,+19.00,+0.00,+1.00,+4.00,+5.00,+3.00
-9.00,-7.00,-2.00,-1.00,-2.00,+2.00,-1.00,+8.00,+14.00,+3.00,+19.00,-2.00,-2.00,+4.00,-12.00,+4.00
-11.00,-1.00,-2.00,+4.00,+4.00,+35.00,+3.00,-33.00,+3.00,-3.00,+12.00,-4.00,-3.00,-11.00,-16.00,-7.00
+18.00,+5.00,+0.00,-4.00,-6.00,+10.00,+11.00,-19.00,-2.00,-2.00,+15.00,-3.00,+7.00,+9.00,+22.00,+18.00
-14.00,-10.00,-1.00,-1.00,+4.00,+6.00,+8.00,+22.00,-11.00,-6.00,-33.00,-2.00,-7.00,+7.00,+2.00,-4.00
-18.00,-6.00,-1.00,-1.00,+1.00,+16.00,-7.00,-29.00,+5.00,+7.00,-10.00,+0.00,+6.00,+10.00,-1.00,-6.00
+24.00,+1.00,+0.00,+1.00,-2.00,-20.00,-30.00,-19.00,+2.00,-3.00,-57.00,-4.00,-21.00,-22.00,+5.00,+12.00
-13.00,-1.00,-1.00,+0.00,+4.00,+23.00,+13.00,+30.00,-11.00,-4.00,-27.00,+1.00,+4.00,+3.00,-6.00,-12.00
+50.00,+19.00,+8.00,+1.00,+3.00,+8.00,+0.00,+4.00,-7.00,-2.00,+45.00,+2.00,+3.00,+19.00,+25.00,+26.00
+26.00,+5.00,+5.00,-1.00,+0.00,-11.00,+8.00,+21.00,-4.00,+4.00,+46.00,+2.00,+4.00,-26.00,-12.00,-14.00
-24.00,+2.00,+0.00,-4.00,-5.00,-8.00,-3.00,+0.00,+10.00,+1.00,+39.00,-1.00,+0.00,-11.00,-19.00,-2.00
-42.00,-17.00,-7.00,+0.00,-3.00,-1.00,-12.00,-31.00,-14.00,-13.00,+14.00,+0.00,+0.00,+27.00,+59.00,+37.00
-41.00,-13.00,-6.00,-1.00,+0.00,-22.00,-3.00,-16.00,-6.00,-5.00,-42.00,-1.00,+0.00,-5.00,+2.00,+2.00
+22.00,+12.00,+3.00,-2.00,+8.00,+52.00,+4.00,+27.00,+4.00,-2.00,-85.00,-2.00,-3.00,+1.00,-17.00,-6.00
+3.00,-7.00,-1.00,+1.00,-6.00,-28.00,+28.00,-7.00,+20.00,+12.00,-42.00,+1.00,+7.00,+19.00,+26.00,+25.00
+5.00,+1.00,-1.00,-2.00,-1.00,+3.00,-12.00,-12.00,+17.00,+3.00,-24.00,+0.00,+7.00,-3.00,-1.00,+9.00
-15.00,-2.00,-4.00,-2.00,-4.00,+6.00,-1.00,+12.00,-11.00,-4.00,-38.00,-4.00,-7.00,+16.00,+13.00,-1.00
+16.00,+9.00,+3.00,-3.00,-4.00,-10.00,+1.00,+12.00,-10.00,-6.00,-24.00,+1.00,+1.00,-6.00,+9.00,+6.00
-51.00,-15.00,-10.00,-5.00,-1.00,-13.00,+3.00,-6.00,-19.00,-17.00,-25.00,-3.00,+1.00,-5.00,-6.00,-10.00
-18.00,-3.00,+0.00,+1.00,+0.00,-5.00,-5.00,-26.00,+13.00,+12.00,-12.00,+1.00,-1.00,-10.00,-21.00,-8.00
+4.00,-4.00,-2.00,-1.00,-1.00,-2.00,+1.00,-19.00,+3.00,+0.00,-8.00,+2.00,+3.00,+15.00,+9.00,+1.00
+30.00,+1.00,-2.00,-1.00,-2.00,-17.00,-4.00,-1.00,+19.00,+6.00,+11.00,-2.00,+6.00,-9.00,+7.00,+13.00
-20.00,-21.00,-11.00,-1.00,+1.00,+0.00,-4.00,-11.00,-7.00,+3.00,+25.00,-1.00,+4.00,+11.00,+21.00,+1.00
+47.00,+17.00,+9.00,+3.00,+2.00,-11.00,-1.00,+74.00,-9.00,-3.00,+12.00,+1.00,-3.00,-4.00,-9.00,-15.00
+0.00,+5.00,+2.00,+1.00,+2.00,+11.00,+3.00,-13.00,+2.00,-2.00,+46.00,-1.00,-2.00,-17.00,-25.00,-9.00
-25.00,-3.00,-2.00,-2.00,+0.00,+7.00,-9.00,-17.00,+10.00,-1.00,+34.00,-6.00,-8.00,+2.00,-7.00,+3.00
+5.00,-11.00,-2.00,+2.00,+3.00,-9.00,+6.00,-16.00,-2.00,-3.00,+17.00,-3.00,+5.00,+7.00,+15.00,+15.00
+15.00,+2.00,-2.00,-1.00,-3.00,-3.00,-22.00,-12.00,+20.00,+4.00,+3.00,-4.00,-4.00,+7.00,+16.00,+21.00
-8.00,+1.00,+2.00,+1.00,+1.00,-7.00,+7.00,+6.00,-10.00,-6.00,-33.00,-1.00,+3.00,-3.00,-9.00,-10.00
-13.00,-7.00,-7.00,+0.00,-1.00,-4.00,-1.00,-18.00,-23.00,-7.00,-25.00,-1.00,+0.00,-7.00,-13.00,-15.00
-15.00,+24.00,+12.00,-3.00,+1.00,-2.00,+7.00,+75.00,-6.00,-5.00,-11.00,-2.00,-5.00,+3.00,-23.00,-17.00
+80.00,+32.00,+18.00,+9.00,+12.00,+24.00,+18.00,+58.00,-31.00,-8.00,+15.00,-1.00,-9.00,-15.00,-19.00,-17.00
+3.00,+3.00,-1.00,-3.00,-4.00,-1.00,-20.00,-7.00,+18.00,+2.00,+16.00,-4.00,+7.00,-11.00,-27.00,-7.00
-7.00,-11.00,-5.00,-2.00,-7.00,-4.00,-9.00,-23.00,+5.00,+3.00,+22.00,+3.00,-4.00,+10.00,+19.00,+14.00
-18.00,-9.00,-2.00,+0.00,+0.00,+21.00,+18.00,-10.00,+7.00,-3.00,+6.00,-4.00,-4.00,+5.00,+31.00,+15.00
-30.00,-3.00,-5.00,-5.00,-7.00,-11.00,+0.00,-26.00,+6.00,+1.00,-6.00,-3.00,-1.00,-7.00,-19.00,-10.00
+21.00,+6.00,+5.00,+5.00,+2.00,+6.00,-8.00,+19.00,-26.00,-13.00,+56.00,-2.00,-9.00,-13.00,-5.00,-9.00
-18.00,-12.00,-7.00,-3.00,+3.00,-15.00,+3.00,-41.00,+19.00,+0.00,+78.00,-1.00,+3.00,+4.00,+7.00,+7.00
-12.00,-2.00,+0.00,+2.00,-8.00,+6.00,-5.00,-25.00,-43.00,-11.00,+74.00,+0.00,+7.00,+1.00,-7.00,-20.00
-9.00,+9.00,+2.00,-9.00,-7.00,+2.00,+18.00,+82.00,+4.00,+0.00,+52.00,-2.00,-5.00,-2.00,-3.00,-3.00
+21.00,-2.00,+0.00,+0.00,+2.00,-25.00,+3.00,+7.00,-2.00,-6.00,+6.00,-5.00,+0.00,-7.00,-15.00,-14.00
+13.00,+6.00,+3.00,+1.00,+0.00,-3.00,-1.00,+10.00,+14.00,+9.00,+3.00,+2.00,-7.00,-3.00,-29.00,-12.00
+2.00,+2.00,+2.00,+2.00,+2.00,+0.00,-11.00,+3.00,+7.00,-1.00,-25.00,+0.00,-1.00,-9.00,+23.00,+10.00
-1.00,-11.00,-8.00,+0.00,-1.00,-14.00,+4.00,-43.00,-12.00,-6.00,-82.00,-2.00,-1.00,-4.00,-1.00,-9.00
-84.00,-41.00,-18.00,-5.00,-3.00,+9.00,-10.00,-100.00,+3.00,+4.00,-79.00,+0.00,+0.00,+5.00,+5.00,-1.00
+45.00,+28.00,+12.00,-4.00,-3.00,-10.00,+16.00,+109.00,-29.00,-7.00,-83.00,-3.00,-5.00,+16.00,+5.00,-4.00
+15.00,+6.00,+3.00,+3.00,+6.00,+8.00,+0.00,+6.00,+31.00,+13.00,-40.00,+3.00,+5.00,-17.00,-28.00,-3.00
-28.00,-18.00,-12.00,-5.00,-9.00,-22.00,-17.00,-51.00,-10.00,-6.00,-41.00,+0.00,+1.00,+0.00,-6.00,-5.00
-38.00,-25.00,-14.00,-1.00,+10.00,+35.00,-4.00,-55.00,-8.00,-6.00,-46.00,+1.00,+3.00,+8.00,+28.00,+11.00
-33.00,-11.00,-4.00,-2.00,-2.00,-12.00,-1.00,-9.00,-3.00,-4.00,-37.00,-6.00,-3.00,+6.00,+6.00,-1.00
+65.00,+20.00,+11.00,+5.00,+3.00,+5.00,+7.00,+23.00,+6.00,+6.00,-15.00,+3.00,+2.00,-1.00,-31.00,-17.00
-7.00,-7.00,-4.00,+0.00,-1.00,-6.00,-2.00,-24.00,+25.00,+12.00,+63.00,+0.00,-5.00,-9.00,+20.00,+28.00
+10.00,-1.00,-2.00,-4.00,-9.00,-9.00,-14.00,-3.00,-38.00,-12.00,+88.00,-1.00,+7.00,+17.00,+31.00,-5.00
-30.00,-8.00,-4.00,+3.00,+9.00,-6.00,+4.00,-42.00,+8.00,-2.00,+85.00,-6.00,-5.00,+1.00,+9.00,+6.00
+15.00,+12.00,+5.00,+0.00,+4.00,+5.00,-1.00,+34.00,-22.00,-8.00,+63.00,-3.00,-2.00,-6.00,-21.00,-20.00
-11.00,-7.00,-2.00,+2.00,+1.00,-4.00,-3.00,-14.00,+3.00,+3.00,+36.00,+0.00,-5.00,-3.00,-43.00,-21.00
+13.00,+6.00,+0.00,-2.00,-3.00,-9.00,+2.00,+30.00,+18.00,+12.00,+11.00,+1.00,+3.00,-20.00,-1.00,+8.00
-14.00,-4.00,-5.00,-6.00,-6.00,+2.00,-10.00,-12.00,+0.00,-2.00,-13.00,-3.00,+2.00,-7.00,+25.00,+14.00
-33.00,-21.00,-12.00,-9.00,-9.00,-14.00,-21.00,-77.00,-1.00,+1.00,-18.00,-1.00,-6.00,-9.00,-4.00,-6.00
+24.00,-1.00,+2.00,+2.00,+3.00,+7.00,+9.00,-2.00,+0.00,-6.00,-17.00,-4.00,+5.00,+1.00,-9.00,-10.00
+6.00,+11.00,+6.00,+0.00,-2.00,-7.00,+13.00,+14.00,-7.00,+1.00,-13.00,+0.00,-4.00,-2.00,-12.00,-1.00
+19.00,-2.00,-1.00,-1.00,-2.00,+8.00,+4.00,+25.00,-1.00,+0.00,-50.00,+1.00,+8.00,+14.00,+17.00,+5.00
-24.00,-2.00,-4.00,-3.00,-1.00,+1.00,+0.00,-14.00,+3.00,+2.00,-71.00,+1.00,-2.00,+12.00,+9.00,+9.00
-22.00,-9.00,-6.00,-1.00,+3.00,-1.00,-22.00,+0.00,-7.00,-3.00,-65.00,+3.00,+2.00,-5.00,-2.00,-8.00
+39.00,+20.00,+7.00,-3.00,-5.00,+4.00,+17.00,+41.00,+7.00,+4.00,-62.00,-3.00,-10.00,-2.00,-15.00,-8.00
-3.00,+0.00,+3.00,+4.00,+7.00,+23.00,-4.00,-9.00,+2.00,-6.00,-39.00,+0.00,+0.00,-2.00,+7.00,+10.00
-19.00,-10.00,-6.00,-2.00,-1.00,-4.00,+10.00,+30.00,-14.00,-5.00,-15.00,+0.00,-1.00,-1.00,-4.00,-10.00
+26.00,+11.00,+3.00,+2.00,+2.00,+3.00,-6.00,+16.00,+2.00,-2.00,-5.00,-3.00,-1.00,-4.00,+4.00,+5.00
-4.00,+7.00,+4.00,-1.00,+2.00,+5.00,+2.00,+36.00,+22.00,+6.00,+1.00,+1.00,-9.00,+9.00,-8.00,+4.00
+32.00,+10.00,+4.00,+1.00,-1.00,-8.00,+10.00,+27.00,-12.00,-9.00,+1.00,-3.00,+1.00,-5.00,+8.00,+0.00
-13.00,-3.00,+1.00,+2.00,+0.00,+5.00,-1.00,-3.00,+17.00,+3.00,+13.00,-1.00,-4.00,-8.00,-12.00,-4.00
-54.00,-22.00,-9.00,-4.00,-5.00,-4.00,-13.00,-59.00,-6.00,-5.00,+11.00,-5.00,-6.00,+1.00,+7.00,+1.00
+22.00,-1.00,-2.00,+2.00,+0.00,-8.00,+1.00,+0.00,+11.00,+1.00,+8.00,+1.00,+7.00,-7.00,+22.00,+24.00
-2.00,-4.00,-3.00,+0.00,-3.00,+14.00,+2.00,-2.00,+3.00,+0.00,+17.00,+1.00,-4.00,-3.00,-25.00,-7.00
+2.00,+6.00,+3.00,-3.00,+2.00,-4.00,+18.00,+33.00,-20.00,-1.00,+23.00,+1.00,+1.00,+9.00,+35.00,+3.00
-29.00,-13.00,-5.00,+0.00,-1.00,-13.00,-27.00,-31.00,+1.00,+3.00,+19.00,+3.00,+4.00,+5.00,+2.00,+3.00
-14.00,-5.00,-1.00,+0.00,+2.00,-3.00,+8.00,-4.00,-2.00,-4.00,+0.00,-2.00,-6.00,-6.00,-18.00,-11.00
+24.00,+12.00,+5.00,+2.00,-6.00,-12.00,-1.00,+10.00,+2.00,+1.00,+10.00,+0.00,+5.00,+9.00,+12.00,+2.00
-6.00,-5.00,-4.00,-2.00,-3.00,+1.00,-2.00,-13.00,+13.00,+2.00,+10.00,+0.00,+4.00,+1.00,-1.00,+7.00
+21.00,+8.00,+0.00,-3.00,-2.00,+9.00,+11.00,+14.00,-28.00,-3.00,+5.00,-2.00,-1.00,-5.00,-27.00,-30.00
-11.00,-2.00,+0.00,+2.00,-1.00,-7.00,-14.00,-8.00,-7.00,-3.00,-1.00,-2.00,+0.00,+6.00,+17.00,+2.00
-12.00,-10.00,-6.00,-2.00,+0.00,-9.00,-17.00,-21.00,+6.00,+4.00,+9.00,+1.00,-4.00,-23.00,-26.00,-9.00
+25.00,+9.00,+3.00,+1.00,-1.00,+0.00,+1.00,-1.00,+2.00,-7.00,-1.00,-5.00,-1.00,+6.00,+1.00,+2.00
+5.00,+4.00,+1.00,-2.00,-1.00,-2.00,+10.00,+18.00,+24.00,+8.00,+13.00,-1.00,-3.00,+3.00,+15.00,+18.00
+33.00,+8.00,+7.00,+1.00,-2.00,-11.00,-5.00,+23.00,-9.00,-2.00,+50.00,-2.00,+0.00,-7.00,-11.00,-12.00
-6.00,-13.00,-8.00,-1.00,-2.00,+53.00,+7.00,-42.00,-5.00,-1.00,+90.00,-1.00,-3.00,+7.00,-24.00,-19.00
+34.00,+14.00,+7.00,+1.00,+4.00,-12.00,-3.00,+54.00,-2.00,-3.00,+16.00,+1.00,+2.00,-4.00,+15.00,+13.00
-6.00,+0.00,-2.00,+0.00,-1.00,+1.00,+4.00,-5.00,+0.00,+3.00,-12.00,+1.00,+10.00,+6.00,+3.00,+3.00
-8.00,+14.00,+2.00,-5.00,-4.00,-1.00,+4.00,+29.00,-12.00,-12.00,-55.00,-9.00,-29.00,-11.00,-13.00,-13.00
-19.00,-5.00,-1.00,-1.00,-4.00,-24.00,-3.00,+19.00,+7.00,+4.00,-39.00,+0.00,+2.00,+10.00,+21.00,+17.00
+6.00,+1.00,+1.00,+2.00,+0.00,+2.00,-5.00,-25.00,+3.00,-1.00,+2.00,+0.00,-7.00,-13.00,-26.00,-5.00
+1.00,-5.00,+2.00,+1.00,+0.00,+9.00,+7.00,+10.00,-3.00,-11.00,-3.00,-1.00,-2.00,+0.00,+5.00,+2.00
-18.00,-14.00,-4.00,-2.00,-3.00,-10.00,-8.00,-14.00,+3.00,+5.00,-8.00,-1.00,+7.00,+8.00,+18.00,+13.00
+3.00,+3.00,+1.00,-4.00,-3.00,+1.00,-9.00,-19.00,-13.00,-1.00,-21.00,+1.00,-2.00,+0.00,-1.00,-4.00
+8.00,+1.00,-1.00,-3.00,-3.00,+6.00,+9.00,+10.00,+0.00,-1.00,-12.00,+0.00,+0.00,-6.00,-16.00,-9.00
-9.00,+1.00,-1.00,-2.00,-4.00,-16.00,+1.00,-2.00,+14.00,+7.00,+61.00,+2.00,-1.00,+12.00,-3.00,+3.00
-3.00,-9.00,-8.00,-4.00,-1.00,+8.00,-7.00,-34.00,-11.00,-4.00,+90.00,+1.00,+4.00,-9.00,+23.00,+7.00
-10.00,+0.00,-2.00,-1.00,+1.00,-12.00,-7.00,+0.00,-4.00,-6.00,+9.00,-2.00,-5.00,-5.00,-4.00,-3.00
-5.00,-6.00,-5.00,-1.00,-3.00,+2.00,-5.00,-14.00,+1.00,+4.00,-30.00,+2.00,+6.00,+9.00,+11.00,+5.00
+5.00,+0.00,+0.00,-3.00,+0.00,-1.00,-2.00,-10.00,-1.00,-7.00,-62.00,-6.00,-4.00,+5.00,-21.00,-13.00
-20.00,-5.00,-3.00,-1.00,-3.00,+6.00,+9.00,-6.00,+19.00,+6.00,-55.00,+1.00,+7.00,-20.00,+5.00,+7.00
+40.00,+5.00,-1.00,-1.00,-2.00,-14.00,-3.00,-8.00,+1.00,+1.00,-26.00,-1.00,-3.00,-1.00,+6.00,+0.00
-14.00,+2.00,+0.00,+0.00,-2.00,-12.00,+0.00,+6.00,-1.00,-4.00,+64.00,-1.00,+1.00,-3.00,-10.00,-7.00
-7.00,-8.00,-2.00,+3.00,+8.00,+41.00,+10.00,+1.00,-17.00,+2.00,+80.00,+1.00,-1.00,-3.00,+4.00,-5.00
+48.00,+8.00,+4.00,-1.00,-2.00,+6.00,+5.00,+30.00,+5.00,-8.00,+69.00,+0.00,-2.00,+0.00,-17.00,-6.00
-17.00,-1.00,-4.00,-1.00,-2.00,-7.00,-3.00,-5.00,+35.00,+9.00,+33.00,-3.00,+3.00,+5.00,+4.00,+12.00
-8.00,-1.00,+1.00,-3.00,-2.00,+0.00,-4.00,-18.00,-11.00,+4.00,-22.00,-2.00,-8.00,-4.00,-9.00,-8.00
-17.00,-3.00,-2.00,+0.00,+2.00,+3.00,-7.00,-19.00,-13.00,-3.00,-7.00,-4.00,-7.00,-9.00,+18.00,+4.00
-7.00,-2.00,-1.00,+2.00,+2.00,+6.00,+14.00,+0.00,-2.00,-3.00,-79.00,-1.00,+0.00,+2.00,-7.00,-2.00
-11.00,-5.00,+1.00,+2.00,+2.00,-1.00,-6.00,+1.00,-10.00,-10.00,-75.00,-3.00,+0.00,-6.00,-10.00,-7.00
+18.00,+1.00,-2.00,+0.00,+1.00,-4.00,+4.00,+13.00,+23.00,+7.00,+5.00,-2.00,-4.00,+3.00,-9.00,+8.00
+5.00,+0.00,+1.00,-1.00,-4.00,-7.00,-4.00,+9.00,-14.00,-7.00,-19.00,+1.00,-1.00,-3.00,-1.00,-8.00
-26.00,-11.00,-5.00,-3.00,-1.00,+3.00,-14.00,-30.00,-6.00,+0.00,-13.00,+1.00,+2.00,+11.00,-12.00,-8.00
+26.00,+9.00,+1.00,+0.00,+1.00,-9.00,+10.00,+5.00,-2.00,+0.00,-5.00,+1.00,-1.00,-3.00,+4.00,-3.00
+1.00,+0.00,-1.00,-2.00,-2.00,-8.00,-1.00,+1.00,+10.00,+2.00,+10.00,-1.00,+2.00,+3.00,+5.00,+5.00
+10.00,-4.00,-5.00,-3.00,-1.00,+8.00,-4.00,-1.00,-6.00,+0.00,-45.00,-2.00,-4.00,-14.00,-6.00,+0.00
-16.00,-2.00,-1.00,+1.00,+0.00,+2.00,-6.00,-6.00,+17.00,+7.00,-26.00,+1.00,+1.00,+10.00,+5.00,+6.00
-10.00,+2.00,+2.00,-1.00,-2.00,-5.00,+4.00,+6.00,-10.00,-2.00,-22.00,-1.00,+0.00,+7.00,-5.00,-11.00
-1.00,-3.00,+0.00,+1.00,+1.00,+12.00,-7.00,-14.00,-13.00,-11.00,+28.00,-4.00,-4.00,-4.00,+5.00,-5.00
+0.00,+0.00,+2.00,+2.00,+1.00,-1.00,+6.00,+6.00,+7.00,+7.00,+9.00,+2.00,+0.00,+2.00,-7.00,+0.00
-7.00,-5.00,-3.00,-3.00,-4.00,-8.00,-6.00,-9.00,-3.00,-1.00,+29.00,+0.00,+3.00,+3.00,+9.00,+7.00
+5.00,+5.00,+2.00,+0.00,+1.00,-1.00,+2.00,+13.00,-16.00,-8.00,+54.00,-2.00,-8.00,-3.00,+0.00,-3.00
-29.00,-13.00,-5.00,-3.00,-3.00,+1.00,-2.00,-11.00,+3.00,-2.00,+12.00,+1.00,-1.00,-3.00,+2.00,+2.00
+44.00,+15.00,+3.00,+1.00,-4.00,-8.00,+6.00,+13.00,+3.00,-4.00,-27.00,-3.00,-4.00,-5.00,-5.00,-4.00
-9.00,+1.00,+0.00,+1.00,+1.00,+8.00,+6.00,+10.00,-1.00,-2.00,-15.00,-3.00,+1.00,+2.00,-10.00,-10.00
-9.00,-3.00,-2.00,-2.00,-1.00,-6.00,+4.00,-5.00,+4.00,+7.00,-31.00,+2.00,+0.00,-4.00,+2.00,+1.00
-5.00,-6.00,-3.00,-2.00,-4.00,-3.00,-1.00,-12.00,+9.00,-1.00,-53.00,-3.00,-4.00,+5.00,+12.00,+10.00
-27.00,-4.00,+1.00,+0.00,-1.00,-10.00,-5.00,+2.00,-3.00,-9.00,-47.00,-3.00,-3.00,+1.00,+5.00,+2.00
+20.00,+4.00,-1.00,+0.00,-1.00,-6.00,-7.00,-4.00,-2.00,+0.00,-42.00,-2.00,-4.00,-2.00,+2.00,-2.00
+3.00,+0.00,+2.00,+3.00,+3.00,-2.00,+6.00,+4.00,+3.00,-2.00,-14.00,-1.00,-2.00,-6.00,-15.00,-8.00
-31.00,-7.00,+1.00,-1.00,-2.00,+1.00,+2.00,-10.00,-13.00,-5.00,-20.00,+0.00,+0.00,+6.00,-15.00,-12.00
+27.00,+1.00,-9.00,+2.00,+1.00,-5.00,-5.00,+2.00,-1.00,+3.00,+28.00,+1.00,+0.00,+9.00,+12.00,+6.00
+6.00,+3.00,+5.00,-1.00,-1.00,-1.00,+4.00,+1.00,+4.00,+0.00,+21.00,+1.00,+3.00,-17.00,+6.00,+7.00
-9.00,-3.00,-1.00,+1.00,-1.00,+1.00,-10.00,-5.00,+9.00,-3.00,+15.00,-3.00,-1.00,-5.00,+0.00,+8.00
-11.00,-3.00,+4.00,+4.00,+1.00,+0.00,+6.00,-6.00,-35.00,-7.00,-8.00,-2.00,-1.00,+0.00,-3.00,-16.00
-11.00,+6.00,+14.00,-3.00,-5.00,-5.00,+0.00,+22.00,+17.00,-1.00,+1.00,+3.00,+0.00,-2.00,-4.00,+0.00
+24.00,-11.00,-31.00,-10.00,-1.00,-5.00,-11.00,-15.00,-10.00,-5.00,+4.00,-5.00,-5.00,-5.00,-13.00,-7.00
-25.00,-12.00,-7.00,-4.00,+6.00,+5.00,-9.00,-9.00,+9.00,+4.00,+8.00,-1.00,-1.00,+2.00,+4.00,+4.00
+1.00,+1.00,-5.00,-4.00,-12.00,-5.00,-7.00,+2.00,+4.00,+2.00,-5.00,+2.00,+2.00,-2.00,+3.00,-4.00
+8.00,-1.00,+3.00,+3.00,-1.00,-1.00,-3.00,-4.00,+28.00,-1.00,+10.00,-10.00,-4.00,-3.00,-2.00,+1.00
-18.00,+3.00,+10.00,+3.00,-2.00,-2.00,-1.00,-12.00,+34.00,+7.00,+13.00,+6.00,+3.00,+11.00,+21.00,+15.00
-8.00,-3.00,-3.00,+1.00,-1.00,+0.00,+0.00,+11.00,+9.00,-5.00,+4.00,+4.00,-1.00,-1.00,-7.00,-10.00
+4.00,-1.00,+0.00,-3.00,+1.00,+6.00,+0.00,+5.00,+22.00,-4.00,+15.00,-10.00,-4.00,-10.00,-3.00,-1.00
+9.00,+2.00,+5.00,+0.00,+0.00,-7.00,-2.00,-6.00,+16.00,-4.00,+17.00,+1.00,-1.00,-3.00,-4.00,-7.00
+6.00,+3.00,+0.00,+1.00,+2.00,-2.00,-3.00,+0.00,+79.00,-2.00,+7.00,-9.00,-5.00,+1.00,-12.00,-11.00
-4.00,+1.00,+2.00,+5.00,-1.00,-2.00,-3.00,-5.00,+22.00,-2.00,+53.00,+4.00,+4.00,-2.00,+2.00,-5.00
-14.00,+4.00,+8.00,+12.00,+6.00,+0.00,+0.00,-9.00,+12.00,+4.00,+6.00,+7.00,+6.00,+17.00,+14.00,+7.00
-12.00,-4.00,-5.00,-18.00,-6.00,+2.00,+6.00,-6.00,-33.00,-1.00,-15.00,-6.00,-2.00,-6.00,+5.00,-2.00
+0.00,-4.00,-6.00,-3.00,+2.00,+4.00,+1.00,+12.00,-50.00,-5.00,-31.00,-1.00,+0.00,+2.00,-10.00,-6.00
+2.00,+3.00,-4.00,-4.00,-9.00,-9.00,-4.00,-1.00,-20.00,-2.00,-22.00,-1.00,+1.00,-7.00,-3.00,-8.00
-2.00,+1.00,+4.00,+6.00,+3.00,-1.00,-10.00,-1.00,-24.00,-5.00,-9.00,+1.00,-5.00,-11.00,-5.00,-12.00
-15.00,-3.00,+9.00,+4.00,-5.00,-3.00,+0.00,-9.00,-20.00,-3.00,-8.00,-3.00,-3.00,-4.00,-2.00,+9.00
-19.00,-3.00,+8.00,-2.00,+2.00,-4.00,+1.00,+4.00,-42.00,-6.00,-4.00,+2.00,+0.00,+7.00,-1.00,-3.00
-1.00,-6.00,-26.00,-12.00,-10.00,+0.00,-2.00,-1.00,-17.00,-7.00,-5.00,-6.00,-3.00,+1.00,+4.00,+2.00
-3.00,-12.00,-18.00,-9.00,-7.00,-3.00,+8.00,-3.00,-4.00,+2.00,+20.00,-3.00,+0.00,-5.00,-7.00,+1.00
+6.00,+4.00,-5.00,+8.00,+8.00,-1.00,-3.00,-10.00,+15.00,+8.00,+11.00,+5.00,+1.00,-3.00,-3.00,-5.00
+5.00,+2.00,+6.00,-6.00,-9.00,-2.00,-13.00,-6.00,+12.00,+1.00,+5.00,-4.00,-6.00,-8.00,-1.00,-1.00
+26.00,+7.00,+10.00,+9.00,+6.00,-1.00,+7.00,+8.00,-1.00,+6.00,-10.00,-4.00,-3.00,-4.00,-6.00,+3.00
+0.00,+0.00,+0.00,-7.00,-2.00,+0.00,-9.00,-7.00,-24.00,-2.00,-18.00,+0.00,-3.00,-3.00,+1.00,-5.00
+15.00,+0.00,-1.00,-4.00,+2.00,+2.00,+7.00,+2.00,-24.00,-4.00,+5.00,+1.00,+1.00,-3.00,-6.00,-11.00
-16.00,-6.00,-7.00,+4.00,+0.00,+1.00,-29.00,-17.00,-12.00,+3.00,+18.00,+4.00,+1.00,+5.00,+7.00,+5.00
+10.00,+7.00,+2.00,-3.00,-8.00,-9.00,+14.00,+8.00,-25.00,+1.00,-10.00,-3.00,-4.00,-2.00,-2.00,-3.00
+18.00,+5.00,+5.00,+5.00,+1.00,+4.00,+9.00,+10.00,-16.00,-11.00,-12.00,-8.00,-5.00,-8.00,-23.00,-8.00
-4.00,+5.00,+11.00,+7.00,+3.00,-8.00,-6.00,+1.00,-16.00,-1.00,+4.00,-7.00,-4.00,+16.00,+8.00,+2.00
-13.00,-4.00,+4.00,+3.00,+6.00,+2.00,-6.00,+16.00,-9.00,-2.00,-2.00,-3.00,-4.00,-16.00,+3.00,+10.00
-17.00,-11.00,+5.00,-2.00,-6.00,+2.00,+3.00,-4.00,-15.00,-5.00,-9.00,-4.00,+0.00,+3.00,+2.00,-4.00
+16.00,+5.00,+6.00,-10.00,-5.00,+3.00,+7.00,-6.00,-12.00,+3.00,+8.00,+17.00,+2.00,-5.00,+3.00,+3.00
+3.00,-23.00,-46.00,-13.00,-2.00,-1.00,+10.00,+6.00,-16.00,-5.00,-4.00,-6.00,-7.00,-7.00,-14.00,-10.00
+28.00,+14.00,+5.00,+4.00,-11.00,-5.00,+8.00,+9.00,-16.00,+0.00,-2.00,-2.00,-3.00,+3.00,-1.00,+8.00
+22.00,-5.00,+2.00,-3.00,-5.00,+0.00,-14.00,+3.00,-16.00,-1.00,+4.00,-4.00,-4.00,+5.00,-3.00,-3.00
+47.00,+5.00,+1.00,+2.00,+0.00,-1.00,+19.00,+17.00,+2.00,+3.00,-4.00,-10.00,+0.00,+6.00,+3.00,+2.00
-11.00,+0.00,+9.00,+8.00,+2.00,+1.00,-13.00,-10.00,+9.00,+2.00,+1.00,+6.00,+4.00,-2.00,-2.00,+11.00
-20.00,-5.00,-2.00,-2.00,+4.00,+1.00,+8.00,-2.00,-37.00,-7.00,-1.00,-2.00,+1.00,+2.00,-2.00,-14.00
-42.00,-10.00,+6.00,-3.00,+0.00,+3.00,+2.00,+4.00,+6.00,-3.00,+3.00,+3.00,+0.00,-6.00,+0.00,+11.00
-19.00,-4.00,-8.00,-4.00,+7.00,-1.00,-20.00,+8.00,+2.00,-1.00,+0.00,-1.00,+0.00,+6.00,+6.00,+7.00
-12.00,+9.00,-3.00,-2.00,-12.00,-3.00,+6.00,-4.00,+17.00,-4.00,+0.00,+4.00,+0.00,-5.00,-8.00,-4.00
-31.00,+1.00,-2.00,+1.00,+7.00,-1.00,-12.00,-9.00,-15.00,+6.00,+8.00,+3.00,+4.00,+2.00,-5.00,-3.00
+21.00,+2.00,-7.00,-5.00,-2.00,+3.00,+19.00,+7.00,+8.00,+3.00,+1.00,-4.00,-1.00,-3.00,+5.00,+9.00
+16.00,-7.00,-9.00,+4.00,+1.00,-1.00,-8.00,-1.00,-5.00,-3.00,-3.00,+1.00,+3.00,+3.00,+13.00,+11.00
+14.00,-1.00,+3.00,-5.00,-4.00,-2.00,-9.00,+7.00,-23.00,-1.00,-1.00,-4.00,-4.00,-12.00,-10.00,-22.00
-6.00,-1.00,+5.00,+0.00,-4.00,-2.00,+16.00,+5.00,+11.00,-2.00,-3.00,+1.00,+1.00,+14.00,-5.00,-1.00
-12.00,+10.00,+8.00,+2.00,+5.00,+2.00,-25.00,-27.00,-17.00,-2.00,+1.00,+2.00,+1.00,-17.00,+1.00,-7.00
-25.00,-1.00,-2.00,-2.00,-3.00,+0.00,+10.00,-5.00,+27.00,+5.00,+0.00,-5.00,-4.00,+1.00,+3.00,+12.00
-7.00,-3.00,-2.00,-1.00,+0.00,+3.00,-4.00,-8.00,+5.00,-3.00,-1.00,+1.00,+4.00,+0.00,+3.00,+3.00
-11.00,-5.00,-2.00,+3.00,+3.00,-2.00,-3.00,-7.00,-5.00,-1.00,+0.00,-3.00,-3.00,+2.00,+6.00,-3.00
+40.00,+3.00,-2.00,-3.00,+9.00,+1.00,-7.00,+16.00,-2.00,-7.00,+2.00,+7.00,+4.00,+3.00,-6.00,-5.00
+3.00,+1.00,-4.00,+1.00,-6.00,-3.00,-1.00,+2.00,+16.00,+0.00,-5.00,-13.00,-1.00,-5.00,+6.00,+11.00
-26.00,-4.00,+2.00,-1.00,-5.00,-4.00,-10.00,-6.00,+15.00,+1.00,-1.00,+0.00,+0.00,+18.00,+6.00,+9.00
+14.00,+4.00,+2.00,+0.00,+4.00,+2.00,-13.00,-1.00,-14.00,-3.00,+1.00,-3.00,-8.00,-12.00,-1.00,-12.00
-3.00,-6.00,-1.00,+1.00,-4.00,+4.00,+25.00,+8.00,+5.00,+1.00,-4.00,-5.00,+0.00,+4.00,-6.00,+6.00
+17.00,-3.00,-3.00,-3.00,-4.00,+3.00,-5.00,-1.00,+3.00,-2.00,+3.00,+5.00,+2.00,-3.00,-4.00,-4.00
-1.00,+2.00,+6.00,+1.00,+5.00,-3.00,+7.00,+2.00,+1.00,+2.00,+0.00,-3.00,-3.00,-2.00,-9.00,-8.00
+0.00,-5.00,+4.00,-2.00,-2.00,-4.00,-6.00,-8.00,-10.00,-8.00,-3.00,+0.00,+2.00,-9.00,-3.00,-1.00
-15.00,+8.00,+1.00,+4.00,+2.00,-1.00,-15.00,-19.00,+2.00,-6.00,-2.00,+0.00,-2.00,+4.00,+0.00,-8.00
-1.00,-3.00,+2.00,-1.00,-2.00,-4.00,-1.00,+2.00,+1.00,+1.00,+4.00,+5.00,-1.00,-2.00,-5.00,-7.00
-13.00,-14.00,-24.00,-13.00,-2.00,+1.00,-1.00,+0.00,+19.00,+9.00,+1.00,-8.00,-4.00,+0.00,+13.00,+19.00
+51.00,+8.00,+0.00,+3.00,+2.00,+1.00,+4.00,+10.00,+6.00,+3.00,+3.00,-2.00,-1.00,+0.00,-2.00,+1.00
+22.00,+14.00,+19.00,-1.00,+6.00,-1.00,-1.00,+4.00,-8.00,-4.00,-3.00,+3.00,+0.00,+0.00,-6.00,-10.00
-12.00,+7.00,-3.00,-4.00,-6.00,-4.00,-7.00,-14.00,+4.00,+1.00,-2.00,-6.00,-2.00,-1.00,+2.00,-3.00
-17.00,-12.00,-14.00,+3.00,+3.00,-1.00,+5.00,+2.00,+4.00,-6.00,-1.00,+1.00,-1.00,-3.00,+4.00,+0.00
+19.00,-1.00,-3.00,-2.00,-4.00,+1.00,+3.00,-1.00,+4.00,-6.00,-3.00,-6.00,-3.00,-2.00,+6.00,+9.00
-23.00,-9.00,-4.00,-1.00,-5.00,-5.00,-5.00,-6.00,+2.00,+15.00,+4.00,-1.00,-1.00,+4.00,+8.00,-5.00
+15.00,+2.00,+10.00,+0.00,+2.00,-4.00,+0.00,+4.00,+0.00,-8.00,+2.00,+6.00,+2.00,+3.00,+2.00,-2.00
+24.00,+9.00,+11.00,+5.00,+4.00,+1.00,-13.00,+3.00,+0.00,+1.00,-5.00,-2.00,-1.00,-6.00,-3.00,+0.00
-8.00,-3.00,-4.00,-6.00,-11.00,-1.00,+21.00,-1.00,-6.00,-5.00,-6.00,-3.00,+0.00,+2.00,-5.00,-8.00
-6.00,-6.00,-9.00,+3.00,+2.00,+0.00,-6.00,-4.00,+10.00,-8.00,-1.00,+1.00,+1.00,+1.00,-4.00,+3.00
-19.00,-12.00,-10.00,-3.00,+1.00,+0.00,-4.00,-9.00,-2.00,+1.00,-3.00,-6.00,-4.00,-2.00,-12.00,-7.00
+1.00,+5.00,+11.00,+1.00,+0.00,+6.00,+7.00,+1.00,-2.00,-2.00,+0.00,-1.00,-2.00,-6.00,+2.00,+14.00
-18.00,-2.00,+2.00,+3.00,+2.00,-4.00,-7.00,-6.00,+2.00,-2.00,+1.00,+0.00,+2.00,+1.00,-7.00,-18.00
+9.00,+5.00,-5.00,-1.00,-5.00,+0.00,+2.00,+8.00,+13.00,+2.00,-4.00,-7.00,-6.00,+0.00,+3.00,+17.00
+11.00,+2.00,-4.00,-8.00,-7.00,-3.00,-11.00,-20.00,-10.00,-4.00,-3.00,+2.00,+0.00,-8.00,-9.00,-12.00
+3.00,-3.00,+2.00,-1.00,-1.00,-7.00,-17.00,-6.00,-2.00,-7.00,+3.00,+13.00,+3.00,+2.00,+3.00,-3.00
-16.00,-8.00,-3.00,-1.00,-3.00,+4.00,+26.00,+10.00,+5.00,+6.00,+0.00,-13.00,-5.00,+5.00,+7.00,+12.00
-29.00,-14.00,-10.00,-6.00,-7.00,-2.00,-5.00,+2.00,+6.00,-5.00,-3.00,+4.00,-1.00,+6.00,+10.00,+5.00
-18.00,+2.00,+2.00,+3.00,+6.00,+2.00,-2.00,+1.00,-5.00,+1.00,-2.00,-2.00,-2.00,-1.00,-3.00,-7.00
+38.00,+13.00,+13.00,+3.00,-4.00,+2.00,+13.00,+2.00,+6.00,-9.00,-3.00,-1.00,-2.00,-10.00,-15.00,+6.00
-8.00,+6.00,+6.00,+1.00,+3.00,-1.00,-18.00,-5.00,-2.00,-4.00,-3.00,+6.00,+0.00,-2.00,-11.00,-24.00
+22.00,+1.00,-7.00,-2.00,-2.00,-2.00,+7.00,-5.00,+2.00,-1.00,-2.00,-6.00,-5.00,-5.00,-4.00,+2.00
-2.00,-7.00,-4.00,-6.00,-2.00,+2.00,+11.00,+4.00,-20.00,-2.00,-6.00,-5.00,-1.00,-1.00,-1.00,-5.00
-4.00,-1.00,-13.00,-8.00,-4.00,-3.00,-6.00,+0.00,+1.00,+1.00,+3.00,-6.00,-3.00,-1.00,-1.00,+2.00
-9.00,-18.00,-22.00,-7.00,-1.00,-4.00,-13.00,-6.00,+11.00,+5.00,+0.00,+6.00,+0.00,-2.00,+4.00,+13.00
+15.00,+0.00,+7.00,+6.00,+4.00,+2.00,+7.00,+0.00,-1.00,+3.00,+2.00,-5.00,-2.00,+0.00,-2.00,-5.00
-19.00,+2.00,+6.00,+7.00,+3.00,-2.00,-7.00,+5.00,+5.00,+6.00,+0.00,-1.00,-1.00,+2.00,+3.00,-1.00
-3.00,+1.00,+12.00,+3.00,+3.00,+0.00,+6.00,+3.00,-13.00,+11.00,+2.00,+1.00,-1.00,-2.00,+2.00,-8.00
+10.00,+5.00,+5.00,-1.00,-6.00,-1.00,-5.00,-10.00,+11.00,-15.00,-7.00,-1.00,-2.00,-2.00,+2.00,+10.00
-16.00,-4.00,-11.00,-4.00,+1.00,-2.00,-3.00,-2.00,-10.00,-8.00,+0.00,+0.00,-2.00,-5.00,-7.00,-6.00
+7.00,+1.00,+2.00,+0.00,-1.00,-1.00,+2.00,+0.00,+0.00,-2.00,+3.00,+4.00,+0.00,+1.00,+4.00,-11.00
-17.00,-10.00,-11.00,-3.00,-7.00,-1.00,+10.00,+16.00,-8.00,-5.00,-1.00,-1.00,+0.00,+2.00,+4.00,-4.00
-28.00,-5.00,+2.00,+6.00,+6.00,+0.00,-8.00,-7.00,+13.00,+10.00,+6.00,+7.00,+0.00,-1.00,+2.00,+12.00
+21.00,+11.00,+26.00,-4.00,+3.00,+6.00,+15.00,-3.00,-9.00,-7.00,-12.00,-16.00,-6.00,-4.00,-1.00,-5.00
-5.00,-10.00,-21.00,-5.00,-4.00,-3.00,-2.00,+8.00,+10.00,-1.00,-3.00,+1.00,-1.00,+0.00,-1.00,+1.00
+19.00,-4.00,-17.00,-1.00,+4.00,-2.00,-16.00,-17.00,+7.00,+1.00,+6.00,+12.00,+4.00,-1.00,-2.00,-1.00
-5.00,+3.00,-4.00,-7.00,-5.00,+1.00,-3.00,-2.00,-23.00,-4.00,-5.00,-18.00,-8.00,+0.00,-5.00,-18.00
-12.00,-2.00,+2.00,+4.00,+0.00,+0.00,+13.00,+14.00,-11.00,+6.00,+5.00,+6.00,+2.00,-1.00,-4.00,+0.00
-4.00,-2.00,+9.00,+2.00,-2.00,+0.00,-5.00,-6.00,+7.00,-4.00,-3.00,+0.00,-1.00,+0.00,-2.00,+11.00
-6.00,+1.00,+4.00,+1.00,+2.00,-1.00,-3.00,+1.00,+2.00,-5.00,-4.00,-8.00,-2.00,-2.00,-6.00,-3.00
-4.00,-2.00,-4.00,+0.00,-2.00,-2.00,+6.00,-10.00,+9.00,+3.00,+0.00,+5.00,+1.00,-5.00,-1.00,+7.00
-13.00,-8.00,-1.00,+1.00,-1.00,-3.00,-7.00,-3.00,-7.00,-6.00,-3.00,+3.00,+1.00,+0.00,-4.00,-10.00
+20.00,+11.00,+3.00,-1.00,+0.00,+0.00,+2.00,+9.00,+0.00,-3.00,-1.00,-8.00,-5.00,-1.00,+0.00,+5.00
-14.00,-5.00,-6.00,-5.00,-4.00,-1.00,-2.00,+0.00,-8.00,-2.00,+0.00,+4.00,+1.00,-1.00,+1.00,+3.00
+2.00,-4.00,-3.00,-1.00,+2.00,+1.00,+6.00,-4.00,+17.00,+4.00,-2.00,-1.00,-1.00,-1.00,-8.00,-5.00
-7.00,+3.00,+1.00,-1.00,-1.00,-3.00,-5.00,-4.00,-7.00,-10.00,-2.00,-7.00,-5.00,-3.00,+2.00,-1.00
+10.00,-3.00,-5.00,+0.00,+0.00,+1.00,+2.00,+3.00,+1.00,+6.00,+4.00,+6.00,+1.00,+0.00,+4.00,+3.00
-8.00,-1.00,+9.00,+6.00,+0.00,+2.00,+0.00,-2.00,+1.00,+4.00,-1.00,-2.00,-1.00,+0.00,+0.00,-3.00
-5.00,+5.00,+4.00,-3.00,-2.00,+0.00,+1.00,+6.00,-14.00,-8.00,+0.00,-1.00,-1.00,-1.00,+4.00,+0.00
-27.00,-10.00,-4.00,-2.00,-2.00,-1.00,-4.00,-11.00,+5.00,+0.00,-2.00,-1.00,+0.00,+0.00,+0.00,-2.00
+12.00,-4.00,-12.00,-6.00,+1.00,+0.00,-6.00,+1.00,-6.00,-8.00,+0.00,+2.00,+0.00,-1.00,+0.00,+2.00
+8.00,+10.00,+9.00,+3.00,+5.00,+2.00,+3.00,-12.00,+17.00,+8.00,+3.00,+0.00,-1.00,-1.00,-2.00,-1.00
+6.00,-7.00,-5.00,-4.00,-4.00,-1.00,+1.00,+5.00,-23.00,+0.00,+0.00,-7.00,-2.00,-1.00,-5.00,-10.00
-9.00,+2.00,-2.00,-2.00,-7.00,-3.00,-13.00,-14.00,-18.00,-8.00,-1.00,+8.00,+3.00,+2.00,+0.00,-6.00
-16.00,-6.00,+2.00,+0.00,-1.00,-3.00,+0.00,-7.00,+14.00,+11.00,-1.00,-8.00,-3.00,-3.00,+2.00,+5.00
+9.00,-1.00,-1.00,-1.00,-2.00,-2.00,+5.00,+1.00,-18.00,-25.00,-5.00,-1.00,-1.00,-6.00,-9.00,-11.00
+0.00,+8.00,+2.00,+3.00,+7.00,+0.00,+1.00,+6.00,+22.00,+8.00,+1.00,+5.00,+1.00,+2.00,+11.00,+16.00
+1.00,-8.00,-17.00,-4.00,+2.00,-3.00,-8.00,-3.00,-4.00,-7.00,-4.00,-1.00,-1.00,+0.00,-3.00,-3.00
+0.00,+6.00,+11.00,+4.00,+2.00,-2.00,-1.00,-1.00,-3.00,-1.00,+0.00,+7.00,+1.00,+2.00,-1.00,-1.00
-3.00,-1.00,+4.00,-3.00,-3.00,+0.00,+2.00,+1.00,-1.00,+5.00,-2.00,-11.00,-4.00,-1.00,-6.00,-4.00
-4.00,-6.00,-6.00,-2.00,+0.00,-2.00,-5.00,+1.00,+3.00,-9.00,-7.00,+0.00,+0.00,-2.00,-1.00,+0.00
+6.00,+2.00,-2.00,+0.00,+1.00,-2.00,-5.00,-5.00,-6.00,+1.00,+4.00,+2.00,+1.00,-1.00,-2.00,-3.00
+3.00,+3.00,-4.00,+2.00,+2.00,-1.00,+3.00,+8.00,+8.00,+1.00,+0.00,-5.00,-1.00,-2.00,-1.00,-4.00
-26.00,-10.00,-1.00,+4.00,-4.00,-2.00,-6.00,-4.00,-7.00,+5.00,+0.00,+0.00,-1.00,-1.00,+3.00,-5.00
+7.00,+0.00,+12.00,-1.00,-2.00,-1.00,-3.00,-2.00,-2.00,-1.00,+0.00,+0.00,+0.00,-2.00,+3.00,+9.00
