+3.00,+0.00,+0.00,+1.00,+1.00,+2.00,+3.00,+8.00,-2.00,-6.00,-3.00,-4.00,+0.00,-1.00,-1.00,-2.00
-3.00,+0.00,-1.00,+0.00,+4.00,+0.00,+0.00,-2.00,-5.00,-3.00,+1.00,+2.00,+2.00,-2.00,-1.00,-6.00
-2.00,-1.00,+0.00,-1.00,+0.00,-3.00,+0.00,-4.00,+0.00,+1.00,+0.00,-1.00,+2.00,+1.00,+0.00,-2.00
+1.00,-2.00,-1.00,-1.00,-3.00,+0.00,-4.00,-8.00,+1.00,+3.00,+0.00,-3.00,+0.00,-1.00,+2.00,+3.00
-3.00,+0.00,+2.00,-2.00,-2.00,+1.00,-1.00,-1.00,-13.00,-8.00,+0.00,-1.00,+1.00,-3.00,-4.00,-5.00
-2.00,-4.00,-2.00,-1.00,-1.00,-1.00,-2.00,-2.00,+17.00,+7.00,-3.00,-3.00,+0.00,-3.00,+4.00,+5.00
-2.00,-2.00,-1.00,-1.00,-3.00,+0.00,+1.00,+0.00,-4.00,-2.00,+0.00,+0.00,-2.00,-1.00,+5.00,+7.00
-1.00,+1.00,+0.00,-2.00,-1.00,+3.00,+4.00,+2.00,+4.00,+0.00,-1.00,-2.00,-4.00,+1.00,-3.00,-2.00
-5.00,-6.00,-3.00,-1.00,-2.00,-2.00,-1.00,+1.00,+9.00,+7.00,+3.00,+3.00,-2.00,+1.00,+1.00,+6.00
+0.00,-2.00,-1.00,-1.00,-2.00,-1.00,+3.00,+1.00,-15.00,-10.00,-5.00,-4.00,-3.00,-2.00,-7.00,-9.00
+3.00,+11.00,-3.00,-4.00,-2.00,+0.00,+5.00,-4.00,+7.00,-1.00,+2.00,+6.00,+2.00,-1.00,-5.00,-4.00
+4.00,-4.00,+6.00,+4.00,+4.00,-7.00,-6.00,+0.00,+4.00,+3.00,+1.00,+10.00,+14.00,+1.00,+0.00,+3.00
-2.00,-9.00,-3.00,-1.00,-8.00,-5.00,+0.00,-1.00,-28.00,-22.00,-15.00,-11.00,-15.00,-7.00,-9.00,-14.00
+6.00,+8.00,-1.00,+1.00,+4.00,+2.00,+2.00,-3.00,+14.00,+10.00,+2.00,-14.00,-8.00,-1.00,+2.00,+5.00
+10.00,+22.00,+14.00,+9.00,+5.00,+2.00,-2.00,+13.00,-10.00,+3.00,-6.00,-18.00,-18.00,-6.00,-6.00,-7.00
-8.00,-6.00,-6.00,-2.00,-2.00,+2.00,+4.00,+24.00,+8.00,-1.00,+0.00,+1.00,+1.00,+1.00,+3.00,+2.00
+4.00,+3.00,-2.00,-3.00,+0.00,+0.00,+3.00,+6.00,+22.00,+16.00,+6.00,+7.00,+10.00,-5.00,-5.00,+4.00
-11.00,-14.00,-6.00,-2.00,-4.00,-7.00,-10.00,+0.00,-20.00,-14.00,-9.00,-9.00,-5.00,-2.00,+8.00,-7.00
-4.00,-6.00,-3.00,-4.00,-1.00,-3.00,+0.00,-1.00,-1.00,-3.00,+1.00,+7.00,+0.00,-1.00,+2.00,+12.00
-2.00,+6.00,+0.00,-1.00,-1.00,-1.00,-3.00,-11.00,+15.00,+8.00,-2.00,-1.00,+0.00,+1.00,-10.00,-3.00
-4.00,+0.00,+2.00,+1.00,-1.00,-2.00,-4.00,+1.00,-14.00,+3.00,+8.00,+2.00,+0.00,+4.00,+8.00,+0.00
-2.00,+0.00,-3.00,-1.00,-3.00,+1.00,+0.00,+2.00,+7.00,+7.00,+3.00,+5.00,+0.00,+0.00,-5.00,+1.00
+4.00,-2.00,-2.00,-1.00,-2.00,+0.00,-6.00,-1.00,+0.00,-1.00,+3.00,+3.00,+4.00,+1.00,+3.00,+1.00
-3.00,-5.00,-4.00,-4.00,-1.00,+3.00,+9.00,-14.00,+0.00,+0.00,-3.00,-5.00,-8.00,-5.00,-1.00,-4.00
-7.00,-9.00,-6.00,-4.00,+1.00,-6.00,-6.00,-7.00,-4.00,-9.00,-5.00,+2.00,+2.00,+2.00,-2.00,+0.00
+15.00,+8.00,+3.00,-2.00,+0.00,+0.00,-2.00,+7.00,+18.00,+8.00,+1.00,+8.00,+2.00,-1.00,-4.00,+12.00
-13.00,-12.00,-3.00,+1.00,+2.00,-1.00,+0.00,+0.00,-3.00,-4.00,-6.00,-6.00,-4.00,-3.00,+4.00,-8.00
-3.00,-21.00,-8.00,-5.00,-16.00,-5.00,-3.00,-2.00,-11.00,-8.00,+0.00,+7.00,+11.00,+0.00,-7.00,-10.00
+3.00,+25.00,+7.00,+3.00,+6.00,+4.00,+2.00,-2.00,+3.00,+3.00,-2.00,-12.00,-15.00,-1.00,+7.00,+7.00
-7.00,-2.00,-2.00,+1.00,+4.00,+2.00,-3.00,-2.00,-7.00,-3.00,-3.00,-7.00,-1.00,-1.00,-3.00,-7.00
+8.00,-7.00,-4.00,-1.00,+2.00,+0.00,-2.00,+1.00,-10.00,-9.00,-7.00,-5.00,-3.00,-5.00,-8.00,-6.00
+8.00,+11.00,+3.00,+2.00,+3.00,+4.00,+2.00,+9.00,+11.00,+4.00,-1.00,-4.00,+1.00,+2.00,+8.00,+13.00
-16.00,-25.00,-9.00,-7.00,-10.00,-10.00,-6.00,-2.00,-17.00,+1.00,+3.00,+14.00,+10.00,+4.00,+0.00,-11.00
+2.00,+1.00,+1.00,-2.00,-3.00,+9.00,+20.00,-20.00,-7.00,-5.00,-7.00,-8.00,-13.00,-7.00,-7.00,-4.00
-35.00,-41.00,-12.00,-5.00,-3.00,-11.00,-13.00,-13.00,+9.00,-6.00,-1.00,+4.00,+8.00,-6.00,-9.00,-4.00
-11.00,+5.00,+1.00,-1.00,-1.00,-3.00,-1.00,-14.00,+15.00,+14.00,+7.00,-1.00,-8.00,+3.00,+4.00,+11.00
+31.00,+23.00,+11.00,+6.00,+3.00,+5.00,+2.00,+14.00,-2.00,-1.00,-3.00,-4.00,+2.00,-1.00,+12.00,+2.00
-3.00,+0.00,-4.00,-2.00,+0.00,-3.00,+1.00,+0.00,-18.00,-6.00,+3.00,+6.00,+8.00,+4.00,-5.00,-7.00
+0.00,+7.00,+1.00,-3.00,-4.00,+3.00,+7.00,+1.00,+9.00,+8.00,+3.00,+0.00,-2.00,+0.00,+1.00,-1.00
-7.00,-11.00,-7.00,-6.00,-3.00,-5.00,-3.00,-5.00,-26.00,-14.00,-2.00,-1.00,-7.00,-4.00,-14.00,-4.00
-6.00,-15.00,-5.00,-4.00,-4.00,-4.00,-4.00,+1.00,+37.00,+16.00,+2.00,-7.00,-7.00,-2.00,+2.00,+7.00
-13.00,-7.00,-4.00,-2.00,+0.00,-5.00,-5.00,-4.00,-1.00,-2.00,-3.00,-4.00,-3.00,-2.00,+1.00,+5.00
+4.00,+0.00,+0.00,+1.00,+3.00,+3.00,+5.00,-2.00,-9.00,-6.00,-6.00,-5.00,-2.00,+0.00,-3.00,-9.00
+17.00,+15.00,+6.00,+2.00,+3.00,+0.00,-6.00,+13.00,+7.00,-3.00,+2.00,+6.00,+12.00,+2.00,+5.00,+11.00
+6.00,-5.00,-1.00,+0.00,+6.00,+8.00,+2.00,-6.00,-3.00,-5.00,-1.00,-1.00,-12.00,-5.00,-5.00,-4.00
-1.00,+3.00,+0.00,+3.00,-3.00,-1.00,+0.00,+7.00,+7.00,+0.00,-7.00,-5.00,-1.00,-5.00,+1.00,+1.00
-6.00,-11.00,-1.00,-1.00,-1.00,-1.00,-1.00,+3.00,-9.00,-2.00,+0.00,+12.00,+14.00,+2.00,-11.00,-14.00
-11.00,+15.00,-4.00,-3.00,-6.00,+3.00,+11.00,-8.00,-3.00,+3.00,+0.00,-8.00,-16.00,+4.00,+6.00,+1.00
+15.00,+1.00,+2.00,+5.00,-2.00,-8.00,-6.00,+2.00,+8.00,+1.00,-3.00,-9.00,-12.00,-3.00,-4.00,+0.00
-22.00,-30.00,-1.00,-1.00,+2.00,+0.00,-6.00,-8.00,-42.00,-18.00,-1.00,+1.00,+5.00,+1.00,+0.00,-18.00
+23.00,+45.00,+5.00,-2.00,+0.00,-3.00,-2.00,+6.00,+17.00,-3.00,+0.00,-1.00,+1.00,-1.00,+6.00,+18.00
-2.00,-6.00,+2.00,+0.00,-3.00,+4.00,+7.00,-2.00,-4.00,+2.00,+3.00,+2.00,+4.00,-4.00,-2.00,-8.00
-9.00,-9.00,-7.00,-7.00,-8.00,-2.00,-4.00,-13.00,+16.00,+7.00,+3.00,+6.00,+7.00,+7.00,+5.00,+11.00
-1.00,-1.00,-4.00,-3.00,-6.00,-6.00,+0.00,+0.00,+2.00,-2.00,-1.00,+3.00,-2.00,-1.00,-9.00,-8.00
-21.00,-20.00,-3.00,-2.00,-5.00,-1.00,+9.00,-4.00,+19.00,+13.00,+7.00,+10.00,+3.00,+8.00,+8.00,+15.00
+22.00,+15.00,+3.00,+4.00,+8.00,-6.00,-14.00,+0.00,-42.00,-26.00,-15.00,-20.00,-21.00,-13.00,-7.00,-20.00
-12.00,+5.00,-5.00,-3.00,-1.00,-3.00,-4.00,+15.00,-1.00,-3.00,+0.00,+4.00,+12.00,+1.00,-2.00,+5.00
-2.00,-8.00,+0.00,-3.00,+0.00,+4.00,+4.00,-1.00,+18.00,+21.00,+7.00,+10.00,+7.00,+0.00,+2.00,+10.00
-3.00,-12.00,-6.00,-5.00,-8.00,-4.00,-7.00,-9.00,-14.00,+1.00,-6.00,-21.00,-22.00,-3.00,-4.00,-11.00
-9.00,+7.00,-4.00,-3.00,-2.00,-3.00,-13.00,+4.00,-2.00,-5.00,+2.00,+3.00,-4.00,-2.00,+3.00,+4.00
-24.00,-20.00,-8.00,-2.00,+0.00,-3.00,+4.00,-12.00,-7.00,-2.00,-4.00,-2.00,+8.00,-1.00,-6.00,+0.00
+20.00,+24.00,+4.00,+1.00,-4.00,-6.00,-14.00,+3.00,+3.00,-2.00,+1.00,+0.00,+1.00,-2.00,-6.00,-7.00
+24.00,+8.00,+4.00,-2.00,-11.00,+1.00,+6.00,+21.00,+5.00,-2.00,+0.00,+0.00,-8.00,-1.00,+5.00,+2.00
-8.00,-22.00,+0.00,+2.00,+13.00,+1.00,-11.00,-10.00,+5.00,+1.00,-8.00,-9.00,-4.00,-3.00,-1.00,+3.00
-9.00,+4.00,-2.00,-4.00,+0.00,+2.00,+1.00,-7.00,+2.00,-3.00,-5.00,-4.00,-3.00,-3.00,-2.00,+6.00
+42.00,+66.00,+18.00,+8.00,+4.00,+7.00,+11.00,+23.00,-27.00,-7.00,+1.00,+0.00,+6.00,+2.00,+3.00,-6.00
-5.00,+4.00,+0.00,+2.00,+3.00,+1.00,-2.00,-5.00,+6.00,-6.00,-2.00,+9.00,+10.00,-7.00,-13.00,-6.00
-1.00,-11.00,-1.00,-2.00,-5.00,-5.00,-4.00,+1.00,-3.00,-3.00,-2.00,-8.00,-7.00,-11.00,-1.00,-1.00
-12.00,-14.00,-1.00,+1.00,-2.00,-3.00,-4.00,-7.00,-3.00,+0.00,-3.00,+2.00,-3.00,+6.00,-16.00,-13.00
-6.00,-10.00,-5.00,-1.00,+6.00,+0.00,+0.00,-10.00,+7.00,-1.00,+2.00,+8.00,+5.00,+2.00,+3.00,+0.00
-6.00,-16.00,-5.00,-5.00,-5.00,+0.00,+0.00,-9.00,-23.00,-9.00,-1.00,+4.00,+2.00,+1.00,+1.00,-3.00
+11.00,+11.00,+6.00,+5.00,+1.00,-4.00,-6.00,+6.00,+6.00,+6.00,+1.00,+1.00,+2.00,-2.00,+2.00,+10.00
+0.00,+5.00,-1.00,-2.00,-1.00,-4.00,-3.00,+3.00,-11.00,-10.00,-7.00,-16.00,-16.00,-7.00,-4.00,-16.00
-16.00,-26.00,-10.00,-5.00,-10.00,-5.00,-9.00,-12.00,+29.00,+15.00,+1.00,-12.00,-17.00,-5.00,+5.00,+18.00
+6.00,+4.00,+4.00,+4.00,+11.00,+4.00,+1.00,+1.00,-54.00,-24.00,-10.00,+5.00,+17.00,+2.00,-4.00,-14.00
-1.00,-2.00,-2.00,-4.00,-1.00,+3.00,+9.00,-2.00,-2.00,+0.00,+3.00,+10.00,+13.00,+1.00,-6.00,-15.00
-1.00,+6.00,-2.00,-4.00,-8.00,-2.00,-7.00,-1.00,-18.00,-5.00,+2.00,-4.00,-20.00,+0.00,+3.00,+3.00
+10.00,+3.00,+9.00,-1.00,+0.00,-2.00,+2.00,+18.00,-9.00,-16.00,-14.00,-19.00,-8.00,-13.00,-11.00,-22.00
-16.00,-13.00,-6.00,+3.00,+11.00,+3.00,-1.00,-7.00,-13.00,+0.00,-4.00,-15.00,-14.00,-5.00,-6.00,-26.00
-6.00,-17.00,-5.00,-2.00,-4.00,+0.00,+5.00,-5.00,+32.00,+8.00,+8.00,+17.00,+14.00,+10.00,+8.00,+33.00
-14.00,-10.00,+1.00,-1.00,-2.00,+2.00,-7.00,-9.00,-17.00,-4.00,-1.00,+3.00,+10.00,+0.00,-5.00,-11.00
+1.00,+3.00,-11.00,-5.00,-6.00,-4.00,+18.00,+0.00,+3.00,-2.00,+0.00,+0.00,-3.00,+1.00,+6.00,-2.00
+18.00,+33.00,+2.00,-3.00,-10.00,-8.00,-3.00,+6.00,-3.00,+5.00,+3.00,+6.00,+6.00,-4.00,-7.00,-5.00
-30.00,-24.00,-3.00,+1.00,-5.00,-2.00,+2.00,-9.00,-30.00,-9.00,-9.00,-7.00,-6.00,+2.00,+0.00,-20.00
+34.00,+18.00,+3.00,+2.00,+4.00,+4.00,+5.00,+6.00,+55.00,+11.00,+1.00,+3.00,+3.00,-1.00,+3.00,+24.00
-10.00,-17.00,-3.00,-4.00,-11.00,-2.00,-9.00,-3.00,-34.00,-5.00,+10.00,+26.00,+10.00,-4.00,+9.00,-10.00
-5.00,+9.00,-5.00,-2.00,-1.00,+1.00,-2.00,-3.00,+23.00,+3.00,+0.00,-9.00,-3.00,+13.00,-5.00,+10.00
-3.00,-9.00,-9.00,-2.00,+4.00,-7.00,+2.00,-3.00,-24.00,-13.00,-8.00,-19.00,-28.00,-16.00,+3.00,-16.00
+3.00,-4.00,+8.00,+5.00,+7.00,+17.00,+12.00,+8.00,+3.00,-1.00,+1.00,-6.00,-2.00,-1.00,-1.00,-4.00
-37.00,-34.00,-13.00,-5.00,-1.00,-1.00,-11.00,-22.00,+13.00,+15.00,+1.00,+8.00,+6.00,-2.00,-7.00,-5.00
+25.00,+13.00,+13.00,+5.00,-3.00,-14.00,-6.00,+1.00,-9.00,-12.00,-3.00,+2.00,+8.00,-1.00,+11.00,+18.00
+12.00,+6.00,-7.00,-4.00,+0.00,+3.00,+9.00,+3.00,-27.00,-10.00,-4.00,+1.00,-5.00,+0.00,-7.00,-9.00
-8.00,+9.00,+0.00,+0.00,+7.00,+0.00,+10.00,-7.00,+15.00,+8.00,+6.00,+9.00,+10.00,-4.00,+12.00,+19.00
+13.00,-10.00,+3.00,+4.00,+1.00,+3.00,-2.00,+10.00,-29.00,-25.00,-9.00,-14.00,-7.00,+12.00,-16.00,-13.00
-42.00,-15.00,-8.00,-7.00,-8.00,+1.00,-1.00,-29.00,+52.00,+37.00,+17.00,+38.00,+24.00,+3.00,+7.00,+21.00
+2.00,+5.00,+9.00,+3.00,+2.00,-2.00,-4.00,+7.00,+8.00,-5.00,-13.00,-32.00,-16.00,-13.00,-14.00,-7.00
+12.00,+9.00,-3.00,-2.00,-4.00,-4.00,-1.00,+7.00,-35.00,-18.00,-8.00,-10.00,-17.00,-18.00,-7.00,-23.00
+0.00,+2.00,+0.00,+1.00,+2.00,+0.00,-1.00,+4.00,+31.00,+5.00,+2.00,-1.00,+0.00,+14.00,+12.00,+21.00
+7.00,-10.00,-4.00,-3.00,-2.00,+1.00,+1.00,+10.00,-4.00,-7.00,-7.00,-22.00,-20.00,-5.00,-6.00,+5.00
-11.00,-5.00,-6.00,-3.00,-7.00,-8.00,-17.00,-8.00,+1.00,+5.00,+5.00,+15.00,+17.00,+5.00,-8.00,-7.00
-33.00,-41.00,-9.00,-9.00,-14.00,-8.00,+0.00,-26.00,-14.00,-4.00,+0.00,+4.00,+5.00,+2.00,+4.00,-22.00
+21.00,+41.00,+7.00,+6.00,+0.00,-11.00,-10.00,+39.00,+2.00,-4.00,-6.00,-5.00,+0.00,-8.00,-5.00,+17.00
-21.00,-35.00,-7.00,-4.00,+3.00,+0.00,-11.00,-2.00,+9.00,+7.00,+2.00,-1.00,-2.00,-1.00,+13.00,+4.00
+33.00,+55.00,+17.00,+11.00,+18.00,+13.00,+1.00,+5.00,+11.00,+6.00,+1.00,+6.00,+2.00,+2.00,+6.00,+17.00
-14.00,-10.00,-6.00,-2.00,+0.00,+6.00,+16.00,-3.00,-15.00,-2.00,+0.00,-8.00,-4.00,-1.00,-12.00,-18.00
-6.00,-3.00,-6.00,-4.00,-6.00,-3.00,-6.00,-9.00,+24.00,+13.00,+3.00,+7.00,+1.00,-1.00,+3.00,+4.00
+40.00,+28.00,+14.00,+8.00,+7.00,+3.00,+4.00,+19.00,-26.00,-15.00,-5.00,-5.00,-3.00,-3.00,+4.00,-6.00
-4.00,+6.00,-5.00,-7.00,-6.00,+0.00,+4.00,+1.00,-1.00,-2.00,+2.00,+3.00,+5.00,+2.00,-18.00,-13.00
-16.00,-24.00,-5.00,-4.00,-7.00,+0.00,+3.00,-2.00,+1.00,+2.00,-4.00,+0.00,-5.00,+7.00,+18.00,+13.00
-3.00,-2.00,-6.00,-5.00,+3.00,-21.00,-18.00,-14.00,+27.00,+5.00,+5.00,+26.00,+25.00,+6.00,+2.00,+5.00
+16.00,+17.00,+4.00,+7.00,+3.00,+15.00,+7.00,+7.00,-22.00,-11.00,-15.00,-29.00,-32.00,-17.00,-14.00,-19.00
-17.00,-28.00,-11.00,-9.00,-18.00,-8.00,-6.00,-16.00,+5.00,+5.00,+0.00,-3.00,-3.00,+10.00,+16.00,+2.00
+15.00,+15.00,+1.00,-2.00,+6.00,-11.00,-31.00,-5.00,+3.00,-7.00,-1.00,-4.00,+0.00,-1.00,-6.00,+0.00
+5.00,-1.00,+4.00,+1.00,-3.00,+13.00,+22.00,+2.00,-2.00,+1.00,+3.00,+7.00,+12.00,+1.00,+4.00,+7.00
-25.00,+3.00,-6.00,-5.00,-1.00,-6.00,-17.00,-18.00,+4.00,+0.00,+0.00,+2.00,-3.00,+1.00,+2.00,+2.00
+11.00,-16.00,+2.00,+1.00,-1.00,+8.00,+17.00,+22.00,+52.00,+25.00,+6.00,+10.00,+4.00,+4.00,+3.00,+26.00
-17.00,+12.00,-7.00,-3.00,-5.00,-7.00,-13.00,-8.00,-40.00,-29.00,-10.00,+2.00,+3.00,-1.00,-10.00,-22.00
+53.00,+14.00,+18.00,+9.00,+13.00,+2.00,-7.00,+4.00,-14.00,-3.00,-2.00,-12.00,-12.00,-1.00,+6.00,-3.00
-5.00,+8.00,+2.00,+1.00,-1.00,+2.00,+9.00,+20.00,+5.00,+3.00,+5.00,+8.00,+10.00,+6.00,+1.00,+7.00
+3.00,+12.00,-3.00,+1.00,+1.00,-3.00,-12.00,-2.00,-10.00,+0.00,+3.00,-1.00,-3.00,+0.00,+3.00,-4.00
+21.00,+6.00,+7.00,+6.00,+3.00,+1.00,+11.00,+10.00,-4.00,-2.00,-3.00,+1.00,-4.00,-5.00,-7.00,-1.00
-42.00,-31.00,-12.00,-9.00,-7.00,-5.00,-7.00,-29.00,+8.00,+3.00,-4.00,-8.00,-10.00,-4.00,-4.00,+2.00
+5.00,-6.00,+3.00,+2.00,+3.00,+2.00,+10.00,+5.00,-1.00,+4.00,-1.00,-1.00,+1.00,-4.00,-7.00,-8.00
+13.00,+22.00,+3.00,+0.00,-5.00,-7.00,-8.00,+1.00,-21.00,-14.00,-4.00,+6.00,-1.00,-3.00,+2.00,-16.00
-22.00,-13.00,-7.00,-4.00,+2.00,+3.00,-5.00,-7.00,+17.00,+12.00,-1.00,-5.00,-2.00,+3.00,-3.00,+1.00
-2.00,+4.00,+3.00,+6.00,+3.00,+5.00,+6.00,-7.00,-17.00,-7.00,-3.00,+0.00,+2.00,+3.00,-2.00,-13.00
+3.00,-17.00,-10.00,-6.00,+4.00,-4.00,-4.00,-4.00,-8.00,-2.00,+3.00,+5.00,+8.00,+4.00,-1.00,+18.00
-2.00,+27.00,+2.00,-1.00,-3.00,-4.00,-7.00,-3.00,+15.00,-3.00,-6.00,-1.00,-3.00,-14.00,-6.00,+1.00
+5.00,-11.00,+1.00,+5.00,+2.00,+0.00,+1.00,+5.00,-11.00,-1.00,+2.00,+2.00,-8.00,+2.00,+0.00,-10.00
+3.00,+1.00,+0.00,-3.00,-11.00,-2.00,+1.00,+2.00,-19.00,-13.00,-5.00,-15.00,+0.00,-9.00,-6.00,-7.00
-13.00,-2.00,-1.00,+1.00,+0.00,+2.00,+2.00,-10.00,+6.00,+12.00,+3.00,+2.00,-14.00,+4.00,+10.00,+6.00
-26.00,-46.00,-13.00,-4.00,+3.00,-5.00,-14.00,-10.00,+25.00,+8.00,+3.00,-12.00,-7.00,-3.00,-11.00,+3.00
+38.00,+33.00,+15.00,+6.00,+0.00,-3.00,+9.00,+24.00,-19.00,-7.00,-2.00,+2.00,+7.00,-1.00,-2.00,+1.00
-13.00,+3.00,-1.00,-2.00,+6.00,+11.00,+14.00,+4.00,-13.00,-7.00,-4.00,-10.00,-12.00,-4.00,-1.00,-14.00
+0.00,+6.00,-1.00,-3.00,-2.00,+13.00,+17.00,-8.00,+12.00,+8.00,+2.00,+9.00,+16.00,+3.00,+3.00,+3.00
+14.00,+11.00,+0.00,-1.00,+4.00,+0.00,-6.00,-4.00,-7.00,-4.00,-2.00,+6.00,+7.00,+3.00,+0.00,-2.00
-2.00,-16.00,-3.00,+0.00,+0.00,-6.00,-11.00,+0.00,-7.00,+0.00,+0.00,-3.00,-9.00,-4.00,+3.00,+8.00
-35.00,-20.00,-9.00,-6.00,-7.00,-4.00,-6.00,-12.00,-13.00,-6.00,-2.00,+2.00,+0.00,-2.00,-7.00,-12.00
+9.00,+1.00,-5.00,-2.00,-7.00,-11.00,-10.00,-24.00,+31.00,+9.00,+0.00,-4.00,+2.00,+3.00,+4.00,+14.00
+15.00,-7.00,+2.00,+0.00,+1.00,+7.00,+17.00,+22.00,-38.00,-22.00,-8.00,-2.00,-6.00,+0.00,-4.00,-26.00
+10.00,-5.00,+1.00,+2.00,+8.00,+5.00,+0.00,+0.00,+31.00,+15.00,+3.00,+3.00,+7.00,+3.00,+3.00,+26.00
-1.00,+7.00,-1.00,+0.00,+0.00,-2.00,+4.00,-6.00,-34.00,-11.00,-4.00,-2.00,-5.00,-6.00,+1.00,-10.00
+0.00,+26.00,+4.00,+0.00,-1.00,-2.00,-1.00,+10.00,+23.00,+5.00,+2.00,+7.00,+10.00,+2.00,-9.00,-9.00
-18.00,-36.00,-2.00,+0.00,-9.00,-3.00,-1.00,+0.00,-13.00,-5.00,+2.00,+3.00,-7.00,-2.00,+6.00,-3.00
+37.00,+37.00,+4.00,+1.00,+5.00,+10.00,+15.00,+13.00,-10.00,-2.00,-4.00,-9.00,-7.00,-10.00,-23.00,-12.00
-7.00,+8.00,-1.00,-7.00,-22.00,-5.00,-13.00,-5.00,+21.00,+9.00,+1.00,-3.00,-8.00,+4.00,+6.00,+20.00
+6.00,-6.00,+0.00,+9.00,+24.00,+7.00,-8.00,-6.00,-8.00,-6.00,-2.00,-8.00,-19.00,-6.00,+7.00,-10.00
-16.00,-11.00,-3.00,-2.00,-1.00,-4.00,-7.00,-1.00,-6.00,+4.00,+1.00,+9.00,+22.00,+6.00,-1.00,+6.00
-1.00,+13.00,+2.00,-2.00,-3.00,-4.00,-3.00,-5.00,+11.00,-5.00,+0.00,+6.00,+8.00,-3.00,+4.00,+6.00
+12.00,-6.00,-3.00,+0.00,+3.00,+0.00,+0.00,+2.00,+9.00,+4.00,+0.00,-8.00,-7.00,-2.00,-13.00,+10.00
-14.00,-30.00,-7.00,-4.00,-10.00,-6.00,+4.00,+3.00,-18.00,+2.00,+1.00,+5.00,+15.00,+0.00,-4.00,-21.00
-5.00,-1.00,-1.00,-1.00,-3.00,+0.00,+10.00,-4.00,-30.00,-13.00,-2.00,-2.00,-4.00,-3.00,+0.00,-3.00
+17.00,+13.00,+3.00,+4.00,+1.00,-4.00,-8.00,-4.00,+9.00,-1.00,+0.00,+9.00,+3.00,+4.00,+11.00,+8.00
-9.00,-11.00,-9.00,-3.00,+2.00,-7.00,-2.00,+1.00,+29.00,+21.00,+5.00,-4.00,-4.00,-1.00,+3.00,+7.00
-14.00,-23.00,-7.00,-7.00,-9.00,-10.00,-13.00,-15.00,+44.00,+12.00,+2.00,+3.00,-2.00,-1.00,+5.00,+22.00
+2.00,+12.00,+5.00,+4.00,+7.00,+6.00,+11.00,+31.00,-52.00,-12.00,+2.00,+5.00,+6.00,+4.00,-3.00,-24.00
-17.00,-15.00,-10.00,-8.00,-12.00,-4.00,-2.00,-7.00,+37.00,+6.00,-1.00,-7.00,-11.00,-1.00,-6.00,+15.00
+32.00,+12.00,+6.00,+3.00,+3.00,+9.00,+8.00,+15.00,-28.00,-19.00,-2.00,+8.00,+12.00,+0.00,+4.00,-8.00
-17.00,-14.00,-6.00,-5.00,-6.00,-8.00,-5.00,-4.00,-3.00,-2.00,-9.00,-7.00,-12.00,-7.00,-11.00,-12.00
+1.00,-3.00,+1.00,+2.00,+1.00,+5.00,-3.00,-10.00,+29.00,+24.00,+3.00,-7.00,+5.00,-3.00,+0.00,+2.00
-3.00,+0.00,-5.00,-4.00,-7.00,-3.00,-2.00,-2.00,-13.00,-9.00,+0.00,+8.00,-1.00,+4.00,+2.00,-7.00
-17.00,-13.00,-3.00,+2.00,+8.00,-3.00,+0.00,+5.00,-4.00,+8.00,+1.00,-17.00,-18.00,-14.00,-4.00,-1.00
-7.00,-4.00,-2.00,-5.00,+4.00,+6.00,-12.00,-18.00,-45.00,-30.00,-10.00,-12.00,+1.00,+2.00,+3.00,-5.00
-15.00,-2.00,-6.00,-5.00,-7.00,-17.00,-9.00,-29.00,+78.00,+35.00,+9.00,+7.00,+7.00,+0.00,-8.00,+16.00
+1.00,-7.00,+8.00,+8.00,+6.00,+4.00,+5.00,+13.00,-10.00,-1.00,-1.00,-4.00,+5.00,+3.00,+17.00,-2.00
-19.00,-12.00,-4.00,-4.00,-2.00,-4.00,-6.00,-10.00,-22.00,-12.00,-4.00,+8.00,+8.00,+1.00,+0.00,+9.00
+35.00,+11.00,+9.00,+5.00,+1.00,+9.00,+23.00,+37.00,-41.00,-8.00,-3.00,-9.00,-15.00,-8.00,-10.00,-29.00
+19.00,+32.00,+1.00,-5.00,-7.00,-3.00,-7.00,-8.00,-7.00,-29.00,-6.00,-1.00,+0.00,+0.00,-1.00,-3.00
-48.00,-57.00,-8.00,-2.00,-4.00,+1.00,-7.00,-11.00,-5.00,+5.00,+7.00,-1.00,+1.00,-2.00,-8.00,-3.00
+22.00,+62.00,+2.00,+0.00,+4.00,+4.00,+14.00,-4.00,+19.00,+15.00,+0.00,+1.00,-6.00,-1.00,+4.00,+7.00
-1.00,-9.00,+2.00,+1.00,+2.00,-10.00,-3.00,+5.00,+36.00,+13.00,+0.00,+0.00,-2.00,-2.00,-4.00,+12.00
+15.00,-14.00,+4.00,+5.00,+3.00,+7.00,+16.00,+7.00,-48.00,-23.00,-10.00,+1.00,+0.00,+2.00,+4.00,-2.00
+9.00,+30.00,-1.00,-5.00,-3.00,-3.00,+4.00,-8.00,+31.00,+7.00,+2.00,+5.00,+3.00,-4.00,-6.00,+4.00
-8.00,-30.00,-1.00,+2.00,-10.00,-8.00,-14.00,-5.00,+10.00,+1.00,-11.00,-4.00,-5.00,-2.00,+2.00,-8.00
-14.00,+8.00,-1.00,+1.00,+2.00,-4.00,-15.00,-8.00,-35.00,-20.00,-2.00,-8.00,-9.00,-6.00,-6.00,-18.00
+7.00,-8.00,-7.00,-9.00,-19.00,-7.00,+1.00,-5.00,+1.00,-12.00,-7.00,+9.00,+16.00,+2.00,+2.00,+1.00
-2.00,+19.00,+2.00,+4.00,+19.00,+13.00,-3.00,-9.00,+0.00,+29.00,+5.00,+4.00,+6.00,+3.00,+2.00,-2.00
-8.00,-24.00,+1.00,+2.00,+4.00,+3.00,+0.00,+30.00,+55.00,+16.00,+16.00,+7.00,-4.00,+10.00,+11.00,+33.00
-19.00,-3.00,-5.00,-5.00,-5.00,+1.00,+5.00,-14.00,+5.00,+0.00,-11.00,-35.00,-26.00,-8.00,-3.00,-1.00
+7.00,+30.00,+7.00,+3.00,+3.00,+3.00,+3.00,+1.00,-5.00,-8.00,-8.00,-11.00,-12.00,-9.00,-6.00,-23.00
-31.00,-53.00,-2.00,+5.00,-4.00,-2.00,+2.00,+4.00,-8.00,-3.00,-3.00,-5.00,+0.00,-5.00,-5.00,-7.00
+30.00,+49.00,+5.00,-2.00,-2.00,-8.00,-7.00,-3.00,-46.00,-25.00,-4.00,+14.00,+11.00,+2.00,-8.00,-18.00
+0.00,-15.00,-2.00,-2.00,-3.00,-1.00,-4.00,+0.00,+40.00,+16.00,+6.00,+7.00,+4.00,+4.00,+5.00,+29.00
-4.00,+3.00,+3.00,+4.00,+8.00,+2.00,-2.00,+5.00,-29.00,+5.00,+7.00,+6.00,+2.00,+3.00,+1.00,-8.00
+5.00,+20.00,-6.00,-7.00,-12.00,-6.00,-2.00,-7.00,-3.00,-21.00,-13.00,-1.00,+6.00,+0.00,-3.00,-7.00
+9.00,+1.00,+7.00,+9.00,+14.00,+4.00,+4.00,+3.00,-22.00,-17.00,-3.00,-11.00,-10.00,-2.00,-4.00,-1.00
-52.00,-19.00,-17.00,-14.00,-13.00,-11.00,-10.00,-15.00,+7.00,+10.00,+3.00,+4.00,+6.00,+1.00,+2.00,+8.00
-1.00,-28.00,+2.00,+3.00,+5.00,+0.00,+0.00,-4.00,+1.00,+1.00,-3.00,-6.00,-8.00,-3.00,+3.00,+8.00
+30.00,+29.00,+4.00,-1.00,+3.00,+6.00,+4.00,+20.00,-19.00,-10.00,-1.00,-1.00,-4.00,-3.00,-2.00,+4.00
-22.00,-30.00,-18.00,-10.00,-5.00,-5.00,-10.00,-24.00,+50.00,-6.00,-8.00,+6.00,+20.00,-1.00,-4.00,-5.00
+11.00,+28.00,+0.00,-3.00,-4.00,-6.00,-2.00,+6.00,-24.00,-8.00,+6.00,+26.00,+4.00,+3.00,+10.00,-10.00
+7.00,-29.00,+24.00,+12.00,+5.00,+6.00,+9.00,+14.00,+6.00,-8.00,-22.00,-63.00,-58.00,-19.00,-18.00,+3.00
-24.00,-45.00,-17.00,-10.00,-15.00,-5.00,-5.00,-9.00,-39.00,+4.00,-3.00,-8.00,-9.00,-6.00,+5.00,-13.00
+25.00,+55.00,+14.00,+12.00,+15.00,+15.00,+16.00,+17.00,+27.00,+9.00,-6.00,-12.00,-14.00,-14.00,-14.00,-7.00
+15.00,+19.00,-3.00,+6.00,+5.00,+4.00,+0.00,+8.00,-17.00,-9.00,+2.00,+17.00,+27.00,+8.00,+4.00,+26.00
-22.00,-11.00,-14.00,-10.00,-3.00,-3.00,+4.00,-15.00,+28.00,+8.00,+1.00,+13.00,+5.00,-3.00,+1.00,-1.00
-9.00,-5.00,-12.00,-7.00,-6.00,-8.00,-9.00,-12.00,+9.00,+19.00,+11.00,+3.00,+0.00,+4.00,+2.00,+12.00
-15.00,-26.00,-3.00,-7.00,-9.00,-6.00,-1.00,-15.00,+41.00,+4.00,-3.00,-1.00,+2.00,+1.00,-3.00,+9.00
-7.00,-4.00,+7.00,+3.00,-3.00,+1.00,+1.00,-14.00,-22.00,-17.00,+1.00,+1.00,-3.00,+4.00,-4.00,-14.00
+32.00,+22.00,+1.00,+0.00,+2.00,+4.00,+5.00,+15.00,-14.00,+14.00,+3.00,-5.00,-10.00,-6.00,-2.00,-22.00
+25.00,-4.00,+16.00,+10.00,+5.00,+3.00,+7.00,+26.00,+24.00,-20.00,-11.00,-3.00,+0.00,-3.00,+2.00,+21.00
+2.00,+23.00,-8.00,-6.00,-8.00,-2.00,-7.00,-3.00,-6.00,+22.00,+10.00,+8.00,+3.00,+1.00,+3.00,+4.00
+27.00,+16.00,+8.00,+2.00,+2.00,-1.00,+2.00,+11.00,-24.00,-26.00,-7.00,-7.00,-1.00,-1.00,-7.00,-6.00
-57.00,-61.00,-17.00,-7.00,-2.00,-4.00,-6.00,-23.00,+39.00,+49.00,+16.00,+36.00,+28.00,+10.00,+7.00,+21.00
+39.00,+63.00,+14.00,+4.00,-1.00,-1.00,+0.00,+4.00,-26.00,-24.00,-13.00,-29.00,-25.00,-7.00,-9.00,-35.00
+3.00,+7.00,-4.00,-4.00,-9.00,-8.00,-13.00,+1.00,-47.00,-18.00,-4.00,-12.00,-26.00,-6.00,-4.00,-22.00
-25.00,-71.00,-10.00,-4.00,-1.00,-4.00,-6.00,-6.00,+36.00,+12.00,-3.00,-7.00,-3.00,-1.00,+4.00,+5.00
+9.00,+23.00,-6.00,-3.00,+1.00,+3.00,-2.00,-5.00,-95.00,-57.00,-11.00,+0.00,+8.00,-1.00,-1.00,-12.00
-24.00,-21.00,-17.00,-14.00,+2.00,-12.00,-13.00,-18.00,-12.00,-4.00,+4.00,+6.00,+6.00,+1.00,+0.00,-11.00
-36.00,-45.00,-10.00,-5.00,+0.00,-1.00,+8.00,-7.00,-66.00,-28.00,-10.00,-12.00,-9.00,-5.00,-11.00,-25.00
+31.00,+27.00,+11.00,+2.00,-4.00,-4.00,+1.00,+7.00,+15.00,+0.00,+3.00,+2.00,+2.00,-9.00,-6.00,-5.00
-2.00,+15.00,-2.00,-1.00,-2.00,-6.00,-10.00,+1.00,+34.00,+48.00,+14.00,+18.00,+16.00,+15.00,+14.00,+16.00
-29.00,-36.00,-14.00,-4.00,-5.00,-1.00,-3.00,-17.00,+52.00,+19.00,+6.00,+3.00,+0.00,-3.00,-1.00,+7.00
+9.00,+32.00,+19.00,+5.00,+1.00,+4.00,+5.00,+13.00,-47.00,-23.00,-3.00,+4.00,+7.00,+6.00,+11.00,+6.00
+32.00,+46.00,+4.00,+4.00,+1.00,+5.00,+11.00,+14.00,-23.00,-26.00,-3.00,+4.00,+6.00,-1.00,+2.00,-7.00
-29.00,-27.00,-16.00,-5.00,-5.00,-12.00,-14.00,-7.00,-16.00,-14.00,-7.00,-12.00,-9.00,-5.00,-11.00,-4.00
+0.00,-5.00,+10.00,+7.00,+2.00,+6.00,+12.00,-1.00,+3.00,+26.00,+16.00,+7.00,+4.00,+7.00,+8.00,-6.00
+20.00,+18.00,+0.00,-1.00,+0.00,-2.00,-5.00,+1.00,+62.00,+35.00,+8.00,+4.00,+6.00,+5.00,+6.00,+17.00
-27.00,-27.00,+1.00,-1.00,-13.00,+7.00,+12.00,-7.00,+14.00,+10.00,+6.00,+13.00,+9.00,+7.00,+6.00,+2.00
-4.00,-23.00,-8.00,-6.00,-2.00,-6.00,-5.00,+4.00,-3.00,-18.00,-4.00,-16.00,-19.00,-7.00,-1.00,+7.00
+38.00,+84.00,+0.00,-1.00,+12.00,+4.00,-2.00,+7.00,-1.00,+9.00,+2.00,-1.00,+3.00,-2.00,-9.00,-11.00
-8.00,-26.00,+7.00,+5.00,+1.00,-5.00,-10.00,-3.00,-8.00,-7.00,+3.00,+18.00,+16.00,+5.00,+0.00,+7.00
-10.00,-10.00,-13.00,-2.00,+7.00,+0.00,-4.00,-11.00,-68.00,-9.00,-9.00,+0.00,+1.00,+2.00,-2.00,-36.00
+58.00,+63.00,+26.00,+12.00,+1.00,+10.00,+9.00,+20.00,+68.00,+21.00,+7.00,+11.00,+15.00,+0.00,+6.00,+35.00
-27.00,-9.00,-13.00,-10.00,-12.00,-6.00,-1.00,-5.00,+19.00,-10.00,-12.00,-25.00,-42.00,-12.00,-5.00,+21.00
+28.00,-27.00,+15.00,+13.00,+15.00,+12.00,+10.00,+25.00,+26.00,+10.00,-3.00,-9.00,+1.00,-5.00,+3.00,-3.00
-30.00,-13.00,-9.00,-6.00,-9.00,-9.00,-10.00,-14.00,+1.00,+8.00,-6.00,-19.00,-21.00,-10.00,-10.00,-11.00
+12.00,+45.00,-3.00,-3.00,-1.00,-1.00,+0.00,-5.00,-40.00,-42.00,-13.00,-5.00,+4.00,+6.00,+0.00,-21.00
-51.00,-93.00,-21.00,-8.00,-9.00,-10.00,-15.00,-23.00,-10.00,-4.00,+1.00,+15.00,+17.00,-4.00,+2.00,+12.00
+17.00,-12.00,+6.00,+5.00,+0.00,+5.00,+9.00,-4.00,+34.00,+13.00,+8.00,+11.00,+9.00,+7.00,+2.00,+8.00
+10.00,+43.00,+4.00,-2.00,-5.00,+1.00,-4.00,+6.00,+30.00,+2.00,-3.00,-6.00,-6.00,-4.00,-7.00,+1.00
-14.00,-52.00,+0.00,+0.00,+4.00,+0.00,+0.00,+2.00,-5.00,+21.00,+7.00,+8.00,+2.00,+2.00,+1.00,-32.00
+36.00,+17.00,-1.00,+0.00,+1.00,+6.00,+6.00,+16.00,-6.00,-5.00,+5.00,+9.00,+13.00,+9.00,+3.00,+14.00
-5.00,-30.00,-11.00,-9.00,-15.00,-8.00,-4.00,-8.00,-29.00,-15.00,-21.00,-16.00,-16.00,-7.00,-12.00,-27.00
+26.00,+0.00,+3.00,+8.00,+17.00,+7.00,+6.00,+19.00,-1.00,+17.00,+0.00,-1.00,+0.00,-4.00,-1.00,-12.00
-11.00,+0.00,-8.00,-5.00,-2.00,-1.00,-6.00,-5.00,+105.00,+15.00,+18.00,+11.00,+8.00,+8.00,+15.00,+57.00
-15.00,+45.00,-4.00,-8.00,-16.00,-9.00,-1.00,-8.00,-63.00,-23.00,-10.00,-6.00,-2.00,+2.00,-3.00,-6.00
-38.00,-65.00,-14.00,-6.00,-2.00,-10.00,-7.00,-19.00,-1.00,+12.00,+4.00,-2.00,-6.00,-7.00,-1.00,-9.00
+22.00,-19.00,+1.00,+6.00,+14.00,+0.00,+7.00,+9.00,+58.00,+28.00,+0.00,-8.00,-21.00,-5.00,+2.00,+15.00
+4.00,+4.00,+14.00,+3.00,-10.00,+1.00,+1.00,-12.00,-109.00,-69.00,-16.00,-5.00,+5.00,-5.00,-14.00,-25.00
-12.00,+33.00,+7.00,+9.00,+21.00,+8.00,-2.00,-4.00,+59.00,+4.00,+30.00,+95.00,+104.00,+31.00,+18.00,+8.00
-26.00,+7.00,-20.00,-12.00,+0.00,-3.00,-9.00,-17.00,-23.00,-22.00,-32.00,-86.00,-100.00,-33.00,-11.00,-4.00
+15.00,+41.00,+12.00,+3.00,+7.00,+3.00,+2.00,-2.00,+31.00,+20.00,-1.00,+9.00,+14.00,+1.00,+5.00,+9.00
-18.00,-11.00,+1.00,+3.00,-2.00,+0.00,+6.00,+27.00,-8.00,+3.00,-7.00,-12.00,-16.00,-12.00,-18.00,-15.00
+51.00,+21.00,+13.00,+7.00,+2.00,+11.00,+9.00,+24.00,-97.00,-32.00,-14.00,-8.00,+0.00,-11.00,-21.00,-57.00
+1.00,+72.00,+13.00,+4.00,-3.00,+3.00,+5.00,-4.00,+59.00,+4.00,+12.00,+36.00,+40.00,+16.00,+14.00,+40.00
-41.00,-19.00,-28.00,-17.00,-21.00,-13.00,-17.00,-25.00,-8.00,-8.00,-4.00,-9.00,-14.00,-7.00,-4.00,+4.00
+6.00,-51.00,+4.00,+3.00,+6.00,-7.00,-4.00,-6.00,-26.00,-34.00,-16.00,-14.00,-11.00,-6.00,+1.00,-10.00
+5.00,+21.00,+8.00,+5.00,-2.00,+2.00,+9.00,+12.00,+19.00,+28.00,+6.00,-2.00,-10.00,+3.00,+2.00,-7.00
+44.00,+43.00,+2.00,+2.00,+2.00,+2.00,+2.00,+16.00,+16.00,+45.00,+18.00,+18.00,+13.00,+6.00,+6.00,+8.00
+7.00,-15.00,+0.00,-3.00,-11.00,-1.00,+3.00,+6.00,+23.00,-15.00,-3.00,-10.00,-10.00,+5.00,+8.00,+24.00
-26.00,+19.00,-6.00,+0.00,+1.00,+0.00,-11.00,-30.00,+27.00,-8.00,-16.00,+3.00,+4.00,+0.00,+2.00,+12.00
+3.00,-36.00,-1.00,-3.00,-6.00,-1.00,+4.00,+10.00,+10.00,+12.00,-10.00,-20.00,-25.00,-11.00,-13.00,+11.00
-61.00,-89.00,-21.00,-11.00,-1.00,-12.00,-17.00,-24.00,+66.00,+23.00,+19.00,+4.00,+0.00,+1.00,+6.00,+9.00
-20.00,+29.00,-14.00,-8.00,+2.00,-4.00,-9.00,-24.00,-16.00,+6.00,-3.00,+26.00,+43.00,+6.00,-6.00,-5.00
+26.00,-43.00,+15.00,+4.00,-10.00,-9.00,-1.00,+18.00,-47.00,-7.00,+10.00,+26.00,-3.00,+4.00,-3.00,-23.00
+52.00,+76.00,+30.00,+13.00,-6.00,+2.00,+12.00,+17.00,+26.00,-1.00,-26.00,-83.00,-79.00,-25.00,-10.00,+1.00
-27.00,-41.00,-13.00,+12.00,+45.00,+34.00,+18.00,+2.00,-13.00,+12.00,-1.00,-15.00,-13.00,-8.00,-4.00,-6.00
-6.00,-10.00,-2.00,-1.00,-1.00,+1.00,-5.00,-8.00,-39.00,-20.00,+4.00,+13.00,+17.00,+4.00,+0.00,+7.00
-3.00,+44.00,-25.00,-13.00,+10.00,-5.00,-8.00,-7.00,+11.00,+37.00,+2.00,-22.00,-18.00,-10.00,-12.00,-15.00
-22.00,-101.00,-4.00,-7.00,-22.00,-22.00,-21.00,-8.00,-87.00,-29.00,-7.00,+2.00,+5.00,+0.00,+1.00,-29.00
+95.00,+101.00,+50.00,+17.00,-8.00,+6.00,+18.00,+42.00,+42.00,+7.00,+16.00,+16.00,+14.00,+9.00,+9.00,+41.00
-27.00,-44.00,-11.00,-5.00,+3.00,-1.00,-1.00,+5.00,+2.00,+9.00,-2.00,+9.00,+17.00,+4.00,+4.00,-2.00
-7.00,-13.00,-7.00,-8.00,-16.00,-6.00,-3.00,-2.00,+50.00,+36.00,+10.00,-1.00,-8.00,+2.00,+8.00,+19.00
-39.00,-54.00,-12.00,-1.00,-3.00,-2.00,-1.00,-13.00,-59.00,-3.00,+22.00,+12.00,+5.00,+9.00,+17.00,+39.00
-27.00,-46.00,-19.00,-8.00,-8.00,-8.00,-9.00,-23.00,-62.00,-46.00,-14.00,+1.00,+8.00,+0.00,-10.00,-47.00
+57.00,+43.00,+34.00,+12.00,+9.00,+9.00,+10.00,+30.00,+80.00,+29.00,+10.00,+14.00,+10.00,+9.00,+13.00,+49.00
-60.00,+1.00,-27.00,-17.00,-14.00,-10.00,-12.00,-26.00,+1.00,+15.00,+10.00,+2.00,+0.00,-7.00,-7.00,-9.00
+5.00,-18.00,-14.00,-4.00,+3.00,+3.00,-3.00,-4.00,+24.00,+10.00,-14.00,-28.00,-27.00,-11.00,-3.00,+16.00
-42.00,-32.00,-2.00,+0.00,+4.00,-3.00,-17.00,-18.00,+15.00,-17.00,-3.00,+13.00,+16.00,+2.00,-9.00,-24.00
+19.00,-4.00,-1.00,-15.00,-47.00,-19.00,-8.00,+4.00,-128.00,-36.00,-1.00,+9.00,+12.00,+2.00,-4.00,-36.00
+67.00,+83.00,+20.00,+14.00,+23.00,+11.00,+16.00,+20.00,+127.00,+68.00,+14.00,-14.00,-26.00,-7.00,+5.00,+53.00
-20.00,-45.00,-11.00,+0.00,+21.00,+17.00,+13.00,+4.00,-79.00,-106.00,-42.00,+21.00,+36.00,+15.00,+5.00,-38.00
-30.00,+28.00,-22.00,-17.00,-13.00,-18.00,-18.00,-20.00,+16.00,+63.00,+18.00,+33.00,+18.00,+1.00,-12.00,-29.00
+11.00,+30.00,+12.00,+9.00,+7.00,+1.00,+8.00,-3.00,+82.00,+34.00,-18.00,-84.00,-86.00,-23.00,-3.00,+26.00
-59.00,-36.00,-38.00,-18.00,-4.00,-5.00,-11.00,-28.00,+35.00,+13.00,-5.00,-29.00,-16.00,-15.00,-11.00,-5.00
+17.00,-42.00,+15.00,+7.00,+5.00,+3.00,+8.00,+19.00,-23.00,-38.00,+8.00,+10.00,+13.00,+10.00,+12.00,+11.00
-3.00,+29.00,-9.00,-9.00,-12.00,-6.00,-6.00,-5.00,-84.00,-27.00,+3.00,+13.00,+18.00,+7.00,+1.00,-23.00
+7.00,-92.00,+8.00,+5.00,-7.00,-5.00,+1.00,+13.00,+28.00,-3.00,+5.00,+16.00,+9.00,+3.00,+0.00,+0.00
-79.00,-82.00,-31.00,-8.00,-2.00,+6.00,+3.00,-24.00,-71.00,-59.00,-12.00,+19.00,+30.00,+15.00,+13.00,+2.00
+36.00,+100.00,+24.00,+8.00,+9.00,+1.00,-2.00,-3.00,+127.00,+67.00,+12.00,-15.00,-19.00,-14.00,-5.00,+31.00
+78.00,+93.00,+39.00,+14.00,-1.00,+11.00,+24.00,+60.00,-127.00,-121.00,-42.00,+0.00,+5.00,-2.00,-13.00,-82.00
-67.00,-60.00,-20.00,-5.00,-7.00,-9.00,-18.00,-37.00,+21.00,+11.00,+25.00,+7.00,+1.00,+9.00,+15.00,+40.00
+82.00,+25.00,+16.00,+2.00,+1.00,+12.00,+18.00,+34.00,-95.00,-61.00,-30.00,-22.00,-15.00,-16.00,-21.00,-40.00
-84.00,-64.00,-28.00,-13.00,-4.00,-18.00,-32.00,-40.00,-10.00,+31.00,+12.00,+16.00,+11.00,+3.00,-3.00,-17.00
-30.00,-46.00,+0.00,-13.00,-16.00,-9.00,-6.00,-15.00,+14.00,-17.00,-13.00,-21.00,-23.00,-12.00,-2.00,+37.00
-1.00,+22.00,-1.00,+0.00,+3.00,-1.00,+3.00,+0.00,+18.00,+25.00,+8.00,+24.00,+32.00,+17.00,+15.00,+30.00
-71.00,+28.00,-35.00,-21.00,-15.00,-11.00,-26.00,-47.00,-80.00,-1.00,+23.00,+35.00,+13.00,+10.00,+2.00,-3.00
+66.00,+48.00,+61.00,+19.00,-12.00,+3.00,+15.00,+39.00,+64.00,-18.00,-15.00,-8.00,-25.00,+2.00,+14.00,+41.00
-62.00,-59.00,-41.00,-7.00,+16.00,-3.00,-7.00,-20.00,-57.00,-49.00,-48.00,-75.00,-53.00,-33.00,-36.00,-74.00
-19.00,-33.00,-2.00,+17.00,+37.00,+17.00,-5.00,+1.00,-74.00,-14.00,+5.00,-3.00,+1.00,-6.00,-13.00,-49.00
-50.00,-15.00,-20.00,-12.00,-6.00,-8.00,-12.00,-24.00,+23.00,+33.00,+18.00,+20.00,+26.00,+11.00,+3.00,+6.00
+9.00,+39.00,+25.00,+20.00,+20.00,+16.00,+19.00,+26.00,+86.00,+84.00,+18.00,+25.00,+8.00,-4.00,-9.00,+10.00
+56.00,+78.00,+11.00,-7.00,-21.00,-3.00,+10.00,+16.00,+33.00,+8.00,+5.00,-5.00,-5.00,-6.00,-3.00,+4.00
-42.00,+9.00,-14.00,-15.00,-16.00,-15.00,-17.00,-29.00,-60.00,-122.00,-57.00,-8.00,-1.00,+2.00,+14.00,+24.00
+77.00,-24.00,+62.00,+42.00,+25.00,+22.00,+34.00,+55.00,-1.00,+70.00,+29.00,+4.00,+8.00,-3.00,-2.00,+4.00
-107.00,-28.00,-65.00,-36.00,-30.00,-25.00,-33.00,-71.00,-93.00,-7.00,+0.00,-5.00,-6.00,-12.00,-32.00,-98.00
+117.00,+59.00,+94.00,+63.00,+36.00,+36.00,+47.00,+92.00,+127.00,+56.00,+11.00,+6.00,+8.00,+12.00,+24.00,+82.00
+44.00,+127.00,+20.00,+6.00,+11.00,+14.00,+15.00,+22.00,-61.00,+11.00,+15.00,+9.00,+8.00,+9.00,+6.00,-13.00
-13.00,-49.00,+16.00,+13.00,+0.00,+2.00,+2.00,+9.00,-52.00,-89.00,-44.00,-16.00,-13.00,-8.00,-7.00,-45.00
+4.00,-27.00,-13.00,-3.00,+2.00,-1.00,-1.00,+15.00,+59.00,+2.00,-25.00,-17.00,-9.00,-4.00,+2.00,+24.00
+12.00,+21.00,+2.00,-9.00,-4.00,-13.00,-20.00,-30.00,-63.00,+28.00,+7.00,-1.00,-5.00,-3.00,-9.00,-7.00
+20.00,-61.00,-15.00,-3.00,-14.00,+0.00,+4.00,+11.00,-2.00,+38.00,+25.00,-3.00,-14.00,-21.00,-17.00,-3.00
-43.00,-49.00,-18.00,-15.00,-26.00,-21.00,-11.00,-17.00,+61.00,-1.00,-2.00,+26.00,+42.00,+33.00,+42.00,+66.00
+64.00,+117.00,+62.00,+51.00,+76.00,+48.00,+38.00,+41.00,-71.00,+0.00,+11.00,+3.00,-11.00,-2.00,-11.00,-27.00
+0.00,-25.00,-21.00,-13.00,+2.00,-3.00,-10.00,-17.00,+42.00,+4.00,+2.00,+23.00,+11.00,+5.00,+1.00,+18.00
+7.00,-61.00,+12.00,+8.00,+5.00,+2.00,+8.00,+21.00,+41.00,-18.00,-42.00,-99.00,-86.00,-30.00,-28.00,-35.00
+37.00,-48.00,-8.00,-16.00,-32.00,-18.00,-10.00,-6.00,+88.00,+31.00,+23.00,+17.00,+23.00,+14.00,+22.00,+54.00
-78.00,-31.00,-58.00,-34.00,-15.00,-28.00,-37.00,-73.00,+26.00,+33.00,+16.00,-8.00,-12.00,-8.00,-3.00,+13.00
-69.00,-91.00,-36.00,-13.00,-6.00,-9.00,-1.00,-19.00,+17.00,+20.00,+10.00,+14.00,+22.00,+8.00,+9.00,+7.00
+95.00,+22.00,+67.00,+39.00,+27.00,+23.00,+27.00,+45.00,+34.00,-61.00,-11.00,+17.00,+12.00,+2.00,+1.00,+8.00
-3.00,+100.00,-14.00,-16.00,-8.00,-8.00,-8.00,-12.00,+20.00,+27.00,-15.00,-25.00,-28.00,-18.00,-19.00,-43.00
+94.00,+39.00,+0.00,-3.00,-14.00,-3.00,+6.00,+29.00,+126.00,+43.00,+29.00,+30.00,+43.00,+32.00,+54.00,+115.00
-124.00,-89.00,-71.00,-39.00,-34.00,-27.00,-37.00,-85.00,-95.00,+7.00,+13.00,+6.00,-7.00,-8.00,-15.00,-43.00
+11.00,+78.00,+64.00,+31.00,+16.00,+19.00,+21.00,+32.00,-109.00,-91.00,-41.00,-5.00,+2.00,-2.00,-10.00,-45.00
+107.00,+94.00,+21.00,+3.00,+8.00,+7.00,+4.00,+38.00,+36.00,+90.00,+35.00,+1.00,-7.00,-6.00,-5.00,+0.00
-30.00,-111.00,-5.00,-1.00,-6.00,-1.00,+1.00,+2.00,-33.00,-32.00,-26.00,+0.00,+5.00,-3.00,-14.00,-66.00
-64.00,-36.00,-33.00,-19.00,-16.00,-2.00,-9.00,-30.00,-31.00,-31.00,-19.00,-10.00,-4.00,+5.00,+13.00,-13.00
-120.00,+11.00,-70.00,-45.00,-33.00,-47.00,-60.00,-106.00,+32.00,-31.00,-16.00,+16.00,+16.00,+9.00,+3.00,+6.00
+44.00,+50.00,+50.00,+37.00,+22.00,+25.00,+34.00,+55.00,+41.00,+22.00,+14.00,+0.00,-1.00,-3.00,+8.00,+73.00
-22.00,-38.00,-16.00,-13.00,-13.00,-9.00,-10.00,-5.00,-7.00,+0.00,+4.00,-2.00,-3.00,+0.00,+3.00,+6.00
+6.00,+82.00,+3.00,-4.00,+0.00,-4.00,+1.00,+7.00,+91.00,+49.00,+16.00,+23.00,+37.00,+11.00,+11.00,+36.00
-81.00,-97.00,-37.00,-3.00,+27.00,+8.00,-10.00,-35.00,-45.00,+19.00,+19.00,+34.00,+17.00,+9.00,+11.00,+2.00
+21.00,+52.00,+37.00,+19.00,+4.00,+7.00,+14.00,+20.00,-58.00,-93.00,-56.00,-70.00,-79.00,-34.00,-42.00,-74.00
-63.00,+25.00,-59.00,-34.00,-14.00,-20.00,-31.00,-57.00,-69.00,-38.00,-4.00,-10.00,+1.00,-4.00,-6.00,-26.00
-61.00,-106.00,-14.00,+11.00,+1.00,+4.00,+12.00,+16.00,+105.00,+58.00,+8.00,-6.00,-4.00,-3.00,+7.00,+54.00
+119.00,+127.00,+46.00,+3.00,+0.00,+5.00,+12.00,+43.00,-59.00,-7.00,+16.00,+59.00,+46.00,+6.00,+0.00,-7.00
-103.00,-128.00,-25.00,-5.00,+3.00,-7.00,-15.00,-39.00,-1.00,+78.00,+19.00,-17.00,-9.00,-4.00,+0.00,+3.00
+36.00,+114.00,+30.00,+11.00,-8.00,+7.00,+12.00,+25.00,+22.00,-44.00,-11.00,-9.00,-5.00,-5.00,-8.00,-12.00
-24.00,-71.00,+15.00,+7.00,+6.00,+3.00,+5.00,+22.00,-24.00,+45.00,+28.00,+17.00,+8.00,+16.00,+23.00,+14.00
+38.00,+20.00,-15.00,-2.00,-5.00,+3.00,+7.00,+24.00,+69.00,+24.00,-9.00,-6.00,-13.00,-17.00,-27.00,+6.00
+15.00,+25.00,+8.00,-1.00,-1.00,+2.00,-2.00,-13.00,+5.00,+2.00,+31.00,+29.00,+22.00,+22.00,+30.00,+32.00
+71.00,+17.00,+9.00,-2.00,-1.00,+7.00,+15.00,+25.00,-17.00,-7.00,-35.00,-20.00,-15.00,-11.00,-20.00,-53.00
+54.00,+28.00,+7.00,+6.00,+6.00,+0.00,-5.00,+10.00,+73.00,+14.00,+19.00,+13.00,+5.00,+14.00,+32.00,+67.00
-22.00,-55.00,+38.00,+29.00,+14.00,+22.00,+35.00,+42.00,+36.00,+38.00,+8.00,-25.00,-24.00,-18.00,-20.00,+2.00
-54.00,+16.00,-6.00,-4.00,-5.00,-17.00,-34.00,-59.00,+63.00,+29.00,+9.00,+10.00,+14.00,+5.00,-9.00,-27.00
+46.00,+64.00,+2.00,-5.00,-5.00,-5.00,+0.00,-3.00,+53.00,+80.00,+37.00,+10.00,+7.00,+1.00,+7.00,+49.00
+55.00,+127.00,+42.00,+6.00,-30.00,-7.00,+8.00,+18.00,-69.00,-41.00,-13.00,+3.00,+1.00,-18.00,-29.00,-51.00
+8.00,+7.00,-6.00,+9.00,+36.00,+18.00,+30.00,+17.00,-51.00,-15.00,-28.00,-43.00,-39.00,-17.00,-13.00,-35.00
+47.00,+56.00,+4.00,+8.00,+30.00,+10.00,+0.00,+0.00,-17.00,-5.00,+1.00,-10.00,-13.00,-18.00,-20.00,-25.00
+7.00,-21.00,-22.00,+0.00,+9.00,+11.00,+7.00,+11.00,-18.00,+28.00,+24.00,+42.00,+24.00,+4.00,+3.00,-33.00
-93.00,-28.00,-43.00,-41.00,-52.00,-30.00,-40.00,-73.00,-24.00,-71.00,-34.00,-31.00,-18.00,+16.00,+24.00,+53.00
-30.00,-31.00,-2.00,-1.00,-5.00,-17.00,-16.00,-16.00,-63.00,-16.00,-39.00,-79.00,-71.00,-49.00,-36.00,-66.00
-92.00,-128.00,-64.00,-31.00,-17.00,-19.00,-17.00,-32.00,+39.00,+55.00,+32.00,-19.00,-27.00,-12.00,-14.00,+23.00
-35.00,-56.00,+11.00,+5.00,-1.00,-1.00,-2.00,-7.00,-17.00,-104.00,-22.00,-7.00,+15.00,+19.00,+35.00,+63.00
+23.00,+4.00,-32.00,-14.00,-2.00,+4.00,-1.00,+5.00,-99.00,-6.00,-16.00,+20.00,+24.00,+10.00,-2.00,-36.00
-128.00,-128.00,-76.00,-46.00,-44.00,-33.00,-35.00,-59.00,+45.00,+53.00,+20.00,+30.00,+20.00,+2.00,-11.00,-17.00
-7.00,-17.00,+4.00,+2.00,+4.00,+7.00,+7.00,+2.00,+3.00,-61.00,-32.00,-4.00,-3.00,-9.00,-10.00,-16.00
-75.00,-128.00,-14.00,+2.00,+0.00,+0.00,+5.00,+16.00,+7.00,+39.00,+0.00,-1.00,-1.00,+1.00,+0.00,-2.00
-115.00,-108.00,-19.00,-2.00,+8.00,+3.00,-2.00,-18.00,-52.00,-9.00,+2.00,-7.00,-13.00,-19.00,-41.00,-83.00
-84.00,-103.00,-72.00,-44.00,-31.00,-34.00,-40.00,-80.00,-81.00,-20.00,+20.00,+13.00,+20.00,+18.00,+22.00,-3.00
-48.00,-82.00,+14.00,+4.00,+0.00,+0.00,+3.00,+5.00,+32.00,+27.00,-10.00,+19.00,+24.00,+9.00,+2.00,+7.00
+26.00,+19.00,+4.00,+0.00,-7.00,-7.00,-1.00,+7.00,-26.00,+6.00,+2.00,-3.00,-29.00,-22.00,-23.00,-29.00
+69.00,-54.00,+50.00,+37.00,+27.00,+25.00,+45.00,+58.00,+37.00,-43.00,-23.00,-33.00,-25.00,-8.00,+3.00,+55.00
+115.00,+105.00,-8.00,-7.00,+5.00,-8.00,-25.00,+5.00,+116.00,+64.00,+36.00,+64.00,+62.00,+19.00,+6.00,+8.00
-56.00,-71.00,-32.00,-20.00,-21.00,-6.00,-11.00,-25.00,-90.00,-61.00,-43.00,-42.00,-61.00,-12.00,-10.00,-51.00
+37.00,+62.00,+2.00,-12.00,-29.00,-29.00,-19.00,+6.00,+44.00,+27.00,+35.00,+66.00,+53.00,+8.00,+15.00,+42.00
+101.00,+92.00,+84.00,+57.00,+54.00,+43.00,+33.00,+53.00,+118.00,+92.00,+27.00,+20.00,+10.00,+7.00,+9.00,+25.00
+11.00,-14.00,+6.00,+18.00,+31.00,+23.00,+17.00,+18.00,-63.00,-22.00,+2.00,+21.00,+1.00,-3.00,-4.00,-30.00
-49.00,-7.00,-66.00,-40.00,-11.00,-14.00,-24.00,-41.00,+22.00,-48.00,-17.00,-45.00,-27.00,-2.00,-3.00,-20.00
-2.00,+74.00,+71.00,+22.00,+9.00,+14.00,+10.00,-6.00,+27.00,+3.00,-15.00,-39.00,-25.00,-14.00,-16.00,+15.00
+50.00,+33.00,+17.00,+10.00,-5.00,+5.00,+16.00,+33.00,-28.00,-58.00,-37.00,-25.00,-18.00,-22.00,-26.00,-1.00
-18.00,-11.00,-14.00,-14.00,-25.00,-23.00,-17.00,-14.00,+53.00,+2.00,+19.00,+32.00,+42.00,+19.00,+19.00,+26.00
+85.00,+115.00,+43.00,+11.00,+1.00,-4.00,+1.00,+13.00,-74.00,+11.00,-12.00,+24.00,+25.00,-2.00,-14.00,-73.00
-44.00,-128.00,-15.00,+3.00,+3.00,+3.00,+7.00,+12.00,-71.00,-66.00,-32.00,-31.00,-29.00,-6.00,-9.00,-19.00
-58.00,-73.00,-53.00,-33.00,-18.00,-26.00,-29.00,-41.00,-77.00,+40.00,+30.00,+13.00,+14.00,+6.00,+5.00,-10.00
+85.00,+67.00,+25.00,+18.00,+14.00,+21.00,+28.00,+45.00,+78.00,-9.00,-24.00,-22.00,-23.00,-5.00,-10.00,+15.00
+100.00,+94.00,+8.00,+0.00,-12.00,-6.00,-2.00,+13.00,-54.00,-16.00,+0.00,+9.00,+9.00,-3.00,-1.00,-17.00
-37.00,-16.00,-35.00,-27.00,-6.00,-7.00,-16.00,-38.00,-58.00,-14.00,-2.00,-31.00,-31.00,-15.00,-17.00,-24.00
-33.00,-3.00,-2.00,+8.00,+10.00,+1.00,-8.00,-27.00,+38.00,+79.00,+39.00,+26.00,+14.00,+8.00,+9.00,+0.00
-87.00,-62.00,-28.00,-42.00,-66.00,-38.00,-26.00,-30.00,+32.00,+7.00,+25.00,+32.00,+27.00,+19.00,+24.00,+39.00
-58.00,-32.00,-28.00,+15.00,+55.00,+4.00,-18.00,-17.00,-24.00,-19.00,-14.00,-28.00,-23.00,-6.00,+3.00,+22.00
+98.00,+75.00,+50.00,+28.00,+11.00,+29.00,+38.00,+65.00,-45.00,+26.00,-8.00,-26.00,-15.00,+19.00,+6.00,-18.00
-62.00,-112.00,-26.00,+6.00,+18.00,+21.00,+36.00,+25.00,+61.00,+22.00,+5.00,-12.00,-21.00,-27.00,-2.00,+7.00
+51.00,+75.00,+7.00,+5.00,+8.00,+10.00,+0.00,+28.00,-6.00,+3.00,-13.00,-36.00,-27.00,-14.00,-10.00,-20.00
-9.00,+105.00,+16.00,-8.00,-4.00,+9.00,+7.00,+1.00,-22.00,-61.00,+5.00,+50.00,+43.00,+5.00,-1.00,+17.00
-25.00,-93.00,-10.00,+8.00,+19.00,+3.00,-3.00,-20.00,-20.00,+14.00,+1.00,+14.00,+10.00,+1.00,-2.00,-24.00
-13.00,+46.00,-20.00,-30.00,-32.00,-32.00,-39.00,-48.00,+26.00,-27.00,-4.00,-14.00,-18.00,-2.00,-4.00,+18.00
-32.00,-42.00,-7.00,-8.00,-11.00,+0.00,+9.00,+5.00,+42.00,+19.00,+6.00,+6.00,+12.00,+19.00,+20.00,+41.00
+127.00,+56.00,+44.00,+16.00,-5.00,+6.00,+42.00,+74.00,-56.00,-1.00,+10.00,+23.00,+13.00,-2.00,-7.00,-44.00
-88.00,+7.00,-9.00,-5.00,+6.00,-10.00,-29.00,-11.00,+30.00,+77.00,+25.00,+1.00,+7.00,+3.00,+0.00,-12.00
+89.00,+0.00,+5.00,+3.00,-7.00,+0.00,+3.00,+16.00,-15.00,-102.00,-38.00,-14.00,-18.00,-23.00,-28.00,-50.00
+18.00,-19.00,+26.00,+15.00,+10.00,-1.00,+5.00,+16.00,+58.00,+14.00,+20.00,-6.00,+1.00,+10.00,+30.00,+37.00
-58.00,-34.00,-26.00,-14.00,-8.00,-6.00,-18.00,-35.00,+93.00,+25.00,+14.00,+33.00,+29.00,+17.00,+25.00,+76.00
+32.00,+75.00,+6.00,-9.00,-12.00,-8.00,-3.00,-20.00,+94.00,+0.00,-7.00,-37.00,-48.00,-16.00,+1.00,+40.00
-67.00,-32.00,-37.00,-22.00,-16.00,-15.00,-26.00,-41.00,-72.00,-10.00,+0.00,+12.00,+22.00,+4.00,-15.00,-39.00
-25.00,+114.00,+25.00,+3.00,+1.00,+4.00,+2.00,+1.00,-25.00,-17.00,-2.00,+17.00,+11.00,+14.00,+8.00,-36.00
-56.00,-87.00,+0.00,+11.00,+2.00,-2.00,-5.00,-2.00,+27.00,+2.00,+5.00,+19.00,+11.00,+5.00,+15.00,+24.00
-37.00,-26.00,-25.00,-8.00,+18.00,+1.00,-8.00,-26.00,+9.00,-32.00,-22.00,-11.00,+4.00,-6.00,-4.00,-6.00
+10.00,-11.00,+15.00,+14.00,+35.00,+27.00,+25.00,+10.00,+37.00,+25.00,-19.00,+4.00,+13.00,-12.00,-14.00,+30.00
+24.00,-29.00,-9.00,-11.00,-15.00,-11.00,-8.00,-27.00,+17.00,-16.00,+8.00,-12.00,-24.00,+7.00,+2.00,-2.00
+70.00,-11.00,+6.00,-2.00,-21.00,-1.00,+17.00,+34.00,+28.00,+12.00,+14.00,+11.00,+25.00,+19.00,+18.00,+18.00
-117.00,-110.00,-37.00,-15.00,-24.00,-21.00,-28.00,-49.00,-14.00,+7.00,+11.00,+25.00,+15.00,-5.00,-9.00,-6.00
+101.00,+127.00,+10.00,-14.00,-8.00,-21.00,-24.00,+10.00,-30.00,-31.00,-18.00,-32.00,-35.00,-17.00,-9.00,-9.00
+7.00,+3.00,+5.00,+15.00,+10.00,+22.00,+20.00,+20.00,+58.00,+38.00,+9.00,+12.00,+20.00,+8.00,+4.00,+17.00
+22.00,+42.00,-13.00,-9.00,-9.00,-8.00,-16.00,-4.00,-8.00,-25.00,-17.00,-4.00,-7.00,-8.00,-13.00,-6.00
+41.00,-4.00,+8.00,+8.00,+0.00,+12.00,+16.00,+22.00,+0.00,-41.00,+2.00,-7.00,-9.00,+4.00,+6.00,-2.00
-101.00,-50.00,-49.00,-47.00,-35.00,-46.00,-53.00,-76.00,-26.00,+23.00,+2.00,-4.00,+2.00,+2.00,-11.00,-42.00
-51.00,-44.00,+12.00,+20.00,+12.00,+13.00,+15.00,+21.00,-12.00,+31.00,+2.00,+9.00,+0.00,-4.00,-4.00,+16.00
-37.00,-22.00,-11.00,-11.00,-23.00,-7.00,-2.00,-9.00,+4.00,-35.00,-23.00,-14.00,-12.00,-18.00,+3.00,+23.00
-49.00,-4.00,+1.00,+7.00,+36.00,+8.00,-16.00,-45.00,-28.00,-42.00,-30.00,-18.00,-12.00,+3.00,+3.00,-33.00
-45.00,-66.00,-9.00,-3.00,-10.00,-6.00,+6.00,-4.00,-85.00,-74.00,-45.00,-39.00,-27.00,-20.00,-6.00,-42.00
+116.00,+95.00,+59.00,+38.00,+30.00,+18.00,+29.00,+96.00,-24.00,+21.00,-5.00,-8.00,+2.00,+3.00,-6.00,+14.00
-28.00,-34.00,+2.00,-2.00,-7.00,+21.00,+18.00,+17.00,-9.00,+9.00,-15.00,-8.00,+3.00,+3.00,+1.00,+0.00
-63.00,-57.00,-22.00,-6.00,-7.00,-9.00,-9.00,-18.00,+43.00,+5.00,+1.00,+34.00,+34.00,+3.00,-1.00,+24.00
-55.00,-82.00,-74.00,-42.00,-33.00,-34.00,-58.00,-68.00,+2.00,-19.00,+6.00,+19.00,+16.00,+21.00,+24.00,+0.00
-39.00,-62.00,+21.00,+30.00,+42.00,+21.00,+21.00,+10.00,-26.00,+25.00,-1.00,-17.00,-28.00,-22.00,-26.00,-58.00
-29.00,-47.00,+11.00,+21.00,+13.00,+15.00,+15.00,+21.00,-82.00,-26.00,+16.00,+30.00,+35.00,+16.00,+12.00,+22.00
+38.00,+21.00,+7.00,-6.00,-15.00,+12.00,+20.00,+14.00,+56.00,+30.00,+4.00,-13.00,-20.00,-5.00,+11.00,+35.00
-81.00,+8.00,-55.00,-45.00,-23.00,-35.00,-42.00,-70.00,-12.00,-14.00,+16.00,+5.00,-8.00,+8.00,+7.00,+8.00
+39.00,+19.00,-21.00,-10.00,-15.00,+0.00,+3.00,-2.00,-72.00,-15.00,-25.00,-30.00,-11.00,-10.00,-9.00,-30.00
-29.00,+22.00,-7.00,-6.00,-5.00,-15.00,-11.00,-10.00,+4.00,+13.00,+3.00,+12.00,+4.00,+2.00,-4.00,-34.00
+82.00,+71.00,+24.00,+11.00,+6.00,+2.00,+6.00,+30.00,-2.00,-29.00,-15.00,-9.00,-7.00,-12.00,-20.00,-1.00
-8.00,+22.00,+10.00,+4.00,-8.00,+5.00,+7.00,+14.00,+63.00,+23.00,+28.00,+56.00,+68.00,+50.00,+42.00,+48.00
-20.00,-68.00,-3.00,-4.00,-10.00,-19.00,-16.00,-21.00,+0.00,-35.00,-22.00,-29.00,-51.00,-38.00,-22.00,+16.00
-31.00,+11.00,+9.00,+1.00,+1.00,+15.00,+14.00,-3.00,+14.00,-11.00,-20.00,-34.00,-25.00,-1.00,-9.00,-51.00
+63.00,-31.00,+5.00,+11.00,+24.00,+3.00,+6.00,+28.00,-29.00,+27.00,+17.00,+13.00,+21.00,+14.00,+25.00,+26.00
+59.00,+42.00,+34.00,+29.00,+22.00,+38.00,+37.00,+41.00,+15.00,+1.00,-16.00,-16.00,-12.00,-1.00,-2.00,+20.00
+19.00,+46.00,-15.00,-13.00,-11.00,+3.00,-2.00,-8.00,-35.00,-40.00,-3.00,+21.00,+33.00,+4.00,-7.00,-12.00
+29.00,-5.00,+27.00,+8.00,+6.00,-4.00,-9.00,+9.00,+78.00,+47.00,+21.00,+25.00,+8.00,+2.00,-2.00,+16.00
-75.00,-75.00,-22.00,-16.00,-33.00,-14.00,-6.00,-16.00,-38.00,-32.00,-18.00,-18.00,-10.00,-20.00,-10.00,-23.00
+105.00,+9.00,+90.00,+53.00,+34.00,+34.00,+51.00,+98.00,-11.00,+15.00,+13.00,-3.00,-18.00,+15.00,+7.00,+6.00
-104.00,-77.00,-56.00,-31.00,-18.00,-23.00,-30.00,-52.00,+2.00,+8.00,+7.00,+19.00,+19.00,-11.00,+2.00,+6.00
+44.00,+17.00,+15.00,+5.00,-13.00,-12.00,+8.00,+7.00,-44.00,-17.00,-14.00,-45.00,-40.00,-13.00,-8.00,-1.00
-21.00,+5.00,-1.00,+10.00,+28.00,+15.00,-6.00,-9.00,-68.00,-71.00,-13.00,+13.00,+27.00,+8.00,-6.00,-43.00
-48.00,+21.00,+7.00,+14.00,+30.00,+14.00,+1.00,-3.00,+43.00,+53.00,+31.00,+48.00,+28.00,+5.00,+10.00,+23.00
+47.00,-32.00,+4.00,+0.00,+4.00,+13.00,+30.00,+5.00,+24.00,+39.00,+8.00,-19.00,-30.00,+1.00,+4.00,+11.00
+24.00,+25.00,+9.00,+9.00,+4.00,+12.00,+12.00,+23.00,-12.00,-5.00,-3.00,+0.00,+1.00,-14.00,-15.00,-11.00
-36.00,+19.00,-5.00,-8.00,-15.00,-16.00,-15.00,-40.00,-30.00,-18.00,-2.00,-2.00,-11.00,+10.00,+7.00,-34.00
-8.00,+0.00,+27.00,+11.00,-37.00,-20.00,+2.00,-1.00,+10.00,-7.00,-14.00,-39.00,-33.00,-28.00,-21.00,-16.00
-8.00,+36.00,+12.00,+12.00,+52.00,+15.00,-20.00,-12.00,-23.00,-7.00,+10.00,+14.00,+11.00,+13.00,+2.00,+5.00
-29.00,+36.00,-38.00,-30.00,-12.00,-31.00,-45.00,-38.00,-6.00,+5.00,-7.00,-11.00,+1.00,+4.00,+19.00,+12.00
+27.00,-28.00,+30.00,+22.00,+14.00,+34.00,+42.00,+58.00,+36.00,+22.00,+1.00,-10.00,-8.00,-15.00,-19.00,+1.00
+43.00,+43.00,+19.00,+10.00,+5.00,+18.00,+13.00,+10.00,+6.00,+16.00,+3.00,+9.00,+6.00,+3.00,+1.00,+5.00
-19.00,+39.00,-5.00,-25.00,-57.00,-30.00,-14.00,-18.00,-51.00,-19.00,-7.00,-4.00,+9.00,+2.00,-2.00,-34.00
-8.00,-16.00,-6.00,+8.00,+22.00,-3.00,-7.00,-3.00,+45.00,+27.00,+17.00,+16.00,+0.00,+0.00,+7.00,+32.00
-15.00,+20.00,-19.00,-15.00,-13.00,-9.00,-1.00,-19.00,+15.00,+25.00,+21.00,+32.00,+21.00,+19.00,+11.00,+29.00
+21.00,+5.00,+14.00,+15.00,+14.00,-5.00,-1.00,+22.00,-41.00,-19.00,-14.00,-37.00,-24.00,-9.00,-13.00,-48.00
-27.00,-32.00,-12.00,+0.00,+16.00,+13.00,-15.00,-14.00,+27.00,-27.00,-30.00,-29.00,-18.00,-7.00,-6.00,+10.00
+52.00,+26.00,+19.00,+17.00,+28.00,+11.00,+9.00,+26.00,-15.00,+1.00,+19.00,+16.00,+19.00,+12.00,+9.00,+19.00
+54.00,+34.00,+28.00,+5.00,-19.00,+13.00,+44.00,+56.00,-59.00,-4.00,+11.00,+43.00,+27.00,+14.00,+1.00,-20.00
+39.00,+54.00,+2.00,-5.00,-6.00,+1.00,+2.00,+11.00,+3.00,-7.00,+1.00,-17.00,-23.00,-18.00,-8.00,+3.00
-3.00,-19.00,-4.00,-7.00,-14.00,-18.00,-11.00,-2.00,+32.00,+19.00,-6.00,-40.00,-44.00,-3.00,+36.00,+22.00
-40.00,-35.00,-16.00,-12.00,-10.00,+17.00,+18.00,-17.00,-18.00,-21.00,-16.00,-35.00,-34.00,-23.00,-47.00,-19.00
+6.00,+31.00,-5.00,+1.00,+10.00,-17.00,-30.00,-10.00,+34.00,+14.00,-8.00,-34.00,-22.00,-21.00,-17.00,+28.00
-8.00,-13.00,-10.00,-3.00,+17.00,+21.00,+18.00,+8.00,-32.00,-12.00,-14.00,-25.00,-16.00,+4.00,+7.00,-9.00
+8.00,+38.00,-1.00,-5.00,-22.00,-37.00,-50.00,-13.00,-3.00,+0.00,+5.00,+14.00,+23.00,+10.00,+10.00,-16.00
+1.00,-68.00,+15.00,+14.00,+24.00,+21.00,+29.00,+6.00,+3.00,-13.00,-8.00,+9.00,+21.00,+15.00,+10.00,+14.00
+32.00,+26.00,+3.00,+5.00,+3.00,-8.00,+9.00,+27.00,+33.00,+26.00,+20.00,+43.00,+38.00,+0.00,-5.00,+15.00
-52.00,-3.00,-20.00,-24.00,-37.00,-7.00,-5.00,-17.00,+2.00,+1.00,+7.00,+34.00,+14.00,+0.00,+2.00,+0.00
+32.00,+53.00,+21.00,+8.00,+4.00,+8.00,+21.00,+5.00,-23.00,-3.00,-6.00,-29.00,-26.00,-1.00,-10.00,-10.00
-8.00,-46.00,+0.00,+1.00,-19.00,-11.00,-17.00,+4.00,+91.00,+31.00,+2.00,-9.00,-9.00,-10.00,+3.00,+12.00
-7.00,+4.00,-7.00,-4.00,-13.00,-11.00,+4.00,-10.00,-25.00,-21.00,-9.00,-7.00,-3.00,+4.00,+3.00,+9.00
-29.00,+28.00,-24.00,-10.00,+13.00,-17.00,-47.00,-45.00,+2.00,+7.00,+10.00,+16.00,+15.00,+5.00,+3.00,-10.00
-81.00,-59.00,-14.00,-10.00,-6.00,-11.00,-6.00,-38.00,+1.00,-5.00,+3.00,+10.00,+11.00,-2.00,-12.00,-6.00
+8.00,+6.00,+4.00,-1.00,-29.00,-6.00,+7.00,+7.00,-29.00,-5.00,+3.00,+18.00,+19.00,-3.00,+2.00,-13.00
+4.00,+24.00,+1.00,-6.00,+6.00,-22.00,-22.00,-12.00,+30.00,+15.00,+5.00,+6.00,-6.00,+0.00,-1.00,+5.00
+26.00,+40.00,-1.00,-11.00,-27.00,-8.00,-12.00,+0.00,+13.00,-5.00,-9.00,-24.00,-33.00,-14.00,-14.00,+5.00
-10.00,-8.00,-5.00,+10.00,+33.00,+44.00,+42.00,-4.00,-11.00,-3.00,-13.00,-43.00,-26.00,-12.00,-7.00,-1.00
-20.00,+13.00,-2.00,+3.00,+17.00,+17.00,+8.00,-7.00,-18.00,-41.00,-10.00,+15.00,+25.00,+4.00,-11.00,-7.00
-27.00,-34.00,-12.00,-4.00,+21.00,+22.00,+8.00,-23.00,+1.00,+29.00,+8.00,+6.00,+2.00,-7.00,+2.00,-28.00
+0.00,-22.00,+3.00,+8.00,+18.00,+4.00,+5.00,+6.00,-1.00,+15.00,+11.00,+45.00,+41.00,+7.00,+20.00,+24.00
+22.00,+6.00,+3.00,-2.00,+3.00,+7.00,+2.00,+17.00,-8.00,-3.00,-1.00,-10.00,-10.00,-13.00,-50.00,-13.00
+4.00,-52.00,-3.00,-13.00,-29.00,-26.00,-24.00,-1.00,-19.00,-10.00,-11.00,-25.00,-29.00,+6.00,+45.00,+7.00
+14.00,+6.00,-2.00,-16.00,-42.00,-11.00,+26.00,+17.00,-3.00,+18.00,-14.00,-43.00,-34.00,-16.00,-18.00,-17.00
+20.00,-5.00,+14.00,+17.00,+29.00,+8.00,+15.00,+14.00,+77.00,-9.00,+4.00,+7.00,+15.00,+13.00,+10.00,+26.00
-20.00,-21.00,-9.00,-1.00,+10.00,-3.00,-11.00,-15.00,+21.00,+0.00,+4.00,+29.00,+28.00,+7.00,+4.00,+25.00
-19.00,+21.00,+15.00,+14.00,+23.00,+22.00,+8.00,+2.00,+11.00,+14.00,+9.00,+17.00,+20.00,+7.00,-2.00,-1.00
-9.00,+15.00,-13.00,-13.00,-22.00,-16.00,-28.00,-29.00,-13.00,-2.00,+5.00,+10.00,+2.00,-3.00,+8.00,-4.00
-19.00,-74.00,-1.00,+4.00,+6.00,+2.00,+6.00,+34.00,+18.00,+20.00,+6.00,-9.00,-7.00,+8.00,+1.00,+8.00
+2.00,-32.00,-3.00,-4.00,-18.00,-8.00,+17.00,+8.00,-1.00,-12.00,-11.00,-12.00,-3.00,+5.00,+7.00,+5.00
-7.00,-5.00,-11.00,-13.00,-22.00,-23.00,-30.00,-17.00,-39.00,-13.00,-1.00,-6.00,-16.00,-26.00,-20.00,-22.00
-18.00,-6.00,-5.00,-7.00,-22.00,-11.00,+14.00,-13.00,+19.00,+12.00,+2.00,-5.00,-1.00,+6.00,+13.00,+3.00
-5.00,-3.00,+10.00,+27.00,+69.00,+45.00,+18.00,+1.00,-32.00,-24.00,-5.00,+12.00,+14.00,-16.00,-7.00,-12.00
-11.00,+21.00,-3.00,-9.00,-11.00,-11.00,-15.00,-12.00,+1.00,+6.00,+23.00,+68.00,+52.00,+41.00,+5.00,+7.00
+1.00,+16.00,-2.00,-4.00,-3.00,-4.00,+7.00,-2.00,-18.00,-4.00,-18.00,-59.00,-55.00,-28.00,-1.00,-15.00
+8.00,-2.00,+2.00,+2.00,-22.00,-13.00,-27.00,+13.00,+20.00,+0.00,-5.00,-3.00,-12.00,+8.00,-3.00,+24.00
+19.00,-10.00,+0.00,-3.00,-6.00,-21.00,-27.00,-6.00,-22.00,-16.00,-18.00,-44.00,-35.00,-8.00,-10.00,-4.00
+5.00,+20.00,-3.00,-7.00,-10.00,-2.00,+31.00,+3.00,-3.00,+6.00,+11.00,+18.00,+19.00,-24.00,-7.00,-10.00
+4.00,+30.00,+3.00,+14.00,+50.00,+1.00,-25.00,-24.00,+42.00,+29.00,+6.00,+2.00,+1.00,+4.00,+6.00,+17.00
-53.00,-60.00,-38.00,-14.00,+16.00,+30.00,+30.00,-19.00,-68.00,-87.00,-23.00,+2.00,+21.00,+24.00,+7.00,-24.00
+1.00,+21.00,+24.00,+8.00,-4.00,-4.00,+7.00,+16.00,-7.00,+16.00,+1.00,+10.00,+14.00,+1.00,-3.00,-2.00
+66.00,+23.00,+20.00,+10.00,+7.00,+7.00,-12.00,+29.00,-9.00,+15.00,+1.00,+4.00,-7.00,-4.00,+6.00,+13.00
+8.00,+5.00,-5.00,-12.00,-29.00,-12.00,+10.00,+17.00,+5.00,-5.00,+6.00,+15.00,+13.00,+9.00,+3.00,+10.00
-17.00,-12.00,-5.00,-4.00,-11.00,-23.00,-30.00,-10.00,-7.00,+5.00,-2.00,-12.00,-13.00,-17.00,-14.00,-22.00
-24.00,-9.00,-6.00,+1.00,+11.00,-2.00,-6.00,-18.00,-41.00,-18.00,-7.00,-5.00,-4.00,+6.00,-5.00,-9.00
-3.00,+27.00,+2.00,-3.00,-16.00,-2.00,+2.00,-3.00,+22.00,-4.00,+3.00,-5.00,-8.00,-4.00,+7.00,+3.00
-19.00,-37.00,-20.00,-8.00,+1.00,+19.00,+24.00,+3.00,-35.00,-9.00,-2.00,+4.00,+9.00,+10.00,-9.00,-20.00
+33.00,+14.00,+2.00,+2.00,+10.00,+1.00,-9.00,+3.00,+44.00,+28.00,+21.00,+59.00,+45.00,+17.00,+19.00,+29.00
+17.00,+11.00,+2.00,-13.00,-40.00,-11.00,-8.00,+11.00,-18.00,-15.00,-24.00,-81.00,-71.00,-25.00,-19.00,-9.00
-13.00,-18.00,-2.00,-1.00,-17.00,-20.00,-8.00,-9.00,+1.00,+3.00,-13.00,-62.00,-65.00,-29.00,-7.00,-5.00
+20.00,+11.00,+2.00,+11.00,+20.00,+35.00,+7.00,+13.00,+5.00,-3.00,-5.00,-7.00,+3.00,-8.00,-14.00,+8.00
-8.00,+8.00,+9.00,+17.00,+47.00,+22.00,+18.00,+1.00,-2.00,-9.00,+4.00,+13.00,+9.00,+6.00,+17.00,-7.00
+13.00,+12.00,+7.00,+2.00,-1.00,-6.00,+6.00,-19.00,+8.00,+15.00,+9.00,+21.00,+33.00,+3.00,-14.00,-6.00
-4.00,-6.00,+0.00,-2.00,-5.00,+17.00,+14.00,+19.00,-22.00,-9.00,-1.00,+12.00,+3.00,+3.00,+12.00,-10.00
-57.00,-47.00,-25.00,-14.00,-9.00,-22.00,-36.00,-25.00,+2.00,+2.00,-7.00,-18.00,-14.00,-6.00,-16.00,-2.00
+57.00,+30.00,+43.00,+18.00,-3.00,+1.00,-11.00,+27.00,-61.00,-33.00,-19.00,-24.00,-17.00,-15.00,-17.00,-23.00
+21.00,-24.00,-5.00,-5.00,-13.00,+5.00,+29.00,+5.00,+52.00,+10.00,+13.00,+23.00,+13.00,-4.00,+23.00,+41.00
-46.00,-13.00,-16.00,-8.00,+2.00,-15.00,-23.00,-26.00,-7.00,+4.00,+2.00,+0.00,+7.00,+10.00,-5.00,+1.00
+48.00,+59.00,+22.00,+13.00,+2.00,+18.00,+45.00,+19.00,+9.00,+16.00,+4.00,+21.00,+21.00,+7.00,-3.00,-16.00
+31.00,+31.00,-5.00,-5.00,-6.00,-3.00,-8.00,+8.00,+20.00,+12.00,+8.00,+6.00,-4.00,+3.00,+6.00,+14.00
-26.00,-44.00,-12.00,-4.00,-2.00,-8.00,-8.00,-11.00,-18.00,-3.00,-7.00,-16.00,-16.00,+3.00,-2.00,-7.00
+14.00,+1.00,+16.00,+9.00,+11.00,+3.00,+8.00,+10.00,+2.00,-11.00,-14.00,-18.00,-16.00,-18.00,-4.00,-7.00
-3.00,+3.00,-10.00,-13.00,-32.00,-21.00,-6.00,-6.00,+6.00,+8.00,+7.00,+18.00,+21.00,+2.00,+9.00,+6.00
-13.00,-6.00,-9.00,-10.00,-21.00,-15.00,-36.00,-8.00,+27.00,+12.00,-4.00,-20.00,-37.00,-9.00,+4.00,+7.00
-11.00,-2.00,-6.00,+11.00,+37.00,+34.00,+15.00,-5.00,-17.00,-6.00,+1.00,+14.00,+34.00,+30.00,+8.00,-7.00
-10.00,+1.00,-6.00,-1.00,+11.00,-11.00,-18.00,-9.00,-2.00,-5.00,+8.00,+21.00,+0.00,-14.00,-10.00,+2.00
-4.00,-9.00,+7.00,+1.00,+11.00,+20.00,+13.00,-8.00,-19.00,-10.00,-15.00,-36.00,-25.00,+7.00,+9.00,-7.00
+3.00,-1.00,+4.00,+3.00,-3.00,-5.00,-34.00,+8.00,+16.00,+9.00,+4.00,+0.00,+3.00,-6.00,-9.00,+8.00
+1.00,+6.00,-2.00,-13.00,-33.00,-29.00,+14.00,+11.00,-18.00,-6.00,+6.00,+16.00,+4.00,-27.00,-12.00,-12.00
-6.00,-4.00,-3.00,-3.00,+6.00,-10.00,-21.00,-16.00,+11.00,+12.00,-2.00,-2.00,+2.00,+12.00,+5.00,-8.00
-1.00,+21.00,-1.00,+1.00,+11.00,+10.00,+4.00,-7.00,+8.00,+0.00,+0.00,+5.00,-5.00,-1.00,+8.00,+4.00
-31.00,-39.00,-11.00,-8.00,-10.00,-20.00,-8.00,+1.00,-42.00,-18.00,-7.00,-8.00,+6.00,-4.00,-22.00,-22.00
+68.00,+74.00,+36.00,+18.00,+16.00,+32.00,+27.00,+38.00,+5.00,+6.00,+6.00,+7.00,+3.00,+3.00,+0.00,-4.00
+29.00,+3.00,-5.00,-3.00,-3.00,+6.00,+15.00,+27.00,-36.00,-5.00,+4.00,+9.00,+5.00,-4.00,+0.00,-6.00
+12.00,+4.00,+0.00,-2.00,-12.00,-30.00,-25.00,+2.00,+18.00,+5.00,-2.00,-3.00,-6.00,-2.00,+0.00,+5.00
-22.00,-5.00,-10.00,-8.00,-9.00,+5.00,+11.00,-20.00,+30.00,+29.00,+17.00,+2.00,+7.00,+4.00,+6.00,+7.00
-33.00,-24.00,-10.00,+2.00,+12.00,-21.00,-27.00,-22.00,-11.00,+2.00,+3.00,+9.00,+1.00,+10.00,-6.00,-15.00
-7.00,+0.00,+4.00,+1.00,-3.00,-3.00,-18.00,-6.00,-8.00,-11.00,-9.00,-7.00,-12.00,-15.00,+2.00,-10.00
+12.00,-4.00,+1.00,-1.00,-4.00,-19.00,-8.00,+3.00,-11.00,-10.00,+5.00,+13.00,+17.00,+7.00,+3.00,+14.00
-14.00,-9.00,+0.00,+1.00,-9.00,+16.00,+19.00,-6.00,+24.00,+8.00,+1.00,-1.00,-5.00,+1.00,-10.00,+15.00
+7.00,+3.00,+4.00,-1.00,-2.00,-11.00,-57.00,-10.00,-19.00,-20.00,-21.00,-24.00,-36.00,-29.00,-42.00,-24.00
+0.00,+4.00,+0.00,+5.00,+20.00,+26.00,+30.00,+2.00,+9.00,+1.00,-5.00,-11.00,-3.00,+11.00,+22.00,+12.00
-2.00,-6.00,+0.00,+5.00,+8.00,+10.00,+36.00,+8.00,+5.00,-2.00,+3.00,+16.00,+19.00,+9.00,-3.00,+3.00
+1.00,+2.00,+7.00,+4.00,+1.00,-10.00,+17.00,-10.00,-1.00,-7.00,-11.00,-23.00,-12.00,-14.00,+20.00,+8.00
+0.00,+14.00,-4.00,+0.00,-4.00,+4.00,-21.00,+8.00,-8.00,-3.00,+4.00,+11.00,+6.00,-8.00,-8.00,-3.00
-17.00,-18.00,-6.00,-4.00,-3.00,+4.00,-2.00,-9.00,+10.00,+3.00,+3.00,+5.00,+6.00,+3.00,-11.00,+2.00
-17.00,-41.00,-1.00,+1.00,+4.00,-8.00,-26.00,-7.00,-5.00,-6.00,+3.00,+5.00,+2.00,+2.00,+0.00,-5.00
+47.00,+49.00,+9.00,+3.00,+4.00,+0.00,+16.00,+12.00,+7.00,+6.00,-5.00,-8.00,-3.00,-5.00,-9.00,-6.00
-2.00,+20.00,-5.00,-8.00,-10.00,+2.00,+11.00,-8.00,-15.00,+0.00,+4.00,+6.00,+4.00,+5.00,+12.00,+2.00
+7.00,-6.00,-3.00,+0.00,-5.00,+7.00,+14.00,+8.00,+28.00,-6.00,-4.00,+7.00,+9.00,+12.00,+4.00,+10.00
-66.00,-52.00,-16.00,-12.00,-13.00,-17.00,-14.00,-25.00,+1.00,-4.00,+4.00,+5.00,-5.00,-4.00,-5.00,+1.00
+46.00,+20.00,+7.00,+4.00,+7.00,+1.00,-4.00,+25.00,-6.00,+4.00,+6.00,+5.00,+4.00,+3.00,+4.00,-6.00
-16.00,-11.00,-9.00,-3.00,-7.00,+1.00,+15.00,+7.00,+25.00,+20.00,+3.00,+12.00,+23.00,+14.00,+15.00,+15.00
+1.00,+6.00,+3.00,+3.00,+3.00,+5.00,-3.00,-3.00,-6.00,-1.00,+1.00,-7.00,-28.00,-6.00,-7.00,-3.00
-9.00,-10.00,-2.00,-5.00,-11.00,-8.00,-13.00,-15.00,-13.00,-14.00,-10.00,-20.00,-22.00,-24.00,-12.00,-8.00
-37.00,-28.00,-13.00,-9.00,-1.00,-1.00,-13.00,-15.00,-6.00,-16.00,-3.00,+8.00,+11.00,+5.00,+8.00,+4.00
+8.00,-3.00,-1.00,+1.00,+17.00,-13.00,+27.00,-10.00,+1.00,-7.00,-2.00,-7.00,-3.00,-7.00,+14.00,-3.00
-10.00,-8.00,-1.00,-4.00,-2.00,-5.00,-21.00,+2.00,-12.00,-5.00,-5.00,-25.00,-21.00,+2.00,+14.00,-6.00
+18.00,+18.00,+10.00,+6.00,+1.00,+25.00,+54.00,+16.00,+5.00,+0.00,-3.00,-5.00,-12.00,-9.00,-18.00,+2.00
-7.00,+6.00,+2.00,+3.00,+11.00,+5.00,-22.00,+5.00,-13.00,-10.00,-4.00,-11.00,-11.00,-8.00,+16.00,-1.00
+10.00,-5.00,-1.00,-2.00,-9.00,+20.00,+13.00,+14.00,-4.00,-3.00,+4.00,+11.00,+21.00,+10.00,+8.00,+1.00
-7.00,-3.00,-1.00,+1.00,-2.00,-5.00,-8.00,-14.00,-2.00,-6.00,+9.00,+28.00,+28.00,+4.00,-2.00,+0.00
+5.00,+16.00,-2.00,-4.00,+1.00,-11.00,-27.00,-6.00,+0.00,+3.00,-5.00,-24.00,-20.00,-8.00,+0.00,+3.00
-17.00,-14.00,-10.00,-9.00,-14.00,-5.00,+27.00,-4.00,+1.00,-2.00,-3.00,-8.00,-6.00,-7.00,-16.00,-8.00
-13.00,-29.00,-10.00,-7.00,-10.00,-7.00,-6.00,-12.00,+6.00,-3.00,+0.00,+4.00,+3.00,+12.00,+10.00,+11.00
-9.00,-18.00,+4.00,+5.00,+1.00,-6.00,-6.00,-10.00,+4.00,+8.00,+5.00,+5.00,+6.00,-3.00,+4.00,+11.00
+43.00,+41.00,+11.00,+9.00,+11.00,+8.00,-12.00,+19.00,-3.00,+4.00,+4.00,+14.00,+17.00,+22.00,+9.00,-18.00
+17.00,+10.00,+8.00,+5.00,+2.00,+5.00,+18.00,+18.00,+4.00,+16.00,+3.00,+6.00,+4.00,+9.00,-14.00,+4.00
-22.00,-33.00,-12.00,-9.00,-18.00,-15.00,-27.00,-7.00,+23.00,-9.00,-7.00,-17.00,-28.00,-10.00,+5.00,+9.00
-6.00,-7.00,-10.00,-9.00,-4.00,-2.00,+21.00,-3.00,-72.00,-34.00,-12.00,-1.00,+5.00,+6.00,-16.00,-35.00
+2.00,+14.00,+1.00,+2.00,+8.00,+5.00,-15.00,-2.00,+40.00,+18.00,+14.00,+21.00,+21.00,+0.00,+12.00,+20.00
-21.00,-26.00,-2.00,-3.00,-11.00,-3.00,+5.00,-10.00,+15.00,+3.00,+5.00,+16.00,+7.00,+3.00,+0.00,+11.00
+6.00,+12.00,+4.00,+3.00,-3.00,+3.00,-8.00,-3.00,-3.00,+9.00,-6.00,-24.00,-28.00,-21.00,-4.00,-9.00
+2.00,+17.00,+4.00,+3.00,+12.00,-9.00,-44.00,-8.00,+13.00,+1.00,-2.00,+9.00,+10.00,+10.00,-12.00,+6.00
+0.00,-4.00,-1.00,+1.00,+5.00,+0.00,+6.00,+3.00,-28.00,-19.00,-10.00,-15.00,-10.00,-4.00,+4.00,-12.00
-16.00,-5.00,-5.00,-5.00,-5.00,+15.00,+5.00,-24.00,+7.00,+3.00,-1.00,-5.00,-10.00,-18.00,-7.00,+10.00
+1.00,+3.00,+1.00,-5.00,-14.00,-3.00,+24.00,+19.00,+1.00,+2.00,+10.00,+38.00,+49.00,+8.00,-16.00,-7.00
+3.00,+8.00,+6.00,+3.00,-4.00,-3.00,-7.00,+7.00,-6.00,-11.00,-17.00,-43.00,-50.00,-8.00,+21.00,-4.00
-3.00,-9.00,-5.00,+3.00,+8.00,+7.00,+2.00,+3.00,-19.00,-3.00,-2.00,+2.00,+1.00,+2.00,-9.00,-11.00
-8.00,-2.00,-3.00,+1.00,+4.00,-7.00,-20.00,-18.00,+6.00,-4.00,-6.00,-16.00,-9.00,-1.00,-7.00,-4.00
-2.00,-4.00,-5.00,-4.00,-5.00,-8.00,+1.00,-11.00,-17.00,-8.00,+0.00,+14.00,+12.00,+1.00,+7.00,-2.00
-4.00,-10.00,-6.00,-5.00,-2.00,-9.00,-9.00,-8.00,+30.00,+20.00,+10.00,+10.00,+12.00,+1.00,-6.00,+16.00
+12.00,+13.00,+4.00,+2.00,+5.00,+24.00,+37.00,+16.00,-15.00,-6.00,-3.00,-6.00,-8.00,-5.00,-7.00,-16.00
-22.00,-35.00,-10.00,-5.00,-4.00,-10.00,-21.00,-5.00,+9.00,+8.00,-1.00,+1.00,+16.00,+9.00,+12.00,+10.00
-2.00,+52.00,+17.00,+11.00,+15.00,+9.00,+1.00,+5.00,-12.00,-6.00,-5.00,-20.00,-35.00,+2.00,+5.00,-4.00
+56.00,+34.00,+4.00,-2.00,-8.00,-3.00,+11.00,+27.00,+30.00,+19.00,+4.00,+10.00,+15.00,-3.00,-8.00,-6.00
-5.00,+4.00,-1.00,-5.00,-14.00,-16.00,-25.00,-6.00,-63.00,-24.00,-16.00,-13.00,-16.00,-11.00,-9.00,-14.00
-19.00,-22.00,-5.00,-6.00,-11.00,-5.00,+7.00,-1.00,-19.00,-23.00,-4.00,+4.00,+3.00,-1.00,-6.00,-11.00
-7.00,-18.00,-4.00,+7.00,+18.00,+15.00,+11.00,-5.00,+30.00,+17.00,+5.00,+3.00,+9.00,+11.00,+3.00,+16.00
-22.00,-20.00,-5.00,-6.00,-7.00,-11.00,-28.00,-19.00,+19.00,+11.00,+5.00,+3.00,+4.00,-5.00,-5.00,+0.00
+6.00,+7.00,-2.00,-3.00,-8.00,+0.00,+39.00,+0.00,-3.00,-2.00,+2.00,+3.00,+1.00,+2.00,+2.00,+1.00
+17.00,+17.00,+7.00,+5.00,+22.00,+22.00,+34.00,+6.00,-14.00,-2.00,-3.00,-2.00,+0.00,-2.00,-4.00,-7.00
-6.00,-14.00,-4.00,-7.00,-17.00,-26.00,-23.00,+8.00,+8.00,-1.00,-5.00,-6.00,-6.00,-1.00,-5.00,+2.00
-5.00,+4.00,-2.00,-3.00,-6.00,+0.00,+3.00,-6.00,-3.00,-2.00,-1.00,+10.00,+18.00,-6.00,-10.00,-2.00
+5.00,-8.00,+0.00,-1.00,+1.00,-13.00,-25.00,-5.00,+17.00,+4.00,+6.00,+13.00,+8.00,+5.00,+11.00,+19.00
-7.00,+7.00,-1.00,+2.00,+5.00,+6.00,+6.00,+0.00,+0.00,+1.00,-1.00,-5.00,-21.00,+0.00,+7.00,-7.00
+9.00,-1.00,-3.00,-4.00,-6.00,+10.00,+22.00,-8.00,-9.00,+0.00,+4.00,+8.00,+21.00,+10.00,-2.00,-8.00
-8.00,+1.00,-1.00,+2.00,-2.00,-3.00,-7.00,-8.00,-7.00,-7.00,-14.00,-40.00,-56.00,-21.00,-10.00,-1.00
-8.00,-12.00,-1.00,+0.00,+1.00,-2.00,-10.00,+11.00,+11.00,-2.00,+1.00,+4.00,+6.00,+5.00,+5.00,-2.00
+0.00,+9.00,-2.00,-2.00,-12.00,-5.00,-5.00,-12.00,+1.00,-4.00,-1.00,-5.00,+1.00,+1.00,-2.00,+4.00
-1.00,-11.00,-3.00,+0.00,+16.00,+1.00,-6.00,+1.00,+0.00,+5.00,+0.00,+2.00,-1.00,-5.00,-3.00,-2.00
-33.00,-43.00,-14.00,-6.00,-3.00,+16.00,+18.00,-4.00,-1.00,+5.00,+6.00,+19.00,+25.00,+10.00,+11.00,+4.00
+34.00,+57.00,+14.00,+1.00,+4.00,-4.00,-10.00,-1.00,+3.00,-4.00,-1.00,-5.00,-4.00,+1.00,-5.00,+7.00
+51.00,+47.00,+25.00,+14.00,+10.00,-3.00,+0.00,+26.00,-5.00,+9.00,+0.00,-5.00,-7.00,-6.00,-2.00,-13.00
+1.00,-7.00,-9.00,-5.00,-8.00,+2.00,-3.00,-2.00,-16.00,-17.00,-8.00,-8.00,-7.00,-3.00,-5.00,-3.00
-10.00,-15.00,-3.00,-1.00,+2.00,+1.00,+9.00,+0.00,+3.00,+1.00,+2.00,+8.00,+12.00,+7.00,+3.00,-5.00
-22.00,-33.00,-8.00,-4.00,-1.00,-4.00,-1.00,-7.00,+35.00,+12.00,+0.00,-9.00,-18.00,-4.00,+2.00,+13.00
-13.00,-7.00,-8.00,-8.00,-5.00,-7.00,-13.00,-4.00,-5.00,-3.00,+1.00,+2.00,+2.00,-14.00,-9.00,+1.00
+8.00,+9.00,+9.00,+3.00,+0.00,+0.00,-18.00,+1.00,-3.00,+3.00,+1.00,-3.00,-3.00,+4.00,+11.00,-3.00
+4.00,+2.00,-2.00,-1.00,+0.00,+0.00,+10.00,-4.00,-10.00,-5.00,-1.00,+10.00,+13.00,+2.00,-3.00,-8.00
-17.00,-6.00,-7.00,-6.00,-15.00,-14.00,-11.00,+0.00,-6.00,+0.00,+0.00,+3.00,-11.00,-7.00,-4.00,-5.00
+5.00,+9.00,+2.00,-1.00,+1.00,-11.00,-28.00,-6.00,+6.00,-5.00,-3.00,+3.00,+17.00,+8.00,+2.00,+3.00
-7.00,-14.00,-4.00,-4.00,-10.00,+5.00,-2.00,-7.00,-5.00,-5.00,+5.00,+11.00,+4.00,-7.00,-1.00,-1.00
+9.00,+7.00,-1.00,-1.00,+4.00,+4.00,+9.00,+2.00,-9.00,-14.00,-12.00,-30.00,-38.00,-9.00,-5.00,+3.00
-2.00,-5.00,+0.00,+1.00,+3.00,+6.00,+5.00,+1.00,+0.00,+2.00,+4.00,+7.00,+11.00,+5.00,-6.00,-4.00
-5.00,-4.00,-1.00,+0.00,+5.00,-9.00,-13.00,-1.00,-1.00,-4.00,-7.00,-13.00,-12.00,-4.00,+1.00,-2.00
-6.00,-13.00,-4.00,-4.00,-10.00,-5.00,+7.00,-6.00,+10.00,+5.00,+1.00,+9.00,+8.00,+6.00,+2.00,+11.00
-11.00,+5.00,-1.00,-3.00,-9.00,-6.00,+0.00,+10.00,-16.00,-3.00,+7.00,+16.00,+23.00,+4.00,-1.00,-10.00
-11.00,-17.00,-2.00,-1.00,-1.00,-5.00,-5.00,-6.00,-6.00,-6.00,-5.00,-6.00,-8.00,-3.00,-2.00,-5.00
+4.00,+19.00,+3.00,+1.00,-3.00,+0.00,-4.00,+1.00,+10.00,+5.00,+1.00,+2.00,+1.00,+10.00,+6.00,+7.00
+34.00,+21.00,+8.00,+1.00,+2.00,+4.00,+14.00,+19.00,-17.00,-11.00,-6.00,-10.00,-8.00,-6.00,-2.00,-4.00
+11.00,+5.00,+2.00,+3.00,+2.00,+10.00,+9.00,+11.00,-6.00,-1.00,-1.00,+3.00,+4.00,-3.00,-5.00,-1.00
-16.00,-18.00,-7.00,-2.00,+2.00,-3.00,-6.00,-2.00,+18.00,+10.00,-1.00,-6.00,-5.00,+0.00,-3.00,-4.00
-22.00,-30.00,-15.00,-4.00,-2.00,-8.00,-5.00,-18.00,-2.00,-3.00,+0.00,+0.00,+0.00,-10.00,-10.00,+3.00
-12.00,-5.00,-1.00,-2.00,-6.00,-3.00,-20.00,-9.00,-7.00,-3.00,-6.00,-10.00,-14.00,-4.00,-5.00,-7.00
+1.00,+15.00,+4.00,+2.00,+6.00,-1.00,+16.00,-2.00,-3.00,+1.00,+2.00,+1.00,+3.00,+2.00,-1.00,-3.00
+10.00,-5.00,+0.00,+0.00,-1.00,+5.00,-2.00,+2.00,+3.00,-1.00,+4.00,+13.00,+18.00,+8.00,+8.00,+5.00
-9.00,-9.00,-3.00,-3.00,-9.00,-7.00,+2.00,+6.00,+3.00,+4.00,-1.00,-7.00,-17.00,-10.00,-11.00,-5.00
+5.00,+8.00,+2.00,+5.00,+9.00,+4.00,+1.00,+6.00,-6.00,-2.00,-3.00,-8.00,-3.00,-5.00,-1.00,-1.00
-5.00,-17.00,-1.00,-1.00,+6.00,+19.00,+17.00,-3.00,-10.00,-7.00,+0.00,+4.00,+2.00,-3.00,-3.00,-7.00
+7.00,+28.00,+3.00,+1.00,+1.00,+1.00,-2.00,-21.00,-22.00,-8.00,-6.00,-1.00,+20.00,+6.00,-8.00,-15.00
+6.00,-4.00,-2.00,-2.00,+4.00,+5.00,+7.00,+15.00,+29.00,+11.00,+2.00,-9.00,-22.00,+3.00,+7.00,+14.00
-14.00,-5.00,-3.00,-3.00,-5.00,-7.00,-7.00,-6.00,-7.00,-10.00,-3.00,-8.00,-6.00,-1.00,-5.00,-8.00
+0.00,+4.00,-1.00,-2.00,-10.00,-6.00,-8.00,-7.00,-10.00,-4.00,-1.00,+2.00,+7.00,-1.00,+5.00,+1.00
-14.00,-32.00,-2.00,+1.00,-2.00,-4.00,-1.00,-3.00,+5.00,+7.00,-2.00,-4.00,-8.00,-12.00,-9.00,-8.00
+20.00,+40.00,+9.00,+5.00,+2.00,-4.00,+0.00,-1.00,-1.00,-2.00,+1.00,-1.00,+3.00,+4.00,+6.00,+3.00
+2.00,+9.00,+1.00,+0.00,-1.00,-1.00,+8.00,+3.00,+9.00,+4.00,+0.00,+1.00,-4.00,-1.00,+1.00,+3.00
-6.00,-4.00,-5.00,-2.00,-4.00,-4.00,-4.00,+9.00,+0.00,-1.00,-1.00,+2.00,+7.00,+2.00,+0.00,-1.00
+1.00,-3.00,-6.00,-5.00,+1.00,+2.00,+6.00,+5.00,+8.00,-1.00,-3.00,-7.00,-9.00,-16.00,-7.00,+3.00
-19.00,-22.00,-5.00,-5.00,-5.00,-8.00,-14.00,-13.00,-9.00,-3.00,-1.00,+3.00,+3.00,+8.00,+1.00,-9.00
-8.00,-18.00,-4.00,-3.00,+4.00,-2.00,-21.00,-9.00,+13.00,+6.00,+2.00,+2.00,+2.00,-1.00,+3.00,+14.00
+25.00,+27.00,+9.00,+6.00,+3.00,+0.00,+17.00,+8.00,+5.00,+6.00,+1.00,+3.00,+0.00,-2.00,-2.00,-8.00
+2.00,+5.00,+3.00,+3.00,+0.00,-6.00,+3.00,+4.00,-1.00,-1.00,-3.00,-7.00,-8.00,-3.00,-2.00,+5.00
-9.00,-15.00,-1.00,+0.00,+5.00,+11.00,+5.00,-1.00,-7.00,-4.00,-4.00,+0.00,+1.00,-4.00,-1.00,-4.00
-6.00,+0.00,-2.00,-3.00,-4.00,-1.00,+7.00,-8.00,-9.00,-7.00,-4.00,-1.00,+0.00,-4.00,-7.00,-8.00
-7.00,-16.00,-1.00,+0.00,-2.00,-3.00,-1.00,+4.00,+16.00,+4.00,+0.00,+1.00,+1.00,+7.00,+11.00,+9.00
+6.00,+12.00,+0.00,-2.00,-3.00,-8.00,-4.00,-1.00,-14.00,-8.00,-5.00,-5.00,-7.00,+0.00,-4.00,-2.00
-8.00,-22.00,-6.00,+1.00,+8.00,+15.00,+16.00,+2.00,+17.00,+5.00,-1.00,+3.00,+6.00,+2.00,+2.00,+12.00
+15.00,+26.00,+4.00,+1.00,+6.00,+4.00,+6.00,+9.00,-1.00,-2.00,+2.00,+2.00,+2.00,+2.00,-3.00,+1.00
+4.00,+1.00,+2.00,-1.00,-8.00,-10.00,-18.00,+3.00,-4.00,-4.00,+2.00,+12.00,+3.00,+7.00,-4.00,-3.00
+3.00,-1.00,-2.00,-1.00,+0.00,+11.00,+2.00,-1.00,+7.00,+4.00,-1.00,-12.00,-18.00,-8.00,-1.00,-4.00
-1.00,+3.00,-5.00,-2.00,-2.00,+0.00,-1.00,+6.00,-19.00,-9.00,-3.00,+0.00,+2.00,-1.00,-1.00,-3.00
-7.00,-14.00,-7.00,-4.00,-6.00,+1.00,+15.00,+2.00,-7.00,+1.00,-4.00,-1.00,-3.00,-3.00,-4.00,-9.00
-8.00,-19.00,-3.00,-2.00,-6.00,-11.00,-18.00,-28.00,+6.00,+2.00,+3.00,+2.00,+8.00,+0.00,+1.00,+8.00
+15.00,+20.00,+3.00,+1.00,+2.00,-3.00,-4.00,+7.00,-5.00,-4.00,+2.00,+4.00,+3.00,+6.00,+8.00,+6.00
+13.00,+1.00,+5.00,+0.00,+2.00,+1.00,-2.00,+4.00,+4.00,-7.00,-7.00,-8.00,-5.00,-3.00,-4.00,-5.00
-4.00,-6.00,-2.00,-2.00,-1.00,-2.00,+5.00,-1.00,-29.00,-3.00,+2.00,+0.00,+4.00,+0.00,-2.00,-17.00
+4.00,+8.00,-2.00,-2.00,+0.00,+6.00,+12.00,+7.00,+19.00,+1.00,-4.00,-5.00,-4.00,-11.00,-8.00,+1.00
-10.00,-11.00,-6.00,-1.00,-2.00,-1.00,-11.00,-8.00,-14.00,-7.00,-1.00,+0.00,-1.00,+13.00,+13.00,+2.00
-9.00,-2.00,+1.00,-2.00,-1.00,+0.00,+14.00,-5.00,-4.00,-5.00,-3.00,-3.00,-5.00,-9.00,-13.00,-8.00
+5.00,+3.00,+2.00,-2.00,+1.00,+0.00,-2.00,+2.00,+4.00,+4.00,+1.00,-1.00,-1.00,+4.00,+5.00,+5.00
-8.00,-4.00,-5.00,-1.00,-2.00,-1.00,-14.00,+0.00,-17.00,-11.00,+0.00,+2.00,+4.00,-6.00,-7.00,-6.00
+2.00,-1.00,-1.00,-2.00,+0.00,+1.00,-1.00,-1.00,+22.00,+7.00,+0.00,-3.00,-5.00,-4.00,-5.00,+4.00
+0.00,-7.00,-2.00,-1.00,-5.00,+3.00,+1.00,-4.00,-2.00,+1.00,+2.00,+5.00,+5.00,-1.00,+3.00,-2.00
-7.00,+1.00,-2.00,+0.00,-10.00,-26.00,-25.00,-5.00,+6.00,-1.00,-5.00,-1.00,+0.00,-3.00,-1.00,-3.00
-1.00,-4.00,-1.00,+2.00,+9.00,+14.00,+23.00,+6.00,-10.00,+0.00,-3.00,-4.00,-3.00,-2.00,-1.00,+0.00
-9.00,-11.00,-6.00,-2.00,+1.00,+9.00,+2.00,+0.00,-5.00,+0.00,+2.00,+7.00,+2.00,+1.00,+4.00,-6.00
+5.00,+6.00,+2.00,+0.00,+1.00,+0.00,-2.00,+4.00,+7.00,+5.00,+3.00,-2.00,-3.00,+6.00,+3.00,+10.00
+1.00,-6.00,-1.00,-1.00,+0.00,-2.00,-2.00,-6.00,-13.00,-6.00,-3.00,-3.00,-6.00,-5.00,-9.00,-1.00
+3.00,+9.00,+1.00,-3.00,-5.00,-10.00,-6.00,+6.00,+28.00,+11.00,-2.00,-6.00,-5.00,-4.00,+2.00,-1.00
-4.00,-4.00,+0.00,+1.00,-2.00,-4.00,-8.00,-1.00,-10.00,-8.00,+1.00,+8.00,+15.00,+8.00,+5.00,+9.00
-5.00,+4.00,-2.00,+0.00,-1.00,+0.00,-5.00,-17.00,+0.00,-3.00,-1.00,+1.00,-1.00,-1.00,-3.00,-3.00
+8.00,+2.00,+2.00,+4.00,+2.00,+4.00,+3.00,-2.00,-19.00,-8.00,-7.00,-9.00,-12.00,-7.00,-6.00,-10.00
-16.00,-14.00,-5.00,-4.00,-4.00,-9.00,-19.00,-2.00,+21.00,+5.00,+1.00,+0.00,+3.00,+1.00,-2.00,+7.00
+19.00,+34.00,+3.00,-1.00,+1.00,-3.00,-9.00,+2.00,-7.00,+6.00,+4.00,-1.00,+0.00,+5.00,-2.00,-10.00
-21.00,-35.00,-8.00,-4.00,-3.00,-8.00,-1.00,+19.00,-19.00,-13.00,-1.00,-4.00,-2.00,+1.00,-2.00,-3.00
-5.00,-3.00,+2.00,+2.00,+1.00,+9.00,+12.00,+3.00,+15.00,+5.00,+2.00,-1.00,+2.00,+0.00,+4.00,+12.00
-7.00,+2.00,-1.00,+0.00,-6.00,-16.00,-32.00,-11.00,-11.00,-5.00,-1.00,-3.00,-5.00,-1.00,+2.00,-6.00
-7.00,-17.00,-2.00,-1.00,+2.00,+0.00,-1.00,+4.00,-2.00,-4.00,-4.00,-2.00,-2.00,-6.00,-9.00,-3.00
+5.00,+5.00,-2.00,+0.00,+0.00,-2.00,-5.00,+1.00,+8.00,+6.00,-1.00,+3.00,+1.00,-3.00,-5.00,+3.00
+3.00,+8.00,-2.00,-1.00,+2.00,-1.00,+1.00,-5.00,+5.00,+3.00,-1.00,-3.00,-1.00,+4.00,+8.00,+2.00
+1.00,-3.00,+2.00,-3.00,-12.00,-3.00,+8.00,+2.00,-14.00,-7.00,-5.00,+0.00,-2.00,+0.00,-2.00,-6.00
-3.00,-10.00,-3.00,-2.00,+5.00,-1.00,+2.00,-2.00,+2.00,-1.00,-3.00,-8.00,-4.00,-5.00,-2.00,+3.00
-3.00,-2.00,+2.00,+4.00,+6.00,+1.00,+0.00,-11.00,-3.00,+3.00,+2.00,+1.00,+5.00,+2.00,+0.00,-4.00
+10.00,+16.00,+3.00,+0.00,+4.00,+5.00,+4.00,+6.00,+10.00,+0.00,-3.00,-8.00,-14.00,-5.00,-5.00,+1.00
-8.00,-11.00,-8.00,-3.00,-3.00,+3.00,+5.00,-10.00,-12.00,-6.00,-2.00,-6.00,-10.00,-4.00,-5.00,-9.00
+16.00,+40.00,+7.00,+3.00,-4.00,-4.00,+0.00,+7.00,+4.00,-3.00,+0.00,+7.00,+8.00,-4.00,+0.00,+0.00
+5.00,+1.00,-2.00,-2.00,-1.00,-1.00,+2.00,+1.00,-23.00,-11.00,-6.00,-1.00,+3.00,+1.00,+2.00,-11.00
+1.00,-17.00,-7.00,-5.00,+4.00,+15.00,+21.00,+4.00,+11.00,+7.00,+3.00,+4.00,+6.00,-5.00,-6.00,-3.00
-7.00,-4.00,-2.00,+0.00,+3.00,-5.00,-9.00,-4.00,+11.00,+6.00,+1.00,-5.00,-2.00,-1.00,+2.00,+9.00
-3.00,-20.00,-2.00,+1.00,-2.00,-2.00,+0.00,+4.00,-9.00,-5.00,-6.00,-3.00,-5.00,-5.00,-11.00,-13.00
+18.00,+24.00,+6.00,+0.00,-1.00,+0.00,-4.00,+7.00,-22.00,-11.00,-1.00,+0.00,+2.00,-1.00,+6.00,-8.00
-11.00,-12.00,-4.00,-2.00,-7.00,-6.00,-9.00,-7.00,+2.00,-1.00,+0.00,-2.00,-3.00,+0.00,+0.00,+5.00
+8.00,+4.00,+0.00,+2.00,+2.00,+2.00,-3.00,+1.00,-20.00,-2.00,-2.00,+0.00,+0.00,+1.00,-5.00,-8.00
-3.00,-6.00,-4.00,-2.00,-2.00,+2.00,+11.00,+6.00,+5.00,+4.00,-2.00,-4.00,-3.00,+2.00,-4.00,-8.00
-6.00,-1.00,+4.00,-1.00,-4.00,-8.00,-24.00,-8.00,+14.00,+4.00,+2.00,+0.00,-2.00,-10.00,-7.00,+6.00
-4.00,+1.00,+1.00,-2.00,-1.00,-7.00,-7.00,-2.00,-3.00,-1.00,-2.00,-5.00,+0.00,+5.00,+6.00,-1.00
+5.00,+4.00,+0.00,-3.00,+2.00,-2.00,+8.00,-1.00,-15.00,-6.00,-3.00,+0.00,+0.00,-2.00,+0.00,-6.00
-10.00,-8.00,-2.00,-1.00,-4.00,+6.00,+2.00,-7.00,-5.00,-2.00,-3.00,-3.00,-3.00,-4.00,-6.00,-5.00
-5.00,-3.00,-2.00,-4.00,-3.00,-1.00,-4.00,-4.00,+1.00,-2.00,-1.00,+0.00,-5.00,-6.00,-3.00,+1.00
-13.00,-14.00,-3.00,-3.00,+0.00,+4.00,+2.00,-9.00,-6.00,-6.00,+0.00,+4.00,+2.00,+5.00,-2.00,+0.00
+15.00,+27.00,+3.00,+1.00,+3.00,-4.00,-14.00,-2.00,+4.00,+6.00,+3.00,+2.00,+5.00,+3.00,+0.00,+3.00
-8.00,-6.00,-1.00,-2.00,-4.00,-4.00,-4.00,-3.00,+9.00,+8.00,+5.00,+13.00,+10.00,+4.00,+6.00,+10.00
+4.00,-2.00,-3.00,-5.00,-4.00,+0.00,-2.00,-4.00,-14.00,-7.00,-5.00,-6.00,+2.00,-1.00,-5.00,-8.00
-4.00,-3.00,+1.00,+3.00,+3.00,-5.00,-11.00,+5.00,+2.00,-4.00,-6.00,-21.00,-29.00,-4.00,+7.00,-1.00
-27.00,-22.00,-3.00,-2.00,+1.00,+1.00,+1.00,+6.00,-8.00,-4.00,-2.00,+0.00,-7.00,-7.00,-3.00,+4.00
+14.00,+3.00,+1.00,-1.00,+1.00,-6.00,+4.00,+0.00,+9.00,+6.00,+0.00,-7.00,-3.00,-1.00,-2.00,+3.00
+31.00,+38.00,+7.00,+4.00,+0.00,+5.00,+10.00,+8.00,+12.00,-9.00,-4.00,+1.00,+5.00,+1.00,-1.00,+9.00
-9.00,-13.00,-6.00,-1.00,-3.00,-4.00,-1.00,-2.00,-21.00,+3.00,+6.00,+10.00,+10.00,+2.00,+0.00,-12.00
+7.00,-8.00,-1.00,+0.00,+2.00,+3.00,+2.00,+3.00,-13.00,-12.00,-3.00,-3.00,+1.00,-2.00,-7.00,-3.00
-5.00,+17.00,+2.00,+1.00,-5.00,-5.00,-2.00,-3.00,-11.00,-2.00,-3.00,-5.00,-8.00,-4.00,+0.00,-11.00
-13.00,-23.00,-7.00,-2.00,-3.00,-4.00,-7.00,-5.00,+41.00,+19.00,+5.00,+0.00,-2.00,+4.00,+5.00,+7.00
+5.00,+2.00,+2.00,+1.00,+3.00,+9.00,+11.00,+3.00,+2.00,-7.00,-3.00,-1.00,-2.00,-4.00,-3.00,+8.00
+4.00,+6.00,+0.00,-2.00,-7.00,-9.00,-15.00,-5.00,-3.00,+2.00,-1.00,-1.00,+0.00,+2.00,-1.00,-1.00
-10.00,-21.00,-5.00,-3.00,+5.00,+3.00,+18.00,+4.00,-5.00,-4.00,-1.00,+0.00,-1.00,-3.00,-1.00,+3.00
-1.00,+1.00,-5.00,-4.00,-8.00,-11.00,-11.00,+3.00,-18.00,-8.00,-3.00,-4.00,-8.00,-5.00,-7.00,-18.00
+0.00,+3.00,+0.00,+1.00,+2.00,+4.00,+3.00,-1.00,-2.00,-1.00,-1.00,+5.00,+6.00,+1.00,-3.00,-6.00
-2.00,-4.00,-1.00,-2.00,-7.00,+4.00,+7.00,-2.00,+16.00,+8.00,+2.00,+1.00,-4.00,+2.00,+4.00,+11.00
-10.00,-11.00,-2.00,-5.00,-5.00,+1.00,-3.00,-10.00,+7.00,+1.00,-1.00,-6.00,-4.00,-1.00,-5.00,+2.00
+2.00,+9.00,+4.00,+3.00,+10.00,-3.00,-11.00,+3.00,-2.00,-2.00,-1.00,+0.00,+0.00,+0.00,+6.00,+7.00
-2.00,+0.00,+1.00,-2.00,-4.00,-11.00,-12.00,-7.00,-2.00,-1.00,-3.00,-3.00,+1.00,-5.00,-8.00,+1.00
+7.00,+8.00,+5.00,+2.00,+5.00,+15.00,+16.00,-1.00,+2.00,+0.00,+0.00,+0.00,+0.00,-7.00,-2.00,-3.00
+6.00,+5.00,-2.00,-2.00,-1.00,+5.00,+6.00,+4.00,-10.00,-3.00,-1.00,+1.00,+0.00,-1.00,+4.00,-3.00
-32.00,-29.00,-6.00,-4.00,-3.00,+4.00,+7.00,-6.00,-15.00,+0.00,+1.00,+1.00,-6.00,+3.00,-7.00,-4.00
+33.00,+9.00,+2.00,+5.00,+1.00,-6.00,-12.00,+15.00,+15.00,+1.00,+0.00,+3.00,+4.00,-7.00,-4.00,+0.00
+14.00,+21.00,+2.00,+1.00,+0.00,-2.00,-6.00,-16.00,-23.00,-8.00,-4.00,-9.00,-10.00,+0.00,+2.00,-3.00
+2.00,-10.00,-5.00,-2.00,-3.00,-5.00,-6.00,-1.00,-21.00,-11.00,-2.00,-1.00,-1.00,+0.00,-7.00,-22.00
+1.00,-7.00,+0.00,+1.00,+1.00,+6.00,+10.00,+17.00,+1.00,+6.00,+0.00,+0.00,+2.00,+3.00,+5.00,+15.00
-5.00,+2.00,+2.00,-2.00,-2.00,-1.00,+0.00,-4.00,+15.00,+2.00,+0.00,-1.00,+0.00,-1.00,+0.00,-1.00
-5.00,-9.00,-4.00,-2.00,-3.00,+2.00,+5.00,+0.00,-2.00,-2.00,-3.00,+2.00,+4.00,+1.00,-1.00,-9.00
-11.00,-1.00,+2.00,-1.00,-3.00,-3.00,-8.00,-11.00,+3.00,-4.00,-3.00,+0.00,-3.00,-1.00,+3.00,+7.00
+3.00,+0.00,-2.00,-2.00,+0.00,+1.00,+7.00,-1.00,-9.00,-3.00,-3.00,-4.00,-5.00,+0.00,-3.00,-2.00
-5.00,-2.00,-4.00,-4.00,-3.00,-5.00,-3.00,-5.00,+1.00,+3.00,+1.00,-3.00,-1.00,+0.00,-2.00,-6.00
-2.00,-3.00,-3.00,-1.00,+0.00,+1.00,+10.00,+6.00,+0.00,-5.00,+1.00,+3.00,+4.00,-1.00,+0.00,-3.00
+5.00,+14.00,+3.00,+3.00,+2.00,-3.00,-12.00,-6.00,+6.00,+1.00,-1.00,-4.00,-7.00,-1.00,-3.00,+8.00
+3.00,+7.00,+1.00,+1.00,+1.00,-1.00,-7.00,-9.00,-3.00,-3.00,-6.00,+0.00,-2.00,-10.00,-4.00,-13.00
-7.00,+3.00,-2.00,+0.00,+1.00,-3.00,-5.00,-2.00,+2.00,-1.00,+1.00,-2.00,-1.00,+8.00,+12.00,+9.00
-13.00,-13.00,-2.00,-2.00,-6.00,-14.00,-16.00,-6.00,+12.00,+0.00,+0.00,-3.00,-2.00,-2.00,+2.00,+8.00
+6.00,-3.00,-2.00,+0.00,+1.00,-3.00,-1.00,+1.00,-9.00,-6.00,+0.00,+3.00,+3.00,+2.00,-4.00,-3.00
-5.00,-9.00,-6.00,-1.00,+2.00,+2.00,+4.00,-11.00,+8.00,+0.00,-4.00,-13.00,-13.00,-4.00,+0.00,+0.00
+0.00,+4.00,+0.00,-2.00,-5.00,+4.00,+2.00,+3.00,-8.00,-1.00,-5.00,-2.00,-1.00,-3.00,-5.00,-11.00
+10.00,-3.00,+3.00,+0.00,+4.00,+6.00,+5.00,+21.00,-2.00,-2.00,-2.00,+1.00,-1.00,-5.00,-1.00,+3.00
+10.00,+17.00,+2.00,+2.00,+2.00,-4.00,-6.00,+0.00,+13.00,+5.00,+1.00,-1.00,+2.00,-1.00,+1.00,+4.00
-6.00,-15.00,-2.00,-3.00,-6.00,-5.00,-11.00,-8.00,-20.00,-4.00,+1.00,+3.00,+3.00,+1.00,+0.00,-5.00
-9.00,-6.00,-3.00,-2.00,-3.00,-3.00,-2.00,-4.00,+13.00,-2.00,-3.00,+7.00,+10.00,-2.00,-2.00,+2.00
-3.00,-8.00,-1.00,-3.00,-2.00,-3.00,-1.00,-1.00,-22.00,-4.00,-2.00,-7.00,-16.00,-1.00,-4.00,-11.00
-5.00,-4.00,-1.00,-2.00,-2.00,-3.00,+3.00,+0.00,+11.00,+4.00,+1.00,+1.00,-2.00,+0.00,+2.00,+7.00
-5.00,-3.00,-5.00,-1.00,-1.00,-1.00,+4.00,-3.00,-4.00,-4.00,-2.00,-1.00,+1.00,+1.00,-1.00,+0.00
+1.00,+12.00,+0.00,+0.00,-1.00,+2.00,+2.00,-7.00,+8.00,+10.00,+4.00,-1.00,-3.00,-3.00,+0.00,+5.00
+0.00,-8.00,-1.00,-1.00,+1.00,+0.00,+0.00,+6.00,-2.00,+0.00,-1.00,+4.00,+10.00,+2.00,+0.00,-1.00
-4.00,-5.00,-2.00,-3.00,-5.00,+3.00,-1.00,+0.00,-4.00,+0.00,-2.00,-2.00,-1.00,-2.00,+0.00,-5.00
-1.00,+4.00,+1.00,+2.00,+2.00,-2.00,-1.00,+6.00,+8.00,+3.00,+1.00,-1.00,+0.00,-1.00,+1.00,-1.00
-2.00,-11.00,-7.00,-5.00,-5.00,+1.00,+10.00,-6.00,-11.00,-6.00,-5.00,+3.00,+1.00,+2.00,-4.00,-2.00
+4.00,+11.00,+4.00,+2.00,+0.00,-3.00,-1.00,+0.00,-10.00,-5.00,-2.00,-1.00,-2.00,-1.00,+1.00,-9.00
-5.00,-5.00,-1.00,-1.00,+3.00,+0.00,+4.00,-1.00,+9.00,+1.00,+3.00,+1.00,-3.00,-2.00,-5.00,+4.00
-2.00,+9.00,+0.00,-2.00,-3.00,+4.00,+7.00,+9.00,+10.00,+6.00,-3.00,-2.00,+1.00,+1.00,+4.00,-2.00
-6.00,-17.00,-3.00,-1.00,-6.00,-3.00,-10.00,-3.00,-10.00,-6.00,+0.00,+1.00,+0.00,-1.00,-2.00,-5.00
+4.00,+16.00,+0.00,-3.00,+3.00,+4.00,+1.00,-1.00,+1.00,+0.00,-3.00,-4.00,-1.00,+1.00,+2.00,-1.00
-12.00,-23.00,+0.00,-1.00,-5.00,+2.00,+2.00,+7.00,-2.00,-2.00,-2.00,-5.00,-1.00,+1.00,+0.00,+0.00
+13.00,+21.00,+2.00,+0.00,-1.00,+1.00,+0.00,-3.00,-4.00,-2.00,+0.00,-2.00,-1.00,-2.00,-5.00,-9.00
+0.00,+17.00,+3.00,-1.00,-2.00,-4.00,-4.00,-5.00,-8.00,-3.00,-1.00,+0.00,-4.00,-3.00,-6.00,-3.00
+9.00,+3.00,+0.00,-1.00,+0.00,+2.00,+2.00,+9.00,+11.00,+3.00,-1.00,-3.00,-1.00,-2.00,+3.00,+5.00
-8.00,-11.00,-1.00,+1.00,-2.00,+0.00,+4.00,+1.00,-13.00,-6.00,-1.00,-1.00,-2.00,-1.00,+2.00,+2.00
+4.00,-3.00,-2.00,-5.00,-1.00,-3.00,+3.00,-1.00,+4.00,+2.00,+1.00,+3.00,+0.00,-1.00,-5.00,-1.00
-9.00,-9.00,-3.00,-3.00,+0.00,-5.00,-7.00,-4.00,+1.00,+2.00,+0.00,-3.00,-3.00,-3.00,+2.00,-3.00
-6.00,-5.00,+1.00,+0.00,-1.00,-3.00,+1.00,-3.00,+1.00,+0.00,+0.00,+2.00,+3.00,+1.00,-4.00,-2.00
+4.00,+2.00,-2.00,-2.00,-1.00,-2.00,-2.00,+0.00,+6.00,+1.00,-2.00,-1.00,+0.00,-4.00,+1.00,+1.00
-3.00,-9.00,-1.00,+0.00,-4.00,-2.00,+1.00,+6.00,-9.00,-3.00,-2.00,-3.00,-4.00,-2.00,-3.00,-5.00
-3.00,-13.00,-3.00,-1.00,+4.00,+3.00,-7.00,+4.00,-5.00,-6.00,-5.00,+0.00,+0.00,+0.00,+1.00,+4.00
+9.00,+26.00,+3.00,+1.00,-1.00,+0.00,+27.00,+7.00,+6.00,+3.00,+0.00,-2.00,-2.00,+4.00,-1.00,+4.00
-1.00,-2.00,-2.00,+0.00,-3.00,-7.00,-6.00,+0.00,-1.00,-1.00,-3.00,-8.00,-6.00,-5.00,-5.00,-5.00
-7.00,-9.00,-1.00,-2.00,-3.00,+1.00,-3.00,-1.00,-4.00,-5.00,-3.00,-1.00,+1.00,+0.00,+0.00,-1.00
+2.00,+5.00,+2.00,+2.00,+5.00,+4.00,+3.00,-2.00,+5.00,+4.00,+0.00,-3.00,-6.00,-1.00,+2.00,-6.00
-1.00,-4.00,-2.00,+0.00,+0.00,+0.00,-1.00,+3.00,-2.00,-1.00,-2.00,+2.00,+1.00,+1.00,-8.00,-9.00
+0.00,-1.00,+0.00,+1.00,+1.00,-2.00,-9.00,-6.00,+7.00,+3.00,+0.00,+3.00,+1.00,+4.00,+7.00,+2.00
+0.00,+1.00,+0.00,+0.00,+1.00,+1.00,+9.00,+1.00,+3.00,-1.00,+0.00,-3.00,-2.00,+0.00,+2.00,+16.00
+3.00,+3.00,-2.00,-2.00,+0.00,+0.00,-5.00,-4.00,-26.00,-6.00,-2.00,-3.00,-1.00,-2.00,-8.00,-7.00
-8.00,-18.00,-4.00,-1.00,+0.00,+2.00,-7.00,-33.00,+12.00,+1.00,+1.00,+3.00,+8.00,+0.00,+0.00,+1.00
+4.00,+13.00,+2.00,-2.00,-2.00,+1.00,+2.00,+5.00,-6.00,-6.00,-5.00,-4.00,-6.00,-3.00,-1.00,-4.00
+2.00,+1.00,+3.00,+2.00,-2.00,-4.00,-8.00,-6.00,+5.00,+8.00,+2.00,+1.00,-3.00,-3.00,+0.00,-3.00
-4.00,-6.00,-2.00,+0.00,+1.00,-3.00,+5.00,+2.00,-2.00,-11.00,-4.00,-1.00,-3.00,+0.00,+2.00,+3.00
+7.00,-5.00,-6.00,-2.00,-4.00,-2.00,-6.00,-1.00,-2.00,+3.00,-3.00,-6.00,-4.00,-4.00,-3.00,+1.00
+2.00,+0.00,+0.00,+1.00,+0.00,+1.00,-1.00,-2.00,-4.00,-11.00,+1.00,+3.00,+6.00,+1.00,+0.00,+0.00
-1.00,-2.00,-4.00,-1.00,-1.00,-1.00,-2.00,-3.00,+1.00,+3.00,-2.00,+2.00,+0.00,+1.00,-1.00,+0.00
-7.00,-1.00,+1.00,-1.00,-5.00,-3.00,-3.00,-4.00,+0.00,+3.00,+1.00,+0.00,-1.00,-2.00,-1.00,+0.00
+3.00,-1.00,-1.00,+1.00,+0.00,-5.00,-6.00,-1.00,-3.00,-18.00,-12.00,-1.00,-2.00,-5.00,-8.00,-3.00
-1.00,-6.00,-3.00,-1.00,+2.00,+0.00,+0.00,+5.00,-3.00,+7.00,+1.00,-3.00,-4.00,-2.00,+2.00,-2.00
+4.00,+5.00,-1.00,-3.00,-1.00,-2.00,-3.00,+2.00,+0.00,+2.00,+12.00,+4.00,+0.00,-1.00,+1.00,+2.00
-3.00,-5.00,+0.00,+0.00,+3.00,+3.00,+1.00,-1.00,+2.00,-11.00,-15.00,-4.00,-4.00,-2.00,-1.00,-3.00
-12.00,-3.00,-1.00,-2.00,+1.00,-2.00,-7.00,-1.00,+7.00,+5.00,+7.00,+0.00,-2.00,+0.00,+3.00,+8.00
-1.00,+2.00,+1.00,+1.00,+3.00,+0.00,-3.00,+3.00,-7.00,+0.00,+1.00,-1.00,+0.00,+0.00,-5.00,-4.00
-18.00,-24.00,-2.00,-1.00,-7.00,-2.00,+0.00,-6.00,-3.00,+2.00,-4.00,-4.00,-4.00,-3.00,-7.00,-7.00
+16.00,+24.00,-1.00,-2.00,-4.00,+0.00,+4.00,+8.00,+0.00,+7.00,+5.00,-1.00,+1.00,+1.00,-6.00,-5.00
+3.00,+6.00,+1.00,+1.00,+0.00,-2.00,-4.00,-10.00,-4.00,-4.00,+0.00,-4.00,-1.00,-3.00,+5.00,-2.00
+3.00,+0.00,+0.00,-1.00,+0.00,+0.00,-1.00,-6.00,+3.00,+16.00,+11.00,+4.00,-2.00,-2.00,-5.00,+2.00
-11.00,-12.00,-8.00,-4.00,+0.00,-1.00,-2.00,-3.00,-2.00,-19.00,-13.00,-4.00,-3.00,+0.00,-1.00,-2.00
-4.00,+8.00,+12.00,+1.00,-2.00,-1.00,-1.00,-7.00,+2.00,-3.00,-1.00,-1.00,+1.00,+1.00,-1.00,+7.00
-8.00,-10.00,-12.00,-4.00,-5.00,+2.00,+0.00,+5.00,-1.00,+0.00,+1.00,+0.00,-1.00,-3.00,-3.00,-6.00
-2.00,+8.00,+5.00,+1.00,+0.00,-1.00,-2.00,-2.00,+2.00,+10.00,+5.00,+0.00,+2.00,+1.00,+2.00,+1.00
+0.00,-1.00,-2.00,+2.00,-2.00,+0.00,-3.00,-3.00,+2.00,-5.00,-6.00,-2.00,+1.00,+1.00,+4.00,+3.00
+2.00,-9.00,-1.00,+0.00,-2.00,-1.00,-3.00,-1.00,-4.00,-2.00,+3.00,+0.00,-2.00,-3.00,-3.00,+1.00
+1.00,+10.00,+7.00,+2.00,+0.00,+0.00,-1.00,+6.00,-1.00,+12.00,+1.00,-3.00,-3.00,+0.00,-2.00,-3.00
+2.00,-9.00,-7.00,+0.00,+1.00,+0.00,+5.00,+7.00,-6.00,-18.00,-8.00,-3.00,+2.00,+1.00,-1.00,+5.00
+7.00,+3.00,+0.00,+1.00,+2.00,-1.00,-1.00,-25.00,+5.00,+15.00,+20.00,+4.00,-1.00,-1.00,-6.00,-8.00
+1.00,+3.00,-2.00,+1.00,+3.00,-1.00,+0.00,+9.00,-12.00,-28.00,-31.00,-10.00,-6.00,-3.00,-7.00,-8.00
-5.00,-2.00,-1.00,-2.00,-2.00,-3.00,-3.00,-6.00,+4.00,+5.00,+8.00,+6.00,+5.00,+5.00,+10.00,+9.00
-6.00,-4.00,-4.00,-3.00,-4.00,-2.00,-4.00,-4.00,-1.00,+6.00,-2.00,-2.00,+0.00,-3.00,-14.00,-1.00
-1.00,+3.00,-2.00,-4.00,+0.00,-2.00,-1.00,+1.00,+1.00,+9.00,+5.00,-1.00,-1.00,+1.00,+15.00,+5.00
-2.00,-10.00,-6.00,-1.00,-1.00,+1.00,-2.00,+5.00,+5.00,+9.00,+6.00,+1.00,-1.00,+0.00,-2.00,+5.00
-1.00,+3.00,+5.00,+0.00,-1.00,+1.00,+0.00,+3.00,+3.00,+17.00,+6.00,+1.00,+0.00,-1.00,+2.00,+0.00
-2.00,-8.00,-7.00,-4.00,-3.00,-1.00,-2.00,-9.00,-6.00,-34.00,-13.00,-2.00,-3.00,-1.00,+0.00,-10.00
+3.00,+15.00,+10.00,+1.00,+0.00,+1.00,+3.00,+6.00,-6.00,-6.00,-6.00,-2.00,-2.00,-5.00,-10.00,-8.00
+1.00,-8.00,-3.00,+0.00,+0.00,-1.00,+2.00,-2.00,+1.00,+13.00,+7.00,+2.00,+0.00,-1.00,-1.00,-4.00
+1.00,-6.00,-4.00,+0.00,-3.00,-1.00,-2.00,+4.00,-6.00,-27.00,-8.00,-3.00,-2.00,-3.00,+0.00,-3.00
+0.00,-1.00,-1.00,+0.00,-2.00,-1.00,-5.00,-5.00,+4.00,+16.00,+6.00,+0.00,-3.00,-2.00,+4.00,+5.00
+3.00,-1.00,-3.00,-1.00,+0.00,+0.00,-1.00,+10.00,-7.00,-12.00,-10.00,-5.00,-2.00,+0.00,-10.00,-5.00
-12.00,-4.00,-2.00,-3.00,-1.00,-2.00,-1.00,-7.00,+2.00,+13.00,+15.00,+4.00,+0.00,+3.00,+12.00,-5.00
-9.00,-10.00,-14.00,-1.00,+2.00,-6.00,-4.00,-6.00,+5.00,+9.00,-6.00,-1.00,-2.00,-1.00,-10.00,+4.00
-6.00,+0.00,+10.00,-1.00,-1.00,+0.00,+3.00,-10.00,-7.00,-27.00,-10.00,-4.00,-2.00,-1.00,+4.00,-7.00
-8.00,-11.00,-18.00,-5.00,-2.00,-2.00,-4.00,+8.00,+3.00,-4.00,+1.00,+0.00,+0.00,+1.00,+4.00,+9.00
+6.00,+11.00,+7.00,+0.00,+1.00,+1.00,+8.00,+5.00,+1.00,-1.00,-6.00,-3.00,+3.00,-2.00,-16.00,-10.00
+3.00,+1.00,-2.00,+1.00,-1.00,+3.00,+4.00,+19.00,+3.00,+28.00,+19.00,+2.00,+0.00,+0.00,-7.00,-7.00
+2.00,-4.00,+3.00,+1.00,-1.00,-5.00,-6.00,-21.00,-3.00,-7.00,-1.00,+3.00,+3.00,-3.00,+7.00,-15.00
-7.00,-7.00,-2.00,+0.00,-5.00,-4.00,-2.00,+3.00,+0.00,-11.00,-7.00,-2.00,-2.00,-3.00,-1.00,+14.00
-2.00,-8.00,-4.00,-1.00,-3.00,-1.00,-5.00,-3.00,-1.00,+0.00,+7.00,+3.00,+2.00,-1.00,+1.00,+1.00
-6.00,+0.00,+1.00,+1.00,+0.00,+2.00,-5.00,-16.00,+0.00,-1.00,-5.00,-2.00,-2.00,-1.00,-3.00,+3.00
+8.00,-1.00,-7.00,-2.00,-2.00,+0.00,+1.00,+5.00,+0.00,+8.00,-5.00,-3.00,-3.00,-3.00,-7.00,-7.00
+3.00,+5.00,+2.00,-3.00,-5.00,-2.00,-4.00,-7.00,+1.00,+7.00,+4.00,-1.00,-2.00,-1.00,+0.00,+1.00
+5.00,-4.00,-6.00,+0.00,+0.00,-1.00,+3.00,+5.00,+2.00,+1.00,+1.00,-2.00,-5.00,-4.00,-1.00,+2.00
+3.00,+11.00,+11.00,-2.00,-4.00,-1.00,+1.00,+4.00,-4.00,-15.00,-10.00,-4.00,+0.00,+0.00,-2.00,-5.00
