-1.00,-1.00,-1.00,-1.00,+0.00,+3.00,-2.00,-6.00,+9.00,+5.00,+1.00,+1.00,+1.00,-2.00,-2.00,-1.00
-1.00,-2.00,+0.00,-1.00,+2.00,+1.00,-1.00,-5.00,-4.00,-3.00,-2.00,-1.00,-2.00,-1.00,-3.00,-1.00
-3.00,-4.00,-1.00,-1.00,-1.00,+1.00,+1.00,+7.00,+1.00,-1.00,+0.00,+0.00,-2.00,+2.00,+2.00,+0.00
-1.00,-1.00,-1.00,-1.00,-1.00,+0.00,+2.00,+1.00,+3.00,+3.00,+1.00,+0.00,+2.00,+0.00,+1.00,+0.00
+0.00,+0.00,-3.00,-2.00,-3.00,-2.00,+0.00,+0.00,-12.00,-6.00,-3.00,-2.00,-2.00,+2.00,-1.00,-6.00
-5.00,-2.00,+0.00,-2.00,-1.00,-2.00,+1.00,+0.00,+12.00,+7.00,+1.00,+1.00,+1.00,+0.00,-1.00,+1.00
+0.00,-1.00,+0.00,-1.00,+2.00,+2.00,-2.00,-9.00,-9.00,-8.00,-6.00,-8.00,-9.00,-5.00,-5.00,-7.00
-1.00,-2.00,-1.00,+0.00,+0.00,+1.00,-1.00,-1.00,-5.00,-4.00,+0.00,+0.00,+0.00,+2.00,-3.00,-2.00
-2.00,+0.00,+0.00,+0.00,-1.00,-3.00,+0.00,-4.00,+3.00,+2.00,-2.00,-1.00,-1.00,+1.00,-1.00,+0.00
-1.00,-1.00,-1.00,+3.00,+1.00,-2.00,-1.00,-2.00,+1.00,+1.00,+2.00,+0.00,+1.00,-2.00,-3.00,-1.00
+1.00,+1.00,-1.00,+0.00,-1.00,-4.00,+0.00,-8.00,+18.00,-2.00,+0.00,+4.00,+4.00,+5.00,+2.00,+8.00
-15.00,-5.00,-1.00,-4.00,-3.00,-2.00,-2.00,+0.00,-30.00,-11.00,-5.00,-2.00,+3.00,-8.00,-7.00,-10.00
-4.00,-3.00,-1.00,+0.00,+1.00,+0.00,-4.00,-4.00,-5.00,-6.00,+1.00,-4.00,-14.00,-7.00,-2.00,+2.00
+3.00,+3.00,-3.00,+0.00,-2.00,-1.00,-2.00,+1.00,+9.00,+7.00,+0.00,-3.00,-2.00,-3.00,+1.00,-1.00
-2.00,-3.00,-2.00,+0.00,+1.00,+4.00,+2.00,+1.00,+2.00,+7.00,+1.00,-2.00,-3.00,-1.00,-1.00,-2.00
+4.00,+0.00,-1.00,-1.00,-4.00,-2.00,-1.00,-4.00,+12.00,+4.00,-2.00,+0.00,-1.00,-2.00,-2.00,+0.00
-6.00,-9.00,+0.00,+2.00,+1.00,-4.00,-2.00,+2.00,+0.00,+2.00,+1.00,+2.00,+4.00,+0.00,+2.00,+4.00
-1.00,-1.00,-1.00,+1.00,+0.00,-3.00,-2.00,-3.00,-13.00,-8.00,-2.00,+1.00,-2.00,-6.00,-1.00,+1.00
-4.00,+3.00,+1.00,+0.00,-2.00,+0.00,+2.00,-6.00,-23.00,-11.00,-4.00,+0.00,+1.00,-1.00,+0.00,-4.00
-3.00,-7.00,-3.00,-3.00,-1.00,+1.00,+4.00,-6.00,+25.00,+9.00,+3.00,+6.00,+6.00,+5.00,-2.00,+4.00
+9.00,+7.00,+0.00,-1.00,-1.00,-3.00,-6.00,-1.00,-1.00,-4.00,-2.00,-2.00,+1.00,+0.00,+1.00,-5.00
-16.00,-21.00,-7.00,-3.00,-3.00,+0.00,+3.00,-6.00,+6.00,-1.00,-2.00,-5.00,-2.00,+1.00,-1.00,-1.00
+3.00,+4.00,-2.00,-1.00,-2.00,-3.00,-3.00,-12.00,-4.00,+2.00,+0.00,-3.00,+0.00,-5.00,-4.00,-6.00
+12.00,+13.00,+3.00,+2.00,+4.00,+0.00,+1.00,+6.00,-7.00,-3.00,-1.00,+0.00,-2.00,-6.00,-3.00,+0.00
-7.00,-11.00,-6.00,-4.00,-7.00,+0.00,+4.00,-3.00,+11.00,+1.00,-3.00,-6.00,-3.00,+3.00,-2.00,+0.00
-8.00,-5.00,-2.00,+0.00,+0.00,-4.00,-5.00,+2.00,-5.00,-7.00,-4.00,+4.00,+3.00,+2.00,+2.00,-5.00
-22.00,-22.00,-6.00,-4.00,-4.00,-7.00,-9.00,-10.00,-4.00,+0.00,-4.00,-6.00,-8.00,+3.00,-2.00,+3.00
+33.00,+44.00,+8.00,-2.00,-6.00,-5.00,-1.00,+8.00,-12.00,-10.00,-1.00,+0.00,-4.00,-3.00,-1.00,-4.00
+7.00,+4.00,+3.00,+2.00,+5.00,+5.00,+3.00,+4.00,+9.00,+4.00,+3.00,+2.00,+2.00,+1.00,+1.00,+4.00
+1.00,+2.00,+0.00,-1.00,-2.00,-2.00,-5.00,-11.00,+7.00,+4.00,+2.00,+1.00,+6.00,+3.00,-1.00,+1.00
-3.00,-6.00,+0.00,+0.00,-1.00,+0.00,+2.00,+4.00,+2.00,-3.00,+0.00,-2.00,-6.00,-5.00,-4.00,-3.00
-23.00,-28.00,-7.00,-3.00,-3.00,-1.00,-1.00,+5.00,-2.00,-5.00,-3.00,-7.00,-4.00,+4.00,+0.00,-1.00
-10.00,+8.00,+0.00,-2.00,-3.00,-3.00,-3.00,-10.00,-18.00,-4.00,-2.00,+1.00,-2.00,-4.00,+0.00,+0.00
+2.00,+11.00,+2.00,-2.00,+2.00,-3.00,-4.00,+0.00,+3.00,+6.00,+0.00,-4.00,-1.00,-2.00,-1.00,-1.00
+8.00,-9.00,-2.00,-1.00,-2.00,+0.00,+0.00,+8.00,+12.00,+1.00,+3.00,+2.00,+3.00,-5.00,+2.00,+6.00
+0.00,+10.00,+3.00,+3.00,+0.00,-1.00,-3.00,-4.00,-2.00,+3.00,-1.00,-1.00,+0.00,-1.00,+0.00,-1.00
+1.00,-2.00,-2.00,-2.00,-3.00,+0.00,-4.00,-2.00,+0.00,-9.00,-9.00,-2.00,-1.00,-2.00,+3.00,-2.00
-8.00,-11.00,-1.00,-1.00,+1.00,+6.00,+6.00,+0.00,+2.00,+1.00,-3.00,+0.00,+0.00,-2.00,+1.00,+4.00
+2.00,+9.00,+1.00,+1.00,+1.00,-3.00,-3.00,-2.00,-9.00,+0.00,+4.00,+14.00,+12.00,+3.00,-3.00,-4.00
+3.00,+1.00,-1.00,+2.00,+6.00,-1.00,+3.00,-6.00,+15.00,+5.00,-2.00,-18.00,-18.00,-4.00,+1.00,-2.00
-3.00,+1.00,-4.00,-2.00,+0.00,-1.00,+6.00,+1.00,-25.00,-10.00,-1.00,-4.00,+1.00,-2.00,-4.00,-6.00
+9.00,+5.00,+6.00,+2.00,-1.00,+0.00,-1.00,+6.00,+0.00,-4.00,-1.00,+0.00,-4.00,+0.00,-1.00,-1.00
+9.00,+5.00,+0.00,+1.00,+3.00,+5.00,+6.00,+10.00,+2.00,+2.00,-3.00,-7.00,-1.00,+1.00,+3.00,+4.00
+8.00,+14.00,+6.00,+1.00,-2.00,+5.00,+3.00,+4.00,-8.00,+0.00,+3.00,+7.00,+5.00,+2.00,-4.00,-4.00
-6.00,-9.00,-5.00,-2.00,-3.00,+2.00,-4.00,-1.00,+3.00,+5.00,+1.00,-1.00,-3.00,-3.00,-4.00,-1.00
-3.00,+1.00,-3.00,-2.00,-4.00,+0.00,+7.00,+1.00,-11.00,-12.00,-3.00,-5.00,+2.00,+6.00,-2.00,-7.00
-13.00,-15.00,-6.00,-6.00,-5.00,-6.00,+0.00,-7.00,+2.00,+3.00,-1.00,-4.00,-6.00,+0.00,+2.00,+3.00
-19.00,-34.00,-7.00,+0.00,+4.00,+0.00,-8.00,-16.00,+4.00,+3.00,-1.00,+3.00,+2.00,-2.00,+3.00,+3.00
+11.00,+14.00,+4.00,+3.00,+1.00,-7.00,-7.00,+5.00,+2.00,-1.00,+0.00,+0.00,-2.00,-2.00,+1.00,+2.00
+10.00,+5.00,+0.00,+1.00,-1.00,+1.00,+1.00,+2.00,-10.00,-6.00,-1.00,+3.00,+0.00,-2.00,-1.00,-1.00
+2.00,+7.00,+4.00,+3.00,+2.00,-4.00,-14.00,-2.00,+2.00,-4.00,-1.00,-1.00,-1.00,+0.00,-1.00,-3.00
-13.00,-15.00,-7.00,-2.00,-3.00,+0.00,-3.00,-9.00,+8.00,+1.00,-2.00,-1.00,+1.00,+0.00,-2.00,+4.00
-9.00,-12.00,-2.00,-3.00,-4.00,+0.00,+2.00,+15.00,-26.00,-9.00,-2.00,+2.00,+0.00,+3.00,+1.00,-7.00
-9.00,-13.00,-8.00,-6.00,-3.00,-4.00,-15.00,-5.00,+31.00,+14.00,+2.00,-2.00,-6.00,-3.00,+0.00,+2.00
+15.00,+20.00,+10.00,+6.00,+2.00,+12.00,+31.00,+19.00,-11.00,-5.00,-4.00,-4.00,-4.00,+0.00,+0.00,-1.00
-7.00,-6.00,-2.00,-2.00,+2.00,-1.00,-5.00,+2.00,-5.00,+0.00,+0.00,+3.00,+0.00,-1.00,-2.00,-5.00
+19.00,+24.00,+4.00,+0.00,-1.00,-1.00,+1.00,+1.00,+4.00,-3.00,+1.00,+6.00,+13.00,+2.00,+1.00,+3.00
-8.00,-11.00,-3.00,+0.00,-4.00,+0.00,-3.00,+1.00,-12.00,-7.00,-2.00,-7.00,-11.00,-5.00,-7.00,-1.00
-7.00,-1.00,-3.00,-4.00,-3.00,-6.00,-13.00,-3.00,+12.00,+13.00,+1.00,-4.00,-5.00,-4.00,-2.00,-1.00
+1.00,+11.00,+2.00,+2.00,+1.00,+2.00,+1.00,+1.00,+2.00,+4.00,+2.00,-1.00,-2.00,-2.00,-3.00,+0.00
-14.00,-23.00,-5.00,-2.00,-3.00,+5.00,+16.00,-5.00,+4.00,+4.00,+0.00,+0.00,+0.00,-1.00,-2.00,+0.00
+7.00,+6.00,+0.00,+2.00,-1.00,+5.00,+7.00,-2.00,-25.00,-7.00,-2.00,-4.00,+0.00,-4.00,-1.00,-4.00
+5.00,+9.00,-1.00,-1.00,-1.00,-10.00,-18.00,-7.00,+18.00,-1.00,-2.00,+1.00,+2.00,-1.00,+2.00,+3.00
-6.00,-12.00,-4.00,-4.00,-4.00,-3.00,-1.00,-2.00,-18.00,-11.00,-4.00,+1.00,+2.00,+1.00,-3.00,-3.00
+10.00,+16.00,+1.00,-1.00,+2.00,-5.00,-8.00,+0.00,+8.00,+1.00,-2.00,-3.00,-10.00,-10.00,-5.00,-1.00
+0.00,-1.00,+2.00,-1.00,+2.00,+0.00,+5.00,-3.00,+2.00,+1.00,-2.00,+0.00,+1.00,+3.00,+2.00,-1.00
-10.00,-20.00,-4.00,+0.00,-5.00,+6.00,+4.00,-2.00,-22.00,-15.00,+0.00,-1.00,-2.00,+4.00,-7.00,-8.00
-9.00,+2.00,-5.00,-3.00,-5.00,-7.00,-10.00,-6.00,+15.00,+3.00,-2.00,-4.00,-4.00,-1.00,+5.00,+2.00
+17.00,+8.00,+7.00,+3.00,+1.00,+2.00,+0.00,+7.00,+0.00,+0.00,-2.00,-5.00,-2.00,+0.00,+0.00,+8.00
-10.00,-2.00,-1.00,+1.00,+3.00,-1.00,+0.00,-3.00,-4.00,-2.00,-1.00,+0.00,+4.00,-3.00,-2.00,-2.00
+5.00,+7.00,+1.00,+0.00,+4.00,-3.00,-7.00,-1.00,-20.00,-4.00,-1.00,-1.00,-1.00,-5.00,-3.00,-10.00
-9.00,-25.00,-6.00,-4.00,-2.00,-2.00,+4.00,-2.00,+9.00,+1.00,+6.00,+8.00,+11.00,+7.00,+6.00,+4.00
+6.00,+15.00,+0.00,-4.00,-1.00,-3.00,-16.00,-10.00,+26.00,+6.00,-3.00,-8.00,-9.00,-21.00,-10.00,-3.00
+17.00,+10.00,+2.00,+3.00,+4.00,+0.00,+18.00,+11.00,-18.00,+3.00,-1.00,-1.00,-5.00,-2.00,+1.00,-5.00
-7.00,-9.00,-7.00,-7.00,-3.00,-2.00,+0.00,+3.00,-6.00,-9.00,-4.00,+3.00,+11.00,+0.00,-2.00,-6.00
+5.00,+1.00,+2.00,+3.00,+1.00,-3.00,+0.00,+0.00,+7.00,+2.00,+1.00,+0.00,-9.00,+2.00,+0.00,+7.00
-17.00,-27.00,-6.00,+0.00,-3.00,+2.00,+2.00,-5.00,-4.00,+5.00,-2.00,-7.00,-5.00,-2.00,-4.00,-8.00
+10.00,+20.00,-1.00,-3.00,-3.00,-6.00,-11.00,-5.00,+2.00,+0.00,+0.00,+1.00,-1.00,+3.00,+3.00,+10.00
-6.00,-10.00,-1.00,+0.00,+1.00,+5.00,+1.00,-4.00,-4.00,+3.00,-2.00,-3.00,-3.00,-3.00,-2.00,+0.00
+7.00,+8.00,+2.00,+1.00,-1.00,+5.00,+1.00,+2.00,-7.00,-15.00,+0.00,+4.00,+4.00,-1.00,-5.00,-5.00
+0.00,-8.00,+0.00,+0.00,+5.00,+2.00,-1.00,+1.00,+0.00,-3.00,-1.00,-3.00,-3.00,+1.00,+5.00,+4.00
-12.00,-11.00,-6.00,-2.00,-2.00,-4.00,-6.00,-6.00,-5.00,-6.00,-3.00,+4.00,+6.00,+5.00,-3.00,-9.00
+14.00,+30.00,+3.00,+2.00,+3.00,+1.00,+4.00,+0.00,+4.00,+1.00,-4.00,-13.00,-13.00,+7.00,+4.00,+7.00
-1.00,-2.00,+1.00,+0.00,+3.00,-6.00,-11.00,-2.00,-2.00,-1.00,-4.00,-6.00,-7.00,-10.00,-4.00,-2.00
+0.00,+8.00,+3.00,-1.00,-1.00,+0.00,+0.00,-2.00,-8.00,-3.00,-1.00,+0.00,+3.00,+5.00,-1.00,-8.00
+1.00,+4.00,-4.00,-5.00,-8.00,+3.00,+2.00,-2.00,+12.00,+4.00,-1.00,+1.00,+1.00,-3.00,+0.00,+2.00
+0.00,-28.00,-5.00,-1.00,-3.00,-4.00,-6.00,-2.00,+6.00,+3.00,+1.00,+6.00,+4.00,-9.00,-2.00,+13.00
+7.00,+16.00,+1.00,+2.00,-5.00,-4.00,+2.00,-4.00,-16.00,-10.00,-3.00,-3.00,+1.00,+11.00,+7.00,-9.00
-26.00,-13.00,-3.00,+0.00,+1.00,+0.00,-5.00,-13.00,+4.00,-1.00,-3.00,-5.00,-6.00,-4.00,-1.00,+6.00
+8.00,+5.00,-1.00,-4.00,-2.00,-13.00,-20.00,+6.00,-27.00,-17.00,-3.00,+1.00,+1.00,+0.00,+0.00,-6.00
-3.00,-4.00,+0.00,+0.00,-5.00,+4.00,+17.00,+7.00,+9.00,+11.00,-1.00,+0.00,-2.00,-5.00,-14.00,-15.00
-10.00,-11.00,-4.00,-4.00,+1.00,-3.00,-1.00,-1.00,-19.00,-4.00,-2.00,-2.00,+0.00,-9.00,-6.00,-17.00
-1.00,-2.00,-4.00,-2.00,-4.00,-4.00,+2.00,+5.00,+13.00,+6.00,+2.00,-12.00,-12.00,+1.00,+4.00,+18.00
-7.00,+1.00,+0.00,-1.00,+1.00,+2.00,+2.00,-6.00,+4.00,-7.00,-4.00,-4.00,-2.00,+1.00,+0.00,+0.00
-9.00,-12.00,-7.00,-6.00,-3.00,-4.00,-5.00,+2.00,-8.00,-7.00,-1.00,-1.00,+3.00,+1.00,+4.00,-2.00
+1.00,-7.00,+1.00,+3.00,+5.00,-2.00,-2.00,+2.00,+0.00,+6.00,+1.00,+1.00,-5.00,+2.00,+6.00,+9.00
-17.00,-14.00,-7.00,-5.00,-6.00,-7.00,-4.00,+12.00,-6.00,-11.00,-1.00,+2.00,+3.00,-1.00,-6.00,-13.00
+17.00,+22.00,+4.00,+1.00,+2.00,+11.00,+6.00,+0.00,-8.00,-1.00,-4.00,-6.00,-2.00,+1.00,-7.00,-12.00
+1.00,-6.00,+3.00,+5.00,+6.00,+2.00,-3.00,+2.00,+4.00,+1.00,+2.00,+0.00,-5.00,-6.00,+0.00,+8.00
+11.00,+2.00,+2.00,+0.00,+0.00,+6.00,+7.00,+7.00,+20.00,+10.00,-2.00,-5.00,-2.00,+6.00,+12.00,+13.00
+4.00,+7.00,-2.00,-2.00,-1.00,-2.00,-2.00,-6.00,-23.00,-15.00,-5.00,+7.00,+8.00,+4.00,-2.00,-10.00
-23.00,-26.00,-6.00,-3.00,-3.00,-7.00,-5.00,-7.00,+3.00,+4.00,+2.00,-2.00,-1.00,-5.00,-4.00,+2.00
-9.00,+10.00,+0.00,-3.00,-2.00,-7.00,-8.00,-7.00,-11.00,-5.00,-1.00,+4.00,+3.00,+4.00,+5.00,-8.00
+14.00,+22.00,+1.00,+0.00,-4.00,-1.00,+10.00,+6.00,-4.00,-3.00,+0.00,+2.00,+4.00,-7.00,-1.00,+3.00
-6.00,-35.00,-1.00,-1.00,+2.00,+2.00,-7.00,-11.00,+6.00,+8.00,+1.00,+1.00,-7.00,-3.00,-3.00,-4.00
+43.00,+78.00,+15.00,+3.00,-2.00,-21.00,-11.00,+10.00,-8.00,-3.00,+1.00,+5.00,+4.00,+1.00,+5.00,-5.00
+0.00,-8.00,-3.00,+1.00,+3.00,+13.00,+10.00,-1.00,+5.00,+6.00,+4.00,-2.00,-10.00,-1.00,+4.00,+2.00
+3.00,-4.00,-2.00,-1.00,+1.00,+7.00,+13.00,+6.00,+34.00,+11.00,+0.00,+3.00,+1.00,-2.00,-7.00,+15.00
-8.00,-15.00,-5.00,+0.00,-1.00,+2.00,+8.00,-11.00,-20.00,-7.00,-7.00,-8.00,-6.00,-4.00,+5.00,-12.00
-24.00,-32.00,-6.00,-2.00,+2.00,+1.00,-4.00,-11.00,-6.00,-7.00,-4.00,-1.00,+3.00,-1.00,-6.00,-12.00
-3.00,+19.00,+2.00,-4.00,-2.00,-10.00,-13.00,-6.00,-13.00,+1.00,+4.00,+6.00,+3.00,+1.00,+3.00,+7.00
-14.00,-18.00,-7.00,-5.00,-2.00,-5.00,-12.00,-5.00,-11.00,-14.00,-8.00,-16.00,-18.00,-2.00,-8.00,-2.00
+17.00,+16.00,+6.00,+3.00,+2.00,+2.00,+8.00,+8.00,+7.00,+4.00,+0.00,+5.00,+4.00,+4.00,+3.00,-3.00
-10.00,-13.00,-9.00,-1.00,-4.00,-2.00,-4.00,+0.00,+13.00,+12.00,+3.00,-1.00,-4.00,+2.00,+12.00,+7.00
+6.00,-11.00,+4.00,+4.00,+0.00,+2.00,-5.00,-1.00,-11.00,-5.00,-4.00,-2.00,+5.00,-1.00,-6.00,-11.00
-10.00,+3.00,-4.00,-2.00,+0.00,+2.00,-4.00,-11.00,+0.00,+3.00,+3.00,+5.00,+8.00,+5.00,+2.00,+0.00
+11.00,+31.00,+2.00,-4.00,+0.00,-6.00,-2.00,-4.00,-24.00,-10.00,-3.00,+2.00,-1.00,-6.00,-6.00,-13.00
+4.00,-2.00,+2.00,+1.00,+1.00,+2.00,+3.00,+4.00,+10.00,-3.00,-1.00,+2.00,-3.00,-3.00,+3.00,+15.00
+1.00,+10.00,+1.00,-1.00,-1.00,+2.00,+5.00,+15.00,+14.00,+3.00,-4.00,-1.00,+6.00,-1.00,-6.00,-18.00
-15.00,-18.00,-4.00,-3.00,-6.00,-7.00,-10.00,-3.00,-60.00,-21.00,-3.00,+6.00,+2.00,+3.00,+3.00,-6.00
+13.00,+5.00,+4.00,+4.00,+2.00,+2.00,-1.00,+9.00,+37.00,+9.00,+4.00,-2.00,-7.00,-20.00,+6.00,+8.00
-5.00,-12.00,-2.00,-3.00,-3.00,+4.00,+11.00,-2.00,+1.00,+0.00,-1.00,-2.00,+0.00,+5.00,+5.00,+4.00
+15.00,+9.00,-1.00,-1.00,-3.00,+0.00,+3.00,-2.00,+18.00,+5.00,+2.00,-5.00,-5.00,-3.00,-1.00,+15.00
-16.00,-11.00,+1.00,+2.00,+0.00,-8.00,-8.00,-7.00,+3.00,-2.00,-4.00,-5.00,-3.00,-3.00,-12.00,-13.00
-15.00,-27.00,-10.00,-5.00,-7.00,-9.00,-11.00,-5.00,-1.00,+6.00,+5.00,+6.00,+6.00,+0.00,-2.00,+4.00
+13.00,+31.00,+3.00,+1.00,+4.00,+1.00,-2.00,+6.00,-25.00,-8.00,-5.00,-8.00,-7.00,+6.00,-7.00,-10.00
+9.00,+23.00,+3.00,+0.00,-4.00,-8.00,-3.00,-3.00,+10.00,-11.00,-5.00,+2.00,+0.00,+5.00,+2.00,-8.00
-1.00,-2.00,-1.00,+2.00,+9.00,-1.00,-7.00,-2.00,+24.00,+11.00,-1.00,-6.00,-9.00,-18.00,+5.00,+16.00
+4.00,+5.00,-6.00,-4.00,-5.00,-5.00,-5.00,-2.00,-3.00,-7.00,-2.00,+6.00,+12.00,+12.00,-7.00,+15.00
-6.00,-24.00,-1.00,+0.00,-3.00,+10.00,+5.00,+4.00,+10.00,-2.00,-1.00,+1.00,+1.00,-8.00,-5.00,+2.00
-7.00,-12.00,-7.00,-5.00,-1.00,+2.00,+5.00,-6.00,-18.00,+1.00,-1.00,-4.00,-14.00,-8.00,-18.00,-10.00
+7.00,+8.00,+0.00,-1.00,-8.00,+2.00,+0.00,+5.00,+2.00,-1.00,+2.00,+3.00,+1.00,+1.00,-8.00,-11.00
-2.00,+13.00,+0.00,-2.00,-1.00,-2.00,-2.00,-5.00,+10.00,-1.00,-4.00,-9.00,+0.00,+6.00,-2.00,-17.00
-15.00,-22.00,-4.00,+0.00,+1.00,+1.00,+1.00,+0.00,-15.00,-8.00,+2.00,+10.00,+12.00,-2.00,+9.00,+7.00
-10.00,-28.00,-5.00,+0.00,-2.00,-5.00,-7.00,-4.00,-11.00,-15.00,-8.00,-16.00,-16.00,+1.00,+1.00,+8.00
+30.00,+53.00,+6.00,-1.00,-1.00,+11.00,+19.00,-1.00,+27.00,+20.00,-2.00,-9.00,-9.00,-12.00,-3.00,+18.00
+8.00,+13.00,+5.00,+5.00,+4.00,+2.00,+16.00,+32.00,+4.00,+0.00,+1.00,+6.00,-5.00,+1.00,+6.00,+0.00
-2.00,-9.00,-2.00,-3.00,-3.00,-1.00,-4.00,-3.00,-7.00,+7.00,-2.00,-11.00,+1.00,+8.00,-4.00,-3.00
-3.00,-2.00,-3.00,-1.00,+0.00,+3.00,-2.00,-2.00,+12.00,+1.00,-3.00,+2.00,+4.00,-2.00,-7.00,-19.00
-22.00,-25.00,-7.00,-7.00,-5.00,-1.00,+0.00,+7.00,-7.00,-11.00,+0.00,+2.00,+8.00,+10.00,+10.00,+2.00
-7.00,+0.00,+0.00,+2.00,+2.00,-1.00,-9.00,-19.00,-4.00,-4.00,-1.00,-9.00,-7.00,-3.00,-11.00,+11.00
-7.00,-16.00,+0.00,+2.00,+2.00,-2.00,-4.00,-6.00,+9.00,+6.00,-2.00,+0.00,-6.00,-13.00,-10.00,+0.00
+3.00,+6.00,+3.00,-2.00,-2.00,-6.00,+3.00,+0.00,+13.00,+8.00,+2.00,+2.00,+1.00,-2.00,+14.00,+17.00
-24.00,-41.00,-3.00,-2.00,+0.00,-10.00,-25.00,-10.00,-39.00,-20.00,-7.00,-2.00,-2.00,-1.00,-15.00,-39.00
+16.00,+45.00,+3.00,-3.00,-1.00,+6.00,+1.00,-4.00,+19.00,+14.00,+2.00,+3.00,+6.00,+9.00,+12.00,+19.00
+5.00,-3.00,-2.00,-2.00,-8.00,-11.00,-1.00,+6.00,-17.00,-18.00,-7.00,+2.00,-6.00,-18.00,-4.00,-8.00
-12.00,-6.00,-3.00,-3.00,+0.00,-7.00,-22.00,-14.00,+12.00,+14.00,+2.00,+0.00,+5.00,+5.00,-17.00,+0.00
+12.00,+7.00,+5.00,+5.00,+2.00,-3.00,+1.00,+3.00,-7.00,-6.00,-3.00,-1.00,-1.00,-4.00,-6.00,-28.00
-16.00,-31.00,-7.00,-7.00,-5.00,-14.00,-15.00,-10.00,-8.00,-2.00,+2.00,+4.00,+3.00,+5.00,+5.00,+6.00
+23.00,+19.00,+2.00,-1.00,-4.00,+2.00,+5.00,-14.00,+11.00,+11.00,+3.00,-4.00,-6.00,-1.00,-4.00,+8.00
-29.00,-22.00,-10.00,-6.00,-1.00,-3.00,-7.00,-5.00,+13.00,+0.00,-1.00,+0.00,-1.00,+5.00,+17.00,+19.00
+12.00,+21.00,+8.00,+3.00,+4.00,+8.00,+6.00,-8.00,+20.00,+5.00,+1.00,+5.00,+4.00,-11.00,-18.00,-12.00
-22.00,-30.00,-10.00,-1.00,+1.00,+6.00,+7.00,-10.00,-15.00,-6.00,+1.00,+8.00,+7.00,+2.00,-6.00,-9.00
-2.00,-30.00,-1.00,+0.00,-1.00,+4.00,+10.00,-9.00,-15.00,-10.00,-7.00,-15.00,-11.00,+3.00,+9.00,+8.00
+7.00,+52.00,+5.00,-1.00,+0.00,+3.00,+14.00,+3.00,-19.00,-9.00,+0.00,-2.00,+2.00,-1.00,-10.00,-24.00
+0.00,-18.00,-3.00,-1.00,-3.00,-3.00,-7.00,+6.00,+4.00,+12.00,+4.00,+2.00,+2.00,+1.00,+6.00,+3.00
-12.00,-2.00,+1.00,+1.00,-2.00,+0.00,-6.00,-22.00,+1.00,-4.00,-2.00,-7.00,-5.00,-5.00,-4.00,-6.00
+5.00,-2.00,-6.00,-5.00,-5.00,-9.00,-7.00,+14.00,+21.00,+4.00,+2.00,+6.00,+4.00,+3.00,+11.00,+17.00
-10.00,-14.00,-1.00,+1.00,-1.00,+4.00,+14.00,-13.00,-24.00,-9.00,-2.00,+2.00,-2.00,-6.00,+3.00,-5.00
+2.00,-2.00,-3.00,-1.00,+0.00,+1.00,+9.00,+9.00,+22.00,+3.00,+5.00,+0.00,+3.00,+9.00,+10.00,+31.00
-1.00,+0.00,+4.00,+1.00,-2.00,+3.00,+5.00,-3.00,-10.00,-9.00,-3.00,-3.00,+0.00,+1.00,-2.00,-10.00
-37.00,-16.00,-10.00,-5.00,-2.00,-16.00,-38.00,-14.00,-4.00,+5.00,+3.00,+3.00,-3.00,-2.00,-2.00,-15.00
+26.00,+16.00,+4.00,+2.00,+0.00,+3.00,-3.00,+3.00,+13.00,+8.00,+3.00,+0.00,+3.00,+4.00,+1.00,+21.00
+30.00,-5.00,+0.00,+1.00,-4.00,+6.00,+6.00,+0.00,-9.00,-1.00,+0.00,-3.00,-12.00,-13.00,-3.00,-4.00
+0.00,-5.00,-2.00,-1.00,-1.00,+3.00,+4.00,+7.00,-8.00,-5.00,-7.00,-8.00,-7.00,-7.00,-6.00,-13.00
-13.00,-5.00,-3.00,-3.00,+1.00,-1.00,-7.00,-16.00,-7.00,-3.00,-3.00,-1.00,+0.00,-2.00,+1.00,+10.00
-10.00,+16.00,-2.00,+0.00,-2.00,-2.00,+1.00,+2.00,-8.00,-7.00,-6.00,-3.00,-1.00,-19.00,-12.00,-22.00
-7.00,-26.00,-5.00,-1.00,-3.00,-7.00,-16.00,-11.00,-13.00,-7.00,-2.00,-4.00,+1.00,+8.00,-1.00,+8.00
-12.00,-27.00,-4.00,+0.00,-2.00,+5.00,-3.00,-16.00,-17.00,+0.00,-2.00,+7.00,+7.00,-3.00,-7.00,-19.00
+15.00,+37.00,+6.00,+1.00,+2.00,+3.00,+9.00,+7.00,+32.00,+11.00,+0.00,-9.00,-12.00,-1.00,+0.00,+6.00
+16.00,-15.00,+0.00,+2.00,+3.00,-1.00,-2.00,+8.00,-13.00,-8.00,-7.00,-12.00,-15.00,-5.00,+5.00,+12.00
-17.00,+2.00,-2.00,+0.00,-3.00,+2.00,+4.00,+4.00,-5.00,-6.00,-1.00,+0.00,-2.00,+8.00,+4.00,-20.00
+14.00,+13.00,+3.00,+0.00,-1.00,-2.00,-1.00,+5.00,+21.00,+24.00,+7.00,-2.00,+0.00,+4.00,+6.00,+29.00
+0.00,+1.00,+1.00,+1.00,+1.00,+1.00,+11.00,+2.00,-47.00,-26.00,-5.00,+0.00,+3.00,+0.00,-25.00,-63.00
-13.00,-28.00,-5.00,+0.00,-1.00,+4.00,+5.00,-3.00,+12.00,+0.00,+1.00,+5.00,+5.00,+0.00,+18.00,+22.00
-10.00,+19.00,-1.00,-5.00,+0.00,-2.00,-1.00,-3.00,+6.00,+7.00,-2.00,-6.00,-6.00,-1.00,-1.00,+10.00
-11.00,-16.00,-6.00,-5.00,+0.00,-7.00,-4.00,+1.00,-18.00,-14.00,-3.00,+0.00,-4.00,-3.00,-1.00,-17.00
+22.00,+31.00,+12.00,+6.00,+1.00,+3.00,+18.00,+15.00,+8.00,-2.00,-1.00,+4.00,+4.00,-5.00,-10.00,-12.00
-8.00,-2.00,-1.00,+0.00,-4.00,-7.00,-8.00,-14.00,-5.00,+4.00,+5.00,+1.00,-2.00,-3.00,+0.00,+13.00
+1.00,-3.00,-3.00,-1.00,+1.00,+3.00,-3.00,+17.00,-13.00,-5.00,-2.00,+0.00,+1.00,-4.00,-5.00,-22.00
-6.00,-3.00,-1.00,-1.00,-2.00,-5.00,-3.00,+19.00,+2.00,-1.00,-5.00,-5.00,-2.00,+0.00,-3.00,-6.00
+7.00,+26.00,+6.00,+0.00,+3.00,+2.00,-3.00,-6.00,+19.00,+14.00,+7.00,+7.00,+11.00,+5.00,+10.00,+23.00
-2.00,-18.00,-5.00,-4.00,-5.00,-1.00,-5.00,+2.00,-1.00,-4.00,-4.00,-6.00,-5.00,+3.00,-4.00,-4.00
-1.00,+12.00,+0.00,-2.00,-3.00,-2.00,-1.00,-14.00,+21.00,+9.00,+2.00,+6.00,-3.00,+3.00,+8.00,+18.00
+1.00,-13.00,-5.00,+0.00,-3.00,-6.00,+1.00,+2.00,+0.00,-1.00,+2.00,+3.00,-2.00,+0.00,-3.00,+4.00
-5.00,-13.00,-5.00,+3.00,+4.00,+0.00,-10.00,+3.00,-2.00,-3.00,-2.00,-6.00,-6.00,-3.00,-2.00,-3.00
-11.00,-5.00,-7.00,-7.00,-4.00,-5.00,+0.00,+7.00,+14.00,+1.00,+0.00,-2.00,+4.00,+1.00,-1.00,+0.00
+25.00,+21.00,+1.00,-1.00,+0.00,-2.00,-4.00,-2.00,-18.00,-5.00,-2.00,+0.00,+0.00,-2.00,+2.00,-2.00
+10.00,-11.00,+3.00,+1.00,-3.00,-9.00,-16.00,+3.00,+13.00,+3.00,+1.00,-2.00,+0.00,-3.00,-3.00,+6.00
+0.00,-5.00,+1.00,+0.00,+1.00,+8.00,+15.00,+13.00,-9.00,-3.00,-8.00,-4.00,-4.00,-9.00,-11.00,-23.00
-5.00,+5.00,+1.00,+2.00,-2.00,-9.00,-11.00,-2.00,-14.00,-9.00,+1.00,+3.00,+4.00,+2.00,+5.00,-4.00
-23.00,-25.00,-9.00,-4.00,-2.00,+2.00,+10.00,-9.00,-8.00,-3.00,-1.00,-2.00,+1.00,-1.00,+3.00,+2.00
+2.00,+4.00,+4.00,+1.00,+2.00,+2.00,-5.00,-10.00,-2.00,-1.00,-1.00,+2.00,+5.00,+3.00,+4.00,+10.00
-12.00,-12.00,-7.00,-5.00,-7.00,-12.00,-11.00,-6.00,-1.00,+0.00,+0.00,-7.00,-7.00,+0.00,+6.00,+10.00
+9.00,+11.00,+6.00,+3.00,+6.00,+17.00,+9.00,+6.00,+0.00,-6.00,-1.00,+5.00,+8.00,+2.00,-8.00,-10.00
-3.00,+15.00,+2.00,-2.00,-1.00,+4.00,+15.00,-3.00,-28.00,-6.00,-5.00,-9.00,-6.00,-6.00,-4.00,-28.00
+2.00,-2.00,-1.00,-4.00,+1.00,-1.00,+0.00,+11.00,+15.00,+0.00,-4.00,-5.00,-2.00,+0.00,+8.00,+18.00
-5.00,-8.00,-4.00,-3.00,-6.00,+3.00,+7.00,-21.00,+14.00,+2.00,-1.00,+2.00,-8.00,+2.00,-1.00,+6.00
+6.00,-6.00,+4.00,+1.00,+1.00,-8.00,-7.00,+24.00,-4.00,+1.00,+0.00,+6.00,+9.00,+4.00,+0.00,-7.00
-7.00,+5.00,+0.00,+0.00,+4.00,-4.00,-15.00,-10.00,+2.00,-5.00,-6.00,-6.00,-13.00,-4.00,-4.00,+2.00
-4.00,+6.00,-2.00,-2.00,-3.00,+2.00,+8.00,-8.00,+0.00,+4.00,+1.00,-4.00,-5.00,+0.00,-7.00,-6.00
+3.00,-15.00,-4.00,-4.00,-2.00,+2.00,+4.00,+5.00,+6.00,+4.00,+2.00,+2.00,+2.00,-1.00,+7.00,+13.00
+10.00,+29.00,+3.00,+1.00,-4.00,+0.00,+1.00,-2.00,+4.00,+4.00,+2.00,+2.00,-1.00,-2.00,-16.00,-5.00
-2.00,-5.00,+0.00,+1.00,+6.00,-1.00,-11.00,-8.00,+6.00,-6.00,-3.00,+4.00,+9.00,+4.00,+6.00,+18.00
+4.00,+23.00,+2.00,+1.00,+0.00,+0.00,+5.00,-2.00,-15.00,-8.00,-2.00,-3.00,-10.00,+0.00,+3.00,-24.00
-17.00,-30.00,-7.00,-3.00,-1.00,-4.00,-13.00,-2.00,-10.00,-11.00,-7.00,-7.00,-3.00,+1.00,+2.00,+1.00
+0.00,-1.00,+2.00,+2.00,+2.00,-2.00,+3.00,+1.00,+10.00,+11.00,+3.00,-2.00,-5.00,-4.00,+2.00,+24.00
+8.00,+1.00,+2.00,+1.00,-5.00,-1.00,+0.00,+7.00,+3.00,+4.00,+6.00,+2.00,+6.00,+2.00,-10.00,-19.00
-11.00,-12.00,-6.00,-2.00,-2.00,+5.00,+6.00,-11.00,-3.00,+18.00,+11.00,+2.00,-2.00,-6.00,-11.00,-3.00
-5.00,+1.00,-4.00,-4.00,-2.00,-3.00,-13.00,-5.00,+4.00,+4.00,+21.00,+6.00,+8.00,+3.00,+3.00,+7.00
+6.00,-1.00,-1.00,-2.00,+0.00,+1.00,+3.00,-9.00,-31.00,-81.00,-92.00,-29.00,-20.00,-16.00,-10.00,-37.00
+12.00,+7.00,+0.00,+0.00,+3.00,+3.00,-6.00,+10.00,+3.00,-6.00,-6.00,-2.00,-5.00,-9.00,-12.00,+18.00
-6.00,+11.00,+7.00,+2.00,+0.00,-3.00,+10.00,+5.00,+0.00,-6.00,+0.00,+6.00,+12.00,+7.00,+15.00,-6.00
-6.00,-10.00,+0.00,+1.00,+3.00,+0.00,+3.00,+0.00,+10.00,+40.00,+18.00,+10.00,+6.00,-1.00,-12.00,-20.00
+1.00,-3.00,-1.00,-2.00,-4.00,-8.00,-18.00,-12.00,-36.00,-2.00,+14.00,+0.00,+0.00,+2.00,+7.00,-4.00
-10.00,-13.00,-3.00,-1.00,-1.00,+1.00,+13.00,+16.00,+22.00,+7.00,+3.00,-4.00,-3.00,+13.00,+7.00,+26.00
+10.00,+5.00,+1.00,+0.00,+3.00,+4.00,+1.00,+1.00,-8.00,-3.00,-8.00,-4.00,-2.00,-9.00,-10.00,-13.00
+7.00,+14.00,+5.00,+5.00,+4.00,+9.00,+6.00,+7.00,-13.00,-17.00,-5.00,+1.00,+1.00,+7.00,+2.00,-7.00
-9.00,-14.00,-1.00,-2.00,-3.00,-3.00,-5.00,+1.00,-1.00,+12.00,+13.00,+1.00,-1.00,-2.00,-2.00,-2.00
+5.00,+12.00,+2.00,-2.00,-9.00,-9.00,-9.00,-7.00,-32.00,-18.00,-4.00,+4.00,+4.00,+4.00,+2.00,-23.00
+12.00,+14.00,+2.00,-1.00,+4.00,+0.00,-9.00,-4.00,+3.00,+1.00,+8.00,+4.00,+2.00,+2.00,-2.00,+9.00
-1.00,+0.00,-1.00,-2.00,-5.00,+2.00,+10.00,+4.00,+5.00,-2.00,-4.00,-6.00,-9.00,-5.00,+10.00,+2.00
-31.00,-9.00,-3.00,-2.00,-3.00,-10.00,-10.00,-16.00,+31.00,+21.00,+11.00,+3.00,+1.00,+0.00,-11.00,+0.00
+26.00,-7.00,-2.00,-2.00,+1.00,+7.00,+4.00,+11.00,-22.00,-6.00,-4.00,+1.00,+2.00,-3.00,-2.00,-22.00
+1.00,-12.00,-14.00,-4.00,-7.00,-12.00,-17.00,-28.00,-2.00,-4.00,-4.00,-6.00,-6.00,-2.00,-7.00,-7.00
-25.00,+8.00,+7.00,-3.00,-9.00,-23.00,-14.00,-13.00,-16.00,-23.00,-19.00,-8.00,-6.00,-4.00,-3.00,+3.00
+26.00,+36.00,+30.00,+14.00,+12.00,+28.00,+33.00,+24.00,-8.00,+11.00,+8.00,+6.00,+2.00,+2.00,+19.00,-14.00
-12.00,+2.00,+0.00,+1.00,+9.00,+20.00,+5.00,-17.00,+12.00,-2.00,-6.00,-4.00,+0.00,-5.00,-5.00,+26.00
+1.00,-6.00,-4.00,-3.00,-12.00,-15.00,-10.00,-5.00,+18.00,+3.00,+3.00,+6.00,+5.00,+3.00,+15.00,+30.00
-7.00,-18.00,-11.00,+0.00,+9.00,+10.00,+15.00,-18.00,-1.00,+3.00,-1.00,+4.00,+4.00,-1.00,-27.00,-10.00
+9.00,+9.00,-10.00,-8.00,-5.00,-10.00,-4.00,+5.00,+12.00,+25.00,+13.00,-7.00,-7.00,-3.00,+13.00,+62.00
+4.00,+6.00,+5.00,+2.00,+0.00,-12.00,+5.00,+42.00,-28.00,-54.00,-27.00,-6.00,-15.00,-20.00,-29.00,-77.00
-10.00,-12.00,-6.00,-6.00,-3.00,+12.00,-5.00,+5.00,-18.00,-17.00,-12.00,-1.00,-4.00,-14.00,+1.00,+4.00
+19.00,+26.00,+11.00,+7.00,+1.00,-12.00,-9.00,+11.00,-2.00,+4.00,+6.00,+10.00,+14.00,+4.00,-1.00,-9.00
-16.00,-41.00,-11.00,-2.00,+0.00,+1.00,+3.00,-3.00,+27.00,+11.00,+5.00,-12.00,-10.00,+2.00,+4.00,+18.00
+33.00,+70.00,+16.00,+7.00,+1.00,+2.00,+0.00,+20.00,+13.00,+19.00,+10.00,+3.00,-2.00,+3.00,-3.00,+17.00
-29.00,-20.00,-4.00,+2.00,+5.00,+1.00,-9.00,-14.00,-4.00,-6.00,-10.00,-8.00,-1.00,-2.00,-8.00,-5.00
+31.00,+4.00,-2.00,-2.00,-2.00,-9.00,-13.00,+15.00,+4.00,+4.00,+4.00,+19.00,+21.00,-1.00,+10.00,+0.00
-14.00,-13.00,-7.00,-3.00,+0.00,+2.00,-1.00,-15.00,-8.00,+1.00,+11.00,+29.00,+10.00,-21.00,-24.00,-21.00
+4.00,-2.00,-4.00,-2.00,-3.00,-4.00,-5.00,-13.00,+0.00,+3.00,-9.00,-37.00,-35.00,+12.00,+3.00,+17.00
+21.00,+13.00,+10.00,+4.00,+5.00,+4.00,+9.00,+10.00,-15.00,-8.00,+0.00,-7.00,+5.00,+1.00,-12.00,-12.00
-47.00,-9.00,-10.00,-9.00,-12.00,-6.00,-3.00,+30.00,+1.00,-7.00,-16.00,-29.00,-48.00,-6.00,-2.00,+2.00
+55.00,+2.00,-4.00,+2.00,+1.00,-1.00,+1.00,-26.00,-8.00,-6.00,-5.00,-15.00,+0.00,+2.00,-11.00,-21.00
-78.00,-41.00,-11.00,-8.00,-3.00,-6.00,+14.00,+31.00,-4.00,+11.00,+21.00,+53.00,+66.00,+12.00,+19.00,+3.00
+20.00,+22.00,+10.00,+3.00,+1.00,-2.00,+13.00,+49.00,+0.00,-2.00,-5.00,-18.00,-23.00,+0.00,+15.00,-5.00
-14.00,-15.00,-6.00,+0.00,-3.00,-9.00,-19.00,-43.00,-15.00,-12.00,-11.00,-18.00,-16.00,-1.00,-12.00,-6.00
-20.00,-25.00,-20.00,-11.00,-17.00,-28.00,-27.00,-12.00,+9.00,-1.00,+13.00,+44.00,+72.00,+22.00,+14.00,+14.00
+29.00,+31.00,+32.00,+12.00,+23.00,+51.00,+33.00,+9.00,+17.00,+17.00,+10.00,+10.00,-21.00,-1.00,+20.00,+0.00
+10.00,+14.00,+4.00,+1.00,+0.00,+13.00,+13.00,-9.00,-1.00,-8.00,-25.00,-64.00,-47.00,+28.00,+28.00,+12.00
+4.00,-2.00,+2.00,+4.00,+8.00,+9.00,+8.00,+17.00,+5.00,+3.00,+3.00,+22.00,+0.00,-5.00,+16.00,+8.00
-22.00,+1.00,+1.00,+0.00,+1.00,-14.00,-17.00,-18.00,-17.00,-31.00,-36.00,-89.00,-93.00,-14.00,-13.00,-2.00
-3.00,-25.00,-15.00,-9.00,-8.00,-25.00,-15.00,-27.00,-2.00,+17.00,+21.00,+40.00,+36.00,-35.00,-14.00,-44.00
+0.00,-1.00,-2.00,-4.00,-10.00,-13.00,-14.00,+2.00,-9.00,-5.00,+2.00,+32.00,+51.00,-22.00,-29.00,-35.00
+19.00,+5.00,+3.00,-3.00,-5.00,+7.00,-11.00,-11.00,+1.00,-9.00,-13.00,-47.00,-48.00,+7.00,-12.00,+26.00
-6.00,-4.00,-1.00,-7.00,-15.00,-23.00,-22.00,-8.00,-17.00,-12.00,-13.00,-20.00,-16.00,-29.00,-1.00,-25.00
-15.00,-18.00,-6.00,+11.00,+19.00,+15.00,+14.00,-4.00,+21.00,+6.00,+5.00,+29.00,+63.00,+43.00,-4.00,+53.00
+19.00,+7.00,+4.00,+0.00,+0.00,+0.00,+2.00,-12.00,+3.00,+4.00,-5.00,-14.00,-45.00,+3.00,-8.00,-12.00
+0.00,-5.00,-5.00,+0.00,+12.00,-14.00,-53.00,+11.00,-3.00,-1.00,+1.00,+27.00,+78.00,-42.00,+21.00,+2.00
-6.00,+1.00,+3.00,-2.00,+0.00,+22.00,+71.00,-5.00,-6.00,-2.00,+1.00,-17.00,-43.00,+19.00,-38.00,+16.00
-8.00,-20.00,-10.00,-22.00,-48.00,-11.00,+27.00,-13.00,-7.00,-4.00,-9.00,-23.00,+8.00,+12.00,-36.00,-40.00
+10.00,-3.00,+5.00,+22.00,+42.00,-5.00,-37.00,+8.00,-19.00,-12.00,-10.00,-10.00,-9.00,-34.00,+0.00,-16.00
-9.00,+12.00,+1.00,-2.00,-16.00,+5.00,-1.00,-9.00,+7.00,+6.00,-4.00,-15.00,-42.00,+11.00,+31.00,+8.00
+20.00,+13.00,+4.00,-2.00,-13.00,-10.00,-30.00,+28.00,+14.00,+13.00,+20.00,+62.00,+85.00,+41.00,+20.00,+27.00
-7.00,-4.00,+0.00,+3.00,-3.00,-2.00,+8.00,-19.00,+8.00,+5.00,-1.00,-18.00,-24.00,-20.00,-3.00,-20.00
-19.00,-16.00,-12.00,-8.00,+0.00,-41.00,-65.00,+4.00,+1.00,-5.00,+1.00,+20.00,+12.00,-50.00,-27.00,+31.00
+7.00,-5.00,+1.00,+5.00,+10.00,+36.00,+53.00,+1.00,-34.00,-19.00,-6.00,+7.00,-10.00,+38.00,-13.00,-56.00
-33.00,-10.00,-6.00,-1.00,+26.00,+13.00,+0.00,-16.00,+55.00,+31.00,+26.00,+38.00,+72.00,-10.00,+80.00,+50.00
+46.00,+9.00,+1.00,-8.00,-17.00,-2.00,+8.00,+44.00,-21.00,-21.00,-39.00,-61.00,-115.00,-32.00,+19.00,+20.00
-11.00,-7.00,-8.00,-19.00,-43.00,-12.00,-35.00,-40.00,+59.00,+20.00,-4.00,-44.00,-43.00,+5.00,+9.00,+85.00
-3.00,-2.00,-3.00,+1.00,+9.00,-41.00,-58.00,+12.00,-17.00,-5.00,-4.00,-20.00,+19.00,-26.00,-2.00,-55.00
-33.00,-8.00,-3.00,-1.00,+10.00,+34.00,+9.00,-19.00,-31.00,-5.00,+24.00,+69.00,+65.00,+0.00,-14.00,-54.00
+3.00,+10.00,+3.00,+6.00,+3.00,-4.00,+33.00,-42.00,+23.00,+14.00,+22.00,+27.00,+49.00,+57.00,+42.00,+33.00
+0.00,-5.00,+0.00,+10.00,+13.00,+19.00,+49.00,+19.00,+21.00,+10.00,+9.00,+21.00,-67.00,-4.00,+67.00,+16.00
+18.00,+9.00,+3.00,-6.00,-36.00,+4.00,+9.00,+12.00,-1.00,-8.00,-19.00,-34.00,-29.00,-11.00,-38.00,+14.00
+0.00,+8.00,+3.00,+0.00,+30.00,+16.00,+11.00,+7.00,-16.00,-11.00,-8.00,-16.00,-15.00,+19.00,+16.00,-55.00
+6.00,-16.00,-9.00,-6.00,-34.00,-31.00,-34.00,-19.00,-17.00,-6.00,-13.00,-40.00,-41.00,-39.00,-32.00,+17.00
-11.00,-1.00,+2.00,+5.00,+37.00,+87.00,+60.00,+1.00,-7.00,+5.00,+33.00,+98.00,+108.00,+23.00,+2.00,-26.00
+18.00,+4.00,+5.00,+15.00,+25.00,+21.00,+21.00,+14.00,+54.00,+9.00,-6.00,-36.00,-42.00,+63.00,+23.00,+127.00
+2.00,+2.00,+3.00,+4.00,-36.00,-11.00,+0.00,+13.00,-48.00,-11.00,+4.00,+47.00,+47.00,+35.00,+5.00,-94.00
-13.00,-11.00,-8.00,-5.00,+23.00,-6.00,-14.00,-18.00,-13.00,-19.00,-33.00,-56.00,-67.00,-34.00,+23.00,-26.00
-38.00,-9.00,+1.00,+3.00,-14.00,-57.00,-58.00,-23.00,+5.00,-6.00,-12.00,-15.00,+19.00,-12.00,-37.00,-17.00
-2.00,-18.00,-10.00,-23.00,+4.00,-2.00,+38.00,+31.00,-7.00,+8.00,+28.00,+70.00,+78.00,+0.00,-20.00,+20.00
+30.00,+61.00,+29.00,+29.00,+1.00,-33.00,+8.00,+18.00,+9.00,-10.00,-17.00,-15.00,-39.00,-15.00,-45.00,-13.00
-34.00,-7.00,-4.00,+1.00,+12.00,+74.00,+21.00,-24.00,-37.00,-31.00,-32.00,-44.00,-11.00,-22.00,-38.00,-6.00
-7.00,-8.00,-6.00,-5.00,+25.00,+19.00,-5.00,-10.00,-13.00,+2.00,-2.00,-21.00,-17.00,+6.00,-6.00,-16.00
+32.00,-3.00,+2.00,+5.00,+32.00,+21.00,+58.00,+40.00,+22.00,+17.00,+31.00,+22.00,+63.00,+3.00,-17.00,+3.00
+11.00,-15.00,-6.00,-6.00,-8.00,-26.00,+15.00,+14.00,-21.00,-14.00,-28.00,-34.00,-76.00,-52.00,-38.00,+3.00
-12.00,-4.00,-2.00,-1.00,-46.00,-65.00,-66.00,-6.00,+33.00,+19.00,+21.00,+59.00,+54.00,+1.00,+7.00,+28.00
-25.00,+3.00,+1.00,-6.00,+22.00,+19.00,-34.00,-30.00,-26.00,-9.00,+0.00,+45.00,+56.00,+1.00,-24.00,-7.00
-25.00,-24.00,-10.00,-14.00,-5.00,+7.00,+29.00,+10.00,+31.00,+15.00,+7.00,+5.00,+8.00,+39.00,+10.00,-15.00
-1.00,-12.00,-6.00,-3.00,+21.00,+12.00,-3.00,+3.00,+26.00,+19.00,+22.00,+37.00,+8.00,-24.00,-1.00,+26.00
+19.00,+13.00,+0.00,-6.00,-34.00,-1.00,+11.00,+52.00,+16.00,+4.00,+11.00,+16.00,+8.00,-20.00,+61.00,+21.00
+12.00,+0.00,+2.00,+3.00,-24.00,+14.00,+55.00,+15.00,-24.00,-8.00,-12.00,-22.00,+11.00,+57.00,-19.00,-20.00
-88.00,-12.00,-6.00,-12.00,-16.00,-8.00,-23.00,-60.00,-36.00,-10.00,-3.00,+31.00,-9.00,-74.00,+16.00,-53.00
+77.00,+0.00,-8.00,-1.00,+35.00,-11.00,+0.00,+20.00,+64.00,+2.00,-3.00,-28.00,-7.00,+23.00,+55.00,+121.00
-3.00,-4.00,-7.00,-9.00,-6.00,-39.00,-113.00,+2.00,-20.00,-7.00,-6.00,-33.00,-13.00,-34.00,-26.00,-37.00
-7.00,-3.00,-3.00,-11.00,-66.00,-75.00,+68.00,-1.00,+11.00,+11.00,+9.00,-2.00,-54.00,+3.00,+72.00,-17.00
-13.00,+5.00,-2.00,+2.00,+14.00,+21.00,+36.00,-26.00,+2.00,-6.00,+5.00,+19.00,+25.00,-52.00,+20.00,+49.00
-26.00,-18.00,-5.00,+4.00,+37.00,+27.00,+33.00,+29.00,-10.00,+7.00,+5.00,+18.00,+47.00,+34.00,+4.00,-67.00
-51.00,-32.00,-13.00,-20.00,-50.00,+0.00,-26.00,-33.00,-14.00,-20.00,-42.00,-82.00,-93.00,-91.00,-7.00,+13.00
-34.00,-12.00,-3.00,+1.00,+44.00,+5.00,-48.00,-23.00,+4.00,-4.00,+17.00,+55.00,+101.00,+91.00,+1.00,+5.00
+54.00,+23.00,+8.00,+7.00,+62.00,-8.00,+66.00,+1.00,+2.00,+10.00,+21.00,+31.00,+6.00,-6.00,+48.00,-31.00
-11.00,+1.00,-1.00,-14.00,-39.00,-5.00,+47.00,-32.00,-22.00,-4.00,-8.00,-34.00,-65.00,-77.00,+43.00,+19.00
+35.00,-1.00,+2.00,+17.00,+87.00,+31.00,+55.00,+20.00,+33.00,+27.00,+29.00,+37.00,+23.00,+7.00,-37.00,+16.00
+7.00,+8.00,+2.00,-9.00,-56.00,+4.00,+105.00,+39.00,-22.00,-14.00,-12.00,-24.00,-27.00,+2.00,-21.00,-5.00
-6.00,-6.00,+8.00,+14.00,-37.00,+5.00,+18.00,+3.00,+12.00,-3.00,-24.00,-48.00,-56.00,+16.00,-30.00,-9.00
-16.00,-16.00,-1.00,+7.00,-2.00,+5.00,-16.00,-20.00,-14.00,-11.00,-15.00,-43.00,+0.00,+62.00,+21.00,-10.00
-4.00,-3.00,+6.00,+3.00,+24.00,+30.00,+9.00,-20.00,+1.00,+9.00,+8.00,+24.00,+43.00,+2.00,+41.00,+0.00
+13.00,+23.00,-1.00,-3.00,+9.00,-39.00,-72.00,+4.00,+17.00,+11.00,+2.00,-43.00,-29.00,-33.00,+24.00,+23.00
+29.00,-14.00,-6.00,-1.00,-69.00,+29.00,+48.00,+15.00,-4.00,+2.00,+7.00,+36.00,+22.00,+45.00,-24.00,+33.00
-5.00,+56.00,+14.00,+8.00,-19.00,+16.00,+7.00,-7.00,-26.00,-8.00,-1.00,-1.00,+15.00,+48.00,+27.00,-93.00
+6.00,-17.00,-5.00,+8.00,+80.00,-28.00,-66.00,-21.00,+6.00,+2.00,+15.00,+57.00,+83.00,+79.00,+34.00,+26.00
+46.00,+4.00,-4.00,-17.00,-81.00,+74.00,+66.00,+6.00,-16.00,-10.00,-19.00,-9.00,-40.00,-47.00,-46.00,-15.00
-73.00,-6.00,-3.00,+4.00,+76.00,-8.00,-50.00,-26.00,-67.00,-25.00,-6.00,+39.00,+50.00,+51.00,-12.00,-99.00
+41.00,-10.00,+4.00,+20.00,+69.00,+32.00,-18.00,+30.00,+22.00,+7.00,+0.00,-2.00,+12.00,+17.00,-22.00,+65.00
+18.00,+7.00,-7.00,-30.00,-5.00,+55.00,+118.00,+44.00,-15.00,-9.00,-7.00,-9.00,-23.00,+13.00,-14.00,-22.00
+0.00,-6.00,-2.00,+4.00,+17.00,-79.00,-33.00,-15.00,+22.00,+9.00,+15.00,+21.00,+37.00,-49.00,+26.00,+23.00
+15.00,+6.00,+5.00,+18.00,-5.00,+11.00,+9.00,+2.00,-8.00,-10.00,-13.00,-5.00,+14.00,+58.00,-8.00,-1.00
+39.00,+14.00,-3.00,-20.00,-67.00,+79.00,+20.00,-38.00,+9.00,-10.00,-21.00,-59.00,-72.00,-51.00,-29.00,+64.00
-5.00,+14.00,+7.00,+12.00,-24.00,-11.00,+11.00,-3.00,+2.00,+17.00,+30.00,+60.00,+56.00,+90.00,+11.00,-64.00
-3.00,-1.00,-1.00,-1.00,+42.00,-5.00,-36.00,+5.00,+9.00,+7.00,+14.00,+38.00,+3.00,-25.00,+8.00,+35.00
-17.00,-21.00,-14.00,-18.00,-22.00,-62.00,-55.00,-23.00,+30.00,+1.00,-21.00,-49.00,-49.00,-35.00,+15.00,+37.00
-43.00,-12.00,-12.00,-20.00,-15.00,-56.00,-44.00,-5.00,-30.00,+4.00,+6.00,+28.00,+10.00,-27.00,-14.00,-68.00
+19.00,+4.00,+2.00,+6.00,-42.00,-11.00,+31.00,-28.00,-7.00,-10.00,-9.00,-22.00,-27.00,-18.00,+27.00,+23.00
-18.00,-7.00,+1.00,+0.00,+32.00,-35.00,-30.00,+12.00,+34.00,+23.00,+21.00,-9.00,-15.00,+50.00,+13.00,+13.00
+15.00,+4.00,+3.00,+8.00,-19.00,+11.00,-23.00,-4.00,+2.00,-8.00,-12.00,-45.00,-14.00,-3.00,-49.00,+21.00
+52.00,+12.00,+3.00,+9.00,+35.00,-46.00,-74.00,+36.00,+21.00,+25.00,+28.00,+48.00,+62.00,+15.00,+6.00,-17.00
-28.00,-23.00,-12.00,+3.00,+22.00,-36.00,-27.00,-29.00,-9.00,-14.00,-24.00,-46.00,-49.00,+7.00,-1.00,+19.00
-62.00,-71.00,-21.00,-20.00,-53.00,+67.00,+54.00,+1.00,+31.00,-10.00,-39.00,-67.00,-56.00,-3.00,+26.00,+26.00
+120.00,+97.00,+28.00,+6.00,-24.00,-13.00,+36.00,+45.00,-44.00,+3.00,+14.00,+3.00,-18.00,-48.00,+22.00,-17.00
+16.00,+15.00,+2.00,-10.00,-40.00,-16.00,-21.00,+11.00,+14.00,-1.00,+10.00,+30.00,+53.00,+29.00,-40.00,+64.00
-36.00,-6.00,-6.00,-9.00,+30.00,-7.00,-40.00,+12.00,+7.00,+5.00,+9.00,+32.00,+19.00,-72.00,-44.00,-20.00
-5.00,-9.00,+9.00,+19.00,+13.00,+14.00,-41.00,-4.00,-34.00,-15.00,-14.00,-22.00,-21.00,-47.00,-65.00,-76.00
-42.00,-38.00,-17.00,-5.00,-14.00,-68.00,-81.00,-34.00,+38.00,+19.00,+24.00,+50.00,+70.00,+84.00,+33.00,+22.00
-44.00,-35.00,-15.00,-18.00,-70.00,-23.00,+7.00,-18.00,-1.00,-10.00,-16.00,-57.00,-53.00,-68.00,-19.00,+19.00
+37.00,+19.00,+11.00,+20.00,+18.00,-60.00,-45.00,-1.00,-6.00,+5.00,+9.00,+12.00,+18.00,-8.00,-77.00,-1.00
-12.00,+2.00,-11.00,-19.00,-10.00,+53.00,+25.00,-1.00,-1.00,+13.00,+33.00,+66.00,+74.00,+8.00,+32.00,-4.00
-37.00,-7.00,+1.00,-7.00,-39.00,-7.00,-39.00,-29.00,-23.00,-20.00,-34.00,-70.00,-84.00,-87.00,-28.00,-42.00
+45.00,+18.00,+16.00,+31.00,+61.00,+50.00,+83.00,+27.00,+1.00,+12.00,+14.00,+66.00,+86.00,+56.00,+6.00,-12.00
-3.00,+1.00,-1.00,-9.00,-60.00,+17.00,+77.00,+3.00,+2.00,-6.00,-12.00,-13.00,-42.00,-37.00,-39.00,+17.00
+65.00,+49.00,+17.00,+17.00,+60.00,+16.00,+54.00,+48.00,-13.00,-4.00,-2.00,-19.00,+4.00,+7.00,-9.00,-15.00
-17.00,-14.00,-7.00,-7.00,+10.00,+14.00,+66.00,+7.00,+2.00,-6.00,-6.00,-14.00,-40.00,-71.00,-18.00,+3.00
+20.00,+7.00,+13.00,+20.00,+21.00,+49.00,+50.00,+26.00,-23.00,-2.00,+11.00,+43.00,+43.00,+17.00,+22.00,-29.00
-13.00,-30.00,-9.00,-21.00,-33.00,-29.00,-35.00,-18.00,+4.00,-4.00,-19.00,-79.00,-60.00,+25.00,+27.00,+7.00
-46.00,+0.00,-6.00,-8.00,+2.00,+26.00,+9.00,-63.00,-4.00,-4.00,+10.00,+42.00,+75.00,+49.00,-27.00,+31.00
+81.00,+52.00,+17.00,+16.00,+34.00,+48.00,-27.00,+60.00,+6.00,+1.00,-10.00,-15.00,-21.00,-18.00,-24.00,-17.00
-58.00,-36.00,-18.00,-4.00,+57.00,-74.00,-44.00,-25.00,-3.00,-12.00,-25.00,-45.00,-44.00,-39.00,-21.00,-9.00
-23.00,-5.00,-2.00,-1.00,+6.00,+63.00,+83.00,+22.00,-3.00,+7.00,+7.00,+7.00,+4.00,+1.00,+23.00,+7.00
+14.00,+1.00,-1.00,-7.00,-35.00,-13.00,-8.00,+37.00,-15.00,-4.00,-3.00,+14.00,+16.00,+4.00,-2.00,-7.00
-7.00,-11.00,+0.00,+7.00,+0.00,-37.00,-84.00,-41.00,+23.00,+2.00,-12.00,-27.00,-44.00,-43.00,+27.00,+41.00
-98.00,-38.00,-10.00,-12.00,-51.00,-10.00,-47.00,-44.00,-13.00,-11.00,-20.00,-79.00,-62.00,-2.00,-31.00,-25.00
+51.00,+22.00,+9.00,+11.00,-2.00,-20.00,-13.00,+0.00,-13.00,-4.00,-9.00,-6.00,+34.00,+30.00,-7.00,-30.00
+18.00,+28.00,+19.00,+26.00,+5.00,-14.00,+9.00,+14.00,-6.00,-3.00,+3.00,+17.00,-3.00,-11.00,-1.00,-9.00
-41.00,-35.00,-14.00,-26.00,-45.00,-6.00,-5.00,-13.00,+0.00,+5.00,+7.00,+5.00,+7.00,+10.00,-15.00,-9.00
-11.00,+9.00,+7.00,+10.00,-6.00,-27.00,+8.00,+10.00,+2.00,+0.00,+3.00,+9.00,-7.00,+26.00,+18.00,-33.00
-43.00,-12.00,-6.00,-6.00,+15.00,+45.00,+18.00,-49.00,+8.00,-1.00,+2.00,+5.00,-26.00,-8.00,+30.00,+35.00
+59.00,-2.00,-4.00,+9.00,+70.00,-16.00,-47.00,+23.00,-20.00,-10.00,-11.00,-25.00,-5.00,+27.00,-55.00,-28.00
-10.00,-18.00,-6.00,-10.00,-15.00,+33.00,+33.00,-28.00,-5.00,-8.00,-8.00,-8.00,-4.00,-16.00,+17.00,-2.00
-2.00,+8.00,+2.00,-1.00,-60.00,-25.00,-37.00,-9.00,+8.00,+3.00,+10.00,+17.00,+8.00,-5.00,+6.00,+20.00
+0.00,+11.00,+3.00,+3.00,+8.00,-17.00,-39.00,-1.00,-4.00,-2.00,+7.00,+25.00,+47.00,+28.00,+12.00,-7.00
-35.00,-1.00,-3.00,+3.00,-7.00,-48.00,-46.00,-30.00,+7.00,-2.00,+3.00,+4.00,+3.00,-4.00,-7.00,+13.00
+0.00,-21.00,-9.00,-11.00,+28.00,-19.00,-6.00,-5.00,-4.00,+1.00,+5.00,+14.00,+42.00,+37.00,-3.00,-23.00
+32.00,+11.00,-5.00,-14.00,+16.00,+10.00,-30.00,-4.00,-2.00,-4.00,+0.00,+21.00,+1.00,+6.00,+10.00,+55.00
-10.00,+5.00,+5.00,+8.00,+1.00,+16.00,-15.00,+3.00,+10.00,+5.00,+0.00,-14.00,-46.00,-45.00,-50.00,-20.00
-24.00,-8.00,+0.00,+2.00,+22.00,-17.00,-27.00,-19.00,-26.00,-10.00,-7.00,-4.00,-8.00,-12.00,+16.00,-22.00
-9.00,-13.00,-10.00,-15.00,+13.00,+61.00,+76.00,+6.00,+6.00,-1.00,-2.00,+3.00,+1.00,-11.00,-8.00,+39.00
+15.00,+30.00,+10.00,+6.00,-9.00,+13.00,+46.00,+3.00,-5.00,-8.00,-15.00,-55.00,-41.00,+8.00,-9.00,-11.00
+23.00,+3.00,+3.00,+8.00,-4.00,-28.00,-32.00,-14.00,+10.00,+6.00,+18.00,+62.00,+80.00,+47.00,+27.00,+5.00
+22.00,+18.00,+10.00,+6.00,+13.00,+1.00,-10.00,+9.00,-12.00,-6.00,-11.00,-24.00,-33.00,-33.00,+71.00,-10.00
+25.00,+13.00,+10.00,+15.00,+29.00,-8.00,-3.00,+21.00,+11.00,+4.00,-6.00,-21.00,-24.00,+28.00,-1.00,+7.00
+37.00,-18.00,-6.00,-11.00,-10.00,-13.00,-41.00,+26.00,+3.00,+3.00,+5.00,+14.00,+7.00,-2.00,+4.00,-3.00
-27.00,-2.00,-3.00,-9.00,-1.00,+14.00,-53.00,+2.00,-10.00,+0.00,+14.00,+46.00,+38.00,+21.00,+11.00,+31.00
+7.00,-1.00,-4.00,-8.00,-13.00,-33.00,-12.00,+3.00,+5.00,+3.00,+5.00,+6.00,+4.00,-14.00,+18.00,-25.00
-27.00,-11.00,-5.00,-4.00,-15.00,+7.00,-14.00,-33.00,-2.00,-4.00,+1.00,-5.00,+8.00,+25.00,+21.00,+0.00
-5.00,-4.00,-1.00,+0.00,+10.00,+15.00,+35.00,+15.00,-2.00,-5.00,-11.00,-35.00,-69.00,-57.00,-36.00,+3.00
-1.00,-5.00,-2.00,-10.00,-60.00,-56.00,-65.00,+8.00,+6.00,-2.00,-5.00,+2.00,+10.00,+19.00,+21.00,-5.00
-12.00,-13.00,-3.00,+0.00,-12.00,+24.00,+27.00,-52.00,+5.00,+7.00,+2.00,+5.00,-6.00,+1.00,-2.00,+20.00
+10.00,+12.00,+7.00,+9.00,+41.00,-26.00,-47.00,+18.00,-3.00,+6.00,+18.00,+50.00,+47.00,+41.00,+2.00,-4.00
-19.00,-2.00,-3.00,-11.00,-34.00,-8.00,-13.00,-22.00,-5.00,-11.00,-15.00,-27.00,-10.00,-16.00,-26.00,+1.00
-33.00,-2.00,+3.00,+7.00,+48.00,+25.00,+6.00,+8.00,-2.00,-3.00,+0.00,-10.00,-8.00,-13.00,-17.00,-32.00
+68.00,+24.00,+6.00,+1.00,-14.00,+24.00,+43.00,+32.00,-23.00,-8.00,-1.00,+12.00,+5.00,+15.00,-21.00,+4.00
-46.00,-16.00,-6.00,-3.00,+14.00,+2.00,+12.00,-11.00,-2.00,+0.00,+2.00,+12.00,+0.00,-17.00,+4.00,-9.00
-30.00,-13.00,-9.00,-10.00,+17.00,+3.00,+23.00,+9.00,-4.00,-1.00,+2.00,+1.00,+8.00,-4.00,-8.00,-15.00
-11.00,+2.00,+4.00,+23.00,+24.00,-5.00,+21.00,-8.00,+5.00,+2.00,-7.00,-17.00,-32.00,-22.00,+5.00,+4.00
-5.00,-5.00,-5.00,-4.00,-34.00,+10.00,-29.00,-3.00,+8.00,-3.00,-6.00,-15.00,-4.00,-4.00,+10.00,+18.00
+8.00,+13.00,+7.00,+8.00,+26.00,+20.00,+9.00,+11.00,-6.00,+2.00,-1.00,-7.00,-8.00,-19.00,-15.00,-26.00
-1.00,-1.00,+2.00,+3.00,+15.00,+16.00,-6.00,-19.00,+13.00,+6.00,+10.00,+26.00,+27.00,+13.00,+26.00,+20.00
+10.00,+9.00,+3.00,+2.00,+4.00,-5.00,+1.00,+2.00,-18.00,-6.00,-3.00,+6.00,+15.00,-1.00,-9.00,-18.00
+16.00,+3.00,+3.00,+5.00,+12.00,-2.00,+39.00,+17.00,+16.00,+8.00,+9.00,+4.00,-13.00,+5.00,-9.00,+6.00
+14.00,+11.00,+1.00,+4.00,-11.00,-25.00,+5.00,-2.00,+3.00,-3.00,+0.00,+5.00,+12.00,-1.00,+6.00,+13.00
-4.00,-12.00,-7.00,+1.00,+32.00,+25.00,-51.00,-29.00,+12.00,+6.00,+4.00,+16.00,-11.00,-4.00,+8.00,-1.00
+15.00,+4.00,-3.00,-11.00,-20.00,-20.00,-14.00,+16.00,-7.00,+1.00,-1.00,-13.00,-3.00,+4.00,-17.00,-11.00
-10.00,-7.00,-3.00,-4.00,+11.00,-11.00,-33.00,-8.00,-11.00,-8.00,-12.00,-26.00,-23.00,+8.00,-10.00,-2.00
+2.00,+4.00,+4.00,-1.00,-44.00,-24.00,-10.00,+24.00,+16.00,+5.00,+6.00,+4.00,-3.00,+1.00,-4.00,+22.00
+14.00,-2.00,+0.00,+8.00,-2.00,-6.00,-20.00,+3.00,-2.00,+1.00,+8.00,+20.00,+19.00,-20.00,-11.00,-1.00
-11.00,-6.00,-2.00,+0.00,+10.00,+6.00,+34.00,+14.00,-4.00,-6.00,+2.00,+21.00,+44.00,+5.00,+24.00,-19.00
+15.00,+7.00,-2.00,-1.00,-11.00,+1.00,-25.00,+2.00,-18.00,-13.00,-29.00,-53.00,-64.00,-12.00,-31.00,+3.00
-13.00,-16.00,-6.00,-9.00,-39.00,+10.00,+25.00,-10.00,+7.00,+3.00,+1.00,+3.00,+17.00,-3.00,-5.00,-23.00
-3.00,+4.00,+0.00,-2.00,+28.00,-5.00,+20.00,-3.00,-3.00,+5.00,+10.00,+28.00,+20.00,+10.00,+6.00,+8.00
+9.00,+2.00,-1.00,-6.00,-6.00,+16.00,-4.00,-4.00,+17.00,+7.00,+9.00,+12.00,+35.00,+13.00,+5.00,+16.00
-20.00,-6.00,-1.00,+3.00,-6.00,-2.00,+16.00,-2.00,-6.00,+4.00,+3.00,+6.00,+20.00,-2.00,+6.00,-6.00
+12.00,+5.00,+1.00,+4.00,+23.00,+6.00,-15.00,+2.00,-14.00,-8.00,-10.00,-5.00,-2.00,-14.00,-8.00,+4.00
-10.00,-6.00,-3.00,+1.00,-11.00,-10.00,+7.00,-4.00,-5.00,+5.00,+11.00,+39.00,+48.00,+23.00,-10.00,-19.00
-14.00,-9.00,-5.00,-1.00,+3.00,-14.00,-1.00,-11.00,+5.00,-6.00,-15.00,-28.00,-20.00,+7.00,+6.00,+5.00
-14.00,-11.00,-8.00,-10.00,-22.00,-3.00,+21.00,-2.00,+1.00,+4.00,+3.00,+2.00,-9.00,-13.00,+4.00,+3.00
-12.00,+0.00,+2.00,+9.00,+17.00,-6.00,-16.00,+31.00,-2.00,-3.00,-9.00,-21.00,-34.00,-7.00,-2.00,-8.00
+26.00,+13.00,+7.00,+0.00,-23.00,+21.00,+63.00,+33.00,-2.00,-7.00,-16.00,-43.00,-41.00,-7.00,+9.00,+0.00
+10.00,+6.00,+3.00,+2.00,+23.00,-1.00,+17.00,-17.00,-6.00,-5.00,+2.00,+8.00,+14.00,+18.00,-5.00,-20.00
-6.00,-2.00,-4.00,-7.00,-31.00,-12.00,-7.00,+4.00,-1.00,-5.00,-3.00,+13.00,-4.00,-15.00,-25.00,+19.00
+7.00,-3.00,-3.00,-3.00,-11.00,-6.00,-7.00,-26.00,-8.00,-1.00,+2.00,+13.00,+16.00,+6.00,+16.00,+6.00
+20.00,+0.00,+0.00,+0.00,+12.00,+12.00,+36.00,+25.00,-8.00,-8.00,-9.00,-22.00,-20.00,-7.00,+5.00,-19.00
+1.00,+3.00,+4.00,+9.00,-3.00,-20.00,-44.00,+2.00,+14.00,+6.00,+4.00,-6.00,-5.00,+13.00,+1.00,+27.00
-4.00,-2.00,-5.00,-11.00,-9.00,-5.00,-39.00,-28.00,-5.00,-6.00,-9.00,-24.00,-33.00,-5.00,+2.00,-34.00
-32.00,-9.00,-2.00,-5.00,+3.00,+2.00,-12.00,-9.00,+9.00,+3.00,+7.00,+7.00,+2.00,-2.00,+1.00,+20.00
+15.00,+11.00,+5.00,+6.00,+16.00,-5.00,-8.00,+1.00,-7.00,-11.00,-16.00,-31.00,-38.00,-3.00,+4.00,-4.00
+0.00,-2.00,+6.00,+8.00,-1.00,+6.00,+25.00,+5.00,-24.00,-7.00,-2.00,-9.00,-14.00,-14.00,-14.00,-8.00
-7.00,+5.00,+2.00,+3.00,-4.00,-1.00,+39.00,+21.00,-2.00,+6.00,+6.00,+25.00,+51.00,+21.00,+7.00,-33.00
+21.00,+16.00,+2.00,-1.00,+4.00,+1.00,-20.00,-3.00,+12.00,+9.00,+3.00,-15.00,-9.00,-3.00,-16.00,-25.00
-21.00,-12.00,-1.00,+1.00,-29.00,-4.00,+19.00,+13.00,+19.00,+7.00,-1.00,-14.00,-9.00,-13.00,+26.00,+14.00
+4.00,+3.00,-5.00,-12.00,-31.00,-28.00,-45.00,+3.00,-2.00,+0.00,+4.00,+7.00,-12.00,-2.00,-5.00,-4.00
-1.00,-6.00,+4.00,+8.00,+22.00,+5.00,-19.00,-13.00,-18.00,-16.00,-17.00,-29.00,-30.00,-8.00,-6.00,-24.00
+8.00,-5.00,-7.00,-13.00,-7.00,+1.00,+19.00,-15.00,+5.00,-4.00,+1.00,+5.00,-10.00,-1.00,-3.00,+37.00
-43.00,-18.00,-8.00,-6.00,+14.00,-2.00,-8.00,-29.00,+4.00,+12.00,+11.00,+23.00,+19.00,-3.00,+4.00,+15.00
+47.00,+6.00,-3.00,-2.00,+13.00,+10.00,+18.00,+17.00,+3.00,+2.00,+4.00,+10.00,+12.00,+29.00,+32.00,+1.00
-30.00,-9.00,-6.00,-11.00,-38.00,+1.00,+21.00,-5.00,-2.00,-1.00,-1.00,-6.00,+6.00,-1.00,-6.00,-4.00
+31.00,+2.00,-1.00,+5.00,+29.00,+3.00,-6.00,-5.00,-9.00,-8.00,-14.00,-15.00,-16.00,-14.00,-5.00,-18.00
-10.00,-2.00,+0.00,+1.00,+6.00,-7.00,-38.00,-69.00,-12.00,-5.00,+0.00,+15.00,+9.00,-8.00,-12.00,-16.00
-26.00,-4.00,+1.00,+1.00,-3.00,-7.00,-10.00,+20.00,+10.00,+3.00,+4.00,+8.00,-2.00,-5.00,-14.00,+35.00
+1.00,-6.00,-4.00,-7.00,+10.00,-4.00,+0.00,+10.00,+8.00,+1.00,+6.00,+21.00,+18.00,-1.00,-3.00,+15.00
+2.00,-2.00,-3.00,+4.00,+8.00,+14.00,+15.00,+9.00,-10.00,-5.00,-8.00,-22.00,-23.00,-4.00,+3.00,-3.00
-12.00,-1.00,-3.00,-14.00,-10.00,-9.00,-25.00,-15.00,-6.00,-3.00,-9.00,-19.00,+8.00,+30.00,-4.00,-29.00
+40.00,+11.00,+0.00,-2.00,-7.00,+5.00,+29.00,+13.00,-20.00,-9.00,-14.00,-29.00,-55.00,-24.00,-44.00,-24.00
+20.00,+13.00,+8.00,+10.00,+14.00,+4.00,+11.00,+2.00,+20.00,+4.00,+2.00,+4.00,+16.00,+1.00,+7.00,+40.00
-15.00,+1.00,+0.00,-2.00,-17.00,-27.00,-47.00,-17.00,-13.00,+1.00,+6.00,+20.00,+16.00,-37.00,-18.00,-40.00
+6.00,-3.00,-1.00,-1.00,-3.00,+16.00,-18.00,+10.00,-4.00,-3.00,+5.00,+6.00,+15.00,+5.00,+3.00,-17.00
-18.00,-12.00,-5.00,+0.00,+37.00,-16.00,-50.00,-25.00,+14.00,-2.00,-14.00,-12.00,-22.00,-21.00,-4.00,+23.00
-39.00,-23.00,-8.00,-3.00,+24.00,+15.00,-50.00,-7.00,+7.00,+6.00,+7.00,+21.00,+17.00,+7.00,-4.00,+5.00
-10.00,+0.00,+3.00,+2.00,+3.00,+0.00,+1.00,+6.00,+4.00,+2.00,-2.00,-5.00,+1.00,+12.00,-5.00,+17.00
+10.00,+22.00,+7.00,+3.00,+7.00,+1.00,-24.00,+18.00,-5.00,-2.00,-6.00,-9.00,-8.00,-4.00,-8.00,+3.00
+7.00,+0.00,+3.00,+11.00,+10.00,+10.00,+26.00,+17.00,-4.00,-5.00,+0.00,+9.00,+15.00,-3.00,-1.00,-17.00
-18.00,-7.00,-3.00,-3.00,+5.00,+3.00,+5.00,-2.00,-1.00,-4.00,-3.00,-23.00,-12.00,-18.00,-17.00,-18.00
-25.00,-17.00,-8.00,-14.00,-57.00,-11.00,-6.00,+9.00,-21.00,-8.00,-4.00,+11.00,+8.00,+13.00,-8.00,-13.00
-18.00,-11.00,-6.00,+0.00,+0.00,-3.00,-8.00,-1.00,+5.00,+2.00,+6.00,+14.00,+6.00,-4.00,-7.00,+12.00
+3.00,+6.00,+0.00,-2.00,-10.00,+8.00,+1.00,-3.00,-10.00,-4.00,+2.00,+5.00,-8.00,-2.00,+8.00,-9.00
+8.00,+7.00,+3.00,-2.00,+6.00,+3.00,+8.00,+4.00,-2.00,-10.00,-14.00,-28.00,-63.00,-42.00,+2.00,-3.00
+3.00,-1.00,-2.00,+2.00,+17.00,+10.00,+3.00,-5.00,+1.00,-4.00,-7.00,-20.00,-15.00,+17.00,+22.00,+16.00
+1.00,-5.00,-2.00,+1.00,-18.00,-22.00,+2.00,+17.00,-6.00,-1.00,+4.00,+18.00,+10.00,-11.00,-36.00,-46.00
-9.00,-5.00,-6.00,-10.00,-17.00,+26.00,-2.00,-3.00,-23.00,-4.00,-5.00,-14.00,-16.00,-1.00,-1.00,+3.00
-4.00,-7.00,+0.00,+3.00,+29.00,-7.00,-20.00,-14.00,+14.00,+11.00,+9.00,+33.00,+38.00,+23.00,+11.00,+9.00
+25.00,+9.00,+3.00,-2.00,-25.00,+17.00,+13.00,+21.00,+15.00,+4.00,+0.00,-6.00,+0.00,-8.00,+14.00,+29.00
+24.00,+4.00,+5.00,+4.00,-6.00,-4.00,+17.00,+5.00,-11.00,-3.00,+0.00,+9.00,+20.00,+12.00,+1.00,-14.00
-27.00,-10.00,-3.00,-2.00,+5.00,+21.00,+16.00,-11.00,+4.00,-7.00,-16.00,-26.00,-43.00,-26.00,+8.00,+10.00
-6.00,+1.00,+0.00,+1.00,-17.00,-5.00,+15.00,+0.00,+6.00,+3.00,+0.00,+2.00,+8.00,+5.00,+9.00,+9.00
+13.00,+0.00,+1.00,+5.00,+14.00,+3.00,-9.00,-6.00,+8.00,+1.00,+11.00,+22.00,+26.00,+13.00,-4.00,-3.00
+4.00,-3.00,-2.00,+1.00,+8.00,-9.00,-23.00,-2.00,-2.00,+3.00,+6.00,+6.00,+1.00,+8.00,+13.00,+25.00
+4.00,+2.00,-1.00,-5.00,-16.00,+1.00,+18.00,-2.00,+6.00,+6.00,+9.00,+13.00,+19.00,+4.00,-8.00,-35.00
+41.00,+10.00,+6.00,+6.00,-16.00,+5.00,+26.00,+37.00,-22.00,-10.00,-9.00,-18.00,-13.00,+4.00,-4.00,-33.00
+9.00,+11.00,+1.00,-7.00,-22.00,-17.00,+1.00,-17.00,-8.00,-1.00,-3.00,-6.00,-8.00,-11.00,-7.00,-1.00
-2.00,-1.00,+0.00,-3.00,-16.00,+9.00,+12.00,-3.00,-9.00,-11.00,-7.00,-17.00,-21.00,-8.00,+1.00,+8.00
+10.00,-3.00,+2.00,-5.00,-16.00,-7.00,-2.00,+3.00,+4.00,+2.00,+2.00,+9.00,+16.00,+0.00,+3.00,+13.00
-48.00,-10.00,-6.00,-6.00,+4.00,+5.00,+7.00,-11.00,-5.00,+0.00,+0.00,+10.00,+5.00,-9.00,-15.00,-5.00
-8.00,-7.00,-6.00,-3.00,+5.00,-10.00,-12.00,-12.00,+17.00,+5.00,-2.00,-4.00,-16.00,-7.00,-4.00,-15.00
-2.00,-6.00,+0.00,+0.00,-15.00,-5.00,-24.00,-18.00,+10.00,-3.00,-2.00,+2.00,+25.00,+13.00,+21.00,+21.00
-7.00,+1.00,-4.00,-1.00,+22.00,-1.00,-1.00,+19.00,-1.00,+3.00,+3.00,+9.00,+7.00,+0.00,+2.00,+0.00
+11.00,+4.00,+0.00,-2.00,-22.00,-18.00,-21.00,+1.00,+13.00,-1.00,-7.00,-15.00,-23.00,-2.00,-2.00,-11.00
-4.00,-4.00,+2.00,+1.00,+16.00,+34.00,+107.00,+13.00,-17.00,+4.00,+4.00,+12.00,+20.00,+8.00,+4.00,+4.00
-3.00,+1.00,-2.00,-3.00,+6.00,+0.00,+12.00,+6.00,+27.00,+6.00,-5.00,-18.00,-13.00,-1.00,+12.00,+16.00
+2.00,+3.00,-5.00,-5.00,+2.00,+10.00,+33.00,-13.00,-42.00,-14.00,+3.00,+2.00,+8.00,+4.00,+2.00,+1.00
+23.00,+7.00,+1.00,+2.00,+3.00,+35.00,+44.00,+37.00,-2.00,-7.00,+1.00,+15.00,+14.00,+8.00,-2.00,-17.00
+4.00,+1.00,+2.00,+5.00,+10.00,-5.00,-19.00,+6.00,-22.00,-13.00,-5.00,+9.00,+18.00,+3.00,-11.00,-21.00
+7.00,+0.00,-1.00,+0.00,+2.00,+6.00,+31.00,+12.00,+3.00,+1.00,-17.00,-47.00,-62.00,-21.00,-1.00,+33.00
+31.00,+1.00,+3.00,+5.00,+17.00,+5.00,+6.00,+11.00,+38.00,+9.00,-5.00,-6.00,+5.00,+7.00,-8.00,+0.00
-3.00,+8.00,-3.00,-8.00,-13.00,-19.00,-15.00,-28.00,-18.00,+6.00,+4.00,+10.00,+11.00,+3.00,+1.00,+10.00
-14.00,-11.00,-3.00,-1.00,-5.00,-10.00,-24.00,-16.00,+24.00,+1.00,+2.00,-7.00,+8.00,+3.00,+1.00,+3.00
-11.00,+14.00,-4.00,-7.00,-10.00,-6.00,-12.00,-12.00,-27.00,-2.00,+0.00,+1.00,-11.00,-8.00,-17.00,-33.00
+0.00,+1.00,+0.00,-1.00,-13.00,-6.00,-10.00,-9.00,+13.00,+17.00,+7.00,+1.00,+7.00,+2.00,-3.00,-15.00
-20.00,-23.00,-8.00,-3.00,+3.00,-6.00,-5.00,-23.00,-11.00,-23.00,-10.00,-10.00,-5.00,-12.00,+7.00,+33.00
-18.00,-8.00,-2.00,-5.00,-4.00,+4.00,-10.00,-16.00,+5.00,+1.00,+5.00,+9.00,+2.00,+0.00,+0.00,-29.00
+8.00,+0.00,+3.00,+8.00,+21.00,-11.00,+17.00,+10.00,+10.00,+10.00,-4.00,-2.00,+4.00,-3.00,-5.00,-1.00
-12.00,-2.00,-2.00,+1.00,-17.00,-1.00,-9.00,+1.00,-12.00,+21.00,+26.00,+7.00,+6.00,-4.00,-6.00,+6.00
+7.00,-14.00,-7.00,-4.00,-1.00,+1.00,+1.00,-10.00,+4.00,-17.00,-22.00,-13.00,+4.00,+15.00,+3.00,+10.00
-14.00,-21.00,-3.00,+1.00,+10.00,-4.00,-1.00,+7.00,-29.00,-30.00,-11.00,+6.00,+10.00,+4.00,+8.00,+20.00
-17.00,-12.00,-4.00,-8.00,-10.00,-8.00,-10.00,+3.00,-5.00,-33.00,-17.00,-14.00,-23.00,-13.00,-12.00,+2.00
+16.00,+47.00,+19.00,+11.00,+2.00,+2.00,+0.00,-1.00,+1.00,+10.00,-10.00,-10.00,-18.00,-1.00,+5.00,-7.00
-13.00,-5.00,-4.00,-4.00,+2.00,-7.00,-3.00,-15.00,+2.00,+25.00,+35.00,+17.00,+12.00,+5.00,+0.00,-5.00
+41.00,+27.00,-4.00,+3.00,+5.00,-8.00,-18.00,+7.00,+15.00,-15.00,-30.00,-25.00,-29.00,-12.00,-8.00,+8.00
-7.00,+0.00,-6.00,-14.00,-18.00,+6.00,-8.00,-8.00,-16.00,+1.00,-6.00,-19.00,-19.00,-2.00,+5.00,-10.00
-38.00,-39.00,-13.00,-8.00,-7.00,-12.00,-24.00,-38.00,+13.00,-1.00,+2.00,-1.00,-3.00,+10.00,+13.00,+22.00
+19.00,+7.00,+6.00,+2.00,-6.00,-1.00,+4.00,+18.00,-1.00,+11.00,+5.00,+5.00,+6.00,-13.00,+14.00,+3.00
-11.00,-11.00,-1.00,+3.00,+0.00,-6.00,-3.00,-15.00,-7.00,+9.00,+9.00,+5.00,+12.00,+8.00,-15.00,-11.00
+79.00,+21.00,+2.00,-1.00,+9.00,+12.00,+10.00,+22.00,-2.00,+8.00,+18.00,+19.00,+12.00,+5.00,+12.00,-18.00
-17.00,-17.00,-9.00,-6.00,-18.00,+2.00,+10.00,+28.00,+5.00,+25.00,+13.00,-7.00,-12.00,-11.00,-5.00,+23.00
-15.00,+8.00,+7.00,+0.00,-4.00,-16.00,-32.00,-19.00,-1.00,-42.00,-27.00,+3.00,+16.00,+7.00,+2.00,+0.00
-3.00,-6.00,+1.00,+1.00,-1.00,+3.00,-7.00,-19.00,-11.00,-23.00,-6.00,+4.00,+3.00,-4.00,+0.00,-12.00
-51.00,-32.00,-6.00,-3.00,-4.00,-11.00,-15.00,-11.00,-25.00,+9.00,+5.00,+8.00,+5.00,-11.00,-21.00,-11.00
+41.00,+24.00,+2.00,+4.00,+8.00,+4.00,+14.00,+13.00,+18.00,-40.00,-29.00,-20.00,-6.00,-8.00,-9.00,-3.00
-1.00,+10.00,+14.00,+4.00,-4.00,-7.00,+1.00,-1.00,-10.00,+17.00,-1.00,-22.00,-29.00,-6.00,-8.00,-8.00
-11.00,+1.00,-1.00,+3.00,+1.00,+1.00,-4.00,-3.00,+0.00,+11.00,+3.00,+1.00,+1.00,-2.00,+4.00,+23.00
-16.00,+7.00,+8.00,-1.00,+0.00,-3.00,-11.00,-15.00,+8.00,+5.00,-4.00,-5.00,-10.00,+1.00,-8.00,-7.00
-2.00,-14.00,+5.00,+1.00,+16.00,-2.00,-16.00,+1.00,-13.00,+25.00,+42.00,+35.00,+37.00,+12.00,+8.00,-4.00
-10.00,-26.00,-29.00,-6.00,+5.00,+0.00,+11.00,+17.00,-25.00,-93.00,-57.00,-13.00,-6.00,+0.00,-20.00,-24.00
-15.00,+8.00,-4.00,-12.00,-33.00,-11.00,-14.00,-11.00,+8.00,+14.00,+0.00,-12.00,-14.00,+5.00,+18.00,+7.00
-7.00,-12.00,-15.00,-10.00,-7.00,+2.00,+9.00,-10.00,+8.00,+18.00,+12.00,+11.00,+6.00,-6.00,-10.00,+18.00
-43.00,-13.00,-3.00,-3.00,-18.00,-16.00,-16.00,+1.00,-9.00,-11.00,-16.00,+3.00,+9.00,+3.00,+4.00,-12.00
-16.00,-2.00,+6.00,+4.00,+21.00,+7.00,-1.00,-3.00,+27.00,+46.00,+30.00,+5.00,+6.00,+7.00,+4.00,+25.00
+9.00,-2.00,+4.00,+4.00,+16.00,-13.00,-15.00,-11.00,-8.00,+11.00,+15.00,+7.00,+5.00,-5.00,-19.00,-19.00
-7.00,-2.00,-4.00,+4.00,+3.00,+7.00,-1.00,+12.00,+1.00,-28.00,-18.00,+3.00,+11.00,+6.00,+27.00,+14.00
+6.00,-9.00,-8.00,-8.00,-7.00,-3.00,+9.00,-5.00,+29.00,-2.00,-11.00,-7.00,-5.00,-3.00,-8.00,-1.00
+13.00,+29.00,+28.00,+9.00,+20.00,+6.00,+9.00,+7.00,-15.00,+56.00,+27.00,+3.00,-2.00,+0.00,+0.00,-3.00
-4.00,+7.00,+16.00,+0.00,-4.00,-4.00,-3.00,+4.00,-10.00,-20.00,-5.00,+4.00,+8.00,+7.00,+9.00,-6.00
-11.00,-11.00,-23.00,-5.00,-2.00,-5.00,-6.00,+13.00,+47.00,+23.00,+15.00,-4.00,-5.00,+0.00,-5.00,+51.00
+23.00,+30.00,+5.00,+1.00,+7.00,+10.00,-3.00,-8.00,-54.00,-32.00,-18.00,-21.00,-38.00,-21.00,-23.00,-37.00
+3.00,-18.00,-20.00,-10.00,+0.00,-4.00,-2.00,+0.00,-8.00,+1.00,+8.00,+9.00,+1.00,+4.00,+4.00,-3.00
-6.00,-4.00,+7.00,-2.00,-3.00,+0.00,+0.00,+5.00,+4.00,+5.00,-14.00,-20.00,-20.00,-4.00,+4.00,+3.00
-8.00,-27.00,+7.00,+3.00,+3.00,-3.00,-5.00,-13.00,-12.00,-48.00,-14.00,+10.00,+16.00,+9.00,-3.00,-16.00
-16.00,-21.00,-29.00,-9.00,-2.00,-11.00,+1.00,-8.00,+5.00,-7.00,-13.00,-5.00,-13.00,-2.00,+10.00,+9.00
+61.00,+90.00,+36.00,+12.00,+2.00,+12.00,+3.00,+14.00,+24.00,+20.00,-4.00,-20.00,-11.00,-12.00,-16.00,+4.00
-14.00,-7.00,-6.00,+0.00,+4.00,+7.00,-2.00,-2.00,-33.00,-4.00,+3.00,+7.00,+8.00,-4.00,-2.00,-11.00
-29.00,-9.00,-1.00,-2.00,+8.00,+2.00,-5.00,-5.00,-5.00,+4.00,+2.00,+11.00,+23.00,+4.00,-7.00,-8.00
+13.00,-13.00,+7.00,+4.00,+14.00,-1.00,+0.00,-9.00,-5.00,+1.00,+9.00,-1.00,-7.00,+0.00,+6.00,+7.00
-38.00,-26.00,-13.00,-10.00,-26.00,-8.00,-3.00,-9.00,+8.00,+31.00,+25.00,+12.00,+15.00,+9.00,+8.00,-6.00
+20.00,-8.00,-8.00,-2.00,+4.00,-2.00,+7.00,+17.00,+5.00,-25.00,-20.00,-3.00,+15.00,+0.00,-9.00,+3.00
-39.00,+17.00,+16.00,+7.00,-6.00,-9.00,-15.00,-8.00,+1.00,+13.00,+2.00,-10.00,-16.00,-3.00,+3.00,+0.00
+5.00,-8.00,+0.00,+0.00,+4.00,+5.00,+4.00,-24.00,+15.00,+44.00,+11.00,+13.00,+12.00,+2.00,+1.00,-4.00
-7.00,-14.00,-6.00,-3.00,+0.00,-6.00,+0.00,+3.00,-7.00,-49.00,-4.00,-4.00,-8.00,-3.00,-5.00,+4.00
+32.00,+36.00,+12.00,+6.00,-3.00,+1.00,+11.00,+24.00,+13.00,+38.00,+5.00,-1.00,+0.00,-1.00,-6.00,-6.00
-41.00,-48.00,-35.00,-8.00,+2.00,-6.00,-1.00,-17.00,-17.00,-63.00,-33.00,+0.00,-4.00,-1.00,+8.00,+0.00
+30.00,+25.00,+2.00,-9.00,-20.00,-7.00,+4.00,+17.00,-31.00,-49.00,-24.00,-7.00,+13.00,+1.00,-5.00,-11.00
+16.00,+28.00,+27.00,+8.00,+10.00,+1.00,+0.00,+24.00,+15.00,+29.00,-8.00,-43.00,-41.00,-15.00,-11.00,-7.00
-6.00,-16.00,-13.00,-1.00,-4.00,+7.00,+10.00,+13.00,+5.00,-17.00,-1.00,+1.00,-8.00,-4.00,+0.00,+9.00
+47.00,+40.00,+24.00,+10.00,+5.00,+4.00,+6.00,+3.00,+18.00,+73.00,+32.00,+9.00,+5.00,+3.00,-4.00,-7.00
-19.00,-14.00,-2.00,-1.00,+6.00,+2.00,+5.00,-13.00,-34.00,-30.00,-15.00,-13.00,-9.00,-7.00,-11.00,-20.00
-14.00,-18.00,-13.00,-7.00,-28.00,-9.00,+1.00,-16.00,-2.00,+11.00,+5.00,+13.00,+19.00,+6.00,+5.00,-7.00
+6.00,+16.00,+26.00,+4.00,+0.00,-1.00,-2.00,-2.00,+40.00,+28.00,+20.00,+11.00,+11.00,+4.00,+4.00,+13.00
+3.00,-22.00,-4.00,-1.00,-9.00,-3.00,+7.00,+2.00,-33.00,-31.00,-16.00,-16.00,-38.00,-15.00,-12.00,-15.00
+4.00,+35.00,-6.00,-5.00,-6.00,+6.00,+4.00,+20.00,+31.00,+17.00,+15.00,+5.00,+3.00,+1.00,+2.00,+18.00
+23.00,-15.00,-16.00,+0.00,+7.00,+1.00,+4.00,+9.00,-15.00,+17.00,+15.00,+11.00,+12.00,+6.00,-12.00,-20.00
-5.00,+11.00,+3.00,+0.00,-8.00,+0.00,+4.00,-5.00,-2.00,+34.00,+29.00,+3.00,-6.00,+0.00,-2.00,-3.00
-23.00,-16.00,-7.00,-5.00,-12.00,-2.00,-9.00,-10.00,-8.00,-74.00,-45.00,-3.00,+8.00,+7.00,+12.00,-4.00
-17.00,-36.00,-4.00,+4.00,+8.00,+0.00,-3.00,-1.00,+0.00,+20.00,+18.00,+6.00,+0.00,-3.00,+0.00,+4.00
-6.00,-4.00,+17.00,-3.00,+2.00,+0.00,+0.00,-19.00,+2.00,-9.00,-17.00,+3.00,-2.00,+0.00,-6.00,+1.00
-22.00,-21.00,-24.00,-6.00,-3.00,-4.00,-7.00,-2.00,-21.00,-25.00,-13.00,-12.00,-10.00,-2.00,+2.00,+0.00
+40.00,+28.00,-2.00,+0.00,+3.00,+2.00,+1.00,-6.00,+10.00,+25.00,+27.00,+17.00,+13.00,+0.00,-7.00,-8.00
+17.00,+28.00,+14.00,+6.00,+6.00,+0.00,+1.00,+19.00,+26.00,+37.00,+10.00,-13.00,-27.00,-6.00,-4.00,+9.00
-46.00,-44.00,-37.00,-9.00,-12.00,+0.00,-8.00,-18.00,-6.00,-13.00,+9.00,-3.00,+2.00,-2.00,+11.00,-3.00
+27.00,+18.00,+21.00,-1.00,+2.00,+9.00,-3.00,-13.00,+2.00,-56.00,-45.00,+3.00,+4.00,-1.00,+3.00,+9.00
+13.00,+11.00,+11.00,+4.00,+11.00,+1.00,+1.00,+12.00,-35.00,+3.00,+7.00,-1.00,+10.00,+1.00,-5.00,-13.00
-23.00,-18.00,-9.00,-6.00,-9.00,-5.00,-5.00,-5.00,+22.00,-4.00,-25.00,-19.00,-21.00,-10.00,-9.00,+13.00
+10.00,+2.00,-7.00,+0.00,+0.00,+0.00,+2.00,+6.00,-36.00,+13.00,+14.00,+3.00,+2.00,-4.00,-10.00,-6.00
-3.00,+4.00,-4.00,-1.00,+5.00,-10.00,-4.00,+4.00,+54.00,+42.00,+22.00,+4.00,-10.00,-3.00,+8.00,+11.00
+8.00,+2.00,+10.00,+3.00,+11.00,+7.00,-20.00,-3.00,+4.00,-5.00,-1.00,+6.00,+19.00,+5.00,+1.00,+0.00
-11.00,-11.00,+3.00,-1.00,-7.00,-1.00,+0.00,+3.00,+16.00,+8.00,+4.00,+6.00,+13.00,+8.00,+5.00,+9.00
+36.00,-15.00,-11.00,-1.00,+3.00,-1.00,-1.00,-12.00,-22.00,-7.00,+10.00,+8.00,+4.00,+5.00,+1.00,-4.00
-25.00,-14.00,-29.00,-11.00,-3.00,-6.00,-6.00,+3.00,-24.00,-64.00,-37.00,-18.00,-5.00,-2.00,-8.00,-4.00
+4.00,+27.00,+25.00,+4.00,-3.00,-4.00,+8.00,+22.00,+8.00,+48.00,+18.00,-2.00,-12.00,+1.00,+3.00,+2.00
-8.00,-14.00,-26.00,-8.00,-4.00,-1.00,+5.00,+20.00,+20.00,+2.00,+0.00,+7.00,+9.00,+0.00,+6.00,+7.00
-9.00,+8.00,+16.00,+2.00,-2.00,-2.00,-4.00,-14.00,+17.00,-31.00,-27.00,-6.00,-7.00,-6.00,-11.00,-7.00
+6.00,+8.00,+8.00,+4.00,+0.00,+0.00,+0.00,-9.00,-32.00,+2.00,+5.00,+6.00,+5.00,-1.00,+1.00,-12.00
+7.00,-6.00,-8.00,-7.00,-14.00,-3.00,+0.00,-8.00,+20.00,+71.00,+30.00,+5.00,+0.00,-1.00,+0.00,+6.00
-22.00,-31.00,-30.00,-11.00,-1.00,-4.00,-10.00,-27.00,-20.00,-71.00,-28.00,+11.00,+21.00,+8.00,+9.00,+7.00
-8.00,-15.00,-26.00,-14.00,-5.00,-3.00,+3.00,+2.00,+9.00,+1.00,-1.00,-14.00,-1.00,+1.00,+1.00,+6.00
+1.00,+16.00,+28.00,+11.00,-3.00,+5.00,+6.00,+8.00,+18.00,+23.00,+19.00,-2.00,-7.00,-5.00,-3.00,+8.00
+19.00,+16.00,+3.00,+4.00,+0.00,+6.00,+4.00,+9.00,-40.00,-23.00,-17.00,-15.00,-28.00,-9.00,-6.00,-14.00
-15.00,+5.00,+10.00,+1.00,+0.00,-7.00,-23.00,-39.00,+18.00,+20.00,+4.00,-14.00,-13.00,-4.00,-4.00,-7.00
+20.00,+10.00,+0.00,+3.00,+0.00,-1.00,+3.00,+42.00,-11.00,-37.00,-9.00,+8.00,+12.00,+3.00,-4.00,+5.00
-15.00,-42.00,-19.00,-7.00,+0.00,+3.00,+10.00,-3.00,+14.00,+0.00,-1.00,-8.00,-1.00,-4.00,+3.00,+0.00
+3.00,+23.00,+7.00,+3.00,+3.00,+0.00,+4.00,+12.00,+27.00,+2.00,+4.00,+4.00,+8.00,+2.00,-3.00,+18.00
+8.00,+2.00,+20.00,+6.00,+3.00,+4.00,+4.00,-3.00,-13.00,+10.00,-1.00,+0.00,+4.00,+0.00,+5.00,-9.00
+21.00,+41.00,-2.00,+6.00,+9.00,+13.00,+8.00,+11.00,-23.00,-30.00,-4.00,+3.00,-4.00,-5.00,-11.00,-19.00
-2.00,-7.00,-8.00,-5.00,+1.00,-6.00,-12.00,-9.00,+8.00,+22.00,-4.00,-4.00,-9.00,-1.00,+1.00,+6.00
-17.00,-18.00,-18.00,-9.00,-6.00,-2.00,-2.00,-3.00,-12.00,-15.00,+8.00,+6.00,+6.00,+1.00,+0.00,+16.00
-4.00,+1.00,+18.00,+6.00,-1.00,-2.00,-1.00,+10.00,+15.00,-14.00,-2.00,-2.00,-3.00,-3.00,-6.00,-15.00
-27.00,-22.00,+14.00,+2.00,-2.00,+2.00,+5.00,+10.00,+28.00,+17.00,-6.00,-1.00,-5.00,+1.00,+8.00,+30.00
+22.00,+37.00,-4.00,+2.00,+4.00,+4.00,+2.00,+14.00,-29.00,-3.00,+0.00,+3.00,+6.00,+2.00,-6.00,-30.00
-19.00,-29.00,-19.00,-7.00,-4.00,-5.00,-4.00,-5.00,+14.00,+6.00,+0.00,-4.00,-2.00,-2.00,+1.00,+13.00
-7.00,+17.00,+13.00,+6.00,+11.00,-1.00,-2.00,-14.00,-13.00,-17.00,-4.00,+6.00,+6.00,-1.00,+1.00,+4.00
-20.00,-8.00,-2.00,-3.00,+0.00,-15.00,-10.00,-25.00,-15.00,+8.00,+12.00,+20.00,+11.00,+3.00,+3.00,-4.00
-4.00,-17.00,-8.00,-8.00,-13.00,+5.00,+12.00,+18.00,+25.00,+2.00,-6.00,+3.00,+4.00,+0.00,+3.00,+9.00
+26.00,+18.00,+0.00,-3.00,+8.00,+10.00,+11.00,-4.00,-2.00,-1.00,-15.00,-40.00,-34.00,-7.00,-8.00,-13.00
-15.00,-13.00,+1.00,+4.00,+5.00,-1.00,+0.00,-7.00,+5.00,+13.00,+3.00,-3.00,-10.00,-8.00,-5.00,+3.00
+19.00,-7.00,+12.00,+6.00,+6.00,+2.00,+4.00,+2.00,+8.00,-7.00,-2.00,-1.00,+3.00,-3.00,-5.00,+4.00
-11.00,+17.00,-3.00,-5.00,+0.00,-1.00,-3.00,-8.00,-18.00,+3.00,+18.00,+19.00,+18.00,+7.00,-2.00,-14.00
-12.00,-7.00,+6.00,+2.00,-2.00,+3.00,+5.00,-4.00,-45.00,-27.00,-14.00,+6.00,+6.00,-1.00,-5.00,-29.00
-4.00,-33.00,-10.00,-4.00,-7.00,+2.00,-1.00,+0.00,+30.00,-22.00,-8.00,+1.00,+8.00,+6.00,+6.00,+26.00
+30.00,+32.00,+1.00,-4.00,-7.00,+0.00,-5.00,-4.00,+24.00,+47.00,+6.00,-1.00,-5.00,-4.00,-9.00,+1.00
-19.00,-25.00,-5.00,+2.00,-1.00,-2.00,+1.00,-3.00,+7.00,+23.00,+30.00,+2.00,-6.00,-1.00,+15.00,+8.00
+19.00,-4.00,-3.00,+2.00,+0.00,-1.00,-1.00,+1.00,-2.00,-55.00,-35.00,-10.00,-1.00,-5.00,-6.00,-6.00
+13.00,+24.00,+4.00,+1.00,+3.00,+3.00,+10.00,+14.00,-15.00,-6.00,+1.00,+0.00,-2.00,-1.00,+1.00,+0.00
-14.00,+8.00,+1.00,+2.00,-1.00,+4.00,+0.00,+3.00,+2.00,-9.00,-8.00,+0.00,+1.00,+3.00,+9.00,+11.00
+35.00,-4.00,+10.00,+3.00,+6.00,+0.00,+1.00,+15.00,+7.00,+54.00,+25.00,+6.00,+2.00,+1.00,-7.00,-6.00
+2.00,+35.00,+14.00,+1.00,-3.00,-4.00,-1.00,+0.00,+39.00,+19.00,+16.00,+10.00,-1.00,+1.00,+3.00,+18.00
-3.00,-25.00,-10.00,-2.00,-2.00,-1.00,+4.00,+1.00,-21.00,-27.00,-6.00,+4.00,+13.00,+2.00,+0.00,-7.00
-9.00,-16.00,-23.00,-14.00,-8.00,-9.00,-6.00,+2.00,+20.00,-6.00,+0.00,+15.00,-6.00,+3.00,+7.00,+5.00
-6.00,-7.00,-12.00,-4.00,-8.00,+5.00,-6.00,-14.00,-16.00,-14.00,-16.00,-31.00,-14.00,-6.00,-2.00,+8.00
-31.00,-25.00,-8.00,-4.00,+3.00,-1.00,-5.00,-25.00,-11.00,+7.00,+6.00,-4.00,+3.00,-3.00,+2.00,-3.00
+18.00,+22.00,+12.00,+3.00,+4.00,+1.00,+13.00,+23.00,-32.00,+16.00,+6.00,+17.00,+23.00,+2.00,-7.00,-18.00
-29.00,-46.00,+3.00,+2.00,+7.00,-1.00,+1.00,-2.00,+21.00,+2.00,-14.00,-48.00,-65.00,-17.00,+2.00,-4.00
+2.00,+14.00,-2.00,+1.00,+5.00,-4.00,+0.00,+0.00,-2.00,-10.00,+3.00,+20.00,+14.00,+6.00,+4.00,+7.00
+9.00,-24.00,+7.00,+3.00,-6.00,-4.00,-5.00,+3.00,+4.00,+11.00,+3.00,+4.00,+3.00,+4.00,+6.00,+19.00
+10.00,+29.00,+5.00,+4.00,-2.00,+5.00,-1.00,-7.00,-7.00,+13.00,+1.00,-18.00,-12.00,-9.00,-9.00,-7.00
-33.00,-32.00,-13.00,-7.00,-2.00,-3.00,-7.00,-24.00,-5.00,-25.00,-13.00,+9.00,+25.00,+6.00,+0.00,+4.00
-26.00,-34.00,-12.00,-5.00,+0.00,-4.00,-7.00,-9.00,-33.00,-60.00,-23.00,-4.00,-5.00,-7.00,-9.00,-29.00
-1.00,-7.00,+3.00,+3.00,+2.00,-1.00,-2.00,-10.00,-21.00,-13.00,+6.00,+0.00,-2.00,-6.00,-14.00,-21.00
+33.00,+31.00,-6.00,-4.00,-1.00,+0.00,+0.00,-1.00,+10.00,+10.00,-12.00,+1.00,+0.00,+3.00,+9.00,-4.00
+3.00,+12.00,+4.00,+1.00,-5.00,-2.00,-6.00,-22.00,+10.00,+19.00,+8.00,+7.00,+8.00,-1.00,+6.00,+20.00
-43.00,-31.00,-10.00,-3.00,-7.00,-6.00,-1.00,-7.00,+33.00,+26.00,+2.00,-13.00,-20.00,-3.00,+6.00,+37.00
+37.00,+42.00,+25.00,+8.00,+6.00,+4.00,+9.00,+19.00,-54.00,-6.00,-1.00,+10.00,+12.00,+3.00,-8.00,-37.00
+0.00,-11.00,-10.00,-5.00,-7.00,-4.00,+1.00,+15.00,-14.00,-11.00,+10.00,+1.00,-7.00,+1.00,-3.00,-8.00
+10.00,+15.00,+3.00,+4.00,+14.00,+7.00,+4.00,-5.00,+30.00,-2.00,-8.00,+1.00,+15.00,+5.00,-1.00,+3.00
-8.00,+8.00,+1.00,+0.00,-10.00,+8.00,+2.00,-16.00,+10.00,-4.00,-3.00,-5.00,-15.00,-4.00,-2.00,+12.00
-55.00,-11.00,-17.00,-11.00,-12.00,-14.00,-11.00,+11.00,-16.00,-4.00,-4.00,-22.00,-27.00,-12.00,-5.00,-1.00
+23.00,-3.00,+4.00,-2.00,-17.00,-15.00,-5.00,+10.00,-3.00,+18.00,+3.00,-5.00,-5.00,-4.00,+2.00,-1.00
+7.00,+5.00,-3.00,-3.00,+19.00,+11.00,-3.00,-17.00,-18.00,-16.00,-4.00,-18.00,-18.00,-11.00,-5.00,-9.00
+10.00,+18.00,+19.00,+4.00,+1.00,-5.00,+0.00,+12.00,-37.00,-11.00,-5.00,+8.00,+20.00,+1.00,-5.00,-20.00
-11.00,-6.00,-13.00,-2.00,+0.00,+2.00,+6.00,+13.00,+26.00,+11.00,+2.00,+5.00,+7.00,+3.00,+4.00,+14.00
-27.00,-17.00,-15.00,-9.00,-9.00,-6.00,-10.00,-27.00,+22.00,+13.00,-1.00,-9.00,-14.00,+0.00,-1.00,-4.00
+31.00,+39.00,+16.00,+8.00,-4.00,-2.00,+7.00,+22.00,-15.00,+15.00,+12.00,+13.00,+13.00,+7.00,+14.00,+8.00
+21.00,-14.00,+11.00,+5.00,+7.00,+3.00,+3.00,-2.00,+7.00,-11.00,-2.00,+6.00,+7.00,+2.00,+0.00,-1.00
+33.00,+51.00,+2.00,-2.00,+1.00,-3.00,-6.00,-16.00,+18.00,-21.00,-17.00,+2.00,+1.00,+0.00,-4.00,+14.00
-22.00,-28.00,-8.00,+0.00,+0.00,+0.00,-3.00,-5.00,-21.00,-13.00,-3.00,-5.00,-3.00,-3.00,+1.00,-9.00
-14.00,-5.00,-4.00,-6.00,-12.00,-6.00,-2.00,-4.00,-4.00,+3.00,+0.00,+0.00,+2.00,-4.00,-20.00,-31.00
-18.00,-6.00,-11.00,-5.00,+4.00,-3.00,-7.00,-1.00,-4.00,+25.00,+14.00,-1.00,-6.00,-2.00,+9.00,-4.00
+40.00,+18.00,+18.00,+8.00,+1.00,+0.00,+3.00,+14.00,+4.00,-12.00,-14.00,-4.00,+3.00,-1.00,+5.00,+8.00
-19.00,-16.00,-8.00,-1.00,+4.00,+3.00,+3.00,+15.00,+12.00,+9.00,+9.00,+0.00,-4.00,+0.00,+0.00,+10.00
+7.00,+6.00,+11.00,+8.00,-8.00,+2.00,+8.00,+31.00,-22.00,-25.00,-2.00,+5.00,+17.00,+5.00,+4.00,-1.00
+20.00,+31.00,-2.00,-2.00,-4.00,-5.00,-2.00,+1.00,+8.00,+0.00,-6.00,+6.00,-5.00,-2.00,-14.00,-15.00
-5.00,-12.00,-1.00,+0.00,+3.00,+4.00,-12.00,-12.00,+15.00,+8.00,+1.00,-17.00,-22.00,-7.00,+7.00,-1.00
+9.00,+1.00,+0.00,-2.00,-4.00,+2.00,+9.00,+7.00,-19.00,-17.00,-8.00,+3.00,+6.00,+0.00,-4.00,+10.00
-8.00,-7.00,+2.00,-5.00,+3.00,-2.00,-7.00,-19.00,+6.00,+12.00,+1.00,+0.00,-2.00,-8.00,-12.00,-15.00
+11.00,+16.00,-11.00,-1.00,-1.00,-10.00,-7.00,+31.00,+0.00,+3.00,+3.00,+10.00,+18.00,+2.00,-3.00,+6.00
-15.00,-27.00,+0.00,-2.00,-5.00,-6.00,+2.00,+2.00,-18.00,+1.00,+10.00,+17.00,+14.00,+9.00,+3.00,-15.00
-2.00,+9.00,-1.00,-1.00,+4.00,+5.00,+2.00,+10.00,+3.00,+8.00,+4.00,+1.00,-3.00,-3.00,-3.00,+4.00
-15.00,-14.00,-10.00,-3.00,-7.00,-9.00,-12.00,-18.00,-17.00,+23.00,+7.00,-8.00,-9.00,-5.00,-2.00,-23.00
+20.00,+6.00,+28.00,+13.00,+9.00,+12.00,+19.00,+16.00,+1.00,-48.00,-25.00,-4.00,-3.00,+0.00,+3.00,+20.00
-20.00,-27.00,-18.00,-9.00,-5.00,+5.00,+1.00,+0.00,+23.00,+17.00,+5.00,+3.00,+6.00,-1.00,-1.00,-5.00
+15.00,+35.00,+13.00,+6.00,+5.00,+1.00,-6.00,-15.00,+35.00,+7.00,-2.00,-4.00,+0.00,+1.00,+0.00,+19.00
-25.00,-28.00,-14.00,-5.00,-9.00,-1.00,+1.00,+16.00,-79.00,-22.00,-3.00,+1.00,-1.00,-3.00,-7.00,-22.00
+20.00,-3.00,-9.00,-5.00,+1.00,-4.00,-7.00,-6.00,-1.00,-16.00,-12.00,-10.00,-7.00,-4.00,-4.00,-19.00
+12.00,+21.00,+12.00,+6.00,-1.00,-3.00,-2.00,-17.00,+5.00,+12.00,+5.00,+0.00,+3.00,+1.00,+4.00,+22.00
-41.00,-44.00,-4.00,-6.00,+2.00,-6.00,-7.00,-18.00,-17.00,-8.00,-2.00,-2.00,-3.00,-3.00,-4.00,-25.00
+28.00,+60.00,+16.00,+6.00,-5.00,-2.00,+2.00,+1.00,+33.00,+2.00,+3.00,+25.00,+39.00,+12.00,+12.00,+24.00
-14.00,-11.00,-2.00,-5.00,+0.00,+1.00,-2.00,-1.00,-19.00,+5.00,-10.00,-28.00,-44.00,-14.00,-16.00,-9.00
-11.00,-19.00,-15.00,-1.00,+4.00,+11.00,+3.00,+2.00,+20.00,+9.00,-1.00,-10.00,-8.00,-1.00,-1.00,+20.00
-21.00,-14.00,-4.00,-2.00,+0.00,-3.00,-9.00,-19.00,-22.00,-8.00,+0.00,-3.00,-2.00,+6.00,+9.00,-7.00
+26.00,-11.00,-3.00,+1.00,+1.00,+1.00,+2.00,+33.00,+25.00,+0.00,-11.00,-13.00,-14.00,-5.00,+3.00,+23.00
-7.00,+2.00,+4.00,-1.00,+1.00,-3.00,+7.00,+23.00,-18.00,-4.00,+2.00,+4.00,+14.00,-1.00,-7.00,-11.00
+31.00,+29.00,+14.00,+8.00,+12.00,+4.00,+4.00,-1.00,-3.00,+5.00,+13.00,+11.00,+6.00,-2.00,-3.00,-18.00
-13.00,-5.00,-10.00,-6.00,-6.00,-1.00,-2.00,+13.00,-14.00,-10.00,-10.00,-2.00,-6.00,-7.00,-14.00,-16.00
-9.00,-29.00,-11.00,-7.00,-4.00,-1.00,+5.00,-9.00,-4.00,-11.00,-8.00,-5.00,-12.00,-7.00,-5.00,-8.00
-24.00,+11.00,-6.00,-1.00,+1.00,-3.00,-8.00,-52.00,-7.00,-3.00,-1.00,-4.00,+2.00,+0.00,+2.00,+2.00
-7.00,-8.00,+0.00,-4.00,-3.00,-8.00,-2.00,+11.00,+62.00,+26.00,+6.00,+1.00,+1.00,+5.00,+16.00,+29.00
-5.00,-31.00,-2.00,+2.00,+0.00,-1.00,-3.00,-26.00,+6.00,+16.00,+5.00,+4.00,+4.00,-1.00,+1.00,+7.00
+48.00,+54.00,+20.00,+8.00,+2.00,+4.00,+9.00,+5.00,-36.00,-29.00,-12.00,-10.00,-11.00,-8.00,-3.00,+1.00
+7.00,-2.00,-1.00,-1.00,-4.00,-2.00,-8.00,-12.00,-2.00,-21.00,+1.00,+7.00,+5.00,+6.00,+8.00,-3.00
+13.00,+6.00,-3.00,+5.00,+3.00,+2.00,+1.00,-1.00,-50.00,-21.00,-8.00,-3.00,+0.00,-6.00,-14.00,-34.00
+6.00,+11.00,-2.00,-2.00,-1.00,+4.00,+0.00,-5.00,+28.00,+7.00,+0.00,+4.00,-1.00,-1.00,+3.00,+0.00
-32.00,-27.00,-3.00,-4.00,-12.00,-6.00,-6.00,-25.00,-19.00,+3.00,-1.00,-2.00,+3.00,+1.00,+0.00,-3.00
-35.00,-24.00,-5.00,-1.00,-7.00,-6.00,-6.00,-12.00,-6.00,+22.00,+7.00,+4.00,-9.00,-7.00,-6.00,-2.00
-15.00,-21.00,-9.00,-8.00,-9.00,-5.00,-2.00,-6.00,+27.00,-5.00,-14.00,-27.00,-21.00,-10.00,-7.00,+14.00
+26.00,+16.00,+6.00,+3.00,+7.00,-5.00,-8.00,+11.00,-20.00,-12.00,-1.00,-4.00,+2.00,+3.00,+1.00,+3.00
-53.00,-31.00,-9.00,-5.00,-4.00,+1.00,-13.00,-48.00,+7.00,+8.00,+0.00,-3.00,-9.00,-3.00,-5.00,-4.00
+41.00,+26.00,+6.00,+1.00,-1.00,-6.00,+4.00,+31.00,+17.00,+7.00,+4.00,+8.00,+12.00,+3.00,+0.00,+1.00
+6.00,+13.00,-2.00,-3.00,-2.00,+3.00,+6.00,-1.00,-29.00,-15.00,-7.00,+1.00,+4.00,+0.00,-2.00,-21.00
-3.00,-4.00,+1.00,-2.00,-8.00,+2.00,+5.00,+16.00,+26.00,+8.00,+4.00,+5.00,+5.00,-2.00,-3.00,+2.00
-12.00,-1.00,-16.00,-10.00,-4.00,-5.00,-1.00,+9.00,-68.00,-24.00,-4.00,+0.00,-1.00,+2.00,-4.00,-7.00
-11.00,-12.00,+7.00,+3.00,+2.00,+2.00,-3.00,-23.00,+18.00,+3.00,+0.00,-5.00,-1.00,-1.00,+4.00,+3.00
-3.00,-4.00,-3.00,+0.00,-3.00,+3.00,+12.00,+35.00,+19.00,+21.00,+6.00,+7.00,+4.00,+2.00,-5.00,-2.00
-20.00,-8.00,+11.00,+6.00,-3.00,-5.00,-8.00,-12.00,-21.00,-5.00,+0.00,-6.00,-7.00,-5.00,-6.00,-12.00
+22.00,+35.00,+7.00,+2.00,+5.00,-3.00,-6.00,-5.00,+60.00,+37.00,+22.00,+7.00,+0.00,+4.00,+5.00,+12.00
-28.00,-6.00,+7.00,-2.00,+0.00,+1.00,+3.00,+7.00,-6.00,-21.00,-28.00,-13.00,-11.00,-6.00,-3.00,+17.00
+36.00,+20.00,-5.00,-3.00,-4.00,+2.00,+4.00,+9.00,-85.00,-54.00,-21.00,+1.00,+4.00,-4.00,-9.00,-46.00
+9.00,+3.00,+2.00,+0.00,-5.00,-6.00,+2.00,+14.00,-40.00,-21.00,+0.00,+5.00,+2.00,+3.00,+5.00,+2.00
-31.00,-32.00,-11.00,-5.00,-2.00,-5.00,-6.00,-7.00,+22.00,+6.00,+1.00,+0.00,-3.00,+0.00,-7.00,-3.00
+3.00,-10.00,-7.00,-3.00,-9.00,-8.00,-10.00,-3.00,+11.00,+23.00,+12.00,+6.00,+5.00,+1.00,+6.00,-1.00
-23.00,-13.00,-3.00,-2.00,+3.00,+0.00,-10.00,-20.00,+23.00,+15.00,+6.00,-3.00,-4.00,-1.00,+1.00,+14.00
+7.00,+7.00,-1.00,-4.00,-7.00,+8.00,+11.00,+0.00,-4.00,-3.00,-1.00,+7.00,+3.00,-1.00,-7.00,-12.00
+1.00,-21.00,-4.00,-1.00,+4.00,-2.00,-1.00,+2.00,-10.00,-16.00,-8.00,-10.00,-11.00,-5.00,+5.00,+9.00
+13.00,+16.00,-2.00,-3.00,-2.00,-1.00,+2.00,-9.00,+15.00,+13.00,+9.00,-6.00,-6.00,-3.00,-11.00,-9.00
-1.00,-1.00,-3.00,+0.00,+3.00,-3.00,-7.00,-4.00,+21.00,+2.00,-4.00,-8.00,-5.00,-3.00,+6.00,+22.00
-14.00,-18.00,-5.00,-3.00,+1.00,-4.00,-4.00,-13.00,-17.00,-3.00,-2.00,-5.00,-3.00,-4.00,-8.00,-10.00
+24.00,+0.00,+8.00,+5.00,+1.00,+2.00,+1.00,+16.00,+6.00,-2.00,+0.00,-1.00,+5.00,+5.00,+3.00,+5.00
+19.00,+14.00,-2.00,+1.00,+4.00,+6.00,+2.00,-2.00,+0.00,-4.00,+0.00,+4.00,+6.00,+2.00,+4.00,+12.00
-16.00,-22.00,-7.00,-1.00,-11.00,-3.00,-1.00,-12.00,+8.00,+11.00,+8.00,+9.00,+3.00,+4.00,+3.00,+0.00
-7.00,+4.00,-7.00,-3.00,-2.00,-3.00,-6.00,-4.00,+23.00,+7.00,-4.00,-5.00,-6.00,-4.00,-1.00,+2.00
-19.00,-34.00,-12.00,-8.00,-6.00,+0.00,+1.00,-6.00,-5.00,-12.00,-5.00,-1.00,-1.00,+0.00,-3.00,+6.00
-60.00,-10.00,-8.00,-3.00,-4.00,-8.00,-5.00,+15.00,-39.00,-4.00,-4.00,-6.00,-3.00,-1.00,-3.00,-15.00
+91.00,+70.00,+39.00,+12.00,+10.00,+2.00,+11.00,+30.00,+17.00,-2.00,+4.00,+3.00,+2.00,+0.00,-4.00,-2.00
+15.00,+11.00,+17.00,+12.00,+10.00,+9.00,+10.00,+26.00,+23.00,+12.00,-1.00,-7.00,-4.00,+1.00,+9.00,+23.00
-5.00,+2.00,-2.00,+0.00,-1.00,-1.00,+0.00,+14.00,+17.00,+2.00,-3.00,+2.00,+0.00,-2.00,-1.00,-12.00
-9.00,-25.00,-9.00,-3.00,-1.00,+3.00,-2.00,-9.00,-18.00,-19.00,-3.00,+0.00,-1.00,+0.00,-4.00,-3.00
-62.00,-35.00,-22.00,-13.00,-8.00,-13.00,-13.00,-28.00,+15.00,+12.00,+6.00,+4.00,+1.00,-3.00,-1.00,+6.00
+27.00,+23.00,+3.00,+0.00,-1.00,-2.00,-2.00,+24.00,-15.00,-6.00,+0.00,-1.00,-2.00,-1.00,-4.00,-6.00
+10.00,+12.00,+9.00,+5.00,+5.00,+2.00,+4.00,-9.00,+12.00,+5.00,+0.00,+0.00,-2.00,-2.00,+2.00,+7.00
+0.00,-16.00,-10.00,-2.00,+3.00,-7.00,-10.00,-17.00,+0.00,+9.00,+6.00,+2.00,+6.00,+1.00,-3.00,-5.00
-16.00,-4.00,-3.00,-2.00,-2.00,-2.00,-5.00,-13.00,+8.00,+4.00,+0.00,+3.00,-9.00,-5.00,+1.00,+1.00
+4.00,-15.00,-6.00,-5.00,+0.00,+0.00,+3.00,-20.00,-17.00,-11.00,+1.00,+19.00,+28.00,+8.00,+1.00,-14.00
+43.00,+49.00,+12.00,+8.00,+2.00,+3.00,+11.00,+33.00,+4.00,-7.00,-14.00,-39.00,-50.00,-18.00,-13.00,+5.00
-22.00,-11.00,-7.00,-4.00,-6.00,+1.00,-4.00,-15.00,+9.00,+7.00,+0.00,-5.00,-3.00,+0.00,-7.00,-7.00
-12.00,-23.00,-6.00,+1.00,+0.00,+5.00,+13.00,+1.00,-25.00,-2.00,+0.00,+7.00,+8.00,+1.00,+3.00,-12.00
-9.00,-9.00,-12.00,-6.00,-5.00,-10.00,-15.00,-16.00,+47.00,+5.00,+2.00,+2.00,+2.00,+3.00,+10.00,+39.00
+28.00,+38.00,+16.00,+6.00,+3.00,+6.00,+7.00,+7.00,-17.00,+1.00,+7.00,+19.00,+21.00,+10.00,+3.00,-19.00
+4.00,-3.00,+4.00,+0.00,-1.00,+6.00,+3.00,-5.00,+10.00,+15.00,+5.00,+1.00,-8.00,-3.00,-1.00,+4.00
+10.00,+16.00,-7.00,-3.00,-2.00,-1.00,-5.00,+4.00,+0.00,-4.00,-4.00,-11.00,-6.00,-4.00,-7.00,-2.00
-41.00,-18.00,-8.00,-6.00,-5.00,-2.00,-4.00,-26.00,-41.00,-10.00,-2.00,-3.00,-2.00,-7.00,-12.00,-30.00
-7.00,-12.00,-2.00,-4.00,+0.00,-2.00,-3.00,+3.00,+59.00,+5.00,+1.00,+4.00,+9.00,+1.00,+6.00,+23.00
+57.00,+41.00,+15.00,+9.00,+5.00,+6.00,+12.00,+26.00,+16.00,+16.00,+9.00,-1.00,-3.00,-3.00,+1.00,+12.00
-18.00,-20.00,-6.00,-1.00,-3.00,+0.00,-13.00,-37.00,-31.00,-36.00,-15.00,+2.00,+9.00,+1.00,+4.00,+4.00
+19.00,+19.00,+3.00,+2.00,+0.00,-7.00,-6.00,+7.00,-48.00,-12.00,-7.00,-12.00,-15.00,-5.00,-6.00,-28.00
-1.00,+1.00,-3.00,+0.00,+1.00,-1.00,-4.00,-1.00,+74.00,+26.00,+1.00,+6.00,+5.00,+4.00,+1.00,+24.00
+3.00,-13.00,-1.00,-3.00,-10.00,-6.00,+1.00,-17.00,-23.00,-2.00,+1.00,+2.00,+1.00,+0.00,-1.00,-14.00
-45.00,-38.00,-13.00,-6.00,+3.00,-2.00,-8.00,-13.00,+21.00,+8.00,+0.00,-6.00,-7.00,-2.00,-5.00,+9.00
+33.00,+44.00,+9.00,-1.00,-8.00,+2.00,+19.00,+2.00,-26.00,-9.00,-3.00,+0.00,+0.00,-1.00,-3.00,+1.00
-5.00,-2.00,-1.00,+8.00,+21.00,+12.00,+2.00,-1.00,-28.00,-8.00,-8.00,-2.00,-13.00,-4.00,-4.00,-18.00
-19.00,-17.00,-3.00,-1.00,+2.00,-1.00,-1.00,+8.00,+14.00,+0.00,+5.00,+24.00,+17.00,+4.00,+6.00,+13.00
+8.00,-15.00,-4.00,-3.00,-5.00,-4.00,-5.00,-3.00,-13.00,+1.00,-2.00,-11.00,-3.00,+1.00,-2.00,-8.00
-7.00,+4.00,+23.00,+6.00,+5.00,+3.00,-1.00,+15.00,+6.00,+0.00,-8.00,-20.00,-18.00,-11.00,-6.00,+0.00
+12.00,+15.00,-24.00,-9.00,-20.00,-6.00,+3.00,+22.00,-33.00,-4.00,+1.00,+5.00,+13.00,+4.00,+5.00,-10.00
-7.00,+5.00,-7.00,-3.00,+9.00,+8.00,+5.00,-2.00,-19.00,-19.00,-14.00,-21.00,-18.00,-10.00,-4.00,-6.00
-7.00,-25.00,-5.00,-1.00,-4.00,-14.00,-21.00,+2.00,+15.00,-2.00,+3.00,+4.00,+0.00,+2.00,+4.00,+10.00
-23.00,-1.00,-5.00,-3.00,-2.00,-3.00,-6.00,-5.00,-5.00,+7.00,+5.00,+3.00,+3.00,+3.00,+1.00,-12.00
+26.00,+5.00,+9.00,+2.00,-1.00,+3.00,+8.00,+9.00,-37.00,-10.00,-3.00,-1.00,+3.00,-2.00,-10.00,-22.00
-11.00,-26.00,-10.00,-7.00,-6.00,-5.00,-3.00,+5.00,-5.00,-5.00,-5.00,-4.00,-2.00,-2.00,-4.00,-11.00
+7.00,+22.00,+19.00,+9.00,-1.00,-1.00,+5.00,-13.00,+29.00,+16.00,+6.00,+2.00,+2.00,+2.00,+3.00,+25.00
+16.00,-5.00,-5.00,-2.00,+2.00,+0.00,-1.00,-5.00,+6.00,-4.00,+1.00,+2.00,-1.00,-1.00,+3.00,+4.00
-36.00,-19.00,+1.00,+4.00,-2.00,-5.00,-10.00,-21.00,+7.00,-2.00,-4.00,-5.00,-5.00,+1.00,-1.00,+5.00
+6.00,-2.00,-8.00,-5.00,-2.00,+1.00,-3.00,+8.00,-32.00,-15.00,-7.00,-8.00,-6.00,-2.00,+4.00,-13.00
-23.00,-13.00,-7.00,-7.00,+2.00,-3.00,+0.00,-3.00,+7.00,+5.00,+5.00,+4.00,+1.00,-1.00,-1.00,-1.00
+19.00,+16.00,+0.00,-4.00,-9.00,-4.00,-3.00,-2.00,+29.00,+9.00,+2.00,+3.00,-2.00,-2.00,-4.00,+13.00
-8.00,-23.00,-11.00,-2.00,+10.00,+2.00,+3.00,-5.00,-21.00,+0.00,+1.00,+1.00,-1.00,-5.00,-5.00,-10.00
+0.00,+3.00,+4.00,+0.00,-2.00,+1.00,-7.00,-25.00,+24.00,-9.00,-9.00,-4.00,-2.00,-1.00,-3.00,+4.00
-18.00,+6.00,+0.00,-3.00,-3.00,+3.00,+5.00,+14.00,-16.00,+1.00,+3.00,+6.00,+5.00,+3.00,+1.00,-8.00
+4.00,-1.00,-3.00,+1.00,+8.00,+0.00,-11.00,+5.00,-6.00,-5.00,-3.00,-2.00,-3.00,-1.00,-3.00,-3.00
-20.00,-37.00,-3.00,-6.00,-11.00,-6.00,-8.00,-22.00,+17.00,+7.00,+5.00,+7.00,-4.00,-1.00,+0.00,+20.00
+4.00,+40.00,+6.00,+2.00,+0.00,-2.00,+4.00,+12.00,+23.00,+8.00,+2.00,+3.00,+7.00,+5.00,+8.00,+4.00
-8.00,-12.00,-1.00,+0.00,+5.00,+2.00,+1.00,-7.00,-17.00,-6.00,-6.00,-9.00,-9.00,-10.00,-6.00,-9.00
+36.00,+8.00,-2.00,-1.00,+0.00,+5.00,+8.00,+16.00,+49.00,+7.00,+3.00,+7.00,+2.00,+1.00,+4.00,+16.00
+4.00,+0.00,+2.00,-6.00,-3.00,-4.00,+2.00,-8.00,-8.00,-6.00,-3.00,-13.00,-4.00,-2.00,-2.00,+9.00
+2.00,-12.00,-9.00,-4.00,-5.00,-6.00,-5.00,-4.00,-4.00,-7.00,-1.00,+2.00,+4.00,-2.00,-2.00,-1.00
-16.00,-9.00,-4.00,-3.00,-8.00,-1.00,-1.00,-3.00,-10.00,-7.00,-5.00,+9.00,+6.00,+4.00,-5.00,-9.00
-3.00,+8.00,-4.00,+0.00,+1.00,-3.00,-5.00,-29.00,-2.00,+2.00,+2.00,-3.00,-1.00,+1.00,+6.00,+4.00
-27.00,-26.00,-1.00,-1.00,-2.00,-3.00,+0.00,+21.00,+11.00,+3.00,-4.00,-13.00,-12.00,-6.00,-4.00,-2.00
+5.00,+12.00,+7.00,+3.00,+4.00,-8.00,-6.00,+8.00,-9.00,+5.00,+2.00,+2.00,-7.00,-3.00,-9.00,-2.00
+4.00,+10.00,-10.00,-5.00,-7.00,-4.00,-1.00,+5.00,-17.00,+0.00,-4.00,-2.00,+1.00,-4.00,-9.00,-14.00
-25.00,-27.00,-7.00,-1.00,+3.00,+4.00,+0.00,-21.00,-32.00,-23.00,-10.00,+0.00,+0.00,+0.00,-5.00,-21.00
+2.00,+17.00,+1.00,-3.00,-3.00,-6.00,-12.00,-9.00,+8.00,+3.00,+2.00,+6.00,+6.00,+2.00,+0.00,-2.00
-26.00,-18.00,+2.00,-1.00,-5.00,+1.00,-2.00,-22.00,+0.00,+6.00,-1.00,-6.00,-2.00,-1.00,+9.00,+10.00
+75.00,+66.00,+19.00,+11.00,+6.00,+6.00,+5.00,+27.00,+11.00,+2.00,+0.00,+5.00,+4.00,-1.00,+2.00,+5.00
-5.00,-16.00,-1.00,+0.00,-3.00,+6.00,+15.00,+20.00,+38.00,+13.00,+2.00,-2.00,-6.00,+1.00,+1.00,+15.00
-7.00,+4.00,-4.00,-1.00,+5.00,-3.00,-11.00,-14.00,-29.00,-14.00,-4.00,-2.00,-1.00,+1.00,+3.00,-5.00
-21.00,-16.00,-2.00,-2.00,+1.00,-1.00,+6.00,+20.00,-9.00,-6.00,-2.00,-2.00,+2.00,-1.00,-14.00,-13.00
-35.00,-27.00,-6.00,-6.00,-2.00,-4.00,-8.00,-25.00,+16.00,-4.00,-1.00,+0.00,-2.00,+1.00,+4.00,+3.00
+14.00,+30.00,+1.00,+2.00,+5.00,+4.00,+3.00,+6.00,+1.00,+5.00,+6.00,-2.00,-1.00,+4.00,+17.00,+13.00
+8.00,+15.00,+2.00,-2.00,-5.00,-9.00,-10.00,-7.00,+14.00,+5.00,+1.00,+5.00,+9.00,-1.00,-6.00,-12.00
-14.00,-26.00,-3.00,+0.00,-3.00,-1.00,+6.00,-7.00,-12.00,-7.00,-1.00,-3.00,-6.00,+2.00,+2.00,+3.00
+24.00,+15.00,+10.00,+2.00,-3.00,-3.00,+1.00,+16.00,-19.00,-9.00,-4.00,-10.00,-8.00,-2.00,-2.00,+1.00
-12.00,-8.00,-13.00,-6.00,+2.00,+1.00,+0.00,+3.00,-1.00,+6.00,+0.00,-1.00,-4.00,-3.00,+1.00,-5.00
-21.00,-10.00,-6.00,-2.00,-2.00,+5.00,+2.00,-9.00,+15.00,+1.00,-3.00,+0.00,-1.00,-4.00,+4.00,-1.00
+27.00,+12.00,-1.00,+2.00,+2.00,+4.00,-3.00,-4.00,-16.00,+3.00,+6.00,+19.00,+19.00,+1.00,-9.00,-12.00
-24.00,-29.00,-2.00,-3.00,-8.00,-3.00,-4.00,-11.00,-3.00,-10.00,-4.00,-13.00,-6.00,-4.00,+4.00,-1.00
+26.00,+25.00,+5.00,+1.00,-2.00,+4.00,+11.00,+31.00,-21.00,-7.00,-5.00,-4.00,-9.00,-7.00,-9.00,-9.00
+36.00,+19.00,+10.00,+4.00,+0.00,+5.00,+11.00,+45.00,-3.00,-8.00,-2.00,-3.00,-1.00,-3.00,+0.00,+2.00
-1.00,+0.00,-8.00,-5.00,-4.00,+1.00,-1.00,-17.00,+18.00,+8.00,-1.00,+3.00,+4.00,-1.00,+7.00,+11.00
-14.00,-13.00,-6.00,-4.00,-4.00,-2.00,-3.00,-2.00,-21.00,-1.00,+1.00,+2.00,-2.00,-1.00,-9.00,-15.00
-24.00,-26.00,+5.00,+3.00,+7.00,+0.00,+7.00,-6.00,-3.00,-5.00,-4.00,-7.00,-3.00,-3.00,-2.00,+3.00
+3.00,+17.00,-1.00,-2.00,+1.00,-1.00,-4.00,-17.00,+15.00,-1.00,-2.00,+2.00,+3.00,+6.00,+1.00,+1.00
+32.00,+30.00,+5.00,+1.00,-2.00,+4.00,+6.00,+17.00,+14.00,+1.00,+2.00,-6.00,-7.00,+1.00,+6.00,+3.00
-1.00,-9.00,+7.00,+5.00,+7.00,-9.00,-14.00,+15.00,-5.00,+2.00,+3.00,+5.00,+4.00,+4.00,-2.00,+7.00
+15.00,+4.00,-1.00,-1.00,+1.00,-2.00,-9.00,+8.00,+9.00,-2.00,-2.00,-1.00,+2.00,-1.00,-9.00,-3.00
-17.00,-14.00,-15.00,-7.00,-5.00,-1.00,+1.00,-23.00,-1.00,-2.00,-4.00,-3.00,-5.00,-4.00,-11.00,-8.00
-9.00,-18.00,+3.00,-1.00,-1.00,-1.00,+3.00,+6.00,+3.00,+2.00,+0.00,-8.00,-5.00,-5.00,+5.00,+1.00
+4.00,+22.00,+1.00,+1.00,+2.00,+1.00,+4.00,+3.00,-12.00,-9.00,-7.00,-3.00,-3.00,-4.00,-3.00,-9.00
-8.00,-15.00,-4.00,-1.00,-1.00,-1.00,-5.00,-5.00,+1.00,-3.00,-3.00,-3.00,-1.00,-4.00,-15.00,-4.00
-19.00,-8.00,+3.00,+1.00,-8.00,-2.00,-3.00,-10.00,-12.00,-5.00,-1.00,+1.00,+2.00,-1.00,+8.00,-3.00
+13.00,+7.00,-4.00,+0.00,+3.00,-3.00,-5.00,-3.00,+10.00,+10.00,+0.00,-4.00,-6.00,-1.00,+0.00,+2.00
+7.00,+4.00,+0.00,+4.00,+5.00,+5.00,+10.00,+5.00,-2.00,+8.00,+6.00,+5.00,-3.00,-2.00,-2.00,-1.00
-9.00,-5.00,+3.00,-2.00,-6.00,-2.00,-6.00,-14.00,-4.00,-24.00,-17.00,-3.00,+0.00,-3.00,+2.00,-2.00
-3.00,+1.00,+0.00,+0.00,+2.00,+3.00,+2.00,+17.00,-27.00,-9.00,+0.00,-3.00,-6.00,-4.00,-8.00,-16.00
+5.00,+2.00,+1.00,-3.00,-6.00,-2.00,-6.00,-2.00,-20.00,-5.00,+0.00,-3.00,-4.00,-5.00,-6.00,-3.00
+0.00,-10.00,-8.00,-5.00,-3.00,+2.00,+7.00,+23.00,+16.00,+2.00,-2.00,-2.00,-2.00,+0.00,-5.00,-1.00
+3.00,-2.00,+5.00,+3.00,+3.00,+1.00,-8.00,-22.00,-15.00,+0.00,+2.00,+2.00,+1.00,+0.00,-3.00,+0.00
-39.00,-15.00,-2.00,-3.00,-9.00,-10.00,-10.00,-29.00,+1.00,+1.00,+1.00,+4.00,+4.00,+6.00,+15.00,+14.00
+19.00,+21.00,+6.00,+5.00,+7.00,+1.00,-1.00,-7.00,-2.00,-4.00,-2.00,+0.00,-1.00,+3.00,-7.00,-16.00
-3.00,-10.00,-4.00,-1.00,+3.00,-4.00,-2.00,-9.00,+24.00,+4.00,+2.00,+2.00,+0.00,+0.00,+3.00,+13.00
+14.00,+20.00,+9.00,+6.00,+2.00,+0.00,+2.00,+11.00,-1.00,+9.00,+6.00,+2.00,+6.00,+1.00,+1.00,+0.00
-1.00,-20.00,-7.00,-5.00,-4.00,-3.00,-2.00,+2.00,-2.00,-3.00,-5.00,-7.00,-9.00,-6.00,-5.00,-5.00
-25.00,-17.00,-10.00,-4.00,-3.00,-3.00,-5.00,-9.00,-6.00,+1.00,-2.00,-5.00,-4.00,-1.00,-6.00,-5.00
+23.00,+18.00,-1.00,-4.00,-3.00,+0.00,+1.00,-13.00,-2.00,+0.00,+0.00,+3.00,+4.00,-1.00,-1.00,-3.00
-22.00,-12.00,+0.00,-2.00,+0.00,-3.00,+1.00,+6.00,-1.00,+0.00,+1.00,-2.00,-2.00,-1.00,+5.00,+1.00
+24.00,+6.00,-6.00,-1.00,+0.00,+3.00,+6.00,+3.00,+4.00,+14.00,+1.00,-1.00,+1.00,+2.00,-4.00,-5.00
-7.00,-8.00,+0.00,+3.00,+0.00,-1.00,+2.00,-1.00,-12.00,-32.00,-15.00,-1.00,+0.00,-2.00,-2.00,-4.00
-7.00,-10.00,-6.00,-3.00,-5.00,-2.00,-3.00,-4.00,+22.00,+22.00,-3.00,-5.00,-4.00,-1.00,+5.00,+9.00
-11.00,-6.00,-2.00,-5.00,-5.00,-5.00,-2.00,-3.00,-8.00,+1.00,+2.00,-2.00,-2.00,+0.00,+1.00,-9.00
+42.00,+21.00,+6.00,+3.00,+6.00,+6.00,+7.00,+6.00,-5.00,-37.00,-11.00,-3.00,-1.00,+0.00,-5.00,+0.00
-11.00,-4.00,-6.00,-2.00,+0.00,+3.00,-2.00,+0.00,-9.00,+7.00,+6.00,+0.00,-3.00,-2.00,-6.00,-4.00
-24.00,-9.00,+6.00,-1.00,-3.00,+1.00,-1.00,-3.00,-10.00,-16.00,-8.00,-1.00,+0.00,-2.00,+1.00,-6.00
+26.00,+38.00,+8.00,+4.00,+0.00,-3.00,-3.00,+7.00,+2.00,+17.00,+6.00,-1.00,-3.00,-2.00,+1.00,+4.00
-17.00,-18.00,-1.00,+3.00,+1.00,+0.00,+3.00,-2.00,+1.00,+12.00,+4.00,+4.00,+2.00,+0.00,-1.00,+2.00
+25.00,+11.00,-1.00,+1.00,+4.00,+0.00,+3.00,+6.00,+3.00,+9.00,+0.00,-3.00,+1.00,-1.00,+5.00,-1.00
+6.00,-6.00,-1.00,+2.00,+0.00,+2.00,+7.00,+1.00,-6.00,-8.00,-2.00,-2.00,-1.00,-1.00,-3.00,-3.00
+1.00,+5.00,-5.00,-6.00,-4.00,-4.00,-7.00,-8.00,-1.00,+13.00,+7.00,+4.00,+1.00,+3.00,+6.00,+6.00
-13.00,-9.00,-9.00,-4.00,-2.00,-5.00,-4.00,+1.00,+11.00,+0.00,-4.00,+1.00,-2.00,-4.00,-12.00,-13.00
-7.00,-6.00,+1.00,-3.00,-5.00,-3.00,-6.00,+0.00,-3.00,-14.00,-3.00,-2.00,-1.00,-1.00,-8.00,+7.00
+1.00,+5.00,-10.00,-3.00,+0.00,-1.00,-4.00,-18.00,+3.00,+22.00,+15.00,+3.00,-1.00,+3.00,+8.00,+2.00
+0.00,-5.00,+6.00,+2.00,+0.00,+0.00,+0.00,-9.00,-11.00,-42.00,-27.00,-4.00,-2.00,-1.00,-4.00,-3.00
+10.00,+0.00,+5.00,+5.00,+7.00,+3.00,-4.00,-15.00,-10.00,+7.00,+5.00,+0.00,-4.00,+1.00,+6.00,+2.00
+4.00,+22.00,+2.00,-3.00,-3.00,-4.00,+3.00,+5.00,+3.00,+8.00,+1.00,-4.00,-1.00,-4.00,+2.00,-1.00
-6.00,-18.00,-13.00,-4.00,+0.00,+1.00,+5.00,+6.00,-2.00,+3.00,+1.00,-3.00,+1.00,-2.00,-7.00,-7.00
-22.00,-22.00,-14.00,-5.00,-5.00,-4.00,-3.00,-18.00,+9.00,+0.00,-1.00,-2.00,-1.00,+1.00,+4.00,+4.00
+18.00,+23.00,+18.00,+4.00,-2.00,+1.00,+3.00,+4.00,-11.00,-21.00,-4.00,-2.00,+2.00,-3.00,+2.00,+0.00
-1.00,-7.00,-5.00,-2.00,-1.00,-1.00,-2.00,-8.00,+0.00,+25.00,+12.00,+3.00,-1.00,+0.00,+1.00,+0.00
+7.00,+16.00,+6.00,+0.00,-1.00,+0.00,-1.00,+2.00,-12.00,-32.00,-16.00,-5.00,-4.00,-4.00,-1.00,-7.00
-7.00,-8.00,-1.00,+2.00,+7.00,+2.00,+1.00,+10.00,+13.00,+10.00,+3.00,+1.00,+2.00,-1.00,+6.00,+11.00
-16.00,-6.00,-5.00,-2.00,-2.00,-1.00,-2.00,+5.00,-6.00,+3.00,-1.00,-1.00,+2.00,+0.00,-2.00,-1.00
-7.00,-10.00,-8.00,-2.00,-2.00,+0.00,-3.00,-1.00,+3.00,+2.00,-1.00,+2.00,+1.00,+0.00,-3.00,+2.00
-4.00,+4.00,-1.00,-4.00,-2.00,-1.00,-6.00,-13.00,-1.00,+11.00,+7.00,+0.00,-2.00,+2.00,-3.00,+1.00
-9.00,-10.00,-5.00,-3.00,+0.00,+0.00,-7.00,-14.00,+4.00,+16.00,+9.00,+1.00,-1.00,-1.00,-5.00,-11.00
-6.00,-12.00,-3.00,+0.00,+0.00,+2.00,+3.00,+2.00,+0.00,-19.00,-12.00,-4.00,-3.00,-2.00,+3.00,+6.00
