+5.00,+12.00,+0.00,+0.00,-1.00,-1.00,+2.00,+5.00,+2.00,+1.00,-2.00,-2.00,-3.00,+3.00,-2.00,-2.00
-1.00,+0.00,-1.00,-2.00,+0.00,+1.00,+4.00,+1.00,-5.00,+0.00,+0.00,-1.00,-1.00,+2.00,+0.00,-3.00
-4.00,-8.00,-1.00,+0.00,+1.00,-2.00,+1.00,-2.00,-2.00,-3.00,-2.00,+0.00,-2.00,-2.00,-1.00,+2.00
-4.00,+1.00,-1.00,-1.00,+1.00,+0.00,+2.00,-4.00,+2.00,-1.00,+2.00,-1.00,-1.00,-2.00,-1.00,-5.00
-2.00,-7.00,-3.00,-2.00,+0.00,-3.00,-1.00,-1.00,-3.00,-2.00,-2.00,+1.00,+0.00,-4.00,-3.00,-1.00
-3.00,+0.00,-2.00,-1.00,+1.00,-2.00,-3.00,-2.00,+0.00,-1.00,+0.00,+0.00,-1.00,-2.00,+0.00,+0.00
+0.00,+3.00,-1.00,-1.00,+0.00,+1.00,-1.00,+1.00,-2.00,-1.00,+1.00,-2.00,-3.00,+1.00,-2.00,-1.00
-1.00,+3.00,+0.00,-1.00,-1.00,+0.00,-1.00,-2.00,+2.00,+0.00,-5.00,-2.00,+0.00,+1.00,+0.00,-3.00
-4.00,-8.00,-4.00,-1.00,-2.00,-1.00,-1.00,-4.00,-2.00,+0.00,-2.00,-2.00,-2.00,-2.00,-1.00,-2.00
+1.00,-3.00,+0.00,+2.00,+0.00,-2.00,-5.00,+0.00,-2.00,-1.00,-2.00,+2.00,+2.00,-3.00,+2.00,+6.00
-6.00,-3.00,-2.00,+0.00,+0.00,-4.00,-4.00,-2.00,+1.00,-1.00,-1.00,+0.00,+0.00,-1.00,+2.00,+5.00
-3.00,+0.00,-1.00,-2.00,-3.00,+2.00,+1.00,-1.00,-14.00,-4.00,-4.00,+1.00,-1.00,-3.00,-8.00,-18.00
-9.00,-9.00,-1.00,-1.00,-3.00,+1.00,-2.00,-7.00,+10.00,+4.00,+3.00,+0.00,-1.00,+3.00,+1.00,+8.00
-3.00,-5.00,+0.00,+2.00,-3.00,-2.00,-2.00,-4.00,-4.00,-2.00,+0.00,-2.00,-2.00,+1.00,-1.00,-11.00
+1.00,+6.00,-1.00,+0.00,-3.00,-1.00,-1.00,-5.00,-2.00,+0.00,+0.00,+0.00,-1.00,-1.00,+0.00,-1.00
-19.00,-8.00,-4.00,-1.00,-2.00,-4.00,-4.00,-11.00,+1.00,+0.00,+1.00,-2.00,-4.00,-3.00,+0.00,+7.00
+32.00,+9.00,+3.00,+1.00,+1.00,-1.00,+3.00,+16.00,-4.00,-3.00,-1.00,-4.00,+0.00,-3.00,-3.00,-1.00
-10.00,-7.00,-3.00,-1.00,-2.00,-4.00,+0.00,-4.00,-2.00,+2.00,-1.00,+0.00,-1.00,-4.00,+1.00,-1.00
+3.00,+3.00,+3.00,-1.00,+1.00,+1.00,+0.00,+1.00,-5.00,-9.00,-6.00,-3.00,-1.00,+0.00,-4.00,-2.00
-2.00,+3.00,+1.00,-3.00,+1.00,-2.00,+1.00,+2.00,-4.00,-4.00,-2.00,-2.00,-2.00,-1.00,-2.00,-2.00
-9.00,-6.00,-3.00,-2.00,+2.00,-1.00,-3.00,-6.00,-2.00,+0.00,-2.00,-4.00,-3.00,-4.00,-2.00,-2.00
-11.00,-10.00,-1.00,-1.00,-2.00,-1.00,+3.00,-7.00,+5.00,+2.00,+2.00,-1.00,-2.00,+0.00,-1.00,+4.00
-5.00,-14.00,-1.00,-1.00,+1.00,-1.00,-8.00,-2.00,+0.00,+0.00,-2.00,-2.00,+1.00,-3.00,-3.00,+0.00
+19.00,+31.00,+5.00,+4.00,+1.00,+5.00,+6.00,+4.00,+4.00,+1.00,+1.00,+1.00,+2.00,+3.00,+5.00,+0.00
-3.00,+3.00,+0.00,+0.00,-2.00,-3.00,-10.00,-1.00,-4.00,-3.00,+1.00,+0.00,+1.00,+4.00,-5.00,-2.00
+6.00,+4.00,+1.00,-2.00,-2.00,-1.00,-1.00,+2.00,+0.00,-2.00,-2.00,-7.00,-6.00,-2.00,-2.00,-2.00
-8.00,-9.00,-2.00,+1.00,-1.00,+1.00,+2.00,+8.00,-9.00,-2.00,+0.00,-1.00,-3.00,-5.00,-3.00,-5.00
+0.00,-8.00,-3.00,-1.00,-5.00,-1.00,-2.00,-2.00,+7.00,+2.00,-2.00,-2.00,+1.00,+3.00,+6.00,+6.00
-6.00,-4.00,-2.00,-3.00,-3.00,-2.00,+1.00,-4.00,-6.00,+2.00,+2.00,+2.00,+2.00,-2.00,+0.00,-2.00
-2.00,-1.00,-3.00,-1.00,-2.00,+0.00,-1.00,-1.00,-5.00,-3.00,-4.00,+2.00,+0.00,-1.00,-2.00,-2.00
+5.00,-1.00,-1.00,-2.00,-2.00,-3.00,-2.00,+0.00,+3.00,+2.00,-2.00,-2.00,-4.00,-2.00,-2.00,-9.00
-9.00,-12.00,-3.00,-2.00,-3.00,-1.00,+2.00,-9.00,-21.00,-9.00,-2.00,-1.00,-3.00,-4.00,-2.00,-2.00
-1.00,-1.00,+2.00,+0.00,-1.00,+2.00,-1.00,+3.00,-6.00,-5.00,-3.00,-3.00,-1.00,-2.00,-1.00,+2.00
+9.00,+5.00,+1.00,+0.00,+3.00,-2.00,-7.00,+6.00,+17.00,+3.00,+2.00,+1.00,-1.00,-2.00,+0.00,+5.00
+4.00,+5.00,+2.00,+0.00,+2.00,+0.00,+1.00,+2.00,+0.00,+0.00,+1.00,+1.00,-1.00,+1.00,+2.00,+2.00
+4.00,+3.00,-2.00,-1.00,+1.00,-4.00,-5.00,-1.00,+10.00,+2.00,-3.00,-1.00,-3.00,-3.00,-1.00,+2.00
-7.00,-3.00,+1.00,-1.00,+1.00,-1.00,+1.00,-2.00,-8.00,-5.00,-4.00,+2.00,-1.00,-1.00,+0.00,-4.00
-10.00,-2.00,-3.00,-2.00,+0.00,-1.00,+1.00,-4.00,-8.00,-3.00,-2.00,+1.00,+2.00,+1.00,-3.00,-7.00
-1.00,-3.00,-1.00,-1.00,-1.00,-2.00,+1.00,-3.00,+3.00,+1.00,-1.00,-1.00,+3.00,-2.00,-2.00,+0.00
-5.00,-4.00,+1.00,+1.00,+1.00,+2.00,-2.00,+0.00,+1.00,+0.00,+1.00,-1.00,+1.00,+0.00,-1.00,+0.00
-3.00,-3.00,-2.00,+0.00,+0.00,+2.00,-1.00,-2.00,+1.00,-1.00,+1.00,-2.00,-2.00,-2.00,-2.00,+0.00
+10.00,+10.00,+2.00,-1.00,+0.00,+3.00,-1.00,+4.00,-1.00,-3.00,-1.00,-1.00,-1.00,-1.00,+0.00,+1.00
-5.00,+0.00,+1.00,-1.00,-2.00,+2.00,-3.00,-8.00,-4.00,-2.00,-1.00,-2.00,-2.00,+2.00,+1.00,-1.00
-3.00,-5.00,+0.00,-2.00,-1.00,+0.00,-3.00,+0.00,-3.00,+0.00,-1.00,-1.00,-2.00,-3.00,-5.00,-4.00
-5.00,-4.00,-2.00,-1.00,-1.00,-2.00,-2.00,-2.00,+4.00,-2.00,-3.00,-1.00,-2.00,-2.00,+0.00,+0.00
+0.00,+4.00,-1.00,+0.00,+0.00,-1.00,-1.00,+0.00,-5.00,-3.00,-3.00,-3.00,-2.00,-4.00,-4.00,-9.00
-5.00,+4.00,+0.00,+0.00,+0.00,-7.00,-2.00,-4.00,-9.00,-4.00,+1.00,+0.00,-1.00,-1.00,-1.00,-2.00
+1.00,+3.00,+2.00,+0.00,+1.00,-1.00,+2.00,-2.00,-2.00,+0.00,+0.00,-1.00,-4.00,+0.00,+1.00,-4.00
-3.00,-2.00,-2.00,+0.00,-2.00,+1.00,-1.00,-4.00,+7.00,+3.00,-1.00,-2.00,-2.00,+1.00,+1.00,+2.00
-19.00,-18.00,-5.00,-2.00,-2.00,-3.00,-2.00,-9.00,+6.00,+2.00,-2.00,-3.00,-2.00,-3.00,-3.00,+0.00
+38.00,+16.00,+3.00,+0.00,-1.00,+4.00,+8.00,+17.00,-17.00,-8.00,-3.00,-2.00,+0.00,-2.00,-1.00,-2.00
+3.00,+1.00,-1.00,+0.00,-4.00,-6.00,+0.00,-2.00,-10.00,+1.00,+0.00,-2.00,+2.00,-1.00,-4.00,-8.00
+14.00,+4.00,-1.00,+0.00,-1.00,+0.00,+4.00,+6.00,+25.00,-1.00,+0.00,-1.00,+1.00,+0.00,+1.00,+5.00
-11.00,-5.00,-2.00,-2.00,-2.00,-2.00,-4.00,-3.00,-4.00,-2.00,+0.00,+2.00,+1.00,+1.00,+2.00,+3.00
-21.00,-20.00,-5.00,-2.00,-2.00,-2.00,-2.00,-7.00,+12.00,+5.00,-1.00,+1.00,-1.00,-2.00,-4.00,-4.00
-2.00,+6.00,+2.00,-1.00,+0.00,-3.00,-3.00,-2.00,-9.00,-6.00,-3.00,+0.00,+0.00,-2.00,-3.00,-1.00
+9.00,+8.00,+0.00,-2.00,+1.00,+2.00,-1.00,+0.00,-12.00,+0.00,-3.00,-2.00,-3.00,-3.00,-3.00,-5.00
+20.00,+17.00,+9.00,+3.00,+3.00,+5.00,+8.00,+8.00,-1.00,+0.00,-1.00,-1.00,-1.00,-1.00,+0.00,+1.00
-9.00,-11.00,-3.00,-2.00,-2.00,+1.00,+2.00,-2.00,+15.00,+2.00,+0.00,+1.00,+1.00,+1.00,+1.00,+7.00
-4.00,-16.00,-4.00,+0.00,+2.00,-7.00,-5.00,+1.00,-9.00,-4.00,-4.00,-1.00,+0.00,-3.00,-2.00,-10.00
-7.00,+2.00,+2.00,-1.00,+0.00,-4.00,+0.00,-5.00,-4.00,+0.00,+3.00,+2.00,+1.00,+0.00,+1.00,-2.00
+6.00,+2.00,-1.00,-1.00,+1.00,-2.00,-3.00,-1.00,+5.00,+1.00,-2.00,-1.00,-1.00,-1.00,+1.00,+4.00
-1.00,+5.00,+0.00,-1.00,+1.00,+1.00,-3.00,+1.00,-15.00,-5.00,-3.00,-3.00,-3.00,+0.00,+1.00,-4.00
-17.00,-14.00,-5.00,-2.00,+0.00,+2.00,-2.00,-6.00,+17.00,+4.00,+4.00,+2.00,-1.00,+3.00,+3.00,+11.00
+13.00,-1.00,-2.00,-3.00,-1.00,+0.00,+0.00,+2.00,-6.00,-5.00,-3.00,-3.00,+0.00,+0.00,-3.00,-3.00
+1.00,+2.00,-3.00,-1.00,-1.00,-5.00,-2.00,+0.00,-10.00,+0.00,-1.00,-3.00,+0.00,-3.00,-3.00,-1.00
-11.00,-5.00,-1.00,-1.00,-3.00,-2.00,-4.00,-7.00,-1.00,+4.00,+2.00,+2.00,-1.00,+1.00,+2.00,+8.00
+5.00,+3.00,-1.00,-2.00,-2.00,+1.00,-3.00,+2.00,-1.00,-3.00,-2.00,+3.00,+3.00,+1.00,-2.00,-10.00
-14.00,-5.00,-1.00,+1.00,+0.00,+0.00,-5.00,-5.00,+20.00,+9.00,+4.00,+2.00,-1.00,+2.00,+4.00,+12.00
+3.00,-5.00,-4.00,-2.00,-3.00,+2.00,+2.00,+2.00,-7.00,-7.00,-2.00,-7.00,-5.00,-4.00,-1.00,-4.00
-4.00,+7.00,-2.00,-1.00,+0.00,-3.00,-7.00,-2.00,+3.00,-2.00,-2.00,-3.00,-1.00,-2.00,+0.00,-1.00
-3.00,+3.00,-5.00,-4.00,-5.00,-4.00,-1.00,-5.00,+5.00,+3.00,+0.00,-1.00,-2.00,-8.00,-5.00,+0.00
+15.00,-2.00,+5.00,+3.00,-1.00,+2.00,+7.00,+8.00,-32.00,-11.00,-6.00,-1.00,-2.00,+10.00,+6.00,-18.00
-10.00,-10.00,-1.00,-1.00,-1.00,-3.00,-6.00,+2.00,+13.00,-2.00,+0.00,+2.00,-2.00,-2.00,+0.00,+6.00
-4.00,-3.00,-1.00,+1.00,+0.00,+1.00,+2.00,+1.00,-2.00,+1.00,+2.00,-2.00,+0.00,-2.00,+2.00,-3.00
-2.00,-3.00,-3.00,-3.00,-3.00,-3.00,-1.00,-1.00,-9.00,-4.00,-2.00,-2.00,-2.00,+1.00,+0.00,-4.00
-17.00,-13.00,-7.00,-3.00,-2.00,-4.00,-4.00,-8.00,+0.00,+0.00,-1.00,-2.00,-1.00,-7.00,-5.00,-3.00
+19.00,+12.00,+1.00,-2.00,-4.00,+2.00,+4.00,+0.00,-11.00,-3.00,-1.00,+1.00,-1.00,-3.00,-1.00,-2.00
-1.00,+4.00,-2.00,-2.00,-1.00,-7.00,-16.00,-4.00,+6.00,+2.00,+2.00,+1.00,+0.00,-1.00,-3.00,-1.00
+13.00,+5.00,+4.00,+1.00,+3.00,+5.00,+2.00,+7.00,+2.00,-3.00,-3.00,-3.00,-3.00,-2.00,-5.00,+0.00
+3.00,+2.00,-3.00,-1.00,-2.00,-2.00,+0.00,-2.00,-11.00,-3.00,-4.00,-4.00,+0.00,+1.00,-3.00,-5.00
-5.00,+1.00,-1.00,-1.00,-1.00,-4.00,-3.00,-2.00,-3.00,+3.00,-1.00,+1.00,+0.00,-2.00,-2.00,+0.00
-1.00,-2.00,+0.00,+0.00,+1.00,+5.00,+10.00,-1.00,-1.00,-3.00,-1.00,-2.00,-4.00,+5.00,-3.00,+0.00
-9.00,-13.00,-2.00,-1.00,-1.00,-4.00,-5.00,-4.00,+11.00,+5.00,+0.00,-2.00,+0.00,+1.00,+1.00,+3.00
+0.00,+9.00,+2.00,+0.00,-2.00,+0.00,-2.00,-2.00,+16.00,+3.00,-1.00,+0.00,+0.00,-3.00,-3.00,+2.00
+0.00,-8.00,+1.00,+2.00,+2.00,+5.00,+7.00,+5.00,-25.00,-17.00,-7.00,-4.00,-2.00,-1.00,-3.00,-9.00
+16.00,+12.00,+1.00,+1.00,+0.00,+2.00,+6.00,+8.00,-26.00,-8.00,+1.00,+5.00,+4.00,-4.00,-1.00,-5.00
+2.00,-4.00,+2.00,+1.00,+1.00,+4.00,+8.00,+0.00,+20.00,+7.00,-4.00,-7.00,-5.00,-2.00,-3.00,-2.00
-15.00,-15.00,-5.00,-2.00,-2.00,-6.00,-12.00,-13.00,+8.00,-4.00,+1.00,+0.00,-2.00,-4.00,+0.00,+6.00
-22.00,-23.00,-7.00,-4.00,-2.00,+2.00,+0.00,-12.00,+9.00,+11.00,+3.00,+1.00,-2.00,-2.00,-3.00,-1.00
+11.00,+33.00,+6.00,-1.00,-2.00,-2.00,+2.00,+0.00,+7.00,+0.00,+0.00,+0.00,+1.00,-2.00,+2.00,+6.00
+8.00,+5.00,+0.00,+3.00,+6.00,-4.00,-2.00,+10.00,-18.00,-10.00,-6.00,-2.00,+0.00,-1.00,+0.00,-10.00
+10.00,+13.00,+1.00,+0.00,+4.00,+6.00,+8.00,+3.00,+14.00,+6.00,-1.00,+0.00,-1.00,-2.00,-1.00,+6.00
-11.00,-8.00,-2.00,-3.00,+0.00,-8.00,-15.00,-4.00,-2.00,-5.00,-2.00,-1.00,+2.00,+4.00,+4.00,+1.00
+1.00,-15.00,-6.00,-2.00,-2.00,-3.00,-1.00,-2.00,-10.00,-4.00,-4.00,-3.00,-2.00,+0.00,-3.00,-3.00
-9.00,-7.00,-5.00,-2.00,-4.00,-3.00,-5.00,-4.00,-1.00,+1.00,-1.00,+2.00,+3.00,+1.00,+3.00,+1.00
+1.00,+7.00,+2.00,+0.00,-2.00,+3.00,+9.00,+9.00,-4.00,-5.00,-5.00,-6.00,-5.00,-4.00,-5.00,-3.00
-10.00,-6.00,-3.00,-2.00,+0.00,-3.00,-7.00,-5.00,-13.00,-7.00,-2.00,-2.00,-3.00,-2.00,-3.00,-9.00
+2.00,+0.00,+1.00,+1.00,-1.00,+4.00,-1.00,+2.00,-4.00,-2.00,+2.00,-1.00,-1.00,-1.00,+2.00,-2.00
-1.00,-4.00,+2.00,-1.00,-2.00,+3.00,+5.00,-1.00,+24.00,+13.00,+1.00,+0.00,-4.00,-5.00,+0.00,+4.00
-8.00,-8.00,-5.00,-1.00,+1.00,+1.00,-2.00,-3.00,-33.00,-24.00,-4.00,+0.00,+0.00,-1.00,-1.00,-9.00
-7.00,+3.00,-2.00,-2.00,-5.00,-1.00,-9.00,-8.00,+26.00,+21.00,+4.00,-1.00,-3.00,-2.00,-1.00,+6.00
+9.00,+5.00,-1.00,-1.00,-2.00,-6.00,-1.00,+1.00,-17.00,-15.00,-7.00,-3.00,+0.00,-5.00,-7.00,-8.00
+15.00,+4.00,+0.00,+2.00,-1.00,+1.00,-4.00,+5.00,-9.00,+7.00,+4.00,+0.00,-4.00,-2.00,-2.00,+11.00
-20.00,-11.00,-3.00,-4.00,-6.00,-6.00,-5.00,-17.00,-12.00,-14.00,-2.00,-1.00,+1.00,+2.00,-4.00,-15.00
+20.00,+9.00,+5.00,+1.00,+0.00,+11.00,+10.00,+11.00,-15.00,-10.00,-7.00,-5.00,-1.00,-6.00,-7.00,-6.00
-30.00,-29.00,-7.00,-2.00,-3.00,-12.00,-12.00,-18.00,+30.00,+11.00,+2.00,-1.00,-1.00,-2.00,+1.00,+1.00
+2.00,+0.00,-1.00,-2.00,-1.00,-14.00,-21.00,+0.00,+11.00,+1.00,+2.00,-1.00,-1.00,-1.00,+4.00,+10.00
+20.00,+6.00,+3.00,+2.00,+4.00,+14.00,+11.00,+15.00,-31.00,-6.00,-2.00,+0.00,-2.00,-6.00,-8.00,-15.00
+4.00,+1.00,+6.00,+4.00,+0.00,+1.00,+8.00,+12.00,-2.00,+1.00,+2.00,+1.00,+4.00,+8.00,-1.00,-1.00
+14.00,+17.00,+3.00,+1.00,+3.00,+11.00,+18.00,+3.00,+16.00,+5.00,-2.00,-1.00,+0.00,+5.00,-16.00,-1.00
-14.00,-3.00,+0.00,+2.00,+3.00,+11.00,+12.00,-1.00,-25.00,-14.00,-4.00,-1.00,-1.00,-5.00,-2.00,-6.00
-4.00,-13.00,-6.00,-2.00,-2.00,-2.00,-9.00,+0.00,+11.00,+15.00,+3.00,+0.00,-1.00,-3.00,+1.00,+3.00
+14.00,+10.00,+1.00,+1.00,+3.00,-2.00,+3.00,+6.00,-4.00,-4.00,+0.00,+2.00,+1.00,+6.00,+3.00,+0.00
-15.00,-21.00,-3.00,-3.00,-3.00,+4.00,+7.00,-1.00,-12.00,-4.00,-3.00,-2.00,-3.00,-6.00,-1.00,-8.00
-23.00,-10.00,-4.00,-5.00,-2.00,-11.00,-7.00,-12.00,+17.00,+9.00,+1.00,-2.00,-1.00,+3.00,-1.00,+3.00
+0.00,+2.00,-1.00,-2.00,-1.00,-2.00,+1.00,-8.00,+2.00,-4.00,-10.00,-5.00,-3.00,-3.00,-6.00,-3.00
+15.00,+15.00,+5.00,+4.00,+1.00,-1.00,+4.00,+1.00,-14.00,-1.00,-2.00,-1.00,-1.00,-10.00,-4.00,-3.00
+3.00,+1.00,+0.00,-2.00,-3.00,+1.00,-1.00,+3.00,+17.00,+25.00,+12.00,+3.00,+2.00,+1.00,+6.00,+15.00
+7.00,+0.00,-3.00,-3.00,-3.00,+2.00,+4.00,+3.00,-4.00,+3.00,+4.00,+2.00,-1.00,+4.00,+0.00,-8.00
-27.00,-19.00,-6.00,-2.00,-5.00,-13.00,-13.00,-6.00,+1.00,-11.00,+1.00,+1.00,-1.00,+3.00,+6.00,+6.00
-45.00,-13.00,-7.00,-7.00,-6.00,-11.00,-12.00,-30.00,-28.00,-6.00,-6.00,-8.00,-10.00,-7.00,-9.00,-19.00
+60.00,+22.00,+7.00,+5.00,+4.00,-4.00,-5.00,+23.00,+23.00,-9.00,-6.00,-1.00,+4.00,-11.00,-13.00,+19.00
+29.00,+22.00,+2.00,+3.00,+2.00,+8.00,+2.00,+10.00,-4.00,+5.00,+4.00,+3.00,+2.00,+31.00,+37.00,-5.00
-4.00,-11.00,-6.00,-4.00,-4.00,-6.00,-2.00,+7.00,-13.00,+13.00,+2.00,-3.00,-2.00,-2.00,-4.00,+0.00
-31.00,-2.00,+0.00,+0.00,-3.00,-13.00,-15.00,-5.00,+33.00,-5.00,-3.00,+0.00,+4.00,+9.00,+13.00,+14.00
-5.00,-20.00,-5.00,-4.00,-3.00,+4.00,+5.00,-6.00,-35.00,-18.00,-5.00,-1.00,-9.00,-11.00,-5.00,-18.00
-5.00,-1.00,+1.00,-1.00,-4.00,-8.00,-5.00,-7.00,+15.00,+2.00,-1.00,+1.00,+1.00,-13.00,+8.00,+18.00
+20.00,+8.00,+1.00,+2.00,+0.00,-5.00,-7.00,+6.00,-6.00,-4.00,+6.00,+2.00,+4.00,-1.00,-11.00,+4.00
+6.00,-2.00,-5.00,-2.00,+3.00,+20.00,+12.00,+2.00,+2.00,+6.00,+3.00,+3.00,+5.00,+10.00,+10.00,-3.00
-38.00,-21.00,-5.00,-4.00,-3.00,-9.00,-12.00,-18.00,+18.00,+2.00,-3.00,-4.00,-4.00,-6.00,+0.00,+4.00
-1.00,-1.00,+1.00,+0.00,+2.00,-3.00,-15.00,+4.00,-3.00,-13.00,-8.00,-4.00,+1.00,-9.00,-13.00,-3.00
+7.00,+11.00,+1.00,-1.00,+0.00,+1.00,-1.00,-2.00,-7.00,+0.00,-3.00,-7.00,-3.00,+8.00,+18.00,-2.00
+26.00,+23.00,+3.00,+0.00,+1.00,-1.00,-3.00,+1.00,+14.00,-11.00,-1.00,+3.00,+3.00,+9.00,+1.00,+4.00
-21.00,-14.00,-3.00,-1.00,-1.00,+0.00,+2.00,-1.00,-19.00,+33.00,+6.00,-2.00,+0.00,+7.00,+5.00,-21.00
-9.00,-6.00,-3.00,-3.00,+0.00,+5.00,+6.00,+1.00,-13.00,-9.00,+0.00,-1.00,-2.00,-2.00,-6.00,-7.00
-18.00,+0.00,+1.00,-1.00,+0.00,+1.00,-3.00,-17.00,+15.00,-22.00,+0.00,+2.00,+0.00,-8.00,+10.00,+20.00
-8.00,-17.00,-7.00,-4.00,-2.00,-6.00,-1.00,-4.00,+20.00,+20.00,+0.00,-2.00,-3.00,-3.00,-15.00,-6.00
-7.00,-7.00,+0.00,+1.00,+0.00,-1.00,-6.00,-5.00,-8.00,-21.00,-10.00,-4.00,-4.00,+3.00,+2.00,+12.00
+11.00,+10.00,-2.00,-2.00,+0.00,+2.00,+19.00,-1.00,-4.00,+19.00,+6.00,+4.00,+3.00,+3.00,-8.00,-23.00
+30.00,+19.00,+10.00,+5.00,+5.00,+10.00,+11.00,+23.00,-19.00,-4.00,+1.00,-1.00,-5.00,-9.00,-3.00,-9.00
+4.00,+5.00,+1.00,+2.00,-1.00,-9.00,-3.00,+10.00,-6.00,-5.00,-5.00,-5.00,-5.00,-8.00,+7.00,-11.00
-15.00,-20.00,-7.00,-4.00,-4.00,-3.00,-6.00,-6.00,+14.00,-4.00,-1.00,-1.00,-1.00,+6.00,+4.00,+18.00
-18.00,+8.00,-1.00,-3.00,-4.00,+4.00,+1.00,-24.00,-10.00,-6.00,-6.00,-3.00,-4.00,-14.00,-23.00,-4.00
-3.00,-5.00,-2.00,-1.00,-1.00,-10.00,-5.00,+3.00,+28.00,+8.00,-3.00,-1.00,+1.00,+6.00,+5.00,-2.00
+31.00,+18.00,+8.00,+5.00,+5.00,+4.00,+1.00,+16.00,-10.00,-9.00,-1.00,+3.00,-1.00,-5.00,+1.00,+13.00
-12.00,-6.00,-2.00,-2.00,-1.00,-4.00,-2.00,-4.00,-23.00,-20.00,-5.00,-2.00,+1.00,+2.00,-3.00,-18.00
-7.00,-4.00,-5.00,-4.00,-2.00,-4.00,-12.00,-11.00,+6.00,+0.00,-3.00,-4.00,-7.00,-6.00,+1.00,+15.00
-20.00,-10.00,-4.00,-2.00,-1.00,-5.00,+21.00,-11.00,-17.00,+10.00,-1.00,-1.00,+0.00,-4.00,-16.00,-18.00
+21.00,+9.00,-1.00,-1.00,-3.00,-1.00,+14.00,+9.00,+8.00,-1.00,-2.00,-3.00,+1.00,+4.00,+0.00,+7.00
-7.00,+3.00,-5.00,-2.00,-2.00,+9.00,+14.00,-2.00,+8.00,+1.00,-3.00,-1.00,-3.00,-10.00,+0.00,-9.00
-8.00,-26.00,-3.00,-2.00,-4.00,-5.00,-4.00,-3.00,-29.00,-23.00,-4.00,+1.00,+2.00,+7.00,+2.00,-2.00
-9.00,-1.00,-1.00,-3.00,+0.00,+6.00,-1.00,-6.00,+32.00,+18.00,+2.00,+0.00,+0.00,-3.00,-7.00,+10.00
+19.00,+10.00,+6.00,+3.00,+7.00,+7.00,-8.00,+4.00,-32.00,-6.00,+0.00,-1.00,-3.00,-7.00,+2.00,-8.00
+3.00,-1.00,+1.00,+0.00,-3.00,-3.00,+6.00,-4.00,-2.00,+0.00,+3.00,+0.00,+3.00,+3.00,-1.00,+11.00
-9.00,-14.00,-3.00,+0.00,-3.00,+13.00,+4.00,+2.00,-2.00,+6.00,+6.00,+0.00,-1.00,-5.00,-3.00,-16.00
+17.00,+17.00,+8.00,+6.00,+4.00,+4.00,-3.00,-1.00,-7.00,-11.00,-5.00,+1.00,+0.00,+8.00,+5.00,-5.00
-37.00,-30.00,-7.00,-9.00,-7.00,-11.00,-15.00,-6.00,-5.00,-8.00,+0.00,+0.00,+1.00,+6.00,+6.00,+11.00
+54.00,+60.00,+12.00,+3.00,+6.00,-8.00,-13.00,+18.00,+36.00,+23.00,+0.00,+0.00,-4.00,-8.00,-5.00,-3.00
-8.00,-16.00,-3.00,-2.00,+1.00,-3.00,-9.00,-7.00,+16.00,+6.00,+0.00,-1.00,-1.00,-6.00,-1.00,+24.00
-21.00,-5.00,-8.00,-3.00,+0.00,+6.00,+18.00,-5.00,-23.00,-7.00,-2.00,+0.00,+2.00,+4.00,+2.00,-15.00
-3.00,-1.00,+0.00,+0.00,-3.00,+6.00,+9.00,+5.00,-6.00,-9.00,+0.00,-1.00,-4.00,+1.00,+3.00,-7.00
+8.00,-2.00,-4.00,-2.00,+2.00,-9.00,-13.00,+5.00,-6.00,+1.00,-4.00,-4.00,+0.00,-4.00,+2.00,-5.00
+0.00,-8.00,-3.00,-1.00,-1.00,+3.00,+8.00,+8.00,-4.00,-7.00,-3.00,-4.00,-5.00,-11.00,-6.00,-7.00
-46.00,-12.00,-3.00,-6.00,-8.00,-10.00,-18.00,-33.00,-11.00,+0.00,-2.00,-1.00,+1.00,+7.00,-5.00,+2.00
+38.00,+3.00,+1.00,+4.00,+3.00,+1.00,+6.00,+16.00,+11.00,+11.00,+1.00,-1.00,-2.00,-10.00,-6.00,-2.00
-15.00,-8.00,-3.00,-2.00,-4.00,+9.00,+9.00,-9.00,-4.00,+1.00,+1.00,-1.00,-2.00,+11.00,+3.00,-6.00
-2.00,-4.00,+2.00,+3.00,+3.00,+1.00,+17.00,+6.00,+4.00,-7.00,-2.00,+0.00,+5.00,+5.00,+3.00,+8.00
-5.00,+2.00,-5.00,-3.00,-3.00,-1.00,-8.00,-7.00,+30.00,+16.00,-4.00,-3.00,-1.00,+14.00,+4.00,+15.00
-17.00,-7.00,-1.00,+0.00,+1.00,-5.00,+1.00,-13.00,-16.00,-13.00,+1.00,+0.00,-5.00,-11.00,-7.00,-15.00
+14.00,-1.00,+3.00,+2.00,+1.00,+2.00,-12.00,+7.00,-9.00,-4.00,+2.00,+1.00,+1.00,-3.00,+0.00,+16.00
+18.00,+23.00,+3.00,+2.00,+0.00,-13.00,-21.00,+1.00,-44.00,-29.00,-11.00,+0.00,-1.00,+3.00,-7.00,-50.00
+10.00,-10.00,+0.00,+1.00,-2.00,-13.00,-28.00,+6.00,-7.00,-1.00,+0.00,+0.00,+0.00,-3.00,+3.00,+9.00
-39.00,-24.00,-11.00,-10.00,-8.00,-8.00,-1.00,-25.00,+65.00,+22.00,+3.00,+1.00,+5.00,-7.00,-18.00,+25.00
+18.00,+3.00,+9.00,+6.00,+5.00,+23.00,+28.00,+15.00,-17.00,-12.00,-2.00,-2.00,+0.00,+16.00,+21.00,+18.00
-29.00,-9.00,-10.00,-8.00,-8.00,-4.00,-8.00,-17.00,-22.00,-2.00,+0.00,-2.00,-4.00,-13.00,-7.00,-41.00
+46.00,+10.00,+12.00,+6.00,+3.00,+10.00,+5.00,+36.00,+12.00,+3.00,+1.00,-1.00,-1.00,+3.00,-25.00,+6.00
+32.00,+26.00,+2.00,-1.00,-7.00,-18.00,-11.00,-1.00,+26.00,+16.00,+2.00,+1.00,+0.00,+6.00,+17.00,+10.00
-97.00,-51.00,-13.00,-7.00,-7.00,+0.00,-13.00,-32.00,-23.00,-13.00,-10.00,-4.00,-4.00,-4.00,-10.00,-9.00
+58.00,+25.00,+4.00,+2.00,+5.00,+7.00,+23.00,+24.00,-9.00,+3.00,-1.00,-3.00,+0.00,+3.00,+0.00,-3.00
+1.00,-2.00,-3.00,+2.00,+3.00,+12.00,+13.00,+5.00,+6.00,-9.00,-2.00,+0.00,-5.00,-13.00,+8.00,+13.00
-22.00,-6.00,-3.00,-2.00,-3.00,-3.00,-9.00,-9.00,-11.00,+16.00,+9.00,+6.00,+2.00,-5.00,-10.00,-1.00
-33.00,-21.00,-5.00,-3.00,-3.00,-11.00,-5.00,-20.00,+28.00,+10.00,-2.00,-6.00,+2.00,+19.00,+17.00,+7.00
+72.00,+52.00,+17.00,+6.00,+5.00,+12.00,+20.00,+26.00,+2.00,+5.00,+0.00,+3.00,+3.00,+4.00,+0.00,+0.00
-2.00,-27.00,-4.00,-4.00,-3.00,-6.00,+2.00,-2.00,-3.00,-2.00,+2.00,-2.00,-1.00,-9.00,-2.00,-33.00
-6.00,-2.00,-4.00,-2.00,-1.00,+4.00,-16.00,+1.00,-2.00,-14.00,-5.00,-4.00,-1.00,+3.00,-1.00,+35.00
+6.00,+7.00,-11.00,-3.00,-2.00,-22.00,-14.00,-1.00,-10.00,-7.00,-2.00,+1.00,-4.00,-12.00,-7.00,-7.00
-41.00,-28.00,-12.00,-9.00,-7.00,-12.00,-12.00,-34.00,-6.00,-2.00,-5.00,-2.00,-2.00,-9.00,-25.00,-12.00
+18.00,+24.00,+5.00,+4.00,+5.00,+2.00,+13.00,+20.00,-3.00,+0.00,-1.00,+0.00,-3.00,+12.00,+34.00,-5.00
-15.00,-2.00,+0.00,-1.00,-3.00,+0.00,-8.00,-5.00,-20.00,-12.00,-3.00,-3.00,+0.00,-1.00,+1.00,-7.00
+19.00,+18.00,+7.00,+2.00,+0.00,+4.00,-5.00,+9.00,+6.00,-1.00,-1.00,-3.00,+1.00,-5.00,-6.00,-25.00
+2.00,-10.00,+1.00,-1.00,-2.00,-4.00,-9.00,-7.00,+44.00,+13.00,+6.00,-2.00,-2.00,-1.00,+2.00,+47.00
+1.00,-5.00,-5.00,-3.00,-4.00,-3.00,-5.00,+0.00,+30.00,+25.00,+0.00,-2.00,-1.00,-9.00,+3.00,+17.00
+24.00,-5.00,-2.00,+0.00,+0.00,+8.00,+17.00,+13.00,-59.00,-37.00,-12.00,-4.00,-2.00,-5.00,-17.00,-26.00
+2.00,+20.00,+2.00,+0.00,+1.00,+0.00,+0.00,-1.00,+27.00,+18.00,+3.00,-2.00,-2.00,-3.00,+5.00,-17.00
+15.00,+1.00,+1.00,+3.00,+2.00,-14.00,-2.00,+23.00,+3.00,-10.00,-5.00,-1.00,-1.00,-6.00,+12.00,+42.00
-24.00,-3.00,-2.00,-5.00,+1.00,+10.00,-1.00,-20.00,+21.00,+4.00,+4.00,+3.00,+2.00,+12.00,-1.00,+31.00
-12.00,-31.00,-7.00,-5.00,+2.00,+1.00,+7.00,-2.00,+8.00,+10.00,+1.00,+0.00,+0.00,-4.00,-5.00,-16.00
+42.00,+45.00,+5.00,+0.00,+2.00,+10.00,+10.00,+11.00,-27.00,-27.00,-10.00,-2.00,-4.00,-11.00,+0.00,+40.00
-3.00,-15.00,+0.00,+0.00,-1.00,-2.00,+2.00,+2.00,+10.00,+32.00,+7.00,+3.00,-3.00,-15.00,-12.00,-90.00
-22.00,+0.00,-1.00,-2.00,-5.00,-17.00,-29.00,-10.00,-30.00,-14.00,+0.00,-3.00,+2.00,+7.00,-2.00,-5.00
-26.00,-18.00,-9.00,-4.00,-4.00,-3.00,+2.00,-16.00,-8.00,-4.00,-7.00,-5.00,-6.00,-1.00,+0.00,-10.00
-27.00,-30.00,-4.00,-3.00,-4.00,+1.00,+6.00,-12.00,-23.00,-8.00,+1.00,+2.00,-3.00,-8.00,-23.00,-24.00
-21.00,+3.00,-2.00,-1.00,+3.00,+7.00,+2.00,-17.00,+9.00,-4.00,-10.00,-4.00,-3.00,-7.00,-11.00,+19.00
+8.00,-8.00,-3.00,+0.00,+1.00,-1.00,+4.00,+7.00,-23.00,-12.00,+4.00,+6.00,+3.00,+2.00,+19.00,+15.00
-3.00,+27.00,+6.00,+3.00,+0.00,+6.00,+17.00,-6.00,+44.00,+27.00,+9.00,+5.00,+7.00,+15.00,+12.00,+0.00
+9.00,+2.00,-1.00,+0.00,-3.00,-6.00,-13.00,-2.00,-25.00,-4.00,+5.00,+0.00,-1.00,+2.00,+10.00,+21.00
-4.00,-7.00,-1.00,+0.00,-3.00,-17.00,-23.00,-10.00,+41.00,+13.00,+1.00,-3.00,+3.00,+10.00,+4.00,+19.00
-53.00,-9.00,-8.00,-8.00,-8.00,-4.00,-4.00,-30.00,-1.00,-1.00,-4.00,-4.00,-5.00,-14.00,-18.00,-4.00
+50.00,+11.00,+8.00,+1.00,+0.00,+3.00,-3.00,+24.00,-14.00,-25.00,-10.00,-5.00,-3.00,-3.00,+1.00,+3.00
-6.00,-16.00,-3.00,-2.00,+1.00,+3.00,+11.00,+6.00,-9.00,+11.00,+5.00,+2.00,-1.00,-5.00,-4.00,-23.00
-31.00,-9.00,-11.00,-7.00,-9.00,-4.00,-22.00,-19.00,-28.00,-14.00,-1.00,+0.00,+3.00,+7.00,+7.00,+8.00
-2.00,-12.00,-4.00,-3.00,-9.00,-12.00,-5.00,+6.00,-26.00,-28.00,-11.00,+0.00,+3.00,+2.00,-10.00,-38.00
+22.00,+39.00,+9.00,+3.00,+1.00,-8.00,-15.00,+0.00,+18.00,+8.00,-7.00,-7.00,-6.00,-10.00,-1.00,+26.00
-34.00,-18.00,+0.00,-1.00,+1.00,+7.00,-5.00,-19.00,-24.00,-16.00,-1.00,+1.00,+6.00,+3.00,+5.00,+0.00
+3.00,-10.00,+3.00,+1.00,+4.00,+1.00,+2.00,+23.00,+0.00,-1.00,+1.00,+1.00,-1.00,+10.00,-1.00,-2.00
+13.00,-1.00,-12.00,-6.00,-5.00,-6.00,+7.00,+10.00,+37.00,+18.00,+0.00,-8.00,-11.00,-29.00,-8.00,+17.00
+5.00,+26.00,+0.00,+4.00,+7.00,+7.00,+13.00,-10.00,-50.00,+4.00,-1.00,+0.00,-3.00,-6.00,-3.00,-45.00
-8.00,-15.00,-1.00,-2.00,-2.00,-11.00,-31.00,+16.00,+37.00,+7.00,-3.00,-3.00,-2.00,-15.00,-25.00,+19.00
-4.00,+22.00,+10.00,+5.00,+0.00,+0.00,-4.00,-8.00,+12.00,-11.00,+0.00,+3.00,+2.00,+3.00,+12.00,+9.00
+7.00,+4.00,+11.00,+5.00,+0.00,-2.00,+0.00,-11.00,-36.00,-9.00,-10.00,-9.00,-8.00,+0.00,-11.00,-11.00
-56.00,-36.00,-11.00,-7.00,-4.00,-14.00,-20.00,-15.00,-9.00,+1.00,+2.00,+0.00,+6.00,+9.00,+2.00,-64.00
+1.00,-10.00,-18.00,-4.00,+5.00,+32.00,+19.00,-6.00,+12.00,+7.00,-3.00,-5.00,-6.00,-16.00,-8.00,+9.00
+25.00,+4.00,+2.00,-3.00,-5.00,-5.00,-17.00,+7.00,+20.00,-2.00,+1.00,+1.00,+2.00,+7.00,+10.00,+24.00
+55.00,+46.00,+15.00,+10.00,+8.00,+28.00,+64.00,+32.00,+3.00,+3.00,+3.00,+4.00,+4.00,+3.00,+7.00,+23.00
-23.00,-16.00,+0.00,+1.00,-7.00,-21.00,-33.00,-13.00,+0.00,-5.00,+0.00,-4.00,-3.00,-2.00,+1.00,-3.00
+64.00,+39.00,+7.00,+2.00,+0.00,-16.00,-1.00,+22.00,-15.00,+7.00,-4.00,-1.00,-4.00,+8.00,+12.00,-8.00
-17.00,-15.00,-7.00,-5.00,-2.00,+5.00,+1.00,-9.00,+8.00,-18.00,+1.00,+3.00,+4.00,+1.00,-5.00,+8.00
-9.00,-11.00,-3.00,-1.00,+2.00,-1.00,-13.00,-5.00,+1.00,-9.00,-3.00,-4.00,-6.00,-2.00,-3.00,-22.00
-7.00,-22.00,-3.00,-2.00,+0.00,+14.00,+16.00,+8.00,+7.00,-3.00,+7.00,+5.00,+2.00,+1.00,+4.00,+27.00
-60.00,-18.00,-6.00,-6.00,-10.00,-22.00,-33.00,-40.00,+10.00,+2.00,-1.00,-2.00,-2.00,-2.00,-8.00,-11.00
+55.00,+5.00,-1.00,-1.00,+3.00,+0.00,+11.00,+15.00,-78.00,-22.00,-7.00,-4.00,-6.00,-10.00,-15.00,-34.00
+27.00,+32.00,+14.00,+5.00,+3.00,-1.00,-4.00,+21.00,+13.00,+17.00,+2.00,+2.00,+8.00,+7.00,-2.00,-26.00
+11.00,+4.00,-2.00,+0.00,-1.00,-6.00,+1.00,-3.00,+31.00,+9.00,+2.00,+0.00,-2.00,+1.00,+10.00,+29.00
+6.00,+1.00,-1.00,+2.00,+1.00,-4.00,-15.00,+2.00,+24.00,+25.00,+7.00,+0.00,-4.00,-9.00,-12.00,+13.00
-89.00,-33.00,-9.00,-8.00,-5.00,-1.00,+3.00,-46.00,+11.00,-1.00,-1.00,-7.00,-10.00,+7.00,+14.00,+8.00
-7.00,-30.00,-9.00,-6.00,-4.00,-21.00,-13.00,+3.00,-36.00,-20.00,-8.00,-1.00,+3.00,-1.00,-15.00,-15.00
+62.00,+40.00,+6.00,+4.00,+4.00,+17.00,+4.00,+35.00,+14.00,-4.00,-6.00,-4.00,+4.00,+7.00,+1.00,+32.00
+11.00,+7.00,+5.00,+2.00,-2.00,-7.00,-1.00,+5.00,+40.00,-4.00,-5.00,+2.00,-4.00,-9.00,+7.00,+16.00
-24.00,-7.00,-1.00,+2.00,+3.00,+12.00,+25.00,+7.00,-63.00,-20.00,-9.00,-5.00,-7.00,-11.00,-18.00,-34.00
+1.00,+15.00,+3.00,-4.00,+0.00,-2.00,-3.00,-14.00,-5.00,-4.00,+9.00,+1.00,-1.00,-9.00,-1.00,-28.00
+5.00,-8.00,-4.00,+0.00,-1.00,-6.00,-3.00,-6.00,+13.00,+18.00,-3.00,-8.00,-4.00,-1.00,-14.00,-8.00
-3.00,-20.00,-8.00,-7.00,-9.00,-22.00,-9.00,+12.00,-27.00,-2.00,+3.00,+1.00,+6.00,+30.00,+18.00,+2.00
-42.00,+5.00,-3.00,-5.00,-4.00,-9.00,-20.00,-50.00,+16.00,+14.00,+2.00,-5.00,-7.00,-12.00,-3.00,-33.00
+64.00,+17.00,+9.00,+9.00,+10.00,+15.00,+17.00,+70.00,+7.00,-11.00,-4.00,+0.00,-1.00,-3.00,-7.00,-4.00
+45.00,+35.00,+8.00,+6.00,+4.00,+12.00,+9.00,+32.00,+20.00,+3.00,-5.00,-1.00,-1.00,-5.00,-6.00,+67.00
-17.00,-8.00,+0.00,+1.00,+1.00,+17.00,+64.00,-14.00,-7.00,-3.00,+3.00,+1.00,+1.00,-2.00,-6.00,-22.00
+19.00,+11.00,-1.00,+2.00,-2.00,-18.00,-31.00,+4.00,+14.00,+19.00,+3.00,+1.00,+2.00,+2.00,+6.00,+29.00
-55.00,-38.00,-14.00,-8.00,-5.00,+0.00,-5.00,-33.00,+12.00,+7.00,-2.00,-4.00,-2.00,+6.00,+11.00,+5.00
-44.00,-41.00,-10.00,-5.00,-1.00,-3.00,-9.00,-27.00,-57.00,-24.00,-8.00,-2.00,-5.00,-5.00,-4.00,-26.00
+21.00,+29.00,+14.00,+5.00,+1.00,-2.00,-4.00,+6.00,+53.00,+12.00,-2.00,-1.00,+6.00,+15.00,+1.00,+13.00
+12.00,+0.00,+1.00,-2.00,-2.00,+0.00,+1.00,+14.00,-42.00,-2.00,+10.00,+10.00,+7.00,+8.00,+31.00,-5.00
-53.00,-9.00,-11.00,-7.00,-5.00,-9.00,-9.00,-42.00,+6.00,-19.00,-5.00,-2.00,-5.00,-8.00,-8.00,+31.00
+52.00,+25.00,+12.00,+4.00,+2.00,+2.00,+20.00,+18.00,-21.00,+6.00,+2.00,+3.00,-1.00,-9.00,-9.00,-28.00
-1.00,-9.00,-11.00,-2.00,+2.00,-4.00,-38.00,+21.00,-27.00,-26.00,-7.00,-3.00,-1.00,+3.00,+9.00,-7.00
+4.00,-19.00,+3.00,-1.00,-5.00,-11.00,+5.00,+8.00,+53.00,+28.00,+8.00,+6.00,+6.00,-6.00,-8.00,+23.00
+26.00,+35.00,+8.00,+4.00,+1.00,+9.00,-3.00,+12.00,+71.00,+38.00,-2.00,-5.00,-2.00,+1.00,+14.00,+90.00
-110.00,-43.00,-21.00,-13.00,-10.00,-5.00,-8.00,-56.00,-112.00,-37.00,-6.00,+4.00,+3.00,+2.00,-20.00,-108.00
+59.00,+29.00,+16.00,+9.00,+7.00,+3.00,+20.00,+24.00,+21.00,+21.00,+10.00,-3.00,+0.00,+13.00,+0.00,+14.00
-15.00,-28.00,-11.00,-3.00,+3.00,+8.00,+10.00,+5.00,+8.00,-29.00,-10.00,-7.00,+1.00,+3.00,-2.00,+31.00
-22.00,-13.00,+1.00,+1.00,+4.00,+2.00,-1.00,-12.00,-8.00,+20.00,+10.00,-2.00,-13.00,-33.00,-14.00,-9.00
-118.00,-54.00,-18.00,-14.00,-17.00,-37.00,-46.00,-97.00,+11.00,-9.00,-2.00,-2.00,-4.00,-3.00,+7.00,+20.00
+93.00,+78.00,+30.00,+16.00,+16.00,+26.00,+34.00,+92.00,+6.00,+1.00,+1.00,+6.00,+5.00,-6.00,+1.00,+8.00
-13.00,-2.00,+0.00,+4.00,+6.00,+26.00,+21.00,+37.00,-24.00,-21.00,-12.00,-8.00,-8.00,-2.00,-5.00,-20.00
-32.00,-7.00,-1.00,-1.00,-7.00,-28.00,-64.00,-29.00,-5.00,+1.00,-3.00,+3.00,+2.00,+3.00,-11.00,-7.00
+1.00,-2.00,+1.00,+3.00,+7.00,+24.00,+25.00,+8.00,+2.00,-18.00,-7.00,-6.00,-8.00,-9.00,+9.00,+17.00
-48.00,-36.00,-13.00,-13.00,-12.00,-14.00,-14.00,-38.00,+25.00,+36.00,+14.00,+7.00,+7.00,+12.00,+5.00,-12.00
+2.00,+7.00,-7.00,-2.00,+1.00,+2.00,+1.00,-3.00,-10.00,-9.00,-9.00,-10.00,-10.00,-25.00,-27.00,-8.00
+16.00,-13.00,+1.00,-1.00,-4.00,-2.00,-15.00,-7.00,-21.00,-24.00,-3.00,+2.00,+4.00,+14.00,+6.00,-32.00
+15.00,+12.00,+0.00,-1.00,-3.00,+1.00,+3.00,+24.00,+49.00,+15.00,+9.00,+0.00,-4.00,-6.00,+5.00,+34.00
-72.00,-35.00,-15.00,-10.00,-11.00,-22.00,-28.00,-56.00,-17.00,-1.00,-8.00,-7.00,-6.00,+4.00,+8.00,+19.00
+50.00,+34.00,+21.00,+14.00,+9.00,+7.00,+18.00,+42.00,+14.00,-3.00,-9.00,-6.00,-2.00,-6.00,-11.00,+15.00
+40.00,-5.00,-8.00,-1.00,+3.00,+7.00,+25.00,+15.00,-3.00,+17.00,+2.00,+3.00,+4.00,+3.00,-1.00,-52.00
+22.00,+4.00,-1.00,-3.00,-4.00,-6.00,-6.00,+11.00,-9.00,+3.00,+7.00,+7.00,+11.00,+17.00,+21.00,+22.00
-15.00,-26.00,-14.00,-10.00,-7.00,-2.00,+0.00,-10.00,+7.00,-24.00,-14.00,-9.00,-14.00,-29.00,-14.00,+18.00
-23.00,+6.00,+6.00,+2.00,-3.00,+1.00,+11.00,-27.00,-23.00,+18.00,+4.00,-4.00,-1.00,+7.00,-4.00,-64.00
-89.00,-32.00,-12.00,-9.00,-4.00,+4.00,-10.00,-33.00,-33.00,-2.00,+4.00,-2.00,-1.00,+1.00,+4.00,-3.00
+105.00,+39.00,+30.00,+21.00,+16.00,+21.00,+36.00,+68.00,+30.00,+4.00,+2.00,-1.00,-1.00,-7.00,-6.00,-19.00
+13.00,+41.00,+5.00,+2.00,+0.00,+0.00,-2.00,-11.00,-28.00,-31.00,-8.00,-2.00,+2.00,-4.00,-6.00,+7.00
-47.00,-47.00,-28.00,-16.00,-2.00,+2.00,-1.00,-20.00,+27.00,+10.00,-8.00,-6.00,+0.00,+7.00,-9.00,+11.00
+100.00,+60.00,+10.00,+2.00,+2.00,+0.00,+11.00,+35.00,-51.00,-6.00,-12.00,-5.00,-8.00,-24.00,-34.00,-44.00
-50.00,-34.00,-6.00,-4.00,-1.00,+0.00,-11.00,-17.00,+18.00,+10.00,+5.00,+0.00,+5.00,+12.00,+7.00,-17.00
+37.00,-6.00,+4.00,+2.00,+2.00,+8.00,+11.00,+13.00,-40.00,-9.00,+3.00,+4.00,+0.00,-4.00,-2.00,-13.00
-10.00,+16.00,+4.00,+3.00,+1.00,-2.00,-16.00,-20.00,+3.00,+3.00,+1.00,-3.00,-5.00,+5.00,+20.00,-5.00
-79.00,-61.00,-16.00,-7.00,-10.00,-22.00,-36.00,-40.00,+41.00,+23.00,+7.00,-1.00,+2.00,+5.00,+0.00,+38.00
+53.00,+44.00,+10.00,+4.00,+12.00,+19.00,+34.00,+9.00,-3.00,-28.00,-7.00,-3.00,-1.00,-1.00,-8.00,+25.00
+50.00,+45.00,+17.00,+8.00,+1.00,-5.00,+9.00,+17.00,-1.00,+20.00,-8.00,-5.00,-3.00,+3.00,-8.00,-50.00
+33.00,+23.00,+1.00,+4.00,+6.00,+13.00,+12.00,+39.00,+17.00,+12.00,+9.00,+4.00,-3.00,-10.00,-1.00,+37.00
+41.00,+23.00,-5.00,-2.00,+0.00,+2.00,+1.00,+15.00,-19.00,-24.00,-3.00,+3.00,+2.00,+3.00,+13.00,+31.00
-48.00,-30.00,-15.00,-9.00,-10.00,-14.00,-21.00,-28.00,+40.00,+22.00,+0.00,-3.00,-1.00,-5.00,-14.00,+18.00
-62.00,-35.00,-9.00,-5.00,-1.00,-5.00,-11.00,-24.00,-24.00,-17.00,-1.00,-1.00,-2.00,+6.00,+12.00,-25.00
+26.00,-4.00,+5.00,-1.00,-4.00,-13.00,-8.00,+8.00,+32.00,+22.00,+1.00,+2.00,+2.00,+7.00,+1.00,-6.00
-34.00,+0.00,+0.00,-2.00,-2.00,-2.00,-5.00,-25.00,-18.00,-18.00,-8.00,-4.00,-2.00,+2.00,+3.00,-17.00
+35.00,+3.00,-1.00,+0.00,-2.00,+0.00,+8.00,+21.00,-60.00,-19.00,-10.00,-4.00,-5.00,-13.00,-12.00,-29.00
-6.00,+10.00,+1.00,-1.00,+2.00,+13.00,+35.00,+7.00,-38.00,-25.00,-2.00,-1.00,+1.00,+1.00,+3.00,+10.00
-6.00,-19.00,-8.00,-4.00,-7.00,-17.00,-32.00,-4.00,+6.00,-19.00,-2.00,+6.00,+4.00,-2.00,+10.00,+32.00
-8.00,+7.00,-3.00,-5.00,-1.00,+0.00,+7.00,+3.00,+27.00,+23.00,-1.00,-8.00,-4.00,+10.00,-1.00,-11.00
+9.00,+18.00,+5.00,+2.00,+2.00,-2.00,+2.00,+18.00,+35.00,+19.00,+7.00,+3.00,+2.00,-2.00,-7.00,+20.00
+48.00,+15.00,+6.00,+6.00,+2.00,+6.00,+0.00,+31.00,-23.00,-9.00,+1.00,-3.00,-7.00,-9.00,-4.00,-14.00
+36.00,+29.00,+3.00,-2.00,-3.00,+1.00,+26.00,+5.00,-23.00,-63.00,-10.00,+2.00,+5.00,+3.00,+4.00,+17.00
-4.00,-8.00,+4.00,+3.00,-1.00,-6.00,-2.00,+4.00,+23.00,+1.00,-1.00,+0.00,+0.00,-25.00,-39.00,+24.00
-51.00,-41.00,-20.00,-10.00,-6.00,-1.00,-26.00,-47.00,-15.00,+13.00,-2.00,-11.00,-5.00,+17.00,+31.00,+17.00
+26.00,+7.00,+4.00,+4.00,+5.00,+1.00,-16.00,+22.00,+20.00,+0.00,-3.00,+0.00,-2.00,-19.00,-22.00,-48.00
+15.00,+23.00,+4.00,+2.00,+2.00,+8.00,+47.00,+26.00,-48.00,-11.00,+1.00,+2.00,+2.00,-1.00,-3.00,-28.00
+14.00,-1.00,+7.00,-1.00,-6.00,-3.00,+29.00,+9.00,+22.00,-8.00,-10.00,-6.00,-4.00,+7.00,+12.00,+21.00
-29.00,-14.00,-11.00,-2.00,+1.00,+2.00,-18.00,+1.00,-62.00,-3.00,+2.00,+7.00,+3.00,+3.00,-24.00,-60.00
-13.00,-22.00,-7.00,-6.00,-5.00,-7.00,-15.00,-17.00,+20.00,-5.00,+0.00,+0.00,+2.00,+0.00,+3.00,+21.00
+5.00,+8.00,+0.00,-2.00,+1.00,+3.00,-12.00,-4.00,+17.00,+20.00,+3.00,-6.00,-5.00,+5.00,-1.00,-2.00
-14.00,-14.00,+5.00,+5.00,+4.00,+5.00,+0.00,-8.00,-30.00,-28.00,-3.00,+1.00,-1.00,+2.00,+1.00,-20.00
-42.00,+2.00,-6.00,-9.00,-12.00,-18.00,+5.00,-31.00,-3.00,+2.00,+0.00,+0.00,-5.00,-5.00,+3.00,-11.00
+24.00,+29.00,+10.00,+7.00,+6.00,+4.00,+6.00,+17.00,+4.00,-10.00,-5.00,+0.00,+0.00,+8.00,-1.00,-7.00
+9.00,+5.00,+6.00,+4.00,+3.00,+1.00,-7.00,-14.00,-12.00,-2.00,-8.00,-1.00,-7.00,-25.00,+17.00,+32.00
-28.00,-18.00,-12.00,-5.00,-3.00,+4.00,+9.00,+1.00,+5.00,+26.00,+12.00,+5.00,+10.00,+15.00,-9.00,-16.00
+7.00,+1.00,+3.00,+0.00,-2.00,-6.00,-12.00,+7.00,-24.00,-20.00,-8.00,-2.00,-2.00,-2.00,+7.00,-21.00
-36.00,-21.00,-8.00,-6.00,-4.00,-9.00,+2.00,-24.00,+6.00,-17.00,+3.00,+3.00,+6.00,+4.00,-8.00,+34.00
-39.00,-12.00,-4.00,-6.00,-7.00,-3.00,-6.00,-26.00,+37.00,+47.00,+5.00,-1.00,+2.00,+32.00,+34.00,+46.00
+31.00,-1.00,-5.00,+0.00,+7.00,+2.00,-14.00,+18.00,-10.00,+0.00,-2.00,-9.00,-14.00,-22.00,+3.00,-21.00
-27.00,-10.00,+4.00,+2.00,-2.00,-8.00,-18.00,-12.00,+41.00,-13.00,-4.00,-5.00,-7.00,-4.00,-7.00,-1.00
+39.00,+10.00,-3.00,-2.00,-4.00,+2.00,+15.00,+17.00,-5.00,+26.00,+8.00,+2.00,+2.00,+1.00,-11.00,-37.00
+49.00,+32.00,+8.00,+6.00,+8.00,+19.00,+66.00,+37.00,+8.00,+0.00,+4.00,+4.00,+8.00,+6.00,-3.00,+18.00
-12.00,-28.00,-4.00,+1.00,+2.00,+0.00,-3.00,-11.00,-55.00,-54.00,-17.00,-8.00,-9.00,-3.00,+4.00,-19.00
+14.00,+39.00,+4.00,+2.00,+0.00,+8.00,+22.00,+17.00,+22.00,+28.00,-4.00,-4.00,-8.00,-14.00,-19.00,+2.00
-99.00,-66.00,-18.00,-10.00,-3.00,+6.00,+12.00,-29.00,+30.00,+5.00,+1.00,-4.00,-6.00,-10.00,+17.00,+30.00
+48.00,+54.00,+11.00,+5.00,-1.00,-2.00,-14.00,+26.00,-41.00,-3.00,+7.00,+4.00,+2.00,-1.00,-6.00,+18.00
-32.00,-18.00,-5.00,-5.00,-4.00,-2.00,+7.00,-22.00,+33.00,+5.00,+6.00,+4.00,+2.00,+0.00,+15.00,+11.00
+54.00,+13.00,+5.00,+5.00,+1.00,-8.00,+1.00,+37.00,+6.00,-11.00,-9.00,-3.00,-2.00,-16.00,+3.00,+6.00
-60.00,-43.00,-12.00,-7.00,-6.00,+1.00,+7.00,-36.00,+37.00,+22.00,+5.00,+5.00,+12.00,+35.00,-1.00,+22.00
-29.00,-9.00,-10.00,-9.00,-7.00,-29.00,-59.00,-28.00,-88.00,-36.00,-9.00,-2.00,-5.00,-16.00,-25.00,-63.00
+40.00,+26.00,+14.00,+8.00,+8.00,+11.00,+8.00,+25.00,+64.00,+24.00,+13.00,+6.00,+5.00,-5.00,+2.00,+9.00
+13.00,-20.00,-1.00,-1.00,+0.00,-2.00,-9.00,+4.00,+16.00,-2.00,-5.00,-2.00,+2.00,+25.00,+11.00,+25.00
-35.00,-11.00,-13.00,-8.00,-10.00,-4.00,-6.00,-11.00,-21.00,-4.00,-2.00,-4.00,-6.00,-12.00,-7.00,-20.00
-93.00,-89.00,-22.00,-12.00,-11.00,-18.00,-24.00,-44.00,+11.00,+11.00,-2.00,-4.00,-2.00,+3.00,-10.00,-30.00
+120.00,+107.00,+30.00,+14.00,+12.00,+25.00,+69.00,+61.00,-16.00,-17.00,-8.00,-1.00,-1.00,-4.00,-2.00,+12.00
-61.00,-13.00,-6.00,-3.00,-4.00,-6.00,-10.00,-38.00,+42.00,+13.00,+3.00,-3.00,-8.00,-14.00,+3.00,+48.00
+56.00,+1.00,+6.00,+5.00,+5.00,+1.00,+0.00,+35.00,-38.00,-15.00,-5.00,+2.00,+1.00,-12.00,-14.00,-85.00
-30.00,-13.00,-2.00,-1.00,+0.00,-3.00,-12.00,-10.00,+13.00,+10.00,+1.00,-4.00,+1.00,+1.00,+10.00,+18.00
-11.00,-9.00,-14.00,-9.00,-12.00,-19.00,-46.00,-20.00,-31.00,-22.00,-2.00,+1.00,+2.00,+4.00,+0.00,+6.00
-26.00,-24.00,-8.00,-5.00,-1.00,+0.00,+42.00,-3.00,+22.00,+10.00,+5.00,-3.00,-6.00,-2.00,-2.00,+6.00
-32.00,-22.00,-8.00,-5.00,-1.00,+2.00,-17.00,-33.00,-71.00,-57.00,-16.00,-4.00,-2.00,-10.00,-4.00,+7.00
+67.00,+50.00,+17.00,+8.00,+5.00,+5.00,-10.00,+25.00,+27.00,+1.00,-4.00,-4.00,-7.00,-16.00,-15.00,-17.00
-7.00,+5.00,+8.00,+3.00,-3.00,+0.00,-2.00,+4.00,+85.00,+39.00,+7.00,-1.00,+3.00,+14.00,+7.00,+32.00
+37.00,-1.00,-7.00,-4.00,-2.00,+5.00,+3.00,+13.00,-44.00,+9.00,+12.00,+7.00,+6.00,+4.00,-6.00,-28.00
-54.00,-15.00,-15.00,-10.00,-8.00,-12.00,-22.00,-29.00,-14.00,-10.00,-5.00,-3.00,-5.00,-4.00,-3.00,+33.00
+24.00,-3.00,+1.00,-3.00,-3.00,-8.00,-19.00,-17.00,-9.00,-29.00,-4.00,+1.00,+3.00,-3.00,-18.00,-18.00
-34.00,-42.00,-12.00,-7.00,+2.00,+10.00,+7.00,+19.00,+91.00,+53.00,+5.00,-2.00,+1.00,+13.00,+28.00,+51.00
+36.00,+25.00,+15.00,+9.00,+2.00,-8.00,+5.00,+25.00,-97.00,-52.00,-3.00,+5.00,-1.00,-20.00,-20.00,-58.00
-12.00,-1.00,+3.00,+3.00,+4.00,-3.00,-22.00,-11.00,+59.00,+47.00,+9.00,+0.00,+1.00,+5.00,+11.00,+38.00
-5.00,+2.00,-5.00,-2.00,-6.00,-11.00,-21.00,+0.00,-42.00,-22.00,-7.00,-2.00,-2.00,-6.00,-2.00,-2.00
-31.00,-3.00,-6.00,-5.00,-2.00,+9.00,+23.00,-39.00,+28.00,+7.00,+1.00,+1.00,-4.00,-8.00,-18.00,-31.00
-93.00,-58.00,-18.00,-11.00,-10.00,-25.00,-45.00,-53.00,-24.00,-1.00,-2.00,+0.00,+5.00,+25.00,+12.00,-28.00
+110.00,+55.00,+14.00,+7.00,+7.00,+11.00,+14.00,+79.00,+36.00,+13.00,+6.00,+1.00,-1.00,-3.00,+18.00,+36.00
-23.00,+2.00,+1.00,+1.00,+0.00,+7.00,+23.00,+0.00,+8.00,+13.00,+5.00,+2.00,-1.00,-4.00,-5.00,-11.00
-7.00,+3.00,-4.00,-5.00,-9.00,-20.00,-44.00,-5.00,-58.00,-34.00,-14.00,-4.00,-1.00,+8.00,+3.00,-1.00
+4.00,-22.00,-9.00,-3.00,+3.00,+8.00,+0.00,+17.00,+82.00,+52.00,+12.00,+0.00,-4.00,-4.00,+13.00,+55.00
-10.00,+4.00,+2.00,+1.00,+1.00,+1.00,+43.00,-24.00,-15.00,+7.00,-10.00,-8.00,-11.00,-17.00,-15.00,-57.00
-23.00,-4.00,+0.00,-3.00,-2.00,-8.00,-26.00,-16.00,+22.00,+9.00,+4.00,-3.00,+2.00,+15.00,+1.00,+19.00
-7.00,-8.00,-2.00,+2.00,+2.00,+12.00,+32.00,+15.00,-49.00,+2.00,+4.00,+1.00,-3.00,-1.00,-1.00,-13.00
+9.00,+4.00,+0.00,-2.00,-2.00,+1.00,-23.00,-5.00,+31.00,-5.00,-5.00,-2.00,+1.00,-6.00,+2.00,+9.00
-72.00,-38.00,-14.00,-10.00,-10.00,-11.00,-16.00,-33.00,-18.00,+6.00,+2.00,+0.00,+0.00,-4.00,+1.00,-20.00
+107.00,+63.00,+22.00,+13.00,+11.00,+3.00,+5.00,+49.00,+21.00,-17.00,-10.00,-3.00,-5.00,-6.00,-9.00,+36.00
-37.00,-28.00,-4.00,-3.00,-4.00,-12.00,-13.00,-30.00,-19.00,+3.00,+4.00,+1.00,+3.00,-13.00,-22.00,+5.00
+87.00,+57.00,+5.00,+3.00,+4.00,+11.00,+10.00,+40.00,+26.00,+8.00,+0.00,-3.00,-2.00,+2.00,+1.00,+21.00
-24.00,-25.00,-5.00,-5.00,-9.00,-18.00,-19.00,-15.00,-43.00,-27.00,-9.00,-4.00,-1.00,+12.00,+4.00,-9.00
-90.00,-63.00,-20.00,-10.00,-4.00,+9.00,+9.00,-33.00,+13.00,+1.00,-3.00,+0.00,-1.00,+7.00,+4.00,-1.00
+39.00,+46.00,+11.00,+3.00,+2.00,-2.00,-7.00,+7.00,+14.00,+35.00,+7.00,+2.00,-2.00,-13.00,-4.00,+8.00
-12.00,+1.00,+10.00,+4.00,+1.00,+0.00,+6.00,-5.00,-15.00,-24.00,-10.00,-4.00,+3.00,+8.00,-1.00,+13.00
+4.00,-1.00,-5.00,-1.00,+2.00,-6.00,-11.00,-10.00,+25.00,+20.00,+16.00,+5.00,+8.00,+8.00,-7.00,-5.00
-13.00,+8.00,+3.00,+1.00,-1.00,-13.00,-17.00,+3.00,+27.00,-14.00,-6.00,-1.00,-6.00,-9.00,-6.00,+11.00
+0.00,-14.00,-7.00,+0.00,+0.00,+14.00,+13.00,+8.00,-70.00,-30.00,-5.00,-3.00,-3.00,-11.00,-19.00,-50.00
+8.00,+22.00,+3.00,+3.00,-1.00,+1.00,+2.00,+5.00,+6.00,+13.00,+6.00,+3.00,+7.00,+6.00,+12.00,+33.00
+24.00,+3.00,+0.00,-2.00,+4.00,+18.00,+24.00,+6.00,+5.00,-3.00,-7.00,-7.00,-10.00,-16.00,-17.00,-1.00
-22.00,-15.00,-8.00,-6.00,-7.00,-12.00,-7.00,-15.00,+29.00,+21.00,+15.00,+10.00,+11.00,+26.00,+31.00,+20.00
-73.00,-39.00,-12.00,-7.00,-3.00,-15.00,-36.00,-37.00,-62.00,-18.00,+1.00,+1.00,-1.00,-2.00,-2.00,-42.00
+72.00,+48.00,+10.00,+5.00,+6.00,+19.00,+78.00,+52.00,-7.00,-13.00,-7.00,-7.00,-4.00,-10.00,-20.00,-15.00
-9.00,-3.00,+6.00,+6.00,+4.00,+28.00,+2.00,-4.00,+5.00,-4.00,-2.00,+2.00,+1.00,+5.00,-1.00,-1.00
-42.00,+2.00,-2.00,-3.00,-3.00,-1.00,+5.00,-25.00,-11.00,-5.00,-6.00,-2.00,-6.00,-16.00,-22.00,-13.00
+54.00,-11.00,+1.00,+4.00,+0.00,+0.00,+9.00,+29.00,-5.00,-9.00,-5.00,-3.00,-2.00,+9.00,+26.00,+30.00
+5.00,+17.00,+9.00,+6.00,+5.00,+14.00,-7.00,-5.00,-12.00,-8.00,-1.00,+2.00,-3.00,-13.00,-1.00,-19.00
+2.00,+17.00,+1.00,+1.00,+0.00,-14.00,-14.00,-7.00,-47.00,-2.00,-4.00,-1.00,-2.00,+1.00,+5.00,-41.00
-33.00,-45.00,-12.00,-6.00,-2.00,+7.00,+16.00,-7.00,+27.00,+12.00,+8.00,+2.00,+3.00,+8.00,+6.00,+10.00
-4.00,+17.00,-6.00,-6.00,-6.00,-11.00,-5.00,-16.00,+11.00,-2.00,-7.00,-3.00,+0.00,+1.00,+14.00,+23.00
-35.00,-45.00,-6.00,-6.00,-6.00,-15.00,-34.00,-25.00,-8.00,-25.00,-3.00,+1.00,-1.00,-1.00,-2.00,+11.00
-31.00,-6.00,-6.00,-4.00,-2.00,-9.00,-1.00,-15.00,+58.00,+19.00,-2.00,-4.00,-5.00,-10.00,+10.00,+57.00
+71.00,+29.00,+9.00,+7.00,+8.00,+11.00,+12.00,+47.00,-70.00,-28.00,-12.00,-4.00,-5.00,-5.00,-6.00,-15.00
+28.00,+28.00,+8.00,+5.00,+2.00,+4.00,+8.00,+29.00,+45.00,+46.00,+19.00,+7.00,+6.00,+12.00,+7.00,-12.00
-7.00,-13.00,-6.00,-4.00,-1.00,+0.00,+0.00,+2.00,-34.00,-25.00,-7.00,-3.00,+2.00,+15.00,+6.00,-2.00
+10.00,+10.00,+6.00,+3.00,-2.00,-1.00,-1.00,+1.00,+11.00,+13.00,+1.00,-2.00,-2.00,-15.00,+1.00,+58.00
-70.00,-49.00,-14.00,-8.00,-10.00,-8.00,-8.00,-45.00,-4.00,-3.00,+12.00,+11.00,+6.00,-1.00,+0.00,-109.00
+79.00,+54.00,+13.00,+5.00,+1.00,+1.00,+7.00,+37.00,+44.00,+15.00,-3.00,-8.00,-7.00,-2.00,+9.00,+55.00
-58.00,-25.00,-8.00,-4.00,-4.00,-10.00,-22.00,-24.00,+14.00,+25.00,+3.00,-2.00,-6.00,-16.00,-5.00,+28.00
+30.00,+5.00,-9.00,-6.00,-5.00,-17.00,-25.00,+18.00,+10.00,-8.00,+4.00,+1.00,+2.00,+19.00,+13.00,-29.00
-79.00,-28.00,-11.00,-8.00,-5.00,-13.00,-14.00,-49.00,+10.00,+25.00,+2.00,-5.00,-2.00,-5.00,+2.00,+15.00
-15.00,-23.00,+6.00,+7.00,+9.00,+28.00,+38.00,+28.00,-18.00,-21.00,-9.00,-5.00,-7.00,-5.00,-16.00,-66.00
-48.00,+3.00,-5.00,-6.00,-5.00,-3.00,-5.00,-24.00,+6.00,-2.00,-3.00,+2.00,-1.00,-23.00,-18.00,-19.00
+31.00,+9.00,+4.00,+2.00,+0.00,-8.00,-19.00,+21.00,-30.00,-20.00,-8.00,-3.00,+0.00,-6.00,+0.00,+15.00
+30.00,+10.00,+1.00,+3.00,+0.00,+0.00,+6.00,+18.00,+7.00,+9.00,+0.00,-2.00,+1.00,+31.00,+24.00,+19.00
-55.00,-24.00,-14.00,-8.00,-4.00,-8.00,-19.00,-36.00,-1.00,-5.00,-6.00,-3.00,-2.00,-4.00,-15.00,-6.00
-1.00,-29.00,-5.00,-3.00,-2.00,-4.00,+2.00,+2.00,-22.00,-18.00,-1.00,+4.00,+2.00,+6.00,-3.00,+7.00
-6.00,+41.00,+6.00,+1.00,+3.00,+14.00,+21.00,-10.00,+15.00,+0.00,-7.00,-12.00,-9.00,-5.00,-8.00,+21.00
+45.00,+16.00,+5.00,+5.00,+3.00,-1.00,-49.00,+10.00,+22.00,+2.00,+1.00,-2.00,+2.00,-3.00,+5.00,+18.00
-10.00,-11.00,-5.00,-3.00,-2.00,+9.00,+48.00,+12.00,+10.00,-1.00,-3.00,-4.00,-2.00,-7.00,-8.00,-1.00
+9.00,+5.00,-3.00,-5.00,-11.00,-28.00,-21.00,-3.00,-16.00,-17.00,-2.00,+1.00,+5.00,+19.00,+17.00,-15.00
-2.00,-6.00,+10.00,+6.00,+4.00,+17.00,+6.00,+17.00,+7.00,+1.00,+6.00,+5.00,+5.00,+7.00,-5.00,+25.00
+49.00,+35.00,+13.00,+7.00,+9.00,+31.00,+36.00,+21.00,+6.00,+13.00,-6.00,-7.00,-7.00,-14.00,-12.00,-8.00
-28.00,-8.00,-5.00,-2.00,-4.00,-9.00,-31.00,-32.00,+3.00,-4.00,+1.00,+8.00,+7.00,-3.00,-7.00,-2.00
+14.00,-1.00,-1.00,-1.00,-3.00,-5.00,+2.00,-5.00,+6.00,+20.00,+2.00,-5.00,-8.00,-2.00,+6.00,-33.00
+0.00,-15.00,-7.00,-5.00,-3.00,-6.00,+8.00,+6.00,+21.00,-7.00,+4.00,+0.00,-1.00,+2.00,+0.00,-6.00
-19.00,-13.00,-12.00,-7.00,-3.00,-10.00,-1.00,-7.00,+10.00,+7.00,-6.00,-6.00,-3.00,-6.00,-11.00,+36.00
-33.00,-14.00,+0.00,-4.00,-3.00,-7.00,-8.00,-13.00,-46.00,-24.00,+0.00,+3.00,+4.00,+1.00,-11.00,-45.00
-5.00,+6.00,+3.00,+3.00,+3.00,+6.00,+10.00,+13.00,+10.00,+16.00,-1.00,-1.00,+0.00,+1.00,+2.00,+2.00
+51.00,+30.00,+5.00,+3.00,+2.00,-8.00,+2.00,+8.00,+28.00,+3.00,+1.00,+0.00,+0.00,+1.00,-1.00,+12.00
+1.00,-6.00,+2.00,+0.00,-2.00,+7.00,+7.00,-2.00,-53.00,-10.00,+5.00,+1.00,+0.00,-12.00,-12.00,-22.00
-3.00,+11.00,+0.00,-1.00,-4.00,-14.00,-22.00,-19.00,+12.00,-11.00,-5.00,-4.00,-4.00,+2.00,+14.00,+23.00
-18.00,-16.00,-1.00,+4.00,+0.00,+4.00,-2.00,+10.00,+5.00,+5.00,-7.00,-8.00,-1.00,+0.00,-16.00,-5.00
-2.00,-12.00,-6.00,-2.00,-4.00,-6.00,-6.00,-16.00,+14.00,+39.00,+13.00,+2.00,-1.00,+6.00,+19.00,-11.00
-35.00,-19.00,-9.00,-7.00,-7.00,-7.00,-1.00,-13.00,+2.00,-21.00,-13.00,-4.00,-2.00,+3.00,+3.00,-10.00
+48.00,+22.00,-2.00,-3.00,+0.00,+2.00,+10.00,+8.00,-21.00,-11.00,-4.00,+0.00,-4.00,-12.00,-2.00,-14.00
-12.00,+2.00,+9.00,+5.00,+5.00,+9.00,+4.00,+12.00,-19.00,-4.00,+0.00,+1.00,+0.00,+9.00,+6.00,-3.00
+43.00,+9.00,+3.00,+2.00,+3.00,+5.00,+18.00,+27.00,-12.00,-4.00,+0.00,+3.00,+2.00,-14.00,-7.00,-11.00
-26.00,-9.00,-3.00,-2.00,+2.00,+8.00,+20.00,-10.00,+35.00,+33.00,+1.00,-9.00,-8.00,-2.00,-14.00,+19.00
-22.00,-4.00,+6.00,+0.00,-3.00,+3.00,+5.00,-30.00,-37.00,-10.00,+1.00,+0.00,-1.00,+8.00,+21.00,-16.00
+11.00,-1.00,-13.00,-3.00,-1.00,-8.00,-11.00,+6.00,-5.00,-8.00,-8.00,-6.00,-9.00,-21.00,-12.00,-14.00
-8.00,-22.00,-8.00,-3.00,+1.00,+12.00,+38.00,+14.00,-26.00,-10.00,-3.00,-3.00,-2.00,-3.00,+5.00,-25.00
+21.00,+5.00,+5.00,+3.00,+3.00,-1.00,+22.00,+16.00,-44.00,-7.00,+10.00,+9.00,+11.00,+11.00,-3.00,-39.00
-62.00,-27.00,-7.00,-4.00,-6.00,-26.00,-91.00,-33.00,+31.00,-1.00,-8.00,-5.00,-3.00,+2.00,-17.00,+42.00
+12.00,+17.00,+7.00,+4.00,+3.00,+5.00,+40.00,+24.00,+8.00,+14.00,-2.00,-5.00,-7.00,-12.00,-4.00,-3.00
+11.00,+14.00,+5.00,+3.00,+4.00,+21.00,+4.00,+20.00,-9.00,-13.00,-7.00,-1.00,-3.00,+2.00,-5.00,+1.00
+33.00,+8.00,-2.00,+0.00,-6.00,-2.00,+1.00,+4.00,+14.00,+12.00,-2.00,-4.00,-6.00,-8.00,+1.00,-4.00
+7.00,-2.00,+1.00,+2.00,-2.00,+1.00,-8.00,+40.00,+6.00,-5.00,-5.00,-4.00,-4.00,-5.00,-10.00,+14.00
-43.00,-12.00,-12.00,-11.00,-10.00,-12.00,-26.00,-34.00,+17.00,+28.00,+12.00,+5.00,+5.00,+9.00,+8.00,+19.00
-15.00,-5.00,+0.00,+2.00,-2.00,-4.00,-11.00,-14.00,-29.00,-26.00,-12.00,-4.00,-1.00,-5.00,-14.00,+0.00
+10.00,+17.00,+9.00,+1.00,+3.00,+1.00,+6.00,+13.00,+17.00,-14.00,-5.00,-4.00,+0.00,-1.00,+1.00,-13.00
-1.00,-22.00,-12.00,-7.00,-4.00,-3.00,-1.00,-15.00,-50.00,+0.00,+12.00,+11.00,+5.00,+2.00,+6.00,-30.00
+43.00,+26.00,+5.00,+1.00,-1.00,+3.00,-11.00,+1.00,+22.00,+9.00,+1.00,+0.00,-3.00,-1.00,+2.00,-2.00
-25.00,-8.00,+0.00,-2.00,-3.00,-8.00,+2.00,-8.00,+32.00,+22.00,+3.00,+0.00,-1.00,+7.00,-6.00,+53.00
-2.00,-8.00,-5.00,-1.00,-1.00,-2.00,-6.00,+4.00,-8.00,-24.00,-6.00,-2.00,-6.00,-11.00,-7.00,-28.00
-84.00,-29.00,-12.00,-8.00,-8.00,-7.00,+2.00,-60.00,-31.00,-5.00,-3.00,-7.00,-4.00,-4.00,-1.00,-8.00
+25.00,+16.00,+13.00,+7.00,+10.00,+16.00,+20.00,+39.00,-11.00,+2.00,-3.00,-3.00,+4.00,+0.00,-13.00,-34.00
-84.00,-9.00,-9.00,-8.00,-6.00,-12.00,-35.00,-48.00,+6.00,+2.00,+0.00,+0.00,-1.00,+6.00,+6.00,+2.00
+17.00,-5.00,+0.00,+2.00,+1.00,-5.00,-21.00,+20.00,+13.00,+10.00,+8.00,+4.00,+2.00,-1.00,+3.00,+21.00
+4.00,-6.00,-4.00,-6.00,-8.00,-7.00,+0.00,-7.00,-5.00,-5.00,-4.00,-2.00,-3.00,-2.00,-2.00,+7.00
+18.00,+6.00,+5.00,+4.00,+6.00,+36.00,+53.00,+12.00,-15.00,-14.00,+0.00,+2.00,+0.00,-4.00,-3.00,+4.00
-1.00,+13.00,-1.00,-2.00,-5.00,-9.00,-10.00,-2.00,+25.00,-12.00,-8.00,-3.00,-4.00,-1.00,+9.00,+0.00
-5.00,-28.00,-9.00,-8.00,-6.00,+0.00,+10.00,+12.00,-2.00,+10.00,-6.00,-3.00,+1.00,+1.00,+2.00,+3.00
+26.00,-1.00,+0.00,+2.00,+6.00,+1.00,+10.00,+21.00,+6.00,+5.00,+2.00,-2.00,+3.00,+9.00,-5.00,-15.00
-16.00,-25.00,-7.00,-6.00,-2.00,-12.00,-25.00,-23.00,+8.00,-7.00,-6.00,-6.00,+1.00,+2.00,+7.00,+15.00
+13.00,+14.00,+5.00,+1.00,+0.00,-7.00,-9.00,+5.00,-12.00,-5.00,+0.00,+0.00,-2.00,-7.00,-2.00,+15.00
-2.00,+1.00,-1.00,+0.00,-1.00,-1.00,+5.00,+2.00,-19.00,-10.00,-1.00,+3.00,+0.00,-2.00,-7.00,-30.00
+64.00,+36.00,+12.00,+10.00,+10.00,+29.00,+23.00,+24.00,+19.00,+0.00,-4.00,+2.00,+3.00,+13.00,+15.00,+6.00
-8.00,+22.00,+2.00,+0.00,-2.00,-4.00,-12.00,+1.00,-14.00,-7.00,+1.00,+2.00,-3.00,-4.00,-5.00,-8.00
-25.00,-25.00,-6.00,-3.00,-3.00,-5.00,-15.00,-15.00,-6.00,-7.00,-2.00,-1.00,-2.00,-3.00,-11.00,-27.00
-12.00,-2.00,+1.00,+0.00,+1.00,+2.00,+5.00,-15.00,-33.00,-4.00,+0.00,-3.00,-2.00,-1.00,+12.00,+26.00
-42.00,-17.00,-2.00,+0.00,-2.00,-11.00,-18.00,-4.00,-5.00,-11.00,-5.00,-8.00,-2.00,+3.00,-17.00,-3.00
+38.00,+17.00,+5.00,+1.00,+1.00,-5.00,-8.00,-4.00,+13.00,-3.00,+2.00,+3.00,-4.00,-24.00,-14.00,+0.00
+20.00,-11.00,-12.00,-6.00,+1.00,+4.00,+15.00,+11.00,-42.00,-22.00,-2.00,+3.00,+4.00,+19.00,+27.00,-42.00
-2.00,+0.00,-1.00,-1.00,+0.00,+2.00,-11.00,+5.00,+45.00,+19.00,+4.00,-1.00,-2.00,-3.00,+4.00,+55.00
+18.00,+19.00,+11.00,+6.00,+4.00,-4.00,-16.00,+13.00,-7.00,-17.00,-2.00,-1.00,-4.00,-11.00,+0.00,-14.00
-15.00,-5.00,-13.00,-8.00,-7.00,-7.00,-6.00,-20.00,-28.00,-6.00,-2.00,-1.00,+0.00,+8.00,+4.00,-22.00
-22.00,-20.00,+1.00,-3.00,-8.00,-19.00,-20.00,-11.00,+2.00,+3.00,+0.00,-2.00,+2.00,-13.00,-29.00,-3.00
+33.00,+3.00,+9.00,+5.00,+2.00,-6.00,-9.00,+8.00,-20.00,-19.00,-12.00,-3.00,-3.00,+0.00,+6.00,-39.00
-4.00,-10.00,-10.00,-3.00,+0.00,+9.00,+8.00,-9.00,-30.00,-4.00,-2.00,-2.00,-1.00,+8.00,+18.00,+22.00
+3.00,+14.00,-1.00,-3.00,-2.00,-5.00,-7.00,-6.00,+50.00,+27.00,+6.00,+1.00,+1.00,+7.00,+5.00,+30.00
-9.00,-6.00,-1.00,+1.00,-3.00,+3.00,+30.00,+28.00,-7.00,-7.00,-4.00,-2.00,-3.00,-8.00,-15.00,-30.00
+5.00,+1.00,-4.00,-4.00,-4.00,-1.00,+12.00,+9.00,-12.00,+6.00,+3.00,+3.00,+4.00,+2.00,+4.00,+1.00
+11.00,+9.00,+1.00,-2.00,-3.00,-7.00,-1.00,+12.00,+0.00,-11.00,-2.00,-2.00,-2.00,-10.00,-16.00,-1.00
-12.00,-20.00,-5.00,-4.00,-2.00,-8.00,-20.00,-16.00,+6.00,+5.00,-5.00,-3.00,+3.00,+1.00,+4.00,+8.00
-8.00,+8.00,+2.00,-2.00,+3.00,+2.00,-6.00,-9.00,-3.00,+4.00,+4.00,+0.00,+1.00,-2.00,+5.00,-31.00
-29.00,-2.00,-2.00,+1.00,+2.00,+1.00,+3.00,-24.00,+54.00,+15.00,+3.00,-3.00,+0.00,+2.00,+6.00,+61.00
+25.00,+4.00,+1.00,+3.00,+1.00,+1.00,+17.00,+26.00,+23.00,+1.00,-3.00,-2.00,-5.00,-6.00,+6.00,+26.00
-24.00,-13.00,-4.00,-4.00,-3.00,-3.00,-6.00,-14.00,-4.00,-14.00,-2.00,+0.00,-4.00,-3.00,-4.00,-7.00
+23.00,-4.00,-8.00,-2.00,-2.00,+10.00,+4.00,+6.00,-27.00,-6.00,-3.00,-2.00,-1.00,+4.00,-1.00,-27.00
-21.00,+3.00,+2.00,-2.00,-6.00,+0.00,-3.00,-13.00,-27.00,-13.00,-4.00,-3.00,-8.00,-3.00,-11.00,-33.00
+12.00,+16.00,+4.00,+3.00,+3.00,+4.00,+9.00,-4.00,+8.00,+1.00,-1.00,-1.00,-1.00,-1.00,+0.00,+13.00
-18.00,-26.00,-5.00,-5.00,-4.00,-8.00,-18.00,-1.00,+48.00,+4.00,-3.00,+0.00,-1.00,-2.00,+0.00,+23.00
+12.00,+24.00,+9.00,+6.00,+6.00,+9.00,+17.00,-8.00,-15.00,-5.00,-3.00,-1.00,+0.00,-3.00,+2.00,+2.00
-13.00,+7.00,+1.00,+0.00,+3.00,+0.00,-2.00,+1.00,-5.00,+6.00,-4.00,-2.00,-2.00,-1.00,-8.00,-5.00
+8.00,-8.00,-7.00,-6.00,-4.00,-1.00,+4.00,-4.00,+13.00,+19.00,+3.00,+0.00,-3.00,-5.00,-6.00,-19.00
-20.00,-30.00,-8.00,-3.00,-3.00,-2.00,+1.00,-18.00,-26.00,-6.00,+3.00,-2.00,+0.00,+4.00,-1.00,+3.00
-4.00,-5.00,+5.00,+2.00,-1.00,-4.00,-7.00,+16.00,-8.00,-17.00,-6.00,-5.00,-2.00,-4.00,-7.00,+2.00
+15.00,+7.00,-3.00,+0.00,+4.00,+4.00,-3.00,+7.00,+25.00,+22.00,+4.00,+0.00,-1.00,-3.00,-7.00,+0.00
-6.00,+15.00,+3.00,+0.00,-2.00,-2.00,+0.00,+0.00,+3.00,+5.00,-2.00,+1.00,-2.00,-7.00,-6.00,+9.00
-8.00,-14.00,-2.00,-2.00,-5.00,+1.00,+1.00,-7.00,-46.00,-20.00,+1.00,+4.00,+4.00,+9.00,+1.00,-4.00
+2.00,-11.00,-24.00,-7.00,-5.00,-8.00,-12.00,-14.00,+10.00,+20.00,+2.00,-3.00,-2.00,-2.00,-5.00,-22.00
+12.00,+25.00,+11.00,+5.00,+4.00,+1.00,+4.00,-3.00,-1.00,-15.00,-3.00,-3.00,-3.00,-10.00,-1.00,+13.00
-31.00,-35.00,-8.00,-8.00,-10.00,-2.00,+3.00,-2.00,+4.00,-3.00,-3.00,-2.00,+0.00,-1.00,+1.00,-1.00
+26.00,+10.00,+10.00,+8.00,+3.00,-15.00,-30.00,+15.00,-23.00,-29.00,-8.00,-4.00,+0.00,+2.00,-5.00,-23.00
-15.00,+6.00,+7.00,+4.00,+2.00,+3.00,-16.00,-19.00,+37.00,+47.00,+14.00,+5.00,-6.00,-3.00,+4.00,+35.00
+62.00,+19.00,+2.00,+1.00,+0.00,+1.00,+12.00,+34.00,+9.00,-7.00,-10.00,-4.00,-2.00,-1.00,-1.00,+13.00
-25.00,-14.00,-6.00,-2.00,-1.00,-1.00,-20.00,-17.00,-17.00,+1.00,+4.00,+3.00,+4.00,+0.00,-6.00,-39.00
+0.00,+7.00,-1.00,+0.00,-3.00,+3.00,+7.00,-28.00,-34.00,-22.00,-8.00,-7.00,-9.00,-1.00,+2.00,-9.00
-8.00,+3.00,+4.00,+1.00,-1.00,-6.00,+1.00,-9.00,+20.00,-9.00,+1.00,+2.00,+3.00,+2.00,+6.00,+40.00
-26.00,-10.00,-5.00,-2.00,+0.00,-2.00,-7.00,-10.00,-27.00,+14.00,+5.00,+1.00,+2.00,+6.00,-8.00,+11.00
-29.00,-15.00,+0.00,-3.00,-1.00,-6.00,-20.00,-26.00,+24.00,+8.00,-2.00,-4.00,-5.00,-5.00,-6.00,-34.00
+38.00,+22.00,+7.00,+4.00,+7.00,+11.00,+16.00,+32.00,-3.00,+6.00,+6.00,+1.00,+2.00,+5.00,+3.00,-1.00
-16.00,-12.00,-6.00,-6.00,-3.00,-5.00,-24.00,-16.00,-37.00,-43.00,-10.00,-5.00,-3.00,-5.00,+7.00,-10.00
+23.00,-4.00,-4.00,-2.00,-2.00,+19.00,+31.00,+7.00,+36.00,+27.00,+4.00,-1.00,-2.00,-7.00,-7.00,+18.00
-33.00,+6.00,-5.00,+0.00,-4.00,-6.00,+7.00,-19.00,-16.00,-16.00,-4.00,-1.00,-1.00,+4.00,+2.00,-26.00
-27.00,-12.00,-3.00,-3.00,-3.00,-3.00,-6.00,-7.00,+29.00,+27.00,+2.00,+3.00,+0.00,+0.00,+13.00,+32.00
-2.00,+3.00,-1.00,-2.00,+0.00,-4.00,+10.00,+5.00,-21.00,-11.00,-2.00,+0.00,+0.00,-2.00,-12.00,-14.00
-8.00,-6.00,-5.00,-5.00,-6.00,-9.00,-15.00,-8.00,-17.00,-27.00,-7.00,-6.00,-1.00,-4.00,-4.00,-19.00
+6.00,-5.00,+2.00,+2.00,+0.00,-5.00,+0.00,-9.00,-5.00,+10.00,+4.00,-1.00,+2.00,-1.00,-1.00,+19.00
+1.00,+2.00,-7.00,-3.00,+0.00,+1.00,+11.00,+16.00,+33.00,+7.00,-4.00,-3.00,+3.00,+10.00,+7.00,+25.00
+9.00,+9.00,+11.00,+4.00,+3.00,+3.00,+4.00,-8.00,+13.00,+1.00,-4.00,-1.00,+0.00,-6.00,-6.00,-17.00
-20.00,-3.00,-7.00,-2.00,-2.00,-2.00,-8.00,-11.00,-23.00,-12.00,+4.00,+5.00,+3.00,+5.00,+2.00,-9.00
+23.00,+7.00,+6.00,+2.00,-1.00,+2.00,-2.00,+8.00,+2.00,-3.00,-3.00,-1.00,-4.00,-5.00,-4.00,+9.00
-3.00,-11.00,-6.00,-4.00,-2.00,+0.00,+10.00,+7.00,-25.00,-13.00,-7.00,-5.00,-3.00,-4.00,-6.00,-13.00
+18.00,-4.00,+3.00,+2.00,+5.00,+6.00,+1.00,+5.00,+1.00,+6.00,-1.00,-2.00,-2.00,+3.00,+8.00,+3.00
+10.00,+1.00,+1.00,-1.00,-3.00,-8.00,-7.00,+2.00,+10.00,-8.00,-5.00,-2.00,-4.00,-3.00,+4.00,+9.00
+9.00,+18.00,-5.00,-3.00,-4.00,-1.00,+5.00,+8.00,+24.00,+3.00,-4.00,-2.00,-3.00,-1.00,+4.00,+26.00
-3.00,-5.00,+5.00,+2.00,+0.00,+4.00,+1.00,-2.00,-28.00,-4.00,+0.00,+3.00,+2.00,-5.00,-12.00,-31.00
-1.00,-8.00,-2.00,-3.00,-1.00,-3.00,+0.00,+1.00,+27.00,+14.00,-4.00,-5.00,-2.00,+2.00,-7.00,+8.00
-5.00,-15.00,-13.00,-8.00,+0.00,-3.00,-7.00,-15.00,-28.00,-2.00,-1.00,-1.00,-2.00,-6.00,-8.00,-39.00
-7.00,-7.00,-6.00,-3.00,+0.00,+3.00,-8.00,-5.00,+13.00,+1.00,-5.00,-3.00,+0.00,-1.00,+9.00,+24.00
+27.00,-4.00,+1.00,+1.00,+2.00,+8.00,+14.00,+20.00,-1.00,+2.00,+2.00,+1.00,+1.00,-2.00,+7.00,+8.00
+14.00,+28.00,+12.00,+5.00,+0.00,+2.00,+6.00,+11.00,-9.00,-6.00,-2.00,-2.00,-3.00,-4.00,-8.00,-1.00
-18.00,-12.00,-1.00,+2.00,-1.00,-3.00,-11.00,-5.00,-9.00,-11.00,+0.00,-1.00,+1.00,+5.00,+3.00,-5.00
+56.00,+23.00,+5.00,+3.00,+2.00,+7.00,+16.00,+36.00,+15.00,+7.00,+1.00,-2.00,-1.00,+0.00,-9.00,+5.00
-27.00,-9.00,-3.00,+1.00,+3.00,-1.00,-12.00,-2.00,+9.00,-2.00,-7.00,-3.00,-3.00,-7.00,-9.00,+9.00
+4.00,-3.00,-2.00,-1.00,+0.00,+1.00,-5.00,-2.00,-26.00,+0.00,+1.00,+2.00,+1.00,+0.00,-4.00,-7.00
+1.00,+7.00,+5.00,-2.00,+1.00,-2.00,+1.00,+11.00,+7.00,-2.00,+0.00,+0.00,-1.00,+0.00,-5.00,+2.00
-17.00,-5.00,-3.00,-4.00,+1.00,-8.00,-6.00,-27.00,-13.00,-5.00,-1.00,+0.00,-2.00,-2.00,+9.00,-9.00
+3.00,-4.00,-7.00,-3.00,-2.00,-1.00,+2.00,-2.00,+7.00,+5.00,+2.00,-2.00,-2.00,-5.00,-1.00,-16.00
-20.00,-11.00,-1.00,-4.00,-4.00,-5.00,-2.00,-1.00,+7.00,+0.00,+1.00,+0.00,+2.00,+2.00,+12.00,+29.00
+18.00,+11.00,+7.00,+4.00,+2.00,+0.00,+7.00,+44.00,-6.00,-5.00,-2.00,-2.00,-3.00,-5.00,-6.00,-10.00
-11.00,-5.00,-1.00,+0.00,-1.00,+2.00,+2.00,+11.00,+12.00,+26.00,+0.00,-2.00,-2.00,+2.00,+1.00,+13.00
+14.00,+3.00,-8.00,-5.00,-1.00,-2.00,-7.00,-6.00,-10.00,-14.00,+0.00,-1.00,-1.00,-11.00,-7.00,-3.00
-21.00,-10.00,-7.00,-3.00,-3.00,-3.00,-4.00,-6.00,+14.00,+20.00,+3.00,-3.00,+4.00,+7.00,-6.00,-13.00
-14.00,-9.00,-7.00,-2.00,-2.00,+0.00,-2.00,-13.00,+6.00,+5.00,+3.00,+1.00,+3.00,+3.00,+0.00,+9.00
+8.00,-12.00,-6.00,-1.00,+0.00,-2.00,+5.00,+6.00,-5.00,-8.00,-3.00,-2.00,-2.00,+1.00,+4.00,+0.00
-22.00,-4.00,-4.00,-1.00,-5.00,+0.00,+5.00,-16.00,-7.00,-4.00,-3.00,-2.00,-4.00,-2.00,+2.00,+1.00
+7.00,+13.00,+6.00,+0.00,-2.00,-10.00,-17.00,+1.00,-1.00,-2.00,-4.00,-2.00,-1.00,-2.00,-2.00,-10.00
+0.00,+1.00,+4.00,+3.00,+0.00,+0.00,+4.00,+7.00,-22.00,-16.00,-7.00,+1.00,-2.00,-2.00,-6.00,-11.00
+8.00,+16.00,+5.00,+1.00,+1.00,-3.00,-7.00,+6.00,+10.00,-2.00,+2.00,+1.00,+0.00,-1.00,-3.00,+10.00
-25.00,-8.00,-6.00,-5.00,-2.00,+0.00,-3.00,-22.00,+0.00,-6.00,-1.00,+1.00,+0.00,-2.00,-10.00,-16.00
-2.00,-14.00,-13.00,-4.00,-2.00,+1.00,+2.00,-1.00,+4.00,+5.00,+0.00,+0.00,-2.00,-4.00,+6.00,+1.00
+12.00,-10.00,-1.00,-3.00,-3.00,-2.00,-4.00,+3.00,+3.00,+15.00,+4.00,-1.00,-6.00,-3.00,+0.00,-3.00
+15.00,+19.00,+1.00,+1.00,-1.00,+3.00,+7.00,+17.00,-14.00,-14.00,-2.00,-1.00,+0.00,+1.00,-4.00,-22.00
-28.00,-8.00,+5.00,+2.00,-1.00,-3.00,-2.00,-4.00,+8.00,-10.00,-4.00,-2.00,+1.00,+0.00,-6.00,+13.00
+52.00,+23.00,+6.00,+5.00,-2.00,+2.00,+6.00,+17.00,-8.00,-9.00,-2.00,-1.00,-1.00,-2.00,+1.00,-1.00
-11.00,-6.00,-9.00,-3.00,-4.00,-3.00,-3.00,-3.00,+6.00,+3.00,+2.00,-1.00,+0.00,-3.00,+3.00,-2.00
-18.00,-20.00,-5.00,-2.00,+0.00,+1.00,-3.00,-20.00,+5.00,+2.00,-4.00,-2.00,+0.00,-3.00,-4.00,+23.00
+2.00,+11.00,+9.00,+1.00,+2.00,-1.00,+0.00,-5.00,-1.00,+10.00,+10.00,+2.00,+0.00,+1.00,+1.00,-31.00
+0.00,-8.00,-5.00,-2.00,+1.00,+2.00,+3.00,+6.00,-2.00,-20.00,-11.00,-2.00,+0.00,+1.00,-8.00,-5.00
-11.00,+1.00,+0.00,-2.00,-2.00,-4.00,-4.00,-20.00,-8.00,-3.00,-2.00,-1.00,+0.00,+4.00,+13.00,+3.00
+2.00,-6.00,-5.00,-2.00,-1.00,-1.00,-2.00,-6.00,+3.00,+13.00,+7.00,+3.00,+2.00,+2.00,-8.00,-12.00
-2.00,+4.00,-4.00,+1.00,-3.00,+0.00,-3.00,+15.00,-5.00,-15.00,-7.00,-3.00,-1.00,+1.00,+2.00,-3.00
-11.00,-8.00,+4.00,+0.00,+1.00,+5.00,+3.00,+1.00,+3.00,+10.00,+4.00,+0.00,+0.00,-2.00,-7.00,+3.00
-5.00,+1.00,+1.00,-1.00,-2.00,-2.00,-9.00,-37.00,+13.00,+7.00,+2.00,+1.00,-1.00,-1.00,+12.00,-5.00
-6.00,-8.00,-2.00,-3.00,+0.00,-5.00,+0.00,+7.00,-15.00,-9.00,-6.00,-3.00,-4.00,-2.00,-5.00,+5.00
+5.00,-2.00,+5.00,-1.00,+2.00,-2.00,+0.00,+5.00,-6.00,+5.00,-3.00,-2.00,-2.00,-1.00,-3.00,+3.00
-8.00,+13.00,+4.00,-2.00,-1.00,-6.00,-5.00,-23.00,-15.00,-6.00,+2.00,-1.00,-1.00,-3.00,-5.00,+2.00
-14.00,-5.00,-7.00,-3.00,-3.00,-1.00,-2.00,-11.00,+4.00,-2.00,-6.00,-4.00,+2.00,+1.00,+3.00,-18.00
+11.00,-16.00,-1.00,+0.00,-1.00,+1.00,-2.00,+10.00,+6.00,+10.00,+5.00,+0.00,+0.00,-2.00,-4.00,+1.00
+2.00,+27.00,-1.00,-1.00,+1.00,+0.00,-4.00,-27.00,+14.00,+8.00,-1.00,+0.00,-2.00,+0.00,+1.00,-6.00
-2.00,-8.00,+6.00,+2.00,+2.00,+4.00,+4.00,+6.00,-4.00,-15.00,-4.00,+0.00,-1.00,+1.00,+6.00,+15.00
+9.00,+7.00,-2.00,-1.00,-2.00,+1.00,+3.00,+15.00,-16.00,-17.00,-2.00,+0.00,+1.00,+2.00,-2.00,-5.00
-12.00,-7.00,-6.00,-2.00,-3.00,-1.00,-3.00,-14.00,+17.00,-1.00,+1.00,-2.00,-2.00,-3.00,-5.00,+4.00
+3.00,-11.00,-2.00,-1.00,-1.00,-5.00,-3.00,+5.00,+10.00,+2.00,-1.00,-1.00,-1.00,+1.00,+8.00,+7.00
-19.00,-7.00,-5.00,+0.00,-1.00,-3.00,-3.00,-1.00,-1.00,-1.00,-3.00,-3.00,+1.00,+0.00,-2.00,+4.00
-5.00,+21.00,+13.00,+3.00,+2.00,-1.00,+1.00,-2.00,-7.00,-2.00,-1.00,-2.00,-2.00,-2.00,-11.00,-10.00
+2.00,+0.00,-2.00,-1.00,-2.00,-2.00,+0.00,-3.00,-10.00,+0.00,+9.00,+4.00,+2.00,+2.00,+12.00,+6.00
-11.00,-9.00,-7.00,-5.00,-2.00,+0.00,+0.00,-13.00,+1.00,-7.00,-9.00,-2.00,+1.00,+0.00,-4.00,+14.00
-15.00,-8.00,-4.00,-2.00,-5.00,-1.00,-2.00,-6.00,-4.00,-17.00,-15.00,-4.00,-5.00,-2.00,-2.00,-8.00
+2.00,-2.00,+1.00,+2.00,+3.00,+2.00,+4.00,-1.00,-10.00,-3.00,+2.00,+0.00,-1.00,-2.00,-1.00,-1.00
+1.00,+6.00,+2.00,+2.00,+2.00,+1.00,+1.00,+11.00,-4.00,-10.00,-10.00,-5.00,-2.00,-3.00,-2.00,-1.00
+9.00,-6.00,-3.00,-1.00,-1.00,-1.00,-3.00,+6.00,+8.00,+7.00,+3.00,-1.00,+0.00,+0.00,-1.00,+5.00
-1.00,-2.00,-2.00,-2.00,+0.00,+1.00,-3.00,-15.00,-7.00,+1.00,+3.00,-1.00,-4.00,-4.00,+0.00,-11.00
+10.00,+6.00,-2.00,-1.00,-3.00,+0.00,+3.00,+20.00,+17.00,+7.00,+5.00,+1.00,+0.00,+2.00,+0.00,+11.00
+10.00,-1.00,+0.00,-3.00,-4.00,-3.00,-4.00,+5.00,-21.00,-15.00,-8.00,-2.00,-3.00,+1.00,+4.00,-1.00
+11.00,+8.00,+5.00,+4.00,+2.00,-1.00,+0.00,+7.00,-4.00,+2.00,+1.00,+0.00,+1.00,-1.00,-4.00,+0.00
+7.00,-6.00,-2.00,+1.00,+1.00,-1.00,+1.00,+8.00,+10.00,+8.00,+1.00,-1.00,-2.00,-2.00,-2.00,+14.00
-7.00,-5.00,-4.00,-1.00,+1.00,-1.00,-2.00,+0.00,+1.00,-4.00,-4.00,+1.00,-1.00,-2.00,-2.00,-8.00
-11.00,-10.00,+1.00,-2.00,-1.00,+0.00,+2.00,-7.00,-4.00,+1.00,+4.00,+1.00,-2.00,-3.00,-1.00,-13.00
+13.00,+30.00,+3.00,+1.00,-2.00,+1.00,+4.00,+1.00,+0.00,+4.00,-2.00,-1.00,+0.00,-1.00,+1.00,-1.00
+2.00,-1.00,+0.00,+1.00,+0.00,+0.00,+2.00,+3.00,-5.00,-14.00,-7.00,-1.00,-2.00,-3.00,+1.00,-13.00
-6.00,-2.00,+1.00,-1.00,+4.00,-1.00,+3.00,+10.00,+8.00,+17.00,+4.00,-2.00,+0.00,+0.00,+2.00,+24.00
-1.00,-1.00,+2.00,-1.00,-2.00,-4.00,-3.00,-13.00,-10.00,-35.00,-16.00,-8.00,-2.00,-4.00,-7.00,-6.00
+11.00,-9.00,+1.00,-2.00,-3.00,-2.00,-3.00,-13.00,+11.00,+25.00,+8.00,-1.00,+0.00,+0.00,+8.00,+7.00
-1.00,+2.00,-8.00,-2.00,-5.00,-1.00,-3.00,-12.00,+3.00,+0.00,+5.00,+3.00,+2.00,-5.00,-6.00,-9.00
-3.00,-8.00,-3.00,-1.00,-2.00,+0.00,-6.00,-8.00,-5.00,-10.00,-9.00,-3.00,-2.00,-3.00,-5.00,-13.00
+10.00,-3.00,-4.00,-2.00,+3.00,+2.00,+2.00,+22.00,-1.00,+2.00,-2.00,-1.00,-1.00,-2.00,+0.00,+0.00
-2.00,+19.00,+17.00,+4.00,+3.00,+3.00,+3.00,+3.00,-8.00,-3.00,+0.00,+0.00,-2.00,-3.00,-2.00,-5.00
-7.00,-11.00,-8.00,-3.00,+1.00,-4.00,-4.00,-7.00,+4.00,+11.00,+6.00,+2.00,+1.00,+4.00,-2.00,+1.00
-1.00,-10.00,-8.00,-5.00,-3.00,-5.00,+0.00,-6.00,-4.00,-11.00,-4.00,-2.00,-2.00,+1.00,-3.00,+2.00
+4.00,+6.00,+3.00,+1.00,+2.00,-1.00,+0.00,-1.00,+0.00,+8.00,+3.00,+0.00,+0.00,-1.00,-5.00,-7.00
-5.00,-4.00,-2.00,-4.00,-4.00,-2.00,-2.00,-3.00,+3.00,-1.00,-3.00,+0.00,-1.00,+1.00,+6.00,-6.00
+1.00,+0.00,+5.00,+2.00,+1.00,-2.00,+1.00,+1.00,-8.00,+8.00,+6.00,+3.00,+1.00,-2.00,+4.00,+2.00
+1.00,+1.00,+0.00,+3.00,-1.00,+0.00,-2.00,-1.00,+11.00,-2.00,-2.00,+1.00,+1.00,-1.00,+0.00,+4.00
-2.00,+9.00,+0.00,-2.00,-2.00,+0.00,-3.00,-10.00,-1.00,-4.00,-3.00,-2.00,-2.00,+0.00,-3.00,-9.00
-4.00,-12.00,-6.00,-3.00,-1.00,-1.00,-3.00,+7.00,-7.00,-6.00,+0.00,-3.00,-2.00,-2.00,-5.00,+2.00
+7.00,+2.00,-2.00,+1.00,+0.00,+1.00,-3.00,+10.00,+3.00,-12.00,-4.00,-4.00,-2.00,+2.00,-6.00,+0.00
+10.00,+4.00,+2.00,-1.00,+1.00,+1.00,+0.00,+10.00,-7.00,-1.00,-4.00,-4.00,-1.00,+1.00,+5.00,+0.00
-2.00,+2.00,+3.00,+2.00,+0.00,+1.00,+3.00,+1.00,+1.00,+4.00,+1.00,+0.00,-1.00,-2.00,-5.00,-4.00
-4.00,-15.00,-11.00,-4.00,-3.00,-1.00,+0.00,+3.00,+9.00,+23.00,+10.00,+2.00,+1.00,-2.00,+5.00,+15.00
-3.00,+0.00,-9.00,-5.00,-5.00,-4.00,-1.00,-3.00,-8.00,-28.00,-16.00,-7.00,-3.00,-5.00,-4.00,-8.00
-2.00,+2.00,+8.00,+1.00,-3.00,-3.00,-2.00,-3.00,+3.00,+4.00,+2.00,+1.00,+2.00,-4.00,+1.00,+2.00
-2.00,-3.00,+2.00,+2.00,+0.00,-2.00,+0.00,+7.00,-3.00,-5.00,-2.00,+0.00,-1.00,+1.00,+6.00,+2.00
-2.00,+0.00,+1.00,+2.00,+1.00,-1.00,-6.00,-6.00,-7.00,-4.00,-4.00,-2.00,-4.00,-6.00,-13.00,-14.00
-1.00,-11.00,-5.00,-3.00,-1.00,+3.00,+13.00,-3.00,+3.00,+10.00,+4.00,+2.00,+0.00,-3.00,+1.00,+2.00
-2.00,+5.00,-1.00,-1.00,-1.00,-3.00,-9.00,-10.00,-5.00,-4.00,-3.00,-4.00,+3.00,+11.00,+2.00,-10.00
-2.00,+1.00,-2.00,+0.00,+2.00,+2.00,+1.00,-3.00,+3.00,+6.00,+0.00,-1.00,-5.00,-13.00,-3.00,+10.00
+5.00,+7.00,+3.00,+1.00,+0.00,+3.00,+1.00,+4.00,-5.00,-4.00,-1.00,-1.00,+2.00,+0.00,-5.00,-22.00
-3.00,-3.00,+0.00,-2.00,-3.00,-10.00,-9.00,-4.00,+3.00,+2.00,+2.00,+0.00,+1.00,-2.00,+5.00,+10.00
-1.00,-4.00,-4.00,+0.00,+0.00,-1.00,+10.00,+6.00,-6.00,-8.00,-4.00,+1.00,+1.00,+6.00,+9.00,-2.00
-4.00,-5.00,-11.00,-5.00,-6.00,-9.00,-3.00,+1.00,+0.00,+10.00,+5.00,+0.00,-2.00,-5.00,-5.00,-5.00
-3.00,-6.00,-6.00,-4.00,-3.00,-1.00,-3.00,+4.00,+3.00,-8.00,-2.00,-3.00,-5.00,+3.00,-2.00,+12.00
+5.00,+5.00,+5.00,+0.00,-2.00,-2.00,-14.00,-24.00,-2.00,+0.00,+4.00,-2.00,-2.00,-1.00,-3.00,-7.00
+2.00,-1.00,-3.00,-3.00,-4.00,-11.00,-22.00,-7.00,-4.00,+0.00,-1.00,-2.00,-3.00,-5.00,-3.00,-3.00
+15.00,+7.00,+8.00,+5.00,+5.00,+10.00,+22.00,+10.00,-2.00,-7.00,-12.00,-4.00,-1.00,+2.00,+7.00,+15.00
+0.00,-7.00,-9.00,-5.00,+1.00,+1.00,+3.00,+0.00,-6.00,-13.00,-4.00,+0.00,+1.00,-7.00,-13.00,-15.00
-8.00,+4.00,+4.00,+0.00,+1.00,+9.00,+7.00,-7.00,+4.00,+11.00,+2.00,+0.00,+4.00,+10.00,+23.00,+1.00
+2.00,+5.00,+8.00,+1.00,-1.00,-9.00,-19.00,-2.00,-1.00,+0.00,-6.00,-2.00,-1.00,-5.00,-7.00,+0.00
+1.00,-6.00,-6.00,-1.00,-3.00,-1.00,-5.00,-2.00,-4.00,-9.00,+1.00,+1.00,+0.00,+1.00,+1.00,+2.00
-1.00,-12.00,-7.00,-3.00,-3.00,-7.00,-8.00,-6.00,-3.00,+7.00,+2.00,-2.00,+1.00,+1.00,-2.00,+10.00
+2.00,+1.00,+5.00,-1.00,-2.00,-1.00,+1.00,-2.00,-5.00,-1.00,-2.00,-3.00,-4.00,-2.00,-9.00,-16.00
-6.00,-8.00,-5.00,+1.00,+2.00,+10.00,+17.00,+8.00,+1.00,-2.00,+0.00,-2.00,-3.00,-4.00,-7.00,-4.00
-1.00,-3.00,-4.00,-1.00,-1.00,-2.00,-2.00,+10.00,+4.00,+7.00,+2.00,+1.00,+1.00,+5.00,+6.00,-3.00
+3.00,+6.00,+4.00,+0.00,+0.00,+1.00,+5.00,+7.00,-2.00,-6.00,-6.00,-1.00,-2.00,-2.00,-1.00,+1.00
-4.00,+1.00,-2.00,-1.00,+1.00,-4.00,-3.00,+8.00,+1.00,+0.00,+1.00,+2.00,+0.00,-2.00,-1.00,+2.00
-4.00,+3.00,+4.00,-1.00,-1.00,+1.00,+5.00,-8.00,+3.00,+1.00,-2.00,-1.00,-4.00,-4.00,+2.00,+8.00
-6.00,-3.00,-2.00,-5.00,-7.00,-2.00,-13.00,-14.00,-3.00,+0.00,-1.00,+0.00,+0.00,-2.00,-9.00,-10.00
-8.00,-1.00,-6.00,+1.00,-4.00,-1.00,-4.00,-4.00,-1.00,-5.00,+0.00,-1.00,-4.00,+2.00,+3.00,+1.00
+0.00,+0.00,-2.00,+0.00,-2.00,+4.00,+1.00,+2.00,+1.00,+1.00,+1.00,-1.00,-2.00,+2.00,+0.00,+3.00
-9.00,-1.00,-6.00,+0.00,+0.00,+2.00,+3.00,+9.00,-4.00,+2.00,+4.00,-1.00,+1.00,-2.00,-2.00,-4.00
-7.00,+0.00,+3.00,-2.00,+1.00,-3.00,-7.00,-6.00,+0.00,-4.00,-2.00,-3.00,+0.00,-3.00,-1.00,+9.00
+13.00,+2.00,+2.00,+0.00,+1.00,+2.00,+8.00,+11.00,-7.00,-4.00,-2.00,-2.00,+1.00,-1.00,+8.00,-26.00
+3.00,+3.00,+2.00,+1.00,+0.00,+1.00,-1.00,+2.00,+1.00,+8.00,+5.00,+0.00,+0.00,-1.00,-17.00,-1.00
+1.00,-5.00,+0.00,+1.00,+0.00,+4.00,+1.00,-3.00,+2.00,-4.00,-3.00,-2.00,-4.00,-3.00,+3.00,+5.00
-2.00,+0.00,+4.00,-1.00,-2.00,-1.00,-4.00,-3.00,+1.00,+9.00,+7.00,+2.00,+1.00,+1.00,+4.00,-7.00
-22.00,-1.00,+0.00,-1.00,+0.00,-5.00,+0.00,-8.00,-1.00,-19.00,-15.00,-4.00,-3.00,-3.00,-4.00,+0.00
+5.00,-2.00,-2.00,-1.00,-1.00,-3.00,+2.00,+9.00,-4.00,-5.00,-5.00,-3.00,-2.00,-3.00,+1.00,+4.00
-8.00,-4.00,-5.00,-3.00,-1.00,-3.00,+1.00,-15.00,+0.00,+4.00,+3.00,+0.00,-2.00,-2.00,-9.00,-6.00
-3.00,-2.00,-4.00,-2.00,+1.00,-2.00,-3.00,+1.00,-3.00,-5.00,-1.00,+0.00,+1.00,+5.00,-1.00,+4.00
-3.00,-5.00,+4.00,-1.00,+0.00,+2.00,-4.00,-10.00,-1.00,-5.00,-4.00,+0.00,-1.00,+0.00,+2.00,+12.00
+8.00,+6.00,-5.00,+0.00,-1.00,+3.00,+3.00,+24.00,-3.00,+2.00,+2.00,-2.00,+0.00,-1.00,-1.00,-15.00
+3.00,+1.00,-3.00,+0.00,-1.00,+4.00,-1.00,-13.00,-1.00,-5.00,-2.00,+0.00,+0.00,-1.00,+1.00,+3.00
-5.00,-4.00,-2.00,-1.00,-2.00,-1.00,-3.00,+2.00,+0.00,+4.00,+0.00,-4.00,-4.00,-3.00,-3.00,-5.00
+4.00,+10.00,+3.00,-1.00,-1.00,-4.00,+3.00,-4.00,-3.00,+6.00,+4.00,+0.00,-3.00,-1.00,-4.00,-3.00
-9.00,-7.00,-4.00,-3.00,+2.00,-3.00,-1.00,+6.00,-3.00,-3.00,-6.00,-2.00,-2.00,-1.00,+5.00,+4.00
+5.00,+9.00,+6.00,-1.00,-1.00,-3.00,-1.00,-3.00,-5.00,+5.00,+2.00,+0.00,-2.00,-4.00,-1.00,-7.00
-4.00,-3.00,-3.00,+0.00,-1.00,-1.00,+1.00,-2.00,+1.00,-4.00,-4.00,+0.00,-1.00,+1.00,-4.00,+7.00
-6.00,-15.00,-18.00,-4.00,-4.00,+0.00,-1.00,+27.00,+1.00,+1.00,+3.00,+1.00,+1.00,+1.00,+1.00,-9.00
-4.00,-2.00,+5.00,-2.00,-3.00,+0.00,-1.00,-1.00,+1.00,+2.00,+0.00,-1.00,-1.00,-1.00,+1.00,+3.00
-1.00,-2.00,-1.00,-1.00,-1.00,+2.00,-4.00,+0.00,-3.00,-2.00,-1.00,-1.00,+0.00,+2.00,+3.00,-13.00
+1.00,+4.00,+5.00,+0.00,+1.00,+2.00,+3.00,-11.00,-3.00,-3.00,-5.00,-2.00,+0.00,-2.00,-8.00,-9.00
+1.00,+1.00,+5.00,+1.00,+1.00,-3.00,-4.00,-5.00,+4.00,+19.00,+10.00,+1.00,+0.00,-2.00,+3.00,+13.00
-1.00,-1.00,-2.00,+1.00,+3.00,-1.00,-2.00,-2.00,-9.00,-30.00,-22.00,-7.00,-4.00,-5.00,-3.00,+10.00
+1.00,-6.00,-2.00,+0.00,+1.00,+0.00,-1.00,+4.00,-6.00,-4.00,+0.00,-3.00,-2.00,-1.00,-3.00,-12.00
-3.00,+2.00,-4.00,-2.00,-1.00,-4.00,-2.00,-2.00,-5.00,-6.00,-1.00,-2.00,-1.00,-1.00,-6.00,-4.00
+7.00,-4.00,-5.00,-3.00,+0.00,-1.00,-3.00,-6.00,+3.00,+15.00,+2.00,-1.00,-2.00,-6.00,-1.00,-4.00
+2.00,-4.00,+1.00,+1.00,+2.00,-2.00,+3.00,+8.00,-2.00,+1.00,-1.00,+0.00,+0.00,-1.00,-2.00,-4.00
+11.00,+11.00,+5.00,+1.00,+1.00,+0.00,+6.00,+10.00,+0.00,-6.00,-3.00,+0.00,-2.00,+2.00,+3.00,+13.00
-1.00,+1.00,+0.00,+0.00,-1.00,-1.00,-2.00,-4.00,+3.00,+4.00,-1.00,+0.00,+1.00,+2.00,-2.00,-1.00
+0.00,+7.00,+3.00,+0.00,-2.00,+1.00,+0.00,-12.00,-3.00,-19.00,-7.00,-1.00,+1.00,+2.00,+2.00,+10.00
-5.00,-16.00,-17.00,-6.00,-5.00,-1.00,-5.00,-5.00,+5.00,+15.00,+7.00,+0.00,+0.00,+0.00,-1.00,+2.00
-5.00,-1.00,+1.00,-1.00,-3.00,-2.00,-3.00,-3.00,+0.00,+6.00,+1.00,-1.00,+2.00,+2.00,-1.00,-5.00
+2.00,-1.00,+3.00,+0.00,-2.00,-4.00,+0.00,-3.00,-3.00,-9.00,-1.00,-1.00,+0.00,-1.00,+11.00,-9.00
-7.00,-10.00,-6.00,-6.00,-3.00,-4.00,+0.00,-14.00,+0.00,-6.00,-6.00,-3.00,-2.00,-2.00,-5.00,+5.00
+8.00,+12.00,+8.00,+2.00,-1.00,+2.00,+5.00,+9.00,-2.00,+2.00,+3.00,+0.00,-2.00,-1.00,+3.00,-4.00
+0.00,-10.00,-8.00,-4.00,-1.00,-2.00,-5.00,+4.00,+6.00,-2.00,-1.00,+1.00,+1.00,-2.00,-2.00,+17.00
+18.00,+8.00,+6.00,+4.00,+1.00,-1.00,-1.00,+17.00,-1.00,+4.00,+0.00,-2.00,-4.00,-2.00,-5.00,+0.00
-8.00,-8.00,+2.00,-1.00,-2.00,-1.00,-2.00,+5.00,-5.00,-1.00,+0.00,+0.00,+0.00,+0.00,-2.00,-18.00
-6.00,-6.00,-13.00,-5.00,-3.00,+0.00,+2.00,+3.00,+10.00,+15.00,+4.00,+2.00,-1.00,-1.00,-9.00,+17.00
-4.00,-5.00,-3.00,-2.00,-3.00,-1.00,+0.00,-5.00,-6.00,-31.00,-14.00,-1.00,-4.00,-2.00,-3.00,-8.00
-14.00,-3.00,-4.00,-2.00,+0.00,+0.00,-1.00,-21.00,+1.00,+5.00,-1.00,+1.00,-1.00,+2.00,+9.00,+0.00
+7.00,+9.00,+8.00,+4.00,+1.00,-2.00,-2.00,+5.00,+1.00,-8.00,-5.00,-2.00,-2.00,-2.00,+1.00,+11.00
-3.00,-4.00,-4.00,-1.00,+1.00,+0.00,-6.00,-10.00,+1.00,+6.00,+2.00,+1.00,-2.00,+2.00,-2.00,-13.00
-7.00,+0.00,-1.00,-3.00,-2.00,-4.00,-2.00,+7.00,-4.00,+5.00,+3.00,-3.00,+1.00,-2.00,-1.00,-1.00
+3.00,+7.00,+3.00,+1.00,+0.00,+1.00,-5.00,+4.00,-2.00,+0.00,-1.00,-2.00,-1.00,-4.00,-14.00,-2.00
-1.00,+0.00,-5.00,+1.00,+2.00,+0.00,+2.00,-12.00,-2.00,+5.00,+1.00,+0.00,+1.00,+1.00,+8.00,+7.00
-1.00,+2.00,+4.00,-1.00,+1.00,-4.00,+0.00,-8.00,-4.00,-11.00,+1.00,-2.00,-1.00,-6.00,+1.00,-3.00
-2.00,-9.00,-2.00,-1.00,-2.00,-2.00,+2.00,-1.00,-2.00,-2.00,-7.00,-4.00,-3.00,-5.00,-14.00,-5.00
-4.00,-7.00,-4.00,-3.00,-2.00,-2.00,-5.00,-3.00,-1.00,-1.00,+1.00,-1.00,+0.00,+0.00,+9.00,+3.00
+0.00,+0.00,+1.00,-1.00,+0.00,+1.00,+3.00,+7.00,+0.00,+2.00,-1.00,-1.00,-4.00,-1.00,-5.00,-1.00
+2.00,-2.00,+0.00,+1.00,-3.00,-2.00,-1.00,+3.00,-4.00,+5.00,+2.00,+0.00,+0.00,+0.00,+1.00,-5.00
+4.00,+10.00,+5.00,+0.00,-2.00,+0.00,+1.00,+1.00,-2.00,-6.00,-2.00,-2.00,+0.00,+2.00,+3.00,-3.00
-5.00,+4.00,+1.00,+3.00,+1.00,+4.00,+3.00,-16.00,+0.00,+3.00,+0.00,-1.00,-2.00,+0.00,-5.00,-5.00
+2.00,-1.00,-3.00,+2.00,+1.00,+2.00,-1.00,+21.00,+0.00,-5.00,+1.00,+1.00,+0.00,+0.00,-2.00,-1.00
-3.00,+2.00,+0.00,-2.00,-3.00,-3.00,-2.00,+0.00,-2.00,-4.00,-2.00,+1.00,-1.00,-1.00,-3.00,+1.00
-2.00,-4.00,-3.00,-1.00,+1.00,+0.00,-3.00,-7.00,+0.00,+4.00,+1.00,-1.00,-2.00,-3.00,-7.00,-2.00
-1.00,+0.00,-2.00,-3.00,+0.00,+0.00,-1.00,-2.00,+1.00,+15.00,+1.00,+1.00,+1.00,+0.00,+11.00,-2.00
+0.00,-5.00,-3.00,+0.00,+0.00,-1.00,-3.00,-5.00,-5.00,-21.00,-6.00,-2.00,+0.00,+0.00,-6.00,+4.00
+3.00,+10.00,+4.00,-3.00,-2.00,+1.00,+3.00,+0.00,-4.00,-12.00,-8.00,-3.00,-1.00,-2.00,+1.00,+3.00
+1.00,-1.00,-2.00,-2.00,-1.00,+0.00,-1.00,+3.00,-5.00,+1.00,+1.00,-1.00,-1.00,-3.00,-8.00,-7.00
+1.00,-6.00,-2.00,+1.00,-1.00,-2.00,-1.00,-1.00,-1.00,+3.00,-1.00,-1.00,-1.00,+1.00,+2.00,+1.00
-3.00,-9.00,+1.00,+0.00,-3.00,-1.00,-3.00,-3.00,+2.00,+14.00,+7.00,+0.00,-1.00,+0.00,-3.00,-10.00
+2.00,+5.00,-1.00,-2.00,-2.00,-3.00,-7.00,+0.00,-2.00,-19.00,-9.00,-3.00,-1.00,+2.00,+3.00,+0.00
-7.00,-3.00,-3.00,-2.00,+0.00,-2.00,+3.00,-2.00,+3.00,+7.00,+3.00,+0.00,-1.00,-3.00,-3.00,+5.00
+3.00,-2.00,-2.00,-3.00,-1.00,-4.00,+1.00,+3.00,-1.00,-5.00,-2.00,-4.00,+1.00,-3.00,+4.00,+5.00
-2.00,-6.00,-1.00,-1.00,+0.00,-3.00,-2.00,+2.00,-8.00,-5.00,-1.00,+1.00,-1.00,+0.00,-3.00,-10.00
-7.00,-12.00,-6.00,-1.00,-2.00,-3.00,-3.00,-24.00,-2.00,-2.00,-2.00,-2.00,+1.00,-2.00,-4.00,-6.00
+15.00,+13.00,+11.00,+2.00,+1.00,+1.00,-2.00,+1.00,+0.00,+8.00,+3.00,+2.00,-2.00,+0.00,+11.00,-3.00
-3.00,-11.00,-5.00,+0.00,+0.00,+0.00,+4.00,+8.00,+0.00,-7.00,-1.00,+1.00,+0.00,-1.00,+1.00,+0.00
-2.00,+7.00,+3.00,-2.00,-2.00,-1.00,-3.00,+7.00,+3.00,+1.00,-1.00,-2.00,+1.00,+0.00,+2.00,+3.00
+0.00,+3.00,+2.00,+1.00,-1.00,+1.00,+1.00,+1.00,+1.00,+8.00,-1.00,-2.00,-3.00,-2.00,-7.00,-4.00
-7.00,-9.00,-6.00,-2.00,-1.00,+2.00,-3.00,-2.00,+0.00,-5.00,+4.00,+1.00,+0.00,-1.00,-2.00,+1.00
+1.00,+1.00,+2.00,+0.00,-2.00,+0.00,-4.00,+8.00,-1.00,-7.00,-5.00,-3.00,-2.00,-1.00,-2.00,-1.00
+3.00,-1.00,-3.00,-1.00,-1.00,+3.00,+1.00,-8.00,+4.00,+15.00,+5.00,-2.00,-2.00,-3.00,-4.00,+0.00
-5.00,+1.00,+1.00,+2.00,+1.00,+0.00,-4.00,-6.00,-2.00,-5.00,+2.00,-1.00,-1.00,+0.00,-1.00,+0.00
-5.00,-17.00,-15.00,-3.00,-1.00,+0.00,+3.00,+3.00,-6.00,-5.00,-6.00,-2.00,+0.00,+1.00,+4.00,-3.00
+0.00,+18.00,+10.00,-2.00,-1.00,-3.00,-5.00,+3.00,-1.00,+3.00,+3.00,+0.00,-3.00,+0.00,-5.00,-3.00
-4.00,-5.00,-1.00,-1.00,-2.00,-2.00,-1.00,-11.00,-6.00,-6.00,-7.00,-3.00,-1.00,-3.00,+1.00,+4.00
-2.00,-6.00,-3.00,-2.00,+0.00,+2.00,+2.00,+1.00,+4.00,+7.00,+4.00,+1.00,+0.00,-2.00,-8.00,-1.00
+9.00,+5.00,+4.00,+1.00,+0.00,+0.00,+1.00,+6.00,-6.00,-1.00,-3.00,-3.00,-2.00,-1.00,+11.00,-9.00
-1.00,-5.00,-5.00,-2.00,-1.00,-1.00,-2.00,-7.00,+6.00,+4.00,+2.00,+1.00,-2.00,-4.00,-9.00,+19.00
-2.00,+2.00,+1.00,-1.00,+0.00,-2.00,-2.00,-7.00,+0.00,-15.00,-5.00,-4.00,-3.00,-3.00,-3.00,-2.00
-3.00,+4.00,+6.00,-1.00,+1.00,-3.00,+1.00,+0.00,-1.00,+9.00,+3.00,+0.00,+2.00,+1.00,+6.00,+1.00
-5.00,-12.00,-5.00,-2.00,-3.00,-5.00,-5.00,-8.00,-3.00,-3.00,-5.00,-3.00,+1.00,-2.00,-4.00,-12.00
-3.00,+7.00,+4.00,+2.00,+0.00,-2.00,-3.00,+0.00,-3.00,-9.00,-4.00,-2.00,+1.00,-2.00,-1.00,+0.00
-1.00,-5.00,-5.00,-2.00,-2.00,+1.00,+1.00,-8.00,+2.00,+9.00,+5.00,+2.00,+0.00,+0.00,-5.00,-5.00
+3.00,+19.00,+14.00,+4.00,+1.00,+4.00,+12.00,+21.00,+1.00,-1.00,-2.00,-2.00,+0.00,+0.00,+4.00,+3.00
-1.00,-1.00,-1.00,-2.00,+0.00,+3.00,+2.00,+1.00,-1.00,-5.00,+3.00,+0.00,-1.00,-2.00,-7.00,+0.00
