+3.00,-3.00,-1.00,-1.00,+0.00,-1.00,+3.00,-5.00,-3.00,-1.00,+0.00,+0.00,-2.00,-3.00,-2.00,-2.00
-1.00,-1.00,-2.00,+0.00,-2.00,+0.00,+4.00,-4.00,-2.00,+0.00,-2.00,+0.00,-2.00,+0.00,+0.00,+1.00
-6.00,-2.00,+0.00,+0.00,+0.00,+0.00,-1.00,-1.00,-4.00,-1.00,+0.00,+0.00,+0.00,-1.00,-1.00,-2.00
+1.00,+0.00,+0.00,-1.00,-1.00,+2.00,+1.00,+5.00,+0.00,-1.00,-1.00,-1.00,-1.00,-2.00,-1.00,-3.00
-3.00,+1.00,-2.00,+1.00,+1.00,-1.00,-1.00,+0.00,+0.00,-2.00,-1.00,+0.00,-1.00,+0.00,+0.00,-1.00
-2.00,-2.00,-1.00,-1.00,-1.00,-2.00,+0.00,-1.00,-2.00,-3.00,-1.00,-2.00,+0.00,-2.00,-1.00,+0.00
-2.00,+0.00,+0.00,-1.00,-1.00,+0.00,-3.00,+0.00,-3.00,+0.00,-2.00,-4.00,-1.00,-1.00,-1.00,-2.00
+3.00,+0.00,+1.00,-1.00,-3.00,+1.00,-1.00,+1.00,+7.00,+2.00,-2.00,+0.00,-2.00,-1.00,+3.00,+4.00
+1.00,-1.00,-1.00,+1.00,+0.00,+0.00,-2.00,-5.00,+0.00,+0.00,-1.00,+0.00,+0.00,-2.00,+0.00,+0.00
+0.00,-1.00,-3.00,-3.00,-1.00,+2.00,-2.00,+3.00,-3.00,-2.00,+1.00,+1.00,+1.00,-3.00,-4.00,-3.00
+1.00,-1.00,-2.00,-1.00,-3.00,-2.00,-3.00,+0.00,+2.00,+0.00,+0.00,+4.00,+5.00,-5.00,-1.00,+5.00
+2.00,+3.00,-1.00,-2.00,+0.00,+0.00,-3.00,+5.00,-4.00,+1.00,+2.00,+4.00,+4.00,+15.00,+8.00,-4.00
+2.00,-2.00,-2.00,+1.00,+0.00,-3.00,+0.00,-3.00,+5.00,-4.00,-7.00,-21.00,-13.00,-8.00,-5.00,-6.00
-1.00,+1.00,+1.00,+2.00,+1.00,-1.00,-1.00,-2.00,+5.00,-2.00,+0.00,+2.00,+1.00,+1.00,+3.00,-1.00
-2.00,+0.00,-2.00,+1.00,-1.00,-2.00,-1.00,-5.00,-4.00,-3.00,+0.00,+2.00,+5.00,+2.00,-2.00,-1.00
-4.00,-2.00,+0.00,-1.00,+1.00,-2.00,-2.00,+0.00,+0.00,+3.00,+3.00,+2.00,-4.00,-1.00,-1.00,+5.00
-7.00,-3.00,+0.00,-2.00,-3.00,-1.00,-1.00,+23.00,-3.00,-5.00,+3.00,+4.00,+1.00,-3.00,-1.00,+0.00
-1.00,-2.00,-2.00,-2.00,+0.00,+0.00,+1.00,-1.00,+26.00,+17.00,+3.00,+2.00,+4.00,+5.00,+4.00,+5.00
+2.00,-2.00,+2.00,-1.00,+0.00,-2.00,+1.00,+1.00,-25.00,-12.00,-11.00,-20.00,-13.00,-6.00,-6.00,-19.00
-2.00,-1.00,-3.00,+0.00,+0.00,-3.00,+2.00,+1.00,+3.00,-4.00,-4.00,+0.00,+2.00,-4.00,-3.00,+3.00
+2.00,+0.00,+0.00,-1.00,+2.00,-1.00,-2.00,-8.00,-7.00,-7.00,-5.00,+2.00,+0.00,-1.00,+0.00,-3.00
+1.00,+3.00,+0.00,-2.00,-1.00,-2.00,+1.00,+2.00,-5.00,-5.00,-1.00,+0.00,-3.00,-5.00,-3.00,+2.00
-3.00,+1.00,-3.00,-1.00,-2.00,+0.00,+2.00,+3.00,+1.00,+2.00,+3.00,+9.00,+4.00,+11.00,+3.00,-2.00
-1.00,-1.00,+1.00,-1.00,-3.00,+1.00,+2.00,-4.00,-19.00,-12.00,-1.00,+2.00,+2.00,-10.00,-4.00,-10.00
+3.00,+2.00,+0.00,+1.00,-3.00,-1.00,-1.00,-5.00,+7.00,+5.00,-7.00,-9.00,-6.00,-5.00,-12.00,-4.00
+1.00,+0.00,-2.00,+0.00,-3.00,+1.00,-1.00,-2.00,-2.00,+1.00,+0.00,-6.00,-2.00,-1.00,+1.00,-1.00
-3.00,-1.00,+0.00,+0.00,-1.00,-2.00,+0.00,-4.00,+2.00,+5.00,+1.00,+0.00,-1.00,+5.00,-2.00,+7.00
-8.00,-3.00,+2.00,+1.00,+2.00,-2.00,+1.00,-3.00,-15.00,-11.00,-3.00,-7.00,-4.00,-2.00,-9.00,-10.00
-6.00,+1.00,-1.00,-2.00,+1.00,+0.00,-2.00,-3.00,+2.00,+1.00,+4.00,+8.00,+7.00,+5.00,+7.00,+3.00
+1.00,+1.00,-1.00,-1.00,-1.00,+1.00,+1.00,+8.00,-10.00,-10.00,-6.00,-1.00,-2.00,-1.00,-7.00,-3.00
-3.00,-3.00,-3.00,-3.00,-4.00,+2.00,+3.00,+2.00,-7.00,-8.00,-1.00,+0.00,+0.00,-4.00,+10.00,+3.00
-5.00,-8.00,-3.00,+1.00,+2.00,-6.00,-12.00,-2.00,+9.00,+1.00,-1.00,+1.00,+1.00,-1.00,-3.00,+4.00
+4.00,+6.00,+0.00,-3.00,-10.00,-2.00,+3.00,+0.00,+9.00,+3.00,-1.00,+3.00,+3.00,-2.00,+2.00,-1.00
-7.00,-10.00,-2.00,+1.00,+4.00,-4.00,-10.00,-5.00,-21.00,-6.00,+0.00,-2.00,-6.00,-1.00,-3.00,-2.00
+16.00,+8.00,+1.00,+3.00,+3.00,+2.00,+0.00,-5.00,+8.00,+10.00,+2.00,+2.00,+10.00,+0.00,-3.00,-3.00
-7.00,-9.00,-4.00,-5.00,-4.00,+1.00,+6.00,-1.00,+13.00,+6.00,+3.00,+0.00,-7.00,-5.00,+4.00,+10.00
+5.00,+3.00,-2.00,-1.00,-2.00,-3.00,-6.00,-8.00,-17.00,-6.00,+0.00,-5.00,-4.00,-2.00,-3.00,-7.00
+14.00,+19.00,+4.00,+2.00,+6.00,+4.00,+8.00,+6.00,+0.00,-7.00,-8.00,-11.00,-3.00,-2.00,+0.00,-3.00
-12.00,-17.00,+0.00,+2.00,+0.00,-3.00,-10.00,-4.00,-6.00,-4.00,-3.00,+1.00,-6.00,-7.00,-6.00,-6.00
-6.00,+2.00,+1.00,+1.00,+5.00,+1.00,-8.00,-7.00,+31.00,+11.00,+0.00,+2.00,+3.00,+3.00,+2.00,+9.00
+18.00,-5.00,+0.00,+1.00,+0.00,-1.00,+6.00,+12.00,-17.00,-10.00,+1.00,+4.00,+5.00,+2.00,+0.00,-1.00
-2.00,+4.00,-2.00,-1.00,-6.00,-2.00,+2.00,-10.00,+1.00,-2.00,+0.00,+0.00,+0.00,-2.00,+0.00,-5.00
+1.00,+7.00,-1.00,-1.00,+0.00,+1.00,+5.00,+3.00,-13.00,-8.00,+0.00,+2.00,+3.00,-3.00,+0.00,-1.00
+3.00,+5.00,-2.00,-2.00,-3.00,-2.00,+0.00,+4.00,+1.00,+2.00,-2.00,-7.00,-4.00,-3.00,-11.00,-3.00
-14.00,-9.00,-5.00,-2.00,-3.00,-2.00,+1.00,-7.00,-4.00,+4.00,+3.00,+1.00,-4.00,+0.00,-2.00,+3.00
-4.00,-4.00,+0.00,-2.00,+0.00,-1.00,+0.00,-3.00,+1.00,-1.00,-1.00,+0.00,+0.00,+2.00,+5.00,-1.00
-10.00,-4.00,-5.00,-2.00,-3.00,-4.00,-9.00,+2.00,-2.00,-7.00,-6.00,-5.00,-4.00,-1.00,-5.00,-4.00
+5.00,-7.00,+3.00,+1.00,+1.00,+2.00,+4.00,+2.00,+2.00,+5.00,+0.00,-3.00,-3.00,-1.00,+2.00,+2.00
+3.00,+14.00,+1.00,-2.00,+2.00,+2.00,+0.00,+0.00,-8.00,-5.00,-3.00,-1.00,-1.00,-6.00,-1.00,-1.00
-7.00,-8.00,+5.00,+4.00,+1.00,+2.00,+4.00,+4.00,-5.00,-6.00,-3.00,+2.00,+2.00,-9.00,-14.00,-8.00
+8.00,+10.00,-2.00,-1.00,-2.00,-1.00,-1.00,-1.00,+19.00,+13.00,+8.00,+6.00,+3.00,+6.00,+11.00,+11.00
+6.00,+14.00,+0.00,+0.00,-1.00,+1.00,+2.00,-6.00,-21.00,-12.00,-6.00,-8.00,-10.00,-3.00,-12.00,-12.00
+3.00,+7.00,-1.00,+0.00,-1.00,-4.00,-9.00,+3.00,-19.00,-3.00,-4.00,-2.00,+1.00,+2.00,+6.00,-6.00
-14.00,-17.00,-5.00,-3.00,-4.00,+0.00,+0.00,-17.00,+27.00,+12.00,+11.00,+12.00,+5.00,+5.00,+5.00,+24.00
-17.00,-14.00,-5.00,-3.00,+3.00,+0.00,-1.00,+7.00,-14.00,-9.00,-7.00,-16.00,-12.00,+2.00,-2.00,-3.00
+10.00,-9.00,-4.00,+1.00,-1.00,+1.00,+6.00,+5.00,+2.00,+1.00,+3.00,+5.00,+7.00,-8.00,+0.00,-3.00
-2.00,+7.00,+2.00,-2.00,-1.00,-5.00,-9.00,-1.00,+17.00,+7.00,-2.00,-6.00,-10.00,-4.00,-3.00,-8.00
-4.00,+3.00,-1.00,-2.00,+1.00,+5.00,+0.00,+0.00,-22.00,-6.00,-6.00,-9.00,+1.00,-3.00,+6.00,-13.00
+7.00,-1.00,+2.00,+3.00,-4.00,-5.00,-7.00,-3.00,+20.00,+4.00,+0.00,-2.00,-10.00,-3.00,-8.00,+12.00
-16.00,-15.00,-9.00,-4.00,-11.00,-4.00,-2.00,-9.00,+1.00,+2.00,-1.00,+0.00,+3.00,-2.00,+5.00,+5.00
-15.00,-17.00,-5.00,-4.00,+1.00,-5.00,-13.00,-7.00,-9.00,-4.00,-1.00,+0.00,+2.00,+3.00,-1.00,-7.00
-12.00,-5.00,-5.00,-5.00,-4.00,-5.00,+3.00,-3.00,-3.00,-3.00,-1.00,+3.00,-1.00,-4.00,-14.00,-18.00
+10.00,+19.00,+8.00,+4.00,+3.00,+2.00,+5.00,+2.00,-14.00,-5.00,-1.00,-1.00,+3.00,+3.00,+2.00,-7.00
+2.00,-1.00,-1.00,-1.00,-2.00,-2.00,-4.00,-1.00,+12.00,+1.00,-1.00,-3.00,-1.00,-2.00,+8.00,+17.00
+12.00,+20.00,+6.00,+2.00,-1.00,+8.00,+13.00,-3.00,+3.00,-4.00,-2.00,+3.00,+4.00,+0.00,+3.00,+1.00
+0.00,-5.00,-5.00,-5.00,-6.00,-18.00,-24.00,-1.00,-32.00,-14.00,-8.00,-1.00,-2.00,-4.00,-12.00,-20.00
+11.00,+4.00,+3.00,+0.00,+2.00,+3.00,+9.00,+4.00,+10.00,-2.00,-1.00,-10.00,-8.00,-4.00,-4.00,+7.00
-3.00,+3.00,+1.00,+0.00,+0.00,-5.00,+3.00,+0.00,+3.00,+8.00,+1.00,+2.00,-1.00,+2.00,+4.00,-10.00
-11.00,-9.00,-3.00,+0.00,+1.00,+2.00,+4.00,-8.00,-15.00,-13.00,+0.00,+1.00,-1.00,+2.00,-3.00,+0.00
+1.00,-6.00,-7.00,-5.00,+0.00,+2.00,+3.00,+0.00,+5.00,+8.00,+6.00,+5.00,+5.00,+4.00,+10.00,+7.00
-8.00,-1.00,-2.00,-3.00,+0.00,-6.00,-22.00,-6.00,-16.00,-9.00,-2.00,+8.00,+10.00,-1.00,-1.00,-15.00
+7.00,+8.00,+2.00,+1.00,-2.00,-4.00,-3.00,+3.00,+15.00,+10.00,-1.00,-16.00,-17.00,+0.00,-1.00,+8.00
+15.00,+10.00,+3.00,+4.00,+7.00,+1.00,+6.00,+12.00,+4.00,+1.00,-4.00,-3.00,+10.00,+3.00,+1.00,-2.00
+0.00,+7.00,+1.00,+1.00,+4.00,+3.00,+0.00,+6.00,+18.00,+5.00,-3.00,-5.00,-18.00,-12.00,+2.00,+1.00
-13.00,-21.00,-10.00,-6.00,-4.00,-4.00,-8.00,-21.00,-19.00,-17.00,-7.00,+1.00,+6.00,+6.00,-3.00,+3.00
-10.00,+5.00,+10.00,+4.00,+5.00,+13.00,+9.00,+0.00,-11.00,-5.00,-1.00,+6.00,+0.00,+1.00,-8.00,-4.00
-8.00,-5.00,-4.00,-1.00,-2.00,-2.00,-6.00,-6.00,-4.00,+1.00,-1.00,-9.00,-4.00,+7.00,+7.00,+1.00
+20.00,+21.00,+7.00,+5.00,-1.00,+1.00,-9.00,+10.00,-1.00,-3.00,+1.00,+3.00,-5.00,-14.00,+5.00,+9.00
-11.00,-24.00,-7.00,-3.00,+0.00,+3.00,+3.00,-7.00,+12.00,+6.00,+0.00,+0.00,-4.00,-4.00,+2.00,+1.00
-4.00,+12.00,+0.00,-1.00,-2.00,+2.00,+3.00,+8.00,-15.00,-9.00,-5.00,-1.00,+8.00,+2.00,+0.00,-9.00
-6.00,-8.00,-3.00,-3.00,-2.00,+4.00,+4.00,+5.00,+18.00,+9.00,+2.00,+6.00,+7.00,-4.00,-14.00,+9.00
-13.00,-18.00,-7.00,-2.00,-1.00,-1.00,+2.00,-13.00,+6.00,+6.00,+0.00,-3.00,-2.00,+7.00,+5.00,-4.00
+16.00,-1.00,-1.00,-1.00,-4.00,-1.00,+3.00,+8.00,+3.00,+5.00,+6.00,+5.00,+0.00,-5.00,+7.00,+16.00
-4.00,-1.00,-3.00,-3.00,-2.00,-2.00,+4.00,-8.00,-14.00,-5.00,-6.00,-16.00,-9.00,-5.00,-12.00,-16.00
+6.00,-7.00,-1.00,-2.00,-3.00,-6.00,-10.00,+10.00,-5.00,-6.00,-2.00,+3.00,+0.00,+0.00,+0.00,-3.00
-2.00,+7.00,+4.00,+2.00,+2.00,+0.00,-4.00,-3.00,-3.00,-5.00,-4.00,+0.00,+10.00,+7.00,-2.00,-2.00
-6.00,-3.00,+3.00,+3.00,-2.00,+0.00,+2.00,+4.00,+14.00,+13.00,+0.00,-6.00,-10.00,-9.00,-7.00,-1.00
+26.00,+29.00,+4.00,+0.00,+0.00,+1.00,+9.00,+14.00,-30.00,-26.00,-4.00,+7.00,+4.00,+5.00,-3.00,-14.00
-26.00,-15.00,-6.00,-5.00,-1.00,+1.00,+1.00,-18.00,-13.00,-3.00,-1.00,+5.00,-5.00,-13.00,-3.00,-4.00
+9.00,-25.00,-5.00,-4.00,-3.00,-13.00,-12.00,+0.00,+14.00,-2.00,-6.00,-13.00,-8.00,+2.00,-4.00,+25.00
+4.00,+27.00,+5.00,+2.00,+1.00,+0.00,+8.00,+0.00,-29.00,+4.00,-2.00,-14.00,-19.00,-1.00,-7.00,-34.00
+3.00,+1.00,+1.00,+0.00,+1.00,-1.00,-6.00,-3.00,+19.00,+8.00,+1.00,-5.00,+0.00,+0.00,+21.00,+22.00
+16.00,+10.00,-2.00,+2.00,+2.00,+8.00,+18.00,+1.00,+9.00,+5.00,+0.00,+0.00,+0.00,-1.00,-11.00,-10.00
-21.00,-16.00,-3.00,-2.00,-3.00,+4.00,+6.00,+21.00,-14.00,-10.00,-2.00,+2.00,+7.00,+0.00,-5.00,-4.00
-12.00,-10.00,-11.00,-8.00,-6.00,-10.00,-10.00,-7.00,+21.00,+2.00,+3.00,+23.00,+22.00,+2.00,+6.00,+2.00
-24.00,-40.00,-9.00,-4.00,+2.00,-4.00,-11.00,-10.00,+1.00,+3.00,-4.00,-15.00,-9.00,+0.00,+3.00,+5.00
+12.00,+40.00,+14.00,+6.00,+4.00,+7.00,+0.00,+7.00,-18.00,-6.00,+0.00,+7.00,+0.00,-1.00,+3.00,-1.00
+5.00,+12.00,+2.00,+0.00,+2.00,+0.00,-3.00,+1.00,+38.00,+9.00,+0.00,-16.00,-13.00,+0.00,-8.00,+12.00
+18.00,+20.00,+4.00,+0.00,+0.00,+3.00,+9.00,+11.00,-34.00,-17.00,-8.00,-6.00,-4.00,-10.00,-30.00,-21.00
-21.00,-23.00,-10.00,-5.00,-1.00,-7.00,-21.00,-9.00,-7.00,+2.00,+6.00,+18.00,+14.00,+0.00,+13.00,-2.00
-8.00,-20.00,+0.00,-1.00,-4.00,-1.00,+1.00,-13.00,+13.00,-3.00,-7.00,-17.00,-13.00,+2.00,-4.00,-8.00
+4.00,-4.00,-1.00,+1.00,-1.00,-6.00,+3.00,-8.00,-1.00,+3.00,+0.00,+8.00,+4.00,-4.00,-2.00,-11.00
-1.00,+2.00,-1.00,-2.00,-4.00,-2.00,+0.00,+2.00,+1.00,-4.00,-4.00,-15.00,-18.00,-3.00,-2.00,+3.00
-12.00,-12.00,-9.00,-5.00,+1.00,-1.00,+10.00,-12.00,-21.00,-13.00,-2.00,+11.00,+12.00,+0.00,-11.00,-14.00
+14.00,+21.00,+5.00,+3.00,+0.00,+0.00,+6.00,+19.00,+6.00,+9.00,+3.00,+0.00,-2.00,+1.00,-4.00,+7.00
+3.00,-12.00,-1.00,+1.00,-2.00,+4.00,+2.00,+7.00,+1.00,+6.00,+3.00,+3.00,-4.00,+2.00,+9.00,+11.00
+15.00,+32.00,+4.00,+0.00,+0.00,+2.00,+2.00,+1.00,-4.00,-4.00,-4.00,-8.00,-2.00,+3.00,+1.00,+0.00
+26.00,+11.00,+4.00,-2.00,-6.00,+2.00,+4.00,+16.00,+6.00,+5.00,+6.00,+24.00,+17.00,+2.00,-5.00,-1.00
-25.00,-26.00,-13.00,-10.00,-10.00,-14.00,-20.00,-18.00,-2.00,-5.00,-4.00,-12.00,+3.00,+4.00,+8.00,-6.00
+13.00,+27.00,+13.00,+8.00,+7.00,+12.00,+24.00,+9.00,-25.00,-11.00,-6.00,-21.00,-32.00,-5.00,-2.00,-15.00
-19.00,-36.00,-11.00,-4.00,+0.00,-3.00,-18.00,-1.00,+16.00,+4.00,+1.00,-6.00,-6.00,-14.00,+3.00,+8.00
+14.00,+47.00,+10.00,+4.00,+1.00,-4.00,-5.00,-4.00,-2.00,+0.00,+2.00,+12.00,+22.00,-1.00,-4.00,-4.00
+37.00,+8.00,+0.00,+5.00,+4.00,+1.00,-4.00,-3.00,+21.00,+3.00,-6.00,-15.00,-25.00,-5.00,-3.00,+5.00
+2.00,+3.00,-6.00,-7.00,+2.00,-1.00,-8.00,-11.00,-21.00,+1.00,+0.00,+6.00,+16.00,+9.00,-4.00,-2.00
-23.00,-30.00,-4.00,-1.00,+0.00,+5.00,+6.00,-9.00,-6.00,-6.00,-5.00,+6.00,+4.00,-3.00,+6.00,-8.00
-8.00,-4.00,+4.00,+1.00,+2.00,+3.00,+8.00,+2.00,+5.00,-2.00,-3.00,-9.00,-12.00,+3.00,-1.00,+3.00
-15.00,-20.00,-6.00,-6.00,-12.00,-11.00,-9.00,-2.00,-11.00,-2.00,+1.00,+8.00,+6.00,-4.00,-2.00,+0.00
-20.00,-17.00,-5.00,-2.00,-2.00,-7.00,-17.00,-21.00,+4.00,+0.00,+2.00,+5.00,+4.00,-1.00,+3.00,-2.00
+15.00,+14.00,+4.00,+3.00,-2.00,+2.00,+11.00,+7.00,+35.00,+10.00,+3.00,+19.00,+29.00,+13.00,+4.00,+24.00
-20.00,-16.00,-4.00,-1.00,-1.00,-4.00,-9.00,-10.00,-3.00,+6.00,+7.00,-1.00,-19.00,-9.00,-3.00,-12.00
+6.00,+4.00,+5.00,+0.00,+2.00,+11.00,+14.00,+12.00,+14.00,+9.00,+2.00,-3.00,-1.00,-1.00,-2.00,+22.00
+0.00,-15.00,-3.00,-2.00,-8.00,-6.00,-6.00,+5.00,-15.00,-9.00,-8.00,-23.00,-28.00,-1.00,-7.00,-16.00
-5.00,-12.00,-1.00,+1.00,-2.00,-14.00,-11.00,-12.00,+30.00,+5.00,+2.00,+3.00,+16.00,+0.00,+16.00,+25.00
+23.00,+18.00,-1.00,-1.00,-2.00,+7.00,+4.00,+11.00,+0.00,-4.00,+3.00,+15.00,+19.00,-2.00,+15.00,+3.00
-19.00,-22.00,-7.00,-4.00,+4.00,-1.00,-5.00,-12.00,+12.00,+4.00,-4.00,-12.00,-31.00,+1.00,-5.00,+7.00
+9.00,+21.00,-1.00,-2.00,-8.00,+0.00,-2.00,-2.00,-25.00,+1.00,-6.00,-14.00,-22.00,-17.00,-20.00,-22.00
-2.00,+17.00,+0.00,-3.00,-6.00,-1.00,+1.00,-4.00,-8.00,-1.00,+0.00,+0.00,+6.00,+0.00,-16.00,-14.00
-12.00,-5.00,-7.00,-3.00,+2.00,-6.00,-8.00,-4.00,-12.00,-15.00,-8.00,-12.00,-12.00,-2.00,+5.00,+3.00
-12.00,-1.00,-2.00,-3.00,-6.00,-2.00,+1.00,-4.00,+28.00,+15.00,+18.00,+28.00,+28.00,+1.00,+6.00,+22.00
+16.00,+11.00,+0.00,-4.00,-4.00,-6.00,-12.00,+8.00,+6.00,-7.00,-4.00,+7.00,+6.00,-8.00,+9.00,+9.00
-8.00,-6.00,+0.00,+1.00,-6.00,-8.00,+3.00,-5.00,-17.00,+1.00,-2.00,-6.00,-14.00,+4.00,-8.00,-15.00
+0.00,-13.00,-2.00,+1.00,+13.00,+5.00,+4.00,-1.00,+4.00,+5.00,+1.00,-3.00,-1.00,+8.00,+2.00,+1.00
-11.00,-5.00,-4.00,+0.00,+10.00,+17.00,+8.00,-23.00,-8.00,-11.00,-3.00,+1.00,+3.00,+2.00,-4.00,-15.00
+12.00,+5.00,+6.00,+4.00,+0.00,-8.00,-7.00,-3.00,-22.00,-10.00,+0.00,+10.00,+8.00,+1.00,-2.00,-10.00
-23.00,-18.00,-7.00,-2.00,+2.00,+4.00,+2.00,+0.00,+14.00,+1.00,+4.00,+8.00,+10.00,-1.00,+11.00,+10.00
+29.00,+14.00,+4.00,+1.00,-8.00,-13.00,-2.00,+7.00,+16.00,+5.00,-5.00,-13.00,-17.00,+6.00,-13.00,+6.00
+0.00,+17.00,+5.00,+3.00,+5.00,+7.00,+6.00,+2.00,-3.00,+0.00,-4.00,-1.00,+9.00,-6.00,+6.00,-7.00
+2.00,+7.00,-4.00,-5.00,-7.00,+6.00,+12.00,+2.00,-16.00,-4.00,-5.00,-8.00,-7.00,-3.00,-1.00,-10.00
-7.00,-20.00,-4.00,-2.00,+2.00,+6.00,+5.00,+4.00,+4.00,-7.00,+0.00,-6.00,-10.00,-3.00,-10.00,-5.00
-20.00,-20.00,-6.00,-3.00,-5.00,-8.00,-18.00,-24.00,-4.00,-1.00,-5.00,+6.00,+9.00,-3.00,-2.00,-6.00
-36.00,-23.00,-3.00,-6.00,-15.00,-5.00,+16.00,+2.00,-10.00,-4.00,-1.00,-9.00,-4.00,+2.00,+1.00,-2.00
+11.00,+2.00,-1.00,+3.00,+4.00,+4.00,+0.00,+12.00,+11.00,+3.00,+4.00,+7.00,+22.00,+7.00,+3.00,+1.00
+1.00,-1.00,-4.00,-4.00,+4.00,-15.00,-27.00,-4.00,-36.00,-7.00,+0.00,-2.00,-19.00,-2.00,-3.00,-11.00
-4.00,-19.00,-6.00,+2.00,+1.00,+2.00,+6.00,-1.00,+37.00,+8.00,-2.00,-13.00,-12.00,-7.00,+1.00,+25.00
-17.00,-6.00,-1.00,-2.00,-6.00,-4.00,-18.00,-11.00,+0.00,+4.00,+2.00,+2.00,+0.00,-3.00,-8.00,-3.00
+12.00,+28.00,+2.00,-2.00,-9.00,-8.00,+7.00,-2.00,+29.00,+9.00,+6.00,+6.00,+10.00,+1.00,+4.00,+21.00
-19.00,-9.00,-7.00,-2.00,+11.00,-8.00,-26.00,-15.00,+2.00,+8.00,-2.00,-7.00,-6.00,-2.00,+9.00,+5.00
+13.00,-22.00,-1.00,-3.00,-4.00,-13.00,-22.00,-1.00,-17.00,-11.00,+1.00,+2.00,+6.00,+1.00,-9.00,-10.00
-2.00,-8.00,+0.00,+5.00,+14.00,+35.00,+64.00,+20.00,-4.00,-10.00,-8.00,-5.00,+0.00,+6.00,+8.00,-11.00
+36.00,+56.00,+9.00,+3.00,+9.00,+14.00,+18.00,+16.00,+6.00,+1.00,+3.00,+6.00,-3.00,-9.00,-2.00,+25.00
-2.00,-1.00,+4.00,+1.00,-7.00,-7.00,-16.00,-22.00,+3.00,+8.00,+0.00,+3.00,+3.00,+3.00,-4.00,-12.00
-9.00,+6.00,+2.00,+2.00,+4.00,-1.00,-12.00,-5.00,-29.00,-1.00,-3.00,-8.00,-14.00,-5.00,-8.00,-25.00
+2.00,+0.00,+1.00,+1.00,-8.00,-18.00,-21.00,+1.00,-3.00,-10.00,-4.00,+3.00,+7.00,-2.00,-9.00,-2.00
+0.00,-18.00,-4.00,-1.00,+1.00,-5.00,+2.00,+10.00,-5.00,-3.00,-2.00,+1.00,+1.00,-4.00,-5.00,-7.00
+3.00,+0.00,+2.00,+1.00,+1.00,+12.00,+17.00,-3.00,+6.00,+2.00,+0.00,+7.00,+10.00,+6.00,+14.00,-1.00
+9.00,+18.00,-1.00,-3.00,-4.00,+7.00,+15.00,+8.00,+0.00,-1.00,-4.00,-10.00,-10.00,-5.00,-12.00,-11.00
+0.00,-10.00,+4.00,+2.00,-3.00,-17.00,-23.00,-6.00,+10.00,-1.00,+2.00,-2.00,-9.00,-11.00,-4.00,+9.00
-48.00,-28.00,-9.00,-4.00,+5.00,-1.00,+5.00,-30.00,-22.00,-9.00,-2.00,+3.00,+12.00,+9.00,+4.00,-8.00
+23.00,+0.00,+5.00,+4.00,+3.00,+7.00,+0.00,+22.00,+7.00,-1.00,-4.00,-3.00,-14.00,-13.00,-12.00,-3.00
+13.00,+13.00,-4.00,-4.00,-2.00,-6.00,-3.00,+2.00,-12.00,-4.00,+4.00,+9.00,+10.00,+5.00,+10.00,+3.00
+38.00,+25.00,+8.00,+5.00,+5.00,+1.00,-8.00,+25.00,-12.00,+0.00,-1.00,+2.00,+0.00,+4.00,+4.00,-7.00
-6.00,-15.00,-1.00,-1.00,-1.00,-4.00,-10.00,+3.00,+21.00,+4.00,-5.00,-16.00,-11.00,-2.00,-12.00,+3.00
+7.00,+10.00,+1.00,-2.00,-5.00,+2.00,+9.00,-1.00,-33.00,-7.00,-4.00,-4.00,+1.00,+4.00,-2.00,-27.00
-30.00,-22.00,-3.00,-3.00,-8.00,+0.00,-6.00,-20.00,+23.00,+5.00,+2.00,+2.00,+7.00,+5.00,+9.00,+16.00
+8.00,+11.00,-4.00,-3.00,-3.00,-6.00,+11.00,+4.00,-29.00,-10.00,-5.00,-3.00,-1.00,-4.00,-5.00,-10.00
-18.00,-15.00,+1.00,+4.00,+11.00,+21.00,+22.00,-13.00,-45.00,-19.00,+0.00,+7.00,+7.00,+4.00,-5.00,-18.00
+12.00,-5.00,+0.00,-1.00,-5.00,-1.00,+5.00,+14.00,+52.00,+3.00,+1.00,-2.00,+0.00,-3.00,+9.00,+16.00
+4.00,+12.00,+2.00,+1.00,+0.00,+14.00,+14.00,-4.00,+12.00,+3.00,-3.00,-3.00,-1.00,-3.00,-4.00,+2.00
-11.00,-14.00,-6.00,-2.00,+0.00,-21.00,-37.00,-11.00,+11.00,+11.00,+4.00,+3.00,-3.00,+0.00,+4.00,+6.00
+15.00,+23.00,+11.00,+8.00,+2.00,-3.00,+7.00,+3.00,-5.00,-2.00,-1.00,+11.00,+13.00,+3.00,-3.00,-10.00
-3.00,-3.00,-2.00,-2.00,+1.00,+3.00,+4.00,+1.00,-19.00,-12.00,-11.00,-32.00,-32.00,-9.00,-10.00,+1.00
-1.00,+1.00,+2.00,+3.00,+4.00,-2.00,+10.00,+2.00,+12.00,+0.00,-4.00,-8.00,-2.00,-17.00,-4.00,+2.00
-15.00,-32.00,-9.00,-6.00,-7.00,-3.00,+0.00,+4.00,-8.00,+2.00,+1.00,-2.00,-7.00,+6.00,+2.00,-9.00
-13.00,-6.00,-9.00,-7.00,+0.00,-6.00,-11.00,-7.00,-8.00,-5.00,-3.00,-8.00,+12.00,+9.00,+5.00,-11.00
-2.00,+7.00,+2.00,-3.00,-11.00,-1.00,+0.00,+0.00,+17.00,+5.00,+5.00,+24.00,+20.00,-2.00,+7.00,+8.00
+1.00,-6.00,+0.00,+0.00,+1.00,+6.00,+13.00,+7.00,-5.00,-5.00,-7.00,-18.00,-18.00,-6.00,+3.00,+14.00
+11.00,+11.00,+4.00,+3.00,+3.00,-4.00,-16.00,+2.00,-13.00,-5.00,-7.00,-2.00,-9.00,-11.00,-16.00,-17.00
-6.00,-12.00,-2.00,-1.00,+2.00,-9.00,-35.00,-5.00,+29.00,+11.00,+5.00,+0.00,-4.00,+6.00,+24.00,+25.00
+12.00,+19.00,+1.00,+2.00,+5.00,+15.00,+20.00,+1.00,-49.00,-21.00,-4.00,+3.00,+6.00,+6.00,-3.00,-23.00
-6.00,+2.00,-2.00,-3.00,-5.00,+9.00,+7.00,-5.00,-25.00,-8.00,-2.00,-2.00,-5.00,-6.00,-8.00,-15.00
-27.00,-38.00,-11.00,-9.00,-9.00,-15.00,-19.00,+1.00,+52.00,+25.00,+12.00,+11.00,+11.00,+9.00,+10.00,+27.00
+14.00,+26.00,+5.00,-3.00,-11.00,-5.00,-5.00,-2.00,+17.00,+2.00,+0.00,+2.00,-7.00,-5.00,-5.00,+7.00
+5.00,+19.00,+4.00,+7.00,+13.00,+0.00,+1.00,+6.00,-5.00,+1.00,+0.00,-4.00,-4.00,-4.00,-1.00,-10.00
-19.00,-14.00,-5.00,-3.00,-2.00,-3.00,-8.00,-1.00,-27.00,-7.00,-5.00,+6.00,+4.00,+2.00,-4.00,-21.00
+28.00,+22.00,+4.00,-2.00,+7.00,+8.00,+2.00,-4.00,-19.00,-12.00,-1.00,+11.00,+20.00,+0.00,-2.00,+2.00
-26.00,-26.00,-2.00,-3.00,-8.00,+2.00,+5.00,-6.00,+7.00,+5.00,+2.00,+6.00,-15.00,-2.00,-5.00,+1.00
+3.00,-7.00,-4.00,-7.00,-9.00,-8.00,-10.00,-8.00,+14.00,+6.00,-1.00,-17.00,-14.00,+7.00,-7.00,+17.00
+39.00,+54.00,+14.00,+9.00,+4.00,+6.00,+10.00,+22.00,-6.00,-6.00,-8.00,-20.00,-12.00,-24.00,+2.00,-11.00
+2.00,+11.00,-3.00,+1.00,-5.00,-4.00,+2.00,-4.00,-10.00,-8.00,-5.00,-3.00,+2.00,+2.00,+7.00,-2.00
-12.00,-21.00,-8.00,-2.00,-4.00,+0.00,+0.00,+3.00,+6.00,+2.00,-1.00,+1.00,+4.00,+10.00,+9.00,+1.00
-21.00,-13.00,-5.00,-2.00,-2.00,+0.00,-5.00,-11.00,+3.00,+0.00,+3.00,+10.00,+5.00,+1.00,+5.00,+11.00
-8.00,-5.00,-1.00,-2.00,-1.00,-4.00,+8.00,+1.00,+1.00,+1.00,-1.00,-1.00,-2.00,+0.00,-7.00,-3.00
+6.00,+14.00,+2.00,+0.00,+8.00,+11.00,+7.00,-5.00,+0.00,-2.00,-3.00,+0.00,+2.00,+2.00,-3.00,+3.00
+2.00,-6.00,+0.00,+1.00,+1.00,-1.00,+11.00,-2.00,-17.00,-8.00,+1.00,+5.00,+5.00,-4.00,-2.00,-9.00
-6.00,-13.00,-4.00,-2.00,+3.00,+0.00,+7.00,+1.00,+21.00,+8.00,-3.00,-3.00,-7.00,-5.00,-8.00,+8.00
+1.00,+8.00,-2.00,-3.00,-14.00,-19.00,-12.00,+21.00,-8.00,-3.00,+0.00,+3.00,+6.00,+13.00,+8.00,+2.00
-8.00,-14.00,+2.00,+0.00,+7.00,+11.00,+9.00,+1.00,-30.00,-6.00,-4.00,-6.00,-9.00,-7.00,-6.00,-23.00
-6.00,+0.00,-2.00,-2.00,-4.00,-2.00,-3.00,-14.00,+9.00,-3.00,-6.00,-8.00,-7.00,-1.00,-2.00,+2.00
-16.00,-35.00,-9.00,-5.00,-4.00,+0.00,-4.00,-3.00,+20.00,+12.00,+4.00,+4.00,+4.00,-3.00,+0.00,+13.00
+19.00,+50.00,+1.00,-2.00,+3.00,+0.00,-12.00,-10.00,-24.00,-11.00,-4.00,+0.00,-5.00,-4.00,-7.00,-13.00
+30.00,+17.00,+11.00,+6.00,+0.00,+1.00,+8.00,+5.00,-22.00,-12.00,+0.00,+13.00,+22.00,+11.00,+4.00,+3.00
-16.00,-20.00,-8.00,-5.00,-4.00,-12.00,-14.00,+3.00,+12.00,+11.00,-1.00,-14.00,-19.00,-7.00,-3.00,-3.00
+1.00,-1.00,-2.00,+3.00,-2.00,-5.00,-4.00,+0.00,+9.00,-2.00,+0.00,-4.00,-6.00,-13.00,+0.00,+3.00
-20.00,-19.00,-2.00,-1.00,-2.00,+0.00,-10.00,-4.00,+17.00,+2.00,+3.00,+9.00,+11.00,+19.00,+1.00,+17.00
+8.00,+0.00,-4.00,-2.00,-1.00,+2.00,+8.00,+9.00,-10.00,-5.00,-4.00,-10.00,-10.00,-6.00,-7.00,-13.00
-1.00,-3.00,+1.00,-2.00,-4.00,-3.00,-7.00,-12.00,+11.00,-2.00,-2.00,+1.00,+4.00,-7.00,-7.00,-2.00
+31.00,+42.00,+9.00,+2.00,+0.00,+9.00,+11.00,+17.00,-49.00,-23.00,-6.00,+2.00,+6.00,-1.00,+1.00,-21.00
-21.00,-42.00,-11.00,-8.00,-4.00,+10.00,+29.00,-3.00,+17.00,-1.00,+3.00,+4.00,+0.00,-1.00,-1.00,+7.00
-6.00,+11.00,+0.00,+0.00,+0.00,-13.00,-31.00,-10.00,+6.00,-4.00,+1.00,-5.00,-6.00,-3.00,+1.00,+5.00
-11.00,-21.00,-5.00,+0.00,+7.00,+3.00,+26.00,+1.00,+48.00,+38.00,+8.00,+8.00,+10.00,+0.00,-4.00,+12.00
+2.00,+2.00,+2.00,+0.00,+7.00,+10.00,+14.00,-5.00,-40.00,-13.00,-6.00,-4.00,-4.00,-1.00,-9.00,-29.00
-9.00,-7.00,+2.00,-1.00,+2.00,+0.00,-8.00,+3.00,+22.00,+2.00,+1.00,+0.00,+0.00,+3.00,+15.00,+34.00
-18.00,-19.00,-6.00,-2.00,-4.00,+5.00,+4.00,-6.00,+11.00,+12.00,+1.00,-3.00,-7.00,-4.00,-2.00,-5.00
-6.00,+2.00,-4.00,-3.00,-7.00,-1.00,-7.00,-3.00,+2.00,-9.00,-1.00,-3.00,-2.00,-4.00,-3.00,+0.00
+7.00,+2.00,+3.00,+1.00,-4.00,-20.00,-3.00,+3.00,+12.00,-4.00,-6.00,-5.00,-5.00,-3.00,-2.00,+20.00
-6.00,-21.00,+3.00,+3.00,+2.00,+3.00,+0.00,-3.00,-16.00,+2.00,+1.00,-1.00,-2.00,-4.00,-11.00,-17.00
+0.00,-11.00,-1.00,-1.00,-3.00,+0.00,+1.00,-4.00,+16.00,-6.00,+2.00,+0.00,+0.00,-1.00,-1.00,+9.00
+24.00,+65.00,+4.00,-1.00,-1.00,-2.00,-9.00,+13.00,-11.00,-4.00,-2.00,+1.00,-3.00,+1.00,+3.00,-6.00
-4.00,+0.00,-4.00,-3.00,-8.00,-8.00,-20.00,-7.00,-2.00,-4.00,-3.00,+0.00,+3.00,-2.00,-4.00,-1.00
-15.00,-32.00,-5.00,+1.00,+3.00,+18.00,+17.00,-15.00,+2.00,+8.00,+1.00,+5.00,+5.00,-1.00,-8.00,-10.00
+12.00,+11.00,+0.00,+1.00,-2.00,-2.00,+4.00,+5.00,-32.00,-9.00,-6.00,+1.00,-13.00,-3.00,+4.00,-6.00
+2.00,+0.00,+0.00,+1.00,-1.00,-5.00,-13.00,+2.00,+19.00,-8.00,-5.00,-7.00,-4.00,-4.00,-2.00,+8.00
-9.00,-1.00,-5.00,-5.00,-8.00,-2.00,-9.00,-10.00,-13.00,-4.00,+1.00,+0.00,+3.00,+3.00,+4.00,-12.00
+7.00,+10.00,-2.00,+0.00,-2.00,-11.00,-13.00,-2.00,-1.00,-4.00,-5.00,-7.00,-9.00,-4.00,-10.00,-7.00
-12.00,-26.00,-1.00,+4.00,+13.00,+7.00,-5.00,-25.00,+6.00,+10.00,+9.00,+8.00,+6.00,+4.00,+8.00,+9.00
-2.00,+2.00,+0.00,+1.00,+3.00,+1.00,+6.00,+0.00,-54.00,-8.00,-1.00,+0.00,+5.00,+2.00,+3.00,-8.00
-27.00,-15.00,-3.00,-3.00,+2.00,+15.00,+26.00,-13.00,+4.00,+4.00,-1.00,+6.00,+4.00,-1.00,-4.00,-13.00
-5.00,-29.00,-4.00,-2.00,-8.00,-15.00,-30.00,+0.00,+21.00,+6.00,+3.00,-4.00,-6.00,-4.00,-8.00,+6.00
+38.00,+86.00,+11.00,+3.00,-3.00,+1.00,+0.00,+9.00,-10.00,-16.00,-8.00,-9.00,-6.00,-7.00,+4.00,-3.00
+7.00,-22.00,-1.00,+2.00,+2.00,-4.00,-6.00,+4.00,+4.00,+6.00,-5.00,-4.00,-2.00,-3.00,-3.00,-6.00
-9.00,+6.00,+3.00,+0.00,-1.00,-6.00,-11.00,+3.00,+6.00,+14.00,+11.00,+4.00,+1.00,+1.00,-3.00,-2.00
-21.00,-15.00,-6.00,+0.00,+3.00,+1.00,+6.00,-2.00,-34.00,-19.00,-12.00,-5.00,-2.00,-2.00,+0.00,-12.00
+10.00,-9.00,+2.00,-1.00,+1.00,-1.00,-1.00,+8.00,+18.00,-2.00,+0.00,+5.00,+13.00,+1.00,-5.00,+15.00
+1.00,+12.00,+4.00,+4.00,+4.00,+7.00,+7.00,-13.00,-12.00,+21.00,+8.00,+3.00,+3.00,+0.00,+4.00,-11.00
+21.00,+17.00,-6.00,-2.00,-3.00,-3.00,-5.00,+12.00,+36.00,-9.00,-12.00,-28.00,-35.00,-12.00,-18.00,+4.00
+5.00,+5.00,-7.00,-4.00,+0.00,+3.00,-1.00,+3.00,-29.00,+0.00,-2.00,-1.00,-4.00,-1.00,+4.00,-24.00
-10.00,-12.00,-2.00,-3.00,-6.00,-8.00,-6.00,+1.00,+24.00,+1.00,-2.00,+1.00,+12.00,+0.00,+3.00,+19.00
-12.00,-3.00,-2.00,-5.00,-5.00,-4.00,-7.00,-4.00,+3.00,-10.00,-1.00,+2.00,-6.00,+3.00,-2.00,+4.00
-18.00,-38.00,+0.00,+4.00,+5.00,+4.00,-1.00,-14.00,-1.00,-3.00,+1.00,+10.00,+17.00,+6.00,+6.00,+6.00
+20.00,+19.00,-2.00,-1.00,+2.00,-7.00,-7.00,+3.00,-25.00,+8.00,-7.00,-12.00,-14.00,-9.00,-8.00,-23.00
-21.00,-5.00,-1.00,-4.00,-4.00,-2.00,+6.00,+2.00,+1.00,-2.00,+0.00,-3.00,-6.00,-1.00,+4.00,+6.00
-34.00,-57.00,-15.00,-7.00,-9.00,-3.00,-4.00,-16.00,-26.00,-19.00,-5.00,+3.00,+5.00,-6.00,-4.00,-6.00
+2.00,+35.00,+4.00,-1.00,+10.00,-6.00,-15.00,+16.00,-44.00,-4.00,+0.00,+4.00,+2.00,+4.00,+1.00,-1.00
+8.00,-6.00,+0.00,+2.00,-1.00,+1.00,-1.00,+8.00,+64.00,+15.00,+5.00,+1.00,-4.00,-8.00,-9.00,-10.00
-7.00,-10.00,-6.00,-2.00,-4.00,-4.00,-1.00,-8.00,+19.00,+12.00,+1.00,+1.00,-3.00,+6.00,+9.00,+12.00
-40.00,-21.00,-11.00,-8.00,-4.00,-1.00,-3.00,-9.00,+45.00,+7.00,+4.00,-3.00,+0.00,+3.00,+7.00,+25.00
+50.00,+28.00,+10.00,+4.00,-2.00,-1.00,+4.00,+22.00,-31.00,-11.00,-3.00,-5.00,-3.00,-1.00,+3.00,+3.00
-15.00,-11.00,+2.00,-1.00,-2.00,+0.00,-9.00,-6.00,-1.00,-9.00,+1.00,+16.00,+17.00,+9.00,+6.00,-1.00
+13.00,+2.00,-1.00,-2.00,-1.00,+3.00,+10.00,+5.00,-11.00,+4.00,-11.00,-24.00,-21.00,-16.00,-27.00,-40.00
+8.00,+20.00,+6.00,+4.00,+2.00,+0.00,+0.00,+5.00,-30.00,-4.00,+13.00,+15.00,+14.00,+10.00,+15.00,+19.00
-25.00,-25.00,-11.00,-8.00,-7.00,-7.00,-3.00,-16.00,+41.00,+5.00,-8.00,-16.00,-17.00,-7.00,+4.00,+24.00
+21.00,+26.00,+4.00,-1.00,-1.00,+2.00,+6.00,+2.00,-6.00,-5.00,+0.00,+4.00,-2.00,-4.00,-13.00,-10.00
-1.00,-18.00,-5.00,+1.00,+1.00,+1.00,+0.00,-2.00,-4.00,-5.00,-3.00,-7.00,-8.00,-6.00,+0.00,-15.00
-27.00,+3.00,-3.00,-3.00,-6.00,-4.00,-5.00,-24.00,+0.00,-19.00,-17.00,-9.00,-6.00,-3.00,-12.00,-7.00
+42.00,+4.00,+12.00,+7.00,+7.00,+3.00,+1.00,+23.00,+36.00,+29.00,+10.00,+21.00,+17.00,+4.00,+13.00,+12.00
+9.00,-13.00,-3.00,+3.00,+0.00,-5.00,-16.00,+6.00,-51.00,-13.00,+6.00,+5.00,+8.00,+8.00,+13.00,+11.00
+11.00,+32.00,+7.00,+1.00,+4.00,+5.00,-2.00,-1.00,-34.00,-37.00,-9.00,-9.00,-11.00,+1.00,+6.00,+16.00
+2.00,+1.00,-3.00,-3.00,+1.00,+0.00,-1.00,+13.00,+70.00,+52.00,+11.00,+0.00,+0.00,-4.00,-1.00,+4.00
-40.00,-46.00,-7.00,-7.00,-18.00,-7.00,+0.00,-15.00,+40.00,+11.00,+7.00,+9.00,+9.00,+8.00,+6.00,+25.00
+21.00,+40.00,+6.00,+7.00,+16.00,+7.00,+12.00,+6.00,-7.00,-4.00,-3.00,-7.00,-7.00,-4.00,-6.00,+1.00
-25.00,-30.00,-9.00,-4.00,-5.00,-6.00,-3.00,-6.00,+0.00,+21.00,+3.00,+0.00,-3.00,-5.00,-8.00,-15.00
+1.00,-12.00,-4.00,-2.00,+4.00,-2.00,-1.00,-9.00,-70.00,-34.00,-8.00,-2.00,-2.00,-2.00,-7.00,-19.00
+24.00,+32.00,+1.00,-1.00,+2.00,+2.00,+0.00,+1.00,+45.00,+5.00,-6.00,+1.00,+3.00,+1.00,-2.00,-11.00
+7.00,-21.00,-1.00,-5.00,-5.00,-4.00,+2.00,+1.00,-29.00,-5.00,+0.00,+10.00,+15.00,+4.00,+8.00,+12.00
+19.00,+25.00,+3.00,+0.00,+0.00,+2.00,+3.00,-3.00,+5.00,+9.00,+2.00,-10.00,-17.00,+0.00,+1.00,+11.00
-10.00,-12.00,-1.00,+2.00,+2.00,+4.00,+11.00,+29.00,+12.00,+4.00,-6.00,-8.00,-7.00,-7.00,-3.00,-7.00
-11.00,-9.00,-11.00,-7.00,-5.00,-9.00,-14.00,-12.00,-34.00,-11.00,+0.00,-2.00,+0.00,-1.00,-10.00,-9.00
-37.00,-16.00,-2.00,-1.00,-3.00,-3.00,-11.00,-17.00,-9.00,-25.00,-13.00,-11.00,-4.00,-9.00,-5.00,-4.00
+7.00,+15.00,+0.00,-3.00,-1.00,-3.00,+0.00,+4.00,+62.00,+33.00,+7.00,+14.00,+13.00,+4.00,+5.00,+26.00
+31.00,+11.00,+15.00,+11.00,+1.00,+8.00,+6.00,+20.00,-88.00,-49.00,-10.00,-1.00,-3.00,-4.00,-13.00,-41.00
-50.00,-29.00,-21.00,-13.00,-4.00,-1.00,+8.00,-25.00,+90.00,+38.00,+17.00,+13.00,+6.00,+12.00,+26.00,+38.00
+45.00,+3.00,+20.00,+12.00,+6.00,-2.00,+6.00,+35.00,+13.00,+1.00,-3.00,-4.00,+5.00,+5.00,+2.00,-7.00
-34.00,+6.00,-8.00,-4.00,+5.00,+16.00,-8.00,-20.00,+4.00,+8.00,-1.00,-19.00,-20.00,-4.00,-2.00,+7.00
+13.00,+4.00,-5.00,-4.00,+2.00,+1.00,+17.00,+1.00,+15.00,+12.00,-3.00,-12.00,-10.00,-7.00,-3.00,+7.00
-7.00,+6.00,+7.00,+6.00,+1.00,+3.00,+7.00,+0.00,-74.00,-30.00,-14.00,-5.00,-2.00,-8.00,-14.00,-35.00
-31.00,-42.00,-8.00,-6.00,-12.00,-5.00,+2.00,-21.00,+12.00,+11.00,+4.00,+7.00,+1.00,-1.00,+5.00,+1.00
-44.00,-48.00,-20.00,-13.00,-13.00,-11.00,-14.00,-20.00,-43.00,-34.00,-6.00,+8.00,+10.00,+3.00,-1.00,-27.00
+59.00,+72.00,+21.00,+11.00,+7.00,+2.00,-6.00,+28.00,+24.00,+15.00,+0.00,-2.00,+1.00,+1.00,+7.00,+11.00
+12.00,+25.00,+11.00,+7.00,+8.00,+5.00,-2.00,+3.00,+2.00,+8.00,+2.00,+1.00,-4.00,-3.00,-7.00,+5.00
+3.00,+4.00,-10.00,-6.00,-4.00,+0.00,+2.00,+3.00,+39.00,+21.00,+5.00,+1.00,-3.00,+2.00,+0.00,+10.00
+16.00,+7.00,+15.00,+8.00,+3.00,+1.00,+6.00,+16.00,-2.00,+5.00,-2.00,-8.00,-6.00,-12.00,-14.00,-21.00
+30.00,+17.00,-7.00,-4.00,-2.00,-3.00,-8.00,-2.00,-61.00,-27.00,-5.00,-16.00,-16.00,-2.00,+2.00,-16.00
-40.00,-61.00,-9.00,-6.00,-2.00,-4.00,-6.00,-14.00,-81.00,-48.00,-7.00,-1.00,+4.00,-4.00,-6.00,-26.00
-4.00,+52.00,+2.00,-2.00,-1.00,-3.00,-8.00,-11.00,+47.00,+44.00,+12.00,-3.00,-9.00,+3.00,+15.00,+51.00
-31.00,-38.00,-10.00,-5.00,-4.00,-9.00,-8.00,-8.00,+23.00,-9.00,-6.00,+2.00,+4.00,-2.00,-4.00,+8.00
+42.00,+20.00,+8.00,+1.00,-7.00,-1.00,+16.00,-2.00,+37.00,+25.00,+10.00,+24.00,+22.00,+6.00,+4.00,+12.00
-1.00,+0.00,+7.00,+11.00,+15.00,+9.00,-1.00,+9.00,+4.00,+0.00,-9.00,-18.00,-18.00,-7.00,-5.00,-2.00
-18.00,-33.00,-14.00,-10.00,-2.00,+0.00,+1.00,-13.00,-19.00,-30.00,-7.00,-18.00,-17.00,+1.00,+4.00,-4.00
-16.00,+15.00,+3.00,+2.00,+2.00,-2.00,+0.00,+3.00,+36.00,+16.00,+5.00,+1.00,+2.00,-2.00,+0.00,+0.00
+7.00,+20.00,-7.00,-10.00,-10.00,-6.00,-8.00,-11.00,-1.00,+5.00,-3.00,-4.00,+0.00,-3.00,-2.00,+3.00
-70.00,-91.00,-20.00,-7.00,-11.00,-12.00,-25.00,-34.00,+7.00,+15.00,+4.00,+4.00,+6.00,-3.00,-2.00,-14.00
+92.00,+73.00,+33.00,+14.00,+8.00,+11.00,+32.00,+47.00,-80.00,-70.00,-14.00,+17.00,+17.00,-1.00,-2.00,-2.00
-4.00,-14.00,-5.00,-4.00,-10.00,-9.00,-19.00,-2.00,+13.00,+52.00,+26.00,+32.00,+18.00,+10.00,+9.00,+7.00
+1.00,-19.00,-3.00,+7.00,+10.00,+12.00,+7.00,+5.00,+71.00,+26.00,-4.00,-29.00,-37.00,-8.00,-8.00,+10.00
+25.00,+40.00,+4.00,+2.00,+6.00,+5.00,+3.00,+11.00,-17.00,-12.00,-8.00,-9.00,-7.00,+1.00,+1.00,+5.00
-83.00,-32.00,-25.00,-17.00,-12.00,-9.00,-15.00,-23.00,+55.00,+18.00,+2.00,-10.00,-9.00,-4.00,-10.00,+0.00
-4.00,-41.00,+0.00,+1.00,-2.00,-4.00,+5.00,-1.00,+5.00,-10.00,-13.00,+4.00,+9.00,+1.00,+0.00,-16.00
-20.00,-19.00,-3.00,-3.00,-6.00,-10.00,-17.00,-4.00,-67.00,-21.00,+9.00,+18.00,+20.00,+6.00,+1.00,+3.00
+50.00,+62.00,+22.00,+9.00,+7.00,+8.00,+16.00,+26.00,-13.00,+6.00,+5.00,+4.00,+1.00,+1.00,+1.00,+10.00
+3.00,+4.00,-4.00,-2.00,-3.00,-4.00,-6.00,-7.00,+51.00,+19.00,-2.00,-14.00,-20.00,-13.00,-7.00,+15.00
-9.00,+0.00,-12.00,-8.00,-3.00,-4.00,+2.00,-10.00,-15.00,-5.00,-7.00,-8.00,-5.00,-8.00,-11.00,-29.00
-46.00,-44.00,+0.00,-1.00,-2.00,-1.00,-5.00,-6.00,+35.00,-26.00,-5.00,+3.00,+5.00,+3.00,+8.00,+18.00
+6.00,+14.00,-24.00,-16.00,-15.00,-17.00,-14.00,-25.00,-4.00,-5.00,-9.00,-5.00,-1.00,-4.00,+1.00,+1.00
-17.00,-53.00,-4.00,+0.00,+3.00,+0.00,-5.00,-14.00,-13.00,-3.00,+10.00,+18.00,+21.00,+11.00,+5.00,+5.00
+63.00,+12.00,+30.00,+16.00,+13.00,+13.00,+26.00,+43.00,+63.00,+13.00,+1.00,-15.00,-16.00,+6.00,+10.00,+26.00
-27.00,+3.00,-14.00,-7.00,-3.00,-3.00,-4.00,-22.00,-35.00,-22.00,-8.00,-7.00,-2.00,+0.00,-4.00,-30.00
-10.00,-47.00,+7.00,+3.00,+1.00,-3.00,-4.00,+10.00,-47.00,+1.00,-1.00,+4.00,+2.00,-4.00,-4.00,-13.00
+3.00,+71.00,-9.00,-11.00,-20.00,-12.00,-9.00,-15.00,+6.00,-4.00,-1.00,+6.00,-6.00,-9.00,-11.00,-18.00
-19.00,+8.00,-10.00,-8.00,+1.00,-5.00,-5.00,-15.00,-18.00,+0.00,-8.00,-17.00,-12.00,-4.00,+3.00,+0.00
+27.00,-61.00,+27.00,+25.00,+21.00,+19.00,+20.00,+32.00,-38.00,-53.00,-17.00,-4.00,-7.00,-6.00,-13.00,-20.00
-22.00,-20.00,-8.00,-6.00,-11.00,-9.00,-14.00,-13.00,+64.00,+54.00,+8.00,-2.00,+3.00,-2.00,-5.00,-16.00
+6.00,-24.00,+0.00,-3.00,-2.00,+6.00,+5.00,-6.00,-89.00,-43.00,-5.00,+6.00,+9.00,+0.00,-13.00,-76.00
-28.00,+1.00,-30.00,-18.00,-17.00,-11.00,-11.00,-20.00,+49.00,+42.00,+25.00,+26.00,+12.00,+12.00,+12.00,+40.00
+58.00,+40.00,+30.00,+4.00,-12.00,-11.00,-8.00,+15.00,-43.00,-26.00,-30.00,-42.00,-29.00,-23.00,-19.00,-33.00
+20.00,+20.00,+1.00,+9.00,+21.00,+17.00,+33.00,+27.00,-2.00,-49.00,-19.00,+0.00,+4.00,+12.00,+10.00,-5.00
-8.00,-28.00,+3.00,+8.00,+15.00,+3.00,-16.00,-12.00,+17.00,+49.00,+17.00,+3.00,+2.00,+11.00,+6.00,+26.00
-28.00,+0.00,-11.00,-7.00,-3.00,-7.00,-7.00,-16.00,+8.00,-14.00,+4.00,+13.00,+14.00,+4.00,+2.00,+22.00
-38.00,+7.00,-13.00,-10.00,-2.00,-8.00,-16.00,-24.00,+4.00,-13.00,-6.00,+13.00,+13.00,+0.00,-8.00,-47.00
-3.00,-14.00,-9.00,-4.00,-11.00,-1.00,+5.00,+8.00,-31.00,+16.00,+24.00,+13.00,+7.00,+11.00,+13.00,+10.00
+33.00,+87.00,+11.00,-3.00,-7.00,-12.00,-7.00,+19.00,+14.00,+3.00,-11.00,-12.00,-1.00,+1.00,+3.00,-12.00
+13.00,-39.00,+10.00,+14.00,+13.00,+12.00,+8.00,+5.00,-88.00,-44.00,-9.00,-18.00,-11.00,+0.00,+0.00,-9.00
-71.00,-29.00,-24.00,-17.00,-10.00,-4.00,-13.00,-38.00,+54.00,+69.00,+3.00,-9.00,-18.00,-24.00,-19.00,+7.00
+33.00,+58.00,-6.00,-9.00,-6.00,-7.00,-3.00,-1.00,+78.00,-4.00,+6.00,+8.00,+15.00,+12.00,+14.00,+37.00
-55.00,-71.00,-6.00,+5.00,+6.00,+3.00,+4.00,-4.00,+64.00,+36.00,+4.00,-1.00,-5.00,-2.00,-3.00,+6.00
+21.00,+42.00,+18.00,+5.00,-3.00,+3.00,+5.00,+6.00,+7.00,+3.00,+1.00,-5.00,-5.00,-3.00,-1.00,+17.00
-48.00,-50.00,-17.00,-9.00,-7.00,-11.00,-8.00,-14.00,-92.00,-42.00,-10.00,-2.00,-7.00,-2.00,-13.00,-50.00
+38.00,+49.00,+17.00,+13.00,+14.00,+11.00,+5.00,+14.00,-77.00,-32.00,-4.00,+4.00,+1.00,-5.00,-9.00,-26.00
-4.00,-57.00,-1.00,+2.00,+0.00,+0.00,-1.00,+7.00,-82.00,-37.00,-6.00,-6.00,-6.00,+0.00,+2.00,+20.00
+3.00,+3.00,-15.00,-13.00,-13.00,-9.00,-1.00,-4.00,-9.00,-4.00,-14.00,-1.00,-4.00,-12.00,-20.00,-44.00
-9.00,-23.00,-10.00,-8.00,-6.00,-14.00,-24.00,-19.00,+20.00,+32.00,+2.00,-14.00,-21.00,-10.00,-5.00,+18.00
-46.00,-78.00,-4.00,+3.00,+6.00,+9.00,+12.00,+1.00,+83.00,-41.00,-10.00,-2.00,+10.00,+13.00,+18.00,+37.00
+47.00,+41.00,+7.00,+2.00,+3.00,+2.00,+6.00,+10.00,+97.00,+75.00,+18.00,-4.00,-7.00,+1.00,+7.00,+50.00
+39.00,+40.00,+3.00,+0.00,-1.00,+1.00,+7.00,+13.00,-44.00,-18.00,-7.00,-3.00,-2.00,-10.00,-9.00,-25.00
+56.00,+28.00,-4.00,-10.00,-13.00,-6.00,-6.00,-2.00,-27.00,+5.00,+6.00,+15.00,+13.00,+7.00,+11.00,+7.00
-16.00,+5.00,-8.00,+2.00,+9.00,+3.00,-7.00,-9.00,+34.00,+38.00,+0.00,-5.00,-10.00,-13.00,-14.00,-22.00
-20.00,-21.00,-1.00,+0.00,+4.00,-1.00,-4.00,-16.00,+25.00,-16.00,+3.00,+9.00,+15.00,+14.00,+9.00,+7.00
+15.00,-55.00,+23.00,+18.00,+11.00,+5.00,+2.00,+35.00,-6.00,+14.00,+3.00,+4.00,+1.00,+2.00,+1.00,+16.00
-23.00,+16.00,-20.00,-10.00,-2.00,+8.00,+4.00,-18.00,+13.00,-31.00,-10.00,+3.00,+9.00,+9.00,+13.00,+32.00
-54.00,+21.00,-21.00,-24.00,-25.00,-17.00,-15.00,-50.00,-53.00,-5.00,-2.00,-14.00,-18.00,-16.00,-16.00,+2.00
+74.00,-90.00,+24.00,+22.00,+11.00,+14.00,+32.00,+57.00,-63.00,-77.00,-22.00,-2.00,+2.00,-6.00,-9.00,-52.00
-35.00,+2.00,+7.00,+9.00,+12.00,+4.00,+3.00,+4.00,+50.00,+32.00,+15.00,+10.00,+12.00,+13.00,+14.00,+12.00
+45.00,+49.00,+14.00,+9.00,+6.00,+9.00,+17.00,+37.00,+26.00,+18.00,-7.00,-2.00,-3.00,-5.00,-7.00,-21.00
+13.00,-12.00,+9.00,+8.00,+3.00,+4.00,+4.00,-13.00,+24.00,+12.00,-3.00,-9.00,-12.00,-11.00,-10.00,+2.00
-75.00,-74.00,-63.00,-43.00,-28.00,-31.00,-39.00,-71.00,+53.00,+14.00,+2.00,-1.00,+1.00,+4.00,+15.00,+55.00
+58.00,-31.00,+9.00,+7.00,-3.00,+9.00,+19.00,+34.00,-41.00,-11.00,-1.00,-2.00,-2.00,-6.00,-8.00,-29.00
-6.00,-57.00,+1.00,+5.00,+13.00,+9.00,+13.00,+22.00,+21.00,-3.00,+11.00,+5.00,+4.00,+4.00,+17.00,+35.00
-4.00,-36.00,+4.00,+1.00,+0.00,+3.00,-4.00,+5.00,+73.00,+79.00,-4.00,-12.00,-12.00,-17.00,-28.00,-12.00
-27.00,+31.00,-26.00,-18.00,-13.00,-13.00,-18.00,-22.00,-84.00,-11.00,-8.00,-3.00,-3.00,-3.00,-13.00,-70.00
-3.00,-22.00,+1.00,-4.00,-2.00,-5.00,-3.00,-7.00,+44.00,-25.00,-10.00,-1.00,+2.00,+4.00,+8.00,+12.00
+75.00,+91.00,+44.00,+20.00,+11.00,+10.00,+16.00,+35.00,+41.00,+54.00,+30.00,+17.00,+16.00,+19.00,+28.00,+38.00
-48.00,-44.00,-29.00,-22.00,-21.00,-22.00,-22.00,-27.00,-111.00,-55.00,-12.00,-8.00,-8.00,-8.00,-9.00,-34.00
-4.00,-51.00,-7.00,+3.00,+13.00,+1.00,+5.00,-3.00,-74.00,-50.00,-14.00,-15.00,-17.00,-22.00,-35.00,-51.00
-13.00,+67.00,-1.00,-3.00,-3.00,+4.00,-1.00,+9.00,-98.00,-59.00,-21.00,-5.00,-1.00,+0.00,-5.00,-43.00
-49.00,-81.00,-13.00,+2.00,+7.00,+3.00,-16.00,-21.00,-77.00,+29.00,+7.00,+2.00,-1.00,-2.00,-16.00,-65.00
+8.00,+57.00,+2.00,-9.00,-12.00,-5.00,+14.00,+6.00,+41.00,+17.00,+21.00,+13.00,+12.00,+14.00,+22.00,+33.00
-80.00,-15.00,-30.00,-16.00,-22.00,-17.00,-29.00,-49.00,+1.00,-2.00,-9.00,-10.00,-12.00,-10.00,-13.00,-21.00
+3.00,+122.00,-14.00,-14.00,-5.00,-12.00,-9.00,-22.00,-1.00,+11.00,+3.00,-2.00,-4.00,-3.00,-7.00,+10.00
+51.00,-16.00,+16.00,+20.00,+11.00,+14.00,+16.00,+27.00,-34.00,-28.00,-4.00,-4.00,-1.00,-7.00,-16.00,-22.00
-26.00,+16.00,-30.00,-20.00,-18.00,-12.00,-18.00,-24.00,-94.00,-78.00,-22.00,-9.00,-10.00,-6.00,-12.00,-23.00
+46.00,-7.00,+59.00,+37.00,+28.00,+29.00,+41.00,+60.00,-30.00,-22.00,-13.00,-3.00,-2.00,-2.00,+0.00,-11.00
-74.00,-35.00,-47.00,-27.00,-15.00,-18.00,-28.00,-47.00,+4.00,+49.00,+20.00,+2.00,-1.00,-4.00,-4.00,-32.00
+14.00,+103.00,+24.00,+0.00,-2.00,-2.00,-2.00,-6.00,-53.00,-33.00,-17.00,-5.00,-2.00,-1.00,-6.00,-30.00
+74.00,-15.00,+37.00,+28.00,+20.00,+20.00,+19.00,+45.00,-90.00,-12.00,-6.00,-2.00,-1.00,+0.00,+2.00,-27.00
+28.00,+55.00,+8.00,+2.00,+0.00,+1.00,+5.00,+11.00,+20.00,-8.00,-6.00,-4.00,-4.00,-5.00,-1.00,-2.00
-101.00,-128.00,-23.00,-8.00,-8.00,-13.00,-19.00,-36.00,-127.00,-110.00,-35.00,-14.00,-11.00,-14.00,-32.00,-85.00
+14.00,+104.00,+20.00,+5.00,+2.00,+0.00,+2.00,-12.00,+127.00,+69.00,+15.00,+6.00,+5.00,+8.00,+23.00,+114.00
+9.00,-63.00,+5.00,+10.00,+13.00,+9.00,+15.00,+38.00,+105.00,+58.00,+23.00,+17.00,+19.00,+19.00,+22.00,+42.00
+4.00,+79.00,-3.00,-9.00,-5.00,-2.00,-1.00,+1.00,+64.00,+46.00,+11.00,+5.00,+2.00,+5.00,+10.00,+27.00
+43.00,+58.00,+7.00,-6.00,-4.00,-9.00,-4.00,-12.00,-19.00,-8.00,-11.00,-11.00,-15.00,-17.00,-21.00,-27.00
-3.00,-47.00,-31.00,-16.00,-8.00,-12.00,-3.00,-9.00,-11.00,-14.00,+2.00,+14.00,+16.00,+14.00,+23.00,+38.00
+53.00,+82.00,+34.00,+12.00,+5.00,+0.00,+1.00,+10.00,-60.00,-11.00,-9.00,-12.00,-13.00,-13.00,-16.00,-42.00
+15.00,+75.00,+8.00,+5.00,+1.00,+8.00,+8.00,+12.00,-31.00,-1.00,-3.00,-2.00,-4.00,-4.00,-7.00,+3.00
-21.00,-101.00,+11.00,+18.00,+10.00,+11.00,+10.00,+7.00,+59.00,+51.00,+42.00,+23.00,+24.00,+23.00,+30.00,+22.00
-107.00,-39.00,-18.00,-16.00,-8.00,-11.00,-14.00,-47.00,-5.00,-31.00,-12.00,-6.00,-2.00,+1.00,+4.00,+12.00
+69.00,+101.00,+40.00,+15.00,+9.00,+9.00,+10.00,+23.00,+14.00,-19.00,-10.00,-4.00,-7.00,-5.00,-8.00,-6.00
-28.00,-53.00,-16.00,-10.00,-8.00,-7.00,-7.00,-16.00,-1.00,-27.00,+3.00,+3.00,+4.00,+5.00,+12.00,+28.00
+76.00,+105.00,+24.00,+15.00,+14.00,+17.00,+21.00,+50.00,-71.00,-84.00,-36.00,-12.00,-4.00,-4.00,-2.00,-1.00
-19.00,-51.00,-6.00,-7.00,-4.00,-7.00,-12.00,-14.00,-61.00,+86.00,+15.00,+1.00,-7.00,-13.00,-38.00,-95.00
-2.00,-39.00,-13.00,-3.00,+2.00,-1.00,-7.00,-12.00,+77.00,+68.00,+30.00,+14.00,+13.00,+18.00,+34.00,+83.00
+5.00,+27.00,+18.00,+13.00,+9.00,+4.00,+5.00,+14.00,+21.00,+31.00,+4.00,-10.00,-12.00,-8.00,-4.00,+18.00
+16.00,+22.00,-36.00,-21.00,-14.00,-14.00,-18.00,-26.00,+80.00,-26.00,+6.00,+13.00,+18.00,+24.00,+41.00,+103.00
+22.00,+33.00,+22.00,+2.00,-2.00,+2.00,+9.00,+18.00,+116.00,+11.00,+18.00,+9.00,+9.00,+9.00,+11.00,+43.00
+67.00,+62.00,-10.00,-6.00,-2.00,+5.00,+6.00,+31.00,-29.00,-51.00,-28.00,-17.00,-15.00,-17.00,-23.00,-45.00
+92.00,+84.00,+60.00,+28.00,+17.00,+18.00,+24.00,+45.00,+43.00,+48.00,+7.00,+4.00,+4.00,+4.00,+16.00,+55.00
-39.00,-70.00,-12.00,-4.00,-3.00,-3.00,-5.00,-5.00,-6.00,+25.00,+5.00,+3.00,+2.00,-1.00,-5.00,-25.00
+25.00,+81.00,+10.00,+6.00,+2.00,+3.00,+5.00,+13.00,-70.00,-107.00,-49.00,-23.00,-22.00,-25.00,-24.00,-27.00
+7.00,-24.00,-26.00,-20.00,-17.00,-17.00,-18.00,-22.00,+3.00,+57.00,+6.00,+3.00,+1.00,+1.00,-9.00,-65.00
-128.00,-128.00,-70.00,-38.00,-26.00,-26.00,-39.00,-98.00,+66.00,+6.00,-3.00,-1.00,+3.00,+4.00,+5.00,-7.00
+5.00,+9.00,+32.00,+21.00,+15.00,+16.00,+21.00,+45.00,-61.00,-19.00,-13.00,-6.00,-5.00,-5.00,+2.00,+13.00
-46.00,+55.00,-33.00,-21.00,-14.00,-10.00,-16.00,-24.00,-14.00,+13.00,+6.00,+5.00,+4.00,+3.00,+3.00,-18.00
-88.00,-93.00,-30.00,-18.00,-14.00,-18.00,-20.00,-34.00,-63.00,-38.00,-10.00,-7.00,-4.00,-6.00,-7.00,-10.00
+96.00,+55.00,+55.00,+35.00,+26.00,+28.00,+36.00,+75.00,-47.00,+11.00,+2.00,-4.00,-6.00,-14.00,-25.00,-72.00
-49.00,+22.00,-22.00,-20.00,-17.00,-20.00,-24.00,-47.00,-77.00,+7.00,+4.00,-1.00,+1.00,+0.00,-2.00,-1.00
+12.00,-82.00,-55.00,-24.00,-14.00,-15.00,-15.00,-24.00,-38.00,-13.00,+11.00,+5.00,+4.00,+7.00,+12.00,+15.00
+86.00,+113.00,+37.00,+27.00,+19.00,+21.00,+33.00,+74.00,+38.00,+3.00,+6.00,+4.00,+3.00,+6.00,+4.00,+12.00
-30.00,+19.00,-14.00,-17.00,-12.00,-12.00,-17.00,-32.00,-22.00,-7.00,-2.00,+0.00,-1.00,+0.00,-9.00,-42.00
+17.00,-71.00,+13.00,+10.00,+10.00,+8.00,+9.00,+33.00,+68.00,+33.00,+10.00,+0.00,-5.00,-2.00,+14.00,+68.00
+20.00,+24.00,+6.00,+2.00,+1.00,+0.00,-2.00,+11.00,+82.00,+3.00,-7.00,+0.00,+3.00,-1.00,-13.00,-29.00
+45.00,+47.00,+60.00,+21.00,+14.00,+10.00,+14.00,+24.00,+31.00,+48.00,+31.00,+22.00,+20.00,+23.00,+35.00,+75.00
+76.00,+13.00,+5.00,+8.00,+7.00,+6.00,+10.00,+30.00,-11.00,+0.00,-4.00,-7.00,-4.00,-1.00,+5.00,+21.00
-25.00,-14.00,-12.00,-5.00,-4.00,+1.00,+2.00,-6.00,+94.00,+13.00,-15.00,-15.00,-17.00,-16.00,-15.00,+22.00
-127.00,-128.00,-70.00,-38.00,-31.00,-29.00,-43.00,-89.00,-23.00,-37.00,-13.00,-1.00,-1.00,+1.00,+10.00,+31.00
-72.00,-32.00,+23.00,+20.00,+11.00,+14.00,+13.00,+2.00,-21.00,-8.00,-1.00,-3.00,-3.00,-5.00,-4.00,-1.00
-47.00,+27.00,+13.00,+8.00,+5.00,+7.00,-1.00,+8.00,+33.00,-12.00,-10.00,+4.00,+3.00,+2.00,-2.00,-10.00
+51.00,+72.00,+18.00,+2.00,+0.00,-2.00,+3.00,-13.00,+26.00,+33.00,+4.00,-2.00,-1.00,+0.00,+4.00,+4.00
-17.00,+0.00,+3.00,+6.00,+4.00,+1.00,+1.00,-2.00,-8.00,+6.00,+2.00,-3.00,-4.00,-4.00,-6.00,-10.00
-35.00,-107.00,-5.00,+6.00,+6.00,+6.00,+7.00,+0.00,+9.00,-13.00,-7.00,-3.00,+0.00,-1.00,-6.00,-25.00
+23.00,+113.00,+39.00,+3.00,+0.00,-1.00,+4.00,-14.00,-23.00,+8.00,+12.00,+6.00,+5.00,+5.00,+11.00,+29.00
+58.00,+23.00,+7.00,+9.00,+8.00,+9.00,+12.00,+35.00,+37.00,-26.00,-10.00,-5.00,-3.00,-3.00,-9.00,-18.00
-67.00,-86.00,+0.00,+5.00,+2.00,+3.00,+6.00,+14.00,-1.00,+13.00,+8.00,-1.00,-3.00,+0.00,-7.00,-2.00
+19.00,+68.00,+3.00,-5.00,-4.00,-3.00,-9.00,-21.00,-70.00,-18.00,-12.00,-7.00,-11.00,-18.00,-32.00,-62.00
-20.00,-33.00,-12.00,-7.00,-3.00,-4.00,+1.00,+18.00,+14.00,+29.00,+3.00,-10.00,-6.00,+2.00,+4.00,+3.00
-4.00,-42.00,+7.00,+5.00,+5.00,+4.00,+0.00,-7.00,-1.00,-21.00,-23.00,-14.00,-11.00,-15.00,-18.00,-27.00
+8.00,-1.00,+5.00,-3.00,-1.00,+0.00,-1.00,+3.00,+44.00,+35.00,+10.00,+1.00,+2.00,+0.00,+8.00,+33.00
-76.00,-70.00,-29.00,-11.00,-11.00,-9.00,-13.00,-36.00,-25.00,-35.00,-14.00,-5.00,-1.00,-7.00,-10.00,-12.00
-14.00,-22.00,+0.00,-2.00,+2.00,-6.00,-12.00,-20.00,-52.00,-33.00,-12.00,-5.00,-9.00,-8.00,-14.00,-40.00
+13.00,-25.00,-2.00,-3.00,-2.00,-8.00,-4.00,+3.00,+18.00,+23.00,+5.00,-5.00,-5.00,-2.00,+1.00,+38.00
-25.00,-41.00,-1.00,+4.00,+3.00,+2.00,+3.00,+12.00,+14.00,-15.00,+2.00,+4.00,+5.00,+2.00,+7.00,+13.00
-89.00,+23.00,-42.00,-29.00,-20.00,-23.00,-21.00,-68.00,+67.00,-5.00,-9.00,-9.00,-10.00,-6.00,-1.00,+33.00
-28.00,-65.00,+6.00,+8.00,+0.00,+4.00,+4.00,+8.00,+29.00,+42.00,+23.00,+20.00,+18.00,+19.00,+26.00,+59.00
-52.00,-18.00,+0.00,+2.00,+2.00,+6.00,+3.00,+3.00,+20.00,+31.00,+8.00,+3.00,-1.00,-1.00,-7.00,-33.00
+73.00,+51.00,+16.00,+14.00,+14.00,+12.00,+14.00,+30.00,-43.00,-38.00,-3.00,+1.00,+0.00,+2.00,+5.00,+1.00
-38.00,+33.00,-30.00,-24.00,-16.00,-17.00,-27.00,-51.00,+7.00,-21.00,-10.00,-4.00,-2.00,-3.00,-8.00,-21.00
+77.00,+85.00,+28.00,+10.00,+8.00,+4.00,+17.00,+19.00,-17.00,-17.00,-10.00,-3.00,+1.00,+1.00,+14.00,+45.00
-38.00,-71.00,-19.00,-2.00,-2.00,-5.00,-7.00,-17.00,+36.00,+52.00,+12.00,+6.00,+4.00,+3.00,+5.00,+25.00
+13.00,-12.00,+5.00,+3.00,+1.00,+6.00,+10.00,+28.00,+5.00,+33.00,+11.00,+3.00,+5.00,+1.00,+6.00,+2.00
-20.00,+1.00,-2.00,-1.00,-1.00,-9.00,-24.00,-15.00,+7.00,-34.00,-17.00,-5.00,-4.00,-6.00,-12.00,-18.00
+3.00,+14.00,-34.00,-17.00,-11.00,-4.00,+2.00,-6.00,-84.00,-36.00,-8.00,-7.00,-7.00,-9.00,-17.00,-49.00
+2.00,-30.00,+22.00,+14.00,+11.00,+10.00,+8.00,+15.00,+43.00,+56.00,+23.00,+13.00,+12.00,+10.00,+18.00,+50.00
+52.00,+125.00,+25.00,+12.00,+9.00,+9.00,+24.00,+21.00,-14.00,-21.00,-9.00,-3.00,-5.00,-1.00,-4.00,-8.00
+0.00,-95.00,-2.00,+4.00,+3.00,+1.00,+2.00,+14.00,+7.00,-10.00,-10.00,-13.00,-9.00,-4.00,+2.00,+19.00
-72.00,-36.00,-29.00,-21.00,-20.00,-13.00,-12.00,-33.00,+24.00,+20.00,-7.00,-5.00,-10.00,-12.00,-17.00,-16.00
+87.00,+57.00,+7.00,-5.00,-3.00,-7.00,-1.00,+13.00,-59.00,-39.00,-8.00,-3.00,+4.00,+5.00,-4.00,-48.00
-52.00,-50.00,-18.00,-11.00,-7.00,-2.00,-9.00,-16.00,-35.00,-1.00,+4.00,+5.00,+5.00,+3.00,+3.00,+2.00
+46.00,+1.00,+21.00,+8.00,+7.00,+2.00,+4.00,+22.00,-19.00,+24.00,+5.00,-9.00,-13.00,-10.00,-11.00,-16.00
+66.00,+0.00,+20.00,+24.00,+19.00,+16.00,+17.00,+45.00,+94.00,-7.00,-3.00,+0.00,+2.00,+4.00,+1.00,+28.00
+3.00,+36.00,-14.00,-17.00,-16.00,-10.00,-15.00,-2.00,-40.00,-8.00,-5.00,+0.00,-3.00,-6.00,-11.00,-19.00
+21.00,+13.00,+11.00,+8.00,+10.00,+8.00,+11.00,+9.00,+49.00,+43.00,+2.00,-6.00,-8.00,-7.00,-3.00,+14.00
-27.00,+88.00,-10.00,-11.00,-8.00,-3.00,+0.00,-25.00,+29.00,+29.00,+4.00,+4.00,+1.00,+4.00,+11.00,-4.00
-20.00,-61.00,-17.00,-7.00,-3.00,-8.00,-13.00,+0.00,+41.00,-39.00,-2.00,+10.00,+15.00,+14.00,+19.00,+11.00
+58.00,+93.00,+42.00,+20.00,+14.00,+7.00,+12.00,+21.00,+56.00,+15.00,-6.00,-7.00,-6.00,-1.00,+0.00,+25.00
-52.00,-54.00,-15.00,-4.00,-6.00,-7.00,-10.00,-20.00,-6.00,+37.00,+15.00,+3.00,+3.00,+3.00,+0.00,+1.00
-4.00,-21.00,-18.00,-15.00,-11.00,-8.00,-9.00,-9.00,-60.00,-31.00,-12.00,-7.00,-7.00,-5.00,-4.00,-10.00
+26.00,+29.00,-2.00,-4.00,-2.00,+0.00,+5.00,+5.00,+0.00,+17.00,-1.00,-3.00,-6.00,-11.00,-6.00,+13.00
-2.00,+46.00,+8.00,+5.00,+6.00,+6.00,+7.00,+8.00,-84.00,-16.00,+10.00,+6.00,+0.00,-1.00,-8.00,-65.00
-56.00,-83.00,+8.00,+2.00,-4.00,+0.00,-8.00,-18.00,+15.00,-1.00,-3.00,+4.00,+2.00,+4.00,+4.00,+9.00
-25.00,-33.00,-11.00,-3.00,+0.00,-2.00,+2.00,-6.00,-27.00,-7.00,+3.00,+0.00,+3.00,+2.00,+7.00,+23.00
-117.00,-25.00,-22.00,-14.00,-11.00,-8.00,-14.00,-43.00,+5.00,+6.00,-8.00,-6.00,-3.00,-10.00,-9.00,-11.00
+88.00,+13.00,+21.00,+15.00,+11.00,+12.00,+22.00,+41.00,-94.00,-42.00,-4.00,+2.00,-1.00,+3.00,-2.00,-33.00
+39.00,-20.00,-11.00,-7.00,-7.00,-7.00,-1.00,+3.00,-20.00,+22.00,-7.00,-12.00,-9.00,-5.00,-7.00,-13.00
-16.00,-47.00,-3.00,+1.00,-6.00,+1.00,-2.00,+6.00,+7.00,+7.00,+4.00,+3.00,+5.00,+1.00,-5.00,-17.00
+45.00,+63.00,+27.00,+15.00,+9.00,+0.00,-10.00,+25.00,+13.00,-2.00,+1.00,+1.00,+4.00,+6.00,+19.00,+53.00
-122.00,-47.00,-28.00,-21.00,-21.00,-19.00,-35.00,-71.00,-19.00,-5.00,-9.00,+0.00,-3.00,-5.00,-7.00,+6.00
+13.00,+7.00,+8.00,+5.00,+8.00,+11.00,+34.00,-7.00,-55.00,-14.00,-1.00,-6.00,-7.00,-8.00,-4.00,-18.00
+66.00,-6.00,+20.00,+18.00,+9.00,+17.00,+21.00,+52.00,+28.00,+27.00,+0.00,+4.00,+2.00,+0.00,+5.00,+28.00
+14.00,+0.00,+7.00,+1.00,-1.00,+7.00,+12.00,+15.00,+0.00,-6.00,-2.00,-6.00,-7.00,-2.00,-16.00,-38.00
-88.00,-128.00,-33.00,-12.00,-2.00,-10.00,-19.00,-26.00,+3.00,-5.00,+2.00,+3.00,+3.00,+1.00,+3.00,+4.00
+105.00,+127.00,+25.00,+3.00,-1.00,-7.00,-11.00,+18.00,+12.00,-19.00,-13.00,-7.00,-7.00,+0.00,-5.00,-15.00
+7.00,-101.00,+6.00,+9.00,+10.00,+7.00,+11.00,+23.00,-38.00,+0.00,+2.00,-4.00,+0.00,+3.00,+2.00,-14.00
-1.00,-51.00,-13.00,-8.00,-10.00,-10.00,-12.00,-30.00,+14.00,-11.00,-2.00,+4.00,+1.00,-6.00,-6.00,-2.00
-89.00,-62.00,-60.00,-36.00,-27.00,-24.00,-29.00,-54.00,+32.00,-30.00,-21.00,-13.00,-10.00,-5.00,-6.00,-25.00
-7.00,+34.00,+16.00,+17.00,+11.00,+10.00,+10.00,+41.00,+70.00,-11.00,+11.00,+14.00,+16.00,+13.00,+23.00,+82.00
-40.00,+2.00,-17.00,-9.00,-6.00,-4.00,-2.00,-10.00,+22.00,+38.00,+15.00,-3.00,-2.00,-1.00,+2.00,-8.00
-44.00,-52.00,-23.00,-8.00,-4.00,-6.00,-12.00,-23.00,-44.00,-12.00,+2.00,+3.00,+3.00,+5.00,+0.00,-21.00
-68.00,-24.00,+1.00,-8.00,-11.00,-11.00,-21.00,-57.00,+62.00,+24.00,+2.00,+6.00,+2.00,+0.00,+8.00,+37.00
-43.00,-43.00,-20.00,-17.00,-9.00,-9.00,-14.00,-38.00,+8.00,+26.00,+10.00,+0.00,-4.00,-4.00,-8.00,-3.00
+59.00,+0.00,+21.00,+12.00,+9.00,+1.00,-3.00,+26.00,-4.00,-2.00,-5.00,+2.00,+4.00,+2.00,-1.00,-15.00
+22.00,+19.00,-3.00,-1.00,-2.00,+4.00,+0.00,+2.00,-15.00,-10.00,-8.00,-10.00,-11.00,-12.00,-12.00,-1.00
-30.00,-8.00,+2.00,+0.00,+0.00,+3.00,+4.00,+0.00,+15.00,-41.00,-18.00,-9.00,-3.00,-6.00,-4.00,-15.00
+24.00,+46.00,+18.00,+5.00,-2.00,+2.00,-6.00,-3.00,+44.00,+36.00,+5.00,+3.00,-6.00,+1.00,+5.00,+48.00
-3.00,+105.00,+18.00,+3.00,+3.00,-3.00,-8.00,-8.00,-46.00,-25.00,+2.00,+4.00,+7.00,+2.00,-4.00,-20.00
+47.00,+18.00,-17.00,-10.00,-2.00,+2.00,+23.00,+6.00,-42.00,+16.00,+11.00,+23.00,+13.00,+0.00,+1.00,-18.00
+56.00,+44.00,+29.00,+19.00,+12.00,+15.00,+24.00,+46.00,-12.00,+2.00,-8.00,-25.00,-24.00,-12.00,-7.00,-3.00
-49.00,-36.00,-4.00,-1.00,-5.00,-7.00,-14.00,-18.00,+32.00,-27.00,-24.00,-30.00,-17.00,-8.00,-13.00,-38.00
+46.00,+54.00,-12.00,-9.00,-3.00,-2.00,+10.00,+10.00,+49.00,+17.00,-7.00,-16.00,-9.00,-7.00,+4.00,+64.00
+2.00,+54.00,+11.00,+3.00,-1.00,+2.00,-4.00,+5.00,-37.00,-12.00,+3.00,+6.00,+11.00,+9.00,+4.00,-20.00
-40.00,-81.00,-9.00,-3.00,+1.00,-9.00,-13.00,-10.00,-22.00,+24.00,+8.00,+13.00,+12.00,+1.00,-6.00,-9.00
+60.00,+54.00,+18.00,+8.00,+7.00,+6.00,+16.00,+33.00,-26.00,-24.00,+5.00,+31.00,+33.00,+11.00,+6.00,+13.00
-7.00,+5.00,-1.00,-5.00,-10.00,-12.00,-17.00,-17.00,+5.00,-15.00,+1.00,+0.00,-21.00,-8.00,+5.00,+18.00
-43.00,-51.00,-9.00,-2.00,+4.00,+4.00,+1.00,-6.00,+8.00,+1.00,-3.00,-17.00,-6.00,+1.00,-5.00,-3.00
+33.00,+61.00,-8.00,-6.00,-4.00,-2.00,+3.00,-10.00,-16.00,-7.00,+2.00,+4.00,+0.00,+2.00,-18.00,-17.00
-21.00,-102.00,-8.00,+1.00,+1.00,-6.00,-12.00,-4.00,+1.00,+8.00,-10.00,-35.00,-24.00,-12.00,-11.00,-30.00
-70.00,-95.00,-8.00,-7.00,-7.00,-4.00,-4.00,-27.00,+19.00,+19.00,+8.00,+18.00,+18.00,+8.00,+6.00,+33.00
-38.00,-31.00,+15.00,+12.00,+11.00,+7.00,+1.00,-9.00,-42.00,-4.00,-1.00,+8.00,+9.00,+3.00,+4.00,-39.00
+29.00,+106.00,-12.00,-12.00,-9.00,-10.00,-20.00,-10.00,-48.00,-26.00,+0.00,-5.00,-6.00,-11.00,-2.00,+16.00
-21.00,-80.00,+2.00,+5.00,+2.00,+12.00,+25.00,+6.00,-36.00,-2.00,+5.00,+42.00,+47.00,+1.00,-11.00,-38.00
+19.00,+28.00,-14.00,-9.00,-5.00,-9.00,-4.00,+2.00,+7.00,+1.00,+14.00,+30.00,-8.00,-3.00,+1.00,+4.00
-36.00,-47.00,-18.00,-9.00,-5.00,-14.00,-19.00,-3.00,+6.00,+7.00,-15.00,-71.00,-50.00,-15.00,-9.00,+13.00
+0.00,-42.00,+3.00,+5.00,+1.00,+0.00,+4.00,+5.00,+34.00,-12.00,-19.00,-45.00,-30.00,+6.00,+15.00,-12.00
+43.00,+108.00,-1.00,-3.00,+4.00,+4.00,+25.00,+7.00,-5.00,-56.00,-26.00,-17.00,-10.00,-17.00,-15.00,-43.00
+56.00,+58.00,+22.00,+8.00,+5.00,+21.00,+16.00,+19.00,-44.00,+9.00,+18.00,+25.00,+32.00,+23.00,+27.00,+22.00
-19.00,-23.00,-14.00,-6.00,-3.00,-9.00,-22.00,-30.00,-13.00,+22.00,+16.00,+41.00,+20.00,+3.00,-1.00,-14.00
+42.00,+9.00,+5.00,+3.00,-4.00,+3.00,+6.00,+27.00,+15.00,+8.00,+3.00,-1.00,+0.00,+1.00,-5.00,-6.00
+10.00,+28.00,-1.00,-6.00,-23.00,-14.00,-17.00,+3.00,+10.00,-6.00,-3.00,-2.00,-14.00,-3.00,+3.00,+5.00
-36.00,-59.00,-9.00,+3.00,+17.00,+3.00,+11.00,-5.00,-46.00,-43.00,-13.00,-9.00,+0.00,-14.00,-7.00,-23.00
+8.00,+18.00,-8.00,+5.00,+13.00,+10.00,+3.00,+1.00,+38.00,+26.00,+5.00,-6.00,-10.00,+11.00,-7.00,+17.00
-19.00,-35.00,+9.00,+9.00,+9.00,+8.00,+7.00,-1.00,-7.00,-2.00,+2.00,+5.00,+9.00,-1.00,+11.00,+4.00
-4.00,-27.00,+7.00,+1.00,+1.00,-2.00,-3.00,-1.00,-30.00,-7.00,+1.00,-6.00,-12.00,+5.00,+9.00,-18.00
+18.00,-13.00,+8.00,+4.00,-5.00,-6.00,-7.00,+15.00,+19.00,+14.00,+3.00,+15.00,+7.00,+8.00,-20.00,-20.00
+47.00,+43.00,+8.00,-4.00,-18.00,-6.00,+22.00,+19.00,+14.00,-6.00,-18.00,-31.00,-13.00,-17.00,+12.00,+12.00
+17.00,+24.00,+10.00,+7.00,+11.00,+10.00,+25.00,+7.00,+17.00,+3.00,+4.00,+1.00,-1.00,-7.00,-5.00,+30.00
-8.00,-22.00,-4.00,-4.00,-6.00,+1.00,-1.00,+3.00,+32.00,-6.00,+3.00,+3.00,+11.00,+24.00,+15.00,+16.00
-2.00,+12.00,-6.00,+0.00,+9.00,+2.00,-5.00,-7.00,+49.00,+14.00,+3.00,+0.00,+3.00,+6.00,+4.00,-2.00
-40.00,-46.00,+0.00,+3.00,+12.00,+2.00,-3.00,+6.00,+111.00,-10.00,-2.00,+9.00,+11.00,-1.00,+2.00,+18.00
-16.00,-35.00,-7.00,-5.00,-11.00,-9.00,-12.00,-13.00,+68.00,+10.00,+5.00,+1.00,-15.00,-3.00,-1.00,+0.00
+92.00,+60.00,+4.00,+3.00,+4.00,-11.00,+10.00,+34.00,+39.00,+2.00,-1.00,-6.00,-10.00,-3.00,-6.00,+12.00
+55.00,+74.00,+42.00,+24.00,+17.00,+26.00,+23.00,+36.00,+24.00,-23.00,-16.00,-30.00,-21.00,-4.00,-14.00,-24.00
-12.00,-16.00,-11.00,-31.00,-59.00,-27.00,-6.00,-4.00,+20.00,+9.00,+6.00,+16.00,+4.00,-3.00,-3.00,+7.00
+0.00,+16.00,+2.00,+8.00,+27.00,+19.00,+8.00,-6.00,-73.00,-22.00,-2.00,+16.00,+18.00,+2.00,+7.00,-26.00
-55.00,-62.00,-18.00,+7.00,+27.00,+25.00,+11.00,-13.00,-13.00,+2.00,+9.00,+14.00,+8.00,+0.00,-5.00,+2.00
-47.00,-51.00,-20.00,-8.00,+0.00,+1.00,-17.00,-23.00,-19.00,-4.00,-5.00,-3.00,-8.00,-8.00,-3.00,-12.00
+17.00,-38.00,+2.00,+3.00,+7.00,+4.00,-6.00,+1.00,-49.00,-3.00,-12.00,-29.00,-17.00,-4.00,-10.00,-7.00
+46.00,+1.00,+33.00,+13.00,-12.00,+5.00,+13.00,+37.00,-62.00,-13.00,-6.00,+4.00,+10.00,-2.00,-9.00,-13.00
-19.00,-36.00,-15.00,-19.00,-21.00,-21.00,-20.00,-10.00,-50.00,+4.00,-6.00,-23.00,-27.00,-11.00,-2.00,-15.00
+11.00,-12.00,-10.00,-6.00,-10.00,-3.00,+15.00,-8.00,-76.00,-8.00,-5.00,-2.00,+1.00,+0.00,-16.00,-11.00
-38.00,-25.00,-15.00,-6.00,-1.00,-10.00,-15.00,-23.00,-84.00,-15.00,-9.00,-12.00,-4.00,-3.00,+8.00,+0.00
-55.00,+13.00,-14.00,-14.00,-12.00,-13.00,-3.00,-30.00,-34.00,+20.00,+3.00,+0.00,+9.00,+2.00,-11.00,+14.00
+42.00,-6.00,+8.00,+11.00,+14.00,+9.00,+4.00,+27.00,-40.00,-18.00,-3.00,+3.00,+0.00,+2.00,+7.00,-4.00
-52.00,-32.00,-14.00,-9.00,-13.00,-11.00,-17.00,-9.00,+32.00,+20.00,+6.00,+10.00,+4.00,-17.00,-17.00,+6.00
-20.00,+10.00,+1.00,-1.00,-10.00,-10.00,-16.00,-13.00,+0.00,-13.00,-3.00,+4.00,-1.00,+17.00,+16.00,-14.00
-17.00,+8.00,-10.00,-6.00,-8.00,-17.00,+2.00,+3.00,+4.00,+2.00,-7.00,-20.00,-18.00,-10.00,-15.00,-14.00
+9.00,+3.00,+7.00,+14.00,+33.00,+30.00,+17.00,+1.00,+11.00,-1.00,-18.00,-17.00,-11.00,-10.00,-25.00,-17.00
-38.00,-13.00,-19.00,-11.00,-15.00,-18.00,-19.00,-26.00,-22.00,-25.00,+5.00,+3.00,+9.00,+5.00,+30.00,+20.00
+25.00,+8.00,+13.00,+8.00,+5.00,+17.00,+28.00,+19.00,+8.00,+23.00,+20.00,+33.00,+19.00,+3.00,+1.00,+11.00
+33.00,+27.00,+3.00,+1.00,+3.00,+4.00,+0.00,+5.00,+36.00,+8.00,+10.00,+16.00,+8.00,+7.00,+10.00,+11.00
-44.00,-28.00,-6.00,-8.00,-19.00,-18.00,-27.00,-21.00,+6.00,-2.00,-4.00,-11.00,-13.00,-9.00,-7.00,-8.00
+14.00,-12.00,+5.00,+9.00,+17.00,+6.00,+6.00,+9.00,+5.00,+3.00,-12.00,-18.00,-9.00,-5.00,-6.00,-16.00
-13.00,+1.00,-2.00,+0.00,+10.00,-4.00,-18.00,-19.00,-15.00,-12.00,-6.00,-11.00,-13.00,-2.00,-4.00,-7.00
-2.00,-18.00,-8.00,-8.00,-10.00,+2.00,-1.00,-1.00,+7.00,-3.00,+6.00,+18.00,+21.00,+1.00,+8.00,+6.00
-24.00,+13.00,-10.00,-12.00,-6.00,+0.00,-8.00,-15.00,+1.00,+18.00,+11.00,+12.00,+13.00,+12.00,+11.00,+24.00
+51.00,+19.00,+14.00,+6.00,+0.00,+6.00,+11.00,+21.00,-16.00,-3.00,-2.00,+6.00,+3.00,+3.00,+0.00,-12.00
+19.00,+31.00,+5.00,+1.00,-6.00,+0.00,+15.00,+13.00,-9.00,-2.00,-2.00,-8.00,-5.00,-7.00,-5.00,+2.00
+14.00,+18.00,+3.00,+1.00,+7.00,+1.00,-16.00,+4.00,-6.00,+10.00,-5.00,-17.00,-15.00,-8.00,-10.00,-10.00
-44.00,-36.00,-17.00,-7.00,-10.00,-15.00,-15.00,-26.00,-31.00,+4.00,+2.00,-3.00,-1.00,-2.00,+1.00,-7.00
+39.00,+81.00,+18.00,+6.00,+2.00,+1.00,+9.00,+14.00,-24.00,-3.00,-2.00,+6.00,+11.00,+7.00,+4.00,-2.00
+55.00,+35.00,+11.00,+7.00,+9.00,+7.00,+11.00,+20.00,-66.00,+1.00,+2.00,+17.00,+5.00,-2.00,-12.00,-8.00
+17.00,-17.00,+4.00,+5.00,+9.00,+4.00,+8.00,+14.00,-90.00,-6.00,-1.00,+3.00,-2.00,+7.00,+3.00,-7.00
+21.00,+11.00,+2.00,+3.00,+6.00,+3.00,+4.00,+38.00,-72.00,-1.00,-6.00,-18.00,-17.00,-9.00,-8.00,+11.00
-33.00,-30.00,-13.00,-13.00,-19.00,-16.00,-7.00,-15.00,-45.00,+4.00,-8.00,-20.00,-9.00,-2.00,+8.00,+8.00
-10.00,-7.00,-5.00,-6.00,-16.00,-8.00,-6.00,-4.00,-60.00,-19.00,-7.00,-10.00,-11.00,-11.00,-10.00,-2.00
+1.00,+21.00,-1.00,+5.00,+8.00,-9.00,+1.00,-15.00,+53.00,+4.00,+7.00,+18.00,+27.00,+8.00,+8.00,+23.00
+5.00,-9.00,+3.00,-6.00,-12.00,+9.00,-3.00,+0.00,+79.00,+16.00,+16.00,+22.00,+3.00,+7.00,+11.00,+28.00
-8.00,-14.00,-2.00,+4.00,+16.00,+9.00,+7.00,-1.00,+68.00,+3.00,+2.00,-3.00,-7.00,+4.00,-4.00,+0.00
-42.00,+9.00,-19.00,-16.00,-8.00,-15.00,-26.00,-44.00,+46.00,-12.00,-6.00,-13.00,-10.00,-4.00,+5.00,-9.00
+39.00,+5.00,+22.00,+13.00,+1.00,+11.00,+8.00,+28.00,+65.00,+6.00,+0.00,+9.00,+10.00,+0.00,-1.00,+3.00
+7.00,-12.00,+0.00,-2.00,-11.00,-1.00,+14.00,+9.00,+18.00,-15.00,-6.00,-4.00,-7.00,-3.00,-2.00,-17.00
+1.00,+1.00,-5.00,-5.00,-9.00,-14.00,-24.00,+1.00,+46.00,+5.00,+3.00,+4.00,+7.00,-3.00,-6.00,+7.00
-22.00,-26.00,-9.00,-2.00,+13.00,+11.00,+5.00,-7.00,+28.00,+5.00,+7.00,+23.00,+4.00,-4.00,+1.00,-2.00
-35.00,-17.00,-13.00,-7.00,-12.00,-9.00,-16.00,-31.00,+8.00,-3.00,-1.00,-11.00,-11.00,+9.00,+24.00,+8.00
-4.00,-6.00,-2.00,+0.00,+4.00,-4.00,-8.00,-11.00,+8.00,+0.00,-3.00,+2.00,+3.00,-8.00,-13.00,-8.00
-5.00,-1.00,+0.00,-6.00,-12.00,-4.00,+4.00,+4.00,-18.00,-10.00,-7.00,-16.00,-9.00,-1.00,+5.00,-8.00
-1.00,+5.00,+3.00,+3.00,-4.00,-5.00,+4.00,+7.00,-3.00,+0.00,+3.00,+14.00,+16.00,+8.00,-9.00,-5.00
+16.00,+9.00,+0.00,+0.00,+3.00,+3.00,-6.00,+9.00,-2.00,-4.00,-4.00,-7.00,-17.00,-12.00,-7.00,-17.00
+0.00,-5.00,+1.00,+7.00,+10.00,+2.00,-3.00,+0.00,-31.00,-4.00,-8.00,-15.00,-14.00,-10.00,-1.00,-11.00
-17.00,-15.00,-11.00,-6.00,-3.00,-7.00,-5.00,-21.00,+14.00,+6.00,+6.00,+7.00,+6.00,+3.00,+5.00,+18.00
+5.00,-1.00,+1.00,+4.00,+4.00,+0.00,+3.00,-5.00,-44.00,-17.00,+0.00,+8.00,+13.00,+17.00,+15.00,+2.00
-2.00,-2.00,-2.00,-2.00,-9.00,+1.00,+8.00,+1.00,+43.00,+34.00,+10.00,+9.00,+2.00,-2.00,-2.00,+22.00
+8.00,+24.00,+3.00,-5.00,-15.00,-7.00,-1.00,-5.00,-36.00,-8.00,-2.00,+6.00,+5.00,+3.00,+2.00,-18.00
-14.00,-20.00,-7.00,+0.00,+1.00,-5.00,-9.00,+0.00,+35.00,+5.00,+1.00,-7.00,-10.00,-4.00,-5.00,+0.00
+0.00,+13.00,+7.00,+8.00,+18.00,+10.00,+11.00,+3.00,+36.00,+5.00,+1.00,-8.00,-7.00,-2.00,-7.00,-3.00
-8.00,-14.00,-5.00,-1.00,+6.00,+2.00,-3.00,-4.00,-5.00,-13.00,-3.00,+4.00,+8.00,-1.00,-7.00,-5.00
-43.00,-18.00,-22.00,-13.00,-13.00,-17.00,-15.00,-37.00,+19.00,-4.00,+1.00,+1.00,-3.00,+3.00,+2.00,+4.00
+10.00,+45.00,+22.00,+7.00,-3.00,+16.00,+36.00,+20.00,+6.00,-1.00,-5.00,-3.00,-3.00,-4.00,-7.00,-9.00
-9.00,-19.00,-7.00,-4.00,-13.00,-17.00,-30.00,-2.00,+11.00,+3.00,-2.00,-7.00,+1.00,-11.00,-6.00,-2.00
-9.00,-3.00,-5.00,+3.00,+14.00,+3.00,-11.00,-8.00,-4.00,+3.00,+5.00,+16.00,+13.00,+0.00,-7.00,+1.00
-26.00,-14.00,+0.00,+0.00,+1.00,+3.00,+20.00,-8.00,+2.00,-2.00,-9.00,-21.00,-19.00,-2.00,-4.00,-9.00
-2.00,-15.00,-10.00,-13.00,-12.00,-4.00,-4.00,-13.00,-19.00,-13.00,-6.00,-9.00,-13.00,-5.00,+1.00,-2.00
+7.00,+0.00,+3.00,+1.00,+1.00,+1.00,+6.00,+6.00,+4.00,-3.00,-14.00,-43.00,-28.00,-18.00,-18.00,+3.00
-19.00,-5.00,-5.00,-5.00,-9.00,-7.00,-5.00,-7.00,-18.00,-7.00,-5.00,-1.00,+2.00,-4.00,-10.00,-21.00
+6.00,+9.00,+4.00,-4.00,-10.00,-6.00,-13.00,-4.00,-5.00,-5.00,+5.00,+15.00,+19.00,+4.00,+2.00,+0.00
-3.00,-8.00,-2.00,+9.00,+14.00,+7.00,+0.00,-1.00,+1.00,+5.00,+6.00,+23.00,+15.00,+7.00,+3.00,+9.00
+6.00,-5.00,+4.00,+4.00,+12.00,+14.00,+15.00,+12.00,-7.00,+1.00,-2.00,-2.00,-7.00,-3.00,+2.00,+0.00
+7.00,+0.00,-1.00,-1.00,+3.00,-3.00,-4.00,+9.00,+9.00,-8.00,-8.00,-8.00,-6.00,+2.00,-2.00,-2.00
+22.00,+10.00,+7.00,+7.00,+6.00,-2.00,-6.00,-10.00,+2.00,-1.00,+8.00,+13.00,+12.00,+5.00,+13.00,+43.00
-2.00,-17.00,-8.00,-7.00,-4.00,-3.00,-7.00,+1.00,-24.00,-17.00,-8.00,-12.00,-10.00,-4.00,-13.00,-64.00
-6.00,-23.00,-10.00,-7.00,-1.00,+0.00,-11.00,-19.00,+27.00,+23.00,+6.00,+11.00,+8.00,+2.00,+9.00,+15.00
+8.00,+38.00,+5.00,-2.00,-1.00,+5.00,+8.00,+7.00,-9.00,-7.00,-3.00,-10.00,-12.00,-1.00,-1.00,-3.00
+9.00,+6.00,+6.00,+1.00,+1.00,-4.00,-4.00,+9.00,+41.00,+9.00,-2.00,-3.00,-6.00,-7.00,+0.00,+2.00
-32.00,-33.00,-10.00,-4.00,-7.00,-10.00,-8.00,-13.00,-7.00,-4.00,-3.00,-5.00,+4.00,-2.00,+5.00,+9.00
+13.00,+7.00,+1.00,+1.00,-4.00,-1.00,-1.00,+6.00,-1.00,-8.00,+2.00,+13.00,+14.00,+6.00,-4.00,-1.00
+25.00,+6.00,-3.00,-1.00,-3.00,-4.00,-8.00,+6.00,-9.00,-3.00,+1.00,+4.00,+2.00,-2.00,+3.00,-3.00
-3.00,+5.00,-3.00,+0.00,-4.00,+1.00,+9.00,+3.00,+2.00,+4.00,+11.00,+34.00,+41.00,+13.00,+7.00,+11.00
-11.00,-11.00,-3.00,-2.00,-2.00,+0.00,+0.00,-2.00,-5.00,-2.00,-12.00,-55.00,-67.00,-16.00,-8.00,+5.00
-16.00,-14.00,-2.00,+1.00,+4.00,+0.00,-8.00,-8.00,+0.00,-4.00,+1.00,+8.00,+1.00,-4.00,-10.00,-14.00
-3.00,+1.00,+1.00,-5.00,-6.00,+3.00,+9.00,+1.00,-16.00,-3.00,-1.00,-1.00,+1.00,+0.00,+7.00,-6.00
+8.00,+10.00,+6.00,+3.00,+1.00,-16.00,-25.00,+9.00,-15.00,-9.00,-8.00,-26.00,-13.00,-6.00,-5.00,-17.00
+5.00,-1.00,-2.00,+1.00,-10.00,+0.00,-1.00,-5.00,-5.00,+0.00,+3.00,+16.00,+18.00,+0.00,-8.00,+2.00
+3.00,+1.00,+3.00,+4.00,+8.00,-4.00,-1.00,+1.00,+4.00,+5.00,+0.00,+1.00,+4.00,+4.00,+8.00,+7.00
-3.00,-1.00,+1.00,+7.00,+24.00,+25.00,+9.00,-10.00,+12.00,+0.00,-3.00,-6.00,-11.00,-7.00,+1.00,+6.00
-6.00,-10.00,-3.00,+0.00,+7.00,+3.00,+0.00,+3.00,-40.00,-17.00,-2.00,+7.00,+8.00,+4.00,-7.00,-19.00
+6.00,+3.00,-2.00,-5.00,-5.00,-3.00,-7.00,-10.00,-8.00,+5.00,+2.00,+6.00,+9.00,+2.00,-2.00,+1.00
+1.00,+0.00,+1.00,-2.00,-16.00,-5.00,+4.00,+4.00,+38.00,+8.00,-2.00,-5.00,-12.00,-3.00,+4.00,+13.00
-3.00,-5.00,-2.00,-5.00,-12.00,-11.00,-1.00,+6.00,-24.00,-15.00,+2.00,+6.00,+2.00,-5.00,-11.00,-11.00
-23.00,-31.00,-9.00,-5.00,-2.00,-11.00,-5.00,-8.00,+41.00,+15.00,+1.00,-8.00,-13.00,-11.00,+1.00,+22.00
-9.00,+28.00,-1.00,+0.00,+6.00,+9.00,-9.00,-15.00,-1.00,+4.00,+2.00,-2.00,+2.00,+9.00,+1.00,+1.00
+55.00,+56.00,+24.00,+10.00,+6.00,+7.00,+32.00,+45.00,-18.00,-10.00,+0.00,+7.00,+10.00,+5.00,+4.00,-11.00
-5.00,-18.00,-9.00,-3.00,-2.00,+0.00,+0.00,+4.00,+4.00,+5.00,+1.00,+4.00,+2.00,-1.00,-3.00,-1.00
+19.00,+8.00,+1.00,+1.00,-3.00,+4.00,+2.00,+12.00,-9.00,-4.00,-7.00,-5.00,-10.00,-10.00,-6.00,-7.00
-17.00,-21.00,-5.00,-3.00,-1.00,-10.00,-12.00,+1.00,-5.00,-10.00,-9.00,-5.00,-2.00,-5.00,-4.00,+4.00
-25.00,-25.00,-11.00,-7.00,-2.00,-6.00,-14.00,-22.00,+4.00,+2.00,+3.00,+16.00,+11.00,+0.00,+2.00,-1.00
-14.00,-1.00,-3.00,-1.00,-5.00,-4.00,-7.00,-9.00,-2.00,+1.00,-2.00,-11.00,-18.00,-9.00,-1.00,+1.00
-3.00,+6.00,+2.00,+2.00,+1.00,+2.00,+3.00,-1.00,-11.00,-8.00,-5.00,-11.00,-10.00,+5.00,-17.00,-10.00
+9.00,-4.00,-1.00,+1.00,+0.00,+4.00,+21.00,+4.00,+7.00,+2.00,+4.00,+13.00,+9.00,+2.00,+4.00,+4.00
-10.00,-7.00,-2.00,-5.00,-20.00,+4.00,-12.00,-3.00,-15.00,-7.00,-7.00,-13.00,+0.00,+3.00,+8.00,-10.00
+4.00,-5.00,-2.00,+2.00,+18.00,-3.00,-3.00,-4.00,+13.00,+8.00,+3.00,-7.00,+2.00,+5.00,-8.00,+17.00
+1.00,+3.00,+0.00,-1.00,+2.00,+10.00,+6.00,+4.00,-10.00,-6.00,-3.00,+4.00,+0.00,-3.00,+1.00,-10.00
+8.00,+2.00,+3.00,-1.00,+0.00,-5.00,-11.00,-6.00,+10.00,+3.00,+1.00,+7.00,+5.00,-5.00,-7.00,+2.00
+6.00,+0.00,-3.00,-1.00,+6.00,-4.00,-3.00,+9.00,-12.00,-10.00,-3.00,+1.00,-1.00,-2.00,-5.00,-7.00
-8.00,-6.00,+0.00,-5.00,-14.00,+5.00,+8.00,-4.00,-11.00,-8.00,-7.00,-12.00,-8.00,-2.00,-2.00,-5.00
+2.00,+8.00,+1.00,+4.00,+3.00,+2.00,-1.00,-3.00,+1.00,+2.00,-2.00,-12.00,-5.00,-2.00,+1.00,-9.00
-16.00,-17.00,-5.00,-4.00,-3.00,-7.00,-7.00,-5.00,+10.00,+5.00,+1.00,-1.00,-3.00,-7.00,+7.00,+7.00
+20.00,+40.00,+8.00,+3.00,+1.00,+4.00,+1.00,+5.00,-25.00,-8.00,-8.00,-9.00,-5.00,+0.00,-15.00,-27.00
-25.00,-32.00,-3.00,-2.00,-5.00,-5.00,-1.00,-4.00,+6.00,-1.00,-4.00,-3.00,-3.00,+2.00,+3.00,+9.00
+20.00,+18.00,+3.00,+2.00,+1.00,+16.00,+11.00,+6.00,+9.00,+0.00,+6.00,+10.00,+7.00,+1.00,-3.00,+0.00
+24.00,+38.00,+12.00,+6.00,+1.00,-19.00,-13.00,+3.00,-12.00,-5.00,-1.00,-2.00,+2.00,-6.00,+4.00,-1.00
-29.00,-25.00,-8.00,-2.00,+1.00,+2.00,-7.00,-14.00,-2.00,+6.00,+4.00,+1.00,+0.00,-3.00,-1.00,-7.00
+6.00,+1.00,-2.00,-2.00,-1.00,-3.00,-9.00,-5.00,-6.00,-3.00,-7.00,-2.00,+6.00,+3.00,+4.00,-4.00
+8.00,+2.00,-3.00,-2.00,-4.00,-3.00,+5.00,+28.00,+4.00,+3.00,+5.00,+15.00,-1.00,+7.00,+4.00,+6.00
-4.00,-12.00,-5.00,-1.00,-1.00,+6.00,+2.00,-5.00,+4.00,-4.00,-7.00,-19.00,-13.00,-12.00,+0.00,+3.00
-11.00,-13.00,-4.00,-3.00,+4.00,+4.00,+7.00,-8.00,+3.00,+0.00,+0.00,-9.00,-8.00,-1.00,-5.00,+8.00
+2.00,+8.00,+2.00,-1.00,-9.00,-6.00,+0.00,-5.00,-4.00,+0.00,+4.00,+13.00,+9.00,+0.00,+0.00,-14.00
-13.00,-15.00,-1.00,-1.00,-4.00,-6.00,-16.00,-16.00,+3.00,+0.00,-6.00,-9.00,-1.00,-2.00,+7.00,+1.00
+15.00,+6.00,+2.00,+1.00,+18.00,+12.00,+22.00,+9.00,-20.00,-8.00,-5.00,-9.00,-12.00,-1.00,-14.00,-23.00
-1.00,-7.00,-2.00,-3.00,+1.00,-9.00,-8.00,+0.00,+1.00,+2.00,+0.00,+10.00,+6.00,+4.00,+14.00,+7.00
-2.00,-1.00,-3.00,-1.00,-4.00,+2.00,+0.00,-1.00,+2.00,+1.00,-2.00,-7.00,+0.00,-2.00,-11.00,+10.00
+0.00,+5.00,+0.00,-1.00,-1.00,+4.00,+17.00,-4.00,+1.00,+6.00,-3.00,-12.00,-29.00,-12.00,-4.00,-5.00
+2.00,+1.00,+3.00,+4.00,+0.00,-1.00,-6.00,-4.00,-6.00,-4.00,-3.00,+1.00,+4.00,+12.00,+14.00,-9.00
-1.00,-5.00,-1.00,-1.00,+0.00,+3.00,-1.00,-4.00,+4.00,-3.00,+2.00,-3.00,+2.00,-2.00,+0.00,+7.00
-2.00,+0.00,-3.00,-3.00,-8.00,-12.00,-11.00,-2.00,-38.00,-12.00,-7.00,-1.00,+0.00,-1.00,-7.00,-25.00
+3.00,+9.00,+3.00,-2.00,+0.00,-1.00,-10.00,+1.00,+12.00,-2.00,+8.00,+17.00,+22.00,+2.00,+2.00,+26.00
+15.00,+14.00,+6.00,+1.00,-2.00,+0.00,+7.00,+8.00,-6.00,-4.00,-5.00,-1.00,+1.00,-3.00,-5.00,+7.00
-13.00,-18.00,-9.00,-2.00,+1.00,-1.00,-2.00,+0.00,-12.00,-9.00,-1.00,-3.00,-5.00,-1.00,-3.00,-9.00
-12.00,-19.00,-5.00,-2.00,-5.00,-9.00,-7.00,-7.00,+11.00,+8.00,+1.00,-2.00,-5.00,-2.00,+5.00,-3.00
-17.00,-4.00,-11.00,-6.00,-3.00,-8.00,-9.00,-10.00,+8.00,+5.00,-2.00,-11.00,-5.00,-4.00,-7.00,-7.00
+34.00,+36.00,+15.00,+8.00,+6.00,+9.00,+5.00,+18.00,-5.00,+2.00,+1.00,+5.00,+6.00,+0.00,-2.00,-2.00
+0.00,+9.00,+0.00,+1.00,-2.00,-3.00,+6.00,-2.00,-2.00,-2.00,+2.00,+10.00,+11.00,+2.00,+5.00,+10.00
+24.00,+12.00,+2.00,+1.00,+1.00,+2.00,-10.00,+17.00,+6.00,+4.00,+2.00,-2.00,-14.00,-9.00,-7.00,-4.00
-1.00,-13.00,-4.00,-1.00,+3.00,+1.00,-1.00,-13.00,-12.00,-6.00,-9.00,-10.00,-7.00,-1.00,-1.00,-6.00
-28.00,-29.00,-11.00,-8.00,-12.00,-7.00,-4.00,+1.00,+7.00,-2.00,+2.00,+2.00,+0.00,-2.00,+4.00,+7.00
-6.00,-4.00,-4.00,+1.00,+7.00,+9.00,+2.00,-6.00,+2.00,+3.00,+0.00,-2.00,+1.00,+3.00,-11.00,-7.00
-3.00,+3.00,+0.00,-2.00,+0.00,+8.00,+3.00,-2.00,+9.00,+1.00,-2.00,-9.00,-10.00,-5.00,+7.00,+5.00
-7.00,-6.00,+0.00,+0.00,+0.00,-3.00,-5.00,-1.00,-6.00,-4.00,-1.00,+4.00,+7.00,+2.00,+0.00,-6.00
+6.00,+1.00,-2.00,+0.00,-4.00,-4.00,+5.00,+2.00,+6.00,+4.00,+2.00,+6.00,+9.00,+4.00,+8.00,+10.00
+4.00,-1.00,-1.00,-2.00,-3.00,-2.00,-4.00,-1.00,+9.00,+2.00,+0.00,-4.00,-9.00,-5.00,-14.00,+6.00
-4.00,-1.00,-3.00,+0.00,+5.00,+4.00,+11.00,-1.00,+11.00,+1.00,-1.00,+1.00,+5.00,+5.00,+3.00,+6.00
+13.00,+8.00,+2.00,-1.00,+2.00,-3.00,+2.00,+5.00,-10.00,-2.00,+2.00,+7.00,+6.00,-2.00,-6.00,-6.00
-10.00,-10.00,-4.00,-6.00,-15.00,-14.00,-9.00,-9.00,+8.00,+5.00,-5.00,-3.00,-8.00,-6.00,-8.00,-6.00
-5.00,-10.00,-1.00,+4.00,+3.00,+0.00,-7.00,+5.00,-26.00,-17.00,-7.00,-5.00,-7.00,-7.00,-4.00,-14.00
+8.00,+5.00,+1.00,-4.00,-2.00,+1.00,+11.00,+7.00,+16.00,+0.00,+0.00,-1.00,-2.00,+1.00,+3.00,+13.00
-8.00,-7.00,-2.00,-2.00,-1.00,+0.00,+1.00,-6.00,+7.00,+3.00,+1.00,+1.00,+5.00,+2.00,+4.00,+6.00
+6.00,+2.00,-10.00,-8.00,+0.00,+1.00,+4.00,-2.00,-3.00,+2.00,+1.00,+0.00,+3.00,+0.00,-3.00,-4.00
+6.00,+32.00,+12.00,+6.00,+0.00,-5.00,-6.00,-2.00,+9.00,+5.00,+3.00,+8.00,+4.00,+9.00,+10.00,+3.00
+22.00,+17.00,+5.00,+5.00,+2.00,+2.00,-4.00,+15.00,-10.00,+0.00,-3.00,-19.00,-19.00,-16.00,-8.00,-1.00
+7.00,-3.00,+0.00,-1.00,-5.00,+2.00,+4.00,+7.00,-17.00,-8.00,-3.00,+1.00,+2.00,-3.00,-3.00,-8.00
-24.00,-27.00,-8.00,-5.00,-5.00,-3.00,-8.00,-5.00,+5.00,+3.00,+8.00,+15.00,+12.00,+5.00,+0.00,+7.00
-7.00,-14.00,-7.00,-6.00,-4.00,-6.00,-11.00,-8.00,+3.00,-3.00,-9.00,-21.00,-20.00,+2.00,+9.00,+6.00
-11.00,-9.00,-1.00,+0.00,-1.00,-2.00,+7.00,-1.00,-11.00,-4.00,-2.00,-1.00,+0.00,+5.00,+1.00,-9.00
-1.00,+7.00,+3.00,+2.00,-5.00,-3.00,-11.00,-1.00,+2.00,+0.00,+0.00,+1.00,-1.00,-3.00,+2.00,-5.00
+3.00,+11.00,+2.00,+2.00,+8.00,+4.00,+0.00,+0.00,+3.00,-4.00,-4.00,-1.00,+6.00,+0.00,+0.00,+7.00
+6.00,-10.00,-3.00,-3.00,-5.00,-4.00,-2.00,-12.00,-1.00,+4.00,+3.00,+5.00,+3.00,-4.00,-5.00,-2.00
-7.00,+3.00,-2.00,+3.00,+9.00,+5.00,+5.00,-3.00,+4.00,+0.00,+0.00,+0.00,+3.00,+1.00,+0.00,+3.00
-1.00,-3.00,-1.00,+0.00,-6.00,-1.00,+0.00,-7.00,+1.00,+2.00,+0.00,-3.00,-4.00,+1.00,-4.00,+0.00
-13.00,-8.00,-3.00,-1.00,+3.00,-3.00,-8.00,-8.00,-15.00,-6.00,-1.00,+1.00,+0.00,+4.00,-5.00,-10.00
+17.00,+3.00,+3.00,+1.00,+0.00,-2.00,-2.00,+1.00,+13.00,+3.00,+1.00,-1.00,-4.00,-5.00,+2.00,+13.00
-13.00,-2.00,-3.00,-7.00,-8.00,-8.00,-4.00,-6.00,-6.00,+6.00,-1.00,-3.00,-1.00,+1.00,+0.00,+1.00
-10.00,-12.00,-5.00,-2.00,+1.00,+7.00,+8.00,-5.00,+18.00,-1.00,+1.00,+4.00,+4.00,-1.00,-5.00,-2.00
+5.00,+3.00,+3.00,+1.00,+0.00,+0.00,-4.00,-2.00,-9.00,-3.00,-1.00,-3.00,-6.00,+0.00,-3.00,-5.00
-13.00,-5.00,-1.00,-1.00,-2.00,-6.00,+0.00,+1.00,+7.00,+3.00,-2.00,-2.00,-2.00,-5.00,-2.00,-1.00
-10.00,-25.00,-3.00,+0.00,+0.00,-7.00,-9.00,-6.00,+0.00,-1.00,+1.00,+3.00,+3.00,+1.00,+2.00,-2.00
+27.00,+59.00,+6.00,+1.00,+3.00,-3.00,-1.00,+10.00,-14.00,-5.00,-3.00,-1.00,-2.00,-1.00,+2.00,-1.00
-23.00,-14.00,-3.00,-2.00,-3.00,+3.00,+4.00,-10.00,-20.00,-8.00,-4.00,-3.00,-2.00,-8.00,-8.00,-13.00
+6.00,-4.00,-3.00,-2.00,-4.00,+3.00,+14.00,+9.00,+35.00,+13.00,+5.00,+5.00,+2.00,+0.00,+0.00,+17.00
-3.00,-5.00,-1.00,-1.00,-7.00,+0.00,-3.00,-1.00,-13.00,-5.00,-5.00,-6.00,-2.00,-2.00,-1.00,-3.00
-14.00,-22.00,-6.00,-2.00,-3.00,-13.00,-29.00,-15.00,-8.00,-3.00,+1.00,-3.00,-2.00,-3.00,-1.00,-2.00
+0.00,-5.00,-2.00,+0.00,+0.00,+8.00,+2.00,+0.00,+5.00,+1.00,-2.00,-10.00,-10.00,-9.00,-5.00,+3.00
-6.00,+5.00,-1.00,-3.00,+2.00,+6.00,+5.00,-5.00,-11.00,-3.00,+4.00,+16.00,+24.00,+3.00,+1.00,-5.00
+4.00,+5.00,+1.00,+1.00,+1.00,-7.00,-3.00,-2.00,+7.00,-1.00,-9.00,-25.00,-34.00,-11.00,-11.00,-3.00
-13.00,-15.00,+0.00,-1.00,+5.00,+5.00,+4.00,+13.00,-3.00,-4.00,-4.00,-3.00,-3.00,+4.00,-6.00,+0.00
+9.00,+8.00,+0.00,+0.00,+3.00,+2.00,+1.00,+1.00,-15.00,-12.00,-4.00,+0.00,+0.00,-3.00,-5.00,-24.00
+5.00,-9.00,-3.00,-2.00,-2.00,-6.00,+1.00,+8.00,+9.00,+3.00,+0.00,-1.00,+2.00,+0.00,+6.00,+1.00
-5.00,+3.00,-3.00,-5.00,-7.00,-9.00,-8.00,-9.00,+9.00,+4.00,+7.00,+15.00,+15.00,+12.00,+5.00,+13.00
-4.00,-11.00,+0.00,+0.00,-4.00,+2.00,+5.00,-2.00,+1.00,+1.00,-1.00,-3.00,-3.00,-4.00,+1.00,+2.00
-1.00,+4.00,+1.00,+3.00,+1.00,-2.00,-1.00,+2.00,+6.00,+3.00,-2.00,-1.00,-6.00,+1.00,+0.00,+3.00
-4.00,+6.00,+2.00,+0.00,-4.00,-1.00,+1.00,+1.00,-15.00,-12.00,-7.00,-7.00,-8.00,-5.00,-13.00,-9.00
+17.00,+8.00,+3.00,+1.00,+1.00,+1.00,+1.00,+2.00,-10.00,-10.00,-1.00,+9.00,+9.00,+3.00,+7.00,-11.00
-7.00,+8.00,-1.00,-2.00,+2.00,+3.00,+9.00,-7.00,-2.00,+1.00,-1.00,-4.00,-1.00,-4.00,+2.00,+5.00
-1.00,-14.00,-6.00,-5.00,-4.00,+0.00,-5.00,-4.00,+7.00,+2.00,+2.00,+3.00,+4.00,+2.00,+8.00,+11.00
+0.00,+13.00,+7.00,+5.00,+3.00,-4.00,-13.00,+2.00,+2.00,+1.00,-4.00,-4.00,-8.00,-4.00,-1.00,-1.00
-2.00,-1.00,-3.00,-3.00,-1.00,+1.00,+4.00,-2.00,-7.00,-2.00,+0.00,+4.00,+2.00,-1.00,-5.00,-8.00
-4.00,-11.00,+1.00,+0.00,+3.00,+0.00,-1.00,-2.00,-2.00,-1.00,+0.00,+6.00,+4.00,-2.00,+3.00,+3.00
-9.00,-13.00,-3.00,-2.00,-5.00,-4.00,-2.00,+4.00,-1.00,+0.00,+0.00,-7.00,-5.00,-2.00,-8.00,-1.00
-9.00,-4.00,-5.00,-3.00,-4.00,-4.00,+2.00,-2.00,+10.00,+1.00,+0.00,-4.00,-5.00,+11.00,+10.00,+5.00
+4.00,+0.00,-1.00,+2.00,-4.00,+2.00,+4.00,+5.00,-16.00,-3.00,-2.00,-5.00,+0.00,+1.00,-5.00,-13.00
-7.00,-2.00,+1.00,-1.00,-3.00,+2.00,+5.00,-5.00,-12.00,-4.00,-1.00,+2.00,+3.00,+0.00,+2.00,-1.00
+3.00,+2.00,+0.00,+0.00,+3.00,-1.00,+2.00,+1.00,+9.00,+1.00,+1.00,+4.00,+7.00,+0.00,+4.00,+9.00
+10.00,+11.00,+2.00,+0.00,+0.00,+4.00,+0.00,+0.00,+4.00,+6.00,+1.00,-6.00,-12.00,-10.00,-10.00,-7.00
+2.00,+4.00,-3.00,-2.00,-1.00,+3.00,+0.00,-2.00,-22.00,-8.00,+1.00,+7.00,+7.00,+2.00,+9.00,-6.00
-7.00,-11.00,-3.00,-3.00,-9.00,+0.00,+11.00,+0.00,+33.00,+11.00,+0.00,-1.00,-1.00,+11.00,+3.00,+15.00
-1.00,+3.00,-1.00,-1.00,+4.00,-7.00,-19.00,-3.00,+1.00,+3.00,-2.00,-5.00,-7.00,-8.00,-2.00,+0.00
-35.00,-16.00,-6.00,-3.00,-1.00,-10.00,-9.00,-21.00,-5.00,-2.00,-1.00,+1.00,+4.00,-2.00,-4.00,-2.00
+27.00,+8.00,+2.00,+3.00,+4.00,+2.00,+3.00,+23.00,+8.00,+3.00,+1.00,+5.00,+1.00,-3.00,-5.00,-1.00
+8.00,+10.00,+2.00,+2.00,+1.00,-1.00,+0.00,-1.00,-19.00,-5.00,-4.00,-4.00,-2.00,-2.00,+3.00,-18.00
+1.00,-5.00,+2.00,+0.00,-2.00,-2.00,+0.00,-4.00,+2.00,-3.00,-1.00,+3.00,+0.00,+6.00,+1.00,+9.00
-12.00,-17.00,-5.00,-1.00,+0.00,+1.00,+5.00,-4.00,-1.00,-5.00,-1.00,-4.00,-4.00,-3.00,-1.00,-1.00
-23.00,-10.00,-6.00,-5.00,-5.00,-6.00,-9.00,-15.00,-14.00,-4.00,-3.00,-2.00,-1.00,-1.00,-5.00,-6.00
+12.00,+16.00,+4.00,+1.00,+2.00,-6.00,-4.00,+1.00,-4.00,-2.00,-1.00,-3.00,-3.00,-6.00,-6.00,-3.00
+5.00,+3.00,+1.00,+1.00,+0.00,+3.00,+8.00,+2.00,+3.00,+1.00,+0.00,-2.00,-1.00,+0.00,-1.00,-2.00
+2.00,-6.00,-5.00,-3.00,+1.00,+3.00,+5.00,+8.00,-4.00,-2.00,+0.00,+1.00,+0.00,-2.00,+4.00,+3.00
-7.00,+7.00,+2.00,+1.00,-1.00,-2.00,-7.00,-2.00,+8.00,-1.00,-3.00,-2.00,+5.00,+0.00,-3.00,+1.00
+5.00,-7.00,-1.00,-1.00,+2.00,-2.00,-8.00,+3.00,-2.00,-2.00,-2.00,-3.00,-2.00,-2.00,-3.00,-2.00
-3.00,+1.00,-2.00,-2.00,-2.00,+1.00,-2.00,+3.00,-5.00,+1.00,+0.00,+2.00,+0.00,+1.00,-1.00,-8.00
+10.00,+1.00,+1.00,-1.00,-2.00,-2.00,+2.00,+3.00,-6.00,-3.00,-5.00,-5.00,-4.00,-5.00,+0.00,-4.00
+1.00,+0.00,-3.00,-1.00,+2.00,-5.00,-8.00,-5.00,-6.00,-5.00,-2.00,+2.00,+1.00,-1.00,+2.00,+4.00
-12.00,-2.00,-3.00,+0.00,+0.00,+0.00,+4.00,+0.00,+14.00,+4.00,+0.00,+0.00,+3.00,-3.00,-9.00,-2.00
+16.00,+4.00,+2.00,+3.00,+2.00,+2.00,-1.00,+0.00,+2.00,+1.00,+0.00,+3.00,-1.00,+2.00,+5.00,+8.00
+6.00,+17.00,+0.00,-2.00,-2.00,-2.00,-2.00,+10.00,-7.00,-2.00,-4.00,-8.00,-3.00,-3.00,-7.00,-8.00
+6.00,+4.00,+0.00,+2.00,-4.00,-4.00,+2.00,+1.00,+8.00,+4.00,-1.00,+0.00,+0.00,+0.00,+0.00,+3.00
-17.00,-16.00,-6.00,-4.00,-1.00,+0.00,-4.00,-7.00,-9.00,-7.00,-2.00,+0.00,+2.00,-1.00,-2.00,-6.00
+16.00,+7.00,+3.00,+5.00,+6.00,+6.00,+30.00,+8.00,+8.00,+5.00,+0.00,-3.00,-6.00,-2.00,-3.00,+0.00
-5.00,-5.00,+0.00,-1.00,-4.00,+1.00,-1.00,-2.00,-13.00,-5.00,+0.00,+1.00,+0.00,+0.00,+0.00,-2.00
-4.00,+0.00,-2.00,+0.00,+1.00,+1.00,-4.00,+0.00,+9.00,+2.00,+0.00,-1.00,-4.00,-4.00,-3.00,-2.00
-2.00,+3.00,+1.00,-1.00,-1.00,-2.00,+3.00,-5.00,-25.00,-8.00,-3.00,-3.00,-4.00,-3.00,-1.00,-9.00
-8.00,-4.00,-3.00,-5.00,-2.00,-4.00,-5.00,-2.00,+13.00,+0.00,-2.00,-2.00,-1.00,-1.00,+6.00,+4.00
+1.00,-6.00,-2.00,-2.00,-2.00,+0.00,-2.00,-11.00,-4.00,-1.00,+0.00,+0.00,+2.00,+1.00,-5.00,-4.00
-8.00,-2.00,+1.00,-2.00,-2.00,+2.00,+5.00,+0.00,+7.00,+2.00,-1.00,-1.00,-4.00,+1.00,+0.00,+5.00
+8.00,+6.00,+2.00,-1.00,+0.00,+0.00,-5.00,+0.00,+1.00,+1.00,-1.00,+2.00,+0.00,-1.00,+0.00,+2.00
-3.00,+2.00,+1.00,-1.00,+0.00,+2.00,+2.00,+0.00,+7.00,+0.00,-2.00,-4.00,-4.00,-2.00,-1.00,-4.00
+7.00,+2.00,+1.00,-1.00,-1.00,+1.00,-2.00,+1.00,+2.00,-1.00,-2.00,-5.00,-1.00,-1.00,+3.00,+7.00
+1.00,-4.00,-1.00,+0.00,+1.00,-8.00,-17.00,-16.00,-14.00,-6.00,-1.00,+0.00,+2.00,-2.00,-5.00,-6.00
-5.00,-6.00,-2.00,+0.00,+1.00,+0.00,+1.00,+7.00,+13.00,+1.00,+0.00,-1.00,-1.00,-2.00,+1.00,+2.00
+0.00,-4.00,-1.00,-3.00,-4.00,-5.00,-11.00,+3.00,-9.00,-5.00,-2.00,+2.00,+0.00,-4.00,-3.00,+0.00
-2.00,-6.00,-4.00,-1.00,-2.00,-1.00,+2.00,+3.00,-5.00,-1.00,+1.00,+2.00,+1.00,+1.00,-1.00,-6.00
-6.00,-9.00,-5.00,-2.00,-2.00,+3.00,+1.00,-5.00,+10.00,+2.00,-3.00,-1.00,-2.00,-1.00,+0.00,+3.00
+12.00,-11.00,+0.00,+2.00,+5.00,+0.00,-4.00,-6.00,-1.00,-3.00,-3.00,-13.00,-10.00,-3.00,-1.00,-5.00
+10.00,+21.00,+1.00,+0.00,+1.00,+0.00,-6.00,-2.00,-10.00,+0.00,-2.00,+0.00,+2.00,+0.00,-1.00,+0.00
-7.00,-15.00,-1.00,-2.00,-3.00,+2.00,+4.00,+2.00,-7.00,-6.00,+0.00,+7.00,+1.00,-1.00,-2.00,-6.00
-4.00,+5.00,+2.00,+2.00,+0.00,-2.00,-2.00,+0.00,-4.00,-3.00,-2.00,-7.00,-3.00,-2.00,+5.00,+5.00
-6.00,-1.00,-4.00,-2.00,-2.00,-4.00,-3.00,+1.00,-2.00,+1.00,-3.00,-3.00,-2.00,-1.00,-1.00,-2.00
-14.00,-8.00,-4.00,-4.00,-4.00,+1.00,-2.00,-2.00,+5.00,+1.00,+0.00,-3.00,+0.00,+1.00,-4.00,+10.00
+11.00,+4.00,+1.00,-4.00,-3.00,+1.00,+2.00,+2.00,-2.00,-2.00,-1.00,-2.00,+0.00,-2.00,-3.00,-10.00
-16.00,-18.00,-5.00,-2.00,+1.00,+3.00,+6.00,-6.00,-7.00,-4.00,+2.00,+3.00,+1.00,+2.00,+1.00,-4.00
+9.00,+23.00,+4.00,+0.00,-3.00,-2.00,-1.00,-4.00,+1.00,-2.00,-1.00,+1.00,-4.00,-1.00,-4.00,+0.00
-1.00,-7.00,+0.00,-1.00,+1.00,-1.00,+3.00,+0.00,-5.00,-3.00,-2.00,-1.00,-2.00,+0.00,-2.00,-8.00
+7.00,+11.00,+2.00,+2.00,+6.00,-5.00,-6.00,+6.00,-1.00,-5.00,-4.00,-2.00,-2.00,-2.00,+5.00,+5.00
-3.00,-8.00,-1.00,-2.00,+1.00,+2.00,+4.00,+6.00,-3.00,-1.00,-2.00,-4.00,-2.00,-2.00,-1.00,+1.00
+1.00,-9.00,-2.00,+1.00,+0.00,+0.00,-7.00,+4.00,+15.00,+5.00,+3.00,+4.00,-2.00,-1.00,+3.00,-4.00
+1.00,-3.00,-1.00,+0.00,-4.00,-2.00,-2.00,+6.00,-9.00,-3.00,-1.00,+0.00,+1.00,+1.00,-1.00,-6.00
-13.00,+0.00,-3.00,-1.00,-2.00,-3.00,-4.00,-9.00,+3.00,+4.00,-1.00,-8.00,-6.00,-2.00,-6.00,-1.00
+2.00,+5.00,+1.00,+0.00,-1.00,+3.00,+4.00,-14.00,-3.00,-5.00,-3.00,+0.00,-1.00,-1.00,+2.00,+0.00
-4.00,-10.00,-3.00,-1.00,-1.00,+1.00,+7.00,+1.00,-7.00,-2.00,+1.00,+1.00,+1.00,-2.00,-5.00,+0.00
+7.00,+14.00,+1.00,-1.00,-1.00,+2.00,+2.00,+5.00,-7.00,-3.00,-2.00,-2.00,-2.00,-3.00,-4.00,-9.00
-4.00,-14.00,-2.00,-1.00,-1.00,+3.00,+1.00,-1.00,+5.00,+4.00,+3.00,-7.00,-3.00,-2.00,+0.00,+7.00
+7.00,+16.00,+2.00,+0.00,-3.00,-2.00,+2.00,+3.00,+11.00,+3.00,+1.00,+0.00,+5.00,-1.00,-4.00,+4.00
+7.00,+0.00,-1.00,-3.00,-2.00,+1.00,+0.00,+1.00,-5.00,-4.00,-3.00,-1.00,+0.00,+3.00,+3.00,+3.00
-12.00,-12.00,-3.00,+1.00,-1.00,-5.00,-3.00,-8.00,+2.00,+0.00,-1.00,-4.00,-3.00,-2.00,-5.00,-5.00
-5.00,-9.00,-4.00,-3.00,+3.00,+0.00,-2.00,-6.00,-11.00,-5.00,-2.00,+3.00,+1.00,-1.00,-3.00,-3.00
+5.00,-4.00,+1.00,-2.00,-2.00,-2.00,+1.00,+5.00,+2.00,+2.00,+2.00,+0.00,+3.00,+0.00,+0.00,-5.00
+6.00,+24.00,+5.00,+1.00,-1.00,+1.00,-1.00,+5.00,-8.00,-5.00,-2.00,+0.00,-5.00,-5.00,-1.00,+2.00
-8.00,-8.00,-4.00,-1.00,-1.00,+0.00,+0.00,-5.00,-2.00,-2.00,-1.00,-3.00,-2.00,+0.00,+3.00,-2.00
+1.00,+3.00,+0.00,+1.00,-1.00,+0.00,-2.00,-3.00,+9.00,+5.00,+1.00,+3.00,+1.00,+0.00,+3.00,+5.00
-12.00,-18.00,-7.00,-2.00,-2.00,-1.00,+0.00,-1.00,-7.00,-1.00,-1.00,-1.00,-6.00,-3.00,-7.00,-2.00
-1.00,-11.00,-2.00,-2.00,-1.00,-4.00,-1.00,-2.00,-2.00,-3.00,-3.00,+1.00,+2.00,+0.00,-2.00,-2.00
+4.00,+7.00,+1.00,-1.00,-1.00,-4.00,+1.00,+0.00,-2.00,+3.00,+3.00,+1.00,+1.00,-1.00,-3.00,-1.00
-10.00,-6.00,-1.00,+1.00,+1.00,-3.00,-3.00,-8.00,-6.00,-15.00,-5.00,-3.00,-1.00,-1.00,+6.00,-3.00
-1.00,-5.00,-1.00,+0.00,-1.00,+1.00,-4.00,+0.00,+7.00,+5.00,+6.00,+2.00,-1.00,+2.00,-4.00,+0.00
+2.00,+8.00,-3.00,-2.00,-4.00,+2.00,+3.00,+5.00,+4.00,+2.00,-4.00,-3.00,-1.00,+0.00,+5.00,+5.00
-5.00,+1.00,+1.00,+0.00,-1.00,+1.00,+4.00,+2.00,-2.00,-1.00,-2.00,+0.00,+0.00,-2.00,-3.00,+2.00
+3.00,-3.00,+0.00,+2.00,-2.00,+0.00,+0.00,+18.00,-5.00,+4.00,+5.00,+1.00,+1.00,-2.00,-5.00,-12.00
+0.00,+5.00,-4.00,-2.00,-4.00,+0.00,-4.00,+0.00,-4.00,-5.00,-8.00,-3.00,-2.00,-2.00,+4.00,+1.00
-5.00,-12.00,-5.00,-1.00,+2.00,+2.00,-2.00,-3.00,-4.00,-6.00,-3.00,+0.00,+1.00,-1.00,-5.00,-2.00
-5.00,-6.00,-3.00,-4.00,-3.00,-3.00,-6.00,+2.00,+0.00,-4.00,-4.00,-1.00,+0.00,-2.00,+1.00,+1.00
+0.00,+7.00,+1.00,+1.00,+0.00,-1.00,-3.00,-7.00,+2.00,+8.00,+4.00,+3.00,+1.00,+0.00,+3.00,+3.00
+0.00,-2.00,-2.00,-3.00,-2.00,+4.00,+7.00,+1.00,+2.00,-4.00,-1.00,-1.00,-1.00,-2.00,+0.00,+3.00
-4.00,-5.00,-2.00,+1.00,+3.00,-13.00,-16.00,-8.00,+1.00,+14.00,+5.00,-3.00,+0.00,-3.00,-8.00,-11.00
-2.00,-3.00,-1.00,-2.00,-5.00,-3.00,-1.00,-8.00,-4.00,-20.00,-7.00,-3.00,-2.00,+0.00,+2.00,+7.00
-1.00,-1.00,+0.00,-1.00,-1.00,+1.00,+1.00,+0.00,+1.00,+0.00,-4.00,-2.00,-4.00,-2.00,-3.00,-3.00
-1.00,+1.00,+1.00,-1.00,+0.00,+2.00,+9.00,+0.00,-2.00,+0.00,+1.00,+0.00,-2.00,+0.00,-1.00,-3.00
+4.00,+2.00,+1.00,-1.00,-1.00,-3.00,-5.00,-11.00,-1.00,-5.00,-3.00,+1.00,+0.00,-2.00,-6.00,-10.00
+1.00,-1.00,-2.00,-3.00,-1.00,-1.00,-2.00,-2.00,+1.00,+7.00,+6.00,+1.00,+0.00,+1.00,+5.00,+4.00
+6.00,+6.00,+0.00,-2.00,-1.00,+0.00,-1.00,+2.00,+1.00,-2.00,-2.00,-1.00,-1.00,-1.00,-2.00,+3.00
-9.00,-5.00,-2.00,-2.00,+2.00,-1.00,-6.00,+2.00,+0.00,+2.00,-1.00,-1.00,-2.00,-1.00,-3.00,-1.00
-2.00,-10.00,-3.00,-1.00,-1.00,+1.00,+6.00,+1.00,-3.00,+0.00,+1.00,+0.00,-1.00,+0.00,+7.00,+0.00
+8.00,+10.00,-1.00,+0.00,+2.00,-4.00,+1.00,+0.00,+3.00,+20.00,+4.00,-1.00,-3.00,-3.00,-1.00,-3.00
+1.00,-7.00,-1.00,-1.00,-2.00,+1.00,+3.00,+3.00,-10.00,-32.00,-14.00,-4.00,-5.00,+1.00,-10.00,-4.00
+0.00,+2.00,+1.00,+0.00,+0.00,-2.00,-7.00,-3.00,-2.00,-2.00,-7.00,-1.00,+0.00,-3.00,-6.00,-2.00
-1.00,+4.00,+4.00,+0.00,-2.00,+0.00,+3.00,+0.00,-5.00,-6.00,-2.00,-2.00,+1.00,+2.00,-1.00,-1.00
-9.00,-5.00,-4.00,-2.00,+0.00,-1.00,-7.00,-13.00,-2.00,-4.00,-5.00,-1.00,+0.00,-1.00,-1.00,-3.00
+0.00,+0.00,+3.00,+1.00,+1.00,-1.00,+0.00,-6.00,+4.00,+27.00,+8.00,+0.00,+2.00,-1.00,+4.00,+12.00
-4.00,-1.00,-2.00,-1.00,+1.00,-1.00,-2.00,+1.00,-4.00,-16.00,-1.00,-1.00,+2.00,-4.00,+1.00,-9.00
+2.00,-2.00,-2.00,+0.00,+0.00,+2.00,+2.00,-11.00,-3.00,-11.00,-3.00,+0.00,-2.00,-3.00,+1.00,+3.00
-6.00,-12.00,-4.00,-1.00,-3.00,-1.00,-2.00,+12.00,+0.00,-10.00,-7.00,-5.00,-3.00,-4.00,-9.00,-4.00
+2.00,+6.00,-1.00,+0.00,-3.00,-3.00,-3.00,-3.00,+2.00,+7.00,+1.00,+0.00,-2.00,+0.00,+3.00,+1.00
+3.00,+8.00,+2.00,+1.00,+0.00,-4.00,+0.00,+0.00,-1.00,+16.00,+5.00,+0.00,-1.00,+0.00,-1.00,-8.00
-5.00,-4.00,-1.00,+1.00,-1.00,+2.00,+1.00,-1.00,-1.00,-3.00,+2.00,-3.00,-3.00,-2.00,-4.00,-2.00
-4.00,+1.00,+3.00,+1.00,+1.00,+1.00,-5.00,-11.00,-5.00,-21.00,-6.00,-1.00,+0.00,+1.00,+7.00,-3.00
+9.00,-11.00,-8.00,-1.00,+1.00,-2.00,-3.00,+7.00,+3.00,+2.00,-2.00,-3.00,-1.00,-2.00,-3.00,+0.00
+5.00,+11.00,+6.00,+0.00,-4.00,-3.00,-1.00,+5.00,+1.00,+3.00,+1.00,-1.00,+1.00,+0.00,-2.00,+2.00
-4.00,-6.00,-3.00,+0.00,-1.00,+0.00,+5.00,+4.00,-1.00,+2.00,-1.00,+1.00,+0.00,-2.00,+5.00,+1.00
+2.00,-2.00,+2.00,+0.00,-1.00,-2.00,-1.00,+3.00,+1.00,+4.00,-2.00,-3.00,+0.00,+0.00,-9.00,+6.00
-5.00,+0.00,-4.00,-3.00,-2.00,-3.00,+0.00,-6.00,-5.00,-4.00,-2.00,-2.00,+0.00,+0.00,+7.00,-5.00
+3.00,+1.00,-2.00,+0.00,+0.00,+1.00,+0.00,+2.00,+2.00,+2.00,+0.00,-1.00,-1.00,+1.00,-3.00,+3.00
-1.00,+1.00,-1.00,+0.00,-1.00,-1.00,-3.00,+6.00,-2.00,-3.00,+0.00,-1.00,+1.00,-2.00,-8.00,-5.00
-1.00,+0.00,-1.00,+1.00,+1.00,+1.00,-1.00,-6.00,+1.00,+5.00,+7.00,+1.00,+0.00,+0.00,+3.00,+2.00
-3.00,-1.00,-3.00,-1.00,-1.00,-2.00,+0.00,-2.00,-2.00,-5.00,-8.00,+0.00,-1.00,-2.00,-2.00,-2.00
-6.00,-7.00,-3.00,-1.00,-2.00,-3.00,-2.00,-8.00,-2.00,-7.00,-3.00,-2.00,-2.00,-4.00,+1.00,-7.00
-4.00,+8.00,+1.00,-4.00,-2.00,+0.00,+2.00,+3.00,+3.00,+3.00,-1.00,-1.00,-2.00,-2.00,+1.00,+2.00
+1.00,-1.00,+1.00,-1.00,+0.00,+4.00,+1.00,+4.00,+1.00,+1.00,+3.00,+1.00,-3.00,-3.00,+1.00,+5.00
+7.00,+5.00,+2.00,+0.00,+1.00,+1.00,-1.00,-19.00,-1.00,+13.00,+5.00,+1.00,+0.00,-1.00,-10.00,-13.00
+3.00,-4.00,-1.00,+2.00,+0.00,+0.00,+2.00,+2.00,+7.00,+12.00,+8.00,+3.00,+1.00,+1.00,+5.00,+5.00
-6.00,-13.00,-6.00,+0.00,-1.00,+0.00,-1.00,-6.00,-9.00,-31.00,-18.00,-6.00,-2.00,+2.00,-2.00,-1.00
+4.00,+0.00,+4.00,-4.00,-2.00,-3.00,+0.00,+4.00,-6.00,-15.00,-9.00,-4.00,+1.00,-2.00,+3.00,-1.00
-6.00,+3.00,-1.00,-2.00,+0.00,+1.00,-2.00,-10.00,-1.00,-3.00,-1.00,+0.00,-2.00,-2.00,-8.00,+3.00
+2.00,+7.00,+4.00,+0.00,+1.00,-3.00,-3.00,+4.00,+2.00,+4.00,+0.00,+0.00,-1.00,+4.00,+1.00,+11.00
-1.00,-8.00,-2.00,-1.00,-3.00,-4.00,-4.00,-4.00,-5.00,+7.00,+5.00,+1.00,+0.00,+0.00,-4.00,-15.00
+11.00,+1.00,-3.00,+3.00,+1.00,+2.00,+5.00,+9.00,+1.00,+3.00,+1.00,+0.00,-1.00,+1.00,+2.00,-4.00
-2.00,+1.00,+3.00,-2.00,+0.00,+0.00,+1.00,+6.00,-5.00,-7.00,-4.00,-3.00,-3.00,-4.00,+8.00,-4.00
+0.00,+2.00,-1.00,-3.00,-1.00,+1.00,-6.00,+1.00,-1.00,-5.00,-6.00,-1.00,+0.00,-5.00,-6.00,-2.00
-3.00,+2.00,+0.00,-2.00,+0.00,+0.00,+1.00,-2.00,+0.00,+8.00,+2.00,-2.00,-1.00,+0.00,-1.00,+5.00
-1.00,-4.00,-3.00,-1.00,-2.00,-2.00,-4.00,-3.00,-2.00,-6.00,-3.00,-3.00,-3.00,-3.00,-8.00,-5.00
-2.00,-2.00,+0.00,+1.00,-6.00,-2.00,+1.00,+3.00,-1.00,+2.00,+5.00,+1.00,+0.00,+0.00,-3.00,-4.00
-5.00,-5.00,-2.00,+1.00,+0.00,+2.00,-2.00,-7.00,+1.00,-6.00,-3.00,-1.00,+0.00,+1.00,+2.00,+4.00
+0.00,-2.00,-3.00,-2.00,-1.00,+0.00,-4.00,+1.00,-7.00,-10.00,-7.00,+1.00,-1.00,-2.00,-3.00,-6.00
-5.00,-4.00,-2.00,+0.00,-2.00,-3.00,-5.00,-9.00,+3.00,+9.00,+1.00,+0.00,-4.00,+0.00,+3.00,+1.00
-1.00,-1.00,-3.00,+0.00,+1.00,+1.00,-1.00,+4.00,+1.00,+0.00,+1.00,+0.00,+0.00,+0.00,+2.00,+0.00
-2.00,-8.00,-9.00,-3.00,-6.00,-5.00,-3.00,-8.00,-1.00,-6.00,-3.00,-6.00,-3.00,-2.00,-3.00,-1.00
