+0.00,+1.00,-4.00,-4.00,-2.00,-1.00,+0.00,+2.00,-4.00,-3.00,-1.00,+0.00,+1.00,-3.00,-4.00,-8.00
+10.00,+2.00,+1.00,+1.00,+1.00,+1.00,+0.00,+1.00,-2.00,-3.00,+0.00,-2.00,-1.00,+0.00,-1.00,+0.00
-10.00,-1.00,-2.00,-2.00,-3.00,-1.00,+2.00,+1.00,+1.00,-1.00,-2.00,-1.00,+0.00,-1.00,+0.00,-2.00
-5.00,-3.00,-1.00,-3.00,+0.00,-1.00,-4.00,-19.00,-1.00,+0.00,+1.00,-1.00,-1.00,-1.00,-2.00,+3.00
+7.00,-2.00,+0.00,+0.00,+1.00,+0.00,+0.00,-2.00,+0.00,+2.00,-1.00,+1.00,-3.00,-1.00,+1.00,-4.00
-1.00,-6.00,-2.00,-2.00,-1.00,-3.00,+1.00,-2.00,-1.00,-1.00,-2.00,-1.00,-1.00,-1.00,-7.00,+7.00
-3.00,-4.00,-1.00,-2.00,+1.00,-1.00,-2.00,-7.00,-4.00,-3.00,+2.00,+0.00,+1.00,+2.00,+3.00,-2.00
+14.00,+4.00,+0.00,+0.00,+2.00,-3.00,-2.00,-1.00,-3.00,-1.00,+0.00,-1.00,+0.00,-3.00,-7.00,-8.00
+5.00,+5.00,-1.00,-1.00,+0.00,-1.00,+2.00,+15.00,-4.00,-5.00,+0.00,+0.00,-1.00,-5.00,-7.00,-2.00
-3.00,-1.00,+0.00,+0.00,+0.00,-1.00,-4.00,-13.00,+4.00,+4.00,-3.00,-6.00,-6.00,-5.00,-6.00,+2.00
+0.00,+2.00,-1.00,+0.00,-2.00,+0.00,-1.00,-2.00,+5.00,+6.00,+0.00,+1.00,+0.00,+8.00,+26.00,+13.00
-3.00,-6.00,-2.00,-1.00,-1.00,-2.00,-5.00,-10.00,-5.00,-7.00,-5.00,-3.00,-1.00,+1.00,-3.00,-7.00
-2.00,-1.00,+0.00,+0.00,-1.00,-1.00,+1.00,+6.00,-5.00,+1.00,-2.00,-2.00,+0.00,+3.00,+9.00,-2.00
-2.00,-3.00,-5.00,-4.00,-5.00,-2.00,-4.00,-7.00,-12.00,-12.00,+0.00,+1.00,+1.00,-3.00,-6.00,+4.00
-3.00,-2.00,-2.00,-1.00,-1.00,-2.00,+2.00,-2.00,+12.00,-1.00,+0.00,+1.00,-2.00,-3.00,-10.00,+3.00
+1.00,-4.00,-1.00,+0.00,+0.00,+0.00,-4.00,+0.00,+10.00,+4.00,+0.00,-4.00,-4.00,-2.00,+4.00,+25.00
-4.00,-1.00,+0.00,+0.00,-2.00,-5.00,-2.00,-5.00,-1.00,+0.00,-4.00,-4.00,-2.00,-3.00,-1.00,+1.00
-10.00,-3.00,-3.00,+0.00,-2.00,+0.00,-2.00,+18.00,-14.00,-2.00,-2.00,+0.00,-2.00,+1.00,-2.00,-36.00
+2.00,+1.00,-1.00,-1.00,+3.00,-1.00,+2.00,+2.00,-8.00,-5.00,-3.00,-3.00,+0.00,-1.00,-4.00,-12.00
+4.00,-4.00,-3.00,-1.00,-1.00,-1.00,+2.00,-11.00,+5.00,+5.00,-3.00,-2.00,-2.00,-1.00,-11.00,-1.00
-1.00,+1.00,-3.00,-2.00,-1.00,-1.00,+2.00,-3.00,-1.00,-2.00,+0.00,-1.00,+0.00,+0.00,+3.00,+11.00
-8.00,-3.00,+1.00,+1.00,+2.00,+1.00,+4.00,+12.00,+13.00,+5.00,+2.00,+0.00,-3.00,-2.00,+4.00,+17.00
-2.00,-16.00,-6.00,-3.00,-1.00,+0.00,-6.00,+7.00,-9.00,-6.00,-2.00,-2.00,+1.00,-2.00,-3.00,-10.00
+15.00,+6.00,+1.00,+0.00,+1.00,+2.00,+3.00,+22.00,+4.00,-3.00,+0.00,-2.00,+1.00,-2.00,+4.00,+12.00
-14.00,-8.00,-2.00,-1.00,-3.00,-3.00,-5.00,-16.00,-4.00,+0.00,-1.00,+1.00,+2.00,+1.00,-9.00,+0.00
+19.00,+12.00,+1.00,-2.00,+0.00,+2.00,+0.00,-8.00,-4.00,-2.00,-1.00,+2.00,+0.00,-5.00,-20.00,-16.00
+0.00,+3.00,+2.00,+1.00,-2.00,-3.00,+4.00,+7.00,-15.00,-13.00,-4.00,+1.00,-2.00,-3.00,+11.00,+0.00
-6.00,-6.00,+1.00,+3.00,+0.00,-2.00,-3.00,+7.00,+2.00,+4.00,-5.00,-9.00,-9.00,-2.00,+9.00,+12.00
-13.00,-5.00,-3.00,+1.00,+4.00,+3.00,+2.00,+1.00,+10.00,+12.00,+0.00,-1.00,-3.00,-1.00,-25.00,+1.00
+5.00,+0.00,-5.00,-3.00,-3.00,-2.00,+3.00,+19.00,+12.00,+10.00,+2.00,-3.00,-3.00,+2.00,+1.00,+1.00
+18.00,+5.00,-1.00,-1.00,+2.00,-4.00,-5.00,-2.00,-4.00,+5.00,+5.00,+3.00,+0.00,+1.00,-8.00,-22.00
-5.00,-4.00,-1.00,-1.00,+0.00,-2.00,-3.00,-11.00,-9.00,-3.00,+0.00,+0.00,-1.00,-3.00,-4.00,-3.00
+0.00,-1.00,+0.00,-4.00,+0.00,-4.00,-4.00,+2.00,-1.00,-17.00,-3.00,-1.00,+0.00,+2.00,+22.00,+30.00
-11.00,-2.00,-1.00,+0.00,-3.00,-11.00,-9.00,-10.00,+1.00,+2.00,-1.00,+1.00,+0.00,-9.00,-3.00,+21.00
-8.00,-9.00,-5.00,-2.00,+2.00,+10.00,+7.00,-6.00,+7.00,+4.00,-2.00,-3.00,-1.00,+12.00,-5.00,-6.00
-6.00,+7.00,+1.00,+0.00,-1.00,-1.00,-2.00,+5.00,-6.00,-3.00,+0.00,+2.00,+0.00,-2.00,-1.00,-9.00
+1.00,+3.00,+2.00,-1.00,-3.00,+0.00,-2.00,-11.00,+1.00,+0.00,-1.00,-2.00,-5.00,-8.00,-3.00,-26.00
-6.00,-13.00,-3.00,-2.00,-3.00,-6.00,-6.00,-8.00,-1.00,-4.00,-3.00,-2.00,+2.00,+2.00,+10.00,+8.00
+1.00,-3.00,-1.00,-3.00,-5.00,-6.00,-5.00,-8.00,-1.00,-3.00,-2.00,-4.00,-2.00,+0.00,+5.00,+15.00
-17.00,-7.00,-1.00,+1.00,+2.00,+4.00,-2.00,-19.00,-4.00,+0.00,-1.00,+2.00,-2.00,-3.00,-3.00,-15.00
+5.00,+3.00,-1.00,-2.00,+0.00,+0.00,-2.00,-12.00,-14.00,-11.00,-1.00,+3.00,+2.00,+5.00,+3.00,+7.00
+20.00,+13.00,+6.00,+5.00,+6.00,+12.00,+30.00,+9.00,+0.00,+1.00,-1.00,-4.00,-6.00,-13.00,-1.00,-14.00
+7.00,+10.00,+3.00,+4.00,+0.00,+7.00,+2.00,+16.00,+5.00,+4.00,-4.00,-3.00,-4.00,-5.00,-5.00,+6.00
-4.00,-23.00,-4.00,-2.00,-4.00,-12.00,-22.00,+5.00,-1.00,+2.00,+2.00,+0.00,+2.00,+1.00,-8.00,-5.00
+13.00,+22.00,+5.00,+1.00,-4.00,+4.00,+17.00,+13.00,-13.00,-6.00,+1.00,+2.00,-1.00,-5.00,-19.00,-22.00
-7.00,+0.00,-1.00,-1.00,-4.00,-1.00,-12.00,-29.00,+17.00,+10.00,-2.00,-1.00,+3.00,+3.00,+29.00,-6.00
-4.00,+2.00,+0.00,-1.00,-1.00,-3.00,-4.00,-13.00,+6.00,+1.00,-7.00,-4.00,-3.00,+7.00,+17.00,+28.00
+2.00,-5.00,-2.00,-2.00,+1.00,+3.00,+7.00,+7.00,-30.00,-13.00,-4.00,-2.00,-5.00,-7.00,-6.00,-4.00
-11.00,-6.00,-3.00,-1.00,-1.00,-4.00,-7.00,-10.00,+44.00,+9.00,-1.00,+0.00,-2.00,+3.00,+9.00,+57.00
-7.00,-10.00,-4.00,-3.00,+0.00,+0.00,+1.00,+3.00,-15.00,-4.00,+4.00,+3.00,+3.00,+0.00,-23.00,-71.00
-12.00,+0.00,+2.00,+0.00,+2.00,-2.00,-6.00,-3.00,-42.00,-18.00,-4.00,-1.00,-2.00,-16.00,-17.00,-25.00
+4.00,+5.00,-2.00,-1.00,-2.00,-3.00,-1.00,-19.00,+18.00,+1.00,+1.00,+3.00,+6.00,+20.00,+28.00,+11.00
+1.00,-8.00,-1.00,-1.00,-3.00,-7.00,-8.00,+11.00,-13.00,-4.00,-1.00,-4.00,-4.00,-12.00,-17.00,-5.00
-3.00,+6.00,+1.00,+0.00,+1.00,+6.00,+8.00,-5.00,-5.00,-5.00,-3.00,-1.00,-2.00,+3.00,+16.00,+10.00
+15.00,+7.00,-1.00,+1.00,+1.00,+2.00,+7.00,+11.00,+13.00,+13.00,+0.00,+1.00,+1.00,+3.00,+10.00,+1.00
-6.00,-2.00,+0.00,+1.00,+0.00,+0.00,+1.00,-5.00,-9.00,-10.00,-6.00,-5.00,-8.00,-6.00,-5.00,+4.00
-3.00,+6.00,+0.00,-1.00,-1.00,+4.00,-5.00,-16.00,+9.00,+12.00,+0.00,+2.00,+1.00,+2.00,+8.00,-2.00
-22.00,-2.00,+0.00,-2.00,-3.00,-3.00,-7.00,-5.00,-1.00,-5.00,-2.00,-1.00,+3.00,+7.00,-8.00,+13.00
-14.00,-14.00,-8.00,-5.00,-7.00,-11.00,-21.00,-10.00,-11.00,-8.00,-1.00,-1.00,-2.00,-10.00,-19.00,-34.00
-16.00,-6.00,-7.00,-3.00,+2.00,+8.00,+20.00,-43.00,+23.00,+7.00,+0.00,+1.00,+1.00,-8.00,-6.00,+33.00
+42.00,+31.00,+11.00,+9.00,+5.00,-1.00,+5.00,+45.00,-7.00,-8.00,-2.00,-1.00,+3.00,+18.00,+24.00,-11.00
+7.00,-8.00,-3.00,-1.00,-5.00,+6.00,+6.00,+4.00,-5.00,-8.00,-3.00,-1.00,-8.00,-7.00,+3.00,+24.00
-3.00,-10.00,-2.00,-1.00,+0.00,-4.00,-3.00,+17.00,+0.00,+1.00,+4.00,+0.00,+0.00,-5.00,-19.00,-22.00
-1.00,+31.00,+4.00,+2.00,-2.00,-4.00,-13.00,-9.00,-8.00,-6.00,-3.00,-3.00,-1.00,-5.00,-9.00,-27.00
-19.00,-12.00,-6.00,-6.00,-4.00,-3.00,-12.00,-14.00,-11.00,+2.00,+1.00,+3.00,+3.00,-2.00,+7.00,-26.00
+8.00,-4.00,-2.00,-2.00,+1.00,+1.00,+17.00,+4.00,+24.00,+3.00,-5.00,-3.00,+2.00,+1.00,+11.00,+69.00
+2.00,-1.00,+2.00,+2.00,-3.00,+0.00,-4.00,-2.00,-12.00,+1.00,+1.00,-1.00,+2.00,+1.00,-12.00,+11.00
+2.00,-6.00,+0.00,-1.00,+0.00,-2.00,+4.00,+20.00,-3.00,-1.00,+7.00,+3.00,+0.00,-1.00,-7.00,-58.00
-2.00,-11.00,-1.00,+0.00,+3.00,+4.00,+8.00,-17.00,+0.00,-1.00,-3.00,-5.00,-2.00,+7.00,+0.00,-18.00
+4.00,-1.00,+0.00,+0.00,+0.00,-8.00,-20.00,+5.00,-4.00,-2.00,+1.00,+1.00,+4.00,+6.00,-9.00,+9.00
-13.00,-5.00,-6.00,-8.00,-8.00,-6.00,+4.00,-10.00,+28.00,+7.00,-2.00,-2.00,-5.00,-4.00,+4.00,+24.00
-3.00,+7.00,+1.00,-1.00,-2.00,+8.00,+5.00,-9.00,+0.00,-1.00,-6.00,-2.00,-5.00,-12.00,+2.00,+13.00
-5.00,-1.00,+1.00,+0.00,-2.00,-8.00,-18.00,-17.00,-6.00,+9.00,+1.00,+2.00,+4.00,-4.00,-13.00,-31.00
-3.00,+3.00,+0.00,-1.00,-1.00,+1.00,-2.00,-4.00,+3.00,+2.00,-2.00,-9.00,-14.00,-12.00,-21.00,+8.00
+15.00,+8.00,+2.00,+2.00,+5.00,+7.00,+10.00,+0.00,-10.00,-11.00,-1.00,+1.00,+2.00,+18.00,+29.00,+7.00
+12.00,+3.00,-2.00,-3.00,-3.00,-5.00,-8.00,-2.00,-2.00,+1.00,+1.00,+2.00,+1.00,+5.00,+0.00,+1.00
-37.00,-18.00,-10.00,-5.00,+0.00,-4.00,-12.00,-24.00,+3.00,-2.00,-2.00,-1.00,-2.00,-2.00,+2.00,-1.00
-7.00,-22.00,-7.00,-1.00,+0.00,-6.00,-10.00,-18.00,-7.00,-5.00,-1.00,+3.00,+7.00,-1.00,-5.00,-28.00
+21.00,+1.00,-1.00,-1.00,+0.00,-5.00,+7.00,+14.00,-10.00,-8.00,-5.00,-3.00,-3.00,-7.00,+1.00,+10.00
+21.00,+38.00,+11.00,+4.00,-2.00,-3.00,+4.00,+24.00,+1.00,+7.00,+4.00,+2.00,+1.00,-8.00,-9.00,-10.00
+19.00,+7.00,+4.00,+5.00,+5.00,+15.00,+19.00,+15.00,+3.00,+0.00,+0.00,+0.00,-3.00,-9.00,-5.00,+17.00
-14.00,-7.00,-5.00,-6.00,-5.00,-13.00,-16.00,+1.00,-13.00,-3.00,-1.00,-2.00,+0.00,+19.00,+24.00,+3.00
-29.00,-3.00,+0.00,-1.00,+0.00,-5.00,-15.00,-13.00,+22.00,+7.00,-1.00,-3.00,-7.00,-6.00,-25.00,-5.00
-3.00,-30.00,-10.00,-7.00,-1.00,+13.00,+48.00,+13.00,+7.00,+1.00,+0.00,+1.00,+1.00,+9.00,+21.00,-11.00
+0.00,-3.00,-1.00,-2.00,-6.00,-2.00,-1.00,+8.00,-53.00,-16.00,-4.00,-2.00,+4.00,+3.00,-18.00,+19.00
+1.00,+18.00,+3.00,+5.00,+4.00,+4.00,-4.00,+5.00,-7.00,-4.00,+3.00,+1.00,-11.00,-33.00,-15.00,-38.00
+0.00,-8.00,-3.00,+1.00,-4.00,+4.00,+3.00,-13.00,+15.00,+5.00,+3.00,+3.00,+1.00,+14.00,+39.00,+11.00
-6.00,-3.00,-7.00,-5.00,-5.00,-12.00,-25.00,-9.00,+0.00,-9.00,-6.00,-2.00,+0.00,-1.00,-17.00,+12.00
-21.00,-3.00,+1.00,-1.00,+0.00,+0.00,+7.00,-32.00,+32.00,+15.00,+1.00,+1.00,+5.00,+13.00,+21.00,+31.00
+2.00,+3.00,+2.00,+1.00,+0.00,-2.00,+1.00,-9.00,-44.00,-52.00,-15.00,-14.00,-11.00,-10.00,+5.00,+26.00
-23.00,-2.00,-3.00,-4.00,-3.00,-15.00,-23.00,-15.00,-10.00,+19.00,-3.00,-2.00,+7.00,+12.00,+5.00,-30.00
+34.00,+8.00,+5.00,+5.00,+10.00,+24.00,+27.00,+15.00,+7.00,-1.00,+0.00,+1.00,-1.00,-3.00,-7.00,+2.00
-6.00,-10.00,-3.00,-1.00,-3.00,+1.00,+5.00,+14.00,-12.00,-10.00,-5.00,-9.00,-13.00,-17.00,-1.00,-6.00
+38.00,+24.00,+6.00,+2.00,-2.00,+0.00,+1.00,+30.00,+13.00,+12.00,+2.00,+2.00,+3.00,+3.00,-25.00,-20.00
+14.00,+11.00,+3.00,+3.00,-2.00,-7.00,-19.00,+5.00,+21.00,+0.00,-4.00,-1.00,-1.00,-13.00,+24.00,+54.00
-43.00,-35.00,-6.00,-2.00,-3.00,-5.00,-19.00,-31.00,-27.00,-17.00,-1.00,+3.00,+10.00,+21.00,+17.00,-1.00
+14.00,-1.00,+0.00,-1.00,-2.00,-12.00,-30.00,-17.00,-5.00,-8.00,+3.00,+5.00,+4.00,-13.00,-60.00,-21.00
-3.00,-6.00,-3.00,-3.00,-1.00,-4.00,+19.00,+26.00,+0.00,-3.00,-6.00,-5.00,-9.00,+13.00,+49.00,-16.00
+13.00,+17.00,+3.00,+0.00,+0.00,+13.00,+4.00,+6.00,+8.00,+8.00,+1.00,-5.00,-9.00,-20.00,-40.00,-17.00
+30.00,+4.00,+6.00,+6.00,+1.00,-1.00,-8.00,+18.00,-43.00,+29.00,+17.00,+6.00,+0.00,-5.00,-21.00,-7.00
-17.00,-16.00,-5.00,-2.00,-4.00,+0.00,-11.00,-1.00,-9.00,-51.00,-21.00,-1.00,+4.00,+12.00,+44.00,+19.00
-12.00,-26.00,-5.00,-3.00,-4.00,-6.00,-9.00,-32.00,-2.00,-2.00,-9.00,-6.00,+0.00,-1.00,-45.00,-55.00
+5.00,+30.00,+9.00,+4.00,+10.00,+0.00,-6.00,+14.00,+37.00,+10.00,-1.00,-3.00,-8.00,-12.00,+19.00,+88.00
+30.00,+11.00,-3.00,+0.00,+1.00,+3.00,+28.00,+19.00,-10.00,-6.00,+1.00,+2.00,+6.00,-7.00,-23.00,-80.00
+10.00,+10.00,+7.00,+5.00,+4.00,+6.00,+37.00,+38.00,+42.00,+28.00,-1.00,-14.00,-10.00,+0.00,+18.00,+31.00
-11.00,+1.00,-5.00,-3.00,-4.00,+3.00,-15.00,-16.00,-16.00,+3.00,+10.00,+12.00,+10.00,+9.00,+8.00,+5.00
-30.00,-23.00,-6.00,-5.00,-4.00,+3.00,+12.00,+8.00,-4.00,-11.00,+0.00,+2.00,+12.00,+22.00,-15.00,+2.00
-20.00,-7.00,-2.00,-4.00,-5.00,-10.00,-13.00,-20.00,+30.00,+24.00,+0.00,-3.00,-12.00,-17.00,+16.00,+41.00
+3.00,-4.00,-5.00,-6.00,-1.00,-20.00,-39.00,-33.00,+4.00,+8.00,+5.00,+2.00,-11.00,-10.00,+41.00,+5.00
-26.00,+1.00,+1.00,+0.00,+5.00,+16.00,+40.00,+16.00,-12.00,-6.00,-3.00,-1.00,-2.00,-6.00,-3.00,-45.00
-10.00,-40.00,+0.00,+4.00,+6.00,+34.00,+16.00,-41.00,-10.00,+4.00,+9.00,+3.00,+4.00,-2.00,-30.00,+5.00
-6.00,+2.00,-1.00,-3.00,-7.00,-17.00,-12.00,+8.00,-18.00,-42.00,-19.00,-13.00,-11.00,-10.00,-19.00,-5.00
+38.00,+37.00,-6.00,+0.00,+1.00,+14.00,+13.00,+6.00,+52.00,+50.00,+18.00,+15.00,+16.00,+15.00,-7.00,-37.00
-20.00,-1.00,+10.00,-1.00,-7.00,-9.00,-12.00,+10.00,-1.00,+32.00,+9.00,+1.00,+2.00,+4.00,+6.00,-6.00
-16.00,+23.00,+2.00,+1.00,-2.00,-8.00,+7.00,-18.00,+14.00,-25.00,-15.00,-3.00,+2.00,+3.00,+2.00,+31.00
-38.00,-47.00,-14.00,-13.00,-15.00,-18.00,-25.00,-34.00,-57.00,-68.00,-24.00,-14.00,-9.00,-10.00,+4.00,-50.00
+18.00,-5.00,+4.00,+5.00,+12.00,+13.00,+11.00,+23.00,-4.00,-5.00,-2.00,-6.00,-3.00,+1.00,-25.00,-21.00
-28.00,+1.00,-4.00,+2.00,+1.00,+6.00,+39.00,-9.00,+11.00,+33.00,+19.00,+3.00,-2.00,+4.00,+7.00,+30.00
+64.00,+24.00,+5.00,-1.00,-4.00,-9.00,+10.00,+47.00,-1.00,-12.00,-4.00,+4.00,+11.00,+21.00,+9.00,+36.00
-27.00,+4.00,-4.00,-7.00,-14.00,-43.00,-93.00,-14.00,+58.00,+21.00,+3.00,+1.00,+2.00,+3.00,-8.00,-33.00
-4.00,+11.00,+0.00,-2.00,+1.00,+21.00,+51.00,-10.00,-48.00,-13.00,-6.00,-6.00,-9.00,-19.00,-42.00,-22.00
+31.00,+1.00,-2.00,+0.00,+2.00,-4.00,-43.00,-3.00,+13.00,+30.00,+17.00,+8.00,+7.00,+2.00,+24.00,+68.00
+22.00,+17.00,+1.00,+2.00,+1.00,+13.00,-9.00,-16.00,-11.00,-28.00,-6.00,+0.00,-6.00,-13.00,-13.00,-74.00
-34.00,-22.00,-2.00,+2.00,-4.00,-25.00,-50.00,-1.00,+24.00,-5.00,-11.00,-10.00,-10.00,-2.00,+11.00,+80.00
-21.00,-21.00,-3.00,-5.00,-1.00,+7.00,+47.00,-50.00,-58.00,-24.00,-2.00,+6.00,+11.00,-8.00,-34.00,-28.00
-2.00,-3.00,-10.00,+5.00,+13.00,+14.00,+32.00,+63.00,+13.00,+31.00,+7.00,-2.00,-6.00,+0.00,-43.00,-51.00
+6.00,-14.00,+7.00,-3.00,-3.00,-12.00,-7.00,-2.00,+5.00,+15.00,+14.00,+9.00,+5.00,+5.00,+57.00,+34.00
+38.00,+12.00,+2.00,+8.00,+21.00,+50.00,+66.00,+71.00,+43.00,+27.00,+10.00,+8.00,+15.00,+5.00,-6.00,+60.00
+70.00,+77.00,+23.00,+7.00,-4.00,-15.00,-7.00,+19.00,-33.00,-17.00,-22.00,-26.00,-44.00,-37.00,-43.00,-61.00
-22.00,-30.00,-19.00,-6.00,-2.00,+17.00,+18.00,-37.00,+11.00,-33.00,-18.00,+1.00,+12.00,+17.00,+21.00,+45.00
-2.00,+5.00,-6.00,-8.00,-5.00,-6.00,+21.00,+47.00,-81.00,-46.00,-8.00,-5.00,-10.00,-20.00,-25.00,-57.00
-67.00,-31.00,-14.00,-12.00,-7.00,-11.00,-5.00,-111.00,+39.00,+63.00,+25.00,+2.00,+2.00,+17.00,+10.00,+34.00
-5.00,-37.00,+7.00,+7.00,+3.00,-1.00,-24.00,+42.00,+51.00,+45.00,+16.00,+0.00,-4.00,-2.00,+8.00,-42.00
+37.00,+27.00,+0.00,+0.00,-9.00,-25.00,-38.00,-16.00,-4.00,-47.00,-26.00,-8.00,-15.00,-26.00,-22.00,+8.00
+38.00,+8.00,-1.00,+5.00,+8.00,+22.00,+19.00,+25.00,-13.00,+25.00,+6.00,-7.00,-8.00,-3.00,-45.00,-90.00
-31.00,+14.00,-3.00,-10.00,-9.00,-5.00,-14.00,-20.00,-3.00,-48.00,-17.00,+7.00,+14.00,+8.00,+21.00,+55.00
-53.00,-59.00,-11.00,-4.00,+5.00,+18.00,-1.00,-20.00,-30.00,-16.00,+4.00,+5.00,+8.00,+4.00,+14.00,-15.00
+45.00,+48.00,+17.00,+1.00,+0.00,-33.00,-56.00,-13.00,+37.00,+35.00,-9.00,-11.00,-9.00,+5.00,+33.00,-5.00
-2.00,+6.00,+6.00,+4.00,-3.00,-21.00,-42.00,+12.00,-27.00,-1.00,+11.00,+3.00,+1.00,+6.00,+4.00,-10.00
-39.00,-18.00,+0.00,+1.00,-2.00,+2.00,+2.00,-26.00,-17.00,-11.00,-10.00,-11.00,-11.00,-5.00,-15.00,-19.00
-3.00,+10.00,-17.00,-12.00,-9.00,-16.00,-26.00,+4.00,+35.00,+2.00,-3.00,+2.00,+1.00,+7.00,+33.00,+86.00
-10.00,-37.00,-8.00,+2.00,+2.00,+6.00,+7.00,-19.00,+2.00,-12.00,-4.00,+1.00,+0.00,-1.00,+24.00,+39.00
+14.00,-13.00,+7.00,+0.00,+1.00,+5.00,+45.00,+35.00,+1.00,+8.00,-5.00,-2.00,-1.00,-26.00,+10.00,-19.00
+77.00,+107.00,+31.00,+21.00,+17.00,+17.00,-32.00,-30.00,-3.00,+28.00,+22.00,+8.00,+10.00,+33.00,+33.00,-8.00
-45.00,-22.00,-22.00,-3.00,-12.00,-31.00,-19.00,-11.00,+16.00,-18.00,+1.00,+1.00,+6.00,+22.00,+35.00,+17.00
-31.00,-27.00,+9.00,-6.00,-10.00,-7.00,-10.00,-31.00,-81.00,-65.00,-26.00,-1.00,+10.00,+6.00,+6.00,-31.00
-3.00,-9.00,-5.00,+0.00,+3.00,+30.00,+33.00,+23.00,+67.00,+17.00,+0.00,-10.00,-26.00,-28.00,-29.00,+68.00
-8.00,-21.00,+2.00,+1.00,+3.00,+10.00,+3.00,+50.00,-46.00,-1.00,-5.00,+3.00,+1.00,+6.00,-4.00,-58.00
-8.00,+19.00,+4.00,-2.00,-1.00,-7.00,-13.00,-18.00,+45.00,+40.00,+20.00,-1.00,-7.00,-9.00,-14.00,+36.00
-42.00,-37.00,-29.00,-13.00,-6.00,-6.00,-23.00,-30.00,+20.00,+26.00,+18.00,-3.00,+5.00,+20.00,+27.00,+13.00
+55.00,+30.00,+23.00,+13.00,+5.00,-14.00,+8.00,-6.00,-19.00,-3.00,-11.00,+0.00,+5.00,+3.00,-20.00,-22.00
+8.00,-21.00,-16.00,-11.00,-2.00,-10.00,-17.00,+33.00,-37.00,-30.00,-4.00,-1.00,-4.00,-12.00,-33.00,-19.00
-28.00,+27.00,-1.00,+2.00,+4.00,+39.00,+10.00,-10.00,+7.00,-12.00,-4.00,+13.00,+20.00,+29.00,+36.00,-4.00
+6.00,+1.00,+0.00,+1.00,+7.00,-1.00,-15.00,-9.00,+16.00,+1.00,-4.00,-13.00,-17.00,-26.00,-65.00,+58.00
-56.00,-45.00,-13.00,-6.00,-7.00,+4.00,+50.00,-39.00,-14.00,+31.00,+9.00,+1.00,-10.00,-14.00,+50.00,-6.00
+30.00,+8.00,+11.00,+12.00,+6.00,-3.00,+17.00,+53.00,+44.00,+30.00,+11.00,-5.00,-5.00,-10.00,-28.00,-21.00
+1.00,-52.00,-14.00,-18.00,-19.00,-10.00,-43.00,+1.00,-31.00,-48.00,-27.00,-4.00,+4.00,-5.00,-20.00,+2.00
+31.00,+65.00,+20.00,-3.00,-6.00,-12.00,+35.00,+73.00,+8.00,-7.00,-3.00,+4.00,+1.00,+1.00,-15.00,-19.00
-10.00,-35.00,-22.00,-1.00,+6.00,+20.00,+42.00,-24.00,+0.00,-15.00,-3.00,+1.00,-1.00,+13.00,+28.00,+23.00
-11.00,+14.00,+1.00,-3.00,-2.00,+12.00,+12.00,-58.00,-81.00,-28.00,-12.00,-8.00,-1.00,-9.00,-13.00,-50.00
-6.00,-41.00,+1.00,+7.00,+12.00,+22.00,+2.00,+14.00,+74.00,+74.00,+31.00,+4.00,-5.00,-8.00,+18.00,+79.00
+24.00,+24.00,+7.00,+6.00,+2.00,+9.00,-10.00,+46.00,-34.00,-18.00,+7.00,+6.00,+6.00,+9.00,+9.00,-30.00
-36.00,+3.00,-10.00,-6.00,-11.00,-21.00,-66.00,-37.00,+23.00,-10.00,-18.00,-9.00,-14.00,-14.00,-16.00,-44.00
-41.00,-51.00,-20.00,-16.00,-4.00,+5.00,+55.00,+16.00,-18.00,+6.00,+3.00,+5.00,+8.00,+3.00,-16.00,+23.00
+25.00,+55.00,+20.00,+2.00,-6.00,-20.00,-8.00,-2.00,-26.00,-48.00,-22.00,-6.00,+3.00,+6.00,-16.00,-53.00
-65.00,-35.00,-19.00,-16.00,-14.00,-19.00,-56.00,-111.00,-18.00,-4.00,-8.00,-5.00,-4.00,-17.00,-14.00,+1.00
+42.00,+2.00,+13.00,+9.00,-1.00,-6.00,+1.00,+69.00,+2.00,+25.00,+11.00,+1.00,-2.00,-6.00,+34.00,-3.00
+33.00,+10.00,-2.00,+11.00,+6.00,+13.00,+35.00,+9.00,+18.00,+14.00,+11.00,+5.00,+14.00,+7.00,-46.00,+20.00
+17.00,-5.00,+17.00,+2.00,-2.00,-8.00,+4.00,+75.00,-18.00,-34.00,-23.00,+1.00,+6.00,+18.00,+75.00,+22.00
+19.00,+12.00,-1.00,-1.00,+4.00,-2.00,-13.00,+24.00,+22.00,+13.00,+1.00,-5.00,-11.00,-16.00,-9.00,+32.00
-93.00,-18.00,-22.00,-18.00,-13.00,-6.00,-20.00,-74.00,-33.00,-28.00,-15.00,-7.00,+5.00,+12.00,-1.00,-15.00
+1.00,+29.00,+7.00,-5.00,-9.00,+0.00,-2.00,-22.00,+4.00,+1.00,-13.00,-14.00,-14.00,-9.00,-3.00,-40.00
+86.00,-4.00,+10.00,+18.00,+20.00,+36.00,+43.00,+97.00,-3.00,+37.00,+19.00,+2.00,-15.00,-16.00,+19.00,+1.00
-27.00,-12.00,-10.00,-2.00,+0.00,+1.00,-15.00,-66.00,+29.00,+10.00,+6.00,+3.00,+13.00,+27.00,+22.00,+6.00
-7.00,-2.00,+12.00,+3.00,-3.00,-19.00,-20.00,+24.00,-12.00,-47.00,-21.00,-5.00,+9.00,+18.00,+0.00,+30.00
+60.00,+26.00,+9.00,+2.00,+1.00,+4.00,+5.00,+64.00,-1.00,+9.00,+2.00,+1.00,-1.00,-22.00,-30.00,+13.00
-16.00,+22.00,-7.00,-5.00,+5.00,-6.00,+13.00,-42.00,-18.00,-6.00,-6.00,-3.00,+0.00,-2.00,-2.00,-22.00
-9.00,-26.00,+5.00,+5.00,+1.00,-3.00,-3.00,+11.00,+21.00,+3.00,-1.00,+3.00,+0.00,-5.00,+6.00,-32.00
-78.00,-54.00,-31.00,-10.00,-4.00,-5.00,-39.00,-69.00,+6.00,+4.00,+11.00,+0.00,-9.00,-12.00,-31.00,+13.00
+62.00,+56.00,+18.00,+6.00,+0.00,-3.00,+6.00,+20.00,+28.00,+45.00,+11.00,+6.00,+3.00,+16.00,+37.00,+10.00
+4.00,-23.00,-10.00,-9.00,-8.00,-17.00,+17.00,+38.00,-31.00,-42.00,-13.00,-5.00,+2.00,-9.00,-65.00,-43.00
-4.00,-17.00,-3.00,+4.00,+11.00,+42.00,+19.00,-1.00,-2.00,+2.00,-5.00,-5.00,-10.00,-6.00,+41.00,+0.00
-1.00,+6.00,-5.00,-7.00,-3.00,-34.00,-55.00,-17.00,+44.00,+24.00,+18.00,+15.00,+13.00,+0.00,-50.00,+28.00
+60.00,+37.00,+21.00,+13.00,+5.00,+16.00,+21.00,+11.00,-56.00,-61.00,-32.00,-14.00,-12.00,+6.00,+83.00,-26.00
-21.00,-20.00,-20.00,-9.00,-7.00,-17.00,-11.00,-29.00,+5.00,+43.00,+17.00,+3.00,+3.00,-3.00,-28.00,+12.00
+61.00,+10.00,+8.00,+6.00,+6.00,+15.00,+32.00,+30.00,+34.00,+24.00,+4.00,-4.00,+7.00,+12.00,+3.00,+20.00
-14.00,+24.00,+9.00,-3.00,-2.00,-12.00,-60.00,-46.00,-11.00,+0.00,-1.00,-9.00,-26.00,-23.00,-39.00,-40.00
-79.00,-37.00,-18.00,-8.00,-3.00,-4.00,+26.00,-29.00,+3.00,+9.00,+8.00,+16.00,+15.00,+18.00,+33.00,-32.00
+34.00,+27.00,+4.00,+2.00,-2.00,-9.00,-9.00,+24.00,+37.00,-1.00,+4.00,+1.00,+0.00,-14.00,+7.00,+77.00
-28.00,-39.00,-3.00,+5.00,+2.00,-4.00,+16.00,-12.00,-33.00,-14.00,-2.00,+1.00,-6.00,-8.00,-27.00,-52.00
+25.00,+38.00,+11.00,-11.00,-17.00,+4.00,+2.00,-8.00,-15.00,+14.00,+8.00,+1.00,+6.00,+18.00,+20.00,-23.00
-19.00,-29.00,-8.00,-1.00,+0.00,-14.00,-27.00,-42.00,+6.00,+12.00,+9.00,+4.00,-3.00,-5.00,+1.00,+86.00
-10.00,+1.00,-12.00,-13.00,-11.00,-8.00,+12.00,+48.00,-29.00,-33.00,-8.00,-10.00,-17.00,-12.00,-8.00,-37.00
-26.00,+7.00,-11.00,-1.00,+1.00,-6.00,-18.00,+4.00,+68.00,+28.00,-12.00,+6.00,+13.00,+5.00,-12.00,+36.00
+18.00,-4.00,+1.00,+1.00,+0.00,+1.00,-10.00,-22.00,-10.00,-51.00,-16.00,-4.00,+5.00,+9.00,-2.00,-15.00
+7.00,-27.00,-12.00,-9.00,+3.00,+13.00,-7.00,+15.00,-30.00,-48.00,-26.00,-12.00,-14.00,-25.00,-27.00,-45.00
-11.00,+12.00,+12.00,+0.00,+0.00,-6.00,+8.00,-34.00,-27.00,+24.00,+25.00,+10.00,+18.00,+34.00,+44.00,+16.00
+22.00,+17.00,+7.00,+1.00,-24.00,-56.00,-43.00,+35.00,-25.00,-3.00,-9.00,-13.00,-16.00,-14.00,-26.00,+9.00
-33.00,-23.00,-18.00,+2.00,+13.00,+35.00,+22.00,+9.00,+32.00,+15.00,+3.00,+2.00,+0.00,-18.00,-18.00,-33.00
-9.00,-8.00,+5.00,+0.00,+0.00,+17.00,+41.00,+38.00,+42.00,+58.00,+30.00,+6.00,+6.00,+8.00,+13.00,+88.00
-44.00,-27.00,-9.00,-6.00,-10.00,-27.00,-27.00,-62.00,-54.00,-61.00,-41.00,-22.00,-21.00,-23.00,-17.00,-61.00
+10.00,+11.00,+6.00,-6.00,-3.00,-6.00,+18.00,+10.00,-11.00,-30.00,-2.00,+10.00,+10.00,+11.00,-9.00,-3.00
-7.00,+2.00,+4.00,+6.00,+4.00,-14.00,-43.00,-28.00,+34.00,+30.00,+0.00,+7.00,+17.00,+22.00,-11.00,+27.00
+15.00,+10.00,-8.00,+1.00,-4.00,-17.00,-27.00,+6.00,-48.00,-31.00,-7.00,+14.00,+20.00,+23.00,+55.00,-32.00
+14.00,-17.00,-8.00,+1.00,+7.00,+23.00,+19.00,+39.00,+26.00,+29.00,+19.00,+1.00,-20.00,-37.00,-32.00,+22.00
+63.00,+52.00,+26.00,+1.00,-8.00,-8.00,+32.00,+15.00,-24.00,+7.00,+4.00,-16.00,-14.00,+1.00,+26.00,+4.00
-58.00,-50.00,-26.00,-6.00,+5.00,+16.00,-4.00,-21.00,+47.00,+79.00,+22.00,+6.00,+7.00,-2.00,-28.00,+19.00
+45.00,-33.00,-7.00,-4.00,+2.00,+17.00,+46.00,+70.00,+18.00,-50.00,-15.00,-13.00,-16.00,-19.00,-28.00,-42.00
+43.00,+81.00,+22.00,+12.00,-1.00,-10.00,-26.00,-9.00,-56.00,+2.00,-11.00,+5.00,+16.00,+20.00,+12.00,-47.00
-46.00,-21.00,-10.00,-7.00,-7.00,-5.00,-29.00,-55.00,-35.00,-63.00,-14.00,-6.00,-10.00,-12.00,-11.00,+4.00
+26.00,+1.00,+0.00,+4.00,+10.00,+16.00,+41.00,+85.00,-25.00,-38.00,-26.00,-12.00,-2.00,+9.00,+27.00,+27.00
-65.00,-16.00,-7.00,-1.00,-7.00,-26.00,+5.00,-55.00,+78.00,+22.00,+8.00,-2.00,+3.00,+7.00,+17.00,-13.00
-27.00,-59.00,-33.00,-12.00,-2.00,-5.00,-40.00,-40.00,-6.00,+4.00,-7.00,-10.00,-19.00,-17.00,-38.00,+75.00
+21.00,+30.00,+23.00,+7.00,+22.00,+34.00,-4.00,+3.00,-41.00,+48.00,+31.00,+20.00,+13.00,+3.00,-16.00,-78.00
-7.00,-1.00,-3.00,-9.00,-9.00,-5.00,+24.00,+15.00,+5.00,-5.00,-11.00,-13.00,-25.00,-27.00,+1.00,-5.00
-80.00,-69.00,-29.00,-17.00,-8.00,-21.00,-42.00,+3.00,-14.00,-71.00,-36.00,-8.00,-8.00,-20.00,+0.00,+5.00
+64.00,+64.00,+39.00,+24.00,+16.00,-1.00,+6.00,+8.00,+3.00,+28.00,+5.00,+2.00,+3.00,+0.00,+16.00,+0.00
-59.00,-22.00,-9.00,-1.00,-11.00,-17.00,-16.00,-45.00,-34.00,-9.00,+10.00,+9.00,+12.00,+9.00,-3.00,-12.00
+61.00,+21.00,-10.00,-5.00,-8.00,-17.00,-24.00,+3.00,+80.00,+33.00,+16.00,-6.00,-9.00,-2.00,-20.00,+105.00
+1.00,-25.00,+1.00,+2.00,-2.00,-14.00,-34.00,+15.00,-49.00,-6.00,-11.00,-11.00,-11.00,-6.00,+7.00,-91.00
-60.00,-55.00,-16.00,-17.00,-11.00,+4.00,+10.00,-50.00,+36.00,+33.00,+19.00,+7.00,+6.00,-5.00,-10.00,+1.00
-2.00,-28.00,-11.00,-2.00,+6.00,+19.00,+35.00,+46.00,-36.00,-47.00,-24.00,-7.00,-1.00,+1.00,+6.00,-8.00
+17.00,+74.00,+38.00,+14.00,+3.00,-8.00,+12.00,+22.00,-41.00,-6.00,+9.00,+10.00,+10.00,+1.00,+14.00,-50.00
-39.00,-18.00,-20.00,-10.00,-7.00,-7.00,-58.00,-59.00,+49.00,+15.00,+10.00,+5.00,+0.00,+6.00,-31.00,+79.00
+2.00,+46.00,+26.00,+10.00,+6.00,-9.00,-16.00,-30.00,+13.00,+114.00,+52.00,+15.00,+11.00,+34.00,+35.00,-19.00
+38.00,-31.00,-8.00,+5.00,+14.00,+32.00,+66.00,+59.00,-5.00,-72.00,-35.00,-17.00,-6.00,-8.00,-2.00,-29.00
-19.00,-20.00,-12.00,-9.00,-10.00,+1.00,+7.00,-3.00,-16.00,-41.00,-34.00,-7.00,+2.00,+8.00,+5.00,+17.00
+3.00,-20.00,-2.00,+2.00,+2.00,-8.00,+6.00,+10.00,-12.00,+30.00,+5.00,+6.00,+7.00,+7.00,-26.00,-30.00
-32.00,+28.00,-8.00,-10.00,-6.00,+15.00,-31.00,-31.00,+25.00,-13.00,-2.00,+0.00,-10.00,-36.00,-30.00,+8.00
+46.00,+36.00,+16.00,+11.00,+13.00,+5.00,-19.00,+59.00,+1.00,+22.00,+6.00,+7.00,+21.00,+39.00,+31.00,+29.00
-21.00,-24.00,-10.00,-1.00,-9.00,-16.00,-15.00,-25.00,-42.00,-4.00,+4.00,-3.00,-1.00,-23.00,-38.00,-60.00
+36.00,+29.00,+18.00,+4.00,+3.00,+12.00,+22.00,-13.00,+9.00,-4.00,-1.00,-13.00,-22.00,-8.00,+3.00,+18.00
-6.00,-22.00,-5.00,-2.00,+3.00,-2.00,-10.00,+34.00,-3.00,-35.00,-29.00,-1.00,+7.00,-1.00,-2.00,+23.00
-5.00,+10.00,-8.00,-5.00,-1.00,+22.00,+31.00,-13.00,+77.00,+46.00,+26.00,+3.00,-4.00,-17.00,-10.00,+30.00
-9.00,-49.00,-13.00,+0.00,+3.00,-1.00,+8.00,+33.00,-58.00,-6.00,+4.00,-2.00,-7.00,+15.00,-14.00,-20.00
+12.00,+73.00,+31.00,+7.00,+2.00,-3.00,-19.00,-21.00,+19.00,-36.00,-21.00,-9.00,-8.00,-21.00,-6.00,+9.00
-4.00,-44.00,-13.00,+9.00,+3.00,-2.00,-22.00,+22.00,-19.00,+3.00,-6.00,-14.00,-6.00,+8.00,-34.00,+3.00
-12.00,+4.00,-22.00,-14.00,-17.00,-24.00,-38.00,-39.00,-13.00,+1.00,+10.00,+4.00,-9.00,-21.00,+22.00,+0.00
+0.00,+26.00,+40.00,+0.00,-8.00,+12.00,+57.00,+22.00,-22.00,-1.00,+10.00,+4.00,+7.00,+8.00,+17.00,-21.00
-19.00,-11.00,-9.00,-3.00,+9.00,+6.00,-17.00,+35.00,+16.00,+21.00,-9.00,+1.00,+7.00,+20.00,+29.00,+30.00
-35.00,-33.00,-6.00,+1.00,+0.00,-11.00,-13.00,-15.00,+3.00,-85.00,-24.00,-8.00,+1.00,-7.00,-28.00,-13.00
+53.00,+31.00,-2.00,+1.00,-2.00,+1.00,+13.00,-13.00,-40.00,+25.00,+3.00,+2.00,+4.00,+5.00,-11.00,-55.00
+56.00,+41.00,+8.00,+5.00,+6.00,-7.00,-13.00,+30.00,+15.00,-10.00,+20.00,+3.00,-7.00,+3.00,+26.00,+10.00
-58.00,-13.00,-3.00,-7.00,-11.00,+12.00,+17.00,-26.00,-6.00,+39.00,-3.00,-5.00,+7.00,+5.00,+11.00,+26.00
+0.00,-3.00,-3.00,+5.00,-2.00,-11.00,-11.00,+15.00,+11.00,-6.00,+12.00,+17.00,+2.00,-12.00,-55.00,-32.00
+2.00,-36.00,-12.00,-8.00,+1.00,+22.00,+1.00,+14.00,-13.00,-1.00,+10.00,+1.00,-4.00,+7.00,+69.00,+10.00
-12.00,-16.00,-20.00,-6.00,-8.00,-26.00,-32.00,-48.00,+63.00,+47.00,+33.00,+13.00,+15.00,+6.00,-5.00,+51.00
-8.00,+20.00,+28.00,+11.00,+3.00,+9.00,+25.00,-1.00,+10.00,-1.00,-7.00,-8.00,+1.00,-2.00,+11.00,+31.00
-23.00,+11.00,+9.00,+5.00,+8.00,+15.00,+23.00,-42.00,-46.00,-37.00,-17.00,-7.00,-8.00,-4.00,+1.00,-47.00
+40.00,+26.00,+20.00,+5.00,-3.00,-15.00,-30.00,-36.00,+36.00,+26.00,+6.00,+7.00,+10.00,+20.00,+1.00,+35.00
-19.00,-7.00,-5.00,-8.00,-4.00,+5.00,+7.00,-21.00,-66.00,-66.00,-52.00,-20.00,+1.00,-4.00,-5.00,-28.00
+110.00,+30.00,+4.00,+10.00,+7.00,-22.00,-5.00,+88.00,-6.00,-5.00,+3.00,+1.00,-8.00,-8.00,-56.00,-52.00
-85.00,-69.00,-22.00,-11.00,+2.00,+24.00,+31.00,-22.00,+57.00,+41.00,+11.00,+7.00,+14.00,+20.00,+46.00,+73.00
-5.00,+3.00,+19.00,+7.00,-7.00,-20.00,-3.00,+1.00,+14.00,-7.00,+1.00,-10.00,-15.00,-9.00,-31.00,-19.00
+101.00,+101.00,+35.00,+21.00,+19.00,+31.00,+24.00,+45.00,+2.00,-13.00,-14.00,-1.00,-1.00,+2.00,+49.00,+59.00
-29.00,-11.00,-15.00,-11.00,-16.00,-24.00,-48.00,-86.00,-16.00,+24.00,+26.00,+4.00,-6.00,-6.00,-46.00,-33.00
+14.00,-2.00,-1.00,-7.00,-7.00,-6.00,+10.00,-15.00,-32.00,-93.00,-40.00,-16.00,-10.00,+7.00,+30.00,-60.00
-7.00,-18.00,-12.00,-4.00,-8.00,-6.00,+7.00,+57.00,+9.00,+22.00,-6.00,-7.00,-10.00,-31.00,-38.00,+64.00
-27.00,-26.00,-16.00,-6.00,+16.00,+25.00,+9.00,+40.00,-5.00,-2.00,+13.00,+7.00,+11.00,+12.00,+29.00,-18.00
+29.00,+7.00,-13.00,+2.00,-2.00,-12.00,-28.00,-21.00,-18.00,+56.00,+31.00,+6.00,+26.00,+25.00,+40.00,-5.00
-11.00,+27.00,+32.00,+1.00,-6.00,-4.00,-5.00,-58.00,+13.00,+6.00,-1.00,-3.00,-41.00,-39.00,-35.00,-11.00
-26.00,-8.00,-14.00,+3.00,+10.00,+12.00,+23.00,+10.00,+16.00,-9.00,-12.00,+1.00,+8.00,+1.00,-20.00,-26.00
+23.00,+36.00,+17.00,+4.00,+0.00,-5.00,+0.00,+10.00,-13.00,+12.00,+9.00,+0.00,+0.00,+12.00,+63.00,+29.00
-78.00,-56.00,-27.00,-9.00,-11.00,-27.00,-56.00,-68.00,-22.00,-4.00,+0.00,-12.00,-31.00,-44.00,-69.00,-50.00
-7.00,-37.00,-12.00,-14.00,-17.00,-11.00,-8.00,-50.00,+25.00,+39.00,+11.00,-1.00,+19.00,+32.00,+68.00,+26.00
+4.00,-5.00,-8.00,+1.00,+7.00,+8.00,+36.00,+35.00,+28.00,+12.00,+17.00,+9.00,+4.00,-13.00,-102.00,+19.00
+49.00,+36.00,+33.00,+9.00,+1.00,-16.00,+11.00,+33.00,-55.00,-21.00,-11.00,-2.00,+1.00,+6.00,+5.00,-16.00
+24.00,+21.00,-14.00,+10.00,+21.00,+43.00,+28.00,+36.00,+45.00,+71.00,+30.00,+16.00,-2.00,-7.00,-8.00,-39.00
-6.00,-42.00,-13.00,-7.00,+2.00,-10.00,-21.00,+54.00,-33.00,-80.00,-51.00,-21.00,+5.00,+14.00,+38.00,+40.00
-86.00,+8.00,+16.00,-6.00,-9.00,-18.00,-47.00,-128.00,-19.00,+0.00,+0.00,+4.00,-6.00,-8.00,-4.00,-48.00
+57.00,-8.00,-3.00,+11.00,+8.00,+8.00,+48.00,+39.00,+52.00,+3.00,+0.00,+6.00,+9.00,+2.00,-21.00,+39.00
+19.00,+62.00,+47.00,+7.00,-8.00,-15.00,+23.00,+17.00,-43.00,-29.00,-28.00,-23.00,-16.00,-1.00,+17.00,+26.00
+29.00,+2.00,-27.00,-11.00,-5.00,+1.00,-25.00,-23.00,+40.00,+82.00,+47.00,+15.00,+6.00,+3.00,-11.00,+0.00
-46.00,-36.00,-11.00,+1.00,+5.00,+10.00,+17.00,+30.00,-4.00,+37.00,+22.00,+0.00,+14.00,+16.00,+29.00,+32.00
-54.00,-17.00,-17.00,-16.00,-21.00,-14.00,-1.00,-24.00,-31.00,-11.00,-56.00,-39.00,-59.00,-73.00,-94.00,-93.00
+25.00,+26.00,+30.00,+13.00,+16.00,+12.00,+21.00,+25.00,+17.00,-27.00,+4.00,+17.00,+7.00,+9.00,+50.00,+79.00
+20.00,-24.00,-43.00,-3.00,+7.00,+27.00,+17.00,+22.00,+17.00,+27.00,+25.00,+19.00,+41.00,+33.00,+13.00,-25.00
-4.00,+48.00,+45.00,+5.00,-5.00,-12.00,-1.00,+37.00,-9.00,-50.00,-22.00,-10.00,-13.00,-11.00,+2.00,+21.00
-59.00,-26.00,-14.00,-16.00,-25.00,-39.00,-48.00,-101.00,+21.00,+16.00,+0.00,-5.00,-14.00,-7.00,+33.00,-32.00
+30.00,-10.00,+4.00,+0.00,+2.00,+21.00,+2.00,+15.00,-4.00,-30.00,+4.00,+2.00,+12.00,+9.00,+13.00,+48.00
+6.00,+11.00,-19.00,+1.00,+9.00,+1.00,+43.00,+77.00,+18.00,+79.00,+3.00,-11.00,-12.00,-8.00,-37.00,+6.00
+12.00,+53.00,+15.00,+1.00,+1.00,+7.00,-44.00,-31.00,-58.00,-90.00,-33.00,-11.00,+0.00,+14.00,+47.00,-6.00
+53.00,+3.00,-4.00,+7.00,+12.00,+13.00,+0.00,-3.00,+70.00,+18.00,+2.00,+7.00,-5.00,-14.00,-44.00,-7.00
-6.00,+22.00,+9.00,-7.00,-6.00,-18.00,-23.00,+56.00,-57.00,+43.00,+4.00,-3.00,-8.00,-18.00,+16.00,-28.00
-9.00,-21.00,-8.00,+2.00,+5.00,+9.00,+5.00,-26.00,+10.00,-126.00,-38.00,+10.00,+20.00,+35.00,+41.00,+22.00
-39.00,-61.00,-26.00,-10.00,-20.00,-25.00,+2.00,-17.00,+30.00,+55.00,+12.00,-12.00,-4.00,+1.00,-8.00,+64.00
+16.00,+27.00,+25.00,-7.00,-28.00,-41.00,-40.00,-104.00,-40.00,-31.00,-9.00,-5.00,-14.00,-11.00,+15.00,-92.00
+49.00,-37.00,-28.00,+13.00,+49.00,+68.00,+50.00,-25.00,+32.00,-45.00,-15.00,+19.00,+31.00,+28.00,+72.00,+61.00
+54.00,+66.00,+39.00,+18.00,+8.00,+6.00,+6.00,+37.00,-59.00,-7.00,+20.00,+1.00,-10.00,-21.00,-70.00,-24.00
-11.00,+17.00,+23.00,-1.00,-16.00,-27.00,-31.00,-69.00,-11.00,-46.00,-38.00,-13.00,-25.00,-31.00,-8.00,-66.00
-40.00,-21.00,-22.00,-7.00,+8.00,+18.00,+42.00,+75.00,+18.00,+29.00,+27.00,+7.00,+18.00,+25.00,+32.00,+48.00
-41.00,-33.00,-14.00,-4.00,-12.00,-12.00,-6.00,-44.00,+32.00,+22.00,+9.00,-5.00,+15.00,+35.00,-43.00,+8.00
+32.00,+57.00,+16.00,-2.00,-10.00,-28.00,-2.00,-16.00,-54.00,+58.00,+17.00,-14.00,-47.00,-69.00,-34.00,-94.00
-13.00,-70.00,-33.00,-14.00,-1.00,-2.00,-23.00,-55.00,+28.00,+30.00,+29.00,+19.00,-1.00,+2.00,+50.00,+30.00
+29.00,-8.00,-1.00,+11.00,+14.00,+16.00,-3.00,+19.00,-24.00,-15.00,-17.00,-6.00,+18.00,+12.00,-12.00,+22.00
-9.00,-26.00,-8.00,-6.00,-21.00,-15.00,-12.00,-32.00,+1.00,+5.00,+11.00,-5.00,-14.00,+2.00,+31.00,-15.00
+19.00,+8.00,+12.00,-8.00,+11.00,+19.00,+33.00,+103.00,+8.00,+79.00,+34.00,+14.00,+6.00,+10.00,+10.00,-19.00
-3.00,+58.00,+5.00,+11.00,+0.00,-13.00,-50.00,-43.00,-41.00,-58.00,-12.00,-6.00,-16.00,-40.00,-67.00,-72.00
-63.00,-88.00,-47.00,-17.00,-10.00,+7.00,+21.00,+73.00,+31.00,+38.00,+25.00,+15.00,+11.00,+16.00,-21.00,+43.00
-38.00,-50.00,-16.00,-8.00,-9.00,-6.00,+33.00,+4.00,-9.00,+45.00,+8.00,+7.00,+14.00,+7.00,-28.00,+11.00
-40.00,+43.00,+6.00,-6.00,-14.00,-15.00,-24.00,-87.00,+58.00,+6.00,+10.00,-16.00,-29.00,-14.00,-9.00,+32.00
+92.00,-17.00,-10.00,-3.00,-2.00,-1.00,-23.00,+26.00,-51.00,+14.00,+25.00,+12.00,+25.00,+34.00,+46.00,-8.00
+28.00,+42.00,+30.00,+26.00,+34.00,+42.00,+81.00,+11.00,+7.00,+26.00,+17.00,+3.00,-10.00,-15.00,-11.00,-17.00
-52.00,-28.00,-31.00,-19.00,-30.00,-49.00,-53.00,+33.00,-17.00,-109.00,-55.00,-19.00,-21.00,-26.00,-41.00,-42.00
-24.00,-14.00,+4.00,-9.00,-14.00,+7.00,+28.00,+24.00,-11.00,+38.00,+14.00,+6.00,+21.00,+17.00,+10.00,-6.00
+15.00,+37.00,+43.00,+26.00,+39.00,+41.00,+68.00,+67.00,+33.00,-16.00,+14.00,+25.00,+32.00,+37.00,+37.00,+76.00
-24.00,-30.00,-28.00,-13.00,-11.00,-9.00,-54.00,-96.00,+8.00,+12.00,+5.00,+4.00,-12.00,-25.00,-56.00,-45.00
+7.00,-5.00,+2.00,-3.00,-6.00,-15.00,-12.00,-39.00,-12.00,+30.00,+1.00,-3.00,-8.00,-34.00,-71.00,-9.00
-38.00,+19.00,+15.00,-4.00,-14.00,-26.00,-48.00,-75.00,-8.00,-79.00,-31.00,-31.00,-30.00,-20.00,+18.00,+11.00
-40.00,-20.00,-14.00,-8.00,-13.00,-25.00,-72.00,-104.00,+11.00,+11.00,-25.00,-11.00,-15.00,-18.00,-17.00,-8.00
-27.00,-33.00,-5.00,-1.00,+4.00,+21.00,+80.00,+95.00,+3.00,+60.00,+18.00,+12.00,+36.00,+31.00,+47.00,+2.00
+83.00,+82.00,+35.00,+6.00,+8.00,+11.00,+15.00,+105.00,+34.00,-63.00,-34.00,-5.00,-5.00,+0.00,+32.00,+36.00
-19.00,-42.00,-20.00,-1.00,-2.00,-2.00,+0.00,+24.00,-5.00,-11.00,+21.00,+23.00,+33.00,+21.00,-6.00,-38.00
+33.00,-43.00,-2.00,+4.00,+11.00,+25.00,+28.00,+9.00,-9.00,+2.00,-5.00,+5.00,-12.00,+0.00,+33.00,-14.00
-28.00,+53.00,-1.00,-5.00,-11.00,-28.00,-117.00,-128.00,-7.00,-80.00,-88.00,-30.00,-18.00,-27.00,-12.00,+42.00
-7.00,-8.00,+24.00,+3.00,+7.00,+24.00,+63.00,-9.00,-34.00,+1.00,+10.00,-9.00,-15.00,+1.00,+19.00,-16.00
+42.00,+10.00,+12.00,+5.00,-9.00,-4.00,-9.00,-18.00,+6.00,+13.00,+12.00,-9.00,+14.00,+26.00,+69.00,+73.00
+28.00,+6.00,-16.00,-7.00,+2.00,-6.00,-3.00,+12.00,+59.00,-33.00,+6.00,+0.00,-19.00,-7.00,+29.00,-77.00
-29.00,-41.00,+1.00,-6.00,-10.00,-11.00,+3.00,-41.00,-43.00,-21.00,+1.00,+4.00,-4.00,-19.00,-49.00,-56.00
-40.00,-18.00,-9.00,+3.00,+10.00,+14.00,-24.00,-7.00,-27.00,-47.00,-9.00,+13.00,+15.00,+6.00,+8.00,-24.00
+54.00,+33.00,+5.00,+9.00,-1.00,-14.00,+33.00,+59.00,+9.00,+24.00,-25.00,-11.00,+12.00,+22.00,+92.00,+26.00
-19.00,+4.00,+4.00,+16.00,+33.00,+47.00,+60.00,+109.00,+38.00,+127.00,+63.00,+5.00,-7.00,-19.00,-48.00,+26.00
-40.00,-19.00,-2.00,-21.00,-23.00,-29.00,-21.00,-127.00,-6.00,-50.00,+9.00,-7.00,-14.00,-18.00,-44.00,-4.00
-17.00,-37.00,-19.00,-17.00,-15.00,-23.00,-68.00,-108.00,+3.00,+67.00,-11.00,+3.00,+17.00,+6.00,+37.00,+71.00
+57.00,+30.00,+14.00,+26.00,+30.00,+19.00,+6.00,+14.00,-3.00,+11.00,+7.00,+5.00,-3.00,-16.00,-91.00,-100.00
-69.00,-18.00,-12.00,-16.00,-18.00,-6.00,+38.00,+14.00,-31.00,+29.00,-23.00,-32.00,-7.00,+26.00,+11.00,-7.00
+12.00,+20.00,+1.00,+5.00,+7.00,+10.00,+13.00,+127.00,+17.00,+91.00,+37.00,+11.00,-1.00,-8.00,-16.00,-9.00
-53.00,-18.00,+1.00,+2.00,+2.00,+10.00,-11.00,-72.00,-25.00,-44.00,+28.00,+0.00,-19.00,-46.00,-89.00,-53.00
-13.00,-41.00,-57.00,-20.00,-25.00,-34.00,-53.00,-128.00,-7.00,-88.00,-55.00,-9.00,-35.00,-32.00,+32.00,+0.00
+99.00,+49.00,+20.00,-2.00,-11.00,-16.00,+32.00,+76.00,+9.00,+82.00,+26.00,+6.00,+22.00,+14.00,-36.00,+61.00
+8.00,+50.00,+46.00,+20.00,+21.00,+28.00,-32.00,-106.00,-7.00,-88.00,-43.00,+1.00,+14.00,+26.00,+9.00,+66.00
+13.00,-7.00,-5.00,+5.00,+30.00,+55.00,+110.00,+104.00,-5.00,-7.00,+9.00,+2.00,+8.00,+17.00,+45.00,-70.00
-29.00,+51.00,+23.00,-3.00,-34.00,-50.00,-43.00,-63.00,+56.00,+87.00,+16.00,+8.00,+14.00,+22.00,-8.00,+49.00
-62.00,-79.00,-69.00,-13.00,+0.00,+6.00,-8.00,-101.00,-46.00,-11.00,+8.00,+1.00,+12.00,-2.00,-19.00,-15.00
-58.00,-104.00,-53.00,-10.00,-2.00,-18.00,-81.00,-31.00,+11.00,+121.00,+39.00,-4.00,-11.00,+0.00,-4.00,-56.00
+83.00,+99.00,+85.00,+1.00,-8.00,-9.00,+46.00,+55.00,-15.00,-60.00,-30.00,-12.00,-18.00,-15.00,-11.00,-38.00
+68.00,+38.00,+29.00,+7.00,+20.00,+43.00,+28.00,+72.00,+7.00,-29.00,-8.00,+24.00,+18.00,+19.00,+17.00,+22.00
-20.00,-21.00,+4.00,+2.00,-29.00,-44.00,-14.00,-9.00,-28.00,+48.00,+27.00,-3.00,+21.00,+25.00,-54.00,-29.00
+26.00,+26.00,-7.00,+6.00,+13.00,+1.00,-13.00,-54.00,+34.00,+59.00,+44.00,+22.00,+11.00,+28.00,+50.00,+26.00
-6.00,-97.00,-73.00,-5.00,+25.00,+76.00,+45.00,+59.00,-4.00,+34.00,+8.00,+0.00,+3.00,-4.00,-33.00,-8.00
-16.00,-52.00,-1.00,+7.00,+20.00,+26.00,+13.00,-70.00,-22.00,-14.00,-28.00,-13.00,-39.00,-22.00,+6.00,-59.00
+11.00,+95.00,+74.00,+10.00,+3.00,+53.00,+29.00,-98.00,+14.00,+0.00,-9.00,+16.00,-16.00,-61.00,-56.00,+1.00
+1.00,-43.00,-20.00,-14.00,-9.00,-38.00,-85.00,+14.00,-46.00,-67.00,+3.00,-2.00,+19.00,+10.00,+78.00,+10.00
-90.00,-91.00,-76.00,-4.00,-14.00,-50.00,+2.00,-53.00,-26.00,+32.00,+22.00,-1.00,+0.00,+9.00,+9.00,-24.00
+59.00,+60.00,+76.00,+18.00,+26.00,+30.00,+63.00,+98.00,+22.00,-3.00,-17.00,-3.00,+17.00,+4.00,-46.00,+13.00
-90.00,-93.00,-95.00,-33.00,-36.00,-68.00,-121.00,-120.00,+30.00,+14.00,-30.00,-18.00,-27.00,-16.00,+90.00,+84.00
+54.00,+110.00,+102.00,+22.00,+9.00,+32.00,+122.00,+127.00,-33.00,+45.00,+21.00,-4.00,-3.00,+3.00,-92.00,-40.00
-16.00,-62.00,-34.00,+6.00,+17.00,+36.00,+33.00,+80.00,+98.00,+127.00,+45.00,-3.00,-3.00,+18.00,+106.00,+61.00
-69.00,+20.00,+27.00,-3.00,-8.00,-5.00,-38.00,-80.00,-115.00,-87.00,-86.00,-33.00,-34.00,-42.00,-79.00,-76.00
+37.00,+27.00,+12.00,+3.00,-19.00,-45.00,-26.00,-42.00,+21.00,+26.00,+0.00,-4.00,-22.00,-8.00,+52.00,+9.00
-58.00,-33.00,-32.00,-14.00,-17.00,-10.00,-58.00,-68.00,+13.00,-11.00,+11.00,+17.00,+26.00,+9.00,+16.00,+33.00
+31.00,+15.00,+5.00,-4.00,-5.00,-12.00,-27.00,-6.00,+33.00,+49.00,+32.00,+10.00,-3.00,-10.00,-22.00,+112.00
-48.00,-103.00,-68.00,-26.00,-34.00,-73.00,-20.00,-45.00,+32.00,+90.00,+25.00,-22.00,-23.00,-10.00,+12.00,-19.00
+12.00,-31.00,+17.00,+1.00,+43.00,+98.00,+62.00,+127.00,-25.00,-23.00,-20.00,-7.00,+3.00,+24.00,+61.00,-43.00
-12.00,-68.00,-57.00,+13.00,+16.00,+22.00,+33.00,+56.00,+10.00,-77.00,-21.00,+14.00,+41.00,+61.00,+118.00,+44.00
+12.00,+63.00,+43.00,+8.00,-6.00,-9.00,-7.00,-27.00,-7.00,-28.00,-40.00,-39.00,-64.00,-58.00,-91.00,+28.00
+57.00,+70.00,+57.00,+7.00,+4.00,+1.00,-51.00,-37.00,+16.00,+53.00,+69.00,+59.00,+54.00,+21.00,-24.00,-34.00
+2.00,-41.00,-31.00,-23.00,-32.00,-44.00,+3.00,-28.00,-1.00,-63.00,-51.00,-17.00,+11.00,+5.00,+8.00,+33.00
+21.00,-34.00,-17.00,+6.00,-2.00,-9.00,-20.00,-49.00,+0.00,+101.00,+38.00,+12.00,+9.00,-2.00,+41.00,-18.00
+10.00,-12.00,-26.00,-7.00,-9.00,-3.00,+49.00,+55.00,-49.00,-97.00,-24.00,-2.00,+2.00,-12.00,-68.00,-60.00
-25.00,+4.00,+53.00,+10.00,+15.00,+11.00,+21.00,-46.00,+54.00,+14.00,+21.00,+5.00,-2.00,-2.00,-40.00,+61.00
+57.00,+55.00,+25.00,+23.00,+38.00,+37.00,+10.00,+11.00,+55.00,+85.00,+28.00,+11.00,+33.00,+59.00,+66.00,+45.00
+29.00,+16.00,+2.00,+3.00,+14.00,+55.00,+33.00,+47.00,-54.00,-56.00,-1.00,-13.00,-32.00,-35.00,-59.00,-26.00
-9.00,-9.00,+14.00,+2.00,-20.00,-37.00,-6.00,+41.00,+47.00,+106.00,+31.00,+33.00,+29.00,+20.00,+21.00,+63.00
-11.00,-61.00,-67.00,-7.00,-8.00,-6.00,+2.00,-54.00,-105.00,-124.00,-105.00,-69.00,-74.00,-89.00,-90.00,-97.00
+3.00,+67.00,+63.00,+10.00,+12.00,+24.00,+43.00,+41.00,-16.00,+51.00,+22.00,+17.00,+48.00,+34.00,-15.00,-46.00
+46.00,+74.00,+17.00,-10.00,-18.00,-46.00,-43.00,-108.00,+15.00,+26.00,+8.00,-15.00,-19.00,+0.00,-3.00,+18.00
+33.00,+53.00,+50.00,+5.00,-14.00,-30.00,-81.00,-79.00,+42.00,+43.00,+40.00,+21.00,+30.00,+28.00,+63.00,-23.00
-62.00,-100.00,-54.00,-14.00,+0.00,+14.00,+36.00,+121.00,+17.00,-3.00,-1.00,+5.00,+9.00,+25.00,+51.00,+86.00
+50.00,+4.00,+3.00,+16.00,+11.00,-3.00,-12.00,+26.00,+15.00,+63.00,+15.00,-9.00,-29.00,-44.00,-48.00,-59.00
-81.00,-39.00,-14.00,-19.00,-15.00,+2.00,-43.00,-111.00,-66.00,-50.00,-59.00,-9.00,-20.00,-43.00,-101.00,-84.00
+3.00,-34.00,-16.00,-9.00,-15.00,-31.00,-33.00,+7.00,+15.00,-41.00,-44.00,+5.00,+17.00,+37.00,+100.00,+57.00
+11.00,+70.00,+26.00,+11.00,+9.00,+5.00,+16.00,+45.00,+16.00,+8.00,+12.00,+12.00,+40.00,+53.00,+61.00,+19.00
+15.00,-67.00,-44.00,+2.00,-5.00,-15.00,+9.00,-52.00,-16.00,-80.00,-17.00,+11.00,-6.00,-29.00,-103.00,-75.00
-66.00,-28.00,+4.00,-8.00,+11.00,+5.00,-3.00,+90.00,+37.00,+50.00,+26.00,+1.00,+2.00,+10.00,-5.00,+49.00
-42.00,+30.00,-6.00,-5.00,-8.00,-11.00,-4.00,-111.00,-40.00,+53.00,+5.00,-26.00,-38.00,-44.00,-37.00,-48.00
+3.00,-46.00,-21.00,-15.00,+2.00,+32.00,+0.00,+95.00,+5.00,-39.00,-13.00,-10.00,-42.00,-69.00,-35.00,+27.00
+45.00,+92.00,+48.00,+24.00,+24.00,+35.00,+93.00,+127.00,+28.00,-71.00,-28.00,-3.00,+13.00,+2.00,-27.00,+74.00
+28.00,-33.00,-11.00,+4.00,-12.00,-17.00,+9.00,-20.00,-61.00,-31.00,-2.00,+9.00,+27.00,+45.00,+101.00,-31.00
-30.00,-2.00,+23.00,+4.00,+3.00,+5.00,-13.00,-72.00,-11.00,+80.00,+23.00,+5.00,-2.00,+0.00,+0.00,-69.00
-63.00,-39.00,-40.00,-15.00,-14.00,-16.00,-22.00,-53.00,+6.00,-6.00,+5.00,+0.00,+3.00,+1.00,-40.00,+44.00
-46.00,-49.00,-31.00,-20.00,-23.00,-29.00,-41.00,-128.00,-16.00,+57.00,+32.00,-1.00,-6.00,-2.00,-16.00,-63.00
+62.00,+6.00,+37.00,-1.00,+7.00,+22.00,+22.00,+41.00,+47.00,+26.00,-12.00,+5.00,-5.00,+5.00,+44.00,+90.00
+77.00,+37.00,-42.00,-12.00,+6.00,+11.00,+45.00,+96.00,+13.00,+30.00,+0.00,+10.00,+30.00,+42.00,+29.00,+12.00
-10.00,-11.00,-15.00,-4.00,-18.00,-19.00,-23.00,-76.00,-54.00,-44.00,-19.00,-12.00,-13.00,+3.00,+4.00,-37.00
-38.00,-30.00,-8.00,-8.00,+0.00,+12.00,+2.00,+28.00,-7.00,-31.00,-6.00,+5.00,+1.00,+2.00,-7.00,-8.00
-18.00,-5.00,-17.00,-5.00,-6.00,-17.00,+36.00,+19.00,+5.00,+18.00,-14.00,-22.00,-43.00,-40.00,-20.00,+5.00
-44.00,-51.00,-18.00,-15.00,-41.00,-39.00,-85.00,-128.00,+9.00,+26.00,+31.00,+32.00,+34.00,+27.00,+9.00,-29.00
-2.00,-1.00,+12.00,+14.00,+56.00,+63.00,+99.00,+105.00,+37.00,+93.00,+38.00,+3.00,-1.00,-15.00,+8.00,+45.00
+61.00,+36.00,+18.00,+14.00,+9.00,+17.00,+48.00,+90.00,-26.00,-25.00,-38.00,-25.00,-30.00,-22.00,-44.00,-36.00
-45.00,-28.00,-15.00,-7.00,-5.00,-2.00,-8.00,+63.00,+23.00,+42.00,+5.00,+3.00,+2.00,+39.00,+100.00,-8.00
+77.00,+90.00,+21.00,-5.00,-19.00,-25.00,+1.00,-66.00,-12.00,-85.00,-58.00,-30.00,-75.00,-104.00,-111.00,+33.00
+15.00,+45.00,+27.00,-4.00,-21.00,-29.00,-51.00,-24.00,-41.00,-34.00,+26.00,+18.00,+43.00,+38.00,+31.00,+1.00
-71.00,-27.00,-2.00,-6.00,-1.00,+2.00,-49.00,-97.00,-50.00,-5.00,+16.00,+5.00,-10.00,-3.00,+53.00,-26.00
-6.00,-45.00,-23.00,+2.00,+8.00,+6.00,+45.00,+18.00,+58.00,-59.00,-30.00,-12.00,+3.00,+16.00,-18.00,-86.00
+39.00,+67.00,+65.00,+13.00,+13.00,+10.00,-28.00,+47.00,+35.00,+26.00,+3.00,-12.00,+1.00,+18.00,+45.00,+67.00
+48.00,-1.00,-31.00,-10.00,-27.00,-39.00,-39.00,-18.00,-18.00,-19.00,-3.00,+3.00,+5.00,+6.00,-14.00,+5.00
-4.00,-38.00,-24.00,-3.00,-1.00,-27.00,+14.00,-23.00,+11.00,+16.00,+10.00,+12.00,+4.00,+19.00,+100.00,+75.00
+1.00,+70.00,+31.00,+9.00,+16.00,+39.00,-43.00,-51.00,-13.00,+36.00,+7.00,-9.00,-8.00,-22.00,-64.00,-23.00
-51.00,-72.00,-56.00,-9.00,+14.00,+21.00,+19.00,-14.00,-31.00,-68.00,-56.00,-28.00,+4.00,+2.00,-23.00,+3.00
-77.00,-79.00,-40.00,-11.00,-16.00,-25.00,+57.00,+75.00,+5.00,-14.00,-24.00,+4.00,-13.00,-19.00,+27.00,-73.00
+21.00,+87.00,+66.00,+2.00,-2.00,+6.00,+8.00,+127.00,+52.00,-16.00,+16.00,+1.00,+8.00,+12.00,-8.00,+110.00
+47.00,+0.00,-7.00,+6.00,+1.00,-34.00,-25.00,-57.00,-50.00,+70.00,+41.00,+10.00,-16.00,-41.00,-84.00,-71.00
-70.00,-2.00,+19.00,+8.00,+33.00,+63.00,+34.00,-108.00,-1.00,-35.00,-14.00,+6.00,+4.00,+15.00,+56.00,+2.00
+63.00,+19.00,+17.00,+10.00,+18.00,+35.00,+17.00,+58.00,-13.00,+75.00,+41.00,+13.00,+20.00,+12.00,+27.00,+49.00
+10.00,+17.00,-4.00,-1.00,-24.00,-38.00,-48.00,-108.00,-35.00,-47.00,-14.00,+5.00,+20.00,+33.00,+1.00,-24.00
-13.00,-25.00,-14.00,-6.00,-16.00,-23.00,+23.00,-28.00,+14.00,+109.00,+50.00,+2.00,-42.00,-53.00,-36.00,-18.00
+21.00,+49.00,+29.00,+6.00,+10.00,+3.00,-15.00,+103.00,+9.00,-76.00,-73.00,-20.00,+24.00,+42.00,-19.00,+18.00
-31.00,-77.00,-48.00,+3.00,-3.00,-4.00,+27.00,+57.00,-16.00,+19.00,+25.00,+0.00,-27.00,-42.00,-43.00,-51.00
-1.00,+49.00,+34.00,-12.00,-8.00,+0.00,-17.00,-35.00,+22.00,-8.00,-21.00,+6.00,+11.00,+11.00,+4.00,+37.00
-10.00,+32.00,+6.00,-2.00,-11.00,-2.00,-20.00,-53.00,-27.00,-96.00,-62.00,-39.00,-12.00,-8.00,+32.00,+24.00
-15.00,-39.00,-54.00,-13.00,-17.00,-45.00,-32.00,+59.00,-41.00,-1.00,+17.00,+10.00,-2.00,-6.00,+20.00,-17.00
-53.00,-5.00,+26.00,+5.00,+2.00,+7.00,-25.00,-128.00,+22.00,+55.00,+23.00,+3.00,+10.00,+26.00,+51.00,+43.00
+8.00,-47.00,-46.00,-2.00,-3.00,-4.00,+19.00,+103.00,+2.00,+52.00,+18.00,+4.00,+8.00,+4.00,+21.00,+12.00
-64.00,+5.00,+29.00,+1.00,-12.00,-34.00,-34.00,-32.00,+25.00,-31.00,-16.00,-7.00,+5.00,+11.00,+38.00,+70.00
+113.00,+52.00,+7.00,+4.00,+20.00,+36.00,+14.00,-9.00,-16.00,-3.00,+6.00,+4.00,-15.00,-31.00,-70.00,-49.00
-31.00,-8.00,+11.00,+4.00,+1.00,+5.00,-33.00,+34.00,+58.00,+12.00,-19.00,-14.00,-12.00,-5.00,+17.00,+49.00
-22.00,-53.00,-24.00,-13.00,-29.00,-42.00,-19.00,-69.00,-66.00,-31.00,-25.00,-9.00,-1.00,-5.00,+50.00,-97.00
-6.00,-5.00,+1.00,+13.00,+31.00,+47.00,+35.00,-40.00,+27.00,-8.00,+10.00,+11.00,-3.00,+4.00,-14.00,+34.00
+24.00,-37.00,-14.00,-13.00,-23.00,-37.00,+7.00,-39.00,-1.00,-6.00,+23.00,+1.00,+13.00,+12.00,-55.00,+1.00
-24.00,-53.00,-28.00,-4.00,+9.00,+19.00,-59.00,-85.00,+5.00,+58.00,+35.00,+22.00,+8.00,+0.00,-10.00,+4.00
+39.00,+54.00,+46.00,+17.00,+21.00,+41.00,+14.00,-10.00,+10.00,-43.00,-27.00,-10.00,-33.00,-65.00,-113.00,-1.00
-22.00,-77.00,-50.00,-16.00,-26.00,-34.00,-21.00,+3.00,-27.00,-7.00,+20.00,+11.00,+30.00,+23.00,+55.00,-101.00
+5.00,+63.00,+50.00,+26.00,+19.00,+18.00,+39.00,+76.00,+49.00,+80.00,+36.00,+2.00,+20.00,+37.00,+63.00,+77.00
+53.00,+34.00,-3.00,+2.00,-3.00,+3.00,+22.00,+17.00,-60.00,-128.00,-83.00,-25.00,-8.00,-5.00,-11.00,-55.00
-33.00,-86.00,-35.00,-9.00,-5.00,-10.00,-2.00,-29.00,+41.00,+110.00,+41.00,+9.00,-13.00,-18.00,-2.00,+97.00
+105.00,+74.00,+22.00,+3.00,+6.00,+15.00,+21.00,+46.00,-55.00,-106.00,-43.00,-10.00,+4.00,+1.00,-27.00,-42.00
-25.00,-7.00,+9.00,-6.00,-20.00,-52.00,-45.00,-65.00,+11.00,+76.00,+33.00,+14.00,-10.00,-19.00,-41.00,-19.00
+5.00,-14.00,-4.00,+10.00,+28.00,+60.00,+31.00,-35.00,-28.00,-54.00,-38.00,-5.00,+16.00,+54.00,+93.00,+26.00
-27.00,+7.00,+1.00,-2.00,+0.00,-1.00,+3.00,+19.00,+23.00,-8.00,-11.00,-4.00,-1.00,-12.00,-58.00,-43.00
+14.00,+6.00,+0.00,+8.00,+6.00,+0.00,+12.00,-40.00,+50.00,-1.00,-15.00,-2.00,+6.00,+5.00,+7.00,+127.00
+22.00,-36.00,+15.00,+8.00,+7.00,+21.00,+15.00,+61.00,-37.00,-34.00,-10.00,+0.00,+2.00,+18.00,+41.00,-71.00
+4.00,+61.00,+17.00,-9.00,-17.00,-34.00,+25.00,+68.00,+36.00,+6.00,-1.00,-3.00,+4.00,+13.00,+44.00,+28.00
-51.00,-36.00,-33.00,-4.00,+6.00,+0.00,-71.00,-108.00,-24.00,-35.00,+3.00,-7.00,-6.00,+8.00,-21.00,-43.00
-47.00,-3.00,+5.00,-4.00,-7.00,-1.00,+2.00,+4.00,-7.00,-5.00,+5.00,+19.00,+17.00,-9.00,-13.00,-14.00
+36.00,+17.00,+4.00,+2.00,+2.00,+3.00,+22.00,+64.00,+25.00,-18.00,+4.00,-19.00,-20.00,+8.00,+88.00,+34.00
+37.00,+41.00,+22.00,+4.00,-3.00,-12.00,-29.00,-73.00,-15.00,-46.00,-40.00,-10.00,+2.00,-49.00,-128.00,-29.00
+10.00,+10.00,-6.00,-7.00,+1.00,+10.00,+6.00,-23.00,-10.00,+22.00,+18.00,+15.00,+19.00,+20.00,+64.00,-2.00
-14.00,-55.00,-11.00,-2.00,-13.00,-21.00,+2.00,+31.00,+10.00,+29.00,+4.00,-19.00,-25.00,-22.00,-64.00,-39.00
-49.00,+15.00,+23.00,+9.00,+9.00,+32.00,-1.00,-12.00,-6.00,+17.00,+7.00,+3.00,-1.00,-3.00,+41.00,+17.00
-86.00,-41.00,-19.00,-15.00,-12.00,-16.00,-41.00,-76.00,+20.00,+11.00,-5.00,-5.00,-2.00,-1.00,-33.00,+5.00
+91.00,+58.00,+13.00,+8.00,+10.00,+8.00,+48.00,+94.00,+21.00,+16.00,-1.00,-10.00,-12.00,-6.00,+31.00,-1.00
+59.00,-3.00,-4.00,+10.00,+2.00,+9.00,+39.00,+127.00,-23.00,+20.00,-22.00,+2.00,+9.00,+8.00,-6.00,-46.00
-34.00,-34.00,-17.00,-11.00,-3.00,+10.00,+3.00,-70.00,+3.00,+24.00,+11.00,+3.00,-6.00,-15.00,-21.00,+16.00
-13.00,+3.00,-8.00,-6.00,-1.00,-18.00,-72.00,-91.00,-31.00,-34.00,-17.00,-12.00,-5.00,+17.00,+49.00,-32.00
-80.00,-71.00,-26.00,-10.00,+0.00,+3.00,+29.00,+86.00,-15.00,-17.00,-11.00,-5.00,-8.00,-35.00,-80.00,-26.00
-20.00,-20.00,-35.00,-21.00,-8.00,-6.00,-20.00,-6.00,+58.00,+22.00,+1.00,+5.00,+9.00,+23.00,+40.00,+75.00
-20.00,+14.00,+4.00,+8.00,+5.00,+17.00,+6.00,-73.00,-34.00,+39.00,+35.00,+23.00,+17.00,-7.00,-93.00,-116.00
+22.00,+9.00,+15.00,+4.00,+2.00,-17.00,-25.00,+51.00,+53.00,+30.00,+12.00,-11.00,-5.00,+25.00,+122.00,+60.00
+40.00,+76.00,+21.00,+13.00,+14.00,+33.00,+48.00,+24.00,-32.00,-14.00,-10.00,+0.00,+0.00,-10.00,-37.00,-6.00
+20.00,+14.00,+9.00,+3.00,+5.00,-1.00,-2.00,-33.00,-12.00,-20.00,-15.00,-1.00,+22.00,+26.00,+38.00,+21.00
-26.00,-50.00,-37.00,-11.00,-17.00,-28.00,+6.00,+63.00,+6.00,-50.00,-35.00,-19.00,-28.00,-18.00,-16.00,-24.00
+55.00,+54.00,+20.00,+0.00,+3.00,+0.00,+18.00,+26.00,-21.00,+4.00,+22.00,+11.00,-6.00,-36.00,-83.00,-7.00
-18.00,+7.00,+18.00,+10.00,+5.00,+12.00,-13.00,-67.00,+3.00,+63.00,+24.00,+0.00,+0.00,+24.00,+37.00,+28.00
-73.00,-8.00,+7.00,-4.00,-15.00,-21.00,-8.00,-90.00,+18.00,-29.00,-8.00,+4.00,+5.00,+4.00,-4.00,+50.00
+90.00,-3.00,-7.00,+6.00,+13.00,+4.00,+0.00,-16.00,-18.00,-109.00,-29.00,-11.00,-10.00,-6.00,+1.00,-38.00
-43.00,-24.00,-14.00,-10.00,+3.00,+25.00,+17.00,-12.00,-17.00,+79.00,+35.00,+16.00,+17.00,+12.00,-11.00,-37.00
+10.00,-25.00,-20.00,-9.00,-10.00,-12.00,+24.00,+80.00,+29.00,-71.00,-17.00,+0.00,+3.00,+12.00,+42.00,+37.00
+112.00,+113.00,+56.00,+28.00,+26.00,+36.00,+30.00,+38.00,-13.00,+23.00,+4.00,+3.00,-6.00,-5.00,-2.00,+26.00
-89.00,-64.00,-13.00,-9.00,-14.00,-44.00,-65.00,-91.00,+58.00,-2.00,-11.00,-7.00,-2.00,+2.00,-14.00,+54.00
+34.00,+26.00,+8.00,+3.00,+6.00,+19.00,+52.00,+70.00,-9.00,-2.00,+5.00,+2.00,+0.00,+17.00,+75.00,+72.00
-41.00,-31.00,-11.00,-6.00,-13.00,-21.00,-65.00,-128.00,-73.00,-44.00,-22.00,-5.00,+5.00,-18.00,-57.00,-67.00
-23.00,-41.00,-29.00,-6.00,+7.00,+7.00,+22.00,+24.00,+38.00,+27.00,+26.00,+23.00,+28.00,+31.00,+10.00,+30.00
+6.00,+14.00,+9.00,+0.00,+0.00,-3.00,+17.00,-15.00,-22.00,-31.00,-21.00,-21.00,-40.00,-45.00,+9.00,+15.00
+26.00,-5.00,+3.00,+4.00,-5.00,-10.00,-21.00,-22.00,+22.00,+43.00,+26.00,+5.00,+4.00,+10.00,-40.00,-19.00
-3.00,+2.00,-15.00,-6.00,-1.00,+4.00,-5.00,-7.00,-3.00,-23.00,-24.00,-18.00,-11.00,-16.00,-19.00,-4.00
+35.00,-36.00,-13.00,-2.00,-12.00,-27.00,-7.00,-18.00,+14.00,+13.00,+7.00,+7.00,-2.00,-3.00,+20.00,+12.00
-55.00,+1.00,-24.00,-18.00,-6.00,-1.00,-37.00,-67.00,-80.00,+9.00,+0.00,-2.00,+6.00,+2.00,-10.00,-31.00
-4.00,-2.00,+7.00,+2.00,-10.00,+7.00,+45.00,-18.00,+69.00,+96.00,+46.00,+17.00,+26.00,+17.00,-9.00,+40.00
+25.00,+0.00,+3.00,-5.00,-4.00,-10.00,-10.00,+24.00,+4.00,-62.00,-70.00,-31.00,-40.00,-10.00,+37.00,+25.00
-31.00,+16.00,+13.00,+7.00,+4.00,+13.00,-10.00,-32.00,-19.00,+93.00,+36.00,+3.00,-7.00,-10.00,-35.00,-72.00
+19.00,-41.00,-15.00,+0.00,+2.00,+8.00,+7.00,+19.00,+18.00,-49.00,-30.00,+5.00,+10.00,+3.00,+7.00,+59.00
+7.00,-25.00,-17.00,-5.00,-4.00,-3.00,+13.00,+15.00,-34.00,+13.00,+14.00,+2.00,-2.00,+11.00,+31.00,-12.00
-24.00,-42.00,-24.00,-15.00,-10.00,-26.00,-35.00,-16.00,+39.00,+9.00,+7.00,+7.00,+17.00,+16.00,+28.00,+19.00
+59.00,+54.00,+19.00,+8.00,-3.00,-11.00,+15.00,+55.00,+19.00,-13.00,+7.00,-1.00,-8.00,-33.00,-59.00,-58.00
-24.00,+3.00,+15.00,+10.00,+19.00,+46.00,-5.00,-6.00,-42.00,-17.00,-17.00,-3.00,+9.00,+9.00,+16.00,+8.00
-3.00,+2.00,-4.00,+1.00,-1.00,+8.00,+9.00,-22.00,+14.00,-45.00,-24.00,-21.00,-23.00,-16.00,-10.00,+28.00
-34.00,-30.00,+1.00,+1.00,+2.00,-6.00,-18.00,-56.00,-5.00,+15.00,+11.00,+18.00,+7.00,+9.00,-17.00,-30.00
-37.00,-26.00,-16.00,-12.00,-5.00,+10.00,+19.00,+50.00,-25.00,-39.00,-13.00,-17.00,-11.00,+0.00,+9.00,+16.00
-16.00,+6.00,-1.00,-8.00,-8.00,-23.00,+11.00,+60.00,+29.00,+32.00,+14.00,+9.00,+7.00,+12.00,+4.00,-55.00
+50.00,+6.00,+1.00,+9.00,-2.00,-23.00,-26.00,+2.00,-20.00,-25.00,-12.00,+0.00,-5.00,-20.00,-39.00,-26.00
-39.00,+30.00,+21.00,-6.00,+0.00,+7.00,-6.00,-4.00,+24.00,+36.00,+28.00,+15.00,+1.00,+4.00,+4.00,-18.00
+88.00,+58.00,+22.00,+8.00,+9.00,-5.00,+6.00,+43.00,-10.00,-6.00,-2.00,-7.00,+0.00,-5.00,+2.00,+22.00
+18.00,-24.00,-13.00,+0.00,-7.00,+2.00,+5.00,+12.00,+5.00,+17.00,+8.00,+3.00,+5.00,-10.00,+6.00,-12.00
-75.00,-38.00,-24.00,-14.00,-3.00,+5.00,+4.00,-6.00,+25.00,+2.00,-3.00,-7.00,-5.00,+7.00,-4.00,+13.00
-8.00,-1.00,-14.00,-1.00,-11.00,-27.00,-20.00,-12.00,-62.00,-23.00,+6.00,+7.00,+3.00,-1.00,-8.00,-60.00
-10.00,-31.00,-8.00,-12.00,-12.00,+1.00,-15.00,-46.00,+19.00,-1.00,-11.00,-1.00,-3.00,-5.00,+13.00,+25.00
+34.00,+58.00,+30.00,+11.00,+4.00,+6.00,+33.00,+50.00,-4.00,+17.00,+8.00,-14.00,-15.00,+0.00,-25.00,+0.00
+48.00,+19.00,+5.00,+11.00,+22.00,+23.00,-10.00,-13.00,-13.00,-18.00,-16.00,+18.00,+11.00,-13.00,-18.00,-34.00
-22.00,-30.00,-6.00,+0.00,-13.00,-26.00,-22.00,-57.00,+20.00,+11.00,-4.00,-29.00,-25.00,-5.00,+1.00,+25.00
+11.00,+2.00,+7.00,+2.00,+12.00,+30.00,+17.00,+19.00,-20.00,-13.00,-12.00,-10.00,-4.00,-6.00,+3.00,-8.00
-30.00,-9.00,-5.00,+1.00,-2.00,-7.00,-21.00,-52.00,+12.00,+12.00,+15.00,+11.00,+18.00,+17.00,+42.00,+12.00
+1.00,-3.00,+1.00,-2.00,-7.00,-28.00,-39.00,-26.00,-8.00,-7.00,+5.00,+23.00,+4.00,+0.00,-15.00,-32.00
-10.00,-9.00,-12.00,-6.00,-9.00,+3.00,+26.00,+0.00,+8.00,-4.00,-4.00,-30.00,-16.00,-18.00,-18.00,+27.00
-46.00,+14.00,+20.00,+8.00,+10.00,+9.00,-6.00,+2.00,-29.00,-13.00,-6.00,-2.00,+0.00,-2.00,+15.00,-10.00
+42.00,+4.00,+17.00,+2.00,-1.00,+0.00,+10.00,+23.00,+19.00,+14.00,+3.00,-4.00,-15.00,-9.00,-30.00,-26.00
-61.00,-34.00,-38.00,-20.00,-13.00,-7.00,-3.00,-25.00,+20.00,-3.00,-9.00,-18.00,-14.00,-2.00,+26.00,+85.00
+33.00,+47.00,+3.00,-5.00,-3.00,-5.00,-12.00,+17.00,+28.00,+7.00,-1.00,+12.00,+4.00,-14.00,-6.00,+0.00
-16.00,-7.00,-17.00,-12.00,-21.00,-27.00,-27.00,-19.00,-46.00,-18.00,-12.00,-14.00,-10.00,+10.00,-20.00,-25.00
-8.00,+10.00,+7.00,+7.00,+13.00,+16.00,+34.00,-3.00,-5.00,+1.00,-7.00,+5.00,+9.00,+2.00,-34.00,-35.00
+33.00,+25.00,+19.00,+5.00,-7.00,-6.00,-2.00,-14.00,-5.00,-1.00,+20.00,+17.00,+27.00,+23.00,+23.00,+21.00
+15.00,-31.00,-9.00,+3.00,+9.00,+5.00,+11.00,+29.00,+13.00,+5.00,-3.00,-1.00,+0.00,+18.00,+19.00,+10.00
-41.00,+2.00,+3.00,+0.00,-9.00,-6.00,-6.00,-22.00,+28.00,+14.00,-1.00,+2.00,-8.00,-16.00,+4.00,+47.00
-20.00,-10.00,-23.00,-7.00,-6.00,-13.00,-59.00,-35.00,-16.00,+7.00,-5.00,-1.00,+2.00,-3.00,-1.00,-7.00
+1.00,+4.00,+12.00,-5.00,-17.00,-1.00,+58.00,+13.00,-16.00,+20.00,+7.00,-10.00,-14.00,-4.00,-15.00,-30.00
+31.00,+6.00,-1.00,+3.00,+26.00,+29.00,+21.00,+55.00,-18.00,-41.00,-2.00,+5.00,+5.00,+0.00,+4.00,-20.00
+17.00,+6.00,+2.00,+2.00,+5.00,-8.00,+2.00,+14.00,+6.00,-9.00,-8.00,-1.00,+3.00,+8.00,+5.00,+7.00
-25.00,-11.00,-13.00,-9.00,-13.00,-13.00,-26.00,-35.00,+3.00,-16.00,-5.00,-1.00,-5.00,-8.00,-6.00,+20.00
+13.00,-7.00,-4.00,-4.00,+3.00,+6.00,-7.00,+7.00,-10.00,-6.00,-7.00,-14.00,-11.00,-18.00,-14.00,-25.00
-5.00,-4.00,+7.00,+4.00,-1.00,+15.00,+33.00,-32.00,-1.00,+20.00,+15.00,+9.00,+4.00,-9.00,+1.00,+9.00
+40.00,-22.00,-2.00,+7.00,+13.00,+19.00,+28.00,+43.00,-8.00,-4.00,-2.00,-4.00,-3.00,-6.00,-7.00,-6.00
-9.00,+40.00,-4.00,-2.00,+6.00,+5.00,+8.00,+17.00,+4.00,+5.00,+3.00,+8.00,+4.00,+4.00,-5.00,+0.00
+39.00,+23.00,+9.00,+4.00,-1.00,+0.00,-13.00,+39.00,+2.00,+12.00,+1.00,+4.00,+9.00,+7.00,+20.00,+10.00
-25.00,+8.00,+1.00,-7.00,-19.00,-12.00,-16.00,-12.00,+9.00,+14.00,+8.00,+2.00,-14.00,+7.00,+10.00,+5.00
-41.00,-36.00,-15.00,-9.00,-3.00,-15.00,-47.00,-32.00,-14.00,-36.00,-24.00,-16.00,-14.00,-7.00,-15.00,-17.00
+3.00,-4.00,+9.00,+6.00,+4.00,-1.00,+6.00,-14.00,-3.00,+16.00,+10.00,+11.00,+12.00,+1.00,+3.00,+1.00
+27.00,+35.00,+23.00,+14.00,+9.00,-4.00,+0.00,+12.00,-8.00,-3.00,+3.00,+8.00,+3.00,-4.00,-30.00,-38.00
-50.00,-14.00,-30.00,-9.00,-1.00,+1.00,-3.00,-28.00,+16.00,+4.00,+6.00,+20.00,+25.00,+16.00,+13.00,+11.00
+4.00,+7.00,+9.00,-1.00,-8.00,-4.00,+2.00,-28.00,-48.00,-12.00,-8.00,-19.00,-26.00,-15.00,+10.00,-10.00
+26.00,+8.00,-11.00,-5.00,-3.00,-5.00,-10.00,-2.00,+35.00,+16.00,+7.00,-1.00,+7.00,+9.00,+7.00,+2.00
-5.00,-22.00,-5.00,-7.00,-5.00,-2.00,+11.00,+23.00,+8.00,-10.00,-12.00,-4.00,+0.00,+3.00,-10.00,+0.00
+27.00,-5.00,+2.00,+3.00,-3.00,+6.00,+7.00,+20.00,-4.00,+32.00,+9.00,+0.00,+1.00,-5.00,-11.00,-29.00
-12.00,-2.00,-4.00,-2.00,-6.00,-7.00,-12.00,-9.00,+34.00,-22.00,-3.00,+4.00,+2.00,+6.00,+17.00,+26.00
-23.00,-13.00,-5.00,-6.00,-10.00,-14.00,-14.00,+3.00,-7.00,-18.00,-13.00,-8.00,-8.00,-10.00,-11.00,+13.00
-61.00,-16.00,-4.00,-2.00,+0.00,-8.00,-25.00,-55.00,-30.00,+6.00,+8.00,+0.00,-4.00,+5.00,+11.00,-27.00
+70.00,+13.00,+5.00,+3.00,+9.00,+10.00,+23.00,+80.00,+6.00,-5.00,-7.00,-8.00,-6.00,-7.00,-8.00,+26.00
-8.00,-6.00,-11.00,-11.00,-9.00,+1.00,+19.00,-24.00,-2.00,+7.00,-7.00,+1.00,+6.00,+4.00,+3.00,-27.00
+16.00,+0.00,+6.00,+7.00,+8.00,+9.00,-3.00,+11.00,+7.00,-7.00,-2.00,-2.00,+0.00,+4.00,-4.00,+14.00
-6.00,+12.00,+0.00,+2.00,-3.00,-25.00,-31.00,+25.00,-5.00,-13.00,-3.00,+5.00,-7.00,-16.00,+2.00,-7.00
-15.00,-4.00,+1.00,-1.00,+1.00,+20.00,+25.00,+5.00,-22.00,-8.00,-7.00,-25.00,-13.00,-13.00,-8.00,-6.00
-49.00,-37.00,-3.00,-1.00,+9.00,-8.00,-37.00,-36.00,+17.00,+16.00,+17.00,+18.00,+23.00,+3.00,-8.00,+13.00
+38.00,+37.00,+4.00,-2.00,-2.00,+7.00,+16.00,-3.00,+11.00,+13.00,+4.00,+1.00,-9.00,-8.00,-4.00,+7.00
-9.00,-28.00,-2.00,-2.00,-3.00,-11.00,-10.00,-6.00,-15.00,-11.00,-16.00,-25.00,-16.00,+3.00,+22.00,+16.00
+3.00,+10.00,+9.00,+6.00,+0.00,-7.00,-17.00,-7.00,-24.00,-16.00,-4.00,+12.00,+16.00,+6.00,-20.00,-1.00
-8.00,-19.00,-6.00,-10.00,-5.00,+5.00,+16.00,+8.00,+10.00,+13.00,+2.00,-14.00,-16.00,-22.00,-19.00,-17.00
-20.00,-17.00,-13.00,-8.00,-7.00,-9.00,-7.00,-22.00,-5.00,+2.00,+5.00,-1.00,-2.00,+5.00,+2.00,-38.00
+12.00,+7.00,+7.00,+7.00,+5.00,+3.00,+11.00,+23.00,-6.00,-12.00,-5.00,-8.00,-11.00,-16.00,-11.00,-4.00
-28.00,+12.00,+13.00,+0.00,-1.00,+6.00,+8.00,-18.00,+7.00,-9.00,-6.00,-8.00,-11.00,+1.00,+11.00,+43.00
+22.00,+3.00,-7.00,-1.00,+0.00,+10.00,+16.00,+12.00,-2.00,+42.00,+21.00,+18.00,+16.00,+10.00,+14.00,-5.00
-52.00,-30.00,-10.00,-9.00,-7.00,-9.00,-17.00,-11.00,+4.00,-38.00,-28.00,+3.00,+10.00,+15.00,+7.00,+6.00
+17.00,+20.00,-2.00,-2.00,+4.00,+8.00,+21.00,+45.00,-49.00,-14.00,-3.00,-3.00,-4.00,-9.00,-21.00,-20.00
-7.00,-13.00,+1.00,+8.00,+3.00,+5.00,+36.00,+3.00,+43.00,+6.00,-2.00,-8.00,+1.00,+15.00,-1.00,-3.00
-1.00,+4.00,-1.00,-2.00,-12.00,-9.00,-7.00,+6.00,-17.00,-16.00,-7.00,+3.00,+1.00,+6.00,-3.00,-6.00
-24.00,-14.00,-9.00,-5.00,+5.00,+0.00,-7.00,-25.00,+17.00,+28.00,+10.00,-3.00,-19.00,-27.00,-4.00,+12.00
-42.00,-25.00,-7.00,-1.00,-1.00,+3.00,-1.00,-28.00,+19.00,+1.00,+2.00,+2.00,+6.00,+9.00,-1.00,-3.00
+36.00,-4.00,-3.00,-3.00,-6.00,-18.00,-27.00,+42.00,-10.00,-6.00,-11.00,+5.00,+4.00,-7.00,-5.00,+28.00
+57.00,+38.00,+14.00,+10.00,+7.00,-4.00,+21.00,+48.00,-17.00,-2.00,+11.00,+6.00,-1.00,+2.00,-2.00,-34.00
+19.00,+13.00,+6.00,+2.00,-4.00,+22.00,+41.00,+17.00,+1.00,-6.00,-3.00,-7.00,+1.00,+1.00,+2.00,+39.00
-36.00,-26.00,-9.00,-1.00,+16.00,+17.00,+21.00,-28.00,+7.00,-4.00,-1.00,+8.00,+5.00,-9.00,-17.00,-13.00
-2.00,+2.00,+5.00,+1.00,-6.00,-8.00,-27.00,-37.00,+0.00,+5.00,+3.00,-16.00,-31.00,-4.00,+3.00,-22.00
-20.00,+21.00,+8.00,+0.00,-7.00,-15.00,-28.00,-38.00,+13.00,+13.00,+3.00,+2.00,+8.00,+6.00,+26.00,+51.00
+4.00,-28.00,-16.00,-7.00,-5.00,-7.00,-5.00,+3.00,-25.00,-42.00,-15.00,-8.00,+2.00,+5.00,+6.00,-12.00
+30.00,+10.00,-3.00,-2.00,-3.00,-6.00,-7.00,-5.00,-2.00,+6.00,-2.00,+7.00,-6.00,-16.00,-39.00,-34.00
-18.00,+11.00,-4.00,+0.00,+2.00,+3.00,+17.00,-12.00,-6.00,+3.00,+6.00,+1.00,+2.00,+0.00,-11.00,-17.00
-11.00,-21.00,-3.00,+1.00,-1.00,-3.00,-1.00,-7.00,+21.00,+1.00,-6.00,-16.00,-14.00,-13.00,+13.00,+38.00
-15.00,+17.00,+15.00,+10.00,-1.00,-10.00,-1.00,-10.00,-30.00,+43.00,+20.00,+2.00,+3.00,+14.00,+12.00,-70.00
-40.00,-46.00,-11.00,-4.00,-4.00,+7.00,-3.00,-7.00,+14.00,-10.00,-2.00,-1.00,+6.00,+12.00,+3.00,-19.00
+63.00,+13.00,-1.00,-4.00,-6.00,-8.00,-17.00,+0.00,-13.00,-37.00,-23.00,-3.00,+0.00,-1.00,+11.00,+38.00
+6.00,-4.00,-7.00,+2.00,+1.00,+4.00,-22.00,+28.00,+44.00,+8.00,+4.00,+5.00,+2.00,-6.00,-10.00,+21.00
-5.00,+31.00,+20.00,+3.00,-3.00,-2.00,+13.00,+3.00,-47.00,-10.00,+1.00,-4.00,-8.00,-3.00,+7.00,+4.00
-9.00,-5.00,-4.00,-2.00,-1.00,-5.00,-12.00,-10.00,+14.00,+9.00,+5.00,+1.00,+2.00,+9.00,+8.00,+14.00
-17.00,-5.00,+3.00,+1.00,-2.00,-4.00,-13.00,-11.00,-9.00,+5.00,+6.00,+7.00,+5.00,-5.00,+0.00,-24.00
-14.00,-5.00,-4.00,-2.00,+2.00,-2.00,-15.00,-14.00,-30.00,-17.00,-9.00,-5.00,-8.00,-1.00,+5.00,+24.00
+28.00,-1.00,-7.00,-6.00,-1.00,-4.00,-27.00,-10.00,+19.00,+6.00,+14.00,+13.00,+9.00,-6.00,-20.00,-44.00
+11.00,+13.00,+8.00,+0.00,-7.00,-6.00,+7.00,-18.00,+5.00,+7.00,-13.00,-11.00,+0.00,+14.00,+6.00,+26.00
-11.00,-13.00,-3.00,-1.00,+5.00,-2.00,+25.00,+27.00,+3.00,-1.00,+5.00,+7.00,+4.00,-16.00,-3.00,+1.00
-14.00,-11.00,-6.00,-5.00,-3.00,+2.00,-2.00,-17.00,-1.00,-8.00,-12.00,-17.00,-23.00,-7.00,-5.00,-1.00
+3.00,-4.00,-4.00,+0.00,-3.00,-7.00,+2.00,+12.00,-16.00,+11.00,+2.00,-4.00,+0.00,+3.00,-4.00,-12.00
-49.00,-1.00,+6.00,-1.00,-6.00,-11.00,-18.00,-43.00,+10.00,-10.00,+1.00,+2.00,+3.00,-5.00,-5.00,+31.00
+18.00,-8.00,-4.00,-2.00,+1.00,+9.00,+1.00,-11.00,+2.00,+18.00,+1.00,-7.00,-7.00,-3.00,+0.00,-18.00
+20.00,+7.00,+1.00,+5.00,+2.00,+10.00,+27.00,+31.00,-2.00,-6.00,+0.00,+7.00,+3.00,-5.00,-15.00,-13.00
+22.00,-6.00,-2.00,+0.00,+6.00,+1.00,-7.00,-15.00,-1.00,+9.00,+16.00,+8.00,+12.00,+12.00,-8.00,+2.00
+43.00,+38.00,+3.00,+2.00,-2.00,+4.00,+11.00,+48.00,+13.00,-18.00,-21.00,-4.00,+2.00,+4.00,+28.00,+17.00
-1.00,-23.00,+0.00,+0.00,+0.00,+1.00,-7.00,+10.00,+6.00,+22.00,+12.00,+6.00,+4.00,+0.00,+11.00,+29.00
+2.00,+27.00,+4.00,+3.00,+3.00,+6.00,+10.00,-5.00,-29.00,-10.00,-4.00,+0.00,+2.00,-3.00,-34.00,-28.00
-7.00,-5.00,+0.00,-1.00,-4.00,-2.00,-5.00,+4.00,+37.00,+3.00,-15.00,-8.00,-10.00,-8.00,-2.00,+30.00
-18.00,-5.00,-6.00,-6.00,-2.00,-3.00,+5.00,+6.00,-14.00,+5.00,+5.00,+6.00,+4.00,+9.00,+13.00,-7.00
-7.00,-6.00,-3.00,-1.00,+8.00,-7.00,-10.00,+9.00,-2.00,+9.00,+3.00,-3.00,+2.00,+0.00,-1.00,-35.00
-7.00,-6.00,-3.00,-3.00,-6.00,+0.00,-5.00,-5.00,+13.00,+11.00,+9.00,+2.00,+3.00,+4.00,+12.00,+0.00
+1.00,+0.00,+1.00,-2.00,-2.00,-9.00,-2.00,-9.00,+2.00,-9.00,-6.00,-4.00,-4.00,-8.00,+2.00,+15.00
+42.00,+1.00,-6.00,-2.00,+4.00,+4.00,+10.00,+26.00,+2.00,+7.00,+4.00,+8.00,+7.00,-1.00,-4.00,+4.00
-21.00,-3.00,-4.00,-4.00,+1.00,-3.00,-14.00,-6.00,+0.00,-15.00,-12.00,+11.00,-2.00,+8.00,+6.00,+11.00
-11.00,-17.00,+2.00,-4.00,-7.00,-9.00,+14.00,-4.00,-4.00,-8.00,-7.00,-24.00,-12.00,-6.00,-10.00,-12.00
-51.00,-14.00,-15.00,-1.00,+1.00,+0.00,-5.00,+21.00,-6.00,-4.00,-11.00,-8.00,-6.00,-7.00,+6.00,+10.00
+12.00,+22.00,+21.00,-2.00,-8.00,-6.00,-29.00,+3.00,-4.00,-2.00,+1.00,+2.00,-1.00,+0.00,-9.00,-34.00
-44.00,+4.00,-1.00,+2.00,-6.00,-16.00,-33.00,-26.00,-1.00,+8.00,+9.00,+9.00,+9.00,+7.00,-10.00,-2.00
+54.00,+11.00,+1.00,+0.00,+10.00,+22.00,+33.00,+35.00,-6.00,-18.00,+4.00,+10.00,+11.00,+3.00,-2.00,-40.00
+30.00,-13.00,-11.00,-3.00,+1.00,+2.00,+5.00,+8.00,+16.00,+17.00,-2.00,+2.00,-5.00,+2.00,+0.00,+57.00
+15.00,+2.00,-1.00,-2.00,-1.00,+6.00,+14.00,+21.00,-51.00,-11.00,-5.00,-9.00,-8.00,-8.00,-21.00,-80.00
-24.00,-4.00,+1.00,+0.00,-8.00,-7.00,-4.00,-18.00,+27.00,-22.00,-11.00,-8.00,-3.00,-4.00,+4.00,+22.00
+15.00,+20.00,+3.00,-1.00,+4.00,-7.00,-11.00,-13.00,+1.00,+11.00,-1.00,+2.00,-1.00,+14.00,+17.00,+3.00
+15.00,+1.00,+5.00,+2.00,+0.00,+9.00,+17.00,+9.00,-26.00,-19.00,-2.00,+0.00,+3.00,-13.00,-19.00,-16.00
+9.00,+7.00,-5.00,-1.00,-4.00,-4.00,+5.00,-13.00,+10.00,+6.00,+0.00,+3.00,+2.00,+10.00,+10.00,+3.00
+6.00,-9.00,-2.00,-4.00,-6.00,-7.00,-24.00,-7.00,-12.00,+3.00,+0.00,-13.00,-24.00,-7.00,+6.00,-18.00
-15.00,-26.00,-8.00,+1.00,+8.00,+1.00,-10.00,-15.00,+0.00,+0.00,-3.00,+0.00,+2.00,+5.00,-7.00,+11.00
-31.00,+2.00,-1.00,+0.00,-5.00,+0.00,-16.00,-36.00,+10.00,-5.00,+1.00,+6.00,+0.00,-4.00,-2.00,-4.00
+55.00,+9.00,+1.00,+3.00,+2.00,+7.00,+36.00,+18.00,+16.00,+3.00,+4.00,-4.00,+0.00,-7.00,-2.00,+39.00
-2.00,-1.00,+1.00,+0.00,+2.00,+0.00,+6.00,+21.00,-19.00,-11.00,+2.00,+9.00,+19.00,+0.00,-4.00,-18.00
-17.00,-1.00,+4.00,-8.00,-8.00,-4.00,-6.00,-9.00,-1.00,-6.00,-8.00,-11.00,-20.00,-10.00,+7.00,+24.00
-48.00,-15.00,-14.00,-9.00,-5.00,-11.00,-16.00,-44.00,-19.00,+6.00,+2.00,-5.00,-3.00,-1.00,+7.00,-31.00
-32.00,-2.00,-2.00,+3.00,+4.00,-8.00,-31.00,-14.00,+6.00,-6.00,-3.00,-2.00,+0.00,-4.00,+1.00,+15.00
+10.00,-6.00,-3.00,-2.00,-1.00,+8.00,+14.00,-10.00,+4.00,-1.00,-2.00,-3.00,+1.00,-5.00,-7.00,+21.00
-12.00,+5.00,+10.00,+4.00,-4.00,-3.00,-1.00,-9.00,+13.00,+15.00,+4.00,+2.00,+2.00,+5.00,+0.00,+14.00
+17.00,-1.00,+0.00,-3.00,-1.00,+8.00,+15.00,+18.00,-17.00,-8.00,-2.00,-2.00,-1.00,-1.00,-2.00,-18.00
+4.00,+14.00,-1.00,+4.00,-9.00,-4.00,+5.00,+18.00,+29.00,-2.00,+2.00,-2.00,-6.00,-7.00,+6.00,+43.00
+16.00,-6.00,-8.00,+0.00,+2.00,+1.00,-3.00,+5.00,-1.00,-3.00,+3.00,-4.00,-6.00,+2.00,+2.00,+19.00
-16.00,+2.00,+7.00,+1.00,+5.00,+1.00,-6.00,-12.00,-8.00,-4.00,-2.00,+7.00,+6.00,-11.00,-3.00,-26.00
-4.00,-12.00,-10.00,-3.00,+3.00,+0.00,+0.00,-6.00,+6.00,-4.00,+4.00,+7.00,+9.00,+11.00,-9.00,-4.00
-9.00,-9.00,-1.00,-4.00,-3.00,+1.00,-3.00,-4.00,-11.00,+10.00,+0.00,-17.00,-21.00,-11.00,-3.00,-12.00
-46.00,-17.00,-6.00,-6.00,-5.00,-1.00,+0.00,+10.00,+1.00,+11.00,+4.00,-2.00,-2.00,+2.00,-7.00,+1.00
+48.00,+35.00,+6.00,+1.00,+0.00,-1.00,+13.00,+22.00,-11.00,-12.00,-4.00,+3.00,+4.00,-3.00,+0.00,-27.00
+44.00,+12.00,+16.00,+8.00,+9.00,+11.00,+3.00,+28.00,+4.00,+1.00,-3.00,+3.00,+10.00,+7.00,+5.00,+5.00
+24.00,-12.00,+1.00,+2.00,+5.00,+5.00,+3.00,+16.00,-4.00,-3.00,-3.00,+0.00,-5.00,-4.00,-6.00,+2.00
-10.00,+0.00,-3.00,-4.00,-4.00,+2.00,+0.00,-16.00,-10.00,-9.00,-5.00,-9.00,+3.00,+10.00,+3.00,-21.00
-27.00,-22.00,-11.00,-4.00,-6.00,-8.00,-9.00,-17.00,-3.00,-5.00,-4.00,+0.00,-1.00,-8.00,-6.00,+0.00
-6.00,+3.00,-3.00,-4.00,-7.00,-2.00,+13.00,-4.00,+3.00,+6.00,+1.00,-2.00,-6.00,-8.00,+5.00,+1.00
-5.00,-9.00,-2.00,+6.00,+1.00,-11.00,-26.00,+2.00,-3.00,+0.00,-2.00,+1.00,+5.00,+0.00,-5.00,+6.00
+40.00,+43.00,+45.00,+9.00,+3.00,+5.00,+6.00,+0.00,+1.00,-5.00,-7.00,-2.00,-8.00,-1.00,+7.00,+8.00
-10.00,-23.00,-43.00,-17.00,-7.00,-11.00,-5.00,+3.00,+11.00,+12.00,+11.00,+7.00,+6.00,+8.00,+5.00,-11.00
+11.00,+9.00,+6.00,-4.00,-10.00,-10.00,-4.00,+5.00,-17.00,-14.00,-12.00,-3.00,-1.00,-5.00,-3.00,+3.00
-24.00,-14.00,+2.00,+4.00,+9.00,+12.00,+3.00,-17.00,-2.00,+8.00,+9.00,-2.00,-6.00,-2.00,-8.00,-35.00
-17.00,+4.00,-8.00,-1.00,+1.00,-1.00,+11.00,-1.00,+20.00,-1.00,-9.00,-5.00,-1.00,-8.00,-4.00,+27.00
-42.00,-12.00,+4.00,+0.00,+4.00,+0.00,-11.00,-14.00,-25.00,-8.00,+0.00,+3.00,+10.00,+9.00,+2.00,-26.00
+19.00,+13.00,+8.00,+4.00,+4.00,+2.00,-1.00,+34.00,-3.00,+0.00,-3.00,-7.00,-23.00,-22.00,-7.00,-7.00
-18.00,-9.00,-7.00,-6.00,-10.00,+2.00,+11.00,-7.00,+10.00,-5.00,-4.00,+0.00,+2.00,+6.00,+5.00,+10.00
+8.00,-2.00,-2.00,+2.00,-1.00,-4.00,-6.00,+1.00,-11.00,+0.00,+1.00,+4.00,+3.00,-1.00,-5.00,-28.00
-18.00,+1.00,+0.00,-1.00,-3.00,+3.00,-11.00,-10.00,-4.00,-3.00,-4.00,+4.00,+8.00,+4.00,+8.00,+13.00
-20.00,-12.00,-5.00,-3.00,-1.00,-11.00,-18.00,+11.00,-2.00,-9.00,-3.00,-11.00,-17.00,-5.00,-2.00,+11.00
+6.00,+12.00,+10.00,-1.00,+3.00,+3.00,+11.00,-3.00,-1.00,+4.00,-2.00,+3.00,+7.00,+0.00,-6.00,+0.00
+10.00,-3.00,-5.00,+0.00,+1.00,+4.00,-7.00,-12.00,-6.00,+3.00,+2.00,+2.00,-3.00,+0.00,+2.00,-2.00
-10.00,-15.00,-17.00,-7.00,-6.00,-6.00,-6.00,-15.00,-2.00,-10.00,-5.00,+1.00,+5.00,-3.00,-1.00,+7.00
-2.00,+3.00,+5.00,+2.00,+0.00,+0.00,+6.00,+9.00,+6.00,+8.00,+3.00,+1.00,+1.00,-1.00,-2.00,-11.00
+39.00,+8.00,-1.00,-3.00,-1.00,-4.00,+3.00,+16.00,-5.00,-7.00,-5.00,-5.00,-2.00,-1.00,-4.00,-2.00
-2.00,-5.00,-9.00,+0.00,+2.00,-2.00,+2.00,+11.00,-14.00,-2.00,+0.00,-1.00,+3.00,-3.00,-4.00,-25.00
+18.00,+14.00,+19.00,+5.00,-7.00,+6.00,+13.00,+6.00,+8.00,+0.00,-1.00,-1.00,-7.00,-1.00,-1.00,+11.00
-4.00,+4.00,+5.00,+4.00,+2.00,-1.00,-17.00,+6.00,-3.00,-2.00,-1.00,-2.00,-1.00,+10.00,+10.00,+7.00
-18.00,-12.00,-10.00,-5.00,+1.00,-1.00,-5.00,-1.00,-7.00,+0.00,+1.00,-2.00,-3.00,-7.00,-12.00,-22.00
-2.00,-9.00,-12.00,-5.00,-8.00,-1.00,+3.00,-4.00,+0.00,-3.00,-2.00,+1.00,+0.00,+2.00,+2.00,+5.00
+4.00,+0.00,-2.00,+0.00,+5.00,+3.00,+2.00,+7.00,-14.00,-3.00,-4.00,-6.00,-9.00,-4.00,-2.00,-25.00
+14.00,+0.00,+1.00,+1.00,-2.00,+3.00,+4.00,-1.00,+10.00,+2.00,+4.00,+2.00,+2.00,+2.00,+5.00,+6.00
-29.00,-8.00,-5.00,+0.00,+0.00,+5.00,+5.00,-6.00,-4.00,-6.00,-5.00,-1.00,-2.00,-3.00,-2.00,+1.00
+18.00,+4.00,+3.00,+1.00,-2.00,-12.00,-19.00,-8.00,+11.00,+7.00,+1.00,+4.00,+2.00,+0.00,+2.00,+8.00
+4.00,+6.00,+2.00,+2.00,+1.00,+14.00,+22.00,+8.00,+7.00,+0.00,-1.00,-3.00,-3.00,-2.00,+0.00,+4.00
+7.00,+0.00,-3.00,-6.00,-4.00,-8.00,-4.00,-12.00,+15.00,+10.00,+1.00,+1.00,+3.00,-4.00,+1.00,+12.00
-11.00,-5.00,-2.00,-2.00,+0.00,-2.00,+1.00,-1.00,-6.00,-7.00,-3.00,+0.00,-2.00,-1.00,+2.00,-1.00
-11.00,-2.00,-3.00,-2.00,+1.00,-3.00,+5.00,-3.00,-10.00,-1.00,+2.00,-3.00,-4.00,+2.00,-4.00,-16.00
+12.00,+2.00,+3.00,+2.00,+2.00,-2.00,-2.00,+10.00,-6.00,-8.00,-8.00,-9.00,-8.00,-2.00,+3.00,+2.00
+9.00,-1.00,+0.00,+0.00,+0.00,-1.00,+5.00,-3.00,-3.00,-3.00,+1.00,+3.00,+5.00,+1.00,-5.00,-4.00
+1.00,-6.00,-7.00,-4.00,-3.00,-2.00,-11.00,-16.00,+5.00,+0.00,+0.00,-3.00,-4.00,-1.00,-2.00,+9.00
