+9.00,-1.00,-3.00,-1.00,-3.00,+1.00,+1.00,-5.00,-16.00,-12.00,-6.00,-2.00,-2.00,-4.00,-2.00,-3.00
+22.00,+2.00,+1.00,+0.00,+3.00,+3.00,+1.00,+13.00,+5.00,+6.00,-1.00,-1.00,-1.00,+0.00,+2.00,-1.00
-3.00,-3.00,-2.00,-3.00,-3.00,+0.00,+5.00,+5.00,+5.00,+3.00,+1.00,+1.00,-1.00,-2.00,-3.00,-2.00
-3.00,+2.00,-1.00,+1.00,-1.00,+1.00,-1.00,+3.00,+1.00,+0.00,+0.00,+2.00,+1.00,-2.00,-2.00,-4.00
+4.00,-2.00,-1.00,+0.00,+1.00,-1.00,-2.00,-17.00,+2.00,+0.00,+1.00,-1.00,-1.00,-2.00,-1.00,-3.00
+4.00,-3.00,-3.00,-2.00,-1.00,-1.00,+0.00,-12.00,-13.00,-7.00,-3.00,-2.00,-2.00,-2.00,-5.00,+9.00
-14.00,+0.00,+2.00,-1.00,+1.00,+0.00,-1.00,+8.00,-1.00,-2.00,-2.00,-1.00,+2.00,-2.00,-1.00,-2.00
+1.00,+1.00,+1.00,+0.00,+1.00,+1.00,-2.00,-3.00,-4.00,-4.00,-2.00,-3.00,-3.00,+0.00,+0.00,+3.00
-2.00,-4.00,-2.00,-2.00,-4.00,+2.00,+2.00,+18.00,+2.00,+0.00,-1.00,-1.00,+0.00,-1.00,+0.00,+8.00
-7.00,-7.00,-2.00,-1.00,-2.00,-6.00,-3.00,-14.00,+2.00,+1.00,+2.00,+2.00,-2.00,-3.00,-3.00,-2.00
+5.00,+6.00,+2.00,+2.00,+1.00,+2.00,-2.00,+13.00,-8.00,-2.00,-3.00,-1.00,-5.00,-2.00,-6.00,-37.00
+5.00,+4.00,+1.00,-1.00,-1.00,-2.00,+0.00,-9.00,+8.00,+0.00,-1.00,+34.00,+33.00,+1.00,-1.00,+2.00
+5.00,+1.00,-1.00,-4.00,-15.00,-15.00,-4.00,+5.00,+2.00,+2.00,+3.00,-1.00,+12.00,+16.00,+6.00,+2.00
+8.00,-2.00,-3.00,-9.00,-43.00,-1.00,-2.00,+9.00,+0.00,+4.00,-2.00,-20.00,-17.00,-7.00,-2.00,+5.00
-12.00,-1.00,+1.00,+11.00,+80.00,+26.00,+9.00,-1.00,-4.00,-3.00,+3.00,+7.00,+3.00,+0.00,+0.00,+4.00
+13.00,+3.00,+1.00,+1.00,+3.00,+3.00,+2.00,+5.00,+16.00,+7.00,-1.00,-20.00,-22.00,-5.00,+1.00,+6.00
-16.00,+0.00,+2.00,+0.00,+4.00,-3.00,-2.00,+10.00,+0.00,-12.00,-2.00,+20.00,+27.00,+5.00,+2.00,-5.00
+31.00,+2.00,+1.00,+0.00,+7.00,+12.00,+6.00,+9.00,-26.00,-5.00,-5.00,-1.00,+15.00,-2.00,-8.00,-39.00
-15.00,-9.00,-3.00,-9.00,-45.00,-36.00,-11.00,-6.00,-3.00,-7.00,-8.00,-27.00,-25.00,-7.00,-4.00,-1.00
+1.00,+2.00,-2.00,+3.00,+44.00,+46.00,+5.00,-3.00,-29.00,-6.00,+2.00,+12.00,+7.00,-2.00,-4.00,-11.00
+11.00,+13.00,+2.00,+1.00,+4.00,-1.00,-2.00,-11.00,+15.00,+21.00,+11.00,-1.00,+0.00,+8.00,+6.00,+15.00
+7.00,+25.00,+10.00,+3.00,-13.00,-1.00,+3.00,-2.00,-1.00,-10.00,-2.00,+1.00,-5.00,+1.00,+0.00,+3.00
+5.00,+2.00,+3.00,+3.00,+14.00,+15.00,+3.00,+8.00,+8.00,-4.00,-3.00,+7.00,+7.00,-2.00,+1.00,+12.00
-12.00,-13.00,-5.00,-5.00,-15.00,-17.00,-4.00,-3.00,-6.00,-7.00,-3.00,-7.00,-5.00,+0.00,-2.00,-20.00
+11.00,-25.00,-7.00,-2.00,-7.00,-1.00,+0.00,+4.00,-10.00,-5.00,-2.00,-1.00,-6.00,-6.00,-7.00,-3.00
-41.00,+9.00,-1.00,-2.00,+0.00,-5.00,-5.00,+18.00,+7.00,+5.00,-2.00,+4.00,+3.00,-1.00,+1.00,+0.00
+2.00,-7.00,-4.00,-4.00,-15.00,-5.00,-3.00,-9.00,+5.00,+16.00,+4.00,+1.00,+2.00,+1.00,+0.00,+0.00
-25.00,-18.00,-8.00,-6.00,-21.00,-19.00,-6.00,+16.00,-2.00,-26.00,-4.00,-2.00,-1.00,+1.00,+0.00,+5.00
+5.00,-9.00,-4.00,-2.00,+5.00,+6.00,-1.00,-9.00,-1.00,+17.00,+2.00,-3.00,-8.00,-5.00,-4.00,-11.00
-4.00,+17.00,+8.00,+5.00,+10.00,+0.00,-3.00,-9.00,+6.00,+2.00,+0.00,-2.00,-8.00,-2.00,+2.00,+0.00
+21.00,+1.00,-4.00,-4.00,-11.00,-8.00,+1.00,+14.00,+6.00,+6.00,-4.00,-1.00,+2.00,-2.00,-3.00,+5.00
-9.00,-13.00,-7.00,-4.00,-8.00,-7.00,-4.00,-9.00,+7.00,-7.00,+4.00,+1.00,+4.00,+12.00,+10.00,+46.00
+0.00,+37.00,+11.00,+3.00,-3.00,+11.00,+4.00,+14.00,-3.00,-3.00,-2.00,-6.00,-6.00,-8.00,-6.00,-10.00
+1.00,+18.00,+12.00,+7.00,+24.00,+1.00,+0.00,+1.00,-5.00,-3.00,-3.00,-3.00,-4.00,+0.00,-4.00,+3.00
+26.00,+0.00,-1.00,-2.00,-12.00,+2.00,+4.00,-13.00,+12.00,+18.00,+2.00,-3.00,+0.00,-3.00,-7.00,-5.00
-14.00,-26.00,-10.00,-4.00,-7.00,-6.00,-2.00,+1.00,-5.00,-3.00,-3.00,+0.00,-4.00,+3.00,+1.00,-1.00
-26.00,-22.00,-13.00,-7.00,-11.00,-20.00,-9.00,-14.00,-5.00,-8.00,-3.00,+2.00,+0.00,-9.00,-5.00,-12.00
+1.00,+7.00,+7.00,+4.00,-6.00,+4.00,-5.00,-6.00,+9.00,+4.00,+0.00,+1.00,+17.00,-1.00,-1.00,+10.00
-9.00,-4.00,+4.00,+1.00,-1.00,+13.00,+1.00,-3.00,-15.00,-14.00,-4.00,-12.00,-29.00,-9.00,+0.00,-3.00
+27.00,+16.00,+8.00,+6.00,+25.00,+16.00,+4.00,-14.00,+4.00,+7.00,-1.00,-12.00,-6.00,-6.00,-6.00,-11.00
-21.00,-11.00,-4.00,+0.00,+8.00,+0.00,+0.00,-1.00,+0.00,-7.00,-4.00,-3.00,-4.00,+0.00,+4.00,+8.00
+10.00,-14.00,-12.00,-7.00,+2.00,-6.00,-2.00,-32.00,-1.00,-4.00,+0.00,-1.00,-11.00,-1.00,+0.00,-6.00
-3.00,+8.00,+2.00,-1.00,-8.00,-9.00,-2.00,+6.00,-2.00,-2.00,-1.00,+9.00,+24.00,+2.00,+1.00,+3.00
-7.00,-1.00,-1.00,-3.00,-13.00,-3.00,+0.00,+3.00,-5.00,+10.00,+1.00,-1.00,+1.00,-3.00,-7.00,-13.00
-1.00,+2.00,+2.00,+0.00,+2.00,-1.00,-2.00,-10.00,+1.00,-1.00,-5.00,-8.00,-10.00,-4.00,+1.00,+7.00
+31.00,-22.00,-10.00,-3.00,+2.00,-3.00,+3.00,+16.00,+0.00,-1.00,+0.00,+2.00,+0.00,+1.00,-4.00,-17.00
-8.00,-2.00,-3.00,-3.00,-5.00,+0.00,-1.00,-3.00,-23.00,-14.00,+0.00,+0.00,+0.00,+4.00,+3.00,+2.00
-2.00,-15.00,-11.00,-7.00,-15.00,-9.00,+1.00,+3.00,-2.00,-4.00,-4.00,-2.00,-1.00,-5.00,-3.00,-9.00
+30.00,+61.00,+27.00,+9.00,+8.00,+6.00,+6.00,+10.00,+4.00,+8.00,+1.00,+1.00,-2.00,+1.00,-3.00,-1.00
-20.00,-24.00,-5.00,+0.00,-5.00,-8.00,-2.00,-9.00,+0.00,-7.00,-2.00,-1.00,-4.00,-1.00,+0.00,+3.00
+6.00,+20.00,+4.00,+4.00,+3.00,-4.00,-8.00,-3.00,+10.00,+13.00,+3.00,+0.00,+2.00,+0.00,-4.00,+2.00
-4.00,+2.00,+6.00,+4.00,+4.00,-4.00,-5.00,-9.00,-9.00,-4.00,-7.00,-7.00,-4.00,-7.00,-13.00,-3.00
-18.00,-28.00,-12.00,-3.00,-3.00,-4.00,+1.00,+3.00,+12.00,+1.00,-2.00,-2.00,-3.00,-2.00,+2.00,+6.00
-11.00,-26.00,-14.00,-7.00,-2.00,-1.00,-1.00,-5.00,-11.00,-7.00,-2.00,+0.00,+0.00,-3.00,+0.00,+3.00
-2.00,+1.00,+8.00,+3.00,-3.00,+1.00,+0.00,+4.00,+1.00,-18.00,-5.00,+4.00,+4.00,+9.00,+3.00,+8.00
+5.00,+20.00,+1.00,-1.00,-5.00,-8.00,-3.00,+0.00,-3.00,+7.00,+5.00,+1.00,-2.00,-12.00,+7.00,+6.00
+13.00,+33.00,+14.00,+3.00,-3.00,-1.00,-3.00,+1.00,+3.00,-1.00,+1.00,+7.00,+7.00,+12.00,-2.00,-3.00
-11.00,+10.00,+3.00,-3.00,-12.00,-10.00,-2.00,+12.00,+11.00,+7.00,-2.00,-15.00,-24.00,+3.00,-3.00,-1.00
-24.00,-56.00,-19.00,-5.00,+6.00,+19.00,+10.00,-29.00,-14.00,-18.00,-3.00,-3.00,-2.00,-6.00,+0.00,-5.00
+4.00,+8.00,+1.00,+3.00,+16.00,+7.00,+1.00,+11.00,-3.00,+2.00,-3.00,-4.00,+1.00,+6.00,-6.00,-6.00
+1.00,-9.00,+0.00,+0.00,+0.00,-6.00,+0.00,+2.00,+10.00,+4.00,+2.00,+4.00,+4.00,-8.00,+2.00,+1.00
-19.00,-13.00,-7.00,-4.00,-2.00,-1.00,-4.00,+0.00,-8.00,+1.00,-3.00,+0.00,+3.00,-3.00,+6.00,-2.00
+3.00,-2.00,-6.00,-3.00,-5.00,-16.00,-8.00,-7.00,+15.00,+4.00,+2.00,+5.00,-5.00,+2.00,+8.00,+7.00
+10.00,+12.00,+8.00,-1.00,-8.00,-7.00,+2.00,-1.00,-6.00,-10.00,-6.00,-2.00,+10.00,-1.00,+7.00,-2.00
-8.00,-15.00,-10.00,-5.00,-15.00,-10.00,-5.00,-8.00,+11.00,+14.00,+4.00,-7.00,-14.00,-5.00,-2.00,-4.00
-5.00,-2.00,+2.00,+0.00,+17.00,+12.00,+5.00,+1.00,+4.00,-3.00,+4.00,+5.00,+11.00,+4.00,-2.00,+8.00
+4.00,+14.00,+3.00,+0.00,-1.00,+3.00,+0.00,+8.00,+2.00,+10.00,-1.00,-6.00,-12.00,-7.00,-2.00,-3.00
+4.00,+9.00,+2.00,+0.00,-5.00,-5.00,-1.00,-1.00,-6.00,-9.00,+0.00,+2.00,+7.00,-1.00,-4.00,-6.00
-2.00,-8.00,-1.00,-1.00,-1.00,-7.00,-6.00,-4.00,-2.00,-20.00,-8.00,-7.00,-3.00,-4.00,-4.00,+0.00
-14.00,-26.00,-6.00,+0.00,+2.00,+2.00,-1.00,+5.00,-18.00,-10.00,-3.00,+2.00,+3.00,+1.00,+4.00,+0.00
-10.00,-23.00,-16.00,-8.00,-9.00,-10.00,-4.00,-7.00,-11.00,-2.00,-1.00,+8.00,+11.00,-2.00,+0.00,-7.00
+34.00,+40.00,+20.00,+8.00,+6.00,+8.00,+7.00,+3.00,+6.00,+11.00,+1.00,-6.00,-24.00,-2.00,-2.00,+0.00
-8.00,-10.00,-6.00,-6.00,-24.00,-18.00,-2.00,+6.00,-13.00,+1.00,-3.00,-14.00,-12.00,-2.00,-3.00,-5.00
-3.00,+9.00,+1.00,+4.00,+28.00,+8.00,+2.00,+4.00,+20.00,+6.00,+2.00,-1.00,-4.00,-5.00,-1.00,+8.00
-4.00,-12.00,+2.00,+2.00,+6.00,+4.00,-2.00,+1.00,-8.00,-11.00,-5.00,-5.00,-1.00,-2.00,+0.00,+3.00
-8.00,-12.00,-7.00,-3.00,-4.00,-4.00,-4.00,-24.00,+7.00,+12.00,+2.00,+6.00,+9.00,+5.00,+2.00,+6.00
+8.00,+14.00,+2.00,-4.00,-2.00,+3.00,+1.00,+3.00,-20.00,-15.00,-5.00,-7.00,-12.00,-5.00,-4.00,-8.00
-3.00,-13.00,-7.00,-4.00,-16.00,+1.00,-2.00,-7.00,-7.00,-5.00,+0.00,+7.00,+8.00,-1.00,-2.00,+0.00
-2.00,-1.00,-6.00,-2.00,+8.00,-6.00,-6.00,-14.00,+27.00,+26.00,+5.00,+4.00,+11.00,+6.00,-2.00,+1.00
+11.00,+37.00,+13.00,+3.00,-5.00,-5.00,-2.00,+5.00,+18.00,+14.00,+2.00,-6.00,-12.00,+0.00,+3.00,+3.00
+18.00,-1.00,+0.00,+4.00,+20.00,+18.00,+10.00,+10.00,-2.00,-8.00,-2.00,+5.00,+11.00,+4.00,+0.00,-4.00
-18.00,+0.00,-2.00,-1.00,-1.00,+2.00,-6.00,-4.00,-12.00,-17.00,-3.00,-4.00,-3.00,-5.00,-1.00,-2.00
+33.00,+33.00,+10.00,+3.00,-1.00,+4.00,+3.00,+13.00,-2.00,+1.00,+1.00,+4.00,+1.00,-3.00,-10.00,-7.00
-29.00,-39.00,-15.00,-6.00,-8.00,-4.00,-7.00,-9.00,+6.00,-6.00,-4.00,+7.00,+23.00,+1.00,+3.00,+8.00
-31.00,-24.00,-10.00,-7.00,-5.00,+2.00,-2.00,-17.00,-21.00,-11.00,-4.00,-5.00,-20.00,-7.00,-3.00,-16.00
+9.00,+23.00,+7.00,+1.00,-23.00,-22.00,-13.00,-23.00,+12.00,+16.00,+3.00,-2.00,-16.00,+8.00,+0.00,-1.00
-2.00,+10.00,+5.00,+5.00,+25.00,+20.00,+20.00,+6.00,-16.00,-22.00,-6.00,-7.00,-1.00,+1.00,+0.00,-7.00
-18.00,-27.00,-8.00,-4.00,+0.00,-2.00,-5.00,+2.00,-11.00,-2.00,-5.00,-9.00,-9.00,-9.00,-5.00,-7.00
+1.00,+2.00,+0.00,+3.00,+20.00,+10.00,-3.00,-4.00,+1.00,-4.00,+0.00,+7.00,+8.00,-36.00,-4.00,+11.00
+24.00,+8.00,+7.00,+1.00,-3.00,-6.00,+4.00,-6.00,+2.00,+11.00,-1.00,+3.00,+11.00,+43.00,-1.00,+2.00
-10.00,+5.00,+0.00,-4.00,-21.00,-19.00,-13.00,+4.00,+3.00,-4.00,+2.00,+2.00,+1.00,+3.00,+2.00,-2.00
-6.00,-34.00,-14.00,-5.00,-9.00,-3.00,-3.00,-10.00,-6.00,-2.00,-2.00,-2.00,-6.00,+0.00,-2.00,+12.00
+10.00,+56.00,+25.00,+11.00,+17.00,+4.00,+12.00,+1.00,+0.00,+3.00,+2.00,+2.00,-4.00,+6.00,-2.00,+7.00
-20.00,-9.00,-4.00,-3.00,-5.00,-3.00,-9.00,-9.00,-1.00,-1.00,-2.00,+3.00,+12.00,-19.00,+1.00,-4.00
-3.00,+1.00,-1.00,-1.00,-7.00,-5.00,-2.00,+16.00,+15.00,+4.00,-4.00,-11.00,-15.00,-8.00,-5.00,+17.00
-10.00,-18.00,-6.00,-2.00,-3.00,-4.00,+3.00,+0.00,-6.00,+5.00,+0.00,-2.00,-4.00,+6.00,-2.00,-25.00
-60.00,-40.00,-17.00,-11.00,-11.00,-16.00,-19.00,-29.00,-6.00,-3.00,+1.00,-4.00,-3.00,-6.00,-4.00,-6.00
-27.00,-1.00,-4.00,-6.00,+5.00,+10.00,+16.00,+30.00,+2.00,-1.00,-2.00,+3.00,-5.00,-10.00,-7.00,+2.00
+7.00,+21.00,+9.00,+4.00,-4.00,+5.00,-5.00,+3.00,+0.00,+2.00,+1.00,+1.00,+5.00,+5.00,+4.00,+8.00
-4.00,+12.00,+6.00,+3.00,+6.00,-3.00,+3.00,-7.00,-2.00,-12.00,-5.00,-2.00,-14.00,-16.00,-4.00,-4.00
+20.00,-5.00,-2.00,+1.00,-2.00,+5.00,-5.00,+11.00,+7.00,+11.00,+0.00,+3.00,+19.00,-27.00,-6.00,-1.00
+5.00,-5.00,-5.00,-1.00,-10.00,-20.00,-15.00,-10.00,-10.00,-5.00,-1.00,+2.00,-8.00,+55.00,-2.00,-20.00
-14.00,-9.00,-2.00,-2.00,-1.00,+6.00,+12.00,+15.00,+11.00,+12.00,+7.00,+3.00,+6.00,+3.00,+5.00,-6.00
+17.00,+6.00,-4.00,-2.00,+10.00,+7.00,-5.00,-14.00,+4.00,-11.00,-6.00,-7.00,-4.00,+0.00,-7.00,+0.00
-12.00,-22.00,-7.00,-3.00,+5.00,+7.00,+11.00,+15.00,-13.00,+11.00,+1.00,-1.00,-1.00,+4.00,+0.00,-11.00
-14.00,-20.00,-7.00,-2.00,+8.00,+8.00,-2.00,+9.00,-40.00,-37.00,-8.00,-2.00,+5.00,-5.00,-6.00,-3.00
+16.00,+15.00,+3.00,-2.00,-12.00,-8.00,+1.00,+3.00,+33.00,+37.00,+7.00,+6.00,-3.00,+2.00,+0.00,+6.00
-7.00,+6.00,+1.00,-1.00,-7.00,-10.00,-2.00,+21.00,-2.00,-3.00,+2.00,-1.00,+1.00,+2.00,-1.00,-6.00
+4.00,-7.00,-4.00,+2.00,+2.00,-1.00,+0.00,+0.00,+17.00,+3.00,+2.00,+4.00,+7.00,+22.00,+5.00,+9.00
+2.00,+16.00,+9.00,-1.00,-12.00,+3.00,-2.00,-21.00,+7.00,+3.00,+1.00,-1.00,-3.00,-20.00,+5.00,+33.00
+36.00,-4.00,-4.00,-1.00,+7.00,-7.00,-5.00,-12.00,-20.00,-18.00,-7.00,-7.00,-11.00,-2.00,-3.00,-17.00
-32.00,+1.00,+1.00,-1.00,-1.00,+1.00,-3.00,+36.00,+5.00,+7.00,+1.00,+5.00,+6.00,+0.00,+5.00,+11.00
-2.00,-36.00,-16.00,-5.00,-8.00,+0.00,-5.00,-17.00,-4.00,-4.00,-4.00,-1.00,-4.00,-1.00,+2.00,-2.00
+21.00,+6.00,+8.00,+4.00,+4.00,+2.00,+7.00,+21.00,+2.00,+2.00,+4.00,-1.00,-2.00,-12.00,-1.00,+5.00
+2.00,+4.00,+2.00,+1.00,-2.00,-3.00,+0.00,-11.00,-18.00,-12.00,-8.00,-4.00,+2.00,-4.00,-5.00,-2.00
+8.00,+10.00,+2.00,+0.00,+4.00,+7.00,-5.00,-5.00,+8.00,+3.00,+1.00,-3.00,-7.00,-8.00,-2.00,-4.00
+4.00,-5.00,-4.00,+0.00,-4.00,-1.00,+1.00,+0.00,-17.00,-12.00,-3.00,-3.00,-2.00,+5.00,-5.00,+0.00
-6.00,-1.00,-3.00,+1.00,+7.00,+2.00,+2.00,-20.00,+6.00,+4.00,-2.00,-2.00,+3.00,+17.00,+5.00,-7.00
-13.00,-2.00,-1.00,-2.00,-1.00,-1.00,-4.00,+25.00,-6.00,-8.00,-2.00,+0.00,-2.00,-3.00,-5.00,-6.00
-2.00,-20.00,-5.00,-1.00,-7.00,-5.00,+7.00,-6.00,-6.00,+7.00,+0.00,+16.00,+24.00,+13.00,+0.00,-8.00
-2.00,+11.00,+0.00,-4.00,-15.00,-19.00,-10.00,-2.00,+1.00,-4.00,-3.00,-21.00,-49.00,-16.00,-2.00,-4.00
+12.00,+16.00,+5.00,+5.00,+9.00,+10.00,+0.00,+0.00,+4.00,+1.00,-3.00,-9.00,-2.00,-23.00,+0.00,-4.00
+5.00,-12.00,-1.00,+3.00,+19.00,+9.00,-4.00,-33.00,+6.00,+1.00,+2.00,+3.00,+6.00,+0.00,+0.00,+1.00
-2.00,+5.00,-2.00,-3.00,-2.00,+5.00,+0.00,+10.00,-6.00,-3.00,-4.00,-6.00,+2.00,+3.00,+7.00,+18.00
+68.00,+9.00,+4.00,+2.00,+5.00,+11.00,+7.00,-8.00,-5.00,+2.00,+0.00,+4.00,+6.00,+1.00,-3.00,-7.00
-37.00,-24.00,-11.00,-7.00,-9.00,-14.00,-4.00,+21.00,+8.00,-3.00,-2.00,+2.00,+3.00,-10.00,-4.00,+0.00
-9.00,+2.00,+0.00,-2.00,-12.00,-10.00,-12.00,-25.00,-14.00,-19.00,-3.00,-3.00,-4.00,+3.00,+3.00,+23.00
-2.00,+30.00,+20.00,+6.00,+5.00,+3.00,+3.00,+28.00,-3.00,-4.00,-5.00,-5.00,-10.00,-6.00,+0.00,-9.00
+17.00,+21.00,+6.00,-1.00,-2.00,-1.00,+0.00,+5.00,+15.00,+13.00,+2.00,+4.00,+13.00,+6.00,+2.00,+3.00
-1.00,-39.00,-16.00,-6.00,-4.00,-7.00,+0.00,-6.00,-19.00,-10.00,+2.00,+0.00,-3.00,-8.00,-4.00,-13.00
-6.00,+27.00,+5.00,+0.00,-3.00,-1.00,-1.00,+0.00,+27.00,+17.00,-4.00,-3.00,+1.00,-8.00,-3.00,-7.00
-15.00,-52.00,-17.00,-7.00,-2.00,-4.00,-5.00,-19.00,-22.00,-2.00,+5.00,+3.00,-1.00,-8.00,-3.00,+1.00
+1.00,+24.00,+13.00,+4.00,+0.00,+3.00,+3.00,+14.00,+30.00,+12.00,+1.00,+0.00,-7.00,-4.00,+1.00,-3.00
+19.00,+35.00,+13.00,+7.00,+1.00,+1.00,-9.00,+11.00,+1.00,-2.00,-5.00,-3.00,+3.00,+13.00,-10.00,-7.00
-14.00,-42.00,-15.00,-3.00,+0.00,-10.00,-6.00,+18.00,-6.00,+1.00,+4.00,+8.00,+2.00,+6.00,+5.00,+2.00
+4.00,+29.00,+8.00,+2.00,-6.00,-9.00,-1.00,-17.00,-18.00,-25.00,-8.00,-9.00,-10.00,-2.00,-7.00,-14.00
-11.00,-31.00,-8.00,-4.00,+1.00,+5.00,+3.00,+14.00,+7.00,-3.00,-6.00,-1.00,+9.00,-5.00,-3.00,-10.00
+4.00,-5.00,-10.00,-6.00,+0.00,-3.00,-6.00,-10.00,+16.00,+26.00,+7.00,+5.00,+3.00,-10.00,+3.00,+3.00
-11.00,-12.00,-2.00,-3.00,-17.00,-8.00,+0.00,+1.00,-36.00,-37.00,-7.00,+1.00,+5.00,-2.00,-2.00,-10.00
+13.00,-1.00,-8.00,-4.00,+7.00,-7.00,-2.00,-14.00,+29.00,+25.00,+7.00,+14.00,+21.00,+9.00,+3.00,+3.00
-16.00,-7.00,+4.00,-2.00,-32.00,+7.00,-7.00,+5.00,-23.00,-24.00,-7.00,-23.00,-23.00,+0.00,-2.00,+1.00
+4.00,+9.00,+2.00,+12.00,+63.00,+17.00,+15.00,+9.00,+4.00,-3.00,-3.00,-1.00,-3.00,-10.00,-3.00,-3.00
-5.00,+1.00,-1.00,+1.00,+1.00,+2.00,+0.00,-6.00,-4.00,+5.00,-3.00,-7.00,+2.00,+1.00,-4.00,-1.00
-2.00,-7.00,-1.00,+0.00,-2.00,+1.00,-1.00,-3.00,-5.00,-15.00,-2.00,+4.00,-1.00,-2.00,-3.00,-1.00
-30.00,-25.00,-12.00,-5.00,+0.00,-5.00,-6.00,-13.00,-21.00,-24.00,-2.00,+9.00,+12.00,+10.00,+2.00,+0.00
+10.00,+8.00,+0.00,-6.00,-22.00,-6.00,+2.00,-6.00,+19.00,+32.00,+0.00,-4.00,+0.00,-3.00,+1.00,+8.00
-21.00,-46.00,-21.00,-10.00,-8.00,-5.00,-7.00,-11.00,-16.00,-1.00,+4.00,+2.00,-7.00,-8.00,+0.00,-7.00
+38.00,+54.00,+27.00,+11.00,+11.00,+3.00,+2.00,+9.00,+15.00,-2.00,-3.00,-7.00,-10.00,+0.00,+0.00,+6.00
+30.00,+38.00,+9.00,+4.00,+7.00,-2.00,+1.00,+7.00,+6.00,+15.00,+6.00,+4.00,+9.00,+5.00,+1.00,+7.00
-6.00,-7.00,+0.00,-2.00,-12.00,-2.00,+4.00,-2.00,-2.00,-8.00,-4.00,-7.00,-8.00,-9.00,-3.00,-8.00
-7.00,-11.00,-4.00,-1.00,+6.00,+0.00,-2.00,-5.00,-9.00,-6.00,-3.00,-3.00,-2.00,+0.00,-1.00,-5.00
-14.00,-14.00,-11.00,-6.00,-10.00,+2.00,-2.00,-3.00,+2.00,+2.00,-1.00,-5.00,-9.00,-4.00,-5.00,-7.00
-15.00,-22.00,-10.00,-3.00,+4.00,+0.00,-2.00,-7.00,-7.00,-17.00,-11.00,-5.00,+3.00,+6.00,-2.00,+1.00
+1.00,-13.00,-5.00,-2.00,-6.00,-3.00,-1.00,-6.00,-13.00,+1.00,+4.00,+5.00,+2.00,-1.00,+4.00,-5.00
+2.00,+11.00,+2.00,-1.00,-2.00,+2.00,+3.00,+8.00,+8.00,+7.00,+2.00,+3.00,+0.00,+0.00,-1.00,-2.00
+5.00,+25.00,+13.00,+5.00,+3.00,+3.00,+6.00,+20.00,+0.00,-2.00,+0.00,-5.00,+3.00,+8.00,+2.00,+4.00
+2.00,+18.00,+2.00,-1.00,-4.00,+3.00,-1.00,-1.00,+5.00,+7.00,+2.00,+3.00,+1.00,+5.00,+1.00,+3.00
-5.00,+1.00,-3.00,+0.00,+8.00,+7.00,+2.00,-8.00,+3.00,+4.00,-1.00,-2.00,-2.00,-5.00,-4.00,-3.00
+14.00,+10.00,+3.00,+1.00,-7.00,-1.00,+5.00,+3.00,+0.00,+0.00,-5.00,-9.00,-8.00,-4.00,-4.00,-6.00
-8.00,-28.00,-14.00,-4.00,+7.00,+4.00,-1.00,-10.00,-25.00,-22.00,-8.00,-5.00,-7.00,-4.00,-6.00,-15.00
-18.00,-38.00,-11.00,-6.00,+3.00,-6.00,-4.00,-7.00,+22.00,+20.00,+5.00,+4.00,+5.00,+5.00,+2.00,+16.00
-5.00,-3.00,-2.00,-6.00,-14.00,-6.00,-4.00,-2.00,-4.00,-17.00,+0.00,+5.00,+3.00,+1.00,+3.00,+0.00
+18.00,+53.00,+11.00,+2.00,-1.00,+2.00,+1.00,+3.00,-2.00,+4.00,+2.00,-2.00,+0.00,+1.00,-1.00,+0.00
+6.00,-13.00,+0.00,+2.00,+0.00,+3.00,+2.00,+4.00,-3.00,-13.00,+0.00,-1.00,-2.00,-2.00,-2.00,-1.00
+0.00,+27.00,+10.00,+4.00,+8.00,+2.00,+1.00,-3.00,-7.00,+20.00,-2.00,-3.00,-2.00,-3.00,-5.00,-7.00
-16.00,-44.00,-16.00,-7.00,-10.00,-5.00,-7.00,-9.00,+25.00,+1.00,-3.00,-2.00,-2.00,-4.00,-2.00,-1.00
-31.00,-57.00,-25.00,-11.00,-7.00,-9.00,-6.00,-14.00,-42.00,-36.00,-6.00,-2.00,-3.00,-3.00,+2.00,-12.00
+5.00,+31.00,+11.00,+1.00,-1.00,-3.00,-3.00,-9.00,+12.00,+19.00,+4.00,+0.00,-1.00,+0.00,+0.00,+2.00
+38.00,+34.00,+15.00,+7.00,+6.00,+1.00,+8.00,+16.00,+9.00,+8.00,+6.00,+3.00,+2.00,-1.00,+3.00,+1.00
+11.00,+38.00,+10.00,+3.00,+2.00,+2.00,+2.00,+13.00,-6.00,+0.00,-2.00,-3.00,-3.00,-3.00,+1.00,+2.00
-3.00,+5.00,+5.00,+4.00,+5.00,+3.00,+1.00,-1.00,-4.00,-3.00,-6.00,-5.00,-2.00,+1.00,-13.00,-7.00
-30.00,-51.00,-25.00,-11.00,-13.00,-6.00,-3.00,-2.00,+13.00,-7.00,-3.00,+0.00,+1.00,-1.00,+0.00,+1.00
-19.00,-18.00,-9.00,-4.00,-1.00,-2.00,-3.00,-13.00,-10.00,-6.00,+1.00,+10.00,+20.00,+9.00,+2.00,-3.00
+0.00,-9.00,+1.00,+0.00,-18.00,-16.00,+0.00,+4.00,+2.00,+4.00,-1.00,-6.00,-20.00,-10.00,-17.00,-7.00
+2.00,-9.00,+0.00,-2.00,+0.00,+4.00,+3.00,-8.00,-2.00,-16.00,-6.00,-9.00,-1.00,-4.00,+14.00,+5.00
-9.00,-22.00,-18.00,-5.00,+1.00,-3.00,-6.00,-11.00,+10.00,+3.00,-1.00,-7.00,-14.00,+0.00,+9.00,+4.00
+23.00,+45.00,+23.00,+11.00,+23.00,+17.00,+5.00,+14.00,+7.00,+12.00,-3.00,-5.00,-1.00,-5.00,-1.00,+1.00
-3.00,-11.00,+2.00,+1.00,+5.00,+6.00,-1.00,-4.00,-31.00,-21.00,-1.00,+1.00,+8.00,-2.00,-1.00,-8.00
+18.00,+20.00,+9.00,+4.00,-2.00,-3.00,+2.00,+12.00,+6.00,-3.00,+4.00,+3.00,+2.00,-1.00,-3.00,+10.00
-15.00,-37.00,-6.00,-5.00,-15.00,-9.00,-3.00,-11.00,+12.00,+26.00,+5.00,+5.00,+5.00,+1.00,-3.00,+0.00
+17.00,+38.00,+4.00,+0.00,-2.00,-2.00,+2.00,+6.00,-19.00,-14.00,-2.00,-2.00,-4.00,-3.00,+1.00,-2.00
-8.00,-8.00,-5.00,-1.00,-1.00,-3.00,-2.00,-7.00,+12.00,-13.00,-10.00,-3.00,+2.00,+1.00,-3.00,-11.00
-42.00,-72.00,-26.00,-11.00,-9.00,-7.00,-10.00,-18.00,+14.00,+37.00,+7.00,+1.00,-3.00,-1.00,-1.00,+5.00
+8.00,+19.00,+13.00,+3.00,+1.00,+1.00,+2.00,+8.00,-8.00,-3.00,+7.00,+4.00,+6.00,+0.00,+7.00,+12.00
+2.00,+10.00,-5.00,-5.00,-4.00,-8.00,-5.00,-9.00,-11.00,-5.00,-1.00,+0.00,-6.00,-2.00,-7.00,-9.00
+18.00,+42.00,+14.00,+7.00,+4.00,+6.00,+4.00,+6.00,+18.00,+13.00,+1.00,-1.00,-2.00,-1.00,+0.00,+2.00
-20.00,-24.00,-11.00,-3.00,-2.00,-2.00,-4.00,-5.00,+16.00,+4.00,+0.00,+0.00,+1.00,-1.00,-4.00,-5.00
+12.00,+11.00,+2.00,+2.00,+4.00,+3.00,-2.00,-1.00,-5.00,-7.00,-6.00,-5.00,-6.00,-5.00,-5.00,+0.00
-31.00,-40.00,-17.00,-9.00,-8.00,-9.00,-5.00,-13.00,+24.00,+5.00,-1.00,-1.00,-3.00,+0.00,+0.00,+3.00
-14.00,-27.00,-17.00,-6.00,-7.00,-5.00,-3.00,-12.00,-22.00,-30.00,-3.00,-1.00,+3.00,-1.00,-1.00,-8.00
+20.00,+42.00,+24.00,+7.00,+7.00,+5.00,+1.00,+12.00,-7.00,+3.00,-4.00,-2.00,+0.00,+0.00,+6.00,+7.00
+1.00,-24.00,-24.00,-9.00,-8.00,-5.00,-4.00,-14.00,-5.00,-6.00,+3.00,+3.00,+0.00,+1.00,+2.00,+5.00
+29.00,+13.00,+19.00,+8.00,+3.00,+4.00,+7.00,+19.00,+2.00,-5.00,-2.00,-5.00,-7.00,-5.00,-2.00,-6.00
+10.00,+30.00,+17.00,+6.00,+5.00,+3.00,+1.00,+9.00,-8.00,+13.00,+1.00,-2.00,+0.00,+0.00,+8.00,+3.00
-20.00,-25.00,-13.00,-7.00,-1.00,-4.00,-6.00,-6.00,+18.00,-20.00,-5.00,+0.00,-2.00,-12.00,+8.00,+21.00
+48.00,+28.00,+18.00,+8.00,+5.00,+7.00,+12.00,+13.00,-38.00,+11.00,-7.00,-7.00,-1.00,+20.00,-4.00,-27.00
-65.00,-32.00,-25.00,-9.00,-10.00,-5.00,-11.00,-27.00,+17.00,-27.00,+5.00,+5.00,+3.00,+6.00,+19.00,+18.00
+19.00,+25.00,+16.00,+5.00,+7.00,+0.00,+5.00,+7.00,-11.00,-18.00,-10.00,-6.00,-6.00,+0.00,+9.00,+3.00
+5.00,+5.00,+5.00,+3.00,-1.00,+0.00,+2.00,+2.00,+9.00,+35.00,+9.00,+0.00,-1.00,-15.00,+5.00,+1.00
-3.00,+14.00,-3.00,-2.00,-1.00,+0.00,-1.00,-4.00,+14.00,+15.00,+2.00,+7.00,+6.00,+2.00,+8.00,-2.00
-1.00,-21.00,-15.00,-8.00,-15.00,-12.00,+5.00,+0.00,-21.00,-5.00,-12.00,-18.00,-10.00,+0.00,-4.00,-14.00
-27.00,-38.00,-11.00,-2.00,+6.00,+12.00,-9.00,-6.00,-33.00,+3.00,-4.00,-5.00,-2.00,+1.00,+1.00,-11.00
-11.00,-21.00,-12.00,-1.00,+9.00,+6.00,+3.00,-5.00,+16.00,-22.00,-2.00,+1.00,+0.00,+2.00,+11.00,+12.00
+54.00,+91.00,+44.00,+12.00,+9.00,+7.00,+4.00,+7.00,-11.00,-3.00,-2.00,-3.00,-2.00,-11.00,+8.00,+0.00
+17.00,+56.00,+14.00,+5.00,+3.00,+2.00,+3.00,+31.00,-2.00,-13.00,-2.00,+4.00,+1.00,-7.00,+3.00,-7.00
+0.00,+2.00,-4.00,-4.00,-8.00,-6.00,-3.00,-1.00,+16.00,+6.00,+3.00,+1.00,+0.00,+0.00,+8.00,+8.00
-4.00,-24.00,-2.00,-1.00,-2.00,-3.00,+0.00,+4.00,+11.00,+51.00,+1.00,-3.00,-3.00,+3.00,-4.00,-12.00
-32.00,-35.00,-30.00,-8.00,-4.00,-2.00,-5.00,-10.00,-50.00,-68.00,-14.00,-4.00,-4.00,-6.00,-1.00,+8.00
-52.00,-84.00,-11.00,-2.00,-1.00,-4.00,-6.00,-22.00,-10.00,-9.00,+0.00,+1.00,+2.00,+0.00,+0.00,+1.00
+52.00,+68.00,+13.00,+1.00,-3.00,+1.00,+7.00,+21.00,+4.00,+5.00,+6.00,+1.00,-3.00,-2.00,-1.00,+14.00
+15.00,+55.00,+13.00,+4.00,+2.00,-5.00,+0.00,+8.00,-14.00,+4.00,-3.00,+1.00,-2.00,+1.00,-11.00,-15.00
-29.00,-40.00,-14.00,-4.00,-3.00,-5.00,-5.00,-7.00,+11.00,+2.00,-1.00,-2.00,-5.00,-3.00,-17.00,-8.00
-6.00,-22.00,+0.00,+1.00,+1.00,+0.00,-5.00,-10.00,+10.00,-16.00,-8.00,-5.00,-2.00,-7.00,-16.00,-8.00
-27.00,-37.00,-5.00,-4.00,-2.00,-3.00,-2.00,+2.00,+29.00,+41.00,+13.00,+11.00,+13.00,+5.00,-6.00,+11.00
+21.00,+51.00,+10.00,+0.00,-5.00,-5.00,+3.00,-3.00,-21.00,-23.00,-2.00,+4.00,-12.00,-15.00,-17.00,-10.00
+12.00,+48.00,+12.00,+1.00,-11.00,-17.00,-16.00,+9.00,-18.00,+9.00,+2.00,+0.00,+18.00,-10.00,-26.00,-18.00
-41.00,-52.00,-36.00,-13.00,-19.00,-8.00,-11.00,-18.00,+57.00,+19.00,+13.00,+8.00,-2.00,+19.00,+2.00,+21.00
+32.00,+29.00,+27.00,+5.00,+13.00,+14.00,+20.00,+9.00,-4.00,+10.00,-1.00,-8.00,-15.00,-2.00,-12.00,-4.00
-8.00,-83.00,-13.00,-2.00,+4.00,+18.00,+17.00,+1.00,-19.00,-34.00,-13.00,-12.00,-6.00,+3.00,-15.00,-14.00
-4.00,+3.00,+14.00,+7.00,+16.00,+1.00,+3.00,+3.00,+31.00,+44.00,+6.00,-7.00,-10.00,-6.00,-9.00,-38.00
+1.00,-32.00,-15.00,-4.00,+20.00,+11.00,-11.00,-5.00,-29.00,-21.00,-6.00,+4.00,+6.00,-4.00,+0.00,+1.00
+53.00,+14.00,-6.00,-2.00,-12.00,-9.00,+1.00,+2.00,+24.00,+13.00,+6.00,+6.00,+8.00,-2.00,-5.00,+2.00
+2.00,+25.00,+7.00,+4.00,-3.00,-1.00,+1.00,+8.00,-9.00,-16.00,+3.00,+7.00,+10.00,+8.00,+2.00,-18.00
-45.00,-66.00,-31.00,-12.00,-13.00,-4.00,-7.00,-12.00,-23.00,-6.00,-4.00,-3.00,-6.00,-10.00,-9.00,-1.00
+2.00,-31.00,-15.00,-5.00,-9.00,-10.00,-4.00,-10.00,+64.00,+31.00,+2.00,+1.00,+4.00,+3.00,+3.00,+23.00
-39.00,-89.00,-45.00,-11.00,-10.00,-14.00,-17.00,-29.00,-68.00,-61.00,-6.00,+1.00,+0.00,+1.00,+1.00,-11.00
+12.00,+4.00,+22.00,+6.00,+4.00,+1.00,+3.00,+10.00,-55.00,-11.00,-10.00,-11.00,-7.00,-6.00,-16.00,-19.00
-15.00,-60.00,-11.00,-3.00,-5.00,+2.00,+5.00,+9.00,+76.00,+13.00,+7.00,+4.00,+5.00,+6.00,-1.00,+26.00
+106.00,+127.00,+74.00,+17.00,+8.00,+4.00,+15.00,+32.00,-3.00,+15.00,+1.00,-5.00,-13.00,-10.00,-16.00,-6.00
+0.00,-9.00,-7.00,-4.00,+0.00,-3.00,-1.00,+4.00,+4.00,+31.00,-1.00,+0.00,+11.00,-1.00,-21.00,-21.00
-26.00,-37.00,-18.00,-6.00,-5.00,-8.00,-14.00,-13.00,-21.00,-12.00,+2.00,+10.00,-2.00,-56.00,-6.00,+11.00
-37.00,-59.00,-9.00,-11.00,-26.00,-21.00,-13.00,-16.00,+31.00,+27.00,+6.00,-1.00,-2.00,+48.00,+3.00,+11.00
+9.00,-70.00,+14.00,+8.00,-4.00,+1.00,+8.00,+5.00,-58.00,-37.00,-22.00,-30.00,-27.00,-18.00,-28.00,-26.00
-99.00,-73.00,-70.00,-15.00,+23.00,+10.00,+12.00,-24.00,+74.00,+29.00,+15.00,+10.00,+17.00,+11.00,+8.00,+26.00
+111.00,+127.00,+82.00,+29.00,+39.00,+31.00,+30.00,+42.00,-26.00,-46.00,-18.00,-10.00,-5.00,+7.00,-14.00,-24.00
-35.00,-12.00,-21.00,-10.00,-16.00,-20.00,-3.00,-8.00,+39.00,+50.00,+19.00,+3.00,-1.00,-14.00,+12.00,+26.00
-65.00,-32.00,-56.00,-21.00,+0.00,+16.00,-7.00,-24.00,-81.00,-75.00,-13.00,+0.00,+5.00,-10.00,-9.00,-37.00
+64.00,+74.00,+71.00,+21.00,-2.00,-2.00,-5.00,+11.00,+75.00,+51.00,+10.00,+4.00,-3.00,+9.00,+9.00,+22.00
-118.00,-128.00,-83.00,-25.00,-20.00,-16.00,-30.00,-56.00,-22.00,-63.00,-14.00,-2.00,+7.00,-6.00,+2.00,-7.00
+47.00,+18.00,+11.00,+5.00,+8.00,+3.00,+19.00,+36.00,+60.00,+49.00,+5.00,+14.00,+7.00,-3.00,+16.00,+29.00
+49.00,+46.00,+32.00,+2.00,-10.00,-11.00,+2.00,+10.00,+29.00,+36.00,+16.00,+7.00,+8.00,+15.00,+13.00,+8.00
+22.00,+33.00,+20.00,+7.00,-1.00,-1.00,-3.00,+9.00,-37.00,-34.00,-10.00,-12.00,-15.00,-18.00,-7.00,-18.00
-56.00,-77.00,-40.00,-15.00,-10.00,-1.00,-13.00,-14.00,+26.00,+41.00,+5.00,+14.00,+16.00,+3.00,-2.00,+4.00
+7.00,-29.00,+3.00,+3.00,-3.00,+4.00,+0.00,-8.00,-8.00,-15.00,+5.00,-6.00,-7.00,+25.00,+8.00,-3.00
-13.00,+2.00,-9.00,-7.00,-30.00,-29.00,-6.00,-13.00,-49.00,-29.00,-8.00,-8.00,-6.00,-16.00,-2.00,-4.00
-42.00,-12.00,-16.00,-5.00,+28.00,+29.00,-1.00,+3.00,+17.00,+8.00,-7.00,+4.00,-1.00,+17.00,+11.00,+1.00
-26.00,-2.00,-14.00,-7.00,-4.00,-16.00,-17.00,-27.00,+18.00,-23.00,-10.00,-15.00,-26.00,-11.00,+9.00,+11.00
+64.00,+79.00,+54.00,+22.00,+21.00,+24.00,+0.00,+19.00,-37.00,+10.00,-1.00,-5.00,+0.00,-10.00,-22.00,-10.00
+22.00,+32.00,+11.00,+9.00,+21.00,+31.00,+13.00,+22.00,-28.00,-41.00,+2.00,+8.00,+0.00,-4.00,-4.00,-19.00
+1.00,-61.00,-2.00,-2.00,-20.00,-29.00,+1.00,-4.00,+12.00,-11.00,-10.00,-16.00,-8.00,+5.00,-3.00,+18.00
-73.00,-88.00,-87.00,-30.00,-20.00,-8.00,-19.00,-53.00,-50.00,-39.00,-17.00,-8.00,+3.00,+8.00,-14.00,-49.00
+36.00,+27.00,+31.00,+11.00,+16.00,+9.00,+8.00,+14.00,+48.00,+6.00,+36.00,+26.00,+16.00,+8.00,+32.00,+63.00
+21.00,+29.00,+7.00,-1.00,+2.00,-7.00,-5.00,+1.00,-37.00,+3.00,-3.00,-1.00,+4.00,-11.00,-12.00,-21.00
+33.00,+37.00,+55.00,+20.00,-1.00,+0.00,+9.00,+23.00,-29.00,-88.00,-3.00,-6.00,-11.00,-16.00,-9.00,-5.00
+60.00,+86.00,+48.00,+11.00,+0.00,-10.00,+4.00,+36.00,+11.00,+2.00,+4.00,-2.00,-6.00,+21.00,+9.00,+12.00
-14.00,+37.00,-17.00,-11.00,+1.00,+14.00,-2.00,-23.00,-67.00,+7.00,-18.00,-13.00,-15.00,-36.00,-15.00,-28.00
-41.00,-48.00,-33.00,-12.00,-6.00,-10.00,-8.00,-14.00,+7.00,+29.00,+4.00,+1.00,+0.00,+11.00,-6.00,-16.00
+43.00,+66.00,+50.00,+14.00,+9.00,+11.00,+4.00,+10.00,+61.00,+39.00,+10.00,+5.00,+5.00,+4.00,+9.00,+19.00
-48.00,-42.00,-48.00,-23.00,-26.00,-20.00,-15.00,-25.00,+17.00,-1.00,+14.00,+14.00,+19.00,+18.00,+15.00,+25.00
+8.00,+81.00,-2.00,-10.00,-6.00,-8.00,-3.00,-11.00,-6.00,+29.00,-16.00,-15.00,-16.00,-16.00,-18.00,-27.00
+7.00,-48.00,+16.00,+13.00,+12.00,+6.00,+3.00,+5.00,+15.00,+6.00,+1.00,+2.00,+2.00,-2.00,+12.00,+28.00
+3.00,+70.00,+7.00,-5.00,-22.00,-16.00,-4.00,+0.00,-79.00,-52.00,-24.00,-13.00,-8.00,-8.00,-12.00,-34.00
+6.00,-66.00,+13.00,+13.00,+21.00,+21.00,+15.00,+13.00,+8.00,+4.00,+5.00,-3.00,-17.00,+0.00,-1.00,-1.00
+71.00,+16.00,+58.00,+25.00,+20.00,+18.00,+6.00,+40.00,+6.00,-61.00,-16.00,-7.00,+13.00,+5.00,-22.00,-4.00
-126.00,-123.00,-95.00,-36.00,-19.00,-25.00,-52.00,-53.00,-35.00,-21.00,-5.00,+5.00,+2.00,+11.00,+14.00,+2.00
-44.00,-44.00,-48.00,-16.00,-18.00,-1.00,-6.00,-32.00,+20.00,+55.00,+8.00,-6.00,-17.00,-15.00,-8.00,-2.00
+127.00,+127.00,+122.00,+51.00,+39.00,+23.00,+38.00,+78.00,-2.00,+2.00,+12.00,+13.00,+27.00,+18.00,+28.00,+25.00
-39.00,-21.00,-46.00,-17.00,-10.00,-13.00,-1.00,-9.00,-59.00,-69.00,-36.00,-12.00,-22.00,-21.00,+6.00,-22.00
-30.00,-72.00,-36.00,-14.00,-30.00,-49.00,-21.00,-22.00,+43.00,+119.00,+21.00,-7.00,-10.00,-2.00,-3.00,+12.00
+44.00,+37.00,+25.00,+8.00,+23.00,+45.00,+2.00,+22.00,-97.00,-66.00,-24.00,-8.00,-2.00,-7.00,-15.00,-36.00
-4.00,+25.00,+13.00,-1.00,-2.00,+4.00,+15.00,+4.00,-15.00,+14.00,+7.00,+2.00,+4.00,+6.00,+0.00,-1.00
+53.00,+13.00,+38.00,+23.00,+26.00,+22.00,+16.00,+23.00,+16.00,+38.00,-1.00,-4.00,+7.00,-17.00,-10.00,-11.00
+61.00,+127.00,+48.00,+15.00,+10.00,+8.00,+16.00,+34.00,+34.00,+22.00,+3.00,+10.00,+15.00,+33.00,+19.00,+24.00
-56.00,-97.00,-48.00,-17.00,-20.00,-26.00,-10.00,-34.00,+9.00,+19.00,-12.00,-8.00,-10.00,-12.00,-2.00,-4.00
-53.00,-45.00,-25.00,-11.00,-10.00,-9.00,-13.00,-8.00,-1.00,+28.00,+8.00,+2.00,+5.00,+3.00,-6.00,-6.00
-10.00,-30.00,+18.00,+6.00,+1.00,-3.00,-3.00,+2.00,-62.00,-10.00,-9.00,-7.00,-8.00,-5.00,-5.00,-17.00
-37.00,-63.00,-17.00,-7.00,-5.00,+0.00,+2.00,-16.00,-47.00,-113.00,-4.00,+17.00,+8.00,+8.00,+19.00,+17.00
-2.00,+15.00,-16.00,-5.00,-3.00,-8.00,-5.00,-6.00,-75.00,-90.00,-21.00,-6.00,-3.00,-1.00,-3.00,-21.00
+13.00,-10.00,+17.00,+13.00,+11.00,+13.00,+1.00,+19.00,+63.00,+109.00,+9.00,-3.00,-1.00,-4.00,-3.00,+21.00
-128.00,-128.00,-96.00,-31.00,-26.00,-22.00,-15.00,-57.00,+17.00,-23.00,-2.00,-1.00,-1.00,+6.00,+2.00,-1.00
+94.00,+80.00,+74.00,+35.00,+30.00,+31.00,+21.00,+43.00,-71.00,-46.00,-16.00,-11.00,-12.00,-28.00,-9.00,-27.00
-128.00,-128.00,-115.00,-42.00,-24.00,-26.00,-33.00,-57.00,+89.00,+75.00,+26.00,+25.00,+25.00,+38.00,+22.00,+45.00
+41.00,+3.00,+40.00,+6.00,-3.00,-7.00,-1.00,+9.00,-61.00,-77.00,-19.00,-10.00,-11.00,-3.00,-6.00,-24.00
-14.00,-10.00,-34.00,-13.00,-5.00,+3.00,+13.00,-12.00,+82.00,+85.00,+19.00,-2.00,-8.00,-1.00,+5.00,+26.00
+70.00,+78.00,+49.00,+16.00,+19.00,+16.00,+24.00,+34.00,-43.00,-69.00,-6.00,+9.00,+12.00,+6.00,+5.00,-6.00
-9.00,-4.00,-32.00,-18.00,-19.00,-12.00,-17.00,-27.00,+2.00,+52.00,+7.00,-3.00,-4.00,-14.00,-1.00,-16.00
+6.00,+10.00,-26.00,-6.00,-4.00,-5.00,-2.00,+2.00,-41.00,+38.00,-16.00,-19.00,-18.00,-14.00,-25.00,-28.00
+19.00,+30.00,+21.00,+7.00,+2.00,+1.00,-3.00,-3.00,+58.00,+5.00,+2.00,+6.00,+5.00,+11.00,+11.00,+11.00
-47.00,+64.00,-2.00,-6.00,-2.00,-2.00,-5.00,-7.00,+7.00,-35.00,+6.00,+10.00,+12.00,+10.00,+23.00,+73.00
-95.00,-108.00,-46.00,-11.00,-7.00,-13.00,-10.00,-22.00,+10.00,+18.00,+11.00,-3.00,-6.00,-13.00,-10.00,-1.00
+63.00,+84.00,+69.00,+32.00,+22.00,+25.00,+28.00,+54.00,+50.00,+70.00,+14.00,+4.00,+0.00,+0.00,+3.00,+8.00
-55.00,-54.00,-23.00,-10.00,-7.00,-6.00,-15.00,-16.00,-124.00,-33.00,-31.00,-29.00,-17.00,-14.00,-31.00,-80.00
-55.00,-90.00,-82.00,-34.00,-22.00,-16.00,-22.00,-28.00,+52.00,+28.00,+21.00,+16.00,+12.00,+13.00,+20.00,+60.00
+101.00,+123.00,+99.00,+53.00,+30.00,+17.00,+35.00,+49.00,-34.00,-17.00,-15.00,-7.00,-5.00,+0.00,-2.00,-11.00
-37.00,-40.00,-58.00,-13.00,-13.00,-10.00,-16.00,-11.00,-14.00,+29.00,+9.00,+6.00,+6.00,+7.00,+14.00,+22.00
+59.00,+65.00,+33.00,+15.00,+11.00,+7.00,+9.00,+28.00,-8.00,-28.00,-10.00,-7.00,-5.00,-9.00,-4.00,-17.00
-11.00,-105.00,+18.00,+14.00,+8.00,+12.00,+8.00,+11.00,+26.00,-18.00,-19.00,-13.00,-11.00,-12.00,-16.00,-13.00
-40.00,-104.00,-47.00,-17.00,-8.00,-7.00,-6.00,-24.00,+60.00,+29.00,+7.00,+4.00,+5.00,+4.00,+11.00,+33.00
-67.00,-70.00,-50.00,-16.00,-8.00,-7.00,-12.00,-35.00,+74.00,-32.00,+26.00,+22.00,+16.00,+23.00,+31.00,+61.00
-21.00,-32.00,-26.00,-10.00,-9.00,-10.00,-9.00,-12.00,-26.00,+24.00,-9.00,-7.00,-9.00,-8.00,-8.00,-25.00
-78.00,-86.00,-43.00,-18.00,-13.00,-10.00,-13.00,-28.00,-10.00,+10.00,+4.00,-6.00,-4.00,-4.00,-8.00,-15.00
+61.00,-15.00,+56.00,+13.00,+11.00,+8.00,+7.00,+12.00,+29.00,-16.00,+5.00,+13.00,+14.00,+8.00,+26.00,+65.00
-55.00,-57.00,-44.00,-16.00,-12.00,-9.00,-6.00,-29.00,-73.00,-51.00,-23.00,-17.00,-14.00,-15.00,-30.00,-88.00
-23.00,-56.00,+17.00,+2.00,+0.00,-2.00,+0.00,+16.00,+30.00,-42.00,+4.00,+13.00,+11.00,+12.00,+20.00,+46.00
-70.00,-61.00,-68.00,-24.00,-17.00,-11.00,-14.00,-39.00,+58.00,+66.00,+17.00,+4.00,+2.00,+0.00,-1.00,+0.00
+50.00,+60.00,+44.00,+13.00,+13.00,+4.00,+5.00,+26.00,-86.00,-17.00,-17.00,-16.00,-11.00,-15.00,-17.00,-41.00
-18.00,-3.00,-33.00,-17.00,-18.00,-13.00,-13.00,-7.00,+80.00,+16.00,+14.00,+10.00,+4.00,+12.00,+20.00,+56.00
+23.00,+71.00,+47.00,+16.00,+11.00,+8.00,+7.00,+9.00,-82.00,-96.00,+8.00,+13.00,+6.00,+6.00,+6.00,-15.00
+49.00,-35.00,+26.00,+15.00,+14.00,+11.00,+16.00,+26.00,-5.00,+52.00,-19.00,-17.00,-11.00,-13.00,-21.00,-44.00
-100.00,-93.00,-68.00,-24.00,-20.00,-17.00,-19.00,-22.00,+45.00,-35.00,+18.00,+16.00,+13.00,+13.00,+22.00,+40.00
-30.00,-19.00,-10.00,-9.00,-6.00,-6.00,-8.00,-25.00,-59.00,-27.00,-24.00,-22.00,-16.00,-18.00,-28.00,-42.00
-9.00,-43.00,-13.00,-3.00,-1.00,+1.00,+3.00,+8.00,+92.00,+89.00,+26.00,+17.00,+7.00,+3.00,+9.00,+18.00
+19.00,+68.00,+42.00,+19.00,+16.00,+9.00,+14.00,+18.00,+2.00,+24.00,+4.00,-2.00,+0.00,+2.00,+7.00,+22.00
+3.00,-37.00,-18.00,-10.00,-10.00,-5.00,-6.00,-13.00,-10.00,-28.00,+0.00,-1.00,-3.00,-3.00,-10.00,-26.00
+77.00,+44.00,+68.00,+26.00,+16.00,+11.00,+13.00,+31.00,+1.00,+53.00,-9.00,-19.00,-15.00,-21.00,-27.00,-27.00
-51.00,-88.00,-43.00,-7.00,-2.00,+0.00,-9.00,-24.00,+65.00,-34.00,+23.00,+30.00,+24.00,+27.00,+45.00,+93.00
-52.00,-57.00,-87.00,-62.00,-44.00,-37.00,-37.00,-86.00,+48.00,+20.00,+15.00,+11.00,+4.00,+5.00,+8.00,-4.00
+100.00,+0.00,+42.00,+25.00,+17.00,+15.00,+18.00,+63.00,+19.00,+86.00,+4.00,-9.00,-8.00,-10.00,-12.00,+6.00
+13.00,-22.00,+0.00,+3.00,+5.00,+4.00,+1.00,+6.00,+11.00,-78.00,-3.00,+7.00,+7.00,+8.00,+9.00,+24.00
-60.00,-35.00,-84.00,-37.00,-24.00,-23.00,-24.00,-49.00,+72.00,+94.00,+19.00,+6.00,+0.00,+3.00,+6.00,+19.00
+99.00,+96.00,+83.00,+34.00,+14.00,+19.00,+26.00,+67.00,-30.00,+30.00,-34.00,-25.00,-19.00,-20.00,-24.00,-22.00
-89.00,-14.00,-34.00,-18.00,-16.00,-12.00,-17.00,-38.00,-31.00,-37.00,+11.00,+18.00,+13.00,+12.00,+17.00,-14.00
+58.00,+74.00,+38.00,+8.00,+7.00,+6.00,+13.00,+22.00,+4.00,+46.00,-9.00,-14.00,-12.00,-13.00,-18.00,-35.00
+39.00,-14.00,+32.00,+16.00,+11.00,+9.00,+10.00,+29.00,-10.00,-40.00,+0.00,+7.00,+6.00,+7.00,+18.00,+64.00
-110.00,-49.00,-90.00,-38.00,-25.00,-24.00,-34.00,-87.00,-64.00,-13.00,-10.00,-8.00,-8.00,-9.00,-18.00,-62.00
+27.00,-25.00,+46.00,+29.00,+22.00,+20.00,+20.00,+40.00,+4.00,-77.00,-12.00,-2.00,-1.00,-3.00,-4.00,-3.00
-82.00,-107.00,-90.00,-32.00,-22.00,-19.00,-25.00,-49.00,+63.00,+95.00,+24.00,+11.00,+5.00,+9.00,+18.00,+53.00
+64.00,+22.00,+38.00,+21.00,+18.00,+17.00,+20.00,+13.00,-128.00,-111.00,-36.00,-21.00,-14.00,-14.00,-27.00,-78.00
+94.00,+114.00,+58.00,+21.00,+17.00,+17.00,+21.00,+52.00,-61.00,+24.00,-10.00,-13.00,-10.00,-12.00,-19.00,-42.00
-22.00,+4.00,-10.00,-11.00,-11.00,-8.00,-9.00,-10.00,-74.00,-31.00,-17.00,-9.00,-8.00,-10.00,-15.00,-33.00
-59.00,-58.00,-34.00,-13.00,-6.00,-7.00,-8.00,-36.00,-70.00,-30.00,+6.00,+4.00,+3.00,+3.00,-1.00,-21.00
+92.00,+103.00,+85.00,+26.00,+13.00,+10.00,+17.00,+46.00,+61.00,+29.00,+4.00,-3.00,-1.00,-1.00,-2.00,+17.00
+62.00,+68.00,+59.00,+27.00,+18.00,+15.00,+18.00,+42.00,+39.00,+58.00,+7.00,-2.00,-2.00,-4.00,-2.00,-11.00
-49.00,-42.00,-76.00,-35.00,-22.00,-18.00,-24.00,-45.00,+66.00,+93.00,+2.00,-11.00,-10.00,-12.00,-17.00,-8.00
+5.00,+51.00,+22.00,+4.00,+4.00,+1.00,+3.00,-3.00,-33.00,-65.00,+4.00,+22.00,+18.00,+21.00,+30.00,+48.00
-2.00,-28.00,-29.00,-16.00,-21.00,-14.00,-15.00,-19.00,+22.00,+60.00,+17.00,-1.00,-2.00,-2.00,+4.00,+28.00
+30.00,-11.00,+44.00,+21.00,+20.00,+12.00,+15.00,+38.00,-57.00,-58.00,-20.00,-8.00,-5.00,-6.00,-14.00,-54.00
+5.00,+23.00,+11.00,+7.00,+4.00,+12.00,+10.00,+14.00,+41.00,+61.00,+14.00,+2.00,-1.00,-2.00,-2.00,-12.00
+119.00,+59.00,+53.00,+14.00,+6.00,+8.00,+11.00,+34.00,+64.00,+43.00,+18.00,+5.00,+2.00,+3.00,+6.00,+48.00
-11.00,+56.00,-8.00,-7.00,-1.00,-4.00,-4.00,-11.00,-128.00,-128.00,-64.00,-40.00,-26.00,-31.00,-52.00,-128.00
-93.00,-71.00,-47.00,-15.00,-10.00,-9.00,-15.00,-34.00,+118.00,+77.00,+51.00,+22.00,+12.00,+15.00,+23.00,+62.00
+64.00,+43.00,+43.00,+14.00,+11.00,+7.00,+14.00,+24.00,-107.00,-74.00,-3.00,+9.00,+7.00,+9.00,+14.00,+42.00
-5.00,+72.00,-6.00,-8.00,-8.00,-8.00,-6.00,-2.00,-51.00,-26.00,-19.00,-13.00,-11.00,-10.00,-17.00,-48.00
+69.00,+61.00,+51.00,+18.00,+13.00,+12.00,+16.00,+48.00,-32.00,-24.00,-22.00,-13.00,-9.00,-11.00,-13.00,-23.00
-7.00,-91.00,-24.00,-6.00,-7.00,-5.00,-4.00,-6.00,+0.00,-60.00,-2.00,+0.00,+3.00,+0.00,+2.00,+20.00
-22.00,+25.00,-9.00,+0.00,+2.00,-3.00,-7.00,-21.00,+46.00,+57.00,+17.00,+9.00,+4.00,+5.00,+13.00,+35.00
-11.00,-65.00,+7.00,+7.00,+1.00,+0.00,+2.00,+9.00,+90.00,+52.00,+17.00,+13.00,+11.00,+13.00,+26.00,+57.00
-80.00,-96.00,-45.00,-18.00,-16.00,-16.00,-20.00,-40.00,-113.00,+3.00,-15.00,-10.00,-8.00,-10.00,-24.00,-72.00
+41.00,+45.00,+27.00,+17.00,+14.00,+13.00,+13.00,+21.00,+98.00,-10.00,+19.00,+18.00,+12.00,+17.00,+31.00,+74.00
-42.00,-86.00,-77.00,-34.00,-23.00,-19.00,-20.00,-27.00,+19.00,-19.00,+11.00,+9.00,+6.00,+9.00,+14.00,+29.00
-37.00,-126.00,-49.00,-14.00,-10.00,-11.00,-15.00,-21.00,+19.00,+36.00,-4.00,+0.00,-2.00,-2.00,+1.00,+8.00
-66.00,-119.00,-77.00,-26.00,-17.00,-12.00,-15.00,-24.00,+67.00,+45.00,+13.00,+1.00,-1.00,+4.00,+4.00,+0.00
+40.00,-18.00,+31.00,+19.00,+15.00,+14.00,+15.00,+25.00,+54.00,+38.00,+6.00,+2.00,+2.00,+0.00,+2.00,+31.00
-45.00,-38.00,-29.00,-16.00,-17.00,-15.00,-17.00,-30.00,-78.00,-107.00,-33.00,-15.00,-9.00,-10.00,-16.00,-37.00
-35.00,+62.00,+26.00,+8.00,+11.00,+8.00,+8.00,+2.00,+23.00,+28.00,+17.00,+5.00,+5.00,+5.00,+6.00,+14.00
-17.00,-27.00,-27.00,-15.00,-13.00,-9.00,-9.00,-13.00,+77.00,+86.00,+17.00,+7.00,+3.00,+3.00,+9.00,+32.00
+5.00,+25.00,-27.00,-10.00,-7.00,-4.00,-6.00,-2.00,-117.00,+3.00,-12.00,-10.00,-6.00,-6.00,-20.00,-47.00
+11.00,-16.00,+52.00,+22.00,+14.00,+6.00,+10.00,+20.00,+40.00,-52.00,+7.00,+6.00,+6.00,+5.00,+10.00,+33.00
-39.00,-27.00,-24.00,-16.00,-14.00,-11.00,-13.00,-27.00,+27.00,+20.00,-4.00,-6.00,-6.00,-8.00,-12.00,-29.00
+38.00,+35.00,+8.00,+6.00,+6.00,+7.00,+6.00,+9.00,-89.00,-128.00,-28.00,-5.00,+0.00,-1.00,-4.00,-24.00
-59.00,-114.00,-44.00,-14.00,-12.00,-7.00,-9.00,-14.00,+12.00,+21.00,-7.00,-12.00,-7.00,-9.00,-15.00,-37.00
+13.00,+105.00,-16.00,-9.00,-6.00,-5.00,-4.00,-9.00,+7.00,-31.00,+7.00,+6.00,+4.00,+4.00,+6.00,+6.00
+33.00,+24.00,+69.00,+38.00,+27.00,+21.00,+21.00,+21.00,-97.00,-68.00,-46.00,-29.00,-18.00,-22.00,-33.00,-85.00
-70.00,-41.00,-38.00,-22.00,-15.00,-10.00,-20.00,-34.00,-47.00,-74.00,+16.00,+25.00,+20.00,+24.00,+33.00,+51.00
-31.00,-37.00,-44.00,-15.00,-12.00,-13.00,-19.00,-56.00,+23.00,+12.00,+6.00,+4.00,-1.00,+0.00,+7.00,+55.00
+81.00,-21.00,+39.00,+26.00,+23.00,+23.00,+23.00,+52.00,-11.00,+70.00,-1.00,-5.00,-4.00,-5.00,-12.00,-33.00
-25.00,-6.00,-16.00,-10.00,-8.00,-1.00,-5.00,-7.00,-2.00,+30.00,-21.00,-16.00,-10.00,-11.00,-16.00,-23.00
-66.00,-63.00,-50.00,-24.00,-19.00,-19.00,-18.00,-32.00,-96.00,-65.00,+15.00,+7.00,+4.00,+4.00,+1.00,-33.00
+29.00,+32.00,+58.00,+19.00,+15.00,+11.00,+14.00,+9.00,-30.00,-98.00,-27.00,-7.00,-1.00,+3.00,+5.00,-12.00
+52.00,+99.00,+48.00,+22.00,+17.00,+13.00,+14.00,+39.00,-16.00,+36.00,-10.00,-10.00,-6.00,-8.00,-18.00,-54.00
+2.00,-16.00,-6.00,-8.00,-4.00,-7.00,-8.00,+3.00,+68.00,+16.00,-3.00,-8.00,-7.00,-9.00,-11.00,+3.00
-10.00,+48.00,-14.00,+3.00,+2.00,-6.00,-10.00,-38.00,-5.00,+67.00,+4.00,-8.00,-7.00,-10.00,-11.00,-7.00
+56.00,+92.00,+60.00,+20.00,+13.00,+11.00,+21.00,+45.00,+1.00,-51.00,+1.00,+6.00,+4.00,+9.00,+12.00,+15.00
-18.00,-17.00,+7.00,+5.00,+4.00,+5.00,+7.00,+4.00,-71.00,+0.00,-4.00,-3.00,-2.00,-4.00,-7.00,-31.00
-24.00,-49.00,-26.00,-4.00,-6.00,-3.00,+0.00,+4.00,+58.00,+13.00,-4.00,-2.00,-3.00,-4.00,+4.00,+46.00
-16.00,-10.00,-13.00,-6.00,-2.00,-6.00,-7.00,-4.00,+60.00,+46.00,+12.00,+4.00,+1.00,+1.00,+1.00,+10.00
+77.00,+73.00,+48.00,+20.00,+11.00,+7.00,+11.00,+32.00,+31.00,+1.00,+9.00,+6.00,+3.00,+6.00,+9.00,+22.00
+2.00,+26.00,+31.00,+8.00,+5.00,+4.00,+6.00,+17.00,+57.00,+87.00,-21.00,-29.00,-22.00,-25.00,-28.00,-19.00
-77.00,-102.00,-80.00,-36.00,-27.00,-21.00,-28.00,-51.00,-24.00,-18.00,+24.00,+22.00,+14.00,+15.00,+15.00,+3.00
+64.00,+65.00,+68.00,+54.00,+36.00,+29.00,+39.00,+63.00,-4.00,+22.00,-6.00,-11.00,-10.00,-13.00,-14.00,-10.00
-52.00,-22.00,-26.00,-5.00,-4.00,-3.00,-4.00,+6.00,+3.00,+13.00,-4.00,+0.00,+2.00,+0.00,+3.00,-7.00
-62.00,-67.00,-64.00,-22.00,-14.00,-9.00,-8.00,-16.00,-128.00,-74.00,-17.00,-5.00,-3.00,-2.00,-10.00,-12.00
+5.00,-26.00,+46.00,+32.00,+20.00,+15.00,+16.00,+25.00,+29.00,+40.00,+16.00,+7.00,+4.00,+7.00,+12.00,+16.00
-35.00,+6.00,+43.00,+13.00,+12.00,+9.00,+7.00,+2.00,+33.00,+78.00,-12.00,-18.00,-14.00,-15.00,-15.00,-21.00
+17.00,-20.00,+4.00,+1.00,+2.00,+1.00,+5.00,+21.00,+72.00,-50.00,+4.00,+15.00,+9.00,+12.00,+18.00,+26.00
-62.00,-79.00,-67.00,-49.00,-33.00,-29.00,-30.00,-62.00,+19.00,+1.00,+17.00,+6.00,+2.00,+1.00,+3.00,-8.00
+31.00,-24.00,+5.00,-1.00,-1.00,+1.00,-1.00,+4.00,-81.00,-52.00,-25.00,-19.00,-14.00,-20.00,-33.00,-70.00
-60.00,-60.00,-20.00,-13.00,-7.00,-13.00,-18.00,-41.00,-36.00,-46.00,+4.00,+10.00,+5.00,+9.00,+11.00,+21.00
+90.00,+58.00,+60.00,+37.00,+26.00,+29.00,+38.00,+76.00,-55.00,+68.00,-3.00,-15.00,-9.00,-13.00,-19.00,-25.00
-34.00,-67.00,-14.00,-9.00,-7.00,-9.00,-13.00,-21.00,+55.00,-31.00,+5.00,+11.00,+9.00,+11.00,+20.00,+50.00
+21.00,+36.00,-27.00,-10.00,-9.00,-9.00,-6.00,-5.00,+35.00,+8.00,+6.00,+4.00,+1.00,+3.00,+6.00,+26.00
+0.00,-56.00,-7.00,-2.00,-4.00,-2.00,-7.00,-6.00,-3.00,+29.00,+3.00,+1.00,+0.00,-3.00,-1.00,-7.00
-53.00,-7.00,-56.00,-28.00,-20.00,-19.00,-20.00,-42.00,-98.00,-55.00,+1.00,+3.00,+3.00,+1.00,+5.00,+38.00
-28.00,-14.00,-17.00,-4.00,-7.00,-9.00,-16.00,-49.00,+21.00,+59.00,+1.00,-3.00,-2.00,-1.00,-2.00,+10.00
+44.00,+44.00,+30.00,+14.00,+14.00,+14.00,+16.00,+43.00,-22.00,-96.00,-14.00,+4.00,+4.00,+5.00,+8.00,-24.00
-97.00,-124.00,-96.00,-36.00,-27.00,-19.00,-22.00,-45.00,+26.00,+57.00,+18.00,+9.00,+6.00,+10.00,+13.00,+44.00
-43.00,-5.00,-7.00,-4.00,-5.00,-6.00,-11.00,-14.00,+54.00,+32.00,+20.00,+11.00,+5.00,+6.00,+10.00,+31.00
+68.00,+94.00,+75.00,+33.00,+22.00,+21.00,+28.00,+57.00,-86.00,-76.00,-18.00,-9.00,-7.00,-7.00,-13.00,-47.00
-27.00,-43.00,-16.00,-6.00,-1.00,-1.00,-8.00,-15.00,+13.00,-34.00,-7.00,-7.00,-4.00,-3.00,-3.00,-3.00
-23.00,-18.00,-41.00,-23.00,-17.00,-11.00,-12.00,-21.00,+24.00,-29.00,-9.00,-3.00,-4.00,-2.00,-3.00,+6.00
+20.00,+14.00,+7.00,+4.00,+5.00,+0.00,-2.00,-15.00,-4.00,-2.00,-12.00,-9.00,-4.00,-8.00,-15.00,-64.00
+22.00,-62.00,-11.00,+5.00,+2.00,-1.00,-2.00,+8.00,-11.00,+24.00,-5.00,-8.00,-6.00,-7.00,-12.00,-40.00
+50.00,+85.00,+52.00,+15.00,+6.00,+5.00,+10.00,+23.00,+26.00,+63.00,+12.00,+1.00,+1.00,+2.00,+7.00,+40.00
+117.00,+78.00,+41.00,+12.00,+7.00,+3.00,+11.00,+36.00,+73.00,-38.00,-1.00,+5.00,+6.00,+8.00,+16.00,+42.00
-26.00,-66.00,-53.00,-21.00,-16.00,-11.00,-15.00,-25.00,-23.00,+65.00,-12.00,-16.00,-13.00,-12.00,-19.00,-29.00
+2.00,+53.00,+28.00,+15.00,+11.00,+10.00,+13.00,+20.00,-21.00,-53.00,-14.00,-2.00,-2.00,-1.00,-8.00,-54.00
+73.00,+103.00,+54.00,+15.00,+10.00,+9.00,+15.00,+29.00,+29.00,+50.00,+11.00,+0.00,+0.00,+1.00,+4.00,+29.00
+13.00,+36.00,+34.00,+15.00,+12.00,+11.00,+10.00,+19.00,-17.00,+2.00,-5.00,+0.00,+0.00,+0.00,-3.00,-20.00
+29.00,+33.00,+4.00,-1.00,-2.00,+0.00,+1.00,+3.00,+39.00,-22.00,-8.00,-4.00,-1.00,-2.00,+9.00,+55.00
-128.00,-128.00,-128.00,-51.00,-39.00,-36.00,-49.00,-100.00,-7.00,-31.00,+4.00,+7.00,+7.00,+8.00,+18.00,+52.00
+36.00,-19.00,-15.00,-7.00,-2.00,+2.00,+10.00,+18.00,+31.00,+72.00,+24.00,+11.00,+6.00,+8.00,+13.00,+32.00
+64.00,+62.00,+80.00,+29.00,+21.00,+18.00,+19.00,+48.00,-19.00,-17.00,-9.00,-5.00,-6.00,-5.00,-7.00,+6.00
-36.00,-76.00,+0.00,+3.00,+3.00,+3.00,+0.00,-3.00,-32.00,-9.00,-37.00,-25.00,-19.00,-24.00,-39.00,-97.00
-23.00,-46.00,-24.00,-9.00,-5.00,-4.00,-7.00,-9.00,+1.00,+64.00,+31.00,+14.00,+7.00,+3.00,+9.00,+25.00
-46.00,-57.00,+0.00,+4.00,+4.00,+0.00,+4.00,-18.00,-104.00,-124.00,-14.00,+5.00,+5.00,+19.00,+9.00,+1.00
-36.00,-68.00,-11.00,-4.00,-3.00,+0.00,-2.00,-6.00,-13.00,-30.00,-25.00,-17.00,-13.00,-13.00,-21.00,-42.00
-66.00,-51.00,-32.00,-16.00,-12.00,-7.00,-11.00,-19.00,+26.00,+62.00,+27.00,+11.00,+3.00,+5.00,+5.00,-5.00
+96.00,+127.00,+72.00,+27.00,+17.00,+14.00,+20.00,+41.00,+20.00,+39.00,-4.00,-8.00,-6.00,-5.00,-9.00,-6.00
-32.00,+5.00,-17.00,-8.00,-6.00,-7.00,-10.00,-13.00,-45.00,-2.00,-1.00,-2.00,-4.00,-8.00,-8.00,-28.00
-23.00,-27.00,-24.00,-13.00,-8.00,-6.00,-4.00,-11.00,-11.00,-17.00,-10.00,-4.00,-1.00,-4.00,-8.00,-9.00
-28.00,-48.00,+2.00,+0.00,+0.00,-1.00,-4.00,-17.00,-128.00,-88.00,-25.00,-14.00,-10.00,-9.00,-19.00,-44.00
-9.00,+44.00,+23.00,+9.00,+5.00,+3.00,+9.00,+16.00,+20.00,+4.00,+17.00,+8.00,+5.00,+4.00,+7.00,+17.00
+17.00,+0.00,-11.00,-7.00,-8.00,-6.00,-3.00,+2.00,-50.00,-56.00,-6.00,+2.00,+1.00,-2.00,+0.00,-13.00
+56.00,+52.00,+53.00,+25.00,+14.00,+13.00,+16.00,+35.00,+26.00,+19.00,+6.00,+6.00,+5.00,+6.00,+9.00,+24.00
-30.00,-5.00,-17.00,-7.00,-4.00,-6.00,-10.00,-10.00,-21.00,+40.00,+1.00,-5.00,-4.00,-8.00,-12.00,-25.00
-6.00,-22.00,+9.00,+6.00,+5.00,+4.00,+7.00,+17.00,-35.00,-26.00,-16.00,-9.00,-5.00,-4.00,-6.00,-16.00
-31.00,-38.00,-33.00,-12.00,-10.00,-10.00,-14.00,-35.00,-47.00,-55.00,-17.00,-8.00,-6.00,-6.00,-10.00,-29.00
+100.00,+95.00,+73.00,+28.00,+19.00,+17.00,+23.00,+48.00,-16.00,+29.00,+6.00,+1.00,+1.00,+0.00,-1.00,-16.00
-69.00,-65.00,-13.00,-3.00,-2.00,-2.00,-2.00,-14.00,-75.00,-35.00,-11.00,-10.00,-6.00,-8.00,-14.00,-43.00
+5.00,-21.00,+0.00,+1.00,+0.00,-2.00,+1.00,+4.00,+75.00,+69.00,+24.00,+18.00,+12.00,+15.00,+22.00,+51.00
-18.00,+0.00,-2.00,-1.00,+0.00,-1.00,-6.00,-17.00,+29.00,+27.00,+0.00,-4.00,-3.00,-5.00,-5.00,+23.00
-4.00,-27.00,-16.00,-5.00,-4.00,-2.00,-6.00,-9.00,-59.00,-54.00,-7.00,+3.00,+2.00,+7.00,+7.00,+10.00
-41.00,-98.00,-49.00,-18.00,-14.00,-14.00,-9.00,-23.00,+5.00,-29.00,+11.00,+12.00,+3.00,+6.00,+11.00,+14.00
+65.00,+55.00,+46.00,+17.00,+14.00,+14.00,+14.00,+34.00,-1.00,-11.00,-14.00,-10.00,-8.00,-15.00,-6.00,-13.00
-15.00,+2.00,-18.00,-9.00,-12.00,-4.00,-8.00,-7.00,+1.00,-5.00,-6.00,-3.00,+0.00,-6.00,-6.00,-10.00
-16.00,-14.00,-22.00,-12.00,-11.00,-18.00,-4.00,-11.00,+31.00,+40.00,+8.00,-1.00,+1.00,+3.00,+8.00,+6.00
+13.00,+7.00,+3.00,+1.00,+0.00,-7.00,-10.00,-4.00,+49.00,+29.00,+3.00,-1.00,-4.00,+3.00,-3.00,+7.00
-25.00,-44.00,-26.00,-10.00,+0.00,+10.00,+1.00,-12.00,+41.00,-17.00,+11.00,+6.00,+3.00,+11.00,+9.00,+25.00
+3.00,+10.00,+4.00,-1.00,+3.00,+2.00,+0.00,+4.00,+2.00,+51.00,+8.00,+4.00,+4.00,+0.00,+7.00,-6.00
-38.00,-56.00,-27.00,-12.00,-9.00,-4.00,-12.00,-19.00,-29.00,-16.00,-9.00,-8.00,-8.00,-19.00,-15.00,-16.00
+33.00,+73.00,+31.00,+11.00,+6.00,+5.00,+10.00,+22.00,+49.00,+22.00,+9.00,+8.00,+9.00,+11.00,+13.00,+31.00
-43.00,-22.00,-21.00,-12.00,-13.00,-13.00,-11.00,-19.00,-21.00,-46.00,-12.00,-3.00,-4.00,-13.00,+2.00,+12.00
-28.00,-49.00,-19.00,-4.00,-5.00,-1.00,+3.00,+5.00,-20.00,+51.00,+15.00,+0.00,-5.00,-3.00,-10.00,-21.00
+39.00,+32.00,+31.00,+16.00,+13.00,+14.00,+15.00,+28.00,+28.00,+34.00,+15.00,+10.00,+4.00,+9.00,+3.00,+12.00
-6.00,-9.00,-13.00,-8.00,-9.00,-9.00,-12.00,-12.00,-3.00,+6.00,+3.00,-2.00,+8.00,-6.00,-9.00,-5.00
+11.00,-11.00,+2.00,-4.00,-11.00,-7.00,-14.00,-7.00,-45.00,-32.00,-13.00,-6.00,-20.00,-15.00,+5.00,-31.00
-53.00,-55.00,-24.00,-5.00,+3.00,-11.00,-8.00,-22.00,+62.00,-7.00,+0.00,-4.00,+0.00,+3.00,+5.00,+31.00
-7.00,-38.00,-41.00,-21.00,-13.00,-7.00,-8.00,-14.00,-20.00,-46.00,-11.00,-5.00,-10.00,-7.00,-5.00,-12.00
+34.00,+56.00,+15.00,+6.00,+11.00,+8.00,+13.00,+12.00,+0.00,+61.00,+14.00,+12.00,+38.00,+19.00,+10.00,-5.00
-7.00,-9.00,+0.00,+0.00,-8.00,-19.00,-9.00,-6.00,+68.00,+38.00,+3.00,+2.00,+8.00,-7.00,+1.00,+16.00
+65.00,+68.00,+34.00,+3.00,-16.00,-23.00,-8.00,+18.00,-31.00,-32.00,-11.00,-6.00,-5.00,-4.00,-1.00,-22.00
-13.00,+0.00,-1.00,+0.00,+10.00,+38.00,+10.00,+4.00,+13.00,+13.00,+8.00,-4.00,-14.00,-30.00,+2.00,+4.00
+2.00,+11.00,+0.00,-2.00,-5.00,-16.00,-2.00,-3.00,+14.00,-30.00,-20.00,-23.00,-35.00,+24.00,-9.00,-1.00
+16.00,+5.00,+4.00,+7.00,+37.00,+63.00,+3.00,+11.00,-79.00,-49.00,-10.00,-9.00,+0.00,+11.00,-12.00,-37.00
-43.00,-35.00,-35.00,-16.00,-2.00,-6.00,+6.00,-20.00,+9.00,+10.00,+11.00,+7.00,+2.00,-9.00,+4.00,+4.00
+55.00,+83.00,+62.00,+27.00,+14.00,+7.00,+14.00,+28.00,+1.00,+13.00,+1.00,+8.00,+16.00,+32.00,-1.00,+21.00
-3.00,-44.00,+10.00,+3.00,-5.00,+0.00,-6.00,-4.00,+13.00,-2.00,+2.00,+11.00,+23.00,-4.00,+17.00,+2.00
-9.00,-1.00,+1.00,-4.00,-19.00,-27.00,+8.00,+15.00,-3.00,+6.00,-7.00,-5.00,-2.00,+1.00,-12.00,-5.00
+22.00,-1.00,+1.00,-1.00,-7.00,-6.00,-1.00,+8.00,-6.00,-11.00,-12.00,-12.00,-21.00,-11.00,-24.00,-15.00
-55.00,-26.00,-36.00,-15.00,-6.00,-1.00,-10.00,-19.00,+23.00,-27.00,+6.00,+9.00,+9.00,+7.00,+19.00,+12.00
-32.00,-102.00,-33.00,-12.00,-10.00,-13.00,+4.00,-24.00,+7.00,-1.00,-3.00,+0.00,-16.00,-13.00,+5.00,+11.00
+7.00,-29.00,+15.00,+8.00,+6.00,-6.00,-24.00,+6.00,+16.00,+30.00,+10.00,+8.00,+10.00,+5.00,-9.00,+3.00
+44.00,+75.00,+38.00,+10.00,-6.00,+15.00,+8.00,+12.00,-13.00,-12.00,-6.00,-9.00,-11.00,-44.00,-11.00,-11.00
-28.00,-35.00,-20.00,-9.00,-17.00,-39.00,-12.00,-13.00,+10.00,+16.00,+7.00,+7.00,+19.00,+21.00,-14.00,+11.00
-1.00,+4.00,-15.00,-12.00,-26.00,-53.00,-4.00,-8.00,-15.00,-23.00,-13.00,-28.00,-45.00,-27.00,+16.00,+0.00
-11.00,-17.00,-13.00,+6.00,+44.00,+84.00,+12.00,-4.00,+58.00,+17.00,+4.00,+1.00,+2.00,+26.00,+4.00,+7.00
-4.00,-16.00,-6.00,+4.00,+27.00,+15.00,+1.00,+0.00,+15.00,+14.00,+11.00,+8.00,+6.00,-6.00,+4.00,+23.00
-24.00,-2.00,-18.00,-8.00,-10.00,-6.00,-6.00,-10.00,-51.00,-19.00,-10.00,-4.00,+8.00,+17.00,-2.00,-26.00
+15.00,+37.00,+18.00,+4.00,+5.00,+8.00,-8.00,+5.00,-13.00,-22.00,-8.00,+4.00,+7.00,-4.00,-29.00,-16.00
+18.00,+23.00,+22.00,+4.00,-24.00,-41.00,+12.00,+12.00,+71.00,+96.00,+32.00,+10.00,+7.00,+9.00,+11.00,+43.00
-7.00,-17.00,-22.00,-14.00,-17.00,-1.00,+15.00,-7.00,+0.00,-24.00,-6.00,+2.00,-1.00,-1.00,+5.00,-8.00
+11.00,+10.00,+14.00,+6.00,+3.00,+7.00,+2.00,+3.00,-1.00,-5.00,+2.00,-4.00,-20.00,-4.00,-6.00,-7.00
-22.00,-19.00,-27.00,-10.00,-6.00,-1.00,-20.00,-13.00,-1.00,-2.00,+4.00,+11.00,+5.00,-14.00,+15.00,+17.00
+6.00,+25.00,+0.00,-5.00,-10.00,-16.00,-1.00,-13.00,-35.00,-30.00,-11.00,-4.00,+1.00,+2.00,-23.00,-15.00
+33.00,+4.00,+44.00,+16.00,-25.00,-39.00,+7.00,+32.00,-28.00,-22.00,-18.00,-28.00,-10.00,-9.00,+18.00,-16.00
-14.00,-20.00,-14.00,-2.00,+22.00,+18.00,-6.00,-5.00,+39.00,+23.00,+7.00,+1.00,-8.00,+15.00,+23.00,+13.00
+10.00,+14.00,+3.00,+2.00,+9.00,+17.00,-6.00,+4.00,-16.00,-4.00,-1.00,-7.00,-14.00,-20.00,-39.00,-11.00
-26.00,-26.00,-10.00,+1.00,+17.00,+14.00,+7.00,-12.00,-18.00,+0.00,-9.00,+8.00,-11.00,-21.00,+0.00,-18.00
-15.00,-4.00,-9.00,-3.00,+11.00,+21.00,+14.00,-3.00,+3.00,-1.00,+0.00,+0.00,+19.00,+3.00,+4.00,+7.00
-8.00,-21.00,-11.00,-13.00,-53.00,-32.00,-25.00,-5.00,-27.00,-3.00,-8.00,-19.00,-29.00,-34.00,-37.00,-13.00
+10.00,+27.00,+28.00,+21.00,+59.00,+44.00,+1.00,-1.00,-15.00,-31.00,-6.00,-1.00,+14.00,+45.00,+33.00,+4.00
-11.00,-8.00,-18.00,-15.00,-8.00,-21.00,-33.00,-62.00,-46.00,-31.00,-7.00,+0.00,-2.00,+26.00,+39.00,-9.00
-6.00,+4.00,-3.00,+0.00,+3.00,+1.00,+19.00,+22.00,+50.00,+39.00,+6.00,+12.00,+12.00,+6.00,-8.00,+17.00
+18.00,-1.00,+6.00,+6.00,+8.00,+13.00,+18.00,+29.00,+9.00,-6.00,-2.00,+1.00,+3.00,-24.00,+17.00,-1.00
+10.00,+38.00,+5.00,-4.00,-14.00,+6.00,+25.00,+36.00,+11.00,+19.00,+6.00,+9.00,+4.00,+2.00,-8.00,+8.00
+8.00,+4.00,-8.00,-6.00,-30.00,-35.00,-7.00,+5.00,-1.00,-5.00,-4.00,-7.00,+11.00,-5.00,-23.00,-3.00
-13.00,+9.00,+12.00,+6.00,+17.00,+13.00,-44.00,-30.00,-44.00,-45.00,-15.00,-8.00,-13.00,+3.00,-33.00,-36.00
-36.00,-50.00,-28.00,-7.00,+6.00,-4.00,+8.00,-22.00,-9.00,+8.00,+2.00,-3.00,+2.00,-19.00,-6.00,-8.00
+12.00,-13.00,+13.00,+7.00,+6.00,-1.00,+27.00,+3.00,+37.00,+15.00,+10.00,+12.00,+11.00,-3.00,-38.00,+9.00
-6.00,+1.00,+0.00,+2.00,-3.00,-5.00,+12.00,+7.00,+3.00,+13.00,-4.00,-3.00,-4.00,+17.00,+38.00,+5.00
+13.00,+27.00,+6.00,-4.00,-13.00,-7.00,-6.00,+0.00,+4.00,+7.00,+7.00,+5.00,+10.00,+19.00,+7.00,-1.00
-15.00,-5.00,-8.00,-2.00,+6.00,+0.00,-14.00,-13.00,+7.00,+2.00,-3.00,+4.00,+4.00,-3.00,-17.00,+1.00
+0.00,+0.00,-3.00,-2.00,-10.00,-15.00,+4.00,-11.00,-9.00,-13.00,+3.00,-8.00,-8.00,-9.00,+21.00,-7.00
+1.00,+4.00,+5.00,+1.00,+4.00,+17.00,+6.00,+8.00,-5.00,-1.00,-15.00,-15.00,-15.00,-39.00,-22.00,+7.00
-39.00,-56.00,-32.00,-9.00,+11.00,+10.00,-14.00,-14.00,-35.00,-30.00,+1.00,+22.00,+4.00,+39.00,-2.00,-6.00
+53.00,+64.00,+31.00,+10.00,+0.00,-21.00,+4.00,+15.00,+19.00,+28.00,+2.00,-5.00,+38.00,+17.00,+26.00,-11.00
-21.00,+0.00,-8.00,-7.00,-36.00,-6.00,+0.00,-5.00,-18.00,-16.00,-11.00,-6.00,-19.00,-66.00,-31.00,-4.00
+8.00,+1.00,+2.00,+7.00,+26.00,+4.00,-7.00,+9.00,+15.00,+12.00,+5.00,-15.00,-11.00,+33.00,+12.00,-3.00
-1.00,-16.00,-4.00,+5.00,+23.00,+31.00,-11.00,+8.00,-42.00,-27.00,-13.00,-7.00,-4.00,+17.00,+0.00,-26.00
-28.00,-31.00,-18.00,-4.00,+26.00,+21.00,+8.00,-8.00,-4.00,-17.00,+2.00,+14.00,+16.00,+33.00,-2.00,+20.00
+12.00,+16.00,+13.00,-1.00,-9.00,-6.00,+0.00,+13.00,-5.00,+15.00,+0.00,+4.00,+13.00,-22.00,+0.00,-5.00
+16.00,+13.00,+12.00,+1.00,-37.00,-42.00,-1.00,+14.00,+25.00,+6.00,+2.00,-14.00,-38.00,+8.00,-19.00,-2.00
+0.00,+22.00,-2.00,+0.00,+12.00,+22.00,+5.00,-3.00,-28.00,-22.00,-4.00,+0.00,-7.00,-40.00,+3.00,-5.00
-16.00,-19.00,-4.00,-2.00,-6.00,-11.00,-4.00,-13.00,-15.00,-17.00,-15.00,-11.00,-12.00,+32.00,-16.00,-23.00
-1.00,-14.00,-12.00,-5.00,+0.00,+7.00,-22.00,-14.00,-2.00,-12.00,+7.00,+7.00,+9.00,-4.00,+24.00,+11.00
-14.00,-7.00,-11.00,-5.00,-2.00,-4.00,+6.00,-20.00,+31.00,+17.00,+10.00,+17.00,+26.00,+2.00,+1.00,+22.00
+35.00,+24.00,+18.00,+5.00,-8.00,-9.00,+5.00,+9.00,+12.00,+19.00,+5.00,+0.00,-2.00,+25.00,+4.00,+6.00
-6.00,+5.00,+3.00,-2.00,-11.00,-15.00,+7.00,+7.00,-6.00,+1.00,+6.00,-1.00,-15.00,-23.00,+4.00,-4.00
-2.00,+3.00,+2.00,+2.00,+1.00,-3.00,-14.00,+2.00,+11.00,-19.00,-25.00,-3.00,+1.00,+34.00,-3.00,+6.00
-16.00,-27.00,-20.00,-11.00,-15.00,-2.00,+6.00,-3.00,-27.00,-7.00,-8.00,-11.00,-5.00,-39.00,+5.00,-26.00
-13.00,-25.00,-12.00,-1.00,+11.00,+10.00,+7.00,-12.00,-18.00,-29.00,-11.00,-6.00,-20.00,+0.00,-7.00,-14.00
+1.00,+8.00,+12.00,+4.00,+4.00,+3.00,-10.00,-1.00,+22.00,+41.00,+4.00,-2.00,+11.00,-29.00,-9.00,+17.00
-14.00,-9.00,-10.00,-4.00,+10.00,+8.00,+6.00,-4.00,-12.00,-11.00,+3.00,+1.00,+2.00,+30.00,+32.00,+1.00
+56.00,+44.00,+33.00,+11.00,+0.00,-1.00,+16.00,+27.00,-3.00,+5.00,+2.00,+5.00,-1.00,-2.00,-19.00,-4.00
-7.00,-9.00,-4.00,-3.00,-8.00,+0.00,+10.00,-2.00,+10.00,+10.00,-1.00,-4.00,-12.00,-59.00,-17.00,+3.00
-8.00,-10.00,-7.00,-7.00,-28.00,-36.00,-18.00,-7.00,-20.00,-31.00,-15.00,-27.00,-49.00,-11.00,-4.00,-13.00
-4.00,-10.00,-4.00,+8.00,+32.00,+16.00,+2.00,+1.00,+6.00,+11.00,+9.00,+2.00,+16.00,+37.00,-10.00,+0.00
-6.00,-4.00,-7.00,-1.00,+7.00,+21.00,-7.00,-1.00,-8.00,-16.00,-4.00,-3.00,-3.00,+7.00,+34.00,+10.00
+1.00,+3.00,+6.00,+1.00,-6.00,-26.00,-1.00,-1.00,-6.00,+1.00,-5.00,-1.00,+5.00,-17.00,-25.00,-6.00
-18.00,-29.00,-18.00,-7.00,-2.00,+7.00,-5.00,+3.00,+37.00,+4.00,+4.00,+24.00,+25.00,-3.00,+21.00,+10.00
-5.00,+2.00,-4.00,-6.00,-29.00,-30.00,+7.00,-12.00,+16.00,+14.00,+6.00,-5.00,-13.00,-8.00,-17.00,+1.00
+18.00,+29.00,+8.00,+0.00,-12.00,-2.00,-14.00,+9.00,+4.00,+12.00,+1.00,-4.00,-2.00,+26.00,-16.00,-3.00
-2.00,-8.00,+5.00,+6.00,+23.00,+17.00,+22.00,+2.00,+3.00,+1.00,+0.00,-5.00,-6.00,+7.00,+3.00,+2.00
-25.00,-34.00,-26.00,-12.00,-11.00,-11.00,-11.00,-17.00,-46.00,-42.00,-7.00,-1.00,-3.00,-46.00,-3.00,-12.00
+12.00,+17.00,+13.00,+3.00,+6.00,+9.00,+0.00,+3.00,+32.00,+12.00,+5.00,+7.00,+12.00,+35.00,+11.00,+9.00
-3.00,-6.00,+4.00,+3.00,+7.00,+3.00,+1.00,+10.00,-4.00,+25.00,+9.00,+12.00,+17.00,+5.00,-6.00,+4.00
-35.00,-30.00,-17.00,-10.00,-23.00,-17.00,-20.00,-20.00,+22.00,+10.00,+1.00,+2.00,+10.00,+9.00,+6.00,+10.00
+24.00,+14.00,+9.00,+4.00,+5.00,+4.00,+3.00,+8.00,+1.00,+9.00,+3.00,+8.00,+16.00,+21.00,+5.00,-3.00
-3.00,-12.00,-7.00,-8.00,-28.00,-14.00,+1.00,+1.00,-18.00,-13.00,+0.00,-16.00,-38.00,-38.00,-12.00,-11.00
-5.00,-7.00,-4.00,+3.00,+36.00,+31.00,-2.00,-5.00,-16.00,-13.00,-1.00,-4.00,-6.00,-28.00,-15.00,-12.00
-11.00,-18.00,-14.00,-4.00,-11.00,-12.00,-12.00,-4.00,+4.00,-19.00,-18.00,-5.00,+2.00,+11.00,+3.00,+3.00
-9.00,-11.00,-3.00,-2.00,+9.00,+11.00,+5.00,-8.00,+3.00,+12.00,-3.00,+13.00,+18.00,-1.00,-4.00,+1.00
+4.00,+12.00,+9.00,-2.00,-19.00,-16.00,-5.00,+1.00,-9.00,+0.00,-5.00,-10.00,-31.00,-44.00,+4.00,-3.00
+6.00,+2.00,+5.00,+1.00,-4.00,+4.00,+5.00,+4.00,+7.00,+5.00,+4.00,+6.00,+14.00,-36.00,-22.00,-2.00
-2.00,-4.00,+0.00,+0.00,-2.00,-12.00,-8.00,-2.00,-1.00,+1.00,+1.00,-19.00,-20.00,+72.00,+30.00,+15.00
+0.00,+9.00,+0.00,+3.00,+22.00,+39.00,+9.00,-8.00,+0.00,-4.00,+4.00,+1.00,+6.00,+38.00,+10.00,-3.00
+12.00,-1.00,-7.00,+0.00,+15.00,+18.00,+2.00,+12.00,-27.00,-11.00,-3.00,+3.00,+13.00,+8.00,-8.00,-4.00
-10.00,-6.00,-2.00,-4.00,-19.00,-23.00,+3.00,+2.00,+4.00,-12.00,-4.00,-3.00,-17.00,-44.00,-12.00,-3.00
+1.00,-4.00,-2.00,-2.00,-7.00,-12.00,+7.00,+5.00,+7.00,+9.00,+3.00,+1.00,+0.00,-25.00,-2.00,+2.00
+11.00,+23.00,+7.00,+3.00,+5.00,+10.00,+0.00,+0.00,-8.00,-2.00,-3.00,-8.00,-8.00,+3.00,-15.00,-7.00
-24.00,-26.00,-18.00,-8.00,-10.00,-11.00,-12.00,-9.00,+1.00,+6.00,+7.00,+6.00,+0.00,+13.00,+9.00,+6.00
-3.00,-8.00,-4.00,-4.00,+5.00,+0.00,+7.00,+1.00,-2.00,-9.00,-9.00,+3.00,+8.00,+0.00,+0.00,-8.00
+42.00,+53.00,+30.00,+8.00,-5.00,+4.00,+1.00,+14.00,+23.00,+14.00,+9.00,+10.00,+15.00,-2.00,+1.00,+14.00
-1.00,-9.00,+1.00,-4.00,-12.00,-19.00,-7.00,-2.00,-2.00,+2.00,+2.00,-12.00,-19.00,-1.00,-4.00,-2.00
-11.00,-6.00,-5.00,+1.00,+14.00,+11.00,+1.00,-3.00,+9.00,+14.00,+0.00,+8.00,+16.00,+0.00,+7.00,-3.00
-15.00,-7.00,-10.00,-4.00,-4.00,-2.00,-3.00,-8.00,-15.00,-11.00,-5.00,-2.00,+1.00,+6.00,+2.00,-1.00
+34.00,+24.00,+15.00,+4.00,+8.00,+3.00,+4.00,+12.00,+2.00,+4.00,+2.00,+1.00,+3.00,-2.00,-5.00,-5.00
-10.00,-14.00,-5.00,-4.00,-10.00,-4.00,+0.00,-7.00,-15.00,-7.00,-1.00,+2.00,+1.00,-15.00,-9.00,-11.00
-5.00,-4.00,+1.00,+3.00,+9.00,+12.00,-1.00,+12.00,+4.00,-2.00,-2.00,+8.00,+6.00,+3.00,+2.00,-1.00
-18.00,-14.00,-8.00,-9.00,-23.00,-14.00,-3.00,+7.00,-5.00,-10.00,-1.00,+1.00,+16.00,-5.00,-4.00,+0.00
-18.00,-20.00,-14.00,-7.00,-17.00,-20.00,-9.00,-18.00,-14.00,-8.00,-13.00,-37.00,-59.00,-52.00,-6.00,-18.00
+19.00,+7.00,-1.00,+7.00,+33.00,+14.00,+12.00,+29.00,+7.00,+16.00,+9.00,+2.00,+2.00,+19.00,+5.00,+7.00
-3.00,-7.00,-3.00,-3.00,-2.00,+2.00,+2.00,+1.00,-12.00,-18.00,-22.00,-19.00,+5.00,+40.00,+4.00,-10.00
+9.00,+15.00,+6.00,+7.00,+17.00,-1.00,-4.00,+3.00,-3.00,-8.00,-2.00,+13.00,+15.00,+7.00,+12.00,+0.00
+2.00,+11.00,+13.00,+4.00,+7.00,+12.00,+2.00,+0.00,+4.00,+9.00,+10.00,+35.00,+53.00,+4.00,+13.00,+4.00
-9.00,-5.00,-6.00,-15.00,-75.00,-57.00,-6.00,-19.00,+5.00,-7.00,-8.00,-30.00,-43.00,-23.00,-19.00,-1.00
+13.00,+12.00,+8.00,+13.00,+61.00,+52.00,+11.00,+5.00,+1.00,+6.00,-1.00,-5.00,-8.00,-16.00,-5.00,+2.00
+4.00,-4.00,-2.00,+1.00,+14.00,+6.00,-1.00,+0.00,-2.00,+6.00,+10.00,-6.00,-6.00,+11.00,+2.00,-1.00
-15.00,-23.00,-12.00,-7.00,-6.00,-5.00,-9.00,-8.00,-14.00,+8.00,-3.00,+6.00,+14.00,-9.00,-7.00,-7.00
-12.00,+0.00,-11.00,-3.00,+2.00,+0.00,+0.00,-17.00,+11.00,-31.00,-27.00,+1.00,+3.00,-3.00,+4.00,+3.00
+14.00,+27.00,+22.00,+0.00,-28.00,-21.00,-3.00,-7.00,-15.00,-1.00,+1.00,-1.00,+0.00,+6.00,-1.00,+1.00
-9.00,-34.00,+6.00,+2.00,-5.00,-3.00,+4.00,+9.00,+9.00,-7.00,-5.00,+2.00,-5.00,-6.00,-6.00,-6.00
+12.00,+49.00,+12.00,+6.00,+12.00,+9.00,+2.00,+6.00,+6.00,+6.00,+3.00,+5.00,+9.00,+8.00,-3.00,+1.00
-2.00,+1.00,-2.00,-4.00,-15.00,-9.00,-10.00,-3.00,+12.00,+29.00,+12.00,-1.00,-6.00,+0.00,+1.00,+8.00
-15.00,-28.00,-22.00,-9.00,-12.00,-9.00,-9.00,-21.00,-3.00,-6.00,-1.00,-3.00,-3.00,-8.00,-1.00,-11.00
+50.00,+30.00,+2.00,+3.00,+19.00,+12.00,+9.00,+7.00,-11.00,-2.00,-3.00,-3.00,-6.00,+2.00,-8.00,-7.00
-17.00,-24.00,-9.00,-6.00,-15.00,+3.00,-14.00,-27.00,-23.00,-20.00,+0.00,-6.00,+4.00,+5.00,-3.00,-10.00
+14.00,+25.00,+17.00,+9.00,+25.00,+5.00,+4.00,+20.00,-4.00,-3.00,+0.00,+9.00,+16.00,+6.00,-2.00,+13.00
-10.00,-9.00,-3.00,-2.00,-7.00,-5.00,+4.00,-7.00,+29.00,+14.00,+3.00,+10.00,-7.00,-9.00,+2.00,+7.00
+1.00,+2.00,-2.00,-7.00,-37.00,-46.00,+3.00,+6.00,+3.00,+4.00,-4.00,-31.00,-46.00,-24.00,-5.00,-3.00
-11.00,-19.00,-11.00,+5.00,+42.00,+59.00,+11.00,-1.00,+8.00,+6.00,+1.00,-3.00,-8.00,+7.00,-2.00,+2.00
-32.00,+3.00,-2.00,-1.00,+7.00,+7.00,-14.00,-25.00,-9.00,-10.00,+2.00,+17.00,-1.00,-15.00,+11.00,-13.00
-20.00,-13.00,-3.00,-2.00,+0.00,+6.00,-20.00,-32.00,-4.00,-9.00,-8.00,-14.00,+15.00,+6.00,-15.00,+8.00
-7.00,-1.00,+2.00,-5.00,-18.00,-9.00,-12.00,-32.00,+4.00,+0.00,+5.00,+7.00,+19.00,+55.00,+9.00,+14.00
-5.00,-1.00,-5.00,-1.00,+11.00,-4.00,+24.00,+10.00,+3.00,-4.00,-1.00,-4.00,-11.00,-12.00,-6.00,-7.00
+28.00,-4.00,+1.00,+3.00,+9.00,+18.00,+27.00,+88.00,-3.00,+3.00,-3.00,-8.00,-7.00,-19.00,-9.00,+0.00
+9.00,+6.00,+5.00,+4.00,+6.00,-13.00,+3.00,+7.00,-4.00,+1.00,+3.00,+10.00,+1.00,-12.00,+8.00,-2.00
-21.00,-9.00,-7.00,-6.00,-19.00,-6.00,-8.00,-4.00,-5.00,+10.00,-2.00,-4.00,-10.00,-9.00,+8.00,+1.00
+17.00,+21.00,+8.00,-1.00,-16.00,-17.00,-20.00,-25.00,+12.00,+3.00,+9.00,+0.00,+4.00,+3.00,-1.00,-2.00
-5.00,-7.00,-5.00,+0.00,+13.00,+10.00,-5.00,-29.00,+17.00,+9.00,-6.00,+2.00,+9.00,+4.00,+7.00,+9.00
-1.00,-14.00,-7.00,-7.00,-18.00,-11.00,+0.00,+4.00,-33.00,-34.00,-6.00,-2.00,-4.00,-1.00,-12.00,-15.00
-9.00,-2.00,-1.00,+0.00,+9.00,+11.00,-3.00,-18.00,-23.00,-6.00,-5.00,-3.00,+2.00,-9.00,-12.00,-15.00
+5.00,+26.00,+19.00,+6.00,-2.00,-10.00,-5.00,+0.00,+17.00,+9.00,+1.00,+9.00,+6.00,+6.00,+9.00,+3.00
+27.00,+0.00,-2.00,-3.00,-3.00,-1.00,+1.00,+10.00,-11.00,-8.00,-1.00,-7.00,-9.00,+1.00,-4.00,+5.00
+45.00,+53.00,+15.00,+8.00,+3.00,-1.00,-4.00,+19.00,+13.00,+13.00,+1.00,+2.00,-1.00,-7.00,-3.00,+5.00
-13.00,-21.00,-4.00,-3.00,+1.00,-3.00,-11.00,-25.00,+7.00,-3.00,-2.00,-1.00,-5.00,-1.00,+8.00,+8.00
-20.00,-33.00,-16.00,-6.00,-5.00,-6.00,+5.00,+3.00,+2.00,-3.00,-2.00,-3.00,-5.00,+4.00,-5.00,-6.00
-32.00,-29.00,-6.00,-1.00,-8.00,-11.00,+6.00,+2.00,-11.00,-10.00,+2.00,+2.00,-4.00,-4.00,-2.00,-8.00
+8.00,-1.00,-4.00,-1.00,+5.00,+15.00,+5.00,-6.00,-2.00,-4.00,-5.00,+3.00,-1.00,-6.00,+1.00,-1.00
+32.00,+31.00,+6.00,+3.00,-3.00,+15.00,+9.00,+25.00,+0.00,-3.00,+0.00,-12.00,-11.00,-8.00,+11.00,+1.00
-3.00,-8.00,-7.00,-7.00,-18.00,-36.00,-9.00,+10.00,-5.00,+6.00,-2.00,-6.00,-8.00,-18.00,-11.00,-6.00
+1.00,+4.00,+3.00,+4.00,+26.00,+26.00,-21.00,-31.00,+3.00,-3.00,-2.00,-10.00,-10.00,+11.00,-3.00,+2.00
-14.00,-20.00,-3.00,-1.00,+5.00,+19.00,+3.00,-1.00,-8.00,-3.00,+3.00,+2.00,+3.00,+24.00,+2.00,-4.00
-11.00,+5.00,+1.00,+3.00,+16.00,+6.00,+7.00,-12.00,-2.00,-5.00,-2.00,+13.00,+12.00,+2.00,-4.00,-5.00
-1.00,-8.00,-10.00,-8.00,-25.00,-16.00,-7.00,+29.00,-3.00,-9.00,-10.00,-5.00,-2.00,-4.00,+6.00,+10.00
-7.00,-6.00,-2.00,-3.00,-11.00,-13.00,-5.00,-16.00,+7.00,+12.00,+10.00,+4.00,+4.00,+0.00,+1.00,-4.00
+5.00,+3.00,+1.00,+1.00,+5.00,-6.00,-2.00,-1.00,-8.00,-3.00,+1.00,+1.00,-1.00,-15.00,+5.00,+2.00
-2.00,-8.00,+0.00,+1.00,-5.00,+4.00,+3.00,+19.00,+22.00,+13.00,-3.00,-1.00,+0.00,-1.00,-12.00,-7.00
-13.00,-23.00,-16.00,-7.00,-2.00,+0.00,-4.00,-12.00,+1.00,+23.00,+17.00,+0.00,+1.00,+1.00,-3.00,+7.00
-8.00,-17.00,+0.00,+0.00,+1.00,+2.00,+3.00,+2.00,-27.00,-39.00,-14.00,+1.00,+8.00,+15.00,+2.00,-11.00
+24.00,+56.00,+16.00,+4.00,-3.00,-6.00,+0.00,+4.00,+13.00,+7.00,-5.00,-6.00,-5.00,+3.00,+1.00,+3.00
+14.00,+26.00,+17.00,+5.00,+6.00,+5.00,+2.00,+9.00,-5.00,-19.00,-9.00,-3.00,+0.00,-3.00,-2.00,+2.00
+5.00,+11.00,+5.00,-2.00,+2.00,+3.00,+4.00,+7.00,-11.00,-1.00,-2.00,+3.00,-3.00,+0.00,-3.00,-9.00
-8.00,-8.00,-5.00,-4.00,-6.00,-6.00,-7.00,-15.00,+24.00,+28.00,+10.00,+5.00,+9.00,-3.00,+0.00,+6.00
-33.00,-51.00,-25.00,-12.00,-22.00,-14.00,-6.00,-17.00,-28.00,-16.00,-1.00,+6.00,+11.00,-6.00,-6.00,-20.00
-7.00,-5.00,-3.00,+1.00,-9.00,-17.00,+1.00,+8.00,+34.00,+30.00,+13.00,+7.00,+8.00,+13.00,+11.00,+14.00
+12.00,+33.00,+12.00,+2.00,+6.00,+19.00,-1.00,+11.00,-6.00,-4.00,-2.00,-12.00,-6.00,-4.00,+4.00,+6.00
+4.00,+4.00,-2.00,+1.00,+24.00,+26.00,-5.00,+0.00,-3.00,-2.00,-2.00,-9.00,-8.00,-8.00,-7.00,-13.00
+1.00,-9.00,-2.00,-1.00,+9.00,+6.00,+12.00,+6.00,-1.00,-5.00,-2.00,-1.00,-1.00,+1.00,-2.00,-1.00
-14.00,-17.00,-10.00,-2.00,+7.00,-1.00,-1.00,-21.00,-12.00,-4.00,-2.00,+8.00,+15.00,+4.00,+10.00,+0.00
-20.00,-24.00,-11.00,-4.00,-17.00,-11.00,-15.00,-28.00,+0.00,-1.00,-3.00,+11.00,+13.00,+3.00,-10.00,+1.00
+2.00,+11.00,+1.00,-3.00,-20.00,-14.00,-5.00,-9.00,+1.00,-1.00,+1.00,-9.00,-6.00,-5.00,+11.00,+4.00
-6.00,-2.00,+0.00,+2.00,-2.00,-1.00,+5.00,+21.00,+4.00,+4.00,-2.00,-1.00,-3.00,-5.00,-1.00,+3.00
+4.00,-6.00,-1.00,+0.00,+11.00,+4.00,+1.00,+16.00,-11.00,-5.00,+5.00,+1.00,-8.00,-10.00,-17.00,-15.00
+4.00,+1.00,-5.00,+0.00,+0.00,+3.00,+1.00,-20.00,+5.00,-17.00,-14.00,-7.00,-4.00,+7.00,+9.00,+7.00
-4.00,+2.00,+0.00,+2.00,+2.00,+0.00,+4.00,+23.00,-2.00,+10.00,-4.00,+0.00,-2.00,-4.00,-6.00,-6.00
-7.00,-21.00,-8.00,-3.00,-3.00,-7.00,-10.00,-11.00,+4.00,+10.00,+12.00,+2.00,-3.00,-4.00,-2.00,+2.00
+11.00,+36.00,+9.00,+2.00,-1.00,+0.00,+3.00,+9.00,+0.00,+4.00,-5.00,-6.00,-4.00,-5.00,-5.00,-3.00
+8.00,-8.00,+6.00,+4.00,+6.00,+1.00,-5.00,+0.00,-19.00,-23.00,-16.00,-5.00,-1.00,+4.00,-4.00,-6.00
-22.00,-36.00,-15.00,-11.00,-11.00,-10.00,-5.00,-19.00,+16.00,+0.00,-8.00,+4.00,+5.00,+2.00,-4.00,+7.00
+36.00,+89.00,+26.00,+6.00,+0.00,-4.00,+2.00,+14.00,-6.00,-2.00,+1.00,-6.00,-8.00,-5.00,-2.00,-11.00
-1.00,-9.00,+5.00,+4.00,+6.00,+6.00,+0.00,+0.00,-2.00,+2.00,-1.00,+1.00,+1.00,-1.00,-4.00,+11.00
-10.00,+1.00,-5.00,-1.00,+7.00,+0.00,-1.00,-8.00,+6.00,+9.00,+3.00,+3.00,+3.00,+4.00,-1.00,+1.00
-13.00,-12.00,-5.00,-3.00,-17.00,-12.00,+1.00,+14.00,-10.00,-3.00,+3.00,-2.00,-4.00,-2.00,+1.00,-4.00
-9.00,-27.00,-8.00,-4.00,-3.00,+1.00,+0.00,+6.00,-1.00,-3.00,+0.00,-12.00,-16.00,-17.00,-6.00,-5.00
-3.00,-10.00,-9.00,-3.00,+4.00,+1.00,-7.00,-8.00,+0.00,-15.00,-13.00,-5.00,-8.00,+10.00,-3.00,-5.00
-2.00,-5.00,+1.00,+2.00,+11.00,+9.00,-1.00,+2.00,-1.00,+3.00,+5.00,+9.00,+4.00,+6.00,+4.00,-1.00
+6.00,+8.00,+3.00,-4.00,-10.00,-8.00,-2.00,-5.00,-4.00,-4.00,-1.00,-3.00,+13.00,+1.00,+1.00,+7.00
-5.00,-5.00,+0.00,-2.00,-11.00,-3.00,-3.00,+4.00,+0.00,-2.00,-2.00,-5.00,+3.00,+4.00,+2.00,+1.00
-3.00,+2.00,-2.00,+2.00,+19.00,+7.00,+2.00,-8.00,-11.00,+0.00,+1.00,+4.00,+3.00,-8.00,-4.00,-3.00
-11.00,-22.00,-7.00,-5.00,-6.00,-5.00,-2.00,-4.00,+16.00,+7.00,+7.00,+0.00,-2.00,-3.00,-2.00,-1.00
+0.00,+4.00,+1.00,+1.00,+4.00,-1.00,+2.00,-6.00,-7.00,-7.00,+1.00,+5.00,+3.00,+6.00,+3.00,-2.00
+5.00,+7.00,+1.00,-1.00,-1.00,-4.00,-4.00,-6.00,-2.00,-4.00,-6.00,-3.00,-1.00,-1.00,+2.00,+3.00
+1.00,-8.00,+0.00,-2.00,-8.00,-1.00,-1.00,-4.00,+14.00,+12.00,-3.00,-5.00,-1.00,-7.00,-2.00,-3.00
-13.00,-24.00,-5.00,-1.00,-4.00,-5.00,+2.00,+4.00,-9.00,-9.00,-8.00,-3.00,-1.00,+3.00,+2.00,-4.00
+27.00,+40.00,+9.00,+3.00,+2.00,+0.00,+1.00,+4.00,-12.00,+4.00,+12.00,+1.00,-8.00,-8.00,-6.00,-12.00
-1.00,+2.00,+9.00,+3.00,+4.00,-1.00,-4.00,-14.00,+5.00,-5.00,-8.00,-1.00,-1.00,-5.00,+3.00,+3.00
-6.00,-8.00,-9.00,-6.00,-6.00,+0.00,+2.00,+7.00,+22.00,+12.00,+3.00,+2.00,+0.00,+6.00,+5.00,+10.00
+5.00,+15.00,+8.00,+2.00,+3.00,+3.00,+2.00,+3.00,-7.00,-6.00,-5.00,-4.00,-2.00,+6.00,-4.00,-3.00
-4.00,-6.00,+0.00,+0.00,-2.00,+0.00,-1.00,-8.00,+10.00,+9.00,+3.00,+1.00,-2.00,-1.00,+0.00,+3.00
-9.00,-25.00,-9.00,-3.00,+1.00,-4.00,-5.00,-1.00,-7.00,-5.00,+0.00,+4.00,+6.00,+2.00,-1.00,+0.00
-3.00,+4.00,-3.00,-1.00,-3.00,-3.00,-4.00,-3.00,-14.00,-8.00,+0.00,+7.00,+8.00,+0.00,+2.00,-6.00
-11.00,-15.00,-7.00,-5.00,-18.00,-24.00,-3.00,+4.00,-3.00,-9.00,-4.00,-18.00,-23.00,-11.00,-2.00,+0.00
+3.00,+10.00,+2.00,+0.00,+8.00,+25.00,+6.00,-4.00,-11.00,-6.00,-5.00,-9.00,-13.00,-9.00,-3.00,-5.00
+1.00,-3.00,+0.00,+1.00,+9.00,+5.00,+7.00,+6.00,+5.00,+10.00,-1.00,-3.00,-4.00,+4.00,+2.00,+4.00
-9.00,-12.00,-5.00,-1.00,+7.00,+2.00,-11.00,-9.00,-8.00,-12.00,-4.00,-1.00,-1.00,-7.00,-9.00,-2.00
+0.00,+3.00,-2.00,-1.00,+3.00,+0.00,-11.00,-24.00,+3.00,+4.00,+4.00,+6.00,+4.00,-3.00,-6.00,-3.00
-6.00,-5.00,-1.00,-2.00,-11.00,-12.00,-3.00,-7.00,+1.00,-2.00,-6.00,-1.00,+3.00,+12.00,+1.00,+2.00
+5.00,+0.00,-2.00,-2.00,-4.00,+0.00,+20.00,+59.00,+6.00,+11.00,+7.00,+5.00,-12.00,-15.00,-5.00,-5.00
-2.00,-12.00,-5.00,-2.00,-9.00,+5.00,-1.00,+7.00,-4.00,-6.00,-3.00,-5.00,+5.00,+2.00,+2.00,+0.00
-6.00,-9.00,-6.00,-1.00,+0.00,-5.00,+4.00,+4.00,-3.00,+11.00,+6.00,+1.00,+1.00,-1.00,-4.00,+3.00
+3.00,-13.00,-3.00,-1.00,+4.00,-1.00,-7.00,-12.00,+0.00,-25.00,+1.00,+0.00,+0.00,-5.00,-2.00,-1.00
-7.00,+3.00,-12.00,-6.00,-6.00,-5.00,-15.00,-31.00,-5.00,+0.00,-8.00,-1.00,+1.00,+5.00,+3.00,+4.00
+26.00,+43.00,+27.00,+7.00,+3.00,-1.00,+4.00,+0.00,-12.00,-17.00,-4.00,-4.00,-4.00,-1.00,-5.00,-11.00
-6.00,+0.00,+2.00,+0.00,-3.00,+1.00,-3.00,+6.00,+5.00,+4.00,-4.00,+0.00,-2.00,-1.00,+3.00,+5.00
-5.00,-3.00,-2.00,-1.00,-1.00,-3.00,+1.00,-8.00,-5.00,+10.00,+0.00,-1.00,-3.00,-5.00,-1.00,-1.00
-15.00,-31.00,-12.00,-4.00,+0.00,-1.00,-4.00,-9.00,+5.00,+7.00,+8.00,+2.00,+5.00,+6.00,-1.00,-1.00
-15.00,-23.00,-10.00,-5.00,-5.00,-3.00,+0.00,-1.00,+0.00,-5.00,-4.00,-5.00,-5.00,-4.00,-1.00,-3.00
+13.00,+9.00,+4.00,+1.00,-1.00,-1.00,+0.00,-3.00,+0.00,+2.00,+3.00,+2.00,+2.00,-5.00,+1.00,-3.00
-6.00,+10.00,+6.00,+2.00,+5.00,+3.00,+2.00,+18.00,-4.00,-1.00,-4.00,+1.00,-2.00,+5.00,-1.00,+1.00
-10.00,-12.00,-4.00,-2.00,-3.00,-6.00,+0.00,-8.00,-6.00,-8.00,-6.00,-4.00,+7.00,-16.00,-6.00,-4.00
-4.00,-3.00,-5.00,-2.00,+4.00,-6.00,-7.00,+0.00,-2.00,-1.00,+1.00,+4.00,+8.00,+25.00,+5.00,+0.00
-1.00,-3.00,-1.00,+1.00,+0.00,-2.00,-2.00,+4.00,+6.00,-2.00,+1.00,-3.00,-7.00,-3.00,+4.00,+0.00
+0.00,-3.00,-1.00,+0.00,+1.00,-5.00,+0.00,-1.00,-11.00,-6.00,-6.00,-4.00,-3.00,-1.00,-2.00,+10.00
-1.00,+6.00,+3.00,+1.00,+8.00,+7.00,-6.00,-15.00,+1.00,+1.00,+0.00,-4.00,-7.00,-2.00,-1.00,-2.00
+0.00,+1.00,+0.00,-1.00,-6.00,-1.00,+3.00,+7.00,+1.00,-4.00,-4.00,-2.00,-4.00,-15.00,-6.00,-2.00
+6.00,+0.00,-1.00,+1.00,+6.00,+8.00,+8.00,+11.00,-2.00,+1.00,+0.00,+3.00,+8.00,+3.00,+0.00,-2.00
+2.00,+0.00,-1.00,-2.00,-6.00,-4.00,+5.00,+9.00,+3.00,+8.00,+1.00,-1.00,+1.00,-1.00,+0.00,-1.00
+4.00,+6.00,+4.00,+4.00,+0.00,+0.00,-2.00,-1.00,+11.00,+4.00,-4.00,-2.00,-5.00,+2.00,-4.00,-2.00
-11.00,-22.00,-7.00,-3.00,-2.00,-8.00,-3.00,-15.00,-3.00,-8.00,-4.00,+0.00,-3.00,-1.00,-3.00,+0.00
+8.00,+10.00,+7.00,+1.00,+0.00,+2.00,+0.00,+1.00,-16.00,+4.00,+7.00,+1.00,-2.00,+4.00,-3.00,-5.00
+9.00,+27.00,+4.00,+0.00,-2.00,-1.00,-4.00,-3.00,-2.00,-2.00,-5.00,-2.00,+0.00,-4.00,-2.00,-8.00
+10.00,+27.00,+9.00,+3.00,+3.00,+0.00,-2.00,-1.00,+3.00,-2.00,-6.00,-3.00,+2.00,+4.00,+1.00,+8.00
+0.00,-9.00,-2.00,-3.00,-2.00,+0.00,+0.00,+4.00,-5.00,-4.00,+0.00,-1.00,-5.00,-3.00,-1.00,-3.00
+0.00,-9.00,-7.00,-3.00,-1.00,-1.00,+0.00,+1.00,+13.00,+6.00,-2.00,+0.00,+1.00,-3.00,-2.00,-2.00
+2.00,-2.00,+1.00,-1.00,+1.00,+1.00,+0.00,-1.00,-1.00,+1.00,+1.00,+0.00,+0.00,-6.00,-3.00,+0.00
-9.00,-16.00,-8.00,-4.00,-2.00,-2.00,-1.00,+0.00,+11.00,+7.00,+4.00,+0.00,-1.00,-5.00,-3.00,-1.00
+2.00,+5.00,-2.00,-2.00,-3.00,-1.00,-1.00,+8.00,-11.00,-3.00,-3.00,-3.00,-3.00,-3.00,+3.00,-2.00
-6.00,+2.00,-1.00,-1.00,+0.00,+2.00,+0.00,+7.00,+1.00,-3.00,-2.00,-3.00,-2.00,+3.00,+1.00,-1.00
-3.00,+0.00,-1.00,+2.00,+5.00,-8.00,-5.00,-3.00,-2.00,-2.00,+2.00,+2.00,+0.00,+0.00,+0.00,-4.00
+2.00,-1.00,-1.00,-2.00,-3.00,-1.00,+1.00,+6.00,-8.00,-8.00,+0.00,+4.00,+8.00,+8.00,-1.00,-1.00
-1.00,+2.00,-1.00,-1.00,-5.00,+1.00,+0.00,+0.00,-5.00,-2.00,-1.00,-5.00,-6.00,-19.00,-4.00,-2.00
-4.00,-1.00,-2.00,+2.00,+7.00,+6.00,-1.00,-10.00,-6.00,-6.00,-8.00,+0.00,+0.00,-3.00,-3.00,-7.00
-5.00,-5.00,+0.00,+0.00,-3.00,+1.00,+0.00,+14.00,+3.00,-1.00,-3.00,+3.00,+7.00,+10.00,+3.00,+0.00
-2.00,-2.00,+1.00,-4.00,-22.00,-15.00,-2.00,-2.00,+2.00,+1.00,+0.00,-6.00,-12.00,-15.00,-3.00,+1.00
-2.00,-3.00,-2.00,+1.00,+18.00,+17.00,-3.00,-2.00,-6.00,+0.00,+3.00,-1.00,-3.00,-2.00,-2.00,-3.00
-1.00,-5.00,-2.00,-1.00,+4.00,+1.00,+2.00,-1.00,+4.00,+2.00,+1.00,-3.00,-2.00,+1.00,+0.00,+5.00
+1.00,-1.00,-2.00,-2.00,-1.00,+3.00,+2.00,-7.00,+4.00,-2.00,-2.00,+1.00,+1.00,-2.00,-3.00,-1.00
+2.00,-7.00,-1.00,+1.00,+3.00,+1.00,-4.00,-4.00,-3.00,-2.00,+0.00,+1.00,+2.00,+7.00,+1.00,-1.00
+1.00,+7.00,-1.00,-1.00,-12.00,-7.00,+0.00,-4.00,-8.00,-11.00,+1.00,+1.00,+0.00,+4.00,+1.00,-2.00
+3.00,+7.00,-1.00,-1.00,-4.00,-4.00,-2.00,+0.00,-9.00,-4.00,-2.00,-2.00,-2.00,+0.00,-3.00,-2.00
+3.00,-5.00,-3.00,-3.00,+0.00,+2.00,+0.00,+2.00,+10.00,-1.00,-6.00,-3.00,-1.00,-8.00,-4.00,+0.00
-11.00,-16.00,-4.00,-3.00,-3.00,-1.00,-2.00,-6.00,-4.00,+4.00,+4.00,+1.00,-2.00,+6.00,+1.00,-1.00
+1.00,+1.00,+0.00,+2.00,-1.00,-1.00,+2.00,-1.00,-1.00,-2.00,-7.00,-5.00,-4.00,-1.00,-2.00,-2.00
+5.00,+10.00,+2.00,-3.00,-1.00,+1.00,+0.00,+3.00,-3.00,-5.00,+1.00,+1.00,+2.00,-3.00,-2.00,-1.00
-1.00,-3.00,+1.00,+1.00,-1.00,-3.00,+0.00,-10.00,-4.00,-5.00,-4.00,-6.00,-4.00,-3.00,-3.00,-5.00
-15.00,-17.00,-7.00,-2.00,+0.00,+1.00,-2.00,-2.00,+1.00,+4.00,+2.00,+1.00,+0.00,+4.00,+1.00,-2.00
+1.00,+8.00,+1.00,+1.00,+1.00,-1.00,-2.00,-13.00,+6.00,+0.00,+2.00,+2.00,-1.00,+2.00,+2.00,+7.00
-16.00,-4.00,+0.00,+0.00,-1.00,+1.00,+1.00,+10.00,-7.00,-4.00,-2.00,-2.00,+0.00,-1.00,+0.00,-2.00
+14.00,-3.00,-5.00,-2.00,-4.00,-3.00,-2.00,-4.00,+4.00,+4.00,+2.00,+0.00,+2.00,-2.00,-1.00,+0.00
+3.00,+6.00,+4.00,+0.00,+3.00,+2.00,+3.00,+3.00,-3.00,-3.00,-2.00,+1.00,-4.00,+4.00,-1.00,+2.00
-14.00,-11.00,-5.00,-3.00,-9.00,-2.00,-4.00,-4.00,-7.00,-3.00,-1.00,+1.00,+2.00,-4.00,-3.00,-4.00
-6.00,-6.00,-4.00,-2.00,+0.00,+1.00,-1.00,-7.00,+10.00,+5.00,-2.00,-8.00,-8.00,-4.00,-2.00,-3.00
+5.00,+7.00,-1.00,+0.00,+4.00,-7.00,+0.00,+1.00,-1.00,+2.00,+2.00,-5.00,-8.00,-2.00,+1.00,-1.00
-12.00,-6.00,-1.00,-1.00,+8.00,+9.00,-3.00,+3.00,-8.00,-12.00,-4.00,-1.00,+3.00,-1.00,+0.00,-7.00
+8.00,+14.00,+5.00,-2.00,+0.00,-2.00,+2.00,+2.00,+6.00,+6.00,+1.00,+2.00,+0.00,+0.00,+0.00,+3.00
+18.00,+14.00,+5.00,+1.00,-3.00,-2.00,+2.00,+5.00,-4.00,-3.00,-3.00,+1.00,+3.00,+0.00,-2.00,-3.00
-12.00,-8.00,-3.00,-1.00,-6.00,-3.00,-2.00,+1.00,-3.00,-1.00,+0.00,+1.00,-2.00,-1.00,-1.00,+0.00
+8.00,+10.00,+2.00,+1.00,-1.00,-2.00,+1.00,-6.00,-11.00,-6.00,-3.00,-5.00,-2.00,-2.00,-1.00,-5.00
-6.00,-17.00,-7.00,-2.00,-2.00,-2.00,-2.00,-8.00,+7.00,+14.00,+9.00,+0.00,-2.00,+1.00,+0.00,-3.00
-3.00,-14.00,-5.00,-2.00,-3.00,-4.00,-4.00,+3.00,+5.00,-4.00,-14.00,-2.00,+0.00,-1.00,-1.00,+4.00
+7.00,+21.00,+8.00,+0.00,+1.00,+1.00,-1.00,-5.00,-4.00,-3.00,+2.00,-3.00,-1.00,-2.00,-1.00,-3.00
