+2.00,-5.00,-1.00,+0.00,+3.00,+2.00,-1.00,-11.00,+0.00,+1.00,-1.00,+0.00,-1.00,-1.00,-1.00,-3.00
-10.00,-7.00,-4.00,-1.00,-4.00,-3.00,-1.00,-10.00,+9.00,+2.00,+1.00,-2.00,-2.00,+1.00,+1.00,+3.00
+11.00,+17.00,+6.00,+1.00,+1.00,+1.00,+1.00,+0.00,-5.00,+2.00,-2.00,-2.00,+0.00,-2.00,-2.00,-3.00
-1.00,+4.00,-1.00,+0.00,+0.00,-1.00,+0.00,+7.00,+4.00,+2.00,+1.00,+1.00,+0.00,+0.00,-1.00,+1.00
-5.00,+0.00,+1.00,+3.00,-1.00,-2.00,-2.00,-2.00,-3.00,+1.00,+0.00,-3.00,-1.00,-2.00,-1.00,+0.00
+0.00,-6.00,-1.00,-2.00,+1.00,-2.00,-2.00,-6.00,-5.00,-5.00,-5.00,-1.00,-1.00,-3.00,-3.00,-4.00
-4.00,-9.00,-4.00,-4.00,-3.00,-2.00,+0.00,+3.00,-1.00,-1.00,-1.00,+0.00,+0.00,+0.00,-1.00,+2.00
-2.00,+0.00,+3.00,+1.00,+0.00,+0.00,-2.00,-8.00,+1.00,-3.00,-4.00,-2.00,-1.00,-1.00,-1.00,+0.00
-1.00,+1.00,-3.00,-2.00,-2.00,-1.00,+0.00,+8.00,+0.00,-5.00,-4.00,-2.00,+0.00,-1.00,+0.00,+0.00
+1.00,+1.00,-1.00,+0.00,+2.00,-1.00,-3.00,-6.00,-2.00,+1.00,-3.00,-1.00,+1.00,-1.00,-1.00,+1.00
-2.00,-8.00,-4.00,-1.00,-1.00,-1.00,+0.00,-6.00,-9.00,+0.00,+0.00,+1.00,+3.00,+1.00,-1.00,-1.00
+1.00,-2.00,-2.00,-5.00,-12.00,-4.00,-2.00,-3.00,+7.00,+0.00,-2.00,-9.00,-14.00,-8.00,-2.00,-1.00
+1.00,+4.00,+2.00,+2.00,+3.00,-8.00,+1.00,+6.00,-3.00,-12.00,-5.00,-3.00,-3.00,-3.00,-3.00,-4.00
+3.00,-5.00,-7.00,-1.00,+3.00,+3.00,+0.00,-7.00,+2.00,+12.00,+1.00,-2.00,-4.00,-1.00,-1.00,-1.00
-1.00,+1.00,+0.00,-2.00,+2.00,-2.00,-2.00,-9.00,-5.00,-5.00,-3.00,-3.00,-5.00,-2.00,-4.00,-10.00
-6.00,-10.00,-3.00,-1.00,+0.00,+1.00,+0.00,+5.00,-11.00,-5.00,+1.00,+2.00,+11.00,+3.00,+2.00,+2.00
-10.00,-8.00,-1.00,-3.00,-9.00,-4.00,-3.00,-6.00,+19.00,+6.00,+1.00,+3.00,+2.00,+1.00,-2.00,-1.00
+12.00,+13.00,+0.00,+1.00,-5.00,-3.00,+0.00,-2.00,-2.00,-12.00,-1.00,-3.00,-7.00,-5.00,-3.00,-5.00
-3.00,+4.00,+1.00,+0.00,+4.00,-1.00,-1.00,-2.00,-6.00,-2.00,-1.00,-4.00,-5.00,+0.00,+2.00,+0.00
-8.00,-13.00,-4.00,-3.00,-3.00,-5.00,-2.00,-4.00,+0.00,+11.00,+2.00,+2.00,-1.00,+0.00,+0.00,+2.00
+16.00,+17.00,+3.00,+1.00,+1.00,+4.00,+3.00,+11.00,-6.00,+1.00,+0.00,+1.00,-1.00,-2.00,-2.00,-2.00
-3.00,-3.00,+1.00,+3.00,+2.00,+1.00,+0.00,+1.00,-8.00,-3.00,-2.00,+2.00,+2.00,+1.00,-1.00,-2.00
-2.00,-7.00,-5.00,-3.00,-7.00,+3.00,-3.00,-2.00,+8.00,+2.00,+2.00,-1.00,+2.00,-2.00,-3.00,+1.00
-7.00,-8.00,-3.00,-1.00,+1.00,-6.00,-2.00,-1.00,-3.00,-10.00,-4.00,-4.00,+0.00,-1.00,+0.00,-2.00
-5.00,+1.00,-2.00,-2.00,+0.00,+0.00,-2.00,-1.00,-5.00,+0.00,-2.00,-2.00,+0.00,-1.00,+0.00,+2.00
-1.00,-6.00,+2.00,-2.00,-3.00,-3.00,-2.00,-8.00,-4.00,-9.00,-1.00,+0.00,-1.00,+0.00,-2.00,-3.00
+0.00,-1.00,-2.00,-2.00,-5.00,-1.00,+2.00,+18.00,-3.00,-4.00,-3.00,-2.00,-3.00,-3.00,+0.00,-1.00
-2.00,-2.00,-3.00,-2.00,+2.00,+2.00,-1.00,-5.00,-1.00,+1.00,-1.00,+5.00,+2.00,-1.00,-3.00,-2.00
+10.00,+18.00,+7.00,+4.00,+1.00,-3.00,-1.00,-3.00,+16.00,+13.00,-1.00,-2.00,-1.00,+1.00,-1.00,+4.00
-17.00,-19.00,-4.00,-3.00,-11.00,-4.00,-2.00,-5.00,-18.00,-7.00,-1.00,+3.00,+2.00,-2.00,+0.00,-3.00
-12.00,-45.00,-24.00,-8.00,+0.00,+2.00,-3.00,-13.00,+5.00,+10.00,+8.00,+7.00,+9.00,+5.00,+2.00,+5.00
+30.00,+57.00,+25.00,+8.00,+1.00,-3.00,+4.00,+16.00,+2.00,-3.00,-2.00,-8.00,-4.00,+2.00,+0.00,+10.00
+2.00,-1.00,+0.00,+0.00,+7.00,+4.00,+2.00,+4.00,-20.00,-6.00,+2.00,-2.00,-5.00,-5.00,-3.00,-15.00
-3.00,+17.00,+2.00,+1.00,+15.00,+6.00,+0.00,+11.00,+35.00,+6.00,-4.00,-2.00,-1.00,-1.00,+0.00,+5.00
-18.00,-3.00,+7.00,+3.00,+1.00,-1.00,-3.00,-8.00,-13.00,+5.00,+2.00,-1.00,-5.00,-3.00,-4.00,-1.00
-26.00,-38.00,-16.00,-3.00,-1.00,-3.00,-6.00,-19.00,+3.00,+0.00,-2.00,+2.00,+5.00,+1.00,+4.00,+3.00
+3.00,+20.00,+3.00,-1.00,-7.00,-6.00,-2.00,+9.00,-3.00,-4.00,-4.00,-2.00,-1.00,+3.00,+1.00,+5.00
+15.00,+17.00,+3.00,-4.00,-7.00,-3.00,+4.00,+7.00,-22.00,-4.00,+0.00,-2.00,-2.00,-3.00,-4.00,-9.00
+4.00,-4.00,-7.00,-2.00,-4.00,+0.00,+0.00,-1.00,+26.00,+0.00,-2.00,+5.00,+9.00,-1.00,+0.00,+3.00
-10.00,-14.00,-6.00,-4.00,-4.00,-5.00,-4.00,-3.00,+2.00,+5.00,+3.00,-5.00,-18.00,-4.00,+0.00,+5.00
-4.00,-3.00,+4.00,+2.00,+0.00,+2.00,+1.00,-2.00,-2.00,-1.00,-2.00,+0.00,+7.00,-1.00,-1.00,-4.00
+1.00,-1.00,+0.00,+2.00,-4.00,-6.00,-4.00,-7.00,-13.00,-4.00,-4.00,-6.00,-5.00,-1.00,+2.00,+1.00
+7.00,+6.00,+4.00,+2.00,+6.00,+2.00,+3.00,+2.00,-2.00,-6.00,-3.00,-5.00,-3.00,-3.00,-1.00,-1.00
+0.00,+0.00,-3.00,+1.00,+2.00,+6.00,+0.00,-6.00,-14.00,-18.00,-3.00,-3.00,-1.00,-3.00,-4.00,-12.00
-23.00,-49.00,-20.00,-8.00,-5.00,-2.00,-5.00,-7.00,+3.00,+4.00,+0.00,-1.00,-3.00,+1.00,+2.00,+5.00
+23.00,+36.00,+10.00,+4.00,+6.00,+4.00,-1.00,-5.00,-1.00,+0.00,-2.00,-1.00,-1.00,+0.00,-2.00,+1.00
-2.00,-5.00,-1.00,-2.00,-12.00,-7.00,+3.00,+8.00,+3.00,+8.00,+1.00,+1.00,+4.00,+2.00,+1.00,+1.00
+15.00,+4.00,+2.00,+1.00,-2.00,-4.00,+0.00,-1.00,+1.00,+1.00,+1.00,+1.00,-3.00,-3.00,-2.00,-8.00
-7.00,-7.00,-6.00,-3.00,+0.00,+5.00,+0.00,+2.00,-14.00,-10.00,+2.00,+1.00,-1.00,-1.00,-1.00,+0.00
-5.00,-3.00,+3.00,+4.00,+3.00,-3.00,-3.00,-11.00,+3.00,-3.00,-3.00,-3.00,-1.00,-1.00,-1.00,-2.00
+26.00,+29.00,+12.00,+4.00,+4.00,+0.00,+2.00,+4.00,+22.00,+7.00,-5.00,-4.00,-2.00,-2.00,-2.00,+3.00
-13.00,-26.00,-13.00,-7.00,-6.00,-6.00,-1.00,-1.00,-48.00,-28.00,+1.00,+4.00,+5.00,+3.00,+0.00,-11.00
-2.00,-10.00,-4.00,-5.00,-5.00,+2.00,-1.00,-2.00,+18.00,+10.00,+1.00,+5.00,+4.00,+0.00,+2.00,+9.00
+12.00,+14.00,+5.00,+0.00,-2.00,-2.00,+0.00,-10.00,-4.00,+5.00,-1.00,-13.00,-12.00,-2.00,-1.00,+5.00
-9.00,-8.00,-3.00,+2.00,+1.00,+2.00,+0.00,+0.00,+0.00,-5.00,-1.00,-5.00,-11.00,-4.00,-1.00,-3.00
+0.00,+3.00,+0.00,-1.00,+4.00,-3.00,-1.00,-1.00,+8.00,+12.00,+2.00,+1.00,+2.00,-2.00,-2.00,-2.00
-13.00,-14.00,-5.00,-1.00,+0.00,+4.00,-2.00,-9.00,-25.00,-19.00,-8.00,-9.00,-5.00,-6.00,-4.00,-12.00
-15.00,-27.00,-6.00,-4.00,+2.00,+2.00,-2.00,-15.00,+11.00,-1.00,+0.00,+3.00,-8.00,-1.00,+0.00,+2.00
-5.00,-7.00,-4.00,-6.00,-9.00,-4.00,+0.00,+6.00,-24.00,-9.00,-2.00,+2.00,+19.00,+12.00,+12.00,-6.00
+10.00,+33.00,+7.00,+1.00,-12.00,-23.00,-15.00,+3.00,+13.00,+7.00,-3.00,-1.00,+3.00,-7.00,-16.00,-1.00
-2.00,+1.00,+3.00,+3.00,+11.00,+14.00,+0.00,-1.00,-12.00,-8.00,-1.00,+0.00,-2.00,-2.00,-7.00,-5.00
+7.00,-10.00,-5.00,-3.00,+3.00,+5.00,+6.00,+11.00,+8.00,+2.00,-1.00,-3.00,+1.00,-20.00,+0.00,+2.00
-7.00,-10.00,-7.00,-4.00,-3.00,+0.00,+8.00,-13.00,+1.00,+3.00,-2.00,-1.00,-4.00,+29.00,-3.00,-2.00
-11.00,-7.00,-4.00,-3.00,-2.00,+1.00,-11.00,+16.00,+4.00,+0.00,-1.00,+1.00,-1.00,+6.00,+3.00,+2.00
+1.00,+6.00,+3.00,+1.00,-4.00,-9.00,-6.00,+1.00,+1.00,+9.00,+3.00,+0.00,+1.00,+3.00,-1.00,-14.00
+0.00,+0.00,-3.00,+0.00,+0.00,-5.00,-3.00,+14.00,-9.00,+3.00,+0.00,+4.00,+4.00,+2.00,+0.00,+2.00
+11.00,-13.00,+3.00,+1.00,-1.00,-4.00,-6.00,-21.00,-1.00,-19.00,-4.00,-5.00,-13.00,-34.00,+0.00,-4.00
-5.00,-1.00,-4.00,-3.00,+1.00,+3.00,+0.00,-3.00,+11.00,+1.00,-4.00,-1.00,+4.00,+13.00,+1.00,+9.00
+27.00,+39.00,+12.00,+3.00,+1.00,-1.00,+2.00,+9.00,-15.00,+12.00,-1.00,-2.00,-7.00,-2.00,-8.00,-15.00
-21.00,-19.00,-8.00,-5.00,-8.00,-4.00,+10.00,+0.00,+15.00,+6.00,+6.00,+6.00,+9.00,+16.00,+5.00,+8.00
+8.00,+23.00,+2.00,-1.00,+2.00,+1.00,-3.00,+2.00,-7.00,-1.00,-2.00,-1.00,-1.00,-7.00,-7.00,-11.00
+12.00,+15.00,+6.00,+6.00,+10.00,+7.00,+7.00,-9.00,+13.00,-6.00,-1.00,+0.00,-1.00,-1.00,-1.00,+6.00
-7.00,-8.00,-2.00,-1.00,+0.00,+1.00,+2.00,+6.00,+21.00,+6.00,-2.00,-4.00,-4.00,-18.00,-4.00,+9.00
-3.00,-9.00,-3.00,-2.00,-3.00,-3.00,-8.00,+2.00,-12.00,-4.00,-2.00,+2.00,+5.00,+22.00,-5.00,-11.00
-26.00,-36.00,-8.00,-5.00,-8.00,-4.00,+1.00,-6.00,-17.00,-8.00,-5.00,+0.00,-1.00,-1.00,-3.00,+16.00
+16.00,+51.00,+8.00,+0.00,+1.00,+7.00,+7.00,+15.00,+5.00,+8.00,+2.00,+2.00,-8.00,-2.00,+4.00,-3.00
-5.00,-5.00,-5.00,-4.00,-8.00,-8.00,+1.00,-3.00,-3.00,-1.00,+1.00,-1.00,+10.00,-27.00,+1.00,+1.00
+14.00,+25.00,+6.00,+2.00,-7.00,-16.00,-19.00,-19.00,-20.00,-13.00,-5.00,-9.00,-9.00,+25.00,+4.00,-13.00
+19.00,+8.00,+4.00,+7.00,+25.00,+25.00,+18.00,-8.00,+7.00,+6.00,+2.00,-1.00,-2.00,+21.00,-6.00,-11.00
-10.00,-23.00,-5.00,-3.00,+3.00,+4.00,-3.00,+0.00,+14.00,+1.00,-4.00,+0.00,+2.00,+8.00,-8.00,-6.00
-8.00,-16.00,-6.00,-2.00,+3.00,+7.00,+8.00,+4.00,+3.00,+3.00,+0.00,+3.00,+2.00,+1.00,+5.00,+14.00
-6.00,-8.00,-2.00,-1.00,-2.00,+2.00,+0.00,+2.00,+5.00,+4.00,+2.00,+3.00,-1.00,-15.00,+0.00,+1.00
+10.00,+8.00,-2.00,-2.00,-7.00,-6.00,+2.00,+9.00,-1.00,-8.00,-1.00,-1.00,-2.00,-12.00,+0.00,+1.00
+29.00,+46.00,+22.00,+8.00,+4.00,+4.00,+4.00,+0.00,-15.00,-7.00,-6.00,-6.00,-2.00,-10.00,-7.00,-11.00
+14.00,+15.00,+3.00,-1.00,-4.00,-9.00,-9.00,-12.00,+4.00,-6.00,+1.00,-2.00,-2.00,+21.00,+14.00,+30.00
+15.00,-22.00,-9.00,-3.00,-5.00,-2.00,-4.00,+15.00,+1.00,+8.00,+0.00,+2.00,+0.00,-26.00,-3.00,-5.00
-1.00,+8.00,+0.00,+0.00,-3.00,-10.00,-13.00,+2.00,-13.00,-5.00,-5.00,-3.00,-6.00,-7.00,-20.00,-15.00
-25.00,-35.00,-9.00,-3.00,-1.00,+3.00,+0.00,-6.00,+5.00,-5.00,-6.00,-4.00,-4.00,-22.00,+25.00,+26.00
+14.00,-6.00,+1.00,+0.00,-2.00,-1.00,+3.00,-42.00,+11.00,+7.00,+2.00,-2.00,-4.00,-7.00,-2.00,-4.00
+19.00,+7.00,+1.00,+0.00,+3.00,+9.00,+23.00,+20.00,-9.00,-4.00,+2.00,+1.00,+9.00,+37.00,-18.00,-7.00
-22.00,+8.00,-1.00,-1.00,-2.00,-5.00,-26.00,+4.00,+20.00,+10.00,-1.00,+1.00,+4.00,+3.00,+8.00,+12.00
+35.00,-21.00,-8.00,-2.00,+1.00,+0.00,+0.00,+1.00,+6.00,+10.00,+5.00,-1.00,+0.00,+15.00,-6.00,+2.00
-24.00,+4.00,-1.00,+0.00,-3.00,-6.00,-8.00,-3.00,-23.00,-35.00,-11.00,-3.00,-1.00,+5.00,+4.00,-10.00
-21.00,-1.00,-6.00,-1.00,+0.00,+4.00,+13.00,-10.00,-5.00,-5.00,+2.00,-1.00,-2.00,-36.00,-11.00,-7.00
-9.00,+6.00,+9.00,+0.00,-1.00,-8.00,-1.00,-3.00,-22.00,-4.00,+0.00,+0.00,-4.00,+0.00,-14.00,-15.00
+21.00,+27.00,+5.00,+1.00,-5.00,-3.00,-3.00,-4.00,+42.00,+27.00,+6.00,+3.00,-2.00,+1.00,+20.00,+17.00
-13.00,-19.00,-5.00,-5.00,-6.00,-5.00,+13.00,+10.00,+9.00,+13.00,+5.00,-5.00,-6.00,+6.00,+8.00,+3.00
-8.00,-9.00,+1.00,+3.00,+7.00,+11.00,-19.00,-3.00,-2.00,-2.00,-3.00,-1.00,-3.00,-18.00,-3.00,-23.00
-13.00,-1.00,-2.00,-3.00,+6.00,+8.00,+0.00,+0.00,+1.00,-15.00,-3.00,-4.00,+0.00,-4.00,-4.00,-3.00
-10.00,-29.00,-9.00,-4.00,-2.00,+2.00,+0.00,+8.00,-29.00,-9.00,-2.00,+2.00,+2.00,+3.00,-4.00,-18.00
+15.00,-5.00,-4.00,-4.00,-1.00,-6.00,-7.00,+23.00,-7.00,+0.00,-2.00,+3.00,+1.00,+8.00,-5.00,-9.00
-12.00,+7.00,+1.00,-5.00,-10.00,-10.00,-2.00,+4.00,+17.00,-3.00,-3.00,-1.00,-2.00,-11.00,+1.00,+22.00
+10.00,+4.00,+2.00,+1.00,-4.00,-2.00,+6.00,+6.00,+9.00,+16.00,-1.00,-2.00,-5.00,-7.00,+4.00,-1.00
+3.00,-15.00,-7.00,-5.00,+0.00,+0.00,+5.00,-17.00,-22.00,-22.00,-1.00,+0.00,-2.00,-5.00,-3.00,-2.00
-5.00,+3.00,+3.00,-1.00,+1.00,-1.00,-4.00,-14.00,-10.00,-6.00,-1.00,+0.00,-2.00,+1.00,-6.00,-8.00
+28.00,+22.00,+7.00,+2.00,+2.00,+0.00,-1.00,-2.00,+0.00,-1.00,-4.00,-1.00,-1.00,+0.00,+3.00,-4.00
+1.00,+2.00,-1.00,+1.00,+1.00,-1.00,+0.00,+4.00,+13.00,+11.00,+5.00,+3.00,+2.00,+0.00,+9.00,+9.00
-20.00,-11.00,-7.00,-3.00,-1.00,+1.00,-3.00,-4.00,-6.00,+4.00,-2.00,-5.00,-4.00,-3.00,-10.00,-17.00
-5.00,-10.00,-3.00,-1.00,+0.00,+0.00,-5.00,+0.00,+3.00,-7.00,-6.00,-3.00,-2.00,-1.00,-7.00,-3.00
+4.00,-21.00,-6.00,-3.00,-2.00,+1.00,+3.00,-16.00,-11.00,+2.00,-4.00,-2.00,+1.00,+7.00,+7.00,+8.00
+5.00,-20.00,-9.00,-6.00,-3.00,-3.00,-3.00,-6.00,+14.00,-7.00,-5.00,-1.00,-2.00,+1.00,+6.00,+20.00
+50.00,+13.00,+9.00,+5.00,+5.00,+3.00,+7.00,+3.00,-59.00,-23.00,-1.00,-1.00,+2.00,-10.00,-5.00,-16.00
-10.00,+34.00,+10.00,+2.00,+2.00,+2.00,+1.00,+17.00,+17.00,+14.00,+4.00,+1.00,-3.00,-4.00,-1.00,+0.00
+14.00,+24.00,+7.00,+3.00,+1.00,+1.00,+5.00,+18.00,-2.00,-5.00,-4.00,-2.00,-2.00,-1.00,-3.00,-7.00
-12.00,-11.00,-5.00,-2.00,+1.00,-4.00,-4.00,-6.00,-19.00,-6.00,+0.00,+0.00,+2.00,+1.00,+0.00,-4.00
-13.00,-19.00,-7.00,-5.00,-7.00,+0.00,-2.00,+15.00,+33.00,+5.00,-3.00,-6.00,-5.00,-24.00,-2.00,+10.00
-15.00,-23.00,-8.00,-2.00,+1.00,-8.00,-3.00,-14.00,-10.00,-5.00,-4.00,+5.00,+21.00,+24.00,-9.00,-7.00
-5.00,+5.00,+3.00,+2.00,-12.00,-12.00,-26.00,-6.00,+7.00,+5.00,+1.00,-9.00,-26.00,-7.00,-1.00,-1.00
-6.00,+3.00,+6.00,+3.00,+5.00,+5.00,-3.00,-13.00,-6.00,-11.00,-5.00,-7.00,-10.00,+12.00,+3.00,+8.00
-16.00,-12.00,-5.00,-1.00,+14.00,+6.00,-5.00,+0.00,+5.00,+9.00,+3.00,+0.00,-3.00,+8.00,-1.00,-2.00
+15.00,+10.00,+0.00,+1.00,+3.00,+7.00,+4.00,+3.00,-8.00,-5.00,-2.00,-1.00,-9.00,-8.00,-2.00,-6.00
-22.00,-12.00,-5.00,-5.00,-4.00,-10.00,-4.00,+0.00,+4.00,-1.00,+0.00,+2.00,+12.00,+7.00,-1.00,+6.00
+10.00,-5.00,-1.00,+0.00,-5.00,+3.00,-2.00,-26.00,-13.00,-2.00,+0.00,-2.00,+1.00,-4.00,-1.00,-15.00
-22.00,-5.00,-3.00,-1.00,-4.00,-3.00,+2.00,-5.00,+13.00,-3.00,-1.00,-1.00,-2.00,-4.00,-1.00,+0.00
+11.00,+2.00,-2.00,-1.00,-1.00,-2.00,-6.00,-20.00,-7.00,+1.00,+4.00,+2.00,+1.00,+5.00,+1.00,-13.00
+10.00,-12.00,-4.00,+0.00,+3.00,-2.00,+2.00,-25.00,-10.00,-5.00,-2.00,-1.00,+3.00,+1.00,-10.00,+9.00
-63.00,+29.00,+9.00,+2.00,-5.00,-8.00,-6.00,+16.00,+5.00,-5.00,-3.00,-3.00,-5.00,-10.00,+2.00,+16.00
+7.00,+23.00,+6.00,+0.00,-1.00,-2.00,+4.00,+8.00,-9.00,+3.00,-3.00,-1.00,+4.00,+3.00,-4.00,-9.00
+3.00,-4.00,+1.00,-1.00,-1.00,+0.00,+1.00,+9.00,+23.00,+12.00,+2.00,-2.00,-5.00,-9.00,-4.00,+1.00
-22.00,-18.00,-8.00,-1.00,+2.00,+2.00,+0.00,-9.00,-20.00,-5.00,+2.00,-1.00,-1.00,-3.00,+4.00,-2.00
+12.00,-8.00,-4.00,-2.00,-2.00,-2.00,+5.00,+2.00,+18.00,-2.00,+3.00,+3.00,+2.00,+1.00,-2.00,-5.00
-23.00,+0.00,+0.00,+1.00,+1.00,+0.00,-5.00,-13.00,+12.00,+8.00,-2.00,+0.00,+3.00,+0.00,-1.00,+4.00
+1.00,-1.00,-2.00,-1.00,-3.00,-1.00,+4.00,+4.00,-6.00,-5.00,-7.00,-5.00,-10.00,-27.00,-10.00,+9.00
-11.00,-2.00,-1.00,-1.00,-1.00,+6.00,+0.00,+11.00,+15.00,+18.00,+1.00,-2.00,-2.00,+10.00,+6.00,-11.00
-1.00,-27.00,-11.00,-1.00,+4.00,+0.00,-2.00,+1.00,-24.00,-28.00,-3.00,+8.00,+7.00,-5.00,+0.00,-2.00
-20.00,-21.00,-4.00,-3.00,-8.00,-11.00,+4.00,-23.00,+2.00,+3.00,+4.00,+6.00,+14.00,+25.00,+3.00,+2.00
+36.00,+47.00,+15.00,+2.00,-16.00,-7.00,-12.00,+5.00,-6.00,-11.00,-6.00,-11.00,-18.00,-15.00,-1.00,-2.00
+8.00,+14.00,+5.00,+8.00,+35.00,+27.00,+10.00,+4.00,-5.00,-2.00,-5.00,-1.00,+0.00,-2.00,-3.00,-12.00
+7.00,-6.00,-5.00,-4.00,-1.00,+1.00,-2.00,-3.00,+4.00,+10.00,+4.00,-5.00,-5.00,-8.00,-2.00,+3.00
+4.00,-2.00,+2.00,+2.00,+3.00,+2.00,+1.00,-13.00,-1.00,+4.00,-5.00,+0.00,+2.00,-8.00,-2.00,-3.00
-31.00,-42.00,-18.00,-8.00,-5.00,-5.00,-3.00,-11.00,+0.00,+4.00,+7.00,+7.00,+8.00,+10.00,+5.00,+7.00
+19.00,+16.00,+10.00,+1.00,-7.00,-4.00,+2.00,+12.00,+8.00,+5.00,+1.00,-1.00,+0.00,-7.00,-2.00,+2.00
+36.00,+54.00,+13.00,+5.00,+0.00,+1.00,+5.00,+7.00,-13.00,-10.00,-3.00,+0.00,+0.00,+1.00,-4.00,-7.00
-31.00,-22.00,-13.00,-5.00,-4.00,-4.00,-7.00,-1.00,-4.00,+7.00,-2.00,-2.00,-6.00,-2.00,-3.00,-1.00
+3.00,+16.00,+1.00,-3.00,+1.00,-1.00,+0.00,-5.00,-11.00,-3.00,+0.00,-2.00,+0.00,+5.00,-2.00,+0.00
+26.00,-2.00,+16.00,+8.00,+1.00,+0.00,+6.00,+3.00,-3.00,+2.00,-2.00,-3.00,-4.00,-2.00,-3.00,-8.00
-60.00,-32.00,-9.00,-4.00,-4.00,-7.00,-5.00,+6.00,-13.00,-3.00,-1.00,-1.00,-1.00,-5.00,-2.00,-9.00
+2.00,+19.00,+0.00,-3.00,-7.00,-5.00,-2.00,+6.00,-15.00,-22.00,-10.00,-7.00,-5.00,-4.00,-7.00,-11.00
+17.00,+14.00,+1.00,+2.00,+6.00,+4.00,+4.00,+11.00,+35.00,+15.00,+1.00,+2.00,+4.00,+3.00,+5.00,+16.00
-34.00,-47.00,-19.00,-11.00,-10.00,-4.00,-3.00,-20.00,-22.00,-9.00,+5.00,+7.00,+7.00,-2.00,+2.00,-3.00
+47.00,+71.00,+30.00,+10.00,+7.00,+2.00,+8.00,+15.00,+49.00,+38.00,+7.00,+3.00,-4.00,+17.00,+8.00,+16.00
-12.00,-10.00,-8.00,-3.00,-2.00,-6.00,-3.00,-5.00,-11.00,-8.00,+0.00,-4.00,-4.00,-10.00,-8.00,-3.00
-18.00,-17.00,-2.00,+2.00,+0.00,-2.00,-8.00,+9.00,-10.00,-39.00,-12.00,-2.00,+4.00,-7.00,-3.00,-4.00
-3.00,+15.00,-7.00,-7.00,-6.00,-4.00,+6.00,-7.00,+5.00,+22.00,+3.00,-3.00,-3.00,-1.00,-3.00,-1.00
-6.00,-58.00,-21.00,-7.00,-8.00,-2.00,+5.00,+3.00,-4.00,-13.00,-12.00,-8.00,-4.00,-6.00,-10.00,-28.00
-32.00,-22.00,-15.00,-6.00,-1.00,+3.00,-6.00,-12.00,+41.00,+50.00,+16.00,+5.00,-1.00,+9.00,+13.00,+30.00
+11.00,-20.00,+2.00,+2.00,+7.00,+3.00,+5.00,-11.00,-9.00,-10.00,+2.00,+3.00,+2.00,-17.00,+0.00,-5.00
+13.00,+36.00,+4.00,-3.00,-11.00,-10.00,-4.00,+14.00,-13.00,-20.00,-2.00,-1.00,-1.00,+16.00,-2.00,-2.00
+10.00,+20.00,+2.00,+0.00,-1.00,-4.00,-12.00,+1.00,-24.00,-23.00,-6.00,+0.00,+6.00,-2.00,+1.00,-8.00
+15.00,+18.00,+11.00,+5.00,+3.00,+0.00,+5.00,+7.00,-1.00,-12.00,-3.00,-7.00,-17.00,-3.00,-11.00,-8.00
-2.00,-2.00,-3.00,-2.00,-3.00,+10.00,+0.00,+6.00,-22.00,+20.00,-11.00,-12.00,-8.00,-16.00,-14.00,-21.00
-47.00,-63.00,-31.00,-12.00,-2.00,-3.00,-1.00,-4.00,+43.00,-14.00,+0.00,+4.00,+3.00,-1.00,+7.00,+22.00
-6.00,-33.00,-14.00,-7.00,-10.00,-8.00,-1.00,-9.00,-5.00,+20.00,+9.00,+1.00,+3.00,-3.00,+5.00,+8.00
+44.00,+78.00,+34.00,+11.00,+9.00,+9.00,+4.00,+15.00,-8.00,-10.00,-1.00,+3.00,+3.00,-19.00,+2.00,+1.00
+24.00,+49.00,+19.00,+5.00,+3.00,-8.00,-16.00,+12.00,-16.00,+2.00,+1.00,-1.00,-1.00,+2.00,-12.00,-7.00
-8.00,-17.00,-1.00,+1.00,-1.00,+1.00,+14.00,+4.00,-10.00,-3.00,-5.00,-5.00,-4.00,-1.00,-3.00,-8.00
-11.00,-24.00,-14.00,-4.00,+0.00,-1.00,-7.00,-8.00,+31.00,+16.00,+0.00,-1.00,-2.00,-4.00,-7.00,-4.00
-22.00,-46.00,-20.00,-8.00,-8.00,-5.00,-6.00,-10.00,-27.00,-36.00,+0.00,+4.00,+4.00,-4.00,+7.00,-5.00
-35.00,-44.00,-15.00,-7.00,-7.00,-3.00,-1.00,-10.00,+0.00,+3.00,-2.00,-2.00,-7.00,+16.00,+12.00,+5.00
+11.00,+15.00,+6.00,+4.00,+2.00,+1.00,-4.00,-10.00,+5.00,-5.00,+1.00,+8.00,+16.00,-4.00,-5.00,+1.00
+75.00,+98.00,+57.00,+18.00,+3.00,+0.00,+10.00,+18.00,-14.00,+9.00,+1.00,-6.00,-19.00,-29.00,-3.00,-12.00
+5.00,-3.00,-2.00,-1.00,-5.00,+5.00,+13.00,+15.00,+61.00,+38.00,+0.00,-10.00,-5.00,+33.00,-7.00,-16.00
-46.00,-72.00,-26.00,-5.00,+11.00,+9.00,-15.00,-24.00,-44.00,-25.00,-8.00,+1.00,+2.00,+3.00,-7.00,-23.00
-62.00,-33.00,-37.00,-15.00,-7.00,-10.00,-17.00,-14.00,+8.00,-16.00,-1.00,+2.00,+1.00,-8.00,+2.00,+8.00
-60.00,-46.00,-4.00,+0.00,-4.00,+2.00,+1.00,-8.00,+2.00,+10.00,+11.00,+13.00,+17.00,+30.00,+14.00,+19.00
+74.00,+92.00,+47.00,+14.00,-3.00,-10.00,+7.00,+25.00,-2.00,+9.00,-1.00,-3.00,-6.00,+2.00,-3.00,-5.00
+14.00,+11.00,+7.00,+0.00,+5.00,+19.00,+22.00,+13.00,+18.00,+9.00,-6.00,-11.00,-15.00,+9.00,+1.00,-5.00
+16.00,+26.00,+6.00,+2.00,+6.00,-5.00,-15.00,-19.00,-15.00,+4.00,+4.00,-3.00,-7.00,-2.00,-1.00,-1.00
-21.00,-39.00,-20.00,-6.00,+7.00,+8.00,+6.00,-13.00,-28.00,-50.00,-15.00,-4.00,-2.00,-1.00,-5.00,-15.00
-49.00,-76.00,-29.00,-14.00,-9.00,-2.00,-13.00,-18.00,+11.00,+18.00,+9.00,+7.00,+11.00,+9.00,+6.00,+11.00
+22.00,+22.00,+18.00,+4.00,-12.00,-20.00,+5.00,+10.00,+11.00,-34.00,-8.00,-5.00,+1.00,-5.00,-9.00,-6.00
+25.00,+10.00,+14.00,+8.00,+14.00,+13.00,+15.00,+10.00,-45.00,-13.00,-5.00,-1.00,+0.00,-1.00,+0.00,+6.00
-13.00,-13.00,-25.00,-14.00,-14.00,-11.00,-12.00,-13.00,+26.00,+35.00,+10.00,+6.00,-1.00,-18.00,+2.00,+12.00
+32.00,+21.00,+10.00,+5.00,+6.00,-5.00,+2.00,+2.00,-3.00,-22.00,-5.00,-1.00,-10.00,+21.00,+5.00,+5.00
+6.00,+27.00,+10.00,+1.00,-4.00,+1.00,-6.00,+12.00,+37.00,+49.00,+13.00,+1.00,+3.00,+0.00,+7.00,+42.00
-38.00,-25.00,-14.00,-5.00,+3.00,+1.00,+11.00,-13.00,-3.00,-4.00,-7.00,-7.00,-9.00,-14.00,-5.00,-8.00
+35.00,-4.00,+3.00,-1.00,-3.00,+3.00,+0.00,+13.00,-42.00,-68.00,-11.00,-4.00,+2.00,-2.00,-5.00,-30.00
-38.00,-49.00,-35.00,-11.00,+0.00,+1.00,-2.00,-15.00,-24.00,-17.00,-17.00,-6.00,-2.00,-14.00,-6.00,-9.00
-50.00,-74.00,-31.00,-11.00,-14.00,-13.00,-17.00,-23.00,+0.00,+9.00,+24.00,+16.00,+10.00,+11.00,+11.00,+22.00
+92.00,+121.00,+67.00,+26.00,+12.00,+9.00,+12.00,+60.00,+65.00,+44.00,+2.00,+13.00,+12.00,+7.00,+0.00,+9.00
+32.00,+31.00,+7.00,+2.00,-1.00,+1.00,+6.00,-4.00,-11.00,-3.00,+0.00,-1.00,+11.00,+15.00,-3.00,+0.00
-33.00,-29.00,-13.00,-10.00,-38.00,-25.00,-15.00,+23.00,-11.00,-22.00,-2.00,-11.00,-18.00,-24.00,-4.00,+2.00
-2.00,+8.00,-10.00,+0.00,+43.00,+29.00,+5.00,-11.00,-12.00,+22.00,-3.00,-6.00,-2.00,-2.00,-3.00,-12.00
-73.00,-121.00,-37.00,-13.00,-4.00,-2.00,-13.00,-33.00,-16.00,-40.00,+0.00,+1.00,+8.00,+1.00,+9.00,+8.00
+36.00,+48.00,+14.00,+4.00,+12.00,+5.00,+7.00,+9.00,+22.00,+31.00,+8.00,+9.00,+6.00,-27.00,-5.00,+9.00
+50.00,+81.00,+41.00,+9.00,-4.00,-4.00,-5.00,+15.00,-5.00,+12.00,+2.00,-1.00,+9.00,+15.00,-4.00,-6.00
-8.00,-26.00,-12.00,-8.00,-17.00,-9.00,+7.00,+6.00,+20.00,+11.00,+1.00,+2.00,+3.00,+0.00,-2.00,+16.00
-24.00,+0.00,-13.00,-6.00,+1.00,+4.00,-16.00,-11.00,+1.00,+4.00,-4.00,-4.00,-8.00,-5.00,-8.00,-35.00
-33.00,-46.00,-21.00,-8.00,-4.00,-5.00,-9.00,-7.00,+12.00,-37.00,+2.00,+4.00,+4.00,+3.00,+8.00,+15.00
+26.00,+4.00,+10.00,+0.00,+2.00,-4.00,-2.00,-6.00,+35.00,+65.00,+5.00,+4.00,+4.00,-14.00,+4.00,+16.00
-39.00,-80.00,-19.00,-6.00,-20.00,-22.00,-6.00,-7.00,-35.00,-46.00,-14.00,-8.00,-15.00,-14.00,+4.00,-7.00
+41.00,+14.00,+29.00,+9.00,+5.00,+7.00,-1.00,+17.00,+9.00,+33.00,+10.00,+1.00,-4.00,+5.00,-5.00,+25.00
+77.00,+88.00,+45.00,+20.00,+10.00,+9.00,+6.00,+45.00,-46.00,-13.00,-19.00,-17.00,-17.00,-5.00,-9.00,-6.00
-88.00,-92.00,-57.00,-16.00,+3.00,+2.00,-11.00,-43.00,-49.00,-46.00,-9.00,+2.00,+2.00,-7.00,-4.00,-18.00
+47.00,+114.00,+35.00,+9.00,+5.00,+1.00,+6.00,-5.00,-26.00,-21.00,-11.00,+0.00,-5.00,-45.00,-4.00,-28.00
+23.00,-3.00,+0.00,+1.00,-11.00,-13.00,-9.00,-9.00,+39.00,+24.00,+22.00,+21.00,+46.00,+61.00,+25.00,+34.00
-13.00,+37.00,+15.00,-2.00,-32.00,-33.00,+2.00,+19.00,+10.00,+17.00,-2.00,-21.00,-37.00,-13.00,-4.00,-5.00
+26.00,+36.00,+19.00,+11.00,+32.00,+38.00,+45.00,+23.00,-34.00,-53.00,-4.00,-2.00,+9.00,+11.00,+4.00,+7.00
+47.00,+99.00,+37.00,+10.00,+8.00,+5.00,-13.00,+25.00,+14.00,+42.00,-7.00,-17.00,-39.00,+7.00,-2.00,-25.00
-35.00,-50.00,-29.00,-10.00,-9.00,-8.00,+5.00,-24.00,+4.00,-12.00,-1.00,+0.00,+1.00,-15.00,+1.00,+15.00
-116.00,-128.00,-100.00,-33.00,-5.00,+6.00,-5.00,-61.00,+12.00,+52.00,+13.00,+0.00,+11.00,+24.00,-2.00,+11.00
+69.00,+14.00,+59.00,+27.00,+21.00,+18.00,+13.00,+38.00,-9.00,+1.00,+22.00,+5.00,+2.00,+3.00,+3.00,-11.00
-13.00,-22.00,-20.00,-7.00,-7.00,-12.00,+2.00,-20.00,+59.00,-5.00,-10.00,+9.00,+10.00,-2.00,+17.00,+15.00
-14.00,-32.00,-12.00,-9.00,-11.00,-9.00,-12.00,+16.00,-33.00,-47.00,-22.00,+6.00,+38.00,-25.00,+8.00,-14.00
-1.00,-25.00,+16.00,-6.00,-53.00,-73.00,-28.00,-3.00,+25.00,+43.00,+4.00,-24.00,-59.00,+2.00,-8.00,+9.00
+38.00,+100.00,+31.00,+15.00,+21.00,+51.00,+29.00,+9.00,+5.00,+12.00,-7.00,-10.00,-12.00,-19.00,-5.00,-3.00
-14.00,-57.00,-23.00,+0.00,+27.00,+24.00,+15.00,-3.00,-24.00,+0.00,+6.00,-1.00,+7.00,+17.00,-4.00,-15.00
-62.00,-48.00,-41.00,-16.00,-12.00,-10.00,-17.00,-31.00,+2.00,+10.00,-1.00,-5.00,-18.00,-28.00,-9.00,-12.00
+47.00,+32.00,+32.00,+16.00,+28.00,+28.00,+17.00,+20.00,-28.00,-35.00,-14.00,+12.00,+34.00,-14.00,-5.00,-20.00
-64.00,-52.00,-40.00,-20.00,-35.00,-44.00,-32.00,-33.00,+43.00,+17.00,+12.00,+10.00,+15.00,+46.00,+1.00,+24.00
-25.00,-68.00,-19.00,-12.00,-37.00,-40.00,-36.00,-14.00,+18.00,-26.00,+3.00,-1.00,-8.00,+1.00,-20.00,+2.00
+9.00,+62.00,+38.00,+15.00,+27.00,+40.00,+41.00,+19.00,-2.00,+15.00,-6.00,-9.00,-20.00,+8.00,-10.00,-12.00
+22.00,+52.00,+20.00,+3.00,+13.00,+12.00,-1.00,-14.00,-21.00,-78.00,-14.00,+0.00,+3.00,-13.00,-11.00,+4.00
-94.00,-103.00,-55.00,-22.00,-12.00,-20.00,-25.00,-46.00,-24.00,+14.00,-2.00,-2.00,-9.00,-32.00,-15.00,-51.00
-18.00,-22.00,-20.00,-1.00,+1.00,+6.00,-1.00,-2.00,+20.00,+14.00,+27.00,+23.00,+30.00,+41.00,+8.00,+32.00
+77.00,+33.00,+33.00,+12.00,-4.00,-9.00,-2.00,+41.00,+38.00,+17.00,+4.00,-6.00,-16.00,-8.00,-3.00,+6.00
-7.00,-37.00,-22.00,-8.00,-4.00,-1.00,-25.00,-3.00,-28.00,-4.00,-16.00,-9.00,+4.00,+18.00,-20.00,-10.00
+6.00,-70.00,-15.00,-2.00,+2.00,+5.00,+20.00,+10.00,-29.00,-43.00,-10.00,+3.00,+2.00,-30.00,-14.00,-9.00
-33.00,-17.00,-16.00,-10.00,-10.00,-6.00,+2.00,-10.00,-22.00,+1.00,+10.00,+9.00,+2.00,+4.00,-3.00,+0.00
+15.00,+35.00,+12.00,+4.00,-11.00,-22.00,-19.00,-1.00,-75.00,-28.00,-28.00,-27.00,-18.00,-12.00,-23.00,-49.00
-20.00,-16.00,-5.00,+1.00,-1.00,+17.00,+14.00,-4.00,-10.00,-71.00,+2.00,+12.00,+25.00,-49.00,+7.00,+18.00
+83.00,+76.00,+56.00,+17.00,+9.00,-14.00,-14.00,+11.00,+22.00,+51.00,-5.00,-19.00,-52.00,+9.00,-7.00,-1.00
-20.00,-24.00,-15.00,-9.00,-1.00,+23.00,+10.00,-18.00,+37.00,+69.00,+14.00,+4.00,+11.00,+22.00,+4.00,+13.00
+101.00,+121.00,+73.00,+29.00,+51.00,+54.00,+44.00,+53.00,-19.00,+15.00,-4.00,-10.00,-19.00,+14.00,-6.00,-18.00
-18.00,-60.00,-15.00,-2.00,+6.00,+9.00,-2.00,-4.00,+26.00,+4.00,-6.00,+1.00,+11.00,+8.00,+5.00,-4.00
-35.00,-26.00,-27.00,-14.00,-9.00,-8.00,-12.00,-27.00,-3.00,-8.00,+7.00,+7.00,+18.00,-14.00,+2.00,+16.00
+20.00,-12.00,+28.00,+9.00,-13.00,-12.00,+14.00,+8.00,-43.00,+13.00,-16.00,-10.00,-10.00,-16.00,-11.00,-24.00
+38.00,+38.00,+29.00,+5.00,-8.00,-13.00,-10.00,-16.00,+16.00,+5.00,+13.00,+8.00,+8.00,+3.00,+4.00,+12.00
-16.00,-44.00,-9.00,-2.00,+9.00,+7.00,+6.00,+5.00,-28.00,-18.00,-12.00,-1.00,+4.00,-5.00,-5.00,-17.00
-36.00,-62.00,-25.00,-13.00,-17.00,-21.00,-15.00,-17.00,+3.00,+4.00,+2.00,-2.00,-5.00,-23.00,+2.00,+14.00
+106.00,+97.00,+80.00,+27.00,+21.00,+13.00,+20.00,+52.00,+17.00,+78.00,+7.00,+3.00,+10.00,+41.00,+17.00,+20.00
-72.00,-89.00,-84.00,-30.00,-22.00,-19.00,-22.00,-59.00,+16.00,-17.00,-6.00,-4.00,-3.00,-13.00,-6.00,-6.00
+26.00,+33.00,+46.00,+19.00,+9.00,+3.00,+9.00,+38.00,+31.00,+103.00,+1.00,-15.00,-25.00,-48.00,-12.00,-22.00
+12.00,-15.00,+17.00,+10.00,+17.00,+29.00,+23.00,+20.00,+21.00,-94.00,+5.00,+23.00,+18.00,+46.00,+24.00,+35.00
-34.00,-29.00,-66.00,-38.00,-28.00,-45.00,-93.00,-49.00,-29.00,-70.00,-28.00,-11.00,+4.00,-2.00,-9.00,-23.00
-25.00,-87.00,+4.00,+2.00,-26.00,-23.00,+41.00,+12.00,+1.00,+29.00,+0.00,-23.00,-28.00,-12.00,-2.00,-1.00
-70.00,-81.00,-60.00,-18.00,+33.00,+58.00,-11.00,-47.00,+39.00,-33.00,+32.00,+28.00,+14.00,+28.00,+26.00,+37.00
+65.00,+107.00,+42.00,+22.00,+22.00,+19.00,+14.00,+36.00,-24.00,+56.00,-19.00,-20.00,-9.00,-28.00,-21.00,-45.00
-57.00,-77.00,-37.00,-7.00,+4.00,+12.00,+5.00,-4.00,+38.00,-15.00,-5.00,+3.00,+12.00,-11.00,+6.00,+21.00
+20.00,+46.00,-22.00,-13.00,-16.00,-25.00,-30.00,-2.00,-33.00,-21.00,+0.00,+9.00,+5.00,-4.00,-6.00,-26.00
-22.00,+46.00,+17.00,-6.00,-20.00,-28.00,-12.00,-16.00,+35.00,+92.00,+2.00,-10.00,-17.00,+14.00,-3.00,+1.00
+51.00,-5.00,+28.00,+12.00,+5.00,+5.00,+4.00,+28.00,-76.00,-124.00,-25.00,-4.00,+4.00,-7.00,-6.00,-22.00
+89.00,+107.00,+84.00,+29.00,+23.00,+17.00,+30.00,+48.00,+1.00,+58.00,+8.00,-4.00,-9.00,-26.00,-9.00,-13.00
-128.00,-128.00,-93.00,-28.00,-23.00,-19.00,-30.00,-56.00,-12.00,-33.00,-5.00,-6.00,-12.00,+8.00,+1.00,+8.00
+95.00,+98.00,+99.00,+39.00,+19.00,+12.00,+24.00,+74.00,+25.00,+25.00,-7.00,-1.00,+4.00,+37.00,+11.00,-12.00
-106.00,-116.00,-85.00,-31.00,-17.00,-17.00,-36.00,-43.00,-16.00,+9.00,+10.00,+6.00,+15.00,+15.00,+10.00,+17.00
+44.00,+55.00,+51.00,+22.00,+6.00,+2.00,+22.00,+35.00,-84.00,-120.00,-35.00,-17.00,-18.00,-29.00,-25.00,-55.00
+36.00,+47.00,+52.00,+11.00,+15.00,+22.00,+20.00,+25.00,+87.00,+70.00,+23.00,+14.00,+10.00,+4.00,+13.00,+42.00
-80.00,-123.00,-79.00,-24.00,-16.00,-21.00,-22.00,-63.00,-4.00,+14.00,+14.00,+8.00,+3.00,-3.00,+5.00,+19.00
+88.00,+109.00,+95.00,+34.00,+9.00,+3.00,+19.00,+60.00,-26.00,-4.00,-30.00,-24.00,-16.00,-14.00,-18.00,-41.00
-72.00,-93.00,-48.00,-15.00,-4.00,+0.00,-11.00,-34.00,-6.00,-33.00,+13.00,+0.00,-5.00,+6.00,+9.00,+11.00
+37.00,+38.00,+19.00,+6.00,+12.00,+7.00,+1.00,+5.00,+5.00,-11.00,-19.00,-18.00,-10.00,-18.00,-19.00,-21.00
-37.00,-49.00,-14.00,-5.00,-8.00,-8.00,-5.00,-7.00,-31.00,-78.00,+18.00,+19.00,+12.00,-14.00,+12.00,+6.00
-27.00,-3.00,-37.00,-32.00,-24.00,-25.00,-21.00,-38.00,+39.00,+56.00,+18.00,+17.00,+20.00,+51.00,+18.00,+30.00
-4.00,-45.00,+2.00,+9.00,-1.00,-15.00,+21.00,+14.00,+21.00,+14.00,-2.00,-11.00,-17.00,-16.00,-12.00,-3.00
+9.00,+59.00,+44.00,+14.00,+6.00,+28.00,+3.00,+17.00,+5.00,-6.00,+3.00,+6.00,+3.00,+1.00,-1.00,+2.00
-2.00,-34.00,-16.00,-2.00,+14.00,+12.00,+9.00,-2.00,+24.00,+75.00,+2.00,-3.00,-3.00,-3.00,-2.00,-7.00
-65.00,-110.00,-67.00,-20.00,-13.00,-9.00,-16.00,-27.00,+20.00,+32.00,+16.00,+1.00,-4.00,-14.00,+1.00,+16.00
+2.00,+52.00,+5.00,-5.00,-6.00,+3.00,+0.00,-10.00,-10.00,+21.00,+5.00,+6.00,+16.00,+21.00,+5.00,+5.00
-69.00,-52.00,-81.00,-37.00,-27.00,-39.00,-36.00,-45.00,-2.00,-16.00,-10.00,+1.00,+1.00,+9.00,+10.00,+37.00
+83.00,+41.00,+60.00,+22.00,+4.00,+1.00,+18.00,+34.00,-39.00,-48.00,-34.00,-23.00,-17.00,-4.00,-18.00,-35.00
-57.00,-84.00,-55.00,-11.00,-3.00,+4.00,-6.00,-38.00,+56.00,+41.00,+25.00,+18.00,+10.00,-10.00,+12.00,+32.00
+41.00,+26.00,+49.00,+24.00,+18.00,+7.00,+20.00,+23.00,-50.00,+36.00,-11.00,-17.00,-13.00,-9.00,-21.00,-56.00
+4.00,-11.00,+3.00,+3.00,+0.00,-5.00,-1.00,+12.00,-6.00,-11.00,+2.00,+2.00,+5.00,+4.00,+21.00,+54.00
-65.00,-2.00,-78.00,-36.00,-27.00,-15.00,-22.00,-26.00,-5.00,-2.00,+21.00,+11.00,+6.00,+13.00,+8.00,+14.00
+103.00,+60.00,+118.00,+58.00,+47.00,+39.00,+46.00,+78.00,-6.00,+6.00,-10.00,-9.00,-9.00,-14.00,-13.00,-3.00
+6.00,-26.00,+12.00,+5.00,+1.00,+7.00,+10.00,+11.00,+29.00,-84.00,-15.00,-5.00,-6.00,-10.00,-4.00,+11.00
-30.00,-54.00,-11.00,-5.00,-2.00,-1.00,-4.00,-5.00,-128.00,-54.00,-31.00,-23.00,-14.00,-19.00,-31.00,-83.00
-67.00,-86.00,-57.00,-17.00,-12.00,-17.00,-20.00,-52.00,+66.00,+56.00,+25.00,+17.00,+11.00,+15.00,+13.00,+17.00
+28.00,+80.00,-9.00,-18.00,-19.00,-19.00,-12.00,+0.00,+4.00,-78.00,+1.00,+8.00,+1.00,-8.00,+10.00,+35.00
-1.00,+34.00,+0.00,+4.00,+4.00,+8.00,+3.00,+1.00,+76.00,+59.00,+16.00,+7.00,+4.00,+22.00,+9.00,+29.00
+10.00,-56.00,-17.00,-2.00,+3.00,+1.00,-5.00,+20.00,-33.00,+57.00,+1.00,+3.00,+5.00,+1.00,+1.00,-16.00
-8.00,-33.00,-12.00,-6.00,-6.00,-10.00,+0.00,-8.00,-37.00,-21.00,-14.00,-10.00,-7.00,+7.00,-7.00,-18.00
+35.00,+40.00,+24.00,+4.00,+1.00,+1.00,+3.00,+4.00,+1.00,-13.00,-25.00,-17.00,-13.00,-22.00,-16.00,-56.00
-85.00,-114.00,-73.00,-27.00,-17.00,-16.00,-12.00,-45.00,+81.00,+24.00,+24.00,+18.00,+13.00,+2.00,+25.00,+98.00
+17.00,+30.00,+25.00,+15.00,+16.00,+18.00,+2.00,+24.00,+6.00,-5.00,+3.00,+11.00,+8.00,+6.00,+5.00,-7.00
-81.00,-109.00,-75.00,-25.00,-18.00,-13.00,-1.00,-42.00,-20.00,-35.00,-5.00,+1.00,-5.00,+0.00,-2.00,+17.00
+8.00,-12.00,+48.00,+32.00,+25.00,+27.00,+27.00,+64.00,+21.00,+72.00,-6.00,-16.00,-9.00,-5.00,-8.00,-5.00
-47.00,-54.00,-40.00,-17.00,-14.00,+0.00,-7.00,-2.00,-102.00,-118.00,-23.00,-7.00,-2.00,-11.00,-8.00,-36.00
-106.00,-112.00,-47.00,-12.00,-5.00,-13.00,-12.00,-43.00,+103.00,+99.00,+31.00,+13.00,+8.00,+6.00,+17.00,+44.00
-40.00,-43.00,-42.00,-24.00,-18.00,-20.00,-20.00,-8.00,-21.00,+29.00,-7.00,-5.00,-8.00,-16.00,-2.00,-16.00
+62.00,+50.00,+57.00,+21.00,+14.00,+15.00,+19.00,+27.00,-79.00,-98.00,-23.00,-6.00,-2.00,+1.00,-8.00,-32.00
-19.00,-21.00,-14.00,-10.00,-10.00,-11.00,-24.00,-21.00,+24.00,+54.00,+14.00,+3.00,+1.00,-2.00,-1.00,+28.00
+26.00,+29.00,-2.00,+3.00,+3.00,+3.00,+6.00,+9.00,-54.00,+36.00,+2.00,-10.00,-15.00,-30.00,-21.00,-23.00
+36.00,+66.00,+49.00,+20.00,+9.00,+7.00,+5.00,+11.00,-92.00,-68.00,-17.00,-10.00,-3.00,+14.00,-11.00,-32.00
+21.00,+31.00,+24.00,+4.00,+2.00,-2.00,+1.00,+19.00,+77.00,+46.00,+18.00,+7.00,+3.00,+10.00,+8.00,+34.00
+24.00,-1.00,+8.00,+2.00,+2.00,+1.00,-1.00,+23.00,+70.00,+46.00,+18.00,+19.00,+15.00,+18.00,+32.00,+58.00
-8.00,+36.00,-16.00,-15.00,-12.00,-7.00,-6.00,-12.00,+4.00,-2.00,+2.00,+1.00,-4.00,+0.00,-4.00,-6.00
+42.00,+44.00,+63.00,+27.00,+18.00,+10.00,+13.00,+37.00,-51.00,-38.00,-24.00,-17.00,-7.00,-15.00,-24.00,-48.00
-89.00,-97.00,-80.00,-31.00,-20.00,-15.00,-24.00,-53.00,+44.00,+53.00,+9.00,+0.00,-3.00,+2.00,+6.00,-3.00
-101.00,-92.00,-55.00,-15.00,-7.00,-14.00,-16.00,-61.00,-47.00,-32.00,-15.00,-9.00,-8.00,-33.00,-21.00,-28.00
+40.00,+55.00,+70.00,+22.00,+14.00,+10.00,+12.00,+39.00,+17.00,-51.00,-1.00,+3.00,+7.00,+25.00,+9.00,+13.00
+54.00,+13.00,+35.00,+21.00,+15.00,+19.00,+15.00,+10.00,-60.00,-15.00,-7.00,-10.00,-10.00,-24.00,-11.00,+2.00
-114.00,-122.00,-56.00,-17.00,-9.00,-12.00,-2.00,-23.00,-17.00,-93.00,-15.00,+4.00,+13.00,+52.00,+16.00,-2.00
-34.00,-69.00,-53.00,-21.00,-14.00,-8.00,-14.00,-26.00,+6.00,+26.00,+10.00,+6.00,+4.00,-8.00,+3.00,+0.00
+20.00,-32.00,+6.00,+6.00,+3.00,+1.00,+11.00,+8.00,-23.00,-25.00,-1.00,+2.00,-2.00,-7.00,+3.00,-30.00
+16.00,-21.00,+9.00,+5.00,+1.00,+7.00,+20.00,+7.00,-27.00,+8.00,-20.00,-18.00,-10.00,-5.00,-21.00,-20.00
+51.00,+64.00,+10.00,+0.00,+1.00,+3.00,-6.00,-3.00,+25.00,+36.00,+15.00,+3.00,+1.00,-14.00,+0.00,+17.00
+66.00,+89.00,+26.00,+12.00,+14.00,+11.00,+19.00,+37.00,-22.00,+31.00,+9.00,+0.00,-3.00,-11.00,-5.00,-22.00
-2.00,-2.00,+2.00,+1.00,-1.00,+0.00,-4.00,-6.00,-95.00,-108.00,-25.00,-9.00,-2.00,+7.00,-9.00,-34.00
-37.00,-45.00,-27.00,-12.00,-13.00,-17.00,-13.00,-18.00,+92.00,+33.00,+7.00,+10.00,+8.00,+16.00,+16.00,+36.00
+37.00,+31.00,+7.00,+0.00,-4.00,-4.00,+2.00,-6.00,-12.00,+32.00,+5.00,-4.00,-20.00,-25.00,-11.00,-15.00
+25.00,+54.00,+40.00,+10.00,+3.00,+6.00,+6.00,+25.00,-38.00,-87.00,-15.00,-2.00,+10.00,+11.00,+4.00,-8.00
-42.00,-18.00,-27.00,-9.00,-4.00,-7.00,-6.00,-24.00,+84.00,+42.00,+12.00,+5.00,-2.00,+5.00,+10.00,+17.00
-86.00,-67.00,-70.00,-26.00,-15.00,-12.00,-28.00,-39.00,+62.00,+78.00,+8.00,+2.00,+2.00,+7.00,+3.00,+11.00
-5.00,+3.00,-10.00,+0.00,+5.00,+3.00,+1.00,+5.00,+17.00,+9.00,+24.00,+21.00,+10.00,+14.00,+24.00,+43.00
+1.00,-18.00,-48.00,-17.00,-11.00,-14.00,-22.00,-14.00,-22.00,-37.00,-30.00,-26.00,-22.00,-34.00,-37.00,-73.00
+54.00,+5.00,+50.00,+21.00,+9.00,+25.00,+45.00,+38.00,+89.00,+28.00,+7.00,+12.00,+13.00,+25.00,+19.00,+74.00
-34.00,-30.00,-68.00,-43.00,-30.00,-29.00,-37.00,-37.00,+24.00,-37.00,+16.00,+14.00,+11.00,+7.00,+8.00,+31.00
+32.00,-1.00,+43.00,+18.00,+13.00,+12.00,+20.00,+27.00,-88.00,-3.00,-16.00,-9.00,-1.00,-21.00,-8.00,-28.00
-85.00,-95.00,-58.00,-26.00,-29.00,-22.00,-26.00,-40.00,-60.00,-9.00,-15.00,-16.00,-11.00,+14.00,-10.00,-42.00
+72.00,+49.00,+39.00,+19.00,+21.00,+5.00,-1.00,+11.00,+55.00,+15.00,+3.00,+1.00,+4.00,+3.00,-8.00,+27.00
+79.00,+99.00,+33.00,+9.00,+9.00,+8.00,+11.00,+34.00,-94.00,-35.00,+1.00,+9.00,-11.00,+12.00,-6.00,-15.00
-76.00,-64.00,-5.00,+1.00,+2.00,+8.00,+4.00,-13.00,+55.00,+72.00,+6.00,+1.00,+24.00,-8.00,-9.00,+10.00
+116.00,+124.00,+117.00,+45.00,+17.00,+17.00,+23.00,+79.00,-93.00,-91.00,-35.00,-11.00,-8.00,+10.00,-13.00,-57.00
-115.00,-128.00,-79.00,-27.00,-12.00,-31.00,-37.00,-62.00,+7.00,+76.00,+6.00,-13.00,-19.00,-19.00,-11.00,+0.00
+61.00,+100.00,+67.00,+28.00,+27.00,+43.00,+43.00,+30.00,+18.00,+12.00,-7.00,-11.00,-1.00,-38.00,-6.00,-4.00
+21.00,-9.00,-31.00,-10.00,+19.00,+21.00,-15.00,-4.00,-24.00,-21.00,-20.00,-10.00,-8.00,+44.00,-3.00,-20.00
+57.00,+49.00,+67.00,+21.00,+22.00,+30.00,+38.00,+33.00,+83.00,+45.00,+37.00,+29.00,+24.00,+16.00,+32.00,+60.00
-59.00,-48.00,-83.00,-32.00,-26.00,-17.00,-28.00,-53.00,-6.00,-3.00,-4.00,+1.00,+7.00,+5.00,+4.00,+8.00
+80.00,+95.00,+111.00,+45.00,+22.00,+7.00,+17.00,+62.00,-9.00,-24.00,-6.00,-5.00,-4.00,-12.00,-12.00,-25.00
-96.00,-103.00,-69.00,-26.00,-31.00,-30.00,-14.00,-39.00,-21.00,+36.00,-14.00,-13.00,-9.00,-11.00,-18.00,-11.00
-75.00,-100.00,-68.00,-28.00,-19.00,-22.00,-20.00,-43.00,+47.00,+15.00,+19.00,+10.00,+6.00,+6.00,+8.00,+33.00
+87.00,+70.00,+84.00,+29.00,+13.00,+12.00,+20.00,+50.00,-4.00,-84.00,-5.00,+5.00,+2.00,+9.00,+11.00,+3.00
-110.00,-112.00,-68.00,-22.00,-16.00,-20.00,-27.00,-43.00,+127.00,+93.00,+29.00,+20.00,+13.00,+14.00,+36.00,+108.00
+35.00,+42.00,-16.00,-13.00,-19.00,-17.00,-15.00,-17.00,-57.00,-35.00,-34.00,-21.00,-18.00,-29.00,-25.00,-58.00
+31.00,-33.00,+2.00,+4.00,+7.00,+5.00,-2.00,+13.00,-13.00,+12.00,+6.00,-1.00,-5.00,+19.00,+4.00,+11.00
-10.00,-29.00,-11.00,-4.00,-3.00,+3.00,+7.00,+1.00,-34.00,-89.00,+0.00,+6.00,+5.00,-6.00,+1.00,-12.00
+5.00,-5.00,-2.00,+0.00,+1.00,-2.00,-9.00,+6.00,+14.00,+27.00,-1.00,-8.00,-5.00,-8.00,-9.00,-16.00
+6.00,+20.00,+9.00,+2.00,-2.00,+0.00,+9.00,+6.00,-71.00,-87.00,-28.00,-18.00,-12.00,+8.00,-24.00,-81.00
-38.00,-25.00,-31.00,-9.00,-2.00,-1.00,-5.00,-12.00,+91.00,+22.00,+11.00,+12.00,+5.00,-3.00,+21.00,+52.00
-2.00,-18.00,-26.00,-10.00,-7.00,-5.00,-15.00,-23.00,+15.00,+25.00,+4.00,+0.00,+1.00,-5.00,-4.00,-8.00
+16.00,+12.00,+20.00,+10.00,+5.00,+9.00,+14.00,+26.00,-51.00,-77.00,+9.00,+10.00,+14.00,+9.00,+11.00,+8.00
-12.00,-85.00,-27.00,-9.00,-18.00,-27.00,-18.00,-3.00,+5.00,-36.00,+19.00,+15.00,-6.00,-6.00,+14.00,+32.00
-43.00,+0.00,-3.00,+3.00,+7.00,+0.00,+1.00,-16.00,-21.00,+30.00,-9.00,-15.00,-12.00,+7.00,-11.00,-30.00
-18.00,+5.00,+7.00,+0.00,-1.00,+8.00,-6.00,-7.00,-117.00,+39.00,-22.00,-20.00,-16.00,-40.00,-48.00,-91.00
-89.00,-85.00,-75.00,-32.00,-18.00,-21.00,-34.00,-58.00,+77.00,-34.00,+7.00,+16.00,+22.00,+46.00,+40.00,+64.00
+88.00,+98.00,+83.00,+22.00,+13.00,+7.00,+16.00,+72.00,-2.00,+74.00,+15.00,+3.00,+2.00,-38.00,-12.00,-5.00
-20.00,-49.00,-19.00,-8.00,-13.00,-13.00,+4.00,-7.00,+14.00,+23.00,+1.00,-3.00,-8.00,+20.00,+13.00,+15.00
-17.00,-31.00,-7.00,-5.00,+2.00,+22.00,+4.00,+7.00,-15.00,+50.00,-5.00,-5.00,-1.00,+3.00,+6.00,-16.00
-15.00,-46.00,+4.00,+10.00,+8.00,+2.00,-1.00,-2.00,-5.00,-39.00,-15.00,-11.00,-15.00,-6.00,-18.00,-21.00
-44.00,-19.00,-15.00,-8.00,-6.00,-4.00,-15.00,-42.00,+74.00,+49.00,+22.00,+10.00,+6.00,-30.00,+13.00,+45.00
+110.00,+95.00,+48.00,+16.00,+13.00,+6.00,+9.00,+22.00,-92.00,-40.00,-34.00,-17.00,-2.00,+14.00,-28.00,-64.00
-41.00,-12.00,-21.00,-13.00,-18.00,-21.00,-31.00,-2.00,+34.00,+17.00,+15.00,+6.00,+2.00,+8.00,+10.00,+29.00
+105.00,+24.00,+56.00,+30.00,+24.00,+22.00,+39.00,+45.00,-11.00,+40.00,-6.00,-10.00,-12.00,-11.00,-12.00,-36.00
-38.00,+13.00,+2.00,-5.00,-3.00,-5.00,-10.00,-46.00,+2.00,-22.00,+1.00,+5.00,+3.00,+10.00,+9.00,+22.00
-1.00,-35.00,+13.00,+7.00,+2.00,+6.00,-2.00,+11.00,-40.00,-22.00,-13.00,-10.00,-5.00,-33.00,-18.00,-48.00
+21.00,-7.00,+29.00,+11.00,+3.00,-10.00,-22.00,+6.00,-59.00,-64.00,-11.00,-6.00,-13.00,-11.00,-8.00,-9.00
-125.00,-123.00,-105.00,-39.00,-27.00,-17.00,-4.00,-60.00,-3.00,-46.00,-1.00,+2.00,+7.00,+5.00,+8.00,+21.00
+69.00,-4.00,+62.00,+34.00,+25.00,+21.00,+13.00,+59.00,+0.00,+6.00,+13.00,+5.00,+1.00,+8.00,-5.00,-6.00
+9.00,+17.00,+9.00,+4.00,+2.00,+9.00,+17.00,+11.00,-63.00,-43.00,-9.00,+2.00,-7.00,-21.00,+2.00,-20.00
-38.00,-113.00,-70.00,-27.00,-17.00,-13.00,-14.00,-34.00,+64.00,+45.00,+16.00,+6.00,+7.00,+11.00,+7.00,+25.00
+88.00,+95.00,+41.00,+13.00,+7.00,+7.00,+11.00,+42.00,-39.00,-6.00,+4.00,-5.00,-4.00,-9.00,+1.00,-14.00
-98.00,-85.00,-64.00,-21.00,-11.00,-15.00,-9.00,-32.00,-13.00,+20.00,-6.00,-4.00,+1.00,+36.00,+5.00,-22.00
+10.00,+80.00,+20.00,+5.00,+3.00,+3.00,-4.00,-2.00,+127.00,+53.00,+40.00,+24.00,+18.00,+7.00,+30.00,+105.00
-48.00,-8.00,-23.00,-13.00,-13.00,-13.00,+0.00,-18.00,-92.00,-74.00,-15.00,-7.00,-7.00,-9.00,-13.00,-49.00
-9.00,-39.00,-17.00,-16.00,-19.00,-15.00,-19.00,-13.00,-5.00,-18.00,+15.00,+14.00,+15.00,+5.00,+19.00,+40.00
-49.00,-5.00,-17.00,-3.00,-5.00,-2.00,-10.00,-26.00,+33.00,+10.00,+12.00,+3.00,-4.00,+2.00,+8.00,+40.00
-10.00,+58.00,+31.00,+6.00,+4.00,+7.00,+8.00,+12.00,-39.00,+21.00,-8.00,-3.00,+3.00,-14.00,-18.00,-35.00
+2.00,-26.00,-27.00,-9.00,-1.00,-11.00,+12.00,+6.00,+34.00,-30.00,+11.00,+11.00,+3.00,+12.00,+28.00,+25.00
+77.00,+111.00,+62.00,+12.00,-11.00,-29.00,+3.00,+29.00,-3.00,+37.00,-7.00,-21.00,-30.00,+0.00,-27.00,-39.00
-31.00,-45.00,-38.00,-11.00,+16.00,+29.00,-13.00,-23.00,-20.00,+22.00,-15.00,-9.00,-2.00,-20.00,-7.00,-13.00
-98.00,-128.00,-72.00,-28.00,-12.00,-15.00,-10.00,-55.00,-32.00,-24.00,-18.00,-15.00,-15.00,-27.00,-20.00,-11.00
+66.00,+50.00,+61.00,+27.00,+21.00,+26.00,+27.00,+36.00,+2.00,-30.00,+14.00,+14.00,+17.00,+24.00,+24.00,+35.00
-14.00,-46.00,+9.00,+6.00,+6.00,+7.00,-2.00,+8.00,+42.00,+77.00,+7.00,+5.00,+1.00,-12.00,-1.00,-12.00
+24.00,+2.00,+1.00,-1.00,-17.00,-20.00,-7.00,+13.00,-27.00,-26.00,-7.00,-7.00,-5.00,-10.00,-11.00,-11.00
-34.00,-36.00,-10.00,-4.00,-4.00,-3.00,-11.00,-7.00,-20.00,-36.00,-14.00,-5.00,-1.00,+11.00,-7.00,-22.00
+28.00,+33.00,+27.00,+11.00,+8.00,+1.00,+15.00,+14.00,+36.00,-14.00,+6.00,+3.00,+2.00,+5.00,+2.00,+17.00
+3.00,+66.00,-10.00,-7.00,-8.00,-7.00,-14.00,-19.00,-18.00,-4.00,-9.00,+1.00,+0.00,+9.00,+5.00,-1.00
-17.00,-20.00,-34.00,-18.00,-16.00,-17.00,-6.00,-31.00,-1.00,-9.00,+10.00,+8.00,+5.00,+5.00,+7.00,+14.00
+56.00,+45.00,+62.00,+29.00,+25.00,+21.00,+10.00,+29.00,+53.00,+61.00,+12.00,+4.00,+0.00,+0.00,+10.00,+36.00
+6.00,+19.00,-22.00,-15.00,-16.00,-8.00,+3.00,-4.00,+10.00,+47.00,-4.00,-8.00,-9.00,-21.00,-19.00,-20.00
-52.00,-42.00,-28.00,-10.00,-4.00,+1.00,+2.00,-11.00,-63.00,-101.00,-20.00,-5.00,-3.00,-14.00,-9.00,-50.00
-1.00,-27.00,+12.00,+2.00,-5.00,-3.00,+3.00,+1.00,-23.00,+43.00,-6.00,-6.00,+2.00,+10.00,-5.00,+15.00
-77.00,-37.00,-35.00,-13.00,-5.00,-12.00,-29.00,-40.00,-7.00,-29.00,-4.00,-4.00,-12.00,-25.00,-10.00,-27.00
+92.00,+100.00,+108.00,+52.00,+31.00,+24.00,+37.00,+94.00,+23.00,+16.00,-3.00,+1.00,+2.00,+23.00,+3.00,+24.00
+54.00,+38.00,+43.00,+20.00,+20.00,+27.00,+32.00,+27.00,-77.00,+17.00,-17.00,-16.00,-11.00,-18.00,-17.00,-56.00
-44.00,-68.00,-45.00,-16.00,-5.00,-5.00,-10.00,-21.00,+1.00,-20.00,-6.00,-7.00,-3.00,+0.00,+3.00,-8.00
+57.00,-23.00,-3.00,+1.00,+1.00,-5.00,+4.00,+5.00,+27.00,+15.00,+7.00,+2.00,+3.00,+4.00,+1.00,+9.00
-71.00,-73.00,-40.00,-17.00,-7.00,-5.00,-18.00,-36.00,+2.00,+66.00,+1.00,+3.00,-7.00,-13.00,-7.00,-10.00
+3.00,+23.00,+30.00,+11.00,+1.00,+1.00,+12.00,+14.00,-5.00,-26.00,-8.00,-8.00,+7.00,+18.00,-16.00,-24.00
+84.00,+118.00,+79.00,+20.00,-6.00,-17.00,+8.00,+32.00,-19.00,-18.00,+12.00,+1.00,-2.00,-1.00,+8.00,+5.00
-49.00,-79.00,-39.00,-13.00,+13.00,+28.00,+7.00,-32.00,+22.00,-21.00,-4.00,-1.00,+0.00,+4.00,+3.00,+2.00
-5.00,-15.00,-10.00,+0.00,+12.00,+14.00,+0.00,-20.00,+8.00,+23.00,-2.00,-6.00,-2.00,-11.00,-5.00,-3.00
+9.00,-65.00,-3.00,+2.00,+10.00,+10.00,-7.00,+17.00,+21.00,+42.00,+2.00,+2.00,+4.00,+0.00,+2.00,+11.00
-45.00,-89.00,-37.00,-16.00,-18.00,-22.00,-17.00,-29.00,+11.00,-113.00,+7.00,+16.00,+8.00,+21.00,+24.00,+45.00
-60.00,-45.00,-37.00,-16.00,-25.00,-28.00,-28.00,-14.00,+50.00,+107.00,+25.00,+7.00,+1.00,-32.00,+2.00,+15.00
-11.00,-43.00,-12.00,-7.00,-8.00,-6.00,+2.00,-6.00,-25.00,-27.00,-12.00,-7.00,+1.00,+39.00,-3.00,-2.00
-65.00,-97.00,-29.00,-5.00,-4.00,-3.00,-6.00,+4.00,-2.00,-17.00,+7.00,+8.00,+2.00,+17.00,+12.00,+19.00
+17.00,+16.00,-12.00,-7.00,-4.00,-3.00,+16.00,+3.00,-34.00,+35.00,-20.00,-19.00,-9.00,-5.00,-25.00,-37.00
+41.00,+3.00,+34.00,+14.00,+8.00,+6.00,+3.00,+34.00,-112.00,-109.00,-18.00,-2.00,-1.00,+5.00,-1.00,-26.00
-25.00,+39.00,+0.00,+0.00,-2.00,-5.00,-6.00,-3.00,+58.00,-7.00,+3.00,+5.00,+1.00,-8.00,+5.00,+13.00
+107.00,+116.00,+70.00,+27.00,+19.00,+14.00,+13.00,+38.00,-29.00,+14.00,-7.00,-13.00,-20.00,-17.00,-8.00,-9.00
-48.00,-27.00,-38.00,-10.00,-8.00,+0.00,-7.00,-23.00,+15.00,+3.00,-7.00,-1.00,+5.00,-6.00,-12.00,-15.00
-29.00,+1.00,-11.00,-7.00,-5.00,-9.00,-4.00,-10.00,-14.00,-7.00,+5.00,-3.00,-7.00,-1.00,+6.00,+28.00
+66.00,+46.00,+6.00,+0.00,-3.00,-7.00,-9.00,+1.00,+16.00,+42.00,+4.00,-3.00,-1.00,-7.00,+6.00,+8.00
-128.00,-113.00,-78.00,-35.00,-15.00,-13.00,-29.00,-58.00,-4.00,-13.00,+6.00,+6.00,+3.00,-18.00,-2.00,-4.00
+107.00,+109.00,+69.00,+31.00,+21.00,+16.00,+32.00,+57.00,+32.00,+63.00,+5.00,-3.00,-1.00,+22.00,-5.00,-3.00
+17.00,+42.00,-2.00,-4.00,-4.00,+2.00,+3.00,+5.00,-23.00,-23.00,-1.00,-4.00,+0.00,+6.00,-4.00,-9.00
+46.00,+46.00,+49.00,+15.00,+0.00,+0.00,+12.00,+22.00,-16.00,-44.00,-9.00,-7.00,-8.00,-12.00,-4.00,+1.00
+58.00,+74.00,+41.00,+11.00,+12.00,+10.00,+10.00,+19.00,+16.00,+8.00,-4.00,+0.00,-11.00,-15.00,-2.00,+0.00
-42.00,-48.00,-6.00,+3.00,+9.00,+2.00,-14.00,-22.00,-2.00,+6.00,+10.00,+9.00,+25.00,+22.00,+15.00,+20.00
+36.00,+4.00,-8.00,-10.00,-21.00,-15.00,+6.00,+27.00,-36.00,-17.00,-23.00,-15.00,-14.00,-20.00,-18.00,-41.00
-47.00,-87.00,-29.00,-10.00,-5.00,-6.00,+14.00,-4.00,+77.00,+80.00,+19.00,-2.00,-19.00,-17.00,+5.00,+19.00
-35.00,-12.00,-24.00,-10.00,-7.00,-1.00,-20.00,-36.00,-15.00,-12.00,-2.00,-6.00,+10.00,+39.00,-6.00,-6.00
+24.00,+39.00,+27.00,+11.00,+15.00,+17.00,+4.00,+13.00,+36.00,+49.00,-2.00,-1.00,-5.00,-15.00,+4.00,-12.00
-32.00,-46.00,+3.00,+0.00,+4.00,+0.00,-4.00,-26.00,-10.00,-37.00,-1.00,+6.00,+12.00,+20.00,+3.00,+15.00
+76.00,+77.00,+54.00,+19.00,+18.00,+16.00,-2.00,+37.00,-17.00,-2.00,-1.00,+3.00,+12.00,-17.00,-11.00,-12.00
-2.00,-13.00,+13.00,+7.00,+3.00,-3.00,+5.00,+18.00,+46.00,+32.00,+4.00,+2.00,-7.00,-5.00,+4.00,+10.00
-44.00,-61.00,-31.00,-13.00,-21.00,-22.00,-12.00,-13.00,-23.00,+27.00,-7.00,-9.00,-12.00,-20.00,-8.00,-5.00
-78.00,-110.00,-59.00,-19.00,-9.00,+4.00,-13.00,-38.00,+13.00,-21.00,-2.00,+1.00,+5.00,+5.00,-3.00,-15.00
-37.00,-24.00,-21.00,-14.00,-15.00,-16.00,-17.00,-29.00,-11.00,-15.00,+5.00,+9.00,+8.00,+25.00,+35.00,+25.00
+71.00,+29.00,+13.00,+9.00,+6.00,-5.00,-7.00,+17.00,+11.00,+27.00,+2.00,+1.00,+3.00,-2.00,+0.00,+21.00
+20.00,-3.00,+31.00,+16.00,+11.00,+26.00,+23.00,+36.00,-20.00,-31.00,-1.00,+0.00,-11.00,+1.00,-6.00,-14.00
+32.00,+69.00,+28.00,+9.00,+3.00,-3.00,-1.00,+18.00,+15.00,+5.00,-3.00,-1.00,+6.00,-18.00,-4.00,+4.00
-54.00,-67.00,-38.00,-11.00,-5.00,+5.00,-2.00,-21.00,-61.00,-68.00,-23.00,-15.00,-5.00,-13.00,-27.00,-39.00
-61.00,-73.00,-39.00,-17.00,-18.00,-22.00,-15.00,-31.00,+11.00,+10.00,+3.00,+4.00,+23.00,+34.00,+8.00,+1.00
+43.00,+57.00,+18.00,+6.00,+6.00,-2.00,+2.00,+10.00,-10.00,-52.00,-11.00,-12.00,-36.00,-17.00,-2.00,-8.00
+48.00,+38.00,+26.00,+11.00,+1.00,-5.00,+9.00,+17.00,+31.00,+60.00,+13.00,+1.00,+6.00,+0.00,-3.00,+15.00
-23.00,+1.00,+1.00,+3.00,+13.00,+20.00,-2.00,-10.00,-21.00,-32.00,-14.00,-4.00,-7.00,-6.00,-5.00,-15.00
-7.00,+0.00,-6.00,-3.00,-6.00,-5.00,+10.00,-2.00,+2.00,-6.00,-2.00,+4.00,-3.00,-17.00,-3.00,-3.00
-24.00,-19.00,-28.00,-11.00,+5.00,+17.00,-5.00,-12.00,+7.00,-8.00,+5.00,+5.00,+0.00,+2.00,+3.00,+7.00
+26.00,+36.00,+17.00,+2.00,-14.00,-7.00,+3.00,+8.00,+16.00,+23.00,+4.00,-5.00,+0.00,+15.00,+10.00,+4.00
-6.00,-9.00,-6.00,+2.00,+20.00,+14.00,-3.00,-5.00,-23.00,-5.00,-13.00,-9.00,+4.00,-3.00,-14.00,-22.00
-22.00,-58.00,-20.00,-4.00,+9.00,+7.00,+10.00,-7.00,+8.00,+11.00,-3.00,+1.00,-4.00,-11.00,+4.00,+14.00
-26.00,+26.00,-20.00,-12.00,-8.00,-14.00,-14.00,-25.00,+47.00,+13.00,+8.00,+8.00,+13.00,-10.00,+2.00,+5.00
+72.00,+97.00,+41.00,+13.00,+10.00,+10.00,+16.00,+21.00,+50.00,+17.00,+9.00,+6.00,+0.00,+7.00,+18.00,+32.00
-73.00,-101.00,-73.00,-32.00,-38.00,-30.00,-15.00,-29.00,+9.00,+32.00,+8.00,+3.00,-4.00,+6.00,+6.00,+12.00
+33.00,+35.00,+44.00,+16.00,+4.00,+0.00,-14.00,+12.00,-10.00,+15.00,+4.00,+0.00,+0.00,-8.00,-12.00,+1.00
-24.00,-40.00,-1.00,+2.00,+4.00,+5.00,+21.00,+8.00,+7.00,-22.00,-7.00,-2.00,+6.00,+4.00,-14.00,-2.00
-39.00,-21.00,-18.00,-8.00,-4.00,+1.00,+3.00,-4.00,-64.00,-33.00,-14.00,-9.00,-3.00,-3.00,+7.00,-32.00
-48.00,-57.00,-32.00,-11.00,-11.00,-13.00,-1.00,-13.00,+2.00,-29.00,+3.00,+4.00,-2.00,-7.00,+5.00,+25.00
-14.00,-71.00,-26.00,-12.00,-4.00,-11.00,-7.00,-24.00,-7.00,+10.00,+2.00,-2.00,-6.00,-6.00,+3.00,-9.00
+79.00,+61.00,+68.00,+26.00,+13.00,+17.00,+9.00,+73.00,-21.00,-29.00,-7.00,-2.00,+4.00,-1.00,+2.00,+1.00
-15.00,-41.00,-13.00,-2.00,+1.00,+2.00,-1.00,-4.00,+3.00,+6.00,+4.00,+4.00,-8.00,-1.00,-6.00,+0.00
+0.00,-21.00,+8.00,+5.00,+4.00,-2.00,+2.00,-1.00,-25.00,-29.00,-9.00,-5.00,-1.00,-12.00,-10.00,-16.00
-30.00,-18.00,-24.00,-11.00,-7.00,+0.00,-9.00,-12.00,+3.00,-17.00,-1.00,-2.00,-2.00,-14.00,+5.00,-24.00
-14.00,-23.00,-20.00,-13.00,-10.00,-14.00,-14.00,-27.00,+8.00,+14.00,+5.00,+12.00,+22.00,+4.00,+0.00,+13.00
+28.00,-11.00,+1.00,+1.00,-2.00,-18.00,-9.00,+6.00,+9.00,+22.00,+0.00,-1.00,-2.00,+0.00,-1.00,-11.00
+8.00,+18.00,+7.00,-1.00,-21.00,-21.00,+5.00,-7.00,-3.00,+12.00,-1.00,-16.00,-15.00,+2.00,-3.00,-6.00
+1.00,+57.00,+9.00,+7.00,+34.00,+50.00,+12.00,+4.00,+11.00,-31.00,-13.00,-7.00,+0.00,+2.00,-5.00,+15.00
+18.00,-17.00,-11.00,-2.00,+7.00,+14.00,+16.00,+11.00,-16.00,-2.00,-2.00,-6.00,-4.00,-2.00,+1.00,-12.00
-4.00,+1.00,+4.00,+1.00,+10.00,+10.00,+4.00,-19.00,+23.00,+7.00,+4.00,+13.00,+5.00,+3.00,+0.00,+19.00
-8.00,-16.00,-6.00,-4.00,-19.00,-21.00,-14.00,-10.00,-16.00,+10.00,+5.00,-1.00,-4.00,+6.00,-4.00,-15.00
+30.00,+38.00,+21.00,+4.00,-12.00,-13.00,-14.00,+8.00,-17.00,-2.00,-6.00,-10.00,+2.00,+5.00,+19.00,-2.00
-62.00,-29.00,-25.00,-7.00,+9.00,+4.00,-5.00,-5.00,-14.00,-33.00,-12.00,-1.00,+2.00,-4.00,-2.00,-11.00
+0.00,-29.00,-7.00,-1.00,+5.00,+2.00,+4.00,+2.00,-18.00,-57.00,+1.00,+6.00,-1.00,+2.00,+8.00,+7.00
-18.00,-51.00,-8.00,+2.00,+5.00,+2.00,-4.00,-7.00,+21.00,+27.00,+4.00,+6.00,+7.00,-9.00,-2.00,+9.00
+66.00,+63.00,+39.00,+13.00,-4.00,+3.00,+18.00,+25.00,-29.00,+1.00,-5.00,-1.00,+0.00,-24.00,-15.00,-11.00
-33.00,-41.00,-16.00,-8.00,-22.00,-18.00,-20.00,+0.00,+27.00,-3.00,+0.00,+3.00,+0.00,+30.00,+2.00,-1.00
+21.00,+48.00,+6.00,-2.00,-16.00,-45.00,-10.00,+3.00,+8.00,+40.00,+4.00,-13.00,-19.00,-5.00,-5.00,-3.00
+3.00,+27.00,+1.00,+1.00,+20.00,+35.00,+2.00,+8.00,-18.00,-26.00,-8.00,-15.00,-24.00,-4.00,-4.00,-9.00
-10.00,-5.00,-2.00,+3.00,+28.00,+34.00,+8.00,-34.00,+4.00,+25.00,-2.00,+0.00,+17.00,+1.00,-1.00,+1.00
-18.00,-14.00,-15.00,-11.00,-9.00,-3.00,-10.00,-17.00,-19.00,-19.00,+2.00,+19.00,+44.00,-16.00,-5.00,-4.00
-3.00,-11.00,-1.00,-3.00,-23.00,-35.00,+14.00,+4.00,-3.00,+4.00,-5.00,+3.00,-19.00,-12.00,-15.00,-11.00
+33.00,+28.00,+29.00,+8.00,-28.00,-37.00,+2.00,+18.00,+9.00,+1.00,+3.00,-5.00,-18.00,+4.00,+5.00,+0.00
-13.00,-4.00,-11.00,-5.00,-18.00,-23.00,-2.00,-15.00,+3.00,+0.00,-2.00,-20.00,-37.00,+18.00,+11.00,+7.00
+11.00,+5.00,-2.00,+9.00,+79.00,+92.00,+9.00,-20.00,+9.00,-33.00,-7.00,-7.00,-5.00,-18.00,-2.00,+4.00
-50.00,-62.00,-36.00,-11.00,+13.00,+13.00,+6.00,-8.00,+19.00,+50.00,+3.00,+5.00,+8.00,-11.00,-7.00,+9.00
+40.00,+40.00,+21.00,+7.00,+13.00,+4.00,+9.00,+10.00,+11.00,+7.00,+5.00,+21.00,+54.00,+23.00,+5.00,-7.00
-50.00,+26.00,+9.00,-5.00,-38.00,-32.00,-12.00,+24.00,+9.00,-5.00,+3.00,+11.00,-2.00,-4.00,-12.00,+2.00
-24.00,-13.00,-9.00,-9.00,-43.00,-71.00,-15.00,-17.00,-9.00,-1.00,-3.00,-12.00,-25.00,+30.00,+28.00,-3.00
-2.00,-4.00,+1.00,+1.00,+3.00,+18.00,-13.00,+0.00,-29.00,-13.00,-4.00,-23.00,-6.00,-18.00,-8.00,+1.00
-45.00,-63.00,-27.00,-3.00,+41.00,+55.00,-2.00,-27.00,-10.00,-29.00,-3.00,+6.00,-3.00,-6.00,-4.00,-3.00
+72.00,+64.00,+29.00,+9.00,+10.00,-1.00,+21.00,+41.00,-3.00,+0.00,+2.00,+5.00,+6.00,-1.00,-3.00,-4.00
+14.00,-18.00,+4.00,-5.00,-20.00,-19.00,+0.00,+3.00,+29.00,+33.00,+9.00,+6.00,+3.00,-4.00,-2.00,+16.00
-6.00,+3.00,+12.00,+8.00,+5.00,+13.00,-1.00,+3.00,+14.00,+24.00,+0.00,+0.00,-10.00,-2.00,-1.00,-4.00
+8.00,+4.00,+2.00,-7.00,-24.00,-35.00,-11.00,+7.00,-26.00,-40.00,-10.00,-7.00,+5.00,-2.00,-10.00,-14.00
-28.00,-49.00,-32.00,-12.00,-5.00,-3.00,-2.00,-22.00,-38.00,-21.00,-4.00,+6.00,+0.00,-1.00,+0.00,-6.00
-20.00,-20.00,-17.00,-7.00,-9.00,-2.00,-19.00,-23.00,-18.00,-8.00,-1.00,-2.00,-8.00,-10.00,-13.00,+1.00
+58.00,+64.00,+45.00,+18.00,-9.00,-9.00,+26.00,+26.00,+13.00,+15.00,-2.00,-6.00,+17.00,+13.00,+10.00,+5.00
-6.00,+21.00,-2.00,-1.00,+12.00,+20.00,+8.00,+2.00,+2.00,-10.00,-5.00,+0.00,+0.00,-11.00,+1.00,-1.00
-22.00,-35.00,-11.00,-6.00,-14.00,-22.00,-18.00,-10.00,+8.00,-14.00,-2.00,-1.00,+8.00,+5.00,-15.00,-10.00
+16.00,+5.00,+0.00,+1.00,-9.00,-23.00,+0.00,-8.00,-12.00,+10.00,-3.00,-17.00,-49.00,-24.00,-13.00,-4.00
-20.00,-26.00,-15.00,-7.00,-4.00,-2.00,-17.00,-4.00,+8.00,-3.00,-3.00,-28.00,-58.00,+0.00,+20.00,+1.00
+16.00,+11.00,+8.00,+9.00,+37.00,+57.00,+21.00,+23.00,-3.00,+14.00,-1.00,+17.00,+10.00,+4.00,+3.00,-13.00
-14.00,+9.00,+5.00,+3.00,+18.00,+6.00,-10.00,-12.00,+1.00,-6.00,-5.00,-17.00,+5.00,-11.00,-11.00,+0.00
-7.00,-2.00,+4.00,-3.00,-46.00,-37.00,-1.00,+23.00,-15.00,-5.00,+1.00,-1.00,+10.00,-6.00,-11.00,-1.00
-5.00,-11.00,-6.00,+1.00,+37.00,+22.00,+8.00,+6.00,+33.00,+3.00,+6.00,+7.00,+5.00,+8.00,-6.00,+1.00
+10.00,+42.00,+12.00,+0.00,-13.00,-26.00,-13.00,-2.00,+14.00,+25.00,+0.00,-8.00,-10.00,-14.00,+3.00,+8.00
-7.00,-25.00,-18.00,-7.00,+1.00,+1.00,+0.00,-12.00,+11.00,-29.00,-3.00,+13.00,-3.00,+15.00,+8.00,+18.00
+45.00,-1.00,+0.00,+1.00,-12.00,-6.00,+7.00,+7.00,-2.00,+2.00,+1.00,+3.00,+0.00,-14.00,+24.00,-1.00
-3.00,-14.00,+6.00,+1.00,-13.00,-18.00,-33.00,-4.00,-15.00,-16.00,-7.00,+5.00,+22.00,+17.00,-15.00,-10.00
-12.00,-13.00,-5.00,-3.00,-8.00,-6.00,+1.00,+0.00,-15.00,-11.00,-5.00,+0.00,+8.00,+25.00,+0.00,-2.00
-14.00,-27.00,-14.00,-5.00,-2.00,-1.00,-3.00,-21.00,+0.00,+12.00,+7.00,+7.00,+4.00,-4.00,-8.00,-4.00
+16.00,+51.00,+19.00,+2.00,+8.00,+7.00,+4.00,+17.00,+8.00,+10.00,+4.00,-1.00,+4.00,+11.00,+0.00,+7.00
+8.00,+5.00,-7.00,-5.00,-5.00,+3.00,+10.00,+23.00,+1.00,-7.00,-2.00,+3.00,-7.00,-10.00,+3.00,+6.00
+24.00,+20.00,+8.00,+4.00,+8.00,+0.00,+2.00,+3.00,-2.00,+7.00,-4.00,-4.00,+8.00,-16.00,-11.00,+2.00
-13.00,-29.00,-8.00,-4.00,-13.00,-7.00,-5.00,+2.00,+18.00,+35.00,+4.00,+3.00,-3.00,+5.00,+4.00,-3.00
-45.00,-60.00,-26.00,-8.00,+0.00,-8.00,-7.00,-30.00,-33.00,-25.00,-3.00,+14.00,+38.00,+27.00,+0.00,-22.00
+45.00,+67.00,+16.00,-1.00,-20.00,-35.00,-7.00,-25.00,-4.00,+3.00,+1.00,-16.00,-48.00,-19.00,-3.00,-1.00
+43.00,+40.00,+26.00,+12.00,+22.00,+35.00,+0.00,-1.00,+5.00,-7.00,-3.00,-14.00,-19.00,-26.00,-6.00,+7.00
-10.00,-9.00,-5.00,-2.00,+20.00,+33.00,+9.00,+6.00,-8.00,-11.00,-6.00,-9.00,+4.00,+9.00,+2.00,-6.00
-12.00,-4.00,-3.00,+2.00,+16.00,+6.00,+5.00,+6.00,+13.00,+13.00,+0.00,+5.00,-7.00,-23.00,-3.00,-3.00
-23.00,-25.00,-10.00,-4.00,-7.00,+5.00,-8.00,-32.00,-11.00,-22.00,-4.00,+4.00,+19.00,+42.00,+6.00,+25.00
+18.00,-18.00,-11.00,-4.00,-17.00,-49.00,-8.00,+18.00,+0.00,+1.00,+0.00,-5.00,-5.00,-10.00,-5.00,+0.00
+6.00,+18.00,+10.00,+3.00,+6.00,+5.00,+1.00,+1.00,+8.00,+7.00,+3.00,+5.00,+15.00,+13.00,+6.00,+3.00
+3.00,+3.00,+2.00,+0.00,+0.00,+0.00,+9.00,+10.00,-2.00,-3.00,-6.00,-8.00,-33.00,-38.00,-9.00,-6.00
-21.00,-19.00,-6.00,-2.00,-6.00,-4.00,+3.00,+8.00,-31.00,-31.00,-2.00,+1.00,+18.00,+25.00,-1.00,-8.00
-7.00,-3.00,-2.00,-2.00,-5.00,+16.00,+2.00,-8.00,+48.00,+40.00,+6.00,-7.00,-12.00,-4.00,+0.00,+0.00
+10.00,-1.00,+5.00,+6.00,+15.00,+5.00,+0.00,+13.00,-13.00,-4.00,+0.00,+3.00,+4.00,+16.00,+8.00,+8.00
-64.00,-53.00,-40.00,-15.00,-12.00,-10.00,-18.00,-35.00,-8.00,-31.00,-2.00,+0.00,+3.00,+13.00,+1.00,+12.00
+48.00,+10.00,+33.00,+12.00,+8.00,+15.00,+11.00,+33.00,+21.00,+38.00,+6.00,+3.00,+4.00,-21.00,-6.00,-4.00
-19.00,-1.00,-1.00,-2.00,-11.00,-13.00,-3.00,+1.00,-23.00,-19.00,+2.00,+4.00,+2.00,+5.00,-2.00,-5.00
+3.00,-18.00,-3.00,-3.00,-7.00,+3.00,+2.00,+1.00,+3.00,+3.00,-8.00,-5.00,-8.00,-19.00,-13.00,-15.00
-11.00,+6.00,-2.00,-1.00,-1.00,+9.00,+0.00,-10.00,-5.00,+11.00,+3.00,-4.00,-3.00,+5.00,-1.00,+1.00
-25.00,-19.00,-21.00,-9.00,+7.00,+8.00,-1.00,-18.00,+1.00,+1.00,-3.00,+3.00,+7.00,-8.00,-4.00,-8.00
-3.00,-9.00,+3.00,+1.00,+5.00,-2.00,-5.00,-8.00,-10.00,-11.00,-5.00,-4.00,+8.00,+3.00,-4.00,-2.00
-14.00,-31.00,-9.00,-1.00,-11.00,-19.00,-3.00,+6.00,-8.00,-16.00,-5.00,-4.00,-10.00,-11.00,-1.00,-1.00
+36.00,+28.00,+13.00,+1.00,+2.00,+4.00,+4.00,+2.00,-1.00,-6.00,-6.00,-7.00,-3.00,+3.00,+1.00,+1.00
-15.00,+7.00,-2.00,-2.00,+3.00,+14.00,+0.00,+9.00,+8.00,+9.00,+1.00,+7.00,+10.00,-5.00,-2.00,-3.00
-2.00,+7.00,+1.00,+0.00,-13.00,-24.00,+0.00,-8.00,+2.00,+3.00,+6.00,+8.00,-3.00,-19.00,+5.00,+15.00
+25.00,+10.00,-1.00,+0.00,-7.00,+3.00,-7.00,+2.00,-1.00,-9.00,+0.00,+1.00,+16.00,+31.00,+3.00,-4.00
-18.00,-9.00,+2.00,+4.00,+4.00,-10.00,-6.00,-9.00,+4.00,+14.00,+8.00,+5.00,+3.00,+25.00,+6.00,-7.00
+18.00,+12.00,-1.00,+1.00,-1.00,+1.00,+14.00,+20.00,-3.00,-5.00,-2.00,-10.00,-28.00,-19.00,-1.00,-7.00
-18.00,-15.00,-10.00,-1.00,+22.00,+50.00,+5.00,-11.00,-8.00,-8.00,-7.00,-9.00,+8.00,+17.00,+9.00,-6.00
+8.00,+7.00,+6.00,+3.00,+8.00,+13.00,+4.00,+2.00,+6.00,+1.00,+4.00,+0.00,-4.00,-26.00,+4.00,+31.00
+14.00,+14.00,+4.00,+1.00,+11.00,+18.00,+2.00,-17.00,+10.00,+14.00,+1.00,-6.00,-7.00,-13.00,-4.00,-13.00
-14.00,-21.00,-11.00,-5.00,-5.00,-7.00,-7.00,-7.00,+6.00,+2.00,+0.00,+8.00,+12.00,-3.00,+0.00,+0.00
-16.00,-22.00,-10.00,-6.00,-20.00,-27.00,-13.00,-3.00,-14.00,-21.00,-5.00,-3.00,-10.00,+1.00,-7.00,-8.00
-22.00,-29.00,-15.00,-9.00,-8.00,-15.00,-7.00,-22.00,-12.00,-6.00,-1.00,-3.00,-7.00,-3.00,-2.00,+5.00
+66.00,+79.00,+42.00,+14.00,+9.00,+13.00,+15.00,+47.00,-2.00,-4.00,-1.00,+0.00,+2.00,+1.00,-9.00,+6.00
-8.00,+3.00,-1.00,+0.00,+0.00,+2.00,-2.00,-8.00,+15.00,+15.00,+6.00,+4.00,+7.00,-3.00,-8.00,+5.00
-37.00,-49.00,-17.00,-8.00,-2.00,-14.00,-9.00,-11.00,+24.00,+29.00,+7.00,+4.00,-1.00,+3.00,-7.00,+11.00
+32.00,+36.00,+15.00,+3.00,-7.00,+3.00,+6.00,+8.00,-4.00,+3.00,-1.00,+0.00,+2.00,-8.00,-11.00,-23.00
-23.00,-14.00,-11.00,-4.00,-8.00,-5.00,-8.00,-9.00,-6.00,-9.00,-2.00,+1.00,+1.00,-4.00,-6.00,+4.00
+0.00,-4.00,-5.00,-4.00,-2.00,+1.00,-5.00,-4.00,-22.00,+2.00,+25.00,+1.00,-1.00,-6.00,-7.00,-13.00
+1.00,+5.00,-6.00,+2.00,-5.00,-24.00,-3.00,-5.00,+1.00,-19.00,-50.00,-3.00,-1.00,+13.00,-5.00,-13.00
-30.00,-37.00,-17.00,-10.00,-5.00,-5.00,-4.00,-2.00,+9.00,+4.00,-3.00,-8.00,-5.00,-26.00,+12.00,+0.00
-9.00,+0.00,+6.00,-5.00,-20.00,-25.00,-16.00,-7.00,-1.00,-5.00,-12.00,-14.00,-2.00,-11.00,-2.00,-1.00
-17.00,+0.00,-3.00,+1.00,+33.00,+15.00,-29.00,-46.00,-1.00,-5.00,+3.00,+0.00,+3.00,-21.00,-19.00,-2.00
-6.00,+1.00,-1.00,-4.00,-4.00,-2.00,-4.00,-41.00,+2.00,+10.00,+21.00,+14.00,+13.00,+36.00,+9.00,+11.00
+57.00,+25.00,+5.00,+5.00,-2.00,-2.00,+66.00,+96.00,-3.00,-9.00,-6.00,-9.00,-25.00,+4.00,+15.00,+4.00
+18.00,+6.00,+2.00,+7.00,+12.00,+42.00,+23.00,+75.00,+3.00,+0.00,-3.00,+1.00,+6.00,+0.00,+8.00,-5.00
-8.00,-11.00,-4.00,-2.00,+2.00,+6.00,+3.00,+4.00,-10.00,-12.00,-12.00,-1.00,+2.00,-3.00,+10.00,-3.00
-45.00,+4.00,+0.00,+1.00,-4.00,-6.00,-20.00,+7.00,-4.00,+0.00,+2.00,-4.00,-8.00,-28.00,+0.00,-1.00
+4.00,+14.00,+3.00,-3.00,-9.00,-16.00,-20.00,-53.00,-9.00,-2.00,-1.00,+0.00,-5.00,-7.00,-10.00,-17.00
-11.00,-26.00,-10.00,-5.00,-3.00,-9.00,-7.00,-41.00,+12.00,+11.00,+6.00,-3.00,-5.00,+2.00,+0.00,+2.00
-8.00,+3.00,-5.00,-1.00,-5.00,-5.00,-10.00,-18.00,-7.00,-15.00,-9.00,-3.00,+1.00,+0.00,-2.00,-3.00
-5.00,-31.00,-8.00,-3.00,+0.00,+4.00,-5.00,-18.00,-19.00,-10.00,+5.00,+3.00,+2.00,+3.00,-1.00,+1.00
+13.00,+59.00,+20.00,+6.00,+3.00,-10.00,-8.00,-5.00,+10.00,+1.00,+5.00,+1.00,-2.00,+7.00,-5.00,+6.00
-4.00,-2.00,+3.00,+3.00,+5.00,+1.00,+1.00,-5.00,-11.00,-12.00,-6.00,-4.00,-4.00,-1.00,-13.00,-5.00
+0.00,-3.00,-6.00,-3.00,-1.00,+4.00,+2.00,+2.00,+16.00,+12.00,+0.00,+8.00,+12.00,+8.00,-4.00,+3.00
+26.00,+28.00,+7.00,+1.00,-15.00,-6.00,+13.00,+20.00,+9.00,+10.00,-4.00,-9.00,-3.00,-4.00,-7.00,+17.00
-44.00,-44.00,-14.00,-4.00,+2.00,+1.00,-7.00,-2.00,-10.00,+1.00,+10.00,+6.00,-11.00,+4.00,-7.00,-7.00
-5.00,-24.00,-19.00,-9.00,-16.00,-32.00,-12.00,-15.00,-1.00,+4.00,+7.00,-4.00,-6.00,-2.00,-1.00,+2.00
+11.00,+7.00,+0.00,+4.00,+13.00,+28.00,+9.00,-1.00,-3.00,-10.00,+0.00,-2.00,+4.00,+4.00,-1.00,+2.00
-1.00,+4.00,+11.00,+4.00,+10.00,+4.00,-2.00,-15.00,-13.00,-25.00,-26.00,-13.00,-13.00,-9.00,+0.00,-7.00
-4.00,-7.00,-6.00,-11.00,-10.00,+2.00,-1.00,-13.00,+32.00,+12.00,-6.00,+12.00,+16.00,+4.00,+0.00,+34.00
+8.00,+9.00,+5.00,+1.00,-2.00,-1.00,+4.00,+12.00,-5.00,-5.00,-2.00,-12.00,-4.00,-9.00,+2.00,-8.00
-58.00,-7.00,+0.00,-4.00,-17.00,+3.00,+3.00,+18.00,-3.00,+3.00,+2.00,+1.00,-1.00,-3.00,+11.00,-6.00
+5.00,+6.00,-1.00,+0.00,+11.00,+3.00,+9.00,+17.00,+5.00,+9.00,+12.00,-2.00,-11.00,-6.00,+9.00,+1.00
-1.00,+1.00,-1.00,+3.00,+4.00,+1.00,-12.00,-21.00,-9.00,-11.00,-5.00,+0.00,+8.00,+3.00,+3.00,-1.00
-8.00,-5.00,-4.00,-2.00,-2.00,-2.00,-5.00,-16.00,+5.00,+9.00,+4.00,+9.00,+7.00,+11.00,+11.00,+10.00
+10.00,-9.00,-3.00,-2.00,-3.00,-15.00,-4.00,-7.00,+0.00,-3.00,-3.00,-3.00,-1.00,-6.00,+5.00,+4.00
+16.00,+8.00,+3.00,+2.00,-3.00,-12.00,+1.00,+10.00,+1.00,+2.00,+5.00,+2.00,+0.00,+10.00,+0.00,-10.00
-8.00,+3.00,+2.00,+3.00,+6.00,+10.00,-1.00,-7.00,-8.00,+8.00,-2.00,-3.00,-2.00,-8.00,-1.00,-12.00
-26.00,-33.00,-13.00,-5.00,+6.00,+7.00,-1.00,-12.00,-4.00,-15.00,-1.00,-2.00,-2.00,-3.00,-5.00,+0.00
+28.00,+24.00,+2.00,-2.00,-6.00,-5.00,+4.00,+19.00,+13.00,+12.00,-4.00,-2.00,+1.00,+0.00,-5.00,-3.00
-1.00,-13.00,+7.00,-1.00,+3.00,+4.00,+0.00,+7.00,-6.00,-11.00,+4.00,+4.00,+4.00,-5.00,-10.00,+1.00
+10.00,-1.00,-3.00,-1.00,-9.00,-21.00,-3.00,-2.00,-17.00,-12.00,-3.00,-4.00,-3.00,+0.00,-6.00,-11.00
-5.00,+6.00,-1.00,-4.00,-7.00,+3.00,-5.00,+12.00,+10.00,+7.00,-6.00,-1.00,-4.00,+3.00,-9.00,+2.00
+23.00,+15.00,+20.00,+9.00,+11.00,+8.00,+8.00,+10.00,-3.00,-8.00,-12.00,-1.00,+1.00,+6.00,-6.00,+2.00
+0.00,+4.00,-8.00,-6.00,-11.00,-4.00,-2.00,+1.00,+3.00,+8.00,+6.00,+1.00,+3.00,+1.00,-3.00,+2.00
-6.00,+3.00,+3.00,+1.00,-1.00,-2.00,-2.00,+0.00,+8.00,+9.00,-1.00,-8.00,-7.00,-6.00,-8.00,-12.00
-5.00,-29.00,-11.00,-2.00,+8.00,+2.00,-8.00,-28.00,-4.00,+0.00,-2.00,+3.00,-4.00,-5.00,-2.00,-3.00
-14.00,-13.00,-8.00,-5.00,-10.00,-12.00,-4.00,+11.00,-4.00,-7.00,-4.00,+1.00,-7.00,-1.00,+3.00,+6.00
+10.00,+4.00,+2.00,+0.00,-1.00,+0.00,+3.00,+6.00,-3.00,+0.00,-1.00,-9.00,-2.00,-2.00,+3.00,-4.00
+6.00,-12.00,-2.00,+1.00,+4.00,+0.00,-2.00,+7.00,-8.00,-10.00,-1.00,+1.00,-4.00,-5.00,+7.00,+1.00
+27.00,+19.00,+5.00,+1.00,+2.00,+6.00,+3.00,+14.00,-2.00,-1.00,+3.00,+2.00,+2.00,+1.00,+6.00,-3.00
-4.00,-5.00,-1.00,+2.00,-3.00,-2.00,+3.00,-21.00,-1.00,+6.00,+0.00,-8.00,+1.00,-7.00,+0.00,-8.00
+12.00,+14.00,+3.00,+1.00,+8.00,-5.00,+1.00,+13.00,-12.00,-8.00,-2.00,-2.00,-3.00,-12.00,+2.00,+1.00
+5.00,+0.00,-2.00,+0.00,+7.00,-8.00,-1.00,+7.00,+3.00,-1.00,-2.00,+0.00,-4.00,-5.00,-2.00,-4.00
+11.00,+9.00,+2.00,-1.00,+5.00,+14.00,+5.00,-4.00,+5.00,+6.00,+0.00,-6.00,-16.00,+13.00,+9.00,+4.00
+7.00,-7.00,-3.00,+0.00,+0.00,+7.00,-3.00,-5.00,-19.00,-17.00,-6.00,+0.00,+7.00,+3.00,+3.00,-3.00
-5.00,-8.00,-4.00,-2.00,-5.00,+2.00,+1.00,-1.00,+6.00,+11.00,+6.00,+1.00,+2.00,-12.00,-1.00,-16.00
-1.00,+9.00,+5.00,+0.00,+3.00,+3.00,-2.00,+4.00,-8.00,+1.00,+4.00,+1.00,+4.00,-7.00,+2.00,-4.00
-15.00,-10.00,-1.00,+2.00,+2.00,-8.00,-5.00,-5.00,-6.00,-11.00,-9.00,+3.00,+4.00,+11.00,-9.00,-4.00
-7.00,-10.00,-5.00,-4.00,-4.00,-15.00,-9.00,-13.00,+21.00,+15.00,-2.00,-2.00,+1.00,+7.00,-3.00,+2.00
-10.00,+5.00,-2.00,-5.00,-7.00,+5.00,-4.00,-32.00,-31.00,-31.00,-4.00,+1.00,-2.00,+3.00,-10.00,-18.00
+7.00,+15.00,+3.00,+0.00,-4.00,+2.00,+13.00,+58.00,+5.00,-3.00,-8.00,-5.00,-7.00,-10.00,-12.00,-3.00
-8.00,-25.00,+3.00,+1.00,-2.00,-1.00,+3.00,-1.00,+15.00,+6.00,+11.00,+5.00,+8.00,+2.00,+1.00,+14.00
+8.00,+29.00,+4.00,+2.00,+2.00,+2.00,+3.00,+2.00,-7.00,-3.00,+2.00,+1.00,+3.00,+7.00,-3.00,+3.00
+33.00,+40.00,+11.00,+5.00,+5.00,+4.00,+0.00,+0.00,+11.00,+12.00,-2.00,+0.00,-6.00,-4.00,-3.00,+3.00
-9.00,-32.00,-12.00,-4.00,-4.00,+0.00,-8.00,-29.00,-10.00,-1.00,+3.00,+2.00,+9.00,+6.00,-3.00,-4.00
-14.00,+3.00,-3.00,-2.00,-12.00,-10.00,-3.00,-5.00,-6.00,-10.00,-7.00,-3.00,-2.00,-6.00,-1.00,+2.00
-27.00,-37.00,-12.00,-6.00,+6.00,+2.00,-4.00,-10.00,-1.00,+0.00,-1.00,-3.00,-2.00,-2.00,-1.00,-1.00
+9.00,-15.00,-3.00,+0.00,+10.00,+2.00,+3.00,-3.00,+12.00,+5.00,+4.00,-2.00,-6.00,+4.00,+2.00,+0.00
+38.00,+12.00,+2.00,-2.00,-6.00,-2.00,+1.00,-3.00,-5.00,-5.00,+0.00,+0.00,-6.00,-1.00,-3.00,-5.00
-37.00,-6.00,-5.00,-3.00,+2.00,+5.00,-6.00,+10.00,-1.00,+2.00,-3.00,+2.00,+19.00,-3.00,+2.00,-6.00
-47.00,-8.00,-1.00,-4.00,-17.00,-12.00,-4.00,+12.00,-1.00,-5.00,-3.00,-10.00,-26.00,-17.00,+2.00,-2.00
-2.00,+11.00,+4.00,+2.00,+4.00,-2.00,+6.00,+13.00,-5.00,-2.00,-2.00,+0.00,+13.00,+9.00,+2.00,-7.00
-2.00,-5.00,+1.00,+2.00,+4.00,+2.00,-4.00,-4.00,+3.00,-1.00,-2.00,-6.00,-4.00,+16.00,+4.00,-3.00
+14.00,+13.00,+3.00,+1.00,+5.00,-9.00,-6.00,-12.00,+0.00,+5.00,+0.00,+4.00,+1.00,-11.00,-1.00,+3.00
+15.00,-2.00,-3.00,-2.00,-3.00,-5.00,-2.00,-7.00,-7.00,-11.00,+2.00,+4.00,-1.00,+4.00,-2.00,-8.00
-1.00,-3.00,-3.00,+0.00,-4.00,+8.00,+1.00,+7.00,-3.00,+3.00,+0.00,-2.00,-3.00,-6.00,-4.00,-4.00
-20.00,-2.00,+2.00,-2.00,-2.00,-7.00,-5.00,+2.00,+8.00,+16.00,+4.00,-3.00,-3.00,-6.00,-1.00,+1.00
+3.00,-2.00,-4.00,-1.00,+2.00,-6.00,+1.00,-14.00,-7.00,-6.00,-9.00,-7.00,-8.00,-7.00,-6.00,-6.00
+7.00,+8.00,+7.00,+2.00,+6.00,+3.00,+4.00,-2.00,-7.00,-11.00,-2.00,-1.00,+5.00,+0.00,-2.00,-1.00
-24.00,-35.00,-16.00,-7.00,-14.00,-4.00,-4.00,-5.00,+14.00,+8.00,+0.00,+5.00,-2.00,+6.00,+2.00,+3.00
+18.00,+52.00,+17.00,+5.00,+3.00,+3.00,-2.00,-6.00,+8.00,-2.00,+2.00,+4.00,+8.00,+1.00,-2.00,+3.00
+21.00,+31.00,+11.00,+3.00,-3.00,+5.00,+5.00,+5.00,-4.00,+5.00,+1.00,-1.00,-4.00,+2.00,-1.00,-14.00
+6.00,-3.00,-5.00,-1.00,-1.00,-1.00,+0.00,-4.00,-5.00,-2.00,-3.00,-7.00,-10.00,-2.00,-4.00,-4.00
+8.00,-13.00,-3.00,+0.00,+9.00,-3.00,-3.00,+5.00,+1.00,+0.00,+2.00,-1.00,+2.00,-1.00,-2.00,+2.00
-29.00,-30.00,-12.00,-6.00,-2.00,+0.00,-4.00,-16.00,-1.00,-4.00,-3.00,-4.00,-4.00,-4.00,-1.00,+1.00
-2.00,-2.00,-3.00,-1.00,-2.00,-1.00,+2.00,+2.00,-2.00,+0.00,+0.00,+0.00,+0.00,-2.00,-1.00,-2.00
+4.00,-9.00,-4.00,-2.00,-3.00,+0.00,+3.00,+5.00,+2.00,-8.00,-2.00,+2.00,+3.00,+1.00,+3.00,+11.00
+2.00,+0.00,-2.00,-4.00,-8.00,-4.00,-1.00,+0.00,-10.00,-4.00,-3.00,+0.00,-1.00,-4.00,+0.00,+1.00
-19.00,-7.00,+2.00,+1.00,+0.00,+3.00,-3.00,-4.00,-6.00,-3.00,+0.00,-1.00,-1.00,-5.00,-4.00,-16.00
+7.00,+2.00,+0.00,+2.00,+5.00,+0.00,-1.00,-6.00,-6.00,-3.00,-5.00,+1.00,-2.00,+11.00,+1.00,+0.00
+6.00,-1.00,+0.00,-4.00,-8.00,-16.00,+2.00,+3.00,-2.00,+3.00,+1.00,+0.00,+4.00,-1.00,+3.00,-1.00
+7.00,+7.00,+1.00,+1.00,+2.00,+6.00,+3.00,-9.00,-2.00,+0.00,-2.00,-3.00,-2.00,+4.00,-1.00,-1.00
-7.00,-3.00,+1.00,+1.00,+8.00,+9.00,+1.00,+3.00,-2.00,-8.00,-5.00,-4.00,-9.00,-5.00,-1.00,+5.00
-2.00,-3.00,-1.00,-2.00,+0.00,+4.00,+1.00,+3.00,+0.00,+0.00,+1.00,-2.00,+2.00,-1.00,-3.00,-3.00
-5.00,-2.00,-2.00,+0.00,+1.00,-2.00,-3.00,-1.00,-4.00,-1.00,+0.00,+6.00,+11.00,+3.00,-1.00,-3.00
+1.00,+6.00,+3.00,-1.00,-6.00,-4.00,-4.00,+6.00,+7.00,+1.00,-3.00,-4.00,-10.00,-13.00,-3.00,+0.00
+0.00,-2.00,-3.00,-1.00,-5.00,+2.00,-1.00,-7.00,-7.00,-1.00,-3.00,-4.00,-1.00,+5.00,-4.00,+0.00
-14.00,-18.00,-5.00,+0.00,+7.00,-5.00,-4.00,-5.00,-5.00,-5.00,-2.00,-2.00,-6.00,-10.00,-1.00,+0.00
+21.00,+23.00,+3.00,+0.00,+1.00,+6.00,+2.00,+2.00,+0.00,+1.00,-1.00,+2.00,+4.00,+17.00,+2.00,-1.00
+11.00,+31.00,+8.00,+1.00,-2.00,+0.00,+2.00,-4.00,-6.00,-3.00,+3.00,+1.00,+2.00,-1.00,+0.00,-3.00
-6.00,-4.00,-1.00,-1.00,-5.00,-5.00,-2.00,+14.00,+7.00,+4.00,+2.00,+0.00,-2.00,-2.00,-2.00,+1.00
+4.00,+8.00,+2.00,+0.00,-3.00,-3.00,-1.00,+5.00,+1.00,-10.00,-6.00,-2.00,-3.00,-4.00,-2.00,-12.00
+6.00,-29.00,-7.00,-2.00,+5.00,+3.00,-2.00,-7.00,-5.00,-3.00,-3.00,-2.00,-1.00,-3.00,+1.00,+2.00
+5.00,-12.00,-2.00,-2.00,-4.00,-3.00,-4.00,-4.00,+1.00,-10.00,-6.00,-2.00,-3.00,-4.00,-2.00,-12.00
+2.00,+26.00,+3.00,-2.00,-2.00,-3.00,+1.00,+6.00,-5.00,-3.00,-3.00,-2.00,-1.00,-3.00,+1.00,+2.00
-8.00,-12.00,-3.00,-2.00,-2.00,+1.00,+0.00,+0.00,-6.00,-13.00,-3.00,-1.00,+0.00,-1.00,-1.00,-2.00
-2.00,+4.00,-3.00,-2.00,+2.00,-1.00,-2.00,-1.00,+6.00,+13.00,+0.00,-3.00,-2.00,+1.00,+2.00,+3.00
-8.00,+4.00,+2.00,+1.00,+0.00,-1.00,-3.00,+9.00,-6.00,-10.00,-7.00,-3.00,-2.00,-6.00,-1.00,+2.00
-2.00,-12.00,-7.00,-2.00,-3.00,-1.00,-2.00,-15.00,-1.00,+0.00,-1.00,-3.00,-2.00,-2.00,-1.00,-1.00
-7.00,+0.00,+1.00,-2.00,+2.00,+1.00,-2.00,-3.00,+12.00,+5.00,+4.00,-2.00,-6.00,+4.00,+2.00,+0.00
+11.00,-8.00,-4.00,+0.00,+1.00,+4.00,+0.00,-12.00,-5.00,-5.00,+0.00,+0.00,-6.00,-1.00,-3.00,-5.00
-21.00,-8.00,-6.00,-5.00,-9.00,-8.00,+1.00,+6.00,-1.00,+2.00,-3.00,+2.00,+19.00,-3.00,+2.00,-6.00
-4.00,+3.00,+3.00,+3.00,+5.00,+8.00,-1.00,-8.00,-1.00,-5.00,-3.00,-10.00,-26.00,-17.00,+2.00,-2.00
-2.00,+1.00,-2.00,-4.00,-2.00,+1.00,+0.00,+0.00,-10.00,-10.00,-1.00,-2.00,-2.00,+2.00,+1.00,-1.00
-8.00,+0.00,+1.00,+0.00,+1.00,+1.00,-3.00,-10.00,+5.00,+4.00,+1.00,+4.00,+3.00,-5.00,-3.00,-2.00
+3.00,-9.00,-1.00,-1.00,+2.00,+4.00,-2.00,-16.00,+3.00,+8.00,+2.00,-2.00,-5.00,+2.00,-3.00,-8.00
-7.00,-18.00,-7.00,-5.00,-7.00,-10.00,-3.00,+4.00,-6.00,-8.00,-6.00,-3.00,+2.00,-4.00,-3.00,-7.00
+27.00,+27.00,+8.00,+5.00,+1.00,+0.00,+3.00,-5.00,+2.00,+3.00,+0.00,-4.00,-4.00,-2.00,-1.00,+11.00
-3.00,+3.00,+1.00,+0.00,+0.00,+1.00,-1.00,+5.00,-4.00,-4.00,-2.00,+4.00,+1.00,+1.00,-1.00,-8.00
-18.00,-8.00,-5.00,-3.00,-2.00,-3.00,+1.00,-22.00,+0.00,-1.00,-1.00,-2.00,-6.00,+0.00,+2.00,+7.00
-2.00,-11.00,-1.00,-1.00,-4.00,-2.00,-3.00,+6.00,-6.00,+1.00,+2.00,-2.00,-2.00,+1.00,+1.00,-4.00
-8.00,-14.00,-4.00,-1.00,-1.00,-1.00,-3.00,-4.00,+15.00,+6.00,+0.00,-1.00,-2.00,-3.00,-3.00,+5.00
-13.00,+11.00,+6.00,+2.00,-1.00,+0.00,-2.00,-1.00,+2.00,-4.00,+0.00,-3.00,+0.00,-1.00,+1.00,+21.00
-7.00,-3.00,-1.00,+0.00,+2.00,+1.00,-2.00,+2.00,-8.00,-2.00,-2.00,+1.00,+3.00,-1.00,-2.00,-5.00
+22.00,-17.00,-3.00,-4.00,-6.00,-4.00,+0.00,-9.00,-3.00,-7.00,+0.00,+2.00,-1.00,+6.00,+0.00,+2.00
-11.00,-4.00,-6.00,-5.00,-14.00,-12.00,-2.00,+2.00,-3.00,-1.00,-1.00,-4.00,-2.00,-1.00,-4.00,-14.00
+48.00,+39.00,+8.00,+3.00,+6.00,+15.00,+9.00,+14.00,-5.00,-2.00,+0.00,-3.00,-1.00,-2.00,-2.00,+3.00
+14.00,+28.00,+9.00,+6.00,+20.00,+18.00,+1.00,+11.00,+5.00,+3.00,+3.00,+1.00,+1.00,-1.00,-4.00,-3.00
-21.00,+3.00,+1.00,+4.00,+10.00,+3.00,-1.00,+4.00,-1.00,+1.00,-1.00,-2.00,-3.00,-5.00,-2.00,+0.00
+0.00,-13.00,-8.00,-2.00,+1.00,+5.00,-4.00,-11.00,-5.00,-4.00,+2.00,+1.00,+0.00,-1.00,+0.00,+10.00
-34.00,-32.00,-7.00,-5.00,-11.00,-14.00,-10.00,-8.00,-3.00,-5.00,-8.00,-2.00,-7.00,-2.00,-5.00,-11.00
+1.00,-3.00,-3.00,-6.00,-11.00,-8.00,-2.00,+11.00,+3.00,+7.00,-4.00,-2.00,+10.00,+1.00,+0.00,+2.00
+2.00,+6.00,+0.00,-1.00,-1.00,+0.00,+2.00,-7.00,-14.00,-8.00,+2.00,+8.00,+8.00,+4.00,-1.00,-7.00
-9.00,-4.00,-2.00,+0.00,-3.00,-4.00,-2.00,+11.00,-10.00,-11.00,-9.00,-19.00,-23.00,-1.00,+3.00,+3.00
-8.00,-4.00,-2.00,-1.00,-1.00,-4.00,-3.00,-5.00,+1.00,+5.00,+2.00,-8.00,-16.00,-11.00,-8.00,-5.00
+4.00,+2.00,-1.00,-1.00,-4.00,-3.00,-4.00,+0.00,-5.00,-6.00,-1.00,-2.00,-4.00,-2.00,-2.00,-1.00
+10.00,+2.00,-1.00,+1.00,+2.00,-2.00,-2.00,-18.00,+16.00,+10.00,+7.00,+3.00,+5.00,-2.00,-2.00,+2.00
+33.00,+1.00,-4.00,-1.00,+1.00,+2.00,-1.00,-1.00,-1.00,+0.00,-7.00,+4.00,+11.00,+1.00,-1.00,-4.00
-22.00,-6.00,+2.00,-1.00,+1.00,-1.00,+0.00,+2.00,-8.00,-6.00,+0.00,-1.00,+2.00,-1.00,+1.00,-6.00
-1.00,-1.00,-3.00,+0.00,-6.00,-2.00,+2.00,+14.00,+3.00,-1.00,-2.00,-3.00,-2.00,+0.00,-2.00,+5.00
+0.00,+3.00,+2.00,-1.00,-3.00,-5.00,+0.00,-3.00,+2.00,+1.00,+8.00,+2.00,+0.00,-1.00,-1.00,+2.00
+16.00,+21.00,+7.00,+3.00,+3.00,-2.00,+0.00,+0.00,+0.00,-1.00,-5.00,+1.00,-2.00,-2.00,-2.00,-14.00
+6.00,-7.00,-6.00,-3.00,-1.00,-6.00,-1.00,-1.00,+2.00,+5.00,-3.00,-2.00,+2.00,+0.00,-1.00,-22.00
-11.00,-17.00,-1.00,+0.00,+5.00,+6.00,-4.00,-10.00,+2.00,+4.00,+2.00,+1.00,+1.00,+1.00,+0.00,-2.00
+6.00,+22.00,+3.00,+0.00,+2.00,+6.00,-1.00,-1.00,-2.00,-1.00,+0.00,-7.00,-6.00,-5.00,+0.00,+1.00
-10.00,-3.00,-2.00,-4.00,-1.00,+2.00,+0.00,+13.00,-8.00,-9.00,-1.00,+1.00,-2.00,-1.00,-1.00,-8.00
-7.00,-7.00,-2.00,+0.00,-2.00,-2.00,+0.00,+8.00,+3.00,-3.00,-8.00,-2.00,+1.00,-1.00,+0.00,+6.00
-6.00,-2.00,+5.00,-3.00,-11.00,-10.00,-4.00,-21.00,+6.00,-2.00,-2.00,+0.00,+0.00,+0.00,+2.00,+3.00
-33.00,-10.00,-6.00,-1.00,+4.00,-2.00,-2.00,+15.00,-4.00,+2.00,+0.00,+0.00,+3.00,+1.00,-2.00,-5.00
-11.00,-14.00,-1.00,-1.00,+1.00,+8.00,-1.00,-2.00,+4.00,+6.00,+2.00,+0.00,+1.00,-5.00,-5.00,+11.00
+2.00,+0.00,-4.00,-1.00,-1.00,+4.00,-1.00,-11.00,-3.00,-5.00,+1.00,-2.00,-6.00,+0.00,+0.00,+0.00
+10.00,+16.00,+7.00,+3.00,+3.00,+0.00,+0.00,+13.00,+3.00,+2.00,+2.00,-2.00,-5.00,+0.00,+1.00,+10.00
+23.00,-1.00,-2.00,-2.00,-2.00,+0.00,-3.00,+1.00,+3.00,-5.00,-7.00,-5.00,+0.00,-4.00,+0.00,+6.00
+2.00,+4.00,+1.00,-2.00,-6.00,-6.00,+0.00,+1.00,-2.00,+0.00,+1.00,+6.00,+7.00,+0.00,-1.00,-5.00
-13.00,-11.00,-5.00,-2.00,+1.00,+1.00,-2.00,-1.00,+2.00,+4.00,+5.00,+5.00,+6.00,+1.00,-2.00,-4.00
+0.00,-6.00,-9.00,-3.00,-2.00,-2.00,-1.00,+0.00,-8.00,-3.00,-1.00,+1.00,-5.00,-2.00,-2.00,-7.00
+3.00,-6.00,+2.00,+2.00,-2.00,-3.00,-2.00,-15.00,+9.00,-2.00,-10.00,-4.00,-7.00,-2.00,-1.00,+5.00
-27.00,-11.00,-8.00,-5.00,-4.00,-3.00,+0.00,-4.00,-5.00,-3.00,+0.00,+0.00,+2.00,-3.00,+0.00,+0.00
+11.00,+4.00,+7.00,+1.00,+0.00,+2.00,+2.00,+2.00,+0.00,-4.00,-2.00,+1.00,-1.00,+1.00,+1.00,-5.00
+7.00,+9.00,+0.00,-1.00,-5.00,-5.00,-1.00,+8.00,+2.00,+2.00,+0.00,-3.00,-1.00,+0.00,+1.00,+1.00
+1.00,-7.00,+1.00,-1.00,+3.00,+0.00,-3.00,-21.00,-3.00,-2.00,-3.00,-4.00,-2.00,-3.00,-2.00,-1.00
-2.00,+11.00,-1.00,+0.00,+2.00,+0.00,+1.00,-9.00,+2.00,+2.00,+4.00,-1.00,-2.00,+0.00,-4.00,-6.00
-7.00,-23.00,-8.00,-2.00,-3.00,-5.00,+0.00,-4.00,+0.00,+4.00,+4.00,+0.00,+2.00,+0.00,-1.00,+7.00
+4.00,+20.00,+3.00,-3.00,-3.00,+1.00,+0.00,+1.00,-5.00,+2.00,+4.00,-1.00,-2.00,-4.00,-4.00,-4.00
-1.00,-1.00,-2.00,+1.00,+4.00,+2.00,+1.00,+4.00,-5.00,-14.00,-26.00,-7.00,-5.00,-2.00,-1.00,-4.00
-2.00,-6.00,-1.00,+0.00,-1.00,+0.00,-2.00,+6.00,+2.00,+8.00,+0.00,+0.00,-2.00,-1.00,-5.00,-14.00
+1.00,+0.00,+2.00,+0.00,+4.00,-1.00,-2.00,-6.00,-9.00,-13.00,+4.00,+1.00,+5.00,+2.00,+0.00,-10.00
-10.00,-19.00,-12.00,-7.00,-7.00,-4.00,+0.00,-1.00,+5.00,+4.00,+0.00,-1.00,-6.00,+1.00,+10.00,+20.00
+11.00,-4.00,-2.00,-1.00,-3.00,+0.00,-2.00,-11.00,-10.00,-7.00,+5.00,+1.00,-1.00,-1.00,+3.00,+5.00
+9.00,+5.00,+3.00,-1.00,+1.00,-1.00,+1.00,+11.00,+2.00,+7.00,+2.00,+1.00,-1.00,-2.00,-1.00,+10.00
-78.00,-3.00,-3.00,-5.00,-5.00,-4.00,-14.00,-31.00,-10.00,-4.00,-4.00,+0.00,+5.00,+2.00,-5.00,-3.00
-8.00,-24.00,-6.00,-2.00,-3.00,-3.00,+0.00,+3.00,+2.00,+6.00,+2.00,-2.00,-4.00,-4.00,-7.00,-12.00
+2.00,+12.00,+1.00,-3.00,-3.00,-1.00,-2.00,-1.00,-2.00,-2.00,-1.00,+0.00,-5.00,-1.00,+1.00,-5.00
-6.00,-1.00,+2.00,+1.00,+0.00,+3.00,+0.00,-9.00,+1.00,-4.00,-1.00,-1.00,+1.00,+1.00,+2.00,+6.00
+22.00,+8.00,+0.00,+3.00,+5.00,-2.00,+2.00,+4.00,-13.00,-13.00,-5.00,-4.00,-4.00,-5.00,-3.00,-6.00
+3.00,-1.00,+1.00,-1.00,-3.00,-3.00,-2.00,-6.00,+24.00,+4.00,-2.00,+1.00,+1.00,+1.00,+4.00,+36.00
-20.00,-13.00,-4.00,-2.00,-3.00,+4.00,+0.00,+0.00,+16.00,+10.00,+5.00,+4.00,+2.00,+3.00,-4.00,-23.00
+8.00,-4.00,-2.00,+0.00,-1.00,-5.00,-2.00,-4.00,-3.00,-3.00,+7.00,+1.00,+0.00,-2.00,-1.00,-6.00
+11.00,+1.00,-5.00,-2.00,+4.00,+4.00,+1.00,+4.00,-2.00,-4.00,-16.00,-6.00,-7.00,-3.00,+0.00,+0.00
+8.00,-1.00,+1.00,+2.00,+2.00,+0.00,+3.00,+14.00,-23.00,-19.00,-6.00,-2.00,+1.00,-2.00,-2.00,-6.00
+5.00,+1.00,-2.00,-1.00,-2.00,-3.00,+1.00,+7.00,+6.00,+6.00,+9.00,+2.00,+1.00,-1.00,-1.00,+4.00
-7.00,+4.00,+3.00,+2.00,-6.00,-3.00,-3.00,-8.00,-8.00,-6.00,-13.00,-8.00,-6.00,-4.00,-2.00,-6.00
+13.00,+8.00,+1.00,+0.00,+2.00,+10.00,+2.00,+9.00,+4.00,+5.00,+4.00,+2.00,+3.00,+0.00,+2.00,+8.00
-28.00,-5.00,-3.00,+0.00,+2.00,-6.00,-3.00,+16.00,-4.00,-2.00,-2.00,+3.00,+3.00,+1.00,-4.00,-20.00
-5.00,+1.00,-1.00,-1.00,-1.00,-1.00,+2.00,+11.00,-16.00,-13.00,-3.00,-11.00,-17.00,-5.00,-4.00,-1.00
+31.00,-4.00,-3.00,-2.00,-1.00,-2.00,-4.00,-19.00,+5.00,+6.00,+0.00,+0.00,-1.00,-1.00,-1.00,+1.00
-17.00,-4.00,-10.00,-6.00,-9.00,-8.00,-1.00,+5.00,+9.00,+7.00,-3.00,-4.00,-3.00,-1.00,+1.00,+7.00
+6.00,+2.00,+4.00,+3.00,+2.00,+3.00,-2.00,-4.00,-5.00,-5.00,-4.00,+0.00,-1.00,-4.00,-8.00,-20.00
-3.00,+7.00,+5.00,+0.00,-2.00,-2.00,+1.00,-4.00,-10.00,-2.00,+3.00,+2.00,+4.00,+0.00,+1.00,-1.00
+3.00,+0.00,+0.00,-2.00,+1.00,+2.00,-1.00,+2.00,-2.00,+1.00,-4.00,+0.00,+2.00,+0.00,-3.00,+0.00
+22.00,-1.00,-2.00,+1.00,+0.00,+0.00,+1.00,-9.00,-3.00,+2.00,+0.00,-3.00,-6.00,-4.00,-2.00,+6.00
-7.00,-12.00,-7.00,-2.00,-2.00,-1.00,-1.00,-10.00,-4.00,-7.00,-1.00,+2.00,+2.00,+1.00,-6.00,-32.00
+14.00,+16.00,+2.00,+0.00,+0.00,+2.00,+6.00,+6.00,-2.00,-8.00,-3.00,-2.00,-1.00,-3.00,-2.00,+1.00
-8.00,-4.00,-2.00,+1.00,-1.00,+0.00,+2.00,+7.00,-14.00,-10.00,+3.00,+1.00,+0.00,-1.00,+2.00,-5.00
-2.00,+4.00,+2.00,+1.00,-3.00,-2.00,+0.00,+14.00,+18.00,+14.00,+2.00,+5.00,+3.00,+0.00,+0.00,-4.00
-2.00,+1.00,+0.00,+0.00,+3.00,+0.00,-3.00,-6.00,+1.00,+3.00,-11.00,-5.00,-3.00,-2.00,+0.00,+4.00
-11.00,-9.00,-3.00,-1.00,-1.00,-4.00,-6.00,-8.00,-3.00,-7.00,-8.00,-3.00,-2.00,-4.00,-2.00,+7.00
-8.00,-2.00,+0.00,-1.00,+1.00,+2.00,+0.00,+4.00,+2.00,+0.00,-2.00,-2.00,-3.00,-3.00,-5.00,-8.00
+14.00,+3.00,+4.00,+4.00,+2.00,-3.00,+2.00,-21.00,-3.00,-6.00,+4.00,-2.00,-2.00,+1.00,+1.00,+6.00
+25.00,+4.00,-5.00,-2.00,-4.00,+0.00,+1.00,+5.00,-5.00,+3.00,+4.00,+2.00,-3.00,+1.00,+1.00,+7.00
-20.00,-2.00,+1.00,-2.00,+0.00,-3.00,-2.00,-3.00,+5.00,+7.00,-2.00,+1.00,+5.00,+1.00,-2.00,-3.00
+1.00,+5.00,-2.00,-3.00,-2.00,+0.00,+0.00,+3.00,-1.00,-3.00,+4.00,-2.00,-3.00,+0.00,+2.00,+8.00
-12.00,-7.00,+0.00,-1.00,-3.00,-2.00,-1.00,+9.00,+1.00,-1.00,+0.00,-3.00,-3.00,-2.00,-4.00,-7.00
+7.00,-1.00,-1.00,+0.00,+0.00,-2.00,-5.00,-10.00,-3.00,-3.00,-2.00,-1.00,+2.00,-1.00,-2.00,-5.00
+0.00,-11.00,-5.00,-2.00,-5.00,-1.00,-1.00,-7.00,-3.00,-2.00,-2.00,-1.00,-3.00,+0.00,-3.00,-3.00
+4.00,+19.00,+8.00,+4.00,+5.00,+4.00,+8.00,+4.00,-9.00,-3.00,-1.00,-3.00,-3.00,-2.00,-6.00,-50.00
+2.00,-2.00,+3.00,+1.00,+2.00,+1.00,+3.00,+2.00,-3.00,-1.00,-2.00,-3.00,-2.00,-2.00,+1.00,-4.00
-27.00,-31.00,-10.00,-4.00,-4.00,-3.00,-5.00,+10.00,+4.00,-6.00,-4.00,-2.00,-1.00,-4.00,+0.00,+2.00
+61.00,+65.00,+14.00,+4.00,+2.00,+2.00,+3.00,+12.00,-3.00,+5.00,+2.00,+1.00,+1.00,-2.00,-2.00,-3.00
-18.00,-10.00,-6.00,-3.00,-1.00,-3.00,-2.00,+6.00,+3.00,-3.00,-1.00,-1.00,+2.00,-1.00,+2.00,+13.00
+14.00,+9.00,+3.00,-2.00,+1.00,+0.00,+1.00,+6.00,+1.00,+1.00,-4.00,-4.00,-3.00,-2.00,+0.00,+2.00
-2.00,+5.00,+4.00,+2.00,+1.00,+1.00,+0.00,-2.00,-6.00,-12.00,+2.00,-1.00,+1.00,-1.00,-5.00,-8.00
-5.00,-31.00,-10.00,-4.00,+2.00,-4.00,-3.00,-18.00,+2.00,+6.00,-5.00,+0.00,+0.00,+2.00,+1.00,+6.00
+4.00,-9.00,-6.00,-2.00,-3.00,-2.00,-6.00,-6.00,+6.00,+10.00,-2.00,-2.00,-3.00,-1.00,-3.00,+7.00
+8.00,+7.00,+0.00,-1.00,-2.00,-2.00,+0.00,+0.00,-8.00,-4.00,-1.00,-1.00,+1.00,-3.00,-2.00,-5.00
-5.00,-4.00,-3.00,+0.00,-1.00,+2.00,-2.00,-7.00,+0.00,-2.00,+3.00,-1.00,-1.00,+2.00,+6.00,+10.00
-16.00,-14.00,-2.00,-2.00,-1.00,-2.00,-5.00,-7.00,+15.00,+0.00,-3.00,-1.00,-4.00,+0.00,+1.00,+3.00
+18.00,+6.00,+1.00,-1.00,-1.00,+0.00,+3.00,-24.00,-6.00,-8.00,-1.00,+1.00,-1.00,+0.00,+1.00,+9.00
-11.00,-13.00,-6.00,-5.00,-6.00,-3.00,-5.00,+2.00,+3.00,+5.00,-2.00,+0.00,+0.00,-2.00,-3.00,-6.00
+22.00,+2.00,+2.00,+1.00,+1.00,+0.00,+1.00,-16.00,+1.00,+2.00,+1.00,-1.00,-1.00,-1.00,-3.00,-4.00
-24.00,+9.00,+6.00,+1.00,-1.00,+2.00,+6.00,+22.00,-6.00,-2.00,+0.00,-1.00,-2.00,-1.00,-2.00,-5.00
-6.00,+2.00,+1.00,+0.00,+2.00,-1.00,+0.00,+7.00,+2.00,+4.00,-1.00,+0.00,+1.00,+0.00,+2.00,+5.00
+6.00,-2.00,-3.00,-2.00,-5.00,+0.00,-2.00,-7.00,+2.00,-3.00,+3.00,+1.00,+0.00,-1.00,-2.00,-2.00
-15.00,-10.00,-4.00,-2.00,-2.00,-4.00,+0.00,+9.00,-4.00,-1.00,-1.00,-2.00,-2.00,-1.00,-1.00,-3.00
+2.00,+8.00,-2.00,+0.00,+2.00,+2.00,-3.00,-11.00,+3.00,-2.00,-2.00,-1.00,+0.00,+0.00,+9.00,+41.00
-34.00,-9.00,-1.00,-2.00,-3.00,-4.00,-5.00,+7.00,+2.00,+9.00,-2.00,-2.00,-1.00,-1.00,-2.00,+3.00
+6.00,+7.00,-3.00,+0.00,+0.00,-1.00,+0.00,+6.00,-1.00,-12.00,-6.00,-1.00,-1.00,+1.00,+1.00,+4.00
+33.00,+13.00,+7.00,+3.00,+1.00,+3.00,+1.00,+8.00,-10.00,-13.00,-9.00,+0.00,-2.00,-2.00,-2.00,-3.00
-14.00,-24.00,-10.00,-4.00,-4.00,-4.00,-1.00,+6.00,+3.00,+5.00,+2.00,+2.00,+1.00,-2.00,-5.00,-6.00
+6.00,-1.00,+0.00,-2.00,-3.00,-3.00,-5.00,+1.00,+2.00,+3.00,+1.00,+1.00,+0.00,+0.00,+1.00,+6.00
-4.00,-7.00,-5.00,-1.00,+0.00,+0.00,-2.00,-5.00,-17.00,-5.00,+2.00,-1.00,-1.00,-1.00,-3.00,-6.00
-6.00,+3.00,-1.00,-2.00,-1.00,+0.00,+2.00,-1.00,+4.00,+8.00,+2.00,-1.00,-1.00,-1.00,-4.00,-1.00
+7.00,-3.00,-1.00,-1.00,-2.00,-2.00,-1.00,+10.00,-4.00,-1.00,+0.00,-2.00,-2.00,-1.00,-4.00,-9.00
+4.00,-4.00,-2.00,+0.00,+2.00,-4.00,-7.00,-26.00,-2.00,-5.00,+0.00,+0.00,+2.00,+0.00,-1.00,+0.00
-9.00,-3.00,-3.00,-5.00,-5.00,+0.00,-2.00,-9.00,+0.00,+0.00,-1.00,-1.00,-2.00,+0.00,+5.00,+5.00
-1.00,+5.00,+1.00,+0.00,+1.00,+0.00,-1.00,-13.00,+2.00,+1.00,-2.00,-3.00,+1.00,+0.00,-2.00,-13.00
-41.00,-16.00,-9.00,-2.00,-3.00,+0.00,-1.00,+5.00,+1.00,+0.00,+1.00,-2.00,-1.00,-1.00,+3.00,-9.00
-8.00,-5.00,+0.00,+1.00,+0.00,-2.00,+3.00,-2.00,-1.00,-2.00,-3.00,-3.00,-1.00,-1.00,-1.00,+3.00
+4.00,-6.00,+0.00,+1.00,+1.00,+0.00,-4.00,+9.00,+1.00,+3.00,+2.00,+1.00,-1.00,-1.00,-1.00,+4.00
-4.00,+7.00,-5.00,-4.00,-3.00,-4.00,-6.00,-29.00,-1.00,+2.00,+1.00,+0.00,-1.00,-1.00,-4.00,-1.00
+34.00,+45.00,+18.00,+5.00,+5.00,+3.00,+7.00,+6.00,+6.00,-1.00,-1.00,+0.00,-2.00,-1.00,+3.00,+31.00
+9.00,-2.00,+1.00,+2.00,+3.00,+6.00,+11.00,+32.00,-4.00,-6.00,-2.00,+0.00,-3.00,-2.00,-1.00,-3.00
-7.00,-1.00,+0.00,+1.00,+1.00,+0.00,+0.00,+3.00,+6.00,+2.00,+2.00,+3.00,+1.00,+0.00,-1.00,+1.00
-15.00,-20.00,-3.00,-4.00,-2.00,-2.00,-3.00,-8.00,+4.00,+3.00,-2.00,-5.00,-3.00,-2.00,+0.00,-5.00
-3.00,-18.00,-10.00,-5.00,-6.00,-5.00,-6.00,-1.00,-10.00,-4.00,+1.00,-2.00,-1.00,-2.00,-5.00,-17.00
-13.00,+1.00,-3.00,-3.00,-1.00,-1.00,-3.00,+14.00,-1.00,+9.00,-2.00,-2.00,-2.00,-2.00,+1.00,-2.00
+18.00,-22.00,-2.00,+1.00,+0.00,+1.00,+2.00,+0.00,-33.00,-30.00,-4.00,+0.00,-3.00,-4.00,-7.00,-1.00
-2.00,+23.00,+4.00,-1.00,-1.00,-1.00,-4.00,-6.00,+12.00,+7.00,+2.00,+1.00,+1.00,+1.00,+1.00,+16.00
-14.00,+4.00,+1.00,-3.00,-4.00,-4.00,-7.00,+8.00,+3.00,-5.00,-7.00,-3.00,-1.00,-2.00,-1.00,-3.00
+10.00,+8.00,+2.00,-2.00,-2.00,-1.00,-1.00,+11.00,+1.00,-2.00,-1.00,+1.00,+0.00,+0.00,-2.00,+1.00
+35.00,+1.00,+1.00,+1.00,+3.00,+3.00,+4.00,-14.00,+5.00,+10.00,+0.00,-3.00,-1.00,-1.00,-4.00,-16.00
-8.00,+1.00,-5.00,-2.00,-2.00,+2.00,+3.00,+2.00,+7.00,+1.00,-1.00,+0.00,-2.00,-2.00,+3.00,+1.00
-5.00,-19.00,-6.00,-3.00,-1.00,-3.00,-9.00,-21.00,-12.00,-4.00,-1.00,-2.00,-2.00,-2.00,-4.00,-6.00
-17.00,-26.00,-6.00,-3.00,-3.00,-3.00,+3.00,-19.00,+6.00,+3.00,-4.00,-4.00,-3.00,-1.00,+3.00,-1.00
+42.00,+31.00,+8.00,+3.00,+5.00,+7.00,+15.00,+25.00,-1.00,-1.00,+1.00,+0.00,+2.00,+1.00,-3.00,+3.00
-25.00,-1.00,-1.00,+0.00,-1.00,+1.00,+6.00,+10.00,-19.00,-13.00,-4.00,-3.00,-2.00,-1.00,-5.00,-13.00
+23.00,+18.00,+9.00,+4.00,+4.00,+3.00,+5.00,+1.00,+2.00,+1.00,-1.00,-1.00,+0.00,-1.00,+4.00,+18.00
-29.00,+21.00,+1.00,-1.00,-4.00,-3.00,-16.00,-27.00,-4.00,-2.00,+1.00,-1.00,-1.00,-3.00,+3.00,-12.00
-9.00,-11.00,-4.00,-1.00,-6.00,-8.00,-8.00,-21.00,-2.00,+4.00,+0.00,+0.00,-1.00,+2.00,+8.00,+3.00
-11.00,-2.00,+3.00,+1.00,+4.00,+2.00,+2.00,+11.00,+5.00,+3.00,-2.00,-2.00,-4.00,-6.00,-9.00,-6.00
-9.00,-23.00,-10.00,-1.00,-2.00,-4.00,-7.00,-4.00,+9.00,+9.00,+3.00,+3.00,+1.00,-2.00,-5.00,-15.00
+14.00,-6.00,-1.00,-2.00,+0.00,-1.00,-4.00,-22.00,-5.00,+0.00,-2.00,+0.00,+1.00,+1.00,-8.00,+6.00
+7.00,+3.00,+0.00,-2.00,+1.00,+0.00,-4.00,-15.00,-5.00,-7.00,-4.00,-2.00,-2.00,-1.00,+2.00,+15.00
-21.00,-5.00,-4.00,-4.00,-6.00,-5.00,+0.00,+23.00,-18.00,-14.00,+0.00,+1.00,+1.00,+1.00,+10.00,+0.00
-4.00,-8.00,-2.00,+1.00,+1.00,+1.00,+1.00,+7.00,-5.00,+7.00,-1.00,-2.00,-1.00,-2.00,-2.00,-14.00
+2.00,-3.00,-2.00,+0.00,-1.00,+0.00,+1.00,-8.00,+5.00,-5.00,+0.00,-1.00,-1.00,-3.00,-7.00,+0.00
-21.00,+7.00,+2.00,+0.00,-1.00,+0.00,-1.00,-2.00,+11.00,+7.00,+1.00,+1.00,+0.00,+1.00,+4.00,+1.00
+40.00,+11.00,+4.00,-1.00,-2.00,-5.00,-22.00,-47.00,+1.00,+4.00,-2.00,-1.00,-2.00,-2.00,-1.00,+6.00
-16.00,-18.00,-3.00,-3.00,-2.00,-3.00,-3.00,-78.00,-5.00,-9.00,-3.00,-1.00,-2.00,-3.00,-2.00,-2.00
+45.00,+11.00,+4.00,+5.00,+8.00,+13.00,+45.00,+107.00,-11.00,-7.00,-2.00,-1.00,-2.00,-3.00,-9.00,-35.00
-30.00,+14.00,+3.00,+0.00,+0.00,+2.00,-2.00,+4.00,+5.00,+7.00,+0.00,-3.00,-3.00,-2.00,-9.00,-6.00
+34.00,-8.00,-3.00,-1.00,+1.00,+0.00,+4.00,+2.00,-6.00,-7.00,-1.00,-1.00,-1.00,+0.00,+7.00,+7.00
-12.00,+8.00,+0.00,-2.00,-2.00,-3.00,-12.00,-22.00,+3.00,+2.00,-1.00,-1.00,-1.00,-4.00,-2.00,-14.00
-39.00,-17.00,-5.00,-4.00,-7.00,-10.00,-22.00,-38.00,+3.00,-4.00,-3.00,-2.00,-1.00,+1.00,+16.00,+16.00
-21.00,-39.00,-11.00,-6.00,-6.00,-7.00,-6.00,+1.00,-6.00,-7.00,-6.00,-3.00,-3.00,-2.00,-13.00,+5.00
+11.00,+20.00,+4.00,+2.00,+3.00,+0.00,+0.00,-5.00,+3.00,+9.00,+2.00,+2.00,+0.00,-2.00,-17.00,-21.00
+8.00,-2.00,-1.00,-1.00,+0.00,+0.00,+4.00,+12.00,-5.00,-5.00,+4.00,+3.00,+2.00,+3.00,-1.00,-7.00
-4.00,+20.00,+7.00,+2.00,+0.00,-2.00,-6.00,+20.00,+0.00,-1.00,+1.00,+0.00,+0.00,-1.00,-3.00,+6.00
+5.00,+10.00,+3.00,+1.00,+2.00,-1.00,+2.00,+35.00,+3.00,-3.00,-3.00,-1.00,-1.00,-1.00,+7.00,+1.00
-44.00,-18.00,-8.00,-4.00,-5.00,-2.00,-8.00,-7.00,+1.00,+1.00,-1.00,-2.00,-2.00,-2.00,+0.00,+12.00
+3.00,-17.00,-10.00,-4.00,-5.00,-1.00,-2.00,+1.00,+11.00,+7.00,-1.00,-2.00,-3.00,-1.00,-3.00,+1.00
+3.00,+2.00,-1.00,+0.00,+1.00,+0.00,+3.00,-20.00,+2.00,+3.00,-2.00,-2.00,-1.00,-3.00,-1.00,+3.00
