-8.00,-5.00,-2.00,-3.00,-3.00,-3.00,-1.00,-8.00,-2.00,+0.00,+0.00,-1.00,-1.00,+0.00,+1.00,+2.00
-4.00,-3.00,-1.00,-2.00,-1.00,-1.00,-5.00,-16.00,+2.00,+1.00,-1.00,+1.00,-1.00,+1.00,+0.00,-2.00
+2.00,-1.00,-2.00,-2.00,+0.00,+0.00,+1.00,+6.00,+0.00,-2.00,-2.00,-2.00,+0.00,-1.00,-1.00,+0.00
+6.00,+1.00,-1.00,-2.00,+0.00,-1.00,+1.00,-5.00,-3.00,+0.00,-1.00,-1.00,+0.00,-3.00,+1.00,-5.00
+11.00,+1.00,+1.00,+2.00,+2.00,+1.00,-2.00,-23.00,+3.00,+1.00,-2.00,-1.00,-1.00,-2.00,+0.00,+4.00
-9.00,+0.00,+0.00,+0.00,-2.00,-2.00,+1.00,+14.00,+1.00,-3.00,-1.00,-1.00,+1.00,-2.00,-1.00,+0.00
+0.00,-2.00,-1.00,-1.00,-2.00,-1.00,-2.00,+0.00,-9.00,-1.00,-2.00,+0.00,-3.00,-3.00,-4.00,-3.00
-2.00,-2.00,-1.00,-2.00,-2.00,+2.00,-4.00,-14.00,+0.00,-2.00,-2.00,+0.00,+5.00,-1.00,-1.00,+3.00
-4.00,+0.00,-1.00,-1.00,+0.00,-8.00,-3.00,+2.00,+0.00,+1.00,+1.00,+2.00,-5.00,+1.00,-3.00,-3.00
+9.00,+0.00,-2.00,-1.00,-1.00,+0.00,-6.00,-16.00,-8.00,-5.00,-1.00,-2.00,-8.00,-2.00,-1.00,-10.00
-7.00,-5.00,-3.00,-5.00,-14.00,+1.00,+1.00,+7.00,+3.00,+1.00,+1.00,-1.00,+3.00,+1.00,+0.00,+11.00
+17.00,+16.00,+6.00,+3.00,+7.00,-1.00,+1.00,-8.00,-13.00,-9.00,-4.00,-1.00,+3.00,-3.00,-7.00,-27.00
-7.00,-1.00,-2.00,+2.00,+5.00,-1.00,-2.00,-5.00,+5.00,+2.00,-3.00,-4.00,-1.00,-1.00,+1.00,+4.00
-13.00,-10.00,-3.00,-3.00,-2.00,-1.00,+0.00,+16.00,+0.00,+2.00,+0.00,-4.00,-9.00,-4.00,-2.00,-1.00
-11.00,-2.00,+4.00,+3.00,+8.00,+3.00,-1.00,-2.00,+6.00,+4.00,+1.00,+1.00,-9.00,-1.00,-1.00,-6.00
+8.00,+6.00,+0.00,-1.00,+1.00,+3.00,-2.00,-2.00,-8.00,+0.00,-1.00,-3.00,+3.00,+1.00,+0.00,+0.00
+3.00,+5.00,-1.00,+1.00,+1.00,+1.00,+2.00,+3.00,-6.00,-9.00,-4.00,-10.00,-1.00,-3.00,-1.00,+4.00
+4.00,-1.00,-1.00,-1.00,+0.00,+1.00,-4.00,-31.00,+5.00,-4.00,-3.00,-1.00,+2.00,+0.00,-2.00,+0.00
+0.00,-4.00,-5.00,-3.00,-10.00,-7.00,+1.00,-3.00,-5.00,-3.00,-4.00,-5.00,-7.00,-4.00,-8.00,-8.00
-13.00,-8.00,-2.00,-1.00,-2.00,-1.00,+2.00,+13.00,+15.00,+9.00,+2.00,+5.00,-7.00,-2.00,+3.00,+15.00
-2.00,-3.00,+0.00,-1.00,-13.00,-2.00,-5.00,+0.00,+3.00,+3.00,+0.00,+6.00,+4.00,+2.00,+1.00,-1.00
+6.00,-1.00,+1.00,+1.00,+14.00,+0.00,-1.00,+10.00,+9.00,+1.00,+0.00,+9.00,+19.00,+3.00,+3.00,+10.00
+3.00,-3.00,-2.00,-2.00,+4.00,+0.00,-1.00,-8.00,-6.00,-8.00,-4.00,-9.00,-10.00,-5.00,-1.00,-5.00
+6.00,-5.00,-3.00,-2.00,+0.00,-1.00,-6.00,-14.00,-6.00,-7.00,-3.00,+0.00,-20.00,-3.00,-2.00,-16.00
+3.00,+1.00,-1.00,-1.00,+4.00,+3.00,-6.00,+8.00,-12.00,-7.00,-2.00,-5.00,+7.00,+1.00,-3.00,-8.00
-6.00,-4.00,-3.00,+1.00,-5.00,-7.00,+4.00,+7.00,+5.00,+3.00,-2.00,-2.00,+5.00,-4.00,+6.00,+5.00
+5.00,+3.00,-1.00,-2.00,-13.00,+0.00,+0.00,+5.00,-9.00,-5.00,-3.00,+1.00,+1.00,+4.00,-4.00,-5.00
+2.00,+2.00,+0.00,+3.00,+11.00,+5.00,+1.00,-6.00,+10.00,+2.00,+1.00,+1.00,+0.00,-1.00,+2.00,+6.00
-13.00,-1.00,-2.00,-1.00,-5.00,+3.00,-2.00,-16.00,-7.00,-2.00,+0.00,-2.00,-3.00,-3.00,-1.00,+0.00
-9.00,-8.00,-3.00,-1.00,+10.00,-5.00,-4.00,-18.00,-8.00,-5.00,-1.00,-3.00,+0.00,-1.00,-3.00,-6.00
+3.00,-3.00,-3.00,-1.00,-1.00,+0.00,-1.00,+7.00,-16.00,-6.00,-3.00,-5.00,+1.00,-3.00,-4.00,-11.00
+3.00,-3.00,+4.00,-1.00,-6.00,+0.00,+1.00,-11.00,+20.00,+8.00,+12.00,+5.00,+5.00,+2.00,+6.00,+14.00
-1.00,-4.00,+3.00,-1.00,-6.00,-2.00,+0.00,+15.00,+2.00,+17.00,+3.00,+4.00,+3.00,+2.00,+5.00,+11.00
+2.00,+13.00,+3.00,+0.00,+0.00,+0.00,-2.00,-4.00,-16.00,-12.00,-9.00,+0.00,-1.00,-2.00,-3.00,-12.00
+1.00,+2.00,+0.00,+1.00,+3.00,+1.00,+1.00,-1.00,+3.00,+13.00,-2.00,-2.00,-3.00,-1.00,-3.00,-11.00
-9.00,-17.00,-8.00,-7.00,-20.00,-11.00,-6.00,+0.00,-7.00,-5.00,-1.00,-2.00,+3.00,+0.00,-4.00,-2.00
+8.00,+1.00,-2.00,-1.00,+12.00,+5.00,+3.00,-2.00,+5.00,-5.00,-1.00,+6.00,+2.00,-1.00,-5.00,-7.00
+1.00,+13.00,+4.00,+2.00,-7.00,+2.00,+0.00,+4.00,+10.00,+6.00,+3.00,-5.00,-10.00,+2.00,+4.00,+14.00
+2.00,-2.00,+0.00,-1.00,+7.00,-5.00,-1.00,-10.00,-9.00,-14.00,-1.00,+6.00,+1.00,-4.00,+1.00,-1.00
+6.00,+1.00,-4.00,-2.00,-2.00,-7.00,+0.00,+10.00,-6.00,-1.00,-3.00,-6.00,-7.00,-1.00,-3.00,-3.00
-26.00,-14.00,-6.00,-6.00,-11.00,-7.00,-3.00,-19.00,+5.00,+0.00,-5.00,-8.00,-2.00,-2.00,-3.00,-6.00
+0.00,+2.00,-4.00,-5.00,+5.00,+14.00,-2.00,-7.00,-9.00,-7.00,-5.00,+4.00,+0.00,+1.00,-4.00,-9.00
+32.00,+15.00,+2.00,+1.00,+2.00,+3.00,+3.00,-68.00,-1.00,+2.00,+2.00,-1.00,+0.00,-1.00,+3.00,+4.00
-12.00,-5.00,+7.00,+3.00,+4.00,+6.00,+4.00,+9.00,-1.00,-6.00,-4.00,-3.00,+3.00,+0.00,+1.00,-14.00
+4.00,-1.00,-4.00,-1.00,+4.00,-6.00,+2.00,-2.00,-1.00,+1.00,+0.00,+1.00,-7.00,-4.00,+1.00,+5.00
-3.00,-7.00,-2.00,-5.00,-17.00,-14.00,-4.00,+12.00,-3.00,-1.00,+0.00,-4.00,-4.00,+0.00,+0.00,+4.00
-6.00,-20.00,-9.00,-4.00,-2.00,+6.00,-7.00,-8.00,+1.00,+2.00,-1.00,+5.00,+16.00,+2.00,-3.00,-15.00
+7.00,+10.00,-7.00,-3.00,+1.00,-5.00,-3.00,-3.00,+10.00,+4.00,+6.00,+3.00,-2.00,-1.00,+0.00,+19.00
+9.00,+11.00,+8.00,+1.00,+2.00,+9.00,-2.00,+1.00,-9.00,-10.00,-13.00,-7.00,-5.00,-1.00,-3.00,-9.00
+12.00,+20.00,+8.00,+2.00,+5.00,-9.00,+2.00,+0.00,-10.00,-6.00,-1.00,-2.00,+9.00,+2.00,+0.00,-4.00
-13.00,+1.00,+2.00,+4.00,+1.00,+0.00,+0.00,+22.00,+20.00,+0.00,-4.00,-10.00,-19.00,-6.00,-5.00,+4.00
-9.00,-10.00,-7.00,+0.00,+7.00,+2.00,-4.00,-12.00,-5.00,+3.00,-2.00,-1.00,+4.00,-2.00,-1.00,+4.00
-16.00,-6.00,-1.00,-2.00,-9.00,-1.00,+0.00,+20.00,-1.00,+1.00,+1.00,-2.00,-5.00,-2.00,-1.00,-9.00
-19.00,-15.00,-4.00,-3.00,-5.00,-3.00,-2.00,-1.00,+8.00,+10.00,+6.00,+3.00,+3.00,+0.00,-1.00,+4.00
+0.00,+7.00,+1.00,+0.00,-2.00,-4.00,+0.00,+16.00,-15.00,-11.00,-6.00,-3.00,+1.00,-2.00,-3.00,-2.00
+12.00,+7.00,+7.00,+1.00,-6.00,-3.00,+2.00,+1.00,+10.00,+4.00,+4.00,+5.00,+1.00,+1.00,-2.00,+1.00
+23.00,+9.00,-3.00,-1.00,+9.00,+1.00,-2.00,-45.00,-4.00,-2.00,+0.00,+2.00,+8.00,+3.00,+1.00,+4.00
-8.00,-10.00,+1.00,+1.00,+5.00,+5.00,+4.00,+19.00,-18.00,-18.00,-6.00,-8.00,-14.00,-1.00,-2.00,-13.00
-3.00,+4.00,-4.00,-2.00,+2.00,-3.00,-1.00,-2.00,-8.00,-6.00,+6.00,+0.00,-3.00,-1.00,-2.00,-15.00
-3.00,+6.00,+3.00,+0.00,-16.00,-7.00,-5.00,-4.00,+1.00,+0.00,-7.00,-5.00,-2.00,-1.00,-2.00,-18.00
+14.00,+7.00,-1.00,-2.00,-7.00,-2.00,-1.00,-3.00,-8.00,-2.00,+1.00,+13.00,+9.00,+0.00,-1.00,-1.00
-1.00,-22.00,-8.00,+1.00,+6.00,+4.00,+4.00,-1.00,+10.00,+8.00,+0.00,-4.00,-14.00,-1.00,-1.00,-2.00
-10.00,+7.00,+4.00,-2.00,-2.00,-1.00,-6.00,+12.00,+2.00,+0.00,+8.00,-2.00,+3.00,+4.00,+1.00,+12.00
-7.00,-9.00,-3.00,-1.00,+13.00,+12.00,+2.00,-17.00,+4.00,-10.00,-14.00,-6.00,-19.00,-3.00,-1.00,+6.00
-4.00,+14.00,+3.00,+3.00,+9.00,-3.00,-3.00,-1.00,-12.00,-8.00,-6.00,-10.00,+1.00,-6.00,-5.00,-14.00
+4.00,-3.00,-2.00,-4.00,-14.00,-1.00,+1.00,+17.00,-10.00,-6.00,-2.00,-2.00,+8.00,-3.00,-3.00,-6.00
-1.00,-11.00,-6.00,-3.00,-3.00,-5.00,+2.00,+5.00,+39.00,+21.00,+15.00,+9.00,+8.00,+3.00,+10.00,+28.00
+4.00,+5.00,+2.00,-2.00,-4.00,+1.00,+1.00,+19.00,-8.00,-3.00,-7.00,-6.00,+3.00,+0.00,-3.00,+0.00
-18.00,-15.00,-8.00,-6.00,-19.00,-13.00,-6.00,-1.00,+3.00,+2.00,+1.00,+0.00,-4.00,-2.00,-2.00,+8.00
+0.00,+5.00,+6.00,+1.00,+11.00,+8.00,-3.00,-1.00,-7.00,-1.00,+0.00,+13.00,+2.00,-2.00,-5.00,-7.00
+3.00,-1.00,+3.00,+3.00,+7.00,-4.00,-1.00,+7.00,-7.00,-6.00,-9.00,-16.00,-11.00,-3.00,-1.00,-2.00
+6.00,+8.00,-2.00,-2.00,+1.00,-1.00,-2.00,+9.00,+0.00,+1.00,+3.00,-1.00,+3.00,-1.00,+2.00,+7.00
-2.00,-6.00,-9.00,+0.00,-1.00,+3.00,+4.00,-10.00,+1.00,-3.00,+3.00,-2.00,-6.00,-1.00,-1.00,+0.00
+11.00,+5.00,+9.00,-1.00,-9.00,-14.00,-1.00,-7.00,-9.00,-1.00,+19.00,+9.00,+9.00,-3.00,+0.00,+8.00
+0.00,+4.00,+5.00,+0.00,-9.00,+3.00,+1.00,+16.00,-9.00,-9.00,-32.00,-7.00,-6.00,-2.00,-5.00,+2.00
-5.00,-8.00,-5.00,-1.00,+6.00,+3.00,-2.00,-9.00,-11.00,-6.00,-5.00,-1.00,-4.00,-3.00,-2.00,-6.00
+9.00,-1.00,+1.00,+3.00,+8.00,+5.00,+4.00,+11.00,-6.00,+8.00,+0.00,-5.00,-8.00,-3.00,+0.00,-8.00
-6.00,-3.00,-5.00,-2.00,-1.00,+1.00,-5.00,-13.00,+30.00,+16.00,+7.00,-4.00,+4.00,-1.00,+3.00,+12.00
-3.00,-3.00,-3.00,-4.00,+0.00,-4.00,-3.00,-1.00,-13.00,-12.00,-1.00,+4.00,+3.00,-3.00,-2.00,-7.00
-2.00,-5.00,-2.00,+1.00,+2.00,-2.00,+2.00,-9.00,+9.00,+6.00,+1.00,-5.00,-6.00,-5.00,-1.00,+4.00
+2.00,+11.00,-1.00,-3.00,-3.00,+2.00,-2.00,+14.00,-3.00,-13.00,+0.00,+1.00,+2.00,+1.00,-1.00,+0.00
-21.00,-8.00,-4.00,-4.00,-15.00,-7.00,-6.00,+11.00,-6.00,-7.00,-11.00,+0.00,+3.00,+0.00,-4.00,-14.00
-2.00,+2.00,+2.00,+2.00,+7.00,-1.00,-3.00,+1.00,+0.00,+8.00,+3.00,+8.00,+2.00,+2.00,+1.00,+10.00
-1.00,-8.00,-5.00,-4.00,+0.00,-3.00,-2.00,-10.00,-5.00,-5.00,-4.00,-7.00,-3.00,-2.00,-3.00,-5.00
+15.00,-5.00,+2.00,+0.00,+4.00,+0.00,+2.00,-14.00,-6.00,-1.00,+0.00,-4.00,-7.00,-5.00,-5.00,-10.00
-5.00,+3.00,-3.00,+0.00,-12.00,+4.00,-2.00,-18.00,+21.00,+10.00,-3.00,-4.00,-3.00,+0.00,+6.00,+16.00
-6.00,-10.00,-8.00,-3.00,+1.00,+3.00,-4.00,-12.00,-9.00,-1.00,+2.00,+6.00,+1.00,+4.00,+4.00,+1.00
-4.00,+11.00,+7.00,+6.00,+0.00,-8.00,+3.00,+4.00,-7.00,+0.00,+5.00,-1.00,-22.00,-6.00,-3.00,-3.00
-13.00,+7.00,+6.00,+0.00,-1.00,+2.00,+3.00,+31.00,+0.00,-8.00,-2.00,-6.00,+17.00,+0.00,-2.00,+7.00
+8.00,+0.00,-5.00,-1.00,+9.00,+1.00,-4.00,-10.00,-25.00,-9.00,-8.00,-6.00,-9.00,-5.00,-7.00,-17.00
+0.00,+2.00,+0.00,+2.00,+0.00,+3.00,+7.00,+8.00,+19.00,+5.00,+1.00,-6.00,+1.00,-1.00,-2.00,+2.00
-4.00,-11.00,-10.00,-6.00,-4.00,+0.00,-3.00,+1.00,+3.00,+9.00,+3.00,+3.00,+0.00,+3.00,+2.00,-6.00
-1.00,-12.00,-1.00,-1.00,-18.00,-10.00,-5.00,-1.00,-1.00,-5.00,+4.00,-1.00,-9.00,-2.00,-2.00,-9.00
+4.00,-1.00,-4.00,-2.00,+6.00,+2.00,+0.00,+38.00,+4.00,+10.00,-12.00,+1.00,-2.00,-3.00,-4.00,-5.00
-11.00,-8.00,-6.00,+0.00,+9.00,-5.00,-2.00,+2.00,-42.00,-21.00,-8.00,-5.00,-1.00,-6.00,-9.00,-27.00
-11.00,+5.00,+6.00,+2.00,-2.00,-3.00,+3.00,-6.00,+27.00,+2.00,-6.00,-9.00,+0.00,-4.00,-2.00,+5.00
+2.00,-1.00,+2.00,+2.00,+5.00,+2.00,+3.00,+10.00,+1.00,+0.00,+3.00,+6.00,+7.00,+3.00,+5.00,+15.00
+7.00,-7.00,-3.00,-1.00,-3.00,-2.00,-2.00,-27.00,-8.00,-11.00,+0.00,-9.00,-11.00,-1.00,-5.00,-22.00
-20.00,+1.00,+3.00,-4.00,-7.00,-3.00,-3.00,+16.00,+0.00,+4.00,+2.00,+4.00,-1.00,-3.00,-3.00,+5.00
-8.00,+4.00,-3.00,-3.00,-11.00,-4.00,-8.00,+16.00,-34.00,-16.00,-7.00,-2.00,+2.00,-1.00,-7.00,-19.00
-3.00,-15.00,+1.00,-1.00,-6.00,-2.00,+5.00,+3.00,+25.00,+8.00,-1.00,+6.00,+4.00,+0.00,+1.00,+7.00
-1.00,+1.00,-2.00,+1.00,+7.00,-6.00,+2.00,-25.00,+8.00,+12.00,+3.00,+4.00,+1.00,+1.00,+4.00,+17.00
+6.00,+3.00,+1.00,+2.00,+9.00,+5.00,-2.00,-16.00,+1.00,-7.00,-2.00,-7.00,-7.00,-1.00,-7.00,-7.00
-2.00,-4.00,-10.00,-5.00,-8.00,-7.00,-2.00,-9.00,-9.00,+1.00,+6.00,-3.00,+2.00,+1.00,+6.00,-19.00
-1.00,+4.00,+5.00,+0.00,-3.00,-2.00,+4.00,+16.00,-10.00,-2.00,-6.00,-4.00,-9.00,-5.00,-6.00,-18.00
+7.00,+2.00,-4.00,-3.00,-5.00,-7.00,-19.00,+2.00,-4.00,-17.00,-1.00,+6.00,+5.00,+5.00,+9.00,+5.00
+8.00,-5.00,-2.00,-1.00,-16.00,-3.00,+17.00,-8.00,+30.00,+8.00,+5.00,+6.00,+18.00,+2.00,+0.00,+16.00
-11.00,-5.00,-1.00,+4.00,+23.00,+10.00,+1.00,-19.00,-12.00,-5.00,-1.00,+9.00,+16.00,+6.00,-6.00,+7.00
-2.00,-4.00,-2.00,+1.00,+0.00,-7.00,-4.00,-11.00,-5.00,+0.00,-8.00,-17.00,-25.00,-8.00,+1.00,+7.00
+5.00,-3.00,-2.00,+0.00,+0.00,+2.00,+5.00,-7.00,-20.00,-8.00,-2.00,-7.00,-9.00,-7.00,-12.00,-29.00
-5.00,-10.00,-4.00,-4.00,-11.00,-7.00,-10.00,-10.00,+22.00,+14.00,+4.00,+2.00,+0.00,+0.00,+7.00,+20.00
+14.00,+18.00,+11.00,+3.00,-6.00,+0.00,+0.00,-2.00,-14.00,-4.00,+2.00,+11.00,+10.00,+2.00,-3.00,+2.00
-16.00,-11.00,-8.00,-3.00,+3.00,+0.00,+2.00,+26.00,+26.00,+9.00,+5.00,+5.00,+6.00,+4.00,+7.00,+11.00
+8.00,+5.00,-1.00,+0.00,-15.00,-6.00,-5.00,+3.00,-10.00,-13.00,-7.00,+0.00,+6.00,+2.00,-1.00,+2.00
-3.00,+3.00,+4.00,+3.00,+16.00,+9.00,-10.00,-2.00,-1.00,+11.00,+6.00,+3.00,+12.00,+4.00,+1.00,-2.00
+5.00,-5.00,-5.00,-3.00,-3.00,-1.00,+6.00,+16.00,-32.00,-18.00,-12.00,-13.00,-22.00,-8.00,-2.00,-6.00
+3.00,-6.00,-1.00,+0.00,+9.00,+2.00,-3.00,-24.00,+9.00,+3.00,-3.00,-2.00,+5.00,-2.00,-6.00,+3.00
-16.00,-5.00,-2.00,-4.00,-6.00,+3.00,-1.00,+20.00,+7.00,+4.00,+3.00,-2.00,+4.00,-1.00,+3.00,+14.00
-3.00,-2.00,-3.00,-2.00,-6.00,-7.00,-6.00,-30.00,-9.00,-5.00,-5.00,+1.00,-11.00,+2.00,-2.00,-10.00
+8.00,-1.00,+0.00,-3.00,-5.00,-3.00,-2.00,+4.00,+15.00,+2.00,+2.00,+4.00,+10.00,+4.00,+7.00,+29.00
+0.00,-5.00,-2.00,-4.00,-11.00,-1.00,-4.00,-15.00,-9.00,-7.00,-2.00,+0.00,+2.00,+4.00,+2.00,-4.00
+10.00,+0.00,-5.00,+0.00,+23.00,+21.00,+10.00,-10.00,+6.00,-3.00,-1.00,+9.00,-7.00,-10.00,-3.00,+10.00
-2.00,-4.00,+6.00,+4.00,+11.00,+6.00,-13.00,-20.00,-21.00,-3.00,-6.00,-17.00,-3.00,+0.00,+1.00,-28.00
-9.00,+0.00,-1.00,-1.00,+0.00,+5.00,+6.00,-7.00,+9.00,+7.00,+2.00,+0.00,-1.00,-2.00,-3.00,+14.00
+13.00,+9.00,-3.00,-2.00,-2.00,-8.00,-3.00,+2.00,-45.00,-10.00,+1.00,-3.00,-6.00,+1.00,-12.00,-23.00
-8.00,-6.00,+3.00,+0.00,-13.00,-2.00,+10.00,+1.00,+40.00,+12.00,+1.00,-7.00,-1.00,-1.00,+0.00,+3.00
+5.00,+15.00,+4.00,+0.00,+1.00,-2.00,-1.00,+19.00,+28.00,+20.00,+9.00,+10.00,+5.00,+3.00,+8.00,+31.00
+3.00,-16.00,-6.00,-4.00,+7.00,+0.00,-12.00,-18.00,-5.00,-6.00,+0.00,+0.00,-2.00,+1.00,+0.00,-12.00
-3.00,+5.00,-3.00,-4.00,-10.00,-7.00,-2.00,-1.00,+5.00,-2.00,-1.00,+1.00,-2.00,+2.00,+8.00,+7.00
+4.00,-4.00,+3.00,+3.00,+9.00,-2.00,-2.00,-16.00,-26.00,-20.00,-10.00,-5.00,+3.00,-4.00,-8.00,-7.00
-16.00,-15.00,-9.00,-6.00,-11.00,-7.00,+0.00,+1.00,-23.00,-16.00,-6.00,-9.00,-13.00,-9.00,-3.00,-2.00
+9.00,+23.00,+10.00,+4.00,-10.00,-7.00,-4.00,-5.00,+25.00,-1.00,-3.00,+3.00,+1.00,+0.00,+0.00,+5.00
-20.00,+9.00,+2.00,+2.00,+17.00,+0.00,-1.00,+3.00,+33.00,+37.00,+12.00,+11.00,+15.00,+5.00,+5.00,+23.00
+17.00,+0.00,-3.00,-1.00,+2.00,+1.00,+1.00,-13.00,+6.00,+13.00,+5.00,-5.00,-10.00,+6.00,+6.00,+10.00
+13.00,-10.00,-5.00,-4.00,-6.00,+4.00,+10.00,+11.00,-18.00,-10.00,-6.00,-2.00,-6.00,-5.00,-1.00,+10.00
-15.00,-12.00,-4.00,-7.00,-23.00,-17.00,-5.00,+7.00,+17.00,+2.00,-1.00,+4.00,+9.00,+1.00,+4.00,+9.00
+0.00,-14.00,-7.00,-3.00,+16.00,+19.00,-4.00,-7.00,-18.00,-20.00,-5.00,+4.00,+0.00,-4.00,-6.00,-16.00
-3.00,-1.00,+2.00,-1.00,-10.00,-2.00,+2.00,+13.00,-13.00,-7.00,-7.00,-13.00,-29.00,-6.00,-6.00,-24.00
+0.00,+12.00,+6.00,+1.00,-2.00,-8.00,+1.00,+3.00,-25.00,-32.00,-7.00,-3.00,-2.00,-1.00,-1.00,-8.00
+0.00,-3.00,-2.00,+1.00,+13.00,-6.00,+2.00,+2.00,+24.00,+27.00,+14.00,+7.00,+14.00,+0.00,+2.00,+6.00
-3.00,-11.00,-3.00,+0.00,+7.00,-1.00,+0.00,-11.00,-1.00,+15.00,+1.00,-12.00,-14.00,-8.00,-12.00,-16.00
-1.00,+7.00,+2.00,-1.00,-3.00,-10.00,-4.00,-1.00,-16.00,-10.00,-1.00,+0.00,+6.00,+1.00,-2.00,+4.00
-7.00,-7.00,-1.00,+4.00,-2.00,+9.00,+6.00,+3.00,+4.00,-8.00,-6.00,+2.00,-5.00,-5.00,-9.00,-24.00
-3.00,-3.00,-3.00,-3.00,+4.00,+9.00,-2.00,-1.00,-5.00,+2.00,+1.00,-1.00,-4.00,-1.00,+0.00,+7.00
+2.00,+5.00,-4.00,+0.00,-5.00,+0.00,-1.00,-3.00,-19.00,-20.00,-9.00,+0.00,-4.00,-5.00,-2.00,-5.00
-10.00,-12.00,-3.00,-4.00,+0.00,+0.00,-1.00,+8.00,+20.00,+33.00,+8.00,+5.00,+13.00,+2.00,+4.00,+8.00
+1.00,+2.00,-1.00,-2.00,-6.00,-9.00,-3.00,+6.00,-7.00,-22.00,-9.00,-5.00,-12.00,-4.00,-8.00,-17.00
+6.00,-9.00,-2.00,-1.00,-8.00,-6.00,+1.00,+7.00,-6.00,+0.00,+1.00,+0.00,+7.00,+0.00,+2.00,+6.00
-14.00,-13.00,-2.00,-1.00,+7.00,+13.00,-1.00,-6.00,-12.00,-10.00,-3.00,+5.00,+16.00,+1.00,+1.00,-14.00
+17.00,+5.00,-3.00,-5.00,-9.00,-3.00,-7.00,-20.00,-4.00,-11.00,-1.00,-3.00,-19.00,+3.00,-3.00,-2.00
+7.00,+25.00,+2.00,-3.00,-2.00,-1.00,+5.00,+45.00,+7.00,+28.00,+5.00,+4.00,+13.00,-2.00,+6.00,+26.00
+8.00,+14.00,-3.00,+1.00,-4.00,+4.00,+7.00,-7.00,+19.00,-2.00,-2.00,-8.00,+9.00,+8.00,+11.00,-1.00
+9.00,+26.00,+9.00,+4.00,+4.00,-5.00,+2.00,+6.00,-4.00,+7.00,-2.00,+3.00,-20.00,-6.00,-11.00,+4.00
-10.00,+10.00,+10.00,+4.00,-6.00,-3.00,+4.00,-8.00,-12.00,-16.00,-3.00,-11.00,+4.00,-4.00,-2.00,-1.00
-12.00,-17.00,-3.00,+3.00,+12.00,+10.00,+3.00,-8.00,+8.00,+4.00,+2.00,+0.00,-5.00,+1.00,+4.00,-16.00
+1.00,-12.00,-6.00,-3.00,+3.00,+1.00,-7.00,+7.00,-11.00,+0.00,+2.00,-3.00,-24.00,+0.00,+3.00,+6.00
+0.00,-16.00,-4.00,-5.00,-13.00,-13.00,-5.00,+6.00,-8.00,-16.00,-11.00,-9.00,+0.00,-4.00,+1.00,+0.00
+10.00,+30.00,+8.00,+3.00,+8.00,+15.00,+1.00,+6.00,+2.00,-9.00,-10.00,+3.00,+10.00,+3.00,+4.00,+10.00
-5.00,-15.00,-7.00,-4.00,-4.00,-3.00,-4.00,-17.00,+2.00,+16.00,+5.00,-2.00,-6.00,-2.00,-12.00,-17.00
+31.00,+20.00,+6.00,-1.00,+1.00,+0.00,-3.00,+12.00,-64.00,-21.00,-13.00,-9.00,+0.00,-9.00,-21.00,-57.00
+0.00,+7.00,+3.00,+1.00,+0.00,+2.00,+4.00,-4.00,+47.00,+7.00,+7.00,+5.00,+1.00,+11.00,+13.00,+31.00
-12.00,-1.00,-4.00,-4.00,-8.00,-10.00,-7.00,+6.00,+23.00,+17.00,+7.00,+7.00,+2.00,+1.00,+3.00,+11.00
-2.00,-1.00,-4.00,-4.00,-27.00,-10.00,-3.00,-5.00,+4.00,-7.00,-3.00,+2.00,+8.00,+1.00,+2.00,+10.00
-1.00,+3.00,+7.00,+5.00,+40.00,+19.00,+5.00,+1.00,-20.00,-18.00,-4.00,+2.00,+17.00,-3.00,-11.00,-13.00
-6.00,-5.00,-6.00,-4.00,-8.00,-5.00,-25.00,-16.00,-11.00,-8.00,-2.00,-8.00,-20.00,-1.00,+5.00,-20.00
+0.00,-10.00,-1.00,+4.00,+14.00,+3.00,+24.00,+14.00,+4.00,+4.00,-5.00,-1.00,+6.00,-3.00,-3.00,-1.00
+22.00,+17.00,+3.00,-1.00,-1.00,-3.00,+0.00,+27.00,-8.00,-5.00,-3.00,-9.00,-5.00,-3.00,-7.00,+25.00
-24.00,-39.00,-11.00,-4.00,-9.00,-3.00,-3.00,-18.00,-15.00,-18.00,-1.00,+3.00,+9.00,+1.00,+7.00,-12.00
-8.00,+24.00,+6.00,+4.00,+0.00,-5.00,+0.00,+33.00,+5.00,-2.00,+1.00,+1.00,-7.00,-2.00,-12.00,+0.00
-20.00,-10.00,-5.00,-3.00,-4.00,-2.00,-4.00,+10.00,+11.00,+2.00,+1.00,+3.00,+12.00,-2.00,+10.00,+8.00
+7.00,+21.00,+1.00,-2.00,-4.00,-13.00,-2.00,-14.00,+21.00,+15.00,+5.00,+0.00,-17.00,+2.00,+5.00,-2.00
-6.00,-21.00,-6.00,-1.00,-11.00,-5.00,+7.00,-15.00,-22.00,-9.00,-5.00,+3.00,-9.00,-4.00,-9.00,-11.00
-9.00,-12.00,-3.00,+3.00,+22.00,+15.00,+0.00,+0.00,-7.00,-4.00,-5.00,-21.00,+0.00,-12.00,+1.00,+1.00
+17.00,+8.00,+3.00,+2.00,-8.00,+4.00,+14.00,+6.00,-11.00,-3.00,+2.00,+1.00,-7.00,+3.00,-7.00,-12.00
-8.00,-13.00,-2.00,-1.00,+9.00,+13.00,+2.00,-1.00,+2.00,+10.00,+7.00,+10.00,+16.00,+7.00,-1.00,+13.00
+3.00,+9.00,-2.00,-3.00,-13.00,-8.00,-4.00,-6.00,-2.00,-8.00,-8.00,-9.00,-11.00,-4.00,-3.00,+2.00
+18.00,-21.00,-9.00,-2.00,-10.00,-6.00,+12.00,-11.00,-13.00,-4.00,-2.00,+3.00,+2.00,-3.00,+3.00,-14.00
-21.00,-12.00,-2.00,+0.00,+3.00,-9.00,-27.00,-8.00,-20.00,+6.00,-8.00,-15.00,-15.00,-28.00,-20.00,-20.00
+11.00,+10.00,+10.00,+5.00,+5.00,+17.00,-6.00,-7.00,-6.00,-28.00,+2.00,+0.00,+2.00,+4.00,-8.00,-6.00
-11.00,-4.00,+4.00,+5.00,+10.00,+5.00,-14.00,+5.00,-28.00,-6.00,-2.00,+1.00,+4.00,+16.00,+12.00,+9.00
+2.00,+8.00,-1.00,-3.00,-14.00,-16.00,+1.00,-2.00,+21.00,+20.00,+2.00,+3.00,+2.00,+11.00,-1.00,+8.00
-13.00,-18.00,-8.00,-4.00,+8.00,+16.00,-3.00,-6.00,+0.00,-4.00,+2.00,+8.00,+15.00,+8.00,+0.00,+2.00
-28.00,-14.00,-9.00,-5.00,-6.00,-6.00,-2.00,-10.00,-5.00,-12.00,-8.00,-4.00,+8.00,-6.00,-3.00,-9.00
-2.00,-9.00,-4.00,-4.00,-14.00,-2.00,-7.00,-15.00,+8.00,+1.00,-4.00,-2.00,-15.00,-21.00,-25.00,-3.00
+7.00,-6.00,-5.00,+2.00,+18.00,+16.00,+18.00,+17.00,+11.00,+20.00,+2.00,-2.00,+3.00,+9.00,+5.00,+5.00
+1.00,+5.00,+0.00,-1.00,-2.00,-13.00,-14.00,-14.00,-26.00,-32.00,-4.00,+1.00,+0.00,+0.00,-3.00,-11.00
+8.00,+8.00,+0.00,+1.00,+7.00,-7.00,-36.00,-18.00,+25.00,+28.00,+7.00,-2.00,-1.00,-1.00,+10.00,+1.00
+6.00,+10.00,+2.00,-1.00,-3.00,-3.00,+19.00,+13.00,-24.00,-20.00,-2.00,-2.00,-1.00,-6.00,-5.00,+1.00
+9.00,-4.00,-1.00,+0.00,-6.00,-1.00,+0.00,-15.00,+15.00,-16.00,-9.00,-8.00,-2.00,-2.00,+3.00,+5.00
-7.00,+0.00,-9.00,-3.00,-5.00,-10.00,+7.00,-1.00,+39.00,+43.00,+18.00,+7.00,-2.00,+5.00,-1.00,+12.00
+8.00,-6.00,+0.00,-1.00,-5.00,-13.00,-9.00,+1.00,-45.00,-23.00,-10.00,+4.00,+2.00,-4.00,+2.00,-25.00
-33.00,-36.00,-6.00,+1.00,+0.00,-1.00,+19.00,+0.00,+43.00,+34.00,+3.00,-10.00,+3.00,+0.00,+12.00,+25.00
+19.00,+32.00,+1.00,-3.00,-4.00,-6.00,-13.00,-7.00,-22.00,+8.00,+8.00,+5.00,+8.00,-11.00,-22.00,-26.00
-3.00,-7.00,-2.00,-4.00,-8.00,+2.00,+3.00,+14.00,+19.00,-5.00,-6.00,-6.00,-27.00,+1.00,+8.00,+17.00
-13.00,+5.00,+0.00,+2.00,-1.00,-7.00,+5.00,-5.00,+6.00,-11.00,-4.00,+5.00,+20.00,+5.00,+9.00,+20.00
+2.00,-3.00,-3.00,-6.00,-23.00,-1.00,-3.00,+17.00,+10.00,+17.00,+1.00,+3.00,-2.00,+5.00,-7.00,-17.00
-2.00,+14.00,+21.00,+12.00,+41.00,+18.00,+12.00,+5.00,+13.00,-5.00,-8.00,+6.00,+1.00,-4.00,-3.00,+14.00
-2.00,+1.00,-19.00,-11.00,-11.00,+2.00,+5.00,-4.00,-16.00,+3.00,+7.00,-16.00,-21.00,+0.00,+14.00,-2.00
+39.00,+58.00,+21.00,+3.00,-3.00,+18.00,-8.00,+5.00,-35.00,-38.00,-14.00,-1.00,+5.00,-43.00,-18.00,-24.00
+29.00,+16.00,+15.00,+12.00,+6.00,-19.00,+18.00,+11.00,+57.00,+4.00,+3.00,+4.00,+1.00,+38.00,+19.00,+21.00
-29.00,-26.00,-4.00,+1.00,+5.00,+27.00,-16.00,+4.00,-50.00,-15.00,-4.00,+1.00,+1.00,+39.00,+1.00,-30.00
-38.00,-38.00,-23.00,-10.00,-12.00,-26.00,-15.00,-12.00,+20.00,+16.00,-5.00,-16.00,-1.00,+4.00,-27.00,+2.00
-5.00,-35.00,-5.00,+1.00,+3.00,+14.00,+19.00,-10.00,-2.00,-7.00,-4.00,-6.00,-20.00,+12.00,+9.00,+16.00
-84.00,-57.00,-31.00,-13.00,+7.00,-6.00,-28.00,-32.00,-16.00,-27.00,-8.00,-2.00,+4.00,-26.00,-19.00,-37.00
+81.00,+70.00,+44.00,+9.00,-35.00,-8.00,+11.00,+31.00,-44.00,-39.00,-5.00,-10.00,+3.00,-17.00,-5.00,+23.00
+5.00,-17.00,-9.00,+4.00,+47.00,+18.00,+15.00,+15.00,-2.00,+15.00,+7.00,+27.00,+31.00,+11.00,+19.00,-11.00
+3.00,-37.00,-16.00,-4.00,-10.00,-15.00,-1.00,-10.00,-14.00,+8.00,+3.00,-18.00,-38.00,-8.00,-9.00,+0.00
-26.00,+1.00,-1.00,-1.00,+6.00,+5.00,-12.00,-2.00,+32.00,+41.00,+8.00,+3.00,+6.00,-6.00,+5.00,+7.00
-44.00,-5.00,-11.00,-7.00,-13.00,-38.00,-1.00,-10.00,+3.00,+25.00,+8.00,-3.00,-15.00,-4.00,+2.00,-8.00
+16.00,+3.00,+11.00,+2.00,-23.00,+13.00,-7.00,+9.00,+4.00,-3.00,-5.00,+6.00,+7.00,-10.00,-12.00,+10.00
+16.00,+44.00,+2.00,-1.00,+16.00,-7.00,+13.00,-37.00,-63.00,-55.00,-10.00,+4.00,+20.00,-2.00,-3.00,-25.00
-4.00,-1.00,+2.00,+0.00,+19.00,+15.00,+2.00,+32.00,+69.00,+35.00,+17.00,+5.00,+12.00,+16.00,+13.00,+52.00
+8.00,-28.00,-17.00,-8.00,-9.00,-1.00,-9.00,-6.00,+8.00,+2.00,-9.00,-5.00,+1.00,-2.00,-10.00,-6.00
+0.00,+31.00,+16.00,+5.00,+0.00,-5.00,-2.00,-5.00,-28.00,-11.00,+1.00,-2.00,-6.00,-3.00,+8.00,+5.00
-7.00,-43.00,-10.00,-4.00,-25.00,-27.00,-8.00,+11.00,+21.00,+22.00,+5.00,+6.00,-3.00,+0.00,+0.00,+8.00
+16.00,+54.00,+6.00,-2.00,+6.00,+26.00,-10.00,-7.00,-15.00,-8.00,+5.00,+2.00,-2.00,-4.00,-4.00,-12.00
-52.00,-50.00,-11.00,-3.00,+13.00,-11.00,+1.00,-24.00,-20.00,-32.00,-11.00,-5.00,-10.00,-7.00,-4.00,-12.00
+69.00,+52.00,+22.00,+11.00,+7.00,+2.00,+16.00,+34.00,+40.00,-17.00,-12.00,-14.00,-11.00,-4.00,-14.00,+6.00
-38.00,-38.00,-21.00,-11.00,-18.00,-13.00,-5.00,-1.00,-5.00,+42.00,+14.00,+6.00,+10.00,+18.00,+7.00,-9.00
+9.00,+21.00,+4.00,+5.00,+10.00,+9.00,+2.00,-8.00,-79.00,-41.00,-22.00,-6.00,-4.00,-8.00,-19.00,-25.00
+1.00,-25.00,-4.00,-1.00,-6.00,-3.00,-6.00,+2.00,+79.00,+65.00,+27.00,+8.00,-8.00,-8.00,+10.00,+35.00
-30.00,-7.00,+2.00,+0.00,-9.00,+5.00,-7.00,-15.00,-24.00,-45.00,-7.00,+5.00,+10.00,+1.00,-10.00,-27.00
-21.00,+16.00,-9.00,-5.00,+13.00,+4.00,+2.00,+2.00,+32.00,+50.00,+11.00,-11.00,-18.00,-4.00,+9.00,+9.00
+28.00,-22.00,-8.00,-9.00,-26.00,-4.00,-9.00,+6.00,-9.00,-29.00,-15.00,-8.00,-3.00,-8.00,-5.00,-1.00
+12.00,+14.00,+18.00,+8.00,+10.00,-21.00,+11.00,+0.00,+6.00,+28.00,+1.00,+7.00,+6.00,-3.00,+4.00,-22.00
-14.00,-28.00,-7.00,+1.00,+9.00,-3.00,+7.00,-4.00,+4.00,+19.00,+6.00,-7.00,-8.00,-5.00,-4.00,-4.00
-16.00,-30.00,-7.00,-1.00,-5.00,+10.00,-7.00,-2.00,+26.00,-17.00,-3.00,+1.00,+2.00,-7.00,-16.00,+38.00
+32.00,+78.00,+17.00,+5.00,+6.00,+0.00,+5.00,-1.00,-29.00,-19.00,-2.00,-2.00,-13.00,+5.00,+24.00,-10.00
-20.00,-26.00,-15.00,-7.00,-11.00,+8.00,-8.00,-8.00,-6.00,+11.00,+5.00,+8.00,+17.00,+5.00,+15.00,-6.00
+3.00,+5.00,+6.00,-3.00,-13.00,-7.00,-22.00,-6.00,+18.00,+19.00,+1.00,-5.00,-12.00,-1.00,-12.00,+2.00
+30.00,+29.00,+12.00,-1.00,-21.00,-30.00,+8.00,+28.00,-9.00,-30.00,-5.00,+5.00,-5.00,-1.00,-9.00,+3.00
+11.00,+2.00,+5.00,+8.00,+40.00,+15.00,-3.00,+1.00,+13.00,+31.00,+11.00,+26.00,+23.00,+8.00,+23.00,+6.00
-38.00,-26.00,-16.00,-7.00,-7.00,+10.00,-7.00,-18.00,-23.00,-51.00,-21.00,-38.00,-33.00,-11.00,-9.00,-6.00
+0.00,-9.00,-5.00,+1.00,+17.00,-13.00,-1.00,-7.00,+1.00,-3.00,-3.00,+0.00,-11.00,-13.00,-12.00,+7.00
+11.00,+35.00,+5.00,-1.00,+6.00,+8.00,+0.00,+4.00,-17.00,+23.00,+2.00,-16.00,-14.00,-1.00,-9.00,-33.00
-36.00,-61.00,+0.00,+2.00,-20.00,-11.00,-3.00,-8.00,+22.00,-1.00,-2.00,-2.00,-4.00,+3.00,+6.00,+12.00
+22.00,+50.00,+5.00,-2.00,-8.00,-8.00,-1.00,+1.00,+57.00,+19.00,+3.00,+10.00,+10.00,-1.00,-2.00,+14.00
-3.00,+6.00,-4.00,-1.00,-2.00,+15.00,-2.00,+2.00,-30.00,-20.00,+6.00,+12.00,+9.00,+4.00,+9.00,+8.00
-27.00,-46.00,-8.00,+1.00,+17.00,+11.00,+15.00,-1.00,+17.00,+15.00,-5.00,-10.00,+1.00,-3.00,-2.00,+0.00
+4.00,-16.00,-7.00,-7.00,-12.00,-14.00,-1.00,-8.00,-14.00,-17.00,-6.00,-14.00,-24.00,-12.00,-15.00,-21.00
+1.00,-9.00,-10.00,-3.00,+12.00,+9.00,+5.00,+10.00,-78.00,-39.00,-10.00,-1.00,+7.00,+1.00,-8.00,-42.00
+5.00,+33.00,+15.00,-2.00,-20.00,-13.00,-5.00,+0.00,+26.00,-1.00,-3.00,+1.00,-2.00,+2.00,+6.00,+6.00
+5.00,-29.00,+0.00,+3.00,+6.00,+8.00,+5.00,+7.00,-11.00,-30.00,-7.00,+10.00,+17.00,+8.00,+9.00,+8.00
+19.00,+39.00,+9.00,+3.00,-9.00,-3.00,-2.00,+4.00,-9.00,+2.00,+3.00,-2.00,-5.00,+2.00,-5.00,+4.00
-11.00,-18.00,-6.00,-3.00,-11.00,-18.00,-6.00,-1.00,+60.00,+75.00,+15.00,+9.00,+20.00,+0.00,+4.00,+34.00
-2.00,-29.00,-21.00,-11.00,-2.00,-10.00,-13.00,-11.00,-33.00,-21.00,-7.00,-9.00,+3.00,+3.00,-1.00,-16.00
+20.00,+20.00,+20.00,+9.00,+6.00,+20.00,+37.00,+21.00,-12.00,-3.00,-3.00,+6.00,-4.00,-1.00,+6.00,-20.00
-64.00,-88.00,-27.00,-17.00,-35.00,-15.00,-10.00,-28.00,-28.00,-30.00,-6.00,-15.00,-6.00,-5.00,-18.00,-1.00
+91.00,+97.00,+34.00,+12.00,+45.00,+15.00,-7.00,+30.00,+41.00,-6.00,-3.00,+13.00,+40.00,+14.00,-6.00,+5.00
+2.00,+26.00,+14.00,+10.00,+14.00,+8.00,+9.00,+5.00,-21.00,-3.00,-3.00,-8.00,-11.00,-4.00,+23.00,+9.00
-26.00,-34.00,-12.00,-2.00,+8.00,+8.00,-10.00,-9.00,+32.00,+17.00,+5.00,-7.00,-14.00,+3.00,+16.00,+22.00
+0.00,+0.00,-7.00,-4.00,-20.00,-23.00,-4.00,-2.00,+16.00,+24.00,+7.00,-5.00,-5.00,-1.00,-5.00,+7.00
+12.00,+16.00,+9.00,+2.00,-8.00,+5.00,-3.00,-7.00,-40.00,-19.00,+0.00,+8.00,-2.00,-13.00,-11.00,-10.00
-21.00,-61.00,-17.00,-6.00,+6.00,+7.00,+2.00,-1.00,+33.00,+24.00,+1.00,+0.00,+4.00,+9.00,-6.00,+2.00
+6.00,+8.00,-3.00,-3.00,-2.00,-2.00,-11.00,+1.00,-31.00,-54.00,-19.00,-5.00,-10.00,+0.00,+2.00,-15.00
+43.00,+94.00,+37.00,+13.00,+6.00,+1.00,+7.00,+16.00,+26.00,+41.00,+7.00,+5.00,+5.00,-2.00,+0.00,-1.00
-46.00,-51.00,-19.00,-7.00,-7.00,-10.00,-7.00,-17.00,+8.00,-23.00,+7.00,+7.00,-7.00,+6.00,+13.00,+42.00
+14.00,+10.00,-4.00,-4.00,-5.00,-10.00,-6.00,-6.00,-35.00,+0.00,-10.00,-11.00,-8.00,-8.00,-2.00,-22.00
-21.00,-6.00,-4.00,-4.00,-17.00,-9.00,-10.00,+2.00,+25.00,+19.00,+8.00,+6.00,+12.00,-2.00,-14.00,-1.00
+10.00,-41.00,-24.00,-8.00,-5.00,-12.00,+4.00,+2.00,-5.00,-3.00,+0.00,+9.00,+15.00,+1.00,+0.00,+3.00
+8.00,+4.00,+20.00,+9.00,+25.00,+26.00,+11.00,+11.00,-25.00,-34.00,-12.00,-4.00,-19.00,-3.00,-3.00,-9.00
-19.00,-14.00,+4.00,-2.00,-12.00,-16.00,-5.00,-14.00,-5.00,+39.00,+10.00,-7.00,-13.00,-3.00,-5.00,-24.00
+4.00,-13.00,-13.00,-8.00,-16.00,-5.00,-4.00,+1.00,+16.00,+15.00,+7.00,+4.00,+8.00,+3.00,-3.00,+9.00
+15.00,-5.00,+4.00,+1.00,+5.00,+8.00,+1.00,+5.00,-35.00,-65.00,-26.00,+0.00,+6.00,-12.00,-18.00,-7.00
-15.00,-10.00,-10.00,-8.00,+2.00,+18.00,-16.00,-25.00,+26.00,+46.00,+21.00,+12.00,+9.00,+13.00,+19.00,+15.00
-25.00,-64.00,-20.00,-3.00,+9.00,+2.00,-1.00,+6.00,-34.00,-20.00,-6.00,-6.00,-18.00,-33.00,-3.00,-10.00
+25.00,+56.00,+22.00,+8.00,+12.00,-13.00,+7.00,+12.00,+32.00,+41.00,-2.00,-18.00,-26.00,+4.00,-11.00,-9.00
+34.00,-10.00,-2.00,+1.00,+8.00,+14.00,+2.00,+6.00,-12.00,+5.00,-3.00,+0.00,-9.00,-3.00,-17.00,-22.00
-15.00,-44.00,-18.00,-8.00,-41.00,-29.00,+5.00,+1.00,+17.00,-11.00,-8.00,-18.00,-25.00,-16.00,-8.00,+9.00
+4.00,+28.00,+7.00,+5.00,+11.00,+22.00,-2.00,-5.00,-31.00,-46.00,-7.00,+18.00,+28.00,+10.00,+1.00,+5.00
-15.00,+4.00,+5.00,+2.00,+5.00,+0.00,-12.00,-19.00,+0.00,-4.00,+1.00,-8.00,+6.00,-16.00,+0.00,-2.00
-11.00,-11.00,+7.00,+3.00,-10.00,-5.00,-4.00,+5.00,+20.00,+28.00,+9.00,+7.00,+1.00,-7.00,-3.00,-9.00
-4.00,-38.00,-24.00,-7.00,+0.00,-3.00,+6.00,-6.00,+18.00,+21.00,+11.00,+4.00,+16.00,+11.00,+10.00,+21.00
+37.00,+49.00,+25.00,+5.00,-10.00,-9.00,+3.00,+11.00,+44.00,+36.00,+3.00,+0.00,-1.00,+10.00,+17.00,+4.00
-27.00,-3.00,-1.00,+0.00,+10.00,+3.00,-3.00,-16.00,-72.00,-61.00,-13.00,-15.00,-14.00,-4.00,+0.00,-11.00
-5.00,-20.00,-18.00,-10.00,-2.00,+2.00,-4.00,+0.00,+48.00,+35.00,+6.00,-5.00,-6.00,+9.00,+15.00,-1.00
-18.00,-25.00,+1.00,+0.00,-12.00,+5.00,+3.00,-2.00,-59.00,-70.00,-28.00,-10.00,+1.00,-12.00,-20.00,-31.00
-1.00,+4.00,-6.00,+0.00,-4.00,-11.00,+10.00,+1.00,+26.00,+3.00,+2.00,+6.00,+4.00,-2.00,-11.00,+1.00
+37.00,+7.00,+16.00,+0.00,-23.00,-7.00,-1.00,+7.00,+18.00,+43.00,+7.00,+7.00,-2.00,+2.00,+1.00,+7.00
-30.00,-23.00,-15.00,+1.00,+46.00,+11.00,-11.00,-10.00,-17.00,-20.00,+3.00,+8.00,+3.00,-10.00,-22.00,-8.00
-1.00,-4.00,+13.00,+9.00,+4.00,-4.00,+4.00,+9.00,+7.00,+3.00,-13.00,-39.00,-49.00,-8.00,+31.00,+15.00
-17.00,+31.00,+1.00,-2.00,-9.00,-1.00,-9.00,-11.00,-50.00,-8.00,+3.00,+4.00,+16.00,+1.00,-18.00,-12.00
+1.00,-12.00,-14.00,-6.00,-2.00,-7.00,+0.00,-5.00,+104.00,+46.00,+13.00,+6.00,+7.00,+10.00,+3.00,+35.00
-22.00,-23.00,-12.00,-5.00,-9.00,-9.00,-3.00,-10.00,-42.00,-69.00,-17.00,-10.00,+8.00,-8.00,+1.00,-14.00
+32.00,+28.00,+9.00,+3.00,+0.00,+0.00,+11.00,+18.00,+24.00,+61.00,+7.00,+1.00,-14.00,-6.00,-13.00,-19.00
-60.00,-73.00,-14.00,-4.00,-7.00,-17.00,-12.00,-27.00,-19.00,-20.00,-5.00,+6.00,+9.00,+9.00,+9.00,+27.00
+62.00,+81.00,+12.00,+3.00,+4.00,+17.00,+6.00,+21.00,-4.00,+7.00,-2.00,+2.00,+16.00,-3.00,+4.00,-18.00
-29.00,-7.00,-5.00,-5.00,-16.00,-26.00,+8.00,-10.00,+22.00,+27.00,+8.00,+3.00,-5.00,+15.00,+2.00,+21.00
+31.00,+34.00,+5.00,+0.00,+28.00,+32.00,+1.00,+7.00,-61.00,-57.00,-12.00,-8.00,-6.00,-13.00,-5.00,-27.00
+0.00,-50.00,-16.00,-4.00,-15.00,+13.00,-9.00,+2.00,+62.00,-10.00,-7.00,-13.00,-24.00,-14.00,-32.00,+0.00
-21.00,+7.00,+7.00,+4.00,+10.00,+7.00,+10.00,-10.00,-21.00,-24.00,-7.00,+7.00,-5.00,-7.00,+7.00,-3.00
-7.00,-19.00,-7.00,+0.00,+3.00,-4.00,+4.00,-5.00,+7.00,+20.00,-2.00,-8.00,-4.00,-8.00,-19.00,+12.00
+20.00,+46.00,+23.00,+4.00,-9.00,-19.00,-3.00,-3.00,-93.00,-40.00,-12.00,+7.00,+16.00,+3.00,-10.00,-54.00
+21.00,+20.00,+4.00,+1.00,+1.00,+6.00,-23.00,+15.00,+64.00,+58.00,+15.00,-3.00,+3.00,+5.00,+26.00,+44.00
-17.00,-20.00,-8.00,-4.00,-2.00,-6.00,-3.00,-3.00,-38.00,-35.00,-6.00,+5.00,+13.00,-3.00,-10.00,-4.00
+4.00,+30.00,+18.00,+4.00,-22.00,-17.00,-5.00,+2.00,-13.00,-23.00,-6.00,-7.00,-24.00,+0.00,+7.00,+4.00
-57.00,-104.00,-38.00,-12.00,+7.00,+4.00,-10.00,-28.00,+48.00,+15.00,+15.00,+20.00,+49.00,+5.00,-1.00,+13.00
+53.00,+63.00,+11.00,-3.00,-13.00,-7.00,+13.00,+16.00,-26.00,+15.00,-5.00,-8.00,-12.00,-9.00,-11.00,-22.00
-22.00,-4.00,+9.00,+8.00,+27.00,+8.00,+6.00,-8.00,-20.00,-30.00,-13.00,+10.00,+25.00,+13.00,-13.00,-18.00
-13.00,-37.00,-5.00,-3.00,+5.00,+5.00,+5.00,-11.00,+54.00,+54.00,+15.00,-10.00,-19.00,-10.00,+7.00,+17.00
+31.00,+79.00,+4.00,+0.00,-19.00,-3.00,-5.00,+11.00,-7.00,-33.00,+2.00,-6.00,-12.00,-3.00,-13.00,+0.00
-4.00,-12.00,+6.00,+3.00,+2.00,-7.00,+6.00,+0.00,-46.00,-2.00,+0.00,+9.00,+9.00,+8.00,+17.00,-14.00
-28.00,-80.00,-30.00,-12.00,-5.00,-4.00,-5.00,-14.00,+30.00,+34.00,+2.00,-5.00,-5.00,+4.00,+0.00,-8.00
+24.00,+84.00,+26.00,+6.00,+3.00,+6.00,+29.00,+12.00,-17.00,-39.00,-13.00,-4.00,+14.00,-14.00,-26.00,+1.00
+15.00,-10.00,+7.00,+2.00,-11.00,+10.00,-10.00,+12.00,+60.00,-14.00,-6.00,+12.00,+11.00,+17.00,+33.00,+33.00
+0.00,+11.00,-9.00,-3.00,+7.00,+0.00,+6.00,+5.00,+26.00,+27.00,+17.00,+5.00,+14.00,+27.00,+19.00,+5.00
+19.00,+6.00,+5.00,-1.00,-8.00,-12.00,-12.00,-6.00,-20.00,+22.00,+6.00,+1.00,-1.00,-6.00,-28.00,-19.00
-13.00,+4.00,-5.00,-1.00,+8.00,+4.00,+6.00,+3.00,-16.00,+0.00,+3.00,-8.00,-22.00,-1.00,+7.00,-23.00
-19.00,-19.00,-12.00,-5.00,-11.00,-8.00,+10.00,-8.00,+0.00,-5.00,+1.00,+5.00,+4.00,+2.00,-4.00,+25.00
-2.00,+5.00,+7.00,+3.00,-3.00,+2.00,-10.00,+3.00,-26.00,-12.00,-10.00,+7.00,+31.00,-3.00,-16.00,-16.00
-47.00,-77.00,-33.00,-9.00,+28.00,+14.00,-37.00,-25.00,+11.00,-4.00,-7.00,-9.00,-10.00,-37.00,+1.00,+9.00
+39.00,+35.00,+25.00,+9.00,+6.00,+23.00,+47.00,+33.00,-35.00,+8.00,-2.00,-19.00,-21.00,+30.00,-15.00,-33.00
-6.00,-4.00,-7.00,-5.00,-18.00,-18.00,-32.00,-12.00,+24.00,+11.00,+2.00,+1.00,-20.00,-6.00,-14.00,-1.00
-17.00,-45.00,-9.00,+2.00,+22.00,+1.00,+7.00,-3.00,+8.00,-11.00,-6.00,-4.00,+17.00,+2.00,+8.00,+4.00
+11.00,+63.00,+18.00,+4.00,-10.00,-2.00,-5.00,+0.00,+1.00,-11.00,-1.00,-7.00,-18.00,-2.00,-16.00,-2.00
+31.00,+4.00,-11.00,-3.00,+8.00,+6.00,-32.00,+1.00,-21.00,+6.00,+3.00,+12.00,+13.00,-3.00,+27.00,-7.00
-46.00,-22.00,-12.00,-7.00,-15.00,-17.00,-5.00,-16.00,+9.00,+42.00,+8.00,-7.00,-10.00,-8.00,-9.00,+19.00
-35.00,-51.00,+7.00,+3.00,-6.00,-5.00,+8.00,-6.00,+4.00,-36.00,-5.00,-1.00,-5.00,-9.00,-20.00,-9.00
+32.00,+10.00,-9.00,-8.00,-12.00,+3.00,+9.00,+20.00,-2.00,+10.00,+7.00,+9.00,+4.00,+10.00,+16.00,+8.00
+48.00,+64.00,+28.00,+7.00,+10.00,-5.00,-3.00,+12.00,-29.00,-17.00,-1.00,+9.00,+8.00,-8.00,+1.00,+2.00
-56.00,-53.00,-31.00,-10.00,+0.00,-3.00,+18.00,-19.00,+16.00,+32.00,+5.00,+1.00,+9.00,+27.00,+39.00,-4.00
+75.00,+104.00,+43.00,+7.00,+6.00,+4.00,+9.00,+30.00,+11.00,-10.00,-10.00,-15.00,-25.00,-16.00,-14.00,-2.00
-10.00,-40.00,+1.00,+2.00,-5.00,-4.00,+5.00,+3.00,+15.00,-21.00,+7.00,+17.00,+25.00,+20.00,+13.00,+22.00
+10.00,+28.00,-6.00,-4.00,-11.00,-3.00,-5.00,+3.00,-2.00,+15.00,+3.00,+3.00,-1.00,-17.00,-12.00,-27.00
-24.00,-6.00,-2.00,+1.00,+9.00,+6.00,-1.00,-3.00,+27.00,+47.00,+11.00,+2.00,-3.00,-1.00,+0.00,+22.00
+34.00,-11.00,-18.00,-10.00,-6.00,+1.00,+7.00,+1.00,-10.00,+12.00,+1.00,-1.00,-3.00,-4.00,-6.00,-5.00
-7.00,+35.00,+17.00,+5.00,-23.00,-16.00,+10.00,+5.00,-29.00,-26.00,-14.00,-10.00,-24.00,-12.00,+0.00,-8.00
-34.00,-62.00,-20.00,-5.00,+23.00,+11.00,-19.00,-11.00,+7.00,-30.00,-7.00,+12.00,+30.00,+17.00,+19.00,+23.00
+51.00,+70.00,+32.00,+19.00,+42.00,+20.00,+6.00,+14.00,-41.00,-46.00,-23.00,-31.00,-32.00,-25.00,-27.00,-33.00
-41.00,-24.00,-17.00,-9.00,-16.00,-6.00,-13.00,-24.00,+12.00,+17.00,+9.00,-9.00,-17.00,+5.00,+16.00,+13.00
+14.00,-14.00,+2.00,+2.00,-15.00,-16.00,+7.00,+14.00,+11.00,-29.00,-9.00,-5.00,+2.00,-3.00,-15.00,-6.00
-30.00,-53.00,-24.00,-13.00,-15.00,+6.00,-11.00,-18.00,-12.00,-7.00,-2.00,+5.00,-3.00,-4.00,+2.00,+5.00
+13.00,+34.00,+18.00,+5.00,-11.00,-1.00,-29.00,-16.00,-22.00,-51.00,-26.00,-10.00,+2.00,-18.00,-33.00,-41.00
-18.00,-18.00,+0.00,+4.00,+21.00,+27.00,-1.00,-2.00,+6.00,+55.00,+15.00,+22.00,+35.00,-12.00,+29.00,+21.00
-19.00,-48.00,-28.00,-5.00,+6.00,-5.00,+0.00,-5.00,+15.00,+16.00,+4.00,-16.00,-38.00,+24.00,-5.00,+18.00
+10.00,-11.00,+20.00,+9.00,+1.00,+6.00,-6.00,+12.00,+3.00,+26.00,-4.00,-13.00,-5.00,+7.00,-5.00,-13.00
+55.00,+50.00,+24.00,+5.00,-6.00,-12.00,+16.00,+26.00,-17.00,-47.00,-6.00,+1.00,-3.00,+8.00,+3.00,+17.00
-1.00,+19.00,-4.00,-3.00,-12.00,-4.00,-3.00,-5.00,-27.00,-36.00,-3.00,+0.00,-3.00,-3.00,-10.00,-18.00
-18.00,-13.00,-8.00,-8.00,-8.00,+2.00,-16.00,-11.00,-8.00,+14.00,+1.00,+10.00,+15.00,-5.00,+13.00,+1.00
-49.00,-32.00,-16.00,-4.00,-9.00,-10.00,-12.00,-27.00,-7.00,-20.00,-2.00,+4.00,+1.00,-2.00,-1.00,-10.00
+25.00,-4.00,-2.00,+0.00,+8.00,-8.00,+23.00,+13.00,-20.00,-26.00,-14.00,-4.00,+8.00,-10.00,-15.00,-23.00
-46.00,-14.00,-17.00,-4.00,+10.00,-7.00,-2.00,-19.00,+2.00,+39.00,+5.00,-7.00,-12.00,-2.00,+1.00,-22.00
+9.00,+20.00,+19.00,+4.00,+9.00,+13.00,+12.00,+21.00,-22.00,-19.00,+2.00,-5.00,-8.00,-3.00,+3.00,+26.00
+12.00,+2.00,-5.00,-2.00,-18.00,-6.00,-2.00,+5.00,+95.00,+5.00,-2.00,+0.00,-4.00,+5.00,+2.00,+41.00
-56.00,-74.00,-23.00,-7.00,+4.00,+5.00,+12.00,-16.00,-35.00,-11.00,+7.00,+8.00,-10.00,-6.00,+18.00,-26.00
-3.00,+6.00,+3.00,-4.00,-25.00,-27.00,-29.00,-12.00,-5.00,-22.00,-1.00,-2.00,+5.00,-7.00,-9.00,+0.00
+20.00,+49.00,+10.00,+12.00,+67.00,+24.00,+1.00,+9.00,+20.00,+72.00,+13.00,+23.00,+12.00,+5.00,+22.00,+0.00
+15.00,+42.00,+17.00,+6.00,-8.00,-3.00,+5.00,+5.00,-45.00,-23.00,-15.00,-55.00,-64.00,-16.00,-11.00,-1.00
-23.00,-19.00,-18.00,-13.00,-18.00,-1.00,-2.00,-9.00,-6.00,+4.00,+8.00,+6.00,+5.00,+4.00,+5.00,-18.00
-26.00,-32.00,-18.00,-6.00,+3.00,-1.00,-1.00,-10.00,-5.00,-21.00,-11.00,-2.00,-7.00,-2.00,-10.00,-10.00
-16.00,-41.00,-10.00,-4.00,-14.00,-1.00,-2.00,-11.00,+18.00,-7.00,-2.00,-5.00,+4.00,+4.00,+2.00,-4.00
+5.00,-2.00,-9.00,-4.00,-3.00,-10.00,-13.00,-3.00,+15.00,+19.00,+6.00,+9.00,+5.00,-16.00,-28.00,-2.00
-19.00,-26.00,-7.00,-5.00,-18.00,-10.00,-6.00,+4.00,-4.00,+15.00,+7.00,+4.00,+18.00,+8.00,+16.00,+17.00
+37.00,+43.00,+27.00,+12.00,+16.00,-9.00,+20.00,+11.00,-23.00,-17.00,-6.00,-3.00,-24.00,-9.00,+9.00,-25.00
+20.00,+63.00,+10.00,-4.00,-13.00,+14.00,-10.00,+2.00,+21.00,+19.00,+10.00,-5.00,+9.00,+17.00,-2.00,+6.00
+6.00,+30.00,-2.00,-3.00,+0.00,-2.00,+13.00,-1.00,+18.00,-19.00,-4.00,+5.00,+11.00,-2.00,-9.00,-6.00
-13.00,-3.00,-2.00,+2.00,+9.00,-2.00,+7.00,+6.00,+50.00,+61.00,+11.00,+13.00,+8.00,+13.00,-1.00,+37.00
+8.00,-6.00,+3.00,+2.00,+0.00,+10.00,-24.00,-2.00,-23.00,-43.00,-13.00,-1.00,-1.00,+2.00,+5.00,-10.00
-30.00,-39.00,-15.00,-2.00,-11.00,-14.00,-7.00,-18.00,+0.00,+12.00,-3.00,-1.00,+2.00,-13.00,-14.00,+2.00
-29.00,-75.00,-23.00,-9.00,+3.00,-2.00,-4.00,-6.00,+9.00,+32.00,+11.00,+1.00,+3.00,+4.00,+21.00,+2.00
+16.00,+91.00,+20.00,+1.00,-4.00,+0.00,+5.00,-6.00,-21.00,+3.00,+1.00,+3.00,-4.00,-13.00,-28.00,-36.00
+55.00,+6.00,+9.00,+3.00,-5.00,+1.00,+13.00,+21.00,-1.00,-48.00,-9.00,+5.00,+5.00,+1.00,+11.00,+45.00
-13.00,-34.00,-21.00,-8.00,-12.00,+2.00,-17.00,-9.00,+5.00,-17.00,-13.00,-4.00,+3.00,-10.00,-1.00,-18.00
-9.00,-1.00,+1.00,+1.00,+18.00,+14.00,+21.00,+11.00,+15.00,+9.00,+2.00,+2.00,+2.00,+16.00,+25.00,+24.00
-15.00,-56.00,-13.00,-1.00,-5.00,-22.00,-27.00,-14.00,+2.00,-5.00,-14.00,-10.00,-17.00,-12.00,-17.00,-2.00
+13.00,+29.00,+13.00,+2.00,+4.00,+22.00,+22.00,+12.00,+7.00,+1.00,+8.00,+5.00,+13.00,+11.00,-11.00,+2.00
-6.00,-1.00,-12.00,-8.00,-1.00,-11.00,-22.00,-8.00,-15.00,+14.00,+6.00,-4.00,+4.00,-7.00,-5.00,-25.00
-7.00,-22.00,-2.00,-4.00,-16.00,-20.00,+3.00,-5.00,-27.00,-16.00,-5.00,+7.00,+5.00,-9.00,-4.00,+1.00
-5.00,-11.00,+1.00,-4.00,-13.00,+6.00,-11.00,-1.00,+11.00,+12.00,+1.00,+5.00,+2.00,+18.00,+33.00,+5.00
-25.00,-10.00,-18.00,-11.00,-5.00,+4.00,-3.00,-3.00,-8.00,+5.00,+0.00,-4.00,+2.00,-2.00,-15.00,-11.00
+35.00,-2.00,+8.00,+7.00,+27.00,+8.00,-3.00,-3.00,+0.00,-31.00,-8.00,+4.00,+7.00,-9.00,-8.00,+0.00
-9.00,+14.00,+5.00,+3.00,+2.00,-12.00,-5.00,-4.00,-31.00,+5.00,-1.00,-9.00,-6.00,+4.00,-5.00,-16.00
+5.00,+1.00,-6.00,+0.00,+15.00,+15.00,+13.00,+0.00,-9.00,-31.00,-13.00,-10.00,-11.00,-12.00,-20.00,-17.00
-10.00,-54.00,-3.00,+0.00,-17.00,-12.00,-7.00,-3.00,-34.00,+6.00,-8.00,-9.00,+0.00,-2.00,-10.00,-17.00
+36.00,+61.00,+26.00,+7.00,-12.00,+10.00,+17.00,+23.00,+23.00,-6.00,+6.00,+2.00,-8.00,-14.00,+8.00,+22.00
-25.00,-69.00,-32.00,-9.00,+8.00,-4.00,-13.00,-22.00,+18.00,+7.00,+7.00,+13.00,-2.00,+21.00,+4.00,+2.00
+25.00,+69.00,+16.00,+0.00,+9.00,+2.00,+13.00,+10.00,+5.00,+6.00,+2.00,-14.00,+13.00,-5.00,-5.00,+2.00
-16.00,-23.00,-10.00,-4.00,-4.00,+7.00,-23.00,-3.00,-30.00,-34.00,-7.00,+1.00,-15.00,+2.00,-6.00,-11.00
+11.00,-11.00,+10.00,+4.00,+10.00,-15.00,+19.00,+6.00,-7.00,+12.00,-1.00,+2.00,+0.00,-1.00,+2.00,+4.00
-5.00,-13.00,-8.00,-4.00,-12.00,-3.00,-7.00,-1.00,-40.00,-10.00,+1.00,-7.00,-9.00,-9.00,-5.00,-15.00
+8.00,-11.00,+5.00,+1.00,-10.00,+0.00,+3.00,+3.00,-26.00,-9.00,+1.00,+7.00,+3.00,-4.00,-9.00,-5.00
+6.00,+29.00,+2.00,+0.00,-1.00,-20.00,+5.00,+0.00,+10.00,+21.00,+3.00,+1.00,+5.00,+12.00,+12.00,+6.00
-15.00,-18.00,-3.00,+2.00,+15.00,+23.00,+3.00,-6.00,+3.00,-16.00,-5.00,+0.00,+2.00,-1.00,-16.00,-8.00
-19.00,-22.00,-7.00,-5.00,-18.00,-6.00,-9.00,-9.00,+15.00,+4.00,+2.00,+2.00,-6.00,-16.00,+7.00,+6.00
+28.00,-6.00,+0.00,-5.00,-13.00,-10.00,-25.00,-1.00,-24.00,+9.00,-6.00,+0.00,+5.00,+5.00,-19.00,-15.00
-36.00,-58.00,-10.00,-1.00,-19.00,-50.00,+0.00,-10.00,+30.00,-9.00,+6.00,+5.00,+14.00,+9.00,+9.00,+25.00
-4.00,-21.00,-8.00,-1.00,+25.00,+16.00,+7.00,-1.00,-15.00,+12.00,+0.00,+1.00,-13.00,-14.00,-3.00,-14.00
+7.00,+69.00,+41.00,+17.00,+27.00,+21.00,+11.00,+3.00,+14.00,-11.00,-6.00,-28.00,-7.00,-5.00,+14.00,+1.00
-28.00,-39.00,-25.00,-8.00,-3.00,-1.00,+5.00,-8.00,-10.00,-13.00,+7.00,-2.00,-12.00,+0.00,+0.00,+1.00
-11.00,-9.00,-10.00,-6.00,-9.00,-7.00,-6.00,-11.00,+50.00,+33.00,+0.00,-9.00,-12.00,-5.00,-13.00,+5.00
-37.00,-27.00,-15.00,-9.00,-26.00,-14.00,-4.00,-18.00,+14.00,-2.00,-6.00,+2.00,+8.00,+7.00,+5.00,+4.00
+12.00,+8.00,+8.00,+6.00,+0.00,+7.00,-5.00,+10.00,-20.00,-13.00,-12.00,-1.00,+4.00,+2.00,-3.00,-8.00
-11.00,-18.00,-9.00,-2.00,+0.00,-7.00,-13.00,-12.00,+41.00,+2.00,+5.00,+3.00,-10.00,-12.00,+9.00,+28.00
+6.00,+30.00,+9.00,+0.00,-5.00,+9.00,+23.00,+10.00,+0.00,+8.00,-2.00,-5.00,-1.00,-5.00,-11.00,-18.00
-23.00,-3.00,-5.00,-3.00,-6.00,-5.00,+3.00,-3.00,-40.00,-9.00,+1.00,+3.00,+6.00,+10.00,+4.00,-8.00
-10.00,+16.00,+3.00,+0.00,+21.00,+1.00,-12.00,-9.00,-9.00,+16.00,-1.00,+3.00,-7.00,-5.00,+14.00,+5.00
+1.00,-8.00,-5.00,-3.00,-4.00,-3.00,-11.00,-5.00,+3.00,-23.00,-9.00,-15.00,-18.00,+2.00,+1.00,+15.00
+40.00,+13.00,+16.00,+10.00,+14.00,+18.00,+6.00,+16.00,+7.00,-13.00,-3.00,+2.00,-6.00,+0.00,-1.00,+3.00
-35.00,-24.00,-9.00,-4.00,-13.00,-10.00,-2.00,-6.00,-6.00,+12.00,-1.00,-8.00,-3.00,+1.00,+0.00,-7.00
+26.00,+5.00,-6.00,-6.00,-17.00,-12.00,-8.00,-1.00,+64.00,+37.00,+10.00,+11.00,+10.00,-4.00,-5.00,+23.00
-16.00,-28.00,-3.00,+3.00,+1.00,-2.00,+1.00,+4.00,-60.00,-38.00,-11.00,-4.00,+11.00,+5.00,-12.00,-15.00
-17.00,+10.00,+2.00,+0.00,+11.00,+14.00,+5.00,-8.00,+12.00,+29.00,+5.00,-5.00,-2.00,-7.00,+2.00,-18.00
+33.00,+43.00,+10.00,-3.00,-37.00,-19.00,+2.00,+12.00,-16.00,-9.00,+5.00,+1.00,-10.00,+0.00,-1.00,+3.00
-3.00,+12.00,+4.00,+8.00,+37.00,+21.00,+15.00,-2.00,+4.00,-20.00,-7.00,+15.00,+38.00,+14.00,+3.00,+3.00
-10.00,+5.00,-1.00,-1.00,+7.00,+1.00,-6.00,-14.00,+6.00,+15.00,-2.00,-24.00,-40.00,-19.00,-7.00,-3.00
-26.00,-30.00,-19.00,-9.00,-2.00,-4.00,-25.00,-2.00,+11.00,-1.00,+1.00,-4.00,-7.00,-8.00,+6.00,+13.00
+12.00,+2.00,+5.00,-1.00,-6.00,-11.00,+30.00,+7.00,-5.00,-3.00,-6.00,-10.00,-6.00,-8.00,-24.00,-5.00
+36.00,+40.00,+5.00,-5.00,-31.00,+4.00,-15.00,+13.00,-17.00,-9.00,+7.00,+13.00,+5.00,-1.00,+7.00,-10.00
+3.00,-11.00,+0.00,+0.00,+15.00,+2.00,-4.00,+1.00,+37.00,+40.00,+14.00,+16.00,+45.00,+22.00,+27.00,+14.00
-14.00,+4.00,-2.00,+3.00,+10.00,-3.00,-17.00,-19.00,-55.00,-32.00,-15.00,-10.00,-32.00,+15.00,-3.00,-11.00
+62.00,+38.00,+12.00,+5.00,+10.00,+10.00,+2.00,+14.00,+64.00,+5.00,+4.00,-2.00,+0.00,-8.00,+10.00,+26.00
-20.00,-59.00,-16.00,-10.00,-20.00,-19.00,-8.00,-8.00,-4.00,+16.00,+4.00,-2.00,-6.00,+9.00,-6.00,-7.00
+23.00,+44.00,+12.00,+5.00,+2.00,+5.00,+25.00,+19.00,-60.00,-23.00,-9.00,+2.00,+0.00,-21.00,-26.00,-33.00
-18.00,-54.00,-22.00,-6.00,-2.00,+0.00,-8.00,-6.00,+63.00,+24.00,+11.00,+9.00,+10.00,+2.00,+29.00,+41.00
+4.00,+48.00,+17.00,+0.00,-3.00,-7.00,-5.00,-4.00,-30.00,-20.00,-1.00,-3.00,+4.00,+5.00,-11.00,-4.00
-18.00,-43.00,-9.00,-3.00,-6.00,-12.00,+15.00,-8.00,+18.00,+16.00,+6.00,+10.00,+9.00,+9.00,-1.00,+2.00
+33.00,+79.00,+23.00,+4.00,-1.00,+16.00,-7.00,+6.00,+25.00,+18.00,+8.00,-1.00,-9.00,+5.00,+12.00,+13.00
+8.00,+23.00,+11.00,+4.00,+5.00,+0.00,+1.00,-2.00,-5.00,+6.00,+3.00,+4.00,+2.00,+3.00,-3.00,+15.00
-16.00,-24.00,-17.00,-7.00,-1.00,+1.00,-7.00,-8.00,+10.00,+24.00,+2.00,-4.00,-3.00,-9.00,-3.00,-21.00
-8.00,+11.00,+6.00,+0.00,-25.00,-16.00,-2.00,-3.00,-27.00,-36.00,-12.00,-3.00,-3.00,-11.00,-17.00,+13.00
-30.00,-48.00,-9.00,+2.00,+23.00,+23.00,+15.00,+2.00,+18.00,+29.00,+7.00,+15.00,+16.00,+24.00,+41.00,-5.00
+14.00,+2.00,-6.00,-2.00,+5.00,+1.00,+12.00,+2.00,+2.00,-24.00,-6.00,-14.00,-18.00,-16.00,-27.00,-4.00
+11.00,+1.00,+12.00,+5.00,+9.00,+2.00,+0.00,+12.00,+1.00,-15.00,-7.00,-9.00,-10.00,+11.00,+4.00,+1.00
+0.00,-7.00,-3.00,-3.00,-13.00,-15.00,+5.00,+1.00,-13.00,-11.00,-7.00,-8.00,-2.00,-7.00,-7.00,-9.00
-31.00,-61.00,-18.00,-7.00,-12.00,-9.00,-35.00,-10.00,-1.00,+1.00,-2.00,+7.00,+7.00,-19.00,-18.00,+7.00
+62.00,+67.00,+19.00,+2.00,+1.00,-2.00,+6.00,+13.00,-36.00,-2.00,-5.00,+3.00,-5.00,+13.00,+3.00,-11.00
-60.00,-38.00,-11.00,+2.00,+11.00,+4.00,-11.00,-24.00,+2.00,-38.00,-14.00,-8.00,-8.00,+4.00,+8.00,+3.00
+47.00,+19.00,+23.00,+11.00,+13.00,+22.00,-1.00,+16.00,+14.00,+36.00,+3.00,-15.00,-21.00,-10.00,-7.00,-3.00
+5.00,+23.00,+7.00,+0.00,-10.00,-14.00,+5.00,+7.00,+16.00,-11.00,-4.00,-2.00,+0.00,-4.00,-7.00,+8.00
-19.00,-42.00,-20.00,-6.00,-3.00,-2.00,+3.00,-8.00,+12.00,+0.00,+2.00,+7.00,+5.00,-6.00,+5.00,+2.00
-13.00,-3.00,-5.00,-5.00,-5.00,-4.00,-12.00,-6.00,-66.00,+2.00,-3.00,-3.00,+0.00,+8.00,-19.00,-41.00
-8.00,+25.00,+11.00,+5.00,+6.00,+1.00,+4.00,-4.00,-20.00,-48.00,-14.00,+1.00,+6.00,+3.00,+15.00,-1.00
+18.00,-35.00,-9.00,-3.00,+0.00,-3.00,-15.00,-7.00,+1.00,-12.00,-3.00,-7.00,-11.00,-25.00,-11.00,+8.00
-12.00,-2.00,-8.00,-5.00,-6.00,+1.00,+2.00,-7.00,-8.00,+7.00,-2.00,-3.00,+0.00,+18.00,-7.00,-26.00
+5.00,+47.00,+12.00,+6.00,+5.00,+9.00,+18.00,+7.00,+16.00,+4.00,+3.00,+6.00,+0.00,+1.00,+6.00,+5.00
+11.00,+9.00,-7.00,-1.00,-4.00,-10.00,-30.00,-1.00,-6.00,+13.00,+3.00,-1.00,-2.00,-7.00,+1.00,+6.00
-19.00,-29.00,-9.00,-6.00,-9.00,+7.00,+30.00,+1.00,+10.00,+11.00,+5.00,+5.00,+5.00,+19.00,-9.00,-1.00
-2.00,+0.00,+6.00,+5.00,+25.00,+16.00,+22.00,+4.00,-43.00,-43.00,-17.00,-6.00,+3.00,-15.00,+0.00,-14.00
-7.00,-31.00,-9.00,-3.00,-5.00,-8.00,-4.00,-4.00,+1.00,+14.00,+7.00,-2.00,-5.00,+2.00,+9.00,+1.00
-14.00,-12.00,-5.00,-3.00,+6.00,+1.00,+4.00,-5.00,+9.00,+21.00,+6.00,+2.00,+1.00,-3.00,-9.00,-6.00
+5.00,+25.00,+3.00,+1.00,-13.00,-14.00,-9.00,+3.00,-15.00,-20.00,-6.00,+1.00,+2.00,-3.00,-2.00,-6.00
-9.00,+3.00,+1.00,-2.00,+4.00,+4.00,-5.00,-6.00,+13.00,+12.00,+1.00,-3.00,-1.00,-3.00,+8.00,+2.00
-9.00,-19.00,+2.00,-1.00,+3.00,-5.00,-5.00,-12.00,-5.00,-8.00,-1.00,+2.00,+5.00,+0.00,+5.00,+10.00
+16.00,+33.00,-3.00,-6.00,+2.00,+0.00,+2.00,+13.00,+18.00,+17.00,+3.00,-4.00,-13.00,+0.00,+2.00,-19.00
+29.00,+12.00,+8.00,+1.00,-2.00,-3.00,+3.00,+9.00,+11.00,+6.00,-2.00,-4.00,-4.00,-1.00,+1.00,+2.00
+14.00,+28.00,+13.00,+5.00,-3.00,+2.00,+2.00,+9.00,-1.00,-8.00,+7.00,+8.00,+11.00,+8.00,+10.00,+18.00
+15.00,-8.00,-5.00,-1.00,-2.00,-2.00,-12.00,+5.00,-13.00,+4.00,-2.00,+2.00,+2.00,-15.00,-24.00,-1.00
-51.00,-42.00,-16.00,-7.00,-5.00,-1.00,+0.00,-19.00,+25.00,+10.00,+2.00,+1.00,+2.00,-2.00,+2.00,+17.00
+22.00,+20.00,+1.00,+0.00,+0.00,-1.00,+9.00,+3.00,+0.00,-18.00,-7.00,-5.00,-4.00,+11.00,+17.00,+0.00
+21.00,+5.00,+7.00,+5.00,-1.00,-1.00,+0.00,+10.00,-1.00,+39.00,+11.00,+7.00,+3.00,+1.00,-4.00,-14.00
-13.00,-35.00,-13.00,-6.00,-6.00,-3.00,-11.00,-13.00,+3.00,-11.00,-1.00,-1.00,-4.00,-4.00,+2.00,+0.00
-4.00,+14.00,+1.00,-2.00,+2.00,+2.00,+2.00,-2.00,+5.00,-5.00,-5.00,+1.00,+3.00,+0.00,-5.00,-2.00
-14.00,-2.00,-8.00,-5.00,-2.00,-5.00,-9.00,-8.00,-20.00,-2.00,-3.00,-5.00,-7.00,-6.00,-8.00,-9.00
+1.00,+10.00,+17.00,+5.00,+4.00,+8.00,+14.00,+10.00,-7.00,-3.00,-4.00,-5.00,+2.00,-7.00,-9.00,+1.00
+3.00,-8.00,-3.00,-1.00,+3.00,+0.00,-6.00,+2.00,+12.00,-3.00,+2.00,+4.00,-2.00,+10.00,+13.00,+8.00
+4.00,+0.00,+2.00,+2.00,+7.00,+5.00,+10.00,-5.00,-21.00,-5.00,-3.00,-6.00,-10.00,-14.00,-6.00,-13.00
-15.00,-13.00,-5.00,-5.00,-5.00,-1.00,+0.00,+2.00,+10.00,+6.00,+6.00,+0.00,+2.00,+4.00,-1.00,+7.00
-6.00,-5.00,-10.00,-6.00,-10.00,-12.00,-6.00,-9.00,+1.00,-2.00,-6.00,-4.00,-2.00,-7.00,-11.00,-4.00
+5.00,-21.00,-5.00,+1.00,-2.00,+2.00,+2.00,+3.00,-10.00,-8.00,-6.00,+0.00,+3.00,+3.00,+17.00,-3.00
+9.00,+16.00,+7.00,+2.00,+3.00,+0.00,-9.00,+0.00,+1.00,-4.00,-3.00,+1.00,-2.00,+1.00,-1.00,-7.00
-5.00,+26.00,+6.00,-1.00,-18.00,-16.00,+14.00,+0.00,-11.00,-16.00,-4.00,+0.00,+1.00,+2.00,+6.00,-9.00
-11.00,-23.00,-6.00,+0.00,+15.00,+14.00,-5.00,+1.00,+33.00,+21.00,+8.00,+8.00,+8.00,-17.00,-12.00,+11.00
-10.00,+5.00,-1.00,-4.00,-5.00,-4.00,-7.00,-5.00,-5.00,-2.00,-4.00,-9.00,-15.00,-26.00,-28.00,-10.00
+11.00,-28.00,-11.00,-5.00,-7.00,-4.00,+1.00,+4.00,-7.00,-2.00,+4.00,+6.00,+12.00,+32.00,+0.00,-6.00
+7.00,+4.00,+6.00,+5.00,+16.00,+12.00,+10.00,+36.00,-10.00,+18.00,+0.00,-1.00,-2.00,+11.00,+12.00,-7.00
+4.00,+18.00,+6.00,+0.00,-7.00,-6.00,+5.00,+8.00,-21.00,-31.00,-6.00,+1.00,+6.00,+3.00,+11.00,-8.00
-12.00,-7.00,-3.00,+0.00,+2.00,-2.00,-4.00,-17.00,+29.00,+5.00,+1.00,+0.00,+2.00,+1.00,+9.00,+11.00
-44.00,-33.00,-15.00,-5.00,-6.00,-2.00,-7.00,-28.00,-24.00,-9.00,-3.00,-4.00,-2.00,-10.00,-7.00,+1.00
+19.00,-6.00,-9.00,-5.00,-7.00,-6.00,-6.00,+11.00,+13.00,+4.00,+0.00,-1.00,+0.00,-12.00,-7.00,-8.00
+27.00,+35.00,+16.00,+4.00,-6.00,-1.00,+3.00,+9.00,-3.00,+6.00,-4.00,-5.00,-4.00,+3.00,-4.00,+11.00
-4.00,-16.00,+0.00,-1.00,-5.00,+5.00,+15.00,+18.00,-44.00,-48.00,-12.00,-1.00,-1.00,+3.00,+0.00,-2.00
+20.00,+44.00,+14.00,+5.00,+9.00,+8.00,+9.00,+6.00,+31.00,+32.00,+12.00,+8.00,+8.00,-2.00,+8.00,+0.00
-22.00,-13.00,+2.00,+0.00,+2.00,+1.00,-6.00,+7.00,+16.00,+24.00,+10.00,-2.00,-6.00,+2.00,-1.00,-20.00
-34.00,-29.00,-15.00,-7.00,-5.00,-4.00,-2.00,-18.00,+4.00,+4.00,-1.00,-3.00,-5.00,-5.00,+5.00,+14.00
+11.00,-4.00,-13.00,-11.00,-11.00,-11.00,-11.00,-9.00,+27.00,+12.00,+1.00,-2.00,-1.00,+7.00,+6.00,+4.00
+1.00,-5.00,+5.00,+3.00,+4.00,+2.00,-7.00,+10.00,-50.00,-41.00,-17.00,-4.00,+3.00,-8.00,-3.00,-15.00
-23.00,+0.00,-5.00,-4.00,-12.00,-11.00,+0.00,-33.00,+6.00,+13.00,+5.00,+2.00,-5.00,-24.00,-27.00,-4.00
+14.00,+7.00,+9.00,+3.00,-2.00,+4.00,-12.00,+6.00,+21.00,+2.00,+2.00,+5.00,+13.00,+20.00,+32.00,+12.00
+7.00,+17.00,+5.00,+5.00,+24.00,+12.00,+8.00,+6.00,+17.00,+17.00,+4.00,-1.00,-7.00,+5.00,+2.00,+10.00
+6.00,-6.00,-5.00,+0.00,+5.00,+3.00,+3.00,-1.00,-21.00,-26.00,-5.00,-11.00,-4.00,-8.00,-14.00,-19.00
-11.00,-17.00,-5.00,-1.00,+1.00,+1.00,-11.00,-23.00,-6.00,+5.00,+0.00,-5.00,-9.00,-19.00,+13.00,+7.00
-52.00,-47.00,-17.00,-6.00,-10.00,-7.00,-6.00,-31.00,-16.00,-16.00,-9.00,-1.00,+3.00,+5.00,-3.00,-18.00
+39.00,+15.00,+6.00,+2.00,-6.00,-1.00,+8.00,+26.00,+15.00,+12.00,-1.00,+0.00,+1.00,+20.00,+4.00,+16.00
+9.00,+72.00,+22.00,+4.00,+3.00,+2.00,+5.00,+37.00,-9.00,-4.00,-1.00,+0.00,+0.00,-1.00,-1.00,+0.00
+46.00,+1.00,+3.00,+4.00,+7.00,+7.00,+21.00,-19.00,-14.00,-19.00,-4.00,+1.00,+1.00,+13.00,+9.00,+9.00
-5.00,-5.00,-1.00,-4.00,-8.00,-4.00,+2.00,+0.00,+18.00,+11.00,+4.00,-3.00,-7.00,-13.00,-7.00,+4.00
-26.00,+0.00,-1.00,-1.00,-2.00,-3.00,-7.00,-3.00,-12.00,-3.00,-1.00,+2.00,+1.00,-7.00,+4.00,-25.00
+5.00,-16.00,-12.00,-7.00,-4.00,-4.00,-1.00,-2.00,+7.00,+10.00,-2.00,-2.00,-3.00,+1.00,-10.00,+8.00
-9.00,-4.00,+2.00,+4.00,+2.00,-3.00,-19.00,-10.00,-46.00,-35.00,-13.00,-5.00,-2.00,-8.00,+4.00,-35.00
+1.00,+8.00,-5.00,-2.00,+1.00,-4.00,-7.00,-13.00,+39.00,+27.00,+10.00,+1.00,-4.00,-2.00,-7.00,+18.00
+28.00,+24.00,+13.00,+6.00,+3.00,+9.00,+11.00,+4.00,-16.00,+6.00,+2.00,-1.00,+5.00,+10.00,-12.00,-12.00
-6.00,-28.00,-14.00,-6.00,-8.00,-5.00,+8.00,-11.00,+28.00,+2.00,+0.00,+0.00,+0.00,+3.00,+0.00,+6.00
-22.00,-29.00,-10.00,-5.00,-2.00,-1.00,-5.00,+14.00,-5.00,-2.00,-5.00,-2.00,-3.00,+4.00,-4.00,+4.00
+7.00,+26.00,+7.00,+3.00,+2.00,-2.00,-4.00,+0.00,+7.00,-1.00,-3.00,-5.00,-7.00,-9.00,-4.00,-7.00
-10.00,+6.00,+0.00,-1.00,-3.00,+2.00,-7.00,+0.00,-14.00,-23.00,-5.00,-2.00,-2.00,-13.00,-12.00,-10.00
-3.00,+4.00,+3.00,+0.00,+0.00,-6.00,-8.00,-23.00,-3.00,+8.00,+4.00,+5.00,+2.00,-22.00,+10.00,+16.00
+0.00,-7.00,+4.00,+2.00,+15.00,+2.00,-1.00,+10.00,+45.00,+21.00,+4.00,+2.00,-1.00,+41.00,-1.00,-7.00
-3.00,-26.00,-17.00,-9.00,-7.00,-11.00,+4.00,+15.00,-19.00,-4.00,-6.00,-9.00,-11.00,-15.00,-19.00,-12.00
+9.00,+23.00,+7.00,+2.00,+1.00,+10.00,+16.00,-8.00,-14.00,-2.00,-2.00,-4.00,+5.00,-4.00,+4.00,+0.00
-22.00,-20.00,-6.00,-2.00,-6.00,+0.00,-40.00,+21.00,-3.00,-10.00,-2.00,-2.00,-4.00,-5.00,-8.00,-5.00
-5.00,-6.00,-1.00,-2.00,-4.00,-5.00,-4.00,+3.00,-2.00,+11.00,+5.00,+4.00,+4.00,-2.00,+10.00,+2.00
+7.00,+4.00,+0.00,+0.00,+1.00,-2.00,+6.00,-1.00,-8.00,-18.00,-6.00,+0.00,+1.00,-1.00,-24.00,-16.00
-20.00,-22.00,-9.00,-3.00,-7.00,-9.00,-12.00,+4.00,-2.00,+7.00,+1.00,+1.00,-2.00,-13.00,-5.00,-7.00
+12.00,-12.00,+2.00,+1.00,-1.00,-1.00,+8.00,-11.00,+14.00,+4.00,-6.00,-1.00,+1.00,+3.00,-2.00,+24.00
+4.00,+24.00,+1.00,-2.00,-3.00,+3.00,+5.00,-18.00,-6.00,-8.00,+3.00,-2.00,-1.00,+1.00,+4.00,+15.00
+23.00,+11.00,+3.00,+2.00,+1.00,+0.00,-2.00,+28.00,-4.00,-12.00,-4.00,+1.00,-2.00,+4.00,-6.00,-8.00
-2.00,-5.00,-8.00,-5.00,-2.00,-2.00,-3.00,-5.00,-15.00,+1.00,-1.00,-1.00,-1.00,-4.00,-2.00,-13.00
-14.00,-19.00,+4.00,+1.00,+1.00,-1.00,-3.00,-8.00,-1.00,-1.00,-2.00,-5.00,-6.00,-1.00,+2.00,-6.00
-7.00,+5.00,-1.00,+0.00,-1.00,+1.00,+4.00,-11.00,+0.00,-2.00,-2.00,-3.00,-1.00,+1.00,+9.00,+20.00
+5.00,-10.00,-6.00,-6.00,-6.00,-2.00,+6.00,-2.00,+6.00,-4.00,-2.00,-1.00,-2.00,+4.00,+18.00,+20.00
-8.00,-1.00,+2.00,-1.00,-2.00,-6.00,-32.00,+21.00,+0.00,-6.00,-2.00,+6.00,+3.00,-33.00,-21.00,-7.00
+28.00,-3.00,-2.00,+1.00,+8.00,+12.00,+30.00,+8.00,+8.00,+11.00,+2.00,-6.00,-7.00,+26.00,-3.00,-3.00
-16.00,-13.00,-2.00,-2.00,-3.00,-5.00,+3.00,+36.00,+14.00,+0.00,-3.00,-2.00,-1.00,-6.00,-7.00,-11.00
+1.00,+5.00,-2.00,+2.00,+0.00,-1.00,-19.00,-45.00,-44.00,-24.00,-8.00,-6.00,-6.00,-5.00,-2.00,-6.00
-16.00,+12.00,-1.00,-3.00,-9.00,-9.00,+11.00,-1.00,+11.00,+11.00,+0.00,-3.00,-4.00,+9.00,+14.00,+11.00
+11.00,+5.00,-2.00,+0.00,+3.00,+5.00,-14.00,+6.00,+1.00,-5.00,+4.00,+8.00,+20.00,+5.00,+1.00,+5.00
-2.00,-14.00,-4.00,+0.00,+11.00,+5.00,-4.00,-3.00,+16.00,-2.00,-5.00,-4.00,-6.00,-22.00,+11.00,+12.00
-4.00,-9.00,-2.00,+0.00,-1.00,+1.00,+0.00,-10.00,-19.00,-1.00,-2.00,-3.00,-8.00,+7.00,-2.00,-39.00
-19.00,-10.00,-5.00,-5.00,-3.00,-8.00,+9.00,+3.00,+21.00,-2.00,+3.00,+5.00,-1.00,+3.00,+7.00,+22.00
-22.00,-5.00,+1.00,-1.00,-2.00,-6.00,-17.00,+6.00,-15.00,+2.00,-3.00,-2.00,+1.00,-1.00,+7.00,-23.00
+13.00,-12.00,-8.00,-3.00,-8.00,-1.00,+5.00,+14.00,-11.00,+0.00,-3.00,-3.00,+0.00,-1.00,-39.00,-10.00
+10.00,+20.00,+2.00,-3.00,-2.00,-1.00,+1.00,-19.00,+7.00,-2.00,-3.00,-3.00,+1.00,-6.00,+4.00,-8.00
+15.00,+19.00,+14.00,+7.00,+8.00,+7.00,+5.00,+33.00,-6.00,-6.00,+1.00,-2.00,-1.00,+6.00,+7.00,+8.00
-28.00,-22.00,-8.00,-2.00,-4.00,-4.00,-8.00,-19.00,+8.00,-10.00,-1.00,-1.00,-7.00,-15.00,-1.00,+0.00
+28.00,+18.00,+6.00,+4.00,+0.00,+0.00,+11.00,+16.00,+6.00,+19.00,+5.00,+4.00,+4.00,+12.00,+3.00,+16.00
-25.00,-8.00,-6.00,-2.00,-1.00,-1.00,-8.00,-3.00,-7.00,-1.00,-2.00,+0.00,+2.00,+14.00,-13.00,-4.00
+5.00,-14.00,-6.00,-2.00,+0.00,-5.00,-1.00,-23.00,-21.00,-9.00,-5.00,-2.00,+5.00,+3.00,-9.00,-20.00
-7.00,-12.00,-6.00,-6.00,-16.00,-27.00,+2.00,-10.00,+8.00,-4.00,-3.00,-2.00,-7.00,+9.00,+3.00,+20.00
+4.00,+22.00,+8.00,+3.00,+0.00,+31.00,+18.00,+8.00,-7.00,+3.00,+0.00,+2.00,-3.00,-19.00,+3.00,-10.00
+15.00,+2.00,+2.00,+2.00,+3.00,+1.00,+20.00,+15.00,-12.00,-15.00,-3.00,+3.00,+9.00,-12.00,-1.00,-5.00
-9.00,-7.00,-1.00,+2.00,+17.00,+13.00,-1.00,-17.00,+9.00,+6.00,-2.00,-6.00,-7.00,+5.00,+17.00,+2.00
+23.00,+15.00,+1.00,-1.00,-2.00,-1.00,+4.00,-6.00,-22.00,-5.00,+0.00,-7.00,-19.00,-6.00,-5.00,-8.00
-2.00,-4.00,+0.00,-1.00,+1.00,-15.00,-16.00,+1.00,-2.00,-6.00,-2.00,-1.00,-4.00,+0.00,-3.00,+0.00
-10.00,-31.00,-7.00,-5.00,-5.00,-3.00,+7.00,+30.00,-5.00,+0.00,-1.00,-2.00,+9.00,-3.00,+8.00,+0.00
-8.00,+13.00,-1.00,-3.00,-6.00,-5.00,-8.00,-14.00,-5.00,-8.00,-6.00,-2.00,+2.00,+5.00,-7.00,-26.00
+0.00,-11.00,-3.00,-3.00,-2.00,+1.00,+5.00,+5.00,-7.00,-1.00,+1.00,+2.00,+5.00,+0.00,+12.00,+9.00
-10.00,-31.00,-4.00,-1.00,-6.00,-10.00,-16.00,-30.00,-6.00,-1.00,+0.00,+0.00,-4.00,+2.00,-1.00,+2.00
+9.00,+20.00,+10.00,+2.00,+3.00,+5.00,-2.00,+7.00,+23.00,+3.00,+2.00,+2.00,-1.00,+2.00,+8.00,-3.00
-28.00,-28.00,-13.00,-5.00,-4.00,-7.00,+0.00,-38.00,+0.00,+1.00,-2.00,+0.00,-1.00,-14.00,-11.00,+29.00
+33.00,+35.00,+12.00,+6.00,+6.00,+9.00,+6.00,-7.00,+25.00,+7.00,-1.00,-1.00,-1.00,+3.00,+0.00,+9.00
-1.00,-1.00,-5.00,-5.00,-2.00,+0.00,+9.00,+0.00,-6.00,+2.00,+4.00,+5.00,+6.00,+9.00,+6.00,+19.00
-13.00,-15.00,-5.00,-3.00,+0.00,-10.00,-16.00,-8.00,+3.00,+12.00,+3.00,+1.00,-2.00,-15.00,-4.00,-10.00
+2.00,-2.00,+0.00,-2.00,-4.00,-2.00,+0.00,-17.00,+1.00,+1.00,+0.00,-1.00,-3.00,+9.00,+2.00,+7.00
-32.00,-24.00,-12.00,-6.00,-8.00,-3.00,-14.00,-25.00,-1.00,-2.00,-5.00,-1.00,+2.00,-1.00,-2.00,-10.00
+7.00,+24.00,+13.00,+4.00,+10.00,+11.00,+23.00,+12.00,-7.00,-12.00,-6.00,-3.00,-1.00,-15.00,-10.00,+19.00
+15.00,-1.00,-4.00,-4.00,-4.00,+1.00,-5.00,-4.00,-7.00,-3.00,-3.00,-4.00,-17.00,-5.00,+12.00,+2.00
+18.00,+8.00,+1.00,+1.00,-2.00,-3.00,+20.00,+22.00,-6.00,+4.00,+3.00,+4.00,+7.00,+1.00,-3.00,-2.00
+3.00,-8.00,-1.00,+0.00,+9.00,+6.00,+1.00,+5.00,-4.00,-9.00,-1.00,-2.00,+9.00,-2.00,-10.00,-5.00
-21.00,-14.00,-7.00,-2.00,+0.00,-7.00,-16.00,-16.00,+7.00,-4.00,-4.00,-9.00,-15.00,-17.00,-7.00,-15.00
-9.00,-14.00,-3.00,-2.00,-7.00,-5.00,-9.00,-1.00,+2.00,-4.00,-4.00,-5.00,-2.00,+4.00,-2.00,+14.00
+22.00,+32.00,+5.00,+2.00,+5.00,+7.00,+10.00,+5.00,-16.00,+3.00,+0.00,+3.00,+2.00,-6.00,-9.00,-35.00
-3.00,-1.00,+0.00,+3.00,+0.00,-8.00,-16.00,+1.00,+8.00,-1.00,+0.00,-2.00,-9.00,-1.00,+17.00,-2.00
-11.00,+7.00,+2.00,+0.00,-7.00,-5.00,+8.00,+10.00,+24.00,+19.00,+1.00,+0.00,+5.00,-5.00,-20.00,-8.00
+15.00,+8.00,-1.00,-1.00,+0.00,+4.00,+6.00,+7.00,-27.00,-8.00,+3.00,+2.00,+0.00,+5.00,-5.00,+5.00
-11.00,-22.00,-7.00,-3.00,-5.00,-4.00,-11.00,+11.00,+15.00,+3.00,-2.00,-3.00,-3.00,+0.00,-8.00,-2.00
+11.00,+3.00,+0.00,-3.00,+0.00,+2.00,+18.00,+28.00,+0.00,+4.00,-1.00,+1.00,+4.00,-11.00,-9.00,-2.00
-3.00,+7.00,+5.00,+3.00,+3.00,-1.00,-20.00,-36.00,-26.00,-16.00,-3.00,-2.00,-4.00,+3.00,+17.00,+4.00
-14.00,-2.00,+0.00,-1.00,+0.00,+1.00,+5.00,+19.00,+10.00,-3.00,-2.00,+0.00,+0.00,-3.00,-5.00,+9.00
+27.00,+13.00,+7.00,+4.00,+3.00,+1.00,-2.00,+5.00,-3.00,+4.00,+0.00,-4.00,+0.00,-6.00,-3.00,-16.00
+2.00,+3.00,+1.00,-1.00,+1.00,+2.00,+2.00,+23.00,-13.00,+3.00,+2.00,+0.00,-1.00,+3.00,+0.00,-17.00
-20.00,-30.00,-13.00,-5.00,-5.00,-6.00,-8.00,+3.00,+2.00,+0.00,-2.00,+0.00,+0.00,+9.00,-3.00,-5.00
-6.00,+15.00,+0.00,-1.00,+1.00,-6.00,-7.00,-15.00,-14.00,+0.00,-3.00,-1.00,+1.00,+1.00,-8.00,+2.00
-10.00,-4.00,-1.00,-1.00,-3.00,-10.00,-24.00,-34.00,+15.00,-1.00,+2.00,-1.00,-2.00,+7.00,+4.00,+3.00
+11.00,+13.00,+9.00,+3.00,+3.00,+12.00,+33.00,+11.00,-3.00,-7.00,-3.00,+0.00,+3.00,-13.00,+6.00,+8.00
+17.00,+17.00,+0.00,-2.00,+1.00,-2.00,-6.00,-1.00,-7.00,-4.00,+3.00,+3.00,+4.00,+6.00,-2.00,-8.00
-15.00,+0.00,+0.00,+2.00,+0.00,+0.00,+1.00,+5.00,+11.00,+3.00,-3.00,-6.00,-9.00,-3.00,-10.00,-5.00
-5.00,-17.00,-5.00,-1.00,+0.00,-1.00,-8.00,-7.00,-7.00,-3.00,-4.00,-2.00,-8.00,-4.00,-2.00,-2.00
-25.00,-43.00,-21.00,-9.00,-8.00,-9.00,-15.00,-8.00,+18.00,+7.00,-1.00,-1.00,-1.00,+3.00,+0.00,+20.00
+29.00,+61.00,+23.00,+6.00,+1.00,+4.00,+6.00,+22.00,-10.00,+6.00,-3.00,-1.00,+3.00,-15.00,-6.00,-12.00
+5.00,-1.00,+1.00,+3.00,+2.00,+1.00,+4.00,-5.00,-8.00,-18.00,-2.00,+3.00,+6.00,+17.00,+2.00,-3.00
-6.00,-8.00,-4.00,-3.00,-3.00,+0.00,-7.00,+2.00,+14.00,+2.00,-1.00,-2.00,-3.00,-21.00,+6.00,+14.00
-5.00,+7.00,+2.00,+0.00,+0.00,-1.00,-18.00,-19.00,-13.00,+0.00,-1.00,-1.00,+2.00,+32.00,-4.00,-9.00
+4.00,-12.00,-9.00,-5.00,-5.00,-2.00,+5.00,-16.00,+13.00,+3.00,-1.00,-3.00,+1.00,-1.00,-2.00,+11.00
-37.00,-13.00,-3.00,-1.00,-2.00,-4.00,-7.00,+43.00,+7.00,+10.00,+1.00,-2.00,-2.00,+10.00,+3.00,-8.00
+2.00,-6.00,-1.00,+0.00,-2.00,+2.00,+11.00,+1.00,-3.00,-5.00,-3.00,-1.00,+1.00,-11.00,-4.00,+1.00
-9.00,-4.00,-2.00,+0.00,+2.00,+0.00,+3.00,+2.00,+8.00,-3.00,-1.00,-1.00,-2.00,-12.00,-10.00,+4.00
+15.00,+14.00,+2.00,+2.00,+0.00,+0.00,-5.00,+2.00,-9.00,-11.00,-1.00,-1.00,-2.00,+2.00,+2.00,-10.00
+21.00,+7.00,+0.00,+0.00,+3.00,+2.00,+1.00,-20.00,+11.00,+10.00,+3.00,+1.00,+2.00,-5.00,+0.00,-13.00
-12.00,-8.00,-2.00,-1.00,-2.00,-3.00,-6.00,-9.00,-19.00,-6.00,+0.00,-1.00,+0.00,+4.00,+2.00,-1.00
-4.00,-4.00,-1.00,-2.00,+3.00,-1.00,-3.00,-5.00,+11.00,-1.00,-2.00,+0.00,-4.00,-10.00,-2.00,-3.00
-32.00,-33.00,-16.00,-10.00,-9.00,-7.00,-1.00,-1.00,+5.00,+1.00,-1.00,-2.00,+0.00,+5.00,-6.00,+2.00
+11.00,+6.00,+8.00,+1.00,+1.00,+2.00,+6.00,+6.00,+11.00,+7.00,-2.00,-3.00,-3.00,-5.00,+5.00,+12.00
+31.00,+44.00,+16.00,+3.00,+3.00,+5.00,+4.00,+19.00,-33.00,-25.00,-1.00,+0.00,+0.00,+6.00,+5.00,+1.00
+8.00,+11.00,+1.00,+2.00,+0.00,+1.00,+2.00,-13.00,+28.00,+18.00,+7.00,+3.00,+1.00,+3.00,+0.00,+5.00
-13.00,-9.00,-2.00,+0.00,-2.00,-2.00,-6.00,+11.00,+1.00,-2.00,+0.00,-2.00,-2.00,+3.00,+0.00,-8.00
-16.00,-16.00,-10.00,-5.00,-4.00,-3.00,-4.00,-18.00,+7.00,+9.00,+2.00,+1.00,+1.00,-8.00,-4.00,-3.00
-5.00,-27.00,-8.00,-1.00,-1.00,-3.00,-3.00,+5.00,+8.00,+5.00,-2.00,-2.00,-4.00,-1.00,-1.00,+3.00
+0.00,+9.00,+2.00,+1.00,+1.00,+1.00,+2.00,-6.00,-19.00,-7.00,-3.00,-2.00,-2.00,-2.00,-4.00,-6.00
+12.00,-1.00,-2.00,-3.00,-4.00,-7.00,-4.00,-12.00,-4.00,-11.00,-4.00,-1.00,+1.00,+0.00,+2.00,-4.00
-2.00,-8.00,-3.00,+0.00,+2.00,-4.00,-23.00,-1.00,-12.00,-3.00,-2.00,-1.00,-3.00,-9.00,+5.00,+7.00
-12.00,+6.00,-2.00,-2.00,+0.00,+6.00,+19.00,-18.00,+9.00,+5.00,+1.00,+1.00,+4.00,+8.00,-6.00,-1.00
-9.00,-7.00,-1.00,-1.00,+0.00,+1.00,+4.00,-1.00,-19.00,-9.00,-5.00,-3.00,-3.00,-6.00,-1.00,-10.00
-11.00,-13.00,-5.00,+0.00,-1.00,-1.00,+8.00,-4.00,-4.00,+2.00,-2.00,-1.00,-1.00,-12.00,-2.00,-4.00
+18.00,+9.00,+3.00,+1.00,+1.00,-1.00,-19.00,+17.00,-2.00,-3.00,-2.00,+0.00,+1.00,+11.00,+5.00,-7.00
-12.00,-15.00,-4.00,-3.00,-3.00,-2.00,-13.00,+15.00,+13.00,+1.00,-2.00,-1.00,-1.00,+6.00,-16.00,+2.00
+18.00,+16.00,+1.00,+1.00,-2.00,+1.00,+15.00,+13.00,-15.00,-9.00,-1.00,-1.00,-2.00,-2.00,-2.00,-6.00
-13.00,-1.00,-2.00,-2.00,-2.00,-2.00,-4.00,-3.00,+14.00,+1.00,-2.00,-1.00,+0.00,+4.00,+2.00,+4.00
+4.00,+5.00,+1.00,+0.00,-2.00,+0.00,+8.00,-32.00,-2.00,+0.00,+0.00,+0.00,+0.00,-10.00,-3.00,-4.00
-11.00,-6.00,-1.00,-2.00,-2.00,-3.00,-1.00,+20.00,-2.00,+1.00,-3.00,-3.00,-4.00,-3.00,+3.00,+7.00
-1.00,-5.00,-4.00,-3.00,+0.00,-2.00,-5.00,-15.00,+8.00,+0.00,+0.00,-1.00,-3.00,-4.00,-3.00,+2.00
-13.00,-13.00,-2.00,+1.00,+1.00,-1.00,-8.00,+10.00,-3.00,+0.00,-1.00,+0.00,-2.00,-1.00,+9.00,+6.00
+16.00,+17.00,+2.00,-1.00,+1.00,+0.00,+12.00,+10.00,-8.00,+0.00,-2.00,-1.00,-1.00,+1.00,-6.00,+9.00
-7.00,-13.00,-6.00,-3.00,-3.00,-2.00,-1.00,+10.00,+3.00,-2.00,+0.00,+0.00,-2.00,-4.00,+6.00,+2.00
-3.00,+18.00,+1.00,-3.00,-1.00,-2.00,-11.00,-7.00,-2.00,+1.00,+0.00,-1.00,-3.00,-5.00,-7.00,-4.00
+20.00,+2.00,+2.00,+3.00,+4.00,+1.00,-3.00,-20.00,-11.00,-8.00,-2.00,-3.00,-1.00,+3.00,+0.00,-7.00
-26.00,-5.00,-4.00,-3.00,-1.00,+1.00,+1.00,-16.00,-4.00,+2.00,+0.00,-1.00,-1.00,-2.00,-9.00,-18.00
+24.00,+3.00,-2.00,+0.00,+0.00,+0.00,+6.00,+17.00,+2.00,+3.00,+3.00,+0.00,+0.00,+5.00,+6.00,+18.00
+16.00,+22.00,+4.00,+0.00,-2.00,-3.00,+0.00,-19.00,-14.00,-7.00,-4.00,-2.00,-2.00,-4.00,-6.00,-43.00
+4.00,+10.00,+4.00,+4.00,+5.00,+7.00,+4.00,+12.00,+8.00,-5.00,-2.00,+0.00,-1.00,-7.00,-1.00,+4.00
-10.00,-11.00,-3.00,-2.00,+0.00,+3.00,+22.00,-4.00,-1.00,+4.00,+1.00,+2.00,+1.00,+6.00,+0.00,+1.00
+9.00,+2.00,-1.00,+3.00,-1.00,-6.00,-9.00,-23.00,-8.00,-6.00,-2.00,-3.00,-4.00,-14.00,-8.00,-12.00
-10.00,-13.00,-4.00,-2.00,-4.00,-3.00,+0.00,+6.00,-3.00,+0.00,-2.00,+1.00,-1.00,+14.00,+3.00,+6.00
+15.00,-2.00,-3.00,-1.00,+1.00,+0.00,-6.00,-34.00,+6.00,+3.00,-2.00,-2.00,-3.00,+8.00,+0.00,+6.00
-15.00,-12.00,-6.00,-4.00,-7.00,-3.00,-4.00,+7.00,-12.00,-9.00,-3.00,-4.00,-4.00,-11.00,-5.00,-6.00
-15.00,+2.00,-1.00,-2.00,-2.00,-1.00,-3.00,-22.00,-1.00,+2.00,-1.00,-3.00,-1.00,+3.00,+12.00,-5.00
-4.00,+3.00,+1.00,+2.00,+0.00,+2.00,+20.00,+40.00,-5.00,-4.00,+0.00,-1.00,+2.00,-19.00,-7.00,+21.00
+12.00,-6.00,-2.00,-1.00,-2.00,+1.00,+0.00,+10.00,-9.00,-1.00,+2.00,+2.00,+0.00,+14.00,+4.00,-16.00
+1.00,+9.00,+1.00,-1.00,-2.00,-2.00,+5.00,+18.00,+10.00,-3.00,-3.00,+0.00,+1.00,-1.00,-11.00,+2.00
-8.00,-5.00,-1.00,-3.00,-2.00,-1.00,-5.00,-7.00,-9.00,+2.00,-1.00,-1.00,-2.00,+4.00,+3.00,+3.00
+4.00,-5.00,-4.00,-1.00,-1.00,-4.00,-9.00,-5.00,+12.00,+0.00,-2.00,-5.00,-2.00,-4.00,+4.00,+5.00
-13.00,-3.00,+1.00,+1.00,+1.00,+0.00,+1.00,-18.00,-8.00,-1.00,-1.00,+0.00,+1.00,+8.00,-5.00,+0.00
-1.00,-5.00,-2.00,+2.00,+1.00,-1.00,+4.00,+26.00,-1.00,-3.00,-1.00,-1.00,-1.00,-10.00,+0.00,+0.00
-5.00,-9.00,-4.00,-2.00,-1.00,+2.00,+9.00,+8.00,+13.00,+9.00,+3.00,+1.00,+2.00,+13.00,+1.00,-3.00
+3.00,+5.00,+2.00,+0.00,+0.00,+0.00,-6.00,+10.00,-12.00,-6.00,-4.00,-2.00,-2.00,-4.00,-1.00,+12.00
-17.00,-2.00,-4.00,-3.00,-3.00,-6.00,-10.00,-19.00,-7.00,-13.00,-2.00,+1.00,+0.00,-10.00,-8.00,-5.00
+11.00,+8.00,+4.00,+2.00,+0.00,-2.00,-9.00,-25.00,+2.00,+4.00,-2.00,-3.00,+0.00,+5.00,+7.00,+5.00
-1.00,-7.00,-4.00,-2.00,-1.00,-3.00,-1.00,-8.00,+2.00,+18.00,+2.00,-2.00,-3.00,-5.00,-4.00,-2.00
-9.00,-11.00,-1.00,+0.00,+1.00,+4.00,+3.00,+0.00,-3.00,+1.00,-1.00,+1.00,-1.00,+2.00,+2.00,+0.00
-5.00,+14.00,+6.00,+1.00,-1.00,-2.00,-5.00,+9.00,+25.00,+5.00,+2.00,-1.00,+0.00,-2.00,+0.00,+14.00
+10.00,+1.00,+0.00,-2.00,+0.00,-4.00,-9.00,-19.00,-11.00,-13.00,-3.00,-1.00,-2.00,+0.00,+2.00,-1.00
-6.00,+5.00,+1.00,-2.00,-6.00,-9.00,-24.00,-9.00,-20.00,-8.00,-3.00,-3.00,-4.00,-6.00,+2.00,-7.00
-1.00,-31.00,-8.00,-3.00,+0.00,-2.00,+14.00,+20.00,-11.00,-4.00,-2.00,-2.00,-4.00,-8.00,-31.00,-18.00
+0.00,+1.00,-4.00,-1.00,+1.00,+6.00,+18.00,+59.00,+28.00,+15.00,-1.00,-2.00,-2.00,+4.00,+1.00,+15.00
+6.00,+16.00,+6.00,+3.00,+4.00,+8.00,+20.00,-18.00,+6.00,-8.00,+2.00,+2.00,+3.00,+4.00,+16.00,+22.00
+11.00,+2.00,+1.00,+2.00,+3.00,+5.00,+4.00,+8.00,-13.00,-6.00,+0.00,+1.00,+1.00,-1.00,-4.00,-8.00
-1.00,+3.00,-1.00,-1.00,-1.00,-8.00,-29.00,-58.00,+9.00,+1.00,-2.00,-1.00,+1.00,+4.00,+9.00,+9.00
-13.00,-19.00,-7.00,-4.00,-6.00,-5.00,-6.00,-4.00,-11.00,-2.00,-1.00,-1.00,-4.00,-8.00,-12.00,-4.00
-3.00,-7.00,-3.00,-1.00,-1.00,-1.00,-2.00,+3.00,+15.00,+11.00,+1.00,-4.00,-3.00,-4.00,+2.00,+7.00
+0.00,-1.00,-1.00,+1.00,+1.00,+2.00,+9.00,-16.00,+3.00,-2.00,-2.00,-2.00,+1.00,+2.00,-2.00,-7.00
+10.00,+6.00,-6.00,-5.00,-4.00,-1.00,+3.00,+12.00,-6.00,-4.00,+9.00,+1.00,+1.00,+5.00,+12.00,-11.00
+6.00,+7.00,+10.00,+1.00,+0.00,+1.00,-7.00,-34.00,-12.00,-4.00,-5.00,-3.00,-2.00,-4.00,-2.00,-10.00
-8.00,-9.00,-4.00,-2.00,-2.00,-2.00,-13.00,-10.00,-12.00,-17.00,-9.00,-2.00,-5.00,+1.00,+1.00,-7.00
-19.00,-12.00,+1.00,-3.00,-2.00,-8.00,-10.00,-17.00,+20.00,+10.00,-1.00,+0.00,-3.00,-38.00,-12.00,-1.00
+28.00,+13.00,+3.00,+4.00,+3.00,-2.00,-6.00,+4.00,-19.00,-7.00,-3.00,+1.00,+5.00,+41.00,+1.00,-12.00
+7.00,-5.00,-3.00,-1.00,-1.00,+2.00,+8.00,-4.00,-13.00,-2.00,+5.00,+1.00,+1.00,-3.00,+7.00,-2.00
-4.00,-6.00,-1.00,-2.00,-2.00,+0.00,+1.00,+10.00,+14.00,+8.00,+4.00,-3.00,-1.00,+4.00,-3.00,+0.00
-6.00,-12.00,-8.00,-4.00,-3.00,+1.00,+2.00,+13.00,-2.00,-11.00,-4.00,-4.00,-2.00,+0.00,-6.00,-5.00
-12.00,-8.00,+3.00,-1.00,-1.00,+1.00,+1.00,+2.00,+12.00,+6.00,+3.00,+0.00,-3.00,-14.00,-1.00,+3.00
+4.00,+4.00,+0.00,-1.00,-3.00,-4.00,-5.00,-7.00,-23.00,-9.00,-1.00,+0.00,+2.00,+2.00,+6.00,-5.00
+0.00,-11.00,-1.00,+2.00,+1.00,+1.00,+3.00,+9.00,+0.00,-5.00,-3.00,-2.00,-1.00,-6.00,-12.00,+4.00
+0.00,+10.00,+2.00,+1.00,+2.00,+1.00,+0.00,-3.00,-8.00,-6.00,-1.00,+0.00,+1.00,+5.00,+1.00,-1.00
+1.00,-1.00,-4.00,-5.00,-3.00,+1.00,+2.00,-41.00,+2.00,+4.00,+0.00,-2.00,-1.00,-4.00,+2.00,+14.00
-20.00,-5.00,-1.00,-2.00,+0.00,-1.00,-3.00,-9.00,+5.00,-2.00,-4.00,-5.00,-2.00,+5.00,+2.00,-2.00
-16.00,-3.00,-6.00,-4.00,-4.00,-4.00,-2.00,+2.00,+1.00,+4.00,-1.00,-1.00,-4.00,-11.00,-3.00,+18.00
+8.00,+2.00,+3.00,+1.00,+0.00,+2.00,+9.00,+33.00,-8.00,-7.00,-3.00,-1.00,-1.00,+2.00,-5.00,-20.00
-12.00,-10.00,-3.00,+0.00,-1.00,-2.00,-1.00,+10.00,+15.00,+0.00,-2.00,+0.00,+0.00,-1.00,-3.00,+3.00
+12.00,-9.00,-1.00,-1.00,-1.00,-1.00,-3.00,-8.00,-17.00,+4.00,-2.00,-1.00,-1.00,-2.00,+8.00,+9.00
+4.00,+9.00,+1.00,+1.00,+0.00,-1.00,+4.00,+19.00,-7.00,-5.00,+4.00,+1.00,-1.00,-2.00,-4.00,-5.00
+15.00,+11.00,+2.00,+0.00,-1.00,-1.00,-2.00,-32.00,+2.00,-1.00,+0.00,+1.00,+1.00,+7.00,+8.00,+12.00
-14.00,-4.00,-2.00,-2.00,+0.00,+0.00,-1.00,+4.00,-8.00,-7.00,-6.00,-3.00,-3.00,-8.00,-5.00,-8.00
-5.00,-21.00,-9.00,-2.00,+1.00,-2.00,+0.00,+12.00,+3.00,-2.00,-1.00,-3.00,-2.00,-7.00,-14.00,-16.00
-17.00,+4.00,-2.00,-2.00,-1.00,-4.00,-8.00,-2.00,+2.00,+11.00,+1.00,+0.00,+1.00,-1.00,+0.00,-2.00
-1.00,-2.00,+3.00,+1.00,-1.00,+0.00,+2.00,+10.00,-5.00,-9.00,-2.00,+0.00,+0.00,+6.00,+1.00,+6.00
+0.00,+0.00,+1.00,+0.00,-2.00,+0.00,-2.00,-6.00,-9.00,-4.00,-2.00,-2.00,-2.00,-9.00,-2.00,-13.00
-4.00,+5.00,-2.00,-1.00,-2.00,-6.00,-10.00,+0.00,+1.00,+3.00,+1.00,+0.00,-1.00,+12.00,+4.00,+4.00
+12.00,+1.00,-2.00,-1.00,+0.00,+3.00,+3.00,-7.00,-12.00,-2.00,+0.00,+0.00,-1.00,-8.00,-5.00,-17.00
-9.00,-4.00,-1.00,-1.00,+1.00,-1.00,-1.00,+1.00,+17.00,+1.00,-2.00,-2.00,+0.00,-1.00,-3.00,+3.00
-6.00,-1.00,-1.00,-1.00,-1.00,-2.00,-5.00,-2.00,+10.00,+5.00,+0.00,+1.00,+0.00,-4.00,-1.00,+0.00
+0.00,-3.00,-4.00,-1.00,-3.00,-2.00,-3.00,-15.00,-4.00,-1.00,-2.00,-1.00,+0.00,-1.00,+0.00,+12.00
-2.00,-9.00,-2.00,-2.00,-3.00,-3.00,-5.00,-13.00,-1.00,-1.00,-2.00,-2.00,-1.00,+2.00,+0.00,-3.00
-5.00,+4.00,+0.00,-1.00,-1.00,-2.00,-2.00,+36.00,+3.00,-1.00,-2.00,-2.00,+0.00,+2.00,+1.00,+16.00
+1.00,+0.00,+1.00,+0.00,+1.00,-1.00,+5.00,+15.00,-20.00,-3.00,-1.00,+0.00,+1.00,-2.00,+1.00,-21.00
-2.00,+3.00,+1.00,-2.00,-3.00,+0.00,-5.00,-17.00,+39.00,+1.00,+0.00,-1.00,-1.00,-3.00,-1.00,+18.00
+18.00,+4.00,+1.00,+1.00,-1.00,+1.00,+7.00,-4.00,-10.00,+3.00,+0.00,+0.00,-2.00,-1.00,-13.00,-17.00
+19.00,-2.00,-2.00,+0.00,-1.00,+4.00,+7.00,+18.00,-18.00,-4.00,-2.00,+0.00,-1.00,-1.00,+7.00,+9.00
-9.00,+7.00,-1.00,-1.00,-1.00,+1.00,+0.00,+14.00,-8.00,+0.00,-3.00,-1.00,-2.00,+0.00,+0.00,+6.00
-14.00,-1.00,-3.00,-4.00,-2.00,-4.00,-5.00,+3.00,-1.00,+1.00,-1.00,+0.00,-2.00,-6.00,-6.00,-21.00
-19.00,-21.00,-4.00,-3.00,-1.00,-2.00,-6.00,-3.00,+9.00,+4.00,-1.00,+1.00,-1.00,-4.00,+0.00,+5.00
+13.00,+15.00,+3.00,+0.00,-1.00,-1.00,+1.00,+0.00,-2.00,-7.00,-1.00,-2.00,+0.00,+2.00,+4.00,-5.00
+0.00,-5.00,-2.00,+0.00,+2.00,-2.00,-2.00,-9.00,-7.00,-7.00,-2.00,-1.00,+0.00,-1.00,-1.00,-7.00
-1.00,+4.00,+0.00,-1.00,-3.00,-5.00,-5.00,-4.00,+16.00,+6.00,-1.00,+1.00,+1.00,-2.00,-1.00,-8.00
+3.00,-12.00,-2.00,+1.00,+0.00,-2.00,-3.00,+12.00,-9.00,-8.00,-3.00,-2.00,-1.00,-2.00,+0.00,-1.00
-2.00,+4.00,-4.00,-2.00,-3.00,+0.00,-2.00,-5.00,-9.00,+0.00,-2.00,-3.00,-2.00,-1.00,-7.00,-13.00
+2.00,+5.00,+2.00,+1.00,+0.00,+1.00,-4.00,-15.00,+15.00,+2.00,+0.00,-1.00,+0.00,-1.00,+6.00,+12.00
-1.00,-1.00,+2.00,+1.00,+3.00,+2.00,+3.00,+1.00,-15.00,-3.00,+0.00,-2.00,+0.00,-3.00,-2.00,-7.00
+8.00,+5.00,+0.00,-1.00,+0.00,-1.00,-5.00,-10.00,+9.00,+7.00,+0.00,+0.00,+0.00,+3.00,+0.00,-4.00
+3.00,-5.00,-1.00,-1.00,-4.00,-4.00,-11.00,-17.00,-3.00,-3.00,-2.00,-1.00,-1.00,+1.00,+4.00,+0.00
