-8.00,-11.00,-3.00,+1.00,+2.00,-1.00,+1.00,-11.00,+4.00,+5.00,+0.00,-3.00,-5.00,-5.00,-7.00,+0.00
-6.00,-3.00,-3.00,-2.00,+0.00,+0.00,+5.00,+4.00,-1.00,-1.00,+0.00,+0.00,+0.00,-1.00,-7.00,+0.00
-27.00,-20.00,-1.00,+1.00,+0.00,+0.00,-5.00,+8.00,+3.00,+4.00,+2.00,+2.00,-3.00,+0.00,-7.00,-6.00
-5.00,+4.00,-3.00,-3.00,-3.00,-3.00,-6.00,+6.00,+5.00,+2.00,-2.00,-2.00,-3.00,+0.00,+0.00,-1.00
+17.00,+15.00,+6.00,+1.00,+1.00,+0.00,-8.00,-39.00,-13.00,-6.00,-4.00,-1.00,-1.00,-1.00,-1.00,-27.00
+9.00,+6.00,+1.00,-2.00,-5.00,-1.00,+5.00,+4.00,+3.00,+1.00,+0.00,-1.00,+1.00,-1.00,+3.00,+4.00
+11.00,-4.00,-5.00,-3.00,-2.00,-3.00,-1.00,-17.00,-1.00,-1.00,+2.00,+1.00,+0.00,+0.00,-1.00,-1.00
-11.00,-9.00,-7.00,-3.00,-2.00,+0.00,+1.00,+4.00,-1.00,+0.00,-2.00,-2.00,-3.00,-2.00,-1.00,-3.00
-20.00,-26.00,-3.00,-3.00,-2.00,-3.00,-9.00,+0.00,+14.00,+11.00,+2.00,+0.00,-2.00,-1.00,+3.00,+11.00
+5.00,+16.00,+3.00,+1.00,+4.00,+1.00,-1.00,+8.00,-9.00,-11.00,-2.00,-3.00,-3.00,-1.00,+0.00,-1.00
-1.00,-14.00,-7.00,-2.00,-3.00,-2.00,+11.00,+29.00,-8.00,-9.00,-3.00,+1.00,-1.00,+0.00,-2.00,-8.00
+26.00,+26.00,+12.00,+6.00,+5.00,+2.00,+3.00,-1.00,+3.00,+5.00,+1.00,+1.00,+7.00,+0.00,-7.00,-2.00
-14.00,-14.00,-8.00,-4.00,-6.00,+1.00,-15.00,-18.00,-1.00,-6.00,+0.00,+3.00,+8.00,+2.00,+8.00,+4.00
-6.00,-5.00,-1.00,-3.00,-4.00,-9.00,-25.00,-59.00,+1.00,+5.00,-2.00,-4.00,-17.00,+4.00,+0.00,-3.00
-2.00,-7.00,-1.00,+1.00,+4.00,+3.00,+13.00,-15.00,-5.00,-4.00,-3.00,-2.00,-5.00,-9.00,-7.00,+7.00
+2.00,-11.00,-5.00,+0.00,+4.00,+1.00,+17.00,+70.00,+4.00,+3.00,+0.00,-6.00,+2.00,-4.00,-17.00,-4.00
-3.00,-2.00,+0.00,+0.00,+0.00,-1.00,+8.00,+16.00,+11.00,+6.00,+1.00,+1.00,+0.00,+2.00,+3.00,+4.00
+30.00,+43.00,+8.00,+3.00,+1.00,+1.00,+1.00,-3.00,-7.00,-8.00,-4.00,+1.00,+4.00,-3.00,-3.00,+10.00
-14.00,-8.00,-6.00,-3.00,-11.00,-10.00,-27.00,-41.00,-8.00,-3.00,+1.00,-1.00,-1.00,+2.00,+5.00,+2.00
+6.00,-4.00,-1.00,-1.00,-6.00,-6.00,+12.00,-24.00,-2.00,-1.00,-1.00,+4.00,-4.00,+9.00,+12.00,+0.00
-20.00,-19.00,-10.00,-6.00,-6.00,-2.00,-11.00,-15.00,-2.00,-1.00,+1.00,+3.00,+4.00,-9.00,-5.00,+5.00
+15.00,+10.00,+10.00,+7.00,+16.00,+6.00,+9.00,+19.00,+12.00,+2.00,-4.00,+0.00,+6.00,-4.00,-7.00,-7.00
+7.00,-18.00,-4.00,+0.00,+14.00,+11.00,+20.00,+40.00,-5.00,+1.00,+1.00,-12.00,-16.00,-5.00,+3.00,+0.00
+5.00,+13.00,+3.00,+0.00,-2.00,-1.00,-6.00,-17.00,+6.00,+8.00,+2.00,-5.00,-4.00,-12.00,-8.00,-7.00
+0.00,+19.00,+2.00,-1.00,-8.00,-13.00,-2.00,+7.00,-26.00,-17.00,-2.00,+0.00,-9.00,+1.00,+0.00,-3.00
-20.00,-17.00,-8.00,-9.00,-17.00,+8.00,-10.00,-23.00,+11.00,+6.00,+4.00,+7.00,+11.00,-5.00,+8.00,+2.00
+10.00,+15.00,+7.00,+3.00,+14.00,-1.00,-8.00,-14.00,+3.00,-4.00,-2.00,+7.00,+20.00,+7.00,+2.00,+4.00
-14.00,-13.00,-3.00,-1.00,+2.00,-13.00,-17.00,+4.00,-7.00,-3.00,-1.00,-4.00,-6.00,-1.00,-3.00,-6.00
+5.00,+3.00,-2.00,-2.00,+2.00,+10.00,+9.00,+7.00,+5.00,+3.00,-1.00,-6.00,-3.00,+0.00,-2.00,-10.00
+17.00,-7.00,+0.00,+1.00,-5.00,-7.00,-11.00,-34.00,-15.00,+0.00,+0.00,-1.00,-2.00,-7.00,-9.00,+3.00
+7.00,+8.00,+2.00,+0.00,-12.00,+4.00,+8.00,-8.00,+8.00,-1.00,-1.00,+2.00,-3.00,+0.00,+2.00,+11.00
-5.00,-12.00,-1.00,+1.00,+7.00,+9.00,+2.00,+44.00,+5.00,-1.00,+1.00,+6.00,+7.00,-6.00,-6.00,-1.00
+20.00,+23.00,+5.00,+4.00,+9.00,-9.00,-17.00,-9.00,+0.00,-5.00,-2.00,-4.00,-6.00,+10.00,+16.00,+6.00
-38.00,-11.00,-6.00,-3.00,+1.00,-2.00,+10.00,+36.00,-1.00,-2.00,+0.00,-6.00,-13.00,-1.00,-2.00,-4.00
-18.00,-27.00,-11.00,-9.00,-23.00,-5.00,+4.00,+7.00,+13.00,+6.00,-1.00,-4.00,-6.00,-18.00,-4.00,+1.00
+10.00,-5.00,+2.00,+0.00,-10.00,-4.00,+8.00,-13.00,-21.00,-11.00,-5.00,+8.00,-1.00,+17.00,-11.00,-4.00
+8.00,+7.00,+8.00,+5.00,+20.00,+16.00,+34.00,+10.00,+13.00,+14.00,+3.00,+5.00,+19.00,-2.00,-9.00,-2.00
+12.00,-6.00,+0.00,+2.00,+7.00,-1.00,-2.00,+40.00,-9.00,-17.00,-7.00,-13.00,+2.00,+14.00,+13.00,+9.00
+8.00,+16.00,+1.00,+2.00,+16.00,+8.00,-8.00,-33.00,-16.00,-1.00,+1.00,+0.00,+0.00,+4.00,+8.00,-16.00
-31.00,-2.00,-6.00,-6.00,-23.00,-5.00,-17.00,-51.00,-1.00,-10.00,-4.00,-6.00,+2.00,-3.00,+4.00,-6.00
-11.00,-36.00,-13.00,-10.00,-28.00,-31.00,-64.00,-73.00,-2.00,+3.00,-2.00,+5.00,-7.00,-17.00,+14.00,+18.00
+11.00,+7.00,-2.00,-3.00,-33.00,-13.00,+46.00,+40.00,+5.00,+5.00,+1.00,+13.00,+4.00,+11.00,-21.00,-3.00
+14.00,-28.00,-3.00,+11.00,+61.00,+43.00,+48.00,+50.00,-3.00,-1.00,+4.00,+17.00,+25.00,+13.00,-25.00,-4.00
+24.00,+38.00,+16.00,+11.00,+37.00,+11.00,-24.00,+67.00,-21.00,+3.00,-2.00,-36.00,-43.00,-37.00,+3.00,+8.00
-2.00,+21.00,+1.00,+1.00,+14.00,+6.00,-6.00,-46.00,+8.00,-13.00,-3.00,-14.00,-9.00,+25.00,+17.00,+4.00
-22.00,-10.00,-4.00,-5.00,-13.00,-14.00,-27.00,-56.00,-2.00,-1.00,-5.00,-13.00,-10.00,-9.00,+9.00,-12.00
+3.00,-16.00,-9.00,-11.00,-36.00,-22.00,-19.00,+6.00,-12.00,-11.00,-6.00,+6.00,+6.00,+10.00,-2.00,+5.00
-21.00,-30.00,-14.00,-7.00,-6.00,+6.00,+21.00,-19.00,+15.00,+9.00,+2.00,+16.00,+18.00,+3.00,+0.00,-10.00
-12.00,-14.00,-4.00,-2.00,-1.00,-1.00,-3.00,+0.00,-8.00,+3.00,+3.00,-1.00,-12.00,-7.00,+2.00,+9.00
-10.00,-5.00,+3.00,-1.00,+0.00,-1.00,-17.00,+4.00,+11.00,+3.00,-1.00,-3.00,+12.00,-3.00,+5.00,-2.00
+10.00,+49.00,+13.00,+1.00,-32.00,-29.00,-6.00,-8.00,-3.00,-9.00,-1.00,+1.00,-5.00,-36.00,-16.00,-9.00
-5.00,+1.00,+0.00,+4.00,+38.00,+18.00,-11.00,-3.00,-5.00,-5.00,+0.00,+12.00,+25.00,+51.00,-7.00,+14.00
+6.00,+7.00,-8.00,-5.00,-15.00,-3.00,+22.00,+38.00,-2.00,-2.00,-6.00,-17.00,-23.00,-3.00,+24.00,+5.00
+16.00,-36.00,-6.00,+0.00,+7.00,+24.00,+24.00,-14.00,+6.00,+4.00,+1.00,+7.00,-3.00,+10.00,-15.00,-3.00
-5.00,-5.00,+0.00,+2.00,+1.00,-3.00,+20.00,+27.00,+1.00,+13.00,+0.00,-3.00,-3.00,-7.00,+1.00,+5.00
-9.00,+8.00,-2.00,-2.00,-21.00,-17.00,-24.00,-46.00,+26.00,+4.00,+1.00,-2.00,+1.00,-22.00,-10.00,-2.00
-11.00,-5.00,-1.00,+0.00,+4.00,+2.00,-22.00,-32.00,-16.00,-10.00,-4.00,+8.00,+19.00,+2.00,-3.00,-7.00
-40.00,-41.00,-16.00,-5.00,+4.00,-7.00,+0.00,-19.00,-10.00,-2.00,+0.00,-3.00,-19.00,-9.00,-10.00,-8.00
+27.00,+37.00,+8.00,+0.00,-11.00,-8.00,-33.00,-20.00,+15.00,+7.00,-4.00,-7.00,+5.00,-14.00,+19.00,+10.00
+26.00,+54.00,+8.00,+3.00,+8.00,+17.00,+18.00,+37.00,-12.00,-10.00,-2.00,-2.00,-9.00,+0.00,-14.00,-5.00
+0.00,-10.00,+3.00,+2.00,-14.00,+1.00,+25.00,+37.00,-15.00,-24.00,-4.00,+3.00,+7.00,-5.00,-18.00,+4.00
+36.00,+43.00,+21.00,+10.00,+32.00,+12.00,-5.00,-2.00,-3.00,+0.00,+1.00,+9.00,+3.00,+5.00,+5.00,-1.00
-31.00,-29.00,-19.00,-12.00,-38.00,-19.00,-22.00,-47.00,-14.00,-13.00,-2.00,-12.00,-4.00,+16.00,-7.00,-10.00
-18.00,-8.00,-10.00,-7.00,+8.00,-9.00,-20.00,-26.00,+16.00,+17.00,+2.00,+7.00,+6.00,+7.00,+16.00,+0.00
+26.00,+19.00,+11.00,+9.00,+23.00,+28.00,+45.00,+9.00,-10.00,-14.00,-10.00,-22.00,-38.00,-56.00,-22.00,-4.00
-28.00,-35.00,-8.00,+1.00,-6.00,-16.00,-44.00,-8.00,+13.00,+24.00,+5.00,-4.00,+8.00,-1.00,-11.00,+6.00
-3.00,+35.00,+2.00,-1.00,+4.00,-3.00,+45.00,+52.00,+8.00,+8.00,+1.00,+0.00,+1.00,+23.00,+12.00,+1.00
+20.00,-7.00,+1.00,-3.00,-10.00,+7.00,+19.00,+1.00,-8.00,-10.00,+0.00,+7.00,+1.00,+14.00,+3.00,+17.00
+11.00,+34.00,+5.00,-1.00,-11.00,-3.00,-5.00,+34.00,-11.00,-12.00,+2.00,+7.00,+18.00,+7.00,-8.00,-1.00
+1.00,-4.00,-8.00,-3.00,+3.00,-19.00,+7.00,+10.00,-6.00,-9.00,-1.00,+3.00,+2.00,-10.00,+5.00,+4.00
-6.00,-25.00,-6.00,-2.00,+17.00,+23.00,-12.00,-31.00,+0.00,+12.00,-3.00,-6.00,-25.00,-9.00,-39.00,-33.00
-34.00,-28.00,-6.00,-1.00,-8.00,-5.00,-4.00,-75.00,-3.00,-11.00,-8.00,-16.00,-10.00,-3.00,+45.00,+17.00
-8.00,-5.00,-4.00,-3.00,-4.00,+0.00,+7.00,+19.00,+11.00,+5.00,+4.00,+7.00,+11.00,+8.00,+8.00,+3.00
+12.00,+18.00,-2.00,-5.00,-9.00,+0.00,+11.00,+31.00,-1.00,+5.00,+0.00,-4.00,-5.00,-7.00,-3.00,+5.00
+2.00,-2.00,+3.00,+1.00,-4.00,-14.00,-19.00,+0.00,-15.00,-27.00,-7.00,+1.00,+2.00,+0.00,+6.00,+11.00
-21.00,-27.00,-12.00,-6.00,-12.00,-17.00,-57.00,-76.00,+0.00,+4.00,+1.00,+4.00,+9.00,-1.00,-18.00,-30.00
-36.00,-57.00,-20.00,-8.00,+0.00,-9.00,+40.00,-9.00,+4.00,+14.00,+1.00,-7.00,-12.00,+1.00,-9.00,-3.00
+39.00,+14.00,+6.00,+10.00,+19.00,+42.00,+90.00,+90.00,-6.00,+9.00,-3.00,-8.00,+3.00,-35.00,-6.00,-34.00
+32.00,+67.00,+27.00,+8.00,-5.00,+7.00,+12.00,-12.00,+15.00,-5.00,+1.00,+4.00,+9.00,+46.00,+1.00,-4.00
+1.00,-13.00,-1.00,+0.00,+6.00,-2.00,+16.00,+0.00,-1.00,-8.00,+1.00,+5.00,+8.00,-17.00,+5.00,+8.00
-20.00,-14.00,-2.00,-8.00,-32.00,-41.00,-99.00,-77.00,+15.00,+15.00,-1.00,-9.00,-5.00,+15.00,-2.00,-22.00
-56.00,-73.00,-32.00,-13.00,+13.00,+23.00,-21.00,-118.00,-34.00,-25.00,-3.00,+16.00,+25.00,+13.00,+19.00,+0.00
+19.00,+24.00,+4.00,+2.00,+20.00,+9.00,+21.00,+51.00,-6.00,+10.00,-9.00,-32.00,-57.00,-25.00,-21.00,-15.00
+31.00,+20.00,+17.00,+11.00,+8.00,+14.00,+3.00,-32.00,-9.00,-15.00,+1.00,+2.00,+4.00,-14.00,+13.00,+28.00
+17.00,+30.00,+9.00,+3.00,+7.00,+11.00,+21.00,+91.00,+9.00,+23.00,+4.00,-1.00,-4.00,+29.00,+7.00,-7.00
+4.00,+12.00,+15.00,+2.00,-17.00,-18.00,-31.00,-26.00,+26.00,+7.00,+3.00,-3.00,-2.00,-9.00,+7.00,+12.00
-10.00,-9.00,-10.00,-3.00,-3.00,-10.00,-24.00,+3.00,-20.00,-8.00,+0.00,+9.00,+14.00,-8.00,+13.00,-31.00
-44.00,-28.00,-9.00,-6.00,-17.00,-9.00,+3.00,+18.00,+4.00,+5.00,-2.00,-3.00,-5.00,-2.00,-45.00,-32.00
+7.00,+3.00,-9.00,-2.00,+1.00,-2.00,+17.00,+28.00,+4.00,+5.00,+2.00,+10.00,+14.00,-1.00,+27.00,+47.00
+9.00,+50.00,+11.00,+4.00,+12.00,-4.00,-28.00,-13.00,-4.00,-8.00,-7.00,-11.00,-9.00,+2.00,+2.00,-4.00
-76.00,-46.00,-13.00,-7.00,-1.00,-6.00,-27.00,-69.00,+5.00,+4.00,+3.00,+2.00,-3.00,+3.00,+4.00,+19.00
+45.00,+34.00,+4.00,+3.00,-4.00,-3.00,+35.00,+101.00,-14.00,-11.00,-10.00,-11.00,-17.00,-7.00,-16.00,-21.00
+21.00,+30.00,+10.00,+5.00,+3.00,+10.00,+17.00,+21.00,+11.00,+4.00,+1.00,+8.00,+9.00,-5.00,+16.00,-18.00
-9.00,+7.00,+6.00,+2.00,-6.00,-9.00,-24.00,-23.00,+0.00,+1.00,+6.00,+6.00,+0.00,+10.00,+14.00,+8.00
-28.00,-70.00,-27.00,-10.00,-9.00,-9.00,+1.00,-19.00,-2.00,-5.00,+0.00,+3.00,+15.00,-2.00,+10.00,+17.00
+14.00,+17.00,+10.00,+0.00,-3.00,+1.00,+5.00,-8.00,+11.00,+26.00,+1.00,-7.00,-17.00,-29.00,+2.00,-6.00
-31.00,-33.00,-6.00,-4.00,-10.00,-9.00,-17.00,-79.00,-33.00,-40.00,-5.00,+6.00,-8.00,+2.00,-35.00,-51.00
+3.00,-33.00,-11.00,+2.00,+26.00,+12.00,+20.00,+44.00,+13.00,+10.00,-4.00,-6.00,+3.00,-1.00,+26.00,+54.00
+51.00,+63.00,+26.00,+9.00,+9.00,+2.00,+21.00,+58.00,+5.00,+4.00,+1.00,-14.00,-23.00,+19.00,+27.00,+12.00
+3.00,+3.00,+5.00,+4.00,-16.00,-7.00,+16.00,+47.00,+2.00,-8.00,+3.00,+3.00,+6.00,-14.00,-15.00,+5.00
-20.00,+13.00,-8.00,-5.00,+8.00,-4.00,-26.00,-21.00,-10.00,-2.00,+1.00,+6.00,+14.00,+10.00,-9.00,-21.00
-36.00,-58.00,-27.00,-13.00,-25.00,-30.00,-47.00,-28.00,-16.00,-19.00,-7.00,-10.00,-24.00,+8.00,-8.00,-39.00
+14.00,-3.00,+4.00,+0.00,-18.00,+0.00,-19.00,-20.00,-4.00,+3.00,-6.00,+4.00,+21.00,-45.00,-7.00,-1.00
-12.00,-32.00,-4.00,+2.00,+31.00,+6.00,+39.00,+19.00,+11.00,+43.00,+9.00,+3.00,-16.00,+32.00,+22.00,+15.00
-21.00,+9.00,-10.00,-2.00,+20.00,+15.00,+17.00,-7.00,+12.00,-12.00,-3.00,-9.00,-11.00,-23.00,-20.00,-21.00
+65.00,+117.00,+57.00,+17.00,+2.00,+0.00,+8.00,+23.00,-8.00,+7.00,-2.00,-9.00,-12.00,+14.00,-20.00,-6.00
-29.00,-26.00,-10.00,-9.00,-24.00,-22.00,-50.00,-28.00,-33.00,-52.00,+0.00,+6.00,+5.00,+13.00,-35.00,+14.00
-3.00,-20.00,-10.00,-5.00,-6.00,-10.00,-37.00,-4.00,-6.00,-15.00,-4.00,+6.00,+16.00,+17.00,+91.00,+13.00
-8.00,-71.00,-17.00,-2.00,-3.00,+5.00,+9.00,+13.00,+9.00,+18.00,-5.00,-3.00,-2.00,-22.00,-36.00,+19.00
+24.00,+3.00,-6.00,+1.00,+11.00,+12.00,+64.00,+93.00,-13.00,-2.00,+1.00,+2.00,-6.00,+0.00,-7.00,-6.00
+27.00,+29.00,+13.00,+6.00,+8.00,+21.00,+47.00,+22.00,+25.00,+21.00,+10.00,+3.00,+5.00,-8.00,+22.00,+4.00
-11.00,+20.00,+3.00,-7.00,-18.00,-15.00,-48.00,-93.00,+4.00,-9.00,-1.00,+2.00,+11.00,+0.00,-7.00,+7.00
-9.00,-40.00,-14.00,-4.00,+7.00,-8.00,-13.00,+37.00,-9.00,-7.00,-5.00,+1.00,+14.00,+8.00,+6.00,+13.00
-64.00,-21.00,-12.00,-11.00,-28.00,-22.00,-60.00,-86.00,+6.00,+7.00,+0.00,-11.00,-20.00,-12.00,-28.00,-48.00
-2.00,-47.00,-4.00,+3.00,+14.00,+7.00,+38.00,+69.00,-16.00,-11.00,-5.00,+2.00,+0.00,-21.00,-17.00,+11.00
+46.00,+74.00,+23.00,+9.00,+11.00,+16.00,+20.00,-2.00,+2.00,+4.00,-6.00,+0.00,-7.00,+12.00,-32.00,-23.00
+7.00,+16.00,+10.00,-1.00,-7.00,-5.00,-13.00,-33.00,-22.00,-24.00,+3.00,+3.00,+7.00,+30.00,+83.00,+78.00
-4.00,+16.00,+3.00,+1.00,-6.00,+7.00,+9.00,+28.00,-3.00,-8.00,-1.00,+5.00,+19.00,+11.00,-3.00,-4.00
-4.00,-27.00,-10.00,+1.00,+21.00,-4.00,-20.00,-44.00,+19.00,+10.00,-1.00,-3.00,-1.00,-18.00,+9.00,+6.00
-66.00,-90.00,-33.00,-18.00,-30.00,-22.00,-65.00,-100.00,+1.00,+6.00,-4.00,-11.00,-2.00,-11.00,-36.00,-13.00
+20.00,+0.00,+6.00,+1.00,+2.00,-2.00,+13.00,+0.00,+17.00,+27.00,+6.00,+9.00,-4.00,-1.00,-13.00,-29.00
-31.00,-74.00,-19.00,-6.00,+0.00,+5.00,+39.00,-48.00,-28.00,-18.00,-9.00,-9.00,-7.00,-23.00,-57.00,-26.00
+76.00,+83.00,+25.00,+8.00,+1.00,+17.00,+6.00,+22.00,+17.00,+16.00,-1.00,-2.00,-2.00,-15.00,-25.00,+17.00
+26.00,+58.00,+21.00,+5.00,-15.00,-8.00,+20.00,+25.00,-6.00,-29.00,+6.00,+12.00,+12.00,+45.00,+30.00,+8.00
-31.00,-25.00,-8.00,-3.00,+15.00,-4.00,-54.00,-126.00,+7.00,+3.00,+3.00,+1.00,+10.00,-28.00,+12.00,+2.00
+20.00,-28.00,-6.00,+0.00,-3.00,-20.00,-21.00,-49.00,+19.00,+6.00,-5.00,-8.00,-26.00,-2.00,+34.00,+10.00
-10.00,+22.00,+0.00,+2.00,+16.00,+20.00,+18.00,-38.00,+10.00,+34.00,+4.00,-4.00,-6.00,-27.00,-63.00,-41.00
-2.00,-28.00,-13.00,-6.00,-14.00,-9.00,+46.00,+123.00,-11.00,-6.00,-3.00,-17.00,-12.00,+19.00,+10.00,+8.00
+17.00,-12.00,+3.00,+3.00,-14.00,+11.00,-2.00,+36.00,+8.00,+18.00,+3.00,+8.00,+22.00,-3.00,-25.00,-13.00
+36.00,+61.00,+18.00,+6.00,+24.00,+8.00,+13.00,-8.00,-2.00,-28.00,-4.00,+6.00,-5.00,-1.00,+4.00,+18.00
-46.00,-52.00,-16.00,-10.00,-14.00,-20.00,-87.00,-96.00,-11.00,-14.00,-6.00,-12.00,-24.00,+15.00,+26.00,-17.00
+6.00,+33.00,+5.00,+1.00,+10.00,-1.00,+12.00,-28.00,-14.00,-26.00,-9.00,-3.00,-4.00,-8.00,+20.00,+15.00
-31.00,-56.00,-17.00,-3.00,-4.00,-7.00,-37.00,-93.00,-14.00,+4.00,-1.00,-11.00,-13.00,-5.00,-14.00,-7.00
+48.00,-5.00,-10.00,-5.00,-35.00,+11.00,+95.00,+117.00,+23.00,+32.00,+4.00,-1.00,+2.00,-20.00,+1.00,+17.00
+6.00,+28.00,+9.00,+5.00,+25.00,+10.00,-9.00,-58.00,-11.00,-8.00,+1.00,+25.00,+26.00,+18.00,+22.00,+1.00
+22.00,+34.00,+21.00,+9.00,+15.00,+10.00,-7.00,-15.00,+16.00,+0.00,-5.00,-32.00,-32.00,-36.00,+9.00,+2.00
+34.00,+73.00,+27.00,+7.00,+7.00,+11.00,-21.00,-72.00,-28.00,-34.00,-7.00,-12.00,-19.00,-17.00,-47.00,-23.00
-26.00,-11.00,-9.00,-4.00,-2.00,-20.00,-42.00,-19.00,-4.00,-13.00,-9.00,-8.00,+3.00,+15.00,+40.00,+21.00
-20.00,-66.00,-17.00,-2.00,-10.00,+5.00,+52.00,+0.00,+13.00,+20.00,+2.00,+0.00,-2.00,+9.00,-8.00,-10.00
-49.00,-97.00,-34.00,-8.00,+8.00,+24.00,+8.00,+48.00,-3.00,+27.00,+6.00,+11.00,+13.00,-13.00,+6.00,+11.00
+55.00,+82.00,+45.00,+8.00,-8.00,+0.00,+24.00,+90.00,+2.00,-14.00,-8.00,-9.00,-10.00,-12.00,-26.00,+7.00
+7.00,+36.00,+10.00,-5.00,-49.00,-25.00,-43.00,-55.00,+9.00,-21.00,+4.00,+17.00,+23.00,-1.00,+39.00,+13.00
-54.00,-107.00,-41.00,-16.00,+35.00,-11.00,-58.00,-76.00,-17.00,-21.00,-3.00,+8.00,+20.00,+17.00,-26.00,-12.00
+21.00,-4.00,-4.00,-1.00,+4.00,+11.00,+37.00,+4.00,+6.00,+29.00,-8.00,-31.00,-44.00,-41.00,-34.00,-12.00
+19.00,-2.00,+3.00,+4.00,-6.00,-3.00,+69.00,+60.00,-17.00,-10.00,+0.00,-1.00,-14.00,-14.00,-20.00,-4.00
-34.00,-3.00,-4.00,-3.00,+6.00,+9.00,-4.00,-44.00,-12.00,-20.00,+0.00,+3.00,+13.00,-1.00,-37.00,-3.00
+23.00,+32.00,+9.00,+4.00,-7.00,+7.00,+6.00,+46.00,-4.00,-2.00,-4.00,+2.00,+9.00,+45.00,+70.00,-2.00
-34.00,-42.00,-25.00,-13.00,-6.00,-7.00,-58.00,-127.00,+0.00,-24.00,+3.00,+10.00,+13.00,+19.00,-57.00,-11.00
+12.00,+9.00,-10.00,-3.00,+2.00,+9.00,+60.00,+90.00,-3.00,-7.00,-11.00,-15.00,-18.00,+8.00,+24.00,-1.00
-47.00,-48.00,-24.00,-14.00,-11.00,-24.00,-52.00,-82.00,+3.00,+11.00,-2.00,+1.00,-2.00,+6.00,-11.00,-19.00
+40.00,+56.00,+27.00,+13.00,-6.00,+19.00,+60.00,+127.00,+19.00,+4.00,-4.00,-11.00,-9.00,+17.00,+80.00,+104.00
+34.00,+41.00,+25.00,+11.00,+22.00,-4.00,-29.00,+8.00,-12.00,+12.00,+7.00,+18.00,+30.00,+12.00,-17.00,-73.00
-43.00,-31.00,-18.00,-7.00,-6.00,-7.00,-7.00,-71.00,-30.00,-27.00,-7.00,-9.00,-17.00,+7.00,-27.00,-49.00
+20.00,-55.00,-9.00,-1.00,+11.00,+13.00,+25.00,+119.00,+15.00,+13.00,+5.00,+3.00,+8.00,-13.00,-32.00,+26.00
-7.00,+13.00,-3.00,-6.00,-14.00,-10.00,-19.00,-30.00,+28.00,+32.00,+0.00,-7.00,-10.00,-5.00,-15.00,-12.00
+72.00,+61.00,+6.00,-9.00,-45.00,-38.00,-9.00,-50.00,+12.00,+17.00,-1.00,+3.00,+4.00,-7.00,+27.00,+22.00
+38.00,+64.00,+40.00,+21.00,+40.00,+27.00,-25.00,+41.00,-5.00,+17.00,+3.00,+11.00,+14.00,-20.00,-5.00,-20.00
-36.00,-48.00,-16.00,+1.00,+18.00,+6.00,+39.00,-49.00,-26.00,-5.00,-3.00,-7.00,-8.00,-14.00,-40.00,-58.00
+4.00,+12.00,+12.00,+0.00,-6.00,-17.00,-33.00,-48.00,-28.00,-19.00,-7.00,-13.00,-19.00,+8.00,-6.00,-23.00
+16.00,-44.00,-9.00,+4.00,+12.00,+38.00,+103.00,+95.00,+7.00,-14.00,+2.00,+1.00,-4.00,+16.00,+75.00,-3.00
+3.00,+1.00,-16.00,-13.00,-14.00,-19.00,-19.00,+32.00,+54.00,+53.00,+13.00,+15.00,+11.00,+17.00,+8.00,+26.00
-6.00,+28.00,+8.00,+0.00,-9.00,+3.00,+1.00,-74.00,-12.00,-8.00,-1.00,-1.00,+3.00,-6.00,+35.00,+6.00
-6.00,-6.00,+5.00,-4.00,-40.00,-23.00,-55.00,-92.00,+23.00,+5.00,+3.00,+10.00,+18.00,+8.00,+4.00,+3.00
-27.00,-50.00,-20.00,+3.00,+38.00,+1.00,-39.00,-40.00,-3.00,+11.00,+6.00,+21.00,+26.00,+0.00,-25.00,-69.00
-5.00,-15.00,-2.00,-3.00,+15.00,+23.00,+16.00,+52.00,+9.00,+12.00,-6.00,-23.00,-21.00,-2.00,+20.00,+19.00
+9.00,+46.00,+12.00,+6.00,+14.00,+11.00,-37.00,-53.00,-56.00,-42.00,-3.00,-2.00,-7.00,+7.00,+2.00,-12.00
-5.00,-13.00,-5.00,-7.00,-14.00,-19.00,+26.00,+63.00,-9.00,-8.00,-6.00,-6.00,-2.00,+13.00,-43.00,-16.00
-29.00,+3.00,-1.00,-6.00,-26.00,-11.00,-17.00,-89.00,-29.00,-15.00,-4.00,+0.00,+1.00,-5.00,-52.00,-28.00
-13.00,-50.00,-22.00,-10.00,-18.00,-15.00,+7.00,+60.00,+4.00,-15.00,-4.00,+9.00,+22.00,+12.00,+89.00,+51.00
-24.00,-52.00,-11.00,-3.00,+4.00,+2.00,-5.00,-30.00,+52.00,+52.00,+8.00,+1.00,-5.00,-7.00,-30.00,+14.00
-22.00,-17.00,-7.00,-7.00,-16.00,-24.00,-50.00,-60.00,+6.00,-26.00,-9.00,-7.00,-1.00,-15.00,+1.00,-56.00
+27.00,+72.00,+21.00,+14.00,+21.00,+28.00,+52.00,+86.00,-73.00,-36.00,-6.00,+2.00,-6.00,-22.00,-27.00,+84.00
-20.00,-16.00,-2.00,-5.00,-13.00,-27.00,-93.00,-70.00,+81.00,+54.00,+24.00,+11.00,+12.00,+11.00,+62.00,+85.00
+51.00,+104.00,+33.00,+10.00,+4.00,+9.00,+26.00,+88.00,-24.00,-19.00,-14.00,-9.00,-9.00,+13.00,-67.00,-77.00
-7.00,-48.00,-22.00,+6.00,+26.00,+35.00,+85.00,+82.00,+25.00,+16.00,+11.00,+6.00,-4.00,-6.00,+86.00,+11.00
-48.00,-111.00,-31.00,-21.00,-20.00,-24.00,-62.00,+30.00,+33.00,+7.00,+13.00,-1.00,-2.00,-24.00,-10.00,+49.00
-31.00,+37.00,-2.00,-5.00,-8.00,+0.00,+31.00,-68.00,-31.00,-26.00,-36.00,-22.00,-13.00,+16.00,-17.00,-89.00
+43.00,+35.00,+15.00,+7.00,+0.00,+0.00,-22.00,-2.00,-16.00,-35.00,-8.00,+1.00,+5.00,+10.00,+45.00,+74.00
-46.00,-80.00,-24.00,-8.00,+2.00,-9.00,-28.00,-44.00,-31.00,-10.00,-2.00,-1.00,+0.00,-19.00,-38.00,-23.00
+65.00,+112.00,+38.00,+16.00,+10.00,+9.00,+38.00,+75.00,+42.00,+27.00,-4.00,-9.00,-14.00,+5.00,-17.00,-72.00
-39.00,-15.00,-9.00,-7.00,-19.00,-26.00,-93.00,-126.00,-26.00,-21.00,+13.00,+9.00,+7.00,-24.00,-62.00,+36.00
+38.00,-11.00,+0.00,+2.00,+13.00,+33.00,+94.00,+127.00,+25.00,+17.00,-1.00,-4.00,+1.00,+34.00,+33.00,+9.00
-6.00,-4.00,-5.00,-4.00,-1.00,-6.00,-15.00,-62.00,-35.00,-10.00,-6.00,-6.00,-7.00,-27.00,-78.00,-49.00
-49.00,-70.00,-28.00,-8.00,-9.00,-15.00,-34.00,-38.00,-4.00,-5.00,-5.00,-8.00,-7.00,+5.00,+24.00,+3.00
+33.00,+32.00,+16.00,+2.00,-5.00,+2.00,-7.00,+34.00,+2.00,-1.00,-8.00,-6.00,-13.00,-20.00,-78.00,-44.00
-14.00,+11.00,+8.00,+9.00,+12.00,-2.00,+78.00,-27.00,-18.00,-48.00,-10.00,+3.00,+11.00,+16.00,+96.00,+74.00
-3.00,+35.00,+18.00,+3.00,-1.00,-3.00,-70.00,-89.00,+31.00,+54.00,+23.00,+10.00,-7.00,-68.00,-49.00,+14.00
-17.00,-19.00,-6.00,-8.00,-9.00,-6.00,-76.00,+32.00,+8.00,+9.00,-1.00,+4.00,+15.00,-11.00,-72.00,-27.00
+11.00,+24.00,-1.00,+2.00,+7.00,-8.00,+64.00,+40.00,-21.00,+1.00,+2.00,-4.00,-5.00,+62.00,+31.00,-79.00
-42.00,-80.00,-34.00,-11.00,-2.00,+6.00,-31.00,+71.00,+5.00,+1.00,+1.00,-6.00,-19.00,-21.00,+53.00,+66.00
+44.00,+80.00,+26.00,+7.00,+2.00,-4.00,+13.00,-3.00,+6.00,-5.00,-5.00,-3.00,+2.00,+10.00,+50.00,+51.00
-39.00,-22.00,-9.00,-5.00,-5.00,+0.00,+48.00,-18.00,-27.00,-49.00,-4.00,+7.00,+18.00,+21.00,+16.00,+11.00
+10.00,-65.00,-4.00,+2.00,+3.00,+5.00,-18.00,-41.00,+9.00,+12.00,-4.00,-2.00,+0.00,-37.00,-51.00,-29.00
+12.00,+70.00,+16.00,-3.00,-6.00,-23.00,+15.00,+2.00,+14.00,+19.00,+14.00,+9.00,+10.00,+2.00,-81.00,-115.00
-15.00,-20.00,-24.00,-11.00,-22.00,-74.00,-59.00,-33.00,+3.00,-4.00,+5.00,-4.00,-10.00,+8.00,+75.00,+96.00
+1.00,+12.00,+19.00,+3.00,+9.00,+52.00,-5.00,+0.00,+15.00,+34.00,+12.00,-7.00,-6.00,+27.00,+9.00,+18.00
+30.00,+6.00,+10.00,+8.00,+8.00,+1.00,+33.00,+53.00,-21.00,-39.00,-11.00,-2.00,-21.00,-48.00,+4.00,+17.00
-62.00,-77.00,-19.00,-6.00,+12.00,+97.00,-23.00,-114.00,-6.00,-4.00,-16.00,-5.00,-2.00,-49.00,-60.00,-37.00
-30.00,-42.00,-13.00,-8.00,+0.00,+4.00,+12.00,-20.00,+6.00,+4.00,-5.00,+1.00,+13.00,+34.00,-3.00,+4.00
+46.00,+88.00,+24.00,+2.00,-9.00,-34.00,-59.00,-104.00,+7.00,-12.00,-6.00,-2.00,-8.00,-17.00,+8.00,+15.00
-2.00,-26.00,-25.00,-2.00,-7.00,-37.00,+16.00,+22.00,-30.00,+7.00,+18.00,+9.00,+9.00,+46.00,-10.00,-17.00
+31.00,+0.00,+24.00,+0.00,-4.00,-29.00,-7.00,+35.00,+32.00,+47.00,+34.00,+5.00,+3.00,-7.00,-112.00,-36.00
-8.00,-10.00,+1.00,-5.00,-9.00,-42.00,+0.00,-44.00,-6.00,-17.00,-34.00,-9.00,-16.00,-8.00,+44.00,-40.00
-36.00,-39.00,-19.00,-5.00,+6.00,+6.00,+26.00,+20.00,-14.00,-27.00,-17.00,-15.00,-4.00,+29.00,+1.00,+25.00
-8.00,+33.00,-6.00,+4.00,+14.00,+77.00,+56.00,+26.00,+21.00,+8.00,-1.00,-8.00,-1.00,-31.00,-33.00,+7.00
-34.00,-27.00,+5.00,+2.00,+1.00,-19.00,-30.00,-62.00,-16.00,+10.00,+40.00,+19.00,+2.00,-16.00,-2.00,-1.00
+51.00,+53.00,+33.00,+0.00,-10.00,+0.00,-24.00,+6.00,-19.00,-49.00,-34.00,-3.00,-10.00,-23.00,-46.00,-51.00
-2.00,-18.00,-5.00,-10.00,-17.00,-47.00,+43.00,+59.00,+54.00,+17.00,-19.00,-1.00,+19.00,+55.00,+50.00,+54.00
+2.00,-9.00,+4.00,+10.00,+17.00,+33.00,+24.00,-36.00,-39.00,-27.00,-14.00,-2.00,+1.00,-19.00,-65.00,-37.00
-42.00,-57.00,-36.00,-10.00,-13.00,-33.00,-83.00,-95.00,-1.00,+12.00,+11.00,+2.00,+4.00,+5.00,+43.00,+39.00
-30.00,+24.00,+2.00,-7.00,-11.00,-9.00,+11.00,+22.00,-17.00,-13.00,+13.00,-5.00,-11.00,-3.00,-44.00,-24.00
+37.00,+8.00,+20.00,+17.00,+26.00,+45.00,+32.00,-18.00,-4.00,+10.00,-8.00,-5.00,-33.00,-55.00,-17.00,-32.00
+8.00,+4.00,+4.00,-3.00,-11.00,-26.00,+9.00,-15.00,-16.00,-22.00,-10.00,-3.00,+19.00,+44.00,+35.00,+6.00
+17.00,+18.00,+2.00,+4.00,+4.00,+3.00,+55.00,+48.00,-5.00,+15.00,-2.00,-3.00,-1.00,+10.00,-15.00,-39.00
-10.00,-29.00,-19.00,-2.00,+1.00,+33.00,-35.00,-35.00,+12.00,+13.00,+18.00,+10.00,+11.00,-7.00,-35.00,+8.00
-5.00,-19.00,-8.00,-6.00,-5.00,-13.00,-19.00,-90.00,-45.00,+0.00,+16.00,+4.00,+5.00,-19.00,-54.00,-123.00
-30.00,-75.00,-17.00,-12.00,+1.00,+83.00,+24.00,+79.00,+46.00,-8.00,+5.00,+3.00,-11.00,+33.00,+107.00,+127.00
+63.00,+113.00,+31.00,+13.00,+13.00,+16.00,-16.00,-9.00,-24.00,-2.00,-31.00,-13.00,-20.00,-43.00,-78.00,-97.00
-10.00,+8.00,+0.00,+4.00,+17.00,+39.00,+92.00,+43.00,-9.00,+9.00,+27.00,+5.00,+20.00,+36.00,+54.00,+100.00
+53.00,+71.00,+29.00,+17.00,+11.00,+8.00,-5.00,+9.00,-3.00,-25.00,-13.00,-1.00,+5.00,-13.00,-27.00,+34.00
-41.00,-52.00,-26.00,-5.00,-10.00,-53.00,-75.00,-126.00,+23.00,+39.00,+31.00,+14.00,+13.00,+23.00,-12.00,-22.00
-26.00,-55.00,-11.00,-20.00,-24.00,-36.00,-17.00,+64.00,+8.00,+4.00,+20.00,-5.00,-2.00,+4.00,+51.00,+26.00
+5.00,+34.00,+3.00,+4.00,+11.00,+27.00,+20.00,+61.00,-36.00,-45.00,-78.00,-21.00,-13.00,-16.00,-33.00,-57.00
-41.00,-19.00,-11.00,-13.00,-22.00,-29.00,-29.00,-91.00,+17.00,-14.00,+10.00,+9.00,-2.00,-7.00,+47.00,+13.00
+57.00,+18.00,+10.00,+6.00,+3.00,-26.00,+13.00,+45.00,+18.00,+5.00,-27.00,-10.00,+4.00,+8.00,-53.00,+31.00
-20.00,-33.00,-18.00,+0.00,-9.00,-38.00,-20.00,-70.00,-14.00,+17.00,-3.00,+3.00,-9.00,+5.00,+29.00,+10.00
+16.00,-38.00,-9.00,-1.00,+2.00,-29.00,+39.00,-11.00,+17.00,+23.00,+29.00,-1.00,+8.00,+8.00,-20.00,-8.00
-5.00,-18.00,-6.00,-1.00,+6.00,+26.00,-4.00,+21.00,-10.00,+0.00,+2.00,+0.00,-19.00,-20.00,+35.00,+43.00
-5.00,+22.00,+12.00,+3.00,+2.00,+35.00,+55.00,+37.00,-13.00,-8.00,-14.00,-7.00,-6.00,-28.00,+11.00,+8.00
-26.00,-8.00,-10.00,-1.00,-1.00,+5.00,-10.00,+20.00,-4.00,-23.00,+0.00,+10.00,+18.00,+34.00,+11.00,-7.00
+31.00,-14.00,-4.00,+0.00,+3.00,+0.00,-5.00,+80.00,-21.00,+0.00,+11.00,+1.00,+2.00,+14.00,-50.00,-33.00
-17.00,+21.00,+6.00,+2.00,-2.00,-20.00,-5.00,-93.00,-14.00,+0.00,-10.00,-7.00,+3.00,-11.00,-1.00,-37.00
-23.00,-47.00,-16.00,-14.00,-26.00,-55.00,-45.00,-25.00,+44.00,+63.00,+43.00,+11.00,-6.00,-12.00,+54.00,+24.00
+22.00,+61.00,+30.00,+11.00,+11.00,+33.00,+14.00,-21.00,-26.00,-33.00,-15.00,-14.00,-21.00,-13.00,-36.00,-24.00
-9.00,-55.00,-9.00,-10.00,-6.00,-50.00,-30.00,-54.00,+46.00,+15.00,+21.00,+10.00,+2.00,+30.00,+74.00,+29.00
+17.00,+19.00,-2.00,+3.00,+8.00,+45.00,-23.00,+41.00,-43.00,-27.00,-39.00,-14.00,+5.00,-19.00,-122.00,-68.00
+5.00,+15.00,+2.00,-4.00,+3.00,-9.00,-56.00,-108.00,-29.00,-18.00,-18.00,+0.00,-12.00,-66.00,+30.00,-35.00
-9.00,-45.00,-7.00,-1.00,-8.00,-29.00,+0.00,+103.00,+5.00,+7.00,-7.00,-9.00,-6.00,+9.00,+28.00,+21.00
+29.00,+31.00,+4.00,+9.00,+10.00,+30.00,+36.00,+5.00,-31.00,-6.00,-12.00,-9.00,+5.00,+27.00,-16.00,+20.00
-79.00,-101.00,-54.00,-12.00,-22.00,-26.00,+21.00,+42.00,+31.00,+20.00,+32.00,+6.00,+14.00,+22.00,-4.00,+4.00
+11.00,+47.00,+63.00,+16.00,+27.00,+24.00,-7.00,-27.00,+10.00,+36.00,+58.00,+18.00,+11.00,+4.00,-34.00,-6.00
+107.00,+29.00,+26.00,+9.00,+22.00,+76.00,+35.00,+41.00,-16.00,-48.00,-47.00,-20.00,-50.00,+1.00,-1.00,-15.00
-42.00,+33.00,+11.00,+1.00,+3.00,+7.00,+11.00,-45.00,-25.00,-23.00,+3.00,+17.00,+39.00,-45.00,-10.00,-15.00
+9.00,-12.00,-5.00,+0.00,+0.00,-1.00,-3.00,-2.00,+12.00,-16.00,-18.00,+2.00,-2.00,+34.00,+70.00,+59.00
-17.00,-21.00,-26.00,-2.00,-2.00,-9.00,-10.00,-40.00,+19.00,+24.00,+3.00,-4.00,+28.00,+11.00,-38.00,-16.00
-71.00,-38.00,-16.00,-13.00,-21.00,-36.00,-100.00,-111.00,+13.00,+19.00,+16.00,+3.00,-5.00,-21.00,+34.00,+38.00
+81.00,+30.00,+17.00,+16.00,+15.00,+11.00,+77.00,+108.00,+22.00,+0.00,+1.00,-7.00,-38.00,+9.00,-18.00,-44.00
-13.00,-6.00,-13.00,-6.00,-9.00,-43.00,-34.00,-94.00,-47.00,+30.00,+18.00,+3.00,+22.00,+7.00,-85.00,-87.00
+8.00,-6.00,+4.00,-4.00,-7.00,+12.00,+36.00,-6.00,+13.00,-10.00,-10.00,-7.00,-16.00,+25.00,+51.00,+27.00
-32.00,-2.00,-14.00,-20.00,-40.00,-116.00,-97.00,-61.00,+8.00,-11.00,-14.00,-1.00,-7.00,-48.00,-36.00,+39.00
-9.00,-9.00,-1.00,+5.00,+13.00,+72.00,+26.00,-100.00,-33.00,-20.00,-36.00,-21.00,-16.00,+24.00,-92.00,-66.00
-13.00,-13.00,-21.00,-19.00,-28.00,-99.00,-78.00,-88.00,+44.00,+31.00,+18.00,+7.00,+0.00,-45.00,+109.00,+97.00
+47.00,+25.00,+24.00,+20.00,+60.00,+87.00,+92.00,+93.00,-24.00,-37.00,-33.00,-23.00,-53.00,+22.00,-23.00,-27.00
-1.00,+28.00,-5.00,+7.00,+13.00,-14.00,+54.00,+20.00,+17.00,-20.00,-8.00,+9.00,+64.00,-29.00,-2.00,-60.00
+12.00,-23.00,-16.00,-12.00,-23.00,-18.00,-63.00,-5.00,-32.00,+8.00,+21.00,+10.00,+10.00,-43.00,-49.00,-82.00
-4.00,-14.00,+17.00,+14.00,+18.00,-22.00,+46.00,+73.00,-14.00,-30.00,-12.00,-2.00,+5.00,+26.00,+0.00,-3.00
-1.00,-20.00,-43.00,-11.00,-21.00,-1.00,-35.00,-88.00,+26.00,+27.00,+12.00,+11.00,-14.00,-15.00,+15.00,+45.00
-16.00,-26.00,+2.00,-13.00,-13.00,-27.00,+6.00,+34.00,+5.00,+53.00,+24.00,+8.00,+2.00,+62.00,+39.00,+32.00
+43.00,+66.00,+35.00,+8.00,+2.00,+6.00,-46.00,+7.00,-10.00,-34.00,-31.00,-11.00,-34.00,+1.00,-9.00,-33.00
-12.00,+12.00,-1.00,+8.00,+13.00,+48.00,+70.00,+96.00,+0.00,-20.00,-23.00,-10.00,+6.00,-10.00,+29.00,+66.00
-37.00,-19.00,+0.00,-3.00,-9.00,-48.00,-19.00,-31.00,-33.00,-1.00,+19.00,+11.00,+33.00,-10.00,-57.00,-49.00
+27.00,-11.00,-10.00,-1.00,+4.00,+70.00,+30.00,+1.00,+16.00,-14.00,-27.00,-7.00,-15.00,+23.00,+23.00,+0.00
-57.00,-16.00,-7.00,-2.00,-15.00,-90.00,-69.00,-81.00,+6.00,+46.00,+36.00,+10.00,+10.00,-87.00,-32.00,+42.00
+50.00,+21.00,+39.00,+13.00,+30.00,+68.00,+74.00,+125.00,-22.00,-12.00,-6.00,-22.00,-90.00,+89.00,-47.00,-113.00
-14.00,-12.00,-10.00,+1.00,+8.00,+15.00,-3.00,+46.00,+57.00,+1.00,-4.00,+7.00,+75.00,+12.00,+52.00,+80.00
+0.00,-1.00,+2.00,-16.00,-57.00,-125.00,-107.00,-92.00,-16.00,+25.00,+8.00,+3.00,+9.00,-21.00,-20.00,+48.00
+7.00,+29.00,-6.00,+9.00,+35.00,+105.00,+91.00,+16.00,+3.00,-3.00,-7.00,-11.00,-19.00,+45.00,-94.00,-27.00
-23.00,+10.00,+9.00,+4.00,+12.00,+5.00,-30.00,-64.00,+20.00,+6.00,+19.00,+4.00,-6.00,-88.00,+44.00,-4.00
-8.00,+22.00,+2.00,-11.00,-35.00,-97.00,-55.00,+34.00,-31.00,-54.00,-4.00,+4.00,-10.00,-10.00,-23.00,-38.00
+64.00,+29.00,+20.00,+18.00,+31.00,+65.00,+28.00,-34.00,+27.00,+5.00,-7.00,-15.00,-24.00,+4.00,-23.00,-32.00
-42.00,-68.00,-28.00,-17.00,-19.00,-42.00,-21.00,-32.00,+9.00,+23.00,+23.00,+21.00,+17.00,-12.00,+43.00,+13.00
-2.00,-43.00,-27.00,-9.00,-30.00,-68.00,-25.00,+32.00,-12.00,+12.00,+12.00,+0.00,+6.00,+22.00,-45.00,-30.00
+33.00,+73.00,+31.00,+4.00,+8.00,+25.00,-4.00,-29.00,+5.00,+90.00,+21.00,+0.00,+8.00,+23.00,+6.00,+36.00
-54.00,+31.00,+17.00,+2.00,-15.00,-40.00,+4.00,-28.00,-21.00,-83.00,-37.00,-18.00,-57.00,-40.00,+108.00,+63.00
+24.00,-45.00,-15.00,+18.00,+55.00,+100.00,+100.00,+112.00,+37.00,+23.00,+2.00,-7.00,-17.00,+10.00,-41.00,-20.00
-3.00,-27.00,-4.00,-6.00,+6.00,+54.00,+25.00,+3.00,+6.00,-51.00,-3.00,+11.00,+33.00,-55.00,+67.00,+43.00
+34.00,+68.00,+15.00,+2.00,-17.00,-93.00,-35.00,-10.00,-74.00,-40.00,-41.00,-20.00,-26.00,-18.00,-107.00,-81.00
-29.00,-38.00,-23.00,-2.00,+14.00,+66.00,+7.00,-43.00,+51.00,+46.00,+23.00,+7.00,+50.00,+77.00,+18.00,-47.00
-7.00,+14.00,+12.00,+3.00,-8.00,-66.00,-39.00,+9.00,-17.00,-15.00,-10.00,-11.00,-42.00,-35.00,+63.00,+49.00
-16.00,-30.00,+1.00,-5.00,-7.00,-13.00,-23.00,-128.00,-12.00,+73.00,+43.00,+16.00,+14.00,+45.00,-42.00,-78.00
-25.00,-17.00,-4.00,-10.00,-10.00,-30.00,-4.00,+36.00,+13.00,-64.00,-35.00,-6.00,+12.00,+20.00,+26.00,+46.00
-9.00,-2.00,-16.00,+9.00,+34.00,+80.00,+38.00,-1.00,-25.00,-40.00,-39.00,-16.00,-12.00,-32.00,-93.00,-70.00
-9.00,-43.00,-19.00,-8.00,-10.00,+7.00,+13.00,+53.00,+23.00,+17.00,+24.00,+10.00,+13.00,+12.00,+94.00,+71.00
-5.00,+35.00,+8.00,-4.00,-12.00,-52.00,-32.00,-50.00,+7.00,-18.00,-8.00,-5.00,-17.00,-58.00,-47.00,+12.00
+7.00,+14.00,-9.00,+1.00,-24.00,-52.00,-69.00,-94.00,-62.00,-43.00,-25.00,-9.00,-7.00,+55.00,+27.00,-23.00
+58.00,-5.00,+0.00,-8.00,+3.00,+20.00,+75.00,+84.00,-2.00,+100.00,+84.00,+20.00,+9.00,+10.00,-36.00,-23.00
+4.00,+74.00,+42.00,-7.00,-24.00,-65.00,-68.00,-46.00,+14.00,-86.00,-55.00,-19.00,+17.00,-5.00,-34.00,-30.00
-4.00,+4.00,-20.00,+3.00,+16.00,+29.00,+56.00,+71.00,+28.00,+17.00,-22.00,-2.00,+5.00,+3.00,+57.00,+66.00
-26.00,-36.00,-1.00,-9.00,-16.00,-10.00,-23.00,-68.00,+11.00,+6.00,-1.00,-5.00,-40.00,-35.00,+21.00,+31.00
-25.00,-22.00,-23.00,+8.00,+8.00,+52.00,-12.00,-7.00,-16.00,-9.00,-7.00,-3.00,-9.00,-99.00,-12.00,-23.00
-20.00,-42.00,-15.00,+0.00,+5.00,+8.00,-3.00,-19.00,-24.00,+44.00,+43.00,+5.00,-41.00,+55.00,-29.00,+53.00
+12.00,+28.00,+20.00,+1.00,-7.00,-9.00,-15.00,+41.00,-21.00,-34.00,-1.00,+10.00,+76.00,+45.00,-1.00,-2.00
+13.00,+17.00,+23.00,+17.00,+24.00,+44.00,+10.00,-87.00,-6.00,-14.00,-18.00,-7.00,+5.00,-15.00,-53.00,-82.00
+2.00,-82.00,-75.00,-15.00,-28.00,-128.00,-52.00,+112.00,+0.00,+18.00,+1.00,-5.00,-3.00,+59.00,-15.00,+25.00
-3.00,+46.00,+75.00,+5.00,+14.00,+70.00,+64.00,+49.00,-10.00,+84.00,+73.00,+16.00,+17.00,+23.00,+7.00,-34.00
+13.00,+32.00,+1.00,+1.00,+6.00,+11.00,-23.00,-8.00,+1.00,-45.00,-48.00,-16.00,-75.00,-78.00,-11.00,+3.00
-23.00,-61.00,-33.00,-16.00,-43.00,-79.00,-84.00,+36.00,+21.00,+15.00,+15.00,+5.00,+7.00,+27.00,+19.00,-37.00
+14.00,+66.00,+37.00,-3.00,-10.00,-40.00,+55.00,-35.00,-7.00,+14.00,-24.00,-19.00,-66.00,-116.00,-119.00,-98.00
-50.00,-41.00,-24.00,+3.00,+37.00,+76.00,+71.00,+22.00,+18.00,-64.00,-26.00,+24.00,+78.00,+103.00,+120.00,+100.00
+31.00,-25.00,-27.00,+3.00,+25.00,+41.00,+28.00,+50.00,+51.00,+28.00,+1.00,-10.00,-10.00,-55.00,-32.00,+14.00
-15.00,+34.00,+18.00,-4.00,-1.00,+16.00,+19.00,+43.00,-42.00,-13.00,+5.00,-5.00,-6.00,-49.00,-74.00,-60.00
-22.00,-70.00,-34.00,-10.00,-8.00,-39.00,-49.00,-36.00,+5.00,-24.00,+6.00,+7.00,+7.00,+56.00,+64.00,+21.00
+51.00,+74.00,+6.00,-4.00,-31.00,-78.00,-90.00,-113.00,-13.00,-4.00,-30.00,-9.00,+6.00,-25.00,-31.00,-57.00
-27.00,-51.00,-26.00,-4.00,-18.00,-51.00,+13.00,+81.00,-20.00,-12.00,+5.00,+1.00,-5.00,+56.00,+27.00,-9.00
-21.00,-62.00,-35.00,-20.00,-6.00,+21.00,+37.00,-20.00,+6.00,+80.00,+33.00,+8.00,-9.00,-23.00,-24.00,-12.00
+7.00,+24.00,+49.00,-1.00,+2.00,-41.00,-18.00,+30.00,+39.00,-82.00,-82.00,-19.00,+17.00,+64.00,+14.00,+77.00
-22.00,-24.00,-27.00,+3.00,+10.00,-18.00,-11.00,+2.00,-32.00,-91.00,-79.00,-17.00,+4.00,-64.00,+8.00,-4.00
+46.00,+28.00,+20.00,+5.00,+10.00,+82.00,-6.00,+1.00,+10.00,+3.00,-1.00,+3.00,-21.00,+61.00,+19.00,+31.00
-38.00,-76.00,-28.00,-2.00,+13.00,+39.00,+60.00,+23.00,-25.00,-6.00,+2.00,-4.00,+20.00,-83.00,-67.00,-78.00
+57.00,+67.00,+20.00,+6.00,-18.00,-70.00,-27.00,-26.00,+13.00,+30.00,+25.00,+15.00,+4.00,-70.00,-38.00,+3.00
-8.00,+31.00,+14.00,+3.00,-17.00,+40.00,-62.00,-119.00,+7.00,+37.00,+23.00,+7.00,+36.00,+57.00,+60.00,-94.00
+22.00,+3.00,-3.00,-7.00,+6.00,-21.00,-21.00,+84.00,+21.00,+37.00,+28.00,+1.00,-58.00,-72.00,+17.00,+89.00
-76.00,-64.00,-36.00,-18.00,-45.00,-99.00,-33.00,-85.00,-9.00,+2.00,-27.00,-15.00,-18.00,+89.00,-27.00,-51.00
+17.00,+29.00,+51.00,+25.00,+80.00,+127.00,+58.00,+85.00,-31.00,-45.00,+26.00,+13.00,+12.00,-86.00,+17.00,+26.00
+3.00,+3.00,-17.00,-11.00,-20.00,-28.00,+0.00,-17.00,+1.00,-55.00,-60.00,-33.00,-31.00,+11.00,-74.00,-63.00
-30.00,-18.00,-38.00,+4.00,-9.00,-20.00,-33.00,-128.00,-6.00,-4.00,+11.00,+11.00,+50.00,+0.00,+53.00,+30.00
-40.00,-42.00,-27.00,-22.00,+0.00,+17.00,-2.00,+32.00,+46.00,+97.00,+107.00,+37.00,+6.00,-8.00,+61.00,+22.00
+42.00,+108.00,+83.00,+5.00,-47.00,-124.00,-100.00,-40.00,-59.00,-86.00,-75.00,-23.00,-11.00,-33.00,-86.00,-57.00
+7.00,-60.00,-22.00,+15.00,+36.00,+81.00,+81.00,-16.00,+41.00,-24.00,-29.00,-10.00,-17.00,-49.00,+37.00,+11.00
-9.00,+16.00,+62.00,-1.00,+11.00,+9.00,+39.00,+55.00,-70.00,+18.00,-7.00,-12.00,-16.00,+75.00,-1.00,-76.00
-11.00,-66.00,-71.00,-14.00,-7.00,-24.00,-15.00,-25.00,+62.00,-85.00,-72.00,-3.00,-14.00,-22.00,+19.00,+123.00
+21.00,+2.00,-22.00,-5.00,+4.00,+25.00,+45.00,-32.00,+8.00,+41.00,+44.00,+13.00,+45.00,+70.00,+23.00,-65.00
+40.00,+27.00,+23.00,+2.00,+1.00,-13.00,+8.00,+127.00,+5.00,+62.00,+34.00,+3.00,-33.00,-35.00,-5.00,+115.00
-35.00,-41.00,-18.00,-10.00,-31.00,-39.00,-53.00,-82.00,-23.00,-18.00,-27.00,-16.00,-13.00,-18.00,-69.00,-107.00
+50.00,+55.00,+38.00,+34.00,+48.00,+75.00,+65.00,-2.00,+16.00,+0.00,+3.00,+9.00,+4.00,-34.00,-1.00,+12.00
-40.00,-60.00,-30.00,-10.00,-3.00,+20.00,-14.00,+24.00,+9.00,+31.00,+26.00,+21.00,+4.00,+2.00,+21.00,+71.00
-1.00,+26.00,-7.00,-7.00,-18.00,-42.00,-21.00,-18.00,-8.00,-9.00,-2.00,-3.00,+5.00,+19.00,+71.00,+26.00
+35.00,+34.00,+10.00,+7.00,-8.00,+4.00,-11.00,-19.00,+5.00,-7.00,+15.00,+7.00,-19.00,-51.00,-10.00,+33.00
+5.00,+7.00,+28.00,-5.00,+4.00,+3.00,-39.00,+58.00,+8.00,+52.00,+32.00,+0.00,+21.00,+61.00,+11.00,+30.00
-27.00,-50.00,-27.00,+10.00,+22.00,-7.00,-17.00,-128.00,-14.00,-66.00,-58.00,-27.00,-12.00,-28.00,+26.00,-11.00
+38.00,+23.00,-21.00,+0.00,+2.00,-63.00,+8.00,+104.00,-17.00,+79.00,+53.00,+21.00,+14.00,+30.00,-35.00,-1.00
-33.00,+84.00,+31.00,-17.00,-51.00,-32.00,-66.00,-44.00,-14.00,-19.00,+0.00,+1.00,-47.00,+11.00,-48.00,-79.00
+37.00,+39.00,+15.00,+20.00,+17.00,+20.00,-2.00,-28.00,+10.00,-49.00,-14.00,-9.00,+78.00,+41.00,+40.00,+21.00
+2.00,+23.00,+66.00,+29.00,+73.00,+123.00,+115.00,+88.00,-5.00,+127.00,+75.00,+17.00,-38.00,-33.00,+29.00,+15.00
-31.00,-106.00,-66.00,-27.00,-18.00,+2.00,-33.00,+9.00,-1.00,-24.00,-28.00,-8.00,+6.00,-64.00,-18.00,+12.00
+6.00,-53.00,-31.00,-16.00,-6.00,-111.00,-6.00,-101.00,-10.00,-65.00,-49.00,-22.00,+13.00,-4.00,-30.00,-66.00
+67.00,+127.00,+25.00,+7.00,+11.00,+40.00,+11.00,+112.00,+0.00,-27.00,-23.00,-13.00,-24.00,-25.00,+22.00,+5.00
+13.00,-12.00,-49.00,+6.00,-11.00,-24.00,-3.00,-93.00,-75.00,-30.00,+17.00,-6.00,-3.00,+20.00,-71.00,-92.00
-37.00,+63.00,+82.00,+0.00,-8.00,-14.00,-47.00,+7.00,-14.00,+103.00,+61.00,+9.00,+0.00,-8.00,+2.00,+58.00
+10.00,+17.00,+19.00,+13.00,+5.00,-9.00,+10.00,-67.00,+59.00,-44.00,-32.00,+0.00,+20.00,+46.00,+52.00,-9.00
-27.00,-70.00,-30.00,-6.00,-7.00,-37.00,-7.00,-79.00,+25.00,+46.00,+13.00,-5.00,-48.00,-66.00,-7.00,+63.00
-22.00,-21.00,-20.00,-8.00,-14.00,-5.00,+4.00,+25.00,+22.00,+21.00,+22.00,+15.00,+40.00,+17.00,+115.00,+57.00
-5.00,-38.00,-15.00,-5.00,-10.00,-39.00,-64.00,-35.00,-38.00,-34.00,+5.00,-6.00,-28.00,+27.00,-20.00,-68.00
-14.00,+0.00,-21.00,-14.00,-10.00,-20.00,-29.00,-124.00,+7.00,+18.00,+2.00,+11.00,+23.00,-33.00,-29.00,+24.00
+17.00,-9.00,+21.00,+7.00,+21.00,+47.00,+65.00,+116.00,-8.00,+15.00,-2.00,+3.00,+18.00,-2.00,+40.00,-34.00
+10.00,-7.00,-14.00,+7.00,+18.00,+56.00,+63.00,+14.00,+11.00,-14.00,-2.00,-4.00,-46.00,+44.00,-90.00,-69.00
+9.00,-26.00,-1.00,-4.00,+1.00,-45.00,+26.00,-47.00,-8.00,-69.00,-27.00,+8.00,+63.00,-5.00,+15.00,-87.00
-39.00,-21.00,-2.00,-9.00,-10.00,+21.00,-24.00,+36.00,+40.00,+34.00,+9.00,-6.00,+7.00,-10.00,+2.00,+127.00
-47.00,-61.00,-22.00,+0.00,-18.00,-56.00,-47.00,-114.00,-14.00,-46.00,-30.00,-8.00,+4.00,-9.00,-3.00,+7.00
-29.00,-82.00,-44.00,-36.00,-43.00,-78.00,-111.00,-7.00,+8.00,+108.00,+52.00,+17.00,+11.00,-31.00,+10.00,+2.00
-31.00,-33.00,-1.00,+14.00,+26.00,+92.00,+76.00,-65.00,+6.00,-42.00,-58.00,-19.00,-30.00,+25.00,-52.00,-22.00
+106.00,+97.00,+61.00,+17.00,+3.00,-38.00,-1.00,+73.00,-35.00,-75.00,-33.00,-2.00,+6.00,-63.00,-41.00,-58.00
-42.00,-43.00,-29.00,-8.00,-22.00,-14.00,-30.00,-58.00,-48.00,-19.00,+9.00,+13.00,+2.00,+34.00,-22.00,-54.00
+21.00,+42.00,+19.00,-14.00,+5.00,+35.00,+7.00,-84.00,+47.00,+31.00,+4.00,-18.00,-19.00,+84.00,-22.00,+39.00
-49.00,-88.00,-54.00,-7.00,-16.00,+11.00,-16.00,+12.00,+17.00,+19.00,-43.00,-22.00,-53.00,-69.00,+4.00,-2.00
-5.00,+18.00,+17.00,+17.00,+35.00,+54.00,+41.00,+88.00,+14.00,-7.00,-7.00,+19.00,+71.00,+0.00,+88.00,+127.00
+40.00,+60.00,+37.00,+3.00,-7.00,-46.00,-18.00,+120.00,-21.00,-7.00,-14.00,+0.00,-46.00,-24.00,+20.00,-45.00
-37.00,+16.00,+6.00,+0.00,-42.00,-112.00,-81.00,-98.00,-6.00,-40.00,-38.00,-11.00,+55.00,+42.00,-47.00,-102.00
+24.00,-21.00,-41.00,-29.00,-10.00,-17.00,-42.00,-24.00,+44.00,+112.00,+108.00,+33.00,+34.00,-11.00,+76.00,+60.00
-31.00,-79.00,-50.00,+1.00,-1.00,-29.00,+40.00,-21.00,-47.00,-64.00,-70.00,-34.00,-46.00,+0.00,-128.00,-107.00
+18.00,+35.00,+34.00,+7.00,+36.00,+123.00,+91.00,-31.00,-25.00,+21.00,+24.00,+1.00,-68.00,-2.00,+56.00,-5.00
-44.00,-21.00,-31.00,-3.00,-12.00,-50.00,-62.00,+24.00,+59.00,-47.00,-14.00,+22.00,+88.00,-34.00,+85.00,+127.00
+15.00,+43.00,+19.00,+15.00,+27.00,+21.00,+36.00,-105.00,-7.00,+36.00,+10.00,+8.00,-10.00,-8.00,-51.00,-47.00
-13.00,+0.00,+24.00,+2.00,+4.00,+57.00,-6.00,+77.00,+33.00,+22.00,+34.00,-1.00,-63.00,+60.00,+105.00,+28.00
-38.00,-43.00,-44.00,-1.00,-4.00,-33.00,-35.00,-25.00,-1.00,-53.00,-19.00,-5.00,+56.00,-38.00,-41.00,-71.00
+33.00,+75.00,+54.00,-11.00,-15.00,-70.00,+24.00,-35.00,+7.00,+73.00,+45.00,-1.00,-4.00,+40.00,-28.00,-15.00
+94.00,+105.00,+26.00,+25.00,+18.00,+52.00,+48.00,+76.00,-15.00,-77.00,-64.00,-17.00,+41.00,-10.00,+21.00,+13.00
-26.00,-22.00,+16.00,-3.00,+6.00,-20.00,-24.00,-38.00,-37.00,+57.00,+70.00,+16.00,+16.00,-63.00,-84.00,-71.00
+24.00,-18.00,-14.00,+3.00,+4.00,-3.00,+24.00,-34.00,+39.00,-24.00,-33.00,-5.00,-6.00,+90.00,+61.00,+51.00
-47.00,-52.00,-30.00,-5.00,-13.00,-12.00,-52.00,+61.00,-9.00,+0.00,+10.00,-5.00,-20.00,-70.00,-22.00,-7.00
-38.00,-116.00,-70.00,-21.00,-55.00,-127.00,-88.00,+46.00,-10.00,+74.00,+48.00,+16.00,+17.00,+24.00,-104.00,-89.00
+74.00,+98.00,+73.00,+32.00,+33.00,+39.00,+74.00,+95.00,-27.00,-34.00,+10.00,-15.00,-63.00,+7.00,+10.00,+89.00
+23.00,-3.00,+6.00,+17.00,+52.00,+96.00,+96.00,+22.00,+32.00,+97.00,+26.00,+0.00,-27.00,+46.00,-43.00,-78.00
+8.00,+40.00,+30.00,-5.00,+25.00,+30.00,+24.00,-93.00,+41.00,-49.00,-19.00,-7.00,+24.00,-84.00,+45.00,-4.00
-14.00,+37.00,+10.00,-6.00,-28.00,-20.00,-54.00,+115.00,-14.00,-41.00,-47.00,+1.00,-6.00,+19.00,+65.00,+20.00
-33.00,-45.00,-33.00,-10.00,-31.00,-106.00,-70.00,-125.00,-34.00,+44.00,+16.00,-6.00,-67.00,-86.00,-79.00,-93.00
-34.00,-36.00,-21.00,-18.00,-66.00,-107.00,-99.00,-84.00,+25.00,+3.00,+9.00,+20.00,+49.00,+67.00,+74.00,+71.00
+51.00,+6.00,+18.00,+25.00,+52.00,+127.00,+121.00,+90.00,-33.00,+46.00,+24.00,+10.00,+33.00,+95.00,+47.00,+115.00
-12.00,-3.00,-1.00,+0.00,+21.00,+9.00,+83.00,-121.00,+29.00,-44.00,-32.00,-5.00,-37.00,-86.00,-46.00,-35.00
+23.00,+45.00,-3.00,-7.00,-3.00,+4.00,+21.00,+57.00,+24.00,+1.00,+11.00,+0.00,+23.00,+23.00,+3.00,-18.00
-52.00,-29.00,-29.00,-8.00,-15.00,+19.00,-68.00,-75.00,-37.00,-26.00,-11.00,-21.00,-20.00,-126.00,-128.00,-39.00
-6.00,-82.00,-60.00,+26.00,+40.00,+66.00,+47.00,+83.00,-2.00,+91.00,+35.00,+10.00,+17.00,+29.00,+57.00,-79.00
+58.00,+100.00,+118.00,+6.00,-25.00,-34.00,-39.00,+44.00,-6.00,+65.00,+106.00,+31.00,+9.00,-6.00,+31.00,+25.00
-21.00,-75.00,-15.00,-20.00,-5.00,-10.00,-3.00,-97.00,-31.00,+17.00,-25.00,-7.00,+12.00,-33.00,+67.00,+15.00
+45.00,+54.00,-43.00,-6.00,-26.00,-48.00,-12.00,+96.00,-8.00,+34.00,-25.00,-23.00,-37.00,-43.00,-87.00,-5.00
+10.00,+22.00,+45.00,-24.00,-49.00,-105.00,-77.00,+36.00,+19.00,+55.00,+74.00,+21.00,-12.00,+92.00,+18.00,+94.00
-6.00,+33.00,-14.00,+10.00,+37.00,+95.00,+61.00,-58.00,-28.00,-92.00,-85.00,-48.00,-28.00,-101.00,-49.00,+45.00
-48.00,-66.00,-57.00,-16.00,-8.00,-67.00,-63.00,-91.00,+22.00,+79.00,+40.00,+19.00,+32.00,+127.00,-5.00,-56.00
-2.00,+18.00,+40.00,+4.00,-7.00,-19.00,-3.00,+37.00,-4.00,-15.00,-22.00,-21.00,-17.00,+9.00,+89.00,+111.00
-5.00,-32.00,-28.00,+18.00,+44.00,+71.00,+70.00,+3.00,-8.00,+19.00,-13.00,-1.00,-14.00,-40.00,-45.00,-51.00
-34.00,-37.00,-6.00,-9.00,-26.00,-62.00,-89.00,-77.00,-5.00,+1.00,+26.00,+30.00,+6.00,-19.00,-74.00,-20.00
-61.00,-34.00,-22.00,-7.00,-2.00,+34.00,+5.00,-113.00,+24.00,-6.00,-10.00,+1.00,+16.00,-27.00,+73.00,+61.00
+42.00,+14.00,+17.00,-7.00,-27.00,-124.00,+4.00,+58.00,-19.00,-22.00,-4.00,-11.00,-47.00,-19.00,+4.00,-41.00
+22.00,+36.00,+12.00,+17.00,+44.00,+99.00,+92.00,-28.00,+22.00,-50.00,-50.00,-6.00,+58.00,+118.00,-18.00,-15.00
-21.00,-43.00,-23.00,+4.00,+8.00,-20.00,-21.00,+23.00,+24.00,-12.00,+5.00,-3.00,+0.00,-15.00,+6.00,-7.00
-16.00,-47.00,-23.00,+12.00,+39.00,+127.00,+30.00,-14.00,-22.00,+50.00,+23.00,-3.00,-23.00,-33.00,-101.00,-48.00
+19.00,+96.00,+44.00,-19.00,-31.00,-88.00,-81.00,-105.00,-31.00,-34.00,+22.00,+22.00,+10.00,-104.00,+31.00,-83.00
-3.00,-26.00,-32.00,-13.00,-37.00,-34.00,-1.00,+56.00,+30.00,+11.00,-38.00,-29.00,-77.00,+55.00,+29.00,+27.00
-48.00,-37.00,+41.00,-8.00,+4.00,+87.00,+32.00,-70.00,-10.00,+51.00,+32.00,+5.00,+40.00,+16.00,-13.00,-64.00
+41.00,+34.00,+2.00,+30.00,+1.00,-32.00,-68.00,-87.00,-21.00,-81.00,-74.00,-15.00,+4.00,-69.00,-32.00,-42.00
+38.00,+74.00,+48.00,+25.00,+27.00,+67.00,+91.00,+119.00,+20.00,+42.00,+62.00,+23.00,+34.00,+95.00,+19.00,+53.00
-59.00,-35.00,-42.00,-64.00,-85.00,-128.00,-128.00,-128.00,+10.00,+39.00,-28.00,-17.00,-33.00,-60.00,-86.00,-30.00
-23.00,-46.00,-52.00,-22.00,+37.00,+70.00,+80.00,-71.00,-31.00,-66.00,-31.00,-11.00,-40.00,+24.00,-26.00,-38.00
-40.00,-56.00,-23.00,-43.00,-49.00,-61.00,-48.00,-25.00,-10.00,+49.00,+50.00,+20.00,+15.00,+11.00,+60.00,+24.00
-26.00,-27.00,+12.00,+13.00,+25.00,+21.00,-62.00,-128.00,+19.00,-40.00,-41.00,-37.00,-43.00,-73.00,+77.00,+104.00
-3.00,+5.00,-12.00,+29.00,+25.00,-3.00,+60.00,+64.00,-9.00,-45.00,-15.00,+4.00,-10.00,-45.00,-60.00,-70.00
-6.00,-15.00,+5.00,+27.00,-4.00,-36.00,+64.00,+81.00,+27.00,+6.00,+14.00,-4.00,-22.00,+51.00,+56.00,+88.00
+42.00,+46.00,+30.00,+1.00,-28.00,-101.00,-40.00,+88.00,+5.00,+32.00,+36.00,+23.00,+39.00,+6.00,-17.00,-40.00
-45.00,+8.00,+9.00,+2.00,+6.00,-30.00,-22.00,-42.00,+26.00,+2.00,-1.00,+17.00,+84.00,+104.00,-120.00,-128.00
-29.00,-55.00,-37.00,-14.00,-39.00,+19.00,-101.00,-5.00,+24.00,-1.00,+4.00,+11.00,-98.00,-116.00,+38.00,+110.00
+21.00,-26.00,-10.00,-2.00,+41.00,+14.00,+16.00,-57.00,-9.00,+95.00,+38.00,-4.00,+13.00,+100.00,+90.00,+25.00
+55.00,+61.00,+29.00,+21.00,+64.00,+109.00,+107.00,+40.00,+21.00,-108.00,-81.00,-18.00,+60.00,-19.00,-70.00,+32.00
-21.00,-54.00,-42.00,-17.00,-9.00,+24.00,-40.00,-67.00,-22.00,-31.00,-18.00,+9.00,+21.00,+42.00,+11.00,-61.00
-25.00,+21.00,-14.00,-8.00,-39.00,-106.00,-78.00,+48.00,-26.00,+20.00,+8.00,-13.00,+4.00,-19.00,+22.00,+6.00
+25.00,+8.00,+3.00,+3.00,-16.00,-71.00,-1.00,+60.00,-34.00,-53.00,-14.00,+8.00,-9.00,-119.00,-20.00,+56.00
+74.00,+67.00,+7.00,+21.00,+28.00,+97.00,+69.00,+85.00,+76.00,+18.00,+27.00,-13.00,+16.00,+88.00,+10.00,+51.00
+2.00,-9.00,+34.00,-20.00,+0.00,+21.00,+4.00,+3.00,+1.00,+127.00,+42.00,+1.00,-43.00,-14.00,-41.00,-25.00
-30.00,+6.00,-30.00,-19.00,-37.00,-127.00,-125.00,-122.00,-45.00,-128.00,-65.00,-16.00,-31.00,-15.00,+10.00,+10.00
+26.00,+6.00,+15.00,+36.00,+53.00,+82.00,+86.00,+127.00,-40.00,+34.00,-5.00,-16.00,+56.00,-106.00,-102.00,-97.00
-64.00,-61.00,-32.00,+1.00,-23.00,-32.00,-67.00,-78.00,+16.00,+70.00,+46.00,+18.00,+9.00,+94.00,+97.00,+96.00
+8.00,-5.00,+12.00,-1.00,+2.00,-51.00,+34.00,-52.00,+2.00,+27.00,+7.00,+7.00,+31.00,-15.00,-30.00,-34.00
+117.00,+93.00,+37.00,+23.00,+76.00,+127.00,+93.00,+54.00,-68.00,-79.00,-13.00,+0.00,+52.00,+79.00,+62.00,-21.00
-37.00,+13.00,+0.00,-6.00,+3.00,-9.00,+34.00,+74.00,+15.00,+27.00,+16.00,-21.00,-122.00,-73.00,-6.00,-17.00
-36.00,-54.00,-20.00,-11.00,-15.00,-30.00,-20.00,-18.00,+25.00,+2.00,-7.00,+12.00,+70.00,+57.00,+46.00,-1.00
-32.00,-33.00,-12.00,-24.00,-91.00,-58.00,-67.00,-88.00,-29.00,-32.00,-2.00,+8.00,-1.00,+41.00,-32.00,-26.00
+63.00,-15.00,+28.00,+46.00,+90.00,+83.00,+111.00,+85.00,+19.00,+14.00,-33.00,-20.00,+92.00,+31.00,-65.00,-31.00
-18.00,+55.00,+25.00,+31.00,+29.00,+14.00,-27.00,-128.00,-14.00,-16.00,+6.00,-5.00,-16.00,-26.00,-80.00,-76.00
-4.00,-30.00,-11.00,+0.00,+18.00,-2.00,+64.00,+127.00,-18.00,+23.00,+1.00,+1.00,-60.00,-101.00,+94.00,+88.00
-14.00,-52.00,-60.00,-25.00,-12.00,-67.00,-12.00,+69.00,+70.00,-30.00,+7.00,-1.00,+0.00,+13.00,+67.00,+16.00
+5.00,+26.00,+17.00,-33.00,-67.00,-66.00,-66.00,-56.00,-59.00,-21.00,+25.00,+14.00,-6.00,+7.00,-25.00,-16.00
-20.00,-27.00,+4.00,-7.00,-52.00,-91.00,-122.00,-31.00,+36.00,+3.00,-17.00,-3.00,-2.00,+29.00,+19.00,-28.00
+37.00,+0.00,-23.00,-28.00,-32.00,-102.00,-60.00,-14.00,-66.00,+49.00,+12.00,-12.00,-29.00,-32.00,-64.00,-29.00
+15.00,+63.00,+24.00,+20.00,+58.00,+52.00,+85.00,+58.00,-20.00,-110.00,-82.00,-22.00,+66.00,+13.00,-47.00,-19.00
+35.00,+56.00,+19.00,+19.00,+33.00,+72.00,+96.00,+42.00,-11.00,+12.00,-12.00,-14.00,-24.00,-54.00,-59.00,-73.00
+12.00,-6.00,-13.00,-16.00,-36.00,-51.00,-52.00,+24.00,+74.00,+36.00,+5.00,-7.00,-29.00,+119.00,+122.00,+116.00
-44.00,-52.00,+9.00,+29.00,+26.00,+23.00,+33.00,+32.00,-28.00,+33.00,+21.00,+14.00,+33.00,-73.00,-99.00,-110.00
-5.00,-46.00,-12.00,-5.00,-47.00,-86.00,-80.00,+29.00,-44.00,+13.00,+15.00,-4.00,+22.00,+81.00,-16.00,+25.00
-1.00,+17.00,+5.00,+3.00,+61.00,+17.00,+42.00,-12.00,+37.00,+12.00,+10.00,+3.00,-27.00,+6.00,+58.00,+31.00
+14.00,-6.00,-32.00,-4.00,+9.00,-1.00,+11.00,-32.00,-43.00,-45.00,-12.00,+10.00,+30.00,-61.00,-23.00,-49.00
+0.00,+31.00,+21.00,-8.00,-38.00,-95.00,-51.00,+74.00,+78.00,+41.00,+36.00,+7.00,-28.00,+104.00,+46.00,-28.00
+61.00,+39.00,+24.00,+43.00,+49.00,+127.00,+103.00,+57.00,+18.00,+17.00,-1.00,+17.00,+8.00,+28.00,+3.00,+15.00
-51.00,+2.00,+44.00,+37.00,+26.00,-2.00,-4.00,-80.00,-15.00,-7.00,-2.00,-10.00,-74.00,-85.00,+26.00,+28.00
-47.00,-72.00,-87.00,-82.00,-71.00,-128.00,-123.00,-115.00,+8.00,-38.00,-9.00,+13.00,+10.00,+43.00,+80.00,+63.00
+6.00,-37.00,-45.00,-60.00,-20.00,+36.00,-7.00,+39.00,+42.00,+82.00,+88.00,+42.00,+24.00,+41.00,-20.00,-55.00
-11.00,+15.00,+38.00,+64.00,+58.00,+69.00,+51.00,-44.00,-62.00,-84.00,-93.00,-36.00,-68.00,-128.00,-106.00,-93.00
-45.00,-62.00,+47.00,-29.00,-69.00,-69.00,-93.00,-50.00,+23.00,+19.00,-24.00,-22.00,-26.00,-43.00,+81.00,+89.00
+32.00,+73.00,+23.00,+28.00,-1.00,+27.00,-22.00,-36.00,-8.00,-36.00,-51.00,-25.00,+14.00,+0.00,-41.00,-57.00
-18.00,-78.00,-26.00,-44.00,-33.00,-60.00,-60.00,+39.00,+15.00,-7.00,-21.00,+15.00,-13.00,+2.00,+74.00,+60.00
+17.00,-2.00,-86.00,-87.00,-37.00,-46.00,-2.00,+115.00,+36.00,-12.00,+20.00,-29.00,-63.00,-32.00,-72.00,+8.00
-39.00,-55.00,-42.00,+3.00,+0.00,+16.00,+24.00,+18.00,-46.00,+43.00,+44.00,+24.00,+104.00,+54.00,+27.00,+42.00
+27.00,+7.00,+33.00,+9.00,-24.00,-72.00,-80.00,-20.00,-11.00,-14.00,-33.00,-31.00,-24.00,+2.00,-35.00,-42.00
-7.00,+37.00,+28.00,+48.00,+44.00,+101.00,+60.00,-47.00,-24.00,-69.00,-41.00,-25.00,-40.00,-40.00,-41.00,-58.00
-28.00,-58.00,+7.00,+36.00,+29.00,-17.00,-3.00,-26.00,-10.00,+59.00,+40.00,+35.00,-1.00,-88.00,-16.00,-54.00
-8.00,+17.00,-6.00,-12.00,-74.00,-128.00,-61.00,-74.00,+33.00,-2.00,+2.00,+15.00,+41.00,+31.00,+20.00,+33.00
+33.00,+49.00,+12.00,+6.00,+67.00,+120.00,+98.00,-22.00,+4.00,+30.00,+40.00,+26.00,+2.00,+48.00,-8.00,+54.00
+35.00,+51.00,+31.00,+25.00,+11.00,-48.00,+15.00,+37.00,-19.00,-27.00,-33.00,-35.00,-79.00,-97.00,-74.00,-57.00
-50.00,-32.00,+17.00,+22.00,+21.00,+64.00,-13.00,-29.00,+17.00,+53.00,+31.00,-6.00,+5.00,+31.00,+89.00,+72.00
-28.00,-44.00,-68.00,-73.00,-47.00,-32.00,+4.00,-33.00,-41.00,+7.00,+0.00,-4.00,-123.00,-124.00,-128.00,-128.00
-28.00,+10.00,+15.00,-10.00,-27.00,-65.00,-25.00,+8.00,-2.00,-10.00,-3.00,+42.00,+89.00,+46.00,+65.00,+109.00
+43.00,+37.00,-9.00,+1.00,-9.00,+23.00,-7.00,-29.00,+16.00,-34.00,-39.00,-15.00,+15.00,+61.00,-11.00,+27.00
-20.00,-66.00,+9.00,+81.00,+52.00,+29.00,+20.00,-52.00,+20.00,-4.00,-20.00,+12.00,-7.00,-128.00,+97.00,+80.00
+39.00,+55.00,+28.00,-14.00,-8.00,+24.00,-51.00,-96.00,+23.00,+31.00,+32.00,+18.00,-3.00,+78.00,-49.00,-50.00
-12.00,-28.00,-59.00,-85.00,-65.00,-47.00,-25.00,+9.00,-30.00,+11.00,+31.00,+5.00,-17.00,-14.00,-5.00,+4.00
-17.00,-5.00,+10.00,+4.00,+45.00,+41.00,+62.00,+35.00,-40.00,-31.00,+6.00,+17.00,+18.00,-21.00,-74.00,-65.00
+50.00,-41.00,-57.00,-84.00,-55.00,-69.00,-100.00,-45.00,+58.00,+70.00,+34.00,-38.00,-4.00,+26.00,+39.00,+67.00
-36.00,+52.00,+14.00,+35.00,+14.00,+10.00,+64.00,+85.00,-65.00,-82.00,-43.00,-26.00,+15.00,-25.00,-106.00,-115.00
+36.00,+31.00,+29.00,+48.00,+17.00,-25.00,+21.00,+51.00,+61.00,+66.00,+15.00,-15.00,+4.00,+66.00,+49.00,-20.00
+1.00,+6.00,+23.00,+6.00,-14.00,-4.00,-14.00,-34.00,-25.00,+12.00,-4.00,-13.00,-43.00,+30.00,+54.00,+80.00
-48.00,-42.00,-25.00,+3.00,-17.00,-62.00,-57.00,-106.00,+2.00,+23.00,+20.00,+30.00,+76.00,+22.00,-20.00,-27.00
-37.00,-38.00,+3.00,+10.00,+20.00,+50.00,+16.00,+13.00,-8.00,+54.00,+33.00,+12.00,-22.00,+61.00,-7.00,-13.00
+2.00,+1.00,+18.00,+1.00,-14.00,-49.00,-35.00,+42.00,-4.00,-54.00,-9.00,+22.00,+38.00,-86.00,-124.00,-115.00
-8.00,+17.00,-12.00,+7.00,+22.00,+93.00,+61.00,-20.00,-5.00,-35.00,-29.00,-32.00,-5.00,-56.00,+64.00,+45.00
+30.00,+42.00,+36.00,+8.00,+10.00,+39.00,+9.00,+69.00,+27.00,+26.00,+22.00,+22.00,-64.00,-35.00,+28.00,+61.00
-49.00,-88.00,-42.00,-33.00,-46.00,-122.00,-113.00,-98.00,+28.00,-3.00,-2.00,+21.00,+88.00,+35.00,+12.00,+35.00
+68.00,+81.00,+41.00,+53.00,+110.00,+92.00,+120.00,+93.00,-39.00,-28.00,-10.00,-16.00,+38.00,-12.00,-65.00,-44.00
-5.00,-1.00,+17.00,+13.00,+5.00,-33.00,-28.00,-4.00,+23.00,+37.00,+22.00,-5.00,-31.00,+61.00,+82.00,+76.00
-25.00,-32.00,+13.00,+3.00,-18.00,-60.00,-32.00,+5.00,-37.00,-85.00,-56.00,-10.00,-9.00,-59.00,-47.00,-44.00
+28.00,+34.00,-31.00,-48.00,+8.00,-8.00,+35.00,+75.00,-38.00,-1.00,+8.00,-12.00,+53.00,+110.00,+48.00,+20.00
-42.00,-71.00,-76.00,-38.00,-70.00,-66.00,-97.00,-55.00,+38.00,-67.00,-40.00,-7.00,-21.00,-52.00,-35.00,-5.00
+19.00,+37.00,+26.00,-12.00,-8.00,-5.00,-6.00,-101.00,+3.00,+69.00,+27.00,-4.00,+64.00,-83.00,-109.00,-80.00
+21.00,+99.00,+32.00,+8.00,+23.00,+70.00,+78.00,+94.00,-48.00,-13.00,-12.00,-13.00,-25.00,+33.00,+90.00,+71.00
+50.00,+14.00,+22.00,+43.00,-4.00,-46.00,-17.00,+119.00,+48.00,-1.00,-23.00,-9.00,-75.00,-103.00,+8.00,+28.00
-79.00,-83.00,-6.00,+4.00,-5.00,+18.00,-32.00,-46.00,-5.00,+63.00,+30.00,+11.00,+59.00,+127.00,+45.00,+24.00
+22.00,+13.00,-5.00,-24.00,-22.00,-20.00,-30.00,-31.00,-6.00,-2.00,+8.00,+1.00,-40.00,-7.00,-20.00,-22.00
+21.00,+81.00,+28.00,+8.00,-11.00,-55.00,+13.00,-12.00,-43.00,-27.00,-9.00,-7.00,-42.00,-16.00,-112.00,-76.00
+16.00,+0.00,+27.00,+40.00,+51.00,+115.00,+92.00,+29.00,+51.00,+3.00,+17.00,+29.00,+83.00,+43.00,+106.00,+101.00
-33.00,-31.00,-16.00,-18.00,-21.00,-6.00,-43.00,-45.00,+14.00,+27.00,+14.00,-11.00,-121.00,-124.00,+25.00,+32.00
-71.00,-53.00,-18.00,-2.00,-38.00,-97.00,-79.00,-75.00,-5.00,-22.00,-15.00,+2.00,-16.00,-1.00,-86.00,-52.00
+47.00,-15.00,+8.00,+28.00,+19.00,+78.00,+44.00,+55.00,-9.00,+37.00,+21.00,+11.00,+28.00,+91.00,-31.00,-95.00
+24.00,+30.00,+8.00,+0.00,+24.00,-11.00,-13.00,+82.00,+7.00,+6.00,+12.00,+31.00,+75.00,-43.00,+58.00,+41.00
-12.00,-5.00,-26.00,-25.00,+10.00,+23.00,+35.00,-47.00,+23.00,-8.00,+0.00,-7.00,-26.00,+83.00,-6.00,+86.00
-43.00,-98.00,-63.00,-29.00,-16.00,-18.00,-23.00,-6.00,-3.00,+1.00,-6.00,-2.00,+39.00,+20.00,-1.00,-32.00
+7.00,+31.00,+12.00,-24.00,-30.00,-58.00,-52.00,-10.00,-29.00,+11.00,+3.00,-9.00,+12.00,+6.00,-26.00,-36.00
+14.00,+21.00,+12.00,+25.00,-13.00,+10.00,-13.00,-115.00,-1.00,-36.00,-51.00,-35.00,-61.00,+21.00,-99.00,-106.00
-14.00,+5.00,+68.00,+53.00,+1.00,-81.00,-12.00,+23.00,+15.00,+33.00,+23.00,+15.00,+21.00,-27.00,+96.00,+65.00
+25.00,-4.00,-58.00,-46.00,-8.00,+49.00,-19.00,-39.00,-46.00,-35.00,-13.00,+9.00,+69.00,+37.00,-15.00,-14.00
-1.00,+9.00,-36.00,-71.00,-19.00,-43.00,+19.00,+10.00,-31.00,-12.00,+15.00,+0.00,-73.00,-24.00,+14.00,-33.00
+31.00,-24.00,+1.00,+12.00,-1.00,-56.00,-36.00,+34.00,+11.00,-32.00,-18.00,-13.00,+2.00,+18.00,+40.00,+11.00
-6.00,-21.00,+9.00,+20.00,+24.00,+99.00,+60.00,-26.00,+35.00,+25.00,-30.00,-26.00,-9.00,+20.00,-2.00,-33.00
+58.00,+69.00,+44.00,+38.00,+9.00,-20.00,-5.00,-18.00,-6.00,-20.00,-11.00,-8.00,-64.00,-107.00,-4.00,+21.00
-18.00,-13.00,-3.00,+5.00,+15.00,+28.00,+51.00,+21.00,+47.00,+37.00,+17.00,+6.00,-12.00,-12.00,-9.00,+72.00
-41.00,-41.00,-15.00,-6.00,-4.00,-13.00,-7.00,-65.00,-28.00,+24.00,+17.00,+18.00,-63.00,-117.00,-106.00,-89.00
-16.00,-32.00,-12.00,-7.00,-13.00,+10.00,-4.00,-4.00,+6.00,-26.00,+5.00,+9.00,+81.00,+86.00,+40.00,+12.00
-28.00,+25.00,+4.00,+5.00,-25.00,-59.00,-63.00,+27.00,-33.00,+22.00,+1.00,-10.00,-43.00,+16.00,-8.00,-16.00
-2.00,+6.00,+2.00,-15.00,-15.00,+93.00,+11.00,+17.00,+15.00,+26.00,+30.00,+33.00,+63.00,-53.00,+5.00,+37.00
+3.00,-24.00,+1.00,+8.00,+30.00,+14.00,+57.00,+13.00,-28.00,-87.00,-40.00,-22.00,-52.00,-6.00,-56.00,-96.00
-15.00,+20.00,+11.00,+13.00,+9.00,-8.00,+17.00,-9.00,+27.00,+24.00,+13.00,-8.00,-7.00,+4.00,+29.00,+75.00
-8.00,-22.00,-12.00,-18.00,+4.00,+26.00,+21.00,+6.00,+7.00,+16.00,+26.00,+23.00,+12.00,+42.00,+54.00,+64.00
-44.00,-20.00,-39.00,-27.00,-30.00,-90.00,-82.00,-110.00,+37.00,-22.00,-23.00,-6.00,-24.00,-68.00,-11.00,+17.00
-34.00,-92.00,-33.00,+29.00,+28.00,+113.00,+33.00,-116.00,+3.00,+49.00,+11.00,-11.00,-76.00,+37.00,-18.00,-39.00
+114.00,+101.00,+67.00,-6.00,+11.00,-20.00,+44.00,+127.00,-53.00,+28.00,+11.00,-5.00,+39.00,-92.00,-38.00,-121.00
-30.00,+3.00,-10.00,+3.00,-6.00,-44.00,+4.00,-2.00,-4.00,-101.00,-51.00,+3.00,+47.00,+18.00,+0.00,+1.00
-24.00,-63.00,-9.00,+15.00,+2.00,-10.00,-33.00,-58.00,+32.00,+35.00,+13.00,+1.00,+17.00,+24.00,-7.00,+43.00
+19.00,+61.00,+11.00,-28.00,-21.00,-37.00,-33.00,-71.00,+4.00,+77.00,+46.00,+8.00,+20.00,+35.00,+12.00,+8.00
+27.00,+33.00,-11.00,-10.00,-13.00,-26.00,-1.00,+44.00,-22.00,-107.00,-89.00,-22.00,-41.00,+45.00,-14.00,+4.00
+2.00,-5.00,+8.00,+9.00,+12.00,+83.00,+36.00,-7.00,+23.00,+61.00,+31.00,+11.00,+42.00,-31.00,+11.00,+29.00
-4.00,-26.00,+7.00,+14.00,+41.00,+37.00,+54.00,+86.00,-2.00,-12.00,-20.00,-14.00,+38.00,+11.00,+42.00,+2.00
-5.00,+25.00,-3.00,-6.00,-23.00,-50.00,-80.00,-50.00,-4.00,-5.00,+2.00,+0.00,-14.00,-38.00,-10.00,+32.00
+16.00,+5.00,-1.00,+9.00,-2.00,-7.00,-3.00,+24.00,-1.00,+28.00,+28.00,+4.00,+0.00,+19.00,-78.00,-3.00
-60.00,-17.00,+5.00,-7.00,-18.00,-31.00,-28.00,-93.00,+0.00,-12.00,-6.00,-4.00,-25.00,-18.00,+84.00,+28.00
+39.00,-9.00,-14.00,+1.00,-10.00,-15.00,-5.00,+53.00,-30.00,-28.00,-14.00,-1.00,+30.00,+81.00,-25.00,-60.00
-17.00,-16.00,+4.00,+3.00,+31.00,+55.00,+35.00,+19.00,+38.00,+26.00,+23.00,+26.00,-21.00,-94.00,+80.00,+127.00
-26.00,-60.00,-21.00,-4.00,+2.00,+15.00,-30.00,-80.00,+4.00,+8.00,+4.00,-6.00,+59.00,+34.00,+14.00,+7.00
+51.00,+28.00,-15.00,-13.00,-8.00,-40.00,-4.00,+7.00,-11.00,-9.00,+3.00,-3.00,-5.00,+48.00,-42.00,-31.00
+21.00,+17.00,+37.00,+16.00,+38.00,+36.00,+45.00,-11.00,-17.00,+35.00,+11.00,-14.00,-5.00,-19.00,-62.00,-86.00
-9.00,+39.00,+3.00,-10.00,-31.00,-45.00,-27.00,+3.00,-37.00,-84.00,-41.00,-23.00,-12.00,-24.00,+11.00,-43.00
-19.00,-29.00,-38.00,-12.00,-19.00,-36.00,-26.00,+42.00,+2.00,-30.00,-23.00,+7.00,-12.00,-77.00,-31.00,+10.00
-30.00,+3.00,+23.00,+4.00,+1.00,-16.00,-23.00,-112.00,+47.00,+74.00,+36.00,-1.00,-10.00,-41.00,-9.00,+18.00
+32.00,+53.00,+17.00,+25.00,+24.00,+35.00,+44.00,+57.00,-56.00,-73.00,-47.00,-16.00,+0.00,-10.00,+49.00,+54.00
-15.00,-38.00,-25.00,-26.00,-2.00,+41.00,+22.00,+27.00,+40.00,+29.00,+16.00,+15.00,+94.00,+73.00,+18.00,+34.00
+28.00,+56.00,+27.00,-10.00,+6.00,+20.00,-11.00,-78.00,-3.00,+21.00,+17.00,+2.00,-76.00,-120.00,-16.00,-30.00
-18.00,-45.00,-22.00,+11.00,-13.00,-63.00,-9.00,+18.00,-18.00,-17.00,-4.00,-2.00,+4.00,-1.00,-42.00,-15.00
+13.00,-7.00,-10.00,-18.00,-2.00,-6.00,+11.00,+55.00,+8.00,+15.00,+2.00,+8.00,+21.00,+2.00,+39.00,+62.00
+0.00,-14.00,+17.00,+12.00,-3.00,+21.00,-5.00,+13.00,-11.00,-41.00,-24.00,-22.00,-20.00,-14.00,-36.00,-37.00
-2.00,-62.00,-28.00,+1.00,-24.00,-28.00,-7.00,-14.00,-22.00,+20.00,+15.00,+10.00,-17.00,-7.00,+2.00,+30.00
+18.00,+59.00,+27.00,+16.00,+30.00,-8.00,+9.00,+41.00,+8.00,+5.00,-4.00,+3.00,-9.00,+19.00,+57.00,+29.00
-24.00,-24.00,-9.00,-6.00,-2.00,-60.00,-54.00,-113.00,-9.00,-18.00,+1.00,-19.00,-36.00,-14.00,-56.00,-44.00
-10.00,-52.00,-23.00,-2.00,+28.00,+68.00,+75.00,+127.00,+3.00,+40.00,+17.00,+9.00,-27.00,+3.00,+73.00,+56.00
-14.00,-5.00,+3.00,-6.00,-15.00,-15.00,-15.00,-47.00,+4.00,+23.00,+22.00,-10.00,+4.00,+33.00,-2.00,-66.00
+79.00,+85.00,+68.00,+34.00,+32.00,+52.00,+26.00,+105.00,+21.00,-66.00,-62.00,-13.00,-8.00,-117.00,-61.00,+15.00
-1.00,+7.00,-26.00,-16.00,-2.00,+1.00,+46.00,-18.00,+8.00,-12.00,-3.00,+16.00,+27.00,+95.00,-59.00,-4.00
-33.00,-55.00,-30.00,-25.00,-44.00,-54.00,-58.00,-58.00,+21.00,+27.00,+19.00,+2.00,+3.00,+23.00,+30.00,+43.00
+11.00,+29.00,-5.00,-4.00,-1.00,-4.00,-5.00,-3.00,+2.00,+15.00,-2.00,+6.00,-23.00,+0.00,-7.00,+11.00
-20.00,-47.00,-9.00,+6.00,+7.00,+5.00,+29.00,+49.00,-27.00,-5.00,+1.00,-8.00,+3.00,+4.00,+7.00,-39.00
-52.00,-48.00,-5.00,-4.00,-18.00,-25.00,-71.00,-57.00,+3.00,+11.00,+13.00,+0.00,-36.00,-37.00,-17.00,-16.00
+83.00,+113.00,+43.00,+11.00,-4.00,-37.00,-2.00,+11.00,+33.00,+36.00,+0.00,+0.00,+29.00,-19.00,-9.00,+5.00
-20.00,-22.00,-9.00,+0.00,+32.00,+50.00,+56.00,+27.00,-43.00,-41.00,-6.00,+5.00,-13.00,+21.00,-10.00,-48.00
+9.00,+8.00,+1.00,+6.00,+1.00,+9.00,+10.00,+11.00,+28.00,+7.00,-6.00,-8.00,+8.00,+1.00,+2.00,+5.00
+8.00,+31.00,+2.00,-5.00,-32.00,-4.00,-29.00,-2.00,-15.00,+0.00,+9.00,+4.00,-7.00,-10.00,+37.00,+43.00
+0.00,+7.00,-10.00,-5.00,+12.00,+0.00,+22.00,-12.00,-7.00,+5.00,+12.00,+21.00,+68.00,+71.00,-13.00,-30.00
-20.00,-19.00,+3.00,-1.00,-10.00,-65.00,-56.00,-80.00,+6.00,+19.00,+16.00,-18.00,-53.00,-101.00,-27.00,+8.00
-26.00,-31.00,-12.00,-5.00,-45.00,-13.00,-11.00,+41.00,-1.00,-36.00,-33.00,-19.00,-11.00,+102.00,+17.00,-7.00
+17.00,-8.00,+4.00,+20.00,+72.00,+42.00,+53.00,+36.00,-19.00,+0.00,+3.00,+24.00,+29.00,-38.00,+24.00,-22.00
+18.00,+38.00,+25.00,-2.00,+27.00,+27.00,-22.00,+2.00,+12.00,+16.00,+8.00,-21.00,-5.00,+8.00,-16.00,-11.00
-27.00,-2.00,-33.00,-15.00,-14.00,-22.00,+14.00,+15.00,-7.00,-39.00,-23.00,-14.00,-31.00,-33.00,-14.00,+2.00
-22.00,-51.00,-27.00,-14.00,-1.00,+26.00,-9.00,-46.00,+14.00,+11.00,+9.00,-4.00,+28.00,+70.00,+43.00,+40.00
+3.00,-7.00,+10.00,-4.00,-30.00,-24.00,-2.00,-45.00,+28.00,+6.00,+0.00,-11.00,-35.00,-65.00,-4.00,+1.00
+3.00,+9.00,+9.00,+11.00,-19.00,-42.00,-26.00,-25.00,-26.00,-15.00,-7.00,+16.00,+10.00,-3.00,-16.00,-1.00
+20.00,-18.00,+8.00,+10.00,+25.00,+27.00,-3.00,+28.00,+20.00,+23.00,+5.00,+8.00,+5.00,-57.00,-9.00,+11.00
-18.00,-22.00,-13.00,-12.00,-20.00,+15.00,+22.00,-19.00,-38.00,+5.00,+7.00,-4.00,-12.00,+61.00,-16.00,-32.00
+11.00,+35.00,+13.00,+6.00,-21.00,-25.00,-35.00,+12.00,+13.00,-10.00,-4.00,+20.00,+42.00,+26.00,+32.00,+15.00
+2.00,-11.00,+6.00,+8.00,+36.00,+11.00,+10.00,-3.00,-35.00,-21.00,-11.00,-13.00,-30.00,-44.00,-15.00,-14.00
-14.00,-14.00,-12.00,-5.00,-10.00,+4.00,-1.00,+1.00,+10.00,-2.00,-3.00,-18.00,-12.00,+5.00,+4.00,+3.00
+22.00,+27.00,+10.00,+3.00,-9.00,+14.00,+16.00,+14.00,+1.00,+14.00,+20.00,+17.00,+8.00,-41.00,-10.00,-8.00
-1.00,+4.00,-8.00,-9.00,+3.00,-4.00,-19.00,-42.00,-36.00,-20.00,-16.00,+7.00,-21.00,-28.00,-8.00,-7.00
-1.00,-21.00,-18.00,-7.00,-19.00,-37.00,-10.00,+59.00,+19.00,+2.00,-9.00,-9.00,+13.00,+0.00,+0.00,+6.00
+3.00,+32.00,+24.00,+8.00,+10.00,+34.00,+5.00,+15.00,-4.00,+15.00,+14.00,+0.00,+10.00,-10.00,+10.00,+0.00
-17.00,-46.00,-23.00,-10.00,+13.00,-15.00,+3.00,-56.00,-11.00,-32.00,-17.00,-6.00,+18.00,+39.00,+25.00,+10.00
+43.00,+87.00,+24.00,+14.00,+18.00,-2.00,-9.00,+11.00,-6.00,-8.00,-9.00,-19.00,-11.00,+6.00,-11.00,-8.00
+2.00,-6.00,-8.00,-5.00,-12.00,+6.00,+14.00,-34.00,-7.00,-11.00,+0.00,-12.00,-39.00,+15.00,-32.00,+1.00
-7.00,-21.00,-1.00,-4.00,-2.00,+19.00,+6.00,+33.00,+13.00,+26.00,+10.00,+14.00,+20.00,+55.00,+56.00,+17.00
+5.00,-10.00,-4.00,-1.00,+5.00,+10.00,+5.00,-28.00,+2.00,+15.00,+11.00,+16.00,+22.00,-54.00,-10.00,-12.00
-3.00,-22.00,-8.00,-8.00,-31.00,-27.00,-7.00,-36.00,+4.00,+0.00,+2.00,-10.00,-18.00,-77.00,-1.00,+6.00
-7.00,-14.00,-9.00,-5.00,-4.00,-6.00,-18.00,-8.00,-9.00,-17.00,-16.00,+11.00,-5.00,+26.00,-2.00,-7.00
-7.00,-14.00,+1.00,+7.00,+17.00,-1.00,-1.00,+20.00,-1.00,+0.00,-5.00,-6.00,-1.00,-6.00,-10.00,-7.00
+37.00,+41.00,+6.00,+2.00,+12.00,+3.00,+9.00,+14.00,-3.00,-3.00,-3.00,-8.00,+0.00,-29.00,-14.00,-7.00
-3.00,+4.00,-3.00,+0.00,+12.00,+24.00,+8.00,+1.00,-5.00,-22.00,+0.00,+4.00,-5.00,+41.00,+23.00,+1.00
-30.00,-43.00,-15.00,-1.00,-13.00,-18.00,-17.00,-11.00,+0.00,+11.00,-1.00,-15.00,-6.00,-39.00,-11.00,-22.00
+4.00,-14.00,-2.00,-6.00,-18.00,-8.00,-6.00,-3.00,+14.00,+5.00,+1.00,+5.00,+22.00,+36.00,-5.00,+7.00
+27.00,+72.00,+28.00,+11.00,+13.00,+16.00,+12.00,+41.00,-26.00,-7.00,+3.00,+5.00,-12.00,-45.00,-13.00,-12.00
-5.00,-23.00,-13.00,-6.00,-8.00,+2.00,+8.00,+26.00,+12.00,+19.00,+6.00,+1.00,+5.00,+28.00,+7.00,+18.00
+2.00,+14.00,+6.00,-2.00,-23.00,-7.00,-3.00,-20.00,-17.00,-18.00,-6.00,+0.00,-9.00,-31.00,+0.00,-13.00
-21.00,-22.00,-8.00,-4.00,+2.00,+1.00,-12.00,-7.00,-2.00,-7.00,-4.00,+9.00,+15.00,-16.00,-11.00,+5.00
+23.00,+0.00,-11.00,+0.00,+21.00,-9.00,-19.00,-61.00,+10.00,+6.00,+5.00,-7.00,-22.00,+40.00,-3.00,-2.00
-16.00,-11.00,+0.00,-6.00,-32.00,-8.00,+16.00,+47.00,+7.00,+10.00,-6.00,-22.00,-9.00,+15.00,+14.00,-2.00
-8.00,+13.00,+4.00,-5.00,+5.00,+14.00,-16.00,-80.00,-22.00,-9.00,-3.00,+21.00,+25.00,-14.00,-28.00,-12.00
+23.00,+21.00,+5.00,+14.00,+37.00,+15.00,-2.00,+14.00,-13.00,-10.00,-9.00,-14.00,-30.00,+39.00,-8.00,-16.00
+3.00,-11.00,-1.00,+3.00,+27.00,+10.00,+29.00,+22.00,+16.00,+14.00,+5.00,-10.00,+0.00,-25.00,+5.00,-9.00
-30.00,-15.00,-4.00,-4.00,+6.00,+20.00,-22.00,-24.00,+6.00,+6.00,+8.00,-8.00,-20.00,+35.00,+21.00,+15.00
-11.00,-20.00,-13.00,-14.00,-45.00,-11.00,+9.00,+12.00,+15.00,-11.00,-6.00,-3.00,+6.00,-31.00,-4.00,+9.00
-20.00,+7.00,+2.00,+1.00,+3.00,-6.00,-11.00,-8.00,-15.00,-8.00,-3.00,+12.00,+13.00,+0.00,+0.00,-5.00
+18.00,-2.00,+4.00,+4.00,+7.00,+3.00,-21.00,-8.00,-3.00,-2.00,-7.00,-9.00,-21.00,-22.00,-18.00,-10.00
-45.00,-36.00,-13.00,-3.00,+0.00,+6.00,+3.00,-14.00,-11.00,-2.00,+1.00,+1.00,+7.00,-7.00,-16.00,-21.00
+28.00,-3.00,-1.00,+2.00,-4.00,-4.00,+1.00,+27.00,+4.00,-6.00,-5.00,+1.00,+5.00,+14.00,+16.00,+13.00
+22.00,+45.00,+8.00,-1.00,-13.00,-10.00,-5.00,+0.00,+2.00,-7.00,+0.00,+5.00,+13.00,+22.00,+5.00,+8.00
-10.00,-2.00,-3.00,-4.00,-7.00,-1.00,+10.00,+28.00,+6.00,+5.00,-1.00,+4.00,+1.00,+5.00,+0.00,-1.00
+8.00,+9.00,+7.00,+3.00,+6.00,+1.00,+12.00,+2.00,+7.00,+1.00,-1.00,+1.00,+8.00,-3.00,+1.00,+1.00
-13.00,-21.00,-10.00,-1.00,+6.00,-1.00,-7.00,+7.00,+5.00,+5.00,+5.00,-5.00,-15.00,-12.00,+1.00,+3.00
-15.00,+6.00,+7.00,+0.00,-4.00,-8.00,+8.00,-4.00,+4.00,+8.00,+4.00,+0.00,-6.00,+9.00,-6.00,-9.00
+5.00,-14.00,-3.00,-2.00,-4.00,+10.00,+9.00,+31.00,-19.00,-3.00,-7.00,-3.00,-2.00,-7.00,+0.00,+3.00
-16.00,-13.00,-11.00,-8.00,-29.00,-6.00,-1.00,-16.00,+13.00,+0.00,-2.00,+1.00,-4.00,-29.00,-14.00,+3.00
+15.00,+65.00,+26.00,+12.00,+32.00,-1.00,-1.00,+8.00,+1.00,+3.00,+3.00,+18.00,+20.00,+30.00,+8.00,-8.00
+8.00,-22.00,-7.00,+0.00,+7.00,+18.00,+9.00,-4.00,-4.00,-12.00,+0.00,-26.00,-6.00,+27.00,+35.00,+8.00
-15.00,-14.00,-1.00,-3.00,-7.00,+2.00,-9.00,-37.00,-1.00,+5.00,-3.00,-5.00,-8.00,-12.00,-4.00,-11.00
+6.00,-8.00,-4.00,-4.00,-15.00,-14.00,-5.00,+8.00,+16.00,+8.00,+7.00,+0.00,-5.00,+27.00,+4.00,+9.00
-16.00,-20.00,-8.00,+0.00,+22.00,-1.00,-11.00,-37.00,-14.00,-14.00,-6.00,-9.00,-2.00,-21.00,+3.00,+0.00
+6.00,-7.00,-5.00,+0.00,-15.00,+4.00,+6.00,+27.00,-9.00,-2.00,-8.00,-8.00,-17.00,-23.00,-2.00,-7.00
+11.00,+0.00,+0.00,-3.00,+5.00,-9.00,+3.00,+38.00,+2.00,+34.00,+23.00,+13.00,+10.00,-22.00,-30.00,+1.00
+24.00,+15.00,+13.00,+4.00,+7.00,+9.00,+15.00,+23.00,+0.00,-28.00,-18.00,-11.00,-1.00,+48.00,+11.00,-2.00
+7.00,+10.00,+2.00,-1.00,-5.00,+11.00,-6.00,-33.00,-15.00,-23.00,-12.00,-4.00,+0.00,-16.00,+0.00,-6.00
-3.00,-2.00,-1.00,-3.00,-15.00,-38.00,-16.00,-23.00,+1.00,-12.00,-3.00,+9.00,+8.00,+24.00,-7.00,+21.00
-16.00,+8.00,-4.00,+2.00,-1.00,-2.00,-7.00,-19.00,-5.00,+3.00,-2.00,+4.00,+3.00,-12.00,-1.00,-2.00
-5.00,-30.00,-6.00,-2.00,+18.00,+5.00,-6.00,+0.00,-7.00,-7.00,+6.00,-2.00,-20.00,+4.00,+2.00,-2.00
+5.00,-3.00,+3.00,-1.00,-8.00,-13.00,+20.00,+9.00,+1.00,+22.00,+5.00,-10.00,-1.00,-12.00,-8.00,+2.00
-8.00,-9.00,-6.00,-1.00,+3.00,+19.00,-11.00,-4.00,+8.00,-4.00,-6.00,+5.00,+3.00,-12.00,-4.00,-13.00
+18.00,+43.00,+15.00,+4.00,-20.00,-8.00,+9.00,+37.00,-7.00,-8.00,-2.00,-1.00,-3.00,+2.00,-11.00,-13.00
+11.00,+12.00,+2.00,+2.00,+26.00,+14.00,+1.00,-12.00,+8.00,+15.00,+7.00,+5.00,+24.00,+2.00,+2.00,+6.00
-14.00,-17.00,-5.00,-3.00,-10.00,+1.00,+3.00,+8.00,+0.00,-14.00,-6.00,-12.00,-24.00,-4.00,+5.00,+6.00
+0.00,-30.00,-11.00,-7.00,-17.00,-13.00,+1.00,-11.00,-2.00,+3.00,+2.00,+2.00,+0.00,-4.00,-12.00,-10.00
-26.00,-42.00,-16.00,-9.00,+6.00,-11.00,-2.00,-11.00,+8.00,-6.00,-7.00,+5.00,+11.00,+1.00,+5.00,+7.00
+36.00,+70.00,+27.00,+7.00,+9.00,+7.00,-3.00,+4.00,-7.00,-8.00,-5.00,-12.00,-18.00,-2.00,-6.00,-15.00
-3.00,+17.00,+2.00,+5.00,+9.00,+5.00,+10.00,+12.00,+18.00,+6.00,+5.00,+3.00,-3.00,-9.00,-7.00,+8.00
-10.00,+7.00,+2.00,+3.00,+4.00,+4.00,-5.00,-34.00,+0.00,+11.00,+3.00,-10.00,-12.00,+4.00,+1.00,+0.00
-31.00,-38.00,-13.00,-7.00,-15.00,-8.00,+1.00,+10.00,-6.00,-14.00,-6.00,-1.00,+0.00,-23.00,-10.00,-4.00
+4.00,-12.00,-8.00,-2.00,-3.00,-10.00,-3.00,-8.00,-10.00,-3.00,-5.00,+3.00,+20.00,+34.00,+1.00,-5.00
+3.00,-4.00,-1.00,-2.00,-3.00,+0.00,-1.00,+8.00,-7.00,+4.00,-1.00,-8.00,-8.00,+0.00,+2.00,-7.00
+6.00,+13.00,+0.00,-3.00,-16.00,-12.00,-3.00,+5.00,-8.00,-8.00,-1.00,+5.00,+6.00,+8.00,-2.00,-4.00
-13.00,-10.00,-1.00,-2.00,+6.00,+3.00,-30.00,-43.00,-7.00,-13.00,-5.00,+3.00,+0.00,-2.00,+5.00,-3.00
-23.00,-20.00,-8.00,-2.00,-3.00,-7.00,+7.00,-17.00,+4.00,+11.00,+1.00,-7.00,-3.00,-20.00,+11.00,+13.00
+25.00,+17.00,+7.00,+4.00,+5.00,+6.00,+12.00,+56.00,+9.00,+4.00,+3.00,-3.00,-6.00,-18.00,-24.00,-11.00
-10.00,-24.00,-8.00,-2.00,-3.00,+1.00,+2.00,+1.00,-20.00,-20.00,-2.00,+1.00,+5.00,+4.00,+5.00,+2.00
+9.00,+36.00,+14.00,+6.00,+5.00,+7.00,+5.00,+11.00,-11.00,-1.00,-9.00,-5.00,-3.00,+0.00,-2.00,-7.00
+13.00,+17.00,+4.00,+0.00,+1.00,+2.00,-6.00,-6.00,+10.00,+9.00,+7.00,+8.00,-2.00,-10.00,-4.00,+5.00
-22.00,-10.00,-8.00,-3.00,-2.00,-4.00,-5.00,-8.00,+0.00,-5.00,-1.00,-2.00,+3.00,+5.00,+12.00,+5.00
+10.00,+5.00,-2.00,-4.00,-4.00,-4.00,+8.00,-18.00,+2.00,+7.00,+1.00,-1.00,-8.00,-10.00,-5.00,-5.00
-33.00,-59.00,-18.00,-8.00,-4.00,-2.00,-4.00,+0.00,+3.00,+1.00,-1.00,-6.00,-6.00,+9.00,+3.00,+5.00
-12.00,-42.00,-16.00,-5.00,-2.00,-5.00,-10.00,-24.00,+9.00,+2.00,-2.00,-1.00,-2.00,-7.00,-6.00,-3.00
+61.00,+91.00,+41.00,+10.00,-7.00,-7.00,+13.00,+34.00,-32.00,-14.00,-2.00,+3.00,+7.00,+1.00,+2.00,-8.00
+9.00,+0.00,+1.00,+1.00,+11.00,+10.00,-5.00,+6.00,+14.00,+1.00,+0.00,+4.00,+15.00,+13.00,+6.00,+4.00
+10.00,+22.00,+6.00,+2.00,+2.00,+6.00,+18.00,+2.00,+14.00,+12.00,+2.00,-3.00,-8.00,+5.00,+5.00,+10.00
-17.00,-19.00,-6.00,-4.00,-14.00,-5.00,-4.00,-15.00,+1.00,-3.00,-1.00,+2.00,+1.00,-14.00,-7.00,-6.00
-36.00,-49.00,-16.00,-5.00,+18.00,+3.00,-2.00,-3.00,+1.00,+1.00,+0.00,+4.00,+2.00,+4.00,+1.00,+0.00
-1.00,+17.00,+6.00,+0.00,-6.00,+6.00,+5.00,-7.00,-12.00,-4.00,-6.00,-11.00,-11.00,-32.00,-26.00,-19.00
+0.00,-7.00,+1.00,+4.00,+7.00,+3.00,-2.00,-22.00,+5.00,-1.00,+3.00,+7.00,+3.00,+6.00,+6.00,+7.00
+4.00,-3.00,-6.00,-2.00,-2.00,+0.00,+11.00,+36.00,+5.00,+2.00,+0.00,-6.00,+4.00,+3.00,-8.00,-3.00
-24.00,-10.00,-5.00,-3.00,-8.00,+0.00,-13.00,-3.00,-10.00,-2.00,-1.00,-3.00,-14.00,-37.00,-13.00,-1.00
+12.00,+14.00,+5.00,-1.00,-6.00,-9.00,-6.00,-4.00,+11.00,+1.00,-2.00,+5.00,+14.00,+15.00,+7.00,+4.00
+6.00,-2.00,-4.00,+1.00,+1.00,-1.00,+7.00,+6.00,-5.00,-9.00,-5.00,-2.00,+3.00,-11.00,+1.00,-6.00
-6.00,+1.00,-1.00,-2.00,-4.00,+0.00,+0.00,-11.00,-11.00,-3.00,+0.00,+3.00,-1.00,+15.00,+1.00,+9.00
-6.00,-14.00,-9.00,-5.00,-2.00,+5.00,+4.00,+6.00,+2.00,+2.00,-1.00,-1.00,-1.00,+6.00,+3.00,-3.00
-16.00,-16.00,-6.00,-3.00,+4.00,-2.00,+1.00,+22.00,-2.00,+0.00,+0.00,-1.00,-8.00,-10.00,+1.00,+3.00
-16.00,-33.00,-8.00,-3.00,-6.00,-4.00,-12.00,-38.00,+16.00,+11.00,-2.00,-3.00,-2.00,-5.00,+1.00,+2.00
