-6.00,+0.00,-1.00,+2.00,+1.00,-1.00,-2.00,-8.00,-5.00,-3.00,-5.00,-4.00,-2.00,+0.00,+0.00,-4.00
+10.00,-2.00,-2.00,+0.00,+0.00,-2.00,-3.00,-3.00,-7.00,-2.00,-2.00,-2.00,+0.00,-2.00,-3.00,-7.00
-14.00,-2.00,+1.00,+0.00,+1.00,+1.00,-3.00,-12.00,+2.00,+0.00,+1.00,-3.00,-1.00,+0.00,+0.00,-3.00
-16.00,-1.00,-1.00,-4.00,-5.00,-1.00,-4.00,-11.00,-7.00,-5.00,-1.00,-2.00,-1.00,-1.00,-4.00,+1.00
+4.00,-1.00,-3.00,-4.00,-6.00,-2.00,+2.00,+3.00,+5.00,+0.00,+2.00,+0.00,-2.00,-2.00,+0.00,-3.00
+6.00,+2.00,+2.00,+2.00,+1.00,-1.00,-1.00,-1.00,+1.00,+1.00,+1.00,-1.00,-2.00,+0.00,+0.00,-1.00
+0.00,-6.00,-2.00,-1.00,+0.00,-1.00,+1.00,+8.00,-1.00,-1.00,-1.00,+0.00,-1.00,+1.00,+2.00,+3.00
+8.00,+2.00,+0.00,+0.00,+2.00,-1.00,-1.00,+7.00,-4.00,-7.00,-4.00,+0.00,+3.00,+3.00,+0.00,-11.00
-16.00,-4.00,-3.00,-3.00,-2.00,-2.00,-1.00,+3.00,-1.00,+5.00,+1.00,+4.00,+0.00,-6.00,-6.00,-15.00
+6.00,+1.00,+0.00,-1.00,-1.00,-2.00,-1.00,-2.00,-14.00,-7.00,-3.00,-2.00,-5.00,-2.00,-5.00,-20.00
-15.00,+0.00,-1.00,-1.00,+0.00,-1.00,-2.00,+6.00,+17.00,+7.00,-1.00,+0.00,-2.00,-5.00,-2.00,+2.00
-9.00,-18.00,-7.00,-4.00,-5.00,-7.00,-4.00,-23.00,+4.00,+4.00,+1.00,-1.00,-4.00,-2.00,-1.00,-5.00
+30.00,+28.00,+3.00,+1.00,+2.00,+5.00,+1.00,+1.00,-23.00,-12.00,-2.00,+2.00,-4.00,-8.00,-4.00,+17.00
-33.00,-2.00,-2.00,+0.00,-1.00,+0.00,-3.00,-3.00,-4.00,-17.00,-10.00,-5.00,+11.00,+7.00,+8.00,-12.00
-7.00,-34.00,-5.00,+0.00,+1.00,+1.00,+2.00,-2.00,+4.00,+15.00,+6.00,+15.00,+10.00,-4.00,-1.00,-4.00
-7.00,+10.00,-2.00,-3.00,-7.00,-4.00,-2.00,-9.00,-25.00,-26.00,-7.00,-17.00,-1.00,+13.00,-7.00,-6.00
+2.00,+2.00,-1.00,+0.00,-1.00,+5.00,+1.00,+3.00,+14.00,+9.00,-5.00,-6.00,-8.00,+9.00,-4.00,+5.00
+62.00,+86.00,+22.00,+4.00,-6.00,-2.00,+8.00,+16.00,-15.00,-11.00,+0.00,+18.00,+5.00,+2.00,-8.00,+6.00
-27.00,-21.00,-11.00,-4.00,-9.00,-14.00,-7.00,-23.00,-15.00,-13.00,-16.00,-48.00,-45.00,-66.00,-4.00,-15.00
-19.00,-34.00,-7.00,+3.00,+28.00,+21.00,-1.00,-8.00,+23.00,+27.00,+14.00,+9.00,-2.00,+41.00,-5.00,+6.00
+32.00,+22.00,+13.00,+0.00,-30.00,-26.00,-1.00,+8.00,-4.00,+4.00,+2.00,-14.00,-3.00,+13.00,-1.00,-7.00
-36.00,-33.00,-10.00,-1.00,+12.00,+27.00,+5.00,-7.00,-6.00,+5.00,+3.00,+4.00,-9.00,-2.00,-7.00,+20.00
+14.00,+26.00,+12.00,+8.00,+21.00,-7.00,-16.00,+7.00,-13.00,-20.00,-3.00,+2.00,+10.00,+14.00,+0.00,-14.00
+15.00,-16.00,+5.00,+2.00,+14.00,+7.00,+7.00,+19.00,+4.00,+11.00,+4.00,+13.00,+12.00,-20.00,+5.00,-6.00
-16.00,-7.00,-6.00,+0.00,+26.00,+14.00,+7.00,-11.00,-9.00,-8.00,-8.00,-21.00,-23.00,-20.00,-3.00,-5.00
+11.00,+4.00,+1.00,-6.00,-26.00,-4.00,+1.00,+11.00,+21.00,+12.00,+4.00,-1.00,+6.00,+2.00,+10.00,-7.00
-35.00,-41.00,-14.00,-10.00,-35.00,-25.00,+0.00,-19.00,+0.00,+7.00,+2.00,+7.00,+10.00,+11.00,+12.00,+24.00
-8.00,-13.00,-10.00,-1.00,+14.00,+26.00,+3.00,+5.00,-1.00,+1.00,-6.00,-5.00,-5.00,-11.00,+5.00,-2.00
+5.00,-15.00,-4.00,-1.00,-4.00,-10.00,-13.00,-7.00,-4.00,-7.00,+5.00,+15.00,+10.00,+7.00,+6.00,+1.00
-74.00,-35.00,-17.00,-11.00,-12.00,-14.00,+0.00,+3.00,+8.00,+3.00,-2.00,-2.00,+11.00,-13.00,-4.00,-7.00
+7.00,+11.00,+0.00,+1.00,+7.00,+17.00,+2.00,+3.00,-19.00,-8.00,-1.00,-7.00,-13.00,+9.00,-8.00,-3.00
+9.00,+17.00,+2.00,-2.00,-14.00,-15.00,-2.00,+7.00,-13.00,-20.00,-6.00,-3.00,-1.00,-7.00,-9.00,-5.00
-7.00,+8.00,+16.00,+5.00,-7.00,+2.00,+2.00,+6.00,-2.00,-7.00,+1.00,+8.00,+9.00,-2.00,-7.00,-4.00
+27.00,+7.00,+3.00,+4.00,+16.00,+4.00,-3.00,-13.00,+9.00,+5.00,-2.00,-8.00,-8.00,-4.00,-8.00,+3.00
+17.00,+32.00,+7.00,+1.00,+8.00,+5.00,+3.00,+14.00,+4.00,+3.00,+1.00,+9.00,+12.00,+9.00,-8.00,+0.00
-5.00,+6.00,+1.00,-3.00,-19.00,-14.00,-6.00,-3.00,+12.00,+18.00,-3.00,+1.00,-9.00,-8.00,-22.00,-5.00
-2.00,-14.00,+0.00,+3.00,+8.00,+2.00,+1.00,-13.00,+15.00,+5.00,-2.00,-9.00,+1.00,+2.00,-3.00,+29.00
+1.00,-27.00,-7.00,-4.00,-8.00,-16.00,-7.00,-6.00,-28.00,-31.00,-4.00,+5.00,+27.00,+6.00,+2.00,-8.00
-3.00,+7.00,+3.00,+1.00,-6.00,+6.00,+0.00,-10.00,+12.00,+5.00,+0.00,-1.00,-28.00,+6.00,+1.00,+3.00
-11.00,-25.00,-16.00,-6.00,+5.00,+3.00,+0.00,-10.00,+4.00,+14.00,+7.00,-3.00,+0.00,-12.00,+5.00,+0.00
+32.00,+19.00,-2.00,-3.00,+4.00,+6.00,+0.00,-19.00,+3.00,+6.00,-8.00,-8.00,-6.00,-4.00,+9.00,+20.00
-3.00,-14.00,-2.00,-1.00,-1.00,-20.00,-1.00,+3.00,-7.00,-8.00,+2.00,-3.00,-12.00,-3.00,+5.00,+4.00
-4.00,-1.00,+0.00,+2.00,+16.00,+16.00,-5.00,-3.00,-2.00,-4.00,-2.00,+5.00,+15.00,+6.00,+3.00,-5.00
+11.00,+5.00,+3.00,-1.00,-9.00,-5.00,-1.00,-20.00,-3.00,-12.00,-4.00,+2.00,+2.00,-3.00,+7.00,-1.00
-32.00,-21.00,-10.00,-4.00,+4.00,+2.00,+0.00,+16.00,-4.00,-10.00,+1.00,+3.00,+0.00,-3.00,+0.00,-11.00
+23.00,+26.00,+11.00,+3.00,+2.00,-4.00,+0.00,+8.00,+11.00,+14.00,-3.00,-4.00,-10.00,+1.00,+0.00,+2.00
+12.00,-2.00,-2.00,-3.00,-13.00,-9.00,+0.00,-6.00,-8.00,-11.00,-2.00,+5.00,+15.00,+1.00,-2.00,-3.00
+12.00,+9.00,+8.00,+5.00,+0.00,-2.00,-3.00,-1.00,+4.00,-7.00,-1.00,-4.00,-8.00,-2.00,-1.00,-2.00
-13.00,-31.00,-9.00,-4.00,-6.00,-10.00,-7.00,-5.00,-11.00,-9.00,+1.00,+5.00,+11.00,+7.00,+5.00,-9.00
-7.00,-14.00,-7.00,-2.00,-5.00,-4.00,-3.00,-10.00,-9.00,+0.00,-5.00,-8.00,-17.00,-5.00,-3.00,-11.00
-3.00,+9.00,+6.00,+3.00,+2.00,+1.00,+1.00,+10.00,+13.00,+19.00,+5.00,+1.00,+1.00,+2.00,-1.00,+13.00
+3.00,+25.00,+10.00,+0.00,-13.00,-17.00,-2.00,+10.00,-9.00,+8.00,+2.00,+2.00,+12.00,-1.00,+0.00,-6.00
+0.00,-2.00,-4.00,-1.00,+9.00,+17.00,+2.00,+6.00,+16.00,+3.00,+1.00,-7.00,-15.00,-3.00,+2.00,-3.00
+1.00,-22.00,-9.00,-2.00,+5.00,+1.00,-3.00,+0.00,-1.00,+2.00,-2.00,-2.00,+1.00,-3.00,-4.00,-5.00
+1.00,+1.00,-4.00,-1.00,+3.00,+7.00,+0.00,-6.00,-7.00,-8.00,-3.00,+12.00,+10.00,+1.00,-6.00,-7.00
+11.00,+25.00,+5.00,-2.00,-9.00,-15.00,-1.00,+6.00,+5.00,-5.00,-7.00,-21.00,-24.00,-11.00,-4.00,-3.00
-7.00,-9.00,-2.00,+1.00,+1.00,-4.00,+2.00,+2.00,-21.00,-9.00,-1.00,-4.00,-5.00,-6.00,-5.00,-14.00
+3.00,+12.00,+9.00,+1.00,-16.00,-16.00,-5.00,-8.00,+13.00,+11.00,-7.00,-11.00,-11.00,-4.00,-3.00,+9.00
+9.00,-8.00,+0.00,+5.00,+13.00,+25.00,+6.00,+14.00,-10.00,-29.00,+3.00,+11.00,+15.00,+7.00,+6.00,+4.00
-15.00,-10.00,-14.00,-8.00,+3.00,+6.00,+1.00,+0.00,-1.00,-18.00,-5.00,-2.00,-3.00,+4.00,+6.00,+2.00
-25.00,-32.00,-20.00,-5.00,+0.00,-4.00,-8.00,-11.00,-2.00,+4.00,-1.00,+1.00,+10.00,-8.00,-12.00,-5.00
+33.00,-15.00,+11.00,+5.00,+10.00,+6.00,+2.00,-3.00,+13.00,+22.00,+5.00,+5.00,+6.00,-6.00,+2.00,+7.00
+7.00,+46.00,+17.00,+3.00,-25.00,-25.00,+1.00,+18.00,+5.00,+12.00,-2.00,-8.00,+4.00,+9.00,-2.00,-5.00
+4.00,+0.00,+1.00,+2.00,+14.00,+23.00,-1.00,-2.00,-19.00,-14.00,-1.00,+4.00,-7.00,-7.00,+6.00,-6.00
-19.00,-22.00,-7.00,-1.00,+5.00,+5.00,-10.00,-14.00,-21.00,-31.00,-16.00,-10.00,+4.00,-7.00,-7.00,+12.00
-17.00,-19.00,-17.00,-9.00,-31.00,-3.00,-8.00,-6.00,+8.00,+3.00,+6.00,-7.00,-30.00,+2.00,+9.00,+16.00
-20.00,-22.00,-7.00,-3.00,+28.00,-6.00,-2.00,+14.00,-2.00,+22.00,+3.00,-1.00,+3.00,-13.00,-8.00,-47.00
-9.00,-29.00,-1.00,+5.00,-1.00,-3.00,+4.00,+12.00,-9.00,+0.00,+2.00,+5.00,-5.00,+16.00,-1.00,+3.00
-8.00,+50.00,+14.00,+2.00,+6.00,+17.00,+4.00,+17.00,+3.00,+0.00,-4.00,+0.00,-2.00,-7.00,-4.00,-9.00
+12.00,+2.00,-2.00,-4.00,+4.00,-9.00,-19.00,-7.00,+1.00,+6.00,+6.00,+17.00,+15.00,-3.00,-7.00,-17.00
-17.00,-27.00,-11.00,-7.00,-11.00,+15.00,+33.00,+2.00,-6.00,-4.00,-2.00,-9.00,+5.00,-8.00,+7.00,+7.00
-4.00,+21.00,+6.00,+3.00,-1.00,-25.00,+1.00,+17.00,+6.00,-1.00,-4.00,+1.00,+1.00,+4.00,+0.00,+10.00
-2.00,-15.00,-6.00,-3.00,-23.00,-13.00,-5.00,-15.00,-2.00,-9.00,-2.00,-6.00,-8.00,+6.00,+9.00,-19.00
-23.00,-15.00,+2.00,+3.00,+6.00,+6.00,+0.00,+13.00,+19.00,+23.00,+5.00,-6.00,-15.00,+2.00,-2.00,+7.00
+6.00,+16.00,+6.00,+0.00,-2.00,+6.00,+6.00,-3.00,-14.00,-6.00,-2.00,-2.00,+2.00,-5.00,+7.00,+4.00
+8.00,+12.00,-3.00,+1.00,+24.00,+10.00,-19.00,-4.00,+6.00,+6.00,-1.00,+1.00,+1.00,-1.00,-7.00,+11.00
+42.00,+6.00,+5.00,+1.00,-2.00,-14.00,+10.00,+9.00,-8.00,-6.00,+5.00,+14.00,+25.00,-13.00,-5.00,-3.00
-33.00,+24.00,+2.00,-2.00,+5.00,+9.00,+7.00,-2.00,-13.00,-13.00,-6.00,-8.00,+3.00,+15.00,-6.00,-13.00
-17.00,-43.00,-16.00,-3.00,-1.00,-13.00,-32.00,-30.00,+12.00,+4.00,+1.00,-3.00,-11.00,+15.00,+4.00,+13.00
+18.00,+9.00,+14.00,-1.00,-14.00,-7.00,+7.00,+9.00,+0.00,-9.00,-3.00,+5.00,+10.00,-21.00,-2.00,+2.00
-23.00,+9.00,-7.00,-8.00,-11.00,-1.00,+0.00,-1.00,+13.00,+32.00,+5.00,+8.00,+4.00,+33.00,-1.00,-31.00
-11.00,-6.00,-14.00,-2.00,+14.00,+15.00,+11.00,-19.00,-22.00,-18.00,-6.00,-14.00,-14.00,+2.00,-9.00,-9.00
+18.00,+23.00,+12.00,+2.00,-9.00,-7.00,-3.00,+3.00,+4.00,+1.00,+0.00,+6.00,+4.00,+2.00,-3.00,+5.00
+4.00,-15.00,-14.00,-7.00,-24.00,-19.00,-18.00,-44.00,-4.00,-8.00,-2.00,-7.00,-6.00,-4.00,-5.00,-8.00
-25.00,-24.00,-6.00,+1.00,+17.00,+6.00,+20.00,-1.00,-5.00,-6.00,-2.00,-4.00,-12.00,-3.00,+0.00,+25.00
+7.00,-1.00,+9.00,+1.00,-2.00,+2.00,-3.00,+16.00,-4.00,+1.00,-1.00,+3.00,+8.00,-14.00,+1.00,-6.00
-2.00,+17.00,+4.00,+1.00,-8.00,-21.00,-3.00,-2.00,-1.00,-9.00,-2.00,+0.00,-4.00,-3.00,-5.00,+8.00
+20.00,-2.00,+1.00,+4.00,+15.00,+18.00,+5.00,-2.00,+16.00,+10.00,+2.00,+11.00,+23.00,+10.00,+4.00,+8.00
+12.00,-14.00,-6.00,-2.00,-3.00,-9.00,-2.00,-11.00,-4.00,+4.00,+1.00,-4.00,-1.00,-2.00,+1.00,-1.00
+1.00,+11.00,-2.00,-2.00,-1.00,+2.00,+4.00,-13.00,-3.00,-7.00,-5.00,-4.00,+6.00,+2.00,-18.00,-5.00
+73.00,+23.00,+5.00,+2.00,+2.00,-5.00,-7.00,+20.00,+2.00,-4.00,-2.00,-9.00,-19.00,-9.00,+8.00,-7.00
-47.00,+1.00,+1.00,-6.00,-45.00,-29.00,-19.00,-12.00,+10.00,+4.00,-3.00,-8.00,-5.00,-18.00,-2.00,+8.00
-10.00,-13.00,-5.00,+3.00,+36.00,+33.00,+27.00,+18.00,+1.00,+9.00,+4.00,+11.00,+13.00,+14.00,+2.00,-11.00
-10.00,-23.00,-5.00,+1.00,+14.00,+10.00,-3.00,-9.00,-21.00,-25.00,-5.00,+2.00,+2.00,-6.00,+3.00,+0.00
+19.00,+14.00,+5.00,+0.00,+5.00,+5.00,+3.00,-9.00,+33.00,+21.00,+3.00,-4.00,-5.00,+4.00,-13.00,-9.00
+11.00,-10.00,-4.00,-5.00,-11.00,-5.00,-4.00,+0.00,-22.00,-14.00,-4.00,-1.00,+0.00,-8.00,+0.00,-14.00
-8.00,+23.00,+4.00,-3.00,-14.00,-6.00,-13.00,+3.00,+10.00,+8.00,+4.00,+1.00,-3.00,-4.00,+9.00,+9.00
-3.00,+1.00,+5.00,+2.00,-1.00,-4.00,-7.00,+5.00,-6.00,-4.00,+5.00,+6.00,+3.00,+5.00,+8.00,+12.00
-30.00,-45.00,-16.00,-8.00,-4.00,+1.00,+1.00,-1.00,+20.00,+13.00,-6.00,-4.00,-7.00,-9.00,-7.00,+8.00
+8.00,+5.00,+0.00,+0.00,+3.00,+4.00,+2.00,+10.00,-6.00,+9.00,+6.00,+1.00,-1.00,+10.00,-1.00,-13.00
+33.00,+19.00,+7.00,+2.00,-10.00,-13.00,-7.00,+0.00,+5.00,-2.00,-2.00,-1.00,-2.00,-8.00,+1.00,+12.00
-30.00,+18.00,+4.00,+3.00,+10.00,+6.00,+3.00,+3.00,-3.00,-7.00,-8.00,-6.00,-5.00,+2.00,+1.00,-9.00
-21.00,-29.00,-8.00,-4.00,-8.00,-1.00,-7.00,-12.00,-13.00,-8.00,-1.00,+1.00,+1.00,-8.00,-2.00,-2.00
-13.00,+8.00,+0.00,-1.00,+9.00,+3.00,+7.00,+24.00,+3.00,+2.00,-2.00,-4.00,-2.00,-20.00,-2.00,-5.00
-12.00,-15.00,-2.00,-3.00,-6.00,-3.00,-12.00,-10.00,-9.00,-10.00,-3.00,-3.00,+3.00,+47.00,-4.00,-11.00
+23.00,+15.00,-4.00,-1.00,-5.00,-8.00,+1.00,+8.00,+13.00,+8.00,-1.00,+2.00,-8.00,-27.00,+5.00,-1.00
-12.00,-6.00,-1.00,+0.00,+2.00,+6.00,+6.00,-9.00,-17.00,-13.00,-4.00,-8.00,+1.00,+25.00,-12.00,-3.00
-45.00,-21.00,-8.00,-2.00,+2.00,+1.00,-11.00,-19.00,-5.00,-8.00,-1.00,-1.00,-6.00,-5.00,+0.00,+2.00
-7.00,+22.00,+4.00,-1.00,-9.00,-21.00,-11.00,-1.00,+23.00,+23.00,+5.00,+2.00,-1.00,+7.00,+1.00,+8.00
+37.00,-6.00,+0.00,+0.00,+1.00,+8.00,+14.00,+5.00,-1.00,+4.00,-6.00,-4.00,-5.00,+1.00,+0.00,+0.00
-10.00,+34.00,+7.00,+2.00,+7.00,+10.00,+11.00,+16.00,-32.00,-37.00,-5.00,-2.00,-4.00,-8.00,+6.00,+13.00
+15.00,+3.00,+0.00,+3.00,+10.00,+16.00,+15.00,+17.00,+10.00,+9.00,-1.00,-4.00,-4.00,+1.00,+0.00,-3.00
+58.00,-10.00,-2.00,+2.00,+3.00,+3.00,-1.00,-7.00,+5.00,+3.00,-2.00,+9.00,+21.00,-23.00,-6.00,+2.00
+27.00,-36.00,-17.00,-7.00,-7.00,-11.00,-8.00,-3.00,+8.00,+14.00,+6.00,-5.00,-23.00,+6.00,+0.00,-4.00
-26.00,+33.00,+15.00,+1.00,+0.00,-2.00,+8.00,+19.00,-7.00,-12.00,-8.00,-8.00,-12.00,-9.00,-12.00,-13.00
+13.00,+3.00,+1.00,+2.00,-1.00,-4.00,+1.00,-4.00,-10.00,-7.00,-4.00,-2.00,+0.00,+8.00,+2.00,+28.00
+7.00,+11.00,+5.00,+0.00,-12.00,-3.00,-18.00,+6.00,+13.00,+11.00,+4.00,+4.00,-1.00,-17.00,+3.00,+3.00
-7.00,-29.00,-13.00,-4.00,+6.00,+6.00,+10.00,-22.00,-1.00,+2.00,+2.00,+6.00,+14.00,+3.00,+0.00,-8.00
-11.00,-14.00,-11.00,-4.00,+2.00,+2.00,-3.00,-10.00,-1.00,+6.00,+2.00,+2.00,+3.00,-14.00,+2.00,+10.00
+34.00,+26.00,+9.00,+5.00,+8.00,+8.00,+14.00,+16.00,+13.00,+4.00,-4.00,-6.00,-6.00,+7.00,-4.00,-20.00
-10.00,+25.00,+10.00,+1.00,-8.00,-9.00,-10.00,+0.00,-11.00,-9.00,-3.00,+2.00,-14.00,-9.00,-1.00,+15.00
+41.00,+11.00,+1.00,-1.00,-6.00,+1.00,-4.00,-16.00,+5.00,-9.00,+0.00,-4.00,+15.00,+0.00,-2.00,+8.00
-41.00,-41.00,-12.00,-3.00,-4.00,-10.00,-12.00,-15.00,+0.00,-4.00,-3.00,+0.00,-2.00,+14.00,+7.00,-15.00
-10.00,-1.00,-2.00,-3.00,-1.00,-9.00,-1.00,-1.00,-15.00,-2.00,-3.00,-1.00,+4.00,-2.00,+2.00,+1.00
-15.00,-6.00,-8.00,-4.00,+1.00,+25.00,+3.00,+4.00,-6.00,-2.00,-4.00,-6.00,-8.00,-12.00,-4.00,-11.00
+8.00,+33.00,+10.00,+4.00,+16.00,+5.00,+6.00,+14.00,-8.00,-8.00,-1.00,+3.00,+0.00,+3.00,-2.00,+4.00
+53.00,+0.00,-2.00,-1.00,-5.00,-2.00,+1.00,-10.00,+15.00,+12.00,+5.00,+6.00,+5.00,-5.00,+3.00,+10.00
-23.00,-25.00,-13.00,-6.00,-3.00,-5.00,-10.00,+2.00,+5.00,+0.00,-2.00,-3.00,-6.00,+1.00,+8.00,-27.00
+15.00,+28.00,+15.00,+5.00,-2.00,-4.00,+8.00,+10.00,+5.00,+4.00,+2.00,+0.00,+1.00,+12.00,-14.00,+3.00
-21.00,-4.00,-4.00,-4.00,-8.00,-7.00,-7.00,-7.00,-9.00,-11.00,-5.00,-4.00,-8.00,-2.00,-8.00,-12.00
+12.00,+7.00,+3.00,+2.00,+0.00,+0.00,-7.00,-5.00,+3.00,+6.00,+1.00,+3.00,+10.00,-4.00,+1.00,+9.00
+15.00,+5.00,+4.00,+2.00,+1.00,+5.00,-11.00,-12.00,-17.00,-11.00,-5.00,+0.00,-2.00,+2.00,-2.00,-11.00
-15.00,-19.00,-6.00,-2.00,-4.00,-5.00,+6.00,+3.00,+2.00,-2.00,-3.00,-8.00,-12.00,-3.00,-3.00,-5.00
-8.00,-2.00,+0.00,-1.00,-3.00,-2.00,-1.00,+9.00,+15.00,+9.00,-1.00,+2.00,+9.00,-20.00,+7.00,+11.00
+2.00,+0.00,-3.00,+1.00,+4.00,-7.00,+1.00,+8.00,-15.00,-12.00,-2.00,+0.00,+4.00,+8.00,-2.00,-6.00
+2.00,+2.00,+0.00,-1.00,+0.00,+4.00,-1.00,-22.00,+14.00,+13.00,+3.00,+2.00,-2.00,+21.00,-3.00,+1.00
+1.00,-20.00,-9.00,-2.00,-2.00,-3.00,+2.00,-4.00,-13.00,-14.00,-9.00,-9.00,-9.00,-9.00,+0.00,-1.00
-20.00,-8.00,-1.00,-2.00,-9.00,-14.00,-17.00,-7.00,-2.00,+1.00,-3.00,-3.00,+3.00,-9.00,-9.00,-25.00
+6.00,+23.00,+7.00,+1.00,-1.00,+9.00,+21.00,+5.00,+8.00,+19.00,+4.00,+1.00,-3.00,-6.00,-4.00,-4.00
-25.00,-15.00,-5.00,+0.00,+6.00,+6.00,+3.00,+6.00,+2.00,-8.00,+3.00,+4.00,+8.00,+2.00,+3.00,+6.00
+42.00,+29.00,+14.00,+3.00,+13.00,+5.00,+6.00,-17.00,+0.00,+0.00,-3.00,-10.00,-19.00,+1.00,+0.00,-11.00
-10.00,+24.00,+6.00,+3.00,-2.00,-6.00,-8.00,+19.00,-1.00,-2.00,-2.00,-3.00,-6.00,-17.00,-2.00,+5.00
-8.00,-4.00,-6.00,-5.00,-8.00,-8.00,-7.00,-1.00,+12.00,+4.00,-1.00,+3.00,+2.00,-2.00,+2.00,-1.00
-11.00,+12.00,+4.00,-2.00,-1.00,+14.00,+0.00,-1.00,-8.00,+2.00,+0.00,+6.00,-2.00,-7.00,-8.00,+6.00
+16.00,-8.00,+0.00,+1.00,+3.00,-4.00,+0.00,+2.00,+5.00,+3.00,-2.00,-6.00,+14.00,-3.00,-2.00,+4.00
-26.00,-18.00,-5.00,+0.00,-5.00,-3.00,+6.00,-3.00,-9.00,-9.00,-2.00,-1.00,-2.00,+10.00,+0.00,-2.00
-20.00,-4.00,-3.00,-3.00,-6.00,+2.00,-14.00,-19.00,-15.00,-11.00,-7.00,-9.00,-11.00,-4.00,-3.00,-11.00
+21.00,+17.00,+6.00,+3.00,+4.00,-3.00,+11.00,+13.00,-5.00,-6.00,-3.00,-4.00,-5.00,-6.00,-3.00,+6.00
-27.00,-25.00,-11.00,-2.00,+10.00,+1.00,-11.00,-13.00,+4.00,+8.00,+5.00,+7.00,-2.00,-9.00,+5.00,+4.00
-3.00,-14.00,-3.00,-1.00,-2.00,-1.00,-1.00,+9.00,-4.00,-4.00,-1.00,-3.00,+3.00,-2.00,-6.00,+6.00
+23.00,+19.00,+0.00,-1.00,-1.00,-1.00,-2.00,-15.00,-21.00,-11.00,-5.00,-2.00,+1.00,+20.00,+6.00,+2.00
-9.00,-13.00,-4.00,-3.00,-8.00,-7.00,+3.00,+7.00,+49.00,+18.00,+4.00,+4.00,+5.00,-7.00,+1.00,+30.00
-9.00,-20.00,-6.00,-1.00,-4.00,-2.00,-4.00,-2.00,-26.00,-8.00,-1.00,-4.00,-12.00,-8.00,-2.00,-15.00
-20.00,+20.00,+6.00,+3.00,+4.00,-3.00,-3.00,+0.00,-5.00,-2.00,+1.00,+0.00,+7.00,+13.00,+0.00,-8.00
-1.00,-2.00,+0.00,-2.00,-2.00,-1.00,-2.00,+3.00,+28.00,+12.00,+4.00,+1.00,-6.00,-2.00,-1.00,+13.00
-13.00,+5.00,+0.00,-4.00,-10.00,-16.00,-14.00,+35.00,+2.00,-2.00,-2.00,-2.00,+2.00,+2.00,+1.00,-13.00
+11.00,+25.00,+9.00,+3.00,-4.00,-3.00,+15.00,+16.00,+3.00,+4.00,+3.00,+9.00,+13.00,+1.00,+1.00,+0.00
-1.00,-19.00,-7.00,-3.00,+9.00,+15.00,+3.00,-16.00,+6.00,+5.00,+2.00,+4.00,-2.00,-3.00,+4.00,+7.00
+27.00,-16.00,-8.00,-2.00,+3.00,+3.00,-3.00,+14.00,-17.00,-13.00,-9.00,-18.00,-25.00,-15.00,-11.00,-5.00
+9.00,+5.00,+1.00,-3.00,-13.00,-10.00,-4.00,+1.00,-8.00,-2.00,-1.00,-3.00,-2.00,-16.00,+3.00,-5.00
-21.00,-19.00,-6.00,-3.00,-14.00,+3.00,-8.00,-8.00,-18.00,-16.00,-7.00,+1.00,+18.00,+23.00,+3.00,+5.00
+11.00,+3.00,+2.00,+3.00,+23.00,-6.00,+5.00,+5.00,+14.00,+0.00,-1.00,+1.00,+2.00,+12.00,+7.00,+12.00
+0.00,-6.00,-1.00,-2.00,+3.00,+5.00,-3.00,+10.00,+2.00,+2.00,+0.00,+3.00,+5.00,+1.00,+0.00,-2.00
+3.00,-30.00,-9.00,-1.00,+1.00,-6.00,-3.00,-25.00,-7.00,+1.00,+0.00,-5.00,-12.00,-13.00,-9.00,-15.00
-1.00,+12.00,-2.00,-7.00,-8.00,-13.00,-5.00,-9.00,-2.00,-4.00,-2.00,-1.00,-1.00,-5.00,-5.00,-4.00
+29.00,+20.00,+8.00,-2.00,-8.00,+3.00,+4.00,+4.00,-12.00,-11.00,-3.00,-2.00,-7.00,-4.00,+0.00,+3.00
-12.00,+3.00,+1.00,+0.00,+2.00,-6.00,+1.00,+5.00,+14.00,+14.00,+3.00,+6.00,+10.00,+3.00,-3.00,-3.00
-2.00,-4.00,+3.00,+4.00,+11.00,+14.00,+8.00,-4.00,-25.00,-16.00,+1.00,-1.00,-16.00,-3.00,+0.00,-7.00
-24.00,-25.00,-11.00,-4.00,-9.00,-10.00,-5.00,-1.00,+6.00,-7.00,-5.00,-10.00,-7.00,+7.00,-1.00,+0.00
+2.00,-9.00,-4.00,-1.00,-8.00,-1.00,-4.00,+1.00,+6.00,+7.00,+3.00,+4.00,+6.00,+1.00,-11.00,-5.00
+8.00,+9.00,-4.00,-5.00,-8.00,-11.00,+2.00,+3.00,-1.00,+2.00,-1.00,+1.00,+2.00,-23.00,-1.00,-2.00
-6.00,+3.00,+2.00,+1.00,+1.00,+7.00,+7.00,-6.00,-8.00,-1.00,-2.00,+6.00,+10.00,+16.00,+0.00,-2.00
+3.00,-1.00,-1.00,+1.00,+11.00,-10.00,-3.00,+1.00,-11.00,-2.00,+0.00,-4.00,-13.00,-21.00,-9.00,-31.00
-8.00,-7.00,+0.00,+0.00,+3.00,+12.00,+3.00,-4.00,-7.00,-8.00,-5.00,-16.00,-19.00,+3.00,-8.00,-12.00
+3.00,-14.00,-3.00,+1.00,+1.00,-9.00,-8.00,-5.00,-1.00,+4.00,+1.00,-1.00,-23.00,-26.00,-2.00,+3.00
-33.00,-16.00,-6.00,-6.00,-21.00,-12.00,-2.00,+15.00,+6.00,+3.00,+0.00,+0.00,+27.00,+0.00,+1.00,+5.00
-66.00,+17.00,+1.00,-1.00,+6.00,+14.00,+2.00,+24.00,-7.00,-5.00,-4.00,+0.00,-2.00,+3.00,-4.00,-2.00
+8.00,+21.00,+5.00,+2.00,+12.00,-13.00,-3.00,+1.00,+6.00,-1.00,-3.00,+0.00,+4.00,-11.00,+5.00,+13.00
-26.00,-2.00,-1.00,+0.00,-8.00,+1.00,-7.00,-1.00,-1.00,-2.00,-3.00,+0.00,-2.00,+38.00,+4.00,-14.00
-14.00,+0.00,-3.00,+1.00,+10.00,-1.00,-4.00,-11.00,-7.00,-6.00,+0.00,+1.00,+3.00,-8.00,-4.00,-3.00
+17.00,-14.00,-2.00,+0.00,+18.00,-2.00,+4.00,-21.00,+11.00,+8.00,+5.00,+12.00,+5.00,-10.00,+2.00,+8.00
-19.00,-29.00,-10.00,-5.00,-13.00,+11.00,+5.00,+19.00,-22.00,-11.00,-3.00,+1.00,+7.00,+18.00,+0.00,-7.00
-8.00,+17.00,+9.00,+4.00,+6.00,+1.00,+1.00,+9.00,+2.00,-7.00,-2.00,+1.00,-2.00,-9.00,-3.00,+1.00
+26.00,+21.00,+7.00,+2.00,-4.00,-3.00,+2.00,-5.00,+9.00,+10.00,+0.00,-11.00,-22.00,-23.00,-7.00,-8.00
+10.00,-6.00,-4.00,-2.00,-12.00,-1.00,-1.00,-8.00,+2.00,+2.00,+1.00,+2.00,+13.00,+2.00,+0.00,+10.00
+5.00,-2.00,-5.00,-7.00,-24.00,-7.00,-7.00,-20.00,+7.00,+3.00,+2.00,+10.00,+15.00,+31.00,+12.00,+5.00
-9.00,-24.00,-4.00,-2.00,+15.00,-12.00,-1.00,-12.00,-17.00,-14.00,-5.00,-11.00,-11.00,+1.00,-3.00,-9.00
+5.00,+3.00,+0.00,+1.00,+18.00,+29.00,+3.00,-14.00,-13.00,-1.00,+1.00,-5.00,+1.00,+9.00,-3.00,-32.00
-18.00,+2.00,-1.00,-5.00,-37.00,-29.00,-4.00,-8.00,+8.00,+5.00,+1.00,+6.00,+9.00,-21.00,-4.00,+1.00
-18.00,+1.00,-2.00,-2.00,+23.00,+4.00,-12.00,-1.00,+5.00,+2.00,-2.00,-11.00,-35.00,-4.00,+0.00,+0.00
-28.00,-11.00,-4.00,-2.00,+5.00,+12.00,+0.00,-15.00,+2.00,-2.00,+2.00,+2.00,+8.00,+1.00,-1.00,-1.00
-22.00,-4.00,-4.00,-1.00,+1.00,+1.00,+6.00,+12.00,-2.00,+1.00,-4.00,-2.00,-33.00,-15.00,-3.00,+2.00
+25.00,+6.00,+8.00,+3.00,+4.00,+25.00,+2.00,+2.00,-3.00,-11.00,-7.00,-4.00,+6.00,-6.00,+2.00,-4.00
-12.00,-3.00,-4.00,-3.00,-11.00,-10.00,-3.00,+5.00,+6.00,+7.00,+3.00,+1.00,+8.00,-3.00,-2.00,-7.00
+2.00,-1.00,+0.00,+0.00,-7.00,-6.00,-5.00,-20.00,+3.00,+4.00,-1.00,+5.00,+20.00,+5.00,+0.00,+7.00
+14.00,+5.00,+1.00,+0.00,-1.00,-14.00,-3.00,-17.00,-12.00,-9.00,-2.00,-3.00,-6.00,+11.00,-1.00,+8.00
+22.00,-6.00,-8.00,-4.00,-4.00,-4.00,-1.00,-14.00,-5.00,-14.00,-1.00,-8.00,-22.00,+13.00,+9.00,+7.00
+27.00,+11.00,+4.00,+2.00,+2.00,-29.00,+1.00,-9.00,+5.00,+12.00,+0.00,+8.00,+7.00,-17.00,-9.00,+2.00
-4.00,-14.00,-5.00,-1.00,-2.00,+12.00,-4.00,-7.00,-2.00,+3.00,+7.00,+29.00,+23.00,-10.00,+4.00,+16.00
+23.00,+40.00,+11.00,+6.00,+17.00,+2.00,+12.00,+9.00,-8.00,-8.00,-12.00,-55.00,-52.00,+4.00,-10.00,-5.00
+15.00,-6.00,-3.00,+1.00,+0.00,+4.00,-1.00,+13.00,+2.00,+5.00,+3.00,-2.00,-23.00,-25.00,+0.00,+6.00
-28.00,-6.00,+1.00,-4.00,-49.00,-28.00,-6.00,+20.00,-8.00,-14.00,-8.00,+4.00,+39.00,+47.00,+11.00,-3.00
+15.00,+6.00,+2.00,+2.00,+3.00,+13.00,+5.00,+13.00,+0.00,+5.00,+2.00,+1.00,-11.00,+4.00,+4.00,+5.00
+14.00,-17.00,-7.00,-2.00,+13.00,-11.00,-11.00,-65.00,-5.00,-8.00,-8.00,+9.00,+14.00,+8.00,-1.00,+0.00
-27.00,+0.00,-2.00,+0.00,+19.00,-12.00,+0.00,+17.00,+2.00,+2.00,+0.00,+13.00,-16.00,-21.00,-12.00,-4.00
+3.00,-3.00,-1.00,-2.00,-25.00,+10.00,-1.00,-16.00,+4.00,-1.00,-2.00,-34.00,-64.00,-40.00,-9.00,+4.00
-26.00,-7.00,-4.00,+0.00,+20.00,+29.00,+5.00,-18.00,-11.00,-1.00,+21.00,+1.00,+26.00,+32.00,+2.00,+15.00
+15.00,-5.00,+2.00,-4.00,-20.00,+0.00,-8.00,-5.00,+6.00,+1.00,-35.00,+7.00,+27.00,+9.00,-1.00,+9.00
+2.00,+4.00,+2.00,+4.00,+14.00,+16.00,+6.00,-1.00,+3.00,-9.00,-16.00,-20.00,-34.00,-6.00,-2.00,-12.00
-17.00,-7.00,-10.00,-1.00,+2.00,-5.00,+1.00,+0.00,+0.00,+4.00,+5.00,+47.00,+79.00,+10.00,+10.00,+4.00
+8.00,-5.00,-11.00,-4.00,-8.00,+0.00,+1.00,+2.00,-6.00,-8.00,-7.00,+1.00,-2.00,-4.00,-11.00,-22.00
-6.00,+10.00,+14.00,+4.00,-9.00,+7.00,+3.00,+28.00,-2.00,-2.00,+6.00,-38.00,-88.00,-33.00,-1.00,+5.00
-4.00,+0.00,+0.00,-12.00,-53.00,-12.00,-9.00,-10.00,-1.00,+4.00,+1.00,-14.00,+7.00,+9.00,-2.00,+1.00
+7.00,+10.00,+6.00,+8.00,+66.00,+10.00,+1.00,+4.00,-3.00,-1.00,+5.00,+6.00,-13.00,-7.00,-5.00,-10.00
+2.00,+11.00,+4.00,+6.00,-9.00,+13.00,+7.00,+16.00,-4.00,-4.00,+17.00,-2.00,+15.00,-9.00,+2.00,+0.00
+0.00,-15.00,-11.00,-1.00,+30.00,+25.00,+4.00,+1.00,+5.00,+5.00,-22.00,+25.00,+58.00,+4.00,+0.00,-3.00
-23.00,-9.00,-3.00,-2.00,-15.00,-30.00,-6.00,+27.00,-6.00,-7.00,-2.00,+30.00,+33.00,+22.00,+2.00,-7.00
+12.00,+1.00,-6.00,-4.00,-24.00,-2.00,+0.00,-5.00,+5.00,+7.00,+3.00,-2.00,-5.00,+1.00,+3.00,+12.00
+2.00,-3.00,+1.00,-1.00,+25.00,+13.00,+3.00,+3.00,-7.00,-16.00,-10.00,-39.00,-50.00,-17.00,-3.00,-13.00
-8.00,+1.00,+11.00,-11.00,-88.00,-48.00,-10.00,+5.00,-1.00,+0.00,+29.00,+6.00,-22.00,+2.00,+5.00,+17.00
-3.00,-5.00,+2.00,+6.00,+36.00,+2.00,+2.00,-10.00,+21.00,+19.00,-3.00,-6.00,+28.00,+18.00,+6.00,+6.00
+15.00,+12.00,+3.00,+4.00,+13.00,+30.00,+4.00,-17.00,-6.00,-11.00,-14.00,+13.00,+4.00,-9.00,-7.00,-3.00
+6.00,-2.00,-7.00,-3.00,+19.00,-37.00,+1.00,+8.00,+8.00,+6.00,-9.00,-6.00,-12.00,-2.00,+0.00,+6.00
-29.00,-18.00,-17.00,-6.00,-3.00,+0.00,-9.00,+2.00,-5.00,-4.00,+8.00,+10.00,+22.00,-6.00,+0.00,-1.00
+1.00,-4.00,+0.00,-5.00,-13.00,-11.00,+13.00,+14.00,-10.00,+3.00,+12.00,+39.00,+65.00,+44.00,+7.00,-2.00
-9.00,-4.00,+2.00,-4.00,-59.00,-27.00,-15.00,+12.00,+4.00,+2.00,+4.00,-53.00,-90.00,-32.00,-8.00,+6.00
+0.00,-6.00,+3.00,+4.00,+38.00,+29.00,+5.00,-7.00,+4.00,+1.00,-7.00,+33.00,+83.00,+1.00,-1.00,+3.00
+20.00,-4.00,-8.00,-8.00,-41.00,-20.00,-7.00,-18.00,-12.00,-6.00,-2.00,-4.00,-29.00,+8.00,-7.00,-11.00
+1.00,+0.00,-3.00,+13.00,+97.00,+60.00,+16.00,+24.00,+11.00,+7.00,+4.00,-27.00,-27.00,-14.00,-4.00,+0.00
+5.00,-6.00,-1.00,-3.00,-12.00,-7.00,-4.00,-8.00,-9.00,-5.00,-2.00,+21.00,+23.00,-39.00,-10.00,-12.00
+6.00,+13.00,+3.00,-6.00,-28.00,-1.00,-8.00,+6.00,+5.00,+4.00,-6.00,-40.00,-60.00,+20.00,+6.00,-13.00
+3.00,-1.00,+0.00,+8.00,+49.00,+11.00,+19.00,+11.00,-11.00,-5.00,-2.00,+4.00,+30.00,+29.00,+5.00,+2.00
+2.00,-5.00,-6.00,-9.00,-59.00,+0.00,-6.00,-28.00,-6.00,-11.00,-3.00,+2.00,+29.00,-7.00,+3.00,+17.00
+62.00,+7.00,+3.00,+2.00,+67.00,+52.00,-1.00,-5.00,-7.00,+0.00,+4.00,+15.00,-6.00,+18.00,+2.00,-6.00
+10.00,+8.00,+4.00,+3.00,+18.00,+33.00,+4.00,+19.00,-7.00,-4.00,-7.00,-17.00,-25.00,-24.00,-11.00,-17.00
+2.00,+0.00,-3.00,-2.00,-10.00,-26.00,-3.00,-1.00,+20.00,+16.00,+17.00,+43.00,+52.00,+15.00,+5.00,+8.00
-5.00,+2.00,+0.00,-7.00,-21.00,-16.00,-11.00,-11.00,-7.00,-8.00,-10.00,-35.00,-51.00,-14.00,-7.00,-6.00
+6.00,-1.00,+0.00,+4.00,+12.00,+14.00,+11.00,-3.00,+5.00,+3.00,-3.00,-19.00,-32.00,-15.00,-3.00,+5.00
-19.00,-5.00,-3.00,-15.00,-101.00,-69.00,-24.00,-8.00,-9.00,-2.00,+5.00,+55.00,+85.00,+17.00,+3.00,+6.00
-13.00,-9.00,-1.00,+2.00,+26.00,+10.00,+3.00,+1.00,-5.00,-4.00,-13.00,-47.00,-44.00,-13.00,-7.00,-11.00
+2.00,+0.00,+2.00,+3.00,+43.00,+20.00,+1.00,+3.00,+7.00,+9.00,+13.00,+17.00,+15.00,+4.00,+5.00,+11.00
-10.00,-16.00,-10.00,-10.00,-40.00,-10.00,-7.00,-11.00,-9.00,-8.00,+1.00,+13.00,-2.00,+5.00,+0.00,-7.00
-2.00,-14.00,-4.00,+4.00,+60.00,-2.00,+0.00,-2.00,+1.00,+1.00,-9.00,-38.00,-94.00,-30.00,-7.00,-7.00
+7.00,+20.00,+8.00,+1.00,-10.00,-1.00,-2.00,+6.00,-9.00,-9.00,-2.00,+3.00,+15.00,-4.00,-10.00,-10.00
+16.00,+32.00,+11.00,+8.00,+11.00,-12.00,+2.00,+2.00,-14.00,-10.00,-10.00,-25.00,-7.00,-16.00,-14.00,-45.00
-12.00,+1.00,+4.00,+3.00,-34.00,-27.00,+5.00,+1.00,-2.00,+0.00,-5.00,-14.00,-44.00,-19.00,-5.00,-10.00
-10.00,-6.00,-3.00,-2.00,+7.00,-3.00,+4.00,-14.00,+4.00,+0.00,+1.00,-2.00,+17.00,+36.00,+3.00,+12.00
-18.00,-11.00,-5.00,+5.00,+34.00,+47.00,+5.00,-3.00,+5.00,+4.00,+3.00,+18.00,+59.00,-1.00,+27.00,+5.00
-30.00,-13.00,-7.00,-11.00,-41.00,+0.00,-9.00,-3.00,-9.00,-12.00,-11.00,-22.00,-54.00,-11.00,-8.00,-9.00
-10.00,-3.00,-1.00,+0.00,-18.00,-9.00,+9.00,+4.00,+13.00,+3.00,-2.00,-9.00,+29.00,+32.00,+5.00,+22.00
-46.00,-1.00,-3.00,-3.00,+0.00,+7.00,-8.00,-1.00,-2.00,-3.00,+1.00,+28.00,+42.00,+5.00,+1.00,-9.00
+0.00,-9.00,-7.00,-1.00,+36.00,+27.00,-12.00,-11.00,+7.00,+17.00,+21.00,+42.00,+65.00,+31.00,+11.00,+9.00
+29.00,-2.00,+2.00,+7.00,+16.00,+1.00,+5.00,-20.00,+14.00,+10.00,+11.00,+12.00,+4.00,+14.00,+19.00,+28.00
-51.00,+4.00,+4.00,-4.00,-29.00,-31.00,-2.00,+19.00,-6.00,-7.00,-7.00,-12.00,+11.00,-15.00,+4.00,-8.00
+3.00,-6.00,-6.00,-12.00,-71.00,+1.00,-18.00,-2.00,+1.00,+3.00,-3.00,-18.00,-27.00,-40.00,+2.00,+1.00
+19.00,+2.00,-2.00,+8.00,+95.00,-7.00,+13.00,+10.00,-2.00,-4.00,+6.00,+34.00,+7.00,+77.00,+13.00,-5.00
-15.00,-8.00,-6.00,+0.00,+44.00,+66.00,+2.00,-11.00,-10.00,-8.00,-5.00,+30.00,+56.00,+9.00,-11.00,-10.00
+10.00,-3.00,+0.00,+1.00,+61.00,+52.00,-20.00,-10.00,+24.00,+22.00,+17.00,+18.00,+44.00,+43.00,+7.00,+11.00
+16.00,+7.00,+3.00,+1.00,-16.00,-17.00,+8.00,-5.00,+5.00,+7.00,-2.00,-4.00,-7.00,-25.00,-6.00,+0.00
-19.00,-14.00,-7.00,-14.00,-108.00,-28.00,-16.00,-1.00,-13.00,-11.00,-6.00,-23.00,-32.00,-29.00,+1.00,-6.00
+8.00,+2.00,+1.00,-9.00,-28.00,-12.00,-14.00,-9.00,-5.00,-8.00,-7.00,-6.00,-4.00,-13.00,-10.00,-11.00
+8.00,+2.00,+6.00,+17.00,+114.00,+28.00,+30.00,+10.00,-2.00,-6.00,-2.00,+0.00,-31.00,+12.00,+2.00,-7.00
+8.00,-4.00,-10.00,-2.00,+15.00,-55.00,+2.00,+6.00,-10.00,-8.00,-6.00,+12.00,-5.00,+10.00,-4.00,+13.00
-6.00,-13.00,-6.00,+1.00,+3.00,+16.00,+3.00,+1.00,+16.00,+7.00,+6.00,+28.00,+56.00,+20.00,+7.00,+13.00
+22.00,+44.00,+5.00,-2.00,+2.00,-17.00,-14.00,-19.00,-11.00,+8.00,+8.00,+16.00,+6.00,-3.00,+22.00,-7.00
-8.00,+19.00,+5.00,-3.00,-34.00,-17.00,+5.00,+30.00,-11.00,-7.00,-13.00,-64.00,-44.00,-78.00,-20.00,-10.00
+0.00,-1.00,+4.00,-2.00,-48.00,+12.00,-1.00,+0.00,+3.00,-5.00,-7.00,-22.00,+1.00,+23.00,-26.00,-16.00
+8.00,+2.00,+2.00,+2.00,+54.00,+28.00,+13.00,+20.00,-7.00,-3.00,-7.00,-32.00,-74.00,-30.00,-27.00,-21.00
-9.00,-22.00,-4.00,-3.00,-87.00,-44.00,-1.00,+8.00,-11.00,-13.00,-9.00,-7.00,-58.00,-20.00,-16.00,-4.00
+6.00,-3.00,+2.00,+9.00,+75.00,+4.00,-22.00,-9.00,-8.00,+5.00,+6.00,-1.00,+39.00,+7.00,+28.00,-1.00
+30.00,+8.00,+4.00,-2.00,-62.00,-45.00,+11.00,-6.00,+2.00,-1.00,+3.00,+10.00,+35.00,+33.00,+9.00,+0.00
-55.00,-4.00,-3.00,-3.00,+7.00,-61.00,-4.00,+7.00,+0.00,-3.00,-2.00,-25.00,-38.00,-26.00,-2.00,-8.00
-4.00,+6.00,+6.00,-3.00,-67.00,+26.00,-38.00,+0.00,+0.00,-8.00,-3.00,+17.00,+73.00,+0.00,-23.00,+0.00
-2.00,-3.00,-9.00,-2.00,+37.00,+32.00,+16.00,+0.00,+0.00,+3.00,+5.00,+15.00,-27.00,+28.00,+13.00,-8.00
-9.00,-5.00,-1.00,+1.00,-7.00,-6.00,+3.00,+13.00,-11.00,-5.00,-7.00,-10.00,+5.00,-15.00,+12.00,+2.00
+24.00,+9.00,+2.00,-1.00,-11.00,+19.00,-6.00,-10.00,+10.00,+12.00,+4.00,+0.00,-3.00,-23.00,-25.00,-1.00
-5.00,-8.00,-3.00,-1.00,-30.00,-59.00,+9.00,-5.00,+5.00,-2.00,+2.00,+15.00,+18.00,-3.00,+12.00,+5.00
-11.00,-10.00,-5.00,-4.00,-63.00,-28.00,+5.00,-20.00,-29.00,-22.00,-10.00,+15.00,-43.00,-27.00,-3.00,-17.00
+13.00,+9.00,+2.00,-1.00,+47.00,+13.00,+1.00,-1.00,-6.00,-12.00,-4.00,-29.00,-5.00,-20.00,-32.00,-6.00
+0.00,-18.00,-7.00,-10.00,-68.00,-26.00,-54.00,-15.00,+2.00,+4.00,+0.00,+39.00,+93.00,+6.00,-16.00,+6.00
-4.00,+1.00,-2.00,+10.00,+90.00,-30.00,+24.00,+5.00,+21.00,+23.00,-4.00,-46.00,-65.00,-16.00,+14.00,+1.00
+7.00,+3.00,+2.00,-7.00,-63.00,-30.00,-24.00,+0.00,+16.00,-1.00,+5.00,+7.00,-32.00,-31.00,-15.00,+33.00
-4.00,+1.00,+3.00,+5.00,+20.00,+10.00,+9.00,-6.00,-17.00,-7.00,+4.00,+19.00,+18.00,+1.00,+14.00,-8.00
-12.00,-2.00,+5.00,+21.00,+94.00,+56.00,+50.00,+25.00,-17.00,-18.00,-13.00,-18.00,-35.00,-10.00,-12.00,-10.00
-5.00,-17.00,-11.00,-5.00,-23.00,+15.00,-22.00,-17.00,+9.00,+0.00,-5.00,-44.00,-66.00,-34.00,-32.00,+3.00
+54.00,+92.00,+30.00,+6.00,-41.00,-64.00,+15.00,-5.00,+10.00,+14.00,+2.00,+2.00,-11.00,-6.00,-6.00,-5.00
-9.00,-10.00,-5.00,-2.00,-1.00,+26.00,-35.00,+9.00,-4.00,-1.00,-4.00,+18.00,-2.00,+21.00,+27.00,+11.00
-6.00,-12.00,-3.00,-3.00,-10.00,-22.00,+1.00,-5.00,+10.00,+2.00,+7.00,+14.00,-41.00,-4.00,+14.00,+17.00
-5.00,-35.00,-9.00,-3.00,-19.00,-55.00,+2.00,-9.00,+14.00,+13.00,+3.00,-21.00,+67.00,+11.00,+32.00,+12.00
-52.00,-36.00,-10.00,+2.00,-15.00,+44.00,+7.00,-14.00,-5.00,-7.00,-9.00,-20.00,+46.00,+2.00,-8.00,-9.00
-17.00,-5.00,-9.00,-20.00,-93.00,-59.00,-11.00,-9.00,-2.00,+4.00,+5.00,+7.00,-12.00,-25.00,-31.00,-10.00
+12.00,-3.00,-4.00,+8.00,+67.00,-18.00,+29.00,-4.00,-8.00,-4.00,-6.00,-4.00,-44.00,+1.00,-20.00,-10.00
+1.00,-2.00,+0.00,-2.00,+10.00,+43.00,+25.00,+20.00,-6.00,-1.00,+8.00,+16.00,-20.00,-39.00,-15.00,+3.00
+10.00,-11.00,-3.00,-6.00,-53.00,-28.00,-41.00,-19.00,+1.00,+1.00,+5.00,+17.00,+78.00,+99.00,+57.00,+9.00
+16.00,+10.00,+4.00,+2.00,+34.00,+28.00,+2.00,+6.00,-5.00,-5.00,-4.00,-1.00,-12.00,+57.00,+16.00,+5.00
-2.00,-3.00,-6.00,-13.00,-52.00,+11.00,-44.00,-9.00,+9.00,+1.00,-1.00,-6.00,+21.00,+1.00,+42.00,+11.00
-1.00,-2.00,-4.00,-1.00,+34.00,+9.00,-9.00,+2.00,-13.00,-11.00,+1.00,+21.00,-32.00,-10.00,-26.00,-6.00
-25.00,-9.00,-3.00,-8.00,-10.00,+85.00,+5.00,+14.00,+2.00,+1.00,-6.00,-15.00,-27.00,-20.00,-39.00,-12.00
+13.00,+0.00,+1.00,+4.00,+50.00,+22.00,+17.00,+7.00,+11.00,+8.00,-3.00,-6.00,-13.00,-16.00,-9.00,-7.00
+19.00,+14.00,+10.00,+10.00,+77.00,+49.00,+34.00,+9.00,+4.00,+0.00,-1.00,+6.00,+15.00,+10.00,+16.00,-1.00
-4.00,+5.00,-1.00,+1.00,+18.00,-56.00,-20.00,-10.00,-22.00,-15.00,-6.00,-23.00,-8.00,+0.00,-1.00,-11.00
-4.00,-19.00,-10.00,-4.00,+12.00,+35.00,+19.00,-10.00,-41.00,-27.00,-2.00,+30.00,+23.00,+11.00,+22.00,-4.00
-12.00,-11.00,-6.00,-5.00,-53.00,-27.00,+13.00,+3.00,+51.00,+27.00,+13.00,+64.00,+81.00,-8.00,+9.00,+15.00
-5.00,-16.00,+0.00,+4.00,+38.00,+3.00,+22.00,+1.00,+2.00,+5.00,-10.00,-101.00,-65.00,-90.00,-58.00,-15.00
+14.00,+27.00,+7.00,+5.00,+9.00,+18.00,+19.00,+18.00,+8.00,+2.00,-3.00,+6.00,+59.00,+53.00,+34.00,+12.00
+13.00,+16.00,+3.00,+2.00,+43.00,+62.00,+4.00,+8.00,-11.00,-4.00,-3.00,+0.00,+51.00,+31.00,+3.00,+7.00
-1.00,+0.00,+5.00,+0.00,-33.00,-53.00,+10.00,+5.00,-10.00,-9.00,+7.00,+35.00,+13.00,+41.00,+32.00,+4.00
+11.00,-3.00,-4.00,-2.00,-13.00,-8.00,+13.00,-5.00,-5.00,-3.00,+0.00,+22.00,+68.00,+8.00,-19.00,-3.00
+4.00,-26.00,-6.00,-1.00,-52.00,-24.00,-4.00,+12.00,+10.00,+2.00,+3.00,+31.00,+50.00,+51.00,+13.00,+8.00
+7.00,+0.00,-7.00,-3.00,-16.00,+25.00,+17.00,+17.00,-2.00,-10.00,-13.00,-68.00,-101.00,-4.00,+21.00,+1.00
-45.00,+9.00,+7.00,+7.00,+31.00,-4.00,+5.00,-7.00,-18.00,-5.00,+0.00,-11.00,+7.00,+25.00,+9.00,-17.00
-4.00,-4.00,-2.00,-3.00,-7.00,-27.00,+8.00,+7.00,+0.00,+4.00,+8.00,+23.00,+34.00,+31.00,+17.00,+0.00
+1.00,-11.00,-5.00,-4.00,-4.00,+1.00,+9.00,-6.00,+2.00,+8.00,+5.00,-6.00,-22.00,-13.00,-9.00,+0.00
-11.00,-18.00,-12.00,-9.00,-59.00,-22.00,-41.00,-25.00,+10.00,+15.00,+17.00,+82.00,+99.00,+20.00,-32.00,+5.00
+20.00,+8.00,-2.00,-1.00,+35.00,+59.00,-7.00,-18.00,+20.00,+4.00,-7.00,-40.00,-43.00,-47.00,-14.00,-2.00
+11.00,+26.00,+3.00,-6.00,-54.00,-40.00,-20.00,+1.00,-17.00,-9.00,-4.00,+26.00,+37.00,+3.00,+41.00,+10.00
-2.00,+12.00,-3.00,-8.00,-25.00,+1.00,-48.00,-18.00,-12.00,-12.00,-17.00,-99.00,-128.00,-35.00,-53.00,-14.00
+12.00,+3.00,-2.00,+5.00,+73.00,-95.00,+9.00,+13.00,+24.00,+6.00,+6.00,+20.00,+60.00,-53.00,-16.00,+25.00
-13.00,-11.00,-5.00,+2.00,+22.00,+17.00,+6.00,+6.00,-2.00,+5.00,+2.00,+2.00,+21.00,-23.00,+10.00,-3.00
-5.00,+10.00,+5.00,-7.00,-100.00,+63.00,-55.00,-27.00,-19.00,-21.00,-11.00,-9.00,-2.00,-1.00,-48.00,-24.00
+12.00,+2.00,-1.00,+1.00,+53.00,-39.00,+11.00,+15.00,+21.00,+16.00,+14.00,+47.00,+29.00,-28.00,+48.00,+22.00
-10.00,-10.00,-2.00,-7.00,-92.00,-25.00,-37.00,+2.00,-2.00,+2.00,+2.00,+37.00,+60.00,+48.00,+22.00,+3.00
+3.00,-15.00,-3.00,+8.00,+67.00,+24.00,-7.00,+7.00,-11.00,-11.00,-8.00,-29.00,-32.00,-101.00,+6.00,-11.00
+7.00,+13.00,-2.00,-8.00,-31.00,-62.00,+26.00,+3.00,+10.00,+0.00,-7.00,-54.00,-120.00,+77.00,+15.00,+9.00
-27.00,+4.00,-1.00,-12.00,-120.00,-38.00,-34.00,+4.00,-7.00,-4.00,+1.00,+17.00,+29.00,-10.00,+38.00,+13.00
+8.00,+15.00,+0.00,+9.00,+105.00,+35.00,+29.00,+1.00,-13.00,-8.00,-5.00,-19.00,+12.00,+67.00,-8.00,-29.00
+13.00,+18.00,+10.00,+12.00,+23.00,-20.00,+61.00,+15.00,+9.00,+0.00,-7.00,-6.00,+12.00,+10.00,-41.00,-8.00
+42.00,-17.00,-16.00,-16.00,-123.00,-3.00,+14.00,-13.00,-4.00,+1.00,+2.00,-8.00,+5.00,+0.00,+35.00,+2.00
-40.00,-15.00,+3.00,+7.00,+48.00,+12.00,-17.00,-4.00,+1.00,+2.00,+9.00,+59.00,+49.00,+25.00,-8.00,-2.00
-5.00,-9.00,-1.00,+4.00,+43.00,-21.00,+9.00,+6.00,+2.00,-7.00,-17.00,-71.00,-116.00,-95.00,-23.00,-8.00
+0.00,-9.00,-5.00,-20.00,-114.00,+7.00,-53.00,-15.00,-10.00,-6.00,+1.00,+5.00,+9.00,+27.00,-12.00,-1.00
+7.00,+11.00,+2.00,+2.00,+17.00,-51.00,-45.00,-14.00,+2.00,+1.00,-1.00,+6.00,+3.00,-66.00,+7.00,+5.00
+28.00,+13.00,+3.00,+14.00,+127.00,+22.00,+42.00,+12.00,-5.00,+4.00,+11.00,+50.00,+46.00,+43.00,-10.00,-8.00
+4.00,-5.00,+1.00,-3.00,+0.00,+22.00,+1.00,+5.00,+6.00,+2.00,-4.00,+28.00,+27.00,-13.00,+5.00,+10.00
-1.00,-13.00,-9.00,+0.00,+5.00,-3.00,-11.00,-11.00,-12.00,-7.00,-9.00,-61.00,-11.00,-43.00,-18.00,-3.00
-26.00,-6.00,+3.00,+1.00,-32.00,+11.00,-11.00,-4.00,-2.00,-1.00,+2.00,+24.00,-7.00,+4.00,+34.00,+10.00
-17.00,-11.00,-4.00,+2.00,+2.00,+37.00,+24.00,-5.00,+15.00,+5.00,-6.00,-23.00,-32.00,-46.00,-41.00,-13.00
-7.00,-15.00,-2.00,+0.00,-7.00,-46.00,-45.00,+3.00,-9.00,+4.00,+3.00,+16.00,+59.00,-32.00,-33.00,-8.00
+12.00,+10.00,+0.00,+7.00,+89.00,+49.00,+4.00,+1.00,-1.00,-6.00,-12.00,-42.00,-125.00,+6.00,+14.00,-7.00
+3.00,-12.00,+8.00,+9.00,+34.00,-4.00,+7.00,+23.00,+0.00,-1.00,+0.00,+14.00,+34.00,+15.00,+27.00,+3.00
+8.00,+25.00,+1.00,-2.00,-25.00,+8.00,-5.00,+1.00,-16.00,-14.00,-9.00,-41.00,-27.00,+5.00,+32.00,-10.00
+11.00,-1.00,+1.00,+3.00,-37.00,-45.00,+0.00,-9.00,+4.00,+0.00,+3.00,+12.00,+59.00,-45.00,-14.00,+2.00
-10.00,+7.00,+2.00,-4.00,-23.00,+33.00,+69.00,+29.00,-11.00,-10.00,-9.00,-5.00,-6.00,-15.00,-7.00,+6.00
-22.00,-11.00,-4.00,-3.00,-50.00,-12.00,-22.00,-17.00,+8.00,+4.00,+3.00,-9.00,-39.00,-31.00,-27.00,-9.00
+13.00,-23.00,-8.00,-10.00,-5.00,+75.00,+13.00,-4.00,+6.00,+6.00,-3.00,-24.00,+16.00,+26.00,-16.00,-11.00
-14.00,+1.00,-1.00,-3.00,+42.00,-37.00,+10.00,+10.00,+3.00,+2.00,+1.00,-3.00,+20.00,-9.00,+23.00,+3.00
+10.00,+8.00,-4.00,-3.00,-12.00,-36.00,-40.00,-7.00,-6.00,+0.00,+10.00,+66.00,+46.00,+6.00,-28.00,-2.00
-10.00,+7.00,+3.00,-5.00,-22.00,-6.00,+6.00,+0.00,+0.00,-4.00,-4.00,-26.00,-29.00,+61.00,+15.00,+2.00
+32.00,-3.00,-4.00,-2.00,-5.00,+2.00,-5.00,-14.00,-7.00,-14.00,-9.00,-4.00,-27.00,-18.00,-6.00,+11.00
-14.00,-12.00,-6.00,-11.00,-35.00,-43.00,-25.00,-11.00,-2.00,+0.00,-4.00,-24.00,-42.00,-43.00,-16.00,-8.00
+0.00,+0.00,+6.00,+14.00,+72.00,+1.00,+2.00,-12.00,+3.00,+8.00,+5.00,+11.00,+8.00,+9.00,+17.00,+1.00
-24.00,-7.00,-8.00,-3.00,+16.00,+19.00,+41.00,+20.00,+4.00,+5.00,-2.00,-25.00,-28.00,-38.00,-38.00,-4.00
+5.00,+5.00,+0.00,-4.00,-25.00,-2.00,+16.00,-6.00,-7.00,-5.00,+0.00,+6.00,-13.00,-50.00,-11.00,-6.00
+1.00,-3.00,+0.00,-3.00,+0.00,+50.00,-18.00,-3.00,-15.00,-9.00,-4.00,+12.00,-3.00,+59.00,-4.00,-13.00
-6.00,-10.00,-4.00,-10.00,-95.00,-46.00,-41.00,-17.00,+6.00,-2.00,-4.00,-15.00,-46.00,-9.00,+19.00,+7.00
+12.00,+0.00,-3.00,+2.00,+40.00,+14.00,+10.00,+3.00,+10.00,+3.00,+3.00,-7.00,-23.00,-3.00,-7.00,+2.00
-3.00,+4.00,+5.00,+6.00,+17.00,+3.00,-23.00,+9.00,-4.00,-3.00,-3.00,-6.00,+0.00,+4.00,+18.00,+3.00
-5.00,-7.00,+0.00,+6.00,+43.00,+8.00,+9.00,-4.00,+5.00,+3.00,+0.00,-6.00,-51.00,-9.00,+6.00,+2.00
+3.00,+9.00,+2.00,+0.00,+1.00,-7.00,+27.00,+9.00,-2.00,+1.00,+3.00,+22.00,+81.00,+15.00,+9.00,-3.00
+3.00,+4.00,-3.00,-2.00,+21.00,-10.00,-5.00,+0.00,-10.00,-2.00,-3.00,+14.00,+15.00,+7.00,+37.00,-5.00
-9.00,-4.00,-2.00,-5.00,-49.00,-35.00,-18.00,+1.00,-13.00,-15.00,-11.00,-50.00,-56.00,-35.00,-33.00,-15.00
+1.00,-2.00,+2.00,+3.00,-14.00,+25.00,+21.00,-2.00,+9.00,-1.00,-7.00,-20.00,-39.00,+40.00,+21.00,-5.00
+2.00,-11.00,-2.00,+0.00,-22.00,-24.00,-71.00,-11.00,+11.00,+8.00,+6.00,-2.00,-8.00,+23.00,+1.00,+19.00
-5.00,-10.00,-1.00,+4.00,+65.00,+31.00,-11.00,-10.00,-11.00,-5.00,-3.00,+11.00,+26.00,-34.00,+2.00,-2.00
+2.00,+24.00,+11.00,+6.00,+22.00,-12.00,+21.00,+14.00,-16.00,-8.00,-2.00,+14.00,+12.00,+6.00,-2.00,-10.00
+4.00,-10.00,-6.00,-7.00,-39.00,-2.00,+3.00,-14.00,-5.00,-3.00,+1.00,+12.00,-20.00,-47.00,-38.00,-10.00
+14.00,+8.00,+2.00,+0.00,+7.00,+15.00,+17.00,+10.00,-8.00,-9.00,-9.00,-30.00,-33.00,-49.00,-33.00,-7.00
-5.00,-4.00,-2.00,-6.00,-54.00,+2.00,-39.00,-3.00,+20.00,+13.00,+7.00,+13.00,+14.00,+54.00,-32.00,-1.00
-12.00,-19.00,-6.00,-2.00,-40.00,-24.00,+18.00,-10.00,+3.00,+3.00,+0.00,+28.00,+61.00,+41.00,+14.00,-3.00
+12.00,+22.00,+6.00,+6.00,+89.00,+21.00,+5.00,+10.00,-15.00,-4.00,-1.00,-18.00,-21.00,-31.00,-7.00,-1.00
+9.00,+2.00,+5.00,+6.00,-8.00,+39.00,+2.00,+12.00,-7.00,-7.00,-5.00,-7.00,-22.00,-10.00,-4.00,-4.00
-5.00,-14.00,-7.00,-4.00,+28.00,-6.00,-17.00,-2.00,-22.00,-17.00,-11.00,-14.00,-10.00,-47.00,-18.00,-20.00
+26.00,+14.00,+4.00,+1.00,+33.00,+25.00,-6.00,-2.00,-5.00,-3.00,-2.00,+5.00,-23.00,+21.00,-5.00,-10.00
+9.00,+28.00,+6.00,+4.00,-20.00,+6.00,+20.00,+13.00,+6.00,+6.00,+1.00,+13.00,-20.00,-5.00,-15.00,-2.00
-32.00,-14.00,-6.00,-10.00,-30.00,-15.00,-23.00,-13.00,-4.00,-12.00,-14.00,-43.00,-62.00,-36.00,-43.00,-13.00
+12.00,+16.00,+3.00,+3.00,+11.00,+12.00,-5.00,+15.00,-1.00,+1.00,+1.00,-6.00,+14.00,-43.00,+7.00,-2.00
-6.00,-19.00,-2.00,+0.00,-25.00,+2.00,-14.00,-12.00,+5.00,+3.00,+0.00,+1.00,+13.00,-5.00,+13.00,+7.00
-10.00,-21.00,-8.00,-7.00,-59.00,-54.00,+7.00,-17.00,+0.00,+0.00,+4.00,+22.00,+14.00,+40.00,-3.00,-5.00
+25.00,+42.00,+16.00,+1.00,-26.00,+11.00,-19.00,-7.00,+5.00,+4.00,+1.00,-4.00,-20.00,+21.00,+18.00,+6.00
+9.00,+13.00,+5.00,+4.00,+14.00,+7.00,+28.00,+6.00,+17.00,+8.00,+9.00,+28.00,+50.00,+21.00,+5.00,+28.00
-9.00,+0.00,-2.00,+0.00,+38.00,+5.00,+8.00,+2.00,-10.00,+1.00,+4.00,+20.00,+40.00,-35.00,+6.00,+16.00
-7.00,-7.00,-4.00,-2.00,-12.00,-9.00,-6.00,-9.00,+3.00,-1.00,-4.00,-8.00,-50.00,+69.00,+36.00,+0.00
-7.00,-21.00,-12.00,-7.00,-14.00,-7.00,+32.00,+0.00,-10.00,-1.00,-1.00,-5.00,+15.00,-4.00,+30.00,-3.00
-36.00,-10.00,-8.00,-8.00,-13.00,-17.00,+17.00,+6.00,-10.00,-5.00,-2.00,-2.00,+26.00,+87.00,+2.00,-6.00
+37.00,+13.00,+6.00,+4.00,-10.00,-35.00,-5.00,+16.00,+8.00,-1.00,+1.00,+8.00,+27.00,+41.00,+30.00,+1.00
+2.00,-1.00,+1.00,-2.00,+11.00,+3.00,+56.00,+11.00,+14.00,+9.00,+5.00,-6.00,+4.00,-44.00,-12.00,+2.00
-7.00,+2.00,-2.00,-2.00,+27.00,+2.00,+35.00,-8.00,+12.00,+6.00,+3.00,+9.00,+14.00,+19.00,-13.00,+6.00
-13.00,-4.00,-1.00,+1.00,-4.00,+0.00,-28.00,-15.00,-19.00,-15.00,-4.00,+46.00,+96.00,-20.00,-6.00,-18.00
+6.00,+20.00,+4.00,+6.00,+20.00,+29.00,+30.00,+16.00,-10.00,-12.00,-18.00,-65.00,-87.00,-62.00,-14.00,-4.00
-4.00,-7.00,-4.00,-6.00,-40.00,+3.00,-63.00,-11.00,+20.00,+14.00,+5.00,+0.00,-7.00,+16.00,+29.00,+7.00
-7.00,-11.00,-5.00,+1.00,+10.00,+0.00,-1.00,-7.00,-4.00,-3.00,-2.00,-2.00,+23.00,+41.00,+34.00,+0.00
+32.00,+7.00,+2.00,+7.00,+32.00,-80.00,+18.00,+10.00,-3.00,+6.00,+5.00,+15.00,-23.00,-38.00,-80.00,-14.00
-51.00,-18.00,-10.00,-11.00,-40.00,+4.00,-3.00,-27.00,-5.00,+0.00,+5.00,+19.00,+61.00,-3.00,+15.00,-6.00
+19.00,+22.00,+10.00,+5.00,+35.00,+8.00,-12.00,+4.00,-10.00,-11.00,-7.00,-23.00,-19.00,-89.00,-27.00,-3.00
+1.00,+6.00,+1.00,+0.00,-6.00,-14.00,-24.00,+7.00,-10.00,-5.00,-1.00,+5.00,+17.00,+25.00,+15.00,-2.00
+3.00,-3.00,-4.00,-7.00,-67.00,-20.00,-15.00,-11.00,+14.00,+0.00,-6.00,-3.00,-20.00,+42.00,+24.00,+4.00
-6.00,-19.00,-10.00,-1.00,+46.00,+3.00,-39.00,-11.00,+2.00,-3.00,-4.00,-5.00,-18.00,-7.00,-10.00,-10.00
+11.00,-9.00,-2.00,+1.00,+8.00,+0.00,-21.00,-3.00,-6.00,-5.00,-6.00,-28.00,-10.00,+35.00,+13.00,+3.00
-5.00,-12.00,-5.00,-5.00,+3.00,+10.00,-2.00,-6.00,-3.00,+6.00,+8.00,+23.00,+0.00,-9.00,-25.00,-1.00
-5.00,+4.00,+4.00,+2.00,-18.00,+20.00,-3.00,-1.00,-12.00,-11.00,-8.00,-34.00,-30.00,-49.00,-9.00,-13.00
+3.00,+8.00,+3.00,-2.00,-36.00,-24.00,-26.00,+7.00,+18.00,+10.00,+1.00,-7.00,-23.00,-21.00,-11.00,+9.00
-8.00,-6.00,-3.00,-5.00,-1.00,+12.00,+17.00,-9.00,-10.00,-3.00,+0.00,+18.00,+43.00,+54.00,-19.00,-11.00
-2.00,-5.00,+0.00,+3.00,-16.00,-8.00,+13.00,+1.00,-3.00,-4.00,+0.00,+15.00,+30.00,-1.00,-5.00,-3.00
+19.00,+10.00,+2.00,+0.00,+15.00,+16.00,-27.00,+3.00,-10.00,-5.00,-3.00,-8.00,-17.00,-28.00,-47.00,-9.00
-17.00,-10.00,-2.00,-1.00,-5.00,+8.00,+15.00,+0.00,+23.00,+12.00,+7.00,-21.00,-77.00,-17.00,+21.00,+9.00
+1.00,+1.00,-7.00,-4.00,-22.00,-14.00,+3.00,+8.00,-4.00,-4.00,-3.00,-11.00,+3.00,+18.00,-6.00,-3.00
-2.00,-2.00,-2.00,-2.00,+16.00,-6.00,-34.00,-10.00,+12.00,+11.00,+8.00,+13.00,+41.00,-50.00,+8.00,+7.00
-1.00,+5.00,+8.00,+7.00,+19.00,+5.00,+7.00,-13.00,+3.00,+4.00,-1.00,-11.00,-30.00,-12.00,-14.00,+8.00
-1.00,+4.00,-1.00,-3.00,-10.00,+1.00,+27.00,+8.00,-12.00,-7.00,+1.00,+8.00,+16.00,+39.00,-10.00,-7.00
-11.00,-14.00,-7.00,-9.00,-53.00,+0.00,-4.00,-2.00,-6.00,-7.00,+0.00,+9.00,+29.00,-10.00,+0.00,-2.00
-5.00,-8.00,-5.00,+2.00,+50.00,-19.00,+11.00,-8.00,+7.00,+5.00,+5.00,+13.00,+6.00,-69.00,-42.00,-8.00
-8.00,-8.00,-6.00,-6.00,-23.00,-14.00,-2.00,-9.00,+7.00,+4.00,+5.00,+2.00,+7.00,+21.00,+48.00,+18.00
+3.00,+7.00,+3.00,+1.00,-3.00,+9.00,+8.00,-5.00,-32.00,-17.00,-11.00,-22.00,-23.00,+69.00,-25.00,-18.00
-13.00,-9.00,-5.00,-2.00,+10.00,+7.00,+5.00,-7.00,+0.00,-2.00,-4.00,-2.00,-3.00,-18.00,+0.00,-10.00
-1.00,+0.00,-3.00,-5.00,-32.00,-4.00,-28.00,-5.00,+20.00,+8.00,+5.00,+13.00,+14.00,+39.00,+15.00,+13.00
-4.00,-6.00,-1.00,+0.00,+13.00,-1.00,+6.00,-8.00,+0.00,-1.00,-5.00,-9.00,-32.00,-8.00,+0.00,-2.00
-4.00,-3.00,-2.00,+3.00,+27.00,+6.00,-11.00,-4.00,+3.00,+4.00,+3.00,+15.00,+12.00,-38.00,+4.00,+7.00
-6.00,-17.00,-1.00,+0.00,-3.00,-12.00,-13.00,+2.00,-5.00,-5.00,-2.00,+2.00,+24.00,+37.00,+8.00,+4.00
+7.00,+18.00,+5.00,-3.00,-25.00,+1.00,+12.00,+2.00,-11.00,-7.00,+0.00,-7.00,-23.00,+23.00,+2.00,-1.00
-8.00,-9.00,-7.00,-4.00,+5.00,+6.00,-28.00,+1.00,+0.00,+1.00,-2.00,-2.00,-9.00,-1.00,+6.00,-5.00
-4.00,-8.00,-5.00,-3.00,-9.00,-10.00,+8.00,+3.00,-2.00,+1.00,+2.00,+14.00,+47.00,+20.00,+15.00,+2.00
-1.00,-2.00,-5.00,+0.00,+25.00,-12.00,+64.00,+3.00,+10.00,+3.00,+3.00,+13.00,+3.00,-70.00,+3.00,+11.00
-2.00,-2.00,+1.00,+6.00,+29.00,+7.00,-14.00,-1.00,-5.00,-3.00,-4.00,-5.00,+7.00,+30.00,+28.00,-3.00
+26.00,+38.00,+9.00,+0.00,-9.00,+19.00,+46.00,+21.00,+1.00,+1.00,-1.00,-5.00,+9.00,+6.00,+13.00,+2.00
-12.00,-18.00,-6.00,-6.00,-3.00,+9.00,+4.00,+0.00,+6.00,+4.00,+3.00,+11.00,+7.00,+6.00,-4.00,+5.00
-4.00,+5.00,+3.00,+3.00,+15.00,+12.00,+2.00,-4.00,-10.00,-7.00,-1.00,-3.00,-2.00,-10.00,-16.00,+1.00
-1.00,-4.00,-2.00,+4.00,+23.00,+28.00,+25.00,+2.00,-2.00,-3.00,-8.00,-4.00,-15.00,-6.00,+5.00,-14.00
-8.00,-8.00,-4.00,-3.00,+2.00,+0.00,+7.00,-7.00,-1.00,+1.00,+2.00,+8.00,-1.00,-32.00,-8.00,-2.00
-6.00,-5.00,-2.00,-1.00,-13.00,-1.00,-1.00,-12.00,+3.00,-1.00,-4.00,-19.00,-32.00,+30.00,+9.00,-1.00
-8.00,-8.00,-2.00,-3.00,-13.00,-9.00,-1.00,+1.00,+0.00,-4.00,-5.00,-11.00,-14.00,-6.00,+0.00,+2.00
+7.00,+6.00,+3.00,+1.00,-4.00,+4.00,-13.00,+0.00,-23.00,-16.00,-8.00,-25.00,-41.00,-25.00,-13.00,-9.00
+3.00,+0.00,+0.00,-1.00,-56.00,+8.00,-17.00,+2.00,+15.00,+8.00,+4.00,+10.00,+31.00,+22.00,+8.00,+2.00
+14.00,+8.00,-1.00,+2.00,+51.00,+26.00,+31.00,+4.00,+2.00,+5.00,+2.00,+6.00,+3.00,-21.00,-11.00,+0.00
-16.00,-22.00,-9.00,-4.00,-13.00,+15.00,-21.00,-9.00,+19.00,+10.00,+7.00,+4.00,+28.00,+8.00,+12.00,+13.00
-9.00,-8.00,-5.00,-2.00,-1.00,-13.00,-8.00,-6.00,+6.00,+9.00,-1.00,-11.00,-13.00,-19.00,+2.00,+7.00
+10.00,+15.00,+4.00,+4.00,+26.00,-6.00,+5.00,+6.00,-5.00,-4.00,-1.00,+2.00,+1.00,-34.00,-4.00,-3.00
+4.00,+0.00,-1.00,-5.00,-40.00,-41.00,-21.00,-3.00,-14.00,-12.00,+1.00,+15.00,+17.00,+29.00,-8.00,-3.00
+12.00,+42.00,+13.00,+8.00,+12.00,+14.00,-9.00,+4.00,+4.00,+0.00,-8.00,-22.00,-26.00,+10.00,-1.00,-11.00
-3.00,-14.00,-7.00,-4.00,+2.00,+7.00,+28.00,+3.00,-3.00,-10.00,-1.00,+5.00,+6.00,+12.00,+2.00,+5.00
-13.00,-12.00,-7.00,-2.00,+7.00,+0.00,-10.00,-8.00,+26.00,+11.00,-1.00,-2.00,-3.00,+5.00,+5.00,+13.00
-11.00,-26.00,-6.00,+0.00,-4.00,-1.00,-6.00,-7.00,-3.00,+8.00,+4.00,+20.00,+50.00,+5.00,+1.00,+2.00
-3.00,-12.00,-4.00,+0.00,+9.00,-2.00,-9.00,-5.00,-9.00,-9.00,-6.00,-19.00,-29.00,-14.00,-2.00,-3.00
+4.00,+8.00,-1.00,-3.00,-19.00,-11.00,-1.00,+9.00,+13.00,+4.00,+2.00,+7.00,-4.00,+2.00,-4.00,+0.00
+3.00,+11.00,+2.00,-5.00,-70.00,+2.00,-4.00,+1.00,-30.00,-26.00,-9.00,-16.00,-28.00,-9.00,-6.00,-16.00
+5.00,+15.00,+7.00,+9.00,+96.00,+10.00,+3.00,+3.00,+0.00,-12.00,-4.00,-3.00,-4.00,-2.00,-4.00,+5.00
-5.00,-14.00,-6.00,-4.00,-10.00,+9.00,-3.00,-4.00,+13.00,+23.00,+11.00,+34.00,+73.00,+15.00,+9.00,+7.00
+1.00,-3.00,+0.00,+1.00,+5.00,-3.00,+0.00,-3.00,+6.00,+13.00,+12.00,+48.00,+42.00,+23.00,+4.00,+11.00
-12.00,-17.00,-9.00,-2.00,+27.00,+9.00,+5.00,-8.00,-4.00,-2.00,-3.00,-21.00,-48.00,+5.00,+4.00,+1.00
-5.00,+6.00,+2.00,-4.00,-69.00,-7.00,-9.00,-3.00,-5.00,-5.00,-4.00,-11.00,-10.00,-15.00,-2.00,+2.00
-9.00,+2.00,-5.00,-4.00,-5.00,-8.00,+1.00,-7.00,-20.00,-9.00,-5.00,-14.00,-13.00,-3.00,-5.00,-14.00
-6.00,-8.00,+1.00,+11.00,+91.00,+15.00,+12.00,+8.00,+11.00,-1.00,-2.00,-17.00,-49.00,-7.00,+0.00,+1.00
-5.00,-8.00,-6.00,+0.00,+18.00,-6.00,+2.00,+4.00,-3.00,+6.00,+2.00,+0.00,+4.00,+3.00,+0.00,-3.00
-4.00,-11.00,-6.00,-8.00,-23.00,-9.00,-11.00,-4.00,+11.00,+12.00,+12.00,+45.00,+48.00,+8.00,+3.00,+0.00
+4.00,+3.00,+5.00,+1.00,-14.00,-22.00,-1.00,+4.00,-1.00,-1.00,+2.00,+0.00,+1.00,+3.00,+5.00,+6.00
+4.00,-2.00,-10.00,-13.00,-49.00,-1.00,-8.00,-4.00,-10.00,-6.00,-1.00,-13.00,+11.00,+12.00,-2.00,-1.00
-5.00,-2.00,-1.00,-3.00,-29.00,-2.00,-1.00,-10.00,-3.00,-6.00,-5.00,-7.00,+19.00,-2.00,-2.00,+2.00
+3.00,+4.00,-1.00,+5.00,+80.00,+18.00,+9.00,+7.00,-19.00,-11.00,-10.00,-25.00,-49.00,-9.00,-8.00,-11.00
+1.00,+1.00,-1.00,-2.00,-15.00,+28.00,+0.00,-1.00,+4.00,+0.00,+1.00,+15.00,+13.00,+11.00,+1.00,-2.00
+5.00,-4.00,+0.00,+0.00,+8.00,+8.00,+4.00,+2.00,+12.00,+4.00,+1.00,-2.00,+13.00,+5.00,+2.00,+3.00
-2.00,+0.00,+2.00,-1.00,+4.00,-6.00,+3.00,-5.00,+0.00,+3.00,+5.00,+11.00,+12.00,+6.00,+3.00,-2.00
-7.00,-9.00,-11.00,-10.00,-43.00,+0.00,-8.00,+0.00,+3.00,+4.00,-2.00,+1.00,+3.00,-4.00,-1.00,-4.00
-2.00,-6.00,+1.00,+3.00,+9.00,+14.00,+1.00,+3.00,-12.00,-5.00,-6.00,-1.00,-13.00,-3.00,-3.00,-14.00
+2.00,+8.00,+4.00,+1.00,+7.00,-5.00,-2.00,-1.00,-12.00,-4.00,-1.00,-11.00,-23.00,-9.00,-8.00,-10.00
-6.00,-5.00,-3.00,+2.00,+24.00,-3.00,+1.00,-7.00,-1.00,-9.00,-1.00,+2.00,-4.00,-3.00,-2.00,+2.00
+2.00,-4.00,+0.00,+1.00,-31.00,+4.00,-3.00,+0.00,-4.00,-4.00,-4.00,+4.00,-2.00,-4.00,-4.00,+2.00
+1.00,+15.00,+3.00,-1.00,+8.00,-4.00,-3.00,-7.00,+14.00,+6.00,-1.00,-17.00,-11.00,-10.00,-6.00,+7.00
+4.00,-4.00,-7.00,-2.00,-13.00,+2.00,+2.00,+3.00,-1.00,-1.00,-16.00,-22.00,-20.00,-2.00,-4.00,-4.00
+6.00,+2.00,-3.00,-2.00,-3.00,-13.00,+1.00,+8.00,-6.00,+10.00,+0.00,+8.00,+12.00,+5.00,-1.00,-5.00
-4.00,-3.00,+6.00,+4.00,-19.00,-14.00,-4.00,-9.00,+14.00,+22.00,+15.00,-1.00,-5.00,-2.00,-3.00,+0.00
+14.00,+29.00,+4.00,+4.00,+11.00,+13.00,+8.00,+8.00,-1.00,-8.00,-9.00,+11.00,+7.00,+5.00,+2.00,+3.00
+10.00,+17.00,+9.00,+1.00,-2.00,+3.00,+0.00,+5.00,-45.00,-35.00,+3.00,+15.00,+11.00,+2.00,-4.00,-11.00
+6.00,+12.00,+5.00,+1.00,+8.00,+1.00,+1.00,+2.00,+13.00,+4.00,+5.00,+17.00,+42.00,+16.00,+4.00,+11.00
-22.00,-59.00,-17.00,-4.00,-17.00,+9.00,-6.00,-8.00,+4.00,-4.00,-12.00,-28.00,-33.00,-10.00,-2.00,+2.00
+7.00,+39.00,+6.00,-3.00,-13.00,-38.00,-8.00,-7.00,+9.00,+13.00,+10.00,-1.00,-11.00,-5.00,-3.00,+0.00
-6.00,+0.00,+3.00,+3.00,+20.00,-10.00,+3.00,+0.00,-10.00,-9.00,+1.00,+6.00,+16.00,+3.00,-1.00,-4.00
+14.00,+14.00,+2.00,+1.00,+48.00,+12.00,+8.00,+5.00,-9.00,-7.00,+0.00,+2.00,-5.00,-2.00,+0.00,-4.00
+2.00,+12.00,+3.00,+1.00,-3.00,+3.00,+1.00,-1.00,+2.00,+0.00,+0.00,+7.00,-13.00,-1.00,+0.00,-3.00
-18.00,-54.00,-18.00,-8.00,-25.00,-10.00,-5.00,-6.00,-4.00,+2.00,+3.00,-10.00,+17.00,-1.00,+2.00,+9.00
-10.00,-9.00,-5.00,-8.00,-33.00,-9.00,-7.00,-5.00,+1.00,+1.00,+10.00,+13.00,+13.00,+3.00,-3.00,-10.00
-10.00,-13.00,-4.00,+1.00,-21.00,-23.00,-7.00,-4.00,+4.00,+2.00,-20.00,-11.00,-8.00,-8.00,-1.00,-1.00
+2.00,+0.00,+1.00,+2.00,+18.00,+3.00,+1.00,+2.00,+0.00,-10.00,-10.00,+0.00,-25.00,-5.00,-2.00,-9.00
-1.00,-2.00,-4.00,-1.00,+2.00,+0.00,-2.00,-2.00,-4.00,-13.00,-8.00,+10.00,+15.00,+0.00,-2.00,-11.00
+1.00,-5.00,-6.00,-2.00,-3.00,-3.00,-3.00,-3.00,-5.00,-4.00,-11.00,-54.00,-73.00,-28.00,-7.00,-4.00
+0.00,-2.00,+8.00,+3.00,-9.00,+7.00,-1.00,-3.00,+1.00,+3.00,+9.00,-3.00,-8.00,-4.00,-3.00,-7.00
+12.00,+22.00,+5.00,-1.00,-4.00,-1.00,+2.00,+9.00,-4.00,+3.00,+3.00,-3.00,+11.00,+2.00,-2.00,-10.00
+5.00,-7.00,+2.00,+2.00,-21.00,-23.00,+0.00,+4.00,+6.00,+7.00,-1.00,-1.00,-18.00,-2.00,-2.00,-2.00
-1.00,+9.00,+7.00,+2.00,+13.00,+7.00,-1.00,-1.00,-17.00,+0.00,+4.00,+17.00,+29.00,+9.00,+0.00,-8.00
-6.00,-9.00,-8.00,-1.00,-4.00,+3.00,-3.00,-6.00,+19.00,-5.00,-2.00,+3.00,+9.00,+2.00,+0.00,+0.00
+3.00,+1.00,-9.00,-4.00,+3.00,-3.00,+1.00,+2.00,-11.00,-4.00,-3.00,+8.00,+19.00,+6.00,+1.00,-4.00
+2.00,-6.00,-4.00,-2.00,+2.00,+8.00,-2.00,+2.00,-14.00,-16.00,-13.00,-10.00,-17.00,-7.00,-1.00,-3.00
-9.00,-13.00,-12.00,-5.00,-13.00,-7.00,-7.00,-5.00,+21.00,+21.00,+7.00,+4.00,+6.00,+4.00,+1.00,+7.00
+17.00,+32.00,+9.00,-2.00,-50.00,-7.00,-1.00,+5.00,-8.00,-18.00,-28.00,-25.00,-32.00,-9.00,-3.00,-2.00
+1.00,-5.00,+13.00,+8.00,+63.00,-1.00,+0.00,-1.00,+3.00,+6.00,+0.00,+11.00,+19.00,+2.00,+0.00,+2.00
-4.00,+10.00,+6.00,-1.00,+7.00,+14.00,+0.00,-6.00,-12.00,-7.00,+14.00,+15.00,+2.00,-1.00,+0.00,-1.00
+3.00,+11.00,-3.00,+3.00,-7.00,+2.00,+0.00,-1.00,+4.00,+1.00,-16.00,-28.00,-44.00,-17.00,-5.00,-2.00
-3.00,+2.00,+12.00,-1.00,+5.00,+2.00,-1.00,-1.00,-6.00,-2.00,+5.00,+3.00,-3.00,-2.00,+1.00,+1.00
+3.00,+27.00,+2.00,+0.00,-28.00,+5.00,+0.00,+0.00,+0.00,+1.00,+6.00,-4.00,+2.00,-1.00,-1.00,+3.00
+0.00,-32.00,-23.00,-3.00,+20.00,-2.00,+3.00,+3.00,-6.00,-2.00,+1.00,+6.00,-8.00,-1.00,+0.00,+1.00
-7.00,-15.00,-2.00,-1.00,+10.00,-8.00,-2.00,+0.00,-6.00,-13.00,-5.00,+2.00,+8.00,+0.00,-1.00,+4.00
-13.00,-27.00,-15.00,-3.00,+1.00,-5.00,+2.00,+2.00,+17.00,+10.00,+6.00,+3.00,-3.00,+3.00,+0.00,+4.00
-6.00,-2.00,-8.00,-6.00,-13.00,-2.00,-4.00,-8.00,-3.00,+1.00,-2.00,-5.00,-4.00,+0.00,-1.00,+2.00
+3.00,+5.00,+20.00,+6.00,+0.00,-3.00,-1.00,+1.00,-2.00,+9.00,+11.00,+7.00,-4.00,+2.00,+0.00,+4.00
-9.00,-20.00,-14.00,-7.00,-18.00,+2.00,-4.00,-7.00,+4.00,+3.00,-7.00,+0.00,+6.00,+3.00,-1.00,-4.00
-2.00,-12.00,-4.00,-4.00,+17.00,+3.00,+2.00,+3.00,-4.00,-7.00,+8.00,+2.00,-9.00,-2.00,-2.00,-7.00
+4.00,+15.00,-1.00,-4.00,-12.00,+8.00,-1.00,+1.00,-4.00,-7.00,-18.00,+0.00,+24.00,+12.00,+3.00,+3.00
+5.00,+6.00,+3.00,+3.00,+8.00,-13.00,+2.00,+4.00,+7.00,+7.00,+4.00,+20.00,+36.00,+3.00,+2.00,+2.00
-4.00,+2.00,+6.00,+3.00,-3.00,+1.00,-2.00,-3.00,+11.00,+14.00,+3.00,-14.00,-24.00,-9.00,-2.00,+6.00
-11.00,-14.00,-2.00,-4.00,-17.00,-1.00,-5.00,-6.00,+3.00,-11.00,-10.00,+1.00,+11.00,-4.00,-4.00,-6.00
-9.00,-12.00,-5.00,-3.00,-8.00,-17.00,-2.00,-7.00,-5.00,+22.00,+22.00,-6.00,-9.00,-6.00,-4.00,-7.00
+12.00,+23.00,-11.00,+2.00,+72.00,+12.00,+10.00,+10.00,-3.00,-22.00,-15.00,-5.00,-1.00,+0.00,+2.00,+6.00
-6.00,-26.00,+7.00,-2.00,+4.00,-4.00,+0.00,-2.00,-6.00,-3.00,+1.00,+16.00,+19.00,+7.00,+3.00,+0.00
-3.00,+15.00,-8.00,-5.00,+0.00,-5.00,-2.00,-5.00,-12.00,-13.00,-19.00,-7.00,+3.00,-1.00,-2.00,-10.00
+11.00,+14.00,+18.00,+9.00,+4.00,-7.00,-3.00,+2.00,+15.00,-2.00,+4.00,+5.00,-1.00,-4.00,-2.00,+1.00
+5.00,+13.00,+8.00,+1.00,-20.00,+6.00,-1.00,+2.00,-4.00,+23.00,+8.00,-14.00,-22.00,-5.00,-3.00,-5.00
+13.00,+10.00,-16.00,-7.00,-12.00,-7.00,+2.00,+7.00,+7.00,-16.00,-1.00,+9.00,+22.00,+5.00,+2.00,+8.00
-3.00,-7.00,-8.00,-8.00,+11.00,+4.00,-4.00,-5.00,-11.00,+11.00,+4.00,-1.00,-12.00,-2.00,-1.00,-3.00
+3.00,+20.00,+7.00,+0.00,-16.00,-4.00,+0.00,+0.00,+9.00,+5.00,+12.00,+15.00,+14.00,+1.00,-1.00,-1.00
-19.00,-48.00,-20.00,-3.00,-11.00,+7.00,-5.00,-8.00,-1.00,-5.00,-10.00,-4.00,+15.00,+9.00,+2.00,+1.00
-7.00,+10.00,+16.00,+4.00,+1.00,+0.00,-1.00,-5.00,-9.00,-10.00,+1.00,+7.00,-20.00,-3.00,+0.00,-6.00
-9.00,-25.00,-15.00,-2.00,-3.00,+10.00,-4.00,-4.00,-3.00,+14.00,+8.00,+0.00,+16.00,+0.00,+1.00,+9.00
-3.00,-7.00,-2.00,-3.00,-20.00,-30.00,-7.00,-2.00,+1.00,+4.00,-3.00,-20.00,-32.00,-15.00,-2.00,+0.00
+4.00,+20.00,+17.00,+1.00,+8.00,+6.00,+4.00,+5.00,-11.00,-9.00,+1.00,-16.00,-31.00,-6.00,-5.00,-7.00
+0.00,-4.00,-16.00,-4.00,+11.00,+2.00,-1.00,+2.00,+4.00,+1.00,-6.00,+9.00,+14.00,+2.00,-3.00,-10.00
+1.00,+3.00,+8.00,+5.00,+31.00,+2.00,+5.00,+5.00,-22.00,-8.00,+4.00,+1.00,-11.00,+0.00,+1.00,+1.00
-4.00,-7.00,-11.00,-3.00,+2.00,+8.00,-2.00,-4.00,-22.00,-20.00,-6.00,+2.00,+11.00,+0.00,+1.00,-2.00
-9.00,-12.00,-1.00,-4.00,-13.00,-3.00,-8.00,-8.00,+16.00,+5.00,+0.00,-1.00,-11.00,-4.00,+0.00,-2.00
-7.00,-21.00,-3.00,-2.00,-14.00,-10.00,-5.00,-5.00,+0.00,+1.00,-1.00,-7.00,+1.00,-3.00,+0.00,+3.00
+14.00,+13.00,+5.00,+6.00,-3.00,-8.00,+3.00,+4.00,+5.00,+2.00,-1.00,-6.00,-10.00,-5.00,-4.00,-4.00
+0.00,+22.00,+23.00,+5.00,+7.00,+13.00,+0.00,-2.00,-21.00,-9.00,-14.00,-9.00,-4.00,-1.00,-3.00,-6.00
-3.00,-18.00,-16.00,-4.00,-11.00,-3.00,+3.00,+4.00,+2.00,-8.00,-2.00,-1.00,-6.00,-3.00,-4.00,-14.00
+1.00,+0.00,-16.00,-6.00,-7.00,+3.00,+3.00,+3.00,+9.00,-4.00,-12.00,-9.00,+3.00,-1.00,-6.00,-4.00
-5.00,-10.00,+6.00,-4.00,-5.00,+2.00,-2.00,-5.00,-4.00,+12.00,+29.00,+53.00,+73.00,+20.00,+10.00,+16.00
-7.00,-14.00,-15.00,-2.00,+0.00,+0.00,-2.00,-4.00,-1.00,-11.00,-10.00,-49.00,-61.00,-14.00,-8.00,-3.00
-3.00,-23.00,+21.00,+5.00,-4.00,+4.00,-2.00,-3.00,-9.00,+2.00,-5.00,-5.00,+31.00,+4.00,-4.00,-8.00
+26.00,+35.00,-3.00,-4.00,-22.00,-14.00,-3.00,+6.00,-5.00,+11.00,+7.00,+1.00,+5.00,+11.00,+5.00,-2.00
+10.00,+16.00,-15.00,+0.00,+19.00,+15.00,+12.00,+11.00,+9.00,+0.00,-7.00,-12.00,-25.00,-17.00,-10.00,-1.00
+0.00,+2.00,-7.00,-9.00,+7.00,+13.00,+5.00,+3.00,-3.00,-17.00,+2.00,+17.00,+11.00,-2.00,-2.00,-2.00
-2.00,+3.00,+17.00,+6.00,+0.00,+15.00,+0.00,-4.00,+4.00,+9.00,+6.00,-25.00,-41.00,-41.00,-9.00,+2.00
-6.00,+15.00,+44.00,+18.00,+41.00,+1.00,-7.00,-8.00,+12.00,+11.00,-4.00,-4.00,+11.00,+39.00,+3.00,+1.00
+11.00,+8.00,-3.00,-1.00,-27.00,+5.00,+1.00,+8.00,+1.00,-7.00,-13.00,-11.00,-8.00,+4.00,+2.00,-1.00
-3.00,-18.00,-38.00,-12.00,+11.00,-19.00,+2.00,-2.00,+1.00,-3.00,+6.00,+10.00,+11.00,+4.00,+1.00,-3.00
-8.00,+1.00,-3.00,-8.00,-9.00,+16.00,-5.00,-8.00,+9.00,+3.00,-6.00,+0.00,-9.00,+1.00,+1.00,+5.00
-17.00,-18.00,+32.00,+8.00,-15.00,-6.00,-4.00,-5.00,-15.00,-1.00,+2.00,+13.00,+9.00,-10.00,+2.00,+0.00
+10.00,+14.00,-41.00,-17.00,+2.00,-2.00,+1.00,+2.00,+11.00,+3.00,+1.00,-9.00,-16.00,-5.00,+1.00,+4.00
-2.00,+8.00,+18.00,+8.00,-8.00,-7.00,-6.00,-4.00,-2.00,-5.00,-9.00,+15.00,+26.00,+11.00,+4.00,+1.00
+20.00,+26.00,-4.00,+0.00,-9.00,+1.00,+3.00,+6.00,+0.00,-9.00,-10.00,-9.00,-7.00,+2.00,-1.00,-4.00
+11.00,+2.00,-28.00,-11.00,-6.00,-3.00,+1.00,+4.00,+12.00,+8.00,+2.00,+3.00,+4.00,-8.00,-1.00,-3.00
-5.00,+5.00,+23.00,+2.00,-22.00,-35.00,-9.00,-6.00,+0.00,+0.00,+4.00,-3.00,-3.00,+7.00,-1.00,-9.00
+5.00,-1.00,-10.00,-1.00,+26.00,+46.00,+6.00,+4.00,-2.00,+3.00,+0.00,+6.00,+15.00,+3.00,-3.00,-10.00
-7.00,+15.00,+21.00,+6.00,-8.00,-17.00,-4.00,-6.00,-4.00,-7.00,-3.00,+2.00,+3.00,+5.00,+1.00,+5.00
-5.00,-3.00,+15.00,+7.00,+0.00,+20.00,+3.00,-1.00,+0.00,-2.00,+0.00,+6.00,-8.00,-10.00,-4.00,-4.00
-16.00,-30.00,-3.00,+0.00,+15.00,-5.00,-5.00,-8.00,-16.00,+1.00,+6.00,-10.00,-17.00,+0.00,-2.00,-8.00
-5.00,-19.00,-9.00,-8.00,-13.00,-1.00,-3.00,-2.00,+2.00,-13.00,-4.00,-3.00,-7.00,-2.00,+0.00,+5.00
+29.00,+37.00,+4.00,+5.00,+9.00,+6.00,+7.00,+14.00,-3.00,-2.00,-8.00,-3.00,-12.00,+0.00,-2.00,-7.00
+1.00,+2.00,-10.00,-10.00,-36.00,-10.00,-5.00,+2.00,+7.00,+7.00,-2.00,-4.00,-14.00,-6.00,-1.00,+5.00
-4.00,-2.00,-2.00,+1.00,+39.00,+28.00,+4.00,-3.00,-22.00,-5.00,+2.00,+7.00,+16.00,+1.00,-2.00,-1.00
-16.00,-24.00,+6.00,+3.00,-5.00,-16.00,-2.00,-4.00,+7.00,-7.00,-5.00,-3.00,+8.00,+0.00,+0.00,+6.00
+1.00,+8.00,+5.00,-1.00,+5.00,-3.00,-2.00,+0.00,+13.00,+9.00,+9.00,+2.00,+2.00,+3.00,+4.00,+10.00
+1.00,-28.00,-29.00,-9.00,-17.00,-9.00,+4.00,+5.00,-2.00,-18.00,-4.00,+9.00,+20.00,-4.00,-1.00,+3.00
+18.00,+58.00,+26.00,+7.00,-4.00,-3.00,-5.00,-1.00,-2.00,+7.00,-8.00,-16.00,-26.00,-6.00,+0.00,+3.00
+4.00,+25.00,+23.00,+9.00,-6.00,-2.00,+2.00,+2.00,-7.00,+0.00,+3.00,-3.00,-8.00,+0.00,+0.00,+1.00
-21.00,-54.00,-47.00,-15.00,+2.00,-2.00,-6.00,-7.00,+5.00,-2.00,+2.00,+4.00,+2.00,+0.00,+0.00,+5.00
+0.00,+13.00,-4.00,+2.00,+6.00,+1.00,+0.00,+3.00,+8.00,+12.00,+7.00,+7.00,+4.00,+2.00,+0.00,-1.00
-4.00,-23.00,+0.00,+3.00,-3.00,+3.00,+2.00,+3.00,-1.00,-7.00,-9.00,-10.00,-5.00,-2.00,-3.00,-6.00
-3.00,-8.00,-11.00,-4.00,+2.00,-2.00,-1.00,-2.00,+6.00,+16.00,+5.00,+8.00,-3.00,-6.00,-3.00,+2.00
-12.00,+6.00,+4.00,-4.00,-16.00,-3.00,-3.00,-6.00,-25.00,-17.00,-10.00,-16.00,-15.00,-12.00,-8.00,-13.00
-6.00,-2.00,+3.00,+1.00,-3.00,-28.00,-5.00,-7.00,+11.00,-1.00,+1.00,-18.00,-30.00,-11.00,-4.00,+3.00
-4.00,-4.00,-7.00,-3.00,-1.00,+6.00,-1.00,-2.00,+6.00,-2.00,+3.00,+3.00,-8.00,-1.00,-1.00,+3.00
-8.00,-21.00,+3.00,+2.00,+5.00,-6.00,+2.00,+2.00,+7.00,+8.00,-2.00,-5.00,-1.00,-6.00,+2.00,+2.00
+17.00,+26.00,+0.00,+4.00,+28.00,+17.00,+2.00,+5.00,-8.00,-2.00,+6.00,+6.00,+12.00,+3.00,+6.00,-1.00
+22.00,+49.00,+14.00,+2.00,+8.00,+0.00,+4.00,+5.00,-6.00,+0.00,-5.00,+2.00,+12.00,+4.00,+4.00,+0.00
-6.00,-15.00,+3.00,+2.00,-2.00,-2.00,-3.00,-1.00,-19.00,-6.00,+1.00,-2.00,+2.00,+1.00,+2.00,-1.00
+22.00,+29.00,+7.00,+0.00,-19.00,-13.00,+0.00,+9.00,+12.00,+6.00,-4.00,+5.00,+8.00,+4.00,+4.00,+4.00
-23.00,-36.00,-13.00,-6.00,-11.00,-18.00,-7.00,-10.00,-23.00,-18.00,-2.00,-1.00,-9.00,+0.00,+1.00,-5.00
-21.00,-22.00,-4.00,+2.00,+16.00,+10.00,+0.00,-7.00,+13.00,+8.00,-3.00,-7.00,-9.00,-4.00,+2.00,+6.00
+0.00,+7.00,+7.00,+4.00,-16.00,-12.00,-4.00,-2.00,+13.00,+3.00,+2.00,+6.00,+9.00,+1.00,+2.00,+5.00
+0.00,+4.00,+9.00,-2.00,+6.00,+11.00,-3.00,-8.00,-10.00,-5.00,+2.00,+2.00,+3.00,+3.00,-2.00,-1.00
-20.00,-36.00,-49.00,-20.00,-7.00,-6.00,-1.00,-4.00,-1.00,+6.00,+0.00,+3.00,+0.00,+2.00,-5.00,+3.00
+15.00,+8.00,-4.00,-1.00,-6.00,+7.00,+4.00,+8.00,-5.00,-7.00,+4.00,+24.00,+34.00,+13.00,-3.00,+0.00
+0.00,-8.00,+13.00,+7.00,-2.00,-3.00,-1.00,+1.00,-2.00,+0.00,-10.00,-25.00,-38.00,-16.00,-13.00,-10.00
-2.00,-21.00,-10.00,+1.00,+2.00,+3.00,+0.00,+2.00,+0.00,-3.00,-13.00,-10.00,-10.00,-5.00,-9.00,+1.00
-11.00,+0.00,+0.00,-8.00,-55.00,-35.00,-13.00,-12.00,-7.00,-16.00,+3.00,+25.00,+25.00,+6.00,-4.00,-7.00
-13.00,-9.00,+0.00,+5.00,+67.00,+57.00,+10.00,-2.00,-15.00,+1.00,+2.00,-19.00,-15.00,-1.00,-2.00,-3.00
-19.00,-40.00,-14.00,-4.00,+3.00,+1.00,-2.00,-6.00,+9.00,+3.00,-1.00,+15.00,+32.00,-6.00,-8.00,-4.00
+1.00,-10.00,+3.00,-1.00,-16.00,-18.00,-5.00,-2.00,-2.00,-5.00,+1.00,-7.00,-21.00,-22.00,-5.00,-6.00
+32.00,+58.00,+28.00,+10.00,-3.00,-9.00,+5.00,+17.00,+18.00,+13.00,-1.00,-32.00,-56.00,-16.00,-2.00,+2.00
-3.00,-3.00,-4.00,-2.00,+0.00,+6.00,-7.00,-6.00,-3.00,-3.00,-3.00,+2.00,+0.00,+6.00,+2.00,-2.00
+1.00,+7.00,+5.00,+4.00,+1.00,-3.00,+5.00,+0.00,-5.00,-4.00,+0.00,+1.00,-3.00,+5.00,+5.00,+0.00
-6.00,-13.00,-9.00,+1.00,+40.00,+0.00,+2.00,-1.00,+9.00,+10.00,+0.00,+0.00,+10.00,+1.00,+0.00,-1.00
-6.00,-15.00,-4.00,-4.00,-3.00,+0.00,-2.00,+0.00,-12.00,-8.00,+0.00,+12.00,+20.00,+1.00,+0.00,-6.00
-4.00,+4.00,+7.00,+3.00,-12.00,-10.00,-7.00,-6.00,-16.00,-14.00,-2.00,-6.00,-7.00,-11.00,-6.00,-3.00
-3.00,+6.00,+8.00,+1.00,+4.00,+1.00,+1.00,+2.00,+5.00,+2.00,+0.00,-5.00,-10.00,+0.00,-1.00,-1.00
+7.00,-3.00,-13.00,-7.00,-36.00,-14.00,-3.00,+2.00,-1.00,-13.00,-6.00,+5.00,+11.00,+4.00,-4.00,-3.00
-13.00,-7.00,+4.00,+1.00,+11.00,+5.00,+0.00,-9.00,-5.00,+10.00,-1.00,-1.00,-3.00,+3.00,-5.00,-1.00
+16.00,+11.00,+2.00,-1.00,+0.00,-7.00,+2.00,+6.00,+1.00,+3.00,-3.00,-7.00,-11.00,-4.00,-4.00,+1.00
-6.00,-14.00,-10.00,-8.00,-9.00,-2.00,-7.00,-5.00,-15.00,-24.00,-3.00,+9.00,+14.00,+4.00,-4.00,-8.00
-13.00,-7.00,-3.00,+0.00,-9.00,-5.00,-1.00,-5.00,-15.00,-8.00,+3.00,+4.00,+3.00,+7.00,-1.00,-4.00
+10.00,+4.00,+7.00,+7.00,+17.00,+14.00,+4.00,+5.00,+16.00,+3.00,-1.00,+9.00,+19.00,+6.00,+1.00,+3.00
-7.00,-18.00,-7.00,-4.00,-7.00,-1.00,-1.00,-1.00,+9.00,+12.00,+8.00,-1.00,-6.00,+2.00,+6.00,+4.00
+11.00,+15.00,+1.00,-1.00,-11.00,-4.00,-1.00,+2.00,+9.00,+10.00,+3.00,-7.00,-12.00,-2.00,-7.00,+0.00
+2.00,+21.00,+17.00,+6.00,-4.00,-17.00,-1.00,+2.00,+1.00,+11.00,-2.00,-7.00,+0.00,+0.00,+1.00,+2.00
-6.00,-11.00,+3.00,+0.00,-23.00,+10.00,+2.00,-2.00,-6.00,-8.00,-4.00,-4.00,-3.00,+4.00,+1.00,-1.00
-13.00,-20.00,-31.00,-9.00,+43.00,+16.00,-4.00,-5.00,-3.00,-4.00,-3.00,+12.00,+23.00,+5.00,+1.00,+0.00
-8.00,-15.00,-17.00,-10.00,+4.00,+8.00,-1.00,-2.00,+4.00,+4.00,+4.00,+0.00,+0.00,-1.00,+3.00,+0.00
+0.00,-5.00,-3.00,-2.00,+4.00,-1.00,+1.00,-1.00,-6.00,-9.00,+0.00,-5.00,-13.00,+4.00,+3.00,-6.00
-7.00,-12.00,-2.00,-3.00,-21.00,-16.00,-9.00,-6.00,-8.00,+2.00,+2.00,+6.00,+12.00,+1.00,+2.00,+1.00
+4.00,+8.00,+13.00,+6.00,-6.00,-1.00,+2.00,+0.00,+2.00,+5.00,+3.00,+1.00,+0.00,-6.00,+0.00,+2.00
-3.00,-5.00,+1.00,+1.00,+5.00,+1.00,-1.00,-2.00,-11.00,-6.00,-2.00,+3.00,-1.00,+1.00,+5.00,-2.00
-2.00,+0.00,-15.00,-10.00,-3.00,+14.00,+1.00,+1.00,+6.00,+7.00,+4.00,+0.00,+0.00,-3.00,+0.00,-1.00
-3.00,+0.00,+0.00,+0.00,+0.00,-12.00,+1.00,-2.00,+7.00,-1.00,+3.00,+6.00,+15.00,+5.00,+3.00,-1.00
+10.00,+15.00,+12.00,+4.00,-12.00,-8.00,-1.00,+2.00,-2.00,-9.00,-11.00,-19.00,-18.00,-14.00,-7.00,-10.00
-8.00,-6.00,+5.00,+7.00,+11.00,+7.00,-2.00,-4.00,-14.00,-17.00,-7.00,-5.00,-3.00,+0.00,+2.00,-3.00
+0.00,+0.00,-12.00,-14.00,-35.00,-29.00,-8.00,-6.00,+8.00,+19.00,+9.00,+4.00,+8.00,+3.00,+0.00,+4.00
-2.00,-16.00,-12.00,-2.00,+43.00,+28.00,+6.00,+1.00,+9.00,+4.00,-6.00,-1.00,-2.00,+0.00,-2.00,+1.00
-14.00,+4.00,+0.00,-2.00,-12.00,-12.00,-4.00,-7.00,-6.00,+2.00,-1.00,-4.00,-7.00,-3.00,-5.00,-5.00
+32.00,+46.00,+18.00,+7.00,-3.00,+6.00,+6.00,+12.00,-4.00,-9.00,-7.00,+8.00,+16.00,-2.00,-4.00,-2.00
+16.00,+18.00,+9.00,+4.00,+3.00,+5.00,+2.00,+4.00,+13.00,+3.00,+3.00,+1.00,-12.00,+4.00,+1.00,+8.00
-17.00,-23.00,-17.00,-7.00,-1.00,-1.00,-5.00,-5.00,-5.00,-1.00,+1.00,-6.00,-14.00,-2.00,-3.00,-4.00
+4.00,-5.00,+5.00,+2.00,-10.00,-6.00,-1.00,+1.00,+1.00,+2.00,+0.00,+6.00,+31.00,+2.00,-1.00,+2.00
-12.00,-2.00,-1.00,-2.00,-19.00,-23.00,-8.00,-8.00,+6.00,+6.00,-1.00,+2.00,-3.00,-5.00,+0.00,+1.00
+10.00,+10.00,+9.00,+8.00,+33.00,+30.00,+11.00,+7.00,-2.00,-7.00,-6.00,-18.00,-26.00,-9.00,-3.00,-2.00
+2.00,+2.00,+0.00,-2.00,-4.00,-4.00,-6.00,-3.00,-1.00,+5.00,-1.00,-8.00,-12.00,-4.00,-3.00,+0.00
-7.00,-13.00,-3.00,-2.00,-14.00,-38.00,+2.00,-1.00,-5.00,-8.00,+0.00,+3.00,+3.00,+0.00,+0.00,-1.00
-14.00,-16.00,-10.00,-4.00,+10.00,+32.00,+0.00,-5.00,-1.00,+2.00,+1.00,+4.00,+15.00,+3.00,+0.00,-1.00
-6.00,-14.00,-4.00,+0.00,+4.00,-1.00,-4.00,-4.00,-3.00,-6.00,-1.00,+2.00,+3.00,+0.00,+0.00,-2.00
+9.00,+12.00,+0.00,+0.00,+8.00,+9.00,+0.00,+1.00,+1.00,-5.00,-2.00,+0.00,-4.00,-2.00,-3.00,-3.00
-3.00,-11.00,-3.00,-3.00,-16.00,-5.00,-1.00,+1.00,-6.00,-1.00,-4.00,-1.00,-4.00,-2.00,-3.00,-4.00
-3.00,+2.00,-1.00,-3.00,-6.00,-8.00,-2.00,-3.00,+0.00,+2.00,+4.00,-3.00,-8.00,-2.00,-1.00,-1.00
-3.00,-10.00,-8.00,-1.00,-1.00,+2.00,-2.00,-2.00,+0.00,+1.00,-7.00,-5.00,-4.00,-3.00,-4.00,-2.00
+7.00,+20.00,+13.00,+7.00,+8.00,+2.00,+3.00,+2.00,-6.00,-16.00,-5.00,-3.00,-5.00,-4.00,-2.00,-1.00
+0.00,-4.00,-6.00,-7.00,-16.00,-4.00,-3.00,-1.00,-3.00,+1.00,+1.00,+3.00,-2.00,-1.00,-2.00,+0.00
-2.00,-13.00,-12.00,-6.00,+4.00,-5.00,+2.00,-1.00,+0.00,+3.00,-4.00,-6.00,-10.00,-2.00,+1.00,+1.00
-13.00,-8.00,-2.00,-1.00,+0.00,+8.00,-2.00,-5.00,+7.00,+4.00,+3.00,+1.00,+6.00,+1.00,+0.00,+0.00
+15.00,+28.00,+12.00,+4.00,-8.00,-12.00,+4.00,+8.00,-7.00,-8.00,-2.00,+1.00,+9.00,+3.00,+0.00,-5.00
-7.00,-6.00,-2.00,-1.00,+3.00,+8.00,-4.00,-6.00,-4.00,-3.00,+3.00,-3.00,-12.00,-4.00,-5.00,-4.00
