-18.00,+2.00,+1.00,+1.00,+0.00,-1.00,+0.00,+4.00,+5.00,+2.00,-1.00,-2.00,-2.00,-1.00,-2.00,+4.00
-10.00,-3.00,+1.00,+1.00,+1.00,-1.00,-3.00,+4.00,-5.00,-6.00,-2.00,-1.00,+2.00,+0.00,-1.00,-2.00
+18.00,-3.00,-1.00,-2.00,+0.00,+2.00,+0.00,-9.00,+0.00,+3.00,+2.00,+0.00,-3.00,-1.00,-1.00,+7.00
-12.00,-3.00,-3.00,-2.00,+0.00,-3.00,+1.00,+1.00,+1.00,+0.00,-1.00,+0.00,+0.00,-1.00,-6.00,-4.00
-2.00,-10.00,-4.00,+1.00,+0.00,-2.00,-3.00,+5.00,-5.00,-8.00,-2.00,-1.00,+1.00,-1.00,-3.00,+0.00
+5.00,+13.00,+3.00,+0.00,+0.00,+0.00,-2.00,-10.00,+1.00,-3.00,-1.00,+0.00,-1.00,+1.00,-1.00,+4.00
-10.00,-6.00,-2.00,+2.00,-2.00,-2.00,-2.00,-2.00,+2.00,-1.00,-1.00,+1.00,+0.00,-1.00,+0.00,-6.00
+0.00,-9.00,-3.00,+1.00,-1.00,-1.00,-1.00,-11.00,-3.00,+3.00,-2.00,-2.00,+0.00,-3.00,-2.00,+0.00
+12.00,+13.00,+2.00,-1.00,+0.00,-1.00,+1.00,-7.00,-3.00,-16.00,+0.00,+1.00,+0.00,+2.00,+2.00,+0.00
-7.00,-14.00,-4.00,-1.00,-1.00,-1.00,-1.00,+0.00,-10.00,+4.00,-4.00,-2.00,+0.00,-1.00,+0.00,-1.00
-20.00,-19.00,-6.00,-3.00,-2.00,-2.00,-3.00,+6.00,+9.00,-4.00,+0.00,-1.00,+0.00,-3.00,-1.00,-9.00
+34.00,+37.00,+3.00,-2.00,+1.00,+0.00,+1.00,-30.00,+0.00,+11.00,+4.00,+2.00,+0.00,+6.00,+19.00,+5.00
-2.00,-3.00,-6.00,-5.00,-5.00,+1.00,+5.00,+10.00,-12.00,+3.00,-1.00,-2.00,+4.00,-2.00,-11.00,-17.00
+2.00,+10.00,+2.00,+1.00,+1.00,-1.00,-1.00,-1.00,-2.00,+5.00,-2.00,-1.00,-17.00,-40.00,-6.00,-3.00
+5.00,-4.00,-4.00,-4.00,-1.00,-3.00,+12.00,+6.00,+18.00,+9.00,+2.00,+0.00,+9.00,+42.00,+1.00,+7.00
+17.00,+0.00,+16.00,+6.00,+1.00,-1.00,-19.00,-29.00,-10.00,-17.00,-6.00,-3.00,+3.00,-3.00,-10.00,+2.00
+1.00,+6.00,-1.00,-2.00,-4.00,+5.00,+2.00,-4.00,-12.00,-6.00,-4.00,+1.00,+3.00,+0.00,-6.00,-1.00
-17.00,-55.00,-17.00,-5.00,+0.00,+6.00,-10.00,-19.00,-11.00,-19.00,+0.00,+10.00,+7.00,+26.00,+24.00,-3.00
+12.00,+63.00,+14.00,+4.00,+5.00,+0.00,-1.00,+9.00,-22.00,-26.00,-11.00,-24.00,-34.00,-24.00,+4.00,-6.00
-49.00,-69.00,-23.00,-5.00,-1.00,-6.00,-1.00,+26.00,+7.00,-1.00,+6.00,-2.00,-6.00,-18.00,-7.00,-12.00
+48.00,+58.00,+19.00,+5.00,-25.00,-28.00,-7.00,-7.00,+22.00,+26.00,+4.00,-7.00,-8.00,+11.00,+18.00,+18.00
+9.00,+24.00,+6.00,+2.00,+8.00,+23.00,+6.00,+22.00,-8.00,-3.00,+1.00,+5.00,+11.00,-4.00,-44.00,-33.00
-3.00,-10.00,-6.00,-1.00,+10.00,-5.00,-8.00,-7.00,-11.00,-5.00,+3.00,+10.00,-11.00,-8.00,-1.00,+2.00
-4.00,+24.00,+17.00,+5.00,+12.00,+10.00,+14.00,-1.00,+2.00,-13.00,-7.00,-2.00,+24.00,+9.00,-10.00,+4.00
-13.00,-41.00,-9.00,+0.00,+12.00,+7.00,-9.00,+7.00,-1.00,-3.00,-2.00,-8.00,-20.00,-13.00,+11.00,+1.00
-7.00,-16.00,-14.00,-10.00,-24.00,-19.00,-1.00,+0.00,+40.00,+27.00,+5.00,-2.00,+1.00,+6.00,+21.00,+17.00
-1.00,-6.00,-1.00,-3.00,-17.00,-9.00,-2.00,+13.00,-7.00,+0.00,-5.00,-3.00,+0.00,-3.00,+0.00,+21.00
-1.00,-4.00,-8.00,-8.00,-1.00,+7.00,+8.00,+13.00,-16.00,-35.00,-8.00,+2.00,-4.00,+3.00,+0.00,-11.00
-14.00,-23.00,-12.00,-2.00,+10.00,+0.00,-8.00,-25.00,+3.00,+12.00,+9.00,+10.00,+9.00,-2.00,-3.00,+1.00
-14.00,-32.00,+0.00,-2.00,-1.00,-5.00,+1.00,-7.00,-8.00,-5.00,-1.00,-4.00,-2.00,+0.00,+0.00,-10.00
+3.00,+15.00,-7.00,-7.00,-5.00,-3.00,-8.00,-10.00,+19.00,+17.00,+6.00,+5.00,+7.00,+1.00,-13.00,-1.00
+10.00,+17.00,+12.00,+3.00,-7.00,-9.00,-1.00,+14.00,+3.00,+13.00,-1.00,-1.00,-6.00,-5.00,-2.00,-3.00
-9.00,+4.00,+6.00,+4.00,+6.00,+4.00,+2.00,-4.00,-34.00,-22.00,-5.00,-2.00,+4.00,-3.00,-5.00,+2.00
-8.00,+13.00,+1.00,-1.00,+1.00,-6.00,-13.00,-1.00,+3.00,-17.00,-4.00,-4.00,-9.00,-3.00,+8.00,+37.00
+3.00,-42.00,-8.00,-1.00,-1.00,+0.00,+2.00,-18.00,+4.00,+13.00,+2.00,+11.00,+22.00,-25.00,-16.00,-3.00
-9.00,-15.00,-18.00,-9.00,-10.00,-6.00,-3.00,-3.00,+5.00,+13.00,-1.00,-13.00,-25.00,+14.00,-14.00,-10.00
+4.00,+1.00,-2.00,-1.00,+0.00,+2.00,+10.00,-26.00,+3.00,-10.00,-5.00,-4.00,-3.00,+9.00,-1.00,-10.00
-9.00,+45.00,+17.00,+3.00,-5.00,-7.00,-10.00,+14.00,-23.00,-16.00,-3.00,-5.00,-4.00,+6.00,-7.00,-7.00
-6.00,-18.00,-3.00,+1.00,-5.00,-3.00,-12.00,+3.00,+2.00,-6.00,-5.00,-1.00,+0.00,-15.00,+0.00,-9.00
-23.00,-35.00,-6.00,+1.00,+21.00,+11.00,+6.00,-14.00,-6.00,+9.00,-1.00,+2.00,+0.00,-3.00,+4.00,+8.00
+8.00,+56.00,+12.00,+2.00,+5.00,+4.00,+1.00,+21.00,-7.00,-5.00,-2.00,+3.00,+0.00,-2.00,-10.00,-1.00
+27.00,+11.00,+2.00,+1.00,+4.00,-3.00,+3.00,-5.00,+17.00,+14.00,+6.00,-5.00,-1.00,-11.00,+1.00,+23.00
-16.00,-18.00,-14.00,-11.00,-24.00,-12.00,+0.00,-6.00,-4.00,-11.00,-5.00,-10.00,-10.00,+3.00,+7.00,+1.00
+19.00,+25.00,+25.00,+8.00,+9.00,-1.00,-1.00,+14.00,+13.00,+17.00,+4.00,+2.00,+0.00,-2.00,+3.00,+3.00
-2.00,-22.00,-5.00,+0.00,-4.00,+3.00,-8.00,-9.00,-1.00,-17.00,-6.00,-4.00,-6.00,-3.00,-1.00,+1.00
-16.00,-20.00,-7.00,-1.00,+10.00,-1.00,+6.00,-19.00,+5.00,+17.00,+2.00,+7.00,+9.00,+0.00,+3.00,-4.00
-21.00,+1.00,+2.00,+2.00,+9.00,+5.00,-1.00,+14.00,-27.00,-27.00,-2.00,-2.00,-2.00,-20.00,-10.00,-12.00
+5.00,+16.00,-4.00,-2.00,-6.00,-4.00,-2.00,-4.00,+3.00,+0.00,+0.00,+2.00,+3.00,+46.00,+9.00,+6.00
+5.00,-9.00,-2.00,-5.00,-7.00,-3.00,+3.00,+6.00,+12.00,+5.00,-3.00,-2.00,+0.00,-3.00,-1.00,+7.00
-8.00,-13.00,-2.00,+1.00,-3.00,-4.00,-11.00,-3.00,-3.00,-22.00,-6.00,-1.00,+6.00,+7.00,-3.00,-2.00
+2.00,+4.00,+4.00,+2.00,+5.00,+8.00,+15.00,+0.00,+8.00,+32.00,+7.00,-2.00,+1.00,+15.00,+5.00,-1.00
+12.00,+4.00,+0.00,+1.00,-5.00,-3.00,-3.00,+0.00,+8.00,+4.00,+3.00,+3.00,-6.00,-22.00,-5.00,-32.00
-1.00,+9.00,+3.00,+1.00,-2.00,-1.00,+1.00,+5.00,-5.00,-2.00,-9.00,-6.00,-4.00,-7.00,-6.00,-5.00
-16.00,-36.00,-17.00,-6.00,-6.00,-2.00,-4.00,-7.00,-6.00,-4.00,+1.00,+0.00,+8.00,-6.00,+9.00,-10.00
+21.00,+26.00,+20.00,+9.00,+18.00,+11.00,+3.00,+4.00,-18.00,-9.00,-1.00,+3.00,+6.00,+7.00,-1.00,-7.00
+10.00,-7.00,-8.00,-9.00,-13.00,-9.00,-11.00,+10.00,-18.00,-24.00,-2.00,+2.00,+2.00,-3.00,-6.00,+6.00
-33.00,-53.00,-20.00,-7.00,-10.00,-6.00,+4.00,+10.00,-5.00,-4.00,-1.00,+4.00,+8.00,-2.00,+8.00,-10.00
+33.00,+62.00,+16.00,+3.00,+4.00,+8.00,-2.00,+10.00,+35.00,+36.00,+8.00,-15.00,-29.00,-25.00,-22.00,+12.00
+1.00,+3.00,+4.00,-3.00,-17.00,-10.00,+9.00,+19.00,+7.00,+8.00,-5.00,-4.00,+2.00,+43.00,+21.00,-3.00
+13.00,+27.00,+10.00,+7.00,+14.00,+6.00,-4.00,-18.00,-10.00,-12.00,-5.00,-2.00,+3.00,-5.00,-1.00,+9.00
-10.00,-24.00,-10.00,-4.00,-2.00,-6.00,-14.00,-12.00,+4.00,+11.00,+2.00,+3.00,+4.00,-11.00,-3.00,-2.00
-16.00,-21.00,-9.00,+1.00,+19.00,+13.00,+25.00,-1.00,-14.00,-4.00,+2.00,+4.00,+2.00,-6.00,+0.00,-10.00
+11.00,-6.00,-5.00,-2.00,+1.00,+0.00,-10.00,-13.00,-16.00,-18.00,-3.00,+2.00,+5.00,+16.00,+3.00,-4.00
+3.00,-3.00,-9.00,-8.00,-10.00,-4.00,+1.00,+1.00,+16.00,+24.00,+10.00,-3.00,-2.00,+1.00,-7.00,-7.00
-6.00,-10.00,-2.00,-2.00,-11.00,-5.00,-7.00,-4.00,-6.00,-11.00,-4.00,-3.00,-11.00,-11.00,-4.00,+2.00
+0.00,+6.00,+3.00,+2.00,-4.00,-5.00,-1.00,-2.00,+5.00,+5.00,-8.00,+3.00,+17.00,+7.00,-4.00,+2.00
+8.00,+20.00,+4.00,+3.00,+5.00,+5.00,-1.00,+1.00,+9.00,+4.00,+5.00,+2.00,-3.00,-8.00,-3.00,-1.00
-35.00,-42.00,-15.00,-7.00,-10.00,-2.00,+5.00,-10.00,+2.00,+5.00,-3.00,+0.00,-10.00,-6.00,+8.00,+4.00
-10.00,-7.00,-1.00,+0.00,+4.00,+1.00,+3.00,+2.00,-7.00,-10.00,-3.00,-11.00,-8.00,-9.00,-9.00,-2.00
+37.00,+34.00,+9.00,+2.00,-8.00,-10.00,-1.00,+4.00,-20.00,-18.00,-8.00,+0.00,-5.00,+6.00,-1.00,-6.00
-6.00,-3.00,-1.00,+0.00,+4.00,+9.00,+0.00,-6.00,+12.00,+7.00,-2.00,-16.00,-16.00,-15.00,-6.00,-3.00
-15.00,-20.00,-10.00,-3.00,-1.00,-4.00,-15.00,-5.00,+3.00,+2.00,-4.00,-1.00,+5.00,-3.00,+2.00,+3.00
+21.00,+35.00,+12.00,+3.00,+10.00,+4.00,+6.00,+0.00,+7.00,+13.00,+7.00,+17.00,+20.00,-11.00,+0.00,+3.00
+4.00,-7.00,+1.00,-1.00,+2.00,+3.00,+3.00,+3.00,-7.00,-15.00,+4.00,-1.00,+4.00,+34.00,+14.00,+1.00
-17.00,-29.00,-14.00,-5.00,-1.00,+2.00,-5.00,-6.00,-1.00,-9.00,-4.00,+0.00,-12.00,-9.00,-15.00,+0.00
-14.00,-6.00,-2.00,-2.00,-12.00,-8.00,+8.00,-3.00,-3.00,+6.00,-2.00,-5.00,-6.00,-8.00,-1.00,+0.00
+4.00,+33.00,+2.00,-7.00,-36.00,-12.00,-19.00,-8.00,+5.00,+4.00,-1.00,-8.00,-9.00,+5.00,-3.00,+0.00
+2.00,-13.00,+1.00,+5.00,+49.00,+37.00,+21.00,+6.00,+0.00,+1.00,-5.00,+4.00,+8.00,-3.00,+1.00,-1.00
-7.00,-10.00,+0.00,+1.00,+3.00,-4.00,+1.00,+0.00,+0.00,-10.00,+2.00,+9.00,+10.00,-7.00,-4.00,-7.00
+4.00,+11.00,+3.00,+2.00,+15.00,+11.00,+0.00,+0.00,-18.00,-5.00,+2.00,-7.00,-10.00,-3.00,+2.00,+3.00
+5.00,+9.00,+0.00,-2.00,-4.00,-5.00,+0.00,-1.00,+37.00,+13.00,+7.00,+8.00,+10.00,+14.00,+7.00,+26.00
-4.00,-16.00,-8.00,-7.00,-25.00,-16.00,-11.00,-3.00,-14.00,+1.00,-2.00,-5.00,-2.00,-1.00,+4.00,-18.00
-16.00,-1.00,-6.00,-5.00,-8.00,-4.00,-8.00,-16.00,+11.00,+9.00,+6.00,+1.00,+0.00,-2.00,+0.00,+7.00
+13.00,-3.00,+6.00,+1.00,+0.00,+3.00,+7.00,+6.00,-13.00,-5.00,+1.00,+1.00,+6.00,-5.00,-3.00,-4.00
-5.00,-31.00,+1.00,+3.00,+4.00,-1.00,+4.00,+28.00,+11.00,+9.00,-6.00,-4.00,-8.00,+2.00,+0.00,-2.00
+15.00,+3.00,-2.00,+0.00,-8.00,-6.00,+2.00,+9.00,-6.00,-14.00,-6.00,-5.00,-9.00,-4.00,-6.00,-4.00
-11.00,-11.00,-5.00,+0.00,+8.00,+0.00,-1.00,-1.00,-10.00,+1.00,-1.00,+0.00,+2.00,-8.00,-4.00,-6.00
-18.00,-19.00,-14.00,-9.00,-16.00,-17.00,-10.00,-7.00,+9.00,-5.00,-2.00,+7.00,+19.00,+3.00,+7.00,+6.00
-1.00,+8.00,+11.00,+4.00,+11.00,+7.00,+3.00,-8.00,-19.00,-10.00,-2.00,-9.00,-15.00,-4.00,+6.00,-7.00
-14.00,-10.00,-3.00,+0.00,-1.00,+1.00,-3.00,-15.00,+2.00,-2.00,-3.00,-6.00,-11.00,-44.00,-30.00,-9.00
-6.00,-31.00,-10.00,-7.00,-14.00,-9.00,-4.00,-1.00,+2.00,+9.00,-2.00,+5.00,+13.00,+53.00,+11.00,-2.00
+32.00,+62.00,+13.00,+4.00,-5.00,-16.00,+5.00,+8.00,-13.00,-3.00,+0.00,+3.00,+2.00,-10.00,-2.00,+1.00
+14.00,+22.00,+3.00,+3.00,+25.00,+22.00,+4.00,-1.00,+3.00,-1.00,-2.00,-7.00,-7.00,+39.00,+4.00,-7.00
-20.00,-4.00,-4.00,-4.00,-7.00,-7.00,-7.00,-5.00,+1.00,+6.00,+1.00,-1.00,+0.00,+1.00,+5.00,+1.00
+26.00,+24.00,+11.00,+4.00,-11.00,-5.00,-6.00,+10.00,+7.00,+4.00,+0.00,-3.00,-7.00,-17.00,-2.00,+6.00
-1.00,+8.00,+1.00,+3.00,+17.00,+28.00,+31.00,+7.00,+13.00,+0.00,-3.00,+2.00,+3.00,+2.00,-8.00,-9.00
-9.00,-16.00,-8.00,-2.00,+5.00,-2.00,-4.00,-11.00,-16.00,-11.00,-4.00,+1.00,+1.00,-5.00,-7.00,-7.00
-5.00,+5.00,+2.00,-3.00,-12.00,-8.00,-2.00,-9.00,+3.00,+1.00,+2.00,+0.00,-3.00,+3.00,+19.00,+18.00
-6.00,-6.00,-5.00,+1.00,+7.00,+3.00,-5.00,-3.00,+6.00,+1.00,+1.00,+3.00,+4.00,-3.00,-1.00,+5.00
-31.00,-14.00,-1.00,+1.00,-5.00,-3.00,+2.00,-14.00,+8.00,+0.00,-5.00,-4.00,-6.00,-1.00,-2.00,-12.00
-6.00,-22.00,-17.00,-8.00,-7.00,-4.00,+0.00,+1.00,-19.00,-4.00,-3.00,-1.00,-1.00,-18.00,-12.00,-21.00
+56.00,+50.00,+14.00,+5.00,-4.00,+0.00,+2.00,+16.00,+11.00,+2.00,+1.00,-1.00,-2.00,+10.00,-4.00,+8.00
+15.00,+14.00,+2.00,+1.00,+0.00,-5.00,+0.00,-26.00,-6.00,-5.00,-1.00,+0.00,+0.00,-9.00,+10.00,+12.00
-16.00,-12.00,-7.00,-7.00,-6.00,-5.00,-8.00,+48.00,-11.00,-1.00,+2.00,-1.00,-5.00,-5.00,-1.00,+0.00
-19.00,+1.00,-2.00,-1.00,+1.00,-3.00,+2.00,-6.00,-5.00,-10.00,-2.00,-1.00,+1.00,-2.00,+6.00,+1.00
-25.00,-24.00,-6.00,-1.00,-5.00,-7.00,-11.00,-34.00,-9.00,-6.00,-2.00,+0.00,-9.00,-19.00,-19.00,-8.00
-4.00,-8.00,-1.00,+0.00,+3.00,+0.00,+1.00,+6.00,+10.00,+5.00,-3.00,-2.00,+2.00,+7.00,+5.00,-5.00
+9.00,+12.00,+7.00,+4.00,+3.00,+3.00,-6.00,-17.00,+13.00,+3.00,-1.00,-1.00,+0.00,+9.00,-2.00,+4.00
+0.00,-7.00,-3.00,-3.00,-6.00,-6.00,-10.00,-1.00,-4.00,-3.00,-1.00,-2.00,+0.00,+3.00,-6.00,-2.00
-20.00,-21.00,-7.00,-2.00,-2.00,+4.00,+11.00,+9.00,-2.00,+2.00,+0.00,-1.00,+0.00,+12.00,+8.00,+2.00
+16.00,+26.00,+9.00,+3.00,+4.00,+0.00,+18.00,+11.00,+1.00,+0.00,-1.00,-1.00,-5.00,-22.00,-7.00,-2.00
-1.00,-21.00,-5.00,-1.00,-2.00,+3.00,-16.00,-15.00,-17.00,-14.00,-8.00,-6.00,-4.00,-7.00,-3.00,-5.00
+16.00,+20.00,+3.00,+0.00,+4.00,-3.00,+2.00,+6.00,+30.00,+17.00,+6.00,+2.00,+3.00,+5.00,+13.00,+16.00
+1.00,+7.00,+4.00,+1.00,+2.00,-1.00,-2.00,-2.00,-1.00,-7.00,+1.00,+1.00,+1.00,-11.00,-10.00,-9.00
-10.00,-22.00,-8.00,-4.00,+2.00,+0.00,-2.00,-1.00,-13.00,-11.00,-5.00,-3.00,-7.00,-9.00,-3.00,-2.00
+5.00,+8.00,-4.00,-6.00,-12.00,-12.00,-18.00,-4.00,+17.00,+12.00,+1.00,+1.00,+4.00,+3.00,+4.00,+10.00
+11.00,-4.00,+5.00,+3.00,+3.00,+6.00,+19.00,+2.00,-4.00,-2.00,+0.00,+0.00,-4.00,-11.00,-5.00,+3.00
-15.00,-5.00,-7.00,-1.00,-2.00,+0.00,-6.00,-5.00,+1.00,+7.00,-1.00,-7.00,-6.00,+9.00,+0.00,-8.00
+7.00,+17.00,+2.00,+0.00,-5.00,-7.00,-2.00,+5.00,+13.00,+3.00,-2.00,-3.00,-1.00,+4.00,-5.00,+4.00
-3.00,+0.00,+3.00,+3.00,+4.00,+3.00,-6.00,+4.00,-14.00,-10.00,-1.00,-1.00,-5.00,-1.00,+4.00,-4.00
-8.00,-14.00,-4.00,+0.00,-3.00,+6.00,-7.00,-9.00,+23.00,+7.00,-1.00,-1.00,-2.00,-23.00,+0.00,+6.00
-5.00,-10.00,-5.00,-3.00,+9.00,+4.00,+3.00,+4.00,-11.00,-2.00,-1.00,+2.00,+5.00,+27.00,+3.00,-1.00
-8.00,-9.00,-5.00,-5.00,-5.00,+1.00,+2.00,+9.00,-18.00,-19.00,-4.00,+0.00,+2.00,-24.00,-12.00,+0.00
-8.00,-16.00,-9.00,-1.00,-3.00,-5.00,+2.00,-15.00,+2.00,-2.00,-1.00,-2.00,+3.00,+27.00,+6.00,-4.00
+8.00,-10.00,+1.00,-1.00,-1.00,-2.00,-6.00,+2.00,-19.00,-6.00,+0.00,-2.00,-2.00,+6.00,-3.00,-12.00
+4.00,-1.00,+0.00,+0.00,-4.00,-4.00,+1.00,-7.00,+20.00,+15.00,+4.00,+5.00,+7.00,-6.00,+4.00,+3.00
+22.00,+38.00,+17.00,+5.00,+3.00,+3.00,+10.00,+24.00,-6.00,-2.00,-1.00,-4.00,-3.00,+5.00,-2.00,-7.00
+6.00,-1.00,-5.00,-4.00,-3.00,+1.00,-4.00,-2.00,+5.00,+8.00,+6.00,+3.00,+1.00,-18.00,-5.00,+16.00
-21.00,-19.00,-6.00,-2.00,+0.00,-8.00,-6.00,-11.00,-14.00,-9.00,-2.00,-1.00,+0.00,+8.00,+5.00,-3.00
-22.00,-25.00,-6.00,-1.00,+1.00,-1.00,-8.00,-9.00,+7.00,-1.00,-6.00,-1.00,+4.00,-14.00,-5.00,+1.00
-44.00,-13.00,-7.00,-6.00,-4.00,-3.00,-2.00,+1.00,-17.00,+5.00,+0.00,-3.00,-5.00,-3.00,+0.00,-13.00
+28.00,+12.00,+6.00,+2.00,-2.00,+0.00,+8.00,+9.00,+4.00,-8.00,-3.00,+2.00,+7.00,-9.00,-12.00,-4.00
+8.00,+5.00,-3.00,-3.00,-3.00,-3.00,+6.00,+4.00,-7.00,+0.00,-2.00,-10.00,-14.00,+7.00,+1.00,+0.00
+7.00,+5.00,+0.00,-1.00,-5.00,-4.00,-10.00,+8.00,-18.00,-9.00,-3.00,-1.00,-3.00,-31.00,-4.00,-8.00
-11.00,-20.00,-3.00,+0.00,-6.00,-23.00,-18.00,-21.00,+16.00,-4.00,-3.00,-2.00,-7.00,+2.00,-8.00,+1.00
+1.00,+30.00,+10.00,+4.00,+11.00,+24.00,+13.00,-8.00,+2.00,-2.00,-1.00,+0.00,+3.00,+4.00,-4.00,-1.00
+4.00,+7.00,-1.00,+0.00,+12.00,+2.00,-7.00,+6.00,+1.00,+9.00,+5.00,+7.00,+10.00,+4.00,+4.00,+1.00
-10.00,-4.00,-3.00,-3.00,-5.00,-2.00,+8.00,-8.00,+0.00,-18.00,-8.00,-4.00,-2.00,-3.00,-2.00,-12.00
+1.00,-8.00,-6.00,-4.00,-1.00,+7.00,-2.00,-2.00,-7.00,+11.00,+4.00,+4.00,+6.00,+10.00,+2.00,+1.00
-10.00,-9.00,-1.00,-1.00,-6.00,-14.00,-1.00,+0.00,-9.00,-4.00,-5.00,-5.00,-9.00,+2.00,+2.00,+6.00
+8.00,+5.00,+3.00,+1.00,+0.00,-1.00,-1.00,-16.00,+16.00,-7.00,-2.00,-1.00,+1.00,+3.00,-3.00,+1.00
+3.00,+7.00,+1.00,-1.00,-2.00,-2.00,+3.00,+2.00,-17.00,+6.00,+1.00,-4.00,-3.00,+4.00,+0.00,+1.00
+8.00,-6.00,-7.00,-2.00,+1.00,+2.00,-3.00,+3.00,+20.00,+9.00,+1.00,+3.00,+2.00,-1.00,+3.00,+6.00
-5.00,-8.00,+0.00,-4.00,-4.00,-6.00,-4.00,-2.00,-2.00,-2.00,-2.00,-4.00,-12.00,-7.00,-1.00,-11.00
-5.00,+35.00,+8.00,+1.00,-3.00,+3.00,+5.00,-3.00,-17.00,-14.00,-5.00,-3.00,+1.00,-19.00,-11.00,-4.00
+3.00,-1.00,-2.00,-3.00,-2.00,-1.00,+6.00,+3.00,+5.00,+5.00,+1.00,+0.00,-2.00,+9.00,+7.00,-3.00
-4.00,-10.00,-4.00,-1.00,-2.00,+0.00,-4.00,-6.00,-13.00,-12.00,-2.00,-3.00,+0.00,+9.00,+3.00,+0.00
-18.00,-30.00,-10.00,-2.00,+1.00,-1.00,-3.00,-12.00,-22.00,-13.00,-3.00,-1.00,+8.00,-14.00,-10.00,-2.00
-2.00,+34.00,+8.00,+3.00,+2.00,-7.00,-12.00,-1.00,+19.00,+1.00,-1.00,-2.00,-6.00,+7.00,+13.00,+2.00
+29.00,+7.00,+0.00,-1.00,-4.00,+2.00,+13.00,+7.00,+4.00,+15.00,+2.00,+3.00,-2.00,+1.00,-6.00,-1.00
+0.00,-10.00,+0.00,+0.00,+2.00,+2.00,+1.00,+0.00,-12.00,-4.00,-1.00,-4.00,-7.00,-18.00,-4.00,-8.00
-1.00,+11.00,-5.00,-1.00,+2.00,+2.00,+17.00,+1.00,+9.00,+6.00,-1.00,-5.00,+4.00,+16.00,+2.00,+2.00
+8.00,-3.00,+1.00,-1.00,-4.00,-7.00,+0.00,+7.00,-8.00,-1.00,-3.00,-3.00,-7.00,+0.00,+2.00,-3.00
-9.00,-3.00,+0.00,-1.00,-2.00,-2.00,-15.00,-2.00,+7.00,-1.00,-1.00,-2.00,-2.00,+2.00,-1.00,+5.00
-8.00,+11.00,+1.00,-2.00,-3.00,+0.00,+1.00,+7.00,-8.00,-10.00,-6.00,-3.00,-3.00,+1.00,+1.00,-4.00
-13.00,-26.00,-8.00,-1.00,+9.00,+17.00,+2.00,-1.00,-2.00,+5.00,-1.00,+3.00,-5.00,-19.00,-1.00,-3.00
-5.00,-26.00,-6.00,-4.00,-6.00,-4.00,-2.00,-1.00,-9.00,-12.00,-1.00,+4.00,+8.00,-1.00,-10.00,-3.00
+5.00,+21.00,+3.00,+0.00,-1.00,-8.00,-11.00,-7.00,+3.00,+3.00,-1.00,-1.00,-2.00,+2.00,+1.00,+1.00
+5.00,-5.00,+0.00,+0.00,-2.00,-1.00,+7.00,+7.00,+14.00,+11.00,+1.00,+2.00,+1.00,-8.00,-2.00,+3.00
+5.00,-6.00,-1.00,-1.00,-6.00,-8.00,-7.00,+3.00,-1.00,+4.00,-1.00,-3.00,-4.00,-6.00,-2.00,-4.00
+4.00,+3.00,-2.00,-1.00,-1.00,+1.00,+1.00,+8.00,-9.00,-2.00,-3.00,+0.00,+3.00,+3.00,-5.00,-4.00
-4.00,-1.00,-1.00,+2.00,+5.00,+7.00,-4.00,-7.00,-16.00,-14.00,-3.00,+0.00,-1.00,+5.00,+1.00,-2.00
-9.00,-3.00,-6.00,-3.00,-7.00,-6.00,-3.00,-24.00,+2.00,+0.00,+0.00,-1.00,+1.00,+0.00,-4.00,-2.00
-12.00,-14.00,-5.00,-2.00,-4.00,-6.00,-3.00,+2.00,+6.00,+1.00,+0.00,+0.00,-3.00,-7.00,+1.00,-4.00
+18.00,+15.00,+8.00,+5.00,+4.00,+3.00,+10.00,+10.00,+1.00,+8.00,+3.00,+0.00,-6.00,-6.00,-8.00,-5.00
-1.00,-3.00,+1.00,-1.00,-2.00,-4.00,+0.00,+4.00,-4.00,-5.00,-1.00,-2.00,+0.00,+2.00,+0.00,+2.00
+4.00,+8.00,+3.00,+1.00,+3.00,+3.00,-6.00,-6.00,+7.00,+4.00,+1.00,+0.00,+1.00,-1.00,+3.00,+8.00
+1.00,+4.00,+1.00,+0.00,-5.00,-8.00,-6.00,-5.00,-8.00,-6.00,-4.00,-1.00,-3.00,+0.00,+0.00,+0.00
-12.00,-23.00,-9.00,-5.00,-4.00,-2.00,-1.00,-7.00,-7.00,+1.00,-2.00,+3.00,+3.00,-7.00,-5.00,-10.00
-2.00,-3.00,-2.00,-2.00,+0.00,-2.00,-6.00,-11.00,+0.00,-2.00,-1.00,+0.00,+1.00,+0.00,-3.00,+1.00
+4.00,+1.00,+2.00,-1.00,+3.00,+4.00,+3.00,+7.00,+1.00,-2.00,-5.00,-3.00,-3.00,-2.00,+3.00,+0.00
+14.00,+15.00,+4.00,+1.00,+2.00,-1.00,+3.00,+12.00,+22.00,+17.00,+2.00,-1.00,-2.00,+11.00,-1.00,-1.00
-9.00,-18.00,-5.00,+0.00,+1.00,+3.00,-1.00,+1.00,-24.00,-23.00,-2.00,-1.00,+2.00,+1.00,+2.00,+5.00
+7.00,+15.00,+6.00,+3.00,+7.00,+5.00,-1.00,+2.00,+10.00,+7.00,+3.00,+7.00,+10.00,-3.00,-7.00,+2.00
-4.00,-11.00,-4.00,-5.00,-3.00,+3.00,+0.00,-5.00,-9.00,-8.00,-4.00,+0.00,-5.00,+0.00,+5.00,-7.00
-7.00,-12.00,-8.00,-3.00,-9.00,-8.00,-4.00,-6.00,-3.00,+2.00,+2.00,+1.00,-5.00,-24.00,-4.00,+3.00
+20.00,+37.00,+16.00,+7.00,+15.00,+13.00,+4.00,+0.00,+13.00,+15.00,+6.00,-2.00,-4.00,+5.00,-6.00,+1.00
-7.00,-15.00,-6.00,-4.00,-22.00,-28.00,-8.00,-2.00,-10.00,-2.00,-2.00,-9.00,-3.00,-8.00,+8.00,+1.00
+2.00,+10.00,+1.00,+2.00,+14.00,+20.00,+4.00,+5.00,+0.00,-7.00,-17.00,+0.00,+14.00,+50.00,-5.00,-11.00
-11.00,-15.00,-6.00,-3.00,+1.00,-2.00,-10.00,-1.00,-12.00,-11.00,-8.00,+1.00,+2.00,-10.00,-6.00,+3.00
-9.00,-17.00,-12.00,-2.00,+7.00,+0.00,-9.00,-24.00,+14.00,+8.00,+3.00,+2.00,+5.00,+20.00,+15.00,+1.00
-1.00,-6.00,-8.00,-2.00,-2.00,-5.00,+3.00,-8.00,-1.00,-2.00,+0.00,+1.00,-2.00,-2.00,+2.00,-4.00
+11.00,+8.00,+9.00,+2.00,-1.00,+3.00,+17.00,+49.00,-4.00,+1.00,+4.00,-3.00,-8.00,-15.00,-7.00,+1.00
+11.00,+13.00,+8.00,+2.00,-1.00,+0.00,+15.00,+5.00,-5.00,-4.00,+3.00,+1.00,+3.00,-11.00,+5.00,+1.00
+0.00,-13.00,-3.00,+0.00,-2.00,+0.00,+4.00,+10.00,-1.00,-2.00,-7.00,-5.00,-6.00,-3.00,-7.00,+1.00
+5.00,+14.00,+4.00,+1.00,+2.00,+5.00,-1.00,+6.00,-4.00,-1.00,-2.00,-3.00,+2.00,+10.00,+1.00,-6.00
-9.00,-7.00,-5.00,-4.00,-8.00,-12.00,-13.00,-21.00,-5.00,+1.00,+4.00,+0.00,-4.00,-11.00,+3.00,-4.00
+2.00,+5.00,+4.00,+4.00,+5.00,+2.00,-4.00,-9.00,-2.00,-7.00,-5.00,-6.00,-13.00,-23.00,+8.00,+1.00
-11.00,-9.00,-9.00,-7.00,-12.00,-4.00,-3.00,-16.00,+0.00,+7.00,+3.00,-2.00,-9.00,-28.00,-11.00,-6.00
-1.00,-7.00,-1.00,-3.00,-7.00,-6.00,-5.00,+2.00,-4.00,-7.00,-3.00,-1.00,+3.00,+15.00,-7.00,-2.00
+2.00,+4.00,+0.00,+2.00,+11.00,-4.00,-11.00,-17.00,+3.00,+3.00,+0.00,+5.00,+12.00,+24.00,+8.00,+4.00
-5.00,+5.00,+4.00,+1.00,-2.00,-5.00,-2.00,-1.00,+1.00,-2.00,+2.00,+2.00,+7.00,+49.00,+8.00,+2.00
+1.00,-8.00,-3.00,-3.00,+1.00,+3.00,-5.00,-43.00,+2.00,+3.00,+1.00,+8.00,-8.00,-9.00,+1.00,+4.00
-14.00,-8.00,-6.00,-2.00,-6.00,-2.00,+10.00,+24.00,+11.00,+5.00,-3.00,-22.00,-35.00,-37.00,-16.00,-4.00
+14.00,+3.00,+3.00,+2.00,-1.00,+5.00,+16.00,+43.00,-10.00,-3.00,-2.00,-9.00,-3.00,-14.00,-3.00,+2.00
+13.00,+39.00,+9.00,+0.00,-8.00,-5.00,+3.00,-2.00,-5.00,-3.00,+0.00,+7.00,+0.00,+3.00,+1.00,-5.00
+4.00,+12.00,+2.00,+3.00,+6.00,+0.00,-5.00,+12.00,-3.00,+0.00,-5.00,-11.00,+0.00,-5.00,-2.00,-18.00
+10.00,-9.00,-4.00,+1.00,+24.00,+11.00,+9.00,+10.00,-6.00,-7.00,-2.00,+5.00,-3.00,-14.00,+1.00,+9.00
-14.00,-1.00,-2.00,+0.00,-8.00,-10.00,-10.00,-24.00,-2.00,+2.00,+5.00,+10.00,+24.00,+1.00,-5.00,-4.00
+1.00,-17.00,-6.00,-3.00,-7.00,-6.00,-7.00,-13.00,-5.00,-1.00,-3.00,-18.00,-22.00,-12.00,-5.00,-2.00
-14.00,-9.00,-5.00,-4.00,-7.00,+1.00,+7.00,+22.00,+0.00,-5.00,-2.00,-5.00,+1.00,+2.00,-1.00,-1.00
-3.00,+4.00,+4.00,-3.00,-20.00,+1.00,-4.00,-11.00,+1.00,+3.00,+1.00,+5.00,+28.00,+57.00,+7.00,-6.00
-8.00,+0.00,-1.00,+3.00,+20.00,+13.00,-4.00,+12.00,+0.00,-6.00,-2.00,+3.00,-6.00,-19.00,-1.00,+13.00
+4.00,-5.00,-7.00,+0.00,+22.00,+3.00,+5.00,-2.00,+5.00,+6.00,+1.00,+3.00,+14.00,-1.00,-2.00,-3.00
-6.00,+2.00,+4.00,+2.00,-10.00,-27.00,-5.00,+2.00,-11.00,-4.00,-1.00,+1.00,+17.00,+6.00,-5.00,+10.00
-12.00,-3.00,+0.00,+2.00,+13.00,+16.00,-2.00,+11.00,-6.00,-7.00,-1.00,+4.00,-20.00,-6.00,+12.00,+1.00
-1.00,+0.00,-2.00,-7.00,-33.00,-19.00,-5.00,-20.00,+11.00,+7.00,+3.00,+18.00,+38.00,+0.00,-5.00,-2.00
-17.00,-6.00,+0.00,+1.00,+26.00,+32.00,+0.00,-6.00,-7.00,-5.00,-2.00,-31.00,-57.00,-15.00,-5.00,-16.00
-6.00,-7.00,-6.00,-4.00,-11.00,-23.00,-2.00,+3.00,+5.00,+1.00,-3.00,-8.00,-7.00,+3.00,+2.00,+9.00
+5.00,+1.00,+3.00,+0.00,-7.00,+2.00,-2.00,-10.00,+3.00,+11.00,+8.00,+2.00,-7.00,-12.00,-12.00,-9.00
+7.00,+1.00,+2.00,+0.00,+2.00,+12.00,+1.00,-10.00,-12.00,-12.00,+1.00,+2.00,-7.00,-5.00,-2.00,-2.00
+4.00,+8.00,-2.00,-2.00,+24.00,+11.00,-5.00,+17.00,+3.00,+0.00,-1.00,+12.00,+28.00,+15.00,+1.00,+6.00
+10.00,+7.00,+3.00,+1.00,+3.00,+10.00,+5.00,+9.00,-11.00,+1.00,+3.00,+13.00,+25.00,+8.00,+3.00,+1.00
-4.00,-3.00,-4.00,-5.00,-14.00,-13.00,-3.00,-4.00,+9.00,-3.00,-14.00,-20.00,-15.00,-8.00,+1.00,+2.00
-2.00,+3.00,-5.00,-5.00,-13.00,-27.00,-2.00,-2.00,-1.00,+1.00,-4.00,+8.00,-18.00,-14.00,-4.00,-9.00
-4.00,-10.00,-3.00,-5.00,-35.00,+0.00,-9.00,-4.00,-2.00,-6.00,-4.00,-31.00,-40.00,-5.00,-6.00,+0.00
+11.00,+2.00,-1.00,+7.00,+45.00,+20.00,+9.00,-7.00,+5.00,-1.00,-2.00,+9.00,-2.00,-44.00,-7.00,+3.00
-9.00,-12.00,-2.00,-7.00,-33.00,-24.00,-2.00,+19.00,-5.00,+5.00,+9.00,+10.00,+38.00,+72.00,+10.00,-5.00
+10.00,+14.00,+0.00,+0.00,+4.00,+26.00,+9.00,+0.00,+0.00,-3.00,+0.00,-4.00,+8.00,+4.00,-2.00,-6.00
-4.00,-3.00,+0.00,+1.00,+17.00,-30.00,-6.00,-2.00,+3.00,+2.00,-1.00,+17.00,+2.00,+11.00,+7.00,+7.00
+0.00,-4.00,-2.00,-3.00,-25.00,-13.00,-14.00,-17.00,-6.00,-8.00,-4.00,+1.00,-3.00,-3.00,+0.00,-8.00
-23.00,+1.00,+1.00,+6.00,+37.00,+50.00,+4.00,+30.00,+7.00,+0.00,-3.00,-31.00,-46.00,-58.00,-11.00,+23.00
-3.00,-9.00,-5.00,-5.00,-31.00,-32.00,+0.00,+2.00,-2.00,+1.00,-4.00,-21.00,-25.00,-3.00,-1.00,+5.00
+2.00,+1.00,+0.00,-5.00,-36.00,-26.00,-4.00,-4.00,+0.00,+2.00,+5.00,+30.00,+79.00,+27.00,+0.00,+0.00
+1.00,-8.00,-2.00,+6.00,+52.00,+30.00,+6.00,-8.00,-17.00,-3.00,-2.00,-13.00,-38.00,-12.00,+1.00,-2.00
-70.00,-8.00,+0.00,+1.00,+23.00,-9.00,-13.00,-17.00,+3.00,-8.00,-2.00,+16.00,+41.00,+3.00,+0.00,+37.00
-15.00,-5.00,-4.00,-2.00,-5.00,+0.00,+1.00,+27.00,-16.00,-5.00,-5.00,-17.00,-11.00,+0.00,+0.00,-16.00
+53.00,+4.00,-1.00,+0.00,-23.00,-35.00,-3.00,-4.00,-7.00,+1.00,-1.00,+2.00,-18.00,-19.00,-5.00,-8.00
-1.00,-4.00,-1.00,-5.00,-20.00,-3.00,+12.00,+51.00,+23.00,+9.00,+1.00,+0.00,+1.00,+10.00,-1.00,-2.00
+45.00,+8.00,+2.00,+1.00,-1.00,-13.00,+1.00,-8.00,-6.00,-2.00,+0.00,+19.00,+21.00,+5.00,+1.00,+22.00
-8.00,+5.00,+3.00,+6.00,+38.00,+19.00,+1.00,-26.00,-9.00,-11.00,-5.00,-23.00,-14.00,-2.00,-6.00,-6.00
-11.00,-8.00,-6.00,-5.00,-22.00,-26.00,-5.00,-22.00,+8.00,+4.00,+1.00,+26.00,-10.00,-12.00,+1.00,+8.00
-34.00,-6.00,+0.00,-2.00,-27.00,+0.00,-3.00,-9.00,-16.00,-5.00,-5.00,-26.00,+6.00,+10.00,-2.00,-5.00
+18.00,-5.00,-6.00,-7.00,-37.00,-3.00,-2.00,+2.00,+17.00,+7.00,-3.00,-24.00,-41.00,-6.00,+1.00,+16.00
+8.00,-6.00,-5.00,-3.00,+13.00,+0.00,-3.00,+6.00,+5.00,+0.00,+3.00,+50.00,+78.00,-2.00,-3.00,-3.00
-1.00,+3.00,+5.00,+5.00,+13.00,+38.00,+8.00,-2.00,+1.00,-5.00,-5.00,-48.00,-64.00,+1.00,-6.00,-12.00
-4.00,+11.00,+4.00,+5.00,+27.00,-2.00,-4.00,-9.00,-18.00,-7.00,-4.00,+15.00,+74.00,-6.00,-5.00,-38.00
+40.00,+5.00,+2.00,+3.00,+15.00,-2.00,+7.00,+8.00,-4.00,-3.00,+1.00,-13.00,-21.00,-4.00,+6.00,-11.00
-7.00,-6.00,+1.00,-8.00,-66.00,-13.00,-12.00,-28.00,+4.00,+4.00,-2.00,-19.00,-21.00,-24.00,+0.00,+8.00
-11.00,-10.00,-8.00,-4.00,+36.00,+15.00,-5.00,+7.00,+0.00,-5.00,-4.00,-18.00,-26.00,-18.00,-9.00,+7.00
-21.00,+2.00,-4.00,-9.00,-2.00,+17.00,+9.00,+20.00,+4.00,-1.00,-1.00,+6.00,-3.00,+10.00,-2.00,+13.00
-13.00,+3.00,-2.00,-2.00,-13.00,-49.00,-6.00,-13.00,-9.00,-7.00,-1.00,+19.00,+14.00,+12.00,+0.00,-24.00
+13.00,+0.00,+4.00,+10.00,+30.00,-27.00,+9.00,+8.00,+5.00,+5.00,+5.00,+19.00,+2.00,+7.00,+6.00,+1.00
+2.00,+0.00,+2.00,+10.00,+76.00,+60.00,+8.00,+2.00,-9.00,-8.00,-11.00,-26.00,+22.00,-20.00,-2.00,-7.00
-10.00,-9.00,-4.00,-6.00,-35.00,-4.00,-10.00,-17.00,+17.00,+11.00,+10.00,-2.00,-34.00,+7.00,+1.00,-1.00
+5.00,-6.00,-6.00,-14.00,-64.00,-19.00,-13.00,-13.00,-8.00,-5.00,-3.00,+0.00,-2.00,-4.00,+2.00,-20.00
-3.00,+0.00,+2.00,+0.00,-2.00,-19.00,+0.00,-13.00,+0.00,-3.00,-3.00,-7.00,-20.00,-3.00,-3.00,+3.00
-27.00,-1.00,+0.00,-3.00,-42.00,+3.00,-4.00,-3.00,-2.00,+1.00,+7.00,+71.00,+106.00,+24.00,+3.00,-2.00
+3.00,-10.00,-10.00,-1.00,+36.00,-27.00,-3.00,+7.00,+4.00,-2.00,-11.00,-50.00,-96.00,-40.00,-14.00,-4.00
+7.00,-3.00,-1.00,+2.00,+15.00,+5.00,+9.00,+18.00,-19.00,-7.00,-1.00,+8.00,+27.00,+2.00,-9.00,-14.00
+3.00,+9.00,-1.00,-9.00,-53.00,-25.00,-17.00,-30.00,+16.00,+13.00,+0.00,-20.00,-1.00,-13.00,-6.00,+6.00
+11.00,+2.00,-7.00,+3.00,+11.00,+9.00,+8.00,+7.00,+15.00,+3.00,-4.00,-17.00,-32.00,+0.00,+4.00,+26.00
+11.00,-4.00,+0.00,-4.00,-15.00,+1.00,-4.00,-1.00,+2.00,+3.00,+5.00,+50.00,+58.00,+37.00,+9.00,+2.00
+3.00,+0.00,+2.00,+10.00,+27.00,+16.00,+7.00,+0.00,-43.00,-26.00,-20.00,-68.00,-69.00,-55.00,-23.00,-28.00
-14.00,+11.00,+1.00,+6.00,+76.00,+32.00,+2.00,-4.00,+39.00,+20.00,+6.00,+9.00,+13.00,-2.00,+5.00,+9.00
+1.00,-9.00,-2.00,-10.00,-28.00,+8.00,-4.00,+9.00,+0.00,+1.00,+0.00,+4.00,+13.00,-19.00,-3.00,+2.00
-5.00,+3.00,+5.00,+6.00,-1.00,+11.00,+7.00,-1.00,+9.00,+6.00,+1.00,+19.00,+33.00,+34.00,+10.00,+25.00
-25.00,-2.00,+3.00,+6.00,+12.00,+15.00,-1.00,-2.00,-10.00,-13.00,+1.00,+16.00,+2.00,+0.00,+2.00,-7.00
+24.00,+10.00,+9.00,+8.00,+3.00,-10.00,+4.00,+2.00,-21.00,-19.00,-9.00,-18.00,-72.00,-8.00,+0.00,-2.00
+3.00,-19.00,-8.00,-8.00,-38.00,+30.00,+0.00,+5.00,-5.00,+1.00,+0.00,-27.00,+44.00,+1.00,-13.00,-8.00
+12.00,+14.00,-3.00,+2.00,+32.00,-27.00,-1.00,-2.00,+11.00,+7.00,+8.00,+17.00,-29.00,-11.00,+4.00,+22.00
+9.00,+4.00,+10.00,+1.00,-9.00,-35.00,+0.00,-14.00,+5.00,+7.00,-5.00,-1.00,+47.00,+4.00,-2.00,-13.00
+12.00,-5.00,-7.00,-10.00,-51.00,-16.00,+0.00,+29.00,-13.00,-4.00,-3.00,-12.00,-4.00,-19.00,-18.00,-8.00
+24.00,-5.00,-3.00,-8.00,-48.00,-57.00,-5.00,-9.00,-1.00,+1.00,+6.00,+32.00,+39.00,+76.00,+25.00,-1.00
-33.00,-21.00,-7.00,+1.00,+51.00,+32.00,+4.00,+28.00,-11.00,-15.00,-8.00,-17.00,-13.00,-35.00,-3.00,+1.00
+1.00,+10.00,+1.00,+2.00,+18.00,+35.00,-2.00,-7.00,+13.00,+13.00,+13.00,+58.00,+56.00,+45.00,+7.00,+4.00
-8.00,-7.00,-5.00,-11.00,-49.00,+17.00,-14.00,-16.00,-10.00,-8.00,-7.00,-32.00,-93.00,-10.00,+8.00,+12.00
+19.00,+12.00,+6.00,+9.00,+23.00,-34.00,+5.00,+21.00,-4.00,-1.00,-6.00,-47.00,-74.00,-40.00,-16.00,-3.00
-3.00,-2.00,+2.00,-11.00,-91.00,-8.00,-12.00,-27.00,-5.00,-4.00,+2.00,+0.00,+78.00,-9.00,-9.00,-9.00
-5.00,-2.00,-3.00,+0.00,-13.00,-22.00,-2.00,-4.00,+8.00,-1.00,-6.00,-21.00,-42.00,-21.00,-2.00,+5.00
-6.00,+2.00,+12.00,+12.00,+99.00,+66.00,+1.00,+12.00,+4.00,+1.00,+2.00,+30.00,+38.00,+14.00,-8.00,-2.00
-24.00,-2.00,-10.00,-11.00,-13.00,+48.00,+5.00,+17.00,-5.00,-3.00,+3.00,+23.00,+28.00,+10.00,+4.00,-7.00
-17.00,-2.00,-13.00,-1.00,+43.00,-4.00,+1.00,+17.00,+19.00,+16.00,+12.00,+27.00,+35.00,+39.00,+12.00,+15.00
-35.00,-20.00,-12.00,-8.00,-7.00,+11.00,-6.00,-11.00,-10.00,-13.00,-4.00,-18.00,-49.00,-38.00,-15.00,-17.00
+6.00,-11.00,-1.00,+0.00,-36.00,-25.00,+2.00,+13.00,-4.00,-8.00,-9.00,-24.00,+10.00,+9.00,-2.00,-12.00
-19.00,+17.00,+5.00,-12.00,-69.00,-39.00,-19.00,-18.00,-1.00,+6.00,-3.00,-15.00,+4.00,-5.00,+3.00,+7.00
+28.00,+9.00,+6.00,+7.00,+64.00,-24.00,+11.00,-3.00,-11.00,-7.00,-7.00,-7.00,-65.00,-16.00,+0.00,-13.00
-20.00,-6.00,-4.00,-7.00,-2.00,-20.00,-5.00,-12.00,+13.00,+15.00,+8.00,+5.00,+28.00,+7.00,-8.00,+21.00
+2.00,-23.00,-7.00,-3.00,+8.00,-1.00,-11.00,-16.00,-8.00,-7.00,+5.00,-2.00,-1.00,+13.00,+4.00,+4.00
+23.00,+15.00,+2.00,-4.00,-45.00,-33.00,-5.00,-16.00,-12.00,-16.00,-4.00,+12.00,-6.00,-11.00,-5.00,-11.00
-7.00,-16.00,-1.00,-2.00,-52.00,+44.00,-5.00,+11.00,-6.00,+2.00,-1.00,-3.00,-1.00,+9.00,-8.00,-18.00
+39.00,+28.00,+3.00,+0.00,+53.00,+43.00,-2.00,-14.00,-8.00,+3.00,+3.00,+30.00,+72.00,+32.00,-11.00,-12.00
+10.00,-4.00,-1.00,+2.00,+15.00,-9.00,+8.00,-14.00,+19.00,+14.00,+11.00,+15.00,-36.00,+10.00,+24.00,+17.00
-61.00,-5.00,+0.00,-3.00,-1.00,+3.00,-9.00,-17.00,-1.00,-4.00,-1.00,+24.00,+38.00,-20.00,+5.00,+1.00
-5.00,-5.00,-6.00,-11.00,-30.00,-21.00,-11.00,-1.00,+7.00,+4.00,-6.00,-39.00,-60.00,-14.00,-2.00,+7.00
+8.00,-17.00,-8.00,-4.00,-29.00,-108.00,+1.00,+12.00,+4.00,-5.00,-8.00,-15.00,-30.00,-20.00,-4.00,+0.00
-7.00,+2.00,-4.00,+3.00,+18.00,+70.00,+4.00,+14.00,-8.00,+2.00,+1.00,-1.00,+75.00,+10.00,+0.00,-13.00
+7.00,+2.00,+4.00,+14.00,+107.00,-36.00,-7.00,+3.00,-7.00,-7.00,-6.00,+3.00,-42.00,+0.00,+8.00,-14.00
+7.00,+3.00,+7.00,+6.00,-53.00,-16.00,+20.00,-21.00,-7.00,-2.00,+0.00,+3.00,+78.00,+2.00,-1.00,-6.00
+12.00,-2.00,+2.00,-9.00,-34.00,+69.00,-2.00,-11.00,+7.00,+2.00,+0.00,-8.00,-60.00,-24.00,-9.00,+4.00
-7.00,+3.00,-6.00,+2.00,+57.00,-68.00,+1.00,+3.00,-19.00,-12.00,-9.00,+8.00,-37.00,+0.00,-15.00,+4.00
+10.00,+5.00,+7.00,+1.00,-78.00,-34.00,-21.00,+2.00,+1.00,+3.00,-3.00,-45.00,-50.00,+2.00,-8.00,+3.00
+18.00,+9.00,+8.00,+13.00,+110.00,-14.00,+11.00,+1.00,-3.00,-9.00,-5.00,-20.00,+13.00,+14.00,+10.00,-15.00
-7.00,-15.00,-5.00,-1.00,-20.00,+102.00,-1.00,-27.00,+11.00,+15.00,+9.00,+34.00,+85.00,+25.00,+7.00,+13.00
-30.00,-18.00,-12.00,-14.00,-61.00,-76.00,-1.00,-13.00,-2.00,+2.00,+5.00,-10.00,-41.00,-8.00,+5.00,-2.00
+17.00,+25.00,+6.00,+9.00,+68.00,+65.00,+46.00,+20.00,-3.00,-12.00,-7.00,+4.00,+19.00,-15.00,-7.00,-10.00
+28.00,+20.00,+2.00,-3.00,-29.00,-6.00,-11.00,+4.00,-10.00,-6.00,-5.00,+21.00,-55.00,-6.00,-10.00,+4.00
+5.00,+15.00,+5.00,-5.00,-78.00,+6.00,+3.00,+4.00,-4.00,-18.00,-14.00,-81.00,+12.00,-5.00,-30.00,+3.00
-9.00,-5.00,-3.00,+9.00,+111.00,-56.00,+11.00,+4.00,+4.00,-3.00,-18.00,-36.00,-37.00,-1.00,+2.00,-17.00
-32.00,-35.00,-12.00,-18.00,-84.00,-26.00,-12.00,+10.00,+18.00,+28.00,+24.00,+70.00,+74.00,+35.00,+16.00,+14.00
+26.00,+12.00,+5.00,+1.00,+28.00,+100.00,-21.00,-14.00,+5.00,-1.00,-1.00,-5.00,-125.00,-57.00,-45.00,+13.00
-3.00,-8.00,-7.00,+3.00,+59.00,-26.00,+14.00,+3.00,+2.00,-3.00,-8.00,-33.00,+43.00,+28.00,+90.00,+6.00
+0.00,+28.00,+12.00,-4.00,-51.00,+45.00,-6.00,+19.00,-17.00,-15.00,+3.00,+3.00,+33.00,-10.00,-20.00,-9.00
+24.00,+9.00,+4.00,+11.00,+119.00,+32.00,+12.00,+10.00,+13.00,+5.00,-3.00,-23.00,-12.00,+29.00,+16.00,+17.00
-19.00,-15.00,-1.00,+2.00,+10.00,+13.00,+11.00,-15.00,+7.00,+0.00,-5.00,-46.00,-19.00,-11.00,+27.00,+8.00
+21.00,+4.00,-3.00,+1.00,-22.00,-66.00,+1.00,+23.00,+1.00,+8.00,+18.00,+99.00,+47.00,+4.00,-29.00,+11.00
-1.00,-12.00,-8.00,-20.00,-80.00,+94.00,-33.00,-4.00,-10.00,-6.00,-8.00,-43.00,-1.00,-6.00,+14.00,-14.00
-19.00,-13.00,+0.00,+1.00,+61.00,+60.00,+7.00,-9.00,-7.00,-3.00,+1.00,+44.00,+55.00,+18.00,+1.00,-6.00
-6.00,+3.00,-1.00,-11.00,-54.00,-36.00,-5.00,-5.00,+8.00,+0.00,+6.00,+21.00,+49.00,+38.00,+0.00,-2.00
+1.00,+3.00,+7.00,+21.00,+127.00,+73.00,+30.00,+12.00,-6.00,-2.00,-3.00,+1.00,-23.00,-66.00,-21.00,-10.00
-20.00,-2.00,-8.00,-6.00,+10.00,+35.00,+4.00,-18.00,-14.00,-3.00,-4.00,-8.00,+15.00,+68.00,-15.00,-5.00
+16.00,+9.00,+4.00,+9.00,+45.00,+30.00,+24.00,-10.00,-15.00,-17.00,-19.00,-55.00,-102.00,-95.00,+24.00,+12.00
-29.00,-4.00,+2.00,+2.00,-3.00,+15.00,-20.00,-23.00,-8.00,-1.00,+2.00,+34.00,+81.00,+65.00,-21.00,-4.00
-6.00,+2.00,+2.00,-2.00,-108.00,-96.00,-29.00,+4.00,+13.00,+12.00,+7.00,-29.00,-60.00,+28.00,+61.00,+1.00
+64.00,+18.00,+13.00,+26.00,+103.00,+69.00,+56.00,+25.00,-13.00,-6.00,-7.00,+13.00,+27.00,-82.00,-53.00,-5.00
-19.00,-7.00,-8.00,-16.00,-96.00,+18.00,-30.00,-26.00,+18.00,+8.00,-4.00,-31.00,+38.00,+43.00,-24.00,-28.00
+10.00,-6.00,-6.00,-5.00,+93.00,-25.00,+26.00,+1.00,-12.00,-14.00,-15.00,-38.00,-75.00,-31.00,-9.00,-8.00
-23.00,-15.00,-9.00,+0.00,+67.00,+34.00,-30.00,-19.00,+11.00,+11.00,+7.00,+52.00,+48.00,+23.00,+16.00,+1.00
+6.00,-12.00,+1.00,-2.00,+0.00,-51.00,+17.00,+1.00,+0.00,+1.00,+7.00,+0.00,-65.00,-12.00,+27.00,+7.00
+15.00,+31.00,+10.00,+9.00,+29.00,+56.00,+8.00,-6.00,-3.00,-1.00,-3.00,-31.00,-35.00,-17.00,-28.00,+8.00
+7.00,+9.00,-1.00,-7.00,-105.00,-45.00,+15.00,+11.00,-2.00,+3.00,+1.00,+10.00,+78.00,-35.00,+10.00,-6.00
+0.00,+2.00,+2.00,-12.00,-101.00,-89.00,-1.00,-5.00,-8.00,-14.00,-5.00,+27.00,-41.00,+1.00,-50.00,-25.00
-13.00,-14.00,-7.00,+8.00,+54.00,+36.00,+10.00,-34.00,-9.00,-7.00,-19.00,-83.00,-84.00,-24.00,-30.00,-24.00
-21.00,-25.00,-8.00,-14.00,-51.00,+15.00,+7.00,+30.00,+4.00,-2.00,+1.00,-1.00,-22.00,-40.00,-64.00,+14.00
-17.00,-7.00,-8.00,-5.00,+1.00,-6.00,-54.00,-11.00,+2.00,+9.00,+12.00,+86.00,+86.00,+22.00,+39.00,+9.00
+16.00,+26.00,+17.00,+15.00,+106.00,-23.00,-8.00,+15.00,-27.00,-22.00,-24.00,-97.00,-121.00,-66.00,-57.00,-10.00
+14.00,-6.00,-2.00,+5.00,+27.00,+36.00,-36.00,-9.00,+3.00,+5.00,+9.00,+65.00,+127.00,-26.00,+14.00,-6.00
-1.00,-6.00,-4.00,-6.00,-83.00,-91.00,+7.00,+3.00,+18.00,+4.00,-2.00,-39.00,-57.00,+35.00,+60.00,+18.00
-22.00,-11.00,+6.00,+8.00,+24.00,+15.00,-14.00,+3.00,-13.00,-3.00,-4.00,-22.00,+35.00,+72.00,-29.00,-22.00
-11.00,-3.00,-11.00,-13.00,-50.00,+5.00,+5.00,+14.00,+17.00,+9.00,+9.00,+38.00,+87.00,-14.00,+32.00,+42.00
+17.00,-9.00,-14.00,-18.00,-55.00,-55.00,-21.00,+9.00,+27.00,+19.00,+14.00,+34.00,+37.00,+32.00,+54.00,+31.00
-16.00,+8.00,+6.00,+13.00,+6.00,-20.00,-22.00,-2.00,-17.00,-3.00,-4.00,+12.00,-6.00,-24.00,-89.00,-22.00
-19.00,-34.00,-18.00,-5.00,-59.00,-44.00,-4.00,-14.00,-22.00,-17.00,-7.00,-35.00,-30.00,-60.00,-62.00,-37.00
+5.00,-7.00,+1.00,+3.00,+73.00,+74.00,-28.00,-7.00,+11.00,+0.00,-9.00,-7.00,-28.00,+47.00,+45.00,+10.00
-14.00,+6.00,-2.00,-6.00,+55.00,+7.00,-47.00,-14.00,-16.00,-18.00,-22.00,-64.00,-65.00,-50.00,-5.00,-35.00
+9.00,-3.00,-4.00,-8.00,-73.00,-29.00,-40.00,+2.00,-2.00,+1.00,+0.00,-7.00,-16.00,-32.00,+20.00,+14.00
-11.00,+2.00,-1.00,-2.00,-20.00,+38.00,-79.00,-11.00,-1.00,-4.00,-5.00,-29.00,+56.00,+45.00,-31.00,+1.00
-1.00,+7.00,+5.00,+0.00,-47.00,-13.00,+51.00,+8.00,+9.00,+22.00,+21.00,+51.00,+81.00,+41.00,+2.00,-6.00
+12.00,+15.00,+5.00,-2.00,-96.00,-69.00,+0.00,+6.00,-2.00,-2.00,+3.00,+41.00,+28.00,-19.00,-11.00,-8.00
-11.00,-19.00,-8.00,-8.00,-51.00,-9.00,-22.00,-28.00,+7.00,+13.00,+26.00,+79.00,+49.00,+79.00,+56.00,+5.00
+1.00,-8.00,-3.00,-8.00,-18.00,-43.00,-34.00,-8.00,-11.00,-11.00,-15.00,-40.00,-35.00,-28.00,-18.00,-16.00
+6.00,+3.00,-3.00,+1.00,+68.00,+62.00,-7.00,-9.00,-3.00,-5.00,-1.00,+7.00,-14.00,-67.00,-18.00,+5.00
-14.00,+9.00,-3.00,-17.00,-128.00,+12.00,+21.00,-13.00,+9.00,+10.00,+11.00,+33.00,+58.00,+50.00,-56.00,+12.00
-17.00,+1.00,+2.00,+30.00,+127.00,-39.00,+35.00,+4.00,-16.00,-9.00,+2.00,+20.00,+19.00,+12.00,+22.00,-16.00
+3.00,-10.00,-3.00,-6.00,-83.00,+14.00,+45.00,+25.00,+11.00,+11.00,+10.00,+39.00,-28.00,-37.00,+47.00,+19.00
-25.00,-16.00,-11.00,-17.00,-96.00,-1.00,-32.00,-25.00,-1.00,-6.00,-12.00,-61.00,-74.00,+20.00,-53.00,+0.00
-10.00,-7.00,-4.00,+1.00,+32.00,-68.00,+85.00,+7.00,+13.00,+6.00,+8.00,+24.00,+33.00,+60.00,+80.00,+26.00
+3.00,-10.00,+0.00,+3.00,+25.00,+17.00,-9.00,-53.00,-10.00,-8.00,-3.00,+73.00,+79.00,-31.00,-18.00,-2.00
-2.00,+5.00,+0.00,-7.00,+16.00,+52.00,+21.00,+11.00,-7.00,-10.00,-22.00,-102.00,-69.00,+0.00,-11.00,-2.00
-16.00,-17.00,-5.00,+5.00,+42.00,+22.00,+7.00,+17.00,-13.00,-6.00,-9.00,-76.00,-80.00,-35.00,+14.00,-17.00
-6.00,+10.00,+7.00,+2.00,-17.00,-29.00,-20.00,+4.00,+16.00,+2.00,-3.00,-21.00,+3.00,+19.00,+36.00,+37.00
+62.00,+20.00,+11.00,-3.00,-22.00,-81.00,+12.00,+17.00,+1.00,+2.00,+5.00,+18.00,+58.00,+105.00,+23.00,-2.00
+4.00,+2.00,-2.00,-5.00,-71.00,-78.00,+61.00,+5.00,-5.00,-2.00,+4.00,+40.00,+52.00,-33.00,-10.00,+1.00
+11.00,+8.00,+1.00,-2.00,-20.00,+28.00,+26.00,+0.00,-9.00,-6.00,-3.00,+1.00,-16.00,-15.00,-48.00,-25.00
-16.00,-3.00,+0.00,-6.00,-61.00,+12.00,-11.00,-7.00,-21.00,-14.00,-5.00,-34.00,-61.00,-14.00,+37.00,+4.00
+6.00,-3.00,-3.00,+6.00,+99.00,+72.00,-10.00,+7.00,+7.00,+2.00,+1.00,-14.00,-85.00,-27.00,-4.00,+0.00
+10.00,+5.00,+3.00,+9.00,+20.00,+22.00,+9.00,+5.00,+28.00,+19.00,-6.00,-27.00,+4.00,-66.00,+29.00,+14.00
-9.00,-19.00,-6.00,-14.00,-86.00,+9.00,-4.00,-8.00,-15.00,-11.00,-6.00,+3.00,-9.00,-30.00,-73.00,-26.00
+10.00,+39.00,+5.00,-2.00,+0.00,-5.00,-56.00,-4.00,-14.00,-7.00,-2.00,+35.00,+51.00,-6.00,-51.00,-51.00
+8.00,+14.00,+3.00,+0.00,-49.00,+5.00,+8.00,+22.00,-35.00,-22.00,-16.00,-33.00,-88.00,-18.00,+37.00,-24.00
+12.00,+8.00,+7.00,+7.00,+38.00,-15.00,-43.00,+5.00,-2.00,-11.00,+0.00,+38.00,+12.00,+29.00,+11.00,-9.00
-18.00,-11.00,-4.00,+2.00,+18.00,+20.00,-17.00,-12.00,+4.00,+3.00,+3.00,-4.00,+10.00,-34.00,+0.00,+10.00
-4.00,-2.00,+5.00,+7.00,+14.00,+50.00,-2.00,-13.00,-4.00,+0.00,+5.00,+9.00,+67.00,+66.00,-27.00,+11.00
-8.00,+2.00,+7.00,-2.00,-36.00,-30.00,+1.00,+11.00,+29.00,+17.00,+12.00,+46.00,+61.00,+68.00,-17.00,+6.00
+4.00,+13.00,-3.00,-15.00,-47.00,+52.00,-28.00,-6.00,+27.00,+10.00,+4.00,-35.00,-21.00,-11.00,+10.00,+20.00
+13.00,-15.00,-8.00,-6.00,+6.00,-17.00,+35.00,-6.00,-3.00,+2.00,+1.00,+51.00,+48.00,+19.00,+0.00,-5.00
-14.00,-13.00,-9.00,-1.00,+74.00,+56.00,+13.00,+22.00,-1.00,-5.00,-3.00,+2.00,+5.00,-34.00,+3.00,+10.00
-17.00,-1.00,-2.00,+3.00,+54.00,+32.00,+11.00,+7.00,-8.00,-7.00,-8.00,-64.00,-43.00,-22.00,-6.00,+6.00
+2.00,+0.00,-1.00,-3.00,-27.00,-24.00,+33.00,-14.00,+5.00,+4.00,+6.00,+38.00,-39.00,+34.00,+9.00,+4.00
+4.00,+5.00,+5.00,+5.00,+32.00,+25.00,+13.00,-11.00,+31.00,+11.00,+4.00,+35.00,+29.00,+37.00,+48.00,+18.00
-2.00,-13.00,-5.00,-3.00,-46.00,-39.00,+14.00,+4.00,+10.00,+13.00,+8.00,-10.00,-48.00,-1.00,+12.00,+3.00
-3.00,-4.00,-4.00,+0.00,+63.00,+26.00,-1.00,-10.00,-13.00,-9.00,-11.00,-10.00,+21.00,-21.00,-21.00,-14.00
-3.00,-13.00,-4.00,+4.00,+28.00,+8.00,+8.00,+4.00,-31.00,-13.00,-2.00,-17.00,-34.00,-16.00,-31.00,-12.00
+9.00,+13.00,+2.00,-1.00,-60.00,-69.00,+8.00,-1.00,-3.00,+3.00,+7.00,+24.00,+31.00,+47.00,+78.00,+12.00
+11.00,-4.00,-2.00,+2.00,-3.00,+8.00,-16.00,-10.00,+2.00,-8.00,-11.00,-1.00,-12.00,-37.00,-29.00,-4.00
-17.00,-8.00,-6.00,-10.00,-96.00,+29.00,-20.00,+21.00,-3.00,-4.00,-9.00,-70.00,-57.00,-42.00,+12.00,-8.00
-48.00,-15.00,-9.00,-9.00,-46.00,-54.00,-31.00,-11.00,+16.00,+15.00,+9.00,+2.00,-3.00,-27.00,+16.00,+8.00
-12.00,+5.00,+4.00,+9.00,+45.00,-11.00,-28.00,-8.00,-11.00,-5.00,+0.00,+15.00,+63.00,+71.00,+29.00,-11.00
-11.00,-19.00,-2.00,-10.00,-43.00,-4.00,-11.00,-2.00,+12.00,+3.00,+0.00,-8.00,-42.00,-61.00,-1.00,+9.00
+4.00,+14.00,-6.00,-20.00,-97.00,-3.00,-25.00,-15.00,+19.00,+9.00,+10.00,+43.00,+74.00,+48.00,+8.00,+16.00
+25.00,+12.00,+4.00,+17.00,+127.00,+17.00,+21.00,+8.00,-7.00,-11.00,-1.00,+37.00,-27.00,-5.00,-51.00,-17.00
+12.00,+7.00,+3.00,+5.00,-22.00,-56.00,-9.00,+23.00,-5.00,-5.00,-8.00,-34.00,-56.00,-15.00,+35.00,+7.00
-12.00,-2.00,+0.00,+6.00,+51.00,+10.00,+4.00,+8.00,+0.00,+1.00,+0.00,-10.00,+3.00,-27.00,+24.00,-4.00
-11.00,-23.00,-8.00,-7.00,+6.00,+10.00,+22.00,-5.00,-15.00,-11.00,-7.00,+13.00,-37.00,+5.00,-2.00,-16.00
+18.00,+11.00,+14.00,+13.00,+40.00,+0.00,+30.00,+15.00,+0.00,+1.00,+4.00,+30.00,-4.00,-39.00,-18.00,+6.00
-8.00,+0.00,-7.00,-9.00,-10.00,+24.00,-35.00,-19.00,-12.00,-5.00,-1.00,-14.00,+16.00,-24.00,-22.00,-23.00
+4.00,-13.00,-8.00,-1.00,+50.00,-11.00,-5.00,+2.00,+15.00,+9.00,+6.00,+27.00,+5.00,+22.00,-4.00,-23.00
+8.00,-10.00,+3.00,+8.00,+62.00,-10.00,+20.00,+2.00,+3.00,+4.00,+5.00,+43.00,+64.00,-40.00,+52.00,+41.00
+14.00,+30.00,+13.00,+12.00,+45.00,+13.00,+3.00,+21.00,-14.00,-11.00,-16.00,-58.00,-28.00,+6.00,-15.00,-20.00
-6.00,+10.00,+3.00,+0.00,+4.00,+30.00,+6.00,+5.00,-7.00,-5.00,+0.00,+21.00,+1.00,-14.00,-20.00,-4.00
+38.00,-4.00,+3.00,+2.00,-30.00,-8.00,+2.00,-21.00,+3.00,+2.00,+6.00,+9.00,-8.00,+12.00,-3.00,+11.00
-34.00,+6.00,+3.00,+1.00,+5.00,+4.00,+21.00,+11.00,-6.00,+1.00,+6.00,+14.00,+25.00,+21.00,+13.00,-14.00
+9.00,-5.00,-3.00,-3.00,+23.00,-14.00,+17.00,+7.00,+5.00,-2.00,-6.00,-6.00,+52.00,+43.00,+52.00,+15.00
+18.00,+4.00,+2.00,+1.00,-81.00,-34.00,+6.00,+4.00,-4.00,+6.00,+6.00,-3.00,-16.00,+85.00,+30.00,-2.00
-6.00,-4.00,-1.00,+12.00,+98.00,+56.00,+34.00,+10.00,+0.00,+1.00,-1.00,-5.00,-8.00,+58.00,+10.00,+12.00
+6.00,-1.00,-8.00,-7.00,+4.00,-30.00,-11.00,-30.00,-2.00,+2.00,-2.00,-17.00,+16.00,-10.00,-7.00,-4.00
-7.00,-14.00,-9.00,-11.00,-94.00,+10.00,-43.00,-36.00,-11.00,-1.00,+10.00,+52.00,+58.00,+20.00,-6.00,+4.00
-18.00,-8.00,-2.00,+3.00,+54.00,+0.00,+28.00,+10.00,+16.00,+3.00,-12.00,-66.00,-70.00,-60.00,-21.00,-1.00
-14.00,+3.00,-1.00,+1.00,+0.00,+17.00,+13.00,-4.00,+2.00,+1.00,+4.00,+12.00,+34.00,-10.00,+3.00,-2.00
-10.00,-12.00,-9.00,-8.00,-26.00,-18.00,-20.00,-14.00,-6.00,-2.00,-1.00,-5.00,+8.00,+0.00,-83.00,-6.00
-6.00,-7.00,-7.00,-10.00,+6.00,+22.00,+40.00,-10.00,+10.00,+11.00,+7.00,+4.00,+10.00,+8.00,+69.00,+19.00
+11.00,-5.00,-6.00,-5.00,+5.00,-9.00,+13.00,+13.00,+13.00,+5.00,+3.00,-4.00,-26.00,-9.00,-16.00,+14.00
-11.00,+7.00,+4.00,+3.00,-31.00,-1.00,+3.00,+2.00,-16.00,-7.00,-6.00,+22.00,+15.00,-53.00,+3.00,+2.00
+21.00,-4.00,-9.00,-9.00,-47.00,-8.00,+23.00,+24.00,-6.00,-7.00,-9.00,-38.00,-49.00,-119.00,-34.00,-19.00
-19.00,-22.00,-12.00,-6.00,+18.00,-19.00,+2.00,-14.00,-8.00,-5.00,-2.00,-13.00,-58.00,+25.00,+6.00,-2.00
+13.00,+16.00,+6.00,+3.00,+7.00,+7.00,-17.00,-7.00,-8.00,-3.00,+1.00,+22.00,+43.00,+54.00,-8.00,-16.00
-3.00,+8.00,+7.00,+6.00,-27.00,+1.00,+6.00,+8.00,+13.00,+10.00,+9.00,+34.00,+83.00,+20.00,-15.00,+1.00
+0.00,+1.00,+1.00,+4.00,+76.00,-26.00,+39.00,+14.00,-10.00,-12.00,-12.00,-65.00,-70.00,-53.00,-49.00,-20.00
-12.00,-9.00,-3.00,+1.00,-8.00,-7.00,+1.00,+1.00,-10.00,-3.00,-2.00,+11.00,+39.00,+61.00,-23.00,-11.00
-10.00,-8.00,-6.00,-9.00,+3.00,+30.00,+7.00,-13.00,-2.00,-8.00,+0.00,+3.00,+40.00,+12.00,-1.00,-3.00
+9.00,+9.00,+3.00,+6.00,+6.00,-59.00,-15.00,+15.00,-47.00,-24.00,-14.00,-12.00,-16.00,-10.00,-19.00,-25.00
-6.00,-12.00,-5.00,+0.00,-14.00,-7.00,-29.00,-26.00,+34.00,+13.00,+0.00,+17.00,+17.00,+45.00,-35.00,-1.00
+8.00,+8.00,+2.00,-3.00,-66.00,+12.00,-14.00,+0.00,+12.00,+13.00,+10.00,+9.00,+12.00,-4.00,-4.00,+1.00
+3.00,+5.00,+1.00,+3.00,+90.00,+6.00,+29.00,+0.00,-7.00,+0.00,-5.00,-33.00,+18.00,-14.00,+8.00,-5.00
+0.00,+2.00,-4.00,-9.00,-47.00,-31.00,-39.00,+3.00,+2.00,+1.00,+3.00,+11.00,+31.00,+99.00,+21.00,+9.00
+9.00,+6.00,+9.00,+1.00,-84.00,-29.00,-16.00,+1.00,-6.00,-9.00,-5.00,-11.00,-35.00,-37.00,+16.00,+4.00
+8.00,+1.00,+1.00,+5.00,+6.00,+27.00,+5.00,+6.00,+20.00,+9.00,+0.00,-9.00,+9.00,+50.00,+28.00,+26.00
-12.00,-12.00,-4.00,+0.00,+1.00,-4.00,-7.00,-6.00,+4.00,+1.00,-1.00,+20.00,-1.00,+6.00,+15.00,+5.00
-8.00,-12.00,-9.00,-6.00,+14.00,+30.00,+23.00,-3.00,-3.00,+2.00,+2.00,-1.00,+6.00,-16.00,-5.00,+2.00
-1.00,-14.00,-9.00,-5.00,-2.00,+21.00,-13.00,+1.00,-3.00,+0.00,+4.00,+9.00,+77.00,+11.00,+17.00,+10.00
+1.00,+5.00,-1.00,-7.00,-66.00,-40.00,-47.00,-9.00,-8.00,-6.00,-6.00,-3.00,+3.00,+30.00,+25.00,-3.00
-5.00,-5.00,-1.00,-3.00,-25.00,-33.00,-21.00,+8.00,+2.00,+1.00,+0.00,+15.00,-38.00,-29.00,+0.00,+4.00
-14.00,-11.00,-1.00,+4.00,+28.00,-7.00,+12.00,-3.00,+20.00,+7.00,+0.00,+1.00,-24.00,+43.00,+13.00,+19.00
+5.00,+5.00,+6.00,+20.00,+127.00,+52.00,+47.00,+8.00,-18.00,-12.00,-13.00,-38.00,-39.00,+17.00,+6.00,-14.00
+4.00,-3.00,+3.00,+2.00,-31.00,-4.00,+14.00,+1.00,+31.00,+15.00,+7.00,+29.00,+18.00,-43.00,-13.00,+0.00
-5.00,-5.00,+1.00,-2.00,+16.00,+34.00,-15.00,+1.00,+3.00,+4.00,+4.00,+14.00,-12.00,-20.00,-13.00,+10.00
-4.00,-3.00,-3.00,+4.00,+35.00,-48.00,+2.00,+1.00,+3.00,+2.00,-4.00,-4.00,-17.00,+1.00,+0.00,+0.00
-12.00,+1.00,-4.00,-8.00,-69.00,-10.00,-21.00,-15.00,-24.00,-4.00,+7.00,+14.00,-43.00,+39.00,-7.00,-14.00
+3.00,-9.00,-2.00,+5.00,+45.00,+16.00,+2.00,+0.00,-7.00,-19.00,-14.00,-32.00,-81.00,-93.00,-15.00,-4.00
+3.00,+3.00,-1.00,+1.00,-3.00,-8.00,-10.00,-7.00,-6.00,-6.00,-6.00,-7.00,-1.00,+79.00,-14.00,-9.00
-9.00,+0.00,+1.00,-3.00,-32.00,-12.00,-1.00,-11.00,-5.00,-2.00,+6.00,+21.00,+35.00,-38.00,-13.00,-2.00
+1.00,+7.00,+4.00,+3.00,+7.00,-33.00,+9.00,+3.00,+14.00,+4.00,+7.00,+28.00,+1.00,-10.00,-12.00,-6.00
+11.00,+17.00,+4.00,-1.00,-27.00,-16.00,+30.00,+7.00,-1.00,+4.00,+3.00,+12.00,+21.00,-23.00,-20.00,+8.00
+1.00,-10.00,-4.00,-5.00,-10.00,+48.00,+0.00,-4.00,-5.00,-5.00,-8.00,-14.00,-13.00,-72.00,-55.00,-13.00
+9.00,+2.00,-3.00,+3.00,+51.00,-2.00,-3.00,+7.00,-16.00,-7.00,-1.00,+6.00,+17.00,-55.00,-20.00,-18.00
+32.00,+33.00,+13.00,+5.00,-8.00,+47.00,+5.00,+15.00,-4.00,+1.00,+0.00,-11.00,-3.00,+42.00,+46.00,+8.00
-4.00,-5.00,-3.00,+2.00,+104.00,-16.00,+12.00,+5.00,+0.00,-2.00,+0.00,+6.00,+1.00,-11.00,-18.00,-5.00
+8.00,+12.00,+4.00,+5.00,-18.00,-18.00,-22.00,-1.00,+7.00,+3.00,+4.00,+17.00,+39.00,-13.00,+11.00,-9.00
-6.00,-4.00,-3.00,-10.00,-79.00,+6.00,+19.00,-4.00,+12.00,+2.00,-7.00,-40.00,-71.00,-26.00,-5.00,+8.00
+1.00,-5.00,-4.00,-1.00,+35.00,-36.00,-11.00,+7.00,+10.00,+5.00,-1.00,+13.00,-2.00,-11.00,-30.00,+4.00
+0.00,+0.00,-3.00,-2.00,-11.00,+7.00,-12.00,-1.00,+2.00,+5.00,-2.00,-11.00,+21.00,+1.00,+26.00,-8.00
+4.00,-3.00,-1.00,+2.00,-18.00,-16.00,-10.00,+6.00,-10.00,-4.00,-2.00,-8.00,-8.00,-32.00,+5.00,+7.00
-11.00,-8.00,-3.00,-10.00,-46.00,-6.00,-57.00,-10.00,+7.00,-2.00,-3.00,+4.00,-36.00,+50.00,+2.00,-9.00
-7.00,+1.00,+4.00,+4.00,+9.00,+26.00,-9.00,-17.00,+7.00,+0.00,+0.00,+6.00,+1.00,-94.00,-34.00,+12.00
+3.00,+6.00,+3.00,+3.00,-34.00,-31.00,-6.00,+6.00,-14.00,-9.00,-4.00,-21.00,-33.00,+76.00,+32.00,-6.00
-4.00,-7.00,-1.00,-1.00,-32.00,-14.00,+27.00,+4.00,-4.00,-4.00,+2.00,+22.00,+29.00,+21.00,-8.00,-9.00
-8.00,-6.00,+0.00,+7.00,+56.00,+45.00,-3.00,-15.00,-10.00,-9.00,-10.00,-12.00,+7.00,+3.00,-25.00,-8.00
+7.00,+11.00,+0.00,-1.00,+22.00,-32.00,+35.00,+9.00,+7.00,+8.00,+9.00,+6.00,+29.00,+30.00,+15.00,+8.00
-15.00,-8.00,-5.00,-1.00,+23.00,-7.00,-54.00,-14.00,-12.00,-7.00,-9.00,-22.00,-28.00,-35.00,-19.00,-6.00
-3.00,-2.00,-1.00,+4.00,+18.00,+22.00,+31.00,+11.00,+14.00,+7.00,+3.00,+8.00,+20.00,-36.00,+8.00,+5.00
+0.00,+8.00,+6.00,-11.00,-101.00,+7.00,-38.00,-13.00,-2.00,-7.00,-12.00,-24.00,-32.00,-12.00,+2.00,-11.00
+1.00,-6.00,-10.00,-6.00,+45.00,+16.00,+10.00,+9.00,-6.00,+4.00,+4.00,+24.00,+32.00,+3.00,+33.00,-1.00
-1.00,-3.00,-2.00,+1.00,+21.00,+25.00,+27.00,-5.00,+7.00,+7.00,+7.00,+32.00,+50.00,+58.00,+30.00,+11.00
-3.00,+7.00,+5.00,+0.00,-32.00,-21.00,+2.00,-1.00,-12.00,-4.00,-3.00,-30.00,-48.00,+37.00,-36.00,+1.00
+2.00,+3.00,+0.00,-4.00,-35.00,-8.00,-14.00,+1.00,+4.00,+3.00,+4.00,+24.00,+18.00,-32.00,-11.00,+1.00
-16.00,-17.00,-3.00,-2.00,+1.00,-19.00,-13.00,-5.00,-6.00,-10.00,-14.00,-75.00,-99.00,-20.00,-12.00,-8.00
+5.00,-3.00,+3.00,+4.00,+25.00,+39.00,+38.00,+9.00,-20.00,-9.00,+3.00,+18.00,+47.00,-24.00,-49.00,-11.00
-5.00,-1.00,-5.00,-6.00,-14.00,+17.00,-9.00,-9.00,-4.00,-3.00,-6.00,-1.00,+26.00,-6.00,+41.00,+1.00
+9.00,+2.00,+0.00,-3.00,-41.00,-29.00,+35.00,+18.00,+7.00,+6.00,+6.00,-27.00,+6.00,+21.00,-12.00,+19.00
-12.00,-9.00,-5.00,-2.00,-18.00,+35.00,-20.00,-16.00,-15.00,-16.00,-10.00,+5.00,+34.00,+1.00,-3.00,-5.00
-7.00,+5.00,-2.00,-6.00,-17.00,+18.00,-24.00,-5.00,-10.00,-7.00,-2.00,-2.00,-6.00,-6.00,-26.00,-18.00
-4.00,-2.00,-1.00,+2.00,+5.00,-39.00,-44.00,-9.00,+0.00,-2.00,-4.00,-22.00,-45.00,-16.00,-4.00,-3.00
+0.00,+3.00,+0.00,+5.00,+71.00,+32.00,+23.00,-13.00,-2.00,-2.00,-4.00,-10.00,-10.00,-44.00,+14.00,+2.00
-7.00,-11.00,-4.00,-6.00,-63.00,-21.00,-20.00,-11.00,+6.00,+8.00,+4.00,+4.00,+10.00,+28.00,+41.00,+2.00
+1.00,+2.00,+0.00,-4.00,-51.00,-24.00,+36.00,+8.00,-12.00,-6.00,-3.00,-7.00,-7.00,-20.00,-7.00,-8.00
+8.00,+5.00,+1.00,-1.00,+31.00,+14.00,+12.00,+14.00,+1.00,-3.00,+2.00,+16.00,+24.00,+23.00,+12.00,+2.00
+6.00,+11.00,+1.00,+2.00,+1.00,+7.00,+3.00,-2.00,+7.00,+2.00,-1.00,+5.00,-6.00,+18.00,+42.00,+2.00
-3.00,-7.00,+0.00,+0.00,-24.00,+6.00,-2.00,+0.00,+5.00,+4.00,+3.00,+33.00,+37.00,-21.00,+6.00,+4.00
-4.00,-5.00,-4.00,-2.00,+4.00,-1.00,-16.00,-7.00,+0.00,+3.00,+0.00,-3.00,-42.00,-41.00,-15.00,-3.00
+0.00,-9.00,-2.00,+0.00,+14.00,+16.00,-2.00,+5.00,-7.00,-3.00,-3.00,-11.00,-2.00,-1.00,-72.00,-19.00
+6.00,+0.00,-2.00,-1.00,+21.00,-5.00,-3.00,+12.00,-10.00,-7.00,-1.00,+3.00,+30.00,-1.00,-33.00,-13.00
+11.00,+17.00,+12.00,+12.00,+7.00,-34.00,-39.00,-5.00,-16.00,-18.00,-12.00,-26.00,-36.00,+21.00,+0.00,-8.00
+19.00,+9.00,+8.00,+9.00,+19.00,-27.00,-8.00,+16.00,-7.00,-3.00,+2.00,+23.00,+42.00,+5.00,+22.00,+4.00
-2.00,-1.00,-1.00,+3.00,+20.00,-17.00,-49.00,-12.00,+4.00,+1.00,+2.00,-4.00,-15.00,-36.00,-7.00,-5.00
+0.00,-10.00,-5.00,-2.00,+7.00,+0.00,+21.00,+18.00,-12.00,+0.00,-2.00,-7.00,-21.00,+4.00,-3.00,-10.00
-16.00,-19.00,-11.00,-7.00,-23.00,+6.00,-11.00,-15.00,+38.00,+25.00,+7.00,+12.00,+10.00,+0.00,+7.00,+11.00
-9.00,-15.00,-5.00,-5.00,-21.00,+6.00,-5.00,-6.00,-14.00,-8.00,-1.00,+13.00,+19.00,-12.00,-22.00,-3.00
+14.00,+11.00,+4.00,+1.00,-19.00,-17.00,+22.00,+7.00,-11.00,-8.00,-5.00,-16.00,-21.00,-13.00,+42.00,+5.00
+6.00,+31.00,+11.00,+5.00,+27.00,+7.00,+6.00,+4.00,-10.00,-11.00,-8.00,-23.00,-21.00,+6.00,+12.00,-2.00
+6.00,+8.00,+5.00,+2.00,+2.00,+11.00,-8.00,+8.00,-23.00,-13.00,-3.00,+2.00,+15.00,+9.00,+16.00,-3.00
+3.00,+7.00,-2.00,-3.00,-15.00,+19.00,+33.00,+13.00,+28.00,+5.00,+2.00,-11.00,-25.00,-1.00,+3.00,+2.00
-8.00,-9.00,-2.00,+5.00,+53.00,-16.00,+8.00,-6.00,-3.00,-7.00,-7.00,+14.00,+24.00,+15.00,+0.00,-1.00
-11.00,-19.00,-1.00,-1.00,-8.00,-8.00,-8.00,-5.00,+2.00,+2.00,-1.00,+0.00,+3.00,+2.00,+0.00,+9.00
-17.00,-21.00,-11.00,-5.00,-7.00,-4.00,+5.00,-5.00,+8.00,+14.00,+7.00,+3.00,+6.00,-16.00,-3.00,+6.00
-1.00,-3.00,-3.00,-3.00,+15.00,-7.00,-20.00,-10.00,-13.00,-7.00,-2.00,-9.00,-5.00,+18.00,+3.00,-6.00
-1.00,+8.00,-1.00,-7.00,-29.00,+6.00,-1.00,-4.00,+9.00,-5.00,-2.00,+0.00,+4.00,-16.00,+17.00,+16.00
+3.00,+13.00,+4.00,+0.00,-4.00,+3.00,-6.00,-2.00,+7.00,+4.00,+5.00,+9.00,-9.00,-1.00,-10.00,-5.00
+5.00,+3.00,+1.00,+2.00,-14.00,-14.00,+3.00,+7.00,-27.00,-18.00,+6.00,-20.00,-17.00,-7.00,-32.00,-20.00
-14.00,-27.00,-11.00,-4.00,-16.00,-31.00,-9.00,-9.00,+14.00,+6.00,-11.00,-6.00,+0.00,+14.00,+11.00,-3.00
+2.00,+27.00,+7.00,+4.00,+7.00,+20.00,-14.00,+0.00,+9.00,-4.00,-12.00,+5.00,+9.00,-5.00,+5.00,+9.00
-8.00,-24.00,+2.00,+2.00,+25.00,+19.00,-3.00,-4.00,-4.00,+2.00,+2.00,+16.00,+8.00,+38.00,+4.00,+8.00
-18.00,-33.00,-20.00,-8.00,-15.00,+1.00,+12.00,-3.00,+18.00,+10.00,+2.00,-7.00,+27.00,-50.00,-12.00,+5.00
+4.00,-2.00,-6.00,-6.00,-8.00,-8.00,-10.00,-4.00,-11.00,-6.00,+4.00,-11.00,-7.00,+66.00,+32.00,+1.00
+41.00,+74.00,+23.00,+2.00,-36.00,+6.00,+9.00,+10.00,-6.00,+0.00,+14.00,-7.00,-10.00,+10.00,-8.00,-8.00
+1.00,+10.00,-4.00,-3.00,+12.00,+19.00,-16.00,-4.00,-4.00,-5.00,+24.00,+7.00,+14.00,+2.00,-10.00,-7.00
+7.00,+14.00,+13.00,+8.00,+30.00,+5.00,+32.00,+2.00,+0.00,-21.00,-65.00,+0.00,-8.00,+4.00,+1.00,-1.00
-13.00,-18.00,-8.00,-3.00,+8.00,-2.00,-7.00,-5.00,+18.00,+9.00,-4.00,-5.00,-12.00,-20.00,+0.00,+13.00
-38.00,-63.00,-15.00,-7.00,-6.00,+2.00,-5.00,-19.00,+6.00,+5.00,-9.00,-6.00,+11.00,-12.00,+1.00,+0.00
-8.00,-35.00,-32.00,-11.00,-40.00,-9.00,-13.00,-10.00,-6.00,+0.00,+4.00,-16.00,-18.00,-14.00,+15.00,-5.00
+42.00,+88.00,+50.00,+9.00,+6.00,+12.00,+6.00,+16.00,-15.00,-1.00,+21.00,+10.00,+5.00,+16.00,+0.00,-7.00
+4.00,+2.00,+4.00,-1.00,-42.00,-13.00,-8.00,-2.00,-12.00,-26.00,-15.00,-12.00,-18.00,-23.00,-9.00,-4.00
+2.00,+3.00,+7.00,+5.00,+59.00,+28.00,+21.00,+6.00,+3.00,+14.00,+9.00,+28.00,+13.00,+17.00,+5.00,-2.00
-3.00,-4.00,-2.00,-2.00,+5.00,-7.00,-1.00,-7.00,-11.00,+0.00,+4.00,-1.00,+3.00,-17.00,-9.00,-8.00
-14.00,-23.00,-20.00,-6.00,+6.00,+1.00,-11.00,+4.00,+6.00,+6.00,+4.00,-5.00,-8.00,+20.00,-7.00,-2.00
+6.00,-2.00,+8.00,+4.00,-8.00,+5.00,+1.00,+7.00,-4.00,+1.00,-4.00,-4.00,+3.00,-2.00,+11.00,+7.00
-7.00,-2.00,-3.00,-5.00,-30.00,-8.00,-12.00,-10.00,-14.00,+5.00,+26.00,-1.00,-4.00,-11.00,-5.00,+1.00
+3.00,+8.00,+2.00,+2.00,-5.00,-13.00,-24.00,+6.00,+10.00,-1.00,-13.00,-6.00,-1.00,+1.00,-18.00,-2.00
+0.00,-10.00,-10.00,-4.00,+20.00,+29.00,+15.00,+1.00,+9.00,+11.00,-7.00,+5.00,+9.00,+14.00,+1.00,+4.00
+8.00,+14.00,+4.00,-2.00,+11.00,-3.00,-12.00,-10.00,-7.00,-8.00,-1.00,-4.00,-31.00,-21.00,+10.00,-2.00
-25.00,-50.00,-33.00,-10.00,-13.00,-3.00,+2.00,+2.00,-26.00,-13.00,-5.00,+18.00,+18.00,-1.00,-7.00,-10.00
-17.00,-30.00,+0.00,-1.00,+9.00,-1.00,-2.00,-6.00,+9.00,+0.00,-8.00,-46.00,-52.00,-23.00,+27.00,+4.00
+14.00,+29.00,+17.00,+3.00,-53.00,-40.00,-15.00,+2.00,+10.00,+4.00,+6.00,-8.00,-7.00,-24.00,-27.00,+1.00
+24.00,+48.00,+14.00,+7.00,+50.00,+23.00,-11.00,+10.00,+10.00,+11.00,+6.00,-1.00,-9.00,+24.00,-4.00,-2.00
+6.00,+1.00,-3.00,+0.00,-19.00,+18.00,+2.00,-8.00,-3.00,+1.00,+7.00,-11.00,-17.00,+8.00,+8.00,-2.00
+9.00,+4.00,-2.00,+2.00,+16.00,+0.00,+31.00,+13.00,-16.00,-10.00,-17.00,+1.00,+10.00,-1.00,-7.00,-3.00
-11.00,-13.00,+0.00,-3.00,-6.00,+2.00,-2.00,-7.00,-7.00,-8.00,+1.00,+4.00,+6.00,+4.00,+11.00,-9.00
-18.00,-22.00,-10.00,-1.00,+20.00,+5.00,+7.00,-11.00,+17.00,+9.00,+0.00,-3.00,+6.00,-30.00,+4.00,+1.00
+8.00,-5.00,-15.00,-6.00,-16.00,-15.00,+0.00,+3.00,+5.00,+2.00,+0.00,+2.00,-1.00,+18.00,+5.00,+0.00
+5.00,+5.00,+7.00,-1.00,-2.00,+8.00,-1.00,+2.00,-3.00,-1.00,+9.00,+7.00,+5.00,+0.00,-12.00,-11.00
-13.00,-9.00,-4.00,-1.00,-2.00,-1.00,-13.00,-8.00,-11.00,-3.00,-7.00,+1.00,-2.00,-1.00,-16.00,+7.00
-4.00,+0.00,+2.00,+0.00,-12.00,+8.00,+2.00,+4.00,-10.00,-6.00,+3.00,+9.00,+8.00,-4.00,-1.00,-6.00
+1.00,+3.00,+1.00,-4.00,+9.00,-1.00,+8.00,+5.00,+28.00,+8.00,-12.00,+4.00,-3.00,-3.00,-4.00,+15.00
-3.00,-3.00,-2.00,-5.00,-16.00,-11.00,+0.00,-4.00,-16.00,-2.00,-1.00,+21.00,+28.00,-7.00,+13.00,-5.00
+1.00,-13.00,+1.00,+2.00,+13.00,+1.00,-2.00,+5.00,-8.00,-8.00,+8.00,-11.00,-21.00,+34.00,-4.00,-10.00
+5.00,-2.00,-8.00,-4.00,-11.00,-6.00,-5.00,-3.00,-7.00,-4.00,-2.00,-8.00,-2.00,-1.00,-16.00,-7.00
-4.00,+10.00,+12.00,+8.00,+5.00,-11.00,+25.00,+5.00,-24.00,-10.00,-2.00,+3.00,+14.00,+5.00,+5.00,-8.00
+4.00,+5.00,-3.00,+1.00,+11.00,+11.00,+12.00,+3.00,+8.00,+1.00,-3.00,-3.00,-8.00,-19.00,-13.00,-3.00
-6.00,-9.00,-7.00,-1.00,+24.00,+11.00,-28.00,-15.00,+8.00,+4.00,+4.00,+11.00,+7.00,+12.00,-4.00,+11.00
-6.00,-3.00,-1.00,-2.00,+0.00,+7.00,+5.00,+1.00,-6.00,+1.00,+2.00,+4.00,+17.00,-36.00,-9.00,+0.00
-6.00,-20.00,-5.00,-1.00,+31.00,-1.00,-6.00,+1.00,+4.00,-2.00,-1.00,-8.00,-39.00,+9.00,-12.00,-4.00
+5.00,+21.00,+4.00,+0.00,-11.00,-15.00,-10.00,+5.00,-8.00,-5.00,-4.00,-1.00,+19.00,+20.00,+29.00,+11.00
-6.00,-19.00,-8.00,-5.00,-15.00,+10.00,-2.00,+1.00,+28.00,+20.00,+10.00,+0.00,+3.00,+8.00,+3.00,+2.00
+2.00,+12.00,-1.00,-2.00,-11.00,-16.00,+1.00,+0.00,-8.00,-14.00,+4.00,+5.00,+8.00,-1.00,-9.00,-9.00
+12.00,+21.00,+9.00,+2.00,-6.00,-10.00,-7.00,-2.00,-9.00,-14.00,-13.00,-9.00,-2.00,-26.00,-4.00,-13.00
-5.00,+0.00,+2.00,-2.00,+1.00,-6.00,-9.00,-6.00,+8.00,-8.00,-32.00,-3.00,-9.00,-4.00,-9.00,+8.00
-1.00,-5.00,-13.00,-7.00,-16.00,-12.00,-1.00,+0.00,+9.00,+8.00,+0.00,+6.00,+8.00,+0.00,+13.00,+6.00
-14.00,-13.00,+6.00,+2.00,+17.00,+9.00,+2.00,-4.00,-3.00,+9.00,+0.00,-10.00,-11.00,+8.00,-4.00,+1.00
+4.00,-6.00,-8.00,-2.00,-14.00,-7.00,-4.00,+0.00,+8.00,+13.00,+18.00,-2.00,-1.00,-9.00,+2.00,+0.00
+12.00,+39.00,+17.00,+3.00,+5.00,+3.00,-8.00,-2.00,-19.00,-15.00,+5.00,+1.00,-7.00,+9.00,-9.00,-9.00
+2.00,-2.00,-9.00,-7.00,-18.00,-11.00,+8.00,+4.00,-18.00,-12.00,+3.00,+22.00,+37.00,+4.00,+7.00,-10.00
-6.00,-2.00,-7.00,-5.00,-14.00,+19.00,-2.00,-7.00,+7.00,-3.00,-30.00,-47.00,-50.00,-8.00,-1.00,+5.00
-2.00,+4.00,+5.00,+6.00,+13.00,-6.00,+0.00,-3.00,+14.00,+6.00,-2.00,-9.00,+5.00,+4.00,+4.00,+3.00
-2.00,-31.00,-27.00,-12.00,-16.00,+13.00,+1.00,+1.00,+21.00,+26.00,+5.00,-4.00,-2.00,-1.00,-2.00,+8.00
+0.00,+11.00,+5.00,-10.00,-63.00,-19.00,-5.00,-2.00,-28.00,-14.00,+8.00,-8.00,-12.00,-9.00,-11.00,-3.00
-6.00,+11.00,+8.00,+6.00,+56.00,-5.00,+8.00,-2.00,+3.00,+1.00,+11.00,+24.00,+16.00,+4.00,-12.00,+3.00
-6.00,-10.00,-1.00,-3.00,+1.00,+1.00,+7.00,-4.00,+6.00,+5.00,-2.00,+3.00,-3.00,+1.00,-1.00,+2.00
-5.00,-8.00,-2.00,+0.00,+6.00,+0.00,-11.00,-2.00,+2.00,-5.00,+2.00,-3.00,+3.00,+1.00,-12.00,-1.00
-9.00,-20.00,-12.00,-8.00,-14.00,-3.00,-6.00,-10.00,+15.00,+2.00,-3.00,+2.00,+1.00,-1.00,+13.00,+7.00
-4.00,+0.00,-6.00,-2.00,-23.00,-6.00,-5.00,+0.00,+0.00,+1.00,+3.00,+8.00,+7.00,+7.00,+1.00,-2.00
-8.00,-26.00,-2.00,+2.00,-4.00,+4.00,-4.00,-2.00,+7.00,-1.00,-5.00,-7.00,-5.00,-2.00,-1.00,+5.00
+13.00,+23.00,+4.00,+1.00,+5.00,-1.00,+0.00,+0.00,-1.00,-3.00,-3.00,+7.00,-11.00,-7.00,-9.00,-8.00
+5.00,+2.00,+0.00,+0.00,+11.00,-2.00,+8.00,+3.00,-7.00,+2.00,+16.00,-4.00,-11.00,-6.00,+0.00,-4.00
+1.00,+1.00,+2.00,+3.00,+0.00,+11.00,-2.00,+0.00,-14.00,-9.00,-19.00,+8.00,+4.00,+1.00,-1.00,-8.00
+1.00,+6.00,+5.00,+0.00,+3.00,-9.00,-1.00,+3.00,+17.00,+4.00,-4.00,-20.00,+7.00,+0.00,-2.00,+4.00
-10.00,-29.00,-8.00,+0.00,-16.00,-7.00,+3.00,-2.00,+12.00,+3.00,-1.00,+9.00,+18.00,+5.00,+2.00,-5.00
-4.00,+4.00,-3.00,+2.00,+26.00,+9.00,-3.00,-3.00,-11.00,+18.00,-1.00,-15.00,-28.00,-7.00,-1.00,-11.00
+17.00,+14.00,-4.00,-6.00,-18.00,+26.00,+3.00,+8.00,+27.00,+18.00,+12.00,-1.00,+3.00,+4.00,+2.00,+8.00
+9.00,+14.00,+0.00,-7.00,-15.00,-11.00,-6.00,-3.00,-34.00,-44.00,-15.00,+11.00,+10.00,+0.00,-2.00,-9.00
-6.00,+4.00,+3.00,+2.00,+17.00,+2.00,+4.00,+4.00,-7.00,-6.00,+7.00,+33.00,+43.00,+18.00,+3.00,+6.00
-26.00,-38.00,+4.00,+8.00,+22.00,-3.00,+0.00,-6.00,-6.00,-15.00,-8.00,-17.00,-30.00,-4.00,+17.00,-2.00
+14.00,+0.00,-6.00,+2.00,-6.00,+4.00,+0.00,+2.00,+26.00,+15.00,+1.00,+1.00,+6.00,-2.00,-20.00,+8.00
-1.00,+17.00,-3.00,-11.00,-72.00,-27.00,-13.00,-6.00,-5.00,+19.00,+8.00,+0.00,-14.00,-3.00,+18.00,+4.00
-3.00,+7.00,+8.00,+5.00,+54.00,+45.00,+5.00,-1.00,-7.00,-25.00,-3.00,-3.00,+1.00,-6.00,-7.00,-4.00
+28.00,+40.00,-3.00,+5.00,+43.00,-2.00,+4.00,+19.00,+4.00,+2.00,-9.00,+4.00,+5.00,+1.00,-2.00,+0.00
-18.00,-43.00,-9.00,-4.00,-13.00,-18.00,+12.00,+6.00,-12.00,+3.00,+5.00,-5.00,-6.00,-1.00,-1.00,+3.00
-13.00,-1.00,-4.00,+0.00,+5.00,+14.00,-2.00,-10.00,+0.00,+6.00,-3.00,+7.00,+4.00,-5.00,-1.00,-3.00
+0.00,-23.00,-3.00,-3.00,-18.00,-14.00,+6.00,-1.00,+5.00,+17.00,+15.00,-13.00,-26.00,-6.00,-6.00,-3.00
+4.00,+20.00,+15.00,+9.00,+3.00,+2.00,-1.00,-3.00,-22.00,-19.00,-7.00,+3.00,+3.00,-5.00,-4.00,-9.00
+3.00,+3.00,+2.00,-1.00,+9.00,-12.00,-3.00,-2.00,+4.00,-23.00,-25.00,-9.00,-3.00,+5.00,+11.00,-3.00
+3.00,-5.00,-1.00,+1.00,+5.00,-3.00,+0.00,+7.00,-25.00,-12.00,+7.00,+0.00,+7.00,-3.00,-12.00,-9.00
-16.00,-24.00,-14.00,-4.00,-17.00,-11.00,-8.00,-9.00,+19.00,+18.00,-9.00,-5.00,-2.00,-2.00,+4.00,+2.00
-8.00,-27.00,-5.00,-5.00,-4.00,+7.00,+7.00,-3.00,+13.00,-1.00,+1.00,-1.00,+5.00,-2.00,-8.00,-2.00
+17.00,+46.00,+17.00,+8.00,+1.00,-11.00,-4.00,-1.00,-22.00,+2.00,+16.00,+6.00,+4.00,-1.00,+3.00,-10.00
-4.00,+0.00,-5.00,-3.00,+5.00,+5.00,-2.00,-10.00,-2.00,+2.00,+7.00,+5.00,+17.00,-2.00,-4.00,-8.00
+8.00,+22.00,+10.00,+3.00,-5.00,-3.00,+1.00,+4.00,-3.00,-32.00,-35.00,-12.00,-31.00,-7.00,-7.00,+3.00
-7.00,-19.00,-5.00,-1.00,-5.00,-2.00,-4.00,-19.00,-16.00,-4.00,-5.00,+0.00,-1.00,-2.00,-2.00,-12.00
-19.00,-33.00,-32.00,-14.00,-11.00,-8.00,-1.00,+0.00,+17.00,+13.00,+7.00,+7.00,+13.00,+7.00,+7.00,+12.00
-2.00,-17.00,+11.00,+1.00,-14.00,-11.00,-4.00,+2.00,+14.00,+27.00,+10.00,-9.00,+5.00,+3.00,+0.00,+24.00
+27.00,+35.00,+15.00,+5.00,+19.00,+20.00,+2.00,+0.00,-25.00,-4.00,+8.00,-19.00,-23.00,-8.00,-4.00,-20.00
-14.00,+5.00,+3.00,-2.00,-17.00,-8.00,-2.00,+9.00,+14.00,+6.00,+1.00,+5.00,+8.00,+3.00,+12.00,+4.00
-11.00,-6.00,+3.00,-2.00,-48.00,-42.00,-15.00,-13.00,-31.00,-21.00,-5.00,-3.00,-11.00,-9.00,+2.00,+10.00
-3.00,-10.00,-15.00,+1.00,+70.00,+18.00,+26.00,+9.00,+2.00,-4.00,-3.00,+4.00,+8.00,+9.00,+2.00,+3.00
-10.00,-6.00,-8.00,-9.00,-14.00,-21.00,-12.00,-7.00,+16.00,+11.00,+5.00,+5.00,+6.00,+1.00,+2.00,+12.00
+29.00,+4.00,-4.00,-1.00,+0.00,+6.00,+3.00,-29.00,-7.00,-7.00,-1.00,-2.00,+2.00,-3.00,-5.00,-2.00
-23.00,-12.00,-3.00,-7.00,-11.00,+7.00,+0.00,+13.00,+8.00,+8.00,+18.00,+14.00,+6.00,+0.00,+0.00,-9.00
-17.00,-21.00,-9.00,-5.00,-21.00,-10.00,-14.00,+2.00,-11.00,-14.00,-18.00,-5.00,-15.00,-7.00,-1.00,-9.00
-11.00,-10.00,+0.00,+0.00,-6.00,-14.00,+1.00,+2.00,+9.00,+6.00,-3.00,-5.00,+4.00,+0.00,-3.00,+1.00
+1.00,-8.00,-11.00,-2.00,+2.00,+2.00,+0.00,-3.00,-6.00,-21.00,-19.00,-7.00,-5.00,-3.00,-5.00,-8.00
+27.00,+21.00,+6.00,+3.00,+10.00,+6.00,+2.00,+4.00,-5.00,+7.00,+6.00,-2.00,+0.00,-3.00,-4.00,-14.00
+9.00,+18.00,+15.00,+2.00,+5.00,+5.00,-3.00,-8.00,+35.00,+22.00,+25.00,+5.00,-6.00,-3.00,-6.00,+1.00
+0.00,-11.00,-5.00,+2.00,+2.00,+3.00,+4.00,+1.00,-5.00,-42.00,-42.00,-3.00,-3.00,-2.00,-5.00,-8.00
-12.00,-10.00,-2.00,-2.00,-5.00,-3.00,-6.00,+1.00,+5.00,+13.00,+6.00,+5.00,+24.00,+5.00,+4.00,+12.00
-21.00,-27.00,-5.00,+0.00,+12.00,+4.00,-2.00,-16.00,+2.00,-6.00,-3.00,-1.00,-1.00,+7.00,+4.00,+7.00
+12.00,-3.00,-13.00,-1.00,+4.00,+8.00,+0.00,+10.00,-16.00,-7.00,-9.00,-15.00,-15.00,-6.00,-10.00,-15.00
+6.00,+24.00,-4.00,-11.00,-42.00,-6.00,-4.00,-5.00,+1.00,+18.00,+22.00,+7.00,+13.00,+3.00,-4.00,-3.00
+11.00,+31.00,+11.00,+1.00,+5.00,+5.00,+1.00,+19.00,-5.00,-17.00,-10.00,-8.00,-13.00,-2.00,-2.00,+0.00
+8.00,-2.00,-4.00,+4.00,+50.00,+23.00,+3.00,-1.00,+27.00,+17.00,-6.00,+3.00,+4.00,-2.00,-2.00,+10.00
-25.00,-37.00,-12.00,-3.00,-10.00,-6.00,-4.00,-11.00,-28.00,-8.00,-5.00,-4.00,-6.00,-1.00,+0.00,-4.00
-3.00,-2.00,-5.00,-4.00,-18.00,-19.00,+0.00,+1.00,+18.00,+10.00,+14.00,+4.00,-2.00,+2.00,+5.00,+15.00
-9.00,+8.00,+8.00,+2.00,+21.00,+9.00,-3.00,-6.00,+15.00,+19.00,+5.00,+12.00,+9.00,+4.00,-1.00,+7.00
+9.00,-3.00,+13.00,+2.00,-1.00,+10.00,+2.00,+0.00,-17.00,+2.00,+6.00,-4.00,-3.00,-3.00,+1.00,-4.00
+3.00,+11.00,-4.00,-4.00,-7.00,+1.00,-7.00,-2.00,+2.00,-4.00,-9.00,+3.00,-7.00,-4.00,+2.00,-3.00
+6.00,-6.00,-1.00,+6.00,+4.00,-1.00,+8.00,+7.00,-31.00,-18.00,-3.00,-5.00,+0.00,-5.00,-1.00,-7.00
-12.00,-12.00,-10.00,-8.00,-12.00,-5.00,-1.00,+6.00,-30.00,-28.00,+0.00,-3.00,-8.00,-4.00,-2.00,-9.00
-3.00,-8.00,-2.00,+3.00,+5.00,-3.00,-5.00,-2.00,+1.00,+3.00,-4.00,-7.00,-8.00,-4.00,-3.00,-2.00
-18.00,-16.00,-4.00,-2.00,+0.00,-3.00,-8.00,-11.00,+17.00,-1.00,-2.00,+0.00,-2.00,-2.00,+0.00,+0.00
+2.00,+5.00,+3.00,-2.00,+1.00,-5.00,+1.00,+11.00,-27.00,+4.00,+7.00,+3.00,+3.00,+0.00,-1.00,-6.00
+13.00,+29.00,+6.00,+3.00,+4.00,+1.00,-1.00,+1.00,+20.00,+16.00,+3.00,-8.00,-7.00,-4.00,-3.00,+3.00
+3.00,-12.00,-3.00,-4.00,-8.00,-3.00,+2.00,+4.00,-2.00,-1.00,+4.00,+1.00,+0.00,+1.00,-3.00,-6.00
-3.00,-2.00,+0.00,+0.00,-3.00,+0.00,-2.00,-2.00,+18.00,-12.00,-22.00,+12.00,+9.00,+0.00,-6.00,-1.00
-11.00,-11.00,-4.00,-3.00,+0.00,-2.00,-5.00,-8.00,-9.00,+7.00,+6.00,-18.00,-9.00,+0.00,-1.00,+2.00
-3.00,-11.00,+2.00,+0.00,-4.00,+0.00,+1.00,+2.00,-38.00,-29.00,-6.00,-8.00,-13.00,-5.00,-9.00,-10.00
+2.00,+5.00,+1.00,-3.00,-1.00,+1.00,-5.00,-5.00,-7.00,+13.00,+4.00,+2.00,-5.00,-4.00,-4.00,-5.00
-5.00,-14.00,+10.00,-1.00,-29.00,-1.00,-1.00,+2.00,+13.00,+10.00,+13.00,-9.00,-7.00,-4.00,-2.00,+2.00
+31.00,+70.00,+22.00,+13.00,+51.00,+30.00,+10.00,+7.00,+19.00,+4.00,-5.00,+11.00,+7.00,+1.00,+1.00,+5.00
-14.00,-24.00,-13.00,-6.00,-7.00,-9.00,-4.00,-6.00,+13.00,+12.00,-1.00,-7.00,+4.00,+1.00,+2.00,+5.00
+10.00,+34.00,+1.00,+0.00,+6.00,-10.00,+0.00,+3.00,-23.00,-24.00,-13.00,+1.00,+9.00,-2.00,-2.00,-9.00
+7.00,-10.00,-7.00,-6.00,-3.00,-3.00,+0.00,+1.00,-3.00,-3.00,+0.00,-2.00,-7.00,-3.00,+1.00,-2.00
-19.00,-27.00,-7.00,-4.00,-24.00,-3.00,-8.00,-10.00,-4.00,+9.00,+8.00,+1.00,-4.00,-3.00,+2.00,-2.00
-8.00,-18.00,-14.00,-6.00,+2.00,-1.00,+1.00,-2.00,-14.00,+6.00,+13.00,+4.00,+3.00,-2.00,+0.00,-4.00
+0.00,+2.00,+6.00,+0.00,-8.00,-1.00,-1.00,+1.00,+20.00,-23.00,-28.00,-3.00,-2.00,+1.00,+5.00,+8.00
+2.00,+2.00,+2.00,+2.00,+11.00,+1.00,+0.00,-1.00,-5.00,-6.00,-11.00,-5.00,+0.00,-2.00,+1.00,+6.00
-11.00,-19.00,-13.00,-3.00,-5.00,-7.00,-3.00,-9.00,+5.00,+7.00,+7.00,+2.00,+0.00,-1.00,-2.00,-2.00
+10.00,+18.00,+9.00,+0.00,+2.00,+2.00,+3.00,+10.00,+14.00,+11.00,+1.00,+1.00,-4.00,-2.00,+0.00,+2.00
-17.00,-26.00,+6.00,+1.00,-11.00,-7.00,-3.00,-4.00,-13.00,-2.00,+9.00,+3.00,+7.00,+0.00,-2.00,-7.00
+15.00,+54.00,+9.00,+4.00,+5.00,+3.00,+1.00,+4.00,-4.00,+1.00,-3.00,-3.00,-8.00,-3.00,-3.00,-1.00
-4.00,-12.00,+0.00,+0.00,+5.00,-1.00,+0.00,+1.00,-30.00,-37.00,-12.00,-7.00,-5.00,-6.00,-7.00,-10.00
-14.00,-18.00,-8.00,+0.00,-9.00,-3.00,-4.00,-8.00,+21.00,+27.00,+7.00,+8.00,+8.00,+1.00,-2.00,-1.00
+5.00,+14.00,-6.00,-1.00,+2.00,-3.00,-1.00,-3.00,-6.00,-4.00,-3.00,-3.00,-8.00,+0.00,-3.00,-1.00
+1.00,+5.00,+5.00,-1.00,+5.00,+1.00,-1.00,+2.00,-8.00,+1.00,+0.00,+2.00,+3.00,-2.00,-2.00,-4.00
-5.00,-4.00,-10.00,-4.00,-1.00,-2.00,-2.00,-5.00,-3.00,-12.00,+2.00,-6.00,-10.00,-2.00,+1.00,+1.00
-9.00,-32.00,-8.00,-4.00,-2.00,+1.00,-2.00,-3.00,-16.00,-21.00,-15.00,-6.00,-5.00,-4.00,-2.00,+3.00
+22.00,+35.00,+16.00,+6.00,-3.00,-7.00,+4.00,+11.00,+2.00,+0.00,+1.00,-7.00,-4.00,-1.00,-5.00,-7.00
-5.00,+3.00,+9.00,+0.00,+1.00,-1.00,-3.00,-7.00,-13.00,-20.00,-6.00,+7.00,+2.00,+0.00,+0.00,-5.00
+4.00,+2.00,+0.00,+1.00,+7.00,+7.00,+0.00,+1.00,+29.00,+31.00,+20.00,+8.00,+17.00,+10.00,+9.00,+16.00
-26.00,-36.00,-9.00,-2.00,-8.00,-4.00,-3.00,-5.00,+6.00,+5.00,-7.00,-15.00,-9.00,-2.00,+9.00,+1.00
+4.00,-16.00,-12.00,-5.00,+0.00,-9.00,-3.00,-3.00,-15.00,-9.00,-5.00,-7.00,-6.00,-3.00,+6.00,-4.00
+37.00,+82.00,+14.00,-2.00,-25.00,+13.00,+1.00,+9.00,-18.00,-9.00,+1.00,-2.00,-1.00,-3.00,-7.00,-9.00
+1.00,-11.00,+7.00,+7.00,+22.00,-10.00,+6.00,+11.00,+23.00,+9.00,-4.00,+6.00,+9.00,+1.00,+7.00,+9.00
+0.00,-7.00,-3.00,-2.00,+16.00,+1.00,-2.00,-5.00,+10.00,+9.00,+6.00,+7.00,+3.00,+1.00,+3.00,+5.00
-30.00,-38.00,-12.00,-5.00,-1.00,+1.00,-7.00,+2.00,-1.00,-1.00,+0.00,-1.00,-1.00,-3.00,+3.00,+2.00
-14.00,-29.00,-12.00,-3.00,+0.00,-8.00,-2.00,-7.00,+2.00,+2.00,+3.00,+4.00,+5.00,+3.00,+8.00,+0.00
+0.00,-2.00,-5.00,-5.00,-18.00,-6.00,-1.00,+2.00,+1.00,+7.00,-6.00,-2.00,-6.00,-5.00,-2.00,+3.00
+20.00,+39.00,+15.00,+6.00,+3.00,+3.00,+2.00,+10.00,-14.00,-12.00,-1.00,+3.00,-2.00,-2.00,-3.00,-4.00
-4.00,-15.00,-11.00,-6.00,-8.00,-4.00,-2.00,-9.00,+7.00,+5.00,-2.00,-2.00,-3.00,-4.00,-6.00,-5.00
-2.00,-11.00,+0.00,+3.00,+11.00,+4.00,-2.00,-1.00,-5.00,+2.00,-1.00,-3.00,-1.00,+0.00,-4.00,+0.00
-9.00,-7.00,-2.00,-3.00,-5.00,-2.00,-2.00,+0.00,-24.00,-15.00,-2.00,-2.00,-8.00,-6.00,-8.00,-16.00
-2.00,-4.00,+1.00,+1.00,-2.00,-4.00,+0.00,-4.00,+1.00,-13.00,-6.00,-3.00,+0.00,-1.00,-7.00,-7.00
-14.00,-15.00,-4.00,-2.00,-3.00,+5.00,-3.00,-15.00,+19.00,+7.00,-1.00,+2.00,+5.00,+5.00,-2.00,+4.00
+33.00,+56.00,+22.00,+9.00,+12.00,+3.00,+8.00,+16.00,+17.00,+16.00,+3.00,+11.00,+27.00,-19.00,-5.00,+10.00
-11.00,-21.00,-6.00,+0.00,+0.00,-2.00,-9.00,-34.00,-3.00,+9.00,+2.00,+2.00,-17.00,+21.00,-4.00,-2.00
+2.00,-1.00,-8.00,-7.00,-13.00,-5.00,+4.00,+20.00,+23.00,+6.00,-2.00,-7.00,+4.00,+1.00,-5.00,+5.00
+35.00,+76.00,+24.00,+6.00,-7.00,-1.00,+5.00,+9.00,-8.00,-8.00,-4.00,+2.00,+4.00,+1.00,-9.00,-10.00
-13.00,-21.00,-10.00,-8.00,-21.00,-13.00,-19.00,-4.00,-5.00,+1.00,-3.00,-18.00,-20.00,-8.00,-3.00,-4.00
-10.00,-10.00,-4.00,+2.00,+41.00,+8.00,+5.00,-1.00,-13.00,-6.00,-3.00,+4.00,+9.00,-9.00,+0.00,-4.00
+1.00,+6.00,+2.00,-2.00,+1.00,+16.00,+4.00,-18.00,+21.00,-1.00,-1.00,+8.00,+0.00,+0.00,+1.00,+4.00
-22.00,-21.00,-9.00,-5.00,-5.00,-5.00,+1.00,-4.00,-23.00,-14.00,+4.00,+0.00,+0.00,+0.00,+0.00,+1.00
-14.00,-38.00,-14.00,-3.00,-2.00,-10.00,+1.00,-2.00,+8.00,+0.00,-1.00,+5.00,+1.00,+8.00,+4.00,+1.00
+2.00,+34.00,+6.00,-3.00,-21.00,-7.00,-10.00,-1.00,+4.00,+10.00,+0.00,-2.00,+0.00,-7.00,-2.00,-2.00
+9.00,+19.00,+4.00,+6.00,+3.00,-1.00,-1.00,+0.00,-1.00,+7.00,+0.00,-3.00,-6.00,+2.00,-2.00,-5.00
+3.00,+3.00,-3.00,-3.00,+1.00,-1.00,+1.00,+5.00,-16.00,-7.00,-2.00,-1.00,-1.00,-7.00,+0.00,+0.00
+5.00,+3.00,+4.00,+2.00,+6.00,+4.00,+2.00,-4.00,+8.00,-3.00,-1.00,+0.00,-5.00,+4.00,-1.00,-2.00
-14.00,-32.00,-13.00,-5.00,-9.00,-5.00,-4.00,-3.00,+9.00,+9.00,-3.00,-6.00,-4.00,-2.00,-5.00,-3.00
-5.00,-1.00,+1.00,+3.00,+6.00,+0.00,+0.00,-4.00,+13.00,-5.00,-1.00,+1.00,+3.00,-6.00,-3.00,-1.00
-1.00,+1.00,+1.00,-2.00,-5.00,+2.00,-3.00,+7.00,+11.00,+8.00,-1.00,-1.00,-4.00,-3.00,-4.00,+1.00
-6.00,-10.00,-4.00,+1.00,+9.00,+3.00,+3.00,+3.00,-53.00,-42.00,-10.00,+1.00,+8.00,+3.00,-4.00,-17.00
-16.00,-38.00,-13.00,-5.00,-5.00,+2.00,+0.00,-6.00,+32.00,+24.00,+2.00,-8.00,-17.00,+3.00,+2.00,+5.00
+12.00,+45.00,+15.00,+4.00,-3.00,-4.00,-2.00,+3.00,-5.00,+7.00,+2.00,+1.00,+0.00,-4.00,-4.00,+2.00
-10.00,-18.00,-8.00,-6.00,-2.00,+3.00,-1.00,-4.00,-3.00,-4.00,+1.00,+3.00,+9.00,+1.00,-2.00,-4.00
+48.00,+60.00,+24.00,+6.00,-5.00,-2.00,+8.00,+19.00,+6.00,+9.00,-1.00,-8.00,-16.00,-2.00,-1.00,+1.00
-2.00,+0.00,+5.00,+5.00,+15.00,+19.00,+6.00,+12.00,-12.00,-15.00,-5.00,-2.00,+3.00,-12.00,-2.00,-6.00
+3.00,-6.00,-6.00,-3.00,-9.00,-2.00,-3.00,+8.00,-20.00,-13.00,+0.00,+1.00,+1.00,+7.00,+4.00,+2.00
-19.00,-33.00,-8.00,-2.00,-8.00,-19.00,-5.00,-9.00,+14.00,+13.00,+0.00,-3.00,-8.00,+0.00,+2.00,+2.00
-30.00,-35.00,-17.00,-4.00,+17.00,+14.00,+0.00,-13.00,-5.00,-5.00,+0.00,+5.00,+9.00,+1.00,+0.00,+1.00
+19.00,+22.00,+12.00,+2.00,-7.00,-5.00,+1.00,+7.00,-4.00,+5.00,-1.00,+2.00,+3.00,+2.00,+2.00,+7.00
-7.00,+5.00,+4.00,+0.00,+1.00,-4.00,-3.00,+0.00,+5.00,-8.00,-4.00,-2.00,-5.00,-3.00,+2.00,+0.00
-4.00,-3.00,-1.00,+0.00,+1.00,+4.00,-5.00,-9.00,-19.00,-8.00,-1.00,+3.00,+4.00,+2.00,+1.00,-2.00
-15.00,-30.00,-11.00,-3.00,-8.00,-8.00,-2.00,+4.00,-32.00,-17.00,-5.00,-8.00,-6.00,-1.00,+1.00,-7.00
+6.00,+8.00,+1.00,+0.00,-5.00,-4.00,+0.00,-5.00,+42.00,+13.00,+5.00,+3.00,+1.00,-3.00,+0.00,+3.00
-6.00,-21.00,-9.00,-6.00,-6.00,-4.00,-1.00,-4.00,-2.00,+9.00,-3.00,-4.00,-3.00,-2.00,+0.00,+2.00
+11.00,+0.00,+2.00,+2.00,+7.00,+4.00,+1.00,+4.00,-1.00,+4.00,+0.00,+0.00,+2.00,-2.00,-3.00,+0.00
+8.00,+34.00,+6.00,+4.00,+6.00,+5.00,+1.00,+0.00,+2.00,+4.00,+0.00,-4.00,-7.00,-1.00,-2.00,+1.00
+3.00,+0.00,+1.00,-1.00,-4.00,-1.00,+0.00,+5.00,-15.00,-12.00,-5.00,+0.00,+1.00,-1.00,-4.00,-7.00
-6.00,-15.00,-4.00,-1.00,-8.00,-4.00,-2.00,-1.00,-20.00,-14.00,-3.00,+2.00,+7.00,+1.00,+1.00,-2.00
-2.00,-5.00,+0.00,+1.00,+4.00,+2.00,-1.00,-4.00,+0.00,-5.00,+2.00,-6.00,-16.00,-2.00,-2.00,-5.00
-6.00,-20.00,-13.00,-6.00,+0.00,-2.00,-1.00,-5.00,+15.00,+10.00,+1.00,+3.00,+5.00,+2.00,+0.00,+2.00
+8.00,+7.00,+0.00,-3.00,-12.00,-11.00,-2.00,-1.00,-6.00,-6.00,-5.00,-9.00,-5.00,-6.00,-2.00,-1.00
+18.00,+24.00,+13.00,+4.00,+1.00,+7.00,+3.00,+6.00,+6.00,+12.00,+0.00,-1.00,-5.00,-1.00,-3.00,+1.00
+0.00,+4.00,+4.00,+3.00,+5.00,+5.00,-2.00,+1.00,-10.00,-10.00,-2.00,+2.00,+3.00,-1.00,-2.00,-9.00
-6.00,-13.00,-5.00,-4.00,-1.00,+1.00,+2.00,+0.00,+3.00,-4.00,-2.00,-5.00,-9.00,-1.00,-2.00,+1.00
-3.00,-9.00,-3.00,-2.00,+3.00,+0.00,+0.00,+1.00,+12.00,+12.00,+1.00,+4.00,+8.00,+1.00,+1.00,+4.00
-14.00,-29.00,-10.00,-4.00,-2.00,-4.00,-6.00,-16.00,-21.00,-14.00,+0.00,+10.00,+9.00,+2.00,+3.00,-5.00
+24.00,+25.00,+13.00,+6.00,+7.00,+8.00,+4.00,+5.00,+14.00,+9.00,-5.00,-15.00,-15.00,-8.00,-4.00,+0.00
-3.00,+2.00,-2.00,-3.00,-6.00,-6.00,-2.00,-4.00,+2.00,+7.00,+3.00,-3.00,-1.00,-1.00,+2.00,+5.00
+5.00,+11.00,+4.00,-1.00,-9.00,-4.00,+1.00,+7.00,-14.00,-11.00,+0.00,-1.00,-4.00,-2.00,-2.00,-4.00
+1.00,-8.00,-2.00,+0.00,-6.00,-15.00,-1.00,-1.00,-3.00,-8.00,-4.00,-5.00,-6.00,-4.00,-2.00,+0.00
-16.00,-22.00,-7.00,-2.00,-1.00,-2.00,-3.00,-7.00,+12.00,+14.00,+1.00,+4.00,+5.00,+2.00,+1.00,+0.00
+2.00,+18.00,+5.00,+1.00,+12.00,+3.00,-1.00,-2.00,-10.00,-16.00,-2.00,+1.00,+0.00,+0.00,-1.00,-4.00
-4.00,-2.00,-3.00,+0.00,+0.00,-1.00,-2.00,-3.00,-15.00,-9.00,+0.00,-3.00,-1.00,-4.00,-5.00,-5.00
+2.00,+7.00,+4.00,-1.00,+1.00,+1.00,+0.00,+2.00,+2.00,+6.00,+2.00,-2.00,-5.00,+2.00,-1.00,+1.00
-19.00,-24.00,-10.00,-5.00,-9.00,-4.00,-5.00,-10.00,+6.00,-3.00,-2.00,+0.00,+2.00,+0.00,+0.00,+4.00
+21.00,+23.00,+16.00,+7.00,+4.00,+3.00,+5.00,+13.00,+18.00,+22.00,+2.00,-2.00,-3.00,-1.00,-2.00,+2.00
-5.00,-9.00,-6.00,-3.00,-1.00,+0.00,-4.00,-5.00,-23.00,-18.00,-4.00,-3.00,-2.00,-3.00,-2.00,-6.00
+6.00,+13.00,+2.00,+3.00,+1.00,+2.00,+2.00,+0.00,+27.00,+7.00,+1.00,-1.00,+0.00,-3.00,-4.00,+0.00
-5.00,-5.00,-6.00,-4.00,-1.00,+0.00,+0.00,+1.00,+0.00,-5.00,+4.00,-2.00,-4.00,-2.00,-3.00,-2.00
-16.00,-46.00,-9.00,-3.00,-1.00,-1.00,-2.00,-9.00,-4.00,-2.00,-2.00,-1.00,-2.00,-2.00,-2.00,+1.00
+4.00,+27.00,+4.00,-1.00,-5.00,-1.00,-2.00,+3.00,-8.00,-2.00,-4.00,+1.00,+9.00,+2.00,-1.00,-3.00
-2.00,-11.00,-7.00,-1.00,-2.00,-9.00,-2.00,+3.00,-8.00,-4.00,-2.00,+2.00,-3.00,+4.00,-1.00,-1.00
+2.00,+11.00,-1.00,-1.00,+2.00,+6.00,+2.00,+1.00,+5.00,-4.00,-5.00,-8.00,-7.00,-4.00,+0.00,+1.00
-1.00,+3.00,+7.00,+1.00,+0.00,+1.00,-1.00,-2.00,+1.00,-2.00,+2.00,+0.00,-1.00,+1.00,-3.00,-8.00
-7.00,-14.00,-5.00,-3.00,-11.00,-6.00,-4.00,-6.00,-3.00,-3.00,+0.00,+1.00,+2.00,+0.00,+3.00,+3.00
-3.00,-4.00,-2.00,+1.00,+19.00,+6.00,+0.00,-2.00,+1.00,-4.00,-3.00,-4.00,+1.00,-2.00,+0.00,+0.00
+0.00,+13.00,+1.00,+0.00,-1.00,+0.00,-2.00,-3.00,-4.00,+2.00,-1.00,+2.00,+1.00,-1.00,-3.00,-6.00
-17.00,-23.00,-9.00,-2.00,-8.00,-8.00,-5.00,-7.00,-1.00,-4.00,-1.00,+1.00,+2.00,+1.00,+1.00,+1.00
+4.00,+2.00,+0.00,-4.00,-3.00,-2.00,+1.00,+2.00,-2.00,-6.00,-1.00,+3.00,-1.00,-2.00,-2.00,-4.00
+1.00,-10.00,-4.00,-2.00,-1.00,+3.00,+0.00,+3.00,-8.00,-5.00,-2.00,-4.00,-3.00,-2.00,-3.00,-2.00
+4.00,+23.00,+4.00,+1.00,+1.00,+0.00,-1.00,-11.00,-11.00,-9.00,-3.00,-2.00,-2.00,-1.00,-1.00,-4.00
+13.00,+3.00,+6.00,+4.00,+3.00,+1.00,-1.00,-7.00,+19.00,+10.00,-2.00,-3.00,-2.00,-1.00,-1.00,+2.00
-20.00,-5.00,-2.00,-1.00,-6.00,-5.00,-2.00,+14.00,-16.00,-4.00,+0.00,+1.00,-2.00,-1.00,-1.00,-1.00
-7.00,-10.00,-4.00,-1.00,-3.00,+1.00,-1.00,-1.00,+21.00,+17.00,+7.00,+0.00,-1.00,-1.00,+3.00,+8.00
-5.00,-9.00,-5.00,-2.00,+1.00,-4.00,-3.00,-5.00,-2.00,-1.00,-1.00,+2.00,+0.00,-1.00,-1.00,-2.00
-7.00,-12.00,-10.00,-4.00,-5.00,-2.00,-2.00,-3.00,+2.00,+7.00,-1.00,+2.00,+3.00,+0.00,-2.00,-3.00
+16.00,+19.00,+5.00,+2.00,+2.00,+0.00,+2.00,+0.00,+5.00,-3.00,+2.00,+5.00,+0.00,+2.00,-2.00,+1.00
