-31.00,-14.00,-6.00,-2.00,-3.00,-2.00,-4.00,+4.00,+3.00,+0.00,+0.00,+0.00,+0.00,+0.00,-2.00,+0.00
-8.00,-6.00,-3.00,-2.00,-1.00,+0.00,+0.00,+0.00,-2.00,-3.00,-2.00,-1.00,+0.00,-2.00,-2.00,-2.00
-1.00,-4.00,-1.00,-3.00,-3.00,-2.00,-1.00,+2.00,+0.00,-1.00,-2.00,-1.00,-3.00,-1.00,-2.00,+0.00
-1.00,+5.00,+2.00,+1.00,+1.00,+0.00,-3.00,+0.00,+4.00,+1.00,+1.00,-1.00,+0.00,+0.00,-1.00,-3.00
+9.00,-5.00,-3.00,-2.00,-1.00,-1.00,+1.00,+6.00,-3.00,-2.00,-1.00,+1.00,-2.00,-2.00,-4.00,-3.00
-8.00,-1.00,+0.00,+0.00,+0.00,-2.00,-4.00,+5.00,+2.00,-1.00,-1.00,-2.00,+0.00,-1.00,+2.00,+5.00
+6.00,-4.00,-5.00,-3.00,-1.00,-1.00,-1.00,-1.00,-7.00,-4.00,-3.00,-1.00,-2.00,-4.00,-2.00,+14.00
-19.00,+4.00,+1.00,+0.00,+1.00,-2.00,+0.00,+45.00,-2.00,+1.00,+0.00,-2.00,-1.00,-1.00,-1.00,+2.00
+19.00,+3.00,-2.00,-3.00,-5.00,+1.00,+3.00,-33.00,+12.00,-5.00,+3.00,+3.00,+7.00,+1.00,+0.00,+7.00
-8.00,-8.00,-4.00,+0.00,+0.00,+1.00,+2.00,-2.00,+5.00,+3.00,-4.00,-3.00,-5.00,-1.00,-2.00,-13.00
+8.00,+2.00,-2.00,+0.00,+1.00,+0.00,-2.00,-4.00,-14.00,+0.00,+2.00,-3.00,-2.00,-3.00,-2.00,-11.00
-15.00,-1.00,-3.00,+0.00,+0.00,+0.00,-1.00,+19.00,-4.00,+2.00,+0.00,+0.00,+2.00,+0.00,+4.00,+4.00
-36.00,-14.00,-3.00,-2.00,-5.00,+0.00,-6.00,+11.00,+3.00,+8.00,+2.00,+0.00,-14.00,+0.00,+2.00,+6.00
-27.00,-37.00,-9.00,-4.00,-4.00,-10.00,-1.00,+7.00,-11.00,-11.00,-2.00,+0.00,+14.00,+1.00,-1.00,+3.00
+1.00,-7.00,-5.00,-3.00,-2.00,-7.00,-4.00,-6.00,+30.00,+9.00,-3.00,-2.00,-2.00,-8.00,+1.00,+3.00
+23.00,+24.00,+8.00,+3.00,+4.00,+4.00,+1.00,-6.00,-29.00,-15.00,+3.00,+13.00,+15.00,+9.00,-5.00,-11.00
+16.00,+10.00,+3.00,+0.00,-1.00,-1.00,-1.00,-6.00,+8.00,+5.00,+2.00,-15.00,-14.00,+7.00,+3.00,+0.00
-5.00,-22.00,-6.00,-2.00,+1.00,+4.00,+4.00,+0.00,+2.00,+4.00,+0.00,-3.00,-10.00,-8.00,-2.00,+6.00
-2.00,-3.00,-2.00,-3.00,-8.00,-5.00,-6.00,+19.00,-7.00,-7.00,-5.00,-5.00,-7.00,-22.00,-10.00,+4.00
+25.00,+22.00,+7.00,+0.00,-7.00,-2.00,+2.00,-14.00,+20.00,+8.00,-4.00,-4.00,-9.00,-3.00,+2.00,+4.00
+5.00,-2.00,+0.00,+3.00,+25.00,+11.00,-1.00,-3.00,-10.00,-11.00,-3.00,+6.00,+8.00,+26.00,-6.00,-7.00
-8.00,-1.00,+1.00,-1.00,+0.00,-1.00,-5.00,+2.00,-13.00,-6.00,+1.00,+1.00,-3.00,+1.00,-5.00,-2.00
-27.00,-30.00,-10.00,-4.00,+0.00,+0.00,-4.00,-24.00,-1.00,-1.00,+0.00,+3.00,+12.00,+12.00,+17.00,-1.00
+3.00,-29.00,-12.00,-6.00,-6.00,-13.00,-20.00,-41.00,+2.00,+3.00,+2.00,+2.00,-6.00,-18.00,-17.00,-5.00
+15.00,+31.00,+4.00,-3.00,-10.00,+4.00,+17.00,+6.00,+3.00,-3.00,-4.00,-8.00,-7.00,-40.00,+2.00,+3.00
-1.00,+0.00,+0.00,-1.00,-11.00,-11.00,-9.00,-4.00,-2.00,+10.00,+2.00,-2.00,-1.00,+44.00,-3.00,-25.00
+11.00,+16.00,+5.00,+2.00,+6.00,+2.00,-21.00,+12.00,-12.00,-14.00,-3.00,+2.00,+6.00,+3.00,-7.00,-13.00
-14.00,-4.00,-2.00,+2.00,+1.00,+8.00,+31.00,+23.00,+3.00,+7.00,-1.00,-1.00,+0.00,+5.00,+0.00,+4.00
-21.00,-26.00,-11.00,-5.00,-4.00,-6.00,-21.00,-10.00,+3.00,+10.00,-2.00,-1.00,-1.00,-7.00,-2.00,+8.00
+13.00,+19.00,+3.00,+2.00,+6.00,+6.00,+5.00,+0.00,-6.00,-10.00,-1.00,-1.00,-2.00,-18.00,+2.00,+6.00
+6.00,+7.00,+4.00,+0.00,-5.00,-1.00,-5.00,-9.00,-5.00,-3.00,+0.00,+1.00,-4.00,+0.00,+3.00,-5.00
-4.00,-3.00,-1.00,-1.00,-2.00,-1.00,-5.00,+2.00,+1.00,-2.00,+0.00,-4.00,-3.00,+1.00,+1.00,-11.00
-2.00,-24.00,-6.00,-3.00,-1.00,-3.00,+2.00,-10.00,-9.00,-12.00,-4.00,-1.00,+0.00,-4.00,-8.00,-10.00
+9.00,+25.00,+5.00,-1.00,-6.00,+3.00,+3.00,+14.00,+8.00,+13.00,+4.00,+2.00,+3.00,-5.00,+8.00,+13.00
+10.00,+8.00,+3.00,+3.00,+0.00,+0.00,+1.00,-4.00,-1.00,+1.00,+2.00,+2.00,+0.00,+10.00,-3.00,-1.00
-19.00,-28.00,-7.00,-3.00,+5.00,-2.00,-8.00,-18.00,-3.00,-6.00,-3.00,-5.00,-6.00,-3.00,+0.00,+1.00
+12.00,+21.00,+2.00,-2.00,-5.00,-3.00,+3.00,-7.00,-3.00,-3.00,+1.00,+5.00,+6.00,+2.00,+3.00,-4.00
+23.00,+0.00,+3.00,-1.00,+0.00,+0.00,-4.00,+10.00,+5.00,+2.00,-2.00,-3.00,-1.00,-5.00,+0.00,-1.00
-15.00,-7.00,-4.00,+0.00,+1.00,+1.00,+6.00,-8.00,-9.00,-5.00,+0.00,+9.00,+6.00,-7.00,-5.00,-14.00
-10.00,-15.00,-6.00,-2.00,+0.00,-4.00,-4.00,+3.00,-14.00,-2.00,+1.00,+0.00,+0.00,+6.00,+1.00,+3.00
+13.00,+28.00,+5.00,+1.00,-5.00,-2.00,-2.00,+3.00,+13.00,+1.00,-8.00,-18.00,-17.00,+9.00,+6.00,-4.00
-14.00,-15.00,-7.00,-3.00,-8.00,-6.00,-1.00,-6.00,+1.00,+3.00,-1.00,-1.00,+2.00,-18.00,-6.00,+1.00
-26.00,-5.00,-2.00,-3.00,-22.00,-14.00,+5.00,+15.00,+10.00,+4.00,-1.00,-7.00,-5.00,+7.00,-3.00,+7.00
-12.00,-7.00,-3.00,+4.00,+27.00,+15.00,-13.00,-7.00,-1.00,-2.00,-1.00,-2.00,-2.00,-14.00,+5.00,+21.00
+16.00,-6.00,+4.00,+4.00,+5.00,+5.00,+0.00,-8.00,-14.00,-7.00,-1.00,+5.00,+13.00,+22.00,-1.00,-3.00
-17.00,-8.00,-5.00,-2.00,+1.00,-6.00,-3.00,+18.00,+13.00,-5.00,-2.00,-3.00,-5.00,+1.00,-5.00,-1.00
+10.00,+24.00,+5.00,+2.00,+15.00,+10.00,+12.00,+4.00,-6.00,+0.00,-1.00,+1.00,+1.00,-2.00,-7.00,-20.00
+3.00,+7.00,-2.00,-5.00,-16.00,-11.00,-14.00,-5.00,-14.00,-9.00,-5.00,-2.00,-2.00,+0.00,-2.00,-5.00
-10.00,-13.00,-4.00,-1.00,+0.00,-4.00,-4.00,-11.00,-12.00,-1.00,+2.00,+3.00,+4.00,-4.00,+2.00,-1.00
-3.00,+0.00,+1.00,+1.00,+2.00,+0.00,+0.00,-4.00,+6.00,+0.00,-3.00,-2.00,-4.00,-5.00,+2.00,+3.00
-4.00,-13.00,-9.00,-10.00,-16.00,-10.00,+0.00,+33.00,+11.00,+8.00,+2.00,+0.00,+0.00,-2.00,+0.00,+8.00
+8.00,+13.00,+4.00,+0.00,-8.00,-4.00,+1.00,+10.00,+7.00,+12.00,+0.00,-4.00,-4.00,+0.00,-1.00,-4.00
+20.00,+28.00,+8.00,+5.00,+11.00,+4.00,+2.00,+16.00,-5.00,-25.00,-5.00,+3.00,+1.00,-5.00,+1.00,-8.00
-8.00,-13.00,-5.00,-2.00,-7.00,-2.00,-1.00,-3.00,-5.00,+3.00,+3.00,+7.00,+3.00,+1.00,+0.00,+6.00
+0.00,-18.00,-6.00,+1.00,+6.00,+0.00,-4.00,-25.00,-15.00,-5.00,-6.00,-11.00,-7.00,-3.00,-2.00,-5.00
-16.00,-2.00,+0.00,-2.00,+0.00,+1.00,+0.00,-20.00,+23.00,+15.00,+2.00,-2.00,+0.00,+2.00,+1.00,+6.00
-1.00,+10.00,+8.00,+1.00,-6.00,-4.00,+5.00,+17.00,+10.00,+17.00,+3.00,+9.00,+9.00,-7.00,-5.00,+6.00
+4.00,+7.00,-2.00,-1.00,+2.00,-1.00,-1.00,+0.00,+7.00,-8.00,+1.00,+5.00,+0.00,+6.00,+2.00,-10.00
+8.00,+10.00,+4.00,+1.00,+4.00,+1.00,-1.00,-2.00,-5.00,-9.00,-8.00,-22.00,-15.00,+6.00,+4.00,-5.00
+14.00,+0.00,+0.00,+3.00,-1.00,+1.00,+6.00,-5.00,-15.00,-9.00,-3.00,-1.00,+2.00,-17.00,-12.00,-10.00
-22.00,-34.00,-11.00,-6.00,-17.00,-7.00,-10.00,-22.00,+10.00,+4.00,-1.00,-2.00,-2.00,+4.00,+6.00,-4.00
+2.00,+7.00,-6.00,-7.00,+3.00,-5.00,-10.00,-20.00,-12.00,-18.00,-2.00,+0.00,-1.00,+2.00,+0.00,-6.00
+16.00,-13.00,-2.00,+0.00,+16.00,+5.00,+10.00,+6.00,+0.00,+11.00,+3.00,+6.00,+12.00,-1.00,-4.00,-7.00
+7.00,+12.00,+10.00,+3.00,+0.00,+0.00,+4.00,+15.00,+10.00,-6.00,-1.00,+5.00,-22.00,+3.00,+6.00,+7.00
-9.00,-1.00,-4.00,-4.00,+1.00,+3.00,-3.00,+4.00,-12.00,+2.00,+2.00,+0.00,+19.00,+5.00,+5.00,+10.00
+15.00,+16.00,+7.00,+3.00,-8.00,-2.00,+2.00,-10.00,+33.00,+9.00,+0.00,-6.00,+0.00,-4.00,-2.00,+9.00
+14.00,+10.00,+3.00,+0.00,-6.00,-4.00,+0.00,-13.00,+0.00,-6.00,-5.00,-1.00,-2.00,+1.00,-2.00,-3.00
+25.00,+6.00,+1.00,+1.00,-4.00,-2.00,+4.00,-11.00,-1.00,-6.00,-5.00,-3.00,+8.00,+1.00,-3.00,-7.00
-9.00,-13.00,-6.00,+0.00,+24.00,+8.00,+0.00,-2.00,-23.00,-3.00,+2.00,+8.00,-4.00,-8.00,-5.00,-7.00
-15.00,-18.00,-7.00,-2.00,+0.00,+0.00,-1.00,+0.00,+0.00,+1.00,-5.00,-7.00,-9.00,-3.00,+0.00,+0.00
+0.00,-14.00,-2.00,-1.00,+2.00,+0.00,-2.00,+6.00,+7.00,+2.00,+5.00,+5.00,+5.00,+1.00,+4.00,+6.00
-10.00,-16.00,-3.00,-4.00,-8.00,-6.00,+1.00,-4.00,+8.00,-5.00,-4.00,-3.00,+0.00,-2.00,-1.00,-10.00
+17.00,+25.00,+2.00,-1.00,-10.00,-7.00,-5.00,+2.00,-17.00,-3.00,-4.00,-5.00,-11.00,-24.00,-4.00,-2.00
+6.00,+18.00,+2.00,+1.00,+2.00,+3.00,+3.00,+19.00,-33.00,+2.00,-3.00,-2.00,+4.00,+33.00,+6.00,-8.00
-1.00,+18.00,+1.00,-1.00,+0.00,-1.00,-2.00,-20.00,+19.00,-7.00,+6.00,+15.00,-2.00,-7.00,+0.00,+18.00
-38.00,-39.00,-12.00,-5.00,-5.00,-2.00,+2.00,+15.00,-4.00,-4.00,-5.00,-10.00,+4.00,+5.00,+1.00,+4.00
+2.00,-12.00,-4.00,-5.00,-10.00,-3.00,+0.00,+4.00,+21.00,+14.00,+1.00,-5.00,-9.00,-18.00,-12.00,-8.00
+90.00,+90.00,+33.00,+11.00,+6.00,+4.00,-1.00,-6.00,-16.00,+5.00,-7.00,-15.00,-26.00,-34.00,+2.00,-1.00
+24.00,+30.00,+7.00,+1.00,-12.00,+0.00,+27.00,+7.00,-28.00,-22.00,+1.00,+1.00,+4.00,+22.00,+2.00,+1.00
-29.00,-2.00,-8.00,-4.00,+2.00,-11.00,-14.00,-13.00,-19.00,-18.00,-9.00,-1.00,-3.00,+5.00,+4.00,+8.00
-29.00,-60.00,-18.00,-2.00,+23.00,+33.00,+9.00,-18.00,+12.00,+16.00,+2.00,-1.00,+4.00,+1.00,-9.00,+2.00
-3.00,-17.00,-10.00,-5.00,-5.00,-13.00,-39.00,-9.00,-28.00,-33.00,+2.00,+10.00,+12.00,+20.00,-2.00,-1.00
-12.00,+23.00,+11.00,+6.00,+4.00,+5.00,+21.00,+31.00,+8.00,-2.00,-5.00,-4.00,-10.00,-32.00,-6.00,-1.00
+6.00,-8.00,+0.00,-5.00,-6.00,+2.00,+1.00,+10.00,-24.00,-5.00,-1.00,+0.00,+2.00,-4.00,+9.00,+13.00
-2.00,-26.00,-9.00,-7.00,-13.00,-15.00,-5.00,+2.00,+25.00,+4.00,+4.00,+2.00,-1.00,+25.00,+0.00,-9.00
-20.00,-31.00,+4.00,+4.00,-1.00,+9.00,+12.00,-1.00,+11.00,+12.00,+2.00,+4.00,+5.00,-19.00,-15.00,-3.00
-5.00,-35.00,-6.00,-2.00,+3.00,+1.00,-11.00,-15.00,-16.00,-15.00,-2.00,-3.00,-1.00,+19.00,+3.00,-6.00
+35.00,+62.00,+9.00,+2.00,+1.00,-6.00,-18.00,+15.00,+11.00,+12.00,+3.00,-1.00,-3.00,-13.00,+0.00,+4.00
-32.00,-35.00,-9.00,-2.00,-6.00,-9.00,-3.00,-11.00,-9.00,-21.00,-7.00,-3.00,-6.00,+7.00,-13.00,+1.00
-11.00,-22.00,-9.00,-4.00,+2.00,+5.00,+8.00,-19.00,-1.00,+9.00,+0.00,+0.00,+1.00,+39.00,+21.00,-7.00
-1.00,+2.00,-8.00,-5.00,-10.00,-10.00,-9.00,-14.00,-9.00,+11.00,+0.00,-1.00,+1.00,-8.00,-16.00,-2.00
+11.00,-15.00,+0.00,+2.00,+7.00,+6.00,+0.00,-22.00,+47.00,+34.00,+5.00,+1.00,+3.00,+11.00,+23.00,-7.00
+16.00,+18.00,+10.00,+2.00,-5.00,-7.00,-22.00,+0.00,-24.00,-26.00,-1.00,-3.00,-4.00,+7.00,+7.00,+3.00
-30.00,-8.00,-5.00,-5.00,-4.00,-6.00,-5.00,+37.00,-15.00,-14.00,-4.00,-1.00,+2.00,-33.00,-18.00,-6.00
-25.00,-32.00,-12.00,-2.00,+1.00,+2.00,-1.00,-5.00,+14.00,+7.00,-5.00,-3.00,-5.00,-14.00,+11.00,+0.00
+13.00,+6.00,+2.00,+3.00,-1.00,+3.00,+12.00,-1.00,-18.00,-17.00,-5.00,-3.00,-4.00,-4.00,-9.00,-10.00
+1.00,+25.00,+11.00,+6.00,+2.00,+2.00,+9.00,+9.00,-10.00,+9.00,+2.00,+1.00,-2.00,-38.00,-1.00,-8.00
-15.00,+1.00,-11.00,-5.00,-3.00,+6.00,+16.00,+2.00,-3.00,-15.00,+2.00,+2.00,+2.00,+28.00,+5.00,+10.00
+3.00,-29.00,+9.00,+3.00,+0.00,+1.00,-13.00,-10.00,+22.00,+14.00,+2.00,-2.00,-1.00,-3.00,-9.00,-6.00
-17.00,-20.00,-9.00,-8.00,-7.00,+0.00,+19.00,+10.00,+1.00,-2.00,-3.00,-3.00,-1.00,-6.00,-13.00,-1.00
+16.00,+5.00,+4.00,+3.00,-2.00,-10.00,-27.00,-9.00,-14.00,-2.00,-2.00,-1.00,+2.00,+14.00,+8.00,+7.00
+2.00,+26.00,+4.00,+1.00,+4.00,-1.00,-5.00,-4.00,+1.00,+8.00,-3.00,-3.00,-3.00,-17.00,-3.00,-4.00
-17.00,-26.00,-16.00,-7.00,-4.00,-7.00,-19.00,-12.00,-11.00,+0.00,+0.00,+1.00,+1.00,+6.00,-1.00,-6.00
+38.00,+50.00,+30.00,+11.00,+11.00,+11.00,+19.00,+7.00,-6.00,-10.00,-5.00,-2.00,-5.00,-5.00,-2.00,+14.00
-14.00,-3.00,-5.00,-2.00,-2.00,-2.00,+9.00,+17.00,-1.00,+1.00,-3.00,-4.00,-3.00,-6.00,+2.00,+1.00
-17.00,-30.00,-11.00,-5.00,-6.00,-6.00,-2.00,-15.00,+13.00,+8.00,+2.00,+1.00,+4.00,-12.00,+1.00,+4.00
+55.00,+14.00,+1.00,+2.00,+8.00,+10.00,+8.00,-34.00,-7.00,-9.00,-2.00,-4.00,-6.00,-1.00,-5.00,+4.00
-16.00,+16.00,+1.00,-2.00,-3.00,-6.00,-10.00,+18.00,-5.00,-5.00,+1.00,+2.00,-3.00,-7.00,-11.00,-7.00
+8.00,+6.00,-6.00,-3.00,-5.00,-4.00,+7.00,+3.00,+11.00,+8.00,-3.00,-6.00,+0.00,+5.00,+4.00,-8.00
-10.00,-14.00,+4.00,+2.00,+1.00,+1.00,+3.00,+9.00,+2.00,-2.00,-6.00,-6.00,-2.00,+6.00,-2.00,-2.00
+9.00,+15.00,+1.00,-3.00,-1.00,-1.00,-6.00,+8.00,-3.00,-2.00,+0.00,+4.00,+5.00,-11.00,+7.00,+1.00
-11.00,-18.00,-10.00,-4.00,-2.00,-1.00,-8.00,-2.00,-16.00,-6.00,+0.00,-2.00,+2.00,-14.00,-10.00,-13.00
-20.00,-27.00,-8.00,-3.00,+0.00,-1.00,-2.00,-7.00,+18.00,+2.00,+0.00,+1.00,-4.00,+19.00,+4.00,+7.00
+19.00,+42.00,+17.00,+2.00,-1.00,+1.00,+6.00,+4.00,-10.00,+3.00,-6.00,-10.00,-12.00,-16.00,-9.00,-11.00
-5.00,+11.00,+3.00,-1.00,-5.00,-13.00,-12.00,-4.00,-8.00,-2.00,+3.00,+0.00,-3.00,+2.00,-1.00,+3.00
-6.00,-17.00,-8.00,-3.00,-5.00,+11.00,+29.00,-2.00,+42.00,+29.00,+8.00,+2.00,+4.00,+15.00,+9.00,+15.00
-7.00,+4.00,+2.00,+2.00,+10.00,+0.00,+9.00,+2.00,-12.00,-23.00,-1.00,+5.00,+4.00,-3.00,-8.00,-10.00
+0.00,-25.00,-12.00,-4.00,+3.00,+4.00,-7.00,-8.00,+6.00,+3.00,+2.00,+2.00,+0.00,-5.00,-1.00,+9.00
-16.00,-6.00,-13.00,-7.00,-5.00,+1.00,+7.00,-1.00,+5.00,+6.00,-4.00,-4.00,-5.00,-9.00,+0.00,+10.00
-38.00,-14.00,+5.00,+1.00,-3.00,-6.00,-13.00,+34.00,-11.00,-2.00,+0.00,-1.00,+3.00,+12.00,-1.00,-6.00
+43.00,+14.00,+10.00,+2.00,-4.00,+0.00,+8.00,-7.00,-1.00,+1.00,-4.00,-2.00,+1.00,+0.00,-6.00,+0.00
-29.00,-19.00,-9.00,-2.00,+0.00,+0.00,+2.00,-3.00,+10.00,-3.00,-3.00,+1.00,-4.00,+12.00,+3.00,+1.00
+35.00,+27.00,+14.00,+5.00,+3.00,+2.00,+5.00,+13.00,-6.00,-2.00,-3.00,-2.00,+1.00,-1.00,+1.00,+2.00
-30.00,-38.00,-22.00,-8.00,-4.00,-3.00,-15.00,-6.00,-6.00,-5.00,-3.00,+0.00,+0.00,-4.00,-12.00,-13.00
-4.00,-16.00,-8.00,-3.00,-6.00,-1.00,-3.00,-13.00,+7.00,+3.00,+1.00,-2.00,-7.00,-28.00,+3.00,+5.00
+16.00,+32.00,+18.00,+8.00,+6.00,-3.00,+2.00,+11.00,-15.00,-1.00,-2.00,+2.00,+11.00,+14.00,-1.00,-6.00
+2.00,-3.00,+0.00,+0.00,-1.00,+3.00,-2.00,+15.00,+0.00,+1.00,-1.00,-1.00,-3.00,-7.00,+0.00,-3.00
+21.00,+9.00,+0.00,+0.00,+2.00,-5.00,-11.00,-26.00,-4.00,-7.00,-4.00,-5.00,+14.00,+1.00,-5.00,-7.00
-7.00,-1.00,+2.00,+1.00,-3.00,-4.00,+9.00,-3.00,+2.00,+3.00,-4.00,-10.00,-30.00,-11.00,-2.00,-3.00
+5.00,-8.00,-9.00,-7.00,-16.00,-11.00,-8.00,-2.00,-6.00,-4.00,-1.00,-5.00,-2.00,-8.00,-5.00,-1.00
-20.00,+2.00,-1.00,+3.00,+18.00,+11.00,+1.00,+6.00,-2.00,-10.00,-3.00,+4.00,+6.00,+8.00,+3.00,+15.00
+30.00,+10.00,+1.00,-1.00,+0.00,+1.00,+3.00,-13.00,+10.00,-4.00,+1.00,+1.00,-7.00,-4.00,+2.00,-12.00
-18.00,-9.00,-4.00,-2.00,+6.00,+1.00,-8.00,+5.00,+7.00,+15.00,+4.00,+3.00,+10.00,+4.00,-4.00,+6.00
+2.00,-14.00,-6.00,-4.00,-7.00,-7.00,+2.00,-24.00,-30.00,-23.00,-5.00,-1.00,+1.00,-11.00,-3.00,-7.00
-13.00,+6.00,+4.00,+0.00,-3.00,+0.00,+0.00,+3.00,+19.00,+21.00,+1.00,-5.00,-4.00,+1.00,-4.00,+4.00
+15.00,+36.00,+17.00,+6.00,+4.00,+2.00,-13.00,+1.00,-8.00,-6.00,+5.00,+3.00,-1.00,+3.00,+5.00,+6.00
-9.00,-13.00,-4.00,-1.00,-3.00,-1.00,+3.00,+39.00,+0.00,-6.00,-4.00,-1.00,+3.00,+6.00,-3.00,-5.00
+15.00,-4.00,+2.00,+0.00,+4.00,+0.00,-1.00,-2.00,+13.00,+8.00,+0.00,+1.00,-7.00,-5.00,-2.00,-4.00
-19.00,-4.00,-3.00,-2.00,-9.00,-8.00,-8.00,-14.00,-10.00,-3.00,-3.00,-8.00,-4.00,-1.00,-1.00,-16.00
+1.00,+0.00,+0.00,+2.00,+2.00,+3.00,+6.00,+6.00,-15.00,-5.00,-3.00,-5.00,-11.00,+0.00,-3.00,-4.00
-7.00,-12.00,-5.00,-3.00,-2.00,-2.00,-3.00,-10.00,+12.00,+2.00,+0.00,+3.00,+5.00,-14.00,-3.00,-1.00
-15.00,-8.00,-5.00,-2.00,+0.00,-1.00,+2.00,-6.00,+2.00,-2.00,+1.00,-2.00,+8.00,+13.00,+4.00,+7.00
-17.00,-8.00,-6.00,-4.00,-5.00,-3.00,-2.00,+2.00,-2.00,-7.00,-2.00,+0.00,+1.00,+12.00,+1.00,-7.00
-9.00,-20.00,-8.00,-4.00,-7.00,-2.00,+2.00,-12.00,+5.00,+13.00,+0.00,-1.00,-12.00,-21.00,-1.00,-1.00
+12.00,+31.00,+9.00,+3.00,+5.00,-8.00,-9.00,-15.00,-13.00,-10.00,-1.00,+11.00,+19.00,+28.00,+6.00,+25.00
-8.00,-18.00,-9.00,-3.00,-6.00,+7.00,-3.00,-8.00,-2.00,-4.00,-2.00,-16.00,-19.00,-5.00,-5.00,-1.00
+21.00,+2.00,+4.00,+3.00,+6.00,-4.00,-4.00,-28.00,-15.00,-18.00,-1.00,+2.00,+5.00,+15.00,+4.00,-19.00
-15.00,-16.00,-2.00,+0.00,-5.00,-11.00,+2.00,-11.00,+10.00,+16.00,+0.00,+5.00,+8.00,+6.00,-4.00,+1.00
-18.00,+30.00,+10.00,+2.00,-2.00,+2.00,-16.00,+20.00,-22.00,-21.00,-6.00,-14.00,-27.00,-27.00,-8.00,-20.00
-14.00,-11.00,-7.00,+0.00,+15.00,+16.00,+39.00,+7.00,+5.00,+9.00,-2.00,+4.00,+15.00,+5.00,-6.00,-1.00
+3.00,-13.00,-7.00,-3.00,-4.00,+1.00,+1.00,+5.00,-17.00,-23.00,+0.00,-1.00,-6.00,-4.00,-1.00,+0.00
-8.00,+11.00,-4.00,-6.00,-12.00,-30.00,-23.00,-5.00,-10.00,-2.00,-3.00,-3.00,-21.00,-1.00,+0.00,-1.00
+26.00,+13.00,-4.00,-3.00,+0.00,+0.00,-10.00,-6.00,+40.00,+45.00,+10.00,+3.00,+16.00,+10.00,+6.00,+4.00
+27.00,+13.00,+11.00,+5.00,-3.00,+4.00,+11.00,+8.00,-4.00,+6.00,+2.00,+0.00,-1.00,-12.00,-2.00,-3.00
-15.00,+5.00,+4.00,-1.00,+7.00,+1.00,-14.00,+14.00,+9.00,+5.00,-2.00,-4.00,-1.00,-10.00,-4.00,+3.00
-1.00,-15.00,-11.00,-5.00,-8.00,+13.00,+14.00,-6.00,-4.00,-6.00,-5.00,-1.00,+6.00,+1.00,+1.00,+0.00
-2.00,-18.00,-10.00,-1.00,+5.00,-4.00,+6.00,-9.00,-24.00,-39.00,-5.00,+0.00,-3.00,-2.00,+3.00,+0.00
+7.00,+21.00,+12.00,+6.00,+5.00,-1.00,-10.00,-8.00,+10.00,+0.00,+2.00,+2.00,+1.00,+12.00,+3.00,+4.00
-27.00,-39.00,-11.00,-6.00,-13.00,-1.00,+7.00,+8.00,-10.00,+0.00,-4.00,+2.00,+6.00,-3.00,-5.00,-8.00
-13.00,+13.00,+3.00,-2.00,+2.00,+1.00,-2.00,+21.00,+3.00,-3.00,+2.00,+0.00,-2.00,-12.00,-3.00,-3.00
+12.00,+4.00,+2.00,-1.00,-4.00,+0.00,+1.00,-3.00,+6.00,+7.00,-4.00,-6.00,-2.00,+27.00,-3.00,-7.00
-7.00,-12.00,-2.00,+0.00,+3.00,+3.00,+4.00,-7.00,-6.00,-1.00,-2.00,-4.00,-6.00,-12.00,+0.00,+8.00
+12.00,+5.00,+0.00,-5.00,-17.00,-4.00,-4.00,-7.00,-4.00,-1.00,+2.00,+4.00,-1.00,-7.00,-1.00,-3.00
-1.00,-23.00,-7.00,+3.00,+23.00,+11.00,-6.00,-27.00,+1.00,-6.00,-1.00,-3.00,+1.00,+9.00,+2.00,+5.00
+20.00,-4.00,-4.00,-5.00,-3.00,+3.00,+9.00,-26.00,-13.00,-6.00,-4.00,-3.00,-2.00,-11.00,-11.00,-8.00
-13.00,+0.00,-5.00,-7.00,-11.00,-13.00,-15.00,-7.00,+21.00,+16.00,+4.00,+4.00,+0.00,-6.00,-1.00,-1.00
+1.00,-1.00,+7.00,+3.00,+4.00,-3.00,-2.00,+10.00,+3.00,+7.00,+1.00,+0.00,+0.00,+4.00,+0.00,-1.00
-5.00,+3.00,-1.00,+0.00,-1.00,+3.00,+4.00,+8.00,-13.00,-11.00,-3.00,-2.00,-3.00,+2.00,+1.00,-1.00
+7.00,-12.00,+0.00,+1.00,-1.00,+2.00,+5.00,-9.00,+6.00,+10.00,-1.00,-4.00,-4.00,+6.00,+1.00,-6.00
+11.00,+27.00,+4.00,-1.00,-3.00,-11.00,-28.00,-7.00,-1.00,-5.00,-2.00,+2.00,-1.00,-22.00,-8.00,-1.00
+0.00,+13.00,-3.00,-1.00,+1.00,+10.00,+22.00,+1.00,+8.00,+4.00,+0.00,-2.00,-5.00,-3.00,+3.00,+25.00
+18.00,+5.00,-1.00,-1.00,+3.00,-3.00,-1.00,-5.00,-5.00,-6.00,+1.00,+0.00,+4.00,+4.00,-1.00,-6.00
-17.00,-21.00,-8.00,-4.00,-5.00,-2.00,+3.00,-30.00,-14.00,-8.00,+1.00,+3.00,-2.00,-4.00,-1.00,-3.00
+1.00,+8.00,+9.00,+3.00,+1.00,+2.00,+6.00,+19.00,+15.00,+3.00,-3.00,-1.00,+1.00,+1.00,+0.00,+0.00
-2.00,+16.00,+3.00,-1.00,-2.00,-2.00,-2.00,+11.00,+10.00,+7.00,-2.00,-2.00,-4.00,-5.00,-3.00,-1.00
-4.00,+7.00,+0.00,-1.00,-2.00,-2.00,-4.00,+3.00,+7.00,+6.00,+0.00,+2.00,+2.00,+0.00,+1.00,-8.00
-19.00,-18.00,-4.00,-4.00,-4.00,-2.00,-2.00,-5.00,-13.00,-5.00,-3.00,-2.00,-2.00,-15.00,-3.00,+3.00
-13.00,-14.00,-7.00,-3.00,+0.00,-4.00,-7.00,-4.00,-5.00,-7.00,-3.00,+0.00,-1.00,+2.00,+2.00,-3.00
+9.00,+12.00,+2.00,+1.00,+3.00,+0.00,-4.00,-13.00,-8.00,-4.00,-2.00,-3.00,-7.00,-15.00,+3.00,-4.00
-8.00,-25.00,+0.00,-1.00,+0.00,+0.00,+0.00,+8.00,-1.00,-2.00,-2.00,-3.00,+2.00,+9.00,-8.00,-4.00
+7.00,+42.00,+11.00,+2.00,-2.00,+1.00,-2.00,-6.00,+6.00,+10.00,-1.00,+1.00,-2.00,-4.00,-2.00,-8.00
+7.00,-17.00,-10.00,-5.00,-5.00,-4.00,+10.00,+12.00,-9.00,-8.00,+1.00,+1.00,+3.00,+2.00,-5.00,-5.00
+11.00,+11.00,+6.00,+2.00,+2.00,-3.00,-26.00,+11.00,+6.00,+4.00,-2.00,-2.00,-2.00,-4.00,-6.00,-9.00
-6.00,-7.00,-5.00,-3.00,-4.00,+0.00,+2.00,-5.00,-5.00,-7.00,-6.00,-13.00,-20.00,-6.00,+4.00,+2.00
-17.00,-19.00,-2.00,-1.00,-7.00,-10.00,-17.00,+0.00,+0.00,+1.00,-2.00,-2.00,+3.00,-1.00,+0.00,+4.00
+16.00,+20.00,+1.00,-1.00,-3.00,-4.00,+6.00,-1.00,-7.00,-8.00,-4.00,-6.00,-4.00,-10.00,-1.00,-6.00
-6.00,-3.00,-4.00,+2.00,+13.00,+10.00,+4.00,+1.00,+0.00,+5.00,+2.00,+5.00,+3.00,+9.00,-5.00,-7.00
+1.00,+0.00,+0.00,+0.00,+4.00,+4.00,+3.00,+0.00,+22.00,+2.00,+3.00,+3.00,+7.00,-2.00,+0.00,+6.00
+2.00,+4.00,-2.00,-2.00,-1.00,-4.00,-3.00,+2.00,-15.00,-2.00,+0.00,-1.00,-2.00,+7.00,+2.00,-25.00
-8.00,-15.00,+0.00,-2.00,-2.00,+0.00,-6.00,-1.00,-1.00,-6.00,+0.00,+0.00,-2.00,+3.00,+1.00,-2.00
+6.00,-14.00,-6.00,-3.00,-6.00,-8.00,+1.00,-8.00,-8.00,+7.00,-1.00,-4.00,-1.00,-2.00,-3.00,-2.00
+35.00,+28.00,+6.00,+0.00,-4.00,+1.00,+1.00,-25.00,+6.00,+0.00,+0.00,+3.00,+5.00,+3.00,+1.00,-11.00
+16.00,+14.00,+8.00,+3.00,+4.00,+5.00,+13.00,+14.00,+1.00,-1.00,+1.00,-1.00,-3.00,-5.00,-2.00,+1.00
-17.00,-13.00,-8.00,-4.00,-2.00,+3.00,-3.00,+0.00,+5.00,+6.00,+2.00,-1.00,-4.00,-6.00,-2.00,-1.00
+8.00,+2.00,+5.00,+1.00,-2.00,-6.00,-1.00,+11.00,-2.00,-5.00,-1.00,-1.00,+0.00,+5.00,-4.00,-6.00
+16.00,-7.00,+0.00,+0.00,+0.00,-2.00,-4.00,-22.00,-9.00,+4.00,+0.00,-2.00,+0.00,+8.00,-4.00,+2.00
-11.00,+0.00,-5.00,-6.00,-5.00,-5.00,-8.00,-4.00,+5.00,-7.00,+1.00,+2.00,+4.00,+5.00,+4.00,+8.00
-9.00,-13.00,-6.00,-2.00,+0.00,+0.00,-3.00,-7.00,-10.00,-5.00,-1.00,-1.00,-1.00,+2.00,+5.00,-1.00
-3.00,-30.00,-4.00,-3.00,-4.00,+0.00,+6.00,+7.00,+3.00,-2.00,-1.00,-3.00,-5.00,-4.00,-2.00,+2.00
+7.00,+25.00,+3.00,+1.00,+3.00,+2.00,+11.00,+38.00,-7.00,+0.00,-2.00,-1.00,+4.00,-3.00,-2.00,-2.00
+19.00,+22.00,+11.00,+5.00,+4.00,+6.00,+9.00,+7.00,+5.00,-1.00,-3.00,-1.00,-3.00,+0.00,-1.00,+7.00
-6.00,+0.00,+2.00,+0.00,+3.00,+1.00,-6.00,-4.00,-6.00,-9.00,-3.00,+6.00,-2.00,-3.00,+0.00,+2.00
-4.00,+5.00,-4.00,-5.00,-3.00,-3.00,-3.00,-37.00,+1.00,+7.00,+2.00,-7.00,+8.00,+9.00,+5.00,+4.00
-26.00,-27.00,-10.00,-5.00,-8.00,-3.00,-3.00,+2.00,-4.00,-6.00,+0.00,+1.00,-2.00,-7.00,-3.00,+2.00
+25.00,+13.00,-2.00,-4.00,+1.00,-5.00,+2.00,-5.00,+1.00,+3.00,-2.00,-6.00,-6.00,-1.00,-1.00,+1.00
-18.00,-14.00,-4.00,-3.00,-17.00,-21.00,-4.00,+1.00,+1.00,-2.00,-3.00,-2.00,-4.00,-6.00,-2.00,-6.00
-8.00,+6.00,+1.00,+1.00,+17.00,+16.00,-4.00,+7.00,+1.00,+0.00,-2.00,-2.00,-6.00,+3.00,-1.00,-3.00
+15.00,+24.00,+7.00,+5.00,+7.00,+1.00,+1.00,+3.00,-9.00,-15.00,-5.00,+0.00,+1.00,-1.00,+0.00,+3.00
-7.00,-13.00,-4.00,-1.00,+2.00,+4.00,+0.00,+14.00,+3.00,+7.00,+3.00,+2.00,+4.00,+2.00,+0.00,+6.00
-3.00,-16.00,-6.00,-3.00,-5.00,+4.00,+0.00,-8.00,+2.00,+1.00,+0.00,+1.00,-6.00,-3.00,+1.00,+42.00
-13.00,-8.00,-5.00,-4.00,-13.00,-16.00,-3.00,+0.00,+3.00,+3.00,+0.00,+5.00,+11.00,+6.00,+3.00,+6.00
-16.00,-17.00,-2.00,-2.00,+0.00,-2.00,-6.00,+14.00,-4.00,+0.00,+0.00,+1.00,-4.00,-8.00,-5.00,-2.00
-4.00,+16.00,+7.00,+5.00,+4.00,+7.00,+3.00,-18.00,-1.00,-2.00,-1.00,+5.00,+5.00,+5.00,-4.00,-3.00
+0.00,-1.00,-5.00,-7.00,-7.00,-7.00,+0.00,-6.00,-15.00,-11.00,-7.00,-18.00,-17.00,-6.00,+3.00,-8.00
-20.00,-6.00,-3.00,-2.00,-8.00,-13.00,-4.00,+9.00,+4.00,+0.00,-1.00,+2.00,-3.00,-4.00,+0.00,+0.00
-4.00,-4.00,-1.00,-3.00,-9.00,-7.00,+4.00,-9.00,-8.00,+3.00,+1.00,-2.00,+5.00,-12.00,-6.00,+2.00
-23.00,-26.00,-5.00,+0.00,+22.00,+15.00,+2.00,+5.00,-2.00,-5.00,+1.00,+6.00,+5.00,+2.00,+7.00,+7.00
+21.00,+28.00,+10.00,+5.00,+9.00,-1.00,-4.00,+13.00,-5.00,+2.00,-1.00,+0.00,+1.00,+1.00,-8.00,+5.00
-26.00,+6.00,+1.00,-1.00,+2.00,+14.00,-17.00,-1.00,-1.00,-4.00,-2.00,-3.00,+0.00,-5.00,+2.00,+0.00
-6.00,+3.00,+2.00,-3.00,-14.00,-8.00,+18.00,+1.00,+0.00,-2.00,+0.00,+1.00,-4.00,+21.00,+2.00,-10.00
-20.00,-11.00,-3.00,+0.00,-2.00,-3.00,-2.00,+26.00,+9.00,+2.00,-1.00,-2.00,-4.00,+3.00,+0.00,+7.00
+2.00,-7.00,-4.00,+0.00,+6.00,+2.00,+5.00,+5.00,-5.00,+2.00,+0.00,+0.00,+7.00,+9.00,-6.00,-31.00
+14.00,+2.00,+0.00,-1.00,-4.00,-4.00,-2.00,-22.00,+1.00,-7.00,-3.00,-2.00,-13.00,-10.00,-1.00,-1.00
-36.00,+1.00,+2.00,+2.00,+9.00,+0.00,-9.00,+40.00,-10.00,-2.00,+0.00,+0.00,+5.00,-12.00,-5.00,+2.00
-24.00,-20.00,-8.00,-4.00,-11.00,-3.00,-8.00,-19.00,+22.00,+2.00,-1.00,-3.00,+2.00,+2.00,-2.00,+7.00
+8.00,+17.00,+1.00,-1.00,+4.00,+9.00,+6.00,+24.00,+2.00,+1.00,-1.00,-1.00,-4.00,-11.00,-4.00,-5.00
+12.00,+8.00,+5.00,+1.00,-6.00,-11.00,+4.00,+19.00,-7.00,-3.00,+0.00,+6.00,+11.00,+2.00,-2.00,-5.00
+2.00,-30.00,-12.00,-2.00,-2.00,+5.00,-7.00,-30.00,+9.00,+11.00,+2.00,-1.00,-8.00,+5.00,+5.00,+1.00
-23.00,+20.00,+7.00,+1.00,-4.00,-5.00,-1.00,+14.00,-1.00,+1.00,-3.00,-13.00,-25.00,-16.00,-6.00,-9.00
-12.00,-8.00,-1.00,-1.00,-7.00,-10.00,-5.00,-5.00,+3.00,-6.00,-2.00,+0.00,+1.00,+0.00,-2.00,-11.00
+10.00,-5.00,+0.00,-1.00,-9.00,-9.00,+4.00,-10.00,-24.00,-17.00,-5.00,-6.00,-5.00,-6.00,-5.00,+7.00
-11.00,-2.00,-2.00,+0.00,+13.00,+10.00,-4.00,-11.00,+15.00,+3.00,-2.00,+0.00,+8.00,+5.00,+1.00,+7.00
+7.00,-2.00,-5.00,-1.00,+4.00,-3.00,+4.00,+13.00,-8.00,-4.00,-2.00,+3.00,+1.00,-26.00,-1.00,-10.00
+8.00,-8.00,-3.00,+1.00,+1.00,+3.00,-1.00,-15.00,+6.00,+8.00,+0.00,-6.00,-1.00,+17.00,-5.00,+6.00
-21.00,-14.00,-8.00,-3.00,-4.00,-2.00,+4.00,+0.00,+15.00,+6.00,+3.00,+3.00,+6.00,+20.00,+9.00,+8.00
+36.00,+34.00,+13.00,+4.00,-5.00,-5.00,+0.00,+0.00,-17.00,-10.00,-6.00,-11.00,-6.00,-15.00,-14.00,-9.00
+36.00,-2.00,-1.00,-4.00,-13.00,-7.00,-10.00,-29.00,-5.00,+0.00,-1.00,+11.00,+16.00,+29.00,+2.00,+8.00
-25.00,-13.00,-3.00,-4.00,-8.00,-7.00,-7.00,+34.00,-2.00,+3.00,-1.00,-19.00,-42.00,-20.00,-5.00,-28.00
+18.00,+15.00,+5.00,+4.00,+10.00,+11.00,+7.00,+14.00,+4.00,+6.00,+0.00,+1.00,+13.00,-7.00,+0.00,-7.00
+4.00,+20.00,+0.00,-5.00,-17.00,-5.00,-2.00,+2.00,-10.00,-10.00,-5.00,+7.00,+11.00,+4.00,-1.00,-3.00
+8.00,+0.00,+1.00,+3.00,+28.00,+26.00,+5.00,-5.00,-1.00,+3.00,+1.00,-3.00,-15.00,-6.00,+3.00,+14.00
-13.00,-10.00,+0.00,+0.00,+9.00,+3.00,+1.00,-17.00,-6.00,-2.00,-1.00,+5.00,+14.00,-1.00,-2.00,-1.00
-3.00,-10.00,-3.00,-4.00,-2.00,-1.00,+6.00,-8.00,+4.00,-5.00,-5.00,-9.00,-14.00,-6.00,-5.00,+5.00
-8.00,-19.00,-11.00,-6.00,-16.00,-13.00,-7.00,-25.00,+20.00,+16.00,+4.00,+0.00,+0.00,+0.00,+2.00,-3.00
-3.00,+25.00,+8.00,+1.00,+2.00,+3.00,+2.00,+4.00,-28.00,-16.00,-1.00,+1.00,+8.00,-4.00,-1.00,-11.00
+1.00,-15.00,-6.00,-1.00,+2.00,+7.00,-3.00,-9.00,+9.00,+3.00,+1.00,+4.00,+7.00,+4.00,+7.00,+12.00
-25.00,-22.00,-11.00,-5.00,+2.00,+0.00,-2.00,-5.00,-9.00,-2.00,-1.00,-3.00,-8.00,-5.00,-4.00,-5.00
+43.00,+40.00,+13.00,+5.00,+0.00,-2.00,+1.00,-29.00,+4.00,+2.00,-2.00,+0.00,+1.00,-4.00,+4.00,+5.00
+4.00,-7.00,+0.00,+0.00,-14.00,-9.00,+2.00,+2.00,-9.00,-5.00,-6.00,-8.00,-2.00,+6.00,-11.00,-42.00
-9.00,+9.00,-2.00,+0.00,+3.00,+4.00,+3.00,+2.00,-12.00,-5.00,+1.00,+3.00,+2.00,+6.00,+5.00,-13.00
+22.00,+10.00,+4.00,+4.00,-3.00,+2.00,+2.00,-7.00,+15.00,+2.00,+1.00,+4.00,+4.00,+0.00,+6.00,+8.00
-34.00,-40.00,-14.00,-6.00,+5.00,-1.00,-13.00,-1.00,-12.00,-3.00,-1.00,+4.00,+0.00,+9.00,+1.00,-8.00
-17.00,-26.00,-13.00,-6.00,-10.00,-10.00,-7.00,-16.00,-1.00,+0.00,+1.00,-3.00,+5.00,-7.00,-10.00,-1.00
+39.00,+19.00,+12.00,+4.00,+4.00,+7.00,-1.00,-9.00,+3.00,-3.00,-1.00,-2.00,-7.00,-4.00,-9.00,-1.00
-22.00,+38.00,+6.00,-2.00,-7.00,-6.00,+4.00,+28.00,+0.00,+4.00,+0.00,-4.00,-14.00,-7.00,-7.00,-13.00
+0.00,-4.00,-3.00,-3.00,-10.00,-10.00,-4.00,-5.00,-12.00,-9.00,-2.00,-9.00,-11.00,-15.00,+3.00,+6.00
-8.00,-10.00,-4.00,+1.00,+13.00,+13.00,+6.00,+8.00,+3.00,-4.00,-4.00,-5.00,-5.00,-13.00,-4.00,+2.00
+0.00,-20.00,-7.00,-1.00,-4.00,-5.00,-2.00,+0.00,+23.00,+11.00,+4.00,+8.00,+20.00,+4.00,+0.00,+5.00
+16.00,-7.00,-2.00,+1.00,+9.00,+17.00,-1.00,-35.00,+2.00,+1.00,-1.00,+0.00,-5.00,+8.00,-3.00,+6.00
-7.00,-7.00,-3.00,-2.00,-8.00,-12.00,-19.00,+4.00,+1.00,-5.00,-3.00,-1.00,-5.00,-3.00,-4.00,-2.00
-9.00,-9.00,-5.00,+0.00,+11.00,+4.00,+15.00,+14.00,-2.00,+0.00,+0.00,+1.00,+2.00,-12.00,-2.00,-2.00
+5.00,+6.00,-1.00,+0.00,+1.00,+3.00,-1.00,-31.00,+3.00,-1.00,-6.00,+1.00,+4.00,+13.00,+5.00,+8.00
+1.00,+4.00,+4.00,+1.00,-5.00,-5.00,-6.00,+16.00,-15.00,-11.00,+0.00,+0.00,-6.00,-3.00,+0.00,+5.00
+1.00,+7.00,+5.00,+4.00,+10.00,+12.00,+1.00,-1.00,-1.00,-5.00,-1.00,+4.00,+10.00,+2.00,-1.00,-2.00
-7.00,-28.00,-10.00,-8.00,-18.00,-15.00,-10.00,+2.00,+1.00,+2.00,-2.00,-5.00,-9.00,-3.00,-5.00,-1.00
+4.00,-4.00,+2.00,+0.00,+2.00,+0.00,-1.00,-6.00,-7.00,-6.00,+0.00,+0.00,-7.00,-9.00,-2.00,-1.00
+7.00,+20.00,+6.00,+3.00,+4.00,+0.00,+2.00,-1.00,-3.00,-3.00,-4.00,-5.00,-6.00,-5.00,-3.00,+2.00
+42.00,+6.00,+4.00,+0.00,+0.00,+1.00,+7.00,+5.00,+6.00,+4.00,+0.00,+7.00,+16.00,+9.00,-2.00,+2.00
-5.00,+15.00,+3.00,+0.00,-10.00,-18.00,-6.00,+9.00,-8.00,-2.00,+0.00,-9.00,-14.00,-9.00,+2.00,+1.00
-20.00,-15.00,-6.00,+0.00,+7.00,+3.00,+0.00,+18.00,+13.00,+6.00,+1.00,-4.00,-8.00,+2.00,+2.00,+6.00
-20.00,-18.00,-6.00,-5.00,-11.00,-6.00,-5.00,-13.00,-6.00,-3.00,-2.00,-3.00,+7.00,-5.00,-3.00,-18.00
-2.00,+14.00,+5.00,+1.00,-7.00,-5.00,-2.00,+11.00,+10.00,+4.00,+0.00,-3.00,-6.00,-15.00,+1.00,+48.00
+15.00,+4.00,-4.00,-2.00,+3.00,+0.00,+6.00,-7.00,+2.00,+4.00,+1.00,+11.00,+11.00,+18.00,+12.00,+4.00
-9.00,+3.00,+2.00,+2.00,+1.00,-3.00,-13.00,-4.00,-16.00,-11.00,+0.00,+2.00,+4.00,+1.00,-1.00,-4.00
+26.00,-18.00,-5.00,-1.00,+11.00,+3.00,+2.00,-13.00,+2.00,-4.00,-4.00,-17.00,-30.00,-10.00,+3.00,-2.00
-12.00,-10.00,-2.00,-2.00,-8.00,-3.00,+10.00,+14.00,+3.00,+2.00,+1.00,-1.00,+3.00,+3.00,-3.00,-6.00
+19.00,+25.00,+6.00,-1.00,-23.00,-15.00,+1.00,+10.00,+7.00,+3.00,+1.00,+3.00,+0.00,-9.00,-6.00,+0.00
-7.00,+20.00,+4.00,+4.00,+26.00,+24.00,+11.00,+18.00,-11.00,+0.00,-1.00,+1.00,+12.00,+3.00,-5.00,+0.00
-6.00,+2.00,+0.00,+0.00,+5.00,-1.00,-4.00,+2.00,+16.00,+5.00,+2.00,-3.00,-10.00,+2.00,+0.00,-1.00
-11.00,-15.00,-5.00,-3.00,-7.00,+6.00,-11.00,-9.00,-18.00,-3.00,+4.00,+18.00,+11.00,+17.00,+7.00,-13.00
-3.00,-5.00,+2.00,+2.00,+2.00,-3.00,-3.00,-6.00,+17.00,+5.00,-7.00,-38.00,-57.00,-31.00,-10.00,-2.00
+3.00,-5.00,-6.00,-2.00,-5.00,-12.00,+0.00,+10.00,-1.00,-1.00,-2.00,+0.00,+6.00,-27.00,-4.00,-4.00
+4.00,+1.00,+0.00,-6.00,-43.00,-33.00,-7.00,+4.00,-8.00,+0.00,+1.00,+4.00,-8.00,+28.00,-4.00,-8.00
-17.00,+1.00,+1.00,+9.00,+51.00,+49.00,+9.00,+9.00,-7.00,-7.00,-5.00,-2.00,+21.00,+6.00,+1.00,-12.00
+12.00,+0.00,+3.00,+2.00,+7.00,+14.00,+1.00,-1.00,-12.00,-8.00,-5.00,-3.00,-8.00,+8.00,+0.00,+4.00
-2.00,-3.00,-4.00,-6.00,-18.00,-3.00,-3.00,-16.00,-1.00,-1.00,-1.00,-2.00,-14.00,+1.00,+1.00,+3.00
-3.00,-3.00,+0.00,+2.00,+15.00,+9.00,-3.00,+5.00,+5.00,+2.00,-2.00,+11.00,+18.00,-15.00,-2.00,+6.00
-2.00,-9.00,-6.00,-5.00,-10.00,-8.00,-1.00,+4.00,-7.00,-2.00,+4.00,+5.00,-12.00,+1.00,-3.00,-6.00
-14.00,-18.00,-6.00,-5.00,-3.00,-4.00,-4.00,-1.00,-14.00,-6.00,-2.00,-10.00,+9.00,-6.00,+0.00,+0.00
+5.00,+11.00,+2.00,+0.00,+2.00,+5.00,-2.00,-16.00,+14.00,+3.00,-3.00,-16.00,-16.00,+8.00,+5.00,+13.00
-18.00,-1.00,-4.00,-7.00,-29.00,-17.00,-1.00,+16.00,-2.00,-6.00,-4.00,+1.00,+11.00,-1.00,-7.00,-7.00
+7.00,+3.00,+3.00,-3.00,-14.00,-30.00,+5.00,+6.00,+0.00,-8.00,-5.00,-4.00,-5.00,+1.00,+2.00,+6.00
+12.00,+0.00,+2.00,+5.00,+39.00,+41.00,-5.00,-10.00,-12.00,+0.00,+3.00,+14.00,+14.00,+8.00,+6.00,-6.00
+5.00,+0.00,-5.00,-4.00,-3.00,-11.00,-7.00,-12.00,-4.00,+4.00,+1.00,+7.00,+4.00,-3.00,-1.00,-1.00
-38.00,-23.00,-12.00,-4.00,+0.00,+0.00,-8.00,-1.00,+0.00,+6.00,+4.00,+7.00,+22.00,+1.00,-4.00,-4.00
+36.00,+56.00,+26.00,+11.00,+3.00,-2.00,+7.00,+18.00,-3.00,-4.00,-5.00,-12.00,-11.00,-4.00,+2.00,-9.00
+11.00,+8.00,+0.00,-1.00,-15.00,-21.00,+2.00,+7.00,+2.00,-6.00,-3.00,-4.00,-9.00,-1.00,-4.00,+8.00
+7.00,-11.00,-5.00,-4.00,-25.00,+2.00,-2.00,-11.00,+7.00,+3.00,+1.00,+4.00,+9.00,+0.00,+1.00,+2.00
+17.00,-14.00,-3.00,+2.00,-4.00,-19.00,-2.00,-6.00,-23.00,-12.00,-4.00,+2.00,+19.00,+2.00,-2.00,-8.00
-30.00,-24.00,-12.00,-1.00,+32.00,+14.00,-1.00,-6.00,+5.00,+6.00,+3.00,+18.00,+22.00,-20.00,-14.00,-14.00
-4.00,+4.00,-1.00,-3.00,-7.00,-18.00,-3.00,+2.00,-2.00,-5.00,-10.00,-47.00,-75.00,-24.00,-17.00,-7.00
-3.00,-2.00,+2.00,+2.00,+7.00,+4.00,+4.00,+4.00,-6.00,-2.00,-5.00,-17.00,-11.00,+2.00,-2.00,-14.00
+10.00,+4.00,-1.00,-9.00,-61.00,-1.00,-4.00,-3.00,+10.00,+2.00,+0.00,-6.00,-5.00,-6.00,+5.00,+17.00
-1.00,+3.00,+0.00,+2.00,+15.00,-19.00,-1.00,+4.00,-11.00,-3.00,+0.00,+7.00,-7.00,+1.00,+1.00,-17.00
-2.00,+1.00,+1.00,+5.00,+43.00,+23.00,+6.00,-4.00,+6.00,+6.00,+3.00,+19.00,+33.00,+20.00,-5.00,-5.00
+15.00,-4.00,-4.00,+1.00,+14.00,+3.00,-1.00,-6.00,+8.00,+0.00,-2.00,-4.00,-10.00,-5.00,-1.00,+6.00
+7.00,+5.00,+1.00,+0.00,+14.00,+28.00,+8.00,+3.00,+4.00,+5.00,+2.00,-1.00,-2.00,+2.00,+0.00,+2.00
+38.00,-6.00,-6.00,-5.00,-49.00,-39.00,-7.00,-20.00,+1.00,-2.00,-2.00,-11.00,-14.00,-11.00,-11.00,-2.00
-16.00,-13.00,-2.00,-3.00,-6.00,+0.00,-4.00,-9.00,-4.00,+3.00,+4.00,+18.00,+18.00,+13.00,+8.00,+2.00
+2.00,+10.00,+3.00,+2.00,+12.00,+0.00,+4.00,+6.00,+11.00,+8.00,+12.00,+32.00,+30.00,+9.00,+6.00,-13.00
-5.00,+4.00,+2.00,+0.00,-1.00,-12.00,-3.00,-3.00,-19.00,-12.00,-5.00,-5.00,-9.00,-9.00,+4.00,+5.00
-12.00,-21.00,-9.00,-5.00,+1.00,+25.00,-2.00,-18.00,+7.00,+6.00,-1.00,-29.00,-21.00,-2.00,+1.00,+5.00
+19.00,+1.00,-2.00,-4.00,-28.00,-22.00,-5.00,-9.00,+1.00,-10.00,-8.00,-22.00,-25.00,-24.00,-3.00,-8.00
+9.00,+3.00,+5.00,-4.00,-38.00,-9.00,+0.00,+16.00,+0.00,+2.00,+6.00,+9.00,+15.00,+36.00,+4.00,+4.00
+22.00,+21.00,+8.00,+8.00,+35.00,+19.00,+10.00,+3.00,+2.00,+5.00,-1.00,+8.00,+0.00,-15.00,-9.00,-9.00
-16.00,-1.00,-4.00,+2.00,+41.00,+38.00,+5.00,-2.00,-12.00,-7.00,-4.00,-3.00,-18.00,+11.00,+3.00,+10.00
-16.00,-11.00,-4.00,-7.00,-21.00,-4.00,-5.00,-9.00,+17.00,+10.00,+5.00,+31.00,+52.00,+19.00,+16.00,+15.00
-20.00,-19.00,-4.00,+2.00,+10.00,-12.00,-1.00,-4.00,-35.00,-21.00,-12.00,-22.00,-24.00,-34.00,-12.00,-9.00
-2.00,-5.00,-8.00,-3.00,-9.00,+6.00,-4.00,+7.00,+31.00,+11.00,+0.00,-24.00,-23.00,-10.00,-9.00,+10.00
-51.00,-24.00,-12.00,-11.00,-38.00,-29.00,-12.00,+34.00,-11.00,-4.00,-2.00,+1.00,+0.00,+19.00,+4.00,+13.00
+8.00,+16.00,+8.00,+2.00,-37.00,-5.00,+4.00,+20.00,+4.00,+5.00,+9.00,+24.00,+19.00,-11.00,-1.00,+3.00
+27.00,+9.00,+3.00,+3.00,+59.00,+51.00,+17.00,-3.00,-7.00,-4.00,-2.00,+2.00,+27.00,+16.00,+8.00,+6.00
-8.00,+1.00,+6.00,+4.00,-19.00,+6.00,+0.00,+27.00,-14.00,-10.00,-10.00,-34.00,-75.00,-8.00,-12.00,-30.00
-3.00,-7.00,-7.00,-1.00,+38.00,+1.00,+2.00,-8.00,+8.00,-1.00,-4.00,-16.00,-9.00,-15.00,-5.00,-4.00
-4.00,+0.00,-2.00,-4.00,-56.00,-39.00,-8.00,-3.00,-8.00,-5.00,+1.00,+11.00,+5.00,+11.00,+3.00,-5.00
-9.00,+0.00,+1.00,+8.00,+48.00,+5.00,+3.00,+15.00,+0.00,+4.00,-1.00,+12.00,+24.00,-1.00,-4.00,+2.00
+1.00,-2.00,-2.00,+0.00,+41.00,+28.00,+3.00,-14.00,-3.00,+3.00,+8.00,+28.00,+54.00,+14.00,+9.00,+6.00
-22.00,-13.00,-2.00,-3.00,-20.00,+3.00,+3.00,-5.00,+11.00,+2.00,-2.00,-17.00,-27.00,-7.00,-7.00,-5.00
-3.00,+6.00,-6.00,-6.00,-14.00,+8.00,-5.00,+2.00,-20.00,-7.00,-2.00,+19.00,+35.00,+4.00,-4.00,-8.00
+4.00,+5.00,+3.00,-8.00,-79.00,-49.00,-7.00,-12.00,-10.00,-16.00,-9.00,-35.00,-15.00,-7.00,+1.00,-1.00
-10.00,-9.00,-8.00,+1.00,+42.00,+38.00,+2.00,-6.00,-2.00,+4.00,+5.00,+8.00,-12.00,-9.00,+0.00,-5.00
-2.00,-20.00,-8.00,+1.00,+18.00,+10.00,-4.00,-12.00,-6.00,-4.00,+6.00,+19.00,+21.00,+9.00,+1.00,+7.00
+26.00,+10.00,+3.00,-7.00,-43.00,-13.00,+1.00,-5.00,+0.00,+0.00,-5.00,-5.00,+0.00,+15.00,+10.00,-2.00
-10.00,+10.00,+5.00,+6.00,+17.00,+7.00,-2.00,-3.00,+1.00,+6.00,+2.00,+46.00,+10.00,+8.00,+1.00,+15.00
-6.00,+4.00,+0.00,+0.00,-8.00,-22.00,+0.00,-1.00,+9.00,-1.00,-10.00,-66.00,-56.00,-30.00,-7.00,+2.00
+29.00,+3.00,+0.00,-7.00,-41.00,-33.00,-6.00,-15.00,-10.00,-3.00,-2.00,-1.00,+20.00,+4.00,+6.00,-10.00
-69.00,-31.00,-11.00,+7.00,+65.00,+32.00,-3.00,-37.00,+18.00,+2.00,+10.00,+13.00,+69.00,+22.00,+7.00,+15.00
-10.00,-2.00,+1.00,+1.00,+2.00,-31.00,+1.00,+21.00,+16.00,+11.00,+10.00,+82.00,+93.00,+34.00,+7.00,+3.00
+1.00,+3.00,+2.00,-3.00,-2.00,-17.00,-2.00,+13.00,-3.00,-5.00,-17.00,-61.00,-73.00,-35.00,+2.00,+2.00
-5.00,-10.00,-5.00,-7.00,-26.00,+21.00,-3.00,-5.00,+0.00,+2.00,-1.00,+4.00,+40.00,-18.00,-14.00,-2.00
+6.00,+6.00,-2.00,-13.00,-67.00,-31.00,-15.00,-9.00,-1.00,+1.00,-7.00,-61.00,-99.00,-55.00,-18.00,-9.00
+0.00,+10.00,+11.00,+20.00,+65.00,+52.00,+12.00,+10.00,-2.00,-1.00,+3.00,+17.00,+53.00,-1.00,-2.00,-10.00
+0.00,-1.00,+2.00,+2.00,+13.00,+25.00,+8.00,-5.00,-13.00,-11.00,-2.00,+7.00,+13.00,+63.00,+7.00,-4.00
-1.00,+10.00,+0.00,+0.00,-14.00,-30.00,+4.00,-3.00,-11.00,-9.00,-6.00,-2.00,-21.00,+5.00,+3.00,-11.00
-15.00,-5.00,+0.00,+6.00,+37.00,+19.00,+0.00,+21.00,+8.00,+2.00,+1.00,+33.00,+33.00,+6.00,-4.00,+13.00
-6.00,-6.00,-4.00,-7.00,-58.00,-61.00,-13.00,-15.00,+4.00,+9.00,+9.00,-12.00,-20.00,-10.00,+4.00,+11.00
+6.00,-12.00,-8.00,+2.00,+52.00,+8.00,-2.00,-14.00,-4.00,+3.00,+1.00,-3.00,-4.00,-12.00,-7.00,-5.00
-15.00,-1.00,+9.00,+3.00,-39.00,+0.00,+10.00,+20.00,-8.00,-9.00,-5.00,+21.00,+43.00,+36.00,+2.00,-5.00
+56.00,+26.00,+10.00,-7.00,-40.00,-8.00,-1.00,-8.00,-13.00,-5.00,+1.00,+0.00,+19.00,+14.00,-3.00,-11.00
-12.00,+0.00,-13.00,+3.00,+102.00,+38.00,+15.00,+14.00,+13.00,+14.00,+10.00,+36.00,+45.00,+0.00,+4.00,+5.00
+0.00,+2.00,+3.00,-3.00,-59.00,-62.00,-10.00,-14.00,-8.00,-7.00,-7.00,-14.00,-7.00,-17.00,-1.00,+33.00
-12.00,-13.00,-8.00,-9.00,-53.00,+8.00,-7.00,+13.00,+2.00,+4.00,-6.00,-34.00,-33.00,-18.00,-2.00,-3.00
-14.00,-14.00,-11.00,+2.00,-11.00,+62.00,-3.00,-17.00,-8.00,-6.00,-2.00,-15.00,-20.00,+11.00,+4.00,-1.00
-3.00,+7.00,+4.00,+8.00,+45.00,+11.00,+7.00,-3.00,+6.00,-9.00,-3.00,-4.00,-11.00,-8.00,-6.00,+3.00
-29.00,-26.00,-9.00,-14.00,-73.00,-3.00,-11.00,-35.00,-22.00,-1.00,+9.00,+101.00,+115.00,+30.00,+9.00,-18.00
+19.00,+19.00,+15.00,+10.00,+60.00,+33.00,+8.00,-6.00,+15.00,+4.00,-6.00,-55.00,-56.00,-22.00,+2.00,+3.00
+5.00,+24.00,+7.00,+10.00,+27.00,+0.00,+2.00,+12.00,+19.00,+6.00,-3.00,+6.00,+14.00,-12.00,-5.00,-2.00
+8.00,-12.00,-13.00,-22.00,-111.00,-19.00,-24.00,-10.00,+0.00,-1.00,-14.00,-92.00,-127.00,-33.00,-6.00,+26.00
+3.00,+18.00,+5.00,+12.00,+38.00,-13.00,+12.00,+26.00,-8.00,-8.00,+0.00,+26.00,+42.00,+1.00,-3.00,-2.00
-9.00,-7.00,+2.00,+9.00,+78.00,+32.00,+6.00,-1.00,-2.00,+4.00,+4.00,+2.00,-45.00,+3.00,+5.00,-3.00
+20.00,-3.00,+3.00,-2.00,-31.00,-35.00,+0.00,-16.00,-4.00,+0.00,+2.00,+46.00,+91.00,-3.00,-9.00,-20.00
+11.00,+0.00,-5.00,-7.00,-8.00,+35.00,+0.00,-37.00,-24.00,-19.00,-20.00,-93.00,-113.00,-58.00,-27.00,-31.00
-64.00,-16.00,-6.00,-15.00,-101.00,-51.00,-19.00,-6.00,+13.00,+11.00,+8.00,+9.00,+33.00,+46.00,+12.00,+1.00
+0.00,-5.00,-13.00,-4.00,+42.00,+1.00,-8.00,-6.00,-4.00,+0.00,+1.00,-9.00,-19.00,+4.00,-3.00,+4.00
+28.00,+5.00,+1.00,-1.00,-7.00,-14.00,+3.00,-16.00,-6.00,-7.00,+0.00,+22.00,-30.00,+21.00,-1.00,-4.00
-30.00,-17.00,-2.00,-1.00,-7.00,+0.00,+3.00,+46.00,-2.00,+0.00,-1.00,+2.00,-31.00,+5.00,-15.00,-9.00
+21.00,+6.00,-1.00,-4.00,-40.00,-60.00,-3.00,+9.00,-8.00,-13.00,-10.00,-57.00,-57.00,-49.00,-13.00,-16.00
+12.00,+11.00,+3.00,+0.00,-8.00,+44.00,+4.00,-2.00,+8.00,+6.00,+7.00,+0.00,+51.00,+7.00,+1.00,-1.00
-21.00,-4.00,+2.00,-13.00,-107.00,-41.00,-24.00,-15.00,-9.00,-6.00,-6.00,-26.00,-66.00,-18.00,+6.00,-6.00
-4.00,-8.00,-3.00,+4.00,+73.00,+57.00,-2.00,-10.00,-6.00,+1.00,+1.00,+29.00,+51.00,+17.00,+4.00,+3.00
+8.00,-4.00,-7.00,-10.00,-58.00,-14.00,+1.00,-9.00,+23.00,+13.00,+12.00,+43.00,-9.00,+9.00,-5.00,-7.00
-6.00,+8.00,+0.00,+2.00,+24.00,-32.00,+2.00,+7.00,+8.00,-5.00,-13.00,-10.00,+33.00,-6.00,-4.00,-6.00
-7.00,-12.00,-5.00,+3.00,+41.00,+9.00,+10.00,+21.00,-14.00,-6.00,+15.00,+13.00,+39.00,+14.00,+11.00,+5.00
-12.00,-1.00,+5.00,-4.00,-46.00,-9.00,-12.00,-22.00,+2.00,-10.00,-7.00,-9.00,+14.00,-8.00,+2.00,-1.00
-1.00,-13.00,+13.00,+14.00,+45.00,+54.00,+9.00,+34.00,+8.00,+10.00,-1.00,-17.00,-53.00,+11.00,+12.00,+8.00
+21.00,+17.00,-5.00,-20.00,-123.00,-51.00,-22.00,-14.00,-10.00,-14.00,-4.00,+8.00,-9.00,-7.00,-5.00,+3.00
+11.00,+5.00,-8.00,+5.00,+99.00,+74.00,+26.00,+29.00,+18.00,+18.00,+12.00,+59.00,+36.00,-9.00,+1.00,+4.00
-2.00,+1.00,-3.00,-7.00,+29.00,-1.00,+2.00,+3.00,-9.00,-12.00,-18.00,-55.00,-58.00,-5.00,+2.00,-11.00
-10.00,-6.00,-2.00,+0.00,+15.00,+2.00,-11.00,-9.00,-17.00,-5.00,+5.00,+7.00,+23.00,+16.00,-8.00,-20.00
-20.00,-12.00,+3.00,+3.00,-31.00,-16.00,+1.00,-12.00,+4.00,+2.00,+7.00,+86.00,+102.00,-8.00,+7.00,-5.00
+3.00,-3.00,+9.00,+11.00,+35.00,-49.00,+1.00,+7.00,+4.00,-1.00,-16.00,-92.00,-110.00,-40.00,-8.00,+16.00
-4.00,-19.00,-6.00,-8.00,-46.00,+5.00,+3.00,+7.00,-6.00,+1.00,+5.00,+8.00,-4.00,+13.00,-5.00,-6.00
+55.00,+42.00,+4.00,+1.00,+83.00,+35.00,+1.00,-33.00,+3.00,-5.00,-5.00,+16.00,+69.00,+14.00,+6.00,+4.00
+13.00,+28.00,+24.00,+23.00,+43.00,-53.00,+4.00,+15.00,-4.00,-2.00,+0.00,+4.00,-14.00,-5.00,-1.00,-4.00
-2.00,+0.00,-7.00,+4.00,+43.00,+46.00,+0.00,+7.00,-4.00,+2.00,+1.00,+13.00,+60.00,+13.00,+8.00,-4.00
+36.00,+2.00,+2.00,+9.00,+37.00,+24.00,+8.00,-5.00,-1.00,-1.00,-4.00,-4.00,+29.00,+5.00,+0.00,+1.00
-17.00,-11.00,+0.00,+4.00,-29.00,-15.00,-1.00,-7.00,-3.00,-3.00,-4.00,-15.00,-21.00,-72.00,-16.00,-7.00
-22.00,-12.00,-13.00,-19.00,-95.00,-73.00,-8.00,+3.00,-5.00,-8.00,-2.00,+13.00,+58.00,+35.00,-6.00,-3.00
-18.00,+2.00,+2.00,+6.00,+106.00,+51.00,+3.00,-7.00,+12.00,+10.00,+7.00,+18.00,-43.00,+41.00,+25.00,+14.00
-1.00,-10.00,-1.00,+3.00,+53.00,-64.00,-7.00,-10.00,+6.00,+7.00,+4.00,-16.00,+25.00,+25.00,+19.00,+11.00
+6.00,+0.00,-1.00,-2.00,+6.00,+16.00,-2.00,-3.00,-10.00,-8.00,-6.00,-20.00,-74.00,-20.00,-8.00,-4.00
+25.00,+4.00,-2.00,-2.00,-38.00,+29.00,-5.00,+7.00,-2.00,+4.00,-1.00,+6.00,-7.00,-18.00,-37.00,-9.00
-25.00,-15.00,-7.00,-16.00,-99.00,-120.00,-17.00,-27.00,-5.00,-2.00,-2.00,+24.00,+7.00,-7.00,+12.00,-4.00
-11.00,+0.00,-4.00,-1.00,+37.00,-1.00,+5.00,+4.00,+11.00,-2.00,+2.00,-30.00,-68.00,-22.00,+2.00,-9.00
+19.00,+6.00,+3.00,+7.00,+38.00,-23.00,+3.00,+25.00,+3.00,-6.00,+4.00,+38.00,+58.00,+22.00,-2.00,+13.00
-3.00,-7.00,-1.00,-1.00,-20.00,+32.00,+5.00,-8.00,+11.00,+10.00,+3.00,-34.00,-29.00,+5.00,+19.00,+31.00
-4.00,-16.00,-5.00,+2.00,+28.00,-106.00,+13.00,+18.00,-23.00,-14.00,-2.00,+73.00,+37.00,+13.00,-4.00,-9.00
+0.00,+45.00,+8.00,-3.00,-45.00,+44.00,-11.00,-1.00,-23.00,-15.00,-14.00,-43.00,-46.00,-24.00,-24.00,-6.00
+2.00,-5.00,-7.00,+3.00,+88.00,-9.00,+3.00,-9.00,+48.00,+32.00,+16.00,+50.00,+40.00,+18.00,+17.00,+36.00
-17.00,-2.00,-2.00,+2.00,+73.00,+33.00,-9.00,+7.00,+4.00,+3.00,-5.00,-48.00,-128.00,-23.00,-6.00,-9.00
-7.00,-19.00,+0.00,+14.00,+37.00,+14.00,+2.00,+5.00,+22.00,+6.00,-2.00,-15.00,+16.00,+3.00,-2.00,+29.00
+23.00,+61.00,+20.00,+2.00,-66.00,+31.00,-3.00,-3.00,-16.00,-4.00,+0.00,+32.00,+41.00,-3.00,+6.00,-13.00
+0.00,-6.00,+6.00,+11.00,-33.00,-45.00,+15.00,+19.00,-23.00,-15.00,-5.00,+4.00,+43.00,-28.00,-31.00,-14.00
-37.00,-20.00,-10.00,-8.00,-76.00,+1.00,-10.00,-27.00,+5.00,+2.00,-5.00,-47.00,-87.00,+13.00,+38.00,+6.00
-6.00,-3.00,-2.00,+0.00,+9.00,-53.00,+2.00,+27.00,-5.00,-4.00,-10.00,-47.00,-88.00,-4.00,-13.00,-6.00
-15.00,-43.00,-16.00,-17.00,-95.00,-86.00,-9.00,-4.00,+6.00,+1.00,+4.00,-3.00,+31.00,-20.00,-9.00,-24.00
+4.00,+8.00,-3.00,-8.00,+63.00,+111.00,-2.00,-6.00,-21.00,-14.00,-5.00,+48.00,+45.00,+65.00,+30.00,-9.00
+6.00,+0.00,+0.00,+6.00,+40.00,-28.00,+0.00,-13.00,+3.00,+0.00,+0.00,+21.00,+38.00,-15.00,-16.00,-4.00
+7.00,+3.00,+2.00,-12.00,-107.00,+98.00,-4.00,-20.00,-4.00,-2.00,-7.00,-41.00,-22.00,-26.00,-11.00,-14.00
-1.00,-20.00,-14.00,-14.00,-72.00,-12.00,-20.00,-5.00,+10.00,+11.00,+9.00,+51.00,-2.00,+28.00,-1.00,+5.00
+15.00,+16.00,+12.00,+16.00,+41.00,-16.00,+3.00,-3.00,-1.00,-3.00,-2.00,-9.00,-84.00,-33.00,-18.00,-20.00
+22.00,+2.00,+2.00,+5.00,+54.00,-26.00,+6.00,+22.00,-18.00,-16.00,-13.00,-68.00,-40.00,-36.00,-2.00,+0.00
-13.00,+4.00,-3.00,-12.00,-98.00,+51.00,-13.00,-18.00,+3.00,+3.00,-11.00,-51.00,-16.00,+19.00,+1.00,-26.00
-6.00,-6.00,-3.00,+0.00,+0.00,+89.00,-3.00,+10.00,-12.00,+1.00,+9.00,+61.00,+76.00,+20.00,+1.00,+7.00
+12.00,+13.00,+6.00,+4.00,+25.00,+98.00,+19.00,-6.00,-4.00,-11.00,+8.00,+49.00,+26.00,-11.00,+26.00,+13.00
-5.00,-11.00,-7.00,-10.00,-59.00,-23.00,-11.00,-2.00,-21.00,-22.00,-25.00,-76.00,-103.00,-44.00,-40.00,-17.00
-15.00,-49.00,-12.00,+13.00,+120.00,+89.00,+8.00,-2.00,+14.00,+3.00,+5.00,-10.00,+66.00,-7.00,-54.00,+17.00
+24.00,+60.00,+19.00,+5.00,-56.00,-23.00,+15.00,-2.00,+1.00,+6.00,-11.00,-45.00,-17.00,-5.00,+4.00,-14.00
+39.00,+48.00,+10.00,-15.00,-120.00,+20.00,-39.00,-11.00,+10.00,+16.00,-2.00,-44.00,+1.00,+9.00,+10.00,+19.00
-18.00,-2.00,-6.00,-9.00,+6.00,+27.00,-12.00,+0.00,+7.00,+9.00,+26.00,+91.00,+71.00,+42.00,+21.00,+18.00
+9.00,+4.00,+3.00,-5.00,-50.00,+61.00,+26.00,+20.00,-17.00,-12.00,-7.00,-10.00,-45.00,-22.00,-41.00,-37.00
+8.00,-82.00,-32.00,-27.00,-80.00,-127.00,-26.00,-41.00,+0.00,-4.00,+3.00,+36.00,+38.00,+5.00,+6.00,+19.00
-47.00,-18.00,-14.00,-11.00,-3.00,+63.00,-9.00,-4.00,+5.00,-4.00,-5.00,-38.00,-77.00,-38.00,-20.00,+10.00
+16.00,+7.00,+12.00,+21.00,+107.00,-67.00,+35.00,+7.00,-9.00,-9.00,-15.00,-28.00,-11.00,-37.00,+9.00,+3.00
+7.00,+14.00,+4.00,+2.00,+32.00,+15.00,-6.00,-5.00,+5.00,+1.00,-1.00,-9.00,-28.00,-28.00,-26.00,-2.00
+27.00,-1.00,+3.00,+9.00,+0.00,-74.00,+15.00,-6.00,-4.00,-1.00,+6.00,+56.00,+23.00,-18.00,+4.00,-6.00
-11.00,+1.00,+2.00,-1.00,-99.00,-104.00,-32.00,+36.00,-7.00,-1.00,-7.00,-39.00,-54.00,+7.00,-37.00,-19.00
-1.00,-16.00,-6.00,-8.00,-29.00,+8.00,-23.00,-9.00,+12.00,+13.00,+4.00,-19.00,-57.00,+46.00,+28.00,+16.00
-3.00,+3.00,-4.00,-4.00,-43.00,-110.00,-10.00,+1.00,-22.00,-19.00,-9.00,+18.00,+24.00,-28.00,-29.00,-3.00
-7.00,+8.00,+12.00,+17.00,+30.00,-9.00,-6.00,+14.00,-3.00,-4.00,-4.00,-25.00,-20.00,-3.00,+47.00,-5.00
+8.00,-16.00,-2.00,+0.00,+12.00,+36.00,+28.00,-4.00,+1.00,-6.00,-17.00,-68.00,-43.00,+20.00,-36.00,+1.00
-9.00,-11.00,-7.00,+2.00,+62.00,-16.00,+46.00,+18.00,-8.00,+0.00,+8.00,+44.00,+4.00,-17.00,-50.00,-23.00
+3.00,+7.00,+1.00,-9.00,-57.00,-52.00,+5.00,+2.00,+0.00,-4.00,+3.00,-1.00,+28.00,+12.00,+26.00,-2.00
-25.00,-13.00,-4.00,-9.00,-45.00,+23.00,+1.00,-9.00,-17.00,-7.00,+5.00,+42.00,-55.00,+17.00,+33.00,+27.00
+6.00,+15.00,+4.00,+4.00,-9.00,-13.00,-20.00,-19.00,-4.00,-3.00,-5.00,-12.00,+8.00,-32.00,+28.00,-1.00
+41.00,+30.00,+14.00,+12.00,+34.00,+50.00,+24.00,+1.00,+5.00,-3.00,-5.00,-18.00,-15.00,+65.00,+18.00,-7.00
-22.00,+5.00,-5.00,-9.00,-57.00,+21.00,+30.00,+29.00,-8.00,-7.00,-4.00,-19.00,-7.00,+17.00,+35.00,+6.00
-43.00,-35.00,-8.00,-14.00,-73.00,+11.00,-47.00,-2.00,+7.00,+6.00,+5.00,+13.00,+37.00,-9.00,-12.00,-4.00
-2.00,+8.00,+0.00,+12.00,+93.00,-51.00,+28.00,+4.00,+3.00,+6.00,+12.00,+63.00,-3.00,+18.00,-6.00,-11.00
+4.00,+8.00,+3.00,-4.00,-97.00,-4.00,+2.00,-38.00,+1.00,+6.00,+2.00,+22.00,+124.00,+20.00,+4.00,-23.00
+8.00,+16.00,+3.00,-5.00,-25.00,-1.00,-30.00,-23.00,-4.00,-2.00,-7.00,-10.00,+56.00,-72.00,-51.00,-11.00
+17.00,+1.00,+1.00,+9.00,+28.00,+11.00,+10.00,+20.00,+7.00,-2.00,-11.00,-64.00,-88.00,+7.00,+27.00,+3.00
-19.00,-28.00,-11.00,-17.00,-102.00,-15.00,-12.00,+5.00,-10.00,-4.00,+10.00,+44.00,+93.00,+47.00,+5.00,+3.00
+21.00,+3.00,+1.00,+8.00,+56.00,-43.00,-37.00,+17.00,+5.00,+2.00,+12.00,+59.00,+81.00,+21.00,+4.00,-10.00
-4.00,-9.00,-2.00,+10.00,+87.00,-8.00,+69.00,+11.00,+6.00,+8.00,+1.00,-39.00,-110.00,-12.00,+39.00,+26.00
-10.00,+6.00,-4.00,+1.00,+89.00,+35.00,-13.00,-6.00,+18.00,+6.00,-9.00,-71.00,-45.00,-50.00,-57.00,-4.00
+14.00,+12.00,+1.00,+0.00,-44.00,-36.00,+45.00,-2.00,-1.00,-4.00,-5.00,+1.00,+29.00,-27.00,-17.00,-13.00
-20.00,-15.00,-5.00,-20.00,-128.00,-42.00,-17.00,-22.00,-8.00,+1.00,+0.00,+14.00,+40.00,-47.00,-30.00,-9.00
+8.00,-8.00,-3.00,+10.00,+93.00,-16.00,+0.00,+6.00,-3.00,-3.00,-1.00,+19.00,-8.00,+23.00,+32.00,+42.00
-7.00,+0.00,+3.00,+8.00,+56.00,+90.00,+30.00,+15.00,+2.00,-1.00,-5.00,-37.00,-43.00,-61.00,+29.00,+3.00
+0.00,-9.00,+5.00,+2.00,-12.00,-8.00,-28.00,-10.00,-4.00,-1.00,+4.00,+4.00,-15.00,+52.00,+49.00,+1.00
+0.00,+11.00,+9.00,+10.00,+37.00,+44.00,+41.00,-14.00,+10.00,+2.00,-5.00,-27.00,-31.00,+38.00,+23.00,+9.00
-72.00,-13.00,-10.00,-32.00,-128.00,-5.00,-52.00,+35.00,-13.00,-13.00,-1.00,+34.00,+29.00,-41.00,-19.00,-23.00
-5.00,+0.00,-6.00,-4.00,+59.00,-2.00,+44.00,+10.00,+17.00,+5.00,-1.00,-46.00,-36.00,-25.00,-36.00,+3.00
-13.00,-26.00,-14.00,-18.00,-73.00,-59.00,-8.00,-6.00,-11.00,-11.00,-5.00,-4.00,+16.00,-20.00,+51.00,-6.00
-15.00,-8.00,-10.00,+5.00,+91.00,+114.00,+7.00,+11.00,-17.00,-11.00,-1.00,+29.00,+5.00,-65.00,-68.00,-6.00
+34.00,+34.00,+18.00,+3.00,-54.00,+48.00,-36.00,-29.00,+17.00,+10.00,+7.00,+20.00,+48.00,+9.00,+96.00,+9.00
+16.00,+17.00,+5.00,+5.00,+45.00,-14.00,+3.00,+2.00,+20.00,+8.00,-3.00,-24.00,-58.00,+30.00,-63.00,-1.00
-35.00,-24.00,-9.00,-15.00,-72.00,+11.00,-44.00,-4.00,-7.00,+1.00,+2.00,-2.00,-1.00,+96.00,+8.00,-15.00
-45.00,-46.00,-24.00,-22.00,-95.00,+18.00,-8.00,-23.00,-3.00,-2.00,-6.00,-6.00,+39.00,-12.00,-34.00,+1.00
+16.00,-12.00,+6.00,+21.00,+105.00,-56.00,+39.00,+22.00,+20.00,+11.00,+5.00,-19.00,-102.00,-10.00,+39.00,+5.00
+39.00,+59.00,+17.00,+8.00,+30.00,+54.00,-40.00,+5.00,-13.00,-5.00,+15.00,+115.00,+127.00,+47.00,+21.00,-11.00
+24.00,-13.00,+1.00,+13.00,+64.00,+43.00,+34.00,+19.00,-6.00,-9.00,-26.00,-110.00,-105.00,-37.00,+8.00,-6.00
+12.00,+26.00,+5.00,-6.00,-63.00,+26.00,-40.00,+3.00,+16.00,-2.00,+0.00,+42.00,+79.00,+110.00,-55.00,+33.00
+9.00,-5.00,-4.00,+1.00,+36.00,+41.00,-25.00,-3.00,-24.00,-14.00,-10.00,-18.00,-17.00,-36.00,-23.00,-25.00
-9.00,-16.00,-1.00,-5.00,-81.00,-33.00,-18.00,-22.00,-8.00,-1.00,+2.00,+57.00,+116.00,-20.00,-49.00,-17.00
+9.00,-14.00,-12.00,-2.00,+20.00,+44.00,+32.00,+11.00,+1.00,-2.00,-5.00,-33.00,-88.00,+12.00,+63.00,+35.00
-5.00,+16.00,+10.00,+8.00,+54.00,+32.00,-27.00,-30.00,-21.00,-5.00,-3.00,-23.00,-114.00,-75.00,+12.00,-16.00
-54.00,+1.00,-7.00,-4.00,-83.00,+3.00,+10.00,+16.00,+1.00,-7.00,-14.00,-19.00,-8.00,-40.00,-84.00,-27.00
-37.00,-10.00,+5.00,+12.00,+20.00,-41.00,+0.00,-14.00,-9.00,-7.00,-6.00,-32.00,-38.00,+28.00,+65.00,-11.00
-5.00,+1.00,+1.00,+14.00,+93.00,-3.00,-43.00,-15.00,+5.00,+12.00,+22.00,+95.00,+127.00,+5.00,-110.00,-9.00
-4.00,-8.00,-2.00,-4.00,-65.00,+13.00,+42.00,+37.00,+5.00,+3.00,+6.00,+32.00,+53.00,+9.00,-10.00,+7.00
+40.00,+14.00,+6.00,-6.00,-63.00,-44.00,+8.00,-40.00,-5.00,-1.00,-4.00,+2.00,+13.00,-65.00,-46.00,+0.00
-3.00,+1.00,-5.00,+2.00,+46.00,+86.00,-10.00,+0.00,-31.00,-27.00,-22.00,-60.00,-74.00,+15.00,-37.00,-32.00
+1.00,+2.00,-3.00,+3.00,+91.00,-10.00,-15.00,+31.00,-15.00,-5.00,-8.00,-7.00,+51.00,-44.00,-58.00,-24.00
-6.00,+2.00,-1.00,-2.00,-45.00,-13.00,+5.00,+4.00,+20.00,+13.00,+2.00,-7.00,+32.00,+38.00,+2.00,-14.00
+19.00,+16.00,+11.00,+15.00,+78.00,+15.00,+13.00,+28.00,-3.00,+8.00,+14.00,+61.00,+91.00,+80.00,+16.00,+4.00
+1.00,-22.00,-13.00,-17.00,-128.00,-23.00,-17.00,-7.00,+13.00,+7.00,+8.00,-13.00,-33.00,-39.00,+40.00,+41.00
-14.00,-20.00,-5.00,-6.00,-19.00,-52.00,-16.00,-1.00,-12.00,-4.00,+1.00,+18.00,-18.00,+7.00,-7.00,+12.00
+33.00,+49.00,+17.00,+9.00,+14.00,+16.00,-10.00,+3.00,-25.00,-21.00,-13.00,-17.00,-63.00,-124.00,-58.00,-23.00
+4.00,+13.00,-11.00,-28.00,-125.00,+39.00,-72.00,-37.00,-10.00,+2.00,-5.00,-5.00,+17.00,+97.00,+1.00,-24.00
+43.00,-3.00,+0.00,+6.00,+65.00,-42.00,+17.00,-10.00,+16.00,+11.00,+3.00,-14.00,-7.00,+10.00,+52.00,+24.00
+13.00,+31.00,+14.00,+21.00,+103.00,+13.00,-51.00,-7.00,+20.00,+12.00,+7.00,+21.00,+51.00,+95.00,+58.00,+34.00
-3.00,-29.00,-6.00,+0.00,+21.00,-23.00,+15.00,+20.00,-6.00,-11.00,-21.00,-68.00,-69.00,-84.00,+45.00,+1.00
-9.00,-19.00,-13.00,-16.00,-77.00,-51.00,+2.00,-31.00,-11.00,-6.00,+5.00,+43.00,+81.00,+114.00,-24.00,-21.00
+8.00,+8.00,-1.00,-5.00,+20.00,+21.00,-10.00,+4.00,+12.00,+3.00,+2.00,+12.00,-33.00,-65.00,-102.00,+17.00
-33.00,-19.00,-10.00,-24.00,-128.00,+54.00,+28.00,-29.00,+13.00,+0.00,-6.00,-8.00,-32.00,-109.00,-90.00,-11.00
-9.00,-23.00,-13.00,-9.00,+6.00,+53.00,-13.00,-12.00,+3.00,+12.00,+18.00,+52.00,+79.00,+93.00,+49.00,+15.00
+14.00,+1.00,-2.00,+3.00,+54.00,+7.00,+12.00,-16.00,-1.00,-14.00,-15.00,-57.00,-46.00,+39.00,+24.00,+7.00
-19.00,-2.00,+8.00,+8.00,+17.00,+36.00,-41.00,-7.00,-13.00,-3.00,+1.00,+53.00,+127.00,+28.00,-51.00,-18.00
-2.00,-1.00,-4.00,-19.00,-86.00,+49.00,+25.00,+1.00,+8.00,-8.00,-8.00,-66.00,-87.00,-38.00,+66.00,+4.00
+29.00,+19.00,+8.00,+24.00,+44.00,-81.00,+36.00,+38.00,+0.00,-9.00,-8.00,-27.00,-52.00,-63.00,-80.00,-8.00
+3.00,-1.00,+4.00,+10.00,+10.00,+18.00,+29.00,+14.00,+14.00,+13.00,+5.00,-24.00,-53.00,+0.00,-9.00,+6.00
-14.00,-5.00,-2.00,-13.00,-80.00,-80.00,-5.00,+25.00,-1.00,+8.00,+8.00,+62.00,+69.00,+71.00,+57.00,+8.00
+0.00,+2.00,+8.00,+16.00,+113.00,+94.00,-58.00,-16.00,-24.00,-15.00,-14.00,-9.00,+1.00,+26.00,-1.00,-19.00
+15.00,+8.00,+0.00,-9.00,-31.00,-48.00,+22.00,-18.00,+0.00,-5.00,+1.00,-15.00,-43.00,+26.00,-10.00,-16.00
-4.00,-10.00,-1.00,+14.00,+127.00,+1.00,+36.00,+4.00,+21.00,+7.00,-2.00,-37.00,-11.00,-13.00,-10.00,+36.00
-2.00,-15.00,+5.00,+13.00,-50.00,-60.00,+80.00,+33.00,-9.00,-2.00,+6.00,+68.00,+93.00,+11.00,+45.00,-1.00
-9.00,-19.00,-11.00,-19.00,-128.00,-19.00,-41.00,-30.00,+12.00,-5.00,-23.00,-97.00,-41.00,-73.00,-15.00,-12.00
+12.00,+65.00,+17.00,+7.00,+11.00,+1.00,-14.00,+16.00,-4.00,+0.00,+6.00,+44.00,+41.00,+46.00,+15.00,+24.00
-15.00,-4.00,+5.00,+7.00,+92.00,+17.00,+25.00,-4.00,-2.00,+9.00,+20.00,+93.00,+114.00,+65.00,+35.00,-10.00
-2.00,+8.00,+3.00,-3.00,-53.00,-23.00,-15.00,-11.00,-1.00,-7.00,-14.00,+7.00,+5.00,-86.00,-26.00,-17.00
-19.00,-4.00,-12.00,-7.00,+10.00,-34.00,-6.00,-17.00,-4.00,+15.00,+31.00,+103.00,+116.00,+64.00,-50.00,-15.00
-18.00,-24.00,-3.00,-5.00,-81.00,+90.00,-78.00,-13.00,+13.00,+15.00,+21.00,+59.00,+39.00,+67.00,+29.00,+19.00
+27.00,+28.00,+15.00,+32.00,+86.00,+2.00,+48.00,+36.00,+14.00,+11.00,+15.00,+52.00,+59.00,+19.00,+41.00,+21.00
-5.00,+5.00,+5.00,-3.00,-53.00,+12.00,-105.00,-10.00,-5.00,-6.00,-2.00,-36.00,-105.00,-46.00,-3.00,-13.00
+0.00,-7.00,-8.00,+8.00,+98.00,+38.00,+71.00,+46.00,+5.00,-6.00,-12.00,-18.00,+11.00,+77.00,+49.00,+1.00
+14.00,-9.00,-11.00,-3.00,+123.00,-7.00,+33.00,-4.00,-3.00,+2.00,-1.00,-5.00,-26.00,-67.00,-1.00,-24.00
-8.00,+1.00,+2.00,-6.00,-93.00,+27.00,+40.00,+2.00,-24.00,-18.00,-12.00,-32.00,-87.00,-61.00,+1.00,-30.00
-23.00,-28.00,-19.00,-11.00,+0.00,-73.00,+65.00,-31.00,+19.00,+19.00,+12.00,-8.00,-57.00,+68.00,+6.00,-5.00
+29.00,+30.00,+15.00,+10.00,+81.00,-73.00,+7.00,+11.00,+6.00,+9.00,+6.00,+2.00,+61.00,-47.00,-59.00,-3.00
+14.00,+3.00,+3.00,-4.00,-55.00,-35.00,-27.00,+2.00,-33.00,-20.00,-4.00,-9.00,+38.00,+60.00,+58.00,-3.00
-5.00,-12.00,-15.00,-30.00,-128.00,-28.00,-61.00,-18.00,+23.00,+9.00,-12.00,-11.00,+51.00,+4.00,+7.00,-2.00
-13.00,-9.00,-14.00,-8.00,+105.00,+5.00,+57.00,-11.00,-4.00,+1.00,+8.00,+42.00,+26.00,+34.00,-42.00,-17.00
+25.00,+1.00,+1.00,+11.00,+63.00,-4.00,+42.00,+1.00,+5.00,+6.00,+3.00,-46.00,-89.00,-50.00,-20.00,+34.00
-57.00,-34.00,-4.00,+3.00,-13.00,-15.00,-12.00,-8.00,+4.00,+4.00,-2.00,-9.00,+33.00,+5.00,+87.00,+16.00
-6.00,-18.00,-9.00,-20.00,-56.00,-27.00,-93.00,-24.00,-33.00,-29.00,-8.00,+1.00,+15.00,+41.00,-12.00,-30.00
-1.00,+46.00,+10.00,+3.00,-7.00,+77.00,-52.00,+9.00,-34.00,-16.00,-15.00,-24.00,+21.00,-38.00,-50.00,-26.00
+62.00,+14.00,+7.00,+5.00,+1.00,+14.00,+23.00,-10.00,+51.00,+31.00,+24.00,+125.00,+65.00,+61.00,-16.00,-4.00
+8.00,-16.00,-4.00,+2.00,-2.00,+30.00,+17.00,+0.00,-43.00,-38.00,-44.00,-106.00,-104.00,-110.00,-95.00,-55.00
-56.00,-34.00,-15.00,-6.00,-18.00,-34.00,+5.00,-1.00,+21.00,+16.00,+13.00,+20.00,-21.00,-44.00,+37.00,+66.00
-60.00,-34.00,-12.00,-11.00,-16.00,-22.00,+2.00,+33.00,+25.00,+7.00,+4.00,+27.00,+79.00,+75.00,+16.00,+1.00
+25.00,+71.00,+31.00,+21.00,+9.00,+2.00,-53.00,+14.00,-32.00,-19.00,-10.00,-15.00,-27.00,-14.00,+11.00,-6.00
-28.00,-27.00,-8.00,-9.00,-2.00,-16.00,-8.00,-24.00,+35.00,+21.00,+18.00,+46.00,+10.00,-22.00,+2.00,-2.00
-2.00,+8.00,+7.00,+5.00,-23.00,-37.00,-6.00,-60.00,-17.00,-13.00,-6.00,-7.00,+41.00,+5.00,+7.00,-20.00
-3.00,-29.00,-4.00,+26.00,+127.00,+52.00,-5.00,+3.00,-9.00,-18.00,-24.00,-102.00,-116.00,+40.00,+24.00,-18.00
-23.00,+8.00,-2.00,-7.00,-87.00,-34.00,+26.00,-1.00,-7.00,+1.00,+6.00,+27.00,+11.00,+9.00,+54.00,+24.00
-6.00,-6.00,-4.00,-8.00,-16.00,+16.00,+27.00,+3.00,+15.00,+9.00,-5.00,-51.00,-33.00,-60.00,-66.00,-3.00
+20.00,+10.00,+8.00,+9.00,+10.00,-60.00,+1.00,-11.00,-12.00,+3.00,+4.00,+34.00,+30.00,-76.00,-24.00,-6.00
+16.00,-6.00,-6.00,-16.00,-85.00,-19.00,+18.00,-21.00,+8.00,+5.00,-1.00,-14.00,+5.00,-15.00,-48.00,+16.00
-22.00,-19.00,-5.00,-9.00,-119.00,+38.00,-10.00,+0.00,-33.00,-19.00,-11.00,-12.00,+19.00,-32.00,+18.00,-31.00
+16.00,+17.00,+6.00,+4.00,-1.00,+29.00,+39.00,+32.00,-17.00,-11.00,+0.00,-18.00,-71.00,+39.00,+22.00,+4.00
+26.00,-2.00,-1.00,+9.00,+72.00,-8.00,+0.00,-1.00,+17.00,+8.00,+4.00,+25.00,+30.00,+25.00,-20.00,+6.00
+13.00,+18.00,+8.00,-10.00,-94.00,+33.00,-7.00,+0.00,-2.00,+1.00,-5.00,-48.00,-57.00,-42.00,-23.00,+7.00
-30.00,-36.00,-14.00,-12.00,-9.00,+5.00,+68.00,-11.00,+20.00,+11.00,+7.00,+26.00,+20.00,-31.00,+14.00,+3.00
+5.00,+0.00,-5.00,-3.00,+34.00,-40.00,-2.00,+15.00,-9.00,-2.00,+1.00,+59.00,+94.00,-35.00,-35.00,-11.00
+31.00,+18.00,+4.00,+3.00,-32.00,+16.00,-65.00,-1.00,-10.00,-12.00,-20.00,-113.00,-127.00,+78.00,+51.00,-11.00
-14.00,+2.00,-5.00,-11.00,-38.00,+20.00,+23.00,-15.00,-4.00,+6.00,+3.00,+20.00,+36.00,+41.00,+36.00,+33.00
+10.00,+10.00,+3.00,+0.00,+53.00,-49.00,-63.00,+3.00,-2.00,-5.00,+1.00,+31.00,+19.00,-12.00,+5.00,-2.00
-10.00,-13.00,-6.00,-13.00,-91.00,+4.00,-16.00,-24.00,-11.00,+2.00,+1.00,-6.00,-20.00,+48.00,+15.00,+12.00
-18.00,-14.00,-3.00,+9.00,+127.00,+49.00,+48.00,+20.00,+41.00,+16.00,-3.00,-34.00,-80.00,-72.00,-3.00,+48.00
+22.00,-1.00,-7.00,-5.00,-53.00,-39.00,-13.00,-27.00,+5.00,+0.00,+1.00,+31.00,-11.00,-38.00,+0.00,-9.00
-17.00,-6.00,+1.00,+2.00,-42.00,-42.00,-41.00,-15.00,-16.00,-9.00,-15.00,-70.00,-82.00,-45.00,-10.00,-7.00
-9.00,-23.00,-12.00,-7.00,-12.00,+20.00,+8.00,+6.00,+36.00,+22.00,+19.00,+53.00,+49.00,+31.00,+64.00,+27.00
-30.00,-1.00,-1.00,-7.00,-50.00,-10.00,-30.00,+10.00,-14.00,-9.00,-9.00,-25.00,-22.00,-6.00,-38.00,-2.00
+14.00,+10.00,+9.00,+10.00,-12.00,-26.00,+27.00,+53.00,+0.00,-4.00,+6.00,+16.00,+33.00,+62.00,-4.00,+3.00
-22.00,-23.00,-4.00,+0.00,+17.00,+9.00,+25.00,-10.00,-8.00,-6.00,+0.00,+13.00,+22.00,-38.00,-66.00,-9.00
+40.00,-2.00,+0.00,+9.00,+82.00,+38.00,-16.00,-11.00,+1.00,+5.00,+2.00,+13.00,+6.00,+23.00,+40.00,-1.00
-63.00,-2.00,-2.00,-2.00,+41.00,+31.00,+16.00,+63.00,+0.00,+3.00,+6.00,+22.00,-23.00,-25.00,-11.00,-17.00
+18.00,+17.00,+5.00,+6.00,-46.00,-36.00,-10.00,+2.00,+3.00,+0.00,+3.00,+20.00,+58.00,-39.00,-10.00,+5.00
+13.00,-17.00,-3.00,+5.00,+70.00,-33.00,+14.00,+9.00,-8.00,-8.00,-16.00,-56.00,-84.00,+58.00,-7.00,-14.00
+0.00,+20.00,+8.00,+0.00,-40.00,+16.00,-8.00,-1.00,-2.00,-1.00,+2.00,+5.00,+9.00,-5.00,+42.00,+9.00
+56.00,+34.00,+9.00,+9.00,+18.00,+16.00,+38.00,-30.00,+0.00,+4.00,+1.00,-2.00,-14.00,-1.00,-12.00,-12.00
+2.00,-4.00,+2.00,+4.00,-10.00,+24.00,+37.00,-4.00,-16.00,-9.00,-6.00,+5.00,+6.00,-37.00,+7.00,+14.00
-11.00,-1.00,-4.00,-3.00,-28.00,+28.00,-11.00,+27.00,+2.00,+2.00,+1.00,-4.00,-1.00,-33.00,-40.00,-5.00
+12.00,+0.00,-2.00,+1.00,+4.00,-23.00,-32.00,+17.00,+2.00,+1.00,+6.00,+57.00,+38.00,+18.00,+1.00,-3.00
+14.00,-13.00,-7.00,-7.00,-16.00,+19.00,+29.00,+2.00,-24.00,-15.00,-12.00,-35.00,-49.00,-74.00,-20.00,-29.00
-8.00,-6.00,-3.00,-8.00,-6.00,-7.00,-21.00,-5.00,-17.00,-14.00,-9.00,-40.00,-69.00,-31.00,-1.00,-11.00
-5.00,-10.00,-1.00,+1.00,-41.00,-15.00,+26.00,-16.00,+10.00,+5.00,-1.00,-26.00,-29.00,-69.00,-18.00,+7.00
+8.00,+26.00,+12.00,+14.00,+55.00,-65.00,+15.00,-9.00,+26.00,+12.00,+7.00,+14.00,+13.00,+62.00,+22.00,+40.00
+14.00,+4.00,+2.00,-10.00,-123.00,+21.00,-47.00,+5.00,+0.00,+2.00,+8.00,+54.00,+78.00,-2.00,-13.00,+11.00
+27.00,+1.00,-3.00,+8.00,+127.00,-36.00,+1.00,-8.00,-8.00,-11.00,-10.00,-45.00,-41.00,-30.00,-18.00,+9.00
-61.00,-27.00,-10.00,-7.00,-38.00,-10.00,-6.00,-33.00,-6.00,-8.00,+1.00,+13.00,+5.00,-8.00,+3.00,-21.00
-27.00,+22.00,+4.00,-2.00,-11.00,-17.00,+5.00,+18.00,-3.00,-1.00,-5.00,-25.00,+12.00,+19.00,+23.00,+0.00
+11.00,+7.00,+2.00,+2.00,-63.00,-22.00,-3.00,+2.00,+15.00,+6.00,+5.00,+21.00,+17.00,-56.00,-16.00,-2.00
-5.00,-9.00,-9.00,-2.00,+49.00,+40.00,-15.00,+5.00,+5.00,+3.00,+2.00,+28.00,+34.00,+39.00,+18.00,-2.00
+25.00,+2.00,-3.00,-12.00,-74.00,+17.00,+11.00,+13.00,-2.00,-3.00,-5.00,-38.00,-68.00,+11.00,+46.00,+9.00
+1.00,-7.00,+2.00,+3.00,+15.00,-33.00,+18.00,-21.00,-20.00,-11.00,-10.00,-17.00,+3.00,-45.00,-37.00,-27.00
-21.00,-13.00,-7.00,-5.00,+19.00,-14.00,-63.00,-18.00,-8.00,-3.00,+2.00,+20.00,+15.00,+63.00,-1.00,-6.00
+0.00,+2.00,+2.00,-2.00,-43.00,+17.00,+7.00,+9.00,+25.00,+11.00,+8.00,+41.00,-1.00,-20.00,+3.00,+8.00
+5.00,+4.00,-2.00,-1.00,+9.00,+18.00,-9.00,+0.00,+4.00,+2.00,+2.00,+7.00,+76.00,+82.00,+33.00,+5.00
-6.00,-29.00,-12.00,-9.00,-62.00,+0.00,-8.00,+1.00,-1.00,-3.00,-5.00,-14.00,-6.00,-20.00,-38.00,-13.00
+42.00,+18.00,+5.00,+3.00,+57.00,-1.00,+12.00,-4.00,-26.00,-14.00,-6.00,-8.00,+62.00,+20.00,+12.00,+6.00
+0.00,+42.00,+18.00,+16.00,+100.00,+13.00,+15.00,+9.00,+29.00,+21.00,+11.00,+7.00,-37.00,+6.00,-4.00,+0.00
+1.00,+16.00,+5.00,+11.00,+72.00,+9.00,+4.00,+3.00,-1.00,+6.00,+7.00,+56.00,+112.00,+11.00,-6.00,+11.00
+19.00,-8.00,-3.00,-2.00,+5.00,+17.00,+2.00,-53.00,-11.00,-6.00,-14.00,-37.00,-71.00,-45.00,+18.00,-4.00
-26.00,-18.00,-10.00,-11.00,-69.00,-7.00,+45.00,+64.00,+6.00,+1.00,+2.00,-17.00,-34.00,+0.00,-4.00,-12.00
-8.00,-24.00,-7.00,-4.00,+0.00,+40.00,-20.00,-20.00,-17.00,-10.00,-6.00,-14.00,-9.00,+45.00,+0.00,-13.00
-21.00,-5.00,+2.00,+1.00,+29.00,-55.00,-28.00,+2.00,+5.00,-2.00,+5.00,+41.00,+48.00,+13.00,+2.00,+9.00
+15.00,+19.00,+7.00,+5.00,-18.00,+33.00,+60.00,+5.00,+1.00,-1.00,-10.00,-50.00,-51.00,-70.00,+30.00,+1.00
+11.00,-9.00,-5.00,-3.00,+57.00,+53.00,+16.00,-49.00,+3.00,-1.00,-5.00,-1.00,-68.00,+10.00,-48.00,-4.00
+2.00,+3.00,+0.00,-2.00,-23.00,-1.00,+39.00,+18.00,-16.00,-3.00,-1.00,-7.00,-13.00,-1.00,+28.00,-18.00
+17.00,+7.00,+5.00,+5.00,-29.00,-46.00,+29.00,+12.00,-9.00,-4.00,+0.00,-17.00,-23.00,+37.00,-34.00,-25.00
-6.00,-5.00,-2.00,-6.00,-36.00,-6.00,-36.00,-10.00,+5.00,+4.00,+10.00,+44.00,+70.00,+32.00,-13.00,+7.00
-15.00,-2.00,+0.00,+1.00,+49.00,-15.00,+17.00,-5.00,-10.00,-4.00,-4.00,-36.00,-58.00,-28.00,-3.00,+3.00
-5.00,-6.00,-2.00,+3.00,-35.00,+0.00,-70.00,-27.00,-9.00,-13.00,-11.00,-29.00,-7.00,+5.00,-14.00,-24.00
-5.00,+4.00,-1.00,-6.00,+18.00,+1.00,-21.00,-6.00,+19.00,+9.00,+1.00,-7.00,-23.00,-13.00,+23.00,+28.00
-15.00,-3.00,-2.00,-1.00,-33.00,-59.00,-18.00,+6.00,+11.00,+8.00,+8.00,+31.00,+37.00,+41.00,+11.00,+14.00
-21.00,-13.00,-7.00,-2.00,+27.00,+10.00,+15.00,-1.00,+2.00,+1.00,-1.00,+5.00,+31.00,-24.00,-8.00,+5.00
+24.00,-1.00,-9.00,-7.00,-12.00,-3.00,-14.00,-8.00,-10.00,-2.00,+1.00,+19.00,+17.00,-24.00,-15.00,-6.00
+11.00,-3.00,-7.00,-9.00,-47.00,+16.00,+7.00,+21.00,-17.00,-11.00,-8.00,-15.00,-6.00,-16.00,+5.00,-9.00
-16.00,-8.00,-2.00,-2.00,-2.00,+12.00,+10.00,+18.00,+5.00,+6.00,+9.00,+29.00,+60.00,+14.00,-15.00,-1.00
-33.00,-31.00,-8.00,-4.00,-15.00,+0.00,-28.00,-18.00,+7.00,+4.00,+1.00,+4.00,+17.00,-25.00,+14.00,+38.00
+37.00,+6.00,+5.00,+1.00,+8.00,-26.00,+17.00,+7.00,+3.00,-2.00,+0.00,+42.00,+56.00,-54.00,-15.00,+1.00
+11.00,+12.00,+5.00,-3.00,-37.00,+12.00,+2.00,-3.00,-5.00,-4.00,-14.00,-69.00,-51.00,-78.00,-29.00,-13.00
-11.00,-8.00,-2.00,-1.00,+22.00,-5.00,-11.00,+11.00,+5.00,+0.00,+2.00,-8.00,-34.00,+87.00,+42.00,+16.00
+6.00,-17.00,-7.00,+0.00,+72.00,+21.00,-9.00,-8.00,-10.00,-11.00,-8.00,-8.00,-8.00,+10.00,+10.00,-4.00
-36.00,-16.00,+0.00,-1.00,-32.00,-7.00,-38.00,+15.00,-9.00,-9.00,-6.00,-6.00,+24.00,+2.00,+0.00,-20.00
-5.00,-6.00,-6.00,-6.00,-20.00,+47.00,+38.00,+19.00,+2.00,+0.00,+3.00,-3.00,-44.00,-25.00,-2.00,+9.00
+7.00,+0.00,-1.00,+9.00,+120.00,+32.00,-30.00,+10.00,+1.00,+0.00,+3.00,+7.00,+0.00,-23.00,-13.00,-5.00
+2.00,-6.00,+3.00,+5.00,-72.00,-5.00,+4.00,+1.00,-20.00,-13.00,-4.00,-4.00,+20.00,-5.00,+1.00,-13.00
-28.00,-9.00,-6.00,-7.00,+7.00,+28.00,-7.00,-6.00,+3.00,+5.00,+7.00,+1.00,+8.00,+0.00,+5.00,+20.00
-6.00,+11.00,+1.00,-2.00,+0.00,+23.00,-13.00,-11.00,+5.00,+2.00,+3.00,+14.00,-11.00,+10.00,+18.00,+3.00
-15.00,-20.00,-10.00,-4.00,-28.00,-23.00,-22.00,-9.00,-7.00,-13.00,-10.00,-28.00,-36.00,-17.00,+3.00,-23.00
+24.00,+20.00,+5.00,-2.00,-43.00,-14.00,+0.00,-2.00,+11.00,+15.00,+10.00,+36.00,+49.00,+52.00,-5.00,-17.00
+4.00,+9.00,+4.00,-3.00,-27.00,-30.00,+31.00,+2.00,-6.00,+3.00,+0.00,+7.00,+33.00,-7.00,-5.00,+7.00
+2.00,-5.00,-4.00,-2.00,-18.00,-18.00,-17.00,-9.00,-1.00,-2.00,-3.00,-12.00,-2.00,+35.00,-18.00,+2.00
-3.00,-2.00,-2.00,-7.00,-29.00,+9.00,+23.00,+2.00,+6.00,-2.00,-3.00,-15.00,-59.00,-19.00,-34.00,-5.00
-3.00,-14.00,-5.00,-3.00,+52.00,-27.00,-10.00,-1.00,-10.00,-7.00,-3.00,-4.00,+13.00,+27.00,+0.00,-1.00
+33.00,-13.00,-7.00,-2.00,+19.00,+14.00,+17.00,-21.00,-12.00,-1.00,-6.00,-10.00,-12.00,+7.00,+1.00,-5.00
-22.00,+14.00,+2.00,+2.00,+50.00,+15.00,+5.00,-2.00,+13.00,+9.00,+9.00,+43.00,+52.00,+5.00,+12.00,-1.00
-3.00,+10.00,+0.00,-4.00,-18.00,-6.00,-11.00,+5.00,-3.00,+3.00,+4.00,+0.00,+5.00,+14.00,-13.00,+0.00
-28.00,-25.00,-9.00,-4.00,-21.00,+10.00,-6.00,-5.00,+0.00,-1.00,-4.00,+5.00,+16.00,-27.00,+10.00,+4.00
-13.00,-30.00,-8.00,-4.00,-6.00,-19.00,+7.00,-4.00,+7.00,+3.00,+0.00,-25.00,-13.00,-24.00,-12.00,+5.00
+52.00,+46.00,+13.00,-3.00,-75.00,+29.00,-5.00,+1.00,-8.00,-8.00,-6.00,+3.00,+9.00,+34.00,+16.00,-12.00
+40.00,+21.00,+10.00,+9.00,+49.00,+24.00,-9.00,+5.00,-24.00,-9.00,-8.00,-12.00,-15.00,-3.00,-8.00,-8.00
-1.00,+13.00,-2.00,-6.00,-12.00,-9.00,-2.00,+9.00,-1.00,-5.00,+3.00,+8.00,-8.00,-5.00,+1.00,-3.00
-21.00,-23.00,-9.00,+1.00,+20.00,-13.00,+4.00,+16.00,+33.00,+11.00,+0.00,+5.00,+14.00,+17.00,+16.00,+21.00
-2.00,-16.00,-1.00,-1.00,-5.00,-24.00,+6.00,-6.00,+10.00,+9.00,-1.00,-3.00,-11.00,-96.00,-7.00,+6.00
-11.00,-15.00,-3.00,-1.00,-30.00,+2.00,-6.00,-14.00,+5.00,+5.00,+5.00,+21.00,-10.00,+39.00,-16.00,+7.00
-4.00,+15.00,-5.00,-3.00,-19.00,-9.00,+5.00,+16.00,-22.00,-10.00,-9.00,-30.00,-13.00,-6.00,-2.00,-14.00
-11.00,+9.00,-1.00,-6.00,-16.00,+7.00,+2.00,+0.00,+1.00,-6.00,-2.00,+0.00,+8.00,+18.00,+1.00,-5.00
-3.00,-4.00,-3.00,+3.00,-15.00,-42.00,-45.00,-16.00,+18.00,+5.00,+2.00,+6.00,-26.00,+1.00,+9.00,+3.00
-4.00,-4.00,-3.00,+0.00,+67.00,+20.00,+45.00,+5.00,-34.00,-14.00,-5.00,+4.00,+26.00,-13.00,-9.00,+1.00
-4.00,-21.00,-5.00,+0.00,+3.00,-3.00,-18.00,-6.00,+17.00,+8.00,+5.00,+7.00,-1.00,-9.00,-1.00,+6.00
+0.00,+12.00,+3.00,+1.00,+13.00,+3.00,+5.00,-1.00,-14.00,-10.00,-1.00,-3.00,-4.00,+4.00,-3.00,+1.00
-18.00,-15.00,+0.00,+1.00,-17.00,-15.00,+8.00,+8.00,-15.00,-13.00,-6.00,+11.00,+42.00,+14.00,+6.00,-9.00
+12.00,+43.00,+5.00,-2.00,-15.00,-7.00,-10.00,-8.00,+13.00,+1.00,-8.00,+7.00,+13.00,-28.00,+1.00,-19.00
+39.00,+42.00,+18.00,+12.00,-4.00,+13.00,+4.00,-6.00,-1.00,-5.00,-19.00,-69.00,-75.00,-6.00,-11.00,-6.00
-31.00,-12.00,-13.00,-8.00,-20.00,-29.00,+2.00,+1.00,+9.00,+11.00,+6.00,-5.00,+1.00,-6.00,+13.00,+9.00
+3.00,-10.00,-15.00,-10.00,+1.00,-13.00,+14.00,+8.00,+10.00,+18.00,-1.00,+10.00,+35.00,+46.00,+6.00,+3.00
+0.00,-23.00,-8.00,-6.00,-79.00,+12.00,-33.00,-21.00,-44.00,-28.00,-4.00,+0.00,+21.00,-13.00,+1.00,-14.00
-18.00,+1.00,+9.00,+5.00,+12.00,-1.00,+3.00,-9.00,+31.00,+16.00,+10.00,+7.00,-37.00,-4.00,+4.00,+10.00
-20.00,-41.00,-8.00,-6.00,-18.00,+1.00,-8.00,+7.00,+12.00,+3.00,+0.00,-16.00,-36.00,-7.00,-8.00,+2.00
-10.00,-26.00,-13.00,+1.00,+36.00,+4.00,+5.00,-13.00,-12.00,-5.00,+4.00,+23.00,+0.00,-10.00,+3.00,-3.00
+10.00,+44.00,+19.00,+3.00,-9.00,+3.00,+2.00,+0.00,+18.00,+5.00,-4.00,-25.00,-49.00,+12.00,+15.00,+0.00
+38.00,+50.00,+15.00,+4.00,-16.00,+14.00,-5.00,+14.00,-13.00,-18.00,-6.00,+2.00,+17.00,+53.00,+14.00,-2.00
+7.00,+3.00,-1.00,+0.00,-18.00,-3.00,-7.00,-11.00,+2.00,+9.00,+0.00,-6.00,-14.00,+3.00,+9.00,+2.00
+2.00,-18.00,-8.00,-3.00,+3.00,-8.00,+12.00,-1.00,-2.00,+0.00,+1.00,+10.00,+11.00,+15.00,+1.00,-6.00
-33.00,-23.00,-7.00,+0.00,+47.00,-1.00,+20.00,+18.00,+4.00,+0.00,+0.00,+11.00,+60.00,-11.00,+0.00,+1.00
-16.00,-18.00,-3.00,-1.00,-2.00,-5.00,+0.00,-7.00,+10.00,+8.00,+3.00,+15.00,-9.00,-11.00,-8.00,-6.00
+4.00,-3.00,-1.00,+0.00,+10.00,+8.00,+5.00,+18.00,-5.00,-1.00,+0.00,+23.00,+49.00,+6.00,-3.00,-8.00
+15.00,+13.00,+6.00,-7.00,-51.00,+19.00,-7.00,-3.00,+1.00,-2.00,-3.00,-26.00,-26.00,-14.00,-3.00,+2.00
+11.00,+10.00,+17.00,+14.00,+69.00,+10.00,+2.00,+2.00,-5.00,+0.00,-1.00,-19.00,-12.00,-3.00,-3.00,+6.00
+0.00,-25.00,-21.00,-9.00,-1.00,-4.00,-7.00,-7.00,-2.00,-10.00,+1.00,+7.00,+16.00,-10.00,-7.00,-5.00
-3.00,+10.00,-9.00,-1.00,-21.00,-48.00,+2.00,-10.00,-28.00,-12.00,-12.00,-9.00,-2.00,+3.00,-1.00,+4.00
-5.00,+20.00,-1.00,-5.00,-4.00,-12.00,-3.00,-2.00,+14.00,-5.00,+2.00,+20.00,+24.00,+3.00,-2.00,+4.00
-14.00,-25.00,-13.00,-9.00,-14.00,-18.00,-8.00,+0.00,+18.00,+11.00,+2.00,-5.00,-25.00,-7.00,-5.00,+0.00
+2.00,-19.00,+10.00,+2.00,-4.00,-13.00,-2.00,-3.00,-16.00,-2.00,+3.00,+11.00,+58.00,+21.00,+0.00,-2.00
+9.00,+41.00,+14.00,+4.00,-42.00,-14.00,-6.00,+6.00,+19.00,+2.00,-1.00,-12.00,-22.00,-10.00,-5.00,-1.00
-3.00,+4.00,+7.00,+5.00,+32.00,+49.00,+7.00,-12.00,-47.00,-5.00,-5.00,-15.00,-9.00,-3.00,-11.00,-15.00
-27.00,-4.00,-12.00,-15.00,-53.00,-6.00,-20.00,-14.00,+18.00,+4.00,+24.00,+9.00,-15.00,-3.00,+2.00,+9.00
+12.00,-17.00,-9.00,+1.00,+75.00,-11.00,+11.00,+5.00,-7.00,-18.00,-38.00,+3.00,+14.00,-15.00,-6.00,-3.00
+5.00,-27.00,+1.00,+2.00,+10.00,+7.00,-1.00,-20.00,-12.00,-3.00,+5.00,+12.00,+26.00,+10.00,-3.00,-3.00
-2.00,+5.00,-7.00,-1.00,+5.00,-11.00,+3.00,+31.00,+13.00,-3.00,-8.00,-30.00,-59.00,-12.00,-1.00,-1.00
+7.00,+12.00,-6.00,-1.00,-16.00,+20.00,+7.00,+11.00,-2.00,+3.00,-5.00,+0.00,+18.00,-6.00,-2.00,+4.00
+15.00,+49.00,+21.00,-1.00,-78.00,+17.00,-12.00,+4.00,-8.00,+1.00,+14.00,+2.00,-8.00,+7.00,+1.00,+0.00
+9.00,+17.00,+11.00,+14.00,+111.00,+4.00,+18.00,-3.00,+2.00,-14.00,-7.00,+11.00,+7.00,+1.00,-2.00,-2.00
+5.00,-14.00,+0.00,+4.00,+32.00,-5.00,+0.00,-8.00,+24.00,+11.00,-1.00,-20.00,-6.00,-18.00,-4.00,+8.00
-23.00,-34.00,-18.00,-7.00,-7.00,-16.00,-8.00,-13.00,-16.00,-5.00,+0.00,-14.00,-11.00,+15.00,-3.00,-8.00
-2.00,+4.00,-6.00,-7.00,-22.00,-7.00,-3.00,+3.00,+13.00,+11.00,+7.00,-2.00,+1.00,-13.00,-5.00,-1.00
+1.00,+9.00,+8.00,+1.00,-32.00,+15.00,-4.00,-5.00,+7.00,+1.00,+2.00,-24.00,-56.00,-7.00,-8.00,+0.00
+5.00,-10.00,-3.00,-6.00,-49.00,+45.00,-1.00,-8.00,-16.00,-6.00,-6.00,+3.00,+1.00,+1.00,-4.00,-7.00
+16.00,+7.00,+0.00,+6.00,+58.00,-5.00,+6.00,-3.00,-8.00,+3.00,-4.00,+0.00,+6.00,+0.00,-8.00,-13.00
+1.00,-5.00,+1.00,+3.00,+2.00,-13.00,+2.00,-8.00,-12.00,-10.00,-3.00,-7.00,+2.00,-8.00,-4.00,-8.00
-12.00,-19.00,-13.00,-12.00,-9.00,+12.00,-5.00,+9.00,+13.00,+3.00,+2.00,+4.00,-9.00,+1.00,-5.00,+2.00
-12.00,-17.00,-1.00,-4.00,-26.00,-11.00,-4.00,-9.00,+1.00,-5.00,+8.00,-5.00,+1.00,+3.00,-1.00,+1.00
-38.00,-2.00,-3.00,-9.00,-48.00,-6.00,-8.00,+1.00,+5.00,-2.00,-16.00,+2.00,+7.00,+0.00,-4.00,-20.00
+30.00,+44.00,+14.00,+2.00,+15.00,+8.00,+0.00,+31.00,-9.00,+3.00,+3.00,+7.00,+3.00,+5.00,-2.00,-11.00
+6.00,+4.00,+1.00,+5.00,+34.00,+4.00,-5.00,-23.00,-28.00,-13.00,-11.00,-5.00,-9.00,-8.00,-1.00,-6.00
-3.00,-3.00,-2.00,+0.00,+4.00,-23.00,+6.00,+4.00,+10.00,+5.00,-4.00,+16.00,+30.00,+11.00,+2.00,-1.00
+30.00,-10.00,+9.00,+7.00,+0.00,-9.00,-1.00,-13.00,+12.00,-4.00,-5.00,-13.00,-1.00,-14.00,-3.00,+14.00
-9.00,-20.00,-30.00,-12.00,-12.00,-6.00,+0.00,+0.00,+5.00,+9.00,+17.00,-2.00,-12.00,+1.00,-1.00,+0.00
+1.00,+23.00,+9.00,-5.00,-40.00,+8.00,-3.00,+5.00,+1.00,+28.00,+16.00,-7.00,-10.00,-4.00,-6.00,-19.00
-5.00,-4.00,+0.00,+8.00,+39.00,-23.00,+1.00,-4.00,-20.00,-35.00,-8.00,+1.00,+9.00,+7.00,+2.00,+5.00
-7.00,-10.00,+2.00,+0.00,-30.00,+1.00,-2.00,-14.00,-3.00,-15.00,-12.00,+14.00,-1.00,+2.00,+2.00,+4.00
-30.00,-17.00,-11.00,+2.00,+57.00,+32.00,+0.00,+0.00,-4.00,+4.00,-6.00,-7.00,+8.00,-7.00,-4.00,+2.00
-18.00,-53.00,-14.00,-3.00,-6.00,-5.00,-1.00,+0.00,+3.00,-7.00,+3.00,+2.00,+11.00,+2.00,+0.00,-4.00
+19.00,+43.00,-3.00,-4.00,-14.00,+6.00,-1.00,-7.00,-8.00,+6.00,+6.00,+0.00,-16.00,+6.00,+2.00,+4.00
+13.00,+29.00,+15.00,+1.00,+12.00,-2.00,+2.00,+13.00,+14.00,+18.00,+12.00,+7.00,+8.00,-1.00,+3.00,+13.00
-7.00,-3.00,-1.00,+0.00,-1.00,-12.00,-2.00,-4.00,-11.00,-10.00,+6.00,+8.00,-1.00,-3.00,-2.00,-15.00
-1.00,+6.00,+0.00,-2.00,-5.00,+7.00,-3.00,+2.00,+7.00,+2.00,-14.00,+2.00,-1.00,-5.00,+1.00,+1.00
-7.00,-28.00,-3.00,+2.00,+18.00,-9.00,-2.00,-1.00,+5.00,+3.00,+0.00,-11.00,-3.00,-4.00,+0.00,-1.00
+0.00,-10.00,-8.00,+2.00,+5.00,+1.00,-1.00,-6.00,+15.00,+3.00,-1.00,-9.00,-7.00,-2.00,+2.00,+11.00
-45.00,-10.00,-9.00,-6.00,-29.00,-5.00,-2.00,+9.00,+21.00,+22.00,+9.00,+4.00,+6.00,-3.00,-2.00,+1.00
-2.00,-2.00,+6.00,-4.00,-8.00,+0.00,-1.00,-3.00,-23.00,-31.00,-15.00,-6.00,-15.00,-1.00,-6.00,-16.00
-10.00,+0.00,+5.00,+2.00,+19.00,-6.00,+2.00,+6.00,-26.00,+1.00,+1.00,+10.00,-1.00,+1.00,-1.00,-4.00
+15.00,+5.00,-3.00,-8.00,-11.00,-9.00,-7.00,-6.00,+35.00,+8.00,+8.00,+3.00,+10.00,+2.00,+5.00,+16.00
-7.00,-27.00,-2.00,+1.00,-7.00,-7.00,-3.00,-4.00,-10.00,-3.00,-7.00,-12.00,-29.00,+5.00,+6.00,+7.00
+20.00,+33.00,+4.00,-1.00,+0.00,+22.00,+3.00,+8.00,+23.00,+7.00,+7.00,+4.00,+17.00,-4.00,-2.00,+6.00
-16.00,+19.00,+15.00,+7.00,+25.00,+8.00,+0.00,+25.00,+0.00,-3.00,-9.00,-9.00,-7.00,-1.00,-1.00,-6.00
+8.00,+4.00,+4.00,+1.00,+2.00,-21.00,-1.00,+4.00,-21.00,-6.00,-1.00,+1.00,+4.00,-1.00,-2.00,-11.00
-2.00,-18.00,-5.00,+1.00,+41.00,+29.00,+0.00,-6.00,-13.00,-10.00,+0.00,+6.00,+4.00,-4.00,-1.00,-2.00
+21.00,+15.00,-2.00,+0.00,+8.00,-5.00,+0.00,+2.00,+2.00,-11.00,-21.00,-12.00,-5.00,+0.00,-1.00,-4.00
+12.00,-7.00,+3.00,+2.00,-7.00,+1.00,-4.00,-15.00,-20.00,-4.00,+4.00,+17.00,+20.00,+3.00,+0.00,-3.00
-7.00,-26.00,-11.00,+0.00,-3.00,-9.00,+3.00,+5.00,-4.00,+2.00,-1.00,-32.00,-26.00,-6.00,+0.00,+2.00
+1.00,-4.00,-4.00,-5.00,-33.00,-13.00,-6.00,-4.00,+14.00,-7.00,+6.00,+5.00,+3.00,-4.00,-6.00,-15.00
-8.00,+11.00,+6.00,-2.00,-1.00,+2.00,-4.00,+0.00,-5.00,+27.00,+9.00,-7.00,-8.00,+0.00,+1.00,+11.00
+33.00,+25.00,+9.00,+4.00,-32.00,-38.00,+0.00,-10.00,+15.00,-7.00,-12.00,-12.00,-12.00,-6.00,-7.00,-3.00
-42.00,-10.00,-2.00,+5.00,+59.00,+3.00,+2.00,+6.00,-3.00,+0.00,-6.00,+16.00,+13.00,+4.00,-2.00,-9.00
+5.00,-7.00,+2.00,-1.00,-9.00,-7.00,+1.00,+11.00,-21.00,-5.00,-6.00,+6.00,+17.00,+1.00,-5.00,-9.00
-6.00,-28.00,-15.00,-2.00,+9.00,+2.00,+1.00,-5.00,+29.00,+10.00,+11.00,-2.00,-18.00,+1.00,+2.00,+3.00
+8.00,-18.00,-3.00,-8.00,-22.00,-2.00,-4.00,-6.00,-11.00,-3.00,+6.00,+0.00,-5.00,-1.00,+2.00,+3.00
+63.00,+80.00,+22.00,+2.00,-24.00,+14.00,+6.00,+22.00,-11.00,-1.00,+0.00,-5.00,-5.00,-3.00,-4.00,-5.00
+1.00,-10.00,-1.00,+1.00,+3.00,-4.00,-2.00,-17.00,+13.00,-11.00,-13.00,-12.00,-19.00,-9.00,-2.00,+5.00
+24.00,+66.00,+16.00,+5.00,+13.00,-5.00,+1.00,+17.00,+8.00,+12.00,+11.00,+36.00,+31.00,+9.00,+7.00,+11.00
-37.00,-30.00,-19.00,-6.00,-9.00,+6.00,-1.00,+3.00,-3.00,-4.00,-9.00,-25.00,-27.00,-14.00,-7.00,-6.00
-17.00,-38.00,-17.00,-8.00,-11.00,-1.00,-3.00,-20.00,-13.00,-18.00,-3.00,-19.00,-30.00,-10.00,-3.00,-5.00
-14.00,-13.00,+0.00,-3.00,-2.00,+4.00,-2.00,-6.00,-8.00,+11.00,+0.00,-1.00,+4.00,+1.00,+4.00,+12.00
+26.00,+14.00,+11.00,+7.00,-42.00,-21.00,+2.00,+4.00,-29.00,-17.00,-3.00,-16.00,-24.00,-4.00,+3.00,+0.00
-10.00,+1.00,-1.00,+1.00,+5.00,-17.00,-6.00,-11.00,+49.00,+10.00,-4.00,+4.00,-3.00,+2.00,+4.00,-8.00
-2.00,-3.00,+3.00,+3.00,+30.00,+18.00,+1.00,+1.00,-27.00,-1.00,+17.00,+11.00,+11.00,+4.00,+1.00,-11.00
+19.00,-8.00,-11.00,-4.00,-2.00,-5.00,-2.00,-20.00,+13.00,-8.00,-31.00,+9.00,+7.00,-3.00,+6.00,+12.00
-76.00,-44.00,-14.00,-8.00,-12.00,+3.00,-5.00,+5.00,-11.00,+2.00,+2.00,-4.00,-11.00,+1.00,+0.00,-6.00
-7.00,-4.00,-3.00,-3.00,-4.00,+1.00,+0.00,+7.00,-32.00,-13.00,-2.00,-9.00,+20.00,+2.00,-4.00,-17.00
+1.00,+5.00,+2.00,+2.00,-10.00,-8.00,-2.00,+2.00,+21.00,+12.00,-6.00,-4.00,-8.00,-4.00,-1.00,-4.00
+27.00,+52.00,+30.00,+5.00,-24.00,+16.00,-2.00,+8.00,+8.00,+5.00,+15.00,+8.00,+9.00,+1.00,-1.00,+12.00
+3.00,-16.00,-13.00,-3.00,+27.00,-5.00,+2.00,-11.00,+7.00,-3.00,-4.00,+4.00,+12.00,+3.00,+1.00,+10.00
+6.00,+1.00,-3.00,-4.00,+16.00,+3.00,+3.00,+1.00,-9.00,+5.00,+6.00,+8.00,-2.00,+4.00,-1.00,+15.00
-26.00,-32.00,-14.00,-6.00,-12.00,-5.00,-4.00,-6.00,+5.00,+8.00,+0.00,+7.00,+3.00,-4.00,-7.00,-16.00
-9.00,+18.00,+8.00,+5.00,-2.00,-4.00,+0.00,-9.00,-5.00,-10.00,+9.00,-6.00,-5.00,-5.00,-4.00,+1.00
+40.00,+45.00,+14.00,+4.00,+6.00,+10.00,+7.00,+2.00,-16.00,-7.00,-12.00,-10.00,-6.00,-6.00,-6.00,-15.00
-15.00,-17.00,-9.00,-3.00,+1.00,-5.00,-6.00,-14.00,-7.00,-2.00,-4.00,+8.00,+4.00,+4.00,+3.00,+12.00
+15.00,-15.00,-3.00,+2.00,+3.00,+16.00,+7.00,+0.00,+29.00,+13.00,-2.00,+4.00,+18.00,+0.00,+0.00,+9.00
-22.00,-24.00,-11.00,-5.00,+0.00,-7.00,-3.00,-8.00,+6.00,-5.00,-4.00,+21.00,-6.00,+0.00,-1.00,-5.00
-14.00,-37.00,-13.00,-5.00,-9.00,+4.00,-10.00,-23.00,-23.00,-22.00,-11.00,-76.00,-61.00,-17.00,-7.00,-11.00
+29.00,+59.00,+26.00,+9.00,+16.00,-4.00,+4.00,+6.00,+3.00,+6.00,+6.00,+6.00,+0.00,+3.00,+2.00,-3.00
+18.00,+17.00,+2.00,-4.00,-29.00,-19.00,+1.00,+19.00,-10.00,-8.00,-2.00,-2.00,-4.00,-2.00,-3.00,-9.00
-3.00,+7.00,+7.00,-6.00,-81.00,+37.00,-2.00,-4.00,-4.00,+13.00,-1.00,-12.00,-3.00,-6.00,-1.00,+5.00
-34.00,-15.00,-14.00,-2.00,+52.00,+4.00,-2.00,-9.00,-31.00,-11.00,-3.00,+15.00,+20.00,+2.00,+2.00,+14.00
-11.00,-26.00,-8.00,+1.00,+6.00,+19.00,+0.00,-2.00,+11.00,+5.00,+5.00,+6.00,+5.00,+1.00,+5.00,+3.00
-39.00,-30.00,-9.00,-4.00,+1.00,-4.00,-6.00,-16.00,+7.00,-3.00,-5.00,-2.00,-4.00,+0.00,+4.00,+9.00
+16.00,-15.00,-5.00,-3.00,-6.00,-18.00,-3.00,+7.00,+10.00,+10.00,+7.00,+4.00,+7.00,+5.00,+4.00,+4.00
+24.00,+53.00,+9.00,-2.00,-24.00,-6.00,+2.00,+23.00,+1.00,-7.00,+3.00,+4.00,+6.00,+2.00,+2.00,+1.00
+18.00,+13.00,+6.00,+3.00,+2.00,+11.00,+3.00,+8.00,-4.00,+2.00,-10.00,-12.00,-7.00,-5.00,-7.00,-10.00
-16.00,-16.00,-6.00,-6.00,-21.00,+10.00,-7.00,-5.00,-24.00,-4.00,+3.00,+9.00,+6.00,-1.00,-4.00,-7.00
+3.00,-16.00,-7.00,+4.00,+38.00,-15.00,+3.00,-2.00,+12.00,+17.00,+10.00,-4.00,+2.00,-1.00,-5.00,-3.00
-9.00,-27.00,-5.00,-1.00,-4.00,+0.00,-1.00,-4.00,-14.00,-22.00,-11.00,+7.00,+10.00,+0.00,-4.00,-3.00
-9.00,-32.00,-11.00,-6.00,+6.00,-8.00,-4.00,-8.00,-3.00,-9.00,-4.00,-7.00,-7.00,-5.00,-7.00,-1.00
+25.00,+29.00,-3.00,+3.00,-4.00,+3.00,+4.00,+8.00,+15.00,-2.00,+4.00,+8.00,+4.00,+6.00,+2.00,+15.00
+4.00,-3.00,+9.00,+0.00,+10.00,-9.00,+0.00,+4.00,-26.00,-3.00,+6.00,-5.00,-8.00,-5.00,-6.00,-15.00
+10.00,+18.00,+3.00,+0.00,+2.00,-1.00,+1.00,+2.00,+15.00,+7.00,-5.00,+0.00,-1.00,+6.00,+4.00,+8.00
-20.00,-17.00,+0.00,-2.00,-16.00,+1.00,-1.00,-2.00,+9.00,+10.00,+14.00,+30.00,+19.00,+6.00,+5.00,+8.00
+3.00,+18.00,+12.00,+6.00,+1.00,-8.00,-3.00,-5.00,-12.00,-1.00,-10.00,-15.00,-5.00,-5.00,-6.00,+0.00
-23.00,-34.00,-26.00,-9.00,+7.00,-2.00,-5.00,-20.00,+1.00,-6.00,+3.00,+27.00,+55.00,+13.00,+3.00,+4.00
+51.00,+71.00,+28.00,+4.00,-41.00,-14.00,-4.00,+15.00,+1.00,-1.00,-7.00,-29.00,-51.00,-18.00,-8.00,-13.00
-1.00,+15.00,+4.00,+5.00,+49.00,+23.00,+4.00,+5.00,+12.00,-1.00,-7.00,-7.00,-24.00,-8.00,+2.00,-2.00
-1.00,+7.00,+4.00,-2.00,-17.00,+1.00,-3.00,-3.00,-8.00,-4.00,+2.00,-5.00,-11.00,+1.00,+4.00,+1.00
+11.00,-8.00,-3.00,+2.00,+23.00,-26.00,+2.00,+3.00,-2.00,+0.00,-5.00,-13.00,-6.00,-7.00,+1.00,-8.00
-24.00,-46.00,-18.00,-9.00,+21.00,-7.00,-3.00,-11.00,+17.00,+7.00,+8.00,+24.00,+29.00,+5.00,+4.00,+4.00
-9.00,+3.00,-4.00,-3.00,+2.00,+3.00,-1.00,-4.00,-3.00,+4.00,+0.00,+6.00,+5.00,+4.00,+7.00,+7.00
-5.00,+1.00,+4.00,+3.00,+12.00,+9.00,+1.00,+2.00,+0.00,+4.00,+0.00,-3.00,-4.00,-6.00,+2.00,+5.00
-10.00,+9.00,+0.00,-2.00,-7.00,-2.00,-4.00,+3.00,-22.00,-18.00,-9.00,-6.00,-13.00,+0.00,+3.00,-8.00
-21.00,-32.00,-7.00,-3.00,-19.00,-9.00,+2.00,+1.00,-18.00,+2.00,+9.00,+11.00,+9.00,+2.00,-1.00,-4.00
+23.00,-3.00,+0.00,+2.00,-6.00,-1.00,+2.00,+7.00,+23.00,+2.00,+6.00,-12.00,-12.00,-7.00,-8.00,-6.00
-17.00,-13.00,-1.00,-1.00,+5.00,-10.00,-3.00,-7.00,-21.00,-12.00,-18.00,+1.00,+5.00,-2.00,-10.00,-9.00
+31.00,+63.00,+18.00,+6.00,-8.00,+4.00,+0.00,+9.00,+17.00,+3.00,-6.00,-5.00,-5.00,-1.00,-9.00,-7.00
-18.00,-15.00,-11.00,+2.00,+5.00,+2.00,+1.00,-6.00,+9.00,+2.00,+4.00,+4.00,+2.00,-1.00,-7.00,-1.00
-19.00,-8.00,+6.00,-2.00,-11.00,-3.00,-3.00,-9.00,-6.00,+11.00,+11.00,+0.00,+9.00,+1.00,-5.00,-4.00
-11.00,+9.00,+0.00,-3.00,-6.00,-5.00,+0.00,+11.00,-1.00,-11.00,-8.00,+1.00,+3.00,-1.00,-10.00,-11.00
-11.00,-9.00,-4.00,-2.00,+0.00,-1.00,-1.00,+0.00,-1.00,+7.00,-6.00,-7.00,-12.00,-1.00,-5.00,+2.00
+8.00,-20.00,-9.00,+0.00,+13.00,+12.00,-1.00,-6.00,-3.00,-4.00,+13.00,+27.00,+27.00,+7.00,-1.00,+2.00
-21.00,-3.00,-6.00,-2.00,-11.00,-5.00,-2.00,+2.00,-3.00,-11.00,-13.00,-22.00,-25.00,-15.00,-9.00,-4.00
+17.00,+3.00,-1.00,-3.00,-3.00,-5.00,-1.00,-7.00,+11.00,+5.00,+0.00,-5.00,-15.00,+10.00,+6.00,-6.00
+27.00,+79.00,+23.00,+9.00,+10.00,+7.00,+5.00,+10.00,-6.00,-1.00,-5.00,-23.00,-28.00,-19.00,-5.00,-4.00
-1.00,+19.00,+13.00,+6.00,+0.00,-13.00,+4.00,+11.00,+10.00,+3.00,-2.00,-3.00,+9.00,-2.00,+4.00,+0.00
-2.00,-31.00,-16.00,-11.00,-44.00,+0.00,-3.00,-4.00,-8.00,-7.00,-5.00,+2.00,+7.00,+4.00,+5.00,+0.00
+22.00,-13.00,-8.00,-3.00,+26.00,-18.00,-7.00,-13.00,-5.00,-5.00,+0.00,+7.00,+5.00,+1.00,+6.00,+2.00
-14.00,-35.00,-15.00,-4.00,+18.00,-9.00,+0.00,+2.00,+3.00,-1.00,+3.00,-1.00,-4.00,-1.00,+9.00,+9.00
-9.00,-20.00,-2.00,-2.00,-5.00,+1.00,-3.00,-5.00,+17.00,+16.00,+10.00,+2.00,+3.00,+0.00,+5.00,-8.00
+13.00,+14.00,-1.00,-2.00,-14.00,-3.00,-1.00,-3.00,-9.00,-12.00,-19.00,-1.00,-1.00,-2.00,-2.00,-45.00
-10.00,-9.00,-1.00,+1.00,-5.00,-3.00,-3.00,-3.00,-32.00,-15.00,-1.00,+0.00,+5.00,-1.00,+9.00,+1.00
-10.00,-4.00,-4.00,-4.00,-13.00,-5.00,-1.00,+4.00,-9.00,-4.00,+2.00,+2.00,+3.00,+1.00,+0.00,+7.00
-1.00,-55.00,-18.00,+0.00,+1.00,+1.00,-7.00,-41.00,-1.00,-2.00,-9.00,-2.00,-4.00,-5.00,-4.00,-4.00
-11.00,+29.00,+11.00,-4.00,-4.00,-6.00,+4.00,+42.00,+7.00,+15.00,+9.00,+0.00,+4.00,+1.00,-6.00,+6.00
-13.00,-8.00,-2.00,+2.00,-3.00,+5.00,+3.00,+9.00,+0.00,-6.00,+5.00,+4.00,+0.00,+2.00,+0.00,+28.00
-13.00,-16.00,+3.00,+2.00,+1.00,+0.00,-3.00,-8.00,+3.00,+1.00,-1.00,-1.00,-1.00,+2.00,-10.00,-13.00
-5.00,-14.00,-5.00,-2.00,+1.00,+7.00,-2.00,-6.00,+7.00,-1.00,-5.00,-3.00,-4.00,-1.00,-8.00,+5.00
+21.00,+1.00,+0.00,+2.00,+9.00,+0.00,-3.00,-20.00,-13.00,-6.00,-2.00,+0.00,-2.00,-4.00,-8.00,+2.00
+4.00,-2.00,+2.00,+0.00,-4.00,+3.00,+5.00,+20.00,+1.00,+3.00,-1.00,-2.00,-3.00,-3.00,-11.00,-15.00
-1.00,-12.00,-2.00,-4.00,-5.00,+1.00,+2.00,+16.00,-3.00,-2.00,+3.00,+2.00,+2.00,+2.00,-2.00,+7.00
-4.00,+0.00,-3.00,-2.00,+1.00,+5.00,+4.00,+4.00,+4.00,+8.00,+4.00,-1.00,+1.00,+3.00,+2.00,+5.00
-10.00,-20.00,-8.00,+2.00,-1.00,-8.00,-15.00,-13.00,-3.00,-9.00,-6.00,-5.00,-3.00,-3.00,+5.00,+7.00
+7.00,+24.00,+6.00,-2.00,-2.00,+0.00,-1.00,-5.00,+6.00,+2.00,+4.00,+14.00,+19.00,+3.00,+1.00,-16.00
+10.00,-5.00,-1.00,+0.00,-9.00,-3.00,+0.00,-3.00,+9.00,+1.00,-5.00,-23.00,-26.00,-5.00,+4.00,-1.00
-18.00,-12.00,-9.00,-5.00,+2.00,+6.00,+3.00,+8.00,-7.00,-8.00,-11.00,-12.00,-12.00,-8.00,+1.00,-11.00
-3.00,-11.00,-2.00,-2.00,-1.00,-7.00,-3.00,-11.00,-13.00,+0.00,+2.00,+2.00,+3.00,+4.00,+8.00,+9.00
+13.00,+24.00,+5.00,+1.00,-8.00,+1.00,-1.00,+2.00,+19.00,+9.00,+3.00,-1.00,+0.00,-3.00,+4.00,+12.00
-9.00,-10.00,-10.00,-1.00,+16.00,+4.00,+1.00,+0.00,+13.00,+7.00,-2.00,+5.00,+7.00,+0.00,+0.00,-7.00
+16.00,+15.00,+7.00,-2.00,-3.00,-1.00,+1.00,+8.00,-31.00,-11.00,-4.00,+2.00,+2.00,+2.00,+6.00,-9.00
+8.00,+10.00,+4.00,+3.00,+5.00,+2.00,+3.00,-1.00,-20.00,-17.00,+2.00,+4.00,+0.00,+1.00,+3.00,-3.00
-18.00,-34.00,-12.00,-4.00,-7.00,-5.00,-7.00,-14.00,+12.00,+6.00,+2.00,-1.00,-3.00,-2.00,-1.00,+1.00
-21.00,-38.00,-16.00,-8.00,-16.00,-8.00,-7.00,-26.00,-15.00,-11.00,-4.00,+3.00,+6.00,+0.00,-9.00,-10.00
+38.00,+64.00,+26.00,+6.00,+3.00,+1.00,+2.00,+17.00,+25.00,+23.00,+7.00,-3.00,-4.00,-2.00,-10.00,+18.00
+43.00,+70.00,+23.00,+9.00,+6.00,+6.00,+9.00,+13.00,+16.00,+14.00,-3.00,+1.00,+3.00,+0.00,-13.00,-6.00
-15.00,-26.00,-9.00,-4.00,-1.00,+0.00,-2.00,-4.00,-6.00,-21.00,-12.00,-4.00,-5.00,-1.00,-6.00,+12.00
-15.00,-12.00,-5.00,+0.00,+0.00,+2.00,-3.00,-6.00,+13.00,+9.00,-4.00,-2.00,+0.00,-1.00,-3.00,+2.00
-17.00,-33.00,-11.00,+0.00,+2.00,+2.00,-2.00,-8.00,-31.00,-23.00,+5.00,+2.00,-1.00,-1.00,-6.00,-12.00
-3.00,-19.00,-14.00,-7.00,-2.00,-1.00,+1.00,-6.00,+25.00,+11.00,-9.00,-2.00,+2.00,-1.00,-3.00,+2.00
-18.00,-17.00,+4.00,-2.00,-1.00,+0.00,-2.00,-12.00,+1.00,+4.00,+3.00,-3.00,-6.00,+1.00,-1.00,-1.00
+29.00,+36.00,+16.00,+8.00,+7.00,+6.00,+5.00,+13.00,-15.00,-4.00,-3.00,+0.00,-1.00,+3.00,+0.00,-1.00
-15.00,-13.00,-11.00,-7.00,-4.00,-7.00,-7.00,-9.00,+14.00,+5.00,-1.00,+0.00,+1.00,-2.00,+0.00,+2.00
-27.00,-28.00,-12.00,-4.00,-4.00,-8.00,-8.00,-12.00,-1.00,-5.00,+5.00,+0.00,+1.00,+3.00,+3.00,+7.00
+26.00,+26.00,+6.00,+2.00,+2.00,+7.00,+6.00,+14.00,+6.00,+7.00,-1.00,-1.00,-4.00,-3.00,+1.00,-3.00
+9.00,+13.00,+7.00,+2.00,-2.00,+1.00,-2.00,+2.00,-7.00,-6.00,-1.00,+2.00,+2.00,+1.00,+7.00,+3.00
-3.00,+1.00,+1.00,+0.00,-5.00,+1.00,+4.00,+16.00,-24.00,-16.00,-6.00,+5.00,+14.00,+2.00,+2.00,-10.00
-8.00,-23.00,-9.00,-3.00,+0.00,-1.00,+0.00,+12.00,+18.00,+4.00,+1.00,-9.00,-14.00,+2.00,+6.00,+8.00
-15.00,-18.00,-8.00,-4.00,-2.00,-3.00,-3.00,-18.00,-2.00,+5.00,+0.00,+0.00,+0.00,-3.00,+4.00,+0.00
+8.00,+21.00,+5.00,+2.00,+1.00,+2.00,-1.00,+0.00,+10.00,+9.00,+2.00,-3.00,-6.00,-1.00,+6.00,+7.00
+13.00,-1.00,+10.00,+1.00,-22.00,-16.00,-7.00,-10.00,+12.00,+3.00,-5.00,-8.00,-8.00,-5.00,-2.00,-5.00
+4.00,+34.00,+9.00,+2.00,+26.00,+21.00,+11.00,+28.00,-30.00,-21.00,-4.00,+2.00,+7.00,-4.00,-6.00,-18.00
+1.00,-2.00,+0.00,+1.00,-11.00,-1.00,+0.00,+0.00,+10.00,+16.00,+7.00,+0.00,-1.00,+3.00,+7.00,+14.00
-7.00,-3.00,-6.00,-3.00,+14.00,+1.00,+1.00,+3.00,+4.00,-10.00,-6.00,+1.00,+4.00,-1.00,-1.00,+1.00
-51.00,-81.00,-25.00,-10.00,-8.00,-10.00,-9.00,-17.00,-17.00,-16.00,-8.00,+0.00,-2.00,-3.00,-6.00,-19.00
+24.00,+58.00,+8.00,+1.00,-6.00,-7.00,+2.00,-12.00,-26.00,-7.00,+3.00,+1.00,-1.00,+0.00,+2.00,+7.00
+56.00,+23.00,+13.00,+5.00,+5.00,+7.00,+9.00,+22.00,+12.00,-1.00,-2.00,-2.00,-1.00,-1.00,+4.00,+3.00
-25.00,-11.00,-1.00,-3.00,-7.00,-2.00,-1.00,+2.00,-5.00,+2.00,+2.00,+3.00,+4.00,+2.00,+6.00,+2.00
+13.00,+31.00,+3.00,+1.00,+3.00,+3.00,+1.00,-1.00,+6.00,-1.00,-3.00,-1.00,-3.00,+0.00,+2.00,+0.00
-33.00,-49.00,-21.00,-7.00,-7.00,-4.00,-8.00,-23.00,+12.00,+2.00,+2.00,+0.00,+1.00,-1.00,-4.00,-5.00
+63.00,+84.00,+33.00,+12.00,+16.00,+10.00,+10.00,+21.00,-22.00,+3.00,-4.00,-5.00,-8.00,-7.00,-14.00,-20.00
+3.00,+0.00,+1.00,-1.00,-3.00,-1.00,+0.00,-3.00,-4.00,-11.00,-13.00,-5.00,-2.00,-2.00,-2.00,+18.00
-26.00,-27.00,-9.00,-2.00,+4.00,+3.00,-5.00,-8.00,+8.00,+0.00,+5.00,-3.00,-5.00,+0.00,+0.00,+28.00
-18.00,-34.00,-11.00,-4.00,-7.00,-6.00,+1.00,+4.00,+8.00,+1.00,-15.00,-2.00,+1.00,+0.00,-4.00,-1.00
-8.00,-20.00,-9.00,-3.00,-3.00,-10.00,-5.00,-19.00,-6.00,-25.00,-9.00,-6.00,-3.00,-2.00,-3.00,+11.00
+4.00,-4.00,-1.00,-4.00,-4.00,+1.00,+1.00,+9.00,+6.00,+4.00,+6.00,+4.00,+8.00,-2.00,-3.00,-10.00
+28.00,+32.00,+12.00,+1.00,+0.00,+7.00,-2.00,-10.00,+11.00,+16.00,+4.00,+1.00,-7.00,+11.00,+2.00,+1.00
-21.00,-23.00,+4.00,-1.00,-2.00,-1.00,+2.00,+20.00,+6.00,+15.00,+3.00,-3.00,-5.00,-15.00,-6.00,+5.00
+17.00,+43.00,+5.00,+0.00,+2.00,+0.00,+5.00,+21.00,-24.00,-16.00,-3.00,-4.00,-3.00,-4.00,-5.00,-22.00
+1.00,-6.00,+1.00,+1.00,+1.00,+1.00,-1.00,-3.00,+1.00,+10.00,-4.00,-3.00,-2.00,-4.00,-8.00,-1.00
-12.00,-26.00,-12.00,-4.00,+4.00,+1.00,-4.00,+1.00,-40.00,-55.00,+4.00,+8.00,+10.00,+7.00,+12.00,+16.00
-1.00,-20.00,-9.00,-2.00,-5.00,-2.00,-4.00,-26.00,+35.00,+34.00,+12.00,+7.00,+5.00,+7.00,+7.00,+14.00
-6.00,+5.00,-2.00,-2.00,+0.00,-4.00,-5.00,-6.00,-12.00,-8.00,-6.00,-3.00,-6.00,-3.00,-4.00,-13.00
-18.00,-47.00,-21.00,-10.00,-7.00,-5.00,-7.00,-15.00,-1.00,+12.00,+4.00,+0.00,-3.00,-6.00,-7.00,-15.00
+69.00,+127.00,+53.00,+19.00,+12.00,+8.00,+13.00,+30.00,+2.00,+13.00,-4.00,-3.00,-5.00,-4.00,+2.00,+38.00
-21.00,-54.00,-13.00,-4.00,-3.00,-4.00,-4.00,-9.00,-14.00,-23.00,-6.00,-4.00,-2.00,+0.00,+1.00,-5.00
-36.00,-46.00,-18.00,-7.00,-2.00,-3.00,-6.00,-3.00,+4.00,+3.00,+1.00,+5.00,+10.00,+3.00,+2.00,+1.00
-19.00,-22.00,-18.00,-6.00,-3.00,-4.00,-9.00,-64.00,-9.00,-10.00,-3.00,-5.00,-10.00,-2.00,-4.00,-3.00
-56.00,-33.00,-14.00,-12.00,-15.00,-10.00,+4.00,+52.00,+8.00,+8.00,-7.00,-5.00,-6.00,-6.00,-11.00,-21.00
+28.00,+41.00,+23.00,+7.00,-1.00,+0.00,+2.00,+14.00,-20.00,-12.00,+2.00,+7.00,+13.00,+0.00,-2.00,-4.00
-29.00,-36.00,-18.00,-5.00,+4.00,+8.00,-12.00,-24.00,-6.00,-4.00,-2.00,+1.00,-12.00,+0.00,-1.00,+3.00
+0.00,+8.00,+1.00,+0.00,+0.00,+1.00,+1.00,-7.00,+8.00,-14.00,+0.00,-1.00,+14.00,+10.00,+1.00,-3.00
-4.00,-40.00,-12.00,-2.00,+2.00,+1.00,+8.00,+2.00,+10.00,+16.00,-2.00,-8.00,-9.00,-13.00,-7.00,-11.00
+44.00,+42.00,+22.00,+8.00,-4.00,+6.00,+9.00,+6.00,-8.00,+1.00,-4.00,-7.00,-4.00,-3.00,-7.00,-8.00
-24.00,-9.00,-6.00,-3.00,+2.00,+4.00,-5.00,-3.00,+12.00,+14.00,+3.00,+2.00,+4.00,-1.00,-3.00,-34.00
+1.00,-1.00,+2.00,+0.00,-1.00,-11.00,-10.00,-3.00,-1.00,-12.00,+3.00,+6.00,+1.00,+4.00,+7.00,+17.00
-18.00,-20.00,-9.00,-1.00,+16.00,+10.00,+0.00,-4.00,+10.00,-2.00,-4.00,-1.00,+3.00,+2.00,+0.00,+7.00
-16.00,-14.00,-13.00,-5.00,-7.00,-4.00,-6.00,-24.00,-4.00,-8.00,-3.00,+0.00,-1.00,+4.00,+3.00,+4.00
+24.00,-55.00,-8.00,-2.00,-5.00,-2.00,+0.00,+9.00,+13.00,+2.00,-3.00,-4.00,-1.00,-1.00,-2.00,+28.00
+35.00,+117.00,+47.00,+17.00,+8.00,+3.00,+6.00,+20.00,+18.00,+4.00,+3.00,+3.00,-1.00,-1.00,-3.00,-7.00
+34.00,+2.00,-8.00,-5.00,-9.00,-3.00,+0.00,-9.00,-5.00,+10.00,+0.00,+1.00,+2.00,+1.00,-3.00,-12.00
-21.00,-11.00,-1.00,-2.00,+3.00,-1.00,-2.00,+0.00,+3.00,+1.00,+0.00,+0.00,-4.00,-2.00,-4.00,-2.00
-54.00,-32.00,-17.00,-9.00,-12.00,-14.00,-11.00,-18.00,-6.00,-1.00,-3.00,-3.00,+0.00,+0.00,-6.00,-2.00
+27.00,+11.00,+9.00,+2.00,+5.00,+4.00,+5.00,+2.00,+0.00,+2.00,-2.00,-4.00,-7.00,-2.00,+3.00,-1.00
+7.00,+0.00,+3.00,-1.00,-1.00,-3.00,-2.00,+0.00,-6.00,-4.00,-6.00,-6.00,-3.00,-2.00,-7.00,-5.00
-4.00,-4.00,-2.00,-1.00,+1.00,+0.00,-5.00,-4.00,-2.00,-5.00,+0.00,-5.00,-4.00,-3.00,-18.00,-6.00
-20.00,-1.00,-1.00,-3.00,-6.00,-4.00,-6.00,+4.00,+5.00,+10.00,+3.00,+0.00,-1.00,-19.00,-10.00,-9.00
-21.00,-35.00,-15.00,-7.00,-4.00,-9.00,-14.00,-2.00,-18.00,-13.00,+0.00,+3.00,+3.00,+1.00,+1.00,-15.00
-9.00,+19.00,+2.00,+0.00,-2.00,-4.00,-15.00,-47.00,+13.00,+6.00,-2.00,+3.00,+9.00,+13.00,+10.00,-5.00
+15.00,-20.00,-8.00,-2.00,-2.00,+1.00,+37.00,+76.00,-12.00,-9.00,+1.00,+1.00,-5.00,-5.00,+0.00,-3.00
+30.00,+19.00,+8.00,+5.00,+11.00,+13.00,+25.00,+26.00,+1.00,-6.00,-4.00,-2.00,+0.00,+2.00,+2.00,-1.00
+11.00,+23.00,-1.00,-1.00,-3.00,+4.00,+14.00,+57.00,+5.00,+11.00,-1.00,-9.00,-6.00,-13.00,-6.00,-10.00
+6.00,-31.00,-5.00,-2.00,-13.00,-10.00,-14.00,-37.00,-4.00,-2.00,+0.00,-6.00,-11.00,-4.00,+2.00,-12.00
+37.00,+72.00,+28.00,+9.00,+10.00,+8.00,-11.00,-38.00,+16.00,+10.00,+0.00,-1.00,+1.00,+5.00,+8.00,+3.00
+0.00,-15.00,-7.00,-1.00,+1.00,-1.00,-2.00,-13.00,+1.00,+8.00,-1.00,-1.00,-3.00,-8.00,+0.00,+17.00
-38.00,-23.00,-8.00,-3.00,+2.00,+3.00,-4.00,-6.00,-23.00,-36.00,+0.00,+7.00,+5.00,+5.00,+4.00,-10.00
-12.00,+0.00,-6.00,-4.00,+0.00,+2.00,-7.00,-13.00,+6.00,-1.00,-3.00,+0.00,+1.00,-2.00,-3.00,-7.00
-17.00,-28.00,-13.00,-7.00,-9.00,-12.00,-10.00,-18.00,-18.00,+5.00,+3.00,+3.00,+4.00,+0.00,+1.00,-1.00
-49.00,-17.00,-17.00,-8.00,-11.00,-9.00,-8.00,-23.00,-1.00,-5.00,+2.00,+0.00,+0.00,+4.00,+5.00,+24.00
+74.00,+51.00,+40.00,+15.00,+7.00,+10.00,+13.00,+15.00,+5.00,+11.00,-3.00,-1.00,-4.00,+1.00,+0.00,+8.00
-23.00,-13.00,-8.00,-3.00,-2.00,-4.00,+0.00,+24.00,+0.00,+3.00,+0.00,+1.00,+1.00,-1.00,-8.00,-5.00
+4.00,+2.00,+5.00,+4.00,+2.00,+3.00,+1.00,+35.00,-4.00,-14.00,-5.00,-4.00,-4.00,-4.00,-1.00,-8.00
+9.00,-24.00,-12.00,-6.00,-3.00,-5.00,-6.00,-6.00,+10.00,+14.00,+0.00,-3.00,-4.00,+2.00,+0.00,+2.00
-16.00,-24.00,-9.00,-3.00,-4.00,-3.00,-8.00,-16.00,-17.00,-20.00,-4.00,-1.00,-1.00,+5.00,+2.00,+7.00
+11.00,+11.00,+6.00,+3.00,+3.00,+0.00,+6.00,+10.00,-7.00,-6.00,+2.00,+3.00,+0.00,-5.00,-5.00,+0.00
-3.00,-29.00,-15.00,-7.00,-3.00,+1.00,+0.00,-5.00,+1.00,-3.00,+2.00,+0.00,-3.00,-8.00,-5.00,-8.00
+3.00,+9.00,+6.00,+1.00,-4.00,-3.00,-6.00,-17.00,-5.00,+5.00,-1.00,-3.00,+0.00,+4.00,-10.00,-13.00
-2.00,-1.00,-2.00,-1.00,-1.00,+0.00,-4.00,-5.00,+10.00,+12.00,+0.00,-1.00,+3.00,+10.00,+12.00,+8.00
+19.00,+13.00,+5.00,+3.00,+2.00,+5.00,+15.00,-1.00,+3.00,+0.00,-1.00,-1.00,+0.00,+2.00,+9.00,+1.00
-11.00,-9.00,-5.00,+0.00,+4.00,+3.00,-1.00,+18.00,+5.00,-1.00,+0.00,-1.00,-1.00,+1.00,+8.00,+27.00
-5.00,-8.00,-1.00,+1.00,+1.00,-4.00,+1.00,-10.00,-7.00,-10.00,+3.00,+1.00,-2.00,-8.00,+0.00,-18.00
-38.00,-21.00,-8.00,-5.00,-2.00,+3.00,+6.00,+35.00,-4.00,+6.00,+2.00,-1.00,-5.00,-8.00,-11.00,-4.00
-7.00,+10.00,+1.00,+0.00,+2.00,+1.00,-8.00,-11.00,+6.00,-12.00,-5.00,-3.00,-4.00,-4.00,-2.00,+2.00
-7.00,-14.00,-6.00,-2.00,-2.00,-5.00,-10.00,-15.00,+19.00,+27.00,-3.00,-1.00,+0.00,-3.00,-7.00,+2.00
-2.00,+17.00,+5.00,+0.00,-3.00,-2.00,+0.00,+15.00,-24.00,-14.00,-3.00,+1.00,+2.00,-13.00,-9.00,+3.00
-1.00,-21.00,-12.00,-5.00,-4.00,-5.00,-7.00,-29.00,-1.00,-10.00,+1.00,+1.00,+6.00,+26.00,+3.00,+17.00
-18.00,-12.00,+6.00,+1.00,+1.00,+1.00,+1.00,-1.00,+6.00,+7.00,-2.00,-1.00,+1.00,+7.00,+0.00,-8.00
+5.00,+12.00,-2.00,+1.00,+3.00,-8.00,-2.00,+3.00,+2.00,-7.00,-2.00,-3.00,+0.00,+7.00,-3.00,-2.00
+7.00,+13.00,+17.00,+5.00,+2.00,+2.00,+1.00,+3.00,+11.00,+2.00,+4.00,+2.00,+0.00,+2.00,+7.00,-5.00
+37.00,+52.00,+13.00,+5.00,-2.00,-1.00,+3.00,+6.00,+2.00,+20.00,-7.00,-2.00,-9.00,-24.00,-9.00,-9.00
+3.00,-11.00,-5.00,-5.00,-3.00,+0.00,+4.00,+4.00,-4.00,-4.00,+4.00,-3.00,+0.00,-6.00,-1.00,+11.00
-9.00,-12.00,-8.00,-5.00,-4.00,+1.00,-6.00,-21.00,-8.00,-6.00,-3.00,-2.00,+0.00,-3.00,-2.00,+10.00
-15.00,-16.00,-5.00,-3.00,+1.00,-2.00,-7.00,-25.00,-6.00,+0.00,-2.00,-5.00,-1.00,+5.00,+3.00,-2.00
+11.00,-24.00,-9.00,-3.00,+2.00,+1.00,+3.00,+2.00,+2.00,-1.00,+2.00,-2.00,-3.00,-3.00,+0.00,+6.00
-23.00,+6.00,+3.00,+1.00,+1.00,+2.00,+9.00,+30.00,-4.00,-2.00,-2.00,-1.00,-2.00,-6.00,-7.00,-10.00
-75.00,-5.00,+2.00,-4.00,-7.00,-5.00,-12.00,-1.00,-4.00,-4.00,+1.00,+2.00,+0.00,-4.00,+2.00,-8.00
-20.00,+0.00,-7.00,-3.00,-3.00,-2.00,-1.00,+28.00,-7.00,-10.00,+1.00,+0.00,+1.00,+4.00,+5.00,-1.00
-11.00,-14.00,-6.00,-3.00,-1.00,-1.00,+3.00,+2.00,+2.00,+23.00,+21.00,+4.00,-1.00,-6.00,-8.00,-7.00
+13.00,+13.00,+6.00,+3.00,+2.00,+1.00,-1.00,+4.00,-5.00,-22.00,-22.00,-6.00,-4.00,-3.00,-7.00,+5.00
+20.00,+0.00,-1.00,+0.00,+1.00,+1.00,+2.00,+9.00,+2.00,-7.00,-11.00,-2.00,+1.00,+7.00,+28.00,+9.00
+12.00,-2.00,-8.00,+1.00,+1.00,-2.00,-5.00,-1.00,+4.00,-6.00,-10.00,-5.00,+0.00,+3.00,-5.00,+14.00
-23.00,-16.00,-10.00,-7.00,-2.00,-4.00,-6.00,-28.00,-23.00,-4.00,+1.00,+4.00,+1.00,+2.00,+3.00,-12.00
+10.00,+10.00,+15.00,+4.00,+3.00,-1.00,+0.00,-9.00,+3.00,+6.00,+13.00,+3.00,+1.00,-3.00,-4.00,-1.00
-2.00,+12.00,+3.00,+1.00,+1.00,+3.00,+7.00,-24.00,-3.00,+1.00,+5.00,-1.00,-2.00,+0.00,-5.00,-14.00
+16.00,+8.00,+5.00,+0.00,-3.00,+0.00,+15.00,+69.00,+6.00,+1.00,-8.00,-2.00,-3.00,-2.00,-3.00,-7.00
+13.00,-3.00,-2.00,+3.00,+2.00,+7.00,+5.00,+9.00,-3.00,-9.00,-3.00,-3.00,-3.00,-6.00,-11.00,-1.00
-3.00,-5.00,-12.00,-5.00,-6.00,-4.00,-12.00,-19.00,-4.00,+4.00,-2.00,-2.00,+0.00,+0.00,+1.00,-3.00
+3.00,-10.00,-1.00,+0.00,+0.00,-4.00,-8.00,-22.00,-10.00,-11.00,-6.00,-5.00,-3.00,-4.00,-9.00,-3.00
-8.00,-10.00,-4.00,-4.00,-3.00,-5.00,-8.00,-30.00,+4.00,-4.00,+0.00,-1.00,+0.00,+0.00,+2.00,+1.00
+5.00,+7.00,+0.00,-1.00,-1.00,-2.00,-2.00,-12.00,+11.00,+3.00,-7.00,-5.00,-4.00,-5.00,-3.00,+8.00
-20.00,+0.00,-2.00,-2.00,+0.00,-1.00,+6.00,+42.00,-13.00,-3.00,+2.00,+1.00,-1.00,+3.00,+7.00,-17.00
+19.00,+19.00,+5.00,+2.00,+3.00,+0.00,+1.00,+0.00,-7.00,+0.00,-1.00,-3.00,-3.00,-2.00,+0.00,+0.00
-8.00,-10.00,-1.00,+0.00,-2.00,+2.00,+0.00,-15.00,-7.00,-4.00,-3.00,-2.00,-3.00,-3.00,+5.00,-6.00
+24.00,+8.00,-1.00,+1.00,+2.00,-1.00,-6.00,-21.00,+5.00,+4.00,-2.00,-1.00,+0.00,-1.00,-1.00,+9.00
+6.00,+7.00,+2.00,+2.00,-3.00,+1.00,+8.00,+26.00,+6.00,+0.00,-4.00,-1.00,+0.00,-2.00,-2.00,+8.00
+19.00,-5.00,-3.00,-3.00,-1.00,-3.00,-4.00,-36.00,-3.00,+2.00,+1.00,+2.00,+2.00,+2.00,+0.00,-16.00
-1.00,+9.00,+0.00,-1.00,+0.00,-3.00,-6.00,-16.00,-6.00,-5.00,-4.00,-3.00,-3.00,+0.00,+0.00,-1.00
-7.00,-25.00,-7.00,-2.00,-3.00,-1.00,-2.00,-35.00,-8.00,-13.00,-6.00,-5.00,-3.00,-2.00,+3.00,-3.00
+12.00,+0.00,-5.00,+2.00,+4.00,+5.00,+18.00,+81.00,-1.00,+3.00,+3.00,-3.00,-1.00,-3.00,+2.00,+1.00
+7.00,+1.00,+5.00,+2.00,+1.00,+4.00,+6.00,+20.00,+4.00,+4.00,-1.00,-2.00,-1.00,-1.00,-5.00,-6.00
+17.00,+14.00,+5.00,+0.00,+1.00,+2.00,+5.00,+6.00,-5.00,-10.00,-5.00,-1.00,-2.00,-1.00,+6.00,-2.00
-22.00,-9.00,-6.00,-2.00,-3.00,-4.00,-8.00,-4.00,+6.00,-2.00,+0.00,+0.00,+0.00,-2.00,-3.00,-3.00
+1.00,-9.00,-5.00,-3.00,-3.00,-6.00,-16.00,-62.00,+12.00,+18.00,-1.00,+0.00,+1.00,-1.00,-10.00,-5.00
