+0.00,+9.00,+2.00,-1.00,+0.00,-1.00,-2.00,-4.00,+0.00,-3.00,-2.00,-2.00,-3.00,-3.00,+0.00,+0.00
+13.00,+2.00,+0.00,+0.00,+0.00,+2.00,-1.00,-27.00,-8.00,-5.00,-1.00,+1.00,+0.00,+0.00,+3.00,+1.00
-10.00,-8.00,-5.00,-1.00,-1.00,-1.00,-2.00,-7.00,-7.00,-2.00,-2.00,+1.00,-1.00,-2.00,-4.00,-25.00
+6.00,+0.00,-1.00,-2.00,+0.00,+0.00,+3.00,+6.00,-4.00,-2.00,-2.00,-3.00,-1.00,-2.00,-2.00,-3.00
+0.00,+3.00,+0.00,-2.00,-3.00,+0.00,+0.00,+8.00,-2.00,+1.00,+0.00,-2.00,+1.00,+0.00,-1.00,-3.00
-3.00,-5.00,-4.00,-1.00,+0.00,-1.00,+1.00,+17.00,-5.00,-2.00,-2.00,-3.00,-2.00,-1.00,-3.00,+12.00
-1.00,+2.00,-2.00,-3.00,-2.00,-3.00,-2.00,-13.00,+2.00,-1.00,-2.00,-2.00,-2.00,-1.00,+0.00,+4.00
+8.00,+5.00,+3.00,+0.00,-3.00,-5.00,-12.00,-41.00,-9.00,-5.00,-1.00,+1.00,+0.00,-3.00,-3.00,-10.00
-38.00,-12.00,-6.00,-3.00,-5.00,-6.00,-11.00,-37.00,-4.00,-2.00,-4.00,-4.00,-3.00,-5.00,-6.00,-6.00
-5.00,-7.00,+2.00,+1.00,+1.00,+3.00,+8.00,+38.00,+4.00,+1.00,+0.00,-2.00,-3.00,-3.00,+4.00,+12.00
-4.00,-11.00,-8.00,-4.00,-2.00,+1.00,+8.00,+63.00,-10.00,-11.00,+0.00,+1.00,+1.00,+1.00,+3.00,-8.00
+11.00,+14.00,+5.00,+1.00,+2.00,-3.00,-17.00,-5.00,-8.00,+1.00,-4.00,-3.00,-2.00,+0.00,-5.00,-26.00
-20.00,-10.00,-3.00,-4.00,-10.00,-12.00,-31.00,-11.00,-4.00,-1.00,+1.00,-1.00,-2.00,-6.00,-17.00,-19.00
-19.00,-5.00,-4.00,-2.00,-1.00,-1.00,+20.00,-9.00,-8.00,-4.00,-5.00,-5.00,-7.00,-10.00,-30.00,+4.00
+10.00,+2.00,+4.00,+4.00,+5.00,+15.00,+39.00,-70.00,+23.00,+8.00,+2.00,+0.00,+2.00,+5.00,-29.00,-21.00
+13.00,+15.00,+4.00,+5.00,+6.00,+10.00,+31.00,+101.00,+17.00,+6.00,+6.00,+6.00,+9.00,+24.00,+108.00,+83.00
+39.00,+30.00,+6.00,+2.00,+6.00,+7.00,+8.00,+48.00,-18.00,-16.00,+0.00,+1.00,+1.00,+2.00,+6.00,-3.00
-33.00,-13.00,-5.00,-3.00,-4.00,-8.00,-23.00,-52.00,+12.00,+0.00,+1.00,+0.00,+0.00,-6.00,-13.00,-17.00
-49.00,+0.00,-3.00,-4.00,-8.00,-13.00,-24.00,+5.00,+1.00,+5.00,-3.00,-2.00,-5.00,-15.00,-18.00,-2.00
-18.00,-20.00,-10.00,-5.00,-4.00,-7.00,-17.00,-31.00,+3.00,+3.00,-3.00,-3.00,-3.00,+0.00,-28.00,-17.00
+4.00,-4.00,+1.00,+0.00,-2.00,+1.00,-6.00,-48.00,+15.00,+7.00,-2.00,-2.00,-4.00,-11.00,-4.00,+6.00
+11.00,+15.00,+7.00,+1.00,-5.00,-5.00,+14.00,+19.00,-10.00,-6.00,-2.00,+1.00,+3.00,+5.00,+14.00,-3.00
+1.00,-5.00,+0.00,+1.00,+5.00,+4.00,-1.00,+14.00,-6.00,-6.00,-2.00,+0.00,+1.00,+19.00,+0.00,+0.00
+1.00,-5.00,-2.00,-1.00,+3.00,+2.00,+0.00,-46.00,+3.00,+1.00,+0.00,-4.00,-2.00,-2.00,-15.00,-5.00
-8.00,-10.00,-2.00,-2.00,-13.00,-8.00,+5.00,+21.00,-8.00,-4.00,-2.00,+2.00,+2.00,+0.00,+7.00,+8.00
+8.00,-6.00,-5.00,+0.00,+11.00,+3.00,-2.00,+6.00,+4.00,+2.00,+1.00,+6.00,+13.00,+1.00,+2.00,-9.00
-4.00,-2.00,-3.00,-2.00,+1.00,+0.00,-12.00,+8.00,-8.00,-6.00,-1.00,-13.00,-16.00,-23.00,+11.00,+8.00
+8.00,+1.00,+4.00,+0.00,-1.00,-3.00,+2.00,+4.00,-5.00,-3.00,-6.00,-6.00,-7.00,+2.00,-25.00,-21.00
+4.00,-1.00,-9.00,-3.00,+3.00,+2.00,+17.00,-2.00,-4.00,+1.00,+1.00,-3.00,-4.00,-2.00,+6.00,+11.00
+15.00,+12.00,+8.00,+3.00,+0.00,-1.00,-2.00,+9.00,+11.00,+0.00,-3.00,-2.00,+1.00,-4.00,-4.00,-1.00
-11.00,+6.00,+1.00,+1.00,-3.00,-10.00,-21.00,+3.00,+0.00,+5.00,+2.00,+2.00,-2.00,+8.00,+15.00,+9.00
-23.00,-18.00,-13.00,-5.00,-2.00,+2.00,-3.00,-47.00,-10.00,-6.00,-3.00,-1.00,+0.00,-13.00,-9.00,+2.00
+42.00,+51.00,+17.00,+7.00,+1.00,-2.00,+8.00,+15.00,+12.00,+1.00,-4.00,-3.00,-1.00,-9.00,-2.00,-5.00
+13.00,+0.00,-3.00,-2.00,-5.00,+6.00,+8.00,-17.00,-7.00,-5.00,+3.00,+2.00,-4.00,-16.00,+4.00,+0.00
+5.00,+8.00,+1.00,-2.00,-5.00,-9.00,-14.00,-6.00,+2.00,-1.00,-1.00,+5.00,+10.00,+28.00,+8.00,-1.00
-15.00,-9.00,-6.00,-1.00,-2.00,+0.00,-15.00,-34.00,+0.00,-1.00,+2.00,-3.00,-5.00,+12.00,-1.00,+0.00
-25.00,-35.00,-5.00,+0.00,+4.00,+5.00,+20.00,+22.00,+0.00,+11.00,+3.00,+4.00,+3.00,+6.00,-5.00,-24.00
+7.00,-4.00,-2.00,-1.00,+4.00,+6.00,+6.00,+14.00,+16.00,+16.00,-1.00,-4.00,-4.00,-1.00,+0.00,+4.00
+32.00,+40.00,+11.00,+2.00,-7.00,-5.00,-5.00,-11.00,-15.00,-14.00,-3.00,+2.00,+0.00,-10.00,+16.00,+10.00
+4.00,+2.00,+0.00,-3.00,+4.00,+4.00,+13.00,+44.00,-1.00,-2.00,+2.00,+7.00,+6.00,-4.00,-7.00,-7.00
-20.00,-25.00,-6.00,-4.00,-5.00,-22.00,-49.00,-29.00,-8.00,-13.00,-6.00,-17.00,-18.00,-54.00,-4.00,+7.00
+15.00,+25.00,+3.00,+1.00,+7.00,+20.00,+41.00,+32.00,-5.00,-3.00,+1.00,-2.00,+5.00,+82.00,+5.00,-5.00
+17.00,-10.00,+0.00,+3.00,+5.00,+4.00,+33.00,+27.00,-12.00,+4.00,-2.00,-4.00,-8.00,-21.00,-16.00,-6.00
-7.00,+10.00,-2.00,+0.00,-7.00,+3.00,-3.00,+17.00,+8.00,-5.00,-1.00,+4.00,+12.00,+24.00,+5.00,+0.00
-2.00,-7.00,-2.00,-2.00,-2.00,+11.00,-2.00,-5.00,-7.00,+2.00,+1.00,+4.00,+8.00,+2.00,-5.00,+2.00
-24.00,-22.00,-9.00,-4.00,-6.00,-14.00,-27.00,-28.00,+5.00,-1.00,-2.00,-4.00,-18.00,-46.00,+0.00,-3.00
-14.00,-23.00,-7.00,-8.00,-4.00,-9.00,-15.00,-37.00,+10.00,+3.00,+3.00,-2.00,+4.00,+13.00,+1.00,+2.00
-3.00,-16.00,+0.00,-1.00,-2.00,+0.00,+14.00,+38.00,-10.00,-6.00,-13.00,-6.00,-6.00,-10.00,-4.00,+1.00
+18.00,+27.00,+10.00,+3.00,+3.00,-3.00,+7.00,+11.00,-1.00,+1.00,-4.00,-4.00,-2.00,+5.00,-4.00,+1.00
+11.00,-5.00,-3.00,+0.00,-5.00,-7.00,-26.00,-23.00,-21.00,-16.00,-5.00,+2.00,+3.00,+11.00,+1.00,-4.00
-27.00,+10.00,-2.00,-1.00,+0.00,+3.00,+1.00,-2.00,+7.00,+5.00,+3.00,+2.00,+2.00,+3.00,+2.00,+4.00
-3.00,-26.00,-4.00,-1.00,-3.00,-6.00,-10.00,+6.00,+1.00,+0.00,-1.00,-6.00,-8.00,-21.00,-11.00,+3.00
-15.00,-6.00,-9.00,-3.00,-2.00,-1.00,-20.00,-61.00,-7.00,-1.00,+2.00,-1.00,+1.00,+9.00,+14.00,+1.00
-7.00,-3.00,-9.00,-4.00,-5.00,-6.00,+1.00,+53.00,+9.00,+13.00,+1.00,+1.00,+4.00,-3.00,+11.00,+7.00
+45.00,+29.00,+16.00,+7.00,+10.00,+7.00,+52.00,+80.00,-12.00,-10.00,-5.00,+0.00,+3.00,-14.00,-29.00,-16.00
-4.00,-14.00,-4.00,+0.00,-2.00,-8.00,-22.00,-44.00,+14.00,-8.00,+4.00,-1.00,-13.00,-3.00,+0.00,+2.00
-15.00,-1.00,+2.00,+2.00,+1.00,+17.00,+51.00,+28.00,-19.00,-7.00,-5.00,+2.00,+6.00,+27.00,-10.00,-10.00
-5.00,-13.00,-3.00,+1.00,+0.00,+3.00,-31.00,-60.00,+2.00,-3.00,+2.00,+1.00,-2.00,-22.00,+5.00,-8.00
-8.00,-19.00,-10.00,-8.00,-15.00,-2.00,-25.00,-28.00,+3.00,+14.00,+5.00,+1.00,+2.00,-16.00,-1.00,+6.00
+5.00,+31.00,+9.00,+1.00,-1.00,-11.00,-13.00,-7.00,-7.00,-5.00,-8.00,-1.00,+1.00,-27.00,+14.00,+0.00
+1.00,-33.00,-12.00,-6.00,+3.00,+15.00,+38.00,+81.00,+5.00,+1.00,-1.00,-1.00,-5.00,+38.00,-17.00,-26.00
+25.00,+47.00,+20.00,+7.00,+13.00,+7.00,-13.00,+11.00,-1.00,+0.00,-2.00,+1.00,+2.00,-47.00,-3.00,+4.00
-5.00,-13.00,-3.00,+2.00,+16.00,+14.00,+0.00,-2.00,-8.00,-12.00,+0.00,-13.00,-17.00,+33.00,+1.00,-3.00
-16.00,+1.00,-4.00,-3.00,-3.00,+0.00,-8.00,-32.00,-13.00,-3.00,+1.00,-7.00,+3.00,+26.00,-1.00,-1.00
+1.00,-7.00,-5.00,+0.00,-9.00,-22.00,-25.00,-45.00,-1.00,-8.00,-4.00,-3.00,+0.00,+4.00,+12.00,+4.00
-30.00,-45.00,-17.00,-10.00,-11.00,+3.00,+5.00,-1.00,+8.00,+9.00,+3.00,+0.00,+8.00,+15.00,-2.00,-3.00
+48.00,+26.00,+6.00,+1.00,+0.00,+6.00,+16.00,+31.00,+2.00,+1.00,-9.00,+0.00,-10.00,-40.00,-16.00,-4.00
+32.00,+30.00,+8.00,+3.00,+2.00,+6.00,+16.00,-5.00,-13.00,-4.00,+3.00,+3.00,+5.00,+30.00,+2.00,+4.00
-28.00,+3.00,+2.00,+2.00,+2.00,+7.00,-16.00,+27.00,+3.00,-4.00,-1.00,-3.00,-2.00,-8.00,+5.00,+7.00
-12.00,+4.00,-5.00,-4.00,-9.00,-13.00,-26.00,-45.00,+3.00,+2.00,+3.00,+2.00,+5.00,+8.00,+12.00,-3.00
-28.00,-46.00,-8.00,-6.00,-7.00,-11.00,-26.00,-36.00,+3.00,+2.00,+4.00,+3.00,+10.00,+7.00,+19.00,+7.00
-17.00,-23.00,-11.00,-5.00,-2.00,-3.00,+30.00,+37.00,+3.00,+6.00,-13.00,-7.00,-12.00,-22.00,-29.00,-18.00
+42.00,+48.00,+31.00,+14.00,+11.00,+4.00,+8.00,+28.00,-5.00,-6.00,-2.00,-1.00,+2.00,-9.00,-3.00,+6.00
+6.00,-5.00,-1.00,+1.00,-4.00,+10.00,+67.00,+68.00,-4.00,-10.00,-5.00,-2.00,-5.00,-6.00,-13.00,+2.00
-2.00,+15.00,-1.00,-3.00,-14.00,-17.00,-37.00,-36.00,+18.00,+11.00,+8.00,+18.00,+18.00,+7.00,+16.00,+3.00
-15.00,-47.00,-13.00,+0.00,+13.00,+6.00,-2.00,-5.00,-5.00,-5.00,-4.00,-10.00,-5.00,-16.00,-2.00,-5.00
+12.00,+32.00,+4.00,-2.00,+5.00,-7.00,-30.00,-11.00,+13.00,+19.00,+1.00,-4.00,-7.00,+3.00,+4.00,-2.00
-18.00,-12.00,-6.00,-4.00,+0.00,-3.00,-35.00,-69.00,+11.00,-5.00,-5.00,-5.00,-8.00,-31.00,-15.00,+12.00
-1.00,-6.00,-5.00,-1.00,-3.00,-22.00,-14.00,-29.00,-2.00,+11.00,-1.00,-11.00,-18.00,-4.00,+22.00,+2.00
+23.00,+16.00,+6.00,+0.00,-8.00,+8.00,+56.00,+58.00,-10.00,-6.00,+13.00,+9.00,+18.00,+16.00,-17.00,-14.00
-11.00,-31.00,-10.00,-2.00,+9.00,+12.00,+22.00,+59.00,+15.00,+0.00,-7.00,+3.00,+7.00,-10.00,-18.00,+9.00
+2.00,+26.00,+7.00,+1.00,-2.00,-2.00,+15.00,+26.00,-5.00,-8.00,-5.00,-4.00,-3.00,+10.00,+8.00,+12.00
+11.00,+24.00,+11.00,-4.00,-49.00,-28.00,-25.00,+24.00,-8.00,-4.00,-2.00,+8.00,+21.00,-16.00,-15.00,-4.00
+6.00,+14.00,+0.00,+1.00,+47.00,+29.00,-31.00,-93.00,+19.00,+9.00,+8.00,+20.00,+1.00,+1.00,+16.00,+6.00
-10.00,+14.00,-5.00,-6.00,-4.00,-9.00,+4.00,+15.00,-16.00,-3.00,-5.00,-32.00,-37.00,-18.00,-17.00,-8.00
+22.00,+20.00,+15.00,+7.00,+9.00,+7.00,+39.00,+47.00,+5.00,+5.00,+2.00,+0.00,-2.00,+21.00,-1.00,-13.00
-8.00,-16.00,-5.00,+1.00,+9.00,+18.00,+11.00,+13.00,-15.00,-10.00,+5.00,-2.00,-2.00,+10.00,+2.00,+27.00
-7.00,-10.00,+1.00,+0.00,-19.00,-19.00,-19.00,-36.00,-5.00,-9.00,-9.00,-1.00,+4.00,-3.00,+6.00,-1.00
-30.00,-59.00,-18.00,-10.00,-21.00,-9.00,-30.00,-93.00,+12.00,+17.00,+6.00,+14.00,+11.00,+11.00,+14.00,+5.00
-7.00,-2.00,+0.00,+0.00,+10.00,-4.00,+4.00,+9.00,+0.00,+9.00,-4.00,-4.00,+2.00,+5.00,+3.00,+8.00
+6.00,+28.00,+2.00,+1.00,+5.00,+0.00,+9.00,+23.00,-1.00,-9.00,-2.00,-3.00,-5.00,+1.00,+5.00,-5.00
+16.00,+30.00,+10.00,+8.00,+2.00,+10.00,+38.00,+84.00,-14.00,-14.00,-1.00,-3.00,-4.00,-16.00,-24.00,-7.00
-16.00,-31.00,-14.00,-6.00,-2.00,-9.00,-39.00,-71.00,+4.00,-6.00,+3.00,+4.00,-3.00,-13.00,-3.00,+17.00
-45.00,-34.00,-12.00,-8.00,-20.00,-24.00,-31.00,-20.00,+1.00,+0.00,-1.00,-5.00,+6.00,-22.00,-18.00,-5.00
-21.00,-23.00,-12.00,-6.00,+4.00,+0.00,-22.00,-50.00,+10.00,+4.00,-3.00,-3.00,-12.00,+50.00,+6.00,-1.00
-17.00,-13.00,-5.00,-4.00,-5.00,+0.00,+8.00,+16.00,-3.00,+3.00,-2.00,-6.00,-1.00,-9.00,+3.00,+3.00
+36.00,+24.00,+10.00,+5.00,+4.00,+3.00,-3.00,+34.00,+17.00,+14.00,-2.00,+3.00,+5.00,+18.00,+1.00,-7.00
+40.00,+56.00,+22.00,+8.00,-4.00,-4.00,+3.00,+34.00,-54.00,-42.00,-4.00,+3.00,+10.00,+33.00,+15.00,-18.00
-8.00,+2.00,-8.00,-6.00,-6.00,-5.00,-1.00,-7.00,+16.00,-2.00,-3.00,+1.00,+7.00,-4.00,-19.00,-2.00
-18.00,-7.00,-7.00,+0.00,+12.00,+8.00,+8.00,-26.00,+13.00,+13.00,+3.00,+2.00,-16.00,-8.00,+1.00,+13.00
-16.00,-50.00,-10.00,-2.00,+2.00,+2.00,+20.00,+14.00,+10.00,+9.00,-1.00,-15.00,-14.00,-58.00,-36.00,-18.00
+14.00,+29.00,+7.00,+1.00,+5.00,+6.00,-14.00,-3.00,+4.00,+13.00,+0.00,-4.00,-5.00,+11.00,+16.00,+25.00
-4.00,+6.00,+3.00,-2.00,-23.00,-17.00,-41.00,-69.00,-31.00,-36.00,-12.00,-5.00,-4.00,-20.00,+5.00,-1.00
-9.00,+4.00,-2.00,-5.00,-7.00,-7.00,+15.00,+67.00,-16.00,-3.00,-1.00,+13.00,+23.00,+12.00,+11.00,-11.00
+4.00,+3.00,+5.00,+8.00,+18.00,+17.00,+28.00,+10.00,-25.00,-23.00,-1.00,-8.00,-12.00,+21.00,+8.00,+5.00
-31.00,-81.00,-24.00,-7.00,+0.00,+2.00,+24.00,+18.00,+29.00,+25.00,+3.00,-1.00,-8.00,+0.00,-12.00,-18.00
+2.00,+25.00,+6.00,+1.00,+3.00,+12.00,-21.00,-26.00,+6.00,+5.00,-3.00,-2.00,-8.00,-22.00,-1.00,+13.00
-28.00,+4.00,-5.00,-8.00,-17.00,-30.00,-51.00,-103.00,-3.00,-8.00,-3.00,-9.00,+1.00,-13.00,+12.00,+3.00
+13.00,-2.00,+3.00,-1.00,-23.00,+7.00,+28.00,+31.00,-16.00,-10.00,-5.00,+8.00,+12.00,+29.00,+1.00,-14.00
-19.00,-24.00,-12.00,-1.00,+30.00,+0.00,-38.00,-15.00,-1.00,+3.00,+2.00,+8.00,+20.00,-4.00,-22.00,-6.00
+9.00,-12.00,+2.00,+3.00,+3.00,+14.00,+36.00,-7.00,+5.00,+10.00,-2.00,-17.00,-22.00,+8.00,-7.00,-13.00
+16.00,-10.00,+2.00,+4.00,+2.00,+6.00,+20.00,+69.00,-14.00,-11.00,-3.00,+1.00,+9.00,-13.00,+4.00,-4.00
-12.00,+0.00,-3.00,-8.00,-17.00,-10.00,-12.00,-37.00,-6.00,-8.00,-1.00,+9.00,+5.00,-12.00,-5.00,+5.00
-23.00,+10.00,-8.00,-9.00,-24.00,-21.00,-40.00,-118.00,-10.00,-23.00,-5.00,-1.00,-17.00,+23.00,+36.00,+0.00
+12.00,-20.00,-5.00,+2.00,+34.00,+21.00,+58.00,+88.00,+6.00,-2.00,-2.00,+3.00,+11.00,+15.00,+8.00,+16.00
+3.00,-14.00,-4.00,+2.00,-7.00,-1.00,-8.00,-15.00,-3.00,+4.00,+2.00,-12.00,-13.00,+6.00,-48.00,-8.00
+22.00,+41.00,+11.00,+2.00,+2.00,-5.00,-9.00,-37.00,-18.00,-1.00,+4.00,+2.00,+3.00,-13.00,-11.00,-24.00
-6.00,-10.00,-2.00,-5.00,-16.00,-7.00,-13.00,-8.00,-19.00,-18.00,-2.00,-1.00,-2.00,-17.00,-20.00,-12.00
-26.00,-15.00,-1.00,-2.00,-8.00,-17.00,-48.00,-33.00,+14.00,+0.00,+1.00,+7.00,+9.00,+17.00,+51.00,+2.00
-16.00,-46.00,-13.00,-11.00,-46.00,-13.00,-6.00,-67.00,+19.00,+15.00,+0.00,-2.00,-11.00,+2.00,+6.00,+15.00
+15.00,+7.00,+2.00,+7.00,+47.00,+37.00,+29.00,+46.00,+20.00,+9.00,+3.00,+20.00,+45.00,+16.00,-12.00,+3.00
+20.00,+8.00,+5.00,+6.00,+29.00,+33.00,+20.00,-14.00,-15.00,+1.00,+2.00,-29.00,-66.00,-54.00,-26.00,+3.00
-12.00,-5.00,-6.00,-2.00,+3.00,-3.00,-3.00,-5.00,-11.00,-6.00,-6.00,-13.00,-9.00,+12.00,-18.00,-16.00
-22.00,+7.00,+2.00,-4.00,-6.00,-22.00,-109.00,-107.00,+11.00,+9.00,-2.00,-4.00,+4.00,+0.00,+11.00,-1.00
+3.00,-35.00,-15.00,-9.00,-24.00,-8.00,+15.00,+51.00,-14.00,-12.00,-3.00,-2.00,-7.00,-11.00,+22.00,-7.00
+12.00,-1.00,-1.00,-2.00,-12.00,-4.00,+57.00,+107.00,+9.00,+10.00,-4.00,+5.00,+7.00,+6.00,+5.00,+8.00
+8.00,-17.00,-5.00,+5.00,+18.00,+16.00,+85.00,+98.00,-22.00,-16.00,-1.00,+4.00,+13.00,-10.00,-47.00,-25.00
+98.00,+106.00,+39.00,+15.00,+10.00,+20.00,+32.00,+54.00,+26.00,+20.00,+4.00,+1.00,+1.00,+33.00,+31.00,+5.00
-26.00,+6.00,+3.00,-3.00,-3.00,-19.00,-43.00,-55.00,-25.00,-26.00,+2.00,+6.00,+1.00,-10.00,+14.00,-2.00
-17.00,-30.00,-7.00,-6.00,-9.00,-19.00,-66.00,-68.00,+4.00,-6.00,-7.00,-1.00,+10.00,+27.00,+30.00,+2.00
-24.00,-22.00,-10.00,-10.00,-34.00,-36.00,-59.00,-75.00,-7.00,+5.00,-6.00,-4.00,-12.00,-16.00,-2.00,-10.00
+6.00,+3.00,+12.00,+6.00,+19.00,+24.00,+52.00,-7.00,+17.00,+32.00,+5.00,+21.00,+31.00,-25.00,+37.00,+11.00
+45.00,+68.00,+18.00,+13.00,+29.00,+27.00,+78.00,+27.00,+3.00,-16.00,-1.00,-19.00,-41.00,+17.00,-12.00,+10.00
+0.00,-18.00,-10.00,-5.00,-31.00,-12.00,-20.00,-62.00,-9.00,+5.00,+4.00,-3.00,+0.00,-10.00,-21.00,-6.00
-29.00,+15.00,-2.00,-3.00,+34.00,+0.00,-74.00,-117.00,+26.00,+28.00,+2.00,+8.00,+15.00,-24.00,-19.00,-23.00
-29.00,-24.00,-8.00,-8.00,-9.00,+2.00,+17.00,-1.00,-32.00,-37.00,-14.00,-22.00,-39.00,-35.00,+3.00,+19.00
+5.00,-27.00,+1.00,+4.00,+8.00,-2.00,+15.00,+72.00,+13.00,+21.00,+0.00,+2.00,+7.00,+38.00,-21.00,+7.00
+23.00,+44.00,+11.00,+5.00,+5.00,+9.00,+42.00,+23.00,-9.00,-23.00,+1.00,+5.00,+15.00,+26.00,+2.00,+1.00
-21.00,-51.00,-17.00,-6.00,-15.00,+1.00,-46.00,-88.00,+8.00,+23.00,+1.00,+1.00,+1.00,-12.00,-47.00,-11.00
+38.00,+78.00,+21.00,+7.00,+6.00,-18.00,+39.00,+103.00,+17.00,-1.00,+0.00,+1.00,-6.00,+9.00,+44.00,+16.00
+17.00,+32.00,+20.00,+2.00,-15.00,-5.00,-21.00,-21.00,-13.00,-4.00,-2.00,+0.00,+2.00,-14.00,+1.00,+10.00
-5.00,+4.00,-2.00,-2.00,+13.00,-2.00,-26.00,-80.00,+18.00,+17.00,+0.00,+5.00,+14.00,+26.00,+55.00,+7.00
+4.00,-32.00,-3.00,+2.00,+7.00,+14.00,+80.00,+115.00,-33.00,-34.00,-10.00,-13.00,-16.00,-9.00,-4.00,-21.00
-12.00,-37.00,-13.00,-5.00,+3.00,+2.00,-27.00,-99.00,+10.00,+12.00,+4.00,-1.00,-10.00,-18.00,-31.00,+14.00
-43.00,-38.00,-27.00,-18.00,-38.00,-35.00,-44.00,-105.00,+24.00,+24.00,+2.00,-1.00,-2.00,-17.00,+3.00,+6.00
+20.00,+26.00,+10.00,+6.00,+9.00,-8.00,+5.00,+37.00,-13.00,-5.00,-5.00,+7.00,-1.00,-27.00,-50.00,-31.00
+12.00,+16.00,+6.00,+0.00,+7.00,+11.00,-2.00,+15.00,+14.00,+8.00,+5.00,+0.00,+10.00,+41.00,+78.00,+42.00
+0.00,-1.00,+2.00,+5.00,+12.00,+7.00,+18.00,+52.00,-30.00,-21.00,-4.00,-7.00,-15.00,+8.00,-64.00,-60.00
-15.00,-14.00,-14.00,-5.00,-9.00,-7.00,-71.00,-128.00,-5.00,-23.00,-3.00,-1.00,+4.00,+7.00,+50.00,+42.00
+22.00,+12.00,+4.00,-1.00,-16.00,+0.00,+40.00,+82.00,-10.00,-6.00,-7.00,-3.00,-1.00,-4.00,+1.00,-19.00
-5.00,-38.00,-10.00,-2.00,-1.00,+12.00,+59.00,-12.00,-2.00,-2.00,-2.00,+6.00,+3.00,-27.00,+0.00,-12.00
-14.00,-58.00,-23.00,-4.00,+1.00,-1.00,+2.00,+65.00,+14.00,+6.00,+0.00,-3.00,-6.00,-14.00,-35.00,+0.00
-27.00,+16.00,+3.00,+6.00,+13.00,+8.00,-15.00,-45.00,-39.00,-34.00,-4.00,+4.00,+13.00,+21.00,-27.00,+4.00
+16.00,+18.00,+17.00,+8.00,+15.00,+6.00,-30.00,-45.00,+15.00,+15.00,+1.00,-6.00,-11.00,+4.00,+31.00,-1.00
+30.00,+45.00,+17.00,+6.00,-3.00,+4.00,+43.00,+49.00,-22.00,-33.00,-6.00,-1.00,-6.00,-15.00,-34.00,-9.00
-39.00,-35.00,-18.00,-13.00,-21.00,-35.00,-53.00,-61.00,+0.00,+28.00,+9.00,+7.00,+7.00,-4.00,-36.00,+0.00
-19.00,-23.00,-5.00,-4.00,+4.00,+1.00,+7.00,-28.00,+20.00,+18.00,-1.00,-3.00,+6.00,+12.00,+88.00,+20.00
-5.00,-16.00,-7.00,-3.00,+2.00,+3.00,-17.00,-64.00,+2.00,+4.00,-7.00,-5.00,+1.00,-12.00,-11.00,+3.00
-21.00,-39.00,-15.00,-6.00,-4.00,+3.00,+53.00,+89.00,+25.00,+16.00,+3.00,+4.00,+3.00,+15.00,-4.00,+12.00
+3.00,+80.00,+12.00,-3.00,-9.00,-12.00,-41.00,-39.00,-13.00,-14.00,-4.00,+1.00,+5.00,-18.00,-34.00,-72.00
+20.00,+33.00,+14.00,+1.00,-11.00,-10.00,-32.00,-62.00,+4.00,-9.00,-3.00,-9.00,-9.00,-6.00,+3.00,+21.00
-16.00,-15.00,-9.00,-4.00,+3.00,-3.00,-7.00,+10.00,-17.00,-24.00,-6.00,-2.00,-12.00,-20.00,+6.00,-2.00
+14.00,+14.00,+4.00,+1.00,-19.00,-6.00,+0.00,+31.00,-2.00,+9.00,+1.00,-4.00,-7.00,-11.00,-61.00,+0.00
-9.00,-24.00,-3.00,+2.00,+22.00,+2.00,-34.00,-43.00,+3.00,+5.00,+4.00,+11.00,+28.00,+49.00,+50.00,+19.00
+6.00,-38.00,-16.00,-6.00,+5.00,+5.00,+53.00,+45.00,+11.00,+7.00,-4.00,-16.00,-33.00,-30.00,-28.00,-23.00
+31.00,+103.00,+48.00,+14.00,+2.00,+9.00,-13.00,-25.00,+6.00,+15.00,+6.00,-6.00,-3.00,-16.00,-16.00,+3.00
-9.00,-23.00,-3.00,-1.00,+0.00,-12.00,-43.00,-92.00,-13.00,-15.00,+6.00,+7.00,-2.00,-1.00,+52.00,+21.00
+7.00,-6.00,-12.00,-11.00,-17.00,-5.00,-1.00,+27.00,-16.00,-12.00,-5.00,-5.00,+4.00,+13.00,-23.00,+8.00
-25.00,-31.00,-10.00,-4.00,-3.00,-7.00,-23.00,-50.00,+1.00,-4.00,+0.00,+7.00,+17.00,+33.00,-21.00,-65.00
-2.00,-66.00,-18.00,-1.00,+1.00,+14.00,+78.00,+104.00,+15.00,+10.00,+1.00,+2.00,+0.00,+1.00,+44.00,+70.00
+18.00,+24.00,+9.00,+9.00,+16.00,+14.00,-8.00,+2.00,-3.00,+1.00,+0.00,-1.00,-10.00,-55.00,-34.00,-28.00
-1.00,+26.00,-1.00,-6.00,-13.00,+0.00,+11.00,-41.00,+16.00,-7.00,-1.00,+0.00,+6.00,+70.00,+51.00,+26.00
-16.00,-25.00,+1.00,+0.00,+1.00,-9.00,-6.00,+2.00,+13.00,-5.00,-8.00,-3.00,+1.00,-6.00,+31.00,-9.00
+16.00,+23.00,+4.00,-3.00,-21.00,-19.00,-47.00,-13.00,+9.00,+11.00,+4.00,+9.00,+13.00,-13.00,-45.00,-15.00
-9.00,+6.00,+0.00,+1.00,+22.00,+5.00,-69.00,-74.00,-14.00,-2.00,+3.00,+6.00,+12.00,+76.00,+14.00,+10.00
+28.00,-2.00,-3.00,+5.00,+14.00,+27.00,+85.00,+76.00,+5.00,+10.00,-2.00,-19.00,-33.00,-48.00,-46.00,-41.00
+16.00,-7.00,-1.00,-2.00,+0.00,+8.00,+37.00,+127.00,-1.00,+7.00,+5.00,+3.00,+1.00,-15.00,+70.00,+50.00
-33.00,-41.00,-15.00,-5.00,-6.00,-5.00,-1.00,-16.00,+1.00,-24.00,-5.00,-4.00,+2.00,+17.00,+6.00,+5.00
-8.00,-16.00,-6.00,-5.00,-12.00,-10.00,-23.00,-32.00,+4.00,-5.00,-7.00,+0.00,+11.00,+21.00,+31.00,+12.00
-23.00,-33.00,-5.00,-7.00,-26.00,-27.00,-70.00,-128.00,+8.00,+9.00,-3.00,-2.00,-10.00,-17.00,+9.00,+5.00
+28.00,+56.00,+10.00,+8.00,+30.00,+20.00,-9.00,-13.00,-28.00,-19.00,-6.00,+0.00,+4.00,-14.00,-77.00,-38.00
-14.00,-29.00,-13.00,-3.00,-7.00,-31.00,+1.00,-3.00,-1.00,+10.00,+4.00,-10.00,-15.00,-16.00,+16.00,+18.00
+6.00,+3.00,-2.00,-4.00,-1.00,-8.00,+32.00,+77.00,-10.00,-7.00,-1.00,-7.00,-6.00,-49.00,-78.00,-48.00
-22.00,-19.00,-9.00,+4.00,+19.00,+65.00,+31.00,-2.00,-20.00,-31.00,-9.00,-6.00,+6.00,+33.00,+45.00,+35.00
+18.00,+38.00,+7.00,+3.00,-7.00,+5.00,+34.00,+18.00,+39.00,+21.00,+1.00,-1.00,-10.00,-47.00,-10.00,+17.00
-29.00,-47.00,-15.00,-4.00,-2.00,+7.00,-47.00,-89.00,-22.00,+8.00,+13.00,+12.00,+13.00,+6.00,-50.00,-36.00
+8.00,+50.00,+10.00,-3.00,-7.00,-21.00,-5.00,-37.00,+12.00,+20.00,-4.00,-6.00,-17.00,-26.00,+15.00,-6.00
-41.00,-63.00,-19.00,-11.00,-12.00,-29.00,-21.00,+63.00,-10.00,-6.00,+1.00,+0.00,+4.00,+30.00,+10.00,+40.00
-29.00,+5.00,-6.00,-5.00,-10.00,-10.00,-39.00,-47.00,-10.00,-4.00,-11.00,-5.00,-14.00,-59.00,+1.00,-12.00
+62.00,+21.00,+19.00,+11.00,+21.00,+15.00,+84.00,+98.00,-27.00,-24.00,-6.00,-1.00,+3.00,+35.00,-22.00,+1.00
-24.00,-12.00,+10.00,+3.00,+0.00,-2.00,-3.00,-59.00,+14.00,-14.00,-13.00,-7.00,+2.00,+25.00,+2.00,-20.00
+66.00,+80.00,+38.00,+15.00,+10.00,-2.00,+2.00,+58.00,+5.00,+7.00,-3.00,+2.00,+4.00,-32.00,-11.00,+6.00
-72.00,-65.00,-40.00,-24.00,-28.00,-55.00,-86.00,-109.00,-15.00,+1.00,+5.00,+1.00,+7.00,+30.00,+2.00,-5.00
+20.00,-36.00,-19.00,-5.00,-5.00,-29.00,+38.00,+81.00,+7.00,+25.00,+13.00,-3.00,-12.00,-33.00,-14.00,+4.00
+3.00,+13.00,+8.00,-1.00,-8.00,+19.00,+8.00,-43.00,-21.00,-25.00,-9.00,+0.00,-13.00,-62.00,-9.00,-34.00
-15.00,-6.00,+3.00,+5.00,+30.00,+73.00,+78.00,-6.00,+33.00,+8.00,+1.00,+1.00,+20.00,+72.00,+37.00,+24.00
+50.00,+53.00,+23.00,+11.00,+10.00,+22.00,+13.00,+40.00,+9.00,+2.00,-9.00,-1.00,-11.00,+8.00,-42.00,+9.00
-28.00,+4.00,-4.00,-7.00,-23.00,-6.00,-29.00,-34.00,+6.00,+6.00,-6.00,+0.00,+6.00,-14.00,-2.00,-40.00
+27.00,+52.00,+12.00,+3.00,+11.00,-46.00,-80.00,+3.00,-20.00,-4.00,+8.00,+5.00,+9.00,+23.00,+18.00,+41.00
-34.00,-54.00,-18.00,+0.00,+8.00,-8.00,-56.00,-98.00,+8.00,+3.00,+6.00,-5.00,-17.00,-38.00,-12.00,+15.00
+25.00,-17.00,-5.00,-3.00,-1.00,+1.00,+56.00,+96.00,-4.00,+11.00,-1.00,-6.00,-9.00,-25.00,-34.00,-15.00
+43.00,+72.00,+22.00,+10.00,+11.00,+1.00,+32.00,+44.00,-4.00,-21.00,-5.00,-1.00,+0.00,+19.00,-45.00,-64.00
-52.00,-47.00,-29.00,-6.00,-15.00,+7.00,-33.00,+16.00,+16.00,+21.00,+7.00,+7.00,+15.00,+46.00,+97.00,+36.00
-4.00,-3.00,+15.00,-6.00,-16.00,-30.00,-31.00,-27.00,-7.00,+20.00,+24.00,+9.00,+5.00,+3.00,-2.00,-5.00
-16.00,-36.00,-6.00,-1.00,+2.00,+11.00,+5.00,-84.00,-7.00,-22.00,-23.00,-9.00,-8.00,+17.00,+6.00,-18.00
+43.00,+79.00,+37.00,+5.00,+7.00,+4.00,-15.00,-27.00,+12.00,-3.00,-22.00,-10.00,-4.00,-35.00,+3.00,+10.00
-21.00,-21.00,-2.00,-1.00,-7.00,-15.00,-21.00,-56.00,-26.00,-24.00,-6.00,-1.00,-6.00,+1.00,-35.00,-10.00
+2.00,-27.00,-23.00,-1.00,-5.00,-18.00,-7.00,+3.00,-4.00,+5.00,+1.00,+1.00,-4.00,-79.00,-101.00,-34.00
+7.00,+49.00,+13.00,+0.00,-4.00,+4.00,+33.00,-16.00,+12.00,+20.00,+27.00,+10.00,+13.00,+59.00,+67.00,+31.00
-45.00,-40.00,-25.00,-9.00,-8.00,-22.00,-66.00,-100.00,+2.00,+0.00,-4.00,+2.00,-2.00,-6.00,+8.00,-30.00
+10.00,-11.00,+2.00,+1.00,+10.00,+27.00,+95.00,+42.00,+19.00,+16.00,+7.00,-1.00,+6.00,+24.00,+28.00,-21.00
-5.00,+6.00,+1.00,+0.00,+0.00,-5.00,-9.00,-41.00,+33.00,-11.00,-23.00,-5.00,-19.00,-54.00,+8.00,+23.00
+30.00,+42.00,+12.00,+1.00,-7.00,-1.00,-12.00,+68.00,-3.00,+24.00,+7.00,+3.00,+11.00,+60.00,+5.00,-4.00
-46.00,-28.00,-24.00,-9.00,-10.00,-19.00,-85.00,-84.00,-40.00,-39.00,-14.00,-2.00,-10.00,-27.00,-52.00,-7.00
+41.00,+9.00,-12.00,+4.00,+7.00,-11.00,+101.00,+14.00,-19.00,+10.00,+5.00,-11.00,-8.00,+6.00,-66.00,-5.00
-12.00,-52.00,-2.00,-3.00,-3.00,+24.00,+2.00,+7.00,+29.00,+14.00,+22.00,+12.00,+4.00,-17.00,+89.00,+32.00
+30.00,+73.00,+18.00,+3.00,+6.00,-9.00,+12.00,+11.00,-14.00,-28.00,-27.00,-12.00,-7.00,-7.00,-37.00,-51.00
-18.00,-23.00,+7.00,+1.00,+7.00,+17.00,+17.00,-23.00,+35.00,+10.00,+11.00,+7.00,+16.00,+34.00,+54.00,+25.00
-4.00,-28.00,-4.00,-4.00,-7.00,-1.00,-14.00,+14.00,+27.00,+2.00,-11.00,-4.00,-2.00,-29.00,-49.00,-14.00
+31.00,+52.00,+10.00,+4.00,-6.00,-28.00,-24.00,-4.00,-57.00,-22.00,-4.00,-5.00,-8.00,+22.00,-12.00,-33.00
-40.00,-111.00,-27.00,-3.00,-3.00,-17.00,-54.00,-89.00,+1.00,+25.00,+36.00,+13.00,+16.00,-7.00,+18.00,+17.00
+42.00,+74.00,+46.00,+2.00,+8.00,+28.00,+80.00,+114.00,-7.00,+41.00,+29.00,+2.00,-4.00,+0.00,-30.00,-76.00
-24.00,+8.00,+9.00,+0.00,+3.00,+2.00,-39.00,-49.00,+15.00,-66.00,-43.00,-1.00,+0.00,-4.00,+43.00,+86.00
+45.00,+11.00,+7.00,+1.00,-4.00,-3.00,+19.00,+77.00,+20.00,+15.00,-18.00,-11.00,-13.00,+10.00,+52.00,+58.00
-22.00,+8.00,-13.00,-6.00,-19.00,-37.00,-51.00,-30.00,-28.00,-24.00,-8.00,-5.00,-12.00,-14.00,+30.00,+24.00
+1.00,-61.00,-29.00,+10.00,+25.00,+38.00,+69.00,+15.00,-23.00,+14.00,+39.00,+9.00,+9.00,+1.00,-64.00,+15.00
-8.00,+17.00,+12.00,-4.00,+0.00,+35.00,-43.00,-60.00,+56.00,+50.00,+10.00,+4.00,+14.00,+26.00,+23.00,+27.00
+17.00,-31.00,+2.00,+11.00,+25.00,+52.00,+88.00,+97.00,-64.00,-54.00,-36.00,-8.00,-1.00,-2.00,-17.00,-85.00
+40.00,+68.00,+29.00,+4.00,+5.00,-9.00,+18.00,+46.00,+44.00,+3.00,-1.00,+2.00,+7.00,+18.00,-43.00,-7.00
-56.00,-50.00,-26.00,-12.00,-20.00,-34.00,-46.00,-67.00,+3.00,-28.00,-27.00,-8.00,-6.00,+21.00,+95.00,+115.00
+70.00,+72.00,+23.00,+10.00,+11.00,+29.00,+7.00,+72.00,-14.00,+7.00,+4.00,-7.00,-14.00,-41.00,+1.00,-18.00
-28.00,+12.00,-10.00,-2.00,-19.00,-61.00,-77.00,-89.00,-13.00,-17.00,-5.00,-1.00,+7.00,+11.00,-17.00,-28.00
-25.00,-64.00,-17.00,-6.00,-6.00,-12.00,+14.00,+30.00,+3.00,+29.00,+29.00,+10.00,+2.00,+7.00,-31.00,-6.00
-7.00,-30.00,-16.00,+2.00,+14.00,+90.00,+23.00,+52.00,+5.00,+8.00,-6.00,-6.00,-2.00,-25.00,-23.00,-15.00
-32.00,-32.00,-10.00,+1.00,-2.00,-19.00,-38.00,-65.00,-21.00,-12.00,+0.00,-8.00,-15.00,-24.00,-100.00,-64.00
+20.00,+13.00,+2.00,-4.00,+1.00,+26.00,+64.00,+94.00,+13.00,+39.00,+38.00,+17.00,+18.00,+35.00,+68.00,+73.00
-35.00,-61.00,-10.00,-10.00,-7.00,-22.00,-10.00,-48.00,-19.00,-39.00,-18.00,+0.00,-6.00,-76.00,-65.00,-5.00
+14.00,+42.00,+1.00,-5.00,-17.00,-29.00,-39.00,-88.00,+3.00,-22.00,-39.00,-11.00,-11.00,+51.00,-5.00,-32.00
+14.00,+8.00,+4.00,+0.00,-2.00,-20.00,-11.00,+80.00,-4.00,-12.00,-2.00,-2.00,-8.00,-16.00,+67.00,+104.00
-42.00,-59.00,-38.00,-8.00,-4.00,+7.00,-5.00,-83.00,-5.00,+2.00,+2.00,-6.00,+9.00,+31.00,-53.00,-128.00
+17.00,+51.00,+29.00,+7.00,+12.00,+4.00,+11.00,-74.00,-5.00,+12.00,+12.00,+0.00,-6.00,-23.00,-22.00,+3.00
-6.00,+7.00,+6.00,-1.00,-4.00,+42.00,-7.00,+26.00,-14.00,-39.00,-36.00,-3.00,-7.00,-37.00,+4.00,+15.00
+5.00,-41.00,-21.00,-6.00,-9.00,-53.00,+22.00,+81.00,+6.00,+28.00,+9.00,-4.00,-2.00,+33.00,+53.00,+7.00
-44.00,-74.00,-29.00,-7.00,+2.00,+60.00,-4.00,-83.00,-1.00,+4.00,+3.00,+6.00,+2.00,+0.00,-64.00,+5.00
+10.00,+18.00,+15.00,-1.00,-3.00,-7.00,-20.00,+25.00,-8.00,-25.00,+8.00,-1.00,-10.00,+20.00,+98.00,+33.00
+2.00,-52.00,-12.00,-8.00,-15.00,-50.00,-31.00,-24.00,-12.00,-1.00,-1.00,+0.00,-17.00,+2.00,-27.00,-42.00
-15.00,-27.00,+4.00,+4.00,+5.00,+36.00,+35.00,+7.00,-15.00,+6.00,-1.00,+0.00,+21.00,-2.00,+11.00,-16.00
+23.00,+0.00,+19.00,+0.00,-6.00,-49.00,+2.00,+118.00,-15.00,+4.00,+1.00,-3.00,+1.00,-28.00,-67.00,-19.00
-33.00,-52.00,-34.00,-13.00,-18.00,-8.00,-18.00,-32.00,+25.00,+6.00,-16.00,-5.00,+3.00,-26.00,-116.00,-75.00
+34.00,+64.00,+17.00,+7.00,+5.00,-30.00,-52.00,-29.00,-9.00,-17.00,-9.00,-8.00,-8.00,+21.00,+74.00,+9.00
-9.00,-8.00,-15.00,+0.00,+18.00,+80.00,+78.00,+30.00,+7.00,+18.00,+15.00,+1.00,+15.00,+28.00,-29.00,-12.00
-22.00,+6.00,+10.00,-1.00,+2.00,-1.00,-7.00,-66.00,+9.00,+1.00,-1.00,+1.00,-14.00,-27.00,+62.00,+97.00
-2.00,-17.00,-16.00,+2.00,+9.00,+70.00,-3.00,+17.00,+0.00,+1.00,-18.00,-1.00,+13.00,-8.00,-38.00,-27.00
-19.00,-15.00,-4.00,-4.00,-7.00,-19.00,-38.00,+0.00,-15.00,-36.00,-21.00,-7.00,-19.00,-31.00,+78.00,+20.00
+20.00,-6.00,-6.00,+8.00,+13.00,-4.00,+37.00,-1.00,+2.00,-5.00,+2.00,-7.00,-11.00,+25.00,-28.00,-58.00
-26.00,+18.00,+2.00,+0.00,-5.00,-15.00,-20.00,-94.00,-16.00,+16.00,-2.00,-5.00,-20.00,-16.00,-70.00,-77.00
+91.00,+85.00,+45.00,+28.00,+41.00,+79.00,+115.00,+104.00,+2.00,-33.00,-16.00,-1.00,+22.00,+35.00,+103.00,+67.00
-27.00,-15.00,+3.00,+2.00,+2.00,-14.00,+0.00,-7.00,-29.00,+25.00,+19.00,+4.00,+17.00,+7.00,-37.00,-60.00
-31.00,-30.00,+0.00,-17.00,-23.00,-46.00,-100.00,-120.00,+14.00,-19.00,-5.00,+0.00,-19.00,+1.00,+63.00,+35.00
-16.00,-38.00,-31.00,-2.00,-9.00,-56.00,+14.00,+109.00,-18.00,-60.00,-37.00,-24.00,-71.00,-25.00,-31.00,-29.00
+1.00,+11.00,+5.00,-8.00,-12.00,-36.00,-29.00,+47.00,-31.00,+52.00,+38.00,+22.00,+49.00,-53.00,-34.00,-101.00
-6.00,+13.00,+7.00,+1.00,+4.00,+57.00,+57.00,-39.00,+48.00,-11.00,-16.00,-6.00,+2.00,+12.00,-44.00,+86.00
+2.00,+32.00,+15.00,+2.00,+2.00,-12.00,-2.00,-41.00,-23.00,+8.00,+2.00,+2.00,-11.00,-24.00,-26.00,-33.00
+14.00,+23.00,-3.00,+1.00,-6.00,-35.00,-31.00,-22.00,+34.00,-21.00,-8.00,-4.00,+19.00,+57.00,-26.00,+34.00
-29.00,+28.00,+2.00,+6.00,-6.00,-13.00,-30.00,+11.00,-5.00,+42.00,+15.00,-3.00,-20.00,+21.00,+5.00,+54.00
+50.00,+4.00,+3.00,-13.00,-14.00,-80.00,+15.00,+99.00,+34.00,+59.00,+51.00,+10.00,+7.00,+1.00,-19.00,-26.00
-55.00,-64.00,-15.00,-9.00,-19.00,-18.00,-54.00,-80.00,-42.00,+1.00,-3.00,+0.00,-1.00,+16.00,-32.00,-19.00
+40.00,+104.00,+39.00,+4.00,+3.00,-44.00,-39.00,-99.00,+0.00,-48.00,-54.00,+7.00,+15.00,-29.00,+36.00,-22.00
-8.00,-54.00,-34.00,-4.00,+3.00,+10.00,-4.00,-37.00,-17.00,-18.00,-4.00,-8.00,-81.00,-54.00,-86.00,-41.00
-20.00,+3.00,+4.00,+3.00,+9.00,-18.00,+8.00,-37.00,+19.00,+15.00,+10.00,+12.00,+55.00,+31.00,+88.00,+73.00
+12.00,-43.00,-29.00,-11.00,-15.00,-9.00,+25.00,+108.00,+26.00,+9.00,+3.00,-4.00,-22.00,-60.00,+3.00,+48.00
-16.00,+13.00,+20.00,+1.00,+10.00,+0.00,-36.00,-83.00,-42.00,-23.00,+1.00,-8.00,+62.00,+65.00,-17.00,-96.00
-54.00,-38.00,-30.00,-7.00,-21.00,-72.00,-40.00,-66.00,+4.00,-9.00,-7.00,+3.00,+16.00,+20.00,+43.00,+75.00
+78.00,+62.00,+21.00,-2.00,-5.00,+7.00,-36.00,-77.00,-28.00,+0.00,+8.00,-5.00,+6.00,+39.00,-69.00,-24.00
+11.00,+26.00,+10.00,+7.00,+2.00,+24.00,+8.00,+76.00,+12.00,-28.00,-34.00,-12.00,-61.00,-102.00,-57.00,+38.00
-16.00,-77.00,-37.00,-1.00,+25.00,+41.00,+83.00,+96.00,+4.00,+8.00,+16.00,+11.00,+10.00,-26.00,+76.00,-53.00
+2.00,+48.00,+30.00,+12.00,+18.00,+29.00,-2.00,-70.00,+14.00,-6.00,-10.00,-16.00,-27.00,+57.00,+75.00,+93.00
-25.00,-19.00,-26.00,-13.00,-18.00,-66.00,-7.00,+38.00,+73.00,+92.00,+38.00,+3.00,+2.00,+8.00,+36.00,-25.00
+6.00,+36.00,+7.00,-9.00,-13.00,-8.00,-40.00,-124.00,-41.00,-15.00,+7.00,+18.00,+52.00,+37.00,-44.00,+4.00
-15.00,-48.00,+1.00,-7.00,-28.00,-25.00,-7.00,+94.00,+11.00,-28.00,-26.00,-22.00,-48.00,-1.00,+27.00,-37.00
+71.00,+27.00,+37.00,+25.00,+42.00,+75.00,+99.00,+123.00,-13.00,+18.00,-1.00,-3.00,-7.00,-35.00,-37.00,+9.00
-41.00,-72.00,-28.00,-2.00,-1.00,-2.00,+3.00,+4.00,+19.00,-56.00,-27.00,+2.00,+9.00,+9.00,+104.00,+58.00
-4.00,+1.00,-7.00,-6.00,-13.00,-48.00,-57.00,+41.00,-1.00,+30.00,+12.00,+0.00,+1.00,-38.00,+22.00,-36.00
-23.00,+43.00,+12.00,-15.00,-47.00,-89.00,-82.00,+58.00,-8.00,+85.00,+41.00,+9.00,-65.00,-10.00,-46.00,-17.00
+9.00,-32.00,-13.00,+7.00,+48.00,+72.00,+79.00,-94.00,+12.00,-62.00,-33.00,-3.00,+64.00,-71.00,-62.00,-40.00
-21.00,+7.00,+0.00,-5.00,-13.00,-25.00,+18.00,+13.00,-47.00,-50.00,-21.00,-16.00,+5.00,+26.00,+46.00,-42.00
-3.00,-6.00,+7.00,+27.00,+56.00,+67.00,+35.00,-51.00,+41.00,+33.00,+9.00,-12.00,-1.00,-34.00,-21.00,+35.00
+14.00,-17.00,-37.00,-17.00,-17.00,+3.00,-17.00,-18.00,-73.00,-36.00,+15.00,+18.00,+42.00,+59.00,+20.00,+10.00
+46.00,+31.00,+40.00,+16.00,+11.00,+19.00,+74.00,+127.00,+26.00,+7.00,-10.00,-18.00,-58.00,-103.00,-75.00,-27.00
+10.00,-8.00,-30.00,+0.00,+20.00,+82.00,+34.00,-57.00,+18.00,+20.00,+2.00,+8.00,-11.00,+25.00,+10.00,+1.00
-47.00,-65.00,-24.00,-5.00,-18.00,-66.00,-41.00,-76.00,+5.00,+4.00,+18.00,+17.00,+38.00,-16.00,+0.00,-128.00
-11.00,+64.00,+51.00,-10.00,-17.00,-18.00,-20.00,-95.00,+26.00,+65.00,+59.00,+8.00,-10.00,+81.00,+57.00,+115.00
+60.00,+48.00,+12.00,+4.00,+9.00,-26.00,-25.00,+30.00,-3.00,-63.00,-88.00,-29.00,+0.00,+44.00,-35.00,+22.00
-11.00,+22.00,-17.00,-1.00,-8.00,-23.00,-19.00,-46.00,-34.00,-37.00,-12.00,-2.00,+12.00,-85.00,-127.00,-42.00
+26.00,-7.00,-7.00,+6.00,-1.00,-1.00,+31.00,+46.00,+14.00,+43.00,+35.00,+6.00,-16.00,+77.00,+86.00,+12.00
-10.00,+41.00,+42.00,+6.00,+10.00,+0.00,-4.00,-123.00,+31.00,+34.00,+24.00,+16.00,+67.00,-12.00,-24.00,+6.00
-56.00,-51.00,-27.00,-24.00,-47.00,-95.00,-48.00,+50.00,+2.00,+11.00,+9.00,+5.00,-11.00,+66.00,+127.00,+77.00
-23.00,-16.00,+14.00,+13.00,+26.00,+78.00,-1.00,-74.00,-15.00,-27.00,-26.00,-15.00,+6.00,+42.00,-60.00,-55.00
+28.00,+32.00,-10.00,-9.00,-17.00,-26.00,-15.00,+127.00,-18.00,-6.00,-14.00,-3.00,-53.00,-84.00,-18.00,-17.00
-14.00,-56.00,-13.00,+5.00,+10.00,-7.00,+33.00,-4.00,+15.00,+30.00,+19.00,+0.00,-29.00,-26.00,-68.00,+14.00
+45.00,+31.00,+10.00,+8.00,+34.00,+94.00,+44.00,+69.00,+5.00,-23.00,+0.00,+0.00,+57.00,+54.00,+63.00,-21.00
-8.00,-23.00,-18.00,+0.00,-19.00,-51.00,-31.00,-18.00,-30.00,-16.00,-8.00,-9.00,-35.00,-32.00,-40.00,-19.00
-20.00,-10.00,+6.00,-15.00,-20.00,-35.00,-56.00,-128.00,-13.00,+56.00,+51.00,+16.00,+17.00,+38.00,-3.00,-1.00
+61.00,+19.00,+19.00,+15.00,+41.00,+127.00,+127.00,+92.00,+23.00,-30.00,-72.00,-23.00,+7.00,-35.00,+55.00,+120.00
-106.00,-107.00,-52.00,-21.00,-50.00,-95.00,-128.00,-128.00,-21.00,-41.00,-8.00,+17.00,+31.00,+66.00,-13.00,-89.00
+103.00,+74.00,+53.00,+7.00,+4.00,-20.00,+75.00,+127.00,-37.00,-2.00,+13.00,-3.00,+6.00,-97.00,-111.00,-66.00
+43.00,+50.00,+15.00,+19.00,+36.00,+74.00,+7.00,-54.00,+54.00,-26.00,-24.00,-20.00,+8.00,+109.00,+52.00,+50.00
-8.00,+3.00,+6.00,-5.00,-5.00,-53.00,-1.00,+32.00,+11.00,+38.00,+36.00,+14.00,-70.00,-98.00,-72.00,-64.00
-103.00,-103.00,-59.00,-26.00,-31.00,-39.00,-38.00,-128.00,+3.00,+32.00,+8.00,+9.00,+5.00,+29.00,-43.00,-54.00
+33.00,+39.00,-22.00,-15.00,-35.00,-89.00,-124.00,+108.00,+27.00,+33.00,+18.00,+14.00,+33.00,+31.00,+127.00,+91.00
-42.00,-82.00,-36.00,+2.00,+30.00,+84.00,+127.00,+85.00,-11.00,+43.00,+23.00,-4.00,-57.00,+34.00,-37.00,+89.00
+65.00,+127.00,+87.00,+35.00,+22.00,-11.00,-5.00,+88.00,+15.00,-48.00,-13.00,-5.00,+61.00,-56.00,-20.00,-50.00
-12.00,-23.00,-15.00,-11.00,-13.00,-28.00,-75.00,-102.00,-17.00,+9.00,+13.00,+0.00,+4.00,-39.00,+33.00,+27.00
-95.00,-71.00,-5.00,-10.00,-22.00,-90.00,-87.00,-105.00,+16.00,+58.00,+20.00,+10.00,-19.00,-41.00,-62.00,-4.00
+52.00,+8.00,+10.00,+3.00,-7.00,-14.00,+59.00,+24.00,-64.00,-51.00,-24.00,-13.00,-9.00,+90.00,+37.00,-86.00
-1.00,-90.00,-76.00,-14.00,+11.00,+69.00,-52.00,-61.00,+26.00,-9.00,-1.00,+9.00,+21.00,-52.00,-1.00,+62.00
-6.00,+17.00,+29.00,+4.00,-2.00,-18.00,+98.00,+96.00,-8.00,+31.00,+24.00,-7.00,-49.00,-21.00,-12.00,-37.00
+9.00,+25.00,+19.00,+9.00,-2.00,-4.00,+47.00,-47.00,+44.00,-21.00,-25.00,+4.00,+23.00,-35.00,+63.00,+79.00
-15.00,+6.00,+10.00,+6.00,+41.00,+61.00,+10.00,-63.00,-12.00,-5.00,-1.00,+6.00,+20.00,-12.00,-40.00,-25.00
+73.00,-8.00,-21.00,-5.00,-18.00,-27.00,+27.00,+67.00,-24.00,-42.00,-29.00,-20.00,-18.00,+28.00,+52.00,-4.00
-27.00,+19.00,+8.00,+6.00,+2.00,-54.00,+19.00,-15.00,-23.00,-30.00,-7.00,-12.00,+12.00,+49.00,-3.00,+6.00
-49.00,-13.00,-9.00,-10.00,+5.00,+15.00,-24.00,-68.00,+42.00,+66.00,+54.00,+23.00,-13.00,+72.00,+40.00,-34.00
-21.00,-22.00,-32.00,-17.00,-55.00,-128.00,-107.00,-86.00,+17.00,-1.00,-10.00,-2.00,-8.00,-128.00,-38.00,-17.00
-56.00,-5.00,+22.00,+11.00,+37.00,+112.00,+72.00,+1.00,-17.00,-17.00,-19.00,-9.00,+23.00,+114.00,-3.00,+23.00
+95.00,+66.00,-10.00,-10.00,-31.00,-80.00,-56.00,+41.00,-12.00,-22.00,+14.00,+5.00,-50.00,-119.00,-89.00,-109.00
+5.00,+14.00,+24.00,+26.00,+69.00,+127.00,+127.00,-52.00,-16.00,+13.00,-9.00,-20.00,-20.00,+84.00,-25.00,-30.00
-27.00,-46.00,-7.00,-16.00,-5.00,-21.00,-15.00,+30.00,+57.00,+38.00,+27.00,+30.00,+39.00,-13.00,+93.00,+96.00
-70.00,-33.00,-43.00,-19.00,-39.00,-49.00,-58.00,-60.00,-30.00,-82.00,-73.00,-29.00,-23.00,-45.00,-53.00,-104.00
+56.00,+41.00,+27.00,+1.00,-21.00,-77.00,-102.00,+18.00,+9.00,-23.00,-7.00,-4.00,+0.00,+7.00,+23.00,+41.00
-69.00,-44.00,-18.00,+2.00,+9.00,+68.00,+49.00,-4.00,-1.00,+18.00,+4.00,+7.00,-18.00,-53.00,-42.00,-30.00
+97.00,+45.00,+15.00,+8.00,-15.00,-82.00,+1.00,+110.00,-11.00,-14.00,-24.00,-17.00,-34.00,-1.00,-54.00,-7.00
-34.00,-27.00,-5.00,-1.00,+18.00,+61.00,-21.00,-128.00,-44.00,+9.00,+8.00,-1.00,-9.00,+32.00,+13.00,-14.00
-52.00,-82.00,-15.00,-20.00,-11.00,-26.00,+22.00,-16.00,+71.00,+62.00,+30.00,+22.00,+25.00,+63.00,+107.00,+82.00
-6.00,-18.00,-34.00,-12.00,+1.00,-18.00,-13.00,+49.00,-43.00,-94.00,-41.00,-21.00,+13.00,-45.00,-62.00,+47.00
-33.00,+2.00,-4.00,+3.00,-17.00,-6.00,-13.00,-18.00,-22.00,-30.00,-7.00,-6.00,-56.00,+18.00,-7.00,-34.00
+53.00,+52.00,+20.00,+11.00,+21.00,+45.00,+32.00,+8.00,-12.00,+50.00,+28.00,-13.00,+12.00,-35.00,-53.00,-27.00
-25.00,-14.00,-2.00,+6.00,+13.00,+15.00,-45.00,-80.00,-10.00,-35.00,-17.00,+14.00,+43.00,-82.00,+35.00,+18.00
-70.00,-96.00,-15.00,-18.00,-18.00,+8.00,-52.00,-106.00,-19.00,-14.00,-9.00,-7.00,-62.00,-18.00,-36.00,-9.00
+86.00,+99.00,+17.00,-2.00,+3.00,+16.00,+42.00,+6.00,+29.00,+45.00,+17.00,+1.00,+43.00,-36.00,-22.00,-3.00
-36.00,-40.00,-21.00,-10.00,-18.00,+6.00,-116.00,-128.00,+19.00,-39.00,-25.00,+12.00,+13.00,+38.00,-32.00,-56.00
+7.00,-101.00,-73.00,-3.00,+32.00,+107.00,+122.00,+84.00,-7.00,+61.00,+21.00,-16.00,-43.00,+10.00,+57.00,+33.00
+94.00,+72.00,+88.00,+30.00,+12.00,+21.00,+46.00,+127.00,-75.00,-63.00,-34.00,-28.00,-18.00,+23.00,+30.00,+31.00
-39.00,-6.00,+3.00,+2.00,-1.00,-61.00,-69.00,-128.00,+25.00,-17.00,-20.00,+10.00,+104.00,+69.00,-4.00,-8.00
-27.00,-79.00,-53.00,-11.00,-21.00,-33.00,+31.00,+90.00,+0.00,+81.00,+42.00,+6.00,-40.00,+12.00,-12.00,-35.00
-61.00,-66.00,-23.00,-20.00,-19.00,-14.00,-66.00,-40.00,+17.00,+36.00,+18.00,+12.00,+62.00,+2.00,-38.00,-14.00
+87.00,+61.00,-15.00,+6.00,-5.00,-65.00,-12.00,-69.00,-57.00,-34.00,-44.00,-4.00,+18.00,-34.00,-89.00,-16.00
-45.00,+23.00,+34.00,-4.00,+12.00,+126.00,+35.00,+6.00,+30.00,+1.00,+19.00,+0.00,-31.00,+22.00,+100.00,+69.00
+48.00,+37.00,-7.00,+8.00,-4.00,-63.00,+22.00,+21.00,+29.00,-3.00,+2.00,-5.00,-41.00,-19.00,-12.00,+47.00
-61.00,-30.00,+18.00,-2.00,+2.00,+36.00,-74.00,-107.00,+9.00,+52.00,+22.00,+19.00,+38.00,+1.00,-19.00,-77.00
+27.00,-32.00,-2.00,-6.00,+18.00,+28.00,+89.00,+123.00,+19.00,-91.00,-80.00,-21.00,-49.00,+3.00,+1.00,-93.00
-10.00,-17.00,-22.00,-2.00,+4.00,-15.00,-21.00,+12.00,-38.00,-25.00,-35.00,-8.00,+63.00,+11.00,+23.00,+9.00
-1.00,+10.00,-5.00,+4.00,+4.00,-46.00,+21.00,-20.00,-17.00,-20.00,+31.00,+6.00,+4.00,+82.00,+43.00,+77.00
-26.00,-5.00,-12.00,-6.00,-43.00,-83.00,-81.00,-14.00,+48.00,+89.00,+32.00,-6.00,-32.00,-16.00,-27.00,+4.00
+49.00,-64.00,-30.00,-27.00,-50.00,-104.00,-31.00,+46.00,+28.00,+23.00,+43.00,-30.00,-62.00,+13.00,-41.00,-107.00
-1.00,+37.00,+52.00,+28.00,+52.00,+91.00,+67.00,+23.00,-11.00,-101.00,-78.00,+6.00,+40.00,-80.00,+1.00,+33.00
+30.00,+49.00,+15.00,+0.00,-2.00,+1.00,+3.00,-15.00,-32.00,-41.00,-6.00,+14.00,-13.00,-28.00,+75.00,+94.00
+22.00,+52.00,+23.00,+15.00,+26.00,+68.00,+50.00,+7.00,-33.00,-32.00,-14.00,+10.00,+18.00,+14.00,-5.00,-9.00
-68.00,-30.00,-38.00,+0.00,+8.00,+3.00,-40.00,-7.00,+45.00,+52.00,+42.00,+18.00,+22.00,+38.00,-26.00,+39.00
-37.00,-82.00,-28.00,-24.00,-78.00,-128.00,-101.00,-62.00,-13.00,+76.00,+55.00,+22.00,-16.00,-45.00,-75.00,-105.00
-52.00,-78.00,-3.00,+2.00,+35.00,+81.00,+54.00,-17.00,-16.00,+6.00,-7.00,-17.00,-39.00,-25.00,-33.00,-111.00
+73.00,+64.00,-2.00,+0.00,+28.00,+38.00,+64.00,+82.00,+28.00,-62.00,-41.00,-19.00,+0.00,+55.00,+55.00,+87.00
-22.00,+12.00,-5.00,-19.00,-14.00,+9.00,-38.00,-66.00,+15.00,+111.00,+54.00,+31.00,+24.00,-28.00,+39.00,+54.00
-101.00,-80.00,-36.00,-15.00,-36.00,-56.00,-62.00,-128.00,-22.00,-82.00,-54.00,-44.00,-58.00,+32.00,-58.00,-28.00
+89.00,+95.00,+31.00,+16.00,-15.00,-41.00,-95.00,+102.00,-17.00,-44.00,-45.00,-21.00,+25.00,-33.00,-61.00,-66.00
-23.00,-65.00,-5.00,-13.00,+3.00,-34.00,+76.00,-71.00,+11.00,+61.00,+41.00,+13.00,-17.00,-50.00,+40.00,-28.00
+40.00,+50.00,+17.00,+36.00,+63.00,+122.00,+117.00,+54.00,+7.00,-34.00,-16.00,-14.00,+14.00,-68.00,-46.00,+3.00
+29.00,+74.00,+22.00,+8.00,-13.00,-42.00,-32.00,-42.00,-3.00,+16.00,+44.00,+22.00,+27.00,+3.00,+88.00,+88.00
-33.00,+23.00,+12.00,-52.00,-27.00,-74.00,-13.00,-20.00,-34.00,+28.00,-4.00,+0.00,-48.00,+10.00,-70.00,-59.00
-16.00,-25.00,-36.00,-29.00,-6.00,+3.00,+33.00,+65.00,-19.00,+1.00,+0.00,+0.00,+36.00,+0.00,+32.00,-1.00
-33.00,-35.00,-22.00,-6.00,-26.00,-112.00,-87.00,-26.00,+2.00,-5.00,+1.00,+5.00,+1.00,-33.00,+30.00,+57.00
-18.00,-38.00,-13.00,+27.00,+29.00,+94.00,+45.00,+6.00,-7.00,+31.00,+16.00,-19.00,-25.00,+26.00,-19.00,-43.00
-6.00,-6.00,+35.00,-1.00,-22.00,-49.00,-128.00,-94.00,+39.00,+124.00,+79.00,+20.00,-23.00,-128.00,-24.00,-16.00
+53.00,+79.00,+51.00,+32.00,+29.00,+94.00,+104.00,+95.00,-44.00,-124.00,-91.00,-25.00,-17.00,+107.00,-81.00,-15.00
-73.00,-59.00,-14.00,-9.00,+2.00,+20.00,-24.00,-69.00,+94.00,+47.00,+36.00,+38.00,+27.00,+15.00,+108.00,+69.00
+42.00,+46.00,+17.00,-5.00,-6.00,-78.00,-29.00,-18.00,-33.00,+20.00,-14.00,-8.00,-23.00,-7.00,-126.00,-120.00
-6.00,-16.00,-6.00,+16.00,+9.00,+5.00,+35.00,-32.00,+5.00,-4.00,+21.00,+7.00,-25.00,+127.00,+125.00,+89.00
-24.00,+42.00,-7.00,+22.00,-3.00,-61.00,-75.00,-42.00,-41.00,-22.00,+20.00,+11.00,+80.00,-117.00,-105.00,-111.00
-13.00,+44.00,+41.00,-9.00,-45.00,-79.00,-128.00,-33.00,-48.00,-91.00,-44.00,+6.00,+37.00,+112.00,+5.00,-23.00
-46.00,-79.00,-36.00,-31.00,+36.00,+83.00,+127.00,-25.00,-6.00,+24.00,-29.00,-14.00,+5.00,-88.00,-85.00,+11.00
+6.00,-15.00,-58.00,-14.00,-17.00,+25.00,+8.00,+20.00,+63.00,-65.00,-41.00,-9.00,+1.00,+10.00,+50.00,-17.00
-2.00,-25.00,-24.00,-25.00,-14.00,-15.00,-41.00,-1.00,-17.00,+19.00,+12.00,-5.00,-41.00,-74.00,-57.00,-64.00
-41.00,+35.00,+46.00,-4.00,-29.00,-52.00,-23.00,-61.00,-13.00,+22.00,-2.00,+2.00,+16.00,-10.00,-14.00,-45.00
+57.00,+36.00,-3.00,+13.00,+4.00,-27.00,-18.00,+13.00,-13.00,-31.00,-1.00,+2.00,+18.00,+38.00,+48.00,+10.00
-82.00,-80.00,+4.00,+2.00,+0.00,-9.00,-1.00,+84.00,+36.00,+53.00,+2.00,-11.00,+12.00,-58.00,-47.00,-15.00
+23.00,-13.00,-18.00,+32.00,+16.00,-53.00,-22.00,-20.00,-55.00,-10.00,-4.00,-16.00,-52.00,+97.00,+31.00,+13.00
-15.00,+6.00,+9.00,-11.00,+9.00,+24.00,+1.00,-35.00,-39.00,-22.00,+18.00,+1.00,-49.00,-45.00,-25.00,-42.00
+73.00,+34.00,+18.00,+11.00,-1.00,+11.00,+70.00,+120.00,-4.00,-37.00,-11.00,+5.00,+31.00,-2.00,-25.00,-96.00
-29.00,-5.00,+11.00,+12.00,+5.00,-27.00,+4.00,-88.00,+32.00,+3.00,-23.00,-24.00,-25.00,-18.00,+51.00,+98.00
+12.00,+5.00,+39.00,+60.00,+18.00,-7.00,-11.00,-94.00,-14.00,+6.00,+3.00,+8.00,-2.00,-57.00,-66.00,-23.00
+35.00,-16.00,-38.00,-37.00,+14.00,+72.00,+30.00,+90.00,+28.00,+63.00,+42.00,+8.00,+65.00,+62.00,+61.00,+19.00
+0.00,-5.00,-39.00,-57.00,+7.00,+31.00,+24.00,+62.00,-16.00,-33.00,+10.00,+37.00,-5.00,-42.00,-30.00,+22.00
+16.00,+23.00,+3.00,-7.00,-28.00,-111.00,+13.00,-10.00,-8.00,+50.00,+38.00,+29.00,+44.00,+52.00,+49.00,+3.00
-64.00,-28.00,+1.00,+14.00,-1.00,+71.00,-8.00,-21.00,+14.00,-8.00,-28.00,-70.00,-96.00,-49.00,-35.00,-10.00
+29.00,+24.00,+17.00,+9.00,+31.00,+43.00,+30.00,-11.00,+20.00,+39.00,+19.00,+13.00,+42.00,+45.00,+5.00,+33.00
+9.00,-48.00,-47.00,+6.00,-2.00,+32.00,-27.00,-25.00,-5.00,-112.00,-63.00,-26.00,-20.00,-72.00,-70.00,-38.00
+41.00,+50.00,+8.00,+3.00,-4.00,-58.00,-9.00,-64.00,-34.00,+36.00,+27.00,+8.00,+40.00,-35.00,+37.00,+15.00
+33.00,+97.00,+113.00,-5.00,+7.00,+42.00,+26.00,-10.00,+32.00,+58.00,+52.00,+19.00,+2.00,+109.00,+28.00,+89.00
+7.00,+4.00,-11.00,+18.00,-61.00,-113.00,-64.00,+79.00,+28.00,-37.00,-69.00,-44.00,-66.00,-44.00,-51.00,-81.00
+17.00,+13.00,+7.00,+24.00,+77.00,+78.00,+62.00,+65.00,-17.00,+48.00,+57.00,+2.00,-37.00,-34.00,-19.00,-9.00
-8.00,+35.00,+14.00,+6.00,+12.00,-42.00,-5.00,-81.00,-11.00,-7.00,+2.00,+7.00,-68.00,-87.00,-94.00,+78.00
-34.00,-60.00,-36.00,-11.00,-6.00,-61.00,+5.00,+100.00,+29.00,+62.00,+50.00,+38.00,+44.00,+69.00,+77.00,-77.00
-19.00,-4.00,+7.00,+4.00,+15.00,+66.00,+23.00,-11.00,+25.00,+39.00,+35.00,+12.00,-34.00,+32.00,+30.00,+121.00
-62.00,+0.00,+21.00,-18.00,-33.00,+6.00,-93.00,-128.00,+7.00,+28.00,+17.00,+5.00,+53.00,+125.00,+19.00,-7.00
+68.00,-8.00,-9.00,+4.00,+17.00,+65.00,+113.00,+127.00,-37.00,-45.00,-36.00,-8.00,+56.00,-38.00,+43.00,-7.00
-8.00,-36.00,-23.00,-10.00,-4.00,+2.00,-25.00,-103.00,+21.00,-4.00,+2.00,+5.00,-43.00,-50.00,-103.00,-20.00
+18.00,-82.00,-54.00,-20.00,+6.00,+35.00,+30.00,+37.00,-12.00,+23.00,+9.00,+13.00,+101.00,+56.00,-40.00,-65.00
-5.00,+93.00,+77.00,+24.00,-13.00,-41.00,-35.00,-2.00,-25.00,-35.00,-21.00,-24.00,-50.00,+17.00,+95.00,+32.00
-7.00,-33.00,-42.00,+28.00,+36.00,+82.00,+2.00,-13.00,+4.00,+34.00,+11.00,+2.00,+27.00,-12.00,-81.00,-44.00
+32.00,+47.00,+53.00,+14.00,-15.00,-37.00,-28.00,+97.00,-7.00,+6.00,+23.00,+6.00,+8.00,-56.00,+12.00,+12.00
+4.00,-70.00,-69.00,-54.00,-15.00,+6.00,+38.00,-44.00,-35.00,-99.00,-77.00,-14.00,-8.00,+18.00,+30.00,-26.00
+6.00,+13.00,-7.00,-31.00,-22.00,-38.00,+2.00,-40.00,+14.00,+88.00,+11.00,+4.00,-44.00,-104.00,-31.00,-7.00
+88.00,+19.00,+5.00,-7.00,-3.00,+23.00,+0.00,+84.00,+26.00,-70.00,-57.00,-32.00,-44.00,+74.00,+13.00,+17.00
-38.00,-17.00,-17.00,-1.00,-39.00,-106.00,-54.00,-52.00,-13.00,-66.00,-83.00,-40.00,-44.00,-32.00,+5.00,-37.00
+16.00,+29.00,+54.00,+72.00,+92.00,+69.00,+107.00,+31.00,-9.00,+54.00,+52.00,+12.00,+5.00,-38.00,-76.00,+58.00
+0.00,-35.00,+0.00,+25.00,+10.00,+7.00,+2.00,+56.00,+9.00,-2.00,-1.00,-18.00,-80.00,-78.00,+42.00,-25.00
+9.00,+4.00,+5.00,-19.00,-36.00,-64.00,-97.00,-120.00,-36.00,-37.00,+3.00,+29.00,+69.00,+4.00,-11.00,-91.00
+15.00,+16.00,-37.00,-37.00,-10.00,-23.00,-10.00,+40.00,+34.00,-14.00,+5.00,+16.00,+10.00,+30.00,+35.00,+71.00
+3.00,-7.00,+9.00,+31.00,+43.00,+68.00,+65.00,-73.00,-55.00,-34.00,-9.00,-31.00,-12.00,-102.00,-73.00,-63.00
-14.00,-22.00,-15.00,-12.00,-16.00,-52.00,-41.00,-96.00,+58.00,+54.00,+26.00,+27.00,+51.00,+15.00,+75.00,+92.00
+21.00,+60.00,+23.00,+28.00,+20.00,+26.00,+64.00,+127.00,+7.00,-21.00,+5.00,-15.00,+32.00,-14.00,-9.00,-51.00
-4.00,+31.00,+42.00,+32.00,+23.00,+93.00,+3.00,-51.00,-15.00,+15.00,+30.00,+3.00,-17.00,-74.00,-85.00,+18.00
-36.00,-41.00,-45.00,-55.00,-40.00,-61.00,-65.00,-74.00,-35.00,+40.00,+5.00,-10.00,-80.00,+36.00,+51.00,-36.00
+36.00,+12.00,-18.00,-4.00,-13.00,+10.00,+19.00,+83.00,+4.00,-8.00,+17.00,+29.00,+34.00,-49.00,-42.00,-8.00
-80.00,-44.00,-1.00,-31.00,-14.00,+26.00,-79.00,-128.00,+33.00,-15.00,-8.00,+7.00,-1.00,-39.00,+16.00,+54.00
+50.00,+41.00,-4.00,-25.00,-12.00,-7.00,+16.00,-21.00,-33.00,-93.00,-66.00,-22.00,+37.00,+53.00,-3.00,-26.00
+12.00,+35.00,+15.00,+17.00,-40.00,-105.00,-72.00,-8.00,+21.00,+19.00,-2.00,-13.00,-47.00,-10.00,+21.00,+29.00
-99.00,-67.00,-17.00,+3.00,-27.00,-36.00,-67.00,-57.00,-1.00,+59.00,+30.00,-5.00,+24.00,+85.00,+12.00,-66.00
+75.00,-30.00,+1.00,-2.00,+22.00,-15.00,+69.00,-8.00,+6.00,+59.00,+2.00,-1.00,-84.00,-48.00,-65.00,+5.00
+52.00,+18.00,-4.00,-9.00,+7.00,+35.00,+36.00,+105.00,+5.00,-58.00,-43.00,+3.00,+51.00,+59.00,+20.00,+46.00
+3.00,-23.00,-8.00,-2.00,-8.00,-20.00,-65.00,-93.00,+18.00,-11.00,+12.00,+18.00,+19.00,-81.00,+12.00,-9.00
-21.00,+22.00,+11.00,-7.00,-26.00,-116.00,-63.00,+80.00,-41.00,-2.00,-7.00,-26.00,-70.00,+14.00,-37.00,-90.00
-49.00,-26.00,-14.00,+21.00,+53.00,+8.00,+38.00,-10.00,+19.00,-4.00,+1.00,+20.00,+127.00,+79.00,+50.00,+118.00
-103.00,-29.00,-13.00,-11.00,+24.00,+23.00,-36.00,-111.00,-31.00,+33.00,+30.00,+16.00,+20.00,+42.00,-87.00,-126.00
+33.00,+6.00,+17.00,+14.00,-12.00,-54.00,+79.00,+127.00,+60.00,+17.00,-4.00,+6.00,-1.00,+22.00,+83.00,+40.00
+27.00,+13.00,+16.00,-7.00,-27.00,-32.00,-38.00,+33.00,+16.00,-33.00,-14.00,+15.00,+29.00,-45.00,-24.00,+15.00
-34.00,-16.00,-10.00,+56.00,+41.00,+83.00,+34.00,-53.00,-7.00,+23.00,+9.00,-11.00,-38.00,+39.00,+55.00,-26.00
+23.00,-2.00,+7.00,-25.00,+5.00,-11.00,-19.00,-5.00,+1.00,+58.00,+45.00,+9.00,-48.00,-76.00,-15.00,-55.00
-23.00,+30.00,+8.00,+19.00,+4.00,-4.00,-54.00,-125.00,-73.00,-48.00,-5.00,+6.00,+43.00,+3.00,-10.00,-38.00
-25.00,-32.00,-26.00,-51.00,-22.00,+0.00,+12.00,+4.00,+72.00,-28.00,-10.00,-21.00,-35.00,+22.00,-21.00,+76.00
-45.00,+10.00,-17.00,-53.00,-31.00,-85.00,-22.00,-11.00,-51.00,-5.00,-14.00,-5.00,-13.00,-19.00,-5.00,-53.00
+53.00,-5.00,-4.00,+35.00,+2.00,+34.00,+47.00,+81.00,+33.00,+51.00,+21.00,+5.00,+2.00,+19.00,+19.00,+7.00
+15.00,+97.00,+58.00,-13.00,-25.00,-40.00,-36.00,-61.00,+13.00,+40.00,-10.00,-10.00,+24.00,-6.00,+76.00,+44.00
+63.00,+77.00,+31.00,+19.00,+18.00,-14.00,+18.00,+104.00,-34.00,-63.00,-47.00,-1.00,-13.00,-17.00,-37.00,-2.00
-23.00,-35.00,-10.00,+6.00,-15.00,-16.00,-14.00,+30.00,-20.00,-14.00,-7.00,-32.00,+0.00,+5.00,-11.00,+19.00
-11.00,-89.00,-39.00,-6.00,-1.00,-10.00,+23.00,-66.00,+4.00,+19.00,+5.00,-8.00,-53.00,-54.00,+20.00,-14.00
-37.00,+16.00,+18.00,+24.00,+23.00,+76.00,+53.00,+71.00,-16.00,+29.00,+23.00,-5.00,-73.00,-46.00,-79.00,-74.00
+45.00,-36.00,+3.00,+22.00,+17.00,-21.00,+46.00,-24.00,+5.00,+11.00,+10.00,+11.00,+34.00,+24.00,+64.00,+43.00
+23.00,+52.00,+16.00,-1.00,+23.00,+68.00,-33.00,-81.00,+24.00,-13.00,+2.00,+6.00,+20.00,+39.00,-63.00,-42.00
+10.00,+22.00,+7.00,+5.00,-13.00,-21.00,+9.00,+1.00,-7.00,+22.00,+8.00,+27.00,+20.00,-84.00,+31.00,-10.00
-33.00,-48.00,-29.00,-11.00,-9.00,+9.00,-34.00,-55.00,-14.00,-40.00,-8.00,+4.00,-28.00,+32.00,-66.00,-77.00
-80.00,-95.00,-44.00,-7.00,+25.00,+13.00,-25.00,-121.00,-5.00,-1.00,-7.00,-16.00,+33.00,-5.00,+58.00,+3.00
+31.00,+33.00,+24.00,+3.00,-35.00,-114.00,-33.00,-93.00,+23.00,+17.00,+29.00,-6.00,-39.00,-93.00,-122.00,-29.00
+59.00,+43.00,+26.00,-9.00,+17.00,+48.00,+47.00,+106.00,-69.00,-53.00,-32.00,-9.00,-6.00,+34.00,+116.00,+94.00
+58.00,-47.00,-31.00,-11.00,+10.00,-21.00,+1.00,-12.00,+11.00,-11.00,-11.00,-14.00,-49.00,-28.00,-11.00,+53.00
-21.00,+16.00,-15.00,-14.00,-22.00,-18.00,+1.00,-28.00,-24.00,+11.00,+9.00,-8.00,+35.00,+22.00,-48.00,-117.00
-13.00,-33.00,+10.00,+3.00,-31.00,-125.00,-76.00,+60.00,+27.00,+7.00,-12.00,+4.00,+8.00,+17.00,+41.00,+75.00
+23.00,+83.00,+30.00,+23.00,+31.00,+91.00,+61.00,-54.00,+30.00,+30.00,+21.00,+1.00,+0.00,+22.00,-9.00,+18.00
-2.00,+1.00,-25.00,-36.00,-14.00,-33.00,-69.00,-22.00,-1.00,-32.00,+1.00,+20.00,+25.00,-41.00,+2.00,-10.00
-65.00,-75.00,-30.00,-9.00,-37.00,-75.00,-70.00,+11.00,-21.00,+17.00,-4.00,-8.00,-22.00,+45.00,-24.00,-29.00
+48.00,+4.00,+8.00,+10.00,+21.00,+104.00,+100.00,+30.00,-5.00,+31.00,+5.00,-15.00,-26.00,+83.00,+52.00,-9.00
+1.00,+28.00,+5.00,+9.00,+35.00,+50.00,+41.00,-53.00,-27.00,-61.00,-52.00,-11.00,+26.00,-14.00,-110.00,-81.00
-10.00,-5.00,+7.00,+11.00,+11.00,+89.00,+55.00,+26.00,+20.00,+4.00,+0.00,+3.00,+29.00,+11.00,+107.00,+111.00
+24.00,+49.00,+12.00,-8.00,+6.00,-13.00,-47.00,-87.00,-2.00,-23.00,+8.00,+5.00,-34.00,-25.00,-47.00,-13.00
-31.00,-31.00,-21.00,-13.00,-26.00,-51.00,+5.00,+79.00,-14.00,+0.00,-6.00,+1.00,-14.00,-37.00,-4.00,+52.00
-29.00,-44.00,+6.00,+7.00,-6.00,-26.00,-52.00,-128.00,+17.00,+14.00,+0.00,-30.00,-63.00,+59.00,+46.00,-4.00
-2.00,-13.00,-8.00,-7.00,-14.00,-21.00,-17.00,-32.00,+6.00,+29.00,+23.00,+28.00,+54.00,+2.00,-7.00,-29.00
+30.00,+31.00,+8.00,+14.00,+51.00,+64.00,+53.00,+57.00,+17.00,+2.00,+0.00,+19.00,+36.00,-64.00,-21.00,+32.00
-9.00,+61.00,+27.00,-14.00,-16.00,-21.00,-50.00,-67.00,-61.00,-53.00,-20.00,-12.00,-17.00,+29.00,+15.00,-32.00
-11.00,-62.00,-32.00,+18.00,-8.00,-45.00,+15.00,+52.00,+9.00,+7.00,-23.00,-16.00,-24.00,-46.00,-43.00,-8.00
+43.00,+88.00,+60.00,+17.00,+16.00,+12.00,+9.00,+21.00,-5.00,-4.00,+4.00,-14.00,-23.00,-11.00,-61.00,+24.00
+27.00,+36.00,-13.00,-60.00,-22.00,+18.00,+17.00,-61.00,+65.00,+14.00,+16.00,+22.00,+36.00,+34.00,+81.00,+75.00
-51.00,-90.00,-54.00,-30.00,-19.00,+11.00,-30.00,-14.00,-17.00,+16.00,+24.00,+26.00,+14.00,-15.00,-63.00,-51.00
-15.00,-31.00,-28.00,-22.00,-39.00,-103.00,-66.00,-9.00,-18.00,+0.00,-24.00,-34.00,-10.00,-23.00,+19.00,-33.00
-49.00,+29.00,+36.00,+44.00,+2.00,-30.00,-42.00,+15.00,-18.00,+31.00,+10.00,-5.00,+11.00,-32.00,-16.00,-59.00
+37.00,+28.00,+41.00,+47.00,+30.00,+83.00,+117.00,+67.00,-24.00,-38.00,-24.00,-10.00,-76.00,+89.00,+5.00,+61.00
+29.00,+36.00,+12.00,+2.00,+48.00,+108.00,+38.00,-11.00,+17.00,-24.00,-13.00,+1.00,+21.00,-25.00,-5.00,+2.00
+11.00,-31.00,-19.00,-21.00,-38.00,-14.00,-20.00,-85.00,+36.00,+19.00,+31.00,+32.00,-24.00,+18.00,+89.00,+104.00
-23.00,-39.00,-24.00,+3.00,+30.00,-35.00,+11.00,+103.00,-2.00,+4.00,+0.00,+2.00,+59.00,-16.00,-26.00,-8.00
-14.00,-6.00,+9.00,+3.00,-11.00,-11.00,-24.00,-70.00,-31.00,+19.00,+2.00,-23.00,-40.00,-38.00,-37.00,-54.00
-14.00,-23.00,-9.00,-11.00,-7.00,-47.00,-29.00,-37.00,-18.00,-12.00,-6.00,+8.00,+5.00,-65.00,+55.00,-5.00
-33.00,-40.00,-24.00,-1.00,+10.00,+26.00,+10.00,+0.00,-24.00,-59.00,-29.00,-14.00,+15.00,+82.00,+16.00,+3.00
+19.00,+7.00,+11.00,-5.00,-10.00,-11.00,+13.00,+43.00,+22.00,+38.00,+25.00,+0.00,-41.00,-44.00,-10.00,-40.00
-4.00,+8.00,-2.00,-4.00,+9.00,+26.00,+14.00,-29.00,-23.00,-64.00,-35.00,-13.00,-24.00,-3.00,+13.00,-21.00
+29.00,+73.00,+11.00,+2.00,-15.00,-24.00,-20.00,+37.00,+30.00,+3.00,-1.00,+12.00,+42.00,+19.00,+15.00,+41.00
-26.00,-42.00,-20.00,+12.00,-25.00,-56.00,-57.00,-12.00,+25.00,+33.00,+16.00,+14.00,+17.00,-1.00,-29.00,+25.00
-51.00,-40.00,-35.00,-45.00,-25.00,-20.00,-16.00,-90.00,-8.00,-33.00,-7.00,-2.00,-2.00,+1.00,+25.00,+33.00
+32.00,+30.00,+8.00,+39.00,+16.00,-5.00,-13.00,+4.00,+23.00,+28.00,+13.00,+9.00,+7.00,+13.00,-64.00,-67.00
+19.00,+23.00,+23.00,-5.00,+6.00,+26.00,+62.00,+85.00,+7.00,-31.00,+0.00,+1.00,-4.00,-28.00,+57.00,+45.00
+11.00,+28.00,-6.00,-23.00,+1.00,+8.00,+17.00,+66.00,-7.00,+4.00,-18.00,-4.00,+12.00,+41.00,+20.00,+39.00
-40.00,-86.00,-24.00,-11.00,-22.00,+5.00,-4.00,-43.00,-5.00,-5.00,+0.00,+5.00,-1.00,+14.00,-9.00,-20.00
+19.00,-7.00,+7.00,+18.00,+0.00,-10.00,-17.00,+8.00,-31.00,-13.00,-20.00,-24.00,-41.00,-50.00,-9.00,+18.00
-14.00,-62.00,-14.00,+10.00,+6.00,-5.00,-26.00,+36.00,+17.00,+29.00,+17.00,+7.00,-4.00,+44.00,-19.00,-44.00
-15.00,+8.00,+1.00,-21.00,-11.00,-21.00,-17.00,-8.00,+6.00,+0.00,+15.00,+7.00,+37.00,-24.00,-33.00,-7.00
+0.00,+15.00,-7.00,+19.00,+40.00,+36.00,+49.00,+94.00,+6.00,-32.00,-20.00,-16.00,-33.00,+17.00,-37.00,+64.00
+2.00,+45.00,+19.00,-4.00,-3.00,+43.00,+15.00,-9.00,-11.00,+68.00,+41.00,+1.00,+6.00,-32.00,+33.00,+36.00
+12.00,-32.00,-19.00,+2.00,+2.00,-19.00,-14.00,+32.00,+2.00,-33.00,-28.00,+0.00,+5.00,-40.00,+32.00,-41.00
-17.00,+9.00,+11.00,-13.00,-28.00,+14.00,-8.00,-40.00,+0.00,-22.00,-6.00,+0.00,+17.00,+74.00,+31.00,+75.00
-1.00,-14.00,-34.00,-8.00,-2.00,-11.00,+8.00,+23.00,-6.00,-29.00,-28.00,+7.00,+7.00,+19.00,-24.00,-42.00
-9.00,-3.00,+28.00,+0.00,+4.00,-9.00,-7.00,+5.00,-9.00,+44.00,+20.00,-12.00,-21.00,-17.00,-13.00,-5.00
-16.00,-22.00,-12.00,+0.00,-6.00,-19.00,-33.00,+13.00,+7.00,-28.00,-25.00,-14.00,-23.00,-13.00,-33.00,-11.00
-1.00,+0.00,-6.00,-4.00,-2.00,-2.00,+31.00,-13.00,-31.00,+16.00,+6.00,+5.00,-2.00,-44.00,-101.00,-82.00
+39.00,+46.00,+14.00,+8.00,-1.00,-33.00,-24.00,+1.00,+59.00,+12.00,+15.00,+12.00,+16.00,-3.00,+82.00,+64.00
-15.00,+16.00,-4.00,-2.00,+2.00,+27.00,+40.00,+33.00,-31.00,-11.00,+8.00,+11.00,+31.00,+92.00,+33.00,+13.00
+20.00,+19.00,+5.00,-8.00,-11.00,+3.00,-17.00,-70.00,+6.00,+52.00,+28.00,-1.00,+0.00,-38.00,-70.00,-31.00
-1.00,+25.00,+32.00,+8.00,-9.00,-48.00,-37.00,+50.00,+3.00,-19.00,+4.00,+4.00,-9.00,-4.00,+55.00,+11.00
-1.00,-30.00,-10.00,-10.00,-17.00,+20.00,+7.00,-7.00,-2.00,-9.00,-26.00,-2.00,+1.00,+3.00,+9.00,-10.00
+28.00,-37.00,-13.00,+2.00,+40.00,+48.00,+61.00,+127.00,-30.00,-28.00,-13.00,-9.00,-37.00,-96.00,-18.00,+1.00
-21.00,+32.00,-2.00,-2.00,-1.00,+8.00,-7.00,-69.00,+36.00,+30.00,+15.00,+5.00,+42.00,+102.00,-20.00,+15.00
+0.00,-1.00,-3.00,-4.00,-10.00,+3.00,-15.00,-10.00,-5.00,+6.00,+6.00,-1.00,-8.00,-26.00,-6.00,-26.00
-26.00,-1.00,+9.00,+12.00,+19.00,-17.00,-6.00,+25.00,-15.00,+11.00,+5.00,+0.00,+17.00,+8.00,-24.00,-34.00
-23.00,-37.00,-15.00,-11.00,-41.00,-49.00,-45.00,-37.00,+9.00,-24.00,-20.00,-5.00,+0.00,-11.00,+40.00,+16.00
-18.00,-22.00,-4.00,+3.00,-3.00,+1.00,+10.00,-5.00,-20.00,+0.00,-3.00,+6.00,-15.00,-17.00,-16.00,-30.00
+27.00,+44.00,+23.00,+17.00,+47.00,+16.00,+4.00,+4.00,+9.00,-1.00,+4.00,-2.00,-3.00,-37.00,-4.00,+20.00
-25.00,-18.00,-11.00,-9.00,-21.00,-21.00,+2.00,+22.00,-8.00,-11.00,-4.00,-16.00,-23.00,+47.00,+35.00,+3.00
-3.00,-28.00,-16.00,-6.00,-3.00,-3.00,-16.00,-25.00,+2.00,-1.00,-3.00,+7.00,+36.00,+18.00,-28.00,-36.00
-26.00,-41.00,-18.00,-4.00,-11.00,-15.00,-30.00,-58.00,-36.00,+10.00,+6.00,-10.00,-35.00,-23.00,-36.00,-10.00
+19.00,+39.00,+9.00,-5.00,-4.00,+14.00,+3.00,+70.00,-3.00,-21.00,+4.00,+8.00,+18.00,+6.00,+72.00,+13.00
+50.00,+50.00,+27.00,+13.00,+0.00,+6.00,+28.00,+52.00,-13.00,+23.00,+8.00,+6.00,+2.00,-23.00,-25.00,-17.00
-23.00,-12.00,-15.00,-27.00,-2.00,-7.00,+9.00,-9.00,+28.00,-27.00,-38.00,+0.00,+18.00,+10.00,+20.00,+18.00
+13.00,-28.00,-3.00,-6.00,-2.00,+39.00,+25.00,+31.00,-7.00,-16.00,+1.00,+5.00,-3.00,-19.00,+25.00,-7.00
-12.00,-40.00,-24.00,-17.00,-35.00,-48.00,-23.00,-32.00,-12.00,+10.00,-10.00,-16.00,-20.00,+33.00,-26.00,-44.00
+9.00,+56.00,+10.00,+11.00,+6.00,+3.00,-31.00,-48.00,-11.00,-12.00,-8.00,-4.00,-7.00,-4.00,+2.00,+31.00
-5.00,+6.00,+17.00,+25.00,+17.00,+25.00,+8.00,+7.00,+15.00,+8.00,+11.00,+2.00,+24.00,-15.00,+11.00,+17.00
-29.00,-7.00,-9.00,-12.00,-10.00,-20.00,+5.00,+9.00,+0.00,+3.00,-1.00,+14.00,+18.00,+26.00,+19.00,+15.00
-18.00,-6.00,-5.00,-3.00,-11.00,-12.00,-9.00,-27.00,+3.00,+4.00,+3.00,+5.00,-27.00,-40.00,-24.00,-18.00
+30.00,-13.00,+3.00,+5.00,+37.00,+3.00,+12.00,+17.00,+11.00,+8.00,+5.00,+2.00,-2.00,+19.00,-3.00,+5.00
+8.00,+36.00,+3.00,+2.00,-23.00,-31.00,-28.00,-19.00,-12.00,+5.00,+1.00,-20.00,-2.00,+18.00,-3.00,+8.00
-25.00,-10.00,+0.00,+5.00,+32.00,+21.00,-5.00,-85.00,+18.00,-7.00,-6.00,-5.00,-23.00,-59.00,-46.00,-17.00
+49.00,+12.00,+3.00,+3.00,+10.00,+13.00,+41.00,+73.00,+3.00,-4.00,-1.00,-17.00,+9.00,+43.00,+49.00,+11.00
-10.00,-22.00,-13.00,-14.00,-20.00,+1.00,+0.00,-10.00,+1.00,+5.00,+11.00,+6.00,-6.00,-17.00,-14.00,-20.00
+2.00,+4.00,+4.00,+6.00,+2.00,-20.00,-10.00,-19.00,+25.00,-5.00,-9.00,+6.00,+11.00,+22.00,+1.00,+13.00
-36.00,-13.00,-7.00,-7.00,-19.00,-13.00,-39.00,-72.00,-27.00,-8.00,+0.00,-2.00,+4.00,+11.00,+10.00,-15.00
-13.00,-60.00,-19.00,+9.00,+19.00,+27.00,+34.00,+82.00,-19.00,+25.00,+9.00,+4.00,+1.00,-41.00,-56.00,-4.00
+54.00,+99.00,+43.00,+7.00,-5.00,+9.00,+10.00,-25.00,-21.00,-39.00,-17.00,-9.00,-5.00,+14.00,-13.00,-40.00
+24.00,-8.00,-17.00,-9.00,-18.00,+14.00,+7.00,-18.00,+18.00,-4.00,+6.00,+14.00,+14.00,+7.00,+15.00,+29.00
-28.00,+13.00,+9.00,+5.00,-6.00,-18.00,-2.00,+29.00,-7.00,+0.00,-1.00,-1.00,-9.00,+0.00,-2.00,-14.00
-41.00,-29.00,-11.00,-6.00,-7.00,-3.00,-25.00,-65.00,+13.00,-1.00,-7.00,+2.00,+2.00,-26.00,-23.00,-6.00
-17.00,-39.00,-10.00,-4.00,-19.00,-9.00,-13.00,-9.00,+4.00,+18.00,+10.00,-1.00,-47.00,-34.00,+0.00,+0.00
-24.00,-17.00,-3.00,+6.00,+44.00,+15.00,+5.00,+9.00,-6.00,+5.00,+8.00,-13.00,+28.00,+40.00,-3.00,-26.00
+21.00,-6.00,-1.00,-2.00,+6.00,+23.00,+21.00,+61.00,+13.00,+2.00,-9.00,-22.00,-30.00,-9.00,+13.00,+27.00
-9.00,+20.00,+4.00,-2.00,-1.00,-27.00,-44.00,-78.00,-11.00,-28.00,-7.00,-3.00,-5.00,-36.00,+0.00,+6.00
-7.00,-12.00,-6.00,+1.00,+2.00,-7.00,+7.00,+56.00,-5.00,-2.00,-5.00,-12.00,-8.00,+21.00,-14.00,-6.00
+21.00,+21.00,+5.00,-2.00,-16.00,+4.00,+22.00,+38.00,+7.00,+0.00,-3.00,+10.00,+15.00,+52.00,+14.00,-13.00
+21.00,-3.00,-1.00,+5.00,-3.00,+22.00,+44.00,+62.00,-12.00,+9.00,+8.00,+10.00,+12.00,-2.00,+17.00,+23.00
+17.00,+44.00,+16.00,+3.00,+22.00,+27.00,+6.00,+17.00,+15.00,-3.00,-5.00,+18.00,+22.00,-14.00,+2.00,+12.00
-9.00,+8.00,-3.00,-7.00,-23.00,-10.00,-20.00,-46.00,+1.00,+1.00,-3.00,-5.00,-1.00,-34.00,-3.00,-2.00
-7.00,-20.00,-8.00,-3.00,-11.00,-17.00,-23.00,-41.00,-9.00,-10.00,-2.00,+7.00,-30.00,-13.00,-14.00,-10.00
+11.00,+3.00,-3.00,+0.00,+25.00,+2.00,-3.00,+6.00,-3.00,-2.00,-1.00,-17.00,+1.00,+3.00,-2.00,-2.00
-33.00,-27.00,-10.00,-4.00,-5.00,-10.00,-7.00,-38.00,+1.00,+8.00,+5.00,-5.00,-11.00,+2.00,-12.00,-5.00
+12.00,+0.00,-3.00,-1.00,+8.00,+4.00,-13.00,-46.00,-33.00,-7.00,+0.00,+1.00,+18.00,-19.00,+1.00,+2.00
+23.00,+5.00,+0.00,-2.00,-12.00,-6.00,+18.00,+49.00,+8.00,-14.00,-11.00,+0.00,-6.00,+16.00,+4.00,+10.00
+27.00,+26.00,+7.00,+2.00,-13.00,+0.00,+2.00,+32.00,+7.00,+21.00,+4.00,+9.00,+2.00,+6.00,+5.00,-2.00
+20.00,+31.00,+14.00,+1.00,+0.00,+2.00,-6.00,-11.00,+10.00,-8.00,+3.00,+5.00,+4.00,-6.00,+0.00,+3.00
-56.00,-65.00,-31.00,-7.00,-5.00,-7.00,-6.00,+7.00,-22.00,+5.00,+3.00,+0.00,-5.00,-6.00,-4.00,-22.00
+0.00,+28.00,+18.00,+4.00,+3.00,+6.00,-2.00,-6.00,+3.00,+6.00,+5.00,+3.00,+3.00,-22.00,-5.00,-6.00
-1.00,-4.00,-6.00,-2.00,-23.00,-12.00,-21.00,-46.00,-4.00,+3.00,+1.00,+5.00,-9.00,-28.00,-4.00,-5.00
+19.00,+5.00,+1.00,+1.00,+26.00,+10.00,+15.00,+31.00,-3.00,-19.00,-21.00,-6.00,+8.00,+12.00,-1.00,-6.00
-4.00,-22.00,-13.00,-17.00,-27.00,-14.00,+9.00,+16.00,+1.00,-5.00,-1.00,-5.00,+12.00,+49.00,+21.00,-1.00
+23.00,+13.00,+0.00,+6.00,+29.00,+13.00,+3.00,-7.00,+0.00,+6.00,+3.00,+13.00,+4.00,-11.00,-2.00,-5.00
-22.00,+7.00,+0.00,-3.00,-9.00,-9.00,-43.00,-84.00,+3.00,-11.00,-16.00,-23.00,-20.00,+11.00,+5.00,-2.00
+14.00,+0.00,+2.00,+7.00,+11.00,+5.00,+26.00,+42.00,-2.00,+11.00,+4.00,-4.00,-11.00,-19.00,-24.00,+10.00
-15.00,-11.00,+1.00,+2.00,+26.00,+25.00,+6.00,+7.00,-6.00,-4.00,+0.00,-6.00,-2.00,-6.00,+21.00,-11.00
-11.00,-10.00,-2.00,-2.00,-11.00,+12.00,+10.00,+1.00,-2.00,+3.00,-2.00,-7.00,+8.00,+0.00,+12.00,+6.00
+16.00,+8.00,-1.00,-1.00,-19.00,-4.00,+2.00,+7.00,+15.00,-2.00,+4.00,+14.00,+3.00,+0.00,+5.00,+12.00
-17.00,-10.00,-6.00,-7.00,+5.00,-7.00,-21.00,-50.00,+5.00,+13.00,+8.00,+9.00,+13.00,+8.00,+2.00,+3.00
+5.00,-7.00,+2.00,+1.00,-1.00,-10.00,-5.00,-12.00,+5.00,-11.00,-9.00,-13.00,-19.00,-14.00,-11.00,-4.00
-20.00,-38.00,-8.00,-3.00,-6.00,-16.00,-11.00,-2.00,+9.00,+11.00,+2.00,-1.00,+1.00,-13.00,-10.00,-5.00
+32.00,+62.00,+15.00,+4.00,+9.00,+9.00,+10.00,+9.00,-25.00,-12.00,-1.00,-4.00,-3.00,+1.00,-7.00,-15.00
-19.00,-26.00,-11.00,-7.00,-18.00,-10.00,-1.00,-5.00,-18.00,-3.00,+3.00,-1.00,-9.00,+6.00,+8.00,+2.00
+17.00,+26.00,+7.00,+1.00,+2.00,+3.00,+3.00,-7.00,+9.00,-1.00,-5.00,+4.00,+12.00,+6.00,-9.00,+7.00
+1.00,+10.00,+11.00,+7.00,+2.00,+1.00,-3.00,-6.00,-2.00,+0.00,-2.00,-3.00,-6.00,-1.00,+2.00,-8.00
-13.00,-21.00,-15.00,-2.00,+4.00,-1.00,+7.00,+16.00,+17.00,+12.00,+14.00,+5.00,+3.00,+3.00,+1.00,+8.00
-11.00,-4.00,+0.00,-6.00,-9.00,-3.00,-8.00,+12.00,+7.00,+17.00,+11.00,+5.00,-2.00,+2.00,-3.00,+5.00
-24.00,+1.00,+7.00,+2.00,+0.00,-1.00,-4.00,-20.00,-7.00,-19.00,-19.00,-6.00,+4.00,+0.00,-3.00,-10.00
+11.00,-16.00,-9.00,-3.00,-1.00,-6.00,-7.00,-9.00,+1.00,+15.00,+0.00,-6.00,-8.00,-17.00,-9.00,+9.00
+5.00,-10.00,+0.00,+3.00,+1.00,+0.00,+10.00,+27.00,+1.00,-41.00,-17.00,-2.00,+0.00,+2.00,-1.00,-1.00
+7.00,-1.00,-4.00,-5.00,-6.00,-4.00,-4.00,-14.00,-7.00,+7.00,+8.00,-1.00,-2.00,+3.00,+0.00,-4.00
-13.00,-15.00,-11.00,-5.00,-6.00,-3.00,-31.00,-59.00,-9.00,-3.00,-8.00,-2.00,+1.00,-2.00,-4.00,-2.00
-17.00,+1.00,+3.00,-1.00,-6.00,-15.00,-11.00,-24.00,-6.00,-10.00,-3.00,-3.00,-10.00,-29.00,+0.00,+6.00
+21.00,-10.00,-3.00,+6.00,+19.00,+10.00,+28.00,+93.00,+6.00,+2.00,-8.00,+0.00,+3.00,+16.00,-1.00,+4.00
-30.00,-12.00,+5.00,-3.00,-9.00,-10.00,-1.00,-4.00,+14.00,+31.00,+11.00,-1.00,+0.00,+29.00,-4.00,-26.00
+28.00,+39.00,+5.00,+2.00,+0.00,-1.00,+9.00,+5.00,+2.00,-22.00,-5.00,+4.00,+5.00,+7.00,+23.00,+45.00
+5.00,+18.00,+3.00,+3.00,-7.00,-4.00,-12.00,-20.00,-22.00,-9.00,-1.00,+2.00,+3.00,+4.00,-3.00,-25.00
-4.00,+0.00,-2.00,-4.00,-10.00,-5.00,-8.00,-30.00,-9.00,-5.00,+3.00,+0.00,-2.00,-14.00,-6.00,-4.00
-7.00,-10.00,-5.00,+2.00,+20.00,-2.00,-4.00,-22.00,+3.00,-3.00,-1.00,-1.00,-28.00,-30.00,-6.00,-7.00
-10.00,-25.00,-5.00,+2.00,+5.00,-2.00,-7.00,-8.00,+17.00,+17.00,+0.00,-12.00,+6.00,+20.00,-5.00,-1.00
+5.00,+12.00,+0.00,-4.00,-1.00,-3.00,+6.00,+21.00,+6.00,+8.00,+3.00,+1.00,+0.00,-5.00,-5.00,+9.00
-20.00,-5.00,+10.00,+0.00,-2.00,+1.00,-2.00,+9.00,-15.00,-15.00,+0.00,-1.00,+5.00,+1.00,-1.00,-13.00
+12.00,+4.00,-11.00,-8.00,-6.00,+3.00,+6.00,+14.00,+1.00,-8.00,-7.00,+2.00,-2.00,-4.00,+2.00,+5.00
-41.00,-27.00,-2.00,-3.00,-8.00,-3.00,+2.00,+13.00,-11.00,-7.00,-4.00,-4.00,-7.00,-10.00,-10.00,-32.00
+0.00,+12.00,-13.00,-3.00,+8.00,+2.00,+5.00,+21.00,+9.00,+13.00,+7.00,+1.00,+2.00,+2.00,+4.00,+15.00
+3.00,+8.00,+14.00,-1.00,-3.00,-5.00,-3.00,-11.00,-11.00,+20.00,+13.00,+1.00,-5.00,+4.00,-1.00,-8.00
-6.00,+7.00,+1.00,+0.00,-10.00,-2.00,-11.00,-12.00,-5.00,-38.00,-30.00,-8.00,+2.00,+5.00,+2.00,+2.00
-14.00,-37.00,-13.00,-7.00,-28.00,-21.00,-5.00,-4.00,+1.00,+2.00,+0.00,+6.00,+7.00,-10.00,-5.00,+8.00
+24.00,+34.00,+6.00,+6.00,+31.00,+44.00,+13.00,-1.00,+9.00,+2.00,+3.00,+19.00,+11.00,+7.00,-6.00,-17.00
-4.00,+8.00,-2.00,+3.00,+12.00,-2.00,-4.00,-4.00,-5.00,-5.00,-10.00,-25.00,-22.00,+1.00,+3.00,-4.00
+6.00,+10.00,-2.00,+0.00,-7.00,+9.00,-32.00,-50.00,+15.00,+11.00,+7.00,+0.00,+3.00,-10.00,+0.00,+19.00
+2.00,-10.00,-2.00,-4.00,+15.00,-6.00,+35.00,+23.00,+3.00,+22.00,+25.00,+9.00,+9.00,-27.00,-5.00,+1.00
+10.00,-18.00,+1.00,+0.00,-18.00,-15.00,+4.00,+53.00,-1.00,-10.00,-17.00,-12.00,-3.00,+21.00,-17.00,-24.00
-3.00,-12.00,-8.00,-4.00,-1.00,-5.00,+11.00,+1.00,-1.00,-14.00,-7.00,+9.00,+12.00,+27.00,+23.00,+20.00
+8.00,+2.00,+0.00,+3.00,+6.00,+4.00,-14.00,+2.00,+10.00,-3.00,+2.00,-3.00,-1.00,-2.00,-3.00,+5.00
+19.00,+16.00,+6.00,+1.00,-5.00,+15.00,+3.00,-14.00,+1.00,+10.00,+7.00,+6.00,-3.00,-4.00,+3.00,-14.00
-28.00,-19.00,-7.00,-8.00,-7.00,-10.00,-9.00,-43.00,-23.00,-2.00,+7.00,+5.00,+1.00,-10.00,-7.00,-18.00
-16.00,-5.00,-6.00,-4.00,+3.00,+1.00,+0.00,+5.00,+4.00,-5.00,-6.00,-4.00,+0.00,-13.00,-10.00,+2.00
-11.00,-30.00,-8.00,-5.00,-16.00,-10.00,-1.00,-14.00,+5.00,+14.00,+8.00,-2.00,-1.00,+0.00,+5.00,+3.00
+14.00,+27.00,+13.00,+6.00,+9.00,+3.00,-9.00,-4.00,+16.00,-7.00,-16.00,+4.00,+0.00,+0.00,-2.00,-3.00
-27.00,-17.00,-4.00,-3.00,-2.00,-10.00,-6.00,-7.00,+12.00,-4.00,+2.00,-7.00,-6.00,-5.00,-4.00,-1.00
+18.00,+18.00,+2.00,-2.00,-9.00,-3.00,-1.00,-3.00,-24.00,-26.00,-18.00,-7.00,-4.00,+2.00,+3.00,-5.00
-19.00,-9.00,+0.00,-3.00,-31.00,-22.00,+3.00,-3.00,-11.00,+7.00,-1.00,+1.00,+1.00,+1.00,+2.00,-4.00
+21.00,+39.00,+2.00,+6.00,+44.00,+28.00,+2.00,+23.00,+5.00,+0.00,+6.00,+9.00,-6.00,+2.00,-5.00,+5.00
+36.00,+31.00,+13.00,+8.00,+11.00,+9.00,+17.00,+16.00,-23.00,-19.00,+0.00,-20.00,+0.00,+6.00,+17.00,+23.00
