+6.00,+6.00,+3.00,+1.00,+1.00,-1.00,+0.00,-2.00,+1.00,+0.00,+2.00,-2.00,+0.00,-1.00,-1.00,+1.00
+4.00,-1.00,-3.00,-1.00,-4.00,-1.00,+3.00,-3.00,+2.00,+3.00,-1.00,-1.00,-2.00,-2.00,-2.00,+0.00
-1.00,+0.00,+0.00,+3.00,+0.00,+0.00,+0.00,+0.00,-3.00,-3.00,+1.00,-1.00,+2.00,+1.00,-1.00,-1.00
-4.00,-10.00,-4.00,+0.00,-3.00,-1.00,-2.00,-2.00,+7.00,-4.00,-1.00,-3.00,-5.00,-1.00,+0.00,-2.00
-1.00,+4.00,-1.00,+0.00,+0.00,+0.00,+0.00,+4.00,-7.00,-7.00,-2.00,-2.00,-2.00,-2.00,-2.00,-3.00
-4.00,-13.00,-2.00,-3.00,-1.00,-1.00,-1.00,-5.00,-6.00,-2.00,-1.00,-1.00,+4.00,+1.00,+1.00,+1.00
-2.00,+1.00,-1.00,-1.00,-1.00,+1.00,-1.00,-2.00,+13.00,+7.00,+2.00,-2.00,-5.00,-3.00,-1.00,+1.00
-2.00,-1.00,+0.00,+0.00,+0.00,-5.00,+1.00,+0.00,-3.00,-2.00,-1.00,-1.00,+1.00,+1.00,-3.00,+1.00
+4.00,+3.00,+2.00,+0.00,-3.00,-7.00,-5.00,-3.00,-2.00,-9.00,-4.00,-1.00,+0.00,-1.00,+0.00,-3.00
-7.00,-3.00,-1.00,+0.00,+3.00,+1.00,-1.00,-6.00,-8.00,+0.00,-1.00,-6.00,-6.00,-2.00,-1.00,-2.00
-11.00,-14.00,-3.00,-2.00,+1.00,+0.00,-3.00,-5.00,+3.00,-9.00,-6.00,-3.00,+1.00,-4.00,-3.00,-4.00
+0.00,+3.00,-2.00,-3.00,-4.00,-1.00,-5.00,-10.00,+14.00,+21.00,+3.00,+5.00,+11.00,-1.00,-2.00,-1.00
-3.00,-8.00,-3.00,+1.00,+1.00,+1.00,+2.00,+2.00,-32.00,-20.00,-2.00,-2.00,-17.00,+4.00,+5.00,-1.00
+4.00,+11.00,-2.00,-1.00,-2.00,-1.00,-1.00,-2.00,-5.00,-16.00,-3.00,-8.00,-6.00,-1.00,-1.00,-7.00
-19.00,-29.00,-6.00,-5.00,-10.00,-6.00,-3.00,-4.00,-8.00,-2.00,-1.00,-11.00,-5.00,-2.00,-3.00,-2.00
+3.00,-11.00,-2.00,+1.00,+1.00,-3.00,-1.00,+0.00,+7.00,+6.00,-1.00,-7.00,-3.00,-6.00,+1.00,+6.00
+35.00,+48.00,+14.00,+4.00,-9.00,-8.00,+2.00,+13.00,+14.00,+9.00,-3.00,+0.00,+3.00,-3.00,-4.00,+1.00
+3.00,+10.00,+4.00,+5.00,+19.00,+10.00,+2.00,+0.00,-1.00,+7.00,+1.00,+6.00,+1.00,-19.00,-1.00,-5.00
+5.00,+11.00,+4.00,+2.00,+7.00,-1.00,-1.00,-2.00,+4.00,-1.00,+4.00,+10.00,+9.00,+11.00,+13.00,+5.00
-20.00,-26.00,-10.00,-5.00,-4.00,+2.00,+1.00,-7.00,-6.00,-7.00,-3.00,-9.00,-16.00,+5.00,-9.00,-7.00
-14.00,-25.00,-4.00,+0.00,+0.00,+0.00,+3.00,-1.00,-5.00,+9.00,-1.00,-3.00,+7.00,+2.00,-6.00,-6.00
+6.00,-1.00,-1.00,-3.00,-12.00,-4.00,-13.00,-6.00,+8.00,+4.00,-1.00,+4.00,+1.00,+7.00,-2.00,+3.00
-6.00,+0.00,+0.00,+0.00,-5.00,-2.00,+18.00,+8.00,-3.00,-10.00,-4.00,-3.00,-4.00,-16.00,+0.00,+5.00
+0.00,+5.00,+0.00,-1.00,+8.00,-1.00,+2.00,+7.00,-7.00,-14.00,-4.00,+6.00,+4.00,+8.00,+6.00,-1.00
-9.00,-16.00,-5.00,-3.00,+0.00,+4.00,+1.00,-3.00,-1.00,+1.00,+3.00,-2.00,-10.00,-5.00,+2.00,-2.00
+0.00,-4.00,-2.00,-3.00,-1.00,-3.00,+3.00,+2.00,+5.00,+7.00,-2.00,-4.00,+2.00,-6.00,-7.00,-2.00
+9.00,+9.00,+2.00,+0.00,-1.00,-3.00,-14.00,-1.00,-14.00,-16.00,-6.00,+0.00,+3.00,+0.00,+3.00,-10.00
+1.00,+11.00,+5.00,+3.00,-4.00,-3.00,+6.00,-2.00,+4.00,+14.00,+2.00,-1.00,-3.00,-4.00,+0.00,+2.00
-8.00,-11.00,-6.00,-3.00,+6.00,+10.00,+3.00,-7.00,+14.00,+6.00,+2.00,-1.00,-3.00,-3.00,-2.00,+5.00
-20.00,-20.00,-6.00,-2.00,-6.00,-5.00,-4.00,+4.00,-22.00,-19.00,-3.00,+1.00,+4.00,+28.00,+7.00,+4.00
+1.00,-5.00,-3.00,-4.00,-3.00,+0.00,+0.00,-7.00,+0.00,+2.00,-6.00,-3.00,-4.00,-1.00,-12.00,-2.00
+28.00,+42.00,+13.00,+4.00,-1.00,-2.00,+6.00,+23.00,-9.00,-7.00,-4.00,+12.00,+19.00,-11.00,-4.00,-12.00
+3.00,+8.00,+1.00,+1.00,+1.00,+2.00,-18.00,-5.00,+12.00,+1.00,-1.00,-11.00,-16.00,+13.00,-3.00,+11.00
+3.00,+10.00,+2.00,+0.00,-2.00,-2.00,+1.00,+6.00,+14.00,+28.00,+10.00,+3.00,-1.00,+2.00,-17.00,+0.00
+3.00,-2.00,+2.00,+0.00,-5.00,-7.00,-13.00,-5.00,-14.00,-12.00,-3.00,-6.00,-12.00,-5.00,+17.00,-3.00
+16.00,-9.00,-7.00,-5.00,-9.00,+7.00,-6.00,-23.00,-6.00,-3.00,-6.00,-8.00,-4.00,+4.00,-21.00,-9.00
+10.00,+14.00,+7.00,+4.00,+18.00,+6.00,+22.00,+15.00,-10.00,-6.00,-5.00,+7.00,+4.00,-21.00,-14.00,-11.00
-7.00,-11.00,-5.00,-2.00,-4.00,-3.00,-11.00,-12.00,-23.00,-23.00,-4.00,-2.00,+4.00,+16.00,+15.00,+4.00
+4.00,+5.00,-1.00,+3.00,+16.00,+11.00,+2.00,+14.00,+4.00,+3.00,+2.00,-5.00,+0.00,+6.00,-3.00,-6.00
-35.00,-65.00,-19.00,-6.00,-7.00,-5.00,-5.00,-17.00,-17.00,-16.00,-6.00,-1.00,-3.00,-7.00,+9.00,-3.00
+18.00,+16.00,-4.00,-5.00,-12.00,-19.00,-19.00,-4.00,+28.00,+16.00,+5.00,+4.00,+5.00,-1.00,+11.00,+9.00
+13.00,+36.00,+16.00,+3.00,+1.00,+10.00,+14.00,+40.00,+3.00,+10.00,-2.00,-3.00,-11.00,-10.00,-8.00,-7.00
-15.00,-12.00,-4.00,-2.00,-2.00,+8.00,+5.00,-5.00,-36.00,-16.00,-7.00,-1.00,+0.00,-13.00,-10.00,-13.00
+10.00,+25.00,+3.00,+1.00,+3.00,+1.00,-3.00,+6.00,+22.00,+11.00,+6.00,+1.00,-1.00,+2.00,+14.00,+14.00
-12.00,-39.00,-7.00,+0.00,+1.00,+4.00,+1.00,-4.00,-3.00,-11.00,-2.00,-2.00,+0.00,-13.00,-12.00,-1.00
-18.00,-37.00,-17.00,-5.00,-4.00,-10.00,-12.00,-23.00,+27.00,+24.00,+3.00,-1.00,+2.00,+7.00,+8.00,+8.00
+59.00,+75.00,+29.00,+9.00,+2.00,+0.00,+4.00,+14.00,-13.00,-3.00,-5.00,-2.00,+4.00,-1.00,-6.00,-14.00
-8.00,-4.00,+4.00,+1.00,+4.00,+5.00,+1.00,+9.00,-26.00,-28.00,-6.00,-2.00,-13.00,+6.00,-5.00,-9.00
-14.00,-17.00,-5.00,-4.00,-9.00,-13.00,+1.00,-3.00,+5.00,+6.00,+5.00,+10.00,+6.00,+4.00,+7.00,+9.00
-12.00,-35.00,-8.00,+0.00,+2.00,+7.00,-3.00,-15.00,-11.00,-20.00,+0.00,-12.00,-13.00,-9.00,+5.00,-2.00
-33.00,-60.00,-27.00,-11.00,-9.00,-4.00,-5.00,-12.00,+48.00,+36.00,+3.00,-3.00,-3.00,-2.00,-4.00,+8.00
+42.00,+42.00,+17.00,+6.00,-6.00,-11.00,+5.00,-3.00,-20.00,-33.00,-6.00,-14.00,-7.00,+0.00,-7.00,+4.00
-14.00,+30.00,+13.00,+5.00,+4.00,+8.00,+0.00,-2.00,-18.00,+4.00,-2.00,+13.00,-2.00,+0.00,-5.00,-11.00
-18.00,-21.00,-3.00,+2.00,+15.00,+7.00,+0.00,+4.00,+17.00,+25.00,+1.00,+1.00,+22.00,+0.00,-4.00,-33.00
-18.00,-38.00,-27.00,-13.00,-10.00,-3.00,+1.00,-15.00,-4.00,-8.00,+1.00,-4.00,-6.00,+2.00,-10.00,+0.00
-9.00,-15.00,-3.00,-1.00,+3.00,-2.00,-4.00,-1.00,+16.00,+13.00,+2.00,-3.00,-4.00,-10.00,+6.00,+16.00
-11.00,-26.00,-4.00,-6.00,-36.00,-7.00,-6.00,-14.00,-6.00,-8.00,-6.00,-10.00,-4.00,+7.00,+5.00,-1.00
+66.00,+74.00,+33.00,+18.00,+36.00,+18.00,+13.00,+12.00,-7.00,-12.00,-6.00,+4.00,+3.00,-8.00,-3.00,+3.00
-29.00,+12.00,+4.00,+2.00,+14.00,+12.00,+6.00,-11.00,+2.00,-2.00,+6.00,+8.00,+4.00,+8.00,+4.00,+4.00
-12.00,-12.00,-3.00,+1.00,+2.00,+0.00,-10.00,+6.00,-2.00,+3.00,-4.00,-2.00,+2.00,-21.00,-5.00,-13.00
-1.00,-10.00,-7.00,-4.00,+1.00,+2.00,+2.00,+9.00,-15.00,-14.00,-6.00,-5.00,+2.00,+4.00,-3.00,-5.00
-10.00,-13.00,-11.00,-6.00,-17.00,-11.00,-2.00,-8.00,+10.00,+3.00,+0.00,-1.00,-6.00,-4.00,-5.00,-2.00
+7.00,+3.00,+9.00,+3.00,-2.00,-6.00,-4.00,-2.00,-4.00,-3.00,-1.00,-1.00,-1.00,+0.00,-3.00,-3.00
-5.00,-3.00,-2.00,-2.00,-3.00,-3.00,-5.00,-9.00,-3.00,+0.00,-1.00,-1.00,-5.00,-1.00,+2.00,+4.00
-5.00,+4.00,+1.00,+1.00,+6.00,+6.00,+2.00,+9.00,+2.00,+23.00,+4.00,-3.00,+0.00,-2.00,-6.00,-9.00
-1.00,-2.00,-2.00,-1.00,-6.00,-6.00,+0.00,-19.00,-41.00,-45.00,-7.00,-1.00,-2.00,-5.00,+4.00,-3.00
-12.00,-7.00,-3.00,+0.00,-5.00,-5.00,-4.00,+9.00,+27.00,+10.00,+2.00,+2.00,+2.00,+0.00,+4.00,+38.00
-27.00,-35.00,-16.00,-7.00,-8.00,-2.00,+2.00,-2.00,+22.00,+19.00,+11.00,+4.00,+0.00,+8.00,-1.00,-2.00
+36.00,+59.00,+13.00,+5.00,+11.00,+0.00,+0.00,+0.00,+8.00,+20.00,-2.00,-4.00,+3.00,-9.00,+1.00,-3.00
+4.00,+12.00,+7.00,-2.00,-6.00,-3.00,+4.00,+22.00,-1.00,-7.00,-4.00,-7.00,-8.00,+9.00,-4.00,+1.00
+10.00,-6.00,+4.00,+4.00,+1.00,-4.00,-1.00,-10.00,-20.00,-10.00,-4.00,+1.00,-2.00,-1.00,+1.00,-4.00
-7.00,-2.00,-4.00,-2.00,-3.00,-2.00,-6.00,-6.00,-17.00,-11.00,-4.00,-1.00,-1.00,-6.00,+2.00,+1.00
-29.00,-33.00,-12.00,-4.00,+6.00,+0.00,+4.00,-5.00,+8.00,-9.00,-2.00,-1.00,+6.00,-12.00,-4.00,-14.00
+1.00,-9.00,-8.00,-2.00,-7.00,-7.00,-9.00,-13.00,+4.00,+12.00,+7.00,+4.00,-2.00,+10.00,+6.00,+7.00
-8.00,-24.00,-8.00,-3.00,-6.00,-4.00,-8.00,-1.00,-9.00,+1.00,-1.00,-1.00,-3.00,+9.00,-1.00,+1.00
+48.00,+80.00,+35.00,+11.00,+8.00,+6.00,+18.00,+20.00,+8.00,+11.00,-2.00,-5.00,-3.00,-4.00,+4.00,-2.00
+20.00,+25.00,+7.00,+4.00,+5.00,-5.00,-18.00,-2.00,-5.00,-8.00,-1.00,-3.00,+2.00,+1.00,+3.00,-8.00
+0.00,-9.00,-3.00,-3.00,-9.00,-1.00,+2.00,+1.00,-6.00,+1.00,-3.00,-1.00,-5.00,-19.00,+5.00,+13.00
-14.00,-11.00,-4.00,-2.00,+6.00,+3.00,+3.00,+25.00,+3.00,-3.00,+0.00,-1.00,-2.00,-3.00,-7.00,-21.00
-19.00,-29.00,-16.00,-8.00,+1.00,+3.00,-6.00,-31.00,+15.00,+11.00,+6.00,+4.00,+5.00,-11.00,-10.00,+7.00
+24.00,+0.00,+3.00,+3.00,+4.00,+4.00,-9.00,+12.00,-27.00,-19.00,-7.00,-3.00,-3.00,+27.00,+13.00,+2.00
-27.00,-9.00,-4.00,-2.00,-5.00,-4.00,+4.00,+0.00,+8.00,+15.00,+3.00,+3.00,+2.00,+10.00,+5.00,+4.00
-9.00,+9.00,+6.00,+1.00,-2.00,-4.00,-16.00,-13.00,-3.00,+0.00,+0.00,-1.00,+4.00,-6.00,-6.00,-4.00
+4.00,+6.00,-4.00,-2.00,+0.00,+3.00,+12.00,+6.00,-15.00,-19.00,-7.00,-1.00,-2.00,+8.00,-1.00,-5.00
+10.00,-1.00,-2.00,-2.00,-4.00,-2.00,+5.00,+1.00,+8.00,+4.00,+1.00,-5.00,-8.00,-18.00,+2.00,+0.00
+1.00,-18.00,-6.00,-1.00,-1.00,-1.00,+3.00,-11.00,+0.00,+4.00,-6.00,-5.00,-3.00,-47.00,-22.00,-4.00
+16.00,+15.00,+5.00,+1.00,-1.00,+3.00,+5.00,-10.00,+0.00,-5.00,+2.00,+5.00,+3.00,+16.00,+1.00,-9.00
-19.00,-2.00,-1.00,-3.00,-2.00,-12.00,-21.00,+3.00,-7.00,+1.00,-2.00,-1.00,-1.00,+1.00,-2.00,-4.00
-16.00,-14.00,-8.00,-5.00,-4.00,+2.00,+9.00,-8.00,+18.00,-8.00,+0.00,-3.00,-1.00,+15.00,+1.00,+21.00
-22.00,-39.00,-12.00,-4.00,-4.00,-9.00,-11.00,-1.00,+14.00,-7.00,-5.00,-2.00,+0.00,+12.00,-5.00,+4.00
-10.00,+23.00,+6.00,+0.00,+0.00,-4.00,-4.00,-7.00,+4.00,+17.00,-1.00,-3.00,-7.00,-7.00,+5.00,-3.00
+75.00,+93.00,+36.00,+12.00,+9.00,+10.00,+14.00,+37.00,-15.00,-3.00,+0.00,+0.00,+2.00,-1.00,-9.00,+6.00
-17.00,-7.00,-1.00,-1.00,+0.00,-1.00,-12.00,-7.00,+8.00,+2.00,+6.00,+3.00,+2.00,-11.00,+2.00,+11.00
-14.00,-18.00,-10.00,-4.00,-5.00,+1.00,+20.00,-14.00,-4.00,-10.00,-3.00,-2.00,-2.00,-5.00,-4.00,-4.00
+19.00,+7.00,+4.00,+1.00,+1.00,+1.00,-9.00,+21.00,-8.00,-5.00,-2.00,-1.00,-1.00,-1.00,-11.00,-6.00
-5.00,-41.00,-19.00,-6.00,-1.00,-4.00,-1.00,-18.00,+0.00,+0.00,-4.00,-3.00,-2.00,+21.00,+7.00,-10.00
+6.00,+23.00,+11.00,+3.00,+1.00,-3.00,+3.00,+19.00,-11.00,+3.00,-2.00,-1.00,-2.00,-18.00,-7.00,-8.00
-2.00,-2.00,+4.00,+1.00,-1.00,+0.00,-6.00,-6.00,-1.00,-7.00,-1.00,+0.00,-2.00,+1.00,-3.00,-5.00
-2.00,-10.00,-7.00,-4.00,-5.00,-4.00,-2.00,-11.00,-11.00,-7.00,-1.00,-2.00,-3.00,-5.00,+4.00,+21.00
-39.00,-19.00,-7.00,-1.00,-1.00,+1.00,+0.00,+0.00,+13.00,+8.00,+4.00,+1.00,+1.00,+3.00,+3.00,+4.00
-4.00,+3.00,-1.00,-2.00,-2.00,-2.00,-1.00,-3.00,+5.00,-3.00,-2.00,-2.00,+0.00,-2.00,-3.00,+3.00
+19.00,+4.00,+4.00,+2.00,+1.00,+0.00,-2.00,-3.00,-6.00,+3.00,-2.00,-2.00,+0.00,+3.00,+1.00,-9.00
-2.00,-3.00,-4.00,-3.00,-4.00,+0.00,+4.00,-9.00,+7.00,-9.00,-2.00,-2.00,+0.00,+3.00,+0.00,-2.00
-2.00,-2.00,-2.00,-1.00,+1.00,-3.00,-9.00,+4.00,+6.00,+12.00,-3.00,-6.00,-6.00,-18.00,-1.00,+3.00
-11.00,-28.00,-7.00,-3.00,-4.00,+0.00,+10.00,-3.00,-12.00,-18.00,+2.00,+4.00,+3.00,+3.00,+2.00,+4.00
+4.00,+23.00,+5.00,+2.00,+1.00,+1.00,-11.00,+5.00,-8.00,-4.00,+2.00,+4.00,+4.00,+19.00,+1.00,-7.00
+5.00,-6.00,-5.00,-2.00,-2.00,-6.00,+6.00,-1.00,+14.00,+7.00,+0.00,-1.00,-6.00,-11.00,-2.00,-4.00
+4.00,-6.00,+0.00,-2.00,-2.00,+2.00,-9.00,-5.00,-4.00,-10.00,-4.00,+0.00,-1.00,-6.00,+0.00,+6.00
+0.00,+1.00,+3.00,+2.00,+2.00,+2.00,+22.00,+7.00,-4.00,+11.00,-1.00,-4.00,-4.00,+4.00,-5.00,-14.00
+0.00,+3.00,-6.00,-4.00,-3.00,-3.00,-6.00,-7.00,-18.00,-10.00,-1.00,+0.00,-3.00,-9.00,+1.00,-6.00
-6.00,-13.00,+2.00,+2.00,+2.00,+4.00,+6.00,+10.00,+41.00,+16.00,+6.00,+5.00,+3.00,-4.00,+5.00,+16.00
-24.00,-35.00,-12.00,-4.00,-4.00,-4.00,-2.00,-5.00,-2.00,+1.00,+2.00,+0.00,-3.00,-25.00,-23.00,-7.00
-4.00,-2.00,-9.00,-5.00,-6.00,-5.00,-1.00,-7.00,-4.00,-5.00,-2.00,+1.00,+5.00,+17.00,+22.00,+0.00
+3.00,+7.00,+3.00,-2.00,-7.00,-9.00,-17.00,+0.00,-2.00,+2.00,-2.00,-3.00,-4.00,-4.00,+1.00,+4.00
+55.00,+17.00,+7.00,+3.00,+4.00,+4.00,+10.00,-22.00,-18.00,-10.00,-6.00,-4.00,-5.00,-14.00,-11.00,-20.00
-15.00,-12.00,-5.00,-1.00,+0.00,+4.00,+7.00,+25.00,+14.00,+1.00,+0.00,+2.00,+6.00,+22.00,+26.00,+11.00
-8.00,-8.00,-2.00,-3.00,-3.00,-2.00,-10.00,+3.00,-11.00,+0.00,+1.00,-2.00,-4.00,-14.00,-23.00,-4.00
-16.00,-6.00,-7.00,-4.00,-7.00,-4.00,-2.00,-5.00,+15.00,+6.00,+3.00,+3.00,+9.00,+2.00,-2.00,-1.00
-18.00,-15.00,-7.00,-4.00,-6.00,-16.00,-29.00,-36.00,-1.00,+8.00,+2.00,+4.00,+5.00,+10.00,+3.00,+9.00
+7.00,+7.00,+6.00,+2.00,+3.00,-2.00,-5.00,-3.00,-11.00,-8.00,-3.00,-1.00,-11.00,-23.00,+4.00,-7.00
+9.00,+0.00,-2.00,-1.00,+1.00,+2.00,+19.00,+9.00,+3.00,-3.00,-5.00,-10.00,-12.00,-5.00,-10.00,-8.00
-15.00,-39.00,-9.00,-1.00,-2.00,+4.00,+12.00,+24.00,+15.00,+3.00,-4.00,-6.00,-5.00,-22.00,+0.00,+3.00
+28.00,+59.00,+16.00,+4.00,-4.00,+5.00,+24.00,+33.00,-16.00,-10.00,-3.00,+0.00,+15.00,+48.00,+8.00,+6.00
-6.00,-3.00,-1.00,+1.00,+0.00,-2.00,-8.00,-8.00,-3.00,+0.00,+4.00,+1.00,+6.00,+12.00,-2.00,-19.00
-17.00,-8.00,-7.00,-3.00,+5.00,-9.00,-19.00,-25.00,-15.00,-12.00,-8.00,-1.00,-1.00,-3.00,+1.00,+13.00
-9.00,-13.00,-3.00,-4.00,+0.00,+0.00,+1.00,-16.00,+30.00,+12.00,+7.00,+11.00,+6.00,-11.00,+5.00,+6.00
+15.00,+5.00,+8.00,+5.00,+5.00,-9.00,-5.00,+0.00,+9.00,+15.00,+4.00,+0.00,-13.00,-15.00,-3.00,+0.00
-86.00,-23.00,-10.00,-11.00,-13.00,-9.00,-7.00,+8.00,+0.00,-1.00,-5.00,-24.00,-25.00,-4.00,-7.00,-4.00
+10.00,+13.00,+1.00,+0.00,-14.00,-13.00,-9.00,+0.00,+2.00,-3.00,-3.00,-5.00,-7.00,+1.00,-2.00,-11.00
+15.00,+19.00,+6.00,-1.00,-12.00,+0.00,-6.00,+9.00,-17.00,-14.00,-8.00,+7.00,+11.00,-39.00,-9.00,-3.00
-13.00,-11.00,-6.00,+2.00,+20.00,+26.00,+13.00,+19.00,-9.00,-1.00,+7.00,+2.00,-3.00,+46.00,+4.00,+1.00
+18.00,+2.00,-2.00,+2.00,+16.00,+10.00,+4.00,-11.00,-6.00,-7.00,-4.00,-5.00,-4.00,-9.00,+10.00,+1.00
-14.00,-39.00,-14.00,-6.00,-8.00,-9.00,-14.00,-18.00,+9.00,+10.00,+5.00,+7.00,+24.00,-2.00,-10.00,-9.00
+3.00,+33.00,+10.00,-1.00,-22.00,-1.00,+4.00,+11.00,-5.00,-1.00,-3.00,-4.00,-32.00,-16.00,-2.00,+1.00
-4.00,+8.00,+1.00,+0.00,+10.00,+12.00,+0.00,-2.00,-7.00,-4.00,-6.00,+4.00,+11.00,-54.00,-12.00,-10.00
+20.00,-1.00,+2.00,+2.00,-7.00,-38.00,-11.00,-5.00,-4.00,-10.00,+7.00,+20.00,+51.00,+103.00,+15.00,+9.00
-7.00,-4.00,+0.00,+2.00,+21.00,+25.00,+8.00,+4.00,+3.00,+12.00,-4.00,-16.00,-23.00,+24.00,+5.00,+2.00
-3.00,-8.00,-8.00,-2.00,+3.00,-12.00,-28.00,-24.00,-1.00,-2.00,+1.00,+12.00,+7.00,+17.00,+4.00,+17.00
-14.00,-19.00,-8.00,-10.00,-36.00,+0.00,+3.00,+1.00,+1.00,+2.00,+4.00,+22.00,+56.00,-35.00,-6.00,-12.00
+18.00,+17.00,+0.00,+3.00,+48.00,+17.00,-2.00,-8.00,-5.00,+2.00,+0.00,-23.00,-65.00,-40.00,-5.00,-5.00
+18.00,+15.00,+5.00,-1.00,-12.00,-10.00,-9.00,+11.00,+15.00,-5.00,-4.00,-5.00,+10.00,+21.00,+1.00,+9.00
-46.00,+27.00,+14.00,+1.00,-42.00,-34.00,-11.00,+20.00,-23.00,-26.00,-14.00,-8.00,-8.00,+14.00,+4.00,+5.00
-12.00,-19.00,-11.00,-2.00,+22.00,+34.00,+26.00,+9.00,-14.00,+8.00,+11.00,+40.00,+62.00,-15.00,-12.00,-18.00
+1.00,-23.00,-13.00,+3.00,+30.00,+38.00,+9.00,+14.00,+20.00,+25.00,+0.00,-30.00,-31.00,-14.00,-6.00,+17.00
+12.00,+4.00,+4.00,-2.00,+4.00,-1.00,+2.00,-20.00,-12.00,-3.00,+3.00,-11.00,-20.00,+12.00,-1.00,-6.00
-39.00,-2.00,+2.00,-8.00,-51.00,-28.00,-32.00,+13.00,-7.00,-7.00,-7.00,-30.00,-42.00,-2.00,-1.00,+3.00
+10.00,+12.00,+5.00,+7.00,+33.00,+15.00,-7.00,-2.00,+32.00,+5.00,-2.00,+3.00,-12.00,-30.00,+3.00,+7.00
-10.00,-4.00,+0.00,+0.00,-14.00,-5.00,-1.00,-5.00,-28.00,-21.00,-1.00,+26.00,+39.00,+15.00,-5.00,-16.00
-16.00,-29.00,-10.00,+5.00,+51.00,+12.00,+2.00,-11.00,-9.00,-2.00,+0.00,+9.00,+38.00,+14.00,+5.00,-2.00
+45.00,+15.00,-2.00,+2.00,+18.00,+11.00,+7.00,-1.00,-3.00,+2.00,-1.00,+2.00,-20.00,+5.00,-8.00,-14.00
-1.00,-11.00,-2.00,-4.00,-36.00,-34.00,-9.00,+15.00,-15.00,-10.00,+0.00,-27.00,-13.00,-16.00,-6.00,-4.00
+15.00,+24.00,+5.00,-3.00,-39.00,-2.00,+8.00,+1.00,+9.00,+17.00,+24.00,+14.00,+18.00,-2.00,-7.00,-14.00
+10.00,+15.00,+4.00,+1.00,+1.00,-27.00,+6.00,+11.00,+8.00,-21.00,-53.00,+14.00,+20.00,+4.00,-11.00,-20.00
+13.00,+3.00,-2.00,+0.00,+24.00,-1.00,+21.00,-1.00,-21.00,-4.00,-11.00,-24.00,-40.00,-14.00,+10.00,-11.00
-19.00,-22.00,-18.00,-1.00,+19.00,+20.00,-5.00,-7.00,-10.00,-10.00,-9.00,-10.00,-14.00,+31.00,+0.00,-10.00
-28.00,-24.00,-10.00,-7.00,-16.00,-10.00,-7.00,-11.00,+13.00,+11.00,-4.00,-9.00,-29.00,-33.00,-7.00,+8.00
+22.00,+16.00,+22.00,-1.00,-51.00,+9.00,+4.00,+24.00,+6.00,+19.00,+20.00,-6.00,-20.00,-13.00,-7.00,-3.00
+19.00,+37.00,+15.00,+10.00,+40.00,+37.00,+14.00,+6.00,+17.00,+19.00,+10.00,+15.00,+51.00,+3.00,-5.00,-1.00
-11.00,+5.00,+7.00,+9.00,+35.00,-25.00,+0.00,-11.00,-21.00,-23.00,-11.00,-9.00,-22.00,-5.00,+1.00,-3.00
+2.00,+0.00,-3.00,+2.00,-3.00,+29.00,+3.00,+13.00,-7.00,-17.00,-3.00,+15.00,+24.00,+29.00,+5.00,-2.00
-4.00,-2.00,-9.00,-5.00,-23.00,-3.00,-5.00,-20.00,-7.00,-4.00,+10.00,+1.00,-7.00,-20.00,+1.00,-7.00
+6.00,-28.00,-9.00,-8.00,-15.00,-3.00,-7.00,-16.00,+5.00,+2.00,-6.00,-25.00,-24.00,+9.00,-4.00,-1.00
+4.00,+26.00,+1.00,-11.00,-49.00,-24.00,-21.00,-7.00,+8.00,+12.00,+4.00,-14.00,-28.00,+3.00,+1.00,+11.00
+15.00,-3.00,+2.00,+5.00,+72.00,-5.00,+25.00,-7.00,+3.00,+4.00,+2.00,+39.00,+43.00,+5.00,+3.00,+7.00
-8.00,+10.00,+5.00,+6.00,+15.00,-26.00,-11.00,+4.00,-41.00,-37.00,-14.00,-34.00,-56.00,-30.00,-6.00,-33.00
+14.00,-11.00,-2.00,+6.00,+43.00,+49.00,+21.00,-2.00,+31.00,+31.00,+22.00,+48.00,+6.00,+17.00,+7.00,+6.00
-15.00,-13.00,-7.00,-9.00,-50.00,-2.00,-23.00,-23.00,+1.00,-7.00,-11.00,-10.00,+63.00,+42.00,+17.00,+8.00
+42.00,-15.00,-3.00,+2.00,-5.00,-6.00,+9.00,+4.00,-10.00,+7.00,-16.00,-48.00,-89.00,-37.00,-12.00,+1.00
-43.00,+3.00,-5.00,-21.00,-94.00,-70.00,-13.00,+13.00,+8.00,+13.00,+8.00,-30.00,-40.00,-24.00,-1.00,+7.00
-1.00,+8.00,+6.00,+11.00,+63.00,+22.00,+6.00,+9.00,-28.00,-44.00,+9.00,+13.00,+27.00,+1.00,-6.00,-2.00
+6.00,-5.00,+7.00,+15.00,+62.00,+25.00,+16.00,+14.00,-4.00,-2.00,-18.00,+31.00,+47.00,+1.00,-4.00,-8.00
-9.00,-12.00,-5.00,-4.00,-25.00,-50.00,-13.00,-41.00,-14.00,-16.00,-10.00,-42.00,-62.00,-24.00,-5.00,-14.00
+38.00,+41.00,+1.00,+7.00,+43.00,+43.00,+8.00,-10.00,+0.00,+5.00,+0.00,-3.00,+0.00,-11.00,-2.00,-6.00
+3.00,-9.00,-3.00,-10.00,-65.00,-61.00,-9.00,-6.00,+19.00,+17.00,+3.00,+19.00,+59.00,+8.00,+0.00,+12.00
+3.00,+20.00,+14.00,-11.00,-99.00,-42.00,-13.00,+24.00,-5.00,+2.00,+11.00,+1.00,-20.00,+11.00,-2.00,+0.00
-8.00,+0.00,+6.00,+12.00,+80.00,+61.00,+15.00,+5.00,+19.00,+5.00,-1.00,+11.00,+23.00,-6.00,+2.00,+9.00
-20.00,-35.00,-15.00,+2.00,+23.00,+0.00,-5.00,-10.00,+6.00,-3.00,+2.00,+52.00,+76.00,+67.00,+9.00,+8.00
-17.00,-23.00,-18.00,-20.00,-98.00,-55.00,-12.00,-9.00,-16.00,-14.00,-17.00,-89.00,-87.00,-30.00,-13.00,-19.00
+23.00,+13.00,+8.00,+8.00,+64.00,+22.00,+11.00,-5.00,+0.00,-8.00,+4.00,+5.00,-14.00,+2.00,+11.00,+12.00
-20.00,-3.00,-7.00,-14.00,-61.00,-8.00,-21.00,-22.00,-6.00,+7.00,+6.00,+56.00,+92.00,+14.00,+0.00,-13.00
-5.00,+5.00,+9.00,+12.00,+85.00,+111.00,+19.00,+30.00,+0.00,-4.00,-7.00,-50.00,-74.00,-53.00,-11.00,+8.00
+52.00,+16.00,+2.00,+5.00,+48.00,+35.00,+17.00,+12.00,-14.00,-7.00,+5.00,+50.00,+43.00,+51.00,+12.00,+11.00
-22.00,-25.00,-10.00,-3.00,-13.00,-36.00,+1.00,+5.00,+5.00,+0.00,-3.00,-51.00,-124.00,-11.00,-6.00,+4.00
-18.00,+14.00,+8.00,-4.00,-71.00,-21.00,-2.00,+10.00,+7.00,+11.00,+1.00,-12.00,+25.00,+15.00,-5.00,-14.00
-7.00,-11.00,+0.00,-5.00,-2.00,+9.00,-19.00,-6.00,+17.00,+4.00,+7.00,+14.00,+34.00,-7.00,+4.00,+20.00
+4.00,-14.00,-5.00,+1.00,-4.00,-18.00,+5.00,-9.00,-9.00,+9.00,+7.00,+25.00,+25.00,+9.00,+4.00,+2.00
+2.00,+1.00,-8.00,-3.00,+30.00,+61.00,+2.00,-2.00,-13.00,-8.00,-6.00,-22.00,-6.00,-16.00,-8.00,-6.00
-26.00,+0.00,-2.00,-2.00,+14.00,+4.00,-5.00,+10.00,+14.00,+2.00,+12.00,+77.00,+107.00,+41.00,+18.00,+19.00
+13.00,-1.00,-7.00,-11.00,-106.00,-60.00,-6.00,-11.00,-8.00,+0.00,+0.00,-35.00,-72.00,-36.00,-8.00,-9.00
-20.00,-8.00,-3.00,+2.00,+23.00,+21.00,+2.00,-2.00,+5.00,+4.00,-4.00,-27.00,-5.00,-14.00,+3.00,+3.00
-4.00,-12.00,-8.00,-17.00,-77.00,-61.00,-19.00,-8.00,+7.00,+6.00,+5.00,+24.00,+31.00,+15.00,+2.00,-7.00
+13.00,+25.00,+15.00,+18.00,+91.00,+47.00,+7.00,+6.00,+3.00,+5.00,-5.00,-31.00,-27.00,-19.00,-9.00,+11.00
+7.00,-21.00,-11.00,-5.00,-29.00,+8.00,+6.00,-13.00,-7.00,-1.00,+3.00,+36.00,+54.00,+23.00,+1.00,-21.00
-20.00,-8.00,-7.00,+3.00,+73.00,+48.00,+2.00,+2.00,+19.00,+5.00,+1.00,-2.00,-9.00,+0.00,+2.00,+16.00
-10.00,-1.00,+3.00,+10.00,+30.00,+3.00,-3.00,-33.00,-15.00,+0.00,-3.00,-13.00,-38.00,+0.00,-3.00,-3.00
+16.00,-4.00,-9.00,-16.00,-77.00,-36.00,-4.00,-4.00,+5.00,-8.00,+1.00,-10.00,-35.00,+2.00,-2.00,-5.00
-38.00,-20.00,-11.00,-5.00,-8.00,+29.00,-2.00,+14.00,+1.00,+4.00,+5.00,+18.00,-19.00,+3.00,+5.00,+12.00
+11.00,+5.00,+4.00,+1.00,-55.00,-22.00,+4.00,+1.00,+1.00,+6.00,-6.00,-20.00,+34.00,+1.00,-5.00,-8.00
+11.00,+16.00,+4.00,-2.00,+30.00,+7.00,-11.00,-3.00,+1.00,+4.00,+2.00,+15.00,+31.00,+12.00,-3.00,-12.00
-43.00,-20.00,-11.00,-7.00,-14.00,-4.00,-18.00,-17.00,+9.00,-7.00,-5.00,-18.00,-29.00,-14.00,-3.00,+9.00
-12.00,+15.00,+6.00,+1.00,+18.00,+18.00,-3.00,+2.00,+1.00,+3.00,-1.00,-40.00,-23.00,-4.00,-4.00,+11.00
-12.00,-14.00,-8.00,-16.00,-57.00,-34.00,-8.00,-5.00,+9.00,+3.00,+1.00,+20.00,+45.00,+18.00,-2.00,+0.00
-24.00,-29.00,-15.00,-5.00,+17.00,+50.00,+4.00,+3.00,-17.00,-8.00,-5.00,+6.00,-2.00,-14.00,+10.00,-7.00
+32.00,+21.00,+12.00,+0.00,-61.00,+2.00,+8.00,+17.00,-2.00,-15.00,-16.00,-52.00,-51.00,-7.00,-16.00,+0.00
-7.00,-12.00,-8.00,-3.00,-1.00,+18.00,-4.00,-12.00,-4.00,-6.00,-2.00,+17.00,+32.00,+9.00,+1.00,-5.00
-3.00,-5.00,-1.00,+4.00,+57.00,+13.00,-14.00,-12.00,+14.00,+9.00,+13.00,+34.00,+41.00,+5.00,+1.00,+3.00
+17.00,+11.00,+10.00,+2.00,-31.00,-60.00,+3.00,+9.00,+7.00,-1.00,-9.00,-43.00,-52.00,-34.00,-26.00,-5.00
+12.00,+14.00,+2.00,-1.00,+22.00,-15.00,-4.00,-1.00,-30.00,-8.00,-9.00,+0.00,-30.00,+9.00,+19.00,-8.00
+9.00,+7.00,+2.00,-2.00,-34.00,-33.00,-1.00,-5.00,+14.00,-10.00,+3.00,+32.00,+54.00,+7.00,+4.00,+10.00
+7.00,+6.00,+5.00,+2.00,+2.00,+40.00,+8.00,+1.00,-10.00,-6.00,-20.00,-82.00,-104.00,-34.00,-18.00,-20.00
-17.00,-61.00,-17.00,-10.00,-89.00,-78.00,-20.00,-47.00,+18.00,+10.00,+23.00,+37.00,+28.00,+8.00,+14.00,+21.00
+5.00,+47.00,+0.00,-3.00,+43.00,+32.00,+0.00,+30.00,+2.00,+7.00,+3.00,+8.00,+50.00,-1.00,+7.00,+1.00
+13.00,+18.00,+16.00,+3.00,+2.00,-29.00,+2.00,+17.00,-6.00,+5.00,+7.00,+29.00,+43.00,-5.00,-11.00,+2.00
+1.00,+12.00,+1.00,+1.00,-8.00,-61.00,+2.00,+9.00,-10.00,-10.00,-9.00,-27.00,-59.00,+13.00,-9.00,-13.00
-2.00,+1.00,+0.00,+6.00,+32.00,+49.00,+5.00,+8.00,+10.00,-1.00,+0.00,+14.00,+65.00,+38.00,+7.00,+8.00
-16.00,-40.00,-10.00,-12.00,-87.00,-19.00,-26.00,-23.00,-15.00,-12.00,-10.00,-24.00,-69.00,-46.00,-19.00,-31.00
-2.00,-6.00,+0.00,+12.00,+117.00,+64.00,+3.00,-8.00,-3.00,+6.00,+0.00,+5.00,+64.00,+34.00,+18.00,+2.00
+2.00,+1.00,-3.00,-12.00,-86.00,-47.00,-16.00,-11.00,-3.00,-11.00,+1.00,+27.00,+37.00,+9.00,+2.00,+4.00
+13.00,+4.00,+0.00,+10.00,+121.00,+29.00,+15.00,+22.00,-12.00,-3.00,-3.00,+3.00,-20.00,-17.00,-2.00,-3.00
+29.00,-9.00,+1.00,+4.00,+27.00,+3.00,+4.00,+15.00,+8.00,+7.00,+5.00,+24.00,+22.00,+5.00,-13.00,+10.00
-35.00,+4.00,-10.00,-13.00,-75.00,-66.00,-27.00,-13.00,-14.00,-13.00,-16.00,-38.00,-100.00,-51.00,+25.00,+0.00
+4.00,+4.00,+15.00,+19.00,+38.00,+55.00,+18.00,-2.00,-7.00,-1.00,+2.00,+7.00,+18.00,-6.00,+8.00,-19.00
+6.00,+11.00,-2.00,-3.00,-19.00,-18.00,-4.00,-1.00,+0.00,-8.00,-11.00,-20.00,-49.00,-33.00,-17.00,-4.00
+3.00,+4.00,+6.00,+6.00,+6.00,-29.00,-1.00,+6.00,-10.00,-8.00,+3.00,+31.00,+45.00,+16.00,-21.00,-1.00
+12.00,-6.00,-6.00,-5.00,-26.00,-23.00,+0.00,+4.00,+19.00,+21.00,+15.00,-7.00,+14.00,+47.00,+12.00,+15.00
+12.00,+10.00,+2.00,+8.00,+81.00,+15.00,+33.00,+13.00,-7.00,+0.00,+1.00,+25.00,+20.00,-7.00,+20.00,+1.00
-7.00,+2.00,+0.00,-7.00,-71.00,+4.00,-10.00,-4.00,-10.00,-19.00,-15.00,-13.00,+18.00,-1.00,-24.00,-13.00
-8.00,-2.00,+1.00,-5.00,-18.00,+3.00,-24.00,-21.00,-22.00,-13.00,-10.00,-43.00,-13.00,+6.00,+4.00,-16.00
-10.00,-16.00,-7.00,+0.00,+39.00,-5.00,+23.00,+4.00,+20.00,+11.00,+3.00,-19.00,-32.00,-19.00,-48.00,-3.00
+0.00,+8.00,+3.00,-1.00,+1.00,+12.00,-19.00,+1.00,+4.00,+8.00,+10.00,+42.00,+61.00,+33.00,+7.00,+7.00
-5.00,-13.00,-8.00,-12.00,-117.00,-68.00,-15.00,+1.00,+1.00,-2.00,-3.00,-29.00,+5.00,-24.00,-7.00,+12.00
+8.00,+27.00,+4.00,+7.00,+72.00,+44.00,+23.00,+12.00,-12.00,-6.00,+4.00,+37.00,+50.00,+24.00,+17.00,-3.00
+2.00,+0.00,+4.00,+4.00,-20.00,+2.00,+4.00,-8.00,-24.00,-20.00,-16.00,-7.00,-44.00,-51.00,+0.00,-25.00
-4.00,-3.00,-2.00,-4.00,-81.00,-39.00,-6.00,+2.00,+3.00,+2.00,-6.00,-39.00,-22.00,-11.00,-15.00,+2.00
+1.00,+5.00,+1.00,+0.00,+41.00,+14.00,+19.00,+16.00,+9.00,+3.00,+3.00,+28.00,-6.00,-83.00,+45.00,+9.00
-10.00,-16.00,-1.00,+5.00,+79.00,+42.00,+4.00,-9.00,+10.00,+12.00,+4.00,+41.00,+54.00,+90.00,-63.00,-2.00
+18.00,+11.00,+6.00,+0.00,-31.00,+22.00,-14.00,+9.00,-13.00,-13.00,-8.00,-32.00,-74.00,-13.00,+10.00,-12.00
-9.00,-1.00,-3.00,+7.00,+59.00,+37.00,+30.00,-7.00,-14.00,-9.00,-12.00,-56.00,-74.00,+1.00,-1.00,-14.00
-1.00,-4.00,+0.00,-1.00,-105.00,-48.00,-36.00,+5.00,+4.00,+9.00,+4.00,+12.00,-28.00,-3.00,-28.00,+20.00
-7.00,-28.00,-7.00,+6.00,+37.00,-27.00,+16.00,+6.00,+9.00,+13.00,+15.00,+77.00,+76.00,+14.00,+47.00,+13.00
+22.00,+24.00,+13.00,+12.00,+14.00,+77.00,-4.00,+5.00,-4.00,-3.00,-6.00,-1.00,+12.00,-7.00,-33.00,-16.00
+13.00,+5.00,+0.00,-7.00,+4.00,-33.00,+29.00,-8.00,-2.00,-4.00,+4.00,+38.00,+56.00,+20.00,+46.00,+6.00
-3.00,+15.00,+4.00,-2.00,-27.00,-35.00,+14.00,+10.00,+19.00,+5.00,+2.00,-13.00,+39.00,+56.00,-7.00,+9.00
+20.00,-7.00,+2.00,+25.00,+87.00,+26.00,+34.00,+14.00,-11.00,-13.00,-5.00,+8.00,+3.00,-47.00,+13.00,-26.00
-11.00,-19.00,-6.00,-8.00,-67.00,+7.00,-14.00,-18.00,+6.00,+14.00,+10.00,+44.00,+43.00,+93.00,+1.00,+3.00
+36.00,-6.00,-9.00,+4.00,+65.00,+35.00,+34.00,+13.00,+3.00,+2.00,-1.00,-37.00,-12.00,+4.00,-32.00,+3.00
-27.00,-6.00,-3.00,+0.00,-17.00,+10.00,-35.00,-16.00,-10.00,-5.00,+0.00,+6.00,+6.00,-71.00,+72.00,+14.00
+16.00,+41.00,+19.00,+0.00,-20.00,-108.00,-32.00,+9.00,+14.00,+6.00,-2.00,-26.00,-47.00,+20.00,-11.00,+21.00
-8.00,-7.00,+0.00,+5.00,+99.00,-23.00,-4.00,+1.00,-4.00,-5.00,+4.00,+35.00,+84.00,+20.00,-12.00,+1.00
-10.00,-12.00,-5.00,+1.00,+36.00,+106.00,+25.00,-18.00,-4.00,-9.00,-16.00,-52.00,-111.00,-76.00,-11.00,-10.00
+15.00,+6.00,-1.00,+4.00,+69.00,+34.00,-12.00,+14.00,+1.00,+1.00,+1.00,+20.00,-70.00,+40.00,-26.00,-18.00
-23.00,-16.00,-13.00,-13.00,-96.00,-47.00,+15.00,-13.00,-4.00,-1.00,-6.00,-37.00,+22.00,-79.00,-2.00,-4.00
+18.00,+7.00,+7.00,+13.00,+14.00,-33.00,+23.00,+10.00,-5.00,-1.00,-1.00,-4.00,-26.00,-52.00,-16.00,-5.00
-18.00,-5.00,-1.00,-1.00,+16.00,-89.00,-10.00,+17.00,-1.00,-4.00,+4.00,+58.00,+94.00,+55.00,+24.00,+14.00
+2.00,+4.00,-1.00,-7.00,-38.00,-37.00,-24.00,-10.00,-16.00,-11.00,-10.00,-35.00,-24.00,+9.00,+14.00,+0.00
-7.00,-1.00,+4.00,-6.00,-47.00,-32.00,-31.00,-4.00,-22.00,-15.00,-12.00,-63.00,-107.00,+0.00,+0.00,-36.00
+2.00,-5.00,-6.00,+5.00,+91.00,+1.00,+25.00,+10.00,+16.00,+13.00,+9.00,+28.00,-36.00,-21.00,+5.00,+18.00
-34.00,-26.00,-9.00,-15.00,-35.00,+62.00,-46.00,-31.00,+10.00,+8.00,+10.00,+18.00,+47.00,-1.00,-4.00,+21.00
+5.00,-5.00,-2.00,+10.00,+120.00,+65.00,+76.00,+9.00,-4.00,+3.00,+3.00,+28.00,+80.00,-1.00,-5.00,-23.00
+25.00,+14.00,+3.00,+0.00,+14.00,+55.00,+30.00,+7.00,-20.00,-9.00,+0.00,+85.00,+83.00,+7.00,+13.00,-20.00
+25.00,+56.00,+6.00,-19.00,-114.00,-8.00,+12.00,-2.00,-6.00,-15.00,-24.00,-114.00,-58.00,+21.00,-54.00,+9.00
-20.00,-8.00,-12.00,-9.00,-9.00,-85.00,-37.00,-4.00,+21.00,+7.00,+9.00,+36.00,+6.00,-11.00,+12.00,+9.00
+7.00,+12.00,+14.00,+14.00,+70.00,+58.00,-78.00,-11.00,-4.00,-2.00,-9.00,-62.00,-68.00,+37.00,-21.00,-15.00
-8.00,-27.00,-4.00,-7.00,+34.00,+52.00,-24.00,-8.00,+10.00,+10.00,+4.00,+6.00,+34.00,+38.00,-26.00,+10.00
-34.00,-49.00,-33.00,-18.00,+18.00,+4.00,-8.00,-24.00,+16.00,+15.00,+23.00,+19.00,+57.00,+28.00,+48.00,+27.00
+4.00,+24.00,+17.00,+14.00,-22.00,+29.00,+56.00,+22.00,-10.00,-5.00,-2.00,+56.00,+14.00,-32.00,-17.00,-10.00
+4.00,-1.00,-1.00,+3.00,-29.00,+20.00,+6.00,+15.00,-9.00,-7.00,-9.00,-78.00,-47.00,+45.00,+52.00,-2.00
-12.00,-2.00,-2.00,-21.00,-128.00,-74.00,-53.00,-66.00,+9.00,+3.00,-1.00,-31.00,+20.00,-2.00,-6.00,+7.00
-4.00,-11.00,-6.00,+3.00,+32.00,+22.00,+16.00,+32.00,-4.00,-2.00,+4.00,+34.00,+29.00,+38.00,+26.00,-2.00
-8.00,-12.00,-5.00,-2.00,-37.00,+15.00,-60.00,-11.00,-14.00,-3.00,+3.00,+23.00,+37.00,-36.00,-53.00,-7.00
-14.00,-12.00,-8.00,-10.00,-52.00,+8.00,+50.00,+0.00,-5.00,+4.00,+6.00,+4.00,+24.00,-94.00,+23.00,-11.00
-5.00,+6.00,-4.00,-9.00,-54.00,+11.00,-32.00,+0.00,+22.00,+9.00,+3.00,+14.00,-29.00,+1.00,+51.00,+22.00
-10.00,-7.00,-1.00,-1.00,-25.00,-28.00,-21.00,-26.00,-8.00,-8.00,-16.00,-44.00,-49.00,-28.00,-49.00,-29.00
-2.00,-4.00,-3.00,-8.00,-17.00,+4.00,-4.00,+0.00,+10.00,+0.00,-5.00,-27.00,-12.00,+13.00,-1.00,-10.00
+7.00,+7.00,+1.00,-3.00,+13.00,-30.00,+26.00,+29.00,+2.00,+8.00,+15.00,+75.00,+62.00,-92.00,-59.00,+1.00
+1.00,-2.00,-1.00,+7.00,+93.00,+28.00,+1.00,+11.00,+6.00,+8.00,+14.00,+40.00,+36.00,+77.00,+72.00,+39.00
+0.00,-7.00,+8.00,+12.00,-4.00,-14.00,+6.00,+7.00,+4.00,-6.00,-12.00,-6.00,+5.00,-76.00,+31.00,+15.00
-5.00,-1.00,-12.00,-21.00,-102.00,-31.00,+37.00,-8.00,-5.00,-10.00,-13.00,-74.00,-76.00,-19.00,-31.00,+3.00
+69.00,+10.00,+2.00,-3.00,+42.00,-6.00,-5.00,-9.00,+14.00,+3.00,+4.00,+39.00,+83.00,+34.00,-38.00,-6.00
-24.00,-25.00,-16.00,-3.00,+53.00,+22.00,+20.00,+11.00,+13.00,+9.00,+3.00,-17.00,-113.00,-56.00,-35.00,+15.00
+9.00,-23.00,-2.00,+25.00,+114.00,-10.00,+57.00,+20.00,-7.00,+1.00,+3.00,+42.00,+78.00,+23.00,+39.00,-2.00
-8.00,+10.00,+4.00,+0.00,-38.00,+13.00,-3.00,-7.00,-12.00,-3.00,-1.00,-28.00,-79.00,+38.00,+33.00,+0.00
+11.00,+4.00,+6.00,+4.00,-28.00,+19.00,-29.00,-7.00,+1.00,-9.00,+0.00,+45.00,+77.00,+28.00,+19.00,+23.00
+3.00,+12.00,+6.00,-7.00,-128.00,-17.00,+18.00,-11.00,+29.00,+17.00,-2.00,-28.00,-40.00,+5.00,-9.00,-8.00
+5.00,-6.00,-1.00,-3.00,+3.00,+7.00,-9.00,+3.00,+1.00,+4.00,+2.00,+31.00,+11.00,-68.00,-70.00,+6.00
-5.00,-20.00,-7.00,+7.00,+28.00,-30.00,-36.00,+2.00,-6.00,-7.00,-12.00,-46.00,-74.00,-46.00,-27.00,-9.00
-19.00,+0.00,+1.00,+0.00,-3.00,+41.00,+16.00,+3.00,-13.00,-7.00,-2.00,+41.00,+55.00,+44.00,-30.00,-10.00
+15.00,+10.00,+0.00,+2.00,+22.00,-46.00,+46.00,+17.00,-16.00,-10.00,-10.00,-70.00,-73.00,-59.00,+28.00,-6.00
+2.00,-3.00,+4.00,+5.00,-4.00,+28.00,+5.00,+8.00,-6.00,-15.00,-22.00,-97.00,-51.00,-9.00,+15.00,-16.00
+4.00,+18.00,+10.00,+5.00,+6.00,-39.00,-15.00,-8.00,-3.00,+12.00,+8.00,+3.00,+30.00,+25.00,+11.00,-5.00
-20.00,+1.00,+0.00,-11.00,-86.00,-101.00,+14.00,-2.00,+10.00,+3.00,+3.00,+3.00,-43.00,-59.00,-28.00,-4.00
-8.00,-10.00,-2.00,+6.00,+70.00,-61.00,+5.00,+20.00,-12.00,-5.00,+4.00,+30.00,+28.00,-49.00,-25.00,+5.00
+15.00,+21.00,+10.00,+5.00,+51.00,+62.00,+46.00,-12.00,-2.00,+4.00,+18.00,+85.00,+96.00,+55.00,+69.00,+4.00
+2.00,-6.00,+0.00,+8.00,+3.00,+9.00,+4.00,+5.00,-30.00,-24.00,-18.00,-46.00,+4.00,-26.00,+47.00,+19.00
-27.00,-19.00,-14.00,-9.00,+6.00,-27.00,-55.00,-25.00,+7.00,+2.00,-11.00,-38.00,-66.00,+14.00,+0.00,-15.00
+12.00,+1.00,-3.00,-4.00,-94.00,-34.00,-24.00,+14.00,+22.00,+16.00,+15.00,+31.00,+49.00,+28.00,+19.00,+12.00
-18.00,+14.00,+2.00,+2.00,+8.00,-25.00,-4.00,+8.00,+3.00,+5.00,-6.00,-42.00,-69.00,-59.00,-49.00,-2.00
+7.00,-14.00,-4.00,+0.00,+43.00,+24.00,+14.00,+4.00,+11.00,+9.00,+10.00,+52.00,+61.00,-49.00,+46.00,+20.00
-18.00,+5.00,-5.00,-11.00,-87.00,+39.00,-29.00,-20.00,-21.00,-8.00,+4.00,+42.00,+42.00,+79.00,-19.00,-16.00
-3.00,-5.00,+6.00,+13.00,+122.00,+22.00,-76.00,-13.00,-25.00,-23.00,-14.00,-53.00,+19.00,-9.00,-48.00,-1.00
-14.00,-2.00,-6.00,-16.00,-91.00,-19.00,+42.00,-6.00,-23.00,-22.00,-11.00,+19.00,+67.00,+127.00,-68.00,-32.00
+20.00,+25.00,+16.00,+9.00,-42.00,+16.00,-100.00,+4.00,+17.00,+7.00,+3.00,+15.00,-25.00,+39.00,-44.00,+7.00
-13.00,-27.00,-16.00,+3.00,+115.00,+112.00,+49.00,+7.00,-6.00,-5.00,-3.00,-16.00,-38.00,+18.00,+47.00,+4.00
+60.00,+10.00,+18.00,+22.00,-24.00,+8.00,+16.00,+10.00,+0.00,+8.00,+0.00,-22.00,-44.00,-74.00,-4.00,+5.00
-26.00,-9.00,-7.00,-15.00,-128.00,-96.00,+14.00,+12.00,-2.00,+3.00,+6.00,+17.00,-16.00,-68.00,-10.00,-8.00
+18.00,+27.00,+7.00,+2.00,+37.00,+56.00,-25.00,+12.00,-14.00,-1.00,+5.00,-21.00,-5.00,+1.00,-25.00,-1.00
-13.00,-4.00,+2.00,+0.00,+1.00,-10.00,+9.00,+19.00,+22.00,+8.00,-5.00,-29.00,-6.00,+64.00,+16.00,+14.00
-12.00,-3.00,-6.00,-4.00,-9.00,+40.00,+50.00,-8.00,-36.00,-31.00,-18.00,+6.00,+4.00,+12.00,-21.00,-35.00
-14.00,-12.00,-6.00,-15.00,-87.00,-11.00,-17.00,-42.00,-1.00,-13.00,-12.00,-40.00,-36.00,-9.00,+18.00,-1.00
-18.00,-18.00,-12.00,-13.00,-1.00,+15.00,+62.00,-23.00,+6.00,+9.00,+0.00,+9.00,+9.00,+5.00,-14.00,-9.00
+95.00,+15.00,+7.00,+6.00,-13.00,-3.00,+44.00,+24.00,-29.00,-20.00,-15.00,-16.00,-73.00,-49.00,+2.00,-19.00
-62.00,-2.00,-8.00,-6.00,+16.00,+12.00,+56.00,+19.00,+0.00,+0.00,+0.00,-14.00,+2.00,+112.00,+26.00,+4.00
-14.00,-13.00,-4.00,-8.00,-73.00,-40.00,-46.00,-4.00,+26.00,+27.00,+26.00,+87.00,+96.00,+34.00,+55.00,+24.00
-26.00,-6.00,+1.00,+4.00,+18.00,+33.00,-26.00,+9.00,-6.00,-11.00,-12.00,+9.00,-21.00,-104.00,-82.00,-28.00
+27.00,+42.00,+24.00,+16.00,+55.00,-68.00,-8.00,+0.00,+6.00,+10.00,+1.00,-49.00,-63.00,-9.00,+2.00,+17.00
-9.00,-4.00,-8.00,-11.00,-111.00,-20.00,-69.00,-44.00,-8.00,-10.00,-10.00,-3.00,+1.00,-29.00,-42.00,-25.00
+17.00,+20.00,+7.00,+18.00,+127.00,+59.00,-1.00,+12.00,-8.00,-5.00,-1.00,+11.00,+20.00,-47.00,+10.00,+4.00
+18.00,+21.00,+8.00,+5.00,-24.00,-73.00,-76.00,-12.00,+0.00,-2.00,+9.00,+45.00,+68.00,+0.00,+8.00,-5.00
-13.00,-3.00,-5.00,+4.00,+42.00,+32.00,+9.00,-7.00,+14.00,+5.00,+2.00,-16.00,-23.00,-53.00,+5.00,+27.00
-19.00,-20.00,-6.00,-12.00,-48.00,+16.00,+15.00,-2.00,+6.00,+3.00,-1.00,+14.00,+38.00,-18.00,-24.00,-5.00
-18.00,-9.00,-7.00,-6.00,+5.00,-42.00,-87.00,-22.00,-5.00,-4.00,-6.00,-42.00,-69.00,+8.00,-61.00,-3.00
-8.00,-21.00,-11.00,-7.00,+11.00,-49.00,+37.00,+2.00,-4.00,-4.00,+1.00,+8.00,+9.00,+23.00,+25.00,-9.00
-20.00,-5.00,+0.00,+8.00,+74.00,+30.00,+20.00,-14.00,-9.00,-8.00,-8.00,+4.00,+36.00,-102.00,-69.00,-4.00
+3.00,+2.00,-2.00,+2.00,+37.00,-13.00,+16.00,-6.00,-8.00,-7.00,-5.00,-9.00,-35.00,-29.00,+58.00,-6.00
+36.00,-3.00,-2.00,-1.00,+6.00,+54.00,-2.00,+6.00,+0.00,+6.00,+5.00,-12.00,+11.00,+35.00,+29.00,+17.00
+47.00,+4.00,+3.00,+4.00,-4.00,+18.00,+32.00,-11.00,+11.00,+10.00,+2.00,+8.00,-23.00,+22.00,+21.00,+9.00
-36.00,-2.00,-7.00,-13.00,-20.00,-19.00,-3.00,-26.00,-7.00,-4.00,+1.00,+28.00,+60.00,+48.00,+30.00,-5.00
+1.00,-2.00,+5.00,+6.00,+40.00,-5.00,-31.00,+16.00,-6.00,-5.00,-3.00,-39.00,-34.00,-35.00,-70.00,-24.00
-12.00,+13.00,+9.00,+1.00,+6.00,-25.00,-12.00,+9.00,+2.00,-2.00,-6.00,-34.00,-86.00,-67.00,+12.00,-12.00
+39.00,+9.00,+2.00,+0.00,-10.00,-41.00,+26.00,+3.00,-15.00,-11.00,-5.00,+2.00,+8.00,+39.00,+18.00,-6.00
+5.00,+11.00,+5.00,-3.00,-39.00,+13.00,+47.00,+21.00,-7.00,-2.00,+4.00,+0.00,+7.00,+73.00,+49.00,-1.00
-5.00,-1.00,-3.00,+4.00,+22.00,+73.00,-28.00,-26.00,+6.00,+1.00,+4.00,+36.00,+0.00,+16.00,+19.00,+11.00
+7.00,-5.00,-6.00,-8.00,-11.00,-13.00,-28.00,-22.00,+15.00,+13.00,+2.00,-9.00,+35.00,+48.00,+33.00,+29.00
-24.00,-19.00,-7.00,-11.00,-66.00,-28.00,+35.00,-3.00,+1.00,-4.00,-6.00,-5.00,+21.00,-7.00,-16.00,-9.00
-17.00,-11.00,-4.00,-9.00,-74.00,+9.00,-41.00,-13.00,-38.00,-9.00,-7.00,-45.00,-117.00,-82.00,-89.00,-32.00
+30.00,+15.00,+5.00,+4.00,+80.00,+28.00,+76.00,+26.00,+21.00,+2.00,+1.00,+5.00,+18.00,+87.00,+42.00,+15.00
+2.00,-8.00,+0.00,+6.00,+22.00,-1.00,+17.00,+12.00,+2.00,-5.00,+1.00,+22.00,+2.00,-8.00,+9.00,-10.00
-18.00,-7.00,-6.00,-15.00,-78.00,-18.00,+1.00,+15.00,+3.00,+5.00,-3.00,-13.00,-65.00,-69.00,+17.00,-2.00
-12.00,-12.00,-6.00,+1.00,+18.00,-18.00,+47.00,-15.00,+30.00,+14.00,+6.00,-27.00,-29.00,+94.00,+23.00,+8.00
-1.00,-4.00,-4.00,-2.00,-1.00,-9.00,-16.00,+0.00,-8.00,+2.00,+0.00,-2.00,+0.00,-12.00,-56.00,+13.00
-5.00,+11.00,+10.00,+5.00,-13.00,+74.00,+39.00,-16.00,-23.00,-13.00,-4.00,-10.00,+10.00,-92.00,+24.00,-7.00
-8.00,+10.00,-5.00,-9.00,+8.00,-9.00,-54.00,+9.00,+20.00,+5.00,+3.00,+12.00,+63.00,+14.00,-8.00,+7.00
-1.00,-4.00,+3.00,+6.00,+42.00,-7.00,-26.00,-22.00,+16.00,+8.00,+8.00,+31.00,+28.00,+6.00,+8.00,-2.00
-12.00,-15.00,-11.00,-15.00,-85.00,-50.00,+34.00,+4.00,+2.00,-1.00,-2.00,+2.00,+59.00,+21.00,+31.00,+8.00
+4.00,-12.00,-3.00,-1.00,+25.00,-11.00,-18.00,-17.00,+8.00,+6.00,+4.00,-1.00,-32.00,+43.00,-30.00,-7.00
-11.00,-7.00,+1.00,+4.00,-31.00,-38.00,-13.00,+0.00,-20.00,-9.00,+3.00,+23.00,+14.00,-76.00,-20.00,-9.00
-38.00,-11.00,-6.00,-6.00,-2.00,-6.00,-23.00,+14.00,-16.00,-9.00,-3.00,+10.00,-4.00,+35.00,+19.00,-2.00
+5.00,+0.00,+0.00,+0.00,+19.00,-19.00,-114.00,-31.00,-6.00,-8.00,-3.00,-7.00,-9.00,+7.00,+24.00,-10.00
-19.00,-9.00,-7.00,-12.00,-38.00,-22.00,-65.00,-33.00,+17.00,+8.00,+4.00,+17.00,+32.00,-27.00,-83.00,+4.00
+0.00,-2.00,+2.00,+9.00,+61.00,+34.00,+63.00,+5.00,+1.00,+2.00,-6.00,-36.00,-71.00,+31.00,+32.00,-1.00
+2.00,-5.00,-4.00,+3.00,-35.00,-47.00,-39.00,+8.00,+7.00,+6.00,+5.00,+10.00,+13.00,-31.00,-77.00,-11.00
-25.00,-11.00,-8.00,-11.00,-83.00,-71.00,-33.00,-8.00,-5.00,+0.00,-2.00,-43.00,-45.00,+23.00,+8.00,+10.00
+30.00,+34.00,+14.00,+8.00,+57.00,+41.00,-18.00,+6.00,-16.00,-9.00,-2.00,+16.00,+15.00,+23.00,+35.00,-6.00
-14.00,+4.00,+5.00,+8.00,+48.00,+12.00,-44.00,-14.00,-3.00,-7.00,-4.00,-11.00,-23.00,-44.00,+10.00,+2.00
+1.00,-4.00,-1.00,-3.00,-46.00,-40.00,-47.00,-17.00,+3.00,-1.00,-13.00,-52.00,-23.00,-12.00,+31.00,-16.00
-9.00,-4.00,-6.00,-11.00,-34.00,+20.00,+44.00,+5.00,+11.00,+11.00,+11.00,+67.00,+62.00,-114.00,-22.00,+21.00
-10.00,-15.00,-8.00,-7.00,-60.00,-18.00,-11.00,-6.00,-1.00,-13.00,-12.00,-32.00,-53.00,+6.00,+15.00,+3.00
+35.00,+31.00,+17.00,+16.00,+2.00,+39.00,+70.00,+39.00,+16.00,+5.00,+0.00,+7.00,+35.00,+19.00,+11.00,+6.00
-24.00,-15.00,-9.00,-7.00,-15.00,-26.00,+7.00,+0.00,-6.00,-4.00,+0.00,+7.00,+34.00,+39.00,+11.00,+9.00
+19.00,+7.00,+13.00,+20.00,+65.00,-4.00,-17.00,+24.00,+1.00,+7.00,+9.00,+37.00,+23.00,-16.00,+11.00,+2.00
-24.00,-22.00,-12.00,-8.00,+72.00,-56.00,+9.00,-6.00,-5.00,-2.00,-7.00,-24.00,-57.00,+4.00,+11.00,-3.00
-4.00,+13.00,+2.00,-2.00,-31.00,+12.00,-40.00,-10.00,+23.00,+14.00,+9.00,+8.00,+44.00,+59.00,-5.00,+15.00
+30.00,-3.00,-6.00,-5.00,+0.00,-24.00,-30.00,-5.00,-6.00,-2.00,-2.00,+9.00,+4.00,-63.00,+28.00,+28.00
-24.00,-11.00,-2.00,-3.00,+8.00,+56.00,-49.00,-16.00,-2.00,+0.00,+1.00,+7.00,-1.00,+15.00,-17.00,-17.00
+24.00,+5.00,-8.00,-9.00,-48.00,+9.00,-6.00,+22.00,-26.00,-15.00,-12.00,-49.00,-54.00,+30.00,+2.00,-14.00
-25.00,-18.00,-11.00,-5.00,+44.00,-8.00,+10.00,-9.00,-7.00,+0.00,+0.00,-4.00,+2.00,+3.00,-15.00,-15.00
+9.00,+3.00,+2.00,-4.00,-61.00,-3.00,+8.00,+13.00,+28.00,+13.00,+7.00,+5.00,+22.00,+100.00,-30.00,+23.00
+5.00,+2.00,-3.00,-4.00,-13.00,-26.00,-11.00,-9.00,-9.00,-8.00,-5.00,-20.00,-26.00,+12.00,-24.00,-5.00
+18.00,-7.00,-5.00,-6.00,-39.00,+51.00,+14.00,-8.00,-7.00,-5.00,+3.00,+22.00,+28.00,-37.00,+26.00,+11.00
-24.00,-24.00,-10.00,-10.00,+17.00,+5.00,-69.00,-2.00,-9.00,-1.00,-2.00,+6.00,+58.00,-25.00,-54.00,-16.00
-6.00,-2.00,-2.00,+1.00,-34.00,+32.00,+53.00,+6.00,+7.00,+0.00,-5.00,-6.00,-2.00,+13.00,+12.00,-1.00
-7.00,-8.00,-1.00,+2.00,+9.00,-6.00,-18.00,+8.00,+2.00,+3.00,+2.00,-7.00,-5.00,-31.00,+5.00,+1.00
-13.00,+9.00,+6.00,+5.00,+20.00,+15.00,-16.00,-1.00,+2.00,-9.00,-7.00,-18.00,-29.00,-55.00,-38.00,-3.00
+6.00,-1.00,+0.00,-5.00,-45.00,-29.00,-20.00,-5.00,+6.00,+1.00,-3.00,-20.00,-39.00,+20.00,-13.00,+0.00
-7.00,-3.00,+2.00,+4.00,+47.00,+19.00,+50.00,-3.00,-2.00,-4.00,+5.00,+25.00,+53.00,-55.00,+11.00,-2.00
+29.00,+1.00,+1.00,+1.00,-35.00,-22.00,-1.00,-9.00,-1.00,-3.00,-1.00,-14.00,-14.00,-35.00,-16.00,-3.00
-5.00,+2.00,-1.00,+0.00,+26.00,+4.00,-32.00,-2.00,+8.00,+12.00,+10.00,+39.00,+35.00,+59.00,+27.00,+10.00
-14.00,-12.00,-5.00,-3.00,-14.00,-7.00,+23.00,+2.00,+0.00,-4.00,-9.00,-43.00,-59.00,+2.00,-8.00,-1.00
-4.00,+15.00,+0.00,-1.00,+28.00,-7.00,-73.00,-16.00,+0.00,+7.00,+8.00,+23.00,-10.00,-86.00,+19.00,+5.00
+9.00,+4.00,+1.00,-6.00,-92.00,-6.00,+14.00,-20.00,-3.00,+0.00,-5.00,-20.00,-9.00,+30.00,-10.00,-4.00
-6.00,-5.00,+5.00,+13.00,+101.00,+8.00,+52.00,+7.00,-9.00,-4.00,+1.00,+46.00,+50.00,-53.00,-1.00,-2.00
-17.00,-17.00,-10.00,-12.00,-40.00,-19.00,+64.00,-20.00,+2.00,-2.00,-1.00,-10.00,+9.00,+21.00,+17.00,+16.00
+35.00,-4.00,-2.00,+4.00,+58.00,+41.00,+8.00,+1.00,+2.00,+5.00,+0.00,+17.00,+28.00,-62.00,-16.00,-24.00
+7.00,+8.00,+2.00,-2.00,+3.00,-13.00,+11.00,+5.00,-8.00,-4.00,-2.00,-27.00,-33.00,+23.00,+54.00,+0.00
+31.00,+15.00,+5.00,+6.00,-29.00,-60.00,+13.00,+17.00,-8.00,+0.00,+1.00,+19.00,+34.00,+42.00,-21.00,-10.00
-21.00,-12.00,-7.00,-9.00,-31.00,+3.00,-108.00,-21.00,+1.00,-4.00,+3.00,+26.00,+27.00,+17.00,+39.00,+7.00
+8.00,+3.00,+8.00,+10.00,+69.00,+5.00,+21.00,+13.00,-9.00,-7.00,-12.00,-44.00,-59.00,-10.00,+36.00,-3.00
+8.00,+10.00,-2.00,-3.00,+8.00,+17.00,-23.00,+3.00,+2.00,-4.00,-6.00,+16.00,+22.00,+7.00,-43.00,-15.00
+2.00,-4.00,-3.00,-10.00,-84.00,+11.00,-9.00,+11.00,-13.00,-6.00,-6.00,-36.00,-44.00,+4.00,-11.00,-19.00
+28.00,+1.00,+8.00,+12.00,+39.00,+32.00,-5.00,+12.00,-1.00,+5.00,+6.00,+19.00,+21.00,+12.00,+2.00,-6.00
-6.00,-3.00,-3.00,-3.00,-4.00,-11.00,+31.00,+20.00,+0.00,-2.00,-1.00,-2.00,+3.00,-38.00,-6.00,+9.00
+0.00,+3.00,+1.00,+1.00,+31.00,+27.00,+34.00,+16.00,+1.00,+4.00,+2.00,+10.00,+28.00,+46.00,+53.00,+5.00
-3.00,-5.00,-1.00,-4.00,-15.00,-15.00,-9.00,-1.00,+7.00,-2.00,-6.00,-18.00,-14.00,-5.00,-2.00,+6.00
+10.00,+14.00,+8.00,+3.00,-4.00,+8.00,+40.00,+12.00,-14.00,-7.00,-2.00,-11.00,-23.00,-24.00,-13.00,-6.00
-11.00,+9.00,+5.00,+0.00,-59.00,+11.00,-23.00,-13.00,-3.00,-1.00,-2.00,+3.00,+0.00,+41.00,+2.00,+2.00
-2.00,-7.00,-5.00,+2.00,+65.00,+10.00,+13.00,+1.00,-5.00,-1.00,+1.00,+8.00,-11.00,-17.00,-5.00,-1.00
-24.00,-9.00,-5.00,+1.00,-15.00,+0.00,+1.00,+9.00,+3.00,+5.00,-1.00,-10.00,+24.00,-34.00,-26.00,-10.00
-13.00,-10.00,-4.00,+0.00,+19.00,+1.00,+14.00,-17.00,-8.00,-4.00,-6.00,-5.00,-35.00,-63.00,+5.00,-3.00
-2.00,+5.00,-1.00,-7.00,-51.00,-3.00,-19.00,+10.00,-1.00,-2.00,+3.00,+2.00,+21.00,+64.00,-32.00,-4.00
-6.00,-8.00,-4.00,-2.00,+2.00,+3.00,-5.00,-6.00,+18.00,+1.00,-10.00,-37.00,-16.00,+6.00,-3.00,+17.00
-7.00,-13.00,-5.00,-1.00,+13.00,-6.00,+24.00,-6.00,-9.00,+4.00,+11.00,+15.00,+12.00,-31.00,+2.00,-3.00
+1.00,-4.00,+0.00,+2.00,+24.00,+0.00,-14.00,-3.00,+15.00,+3.00,-4.00,-8.00,-28.00,+20.00,-19.00,-10.00
-6.00,+11.00,+3.00,-3.00,-32.00,-5.00,-14.00,-7.00,-6.00,-2.00,-2.00,+4.00,+14.00,+30.00,+16.00,+6.00
-12.00,+11.00,+3.00,+1.00,-47.00,+25.00,+24.00,-3.00,-12.00,-6.00,-6.00,-7.00,-18.00,-33.00,-20.00,-16.00
-14.00,-11.00,-8.00,-7.00,+8.00,-18.00,-43.00,-15.00,+6.00,+3.00,+8.00,+18.00,+16.00,+35.00,+13.00,+8.00
+1.00,-15.00,-7.00,-3.00,+29.00,+20.00,+33.00,+6.00,+1.00,+2.00,-1.00,+6.00,+15.00,-21.00,-13.00,+3.00
-1.00,-12.00,-3.00,-4.00,-3.00,+8.00,-3.00,+1.00,-3.00,-2.00,+3.00,-1.00,-8.00,+28.00,+19.00,-2.00
+6.00,+24.00,+8.00,+0.00,-17.00,+2.00,+19.00,+6.00,-4.00,-1.00,+1.00,+6.00,+6.00,+11.00,+21.00,+5.00
+14.00,+10.00,+9.00,+4.00,+12.00,+14.00,+14.00,+9.00,+4.00,+0.00,-3.00,+3.00,+6.00,+4.00,+1.00,-1.00
+3.00,+18.00,+3.00,-2.00,-25.00,-13.00,+25.00,-4.00,+2.00,-5.00,+0.00,+16.00,+21.00,+54.00,+10.00,-4.00
-8.00,-10.00,-5.00,+0.00,+35.00,+4.00,+4.00,-9.00,-18.00,-17.00,-12.00,-31.00,-20.00,-65.00,-27.00,-11.00
-13.00,-22.00,-9.00,-3.00,+10.00,+2.00,-9.00,-3.00,+2.00,+4.00,-1.00,-4.00,-24.00,-73.00,+1.00,+2.00
-11.00,-11.00,-5.00,-5.00,-14.00,+0.00,+10.00,-7.00,+5.00,-4.00,-5.00,+3.00,+32.00,+48.00,+10.00,-2.00
+3.00,+3.00,-5.00,-6.00,-33.00,-22.00,-39.00,+4.00,-12.00,-10.00,-7.00,-15.00,-28.00,-33.00,-4.00,-7.00
+0.00,+13.00,+5.00,+7.00,+26.00,+5.00,-26.00,-6.00,+29.00,+13.00,+3.00,+9.00,+8.00,+13.00,-11.00,+3.00
+6.00,+9.00,+5.00,+6.00,+22.00,-6.00,+32.00,+2.00,-10.00,-6.00,-3.00,-8.00,-20.00,-44.00,-10.00,-10.00
+7.00,-2.00,+0.00,+5.00,+12.00,+6.00,+2.00,+14.00,+3.00,+1.00,+3.00,+14.00,+1.00,-46.00,-37.00,-1.00
+12.00,+19.00,+5.00,+0.00,-10.00,-5.00,+12.00,+16.00,-27.00,-14.00,-4.00,+5.00,+22.00,+43.00,-9.00,-18.00
+4.00,+2.00,+1.00,+3.00,+27.00,-12.00,+0.00,+1.00,-20.00,-8.00,-3.00,+4.00,+14.00,+41.00,+8.00,-6.00
+1.00,-6.00,+0.00,-4.00,-5.00,-6.00,-12.00,+2.00,+24.00,+3.00,-3.00,-5.00,-14.00,-44.00,-33.00,-1.00
+12.00,+11.00,+1.00,+1.00,-13.00,+6.00,-5.00,+6.00,-20.00,-4.00,+0.00,+3.00,+1.00,+11.00,+12.00,+0.00
+2.00,+13.00,+8.00,+7.00,+12.00,-11.00,-26.00,-18.00,+4.00,-1.00,+1.00,-4.00,-6.00,-21.00,-1.00,-1.00
-3.00,-12.00,-6.00,-2.00,+9.00,+63.00,+79.00,+18.00,+6.00,+1.00,+5.00,+10.00,+0.00,+5.00,+3.00,+12.00
-7.00,-21.00,-4.00,-3.00,-6.00,+5.00,+5.00,-2.00,-7.00,+1.00,-1.00,+2.00,+9.00,+32.00,-6.00,-7.00
-8.00,-7.00,-3.00,-5.00,+1.00,+12.00,+18.00,-6.00,+4.00,-2.00,+0.00,+4.00,+5.00,+11.00,+6.00,-2.00
+18.00,+43.00,+10.00,+3.00,+7.00,+11.00,+8.00,+11.00,+1.00,+1.00,-2.00,-2.00,-5.00,+6.00,+6.00,-1.00
-3.00,+0.00,-3.00,-4.00,+9.00,-38.00,-18.00,-4.00,-17.00,+0.00,-2.00,+7.00,+19.00,-20.00,-15.00,-11.00
+1.00,+2.00,-3.00,-2.00,-5.00,+9.00,+6.00,+2.00,+13.00,-2.00,-4.00,-12.00,+12.00,+24.00,+18.00,+9.00
-15.00,-18.00,-6.00,-1.00,-3.00,-2.00,-6.00,-11.00,+19.00,+11.00,+2.00,-7.00,-10.00,+2.00,+2.00,+2.00
-11.00,-44.00,-15.00,-10.00,+2.00,-2.00,-9.00,-3.00,-31.00,-20.00,-3.00,+0.00,+6.00,+6.00,+3.00,-8.00
-15.00,-32.00,-12.00,-9.00,-43.00,-15.00,-35.00,-9.00,+23.00,+14.00,+3.00,+11.00,+16.00,-5.00,+1.00,+6.00
+10.00,+20.00,+9.00,+4.00,+47.00,+13.00,+17.00,+10.00,-34.00,-10.00,-1.00,-23.00,-48.00,-87.00,-15.00,-10.00
+5.00,+31.00,+26.00,+9.00,+0.00,-17.00,-24.00,-1.00,+3.00,-4.00,-7.00,-12.00,-1.00,+40.00,+10.00,-8.00
-15.00,-8.00,-8.00,+0.00,+12.00,+8.00,+9.00,-9.00,+4.00,+6.00,+1.00,+1.00,+16.00,+36.00,+18.00,+16.00
+1.00,-1.00,-7.00,-8.00,-82.00,-19.00,-9.00,+0.00,+16.00,-8.00,-9.00,-12.00,-14.00,-10.00,-5.00,-4.00
-8.00,-8.00,-4.00,+0.00,+48.00,+21.00,-2.00,+3.00,+4.00,+3.00,+2.00,+14.00,+14.00,+3.00,+0.00,+2.00
+8.00,-4.00,-9.00,-8.00,-18.00,+4.00,+1.00,+3.00,+5.00,+4.00,+5.00,+9.00,+18.00,-13.00,+4.00,+10.00
-19.00,-43.00,-6.00,-3.00,+6.00,+4.00,-2.00,-7.00,-5.00,+1.00,-3.00,-20.00,-33.00,-35.00,-4.00,-6.00
-1.00,+12.00,+6.00,+4.00,+4.00,-23.00,-5.00,-2.00,-16.00,-3.00,-4.00,-21.00,-40.00,-20.00,-8.00,-5.00
+8.00,+10.00,+2.00,+0.00,-24.00,-5.00,-3.00,+6.00,-5.00,-7.00,-3.00,+8.00,+21.00,+84.00,+12.00,-2.00
+3.00,+14.00,+4.00,-1.00,-42.00,-33.00,+5.00,-5.00,+18.00,+4.00,-1.00,-4.00,-9.00,-2.00,+1.00,+2.00
+3.00,+6.00,+2.00,+1.00,+34.00,+30.00,+3.00,+1.00,-13.00,-9.00,-2.00,+15.00,+28.00,+0.00,-6.00,-8.00
-9.00,-11.00,-5.00,-2.00,+21.00,-16.00,-2.00,-7.00,+10.00,+0.00,+9.00,+45.00,+30.00,-5.00,-1.00,+3.00
-6.00,-10.00,-6.00,-5.00,-13.00,-15.00,-11.00,-10.00,+17.00,+5.00,+1.00,-17.00,-22.00,-5.00,-6.00,+8.00
+1.00,+11.00,+3.00,+3.00,+6.00,+7.00,+2.00,+0.00,-6.00,+9.00,-1.00,-6.00,-14.00,-9.00,-2.00,-5.00
-7.00,-28.00,-13.00,-10.00,-42.00,-37.00,-9.00,-7.00,+2.00,+4.00,+1.00,+2.00,+14.00,-8.00,+0.00,+2.00
+25.00,+30.00,+9.00,+10.00,+72.00,+7.00,+2.00,+11.00,+4.00,+6.00,+2.00,-2.00,-10.00,+3.00,-1.00,-6.00
+6.00,+13.00,+6.00,+4.00,+6.00,-4.00,+11.00,+6.00,-19.00,-5.00,+3.00,+15.00,+12.00,+7.00,+0.00,-6.00
-9.00,-15.00,-5.00,-2.00,-9.00,-15.00,-7.00,-5.00,-1.00,-14.00,-9.00,-2.00,+5.00,-5.00,-3.00,-2.00
-6.00,+11.00,+0.00,+0.00,+16.00,+5.00,+1.00,-4.00,+3.00,-5.00,+3.00,+15.00,+1.00,-12.00,-4.00,-1.00
-3.00,+0.00,+2.00,-3.00,-4.00,+3.00,-4.00,+0.00,-29.00,-16.00,-14.00,-33.00,-33.00,+1.00,-1.00,-2.00
-8.00,-39.00,-17.00,-7.00,-23.00,-9.00,-5.00,-4.00,+12.00,+3.00,-3.00,+9.00,+9.00,+0.00,-1.00,+4.00
+5.00,+37.00,+6.00,+0.00,+7.00,+5.00,+1.00,+0.00,-2.00,+7.00,+0.00,-13.00,-26.00,-20.00,-5.00,-4.00
+11.00,+18.00,+11.00,+6.00,-4.00,-21.00,-2.00,+9.00,+28.00,+22.00,+12.00,+30.00,+12.00,+17.00,+8.00,+17.00
+12.00,+31.00,+6.00,-2.00,+1.00,-12.00,+1.00,+8.00,-10.00,-10.00,-3.00,-12.00,-6.00,-4.00,+0.00,-2.00
-10.00,-29.00,-10.00,-1.00,+17.00,+20.00,+3.00,+1.00,-5.00,+0.00,-4.00,+0.00,-28.00,-16.00,-3.00,+3.00
-25.00,-44.00,-10.00,-3.00,-11.00,-7.00,-2.00,-11.00,-11.00,-1.00,+1.00,-2.00,-19.00,-40.00,-6.00,-4.00
+7.00,+22.00,+6.00,+9.00,+20.00,+10.00,+8.00,+3.00,+5.00,+1.00,-1.00,-10.00,-1.00,-10.00,-2.00,-2.00
-2.00,-11.00,-3.00,-2.00,-5.00,+16.00,-2.00,-6.00,+1.00,-1.00,+1.00,+7.00,+17.00,+20.00,+5.00,+1.00
+11.00,+26.00,+10.00,+2.00,-10.00,-47.00,-24.00,+2.00,+19.00,+10.00,+3.00,+4.00,+4.00,+7.00,-1.00,+2.00
+13.00,+14.00,+0.00,+3.00,+22.00,+14.00,+42.00,+9.00,-24.00,-13.00,-7.00,+7.00,+7.00,-4.00,-2.00,-3.00
-10.00,-10.00,-5.00,-2.00,+6.00,+5.00,-4.00,-8.00,+16.00,+2.00,-1.00,-9.00,-7.00,-13.00,-2.00,+3.00
-16.00,-25.00,-5.00,+0.00,+4.00,-7.00,-5.00,-5.00,+8.00,-4.00,-3.00,+8.00,+11.00,-10.00,-5.00,-1.00
-9.00,-13.00,-3.00,-2.00,-12.00,+1.00,-5.00,-2.00,-3.00,-10.00,-5.00,-19.00,-22.00,-14.00,-1.00,-3.00
+13.00,+26.00,+6.00,+1.00,+2.00,+7.00,-7.00,+3.00,-12.00,-3.00,+1.00,+1.00,+11.00,+8.00,+0.00,-4.00
-2.00,-7.00,-13.00,-10.00,-13.00,+20.00,-2.00,+0.00,+15.00,+36.00,+8.00,-3.00,-6.00,-3.00,-1.00,+2.00
-11.00,-4.00,+4.00,+4.00,+39.00,-3.00,+12.00,-2.00,-21.00,-18.00,+6.00,-8.00,+8.00,+2.00,-2.00,-8.00
+5.00,+12.00,-9.00,-11.00,-33.00,-7.00,+2.00,-1.00,+10.00,+1.00,-19.00,+5.00,+32.00,+9.00,+1.00,+0.00
-12.00,-21.00,+0.00,+1.00,+7.00,-19.00,-8.00,-5.00,+3.00,+2.00,+10.00,+8.00,-4.00,+13.00,+2.00,+1.00
-8.00,-24.00,-1.00,-3.00,-5.00,+9.00,+2.00,-3.00,-39.00,-41.00,-25.00,-17.00,+5.00,+7.00,-4.00,-12.00
+1.00,-14.00,-15.00,-5.00,-7.00,+17.00,-8.00,-1.00,+21.00,+20.00,+4.00,-5.00,-26.00,-9.00,+0.00,+5.00
+2.00,+27.00,+11.00,-1.00,-10.00,+9.00,+2.00,-2.00,-16.00,-3.00,+7.00,+15.00,+28.00,+3.00,-4.00,-5.00
+7.00,+3.00,-14.00,-2.00,+18.00,-5.00,-5.00,+2.00,-7.00,-10.00,-8.00,-26.00,-48.00,-14.00,+0.00,+4.00
+13.00,+29.00,+16.00,+3.00,+0.00,-2.00,-2.00,+6.00,+11.00,+4.00,+7.00,-4.00,-2.00,-9.00,-5.00,+0.00
-23.00,-46.00,-7.00,-3.00,-23.00,-1.00,-2.00,-5.00,-9.00,-6.00,-7.00,-1.00,-6.00,-9.00,-7.00,-4.00
+2.00,+12.00,+5.00,+2.00,-8.00,-28.00,-1.00,-9.00,-10.00,-2.00,+3.00,+3.00,-1.00,-1.00,-3.00,-11.00
+4.00,-7.00,-2.00,-4.00,+11.00,+12.00,+2.00,+10.00,+11.00,+4.00,+0.00,+7.00,+19.00,+10.00,+2.00,+7.00
-4.00,-5.00,-2.00,+2.00,+0.00,-4.00,+3.00,+6.00,+0.00,+7.00,+6.00,+1.00,-20.00,+1.00,+2.00,+8.00
-2.00,-5.00,-2.00,-4.00,-28.00,-21.00,-9.00,-6.00,+7.00,-8.00,-9.00,+0.00,+27.00,-1.00,+0.00,-1.00
-1.00,+1.00,+1.00,+2.00,+13.00,-12.00,+6.00,-1.00,-9.00,-4.00,-1.00,-3.00,-11.00,+2.00,-3.00,-5.00
-5.00,-7.00,-4.00,-2.00,+11.00,+9.00,-11.00,-5.00,-1.00,-3.00,-1.00,+2.00,-5.00,+1.00,-4.00,-10.00
-1.00,+3.00,-1.00,+0.00,-13.00,-3.00,+1.00,-2.00,+7.00,+8.00,+8.00,+11.00,+29.00,+14.00,+7.00,+5.00
+1.00,+9.00,+4.00,+1.00,+8.00,+0.00,+1.00,+1.00,-3.00,-1.00,-5.00,-19.00,-39.00,-13.00,-3.00,-4.00
-3.00,-11.00,-3.00,-1.00,+4.00,+11.00,-3.00,-4.00,-6.00,-2.00,-6.00,-5.00,+2.00,-2.00,+1.00,-4.00
-9.00,-9.00,+3.00,-3.00,-30.00,+30.00,-8.00,-7.00,+9.00,+22.00,+15.00,+4.00,+14.00,+3.00,+2.00,+2.00
+12.00,+2.00,-15.00,+2.00,+58.00,-23.00,+8.00,+7.00,+11.00,-6.00,-4.00,+1.00,-3.00,+1.00,-2.00,-2.00
+7.00,+27.00,+2.00,-3.00,-11.00,+4.00,+1.00,+0.00,+2.00,+5.00,-8.00,+6.00,+2.00,+1.00,-1.00,+4.00
-6.00,-11.00,-1.00,+0.00,-5.00,+2.00,-3.00,-4.00,-20.00,-26.00,-2.00,-1.00,-2.00,-1.00,-1.00,-10.00
+6.00,+3.00,-9.00,-3.00,+15.00,+2.00,+0.00,+0.00,+28.00,+4.00,+3.00,+4.00,-2.00,+3.00,+1.00,+13.00
-17.00,-28.00,+3.00,-5.00,-24.00,+0.00,-6.00,-7.00,-44.00,+5.00,+12.00,+9.00,+16.00,+0.00,-7.00,-18.00
+25.00,+50.00,+24.00,+9.00,-3.00,+0.00,+0.00,+5.00,+11.00,-3.00,-8.00,-16.00,-34.00,-8.00,-6.00,-5.00
-5.00,+4.00,+4.00,-4.00,+9.00,+7.00,-1.00,+0.00,+26.00,+14.00,+12.00,+9.00,+14.00,+7.00,+3.00,+12.00
+0.00,-6.00,-11.00,+4.00,-17.00,-28.00,+1.00,+3.00,-9.00,-4.00,-13.00,+9.00,+51.00,+5.00,-4.00,-6.00
-10.00,-36.00,-15.00,-11.00,-18.00,-5.00,-11.00,-11.00,+13.00,-2.00,+7.00,-12.00,-21.00,+0.00,+4.00,+15.00
+9.00,+28.00,+7.00,+3.00,+4.00,+1.00,+5.00,+3.00,-43.00,-22.00,-3.00,+2.00,+14.00,-5.00,-4.00,-18.00
-1.00,-17.00,-7.00,-6.00,-24.00,+10.00,+3.00,+5.00,+28.00,+13.00,+2.00,+5.00,+4.00,+2.00,+2.00,+13.00
-3.00,+1.00,+1.00,+2.00,+16.00,-1.00,+1.00,-2.00,+4.00,+1.00,+2.00,+1.00,-9.00,+1.00,+1.00,-4.00
-3.00,-11.00,-8.00,-3.00,+22.00,-11.00,-1.00,-4.00,-4.00,-9.00,-10.00,+0.00,+3.00,+0.00,-4.00,-4.00
-2.00,-14.00,-7.00,-4.00,+21.00,+17.00,-4.00,+1.00,-32.00,-10.00,-2.00,+3.00,+3.00,+0.00,+0.00,-9.00
-6.00,-5.00,+2.00,+5.00,+4.00,+0.00,+1.00,-2.00,+30.00,+8.00,+8.00,+6.00,+1.00,-1.00,+2.00,+7.00
-16.00,-19.00,-8.00,-8.00,-24.00,-2.00,-6.00,-7.00,-7.00,-1.00,-3.00,-5.00,-13.00,+3.00,+3.00,+5.00
+7.00,+28.00,+4.00,+2.00,+0.00,+2.00,+1.00,-1.00,+15.00,+15.00,-11.00,-2.00,-1.00,-1.00,+1.00,+1.00
+21.00,+19.00,+9.00,+4.00,-12.00,-9.00,+3.00,+6.00,+9.00,+5.00,+3.00,-16.00,-32.00,-11.00,-2.00,-1.00
+1.00,-1.00,+0.00,-1.00,-7.00,+9.00,-3.00,+1.00,-25.00,-13.00,+2.00,-11.00,-32.00,-11.00,-5.00,-13.00
+1.00,+12.00,+4.00,-1.00,-4.00,-5.00,-4.00,-5.00,-14.00,-4.00,+5.00,-14.00,+4.00,-5.00,-5.00,-10.00
-6.00,-5.00,+9.00,+3.00,-2.00,+18.00,+2.00,-1.00,+2.00,-14.00,-27.00,-6.00,-4.00,-3.00,-4.00,-4.00
-26.00,-33.00,-10.00,-4.00,-2.00,-6.00,-3.00,-11.00,+14.00,+12.00,+5.00,+11.00,+22.00,+4.00,+1.00,+7.00
+4.00,+5.00,-10.00,-6.00,-3.00,-3.00,+2.00,+4.00,-25.00,-9.00,-1.00,-1.00,-4.00,-5.00,-5.00,-11.00
-6.00,-43.00,-19.00,-4.00,+11.00,+9.00,+1.00,+0.00,+8.00,+10.00,-3.00,-15.00,-26.00,+1.00,-4.00,+0.00
+27.00,+67.00,+35.00,+4.00,-20.00,-2.00,-1.00,+4.00,-4.00,-3.00,+21.00,+3.00,-10.00,+1.00,+1.00,+2.00
+1.00,-1.00,-8.00,-3.00,-1.00,+0.00,+2.00,+2.00,+1.00,+9.00,+12.00,+9.00,+22.00,+2.00,-2.00,-2.00
-6.00,+5.00,-5.00,-3.00,-13.00,+0.00,-3.00,-4.00,-4.00,-7.00,-30.00,+14.00,+22.00,+15.00,+9.00,+15.00
-1.00,+2.00,+14.00,+3.00,+14.00,+14.00,-2.00,-2.00,-9.00,-25.00,-11.00,-19.00,-36.00,-16.00,-6.00,-19.00
-22.00,-35.00,-23.00,-2.00,-5.00,+0.00,-2.00,-6.00,+4.00,+3.00,-3.00,-2.00,+2.00,-3.00,+1.00,+5.00
+13.00,+4.00,+14.00,-2.00,-35.00,-12.00,-5.00,+5.00,+0.00,+4.00,+7.00,-7.00,-33.00,-3.00,+1.00,+4.00
+2.00,+27.00,+14.00,+8.00,+37.00,+2.00,+7.00,+4.00,-7.00,+2.00,+9.00,-4.00,+1.00,-2.00,+1.00,-3.00
+5.00,+18.00,+2.00,-1.00,-11.00,-14.00,+0.00,+2.00,-19.00,-10.00,-7.00,+6.00,+9.00,+1.00,-1.00,-4.00
-5.00,-13.00,-3.00,+2.00,+5.00,+17.00,+1.00,+0.00,+18.00,+6.00,+0.00,+4.00,+9.00,-1.00,-2.00,-1.00
-9.00,-11.00,-13.00,-1.00,+18.00,-4.00,+0.00,-6.00,-14.00,-13.00,-3.00,-7.00,-10.00,-3.00,+1.00,-2.00
-16.00,-32.00,-11.00,-3.00,-6.00,+6.00,-6.00,-10.00,+36.00,+28.00,+2.00,-11.00,-35.00,-1.00,+4.00,+11.00
-1.00,+13.00,+8.00,-1.00,-11.00,-15.00,-4.00,+0.00,-11.00,-7.00,-2.00,+0.00,+3.00,-1.00,+0.00,-4.00
+6.00,+12.00,+7.00,+4.00,+7.00,-5.00,+1.00,-1.00,+0.00,-1.00,+7.00,-8.00,-10.00,-5.00,-2.00,-3.00
+9.00,-3.00,-15.00,-10.00,-44.00,-7.00,-1.00,+3.00,-7.00,+3.00,-11.00,+6.00,+14.00,+1.00,-2.00,-2.00
+1.00,-7.00,+0.00,+0.00,+31.00,+18.00,+4.00,+1.00,-24.00,-27.00,-15.00,+18.00,+22.00,+0.00,-4.00,-14.00
-9.00,-3.00,-7.00,-2.00,+5.00,-7.00,-3.00,-8.00,+21.00,+5.00,-10.00,-39.00,-24.00,-10.00,-2.00,+4.00
-8.00,-7.00,-3.00,-4.00,-19.00,-8.00,-4.00,-4.00,-12.00,-6.00,-5.00,+4.00,-1.00,+7.00,-3.00,-6.00
+6.00,+0.00,+2.00,+3.00,-2.00,+7.00,-1.00,-1.00,+4.00,+7.00,+7.00,+0.00,+4.00,-1.00,+0.00,+5.00
-2.00,+1.00,+9.00,+1.00,-43.00,-7.00,-3.00,-1.00,-22.00,+11.00,+25.00,-7.00,-8.00,-5.00,-7.00,-14.00
+22.00,+43.00,+14.00,+5.00,+36.00,+25.00,+8.00,+8.00,+13.00,-9.00,-17.00,+17.00,+17.00,+1.00,-2.00,-3.00
-13.00,-38.00,-18.00,-6.00,+2.00,+4.00,-1.00,+0.00,-30.00,-20.00,-3.00,-2.00,-9.00,-1.00,-1.00,+0.00
+6.00,+28.00,-4.00,-4.00,+18.00,+5.00,+2.00,+2.00,+15.00,-10.00,-13.00,+11.00,+45.00,+1.00,-5.00,-9.00
-9.00,-22.00,-7.00,-5.00,-7.00,-12.00,-4.00,-8.00,+48.00,+24.00,+5.00,-5.00,-4.00,+3.00,+6.00,+33.00
+5.00,+5.00,+19.00,+3.00,-16.00,-4.00,+0.00,+0.00,-20.00,-5.00,+7.00,-11.00,-33.00,-5.00,-1.00,-3.00
+5.00,+7.00,-1.00,+1.00,-6.00,-3.00,-1.00,+4.00,+0.00,+5.00,+4.00,-8.00,-1.00,-3.00,-1.00,-5.00
-20.00,-47.00,-9.00,-3.00,-22.00,-13.00,-6.00,-11.00,+4.00,-1.00,-9.00,+2.00,+3.00,+3.00,+0.00,-6.00
+55.00,+101.00,+21.00,+6.00,+45.00,+22.00,+11.00,+25.00,-14.00,-11.00,+2.00,+10.00,+23.00,+2.00,+0.00,-2.00
-15.00,-22.00,-1.00,+0.00,+9.00,-16.00,-1.00,-4.00,-11.00,-6.00,+3.00,-1.00,+1.00,-3.00,-4.00,-10.00
-10.00,-22.00,-19.00,-5.00,+11.00,-4.00,-2.00,-5.00,+13.00,+8.00,-12.00,-11.00,-12.00,-5.00,-2.00,+2.00
-16.00,-8.00,+6.00,-1.00,-6.00,+2.00,-1.00,-6.00,+3.00,+4.00,+16.00,+5.00,-6.00,+1.00,+2.00,+7.00
+15.00,+19.00,+3.00,+4.00,-13.00,+3.00,+0.00,+3.00,-14.00,-16.00,-13.00,-3.00,+4.00,-3.00,-2.00,-8.00
-3.00,-19.00,-6.00,-5.00,+3.00,+4.00,+0.00,+0.00,+5.00,+20.00,+16.00,+14.00,+8.00,+5.00,+3.00,+7.00
+3.00,+18.00,+10.00,+3.00,+0.00,-4.00,+1.00,-1.00,-47.00,-27.00,+5.00,+0.00,-1.00,-4.00,-2.00,-17.00
+1.00,+0.00,+7.00,+6.00,+8.00,+0.00,+1.00,+1.00,+33.00,+24.00,-13.00,-7.00,-6.00,-2.00,-1.00,+5.00
-1.00,-4.00,-14.00,-6.00,-11.00,-6.00,-1.00,+0.00,-3.00,-4.00,-12.00,-15.00,-12.00,-5.00,-1.00,+6.00
-9.00,-16.00,-13.00,-10.00,-11.00,-6.00,-5.00,-7.00,-16.00,-31.00,+3.00,+18.00,+20.00,+8.00,+3.00,+2.00
-24.00,-35.00,-26.00,-10.00,-8.00,-3.00,-3.00,-8.00,+29.00,+13.00,-3.00,+8.00,+7.00,-4.00,-6.00,-1.00
-44.00,-83.00,+3.00,-4.00,-1.00,-5.00,-9.00,-19.00,+10.00,+19.00,+12.00,+1.00,-12.00,+6.00,+4.00,+11.00
+46.00,+85.00,+23.00,+11.00,+10.00,+0.00,+5.00,+15.00,+2.00,+6.00,-4.00,-17.00,-8.00,-10.00,-8.00,-7.00
+12.00,-1.00,-1.00,+2.00,-6.00,-9.00,+2.00,+7.00,-15.00,+9.00,-6.00,+13.00,+21.00,+5.00,-5.00,-6.00
+6.00,+13.00,-2.00,-6.00,-7.00,+1.00,+0.00,+0.00,+0.00,-13.00,-2.00,-16.00,-47.00,-7.00,-1.00,-3.00
-1.00,+8.00,-4.00,+3.00,+21.00,+16.00,+6.00,+6.00,-3.00,-13.00,+0.00,-6.00,+5.00,-3.00,-2.00,-1.00
-44.00,-67.00,-15.00,-11.00,-26.00,-17.00,-13.00,-21.00,+4.00,+7.00,+3.00,-15.00,-22.00,-5.00,-1.00,-5.00
+0.00,+10.00,-4.00,-4.00,-26.00,-17.00,-6.00,-4.00,+7.00,-1.00,-2.00,-2.00,+4.00,-1.00,+2.00,+7.00
+12.00,+12.00,+12.00,+6.00,+30.00,+19.00,+5.00,+11.00,+5.00,+7.00,-5.00,+6.00,+15.00,+4.00,+4.00,+0.00
+3.00,+13.00,-3.00,+0.00,-7.00,-3.00,-3.00,-3.00,+1.00,-1.00,-1.00,+4.00,+0.00,+0.00,+4.00,+1.00
-20.00,-42.00,-16.00,-6.00,+8.00,+1.00,-3.00,-10.00,-25.00,-17.00,+1.00,+4.00,-2.00,+1.00,+3.00,-8.00
-4.00,-6.00,-6.00,-2.00,-20.00,+0.00,-3.00,-2.00,-4.00,-15.00,-9.00,+1.00,+13.00,-4.00,-4.00,-6.00
+8.00,+13.00,+14.00,+2.00,-6.00,-10.00,-3.00,-2.00,+32.00,+10.00,+8.00,+4.00,+4.00,+6.00,+8.00,+13.00
+10.00,+14.00,+0.00,-2.00,+0.00,+4.00,+1.00,+2.00,-39.00,-16.00,-19.00,-7.00,-13.00,-6.00,-4.00,-9.00
-14.00,-19.00,-10.00,-3.00,-6.00,-6.00,-4.00,-5.00,+43.00,+1.00,+12.00,+14.00,+18.00,+8.00,+6.00,+17.00
-48.00,-80.00,-21.00,-5.00,-1.00,-6.00,-11.00,-26.00,+5.00,+16.00,+5.00,+1.00,-9.00,+1.00,-4.00,+4.00
+75.00,+76.00,+28.00,+13.00,+8.00,+5.00,+13.00,+31.00,+3.00,+21.00,+3.00,-2.00,+1.00,-2.00,-13.00,-4.00
-6.00,-19.00,-1.00,-2.00,+7.00,-4.00,-2.00,-3.00,+5.00,-6.00,+1.00,+1.00,+0.00,-4.00,-9.00,-5.00
+56.00,+82.00,+34.00,+13.00,+8.00,+4.00,+9.00,+23.00,-8.00,-3.00,-10.00,+0.00,+3.00,-3.00,-9.00,-6.00
-14.00,-1.00,+1.00,+3.00,+8.00,+8.00,+1.00,-4.00,+16.00,+4.00,-1.00,+2.00,-7.00,+7.00,+2.00,+5.00
-28.00,-37.00,-16.00,-8.00,-5.00,-9.00,-8.00,-12.00,-12.00,+8.00,+1.00,+8.00,+38.00,+5.00,-2.00,-6.00
-32.00,-45.00,-30.00,-12.00,-14.00,-11.00,-6.00,-14.00,+13.00,+3.00,+4.00,+0.00,+4.00,-6.00,+4.00,+6.00
-12.00,-19.00,-6.00,-9.00,-25.00,-26.00,-4.00,-5.00,-13.00,-9.00,-7.00,-21.00,-24.00,+13.00,-1.00,-6.00
+12.00,+30.00,+7.00,+0.00,+12.00,+33.00,+5.00,+5.00,+1.00,-5.00,+2.00,+6.00,+21.00,-2.00,+1.00,+2.00
-14.00,-15.00,-2.00,+1.00,+1.00,-16.00,-10.00,-12.00,-12.00,-12.00,-10.00,-6.00,-8.00,-16.00,-3.00,-4.00
+31.00,+66.00,+26.00,+9.00,+30.00,+47.00,+1.00,+7.00,-9.00,-3.00,+6.00,+9.00,+8.00,+29.00,+18.00,+1.00
-23.00,-45.00,-14.00,-6.00,+9.00,-20.00,-2.00,-2.00,+43.00,+33.00,+5.00,+2.00,-9.00,-5.00,+10.00,+2.00
+12.00,+14.00,+3.00,-3.00,+5.00,-5.00,+2.00,-8.00,-36.00,-30.00,-6.00,-4.00,-1.00,-2.00,+13.00,-3.00
-8.00,-19.00,-6.00,-4.00,-19.00,+2.00,+3.00,+11.00,-13.00,-8.00,-2.00,+2.00,-2.00,+1.00,+9.00,-1.00
+4.00,+7.00,+2.00,+5.00,+7.00,-2.00,+5.00,+25.00,-35.00,-16.00,-4.00,-1.00,-4.00,-10.00,-1.00,-6.00
-30.00,-60.00,-17.00,-4.00,+2.00,+4.00,-8.00,-14.00,+62.00,+23.00,+6.00,+7.00,+4.00,-5.00,+1.00,+11.00
+38.00,+63.00,+14.00,+4.00,-7.00,-2.00,+0.00,+9.00,+14.00,+15.00,-6.00,-8.00,-5.00,-3.00,-9.00,-8.00
-5.00,+5.00,+3.00,-1.00,-1.00,-4.00,-3.00,-17.00,-41.00,-35.00,-3.00,-1.00,-3.00,-1.00,-7.00,+0.00
-7.00,+1.00,-12.00,-5.00,-9.00,-17.00,-5.00,-18.00,+25.00,+16.00,+6.00,+1.00,-3.00,-3.00,-10.00,+2.00
-14.00,-45.00,+4.00,+2.00,+3.00,+9.00,+1.00,-2.00,-34.00,-13.00,-1.00,+4.00,+9.00,+1.00,-14.00,-13.00
+24.00,-6.00,+4.00,+0.00,+2.00,-7.00,+5.00,+7.00,+0.00,+7.00,-7.00,-9.00,-12.00,-15.00,-18.00,-6.00
+13.00,+20.00,+3.00,-3.00,-4.00,+1.00,-1.00,-1.00,+27.00,+10.00,-7.00,-6.00,-9.00,+0.00,-11.00,-6.00
-5.00,+4.00,-3.00,-3.00,-3.00,-4.00,+3.00,+6.00,-3.00,-15.00,+11.00,-3.00,-13.00,+4.00,-4.00,+2.00
-25.00,-34.00,-12.00,-6.00,-4.00,+2.00,-7.00,-14.00,-13.00,+3.00,-3.00,+4.00,+7.00,-7.00,-9.00,+0.00
-30.00,-52.00,-22.00,-11.00,-4.00,-4.00,-6.00,-6.00,-6.00,-9.00,+2.00,-4.00,-14.00,-3.00,-3.00,-1.00
+44.00,+60.00,+27.00,+8.00,+3.00,+6.00,+9.00,+20.00,+7.00,+8.00,-6.00,-19.00,-29.00,-15.00,-2.00,+2.00
+11.00,+8.00,+9.00,+2.00,+1.00,-9.00,+2.00,+12.00,-22.00,-14.00,-12.00,-6.00,+16.00,+6.00,+3.00,-5.00
-12.00,-21.00,-15.00,-4.00,-11.00,-1.00,+1.00,-12.00,-7.00,-5.00,-1.00,-5.00,-9.00,-8.00,+5.00,+1.00
-10.00,-14.00,-5.00,+2.00,+22.00,+10.00,+0.00,-10.00,+0.00,+0.00,+0.00,+3.00,+6.00,+8.00,+13.00,+3.00
-29.00,-34.00,-26.00,-13.00,-27.00,-20.00,-15.00,+1.00,+8.00,+1.00,+4.00,+7.00,+9.00,+4.00,+12.00,+2.00
+18.00,+31.00,+11.00,+7.00,+29.00,+13.00,+9.00,+9.00,-2.00,+3.00,+2.00,+11.00,+2.00,-4.00,+8.00,+3.00
+11.00,+33.00,+10.00,+2.00,+2.00,+3.00,+0.00,+1.00,-22.00,-13.00,-3.00,-10.00,-10.00,+1.00,+10.00,-2.00
-25.00,-27.00,-14.00,-7.00,-15.00,-6.00,-4.00,-4.00,+12.00,+5.00,-2.00,-9.00,-8.00,-5.00,+5.00,+0.00
-13.00,-25.00,-4.00,-2.00,-11.00,+0.00,-3.00,-8.00,+19.00,+5.00,-2.00,-3.00,+4.00,+5.00,+3.00,+13.00
+28.00,+50.00,+13.00,+4.00,-18.00,-8.00,+0.00,+3.00,+8.00,+10.00,-4.00,-3.00,-7.00,-5.00,-6.00,-5.00
+0.00,-6.00,-5.00,+3.00,+26.00,+0.00,-5.00,-4.00,-33.00,-23.00,-4.00,+5.00,+11.00,+0.00,-7.00,-18.00
+3.00,+25.00,+7.00,+0.00,-1.00,-2.00,-1.00,+6.00,+7.00,+8.00,+2.00,+3.00,-4.00,-3.00,-10.00,-3.00
-19.00,-38.00,-9.00,-4.00,+10.00,+3.00,+3.00,-12.00,+15.00,-2.00,+4.00,+0.00,-1.00,+1.00,-7.00,+3.00
+6.00,+11.00,+0.00,-3.00,-12.00,-6.00,+0.00,+10.00,-29.00,-21.00,-10.00,-1.00,+3.00,+0.00,-10.00,-7.00
-12.00,-24.00,-9.00,-4.00,-8.00,+1.00,+1.00,-5.00,-2.00,+9.00,+3.00,+2.00,-1.00,-2.00,-9.00,-3.00
-12.00,-12.00,-5.00,+0.00,-1.00,-7.00,-3.00,-3.00,+17.00,+9.00,+9.00,+0.00,+1.00,+1.00,-1.00,+9.00
+5.00,+25.00,+14.00,+4.00,+4.00,+0.00,+1.00,+3.00,-5.00,+5.00,+7.00,+6.00,+8.00,+5.00,-3.00,+3.00
+7.00,+3.00,+4.00,+0.00,-3.00,-4.00,-2.00,-3.00,+13.00,+19.00,-3.00,+9.00,+19.00,+3.00,-1.00,+2.00
-16.00,-7.00,-13.00,-8.00,-3.00,+0.00,-2.00,-3.00,-7.00,-11.00,-5.00,-18.00,-31.00,-23.00,-9.00,-1.00
+4.00,+14.00,+0.00,-3.00,-4.00,-2.00,-2.00,-5.00,+3.00,-14.00,-19.00,+3.00,+16.00,+9.00,+1.00,-1.00
+0.00,+18.00,-3.00,-4.00,-18.00,-5.00,-5.00,+2.00,+3.00,+3.00,+0.00,-7.00,+2.00,-2.00,+1.00,-2.00
-15.00,-22.00,-10.00,-3.00,-1.00,-12.00,-5.00,-12.00,-2.00,-21.00,-4.00,-11.00,-23.00,-4.00,-1.00,-3.00
-17.00,-11.00,-1.00,-1.00,+17.00,-8.00,+1.00,-8.00,-6.00,+9.00,+7.00,+0.00,+11.00,+4.00,+1.00,-1.00
+6.00,-16.00,+13.00,+3.00,-10.00,+4.00,+3.00,+0.00,+4.00,+6.00,+6.00,+10.00,+1.00,-5.00,-3.00,+1.00
-7.00,-6.00,-16.00,-2.00,+26.00,+12.00,-1.00,-4.00,-7.00,-6.00,-2.00,+0.00,+1.00,+4.00,+4.00,-1.00
+14.00,+7.00,+13.00,+4.00,-6.00,-8.00,+1.00,+5.00,-3.00,-2.00,-4.00,-12.00,-5.00,-12.00,-10.00,-8.00
+6.00,+23.00,+0.00,+1.00,+7.00,+10.00,-1.00,-4.00,+5.00,-1.00,-4.00,+3.00,+9.00,+5.00,+2.00,-6.00
+0.00,-5.00,-1.00,-6.00,-33.00,-4.00,-1.00,+15.00,-3.00,+4.00,-1.00,-7.00,-9.00,-3.00,-1.00,-4.00
+8.00,+4.00,+5.00,+5.00,+26.00,-9.00,-2.00,-7.00,-39.00,-29.00,-5.00,+13.00,+15.00,+9.00,+0.00,+0.00
-32.00,-43.00,-16.00,-6.00,-2.00,+0.00,-8.00,-20.00,+3.00,+6.00,+7.00,+3.00,-6.00,-4.00,+5.00,+10.00
-11.00,-9.00,+0.00,+0.00,-8.00,-8.00,-5.00,-9.00,-19.00,-14.00,-9.00,+0.00,-1.00,+0.00,-8.00,-4.00
+12.00,+11.00,+0.00,+0.00,-3.00,+1.00,+6.00,+27.00,+16.00,+7.00,+8.00,+5.00,+4.00,-3.00,-6.00,+0.00
+48.00,+56.00,+31.00,+9.00,-2.00,+9.00,+8.00,+12.00,+10.00,+15.00,-4.00,-7.00,-18.00,-7.00,-6.00,-11.00
+2.00,-8.00,-8.00,-1.00,+2.00,+4.00,+2.00,+9.00,+4.00,+1.00,+0.00,-5.00,-4.00,-3.00,-9.00,-2.00
+11.00,+11.00,+6.00,+2.00,-4.00,-3.00,-3.00,+8.00,-4.00,+1.00,-4.00,-5.00,-7.00,-7.00,-7.00,-6.00
-30.00,-40.00,-14.00,-4.00,+0.00,-8.00,-8.00,-23.00,-35.00,-14.00,+4.00,+0.00,+2.00,+1.00,-2.00,+4.00
-20.00,-9.00,-8.00,-4.00,-9.00,-4.00,-3.00,-11.00,-11.00,-30.00,-2.00,+3.00,-1.00,-1.00,-2.00,-10.00
-6.00,-28.00,-9.00,+0.00,+12.00,-1.00,+0.00,-5.00,+33.00,+35.00,-2.00,-2.00,-3.00,-1.00,-3.00,+3.00
-32.00,-58.00,-26.00,-8.00,-16.00,-1.00,-6.00,-13.00,-12.00,-22.00,-3.00,+15.00,+21.00,+10.00,+5.00,+3.00
+76.00,+105.00,+55.00,+20.00,+21.00,+11.00,+10.00,+17.00,+8.00,+17.00,-1.00,-14.00,-29.00,-14.00,-3.00,+0.00
-6.00,-27.00,-15.00,-7.00,-7.00,-6.00,+0.00,-1.00,-8.00,-27.00,-24.00,-13.00,-7.00,-7.00,-1.00,+1.00
-13.00,-20.00,-10.00,-11.00,-16.00,+10.00,-6.00,-15.00,+9.00,+14.00,+8.00,+6.00,+9.00,-5.00,+3.00,+4.00
+27.00,+34.00,+11.00,+5.00,-4.00,-6.00,+1.00,+16.00,+1.00,+12.00,+2.00,-15.00,-20.00,+16.00,+3.00,-8.00
-35.00,-46.00,-21.00,-4.00,+21.00,+5.00,-4.00,-14.00,-4.00,-2.00,+2.00,-8.00,+9.00,-5.00,-2.00,+1.00
+4.00,+8.00,+7.00,-2.00,-13.00,-1.00,+2.00,+4.00,+3.00,+6.00,+8.00,+4.00,-7.00,+0.00,+4.00,+4.00
-17.00,-16.00,-3.00,+3.00,-1.00,-7.00,-3.00,-6.00,-5.00,-13.00,-3.00,-2.00,-7.00,-5.00,+3.00,-2.00
+6.00,+6.00,-4.00,-8.00,-7.00,+8.00,-4.00,+7.00,+5.00,+6.00,+0.00,+5.00,+13.00,+0.00,+3.00,+6.00
+4.00,+14.00,+1.00,+2.00,+10.00,-14.00,+0.00,+0.00,-6.00,-10.00,-2.00,+3.00,+6.00,+3.00,+1.00,-2.00
-10.00,-14.00,+2.00,+3.00,+6.00,+9.00,-2.00,-6.00,-2.00,+14.00,-1.00,+2.00,+10.00,+2.00,-2.00,-6.00
-6.00,-18.00,-8.00,-6.00,-13.00,-10.00,-2.00,-10.00,+3.00,-5.00,-3.00,-6.00,-6.00,+0.00,+1.00,-2.00
+11.00,+15.00,+10.00,+4.00,+0.00,-4.00,+0.00,-5.00,+0.00,-6.00,+3.00,+0.00,-5.00,-5.00,+4.00,+3.00
-9.00,-16.00,-9.00,-5.00,-18.00,-7.00,-3.00,-11.00,-2.00,+1.00,-4.00,-1.00,-5.00,+2.00,+7.00,+3.00
+7.00,+5.00,-2.00,-1.00,+7.00,+3.00,+6.00,+38.00,-4.00,-1.00,-3.00,+0.00,+9.00,-7.00,-5.00,-7.00
-1.00,+24.00,+2.00,+0.00,+4.00,-6.00,+2.00,+1.00,+34.00,+29.00,+3.00,+2.00,+2.00,+1.00,-4.00,+2.00
+13.00,+26.00,+12.00,+5.00,+4.00,+2.00,+0.00,+1.00,-34.00,-26.00,+2.00,+2.00,-4.00,+0.00,+2.00,+2.00
+2.00,+10.00,-4.00,-1.00,+2.00,+3.00,-5.00,-12.00,+12.00,+0.00,-1.00,+1.00,+6.00,-2.00,-5.00,-7.00
-47.00,-64.00,-18.00,-5.00,-14.00,-16.00,-8.00,-28.00,-13.00,+4.00,+5.00,+13.00,-2.00,+1.00,-1.00,-3.00
+26.00,+48.00,+14.00,+6.00,+14.00,+9.00,+4.00,+4.00,-10.00,-2.00,-6.00,-21.00,-18.00,-2.00,-6.00,+2.00
+25.00,+29.00,+8.00,-3.00,+3.00,+7.00,+5.00,+13.00,+16.00,+3.00,+0.00,+3.00,+9.00,+1.00,-5.00,+2.00
-24.00,-31.00,-11.00,-7.00,-28.00,-20.00,-7.00,-1.00,+5.00,+1.00,-1.00,+9.00,+19.00,+2.00,-1.00,+1.00
+27.00,+44.00,+16.00,+8.00,+23.00,+20.00,+8.00,+8.00,-2.00,-14.00,-7.00,-20.00,-30.00,-8.00,-3.00,+1.00
-8.00,-8.00,-2.00,+4.00,+9.00,+6.00,-3.00,-1.00,-4.00,+8.00,+6.00,+6.00,+0.00,+2.00,+0.00,-9.00
-12.00,-20.00,-1.00,-3.00,-1.00,+4.00,+5.00,-2.00,+0.00,-6.00,-12.00,-1.00,-2.00,-6.00,-2.00,-3.00
+7.00,+1.00,-4.00,-4.00,-7.00,-27.00,-1.00,+1.00,-13.00,-1.00,+5.00,+13.00,-10.00,+8.00,+10.00,+3.00
-23.00,-31.00,-18.00,-6.00,+2.00,+7.00,-6.00,-12.00,+12.00,+6.00,-2.00,-21.00,-5.00,-12.00,-8.00,-2.00
-1.00,-19.00,-4.00,-4.00,-2.00,-7.00,-1.00,-1.00,-10.00,-9.00,+2.00,+4.00,+7.00,+2.00,+4.00,+0.00
+3.00,+4.00,-4.00,-2.00,-31.00,-13.00,-3.00,+0.00,-2.00,-6.00,-3.00,-11.00,-13.00,-8.00,-4.00,-8.00
+9.00,+20.00,+11.00,+12.00,+52.00,+24.00,+6.00,+7.00,+27.00,+17.00,+1.00,+10.00,+19.00,+3.00,+3.00,+5.00
-4.00,-3.00,+2.00,+2.00,+4.00,+3.00,+2.00,-6.00,+0.00,+0.00,+5.00,+8.00,+12.00,+10.00,+4.00,+6.00
-5.00,-11.00,-2.00,+0.00,+2.00,+1.00,+0.00,+3.00,-17.00,-5.00,-5.00,-5.00,-6.00,+0.00,-1.00,-3.00
-11.00,-15.00,-5.00,+0.00,-7.00,-13.00,-8.00,-10.00,+18.00,+13.00,+4.00,+8.00,+11.00,+0.00,-2.00,+3.00
+7.00,+20.00,+4.00,-4.00,-20.00,-2.00,-2.00,+1.00,-18.00,-24.00,-7.00,-9.00,-13.00,-3.00,-5.00,-2.00
+17.00,+34.00,+10.00,-1.00,-2.00,-2.00,-1.00,+7.00,-3.00,-5.00,-2.00,+1.00,+2.00,+2.00,-5.00,-10.00
+9.00,-6.00,-5.00,-1.00,+2.00,+2.00,+1.00,+8.00,+4.00,+1.00,-6.00,-3.00,-1.00,-3.00,-4.00,-3.00
-10.00,-18.00,-5.00,-3.00,-1.00,-3.00,+0.00,-1.00,+6.00,+6.00,-4.00,+3.00,+3.00,+5.00,+2.00,+12.00
-3.00,-4.00,-4.00,-4.00,-4.00,+7.00,-3.00,-4.00,+8.00,+8.00,+4.00,-5.00,-5.00,-2.00,-2.00,-1.00
-6.00,-12.00,-3.00,+3.00,+5.00,-4.00,-4.00,-4.00,-1.00,+1.00,+0.00,+1.00,+3.00,+0.00,-1.00,+3.00
+13.00,+24.00,+7.00,-4.00,-14.00,-7.00,+3.00,+3.00,-3.00,-15.00,+0.00,+4.00,+4.00,+0.00,+1.00,-5.00
+9.00,+7.00,+4.00,+4.00,+11.00,+4.00,+1.00,+6.00,-2.00,+8.00,+2.00,+12.00,+3.00,-6.00,-2.00,-8.00
-6.00,-13.00,-4.00,-1.00,+4.00,+4.00,-3.00,-2.00,-9.00,-22.00,-14.00,-29.00,-15.00,+2.00,-1.00,+1.00
-16.00,-20.00,-4.00,-5.00,-9.00,-7.00,-4.00,-10.00,+3.00,+15.00,+1.00,+3.00,+11.00,+2.00,+2.00,+0.00
+0.00,+4.00,-10.00,-2.00,-14.00,-12.00,-4.00,-2.00,+0.00,-5.00,-3.00,-1.00,-6.00,-4.00,-2.00,+0.00
+5.00,+2.00,+3.00,-2.00,-5.00,+10.00,+1.00,+0.00,-7.00,+3.00,+4.00,-11.00,-8.00,-3.00,-3.00,-1.00
-4.00,+1.00,-1.00,+1.00,+9.00,-9.00,-2.00,-11.00,-1.00,-6.00,+0.00,+6.00,+5.00,-2.00,-3.00,+0.00
-4.00,-6.00,-6.00,-4.00,+8.00,+9.00,-2.00,+4.00,-6.00,-2.00,+1.00,+7.00,+1.00,+3.00,+1.00,-7.00
-3.00,-5.00,+2.00,+0.00,+4.00,+5.00,+1.00,+8.00,+5.00,-4.00,+0.00,-3.00,+4.00,-1.00,-1.00,-1.00
-1.00,-6.00,-8.00,-2.00,+6.00,+2.00,+3.00,+2.00,-11.00,-11.00,-1.00,-2.00,-3.00,-1.00,-2.00,-3.00
+0.00,+11.00,+8.00,+2.00,-19.00,-3.00,-2.00,+1.00,-25.00,-2.00,+1.00,+7.00,+2.00,-2.00,-3.00,-11.00
+2.00,+8.00,+7.00,+1.00,-7.00,-6.00,-5.00,-3.00,+32.00,+21.00,+2.00,-4.00,-3.00,+0.00,+2.00,+12.00
-22.00,-43.00,-18.00,-8.00,-5.00,-2.00,-5.00,-16.00,-6.00,-8.00,+0.00,+3.00,+3.00,+0.00,+0.00,+1.00
+17.00,+24.00,+4.00,+2.00,+4.00,+0.00,+2.00,+16.00,+11.00,+9.00,-5.00,-7.00,-5.00,-2.00,-4.00,-2.00
+5.00,-1.00,+5.00,+2.00,+5.00,+10.00,+3.00,+5.00,-7.00,-15.00,-7.00,-5.00,-9.00,-4.00,-4.00,-11.00
+5.00,+8.00,+3.00,+2.00,-5.00,-5.00,+1.00,+0.00,-19.00,+1.00,+4.00,+1.00,-1.00,-1.00,+0.00,-1.00
+0.00,-2.00,+2.00,+0.00,+8.00,+2.00,+0.00,-6.00,+2.00,+9.00,+4.00,+2.00,+3.00,+3.00,+1.00,+4.00
-25.00,-26.00,-11.00,-6.00,-3.00,-7.00,-5.00,-15.00,+10.00,+3.00,-1.00,+2.00,+8.00,+0.00,-2.00,-2.00
+11.00,+9.00,+5.00,+0.00,+3.00,+1.00,+2.00,+8.00,+1.00,-2.00,-5.00,-9.00,-14.00,-6.00,-2.00,+1.00
+8.00,+4.00,+6.00,+4.00,-2.00,+0.00,+2.00,+5.00,-1.00,+6.00,+1.00,+0.00,-3.00,-2.00,-2.00,-1.00
+4.00,+0.00,+0.00,+0.00,-10.00,-2.00,-2.00,+1.00,-1.00,-11.00,-8.00,-3.00,-4.00,-3.00,-5.00,-5.00
-6.00,-8.00,-8.00,-6.00,+1.00,-14.00,-1.00,-3.00,+1.00,-2.00,+0.00,-5.00,-1.00,-2.00,-4.00,+1.00
-11.00,-13.00,-8.00,-2.00,+5.00,+13.00,+0.00,+0.00,-3.00,+0.00,+1.00,+4.00,+5.00,+4.00,+10.00,+7.00
-8.00,-7.00,+2.00,+3.00,-4.00,-4.00,-5.00,-7.00,-11.00,-15.00,-1.00,+8.00,+6.00,+0.00,+1.00,+1.00
+0.00,-12.00,-2.00,-4.00,+3.00,+5.00,-3.00,-1.00,-9.00,-5.00,+0.00,-6.00,-12.00,-5.00,-2.00,-4.00
-8.00,-12.00,-6.00,-5.00,-4.00,-6.00,-4.00,-27.00,+2.00,+6.00,-1.00,-12.00,-23.00,-3.00,+0.00,-1.00
+31.00,+31.00,+13.00,+5.00,-3.00,+10.00,+9.00,+35.00,+6.00,+11.00,+1.00,-4.00,-1.00,-6.00,-3.00,-3.00
+0.00,+11.00,+5.00,+3.00,-12.00,-22.00,-3.00,-1.00,+1.00,+1.00,-5.00,-3.00,-3.00,+3.00,-1.00,+5.00
-13.00,-7.00,-2.00,+1.00,+16.00,+10.00,+1.00,-1.00,-10.00,-15.00,-2.00,+6.00,+9.00,+0.00,-4.00,-4.00
+2.00,+17.00,+9.00,+3.00,+9.00,+7.00,-3.00,+0.00,-4.00,-4.00,-3.00,+0.00,+2.00,-2.00,-3.00,-3.00
-14.00,-29.00,-14.00,-3.00,-3.00,-7.00,-7.00,-15.00,+13.00,+15.00,+1.00,+1.00,-1.00,-1.00,+0.00,-2.00
-2.00,+5.00,+3.00,-3.00,-4.00,+1.00,+0.00,-3.00,-15.00,-17.00,-3.00,-3.00,-2.00,-3.00,+0.00,-4.00
-8.00,-16.00,-17.00,-5.00,-9.00,-5.00,-3.00,-5.00,-4.00,+0.00,-1.00,+2.00,+2.00,+2.00,+0.00,-2.00
-6.00,-11.00,-4.00,-1.00,-1.00,-1.00,+0.00,+14.00,-6.00,-3.00,-3.00,-1.00,+0.00,+1.00,+0.00,-5.00
+3.00,-1.00,+4.00,+3.00,-1.00,-1.00,+3.00,+0.00,+4.00,+7.00,+6.00,+2.00,+1.00,-2.00,-1.00,+1.00
+28.00,+64.00,+18.00,+5.00,+2.00,+4.00,+0.00,+17.00,+27.00,+9.00,-9.00,-5.00,-4.00,-3.00,+0.00,+10.00
+4.00,+20.00,+9.00,+2.00,+0.00,-2.00,-2.00,-8.00,-5.00,-16.00,+0.00,+12.00,+17.00,+1.00,-2.00,+5.00
-9.00,-2.00,+2.00,+4.00,+5.00,+2.00,-4.00,-7.00,-2.00,-1.00,+5.00,-9.00,-15.00,+0.00,+3.00,+2.00
-18.00,-10.00,+5.00,+0.00,-6.00,-7.00,-13.00,-19.00,-2.00,+6.00,-5.00,-4.00,+0.00,+2.00,-4.00,-3.00
-15.00,-73.00,-45.00,-16.00,-4.00,+0.00,-1.00,-34.00,-6.00,-2.00,-1.00,-6.00,-5.00,-1.00,+0.00,-9.00
+10.00,+21.00,-3.00,-6.00,-24.00,-8.00,+10.00,+13.00,-2.00,-3.00,-3.00,-6.00,-7.00,-5.00,-3.00,-2.00
+8.00,+1.00,-2.00,+1.00,+2.00,+10.00,+14.00,+47.00,+1.00,+0.00,-3.00,+0.00,+9.00,+4.00,+1.00,+3.00
-2.00,+12.00,+12.00,+11.00,+35.00,+12.00,+2.00,+3.00,-3.00,+0.00,+1.00,+27.00,+45.00,+5.00,-2.00,-6.00
-9.00,-11.00,+0.00,-4.00,+3.00,-4.00,-6.00,-8.00,+2.00,+3.00,+1.00,-15.00,-21.00,+5.00,+3.00,+4.00
-6.00,-4.00,-6.00,-8.00,-7.00,-2.00,-9.00,-22.00,+0.00,+0.00,-2.00,-9.00,-2.00,-2.00,-1.00,+0.00
+4.00,+8.00,+7.00,+2.00,-12.00,-4.00,-4.00,-12.00,-5.00,-3.00,-3.00,-1.00,-3.00,-4.00,-2.00,-3.00
-3.00,-1.00,-3.00,-9.00,-63.00,-40.00,-11.00,-9.00,+3.00,-8.00,-6.00,-13.00,-17.00,-4.00,+5.00,+6.00
-3.00,-3.00,+0.00,+6.00,+64.00,+28.00,+9.00,+5.00,-1.00,+2.00,+3.00,+15.00,+17.00,-2.00,+2.00,-5.00
-5.00,-9.00,-1.00,+0.00,+6.00,+0.00,-4.00,-5.00,-8.00,-7.00,+2.00,+7.00,+0.00,+8.00,+1.00,-7.00
-10.00,-14.00,-2.00,+0.00,+10.00,+6.00,-2.00,-9.00,+4.00,+0.00,-5.00,-2.00,-4.00,-5.00,-1.00,-10.00
+2.00,+2.00,-11.00,-8.00,-10.00,-4.00,+0.00,+6.00,+7.00,+5.00,+3.00,+1.00,-3.00,+0.00,-2.00,+6.00
+18.00,+27.00,+6.00,+0.00,-22.00,-10.00,-1.00,-4.00,-7.00,-7.00,+3.00,+1.00,-1.00,-4.00,-11.00,+5.00
+8.00,+14.00,+12.00,+8.00,+6.00,+2.00,+2.00,+28.00,+4.00,+9.00,+2.00,-7.00,-8.00,-2.00,+6.00,+9.00
-1.00,+12.00,+13.00,+4.00,+2.00,-5.00,+1.00,-7.00,-5.00,-6.00,-6.00,+2.00,+2.00,-3.00,-8.00,-10.00
-5.00,-18.00,-22.00,-10.00,+1.00,+2.00,+2.00,+1.00,-13.00,-9.00,+0.00,-2.00,-5.00,-1.00,-2.00,-6.00
+6.00,-17.00,-17.00,-9.00,-15.00,-3.00,+3.00,+4.00,-1.00,+0.00,-2.00,-1.00,-2.00,-4.00,-2.00,-8.00
-4.00,+9.00,+22.00,+9.00,+14.00,+6.00,+3.00,+4.00,+0.00,-2.00,-2.00,-7.00,-5.00,-2.00,+2.00,-4.00
+5.00,+3.00,-2.00,+2.00,-9.00,-5.00,-5.00,-5.00,+3.00,+5.00,+1.00,+3.00,+6.00,+2.00,+4.00,+8.00
-11.00,-24.00,-23.00,-9.00,+7.00,+5.00,-1.00,-10.00,-5.00,-5.00,-2.00,-4.00,-8.00,-1.00,-2.00,-1.00
-17.00,-14.00,-6.00,-4.00,-3.00,+2.00,+1.00,-5.00,-6.00,-9.00,-4.00,-4.00,-6.00,-1.00,-3.00,-3.00
-1.00,-5.00,-4.00,+0.00,-2.00,-4.00,-3.00,-3.00,+1.00,+3.00,-5.00,+0.00,+1.00,-2.00,-4.00,-4.00
+10.00,+8.00,+8.00,+1.00,+1.00,+1.00,+2.00,+4.00,+3.00,+4.00,+4.00,+3.00,+1.00,-1.00,+6.00,+4.00
+3.00,+25.00,+10.00,+4.00,+6.00,+2.00,-1.00,-8.00,-8.00,+1.00,+2.00,-2.00,-8.00,-1.00,-1.00,-5.00
-4.00,-12.00,-4.00,-5.00,-10.00,-5.00,-2.00,+1.00,+12.00,+7.00,-1.00,+0.00,+5.00,-2.00,-1.00,-1.00
-13.00,-23.00,-8.00,-5.00,-4.00,-4.00,-1.00,+6.00,+2.00,+4.00,+2.00,+0.00,-7.00,+3.00,+1.00,+2.00
+35.00,+56.00,+21.00,+8.00,+8.00,+7.00,+6.00,+10.00,-3.00,-5.00,+1.00,-3.00,-3.00,-4.00,-2.00,-2.00
+0.00,-5.00,-2.00,+1.00,+9.00,+6.00,-1.00,-3.00,-7.00,-2.00,+1.00,-5.00,-8.00,-3.00,-12.00,-5.00
