+8.00,+3.00,+1.00,+4.00,+2.00,-2.00,-3.00,-1.00,+3.00,+0.00,+0.00,+2.00,+1.00,-1.00,-1.00,+0.00
+23.00,+1.00,-1.00,+0.00,+1.00,+0.00,+4.00,+5.00,-7.00,-3.00,-3.00,+0.00,+0.00,+0.00,+0.00,-4.00
-3.00,-2.00,+1.00,+0.00,-1.00,-2.00,-2.00,+1.00,-4.00,-2.00,-7.00,-1.00,-2.00,+0.00,-3.00,-5.00
-7.00,+3.00,-1.00,-2.00,+0.00,+0.00,-2.00,-4.00,-4.00,-3.00,+0.00,-3.00,-2.00,-4.00,+2.00,+4.00
-10.00,+0.00,-5.00,-4.00,-1.00,-3.00,+2.00,-3.00,+3.00,-6.00,-4.00,-3.00,-2.00,-1.00,+0.00,+0.00
-11.00,-6.00,+0.00,-2.00,-3.00,-1.00,-3.00,-6.00,-2.00,+3.00,+2.00,-1.00,+0.00,-1.00,-3.00,-4.00
+3.00,+0.00,-2.00,+1.00,-2.00,-1.00,-3.00,-4.00,+3.00,-5.00,+2.00,+1.00,+0.00,-2.00,-2.00,-3.00
+3.00,-5.00,-5.00,-2.00,+1.00,+0.00,+3.00,+4.00,-2.00,+5.00,+1.00,+0.00,-1.00,-2.00,-2.00,-1.00
+10.00,+8.00,+1.00,+4.00,-2.00,-2.00,-4.00,+1.00,+16.00,+2.00,+0.00,-2.00,-3.00,-3.00,-3.00,-1.00
-27.00,+0.00,-2.00,-1.00,-1.00,-5.00,+1.00,-7.00,+0.00,-2.00,-2.00,-3.00,-1.00,+2.00,-3.00,-4.00
-10.00,-5.00,-2.00,-3.00,-4.00,-1.00,+1.00,-1.00,-3.00,-13.00,-8.00,-3.00,+0.00,-2.00,-2.00,-3.00
+20.00,+4.00,+1.00,+0.00,+0.00,+0.00,+4.00,+5.00,-5.00,-7.00,-4.00,+0.00,+0.00,+0.00,+0.00,+0.00
-4.00,-21.00,-4.00,-4.00,+0.00,+1.00,-3.00,-1.00,-3.00,+8.00,+4.00,-1.00,-2.00,-1.00,-1.00,+3.00
+3.00,+23.00,+11.00,+1.00,+1.00,+1.00,+1.00,+2.00,-1.00,-4.00,+3.00,+2.00,+1.00,-1.00,+0.00,-1.00
-2.00,-4.00,-5.00,-2.00,-1.00,-1.00,-1.00,+1.00,+2.00,+21.00,+8.00,+2.00,+0.00,+0.00,-2.00,-3.00
+0.00,+6.00,+1.00,-3.00,-2.00,-2.00,-1.00,-3.00,-3.00,-2.00,-2.00,-3.00,-4.00,-7.00,-2.00,+1.00
-3.00,-6.00,-4.00,-1.00,-1.00,+0.00,-3.00,-3.00,-6.00,-5.00,-5.00,-1.00,+1.00,-1.00,-4.00,-5.00
-2.00,-10.00,-3.00,-2.00,-2.00,-1.00,+2.00,+1.00,-7.00,-9.00,-7.00,-1.00,-4.00,-10.00,-1.00,-2.00
-1.00,-28.00,-3.00,-1.00,-1.00,-2.00,-5.00,-4.00,-2.00,+0.00,-2.00,-1.00,-1.00,+15.00,+0.00,+0.00
+16.00,+31.00,+12.00,+2.00,+1.00,+4.00,+5.00,+4.00,+19.00,+2.00,+5.00,+3.00,+0.00,+3.00,+1.00,+3.00
-9.00,-10.00,+0.00,+1.00,+2.00,+2.00,+0.00,-3.00,-14.00,-12.00,-1.00,+0.00,-2.00,+0.00,+3.00,+2.00
-21.00,-11.00,-3.00,-4.00,-3.00,-1.00,-4.00,-12.00,-3.00,+1.00,-2.00,-2.00,-1.00,+0.00,-1.00,+0.00
-1.00,-7.00,-3.00,-1.00,+2.00,+0.00,-3.00,-8.00,+3.00,+8.00,-1.00,-2.00,+0.00,-8.00,-2.00,-1.00
-14.00,-9.00,-4.00,-2.00,+0.00,-4.00,-2.00,-4.00,-7.00,-4.00,-3.00,-2.00,+0.00,+0.00,-4.00,-4.00
-4.00,-6.00,-5.00,-1.00,-3.00,+0.00,-4.00,+2.00,+9.00,+6.00,+3.00,+0.00,-1.00,+2.00,+0.00,+1.00
+13.00,+26.00,+8.00,+5.00,+2.00,+0.00,+4.00,+8.00,+0.00,-2.00,+0.00,+2.00,+0.00,+0.00,-1.00,-8.00
-16.00,+10.00,-1.00,-1.00,-2.00,-4.00,-4.00,-11.00,-7.00,-11.00,-4.00,-2.00,-3.00,-4.00,+1.00,+0.00
-2.00,+3.00,-2.00,-2.00,-2.00,-1.00,+0.00,-6.00,-11.00,-13.00,-10.00,-4.00,-2.00,-5.00,-6.00,-10.00
+8.00,+4.00,-2.00,-1.00,-1.00,-3.00,-2.00,-4.00,+9.00,+5.00,+1.00,-3.00,-1.00,+8.00,+0.00,+2.00
-11.00,-16.00,-3.00,-3.00,-1.00,-3.00,-3.00,-3.00,-3.00,+2.00,+1.00,+0.00,+0.00,+0.00,-2.00,+0.00
+11.00,+6.00,+3.00,-1.00,+0.00,+1.00,+2.00,+4.00,-3.00,+5.00,-2.00,-3.00,-2.00,-2.00,-5.00,-3.00
+2.00,+0.00,+0.00,+1.00,-1.00,+0.00,-5.00,-4.00,+2.00,-6.00,+2.00,-1.00,+1.00,+0.00,+1.00,-1.00
-2.00,-1.00,-5.00,-4.00,-3.00,-1.00,+0.00,+2.00,-13.00,-4.00,+1.00,+0.00,+0.00,-6.00,-6.00,-6.00
+0.00,-11.00,-11.00,-2.00,-1.00,-1.00,-5.00,-5.00,-7.00,-16.00,+3.00,+2.00,-1.00,+2.00,+4.00,+9.00
+6.00,+9.00,+4.00,-2.00,-2.00,-2.00,+1.00,+5.00,+29.00,+32.00,+2.00,-1.00,-1.00,+1.00,+0.00,+8.00
+3.00,+5.00,+5.00,+4.00,+0.00,+2.00,+0.00,+2.00,-12.00,-15.00,-6.00,-3.00,-2.00,-2.00,-2.00,-7.00
-3.00,-23.00,-6.00,-4.00,-1.00,-1.00,+0.00,-1.00,+9.00,+22.00,+4.00,+0.00,-2.00,-2.00,-2.00,+1.00
+10.00,+20.00,+2.00,-1.00,+3.00,+2.00,+1.00,+0.00,-17.00,+4.00,-1.00,-1.00,-2.00,+1.00,-5.00,-7.00
+12.00,-14.00,-2.00,-1.00,+0.00,-1.00,-2.00,-3.00,+2.00,-14.00,+4.00,+2.00,+1.00,-4.00,+2.00,+2.00
-14.00,+15.00,+1.00,-1.00,+0.00,-1.00,-3.00,+3.00,-11.00,+3.00,+0.00,-2.00,+0.00,-1.00,-2.00,-1.00
+15.00,+21.00,+9.00,+3.00,+0.00,-1.00,+1.00,+0.00,+12.00,-6.00,-3.00,-1.00,+0.00,-1.00,+1.00,-2.00
-1.00,-15.00,-6.00,-3.00,-2.00,+0.00,+1.00,+3.00,-6.00,-4.00,-4.00,-3.00,-1.00,-1.00,-1.00,-4.00
+0.00,+1.00,+1.00,+1.00,-1.00,-2.00,-2.00,+0.00,+1.00,-8.00,-3.00,+1.00,-2.00,+0.00,+0.00,-2.00
+6.00,+0.00,-7.00,-1.00,-3.00,-3.00,-2.00,-7.00,+1.00,+10.00,+1.00,-1.00,+1.00,+2.00,+1.00,+1.00
-4.00,-4.00,+5.00,+2.00,+0.00,+0.00,-1.00,-4.00,-10.00,+4.00,+7.00,+1.00,-3.00,-3.00,-2.00,-2.00
+4.00,+1.00,-4.00,-2.00,-1.00,-1.00,+0.00,-1.00,+13.00,+6.00,-2.00,-2.00,-3.00,-11.00,+1.00,+5.00
+1.00,-7.00,-3.00,-2.00,+0.00,+2.00,-2.00,-1.00,-3.00,-2.00,-2.00,-1.00,-3.00,+9.00,+3.00,+1.00
-4.00,-5.00,+3.00,-1.00,+0.00,+0.00,+1.00,+9.00,-2.00,-5.00,+0.00,-1.00,-2.00,+0.00,+2.00,-3.00
+1.00,+10.00,+1.00,-3.00,-3.00,-1.00,+2.00,-3.00,+2.00,-5.00,+0.00,+0.00,+0.00,+1.00,-2.00,+1.00
-5.00,-9.00,-2.00,-2.00,-3.00,-3.00,-4.00,+0.00,+21.00,+14.00,+2.00,+0.00,+1.00,+0.00,+0.00,+4.00
+4.00,+17.00,+6.00,+1.00,+1.00,+0.00,+2.00,+3.00,+0.00,+4.00,+4.00,-1.00,+0.00,-4.00,-2.00,+3.00
-25.00,-41.00,-12.00,-4.00,-4.00,-3.00,-5.00,-3.00,-1.00,-15.00,-7.00,-3.00,-3.00,-1.00,-2.00,-5.00
+5.00,+32.00,+6.00,-1.00,+0.00,+1.00,-2.00,+0.00,+1.00,+16.00,+0.00,+0.00,+1.00,-1.00,+0.00,+0.00
-5.00,+7.00,+5.00,+0.00,+1.00,-1.00,+1.00,+2.00,+7.00,+5.00,+2.00,-1.00,+1.00,+3.00,+2.00,+10.00
+10.00,+8.00,+4.00,+3.00,+1.00,-1.00,+0.00,-1.00,-20.00,-6.00,+1.00,+0.00,-3.00,-3.00,-1.00,-2.00
+8.00,-2.00,+0.00,+1.00,+0.00,-1.00,+0.00,-1.00,+14.00,-5.00,-5.00,+2.00,+5.00,+5.00,+2.00,+2.00
+0.00,-11.00,-3.00,+1.00,+0.00,+0.00,+1.00,+2.00,+7.00,-7.00,-2.00,-4.00,-2.00,-1.00,-1.00,+0.00
-13.00,-17.00,-7.00,-3.00,-5.00,-2.00,-4.00,-6.00,-3.00,+3.00,+1.00,-2.00,-1.00,+2.00,+0.00,-7.00
+9.00,-13.00,+1.00,-1.00,+1.00,+3.00,-1.00,+4.00,-9.00,-42.00,-13.00,+0.00,+3.00,-16.00,-4.00,-5.00
-7.00,+12.00,+5.00,-1.00,+1.00,+0.00,+0.00,+2.00,-25.00,+33.00,+9.00,+1.00,-1.00,+10.00,+2.00,+0.00
-7.00,-10.00,-8.00,-4.00,-1.00,-1.00,-1.00,+0.00,+15.00,+9.00,+1.00,+2.00,-2.00,-4.00,+6.00,+9.00
+15.00,+36.00,+7.00,+2.00,+3.00,+4.00,+6.00,+9.00,-3.00,-7.00,-4.00,-2.00,-1.00,+1.00,-1.00,-1.00
-8.00,-7.00,-9.00,-3.00,-3.00,-4.00,-4.00,-5.00,-8.00,-4.00,+1.00,+0.00,-2.00,-2.00,-1.00,-5.00
+5.00,-5.00,+2.00,+1.00,+0.00,+2.00,+2.00,+5.00,+20.00,+0.00,-3.00,+0.00,-5.00,-3.00,-1.00,+3.00
+7.00,-1.00,-3.00,-2.00,+1.00,+4.00,+3.00,+5.00,-42.00,-6.00,-4.00,-4.00,-2.00,-1.00,+2.00,-10.00
+5.00,-13.00,+5.00,+4.00,-1.00,+0.00,-2.00,-6.00,+10.00,+0.00,-2.00,-1.00,-3.00,-20.00,-6.00,-1.00
-29.00,+9.00,-5.00,-2.00,-3.00,-1.00,-1.00,+5.00,-11.00,-10.00,-7.00,-5.00,-1.00,+8.00,-4.00,+0.00
+2.00,+0.00,-5.00,-2.00,+1.00,+0.00,-1.00,-2.00,-16.00,-18.00,-6.00,-4.00,-5.00,-6.00,-6.00,-8.00
-7.00,-11.00,-1.00,-2.00,-4.00,-3.00,-6.00,-10.00,+17.00,+8.00,+2.00,-2.00,-2.00,+2.00,-3.00,-1.00
-4.00,-15.00,-4.00,-4.00,-1.00,-1.00,-1.00,-2.00,-13.00,+4.00,-3.00,+0.00,+0.00,-3.00,-6.00,-2.00
-15.00,+1.00,-3.00,-3.00,-2.00,-2.00,+0.00,-10.00,+30.00,+19.00,+9.00,+3.00,+0.00,-7.00,-3.00,+3.00
+4.00,-12.00,+1.00,-1.00,-1.00,-4.00,-9.00,-1.00,+8.00,+1.00,-2.00,-1.00,-2.00,-5.00,-1.00,+0.00
-8.00,-15.00,-6.00,+0.00,+1.00,-1.00,+4.00,-2.00,-19.00,-25.00,-11.00,-4.00,+2.00,+0.00,-5.00,-13.00
-6.00,-3.00,-6.00,-4.00,-2.00,-1.00,-2.00,-4.00,-24.00,-10.00,-5.00,-2.00,-1.00,+3.00,+1.00,-5.00
+1.00,-1.00,-4.00,+0.00,-2.00,-1.00,-1.00,+2.00,+2.00,+32.00,+5.00,-1.00,-2.00,-5.00,-2.00,-1.00
+6.00,-10.00,-9.00,-2.00,-2.00,+0.00,+0.00,-9.00,-11.00,-12.00,+1.00,+2.00,+17.00,+9.00,+1.00,+4.00
+11.00,+5.00,+3.00,+0.00,+1.00,+2.00,+1.00,+10.00,+14.00,-13.00,-3.00,+0.00,-21.00,+0.00,+1.00,+6.00
-9.00,-21.00,-6.00,-2.00,-4.00,-3.00,-2.00,+2.00,-8.00,-16.00,-8.00,-6.00,-2.00,-1.00,-2.00,-4.00
+5.00,-8.00,-6.00,-3.00,-1.00,+0.00,-3.00,+6.00,-29.00,-6.00,-7.00,-6.00,-5.00,+3.00,+0.00,-5.00
+4.00,+22.00,+5.00,+1.00,-1.00,-4.00,-1.00,-2.00,+43.00,+26.00,+11.00,+3.00,+0.00,-6.00,+2.00,+5.00
-3.00,-25.00,-9.00,+1.00,-3.00,-6.00,-4.00,-3.00,+6.00,-11.00,-2.00,+5.00,+8.00,-1.00,-1.00,+0.00
+11.00,+29.00,+6.00,+1.00,-1.00,-2.00,+9.00,+2.00,+22.00,+10.00,+2.00,-1.00,-2.00,+7.00,+1.00,+0.00
+19.00,+14.00,+11.00,+1.00,+5.00,+7.00,+1.00,+12.00,-13.00,-4.00,-4.00,-1.00,-1.00,+1.00,-1.00,+1.00
-7.00,+8.00,-7.00,-5.00,-3.00,-2.00,+2.00,+1.00,-33.00,-16.00,-9.00,-6.00,-7.00,-6.00,-7.00,-9.00
-12.00,-4.00,-5.00,-6.00,-4.00,-3.00,-1.00,-3.00,-20.00,-13.00,-3.00,-6.00,-3.00,-37.00,-11.00,-20.00
+15.00,+13.00,+8.00,+5.00,+3.00,+0.00,-2.00,+0.00,+39.00,+32.00,+13.00,+8.00,+4.00,+37.00,+10.00,+25.00
-3.00,-18.00,-2.00,+3.00,+0.00,+0.00,+5.00,+0.00,-6.00,-3.00,+1.00,-1.00,+4.00,+6.00,-2.00,-5.00
+4.00,+3.00,+7.00,+0.00,-2.00,-2.00,+0.00,+2.00,-22.00,-24.00,-14.00,-4.00,-6.00,-6.00,+0.00,-7.00
-2.00,+9.00,-2.00,-2.00,-1.00,+0.00,+0.00,+0.00,-12.00,+13.00,+6.00,-3.00,-3.00,+4.00,-2.00,+0.00
-12.00,-11.00,-12.00,-7.00,-4.00,-5.00,-6.00,-5.00,-20.00,-28.00,-5.00,-1.00,+1.00,-16.00,-11.00,-15.00
-8.00,+11.00,+5.00,+0.00,-4.00,-4.00,-4.00,-6.00,+6.00,+14.00,-2.00,-2.00,-6.00,-7.00,-1.00,-2.00
+5.00,-1.00,+1.00,+6.00,+6.00,+2.00,+1.00,+6.00,+33.00,+8.00,+3.00,+1.00,+1.00,+6.00,+1.00,+7.00
+4.00,+2.00,+0.00,-1.00,-2.00,+2.00,+3.00,-6.00,+13.00,+10.00,-4.00,-1.00,+6.00,+7.00,+9.00,+19.00
-32.00,-31.00,-10.00,-6.00,-1.00,+0.00,-5.00,+0.00,-66.00,-71.00,-17.00,-3.00,+12.00,-22.00,-9.00,-26.00
-5.00,+21.00,+10.00,+2.00,+0.00,-8.00,+1.00,-4.00,+15.00,+20.00,+7.00,-1.00,-13.00,+26.00,-1.00,+13.00
-5.00,-4.00,-4.00,-1.00,-3.00,-4.00,-6.00,-4.00,+1.00,+7.00,+2.00,-1.00,-5.00,-5.00,+19.00,-8.00
+10.00,+4.00,+1.00,+1.00,+1.00,+2.00,+0.00,-2.00,-4.00,+1.00,+0.00,+2.00,+3.00,+4.00,+1.00,+2.00
-19.00,-16.00,-5.00,-2.00,-2.00,-3.00,+6.00,-5.00,-49.00,-42.00,-24.00,-5.00,-6.00,-3.00,-9.00,-22.00
+0.00,-15.00,-11.00,-5.00,-2.00,+6.00,-1.00,-1.00,+7.00,+0.00,+4.00,+0.00,+3.00,-11.00,-4.00,+1.00
-6.00,+23.00,-2.00,-4.00,-4.00,-4.00,+4.00,-2.00,-2.00,+7.00,+5.00,+3.00,-2.00,-7.00,-5.00,+3.00
-5.00,+7.00,+6.00,+3.00,+5.00,+5.00,-11.00,-10.00,+16.00,-2.00,-3.00,-3.00,+1.00,+12.00,+0.00,+2.00
+12.00,-3.00,+1.00,+2.00,+3.00,+1.00,-6.00,+2.00,+17.00,+17.00,+3.00,+3.00,+4.00,+3.00,+4.00,+5.00
-20.00,-9.00,-4.00,-1.00,-1.00,-3.00,-2.00,-5.00,-37.00,-12.00,-5.00,-4.00,-3.00,-11.00,-2.00,-11.00
-12.00,-37.00,-20.00,-9.00,-3.00,-1.00,-5.00,-11.00,-16.00,-19.00,-12.00,-5.00,-5.00,-8.00,-3.00,-2.00
-1.00,+17.00,+2.00,-1.00,-4.00,-6.00,-2.00,+1.00,+16.00,+7.00,+2.00,+0.00,+5.00,+9.00,+3.00,+7.00
+10.00,+8.00,+8.00,+4.00,+0.00,-3.00,-1.00,+3.00,-8.00,+21.00,+5.00,-9.00,-10.00,-6.00,-2.00,+4.00
+3.00,+4.00,-4.00,-2.00,+0.00,+7.00,-1.00,-6.00,+36.00,+8.00,+2.00,-2.00,+2.00,-3.00,+2.00,+4.00
+3.00,-7.00,+2.00,+0.00,+1.00,+4.00,+4.00,-4.00,-2.00,+14.00,+7.00,+1.00,-1.00,-1.00,-4.00,-2.00
-2.00,+2.00,-4.00,-2.00,-3.00,-6.00,-3.00,-2.00,-11.00,-16.00,-11.00,-5.00,-13.00,-67.00,-13.00,-16.00
-26.00,-10.00,-9.00,-4.00,-2.00,-5.00,-5.00,-5.00,+1.00,+12.00,+18.00,+10.00,+35.00,+86.00,+16.00,+10.00
-5.00,+13.00,+7.00,+1.00,+1.00,+0.00,+6.00,+12.00,+54.00,+15.00,+2.00,-1.00,-24.00,-4.00,+3.00,+8.00
-3.00,-16.00,-4.00,-3.00,-6.00,-4.00,-2.00,-2.00,+1.00,-20.00,-7.00,-5.00,+1.00,+5.00,-8.00,-7.00
-2.00,-16.00,-3.00,+0.00,+0.00,+0.00,-1.00,+2.00,-25.00,-17.00,-5.00,-6.00,-5.00,+0.00,-4.00,-10.00
+9.00,+20.00,+1.00,+1.00,+0.00,+2.00,+1.00,+1.00,+41.00,+34.00,+6.00,-3.00,-13.00,-28.00,-4.00,+3.00
+1.00,-47.00,-16.00,-5.00,-5.00,-16.00,-12.00,-5.00,-32.00,-6.00,+5.00,+0.00,+10.00,-5.00,-2.00,-5.00
+13.00,+75.00,+30.00,+9.00,+0.00,+1.00,+4.00,+3.00,+8.00,+20.00,+8.00,+4.00,+1.00,+10.00,-3.00,-2.00
-9.00,-18.00,+4.00,+1.00,+5.00,+9.00,+2.00,+7.00,-19.00,-33.00,-18.00,+5.00,+3.00,+6.00,-4.00,-12.00
+5.00,-4.00,-1.00,-2.00,-1.00,+1.00,-4.00,-3.00,+20.00,+22.00,+7.00,+5.00,-5.00,-16.00,-3.00,+4.00
-3.00,-5.00,-8.00,-4.00,-4.00,+3.00,-5.00,-6.00,-36.00,-38.00,-11.00,+5.00,+0.00,+18.00,+2.00,-10.00
-9.00,-34.00,-10.00,-2.00,-3.00,+1.00,-2.00,-1.00,+33.00,+7.00,+8.00,+4.00,-13.00,-14.00,+3.00,+17.00
+17.00,+45.00,+13.00,+2.00,-2.00,-7.00,-1.00,-4.00,-17.00,-21.00,-13.00,-11.00,+2.00,+8.00,-7.00,-18.00
+13.00,+5.00,+4.00,+2.00,+1.00,+0.00,+2.00,+3.00,+15.00,+15.00,+5.00,-3.00,-7.00,-7.00,+4.00,+7.00
-2.00,-9.00,-7.00,-5.00,-1.00,+6.00,+0.00,-1.00,+25.00,+31.00,+9.00,+3.00,+15.00,+3.00,+0.00,+10.00
-1.00,-15.00,-2.00,-2.00,-5.00,-19.00,+1.00,-1.00,-11.00,+25.00,+11.00,-1.00,+3.00,+1.00,-2.00,+6.00
-12.00,+5.00,+2.00,+0.00,+2.00,+4.00,-7.00,-4.00,-13.00,-69.00,-9.00,-4.00,-1.00,+12.00,-2.00,+3.00
+11.00,+12.00,+7.00,+5.00,+7.00,+4.00,+1.00,-1.00,+44.00,+98.00,+30.00,+7.00,-1.00,-12.00,+1.00,+16.00
-3.00,-11.00,-10.00,-6.00,-5.00,-5.00,+0.00,+0.00,-26.00,-23.00,-12.00,-7.00,-3.00,-12.00,-3.00,-10.00
+2.00,+11.00,+4.00,+1.00,+2.00,+2.00,-3.00,-5.00,-24.00,+9.00,-3.00,-4.00,+7.00,+30.00,-1.00,-7.00
+0.00,-19.00,-8.00,-1.00,+0.00,-2.00,-2.00,+4.00,+43.00,+16.00,+4.00,-1.00,+8.00,-19.00,-9.00,+4.00
+3.00,+5.00,+6.00,+3.00,-2.00,+3.00,+10.00,-5.00,-26.00,-38.00,-15.00,-8.00,-22.00,+10.00,+0.00,-2.00
+5.00,+39.00,+15.00,+1.00,+0.00,+2.00,-1.00,+1.00,+11.00,-5.00,+1.00,-2.00,+1.00,-5.00,-5.00,-3.00
+7.00,-17.00,+17.00,+14.00,+8.00,+2.00,+5.00,+10.00,+3.00,-5.00,-3.00,-5.00,-4.00,+1.00,-6.00,-1.00
-4.00,-6.00,-6.00,-6.00,-5.00,-6.00,+2.00,+0.00,-1.00,+25.00,+4.00,+1.00,+0.00,+0.00,+7.00,-1.00
+2.00,+6.00,+1.00,-1.00,-2.00,-5.00,-17.00,-2.00,-28.00,-51.00,-8.00,+1.00,+18.00,+2.00,-1.00,-4.00
-1.00,+4.00,-1.00,-2.00,-7.00,-14.00,+7.00,-6.00,+11.00,+9.00,-1.00,+8.00,+15.00,+4.00,+4.00,+6.00
-13.00,-4.00,-9.00,-3.00,+6.00,+38.00,+3.00,-3.00,-25.00,-39.00,-10.00,-2.00,-15.00,-20.00,-14.00,-12.00
+13.00,+2.00,+7.00,+1.00,-1.00,-4.00,-4.00,+3.00,-19.00,-14.00,-8.00,-3.00,-1.00,-18.00,+26.00,-3.00
+9.00,-9.00,-5.00,-6.00,-3.00,-1.00,-5.00,+4.00,+12.00,+39.00,+1.00,-2.00,+4.00,-39.00,-13.00,-7.00
-23.00,-31.00,-7.00,-2.00,-1.00,-3.00,-11.00,-7.00,-4.00,-33.00,-9.00,-1.00,-15.00,+37.00,+3.00,+2.00
-24.00,-7.00,-9.00,-3.00,+0.00,-1.00,+8.00,-7.00,-31.00,+16.00,-1.00,+0.00,+41.00,+4.00,-2.00,-11.00
+13.00,+30.00,+10.00,+3.00,+7.00,-8.00,+10.00,+4.00,-12.00,+20.00,+9.00,-5.00,-52.00,-12.00,-17.00,-7.00
+5.00,+10.00,-2.00,-3.00,-3.00,+23.00,+2.00,-1.00,-8.00,-20.00,-7.00,-2.00,-6.00,-4.00,+0.00,-8.00
+11.00,+12.00,-2.00,-3.00,-2.00,+15.00,-4.00,-7.00,-24.00,-9.00,-2.00,-3.00,+0.00,-53.00,-7.00,-2.00
-7.00,-48.00,-7.00,-3.00,-11.00,-39.00,-24.00,-2.00,+33.00,-6.00,-9.00,-15.00,-23.00,+4.00,-19.00,-30.00
-13.00,-12.00,-6.00,-4.00,+5.00,+28.00,+11.00,-1.00,+24.00,+17.00,+13.00,+5.00,+13.00,+24.00,+4.00,+16.00
-2.00,-4.00,+1.00,+4.00,-4.00,-59.00,-16.00,-1.00,-57.00,-35.00,-17.00,-6.00,-7.00,+4.00,-11.00,-20.00
+3.00,-15.00,-4.00,+1.00,+11.00,+10.00,+9.00,+0.00,+8.00,-18.00,-14.00,-4.00,+16.00,+6.00,+3.00,+5.00
+17.00,+32.00,+6.00,-2.00,-18.00,-13.00,+2.00,+9.00,-15.00,-10.00,-4.00,-4.00,-18.00,-19.00,-2.00,-11.00
-16.00,-24.00,-17.00,-3.00,-5.00,-2.00,-8.00,-8.00,+24.00,+67.00,+19.00,+2.00,+23.00,+13.00,+2.00,+11.00
-4.00,+1.00,+13.00,+1.00,+4.00,+9.00,+1.00,+8.00,+4.00,-4.00,+3.00,-2.00,-21.00,-6.00,-4.00,-4.00
+16.00,+4.00,+1.00,+3.00,+2.00,+0.00,-3.00,+2.00,-8.00,+5.00,+3.00,-2.00,-4.00,-5.00,-12.00,-13.00
-6.00,-5.00,-12.00,-7.00,+4.00,-1.00,+3.00,-4.00,-33.00,-71.00,-26.00,+0.00,+9.00,-8.00,+8.00,+2.00
+2.00,-10.00,-3.00,-4.00,-3.00,-31.00,-9.00,-2.00,+13.00,-12.00,+12.00,+8.00,+63.00,+28.00,-2.00,+13.00
-13.00,-8.00,-14.00,-5.00,-3.00,+11.00,+5.00,-8.00,+58.00,+44.00,+4.00,-3.00,-87.00,-2.00,+8.00,+0.00
+13.00,+22.00,+13.00,+6.00,-2.00,-16.00,+8.00,+8.00,+22.00,+19.00,+5.00,+2.00,+7.00,+5.00,+6.00,+25.00
+0.00,-5.00,-5.00,+1.00,+6.00,+9.00,-5.00,-1.00,+24.00,+17.00,+5.00,+4.00,-11.00,-1.00,-7.00,-9.00
-6.00,-4.00,-7.00,-2.00,-1.00,+0.00,-1.00,-4.00,-4.00,+25.00,-1.00,+6.00,+89.00,-3.00,-2.00,-8.00
-4.00,-9.00,-2.00,-4.00,-7.00,-8.00,+3.00,-3.00,+10.00,-24.00,-1.00,-5.00,-54.00,-34.00,-4.00,+3.00
+5.00,+62.00,+25.00,+7.00,-8.00,-36.00,-13.00,+2.00,-37.00,-29.00,-8.00,-11.00,+14.00,+38.00,-3.00,-33.00
+3.00,-11.00,-10.00,-5.00,-3.00,+15.00,+2.00,-1.00,-4.00,+1.00,-6.00,-4.00,-6.00,+2.00,+0.00,-3.00
-6.00,-13.00,+4.00,+4.00,+8.00,+34.00,+31.00,+8.00,+33.00,-21.00,+9.00,+14.00,-10.00,+14.00,+9.00,+19.00
+14.00,-10.00,-1.00,+1.00,+8.00,+9.00,+6.00,-5.00,-1.00,+38.00,+7.00,+4.00,+55.00,-11.00,-8.00,+0.00
-21.00,-10.00,-6.00,-4.00,-36.00,-107.00,-10.00,-6.00,-43.00,-29.00,-10.00,-11.00,-44.00,-26.00,+7.00,-14.00
+3.00,+2.00,+10.00,+6.00,+33.00,+77.00,+12.00,+5.00,-20.00,+1.00,+1.00,-3.00,+13.00,+26.00,+1.00,+3.00
+6.00,+1.00,-11.00,-3.00,-1.00,-14.00,-8.00,+1.00,+6.00,+23.00,-4.00,+2.00,-28.00,-10.00,+2.00,-3.00
+4.00,-6.00,-10.00,-4.00,+0.00,-7.00,-2.00,+3.00,+14.00,-44.00,-16.00,-9.00,+14.00,+25.00,+7.00,+4.00
-16.00,+17.00,+19.00,+9.00,+7.00,+25.00,+6.00,+3.00,-24.00,-23.00,-16.00,-3.00,-11.00,-16.00,-12.00,-8.00
-4.00,-25.00,-15.00,-3.00,-12.00,-53.00,-21.00,-8.00,-13.00,+16.00,+12.00,+4.00,+32.00,-1.00,+2.00,+10.00
+13.00,-1.00,+3.00,+0.00,-9.00,+14.00,+6.00,+4.00,+10.00,+19.00,-2.00,-3.00,-34.00,+9.00,+7.00,+9.00
+6.00,+3.00,-6.00,-2.00,+6.00,+34.00,+10.00,+5.00,-42.00,-34.00,-11.00,-3.00,-4.00,-13.00,-8.00,-13.00
+17.00,+8.00,-2.00,-1.00,+4.00,+38.00,-7.00,+3.00,+78.00,+36.00,+9.00,+9.00,+27.00,+19.00,+16.00,+38.00
+2.00,-7.00,-3.00,+0.00,-2.00,-19.00,-11.00,-2.00,-43.00,-73.00,-12.00,+2.00,-8.00,-14.00,-6.00,-11.00
-26.00,-2.00,-6.00,-6.00,-2.00,-19.00,-7.00,-7.00,+37.00,+39.00,+1.00,+3.00,+15.00,+2.00,-12.00,-15.00
+7.00,+44.00,+12.00,+2.00,-5.00,+32.00,-4.00,-1.00,-4.00,+42.00,+27.00,+3.00,+5.00,+6.00,+3.00,+14.00
-8.00,-43.00,-12.00,-1.00,+17.00,+19.00,+7.00,+1.00,-41.00,-25.00,-8.00,-11.00,-24.00,-31.00,-4.00,-9.00
+5.00,+31.00,-3.00,-6.00,-5.00,+4.00,-1.00,-5.00,+3.00,+17.00,-5.00,-2.00,+21.00,+45.00,+8.00,+6.00
-1.00,-33.00,+2.00,+5.00,-2.00,-14.00,+3.00,+2.00,+52.00,+69.00,+33.00,+14.00,-19.00,-6.00,+8.00,+50.00
-11.00,-17.00,+3.00,+2.00,-2.00,-1.00,-2.00,-3.00,-71.00,-85.00,-25.00,-2.00,+10.00,+25.00,+1.00,-32.00
+9.00,-8.00,-12.00,-7.00,-3.00,+7.00,+3.00,-9.00,+23.00,+63.00,+18.00,+2.00,+4.00,+23.00,+8.00,+8.00
+24.00,+26.00,+14.00,+9.00,+11.00,+12.00,+0.00,+5.00,-34.00,-39.00,-13.00,-3.00,+24.00,-51.00,-6.00,-6.00
-37.00,-2.00,-11.00,-11.00,-5.00,-11.00,-17.00,-24.00,-124.00,-88.00,-37.00,-16.00,-59.00,-2.00,+17.00,-33.00
-5.00,-3.00,-10.00,-6.00,-2.00,-43.00,+0.00,+0.00,+110.00,+83.00,+24.00,+6.00,+33.00,+26.00,+3.00,+37.00
+28.00,+27.00,+30.00,+19.00,+2.00,+34.00,+27.00,+9.00,-65.00,-54.00,-16.00,+19.00,+53.00,-10.00,-1.00,-3.00
-17.00,-51.00,-18.00,-9.00,-9.00,-65.00,-16.00,+4.00,+122.00,+61.00,+15.00,-5.00,-92.00,-27.00,+10.00,+46.00
+28.00,+47.00,+16.00,+3.00,-7.00,+54.00,+2.00,+9.00,-82.00,-15.00,-10.00,-4.00,+41.00,-31.00,-18.00,-27.00
-11.00,+8.00,-8.00,-7.00,-16.00,-29.00,-33.00,-10.00,+70.00,-1.00,-6.00,-2.00,-55.00,-12.00,+12.00,+9.00
+0.00,-12.00,-7.00,-4.00,+18.00,+5.00,+9.00,-6.00,+29.00,+5.00,+4.00,-6.00,-25.00,-24.00,+4.00,+11.00
-8.00,+2.00,+12.00,+8.00,+0.00,-3.00,+2.00,+3.00,-32.00,-11.00,-5.00,-1.00,+32.00,+9.00,-12.00,-22.00
-12.00,-11.00,-8.00,-6.00,-18.00,-73.00,-12.00,-9.00,+41.00,+13.00,+9.00,+12.00,+8.00,+1.00,+4.00,+17.00
-9.00,+4.00,+14.00,+6.00,+16.00,+51.00,+21.00,-4.00,-91.00,-69.00,-27.00,+7.00,+36.00,+34.00,-7.00,-30.00
-14.00,+0.00,-15.00,-8.00,-6.00,+13.00,-22.00,+1.00,+18.00,+25.00,+6.00,-6.00,-16.00,+13.00,+8.00,-6.00
-5.00,+4.00,+4.00,+0.00,+8.00,+8.00,+30.00,-3.00,-44.00,-53.00,-9.00,+1.00,-4.00,-4.00,-6.00,-20.00
+7.00,-10.00,+0.00,+6.00,+23.00,+38.00,-4.00,+4.00,+11.00,-28.00,-15.00,-13.00,-34.00,-6.00,-9.00,+1.00
-34.00,-22.00,-13.00,-5.00,-12.00,-6.00,-7.00,-12.00,-39.00,+23.00,+10.00,-1.00,+60.00,-9.00,-7.00,-14.00
+9.00,+6.00,+9.00,+0.00,-4.00,-41.00,-6.00,+0.00,+39.00,+39.00,+15.00,+2.00,-44.00,+74.00,+3.00,+9.00
-1.00,+8.00,-6.00,-6.00,-14.00,-21.00,+6.00,-2.00,-33.00,-10.00,+0.00,+0.00,+26.00,+11.00,+9.00,+2.00
+12.00,-1.00,+0.00,+0.00,+6.00,+43.00,+1.00,+4.00,+4.00,-33.00,-10.00,-8.00,-61.00,-6.00,-4.00,-11.00
+3.00,-18.00,-8.00,-3.00,-2.00,-12.00,+0.00,-4.00,+41.00,+44.00,+7.00,+2.00,+30.00,-1.00,+4.00,+14.00
-6.00,-17.00,-11.00,-8.00,+2.00,-4.00,-7.00,+2.00,-44.00,-41.00,-17.00,-8.00,+25.00,-23.00,-25.00,-40.00
+5.00,+43.00,+4.00,-3.00,-16.00,+12.00,-1.00,+1.00,+48.00,+74.00,+20.00,+8.00,-37.00,+3.00,+14.00,+33.00
+8.00,+2.00,+8.00,+5.00,+3.00,-32.00,-9.00,+1.00,+24.00,-48.00,-9.00,-5.00,+50.00,-6.00,-8.00,+7.00
+9.00,-1.00,-1.00,+1.00,-1.00,+9.00,+3.00,-4.00,+1.00,+30.00,+7.00,-12.00,-32.00,-14.00,-6.00,-7.00
-17.00,-10.00,-7.00,-3.00,+1.00,+24.00,-4.00,-10.00,-14.00,-8.00,-3.00,+5.00,-10.00,-8.00,-5.00,-19.00
-2.00,-16.00,+5.00,+3.00,-3.00,+17.00,-3.00,+6.00,-5.00,+10.00,-2.00,-4.00,+29.00,+26.00,-4.00,+11.00
-9.00,-43.00,-23.00,-10.00,-11.00,-41.00,-14.00,-2.00,-49.00,-59.00,-26.00,-22.00,-14.00,-30.00,+6.00,-26.00
+17.00,+44.00,+24.00,+10.00,+24.00,+54.00,+26.00,+14.00,+101.00,+56.00,+18.00,+25.00,+97.00,+8.00,+12.00,+70.00
-5.00,-35.00,-11.00,-5.00,-17.00,-2.00,+17.00,+3.00,-79.00,-5.00,-4.00,+0.00,-85.00,+31.00,+5.00,+0.00
-1.00,+7.00,+6.00,+6.00,+17.00,-6.00,+13.00,+1.00,+62.00,+43.00,+22.00,-9.00,-4.00,-17.00,+9.00,+24.00
-1.00,+6.00,+1.00,-5.00,-15.00,+17.00,-11.00,-12.00,-1.00,+54.00,+18.00,+12.00,-19.00,-45.00,-19.00,-3.00
-28.00,-2.00,-2.00,+2.00,+21.00,+14.00,+31.00,+8.00,-95.00,-76.00,-27.00,-13.00,+45.00,+67.00,-1.00,-39.00
-14.00,-19.00,-16.00,-12.00,-3.00,-2.00,-4.00,-14.00,-22.00,-52.00,-12.00,-8.00,-33.00,-46.00,-8.00,-11.00
-9.00,+14.00,+5.00,+2.00,-18.00,-10.00,+1.00,+1.00,+101.00,+37.00,+3.00,+8.00,+37.00,+23.00,-2.00,+2.00
-23.00,+4.00,+8.00,+1.00,+0.00,-43.00,+15.00,-4.00,+40.00,+31.00,+6.00,-3.00,+8.00,+33.00,+16.00,+50.00
-6.00,-45.00,-3.00,+4.00,+16.00,+29.00,+6.00,+8.00,-43.00,-15.00,+2.00,-1.00,-58.00,-32.00,-4.00,-14.00
-2.00,+3.00,-8.00,+1.00,+8.00,+17.00,+3.00,+1.00,+101.00,+13.00,+4.00,+5.00,+26.00,-37.00,-9.00,+23.00
+2.00,-34.00,-14.00,-7.00,-29.00,-37.00,+3.00,-3.00,-40.00,+50.00,+25.00,+7.00,-2.00,+10.00,+6.00,+11.00
+9.00,+22.00,+7.00,+3.00,+27.00,+53.00,+5.00,-4.00,-46.00,-24.00,-10.00,+1.00,-14.00,+15.00,-10.00,-33.00
-8.00,+2.00,-5.00,-5.00,-41.00,-53.00,-23.00,-8.00,-65.00,-73.00,-35.00,-11.00,-15.00,+3.00,-16.00,-27.00
-8.00,+5.00,+17.00,+6.00,+15.00,+21.00,+5.00,+2.00,+56.00,+33.00,+15.00,-1.00,+29.00,-9.00,+19.00,+27.00
+21.00,+10.00,-5.00,-4.00,+9.00,-4.00,-10.00,+3.00,+15.00,-22.00,-18.00,-15.00,-64.00,-60.00,-11.00,-18.00
-3.00,+15.00,+1.00,-1.00,-1.00,-17.00,+6.00,+6.00,-28.00,-30.00,-3.00,+14.00,+28.00,+55.00,-14.00,-11.00
+24.00,+35.00,+17.00,+9.00,-2.00,-5.00,+10.00,+7.00,-46.00,-16.00,-1.00,-12.00,-35.00,-40.00,-11.00,-18.00
+2.00,-22.00,+0.00,-2.00,-7.00,-50.00,-28.00,+0.00,+27.00,+30.00,+19.00,+13.00,+72.00,+27.00,+11.00,+28.00
-30.00,+16.00,-11.00,-10.00,-16.00,+22.00,-7.00,-26.00,-78.00,-30.00,-21.00,+3.00,-66.00,-22.00,-15.00,-23.00
+26.00,+27.00,+14.00,+7.00,+1.00,+34.00,+10.00,+15.00,+60.00,+45.00,+10.00,-4.00,+24.00,-2.00,+3.00,+18.00
-12.00,-19.00,-14.00,-8.00,+2.00,+23.00,-3.00,-7.00,-77.00,-35.00,-8.00,-8.00,-41.00,-28.00,-2.00,-7.00
-7.00,-22.00,-9.00,-2.00,+1.00,-21.00,-17.00,-12.00,-9.00,+20.00,+16.00,+7.00,+41.00,+17.00,-10.00,+2.00
-12.00,+10.00,-5.00,-2.00,+0.00,-27.00,-12.00,-6.00,+85.00,-16.00,+1.00,+7.00,+65.00,+9.00,+7.00,+14.00
-1.00,+46.00,+29.00,+11.00,+4.00,-42.00,-8.00,-4.00,-62.00,+15.00,-1.00,+15.00,+19.00,+17.00,-5.00,-30.00
+4.00,-23.00,-20.00,-13.00,-7.00,-3.00,-3.00,+0.00,+61.00,+34.00,+14.00,-2.00,-55.00,-25.00,-1.00,+22.00
+5.00,+10.00,+1.00,+5.00,-13.00,+6.00,-6.00,+3.00,-45.00,-41.00,-22.00,-15.00,-10.00,-22.00,-13.00,-32.00
+4.00,-33.00,-9.00,-3.00,+9.00,+24.00,-19.00,-7.00,-86.00,-59.00,-22.00,-8.00,+1.00,+6.00,+7.00,-30.00
+14.00,+42.00,+9.00,+0.00,+11.00,-8.00,+11.00,+16.00,+66.00,+40.00,+18.00,-4.00,-18.00,-8.00,+26.00,+57.00
-4.00,-42.00,-1.00,-2.00,-16.00,+13.00,+3.00,+7.00,+39.00,-21.00,-15.00,+8.00,+50.00,-23.00,-2.00,+1.00
+30.00,+43.00,+7.00,+1.00,+1.00,-52.00,-16.00,+0.00,-52.00,-14.00,-7.00,+9.00,+48.00,+17.00,-14.00,-27.00
+26.00,+5.00,+0.00,+2.00,+3.00,+8.00,+11.00,-4.00,-60.00,-56.00,-17.00,-23.00,-107.00,-23.00,-30.00,-41.00
+2.00,-16.00,-13.00,-11.00,-24.00,-21.00,-4.00,+10.00,+7.00,+16.00,+7.00,-7.00,+22.00,-20.00,+1.00,+3.00
-5.00,-15.00,-8.00,-3.00,+5.00,-14.00,-11.00,+2.00,+48.00,+27.00,+18.00,+16.00,+7.00,+4.00,+12.00,+26.00
-6.00,-6.00,+3.00,+7.00,+7.00,+16.00,+17.00,+4.00,+29.00,+2.00,-3.00,+2.00,+29.00,+5.00,+8.00,+23.00
+7.00,+32.00,+1.00,-3.00,-11.00,-10.00,-13.00,+9.00,-1.00,+53.00,+10.00,+3.00,+25.00,-4.00,-4.00,+4.00
-15.00,-50.00,-17.00,-6.00,-4.00,-96.00,-9.00,-18.00,+6.00,-4.00,-5.00,-11.00,-56.00,-15.00,-9.00,+4.00
-4.00,+17.00,-2.00,-3.00,-10.00,-18.00,-5.00,-2.00,-8.00,-9.00,-7.00,-9.00,+19.00,+25.00,+6.00,+1.00
-16.00,+2.00,-4.00,-3.00,+0.00,+22.00,-1.00,-5.00,-82.00,-66.00,-29.00,-18.00,-80.00,-27.00,-18.00,-40.00
+2.00,-3.00,+5.00,+4.00,+10.00,+9.00,+11.00,+11.00,+10.00,+59.00,+15.00,+6.00,+50.00,+20.00,+6.00,+10.00
-1.00,-23.00,-2.00,-1.00,-10.00,+22.00,+0.00,-6.00,-14.00,-44.00,-6.00,-3.00,-18.00,-2.00,-6.00,-24.00
-7.00,+27.00,-1.00,+4.00,+7.00,-40.00,-14.00,-4.00,-77.00,-23.00,-1.00,+2.00,+4.00,+68.00,+9.00,-16.00
+0.00,-22.00,-6.00,+0.00,-7.00,+15.00,+22.00,+9.00,+113.00,+76.00,+20.00,-3.00,+10.00,-24.00,+8.00,+30.00
+7.00,+21.00,+11.00,+3.00,+6.00,+13.00,-2.00,+1.00,+21.00,-23.00,-1.00,+15.00,+3.00,-13.00,+1.00,+6.00
-31.00,-51.00,-31.00,-12.00,+0.00,+18.00,-8.00,-12.00,-38.00,+35.00,+18.00,-10.00,+39.00,-3.00,-5.00,+5.00
+19.00,+29.00,+12.00,+3.00,-12.00,-14.00,-2.00,+3.00,+17.00,-11.00,-10.00,+1.00,-35.00,-17.00,+2.00,+3.00
+2.00,+5.00,+8.00,-4.00,+1.00,+8.00,-14.00,-5.00,-96.00,-44.00,-16.00,-28.00,-9.00,-18.00,-7.00,-35.00
-11.00,+12.00,+2.00,+2.00,+23.00,+16.00,-5.00,-4.00,-28.00,-36.00,-8.00,-10.00,-29.00,+8.00,+1.00,-4.00
+3.00,-19.00,+0.00,+8.00,-14.00,+70.00,+10.00,+6.00,+74.00,+36.00,+5.00,+17.00,+29.00,-8.00,+1.00,+7.00
-12.00,-23.00,-10.00,-4.00,+18.00,-7.00,-3.00,-8.00,-45.00,-23.00,-5.00,-11.00,+0.00,-3.00,+2.00,-13.00
-15.00,-11.00,+0.00,-1.00,-11.00,+30.00,+3.00,-10.00,+1.00,+38.00,+11.00,+6.00,+3.00,+0.00,-5.00,+15.00
-8.00,-18.00,-2.00,-8.00,-3.00,-49.00,+0.00,+0.00,-26.00,+30.00,+9.00,+1.00,+9.00,-17.00,-6.00,-2.00
-14.00,+13.00,-5.00,-1.00,+13.00,+41.00,-4.00,-3.00,+11.00,-38.00,-15.00,+0.00,+14.00,+23.00,+18.00,-11.00
-1.00,-16.00,+1.00,-3.00,+3.00,+11.00,+1.00,-1.00,+6.00,+9.00,+4.00,+34.00,+84.00,+51.00,+9.00,+5.00
+7.00,-22.00,-4.00,-1.00,+4.00,-8.00,-2.00,+5.00,+48.00,+34.00,+4.00,-44.00,-87.00,-33.00,-13.00,+17.00
+23.00,+39.00,+13.00,+7.00,-16.00,+14.00,-7.00,+1.00,-19.00,-29.00,-10.00,-5.00,+4.00,+33.00,+17.00,+9.00
+15.00,+9.00,+9.00,+6.00,+2.00,+5.00,-3.00,+8.00,-55.00,-41.00,-21.00,+0.00,+26.00,+20.00,-9.00,-25.00
+10.00,-18.00,-5.00,-1.00,+10.00,+20.00,+3.00,+3.00,-27.00,+29.00,+3.00,-17.00,-43.00,-65.00,-1.00,-10.00
-6.00,+23.00,-3.00,-5.00,-4.00,-47.00,-33.00,-5.00,+38.00,-37.00,-9.00,+5.00,+1.00,-4.00,-9.00,+0.00
-2.00,-5.00,-4.00,-4.00,-6.00,-39.00,-3.00,-4.00,-23.00,-24.00,-11.00,+0.00,+12.00,-4.00,-14.00,-18.00
+22.00,+33.00,+6.00,+5.00,-22.00,+5.00,+4.00,-11.00,+48.00,+62.00,+20.00,-5.00,-32.00,-6.00,+3.00,+17.00
-54.00,+10.00,+1.00,-3.00,-13.00,-48.00,-22.00,-23.00,+74.00,+0.00,+6.00,+1.00,+7.00,-4.00,-2.00,+19.00
+8.00,+13.00,-4.00,-7.00,+16.00,+5.00,+0.00,+8.00,-44.00,-24.00,-6.00,+14.00,+35.00,+3.00,+2.00,-11.00
+3.00,+5.00,-4.00,-3.00,-20.00,-20.00,-3.00,+1.00,+31.00,+22.00,+10.00,+3.00,-5.00,-5.00,+5.00,+6.00
-5.00,-23.00,-8.00,-6.00,-4.00,-11.00,+6.00,-3.00,-95.00,-64.00,-23.00,-6.00,-26.00,-11.00,-16.00,-40.00
+26.00,-22.00,+4.00,+0.00,+2.00,-6.00,-2.00,+4.00,+45.00,+27.00,+6.00,-2.00,+5.00,-14.00,-5.00,+12.00
+4.00,+44.00,+12.00,+8.00,+0.00,+9.00,+20.00,+1.00,+25.00,+22.00,+9.00,+17.00,-12.00,+21.00,+12.00,+9.00
-10.00,-17.00,+5.00,+3.00,+12.00,+23.00,+2.00,+1.00,+45.00,+33.00,+15.00,+4.00,+5.00,+5.00,+6.00,+23.00
+9.00,-3.00,-3.00,-2.00,-2.00,-17.00,+3.00,+5.00,-43.00,-46.00,-6.00,+21.00,+15.00,-10.00,-10.00,-12.00
+10.00,+19.00,-7.00,-1.00,-3.00,-2.00,-2.00,-8.00,-16.00,+31.00,+1.00,-6.00,+5.00,-12.00,-7.00,-20.00
-3.00,+0.00,+7.00,-4.00,+1.00,+5.00,-7.00,-2.00,+19.00,+24.00,+9.00,-4.00,+4.00,-55.00,+10.00,+22.00
+12.00,-13.00,+6.00,+4.00,+6.00,-5.00,+7.00,+8.00,-60.00,-94.00,-30.00,-14.00,-16.00,+9.00,-10.00,-34.00
-13.00,+8.00,+1.00,+2.00,+1.00,-23.00,-13.00,-1.00,+48.00,+52.00,+22.00,+30.00,+77.00,+30.00,+10.00,+27.00
+11.00,+5.00,+2.00,+0.00,+2.00,+26.00,+20.00,+5.00,+71.00,+33.00,+7.00,+6.00,-110.00,-46.00,-3.00,+6.00
+9.00,-7.00,-10.00,-3.00,-9.00,+20.00,-2.00,-7.00,-36.00,-8.00,-5.00,-7.00,+59.00,+31.00,-2.00,-21.00
+0.00,-15.00,-10.00,-2.00,-24.00,-31.00,-13.00,-2.00,+18.00,+25.00,+10.00,+15.00,-14.00,-21.00,-1.00,+2.00
-13.00,-1.00,+20.00,+9.00,+47.00,+72.00,+36.00,+14.00,-28.00,-35.00,-9.00,-22.00,-29.00,-15.00,-8.00,-5.00
-6.00,-3.00,-8.00,-5.00,-6.00,-22.00,-27.00,-4.00,-23.00,-27.00,-6.00,+4.00,+21.00,-3.00,-8.00,-2.00
+10.00,-18.00,-8.00,+2.00,-13.00,-43.00,+15.00,+10.00,-17.00,+2.00,-7.00,+2.00,-11.00,-2.00,+0.00,-8.00
-14.00,-3.00,+6.00,+1.00,+7.00,+67.00,+15.00,+7.00,-2.00,-36.00,-11.00,-11.00,+4.00,+0.00,-2.00,-13.00
+6.00,-10.00,-10.00,-6.00,+0.00,-24.00,-12.00,-3.00,+16.00,+62.00,+11.00,-9.00,-33.00,-20.00,+13.00,+25.00
+15.00,-9.00,+3.00,+4.00,-10.00,-14.00,-2.00,-2.00,+15.00,+21.00,-3.00,-16.00,+9.00,-41.00,-14.00,+0.00
-24.00,+20.00,+6.00,-3.00,+5.00,+8.00,+12.00,-3.00,-28.00,-55.00,-21.00,-2.00,-7.00,+27.00,+11.00,-29.00
-11.00,-24.00,-6.00,-4.00,+1.00,-24.00,-9.00,-10.00,+31.00,+32.00,+17.00,+5.00,+36.00,+12.00,+6.00,+28.00
+19.00,+16.00,-18.00,-9.00,-14.00,-4.00,+3.00,-5.00,-35.00,-14.00,-13.00,-6.00,+6.00,+10.00,-9.00,-30.00
+3.00,-4.00,+7.00,-3.00,-10.00,-10.00,-9.00,-2.00,+32.00,+12.00,+5.00,-6.00,-51.00,-7.00,+10.00,+19.00
+1.00,-13.00,+2.00,+1.00,-1.00,+3.00,-5.00,+4.00,-3.00,+12.00,+5.00,+11.00,-1.00,-18.00,-4.00,-1.00
-6.00,-12.00,-2.00,+3.00,+3.00,-2.00,-6.00,+3.00,+26.00,+34.00,+12.00,+4.00,+34.00,+13.00,+11.00,+14.00
-19.00,-11.00,-11.00,-8.00,-3.00,+1.00,-6.00,-8.00,+25.00,-25.00,-16.00,-32.00,-35.00,-20.00,-17.00,-8.00
-5.00,-19.00,-4.00,+0.00,+5.00,+17.00,-1.00,+0.00,+47.00,+15.00,+12.00,-3.00,+8.00,+28.00,+10.00,+33.00
+15.00,+18.00,-3.00,-3.00,-1.00,-39.00,+0.00,-1.00,-27.00,-12.00,-2.00,+11.00,+18.00,+12.00,-11.00,-7.00
+6.00,+15.00,+7.00,+4.00,+17.00,+46.00,+10.00,+1.00,-41.00,-6.00,-2.00,+5.00,+20.00,-31.00,-7.00,-1.00
-4.00,+0.00,-7.00,-3.00,+13.00,+13.00,-5.00,-2.00,+72.00,+27.00,+6.00,-18.00,-37.00,+67.00,+24.00,+26.00
+4.00,+6.00,+8.00,+6.00,-30.00,-36.00,+6.00,+4.00,-38.00,-10.00,-2.00,-5.00,+5.00,+19.00,-15.00,-19.00
-15.00,-19.00,-7.00,+0.00,+18.00,+42.00,+0.00,-5.00,+29.00,+14.00,+2.00,-12.00,-33.00,-12.00,+10.00,+10.00
-49.00,-20.00,-1.00,+3.00,+29.00,+4.00,-1.00,-13.00,-54.00,-27.00,-1.00,+11.00,+19.00,+10.00,+4.00,-4.00
-2.00,-20.00,-11.00,-8.00,-36.00,-36.00,-8.00,-6.00,+54.00,+19.00,+6.00,-1.00,+35.00,-15.00,-8.00,-2.00
+7.00,+37.00,+2.00,-6.00,+15.00,-62.00,-11.00,-2.00,+14.00,+3.00,+8.00,+14.00,+4.00,+43.00,+14.00,+34.00
-18.00,-26.00,+6.00,+7.00,+14.00,+88.00,+20.00,+5.00,-9.00,-9.00,-2.00,+6.00,-1.00,+5.00,+1.00,+4.00
+34.00,+25.00,-1.00,-4.00,-2.00,+4.00,+4.00,+1.00,-31.00,-23.00,-17.00,-8.00,+1.00,-3.00,-9.00,-2.00
-2.00,-18.00,-4.00,+2.00,+8.00,+5.00,+4.00,+1.00,-32.00,-15.00,+1.00,+0.00,-17.00,+0.00,+0.00,-1.00
-3.00,+6.00,-1.00,-1.00,-1.00,-15.00,-8.00,-1.00,-34.00,-56.00,-22.00,-15.00,-7.00,-28.00,-7.00,-32.00
-5.00,+28.00,-7.00,-3.00,-15.00,-11.00,-17.00,-13.00,+62.00,+42.00,+19.00,+9.00,+17.00,+16.00,+4.00,+33.00
+2.00,+15.00,+11.00,+5.00,+12.00,-5.00,+9.00,+13.00,+41.00,+27.00,+4.00,-2.00,-17.00,+15.00,+1.00,+12.00
-11.00,-9.00,+4.00,-2.00,-21.00,-33.00,-8.00,-2.00,-68.00,-29.00,-9.00,+7.00,+0.00,-21.00,-6.00,-18.00
+3.00,+5.00,-3.00,-1.00,+1.00,+32.00,+5.00,+0.00,+42.00,+53.00,+12.00,+4.00,+16.00,+34.00,+10.00,+10.00
-5.00,-16.00,+0.00,+0.00,-2.00,-23.00,-5.00,-6.00,-78.00,-65.00,-14.00,-11.00,+2.00,-63.00,-9.00,-22.00
+2.00,+5.00,+1.00,-4.00,-6.00,+12.00,+3.00,-5.00,+27.00,+6.00,-1.00,-5.00,-2.00,+81.00,+8.00,-1.00
-6.00,+20.00,+10.00,+6.00,+1.00,-18.00,-14.00,-2.00,+27.00,+11.00,+0.00,-6.00,+3.00,+6.00,+11.00,+17.00
-2.00,+28.00,-3.00,-1.00,+7.00,+16.00,+14.00,+6.00,-76.00,-58.00,-15.00,+2.00,-19.00,-35.00,-15.00,-33.00
+8.00,-28.00,-6.00,-3.00,-4.00,-36.00,-6.00,-7.00,-25.00,+27.00,+6.00,+6.00,+24.00,+9.00,-6.00,-9.00
+18.00,+14.00,+0.00,-2.00,-14.00,-25.00,-10.00,-2.00,-10.00,-20.00,+0.00,+17.00,-18.00,-33.00,+15.00,+2.00
-25.00,+11.00,+0.00,+3.00,+16.00,+11.00,+14.00,+3.00,+8.00,+9.00,-1.00,-1.00,+18.00,-20.00,-10.00,+13.00
-16.00,-30.00,-8.00,-2.00,+3.00,-20.00,-19.00,-6.00,+73.00,+28.00,+1.00,+1.00,+18.00,+20.00,+6.00,+30.00
+5.00,+18.00,+5.00,+5.00,+17.00,+30.00,-7.00,-1.00,-35.00,+23.00,-6.00,-9.00,-24.00,+1.00,+0.00,-19.00
+4.00,-9.00,-10.00,-6.00,-10.00,-3.00,-4.00,+1.00,+6.00,+14.00,+9.00,-1.00,+4.00,-28.00,-5.00,+10.00
+8.00,-3.00,+0.00,+4.00,-1.00,+89.00,+15.00,-2.00,-58.00,-37.00,-13.00,+5.00,+17.00,+17.00,-3.00,-20.00
+10.00,+10.00,+5.00,+0.00,+9.00,+13.00,+16.00,+13.00,-103.00,-82.00,-19.00,-5.00,+17.00,-38.00,-11.00,-24.00
+7.00,-15.00,-2.00,+5.00,-25.00,-27.00,-6.00,+0.00,+37.00,+47.00,+9.00,+0.00,-35.00,+45.00,+8.00,+34.00
-14.00,-31.00,-6.00,-1.00,-4.00,-8.00,+1.00,-9.00,+8.00,+28.00,+11.00,+5.00,+32.00,+56.00,+14.00,+8.00
+7.00,+2.00,-8.00,-5.00,-2.00,+4.00,+4.00,+0.00,-36.00,-43.00,-7.00,+1.00,-42.00,-17.00,-11.00,-13.00
-7.00,+6.00,+9.00,+4.00,-4.00,+40.00,+10.00,-1.00,-6.00,+58.00,+13.00,-16.00,+1.00,+27.00,+1.00,-6.00
+17.00,-4.00,-3.00,-6.00,+3.00,-5.00,+1.00,+0.00,+29.00,-8.00,-1.00,+4.00,+54.00,-18.00,-3.00,+9.00
-12.00,-16.00,-3.00,-4.00,+9.00,-8.00,-13.00,-7.00,-54.00,-14.00,-3.00,-1.00,-52.00,-28.00,-8.00,-18.00
+14.00,+35.00,+16.00,+6.00,+2.00,-20.00,+10.00,+11.00,-105.00,-81.00,-25.00,-10.00,+0.00,-6.00,-12.00,-41.00
+19.00,-14.00,+1.00,+6.00,-9.00,+12.00,-3.00,-1.00,+50.00,+5.00,+4.00,+22.00,+103.00,+31.00,+9.00,-1.00
-24.00,-14.00,-12.00,-6.00,+13.00,+23.00,-1.00,-5.00,-15.00,-57.00,-19.00,-16.00,-91.00,-53.00,-25.00,-21.00
+4.00,+4.00,+6.00,+3.00,-6.00,+38.00,-9.00,+5.00,+0.00,+19.00,-4.00,-31.00,+31.00,-8.00,-10.00,-12.00
-3.00,+11.00,+18.00,+5.00,-2.00,-30.00,-2.00,-5.00,+27.00,+67.00,+27.00,+16.00,-5.00,-10.00,-16.00,-7.00
-13.00,-5.00,-7.00,-3.00,-2.00,+0.00,-8.00,-3.00,-54.00,-51.00,-22.00,-16.00,+40.00,-13.00,-17.00,-23.00
-1.00,+15.00,-9.00,-11.00,-10.00,-26.00,-1.00,-2.00,+1.00,-15.00,-7.00,-7.00,-59.00,-2.00,-12.00,-28.00
-13.00,-11.00,-8.00,-3.00,+1.00,+17.00,-5.00,-4.00,+1.00,-10.00,-1.00,+2.00,+30.00,-23.00,-10.00,+0.00
-2.00,-25.00,-13.00,-10.00,-6.00,-16.00,-8.00,-1.00,-57.00,-41.00,-28.00,-23.00,-59.00,-64.00,+1.00,-21.00
-13.00,-23.00,-7.00,-2.00,+5.00,-46.00,-20.00,-5.00,+19.00,+32.00,+16.00,+8.00,+8.00,+40.00,+10.00,+33.00
+10.00,+25.00,+6.00,+2.00,-16.00,-7.00,-18.00,-6.00,+29.00,+24.00,+11.00,+11.00,+12.00,+7.00,+1.00,+12.00
-5.00,-14.00,-1.00,-3.00,-14.00,-14.00,+2.00,-6.00,+4.00,-3.00,-10.00,-11.00,-5.00,-14.00,-7.00,-5.00
-1.00,-21.00,-16.00,-9.00,+1.00,-18.00,-16.00,-3.00,+18.00,+56.00,+22.00,+5.00,+21.00,+1.00,+7.00,+13.00
+13.00,+3.00,+11.00,+3.00,+6.00,+70.00,+26.00,+7.00,-25.00,-30.00,-13.00,-9.00,-70.00,-34.00,-16.00,-36.00
+5.00,+10.00,-9.00,-4.00,-2.00,-45.00,-21.00,-7.00,+0.00,+43.00,+21.00,+1.00,+21.00,+14.00,+5.00,-2.00
+15.00,+4.00,+2.00,+3.00,-5.00,-24.00,-6.00,+4.00,-3.00,+16.00,+7.00,+25.00,+53.00,+11.00,+8.00,+10.00
+15.00,-8.00,+8.00,+3.00,+8.00,+35.00,+7.00,+8.00,+25.00,+10.00,-3.00,-12.00,-43.00,-10.00,-1.00,+6.00
-9.00,-2.00,-11.00,-5.00,-3.00,+24.00,-6.00,-5.00,-36.00,-52.00,-23.00,-15.00,+13.00,-29.00,-14.00,-30.00
+26.00,+25.00,+21.00,+2.00,-3.00,+7.00,+6.00,+1.00,+51.00,+25.00,+11.00,+8.00,+30.00,+36.00,+17.00,+47.00
-42.00,-15.00,-21.00,-9.00,-6.00,-5.00,+7.00,-1.00,-52.00,-29.00,-9.00,+2.00,-52.00,-23.00,-14.00,-30.00
+18.00,+8.00,+13.00,+7.00,+8.00,-9.00,-3.00,+3.00,+14.00,+26.00,+14.00,+8.00,+22.00,+1.00,-3.00,+9.00
+21.00,+23.00,+0.00,-1.00,-24.00,-83.00,-16.00,-1.00,+38.00,+12.00,+2.00,+5.00,+0.00,+7.00,+10.00,+18.00
-7.00,-5.00,-9.00,-1.00,+16.00,+63.00,+27.00,+2.00,-109.00,-115.00,-40.00,-8.00,-15.00,-12.00,-14.00,-65.00
-15.00,-36.00,-7.00,-6.00,-1.00,+8.00,+4.00,-10.00,+116.00,+89.00,+25.00,+4.00,+5.00,-46.00,+13.00,+69.00
-21.00,+4.00,+6.00,+2.00,-6.00,-53.00,-12.00,-4.00,-40.00,-21.00,-4.00,+18.00,+18.00,+31.00,+3.00,-16.00
-8.00,-18.00,-5.00,-3.00,-9.00,-1.00,+18.00,+7.00,+15.00,+29.00,+18.00,-9.00,+1.00,+0.00,+2.00,+17.00
-14.00,-14.00,-4.00,-1.00,-20.00,-8.00,-4.00,+0.00,+5.00,-9.00,+3.00,+0.00,-34.00,+8.00,+12.00,+27.00
+11.00,+25.00,-1.00,+1.00,+7.00,-22.00,+4.00,+2.00,-14.00,-17.00,-10.00,+1.00,+19.00,-10.00,-8.00,-17.00
-4.00,-15.00,-19.00,-11.00,+4.00,+18.00,+0.00,-11.00,-1.00,-13.00,-4.00,+0.00,-9.00,+5.00,+5.00,+0.00
+4.00,+20.00,+20.00,+11.00,+16.00,-18.00,+16.00,+11.00,+16.00,+26.00,+14.00,+4.00,-23.00,+7.00,+1.00,-3.00
+5.00,-18.00,-7.00,-2.00,-5.00,+39.00,-1.00,+9.00,-49.00,-2.00,-7.00,+5.00,+32.00,-5.00,-2.00,-3.00
+39.00,+30.00,+10.00,+6.00,+3.00,+4.00,+4.00,+1.00,+87.00,+33.00,+7.00,+0.00,+1.00,+5.00,+4.00,+27.00
-2.00,+9.00,+11.00,+1.00,+3.00,+28.00,-2.00,-1.00,+29.00,-14.00,-1.00,-2.00,-18.00,+7.00,+4.00,+16.00
-1.00,-2.00,-5.00,-6.00,-5.00,-2.00,-2.00,-4.00,-28.00,+12.00,-11.00,+8.00,+23.00,-1.00,-2.00,-17.00
-12.00,-4.00,+3.00,-1.00,+1.00,-52.00,-8.00,+0.00,+12.00,+27.00,+10.00,-6.00,+11.00,-1.00,+6.00,+26.00
+17.00,+33.00,+12.00,+7.00,+13.00,+32.00,+15.00,+7.00,-12.00,-44.00,-23.00,-13.00,-55.00,-14.00,-11.00,-33.00
+2.00,-16.00,-5.00,+3.00,+4.00,+37.00,+2.00,+2.00,+7.00,+42.00,+12.00,+6.00,+43.00,+37.00,+14.00,+14.00
-15.00,-15.00,-2.00,+0.00,+4.00,+5.00,-6.00,-2.00,-60.00,-23.00,+2.00,+6.00,-16.00,-17.00,-4.00,-15.00
-10.00,+2.00,-2.00,-4.00,+3.00,-15.00,+2.00,-3.00,+5.00,+16.00,+1.00,+0.00,+36.00,+2.00,-1.00,-11.00
-3.00,-23.00,-17.00,-6.00,-10.00,-13.00,+14.00,-1.00,+14.00,-2.00,+0.00,+11.00,-26.00,+36.00,+1.00,+3.00
+9.00,+27.00,+10.00,+6.00,-29.00,-52.00,-3.00,+5.00,-36.00,-44.00,-20.00,-22.00,-13.00,-13.00,-17.00,-39.00
-14.00,+2.00,-6.00,-3.00,-1.00,+11.00,-4.00,-8.00,+91.00,+28.00,+8.00,+3.00,-19.00,+4.00,+12.00,+47.00
+4.00,-32.00,+6.00,+8.00,+11.00,+13.00,+10.00,+5.00,+2.00,+15.00,-1.00,+4.00,+40.00,+1.00,-4.00,-4.00
+3.00,+42.00,+9.00,+4.00,-7.00,-12.00,-2.00,-2.00,-93.00,-71.00,-12.00,-13.00,-14.00,-4.00,-9.00,-35.00
+2.00,-1.00,-6.00,-6.00,-1.00,-33.00,-6.00,-2.00,-40.00,-4.00,-4.00,+3.00,+5.00,-23.00,-5.00,-4.00
+17.00,-15.00,+3.00,+3.00,+10.00,+14.00,-10.00,+14.00,-53.00,-3.00,-9.00,-10.00,-82.00,-14.00,-10.00,-18.00
-1.00,+12.00,-6.00,-6.00,-8.00,-26.00,-4.00,-3.00,+84.00,-1.00,-1.00,-5.00,+11.00,+0.00,-3.00,-3.00
-19.00,-53.00,-14.00,-5.00,+10.00,-8.00,-2.00,+2.00,-40.00,+35.00,+7.00,-2.00,+32.00,+19.00,+16.00,+25.00
+5.00,+7.00,-7.00,-5.00,-23.00,-56.00,-1.00,+1.00,+72.00,+2.00,+4.00,+8.00,+19.00,+30.00,+5.00,+20.00
+4.00,+8.00,-2.00,-3.00,+15.00,+40.00,-6.00,-13.00,-33.00,-13.00,+1.00,+9.00,-3.00,-10.00,+6.00,+10.00
+3.00,+6.00,-5.00,-1.00,-11.00,-42.00,-7.00,+4.00,+27.00,+15.00,+2.00,-14.00,-27.00,-3.00,-1.00,+6.00
+3.00,-8.00,+2.00,+3.00,+14.00,+98.00,+18.00,-1.00,-27.00,-26.00,-4.00,+0.00,-19.00,-12.00,-11.00,-25.00
-22.00,-28.00,-12.00,-2.00,+23.00,+16.00,+9.00,+5.00,+40.00,+53.00,+15.00,-3.00,+7.00,+1.00,+5.00,+13.00
+1.00,+28.00,+15.00,+4.00,-10.00,-8.00,-12.00,+0.00,-45.00,-40.00,-13.00,+9.00,+20.00,+8.00,-13.00,-32.00
-9.00,-6.00,-2.00,-4.00,-12.00,-29.00,+15.00,+10.00,+37.00,+54.00,+22.00,-7.00,-20.00,+9.00,+12.00,+29.00
+0.00,+6.00,+6.00,+3.00,-1.00,-20.00,-11.00,-2.00,-8.00,-21.00,-11.00,-11.00,-13.00,-25.00,-8.00,-7.00
-3.00,+1.00,-4.00,-4.00,-5.00,-9.00,-9.00,-5.00,-29.00,-15.00,-5.00,-1.00,+8.00,-1.00,-1.00,-3.00
+0.00,-1.00,-3.00,-3.00,+2.00,+6.00,+0.00,-5.00,+9.00,-16.00,-8.00,-9.00,+31.00,+5.00,-3.00,-10.00
+11.00,+2.00,+14.00,+10.00,+9.00,-2.00,+2.00,+2.00,-61.00,-37.00,-5.00,+5.00,-57.00,-14.00,+5.00,+12.00
-18.00,-22.00,-16.00,-12.00,-2.00,-51.00,-15.00,-4.00,+85.00,+68.00,+12.00,-7.00,+7.00,+6.00,+4.00,+13.00
+15.00,+18.00,+22.00,+14.00,+21.00,+68.00,+12.00,+3.00,-32.00,-10.00,-8.00,+0.00,+3.00,-4.00,-13.00,-32.00
-5.00,+15.00,-16.00,-8.00,-12.00,-8.00,-3.00,-7.00,-8.00,+8.00,+6.00,+5.00,+1.00,-17.00,-1.00,+10.00
+2.00,-10.00,+8.00,+2.00,+2.00,+7.00,+2.00,-7.00,-3.00,+12.00,+6.00,+6.00,+11.00,+11.00,+0.00,-3.00
-14.00,-29.00,-10.00,-5.00,-10.00,-10.00,+0.00,-5.00,+37.00,-39.00,-11.00,-2.00,+5.00,-4.00,-3.00,-4.00
-29.00,+28.00,+4.00,-2.00,+9.00,+12.00,-3.00,-6.00,-28.00,+23.00,+19.00,+31.00,+17.00,+21.00,+11.00,+4.00
-8.00,-10.00,+0.00,+1.00,+1.00,-19.00,+3.00,-3.00,+75.00,+37.00,+7.00,-13.00,-12.00,+1.00,+4.00,+28.00
-8.00,-12.00,-13.00,-3.00,-5.00,-10.00,-9.00,-4.00,-16.00,-12.00,+2.00,+21.00,+64.00,-24.00,+0.00,+7.00
+15.00,+32.00,+8.00,+4.00,-19.00,-33.00,-20.00,+2.00,-54.00,-9.00,-9.00,-22.00,-49.00,+61.00,-11.00,-20.00
+14.00,+7.00,+8.00,+4.00,+13.00,+49.00,+5.00,+5.00,+67.00,-8.00,-2.00,-10.00,-8.00,+0.00,-4.00,+12.00
-2.00,-9.00,+0.00,-3.00,-5.00,-11.00,+2.00,-2.00,-34.00,-9.00,+1.00,+0.00,+0.00,-8.00,-5.00,-22.00
+6.00,+20.00,+1.00,+3.00,+17.00,+7.00,+10.00,+14.00,-19.00,-36.00,-19.00,-11.00,-6.00,-27.00,-7.00,-17.00
-18.00,-8.00,-3.00,+0.00,+5.00,+8.00,+0.00,-5.00,-71.00,-34.00,-9.00,+9.00,+24.00,+6.00,-9.00,-21.00
+9.00,+23.00,+8.00,-6.00,-49.00,-47.00,+3.00,-4.00,+35.00,+24.00,+11.00,+1.00,-7.00,+52.00,+15.00,+25.00
+9.00,-14.00,-14.00,-3.00,+22.00,+25.00,-4.00,+3.00,+17.00,+19.00,+2.00,-8.00,-2.00,+10.00,+8.00,+11.00
-13.00,-19.00,+0.00,+0.00,+13.00,-13.00,+0.00,+5.00,+1.00,+15.00,+3.00,-7.00,-10.00,+5.00,-1.00,-7.00
+6.00,-5.00,-1.00,-4.00,-1.00,-3.00,+0.00,+0.00,-4.00,-7.00,-1.00,+2.00,-1.00,-22.00,+1.00,+0.00
-6.00,-18.00,-9.00,-5.00,+12.00,+10.00,+12.00,+1.00,-22.00,-15.00,-5.00,-5.00,-14.00,-15.00,+2.00,+5.00
-8.00,+9.00,-3.00,-5.00,-20.00,-29.00,-6.00,-7.00,+48.00,+17.00,+2.00,-5.00,-3.00,+2.00,-1.00,+8.00
+5.00,-5.00,+0.00,+2.00,-7.00,-14.00,-2.00,+1.00,+14.00,+21.00,+6.00,+25.00,+38.00,+26.00,+1.00,-4.00
-7.00,-3.00,+4.00,+3.00,+2.00,+3.00,+4.00,+1.00,-70.00,+4.00,+3.00,-18.00,-37.00,-40.00,-7.00,-12.00
+27.00,-7.00,-6.00,-3.00,-1.00,-30.00,-10.00,-8.00,+83.00,+4.00,-4.00,-6.00,+31.00,-5.00,-1.00,+12.00
-20.00,-17.00,-5.00,-4.00,-2.00,-5.00,+4.00,+5.00,-21.00,-16.00,-8.00,+10.00,-41.00,-3.00,+2.00,+3.00
+5.00,+29.00,+4.00,-2.00,-3.00,+18.00,+0.00,-5.00,-44.00,-3.00,-1.00,-9.00,-12.00,-7.00,-9.00,-27.00
-5.00,-2.00,+2.00,+0.00,+2.00,-27.00,-9.00,+0.00,+48.00,+30.00,+16.00,+15.00,+26.00,+15.00,+8.00,+37.00
+7.00,-16.00,-10.00,-1.00,+4.00,+8.00,-5.00,+1.00,-70.00,-50.00,-19.00,+4.00,+6.00,-26.00,-9.00,-27.00
+8.00,+5.00,+1.00,+4.00,+8.00,+42.00,+4.00,-13.00,-99.00,-20.00,-9.00,-21.00,+0.00,-7.00,-4.00,-7.00
-6.00,-5.00,+5.00,-2.00,-25.00,-20.00,+2.00,+2.00,+34.00,+2.00,+3.00,+3.00,-7.00,+10.00,+6.00,+11.00
-7.00,-6.00,-5.00,-2.00,+21.00,+48.00,+8.00,+2.00,-29.00,-24.00,-12.00,-7.00,-6.00,-17.00,-5.00,-13.00
-7.00,-8.00,-7.00,-4.00,-8.00,-39.00,-18.00,-12.00,-21.00,+9.00,+2.00,-2.00,+10.00,+21.00,+1.00,-2.00
+5.00,+26.00,+27.00,+10.00,+2.00,-7.00,+9.00,+10.00,-47.00,-26.00,-12.00,+1.00,+20.00,-4.00,-13.00,-38.00
-1.00,-23.00,-15.00,-7.00,-8.00,+28.00,+6.00,-5.00,+11.00,+9.00,+4.00,+11.00,-26.00,+2.00,+3.00,+15.00
-27.00,+30.00,+3.00,-2.00,-13.00,-21.00,-10.00,-17.00,+9.00,+4.00,+3.00,+12.00,+34.00,+5.00,+1.00,-3.00
+5.00,-2.00,+6.00,+7.00,+4.00,+15.00,-1.00,-1.00,+2.00,+9.00,-4.00,-15.00,-57.00,-29.00,-4.00,-6.00
-10.00,-43.00,-20.00,-14.00,-9.00,-18.00,-3.00,+4.00,+67.00,+2.00,+3.00,-8.00,+30.00,+13.00,+5.00,+5.00
+13.00,+18.00,+6.00,+0.00,+2.00,+19.00,-2.00,-2.00,-4.00,-16.00,-9.00,+6.00,+4.00,+7.00,-9.00,-16.00
+12.00,-8.00,-11.00,-5.00,-7.00,-25.00,-5.00,+2.00,-32.00,-42.00,-13.00,-17.00,-46.00,-14.00,-2.00,-17.00
-6.00,-2.00,-1.00,+3.00,+11.00,+14.00,+13.00,+3.00,-2.00,+12.00,+9.00,+4.00,+14.00,+3.00,+2.00,+10.00
-11.00,-13.00,-8.00,-3.00,+7.00,-51.00,-19.00,-11.00,+50.00,+48.00,+19.00,+7.00,-23.00,+5.00,+2.00,+14.00
-8.00,+2.00,+6.00,-1.00,-1.00,-1.00,-2.00,+0.00,-18.00,-12.00,-6.00,-12.00,-4.00,-11.00,+3.00,+2.00
+7.00,+17.00,+7.00,+1.00,-6.00,-5.00,-10.00,+5.00,+8.00,-15.00,-7.00,+2.00,+56.00,+34.00,+4.00,-6.00
-1.00,+0.00,-8.00,-7.00,-31.00,+22.00,+9.00,+3.00,-1.00,-11.00,-7.00,-10.00,-34.00,-19.00,+0.00,-1.00
+2.00,-16.00,-10.00,-3.00,+30.00,+40.00,-4.00,-2.00,-29.00,+37.00,+17.00,+4.00,+1.00,-1.00,+2.00,+10.00
+2.00,+11.00,+8.00,+2.00,+2.00,-25.00,-4.00,-4.00,+15.00,-3.00,-5.00,-4.00,+13.00,+4.00,-6.00,-2.00
+2.00,+0.00,+4.00,+3.00,+0.00,+19.00,+7.00,-3.00,-16.00,-41.00,-1.00,+7.00,+6.00,-8.00,+3.00,+8.00
-18.00,-12.00,-5.00,-3.00,+19.00,-17.00,-7.00,-2.00,+32.00,+55.00,+8.00,+2.00,+2.00,+6.00,+0.00,+6.00
+0.00,+1.00,-2.00,-4.00,-21.00,+3.00,+3.00,+0.00,-19.00,-10.00,-8.00,+3.00,+9.00,+2.00,-2.00,-11.00
-5.00,-1.00,-18.00,-6.00,-1.00,-15.00,-7.00,-9.00,-94.00,-54.00,-19.00,-12.00,+10.00,-9.00,-15.00,-40.00
+29.00,+28.00,+29.00,+12.00,+0.00,+17.00,+13.00,+13.00,+75.00,+40.00,+10.00,+0.00,-24.00,-2.00,+4.00,+14.00
+2.00,+24.00,+6.00,+1.00,+1.00,-18.00,-3.00,-1.00,-13.00,-8.00,+0.00,+2.00,-1.00,-12.00,-4.00,-3.00
+5.00,+4.00,-8.00,+0.00,-9.00,-2.00,+2.00,+1.00,-6.00,-8.00,-5.00,-4.00,-12.00,-9.00,+1.00,-2.00
-4.00,-8.00,-7.00,+0.00,+11.00,+12.00,+6.00,-2.00,-30.00,-6.00,-3.00,-5.00,+28.00,+6.00,-7.00,-15.00
+0.00,-27.00,-10.00,-8.00,-8.00,-47.00,-6.00,+3.00,+31.00,-1.00,-9.00,-9.00,+14.00,-16.00,-5.00,+2.00
-8.00,+0.00,-16.00,-11.00,-3.00,+40.00,+3.00,+1.00,-12.00,+3.00,-3.00,-18.00,-60.00,-6.00,-7.00,-8.00
+2.00,+9.00,+18.00,+8.00,+1.00,-28.00,+3.00,+2.00,+13.00,-6.00,+0.00,+2.00,+11.00,+3.00,-1.00,+3.00
+0.00,-2.00,+2.00,+1.00,+3.00,+25.00,-3.00,+1.00,-36.00,-26.00,-9.00,-4.00,-12.00,-35.00,-4.00,-12.00
-12.00,-14.00,-11.00,-2.00,+0.00,+7.00,+2.00,-6.00,+44.00,+40.00,+3.00,+9.00,+5.00,+0.00,+4.00,+19.00
+12.00,-6.00,-2.00,-2.00,-10.00,-11.00,-10.00,-5.00,-36.00,-38.00,-8.00,+2.00,+9.00,+23.00,-1.00,+4.00
-6.00,+17.00,-3.00,-3.00,+2.00,-22.00,-8.00,-5.00,-7.00,-33.00,-11.00,-1.00,-5.00,-8.00,-4.00,-8.00
-9.00,-7.00,-2.00,-3.00,+5.00,+15.00,+2.00,-3.00,+31.00,+28.00,+12.00,+2.00,-11.00,-3.00,+3.00,+11.00
-2.00,+2.00,-5.00,-3.00,-15.00,+0.00,-5.00,+7.00,-21.00,+26.00,-1.00,-4.00,-2.00,-18.00,-9.00,-24.00
-2.00,-1.00,+3.00,-2.00,-4.00,-20.00,-3.00,+1.00,+8.00,-2.00,+4.00,+5.00,+23.00,-3.00,+4.00,+14.00
+2.00,-12.00,+3.00,+5.00,+12.00,+39.00,+4.00,+2.00,-40.00,-13.00,-9.00,-11.00,-19.00,-14.00,-8.00,-21.00
+0.00,+9.00,+3.00,+1.00,+1.00,-18.00,-5.00,-1.00,+77.00,+11.00,+5.00,+6.00,+43.00,+23.00,+9.00,+32.00
+7.00,+0.00,-7.00,-1.00,+14.00,+55.00,+7.00,-1.00,-37.00,+12.00,+6.00,-10.00,-44.00,-6.00,-1.00,-12.00
+11.00,-8.00,-1.00,-1.00,-2.00,-3.00,-2.00,+5.00,-2.00,-10.00,-7.00,+1.00,+4.00,+14.00,+2.00,-2.00
+10.00,+0.00,-14.00,-5.00,-5.00,+7.00,-2.00,-1.00,+14.00,-6.00,-4.00,-10.00,+18.00,-5.00,+0.00,+4.00
-12.00,-7.00,+12.00,+4.00,-13.00,-6.00,-11.00,-1.00,-25.00,-8.00,-6.00,-6.00,-32.00,+12.00,-3.00,-15.00
-2.00,+1.00,-13.00,-3.00,+6.00,+1.00,+12.00,-5.00,+48.00,+28.00,+3.00,-17.00,-2.00,+6.00,+3.00,+15.00
-7.00,-6.00,+6.00,+3.00,-7.00,-20.00,+2.00,+6.00,+0.00,-23.00,-7.00,-6.00,+2.00,-16.00,-5.00,-3.00
-19.00,+19.00,+4.00,+3.00,+7.00,-2.00,+8.00,-10.00,+29.00,+3.00,-1.00,-1.00,+5.00,+0.00,+6.00,+13.00
-16.00,-20.00,-6.00,-4.00,+5.00,+5.00,-10.00,-3.00,-11.00,+20.00,+4.00,-5.00,-11.00,-5.00,-5.00,-2.00
+3.00,+1.00,-3.00,-4.00,-10.00,-7.00,-7.00,-4.00,-22.00,-22.00,+0.00,+10.00,+0.00,-1.00,-1.00,+0.00
-13.00,-10.00,-4.00,-4.00,-7.00,-29.00,-10.00,-8.00,-29.00,-36.00,-9.00,+0.00,+3.00,-11.00,-12.00,-27.00
+10.00,+3.00,+1.00,+1.00,+3.00,-23.00,-3.00,+3.00,+1.00,+6.00,+3.00,+3.00,-2.00,+0.00,-2.00,+2.00
-4.00,-12.00,-10.00,-9.00,-10.00,-17.00,+6.00,-1.00,+19.00,-2.00,-2.00,+1.00,+4.00,+6.00,+3.00,+6.00
+13.00,+9.00,+14.00,+5.00,+0.00,+18.00,-9.00,+0.00,-15.00,-14.00,-4.00,+2.00,-19.00,+0.00,-2.00,-11.00
+1.00,-5.00,-1.00,+1.00,+15.00,+34.00,+7.00,-2.00,+9.00,+12.00,+7.00,+6.00,+22.00,+3.00,+5.00,+10.00
-14.00,-9.00,-4.00,-8.00,-21.00,+2.00,+1.00,+5.00,-2.00,-19.00,-3.00,+2.00,-7.00,+4.00,+3.00,+4.00
+7.00,-4.00,+0.00,-1.00,+4.00,+11.00,-2.00,-5.00,-27.00,+40.00,+9.00,-6.00,-13.00,-6.00,-4.00,+2.00
+1.00,+4.00,-2.00,-1.00,+6.00,-12.00,-4.00,+0.00,+88.00,+25.00,+11.00,+15.00,+22.00,+5.00,+6.00,+23.00
-4.00,-1.00,+6.00,+4.00,-7.00,-7.00,+0.00,-1.00,-3.00,+8.00,+3.00,+2.00,+10.00,-1.00,-3.00,-14.00
+9.00,-22.00,-10.00,-4.00,-2.00,+16.00,+3.00,+8.00,-28.00,-16.00,-10.00,-16.00,-23.00,-10.00,-8.00,-15.00
-3.00,+16.00,+9.00,+4.00,+2.00,+6.00,+2.00,-2.00,-13.00,-25.00,-7.00,+7.00,+5.00,-2.00,+2.00,+3.00
-4.00,-9.00,-3.00,-5.00,-5.00,-14.00,+4.00,-3.00,+8.00,-12.00,-5.00,-2.00,+27.00,+8.00,+2.00,+12.00
+0.00,+3.00,+11.00,+3.00,+8.00,-2.00,-5.00,-4.00,+23.00,+68.00,+21.00,+9.00,-16.00,+1.00,+2.00,+7.00
-4.00,+32.00,+2.00,+3.00,-8.00,-10.00,+0.00,+1.00,+15.00,-5.00,+0.00,-1.00,-23.00,+0.00,+0.00,+1.00
+34.00,+5.00,+1.00,-3.00,-9.00,+10.00,+4.00,+15.00,+23.00,+7.00,-5.00,-4.00,-1.00,-3.00,-3.00,-3.00
-29.00,-28.00,-8.00,-2.00,+17.00,-20.00,+2.00,-8.00,-24.00,+7.00,+5.00,+5.00,+11.00,+1.00,-1.00,-4.00
+0.00,+1.00,-6.00,-3.00,-20.00,-12.00,-8.00,-5.00,+5.00,-24.00,-9.00,-6.00,-2.00,-3.00,+0.00,+7.00
+3.00,+2.00,+9.00,+1.00,+2.00,-7.00,-6.00,-4.00,+7.00,+20.00,+6.00,+5.00,+15.00,+2.00,+2.00,+14.00
+8.00,-17.00,-12.00,+2.00,-4.00,+7.00,+2.00,+5.00,+5.00,-12.00,-2.00,-3.00,-8.00,-14.00,+2.00,+6.00
-4.00,+5.00,+3.00,-3.00,+0.00,-3.00,+1.00,+1.00,+22.00,+10.00,+5.00,+5.00,+2.00,+3.00,+1.00,+6.00
+0.00,-3.00,-1.00,-2.00,+3.00,+4.00,-3.00,+1.00,-25.00,-17.00,-8.00,-6.00,+1.00,-6.00,-5.00,-11.00
+3.00,+6.00,+5.00,+3.00,+5.00,+28.00,+5.00,-2.00,+2.00,+8.00,+1.00,+6.00,-4.00,+5.00,+2.00,+8.00
-15.00,+3.00,-5.00,-2.00,+1.00,-8.00,-13.00,-9.00,-4.00,-15.00,-5.00,-3.00,+1.00,-1.00,-3.00,-6.00
+3.00,+4.00,+4.00,+2.00,-12.00,-18.00,+0.00,-1.00,-64.00,-16.00,-5.00,-4.00,-1.00,-5.00,-4.00,-10.00
-10.00,-4.00,-7.00,-2.00,+11.00,+13.00,+2.00,-4.00,+18.00,+11.00,+5.00,+4.00,-1.00,-2.00,+0.00,+7.00
+16.00,-23.00,+2.00,-1.00,-8.00,-13.00,+4.00,+5.00,-19.00,-17.00,-6.00,-1.00,+3.00,-7.00,-5.00,-24.00
-8.00,+22.00,+4.00,-2.00,+2.00,-5.00,-2.00,+0.00,+4.00,+12.00,+5.00,+5.00,-1.00,+7.00,+4.00,+12.00
+7.00,+5.00,-3.00,+0.00,+0.00,+8.00,+2.00,+0.00,-14.00,-21.00,-10.00,-9.00,-1.00,-2.00,-4.00,-6.00
+10.00,+7.00,+7.00,+3.00,+0.00,-7.00,-1.00,+2.00,+22.00,+18.00,-1.00,+2.00,-9.00,+0.00,+2.00,+8.00
-5.00,-1.00,-9.00,-5.00,-5.00,-3.00,-5.00,-5.00,+2.00,+6.00,+7.00,+19.00,+6.00,+8.00,-2.00,-4.00
-3.00,+1.00,+7.00,+2.00,+4.00,+6.00,+5.00,+6.00,-27.00,-33.00,-16.00,-10.00,+26.00,-1.00,-5.00,-11.00
-32.00,-13.00,-9.00,-8.00,-11.00,-8.00,-3.00,-2.00,-9.00,+14.00,+3.00,-11.00,-24.00,-3.00,+4.00,+4.00
+4.00,+14.00,+0.00,+4.00,+16.00,+5.00,+4.00,+3.00,+10.00,-22.00,-8.00,-8.00,-9.00,-10.00,-2.00,-2.00
+3.00,-1.00,+11.00,-1.00,-26.00,-16.00,+1.00,+0.00,+26.00,+18.00,+7.00,+10.00,+27.00,+2.00,+2.00,+5.00
+6.00,+3.00,-5.00,+2.00,+11.00,+15.00,+3.00,-2.00,+20.00,+10.00,+3.00,+2.00,-29.00,-1.00,+1.00,+6.00
+8.00,-2.00,-5.00,-5.00,+24.00,+10.00,-3.00,-2.00,-28.00,-20.00,-4.00,-7.00,+7.00,+4.00,-3.00,-9.00
-9.00,-6.00,-8.00,-6.00,-13.00,-51.00,-6.00,+1.00,+21.00,+7.00,+3.00,+0.00,+10.00,+0.00,+2.00,+10.00
-32.00,-13.00,-2.00,-1.00,-8.00,+37.00,-5.00,-16.00,-22.00,-9.00,-3.00,-6.00,-3.00,-1.00,+1.00,+1.00
-1.00,-1.00,+0.00,+1.00,+3.00,-3.00,+5.00,-2.00,+16.00,-6.00,+1.00,+2.00,-4.00,+7.00,-3.00,-12.00
+11.00,+7.00,+5.00,+6.00,-3.00,+11.00,+0.00,+2.00,+6.00,+12.00,+1.00,+4.00,+2.00,-3.00,-2.00,-4.00
-11.00,-3.00,-5.00,-4.00,+16.00,+12.00,-1.00,-5.00,-9.00,+4.00,-2.00,-2.00,-3.00,+1.00,+0.00,+3.00
+9.00,+6.00,+0.00,+0.00,-1.00,-21.00,-7.00,-2.00,-12.00,-1.00,-3.00,-4.00,-6.00,-2.00,-4.00,-5.00
+3.00,+10.00,+0.00,-3.00,-8.00,-9.00,+0.00,-2.00,+4.00,-16.00,-9.00,-6.00,-1.00,-3.00,-3.00,-15.00
-16.00,-14.00,+0.00,+0.00,-4.00,-1.00,-4.00,-6.00,+5.00,+3.00,+2.00,+9.00,-2.00,-2.00,+4.00,+14.00
+11.00,-3.00,+4.00,+1.00,-5.00,+9.00,+0.00,-2.00,-15.00,-5.00,-5.00,-5.00,+3.00,-2.00,-2.00,-9.00
-4.00,+2.00,-2.00,+0.00,-2.00,-7.00,+1.00,+3.00,-36.00,-22.00,-9.00,-6.00,-3.00,-5.00,-5.00,-6.00
-6.00,-8.00,-1.00,+0.00,+3.00,+3.00,-1.00,-4.00,+91.00,+54.00,+16.00,+7.00,+1.00,+8.00,+13.00,+43.00
+12.00,+0.00,+0.00,+0.00,-5.00,-11.00,+0.00,+1.00,-1.00,+4.00,+0.00,+3.00,+2.00,-1.00,-2.00,-11.00
-13.00,-9.00,-7.00,-4.00,-5.00,+3.00,+0.00,+0.00,-21.00,-12.00,-1.00,+7.00,+8.00,+0.00,-3.00,-3.00
+23.00,+7.00,+0.00,+0.00,+5.00,-2.00,+4.00,+6.00,+29.00,+17.00,+0.00,-16.00,+10.00,-7.00,+0.00,+6.00
-2.00,+6.00,-1.00,-2.00,+0.00,-6.00,-3.00,+0.00,-40.00,-29.00,-13.00,-13.00,-50.00,-4.00,-10.00,-23.00
+22.00,-7.00,-1.00,-4.00,-6.00,-7.00,-2.00,-2.00,+9.00,+11.00,+5.00,+6.00,+6.00,+4.00,+3.00,+4.00
-9.00,+7.00,+11.00,+7.00,-1.00,+10.00,+2.00,+3.00,-7.00,+12.00,+3.00,-5.00,+4.00,+3.00,+2.00,+0.00
-8.00,-4.00,-9.00,-2.00,+13.00,+1.00,-1.00,-3.00,-4.00,-19.00,-5.00,+19.00,+14.00,-5.00,-2.00,-7.00
+7.00,-9.00,+3.00,-2.00,-12.00,+0.00,-3.00,-2.00,-37.00,-4.00,-1.00,-18.00,+8.00,-8.00,-7.00,-13.00
-1.00,+9.00,-1.00,+2.00,-11.00,-15.00,-6.00,+4.00,+20.00,+4.00,+2.00,+4.00,+16.00,+1.00,-1.00,+2.00
-4.00,-14.00,-8.00,-5.00,-3.00,+0.00,-4.00,-5.00,-30.00,-29.00,-14.00,-15.00,-36.00,-4.00,-6.00,-15.00
+8.00,+6.00,+6.00,+3.00,+28.00,+4.00,+3.00,+1.00,+39.00,+12.00,+4.00,+6.00,-3.00,+4.00,+5.00,+17.00
-11.00,+5.00,-3.00,+1.00,-27.00,-42.00,-5.00,-1.00,-7.00,-3.00,-2.00,+3.00,+9.00,+4.00,+0.00,+2.00
-7.00,-4.00,-3.00,-6.00,-8.00,+24.00,-2.00,-1.00,-20.00,+0.00,+2.00,+2.00,-6.00,-3.00,-1.00,+1.00
+8.00,-3.00,-4.00,-2.00,+0.00,+37.00,+9.00,+3.00,+0.00,-11.00,-2.00,-5.00,+15.00,-1.00,-2.00,+1.00
+1.00,-8.00,+3.00,+1.00,-3.00,-9.00,+0.00,+0.00,-4.00,+4.00,+1.00,-2.00,-7.00,+2.00,-7.00,-17.00
-1.00,-7.00,-5.00,-5.00,+9.00,+2.00,-2.00,-4.00,+11.00,+4.00,+3.00,+3.00,-5.00,+1.00,+9.00,+14.00
+2.00,+0.00,+3.00,+3.00,+0.00,+2.00,+4.00,+1.00,-20.00,-21.00,-7.00,-7.00,+0.00,-5.00,-4.00,-6.00
-1.00,-13.00,-11.00,-5.00,-5.00,-13.00,-4.00,+1.00,-32.00,-2.00,-4.00,+1.00,+1.00,-1.00,-2.00,-8.00
-13.00,+31.00,+14.00,+2.00,-7.00,+0.00,-5.00,-8.00,+77.00,+16.00,+1.00,-4.00,-10.00,-3.00,+0.00,+10.00
+15.00,+1.00,+2.00,+2.00,+6.00,+13.00,+4.00,+5.00,-18.00,-17.00,-3.00,+5.00,+8.00,-1.00,-5.00,-4.00
+8.00,-1.00,-1.00,+1.00,+1.00,-11.00,-1.00,-1.00,-8.00,+9.00,-2.00,-1.00,-5.00,-5.00,-3.00,-7.00
-41.00,-2.00,-3.00,-3.00,+0.00,+1.00,+0.00,+6.00,+13.00,+4.00,+0.00,-2.00,+2.00,+3.00,+5.00,+12.00
-4.00,-14.00,-9.00,-3.00,-3.00,-9.00,-1.00,-1.00,-31.00,-9.00,-5.00,-2.00,-4.00,-3.00,-1.00,-2.00
-8.00,+2.00,+0.00,+1.00,-1.00,-4.00,-7.00,-11.00,-14.00,-6.00,-2.00,-1.00,+1.00,-3.00,-4.00,-11.00
-9.00,-16.00,-3.00,+0.00,+4.00,+1.00,+5.00,+5.00,+0.00,-15.00,-10.00,-3.00,+4.00,-1.00,-5.00,-19.00
+6.00,-3.00,-2.00,-2.00,-5.00,-15.00,+0.00,-4.00,+1.00,-5.00,+3.00,+14.00,-5.00,-6.00,-2.00,+3.00
+5.00,-5.00,-1.00,-2.00,-5.00,+4.00,-3.00,+0.00,-25.00,+4.00,-2.00,-8.00,+5.00,+1.00,-2.00,-6.00
-1.00,+10.00,+2.00,+0.00,+5.00,+7.00,+0.00,+2.00,+35.00,+13.00,+3.00,+3.00,-4.00,+1.00,+1.00,+12.00
-1.00,+3.00,-2.00,-2.00,-2.00,+2.00,+1.00,-3.00,-37.00,-16.00,-8.00,-7.00,-10.00,-2.00,-4.00,-6.00
+9.00,+2.00,-1.00,-3.00,+2.00,-6.00,-5.00,-2.00,-5.00,-4.00,-2.00,+1.00,+12.00,-2.00,-1.00,-5.00
-8.00,-21.00,-9.00,-5.00,-8.00,-10.00,-4.00,+0.00,+0.00,-2.00,+0.00,+3.00,-5.00,+4.00,+3.00,+4.00
+1.00,+7.00,-3.00,-3.00,-2.00,+23.00,+6.00,-5.00,-3.00,+8.00,+5.00,+6.00,+10.00,+3.00,+2.00,-2.00
+1.00,+0.00,+4.00,+4.00,-4.00,-2.00,+0.00,+2.00,+7.00,+0.00,+5.00,+1.00,+2.00,+0.00,+1.00,+12.00
+4.00,-6.00,+0.00,+3.00,-1.00,-2.00,+2.00,-2.00,+3.00,-5.00,-5.00,-5.00,-3.00,-2.00,-3.00,-9.00
-1.00,+2.00,+1.00,-1.00,+3.00,-6.00,+3.00,+5.00,-44.00,-9.00,-1.00,-2.00,-2.00,+2.00,+3.00,+3.00
-5.00,-11.00,-3.00,-3.00,-1.00,-2.00,-1.00,+4.00,+6.00,-11.00,-5.00,-3.00,-1.00,-9.00,-3.00,+2.00
-1.00,+20.00,+5.00,-1.00,+0.00,-2.00,-3.00,-4.00,+5.00,+15.00,+6.00,+1.00,-2.00,+12.00,+2.00,-4.00
+20.00,+6.00,+5.00,+2.00,+3.00,+4.00,+0.00,+2.00,-7.00,-5.00,-1.00,-4.00,-4.00,-2.00,-4.00,-15.00
+1.00,-2.00,+0.00,+0.00,-4.00,+5.00,-1.00,-3.00,-17.00,-14.00,-10.00,-4.00,-7.00,-4.00,-4.00,-12.00
-10.00,-10.00,-3.00,-3.00,+1.00,-1.00,-1.00,-6.00,+10.00,+14.00,+3.00,+3.00,+7.00,+4.00,+0.00,-5.00
-9.00,-2.00,-5.00,-2.00,+2.00,-4.00,-5.00,-4.00,+16.00,+12.00,+4.00,+0.00,-11.00,-17.00,-2.00,+12.00
+44.00,+10.00,+5.00,+2.00,+7.00,+2.00,+0.00,+15.00,-18.00,-7.00,-3.00,-3.00,-1.00,+11.00,-3.00,-11.00
+3.00,+47.00,+5.00,+4.00,-7.00,-3.00,-2.00,+4.00,+9.00,-11.00,-2.00,-2.00,+1.00,+1.00,-1.00,-2.00
-1.00,+43.00,-7.00,-1.00,+0.00,-4.00,-1.00,-6.00,+1.00,+0.00,-2.00,+7.00,-1.00,-2.00,-2.00,+1.00
-10.00,+20.00,-10.00,-8.00,-4.00,-8.00,-4.00,+12.00,+6.00,-6.00,-5.00,-5.00,-2.00,-3.00,-2.00,-1.00
-20.00,+10.00,-3.00,-3.00,-6.00,-5.00,-1.00,+0.00,-10.00,-10.00,-3.00,-2.00,+4.00,-4.00,-5.00,-2.00
+10.00,+0.00,+3.00,+1.00,-2.00,+3.00,+2.00,+2.00,-6.00,+7.00,+4.00,-4.00,-12.00,-1.00,+2.00,+2.00
-5.00,-17.00,-2.00,-2.00,+6.00,-4.00,-3.00,+3.00,-14.00,-5.00,+0.00,-1.00,-1.00,+2.00,+1.00,-2.00
+14.00,-8.00,-1.00,+0.00,-5.00,-4.00,-5.00,-4.00,+7.00,+3.00,+0.00,+2.00,+1.00,+2.00,+0.00,-2.00
+2.00,-9.00,+2.00,+1.00,-4.00,-3.00,+3.00,-4.00,-2.00,-9.00,-3.00,-2.00,-2.00,-7.00,+3.00,+6.00
-16.00,-28.00,-7.00,-3.00,+1.00,+1.00,-2.00,-3.00,-4.00,+2.00,-1.00,-4.00,+2.00,-1.00,-4.00,+6.00
+0.00,-19.00,-4.00,+0.00,-1.00,-5.00,-4.00,-4.00,-17.00,-13.00,-3.00,-6.00,-1.00,-2.00,-2.00,-12.00
+8.00,-11.00,+3.00,+0.00,+5.00,+8.00,+2.00,+0.00,+7.00,-5.00,+0.00,-2.00,-2.00,+3.00,+0.00,+2.00
-3.00,-10.00,-4.00,-2.00,-4.00,+0.00,+0.00,+1.00,+24.00,+20.00,+3.00,+1.00,+5.00,-6.00,-1.00,+5.00
-4.00,-13.00,+1.00,+2.00,+4.00,-2.00,-2.00,-8.00,+14.00,+9.00,+1.00,+4.00,+2.00,-2.00,+0.00,-3.00
-41.00,-17.00,-1.00,-1.00,-5.00,-5.00,-5.00,+0.00,-2.00,+5.00,+2.00,-3.00,-6.00,-2.00,-3.00,+0.00
-6.00,-20.00,-4.00,-1.00,-2.00,-4.00,-2.00,-11.00,-3.00,-4.00,-5.00,-4.00,-4.00,-4.00,+0.00,-3.00
-8.00,+24.00,+7.00,+0.00,+0.00,-2.00,-4.00,-4.00,-18.00,-17.00,+2.00,+1.00,+3.00,+4.00,+5.00,+6.00
+4.00,-12.00,-4.00,+1.00,-3.00,-4.00,-3.00,+2.00,-2.00,+5.00,+2.00,+0.00,+0.00,+0.00,-3.00,-5.00
+13.00,-9.00,+3.00,+3.00,+3.00,+10.00,+2.00,+0.00,+1.00,+4.00,+0.00,-4.00,-6.00,-3.00,-3.00,-3.00
-3.00,-3.00,+4.00,+1.00,+1.00,-6.00,+4.00,+4.00,+7.00,-4.00,-3.00,+1.00,+4.00,+0.00,+0.00,+3.00
-4.00,-4.00,-6.00,-4.00,-1.00,-3.00,-1.00,-1.00,+9.00,+2.00,+1.00,-1.00,-1.00,-3.00,-3.00,-4.00
-18.00,-10.00,-7.00,-7.00,-9.00,-6.00,-6.00,-10.00,-10.00,-6.00,-2.00,-4.00,-3.00,-4.00,-3.00,-7.00
+2.00,+6.00,+11.00,+1.00,+3.00,-5.00,+0.00,+10.00,-19.00,-4.00,-3.00,-1.00,+3.00,+1.00,+0.00,+1.00
-9.00,-3.00,-1.00,-1.00,-5.00,+1.00,+5.00,+0.00,+16.00,-5.00,+1.00,-1.00,-2.00,-1.00,-3.00,-5.00
+1.00,-2.00,+1.00,+1.00,-11.00,-2.00,-3.00,-2.00,-3.00,+8.00,+0.00,-1.00,-4.00,-3.00,-4.00,-3.00
+11.00,+2.00,+1.00,+1.00,+3.00,+2.00,+3.00,+3.00,-4.00,-10.00,-4.00,-2.00,+0.00,-1.00,+0.00,-2.00
+14.00,-7.00,-9.00,-2.00,+0.00,+1.00,+0.00,-1.00,-8.00,-4.00,-2.00,-3.00,-1.00,-2.00,-1.00,+2.00
-3.00,-8.00,-4.00,-3.00,-3.00,-2.00,-1.00,-9.00,+10.00,+2.00,+0.00,-1.00,+0.00,+1.00,-1.00,+4.00
-2.00,+13.00,+10.00,+2.00,+4.00,-3.00,-3.00,+1.00,+3.00,+3.00,-3.00,+0.00,+0.00,+1.00,+0.00,+4.00
-17.00,-3.00,-5.00,-5.00,+0.00,+7.00,+2.00,-1.00,+4.00,-3.00,-1.00,+0.00,-3.00,+1.00,-2.00,-4.00
+15.00,-3.00,-1.00,-2.00,-1.00,-1.00,+1.00,+0.00,-4.00,+1.00,-2.00,+0.00,-1.00,+1.00,-1.00,-1.00
-10.00,+3.00,-1.00,+1.00,+4.00,-2.00,-4.00,-1.00,-4.00,+0.00,-1.00,+0.00,-1.00,-1.00,+1.00,+1.00
-1.00,-15.00,-7.00,-3.00,-2.00,-3.00,+0.00,-4.00,-2.00,-4.00,-2.00,-1.00,+5.00,-1.00,-2.00,-5.00
+2.00,-1.00,-1.00,-1.00,+2.00,+0.00,+2.00,+1.00,-4.00,-3.00,+3.00,+2.00,-11.00,+0.00,+3.00,+11.00
+13.00,+6.00,-2.00,+1.00,+0.00,-1.00,+0.00,-1.00,+14.00,+8.00,+3.00,+0.00,-1.00,-1.00,-1.00,+1.00
-3.00,-7.00,+0.00,+0.00,-3.00,-1.00,+1.00,-2.00,-12.00,+0.00,-2.00,-1.00,-1.00,-2.00,-2.00,-4.00
-14.00,-13.00,-8.00,-3.00,-2.00,-1.00,-4.00,-6.00,+0.00,-9.00,-7.00,-4.00,-4.00,-4.00,-6.00,-12.00
+13.00,+13.00,+3.00,+1.00,-1.00,+0.00,+1.00,+6.00,+6.00,+5.00,+2.00,+3.00,+9.00,+2.00,+3.00,+2.00
-8.00,-9.00,-4.00,-4.00,-4.00,-8.00,-4.00,-2.00,-2.00,-7.00,-1.00,-2.00,-3.00,+0.00,-3.00,-6.00
+0.00,+3.00,+3.00,+1.00,+6.00,+13.00,+2.00,-2.00,-6.00,-1.00,+1.00,-1.00,-2.00,+0.00,+0.00,+1.00
