+7.00,+4.00,+1.00,+1.00,+2.00,+1.00,+1.00,+3.00,+2.00,-2.00,+0.00,+2.00,-1.00,-1.00,-3.00,-7.00
-9.00,-4.00,-2.00,-3.00,-3.00,-1.00,-1.00,-6.00,-9.00,-10.00,-7.00,-4.00,-5.00,-2.00,+1.00,+14.00
-6.00,-6.00,-5.00,-1.00,-1.00,-1.00,-3.00,-4.00,-1.00,-1.00,-1.00,-1.00,-3.00,-2.00,+1.00,+0.00
-7.00,+2.00,+1.00,-1.00,-2.00,-2.00,-1.00,-1.00,-1.00,+1.00,+0.00,-2.00,+0.00,+0.00,-3.00,-6.00
+9.00,+1.00,-1.00,+1.00,+0.00,+1.00,-2.00,-2.00,+0.00,+0.00,-3.00,-2.00,-1.00,-1.00,-1.00,-4.00
+6.00,+2.00,+1.00,+0.00,-2.00,-3.00,-5.00,-11.00,-2.00,+0.00,-2.00,+0.00,-1.00,+1.00,+0.00,-1.00
+6.00,-1.00,-3.00,-3.00,-1.00,+0.00,+1.00,+4.00,-1.00,+3.00,+1.00,+0.00,+0.00,-1.00,-2.00,+1.00
-4.00,-7.00,-4.00,-2.00,-1.00,-1.00,-2.00,-5.00,+1.00,-2.00,+1.00,-1.00,-1.00,-2.00,-1.00,+3.00
+11.00,+0.00,-1.00,+1.00,+1.00,+1.00,+4.00,+7.00,-2.00,+1.00,+1.00,-1.00,-2.00,-1.00,+1.00,+3.00
-21.00,+0.00,+1.00,+0.00,+0.00,+0.00,+0.00,-5.00,+4.00,-6.00,-4.00,-2.00,+0.00,+0.00,-4.00,-7.00
-51.00,-14.00,-6.00,-7.00,-5.00,-7.00,-8.00,-12.00,-23.00,-20.00,-5.00,+1.00,-3.00,-1.00,-2.00,-3.00
-1.00,-3.00,+0.00,+1.00,+0.00,+0.00,-2.00,-1.00,+1.00,+12.00,+6.00,+1.00,+0.00,+1.00,-3.00,-6.00
+8.00,+3.00,+2.00,-1.00,-3.00,+0.00,+0.00,+1.00,+10.00,+19.00,+1.00,+6.00,+11.00,+2.00,+5.00,+10.00
+3.00,-5.00,-2.00,-2.00,-2.00,-1.00,-1.00,+6.00,+0.00,+10.00,+0.00,-12.00,-17.00,-6.00,-5.00,-6.00
+20.00,+6.00,+3.00,+3.00,+2.00,+1.00,+1.00,+2.00,-3.00,-19.00,-6.00,-6.00,-10.00,-4.00,-2.00,-1.00
-4.00,+0.00,-1.00,-2.00,+0.00,-1.00,-1.00,-1.00,-24.00,-17.00,-2.00,-2.00,-2.00,-2.00,-1.00,+0.00
-2.00,-1.00,+1.00,+0.00,-1.00,-1.00,-3.00,-3.00,+6.00,-5.00,+0.00,+9.00,+4.00,+3.00,-1.00,-4.00
+2.00,-4.00,-2.00,+1.00,-2.00,-1.00,-3.00,+3.00,+5.00,+3.00,-1.00,-8.00,-3.00,-4.00,-2.00,-3.00
-2.00,-9.00,-5.00,-1.00,-2.00,-1.00,+1.00,-1.00,-9.00,+6.00,-3.00,-7.00,-2.00,-3.00,-3.00,+3.00
-25.00,+10.00,-1.00,-2.00,-1.00,-3.00,-5.00,-7.00,+2.00,+8.00,+0.00,+2.00,-3.00,+0.00,-6.00,-3.00
+25.00,+16.00,+11.00,+3.00,+2.00,+1.00,+2.00,+1.00,-7.00,-9.00,-3.00,-3.00,+3.00,-2.00,-2.00,-3.00
+10.00,-12.00,-6.00,-1.00,+1.00,+6.00,-2.00,-6.00,+1.00,-2.00,+2.00,+9.00,+10.00,+4.00,+3.00,-1.00
+13.00,-23.00,-8.00,-4.00,-10.00,-15.00,+1.00,+5.00,+7.00,+3.00,+1.00,+7.00,+8.00,+3.00,+1.00,+1.00
-1.00,+33.00,+19.00,+2.00,-1.00,+1.00,+2.00,+8.00,+10.00,+0.00,-1.00,+8.00,-11.00,-5.00,-6.00,-9.00
+6.00,+7.00,+0.00,-3.00,-2.00,+0.00,+1.00,+5.00,-11.00,+0.00,-4.00,-26.00,-16.00,-8.00,-1.00,-5.00
-8.00,+6.00,+7.00,+2.00,-4.00,+6.00,+1.00,+6.00,-9.00,-7.00,-4.00,-5.00,-4.00,+2.00,-3.00,-6.00
+9.00,-11.00,-6.00,+1.00,+2.00,-3.00,-4.00,-3.00,-3.00,-3.00,-4.00,-12.00,-7.00,+0.00,-1.00,+0.00
+2.00,-14.00,-9.00,-4.00,-4.00,-4.00,+0.00,+0.00,+10.00,+4.00,+1.00,+3.00,+9.00,+3.00,+8.00,+18.00
+3.00,+7.00,-2.00,-3.00,+9.00,+2.00,+1.00,-3.00,-17.00,-18.00,-3.00,+2.00,-1.00,+0.00,-3.00,-8.00
-3.00,+3.00,+10.00,+1.00,-10.00,-3.00,+2.00,+7.00,+0.00,-3.00,+0.00,+1.00,+0.00,+0.00,-1.00,+2.00
-3.00,+1.00,+1.00,+0.00,+10.00,+20.00,+4.00,+6.00,+9.00,+8.00,+5.00,+7.00,+7.00,-3.00,+0.00,-3.00
-7.00,-9.00,-5.00,-1.00,-8.00,-4.00,-2.00,-1.00,+12.00,+12.00,+1.00,-7.00,+0.00,-1.00,-6.00,-8.00
+18.00,-15.00,-8.00,-3.00,-5.00,-4.00,-1.00,-11.00,-48.00,-36.00,-5.00,-1.00,-4.00,-2.00,-4.00,-20.00
-6.00,+2.00,-3.00,+1.00,+7.00,-14.00,-5.00,-15.00,+30.00,+10.00,+4.00,+6.00,+7.00,-1.00,+5.00,+15.00
-4.00,+24.00,+9.00,-1.00,-3.00,+0.00,+0.00,-5.00,+12.00,+21.00,+2.00,+4.00,+0.00,-1.00,+1.00,+3.00
-27.00,-11.00,-3.00,+0.00,+5.00,+0.00,-1.00,-9.00,-15.00,-29.00,-6.00,-1.00,+1.00,-2.00,-3.00,-2.00
-30.00,-21.00,-4.00,-2.00,-6.00,+1.00,+0.00,-1.00,-2.00,-12.00,+3.00,-1.00,+1.00,+4.00,+2.00,-7.00
+12.00,+29.00,+2.00,-4.00,-4.00,-1.00,+1.00,+8.00,-1.00,+24.00,+4.00,+22.00,+4.00,+2.00,-4.00,-8.00
+6.00,-9.00,+4.00,+0.00,+2.00,-1.00,+0.00,-1.00,-28.00,-23.00,-1.00,+4.00,-2.00,-23.00,-3.00,-1.00
+17.00,+4.00,+0.00,-1.00,-2.00,+3.00,+1.00,+6.00,+73.00,+40.00,+4.00,-17.00,-14.00,+8.00,+4.00,+10.00
+3.00,-41.00,-13.00,-2.00,-7.00,-6.00,-1.00,+9.00,-6.00,-9.00,-6.00,-7.00,-2.00,+18.00,+2.00,+7.00
-10.00,+0.00,+2.00,-2.00,+1.00,-3.00,-4.00,+6.00,-25.00,-13.00,-3.00,+25.00,+20.00,+9.00,-1.00,-18.00
+29.00,+37.00,+11.00,+4.00,+6.00,+4.00,+10.00,+3.00,+21.00,+15.00,+5.00,-18.00,+7.00,-4.00,+5.00,+7.00
-24.00,-18.00,-11.00,-7.00,-6.00,-3.00,-3.00,-4.00,-21.00,-6.00,-2.00,-3.00,+9.00,+4.00,+3.00,+5.00
+21.00,-49.00,-11.00,-4.00,+1.00,+1.00,+0.00,+2.00,+12.00,+2.00,-2.00,+4.00,-4.00,-9.00,+0.00,+4.00
+21.00,+77.00,+21.00,+6.00,+15.00,+9.00,-2.00,+6.00,+3.00,+1.00,-1.00,+1.00,-9.00,-7.00,-4.00,-3.00
+22.00,-8.00,-9.00,-3.00,-23.00,+3.00,-3.00,+0.00,+0.00,-4.00,-5.00,-14.00,+13.00,+6.00,-6.00,-11.00
+10.00,+11.00,+12.00,+4.00,+4.00,+2.00,+2.00,-4.00,-27.00,-1.00,+1.00,+1.00,-5.00,-12.00,+1.00,-6.00
-21.00,+11.00,-3.00,+2.00,+1.00,-16.00,+10.00,+1.00,+29.00,+14.00,+4.00,-2.00,-5.00,-2.00,-3.00,-3.00
-6.00,-29.00,-18.00,-6.00,-6.00,-2.00,-1.00,-8.00,-20.00,-20.00,-12.00,-11.00,-5.00,-2.00,+1.00,+13.00
-29.00,-20.00,-8.00,-5.00,+27.00,+12.00,-4.00,+3.00,+14.00,-1.00,-2.00,+8.00,+5.00,+0.00,+0.00,+0.00
-14.00,-6.00,+5.00,+7.00,-19.00,+8.00,+5.00,-7.00,-38.00,-8.00,-5.00,-4.00,+0.00,-1.00,-5.00,-13.00
-16.00,+28.00,+4.00,+1.00,-7.00,+4.00,-8.00,-7.00,+77.00,+39.00,+6.00,+2.00,-4.00,-14.00,-4.00,+16.00
-2.00,+3.00,-5.00,-1.00,-3.00,-7.00,+5.00,+1.00,-53.00,-35.00,-9.00,-10.00,+0.00,+14.00,+0.00,-21.00
-20.00,-4.00,+3.00,-2.00,-7.00,-1.00,-2.00,-4.00,+66.00,+19.00,+1.00,+1.00,-8.00,+1.00,+3.00,+23.00
+14.00,-32.00,-7.00,+0.00,+10.00,-16.00,+1.00,+6.00,+15.00,+11.00,+12.00,+23.00,+19.00,-20.00,+11.00,+12.00
+3.00,+21.00,-1.00,-3.00,+9.00,+10.00,-4.00,-6.00,-32.00,+0.00,-9.00,-17.00,-17.00,-2.00,-6.00,-9.00
-24.00,+9.00,-2.00,-3.00,-7.00,-4.00,-3.00,-3.00,-31.00,-28.00,-3.00,-2.00,-12.00,-23.00,-5.00,-4.00
-26.00,-22.00,+7.00,+3.00,+1.00,-2.00,-3.00,-14.00,+47.00,+15.00,+3.00,+17.00,+14.00,+25.00,+1.00,+0.00
+14.00,+14.00,-4.00,-6.00,-2.00,-6.00,-3.00,+9.00,-24.00,+0.00,-8.00,-10.00,-11.00,-18.00,-13.00,-18.00
-16.00,-11.00,+1.00,+0.00,-2.00,+1.00,-2.00,+1.00,-5.00,-8.00,-4.00,+4.00,-14.00,-9.00,-1.00,+11.00
-19.00,-36.00,-17.00,-5.00,-5.00,-4.00,-5.00,-4.00,-13.00,+31.00,+2.00,-32.00,-41.00,+11.00,-6.00,+3.00
-32.00,+10.00,-2.00,-3.00,-6.00,-8.00,+5.00,-9.00,-34.00,-21.00,-7.00,-21.00,-6.00,-17.00,-5.00,+0.00
-4.00,-61.00,-12.00,-3.00,+8.00,+7.00,-13.00,+6.00,-9.00,-19.00,-5.00,+8.00,+4.00,-9.00,-2.00,-1.00
+7.00,+65.00,+23.00,+6.00,-8.00,-6.00,+5.00,-1.00,+26.00,+33.00,+14.00,+9.00,+11.00,+10.00,-18.00,-6.00
+2.00,-19.00,-8.00,-3.00,+8.00,+8.00,-2.00,-1.00,+5.00,-6.00,-2.00,+4.00,+11.00,+50.00,+37.00,-10.00
+23.00,-26.00,+4.00,+5.00,+7.00,+1.00,-7.00,+6.00,+11.00,+11.00,+7.00,+12.00,+15.00,+16.00,+9.00,+24.00
+7.00,+44.00,+6.00,-1.00,-20.00,-10.00,+5.00,-2.00,-62.00,-34.00,-12.00,-13.00,-18.00,-9.00,-7.00,-25.00
-12.00,-11.00,-17.00,-10.00,+14.00,+12.00,-7.00,-10.00,-16.00,-19.00,-4.00,+5.00,+11.00,+11.00,+4.00,+13.00
-7.00,-38.00,+2.00,-3.00,-51.00,-2.00,-3.00,+5.00,+58.00,+28.00,+12.00,-3.00,+2.00,-16.00,-14.00,-1.00
+20.00,+30.00,+0.00,+3.00,+33.00,-17.00,+17.00,+17.00,-37.00,-9.00,+2.00,+5.00,-4.00,-9.00,-9.00,-27.00
+0.00,+0.00,-2.00,+0.00,+43.00,+11.00,-6.00,+8.00,-20.00,-18.00,-2.00,-2.00,+4.00,-2.00,+0.00,-7.00
-20.00,-6.00,+2.00,+0.00,-32.00,-17.00,-5.00,-6.00,-53.00,-9.00,-5.00,+5.00,+4.00,+3.00,+1.00,-15.00
+14.00,+12.00,+4.00,+3.00,-12.00,-9.00,-2.00,+0.00,+78.00,+17.00,+4.00,-3.00,+5.00,-7.00,-2.00,+34.00
+9.00,-27.00,-7.00,-5.00,-3.00,-10.00,-11.00,-1.00,-59.00,-42.00,-12.00,+4.00,-17.00,-6.00,-3.00,-32.00
+26.00,+38.00,+6.00,+3.00,-28.00,+16.00,+21.00,+4.00,+12.00,+37.00,+17.00,+10.00,+7.00,-11.00,-14.00,+11.00
+19.00,-23.00,+1.00,+4.00,+37.00,+11.00,+12.00,+11.00,+8.00,+7.00,-1.00,-20.00,-14.00,+20.00,+22.00,-1.00
-2.00,-6.00,+4.00,+4.00,+9.00,+10.00,-4.00,-4.00,-4.00,-19.00,-10.00,-9.00,-10.00,-57.00,-15.00,+6.00
-16.00,-13.00,-6.00,+1.00,-20.00,-3.00,+0.00,+1.00,+1.00,+19.00,+1.00,-2.00,+0.00,+62.00,+10.00,+11.00
+4.00,+1.00,+0.00,-2.00,+11.00,-4.00,-14.00,+0.00,+8.00,-12.00,-1.00,-6.00,-12.00,-6.00,-8.00,+3.00
-14.00,-4.00,+0.00,-1.00,-12.00,+0.00,-2.00,-14.00,-8.00,-8.00,-4.00,+8.00,+20.00,+31.00,+13.00,+4.00
+15.00,+24.00,+2.00,-1.00,+3.00,-1.00,-5.00,+1.00,+7.00,+18.00,-1.00,-1.00,-12.00,-25.00,-10.00,-12.00
-13.00,+0.00,-12.00,-5.00,-1.00,+3.00,-11.00,-4.00,+26.00,+6.00,-5.00,-28.00,-53.00,-50.00,-8.00,+17.00
+7.00,+16.00,-4.00,-6.00,-3.00,+0.00,-5.00,-3.00,+13.00,-11.00,-6.00,+1.00,+15.00,-6.00,-11.00,+6.00
-6.00,-15.00,+11.00,+6.00,-19.00,-4.00,+12.00,+5.00,+12.00,+16.00,+1.00,-7.00,+1.00,-3.00,+7.00,+4.00
-7.00,-18.00,-4.00,+0.00,+40.00,+3.00,+9.00,-2.00,-53.00,-43.00,-10.00,-8.00,-4.00,-12.00,-20.00,-12.00
-22.00,-7.00,-16.00,-11.00,-17.00,-13.00,-10.00,-21.00,+29.00,+8.00,+2.00,+24.00,+22.00,+14.00,-7.00,-6.00
+0.00,-38.00,-3.00,-3.00,+4.00,+6.00,-10.00,-10.00,-9.00,-8.00,-4.00,+5.00,-19.00,+46.00,+2.00,-16.00
+19.00,+28.00,+1.00,+1.00,+20.00,-3.00,-6.00,-1.00,+19.00,-9.00,-3.00,-1.00,-28.00,-13.00,+0.00,+10.00
-2.00,+9.00,+3.00,+1.00,-4.00,+26.00,+1.00,-3.00,+32.00,+35.00,+7.00,-7.00,+36.00,-9.00,+1.00,+17.00
-5.00,-11.00,-1.00,+1.00,-22.00,-12.00,+26.00,+1.00,-21.00,+3.00,-1.00,+2.00,+1.00,-1.00,+9.00,-8.00
+12.00,-3.00,-14.00,-7.00,+20.00,-16.00,-14.00,-14.00,-24.00,+21.00,+3.00,-2.00,-3.00,-3.00,+5.00,-13.00
-16.00,-13.00,+11.00,+1.00,+9.00,+1.00,-13.00,-1.00,+68.00,+18.00,+7.00,+19.00,+15.00,+2.00,+6.00,+31.00
-30.00,-16.00,-5.00,-3.00,-16.00,-3.00,+19.00,-7.00,-37.00,-53.00,-21.00,+0.00,+12.00,-56.00,-8.00,-8.00
+17.00,+20.00,+6.00,-1.00,+9.00,+4.00,-24.00,-1.00,+17.00,+57.00,+22.00,+1.00,-26.00,+53.00,-12.00,-8.00
-7.00,-30.00,-2.00,+1.00,-19.00,+2.00,+16.00,+3.00,-3.00,+6.00,-1.00,-6.00,+5.00,+42.00,+19.00,+6.00
+11.00,+13.00,-6.00,-3.00,+37.00,+4.00,-13.00,+0.00,-57.00,-23.00,-11.00,-2.00,+48.00,-31.00,+5.00,-19.00
+2.00,+5.00,-7.00,-6.00,+47.00,+9.00,-14.00,-1.00,+58.00,+27.00,+12.00,-1.00,-19.00,+25.00,+8.00,+20.00
+5.00,+48.00,+19.00,+5.00,-72.00,-48.00,+3.00,+3.00,-68.00,-45.00,-24.00,-32.00,-16.00,-50.00,-12.00,-19.00
+17.00,+10.00,-4.00,+0.00,+4.00,+5.00,+2.00,+13.00,+18.00,-11.00,-11.00,-9.00,+13.00,-11.00,-16.00,-13.00
+14.00,+17.00,+11.00,+7.00,-7.00,+0.00,+3.00,+4.00,+40.00,+44.00,+25.00,+17.00,-6.00,+10.00,-7.00,+15.00
-19.00,-32.00,-7.00,-4.00,+5.00,+7.00,+1.00,+2.00,-20.00,-13.00,-8.00,+11.00,+24.00,+27.00,+4.00,-19.00
+4.00,+3.00,-4.00,-10.00,+5.00,-5.00,-16.00,-4.00,+20.00,+0.00,+6.00,+15.00,+8.00,-19.00,+2.00,+7.00
+26.00,+40.00,+9.00,+7.00,-5.00,+1.00,+40.00,-10.00,-14.00,-6.00,+0.00,-6.00,-12.00,+20.00,+10.00,-1.00
-59.00,-27.00,-8.00,-3.00,+10.00,+7.00,-7.00,+11.00,-80.00,-32.00,-18.00,-14.00,-17.00,-23.00,-23.00,-43.00
-7.00,-10.00,+1.00,+0.00,-7.00,-13.00,-9.00,-10.00,+96.00,+31.00,+12.00,+38.00,+29.00,-1.00,+7.00,+27.00
-8.00,+20.00,+18.00,+8.00,+44.00,+54.00,+26.00,+7.00,-16.00,-13.00,-6.00,-23.00,-32.00,+48.00,+5.00,-5.00
-11.00,-8.00,-12.00,-7.00,-46.00,-56.00,-12.00,-4.00,+19.00,+2.00,+0.00,-5.00,+28.00,-18.00,-6.00,+6.00
+33.00,+44.00,+2.00,-3.00,+0.00,+7.00,+0.00,-3.00,-22.00,-17.00,-6.00,-18.00,-16.00,-9.00,-13.00,-5.00
+20.00,-37.00,+11.00,+11.00,+14.00,-5.00,+15.00,+16.00,-56.00,-8.00,-11.00,-21.00,-15.00,+22.00,+15.00,-12.00
-19.00,-27.00,-17.00,-9.00,-9.00,-3.00,-11.00,-3.00,-20.00,+0.00,+4.00,+11.00,+4.00,-13.00,+3.00,+0.00
-17.00,+10.00,+3.00,+1.00,+4.00,+11.00,-13.00,-32.00,+14.00,-7.00,+2.00,+10.00,+10.00,-4.00,-10.00,-1.00
-50.00,-22.00,-6.00,-2.00,-14.00,-3.00,+6.00,+2.00,+65.00,+10.00,+4.00,+1.00,-4.00,+6.00,+8.00,+8.00
+12.00,+10.00,-14.00,-8.00,-9.00,-19.00,-10.00,-3.00,-79.00,-8.00,-4.00,+2.00,-20.00,-8.00,-8.00,-32.00
-2.00,-1.00,+2.00,-1.00,-20.00,+6.00,-14.00,-2.00,+3.00,+3.00,-6.00,+16.00,+43.00,-18.00,-3.00,+1.00
+1.00,+11.00,+5.00,+9.00,+71.00,+23.00,+18.00,+20.00,-4.00,-10.00,-1.00,-4.00,-14.00,-6.00,+8.00,+2.00
+36.00,-21.00,-13.00,-4.00,-34.00,-26.00,+5.00,+3.00,-51.00,-39.00,-11.00,-2.00,-4.00,-46.00,-25.00,-35.00
-13.00,+15.00,+16.00,+5.00,-11.00,-3.00,-7.00,+3.00,+102.00,+36.00,+13.00,+5.00,-6.00,+39.00,+22.00,+46.00
-8.00,-22.00,-13.00,-7.00,+7.00,-6.00,-5.00,+3.00,-34.00,-14.00,-2.00,+9.00,+28.00,+0.00,+7.00,+5.00
-7.00,-11.00,-7.00,-7.00,-19.00,-3.00,-26.00,-6.00,-36.00,-15.00,-8.00,-5.00,-15.00,+2.00,-5.00,-10.00
-7.00,+2.00,-4.00,-5.00,-2.00,-5.00,+16.00,-4.00,+29.00,+25.00,+10.00,+2.00,-1.00,-4.00,+6.00,+11.00
+32.00,-4.00,+21.00,+7.00,+6.00,+3.00,+7.00,+19.00,-45.00,-18.00,-2.00,-5.00,+1.00,+15.00,-8.00,-15.00
-24.00,+6.00,-9.00,+0.00,+10.00,+27.00,+16.00,+6.00,+20.00,+1.00,-1.00,+2.00,-15.00,-26.00,+1.00,-2.00
-11.00,-8.00,+1.00,-3.00,-32.00,-27.00,-10.00,-11.00,+30.00,-8.00,-3.00,+11.00,-7.00,+3.00,+16.00,+38.00
-14.00,-5.00,+1.00,-1.00,-11.00,-7.00,-14.00,+8.00,+5.00,+14.00,-4.00,-9.00,-16.00,+4.00,-10.00,-18.00
+16.00,-16.00,-23.00,-10.00,-16.00,-7.00,+8.00,+3.00,-16.00,-2.00,-1.00,-2.00,+41.00,-12.00,-2.00,+8.00
+21.00,+11.00,+27.00,+10.00,+11.00,+4.00,-9.00,+3.00,-5.00,-12.00,-3.00,-10.00,-27.00,-58.00,-12.00,-1.00
+1.00,-20.00,+2.00,+5.00,+17.00,+21.00,+2.00,+12.00,+37.00,+9.00,-2.00,-14.00,+7.00,+33.00,-6.00,-3.00
+22.00,+79.00,+3.00,-5.00,-15.00,-8.00,-6.00,-1.00,-19.00,-10.00,-6.00,-21.00,+0.00,-4.00,+4.00,+13.00
-27.00,-33.00,-14.00,-6.00,-8.00,-2.00,-3.00,-7.00,-2.00,+5.00,+1.00,+4.00,-1.00,+9.00,-5.00,+3.00
+43.00,+49.00,+14.00,+5.00,+2.00,-2.00,+1.00,+4.00,+11.00,-4.00,-6.00,-10.00,-4.00,-14.00,-18.00,-16.00
-18.00,-17.00,-6.00,-1.00,+0.00,+18.00,-1.00,+5.00,-29.00,-6.00,-2.00,+0.00,+1.00,-26.00,-1.00,-15.00
+18.00,-16.00,+9.00,+0.00,-15.00,+0.00,-3.00,-8.00,+44.00,+27.00,+13.00,+21.00,+20.00,+49.00,+16.00,+35.00
+28.00,+27.00,-5.00,-4.00,+1.00,-9.00,-6.00,-7.00,-82.00,-43.00,-16.00,-8.00,-20.00,-8.00,-9.00,-34.00
+1.00,-8.00,-8.00,-2.00,+27.00,+17.00,+7.00,+2.00,+50.00,+24.00,+12.00,+6.00,+18.00,+16.00,+10.00,+8.00
-15.00,+1.00,+0.00,-4.00,-20.00,-16.00,+5.00,-5.00,-18.00,+10.00,+1.00,-6.00,-12.00,-10.00,-4.00,-7.00
+0.00,-20.00,-8.00,+3.00,+43.00,+19.00,+25.00,+2.00,-18.00,+7.00,+0.00,+2.00,-1.00,-4.00,-7.00,-9.00
+9.00,+10.00,+4.00,+3.00,-19.00,-31.00,-24.00,-8.00,-17.00,-6.00,+2.00,-2.00,-20.00,-17.00,-8.00,-3.00
-4.00,-4.00,-3.00,-2.00,-3.00,+2.00,-7.00,-2.00,-7.00,-15.00,-4.00,-2.00,-2.00,+15.00,+1.00,-1.00
+19.00,+1.00,-5.00,-3.00,+17.00,+2.00,+27.00,+12.00,+24.00,+1.00,+0.00,+2.00,+6.00,+2.00,+5.00,+8.00
-15.00,-18.00,-5.00,-3.00,+3.00,+1.00,-13.00,-13.00,-14.00,-8.00,+1.00,+10.00,+5.00,-3.00,+9.00,+4.00
-3.00,+8.00,+5.00,+3.00,-3.00,+12.00,+14.00,+4.00,+33.00,+15.00,-2.00,-6.00,-11.00,+5.00,+4.00,+5.00
+16.00,+27.00,+0.00,-2.00,-8.00,-8.00,-2.00,-3.00,-40.00,-14.00,-7.00,-3.00,+23.00,+3.00,+1.00,-1.00
-33.00,-14.00,+8.00,+5.00,+13.00,+4.00,-20.00,+17.00,+24.00,+20.00,+3.00,-4.00,+2.00,-8.00,+2.00,+9.00
-22.00,-18.00,-11.00,-4.00,-25.00,-9.00,+2.00,-17.00,-30.00,-33.00,-8.00,-6.00,-2.00,-1.00,-9.00,-14.00
-11.00,+5.00,-13.00,-6.00,+3.00,+3.00,-1.00,-4.00,-9.00,+10.00,+3.00,+2.00,-7.00,-20.00,+1.00,+1.00
-3.00,-5.00,-13.00,-4.00,-2.00,-10.00,-4.00,-18.00,+9.00,-22.00,-3.00,+1.00,-3.00,+41.00,+2.00,+7.00
-5.00,-29.00,+14.00,+3.00,-11.00,-5.00,-4.00,-3.00,+20.00,+15.00,+3.00,+8.00,+12.00,-7.00,+9.00,+10.00
+11.00,+49.00,+3.00,-1.00,-1.00,+2.00,+3.00,+6.00,-15.00,-3.00,-2.00,+7.00,+1.00,+30.00,+0.00,-16.00
+0.00,+8.00,+7.00,+0.00,-11.00,+15.00,+2.00,+1.00,-5.00,-1.00,-2.00,+1.00,-15.00,-4.00,-3.00,-12.00
-45.00,-19.00,-9.00,-3.00,+8.00,-9.00,-2.00,-18.00,-13.00,-14.00,-9.00,-12.00,-17.00,-33.00,-9.00,+2.00
+10.00,+6.00,-2.00,+0.00,-13.00,+14.00,+9.00,+3.00,-15.00,-9.00,-2.00,+2.00,+3.00,+24.00,+5.00,-2.00
+6.00,-4.00,+1.00,+4.00,+5.00,+0.00,-15.00,+0.00,+42.00,+3.00,+1.00,+0.00,-6.00,-16.00,-1.00,+7.00
-4.00,-4.00,+1.00,+0.00,+13.00,+4.00,-6.00,-6.00,+34.00,+1.00,-2.00,-1.00,+5.00,-38.00,-11.00,+0.00
-15.00,-27.00,-4.00,-2.00,-4.00,+8.00,+3.00,+25.00,-6.00,-3.00,-4.00,-2.00,+2.00,+20.00,-1.00,-13.00
-18.00,+25.00,+8.00,-1.00,-35.00,-17.00,+10.00,+3.00,+22.00,+13.00,+4.00,+1.00,-14.00,-8.00,-8.00,+1.00
+4.00,-37.00,+0.00,-1.00,-7.00,-4.00,-10.00,+14.00,-8.00,+14.00,-2.00,+1.00,+4.00,-19.00,+1.00,+3.00
+8.00,+12.00,-4.00,-2.00,+6.00,+6.00,-22.00,-15.00,-45.00,-27.00,-9.00,-7.00,-7.00,-6.00,-7.00,-13.00
-2.00,-25.00,-5.00,+2.00,+4.00,-8.00,-10.00,+1.00,+28.00,+11.00,+5.00,-6.00,-3.00,-7.00,+2.00,+5.00
+6.00,+20.00,-3.00,-5.00,+4.00,-9.00,-3.00,-6.00,-23.00,-4.00,+2.00,+10.00,-7.00,-10.00,+1.00,-5.00
-6.00,+4.00,-7.00,-4.00,+0.00,+6.00,-17.00,-15.00,-24.00,-14.00,-11.00,-15.00,+3.00,-1.00,-4.00,+16.00
-9.00,+2.00,+3.00,+3.00,+3.00,-7.00,+11.00,+5.00,-9.00,+5.00,+2.00,+11.00,+6.00,+12.00,+5.00,+6.00
+13.00,-2.00,+11.00,+1.00,-11.00,-2.00,+13.00,-8.00,-56.00,-29.00,-16.00,-42.00,-45.00,-17.00,-10.00,-14.00
+19.00,+5.00,-11.00,-7.00,+3.00,-2.00,-11.00,-5.00,+17.00,-2.00,-1.00,+8.00,+10.00,+12.00,+6.00,+10.00
+0.00,-40.00,+4.00,+3.00,+7.00,+5.00,+5.00,-4.00,-33.00,-14.00,-7.00,-10.00,-8.00,-10.00,-17.00,-8.00
-28.00,-4.00,-2.00,-5.00,+13.00,+1.00,-2.00,-6.00,+46.00,+23.00,+13.00,+16.00,+7.00,+10.00,+26.00,+8.00
+17.00,-8.00,-6.00,+1.00,-12.00,+0.00,+5.00,+2.00,-6.00,+7.00,-4.00,-10.00,-2.00,-66.00,-2.00,+6.00
+8.00,+10.00,+10.00,+3.00,+10.00,-4.00,-2.00,+4.00,-18.00,-12.00,-4.00,+0.00,-4.00,+43.00,-15.00,-17.00
+6.00,-5.00,-7.00,-5.00,-18.00,+6.00,-2.00,+3.00,+4.00,+8.00,+0.00,-3.00,-7.00,-6.00,-7.00,-16.00
+6.00,+0.00,-3.00,-1.00,+12.00,-19.00,-7.00,-15.00,+3.00,-5.00,+1.00,+4.00,+9.00,+18.00,-1.00,+7.00
+1.00,-12.00,-9.00,-5.00,-4.00,+11.00,+4.00,+7.00,+16.00,+3.00,+1.00,+9.00,+1.00,-8.00,+4.00,+14.00
-9.00,+13.00,+13.00,-1.00,-3.00,-28.00,-10.00,-10.00,+3.00,+12.00,+3.00,-6.00,+3.00,-13.00,+4.00,+14.00
-14.00,+0.00,-2.00,+1.00,+1.00,-1.00,-3.00,+1.00,-17.00,-1.00,+4.00,+13.00,+8.00,+0.00,+2.00,-17.00
+18.00,+10.00,+9.00,+5.00,+8.00,-7.00,+6.00,-3.00,+6.00,-1.00,-3.00,-10.00,-3.00,+18.00,-5.00,-6.00
+8.00,+3.00,+3.00,+3.00,-49.00,-1.00,+8.00,-2.00,-20.00,-5.00,+5.00,+13.00,+15.00,+22.00,+6.00,-8.00
+6.00,-15.00,-15.00,-4.00,+13.00,+7.00,+16.00,-9.00,+16.00,+0.00,-2.00,+0.00,+3.00,-17.00,-5.00,-2.00
+40.00,+21.00,+2.00,-1.00,+0.00,-12.00,-32.00,+6.00,-12.00,-4.00,-3.00,-6.00,-9.00,+14.00,+3.00,+7.00
-3.00,-18.00,-1.00,-2.00,-7.00,+1.00,+3.00,+5.00,+1.00,-4.00,+0.00,+3.00,+1.00,-15.00,-2.00,+4.00
-14.00,-15.00,+4.00,-2.00,+10.00,-4.00,-6.00,+0.00,+25.00,+11.00,+0.00,-18.00,-8.00,+10.00,-1.00,+5.00
-2.00,-13.00,-4.00,-3.00,-6.00,+3.00,-7.00,-3.00,-45.00,-26.00,-6.00,-6.00,-13.00,-9.00,-3.00,-14.00
+3.00,-15.00,-2.00,+0.00,-1.00,+1.00,+11.00,+1.00,+59.00,+29.00,+5.00,+12.00,+25.00,-10.00,+5.00,-3.00
+10.00,+14.00,-7.00,-5.00,-13.00,+4.00,+1.00,-2.00,+14.00,+4.00,+2.00,-6.00,+14.00,-20.00,-7.00,+2.00
+9.00,+37.00,+5.00,+3.00,+15.00,+1.00,-9.00,+2.00,+3.00,+21.00,+5.00,+14.00,+13.00,+80.00,+17.00,+8.00
-2.00,-9.00,+1.00,+4.00,+11.00,+8.00,-6.00,-6.00,-13.00,-8.00,-7.00,-12.00,-5.00,+3.00,-6.00,-18.00
-10.00,+4.00,-2.00,-3.00,-8.00,-3.00,+5.00,-6.00,-5.00,-3.00,+2.00,-1.00,-6.00,-7.00,-7.00,-5.00
+21.00,-8.00,-9.00,-5.00,-9.00,+7.00,+4.00,+1.00,-20.00,-14.00,-7.00,-13.00,-6.00,+9.00,-5.00,-3.00
-10.00,-2.00,+8.00,+1.00,-1.00,-9.00,+6.00,-4.00,+22.00,+3.00,-3.00,+13.00,+15.00,+1.00,-5.00,-5.00
-5.00,+3.00,-5.00,-1.00,+10.00,-4.00,-8.00,-1.00,+5.00,+6.00,+3.00,-3.00,-5.00,-14.00,+2.00,+1.00
-14.00,-5.00,-9.00,-7.00,+6.00,+9.00,+2.00,-5.00,+5.00,-3.00,-6.00,-18.00,-20.00,+1.00,+0.00,+2.00
-31.00,-20.00,+3.00,+3.00,-26.00,+9.00,+12.00,+9.00,+3.00,+11.00,+5.00,+6.00,-10.00,+8.00,+0.00,+0.00
+26.00,+16.00,+3.00,+2.00,-17.00,-5.00,+2.00,-3.00,-26.00,-7.00,+0.00,+3.00,-2.00,-28.00,-7.00,-7.00
+4.00,-2.00,-2.00,+1.00,+25.00,+23.00,-2.00,+20.00,-3.00,-23.00,-5.00,+8.00,-5.00,-21.00,-1.00,+1.00
-18.00,-6.00,-12.00,-4.00,+5.00,-3.00,+5.00,-3.00,-58.00,-23.00,-9.00,-9.00,-4.00,-3.00,-3.00,-14.00
+16.00,+9.00,-1.00,-3.00,-1.00,+1.00,-1.00,+2.00,+63.00,+18.00,+5.00,-8.00,+3.00,+48.00,+5.00,+4.00
+3.00,+10.00,+4.00,+0.00,+19.00,+0.00,-2.00,-7.00,+19.00,+22.00,+4.00,-1.00,-2.00,-7.00,+0.00,+2.00
-21.00,-14.00,-2.00,-3.00,-28.00,-5.00,-8.00,+6.00,+2.00,-33.00,-15.00,-5.00,-3.00,-5.00,+10.00,+40.00
+6.00,+4.00,+6.00,+6.00,+14.00,+2.00,+1.00,+0.00,+5.00,+11.00,+8.00,+11.00,-13.00,+0.00,+2.00,+13.00
-5.00,+18.00,+8.00,+5.00,+10.00,-7.00,-6.00,+1.00,+5.00,+1.00,-8.00,-10.00,-12.00,-14.00,-5.00,-9.00
+14.00,-14.00,-8.00,-4.00,+14.00,+19.00,+3.00,+1.00,-13.00,+14.00,+9.00,+4.00,+2.00,+2.00,+0.00,+8.00
+12.00,+6.00,-12.00,-5.00,-17.00,-15.00,+5.00,-10.00,+24.00,-15.00,-9.00,+0.00,-1.00,+6.00,-6.00,-5.00
+0.00,-4.00,+18.00,+3.00,-8.00,-3.00,+0.00,+4.00,-43.00,-41.00,-6.00,-11.00,+5.00,-7.00,-3.00,-16.00
-23.00,-7.00,-8.00,-4.00,-14.00,-7.00,+1.00,-4.00,-3.00,-2.00,-8.00,-8.00,-4.00,-2.00,+2.00,+15.00
+2.00,-12.00,-7.00,-1.00,+11.00,+0.00,-16.00,-6.00,+23.00,+51.00,+6.00,+1.00,-14.00,-9.00,-10.00,-13.00
-19.00,+24.00,-3.00,-4.00,-4.00,+4.00,+1.00,+14.00,-80.00,-28.00,-7.00,-6.00,-2.00,-7.00,-1.00,-18.00
-29.00,-31.00,-7.00,-4.00,-13.00,-16.00,-3.00,-17.00,+86.00,+24.00,+8.00,+11.00,+7.00,+6.00,+15.00,+42.00
+17.00,+19.00,+8.00,+2.00,+1.00,-7.00,+0.00,+8.00,-92.00,-35.00,-8.00,+9.00,-2.00,-12.00,-15.00,-40.00
-6.00,-17.00,+1.00,-2.00,-1.00,-7.00,+2.00,-3.00,-29.00,-5.00,-7.00,+12.00,+42.00,+12.00,+6.00,+23.00
-5.00,-6.00,-3.00,+1.00,+4.00,+5.00,-3.00,-11.00,-11.00,+0.00,+1.00,-4.00,-10.00,-28.00,-7.00,-15.00
+17.00,-25.00,-9.00,-8.00,-15.00,-5.00,+0.00,+6.00,-38.00,-21.00,-11.00,+2.00,+3.00,+17.00,-3.00,-7.00
-4.00,+32.00,+21.00,+8.00,+31.00,+8.00,+3.00,+2.00,-17.00,-69.00,-6.00,-7.00,-9.00,-2.00,+1.00,-2.00
+1.00,+8.00,-2.00,-1.00,+9.00,+2.00,-6.00,-8.00,-4.00,+23.00,+10.00,+23.00,+20.00,-1.00,-3.00,-21.00
+4.00,-45.00,-26.00,-5.00,-19.00,-23.00,-4.00,-11.00,+91.00,+12.00,+13.00,-2.00,+8.00,+6.00,+5.00,+18.00
+14.00,+54.00,+27.00,+7.00,+7.00,+5.00,+8.00,+15.00,+37.00,+75.00,+24.00,+8.00,+5.00,-4.00,+7.00,+25.00
-36.00,-84.00,-9.00,+2.00,-5.00,+5.00,+0.00,+8.00,-2.00,-10.00,-14.00,-3.00,-3.00,-14.00,-1.00,+13.00
-13.00,+9.00,-6.00,-8.00,+5.00,+1.00,-1.00,-4.00,-55.00,-71.00,-5.00,-2.00,-10.00,-5.00,-9.00,-33.00
-53.00,+5.00,+0.00,-2.00,-40.00,+10.00,-9.00,+5.00,-64.00,-69.00,-29.00,-10.00,-1.00,+5.00,-4.00,-5.00
+27.00,+13.00,-2.00,-4.00,-2.00,+6.00,+4.00,+1.00,+56.00,+39.00,+9.00,-22.00,-4.00,-16.00,-4.00,-2.00
-4.00,+8.00,-4.00,-1.00,-6.00,-8.00,-9.00,-6.00,-32.00,+4.00,+11.00,+9.00,+7.00,+6.00,+0.00,-6.00
-10.00,-52.00,-9.00,-2.00,-1.00,-3.00,-6.00,+5.00,+14.00,+13.00,-6.00,-15.00,-18.00,-8.00,-2.00,+12.00
+26.00,-17.00,-13.00,+4.00,+27.00,+35.00,+8.00,+0.00,-12.00,-53.00,-2.00,+2.00,-1.00,-9.00,-5.00,-10.00
-11.00,-5.00,+0.00,+0.00,+2.00,-9.00,-4.00,-8.00,+41.00,+12.00,+0.00,+28.00,+16.00,+35.00,+15.00,+29.00
+8.00,+38.00,+9.00,+2.00,-6.00,+2.00,+7.00,-2.00,+17.00,-2.00,-9.00,-24.00,+10.00,-3.00,-1.00,-10.00
+15.00,-22.00,-4.00,-3.00,+0.00,-1.00,+6.00,-5.00,-13.00,+3.00,+4.00,+5.00,-10.00,-15.00,-3.00,-12.00
+30.00,+77.00,+16.00,-4.00,+5.00,+5.00,-2.00,+1.00,+52.00,+61.00,+16.00,+4.00,+15.00,+57.00,+7.00,+17.00
-17.00,-35.00,-10.00,-2.00,+8.00,-1.00,+2.00,+6.00,-48.00,-41.00,-6.00,+1.00,-23.00,-13.00,-6.00,-16.00
+56.00,+10.00,-4.00,+6.00,-4.00,-3.00,+8.00,+12.00,+69.00,+44.00,+9.00,-2.00,+16.00,-2.00,-6.00,+7.00
-5.00,-10.00,+12.00,+6.00,-5.00,-1.00,+6.00,-1.00,-44.00,-128.00,-37.00,-9.00,-8.00,+7.00,-3.00,-9.00
-7.00,-51.00,-31.00,-10.00,-2.00,-9.00,-8.00,-14.00,+15.00,+73.00,+27.00,+15.00,-3.00,-24.00,-7.00,-10.00
+27.00,+56.00,+46.00,+13.00,+16.00,+10.00,+11.00,+14.00,-27.00,-37.00,-15.00,+4.00,+32.00,-7.00,-2.00,-10.00
-8.00,+6.00,-30.00,-16.00,-21.00,+1.00,-20.00,-15.00,+21.00,-3.00,+8.00,-17.00,-38.00,+27.00,-2.00,+3.00
+13.00,+36.00,+8.00,+6.00,-18.00,-15.00,-3.00,+8.00,-3.00,-20.00,-4.00,-12.00,-7.00,-7.00,-1.00,-1.00
+1.00,+20.00,+15.00,+2.00,+1.00,+15.00,+14.00,-2.00,-20.00,-36.00,-16.00,-9.00,-12.00,-2.00,+9.00,+30.00
+9.00,+0.00,-11.00,+1.00,+15.00,+14.00,+11.00,+1.00,+9.00,+66.00,+22.00,+22.00,-5.00,+4.00,-12.00,-16.00
-21.00,-24.00,+7.00,+0.00,+13.00,+5.00,-2.00,-8.00,-15.00,-78.00,-25.00,-18.00,+24.00,-27.00,-2.00,+7.00
+21.00,+29.00,-6.00,-7.00,+2.00,-4.00,-9.00,-2.00,+5.00,+41.00,+17.00,-4.00,+3.00,+3.00,+5.00,+20.00
-25.00,-24.00,-5.00,-9.00,-7.00,-19.00,-14.00,-13.00,-72.00,-93.00,-42.00,-12.00,-15.00,-1.00,+1.00,-18.00
-9.00,-34.00,-7.00,+1.00,+1.00,+4.00,-4.00,-4.00,+11.00,+82.00,+33.00,+5.00,-4.00,+7.00,+13.00,+21.00
+12.00,+32.00,+1.00,-6.00,-14.00,+2.00,-4.00,+0.00,-59.00,-33.00,+21.00,+64.00,+25.00,+44.00,+13.00,+3.00
-1.00,+48.00,-7.00,+0.00,+1.00,-7.00,+10.00,+1.00,+54.00,+105.00,+17.00,-15.00,-17.00,-2.00,-9.00,-8.00
-27.00,-86.00,+21.00,+11.00,+12.00,-14.00,-1.00,+4.00,-40.00,-1.00,-12.00,+0.00,-3.00,-14.00,-9.00,-26.00
-19.00,-11.00,-25.00,-14.00,-18.00,-11.00,-8.00,-10.00,-29.00,-67.00,-35.00,-52.00,-17.00,-24.00,-13.00,-18.00
-27.00,-63.00,-4.00,-1.00,+6.00,+5.00,+0.00,+12.00,-5.00,-57.00,-21.00,-5.00,-13.00,+7.00,+1.00,-6.00
-38.00,-26.00,-13.00,+2.00,+54.00,+29.00,+0.00,-19.00,-22.00,+23.00,+30.00,+31.00,+4.00,-8.00,-4.00,-8.00
+63.00,+125.00,+36.00,+7.00,-29.00,-29.00,+5.00,+28.00,+64.00,+117.00,+25.00,+6.00,-11.00,+17.00,-2.00,+8.00
-18.00,-36.00,-27.00,-14.00,-16.00,-18.00,-6.00,-2.00,-23.00,-89.00,-28.00,-5.00,-12.00,-12.00,-3.00,-2.00
-22.00,-17.00,+11.00,+10.00,+4.00,-5.00,+4.00,+4.00,+90.00,+103.00,+26.00,-5.00,+2.00,-4.00,+2.00,+19.00
+29.00,+29.00,+31.00,+5.00,+5.00,+20.00,+10.00,+8.00,-47.00,-86.00,-34.00,-7.00,-2.00,-3.00,+2.00,+11.00
+19.00,+8.00,+4.00,+7.00,+9.00,-32.00,+0.00,-9.00,+88.00,+109.00,+30.00,+6.00,+13.00,-3.00,+2.00,+25.00
-13.00,+13.00,-34.00,-20.00,+7.00,+21.00,-12.00,-16.00,-83.00,-68.00,-27.00,-16.00,-12.00,-14.00,-10.00,-5.00
-20.00,-38.00,-3.00,-1.00,-22.00,-36.00,+11.00,-4.00,+23.00,+42.00,+28.00,+34.00,+36.00,+18.00,+23.00,+51.00
-9.00,-15.00,-21.00,-11.00,-12.00,-17.00,-16.00,-1.00,-39.00,+65.00,+30.00,+22.00,+37.00,-21.00,-6.00,-33.00
+18.00,+24.00,+17.00,+9.00,-2.00,+13.00,+5.00,-2.00,+19.00,-31.00,-13.00,-16.00,-32.00,-6.00,+1.00,+10.00
+30.00,+73.00,+16.00,+4.00,+6.00,+5.00,+1.00,+16.00,+13.00,+55.00,+5.00,+0.00,-5.00,+0.00,-10.00,-12.00
-27.00,-39.00,-19.00,-10.00,-6.00,-5.00,+1.00,+20.00,-59.00,-40.00,-19.00,+2.00,+1.00,-7.00,-7.00,-27.00
+2.00,+52.00,+8.00,-1.00,+1.00,-4.00,+0.00,-2.00,+82.00,+46.00,+11.00,-20.00,-34.00,-23.00,+3.00,+25.00
-20.00,-46.00,-18.00,-8.00,-3.00,+7.00,+0.00,-6.00,+55.00,+11.00,+15.00,+13.00,+30.00,+49.00,+17.00,+9.00
+8.00,-39.00,+13.00,+17.00,+7.00,+9.00,+5.00,+2.00,-67.00,-100.00,-34.00,+0.00,+2.00,-7.00,-14.00,-42.00
-27.00,-11.00,-32.00,-18.00,+11.00,+5.00,-21.00,-63.00,-95.00,+12.00,+6.00,+6.00,+1.00,-18.00,-6.00,-16.00
+11.00,+44.00,+49.00,+13.00,-20.00,+5.00,+13.00,+7.00,+23.00,-49.00,-15.00,-10.00,+23.00,+13.00,-2.00,-6.00
+20.00,+4.00,+58.00,+27.00,+31.00,+36.00,+12.00,+20.00,-9.00,+45.00,+30.00,-5.00,-12.00,-22.00,-12.00,-13.00
-28.00,-32.00,-20.00,-18.00,-28.00,-31.00,-8.00,-2.00,-66.00,-94.00,-42.00,-26.00,-18.00,+1.00,+1.00,+4.00
+32.00,+36.00,-20.00,-10.00,+16.00,+3.00,-13.00,-13.00,-122.00,+15.00,+20.00,+5.00,-15.00,-11.00,-10.00,-26.00
-45.00,-51.00,-18.00,-8.00,-27.00,+27.00,-1.00,+11.00,-64.00,-77.00,-24.00,-10.00,+11.00,+16.00,-5.00,-27.00
-35.00,+51.00,-27.00,-16.00,-5.00,-33.00,-7.00,-20.00,+39.00,+59.00,+20.00,+13.00,-6.00,-2.00,+9.00,+34.00
-6.00,+14.00,+1.00,+7.00,+19.00,-3.00,+4.00,+4.00,+15.00,-32.00,+7.00,-5.00,-2.00,+2.00,+4.00,-7.00
+44.00,+65.00,+21.00,-1.00,-52.00,-14.00,+2.00,+2.00,-23.00,-6.00,-11.00,-23.00,-17.00,-22.00,-1.00,+22.00
-34.00,+10.00,-3.00,+0.00,+23.00,+12.00,+0.00,-11.00,+6.00,+53.00,-9.00,+2.00,-7.00,+6.00,-8.00,-12.00
-22.00,-116.00,-28.00,+3.00,+15.00,+24.00,+0.00,-2.00,+21.00,+45.00,+46.00,+43.00,+34.00,+9.00,+15.00,+42.00
+12.00,+63.00,+51.00,+17.00,-4.00,-13.00,-1.00,+0.00,-8.00,+58.00,+18.00,+19.00,+14.00,-46.00,-7.00,-9.00
-7.00,+54.00,-24.00,-17.00,+1.00,-4.00,-10.00,+4.00,+27.00,-7.00,-38.00,-30.00,-51.00,+54.00,-8.00,-26.00
+47.00,+58.00,+0.00,-1.00,-15.00,-22.00,-5.00,-7.00,+69.00,+127.00,+61.00,+43.00,-2.00,+21.00,+9.00,+19.00
-37.00,-76.00,+0.00,+8.00,+58.00,+38.00,+1.00,+7.00,-128.00,-128.00,-66.00,-48.00,+17.00,-24.00,-19.00,-48.00
+1.00,-19.00,-18.00,+4.00,-39.00,-9.00,+12.00,+15.00,-43.00,+49.00,+11.00,+1.00,-15.00,-9.00,-15.00,-35.00
+19.00,-21.00,+1.00,+2.00,+16.00,+1.00,+7.00,+26.00,-40.00,-55.00,-29.00,-14.00,+3.00,-15.00,+7.00,+12.00
+13.00,+66.00,-3.00,-8.00,-4.00,-17.00,-6.00,-8.00,+92.00,+55.00,+19.00,+14.00,+9.00,+5.00,+6.00,+23.00
+36.00,-46.00,+42.00,+13.00,-4.00,+4.00,-1.00,+6.00,-51.00,-73.00,-13.00,+6.00,+9.00,-5.00,-1.00,+3.00
+37.00,-56.00,+9.00,+4.00,+17.00,+11.00,-3.00,-8.00,+37.00,-65.00,-9.00,+4.00,+16.00,+12.00,+8.00,+14.00
+4.00,+26.00,+13.00,+10.00,-9.00,+4.00,+11.00,+4.00,+58.00,+94.00,+35.00,+13.00,-16.00,-10.00,+2.00,+14.00
-73.00,-128.00,-105.00,-37.00,-36.00,-44.00,-16.00,-14.00,+21.00,-117.00,-14.00,-17.00,-17.00,+15.00,+13.00,+40.00
+58.00,+34.00,+71.00,+25.00,+33.00,+32.00,+7.00,+10.00,+26.00,+99.00,+8.00,+4.00,-14.00,-15.00,-14.00,-30.00
-37.00,-92.00,-53.00,-12.00,-47.00,-50.00,+3.00,-3.00,+94.00,+124.00,+45.00,+4.00,+0.00,+5.00,+19.00,+51.00
+57.00,-14.00,-13.00,-7.00,+3.00,+1.00,-4.00,-8.00,+29.00,-71.00,-26.00,-20.00,-7.00,-8.00,-8.00,-9.00
-16.00,-121.00,+1.00,+6.00,+9.00,-1.00,+2.00,-2.00,-128.00,+21.00,-7.00,+5.00,+3.00,-10.00,-8.00,-37.00
+21.00,+84.00,+0.00,-16.00,-21.00,-11.00,-14.00,-23.00,-11.00,-45.00,-40.00,-31.00,-24.00,-11.00,-2.00,-8.00
+15.00,-71.00,+15.00,+13.00,+9.00,+21.00,+7.00,-2.00,+54.00,+85.00,+80.00,+28.00,+10.00,+31.00,+22.00,+61.00
+8.00,+50.00,+18.00,+4.00,+5.00,-7.00,-7.00,-7.00,-69.00,-76.00,-30.00,-10.00,+22.00,-23.00,-14.00,-19.00
-54.00,-44.00,-41.00,-6.00,-5.00,-5.00,-6.00,-3.00,-32.00,-70.00,-19.00,-2.00,-3.00,+3.00,+0.00,+1.00
+23.00,-41.00,-57.00,-23.00,-18.00,-18.00,-7.00,+4.00,-82.00,-128.00,-27.00,+25.00,+10.00,-25.00,-12.00,-39.00
-64.00,-7.00,-28.00,-4.00,+15.00,+16.00,-8.00,-21.00,+90.00,+99.00,+25.00,-7.00,-38.00,+24.00,+8.00,+23.00
+21.00,+82.00,+64.00,+26.00,+10.00,+4.00,+14.00,+16.00,-86.00,-44.00,-35.00,-11.00,+14.00,-28.00,-6.00,-14.00
+0.00,-3.00,-52.00,-22.00,-1.00,-10.00,-14.00,-13.00,-14.00,-59.00,-12.00,-18.00,-16.00,-6.00,-8.00,-20.00
+2.00,+66.00,+15.00,+4.00,-11.00,-4.00,+0.00,+5.00,+57.00,+37.00,+15.00,+6.00,+23.00,+11.00,+18.00,+43.00
-82.00,+56.00,-33.00,-17.00,+5.00,-5.00,-8.00,-5.00,+14.00,+66.00,+45.00,+28.00,+21.00,-1.00,-5.00,-41.00
-18.00,-37.00,-17.00,-1.00,-5.00,+4.00,-4.00,-2.00,+27.00,-39.00,-2.00,-6.00,-10.00,-2.00,+11.00,+27.00
+22.00,-44.00,-22.00,-4.00,-3.00,+5.00,+3.00,-1.00,-82.00,+23.00,-11.00,+4.00,+2.00,+17.00,-1.00,-2.00
+24.00,+66.00,-25.00,-21.00,+4.00,-25.00,-11.00,-13.00,+19.00,+61.00,+15.00,-3.00,-2.00,+3.00,+2.00,+19.00
+40.00,-89.00,+33.00,+25.00,-2.00,+47.00,+17.00,+28.00,-124.00,-128.00,-89.00,-33.00,-3.00,-12.00,-23.00,-54.00
-17.00,-4.00,+30.00,+10.00,+5.00,-19.00,-2.00,+11.00,+33.00,+54.00,+20.00,+6.00,-6.00,+0.00,-11.00,-54.00
-12.00,+127.00,+49.00,+3.00,-16.00,+3.00,-3.00,-10.00,+66.00,-28.00,-16.00,-1.00,+5.00,-6.00,+7.00,+24.00
-100.00,-128.00,-75.00,-11.00,-9.00,-14.00,-2.00,-17.00,-73.00,-57.00,+3.00,-6.00,-7.00,+4.00,-3.00,-3.00
-15.00,-44.00,-8.00,+2.00,+29.00,+16.00,-3.00,-6.00,+11.00,-12.00,-9.00,-11.00,-7.00,+2.00,+3.00,+19.00
+26.00,+28.00,+68.00,+20.00,+7.00,+9.00,+13.00,+3.00,-89.00,+93.00,-4.00,-8.00,-17.00,-31.00,-32.00,-62.00
-38.00,-38.00,-14.00,-8.00,+4.00,-4.00,-3.00,-9.00,+86.00,+95.00,+65.00,+22.00,+14.00,+14.00,+30.00,+66.00
-51.00,-113.00,-19.00,-2.00,-19.00,-1.00,-6.00,-2.00,+45.00,+39.00,-1.00,-6.00,-14.00,-14.00,-10.00,-13.00
-33.00,+34.00,-62.00,-25.00,-21.00,-18.00,-16.00,-27.00,-40.00,-47.00,-8.00,+12.00,+28.00,+16.00,+1.00,-9.00
-17.00,-75.00,-64.00,-24.00,-7.00,+5.00,-7.00,-13.00,+88.00,-77.00,-24.00,+10.00,+19.00,+4.00,+25.00,+78.00
+5.00,-34.00,+49.00,+29.00,+12.00,-3.00,+9.00,+30.00,-16.00,+78.00,+31.00,+4.00,-6.00,+7.00,-5.00,-2.00
-13.00,-44.00,+11.00,-1.00,-9.00,+4.00,+5.00,-4.00,-61.00,+51.00,+7.00,-22.00,-41.00,-16.00,-12.00,-10.00
+42.00,+105.00,+43.00,-1.00,-3.00,-16.00,-8.00,-5.00,-39.00,+123.00,-33.00,-30.00,-12.00,-22.00,-22.00,-49.00
-18.00,-128.00,-93.00,-24.00,-5.00,-6.00,-2.00,+13.00,+107.00,+96.00,+82.00,+45.00,+44.00,+30.00,+39.00,+111.00
+22.00,-27.00,-2.00,-8.00,-20.00,-1.00,-10.00,-2.00,+31.00,+5.00,-33.00,-24.00,+5.00,-12.00,-2.00,-3.00
+20.00,-8.00,+55.00,+23.00,+8.00,+5.00,+15.00,+24.00,-28.00,-65.00,-22.00,-7.00,-41.00,+3.00,+0.00,-33.00
+21.00,+39.00,+43.00,+5.00,+17.00,+1.00,-4.00,+0.00,+13.00,-123.00,-49.00,-14.00,-9.00,-12.00,-9.00,+1.00
-59.00,-73.00,+13.00,+5.00,-10.00,+11.00,+1.00,+10.00,-58.00,+57.00,+18.00,-6.00,-11.00,-1.00,-16.00,-27.00
+24.00,+75.00,+83.00,+12.00,-9.00,-23.00,-3.00,+1.00,-66.00,-43.00,-31.00,-18.00,-13.00,-24.00,-24.00,-41.00
+0.00,+96.00,+8.00,-7.00,-3.00,+2.00,-5.00,+0.00,+92.00,+48.00,+85.00,+62.00,+52.00,+43.00,+41.00,+52.00
+7.00,-37.00,-88.00,-22.00,-2.00,-17.00,-10.00,-36.00,-51.00,-88.00,-32.00,-23.00,-12.00,-12.00,-14.00,-26.00
-70.00,-16.00,+3.00,-10.00,-5.00,-1.00,-18.00,-52.00,-70.00,+41.00,-31.00,-20.00,-19.00,-8.00,-7.00,-50.00
-11.00,-90.00,+55.00,+30.00,+43.00,+25.00,+20.00,+0.00,-101.00,+67.00,+12.00,+10.00,+14.00,-8.00,-7.00,-17.00
+16.00,+56.00,-47.00,-17.00,-32.00,-29.00,-15.00,-21.00,+1.00,-103.00,-59.00,-32.00,-16.00,+9.00,+9.00,+33.00
+9.00,+21.00,+32.00,+1.00,+1.00,+3.00,+10.00,+8.00,+3.00,+63.00,+41.00,+23.00,+13.00,+29.00,+10.00,+14.00
-69.00,-102.00,-31.00,+4.00,+4.00,+4.00,+3.00,-2.00,+78.00,+78.00,+45.00,+38.00,+13.00,+16.00,+10.00,+38.00
+28.00,-14.00,-13.00,-9.00,-6.00,-2.00,-4.00,-6.00,-85.00,-90.00,-36.00,-15.00,+27.00,-44.00,-10.00,+0.00
+7.00,-79.00,-27.00,-8.00,-2.00,+0.00,-5.00,-22.00,-85.00,+32.00,+9.00,-9.00,-13.00,+22.00,-7.00,-52.00
-28.00,-45.00,+83.00,+48.00,+24.00,+18.00,+16.00,+39.00,-46.00,-34.00,-9.00,+2.00,+1.00,-21.00,-10.00,-1.00
+54.00,-11.00,-82.00,-36.00,-7.00,-7.00,-5.00,+3.00,-13.00,-68.00,-20.00,-20.00,-19.00,-1.00,-6.00,-6.00
+46.00,+3.00,-8.00,+2.00,-6.00,-4.00,+0.00,+10.00,+12.00,-105.00,-47.00,+5.00,-1.00,+3.00,+1.00,-24.00
-7.00,-105.00,+30.00,+30.00,+18.00,+26.00,+21.00,+18.00,+59.00,+117.00,+63.00,+16.00,+19.00,-7.00,+12.00,+64.00
-23.00,+5.00,+3.00,-15.00,-17.00,-16.00,-3.00,+1.00,+51.00,-80.00,+26.00,+28.00,+27.00,+29.00,+27.00,+38.00
+35.00,-46.00,+12.00,+17.00,+20.00,+8.00,+20.00,+32.00,+5.00,-2.00,-6.00,-2.00,-4.00,-18.00,-7.00,+2.00
+11.00,+17.00,+6.00,+5.00,+7.00,+9.00,+0.00,+8.00,-54.00,-97.00,-40.00,-20.00,-29.00,+7.00,-10.00,-41.00
-4.00,+103.00,-51.00,-40.00,-29.00,-5.00,-7.00,-13.00,-4.00,+67.00,+45.00,+11.00,+23.00,+2.00,-2.00,-4.00
+32.00,-9.00,+25.00,+16.00,+18.00,+2.00,-10.00,+0.00,-89.00,-72.00,-79.00,-24.00,-30.00,-30.00,-8.00,+9.00
-22.00,-31.00,-25.00,-10.00,-10.00,-7.00,-1.00,+8.00,+16.00,+84.00,+41.00,+9.00,+11.00,+33.00,+25.00,+18.00
-7.00,+67.00,-11.00,-15.00,-1.00,-9.00,-8.00,+10.00,+9.00,-80.00,-28.00,-16.00,-13.00,+15.00,-2.00,-13.00
+22.00,-12.00,+5.00,+6.00,+0.00,+10.00,+5.00,+9.00,-63.00,-114.00,-84.00,-38.00,-23.00,-23.00,-33.00,-46.00
+29.00,-5.00,+11.00,-7.00,-13.00,-3.00,+9.00,+22.00,+83.00,+127.00,+102.00,+49.00,+34.00,+7.00,+19.00,+32.00
+127.00,+115.00,+127.00,+62.00,+44.00,+27.00,+30.00,+42.00,+59.00,-7.00,-54.00,-13.00,+9.00,-16.00,-10.00,+24.00
+1.00,-13.00,-27.00,-20.00,-20.00,-10.00,-23.00,-43.00,-18.00,+56.00,+30.00,-19.00,-39.00,-13.00,-14.00,-56.00
-10.00,-27.00,-27.00,-17.00,-11.00,-13.00,-4.00,+11.00,+17.00,-108.00,-15.00,+14.00,-1.00,+11.00,+20.00,+52.00
+4.00,-45.00,-51.00,-6.00,+4.00,+10.00,+9.00,+10.00,+42.00,+89.00,+1.00,-4.00,-5.00,-5.00,-9.00,-15.00
+5.00,-82.00,-20.00,-17.00,-9.00,-12.00,-20.00,-51.00,+4.00,-75.00,+5.00,-2.00,+2.00,-19.00,-1.00,+7.00
-33.00,+10.00,-17.00,+3.00,-4.00,+3.00,+5.00,+7.00,+75.00,-41.00,+3.00,+12.00,+13.00,+25.00,+16.00,+30.00
+40.00,+62.00,+39.00,+11.00,+12.00,-3.00,-3.00,+3.00,+8.00,+80.00,+20.00,-6.00,+4.00,-16.00,-14.00,-13.00
-56.00,+18.00,-26.00,-29.00,-20.00,-18.00,-22.00,-47.00,-9.00,-52.00,-14.00,+3.00,+1.00,+1.00,+3.00,-29.00
+10.00,-52.00,+35.00,+40.00,+34.00,+32.00,+19.00,+11.00,-54.00,-26.00,-6.00,-6.00,-21.00,-23.00,-4.00,-2.00
-13.00,-82.00,-61.00,-28.00,-27.00,-18.00,-7.00,-3.00,-55.00,+121.00,+78.00,+42.00,+30.00,+42.00,+19.00,+38.00
-40.00,+65.00,+19.00,+7.00,+20.00,-4.00,-3.00,-17.00,-99.00,+11.00,-26.00,-2.00,-5.00,-3.00,-15.00,-44.00
+37.00,+15.00,+49.00,+14.00,+3.00,+1.00,+10.00,+16.00,+1.00,-14.00,+6.00,-5.00,+3.00,+5.00,+1.00,+25.00
-38.00,-17.00,-38.00,-24.00,-11.00,-7.00,-7.00,+14.00,-13.00,-12.00,-29.00,-18.00,-13.00,-5.00,-18.00,-50.00
+65.00,+38.00,+29.00,+14.00,+7.00,+2.00,+4.00,+13.00,+58.00,+30.00,+3.00,-1.00,-5.00,-9.00,+8.00,+41.00
-13.00,+14.00,+8.00,-8.00,-8.00,-3.00,-6.00,+19.00,-13.00,-34.00,-42.00,+3.00,+12.00,-7.00,-14.00,-2.00
+51.00,-37.00,+20.00,+8.00,+4.00,+3.00,+1.00,+2.00,-35.00,+32.00,+16.00,-15.00,-18.00,-7.00,-17.00,-65.00
-6.00,+75.00,+9.00,-11.00,-21.00,-11.00,-16.00,-38.00,-44.00,-115.00,-16.00,+0.00,-1.00,+8.00,+8.00,-4.00
-25.00,-15.00,-49.00,-17.00,+10.00,+4.00,+2.00,-9.00,+104.00,+95.00,+38.00,+50.00,+36.00,+15.00,+4.00,+21.00
+26.00,-53.00,+61.00,+51.00,+18.00,+12.00,+11.00,-23.00,+56.00,+8.00,-9.00,-56.00,-53.00,-15.00,+14.00,+35.00
-4.00,-32.00,-44.00,-5.00,-2.00,+2.00,-1.00,-10.00,-11.00,-107.00,-64.00,-39.00,-39.00,-21.00,-7.00,-14.00
+6.00,+49.00,+4.00,-12.00,-10.00,-6.00,-3.00,+0.00,-36.00,+51.00,+32.00,-1.00,-3.00,+0.00,-11.00,-22.00
-49.00,-20.00,-13.00,-8.00,-8.00,-12.00,-11.00,-16.00,-21.00,-67.00,-33.00,-9.00,-19.00,-8.00,+5.00,-2.00
-21.00,+84.00,+20.00,-3.00,+1.00,+2.00,+3.00,+7.00,-124.00,-39.00,-1.00,+14.00,+32.00,-5.00,-19.00,-54.00
+62.00,+72.00,+29.00,-2.00,-25.00,-2.00,-3.00,+7.00,+65.00,+0.00,+7.00,+14.00,+16.00,-9.00,+25.00,+87.00
-1.00,-90.00,+4.00,+20.00,+26.00,+10.00,+9.00,+17.00,+15.00,-8.00,-9.00,-8.00,-8.00,+36.00,+8.00,-11.00
-30.00,-91.00,-46.00,-7.00,+2.00,+4.00,-3.00,-16.00,-114.00,+7.00,+16.00,-12.00,-7.00,-5.00,-17.00,-50.00
+35.00,-65.00,+21.00,+0.00,-32.00,-4.00,+7.00,+24.00,+38.00,+19.00,+7.00,+12.00,+9.00,+6.00,+14.00,+25.00
-41.00,-64.00,-27.00,+0.00,+48.00,+22.00,+1.00,+19.00,-57.00,-77.00,-33.00,-12.00,-12.00,-9.00,-9.00,-29.00
+19.00,+61.00,+2.00,-23.00,-25.00,-29.00,-12.00,-22.00,+0.00,+8.00,+18.00,+20.00,+13.00,+8.00,+8.00,+26.00
+60.00,+38.00,+32.00,+16.00,+12.00,+7.00,+8.00,+15.00,-103.00,+44.00,-4.00,-12.00,-11.00,-21.00,-19.00,-37.00
-26.00,+13.00,-43.00,-25.00,-13.00,-13.00,-8.00,+32.00,+46.00,-72.00,-45.00,-27.00,-18.00,-15.00,-12.00,-19.00
-36.00,-53.00,-17.00,-7.00,-12.00,+0.00,-8.00,-20.00,+31.00,+67.00,+48.00,+38.00,+20.00,+23.00,+13.00,+44.00
-9.00,+65.00,+5.00,-2.00,-3.00,+3.00,+1.00,+8.00,-88.00,-42.00,-24.00,-2.00,+5.00,-12.00,-12.00,-21.00
+9.00,+3.00,+4.00,+3.00,+5.00,+4.00,+5.00,+16.00,-61.00,-19.00,-17.00,-42.00,-33.00,-13.00,-17.00,-66.00
+7.00,+6.00,-67.00,-23.00,-6.00,-1.00,-7.00,-18.00,+23.00,+43.00,+9.00,+3.00,-7.00,+3.00,+5.00,+10.00
-16.00,-31.00,+21.00,+10.00,+2.00,-3.00,+3.00,+3.00,+75.00,+120.00,+46.00,+18.00,+25.00,+12.00,+12.00,+56.00
+26.00,-59.00,-9.00,-1.00,+6.00,+2.00,-1.00,-6.00,-64.00,+9.00,+11.00,+2.00,-3.00,-15.00,-3.00,-24.00
+8.00,+36.00,+33.00,+18.00,+4.00,+1.00,+7.00,-4.00,+94.00,-8.00,+13.00,+12.00,+19.00,+9.00,+3.00,+27.00
+12.00,+21.00,-21.00,-15.00,-2.00,+1.00,-4.00,-7.00,-128.00,-77.00,-43.00,-9.00,+2.00,-4.00,+1.00,-5.00
-21.00,+11.00,-54.00,-36.00,-28.00,-28.00,-23.00,-33.00,-73.00,-67.00,-14.00,-3.00,-12.00,+2.00,-10.00,-36.00
-8.00,-54.00,+28.00,+29.00,+5.00,+18.00,+16.00,-12.00,+9.00,-26.00,-37.00,-28.00,-20.00,-30.00,-23.00,-44.00
-47.00,-120.00,-71.00,-30.00,-18.00,-8.00,-15.00,-15.00,-10.00,-70.00,-34.00,-10.00,-15.00,+6.00,+12.00,+30.00
+29.00,+17.00,+40.00,+22.00,+35.00,+4.00,+11.00,+21.00,+46.00,+127.00,+106.00,+53.00,+38.00,+7.00,+1.00,-10.00
+41.00,+10.00,+12.00,+1.00,+2.00,-1.00,+1.00,+7.00,-72.00,-99.00,-71.00,-41.00,-23.00,-6.00,-25.00,-59.00
-3.00,-26.00,+16.00,+11.00,+2.00,+8.00,+9.00,+17.00,-16.00,-63.00,-19.00,-2.00,+10.00,+9.00,+13.00,+17.00
+11.00,+64.00,+21.00,+1.00,+0.00,+3.00,+0.00,+2.00,-8.00,-42.00,-1.00,-7.00,-7.00,-41.00,-8.00,+29.00
-16.00,-82.00,+24.00,+17.00,+3.00,+7.00,+4.00,+18.00,+5.00,-19.00,-6.00,+2.00,-3.00,+11.00,-7.00,-27.00
-14.00,+85.00,-4.00,-24.00,-17.00,-20.00,-7.00,+4.00,+22.00,+119.00,+42.00,+11.00,+4.00,-4.00,-1.00,-19.00
+22.00,-32.00,+18.00,+15.00,+6.00,+2.00,+7.00,+33.00,-42.00,+3.00,-22.00,-12.00,-7.00,-2.00,-8.00,-18.00
-8.00,+10.00,-20.00,-15.00,-13.00,-3.00,-5.00,-14.00,+56.00,+42.00,+26.00,+22.00,+18.00,+10.00,+22.00,+64.00
+3.00,-12.00,-6.00,-1.00,+3.00,-4.00,-11.00,+13.00,-49.00,-38.00,-19.00,+23.00,+16.00,+1.00,-2.00,-15.00
+93.00,+18.00,+68.00,+44.00,+33.00,+35.00,+28.00,+41.00,-19.00,-33.00,-9.00,-2.00,+42.00,+5.00,+9.00,+18.00
-35.00,+14.00,-74.00,-42.00,-27.00,-26.00,-28.00,-22.00,+25.00,+64.00,+22.00,-35.00,-45.00,-25.00,-17.00,-32.00
+10.00,+41.00,+12.00,-1.00,-9.00,-7.00,-3.00,-8.00,-25.00,-10.00,+5.00,+3.00,+4.00,+21.00,+2.00,-12.00
-55.00,-22.00,-13.00,-3.00,-3.00,-6.00,-4.00,-47.00,+100.00,+11.00,-13.00,-8.00,-6.00,+4.00,+13.00,+44.00
-6.00,-124.00,-25.00,-1.00,-13.00,-8.00,-14.00,-32.00,-10.00,+6.00,+25.00,+26.00,+22.00,+8.00,-8.00,-17.00
-23.00,+74.00,+34.00,+10.00,+11.00,+4.00,+4.00,+20.00,+109.00,+18.00,+46.00,+29.00,+24.00,+21.00,+24.00,+14.00
+46.00,+34.00,+4.00,-1.00,-5.00,-1.00,-1.00,+1.00,+95.00,+69.00,+7.00,+1.00,-9.00,-2.00,+2.00,+12.00
+14.00,-10.00,+66.00,+27.00,+24.00,+16.00,+13.00,+3.00,-47.00,+8.00,+22.00,+14.00,+10.00,+6.00,-4.00,-17.00
+2.00,+47.00,-17.00,-14.00,-32.00,-11.00,-9.00,-16.00,-95.00,-60.00,-36.00,-21.00,-19.00,-18.00,-5.00,-3.00
-11.00,+33.00,+15.00,-3.00,+13.00,+13.00,+1.00,+2.00,+30.00,-35.00,+5.00,+4.00,+6.00,+8.00,+5.00,+41.00
-11.00,-17.00,+8.00,-4.00,+5.00,-13.00,-4.00,-1.00,+17.00,+47.00,+19.00,+3.00,-3.00,+0.00,-4.00,-24.00
+79.00,-11.00,+25.00,+4.00,-3.00,+4.00,+6.00,+10.00,-28.00,-51.00,-17.00,-5.00,-3.00,-7.00,-6.00,-7.00
+13.00,+19.00,-5.00,+0.00,+11.00,+2.00,+3.00,+9.00,-31.00,+1.00,+24.00,+7.00,+6.00,+0.00,+7.00,-2.00
-33.00,+27.00,-20.00,-16.00,-24.00,-9.00,-16.00,-24.00,-103.00,+76.00,+80.00,+67.00,+28.00,+23.00,+12.00,+6.00
+53.00,-54.00,+48.00,+27.00,+13.00,-1.00,+24.00,+55.00,-96.00,-87.00,-39.00,-47.00,+3.00,-13.00,-11.00,-18.00
-17.00,-62.00,+0.00,+4.00,+10.00,+4.00,+0.00,-9.00,+56.00,+0.00,-6.00,+14.00,-30.00,+0.00,+5.00,+19.00
+10.00,-6.00,+6.00,+7.00,-5.00,+0.00,+0.00,-2.00,-3.00,+42.00,+26.00,-26.00,+2.00,-7.00,-9.00,-35.00
-22.00,-14.00,-9.00,-19.00,-10.00,-7.00,-5.00,-3.00,+35.00,+37.00,-8.00,-26.00,-42.00,-3.00,+6.00,+20.00
+52.00,-99.00,-38.00,-1.00,+2.00,+4.00,-6.00,-17.00,-64.00,-76.00,-10.00,+5.00,+4.00,-4.00,-10.00,-55.00
-15.00,+7.00,-11.00,-2.00,-5.00,-2.00,+6.00,+9.00,+32.00,+57.00,+44.00,+4.00,+13.00,+9.00,+20.00,+60.00
-11.00,-7.00,-19.00,-8.00,-10.00,-7.00,-3.00,+0.00,-8.00,-56.00,-32.00,+4.00,-8.00,+1.00,-6.00,-14.00
+26.00,-34.00,-48.00,-8.00,+6.00,-1.00,+1.00,+10.00,-26.00,-101.00,-24.00,+19.00,+32.00,+7.00,-6.00,-18.00
+28.00,+54.00,+112.00,+63.00,+43.00,+31.00,+31.00,+43.00,-36.00,-29.00,-3.00,-4.00,+14.00,-3.00,+5.00,+33.00
-6.00,-29.00,-49.00,-14.00,-16.00,-6.00,-15.00,-18.00,-24.00,-21.00,-38.00,-35.00,-32.00,-19.00,-16.00,-17.00
-27.00,-6.00,-5.00,-14.00,+2.00,+22.00,-4.00,+22.00,+2.00,+43.00,+7.00,+11.00,-2.00,+4.00,-3.00,-28.00
+62.00,+69.00,+32.00,+20.00,+30.00,-34.00,+10.00,+21.00,+105.00,+44.00,+16.00,+15.00,+23.00,+22.00,+28.00,+75.00
-34.00,+12.00,+0.00,+1.00,+11.00,+15.00,+7.00,+3.00,-41.00,-6.00,-18.00,+5.00,-6.00,-7.00,-12.00,-25.00
-42.00,+5.00,-32.00,-18.00,-20.00,-9.00,-11.00,-14.00,-52.00,-83.00,-50.00,-26.00,+1.00,-12.00,-17.00,-51.00
-4.00,+62.00,+52.00,+21.00,+23.00,+7.00,+15.00,+11.00,+16.00,-36.00,+18.00,+9.00,-1.00,+4.00,+9.00,+27.00
-20.00,+13.00,-2.00,-11.00,-23.00,+3.00,-13.00,-18.00,-30.00,+44.00,-8.00,-15.00,-12.00,-16.00,-22.00,-51.00
-41.00,-40.00,-15.00,-5.00,-18.00,+0.00,-9.00,-19.00,-17.00,-45.00,-26.00,-1.00,+14.00,-6.00,-8.00,-10.00
-8.00,+52.00,-25.00,-9.00,+10.00,-12.00,-6.00,-12.00,+46.00,+56.00,+27.00,+5.00,-22.00,+3.00,-2.00,+6.00
-87.00,-94.00,-70.00,-29.00,-21.00,-10.00,-19.00,-29.00,-47.00,-36.00,+8.00,-13.00,-27.00,-8.00,+1.00,-14.00
+28.00,+49.00,-20.00,-8.00,-18.00,+1.00,-1.00,-27.00,+35.00,+0.00,-7.00,-6.00,-5.00,+10.00,-2.00,+5.00
-28.00,-19.00,+68.00,+24.00,+23.00,+9.00,+14.00,+20.00,+104.00,-67.00,-15.00,-2.00,-13.00,+7.00,+11.00,+43.00
-13.00,-75.00,-31.00,-22.00,-26.00,-3.00,-15.00,-19.00,-54.00,-2.00,+9.00,-6.00,+11.00,-5.00,-12.00,-42.00
-25.00,+5.00,-48.00,-13.00,-11.00,-18.00,-6.00,+2.00,-20.00,+64.00,+6.00,+9.00,+0.00,-1.00,+5.00,+30.00
-33.00,+3.00,+23.00,+19.00,+10.00,+3.00,+0.00,-13.00,+11.00,+46.00,+19.00,+9.00,+3.00,+1.00,+4.00,+16.00
+24.00,-29.00,-66.00,-26.00,-17.00,-10.00,-10.00,-3.00,+73.00,+101.00,-1.00,-15.00,-4.00,-3.00,+1.00,+15.00
+15.00,-3.00,-16.00,-11.00,-20.00,-9.00,-1.00,+33.00,-60.00,-32.00,+2.00,+0.00,-1.00,-13.00,+1.00,-15.00
+72.00,+34.00,+64.00,+30.00,+13.00,-2.00,+14.00,+13.00,+94.00,-24.00,-27.00,-7.00,-4.00,+9.00,+7.00,+43.00
-12.00,+24.00,+69.00,+17.00,+14.00,-5.00,+4.00,+10.00,-39.00,+21.00,+33.00,+20.00,+19.00,+4.00,+8.00,+19.00
-22.00,-6.00,-20.00,-8.00,-7.00,-6.00,-10.00,+1.00,-10.00,-54.00,-12.00,+9.00,-7.00,+0.00,+3.00,+20.00
+19.00,-25.00,+6.00,+2.00,+15.00,+13.00,+12.00,+25.00,+14.00,-35.00,+4.00,+3.00,+22.00,-2.00,+9.00,+32.00
+0.00,+10.00,+21.00,+8.00,+5.00,+3.00,-4.00,-16.00,-21.00,-21.00,-28.00,-7.00,-7.00,-6.00,-13.00,-46.00
-4.00,-11.00,-15.00,+0.00,-15.00,+6.00,+7.00,+28.00,-10.00,+8.00,-17.00,-7.00,+19.00,-9.00,-11.00,-7.00
+15.00,-5.00,+11.00,+7.00,-15.00,-2.00,-1.00,+4.00,-80.00,-94.00,-60.00,-51.00,-95.00,-23.00,-16.00,-24.00
-47.00,-81.00,-4.00,+0.00,+21.00,-10.00,-7.00,-28.00,-59.00,+41.00,+27.00,+6.00,+15.00,+12.00,+1.00,-9.00
+16.00,+58.00,-2.00,-2.00,+0.00,+1.00,+3.00,+10.00,-26.00,-14.00,+11.00,+7.00,-1.00,+0.00,-3.00,-6.00
-24.00,-71.00,+8.00,+1.00,-4.00,+1.00,-4.00,-12.00,-60.00,+0.00,-13.00,+10.00,+16.00,-7.00,-3.00,-9.00
+18.00,+30.00,+8.00,+7.00,+9.00,+11.00,+4.00,+2.00,-24.00,-20.00,-7.00,-16.00,-18.00,-11.00,-2.00,-1.00
+12.00,-16.00,-27.00,-7.00,-14.00,-9.00,-7.00,-13.00,+11.00,-5.00,-14.00,-11.00,-15.00,-4.00,-3.00,-15.00
-32.00,+17.00,-9.00,-5.00,+10.00,+16.00,+1.00,+29.00,-15.00,-11.00,-12.00,-4.00,+1.00,+7.00,+1.00,+5.00
+1.00,-14.00,-7.00,-7.00,-12.00,+1.00,-3.00,+0.00,-28.00,-67.00,-24.00,-21.00,-22.00,-16.00,-15.00,-35.00
+31.00,-61.00,+5.00,+6.00,+0.00,-11.00,+5.00,+12.00,-34.00,+0.00,+7.00,+1.00,-1.00,-5.00,-6.00,-11.00
-65.00,+29.00,-30.00,-19.00,-17.00,-14.00,-11.00,-30.00,-17.00,-16.00,+3.00,+3.00,+4.00,+8.00,-1.00,-9.00
+14.00,-4.00,+20.00,+16.00,+15.00,-2.00,+2.00,-8.00,+57.00,+57.00,+11.00,+6.00,+3.00,+0.00,+6.00,+25.00
+29.00,-18.00,+8.00,-1.00,-2.00,+1.00,-7.00,-3.00,+56.00,-10.00,-5.00,-2.00,-2.00,+1.00,-5.00,-6.00
+47.00,-32.00,-14.00,-11.00,-34.00,+3.00,-12.00,-21.00,-42.00,-36.00,+8.00,+26.00,+31.00,+8.00,+5.00,+5.00
+13.00,-9.00,-11.00,+0.00,+9.00,-22.00,+1.00,-8.00,+6.00,+16.00,-1.00,-20.00,+2.00,-8.00,-6.00,-10.00
+24.00,-10.00,-19.00,-12.00,-12.00,-5.00,-3.00,-12.00,-56.00,-68.00,-29.00,-20.00,-44.00,-11.00,-8.00,-6.00
-22.00,-9.00,-15.00,-4.00,-13.00,-13.00,-8.00,-7.00,-3.00,-14.00,-5.00,-4.00,-14.00,-1.00,-5.00,-12.00
-6.00,+124.00,+58.00,+6.00,+16.00,+2.00,-3.00,-18.00,+54.00,+72.00,+26.00,+21.00,+42.00,+7.00,+1.00,+7.00
+9.00,-32.00,+5.00,+0.00,-2.00,+4.00,-3.00,-7.00,-66.00,-51.00,-17.00,-23.00,-45.00,-13.00,-12.00,-27.00
-30.00,-87.00,+3.00,+12.00,+4.00,-1.00,-1.00,-11.00,-15.00,-67.00,-21.00,-8.00,+10.00,+0.00,+13.00,+57.00
-28.00,+20.00,-34.00,-14.00,+7.00,-4.00,-4.00,-3.00,+4.00,-17.00,+1.00,-16.00,-15.00,-4.00,-3.00,-15.00
-40.00,-38.00,-35.00,-16.00,-4.00,-1.00,-4.00,-5.00,+44.00,+27.00,+18.00,+31.00,+24.00,+0.00,+6.00,+12.00
+5.00,+5.00,+1.00,+2.00,-13.00,+2.00,+3.00,+8.00,+11.00,-19.00,-2.00,+15.00,+38.00,+7.00,+5.00,+4.00
+12.00,-3.00,-7.00,-4.00,+0.00,-3.00,+5.00,+3.00,-39.00,+1.00,-4.00,-24.00,-33.00,-7.00,-12.00,-21.00
-10.00,-44.00,-31.00,-10.00,-6.00,+5.00,-8.00,-6.00,-40.00,-47.00,-12.00,-12.00,-12.00,-3.00,+0.00,+8.00
-19.00,+10.00,+20.00,+10.00,+4.00,+0.00,+1.00,-4.00,-6.00,+53.00,+11.00,+5.00,+5.00,+3.00,+1.00,-5.00
-12.00,+15.00,+9.00,-2.00,+6.00,+9.00,-2.00,-8.00,-22.00,-14.00,-6.00,+9.00,+18.00,-1.00,-2.00,-2.00
+14.00,+49.00,-1.00,-3.00,-8.00,-31.00,-13.00,-17.00,+8.00,-30.00,-13.00,-9.00,-3.00,-6.00,-1.00,+1.00
-13.00,-5.00,+6.00,-3.00,+1.00,+10.00,-1.00,-13.00,+49.00,+105.00,+33.00,+9.00,+6.00,+7.00,+2.00,+8.00
-25.00,-23.00,-22.00,-2.00,+10.00,+1.00,-3.00,-1.00,-18.00,+17.00,+6.00,+6.00,-5.00,+4.00,+10.00,+6.00
+29.00,+8.00,+19.00,+4.00,-15.00,+8.00,+10.00,+18.00,+17.00,+0.00,-4.00,-4.00,+1.00,+5.00,+3.00,+11.00
-12.00,-15.00,+0.00,-1.00,+19.00,+2.00,+1.00,-7.00,+10.00,+33.00,+6.00,+4.00,-8.00,-3.00,-11.00,-34.00
-4.00,-12.00,-24.00,-6.00,-10.00,-9.00,-3.00,-10.00,-33.00,-87.00,-21.00,-2.00,-6.00,-1.00,+2.00,-1.00
-28.00,+27.00,+2.00,-3.00,-1.00,-4.00,-2.00,-7.00,-26.00,+21.00,+7.00,-8.00,+9.00,-2.00,+1.00,-2.00
-9.00,+12.00,+6.00,+2.00,-5.00,+3.00,-3.00,-3.00,+31.00,-9.00,+4.00,+12.00,-10.00,+3.00,+2.00,+6.00
+1.00,-36.00,-4.00,+0.00,-1.00,+6.00,+2.00,+9.00,-17.00,+35.00,+13.00,-18.00,-20.00,-4.00,+0.00,-9.00
-40.00,-44.00,-20.00,-7.00,-6.00,-8.00,-1.00,-8.00,-53.00,-120.00,-40.00,-15.00,-4.00,-6.00,-7.00,-13.00
+4.00,+15.00,-17.00,-3.00,+5.00,+1.00,-2.00,+0.00,+65.00,+68.00,+30.00,+6.00,-2.00,+5.00,-1.00,+0.00
-11.00,+11.00,+29.00,+8.00,-2.00,+8.00,-1.00,-7.00,-60.00,-17.00,-13.00,+24.00,+13.00,+0.00,-15.00,-39.00
+27.00,-2.00,-6.00,-7.00,-5.00,-6.00,+1.00,-3.00,+88.00,+59.00,+27.00,-1.00,+23.00,+7.00,+14.00,+38.00
+28.00,+4.00,+2.00,+0.00,+1.00,+1.00,+3.00,+1.00,+2.00,+26.00,+0.00,+3.00,-5.00,-5.00,-1.00,+2.00
-33.00,-34.00,-1.00,-10.00,-13.00,-12.00,-10.00,-26.00,-65.00,-51.00,-8.00,-1.00,+14.00,+1.00,-4.00,-12.00
+9.00,+25.00,-7.00,+1.00,+10.00,-20.00,+2.00,+19.00,+0.00,-19.00,-21.00,-42.00,-51.00,-14.00,-7.00,-4.00
-20.00,+11.00,+0.00,-7.00,-28.00,+13.00,-2.00,+4.00,-10.00,+67.00,+21.00,+23.00,+27.00,+9.00,+3.00,+3.00
+14.00,+15.00,+13.00,+7.00,+19.00,-9.00,+3.00,+5.00,+15.00,+19.00,-1.00,-2.00,-13.00,+0.00,+0.00,-4.00
-5.00,-24.00,-25.00,-8.00,+7.00,+0.00,-1.00,+4.00,-11.00,-40.00,-6.00,+4.00,+20.00,+1.00,-3.00,-2.00
+32.00,+26.00,+11.00,+9.00,+9.00,+0.00,+2.00,+6.00,+17.00,+24.00,+8.00,+14.00,+1.00,-11.00,+1.00,+0.00
-24.00,-27.00,-11.00,-12.00,-25.00,+0.00,-14.00,-43.00,-19.00,-22.00,-8.00,-11.00,-3.00,+6.00,+2.00,-7.00
-10.00,-2.00,+12.00,+15.00,+3.00,-1.00,+8.00,+11.00,+9.00,-19.00,-12.00,-7.00,+3.00,-5.00,-6.00,-10.00
+0.00,-10.00,-6.00,-8.00,+5.00,+4.00,-1.00,-2.00,-35.00,+41.00,+5.00,+8.00,-12.00,+0.00,-6.00,-16.00
+15.00,+21.00,+16.00,+6.00,-4.00,+12.00,-1.00,+6.00,+17.00,+15.00,+14.00,-5.00,+8.00,+8.00,+7.00,+17.00
+1.00,-5.00,-5.00,+2.00,+22.00,-5.00,-1.00,-15.00,-7.00,+3.00,-2.00,+19.00,+36.00,-1.00,-9.00,-17.00
+21.00,+14.00,+13.00,+6.00,-5.00,+10.00,+0.00,-1.00,-21.00,-1.00,-5.00,-19.00,-28.00,-11.00,-6.00,-6.00
+43.00,+18.00,+0.00,-2.00,-1.00,+9.00,+9.00,+29.00,+1.00,-52.00,-17.00,-19.00,-13.00,-7.00,-4.00,-5.00
-22.00,-15.00,-13.00,-7.00,-14.00,-13.00,-3.00,-10.00,+7.00,+19.00,-5.00,-6.00,-6.00,-1.00,+2.00,+16.00
+29.00,-10.00,+0.00,-1.00,+2.00,+15.00,+5.00,+28.00,-20.00,+3.00,-1.00,+11.00,+13.00,+5.00,-1.00,-7.00
+5.00,+63.00,+16.00,+2.00,+6.00,+3.00,-1.00,-1.00,-44.00,-37.00,-7.00,+8.00,+18.00,+1.00,-2.00,-9.00
-7.00,-26.00,-7.00,-6.00,-7.00,-5.00,-4.00,-11.00,+21.00,-7.00,-1.00,-9.00,-18.00,-3.00,+8.00,+22.00
+22.00,+17.00,-11.00,-3.00,-1.00,+6.00,+1.00,-1.00,-18.00,-19.00,-5.00,-4.00,+5.00,+0.00,+1.00,+15.00
-16.00,-16.00,+20.00,+9.00,+7.00,+5.00,+3.00,+8.00,+53.00,+49.00,+1.00,+7.00,+0.00,+1.00,-3.00,+6.00
+32.00,-11.00,-8.00,-6.00,+4.00,-13.00,-6.00,-4.00,-6.00,-10.00,-6.00,+6.00,+30.00,-1.00,-1.00,-1.00
-27.00,+20.00,-1.00,+0.00,-12.00,-20.00,-3.00,-11.00,-56.00,-21.00,-12.00,-21.00,-40.00,-13.00,-11.00,-20.00
-3.00,+16.00,+2.00,-2.00,+17.00,+5.00,-3.00,-13.00,+22.00,+2.00,+10.00,+19.00,+11.00,+7.00,+3.00,+7.00
-17.00,-4.00,-28.00,-10.00,-12.00,-8.00,-7.00,-11.00,-20.00,-38.00,-13.00,-16.00,-2.00,-9.00,-3.00,-7.00
+38.00,-1.00,+38.00,+14.00,+7.00,+16.00,+8.00,+19.00,+35.00,+7.00,+4.00,-1.00,-6.00,+4.00,+2.00,+5.00
+8.00,+19.00,+12.00,+0.00,-7.00,+0.00,+2.00,+8.00,+32.00,+35.00,+19.00,+15.00,+26.00,+8.00,-3.00,-12.00
-40.00,-31.00,-7.00,+1.00,+5.00,-4.00,-1.00,-6.00,+13.00,-3.00,-5.00,+4.00,-10.00,+0.00,-1.00,+5.00
-11.00,-7.00,+3.00,-1.00,+2.00,-2.00,+2.00,+0.00,-14.00,-11.00,-10.00,-9.00,-19.00,-9.00,+0.00,-2.00
+4.00,-17.00,-19.00,-10.00,-6.00,+2.00,-2.00,+0.00,+11.00,+37.00,+5.00,+1.00,-6.00,+2.00,-2.00,+6.00
+0.00,+23.00,-7.00,+0.00,+1.00,-7.00,-3.00,-6.00,+3.00,-13.00,+1.00,+42.00,+36.00,+10.00,+7.00,+4.00
+9.00,-4.00,+15.00,-2.00,+4.00,-5.00,+0.00,+2.00,+5.00,+8.00,-10.00,-76.00,-53.00,-18.00,-6.00,-10.00
+4.00,+16.00,-10.00,-1.00,-11.00,+1.00,+2.00,+6.00,-2.00,-16.00,-2.00,+0.00,-1.00,-6.00,+6.00,+24.00
-14.00,-9.00,-1.00,-2.00,+10.00,-6.00,-5.00,-7.00,-39.00,-14.00,-4.00,+2.00,-4.00,+5.00,-2.00,-12.00
-7.00,-6.00,+3.00,+9.00,+8.00,+5.00,+0.00,+3.00,+27.00,-4.00,+2.00,-16.00,-23.00,-2.00,-1.00,+7.00
-3.00,+5.00,-19.00,-9.00,-5.00,+6.00,-2.00,-4.00,-14.00,-1.00,+1.00,+24.00,+36.00,+7.00,+3.00,+2.00
-19.00,+10.00,+9.00,-3.00,-7.00,-13.00,-6.00,-22.00,-3.00,+5.00,+6.00,+2.00,-1.00,+1.00,+2.00,+2.00
-23.00,-15.00,-8.00,-2.00,-3.00,+16.00,+2.00,+5.00,+15.00,-24.00,-14.00,-13.00,-9.00,-5.00,-2.00,+5.00
+11.00,-6.00,-4.00,-3.00,-10.00,+4.00,-3.00,-11.00,+63.00,+41.00,+8.00,+8.00,+6.00,+7.00,+9.00,+26.00
-41.00,+4.00,+3.00,-4.00,-16.00,+30.00,-7.00,-5.00,-41.00,+24.00,+7.00,+10.00,+8.00,+3.00,+1.00,-7.00
+12.00,-11.00,+7.00,+13.00,+46.00,-31.00,+8.00,+12.00,+2.00,-30.00,-3.00,-9.00,-4.00,-5.00,-5.00,-4.00
+18.00,+0.00,-11.00,-5.00,-1.00,+6.00,-1.00,+15.00,+29.00,+33.00,+11.00,+19.00,+2.00,+1.00,+2.00,+7.00
-18.00,-13.00,-11.00,-10.00,-12.00,-13.00,-2.00,+0.00,-6.00,-16.00,+0.00,-6.00,+0.00,-3.00,-6.00,-5.00
+20.00,+26.00,+9.00,+7.00,+16.00,-2.00,+7.00,+9.00,-4.00,-17.00,-5.00,-10.00,-15.00,-8.00,-7.00,-7.00
+12.00,-28.00,+9.00,-2.00,-21.00,+8.00,-2.00,+3.00,+1.00,+2.00,+0.00,+3.00,-9.00,+0.00,-2.00,-2.00
-6.00,+14.00,+1.00,+5.00,+7.00,+3.00,+3.00,+1.00,-8.00,-6.00,-1.00,-7.00,+2.00,-2.00,+2.00,+7.00
+6.00,+16.00,-16.00,-5.00,+7.00,-4.00,-4.00,-1.00,-12.00,-7.00,-3.00,+12.00,+17.00,+5.00,+0.00,-1.00
-5.00,-27.00,+9.00,+2.00,-12.00,-12.00,-3.00,+5.00,+17.00,+12.00,+4.00,-8.00,-8.00,-8.00,-1.00,+1.00
-39.00,+17.00,+5.00,+2.00,+3.00,+8.00,+2.00,+7.00,-25.00,-12.00,-4.00,+15.00,+12.00,+3.00,-6.00,-27.00
+1.00,-1.00,-1.00,-3.00,-10.00,-16.00,-3.00,-9.00,-12.00,-9.00,-2.00,+9.00,+3.00,-1.00,-2.00,-7.00
+1.00,-10.00,+3.00,+0.00,-5.00,+8.00,+3.00,+1.00,-6.00,+1.00,-10.00,-57.00,-57.00,-11.00,-6.00,-3.00
+10.00,+6.00,-18.00,-6.00,+7.00,+1.00,-3.00,-6.00,+17.00,+13.00,+7.00,+28.00,+31.00,+3.00,+3.00,+6.00
+0.00,-4.00,-1.00,+1.00,-15.00,-10.00,-3.00,-2.00,-10.00,-31.00,-9.00,-1.00,-1.00,+11.00,-9.00,-17.00
+0.00,+1.00,+21.00,+1.00,-2.00,+0.00,-3.00,-8.00,+18.00,+43.00,+13.00,+4.00,+18.00,+1.00,+7.00,+11.00
-1.00,+4.00,-20.00,+1.00,-3.00,+5.00,+0.00,+8.00,-15.00,-4.00,-1.00,+9.00,+2.00,-4.00,-3.00,-7.00
+3.00,+0.00,-1.00,-2.00,-21.00,-9.00,+2.00,+2.00,+18.00,-7.00,-6.00,-4.00,-4.00,-2.00,-7.00,-2.00
+7.00,-8.00,-5.00,+0.00,+35.00,+12.00,+3.00,+0.00,+1.00,+17.00,+15.00,+4.00,+1.00,-1.00,+5.00,+15.00
-11.00,-4.00,-1.00,-4.00,-10.00,-2.00,-1.00,-2.00,+49.00,+12.00,+6.00,+6.00,+10.00,+3.00,-2.00,+3.00
+3.00,+7.00,+19.00,+5.00,+8.00,+16.00,+5.00,-1.00,-4.00,-2.00,-6.00,+4.00,+2.00,+1.00,-1.00,+1.00
+15.00,+11.00,+6.00,+11.00,+27.00,-10.00,+1.00,-2.00,-5.00,-4.00,-8.00,-14.00,-12.00,-3.00,-3.00,-8.00
-21.00,-15.00,-11.00,-5.00,-19.00,+0.00,+0.00,+7.00,-7.00,-14.00,-4.00,+0.00,+7.00,-4.00,-2.00,-3.00
-4.00,-3.00,-13.00,-7.00,-14.00,-12.00,+1.00,+2.00,-8.00,-19.00,-2.00,+3.00,-2.00,+0.00,-1.00,-1.00
-46.00,-24.00,+15.00,+6.00,+14.00,+3.00,+1.00,+12.00,+3.00,+8.00,-5.00,-13.00,-5.00,-3.00,-1.00,+0.00
+20.00,-9.00,-9.00,-2.00,-6.00,+4.00,+6.00,+8.00,+0.00,-8.00,+1.00,+2.00,-4.00,+2.00,+1.00,+3.00
+13.00,-3.00,-18.00,-12.00,-6.00,-5.00,-12.00,-15.00,-5.00,+47.00,+1.00,+23.00,+17.00,+7.00,+3.00,+5.00
+15.00,+7.00,+18.00,+10.00,+8.00,-3.00,-1.00,+7.00,-13.00,-8.00,-8.00,-42.00,-11.00,-13.00,-4.00,-3.00
+1.00,+6.00,+5.00,+1.00,-6.00,-3.00,+2.00,-8.00,-11.00,-29.00,-7.00,-2.00,-17.00,-5.00,-4.00,-6.00
+23.00,+11.00,-7.00,-7.00,+1.00,+13.00,-4.00,-11.00,-1.00,+3.00,+2.00,+13.00,+26.00,+3.00,+2.00,+1.00
-12.00,-26.00,-6.00,-1.00,-5.00,-10.00,-3.00,+1.00,+7.00,-5.00,-5.00,-27.00,-39.00,-12.00,+0.00,+3.00
-8.00,-1.00,-12.00,-2.00,-4.00,+5.00,+0.00,-6.00,-11.00,+11.00,+4.00,+0.00,-4.00,-1.00,-4.00,-9.00
+9.00,-12.00,+4.00,-3.00,-11.00,-7.00,-2.00,+0.00,-15.00,-17.00,-6.00,+5.00,-3.00,+0.00,+1.00,+7.00
-13.00,-9.00,+1.00,+1.00,+7.00,-1.00,+1.00,+3.00,+9.00,-3.00,+0.00,-2.00,+6.00,+6.00,+7.00,+13.00
+8.00,+25.00,+9.00,+1.00,+0.00,+3.00,+1.00,-4.00,-1.00,+6.00,+3.00,+2.00,-3.00,-8.00,-3.00,-9.00
-4.00,-19.00,-12.00,-9.00,-4.00,+7.00,-6.00,-1.00,-7.00,+2.00,-9.00,-6.00,-17.00,-3.00,+0.00,+5.00
+10.00,+17.00,+4.00,+6.00,-8.00,-12.00,+2.00,-2.00,-33.00,-12.00,+6.00,+2.00,+7.00,+1.00,-2.00,-11.00
-5.00,-16.00,-4.00,-4.00,+5.00,+18.00,-1.00,-3.00,+23.00,+18.00,+8.00,+16.00,+6.00,-2.00,-5.00,-7.00
+3.00,+3.00,+4.00,+1.00,-5.00,+0.00,+1.00,+1.00,-8.00,-9.00,-7.00,-5.00,+1.00,+5.00,+4.00,+10.00
-8.00,-1.00,-4.00,+0.00,+3.00,-12.00,+0.00,-7.00,-34.00,-17.00,-7.00,-6.00,-9.00,-6.00,-6.00,-13.00
+10.00,-5.00,-3.00,-5.00,+2.00,+4.00,+1.00,-6.00,+18.00,-9.00,+1.00,+6.00,+13.00,+4.00,+0.00,-4.00
-14.00,+8.00,-3.00,-4.00,-17.00,-29.00,-11.00,-20.00,+22.00,+24.00,+9.00,+3.00,+1.00,+2.00,+3.00,+0.00
-10.00,-1.00,+6.00,+3.00,+6.00,+23.00,+1.00,+8.00,-9.00,-19.00,-4.00,+1.00,+10.00,+0.00,-2.00,-5.00
+4.00,+5.00,-1.00,-2.00,-6.00,+3.00,+11.00,+0.00,-6.00,+5.00,-5.00,-3.00,-13.00,-4.00,-5.00,-9.00
-16.00,-22.00,-15.00,-9.00,+4.00,-6.00,-9.00,+0.00,-4.00,-4.00,-3.00,+0.00,+3.00,+1.00,+4.00,+5.00
+25.00,-12.00,+2.00,+4.00,+4.00,-4.00,+1.00,+7.00,-12.00,-8.00,-5.00,-5.00,+5.00,+1.00,+0.00,+9.00
+18.00,+32.00,+8.00,+2.00,-9.00,-2.00,-3.00,-4.00,+3.00,-9.00,-1.00,+19.00,+16.00,+3.00,+0.00,-3.00
-91.00,-35.00,-8.00,-5.00,-3.00,-8.00,-10.00,-14.00,-3.00,+5.00,-3.00,-25.00,-35.00,-9.00,-4.00,-2.00
+17.00,+16.00,+1.00,-3.00,-1.00,-1.00,-1.00,+1.00,+15.00,+15.00,+1.00,-8.00,+10.00,-3.00,-1.00,-3.00
-3.00,+18.00,+0.00,-1.00,-2.00,-6.00,+1.00,-1.00,-13.00,-12.00,-5.00,-9.00,-36.00,-4.00,-2.00,-5.00
-21.00,-45.00,+7.00,+1.00,-9.00,-5.00,+0.00,+9.00,+0.00,-2.00,+1.00,+35.00,+59.00,+20.00,+13.00,+17.00
+19.00,-10.00,-15.00,-4.00,+11.00,+5.00,-3.00,+0.00,-2.00,-1.00,-11.00,-34.00,-64.00,-20.00,-9.00,-9.00
-1.00,-24.00,+14.00,-2.00,-1.00,-7.00,-2.00,-12.00,+0.00,-5.00,-3.00,-6.00,-3.00,-1.00,+3.00,+7.00
-7.00,+43.00,-9.00,+4.00,-4.00,+3.00,-3.00,-2.00,-35.00,-12.00,-2.00,-5.00,-4.00,-2.00,-5.00,-13.00
-3.00,+21.00,+2.00,-3.00,+2.00,+6.00,+1.00,+8.00,+10.00,+5.00,+1.00,+4.00,+0.00,-1.00,-3.00,-3.00
+7.00,-4.00,+1.00,-5.00,-15.00,+4.00,-4.00,-4.00,+16.00,+15.00,+10.00,+20.00,+28.00,+12.00,+6.00,+6.00
-10.00,+2.00,+1.00,+5.00,+4.00,-35.00,-1.00,-2.00,+12.00,+9.00,+5.00,-2.00,+2.00,+0.00,+4.00,+7.00
+6.00,-11.00,+2.00,-2.00,+13.00,+5.00,+0.00,-4.00,-5.00,-3.00,-2.00,+5.00,+1.00,+1.00,-3.00,-8.00
+15.00,+14.00,+4.00,+4.00,+2.00,+9.00,+1.00,-3.00,+0.00,-2.00,-7.00,-17.00,-17.00,-8.00,-10.00,-9.00
-19.00,-2.00,-8.00,-7.00,-21.00,+3.00,-4.00,+16.00,-9.00,-16.00,-1.00,+8.00,+21.00,+4.00,+1.00,+0.00
+2.00,+5.00,-4.00,+2.00,+5.00,-14.00,-2.00,-2.00,+2.00,+0.00,+3.00,-1.00,-13.00,-6.00,-5.00,-6.00
-3.00,-5.00,+2.00,-2.00,-4.00,+8.00,+5.00,+3.00,+2.00,+3.00,-2.00,+5.00,+17.00,+2.00,+0.00,-6.00
-7.00,-5.00,-11.00,-2.00,+3.00,-7.00,+0.00,-7.00,-6.00,+0.00,-2.00,-17.00,-29.00,-7.00,-4.00,-3.00
+41.00,+5.00,+8.00,+1.00,-3.00,+5.00,+3.00,+10.00,+15.00,+17.00,+11.00,+28.00,+33.00,+7.00,+7.00,+12.00
-10.00,-9.00,-7.00,-4.00,-2.00,+7.00,+1.00,+9.00,-4.00,-4.00,-5.00,-10.00,-6.00,-1.00,+1.00,+3.00
+9.00,+6.00,+10.00,+4.00,+2.00,+3.00,+3.00,+1.00,+4.00,+0.00,+3.00,+6.00,+0.00,+1.00,+1.00,+3.00
+10.00,+0.00,-3.00,+0.00,-6.00,-2.00,+1.00,+5.00,+8.00,-5.00,-2.00,-16.00,-16.00,-10.00,-5.00,-1.00
+16.00,-6.00,-7.00,+1.00,+3.00,-10.00,-1.00,-7.00,-13.00,+1.00,+1.00,+11.00,+8.00,+4.00,+2.00,+2.00
+13.00,+34.00,-5.00,-5.00,-5.00,+1.00,-4.00,-2.00,-1.00,-9.00,-5.00,+16.00,+30.00,+8.00,+9.00,+14.00
-3.00,-21.00,+10.00,+2.00,+5.00,+0.00,+2.00,-1.00,+9.00,+9.00,-2.00,-11.00,-7.00,-3.00,-3.00,-2.00
-4.00,-1.00,-6.00,-3.00,+5.00,+3.00,-2.00,-1.00,-5.00,-1.00,-5.00,-24.00,-36.00,-10.00,-3.00,+0.00
-10.00,+0.00,-4.00,+0.00,-3.00,-11.00,-2.00,-11.00,-8.00,-10.00,-1.00,+4.00,+12.00,+2.00,-3.00,-6.00
+0.00,-42.00,-3.00,+1.00,+2.00,+18.00,+2.00,+9.00,-10.00,+4.00,+0.00,+6.00,+3.00,-3.00,-6.00,-16.00
-21.00,+1.00,+7.00,-2.00,-17.00,-21.00,-4.00,+2.00,+9.00,-12.00,-3.00,-5.00,-8.00,+0.00,+8.00,+19.00
+9.00,+19.00,+2.00,+2.00,+12.00,+10.00,+2.00,-5.00,-24.00,-8.00,-1.00,+5.00,+6.00,-3.00,-1.00,-4.00
-2.00,+1.00,-2.00,+2.00,+7.00,-12.00,-4.00,-6.00,+10.00,+5.00,-1.00,-2.00,-2.00,+0.00,-1.00,+0.00
+53.00,+8.00,-8.00,-6.00,-6.00,+4.00,+1.00,+20.00,-12.00,-9.00,-4.00,-8.00,-13.00,-2.00,-10.00,-26.00
-37.00,-11.00,-3.00,-6.00,-10.00,+2.00,-3.00,+4.00,+10.00,+16.00,+4.00,+5.00,+3.00,+0.00,-3.00,-8.00
+7.00,-12.00,+1.00,-2.00,+0.00,+17.00,-1.00,-7.00,+8.00,-4.00,+1.00,+0.00,+2.00,+1.00,+2.00,+2.00
+17.00,+7.00,+0.00,+3.00,+12.00,-17.00,+1.00,-11.00,-7.00,-5.00,+0.00,-1.00,+1.00,-2.00,+0.00,+5.00
+4.00,+10.00,+4.00,+2.00,+2.00,+5.00,-1.00,-2.00,+4.00,+7.00,+1.00,-1.00,-7.00,-3.00,-4.00,-4.00
+5.00,+4.00,-8.00,-3.00,-6.00,-7.00,+1.00,+2.00,-1.00,-1.00,-4.00,+0.00,+0.00,-4.00,-4.00,-9.00
+20.00,-7.00,+4.00,+1.00,-2.00,-10.00,+2.00,+16.00,-8.00,-1.00,-1.00,-5.00,+3.00,-4.00,-3.00,-1.00
-7.00,+6.00,-3.00,-4.00,-4.00,+13.00,+0.00,+8.00,-4.00,-9.00,-5.00,-1.00,-4.00,-1.00,-4.00,-13.00
-3.00,+10.00,+3.00,+0.00,+1.00,-2.00,-2.00,-14.00,+19.00,+20.00,+5.00,+20.00,+8.00,+4.00,+4.00,+16.00
-11.00,+12.00,-1.00,+0.00,+5.00,+1.00,+2.00,+13.00,-10.00,-5.00,-2.00,-2.00,+4.00,+0.00,-1.00,+1.00
-17.00,-44.00,-18.00,-4.00,-9.00,-12.00,-6.00,-11.00,+7.00,+0.00,-2.00,-21.00,-20.00,-17.00,-3.00,+1.00
+19.00,+74.00,+30.00,+9.00,+8.00,+6.00,+5.00,+3.00,-5.00,-6.00,+2.00,-5.00,-10.00,+10.00,+2.00,-4.00
-6.00,-21.00,+3.00,+1.00,-8.00,-4.00,-1.00,+0.00,-5.00,-9.00,-5.00,-9.00,-16.00,-8.00,-7.00,-8.00
-18.00,-2.00,-11.00,-6.00,+2.00,+4.00,-6.00,-15.00,-1.00,-7.00,+0.00,+20.00,+19.00,+5.00,+2.00,-6.00
-17.00,+1.00,+6.00,-1.00,-6.00,-9.00,+1.00,+4.00,-5.00,-6.00,-6.00,-8.00,-2.00,+0.00,+5.00,+8.00
-1.00,-16.00,-5.00,-3.00,-4.00,-3.00,-2.00,-3.00,+1.00,+1.00,-4.00,-2.00,+4.00,-5.00,-2.00,-6.00
-15.00,+22.00,-1.00,+0.00,+5.00,+2.00,-1.00,-3.00,-11.00,-2.00,-1.00,-4.00,+0.00,-1.00,-4.00,-1.00
+19.00,+0.00,+4.00,+0.00,+3.00,+5.00,+0.00,-1.00,+25.00,+12.00,+4.00,+0.00,-3.00,+2.00,-3.00,+6.00
+2.00,+11.00,+0.00,-1.00,-2.00,-11.00,-3.00,-8.00,-3.00,+9.00,+3.00,+11.00,+4.00,+4.00,-1.00,-4.00
-4.00,-24.00,-9.00,-1.00,+9.00,-4.00,-6.00,-10.00,-8.00,-11.00,-4.00,-2.00,-3.00,-5.00,-1.00,+0.00
-7.00,+9.00,+3.00,-1.00,-6.00,+3.00,+1.00,+0.00,-18.00,-13.00,-7.00,-4.00,-2.00,-2.00,-2.00,-6.00
+17.00,-16.00,-7.00,-1.00,+0.00,-13.00,+4.00,+1.00,+16.00,+0.00,-6.00,-10.00,-5.00,-5.00,-3.00,-1.00
-26.00,+6.00,-1.00,-1.00,-1.00,+9.00,+3.00,+7.00,+5.00,+11.00,+9.00,+6.00,+5.00,+7.00,+5.00,+11.00
-20.00,-8.00,-4.00,-4.00,+0.00,+2.00,+1.00,+13.00,+7.00,+17.00,+8.00,+6.00,+7.00,+3.00,+4.00,+8.00
-3.00,-5.00,-3.00,-3.00,-2.00,+0.00,+0.00,-2.00,-3.00,-4.00,-4.00,-5.00,-2.00,-2.00,+1.00,+5.00
-3.00,-2.00,-4.00,-5.00,-7.00,+5.00,-3.00,-4.00,-19.00,-14.00,-7.00,-7.00,-6.00,-4.00,-3.00,-2.00
+31.00,-13.00,+4.00,+1.00,+3.00,-5.00,-1.00,-10.00,+7.00,+1.00,-3.00,+3.00,+4.00,+2.00,+2.00,+11.00
-3.00,+7.00,+3.00,+0.00,-7.00,+2.00,+0.00,+2.00,-6.00,-4.00,-1.00,+5.00,+2.00,+0.00,-1.00,+2.00
-12.00,+4.00,-2.00,+0.00,+1.00,-3.00,-3.00,-8.00,+0.00,-6.00,-2.00,-3.00,+10.00,+0.00,-1.00,+5.00
-18.00,-20.00,-7.00,-4.00,-5.00,-5.00,-4.00,-4.00,-9.00,+0.00,-3.00,-14.00,-29.00,-3.00,-3.00,+0.00
-10.00,+30.00,-3.00,-3.00,-3.00,-5.00,-3.00,-8.00,+1.00,-1.00,-2.00,-4.00,-4.00,+1.00,-1.00,-9.00
+20.00,-23.00,-7.00,+0.00,-3.00,+1.00,-1.00,-8.00,-9.00,-7.00,-3.00,-4.00,-14.00,-5.00,-4.00,-3.00
+10.00,+8.00,+24.00,+11.00,+8.00,+9.00,+7.00,+5.00,-1.00,-6.00,-1.00,+0.00,+0.00,-1.00,-1.00,-5.00
+28.00,+6.00,-2.00,+0.00,+4.00,-1.00,-1.00,+1.00,-3.00,-1.00,+0.00,-10.00,-5.00,-1.00,-4.00,-5.00
+0.00,+15.00,-2.00,-4.00,-5.00,-9.00,-3.00,-9.00,-11.00,-3.00,+2.00,+7.00,+7.00,+2.00,-2.00,-3.00
+17.00,-12.00,-7.00,-3.00,-1.00,+7.00,-1.00,-2.00,+12.00,+5.00,+3.00,+2.00,+1.00,-2.00,-1.00,-1.00
+5.00,-2.00,-6.00,-4.00,-7.00,-2.00,+0.00,+2.00,+6.00,-5.00,-1.00,+3.00,-1.00,-1.00,+1.00,+4.00
+28.00,-7.00,+1.00,+0.00,+2.00,-3.00,-7.00,-3.00,+0.00,+7.00,+2.00,-3.00,-1.00,-1.00,+0.00,-4.00
-1.00,-1.00,-4.00,-4.00,-6.00,-14.00,-3.00,-1.00,-2.00,+3.00,+2.00,+1.00,-2.00,-3.00,-4.00,-9.00
-3.00,+1.00,+1.00,-2.00,-3.00,-14.00,-1.00,-6.00,+9.00,-4.00,-5.00,-3.00,+3.00,-1.00,+5.00,+15.00
-19.00,+2.00,-5.00,-6.00,-2.00,+21.00,-4.00,-2.00,+8.00,+8.00,+3.00,+1.00,-4.00,+1.00,-3.00,-2.00
-9.00,+2.00,+2.00,-1.00,-1.00,-11.00,-2.00,+0.00,-23.00,-13.00,-1.00,+1.00,+7.00,+0.00,-1.00,-5.00
+14.00,-2.00,-3.00,-1.00,-3.00,-6.00,+2.00,+1.00,+4.00,+0.00,+2.00,+1.00,+1.00,+2.00,+1.00,-2.00
-15.00,-2.00,+0.00,-1.00,-1.00,+1.00,-3.00,+1.00,-1.00,-8.00,-4.00,-4.00,-4.00,-3.00,-6.00,-12.00
-2.00,-13.00,-3.00,+0.00,+0.00,-2.00,-1.00,+0.00,+2.00,+4.00,-1.00,-6.00,-4.00,-3.00,-2.00,-5.00
+19.00,-6.00,-2.00,-1.00,-3.00,+2.00,+0.00,+7.00,-4.00,-4.00,+0.00,+4.00,+7.00,+3.00,+2.00,+1.00
-7.00,-3.00,+4.00,+2.00,+6.00,+4.00,-1.00,-6.00,-1.00,-10.00,-3.00,+7.00,+7.00,+2.00,-3.00,-3.00
+5.00,+1.00,+1.00,-1.00,-4.00,+4.00,+1.00,+2.00,-19.00,-9.00,-3.00,+3.00,+3.00,+1.00,+1.00,+2.00
+19.00,+12.00,-5.00,-2.00,+0.00,-9.00,-3.00,+2.00,+9.00,+10.00,+1.00,-9.00,-29.00,-6.00,+1.00,+2.00
-11.00,-18.00,+4.00,+2.00,+1.00,+3.00,+1.00,-3.00,-9.00,+0.00,-5.00,-9.00,-7.00,-7.00,-4.00,-6.00
+22.00,+25.00,+3.00,+0.00,+0.00,+2.00,+3.00,+8.00,+5.00,-3.00,-2.00,-2.00,-1.00,-4.00,-5.00,-3.00
-58.00,-17.00,-2.00,-1.00,-2.00,+0.00,-2.00,-3.00,-5.00,+3.00,+3.00,+3.00,+6.00,+3.00,+1.00,-3.00
-2.00,+2.00,-5.00,-5.00,-4.00,-13.00,-4.00,-2.00,-2.00,+3.00,+1.00,+10.00,+11.00,+3.00,+2.00,+8.00
-17.00,-15.00,-4.00,-3.00,-4.00,+6.00,-1.00,-2.00,-2.00,-2.00,-3.00,-6.00,-13.00,-5.00,+1.00,+5.00
+25.00,+18.00,+0.00,+2.00,-1.00,+8.00,+2.00,+7.00,-4.00,-1.00,-3.00,-1.00,-2.00,-1.00,-4.00,-6.00
+2.00,+14.00,+6.00,+0.00,-2.00,+6.00,+2.00,-2.00,+7.00,-8.00,+1.00,+2.00,-1.00,-3.00,+0.00,+5.00
-32.00,+0.00,-1.00,+2.00,-2.00,-1.00,-2.00,-7.00,+2.00,+6.00,-2.00,-6.00,-1.00,+2.00,-2.00,-1.00
+5.00,+7.00,-3.00,-1.00,-14.00,-17.00,-2.00,-5.00,-2.00,-7.00,+2.00,+3.00,+8.00,+2.00,+3.00,+2.00
-23.00,-15.00,-4.00,-1.00,+1.00,-5.00,-4.00,-10.00,-6.00,+3.00,+1.00,-3.00,-1.00,-3.00,-2.00,-1.00
+9.00,+4.00,-2.00,+2.00,-1.00,+1.00,+1.00,-2.00,-11.00,-2.00,-1.00,-6.00,-1.00,-3.00,-3.00,-5.00
+1.00,-5.00,-1.00,-2.00,+7.00,-3.00,-1.00,+1.00,-19.00,-8.00,+0.00,+0.00,+4.00,+0.00,-3.00,-14.00
-4.00,+3.00,+0.00,+0.00,-2.00,+12.00,-3.00,-10.00,+21.00,+7.00,-2.00,+2.00,+4.00,+0.00,+2.00,+9.00
+17.00,-3.00,-1.00,+2.00,-3.00,-10.00,+1.00,+0.00,+3.00,-1.00,-2.00,-2.00,-4.00,-1.00,+1.00,-1.00
+9.00,-12.00,-8.00,-4.00,+3.00,-1.00,-2.00,-7.00,-14.00,-9.00,-1.00,-2.00,+2.00,+0.00,-3.00,-6.00
+17.00,+14.00,+11.00,+0.00,-4.00,+2.00,+3.00,+12.00,+3.00,+0.00,-3.00,-3.00,+0.00,-4.00,-3.00,+0.00
-19.00,+18.00,-5.00,-3.00,+3.00,-3.00,-1.00,-5.00,-3.00,-5.00,-4.00,+4.00,-3.00,+0.00,+0.00,-1.00
-3.00,-14.00,+1.00,-1.00,-1.00,+3.00,+0.00,+3.00,+5.00,+7.00,+2.00,+4.00,+10.00,+1.00,+2.00,+2.00
+7.00,-1.00,-3.00,-1.00,+1.00,-1.00,-3.00,-2.00,+3.00,+4.00,-1.00,-13.00,-30.00,-6.00,-5.00,-6.00
+12.00,+24.00,+2.00,+0.00,+2.00,-3.00,+2.00,+7.00,-3.00,-13.00,-4.00,+1.00,-1.00,+1.00,+2.00,+0.00
+3.00,+5.00,-3.00,-2.00,-2.00,-1.00,+3.00,+20.00,-8.00,-3.00,-4.00,-2.00,-5.00,-4.00,-7.00,-11.00
-28.00,-14.00,-1.00,-1.00,+2.00,+2.00,-3.00,-1.00,+6.00,+3.00,+2.00,+8.00,+1.00,+2.00,+3.00,+4.00
+5.00,-11.00,-2.00,+0.00,-2.00,-2.00,+1.00,+4.00,+0.00,+1.00,-1.00,-8.00,-6.00,-4.00,-4.00,-9.00
-2.00,-9.00,-2.00,+2.00,-1.00,-4.00,+0.00,-7.00,-3.00,-19.00,-8.00,-9.00,-1.00,+0.00,-4.00,-6.00
-4.00,-9.00,-1.00,-1.00,+4.00,+3.00,-2.00,-3.00,+11.00,+26.00,+9.00,+8.00,+9.00,+2.00,+1.00,-3.00
+6.00,+15.00,-6.00,-4.00,-2.00,+0.00,-3.00,+12.00,-2.00,-6.00,-5.00,-3.00,+2.00,-1.00,-3.00,-4.00
-26.00,+9.00,+11.00,+4.00,-8.00,+0.00,+0.00,-2.00,+8.00,+8.00,+1.00,+3.00,-5.00,-1.00,-1.00,+1.00
+9.00,-9.00,-5.00,-1.00,-1.00,-10.00,-3.00,-7.00,-4.00,-1.00,+0.00,-6.00,-6.00,-4.00,+0.00,+2.00
-9.00,-4.00,+0.00,-2.00,+0.00,+2.00,+0.00,+1.00,-26.00,-21.00,-8.00,-6.00,+0.00,-3.00,-3.00,-3.00
+4.00,-7.00,-6.00,-4.00,-8.00,-2.00,-1.00,+1.00,+9.00,-2.00,+1.00,-5.00,-5.00,-1.00,+1.00,+11.00
-20.00,+4.00,-4.00,-3.00,+9.00,-1.00,-4.00,-5.00,+9.00,+5.00,+2.00,+3.00,+12.00,+1.00,-4.00,-6.00
-26.00,-23.00,-1.00,+1.00,+2.00,+5.00,+0.00,-11.00,+8.00,+9.00,+3.00,+4.00,+5.00,-1.00,+0.00,-3.00
+20.00,+27.00,+0.00,+0.00,+0.00,-3.00,+2.00,+2.00,-1.00,-6.00,-1.00,+1.00,+0.00,-2.00,-3.00,-4.00
-9.00,-19.00,+3.00,+1.00,-4.00,-1.00,+0.00,+2.00,-21.00,-9.00,-6.00,-6.00,-5.00,-3.00,-2.00,-7.00
+16.00,+8.00,+0.00,-2.00,+1.00,+3.00,+0.00,-2.00,+17.00,+16.00,+3.00,+5.00,+6.00,+1.00,-1.00,-6.00
-5.00,+1.00,-3.00,-2.00,+3.00,+0.00,-1.00,+2.00,-11.00,-8.00,-2.00,+1.00,-5.00,-2.00,-3.00,-6.00
-11.00,-16.00,-7.00,-1.00,-4.00,-5.00,-3.00,-7.00,+7.00,+6.00,+4.00,+9.00,+8.00,+4.00,+2.00,+5.00
-7.00,-11.00,-3.00,-5.00,-2.00,-2.00,-4.00,-12.00,+6.00,+4.00,-4.00,-5.00,-4.00,-4.00,-1.00,+1.00
-24.00,+0.00,-1.00,+0.00,-4.00,-6.00,-2.00,-5.00,+12.00,+8.00,-2.00,-2.00,+1.00,+3.00,+1.00,+0.00
+15.00,+16.00,+7.00,+1.00,-1.00,+2.00,+0.00,-4.00,-7.00,-9.00,+5.00,+5.00,+3.00,+0.00,+0.00,+1.00
-8.00,-8.00,+7.00,+6.00,+3.00,+3.00,+0.00,-10.00,+9.00,+3.00,+2.00,+9.00,+7.00,+3.00,+2.00,+2.00
+17.00,+1.00,-2.00,+1.00,-1.00,+1.00,-2.00,+8.00,-3.00,-5.00,+0.00,-15.00,-12.00,-7.00,-9.00,-25.00
+6.00,-13.00,-1.00,-2.00,+0.00,-3.00,-1.00,+7.00,-16.00,-15.00,-5.00,-8.00,+0.00,-1.00,+0.00,+0.00
-13.00,-15.00,-7.00,-1.00,-3.00,+0.00,-1.00,-3.00,+24.00,+15.00,+1.00,+0.00,+0.00,-2.00,-2.00,+0.00
-4.00,+18.00,+1.00,-2.00,-1.00,-2.00,-3.00,-5.00,-12.00,-1.00,-2.00,-5.00,-3.00,-2.00,+0.00,+3.00
-8.00,-3.00,+2.00,+2.00,+0.00,+10.00,-2.00,-6.00,+0.00,+3.00,+1.00,+6.00,+5.00,+1.00,+2.00,+4.00
-14.00,-7.00,-6.00,-1.00,-6.00,-9.00,+1.00,+2.00,-14.00,-9.00,-6.00,-1.00,-2.00,-3.00,-3.00,-2.00
-3.00,-18.00,-7.00,-4.00,-1.00,-1.00,-1.00,+1.00,-1.00,+4.00,+0.00,+0.00,-2.00,+0.00,+0.00,+0.00
-2.00,+6.00,+8.00,+1.00,+1.00,+5.00,+2.00,+3.00,-6.00,-1.00,+1.00,+0.00,+1.00,+0.00,-3.00,-7.00
-16.00,-14.00,-3.00,-3.00,+3.00,-2.00,-1.00,+0.00,+12.00,+6.00,-1.00,+0.00,-2.00,-1.00,+1.00,+4.00
+6.00,+7.00,+2.00,+1.00,+3.00,+5.00,+2.00,+7.00,-5.00,-5.00,-3.00,+2.00,+3.00,-2.00,-1.00,-3.00
-7.00,+5.00,-3.00,-4.00,-9.00,-8.00,-3.00,-8.00,-7.00,-14.00,-8.00,-6.00,-4.00,-2.00,+4.00,+22.00
-3.00,-15.00,-8.00,-2.00,+3.00,-2.00,-4.00,-8.00,-3.00,-7.00,-1.00,+3.00,+10.00,+0.00,-2.00,-6.00
-13.00,+5.00,-3.00,-5.00,-5.00,-3.00,-3.00,-17.00,-2.00,+6.00,+1.00,-2.00,-13.00,+0.00,-3.00,-2.00
+10.00,+2.00,+2.00,+0.00,+1.00,+4.00,+1.00,+3.00,-1.00,-4.00,-4.00,+3.00,+7.00,-3.00,-2.00,+2.00
+22.00,-9.00,-6.00,-1.00,+1.00,-3.00,-2.00,-11.00,-7.00,+8.00,+4.00,+2.00,+3.00,+0.00,-1.00,-7.00
+0.00,-1.00,-1.00,-1.00,-3.00,+1.00,+0.00,-3.00,+4.00,-9.00,-8.00,-7.00,-13.00,-3.00,-1.00,+6.00
+36.00,+22.00,+4.00,+2.00,+4.00,+0.00,+1.00,+7.00,+3.00,-5.00,-1.00,+1.00,+4.00,-1.00,+1.00,+7.00
+10.00,-9.00,-1.00,-2.00,-5.00,-5.00,-3.00,+1.00,-4.00,+1.00,+1.00,-5.00,+0.00,+0.00,+1.00,-4.00
-7.00,-7.00,-2.00,-2.00,+0.00,+2.00,-2.00,+1.00,+10.00,+5.00,-4.00,-6.00,-7.00,-3.00,-4.00,-8.00
+12.00,-2.00,-9.00,-5.00,-4.00,-7.00,-5.00,-2.00,+2.00,-2.00,-5.00,-4.00,+6.00,+0.00,+2.00,+5.00
+5.00,+9.00,+9.00,+5.00,+0.00,-3.00,+0.00,+5.00,-16.00,-8.00,+1.00,+3.00,+0.00,+0.00,-1.00,-9.00
+14.00,-5.00,-1.00,+1.00,+4.00,+5.00,+2.00,+4.00,+2.00,-3.00,-2.00,-3.00,-5.00,-1.00,-2.00,+1.00
-2.00,-10.00,-7.00,-1.00,-1.00,-4.00,-2.00,+1.00,+0.00,+5.00,+5.00,+4.00,+5.00,+0.00,-3.00,-9.00
-16.00,-8.00,-5.00,-1.00,-7.00,-7.00,-2.00,+0.00,-8.00,-5.00,-5.00,-7.00,-10.00,-3.00,-1.00,-3.00
-24.00,-12.00,-1.00,-1.00,-3.00,-4.00,-1.00,-6.00,+12.00,+5.00,+2.00,+4.00,+4.00,+2.00,-3.00,-7.00
+3.00,+5.00,+1.00,+0.00,+4.00,-2.00,-1.00,-3.00,+1.00,-4.00,-4.00,-7.00,-4.00,-2.00,-2.00,+1.00
+3.00,+6.00,+6.00,+0.00,-6.00,+5.00,+1.00,-2.00,-1.00,-4.00,-2.00,-1.00,-4.00,-1.00,-2.00,-4.00
-12.00,-9.00,-3.00,-1.00,+3.00,+2.00,-1.00,+9.00,-4.00,+1.00,+1.00,-1.00,-2.00,-2.00,-2.00,-11.00
-54.00,-30.00,-15.00,-6.00,-9.00,-10.00,-7.00,-14.00,-10.00,-2.00,-6.00,-9.00,-5.00,-3.00,-5.00,-4.00
+19.00,+34.00,+5.00,+0.00,+0.00,+4.00,+2.00,+3.00,-4.00,+9.00,+8.00,+7.00,+5.00,+3.00,+1.00,+0.00
-5.00,-4.00,-1.00,+0.00,+2.00,+0.00,-2.00,-4.00,+23.00,+6.00,-1.00,+5.00,+3.00,-1.00,-1.00,+1.00
+43.00,-3.00,+4.00,+5.00,+6.00,+4.00,+2.00,-2.00,-1.00,+4.00,+5.00,+7.00,+2.00,+3.00,+2.00,+0.00
-3.00,+17.00,+4.00,-1.00,-5.00,-1.00,-3.00,-10.00,-14.00,-7.00,-8.00,-14.00,-16.00,-11.00,-4.00,-5.00
-28.00,-17.00,-6.00,-3.00,+1.00,+0.00,+1.00,-2.00,+7.00,-8.00,-2.00,-7.00,-4.00,-2.00,+0.00,+2.00
-10.00,+3.00,+0.00,-1.00,-5.00,-8.00,-2.00,-2.00,-9.00,+1.00,+0.00,-3.00,+1.00,+0.00,+1.00,+2.00
+3.00,+1.00,+0.00,-1.00,-1.00,+3.00,+0.00,-2.00,+0.00,+4.00,+2.00,-3.00,+0.00,+0.00,+0.00,+1.00
+5.00,+8.00,-1.00,-1.00,+6.00,+3.00,+5.00,+13.00,+4.00,-5.00,+1.00,+7.00,+11.00,+4.00,+0.00,-1.00
-23.00,-22.00,-10.00,-6.00,-6.00,-6.00,-5.00,-8.00,-2.00,-3.00,-4.00,-3.00,-8.00,-4.00,+1.00,+7.00
-2.00,-3.00,+7.00,+5.00,+3.00,+2.00,+0.00,-3.00,-3.00,-4.00,-2.00,-1.00,-4.00,-2.00,-2.00,-1.00
-16.00,-13.00,-2.00,-1.00,-1.00,-1.00,-2.00,-3.00,+0.00,+4.00,+0.00,-4.00,-2.00,-3.00,-2.00,+2.00
+8.00,+0.00,-2.00,-1.00,+0.00,+17.00,+0.00,+6.00,-1.00,-9.00,-4.00,+0.00,+1.00,+0.00,-2.00,-9.00
+0.00,-9.00,-5.00,-3.00,+0.00,-19.00,-2.00,+0.00,+4.00,+7.00,+1.00,+0.00,-1.00,-2.00,+5.00,+24.00
+12.00,+23.00,-2.00,-2.00,-9.00,+2.00,-1.00,+3.00,-14.00,-7.00,-5.00,-3.00,-1.00,-3.00,-3.00,-9.00
-4.00,-4.00,+13.00,+3.00,-2.00,-2.00,+2.00,+3.00,-3.00,+2.00,+0.00,-1.00,-2.00,-1.00,+0.00,+3.00
