+7.00,-4.00,-2.00,+0.00,-1.00,-1.00,+0.00,+0.00,-1.00,+0.00,-1.00,-1.00,-1.00,+0.00,-2.00,-3.00
+1.00,-7.00,-3.00,+0.00,-2.00,+0.00,-3.00,-3.00,-2.00,+0.00,-2.00,-1.00,-1.00,-3.00,-1.00,+1.00
+6.00,-1.00,-1.00,-3.00,-1.00,+0.00,-4.00,-5.00,+1.00,-5.00,-6.00,-2.00,+0.00,-4.00,-6.00,+8.00
-4.00,+10.00,+1.00,-1.00,+0.00,+0.00,+3.00,-2.00,-4.00,+9.00,+2.00,+0.00,-3.00,-3.00,+2.00,+9.00
+27.00,+14.00,-1.00,-2.00,+1.00,+1.00,+4.00,+24.00,+2.00,+1.00,-2.00,-3.00,-2.00,-1.00,-3.00,-1.00
+9.00,+3.00,-3.00,-3.00,-1.00,-1.00,-3.00,+3.00,-2.00,-1.00,-2.00,-2.00,+1.00,+0.00,+0.00,-3.00
+5.00,+0.00,+0.00,+0.00,+2.00,-1.00,-1.00,+0.00,+0.00,+9.00,+4.00,+0.00,+0.00,+0.00,-3.00,-4.00
-13.00,-9.00,-4.00,-3.00,-2.00,-2.00,-3.00,-5.00,+4.00,-8.00,-5.00,-3.00,-3.00,-1.00,-4.00,-1.00
-16.00,-12.00,-2.00,-2.00,-4.00,-3.00,-1.00,-8.00,+2.00,-5.00,-1.00,+1.00,+1.00,-1.00,+2.00,-1.00
+15.00,+2.00,-1.00,-1.00,-2.00,-1.00,-3.00,-10.00,-7.00,-3.00,+0.00,-1.00,+1.00,+1.00,+4.00,+2.00
+2.00,-1.00,-1.00,+0.00,+0.00,+0.00,-1.00,+1.00,+8.00,-1.00,-2.00,+0.00,-2.00,-13.00,+0.00,-3.00
+4.00,+1.00,-1.00,+1.00,-1.00,-1.00,-1.00,-4.00,-9.00,-8.00,-5.00,-4.00,-2.00,+0.00,-8.00,-3.00
-2.00,+4.00,+2.00,+3.00,+2.00,+1.00,+1.00,-3.00,-11.00,-1.00,+5.00,+2.00,+0.00,+20.00,-12.00,-21.00
-11.00,-5.00,-3.00,-4.00,-2.00,+1.00,+1.00,+6.00,+19.00,+2.00,+1.00,+3.00,+0.00,+5.00,-2.00,+2.00
+2.00,-3.00,-3.00,-1.00,-2.00,-1.00,-2.00,-10.00,-4.00,+6.00,+0.00,-1.00,-2.00,+4.00,+5.00,+2.00
+9.00,+1.00,+2.00,-1.00,+2.00,+1.00,-1.00,+6.00,+7.00,-11.00,-3.00,+1.00,-1.00,-6.00,+0.00,-3.00
-14.00,-14.00,-5.00,-2.00,-2.00,-5.00,-7.00,-23.00,-3.00,-1.00,-4.00,-5.00,-3.00,-9.00,+1.00,+8.00
-21.00,-2.00,-3.00,-4.00,-2.00,-3.00,-2.00,-5.00,-8.00,-6.00,-2.00,-2.00,+3.00,+0.00,-5.00,-9.00
+45.00,+38.00,+9.00,+2.00,+2.00,+3.00,+14.00,+42.00,-1.00,-6.00,-2.00,-2.00,-8.00,-42.00,-11.00,-2.00
-25.00,-5.00,+1.00,+4.00,+0.00,+0.00,-3.00,-8.00,-8.00,-3.00,-2.00,-2.00,+5.00,+79.00,+12.00,+18.00
-15.00,-5.00,-5.00,-3.00,-2.00,+2.00,+0.00,-5.00,+7.00,-3.00,-3.00,-2.00,-3.00,-14.00,-6.00,-9.00
-14.00,-8.00,-2.00,-2.00,+1.00,-1.00,-3.00,-4.00,-15.00,-5.00,+0.00,+3.00,+8.00,-14.00,+7.00,+0.00
-24.00,-13.00,-4.00,-5.00,-2.00,-4.00,-5.00,-23.00,+6.00,+2.00,+0.00,-6.00,-16.00,+3.00,+1.00,+2.00
+39.00,+10.00,-1.00,-4.00,-1.00,-1.00,-2.00,-4.00,+1.00,-2.00,-1.00,-2.00,-4.00,-14.00,-6.00,-12.00
-19.00,-5.00,-2.00,+0.00,+0.00,+1.00,+11.00,+22.00,-12.00,-14.00,-5.00,-1.00,-2.00,+5.00,-5.00,-3.00
-1.00,+3.00,+2.00,+1.00,-1.00,-4.00,-1.00,-19.00,+19.00,+3.00,+0.00,-1.00,-1.00,-2.00,-2.00,-2.00
-7.00,-18.00,-6.00,-3.00,-4.00,-8.00,-4.00,+6.00,-15.00,-10.00,-6.00,+2.00,+9.00,+2.00,+0.00,-4.00
+13.00,-7.00,-4.00,+1.00,+3.00,-6.00,-9.00,+2.00,+3.00,+17.00,+6.00,+1.00,-4.00,-15.00,+0.00,-6.00
-20.00,+9.00,+2.00,-2.00,-1.00,+8.00,-4.00,-10.00,-5.00,-3.00,-2.00,-3.00,-2.00,-52.00,-4.00,-13.00
-2.00,+4.00,+2.00,+1.00,+2.00,-1.00,+3.00,+17.00,-7.00,+3.00,-3.00,-5.00,-7.00,+13.00,-5.00,-6.00
+1.00,-3.00,-3.00,-1.00,-1.00,+3.00,+3.00,-9.00,+4.00,-6.00,-3.00,+2.00,-1.00,+27.00,+4.00,+2.00
-14.00,-15.00,+1.00,-1.00,-3.00,-5.00,-8.00,-6.00,-4.00,-5.00,-6.00,-1.00,+5.00,+11.00,-6.00,-6.00
+15.00,+6.00,+2.00,-1.00,+0.00,-2.00,+3.00,+1.00,-13.00,-11.00,-1.00,-1.00,-5.00,-23.00,-10.00,+8.00
+7.00,-3.00,+0.00,+1.00,+0.00,+7.00,+6.00,+8.00,-14.00,-32.00,-8.00,-2.00,+6.00,-4.00,+28.00,+2.00
+6.00,+4.00,+1.00,-1.00,-2.00,-1.00,-6.00,-4.00,-14.00,+8.00,+2.00,+0.00,-7.00,+32.00,-8.00,-7.00
-11.00,-10.00,-8.00,-4.00,-3.00,+1.00,+14.00,-6.00,+17.00,+26.00,+11.00,+2.00,-1.00,-25.00,-12.00,+9.00
-26.00,+1.00,+0.00,-1.00,+0.00,-1.00,-6.00,-22.00,+10.00,+16.00,+9.00,+4.00,+3.00,+13.00,+0.00,-2.00
-7.00,-27.00,-6.00,-4.00,+0.00,-3.00,-11.00,-2.00,+24.00,+13.00,-2.00,-4.00,-10.00,-4.00,-14.00,-5.00
+0.00,+43.00,+10.00,+2.00,+2.00,+2.00,+15.00,+15.00,-18.00,-13.00,-3.00,+0.00,+8.00,+4.00,+5.00,+6.00
-17.00,+7.00,-7.00,-6.00,-7.00,-13.00,-17.00,-19.00,+19.00,+20.00,+9.00,+3.00,+6.00,-7.00,+10.00,+1.00
+38.00,+6.00,+6.00,+4.00,+7.00,+20.00,+7.00,+9.00,+17.00,+16.00,-6.00,-5.00,-5.00,-6.00,-5.00,-3.00
+33.00,-12.00,+1.00,+5.00,+4.00,+6.00,+12.00,+37.00,-42.00,-24.00,-3.00,-1.00,-2.00,+10.00,+3.00,+4.00
-4.00,+15.00,+7.00,+4.00,+2.00,+4.00,+9.00,-3.00,-3.00,-9.00,+2.00,+3.00,+8.00,-26.00,+0.00,-11.00
-10.00,-27.00,-2.00,-3.00,+2.00,+6.00,+9.00,+24.00,-19.00,-15.00,-5.00,-1.00,-7.00,+26.00,-18.00,-14.00
-10.00,+6.00,-2.00,+0.00,-2.00,-12.00,-6.00,+10.00,-4.00,+13.00,+4.00,-1.00,-2.00,+19.00,+13.00,+19.00
-4.00,-1.00,+4.00,+1.00,-1.00,-5.00,-10.00,-27.00,+19.00,+23.00,+1.00,-1.00,-3.00,-21.00,+4.00,+12.00
-11.00,-51.00,-18.00,-6.00,-5.00,-6.00,-12.00,-17.00,+10.00,+1.00,-2.00,-4.00,-2.00,-11.00,-12.00,-7.00
+21.00,-5.00,+4.00,+0.00,-4.00,-3.00,+6.00,-12.00,-4.00,-5.00,-6.00,-4.00,-6.00,-48.00,+5.00,+3.00
+17.00,+26.00,+12.00,+3.00,+0.00,-17.00,-43.00,-22.00,+18.00,+2.00,+1.00,+3.00,+12.00,+49.00,-3.00,-5.00
-18.00,+14.00,+4.00,+2.00,+3.00,+19.00,+31.00,+22.00,-25.00,-16.00,-6.00,-2.00,-4.00,+13.00,-24.00,-12.00
-23.00,+6.00,-7.00,-4.00,+0.00,+5.00,+4.00,+7.00,-9.00,-10.00,-1.00,-2.00,+0.00,+2.00,+4.00,+11.00
+2.00,-32.00,-6.00,-2.00,-4.00,-4.00,-9.00,-12.00,-19.00,-8.00,-1.00,+0.00,+0.00,-8.00,+24.00,+2.00
-18.00,-22.00,-4.00,-1.00,-3.00,-5.00,-7.00,-11.00,+36.00,+1.00,-4.00,-8.00,-9.00,-19.00,-18.00,-4.00
+3.00,+23.00,+2.00,-3.00,-5.00,-14.00,-19.00,+23.00,+4.00,+13.00,+7.00,-2.00,-1.00,-7.00,+0.00,-2.00
+2.00,-36.00,-5.00,+1.00,+0.00,+4.00,+2.00,-15.00,+1.00,-5.00,-3.00,-1.00,+0.00,+6.00,-19.00,-3.00
+27.00,+39.00,-1.00,-2.00,+4.00,-1.00,+0.00,-6.00,-6.00,-2.00,-7.00,-4.00,-4.00,+7.00,+6.00,-7.00
+12.00,-6.00,-7.00,-4.00,-2.00,+0.00,+13.00,+15.00,-22.00,-16.00,-5.00,-2.00,-3.00,-12.00,+8.00,+26.00
-5.00,+23.00,+4.00,+1.00,+0.00,-6.00,+0.00,-11.00,+40.00,+25.00,+8.00,+7.00,+4.00,+5.00,-4.00,-1.00
-9.00,-42.00,-2.00,-3.00,+0.00,-1.00,-2.00,+5.00,+11.00,+10.00,+2.00,+0.00,+1.00,+7.00,+13.00,+0.00
-4.00,+3.00,+2.00,+2.00,+1.00,+2.00,-6.00,+1.00,+9.00,-13.00,-3.00,-3.00,-6.00,-24.00,+15.00,+8.00
-12.00,-1.00,+0.00,-2.00,-4.00,-9.00,+3.00,-10.00,-32.00,-17.00,-9.00,-3.00,+5.00,+8.00,-3.00,-22.00
+3.00,-31.00,-16.00,-6.00,-2.00,-2.00,-4.00,+5.00,-9.00,-11.00,-1.00,-1.00,+0.00,+28.00,-9.00,+4.00
+29.00,+10.00,+1.00,-1.00,-3.00,-5.00,-20.00,-11.00,+2.00,+20.00,+5.00,+2.00,-5.00,-71.00,+1.00,+5.00
-4.00,-10.00,+12.00,+10.00,+6.00,+10.00,+19.00,+25.00,+8.00,+10.00,+2.00,-1.00,+1.00,+20.00,-2.00,-2.00
-38.00,-33.00,-14.00,-2.00,-1.00,-1.00,-7.00,-22.00,-8.00,-27.00,-5.00,-6.00,-6.00,-19.00,-4.00,+3.00
-26.00,-32.00,-9.00,-6.00,-6.00,-6.00,-15.00,-28.00,+2.00,-5.00,-7.00,-5.00,-4.00,-15.00,-14.00,-11.00
-6.00,+20.00,-3.00,-5.00,-4.00,-3.00,+0.00,-6.00,-10.00,+13.00,+3.00,-2.00,+0.00,+36.00,+17.00,-5.00
+14.00,+37.00,+6.00,+2.00,+0.00,+0.00,-6.00,+24.00,-7.00,-10.00,-1.00,+1.00,+8.00,-13.00,-22.00,+10.00
+3.00,+7.00,+3.00,+2.00,+3.00,+8.00,+29.00,+26.00,+5.00,-2.00,-2.00,-1.00,-14.00,-4.00,+17.00,-1.00
+25.00,+0.00,+2.00,-1.00,-2.00,+1.00,-4.00,-37.00,-15.00,-10.00,-3.00,-1.00,-2.00,-4.00,+8.00,-5.00
+6.00,+10.00,-3.00,-1.00,-2.00,-6.00,+2.00,+1.00,+42.00,+44.00,-4.00,-6.00,-7.00,+6.00,-12.00,+14.00
-46.00,-35.00,-16.00,-7.00,-3.00,+0.00,+5.00,+25.00,-69.00,-78.00,-7.00,-1.00,-3.00,-27.00,+13.00,-11.00
+34.00,+27.00,+8.00,+1.00,-2.00,-4.00,-16.00,+0.00,+36.00,+16.00,+9.00,+10.00,+22.00,+31.00,-1.00,+7.00
+1.00,+10.00,+1.00,-1.00,-1.00,-3.00,-9.00,-26.00,-32.00,+2.00,+1.00,+1.00,-1.00,+14.00,-2.00,+0.00
-15.00,-38.00,-4.00,-3.00,+0.00,+8.00,+6.00,+10.00,-17.00,-18.00,-7.00,-3.00,-4.00,-8.00,-12.00,-6.00
-4.00,+20.00,-2.00,-2.00,-3.00,-3.00,-1.00,-28.00,+30.00,+22.00,-3.00,+0.00,+1.00,+18.00,+0.00,-5.00
-55.00,-32.00,-16.00,-5.00,-1.00,-2.00,+0.00,-7.00,-39.00,-47.00,-12.00,+1.00,-3.00,-10.00,-11.00,+2.00
+18.00,+45.00,+19.00,+3.00,-2.00,-5.00,-13.00,-5.00,+27.00,+37.00,+8.00,-3.00,-6.00,-31.00,+8.00,-2.00
-2.00,+32.00,+7.00,+5.00,+5.00,+3.00,+10.00,-4.00,-35.00,-14.00,-7.00,+4.00,+28.00,+84.00,+14.00,-15.00
+20.00,+59.00,+16.00,+2.00,+4.00,+3.00,+8.00,+6.00,+51.00,+22.00,+8.00,-2.00,-26.00,-84.00,+7.00,+30.00
-2.00,-30.00,-10.00,-4.00,-6.00,-4.00,-12.00,-32.00,+23.00,+40.00,+7.00,+2.00,+6.00,+27.00,-4.00,+8.00
-16.00,-40.00,-14.00,-8.00,-6.00,-4.00,+6.00,+14.00,+13.00,+14.00,+4.00,+1.00,+2.00,+11.00,+5.00,-6.00
+6.00,+20.00,-3.00,+1.00,-3.00,-4.00,-3.00,+8.00,-20.00,-19.00,-6.00,-6.00,-4.00,-19.00,-8.00,-13.00
-2.00,-6.00,-5.00,-1.00,-4.00,-5.00,+1.00,+25.00,+5.00,-22.00,-5.00,-2.00,+3.00,+2.00,-18.00,-15.00
+32.00,+12.00,-7.00,-2.00,-2.00,-11.00,-21.00,+11.00,+0.00,+0.00,+1.00,-2.00,-7.00,-12.00,-12.00,-7.00
-20.00,+13.00,+5.00,+7.00,+8.00,+16.00,+30.00,+14.00,-4.00,+6.00,-4.00,-3.00,-1.00,-18.00,+2.00,+11.00
+22.00,-24.00,+4.00,+3.00,+3.00,+1.00,-12.00,+5.00,-1.00,-25.00,-5.00,-5.00,-9.00,-13.00,+1.00,-9.00
-7.00,+3.00,+10.00,+3.00,+4.00,-1.00,+7.00,+11.00,+7.00,+9.00,-3.00,+4.00,+12.00,+54.00,+19.00,-2.00
-3.00,-5.00,-6.00,-8.00,-9.00,-8.00,-13.00,+1.00,-15.00,+8.00,+7.00,+2.00,+0.00,-26.00,-18.00,-8.00
-9.00,-7.00,-4.00,+0.00,-1.00,-6.00,+2.00,-38.00,+56.00,+10.00,+3.00,+3.00,+3.00,+14.00,+7.00,-6.00
+11.00,+14.00,+2.00,+2.00,+1.00,+2.00,+4.00,+26.00,-48.00,-24.00,-7.00,-8.00,-15.00,-12.00,+3.00,-17.00
-16.00,-26.00,-12.00,-4.00,-6.00,-8.00,-6.00,-17.00,-21.00,-18.00,+1.00,+3.00,+17.00,-15.00,-2.00,-10.00
-16.00,-23.00,-5.00,-5.00,-1.00,+1.00,+4.00,+50.00,+29.00,+6.00,-7.00,-6.00,-7.00,+53.00,+9.00,-5.00
+29.00,+14.00,+7.00,-1.00,-2.00,-5.00,-3.00,+8.00,-26.00,-44.00,+4.00,+6.00,+3.00,-5.00,+3.00,+23.00
+28.00,+16.00,+5.00,+3.00,+2.00,-6.00,-7.00,-14.00,+21.00,+9.00,-6.00,-4.00,-2.00,-4.00,-9.00,-4.00
-19.00,+16.00,+10.00,+2.00,+3.00,+6.00,-5.00,+10.00,+64.00,+79.00,+18.00,+2.00,+0.00,-2.00,+8.00,+7.00
+31.00,-8.00,-12.00,-8.00,-5.00,-7.00,-4.00,-5.00,-38.00,-45.00,-12.00,-4.00,+3.00,+23.00,+2.00,+5.00
+50.00,+43.00,+15.00,+7.00,+4.00,+7.00,+30.00,+19.00,-6.00,-23.00,-8.00,-1.00,+7.00,+9.00,+30.00,-5.00
-25.00,-48.00,-4.00,-5.00,-5.00,+1.00,-16.00,-3.00,+41.00,+36.00,+10.00,+4.00,-8.00,+4.00,-19.00,+27.00
+17.00,+4.00,+6.00,+4.00,+7.00,+8.00,+3.00,-8.00,-42.00,-9.00,-4.00,-3.00,-6.00,+5.00,-14.00,-37.00
-24.00,-31.00,-18.00,-4.00,+1.00,+10.00,+12.00,+1.00,+33.00,+59.00,+10.00,+5.00,+6.00,+10.00,+23.00,+30.00
-22.00,-15.00,-4.00,-1.00,+0.00,-3.00,-12.00,-6.00,-31.00,-68.00,-16.00,-5.00,-6.00,-36.00,-10.00,-2.00
+12.00,+23.00,-1.00,+0.00,-4.00,-10.00,-6.00,+5.00,-16.00,+13.00,+4.00,-5.00,-3.00,-17.00,+1.00,-10.00
+7.00,-28.00,-1.00,-2.00,-6.00,-3.00,-15.00,-69.00,-13.00,+4.00,-3.00,-4.00,-9.00,-4.00,-23.00,-2.00
-6.00,+2.00,+12.00,+10.00,+9.00,+10.00,+12.00,-5.00,-17.00,-23.00,+2.00,+8.00,+13.00,+14.00,+33.00,-3.00
-6.00,-10.00,-16.00,-8.00,-5.00,-3.00,-19.00,+44.00,+30.00,+25.00,-1.00,-1.00,-10.00,-32.00,+9.00,-3.00
-59.00,-24.00,-7.00,-3.00,-3.00,-6.00,+2.00,+0.00,-18.00,+8.00,+8.00,+1.00,-3.00,-9.00,-23.00,+5.00
+2.00,+15.00,+1.00,-2.00,+1.00,+18.00,+17.00,-27.00,+18.00,+5.00,-6.00,-1.00,-2.00,+21.00,+0.00,+12.00
+19.00,+30.00,+10.00,+3.00,+0.00,+0.00,+24.00,-2.00,-30.00,-45.00,-9.00,-8.00,-12.00,-36.00,-36.00,-22.00
+20.00,-29.00,-16.00,-5.00,-3.00,-3.00,-5.00,+7.00,-57.00,+34.00,+0.00,-8.00,+0.00,-1.00,+9.00,-12.00
+21.00,+48.00,+30.00,+11.00,+4.00,+2.00,-1.00,-35.00,+50.00,+22.00,+6.00,+8.00,+14.00,+19.00,+45.00,+26.00
-8.00,-36.00,-16.00,-2.00,+2.00,-10.00,-15.00,+28.00,+20.00,+21.00,-1.00,-10.00,-16.00,-6.00,-44.00,-25.00
+23.00,+94.00,+20.00,+4.00,+3.00,+7.00,+18.00,+12.00,+17.00,-6.00,-5.00,+1.00,+11.00,-3.00,+41.00,+35.00
-62.00,-66.00,-21.00,-4.00,+0.00,+4.00,-9.00,-45.00,-12.00,+0.00,-5.00,-7.00,-5.00,+3.00,-53.00,-30.00
-22.00,-22.00,-13.00,-9.00,-6.00,-10.00,+5.00,+50.00,-14.00,-75.00,-1.00,+4.00,+0.00,+17.00,+25.00,+23.00
+11.00,+4.00,+0.00,-4.00,-8.00,-12.00,-5.00,-18.00,-54.00,-4.00,-18.00,-9.00,+7.00,-5.00,-38.00,-21.00
+27.00,-18.00,+2.00,+1.00,+0.00,-9.00,-14.00,-31.00,+24.00,+48.00,+21.00,+4.00,-22.00,-70.00,+14.00,-14.00
+9.00,+9.00,+0.00,+0.00,-3.00,-6.00,-9.00,+30.00,+31.00,+19.00,-2.00,-8.00,-5.00,+34.00,-26.00,-4.00
-30.00,-51.00,-22.00,-8.00,-5.00,-6.00,-10.00,-42.00,-9.00,+15.00,-11.00,-5.00,+5.00,+24.00,-6.00,-15.00
+14.00,+38.00,-8.00,-10.00,-8.00,-6.00,+27.00,+21.00,-12.00,-28.00,+2.00,+2.00,-6.00,-13.00,+33.00,+25.00
+2.00,+6.00,+17.00,+6.00,+6.00,+19.00,+14.00,+38.00,+15.00,-6.00,-7.00,-2.00,+6.00,-15.00,-4.00,+7.00
+19.00,+5.00,-1.00,-8.00,-11.00,-13.00,+0.00,+46.00,+7.00,-12.00,+5.00,+7.00,+6.00,+37.00,+26.00,+9.00
+11.00,+84.00,+40.00,+14.00,+13.00,+7.00,-14.00,-14.00,-2.00,+54.00,+10.00,+0.00,-4.00,-56.00,-17.00,-14.00
-52.00,-46.00,-16.00,-5.00,-6.00,-1.00,+9.00,-15.00,+0.00,-51.00,-9.00,+1.00,+13.00,+27.00,+1.00,+8.00
-19.00,-10.00,-13.00,-14.00,-13.00,-16.00,-31.00,-39.00,-18.00,-31.00,-12.00,-5.00,+19.00,+6.00,-13.00,-2.00
-7.00,-19.00,-12.00,-5.00,-1.00,-9.00,-6.00,-14.00,+5.00,+26.00,+12.00,+5.00,-26.00,-4.00,+37.00,+9.00
+1.00,+23.00,+2.00,-2.00,-3.00,+2.00,+7.00,+21.00,-13.00,-37.00,-12.00,-9.00,-7.00,-8.00,-45.00,-27.00
+4.00,+11.00,+5.00,+5.00,+1.00,-14.00,-62.00,+5.00,+13.00,+30.00,+4.00,+1.00,-5.00,-45.00,-9.00,-16.00
+29.00,-11.00,-2.00,-1.00,+3.00,+0.00,+24.00,+10.00,-29.00,-12.00,+1.00,-6.00,+4.00,+49.00,-3.00,-5.00
-18.00,+10.00,+21.00,+5.00,+4.00,+5.00,-16.00,-18.00,-18.00,-60.00,-20.00,-5.00,+16.00,+5.00,+19.00,+3.00
+10.00,+6.00,-5.00,-2.00,-7.00,-36.00,+19.00,+17.00,+32.00,+27.00,+12.00,+2.00,-17.00,-44.00,-19.00,-14.00
+32.00,+1.00,+5.00,+4.00,+7.00,+39.00,-14.00,-9.00,+6.00,+14.00,+5.00,-3.00,-6.00,+3.00,+52.00,+19.00
-10.00,-45.00,-18.00,-8.00,-7.00,-10.00,-10.00,+61.00,-12.00,+13.00,-1.00,+4.00,+0.00,+4.00,-29.00,-28.00
+50.00,+45.00,+1.00,+2.00,+2.00,+24.00,+23.00,-29.00,-7.00,-5.00,-7.00,+2.00,+18.00,-7.00,+7.00,+22.00
-19.00,-21.00,+13.00,+3.00,-1.00,+2.00,+1.00,+41.00,+3.00,+10.00,+2.00,-3.00,-18.00,-1.00,+5.00,+10.00
+6.00,-7.00,-5.00,-4.00,-6.00,-12.00,-7.00,+9.00,+38.00,-5.00,+4.00,+7.00,+15.00,+27.00,+6.00,-2.00
-30.00,+18.00,+3.00,+5.00,+5.00,+11.00,+25.00,-30.00,-7.00,+6.00,-4.00,-10.00,-11.00,-13.00,-25.00,-5.00
+36.00,-3.00,+2.00,+0.00,-2.00,+6.00,+5.00,-5.00,+9.00,+0.00,-7.00,-6.00,-10.00,-13.00,-1.00,+11.00
-15.00,-43.00,-12.00,-2.00,-3.00,-3.00,-21.00,+12.00,+22.00,+53.00,+6.00,+0.00,-1.00,-13.00,-20.00,+11.00
-19.00,-36.00,-19.00,-7.00,-4.00,-5.00,+17.00,-31.00,-66.00,-50.00,-24.00,-10.00,-5.00,+2.00,+22.00,+3.00
+33.00,-6.00,+1.00,-2.00,+3.00,+10.00,-8.00,+22.00,-19.00,-45.00,-4.00,+2.00,+2.00,-13.00,+3.00,-21.00
-54.00,-25.00,+9.00,+10.00,+6.00,-3.00,-5.00,-31.00,+36.00,+56.00,+21.00,+15.00,+9.00,+18.00,-4.00,+24.00
-9.00,-7.00,-18.00,-12.00,-13.00,-16.00,-13.00,-35.00,-19.00,-58.00,-12.00,-7.00,-1.00,+0.00,+2.00,-14.00
-2.00,-21.00,-8.00,+0.00,+1.00,-11.00,+0.00,+13.00,-27.00,-24.00,-5.00,-7.00,-2.00,+4.00,-14.00,-4.00
-22.00,-34.00,-13.00,-5.00,-3.00,-2.00,+16.00,+21.00,+42.00,+114.00,+13.00,+0.00,-9.00,-12.00,-5.00,-9.00
-15.00,+38.00,+3.00,-1.00,+1.00,+11.00,-6.00,-17.00,-44.00,-48.00,-10.00,-8.00,-5.00,+16.00,+4.00,-11.00
+39.00,+61.00,+26.00,+7.00,+5.00,+14.00,+8.00,-18.00,-15.00,-19.00,+4.00,+13.00,+1.00,-33.00,+5.00,-1.00
-23.00,-48.00,-2.00,+5.00,+9.00,+13.00,+6.00,-15.00,-14.00,+3.00,-1.00,-8.00,+3.00,+6.00,-23.00,-16.00
+18.00,+13.00,+5.00,+0.00,-2.00,-5.00,-13.00,-14.00,+5.00,-25.00,-8.00,+2.00,-15.00,+2.00,+31.00,+0.00
+0.00,-7.00,-10.00,-5.00,-5.00,+2.00,+6.00,+2.00,-20.00,+10.00,+4.00,-3.00,-2.00,-16.00,-49.00,-36.00
-23.00,-91.00,-33.00,-9.00,-4.00,-5.00,-5.00,-25.00,-6.00,-32.00,-9.00,+1.00,+17.00,+36.00,+55.00,+8.00
+24.00,+118.00,+18.00,+0.00,+0.00,+1.00,-14.00,-4.00,+22.00,+7.00,-6.00,-6.00,-19.00,-7.00,-1.00,-3.00
+8.00,-36.00,+7.00,+5.00,+0.00,-1.00,+19.00,+11.00,-8.00,+16.00,+6.00,-1.00,+7.00,-49.00,-25.00,+16.00
-25.00,+34.00,+14.00,-5.00,-14.00,-23.00,-15.00,+8.00,+19.00,+12.00,-4.00,-9.00,-17.00,+11.00,-19.00,+1.00
-2.00,-30.00,-13.00,-3.00,+1.00,-6.00,-2.00,+3.00,-3.00,-2.00,-2.00,-1.00,+10.00,+7.00,+44.00,+6.00
+57.00,+11.00,+2.00,+0.00,+0.00,+7.00,+14.00,+27.00,+1.00,-20.00,+1.00,+0.00,+1.00,+4.00,-26.00,+8.00
-25.00,-16.00,-7.00,-1.00,-4.00,-8.00,-21.00,-42.00,-12.00,-12.00,+2.00,-4.00,-10.00,-12.00,-29.00,-26.00
+0.00,+28.00,-3.00,-1.00,+3.00,-9.00,-14.00,-7.00,+11.00,-20.00,-11.00,-3.00,+9.00,+5.00,+13.00,+10.00
+8.00,+11.00,+9.00,+2.00,+1.00,+27.00,+42.00,+9.00,-12.00,+5.00,+3.00,+6.00,+3.00,+6.00,-29.00,-1.00
-4.00,-38.00,-11.00,-6.00,-7.00,-22.00,-5.00,-10.00,+11.00,+48.00,+31.00,+8.00,-4.00,+5.00,+20.00,+6.00
-30.00,+30.00,-2.00,-5.00,+1.00,+22.00,-2.00,-35.00,+2.00,+3.00,+12.00,+23.00,+0.00,+19.00,+21.00,+32.00
+1.00,-43.00,-14.00,-3.00,+0.00,-10.00,+0.00,+56.00,-5.00,+15.00,-16.00,-10.00,+2.00,-34.00,-69.00,-25.00
+8.00,-27.00,-5.00,-3.00,+4.00,+15.00,+1.00,+23.00,+0.00,-16.00,+1.00,-2.00,+0.00,+7.00,+11.00,-5.00
+21.00,+38.00,+30.00,+7.00,-2.00,-5.00,-3.00,-31.00,+4.00,-28.00,-43.00,-8.00,-1.00,-9.00,-45.00,-8.00
-17.00,-4.00,-5.00,+5.00,+2.00,-4.00,+3.00,+35.00,-13.00,-6.00,+13.00,+0.00,-1.00,+7.00,+19.00,-1.00
+1.00,+5.00,+0.00,-1.00,-2.00,-9.00,-4.00,-22.00,+11.00,+14.00,+24.00,+5.00,-18.00,-9.00,+10.00,-11.00
-48.00,-35.00,-22.00,-3.00,-3.00,-14.00,-4.00,-53.00,+33.00,+1.00,-38.00,-25.00,-6.00,-5.00,-18.00,+14.00
+23.00,+14.00,-14.00,+3.00,+10.00,+14.00,+21.00,+107.00,-5.00,+19.00,+10.00,+17.00,+17.00,+9.00,+2.00,-2.00
+20.00,+12.00,+19.00,-1.00,-1.00,+0.00,-12.00,-29.00,-1.00,-33.00,-28.00,-18.00,-2.00,+10.00,-5.00,+4.00
-15.00,-20.00,+10.00,+1.00,-1.00,+2.00,-2.00,-9.00,-11.00,+10.00,+17.00,+15.00,+2.00,-26.00,-10.00,-3.00
-43.00,-55.00,-30.00,-8.00,-10.00,-12.00,-31.00,-61.00,-1.00,+4.00,+14.00,-1.00,-4.00,-2.00,-26.00,-34.00
+14.00,+3.00,+13.00,-3.00,-6.00,-11.00,+14.00,+21.00,+12.00,+0.00,+2.00,+3.00,-3.00,+19.00,+38.00,+19.00
-22.00,+27.00,+8.00,+13.00,+8.00,+4.00,-8.00,-25.00,-8.00,-16.00,-5.00,-2.00,-9.00,-5.00,-3.00,-16.00
+19.00,+21.00,+3.00,+2.00,+4.00,-7.00,+13.00,+40.00,+74.00,+40.00,+10.00,+0.00,+8.00,+10.00,+12.00,+26.00
+25.00,+13.00,+2.00,-4.00,-3.00,-10.00,-16.00,-18.00,+10.00,+8.00,+12.00,+10.00,+10.00,+3.00,+33.00,+7.00
-43.00,-39.00,-25.00,-5.00,-3.00,+15.00,-6.00,-54.00,-24.00,-23.00,-16.00,-9.00,+1.00,+5.00,-14.00,+10.00
+28.00,-5.00,-4.00,-11.00,-9.00,-14.00,+2.00,+44.00,-9.00,+14.00,+12.00,+2.00,-4.00,+14.00,-30.00,-26.00
+8.00,-9.00,-2.00,+1.00,+1.00,+6.00,+7.00,-19.00,-28.00,-14.00,-3.00,-12.00,-3.00,-16.00,+30.00,+0.00
+65.00,+60.00,+22.00,+11.00,+12.00,+12.00,+15.00,+63.00,+13.00,+13.00,+13.00,+14.00,+18.00,+18.00,+3.00,+2.00
-19.00,-14.00,-5.00,-2.00,-4.00,-25.00,-9.00,+59.00,-1.00,+23.00,+18.00,+8.00,+2.00,-7.00,+31.00,+14.00
+18.00,+37.00,+9.00,+7.00,+10.00,+32.00,+10.00,-87.00,-12.00,-56.00,-53.00,-23.00,-9.00,+14.00,-20.00,-14.00
-15.00,-9.00,-10.00,-7.00,-9.00,-26.00,-15.00,+21.00,-30.00,-30.00,-13.00,-4.00,+9.00,-14.00,-19.00,-10.00
+27.00,+9.00,+1.00,-3.00,+0.00,+3.00,-7.00,+36.00,+13.00,+19.00,+20.00,-5.00,-20.00,+10.00,-18.00,+22.00
-23.00,-13.00,-9.00,-6.00,-3.00,+9.00,+5.00,-20.00,+14.00,+2.00,+16.00,+19.00,+35.00,+8.00,+20.00,-14.00
-33.00,-48.00,-9.00,+4.00,+1.00,-18.00,-11.00,+24.00,-8.00,+44.00,+52.00,+12.00,+0.00,-16.00,+1.00,-10.00
-29.00,+0.00,-9.00,-8.00,+0.00,+39.00,+5.00,-103.00,-19.00,-80.00,-83.00,-22.00,-4.00,+16.00,-29.00,-29.00
+44.00,+39.00,+34.00,+13.00,+3.00,-1.00,+13.00,+75.00,+12.00,+30.00,+11.00,-7.00,-7.00,+0.00,+66.00,+13.00
+26.00,+66.00,+34.00,+4.00,+2.00,+7.00,+4.00,+14.00,-2.00,-17.00,-8.00,-10.00,-14.00,-9.00,-52.00,+0.00
-10.00,-27.00,-39.00,-8.00,-21.00,-51.00,-21.00,+1.00,-16.00,+0.00,+7.00,-3.00,+3.00,-3.00,-23.00,-29.00
-22.00,-19.00,+4.00,+3.00,+4.00,+1.00,+6.00,-11.00,+26.00,+32.00,+31.00,+12.00,+2.00,+19.00,+6.00,+6.00
-15.00,-39.00,-43.00,-15.00,-4.00,+4.00,-13.00,-47.00,-20.00,-4.00,-3.00,+19.00,+30.00,-8.00,-32.00,-7.00
+10.00,+12.00,+38.00,+4.00,-4.00,-20.00,-2.00,-24.00,+2.00,-2.00,-5.00,-24.00,-34.00,-29.00,+39.00,-5.00
+15.00,-8.00,-22.00,-3.00,+1.00,+18.00,-2.00,-18.00,+3.00,+4.00,-15.00,-8.00,-8.00,+22.00,+0.00,+35.00
-23.00,+12.00,+22.00,+6.00,+7.00,+4.00,+15.00,+62.00,-9.00,+23.00,+28.00,+7.00,+29.00,+29.00,+48.00,+18.00
+18.00,+21.00,+3.00,+3.00,+2.00,+12.00,+32.00,+48.00,-11.00,-2.00,+0.00,-22.00,-31.00,-20.00,-7.00,-29.00
+12.00,-27.00,-4.00,+5.00,+10.00,+1.00,+7.00,+6.00,-19.00,-38.00,-41.00,-8.00,-14.00,-32.00,+0.00,+11.00
-20.00,+6.00,-3.00,-5.00,-1.00,-23.00,-15.00,+24.00,+1.00,-3.00,-6.00,+2.00,-3.00,-32.00,-2.00,+17.00
-5.00,-20.00,-7.00,+0.00,+11.00,+48.00,+21.00,-41.00,-2.00,+13.00,+40.00,+14.00,+0.00,+22.00,+20.00,+1.00
-81.00,-5.00,-2.00,-8.00,-18.00,-46.00,-35.00,-59.00,+30.00,-27.00,-42.00,-4.00,+0.00,+16.00,-68.00,-11.00
-22.00,-33.00,-31.00,-4.00,-2.00,-21.00,-29.00,-25.00,-1.00,-7.00,+4.00,-14.00,-3.00,+20.00,+22.00,-21.00
+16.00,+7.00,+21.00,+2.00,+5.00,+43.00,+14.00,+85.00,+4.00,+27.00,+8.00,-9.00,-9.00,+20.00,+40.00,+9.00
+4.00,+35.00,+23.00,+9.00,+4.00,-8.00,+23.00,+83.00,-32.00,-30.00,-17.00,-2.00,+2.00,-33.00,-71.00,-1.00
-5.00,+7.00,-3.00,+3.00,+8.00,+22.00,+11.00,-32.00,+0.00,-12.00,-6.00,+7.00,+13.00,+4.00,+6.00,-7.00
+11.00,-20.00,-14.00,-8.00,-5.00,+7.00,-16.00,-41.00,-17.00,+14.00,-3.00,-10.00,-19.00,-36.00,-71.00,-23.00
+11.00,+48.00,+28.00,+7.00,+5.00,-7.00,+4.00,-38.00,+1.00,-24.00,-24.00,-1.00,+2.00,+3.00,+24.00,+5.00
+3.00,-32.00,+3.00,-2.00,-10.00,-23.00,-27.00,-18.00,+2.00,+39.00,+44.00,+13.00,+4.00,+3.00,+17.00,+20.00
-23.00,+0.00,-36.00,-9.00,-6.00,+9.00,+5.00,-26.00,-2.00,-40.00,-41.00,-13.00,-19.00,-10.00,-26.00,-36.00
-7.00,-6.00,-2.00,-3.00,-5.00,-19.00,-10.00,-4.00,-5.00,+14.00,+0.00,+4.00,+25.00,+11.00,-17.00,+5.00
-20.00,-1.00,+0.00,+0.00,+8.00,+20.00,+37.00,-21.00,+19.00,+16.00,+19.00,+13.00,+16.00,+14.00,+29.00,+22.00
+41.00,+39.00,+33.00,+3.00,-2.00,+5.00,-24.00,-14.00,+10.00,+20.00,-7.00,-3.00,-16.00,-21.00,+63.00,+8.00
+13.00,+7.00,+35.00,+9.00,+2.00,-5.00,-8.00,-30.00,-8.00,+5.00,+22.00,+9.00,+25.00,+54.00,+42.00,-12.00
-26.00,-12.00,-53.00,+0.00,+7.00,+17.00,+2.00,-73.00,+7.00,+9.00,+9.00,+6.00,-12.00,-49.00,-14.00,+3.00
+15.00,+29.00,+20.00,+0.00,+3.00,+7.00,+16.00,+35.00,+6.00,-18.00,-15.00,-20.00,-21.00,-37.00,+20.00,-15.00
+21.00,-7.00,-15.00,+1.00,-2.00,-16.00,-12.00,-44.00,+13.00,+27.00,+24.00,+3.00,-9.00,+9.00,+20.00,+3.00
-14.00,+8.00,+7.00,+4.00,+5.00,+2.00,+0.00,+30.00,+2.00,-31.00,-5.00,-2.00,+5.00,+12.00,+9.00,+29.00
-33.00,-8.00,+7.00,-1.00,-4.00,-9.00,-34.00,-87.00,-6.00,-77.00,-54.00,-8.00,+15.00,+32.00,-26.00,-12.00
-13.00,-10.00,+15.00,+5.00,+3.00,+4.00,+16.00,+21.00,+12.00,+69.00,+31.00,+6.00,+12.00,+15.00,+6.00,+15.00
-8.00,-20.00,-34.00,-7.00,-2.00,-27.00,-4.00,-48.00,-21.00,-68.00,-52.00,-7.00,-19.00,-25.00,-53.00,-29.00
+37.00,+16.00,+11.00,-2.00,+3.00,+20.00,+4.00,+69.00,-21.00,+52.00,+29.00,+16.00,+26.00,-9.00,-13.00,+2.00
-45.00,-39.00,-19.00,-6.00,-4.00,+16.00,+28.00,+16.00,+22.00,+11.00,+20.00,+13.00,+17.00,+19.00,-10.00,-12.00
+15.00,+48.00,+46.00,+0.00,-4.00,-19.00,-19.00,-13.00,-22.00,-14.00,-27.00,-5.00,-15.00,+11.00,+45.00,-1.00
+7.00,+32.00,+0.00,+3.00,+1.00,-18.00,-22.00,-24.00,+9.00,+33.00,+50.00,+22.00,+14.00,-11.00,-17.00,+29.00
-41.00,-16.00,-24.00,-4.00,-7.00,-9.00,-3.00,-64.00,+21.00,-2.00,-9.00,-17.00,-28.00,-27.00,+47.00,+43.00
+38.00,+27.00,+43.00,+0.00,+3.00,+4.00,-8.00,-56.00,-22.00,-6.00,-4.00,+2.00,-7.00,-11.00,-32.00,+5.00
-19.00,-27.00,-27.00,+2.00,-1.00,-10.00,+30.00,+85.00,+4.00,+12.00,+12.00,+2.00,+2.00,-18.00,-19.00,-21.00
+4.00,-40.00,-39.00,-9.00,-5.00,+18.00,+3.00,-21.00,-11.00,-7.00,-14.00,-12.00,-3.00,+22.00,-10.00,-15.00
-22.00,+4.00,+14.00,-5.00,+1.00,+5.00,-4.00,-83.00,+25.00,+26.00,+37.00,+8.00,+0.00,-12.00,-33.00,-2.00
+39.00,+3.00,+41.00,+12.00,+6.00,-6.00,+20.00,+41.00,+22.00,+38.00,+24.00,-2.00,-24.00,+43.00,+5.00,+21.00
-50.00,-38.00,-54.00,-7.00,-10.00,-42.00,-51.00,-79.00,-23.00,-91.00,-65.00,-12.00,+14.00,-25.00,-20.00,-14.00
-15.00,+44.00,+38.00,+9.00,+8.00,+38.00,+45.00,+81.00,-8.00,+5.00,-2.00,+3.00,+39.00,+56.00,+10.00,-13.00
+44.00,-10.00,-19.00,+3.00,+2.00,+2.00,+0.00,+19.00,-16.00,-7.00,+2.00,+0.00,-47.00,-92.00,-7.00,+5.00
-49.00,-12.00,+5.00,-6.00,-9.00,-18.00,-11.00,-66.00,+0.00,+47.00,+24.00,-7.00,-6.00,+41.00,+29.00,+4.00
-24.00,-42.00,-15.00,+2.00,+3.00,+18.00,+14.00,-6.00,+4.00,-27.00,-10.00,+16.00,+9.00,-34.00,-19.00,-38.00
+8.00,-28.00,-20.00,-15.00,-13.00,-75.00,-26.00,-40.00,-9.00,-74.00,-52.00,-23.00,-31.00,+6.00,+33.00,+12.00
+38.00,+48.00,+35.00,+11.00,+4.00,+39.00,-10.00,-49.00,-26.00,+2.00,-8.00,-14.00,+47.00,+51.00,-14.00,-13.00
-1.00,+0.00,-16.00,+0.00,-1.00,+2.00,+19.00,+109.00,-9.00,+14.00,+17.00,+11.00,+0.00,-55.00,+37.00,-20.00
-35.00,-8.00,+9.00,-5.00,-3.00,+18.00,-21.00,-76.00,+0.00,+6.00,+10.00,+1.00,-14.00,-3.00,+22.00,+20.00
-12.00,-70.00,-68.00,-9.00,-8.00,-22.00,-26.00,-60.00,+0.00,+46.00,+38.00,+1.00,-3.00,-20.00,-16.00,-7.00
-2.00,+14.00,+12.00,+3.00,+14.00,+30.00,+49.00,+124.00,-24.00,-56.00,-57.00,-26.00,-47.00,+2.00,-10.00,+1.00
+23.00,+46.00,+41.00,+10.00,+2.00,-5.00,-18.00,-57.00,-14.00,-32.00,+12.00,+7.00,+15.00,-15.00,+6.00,+3.00
+59.00,-15.00,-18.00,-13.00,-19.00,-51.00,+3.00,+121.00,+17.00,+5.00,-29.00,-14.00,+0.00,-8.00,-71.00,-13.00
-22.00,-4.00,+9.00,+1.00,+6.00,+29.00,+1.00,+3.00,-28.00,+39.00,+24.00,+14.00,-20.00,-10.00,-9.00,+20.00
-60.00,-9.00,+26.00,+5.00,-2.00,+2.00,-23.00,-128.00,+17.00,+5.00,+9.00,+2.00,+16.00,+21.00,-38.00,-19.00
-1.00,-57.00,-100.00,-22.00,-8.00,+2.00,+4.00,+112.00,+15.00,+10.00,+4.00,-3.00,+17.00,+61.00,+41.00,+32.00
+7.00,+51.00,+36.00,-4.00,-7.00,-29.00,-40.00,-106.00,-34.00,-4.00,-22.00,-1.00,-10.00,-46.00,-65.00,-35.00
-28.00,+33.00,+23.00,+7.00,+2.00,+15.00,+13.00,+8.00,+21.00,+2.00,-5.00,-4.00,-9.00,-61.00,-4.00,-5.00
+114.00,+2.00,-9.00,+2.00,+3.00,-19.00,+0.00,+48.00,-21.00,-9.00,+5.00,-17.00,-14.00,+7.00,+22.00,+9.00
-12.00,+2.00,-18.00,-11.00,-2.00,+15.00,+45.00,+62.00,+26.00,-10.00,-31.00,-5.00,-19.00,-36.00,-102.00,-38.00
-12.00,-11.00,-5.00,+0.00,+2.00,-9.00,-50.00,-112.00,-6.00,-3.00,+21.00,+7.00,+18.00,+49.00,+67.00,+14.00
+3.00,-15.00,+18.00,+3.00,+3.00,+20.00,-18.00,-41.00,+4.00,+23.00,+5.00,-5.00,+6.00,+36.00,+22.00,-10.00
-84.00,-14.00,-9.00,-5.00,-6.00,-17.00,-13.00,-78.00,-19.00,+11.00,+26.00,+8.00,+16.00,+62.00,-35.00,+9.00
+45.00,+15.00,-3.00,+4.00,+7.00,+41.00,+27.00,+14.00,-7.00,-41.00,-56.00,-6.00,-43.00,-90.00,+13.00,+18.00
+4.00,-27.00,-36.00,-14.00,-15.00,-11.00,-9.00,-13.00,+17.00,+7.00,+15.00,+1.00,+22.00,-3.00,+20.00,+30.00
+21.00,+22.00,+28.00,+8.00,+8.00,+22.00,+54.00,+95.00,-2.00,+0.00,-20.00,-17.00,-13.00,-24.00,-41.00,-26.00
+18.00,+10.00,+7.00,-7.00,-7.00,-31.00,+0.00,+63.00,-8.00,+31.00,+47.00,+23.00,+7.00,+30.00,+88.00,+35.00
-45.00,-36.00,+3.00,+1.00,-2.00,-28.00,-25.00,-98.00,+10.00,-20.00,+28.00,-32.00,-62.00,+2.00,-75.00,-34.00
-35.00,-31.00,-42.00,-9.00,-18.00,-39.00,-19.00,+7.00,-4.00,-30.00,-26.00,+7.00,+34.00,+11.00,-30.00,-20.00
+59.00,+19.00,+17.00,+11.00,+15.00,+63.00,+49.00,+17.00,-13.00,-31.00,-32.00,-35.00,-44.00,-52.00,+48.00,+3.00
+9.00,-4.00,-12.00,-2.00,-5.00,+22.00,+5.00,+50.00,-11.00,+5.00,-16.00,+6.00,+3.00,+26.00,-2.00,+23.00
+0.00,+25.00,+20.00,-1.00,-6.00,-19.00,-11.00,+41.00,+2.00,+78.00,+67.00,+15.00,+51.00,-6.00,+43.00,+33.00
-27.00,-33.00,+5.00,-4.00,+8.00,+10.00,-27.00,-76.00,+11.00,+22.00,+6.00,-9.00,+16.00,+19.00,+5.00,-18.00
+64.00,-7.00,-16.00,-11.00,-12.00,-46.00,-23.00,+33.00,+5.00,-104.00,-37.00,+9.00,-10.00,-16.00,+11.00,+7.00
-44.00,+5.00,-23.00,+1.00,+15.00,+25.00,+3.00,-3.00,-12.00,+22.00,-14.00,-5.00,+3.00,-12.00,-31.00,-51.00
-5.00,+12.00,+8.00,+1.00,-4.00,+20.00,-9.00,-21.00,+9.00,+20.00,+9.00,+15.00,+37.00,+36.00,+72.00,+21.00
-27.00,+13.00,+45.00,+9.00,+8.00,-5.00,+6.00,-15.00,-8.00,+39.00,+41.00,-10.00,-91.00,-5.00,-68.00,-37.00
+14.00,-35.00,-59.00,-11.00,-4.00,-16.00,-23.00,-53.00,+4.00,+27.00,+13.00,+17.00,+105.00,+35.00,-22.00,-13.00
-4.00,-19.00,+23.00,+13.00,+13.00,+23.00,+25.00,+56.00,+23.00,-5.00,-3.00,+7.00,-33.00,-42.00,-1.00,+6.00
-30.00,+52.00,+21.00,-15.00,-12.00,-1.00,-15.00,-71.00,-12.00,-46.00,-36.00,+7.00,+26.00,+58.00,+28.00,-34.00
-11.00,-28.00,-24.00,+4.00,+1.00,-4.00,+9.00,+36.00,+3.00,-46.00,-23.00,+3.00,+18.00,+7.00,-52.00,+2.00
-14.00,+10.00,+12.00,-10.00,-12.00,+22.00,+6.00,-39.00,+6.00,+8.00,+7.00,-23.00,-55.00,-45.00,+33.00,+28.00
+77.00,-2.00,+3.00,+3.00,-1.00,-42.00,+8.00,+3.00,+0.00,-15.00,-6.00,+3.00,+0.00,-31.00,-47.00,-29.00
-10.00,-23.00,-27.00,+4.00,+3.00,+50.00,+33.00,+42.00,-23.00,+37.00,+32.00,-2.00,-6.00,+29.00,-30.00,-3.00
+13.00,-5.00,-36.00,+3.00,+5.00,+9.00,-2.00,-70.00,+22.00,+37.00,+34.00,+14.00,+42.00,+34.00,+60.00,+14.00
-35.00,+7.00,+18.00,-5.00,-14.00,-58.00,-43.00,-88.00,-3.00,-12.00,-23.00,-4.00,+6.00,+8.00,-62.00,-32.00
+13.00,+61.00,+54.00,+4.00,-3.00,+5.00,+25.00,+75.00,-7.00,-5.00,-2.00,-3.00,-43.00,-27.00,+60.00,-14.00
+2.00,-19.00,-5.00,+7.00,+13.00,+29.00,+16.00,-34.00,+12.00,+22.00,+4.00,-4.00,+31.00,-18.00,+45.00,+28.00
+37.00,+40.00,+16.00,+2.00,+4.00,+17.00,+29.00,+48.00,-2.00,+8.00,+24.00,+8.00,-63.00,+46.00,-25.00,-2.00
-59.00,-27.00,+12.00,-3.00,-10.00,-58.00,-33.00,+6.00,-29.00,-2.00,+59.00,+54.00,+63.00,-48.00,-19.00,-17.00
-16.00,-27.00,-38.00,-15.00,-5.00,+37.00,-34.00,-128.00,+47.00,-40.00,-75.00,-11.00,-9.00,-76.00,+12.00,+18.00
-21.00,-4.00,+1.00,+5.00,+0.00,-40.00,+10.00,+111.00,-24.00,-36.00,-20.00,+1.00,-1.00,+28.00,-17.00,-23.00
-12.00,+5.00,+8.00,+0.00,+6.00,+30.00,-5.00,+19.00,+4.00,+26.00,+10.00,-2.00,-9.00,-48.00,+59.00,+26.00
-50.00,+1.00,-11.00,+0.00,+2.00,+8.00,-55.00,-128.00,+2.00,+15.00,+1.00,-23.00,-30.00,+48.00,+1.00,+1.00
+14.00,-22.00,-7.00,-9.00,-14.00,-70.00,+13.00,+26.00,-14.00,+50.00,+66.00,+20.00,+55.00,+55.00,-58.00,-45.00
-46.00,-26.00,-14.00,+2.00,-6.00,-6.00,-39.00,-63.00,+9.00,-27.00,-18.00,+6.00,-12.00,-28.00,+61.00,+63.00
+78.00,+56.00,+22.00,+11.00,+22.00,+56.00,+55.00,+62.00,+25.00,+32.00,+2.00,-11.00,-16.00,-67.00,-94.00,-6.00
-7.00,+14.00,+35.00,+5.00,-5.00,-40.00,-10.00,+45.00,+4.00,+3.00,+3.00,+2.00,-9.00,+39.00,+106.00,+17.00
+5.00,-30.00,-58.00,-2.00,+7.00,+19.00,+1.00,-32.00,+10.00,+33.00,+70.00,+15.00,+31.00,+98.00,+57.00,+37.00
+51.00,+5.00,+55.00,+10.00,+6.00,-31.00,-32.00,-114.00,-28.00,-85.00,-103.00,-27.00,-39.00,-41.00,-57.00,-43.00
+21.00,-48.00,-73.00,-20.00,-14.00,-13.00,+5.00,+64.00,-20.00,-7.00,+3.00,-14.00,-3.00,+3.00,+14.00,-8.00
-10.00,+54.00,+41.00,+16.00,+11.00,+26.00,+48.00,+86.00,+18.00,+28.00,+8.00,+4.00,+13.00,-3.00,-46.00,-7.00
+69.00,-4.00,-14.00,-2.00,+1.00,+27.00,-8.00,+45.00,-13.00,-2.00,+3.00,-6.00,-21.00,-11.00,+0.00,+53.00
-40.00,+19.00,+26.00,-1.00,+8.00,+31.00,+24.00,-65.00,+40.00,+89.00,+50.00,+13.00,+56.00,+27.00,-48.00,-8.00
-33.00,-21.00,+1.00,-7.00,-16.00,-30.00,-24.00,-71.00,-24.00,-84.00,-31.00,+5.00,+21.00,+19.00,+3.00,+19.00
+50.00,-1.00,-13.00,+0.00,+15.00,+35.00,+59.00,+54.00,-1.00,-70.00,-90.00,-38.00,-44.00,-34.00,+25.00,+37.00
-18.00,+3.00,+3.00,-5.00,-13.00,-36.00,-41.00,-66.00,-26.00,-25.00,-26.00,-11.00,-21.00,-76.00,+48.00,-38.00
+50.00,-1.00,-9.00,+1.00,+4.00,+8.00,-5.00,-5.00,-1.00,-40.00,-42.00,-8.00,-76.00,-12.00,+0.00,+2.00
-49.00,+6.00,+26.00,+4.00,-4.00,-33.00,+13.00,-46.00,+15.00,+59.00,+35.00,+22.00,+107.00,+100.00,+9.00,+0.00
-22.00,-52.00,-37.00,-7.00,-7.00,+14.00,+15.00,+40.00,+5.00,+80.00,+58.00,+8.00,-28.00,-25.00,-13.00,-10.00
-42.00,+16.00,-32.00,-13.00,-13.00,-45.00,-3.00,+36.00,-22.00,-99.00,-84.00,-35.00,-67.00,+21.00,-34.00,+41.00
+29.00,+47.00,+50.00,+2.00,-12.00,+16.00,-5.00,-89.00,-24.00,-23.00,-9.00,-1.00,-5.00,-87.00,-58.00,-63.00
+53.00,+39.00,-4.00,+5.00,+10.00,+31.00,+39.00,+21.00,-11.00,+4.00,+12.00,+7.00,+14.00,+70.00,+0.00,+7.00
-51.00,+6.00,+19.00,+4.00,+0.00,+5.00,+0.00,-68.00,+16.00,+59.00,+30.00,+12.00,-4.00,-12.00,+27.00,-61.00
-36.00,-24.00,+0.00,-3.00,-11.00,-32.00,-38.00,+32.00,+6.00,-22.00,-11.00,-2.00,+22.00,+20.00,+13.00,+16.00
+22.00,-11.00,-7.00,-4.00,+6.00,+5.00,+46.00,+58.00,-5.00,+5.00,+19.00,+3.00,+0.00,+17.00,+7.00,+9.00
-83.00,+36.00,+11.00,-5.00,-23.00,-89.00,-97.00,-102.00,-5.00,+15.00,+8.00,-21.00,+2.00,+63.00,-18.00,-16.00
+55.00,+39.00,+25.00,+11.00,+17.00,+96.00,+37.00,-14.00,-4.00,+16.00,+28.00,+18.00,-50.00,-57.00,-48.00,-43.00
-39.00,+2.00,+12.00,-1.00,-9.00,-36.00,+0.00,+55.00,+2.00,-44.00,-30.00,-1.00,+31.00,-6.00,-72.00,+9.00
-3.00,-50.00,-33.00,+7.00,+16.00,+15.00,+4.00,-24.00,+2.00,+15.00,+1.00,-9.00,+3.00,+9.00,+127.00,+38.00
+65.00,+20.00,-1.00,-10.00,-5.00,+6.00,-13.00,-10.00,-26.00,-16.00,-19.00,-25.00,-93.00,-66.00,-23.00,-10.00
-21.00,+6.00,-21.00,-10.00,-15.00,-29.00,+10.00,+20.00,+8.00,+14.00,+9.00,-1.00,+106.00,+40.00,-42.00,+28.00
-6.00,-18.00,+20.00,-10.00,-24.00,-80.00,-67.00,-8.00,+14.00,+13.00,+21.00,+23.00,+56.00,-4.00,+22.00,-16.00
-20.00,+24.00,+5.00,+10.00,+22.00,+40.00,+57.00,+109.00,+13.00,+25.00,+26.00,+4.00,-6.00,+48.00,+67.00,+13.00
+77.00,+8.00,-18.00,-4.00,+0.00,+36.00,+40.00,+76.00,-6.00,+78.00,+63.00,+17.00,-10.00,-25.00,-45.00,+22.00
+6.00,-34.00,-38.00,-7.00,+4.00,+1.00,-22.00,+53.00,-32.00,-128.00,-125.00,-48.00,-75.00,-66.00,+8.00,-4.00
-47.00,-20.00,+0.00,+4.00,+7.00,+27.00,+22.00,-63.00,-14.00,+51.00,+29.00,-4.00,-6.00,-9.00,-36.00,-22.00
+44.00,+41.00,+1.00,-4.00,-17.00,-23.00,+2.00,+16.00,-3.00,+26.00,+38.00,+16.00,+36.00,+6.00,-104.00,-29.00
-42.00,+13.00,+30.00,+10.00,+10.00,+29.00,+10.00,-27.00,-8.00,-7.00,-39.00,+4.00,-23.00,+51.00,+67.00,+22.00
-54.00,-33.00,-13.00,-12.00,-14.00,-36.00,-39.00,-128.00,+28.00,+22.00,+17.00,+2.00,+22.00,-9.00,-47.00,+17.00
+45.00,-40.00,-67.00,+5.00,+5.00,-36.00,-2.00,+37.00,+39.00,+27.00,+5.00,-12.00,-3.00,+15.00,+49.00,+8.00
-49.00,+67.00,+62.00,-15.00,-15.00,+42.00,-23.00,-61.00,-12.00,+48.00,+37.00,-25.00,-90.00,+19.00,-8.00,-68.00
+9.00,-13.00,-7.00,+3.00,+6.00,+0.00,+38.00,+37.00,-7.00,-75.00,-51.00,+8.00,+84.00,-67.00,+37.00,+99.00
+25.00,-2.00,-13.00,-9.00,-4.00,-9.00,-4.00,-84.00,-9.00,-24.00,-18.00,+11.00,+49.00,+84.00,-6.00,+14.00
-68.00,-7.00,+16.00,+8.00,+1.00,+17.00,+47.00,-90.00,-16.00,+21.00,-6.00,-20.00,-62.00,+43.00,-20.00,-51.00
+36.00,-34.00,-34.00,-5.00,+1.00,+12.00,-33.00,-51.00,+25.00,+69.00,+71.00,+42.00,+26.00,+12.00,+38.00,+98.00
-18.00,+10.00,+89.00,+13.00,+8.00,+29.00,+3.00,-115.00,+21.00,-65.00,-71.00,-13.00,-70.00,-101.00,-36.00,-79.00
-39.00,-42.00,-104.00,-11.00,-3.00,-38.00,-39.00,+45.00,-17.00,-15.00,-14.00,-12.00,-3.00,+32.00,+77.00,+107.00
+17.00,+32.00,+37.00,+5.00,+6.00,+72.00,+46.00,-3.00,-2.00,+65.00,+48.00,+8.00,+83.00,+73.00,+32.00,-84.00
+4.00,+8.00,+30.00,+4.00,+1.00,-37.00,+8.00,+127.00,-17.00,+2.00,-4.00,-4.00,-4.00,-7.00,-28.00,+20.00
-79.00,-43.00,+7.00,-16.00,-32.00,-47.00,-42.00,-122.00,+22.00,-69.00,-13.00,-16.00,+69.00,+82.00,-50.00,-69.00
+40.00,+2.00,-25.00,+18.00,+20.00,+5.00,-13.00,+62.00,-22.00,-37.00,-29.00,+15.00,-59.00,-97.00,-3.00,+9.00
+87.00,+77.00,+40.00,+16.00,+38.00,+93.00,+76.00,+68.00,+5.00,+34.00,+43.00,+31.00,+28.00,+68.00,+69.00,-7.00
-27.00,-37.00,-25.00,-8.00,-10.00,-25.00,-29.00,-93.00,-6.00,-3.00,-19.00,-27.00,-45.00,-99.00,-91.00,-81.00
+9.00,-36.00,-29.00,-20.00,-38.00,-85.00,-69.00,-78.00,-10.00,+114.00,+63.00,-4.00,-4.00,+7.00,+2.00,+75.00
-22.00,-17.00,-2.00,-3.00,-7.00,-5.00,+17.00,-54.00,-3.00,-75.00,-59.00,-21.00,+28.00,+59.00,-64.00,-65.00
-16.00,+31.00,+5.00,+6.00,+3.00,+25.00,-71.00,-66.00,+8.00,+84.00,+79.00,+4.00,-14.00,+38.00,+23.00,+72.00
+28.00,+51.00,+67.00,+12.00,+14.00,+12.00,+49.00,+70.00,-16.00,-76.00,-61.00,+11.00,+5.00,+13.00,-50.00,-27.00
+17.00,-56.00,-81.00,-1.00,+19.00,-4.00,+7.00,-26.00,+17.00,+15.00,-11.00,-11.00,+4.00,-67.00,+119.00,+3.00
-57.00,-4.00,+10.00,-2.00,-11.00,+16.00,+2.00,+3.00,+24.00,+51.00,+67.00,+20.00,-24.00,+2.00,+63.00,-43.00
+22.00,-85.00,-44.00,-11.00,-5.00,-6.00,+14.00,+4.00,-29.00,+2.00,-31.00,-14.00,-24.00,-128.00,-116.00,-23.00
-7.00,+74.00,+50.00,-4.00,-7.00,-34.00,-32.00,-46.00,+19.00,-21.00,-14.00,-22.00,+48.00,+127.00,+109.00,+48.00
-11.00,-19.00,+36.00,+3.00,-5.00,-32.00,-37.00,-21.00,-5.00,-52.00,-13.00,-1.00,-120.00,-116.00,+25.00,-57.00
-35.00,+14.00,-19.00,-2.00,+5.00,-63.00,+24.00,+6.00,+1.00,+31.00,+50.00,+16.00,+48.00,+127.00,-17.00,-7.00
+45.00,+19.00,+1.00,+12.00,+27.00,+52.00,+39.00,+66.00,+18.00,-24.00,-17.00,+29.00,+28.00,-120.00,+36.00,+52.00
-27.00,-46.00,-53.00,+3.00,+3.00,+32.00,+3.00,-70.00,-20.00,+7.00,-2.00,-11.00,-42.00,-51.00,-82.00,-14.00
+53.00,+8.00,+1.00,+4.00,+17.00,+73.00,+49.00,+127.00,-20.00,+8.00,+15.00,-2.00,+34.00,+71.00,+44.00,+23.00
+63.00,+50.00,+46.00,+2.00,-11.00,-83.00,-57.00,+6.00,+15.00,+52.00,+17.00,+13.00,+34.00,+17.00,-3.00,+4.00
-48.00,+56.00,+58.00,+5.00,+11.00,+53.00,+30.00,-80.00,-12.00,-25.00,+11.00,+1.00,-52.00,-6.00,-101.00,-57.00
+32.00,-30.00,-25.00,-14.00,-25.00,-116.00,-42.00,+17.00,-1.00,-62.00,-79.00,-9.00,+122.00,+106.00,-37.00,-33.00
+12.00,-4.00,-3.00,+19.00,+39.00,+97.00,+45.00,-47.00,+4.00,-8.00,-19.00,-6.00,-36.00,-78.00,+6.00,+64.00
-19.00,-34.00,-12.00,-6.00,-6.00,+25.00,-28.00,-67.00,-31.00,-49.00,-30.00,-16.00,-46.00,-32.00,+27.00,+12.00
-83.00,-33.00,-26.00,-23.00,-33.00,-107.00,-68.00,+43.00,+31.00,+34.00,-9.00,-16.00,-89.00,-15.00,+120.00,+30.00
-40.00,-46.00,-44.00,-5.00,-5.00,-5.00,-12.00,-36.00,+5.00,+25.00,+85.00,-3.00,+9.00,-30.00,-20.00,-63.00
+17.00,-1.00,+9.00,+3.00,+0.00,+31.00,-1.00,+35.00,-5.00,+26.00,+8.00,+29.00,+16.00,+6.00,-103.00,-125.00
+45.00,-21.00,-9.00,-7.00,-13.00,+32.00,+33.00,+86.00,-8.00,-31.00,-28.00,-8.00,+1.00,-69.00,-2.00,+21.00
-14.00,+65.00,+70.00,-1.00,+6.00,-20.00,-13.00,-119.00,-2.00,-32.00,-35.00,-19.00,-45.00,+29.00,-32.00,-30.00
-2.00,-17.00,-38.00,-7.00,-7.00,+43.00,+7.00,+72.00,-41.00,-3.00,+1.00,-21.00,-6.00,-13.00,+49.00,-21.00
-67.00,-43.00,-60.00,-4.00,-3.00,-24.00,-30.00,-39.00,+42.00,+81.00,+56.00,+26.00,+45.00,+127.00,+100.00,+94.00
-33.00,-56.00,-2.00,+4.00,+1.00,+3.00,+20.00,+80.00,-24.00,-16.00,+24.00,-15.00,-48.00,-95.00,-128.00,-20.00
+31.00,-40.00,-21.00,-27.00,-23.00,-36.00,-17.00,-30.00,+5.00,-15.00,-22.00,+1.00,+27.00,+85.00,+82.00,+10.00
+1.00,+45.00,-2.00,+15.00,+21.00,+53.00,+33.00,+39.00,+14.00,-18.00,-17.00,+23.00,+67.00,+103.00,+61.00,+52.00
-38.00,+5.00,+13.00,-15.00,-24.00,-80.00,-45.00,-77.00,-34.00,-36.00,-24.00,-29.00,-70.00,-81.00,-86.00,-67.00
+13.00,+22.00,+10.00,-6.00,+4.00,+28.00,+28.00,+84.00,+18.00,+72.00,+42.00,+3.00,-27.00,+56.00,+49.00,-26.00
-66.00,-36.00,+23.00,+0.00,-26.00,-97.00,-121.00,-128.00,-12.00,+31.00,+20.00,-4.00,+62.00,-43.00,+39.00,+63.00
+48.00,+11.00,+49.00,+23.00,+30.00,+41.00,+70.00,-45.00,+21.00,-32.00,+8.00,+23.00,-110.00,-113.00,-22.00,+3.00
+34.00,-32.00,-73.00,-2.00,+35.00,+58.00,+103.00,+127.00,+7.00,+14.00,+8.00,+12.00,+127.00,+77.00,+12.00,+15.00
-11.00,+29.00,-2.00,+6.00,-9.00,+13.00,-12.00,+15.00,-17.00,-4.00,+21.00,+7.00,+36.00,-40.00,+20.00,-2.00
-14.00,-24.00,-18.00,-7.00,-4.00,+10.00,+28.00,-72.00,+12.00,-65.00,-46.00,-20.00,-48.00,+45.00,-48.00,+19.00
-24.00,-40.00,-13.00,-3.00,-1.00,-32.00,-90.00,-103.00,+8.00,+52.00,+6.00,+34.00,+77.00,-45.00,+88.00,-29.00
-27.00,+5.00,+54.00,+2.00,-1.00,-11.00,+29.00,-44.00,+0.00,+18.00,+9.00,+4.00,-57.00,-107.00,+53.00,+1.00
+96.00,+57.00,+8.00,+7.00,+27.00,+112.00,+74.00,+11.00,+13.00,+62.00,+34.00,+29.00,+80.00,+114.00,-35.00,+16.00
+75.00,-8.00,-10.00,-1.00,-7.00,-24.00,+4.00,-23.00,-12.00,-67.00,+13.00,+15.00,+28.00,+62.00,-1.00,-4.00
-17.00,-19.00,-8.00,-15.00,-20.00,-44.00,+11.00,+83.00,+7.00,-5.00,-5.00,-28.00,-80.00,-60.00,-90.00,+40.00
+22.00,-6.00,-40.00,-2.00,-10.00,-64.00,-48.00,-35.00,-30.00,+20.00,+27.00,-3.00,-53.00,-18.00,+55.00,-66.00
+52.00,+27.00,+53.00,+21.00,+20.00,+60.00,+72.00,+49.00,-1.00,+38.00,-25.00,+6.00,+63.00,+98.00,-8.00,-4.00
+2.00,-4.00,-20.00,+7.00,+12.00,+99.00,+50.00,+44.00,-1.00,-91.00,-32.00,-5.00,+7.00,-128.00,-10.00,-49.00
-60.00,-16.00,-15.00,-13.00,-21.00,-85.00,-30.00,+12.00,-13.00,-2.00,-37.00,-28.00,-2.00,+37.00,+2.00,+75.00
+34.00,+5.00,-48.00,-10.00,-12.00,+0.00,+13.00,+41.00,-4.00,+15.00,+40.00,-10.00,+27.00,+102.00,-38.00,+9.00
-2.00,-5.00,+44.00,+1.00,-9.00,-97.00,-58.00,-95.00,+6.00,-1.00,-17.00,+14.00,-57.00,-82.00,-42.00,-80.00
+36.00,-22.00,-41.00,+10.00,+23.00,+68.00,-1.00,+9.00,+45.00,+64.00,+38.00,+16.00,+35.00,+4.00,+80.00,+3.00
-4.00,+29.00,+4.00,-5.00,-16.00,-37.00,+1.00,+12.00,-33.00,-33.00,-23.00,+10.00,+49.00,-42.00,-3.00,+2.00
+34.00,+39.00,+16.00,-19.00,-5.00,+117.00,-7.00,+113.00,-8.00,-14.00,-21.00,-9.00,+55.00,+84.00,-57.00,-12.00
-54.00,+5.00,+18.00,-4.00,-18.00,-115.00,-96.00,-36.00,+12.00,+2.00,+26.00,+5.00,-70.00,-50.00,-39.00,-26.00
-37.00,-24.00,-16.00,-5.00,-12.00,-19.00,+12.00,-72.00,+10.00,+66.00,+10.00,+25.00,+33.00,+27.00,+9.00,+4.00
+25.00,-34.00,-20.00,-7.00,-10.00,-57.00,-55.00,+69.00,-44.00,-53.00,-60.00,-19.00,-11.00,-23.00,+10.00,-30.00
+61.00,+60.00,+42.00,+27.00,+23.00,-25.00,+38.00,+33.00,+30.00,+75.00,+22.00,+23.00,+70.00,+112.00,+114.00,+107.00
-16.00,-6.00,-7.00,-11.00,-2.00,+81.00,-13.00,-105.00,-5.00,-5.00,-21.00,-48.00,-95.00,-71.00,-94.00,-26.00
+39.00,+0.00,+0.00,-9.00,-27.00,-76.00,-26.00,+127.00,+20.00,+76.00,+8.00,-12.00,-82.00,-64.00,-20.00,+48.00
-16.00,-29.00,-12.00,+3.00,+4.00,+46.00,+39.00,+21.00,+22.00,+44.00,+84.00,+30.00,+25.00,+47.00,-6.00,-39.00
-85.00,-48.00,-48.00,-15.00,-7.00,-29.00,-25.00,-83.00,-43.00,-108.00,-106.00,-45.00,-56.00,-23.00,-61.00,-13.00
+94.00,+68.00,+82.00,+12.00,-1.00,+18.00,-18.00,-9.00,-21.00,-18.00,-7.00,-10.00,+119.00,+106.00,-57.00,-17.00
-25.00,-5.00,-12.00,-5.00,-8.00,-31.00,+9.00,-35.00,-22.00,+25.00,+27.00,+8.00,-79.00,-86.00,+59.00,+51.00
-51.00,-44.00,+4.00,-5.00,-7.00,+23.00,-20.00,-62.00,+14.00,+80.00,+66.00,+38.00,+30.00,+75.00,-37.00,-50.00
+2.00,+33.00,+127.00,+20.00,+16.00,+29.00,+70.00,+111.00,+6.00,-67.00,-26.00,-14.00,-122.00,-67.00,-4.00,-57.00
+65.00,-115.00,-128.00,-6.00,+24.00,+29.00,+27.00,+42.00,+6.00,-89.00,-76.00,-16.00,+56.00,-58.00,+27.00,+85.00
-35.00,+56.00,+27.00,-6.00,-15.00,-6.00,-34.00,-53.00,+4.00,+27.00,+20.00,+29.00,+65.00,+43.00,-79.00,-10.00
-40.00,+10.00,+21.00,-2.00,-20.00,-16.00,-21.00,+62.00,+0.00,-20.00,+18.00,-26.00,+29.00,+101.00,+30.00,-21.00
-17.00,-17.00,+12.00,+1.00,-2.00,+64.00,-4.00,-47.00,+15.00,+23.00,+10.00,+15.00,-48.00,-97.00,+3.00,-43.00
-19.00,-27.00,-48.00,-8.00,+0.00,-6.00,+8.00,+27.00,-7.00,+52.00,+54.00,+4.00,-1.00,+41.00,+64.00,+13.00
+46.00,+2.00,+75.00,+28.00,+29.00,+1.00,-19.00,+12.00,+2.00,-83.00,-68.00,-24.00,+37.00,+74.00,-49.00,+2.00
+88.00,+72.00,-10.00,-4.00,+17.00,+90.00,+71.00,+48.00,+11.00,+127.00,+125.00,+37.00,+13.00,-47.00,+41.00,+12.00
-71.00,-34.00,+25.00,+8.00,-11.00,-42.00,-16.00,-7.00,-31.00,-86.00,-80.00,-67.00,+40.00,+33.00,-128.00,+22.00
-14.00,-35.00,-80.00,-41.00,-40.00,-103.00,-89.00,-85.00,+2.00,+31.00,-24.00,+10.00,+8.00,-90.00,+127.00,+49.00
+10.00,+6.00,+0.00,+17.00,+22.00,+70.00,+89.00,+97.00,-14.00,-8.00,-7.00,+8.00,+127.00,+94.00,-118.00,+7.00
-27.00,-31.00,-11.00,-5.00,-2.00,+1.00,-21.00,-94.00,+37.00,+51.00,-1.00,+10.00,-90.00,-103.00,-96.00,+46.00
-15.00,+47.00,+16.00,+1.00,-18.00,-57.00,-51.00,-77.00,+27.00,+108.00,+94.00,+27.00,+45.00,+60.00,+33.00,+92.00
+7.00,-39.00,+8.00,+6.00,+9.00,+35.00,+47.00,+15.00,-24.00,-83.00,-60.00,-24.00,-128.00,-21.00,-86.00,-99.00
-61.00,+13.00,-24.00,-32.00,-38.00,-68.00,-54.00,+35.00,-40.00,-58.00,-31.00,-25.00,+19.00,+1.00,-25.00,-52.00
+71.00,+57.00,+29.00,+26.00,+41.00,+97.00,+64.00,+27.00,+14.00,-34.00,-23.00,-32.00,-21.00,+6.00,+47.00,+37.00
+22.00,+26.00,-10.00,+4.00,-9.00,-63.00,-11.00,+47.00,+22.00,+21.00,+51.00,+31.00,-63.00,-44.00,-18.00,+17.00
-35.00,+14.00,+96.00,+19.00,+22.00,+27.00,+10.00,-7.00,-42.00,-48.00,-59.00,-44.00,+32.00,+107.00,-82.00,-66.00
-36.00,-100.00,-98.00,-23.00,-8.00,+35.00,+30.00,+46.00,+18.00,+43.00,+25.00,+5.00,-62.00,-92.00,+90.00,-40.00
+12.00,+11.00,+49.00,+4.00,+4.00,-75.00,-5.00,+66.00,-34.00,+11.00,+8.00,+2.00,+63.00,+96.00,-117.00,-82.00
-31.00,+13.00,+1.00,-8.00,-7.00,-12.00,-17.00,-106.00,+7.00,-22.00,+12.00,-21.00,-106.00,-128.00,+70.00,+25.00
-9.00,+45.00,+118.00,+13.00,+14.00,+25.00,+43.00,+40.00,+57.00,-28.00,-22.00,+23.00,+127.00,+127.00,+127.00,+124.00
-52.00,-71.00,-87.00,+1.00,+11.00,+31.00,+0.00,-47.00,-41.00,+13.00,+33.00,-7.00,-62.00,-28.00,-109.00,-102.00
+15.00,-19.00,-48.00,-25.00,-31.00,-128.00,-107.00,-128.00,+17.00,+28.00,-24.00,-5.00,-11.00,+107.00,+38.00,-20.00
-23.00,-7.00,+27.00,+6.00,+15.00,+63.00,+13.00,+45.00,-71.00,-48.00,-2.00,-21.00,+0.00,-83.00,-90.00,-128.00
+30.00,+28.00,+73.00,+4.00,-29.00,-54.00,-61.00,+0.00,+30.00,-30.00,-32.00,+5.00,-6.00,+18.00,+102.00,+62.00
-38.00,-62.00,-52.00,-30.00,+11.00,+74.00,+75.00,-10.00,-6.00,-18.00,-17.00,-9.00,-1.00,+42.00,-29.00,+4.00
-75.00,+39.00,+68.00,+18.00,-2.00,+11.00,-5.00,-26.00,-18.00,+2.00,+4.00,+5.00,+11.00,+4.00,-19.00,-51.00
+56.00,-12.00,-16.00,+11.00,+9.00,+9.00,+21.00,+16.00,+40.00,+69.00,+48.00,+32.00,+114.00,+127.00,+0.00,-2.00
-28.00,-13.00,-32.00,-8.00,-24.00,-103.00,-49.00,-53.00,-8.00,+3.00,+3.00,-26.00,-107.00,-128.00,-112.00,-73.00
+29.00,-31.00,-5.00,-22.00,-16.00,+80.00,+9.00,-73.00,+13.00,-5.00,-10.00,-4.00,+14.00,-87.00,+108.00,+77.00
+12.00,+48.00,-37.00,+11.00,+28.00,+104.00,+91.00,+21.00,+19.00,+42.00,+56.00,+11.00,+42.00,+84.00,+53.00,-10.00
+91.00,+58.00,+21.00,-5.00,-8.00,-22.00,+13.00,+39.00,-25.00,-50.00,-56.00,-6.00,-15.00,-44.00,+49.00,-59.00
-26.00,-16.00,-43.00,-1.00,+3.00,+22.00,+14.00,-55.00,+9.00,+21.00,+27.00,-2.00,-9.00,+31.00,-44.00,-45.00
+16.00,+0.00,+28.00,+7.00,-16.00,-128.00,-54.00,-35.00,-10.00,+79.00,+73.00,+31.00,+46.00,+53.00,+63.00,+83.00
-21.00,-47.00,-23.00,-14.00,+3.00,+73.00,-3.00,-1.00,-68.00,-128.00,-128.00,-79.00,-117.00,-106.00,-87.00,-38.00
+61.00,+26.00,+29.00,+19.00,+25.00,+37.00,+73.00,+115.00,+45.00,+82.00,+49.00,+26.00,-47.00,-59.00,+92.00,-6.00
-75.00,-66.00,-66.00,-27.00,-28.00,+27.00,-42.00,-80.00,-40.00,+56.00,+83.00,+37.00,+14.00,-25.00,-58.00,-58.00
+47.00,+65.00,+36.00,+2.00,+10.00,+16.00,-16.00,+31.00,+42.00,+80.00,+50.00,-9.00,-55.00,+84.00,+32.00,+59.00
-34.00,-4.00,+1.00,-5.00,-15.00,-32.00,-44.00,-28.00,-44.00,-113.00,-20.00,+1.00,+28.00,-102.00,-63.00,-22.00
-117.00,-96.00,-22.00,-24.00,-42.00,-108.00,-113.00,-127.00,-46.00,-61.00,-93.00,-49.00,-35.00,-60.00,-128.00,-75.00
+88.00,+83.00,+27.00,+5.00,+22.00,+55.00,+71.00,+52.00,+27.00,-57.00,-60.00,+3.00,+28.00,-73.00,+43.00,+26.00
+27.00,+111.00,+90.00,+27.00,+31.00,+58.00,+91.00,+88.00,-5.00,+23.00,+9.00,-40.00,-28.00,+30.00,-73.00,-64.00
-24.00,-100.00,-75.00,+3.00,+5.00,+31.00,-5.00,-44.00,+41.00,+62.00,+48.00,+43.00,+73.00,+96.00,+110.00,+73.00
-51.00,-3.00,+78.00,-16.00,-18.00,-67.00,-30.00,-128.00,-6.00,+29.00,+30.00,+18.00,-30.00,-44.00,-91.00,-6.00
-34.00,-88.00,-83.00,-25.00,-10.00,-2.00,-17.00,-114.00,-25.00,+25.00,+47.00,-5.00,-27.00,+49.00,-22.00,-73.00
+109.00,+36.00,-49.00,+23.00,+14.00,-29.00,+4.00,-45.00,+11.00,-44.00,-41.00,+17.00,+58.00,+75.00,+15.00,+37.00
+23.00,+113.00,+92.00,+19.00,+20.00,+54.00,+62.00,+108.00,+18.00,-15.00,-24.00,-18.00,-104.00,-79.00,+90.00,+127.00
-13.00,-54.00,-53.00,-14.00,-18.00,+3.00,-7.00,-1.00,+13.00,-30.00,-19.00,-5.00,+38.00,+80.00,+66.00,-42.00
+19.00,-5.00,+9.00,+9.00,+6.00,-6.00,+32.00,-11.00,-11.00,+65.00,+33.00,+20.00,+8.00,+18.00,+1.00,+14.00
-12.00,-5.00,+23.00,+9.00,+13.00,+43.00,-2.00,-52.00,-6.00,-27.00,-15.00,+4.00,+90.00,+74.00,-56.00,-117.00
-100.00,-66.00,-26.00,-11.00,-23.00,-87.00,-49.00,-47.00,-14.00,+33.00,+25.00,-19.00,-104.00,-53.00,+27.00,-46.00
-53.00,-10.00,-37.00,+5.00,+13.00,-9.00,-4.00,-39.00,+7.00,-89.00,-91.00,-35.00,-16.00,-4.00,+24.00,+127.00
+5.00,+33.00,+21.00,+10.00,+3.00,+27.00,+16.00,-2.00,-1.00,+35.00,+53.00,-1.00,+0.00,+115.00,+33.00,+71.00
-56.00,-2.00,+35.00,+2.00,+5.00,+16.00,-3.00,+61.00,-11.00,+14.00,+3.00,-22.00,-10.00,+39.00,-13.00,-36.00
+113.00,-5.00,-33.00,+2.00,+5.00,+1.00,+38.00,+81.00,+16.00,+117.00,+114.00,+17.00,+49.00,+66.00,-9.00,-33.00
+4.00,+38.00,+75.00,-3.00,-15.00,-7.00,-49.00,-91.00,-66.00,-70.00,-61.00,-32.00,-9.00,-56.00,-95.00,-91.00
+47.00,-53.00,-56.00,+22.00,+17.00,-58.00,-47.00,+71.00,+32.00,+69.00,+81.00,+19.00,+68.00,+64.00,+127.00,+91.00
+27.00,+62.00,+14.00,-15.00,+11.00,-2.00,+24.00,+24.00,-12.00,-30.00,-38.00,-23.00,-124.00,-123.00,-20.00,+16.00
-19.00,-12.00,-19.00,-11.00,-11.00,-67.00,-19.00,-48.00,+27.00,+101.00,+51.00,+6.00,-21.00,+75.00,-15.00,+15.00
-4.00,+4.00,+56.00,+7.00,+3.00,-13.00,-25.00,+19.00,+52.00,+36.00,+41.00,+61.00,+97.00,-21.00,+38.00,-54.00
-72.00,-93.00,-76.00,-26.00,-20.00,-98.00,-8.00,-80.00,-23.00,-108.00,-93.00,-32.00,-1.00,+8.00,+6.00,-3.00
+23.00,+67.00,+100.00,+14.00,-20.00,-32.00,-72.00,+53.00,-7.00,-6.00,+12.00,+42.00,+29.00,-16.00,-31.00,-27.00
+1.00,-26.00,-16.00,+12.00,+14.00,+15.00,+47.00,+73.00,+24.00,-46.00,-54.00,-22.00,+7.00,+49.00,-67.00,-18.00
+36.00,+53.00,+20.00,+5.00,+23.00,+64.00,+32.00,-37.00,+17.00,+51.00,+25.00,+1.00,+48.00,-18.00,-7.00,+97.00
-43.00,-40.00,-13.00,-18.00,-26.00,-32.00,-11.00,+20.00,+10.00,+88.00,+47.00,+30.00,-27.00,-56.00,+10.00,-6.00
+48.00,+43.00,-11.00,+13.00,+29.00,+75.00,+47.00,+97.00,+15.00,-97.00,-22.00,+4.00,+54.00,+31.00,+2.00,+10.00
-63.00,+16.00,+26.00,-11.00,-24.00,-43.00,-24.00,-69.00,-47.00,-41.00,-74.00,-32.00,-71.00,-82.00,-25.00,+14.00
+25.00,-9.00,-22.00,+15.00,+21.00,+55.00,+15.00,+8.00,-1.00,+24.00,+30.00,+2.00,+94.00,+127.00,+124.00,+14.00
+41.00,+37.00,+28.00,+5.00,-8.00,-67.00,+7.00,+112.00,+24.00,-9.00,-15.00,+1.00,-10.00,-31.00,+49.00,+25.00
-25.00,-39.00,-25.00,-3.00,-10.00,+29.00,-4.00,-55.00,-2.00,+3.00,+11.00,+1.00,+9.00,-36.00,+15.00,-56.00
-5.00,-17.00,+13.00,+6.00,+5.00,-2.00,-23.00,-107.00,-2.00,+24.00,+8.00,+14.00,-22.00,-12.00,-2.00,+7.00
+92.00,+20.00,-41.00,-11.00,-5.00,-11.00,-9.00,+62.00,-7.00,+11.00,+71.00,+20.00,+18.00,+22.00,-25.00,+35.00
-35.00,+39.00,+21.00,-3.00,+5.00,+30.00,+26.00,+51.00,-20.00,-94.00,-89.00,-80.00,-94.00,-42.00,+13.00,+34.00
+29.00,-1.00,+16.00,+1.00,-3.00,-32.00,+12.00,-13.00,-12.00,+53.00,+58.00,+6.00,-15.00,+58.00,-5.00,+0.00
-14.00,-19.00,+51.00,+5.00,+0.00,-45.00,-36.00,-105.00,+24.00,-4.00,-1.00,+14.00,+68.00,+39.00,+40.00,+18.00
+14.00,-52.00,-100.00,-15.00,-6.00,+2.00,+36.00,-3.00,+13.00,+58.00,+50.00,+13.00,-46.00,+21.00,-46.00,-9.00
-39.00,+41.00,+95.00,+15.00,+20.00,+34.00,-42.00,-89.00,+2.00,+94.00,+61.00,+20.00,+31.00,+49.00,-30.00,-82.00
+7.00,-68.00,-113.00,-12.00,-7.00,-48.00,-23.00,+7.00,-22.00,-105.00,-73.00,-7.00,-74.00,-128.00,+43.00,+54.00
+10.00,+79.00,+92.00,+4.00,+4.00,+49.00,+19.00,-23.00,+5.00,-37.00,-27.00,+8.00,+38.00,-18.00,+14.00,+0.00
+1.00,-7.00,+6.00,+0.00,+1.00,-32.00,-8.00,+17.00,+7.00,-10.00,-8.00,+1.00,-11.00,+33.00,-19.00,+27.00
-21.00,+21.00,+25.00,+5.00,+8.00,+23.00,+2.00,-65.00,-16.00,-8.00,-1.00,-10.00,+9.00,+23.00,-30.00,-30.00
-33.00,-55.00,+11.00,+0.00,-22.00,-91.00,-28.00,+2.00,+11.00,+37.00,-1.00,+1.00,+17.00,-6.00,-74.00,-4.00
-5.00,-58.00,-45.00,-7.00,+2.00,-31.00,-34.00,-13.00,-6.00,-17.00,-5.00,-4.00,-22.00,-65.00,+2.00,-52.00
+38.00,+75.00,-23.00,-1.00,+22.00,+60.00,+31.00,+45.00,+16.00,-10.00,-10.00,+4.00,-45.00,+51.00,+29.00,+34.00
+32.00,+38.00,+29.00,+14.00,+2.00,+47.00,+32.00,+19.00,-4.00,+13.00,+12.00,+16.00,+54.00,-50.00,-20.00,-17.00
-39.00,-34.00,+3.00,-7.00,-12.00,-25.00,-32.00,-69.00,-1.00,+10.00,+6.00,-4.00,-2.00,+25.00,+25.00,-28.00
-16.00,-13.00,-44.00,-12.00,-23.00,-40.00,-7.00,-32.00,-4.00,-43.00,-29.00,+2.00,+88.00,-40.00,-48.00,+24.00
+19.00,+7.00,+23.00,+12.00,+8.00,+46.00,+17.00,+54.00,-14.00,+40.00,+11.00,-17.00,-75.00,+4.00,-21.00,-28.00
+0.00,+1.00,-8.00,+2.00,+7.00,+15.00,+23.00,+35.00,+3.00,-67.00,-44.00,+0.00,-29.00,-4.00,+39.00,+63.00
-14.00,+8.00,+19.00,+0.00,+1.00,-13.00,-26.00,-41.00,-7.00,+11.00,+7.00,-3.00,+18.00,+22.00,+5.00,-22.00
+56.00,-7.00,-35.00,-4.00,+12.00,+7.00,+16.00,+9.00,+12.00,-1.00,+8.00,+3.00,+9.00,+4.00,+9.00,+22.00
+0.00,-10.00,+6.00,+2.00,-19.00,-16.00,-25.00,-73.00,-20.00,-70.00,-71.00,-16.00,+1.00,+1.00,+7.00,-11.00
+10.00,+34.00,+32.00,+2.00,-15.00,-15.00,+22.00,+18.00,+15.00,+57.00,+53.00,+28.00,+67.00,+75.00,-23.00,-34.00
-43.00,-58.00,-59.00,-8.00,+32.00,+40.00,+0.00,+8.00,+2.00,+3.00,-19.00,-3.00,-57.00,-71.00,+24.00,+14.00
+17.00,+41.00,+18.00,-6.00,-28.00,+1.00,-5.00,-52.00,+7.00,+8.00,+0.00,+6.00,+83.00,+29.00,+14.00,+13.00
+2.00,-25.00,-2.00,-2.00,+1.00,-11.00,-5.00,-29.00,+20.00,+15.00,+15.00,-14.00,-74.00,+2.00,+33.00,+17.00
-35.00,-6.00,+21.00,+2.00,+2.00,+2.00,-12.00,-27.00,-19.00,+27.00,+41.00,+14.00,+72.00,-31.00,-68.00,-7.00
-53.00,+40.00,+39.00,+9.00,-20.00,-32.00,-5.00,-69.00,+2.00,+10.00,-22.00,-20.00,+14.00,+17.00,+10.00,-16.00
+53.00,-34.00,-43.00,-6.00,+2.00,+19.00,-7.00,+62.00,+0.00,-37.00,-27.00,-4.00,-35.00,-6.00,+22.00,+24.00
-15.00,-24.00,-50.00,-9.00,+9.00,+5.00,+18.00,+51.00,-11.00,-5.00,-2.00,+0.00,+25.00,+6.00,-3.00,-17.00
-17.00,+11.00,+4.00,-1.00,-21.00,-75.00,+5.00,-10.00,-13.00,-29.00,-24.00,-34.00,-121.00,-24.00,-39.00,+7.00
-83.00,-24.00,+47.00,-7.00,+0.00,+39.00,-27.00,-66.00,+5.00,+30.00,+20.00,+1.00,-6.00,+4.00,-8.00,-9.00
+34.00,-29.00,-77.00,-7.00,+1.00,+23.00,+55.00,+97.00,-7.00,-1.00,+5.00,+15.00,+13.00,+13.00,+8.00,-18.00
+13.00,-2.00,+24.00,-2.00,-16.00,-61.00,-2.00,+47.00,-6.00,+12.00,+11.00,+11.00,+46.00,+5.00,-30.00,-16.00
+52.00,+57.00,+10.00,+10.00,+29.00,+99.00,+8.00,-2.00,+8.00,-6.00,-5.00,-1.00,+6.00,+25.00,+6.00,+31.00
+34.00,-7.00,+1.00,+1.00,-14.00,-61.00,-22.00,-53.00,-10.00,+21.00,+3.00,-4.00,-24.00,-50.00,-4.00,-10.00
+9.00,+11.00,+14.00,-8.00,+1.00,+4.00,-8.00,+21.00,+0.00,-43.00,-23.00,-7.00,-24.00,-13.00,+27.00,+3.00
-31.00,-21.00,-6.00,+1.00,+1.00,+12.00,-6.00,-34.00,-3.00,+1.00,+0.00,+9.00,+10.00,+19.00,+32.00,+2.00
+18.00,-16.00,-10.00,-6.00,-3.00,-52.00,-14.00,+8.00,-9.00,+25.00,+26.00,+4.00,+12.00,+16.00,-35.00,-30.00
+34.00,+11.00,+1.00,-6.00,-15.00,+9.00,+2.00,+24.00,+8.00,-7.00,-5.00,+3.00,+22.00,-7.00,+22.00,-14.00
-50.00,-17.00,+12.00,+6.00,+7.00,+24.00,-24.00,-35.00,+11.00,+11.00,+12.00,-4.00,-25.00,-7.00,-4.00,-20.00
+1.00,-14.00,-31.00,-6.00,+2.00,+27.00,+40.00,+80.00,-5.00,+0.00,-21.00,-22.00,-4.00,+0.00,-4.00,+12.00
+7.00,+30.00,+22.00,-1.00,+0.00,+7.00,-13.00,-17.00,+0.00,+30.00,+13.00,+7.00,-9.00,-3.00,+9.00,+3.00
+14.00,+10.00,-9.00,+5.00,+16.00,+26.00,+14.00,-11.00,-7.00,-66.00,-20.00,-10.00,-23.00,+21.00,-4.00,+35.00
-15.00,-16.00,+22.00,-7.00,-34.00,-70.00,-52.00,-10.00,-9.00,+35.00,+15.00,+7.00,+7.00,-16.00,-6.00,-4.00
-6.00,+2.00,-10.00,+6.00,+18.00,+54.00,+30.00,+17.00,+10.00,-8.00,+2.00,+10.00,+33.00,-4.00,+7.00,+33.00
+7.00,-23.00,-26.00,-13.00,-3.00,+2.00,+3.00,-19.00,+7.00,+5.00,-9.00,-3.00,-25.00,-9.00,+0.00,+15.00
-18.00,-3.00,-5.00,+7.00,+5.00,-37.00,-13.00,-16.00,-19.00,-7.00,-4.00,-8.00,-11.00,-1.00,-22.00,+9.00
+16.00,+0.00,-15.00,-2.00,+1.00,+18.00,-1.00,+9.00,-7.00,-2.00,+1.00,+0.00,+0.00,+11.00,-6.00,-11.00
+8.00,+30.00,+44.00,-5.00,-11.00,-59.00,-27.00,-27.00,+12.00,+15.00,+22.00,+8.00,+15.00,+22.00,-4.00,-4.00
-28.00,-41.00,-30.00,+0.00,-3.00,+77.00,+28.00,-40.00,+0.00,-8.00,-5.00,+0.00,+3.00,-7.00,-7.00,-6.00
+17.00,+23.00,+23.00,+1.00,+8.00,-14.00,-5.00,-25.00,+0.00,-8.00,-4.00,+9.00,+22.00,-10.00,-1.00,+4.00
+11.00,+3.00,+11.00,+11.00,+10.00,+7.00,+31.00,+68.00,+6.00,+1.00,-3.00,+5.00,-35.00,+23.00,+7.00,+22.00
-38.00,-16.00,-15.00,-4.00,-1.00,+0.00,-7.00,-41.00,-3.00,+3.00,+2.00,-5.00,-15.00,-52.00,-12.00,-32.00
+31.00,+7.00,-3.00,+1.00,+8.00,-15.00,-4.00,+1.00,+13.00,-6.00,+0.00,-3.00,+37.00,+42.00,+33.00,-23.00
+17.00,-8.00,+1.00,-1.00,-11.00,-21.00,+4.00,+12.00,-6.00,-1.00,-6.00,+6.00,-20.00,-50.00,-30.00,-20.00
-54.00,-10.00,-9.00,-4.00,+10.00,+26.00,-5.00,-22.00,-9.00,+15.00,+5.00,-6.00,+3.00,+10.00,+2.00,-48.00
+16.00,+9.00,+5.00,+2.00,-21.00,+8.00,+2.00,+14.00,+5.00,+12.00,+8.00,+11.00,+36.00,+2.00,-3.00,-19.00
+19.00,-6.00,-4.00,-2.00,+16.00,-17.00,-1.00,+51.00,-4.00,-18.00,+1.00,-3.00,-59.00,-21.00,-5.00,-12.00
+0.00,+0.00,-4.00,-6.00,-19.00,-14.00,-8.00,+3.00,+1.00,+7.00,-10.00,-7.00,+19.00,+24.00,-30.00,+16.00
+58.00,+7.00,+13.00,+1.00,+4.00,-7.00,-6.00,-39.00,-7.00,-9.00,-8.00,-3.00,+3.00,-8.00,+3.00,+9.00
-27.00,-2.00,-2.00,-3.00,+3.00,+16.00,-4.00,+2.00,+4.00,-10.00,+1.00,+4.00,-4.00,+7.00,+3.00,+23.00
-9.00,+7.00,-6.00,+5.00,-26.00,-8.00,-2.00,-17.00,-2.00,+31.00,+11.00,-4.00,-5.00,-19.00,+5.00,+2.00
-5.00,-3.00,+6.00,-1.00,+14.00,+50.00,+12.00,-18.00,+6.00,-22.00,-11.00,-4.00,+16.00,+23.00,+8.00,+17.00
-1.00,-4.00,-5.00,-8.00,+1.00,-17.00,-2.00,+9.00,+10.00,-1.00,+3.00,+2.00,+0.00,-13.00,-7.00,-1.00
+16.00,+3.00,-17.00,+1.00,+1.00,-17.00,-11.00,-43.00,-21.00,-5.00,-4.00,-1.00,+1.00,+9.00,+5.00,-7.00
-3.00,+15.00,+27.00,-6.00,+4.00,-18.00,-4.00,+19.00,+6.00,-3.00,-3.00,+23.00,+37.00,-1.00,-1.00,-26.00
-13.00,-17.00,-35.00,-8.00,-14.00,-23.00,+0.00,+28.00,-15.00,-7.00,-3.00,-31.00,-94.00,-3.00,+15.00,+28.00
-12.00,+21.00,+32.00,+4.00,+0.00,+9.00,+0.00,-10.00,+1.00,-11.00,-12.00,+1.00,+22.00,+2.00,-3.00,+18.00
-10.00,+16.00,-7.00,+3.00,+3.00,+7.00,-5.00,-20.00,+2.00,+2.00,+1.00,+6.00,+9.00,-4.00,-9.00,+8.00
+21.00,-1.00,+0.00,+3.00,+11.00,-9.00,+2.00,+19.00,+0.00,-4.00,-8.00,-12.00,-57.00,+1.00,+13.00,-18.00
-20.00,-7.00,+3.00,-3.00,-2.00,-1.00,-2.00,+2.00,+4.00,+8.00,+3.00,+6.00,+36.00,+18.00,+19.00,-5.00
+30.00,-5.00,-6.00,-8.00,-12.00,-33.00,-5.00,+12.00,-5.00,-12.00,+2.00,+11.00,-13.00,-21.00,-6.00,-20.00
-55.00,-2.00,+6.00,-1.00,-10.00,-9.00,-5.00,-26.00,+11.00,+16.00,+3.00,-1.00,+40.00,+9.00,+9.00,+9.00
-68.00,-21.00,-10.00,-1.00,+5.00,-12.00,-15.00,-23.00,-10.00,-11.00,-5.00,+11.00,-20.00,-15.00,-5.00,+13.00
+22.00,+9.00,+7.00,+1.00,-10.00,-9.00,+10.00,+45.00,-7.00,+5.00,+7.00,+3.00,-5.00,+17.00,-5.00,-19.00
-22.00,-9.00,-17.00,-1.00,+8.00,-20.00,-8.00,+13.00,-4.00,-3.00,-1.00,-6.00,-12.00,-1.00,+1.00,-22.00
+17.00,+6.00,+19.00,+6.00,+20.00,+31.00,+3.00,-25.00,+3.00,-10.00,-2.00,-1.00,-10.00,+5.00,+9.00,+9.00
+2.00,-13.00,-17.00,-4.00,-16.00,+37.00,+11.00,-7.00,+11.00,+15.00,+4.00,-1.00,+10.00,+3.00,-10.00,+16.00
-39.00,+6.00,+4.00,+0.00,-3.00,+17.00,-6.00,-8.00,-12.00,-38.00,-16.00,-1.00,+15.00,+0.00,-2.00,+2.00
-4.00,+9.00,+3.00,+4.00,-2.00,-11.00,+11.00,-1.00,-4.00,+8.00,-22.00,-11.00,-24.00,-9.00,-7.00,+23.00
-4.00,-14.00,-9.00,-5.00,+0.00,-18.00,-6.00,+6.00,-9.00,-16.00,-30.00,-20.00,-16.00,-4.00,-6.00,+10.00
-6.00,+1.00,+5.00,+0.00,+2.00,-1.00,-9.00,-20.00,-5.00,+9.00,+11.00,-3.00,+5.00,-7.00,+4.00,+24.00
+18.00,+9.00,+8.00,+0.00,-1.00,-15.00,-1.00,+6.00,-7.00,+13.00,+19.00,+6.00,+6.00,+3.00,-11.00,-16.00
-7.00,-9.00,-13.00,+2.00,-5.00,-6.00,-3.00,-21.00,+11.00,-3.00,-1.00,-6.00,+7.00,-1.00,+7.00,+30.00
+4.00,+26.00,+38.00,+4.00,+0.00,-9.00,-6.00,+5.00,+3.00,+19.00,+12.00,+11.00,-3.00,+6.00,-3.00,+4.00
-25.00,-21.00,-44.00,-10.00,-6.00,+4.00,+1.00,+3.00,-7.00,-17.00,-11.00,-8.00,-9.00,-10.00,+0.00,+5.00
+41.00,-6.00,+8.00,-3.00,+1.00,-2.00,-1.00,-4.00,-4.00,+10.00,+8.00,+9.00,+34.00,+3.00,-11.00,-5.00
-15.00,-8.00,+1.00,+1.00,+2.00,+7.00,-6.00,-24.00,+4.00,-6.00,-3.00,+0.00,-9.00,+3.00,-1.00,-23.00
+11.00,+28.00,+6.00,+3.00,-10.00,+2.00,+11.00,+52.00,-9.00,+0.00,+4.00,-9.00,-38.00,-11.00,-1.00,-10.00
-8.00,+5.00,+8.00,+0.00,+10.00,-3.00,+0.00,-2.00,+1.00,-7.00,-2.00,-2.00,+3.00,-9.00,-9.00,-11.00
-6.00,-10.00,-13.00,-1.00,-3.00,+3.00,+4.00,+16.00,-6.00,-15.00,-11.00,-21.00,-8.00,-8.00,+29.00,+53.00
-3.00,-9.00,-2.00,-3.00,+10.00,+12.00,-5.00,-25.00,+5.00,-1.00,+2.00,+6.00,+21.00,+19.00,+2.00,+7.00
-7.00,-25.00,-12.00,-6.00,-23.00,-25.00,-4.00,-5.00,-7.00,-2.00,+4.00,+2.00,-18.00,-16.00,-3.00,+9.00
-8.00,+11.00,+10.00,+5.00,-3.00,+0.00,-7.00,+6.00,+0.00,-12.00,-13.00,-5.00,+12.00,+1.00,+2.00,+3.00
+2.00,-6.00,-7.00,+0.00,+15.00,+6.00,+1.00,+6.00,-7.00,+14.00,+5.00,+7.00,-7.00,-6.00,-10.00,-6.00
+4.00,-1.00,-7.00,-1.00,+23.00,+17.00,+9.00,+12.00,-3.00,-6.00,+6.00,-4.00,-25.00,+12.00,+5.00,+22.00
-41.00,-28.00,-9.00,-5.00,-37.00,-1.00,-13.00,-22.00,+5.00,-4.00,-8.00,-3.00,+17.00,+7.00,+7.00,+0.00
+9.00,+3.00,+3.00,+4.00,+8.00,+8.00,+5.00,-15.00,+6.00,-7.00,+3.00,-2.00,+0.00,+3.00,-4.00,+9.00
+15.00,+7.00,+3.00,+3.00,+5.00,+19.00,+9.00,+7.00,+55.00,+14.00,-11.00,-4.00,-5.00,-5.00,-1.00,+6.00
-19.00,+10.00,+8.00,+2.00,-9.00,-27.00,-9.00,-3.00,-29.00,-40.00,-8.00,+3.00,+17.00,-5.00,-3.00,+2.00
+19.00,+8.00,+15.00,+1.00,+3.00,+8.00,+3.00,-2.00,-3.00,+44.00,+19.00,-20.00,-19.00,+2.00,-2.00,-20.00
+2.00,-11.00,-21.00,-3.00,+2.00,-1.00,-8.00,-14.00,-9.00,-9.00,+1.00,-5.00,-2.00,-7.00,-4.00,-11.00
-23.00,-9.00,+4.00,-2.00,-7.00,-6.00,-6.00,-19.00,-7.00,+0.00,-4.00,+0.00,+7.00,+5.00,-8.00,-20.00
-17.00,-20.00,-23.00,-4.00,-2.00,-1.00,-3.00,-9.00,+6.00,-3.00,-9.00,+0.00,-16.00,-16.00,-2.00,+5.00
-12.00,-54.00,+1.00,-5.00,+23.00,-10.00,-9.00,-9.00,-4.00,-19.00,-4.00,+7.00,+4.00,+7.00,+0.00,-9.00
+46.00,+97.00,+15.00,+1.00,-28.00,+0.00,+8.00,+13.00,+1.00,+9.00,-2.00,-13.00,-8.00,-5.00,+1.00,+10.00
+1.00,-4.00,+2.00,+6.00,+15.00,-7.00,+0.00,-1.00,+9.00,+19.00,+12.00,+3.00,+35.00,+2.00,-6.00,-15.00
+2.00,-2.00,-8.00,-9.00,-14.00,+8.00,-1.00,+5.00,-16.00,-6.00,-5.00,-10.00,-21.00,-13.00,-1.00,+6.00
+16.00,-5.00,-1.00,-4.00,+5.00,-8.00,-3.00,-12.00,-11.00,-7.00,+0.00,+0.00,+6.00,+0.00,-7.00,-10.00
+0.00,-47.00,-5.00,-3.00,+5.00,+22.00,-3.00,+1.00,+16.00,-2.00,-2.00,+2.00,-15.00,+2.00,+5.00,+14.00
-17.00,+10.00,-3.00,-2.00,-4.00,-8.00,-6.00,-7.00,-20.00,-16.00,-6.00,+1.00,+12.00,-4.00,-1.00,+1.00
+1.00,-2.00,+4.00,-1.00,-17.00,-17.00,-2.00,-9.00,+5.00,-7.00,+1.00,+4.00,+6.00,+0.00,-3.00,+0.00
+17.00,-7.00,-13.00,+4.00,+13.00,+37.00,+5.00,+0.00,+11.00,+15.00,+9.00,-6.00,-12.00,-2.00,+3.00,-4.00
-5.00,-6.00,+6.00,-4.00,+3.00,-2.00,+2.00,-8.00,-22.00,+7.00,+3.00,+4.00,+11.00,+1.00,-2.00,-2.00
-9.00,+5.00,-5.00,-1.00,-8.00,-1.00,-5.00,+5.00,-6.00,-4.00,-10.00,-7.00,-9.00,+2.00,+3.00,-8.00
+0.00,-11.00,+2.00,-2.00,+14.00,+12.00,-8.00,-29.00,+18.00,-3.00,-3.00,-4.00,+0.00,-8.00,-6.00,-2.00
-15.00,-2.00,-8.00,-3.00,-11.00,+0.00,-2.00,-8.00,-18.00,-3.00,+1.00,+2.00,-6.00,-7.00,-2.00,-4.00
+15.00,+3.00,+3.00,-2.00,+0.00,-7.00,+2.00,+16.00,+24.00,+29.00,+16.00,+13.00,+8.00,+3.00,+2.00,-4.00
-21.00,-18.00,-5.00,-4.00,+0.00,+5.00,-3.00,-11.00,-1.00,+4.00,+20.00,+3.00,-15.00,+2.00,-3.00,-23.00
+32.00,+4.00,-12.00,+3.00,+1.00,-3.00,+6.00,+17.00,-11.00,+7.00,+4.00,+5.00,+17.00,+1.00,+5.00,+19.00
-33.00,+12.00,-4.00,-5.00,+1.00,-10.00,-4.00,+0.00,+6.00,-19.00,-21.00,-19.00,-20.00,-6.00,-5.00,-1.00
-1.00,-13.00,-6.00,-4.00,+2.00,-6.00,-1.00,+2.00,-2.00,+14.00,+6.00,-4.00,+0.00,+2.00,-1.00,-6.00
+2.00,-19.00,+2.00,-4.00,-12.00,-6.00,-5.00,-6.00,+0.00,-6.00,+2.00,+10.00,-2.00,-1.00,-1.00,-1.00
+13.00,-19.00,+2.00,+4.00,+8.00,-1.00,+1.00,+11.00,+7.00,+4.00,-3.00,-21.00,-1.00,-5.00,-5.00,-19.00
+35.00,+37.00,-7.00,-1.00,+2.00,+0.00,+4.00,-8.00,+3.00,+5.00,+4.00,+24.00,+16.00,+2.00,+2.00,-1.00
-7.00,+14.00,+12.00,+4.00,-8.00,+3.00,+5.00,+27.00,-13.00,-16.00,-12.00,-6.00,-10.00,-5.00,-9.00,-2.00
+8.00,+3.00,+5.00,-2.00,+0.00,-5.00,-3.00,-1.00,+10.00,+0.00,-2.00,+6.00,+4.00,-11.00,-5.00,-1.00
-13.00,+2.00,+4.00,+0.00,-8.00,+8.00,+6.00,+5.00,-1.00,+10.00,+3.00,-9.00,-6.00,+8.00,-2.00,-1.00
-6.00,-13.00,-7.00,+2.00,+3.00,-5.00,-5.00,-19.00,+5.00,+1.00,+2.00,+7.00,+26.00,+0.00,-6.00,-4.00
-19.00,-17.00,-3.00,+1.00,-2.00,-11.00,-3.00,+7.00,-13.00,-22.00,-4.00,-4.00,-34.00,-6.00,+2.00,-22.00
+32.00,+18.00,+1.00,+0.00,-4.00,+2.00,+0.00,-2.00,-3.00,-3.00,-7.00,+2.00,+24.00,+3.00,+0.00,-7.00
-24.00,-6.00,+6.00,-1.00,+4.00,+2.00,-6.00,+0.00,+0.00,-4.00,-1.00,+0.00,-16.00,-7.00,-1.00,+14.00
+42.00,+3.00,+3.00,+1.00,-2.00,+6.00,+2.00,+9.00,-1.00,+16.00,+3.00,-2.00,+5.00,+7.00,+0.00,-7.00
-13.00,-3.00,-1.00,+0.00,+4.00,-15.00,-2.00,-3.00,-5.00,-19.00,-3.00,+2.00,+8.00,-4.00,-4.00,-5.00
+11.00,+2.00,-1.00,+1.00,+3.00,+34.00,+1.00,-9.00,-6.00,-1.00,-6.00,-6.00,-6.00,+4.00,-1.00,-2.00
-28.00,-6.00,+8.00,-1.00,+2.00,+0.00,-4.00,+2.00,-9.00,-12.00,-10.00,+1.00,+5.00,-4.00,-4.00,-6.00
-12.00,+5.00,-9.00,-1.00,-3.00,-12.00,+2.00,+22.00,-6.00,+0.00,-9.00,-7.00,-6.00,+0.00,+3.00,+4.00
+15.00,+2.00,+3.00,-5.00,-4.00,+6.00,+0.00,+1.00,-12.00,-14.00,-7.00,+7.00,+16.00,+3.00,+4.00,+15.00
-5.00,+0.00,-11.00,+2.00,+7.00,-9.00,+0.00,+0.00,+8.00,+19.00,+8.00,-2.00,+0.00,-6.00,-4.00,-1.00
+40.00,+20.00,+4.00,-6.00,-6.00,+0.00,+1.00,-1.00,-5.00,-9.00,+2.00,+7.00,-17.00,+0.00,-4.00,-16.00
-30.00,-7.00,-8.00,+1.00,+0.00,-5.00,-1.00,+0.00,+3.00,-5.00,-2.00,-3.00,+7.00,-2.00,+3.00,+7.00
+5.00,-3.00,+8.00,-1.00,+2.00,-4.00,-5.00,-10.00,-21.00,-15.00,-10.00,-9.00,-12.00,-5.00,+3.00,+8.00
-51.00,-15.00,-6.00,+0.00,+3.00,-4.00,+1.00,+5.00,-4.00,-3.00,-2.00,-3.00,-6.00,+4.00,+3.00,+12.00
+10.00,-9.00,-8.00,+2.00,-21.00,-8.00,+3.00,+5.00,+7.00,+7.00,+3.00,+7.00,+21.00,-5.00,+0.00,+1.00
+4.00,+5.00,+1.00,-3.00,-2.00,-9.00,-1.00,+5.00,-6.00,-9.00,-6.00,-21.00,-32.00,-17.00,-11.00,-16.00
+15.00,-14.00,-2.00,+0.00,+6.00,+9.00,-5.00,-10.00,+7.00,+5.00,+3.00,-3.00,+11.00,+26.00,-1.00,-3.00
-9.00,+13.00,+6.00,+3.00,-9.00,-15.00,+3.00,+3.00,-3.00,-10.00,-9.00,-4.00,-9.00,+4.00,+6.00,+23.00
-47.00,-1.00,-2.00,-3.00,-8.00,+3.00,-3.00,-12.00,-3.00,+8.00,+1.00,-3.00,-2.00,-3.00,+0.00,-5.00
-7.00,-12.00,+3.00,+2.00,+1.00,-6.00,-3.00,-8.00,+6.00,-1.00,+7.00,+17.00,+12.00,+4.00,+3.00,+14.00
-13.00,-5.00,-6.00,-3.00,-10.00,+5.00,-1.00,-4.00,-4.00,-2.00,-2.00,-5.00,+6.00,-8.00,-4.00,-4.00
+11.00,-5.00,+1.00,+0.00,+19.00,+3.00,+2.00,-5.00,+6.00,-5.00,-3.00,-2.00,-12.00,-1.00,-4.00,-6.00
+4.00,+5.00,+2.00,+4.00,-7.00,-2.00,+3.00,+8.00,-6.00,+13.00,+14.00,+5.00,+12.00,+2.00,-1.00,-7.00
+3.00,-8.00,+0.00,-5.00,-1.00,-11.00,-6.00,-7.00,+4.00,-24.00,-22.00,-8.00,+5.00,+3.00,+0.00,+16.00
-14.00,+2.00,-1.00,+2.00,+4.00,+9.00,-3.00,-3.00,+7.00,+11.00,+0.00,+6.00,+1.00,-6.00,-1.00,+0.00
+41.00,+14.00,+2.00,-1.00,+12.00,+2.00,+3.00,+9.00,-5.00,-11.00,+4.00,+6.00,+6.00,-7.00,-2.00,-20.00
+1.00,-10.00,-5.00,+1.00,-12.00,-2.00,-4.00,-6.00,+4.00,+8.00,+4.00,-4.00,+12.00,+5.00,+3.00,+10.00
+21.00,+13.00,+21.00,+1.00,+5.00,+2.00,-2.00,-3.00,+26.00,+36.00,+16.00,+10.00,-9.00,+0.00,+1.00,-2.00
-32.00,-15.00,-26.00,-4.00,-3.00,-7.00,-1.00,-14.00,-2.00,-3.00,-1.00,+1.00,-3.00,-4.00,-3.00,-6.00
+13.00,-7.00,+4.00,-7.00,-4.00,-1.00,-4.00,+1.00,-4.00,+1.00,-3.00,-5.00,-7.00,-3.00,+3.00,+5.00
+12.00,+13.00,+2.00,+2.00,+2.00,+3.00,+2.00,-2.00,+14.00,+3.00,+0.00,+12.00,+8.00,-10.00,-2.00,-2.00
+10.00,-16.00,-3.00,+2.00,-4.00,+0.00,-4.00,+7.00,+3.00,+7.00,+4.00,-19.00,-17.00,+12.00,-1.00,+2.00
-19.00,+25.00,+13.00,+4.00,+5.00,-3.00,+3.00,+7.00,-12.00,-8.00,-6.00,+7.00,+11.00,+2.00,-2.00,-18.00
-7.00,-11.00,-1.00,+0.00,-7.00,+2.00,+0.00,-3.00,-13.00,-19.00,-2.00,-9.00,+14.00,+6.00,-1.00,-5.00
-4.00,-9.00,-7.00,-2.00,+3.00,-7.00,-4.00,-12.00,+11.00,+15.00,-3.00,+9.00,-34.00,+1.00,+3.00,+2.00
-25.00,-15.00,-5.00,-4.00,-1.00,+12.00,+3.00,+21.00,-7.00,-15.00,-2.00,-5.00,+8.00,-6.00,-2.00,-5.00
+27.00,-13.00,-3.00,-1.00,-2.00,-3.00,-8.00,-6.00,+9.00,+5.00,-3.00,-12.00,-10.00,-7.00,-2.00,+5.00
-9.00,+21.00,+0.00,-2.00,-14.00,-7.00,+0.00,-2.00,-5.00,+0.00,+0.00,-4.00,-7.00,+0.00,+1.00,+13.00
+10.00,+4.00,+5.00,+0.00,+5.00,+9.00,+4.00,+10.00,-10.00,-5.00,-5.00,-3.00,+9.00,+2.00,-3.00,-6.00
-6.00,+8.00,-9.00,-2.00,-8.00,-7.00,+0.00,-6.00,-11.00,-8.00,-3.00,+5.00,+3.00,-4.00,+2.00,+7.00
+6.00,-10.00,-2.00,+1.00,+2.00,+5.00,-6.00,-4.00,+0.00,-7.00,+6.00,+1.00,-9.00,+0.00,+2.00,+4.00
+2.00,+2.00,-1.00,+0.00,-5.00,-2.00,+5.00,+5.00,-22.00,-12.00,+8.00,+4.00,-5.00,-2.00,-2.00,+1.00
-16.00,-4.00,+3.00,+1.00,+9.00,+1.00,-5.00,+2.00,+13.00,+0.00,-18.00,-17.00,-7.00,-3.00,-2.00,+4.00
+21.00,-1.00,+1.00,-1.00,-2.00,+0.00,-3.00,-19.00,-3.00,+1.00,+3.00,+4.00,+13.00,+4.00,+1.00,-7.00
+12.00,+2.00,-2.00,-2.00,-2.00,-5.00,+1.00,+5.00,-5.00,-11.00,-9.00,-5.00,-16.00,-6.00,+0.00,-7.00
-77.00,-26.00,-11.00,-5.00,-3.00,-7.00,-11.00,-17.00,+26.00,+7.00,+3.00,+3.00,-2.00,+3.00,-1.00,+2.00
+15.00,+14.00,+7.00,-2.00,+1.00,-1.00,+1.00,-3.00,-3.00,-3.00,+7.00,-3.00,-3.00,-6.00,-4.00,-7.00
-12.00,+2.00,+12.00,-1.00,+4.00,-1.00,+1.00,+0.00,-9.00,-7.00,+0.00,+5.00,+4.00,+11.00,+0.00,+1.00
-18.00,+0.00,-7.00,+2.00,-4.00,+1.00,+4.00,+9.00,-1.00,+25.00,+11.00,+5.00,+8.00,+1.00,-3.00,-9.00
+21.00,+0.00,-11.00,-1.00,-5.00,-9.00,+0.00,-3.00,+2.00,+1.00,-7.00,-10.00,-3.00,-4.00,-3.00,-6.00
-5.00,-8.00,-3.00,-9.00,+1.00,+4.00,+0.00,+8.00,-14.00,-16.00,-9.00,-13.00,-35.00,-4.00,-3.00,-13.00
-9.00,+0.00,-9.00,+2.00,+1.00,+1.00,+5.00,+12.00,-2.00,-11.00,-5.00,+0.00,+5.00,-4.00,+4.00,+16.00
+17.00,+8.00,+12.00,+2.00,+3.00,-6.00,+1.00,+2.00,+1.00,-9.00,-11.00,-12.00,-26.00,-7.00,-1.00,+4.00
-16.00,-7.00,-2.00,+0.00,-9.00,-2.00,-2.00,-3.00,-3.00,+10.00,+1.00,+3.00,-3.00,-8.00,+2.00,-6.00
+3.00,-5.00,-6.00,+5.00,+7.00,+4.00,-6.00,-13.00,-15.00,-18.00,-7.00,-7.00,+15.00,+18.00,+2.00,+6.00
+19.00,-3.00,-1.00,-4.00,-1.00,+0.00,+3.00,+1.00,-2.00,+3.00,+2.00,+10.00,+3.00,+0.00,-1.00,-5.00
-27.00,-11.00,-6.00,-4.00,+11.00,-1.00,+6.00,+18.00,+6.00,+14.00,-1.00,-8.00,+4.00,-6.00,-5.00,-7.00
+8.00,+1.00,+1.00,-5.00,-1.00,+2.00,-3.00,-5.00,-2.00,+5.00,-5.00,+2.00,-5.00,+1.00,-3.00,+0.00
-22.00,+1.00,+5.00,+0.00,-9.00,-7.00,-4.00,-9.00,+0.00,+3.00,+6.00,-3.00,+1.00,-5.00,-2.00,-13.00
-23.00,+11.00,+0.00,+0.00,+7.00,+3.00,-1.00,-10.00,-6.00,-16.00,-9.00,-4.00,-3.00,-1.00,-2.00,+2.00
-1.00,+4.00,+0.00,+0.00,-3.00,-7.00,-4.00,-6.00,-4.00,-15.00,-14.00,+1.00,+7.00,+4.00,-3.00,-3.00
+15.00,+2.00,+3.00,-2.00,+2.00,+11.00,+1.00,+11.00,+6.00,+1.00,-1.00,-3.00,-1.00,-4.00,-3.00,-8.00
+24.00,+12.00,+2.00,+1.00,+2.00,-3.00,+5.00,+13.00,-18.00,-10.00,+2.00,+2.00,+3.00,-2.00,-2.00,+2.00
+10.00,-8.00,-7.00,-1.00,-8.00,-2.00,-2.00,-6.00,-1.00,-1.00,+1.00,-2.00,+0.00,-1.00,-6.00,-29.00
-3.00,-7.00,-7.00,-4.00,-2.00,-7.00,-3.00,+6.00,+17.00,+7.00,-4.00,+3.00,+6.00,-5.00,-3.00,+5.00
-20.00,+5.00,+8.00,-1.00,-1.00,-4.00,-1.00,+6.00,-15.00,-7.00,-9.00,-5.00,-12.00,+4.00,+7.00,+3.00
+1.00,+4.00,+0.00,+1.00,-1.00,-1.00,-2.00,+6.00,-13.00,-3.00,-1.00,+3.00,+3.00,-5.00,-4.00,-6.00
-5.00,-8.00,-7.00,+0.00,-3.00,+2.00,-3.00,+0.00,+28.00,+14.00,+4.00,+2.00,-1.00,+9.00,+2.00,+7.00
+13.00,-11.00,-2.00,-2.00,-1.00,+1.00,+0.00,-5.00,+9.00,+7.00,+9.00,+5.00,-8.00,+0.00,+0.00,-4.00
-14.00,+1.00,+4.00,+2.00,+2.00,-1.00,+2.00,+11.00,-2.00,-1.00,+2.00,-1.00,-2.00,-1.00,-5.00,-3.00
+27.00,+8.00,-1.00,+1.00,+7.00,+2.00,+3.00,+9.00,+1.00,+0.00,-3.00,+1.00,+6.00,-1.00,-1.00,-7.00
-40.00,-8.00,-5.00,-6.00,-11.00,-5.00,+0.00,+14.00,-11.00,-13.00,-4.00,-4.00,-23.00,-19.00,+5.00,+9.00
+15.00,-21.00,-5.00,-2.00,+0.00,+2.00,-3.00,-10.00,-32.00,-11.00,+1.00,-4.00,-1.00,+5.00,-6.00,-4.00
-5.00,+4.00,+0.00,+1.00,+1.00,-5.00,+4.00,+2.00,+11.00,+6.00,+0.00,+0.00,-2.00,+5.00,+0.00,+8.00
+20.00,+18.00,+6.00,+1.00,-3.00,-4.00,+2.00,+2.00,+14.00,-2.00,-5.00,+0.00,+3.00,-5.00,-2.00,+1.00
+10.00,+0.00,+3.00,-1.00,+4.00,+2.00,-2.00,-4.00,-18.00,-6.00,+0.00,-2.00,+7.00,-4.00,-6.00,-20.00
-20.00,-19.00,-9.00,-3.00,+1.00,-2.00,-1.00,-6.00,+18.00,+8.00,+2.00,-3.00,+1.00,+3.00,+2.00,+9.00
+0.00,-37.00,-15.00,-6.00,-10.00,-13.00,-11.00,-8.00,-9.00,+6.00,-6.00,-1.00,-3.00,-8.00,-7.00,-8.00
+11.00,+76.00,+25.00,+8.00,+5.00,+12.00,+14.00,-1.00,+12.00,-3.00,+2.00,-6.00,-1.00,-1.00,+3.00,+8.00
+0.00,-27.00,-7.00,-3.00,+11.00,+4.00,+0.00,-1.00,-1.00,-2.00,-7.00,+0.00,+0.00,+4.00,+0.00,-6.00
+6.00,+17.00,-2.00,-7.00,-19.00,-4.00,+1.00,-5.00,-2.00,-5.00,+1.00,+1.00,+3.00,+1.00,+2.00,+5.00
+28.00,+0.00,+5.00,+4.00,-3.00,-3.00,-4.00,-9.00,+6.00,+10.00,+11.00,+4.00,+18.00,+1.00,-3.00,-7.00
-46.00,-27.00,-7.00,-5.00,+2.00,-8.00,-9.00,-12.00,-10.00,-15.00,-18.00,-5.00,-5.00,-2.00,+2.00,-1.00
+0.00,+9.00,-3.00,+0.00,-2.00,+0.00,+3.00,-4.00,+5.00,+1.00,+5.00,+3.00,+0.00,+1.00,-1.00,+0.00
-3.00,-9.00,+4.00,-1.00,+2.00,+1.00,+2.00,-1.00,+5.00,-4.00,+1.00,+11.00,+7.00,-5.00,-1.00,+10.00
-9.00,+3.00,-1.00,+0.00,+5.00,+2.00,-1.00,-5.00,+11.00,+15.00,+8.00,-10.00,-10.00,-2.00,-2.00,-4.00
+22.00,-19.00,-13.00,-2.00,-1.00,-6.00,-4.00,-3.00,+0.00,+4.00,+6.00,+4.00,+3.00,+2.00,+1.00,+3.00
+23.00,+8.00,+0.00,-2.00,-9.00,-2.00,+2.00,+0.00,-4.00,-4.00,-4.00,-7.00,-4.00,-15.00,-3.00,+4.00
-19.00,+9.00,+7.00,+0.00,-4.00,-6.00,-2.00,+7.00,-12.00,-1.00,-1.00,+1.00,+6.00,+6.00,+2.00,-5.00
+15.00,+12.00,-5.00,-2.00,+7.00,+7.00,+2.00,+0.00,-6.00,-4.00,-2.00,+3.00,+0.00,+1.00,-1.00,+1.00
-11.00,-22.00,+2.00,-3.00,-13.00,-2.00,-2.00,-2.00,-4.00,-1.00,-3.00,-3.00,+1.00,+2.00,-5.00,-8.00
+3.00,-4.00,-5.00,+3.00,+7.00,-1.00,-4.00,-1.00,-27.00,-19.00,-10.00,-1.00,+4.00,+1.00,-2.00,-4.00
+12.00,+6.00,+2.00,-2.00,+10.00,+3.00,+1.00,+8.00,-16.00,-7.00,-4.00,-12.00,-7.00,-8.00,+0.00,+16.00
