+6.00,-1.00,-1.00,-3.00,-1.00,-1.00,+1.00,+5.00,+0.00,+2.00,+2.00,+0.00,-1.00,-1.00,+0.00,-2.00
-5.00,-5.00,+0.00,-2.00,-1.00,-2.00,-2.00,+2.00,+2.00,+8.00,+6.00,-1.00,+1.00,-1.00,-2.00,-6.00
-2.00,-4.00,-3.00,-1.00,-1.00,-1.00,+0.00,-3.00,+0.00,-11.00,-6.00,+0.00,+0.00,+0.00,+2.00,+0.00
-11.00,+1.00,+0.00,+1.00,-1.00,+0.00,+0.00,+1.00,+0.00,-1.00,-3.00,-2.00,-3.00,-2.00,-2.00,+0.00
-6.00,+0.00,-5.00,-2.00,-4.00,-1.00,-2.00,-2.00,-2.00,-1.00,-1.00,+0.00,-2.00,-3.00,-1.00,-3.00
+6.00,-1.00,-2.00,-2.00,-2.00,-1.00,-2.00,-5.00,+0.00,+1.00,-3.00,-3.00,-3.00,-2.00,-2.00,-3.00
-16.00,+4.00,-2.00,+1.00,+1.00,+0.00,+1.00,-1.00,+2.00,+11.00,+4.00,+2.00,+1.00,+0.00,+0.00,-1.00
-5.00,-2.00,+0.00,-1.00,+0.00,-2.00,+0.00,-2.00,+0.00,+1.00,+1.00,+1.00,+3.00,+0.00,-1.00,-2.00
-7.00,-1.00,-1.00,-3.00,-1.00,+0.00,+0.00,+1.00,-2.00,-3.00,-3.00,+1.00,+2.00,+0.00,-3.00,-2.00
+3.00,-4.00,+0.00,+2.00,+0.00,+1.00,+0.00,-4.00,+4.00,+0.00,+3.00,+3.00,+2.00,+0.00,+0.00,+0.00
+3.00,-4.00,-3.00,-3.00,-4.00,-1.00,-1.00,+0.00,+7.00,+1.00,+1.00,-4.00,-11.00,-2.00,-2.00,-1.00
+0.00,-5.00,+0.00,+0.00,-1.00,+1.00,-1.00,-5.00,+6.00,-2.00,-7.00,-8.00,-6.00,-4.00,-5.00,+2.00
-5.00,+5.00,+5.00,+1.00,+0.00,+1.00,-2.00,-3.00,-13.00,-6.00,+4.00,+18.00,+14.00,+0.00,+1.00,-2.00
-9.00,+2.00,+1.00,+1.00,+0.00,-4.00,-1.00,-2.00,-11.00,-14.00,-4.00,-19.00,-13.00,+0.00,-2.00,-5.00
-2.00,-7.00,-3.00,-1.00,+2.00,-1.00,-2.00,-2.00,-9.00,-7.00,+1.00,+1.00,-4.00,-2.00,-2.00,-4.00
+1.00,-2.00,-1.00,-2.00,+1.00,-1.00,-1.00,-1.00,-7.00,+0.00,-4.00,-5.00,-6.00,-4.00,-3.00,-4.00
-3.00,-6.00,-1.00,-1.00,-3.00,-1.00,+0.00,-4.00,+7.00,+5.00,-2.00,-10.00,-8.00,-2.00,-2.00,+0.00
-1.00,+1.00,-2.00,-3.00,-7.00,-2.00,+1.00,-2.00,+2.00,+22.00,+3.00,+8.00,+9.00,-1.00,+0.00,+2.00
+5.00,-2.00,+0.00,+1.00,-3.00,-3.00,+0.00,+1.00,-31.00,-10.00,-3.00,+4.00,+2.00,-1.00,-1.00,-5.00
+5.00,+21.00,+1.00,+0.00,-2.00,+12.00,+2.00,-1.00,+27.00,+1.00,+2.00,+1.00,+4.00,+1.00,+1.00,+4.00
-21.00,-37.00,-14.00,-3.00,+4.00,-1.00,-3.00,-4.00,-1.00,+0.00,+1.00,+2.00,-7.00,+0.00,+0.00,+1.00
+24.00,+33.00,+5.00,-5.00,+0.00,-7.00,+0.00,+4.00,-2.00,-9.00,-3.00,+4.00,+12.00,+0.00,-2.00,-2.00
+4.00,-1.00,+6.00,-1.00,-1.00,-1.00,+0.00,+2.00,-7.00,+7.00,+0.00,-6.00,-21.00,-3.00,-2.00,-2.00
-4.00,-2.00,-4.00,-6.00,-7.00,-13.00,-2.00,-3.00,+5.00,-4.00,-1.00,+3.00,+2.00,+0.00,-2.00,-3.00
+3.00,+13.00,+7.00,+5.00,+2.00,+7.00,+0.00,+0.00,-2.00,+0.00,-3.00,-12.00,-13.00,-2.00,-1.00,+3.00
-14.00,-15.00,-11.00,-1.00,+4.00,+7.00,-3.00,-3.00,-6.00,-1.00,-5.00,-4.00,-1.00,-3.00,-1.00,-1.00
-6.00,-14.00,-9.00,-4.00,-11.00,-13.00,-3.00,-3.00,-1.00,-1.00,-3.00,-2.00,+6.00,-4.00,-2.00,-3.00
-8.00,-51.00,-10.00,-5.00,+2.00,+0.00,-3.00,-3.00,-7.00,-6.00,+1.00,+9.00,+6.00,-4.00,-1.00,+1.00
+15.00,+74.00,+14.00,-2.00,+3.00,-3.00,+0.00,+4.00,+4.00,+3.00,+1.00,+1.00,+11.00,+15.00,+2.00,-3.00
-6.00,-17.00,-2.00,+2.00,-4.00,+0.00,-2.00,-5.00,-6.00,-6.00,+1.00,+0.00,-1.00,-3.00,-3.00,-6.00
+6.00,+16.00,-1.00,+1.00,-3.00,-2.00,+0.00,+2.00,+4.00,-4.00,-3.00,-10.00,-3.00,+2.00,+3.00,+5.00
-9.00,-5.00,+2.00,+3.00,+7.00,+9.00,+1.00,-2.00,-6.00,+2.00,-5.00,-5.00,-15.00,+0.00,-2.00,-3.00
+2.00,+1.00,+4.00,+0.00,+1.00,-1.00,+1.00,-1.00,-6.00,-3.00,-1.00,+1.00,-1.00,-6.00,+0.00,-6.00
-6.00,-14.00,-4.00,-4.00,-2.00,+0.00,-1.00,-2.00,-26.00,-18.00,+2.00,-1.00,-9.00,-3.00,-1.00,-5.00
+0.00,+9.00,+0.00,+1.00,+0.00,+4.00,-1.00,-1.00,+21.00,+3.00,-2.00,-6.00,+6.00,+2.00,-2.00,+4.00
-1.00,-12.00,-9.00,-2.00,-2.00,-6.00,-4.00,-4.00,+1.00,+2.00,+0.00,+1.00,+2.00,-6.00,+1.00,+2.00
+4.00,+0.00,+1.00,+0.00,-7.00,-2.00,+0.00,+3.00,-3.00,+0.00,-5.00,-5.00,-3.00,-6.00,-5.00,+0.00
+4.00,+12.00,+8.00,+0.00,-5.00,+0.00,-3.00,+1.00,+11.00,+5.00,+7.00,+4.00,+2.00,+2.00,+1.00,-2.00
-7.00,-35.00,-8.00,-7.00,+11.00,+8.00,-3.00,-4.00,-15.00,-6.00,-2.00,+1.00,+3.00,-2.00,-3.00,-6.00
+3.00,+46.00,+6.00,+0.00,-19.00,-15.00,-1.00,-1.00,-17.00,-11.00,-5.00,-4.00,-2.00,+1.00,-1.00,-2.00
-5.00,-16.00,-15.00,-9.00,+1.00,+1.00,-5.00,-5.00,+34.00,+15.00,-3.00,+0.00,+0.00,-2.00,+0.00,+3.00
-10.00,-6.00,-11.00,-6.00,-3.00,-2.00,-1.00,-3.00,-6.00,-11.00,-5.00,+1.00,-3.00,+3.00,-2.00,-3.00
+3.00,-15.00,+4.00,+5.00,+18.00,+8.00,+0.00,+4.00,+18.00,+11.00,+2.00,+4.00,+0.00,-10.00,-2.00,+3.00
+12.00,+25.00,+19.00,+7.00,+2.00,+0.00,+3.00,+5.00,-22.00,-12.00,+2.00,+2.00,+10.00,+19.00,+5.00,-3.00
-11.00,-12.00,-4.00,-3.00,-11.00,-5.00,-1.00,-4.00,-19.00,-20.00,-6.00,-4.00,-5.00,-4.00,-2.00,-4.00
-11.00,-26.00,-12.00,-3.00,-4.00,-8.00,-1.00,-5.00,+11.00,+18.00,-1.00,-3.00,+1.00,-7.00,-1.00,+2.00
-1.00,-7.00,-7.00,-5.00,-4.00,-2.00,-3.00,-1.00,+25.00,+14.00,+4.00,+9.00,+22.00,+3.00,+0.00,+0.00
+4.00,+4.00,-1.00,-1.00,+4.00,+3.00,+1.00,+2.00,-25.00,-21.00,-6.00,-2.00,-25.00,-3.00,-1.00,-2.00
+2.00,+2.00,+2.00,+5.00,+1.00,-2.00,+1.00,+3.00,+3.00,+7.00,+3.00,-1.00,+2.00,-4.00,-2.00,+0.00
-5.00,-14.00,-1.00,+2.00,+3.00,+1.00,-2.00,-1.00,+0.00,-5.00,-3.00,-3.00,-5.00,+0.00,+1.00,+2.00
-3.00,+4.00,+2.00,-2.00,-2.00,+0.00,+3.00,-1.00,+12.00,+6.00,-2.00,+3.00,+6.00,+0.00,-3.00,+2.00
-15.00,-3.00,-5.00,-4.00,+3.00,+0.00,-4.00,-9.00,-28.00,-18.00,-2.00,+0.00,+6.00,-6.00,-2.00,-8.00
+13.00,+1.00,+2.00,-1.00,-6.00,-1.00,+3.00,+0.00,+9.00,+27.00,+3.00,-2.00,+6.00,+12.00,+4.00,+6.00
+8.00,-5.00,+6.00,+5.00,+1.00,+2.00,+0.00,+4.00,-22.00,-24.00,-5.00,-1.00,-7.00,-15.00,-2.00,-5.00
-3.00,-4.00,+4.00,+5.00,+4.00,+2.00,+3.00,+0.00,+4.00,+2.00,-2.00,-2.00,-4.00,+7.00,-2.00,-3.00
-2.00,+31.00,-4.00,+1.00,-13.00,-7.00,-2.00,-3.00,+12.00,+8.00,-2.00,-4.00,-3.00,+2.00,-2.00,+2.00
-7.00,-24.00,-9.00,-10.00,+12.00,+10.00,-3.00,-2.00,-36.00,-26.00,-8.00,-4.00,-7.00,-5.00,-4.00,-9.00
+5.00,+22.00,+9.00,+0.00,+4.00,+1.00,+0.00,+0.00,+32.00,+22.00,+8.00,+3.00,+4.00,+3.00,+1.00,+6.00
+2.00,+0.00,+0.00,+2.00,+5.00,-6.00,-2.00,-1.00,-3.00,-7.00,-5.00,-4.00,-9.00,-6.00,+2.00,-3.00
-18.00,-39.00,-14.00,-3.00,-12.00,-5.00,-7.00,-8.00,+16.00,+16.00,+0.00,+1.00,-2.00,-1.00,-2.00,+1.00
+0.00,+19.00,-3.00,-1.00,+2.00,-2.00,-2.00,-5.00,-8.00,-3.00,+0.00,+1.00,+5.00,-1.00,-2.00,+1.00
+2.00,-8.00,+12.00,+5.00,+11.00,+6.00,+9.00,+6.00,+26.00,-11.00,-7.00,-3.00,-4.00,-16.00,-3.00,+0.00
+4.00,+17.00,-3.00,-3.00,-7.00,-7.00,+0.00,-2.00,+12.00,+6.00,+2.00,+0.00,-2.00,-9.00,+2.00,+2.00
+10.00,+35.00,+14.00,+1.00,-17.00,+1.00,-5.00,+6.00,+10.00,+13.00,+1.00,+0.00,+4.00,+1.00,-2.00,-5.00
-17.00,-38.00,-15.00,-3.00,-5.00,-9.00,+2.00,-5.00,+9.00,-7.00,-2.00,-1.00,-3.00,+18.00,-2.00,-7.00
+9.00,+31.00,-3.00,-7.00,-4.00,-2.00,-3.00,-1.00,+3.00,+16.00,+0.00,-4.00,-1.00,+4.00,-5.00,+2.00
+8.00,+30.00,+5.00,+5.00,-2.00,-1.00,+0.00,+3.00,-47.00,-39.00,-4.00,+6.00,-3.00,-23.00,-1.00,-4.00
-7.00,-10.00,-3.00,-1.00,+12.00,+3.00,+1.00,-2.00,+42.00,+31.00,+12.00,+3.00,+16.00,+1.00,+7.00,+16.00
+11.00,+6.00,+7.00,+4.00,-5.00,-2.00,-1.00,+3.00,-9.00,+6.00,+0.00,-8.00,-22.00,+5.00,-2.00,+2.00
-15.00,-12.00,-9.00,-1.00,+0.00,-5.00,-5.00,-6.00,+2.00,-3.00,-4.00,-5.00,-12.00,-12.00,-12.00,-7.00
+6.00,+26.00,+5.00,-3.00,-5.00,+1.00,+1.00,+0.00,-18.00,-9.00,-3.00,+10.00,+16.00,-19.00,-4.00,-6.00
+14.00,-13.00,+4.00,-4.00,+7.00,+3.00,+11.00,+5.00,+13.00,+3.00,+0.00,-18.00,-9.00,+26.00,-9.00,-1.00
-7.00,+15.00,+1.00,-2.00,-3.00,-8.00,-19.00,-4.00,-18.00,-30.00,-2.00,-3.00,+11.00,-12.00,-7.00,-5.00
+1.00,-14.00,-4.00,-2.00,+0.00,+2.00,-3.00,+2.00,+6.00,+13.00,-2.00,-6.00,-13.00,+11.00,+11.00,+3.00
-13.00,-19.00,-9.00,-5.00,+3.00,-4.00,-7.00,-6.00,-1.00,+4.00,+0.00,-4.00,-3.00,-30.00,-15.00,-3.00
+7.00,+3.00,-8.00,-9.00,-12.00,-7.00,-1.00,-6.00,-42.00,-32.00,-9.00,+8.00,+8.00,+18.00,+13.00,-3.00
+2.00,-32.00,+16.00,+8.00,+6.00,-1.00,-1.00,+7.00,+55.00,+39.00,+14.00,+0.00,+1.00,+13.00,-10.00,+6.00
+0.00,+2.00,-8.00,-2.00,+4.00,+23.00,+2.00,-1.00,-3.00,-21.00,-5.00,+0.00,+2.00,+9.00,+14.00,-5.00
+0.00,+1.00,-2.00,-5.00,-6.00,-2.00,-2.00,+0.00,-51.00,-9.00,-4.00,-10.00,-4.00,+18.00,+2.00,-8.00
-1.00,-7.00,-5.00,-4.00,-11.00,-5.00,-18.00,-4.00,-53.00,-35.00,-12.00,-3.00,-4.00,-17.00,-1.00,-11.00
-4.00,-26.00,-6.00,+3.00,+27.00,-1.00,+16.00,-5.00,+61.00,+8.00,+6.00,+7.00,+4.00,+2.00,+9.00,+28.00
+14.00,+36.00,+21.00,+13.00,-21.00,-7.00,+9.00,+3.00,+1.00,+6.00,-2.00,+7.00,+13.00,+12.00,+5.00,+5.00
-3.00,-21.00,-10.00,-3.00,+3.00,+9.00,+5.00,+1.00,+26.00,+22.00,+0.00,-6.00,-10.00,+2.00,+2.00,-1.00
-9.00,-16.00,-8.00,-9.00,+7.00,+3.00,+0.00,-2.00,-57.00,-20.00,-4.00,+0.00,+8.00,-17.00,-6.00,-9.00
-1.00,+15.00,-15.00,-6.00,-23.00,-10.00,+0.00,-6.00,-18.00,-3.00,-3.00,-6.00,-31.00,-50.00,-16.00,-9.00
-1.00,-12.00,+5.00,+0.00,+6.00,-8.00,-6.00,+3.00,+10.00,-43.00,-11.00,-5.00,+5.00,+30.00,-1.00,-3.00
-6.00,-5.00,+2.00,+5.00,+1.00,+4.00,+2.00,-2.00,+50.00,+30.00,+4.00,-1.00,+3.00,+15.00,-2.00,+4.00
-6.00,+1.00,+8.00,+6.00,+6.00,+2.00,+1.00,+0.00,-15.00,+6.00,-6.00,-1.00,+5.00,-14.00,-19.00,-3.00
+10.00,+45.00,-12.00,-11.00,-7.00,-2.00,-1.00,-2.00,+70.00,+19.00,+0.00,+0.00,+1.00,-18.00,+21.00,+19.00
-16.00,-15.00,-16.00,-10.00,-3.00,-10.00,-14.00,-11.00,-43.00,+0.00,+3.00,+7.00,-10.00,-69.00,-31.00,-11.00
+14.00,+18.00,+21.00,+8.00,-7.00,-3.00,+13.00,+8.00,-32.00,-27.00,-10.00,-28.00,-29.00,-51.00,+3.00,-10.00
-3.00,+0.00,+3.00,+14.00,+19.00,+11.00,-1.00,+0.00,+40.00,+22.00,+3.00,+3.00,+3.00,+11.00,-5.00,+5.00
-9.00,-1.00,-7.00,-7.00,-7.00,+1.00,-19.00,-7.00,-66.00,-59.00,-15.00,-2.00,+11.00,+37.00,-17.00,-19.00
-5.00,-27.00,-19.00,-16.00,-12.00,-17.00,-3.00,-6.00,+13.00,+36.00,+11.00,+4.00,+10.00,+1.00,+3.00,+0.00
-12.00,+25.00,-2.00,-6.00,-8.00,-5.00,-26.00,-5.00,-19.00,+0.00,+5.00,+9.00,-3.00,+26.00,-3.00,-2.00
+3.00,-24.00,+13.00,+12.00,+16.00,+5.00,+14.00,+8.00,+87.00,+51.00,+9.00,-6.00,-19.00,-25.00,-7.00,+10.00
-6.00,+16.00,+20.00,+13.00,+16.00,+5.00,-20.00,-2.00,-81.00,-42.00,-9.00,-2.00,+3.00,-19.00,+4.00,-15.00
+7.00,+1.00,-2.00,+1.00,-15.00,-12.00,+7.00,-2.00,+32.00,+7.00,+3.00,+3.00,+1.00,-28.00,-6.00,+7.00
-4.00,-29.00,-2.00,-7.00,-7.00,-5.00,-4.00,+4.00,-8.00,-5.00,-2.00,+5.00,+0.00,+30.00,-1.00,-5.00
-5.00,-20.00,-13.00,-7.00,-8.00,+1.00,+5.00,-3.00,-33.00,-20.00,-9.00,-10.00,-5.00,-12.00,+10.00,+2.00
+1.00,-14.00,+3.00,-1.00,+0.00,+4.00,-16.00,+2.00,+30.00,+20.00,-3.00,+2.00,+3.00,-4.00,-5.00,-11.00
+9.00,+36.00,+18.00,+13.00,+20.00,+7.00,+18.00,-3.00,-35.00,-21.00,-5.00,-11.00,-5.00,+29.00,+4.00,+2.00
+6.00,-12.00,-11.00,-9.00,-5.00,-5.00,-5.00,-7.00,-44.00,-1.00,+4.00,-2.00,-5.00,-29.00,-9.00,-8.00
-12.00,-27.00,-11.00,-14.00,-9.00,-12.00,-33.00,-8.00,+35.00,+13.00,+8.00,+8.00,+2.00,+22.00,+8.00,+5.00
+8.00,+13.00,+3.00,+4.00,-1.00,+13.00,+37.00,+9.00,+2.00,+16.00,-3.00,+0.00,+7.00,+2.00,+3.00,+2.00
+7.00,+0.00,+5.00,+2.00,+8.00,+2.00,-14.00,+5.00,-19.00,-11.00,+0.00,+3.00,-1.00,+1.00,+2.00,-6.00
+8.00,+36.00,+1.00,+3.00,-1.00,+5.00,+20.00,+0.00,+72.00,+24.00,+8.00,+6.00,+4.00,-4.00,+8.00,+6.00
+5.00,+5.00,+3.00,+3.00,+5.00,+4.00,+5.00,+0.00,+2.00,-1.00,-3.00,-6.00,-3.00,+4.00,-8.00,-1.00
-8.00,-28.00,-7.00,-5.00,-13.00,+0.00,+9.00,-2.00,-21.00,+17.00,+4.00,-3.00,-1.00,-25.00,+0.00,+8.00
-23.00,-13.00,-14.00,-7.00,+2.00,-5.00,-11.00,-7.00,+34.00,+17.00,-4.00,-5.00,-1.00,+18.00,+10.00,-5.00
+25.00,+53.00,+10.00,+0.00,-4.00,-3.00,-7.00,+3.00,-22.00,-31.00,-3.00,+4.00,+8.00,+35.00,+6.00,+7.00
-2.00,-47.00,-1.00,-1.00,+4.00,+4.00,+22.00,+7.00,-2.00,-7.00,-3.00,+2.00,-1.00,-26.00,-11.00,-15.00
-1.00,+42.00,+14.00,+3.00,+3.00,-4.00,-4.00,+3.00,-7.00,+1.00,+1.00,-1.00,-3.00,+11.00,-8.00,-1.00
-6.00,-3.00,-5.00,-1.00,-3.00,+4.00,-7.00,-6.00,+15.00,+4.00,-6.00,-11.00,+2.00,+3.00,+0.00,+3.00
-21.00,-53.00,-13.00,-3.00,+2.00,-5.00,+17.00,-9.00,+45.00,+39.00,+12.00,+6.00,+4.00,-14.00,+1.00,+20.00
+16.00,+71.00,+8.00,-1.00,+0.00,+3.00,+3.00,-5.00,+3.00,+3.00,-2.00,-2.00,-2.00,+39.00,+5.00,-4.00
-3.00,-26.00,-1.00,+1.00,-3.00,-1.00,+4.00,+3.00,-50.00,-40.00,-10.00,-1.00,-5.00,-3.00,-6.00,-9.00
-18.00,-43.00,-20.00,-5.00,-3.00,+1.00,-2.00,-2.00,+36.00,+23.00,+4.00,+3.00,+3.00,+9.00,-4.00,-2.00
+16.00,+53.00,+15.00,-1.00,-1.00,-5.00,-5.00,+7.00,-31.00,-25.00,-9.00,-4.00,-3.00,-26.00,-3.00,-6.00
-4.00,-13.00,-12.00,-7.00,-3.00,-6.00,-8.00,-4.00,+5.00,-11.00,+2.00,+5.00,+2.00,+11.00,+7.00,+2.00
-5.00,-14.00,+3.00,+0.00,+0.00,-3.00,+6.00,-4.00,+22.00,+15.00,-3.00,-1.00,+0.00,+8.00,+5.00,-7.00
+9.00,+6.00,+4.00,+4.00,-3.00,+4.00,+10.00,+6.00,+33.00,+11.00,+3.00,+1.00,+0.00,-13.00,-5.00,+7.00
-12.00,-22.00,-4.00,+5.00,+5.00,-1.00,-4.00,-3.00,-9.00,-6.00,-1.00,+1.00,+5.00,+27.00,+1.00,-1.00
-9.00,-8.00,-2.00,-4.00,-1.00,-2.00,-6.00,-1.00,-24.00,-28.00,-7.00,-1.00,-4.00,-19.00,+9.00,-6.00
+3.00,+1.00,-9.00,-7.00,-7.00,-9.00,-6.00,-2.00,+23.00,+15.00,+5.00,+0.00,-3.00,+6.00,+3.00,+2.00
+6.00,-1.00,+9.00,+6.00,+8.00,+3.00,+3.00,+3.00,+5.00,-4.00,+2.00,+3.00,+0.00,-16.00,+4.00,+5.00
-6.00,-23.00,-1.00,+3.00,+1.00,+1.00,-6.00,-5.00,-1.00,+1.00,-5.00,-3.00,+1.00,+13.00,-3.00,-2.00
+3.00,+4.00,-7.00,-7.00,-5.00,-5.00,-2.00,-2.00,-25.00,-1.00,-3.00,-6.00,-3.00,-6.00,-7.00,-6.00
-4.00,-26.00,-1.00,+3.00,+5.00,+10.00,+12.00,-2.00,-9.00,-13.00,-6.00,-5.00,-3.00,-11.00,-1.00,-11.00
+2.00,-8.00,+10.00,-1.00,-5.00,-2.00,+5.00,+2.00,-40.00,-17.00,-6.00,-2.00,-6.00,-20.00,-9.00,-13.00
-4.00,+0.00,-6.00,-1.00,+1.00,+0.00,-5.00,-2.00,+0.00,-20.00,-2.00,+2.00,+3.00,+6.00,+3.00,+9.00
+3.00,-19.00,+10.00,+13.00,+4.00,+0.00,+2.00,+6.00,-22.00,+2.00,+0.00,+0.00,+3.00,+2.00,-5.00,-8.00
-2.00,+28.00,-6.00,-10.00,-6.00,+0.00,-2.00,-3.00,+13.00,+7.00,-3.00,-10.00,-11.00,+33.00,+6.00,+4.00
-3.00,-16.00,-14.00,-14.00,-11.00,-9.00,-13.00,-4.00,-4.00,-2.00,+0.00,+1.00,-4.00,+1.00,-10.00,+3.00
+0.00,-6.00,+4.00,+1.00,-3.00,-1.00,+2.00,+1.00,-14.00,-6.00,-10.00,-10.00,-5.00,-8.00,-7.00,-10.00
+1.00,+0.00,+10.00,+10.00,+12.00,+6.00,+5.00,+4.00,+26.00,+8.00,+0.00,+1.00,+2.00,+39.00,+7.00,+8.00
-12.00,-14.00,-10.00,-3.00,-5.00,-4.00,-4.00,-4.00,-17.00,-3.00,+0.00,+6.00,+7.00,-20.00,-3.00,-7.00
+17.00,+31.00,+11.00,+3.00,+4.00,+4.00,+3.00,+3.00,-9.00,+0.00,+2.00,-1.00,-2.00,+3.00,-6.00,+2.00
-11.00,-8.00,-22.00,-7.00,-5.00,-4.00,-7.00,-4.00,-9.00,-10.00,-3.00,-3.00,-9.00,-28.00,-3.00,-9.00
+6.00,+41.00,+15.00,+3.00,+6.00,+4.00,+11.00,+3.00,+36.00,-1.00,+1.00,+3.00,+3.00,-2.00,-9.00,+6.00
+2.00,-22.00,+7.00,+10.00,+2.00,+3.00,+0.00,+4.00,+23.00,+25.00,+7.00,+2.00,+2.00,-3.00,+0.00,+4.00
-1.00,+21.00,-1.00,-4.00,-4.00,-4.00,-14.00,-5.00,-48.00,-41.00,-12.00,-4.00,+1.00,+21.00,+3.00,-15.00
+3.00,-1.00,-12.00,-6.00,-1.00,+2.00,+6.00,-1.00,+6.00,+13.00,+8.00,+5.00,+3.00,-12.00,-8.00,+2.00
-6.00,+16.00,-1.00,-5.00,-7.00,-4.00,+2.00,-5.00,+3.00,+12.00,+0.00,-3.00,-8.00,-36.00,-2.00,+5.00
+9.00,-8.00,-1.00,-1.00,+2.00,-6.00,-9.00,+3.00,+40.00,+8.00,+5.00,+4.00,+5.00,+23.00,+4.00,+4.00
-2.00,+10.00,+7.00,+6.00,+6.00,+4.00,+12.00,+1.00,-32.00,+0.00,+2.00,+1.00,-3.00,-13.00,+1.00,-5.00
-4.00,-21.00,+7.00,+5.00,+1.00,+3.00,-8.00,-2.00,-17.00,-15.00,-8.00,-8.00,-5.00,+19.00,-1.00,-2.00
-9.00,+7.00,-12.00,-6.00,-1.00,+2.00,+4.00,-4.00,-26.00,-6.00,+2.00,+1.00,-2.00,-19.00,-6.00,-10.00
+16.00,+32.00,+7.00,-7.00,-9.00,-12.00,-11.00,+1.00,+32.00,+14.00,+10.00,+5.00,+2.00,+9.00,+2.00,+11.00
-8.00,+5.00,-6.00,-4.00,+1.00,-2.00,-2.00,-1.00,+1.00,+5.00,-3.00,-2.00,-3.00,-21.00,+5.00,+8.00
-3.00,-30.00,+2.00,-1.00,-1.00,+4.00,-1.00,-2.00,-5.00,-4.00,+1.00,+1.00,+4.00,+13.00,-4.00,-11.00
+18.00,+19.00,+5.00,+5.00,+1.00,-3.00,-6.00,+9.00,+1.00,+5.00,+3.00,+1.00,-1.00,+4.00,+7.00,+4.00
-9.00,-27.00,+1.00,+8.00,+9.00,+4.00,+6.00,-2.00,-27.00,-19.00,-7.00,-3.00,+0.00,-21.00,-2.00,-9.00
+7.00,+40.00,+5.00,+0.00,-3.00,+4.00,+7.00,+1.00,-1.00,+7.00,-1.00,-2.00,+2.00,+8.00,-1.00,-1.00
-8.00,+0.00,-5.00,-6.00,+1.00,-4.00,+1.00,-2.00,-7.00,-5.00,-4.00,-2.00,-2.00,+5.00,-2.00,+1.00
-2.00,-23.00,-13.00,-6.00,-11.00,-5.00,-10.00,-7.00,+8.00,+0.00,-4.00,-3.00,-5.00,-26.00,-14.00,-7.00
+6.00,-3.00,+1.00,-3.00,+1.00,-1.00,-4.00,+1.00,-36.00,-12.00,-1.00,+1.00,+2.00,+31.00,+8.00,+3.00
+2.00,+9.00,+4.00,-4.00,-2.00,-3.00,-8.00,-1.00,-14.00,+6.00,+4.00,+0.00,+6.00,+14.00,-4.00,-3.00
-1.00,-2.00,+9.00,+6.00,+5.00,+5.00,+14.00,+3.00,+43.00,-2.00,-7.00,-3.00,+0.00,+13.00,+2.00,-1.00
-6.00,-12.00,-5.00,+1.00,+7.00,-3.00,-15.00,-3.00,+10.00,+26.00,+6.00,+1.00,+0.00,+2.00,+1.00,+2.00
-3.00,-10.00,-12.00,-18.00,-17.00,-5.00,-3.00,-4.00,-29.00,-19.00,-3.00,+1.00,-4.00,-18.00,-4.00,-6.00
-2.00,+4.00,-3.00,+2.00,+3.00,+1.00,+2.00,-3.00,-8.00,-13.00,-6.00,-2.00,-4.00,-12.00,-11.00,-5.00
+6.00,+6.00,-2.00,-1.00,-10.00,-4.00,-2.00,+1.00,-6.00,+7.00,+3.00,+0.00,+1.00,-4.00,+15.00,+0.00
-4.00,-3.00,+4.00,+1.00,-1.00,+0.00,+2.00,-1.00,-23.00,-21.00,-7.00,-3.00,-3.00,+7.00,-2.00,-3.00
-5.00,-8.00,-3.00,+8.00,+7.00,+1.00,-16.00,-3.00,+24.00,+21.00,-1.00,-3.00,+3.00,-13.00,-1.00,-1.00
-7.00,-1.00,-2.00,-7.00,-8.00,+0.00,+18.00,-2.00,+16.00,+10.00,+7.00,+3.00,+1.00,+12.00,+8.00,+9.00
+2.00,-19.00,+1.00,+0.00,+2.00,-5.00,+1.00,+1.00,+8.00,+6.00,-3.00,-1.00,-4.00,-5.00,-2.00,-1.00
+5.00,+7.00,+0.00,+0.00,-3.00,+2.00,-6.00,+0.00,+18.00,+21.00,+1.00,+0.00,-2.00,+2.00,+1.00,+2.00
-2.00,-10.00,-6.00,-1.00,-3.00,-1.00,+6.00,-3.00,+0.00,-7.00,-5.00,-1.00,-6.00,-53.00,-4.00,-4.00
-7.00,+5.00,+1.00,+4.00,+1.00,+1.00,-4.00,+2.00,-6.00,-7.00,-5.00,-6.00,-3.00,+16.00,-9.00,+1.00
+9.00,+18.00,+13.00,+3.00,+5.00,+2.00,-3.00,+1.00,-20.00,-9.00,+2.00,-1.00,-3.00,-1.00,-4.00,-13.00
-8.00,-11.00,-8.00,-7.00,-7.00,+0.00,+26.00,-2.00,+34.00,+1.00,+1.00,+0.00,+3.00,+2.00,+1.00,+6.00
-7.00,-19.00,-7.00,-7.00,-3.00,-5.00,-3.00,-2.00,-5.00,-2.00,+2.00,+2.00,-1.00,-26.00,-5.00,+1.00
-1.00,+0.00,-5.00,+5.00,+1.00,+1.00,-4.00,+0.00,-3.00,-2.00,+2.00,-1.00,-1.00,-1.00,+0.00,+2.00
-3.00,-1.00,+4.00,+8.00,+3.00,-1.00,-7.00,+0.00,+6.00,+7.00,-3.00,-5.00,-2.00,-11.00,-13.00,+2.00
+3.00,-10.00,+4.00,-7.00,-7.00,-3.00,+0.00,+2.00,-25.00,-22.00,-2.00,+0.00,+0.00,+27.00,+24.00,-13.00
-5.00,+4.00,-7.00,-4.00,+1.00,-2.00,+1.00,-1.00,+21.00,-4.00,+4.00,+6.00,+8.00,+15.00,+0.00,+6.00
-9.00,-32.00,-8.00,-1.00,+7.00,+1.00,-9.00,-5.00,+14.00,+11.00,+0.00,+2.00,-3.00,-4.00,+10.00,+0.00
+8.00,+27.00,-3.00,-3.00,-8.00,-6.00,+5.00,+2.00,+9.00,-5.00,-3.00,+0.00,+10.00,+20.00,+1.00,+2.00
-10.00,-1.00,-1.00,+2.00,+3.00,-1.00,-6.00,-4.00,-20.00,+6.00,-1.00,-10.00,-20.00,-19.00,-5.00,+4.00
+7.00,+0.00,+7.00,+4.00,+2.00,+3.00,+2.00,+4.00,-18.00,-8.00,-7.00,-7.00,+3.00,+20.00,-2.00,-9.00
-2.00,-4.00,+0.00,+1.00,+2.00,-5.00,-9.00,-2.00,-9.00,-13.00,-5.00,-2.00,-2.00,-23.00,+1.00,-3.00
-8.00,-23.00,-7.00,-7.00,+2.00,+3.00,+4.00,-2.00,+9.00,+10.00,+9.00,+2.00,-1.00,-5.00,+0.00,+4.00
-4.00,+8.00,-14.00,-8.00,-17.00,-12.00,-12.00,-4.00,-2.00,-8.00,-2.00,+4.00,+7.00,-2.00,-2.00,-7.00
+4.00,+13.00,+9.00,+3.00,+4.00,+5.00,+14.00,-1.00,+24.00,+18.00,-1.00,-4.00,-6.00,+11.00,+5.00,+11.00
+2.00,+10.00,+7.00,+7.00,+5.00,+0.00,+2.00,+0.00,-24.00,-17.00,-7.00,-1.00,-2.00,-10.00,-7.00,-6.00
+0.00,-21.00,-7.00,-3.00,+4.00,+1.00,-1.00,-2.00,-2.00,+5.00,+1.00,+0.00,-2.00,-2.00,-1.00,+0.00
+3.00,+4.00,+8.00,-2.00,-7.00,+2.00,-3.00,+1.00,-10.00,-20.00,-7.00,-5.00,-1.00,-15.00,-10.00,-6.00
-6.00,+3.00,-11.00,-4.00,+6.00,+11.00,-3.00,-4.00,-17.00,+8.00,+2.00,-1.00,-2.00,+4.00,+0.00,-6.00
+3.00,-9.00,+1.00,+6.00,-15.00,-9.00,+1.00,+0.00,-31.00,-18.00,-8.00,+0.00,+3.00,-6.00,-2.00,-6.00
-4.00,+4.00,-1.00,-5.00,+0.00,+0.00,+0.00,-1.00,+43.00,+9.00,+2.00,+1.00,-2.00,-3.00,+1.00,+10.00
-5.00,-15.00,-11.00,-6.00,+4.00,-6.00,-20.00,-6.00,-5.00,+6.00,+3.00,+2.00,+5.00,+17.00,-3.00,-2.00
+1.00,+4.00,+4.00,+7.00,+3.00,-7.00,+1.00,-2.00,-2.00,+6.00,+2.00,+1.00,-1.00,-12.00,+2.00,+3.00
-5.00,-24.00,-4.00,-7.00,-12.00,-2.00,+0.00,+2.00,+7.00,-3.00,-5.00,-3.00,-3.00,+9.00,+3.00,-2.00
-5.00,+3.00,-2.00,+4.00,+0.00,+0.00,+2.00,-4.00,-25.00,-10.00,-4.00,+0.00,+0.00,+1.00,-7.00,-14.00
+2.00,-20.00,-5.00,+1.00,+2.00,+3.00,-2.00,+0.00,+3.00,+7.00,-1.00,-4.00,-3.00,-24.00,-8.00,+7.00
+1.00,+36.00,+3.00,-11.00,-16.00,-7.00,-2.00,-3.00,+14.00,-17.00,+1.00,-1.00,+5.00,+72.00,+12.00,+3.00
+3.00,+0.00,+6.00,-3.00,+1.00,-3.00,-7.00,+2.00,+5.00,+22.00,+6.00,+3.00,+4.00,+9.00,+0.00,+1.00
-2.00,-9.00,+1.00,+1.00,-3.00,-3.00,-10.00,+0.00,+21.00,-4.00,-1.00,-3.00,-6.00,-2.00,+0.00,+8.00
+4.00,+4.00,+6.00,+12.00,+8.00,+7.00,+14.00,+3.00,-7.00,+1.00,-7.00,-1.00,-1.00,+1.00,+1.00,-7.00
+2.00,+5.00,+3.00,+0.00,+0.00,+0.00,-8.00,+0.00,+4.00,+3.00,-2.00,+1.00,-3.00,-7.00,-9.00,-4.00
-5.00,-22.00,-10.00,-6.00,-1.00,+0.00,-3.00,-1.00,-21.00,-2.00,+5.00,+0.00,-2.00,-9.00,+4.00,-2.00
-6.00,+4.00,-6.00,-8.00,-8.00,-5.00,-11.00,-4.00,-23.00,-8.00,-3.00,-1.00,+2.00,+7.00,+3.00,-4.00
+0.00,+2.00,+1.00,+4.00,+4.00,+0.00,+3.00,-2.00,+26.00,+10.00,-4.00,-2.00,-6.00,-13.00,-1.00,+0.00
+4.00,-7.00,-4.00,+2.00,+1.00,-2.00,-6.00,-2.00,-60.00,-21.00,-6.00,-3.00,-2.00,-19.00,-9.00,-12.00
+14.00,+7.00,-3.00,-4.00,-3.00,+3.00,+7.00,+0.00,+55.00,+9.00,+1.00,+2.00,+11.00,+24.00,+3.00,+12.00
+1.00,+28.00,+17.00,+5.00,+8.00,-11.00,-19.00,+3.00,-22.00,-14.00,-9.00,-4.00,-6.00,-12.00,-1.00,-4.00
-6.00,-12.00,-10.00,-7.00,-10.00,-2.00,-3.00,-2.00,-11.00,+5.00,+3.00,-1.00,+1.00,-1.00,-10.00,-2.00
+2.00,+8.00,+0.00,-6.00,-4.00,-6.00,+7.00,+2.00,-18.00,-10.00,-3.00,-3.00,-4.00,-7.00,+17.00,-5.00
-9.00,-23.00,-2.00,+2.00,+6.00,+3.00,+2.00,+0.00,-10.00,-9.00,-7.00,-2.00,+3.00,+6.00,-2.00,-9.00
-2.00,+12.00,-4.00,+1.00,+8.00,+5.00,+9.00,-2.00,+48.00,+34.00,+6.00,+1.00,-4.00,+10.00,+4.00,+21.00
-3.00,-20.00,-1.00,-2.00,-8.00,-7.00,-11.00,+0.00,-13.00,-22.00,-1.00,+2.00,+4.00,+13.00,-1.00,-3.00
+8.00,+11.00,+2.00,+9.00,+3.00,+10.00,+20.00,+6.00,+35.00,+16.00,+0.00,-1.00,-4.00,-22.00,-9.00,+3.00
+6.00,+6.00,+0.00,-9.00,+0.00,+3.00,-7.00,-4.00,-17.00,-22.00,-7.00,-2.00,-2.00,-16.00,-6.00,-13.00
+1.00,+12.00,-1.00,-4.00,+3.00,+6.00,-3.00,+2.00,-18.00,-12.00,+0.00,+0.00,-3.00,+1.00,-1.00,-1.00
-17.00,-10.00,-6.00,-1.00,-3.00,-8.00,+19.00,-5.00,+24.00,+23.00,+3.00,-2.00,-3.00,-8.00,+2.00,+1.00
+6.00,+15.00,+13.00,+4.00,+4.00,+3.00,+3.00,+2.00,-32.00,-14.00,-7.00,-1.00,-3.00,+4.00,-2.00,-5.00
+0.00,+9.00,+4.00,+8.00,+4.00,-4.00,-2.00,+2.00,-15.00,-3.00,-6.00,-3.00,-9.00,-7.00,-7.00,-16.00
-1.00,-19.00,-5.00,-3.00,-3.00,+4.00,+2.00,-4.00,+11.00,+0.00,+2.00,+1.00,+2.00,-10.00,-6.00,+8.00
+6.00,+11.00,-1.00,-5.00,+1.00,-3.00,-7.00,-1.00,-16.00,-14.00,-1.00,-1.00,+2.00,+13.00,-3.00,-2.00
-15.00,-21.00,-4.00,+1.00,-4.00,-4.00,-7.00,-3.00,+3.00,-2.00,-4.00,-4.00,-2.00,-22.00,-7.00,-7.00
-5.00,+7.00,+1.00,-2.00,-1.00,-1.00,+7.00,-10.00,-7.00,-1.00,+0.00,+0.00,-2.00,+44.00,-4.00,+5.00
-2.00,+3.00,-4.00,-1.00,-4.00,-2.00,-12.00,+0.00,-13.00,-13.00,-7.00,+0.00,+0.00,+13.00,+19.00,-17.00
+5.00,-2.00,+9.00,+7.00,+8.00,+6.00,+0.00,+2.00,+2.00,-8.00,-2.00,+0.00,-2.00,-19.00,+3.00,+2.00
-7.00,+6.00,-1.00,-3.00,-8.00,-2.00,-6.00,-5.00,+2.00,+6.00,+1.00,+1.00,-4.00,+23.00,+5.00,+5.00
+0.00,-9.00,-2.00,-4.00,+1.00,-5.00,-8.00,+2.00,+41.00,+23.00,+6.00,-2.00,+0.00,-13.00,+1.00,+8.00
+6.00,+1.00,-8.00,-9.00,-9.00,-3.00,+6.00,-3.00,+5.00,+7.00,+1.00,-5.00,-8.00,-12.00,-7.00,-12.00
-12.00,-5.00,-3.00,-3.00,+2.00,-1.00,-8.00,-4.00,-11.00,-12.00,-1.00,+3.00,+4.00,+5.00,+5.00,+0.00
+16.00,+25.00,+16.00,+9.00,+8.00,+6.00,+0.00,+4.00,-23.00,-22.00,-4.00,-4.00,-1.00,-12.00,-9.00,-8.00
-2.00,-14.00,-5.00,-1.00,-4.00,-4.00,-2.00,+0.00,+13.00,+10.00,+5.00,+1.00,-4.00,+4.00,+3.00,+10.00
+0.00,-23.00,-1.00,+8.00,+3.00,+12.00,+34.00,+6.00,-41.00,+0.00,+0.00,+1.00,-6.00,-7.00,-4.00,-8.00
+5.00,+31.00,+0.00,-2.00,-3.00,-4.00,-8.00,-1.00,-12.00,-21.00,-13.00,-15.00,-4.00,-38.00,-37.00,-14.00
-22.00,-38.00,-6.00,-4.00,-1.00,-8.00,-13.00,-8.00,+27.00,+14.00,+2.00,+3.00,-1.00,+21.00,+44.00,+4.00
+9.00,+17.00,+3.00,+4.00,+5.00,+7.00,+2.00,+3.00,-25.00,-6.00,-1.00,+2.00,-2.00,-11.00,-2.00,-4.00
+2.00,+1.00,-4.00,-6.00,-11.00,-14.00,-12.00,-1.00,-6.00,-6.00,-4.00,-4.00,+2.00,+3.00,+7.00,-2.00
-1.00,-6.00,+0.00,+2.00,+12.00,+8.00,+6.00,+3.00,+18.00,-8.00,+0.00,+0.00,-11.00,+0.00,-3.00,+5.00
-7.00,-18.00,-14.00,-9.00,-19.00,-11.00,+2.00,-3.00,+21.00,+4.00,+3.00,+12.00,+8.00,-26.00,-15.00,+1.00
-7.00,-5.00,-6.00,-5.00,-3.00,-7.00,-12.00,-2.00,-12.00,-4.00,-1.00,-11.00,-3.00,+18.00,+0.00,-5.00
+8.00,+30.00,+6.00,-2.00,-4.00,-5.00,-2.00,-6.00,-83.00,-46.00,-15.00,-3.00,+4.00,-4.00,+0.00,-23.00
+10.00,+17.00,+4.00,+3.00,+9.00,+8.00,-1.00,+8.00,+16.00,+28.00,+17.00,-4.00,-11.00,-6.00,+3.00,+16.00
-7.00,-2.00,-7.00,-3.00,-3.00,-9.00,-8.00,-6.00,+60.00,+22.00,+3.00,+2.00,+4.00,-4.00,-11.00,+14.00
-5.00,-23.00,+13.00,+5.00,+3.00,+13.00,+5.00,+5.00,+26.00,+23.00,+0.00,+8.00,-9.00,+3.00,+1.00,-2.00
-16.00,-22.00,-8.00,+2.00,-2.00,-3.00,-5.00,-6.00,-11.00,+21.00,+10.00,+1.00,-5.00,+0.00,+3.00,+1.00
+1.00,-1.00,-5.00,-5.00,-9.00,-3.00,-2.00,-2.00,-11.00,-17.00,-5.00,+3.00,+18.00,+10.00,+10.00,-1.00
+2.00,-5.00,-4.00,+2.00,+3.00,+0.00,-4.00,+1.00,-107.00,-54.00,-11.00,-13.00,-7.00,-11.00,-11.00,-30.00
+10.00,+42.00,+9.00,-5.00,-1.00,+1.00,-6.00,+1.00,+102.00,+53.00,+21.00,+11.00,+7.00,-19.00,-9.00,+21.00
-9.00,-16.00,-4.00,+0.00,-11.00,-4.00,+5.00,+1.00,+13.00,+11.00,+2.00,-2.00,-17.00,-4.00,-5.00,+0.00
-6.00,-22.00,-4.00,-4.00,-7.00,-6.00,-8.00,-4.00,+1.00,+11.00,-13.00,-4.00,-9.00,+12.00,+3.00,+4.00
+7.00,+15.00,-1.00,+0.00,+2.00,+5.00,+17.00,-1.00,-34.00,-22.00,-1.00,-4.00,+1.00,-5.00,-5.00,+2.00
-6.00,-7.00,-9.00,-6.00,-9.00,-16.00,+1.00,+0.00,-27.00,-34.00,-12.00,-14.00,-8.00,+21.00,+7.00,+6.00
-12.00,-2.00,+2.00,-2.00,+0.00,+0.00,-3.00,-5.00,+4.00,-3.00,-3.00,-2.00,+1.00,-12.00,-9.00,+6.00
+31.00,-1.00,-2.00,+6.00,+9.00,+6.00,+5.00,+7.00,+3.00,+17.00,-1.00,-7.00,-11.00,-3.00,-2.00,+4.00
-16.00,-21.00,-9.00,-7.00,+4.00,+5.00,-9.00,-15.00,-50.00,-20.00,-10.00,+12.00,+10.00,+0.00,-19.00,-17.00
+11.00,+22.00,+5.00,+3.00,+10.00,+4.00,+7.00,-2.00,-83.00,-60.00,-7.00,-16.00,-7.00,-11.00,-5.00,-14.00
+10.00,-11.00,+5.00,+4.00,-3.00,+4.00,+4.00,+5.00,+127.00,+97.00,+31.00,+18.00,+22.00,+5.00,+17.00,+39.00
-52.00,-12.00,-6.00,-2.00,-19.00,-12.00,-8.00,-7.00,-1.00,+2.00,-2.00,+7.00,+17.00,+6.00,-3.00,-17.00
-3.00,+4.00,-6.00,-4.00,-4.00,+2.00,+0.00,+3.00,-7.00,+3.00,-2.00,-8.00,-41.00,+4.00,-3.00,-2.00
+1.00,-17.00,-11.00,-2.00,+13.00,+0.00,-5.00,-4.00,-15.00,+2.00,-10.00,-24.00,-8.00,-13.00,-5.00,-14.00
-10.00,+46.00,+10.00,+0.00,-11.00,-9.00,-12.00,+1.00,-128.00,-128.00,-46.00,-23.00,-10.00,-12.00,-19.00,-36.00
+7.00,-7.00,-1.00,+1.00,+18.00,+14.00,+18.00,+3.00,+77.00,+93.00,+38.00,+25.00,+36.00,+14.00,+3.00,+33.00
+1.00,-7.00,+5.00,-1.00,-11.00,-16.00,-9.00,-1.00,-16.00,-22.00,-2.00,-11.00,-16.00,+7.00,+39.00,-5.00
-11.00,+4.00,-11.00,-3.00,-6.00,+1.00,+7.00,+2.00,-41.00,-22.00,-3.00,+22.00,+5.00,-11.00,-6.00,-3.00
-3.00,-12.00,-9.00,+0.00,-13.00,+17.00,+9.00,+6.00,+12.00,+17.00,+6.00,-5.00,-18.00,+5.00,-4.00,-11.00
-26.00,+20.00,+8.00,-4.00,+10.00,-7.00,-18.00,-15.00,-29.00,-32.00,-19.00,-20.00,-4.00,-2.00,+1.00,+7.00
+17.00,+9.00,+5.00,+13.00,-11.00,-2.00,+6.00,+2.00,+58.00,+41.00,+18.00,+16.00,+23.00,+3.00,+0.00,+4.00
-21.00,-16.00,-4.00,-7.00,+2.00,-14.00,-5.00,-6.00,+28.00,+1.00,+0.00,+9.00,+4.00,+31.00,+7.00,+6.00
+14.00,-11.00,-6.00,-2.00,+9.00,+2.00,-4.00,-3.00,-7.00,+12.00,+6.00,+19.00,+24.00,+2.00,-2.00,+1.00
-8.00,-16.00,-2.00,+2.00,-6.00,-5.00,-2.00,+3.00,-41.00,-51.00,-12.00,-17.00,-5.00,-4.00,+2.00,-18.00
+12.00,+24.00,-6.00,-3.00,+11.00,+12.00,+4.00,+6.00,+25.00,+22.00,-2.00,-6.00,+0.00,+0.00,-13.00,+9.00
+19.00,+10.00,+13.00,+13.00,+1.00,+7.00,+0.00,+7.00,+21.00,+6.00,-5.00,+1.00,-12.00,-35.00,-14.00,+6.00
+44.00,-6.00,+12.00,+10.00,+14.00,-3.00,-5.00,+2.00,-5.00,+4.00,-4.00,-36.00,-20.00,+8.00,+4.00,-8.00
+5.00,+50.00,-1.00,-2.00,-4.00,-5.00,-3.00,+5.00,-53.00,-12.00,+6.00,+13.00,-17.00,+6.00,+0.00,-14.00
-1.00,-29.00,-10.00,-17.00,-15.00,-4.00,-3.00,+7.00,-16.00,-26.00,-22.00,-20.00,+0.00,-6.00,-6.00,-2.00
-41.00,-26.00,-15.00,-3.00,+16.00,-1.00,+1.00,+3.00,+45.00,+38.00,+20.00,-2.00,-1.00,-4.00,-8.00,+4.00
+18.00,+7.00,+6.00,+4.00,-27.00,-8.00,-1.00,+9.00,+30.00,+24.00,+5.00,+9.00,-1.00,-3.00,-1.00,+4.00
+11.00,+12.00,+13.00,+4.00,+4.00,-1.00,+4.00,-2.00,-67.00,-22.00,-5.00,-2.00,-10.00,-6.00,+1.00,-9.00
+11.00,-18.00,-3.00,+4.00,-24.00,+5.00,+1.00,+2.00,+9.00,-9.00,-9.00,-1.00,+16.00,+7.00,-8.00,+1.00
+1.00,+2.00,-6.00,-4.00,-9.00,-6.00,-9.00,-11.00,+72.00,+25.00,+8.00,+16.00,+0.00,+2.00,+10.00,+13.00
-6.00,-20.00,-4.00,-5.00,-8.00,-3.00,+1.00,+12.00,-3.00,-11.00,-4.00,-2.00,+6.00,-2.00,+11.00,+14.00
+5.00,+2.00,+3.00,-4.00,-20.00,+18.00,-7.00,-3.00,-22.00,+7.00,-7.00,-8.00,-27.00,-6.00,-4.00,-15.00
-4.00,+3.00,+8.00,+6.00,+6.00,-18.00,+0.00,-3.00,-54.00,-31.00,-4.00,-10.00,-11.00,-4.00,-3.00,+15.00
-4.00,-21.00,-13.00,-8.00,+1.00,+4.00,+1.00,-4.00,-30.00,-21.00,-12.00,-16.00,-10.00,-11.00,+3.00,+2.00
-23.00,+7.00,+1.00,-8.00,+10.00,-3.00,+2.00,-12.00,-6.00,+12.00,-6.00,+2.00,+3.00,+5.00,-4.00,-15.00
+9.00,-17.00,+3.00,+16.00,+12.00,+5.00,+10.00,+9.00,+40.00,-7.00,+14.00,+18.00,+22.00,+4.00,+4.00,+23.00
-10.00,+14.00,+9.00,+2.00,+22.00,+14.00,+0.00,-1.00,-40.00,-2.00,-2.00,-12.00,-18.00,-2.00,-5.00,-7.00
+43.00,+44.00,-7.00,-16.00,-21.00,-19.00,-11.00,-4.00,+4.00,-14.00,-1.00,+12.00,+13.00,-3.00,+5.00,-3.00
-16.00,-28.00,-13.00,-7.00,+8.00,+11.00,+5.00,+0.00,-72.00,-27.00,-10.00,-13.00,-16.00,-4.00,-10.00,-4.00
+27.00,+0.00,-4.00,-3.00,-19.00,-9.00,+5.00,+16.00,+68.00,+36.00,+0.00,-7.00,+3.00,+1.00,+4.00,+8.00
-12.00,+13.00,+4.00,+7.00,-2.00,+2.00,-2.00,-6.00,+51.00,+40.00,+29.00,+41.00,+25.00,+7.00,+2.00,-2.00
+12.00,-14.00,+11.00,+7.00,+33.00,+26.00,+9.00,+24.00,-55.00,-17.00,-18.00,-15.00,-2.00,-4.00,-9.00,-12.00
-18.00,+11.00,+5.00,+1.00,-6.00,-1.00,-2.00,-10.00,+41.00,+23.00,+11.00,+2.00,+13.00,+19.00,-4.00,-2.00
+13.00,-12.00,-10.00,-9.00,+46.00,-3.00,+0.00,-13.00,-35.00,-21.00,-9.00,+24.00,+12.00,+4.00,-5.00,+4.00
-2.00,-19.00,+0.00,-5.00,-66.00,-24.00,-3.00,+19.00,+52.00,+22.00,+6.00,+0.00,-2.00,-4.00,-8.00,-14.00
+6.00,-5.00,-1.00,-4.00,-7.00,+13.00,+6.00,+10.00,+3.00,-1.00,+5.00,+12.00,+15.00,+4.00,+7.00,+13.00
+22.00,+55.00,+13.00,-2.00,+11.00,-11.00,-5.00,+4.00,-43.00,-34.00,-18.00,-12.00,+1.00,-14.00,-14.00,-22.00
-15.00,-12.00,-4.00,-3.00,-9.00,-1.00,-1.00,+3.00,+3.00,+3.00,+8.00,+9.00,+10.00,-2.00,+2.00,-3.00
-1.00,-16.00,-25.00,-16.00,+23.00,+5.00,-8.00,-8.00,+54.00,+22.00,-3.00,-2.00,+7.00,+3.00,+2.00,+10.00
+2.00,+12.00,+15.00,+12.00,+33.00,-20.00,-2.00,-10.00,-4.00,+16.00,+3.00,-2.00,-1.00,-3.00,+1.00,-3.00
-5.00,-38.00,-12.00,+0.00,+15.00,+0.00,-2.00,-2.00,+24.00,-16.00,+4.00,+40.00,+57.00,+6.00,+1.00,+8.00
-18.00,+1.00,+1.00,+0.00,-12.00,+8.00,+11.00,-6.00,-21.00,-12.00,+1.00,-13.00,-9.00,-3.00,-5.00,-14.00
+0.00,+10.00,-1.00,-1.00,+11.00,-1.00,-6.00,-16.00,-81.00,-45.00,-15.00,-20.00,-14.00,-6.00,-2.00,-7.00
-15.00,-11.00,-6.00,+2.00,-16.00,+0.00,-2.00,-7.00,-2.00,+28.00,+20.00,+16.00,-6.00,+13.00,+6.00,+0.00
+30.00,-15.00,-1.00,+5.00,-16.00,+9.00,+3.00,+3.00,-4.00,-16.00,+7.00,+12.00,-11.00,-6.00,-3.00,+12.00
+15.00,+23.00,-5.00,-10.00,+22.00,+24.00,-4.00,-3.00,+53.00,+64.00,+16.00,+28.00,-4.00,+5.00,+10.00,+5.00
-6.00,-25.00,+2.00,+4.00,+8.00,-2.00,+5.00,+11.00,-88.00,-25.00,-14.00,-14.00,+22.00,+12.00,-9.00,-33.00
+14.00,+25.00,-1.00,+3.00,-13.00,+3.00,-4.00,+3.00,+57.00,+14.00,-1.00,+3.00,+6.00,+1.00,-1.00,+10.00
-27.00,-6.00,-1.00,+0.00,-13.00,-17.00,-2.00,-12.00,-8.00,+12.00,+10.00,+17.00,+15.00,+3.00,+3.00,+5.00
-22.00,-21.00,-6.00,-11.00,-15.00,+14.00,+1.00,-4.00,-34.00,-49.00,-11.00,-12.00,+2.00,-2.00,-7.00,-13.00
-20.00,-18.00,-2.00,+11.00,+4.00,-31.00,-13.00,-12.00,+56.00,+21.00,+2.00,-1.00,-21.00,-5.00,-3.00,+9.00
+29.00,+50.00,+7.00,-6.00,+2.00,+12.00,+6.00,-9.00,+21.00,-1.00,+2.00,-1.00,+5.00,+2.00,+3.00,+3.00
-4.00,-10.00,+6.00,+8.00,+17.00,+15.00,+3.00,+11.00,-17.00,+6.00,-1.00,-1.00,-3.00,-1.00,-1.00,-9.00
+0.00,-15.00,-2.00,+7.00,-25.00,-23.00,-2.00,-7.00,+75.00,+11.00,-6.00,-22.00,-6.00,-7.00,-4.00,+15.00
-8.00,+5.00,+0.00,-3.00,+9.00,+11.00,-2.00,-2.00,+4.00,+16.00,+7.00,+3.00,+0.00,-1.00,+7.00,+5.00
-34.00,-35.00,-17.00,-13.00,-4.00,-4.00,+0.00,-12.00,-57.00,-16.00,-14.00,-22.00,+3.00,-7.00,-14.00,-13.00
-10.00,-26.00,-22.00,-13.00,-5.00,-12.00,-11.00,-33.00,+11.00,-6.00,-9.00,-7.00,-23.00,-2.00,+28.00,+13.00
+7.00,-6.00,+6.00,+1.00,+21.00,-5.00,+2.00,+5.00,-49.00,-9.00,+6.00,-7.00,+1.00,+2.00,-2.00,-6.00
+1.00,+10.00,-2.00,+6.00,-20.00,+3.00,+2.00,+9.00,-21.00,+23.00,+16.00,+27.00,+1.00,+5.00,+6.00,+10.00
-14.00,-14.00,-1.00,+3.00,-4.00,+0.00,-6.00,-8.00,+22.00,+31.00,+9.00,-18.00,-20.00,-8.00,-8.00,-17.00
-2.00,+29.00,+4.00,-5.00,+7.00,+4.00,+2.00,+14.00,-93.00,-51.00,-14.00,-28.00,-25.00,+5.00,-7.00,-14.00
-5.00,+7.00,+0.00,-13.00,-22.00,-23.00,-10.00,+0.00,+15.00,-4.00,-1.00,-7.00,-3.00,+0.00,+5.00,-1.00
+7.00,-14.00,+1.00,-1.00,+21.00,+17.00,+6.00,-6.00,+70.00,+28.00,+10.00,-1.00,+12.00,+5.00,+8.00,+29.00
-5.00,-15.00,+1.00,+1.00,-12.00,+7.00,-5.00,-1.00,-31.00,-21.00,-4.00,+2.00,-5.00,-2.00,+10.00,+8.00
+15.00,+7.00,+11.00,+15.00,+1.00,-3.00,+0.00,+8.00,+14.00,+26.00,+0.00,+2.00,+4.00,-6.00,-8.00,-3.00
+1.00,+18.00,+5.00,+12.00,-11.00,-14.00,-3.00,-4.00,-18.00,-3.00,+7.00,+8.00,-1.00,+3.00,+2.00,+0.00
+3.00,+1.00,-18.00,-27.00,+16.00,+12.00,-7.00,-2.00,+78.00,+39.00,+9.00,-3.00,-8.00,-4.00,-7.00,+13.00
-53.00,-20.00,+7.00,+2.00,-23.00,-12.00,+1.00,+8.00,-51.00,-36.00,-10.00,+10.00,+8.00,+6.00,-5.00,-21.00
-16.00,-49.00,-13.00,-2.00,+12.00,+5.00,+0.00,+1.00,+104.00,+55.00,+12.00,+12.00,-11.00,-11.00,-6.00,+23.00
+4.00,+36.00,+15.00,+7.00,+19.00,+5.00,+1.00,-4.00,-44.00,-52.00,-28.00,-29.00,-19.00,-2.00,+2.00,-3.00
+6.00,+14.00,+10.00,+4.00,-7.00,-9.00,-4.00,+1.00,-3.00,+0.00,+1.00,+14.00,+0.00,-4.00,-4.00,-11.00
-15.00,-14.00,-15.00,-12.00,+4.00,-4.00,-7.00,-7.00,-40.00,-22.00,-11.00,-18.00,+11.00,-1.00,+0.00,-7.00
+40.00,+31.00,+4.00,-1.00,-28.00,-13.00,+0.00,+13.00,+15.00,-18.00,-3.00,+12.00,+6.00,+2.00,-8.00,-4.00
-16.00,-17.00,-3.00,+2.00,-1.00,-7.00,-1.00,-22.00,-11.00,+20.00,+1.00,-16.00,-21.00,-5.00,-8.00,-5.00
-9.00,-7.00,-6.00,-11.00,+4.00,-2.00,-2.00,-7.00,+78.00,+7.00,+4.00,+8.00,+4.00,-1.00,+2.00,+21.00
+15.00,+16.00,+9.00,+4.00,+3.00,+3.00,+2.00,+1.00,+4.00,+17.00,-1.00,-14.00,-13.00,-7.00,-11.00,-25.00
-8.00,-19.00,-4.00,-8.00,-19.00,-5.00,-4.00,+0.00,-43.00,-47.00,-17.00,-11.00,-9.00,-7.00,-11.00,-9.00
+16.00,+9.00,-17.00,-21.00,+3.00,-4.00,-5.00,+7.00,-34.00,-6.00,+0.00,+20.00,+8.00,+0.00,+2.00,-17.00
+4.00,+4.00,+13.00,+13.00,+34.00,+20.00,+13.00,+7.00,-38.00,-18.00,-4.00,-7.00,-4.00,-1.00,+16.00,+10.00
+11.00,-5.00,+4.00,+9.00,-16.00,-14.00,-2.00,+2.00,-10.00,+19.00,+5.00,-2.00,+21.00,+4.00,+3.00,+2.00
+6.00,+15.00,+2.00,-1.00,+38.00,+13.00,+3.00,+3.00,+52.00,+35.00,+8.00,-1.00,+12.00,+1.00,+3.00,+12.00
-9.00,-3.00,-13.00,-13.00,-38.00,-6.00,-5.00,+1.00,-53.00,-30.00,-6.00,+8.00,+4.00,+0.00,-9.00,-18.00
+1.00,+4.00,-1.00,-2.00,+27.00,+16.00,+1.00,-4.00,+1.00,-4.00,-13.00,-39.00,-24.00,-6.00,-12.00,-14.00
+12.00,+12.00,-1.00,-4.00,-17.00,-8.00,-3.00,-4.00,+23.00,+4.00,+8.00,+23.00,+23.00,-1.00,+4.00,+16.00
-15.00,+1.00,+1.00,+3.00,+17.00,+7.00,+0.00,+13.00,-55.00,-12.00,-9.00,-23.00,-21.00,-4.00,-1.00,-22.00
-16.00,-24.00,-11.00,-6.00,-17.00,-15.00,-4.00,-7.00,+97.00,+49.00,+20.00,+11.00,+6.00,-3.00,+5.00,+29.00
+1.00,+9.00,+10.00,+5.00,+3.00,-4.00,+3.00,+2.00,-65.00,-37.00,-12.00,+14.00,-8.00,+3.00,-5.00,-13.00
+21.00,-10.00,+2.00,-2.00,-2.00,-5.00,+4.00,+1.00,-10.00,-9.00,-4.00,-4.00,+0.00,+3.00,+1.00,+7.00
-38.00,+13.00,-7.00,-10.00,-5.00,-3.00,-4.00,-17.00,-49.00,-37.00,-13.00,-20.00,-6.00,-4.00,+3.00,-13.00
+6.00,-22.00,-7.00,-5.00,-18.00,+13.00,+4.00,+8.00,+6.00,+25.00,+2.00,+12.00,-6.00,-2.00,+2.00,+3.00
+4.00,+12.00,-8.00,-11.00,-38.00,-20.00,-6.00,-1.00,+1.00,-12.00,-3.00,-1.00,+10.00,-5.00,-4.00,-4.00
+9.00,-19.00,+6.00,+8.00,-7.00,+11.00,+0.00,+3.00,-6.00,-5.00,-6.00,-14.00,-13.00,-5.00,-6.00,-9.00
-18.00,+2.00,-8.00,-6.00,-8.00,-10.00,-4.00,-22.00,-35.00,-5.00,-9.00,-3.00,-9.00,-5.00,-11.00,-7.00
+5.00,+1.00,-1.00,+6.00,+22.00,+16.00,+2.00,+4.00,-11.00,-38.00,-9.00,-7.00,-2.00,-1.00,-2.00,-2.00
-9.00,+16.00,-2.00,-2.00,+1.00,+3.00,-1.00,-1.00,+44.00,+37.00,+17.00,+27.00,+7.00,+4.00,+10.00,+19.00
-15.00,-10.00,+9.00,+2.00,-6.00,+11.00,+3.00,+0.00,-55.00,-45.00,-17.00,-20.00,-16.00,-11.00,-11.00,-11.00
+0.00,-14.00,+0.00,-4.00,-3.00,+1.00,+5.00,+8.00,+50.00,+19.00,+1.00,-7.00,-1.00,+0.00,-1.00,+5.00
-1.00,+0.00,-6.00,-2.00,+2.00,-8.00,-1.00,-7.00,-12.00,+2.00,-4.00,+3.00,+14.00,+1.00,-11.00,-10.00
+15.00,+31.00,+3.00,+6.00,+4.00,-1.00,-3.00,+15.00,-49.00,-20.00,-3.00,+4.00,-3.00,-2.00,+2.00,-1.00
-22.00,-20.00,-10.00,-7.00,-11.00,-9.00,-5.00,-10.00,+14.00,+16.00,+6.00,+20.00,-6.00,-1.00,+1.00,-5.00
+2.00,-1.00,+8.00,+6.00,-18.00,+7.00,+5.00,+6.00,+0.00,+3.00,-4.00,-11.00,-1.00,-6.00,+0.00,+9.00
+8.00,-32.00,-10.00,+2.00,+12.00,+1.00,-3.00,+5.00,+33.00,+22.00,+10.00,-12.00,-11.00,-2.00,-1.00,+21.00
-18.00,-18.00,+6.00,+2.00,-7.00,+5.00,+5.00,+0.00,-51.00,-55.00,-23.00,-11.00,+0.00,-3.00,-7.00,-34.00
-41.00,+33.00,-3.00,+0.00,+20.00,+5.00,+0.00,+0.00,+35.00,+24.00,+0.00,-8.00,-11.00,+2.00,+5.00,+7.00
+47.00,+44.00,+13.00,+3.00,-12.00,+0.00,-1.00,+14.00,-1.00,+9.00,+19.00,+17.00,+11.00,-2.00,-4.00,-8.00
+1.00,+1.00,+0.00,-9.00,-14.00,-3.00,-5.00,+0.00,+18.00,+32.00,+5.00,+8.00,-1.00,-1.00,+4.00,+1.00
+13.00,-21.00,-5.00,+8.00,-4.00,-5.00,+9.00,+8.00,-2.00,+11.00,+6.00,-9.00,-1.00,-2.00,-2.00,-9.00
-28.00,-20.00,-2.00,+0.00,+12.00,-3.00,-8.00,-22.00,-30.00,-16.00,-4.00,+17.00,+4.00,+2.00,+6.00,-3.00
+10.00,+16.00,+4.00,+5.00,+28.00,+12.00,+1.00,+0.00,-2.00,-20.00,-8.00,-18.00,-13.00,-3.00,-9.00,+12.00
-15.00,-15.00,+7.00,+18.00,+27.00,+7.00,+6.00,+11.00,+4.00,+6.00,-3.00,+0.00,+11.00,+1.00,-4.00,-2.00
-20.00,-39.00,-7.00,-7.00,-10.00,-11.00,-5.00,-13.00,+52.00,-6.00,+0.00,+2.00,+25.00,+3.00,-2.00,-2.00
+23.00,+66.00,+1.00,-7.00,+25.00,+8.00,-2.00,-13.00,-3.00,+4.00,+3.00,-5.00,-11.00,-5.00,+0.00,+6.00
-30.00,-33.00,-15.00,-3.00,-13.00,-16.00,-4.00,-13.00,-8.00,+4.00,+0.00,+15.00,+5.00,+2.00,-3.00,-7.00
-16.00,-20.00,+6.00,+11.00,+4.00,-8.00,-2.00,-1.00,+8.00,-20.00,-2.00,-12.00,+9.00,-5.00,-4.00,-3.00
-23.00,+5.00,+5.00,-1.00,-10.00,-4.00,-5.00,-10.00,-99.00,-31.00,-17.00,-9.00,-10.00,-4.00,-13.00,-17.00
+19.00,-5.00,+2.00,+6.00,+9.00,-8.00,+5.00,+9.00,+12.00,+11.00,+0.00,-8.00,-8.00,+4.00,+5.00,+4.00
-17.00,-9.00,-7.00,-5.00,-2.00,-3.00,-13.00,-7.00,+50.00,+43.00,+10.00,+4.00,+5.00,+3.00,+4.00,+11.00
+5.00,+23.00,-7.00,-5.00,-6.00,-4.00,+4.00,+1.00,-17.00,-5.00,-7.00,+1.00,-2.00,+0.00,-4.00,-17.00
-27.00,+5.00,+10.00,+3.00,+23.00,+14.00,+2.00,-18.00,-41.00,+18.00,+1.00,-6.00,+1.00,+1.00,-3.00,-21.00
+10.00,-8.00,-11.00,-14.00,-24.00,-31.00,-8.00,+1.00,+38.00,-1.00,+2.00,+9.00,+5.00,-2.00,+4.00,+17.00
-13.00,-8.00,+9.00,+8.00,+5.00,-4.00,+4.00,+1.00,-27.00,-40.00,-11.00,-5.00,-7.00,-1.00,+2.00,-2.00
+13.00,-3.00,+1.00,-4.00,-4.00,+0.00,-4.00,+1.00,+30.00,+35.00,+4.00,-4.00,+4.00,+4.00,+2.00,+10.00
+27.00,+24.00,-2.00,-3.00,-6.00,+1.00,-1.00,+2.00,+17.00,+18.00,-2.00,-8.00,-9.00,-7.00,+1.00,+9.00
-36.00,-54.00,-16.00,+0.00,+19.00,+4.00,-2.00,-3.00,-27.00,-47.00,-12.00,-13.00,-10.00,-7.00,-3.00,+6.00
+14.00,+53.00,+20.00,+3.00,-8.00,+6.00,+2.00,-7.00,-4.00,+0.00,+6.00,+45.00,+18.00,+7.00,-9.00,-12.00
-14.00,+6.00,+14.00,+9.00,+0.00,+1.00,+2.00,-11.00,-85.00,-62.00,-22.00,-24.00,-19.00,-12.00,-9.00,-14.00
+17.00,-17.00,-6.00,+2.00,+3.00,+3.00,-1.00,+12.00,+48.00,+28.00,+4.00,-13.00,-13.00,+1.00,-1.00,+12.00
+25.00,+11.00,+1.00,+2.00,-20.00,-4.00,+1.00,+11.00,-6.00,+21.00,+7.00,+2.00,+8.00,-6.00,-7.00,-1.00
+30.00,-28.00,-24.00,-15.00,-21.00,-19.00,-9.00,-10.00,+41.00,+13.00,+1.00,+4.00,+11.00,+3.00,+19.00,+22.00
+9.00,+17.00,+13.00,+10.00,+12.00,+7.00,+4.00,+1.00,-83.00,-41.00,-8.00,-10.00,-20.00,-2.00,-7.00,-39.00
+6.00,+11.00,+3.00,+4.00,-1.00,-4.00,-3.00,-2.00,+42.00,+15.00,-6.00,+7.00,+14.00,+0.00,+1.00,+9.00
+4.00,-28.00,-4.00,+10.00,+5.00,+3.00,-1.00,+8.00,-54.00,-21.00,-4.00,+15.00,+11.00,+2.00,-3.00,+0.00
-6.00,+33.00,-4.00,-21.00,+2.00,+0.00,+0.00,+6.00,+21.00,+27.00,+9.00,-21.00,+6.00,-6.00,+5.00,-9.00
+17.00,+7.00,+12.00,+13.00,+27.00,+6.00,+5.00,+8.00,-22.00,-14.00,-4.00,+5.00,-5.00,+1.00,+2.00,-4.00
+5.00,-2.00,-5.00,+0.00,-13.00,-25.00,-7.00,-24.00,-12.00,-19.00,+0.00,-12.00,-6.00,-3.00,+7.00,+17.00
+5.00,+5.00,+0.00,+4.00,-11.00,-3.00,+3.00,+11.00,-17.00,-15.00,-18.00,-3.00,-12.00,-1.00,-6.00,-20.00
-9.00,-6.00,-3.00,-1.00,+10.00,+12.00,+3.00,-9.00,+15.00,-5.00,+2.00,+1.00,+7.00,+2.00,+3.00,+5.00
+27.00,+25.00,+3.00,+2.00,-1.00,-6.00,+1.00,+7.00,-12.00,-3.00,+1.00,-4.00,+5.00,-1.00,+3.00,+13.00
-37.00,-25.00,-6.00,-3.00,+6.00,+10.00,-6.00,-1.00,-92.00,-60.00,-20.00,-4.00,-7.00,-3.00,-7.00,-28.00
+38.00,+2.00,-10.00,-9.00,-17.00,-10.00,+1.00,+0.00,+46.00,+45.00,+13.00,+2.00,+7.00,+0.00,+1.00,+21.00
-6.00,-5.00,-4.00,+8.00,+29.00,-1.00,+1.00,-3.00,+3.00,-2.00,+0.00,-2.00,-5.00,+0.00,-3.00,-10.00
-14.00,-34.00,-1.00,-7.00,-2.00,+17.00,+0.00,+2.00,+47.00,+49.00,+18.00,+11.00,+2.00,-3.00,+5.00,+9.00
+12.00,-1.00,+2.00,+1.00,-5.00,+0.00,+0.00,+4.00,-42.00,-34.00,-13.00,-6.00,-10.00,-8.00,-12.00,-3.00
+44.00,+36.00,+9.00,+3.00,+6.00,+11.00,+2.00,+22.00,-55.00,-37.00,-17.00,-36.00,-5.00,-1.00,-4.00,-33.00
-34.00,-18.00,-2.00,-4.00,-2.00,-4.00,-5.00,+3.00,+47.00,+44.00,+15.00,+4.00,+0.00,+7.00,+2.00,+17.00
+14.00,-8.00,-4.00,+2.00,-18.00,+2.00,-1.00,-5.00,-14.00,-22.00,-11.00,-3.00,+9.00,-1.00,+0.00,-1.00
-8.00,+2.00,-1.00,-6.00,-15.00,-5.00,+6.00,+4.00,+5.00,+23.00,+11.00,+14.00,+8.00,-1.00,+0.00,+3.00
+8.00,-1.00,-1.00,-7.00,+1.00,+9.00,-1.00,-8.00,+16.00,-10.00,+0.00,+1.00,+6.00,-1.00,-13.00,+2.00
+14.00,-36.00,+16.00,+22.00,+10.00,+6.00,+6.00,+12.00,-33.00,+7.00,+8.00,+2.00,-23.00,+8.00,+36.00,-1.00
-15.00,+16.00,-7.00,-6.00,-7.00,-8.00,-9.00,-10.00,+53.00,+13.00,-7.00,-10.00,+0.00,-2.00,-3.00,+1.00
+11.00,-8.00,+3.00,-4.00,+17.00,+12.00,+2.00,+11.00,-12.00,-1.00,-3.00,-8.00,-7.00,-4.00,-2.00,-2.00
-13.00,-15.00,-13.00,-4.00,-10.00,-12.00,-2.00,-3.00,+12.00,+9.00,+6.00,+14.00,+5.00,+5.00,+10.00,+11.00
-12.00,+55.00,-2.00,-11.00,-8.00,+5.00,-7.00,-17.00,+3.00,+1.00,+2.00,+0.00,-1.00,-5.00,-12.00,-1.00
-16.00,-16.00,+5.00,+5.00,-23.00,-2.00,+4.00,+4.00,-12.00,-1.00,+2.00,+10.00,+2.00,+4.00,+0.00,-6.00
-18.00,-5.00,-3.00,+2.00,+0.00,-4.00,-1.00,-12.00,+39.00,+9.00,+2.00,-7.00,-8.00,+1.00,+1.00,+8.00
+10.00,+26.00,+14.00,+6.00,+10.00,+5.00,-3.00,-1.00,-75.00,-39.00,-8.00,+2.00,-5.00,-4.00,-13.00,-27.00
-9.00,-23.00,-9.00,-4.00,-2.00,-5.00,-1.00,-20.00,+91.00,+55.00,+16.00,+9.00,+8.00,+1.00,+6.00,+29.00
-19.00,-5.00,-6.00,-5.00,+1.00,-3.00,-2.00,-6.00,+0.00,-8.00,-10.00,-25.00,-24.00,-5.00,+0.00,-5.00
+22.00,+47.00,+3.00,+1.00,-22.00,-10.00,-8.00,-16.00,+17.00,+3.00,+1.00,+1.00,+18.00,+3.00,-7.00,+2.00
-33.00,-58.00,-3.00,-8.00,-16.00,+3.00,+1.00,+5.00,-5.00,+15.00,-1.00,+7.00,-6.00,-1.00,-1.00,-11.00
+6.00,+13.00,+5.00,+8.00,-4.00,-14.00,-2.00,+11.00,+35.00,-12.00,+4.00,-8.00,-4.00,-3.00,-11.00,+1.00
+0.00,-12.00,-9.00,-11.00,-15.00,-7.00,+0.00,+4.00,-26.00,-10.00,+4.00,+24.00,+20.00,+5.00,+2.00,-5.00
+11.00,+8.00,-1.00,+5.00,+15.00,+2.00,+1.00,-4.00,+72.00,+52.00,+14.00,-8.00,+3.00,+4.00,+7.00,+11.00
-3.00,+20.00,+4.00,+5.00,-8.00,-6.00,-2.00,-11.00,+34.00,-4.00,-4.00,+10.00,-2.00,-1.00,+4.00,+8.00
+0.00,-18.00,-9.00,-4.00,+1.00,-1.00,-2.00,+0.00,-48.00,-17.00,-15.00,-7.00,-6.00,-4.00,-4.00,-17.00
+18.00,+60.00,+19.00,+2.00,-16.00,-7.00,-6.00,+7.00,+12.00,+9.00,+7.00,+13.00,+20.00,+0.00,-15.00,+8.00
-37.00,-25.00,-7.00,-2.00,+18.00,+13.00,+4.00,-4.00,-22.00,+6.00,+4.00,-6.00,+7.00,-1.00,+40.00,-1.00
+5.00,+13.00,+8.00,+3.00,+6.00,-2.00,+1.00,-4.00,-9.00,-5.00,+12.00,+20.00,+7.00,+5.00,-4.00,-6.00
-5.00,-24.00,-14.00,-14.00,-25.00,-12.00,-6.00,+8.00,-1.00,-16.00,-16.00,-9.00,-3.00,-8.00,-10.00,-5.00
+14.00,+5.00,-16.00,-7.00,-2.00,-4.00,-6.00,-5.00,+4.00,+12.00,+4.00,+8.00,-1.00,+4.00,+0.00,+6.00
-35.00,-24.00,+4.00,+1.00,-17.00,-10.00,-6.00,-34.00,-30.00,-11.00,+4.00,+28.00,+6.00,+0.00,+2.00,-4.00
+19.00,+9.00,+0.00,+0.00,+3.00,+11.00,+2.00,+6.00,+27.00,+22.00,+3.00,-9.00,-3.00,-1.00,+4.00,+7.00
+10.00,+11.00,-3.00,+1.00,+3.00,-1.00,+1.00,+2.00,-59.00,-48.00,-11.00,-10.00,+5.00,-8.00,-7.00,-3.00
-21.00,-2.00,-11.00,-12.00,+2.00,+1.00,-1.00,-11.00,-16.00,-15.00,-4.00,+4.00,+2.00,+2.00,+4.00,-8.00
+12.00,+7.00,-2.00,-5.00,-5.00,-2.00,+0.00,+12.00,+59.00,+40.00,+18.00,+20.00,+12.00,+8.00,-2.00,+14.00
-14.00,+5.00,+3.00,+0.00,-23.00,+19.00,+2.00,-3.00,-7.00,-1.00,-4.00,+0.00,+1.00,-1.00,+0.00,-8.00
-8.00,-4.00,-7.00,-3.00,+25.00,-16.00,-6.00,-10.00,-27.00,+2.00,-2.00,-1.00,-1.00,+0.00,-10.00,-3.00
+45.00,+27.00,+6.00,+1.00,+2.00,-6.00,-3.00,+4.00,+33.00,-11.00,+3.00,-1.00,-5.00,-3.00,+4.00,-1.00
-14.00,-7.00,-7.00,-5.00,-22.00,-15.00,-4.00,+8.00,-7.00,-3.00,-13.00,-18.00,-8.00,-6.00,-15.00,-8.00
-19.00,-33.00,-6.00,+3.00,+16.00,-7.00,+2.00,+10.00,-2.00,-31.00,-1.00,+5.00,+5.00,+2.00,-6.00,+5.00
-8.00,+4.00,-3.00,-6.00,-4.00,+7.00,-5.00,-20.00,-16.00,+32.00,+7.00,-4.00,-10.00,+0.00,+1.00,+2.00
+4.00,-10.00,+3.00,+11.00,+22.00,+13.00,+9.00,+7.00,+1.00,-19.00,-13.00,-12.00,-8.00,-10.00,-5.00,+7.00
+9.00,+21.00,+6.00,-6.00,-8.00,-5.00,-1.00,-2.00,-44.00,-25.00,-7.00,+2.00,+2.00,+1.00,-9.00,-22.00
-18.00,+2.00,-2.00,-2.00,+4.00,-6.00,-5.00,-14.00,+62.00,+40.00,+9.00,+1.00,-13.00,+0.00,+4.00,+15.00
+7.00,-16.00,-1.00,+7.00,-1.00,+4.00,-5.00,+16.00,-37.00,-26.00,-7.00,+2.00,+7.00,-7.00,-5.00,-14.00
-67.00,-13.00,-11.00,-14.00,+5.00,-10.00,-6.00,-31.00,+24.00,+5.00,-6.00,-20.00,-10.00,-2.00,+3.00,+5.00
+62.00,-2.00,-7.00,+1.00,+7.00,+4.00,+3.00,+12.00,-12.00,+8.00,+11.00,+8.00,+3.00,+3.00,-4.00,+6.00
+11.00,+1.00,+1.00,-4.00,-9.00,-8.00,+2.00,-2.00,-10.00,-12.00,-5.00,-2.00,+12.00,-1.00,+2.00,+14.00
+5.00,+4.00,+10.00,+10.00,+22.00,+15.00,+11.00,+22.00,+38.00,+19.00,+5.00,-25.00,-18.00,+0.00,-1.00,-5.00
+8.00,-2.00,-4.00,-7.00,-30.00,-8.00,-4.00,+4.00,-2.00,+6.00,+2.00,+1.00,-2.00,+0.00,+1.00,-5.00
-13.00,-12.00,-7.00,-2.00,+31.00,+11.00,+3.00,+10.00,+0.00,-15.00,-8.00,+2.00,-4.00,+1.00,-4.00,+10.00
+2.00,+12.00,+9.00,+4.00,-8.00,-10.00,-5.00,-9.00,+8.00,+9.00,+7.00,+5.00,-10.00,-2.00,+9.00,-2.00
-6.00,-7.00,-2.00,+3.00,+5.00,+4.00,+0.00,-7.00,-16.00,-7.00,-7.00,-5.00,+2.00,-3.00,-6.00,-16.00
-11.00,-15.00,-9.00,-6.00,-8.00,-18.00,-1.00,-1.00,+1.00,-13.00,-6.00,-10.00,+1.00,-2.00,-1.00,+11.00
+1.00,+3.00,+7.00,+11.00,+5.00,+2.00,-1.00,+0.00,-29.00,-16.00,-7.00,-13.00,-12.00,-4.00,-4.00,-19.00
-18.00,-11.00,-4.00,-10.00,+6.00,+0.00,-5.00,+0.00,+20.00,+28.00,+9.00,+7.00,+4.00,+1.00,+6.00,+6.00
-1.00,+5.00,+6.00,+6.00,-13.00,+0.00,+1.00,-5.00,+4.00,-3.00,-4.00,+5.00,-2.00,+0.00,-6.00,-2.00
+4.00,-1.00,-4.00,+7.00,+21.00,+15.00,-2.00,-1.00,-23.00,-25.00,-2.00,+2.00,-2.00,+3.00,+1.00,-4.00
-18.00,+10.00,-3.00,-7.00,-14.00,-18.00,-5.00,-11.00,-3.00,+19.00,+5.00,+5.00,+5.00,-1.00,-1.00,+0.00
-20.00,-3.00,-5.00,-4.00,+9.00,-5.00,-3.00,-13.00,-6.00,-25.00,-10.00,-12.00,-5.00,-3.00,-5.00,-10.00
-6.00,-2.00,+5.00,+0.00,+0.00,+3.00,+2.00,-15.00,-4.00,-4.00,-1.00,+5.00,+3.00,+1.00,+2.00,+10.00
+11.00,-17.00,-4.00,+2.00,+7.00,+4.00,-1.00,+9.00,+13.00,+11.00,-6.00,-6.00,-7.00,-2.00,+0.00,+2.00
+31.00,+6.00,+8.00,+1.00,-4.00,-5.00,+1.00,+5.00,-9.00,-18.00,+4.00,+1.00,-4.00,-2.00,-1.00,+0.00
+5.00,+19.00,+1.00,+5.00,+2.00,+6.00,+4.00,+10.00,-34.00,-19.00,-16.00,+0.00,-1.00,-3.00,-6.00,-15.00
+3.00,+7.00,-4.00,-3.00,-4.00,-3.00,+1.00,+0.00,+74.00,+55.00,+10.00,-4.00,+3.00,+0.00,+5.00,+14.00
-5.00,-12.00,-7.00,-5.00,-5.00,-7.00,-3.00,-10.00,-49.00,-26.00,-4.00,+4.00,+2.00,-2.00,-4.00,-19.00
-15.00,-13.00,-6.00,-2.00,-4.00,+5.00,+1.00,+4.00,+81.00,+8.00,-1.00,-1.00,-10.00,-1.00,-3.00,+10.00
+32.00,+25.00,+16.00,+6.00,+8.00,+3.00,+0.00,+3.00,+13.00,+48.00,+19.00,+8.00,+6.00,+2.00,+10.00,+5.00
+10.00,-28.00,+1.00,+3.00,-8.00,+0.00,+1.00,+9.00,-37.00,-35.00,-16.00,-8.00,-5.00,-4.00,-4.00,-9.00
-5.00,+0.00,+4.00,-2.00,+10.00,+5.00,+2.00,+7.00,-19.00,+5.00,+1.00,+1.00,+2.00,+1.00,+4.00,+3.00
-3.00,-4.00,-16.00,-20.00,-23.00,-5.00,-4.00,+0.00,-10.00,-11.00,-7.00,-3.00,-2.00,+0.00,-3.00,-4.00
-10.00,-9.00,-2.00,+1.00,+1.00,+2.00,-1.00,-3.00,-25.00,-29.00,-11.00,-11.00,-6.00,-4.00,-6.00,-5.00
+6.00,+12.00,+0.00,+2.00,-6.00,-7.00,-3.00,-1.00,-2.00,-3.00,-1.00,+4.00,+3.00,-2.00,-1.00,+3.00
-9.00,+11.00,+6.00,-7.00,-17.00,-7.00,-5.00,-6.00,-3.00,+0.00,+0.00,+1.00,+3.00,-1.00,+0.00,-10.00
-2.00,-17.00,+4.00,+7.00,+25.00,+9.00,+7.00,+4.00,+18.00,+15.00,+6.00,-2.00,-4.00,-5.00,+1.00,+11.00
+0.00,-4.00,-6.00,-1.00,+6.00,+2.00,-1.00,-2.00,+27.00,+14.00,+3.00,-7.00,-1.00,+1.00,+0.00,+7.00
-2.00,+3.00,+4.00,+0.00,-13.00,-3.00,-1.00,+0.00,-73.00,-42.00,-8.00,+5.00,-1.00,-2.00,-7.00,-21.00
-12.00,-16.00,-7.00,-4.00,-7.00,-6.00,-3.00,-6.00,+37.00,+18.00,+4.00,+2.00,-5.00,+0.00,+1.00,+10.00
+3.00,+13.00,+0.00,+2.00,-4.00,-3.00,-3.00,+2.00,-9.00,-4.00,-3.00,-1.00,+2.00,-3.00,-2.00,-5.00
+11.00,+15.00,+7.00,+7.00,+12.00,+6.00,+3.00,+6.00,+8.00,+1.00,-2.00,-3.00,-2.00,-1.00,+1.00,+3.00
+0.00,-6.00,-10.00,-13.00,-12.00,-6.00,-2.00,+1.00,-12.00,+4.00,+1.00,+0.00,-2.00,+0.00,+2.00,+2.00
-3.00,-4.00,-2.00,+2.00,-1.00,+1.00,+0.00,-2.00,-2.00,+8.00,-3.00,+0.00,+0.00,-1.00,-3.00,-8.00
+0.00,-9.00,-4.00,-1.00,+1.00,+0.00,-3.00,-3.00,-60.00,-35.00,-6.00,-2.00,-2.00,-2.00,-4.00,-6.00
+7.00,+4.00,+8.00,+6.00,+7.00,+2.00,+1.00,+6.00,+34.00,+34.00,+0.00,-9.00,-1.00,-2.00,-6.00,-6.00
-11.00,+4.00,-1.00,-6.00,-5.00,+1.00,-3.00,-7.00,+22.00,-7.00,+2.00,-1.00,-3.00,+1.00,+2.00,+16.00
+6.00,+7.00,+3.00,+1.00,+2.00,-2.00,-2.00,-3.00,-3.00,+7.00,+4.00,+4.00,+2.00,+3.00,+3.00,+3.00
+8.00,+2.00,-4.00,-3.00,+0.00,+4.00,+0.00,+0.00,+0.00,-1.00,-13.00,-15.00,-4.00,-1.00,+0.00,+8.00
-22.00,-18.00,-16.00,-8.00,-5.00,+1.00,+0.00,-3.00,-40.00,-35.00,-8.00,-3.00,-3.00,-3.00,-4.00,-18.00
+8.00,+6.00,+7.00,-5.00,+4.00,-1.00,+0.00,+3.00,+14.00,+5.00,-14.00,-6.00,-1.00,-2.00,-4.00,+5.00
+4.00,-2.00,+5.00,+4.00,-2.00,-1.00,-2.00,-5.00,+6.00,+14.00,+9.00,-3.00,-4.00,-3.00,-1.00,-4.00
+9.00,+12.00,+5.00,+4.00,+0.00,-1.00,+0.00,+4.00,+2.00,-2.00,-1.00,+3.00,-3.00,-1.00,+0.00,-2.00
-23.00,-9.00,-11.00,-6.00,-3.00,-1.00,-3.00,-7.00,-15.00,+0.00,+1.00,-1.00,-4.00,-4.00,-4.00,-4.00
+8.00,-3.00,-7.00,-7.00,-2.00,-4.00,+2.00,+11.00,+6.00,+4.00,+6.00,+3.00,-3.00,+0.00,+1.00,-5.00
-20.00,-3.00,-6.00,-7.00,+2.00,+0.00,-3.00,-9.00,-7.00,+4.00,-2.00,+1.00,+0.00,+0.00,-3.00,-1.00
+34.00,+24.00,+26.00,+13.00,+0.00,+2.00,+2.00,+20.00,-18.00,-27.00,-12.00,-5.00,-1.00,-5.00,-7.00,-11.00
-5.00,+1.00,+3.00,+4.00,+5.00,+0.00,-3.00,-10.00,+12.00,-1.00,+5.00,+4.00,+5.00,+2.00,+5.00,+11.00
-34.00,+5.00,+4.00,-4.00,-2.00,-1.00,-6.00,-13.00,-3.00,-7.00,+0.00,+2.00,-1.00,-1.00,-1.00,+0.00
+0.00,-27.00,-6.00,+7.00,+5.00,+1.00,+3.00,+5.00,+0.00,+0.00,+1.00,+2.00,+2.00,+2.00,+0.00,-1.00
+13.00,+35.00,+4.00,-4.00,-5.00,-1.00,+0.00,+3.00,-8.00,-3.00,-2.00,-1.00,-2.00,-4.00,-3.00,+3.00
-5.00,-7.00,-10.00,-8.00,-6.00,-6.00,-3.00,-2.00,-6.00,-9.00,-3.00,-3.00,+0.00,+1.00,-1.00,+2.00
-4.00,-4.00,+4.00,+9.00,+11.00,+2.00,+0.00,+0.00,+3.00,+1.00,+1.00,+1.00,+1.00,-2.00,+0.00,-2.00
+17.00,+7.00,+7.00,+3.00,+0.00,+2.00,+0.00,+3.00,+3.00,+1.00,-2.00,-2.00,+1.00,-1.00,-2.00,-6.00
-16.00,-16.00,-8.00,-4.00,-2.00,-3.00,-3.00,-10.00,+22.00,+17.00,+7.00,+3.00,-1.00,+2.00,+1.00,-4.00
+12.00,-16.00,-9.00,-4.00,-7.00,-4.00,-1.00,+1.00,+2.00,-1.00,-2.00,-2.00,+2.00,-1.00,+0.00,-3.00
+10.00,+15.00,+9.00,+8.00,+3.00,-1.00,+2.00,+3.00,-17.00,-1.00,-2.00,+3.00,+1.00,-2.00,-5.00,-9.00
+16.00,+0.00,-3.00,-7.00,-1.00,+0.00,+0.00,+11.00,+7.00,-9.00,-8.00,-7.00,-8.00,-2.00,+0.00,+5.00
-27.00,-19.00,-8.00,-4.00,-6.00,-2.00,-3.00,-13.00,-13.00,+6.00,+2.00,+2.00,+3.00,-1.00,-3.00,-10.00
+25.00,+13.00,+8.00,+1.00,-1.00,+0.00,-1.00,-8.00,-18.00,-13.00,-3.00,-6.00,-9.00,-3.00,+1.00,+13.00
-3.00,-13.00,-9.00,-2.00,-4.00,-4.00,-3.00,-2.00,-10.00,-4.00,-3.00,+2.00,+2.00,+0.00,+3.00,+3.00
+8.00,-2.00,+5.00,+7.00,+4.00,+0.00,+3.00,+7.00,+0.00,+1.00,+8.00,+1.00,-1.00,-6.00,-6.00,-7.00
-5.00,-10.00,-9.00,-10.00,-5.00,-1.00,-2.00,-3.00,+1.00,+9.00,-3.00,+7.00,+1.00,+3.00,+3.00,+4.00
-11.00,-14.00,-9.00,-8.00,-8.00,-4.00,+0.00,+3.00,+8.00,+0.00,-2.00,+0.00,+1.00,+0.00,-1.00,-10.00
+5.00,+3.00,+0.00,-1.00,+0.00,+0.00,+0.00,-3.00,-7.00,-28.00,-9.00,-6.00,-3.00,-2.00,-2.00,-6.00
-9.00,+6.00,+3.00,+1.00,-4.00,-3.00,-1.00,+2.00,+21.00,+22.00,+0.00,-6.00,+0.00,+1.00,+1.00,+6.00
+3.00,-2.00,+1.00,+7.00,+19.00,+5.00,+2.00,+3.00,-9.00,-9.00,-11.00,-8.00,-4.00,-4.00,-1.00,+0.00
-1.00,+3.00,+6.00,+3.00,-7.00,-3.00,+1.00,+1.00,+2.00,+13.00,+1.00,+2.00,+2.00,-3.00,-3.00,-4.00
-19.00,-34.00,-26.00,-15.00,-8.00,-3.00,-3.00,-3.00,-6.00,-5.00,+2.00,+3.00,-2.00,-2.00,-3.00,-3.00
+0.00,+37.00,+8.00,-3.00,-4.00,-3.00,+0.00,+1.00,-19.00,-11.00,-3.00,+2.00,-1.00,-1.00,-2.00,-13.00
-13.00,-20.00,-8.00,-2.00,+0.00,+3.00,-1.00,-5.00,+9.00,+2.00,+6.00,+0.00,+0.00,-2.00,+0.00,+7.00
+19.00,+22.00,+26.00,+10.00,+5.00,+5.00,+3.00,+9.00,+1.00,+7.00,-2.00,-3.00,-4.00,-1.00,-2.00,-20.00
-5.00,-1.00,-17.00,+0.00,+1.00,-1.00,-3.00,-8.00,-5.00,+4.00,+4.00,-2.00,+0.00,+1.00,+1.00,-3.00
+3.00,-33.00,-12.00,-3.00,+2.00,-3.00,-3.00,-7.00,-2.00,-13.00,-11.00,-5.00,-2.00,-3.00,-4.00,-1.00
+6.00,+18.00,-4.00,-2.00,-14.00,-5.00,-1.00,-1.00,+3.00,-5.00,+0.00,-1.00,-2.00,+0.00,+1.00,+2.00
-1.00,-8.00,-9.00,-10.00,-8.00,-2.00,-1.00,-3.00,-13.00,-20.00,-8.00,-4.00,-6.00,-3.00,-5.00,-3.00
-1.00,+7.00,+3.00,+0.00,-6.00,+0.00,+0.00,+3.00,-16.00,+1.00,+5.00,+2.00,+1.00,+0.00,-2.00,-6.00
+18.00,+8.00,+6.00,+8.00,+3.00,+0.00,+0.00,+3.00,+8.00,+2.00,-1.00,+1.00,+0.00,-2.00,+1.00,-2.00
-4.00,-3.00,-3.00,-3.00,-1.00,-5.00,+0.00,-2.00,+4.00,+13.00,-1.00,+0.00,+1.00,+1.00,-2.00,-2.00
-14.00,-11.00,-9.00,-9.00,-4.00,-3.00,-3.00,-4.00,+9.00,+5.00,+0.00,+0.00,+0.00,-1.00,+1.00,+9.00
-3.00,+5.00,+10.00,+8.00,+10.00,+5.00,+1.00,+4.00,+10.00,+3.00,-3.00,-1.00,+0.00,-3.00,-2.00,-1.00
+17.00,+4.00,+6.00,+4.00,+0.00,+3.00,-2.00,-11.00,+2.00,+6.00,+3.00,-1.00,+0.00,+0.00,+3.00,+11.00
-12.00,-14.00,-3.00,-6.00,-4.00,-1.00,-2.00,-5.00,-10.00,-15.00,+0.00,+1.00,+1.00,-1.00,-3.00,-10.00
+14.00,-3.00,+0.00,+1.00,-1.00,-3.00,+1.00,+4.00,-11.00,-13.00,-5.00,-4.00,-2.00,-1.00,+1.00,+2.00
+1.00,+2.00,-2.00,-1.00,+2.00,+1.00,-2.00,-6.00,+13.00,+19.00,+5.00,+0.00,+0.00,+4.00,+2.00,+8.00
