-19.00,-5.00,+1.00,-3.00,-4.00,-1.00,-2.00,-8.00,+0.00,-1.00,+1.00,+0.00,-2.00,-1.00,-3.00,-3.00
+23.00,+2.00,-1.00,+0.00,-1.00,-3.00,+0.00,+6.00,+3.00,-3.00,-1.00,-5.00,+0.00,+3.00,+2.00,-1.00
-6.00,+2.00,+0.00,-2.00,-2.00,-2.00,-2.00,+0.00,-4.00,-4.00,-2.00,+0.00,-2.00,+0.00,+0.00,+1.00
+18.00,+3.00,+1.00,+2.00,+0.00,+0.00,+1.00,+2.00,-5.00,-4.00,+2.00,+3.00,+5.00,+1.00,-3.00,-6.00
-4.00,-1.00,+0.00,+0.00,-2.00,+2.00,-2.00,-4.00,-3.00,+8.00,-2.00,-3.00,-6.00,-3.00,-2.00,-4.00
+1.00,-1.00,+0.00,-2.00,-1.00,+0.00,-2.00,-2.00,+7.00,+3.00,-4.00,-1.00,-3.00,-1.00,-1.00,+2.00
+12.00,+0.00,+0.00,-2.00,+1.00,+0.00,+2.00,+9.00,+4.00,-4.00,-3.00,-2.00,-2.00,-1.00,+0.00,+0.00
-9.00,-2.00,+3.00,+2.00,-1.00,-2.00,-2.00,+0.00,+0.00,+3.00,+1.00,+0.00,+1.00,-1.00,+1.00,+1.00
-6.00,-1.00,-5.00,-2.00,+0.00,-2.00,+1.00,-1.00,-6.00,-8.00,-4.00,-2.00,+1.00,-1.00,+0.00,-2.00
+0.00,+5.00,-2.00,-2.00,-1.00,+1.00,+0.00,-1.00,-4.00,+1.00,-1.00,-1.00,-2.00,-3.00,+1.00,+4.00
-61.00,-9.00,-5.00,-2.00,-4.00,-3.00,+1.00,+2.00,-3.00,-3.00,-3.00,+1.00,+0.00,+0.00,+0.00,+4.00
+15.00,-1.00,-5.00,-3.00,-3.00,+1.00,-3.00,-4.00,+5.00,+1.00,-2.00,-3.00,+0.00,-1.00,-2.00,+3.00
+25.00,+7.00,+5.00,+4.00,+3.00,+1.00,+0.00,-4.00,+3.00,+0.00,-1.00,-4.00,-3.00,-16.00,-3.00,+0.00
-18.00,-4.00,-5.00,-3.00,-4.00,-2.00,-2.00,-2.00,-19.00,-21.00,-2.00,+2.00,+5.00,+17.00,+2.00,+0.00
-1.00,-5.00,+1.00,-2.00,+0.00,-1.00,+1.00,+5.00,-4.00,+5.00,-1.00,-8.00,-9.00,+5.00,-4.00,-6.00
+9.00,-3.00,-5.00,+1.00,-1.00,-2.00,+0.00,+3.00,+6.00,-4.00,+0.00,+6.00,+8.00,+3.00,+0.00,+0.00
-15.00,-2.00,+1.00,+2.00,-1.00,-2.00,-2.00,-10.00,+3.00,+3.00,+1.00,-4.00,+0.00,+3.00,+4.00,+5.00
-3.00,-5.00,-2.00,-3.00,-2.00,-1.00,-1.00,+1.00,+2.00,+1.00,-7.00,-9.00,-1.00,-13.00,-7.00,-3.00
+16.00,+3.00,-1.00,+0.00,-1.00,+1.00,-2.00,+1.00,-4.00,-4.00,-4.00,+5.00,+6.00,-2.00,+0.00,+1.00
-22.00,+1.00,+6.00,+0.00,+2.00,-7.00,-4.00,-6.00,-24.00,-14.00,-4.00,-4.00,+23.00,-10.00,-4.00,+0.00
+16.00,+2.00,-6.00,-2.00,-7.00,-4.00,-3.00,-8.00,+2.00,+1.00,+0.00,+1.00,-19.00,+6.00,+1.00,+3.00
+4.00,-20.00,-5.00,-1.00,+3.00,+1.00,-2.00,-3.00,-4.00,-1.00,-3.00,+2.00,-2.00,-3.00,+2.00,-1.00
-1.00,+18.00,+1.00,-4.00,+14.00,+8.00,-5.00,-2.00,-10.00,+2.00,+0.00,-7.00,-4.00,+3.00,-2.00,-3.00
+6.00,+7.00,+3.00,+2.00,-17.00,-7.00,+7.00,+7.00,+7.00,+3.00,-1.00,+8.00,+3.00,-5.00,+1.00,+1.00
-13.00,-5.00,+0.00,-2.00,-9.00,-6.00,+1.00,+7.00,-2.00,-7.00,+0.00,-1.00,+15.00,+3.00,-1.00,-2.00
+15.00,+19.00,+3.00,+2.00,+14.00,+9.00,+2.00,+5.00,+5.00,+7.00,+0.00,+9.00,-4.00,-6.00,-1.00,+2.00
+8.00,-28.00,-8.00,-2.00,-5.00,-13.00,-6.00,-5.00,-1.00,+3.00,-4.00,-12.00,-3.00,-7.00,-5.00,-5.00
-26.00,-20.00,-12.00,-4.00,-6.00,+4.00,-7.00,-11.00,+23.00,+15.00,+0.00,-6.00,-17.00,+3.00,+2.00,+6.00
+3.00,+39.00,+7.00,+1.00,+6.00,+2.00,+2.00,-15.00,-13.00,-26.00,-1.00,+11.00,+8.00,-8.00,-3.00,-4.00
-3.00,-4.00,+9.00,+2.00,-2.00,+1.00,+2.00,+16.00,-1.00,-7.00,-3.00,-17.00,-2.00,+13.00,+2.00,-5.00
+9.00,+2.00,-2.00,-1.00,-2.00,+2.00,+2.00,+8.00,-22.00,-20.00,-6.00,-5.00,-4.00,-8.00,-3.00,-4.00
-2.00,+2.00,+2.00,-4.00,+9.00,+3.00,-2.00,-3.00,+47.00,+25.00,+4.00,-1.00,-5.00,+5.00,+3.00,+7.00
-20.00,-31.00,-6.00,-1.00,-7.00,-3.00,-1.00,-4.00,-7.00,-1.00,-4.00,+7.00,+9.00,-2.00,-1.00,+0.00
+10.00,+8.00,-1.00,+2.00,+3.00,-5.00,-3.00,-7.00,-25.00,-8.00,+1.00,-1.00,+0.00,-8.00,-2.00,-3.00
-39.00,+2.00,+5.00,+1.00,-11.00,+6.00,-3.00,-27.00,+24.00,+11.00,+3.00,+15.00,+21.00,+5.00,+4.00,+12.00
-13.00,-37.00,-10.00,-3.00,+5.00,-1.00,-1.00,-9.00,-28.00,-12.00,-6.00,-13.00,-9.00,-9.00,-2.00,-5.00
+2.00,+19.00,-9.00,-5.00,-1.00,-2.00,-3.00,+12.00,+9.00,-7.00,-4.00,+11.00,-8.00,+4.00,+3.00,+2.00
+11.00,+7.00,+13.00,+1.00,-2.00,-2.00,-2.00,+1.00,+15.00,+10.00,+1.00,+5.00,+13.00,+11.00,-1.00,+1.00
+16.00,+29.00,+3.00,+2.00,-2.00,-4.00,+4.00,+12.00,-10.00,+3.00,+3.00,-9.00,-20.00,+2.00,-4.00,-8.00
+6.00,+29.00,+5.00,-1.00,-3.00,-5.00,-2.00,-3.00,-15.00,-14.00,-8.00,-13.00,+1.00,-3.00,-2.00,-7.00
-4.00,-19.00,+0.00,+1.00,+7.00,+4.00,-2.00,-2.00,-6.00,+11.00,+3.00,-7.00,-7.00,-6.00,-4.00,-7.00
-13.00,-15.00,-15.00,-8.00,-2.00,-9.00,-4.00,-12.00,-1.00,-9.00,-1.00,-3.00,-13.00,-9.00,+7.00,+10.00
+23.00,+25.00,+15.00,+3.00,+8.00,+5.00,+4.00,+1.00,+11.00,+7.00,+5.00,+24.00,-17.00,+9.00,+2.00,+0.00
-11.00,+10.00,-3.00,+0.00,-18.00,+1.00,-5.00,+5.00,-11.00,-2.00,-9.00,-17.00,+12.00,-17.00,-8.00,-7.00
-8.00,-2.00,-4.00,+0.00,+13.00,+10.00,+6.00,+16.00,-17.00,-12.00,-9.00,-17.00,-1.00,+1.00,-6.00,-18.00
-2.00,-19.00,-7.00,-6.00,-15.00,-14.00,+2.00,-3.00,+28.00,+15.00,+4.00,-5.00,-11.00,-2.00,-1.00,+4.00
+1.00,-21.00,-4.00,+0.00,+1.00,+2.00,-4.00,-1.00,-36.00,-4.00,-4.00,-1.00,+12.00,-13.00,-3.00,-8.00
-3.00,-8.00,-4.00,-1.00,+19.00,+11.00,-3.00,-2.00,+46.00,-22.00,+0.00,+8.00,-8.00,+14.00,+9.00,+16.00
-31.00,-1.00,-1.00,-5.00,-21.00,-30.00,-3.00,-4.00,+41.00,+27.00,+5.00,-5.00,+0.00,-1.00,+1.00,+7.00
+32.00,+8.00,-10.00,-1.00,-6.00,+19.00,-5.00,-1.00,-4.00,-9.00,+1.00,+11.00,-1.00,-10.00,-13.00,-19.00
-47.00,-17.00,+10.00,+4.00,+2.00,+8.00,+3.00,-2.00,+10.00,+11.00,-5.00,-3.00,+0.00,+22.00,+3.00,+13.00
+8.00,-32.00,-5.00,-6.00,+18.00,+7.00,-1.00,-2.00,-45.00,+5.00,+5.00,+13.00,-6.00,-31.00,-15.00,-28.00
+3.00,-5.00,+1.00,+5.00,-12.00,-21.00,-5.00,-4.00,+31.00,+8.00,+0.00,-16.00,+0.00,+14.00,+13.00,+33.00
+23.00,+12.00,-1.00,+1.00,+6.00,-8.00,+3.00,+16.00,-33.00,-5.00,-7.00,-1.00,-8.00,+16.00,-2.00,-6.00
+5.00,+10.00,-9.00,-4.00,+2.00,-9.00,-4.00,+3.00,+65.00,+14.00,+6.00,-1.00,-2.00,-10.00,-3.00,+9.00
-2.00,-8.00,-7.00,-5.00,-14.00,-3.00,+5.00,-4.00,-61.00,-34.00,-10.00,-3.00,-8.00,+2.00,+0.00,-9.00
-22.00,-14.00,-5.00,-5.00,+15.00,+11.00,+3.00,+18.00,+10.00,-19.00,+2.00,+10.00,-2.00,-8.00,-5.00,-7.00
-6.00,-14.00,+11.00,+7.00,-1.00,-1.00,+3.00,-4.00,-22.00,+16.00,+1.00,-5.00,+1.00,-10.00,-6.00,-1.00
+4.00,-21.00,-11.00,-3.00,-5.00,-6.00,-4.00,-3.00,+25.00,+0.00,-5.00,+1.00,-11.00,-45.00,-5.00,-3.00
-10.00,+17.00,+4.00,-3.00,-9.00,-10.00,-7.00,-13.00,+19.00,+12.00,+7.00,+15.00,+29.00,+54.00,+10.00,+14.00
+24.00,-24.00,-12.00,+0.00,+1.00,+9.00,+6.00,-1.00,-29.00,-15.00,-10.00,-25.00,-26.00,-25.00,-14.00,-23.00
-30.00,+34.00,+11.00,+2.00,-8.00,-12.00,-7.00,-28.00,+5.00,-21.00,-2.00,-8.00,+4.00,+10.00,+12.00,+17.00
-21.00,-36.00,-13.00,-7.00,-11.00,-10.00,-17.00,-7.00,+37.00,+10.00,+3.00,-7.00,-2.00,+3.00,-2.00,-2.00
-3.00,-18.00,-7.00,-3.00,+0.00,+2.00,+16.00,-3.00,+11.00,+16.00,+3.00,-2.00,-22.00,-3.00,+0.00,-3.00
+21.00,+63.00,+28.00,+6.00,+11.00,+10.00,-2.00,-1.00,-6.00,+5.00,+4.00,+24.00,+52.00,-10.00,-1.00,+1.00
-5.00,-7.00,+0.00,-1.00,-3.00,+1.00,+4.00,+0.00,-24.00,-29.00,-14.00,-9.00,-16.00,-13.00,-18.00,-16.00
+8.00,+4.00,-1.00,+1.00,+2.00,+3.00,+6.00,-1.00,+11.00,+25.00,+18.00,+14.00,-17.00,-6.00,-12.00,+10.00
+2.00,+5.00,-5.00,-4.00,-19.00,-21.00,-18.00,+0.00,-12.00,-18.00,-10.00,-28.00,-25.00,-5.00,+23.00,+8.00
+3.00,-49.00,-13.00,-4.00,+29.00,+18.00,-13.00,-9.00,+33.00,+36.00,+3.00,+9.00,+6.00,+64.00,+19.00,-2.00
+12.00,+43.00,-2.00,-1.00,-34.00,-8.00,-3.00,-12.00,-21.00,+7.00,+7.00,+8.00,+2.00,-7.00,-3.00,-8.00
+18.00,+37.00,+21.00,+9.00,+9.00,-3.00,+3.00,+5.00,-45.00,-31.00,-7.00,-3.00,-4.00,+8.00,+1.00,-10.00
+9.00,-5.00,+14.00,+10.00,+9.00,+10.00,+5.00,+13.00,+40.00,+11.00,+0.00,+10.00,-4.00,-18.00,-8.00,+13.00
-12.00,-16.00,-6.00,-4.00,-2.00,-6.00,-2.00,+0.00,-36.00,-18.00,-11.00,-5.00,+6.00,+16.00,-9.00,-29.00
+24.00,-41.00,-18.00,-7.00,+3.00,+2.00,+9.00,-1.00,+55.00,+30.00,+13.00,-1.00,-7.00,-11.00,+13.00,+31.00
-5.00,+7.00,-3.00,-7.00,-1.00,-10.00,-2.00,+9.00,-22.00,+1.00,-6.00,-7.00,-3.00,+6.00,+2.00,-11.00
+1.00,+23.00,+13.00,+7.00,-23.00,+8.00,+4.00,+1.00,-15.00,-14.00,-1.00,+5.00,+4.00,-64.00,-15.00,+0.00
+17.00,-2.00,-1.00,-1.00,+9.00,-19.00,-18.00,+1.00,-29.00,-22.00,-5.00,-7.00,-32.00,+39.00,+1.00,-1.00
-19.00,+3.00,-3.00,-4.00,+4.00,+0.00,-15.00,-6.00,+45.00,-2.00,-4.00,+31.00,+40.00,-9.00,-11.00,-2.00
-3.00,-2.00,+1.00,+3.00,-16.00,-2.00,+1.00,-12.00,+8.00,+7.00,+2.00,-9.00,+6.00,+28.00,+3.00,+0.00
-38.00,-19.00,-5.00,-7.00,+25.00,-2.00,-13.00,+11.00,+2.00,+11.00,+1.00,-9.00,-19.00,-18.00,-5.00,+0.00
-1.00,-2.00,-3.00,-3.00,-41.00,+1.00,+22.00,+4.00,-12.00,-4.00,-2.00,-7.00,-22.00,-8.00,-3.00,+0.00
-12.00,+3.00,-16.00,-8.00,-14.00,-19.00,-9.00,-2.00,-58.00,-9.00,-4.00,-2.00,+20.00,+18.00,-9.00,-29.00
+26.00,-16.00,+10.00,+8.00,+16.00,+7.00,+9.00,+2.00,+64.00,+7.00,+1.00,+4.00,-11.00,-13.00,+1.00,+21.00
+12.00,+5.00,-2.00,+0.00,+1.00,+5.00,+0.00,-2.00,+12.00,+9.00,+4.00,-9.00,-7.00,+18.00,-1.00,-11.00
-23.00,-33.00,-12.00,-5.00,-11.00,+8.00,-15.00,-16.00,+3.00,+14.00,+14.00,+14.00,+6.00,-19.00,+0.00,+8.00
-10.00,+29.00,+8.00,+2.00,+20.00,+3.00,+22.00,+6.00,-5.00,-7.00,-8.00,-11.00,-9.00,-3.00,-10.00,-2.00
-1.00,-24.00,-19.00,-11.00,-34.00,+3.00,-4.00,-5.00,-59.00,-20.00,-14.00,-11.00,+15.00,+0.00,+0.00,-10.00
+9.00,+36.00,+12.00,-1.00,+11.00,+11.00,+5.00,+3.00,+17.00,-9.00,+2.00,+1.00,+6.00,+32.00,+3.00,+0.00
+0.00,+1.00,+0.00,+0.00,-1.00,-4.00,+4.00,-7.00,-30.00,-1.00,+0.00,+6.00,+12.00,-59.00,-4.00,+4.00
+5.00,-9.00,+7.00,+5.00,+31.00,-1.00,-2.00,+0.00,+30.00,-32.00,-6.00,+14.00,+12.00,+79.00,+16.00,-4.00
+5.00,+13.00,-8.00,-1.00,-31.00,-4.00,+1.00,-3.00,-47.00,-7.00,-5.00,-17.00,+21.00,-16.00,-4.00,-18.00
+8.00,-17.00,+2.00,+4.00,-11.00,-1.00,+5.00,+8.00,+35.00,+15.00,+9.00,+23.00,+1.00,+8.00,+8.00,+27.00
-7.00,-4.00,-2.00,-4.00,+6.00,+1.00,-9.00,-3.00,+18.00,+24.00,-3.00,-35.00,-29.00,-3.00,-9.00,-4.00
-30.00,+9.00,+4.00,-1.00,-2.00,+18.00,+9.00,-1.00,-35.00,-20.00,-7.00,+0.00,-13.00,-33.00,-4.00,-19.00
+19.00,-33.00,-5.00,-1.00,+12.00,-7.00,+3.00,-15.00,+4.00,+10.00,+3.00,-13.00,-13.00,-17.00,+0.00,+16.00
+13.00,+23.00,-17.00,-10.00,+0.00,-10.00,-21.00,-6.00,-10.00,-18.00,+3.00,+15.00,+16.00,+33.00,+3.00,+5.00
+0.00,+6.00,+18.00,+8.00,+1.00,+8.00,+10.00,+4.00,+24.00,+8.00,-3.00,+1.00,-10.00,-87.00,-9.00,+0.00
+10.00,+19.00,+3.00,+2.00,+1.00,+0.00,-17.00,+6.00,-66.00,-17.00,-9.00,-1.00,+12.00,-1.00,-41.00,-36.00
+15.00,+28.00,+3.00,-3.00,+17.00,+31.00,-11.00,+7.00,+96.00,+29.00,+15.00,-1.00,-18.00,+88.00,+53.00,+36.00
+8.00,+0.00,+2.00,+5.00,+2.00,-20.00,+22.00,-3.00,-25.00,+13.00,+0.00,+18.00,+9.00,-26.00,-13.00,-12.00
-6.00,-15.00,-4.00,-3.00,-16.00,+7.00,+1.00,+7.00,-4.00,-29.00,-4.00,+19.00,+8.00,+49.00,+10.00,+14.00
-11.00,-51.00,-13.00,+4.00,+19.00,+7.00,-16.00,-13.00,-32.00,+43.00,+2.00,-29.00,-48.00,-34.00,+20.00,-6.00
+7.00,+43.00,+19.00,+3.00,+22.00,-7.00,+5.00,+8.00,-35.00,-38.00,-9.00,+1.00,+10.00,-8.00,-37.00,-25.00
-12.00,-33.00,-12.00,-2.00,-27.00,-6.00,-1.00,-3.00,+32.00,+14.00,+2.00,-6.00,-4.00,+7.00,-5.00,+3.00
+5.00,+41.00,+21.00,+6.00,-14.00,-17.00,-8.00,+3.00,-87.00,-32.00,-4.00,+46.00,+40.00,+22.00,+12.00,-26.00
-7.00,-7.00,-1.00,-3.00,-2.00,+4.00,-3.00,-9.00,+83.00,+14.00,-1.00,-9.00,+1.00,+11.00,+33.00,+43.00
-22.00,-8.00,-18.00,-7.00,-3.00,-25.00,-24.00,+5.00,+19.00,+11.00,+3.00,-13.00,-7.00,+20.00,+13.00,+6.00
+5.00,+17.00,+23.00,+13.00,+3.00,+15.00,+12.00,+15.00,-42.00,-10.00,-12.00,-39.00,-35.00,-21.00,-5.00,-22.00
+11.00,+4.00,-8.00,-3.00,+10.00,+18.00,+14.00,+2.00,+36.00,+8.00,+3.00,+1.00,+4.00,+2.00,+1.00,+28.00
+4.00,-7.00,+2.00,-2.00,-16.00,+12.00,+9.00,+0.00,-14.00,-8.00,-2.00,-6.00,-10.00,-12.00,-5.00,+4.00
+0.00,-19.00,-20.00,-10.00,-13.00,-34.00,-31.00,-14.00,-8.00,+14.00,+2.00,+11.00,+1.00,-51.00,-4.00,+0.00
+7.00,+26.00,+20.00,+1.00,-9.00,-9.00,+22.00,+5.00,-7.00,+6.00,+4.00,+4.00,+17.00,+6.00,-5.00,+1.00
-7.00,+17.00,-6.00,-1.00,+34.00,+7.00,-1.00,+1.00,+2.00,-16.00,-8.00,-12.00,+5.00,+3.00,-2.00,-3.00
+7.00,-4.00,-5.00,-7.00,-21.00,-3.00,-28.00,-6.00,-72.00,-36.00,-7.00,+6.00,+6.00,-7.00,-5.00,-26.00
+0.00,+13.00,+8.00,-4.00,-3.00,+22.00,+31.00,+1.00,+47.00,-10.00,-2.00,+5.00,+0.00,+6.00,-11.00,+3.00
-1.00,-19.00,-6.00,+10.00,+63.00,-15.00,+3.00,+13.00,-28.00,+31.00,+9.00,+2.00,+10.00,+19.00,+7.00,-3.00
+4.00,-1.00,-2.00,-2.00,+17.00,-16.00,+17.00,-30.00,-60.00,-21.00,-3.00,-2.00,-17.00,-48.00,-17.00,-30.00
-22.00,-7.00,-6.00,-1.00,+4.00,-2.00,-8.00,+1.00,+92.00,+48.00,+11.00,-15.00,-17.00,+12.00,+12.00,+36.00
-34.00,-11.00,+5.00,+1.00,-11.00,-9.00,-1.00,+6.00,-80.00,-50.00,-12.00,+0.00,-19.00,-21.00,-17.00,-33.00
+12.00,-11.00,-7.00,+0.00,+18.00,+11.00,-9.00,-8.00,-16.00,-4.00,-5.00,+5.00,-2.00,-34.00,-4.00,-7.00
-3.00,+13.00,+0.00,-1.00,-17.00,+2.00,+3.00,-1.00,+14.00,+11.00,-4.00,-33.00,-19.00,+55.00,+10.00,+1.00
+18.00,+22.00,+11.00,+3.00,+9.00,+1.00,+2.00,+4.00,+25.00,+14.00,+0.00,+2.00,+1.00,-15.00,-15.00,-15.00
+21.00,+24.00,+0.00,-1.00,-2.00,+8.00,+10.00,-3.00,-33.00,+15.00,+15.00,+23.00,+19.00,-34.00,+18.00,+18.00
-14.00,-5.00,-4.00,-6.00,-17.00,+5.00,-8.00,-16.00,-48.00,-24.00,-11.00,-36.00,+6.00,+24.00,-9.00,-23.00
-8.00,-18.00,+3.00,+5.00,-3.00,+1.00,+2.00,+8.00,+91.00,+44.00,+21.00,+6.00,+16.00,+10.00,+11.00,+50.00
+23.00,-26.00,-4.00,-5.00,-2.00,+1.00,-6.00,-26.00,+2.00,+4.00,+3.00,+5.00,-18.00,-6.00,-7.00,-20.00
+2.00,-30.00,-7.00,+0.00,-8.00,-4.00,+17.00,+8.00,-20.00,-17.00,-13.00,-9.00,-4.00,-15.00,-11.00,-12.00
-6.00,+37.00,+6.00,-4.00,-6.00,+2.00,+13.00,+9.00,-3.00,-6.00,-1.00,+11.00,+13.00,+36.00,+4.00,-19.00
+13.00,+0.00,-8.00,-4.00,+5.00,+1.00,-12.00,+4.00,-43.00,-22.00,-10.00,+6.00,-7.00,-48.00,-16.00,-23.00
-7.00,+18.00,+1.00,+1.00,-26.00,-33.00,+16.00,+11.00,-38.00,-1.00,+3.00,+5.00,+17.00,-12.00,-3.00,-1.00
+23.00,-5.00,+1.00,+5.00,+35.00,+23.00,-3.00,+0.00,+32.00,+10.00,+3.00,-4.00,+5.00,+25.00,+7.00,+4.00
+4.00,-15.00,-8.00,-8.00,-27.00,-5.00,-20.00,-11.00,+61.00,+23.00,+5.00,+7.00,-2.00,-8.00,+5.00,+27.00
-22.00,+6.00,+0.00,+4.00,+12.00,-17.00,-12.00,-9.00,-41.00,-24.00,-10.00,-8.00,-11.00,-10.00,-14.00,-22.00
+7.00,-5.00,+11.00,+9.00,+25.00,+17.00,+20.00,+9.00,+11.00,-5.00,+8.00,+28.00,+13.00,-13.00,-3.00,+14.00
+4.00,+4.00,-7.00,-2.00,+6.00,+2.00,-2.00,-8.00,+39.00,+3.00,-13.00,-15.00,-7.00,+12.00,-9.00,-4.00
-34.00,-7.00,-13.00,-8.00,-18.00,-9.00,-15.00,-12.00,-23.00,-18.00,-9.00,-5.00,+4.00,+11.00,+9.00,+27.00
+14.00,-6.00,-7.00,-2.00,+0.00,+13.00,-19.00,-1.00,+76.00,+36.00,+4.00,-8.00,-5.00,-8.00,+3.00,+19.00
-11.00,-5.00,-11.00,-9.00,-9.00,-1.00,+11.00,+1.00,-10.00,-18.00,-7.00,-8.00,+3.00,+31.00,+1.00,-22.00
+0.00,+6.00,+3.00,+3.00,-1.00,-1.00,-3.00,+13.00,-47.00,+10.00,+9.00,+12.00,+11.00,+10.00,-9.00,-1.00
+27.00,-30.00,-3.00,+1.00,+14.00,+9.00,-15.00,-2.00,+47.00,-31.00,-3.00,+3.00,-2.00,-13.00,+1.00,+16.00
-1.00,+1.00,+2.00,+0.00,-15.00,-9.00,-4.00,+11.00,-17.00,+12.00,-3.00,-3.00,-1.00,+4.00,-2.00,+3.00
-14.00,+1.00,-9.00,-5.00,-1.00,-4.00,+15.00,+4.00,-9.00,+36.00,+11.00,+4.00,+15.00,-15.00,+2.00,+21.00
-29.00,+9.00,+17.00,+5.00,+16.00,+23.00,-3.00,-1.00,+10.00,-17.00,-9.00,+6.00,+1.00,+7.00,+5.00,+1.00
+4.00,+1.00,-3.00,-1.00,-35.00,-18.00,+4.00,-1.00,-9.00,+3.00,-3.00,-13.00,-13.00,-23.00,-6.00,-8.00
+11.00,-10.00,+0.00,-4.00,-8.00,-9.00,-24.00,-1.00,-18.00,-5.00,+3.00,+9.00,+18.00,+20.00,+9.00,-8.00
+19.00,+3.00,-4.00,-1.00,-7.00,-2.00,+0.00,-8.00,-52.00,-18.00,-14.00,-22.00,-40.00,-23.00,-15.00,-31.00
-1.00,-27.00,-20.00,-7.00,+9.00,-13.00,-27.00,-17.00,+81.00,+52.00,+15.00,+12.00,+17.00,+8.00,-3.00,+32.00
-18.00,+23.00,+6.00,+3.00,+12.00,+13.00,+20.00,+2.00,-41.00,-17.00,-7.00,-7.00,-1.00,-2.00,+22.00,+3.00
+7.00,+40.00,+23.00,+3.00,-3.00,+0.00,+11.00,+0.00,-64.00,-28.00,-1.00,+21.00,+20.00,+48.00,+6.00,-19.00
+3.00,-23.00,+2.00,+2.00,+6.00,+5.00,-10.00,+2.00,+99.00,+54.00,+9.00,-28.00,-12.00,-5.00,-1.00,+38.00
+26.00,+5.00,+3.00,+2.00,-16.00,-2.00,+9.00,+1.00,-61.00,-25.00,-10.00,-13.00,-1.00,-84.00,-21.00,-21.00
-46.00,-32.00,-10.00,-5.00,-3.00,+4.00,-6.00,-10.00,-9.00,-18.00,-8.00,-6.00,-26.00,+3.00,-16.00,-18.00
+27.00,-1.00,-8.00,-2.00,-7.00,-9.00,+16.00,+4.00,+15.00,+14.00,+9.00,-5.00,+7.00,-3.00,+6.00,+10.00
+13.00,+7.00,+2.00,-1.00,+1.00,-2.00,-20.00,+11.00,-71.00,-26.00,-8.00,+9.00,+14.00,-26.00,-4.00,-14.00
-2.00,+13.00,+4.00,-2.00,-16.00,+0.00,+9.00,+0.00,-11.00,-11.00,-2.00,+4.00,+3.00,-10.00,-3.00,+7.00
+14.00,-18.00,-6.00,+2.00,+15.00,+12.00,+6.00,-14.00,+95.00,+48.00,+9.00,+4.00,-4.00,+8.00,+4.00,+23.00
-23.00,-14.00,-5.00,-5.00,+9.00,+11.00,+10.00,-4.00,-20.00,-20.00,-11.00,-5.00,-9.00,+18.00,-2.00,-14.00
-21.00,+14.00,+2.00,-4.00,-35.00,-23.00,-52.00,+8.00,+0.00,-11.00,+2.00,+2.00,-3.00,-31.00,-4.00,+12.00
-34.00,-36.00,+0.00,+6.00,+20.00,+2.00,+11.00,+1.00,-46.00,-13.00,-6.00,-2.00,-6.00,+14.00,+0.00,-29.00
+26.00,+0.00,-4.00,-5.00,+4.00,-3.00,+11.00,+1.00,-37.00,-19.00,-5.00,+4.00,+18.00,-2.00,-8.00,+7.00
+5.00,-3.00,-2.00,-3.00,+6.00,-1.00,-5.00,+0.00,+11.00,+6.00,-4.00,-6.00,-5.00,-19.00,+1.00,-2.00
-8.00,+2.00,+3.00,+3.00,+4.00,+5.00,+10.00,-1.00,+1.00,-12.00,-2.00,+10.00,+8.00,+7.00,+9.00,+17.00
+4.00,+19.00,-9.00,-8.00,-18.00,-16.00,-4.00,-11.00,-22.00,-8.00,-4.00,-5.00,-3.00,+28.00,-1.00,-17.00
-2.00,-10.00,+4.00,+1.00,-2.00,-2.00,+3.00,+10.00,+8.00,+12.00,+8.00,+9.00,+1.00,+16.00,+0.00,-5.00
-13.00,-45.00,-10.00,-1.00,+1.00,+1.00,+3.00,-5.00,+19.00,-1.00,-2.00,+16.00,+2.00,-56.00,-21.00,-5.00
-7.00,+35.00,+10.00,+1.00,+7.00,+5.00,-4.00,+5.00,+16.00,-3.00,-5.00,-30.00,+0.00,+18.00,+17.00,+14.00
-5.00,-37.00,+1.00,+3.00,-3.00,-7.00,+12.00,+4.00,-51.00,-19.00,-10.00,-16.00,-3.00,-13.00,-4.00,-30.00
+10.00,+34.00,+5.00,+2.00,+0.00,-2.00,-13.00,+4.00,+15.00,+7.00,-2.00,-10.00,-16.00,-21.00,-11.00,-3.00
+29.00,-16.00,-9.00,-2.00,-1.00,+7.00,+0.00,-10.00,+26.00,+5.00,+1.00,+2.00,-5.00,-8.00,-2.00,+7.00
-21.00,-25.00,-3.00,-3.00,-8.00,-12.00,-4.00,+31.00,-26.00,-14.00,-7.00,-11.00,-4.00,+36.00,+2.00,-8.00
-13.00,+9.00,+0.00,-4.00,+3.00,+1.00,-4.00,-2.00,+48.00,+12.00,+6.00,+16.00,+17.00,+7.00,+27.00,+18.00
+9.00,+10.00,+1.00,-2.00,+1.00,-4.00,-20.00,+1.00,-5.00,+5.00,+1.00,+11.00,+10.00,-13.00,-9.00,-21.00
-3.00,+7.00,-3.00,+0.00,-9.00,+9.00,+20.00,+7.00,-18.00,-8.00,+1.00,-10.00,-13.00,+11.00,-2.00,-3.00
+15.00,+6.00,-5.00,-5.00,+2.00,+5.00,+11.00,-11.00,+23.00,+5.00,-4.00,-4.00,+8.00,-12.00,-7.00,+3.00
+4.00,-17.00,-6.00,-2.00,-2.00,-14.00,-8.00,+4.00,-53.00,-21.00,-3.00,-9.00,-15.00,+12.00,-3.00,-2.00
+11.00,-5.00,-5.00,+0.00,+20.00,+15.00,+9.00,+4.00,+6.00,+8.00,-1.00,+7.00,-2.00,-2.00,-3.00,-15.00
-15.00,+18.00,+8.00,+3.00,-37.00,-30.00,+5.00,-5.00,+93.00,+37.00,+8.00,+0.00,+0.00,+12.00,+11.00,+30.00
-5.00,-5.00,-6.00,-7.00,-4.00,+9.00,+10.00,-9.00,-6.00,-15.00,-2.00,+13.00,+8.00,+2.00,-1.00,-4.00
-44.00,-17.00,-5.00,-1.00,-7.00,-10.00,-31.00,-14.00,-24.00,-6.00,-1.00,+2.00,-2.00,+16.00,-1.00,+0.00
+9.00,+15.00,+3.00,-2.00,+0.00,-4.00,-24.00,-8.00,-21.00,-10.00,-3.00,-5.00,+1.00,+1.00,+2.00,-5.00
-11.00,+4.00,+1.00,-1.00,-7.00,+7.00,+10.00,+2.00,-56.00,-22.00,-6.00,-6.00,-4.00,-9.00,-5.00,-10.00
-10.00,-13.00,-3.00,+0.00,+18.00,+17.00,+3.00,-3.00,+46.00,+23.00,+3.00,-4.00,-11.00,-20.00,+1.00,+10.00
+8.00,+8.00,-4.00,-1.00,-18.00,-21.00,-5.00,-3.00,-43.00,-15.00,-3.00,+5.00,-2.00,-31.00,-8.00,-14.00
-4.00,-21.00,-8.00,-1.00,-5.00,+0.00,+3.00,+5.00,+24.00,+12.00,+2.00,+6.00,+4.00,-2.00,-7.00,-11.00
-30.00,-22.00,-20.00,-8.00,-6.00,-6.00,-13.00,+17.00,+26.00,+0.00,+6.00,+23.00,+12.00,-7.00,-1.00,+13.00
+13.00,+19.00,+14.00,+4.00,+4.00,+0.00,+9.00,+4.00,-5.00,-8.00,-4.00,+13.00,+30.00,+62.00,+1.00,-22.00
-4.00,-11.00,+1.00,+0.00,+10.00,+14.00,+3.00,-5.00,-8.00,+4.00,-5.00,-32.00,-17.00,+21.00,-5.00,+4.00
+7.00,+3.00,+4.00,+1.00,-1.00,-6.00,-1.00,-1.00,-49.00,-16.00,-4.00,-6.00,-9.00,+5.00,+2.00,-18.00
+3.00,+0.00,+2.00,-2.00,+0.00,-1.00,-4.00,-2.00,-78.00,-44.00,-22.00,-19.00,-13.00,-17.00,-11.00,-24.00
+25.00,-8.00,-5.00,+0.00,+5.00,+0.00,+3.00,-11.00,+77.00,+70.00,+34.00,+34.00,+17.00,+9.00,+15.00,+42.00
-14.00,-2.00,-7.00,-4.00,-2.00,+0.00,+5.00,+23.00,+8.00,-1.00,-5.00,-26.00,-14.00,-2.00,-2.00,+3.00
+6.00,-2.00,-4.00,-3.00,-9.00,-8.00,-10.00,-19.00,-36.00,-20.00,-7.00,-10.00,-5.00,-3.00,-5.00,-7.00
+33.00,-18.00,-2.00,+0.00,+6.00,+5.00,+2.00,+19.00,-37.00,-11.00,-5.00,-10.00,-5.00,+9.00,-2.00,-8.00
-15.00,+3.00,+12.00,+5.00,+9.00,+6.00,+4.00,+1.00,-11.00,-14.00,-7.00,-4.00,-19.00,-13.00,-6.00,-11.00
-5.00,+7.00,+2.00,+2.00,+28.00,+3.00,-20.00,-3.00,+2.00,+18.00,+8.00,+12.00,+7.00,+4.00,+1.00,+3.00
+15.00,+43.00,+7.00,-1.00,-39.00,-39.00,+5.00,-1.00,-4.00,-9.00,-6.00,-3.00,-5.00,-14.00,-4.00,+2.00
+9.00,-9.00,+1.00,+3.00,+15.00,+7.00,-4.00,-6.00,-31.00,-13.00,+3.00,-4.00,-4.00,+0.00,+0.00,-5.00
-25.00,-25.00,-22.00,-10.00,-7.00,-13.00,-3.00,-7.00,-18.00,-37.00,-11.00,-7.00,-6.00,-9.00,-10.00,-11.00
+2.00,-16.00,+12.00,+10.00,+19.00,+15.00,+8.00,-5.00,+13.00,+23.00,+16.00,+20.00,+10.00,-1.00,+5.00,-2.00
+6.00,+23.00,-2.00,+2.00,+35.00,+15.00,+4.00,+6.00,-30.00,+7.00,-5.00,+3.00,+12.00,-34.00,-2.00,-9.00
-34.00,-10.00,-3.00,-3.00,-6.00,-11.00,-8.00,-14.00,+7.00,-34.00,-3.00,-6.00,-6.00,+17.00,-2.00,+9.00
-26.00,-24.00,-10.00,-4.00,-13.00,-9.00,-8.00,-12.00,-9.00,+17.00,-2.00,-8.00,-9.00,-10.00,-8.00,-8.00
+11.00,+22.00,+12.00,+0.00,-2.00,+8.00,+7.00,-1.00,+35.00,+21.00,+1.00,+4.00,+4.00,+4.00,+10.00,+33.00
+7.00,+8.00,-4.00,+0.00,-1.00,+5.00,-1.00,+5.00,-28.00,-26.00,-4.00,+27.00,-3.00,-9.00,+1.00,-8.00
-6.00,-13.00,-5.00,-4.00,-6.00,-5.00,-2.00,-8.00,+59.00,+56.00,+5.00,-23.00,+9.00,+15.00,+0.00,+12.00
+17.00,+14.00,+3.00,+0.00,+8.00,+3.00,+3.00,+6.00,-53.00,-56.00,-19.00,-29.00,-30.00,-23.00,-14.00,-13.00
+14.00,-47.00,-14.00,-7.00,-14.00,-1.00,+1.00,-6.00,+34.00,+7.00,-7.00,+3.00,-4.00,+3.00,-3.00,-12.00
-54.00,+51.00,+17.00,+4.00,+2.00,+4.00,+7.00,-1.00,+25.00,-35.00,+0.00,+9.00,+5.00,-8.00,+6.00,+21.00
-23.00,-14.00,-7.00,+0.00,+12.00,+5.00,-1.00,-2.00,-1.00,+60.00,+13.00,-10.00,-14.00,-15.00,-15.00,-22.00
+14.00,+23.00,+4.00,+2.00,-12.00,-12.00,-10.00,-4.00,-85.00,-76.00,-14.00,+5.00,+5.00,+46.00,-4.00,-30.00
+23.00,-25.00,-10.00,-2.00,-7.00,-4.00,+8.00,-5.00,+17.00,+45.00,+21.00,+8.00,+8.00,+14.00,+6.00,+12.00
+0.00,+48.00,+13.00,+4.00,-1.00,+1.00,+1.00,+20.00,+51.00,-4.00,-4.00,-1.00,-2.00,+18.00,+7.00,+14.00
-31.00,-22.00,-18.00,-11.00,-13.00,+6.00,-1.00,-11.00,+102.00,+1.00,-5.00,+27.00,+31.00,-2.00,+6.00,+13.00
-3.00,-4.00,-8.00,+0.00,+19.00,+3.00,-10.00,-7.00,-89.00,+33.00,+7.00,-18.00,-4.00,-12.00,+1.00,-12.00
+27.00,+66.00,+10.00,-2.00,-21.00,-30.00,+8.00,-8.00,+36.00,-3.00,+3.00,-2.00,-7.00,-10.00,-7.00,+0.00
-61.00,-110.00,-11.00,-5.00,-3.00,+5.00,-7.00,-22.00,+38.00,+30.00,+8.00,-6.00,-2.00,+9.00,+2.00,+12.00
+50.00,+52.00,+16.00,+6.00,+3.00,+2.00,+3.00,+9.00,-35.00,+8.00,+18.00,+38.00,+22.00,+10.00,+5.00,-6.00
+24.00,+20.00,-9.00,-2.00,+8.00,+4.00,-2.00,-3.00,+13.00,-27.00,-16.00,-28.00,-23.00,-20.00,+6.00,+29.00
-10.00,+43.00,-3.00,-7.00,-13.00,-1.00,-15.00,-10.00,+39.00,-24.00,-15.00,-3.00,+3.00,-11.00,+0.00,+10.00
+21.00,-15.00,+30.00,+13.00,+14.00,+7.00,+9.00,+3.00,-72.00,+63.00,+12.00,-9.00,+1.00,+4.00,-7.00,-29.00
-1.00,+7.00,-7.00,-7.00,+1.00,+0.00,-10.00,+8.00,+24.00,-13.00,-3.00,+0.00,-17.00,+5.00,+7.00,+13.00
-14.00,-40.00,+1.00,+5.00,-13.00,+17.00,+17.00,+6.00,+53.00,+16.00,+0.00,+8.00,+8.00,-15.00,-2.00,-3.00
-1.00,-18.00,-6.00,-5.00,-5.00,-14.00,-3.00,+19.00,-48.00,-42.00,-8.00,-6.00,-5.00,-49.00,-15.00,-26.00
-47.00,-29.00,-10.00,-5.00,-6.00,-6.00,-12.00,-25.00,-13.00,-3.00,-1.00,-4.00,-3.00,+70.00,+3.00,+7.00
-41.00,+12.00,+0.00,-1.00,-4.00,-6.00,-9.00,-9.00,+25.00,+31.00,+3.00,+9.00,+4.00,+4.00,+0.00,-4.00
-20.00,+20.00,+15.00,-1.00,-9.00,+31.00,-7.00,-5.00,-9.00,-48.00,-8.00,+4.00,+1.00,-4.00,+1.00,+0.00
-62.00,-17.00,-6.00,-4.00,-2.00,-39.00,-12.00,-35.00,+7.00,-22.00,-9.00,-8.00,-7.00,-13.00,-7.00,-6.00
+6.00,-21.00,-18.00,-8.00,-7.00,-4.00,-1.00,+0.00,-39.00,-33.00,-9.00,-14.00,-6.00,-16.00,-10.00,-29.00
+16.00,-3.00,-13.00,-7.00,-3.00,-6.00,+3.00,+24.00,-18.00,+0.00,+1.00,+15.00,+5.00,-12.00,+1.00,+3.00
-1.00,-56.00,+11.00,+2.00,-8.00,-6.00,+7.00,+4.00,+71.00,+46.00,+5.00,-1.00,-21.00,+4.00,-4.00,+0.00
+13.00,+48.00,+19.00,+8.00,+10.00,+13.00,+4.00,+13.00,-79.00,-42.00,-17.00,-17.00,-19.00,+2.00,+0.00,+3.00
+24.00,-7.00,-16.00,-5.00,+2.00,+2.00,-1.00,-16.00,-36.00,-18.00,+7.00,-6.00,+1.00,-44.00,-9.00,+8.00
+0.00,-1.00,+10.00,+6.00,+3.00,-3.00,-7.00,-10.00,-8.00,-21.00,-8.00,-2.00,+1.00,+41.00,+5.00,-4.00
+14.00,-14.00,-15.00,-2.00,+3.00,+0.00,+10.00,+18.00,+34.00,+44.00,+5.00,+4.00,-6.00,+2.00,+3.00,+1.00
-15.00,-18.00,+5.00,+1.00,-14.00,+6.00,-1.00,-6.00,-60.00,-50.00,-1.00,+39.00,+89.00,-13.00,-4.00,-15.00
+28.00,-15.00,-5.00,-1.00,+12.00,+17.00,+3.00,+6.00,+24.00,-6.00,-19.00,-47.00,-64.00,-25.00,-4.00,+3.00
+3.00,+32.00,+3.00,-1.00,-11.00,-16.00,-5.00,-5.00,-26.00,-16.00,-8.00,-6.00,-9.00,-34.00,-5.00,+2.00
-13.00,-8.00,-18.00,-9.00,-2.00,+1.00,+6.00,-3.00,+17.00,-40.00,-6.00,+5.00,+8.00,+7.00,-1.00,+13.00
+16.00,-17.00,+6.00,+7.00,-32.00,+0.00,+4.00,+1.00,-30.00,-16.00,+2.00,+28.00,+2.00,+17.00,+0.00,-1.00
+17.00,+52.00,-7.00,-11.00,+39.00,-7.00,-4.00,+11.00,+29.00,-3.00,+4.00,-6.00,+15.00,+6.00,-7.00,-9.00
+3.00,+32.00,+27.00,+11.00,-27.00,-9.00,+21.00,-2.00,-65.00,-72.00,-14.00,-7.00,-1.00,-9.00,+17.00,-3.00
-10.00,+13.00,-4.00,-7.00,-36.00,-44.00,-2.00,+16.00,+15.00,-9.00,+4.00,+13.00,+2.00,+19.00,-3.00,-21.00
-7.00,-43.00,-20.00,-5.00,+45.00,+46.00,-3.00,+15.00,+40.00,+59.00,+2.00,-14.00,-25.00,+1.00,+4.00,+10.00
+61.00,+70.00,+19.00,+0.00,-32.00,+22.00,-10.00,+7.00,-57.00,-46.00,+1.00,+30.00,+24.00,+10.00,+1.00,+1.00
+30.00,-26.00,+0.00,+2.00,+45.00,-4.00,-11.00,+5.00,+10.00,-6.00,-9.00,-25.00,-25.00,-9.00,-5.00,+6.00
+15.00,+32.00,-7.00,-8.00,+5.00,-19.00,-11.00,-13.00,-73.00,+26.00,+8.00,+1.00,+9.00,-23.00,-1.00,-3.00
+15.00,+22.00,+6.00,+1.00,-19.00,-12.00,+2.00,+13.00,+14.00,+31.00,-2.00,-6.00,-16.00,+9.00,-1.00,-1.00
-63.00,-49.00,-33.00,-9.00,-7.00,+6.00,-4.00,-8.00,-10.00,-18.00,-10.00,-7.00,-10.00,+1.00,-3.00,+0.00
+39.00,+52.00,+29.00,+8.00,+17.00,+6.00,+0.00,-19.00,-15.00,-25.00,-19.00,-7.00,-1.00,-39.00,-18.00,-16.00
-13.00,+15.00,+6.00,-2.00,-14.00,+3.00,+0.00,+22.00,+63.00,+27.00,+24.00,+32.00,+45.00,+44.00,+10.00,+18.00
+12.00,-27.00,-25.00,-5.00,+23.00,+17.00,+5.00,+3.00,+12.00,+12.00,-9.00,-32.00,-31.00,-3.00,-15.00,-21.00
-22.00,-7.00,-22.00,-9.00,-10.00,-22.00,-3.00,-8.00,-31.00,+14.00,-10.00,-37.00,-20.00,-8.00,+2.00,+5.00
-27.00,+17.00,+24.00,+5.00,-14.00,+4.00,-4.00,-21.00,-45.00,-14.00,-15.00,-28.00,-17.00,-12.00,-13.00,-15.00
-19.00,-19.00,-4.00,+2.00,+14.00,-5.00,-1.00,-24.00,+63.00,+60.00,+17.00,+17.00,+20.00,-20.00,+4.00,+37.00
-1.00,+62.00,+10.00,-2.00,-15.00,-6.00,+2.00,+7.00,-34.00,-80.00,-27.00,+7.00,-8.00,+33.00,+1.00,-30.00
+1.00,-60.00,+3.00,+2.00,-6.00,-6.00,+10.00,+9.00,+47.00,+50.00,+34.00,+31.00,+23.00,+4.00,+10.00,+27.00
-3.00,+21.00,-24.00,-13.00,-13.00,-3.00,-10.00,-6.00,+8.00,+2.00,-13.00,-35.00,-22.00,+3.00,-9.00,-6.00
+20.00,+27.00,-15.00,-8.00,+1.00,+4.00,-5.00,-12.00,+6.00,-12.00,-3.00,-12.00,-17.00,-20.00,+4.00,+8.00
-5.00,-37.00,+19.00,+7.00,+22.00,+24.00,+1.00,+4.00,+17.00,+78.00,+22.00,+16.00,+16.00,+21.00,+3.00,+17.00
+11.00,+78.00,+13.00,-2.00,+2.00,-28.00,+0.00,+1.00,-94.00,-90.00,-25.00,+27.00,-1.00,-5.00,-14.00,-43.00
+18.00,-51.00,-19.00,-4.00,-18.00,-25.00,-1.00,+12.00,+37.00,+7.00,+12.00,-10.00,-4.00,+11.00,+16.00,+33.00
+24.00,+26.00,-2.00,-7.00,+4.00,-7.00,-7.00,-10.00,-111.00,-19.00,-20.00,-11.00,-13.00,-5.00,-10.00,-40.00
+15.00,-33.00,-34.00,-8.00,-6.00,-2.00,-9.00,-15.00,+31.00,+53.00,+20.00,-6.00,+4.00,-11.00,-2.00,+7.00
-11.00,+37.00,+31.00,+1.00,+1.00,+0.00,+1.00,+1.00,+68.00,+37.00,+13.00,+53.00,+30.00,-7.00,+10.00,+16.00
-39.00,-16.00,-3.00,+10.00,+1.00,+29.00,+21.00,+3.00,+74.00,+109.00,+14.00,-30.00,+27.00,+17.00,-6.00,+6.00
-10.00,-3.00,+4.00,+4.00,+0.00,-5.00,+0.00,+1.00,-69.00,-102.00,-34.00,-14.00,-17.00,-16.00,-8.00,-9.00
-11.00,-2.00,-3.00,+2.00,+6.00,+2.00,+3.00,-8.00,+28.00,+44.00,+19.00,-4.00,-19.00,+12.00,+6.00,+4.00
+19.00,-110.00,-37.00,-5.00,-8.00,+5.00,-10.00,-7.00,+27.00,-24.00,+1.00,-11.00,-1.00,-7.00,+3.00,+0.00
-30.00,+54.00,+3.00,-16.00,-13.00,-4.00,-11.00,-15.00,+11.00,+87.00,+47.00,+51.00,+33.00,+12.00,+10.00,+19.00
-6.00,-25.00,+15.00,+20.00,+19.00,-20.00,+9.00,+9.00,-34.00,-99.00,-52.00,-42.00,-29.00,-15.00,-7.00,-10.00
-15.00,+99.00,+22.00,-8.00,+0.00,-1.00,-5.00,-2.00,-53.00,-29.00,+10.00,-5.00,-5.00,-16.00,-11.00,-29.00
-3.00,-83.00,-8.00,+5.00,+6.00,+0.00,+3.00,-1.00,-94.00,-90.00,-20.00,-18.00,-15.00,+4.00,-6.00,-10.00
+37.00,+27.00,+23.00,+6.00,+36.00,+17.00,-12.00,+19.00,+86.00,+41.00,+24.00,+23.00,+14.00,+7.00,+16.00,+44.00
-2.00,+4.00,-6.00,+0.00,-7.00,-4.00,-9.00,-7.00,-23.00,+29.00,+18.00,+17.00,+18.00,+18.00,+11.00,+11.00
+51.00,+8.00,-30.00,-18.00,-31.00,-22.00,-5.00,-3.00,-47.00,-40.00,-14.00,+20.00,+5.00,-8.00,-3.00,-4.00
-6.00,-8.00,+28.00,+21.00,-15.00,+3.00,+8.00,+18.00,-16.00,+33.00,-7.00,-25.00,+3.00,-5.00,-1.00,+1.00
-30.00,-55.00,-32.00,-8.00,+36.00,+26.00,+1.00,+12.00,-88.00,-128.00,-32.00,+21.00,-15.00,+22.00,-1.00,-19.00
+3.00,-3.00,+18.00,+0.00,-26.00,-6.00,+2.00,+5.00,+66.00,+66.00,+18.00,-20.00,+22.00,-10.00,+0.00,+9.00
-50.00,-42.00,-68.00,-21.00,+1.00,-24.00,-13.00,-20.00,-36.00,-50.00,-19.00,-15.00,-14.00,-11.00,-5.00,-17.00
+13.00,+25.00,+26.00,+1.00,-15.00,-8.00,-9.00,+4.00,+41.00,+85.00,+19.00,+36.00,+8.00,+1.00,+4.00,+17.00
+22.00,+17.00,-16.00,-3.00,-1.00,-3.00,+8.00,-8.00,-128.00,-86.00,-25.00,-38.00,-13.00,+17.00,-20.00,-41.00
-2.00,+21.00,+57.00,+12.00,+10.00,+11.00,+0.00,+0.00,+127.00,+89.00,+51.00,+10.00,-23.00,+14.00,+20.00,+50.00
-34.00,-54.00,+7.00,+7.00,+13.00,+16.00,+14.00,+18.00,+23.00,-43.00,-19.00,+1.00,+6.00,-1.00,+0.00,-8.00
+6.00,+15.00,-14.00,-9.00,-10.00,+1.00,-1.00,-13.00,+73.00,+100.00,+26.00,+20.00,+26.00,+16.00,+1.00,+10.00
-39.00,-31.00,-34.00,-10.00,-23.00,-20.00,-7.00,-14.00,+49.00,-78.00,-17.00,-17.00,-2.00,-18.00,-3.00,-24.00
+47.00,+25.00,+0.00,-6.00,-7.00,+6.00,-5.00,-1.00,-2.00,+61.00,+36.00,+25.00,+8.00,+7.00,+1.00,-10.00
-3.00,+1.00,-22.00,-7.00,+3.00,-11.00,-4.00,-2.00,+95.00,-60.00,-16.00,-22.00,-4.00,+0.00,+10.00,+46.00
+54.00,+85.00,+95.00,+25.00,+40.00,+0.00,+10.00,+19.00,+27.00,+48.00,+11.00,-10.00,-7.00,-3.00,-2.00,+3.00
-15.00,-71.00,-36.00,-18.00,-51.00,-7.00,-6.00,-37.00,-51.00,+54.00,+20.00,+37.00,+18.00,+1.00,+0.00,-22.00
-12.00,-20.00,-16.00,+1.00,-12.00,-5.00,-6.00,-4.00,-15.00,-4.00,-26.00,-12.00,-8.00,-20.00,+2.00,+10.00
-20.00,-1.00,+25.00,+21.00,+41.00,+5.00,+26.00,+9.00,-105.00,-34.00,-26.00,-5.00,+0.00,+15.00,+0.00,-17.00
+2.00,+52.00,+36.00,+0.00,-10.00,-6.00,+3.00,+12.00,+6.00,+73.00,+26.00,-2.00,-4.00,-2.00,-8.00,-13.00
+1.00,-53.00,-10.00,+1.00,+28.00,-6.00,-2.00,+1.00,-14.00,-74.00,-36.00,-12.00,-11.00,-9.00,+2.00,+16.00
-41.00,+4.00,-14.00,-5.00,+1.00,-4.00,+6.00,+1.00,-40.00,+72.00,+7.00,+0.00,-8.00,-8.00,-19.00,-49.00
+33.00,+10.00,+60.00,+29.00,+8.00,+22.00,+21.00,+17.00,-86.00,+17.00,+16.00,+11.00,+3.00,-12.00,-3.00,-5.00
-33.00,-50.00,-67.00,-17.00,-3.00,-3.00,-1.00,-12.00,-80.00,-72.00,-22.00,+12.00,+19.00,+11.00,-3.00,-28.00
-40.00,-66.00,-29.00,-5.00,-3.00,-6.00,-9.00,-7.00,+76.00,+42.00,-2.00,-28.00,-37.00,-10.00,-3.00,+15.00
+20.00,-34.00,+20.00,+16.00,+13.00,+24.00,+3.00,+2.00,-92.00,-55.00,-7.00,-12.00,-35.00,+5.00,-2.00,-14.00
-49.00,+98.00,+3.00,-17.00,-20.00,-13.00,-17.00,+2.00,+67.00,+12.00,-5.00,+28.00,+72.00,-6.00,+1.00,+27.00
-24.00,-55.00,-52.00,-17.00,-16.00,-7.00,-5.00,-11.00,+41.00,-97.00,+3.00,-12.00,-20.00,+4.00,+7.00,+5.00
+5.00,+7.00,+41.00,+15.00,-2.00,+5.00,-3.00,-3.00,-124.00,-16.00,-19.00,-17.00,-32.00,-36.00,-22.00,-47.00
+3.00,-51.00,-58.00,-22.00,+1.00,-6.00,-1.00,-4.00,+29.00,-28.00,+4.00,+5.00,+11.00,+2.00,+8.00,+27.00
+24.00,-80.00,+3.00,+10.00,-9.00,-3.00,-1.00,-7.00,+94.00,-63.00,-59.00,-18.00,-21.00,+6.00,-5.00,-2.00
+4.00,+48.00,-23.00,-4.00,+14.00,+7.00,+0.00,-6.00,+63.00,+44.00,+53.00,+17.00,+22.00,-3.00,+15.00,+31.00
-16.00,-20.00,+38.00,+7.00,-34.00,-6.00,+3.00,+13.00,+53.00,+15.00,-3.00,-3.00,+0.00,-20.00,-4.00,+3.00
+55.00,+31.00,+0.00,-2.00,-9.00,-8.00,-7.00,+1.00,+28.00,-10.00,-12.00,+5.00,-1.00,+3.00,-14.00,-34.00
+31.00,-27.00,+24.00,+9.00,+32.00,+8.00,-2.00,+1.00,-128.00,-128.00,-12.00,-15.00,-14.00,-17.00,-6.00,-33.00
-41.00,-42.00,-47.00,-24.00,-32.00,+20.00,-9.00,-16.00,+67.00,-22.00,-25.00,-12.00,-5.00,+0.00,+6.00,+52.00
+99.00,+83.00,+94.00,+35.00,+26.00,+0.00,+7.00,+30.00,+14.00,+15.00,-3.00,-7.00,-8.00,-4.00,-11.00,-34.00
-79.00,-69.00,-41.00,-14.00,+0.00,-2.00,+4.00,-11.00,+27.00,+21.00,+9.00,+11.00,+19.00,+11.00,+21.00,+74.00
-7.00,-70.00,-19.00,-3.00,-15.00,+0.00,-3.00,-12.00,+35.00,+96.00,+23.00,+1.00,-6.00,-4.00,+1.00,+2.00
-54.00,-113.00,-36.00,-9.00,+0.00,-1.00,-12.00,+7.00,+69.00,+65.00,+7.00,-10.00,-13.00,+6.00,+0.00,+12.00
+70.00,+57.00,+25.00,+12.00,+14.00,+16.00,+7.00,+16.00,+29.00,-68.00,-10.00,+27.00,+20.00,+20.00,+11.00,+35.00
-5.00,-9.00,-5.00,-10.00,-3.00,-10.00,-6.00,-19.00,+14.00,+0.00,-6.00,-13.00,-5.00,-16.00,-18.00,-47.00
+24.00,+91.00,+70.00,+13.00,-3.00,+3.00,-2.00,+11.00,-23.00,+39.00,+43.00,+15.00,+6.00,+11.00,+16.00,+19.00
+35.00,+84.00,-72.00,-34.00,-7.00,-17.00,-3.00,-16.00,-128.00,-93.00,-32.00,-9.00,-7.00,+4.00,-2.00,-14.00
-17.00,-16.00,+11.00,+10.00,-1.00,+0.00,+8.00,+11.00,-74.00,+11.00,-18.00,-26.00,-17.00,-34.00,-27.00,-63.00
-83.00,-48.00,-51.00,-15.00,+0.00,-9.00,-14.00,-17.00,+95.00,-7.00,+41.00,+50.00,+37.00,+36.00,+33.00,+79.00
+83.00,+89.00,+19.00,-1.00,-7.00,+1.00,+9.00,+30.00,-30.00,-31.00,-22.00,-24.00,-25.00,-24.00,-17.00,-29.00
-4.00,-34.00,+31.00,+19.00,+2.00,+2.00,+5.00,-2.00,-108.00,-128.00,-40.00,-15.00,-9.00,-9.00,-12.00,-42.00
-1.00,+12.00,-40.00,-14.00,-6.00,-7.00,-3.00,-2.00,-21.00,+102.00,+26.00,+20.00,+15.00,-1.00,-6.00,-27.00
-6.00,-82.00,-20.00,-2.00,+28.00,+22.00,-3.00,-16.00,-24.00,-20.00,-11.00,-1.00,+3.00,-3.00,+2.00,-15.00
+2.00,-46.00,-33.00,-5.00,-31.00,-20.00,-17.00,-55.00,+8.00,+12.00,+11.00,-11.00,-14.00,+4.00,-8.00,-18.00
+37.00,+66.00,+61.00,+20.00,+14.00,+4.00,+12.00,+27.00,+48.00,-64.00,-23.00,-5.00,+0.00,-12.00,+11.00,+53.00
-7.00,-48.00,-36.00,-3.00,+6.00,+10.00,+9.00,+18.00,+50.00,+61.00,+55.00,+30.00,+24.00,+23.00,+20.00,+18.00
+7.00,+39.00,-51.00,-19.00,-8.00,-12.00,-16.00,-15.00,+3.00,+57.00,+46.00,+2.00,-1.00,+10.00,-8.00,+1.00
+35.00,+105.00,+90.00,+30.00,+32.00,+26.00,+17.00,+19.00,+127.00,+67.00,+27.00,+7.00,+0.00,-4.00,-3.00,+6.00
-5.00,+59.00,-14.00,-12.00,-19.00,-20.00,-16.00,-18.00,-95.00,-38.00,-18.00,-2.00,-2.00,-3.00,-9.00,-33.00
+40.00,+51.00,+12.00,-6.00,+1.00,-5.00,-1.00,-20.00,-76.00,-54.00,-30.00,-18.00,-11.00,+14.00,-7.00,-14.00
+26.00,+30.00,+29.00,+12.00,-2.00,+6.00,+2.00,+3.00,-61.00,+74.00,-33.00,-30.00,-22.00,-31.00,-14.00,-44.00
-20.00,+48.00,-6.00,-16.00,-7.00,-6.00,-5.00,-2.00,+80.00,+57.00,+32.00,+17.00,+12.00,+8.00,+9.00,+55.00
-32.00,-94.00,+2.00,-3.00,-5.00,-2.00,-6.00,+0.00,-57.00,+9.00,-4.00,-20.00,-23.00,-12.00,-23.00,-45.00
-38.00,+77.00,-59.00,-32.00,-12.00,-11.00,-18.00,-36.00,+40.00,+78.00,+34.00,+22.00,+18.00,+17.00,+30.00,+38.00
+94.00,-4.00,+125.00,+58.00,+35.00,+28.00,+41.00,+77.00,-127.00,-128.00,-62.00,-16.00,-11.00,-21.00,-20.00,-24.00
-110.00,-97.00,-66.00,-24.00,-19.00,-15.00,-24.00,-19.00,-109.00,-100.00,-62.00,-38.00,-26.00,-14.00,-16.00,-22.00
+65.00,+19.00,+37.00,+23.00,+21.00,+11.00,+11.00,+0.00,+9.00,+115.00,+35.00,+18.00,+18.00,+40.00,+20.00,+2.00
-30.00,-104.00,+65.00,+24.00,+4.00,+4.00,+5.00,-4.00,+66.00,-92.00,+8.00,+7.00,+2.00,-9.00,+4.00,+54.00
-62.00,-17.00,-70.00,-31.00,-13.00,-15.00,-16.00,-25.00,+44.00,+6.00,-13.00,+9.00,+4.00,+0.00,-11.00,-8.00
-39.00,-92.00,-84.00,-29.00,-38.00,-17.00,-15.00,-50.00,-111.00,-87.00,-43.00,+0.00,+18.00,+1.00,-12.00,-33.00
+29.00,+44.00,+57.00,+28.00,+14.00,+18.00,+24.00,+40.00,+103.00,+65.00,+12.00,-27.00,-36.00,-12.00,+15.00,+41.00
-40.00,-20.00,-53.00,-29.00,-12.00,-11.00,-15.00,-12.00,-19.00,-107.00,-17.00,-8.00,-5.00,+13.00,+8.00,+14.00
-9.00,-49.00,+37.00,+23.00,+13.00,+10.00,+19.00,+34.00,-43.00,-30.00,-1.00,-12.00,-8.00,-18.00,-20.00,-24.00
-1.00,+0.00,-35.00,-22.00,-7.00,-3.00,-3.00,-5.00,-52.00,+81.00,+30.00,+28.00,+22.00,+46.00,+20.00,+9.00
-95.00,-101.00,-105.00,-43.00,-27.00,-23.00,-32.00,-48.00,+44.00,+65.00,-7.00,-8.00,+0.00,-27.00,-23.00,-25.00
+45.00,-10.00,+94.00,+52.00,+25.00,+17.00,+29.00,+59.00,-44.00,+0.00,-9.00,+2.00,+4.00,+9.00,+13.00,+35.00
+60.00,+44.00,+61.00,-12.00,-10.00,-14.00,-19.00,-18.00,-123.00,-22.00,-12.00,-10.00,-15.00,-28.00,-19.00,-68.00
+39.00,-95.00,+3.00,+21.00,+11.00,+11.00,+13.00,+18.00,-9.00,-38.00,+1.00,+0.00,-1.00,-7.00,+5.00,+4.00
-9.00,-13.00,-35.00,-24.00,-31.00,-17.00,-9.00,-19.00,-63.00,+56.00,+16.00,+4.00,+2.00,-1.00,-14.00,-27.00
+38.00,+39.00,+22.00,+1.00,+33.00,-5.00,-4.00,-17.00,-54.00,-11.00,-5.00,-17.00,-16.00,-27.00,+2.00,+22.00
-82.00,-81.00,-66.00,-17.00,-13.00,-4.00,-13.00,-24.00,+62.00,-120.00,-18.00,+9.00,+18.00,+38.00,+22.00,+42.00
+17.00,+14.00,+0.00,-1.00,+6.00,+2.00,+1.00,+16.00,+8.00,+127.00,+61.00,+10.00,-9.00,-37.00,-6.00,+23.00
+119.00,+127.00,+118.00,+31.00,+25.00,+14.00,+15.00,+29.00,-91.00,-128.00,-36.00,-21.00,-7.00,+22.00,-6.00,-54.00
-113.00,-53.00,-97.00,-40.00,-40.00,-22.00,-23.00,-41.00,-86.00,-27.00,+2.00,-5.00,-9.00,-19.00,-21.00,-59.00
+38.00,+75.00,+76.00,+27.00,+12.00,+9.00,+19.00,+27.00,-77.00,-13.00,-10.00,-1.00,-2.00,-7.00,-11.00,-44.00
-4.00,+25.00,-7.00,-5.00,-4.00,-6.00,-7.00,+8.00,+34.00,+1.00,+9.00,+6.00,-2.00,-8.00,+3.00,+50.00
-59.00,-117.00,-56.00,-6.00,+2.00,+0.00,-7.00,-11.00,+74.00,-40.00,+13.00,+15.00,+10.00,+27.00,+23.00,+42.00
+15.00,+71.00,+5.00,-3.00,+0.00,+8.00,+7.00,+24.00,-32.00,-46.00,-37.00,+8.00,+13.00,+2.00,-11.00,-18.00
+4.00,+11.00,-20.00,-16.00,-16.00,-16.00,-7.00,-22.00,+15.00,+0.00,+14.00,-21.00,-17.00,+6.00,+15.00,+25.00
+46.00,-52.00,+62.00,+31.00,+25.00,+15.00,+16.00,+77.00,-47.00,-10.00,+4.00,+3.00,-12.00,-26.00,-10.00,-21.00
+28.00,+33.00,-24.00,-5.00,-24.00,+4.00,+3.00,+2.00,+3.00,-15.00,+19.00,+23.00,+35.00,+45.00,+8.00,+13.00
-29.00,-77.00,-18.00,-7.00,+0.00,-11.00,-13.00,-14.00,+31.00,-38.00,-12.00,-18.00,-19.00,-2.00,+0.00,-1.00
-19.00,+34.00,+11.00,+11.00,+1.00,+5.00,+8.00,+19.00,-65.00,-18.00,+1.00,+25.00,+26.00,+12.00,-3.00,-20.00
+49.00,-49.00,+5.00,+12.00,+6.00,-2.00,+1.00,-11.00,-27.00,+27.00,-15.00,-10.00,-10.00,-3.00,-3.00,-14.00
-12.00,-85.00,+27.00,+15.00,+20.00,+16.00,+23.00,+63.00,-87.00,-57.00,-20.00,-4.00,+4.00,-17.00,+8.00,+18.00
+30.00,+42.00,+8.00,+5.00,-1.00,+4.00,+2.00,+17.00,+18.00,-35.00,-18.00,-1.00,+3.00,-18.00,+1.00,+24.00
-23.00,+16.00,-53.00,-26.00,-28.00,-16.00,-16.00,-31.00,-2.00,+76.00,+31.00,+7.00,+1.00,+1.00,-5.00,-1.00
-19.00,-108.00,-32.00,-5.00,+15.00,+13.00,+2.00,-11.00,+26.00,-40.00,-11.00,-19.00,-9.00,-4.00,-6.00,+3.00
-15.00,+83.00,+52.00,+21.00,+22.00,+3.00,+8.00,+0.00,-18.00,-4.00,-7.00,+1.00,-5.00,-27.00,-7.00,-2.00
+72.00,+16.00,-12.00,+5.00,+3.00,+12.00,+15.00,+34.00,+29.00,+4.00,+3.00,-1.00,-2.00,+11.00,+3.00,-32.00
-43.00,-27.00,-43.00,-12.00,-7.00,-6.00,-5.00,-8.00,-49.00,-27.00,-12.00,-12.00,-12.00,-15.00,-9.00,-11.00
+18.00,+49.00,+28.00,+6.00,-2.00,+2.00,+4.00,-1.00,-74.00,-38.00,-21.00,-14.00,-11.00,+3.00,-17.00,-72.00
-41.00,-52.00,-20.00,+1.00,+1.00,-5.00,-14.00,-28.00,+17.00,+26.00,+30.00,+17.00,+7.00,-8.00,+13.00,+38.00
+6.00,-6.00,-23.00,-12.00,-9.00,-6.00,-4.00,+1.00,+70.00,+1.00,+1.00,-3.00,-4.00,-5.00,+3.00,+32.00
-45.00,-3.00,-26.00,-14.00,-6.00,-1.00,-11.00,-18.00,-72.00,+63.00,+4.00,-2.00,+4.00,+0.00,-9.00,-25.00
+19.00,-27.00,+41.00,+19.00,+5.00,+6.00,+9.00,+2.00,-39.00,-38.00,+1.00,-2.00,-2.00,+6.00,+9.00,+18.00
-48.00,+45.00,-50.00,-33.00,-19.00,-18.00,-22.00,-30.00,-49.00,-50.00,-10.00,+0.00,-5.00,-5.00,-10.00,-18.00
+23.00,+45.00,+51.00,+19.00,+3.00,+4.00,+8.00,+7.00,-128.00,+87.00,+31.00,+18.00,+16.00,+4.00,-11.00,-64.00
-32.00,-64.00,-4.00,+3.00,+4.00,+3.00,+6.00,+13.00,-47.00,-110.00,-45.00,-38.00,-35.00,-22.00,-19.00,-46.00
-50.00,+82.00,+8.00,-7.00,-5.00,-7.00,-4.00,-17.00,-57.00,-57.00,+8.00,+10.00,+11.00,+21.00,+9.00,-3.00
-44.00,-71.00,-72.00,-25.00,-11.00,-13.00,-20.00,-47.00,+33.00,+22.00,+4.00,+10.00,+13.00,-13.00,-16.00,-41.00
-15.00,-99.00,+2.00,+13.00,+19.00,+12.00,+9.00,+17.00,-27.00,-50.00,-10.00,-15.00,-28.00,-6.00,-4.00,+19.00
+41.00,-13.00,+60.00,+18.00,+6.00,+9.00,+10.00,+8.00,+44.00,+49.00,+9.00,+1.00,+5.00,+23.00,+19.00,+17.00
+20.00,+70.00,-18.00,-2.00,-14.00,-1.00,-1.00,+6.00,+11.00,-2.00,-22.00,-18.00,-11.00,-11.00,-5.00,+9.00
-16.00,+67.00,+10.00,-5.00,+1.00,-8.00,-2.00,-16.00,+80.00,-27.00,-10.00,-4.00,-3.00,+12.00,+11.00,+25.00
+26.00,+37.00,-18.00,-4.00,-2.00,-1.00,-8.00,-17.00,-61.00,-2.00,+8.00,+12.00,+16.00,+2.00,-13.00,-31.00
+54.00,+14.00,+35.00,+24.00,+2.00,+16.00,+15.00,+36.00,+66.00,-29.00,-19.00,+0.00,-2.00,-7.00,+1.00,+22.00
-73.00,-26.00,-60.00,-27.00,+2.00,-20.00,-21.00,-31.00,+40.00,+40.00,+20.00,+0.00,-5.00,+6.00,+2.00,+1.00
+17.00,+5.00,+23.00,+11.00,+7.00,+9.00,+13.00,+20.00,-57.00,+17.00,+10.00,+11.00,+7.00,+8.00,+5.00,+8.00
-27.00,-52.00,+23.00,+6.00,-7.00,-7.00,-7.00,-48.00,-27.00,-45.00,+12.00,+8.00,+6.00,-2.00,-1.00,-26.00
+46.00,+57.00,-31.00,-16.00,-1.00,-2.00,-7.00,-9.00,+94.00,-15.00,+7.00,-6.00,-9.00,-11.00,+6.00,+39.00
-40.00,-18.00,+21.00,+12.00,+1.00,+1.00,+12.00,+35.00,-64.00,-102.00,-38.00,-4.00,+0.00,+1.00,-1.00,-5.00
+37.00,+37.00,-41.00,-20.00,-13.00,-14.00,-11.00,-7.00,-14.00,+114.00,+16.00,-2.00,+2.00,-16.00,-8.00,+3.00
-11.00,+69.00,+22.00,-6.00,-6.00,-7.00,-10.00,-9.00,+127.00,+43.00,-4.00,-24.00,-26.00,+5.00,-2.00,+28.00
+25.00,+64.00,+5.00,+2.00,-10.00,+1.00,-2.00,-2.00,-47.00,-45.00,-9.00,+10.00,+5.00,+5.00,+9.00,+10.00
-69.00,-63.00,-59.00,-29.00,-16.00,-12.00,-17.00,-15.00,-55.00,-3.00,+24.00,+19.00,+17.00,+10.00,+11.00,-10.00
+32.00,-64.00,+24.00,+19.00,+17.00,+12.00,+15.00,+20.00,-50.00,-56.00,-10.00,-11.00,-15.00,-16.00,-9.00,-8.00
-47.00,-49.00,-7.00,+1.00,-5.00,+1.00,+4.00,+7.00,-50.00,+50.00,+10.00,+4.00,+8.00,-1.00,+1.00,+16.00
+4.00,-41.00,+0.00,+1.00,+17.00,+3.00,-4.00,-7.00,-14.00,-83.00,-34.00,-10.00,+1.00,+7.00,+1.00,-3.00
-56.00,-11.00,-30.00,-18.00,-14.00,-13.00,-13.00,-32.00,+127.00,-8.00,+26.00,+16.00,+9.00,+10.00,+19.00,+65.00
+0.00,-31.00,+31.00,+8.00,-3.00,-4.00,-1.00,-1.00,-4.00,+46.00,-5.00,-8.00,-4.00,-3.00,-11.00,-22.00
+59.00,+2.00,-22.00,-8.00,-20.00,+0.00,-1.00,+7.00,-12.00,-7.00,+15.00,+13.00,+7.00,+7.00,+1.00,-13.00
-28.00,-52.00,-8.00,-2.00,+17.00,-11.00,-10.00,-5.00,+28.00,-63.00,-16.00,-2.00,-5.00,-7.00,-10.00,-12.00
+26.00,-43.00,+16.00,+12.00,+6.00,+4.00,+10.00,+21.00,+115.00,+127.00,+51.00,+19.00,+12.00,+12.00,+22.00,+53.00
+50.00,+100.00,+37.00,+9.00,+8.00,+9.00,+9.00,+23.00,-10.00,-44.00,-8.00,-5.00,-8.00,-1.00,+2.00,+26.00
+33.00,+13.00,-3.00,-4.00,-2.00,+0.00,+1.00,+12.00,-31.00,+56.00,+6.00,+19.00,+23.00,+2.00,-4.00,-4.00
+3.00,+0.00,-19.00,-9.00,-11.00,-4.00,-1.00,+2.00,-12.00,+65.00,+17.00,-16.00,-14.00,-12.00,+3.00,+13.00
+49.00,+43.00,-1.00,-15.00,-8.00,-5.00,-17.00,-34.00,-16.00,-3.00,-22.00,-16.00,-14.00,-8.00,-11.00,-28.00
+18.00,-18.00,+83.00,+38.00,+24.00,+21.00,+15.00,+3.00,+41.00,-52.00,-5.00,-2.00,-2.00,+5.00,-2.00,+9.00
-54.00,-45.00,-6.00,-2.00,+0.00,+0.00,-1.00,+11.00,+39.00,+44.00,+2.00,-9.00,-11.00,-6.00,+4.00,+19.00
+7.00,+44.00,+23.00,+4.00,-17.00,+0.00,+3.00,+4.00,-18.00,+11.00,+19.00,+19.00,+21.00,+5.00,+0.00,+6.00
+13.00,+49.00,-15.00,-9.00,-2.00,-8.00,-3.00,-1.00,+43.00,-10.00,-9.00,-10.00,-11.00,-9.00,-9.00,-19.00
-10.00,-33.00,+4.00,+9.00,+11.00,+6.00,+4.00,+11.00,-67.00,+3.00,-19.00,-22.00,-17.00,-6.00,-13.00,-19.00
-27.00,-13.00,-38.00,-9.00,-1.00,-2.00,-4.00,-6.00,-36.00,+45.00,+11.00,+6.00,+6.00,+5.00,+4.00,+1.00
+41.00,+68.00,+43.00,+10.00,-3.00,+5.00,+2.00,+1.00,+39.00,-18.00,+12.00,+18.00,+13.00,+7.00,+3.00,+5.00
-29.00,+18.00,-3.00,-3.00,+0.00,-15.00,-1.00,-7.00,-10.00,-103.00,-51.00,-21.00,-8.00,-12.00,-14.00,-20.00
-19.00,-26.00,-18.00,-10.00,-6.00,-3.00,-7.00,-13.00,+125.00,+114.00,+68.00,+26.00,+13.00,+0.00,+24.00,+67.00
+44.00,+116.00,+11.00,-7.00,-2.00,-6.00,-6.00,-3.00,-14.00,-68.00,-12.00,-11.00,-6.00,+5.00,+0.00,-6.00
-34.00,-30.00,-5.00,-1.00,+2.00,+0.00,+5.00,-7.00,-126.00,-53.00,-16.00,-5.00,-3.00,-6.00,-12.00,-43.00
+10.00,+76.00,-15.00,-7.00,-13.00,-1.00,-9.00,-23.00,+80.00,+93.00,+21.00,+7.00,+2.00,+8.00,+3.00,+25.00
-43.00,-72.00,-10.00,-5.00,-6.00,-6.00,-3.00,+2.00,-68.00,-80.00,-38.00,-15.00,-11.00,-13.00,-14.00,-40.00
+22.00,+19.00,+23.00,-5.00,-3.00,-11.00,-12.00,-23.00,+65.00,-38.00,-9.00,-5.00,-4.00,+0.00,+7.00,+23.00
+19.00,+28.00,+43.00,+15.00,+13.00,+5.00,+7.00,+15.00,+65.00,+8.00,+20.00,+16.00,+9.00,+6.00,+7.00,+32.00
+15.00,-15.00,+25.00,+3.00,+1.00,+5.00,+1.00,-2.00,-90.00,+20.00,-4.00,-5.00,-1.00,-8.00,-7.00,-21.00
-18.00,-42.00,-20.00,-16.00,-16.00,-9.00,-8.00,-7.00,+22.00,-3.00,-16.00,-9.00,-4.00,-1.00,-3.00,-11.00
-5.00,-52.00,+51.00,+34.00,+17.00,+14.00,+9.00,-20.00,+31.00,+40.00,-3.00,-7.00,-6.00,-5.00,-9.00,-10.00
-12.00,-18.00,-33.00,-14.00,-6.00,-10.00,-8.00,-2.00,+63.00,+32.00,+1.00,+2.00,+1.00,+1.00,+2.00,+19.00
+6.00,+39.00,+8.00,+4.00,+1.00,+5.00,+2.00,-7.00,-30.00,-15.00,+2.00,+0.00,+0.00,+1.00,+0.00,+2.00
+12.00,+25.00,-2.00,+0.00,+1.00,+4.00,+6.00,+9.00,-49.00,+0.00,+4.00,-2.00,-3.00,-1.00,-3.00,-10.00
-17.00,-61.00,-52.00,-24.00,-13.00,-10.00,-9.00,-1.00,-3.00,-36.00,-9.00,-2.00,-2.00,+0.00,-2.00,-7.00
+21.00,+32.00,+13.00,+9.00,+7.00,+5.00,+2.00,-9.00,+3.00,-35.00,-7.00,+2.00,+2.00,+0.00,+1.00,-7.00
-11.00,-78.00,+9.00,+13.00,+11.00,+11.00,+9.00,-2.00,+11.00,+107.00,+23.00,+1.00,-1.00,-1.00,-4.00,-2.00
+21.00,+62.00,-39.00,-23.00,-13.00,-13.00,-17.00,-25.00,+56.00,+67.00,+19.00,+3.00,+1.00,+2.00,+7.00,+17.00
-9.00,-47.00,+0.00,+3.00,+1.00,+1.00,+8.00,+31.00,+4.00,-16.00,-14.00,-4.00,+0.00,-5.00,-3.00,+8.00
-9.00,-54.00,-21.00,-9.00,-2.00,-6.00,-8.00,-14.00,-7.00,+40.00,+11.00,+6.00,+4.00,+4.00,-1.00,-22.00
-24.00,+23.00,+11.00,-1.00,-5.00,+0.00,+3.00,+26.00,-52.00,-88.00,-25.00,-7.00,-3.00,-3.00,-5.00,-18.00
-6.00,-10.00,-9.00,+3.00,+3.00,-1.00,-3.00,-13.00,-33.00,-98.00,-28.00,-10.00,-4.00,-5.00,-6.00,-18.00
-18.00,+28.00,-1.00,-6.00,-5.00,-3.00,-4.00,-4.00,-22.00,+4.00,+0.00,-2.00,-4.00,-1.00,+2.00,+7.00
-10.00,-55.00,-15.00,+2.00,+4.00,+0.00,-2.00,-2.00,+79.00,+120.00,+27.00,+3.00,-1.00,+1.00,+4.00,+33.00
+7.00,+11.00,+23.00,+9.00,+3.00,+4.00,+7.00,+16.00,-88.00,-123.00,-55.00,-23.00,-13.00,-10.00,-17.00,-49.00
+32.00,+6.00,-30.00,-9.00,-6.00,-6.00,-5.00,-5.00,+44.00,+103.00,+26.00,+14.00,+6.00,+7.00,+18.00,+48.00
-40.00,-37.00,-43.00,-14.00,-4.00,-5.00,-5.00,-17.00,+13.00,-6.00,+3.00,+1.00,+0.00,+0.00,-3.00,-3.00
+11.00,+2.00,+1.00,+4.00,+2.00,-1.00,-1.00,+1.00,-94.00,-98.00,-23.00,-7.00,-4.00,-4.00,-9.00,-20.00
+24.00,-28.00,+11.00,+10.00,+7.00,+7.00,+5.00,+14.00,+52.00,+88.00,+31.00,+14.00,+6.00,+5.00,-1.00,-15.00
-10.00,+14.00,+10.00,-1.00,+0.00,-3.00,-2.00,+1.00,-6.00,-56.00,-15.00,-5.00,+0.00,+0.00,-8.00,-21.00
+8.00,+10.00,-29.00,-12.00,-8.00,-4.00,-6.00,-6.00,+0.00,-1.00,-3.00,-2.00,-3.00,+1.00,+0.00,-3.00
-40.00,+18.00,-6.00,-6.00,-6.00,-4.00,-3.00,-11.00,+3.00,+32.00,+1.00,+4.00,+5.00,-2.00,-1.00,+3.00
+29.00,+7.00,-7.00,-2.00,+0.00,-1.00,+0.00,+10.00,+45.00,+37.00,+12.00,-7.00,-11.00,+0.00,+8.00,+25.00
-51.00,-61.00,-6.00,-6.00,-11.00,-7.00,-5.00,+16.00,-17.00,+9.00,-10.00,-4.00,-4.00,-4.00,-6.00,-20.00
-39.00,-13.00,+11.00,+11.00,+9.00,+6.00,+3.00,-14.00,+7.00,+39.00,+19.00,+9.00,+12.00,+4.00,+6.00,+9.00
-14.00,-30.00,-3.00,-6.00,-3.00,-2.00,-3.00,+3.00,-35.00,+11.00,+7.00,+10.00,+0.00,+2.00,+3.00,+1.00
+8.00,+89.00,+8.00,-6.00,-6.00,-3.00,-5.00,-15.00,+54.00,-12.00,+6.00,+3.00,+18.00,+7.00,+7.00,+19.00
-5.00,-59.00,+30.00,+19.00,+13.00,+13.00,+9.00,+6.00,-58.00,-2.00,-13.00,-21.00,-39.00,-14.00,-18.00,-31.00
-26.00,+11.00,+4.00,-2.00,-1.00,-2.00,-1.00,-7.00,-17.00,-45.00,+4.00,-3.00,-11.00,-2.00,-4.00,-6.00
+16.00,-1.00,+3.00,-2.00,+6.00,-3.00,-1.00,-4.00,+15.00,-76.00,-29.00,-10.00,-5.00,-3.00,-1.00,+12.00
-26.00,-47.00,-17.00,-3.00,-12.00,+0.00,+0.00,+3.00,-46.00,+50.00,+20.00,+11.00,+10.00,+1.00,-4.00,-23.00
+17.00,+16.00,-7.00,-1.00,+4.00,+0.00,+3.00,+4.00,-37.00,-69.00,+2.00,+9.00,+14.00,+8.00,+8.00,+9.00
+6.00,+4.00,+5.00,+3.00,-3.00,+0.00,+1.00,-4.00,-31.00,+91.00,+12.00,-3.00,-2.00,-7.00,-7.00,-10.00
-12.00,+73.00,+23.00,+3.00,+3.00,+3.00,+0.00,-2.00,-31.00,+10.00,+6.00,+0.00,+0.00,+1.00,-1.00,-4.00
+34.00,-42.00,+3.00,+4.00,-1.00,-2.00,+3.00,+11.00,-26.00,-37.00,+1.00,+10.00,+0.00,+4.00,-6.00,-19.00
+10.00,+13.00,+15.00,+10.00,+12.00,+7.00,+0.00,+0.00,+17.00,-23.00,-12.00,-5.00,-2.00,-5.00,-6.00,-8.00
+17.00,-5.00,+2.00,-1.00,-2.00,-9.00,-4.00,+4.00,+1.00,-3.00,-4.00,-2.00,-3.00,+0.00,+3.00,+10.00
+12.00,-27.00,-20.00,-5.00,-1.00,-1.00,-2.00,-5.00,+23.00,+37.00,+8.00,+5.00,+5.00,-2.00,+2.00,+0.00
-34.00,-128.00,-27.00,-8.00,-9.00,-5.00,-5.00,-8.00,-13.00,-16.00,-15.00,-15.00,-13.00,-4.00,-3.00,+5.00
+19.00,+31.00,+26.00,+9.00,+2.00,+8.00,+7.00,+14.00,+62.00,+67.00,+3.00,+0.00,+4.00,+2.00,+1.00,+6.00
+5.00,+52.00,-17.00,-3.00,+0.00,+0.00,+0.00,-1.00,-9.00,+22.00,+13.00,+16.00,+13.00,+5.00,+5.00,+21.00
+8.00,-17.00,-21.00,-6.00,-8.00,-5.00,-5.00,-4.00,-10.00,-1.00,+3.00,+2.00,+5.00,+3.00,-2.00,-6.00
+14.00,+1.00,+8.00,+2.00,+6.00,+2.00,+1.00,+0.00,+11.00,-16.00,-2.00,-4.00,+5.00,-6.00,-3.00,+13.00
+22.00,-17.00,-8.00,-1.00,+0.00,+2.00,+3.00,+17.00,-15.00,-22.00,-9.00,-9.00,-13.00,-4.00,-9.00,-11.00
-13.00,+4.00,-4.00,-10.00,-6.00,-4.00,-6.00,-6.00,+0.00,-77.00,-26.00,-27.00,-28.00,-12.00,+0.00,-7.00
-19.00,-13.00,+6.00,-2.00,-13.00,-11.00,-11.00,-14.00,+10.00,+45.00,+18.00,+8.00,+9.00,+3.00,+2.00,+7.00
-1.00,+16.00,-3.00,+0.00,+2.00,+0.00,+3.00,+0.00,+29.00,+7.00,+9.00,+33.00,+18.00,+9.00,+9.00,+20.00
-5.00,+16.00,-12.00,-8.00,+0.00,-5.00,-3.00,+0.00,-3.00,+1.00,-2.00,-26.00,-6.00,-4.00,-10.00,-22.00
+20.00,+3.00,+13.00,+5.00,+3.00,+6.00,+3.00,+8.00,-4.00,-11.00,-12.00,-16.00,-20.00,-8.00,-7.00,-3.00
-3.00,+43.00,-9.00,-4.00,+3.00,+6.00,+0.00,-1.00,-83.00,-42.00,-9.00,-13.00,-10.00,-7.00,-10.00,-30.00
-4.00,-58.00,+14.00,+8.00,-12.00,-2.00,+1.00,+5.00,+57.00,-9.00,-1.00,+0.00,-7.00,+4.00,+3.00,+15.00
+13.00,-15.00,-8.00,-1.00,+4.00,-9.00,-6.00,-21.00,-48.00,-11.00,+1.00,+14.00,+15.00,+2.00,-1.00,-16.00
+17.00,+5.00,+3.00,-1.00,-7.00,-5.00,-3.00,+2.00,+101.00,+46.00,+3.00,+4.00,+7.00,+4.00,+2.00,+18.00
-49.00,-32.00,-21.00,-8.00,-3.00,-7.00,-1.00,+18.00,-25.00,-80.00,-14.00,-7.00,-7.00,-1.00,+2.00,+7.00
+23.00,+105.00,+13.00,-1.00,+0.00,+2.00,-2.00,+2.00,-24.00,+101.00,+28.00,+7.00,+7.00,+2.00,-2.00,-9.00
+12.00,-3.00,+11.00,+2.00,-7.00,-1.00,+4.00,+3.00,-9.00,-20.00,-6.00,+8.00,+4.00,+1.00,+4.00,+3.00
+15.00,-5.00,+5.00,+9.00,+12.00,+9.00,+5.00,+13.00,-34.00,-41.00,-2.00,+5.00,+14.00,+1.00,-3.00,-7.00
-10.00,-6.00,-9.00,-5.00,-3.00,-5.00,-4.00,-17.00,+61.00,+37.00,+9.00,+2.00,+8.00,+1.00,+5.00,+26.00
-6.00,-5.00,-11.00,-6.00,+3.00,-1.00,-7.00,-12.00,-11.00,-24.00,-11.00,-16.00,-27.00,-8.00,+0.00,+6.00
-25.00,-23.00,-7.00,-2.00,-6.00,-2.00,+1.00,+2.00,-12.00,+0.00,+0.00,+5.00,+6.00,-1.00,-3.00,+2.00
+13.00,+52.00,+7.00,-3.00,-7.00,+1.00,+3.00,+9.00,-44.00,-16.00,-6.00,-2.00,+2.00,-1.00,-2.00,-14.00
+19.00,-17.00,+14.00,+7.00,+8.00,+6.00,+3.00,+9.00,+43.00,+22.00,+3.00,-3.00,-14.00,+2.00,+4.00,+22.00
-13.00,-48.00,-6.00,-3.00,+3.00,+0.00,-1.00,-1.00,-15.00,-54.00,-9.00,+7.00,+13.00,+1.00,+1.00,+9.00
+28.00,+42.00,-6.00,-1.00,+1.00,+1.00,+1.00,+3.00,+16.00,+63.00,+8.00,+17.00,+49.00,+10.00,+3.00,+6.00
-41.00,-39.00,-6.00,-5.00,-11.00,-3.00,-8.00,-13.00,+8.00,-15.00,-8.00,-30.00,-81.00,-20.00,-7.00,-9.00
+7.00,-5.00,+7.00,+3.00,+5.00,+5.00,+5.00,+3.00,+10.00,+15.00,+0.00,-25.00,-6.00,-8.00,-2.00,-1.00
+14.00,+14.00,-6.00,+0.00,+2.00,+2.00,-3.00,-18.00,-26.00,-39.00,-13.00,-16.00,-10.00,-6.00,-2.00,+0.00
-36.00,-5.00,+1.00,+0.00,-1.00,-8.00,-7.00,-18.00,-49.00,-69.00,-13.00,+0.00,+0.00,+2.00,+0.00,-9.00
+8.00,-7.00,-2.00,-3.00,+0.00,+1.00,+4.00,+4.00,+27.00,+46.00,+21.00,+32.00,+42.00,+8.00,-4.00,-9.00
+3.00,+0.00,-3.00,-3.00,-4.00,-4.00,-4.00,+7.00,+8.00,+32.00,+0.00,+3.00,+3.00,-1.00,-4.00,-11.00
+17.00,-4.00,+0.00,+2.00,+8.00,-2.00,-2.00,-12.00,-18.00,-14.00,-10.00,-10.00,-20.00,-4.00,+3.00,+1.00
+7.00,-10.00,+7.00,-2.00,-24.00,-2.00,+2.00,+7.00,+1.00,-20.00,-6.00,+2.00,-1.00,-4.00,-5.00,-3.00
-2.00,+6.00,-5.00,-4.00,-3.00,-15.00,-8.00,+0.00,-91.00,-25.00,+4.00,+4.00,+14.00,+6.00,+8.00,+3.00
+15.00,-7.00,+8.00,+11.00,+17.00,+3.00,+4.00,-9.00,-8.00,-2.00,+3.00,+1.00,-13.00,-5.00,-6.00,-12.00
-8.00,+7.00,+0.00,+0.00,+13.00,+10.00,+5.00,+11.00,+7.00,-11.00,-4.00,+2.00,+16.00,+2.00,-1.00,+1.00
-10.00,+10.00,-19.00,-7.00,-2.00,+0.00,-6.00,-3.00,+27.00,+40.00,+12.00,+0.00,-16.00,-6.00,+0.00,+6.00
-22.00,-43.00,+7.00,-3.00,-2.00,-6.00,-2.00,-3.00,-14.00,-48.00,-15.00,-7.00,+1.00,-2.00,-1.00,-3.00
+24.00,+5.00,+8.00,+5.00,-6.00,+8.00,+5.00,+0.00,+13.00,+42.00,+7.00,-1.00,+0.00,+1.00,+1.00,-1.00
-22.00,+19.00,-3.00,-3.00,-5.00,-2.00,+1.00,+26.00,-47.00,+9.00,+5.00,+3.00,-1.00,-2.00,-2.00,-19.00
-46.00,-17.00,-6.00,-4.00,-1.00,-8.00,+0.00,+4.00,+21.00,+4.00,+6.00,+1.00,-9.00,+0.00,+7.00,+18.00
+16.00,+25.00,-8.00,-7.00,-6.00,+1.00,-4.00,-11.00,+1.00,+19.00,+4.00,+12.00,+28.00,+8.00,+4.00,+7.00
-34.00,-16.00,-1.00,-4.00,-3.00,-2.00,+1.00,+5.00,-11.00,-24.00,-13.00,-19.00,-41.00,-11.00,-2.00,-5.00
-6.00,-20.00,+3.00,+5.00,+3.00,+1.00,+5.00,+5.00,+12.00,-28.00,-3.00,+15.00,+13.00,+1.00,-6.00,-8.00
+16.00,+5.00,-5.00,-7.00,-2.00,+0.00,-2.00,-2.00,-17.00,+14.00,+2.00,-15.00,-4.00,-10.00,-1.00,+0.00
+5.00,+9.00,+4.00,+5.00,-2.00,+1.00,+1.00,+1.00,+32.00,+6.00,+2.00,-3.00,-17.00,+11.00,-2.00,+1.00
-6.00,-5.00,-8.00,-5.00,-3.00,+0.00,-1.00,-3.00,-10.00,-8.00,+1.00,+29.00,+54.00,+10.00,+4.00,+7.00
+3.00,+31.00,-11.00,-6.00,-1.00,-6.00,-7.00,-14.00,-12.00,-25.00,-22.00,-51.00,-59.00,-22.00,-10.00,-7.00
+4.00,-19.00,+4.00,+4.00,+4.00,+0.00,-1.00,+7.00,+12.00,+12.00,+10.00,+7.00,-3.00,+3.00,-1.00,+2.00
-13.00,-27.00,-5.00,-1.00,-3.00,+5.00,+4.00,-5.00,+60.00,-2.00,-1.00,+4.00,+13.00,-1.00,+3.00,+12.00
+22.00,+15.00,+6.00,+2.00,-1.00,+0.00,-1.00,+2.00,-18.00,-25.00,-4.00,+2.00,+7.00,+3.00,-2.00,-12.00
-3.00,+12.00,-5.00,-4.00,-12.00,-13.00,-4.00,-6.00,+12.00,+59.00,+6.00,+9.00,+10.00,+7.00,+1.00,-1.00
+32.00,+15.00,+6.00,+2.00,+22.00,+9.00,-2.00,-6.00,-14.00,-19.00,-9.00,-2.00,+2.00,-4.00,-3.00,-9.00
-24.00,-36.00,-2.00,+3.00,-5.00,-10.00,-2.00,-6.00,-10.00,+13.00,+2.00,-6.00,-5.00,-8.00,-8.00,-14.00
+25.00,+25.00,+0.00,+2.00,+11.00,-11.00,+0.00,-1.00,+7.00,-9.00,+4.00,+14.00,+13.00,+4.00,+0.00,-3.00
-16.00,-8.00,-3.00,-8.00,-24.00,+12.00,+0.00,+7.00,+1.00,-7.00,+0.00,-2.00,-9.00,-4.00,-3.00,-1.00
-15.00,-14.00,-8.00,+2.00,+11.00,-6.00,+2.00,-24.00,+1.00,-7.00,-6.00,-6.00,-15.00,-1.00,-2.00,-8.00
-27.00,-21.00,-6.00,-2.00,+9.00,+4.00,+2.00,-1.00,-24.00,-22.00,-10.00,-3.00,-1.00,-1.00,-4.00,-8.00
+10.00,-12.00,+15.00,+3.00,-2.00,-1.00,+3.00,+19.00,+1.00,-5.00,-3.00,+7.00,+4.00,+0.00,+1.00,+6.00
-8.00,+4.00,+2.00,+0.00,+0.00,+0.00,-3.00,-9.00,-4.00,+7.00,+7.00,+20.00,+25.00,+12.00,+3.00,-2.00
+7.00,-4.00,-1.00,-2.00,-7.00,+1.00,-4.00,+7.00,-10.00,-24.00,-12.00,-40.00,-35.00,-11.00,+0.00,+8.00
-4.00,-1.00,-10.00,-6.00,-2.00,-1.00,+1.00,+0.00,-3.00,-12.00,+0.00,+6.00,+7.00,+0.00,+0.00,-1.00
+6.00,-6.00,-14.00,-3.00,-3.00,+2.00,-2.00,-12.00,+0.00,+10.00,+2.00,-22.00,-31.00,-7.00,-4.00,-4.00
+5.00,+15.00,+18.00,+4.00,+19.00,+4.00,+2.00,+5.00,-16.00,-29.00,-13.00,-8.00,-3.00,-2.00,-1.00,+6.00
+38.00,+23.00,-1.00,-1.00,-19.00,-3.00,+2.00,+9.00,+52.00,+25.00,+11.00,+18.00,+16.00,+7.00,+9.00,+13.00
-12.00,+3.00,+1.00,-1.00,+9.00,-3.00,-3.00,-6.00,-29.00,-19.00,-6.00,+2.00,+9.00,+0.00,-2.00,+4.00
-11.00,-21.00,-3.00,-6.00,-14.00,+0.00,+1.00,+10.00,-3.00,-1.00,+0.00,+23.00,-1.00,-9.00,-2.00,+3.00
+17.00,+13.00,-2.00,-1.00,+3.00,-1.00,+1.00,-4.00,-8.00,+4.00,-1.00,-46.00,-20.00,-7.00,+0.00,+1.00
+4.00,-13.00,+1.00,-1.00,-9.00,-7.00,-3.00,+4.00,-14.00,-51.00,-11.00,-3.00,-6.00,-4.00,-10.00,-15.00
+37.00,+33.00,+4.00,+8.00,+11.00,-5.00,+1.00,+4.00,-26.00,-6.00,-4.00,-10.00,-3.00,-1.00,-1.00,-12.00
+0.00,+1.00,+1.00,+0.00,-11.00,+9.00,-1.00,-14.00,+27.00,+26.00,+7.00,+6.00,+5.00,+4.00,+2.00,+1.00
-20.00,-14.00,-6.00,-1.00,+6.00,-11.00,-1.00,+5.00,-2.00,-14.00,-3.00,+19.00,+12.00,+2.00,+2.00,+9.00
-17.00,-13.00,-8.00,-6.00,+1.00,+1.00,-1.00,-3.00,-2.00,+9.00,+2.00,+1.00,+14.00,-3.00,-4.00,-4.00
+13.00,+16.00,+11.00,+5.00,+0.00,+12.00,+1.00,+0.00,+1.00,-1.00,-4.00,-9.00,-12.00,-4.00,+1.00,+2.00
-19.00,+4.00,-6.00,-6.00,+4.00,-1.00,-11.00,-9.00,-4.00,-7.00,-1.00,+6.00,+14.00,+5.00,+0.00,-4.00
+22.00,-5.00,-3.00,-7.00,-35.00,-18.00,+3.00,+4.00,+4.00,+9.00,+3.00,-7.00,-5.00,-1.00,+1.00,+3.00
-17.00,-1.00,+4.00,+9.00,+23.00,+6.00,+3.00,-1.00,+2.00,+5.00,-2.00,-2.00,-5.00,+0.00,+0.00,+2.00
+29.00,-32.00,-13.00,-7.00,-2.00,-6.00,-8.00,-2.00,+3.00,+1.00,+7.00,+13.00,+12.00,+0.00,-3.00,-1.00
-20.00,+31.00,+10.00,+5.00,+4.00,-2.00,+1.00,+13.00,-11.00,-1.00,-1.00,+8.00,+6.00,+6.00,+1.00,+5.00
-21.00,-12.00,+0.00,+2.00,+2.00,+2.00,-5.00,-10.00,-9.00,+6.00,-1.00,-17.00,-35.00,-11.00,-5.00,-6.00
+17.00,-1.00,-3.00,-7.00,-18.00,-6.00,+4.00,-1.00,+2.00,+13.00,+3.00,-5.00,-19.00,-3.00,-2.00,+1.00
+1.00,+11.00,-1.00,+0.00,+3.00,+8.00,+2.00,+4.00,+7.00,-9.00,-9.00,-10.00,-3.00,-4.00,-1.00,+2.00
+24.00,-11.00,-3.00,+1.00,+4.00,+0.00,-1.00,+13.00,-8.00,+3.00,-1.00,-10.00,-10.00,-4.00,-2.00,+1.00
+3.00,-3.00,+5.00,+3.00,+1.00,+9.00,+6.00,+0.00,-7.00,-11.00,-6.00,+8.00,+20.00,+2.00,+1.00,+4.00
-17.00,+6.00,-3.00,-2.00,-1.00,-5.00,-6.00,-5.00,-23.00,+5.00,+6.00,+11.00,+0.00,+3.00,+2.00,+0.00
-9.00,-16.00,-3.00,+1.00,+4.00,+3.00,-1.00,-3.00,+12.00,-4.00,+0.00,+0.00,-10.00,-2.00,+2.00,+4.00
-2.00,+2.00,+2.00,-1.00,-7.00,-3.00,+0.00,-2.00,+8.00,+5.00,-2.00,-10.00,+7.00,-3.00,-3.00,-4.00
+32.00,+12.00,+5.00,+1.00,+21.00,+1.00,-4.00,-2.00,-4.00,+4.00,+7.00,+16.00,+13.00,+4.00,+1.00,-6.00
-7.00,-12.00,+2.00,+0.00,-32.00,-15.00,-2.00,+0.00,-18.00,-16.00,-12.00,-5.00,-5.00,-3.00,+0.00,-1.00
-2.00,+7.00,+1.00,-1.00,+3.00,-8.00,+3.00,+7.00,-18.00,-12.00,-1.00,+1.00,+5.00,+2.00,-1.00,-6.00
-31.00,-13.00,-7.00,-4.00,-8.00,-10.00,-4.00,-17.00,-8.00,+3.00,+2.00,-6.00,-6.00,-4.00,-1.00,+1.00
+16.00,-3.00,-3.00,+2.00,+6.00,-1.00,-3.00,-10.00,+16.00,+9.00,+8.00,+4.00,+4.00,+1.00,+1.00,+2.00
-15.00,-3.00,+0.00,-2.00,+7.00,+5.00,-10.00,+6.00,-2.00,-5.00,-3.00,+1.00,+1.00,+1.00,-8.00,-7.00
-2.00,+1.00,+0.00,-4.00,-9.00,-4.00,+3.00,+5.00,+9.00,+15.00,+4.00,-1.00,-2.00,-6.00,-3.00,-3.00
+20.00,+12.00,+1.00,-1.00,-3.00,-3.00,-1.00,+5.00,-4.00,-18.00,-5.00,-12.00,-13.00,-4.00,+1.00,+0.00
-30.00,-18.00,-8.00,-1.00,-1.00,+5.00,-1.00,-1.00,+3.00,+15.00,+3.00,+9.00,+9.00,+2.00,-14.00,-11.00
+2.00,+29.00,+6.00,+3.00,+6.00,+6.00,+5.00,+9.00,-9.00,-5.00,-3.00,+12.00,+12.00,+6.00,+4.00,+4.00
-4.00,-4.00,-6.00,-4.00,-11.00,+1.00,-7.00,-3.00,-1.00,+3.00,-1.00,-6.00,-15.00,-14.00,-12.00,-2.00
+0.00,-27.00,+1.00,+1.00,+9.00,+4.00,+3.00,+4.00,+7.00,-10.00,-8.00,-20.00,-17.00,-1.00,+0.00,+0.00
-1.00,+0.00,-2.00,-2.00,-5.00,-3.00,+0.00,+0.00,-2.00,+2.00,+2.00,-19.00,+4.00,-6.00,-3.00,-5.00
-2.00,-1.00,+0.00,+0.00,+4.00,+0.00,-1.00,-4.00,+5.00,+3.00,+0.00,+4.00,-3.00,-2.00,-15.00,-12.00
-8.00,+0.00,-1.00,-3.00,+1.00,+0.00,+0.00,+0.00,-12.00,-6.00,-4.00,+2.00,+4.00,+4.00,-3.00,+0.00
-1.00,-5.00,-4.00,-3.00,-3.00,+1.00,-3.00,-19.00,+9.00,-6.00,-2.00,-6.00,-2.00,+2.00,+5.00,-13.00
+7.00,+8.00,+0.00,-2.00,-3.00,-5.00,-2.00,+0.00,+2.00,+2.00,-1.00,+19.00,+23.00,+5.00,+10.00,+10.00
+7.00,-3.00,-2.00,-2.00,+1.00,+3.00,+2.00,+13.00,+8.00,+0.00,-6.00,-10.00,-9.00,-5.00,-11.00,+3.00
-55.00,-5.00,+1.00,-2.00,-3.00,+11.00,-10.00,-11.00,-21.00,+0.00,+1.00,-3.00,-2.00,+7.00,+10.00,-7.00
+5.00,-5.00,-5.00,+0.00,-15.00,-16.00,-1.00,-4.00,+2.00,+8.00,+7.00,+9.00,+1.00,+0.00,-7.00,+0.00
-5.00,+4.00,-1.00,-1.00,+30.00,+15.00,+3.00,+2.00,+14.00,-1.00,-2.00,+6.00,+2.00,+4.00,+4.00,+6.00
+10.00,-2.00,+0.00,+5.00,-22.00,-6.00,+10.00,+3.00,-6.00,-1.00,-1.00,+2.00,+3.00,-2.00,+4.00,-1.00
+37.00,+4.00,+2.00,+0.00,+12.00,+15.00,-13.00,-4.00,-1.00,-7.00,-5.00,-1.00,-2.00,-1.00,-2.00,-2.00
-30.00,+0.00,-5.00,-4.00,-9.00,-4.00,+10.00,+13.00,-21.00,-15.00,-7.00,-8.00,-5.00,-5.00,-8.00,-12.00
-32.00,-12.00,+0.00,-3.00,+1.00,-9.00,-3.00,-2.00,+7.00,+4.00,+3.00,+9.00,+16.00,+2.00,+2.00,+7.00
-9.00,-2.00,+3.00,-2.00,+2.00,+8.00,-10.00,-4.00,-2.00,-4.00,-3.00,-5.00,-3.00,-4.00,+2.00,-5.00
+10.00,+5.00,-4.00,+0.00,+2.00,-5.00,+14.00,+3.00,-5.00,+0.00,-4.00,-6.00,-4.00,-3.00,-5.00,+0.00
-44.00,+9.00,-1.00,+1.00,+2.00,+9.00,-5.00,-25.00,+1.00,+7.00,+3.00,+7.00,+4.00,+1.00,+1.00,+1.00
+1.00,-26.00,+4.00,+5.00,+4.00,+5.00,+3.00,+2.00,-8.00,-9.00,-2.00,+16.00,+18.00,+0.00,+2.00,-5.00
-19.00,-9.00,-1.00,-2.00,+3.00,+2.00,+1.00,-5.00,-4.00,-5.00,-2.00,-24.00,-24.00,-5.00,-1.00,-1.00
-3.00,-6.00,-5.00,-3.00,-15.00,-11.00,-3.00,+1.00,+18.00,+12.00,+3.00,+3.00,-2.00,+2.00,+2.00,+3.00
+18.00,+21.00,+1.00,-3.00,+11.00,+3.00,-1.00,+8.00,+0.00,-8.00,-6.00,-15.00,-18.00,-7.00,-4.00,+2.00
+0.00,-12.00,-11.00,-6.00,-20.00,-8.00,-4.00,-7.00,-26.00,-14.00,-5.00,+11.00,+6.00,+3.00,+7.00,+9.00
+12.00,+34.00,+14.00,+4.00,+11.00,+4.00,-2.00,-6.00,+23.00,+8.00,+5.00,+3.00,+23.00,+9.00,+11.00,+8.00
+8.00,+2.00,+0.00,+1.00,+0.00,+6.00,+0.00,-8.00,+1.00,-3.00,-7.00,-14.00,-18.00,-15.00,-14.00,+0.00
+13.00,-10.00,-5.00,-3.00,-1.00,-5.00,-4.00,-4.00,+1.00,+0.00,-1.00,+3.00,-8.00,-2.00,+6.00,+3.00
+5.00,+4.00,-2.00,-2.00,-3.00,-2.00,-3.00,-3.00,-7.00,-10.00,-5.00,-13.00,-22.00,-6.00,-4.00,-4.00
+3.00,-20.00,-6.00,-3.00,-6.00,+15.00,+0.00,-1.00,-7.00,+2.00,+6.00,+16.00,+18.00,+6.00,-1.00,-3.00
+1.00,+0.00,-2.00,+1.00,+18.00,-8.00,-2.00,+1.00,+2.00,+1.00,+3.00,+11.00,+8.00,+7.00,+6.00,-1.00
+17.00,+5.00,+5.00,+3.00,-1.00,+1.00,+1.00,-5.00,+1.00,+0.00,-2.00,-19.00,-3.00,-6.00,-6.00,-7.00
+5.00,+16.00,-3.00,+0.00,-11.00,-14.00,-5.00,+3.00,-9.00,+2.00,-5.00,-6.00,-7.00,-5.00,-8.00,-15.00
-26.00,-21.00,-9.00,-7.00,-2.00,+4.00,-3.00,-15.00,+29.00,-3.00,+3.00,+6.00,-4.00,+0.00,+0.00,+8.00
+8.00,+10.00,+7.00,+4.00,-11.00,+15.00,+0.00,+10.00,+1.00,+10.00,+5.00,+6.00,+3.00,+2.00,+3.00,+2.00
-6.00,-19.00,-5.00,-1.00,+6.00,-2.00,+7.00,+0.00,-4.00,+0.00,+0.00,+5.00,+0.00,-1.00,-2.00,+1.00
+3.00,+6.00,+2.00,+0.00,+2.00,+3.00,+0.00,+3.00,+15.00,+11.00,+7.00,+6.00,+4.00,+2.00,-2.00,-2.00
+3.00,+3.00,-4.00,-6.00,-2.00,-9.00,-5.00,+11.00,-16.00,-12.00,-9.00,-11.00,-10.00,-7.00,-2.00,+3.00
+7.00,-1.00,+9.00,+1.00,-5.00,-8.00,+2.00,+3.00,-6.00,-10.00,-8.00,-9.00,-8.00,-1.00,+6.00,+11.00
-7.00,-2.00,-2.00,-3.00,+4.00,+3.00,-2.00,+8.00,-6.00,-6.00,-5.00,+8.00,+14.00,+2.00,+0.00,-5.00
+1.00,-2.00,-4.00,-1.00,-12.00,-8.00,+0.00,-1.00,+8.00,+7.00,-1.00,-18.00,-18.00,-1.00,-1.00,+2.00
-4.00,-11.00,-15.00,-6.00,+7.00,-3.00,+3.00,-4.00,-11.00,+1.00,+3.00,+14.00,+19.00,+2.00,+0.00,-5.00
+13.00,+25.00,+19.00,+7.00,-4.00,-6.00,+5.00,-1.00,+0.00,-2.00,+0.00,-3.00,-27.00,-1.00,-2.00,+2.00
+0.00,-6.00,+1.00,+2.00,+3.00,+1.00,-2.00,+8.00,-15.00,-7.00,-4.00,-2.00,-10.00,-6.00,-2.00,+6.00
+6.00,+10.00,+0.00,+0.00,+3.00,+2.00,+2.00,-2.00,+5.00,-4.00,+0.00,-2.00,+4.00,-3.00,-3.00,-5.00
-8.00,-16.00,-2.00,+2.00,-2.00,+0.00,-2.00,-12.00,-9.00,+4.00,+2.00,+0.00,-2.00,-2.00,+0.00,-7.00
-22.00,-14.00,-14.00,-9.00,-5.00,-11.00,-8.00,-16.00,+7.00,+1.00,+2.00,+0.00,+6.00,+1.00,-7.00,-20.00
-45.00,-4.00,-4.00,-4.00,-7.00,-3.00,-7.00,-24.00,+12.00,+8.00,+5.00,+9.00,+10.00,+5.00,-1.00,-4.00
-5.00,-12.00,-4.00,-3.00,+5.00,+12.00,+0.00,+15.00,-1.00,+0.00,-1.00,-3.00,-11.00,-2.00,-4.00,-6.00
+20.00,+15.00,+7.00,+3.00,-5.00,-16.00,-1.00,+11.00,-7.00,+1.00,-4.00,-1.00,+4.00,-2.00,-1.00,+1.00
-17.00,-5.00,-4.00,-3.00,+1.00,+7.00,+2.00,+9.00,+0.00,+5.00,+2.00,+1.00,+14.00,-1.00,+1.00,-1.00
+31.00,+12.00,+2.00,-2.00,-16.00,-16.00,-3.00,+3.00,-6.00,-8.00,-1.00,+0.00,-1.00,+2.00,-5.00,-5.00
+8.00,-6.00,-6.00,-3.00,-2.00,+7.00,+7.00,+10.00,+21.00,+10.00,+2.00,+3.00,+0.00,-1.00,+0.00,+3.00
-6.00,+5.00,+1.00,+0.00,+3.00,-2.00,-1.00,+4.00,+7.00,+4.00,+3.00,+3.00,-1.00,+1.00,+2.00,+5.00
-1.00,+2.00,-3.00,-1.00,-2.00,-6.00,+0.00,-4.00,-9.00,-4.00,+2.00,+0.00,+3.00,+1.00,+4.00,+7.00
+20.00,-3.00,-1.00,+2.00,+5.00,+6.00,-4.00,-13.00,+17.00,+4.00,-4.00,-1.00,+2.00,-1.00,+2.00,+8.00
-24.00,+7.00,+6.00,+1.00,-7.00,+0.00,+0.00,-2.00,-19.00,-4.00,+1.00,-4.00,-9.00,+0.00,+1.00,-1.00
-3.00,+12.00,+5.00,+1.00,+10.00,-10.00,-4.00,-8.00,+5.00,-3.00,-4.00,-4.00,-7.00,-5.00,-1.00,+2.00
+4.00,-24.00,-1.00,+1.00,-6.00,+2.00,+3.00,+7.00,+5.00,+3.00,-1.00,+2.00,+4.00,-2.00,-2.00,-9.00
+14.00,-20.00,-7.00,-2.00,-1.00,-1.00,+0.00,+1.00,-14.00,-8.00,-6.00,-8.00,-5.00,-2.00,+8.00,+22.00
+20.00,+35.00,+6.00,+3.00,-3.00,-2.00,-1.00,-2.00,+3.00,-2.00,-1.00,+15.00,+13.00,+5.00,+2.00,-2.00
-3.00,+4.00,+3.00,+0.00,+7.00,+5.00,-1.00,+0.00,-6.00,-2.00,-3.00,-16.00,-29.00,-8.00,-5.00,-7.00
-20.00,-17.00,-8.00,-5.00,-4.00,-1.00,-3.00,-13.00,-3.00,-4.00,-2.00,-8.00,+4.00,-1.00,-2.00,+0.00
+5.00,+16.00,+8.00,+3.00,+4.00,+4.00,+2.00,+17.00,-4.00,-1.00,-3.00,-7.00,-14.00,-4.00,-1.00,-10.00
+4.00,-12.00,-5.00,-6.00,-2.00,-1.00,-2.00,+0.00,-5.00,-7.00,-6.00,+1.00,+8.00,-1.00,-3.00,-7.00
+1.00,-9.00,-4.00,-1.00,-2.00,+0.00,+0.00,+1.00,-7.00,-5.00,+0.00,+5.00,+12.00,+3.00,+4.00,+5.00
-8.00,+17.00,+2.00,-1.00,+7.00,-2.00,-1.00,-2.00,+2.00,-5.00,-3.00,-1.00,-3.00,+0.00,-1.00,+1.00
-9.00,-8.00,-8.00,-4.00,-13.00,-4.00,-1.00,+2.00,-8.00,-6.00,+1.00,+4.00,+6.00,+1.00,-1.00,+1.00
-22.00,+3.00,+2.00,-2.00,+3.00,-5.00,-6.00,-12.00,+15.00,+3.00,+2.00,-4.00,-11.00,-7.00,-1.00,+3.00
+12.00,-13.00,-1.00,-2.00,-15.00,+3.00,+2.00,+3.00,-6.00,-4.00,-2.00,-1.00,+3.00,+0.00,-1.00,-5.00
+7.00,+1.00,-5.00,-2.00,+11.00,-13.00,-4.00,+0.00,+2.00,+7.00,+1.00,+0.00,+5.00,-3.00,-2.00,-4.00
-11.00,-1.00,+3.00,+1.00,-1.00,-1.00,-3.00,-5.00,+8.00,+3.00,-2.00,+1.00,+1.00,-1.00,-4.00,-2.00
-1.00,-4.00,-4.00,-4.00,-3.00,-2.00,+1.00,-2.00,-10.00,+6.00,+2.00,-2.00,-3.00,-1.00,-2.00,-2.00
