-2.00,-11.00,-3.00,-4.00,-10.00,-3.00,+0.00,-1.00,+2.00,-5.00,-3.00,+0.00,+1.00,-1.00,-3.00,-4.00
+3.00,+2.00,+3.00,+4.00,+2.00,-3.00,-1.00,-1.00,+1.00,-2.00,-7.00,+9.00,+5.00,+3.00,+0.00,+1.00
-2.00,-4.00,+5.00,+7.00,-2.00,+0.00,+0.00,+0.00,-10.00,-6.00,-2.00,-5.00,+6.00,-1.00,-1.00,-4.00
-7.00,-7.00,-8.00,-4.00,+3.00,-1.00,-3.00,-3.00,+3.00,-2.00,+0.00,+0.00,-11.00,+0.00,+1.00,+1.00
+4.00,-4.00,+1.00,+0.00,+2.00,+1.00,+0.00,+2.00,+17.00,+11.00,+2.00,+0.00,-1.00,-2.00,-1.00,+1.00
-1.00,+16.00,+1.00,-3.00,+3.00,+1.00,-1.00,-1.00,+6.00,+10.00,+4.00,+2.00,+3.00,+0.00,+0.00,+2.00
+5.00,+4.00,+0.00,+1.00,+1.00,+1.00,+0.00,+1.00,-13.00,-14.00,-4.00,-3.00,-12.00,-4.00,-6.00,-9.00
+2.00,+1.00,+3.00,+2.00,-1.00,+1.00,+0.00,+0.00,-15.00,-8.00,+1.00,+1.00,+9.00,+3.00,+1.00,+2.00
-9.00,-16.00,-8.00,-7.00,-3.00,-5.00,-5.00,-7.00,-3.00,+4.00,-2.00,+0.00,+1.00,+1.00,+0.00,+4.00
+2.00,-10.00,-4.00,-1.00,-2.00,-2.00,+1.00,+6.00,-12.00,-6.00,+5.00,+1.00,-4.00,-2.00,-2.00,-1.00
+6.00,+14.00,+8.00,-2.00,+1.00,+1.00,-1.00,+0.00,+34.00,+13.00,-8.00,-3.00,+2.00,-2.00,-2.00,+0.00
-4.00,-4.00,-7.00,+2.00,-9.00,-7.00,-1.00,-1.00,-38.00,-24.00,-13.00,-3.00,-4.00,-5.00,-5.00,-9.00
-1.00,+16.00,-3.00,+0.00,-1.00,-7.00,-3.00,-4.00,+43.00,+21.00,+5.00,+6.00,+12.00,+5.00,+3.00,+11.00
-7.00,-32.00,+1.00,+4.00,+6.00,+4.00,+0.00,-4.00,-5.00,+14.00,+5.00,-1.00,-1.00,+0.00,-3.00,-3.00
-4.00,+0.00,+2.00,+0.00,+0.00,+1.00,-1.00,-1.00,-6.00,-3.00,+2.00,-1.00,-2.00,+0.00,+1.00,-3.00
-8.00,-29.00,-7.00,-4.00,+2.00,+1.00,-1.00,-4.00,-11.00,-3.00,-2.00,-9.00,-11.00,-5.00,-1.00,-2.00
+17.00,+65.00,+16.00,+2.00,-5.00,+0.00,+4.00,+4.00,-15.00,-16.00,-5.00,-3.00,-5.00,-7.00,-2.00,+0.00
-1.00,+0.00,+2.00,-1.00,-3.00,-1.00,-2.00,-1.00,+8.00,-1.00,+0.00,+11.00,+4.00,+2.00,-1.00,-1.00
+0.00,+5.00,-6.00,-7.00,-3.00,-2.00,-1.00,+2.00,-8.00,+12.00,+1.00,-12.00,+2.00,+1.00,+0.00,+3.00
-7.00,-4.00,-4.00,+4.00,+0.00,-1.00,-3.00,-4.00,+30.00,+7.00,+4.00,+0.00,+0.00,+4.00,+2.00,+4.00
-15.00,-61.00,-15.00,-7.00,+1.00,+2.00,-3.00,-8.00,-13.00,-9.00,-1.00,-2.00,-4.00,-4.00,-3.00,-7.00
+10.00,+39.00,+10.00,+6.00,+4.00,+4.00,+1.00,+3.00,+1.00,+1.00,+0.00,-4.00,+5.00,+0.00,+1.00,+2.00
+7.00,-5.00,+3.00,+1.00,-18.00,-6.00,+1.00,+1.00,-15.00,-17.00,-3.00,+2.00,-5.00,+1.00,+0.00,-1.00
-2.00,-12.00,-6.00,-3.00,+5.00,-11.00,-2.00,-1.00,+9.00,+6.00,+0.00,+2.00,-1.00,-4.00,-3.00,-2.00
-8.00,+9.00,-2.00,-2.00,+2.00,+6.00,-2.00,+1.00,+0.00,+6.00,+4.00,-3.00,-5.00,+1.00,+0.00,-1.00
-1.00,+21.00,-4.00,-4.00,+8.00,+2.00,-5.00,-4.00,-12.00,-8.00,-5.00,-4.00,+0.00,-2.00,-4.00,-5.00
+8.00,+8.00,+3.00,-2.00,-6.00,-3.00,+1.00,+4.00,-11.00,-15.00,-4.00,-1.00,-4.00,+1.00,+0.00,-4.00
+2.00,+10.00,+2.00,-2.00,-8.00,-3.00,-1.00,+0.00,+6.00,-2.00,-1.00,+1.00,+5.00,+0.00,+2.00,+2.00
+3.00,-23.00,-4.00,+4.00,+1.00,-4.00,+0.00,+0.00,-33.00,-16.00,-4.00,+7.00,+5.00,-1.00,-3.00,-7.00
-11.00,-1.00,+0.00,-6.00,-5.00,-5.00,-3.00,-4.00,+46.00,+20.00,+2.00,-3.00,-7.00,-2.00,+1.00,+7.00
+7.00,+6.00,+3.00,+8.00,+12.00,+4.00,-1.00,+1.00,-13.00,+7.00,+2.00,-1.00,-1.00,-4.00,-5.00,-4.00
+3.00,+7.00,+1.00,-1.00,-2.00,+3.00,+0.00,+0.00,+27.00,+3.00,+3.00,-1.00,+2.00,+5.00,+3.00,+6.00
-3.00,+4.00,-2.00,-6.00,-8.00,-3.00,-3.00,-4.00,-33.00,-15.00,-2.00,+4.00,+3.00,-2.00,-1.00,-5.00
+1.00,+5.00,-3.00,-4.00,+1.00,+3.00,+0.00,+0.00,-31.00,-23.00,-11.00,-14.00,-8.00,-6.00,-5.00,-8.00
-14.00,-32.00,-8.00,+0.00,+3.00,+4.00,-2.00,-6.00,+30.00,+19.00,+3.00,+1.00,+0.00,+0.00,+0.00,+6.00
+1.00,+9.00,+5.00,+2.00,+2.00,+4.00,+0.00,+0.00,+4.00,+4.00,+0.00,+0.00,-1.00,-16.00,-2.00,-1.00
+6.00,-5.00,-2.00,-6.00,+0.00,+2.00,+3.00,+1.00,+5.00,+2.00,-4.00,-6.00,+0.00,+26.00,+3.00,+3.00
-1.00,-16.00,-13.00,-8.00,-8.00,-10.00,-2.00,-4.00,-18.00,-16.00,+1.00,+4.00,+3.00,+1.00,+1.00,-9.00
+5.00,+24.00,+9.00,+8.00,-1.00,-2.00,+0.00,+2.00,+11.00,+3.00,+2.00,+0.00,-3.00,-2.00,-1.00,+3.00
-13.00,-27.00,-9.00,-3.00,-4.00,-5.00,-3.00,-4.00,+7.00,+4.00,-1.00,-5.00,+7.00,+11.00,+0.00,+1.00
-12.00,+10.00,-12.00,-7.00,-5.00,-5.00,-4.00,-7.00,+14.00,+18.00,+5.00,-1.00,-20.00,-10.00,-1.00,+3.00
+22.00,+16.00,+15.00,+6.00,+3.00,+7.00,+2.00,+7.00,-12.00,-24.00,-10.00,+1.00,+0.00,-6.00,-2.00,-4.00
-12.00,-13.00,-12.00,-4.00,-4.00,-12.00,-12.00,-8.00,-16.00,-3.00,+3.00,+9.00,+10.00,+6.00,+1.00,-3.00
-1.00,+5.00,+2.00,+2.00,+6.00,+3.00,+1.00,+0.00,+16.00,+3.00,-5.00,-11.00,-14.00,-10.00,-3.00,+1.00
+10.00,+16.00,+7.00,+5.00,+0.00,-1.00,+0.00,+3.00,-8.00,+3.00,+1.00,-2.00,-1.00,-8.00,-3.00,-1.00
-27.00,-50.00,-19.00,-10.00,-3.00,-3.00,-7.00,-8.00,+0.00,-3.00,-4.00,-3.00,+1.00,-1.00,-2.00,-1.00
+20.00,+30.00,+10.00,+2.00,-1.00,-3.00,+2.00,+3.00,-5.00,-4.00,-2.00,+0.00,-2.00,-9.00,-1.00,+0.00
+3.00,+14.00,-1.00,-1.00,+6.00,+5.00,-1.00,-1.00,-46.00,-29.00,-8.00,+2.00,+7.00,+9.00,+2.00,-7.00
-14.00,-26.00,-4.00,+1.00,-4.00,-6.00,-4.00,-3.00,+20.00,+18.00,-2.00,-5.00,+5.00,-11.00,-5.00,-3.00
-9.00,-22.00,-4.00,+0.00,+0.00,-9.00,-1.00,-3.00,-2.00,+1.00,+3.00,+1.00,-9.00,-27.00,-3.00,+2.00
+6.00,+32.00,+2.00,-1.00,-4.00,+4.00,+0.00,-2.00,-14.00,-9.00,-3.00,+1.00,+3.00,+6.00,+0.00,+0.00
-1.00,-14.00,-3.00,-7.00,-16.00,-2.00,+0.00,+1.00,-9.00,+2.00,+2.00,+0.00,-1.00,+3.00,-2.00,-3.00
+7.00,+19.00,+5.00,+0.00,+22.00,+5.00,+4.00,+6.00,+0.00,-7.00,-6.00,-3.00,-6.00,-11.00,-2.00,-6.00
-16.00,-22.00,-6.00,+3.00,-10.00,-7.00,-9.00,-6.00,+11.00,+5.00,-2.00,-1.00,+3.00,+7.00,-3.00,+3.00
+15.00,+22.00,+3.00,+2.00,+4.00,+0.00,+5.00,+1.00,-28.00,-17.00,-1.00,+1.00,+4.00,+18.00,-1.00,-7.00
+1.00,-4.00,-8.00,-4.00,-3.00,+0.00,+5.00,+0.00,-1.00,-2.00,-1.00,-4.00,-17.00,-1.00,-5.00,-5.00
-5.00,-16.00,-4.00,-2.00,-5.00,-4.00,-8.00,-2.00,+5.00,+13.00,+3.00,-5.00,-4.00,+1.00,+1.00,+2.00
-4.00,-21.00,+0.00,-2.00,-6.00,-1.00,+4.00,+2.00,-14.00,-16.00,-1.00,-1.00,-3.00,-14.00,-2.00,-5.00
-15.00,-42.00,-10.00,+1.00,+7.00,+2.00,-3.00,+0.00,+25.00,+10.00,+3.00,+0.00,+10.00,+15.00,-6.00,+8.00
+16.00,+71.00,+16.00,+6.00,+0.00,-1.00,+1.00,+3.00,+21.00,+19.00,+7.00,+5.00,+7.00,+1.00,+22.00,+6.00
+5.00,+15.00,+6.00,+3.00,-4.00,+2.00,+3.00,+1.00,-4.00,-15.00,-8.00,-3.00,-3.00,-12.00,-2.00,+0.00
+6.00,+16.00,+0.00,+2.00,+5.00,+1.00,+0.00,-2.00,+28.00,+18.00,+3.00,+0.00,+5.00,+7.00,-2.00,+3.00
-26.00,-37.00,-8.00,-7.00,-7.00,-1.00,+7.00,-5.00,-40.00,-8.00,-4.00,-5.00,-14.00,-27.00,-4.00,-10.00
+13.00,+16.00,+4.00,+0.00,+0.00,-6.00,-9.00,+2.00,+8.00,+3.00,-2.00,+0.00,+1.00,+26.00,-8.00,+1.00
-10.00,-60.00,-3.00,+4.00,+6.00,+12.00,-2.00,+0.00,-1.00,+9.00,+1.00,-1.00,-2.00,-23.00,-8.00,-6.00
+0.00,+8.00,+5.00,+0.00,-5.00,+1.00,+6.00,+1.00,-5.00,-6.00,+3.00,+4.00,+6.00,+12.00,+5.00,+4.00
+23.00,+32.00,-3.00,-8.00,+0.00,+2.00,+0.00,+3.00,-23.00,-27.00,-10.00,-5.00,-6.00,-7.00,-4.00,-11.00
-14.00,-28.00,-7.00,-2.00,+5.00,-4.00,+5.00,+2.00,+2.00,+12.00,-7.00,-4.00,-5.00,-28.00,-8.00,-6.00
+15.00,+58.00,+13.00,+5.00,-5.00,-2.00,-10.00,+0.00,-6.00,-25.00,-5.00,-5.00,-8.00,-30.00,-7.00,+6.00
+0.00,-13.00,+1.00,+7.00,+5.00,+8.00,+11.00,-2.00,-69.00,-18.00,-1.00,-4.00,+3.00,+86.00,+17.00,-13.00
-14.00,-35.00,-7.00,-4.00,-10.00,-7.00,+5.00,+1.00,-2.00,+8.00,-4.00,-6.00,-5.00,-11.00,-8.00,-17.00
-2.00,-2.00,+2.00,-4.00,-1.00,+0.00,+3.00,-3.00,+52.00,+11.00,+10.00,+7.00,+4.00,+3.00,+11.00,+16.00
+4.00,+6.00,-5.00,-1.00,+2.00,-5.00,-25.00,-2.00,-19.00,-4.00,-4.00,-6.00,-1.00,+15.00,-4.00,-6.00
+1.00,+3.00,-2.00,+2.00,-4.00,-1.00,+3.00,+1.00,+10.00,-20.00,-4.00,-1.00,-1.00,-16.00,+0.00,+3.00
-7.00,+0.00,-3.00,-2.00,+5.00,+2.00,-6.00,-4.00,-8.00,+17.00,+5.00,+1.00,-1.00,-6.00,+8.00,+7.00
+14.00,+38.00,+22.00,+4.00,-1.00,+3.00,+0.00,+2.00,-11.00,+5.00,+0.00,-2.00,-4.00,-35.00,-17.00,-11.00
-20.00,-37.00,-13.00,-7.00,-10.00,-3.00,+11.00,-5.00,-21.00,-29.00,-7.00,+3.00,+5.00,+37.00,+1.00,-9.00
-19.00,-8.00,-7.00,-7.00,-4.00,-12.00,-14.00,-5.00,-28.00,-33.00,-15.00,-8.00,-3.00,+7.00,+1.00,-18.00
+17.00,-2.00,+0.00,+3.00,+8.00,+9.00,-7.00,+4.00,+70.00,+67.00,+21.00,+6.00,+5.00,+9.00,+14.00,+26.00
-7.00,-12.00,-8.00,+0.00,-1.00,+3.00,-2.00,-5.00,-34.00,-39.00,-10.00,-3.00,+1.00,-8.00,-3.00,+6.00
-8.00,-11.00,-6.00,-4.00,-2.00,-7.00,-7.00,-5.00,+49.00,+35.00,+13.00,+6.00,+4.00,+7.00,-4.00,-2.00
+13.00,+17.00,+11.00,+1.00,+6.00,+5.00,-1.00,+6.00,-51.00,-13.00,-6.00,-1.00,+5.00,-21.00,+17.00,-5.00
-14.00,-37.00,-1.00,+0.00,-3.00,+1.00,+17.00,-3.00,+37.00,+12.00,-6.00,-5.00,-13.00,-9.00,+7.00,-6.00
+4.00,+9.00,+8.00,+10.00,+5.00,+4.00,+14.00,+2.00,-31.00,-21.00,-3.00,-1.00,+10.00,+47.00,-1.00,-8.00
-10.00,-13.00,-16.00,-8.00,-4.00,-7.00,-7.00,-2.00,+17.00,+14.00,+7.00,+1.00,-5.00,-19.00,+6.00,+16.00
-7.00,+0.00,-6.00,-3.00,-1.00,-7.00,-5.00,-9.00,+3.00,-10.00,-1.00,-1.00,-1.00,-21.00,-1.00,-1.00
-3.00,-11.00,-7.00,-7.00,-6.00,+1.00,-6.00,-1.00,-3.00,-4.00,+3.00,+4.00,+3.00,+19.00,-7.00,-5.00
-1.00,-25.00,+5.00,+0.00,-5.00,-7.00,-13.00,-4.00,-62.00,-17.00,-10.00,-7.00,-15.00,-64.00,-23.00,-12.00
-1.00,-21.00,-8.00,+2.00,+1.00,+3.00,+24.00,+2.00,+5.00,+12.00,+0.00,-3.00,+4.00,+3.00,+8.00,-1.00
+13.00,+28.00,+19.00,+5.00,+4.00,+11.00,-9.00,+1.00,+53.00,+42.00,+8.00,+4.00,-1.00,+8.00,+12.00,+12.00
+6.00,+5.00,+4.00,+4.00,+4.00,-4.00,+59.00,+10.00,-18.00,-36.00,-5.00,-2.00,-3.00,-12.00,-6.00,-1.00
-20.00,-3.00,-17.00,-11.00,-7.00,-7.00,-20.00,-10.00,-27.00,+6.00,-7.00,-9.00,-7.00,+5.00,-3.00,-9.00
-6.00,-48.00,-11.00,-4.00,-4.00,-9.00,-26.00,-3.00,-9.00,-5.00,+6.00,+5.00,+8.00,-9.00,+6.00,-1.00
+40.00,+63.00,+9.00,-1.00,+1.00,+2.00,+15.00,+8.00,-6.00,-2.00,-5.00,-4.00,-10.00,-32.00,-18.00,-5.00
-5.00,-24.00,+5.00,+6.00,+4.00,+7.00,+15.00,+5.00,+22.00,+27.00,+13.00,+6.00,+1.00,-29.00,+5.00,+27.00
+0.00,+19.00,+2.00,+2.00,+2.00,+5.00,+14.00,+4.00,+20.00,-13.00,-2.00,+4.00,+13.00,+80.00,+15.00,-7.00
-14.00,+1.00,-6.00,-7.00,-1.00,-2.00,+12.00,-9.00,+3.00,-6.00,-7.00,-7.00,-7.00,-36.00,-13.00,-1.00
+2.00,-3.00,-9.00,-6.00,+8.00,+1.00,+13.00,-1.00,-2.00,+16.00,+1.00,+1.00,+4.00,+67.00,-1.00,-7.00
+6.00,+5.00,+6.00,+4.00,-15.00,-16.00,-38.00,-6.00,-25.00,-1.00,-4.00,-5.00,+3.00,-2.00,-23.00,-9.00
+7.00,-18.00,+3.00,+4.00,+1.00,+5.00,+6.00,+5.00,-55.00,-15.00,-4.00,-3.00,-9.00,-4.00,+2.00,-18.00
-5.00,+10.00,+0.00,+3.00,+0.00,+1.00,-14.00,-4.00,+22.00,-3.00,+4.00,+3.00,+7.00,+54.00,+8.00,+16.00
-9.00,+1.00,+0.00,-6.00,+0.00,-8.00,-19.00,-10.00,+14.00,+1.00,-4.00,-3.00,-13.00,-108.00,-30.00,-12.00
-10.00,-6.00,-5.00,-2.00,+4.00,+11.00,+15.00,-6.00,+12.00,-16.00,-5.00,-6.00,-10.00,-15.00,-12.00,-17.00
-2.00,-12.00,-12.00,-9.00,-4.00,-8.00,-23.00,+2.00,+21.00,+30.00,+11.00,+3.00,+3.00,-3.00,+11.00,+21.00
+22.00,+16.00,+15.00,+1.00,+0.00,+12.00,+41.00,+5.00,-7.00,-3.00,-2.00,+1.00,+13.00,+20.00,-6.00,-2.00
-12.00,+19.00,+1.00,+0.00,-10.00,-2.00,-5.00,-1.00,-16.00,-30.00,-13.00,-8.00,-29.00,-25.00,+10.00,+2.00
-21.00,-51.00,+1.00,-2.00,+1.00,+6.00,+8.00,-5.00,+5.00,+9.00,+4.00,+5.00,+5.00,-21.00,-3.00,-13.00
+11.00,-7.00,-7.00,+0.00,+3.00,+6.00,+2.00,-2.00,+56.00,+7.00,-4.00,+3.00,-1.00,-35.00,+3.00,+20.00
-8.00,-22.00,-4.00,+4.00,+3.00,-6.00,-13.00,+1.00,-40.00,-38.00,-12.00,-9.00,-7.00,+1.00,-4.00,-16.00
+0.00,+24.00,+0.00,-2.00,-5.00,-8.00,-41.00,+0.00,+45.00,+43.00,+13.00,+7.00,+15.00,+13.00,-3.00,+11.00
+12.00,+39.00,-2.00,-3.00,+6.00,+10.00,-15.00,+0.00,+17.00,-7.00,-1.00,+0.00,+1.00,+71.00,-3.00,-5.00
-7.00,-12.00,+2.00,+1.00,-3.00,-10.00,-18.00,-2.00,+45.00,+23.00,+13.00,+7.00,+5.00,-3.00,-1.00,+31.00
-7.00,-9.00,+2.00,+5.00,+3.00,+5.00,+4.00,+3.00,+4.00,+4.00,-5.00,-2.00,-6.00,-5.00,-4.00,+0.00
+0.00,-12.00,-7.00,-5.00,-6.00,+1.00,+45.00,+2.00,-18.00,+0.00,-2.00,-1.00,+3.00,-9.00,-4.00,-1.00
+4.00,+33.00,+2.00,+0.00,+3.00,-2.00,-22.00,-2.00,+20.00,-6.00,-8.00,-4.00,-3.00,+12.00,+6.00,-8.00
-5.00,+5.00,-5.00,-7.00,+2.00,+2.00,-20.00,-1.00,-14.00,-14.00,+8.00,+6.00,+4.00,-3.00,-3.00,+2.00
+16.00,+47.00,+2.00,+1.00,+1.00,+1.00,+3.00,-1.00,-36.00,-3.00,+7.00,+2.00,-6.00,-4.00,+1.00,-5.00
-3.00,-22.00,-3.00,+1.00,-4.00,-1.00,+5.00,+0.00,+93.00,+46.00,+8.00,-2.00,+3.00,+9.00,+1.00,+14.00
-22.00,+2.00,-9.00,-5.00,-4.00,+0.00,-15.00,-10.00,-36.00,-36.00,-17.00,-1.00,-1.00,-35.00,+0.00,+2.00
-13.00,-30.00,-7.00,-4.00,-4.00,-7.00,+40.00,-8.00,-16.00,-1.00,-1.00,+0.00,-3.00,-10.00,-7.00,-18.00
+22.00,+11.00,+14.00,+2.00,+2.00,+5.00,-36.00,+4.00,+34.00,+20.00,+1.00,+0.00,+4.00,+39.00,+13.00,+20.00
-10.00,-7.00,-6.00,-1.00,+1.00,+6.00,+5.00,-8.00,-74.00,-40.00,-9.00,-8.00,-12.00,-49.00,-14.00,-20.00
-10.00,-21.00,-5.00,-7.00,-4.00,-16.00,-17.00,-4.00,+66.00,+29.00,+4.00,-1.00,+6.00,+27.00,+0.00,+19.00
+19.00,+29.00,+4.00,+3.00,-1.00,-1.00,-1.00,-2.00,-21.00,-17.00,-11.00,-5.00,-2.00,-3.00,-9.00,-22.00
-12.00,+11.00,-10.00,-4.00,-5.00,-2.00,-2.00,-2.00,+69.00,+29.00,+8.00,+4.00,+1.00,+19.00,+21.00,+6.00
+13.00,-20.00,+0.00,-7.00,-1.00,-4.00,+2.00,+8.00,+15.00,-6.00,-8.00,-6.00,-5.00,-9.00,-13.00,-8.00
-5.00,-1.00,-15.00,-5.00,-3.00,+1.00,-2.00,-6.00,-50.00,-4.00,+3.00,+2.00,+6.00,+31.00,+7.00,+4.00
+1.00,+18.00,+15.00,+5.00,+1.00,+0.00,-4.00,+5.00,+10.00,+7.00,+4.00,-1.00,-8.00,-9.00,+1.00,-5.00
-2.00,+8.00,+8.00,+5.00,+3.00,+1.00,+12.00,+0.00,-61.00,-24.00,-9.00,-6.00,-7.00,-13.00,-12.00,-12.00
-11.00,-7.00,+5.00,+5.00,-3.00,+5.00,+4.00,-1.00,+48.00,+25.00,+15.00,+8.00,+13.00,+41.00,+13.00,+19.00
-20.00,-47.00,-25.00,-20.00,-15.00,-6.00,+17.00,-5.00,-26.00,-12.00,-4.00,-3.00,-7.00,-45.00,-7.00,-2.00
+22.00,+49.00,+12.00,+5.00,+3.00,+2.00,+9.00,+9.00,+19.00,+18.00,+0.00,-4.00,-3.00,-10.00,-3.00,-1.00
-7.00,-13.00,+5.00,+5.00,+5.00,+8.00,+23.00,-3.00,-65.00,-37.00,-9.00,+0.00,+1.00,+24.00,-4.00,-10.00
+7.00,+20.00,-1.00,+1.00,+0.00,+1.00,-19.00,-3.00,+74.00,+32.00,+7.00,-2.00,-4.00,+1.00,-9.00,+8.00
-6.00,-36.00,+13.00,+4.00,+7.00,-9.00,-31.00,+0.00,-38.00,-7.00,+1.00,+5.00,+0.00,-9.00,+4.00,+11.00
+7.00,-12.00,-16.00,-6.00,-8.00,+1.00,+20.00,-3.00,-25.00,-13.00,-8.00,-8.00,-5.00,-48.00,-11.00,-15.00
-3.00,-9.00,+5.00,-6.00,-1.00,+1.00,+12.00,+7.00,+1.00,+3.00,+0.00,-4.00,-13.00,-36.00,-13.00,-2.00
-5.00,-4.00,-12.00,-7.00,-4.00,-7.00,-12.00,-4.00,-93.00,-35.00,-8.00,-2.00,+3.00,+41.00,+18.00,-4.00
+15.00,+22.00,+5.00,+7.00,-1.00,-3.00,-6.00,+4.00,+81.00,+15.00,-4.00,-2.00,-2.00,-11.00,-2.00,+1.00
-15.00,+1.00,-5.00,-4.00,-3.00,+1.00,+1.00,-4.00,+29.00,+26.00,+10.00,+1.00,-2.00,+11.00,+10.00,+19.00
+21.00,-33.00,-4.00,+2.00,-1.00,-3.00,-18.00,+1.00,-4.00,+3.00,-5.00,+0.00,+1.00,+21.00,+2.00,-7.00
-14.00,-27.00,-4.00,-1.00,-2.00,-14.00,-19.00,-3.00,+4.00,-17.00,-3.00,+1.00,+16.00,+24.00,-2.00,+6.00
-16.00,-15.00,-4.00,-3.00,+0.00,+4.00,+21.00,-7.00,-38.00,+1.00,+4.00,+1.00,-22.00,-26.00,-6.00,-11.00
+48.00,+19.00,+26.00,+12.00,+7.00,+6.00,+16.00,+21.00,-49.00,-28.00,-9.00,-6.00,-1.00,-12.00,+0.00,-13.00
-21.00,-3.00,-13.00,-5.00,-5.00,-11.00,-26.00,-10.00,-17.00,-11.00,-9.00,-4.00,-4.00,+34.00,+0.00,-11.00
+8.00,-1.00,-6.00,-9.00,-6.00,-1.00,-15.00,+1.00,+35.00,+14.00,+7.00,+7.00,+5.00,+1.00,-2.00,+16.00
-9.00,+0.00,+12.00,+10.00,+2.00,+1.00,+2.00,+2.00,-21.00,-3.00,+4.00,+2.00,+5.00,+24.00,-2.00,+4.00
+2.00,-9.00,-6.00,-2.00,+0.00,+13.00,+31.00,-6.00,+2.00,-3.00,-12.00,-7.00,-4.00,+8.00,-9.00,-14.00
+14.00,+11.00,-8.00,-11.00,-8.00,-10.00,-16.00,+5.00,-20.00,-14.00,-1.00,+0.00,+1.00,-29.00,-5.00,+3.00
+3.00,-35.00,+5.00,+6.00,+0.00,+10.00,+13.00,+2.00,+18.00,+1.00,-5.00,-1.00,-1.00,+5.00,-11.00,+2.00
+0.00,+27.00,+3.00,+0.00,+3.00,-2.00,+2.00,+4.00,+7.00,+4.00,+3.00,-5.00,+2.00,-57.00,-10.00,+5.00
-34.00,-39.00,-9.00,+1.00,+5.00,+15.00,-2.00,-5.00,+92.00,+45.00,+12.00,+2.00,-2.00,+35.00,+6.00,+15.00
+5.00,+36.00,+2.00,-1.00,-5.00,-7.00,+2.00,-2.00,-67.00,-32.00,-7.00,+0.00,-3.00,-105.00,-19.00,-23.00
-2.00,+24.00,+2.00,+0.00,+0.00,+1.00,-20.00,-6.00,+39.00,+26.00,+5.00,-2.00,+1.00,+54.00,+17.00,+5.00
-11.00,+8.00,-3.00,-1.00,-3.00,-4.00,+5.00,-2.00,-16.00,-16.00,-9.00,-2.00,-1.00,+9.00,-14.00,-12.00
+16.00,-7.00,+6.00,-1.00,+4.00,-1.00,-26.00,-4.00,-28.00,+2.00,+5.00,+1.00,+5.00,+20.00,+23.00,+2.00
-4.00,+3.00,+0.00,+7.00,+1.00,+4.00,+10.00,+2.00,-21.00,-17.00,-9.00,-6.00,-2.00,-26.00,-6.00,-8.00
-8.00,-32.00,-8.00,-4.00,-5.00,-3.00,-15.00,+4.00,+5.00,-4.00,+2.00,+2.00,-1.00,-9.00,+12.00,+2.00
+10.00,+39.00,+4.00,-1.00,-4.00,-7.00,-12.00,-4.00,+7.00,+16.00,+5.00,+1.00,-2.00,-31.00,+0.00,+3.00
-28.00,-4.00,-2.00,-3.00,+3.00,-3.00,+17.00,-10.00,-10.00,-19.00,-6.00,-1.00,-1.00,+8.00,-12.00,-4.00
+15.00,-18.00,-2.00,-8.00,-2.00,+0.00,+9.00,+10.00,+38.00,-8.00,-10.00,-2.00,+2.00,+33.00,-4.00,+9.00
-17.00,-15.00,-5.00,+0.00,-3.00,-5.00,+6.00,-4.00,-91.00,-36.00,-10.00,-5.00,-7.00,+18.00,-4.00,-8.00
+6.00,+3.00,-10.00,-1.00,-2.00,-7.00,-27.00,+1.00,-6.00,-11.00,-11.00,-4.00,-2.00,+8.00,+6.00,-10.00
-4.00,+49.00,+23.00,+6.00,+5.00,+12.00,+23.00,+4.00,+27.00,+19.00,+18.00,+8.00,+3.00,-22.00,+1.00,+21.00
+4.00,+17.00,+4.00,-3.00,+2.00,-2.00,-23.00,-11.00,+3.00,+11.00,+1.00,-2.00,+0.00,+13.00,+9.00,+9.00
-51.00,-16.00,-11.00,-8.00,-3.00,-6.00,+25.00,-4.00,-32.00,-19.00,-12.00,-8.00,-10.00,-12.00,-25.00,-13.00
+36.00,+10.00,+1.00,+1.00,-6.00,+0.00,-8.00,+1.00,+26.00,+7.00,-5.00,-1.00,-3.00,-24.00,+21.00,-8.00
+7.00,-16.00,-8.00,-5.00,-5.00,-22.00,-44.00,+3.00,+35.00,+20.00,+9.00,+7.00,+6.00,+2.00,+3.00,+22.00
-16.00,+1.00,+1.00,+0.00,-2.00,+2.00,+5.00,-6.00,-19.00,+2.00,+2.00,+0.00,+0.00,+7.00,+1.00,-16.00
+0.00,-7.00,+3.00,+6.00,+3.00,-1.00,-14.00,-7.00,-9.00,+1.00,+6.00,+0.00,-6.00,-53.00,-13.00,+3.00
-13.00,-17.00,+0.00,+1.00,+2.00,-2.00,+7.00,+4.00,-42.00,-26.00,-9.00,-5.00,+3.00,+50.00,-3.00,-8.00
-9.00,+4.00,-4.00,+2.00,+7.00,-2.00,-8.00,-8.00,-19.00,-13.00,-14.00,-6.00,-1.00,+19.00,-1.00,-12.00
+0.00,+20.00,+4.00,-2.00,-12.00,-8.00,+7.00,+1.00,+18.00,-1.00,+10.00,+8.00,+6.00,-12.00,+6.00,+4.00
+19.00,+5.00,+0.00,+3.00,+8.00,+9.00,+13.00,+3.00,-25.00,+0.00,-6.00,-6.00,-7.00,-25.00,-4.00,-16.00
+4.00,-5.00,-7.00,-10.00,-3.00,-6.00,-17.00,-4.00,-19.00,-14.00,+1.00,-3.00,-2.00,+3.00,+3.00,+7.00
-15.00,-31.00,-10.00,-4.00,-9.00,-4.00,+5.00,-7.00,+23.00,+20.00,+5.00,+3.00,+0.00,-39.00,-7.00,-5.00
+7.00,-16.00,+4.00,+6.00,+12.00,+2.00,-14.00,+1.00,-12.00,-6.00,-10.00,-9.00,-7.00,-8.00,-10.00,+25.00
+7.00,+27.00,+19.00,+14.00,+8.00,+4.00,+20.00,+5.00,-2.00,-4.00,-2.00,+3.00,+3.00,-39.00,-26.00,-30.00
+36.00,+13.00,+2.00,-3.00,+5.00,+3.00,+5.00,+8.00,-6.00,-8.00,+8.00,+2.00,+1.00,+47.00,+39.00,+7.00
+9.00,-19.00,-19.00,-17.00,-18.00,-10.00,-31.00,+1.00,+46.00,+16.00,+0.00,+2.00,+2.00,+16.00,-8.00,+0.00
-20.00,+5.00,-10.00,-3.00,-4.00,-5.00,-9.00,-14.00,+28.00,+10.00,+0.00,+3.00,+2.00,-5.00,+13.00,+3.00
+37.00,+38.00,+15.00,+5.00,+6.00,+1.00,+6.00,+17.00,+30.00,+5.00,-1.00,-2.00,+1.00,-18.00,+0.00,+11.00
-6.00,+0.00,+1.00,+2.00,+5.00,-3.00,+2.00,-3.00,+26.00,+5.00,+2.00,+0.00,+3.00,+53.00,-5.00,+6.00
-34.00,-31.00,-15.00,-6.00,-6.00,-7.00,-11.00,-16.00,-75.00,-26.00,-5.00,-1.00,-3.00,-8.00,+2.00,-17.00
+18.00,+11.00,+3.00,+0.00,-1.00,+10.00,+38.00,+5.00,+102.00,+65.00,+20.00,+4.00,-2.00,-6.00,+2.00,+30.00
-21.00,+5.00,+2.00,-1.00,-8.00,-8.00,-18.00,+1.00,-50.00,-14.00,-7.00,-2.00,-5.00,+7.00,+1.00,-6.00
-12.00,+13.00,+0.00,-2.00,-2.00,-4.00,-2.00,-11.00,+18.00,+40.00,+20.00,+3.00,+1.00,-37.00,-8.00,-6.00
-12.00,+19.00,+3.00,+5.00,+5.00,+1.00,+19.00,-9.00,-61.00,-45.00,-13.00,-5.00,+0.00,+33.00,+0.00,-4.00
-13.00,-45.00,+0.00,-4.00,-4.00,-9.00,-18.00,+0.00,+11.00,+3.00,+1.00,+5.00,+1.00,+1.00,-9.00,-8.00
+25.00,+9.00,-11.00,-4.00,+1.00,+7.00,+43.00,+1.00,-15.00,-14.00,-6.00,-1.00,+0.00,-18.00,-18.00,+1.00
+8.00,+12.00,+3.00,+0.00,-6.00,-3.00,-9.00,-5.00,-38.00,-20.00,-22.00,-10.00,-14.00,-42.00,+13.00,-5.00
+0.00,-8.00,-10.00,-8.00,-1.00,-2.00,-21.00,+4.00,-1.00,+13.00,+12.00,+4.00,-9.00,-8.00,-18.00,+1.00
-21.00,-12.00,-3.00,+3.00,+5.00,+5.00,+12.00,+9.00,+75.00,+32.00,+13.00,+0.00,-12.00,-22.00,-2.00,+10.00
-33.00,-32.00,-11.00,-4.00,+2.00,-7.00,-20.00,-11.00,+53.00,+27.00,+5.00,+2.00,+1.00,+27.00,+10.00,+5.00
+11.00,+17.00,+18.00,+9.00,-4.00,+15.00,+21.00,-1.00,-37.00,+10.00,+8.00,+3.00,-6.00,-34.00,-17.00,-8.00
+21.00,-3.00,-14.00,-6.00,-2.00,-5.00,-21.00,-5.00,-35.00,-21.00,-27.00,-22.00,-13.00,+8.00,-8.00,-14.00
+5.00,+27.00,+10.00,+0.00,+6.00,+10.00,+40.00,+5.00,-6.00,+3.00,+5.00,+4.00,+7.00,+29.00,+8.00,-2.00
-14.00,-24.00,-3.00,-1.00,-4.00,-2.00,+1.00,-3.00,+27.00,-12.00,+0.00,+3.00,+2.00,-4.00,+19.00,+23.00
+23.00,+10.00,+3.00,+3.00,+14.00,+5.00,+6.00,+14.00,+21.00,-9.00,-10.00,-3.00,-3.00,+19.00,-23.00,-5.00
-25.00,-23.00,-11.00,-4.00,-6.00,-11.00,-18.00,-9.00,+65.00,+54.00,+20.00,+5.00,+5.00,+20.00,+41.00,+46.00
+18.00,+28.00,-11.00,-5.00,-1.00,-5.00,-10.00,-13.00,-30.00,-6.00,+4.00,-1.00,-3.00,+10.00,+14.00,-21.00
-24.00,-47.00,-9.00,-12.00,-10.00,-10.00,-6.00,-3.00,-128.00,-54.00,-15.00,-7.00,-10.00,-21.00,-17.00,-38.00
-30.00,-5.00,+13.00,+10.00,-1.00,+4.00,-6.00,-5.00,+79.00,+9.00,+0.00,+3.00,+7.00,-14.00,+11.00,+16.00
+12.00,+10.00,+0.00,-1.00,-2.00,-3.00,+6.00,+11.00,-84.00,-50.00,-28.00,-5.00,+1.00,+5.00,-11.00,-36.00
-4.00,-26.00,-2.00,+3.00,+4.00,+2.00,-11.00,+9.00,-41.00,-18.00,+1.00,+4.00,+9.00,+2.00,-8.00,+1.00
+22.00,+53.00,+2.00,-1.00,+5.00,+12.00,+9.00,-8.00,+13.00,+62.00,+18.00,+5.00,+2.00,-1.00,+7.00,-1.00
+14.00,-26.00,-14.00,-3.00,-5.00,-2.00,-4.00,+8.00,-82.00,-22.00,+0.00,-4.00,+8.00,+75.00,-14.00,-29.00
-28.00,-16.00,+1.00,-1.00,+0.00,+2.00,+20.00,+6.00,+23.00,-21.00,-5.00,+2.00,-2.00,-19.00,-1.00,+16.00
-24.00,+0.00,-2.00,-3.00,-12.00,-3.00,+3.00,-10.00,+0.00,+3.00,+7.00,+4.00,-2.00,-40.00,-1.00,+10.00
-27.00,-12.00,-2.00,-2.00,-1.00,-4.00,-15.00,-10.00,+49.00,+9.00,-10.00,-10.00,-6.00,+15.00,-33.00,-16.00
+48.00,+8.00,+1.00,+1.00,+1.00,+4.00,+2.00,+7.00,-108.00,-67.00,-17.00,-6.00,-4.00,+22.00,+2.00,-36.00
-4.00,+7.00,+7.00,+5.00,+4.00,-2.00,+0.00,-3.00,+110.00,+54.00,+10.00,-8.00,+2.00,+4.00,+7.00,+27.00
-11.00,-4.00,-4.00,+2.00,+6.00,-1.00,-4.00,+0.00,-54.00,-8.00,-7.00,-1.00,-4.00,+3.00,+1.00,-19.00
-3.00,+13.00,+5.00,+3.00,+8.00,+0.00,-16.00,-3.00,+62.00,+10.00,+14.00,+12.00,+20.00,+10.00,+18.00,+39.00
-41.00,-12.00,-10.00,-10.00,-24.00,-19.00,-3.00,+3.00,-8.00,+5.00,+1.00,+2.00,-4.00,-25.00,-3.00,-13.00
+33.00,+17.00,+11.00,+0.00,+3.00,-8.00,-27.00,+7.00,-91.00,-54.00,-13.00,-3.00,-4.00,-9.00,-15.00,-23.00
-26.00,-17.00,-8.00,-5.00,+4.00,-4.00,-7.00,-3.00,+26.00,+16.00,+0.00,-13.00,+5.00,+8.00,+4.00,-7.00
+42.00,+24.00,+1.00,+0.00,+15.00,+4.00,-2.00,+4.00,+17.00,+27.00,+11.00,+4.00,+0.00,-2.00,+8.00,-1.00
-38.00,-20.00,-21.00,-17.00,-27.00,-11.00,-10.00,-15.00,+35.00,+10.00,+7.00,+5.00,+0.00,-50.00,+2.00,+16.00
-28.00,+2.00,+12.00,+8.00,+8.00,+4.00,-3.00,-12.00,+39.00,-20.00,-4.00,-2.00,+3.00,-15.00,-10.00,+4.00
+46.00,+26.00,+17.00,-1.00,-16.00,+1.00,+21.00,+11.00,-54.00,-9.00,-5.00,+15.00,+4.00,+38.00,-21.00,+6.00
+26.00,+12.00,-11.00,-9.00,-11.00,+7.00,+12.00,+5.00,-25.00,-34.00,-25.00,-28.00,-12.00,-6.00,-5.00,-11.00
-28.00,-4.00,-3.00,+3.00,+18.00,-11.00,-11.00,-9.00,+28.00,-5.00,-14.00,-9.00,-9.00,-18.00,-2.00,+5.00
+11.00,+10.00,-1.00,-1.00,-6.00,-5.00,+1.00,-8.00,-5.00,+37.00,+7.00,+6.00,+2.00,-18.00,-9.00,-17.00
+8.00,-8.00,-10.00,-11.00,-2.00,-4.00,-12.00,-8.00,-46.00,-36.00,-3.00,-6.00,-10.00,-20.00,-20.00,-19.00
-8.00,-16.00,-5.00,-1.00,-25.00,-10.00,+8.00,+0.00,+18.00,+14.00,-1.00,-3.00,-6.00,+8.00,+8.00,+3.00
-3.00,+9.00,+7.00,+4.00,-1.00,+5.00,+3.00,-6.00,-28.00,-35.00,-7.00,+7.00,+6.00,-11.00,-19.00,+17.00
+32.00,+4.00,+0.00,-5.00,-3.00,+3.00,-7.00,+15.00,-61.00,-3.00,-4.00,+3.00,+11.00,+23.00,-10.00,-17.00
+10.00,+27.00,+6.00,+4.00,+12.00,-2.00,-9.00,+13.00,+78.00,+6.00,-15.00,-41.00,-42.00,-10.00,+7.00,+17.00
-38.00,-37.00,-3.00,+5.00,-8.00,-4.00,-6.00,-5.00,+40.00,+4.00,+1.00,+2.00,+10.00,-2.00,+2.00,-4.00
+39.00,-2.00,+8.00,+14.00,+18.00,+11.00,+3.00,+13.00,-17.00,-4.00,+6.00,+1.00,-5.00,-10.00,-10.00,-5.00
-8.00,-6.00,+4.00,+2.00,+2.00,+6.00,-1.00,+0.00,+45.00,+42.00,+24.00,+34.00,+17.00,+5.00,+24.00,+5.00
-1.00,+4.00,-10.00,-2.00,+9.00,-6.00,-37.00,-10.00,-105.00,+5.00,+3.00,+10.00,+16.00,+4.00,-8.00,-10.00
+25.00,-32.00,-5.00,-5.00,-8.00,-3.00,-4.00,+7.00,+68.00,-7.00,-9.00,-29.00,-32.00,-3.00,+8.00,+14.00
-5.00,-3.00,+4.00,+8.00,-2.00,-11.00,+1.00,-9.00,-44.00,-29.00,-16.00,-15.00,-8.00,-8.00,-12.00,-3.00
-23.00,-11.00,+0.00,+9.00,+23.00,+14.00,+35.00,-4.00,+26.00,+12.00,+9.00,+9.00,+3.00,+6.00,+23.00,+9.00
-22.00,-2.00,+0.00,-9.00,+4.00,-1.00,+0.00,-5.00,+22.00,-14.00,-7.00,+5.00,+10.00,+17.00,+6.00,-8.00
-10.00,+22.00,-8.00,+3.00,-32.00,+0.00,+2.00,-15.00,-54.00,-27.00,+6.00,+7.00,+7.00,-9.00,-3.00,-8.00
+22.00,+27.00,+13.00,-1.00,+6.00,+3.00,+5.00,+2.00,-9.00,+27.00,+6.00,+3.00,+14.00,+24.00,+5.00,-9.00
+13.00,+9.00,-4.00,-4.00,-5.00,-8.00,-13.00,-6.00,+9.00,+13.00,+11.00,-9.00,-12.00,-15.00,+0.00,+0.00
-28.00,-10.00,+8.00,+4.00,-2.00,-8.00,+10.00,+2.00,+86.00,+20.00,-2.00,+16.00,+0.00,+10.00,-20.00,-1.00
+5.00,-22.00,-8.00,-9.00,+16.00,-1.00,-4.00,-1.00,-17.00,+21.00,+7.00,+5.00,+19.00,+14.00,+24.00,+12.00
+4.00,+15.00,-15.00,-5.00,+5.00,+15.00,+5.00,-1.00,-41.00,-24.00,-11.00,-6.00,-5.00,-24.00,-23.00,-15.00
-7.00,+17.00,+0.00,-7.00,-12.00,-15.00,+7.00,+23.00,+83.00,+36.00,+13.00,+3.00,+0.00,+20.00,+28.00,+20.00
+2.00,+0.00,-9.00,-3.00,+14.00,+11.00,-12.00,-13.00,-52.00,-35.00,-7.00,-6.00,-13.00,-19.00,+3.00,-10.00
+56.00,+45.00,+14.00,+5.00,+8.00,+4.00,+13.00,+12.00,-14.00,-6.00,+6.00,+20.00,+14.00,+13.00,-5.00,+10.00
-35.00,+1.00,+3.00,+1.00,-11.00,-16.00,-12.00,-16.00,+36.00,+8.00,-11.00,-23.00,+0.00,+18.00,+13.00,+15.00
-17.00,-45.00,-3.00,-3.00,-21.00,+1.00,+2.00,+1.00,-26.00,-13.00,-16.00,-11.00,-10.00,-11.00,-16.00,-15.00
-6.00,-47.00,-23.00,-12.00,-16.00,-10.00,-3.00,-18.00,+9.00,-22.00,-3.00,-26.00,+2.00,+8.00,-3.00,+6.00
-40.00,-11.00,+1.00,+0.00,+12.00,+6.00,+5.00,-8.00,-71.00,-35.00,-15.00,-1.00,+15.00,+7.00,-4.00,-16.00
-24.00,-27.00,-8.00,+2.00,+11.00,-1.00,+7.00,+0.00,+121.00,+58.00,+28.00,+10.00,-18.00,-4.00,+0.00,+27.00
+21.00,+26.00,+8.00,-1.00,-7.00,+2.00,+3.00,+2.00,-25.00,-22.00,-9.00,-10.00,-13.00,-11.00,+23.00,+1.00
-6.00,-12.00,-5.00,-3.00,-13.00,-7.00,-13.00,-10.00,-54.00,-25.00,-23.00,-15.00,+8.00,+17.00,-19.00,-13.00
-4.00,+35.00,+1.00,+7.00,+8.00,+6.00,-2.00,+10.00,+28.00,+24.00,+10.00,+21.00,+9.00,-7.00,+30.00,-4.00
+21.00,-50.00,+10.00,-3.00,-6.00,+6.00,+1.00,+16.00,+10.00,+8.00,+5.00,+9.00,-13.00,+7.00,+10.00,+11.00
+6.00,-9.00,+11.00,+16.00,-1.00,+5.00,+12.00,-11.00,-91.00,-25.00,-7.00,-13.00,-2.00,+5.00,-36.00,-35.00
+3.00,+22.00,-4.00,-10.00,+3.00,+0.00,-11.00,+0.00,+59.00,+33.00,+0.00,-4.00,-15.00,-37.00,+4.00,+4.00
-12.00,-21.00,-5.00,-5.00,-15.00,-11.00,+14.00,-9.00,+31.00,+23.00,+15.00,+16.00,+10.00,+15.00,+2.00,+12.00
-8.00,+18.00,-6.00,-7.00,-1.00,-5.00,+2.00,-5.00,+0.00,+15.00,+3.00,+3.00,+18.00,+16.00,+20.00,+4.00
+8.00,-3.00,-1.00,-2.00,+8.00,+6.00,-9.00,-1.00,-16.00,-51.00,-25.00,-21.00,-7.00,-4.00,-11.00,-9.00
-20.00,-44.00,-3.00,-6.00,-11.00,-2.00,+4.00,-14.00,-20.00,+13.00,+4.00,+3.00,+9.00,-4.00,+3.00,-21.00
+6.00,-10.00,-1.00,+3.00,+6.00,+0.00,+6.00,-8.00,-18.00,-5.00,+2.00,-6.00,-16.00,-14.00,-15.00,-2.00
+44.00,+41.00,+2.00,-2.00,-7.00,-14.00,-4.00,+25.00,+31.00,+7.00,-10.00,-9.00,-2.00,+2.00,+5.00,+1.00
-73.00,-17.00,-12.00,-7.00,+19.00,+24.00,-6.00,-36.00,-37.00,-21.00,-3.00,-6.00,-4.00,-38.00,-22.00,-5.00
+47.00,+32.00,+10.00,+11.00,-20.00,-3.00,+11.00,+18.00,-39.00,-7.00,-2.00,+11.00,-4.00,+10.00,+12.00,-10.00
-2.00,-13.00,-3.00,+1.00,+20.00,-1.00,-21.00,+1.00,+20.00,-18.00,-4.00,-20.00,-6.00,+3.00,-7.00,+24.00
-28.00,-26.00,+8.00,-3.00,-6.00,+13.00,+13.00,+4.00,-73.00,-8.00,+0.00,+16.00,+8.00,-1.00,-16.00,-10.00
+9.00,-21.00,-12.00,+2.00,-1.00,-11.00,+10.00,+18.00,+46.00,+53.00,+30.00,+21.00,+0.00,+15.00,+40.00,-4.00
+12.00,+21.00,+11.00,+10.00,+5.00,+5.00,-5.00,+8.00,+20.00,-12.00,+0.00,+1.00,-4.00,-1.00,+4.00,+27.00
-8.00,-5.00,-4.00,-12.00,-7.00,-6.00,+3.00,-11.00,-18.00,+18.00,+0.00,+1.00,-14.00,-6.00,-12.00,-9.00
-10.00,-15.00,-5.00,+5.00,+27.00,+9.00,+1.00,+4.00,-8.00,-17.00,-10.00,+10.00,+8.00,+0.00,+3.00,-2.00
+4.00,+5.00,+1.00,-4.00,-22.00,-7.00,-3.00,+7.00,-64.00,-65.00,-20.00,-5.00,-3.00,-2.00,-18.00,-16.00
+11.00,+10.00,+3.00,-3.00,-3.00,+8.00,+16.00,+8.00,+29.00,+25.00,+12.00,+6.00,+6.00,-22.00,+9.00,+14.00
+25.00,-7.00,-5.00,-5.00,-15.00,-14.00,-19.00,+2.00,-34.00,-13.00,-6.00,+7.00,-9.00,-1.00,-5.00,-7.00
-7.00,-2.00,+8.00,+15.00,+1.00,-2.00,+7.00,-10.00,+61.00,-3.00,-12.00,-3.00,+1.00,-7.00,-6.00,-5.00
+7.00,+63.00,-7.00,-21.00,-7.00,-17.00,-25.00,-2.00,-7.00,-3.00,-7.00,-28.00,-11.00,+19.00,-8.00,+19.00
+17.00,-35.00,-10.00,-3.00,-3.00,+1.00,+31.00,+7.00,+32.00,+24.00,+10.00,+5.00,-4.00,-14.00,-2.00,-12.00
-20.00,-16.00,+2.00,+7.00,+16.00,+9.00,+4.00,+13.00,-14.00,-22.00,+1.00,+6.00,+0.00,-4.00,-3.00,+2.00
+22.00,+4.00,-5.00,-9.00,-13.00,-7.00,-25.00,-4.00,-33.00,-14.00,-8.00,-11.00,-25.00,+1.00,-4.00,-24.00
+6.00,-24.00,-8.00,+3.00,+22.00,+0.00,+7.00,+5.00,+14.00,+11.00,+3.00,-8.00,-1.00,-23.00,-19.00,+12.00
+17.00,+29.00,-4.00,+2.00,-7.00,-16.00,-12.00,-3.00,-30.00,-29.00,-13.00,-8.00,-2.00,+9.00,+33.00,-8.00
+12.00,+9.00,+12.00,-1.00,-6.00,+10.00,+4.00,+1.00,+49.00,+24.00,-3.00,-16.00,-11.00,-2.00,-5.00,-8.00
-67.00,-36.00,-15.00,-6.00,-13.00,-7.00,-5.00,-21.00,+24.00,+16.00,+19.00,+12.00,+5.00,+4.00,+2.00,+6.00
-5.00,+10.00,+2.00,+0.00,+6.00,-4.00,-2.00,-11.00,-30.00,-20.00,-14.00,+4.00,+1.00,-27.00,-10.00,-17.00
+6.00,+32.00,+12.00,+7.00,+6.00,+18.00,+16.00,+9.00,+6.00,+6.00,-5.00,-2.00,+13.00,+48.00,+0.00,+8.00
-23.00,-40.00,-12.00,+1.00,+18.00,-4.00,-15.00,-9.00,-43.00,+3.00,-7.00,+16.00,+14.00,+22.00,-10.00,-16.00
+22.00,+53.00,+9.00,+5.00,+19.00,+2.00,+0.00,+18.00,+37.00,-37.00,+2.00,-12.00,-3.00,+2.00,+21.00,+12.00
+36.00,-17.00,+1.00,-1.00,-5.00,+12.00,-4.00,+11.00,-2.00,+17.00,+0.00,-5.00,-6.00,-15.00,-7.00,-4.00
-41.00,-26.00,-5.00,-7.00,-1.00,-8.00,+0.00,-11.00,+7.00,+5.00,+6.00,+12.00,+1.00,+9.00,-10.00,+10.00
+9.00,+50.00,+13.00,+5.00,-8.00,-7.00,+0.00,-9.00,-15.00,+13.00,-5.00,-10.00,-3.00,-14.00,+10.00,-19.00
+30.00,+11.00,+10.00,+8.00,-2.00,+7.00,-1.00,+0.00,-22.00,-15.00,-6.00,-10.00,-8.00,-3.00,-8.00,+2.00
-3.00,-32.00,-5.00,-4.00,+2.00,+0.00,-2.00,-6.00,-22.00,+2.00,+1.00,+7.00,-3.00,+11.00,-1.00,-10.00
-58.00,+13.00,-9.00,-10.00,-18.00,-18.00,-18.00,-26.00,+14.00,-1.00,-3.00,+2.00,+8.00,-7.00,-11.00,+3.00
+26.00,-18.00,+1.00,-8.00,-12.00,+7.00,+8.00,+4.00,+2.00,-10.00,-3.00,-7.00,-24.00,-5.00,-5.00,+4.00
-14.00,+14.00,-22.00,-18.00,-3.00,+2.00,-1.00,-16.00,-51.00,-3.00,-8.00,-11.00,+5.00,-22.00,-10.00,+7.00
+8.00,-14.00,+7.00,+11.00,+15.00,+13.00,+13.00,-5.00,+23.00,+22.00,+12.00,+2.00,+1.00,+12.00,+5.00,-6.00
+18.00,-7.00,+16.00,+16.00,+4.00,+4.00,-3.00,+10.00,-11.00,-18.00,-6.00,-3.00,-11.00,-29.00,-12.00,+6.00
-11.00,+22.00,-6.00,-4.00,-7.00,+1.00,+8.00,+2.00,-82.00,-11.00,+0.00,+13.00,+13.00,+7.00,-12.00,-43.00
-38.00,-26.00,-4.00,-5.00,+0.00,-2.00,+4.00,-9.00,+6.00,+11.00,+8.00,+0.00,-8.00,+6.00,+3.00,+15.00
+7.00,-37.00,-17.00,+0.00,+4.00,-4.00,-9.00,-8.00,+48.00,+19.00,+0.00,+7.00,+4.00,+17.00,-3.00,+0.00
+15.00,+61.00,+26.00,+5.00,-9.00,+3.00,+5.00,+5.00,-20.00,+3.00,+5.00,+3.00,+2.00,-8.00,+0.00,+11.00
-7.00,-7.00,+1.00,+1.00,-6.00,+0.00,+4.00,-5.00,-3.00,-13.00,+1.00,-9.00,-4.00,-9.00,+3.00,+12.00
+14.00,-26.00,-6.00,+2.00,+9.00,+5.00,-7.00,+3.00,-8.00,+1.00,+0.00,-1.00,+4.00,-1.00,-4.00,-10.00
-23.00,+40.00,-3.00,-8.00,-35.00,-17.00,+0.00,-15.00,-15.00,-5.00,-9.00,-8.00,+1.00,+0.00,-3.00,-7.00
-10.00,-17.00,-14.00,-4.00,+5.00,+4.00,-6.00,-1.00,-13.00,-25.00,+6.00,+21.00,+2.00,+8.00,+0.00,-11.00
+5.00,-45.00,+12.00,+4.00,+3.00,-1.00,+2.00,+14.00,-5.00,-28.00,-6.00,-16.00,-6.00,-5.00,-3.00,+2.00
+11.00,-20.00,+12.00,+12.00,+13.00,-5.00,-6.00,+2.00,+104.00,+90.00,+20.00,+26.00,+28.00,+25.00,+16.00,+25.00
+8.00,+21.00,-7.00,-16.00,-20.00,-18.00,-15.00,+6.00,-3.00,-10.00,-11.00,-32.00,-38.00,-11.00,-15.00,-3.00
-9.00,-5.00,-15.00,-1.00,+10.00,+2.00,-4.00,-5.00,-15.00,+7.00,+3.00,+2.00,+6.00,+13.00,+41.00,-1.00
-41.00,-27.00,-5.00,-4.00,+2.00,-4.00,-7.00,-29.00,-25.00,-25.00,-10.00,-10.00,-11.00,-26.00,-10.00,-11.00
+16.00,-3.00,+5.00,+2.00,+14.00,+10.00,+6.00,+6.00,+26.00,-6.00,-5.00,-1.00,+6.00,+12.00,-1.00,+7.00
-7.00,+22.00,+2.00,-2.00,-16.00,-1.00,+5.00,+10.00,+7.00,+6.00,+11.00,+14.00,+10.00,+8.00,+18.00,+7.00
-3.00,-33.00,+1.00,-3.00,-5.00,-3.00,+1.00,+4.00,+11.00,-16.00,-15.00,-7.00,+4.00,+1.00,-12.00,-17.00
-13.00,-1.00,-9.00,+3.00,+6.00,-8.00,-5.00,+4.00,+31.00,+22.00,+7.00,+5.00,-4.00,-1.00,+9.00,+22.00
+8.00,+11.00,-2.00,-10.00,-24.00,-1.00,-1.00,-19.00,-21.00,-15.00,-12.00,-11.00,-14.00,-12.00,+1.00,-11.00
+5.00,+22.00,+1.00,-2.00,-10.00,+4.00,-2.00,-11.00,+27.00,-2.00,+8.00,+22.00,+7.00,-2.00,-8.00,+11.00
-11.00,-27.00,-1.00,+6.00,-9.00,-1.00,+2.00,-8.00,-7.00,-9.00,+0.00,-7.00,-2.00,-23.00,-15.00,-6.00
+3.00,+23.00,-3.00,-2.00,-13.00,+0.00,+3.00,+8.00,-47.00,+2.00,+1.00,-2.00,+6.00,+22.00,+0.00,+5.00
-10.00,-8.00,-9.00,-11.00,-11.00,-7.00,-4.00,-12.00,-6.00,+16.00,+2.00,-3.00,+2.00,-5.00,-5.00,-8.00
+33.00,-12.00,-5.00,-3.00,+1.00,-7.00,+16.00,+33.00,+5.00,-38.00,-14.00,-2.00,+3.00,+5.00,-2.00,+6.00
-12.00,+16.00,-1.00,+2.00,+7.00,+6.00,+0.00,+8.00,-7.00,+3.00,-2.00,-8.00,-8.00,-14.00,-8.00,+1.00
+7.00,+7.00,+6.00,-2.00,-2.00,+3.00,+3.00,+6.00,+36.00,+3.00,+1.00,+9.00,+6.00,+6.00,-3.00,-10.00
-44.00,-30.00,-4.00,-9.00,-17.00,-13.00,-6.00,-13.00,-31.00,-9.00,-5.00,-10.00,-9.00,+4.00,-1.00,-2.00
+13.00,+21.00,+8.00,+9.00,+7.00,+10.00,+0.00,-1.00,+17.00,-3.00,+2.00,+5.00,+8.00,+2.00,+18.00,+5.00
-54.00,-42.00,-11.00,-6.00,+3.00,-3.00,-12.00,-35.00,-66.00,-19.00,-8.00,-3.00,-1.00,+7.00,-11.00,-20.00
+28.00,+38.00,+6.00,+8.00,+15.00,+1.00,-1.00,-2.00,+77.00,+52.00,+9.00,-2.00,-11.00,-20.00,-7.00,+18.00
+12.00,+40.00,+2.00,+0.00,+1.00,+5.00,+2.00,+16.00,-14.00,+9.00,+5.00,+5.00,+8.00,+10.00,-4.00,-19.00
-12.00,-1.00,-4.00,-2.00,+17.00,-1.00,-5.00,-2.00,-32.00,-4.00,-8.00,+18.00,+7.00,-12.00,-18.00,-5.00
+13.00,-31.00,+0.00,+1.00,+9.00,+1.00,+5.00,+14.00,-39.00,-16.00,-1.00,-16.00,-24.00,+0.00,-3.00,-6.00
-3.00,-9.00,+3.00,+0.00,-1.00,+4.00,+1.00,+1.00,+11.00,-3.00,-10.00,-26.00,-19.00,-4.00,-5.00,-5.00
+36.00,+3.00,-7.00,-2.00,+6.00,-3.00,-4.00,+18.00,+19.00,-6.00,+3.00,+4.00,+1.00,+22.00,+5.00,+7.00
-34.00,-1.00,+12.00,+14.00,+29.00,+14.00,+6.00,-17.00,+3.00,+14.00,+5.00,+5.00,+8.00,+3.00,-5.00,+15.00
+9.00,+54.00,+7.00,-5.00,-19.00,-5.00,-3.00,+4.00,-28.00,-9.00,+1.00,+11.00,+2.00,+5.00,+4.00,-14.00
+26.00,-6.00,-15.00,-9.00,-8.00,-5.00,-8.00,-3.00,-22.00,-19.00,-6.00,+2.00,+5.00,+5.00,-4.00,-4.00
+9.00,+28.00,+5.00,+3.00,+3.00,+4.00,+10.00,+2.00,-33.00,-31.00,-9.00,-10.00,-11.00,-20.00,-6.00,-8.00
-11.00,-25.00,-4.00,+6.00,+7.00,+2.00,-3.00,+2.00,+12.00,+10.00,-1.00,-4.00,-2.00,-2.00,+6.00,-3.00
+13.00,+0.00,+7.00,-2.00,-11.00,-11.00,-9.00,+1.00,+26.00,+16.00,-3.00,-4.00,+4.00,-12.00,-6.00,+17.00
-19.00,+11.00,+5.00,+2.00,+7.00,+1.00,-9.00,+0.00,-12.00,-8.00,-1.00,+8.00,+3.00,+10.00,+3.00,-6.00
-3.00,+6.00,-7.00,-2.00,-20.00,+12.00,+2.00,-19.00,+4.00,+6.00,-4.00,-6.00,+5.00,-16.00,-2.00,+1.00
-14.00,-22.00,+1.00,+2.00,-4.00,-12.00,-5.00,+5.00,-81.00,-59.00,-13.00,-5.00,-7.00,+4.00,-2.00,-16.00
+4.00,-1.00,+5.00,+6.00,+16.00,+3.00,+11.00,+2.00,+67.00,+42.00,+13.00,+4.00,+1.00,-7.00,+4.00,+11.00
+12.00,+16.00,-2.00,-6.00,-13.00,-9.00,-7.00,+8.00,-28.00,-26.00,-16.00,-4.00,-4.00,-1.00,-20.00,-8.00
-16.00,-13.00,-6.00,+4.00,+4.00,-17.00,-1.00,+6.00,+19.00,+14.00,+11.00,+11.00,+10.00,-7.00,+14.00,+3.00
-7.00,-28.00,-12.00,-11.00,-9.00,+3.00,-6.00,+7.00,-27.00,-11.00,-12.00,-20.00,-16.00,-8.00,-4.00,-8.00
+71.00,-6.00,+20.00,+8.00,+6.00,+7.00,+12.00,+36.00,+9.00,-7.00,+2.00,-8.00,-5.00,+4.00,-4.00,+9.00
+15.00,-16.00,-4.00,+4.00,+10.00,+2.00,-2.00,-7.00,+40.00,+19.00,+3.00,+3.00,-3.00,-9.00,+2.00,+14.00
-18.00,+4.00,-3.00,+0.00,+8.00,+4.00,+3.00,+5.00,-18.00,-1.00,+5.00,+5.00,+10.00,+31.00,-10.00,-12.00
+5.00,+13.00,-2.00,+2.00,+1.00,-3.00,-4.00,-10.00,+29.00,+36.00,+15.00,+11.00,+1.00,-4.00,+3.00,+5.00
+19.00,-4.00,-6.00,-3.00,+3.00,-2.00,-5.00,-1.00,-12.00,-9.00,-2.00,+5.00,-2.00,-13.00,-4.00,-10.00
+8.00,+14.00,-11.00,-10.00,-14.00,-5.00,+0.00,-6.00,+3.00,-7.00,+7.00,+8.00,+23.00,+11.00,+12.00,+0.00
+17.00,-3.00,+12.00,+12.00,+11.00,+4.00,+6.00,-1.00,-9.00,+6.00,-7.00,-12.00,-30.00,+0.00,-10.00,-1.00
-20.00,+4.00,+14.00,+1.00,-17.00,-2.00,-2.00,-2.00,+7.00,-12.00,+4.00,+15.00,+5.00,+3.00,+7.00,+8.00
-7.00,-11.00,-5.00,-1.00,-5.00,-4.00,-3.00,+1.00,+4.00,+3.00,-9.00,-23.00,-9.00,-5.00,-26.00,-10.00
-33.00,-21.00,-16.00,-14.00,-3.00,+1.00,-3.00,+1.00,+1.00,-11.00,+7.00,+3.00,+7.00,+5.00,+35.00,+1.00
+21.00,+30.00,+3.00,+4.00,-2.00,+1.00,+1.00,+3.00,-8.00,+7.00,-4.00,-14.00,-7.00,-9.00,-3.00,+3.00
+15.00,-2.00,+8.00,+7.00,+15.00,+9.00,+9.00,-10.00,-1.00,+3.00,+4.00,+4.00,+2.00,+1.00,-10.00,-15.00
-28.00,-8.00,-10.00,+3.00,+5.00,+5.00,+3.00,-12.00,+59.00,+29.00,+2.00,+3.00,-4.00,+16.00,-2.00,+24.00
-7.00,+7.00,+4.00,-2.00,+20.00,+6.00,+6.00,-1.00,-40.00,-20.00,+1.00,+3.00,+3.00,-12.00,+2.00,-25.00
-2.00,-10.00,-12.00,-9.00,-19.00,-19.00,-15.00,-7.00,-28.00,-12.00,-7.00,-2.00,+9.00,+4.00,-2.00,-8.00
-34.00,-9.00,-4.00,-2.00,-12.00,-22.00,-6.00,-11.00,-19.00,+4.00,-2.00,-11.00,+2.00,-4.00,+3.00,+17.00
-25.00,-6.00,-6.00,-8.00,+5.00,+8.00,-3.00,-11.00,+37.00,+38.00,+15.00,+10.00,+15.00,+15.00,-2.00,-6.00
+13.00,+10.00,+4.00,+1.00,-34.00,-5.00,-1.00,+0.00,-46.00,-31.00,-14.00,-13.00,-3.00,-1.00,+14.00,-6.00
-21.00,-32.00,+0.00,-2.00,+0.00,-3.00,+5.00,+6.00,+8.00,+3.00,+3.00,+4.00,-2.00,-23.00,+0.00,+8.00
+18.00,+10.00,+3.00,-8.00,-7.00,-3.00,-1.00,+7.00,-32.00,-18.00,-3.00,+13.00,+3.00,+10.00,+7.00,+0.00
-25.00,-12.00,-12.00,-4.00,-6.00,-17.00,-10.00,-15.00,+6.00,+7.00,-2.00,-9.00,-6.00,-3.00,-16.00,-2.00
+16.00,-5.00,-8.00,+1.00,+17.00,+9.00,+6.00,-1.00,-21.00,-14.00,-4.00,+10.00,+11.00,+4.00,+26.00,+7.00
-35.00,-34.00,-3.00,-8.00,-14.00,-8.00,-9.00,-15.00,-32.00,-12.00,-7.00,-4.00,-2.00,-20.00,-10.00,-13.00
+20.00,-6.00,+1.00,+8.00,+0.00,-2.00,-2.00,+14.00,+23.00,-10.00,-3.00,+1.00,+0.00,+4.00,-5.00,+5.00
-24.00,+26.00,-3.00,-15.00,-16.00,-3.00,-2.00,-6.00,+29.00,+37.00,+16.00,+9.00,+0.00,-3.00,+6.00,-3.00
-10.00,-29.00,+2.00,+1.00,+2.00,-1.00,-3.00,+1.00,+4.00,-2.00,-11.00,-3.00,-6.00,-4.00,-13.00,+8.00
-1.00,+13.00,-2.00,-12.00,+0.00,+4.00,+0.00,-16.00,-18.00,-26.00,-6.00,-7.00,-11.00,-16.00,-2.00,-18.00
+16.00,+9.00,-3.00,+1.00,-9.00,-7.00,-2.00,+15.00,+21.00,+16.00,+7.00,+0.00,+2.00,+14.00,+5.00,+6.00
+27.00,-11.00,+0.00,+1.00,+0.00,+8.00,+6.00,+15.00,-41.00,-14.00,-7.00,-6.00,+1.00,+1.00,+10.00,-11.00
-2.00,+2.00,+6.00,+13.00,+27.00,-7.00,-2.00,-1.00,-49.00,+8.00,+2.00,+3.00,-6.00,-3.00,-14.00,+3.00
+15.00,+1.00,+9.00,+0.00,-3.00,+1.00,+6.00,+19.00,+51.00,+17.00,+4.00,+2.00,-6.00,+2.00,-1.00,+6.00
-6.00,+5.00,-7.00,-2.00,+13.00,+4.00,-6.00,-6.00,+6.00,+14.00,-6.00,-12.00,-12.00,-11.00,-22.00,-12.00
+7.00,+5.00,-3.00,+10.00,+18.00,+3.00,+6.00,+5.00,-61.00,-70.00,-14.00,+0.00,-5.00,-1.00,+13.00,-4.00
-15.00,-2.00,+5.00,+1.00,+1.00,+2.00,+2.00,+3.00,+23.00,+50.00,+10.00,-7.00,+6.00,+30.00,-11.00,+4.00
-2.00,+44.00,+3.00,-1.00,-5.00,-2.00,-1.00,-9.00,-33.00,-54.00,-20.00,-4.00,-6.00,-6.00,-7.00,-22.00
+54.00,-2.00,+2.00,-3.00,+1.00,+11.00,+8.00,+20.00,+11.00,+17.00,+14.00,+2.00,+4.00,-4.00,-7.00,+13.00
-42.00,-36.00,-10.00,-5.00,-7.00,-12.00,-19.00,-31.00,-32.00,-35.00,-15.00,+2.00,-3.00,-4.00,+19.00,-14.00
+12.00,+27.00,-5.00,-9.00,-10.00,+1.00,+3.00,+4.00,+25.00,+32.00,+8.00,-8.00,-13.00,-6.00,+0.00,+7.00
-1.00,-14.00,+5.00,+8.00,+1.00,+1.00,-6.00,+5.00,-2.00,-12.00,-3.00,+8.00,-4.00,-7.00,+5.00,+9.00
-26.00,+4.00,-1.00,-3.00,+2.00,-4.00,-1.00,-24.00,+23.00,+31.00,-1.00,-11.00,+9.00,+6.00,+4.00,+4.00
+11.00,+10.00,+3.00,-1.00,-2.00,+3.00,+4.00,+16.00,-5.00,-10.00,-3.00,+10.00,+4.00,+0.00,-8.00,-5.00
-8.00,+25.00,+5.00,+8.00,+11.00,+3.00,-4.00,-8.00,-9.00,-25.00,-5.00,+2.00,+0.00,-12.00,-3.00,-3.00
+16.00,-15.00,+3.00,+0.00,-12.00,-2.00,-2.00,+10.00,+74.00,+53.00,+13.00,+2.00,-5.00,+6.00,+14.00,+9.00
+9.00,+41.00,-1.00,-6.00,-23.00,-12.00,+1.00,+0.00,-34.00,-7.00,+2.00,-1.00,-7.00,-12.00,-2.00,-12.00
+13.00,-14.00,+10.00,+12.00,+8.00,+5.00,+4.00,+12.00,-6.00,-16.00,-10.00,+1.00,+5.00,-3.00,-1.00,+10.00
-12.00,-21.00,-15.00,-22.00,-7.00,-6.00,-6.00,-18.00,+40.00,+9.00,+6.00,-12.00,-28.00,-9.00,-2.00,-3.00
+22.00,+21.00,+7.00,+7.00,+2.00,+6.00,+7.00,+25.00,-20.00,+10.00,+9.00,+15.00,+20.00,+9.00,+2.00,+14.00
-30.00,-29.00,+0.00,+6.00,+10.00,+3.00,+11.00,-20.00,-14.00,-12.00,-8.00,-15.00,-5.00,-13.00,-2.00,-10.00
-7.00,+10.00,-9.00,-12.00,-11.00,-2.00,+4.00,+1.00,-31.00,-14.00,-4.00,-3.00,+0.00,-5.00,+1.00,-5.00
-11.00,+12.00,+3.00,+1.00,+8.00,-4.00,-5.00,-15.00,+32.00,+6.00,+6.00,+6.00,+4.00,+8.00,-5.00,+7.00
-4.00,-14.00,-9.00,-4.00,+22.00,+2.00,-2.00,-1.00,+3.00,+7.00,-1.00,-2.00,-7.00,-3.00,-5.00,+23.00
+2.00,-31.00,-13.00,-13.00,-15.00,+1.00,-5.00,+2.00,-23.00,-13.00,-8.00,-4.00,-7.00,-3.00,-2.00,-14.00
+16.00,+23.00,+3.00,+3.00,-1.00,-6.00,-1.00,+5.00,+6.00,+11.00,-1.00,-5.00,-1.00,-14.00,-3.00,+9.00
-14.00,+3.00,+0.00,+0.00,-5.00,-4.00,+1.00,-2.00,+8.00,+8.00,+3.00,+7.00,+8.00,-8.00,-8.00,-10.00
+0.00,+8.00,+9.00,-5.00,-11.00,+8.00,+6.00,-4.00,-71.00,-35.00,-8.00,-2.00,+9.00,-5.00,-7.00,-17.00
-23.00,+9.00,-5.00,+4.00,+17.00,-3.00,-12.00,+3.00,+48.00,+8.00,-7.00,-3.00,+6.00,+3.00,+3.00,+20.00
+0.00,-14.00,-10.00,-10.00,-6.00,-6.00,-1.00,-9.00,+52.00,+38.00,+14.00,+7.00,+0.00,+15.00,+34.00,+15.00
-12.00,-42.00,-10.00,-2.00,-7.00,-9.00,-11.00,+3.00,-44.00,-23.00,-8.00,-2.00,-11.00,-11.00,-17.00,-5.00
+17.00,+41.00,+11.00,+4.00,+4.00,-2.00,-4.00,-8.00,+21.00,+5.00,+1.00,-7.00,+7.00,+6.00,+6.00,-3.00
-15.00,-7.00,-2.00,+3.00,+3.00,-5.00,-2.00,+1.00,+5.00,-20.00,-5.00,+2.00,-6.00,+3.00,-3.00,+2.00
-15.00,-14.00,-1.00,-4.00,-24.00,-9.00,+3.00,-9.00,+6.00,+21.00,-4.00,-8.00,-12.00,-8.00,-20.00,-23.00
+23.00,-2.00,+9.00,+8.00,+4.00,+6.00,+11.00,+8.00,+0.00,-8.00,-2.00,+0.00,+5.00,+0.00,+0.00,-5.00
-35.00,-16.00,-10.00,-1.00,+1.00,-5.00,-9.00,-14.00,-2.00,-24.00,-4.00,-2.00,+3.00,+5.00,+2.00,+3.00
+20.00,+2.00,+12.00,+7.00,+10.00,+7.00,-6.00,+2.00,-2.00,+14.00,+1.00,+7.00,-3.00,-35.00,-6.00,+2.00
+11.00,+13.00,-6.00,-10.00,+21.00,+4.00,-12.00,-2.00,-9.00,-10.00,+2.00,-5.00,-1.00,+3.00,-1.00,-2.00
-8.00,-9.00,+2.00,-2.00,-32.00,-3.00,+6.00,+5.00,+16.00,+8.00,+2.00,+2.00,+5.00,-3.00,-1.00,+2.00
-27.00,+7.00,-15.00,-10.00,-2.00,-7.00,+5.00,-3.00,+0.00,+5.00,-5.00,-8.00,-10.00,-3.00,-6.00,-6.00
+3.00,-8.00,+10.00,+5.00,+0.00,+4.00,-4.00,-14.00,+11.00,-7.00,+7.00,+6.00,+8.00,+2.00,+6.00,+8.00
+30.00,+14.00,+5.00,+3.00,-2.00,+5.00,-9.00,+0.00,-53.00,-24.00,-12.00,-3.00,-3.00,-11.00,-13.00,-14.00
-39.00,-26.00,-9.00,-1.00,-11.00,-5.00,-5.00,+4.00,+80.00,+48.00,+13.00,+4.00,+3.00,+5.00,+20.00,+23.00
+4.00,-6.00,-12.00,-5.00,+12.00,+5.00,+6.00,-2.00,+0.00,-11.00,-6.00,-1.00,-2.00,-9.00,-6.00,+3.00
+51.00,+39.00,+20.00,+7.00,+6.00,+6.00,-4.00,+14.00,+9.00,+9.00,-4.00,-6.00,-2.00,+26.00,+11.00,+0.00
-6.00,+15.00,+4.00,-1.00,+21.00,+8.00,+2.00,+5.00,-15.00,-23.00,-6.00,-2.00,+2.00,+5.00,-7.00,-10.00
-3.00,-17.00,-1.00,+5.00,-4.00,-3.00,-9.00,+3.00,-30.00,-11.00,+1.00,+0.00,+2.00,+2.00,-2.00,-3.00
+2.00,-9.00,-8.00,-6.00,-12.00,-10.00,-7.00,-14.00,+3.00,+16.00,+6.00,+2.00,+2.00,+2.00,+1.00,+8.00
-26.00,-2.00,-9.00,-4.00,+1.00,-4.00,-3.00,-4.00,+32.00,+13.00,+3.00,+2.00,+4.00,+0.00,+0.00,-17.00
+0.00,-13.00,+5.00,+6.00,+6.00,+4.00,+10.00,+12.00,-2.00,-1.00,-1.00,-9.00,-3.00,+1.00,-5.00,+12.00
+2.00,+18.00,-2.00,-4.00,-1.00,+1.00,-3.00,-8.00,-15.00,-17.00,-14.00,-6.00,-9.00,-5.00,-2.00,-13.00
-7.00,-28.00,-9.00,-4.00,-5.00,-1.00,+1.00,-1.00,+47.00,+20.00,+6.00,-2.00,-4.00,+0.00,+0.00,-4.00
+8.00,+19.00,+9.00,-3.00,+4.00,+4.00,+8.00,+16.00,-15.00,+3.00,-1.00,-5.00,-1.00,+3.00,+3.00,+7.00
-19.00,-6.00,-7.00,-1.00,-2.00,-4.00,-10.00,-47.00,+2.00,+1.00,+2.00,+4.00,+4.00,+0.00,-4.00,-3.00
-5.00,+10.00,-9.00,-12.00,-9.00,-4.00,+2.00,+2.00,-12.00,-11.00,-10.00,-12.00,-3.00,-9.00,-7.00,+1.00
+29.00,-10.00,+12.00,+10.00,+4.00,+1.00,+2.00,+11.00,-12.00,+2.00,+6.00,+1.00,-1.00,+13.00,-1.00,-9.00
-5.00,-12.00,-7.00,-10.00,-17.00,-8.00,+3.00,+5.00,-26.00,-3.00,+2.00,+0.00,+2.00,-1.00,+1.00,+3.00
-19.00,-15.00,-3.00,+2.00,+1.00,-4.00,+1.00,+2.00,+10.00,-11.00,-8.00,+0.00,+1.00,+3.00,+3.00,-2.00
+46.00,+24.00,+5.00,+3.00,+0.00,+1.00,+3.00,+11.00,+19.00,+2.00,-10.00,-7.00,-1.00,-1.00,-4.00,+15.00
-24.00,-4.00,+0.00,+0.00,+11.00,+3.00,-5.00,-13.00,-72.00,-40.00,-10.00,-5.00,-6.00,-5.00,-3.00,-3.00
+33.00,+20.00,+1.00,-1.00,-11.00,-2.00,+2.00,+2.00,+31.00,+12.00,+5.00,+3.00,+0.00,+1.00,+0.00,-7.00
+2.00,-3.00,+2.00,-1.00,-2.00,-1.00,-3.00,-3.00,-3.00,+5.00,+6.00,+3.00,+3.00,-1.00,+1.00,+3.00
-32.00,-9.00,+6.00,+2.00,-5.00,+0.00,-4.00,-9.00,-12.00,+0.00,+0.00,+1.00,+0.00,-1.00,-4.00,-15.00
+29.00,+17.00,-3.00,-1.00,+4.00,+6.00,+2.00,+10.00,-13.00,-11.00,-7.00,-4.00,-3.00,-4.00,-2.00,+5.00
-17.00,-8.00,-12.00,-15.00,-8.00,+0.00,-1.00,-11.00,+32.00,+4.00,+4.00,+2.00,+0.00,+0.00,-3.00,+3.00
-10.00,-22.00,-8.00,-5.00,-18.00,-6.00,-2.00,+5.00,-4.00,+0.00,-5.00,-5.00,-1.00,-1.00,+0.00,+0.00
+13.00,+0.00,+6.00,+9.00,+19.00,+6.00,+2.00,+0.00,-12.00,-24.00,-4.00,+4.00,+16.00,+0.00,-6.00,-12.00
-9.00,+10.00,+11.00,+5.00,+1.00,-1.00,-2.00,-7.00,+35.00,+29.00,+6.00,-3.00,-24.00,-3.00,+0.00,+1.00
-34.00,-15.00,-10.00,-5.00,-10.00,-5.00,+0.00,+8.00,-33.00,-21.00,-7.00,-6.00,-3.00,-2.00,-1.00,-1.00
-3.00,+11.00,+9.00,+2.00,+2.00,+3.00,+2.00,+3.00,-19.00,-17.00,+1.00,-6.00,-7.00,-2.00,-2.00,-18.00
+9.00,-6.00,-4.00,-6.00,-1.00,-2.00,+0.00,+2.00,+10.00,+19.00,+3.00,+4.00,+3.00,-1.00,-2.00,+9.00
+13.00,-9.00,-3.00,+4.00,+3.00,-2.00,-4.00,-2.00,-5.00,+1.00,-2.00,+1.00,+3.00,-2.00,-6.00,-14.00
-9.00,-14.00,-8.00,-2.00,+1.00,-3.00,-1.00,+4.00,+24.00,+9.00,-3.00,+0.00,-1.00,-1.00,+1.00,+15.00
-11.00,+22.00,+0.00,-3.00,-6.00,-1.00,+4.00,+0.00,-13.00,+2.00,+3.00,+0.00,+0.00,+0.00,+1.00,+6.00
+12.00,+1.00,+4.00,+5.00,+10.00,+4.00,+0.00,-8.00,-1.00,+0.00,-5.00,-10.00,-8.00,-4.00,-2.00,-3.00
-7.00,-4.00,-5.00,-8.00,-13.00,-9.00,-3.00,+4.00,+14.00,-8.00,-10.00,-2.00,+6.00,+1.00,+0.00,+3.00
-3.00,+3.00,+14.00,+11.00,+10.00,+7.00,-1.00,-5.00,-13.00,+1.00,-3.00,+0.00,-2.00,-2.00,-3.00,-5.00
-3.00,-4.00,-6.00,-7.00,-10.00,-2.00,-2.00,-3.00,+34.00,+24.00,+13.00,+7.00,+3.00,+3.00,+8.00,+22.00
+19.00,-2.00,-13.00,-11.00,+0.00,-2.00,-1.00,-1.00,-15.00,+5.00,+12.00,+5.00,-5.00,+1.00,+0.00,-10.00
-8.00,+6.00,+0.00,+4.00,-6.00,+0.00,+0.00,-9.00,-2.00,-4.00,-6.00,-1.00,-1.00,-2.00,-1.00,+8.00
+44.00,-13.00,+3.00,+10.00,+6.00,+2.00,+4.00,+17.00,-13.00,-23.00,-15.00,-12.00,-1.00,-1.00,-3.00,-5.00
+16.00,+7.00,+8.00,-4.00,+0.00,-3.00,-2.00,+6.00,+0.00,-13.00,-5.00,+1.00,-2.00,-3.00,-3.00,-2.00
-15.00,-15.00,-9.00,-6.00,-3.00,-2.00,-2.00,-1.00,+6.00,+22.00,+3.00,+1.00,-5.00,-2.00,+0.00,-2.00
-9.00,+6.00,-7.00,-8.00,-4.00,-5.00,-2.00,+5.00,-14.00,-5.00,+10.00,+3.00,+4.00,+1.00,+1.00,-10.00
-9.00,-13.00,+2.00,+1.00,+0.00,+0.00,+1.00,-11.00,-6.00,+3.00,+4.00,+3.00,+3.00,+0.00,-1.00,+3.00
+1.00,+21.00,+13.00,+2.00,-3.00,-4.00,-3.00,-2.00,+4.00,+1.00,-5.00,-3.00,-1.00,-1.00,-3.00,-10.00
-5.00,+19.00,+3.00,+6.00,+6.00,+2.00,+1.00,+1.00,-3.00,-16.00,-2.00,+1.00,-3.00,-1.00,-1.00,-4.00
+11.00,-11.00,-21.00,-5.00,-4.00,+3.00,+0.00,+10.00,+11.00,+6.00,-1.00,-2.00,+3.00,-1.00,-1.00,+0.00
-13.00,-6.00,-14.00,-9.00,-6.00,-7.00,-5.00,-14.00,-18.00,-1.00,+4.00,+0.00,-1.00,-3.00,-1.00,-12.00
+9.00,+12.00,+4.00,+3.00,+6.00,+4.00,+2.00,+11.00,+11.00,-1.00,-4.00,-2.00,+0.00,+0.00,-4.00,-3.00
-9.00,+6.00,-12.00,-5.00,+1.00,-3.00,+0.00,+7.00,-15.00,-7.00,-1.00,-2.00,-1.00,-2.00,-5.00,+1.00
-16.00,-10.00,+7.00,+4.00,+14.00,+3.00,+1.00,-2.00,+2.00,-1.00,-2.00,+1.00,+3.00,+4.00,+4.00,+2.00
-8.00,-1.00,-8.00,-3.00,-8.00,-3.00,-4.00,-10.00,-31.00,-22.00,-5.00,-4.00,-4.00,-1.00,-2.00,-7.00
+23.00,-11.00,+1.00,+5.00,+8.00,+3.00,+2.00,+17.00,+40.00,+27.00,+5.00,+1.00,+0.00,+0.00,+1.00,+13.00
-34.00,+2.00,+2.00,+1.00,-2.00,-4.00,-1.00,-4.00,-10.00,-22.00,-12.00,-2.00,-3.00,-1.00,+6.00,+19.00
+3.00,-11.00,-5.00,-3.00,-12.00,-1.00,-2.00,-12.00,-9.00,+29.00,+10.00,+1.00,+1.00,-5.00,-2.00,+0.00
-5.00,+6.00,+2.00,+1.00,+0.00,-2.00,-3.00,-1.00,-11.00,-16.00,-6.00,-7.00,-4.00,-3.00,-2.00,-8.00
-1.00,-6.00,+4.00,-5.00,-2.00,-1.00,-1.00,+2.00,+1.00,-3.00,-7.00,-5.00,-1.00,-1.00,+3.00,+0.00
-3.00,-4.00,+0.00,+1.00,-1.00,-1.00,-1.00,-2.00,-1.00,-10.00,+3.00,+1.00,+0.00,-1.00,-10.00,-18.00
-4.00,-8.00,-11.00,-9.00,-5.00,-7.00,-3.00,-4.00,+11.00,+8.00,+5.00,+4.00,+2.00,+0.00,+0.00,-15.00
