-4.00,-2.00,+0.00,+0.00,+1.00,-1.00,+1.00,-4.00,+1.00,-5.00,-5.00,+0.00,+1.00,-2.00,+0.00,-2.00
-18.00,-1.00,-1.00,-3.00,-3.00,-3.00,-1.00,-6.00,+1.00,+9.00,+8.00,+0.00,-2.00,+1.00,-1.00,-2.00
-37.00,-4.00,+2.00,+0.00,+0.00,-1.00,+1.00,-7.00,+0.00,-15.00,-6.00,-1.00,-2.00,-3.00,+3.00,+9.00
+28.00,+5.00,-1.00,+2.00,+1.00,-2.00,-2.00,-4.00,+0.00,-3.00,-8.00,-7.00,-4.00,-3.00,+1.00,+2.00
-2.00,-3.00,-4.00,-4.00,-3.00,-1.00,+2.00,+11.00,+1.00,-4.00,-3.00,+0.00,+0.00,+1.00,+0.00,+1.00
+9.00,-2.00,-2.00,-1.00,+0.00,+0.00,-1.00,+2.00,-3.00,+1.00,+3.00,-1.00,+0.00,-1.00,-2.00,-4.00
+6.00,-4.00,-2.00,+1.00,+0.00,-1.00,-4.00,-2.00,+1.00,+0.00,+4.00,+0.00,+2.00,+0.00,-1.00,-4.00
-13.00,-3.00,-3.00,+0.00,-2.00,+0.00,+0.00,+4.00,+1.00,+1.00,+4.00,+0.00,+1.00,+0.00,-1.00,-2.00
+1.00,-1.00,+0.00,-1.00,+0.00,+1.00,+0.00,-1.00,-7.00,-4.00,-4.00,-1.00,-2.00,-1.00,-1.00,+0.00
+16.00,+2.00,+0.00,-4.00,+0.00,-2.00,+0.00,+2.00,+1.00,+1.00,+0.00,+3.00,+0.00,-2.00,+2.00,+0.00
+1.00,+0.00,-3.00,-4.00,-3.00,-2.00,+0.00,+2.00,+1.00,+2.00,+0.00,+6.00,+1.00,+0.00,-4.00,-2.00
+12.00,-4.00,-1.00,-1.00,+0.00,+1.00,+1.00,+2.00,-6.00,-5.00,-4.00,-6.00,+2.00,-2.00,-2.00,-1.00
+1.00,+7.00,+4.00,+1.00,-2.00,-3.00,-2.00,-4.00,+3.00,+2.00,-2.00,-4.00,-17.00,-4.00,-3.00,-1.00
+2.00,+3.00,-1.00,+0.00,-3.00,+1.00,-1.00,+1.00,+0.00,-6.00,+0.00,+10.00,+14.00,+0.00,-1.00,-4.00
+2.00,-3.00,-1.00,+0.00,-1.00,+1.00,-2.00,-2.00,-3.00,-6.00,-2.00,-16.00,-17.00,-4.00,-1.00,-3.00
-19.00,-3.00,+0.00,-2.00,-1.00,+0.00,-4.00,-12.00,+3.00,+6.00,+4.00,+4.00,-9.00,+0.00,+1.00,+1.00
-6.00,-5.00,-3.00,-1.00,+1.00,-1.00,-1.00,-1.00,-9.00,-2.00,+0.00,-8.00,-3.00,-4.00,-1.00,-4.00
-18.00,-2.00,+0.00,-1.00,-2.00,-2.00,-2.00,-9.00,-2.00,-14.00,-3.00,+6.00,+2.00,+0.00,+0.00,-2.00
+3.00,-2.00,-4.00,-2.00,-2.00,-2.00,-1.00,+0.00,-2.00,+3.00,-3.00,-4.00,+10.00,+0.00,+0.00,+1.00
+7.00,+3.00,+0.00,-2.00,+6.00,+1.00,+1.00,+2.00,+7.00,+5.00,+1.00,+5.00,-11.00,-1.00,+0.00,+1.00
-8.00,-6.00,+0.00,-2.00,-2.00,-5.00,-2.00,-2.00,+1.00,+6.00,-1.00,-1.00,+8.00,-1.00,+1.00,+0.00
+11.00,+5.00,+0.00,+1.00,-9.00,+0.00,+0.00,+1.00,-19.00,-14.00,-6.00,-12.00,-10.00,-2.00,-3.00,-3.00
-2.00,-2.00,-5.00,+0.00,-5.00,-3.00,-1.00,-1.00,-5.00,-6.00,+2.00,+6.00,+3.00,+1.00,-3.00,-3.00
-2.00,+3.00,+2.00,+1.00,+5.00,+1.00,+1.00,+2.00,+0.00,+3.00,-3.00,+0.00,+6.00,+0.00,-1.00,+3.00
-5.00,-10.00,-1.00,-1.00,-4.00,+11.00,+0.00,-3.00,+30.00,+11.00,+0.00,+2.00,+0.00,+0.00,+0.00,+3.00
+2.00,-16.00,-5.00,+0.00,+2.00,-14.00,-2.00,+0.00,-2.00,-9.00,-7.00,+0.00,-4.00,+0.00,-3.00,-3.00
+7.00,+23.00,+8.00,+1.00,+3.00,+2.00,+3.00,+2.00,-29.00,-34.00,-1.00,+4.00,+5.00,+0.00,+1.00,-3.00
+0.00,+7.00,+3.00,+0.00,-7.00,-4.00,+1.00,+1.00,-13.00,+29.00,+5.00,-1.00,-1.00,+0.00,+0.00,-5.00
+1.00,-1.00,-3.00,-1.00,+9.00,+5.00,-3.00,-3.00,+1.00,+10.00,+3.00,+1.00,-2.00,-1.00,-1.00,-1.00
-4.00,-15.00,-8.00,-4.00,+1.00,-5.00,-2.00,-2.00,+5.00,+14.00,+2.00,+4.00,+0.00,-1.00,+1.00,+1.00
-1.00,-7.00,-4.00,+0.00,-1.00,+1.00,-2.00,-2.00,+17.00,+8.00,-2.00,-6.00,-10.00,-3.00,-2.00,+1.00
+4.00,-2.00,+6.00,-1.00,+3.00,+2.00,+1.00,+0.00,+5.00,-11.00,-2.00,+7.00,+9.00,-1.00,-2.00,-2.00
-5.00,+6.00,-1.00,+0.00,-2.00,-5.00,-2.00,-2.00,-11.00,-7.00,+1.00,+11.00,+22.00,+2.00,-1.00,-3.00
-1.00,-26.00,-11.00,-4.00,+0.00,+1.00,+0.00,-1.00,+5.00,+6.00,+0.00,-3.00,-24.00,+1.00,+2.00,+1.00
-2.00,+10.00,-4.00,-6.00,-3.00,-5.00,-2.00,-3.00,-7.00,-2.00,-7.00,-21.00,-11.00,-11.00,-6.00,-3.00
-8.00,-23.00,-11.00,-6.00,-5.00,+1.00,-2.00,-5.00,-4.00,-6.00,+3.00,+13.00,+9.00,+4.00,+2.00,+0.00
+19.00,+69.00,+34.00,+10.00,+2.00,+1.00,+4.00,+8.00,+8.00,+1.00,-3.00,-17.00,-19.00,-9.00,-2.00,-4.00
+11.00,+8.00,+6.00,+7.00,-2.00,+5.00,+1.00,+6.00,+26.00,+9.00,+5.00,+11.00,+19.00,+6.00,+3.00,+7.00
-8.00,-24.00,-6.00,-4.00,+10.00,+7.00,-1.00,-3.00,-5.00,+0.00,-4.00,+6.00,+21.00,-2.00,-3.00,-4.00
-4.00,+6.00,-4.00,-2.00,-13.00,-8.00,-4.00,-1.00,-7.00,+1.00,-1.00,-16.00,-25.00,-6.00,-2.00,-1.00
-11.00,-23.00,-15.00,-11.00,-6.00,-9.00,-3.00,-7.00,-40.00,-48.00,-7.00,+2.00,+2.00,+2.00,-2.00,-9.00
+1.00,+9.00,-3.00,-9.00,+5.00,+4.00,-3.00,-1.00,-29.00,+0.00,+1.00,-5.00,+3.00,-1.00,+2.00,-1.00
-3.00,-9.00,-6.00,-1.00,-1.00,+4.00,-2.00,-2.00,+9.00,+21.00,+3.00,+9.00,-2.00,+1.00,+0.00,-2.00
-7.00,-5.00,+1.00,+8.00,-11.00,-33.00,-3.00,+0.00,+10.00,-2.00,-2.00,+1.00,+13.00,+2.00,+2.00,+3.00
-6.00,-18.00,-6.00,-1.00,+20.00,+26.00,+0.00,-2.00,-23.00,-4.00,-5.00,-2.00,-7.00,-2.00,-4.00,-4.00
+9.00,+27.00,+7.00,+1.00,-25.00,+0.00,+2.00,+3.00,+0.00,+10.00,+3.00,-4.00,-4.00,+1.00,-1.00,-1.00
-1.00,-12.00,-3.00,+2.00,+20.00,-10.00,-7.00,-3.00,-13.00,-19.00,-3.00,+3.00,-1.00,-10.00,-2.00,-4.00
-5.00,-9.00,-1.00,-3.00,-18.00,+8.00,+6.00,-1.00,+18.00,-5.00,-6.00,-4.00,-10.00,+12.00,+3.00,+1.00
+2.00,+2.00,-4.00,+0.00,-3.00,-25.00,-2.00,-5.00,-15.00,+5.00,-2.00,-3.00,+0.00,-29.00,-4.00,-1.00
+3.00,-20.00,-1.00,+0.00,+9.00,+1.00,+1.00,-1.00,-10.00,-23.00,-8.00,+2.00,+1.00,+25.00,-2.00,-2.00
+21.00,+26.00,+6.00,-2.00,-7.00,-1.00,+1.00,+6.00,+12.00,+23.00,+4.00,-2.00,+4.00,-1.00,-4.00,-2.00
-2.00,-3.00,-4.00,-1.00,+6.00,+6.00,-1.00,-2.00,+20.00,+2.00,+3.00,-4.00,-2.00,+0.00,-1.00,+1.00
-15.00,-23.00,-3.00,+0.00,-1.00,+2.00,-2.00,+0.00,-1.00,-8.00,+1.00,+12.00,+5.00,-11.00,-6.00,-1.00
-7.00,-14.00,-7.00,-6.00,+1.00,+3.00,-2.00,-2.00,+13.00,+19.00,+1.00,+1.00,+29.00,-14.00,-4.00,+0.00
+30.00,+18.00,+14.00,+10.00,-1.00,+2.00,+7.00,+12.00,-17.00,-19.00,-6.00,-2.00,-1.00,+0.00,+7.00,-4.00
-3.00,+28.00,+2.00,+2.00,+10.00,+5.00,-3.00,+1.00,-34.00,-9.00,+6.00,+4.00,-10.00,-5.00,-13.00,-10.00
+16.00,+10.00,+8.00,-1.00,-4.00,+7.00,+5.00,+3.00,-9.00,+6.00,-1.00,-20.00,-19.00,+5.00,+15.00,+3.00
-12.00,+15.00,-5.00,-6.00,-5.00,-12.00,-5.00,-4.00,+32.00,+4.00,+1.00,+7.00,-2.00,+3.00,-2.00,+8.00
-3.00,-13.00,-8.00,-7.00,-18.00,-2.00,+4.00,-4.00,-11.00,-9.00,-5.00,-1.00,-10.00,-17.00,+7.00,-10.00
+4.00,-17.00,+0.00,-1.00,+18.00,+7.00,-4.00,+3.00,-32.00,-19.00,-6.00,+8.00,+38.00,-23.00,-9.00,-1.00
-8.00,+10.00,-11.00,-1.00,-9.00,-8.00,+0.00,-6.00,+41.00,+34.00,+4.00,+4.00,+0.00,+19.00,+6.00,+3.00
+11.00,-4.00,+12.00,+7.00,+2.00,+1.00,+4.00,+6.00,-6.00,+11.00,-6.00,-17.00,-20.00,-23.00,-13.00,-11.00
-26.00,-35.00,-15.00,-8.00,-2.00,-4.00,-4.00,-10.00,+4.00,-14.00,+5.00,+1.00,-22.00,-3.00,-2.00,+7.00
-16.00,-18.00,-9.00,-5.00,-11.00,-15.00,-4.00,-7.00,+5.00,-21.00,-4.00,+1.00,+9.00,+4.00,+3.00,+0.00
+13.00,-5.00,-5.00,-1.00,-5.00,+10.00,-11.00,+3.00,-66.00,-42.00,-11.00,+0.00,-3.00,-48.00,-17.00,-14.00
-3.00,-32.00,+18.00,+13.00,+17.00,+1.00,+3.00,+8.00,+30.00,-5.00,-6.00,-11.00,-7.00,+5.00,+6.00,-2.00
+1.00,+20.00,-5.00,-1.00,-10.00,+1.00,-6.00,-3.00,+21.00,+69.00,+21.00,+13.00,+13.00,+37.00,-1.00,+19.00
-18.00,-36.00,+3.00,-1.00,+0.00,+6.00,-3.00,-3.00,-5.00,+1.00,-1.00,-4.00,-10.00,+11.00,+3.00,+0.00
+19.00,+60.00,+10.00,+2.00,+8.00,-14.00,+3.00,+8.00,-13.00,-1.00,-1.00,+3.00,-2.00,-43.00,-21.00,-21.00
+6.00,+38.00,+0.00,-2.00,+5.00,-4.00,-5.00,-4.00,-56.00,-45.00,-5.00,-10.00,-12.00,+16.00,+19.00,-5.00
-16.00,-29.00,-3.00,-1.00,-3.00,-15.00,-6.00,-3.00,+30.00,+21.00,+8.00,+11.00,+19.00,+24.00,-6.00,+11.00
+13.00,-3.00,-5.00,-2.00,+4.00,+8.00,+1.00,+2.00,+4.00,-6.00,-10.00,-23.00,-27.00,-7.00,+0.00,-1.00
-15.00,-70.00,-8.00,-1.00,-4.00,+0.00,-5.00,-1.00,+4.00,-17.00,-5.00,-4.00,+4.00,+41.00,+7.00,+12.00
-3.00,+49.00,-2.00,-5.00,-1.00,+5.00,+8.00,-6.00,+16.00,+10.00,-3.00,+10.00,+4.00,-95.00,-21.00,-10.00
+13.00,+5.00,+9.00,+6.00,-1.00,-4.00,-8.00,+4.00,+16.00,-18.00,-1.00,+5.00,-4.00,+57.00,+11.00,+11.00
-17.00,-25.00,-2.00,+2.00,+2.00,+3.00,-2.00,-1.00,+15.00,+62.00,+7.00,-8.00,-5.00,-31.00,+14.00,+8.00
+5.00,+22.00,+0.00,+1.00,+7.00,+8.00,+2.00,-2.00,+16.00,+9.00,+5.00,+8.00,+8.00,+20.00,-32.00,-6.00
-5.00,+17.00,+16.00,+11.00,-4.00,+11.00,+5.00,+3.00,-42.00,-27.00,-2.00,+3.00,-5.00,+16.00,+17.00,-2.00
-5.00,-34.00,-9.00,-10.00,-4.00,-5.00,-23.00,-10.00,-14.00,-20.00,-14.00,-8.00,-9.00,-22.00,-12.00,-13.00
+14.00,+24.00,+3.00,-8.00,-2.00,+15.00,+20.00,+12.00,+3.00,+1.00,+1.00,-11.00,-37.00,-44.00,-14.00,-8.00
-21.00,-28.00,-22.00,-12.00,-9.00,-15.00,-22.00,-11.00,-48.00,-12.00,-8.00,-17.00,+2.00,+36.00,+6.00,-12.00
-10.00,-27.00,-10.00,-5.00,-1.00,-5.00,+14.00,-7.00,+7.00,-5.00,+6.00,+5.00,+10.00,+3.00,+0.00,+23.00
-3.00,+7.00,-1.00,+1.00,+1.00,+3.00,+11.00,-4.00,-53.00,-3.00,-6.00,-10.00,-12.00,-28.00,-11.00,-24.00
+9.00,-7.00,+6.00,+4.00,+14.00,-7.00,-11.00,-2.00,+40.00,+9.00,+9.00,+9.00,+15.00,+40.00,+12.00,+26.00
+2.00,+21.00,+6.00,+4.00,-21.00,-7.00,+5.00,+3.00,-25.00,+7.00,-4.00,+2.00,-7.00,-20.00,+5.00,-4.00
-13.00,-36.00,-11.00,-8.00,-16.00,-34.00,-32.00,-11.00,+36.00,+35.00,+11.00,+10.00,-1.00,+26.00,-1.00,+4.00
-7.00,-3.00,+3.00,+5.00,+31.00,+68.00,+40.00,+7.00,-63.00,-50.00,-23.00,-24.00,-6.00,-17.00,-4.00,-21.00
+4.00,-5.00,-7.00,-2.00,-24.00,-14.00,-4.00,+2.00,+17.00,-1.00,+4.00,+8.00,-4.00,-3.00,+3.00,+7.00
+0.00,+2.00,+1.00,+0.00,+5.00,+10.00,+22.00,+5.00,+26.00,+20.00,+3.00,+1.00,+6.00,+16.00,+13.00,+12.00
-12.00,-3.00,-13.00,-8.00,-9.00,-10.00,-17.00,-10.00,-79.00,-22.00,-14.00,-2.00,-3.00,-2.00,-6.00,-27.00
-5.00,+2.00,-1.00,+1.00,+1.00,-1.00,-4.00,+1.00,-12.00,+5.00,+6.00,+12.00,+18.00,-19.00,+1.00,+7.00
-16.00,+13.00,+6.00,+1.00,+3.00,-2.00,-1.00,-2.00,+59.00,+16.00,+1.00,-3.00,-7.00,+8.00,-1.00,+10.00
-4.00,+34.00,+8.00,+2.00,+4.00,+7.00,+5.00,-2.00,-20.00,-25.00,-2.00,-2.00,-3.00,+35.00,+2.00,-10.00
-2.00,-8.00,-11.00,-3.00,+2.00,+12.00,-3.00,+3.00,+54.00,+22.00,+8.00,-5.00,-2.00,+3.00,-3.00,+18.00
+2.00,-11.00,-7.00,-2.00,+6.00,-13.00,+5.00,+0.00,-20.00,-26.00,-9.00,+3.00,-3.00,-14.00,+20.00,-9.00
+22.00,+37.00,+13.00,+9.00,-4.00,+14.00,+4.00,+4.00,-38.00,-10.00,-2.00,+2.00,+7.00,-6.00,-4.00,+5.00
-5.00,-44.00,-9.00,-8.00,-12.00,-21.00,-4.00,-8.00,-2.00,-22.00,-11.00,-7.00,-9.00,+34.00,+5.00,-16.00
-1.00,-10.00,-9.00,-6.00,+16.00,+8.00,+5.00,+2.00,+62.00,+53.00,+22.00,+5.00,-1.00,+7.00,+4.00,+16.00
-9.00,+19.00,+5.00,-1.00,-17.00,-21.00,-8.00,-4.00,+8.00,+1.00,-2.00,-4.00,+0.00,-6.00,-1.00,+6.00
-6.00,-1.00,-9.00,-4.00,-7.00,-4.00,-12.00,-9.00,-12.00,-20.00,-17.00,-7.00,-7.00,-8.00,-8.00,-22.00
+1.00,-5.00,+14.00,+8.00,+6.00,-1.00,+10.00,-1.00,+39.00,+8.00,+15.00,+16.00,+15.00,-15.00,+9.00,+21.00
+2.00,-4.00,-10.00,-6.00,-5.00,+1.00,+4.00,-3.00,-73.00,-34.00,-17.00,-19.00,-5.00,-6.00,-16.00,-32.00
+14.00,+4.00,+16.00,+10.00,+4.00,+4.00,-3.00,+4.00,+83.00,+38.00,+1.00,-12.00,-17.00,+3.00,+0.00,+21.00
-10.00,-23.00,-16.00,-8.00,+4.00,+1.00,+6.00,-3.00,+7.00,-12.00,-4.00,-1.00,+12.00,-1.00,-2.00,-11.00
-1.00,+5.00,+0.00,-3.00,+0.00,-3.00,-19.00,-2.00,+14.00,+7.00,+2.00,+7.00,+4.00,-10.00,-3.00,+4.00
+20.00,+52.00,+9.00,+5.00,+5.00,+8.00,+11.00,+4.00,-38.00,-27.00,-10.00,-4.00,-8.00,-31.00,-7.00,-14.00
-4.00,+3.00,+1.00,-3.00,-6.00,-12.00,+2.00,-4.00,-4.00,+17.00,+7.00,+7.00,+6.00,+24.00,+3.00,-1.00
-15.00,-46.00,-18.00,-6.00,+3.00,-4.00,-9.00,-6.00,-25.00,-2.00,-1.00,-3.00,+6.00,+0.00,+2.00,+0.00
+12.00,+33.00,+6.00,+5.00,+3.00,+5.00,+10.00,+6.00,+3.00,-12.00,-5.00,-6.00,-10.00,-9.00,-4.00,-3.00
+11.00,+20.00,+1.00,-5.00,+0.00,-7.00,-21.00,-2.00,+0.00,+6.00,-3.00,-3.00,+1.00,+1.00,+0.00,+0.00
+9.00,-15.00,+16.00,+6.00,-18.00,+2.00,+16.00,+10.00,+0.00,-19.00,-6.00,+0.00,-8.00,-36.00,-8.00,-12.00
-3.00,+13.00,-7.00,-5.00,-9.00,-8.00,+2.00,-3.00,-68.00,-31.00,-7.00,+4.00,+13.00,+65.00,+2.00,-21.00
-1.00,-30.00,-2.00,+2.00,+9.00,+6.00,-2.00,+4.00,-3.00,+16.00,+12.00,-1.00,-7.00,-37.00,+1.00,+12.00
-4.00,-41.00,-10.00,-7.00,-8.00,-4.00,-1.00,-3.00,+71.00,+41.00,+8.00,+4.00,+5.00,+20.00,+9.00,+21.00
-12.00,+13.00,+4.00,+8.00,+8.00,+5.00,-3.00,-4.00,-11.00,-11.00,-3.00,-6.00,-10.00,+0.00,-7.00,-9.00
-8.00,-1.00,+2.00,-2.00,+5.00,-2.00,-5.00,-2.00,-13.00,-12.00,-6.00,+7.00,+5.00,-4.00,-2.00,-1.00
+7.00,+18.00,+0.00,-4.00,-7.00,-14.00,-3.00,-2.00,-25.00,-17.00,+0.00,+3.00,+9.00,-20.00,-6.00,-11.00
+2.00,-10.00,+5.00,+8.00,+3.00,+11.00,+5.00,+5.00,+5.00,+0.00,-7.00,-7.00,-30.00,+23.00,+7.00,-5.00
-6.00,+7.00,-10.00,-6.00,-3.00,-10.00,-9.00,-6.00,+30.00,+18.00,-1.00,+2.00,+4.00,-7.00,-2.00,+8.00
-5.00,-10.00,-1.00,-1.00,-1.00,-2.00,+3.00,-3.00,-29.00,-5.00,+0.00,+1.00,-3.00,-6.00,+3.00,+5.00
+2.00,-2.00,+8.00,+3.00,-6.00,+5.00,+0.00,+2.00,+72.00,+7.00,-4.00,-9.00,-10.00,-4.00,+2.00,+9.00
+2.00,+13.00,+3.00,-1.00,+5.00,-4.00,-6.00,-4.00,+8.00,-9.00,-5.00,+2.00,+6.00,-10.00,-4.00,-9.00
-4.00,-1.00,-6.00,-4.00,+11.00,+5.00,+3.00,+3.00,+42.00,+29.00,+9.00,-1.00,+3.00,+22.00,+3.00,-4.00
+10.00,-2.00,+2.00,+1.00,+5.00,-5.00,-1.00,+0.00,-25.00,-17.00,+2.00,-1.00,-6.00,-6.00,+2.00,+10.00
-7.00,-2.00,-10.00,-8.00,-15.00,-8.00,-5.00,-5.00,+57.00,+10.00,-3.00,+0.00,+5.00,+8.00,-1.00,+0.00
-1.00,+19.00,+7.00,+5.00,-2.00,-14.00,+10.00,+1.00,-48.00,-13.00,-1.00,-1.00,+4.00,+0.00,-10.00,-2.00
-2.00,-41.00,-5.00,+0.00,-10.00,+23.00,-6.00,-2.00,-23.00,-7.00,-2.00,-3.00,-2.00,-4.00,+15.00,-10.00
-2.00,+22.00,+1.00,+8.00,+8.00,+10.00,-4.00,-4.00,+58.00,+26.00,+4.00,-1.00,+5.00,-5.00,-6.00,+0.00
+1.00,-27.00,-1.00,-8.00,+4.00,+5.00,+6.00,+1.00,-54.00,-19.00,-1.00,+1.00,+1.00,+4.00,+4.00,-3.00
-2.00,+5.00,-3.00,-3.00,-3.00,-1.00,-3.00,+1.00,+3.00,-20.00,-10.00,-4.00,+3.00,+0.00,-2.00,-2.00
-11.00,-8.00,-18.00,-9.00,-3.00,-14.00,-10.00,-8.00,+10.00,+10.00,+10.00,+7.00,-1.00,-6.00,-6.00,+9.00
-1.00,+15.00,+1.00,+1.00,+4.00,+1.00,+2.00,-1.00,-14.00,-3.00,-6.00,-3.00,-2.00,+9.00,+0.00,-6.00
-3.00,-2.00,+5.00,+5.00,+2.00,+5.00,-2.00,-1.00,-20.00,-5.00,-5.00,+3.00,-6.00,-10.00,+1.00,-7.00
+0.00,-5.00,+0.00,+0.00,-5.00,-1.00,-4.00,+4.00,+15.00,-1.00,+2.00,-9.00,-6.00,-2.00,-5.00,+6.00
+15.00,+22.00,+10.00,+1.00,+7.00,-4.00,+9.00,+8.00,+16.00,+6.00,+2.00,+1.00,+2.00,+14.00,-2.00,+3.00
+11.00,+8.00,+1.00,-2.00,-9.00,+2.00,+0.00,-1.00,+13.00,+5.00,+2.00,-2.00,+0.00,-15.00,-2.00,+0.00
-16.00,-15.00,-8.00,-2.00,-1.00,-4.00,-3.00,-4.00,-8.00,+4.00,-3.00,-2.00,-2.00,+1.00,-8.00,-4.00
+0.00,-25.00,-10.00,-6.00,+2.00,+4.00,-3.00,-4.00,-25.00,-23.00,-11.00,+1.00,+9.00,-7.00,+4.00,-2.00
+12.00,+42.00,+5.00,-2.00,-3.00,-11.00,-10.00,-2.00,+7.00,+3.00,+2.00,-4.00,+7.00,+9.00,+2.00,+15.00
-3.00,+3.00,+11.00,+7.00,+1.00,-2.00,+15.00,-1.00,-12.00,-5.00,-6.00,-1.00,-7.00,-21.00,-6.00,-14.00
-3.00,-31.00,-5.00,+1.00,+4.00,+0.00,-5.00,-2.00,+10.00,+10.00,+3.00,-2.00,+0.00,+4.00,-2.00,+2.00
-6.00,-8.00,-9.00,-5.00,-5.00,+1.00,+3.00,-2.00,+8.00,+15.00,+0.00,-2.00,-2.00,-20.00,+0.00,+7.00
-8.00,-2.00,+3.00,-1.00,-5.00,-11.00,-38.00,-4.00,+7.00,-38.00,-7.00,+2.00,+4.00,+0.00,-8.00,+1.00
+9.00,-4.00,+5.00,-3.00,-5.00,-4.00,+8.00,+5.00,-5.00,+21.00,+0.00,-3.00,-5.00,-28.00,-6.00,-6.00
-11.00,-8.00,-9.00,-3.00,+4.00,+1.00,-7.00,-4.00,+33.00,+8.00,+3.00,-3.00,+0.00,+21.00,+3.00,+10.00
-12.00,-15.00,-8.00,-2.00,+1.00,+1.00,+3.00,-5.00,+2.00,-17.00,+0.00,+2.00,+1.00,+4.00,-7.00,-9.00
+10.00,+23.00,+14.00,+6.00,-13.00,-9.00,+2.00,+3.00,-20.00,+3.00,-4.00,-2.00,-6.00,-14.00,-7.00,-17.00
-3.00,-7.00,-3.00,+0.00,+12.00,+0.00,-10.00,-4.00,+6.00,-7.00,-2.00,-7.00,-6.00,+2.00,+2.00,+13.00
-1.00,-6.00,-4.00,-5.00,-7.00,-1.00,+2.00,+2.00,-50.00,-10.00,-4.00,-3.00,+1.00,-2.00,-5.00,-11.00
-2.00,+9.00,+0.00,-1.00,-1.00,-3.00,+1.00,-2.00,+44.00,+45.00,+15.00,+1.00,-3.00,-1.00,+2.00,+21.00
-6.00,-4.00,-12.00,-6.00,+2.00,-1.00,+5.00,-5.00,+3.00,-15.00,-5.00,+1.00,+0.00,-5.00,-2.00,+0.00
-2.00,-28.00,-5.00,-2.00,-5.00,-2.00,-9.00,+1.00,+21.00,+17.00,+0.00,+0.00,-4.00,+5.00,-6.00,-9.00
-3.00,-18.00,-5.00,-1.00,+1.00,+3.00,+6.00,+0.00,-50.00,-21.00,+6.00,+4.00,+1.00,-50.00,+0.00,+1.00
-2.00,-3.00,+5.00,+0.00,-4.00,+3.00,+7.00,+0.00,+8.00,-5.00,-6.00,-2.00,-2.00,+49.00,+3.00,-7.00
+19.00,+20.00,+2.00,+2.00,+3.00,+1.00,+6.00,+4.00,-40.00,-23.00,-8.00,-4.00,-2.00,-16.00,-8.00,-11.00
+3.00,+9.00,+6.00,+1.00,-2.00,+1.00,-3.00,+1.00,+13.00,+22.00,+9.00,-1.00,+3.00,+23.00,+4.00,+6.00
-5.00,+0.00,-13.00,-6.00,-3.00,-9.00,-14.00,-10.00,+31.00,-3.00,-11.00,-5.00,+2.00,-44.00,-6.00,+1.00
+7.00,-3.00,+7.00,+5.00,+1.00,+2.00,+1.00,+5.00,-4.00,+2.00,+3.00,+0.00,+1.00,+26.00,+4.00,+10.00
-9.00,-6.00,-7.00,+1.00,+0.00,-3.00,-6.00,-8.00,-11.00,-8.00,-8.00,-7.00,-5.00,-2.00,-5.00,-8.00
+12.00,+20.00,-2.00,-10.00,-4.00,-5.00,+4.00,+4.00,-26.00,-6.00,+1.00,+6.00,+22.00,+1.00,-4.00,-1.00
-5.00,-11.00,-3.00,-2.00,-5.00,+4.00,-1.00,-1.00,-9.00,+15.00,+2.00,-2.00,-26.00,+10.00,+1.00,-2.00
-15.00,-14.00,-3.00,-1.00,-2.00,-3.00,+6.00,-4.00,+18.00,-28.00,+1.00,+4.00,+5.00,-15.00,-2.00,-1.00
+6.00,+6.00,+8.00,+1.00,-1.00,+3.00,+9.00,+5.00,-16.00,+12.00,+1.00,-3.00,-5.00,+6.00,+0.00,-3.00
-5.00,-4.00,-5.00,-3.00,+0.00,+1.00,+2.00,+1.00,-30.00,-29.00,-7.00,-2.00,-2.00,-2.00,-3.00,-6.00
+16.00,+37.00,+16.00,+13.00,+8.00,-4.00,+6.00,+6.00,+57.00,+30.00,+3.00,+3.00,+9.00,+23.00,+4.00,+11.00
-1.00,-14.00,-6.00,-5.00,-10.00,+2.00,+1.00,+0.00,-11.00,+7.00,+2.00,+2.00,+0.00,-1.00,-1.00,-6.00
-16.00,-32.00,-17.00,-5.00,-1.00,-7.00,-13.00,-5.00,-23.00,-11.00,-6.00,-5.00,-8.00,-34.00,-6.00,-4.00
+7.00,+24.00,+1.00,-5.00,-6.00,-6.00,-1.00,-4.00,+7.00,-14.00,-3.00,+0.00,-2.00,+6.00,+2.00,-4.00
-9.00,-13.00,+0.00,+0.00,+5.00,-4.00,-2.00,-2.00,+4.00,+7.00,-2.00,+0.00,+3.00,+15.00,+2.00,-1.00
+6.00,-17.00,-4.00,+2.00,-7.00,-4.00,-6.00,+0.00,-37.00,-15.00,-6.00,-7.00,-9.00,-17.00,-7.00,-11.00
-4.00,+1.00,+1.00,-7.00,+4.00,-2.00,+0.00,+0.00,+42.00,+19.00,+8.00,+0.00,+0.00,-5.00,+2.00,+15.00
-2.00,-10.00,-4.00,-3.00,-8.00,-2.00,+8.00,+1.00,-46.00,-15.00,-6.00,+0.00,+0.00,+7.00,-13.00,-13.00
+13.00,-14.00,+10.00,+6.00,+3.00,-1.00,-10.00,+5.00,+64.00,+26.00,+8.00,+7.00,+8.00,+17.00,+14.00,+20.00
+5.00,+38.00,+6.00,+7.00,+4.00,+0.00,-8.00,-2.00,-27.00,-17.00,-7.00,-8.00,-6.00,-5.00,-3.00,-12.00
+1.00,-7.00,+6.00,+7.00,+2.00,+0.00,+2.00,+3.00,-14.00,+2.00,+3.00,-2.00,+2.00,-1.00,+3.00,+4.00
-12.00,-23.00,-20.00,-8.00,-3.00,-4.00,-5.00,-6.00,-8.00,-13.00,-5.00,-3.00,-6.00,+10.00,-12.00,-14.00
+4.00,+27.00,+11.00,-4.00,-3.00,+0.00,+20.00,+2.00,+25.00,+12.00,+4.00,-1.00,+0.00,-4.00,+5.00,+17.00
-1.00,-34.00,+3.00,+5.00,+5.00,+3.00,-6.00,+2.00,-35.00,-9.00,-5.00,+1.00,+21.00,+18.00,-2.00,-17.00
+0.00,+19.00,-3.00,-7.00,-1.00,-1.00,+1.00,+0.00,+43.00,+5.00,-1.00,-1.00,-23.00,+10.00,+5.00,+4.00
-6.00,+1.00,-1.00,-8.00,-8.00,-5.00,-15.00,-7.00,+10.00,-16.00,-5.00,-1.00,-11.00,-18.00,+1.00,+0.00
-1.00,+9.00,-10.00,-1.00,-5.00,+7.00,+13.00,-1.00,-17.00,+8.00,-1.00,+1.00,-1.00,-17.00,-7.00,-11.00
+5.00,+14.00,+6.00,-2.00,+0.00,-5.00,-2.00,+2.00,-22.00,-15.00,-7.00,-2.00,-2.00,-16.00,-6.00,-5.00
-3.00,-19.00,-3.00,+1.00,+4.00,+7.00,+6.00,+1.00,+2.00,+16.00,+2.00,+3.00,+5.00,+13.00,+2.00,+0.00
+12.00,+22.00,+7.00,+10.00,+4.00,-2.00,-4.00,+0.00,+57.00,+0.00,-6.00,-3.00,-5.00,-13.00,-2.00,+1.00
-10.00,-5.00,-4.00,-5.00,+4.00,+3.00,-7.00,-3.00,-23.00,-10.00,-4.00,-1.00,+3.00,+53.00,+4.00,-4.00
-3.00,-14.00,-5.00,-4.00,-7.00,-7.00,+0.00,+0.00,-22.00,-9.00,-1.00,-3.00,-3.00,-20.00,-5.00,-6.00
-2.00,-14.00,-10.00,-13.00,-12.00,-6.00,+3.00,-3.00,-4.00,+5.00,+3.00,+0.00,+1.00,+9.00,-2.00,-9.00
+4.00,+19.00,+0.00,+1.00,+1.00,-2.00,-2.00,+1.00,+8.00,-12.00,+2.00,+0.00,-3.00,-12.00,+3.00,+2.00
-13.00,-23.00,-5.00,+0.00,+1.00,+1.00,+1.00,-4.00,-20.00,-15.00,-10.00,-8.00,-7.00,-11.00,-2.00,-1.00
+10.00,+41.00,+15.00,+8.00,+4.00,-1.00,+9.00,+6.00,-7.00,+0.00,+3.00,+0.00,-7.00,-7.00,+2.00,+3.00
-3.00,+10.00,-7.00,-6.00,-6.00,-8.00,-8.00,-6.00,-8.00,+5.00,+2.00,+0.00,+17.00,-12.00,-7.00,+0.00
-3.00,-15.00,+7.00,+4.00,+6.00,+4.00,+2.00,+6.00,-5.00,+5.00,+3.00,-5.00,-12.00,+5.00,+1.00,-2.00
+2.00,+10.00,-12.00,-5.00,-6.00,-6.00,-12.00,-6.00,+1.00,+13.00,+3.00,-1.00,+0.00,-54.00,-8.00,+12.00
-10.00,-17.00,-3.00,-1.00,+1.00,+4.00,-2.00,-3.00,-50.00,-21.00,-4.00,-2.00,+0.00,+40.00,-4.00,-11.00
-3.00,+6.00,+3.00,+11.00,+2.00,+1.00,+7.00,+4.00,+62.00,+9.00,+2.00,+5.00,-2.00,-14.00,+1.00,+13.00
+0.00,-1.00,-6.00,-15.00,-4.00,+4.00,+2.00,+1.00,+25.00,+12.00,-2.00,+2.00,+9.00,+4.00,-15.00,+6.00
+3.00,-20.00,-8.00,-2.00,+12.00,+2.00,-5.00,-1.00,-9.00,-3.00,+2.00,+1.00,+6.00,-14.00,-3.00,-12.00
+6.00,+17.00,+2.00,-1.00,-17.00,-3.00,+2.00,+4.00,-2.00,-5.00,-4.00,-3.00,-14.00,-51.00,-3.00,+4.00
-7.00,-5.00,+1.00,+2.00,+7.00,+4.00,-3.00,-4.00,+31.00,+8.00,+3.00,+4.00,+7.00,+19.00,-7.00,+3.00
-14.00,+0.00,-1.00,+6.00,-7.00,-5.00,-9.00,-7.00,-7.00,+6.00,+4.00,-2.00,-1.00,-1.00,+3.00,+2.00
+8.00,-2.00,-3.00,+0.00,-4.00,-9.00,+16.00,+2.00,-35.00,-27.00,-11.00,-6.00,-4.00,+11.00,-8.00,-23.00
+1.00,-2.00,-4.00,-4.00,+10.00,-7.00,-34.00,-4.00,+77.00,+41.00,+15.00,+3.00,+0.00,+1.00,+8.00,+32.00
-13.00,-6.00,+4.00,+3.00,+4.00,-6.00,+6.00,-3.00,-43.00,-18.00,-9.00,-3.00,-2.00,+13.00,+0.00,-14.00
+26.00,+9.00,+8.00,+6.00,+8.00,+2.00,-6.00,+7.00,+4.00,+3.00,-1.00,-1.00,+2.00,-2.00,+5.00,+4.00
-14.00,+1.00,-4.00,-7.00,-6.00,-6.00,-16.00,-9.00,-39.00,-26.00,-12.00,-3.00,-7.00,+8.00,-4.00,-14.00
-6.00,-16.00,-4.00,-1.00,+6.00,+0.00,+5.00,-3.00,+21.00,+8.00,+3.00,+6.00,+8.00,+3.00,-5.00,+2.00
+11.00,-14.00,-7.00,-8.00,-20.00,-8.00,-2.00,-1.00,-41.00,-16.00,-7.00,+2.00,-2.00,-13.00,-3.00,-13.00
-12.00,+13.00,+3.00,+0.00,+1.00,-2.00,+0.00,+4.00,+1.00,+27.00,+10.00,+4.00,+1.00,-16.00,+0.00,+9.00
-3.00,-24.00,-1.00,+4.00,+4.00,+8.00,-4.00,-1.00,-15.00,-1.00,+0.00,+2.00,+2.00,-1.00,+1.00,+9.00
+18.00,+61.00,+15.00,+3.00,+1.00,+2.00,+12.00,+3.00,-3.00,-5.00,-6.00,-3.00,-4.00,-17.00,-7.00,-10.00
-8.00,-16.00,-11.00,-3.00,+2.00,+4.00,-4.00,-5.00,+28.00,-7.00,-6.00,-5.00,+9.00,+29.00,+4.00,+4.00
-4.00,+13.00,+5.00,-4.00,-5.00,+0.00,+7.00,-1.00,-29.00,-20.00,-9.00,-5.00,+0.00,-7.00,-8.00,-11.00
+10.00,+8.00,-5.00,-7.00,-3.00,-1.00,-5.00,+2.00,-2.00,-1.00,+0.00,-3.00,-8.00,-17.00,+7.00,-5.00
-13.00,-21.00,-5.00,-1.00,-10.00,-2.00,+1.00,-4.00,+27.00,+10.00,-3.00,-1.00,+7.00,+27.00,+26.00,+6.00
-3.00,+2.00,+4.00,+4.00,+6.00,+3.00,+0.00,-2.00,-29.00,-12.00,-4.00,-2.00,-9.00,-19.00,-3.00,-4.00
-3.00,-12.00,+1.00,+4.00,+2.00,+3.00,+15.00,+1.00,-4.00,+2.00,-5.00,-4.00,+3.00,+15.00,-2.00,-4.00
-12.00,+22.00,+3.00,+3.00,-1.00,-4.00,-12.00,-8.00,+12.00,+10.00,+4.00,+0.00,-2.00,+9.00,-2.00,-1.00
+31.00,-12.00,-6.00,-4.00,+7.00,+12.00,+13.00,+12.00,-4.00,-3.00,+2.00,+2.00,+0.00,-5.00,-3.00,+8.00
-13.00,+12.00,-7.00,-10.00,+3.00,-5.00,+1.00,+0.00,-2.00,-7.00,-3.00,+5.00,+4.00,-12.00,+3.00,+8.00
+2.00,-6.00,+2.00,+5.00,+1.00,+0.00,+2.00,-3.00,-15.00,-10.00,+1.00,+0.00,-1.00,+6.00,+7.00,+0.00
-12.00,-1.00,+5.00,+8.00,+4.00,-3.00,-9.00,-1.00,+21.00,+16.00,+0.00,+1.00,+0.00,+9.00,-5.00,-5.00
-5.00,+1.00,-2.00,-4.00,-5.00,-6.00,+8.00,+2.00,+13.00,-13.00,-6.00,-4.00,-3.00,-11.00,+2.00,+6.00
+8.00,-6.00,-2.00,-2.00,+2.00,+8.00,-3.00,+4.00,-42.00,-1.00,+7.00,+6.00,-4.00,+9.00,-4.00,-2.00
-18.00,-7.00,-9.00,-5.00,+2.00,+6.00,-1.00,-7.00,+6.00,-10.00,-11.00,-7.00,+5.00,-1.00,-2.00,+1.00
-5.00,+5.00,+1.00,-3.00,-4.00,-5.00,+3.00,+0.00,-17.00,-10.00,+2.00,-5.00,-3.00,+3.00,+0.00,+0.00
-5.00,-6.00,-4.00,+1.00,+0.00,+3.00,-5.00,-14.00,+0.00,+9.00,-3.00,+0.00,-1.00,+4.00,-7.00,-9.00
-15.00,-2.00,+7.00,+5.00,+3.00,+1.00,+2.00,+1.00,+14.00,-12.00,-3.00,-9.00,-5.00,-5.00,-1.00,+2.00
+26.00,+0.00,+5.00,+2.00,+2.00,-2.00,-1.00,+8.00,-43.00,-8.00,-1.00,-1.00,-2.00,-3.00,+3.00,-7.00
+9.00,+9.00,-1.00,+0.00,+7.00,+1.00,-6.00,+1.00,+61.00,+26.00,+7.00,+4.00,-5.00,-1.00,+5.00,+7.00
-23.00,-16.00,-6.00,-2.00,+0.00,+0.00,-8.00,-8.00,+2.00,+13.00,+6.00,+5.00,+9.00,+22.00,-3.00,+1.00
+2.00,-8.00,-2.00,-2.00,-3.00,-1.00,+3.00,+11.00,-6.00,-11.00,-7.00,-5.00,+1.00,+26.00,+3.00,+1.00
+0.00,+8.00,+3.00,-5.00,+0.00,-2.00,-4.00,-2.00,+20.00,+19.00,+12.00,+3.00,-3.00,-11.00,+9.00,+15.00
+8.00,+1.00,+4.00,+9.00,+5.00,+3.00,+5.00,+0.00,-41.00,-18.00,-3.00,+7.00,+6.00,+12.00,-5.00,-10.00
-7.00,-17.00,-3.00,-5.00,+0.00,+1.00,+0.00,+5.00,+31.00,-1.00,+0.00,+0.00,+1.00,-14.00,+2.00,+7.00
+9.00,-3.00,-3.00,-2.00,-3.00,+0.00,+2.00,-1.00,-56.00,-9.00,-6.00,-11.00,-6.00,-9.00,-4.00,-5.00
-9.00,-17.00,-2.00,+2.00,-5.00,-1.00,-3.00,-4.00,+70.00,+27.00,+7.00,+5.00,+12.00,+7.00,+2.00,+12.00
+9.00,+17.00,+4.00,-9.00,-6.00,+0.00,+4.00,+3.00,+11.00,+15.00,+5.00,+0.00,+0.00,+8.00,+1.00,+7.00
-16.00,+0.00,-5.00,-3.00,-1.00,-7.00,-9.00,-8.00,-57.00,-22.00,-13.00,-8.00,-5.00,-8.00,-7.00,-21.00
+27.00,-2.00,+8.00,+8.00,-2.00,-6.00,-8.00,+13.00,+12.00,-1.00,-6.00,+0.00,+4.00,-2.00,+3.00,+14.00
-4.00,-6.00,-7.00,-3.00,+7.00,+7.00,-5.00,-1.00,-57.00,-8.00,+1.00,+1.00,-9.00,-6.00,+1.00,-17.00
-7.00,+12.00,+2.00,-4.00,-1.00,+1.00,+2.00,+1.00,-2.00,+2.00,+1.00,-2.00,+5.00,+6.00,-2.00,+7.00
-7.00,-12.00,-6.00,-7.00,-3.00,-11.00,-22.00,-11.00,+56.00,+18.00,-1.00,+1.00,-4.00,-7.00,-2.00,+3.00
-13.00,+1.00,-5.00,-7.00,-4.00,+4.00,+2.00,-11.00,-21.00,-5.00,-8.00,-4.00,-5.00,-8.00,-6.00,-6.00
+9.00,+17.00,-1.00,+2.00,-3.00,+0.00,+0.00,+2.00,+36.00,-14.00,+0.00,+3.00,-2.00,-9.00,+0.00,+25.00
+1.00,+3.00,-7.00,-1.00,+3.00,-1.00,+0.00,-4.00,-10.00,+13.00,+0.00,-3.00,-3.00,+10.00,-11.00,-18.00
+1.00,-11.00,+7.00,+2.00,+0.00,+1.00,+5.00,+9.00,-16.00,-21.00,-12.00,-11.00,-1.00,+7.00,+3.00,-9.00
-9.00,+12.00,-9.00,-9.00,-3.00,+1.00,-3.00,-9.00,+53.00,+39.00,+13.00,+7.00,+6.00,+5.00,+4.00,-2.00
+7.00,+3.00,+6.00,+2.00,-8.00,-10.00,-4.00,-1.00,+18.00,+5.00,+1.00,+8.00,-3.00,-6.00,+1.00,+2.00
-11.00,-5.00,+4.00,-2.00,-4.00,-4.00,+8.00,+5.00,-40.00,-31.00,-10.00,-11.00,+2.00,-27.00,-20.00,-16.00
+19.00,+14.00,+12.00,+14.00,+14.00,+12.00,+8.00,+12.00,+31.00,+10.00,+8.00,+3.00,+5.00,+37.00,+28.00,+4.00
-4.00,-10.00,-4.00,+4.00,-1.00,+4.00,+1.00,-4.00,-52.00,-33.00,-9.00,-1.00,+2.00,-8.00,-9.00,-20.00
+19.00,-2.00,-6.00,-6.00,+1.00,-2.00,+1.00,+6.00,+28.00,+21.00,+13.00,-1.00,+7.00,+13.00,+9.00,+17.00
-5.00,-3.00,-6.00,-7.00,-13.00,-6.00,-4.00,-3.00,+26.00,+13.00,+5.00,+15.00,+0.00,+0.00,+4.00,+1.00
+11.00,+22.00,+4.00,+6.00,+10.00,+7.00,+12.00,+7.00,-34.00,+20.00,+8.00,-4.00,-2.00,-24.00,-8.00,-6.00
+35.00,-18.00,-3.00,-2.00,-8.00,-3.00,-3.00,+14.00,+44.00,+32.00,+8.00,-5.00,-12.00,-2.00,+7.00,+14.00
-8.00,+21.00,+2.00,+1.00,-10.00,-11.00,-3.00,-8.00,-69.00,-48.00,-20.00,-10.00,+3.00,+6.00,+5.00,-17.00
+6.00,-8.00,+3.00,+4.00,+2.00,+1.00,+2.00,-2.00,-16.00,-17.00,-7.00,+0.00,-2.00,+7.00,+3.00,+7.00
-11.00,-2.00,-11.00,-13.00,-16.00,-1.00,+0.00,-9.00,+4.00,-18.00,-6.00,+0.00,+3.00,-12.00,-4.00,-1.00
+15.00,-5.00,+0.00,+0.00,+16.00,-5.00,-10.00,-5.00,+4.00,-5.00,-3.00,+2.00,-2.00,-1.00,-6.00,-11.00
-53.00,-12.00,-3.00,-3.00,+2.00,-13.00,-5.00,-23.00,-24.00,+1.00,-10.00,-7.00,-10.00,-8.00,-15.00,-23.00
-11.00,-25.00,-4.00,-4.00,-11.00,-8.00,-2.00,+3.00,+79.00,+24.00,+12.00,-2.00,+0.00,+5.00,+13.00,+26.00
+0.00,+8.00,-2.00,-2.00,+3.00,-1.00,-5.00,-4.00,-65.00,+15.00,-2.00,-3.00,-7.00,-7.00,-11.00,-10.00
-5.00,-6.00,+4.00,+0.00,-9.00,-2.00,+5.00,+3.00,-45.00,-46.00,-7.00,-6.00,-8.00,-7.00,-1.00,+7.00
+23.00,+16.00,-5.00,-5.00,-19.00,+2.00,-7.00,+10.00,-24.00,-7.00,-13.00,-5.00,-4.00,+7.00,+0.00,-15.00
-30.00,-29.00,-16.00,-2.00,-3.00,+4.00,-1.00,-1.00,-2.00,-25.00,-14.00,-3.00,-1.00,-2.00,-2.00,-4.00
-2.00,+6.00,+12.00,+4.00,+4.00,-4.00,-1.00,-6.00,+6.00,+9.00,+21.00,+30.00,+9.00,+1.00,-2.00,+4.00
-20.00,+7.00,+2.00,+0.00,-12.00,-2.00,+1.00,-6.00,-6.00,-1.00,-6.00,-33.00,-23.00,-5.00,-4.00,-6.00
-15.00,-41.00,-5.00,-4.00,-2.00,+2.00,+2.00,-1.00,-19.00,+31.00,+4.00,-2.00,+19.00,-15.00,-9.00,-5.00
+37.00,+36.00,-5.00,-10.00,+1.00,+7.00,+2.00,+11.00,+4.00,+2.00,+8.00,+21.00,+11.00,+23.00,+13.00,+6.00
-24.00,-23.00,+10.00,+5.00,+2.00,-8.00,-3.00,+8.00,-39.00,-16.00,-6.00,-21.00,-33.00,-13.00,-6.00,-11.00
+3.00,+12.00,+3.00,+3.00,+1.00,+0.00,+0.00,-2.00,+78.00,+29.00,+9.00,-11.00,+5.00,+2.00,+7.00,+24.00
-19.00,-32.00,-4.00,+3.00,+12.00,+6.00,+0.00,-2.00,-35.00,-38.00,-15.00,+3.00,+13.00,-1.00,+8.00,-11.00
+30.00,+36.00,+16.00,-3.00,+4.00,+3.00,-3.00,+7.00,-38.00,-9.00,+1.00,-4.00,-11.00,+34.00,-3.00,-19.00
+10.00,-6.00,-18.00,-8.00,-2.00,+5.00,-3.00,-10.00,-32.00,-23.00,-7.00,-3.00,-1.00,-2.00,-2.00,-8.00
-18.00,+5.00,+5.00,+4.00,-5.00,-13.00,+3.00,+1.00,+55.00,+52.00,+16.00,+19.00,+5.00,-1.00,+0.00,+5.00
+0.00,-22.00,-15.00,-11.00,+14.00,+20.00,+0.00,-2.00,-29.00,-40.00,-4.00,-4.00,-12.00,+4.00,-8.00,-5.00
-9.00,-11.00,+1.00,+3.00,-4.00,+0.00,-7.00,-8.00,+65.00,+51.00,+5.00,+1.00,+11.00,-10.00,+1.00,+3.00
+11.00,+22.00,+9.00,+2.00,-26.00,-21.00,+1.00,+10.00,-27.00,-27.00,-6.00,-10.00,-9.00,+0.00,+4.00,+5.00
-6.00,+0.00,-5.00,+2.00,+2.00,+5.00,+0.00,-6.00,-51.00,-32.00,-3.00,+4.00,-2.00,+1.00,-5.00,-7.00
+0.00,+0.00,-11.00,-6.00,-19.00,+4.00,+3.00,-15.00,+48.00,+43.00,+18.00,+12.00,-7.00,+0.00,-1.00,+3.00
+2.00,+22.00,+0.00,-3.00,-33.00,-16.00,-16.00,-9.00,+6.00,-22.00,-15.00,-26.00,-21.00,-17.00,-9.00,-5.00
+2.00,-4.00,-4.00,+0.00,+47.00,+32.00,+7.00,+1.00,-19.00,+0.00,-16.00,-10.00,-1.00,-1.00,-8.00,-7.00
-2.00,-6.00,-1.00,-3.00,-24.00,-25.00,-1.00,-4.00,-47.00,-30.00,-9.00,-1.00,+1.00,-7.00,+1.00,-8.00
+29.00,+22.00,+2.00,-1.00,-1.00,-3.00,+4.00,+14.00,+2.00,+20.00,+1.00,-20.00,+2.00,-5.00,+10.00,+10.00
-43.00,-11.00,+3.00,-1.00,+4.00,+5.00,-1.00,-11.00,-15.00,+2.00,+3.00,+2.00,+1.00,-11.00,+0.00,+5.00
+6.00,-3.00,-1.00,+4.00,+11.00,-2.00,-1.00,-18.00,+27.00,+16.00,+6.00,-11.00,+0.00,+3.00,-5.00,+5.00
-1.00,-1.00,-6.00,-14.00,-4.00,+7.00,-4.00,+2.00,-34.00,+2.00,-4.00,+11.00,+1.00,+3.00,-5.00,-18.00
+5.00,+5.00,+5.00,+3.00,+7.00,+4.00,+0.00,+7.00,+20.00,-25.00,-8.00,+16.00,+9.00,-14.00,-16.00,+0.00
-18.00,-34.00,-28.00,-13.00,-5.00,-8.00,+1.00,-10.00,-16.00,+15.00,+5.00,-1.00,+0.00,+21.00,-11.00,-9.00
+50.00,+35.00,+23.00,+18.00,+2.00,+7.00,+3.00,+20.00,+15.00,+20.00,+3.00,-1.00,+7.00,+3.00,+4.00,+3.00
-19.00,+8.00,+9.00,+0.00,+17.00,+6.00,+3.00,-5.00,+5.00,+0.00,-4.00,+5.00,+14.00,-3.00,-2.00,+2.00
+6.00,-4.00,+9.00,+12.00,-19.00,-11.00,-9.00,-19.00,-19.00,-17.00,-2.00,+10.00,-4.00,-3.00,-1.00,-4.00
+9.00,+12.00,-2.00,-2.00,+7.00,+4.00,+11.00,+1.00,-22.00,-23.00,-14.00,-17.00,+5.00,-20.00,-24.00,-1.00
-14.00,-27.00,+1.00,+2.00,-19.00,-3.00,+8.00,+15.00,+14.00,-6.00,+5.00,+7.00,-1.00,+0.00,+25.00,-7.00
+3.00,+7.00,-1.00,+2.00,+3.00,+1.00,+2.00,-1.00,-6.00,+18.00,+7.00,+1.00,+7.00,+7.00,-1.00,-1.00
+2.00,-7.00,-2.00,+0.00,+0.00,-6.00,-2.00,+2.00,+60.00,+13.00,+3.00,-4.00,-12.00,+6.00,-4.00,+3.00
+6.00,-8.00,-1.00,+3.00,+23.00,+7.00,-10.00,-9.00,-21.00,-26.00,-13.00,+6.00,+2.00,-17.00,+6.00,+8.00
-39.00,-14.00,-15.00,-14.00,+0.00,-15.00,+3.00,-43.00,-34.00,-48.00,-19.00,+1.00,+13.00,+43.00,-6.00,-6.00
+13.00,+8.00,+10.00,+9.00,-33.00,-17.00,-15.00,-15.00,+35.00,+54.00,+22.00,+21.00,-3.00,-6.00,+3.00,+10.00
-21.00,-14.00,-6.00,-9.00,-1.00,-1.00,+5.00,+15.00,+7.00,-16.00,-32.00,-73.00,-37.00,-12.00,-3.00,-1.00
+46.00,+0.00,+6.00,+5.00,+26.00,+3.00,-1.00,+19.00,+48.00,+67.00,+28.00,+11.00,+1.00,+7.00,+6.00,+4.00
+0.00,+5.00,-2.00,+6.00,-16.00,+0.00,+2.00,+7.00,-30.00,-9.00,-8.00,+1.00,+10.00,-18.00,-21.00,-10.00
-20.00,-15.00,-14.00,-14.00,+14.00,+9.00,+1.00,-1.00,+58.00,-5.00,+3.00,+0.00,-10.00,-3.00,-4.00,+4.00
-31.00,+2.00,-6.00,+0.00,+24.00,-9.00,-13.00,-25.00,-97.00,-57.00,-21.00,+19.00,+7.00,+9.00,-4.00,-2.00
+6.00,+1.00,+11.00,+7.00,-11.00,-4.00,+9.00,+16.00,+64.00,+8.00,+11.00,-15.00,-19.00,-10.00,+8.00,-4.00
-5.00,+16.00,+3.00,-2.00,-5.00,+8.00,-3.00,-4.00,+7.00,+27.00,-1.00,-9.00,-8.00,-13.00,-3.00,+3.00
-4.00,-5.00,-1.00,+4.00,+23.00,+11.00,+1.00,-2.00,-55.00,+2.00,-3.00,+0.00,+0.00,+3.00,-1.00,-11.00
+2.00,+4.00,+6.00,-2.00,-21.00,-6.00,-7.00,+0.00,-2.00,-8.00,+4.00,+0.00,+9.00,+4.00,+3.00,+3.00
-24.00,-31.00,-2.00,+10.00,-2.00,+5.00,+3.00,-2.00,-57.00,-46.00,-23.00,-4.00,-8.00,-9.00,-6.00,-12.00
-42.00,-40.00,-11.00,-6.00,-3.00,-8.00,-5.00,-4.00,+64.00,+43.00,+22.00,+21.00,+1.00,+0.00,-1.00,+15.00
+9.00,+11.00,+13.00,+10.00,+9.00,-1.00,+10.00,+3.00,-21.00,-26.00,-7.00,-20.00,-4.00,+2.00,+3.00,+7.00
-11.00,+10.00,-14.00,-13.00,+16.00,-2.00,+1.00,-10.00,+52.00,+49.00,+18.00,+17.00,+2.00,+4.00,-1.00,-12.00
+22.00,+0.00,+15.00,+10.00,-15.00,-1.00,-1.00,+23.00,-77.00,-32.00,-16.00,-1.00,-2.00,-3.00,+0.00,-7.00
+15.00,+35.00,-9.00,-9.00,-36.00,-16.00,-9.00,+0.00,+5.00,-1.00,+0.00,+2.00,+6.00,-7.00,-2.00,-2.00
-42.00,-29.00,-3.00,-4.00,-5.00,-1.00,+0.00,-6.00,+1.00,-1.00,+4.00,-5.00,-3.00,+8.00,+15.00,+0.00
+10.00,-5.00,+8.00,+10.00,+8.00,+11.00,+7.00,+12.00,+20.00,-3.00,-6.00,+0.00,-10.00,-2.00,-5.00,+13.00
-8.00,+0.00,-3.00,+0.00,-8.00,-14.00,-2.00,-9.00,-27.00,+11.00,+2.00,-11.00,-1.00,-5.00,+6.00,-9.00
-4.00,-11.00,-13.00,-14.00,+5.00,+3.00,-2.00,+9.00,+3.00,-4.00,+7.00,+7.00,+9.00,-4.00,+1.00,+0.00
+16.00,+5.00,-5.00,-3.00,+1.00,-6.00,-1.00,+3.00,-2.00,+1.00,-5.00,+1.00,-6.00,-17.00,-16.00,-11.00
-1.00,+2.00,+20.00,+16.00,-3.00,-3.00,+4.00,+12.00,-125.00,-76.00,-11.00,-1.00,-7.00,+23.00,+4.00,-25.00
-7.00,+7.00,-6.00,-5.00,+0.00,+1.00,-4.00,-18.00,+113.00,+93.00,+21.00,+19.00,+4.00,+27.00,+23.00,+44.00
+1.00,-19.00,-11.00,-7.00,-4.00,-5.00,-2.00,+4.00,-27.00,-14.00,-4.00,-22.00,-29.00,-18.00,-5.00,-3.00
+48.00,+21.00,+5.00,+7.00,+13.00,+10.00,+2.00,+7.00,-22.00,-9.00,-12.00,-5.00,-3.00,-2.00,-5.00,+1.00
-15.00,-10.00,-16.00,-16.00,-26.00,-24.00,-11.00,-11.00,-12.00,-9.00,+1.00,+1.00,+10.00,+1.00,-8.00,-6.00
-28.00,-4.00,+4.00,+0.00,+10.00,+2.00,+2.00,-4.00,+3.00,-15.00,-4.00,-19.00,-3.00,+0.00,-3.00,+4.00
-14.00,-33.00,+1.00,+3.00,-7.00,+1.00,+6.00,-4.00,+12.00,+17.00,+4.00,-2.00,-3.00,+1.00,+0.00,-4.00
+45.00,+54.00,+9.00,+5.00,-2.00,-8.00,-5.00,+10.00,+7.00,-26.00,-15.00,-20.00,-19.00,-1.00,+1.00,+6.00
+4.00,-4.00,+4.00,+7.00,+1.00,+2.00,+2.00,+4.00,+13.00,+32.00,-3.00,-13.00,+4.00,-7.00,-4.00,-12.00
-7.00,-35.00,-11.00,-6.00,+0.00,-1.00,+0.00,-6.00,+27.00,-2.00,+2.00,+9.00,+9.00,-2.00,-1.00,+11.00
+5.00,+42.00,+16.00,+4.00,+10.00,-4.00,-1.00,-6.00,-20.00,-11.00,-1.00,+16.00,+35.00,+0.00,+4.00,+3.00
-24.00,-28.00,-6.00,+0.00,-8.00,+16.00,+22.00,+5.00,+7.00,+4.00,+6.00,+12.00,-15.00,+20.00,+3.00,-3.00
+14.00,+16.00,-1.00,+3.00,-4.00,-6.00,+3.00,+2.00,+21.00,+12.00,+9.00,+10.00,+0.00,-3.00,+34.00,-5.00
-10.00,-8.00,-3.00,-4.00,+3.00,+0.00,-5.00,-4.00,-100.00,-70.00,-23.00,-14.00,-11.00,-10.00,-8.00,-27.00
-30.00,-5.00,-6.00,-13.00,-2.00,+16.00,-13.00,-41.00,+49.00,+57.00,+18.00,+10.00,+5.00,+12.00,+4.00,+21.00
-10.00,-27.00,-4.00,-8.00,-25.00,-18.00,-4.00,-6.00,-24.00,-39.00,-10.00,-4.00,+17.00,-13.00,-10.00,-16.00
+50.00,+50.00,+12.00,+10.00,+5.00,+3.00,-3.00,+13.00,+79.00,+45.00,+14.00,+5.00,+0.00,+2.00,+4.00,+28.00
-22.00,+3.00,+4.00,+7.00,-7.00,-3.00,+6.00,-1.00,-76.00,-4.00,+3.00,+1.00,+0.00,-1.00,-1.00,-11.00
-8.00,-17.00,-10.00,-6.00,+2.00,-7.00,-6.00,+4.00,-20.00,-9.00,-11.00,-6.00,-9.00,-12.00,-4.00,+4.00
-3.00,-26.00,-3.00,-6.00,+40.00,+15.00,-4.00,-2.00,-33.00,-23.00,-9.00,-8.00,+3.00,-7.00,-1.00,-5.00
-1.00,-10.00,-12.00,-10.00,-76.00,-53.00,-5.00,-15.00,+9.00,+10.00,-3.00,-3.00,-17.00,-4.00,+0.00,+13.00
-33.00,+5.00,+0.00,+4.00,+8.00,+10.00,-10.00,-9.00,-40.00,-44.00,-11.00,-20.00,-14.00,-16.00,-6.00,-22.00
+41.00,-6.00,+19.00,+15.00,+4.00,+2.00,+3.00,+14.00,+61.00,-1.00,-2.00,+2.00,+0.00,+6.00,+1.00,+19.00
-8.00,+0.00,-3.00,-3.00,+2.00,+0.00,-4.00,+6.00,-10.00,+14.00,-1.00,-3.00,-3.00,-9.00,-4.00,-6.00
-22.00,-29.00,-6.00,-5.00,+17.00,+19.00,+7.00,-1.00,-37.00,-33.00,-17.00,-24.00,-10.00,+26.00,-6.00,-3.00
+53.00,+28.00,-7.00,-6.00,-1.00,-6.00,-8.00,+4.00,-4.00,-6.00,-6.00,+10.00,+1.00,-5.00,-2.00,-4.00
-3.00,+19.00,+3.00,+7.00,+6.00,-7.00,+3.00,+6.00,-33.00,-2.00,+3.00,+3.00,-11.00,-4.00,-9.00,-17.00
-45.00,-32.00,-14.00,-6.00,-12.00,+1.00,-5.00,-8.00,+37.00,-8.00,-1.00,+5.00,+2.00,+3.00,+1.00,-1.00
+35.00,-5.00,-4.00,-6.00,+16.00,+13.00,+3.00,+8.00,+35.00,+43.00,+25.00,+9.00,+25.00,-6.00,+2.00,+12.00
+7.00,+13.00,+12.00,+4.00,-10.00,-3.00,+4.00,+6.00,-7.00,-15.00,-9.00,-2.00,+10.00,-8.00,-6.00,-7.00
+7.00,-1.00,-1.00,+5.00,-12.00,+3.00,-2.00,+9.00,+3.00,-9.00,-12.00,-36.00,-32.00,-9.00,-2.00,-3.00
+5.00,+33.00,+2.00,-2.00,-6.00,-3.00,-10.00,-6.00,-10.00,-13.00,+5.00,+17.00,+19.00,-2.00,-18.00,+3.00
-14.00,-16.00,-4.00,+1.00,+14.00,+4.00,-6.00,-10.00,-73.00,-24.00,-3.00,+3.00,-4.00,-7.00,+3.00,-26.00
+7.00,-1.00,-8.00,-8.00,+3.00,+12.00,+6.00,-5.00,+77.00,+19.00,+3.00,-5.00,-6.00,-1.00,+1.00,+20.00
-10.00,+7.00,-7.00,-8.00,-33.00,-35.00,-2.00,+0.00,+5.00,+3.00,+1.00,+5.00,+9.00,+3.00,+7.00,-3.00
+3.00,-24.00,+15.00,+12.00,-2.00,+1.00,-1.00,+5.00,+24.00,+33.00,-2.00,+0.00,+3.00,-3.00,-6.00,-2.00
+7.00,+11.00,+0.00,-2.00,+7.00,+0.00,+1.00,+1.00,-21.00,-12.00,+1.00,+4.00,-4.00,-8.00,-7.00,+2.00
-3.00,-13.00,-12.00,-12.00,-3.00,-12.00,-10.00,-35.00,-48.00,-24.00,-13.00,+0.00,+0.00,+0.00,-4.00,-21.00
-7.00,-7.00,-6.00,-9.00,+2.00,+4.00,-3.00,-5.00,+61.00,+34.00,+15.00,+10.00,+1.00,+2.00,+5.00,+16.00
-13.00,-13.00,-18.00,-9.00,+9.00,-5.00,-9.00,-8.00,-12.00,-12.00,-4.00,-5.00,+2.00,+0.00,+7.00,+10.00
-20.00,+3.00,+7.00,+1.00,-15.00,-8.00,-7.00,-2.00,+6.00,+5.00,-8.00,-3.00,-3.00,-7.00,-17.00,-25.00
+52.00,+9.00,+10.00,+11.00,-9.00,-2.00,+11.00,+17.00,+53.00,+43.00,+19.00,+21.00,+7.00,+10.00,+6.00,+20.00
-36.00,-27.00,-8.00,-6.00,+1.00,+1.00,+1.00,+1.00,-76.00,-58.00,-20.00,-9.00,-2.00,-3.00,+1.00,-19.00
+33.00,+29.00,+7.00,+2.00,-5.00,-3.00,+1.00,-2.00,+30.00,+26.00,+9.00,-11.00,-7.00,-2.00,+3.00,+6.00
+3.00,-17.00,-5.00,-7.00,+11.00,+9.00,-2.00,-3.00,+21.00,+5.00,+1.00,-1.00,-1.00,-4.00,+3.00,+10.00
-18.00,-10.00,-6.00,+0.00,+1.00,-1.00,+1.00,+0.00,-25.00,-4.00,-4.00,+4.00,+0.00,-1.00,-6.00,+1.00
+24.00,+18.00,+10.00,+3.00,+11.00,+9.00,-3.00,+3.00,-21.00,-13.00,-6.00,-9.00,-11.00,-7.00,-4.00,+0.00
-6.00,-7.00,-11.00,-5.00,+5.00,-1.00,-1.00,-7.00,+7.00,+5.00,+4.00,+21.00,+24.00,+6.00,+0.00,-9.00
-26.00,+7.00,+5.00,+10.00,+11.00,+12.00,+1.00,+6.00,-61.00,-40.00,-13.00,-16.00,-20.00,-15.00,-7.00,-10.00
+15.00,+16.00,+3.00,-6.00,-9.00,-5.00,-1.00,+9.00,+101.00,+31.00,+0.00,-11.00,-1.00,+11.00,+5.00,+18.00
-22.00,-16.00,-9.00,-6.00,-1.00,-1.00,-8.00,-13.00,-20.00,+4.00,+5.00,+11.00,+6.00,+3.00,-2.00,+0.00
+7.00,+7.00,-1.00,+3.00,+9.00,-5.00,-1.00,+2.00,-15.00,-7.00,-1.00,+5.00,+17.00,-3.00,+5.00,-6.00
+3.00,+6.00,+8.00,+13.00,+25.00,+6.00,-4.00,-2.00,+8.00,+16.00,+3.00,+7.00,+11.00,+6.00,-11.00,+16.00
-18.00,-23.00,-7.00,-10.00,+17.00,+6.00,+0.00,-1.00,-51.00,-36.00,-6.00,+4.00,+3.00,+0.00,+28.00,-15.00
-24.00,+4.00,+8.00,+7.00,-8.00,-1.00,+4.00,+9.00,-29.00,-8.00,-7.00,-19.00,+2.00,-6.00,-10.00,-9.00
+20.00,+11.00,+1.00,+0.00,-11.00,+9.00,+4.00,+11.00,+11.00,+22.00,+2.00,+1.00,-6.00,-6.00,-8.00,+9.00
-5.00,+4.00,-7.00,-6.00,-1.00,+1.00,-3.00,+1.00,+42.00,+25.00,+5.00,+3.00,+7.00,-1.00,+10.00,+3.00
-10.00,-17.00,-2.00,+7.00,+3.00,-6.00,+5.00,+1.00,+52.00,+10.00,+2.00,-34.00,-15.00,-5.00,-5.00,+21.00
+7.00,+26.00,+4.00,+1.00,+8.00,+9.00,-1.00,-3.00,-19.00,-22.00,-4.00,+22.00,+14.00,+5.00,-6.00,-3.00
+15.00,-1.00,+5.00,+9.00,-1.00,+2.00,+6.00,+11.00,-35.00,-19.00,-9.00,-27.00,-19.00,-9.00,-2.00,-13.00
+7.00,-7.00,+1.00,-1.00,+18.00,+13.00,+5.00,+5.00,-31.00,-13.00,-2.00,+5.00,-4.00,-1.00,-7.00,-23.00
-8.00,+5.00,-5.00,-12.00,-24.00,-11.00,-4.00,-2.00,+21.00,+8.00,+9.00,+11.00,+10.00,+3.00,-3.00,+8.00
+7.00,-10.00,-12.00,-8.00,-2.00,-2.00,+3.00,-6.00,+75.00,+57.00,+20.00,+14.00,+3.00,+0.00,+2.00,+17.00
+22.00,+14.00,+1.00,-4.00,-8.00,-4.00,-9.00,+17.00,-64.00,-40.00,-8.00,+0.00,+1.00,+9.00,-7.00,-19.00
+29.00,-6.00,-2.00,+0.00,-13.00,+2.00,+8.00,+5.00,+19.00,+1.00,-4.00,+4.00,-3.00,-2.00,+1.00,+9.00
+14.00,+13.00,+11.00,+8.00,-8.00,+5.00,-2.00,+6.00,-75.00,-47.00,-21.00,+1.00,+0.00,-2.00,-9.00,-31.00
-7.00,-5.00,-5.00,-6.00,+3.00,-13.00,-3.00,-12.00,+94.00,+54.00,+19.00,+2.00,-1.00,-4.00,+7.00,+25.00
-11.00,-4.00,+2.00,-5.00,-5.00,+0.00,-1.00,-2.00,+22.00,+1.00,+5.00,-8.00,-10.00,+1.00,+8.00,+11.00
-17.00,-6.00,-6.00,-5.00,-3.00,+5.00,+0.00,-7.00,-4.00,+12.00,+2.00,+10.00,+2.00,+3.00,-5.00,-10.00
+5.00,+14.00,+0.00,+3.00,+8.00,+0.00,+2.00,+17.00,-53.00,-14.00,+1.00,+4.00,-9.00,-6.00,-12.00,-15.00
+19.00,+5.00,+1.00,+1.00,-1.00,+11.00,-5.00,+11.00,-1.00,-25.00,-7.00,+16.00,+22.00,+4.00,-1.00,+3.00
-16.00,-21.00,-8.00,-3.00,-14.00,-13.00,-1.00,-1.00,+42.00,+51.00,+10.00,-16.00,-20.00,-3.00,+5.00,+9.00
-26.00,+16.00,+6.00,+4.00,+14.00,-3.00,-2.00,+0.00,-19.00,-13.00,-3.00,+3.00,+12.00,+2.00,-13.00,+7.00
-33.00,-4.00,+7.00,+9.00,+18.00,-1.00,+0.00,-29.00,+6.00,+3.00,+2.00,-5.00,-10.00,-7.00,+23.00,+9.00
+12.00,-12.00,-9.00,-5.00,+17.00,+3.00,-7.00,-1.00,-31.00,-29.00,-12.00,-5.00,-19.00,-1.00,-15.00,-35.00
-33.00,+18.00,+5.00,-1.00,-7.00,-1.00,-2.00,+1.00,-31.00,-11.00,+1.00,+9.00,+4.00,+1.00,-2.00,-24.00
-20.00,-26.00,-11.00,-4.00,-12.00,-5.00,-4.00,-17.00,+8.00,+8.00,+0.00,-5.00,-5.00,-1.00,-3.00,+8.00
+15.00,-3.00,-6.00,-8.00,-27.00,-7.00,-4.00,+3.00,+6.00,+12.00,+6.00,+5.00,+8.00,+0.00,-14.00,-7.00
+7.00,+1.00,+4.00,+11.00,+5.00,-4.00,+3.00,+5.00,-13.00,-16.00,-5.00,-2.00,-5.00,-4.00,+9.00,-2.00
-20.00,-10.00,-12.00,-13.00,-12.00,-5.00,-6.00,-13.00,-1.00,-5.00,-2.00,-2.00,+0.00,-3.00,-4.00,+1.00
+18.00,+29.00,+12.00,+7.00,-5.00,+0.00,+1.00,+10.00,+31.00,-4.00,-7.00,-9.00,-3.00,-2.00,+5.00,+5.00
-19.00,-16.00,-12.00,-15.00,-8.00,-9.00,+4.00,-3.00,-49.00,-2.00,+5.00,+11.00,+8.00,-11.00,-10.00,-17.00
+20.00,+12.00,+0.00,-6.00,-13.00,-5.00,-10.00,+5.00,+64.00,+34.00,+3.00,-13.00,-4.00,+3.00,+5.00,+6.00
-6.00,-8.00,+0.00,-1.00,-32.00,-1.00,+3.00,-10.00,+16.00,+5.00,-5.00,+11.00,+11.00,+1.00,-4.00,+3.00
+18.00,+0.00,-1.00,+2.00,+25.00,-2.00,-3.00,+11.00,-48.00,-20.00,-1.00,-17.00,-1.00,-2.00,-1.00,-2.00
-60.00,-4.00,-5.00,-6.00,-2.00,-8.00,-10.00,-44.00,-15.00,-10.00,-7.00,-23.00,-18.00,-2.00,-15.00,-5.00
-8.00,-16.00,-9.00,-1.00,+2.00,+0.00,-1.00,-9.00,-46.00,-32.00,-10.00,-5.00,-4.00,+0.00,+12.00,-7.00
+21.00,-6.00,+5.00,+3.00,+13.00,-3.00,-4.00,-9.00,-10.00,+2.00,-5.00,-8.00,-2.00,-2.00,+1.00,+9.00
-23.00,+2.00,+6.00,-2.00,-24.00,+3.00,+3.00,+3.00,-23.00,-15.00,-4.00,-1.00,-1.00,-5.00,-4.00,-19.00
+54.00,+15.00,+3.00,+13.00,+15.00,-2.00,+0.00,+16.00,+24.00,+16.00,-2.00,+11.00,+10.00,+8.00,+7.00,+4.00
-11.00,-25.00,-16.00,-15.00,+2.00,+1.00,+11.00,-3.00,+9.00,+11.00,-7.00,-15.00,-12.00,-6.00,-10.00,-4.00
-2.00,+21.00,+1.00,+4.00,+10.00,+1.00,-3.00,-2.00,-40.00,-23.00,+0.00,+12.00,+10.00,+3.00,+1.00,+3.00
-10.00,-12.00,-5.00,-3.00,-1.00,-1.00,+4.00,-5.00,-17.00,-6.00,-3.00,-1.00,-5.00,+1.00,+11.00,-7.00
+9.00,+7.00,+1.00,-5.00,-8.00,+4.00,-6.00,+2.00,+21.00,+17.00,+4.00,+3.00,-1.00,-2.00,-10.00,+13.00
-13.00,-5.00,+11.00,+12.00,-5.00,-1.00,-1.00,-14.00,-27.00,-22.00,-13.00,-8.00,-6.00,-4.00,-5.00,+2.00
+8.00,+7.00,+0.00,-1.00,+3.00,+6.00,+5.00,+9.00,-73.00,-21.00,-13.00,-12.00,-8.00,-10.00,-3.00,-18.00
+6.00,-14.00,+0.00,-4.00,-10.00,+3.00,-2.00,+1.00,+75.00,+50.00,+28.00,+27.00,+26.00,+12.00,+6.00,+29.00
-11.00,-16.00,-5.00,+1.00,-4.00,-1.00,-3.00,+0.00,-19.00,-12.00,-6.00,+5.00,-3.00,+0.00,-4.00,-14.00
+2.00,+3.00,+10.00,+9.00,+8.00,+1.00,-2.00,-2.00,-3.00,-8.00,-4.00,-8.00,-2.00,+1.00,-2.00,+6.00
+13.00,-10.00,-7.00,-11.00,-21.00,-13.00,-2.00,-10.00,-23.00,-23.00,-3.00,+5.00,+9.00,+2.00,+2.00,-8.00
-20.00,-8.00,-7.00,-7.00,-3.00,-4.00,-3.00,-2.00,+51.00,+28.00,+5.00,+3.00,-17.00,-6.00,-3.00,+12.00
+4.00,+12.00,+9.00,+5.00,-6.00,+17.00,+2.00,+8.00,-25.00,-16.00,-5.00,-9.00,-3.00,+2.00,+1.00,-1.00
+4.00,+2.00,+1.00,-7.00,-6.00,-3.00,+2.00,+11.00,-46.00,-29.00,-1.00,+1.00,+1.00,-4.00,-6.00,-13.00
+3.00,-2.00,-5.00,+3.00,+17.00,+4.00,+1.00,-3.00,+94.00,+39.00,+5.00,+3.00,+0.00,+0.00,+1.00,+14.00
-13.00,-8.00,-1.00,-1.00,-4.00,-6.00,-4.00,+4.00,-12.00,+4.00,+5.00,+17.00,+7.00,+4.00,+2.00,-2.00
+51.00,-2.00,+4.00,+4.00,+11.00,+4.00,+2.00,+17.00,-3.00,-8.00,-2.00,-3.00,-20.00,-3.00,+1.00,+7.00
+6.00,+37.00,+11.00,+3.00,+15.00,+5.00,+6.00,+3.00,-4.00,+9.00,-7.00,-11.00,+1.00,-6.00,-6.00,-4.00
-5.00,-17.00,-5.00,-8.00,-8.00,+0.00,-2.00,-3.00,-7.00,-3.00,+4.00,+2.00,-3.00,+1.00,+3.00,+6.00
+10.00,+9.00,+0.00,-1.00,+4.00,-4.00,-4.00,-1.00,+14.00,-1.00,+0.00,-1.00,-1.00,-1.00,+0.00,+6.00
-29.00,-5.00,-4.00,+4.00,+22.00,+1.00,-3.00,-5.00,+3.00,+1.00,+0.00,+9.00,+5.00,+0.00,-6.00,-3.00
+31.00,+8.00,+7.00,+13.00,+4.00,+3.00,+1.00,+4.00,-73.00,-41.00,-14.00,-14.00,-5.00,-4.00,-7.00,-23.00
-30.00,-15.00,-9.00,-5.00,-2.00,-1.00,-1.00,-7.00,+63.00,+17.00,+6.00,+8.00,-4.00,+1.00,+4.00,+9.00
+26.00,+26.00,-4.00,-10.00,+0.00,-5.00,-4.00,-3.00,-2.00,+1.00,+0.00,-12.00,-10.00,-1.00,+2.00,+8.00
-10.00,-13.00,+0.00,+0.00,+0.00,-4.00,+5.00,+11.00,+2.00,-1.00,-2.00,+0.00,+5.00,+0.00,-3.00,+1.00
+6.00,-9.00,-12.00,-6.00,-26.00,-5.00,-7.00,-7.00,-44.00,-5.00,+2.00,+3.00,-2.00,-1.00,-6.00,-8.00
-32.00,-8.00,-2.00,-6.00,-2.00,-3.00,-2.00,-15.00,+19.00,-4.00,-4.00,+1.00,+8.00,+3.00,+4.00,+5.00
-5.00,-14.00,-1.00,+5.00,+7.00,-1.00,-3.00,-9.00,-2.00,+3.00,-5.00,-3.00,-3.00,-4.00,-7.00,-17.00
-3.00,+20.00,+4.00,-4.00,-7.00,-1.00,+2.00,-3.00,-4.00,+21.00,+4.00,+1.00,+4.00,-1.00,+3.00,+2.00
-18.00,-24.00,-11.00,-5.00,-4.00,-2.00,-1.00,+1.00,+11.00,+3.00,-1.00,+2.00,-3.00,+0.00,+1.00,+1.00
+23.00,+14.00,+5.00,+10.00,+11.00,+5.00,+2.00,+9.00,+8.00,+2.00,-3.00,-8.00,-9.00,-2.00,-7.00,-2.00
+28.00,-6.00,+0.00,+1.00,+7.00,+1.00,+4.00,+7.00,-8.00,-5.00,+5.00,-3.00,-3.00,-1.00,+0.00,-3.00
-27.00,-11.00,-2.00,-6.00,-16.00,-4.00,-4.00,-7.00,-7.00,-3.00,+1.00,+0.00,+0.00,-2.00,+2.00,+0.00
+11.00,+8.00,+8.00,+4.00,+4.00,+2.00,+0.00,+3.00,-11.00,-32.00,-10.00,+2.00,+1.00,-3.00,-4.00,-3.00
-1.00,+2.00,-1.00,+1.00,+8.00,-2.00,-3.00,-1.00,+10.00,+23.00,+0.00,-4.00,-5.00,-2.00,+0.00,+0.00
-11.00,+0.00,-9.00,-9.00,-2.00,-2.00,-3.00,-6.00,-8.00,-19.00,-12.00,-11.00,-4.00,-2.00,-3.00,-3.00
+9.00,-6.00,+3.00,+7.00,+3.00,-1.00,-2.00,+2.00,+16.00,+15.00,+6.00,-2.00,+5.00,+0.00,-2.00,+5.00
+0.00,-3.00,+2.00,-2.00,+4.00,+0.00,-2.00,+1.00,+9.00,+9.00,+5.00,+4.00,+0.00,+0.00,+0.00,+3.00
-21.00,-4.00,-5.00,-2.00,+4.00,+0.00,-1.00,-3.00,-11.00,-1.00,+2.00,+3.00,+0.00,-4.00,-2.00,-5.00
+14.00,+27.00,+5.00,+4.00,-5.00,-3.00,+0.00,+0.00,+9.00,+10.00,+1.00,+0.00,-2.00,+0.00,+1.00,-4.00
-11.00,-4.00,-1.00,-3.00,+0.00,+1.00,-3.00,-4.00,+13.00,-8.00,-6.00,+3.00,+1.00,-2.00,-2.00,+2.00
-7.00,-14.00,-9.00,-4.00,-3.00,-3.00,-2.00,-3.00,+10.00,+28.00,+10.00,+0.00,-4.00,+0.00,+0.00,-3.00
+0.00,-5.00,+7.00,+6.00,+4.00,+2.00,-1.00,+0.00,-20.00,-14.00,-8.00,-6.00,-5.00,+0.00,-1.00,+6.00
-8.00,+4.00,+2.00,+1.00,+3.00,+3.00,+2.00,+1.00,-22.00,-18.00,-2.00,-2.00,+4.00,-3.00,-4.00,-9.00
+10.00,+4.00,-8.00,-4.00,-6.00,-1.00,-4.00,-1.00,+12.00,+7.00,-3.00,-5.00,-2.00,-1.00,-2.00,+0.00
-8.00,+7.00,-1.00,-2.00,+1.00,-8.00,+7.00,+1.00,-16.00,-4.00,+3.00,+5.00,-1.00,-1.00,-2.00,-7.00
+6.00,+5.00,+0.00,+3.00,-4.00,-3.00,-1.00,+2.00,+23.00,-1.00,-2.00,-1.00,+2.00,-2.00,+0.00,+5.00
-20.00,-8.00,-2.00,+1.00,+5.00,-2.00,-4.00,-6.00,-53.00,-22.00,-5.00,-2.00,-3.00,-1.00,-3.00,-12.00
+26.00,-2.00,+4.00,+1.00,+4.00,-1.00,+1.00,+4.00,+4.00,-6.00,-2.00,-2.00,-1.00,+0.00,+3.00,+7.00
-5.00,-1.00,-2.00,-9.00,+1.00,+10.00,-3.00,-3.00,+7.00,+11.00,+5.00,+2.00,+5.00,+0.00,-1.00,-8.00
+2.00,-11.00,-7.00,-3.00,+12.00,-1.00,-2.00,+1.00,+10.00,+2.00,+2.00,+4.00,+0.00,-2.00,+0.00,+4.00
-26.00,-19.00,+0.00,+1.00,-5.00,+0.00,+3.00,+5.00,-13.00,-5.00,+1.00,+0.00,+2.00,-1.00,+0.00,-4.00
-1.00,+10.00,-1.00,+2.00,+2.00,-3.00,-3.00,-21.00,+14.00,+1.00,+0.00,+0.00,-3.00,+1.00,+1.00,+8.00
-6.00,+2.00,+3.00,+9.00,+2.00,-1.00,-3.00,-4.00,+18.00,+10.00,-5.00,-3.00,+1.00,+0.00,-1.00,+1.00
-3.00,-7.00,+9.00,+5.00,-4.00,+2.00,+4.00,+4.00,-16.00,-7.00,+1.00,+2.00,-1.00,-2.00,-2.00,-1.00
+21.00,+3.00,-4.00,-4.00,-6.00,-3.00,-2.00,+0.00,-1.00,+5.00,+1.00,+1.00,-2.00,+0.00,-1.00,+3.00
-18.00,-14.00,-9.00,-9.00,-4.00,-3.00,-6.00,-2.00,-14.00,-7.00,+4.00,+5.00,+4.00,+0.00,-1.00,-9.00
+1.00,+6.00,-2.00,+0.00,-1.00,-5.00,-5.00,-4.00,+24.00,+10.00,-14.00,-13.00,-6.00,-3.00,-1.00,+4.00
+14.00,-4.00,+3.00,+4.00,+7.00,+4.00,+1.00,+1.00,-20.00,-21.00,-4.00,-4.00,-1.00,+0.00,+2.00,-3.00
-5.00,-1.00,+2.00,+1.00,-6.00,+0.00,+0.00,+3.00,+14.00,-8.00,-5.00,-3.00,-2.00,-1.00,+0.00,+6.00
+0.00,-10.00,-9.00,-11.00,-16.00,-3.00,-1.00,+1.00,+12.00,+9.00,+1.00,-4.00,+3.00,+1.00,-1.00,-11.00
-15.00,+2.00,+1.00,+0.00,+5.00,+1.00,+1.00,-3.00,+11.00,+10.00,+15.00,+8.00,+5.00,+0.00,+1.00,+13.00
-3.00,-2.00,-4.00,+3.00,+6.00,-3.00,-2.00,-1.00,-24.00,-26.00,-11.00,-6.00,-4.00,-4.00,-4.00,-5.00
-9.00,-8.00,+1.00,+3.00,+0.00,-2.00,-2.00,-5.00,+28.00,+18.00,+10.00,+4.00,+1.00,-1.00,-1.00,+10.00
+10.00,+17.00,-2.00,+0.00,+2.00,+1.00,+2.00,+4.00,+8.00,+15.00,-6.00,-2.00,-1.00,-1.00,-2.00,-4.00
-3.00,-4.00,-3.00,+2.00,+6.00,+2.00,+1.00,+2.00,-38.00,-27.00,-2.00,-4.00,-3.00,-1.00,+0.00,+2.00
+0.00,+4.00,+4.00,-1.00,-13.00,+0.00,+0.00,+0.00,+19.00,+20.00,+1.00,-2.00,+1.00,-1.00,-2.00,-1.00
-1.00,-4.00,+2.00,-9.00,-9.00,-3.00,-1.00,-2.00,+10.00,+1.00,-1.00,-5.00,-5.00,-5.00,-3.00,+3.00
-1.00,+9.00,+7.00,+5.00,+3.00,+1.00,-2.00,+0.00,-6.00,-15.00,-11.00,+0.00,+2.00,+0.00,+0.00,-2.00
-8.00,-25.00,-7.00,-5.00,-4.00,-3.00,-2.00,-5.00,+14.00,+6.00,+4.00,+3.00,+0.00,+0.00,+3.00,+0.00
+6.00,+10.00,-11.00,-5.00,-6.00,+0.00,-3.00,-2.00,-19.00,+15.00,+6.00,-1.00,-4.00,+0.00,-1.00,-4.00
+0.00,+1.00,-6.00,-2.00,-2.00,-1.00,+0.00,+0.00,+5.00,-4.00,-8.00,-2.00,-3.00,-1.00,-4.00,-7.00
-15.00,-8.00,+8.00,+1.00,+3.00,+0.00,-2.00,-4.00,-10.00,-4.00,+7.00,+2.00,-2.00,+1.00,+1.00,+3.00
+48.00,+18.00,-5.00,-3.00,-6.00,+1.00,+5.00,+18.00,+3.00,-1.00,-4.00,+0.00,+2.00,+0.00,-1.00,-1.00
+3.00,-2.00,+8.00,+6.00,+6.00,+3.00,-1.00,-2.00,-10.00,-9.00,-1.00,+0.00,+1.00,-1.00,-2.00,-2.00
+29.00,+32.00,+5.00,-1.00,-8.00,-2.00,+0.00,+6.00,-11.00,-11.00,-10.00,-3.00,-2.00,-2.00,-3.00,-3.00
-26.00,-9.00,-11.00,+2.00,+2.00,-2.00,-2.00,-13.00,-5.00,-8.00,+1.00,-2.00,-3.00,-1.00,-4.00,-3.00
-13.00,-9.00,+0.00,-6.00,-7.00,-3.00,-1.00,-6.00,+17.00,+9.00,+3.00,+4.00,+0.00,+2.00,+2.00,+0.00
-13.00,-8.00,-10.00,-13.00,-9.00,-7.00,-3.00,-1.00,-9.00,-5.00,-1.00,-3.00,+1.00,+1.00,-3.00,-5.00
+0.00,+3.00,+9.00,+8.00,+5.00,+2.00,+2.00,-1.00,+31.00,+5.00,-5.00,-10.00,-6.00,-3.00,+1.00,+11.00
+6.00,-8.00,-2.00,+4.00,+2.00,+1.00,+3.00,+9.00,-28.00,-4.00,-2.00,-3.00,+1.00,+0.00,-4.00,-18.00
-4.00,-2.00,-6.00,-3.00,-4.00,-3.00,-4.00,-3.00,+4.00,+7.00,+5.00,+4.00,+1.00,-3.00,-2.00,+7.00
+3.00,+16.00,+8.00,+5.00,+0.00,+0.00,+1.00,+3.00,+2.00,+0.00,+7.00,+5.00,+1.00,+0.00,-1.00,+0.00
-5.00,-3.00,+4.00,-3.00,-1.00,+2.00,-1.00,-2.00,+0.00,+9.00,-11.00,+0.00,+0.00,-1.00,+1.00,-3.00
+5.00,+0.00,+2.00,-4.00,-5.00,-3.00,+2.00,+4.00,-14.00,-13.00,+2.00,-3.00,-2.00,-3.00,-1.00,+4.00
-3.00,-8.00,-2.00,+2.00,+7.00,-3.00,-1.00,+1.00,+7.00,-1.00,-3.00,-2.00,+0.00,+0.00,-1.00,-6.00
-1.00,+10.00,-5.00,-5.00,-3.00,-3.00,-1.00,-4.00,-3.00,-3.00,-4.00,-5.00,-2.00,-5.00,-3.00,-12.00
-2.00,-10.00,-5.00,-2.00,+0.00,-3.00,-2.00,+1.00,-6.00,-6.00,-3.00,+0.00,+2.00,+1.00,+1.00,+1.00
+0.00,-8.00,-8.00,-1.00,+5.00,+2.00,-2.00,-1.00,-1.00,-18.00,-7.00,-3.00,-3.00,-1.00,+1.00,+1.00
-25.00,-6.00,+8.00,+4.00,+1.00,+0.00,-2.00,+0.00,+15.00,+12.00,-1.00,-4.00,-3.00,-1.00,-3.00,-3.00
-10.00,+4.00,+4.00,-2.00,+0.00,+1.00,-4.00,-5.00,-10.00,-9.00,+4.00,-1.00,-3.00,-2.00,-3.00,+3.00
+41.00,+5.00,-8.00,+2.00,+3.00,-1.00,+0.00,+4.00,-10.00,+0.00,+4.00,+1.00,+0.00,+0.00,-1.00,-8.00
+3.00,+1.00,+1.00,-5.00,-5.00,-2.00,+3.00,+9.00,+17.00,+9.00,-3.00,+2.00,-1.00,+0.00,-2.00,+6.00
+4.00,+10.00,+4.00,+2.00,+3.00,+0.00,-1.00,-1.00,-9.00,-21.00,-7.00,-6.00,-2.00,+1.00,+2.00,+6.00
-16.00,-9.00,-2.00,+2.00,+1.00,+1.00,-1.00,-2.00,+2.00,+13.00,+4.00,+2.00,+1.00,-1.00,+0.00,+2.00
+6.00,-17.00,-18.00,-13.00,-8.00,-7.00,-7.00,-9.00,+3.00,-4.00,+6.00,-2.00,-2.00,-3.00,-3.00,-3.00
+1.00,+8.00,+7.00,+0.00,+3.00,+0.00,-2.00,+0.00,-10.00,-9.00,-5.00,-3.00,-1.00,-2.00,-1.00,-3.00
-4.00,-5.00,-1.00,+1.00,-4.00,-1.00,-1.00,-4.00,-1.00,+11.00,+5.00,+3.00,+0.00,-1.00,-2.00,-7.00
-4.00,+8.00,+6.00,+2.00,+7.00,+2.00,+0.00,+0.00,+16.00,+4.00,-5.00,-5.00,-3.00,-3.00,-2.00,+7.00
-7.00,+1.00,-7.00,+2.00,-4.00,+0.00,+0.00,+2.00,-29.00,-20.00,-2.00,+1.00,+1.00,-2.00,-2.00,-4.00
+5.00,+23.00,+3.00,-3.00,-2.00,+0.00,+1.00,+0.00,+24.00,+13.00,-2.00,-2.00,+1.00,-2.00,+0.00,+1.00
+2.00,-14.00,-9.00,-6.00,-8.00,-2.00,-3.00,-1.00,-8.00,-3.00,+0.00,+0.00,-3.00,-2.00,-1.00,+5.00
-7.00,-7.00,-8.00,-5.00,-2.00,-1.00,-3.00,-3.00,-18.00,+0.00,-6.00,-1.00,+1.00,+1.00,+0.00,-9.00
-22.00,+5.00,+31.00,+10.00,+4.00,+0.00,-1.00,-1.00,+13.00,+4.00,+0.00,+0.00,+1.00,+0.00,-4.00,-1.00
+6.00,-9.00,-16.00,+5.00,+3.00,+0.00,-1.00,+1.00,-12.00,-7.00,-4.00,+2.00,+2.00,-1.00,+0.00,-11.00
+2.00,+5.00,+5.00,-6.00,-5.00,-4.00,-1.00,-4.00,-6.00,-5.00,-2.00,+0.00,+0.00,+0.00,+1.00,+1.00
+3.00,-13.00,-2.00,+2.00,-2.00,-2.00,-1.00,+3.00,+7.00,+5.00,-3.00,-1.00,+0.00,-2.00,+1.00,-4.00
-6.00,+9.00,-6.00,-9.00,+1.00,+1.00,-1.00,-2.00,+3.00,+8.00,+1.00,-1.00,+0.00,-1.00,-4.00,-7.00
-6.00,-19.00,-6.00,-12.00,-10.00,-2.00,-2.00,-3.00,+4.00,+7.00,+8.00,-5.00,-5.00,+0.00,+2.00,+1.00
+13.00,+25.00,+3.00,+3.00,+3.00,+2.00,+1.00,+5.00,-6.00,-6.00,-6.00,-2.00,-3.00,-3.00,-1.00,-3.00
-10.00,-8.00,-1.00,+0.00,-2.00,-3.00,-2.00,-6.00,-2.00,-17.00,-5.00,+1.00,+0.00,+1.00,+1.00,+4.00
+17.00,+4.00,+4.00,+3.00,+1.00,+0.00,+1.00,-1.00,-23.00,-5.00,-5.00,+0.00,-1.00,+0.00,-1.00,-17.00
