+2.00,+3.00,+2.00,+2.00,+5.00,+1.00,+0.00,+3.00,+3.00,+3.00,-3.00,+2.00,+1.00,+1.00,-2.00,+2.00
-1.00,+3.00,+1.00,+2.00,-7.00,-5.00,-1.00,-1.00,-3.00,+4.00,+0.00,-4.00,-5.00,-1.00,-2.00,-3.00
-4.00,-5.00,-5.00,-1.00,-1.00,+1.00,-2.00,-3.00,+3.00,+7.00,-2.00,-2.00,-3.00,-4.00,-1.00,+1.00
+1.00,-5.00,-2.00,+1.00,+0.00,-1.00,+0.00,+4.00,+5.00,-4.00,-1.00,+0.00,+6.00,-2.00,-1.00,-2.00
+1.00,+2.00,+0.00,+0.00,+6.00,+1.00,+0.00,+2.00,+7.00,+4.00,+2.00,+1.00,-2.00,+1.00,+0.00,+0.00
-1.00,-2.00,+2.00,+1.00,-6.00,-5.00,-2.00,-1.00,+3.00,+0.00,-1.00,+8.00,+0.00,+0.00,+0.00,+0.00
+0.00,-5.00,-3.00,-2.00,-4.00,-1.00,-1.00,-3.00,-18.00,-19.00,-2.00,-5.00,+1.00,-2.00,+0.00,-3.00
-1.00,+8.00,+6.00,+0.00,-1.00,-3.00,-1.00,-2.00,+0.00,+3.00,+5.00,+1.00,+0.00,-1.00,-1.00,-3.00
+0.00,-4.00,-5.00,-9.00,-5.00,-2.00,-1.00,+1.00,+15.00,+4.00,-9.00,-4.00,+1.00,+2.00,+1.00,+2.00
-2.00,+1.00,+1.00,+1.00,+2.00,+1.00,-1.00,-1.00,-8.00,+0.00,-2.00,-4.00,-2.00,+0.00,-2.00,-3.00
+3.00,+9.00,+3.00,+0.00,+2.00,+2.00,+0.00,-1.00,+10.00,+1.00,+1.00,-1.00,-2.00,+0.00,+1.00,+3.00
+0.00,-4.00,-8.00,-6.00,-3.00,-2.00,-1.00,-4.00,-10.00,-16.00,-4.00,+2.00,-2.00,+0.00,-2.00,-4.00
-1.00,-11.00,-6.00,+1.00,-11.00,-6.00,-4.00,+1.00,-16.00,+0.00,-1.00,-5.00,-4.00,+0.00,-1.00,+1.00
+9.00,+10.00,+9.00,+3.00,+4.00,+2.00,+1.00,+1.00,-2.00,-7.00,-1.00,+8.00,+0.00,-8.00,-2.00,-1.00
-1.00,-5.00,-7.00,-7.00,-10.00,-4.00,-4.00,+1.00,-12.00,+5.00,+1.00,+7.00,+8.00,+7.00,+1.00,-3.00
-4.00,-9.00,-3.00,+2.00,+9.00,+1.00,+0.00,-1.00,-17.00,-19.00,-5.00,+2.00,-2.00,-22.00,-6.00,-9.00
+3.00,+19.00,+8.00,+3.00,-2.00,-1.00,+1.00,+1.00,+28.00,+12.00,-2.00,-30.00,-29.00,-1.00,+1.00,+6.00
-3.00,-14.00,-6.00,+3.00,+3.00,+0.00,-2.00,-4.00,+9.00,+11.00,+0.00,-10.00,+9.00,+8.00,+0.00,+1.00
-8.00,-6.00,-4.00,-6.00,+2.00,-4.00,-2.00,-3.00,-25.00,-22.00,-2.00,+3.00,-11.00,+0.00,+0.00,-2.00
+1.00,-12.00,-3.00,-6.00,-8.00,-2.00,-2.00,-1.00,+8.00,+16.00,+3.00,+1.00,+3.00,+12.00,+2.00,+3.00
+2.00,+14.00,+3.00,+3.00,+3.00,+0.00,+0.00,+1.00,-35.00,-21.00,-7.00,+1.00,+2.00,-15.00,-5.00,-15.00
-7.00,-13.00,-3.00,+2.00,+2.00,-3.00,-2.00,-2.00,+9.00,+5.00,-1.00,+3.00,+2.00,-6.00,-3.00,+1.00
+18.00,+31.00,+11.00,+3.00,+22.00,+13.00,+3.00,+4.00,-8.00,+1.00,+1.00,-1.00,+3.00,+3.00,-3.00,-4.00
-14.00,-24.00,-10.00,-9.00,-41.00,-12.00,-1.00,-3.00,+3.00,-16.00,-10.00,-5.00,+1.00,-8.00,+0.00,-4.00
-2.00,+7.00,-6.00,+1.00,+11.00,+2.00,+3.00,-2.00,+0.00,+7.00,+0.00,+3.00,+2.00,-1.00,-2.00,-1.00
+6.00,+2.00,+3.00,-3.00,-4.00,+7.00,+5.00,+2.00,-21.00,-10.00,-4.00,-4.00,-1.00,+2.00,+0.00,-1.00
-7.00,-3.00,+1.00,+5.00,+10.00,-6.00,-2.00,+1.00,-9.00,-2.00,-1.00,-1.00,+1.00,-9.00,-4.00,-6.00
+1.00,-13.00,-7.00,-1.00,+5.00,-3.00,-4.00,-3.00,-2.00,-1.00,-1.00,-6.00,-6.00,+13.00,+3.00,+3.00
+3.00,+44.00,+15.00,+4.00,+0.00,+1.00,+0.00,+2.00,+22.00,+5.00,+4.00,+9.00,+14.00,+4.00,-2.00,-3.00
-4.00,-11.00,-15.00,-6.00,-5.00,-3.00,-1.00,-4.00,-17.00,-11.00,-6.00,-1.00,-8.00,+3.00,+0.00,+0.00
-5.00,+2.00,+2.00,+1.00,-3.00,+1.00,+2.00,-1.00,+10.00,+14.00,+1.00,-1.00,+10.00,-6.00,-2.00,-1.00
+4.00,-15.00,+1.00,-1.00,+6.00,+1.00,+0.00,+3.00,+20.00,+12.00,+0.00,-5.00,-12.00,-2.00,-1.00,+4.00
+6.00,+5.00,-2.00,+2.00,+0.00,-1.00,-1.00,+0.00,-15.00,-6.00,-1.00,-2.00,-4.00,+2.00,-1.00,-2.00
-4.00,-17.00,-3.00,-8.00,+3.00,-2.00,-4.00,-4.00,-17.00,-18.00,-8.00,-6.00,-1.00,-5.00,-3.00,-4.00
-13.00,-12.00,-6.00,-2.00,-12.00,-6.00,-1.00,-4.00,+44.00,+30.00,+6.00,+8.00,+18.00,-21.00,+2.00,+12.00
+17.00,+19.00,+8.00,+5.00,+8.00,+3.00,+2.00,+4.00,-49.00,-35.00,-6.00,-5.00,-12.00,-29.00,-5.00,-13.00
-11.00,-27.00,-19.00,-12.00,-8.00,-4.00,-4.00,-4.00,+8.00,-8.00,-2.00,+0.00,-2.00,+53.00,+2.00,+8.00
+17.00,+49.00,+14.00,+8.00,+6.00,+3.00,+3.00,+3.00,-18.00,-25.00,-7.00,-4.00,-3.00,+3.00,-2.00,-6.00
-5.00,-10.00,-3.00,+2.00,-7.00,-2.00,+0.00,+1.00,+25.00,+42.00,+8.00,-5.00,-8.00,-1.00,+1.00,+1.00
-10.00,+6.00,+6.00,+4.00,+3.00,+1.00,-2.00,-3.00,+8.00,+11.00,-3.00,+0.00,+3.00,-5.00,-3.00,-1.00
+4.00,+12.00,-5.00,-5.00,-3.00,-3.00,-7.00,-3.00,-16.00,-13.00,+1.00,+6.00,+3.00,-61.00,-8.00,-1.00
-11.00,-29.00,-9.00,-3.00,+6.00,+2.00,+0.00,+2.00,-4.00,+2.00,-1.00,-12.00,-19.00,+41.00,+0.00,-5.00
+5.00,+22.00,+8.00,+3.00,-4.00,-5.00,-3.00,+0.00,+45.00,+16.00,+6.00,+0.00,-3.00,+11.00,+2.00,+5.00
-13.00,+4.00,-6.00,-1.00,+4.00,+6.00,+1.00,-4.00,+13.00,+16.00,+4.00,+3.00,+6.00,+24.00,+2.00,+2.00
+4.00,-52.00,-6.00,-2.00,-4.00,-7.00,+3.00,+0.00,+3.00,-1.00,-3.00,-5.00,-3.00,-22.00,-3.00,-5.00
+10.00,+49.00,+13.00,+7.00,+4.00,+4.00,+0.00,+4.00,-1.00,-2.00,-1.00,-3.00,+6.00,+6.00,+0.00,+1.00
-17.00,-15.00,-13.00,-7.00,-1.00,+2.00,+0.00,-6.00,-33.00,-41.00,-12.00,-6.00,-5.00,-2.00,-4.00,-11.00
+26.00,+28.00,+12.00,+3.00,+3.00,-1.00,+2.00,+5.00,+21.00,+30.00,+4.00,-2.00,-1.00,+5.00,+0.00,+3.00
-18.00,-50.00,-13.00,-7.00,-6.00,-3.00,-3.00,-3.00,-2.00,-13.00,-3.00,+1.00,+1.00,+0.00,+1.00,-1.00
-7.00,+25.00,-2.00,-4.00,+5.00,-1.00,-1.00,-8.00,+4.00,+9.00,+4.00,+4.00,+4.00,-8.00,-2.00,+3.00
+15.00,+37.00,+22.00,+12.00,-9.00,+10.00,+12.00,+3.00,-18.00,-11.00,-2.00,-1.00,-5.00,+8.00,+1.00,-2.00
+0.00,+3.00,+7.00,+0.00,+2.00,+2.00,+5.00,+3.00,-1.00,-6.00,-5.00,-4.00,-1.00,-7.00,-6.00,-4.00
-12.00,+2.00,-1.00,-6.00,-1.00,+4.00,-2.00,+2.00,-15.00,-2.00,-1.00,+2.00,+5.00,+4.00,+2.00,-3.00
-8.00,-31.00,-17.00,-6.00,-12.00,-13.00,-13.00,-6.00,+29.00,+18.00,+2.00,-2.00,-4.00,-22.00,-2.00,+7.00
+0.00,-32.00,-7.00,-3.00,-1.00,-3.00,+3.00,-3.00,+4.00,-15.00,-3.00,+0.00,-7.00,-6.00,-12.00,+10.00
-1.00,+29.00,+2.00,+0.00,+4.00,-1.00,+0.00,-3.00,+17.00,+13.00,+5.00,+7.00,+11.00,+30.00,+19.00,+1.00
+0.00,-18.00,-1.00,+4.00,-1.00,+2.00,+2.00,+0.00,-14.00,-7.00,+1.00,-6.00,+0.00,+0.00,-6.00,-5.00
+4.00,+11.00,-5.00,-2.00,+2.00,+0.00,-2.00,-2.00,-30.00,+3.00,-2.00,-5.00,-5.00,-2.00,+8.00,-11.00
-1.00,-3.00,-1.00,-1.00,-3.00,-10.00,-3.00,-2.00,-1.00,-9.00,-5.00,-2.00,-13.00,-25.00,-2.00,-6.00
+2.00,+1.00,-1.00,-3.00,-1.00,+9.00,+9.00,+1.00,-3.00,-10.00,-8.00,-3.00,+1.00,+21.00,-11.00,+2.00
+5.00,+7.00,+7.00,+4.00,+3.00,+3.00,+0.00,+2.00,+8.00,-12.00,+3.00,+6.00,+6.00,+14.00,+13.00,+2.00
-9.00,-17.00,-1.00,-3.00,-7.00,-5.00,+0.00,-3.00,+41.00,+22.00,+3.00,-3.00,-8.00,-20.00,-10.00,+5.00
-13.00,-35.00,-18.00,-4.00,+1.00,-3.00,-3.00,-5.00,-27.00,+0.00,-3.00,-1.00,+5.00,+21.00,-1.00,-3.00
+16.00,+34.00,+1.00,-3.00,-4.00,-4.00,-13.00,+0.00,-15.00,-1.00,-2.00,-9.00,-14.00,-3.00,+20.00,-3.00
-8.00,+25.00,-1.00,-1.00,+0.00,+0.00,-1.00,-2.00,+2.00,-8.00,-6.00,-3.00,-1.00,-4.00,+1.00,-3.00
+6.00,-10.00,+16.00,+13.00,-6.00,+2.00,+5.00,+6.00,+29.00,-3.00,+1.00,+7.00,+6.00,-2.00,+0.00,-1.00
+0.00,-1.00,-1.00,+0.00,+7.00,+4.00,-1.00,+3.00,+6.00,+1.00,+0.00,+3.00,-2.00,+1.00,+1.00,-1.00
+1.00,-1.00,-18.00,-7.00,-2.00,-5.00,-8.00,-7.00,+5.00,+9.00,+1.00,-4.00,-1.00,-29.00,-8.00,+9.00
-2.00,+3.00,-1.00,-5.00,-3.00,-17.00,-30.00,-8.00,-25.00,+2.00,+2.00,-1.00,+4.00,+64.00,-1.00,-12.00
-4.00,+5.00,+0.00,-2.00,+7.00,+15.00,+34.00,+5.00,-9.00,-13.00,+0.00,+3.00,+1.00,-11.00,-2.00,-3.00
+6.00,+2.00,+3.00,+0.00,-6.00,-1.00,-8.00,-2.00,+37.00,+13.00,-2.00,-3.00,+0.00,+6.00,+4.00,+3.00
-13.00,-23.00,-3.00,+7.00,+6.00,+3.00,+8.00,+4.00,+5.00,-2.00,+5.00,+4.00,+2.00,+0.00,-5.00,+3.00
+9.00,+15.00,+3.00,+0.00,+2.00,+12.00,+12.00,+3.00,+9.00,+3.00,-7.00,-2.00,-2.00,-71.00,-5.00,+1.00
+1.00,-34.00,-3.00,-1.00,-1.00,-8.00,-15.00,-2.00,+17.00,+0.00,+3.00,-1.00,-5.00,+8.00,-8.00,-4.00
-11.00,+12.00,+3.00,+1.00,-3.00,-3.00,-8.00,-3.00,-14.00,-23.00,-1.00,-1.00,+3.00,+15.00,-2.00,-7.00
-2.00,-7.00,+3.00,-1.00,+1.00,-4.00,+0.00,-2.00,-47.00,-7.00,-6.00,-5.00,-5.00,-13.00,-18.00,-11.00
+1.00,-16.00,-10.00,-6.00,-2.00,-2.00,+2.00,+2.00,+40.00,+27.00,+9.00,+4.00,+1.00,-9.00,-10.00,+11.00
-8.00,+4.00,-8.00,-8.00,-15.00,-8.00,-7.00,-4.00,-47.00,-27.00,-12.00,+2.00,+4.00,+18.00,+4.00,-10.00
+15.00,+25.00,+7.00,+1.00,+3.00,-1.00,+10.00,+2.00,+28.00,+5.00,+0.00,-4.00,-4.00,-28.00,+4.00,+8.00
-14.00,-12.00,-7.00,-5.00,-7.00,-11.00,-20.00,-7.00,-12.00,-14.00,-1.00,+7.00,+0.00,+7.00,-3.00,-5.00
+13.00,-6.00,+13.00,+8.00,+4.00,+9.00,+32.00,+14.00,+17.00,+19.00,+2.00,-2.00,+6.00,+28.00,-3.00,+7.00
-9.00,-13.00,-7.00,-1.00,-1.00,-3.00,-6.00,-8.00,+25.00,+11.00,+2.00,-6.00,-1.00,-2.00,-9.00,-1.00
+1.00,-12.00,-3.00,-3.00,+4.00,+1.00,-8.00,-2.00,+5.00,+1.00,-1.00,+6.00,+2.00,-42.00,-11.00,-12.00
-3.00,-3.00,-1.00,-7.00,-4.00,+8.00,+8.00,+2.00,+2.00,+2.00,+1.00,+0.00,+4.00,+28.00,+9.00,+19.00
-7.00,-20.00,-1.00,-3.00,-5.00,-5.00,+5.00,-4.00,-25.00,-1.00,-1.00,-1.00,-7.00,+6.00,-8.00,-11.00
+19.00,+39.00,-2.00,-2.00,+0.00,+7.00,-13.00,-2.00,+25.00,+7.00,+0.00,-2.00,+4.00,+40.00,+8.00,+3.00
-15.00,-25.00,-8.00,-1.00,-1.00,-1.00,+12.00,-1.00,-27.00,+2.00,+5.00,+0.00,+0.00,-33.00,+6.00,+1.00
+11.00,+0.00,+1.00,+4.00,+9.00,-3.00,-17.00,-1.00,+3.00,-11.00,+0.00,+1.00,-8.00,-32.00,-12.00,-10.00
-1.00,+3.00,+0.00,+2.00,-4.00,+4.00,-1.00,-1.00,-30.00,-19.00,-5.00,-2.00,-1.00,+36.00,-4.00,-9.00
-12.00,-34.00,-10.00,-2.00,+13.00,-7.00,-22.00,-7.00,+3.00,+15.00,+6.00,+5.00,+4.00,-31.00,+20.00,+17.00
-14.00,-24.00,+3.00,+1.00,-10.00,+0.00,+7.00,+0.00,+2.00,-13.00,-7.00,-2.00,-4.00,-6.00,-16.00,-3.00
+20.00,+45.00,+4.00,-2.00,-5.00,-8.00,+12.00,+4.00,-46.00,-10.00,-7.00,-11.00,-9.00,+17.00,-5.00,-14.00
+0.00,+46.00,+7.00,-3.00,+1.00,+2.00,-43.00,-9.00,+28.00,+3.00,+0.00,+1.00,+1.00,-11.00,-6.00,+0.00
+4.00,+4.00,-2.00,-4.00,-2.00,+10.00,+37.00,+7.00,-45.00,-10.00,-4.00,-5.00,-6.00,-38.00,-9.00,-17.00
+7.00,-5.00,-8.00,+0.00,+6.00,+4.00,-17.00,+6.00,+36.00,+12.00,+5.00,+3.00,+11.00,+54.00,+10.00,+17.00
-28.00,-29.00,-2.00,-3.00,+2.00,-2.00,+5.00,-6.00,+15.00,-16.00,-4.00,-4.00,-2.00,-10.00,-2.00,+1.00
+14.00,+33.00,-3.00,+1.00,-4.00,-11.00,-3.00,-10.00,-31.00,-23.00,-7.00,-3.00,+2.00,+6.00,+30.00,-10.00
-2.00,+1.00,+13.00,+7.00,+2.00,+6.00,+30.00,+12.00,+42.00,+28.00,+1.00,-2.00,-8.00,-9.00,-13.00,+10.00
+0.00,+0.00,-8.00,-11.00,-5.00,-3.00,-18.00,+1.00,-26.00,-5.00,+4.00,+1.00,-4.00,+2.00,-2.00,-5.00
-1.00,-6.00,-9.00,+1.00,-7.00,-4.00,+0.00,-1.00,-2.00,+0.00,-2.00,+0.00,+4.00,-5.00,-2.00,-5.00
-19.00,-34.00,-2.00,-3.00,+1.00,-12.00,-8.00,-6.00,+6.00,+2.00,-3.00,-1.00,-8.00,-34.00,-13.00,-7.00
+9.00,+32.00,+9.00,+4.00,+0.00,+2.00,+6.00,+3.00,-25.00,-6.00,-3.00,-2.00,+5.00,-35.00,-14.00,-16.00
-5.00,-13.00,+0.00,-2.00,-2.00,+4.00,+22.00,-5.00,-28.00,-18.00,-1.00,-3.00,-5.00,+35.00,+13.00,-8.00
+12.00,+12.00,+12.00,+5.00,+1.00,+3.00,-3.00,+3.00,+29.00,+18.00,+2.00,+0.00,+9.00,+48.00,+1.00,+11.00
-11.00,-31.00,-9.00,-1.00,+0.00,+3.00,+19.00,+0.00,+17.00,+16.00,+1.00,+3.00,-4.00,-9.00,+3.00,+3.00
+4.00,+6.00,-5.00,-3.00,+8.00,-2.00,-13.00,-3.00,-22.00,-27.00,-7.00,-2.00,-5.00,-42.00,-3.00,-3.00
+6.00,-6.00,+3.00,-2.00,-14.00,-4.00,-10.00,-3.00,-6.00,+0.00,-6.00,-6.00,-10.00,+25.00,-19.00,-7.00
-13.00,-26.00,-6.00,-1.00,-1.00,-1.00,+2.00,+4.00,-24.00,-3.00,+0.00,-7.00,-6.00,-36.00,+0.00,-15.00
-3.00,+5.00,+5.00,+3.00,+3.00,-3.00,-20.00,+3.00,+1.00,+13.00,+7.00,-6.00,-1.00,+13.00,+11.00,+11.00
+1.00,+22.00,+4.00,+2.00,-1.00,+0.00,+13.00,+0.00,-7.00,-2.00,+2.00,+0.00,+1.00,+12.00,+1.00,-1.00
+9.00,-3.00,-1.00,+0.00,+4.00,+1.00,+2.00,-3.00,+15.00,+8.00,-2.00,-1.00,-3.00,-20.00,-1.00,+1.00
-9.00,-36.00,-13.00,-5.00,-13.00,-12.00,-21.00,-12.00,-26.00,-24.00,-7.00,-1.00,-1.00,-29.00,-7.00,-16.00
+7.00,+16.00,+17.00,+3.00,+4.00,+4.00,+14.00,+12.00,+24.00,+21.00,+11.00,+3.00,-1.00,+23.00,-2.00,+18.00
-17.00,-30.00,-10.00,-7.00,-5.00,-5.00,-11.00,-6.00,+29.00,+14.00,+4.00,+4.00,+6.00,+15.00,+7.00,+18.00
-6.00,-16.00,-11.00,-2.00,-1.00,-5.00,+1.00,-1.00,-69.00,-32.00,-9.00,-9.00,-6.00,-20.00,-6.00,-15.00
+5.00,+60.00,+12.00,+3.00,+2.00,+6.00,-4.00,+3.00,+64.00,+28.00,+4.00,+0.00,+6.00,+37.00,+8.00,+13.00
-3.00,+10.00,-6.00,-4.00,-6.00,-7.00,-6.00,+0.00,-15.00,-12.00,-3.00,+1.00,-3.00,-13.00,-3.00,-2.00
-11.00,-43.00,+10.00,+2.00,+3.00,-6.00,-4.00,-13.00,-26.00,-7.00,-3.00,-1.00,+0.00,+8.00,-5.00,-16.00
+6.00,+13.00,-1.00,-1.00,-10.00,+3.00,+0.00,+1.00,-12.00,+19.00,+4.00,+5.00,+2.00,+41.00,+2.00,+5.00
-5.00,-25.00,+1.00,+2.00,+9.00,+3.00,-2.00,-2.00,-41.00,-30.00,-7.00,-1.00,-4.00,-16.00,+0.00,-12.00
-2.00,-19.00,-16.00,-8.00,-1.00,+9.00,+11.00,-2.00,+60.00,+5.00,-2.00,+0.00,-3.00,-20.00,-4.00,+13.00
+1.00,+16.00,+5.00,-8.00,-10.00,-6.00,-14.00,+1.00,-20.00,-19.00,-6.00,-3.00,+4.00,+16.00,-1.00,-8.00
-7.00,+7.00,+6.00,+12.00,+9.00,+2.00,-4.00,+0.00,+19.00,+12.00,-1.00,-1.00,-1.00,-21.00,+5.00,-3.00
-10.00,+0.00,-3.00,-1.00,+0.00,+4.00,+5.00,-4.00,+6.00,+8.00,+4.00,-6.00,-11.00,-32.00,+0.00,+3.00
+1.00,+13.00,-3.00,+0.00,-1.00,+2.00,+6.00,+2.00,-1.00,-8.00,-1.00,+2.00,+2.00,+1.00,-1.00,-4.00
+20.00,-10.00,-2.00,-5.00,-3.00,+0.00,+1.00,+7.00,-27.00,-8.00,-2.00,-4.00,-3.00,+0.00,-1.00,+0.00
-6.00,+8.00,-1.00,-4.00,+1.00,-7.00,-2.00,-4.00,+21.00,+6.00,+5.00,-3.00,+2.00,+22.00,+5.00,+16.00
-3.00,-24.00,-3.00,-1.00,+0.00,-1.00,-4.00,+6.00,-10.00,+4.00,+0.00,+4.00,+4.00,+0.00,+16.00,-6.00
-18.00,-15.00,-6.00,+3.00,+1.00,+0.00,+11.00,-6.00,-7.00,+7.00,+3.00,+3.00,-1.00,-17.00,+2.00,+4.00
+10.00,+30.00,-1.00,+3.00,-3.00,+3.00,+1.00,+3.00,-2.00,-6.00,-9.00,-6.00,-6.00,+4.00,-11.00,-8.00
-5.00,-20.00,+1.00,+1.00,+3.00,+3.00,-5.00,+4.00,-54.00,-40.00,-15.00,-1.00,+1.00,+4.00,-4.00,-10.00
+12.00,+31.00,+13.00,+5.00,+10.00,+7.00,+6.00,+2.00,+48.00,+24.00,+10.00,+5.00,+3.00,+1.00,+0.00,+21.00
+6.00,-9.00,+1.00,-1.00,-14.00,-9.00,-4.00,-2.00,-20.00,-4.00,-9.00,-8.00,-4.00,-1.00,-12.00,-15.00
-6.00,-12.00,-10.00,-5.00,-6.00,-8.00,-9.00,-7.00,+0.00,-4.00,+0.00,-5.00,-3.00,+10.00,+6.00,+0.00
-4.00,+4.00,-1.00,+0.00,+5.00,-2.00,-16.00,-1.00,-4.00,-12.00,-4.00,-3.00,-5.00,-49.00,-9.00,+0.00
-6.00,-20.00,-7.00,-7.00,-10.00,-5.00,-1.00,-6.00,-11.00,-4.00,-3.00,-1.00,+3.00,+27.00,-9.00,-6.00
+5.00,-3.00,+1.00,+2.00,+10.00,+5.00,+0.00,+3.00,-50.00,-10.00,-6.00,-3.00,-6.00,-8.00,+0.00,-10.00
-4.00,+3.00,+1.00,+2.00,-5.00,-6.00,-14.00,-2.00,+0.00,-9.00,-1.00,+1.00,+2.00,+8.00,-6.00,-9.00
+2.00,+5.00,-5.00,-1.00,+2.00,-5.00,-15.00,-3.00,+84.00,+50.00,+10.00,+4.00,-1.00,-44.00,+7.00,+24.00
-14.00,-37.00,-13.00,-8.00,-9.00,-2.00,-3.00,-7.00,+6.00,-3.00,+4.00,+6.00,+11.00,+10.00,-3.00,-1.00
+16.00,+38.00,+12.00,-5.00,-3.00,+0.00,+13.00,+2.00,-24.00,-14.00,-4.00,-6.00,-11.00,-1.00,-4.00,-9.00
-8.00,-16.00,-10.00,+0.00,+2.00,-1.00,-2.00,+1.00,-22.00,+10.00,+4.00,+0.00,-2.00,-5.00,+6.00,-1.00
-5.00,-16.00,-4.00,-1.00,+0.00,-2.00,-3.00,-6.00,+9.00,-7.00,-2.00,-3.00,-5.00,-12.00,-6.00,-4.00
+20.00,+45.00,+6.00,+3.00,+2.00,+4.00,+15.00,+6.00,+13.00,+2.00,-2.00,+0.00,-7.00,-20.00,-2.00,+6.00
-2.00,-7.00,+4.00,+0.00,+2.00,+4.00,-4.00,-2.00,-10.00,+17.00,+5.00,+3.00,+2.00,-4.00,-8.00,+2.00
-10.00,-25.00,-11.00,-3.00,-4.00,-5.00,-4.00,-7.00,+5.00,-22.00,-6.00,+2.00,-3.00,-52.00,-6.00,-3.00
+13.00,+41.00,+14.00,+4.00,+7.00,+11.00,+22.00,+8.00,-21.00,-10.00,-3.00,-4.00,+1.00,+96.00,-9.00,-10.00
-5.00,-5.00,-8.00,-6.00,+0.00,-5.00,-9.00,-9.00,+8.00,+11.00,+3.00,-1.00,+7.00,-3.00,+17.00,+6.00
-7.00,-11.00,-7.00,-1.00,-12.00,-8.00,-21.00,-2.00,-1.00,-15.00,-7.00,+1.00,+4.00,-4.00,-2.00,+1.00
+4.00,+16.00,+1.00,+1.00,-2.00,+3.00,+26.00,+3.00,+63.00,+19.00,+3.00,-2.00,-4.00,+26.00,+6.00,+10.00
-3.00,+1.00,+1.00,-2.00,+3.00,-3.00,-2.00,-2.00,-16.00,+7.00,+1.00,+0.00,+6.00,-8.00,-3.00,-6.00
-2.00,-5.00,+0.00,+3.00,-1.00,-3.00,-11.00,+0.00,-3.00,-16.00,-4.00,-2.00,-6.00,-11.00,-9.00,-5.00
+0.00,-7.00,-5.00,-3.00,+3.00,+3.00,+3.00,-6.00,-13.00,+4.00,+1.00,-3.00,-1.00,+4.00,+5.00,-5.00
-7.00,-10.00,-5.00,-3.00,-5.00,-8.00,-16.00,-4.00,-54.00,-23.00,-2.00,+3.00,+3.00,-2.00,+1.00,-13.00
+11.00,+29.00,+2.00,-3.00,-8.00,-8.00,-18.00,+1.00,+90.00,+16.00,+3.00,+4.00,+9.00,-3.00,+12.00,+30.00
+2.00,-10.00,+2.00,-2.00,+8.00,+1.00,+10.00,+1.00,-14.00,+5.00,-2.00,-4.00,-8.00,-5.00,-10.00,-8.00
+2.00,+9.00,+5.00,+8.00,+1.00,+3.00,+20.00,-1.00,+1.00,+2.00,+3.00,+1.00,+1.00,-24.00,+0.00,-8.00
-1.00,-4.00,-7.00,-2.00,-2.00,+3.00,-16.00,+0.00,+18.00,+16.00,+2.00,-1.00,-3.00,+12.00,-2.00,+2.00
-6.00,+9.00,+0.00,-8.00,-3.00,-1.00,+16.00,-3.00,-13.00,-7.00,-1.00,+0.00,-1.00,-37.00,+1.00,-1.00
+0.00,+1.00,-3.00,-1.00,+2.00,-1.00,-6.00,-1.00,-17.00,-15.00,-7.00,-2.00,-2.00,+1.00,-1.00,-7.00
-8.00,-5.00,-9.00,-7.00,-10.00,-9.00,-15.00,-6.00,-10.00,-12.00,-2.00,-1.00,-2.00,-15.00,-6.00,-7.00
-2.00,-20.00,+7.00,+8.00,+9.00,+4.00,+6.00,+7.00,+17.00,+11.00,+1.00,+0.00,-5.00,-10.00,-2.00,+9.00
-4.00,-26.00,-7.00,-1.00,-2.00,-7.00,-21.00,-5.00,-31.00,-5.00,-4.00,-6.00,-4.00,+1.00,-5.00,-13.00
+5.00,+34.00,+16.00,+8.00,+1.00,+1.00,+11.00,+3.00,+36.00,+13.00,+5.00,+0.00,-3.00,+2.00,-3.00,+10.00
-5.00,-12.00,-4.00,+2.00,+3.00,+0.00,+10.00,-3.00,-51.00,-32.00,-7.00,-3.00,+2.00,+12.00,-2.00,-13.00
-1.00,+17.00,-2.00,-6.00,-2.00,-2.00,-7.00,-4.00,+29.00,+9.00,+4.00,+2.00,+7.00,+14.00,+3.00,+10.00
-10.00,-39.00,-10.00,-11.00,-8.00,-11.00,-11.00,-5.00,-10.00,-8.00,-9.00,-13.00,-16.00,-18.00,-1.00,-9.00
-8.00,-10.00,-1.00,-2.00,-5.00,-2.00,+2.00,-2.00,-21.00,-14.00,-10.00,-6.00,-5.00,-23.00,-10.00,-6.00
+3.00,+7.00,-2.00,-6.00,+1.00,+2.00,-5.00,+0.00,+30.00,+16.00,+7.00,+0.00,+3.00,+39.00,+6.00,+13.00
-3.00,-22.00,+1.00,+4.00,+14.00,+0.00,-11.00,-2.00,-15.00,+2.00,-1.00,-8.00,-5.00,+5.00,-2.00,+0.00
+5.00,+9.00,+3.00,+4.00,-13.00,-11.00,+15.00,+0.00,-31.00,-4.00,-2.00,-2.00,+0.00,+3.00,-5.00,-8.00
+5.00,+23.00,+6.00,+1.00,-2.00,+7.00,+10.00,+1.00,+32.00,+12.00,+3.00,+0.00,+0.00,-19.00,+3.00,+3.00
+7.00,+8.00,+5.00,+3.00,+3.00,+2.00,+0.00,+3.00,-3.00,-7.00,-3.00,+1.00,-1.00,+6.00,-2.00,-2.00
-7.00,-11.00,-1.00,-4.00,+5.00,-1.00,-5.00,-4.00,+19.00,+1.00,-1.00,+5.00,+1.00,-15.00,+6.00,+11.00
+8.00,+5.00,+1.00,-5.00,-6.00,-2.00,+4.00,+2.00,+23.00,-2.00,+0.00,+0.00,+4.00,+0.00,+1.00,-6.00
-8.00,-9.00,-6.00,-2.00,-4.00,-3.00,-8.00,-6.00,-60.00,-15.00,-5.00,-3.00,-6.00,-11.00,-7.00,-11.00
-5.00,-19.00,-1.00,+5.00,+4.00,+4.00,-4.00,+1.00,+27.00,+7.00,+4.00,+4.00,+4.00,-10.00,+4.00,+16.00
+16.00,+38.00,+5.00,-6.00,-9.00,+8.00,+13.00,+4.00,-18.00,-9.00,-5.00,-3.00,-4.00,+0.00,+1.00,-3.00
+0.00,+9.00,+5.00,+2.00,+12.00,-4.00,-3.00,+1.00,-16.00,-5.00,-4.00,+0.00,+1.00,+5.00,-2.00,-8.00
+2.00,+2.00,-3.00,-3.00,-15.00,-1.00,+3.00,+0.00,+12.00,+5.00,+2.00,+0.00,+0.00,-7.00,-3.00,+5.00
+2.00,+3.00,+4.00,+3.00,+4.00,-3.00,-4.00,+0.00,+31.00,+3.00,-6.00,-2.00,+1.00,+26.00,+0.00,+0.00
-14.00,-29.00,-11.00,-2.00,-6.00,-2.00,+11.00,-4.00,-22.00,+3.00,+1.00,-7.00,-2.00,+7.00,+0.00,+1.00
+8.00,+24.00,+8.00,+3.00,+2.00,+9.00,-2.00,+1.00,-2.00,-7.00,-3.00,+0.00,-3.00,+5.00,+2.00,-3.00
+0.00,-17.00,-2.00,+2.00,+3.00,+2.00,+6.00,+1.00,+3.00,-3.00,-2.00,-2.00,+1.00,+9.00,-1.00,-8.00
-8.00,-24.00,-10.00,-5.00,-5.00,-6.00,-2.00,-2.00,+21.00,+16.00,+4.00,-2.00,-2.00,-4.00,+4.00,+11.00
+11.00,+23.00,+6.00,+1.00,-1.00,+0.00,+2.00,+3.00,-2.00,-5.00,+0.00,+1.00,+3.00,-16.00,-2.00,+0.00
+1.00,+1.00,-6.00,-6.00,-2.00,+3.00,+4.00,-5.00,-11.00,+1.00,-3.00,-1.00,+3.00,+12.00,+3.00,+1.00
-9.00,+0.00,-5.00,-2.00,+4.00,-3.00,-10.00,-3.00,+49.00,+10.00,+3.00,+4.00,+2.00,+2.00,+3.00,+12.00
-4.00,-11.00,-5.00,-1.00,-5.00,+2.00,+12.00,+1.00,-18.00,-13.00,+1.00,-3.00,-4.00,-12.00,-4.00,-5.00
+2.00,+35.00,+16.00,+11.00,+6.00,-2.00,-15.00,-1.00,+0.00,-1.00,-2.00,-1.00,+0.00,+36.00,+2.00,-1.00
+0.00,-14.00,-11.00,-5.00,+0.00,+3.00,+3.00,-2.00,+1.00,+4.00,+4.00,+5.00,+2.00,-9.00,-1.00,-7.00
-6.00,+14.00,+1.00,-5.00,-1.00,-6.00,-7.00,-2.00,-19.00,+2.00,-1.00,-1.00,-2.00,-21.00,+0.00,+1.00
+2.00,-8.00,+0.00,-4.00,-11.00,-2.00,-8.00,-2.00,-9.00,-26.00,-12.00,-7.00,-5.00,+17.00,-7.00,-15.00
-8.00,-2.00,-1.00,-2.00,-1.00,-4.00,-8.00,-4.00,+10.00,+20.00,+4.00,+4.00,+1.00,-31.00,-4.00,+2.00
+3.00,-3.00,+1.00,+8.00,+1.00,+1.00,+9.00,+6.00,-35.00,-29.00,-10.00,-6.00,-6.00,+2.00,-10.00,-7.00
-3.00,-13.00,-2.00,+1.00,+2.00,-1.00,+0.00,+0.00,+6.00,+7.00,-1.00,+1.00,+2.00,+14.00,+3.00,+2.00
-1.00,-3.00,-2.00,-3.00,+0.00,-9.00,-18.00,-1.00,+20.00,+12.00,+2.00,+0.00,-2.00,-11.00,-3.00,-5.00
-6.00,-13.00,-7.00,-4.00,-2.00,-6.00,-15.00,-4.00,-8.00,-2.00,+0.00,+0.00,-1.00,-1.00,-1.00,-2.00
-12.00,+6.00,-1.00,-3.00,-4.00,+5.00,+4.00,-3.00,-3.00,-2.00,-2.00,-2.00,-1.00,-11.00,-3.00,-12.00
-6.00,-20.00,-11.00,-1.00,-1.00,-5.00,+2.00,-5.00,-22.00,-13.00,-8.00,-5.00,-2.00,+1.00,-6.00,-10.00
+9.00,+12.00,+9.00,+0.00,+2.00,-2.00,-8.00,+1.00,+0.00,+14.00,+5.00,-3.00,-4.00,-19.00,-1.00,+9.00
-1.00,-31.00,-8.00,-4.00,-4.00,+0.00,+0.00,-2.00,-12.00,-20.00,-10.00,-3.00,+0.00,+4.00,-3.00,-10.00
-1.00,+28.00,+6.00,+4.00,+3.00,-1.00,-9.00,-4.00,+13.00,+21.00,+6.00,+3.00,-1.00,-32.00,-1.00,+7.00
-1.00,-8.00,+4.00,+3.00,+3.00,+5.00,+11.00,+2.00,-18.00,-11.00,+1.00,+0.00,+2.00,+38.00,+2.00,+1.00
+5.00,-11.00,-3.00,-1.00,-1.00,+3.00,+7.00,+1.00,-23.00,+1.00,+1.00,+1.00,+0.00,-14.00,+3.00,-2.00
+10.00,+30.00,+1.00,-5.00,-3.00,+2.00,+8.00,-1.00,-4.00,-9.00,-1.00,+0.00,-5.00,-34.00,-5.00,+0.00
-10.00,-20.00,-5.00,+0.00,+0.00,-3.00,+1.00,-4.00,-11.00,-1.00,-1.00,-5.00,+0.00,+47.00,-1.00,+0.00
+7.00,-2.00,+6.00,+6.00,+2.00,+1.00,-4.00,+1.00,+6.00,+12.00,+5.00,+3.00,+1.00,+17.00,+3.00,-1.00
-6.00,-7.00,-1.00,-6.00,+0.00,+1.00,+9.00,-3.00,+10.00,+2.00,-3.00,-2.00,+1.00,+6.00,+1.00,-5.00
+2.00,+13.00,-3.00,-4.00,+1.00,-1.00,+9.00,+2.00,+30.00,+27.00,+8.00,+3.00,+2.00,-8.00,-1.00,+7.00
+5.00,-10.00,-5.00,-1.00,-4.00,-2.00,+2.00,+1.00,-26.00,-16.00,+0.00,+0.00,-4.00,-1.00,-1.00,-7.00
+0.00,+5.00,+8.00,-2.00,+0.00,-3.00,-13.00,+0.00,+12.00,+12.00,+3.00,-4.00,-2.00,+18.00,+0.00,-4.00
+0.00,+15.00,+0.00,+3.00,+4.00,-2.00,+5.00,-4.00,-5.00,-15.00,-9.00,+0.00,-4.00,-4.00,-2.00,-6.00
-17.00,-6.00,+5.00,+3.00,+1.00,+11.00,+12.00,-1.00,-16.00,-5.00,+1.00,-4.00,-3.00,+0.00,-6.00,+1.00
+5.00,+14.00,+0.00,-5.00,-2.00,-2.00,-3.00,+4.00,+25.00,+8.00,+1.00,+2.00,+2.00,-3.00,+6.00,+9.00
+9.00,-5.00,-7.00,-5.00,-9.00,-3.00,+2.00,+4.00,-29.00,-11.00,-6.00,-2.00,+6.00,+58.00,+8.00,-3.00
-1.00,+3.00,-3.00,-6.00,+0.00,-8.00,-8.00,-2.00,+34.00,+19.00,+8.00,+2.00,+0.00,-34.00,-1.00,+7.00
-5.00,-9.00,-5.00,+0.00,-1.00,-12.00,-15.00,-6.00,-8.00,+0.00,-2.00,-1.00,-1.00,+46.00,+7.00,-3.00
+0.00,+14.00,+1.00,+2.00,+3.00,+10.00,-6.00,-5.00,+7.00,-2.00,+0.00,-1.00,+1.00,+4.00,-4.00,-1.00
-19.00,-27.00,-12.00,-9.00,-2.00,-3.00,-1.00,-4.00,-32.00,-13.00,-4.00,-2.00,-5.00,-26.00,-5.00,-1.00
+10.00,+7.00,+0.00,-2.00,-2.00,+1.00,+4.00,+3.00,-6.00,-12.00,-5.00,+1.00,-3.00,-1.00,-3.00,-3.00
+10.00,-3.00,+2.00,+6.00,+3.00,+1.00,-20.00,+3.00,+21.00,+7.00,-2.00,-2.00,-3.00,+17.00,+4.00,+3.00
+0.00,-11.00,+5.00,+4.00,+2.00,+1.00,-1.00,-4.00,+0.00,-11.00,-1.00,-2.00,+1.00,-12.00,+3.00,-9.00
+12.00,+44.00,+7.00,-4.00,-5.00,-2.00,-10.00,+2.00,+29.00,+14.00,+1.00,+1.00,-1.00,+7.00,+2.00,+13.00
-9.00,-28.00,-3.00,+0.00,-3.00,+7.00,+31.00,+1.00,-13.00,-9.00,-1.00,+2.00,+3.00,+2.00,-2.00,-9.00
+4.00,-4.00,+3.00,+1.00,+1.00,-2.00,+3.00,+1.00,+7.00,-5.00,-1.00,-3.00,-2.00,-10.00,-4.00,+0.00
-3.00,-8.00,-6.00,+0.00,+2.00,-9.00,-21.00,-2.00,-8.00,+3.00,-1.00,-3.00,-5.00,-26.00,-1.00,+2.00
-6.00,-9.00,-3.00,+2.00,+1.00,+9.00,+19.00,-5.00,-15.00,+7.00,+1.00,+0.00,-3.00,-19.00,-4.00,-8.00
-10.00,-22.00,-3.00,+1.00,-1.00,+1.00,-10.00,-1.00,-21.00,-3.00,-6.00,-5.00,-2.00,-9.00,-6.00,-6.00
+8.00,+27.00,+3.00,-2.00,-4.00,-7.00,-4.00,+1.00,-15.00,-19.00,-10.00,-1.00,+2.00,+3.00,-3.00,-8.00
-5.00,-12.00,-11.00,-4.00,-4.00,+2.00,+3.00,+0.00,-15.00,-8.00,-5.00,-6.00,-9.00,-2.00,-3.00,+0.00
-6.00,+3.00,+6.00,+1.00,+2.00,-3.00,-4.00,-4.00,+16.00,+0.00,+4.00,+4.00,+4.00,-18.00,+3.00,+4.00
+6.00,+2.00,-1.00,+1.00,+3.00,+1.00,-21.00,+3.00,+18.00,+9.00,-1.00,-7.00,-5.00,+0.00,+0.00,-1.00
-8.00,-27.00,-7.00,-2.00,-3.00,+0.00,+15.00,-2.00,-29.00,-7.00,-4.00,-2.00,-3.00,-9.00,-6.00,-14.00
-8.00,-4.00,+0.00,-5.00,-2.00,+1.00,+9.00,-5.00,-3.00,-6.00,+5.00,+11.00,+14.00,+64.00,+9.00,+13.00
-7.00,-6.00,-8.00,-2.00,-2.00,-4.00,-7.00,-2.00,-4.00,+5.00,-2.00,-5.00,-3.00,-12.00,-4.00,-5.00
-7.00,-10.00,-5.00,-5.00,-5.00,+0.00,-3.00,-5.00,+23.00,-11.00,-5.00,-3.00,+0.00,+0.00,+0.00,+21.00
+1.00,+28.00,+6.00,-1.00,-1.00,-1.00,+10.00,+6.00,-1.00,+4.00,+1.00,+5.00,+9.00,-14.00,-2.00,-7.00
+49.00,+50.00,+16.00,+3.00,+8.00,+2.00,-9.00,+9.00,+16.00,+15.00,+1.00,-4.00,-10.00,+19.00,+0.00,+5.00
-13.00,-44.00,+0.00,+9.00,+9.00,+4.00,+0.00,+4.00,-9.00,-14.00,-3.00,+0.00,-3.00,-4.00,-7.00,-9.00
+8.00,+37.00,+8.00,+0.00,-11.00,-10.00,-11.00,-5.00,-24.00,-8.00,+0.00,-2.00,+1.00,+19.00,+1.00,-12.00
-9.00,-25.00,-6.00,-5.00,+1.00,+4.00,+11.00,-4.00,-13.00,-9.00,+2.00,-2.00,-5.00,-40.00,-4.00,+0.00
-17.00,-12.00,-11.00,-6.00,-6.00,-3.00,+15.00,-2.00,-20.00,+12.00,-3.00,-2.00,-5.00,-38.00,-9.00,-12.00
-9.00,-24.00,-15.00,-6.00,-3.00,-5.00,-9.00,-9.00,+34.00,+1.00,-1.00,+1.00,+19.00,+77.00,+7.00,+9.00
+0.00,+3.00,+11.00,+6.00,+6.00,+2.00,+0.00,+4.00,-11.00,-11.00,-8.00,-5.00,-2.00,+21.00,-3.00,-13.00
+7.00,+9.00,-3.00,-1.00,+2.00,+5.00,-14.00,+1.00,+2.00,+10.00,+2.00,+0.00,+1.00,+25.00,+4.00,+7.00
-6.00,-8.00,+8.00,-1.00,-7.00,-12.00,-11.00,+1.00,-8.00,-2.00,-4.00,-1.00,+3.00,-25.00,-2.00,+0.00
+28.00,+5.00,+4.00,+3.00,+3.00,+16.00,+7.00,+4.00,-1.00,-13.00,-4.00,-1.00,-9.00,-24.00,+0.00,+3.00
-12.00,+0.00,-13.00,-7.00,+0.00,-7.00,-28.00,-8.00,-3.00,+3.00,+0.00,+3.00,-1.00,-44.00,-8.00,-4.00
+1.00,-21.00,+0.00,+1.00,-2.00,-1.00,+3.00,-3.00,+14.00,+12.00,-2.00,-3.00,-1.00,+16.00,-1.00,-4.00
-17.00,-14.00,-8.00,-3.00,-2.00,-4.00,-2.00,-4.00,-20.00,-23.00,-6.00,-2.00,-10.00,-44.00,-2.00,-8.00
+11.00,+25.00,+13.00,+3.00,+2.00,+4.00,+0.00,+2.00,-28.00,-1.00,-5.00,-3.00,+9.00,+59.00,+1.00,-13.00
-8.00,+33.00,-3.00,-4.00,-4.00,-4.00,-4.00,-6.00,+23.00,+5.00,+8.00,+3.00,-2.00,-24.00,+0.00,+13.00
+0.00,+11.00,-1.00,+0.00,-1.00,-4.00,+5.00,+2.00,-2.00,-15.00,-1.00,+2.00,-3.00,+9.00,+3.00,+10.00
-17.00,-47.00,-6.00,+3.00,+0.00,+3.00,+5.00,-3.00,+20.00,+13.00,+6.00,+2.00,+9.00,+36.00,+8.00,+3.00
+9.00,+22.00,+7.00,-2.00,+1.00,-2.00,+11.00,+2.00,-13.00,-2.00,-3.00,-3.00,-9.00,-71.00,-7.00,+4.00
+2.00,+4.00,-5.00,-4.00,+1.00,-2.00,+8.00,-5.00,+21.00,+12.00,+2.00,-2.00,+2.00,+40.00,+8.00,+4.00
+16.00,+17.00,+15.00,+3.00,-3.00,-1.00,-25.00,+7.00,+18.00,+12.00,+2.00,+0.00,+11.00,+49.00,+6.00,+5.00
-15.00,+3.00,-4.00,-4.00,-2.00,+4.00,+21.00,-2.00,+6.00,+6.00,+0.00,+1.00,-2.00,+0.00,+4.00,-1.00
+4.00,-23.00,-11.00,-2.00,-4.00,-6.00,-18.00,-3.00,-8.00,+4.00,+3.00,+3.00,-10.00,-40.00,+0.00,+5.00
+5.00,+11.00,+2.00,+8.00,+5.00,+3.00,+19.00,+1.00,+31.00,-3.00,-1.00,+0.00,+2.00,-19.00,-4.00,-5.00
-14.00,-17.00,-4.00,+2.00,-1.00,-2.00,+4.00,-2.00,-23.00,-8.00,+1.00,-1.00,+4.00,+24.00,+1.00,+1.00
+11.00,+28.00,+6.00,-9.00,-3.00,-4.00,-9.00,+3.00,+20.00,+11.00,+2.00,+6.00,+9.00,+18.00,+1.00,+4.00
+0.00,-6.00,-4.00,-6.00,-5.00,-12.00,-8.00,-3.00,+5.00,+1.00,+0.00,-7.00,-16.00,-77.00,-8.00,-1.00
-8.00,-9.00,-6.00,+0.00,-3.00,-2.00,-1.00,+0.00,-39.00,-23.00,-1.00,+0.00,+0.00,-7.00,-7.00,+2.00
+7.00,+6.00,-5.00,+1.00,+2.00,+4.00,+17.00,-2.00,-27.00,-3.00,-4.00,-1.00,-7.00,-77.00,-3.00,-26.00
-6.00,-7.00,-2.00,+4.00,+2.00,-1.00,-18.00,-8.00,-16.00,-35.00,-10.00,-3.00,-10.00,-3.00,-16.00,-12.00
-21.00,-28.00,-8.00,-1.00,-1.00,-2.00,-3.00,-6.00,+19.00,+16.00,+6.00,-1.00,+3.00,+21.00,+4.00,+9.00
+8.00,+3.00,+5.00,-2.00,-2.00,+7.00,+5.00,+7.00,-6.00,+7.00,+2.00,+0.00,-8.00,-50.00,-4.00,-11.00
-13.00,+9.00,-6.00,+0.00,-2.00,-3.00,+12.00,-10.00,+39.00,-4.00,-1.00,+0.00,+5.00,+54.00,+4.00,+26.00
+6.00,-4.00,+3.00,-5.00,+0.00,+2.00,+2.00,+2.00,-46.00,-13.00,-5.00,-3.00,+4.00,+24.00,+3.00,-16.00
-17.00,-1.00,-7.00,-9.00,-10.00,-15.00,-29.00,-8.00,-2.00,+7.00,-2.00,-1.00,-1.00,-26.00,-6.00,-5.00
+11.00,-10.00,-4.00,+4.00,+4.00,-6.00,-9.00,+5.00,+10.00,-8.00,-1.00,+0.00,+2.00,+25.00,-1.00,-6.00
+4.00,-19.00,+6.00,+5.00,+6.00,+9.00,+7.00,+5.00,-3.00,-13.00,-4.00,-2.00,-10.00,-35.00,-4.00,-6.00
-6.00,+2.00,-7.00,-5.00,-11.00,-12.00,-1.00,-11.00,+28.00,+18.00,+6.00,+2.00,+5.00,-18.00,+5.00,+13.00
+11.00,+8.00,-5.00,-8.00,-6.00,+1.00,+3.00,+7.00,-7.00,-6.00,-8.00,-7.00,-9.00,-14.00,-8.00,-22.00
-19.00,-14.00,+2.00,-2.00,-1.00,+13.00,+16.00,-1.00,+5.00,+5.00,-2.00,+2.00,+15.00,+87.00,+11.00,+18.00
+4.00,-13.00,-6.00,-1.00,-1.00,-5.00,-16.00,-4.00,-3.00,+5.00,+0.00,+0.00,-11.00,-35.00,+3.00,+13.00
-5.00,+0.00,-5.00,+0.00,+4.00,+15.00,+44.00,-1.00,+11.00,+3.00,+6.00,+0.00,+6.00,+61.00,+8.00,+3.00
-4.00,+13.00,+9.00,+5.00,+0.00,+3.00,+8.00,+4.00,-12.00,-16.00,-10.00,-6.00,-14.00,-36.00,-12.00,-20.00
+16.00,+28.00,-8.00,-7.00,-5.00,-10.00,+9.00,+3.00,-13.00,+5.00,-5.00,-4.00,-1.00,-11.00,+0.00,+7.00
-13.00,-22.00,-3.00,-1.00,+0.00,-1.00,+18.00,-2.00,-19.00,-11.00,+0.00,-2.00,-15.00,-14.00,-8.00,-18.00
-2.00,-15.00,+1.00,+1.00,+2.00,+2.00,-10.00,+1.00,+34.00,+13.00,-3.00,-5.00,-2.00,-23.00,+0.00,+18.00
+2.00,-9.00,+2.00,+2.00,+1.00,-5.00,+9.00,-6.00,-4.00,-8.00,+1.00,+4.00,+1.00,+24.00,-3.00,-5.00
+6.00,-8.00,+5.00,+3.00,+2.00,+2.00,-11.00,+1.00,+6.00,+11.00,+3.00,-3.00,-8.00,-21.00,+4.00,+15.00
-25.00,+2.00,-7.00,-10.00,-9.00,-10.00,-14.00,-13.00,+2.00,-2.00,-1.00,-3.00,-11.00,-17.00,-6.00,-8.00
+4.00,+6.00,+0.00,+5.00,+4.00,-5.00,-20.00,+0.00,-15.00,-3.00,+1.00,+1.00,+14.00,+42.00,-9.00,-18.00
+22.00,-5.00,+1.00,+2.00,+3.00,+9.00,+17.00,+6.00,-10.00,-16.00,-5.00,-5.00,-2.00,+9.00,-3.00,-1.00
+9.00,+46.00,+7.00,+4.00,+0.00,-1.00,+9.00,-4.00,-18.00,-6.00,-3.00,+0.00,-3.00,+18.00,-3.00,-26.00
+7.00,-12.00,+1.00,-2.00,+2.00,+2.00,-4.00,+8.00,+5.00,-1.00,-5.00,-3.00,-7.00,-73.00,-11.00,-2.00
-22.00,-16.00,-13.00,-1.00,-6.00,-15.00,-4.00,-7.00,+32.00,+13.00,+1.00,-4.00,-3.00,+29.00,+22.00,+63.00
-1.00,+22.00,+6.00,+4.00,+5.00,+9.00,-3.00,+1.00,+16.00,+4.00,+1.00,+1.00,+5.00,-7.00,+3.00,+3.00
+26.00,-11.00,-2.00,-1.00,-1.00,-6.00,-30.00,-1.00,-38.00,-12.00,-1.00,-3.00,-12.00,-65.00,-18.00,-37.00
-15.00,-21.00,-9.00,-6.00,-1.00,+6.00,+30.00,-2.00,-24.00,-1.00,-4.00,-2.00,+9.00,+32.00,-6.00,-3.00
+23.00,+24.00,+8.00,+1.00,+2.00,-3.00,+8.00,+3.00,+7.00,-14.00,-3.00,-6.00,-9.00,+2.00,+9.00,+6.00
-24.00,-7.00,-9.00,-3.00,-5.00,-17.00,-54.00,-3.00,+29.00,+10.00,+6.00,+5.00,+8.00,-45.00,-2.00,+9.00
-6.00,-27.00,-3.00,+1.00,+2.00,+13.00,+44.00,-5.00,-2.00,-9.00,-7.00,-6.00,-13.00,-50.00,-10.00,-9.00
-1.00,+13.00,+3.00,+1.00,-1.00,+1.00,-10.00,+2.00,-24.00,+9.00,-3.00,-4.00,+1.00,+1.00,+4.00,-25.00
+5.00,-13.00,-1.00,+0.00,+1.00,+10.00,+41.00,-6.00,-11.00,-10.00,+0.00,+1.00,-5.00,-10.00,-8.00,-6.00
+17.00,+14.00,-1.00,+1.00,+4.00,-1.00,-15.00,-6.00,+69.00,+16.00,+7.00,+2.00,+3.00,+11.00,+5.00,+31.00
+14.00,-22.00,+3.00,-4.00,-5.00,-9.00,-28.00,+7.00,-56.00,-26.00,+2.00,+2.00,+4.00,+10.00,+4.00,-10.00
-31.00,-7.00,-7.00,-2.00,-1.00,-6.00,-1.00,-16.00,+44.00,+12.00,+2.00,-4.00,-8.00,-9.00,+2.00,+21.00
-28.00,+12.00,+7.00,+1.00,-3.00,-7.00,-28.00,+9.00,-33.00,-10.00,-12.00,-4.00,+15.00,+3.00,-17.00,-52.00
+83.00,+1.00,+1.00,+4.00,-2.00,-3.00,-5.00,+18.00,-14.00,-4.00,-7.00,-6.00,-9.00,-18.00,-4.00,+7.00
+11.00,+9.00,+4.00,+2.00,+2.00,+10.00,+41.00,+14.00,-17.00,+7.00,-5.00,-8.00,-7.00,-19.00,-4.00,-10.00
+29.00,+15.00,-6.00,-5.00,-3.00,+4.00,+4.00,+3.00,+52.00,+11.00,+3.00,+1.00,+17.00,+95.00,+21.00,+37.00
-7.00,-42.00,-14.00,-7.00,-5.00,-11.00,-12.00,-7.00,-36.00,-9.00,+0.00,+4.00,+0.00,-51.00,-3.00,+11.00
-35.00,-13.00,+1.00,+2.00,+4.00,+15.00,+69.00,-7.00,-30.00,-18.00,-9.00,-8.00,-14.00,-21.00,-15.00,-47.00
-41.00,-16.00,-3.00,+1.00,+2.00,+1.00,-31.00,+7.00,+48.00,+30.00,+10.00,+6.00,+13.00,+7.00,+19.00,+54.00
+10.00,-15.00,-9.00,-3.00,-6.00,-7.00,-30.00,-17.00,-39.00,-13.00,-1.00,+2.00,-5.00,-8.00,-7.00,+1.00
-9.00,+41.00,+14.00,+3.00,+2.00,-1.00,-10.00,+2.00,+38.00,-4.00,+0.00,-5.00,-13.00,-20.00,-6.00,+8.00
-27.00,+4.00,+2.00,+1.00,+0.00,+2.00,+31.00,-1.00,-53.00,-14.00,-8.00,+0.00,+10.00,+23.00,-18.00,-67.00
-16.00,-11.00,-9.00,-2.00,-5.00,-10.00,-14.00,-11.00,-7.00,-8.00,-1.00,+4.00,+2.00,+36.00,+26.00,+45.00
-21.00,-7.00,+1.00,+0.00,+5.00,+10.00,+12.00,+9.00,+41.00,+21.00,+12.00,+10.00,+6.00,-17.00,+8.00,+28.00
+12.00,-36.00,-14.00,-9.00,-8.00,-19.00,-42.00,-9.00,-36.00,+0.00,-1.00,+4.00,-2.00,-18.00,-13.00,-42.00
+9.00,+20.00,+6.00,+0.00,+2.00,+11.00,+45.00,+1.00,+51.00,+6.00,+10.00,+5.00,-2.00,-13.00,+15.00,+47.00
-34.00,-15.00,+6.00,+4.00,+3.00,-3.00,-3.00,-3.00,-7.00,-2.00,+1.00,+3.00,-2.00,-9.00,-21.00,-32.00
+40.00,+27.00,+16.00,+4.00,-2.00,-8.00,-33.00,-3.00,+12.00,-2.00,-2.00,-3.00,-2.00,+19.00,-3.00,-8.00
+30.00,+2.00,-1.00,+5.00,+6.00,+18.00,+60.00,+15.00,+9.00,+2.00,+8.00,+4.00,+13.00,-1.00,+11.00,+4.00
-1.00,+4.00,-1.00,+2.00,+2.00,+0.00,-24.00,+2.00,-58.00,-14.00,-4.00,+0.00,-4.00,-3.00,-9.00,-50.00
+10.00,-8.00,-1.00,+0.00,-1.00,+6.00,+51.00,-12.00,+11.00,+1.00,-7.00,-5.00,+1.00,+62.00,+1.00,+15.00
-93.00,-54.00,-24.00,-14.00,-13.00,-10.00,-45.00,-14.00,+15.00,-1.00,+5.00,+6.00,+7.00,-7.00,+8.00,+31.00
+58.00,+45.00,+17.00,+6.00,+1.00,-3.00,-9.00,+15.00,+6.00,+22.00,+1.00,-7.00,-21.00,-62.00,-9.00,-1.00
-5.00,+13.00,-1.00,-2.00,+0.00,-2.00,+8.00,+1.00,-6.00,-4.00,+4.00,+3.00,+13.00,+51.00,+4.00,-7.00
+21.00,-11.00,-19.00,-14.00,-15.00,-15.00,-37.00,-9.00,-30.00,+1.00,-6.00,-11.00,-13.00,+3.00,-12.00,-15.00
-3.00,-2.00,+5.00,+5.00,+3.00,-8.00,+2.00,+16.00,-40.00,-7.00,-4.00,-1.00,+4.00,+3.00,-17.00,-29.00
+42.00,+21.00,+9.00,+1.00,+0.00,+13.00,+6.00,+3.00,+25.00,+4.00,-2.00,-6.00,-7.00,-13.00,-3.00,-5.00
+32.00,-8.00,-6.00,-3.00,-5.00,-13.00,-35.00,-1.00,-3.00,-1.00,+2.00,+4.00,-4.00,-9.00,+2.00,+11.00
-34.00,-1.00,+3.00,-2.00,-1.00,-7.00,-1.00,-19.00,+8.00,-14.00,+1.00,+7.00,+14.00,+33.00,+7.00,+2.00
-43.00,-28.00,-18.00,-11.00,-14.00,-19.00,-5.00,-2.00,-7.00,+0.00,-6.00,-9.00,+1.00,+75.00,+1.00,-17.00
-33.00,-37.00,-6.00,+0.00,-2.00,-9.00,-39.00,-7.00,-11.00,+1.00,+2.00,+4.00,-12.00,-32.00,-7.00,-3.00
+55.00,+4.00,+3.00,+1.00,-1.00,+4.00,+12.00,+13.00,+36.00,+18.00,+4.00,+5.00,+9.00,+48.00,+18.00,+41.00
-34.00,-33.00,-12.00,-3.00,+3.00,+7.00,+21.00,-3.00,+34.00,+11.00,+0.00,-4.00,+1.00,-3.00,+11.00,+24.00
+45.00,+82.00,+26.00,+9.00,+8.00,+0.00,-6.00,+20.00,-25.00,-14.00,-10.00,-7.00,-3.00,-30.00,-5.00,-21.00
-8.00,-4.00,-2.00,+2.00,+4.00,+28.00,+83.00,-2.00,-27.00,-10.00,-2.00,+2.00,-5.00,-10.00,-1.00,+10.00
-35.00,-23.00,-9.00,-3.00,-3.00,+0.00,-14.00,-4.00,+11.00,+8.00,+5.00,+5.00,-7.00,-29.00,+9.00,+23.00
+18.00,+43.00,+13.00,+1.00,-4.00,-15.00,-29.00,-2.00,+31.00,+18.00,+5.00,+7.00,+24.00,+67.00,+11.00,-2.00
+49.00,-13.00,-8.00,-9.00,-4.00,+4.00,-14.00,-5.00,-17.00,-9.00,-2.00,+1.00,-1.00,-5.00,-5.00,-16.00
+0.00,+16.00,+11.00,-2.00,-2.00,+5.00,+77.00,+10.00,+1.00,+8.00,+0.00,-3.00,-1.00,-5.00,+3.00,+5.00
-25.00,+0.00,-2.00,-4.00,-5.00,-17.00,-46.00,-16.00,+2.00,+1.00,-1.00,-1.00,+1.00,-27.00,-3.00,+16.00
-13.00,-19.00,-10.00,+1.00,+6.00,+20.00,+18.00,-2.00,-7.00,-18.00,-10.00,-8.00,-21.00,-18.00,-16.00,-21.00
+40.00,+4.00,+3.00,-2.00,-3.00,+4.00,+15.00,+3.00,+24.00,+7.00,-1.00,-3.00,+2.00,-18.00,+19.00,+26.00
-35.00,+3.00,+2.00,+2.00,+1.00,-1.00,-28.00,+3.00,-4.00,-9.00,-2.00,+6.00,+5.00,+3.00,-1.00,-12.00
-15.00,+16.00,-6.00,-4.00,-5.00,-12.00,-19.00,-12.00,+3.00,-16.00,-6.00,-10.00,-6.00,+7.00,+8.00,+17.00
+19.00,+3.00,-5.00,-3.00,-3.00,-11.00,-28.00,-2.00,+32.00,+29.00,+1.00,-4.00,+11.00,+15.00,+2.00,+20.00
+34.00,-9.00,-3.00,-6.00,-6.00,+1.00,+1.00,-4.00,-90.00,-38.00,-4.00,-2.00,-1.00,-8.00,-10.00,-21.00
-22.00,-54.00,-19.00,-7.00,-1.00,-1.00,-27.00,-10.00,+94.00,+19.00,+2.00,-3.00,-5.00,-9.00,+2.00,-13.00
-33.00,+13.00,+7.00,-3.00,-7.00,-11.00,+2.00,-4.00,-43.00,-5.00,-10.00,-6.00,+2.00,+19.00,-11.00,-13.00
-25.00,-14.00,+7.00,+5.00,+8.00,+9.00,+11.00,+5.00,+3.00,-2.00,-1.00,-2.00,-7.00,-43.00,-1.00,-5.00
-45.00,-13.00,-3.00,+3.00,+3.00,+2.00,+9.00,-3.00,+18.00,-4.00,-2.00,-3.00,-2.00,-19.00,-5.00,-7.00
-5.00,+1.00,+7.00,+0.00,-1.00,-10.00,-21.00,+5.00,-69.00,-15.00,-6.00,-5.00,+8.00,+64.00,-6.00,-10.00
-22.00,-21.00,-16.00,-9.00,-2.00,+4.00,+10.00,-14.00,-13.00,-17.00,-7.00,-3.00,+9.00,-15.00,+25.00,+10.00
+0.00,+18.00,+7.00,+0.00,-5.00,-8.00,-12.00,+16.00,-2.00,-8.00,-4.00,-1.00,-8.00,-29.00,-1.00,-9.00
+2.00,+30.00,+15.00,+11.00,+10.00,+21.00,+36.00,+3.00,-23.00,-6.00,-2.00,+0.00,-10.00,-43.00,-9.00,-26.00
+1.00,-22.00,-15.00,-4.00,-1.00,-12.00,-14.00,-10.00,-34.00,-13.00,-5.00,-2.00,+1.00,+24.00,-3.00,-11.00
+25.00,+38.00,+19.00,+6.00,+4.00,-2.00,-41.00,+12.00,+51.00,+20.00,+4.00,-1.00,+1.00,+32.00,+3.00,+14.00
+9.00,-31.00,-8.00,+2.00,+2.00,+2.00,+16.00,-3.00,-11.00,+2.00,-4.00,-2.00,-9.00,-34.00,-11.00,-12.00
-23.00,-4.00,-4.00,-5.00,+1.00,-4.00,+1.00,+4.00,-31.00,-20.00,+4.00,+3.00,+5.00,+34.00,+2.00,+7.00
+5.00,-2.00,-10.00,-6.00,-6.00,-12.00,+7.00,-1.00,+10.00,-2.00,-8.00,-5.00,-9.00,-47.00,-5.00,-3.00
-51.00,-30.00,-14.00,-4.00,-1.00,+7.00,-26.00,-13.00,-2.00,+10.00,+9.00,+11.00,+14.00,+77.00,+5.00,-5.00
+39.00,+18.00,+11.00,+8.00,+6.00,+12.00,+11.00,-1.00,+8.00,+9.00,+7.00,+1.00,-8.00,-69.00,+4.00,+1.00
+42.00,+20.00,+7.00,+2.00,+0.00,-1.00,-5.00,+6.00,+25.00,+7.00,-5.00,-4.00,-6.00,-8.00,-21.00,-16.00
-9.00,+11.00,+9.00,-1.00,-4.00,-11.00,-39.00,-8.00,-51.00,-21.00,-6.00,-5.00,-5.00,+2.00,-1.00,-4.00
+4.00,-11.00,+1.00,-1.00,+0.00,+1.00,-1.00,+0.00,-11.00,+3.00,-2.00,-3.00,-6.00,-1.00,-13.00,-7.00
-3.00,+3.00,+0.00,+2.00,-1.00,-5.00,-6.00,+2.00,-14.00,+15.00,+12.00,+10.00,+2.00,+9.00,+2.00,-19.00
+24.00,+2.00,-1.00,+7.00,+6.00,+4.00,+0.00,+2.00,+36.00,+6.00,-1.00,+1.00,+0.00,-3.00,+4.00,+18.00
-12.00,-17.00,-12.00,-4.00,+1.00,+12.00,+10.00,-6.00,-16.00,-3.00,+1.00,+2.00,-6.00,+8.00,+1.00,-9.00
-38.00,+13.00,+3.00,-4.00,-6.00,-16.00,-5.00,+16.00,-4.00,+0.00,+1.00,+0.00,+10.00,-25.00,+0.00,+5.00
-32.00,-8.00,-10.00,-8.00,-6.00,-10.00,-31.00,-8.00,-42.00,-21.00,-9.00,-7.00,-7.00,+2.00,-19.00,-33.00
+7.00,-17.00,-2.00,-2.00,-4.00,-4.00,+7.00,-7.00,+9.00,+3.00,-2.00,-5.00,-14.00,-14.00,-3.00,+18.00
+5.00,+9.00,+6.00,+4.00,+3.00,+13.00,+15.00,+5.00,+21.00,+9.00,+6.00,+4.00,+8.00,+26.00,+8.00,+26.00
+25.00,-14.00,-5.00,+4.00,+6.00,+13.00,+27.00,+5.00,+20.00,+1.00,-4.00,-7.00,-18.00,-30.00,-17.00,-22.00
-16.00,+3.00,-3.00,-10.00,-7.00,-1.00,+23.00,-5.00,-6.00,+0.00,-3.00,-1.00,+2.00,+25.00,+1.00,+12.00
-47.00,-35.00,-13.00,-3.00,-2.00,-8.00,+2.00,-10.00,-25.00,+1.00,-2.00,-1.00,+6.00,+18.00,+5.00,+12.00
+25.00,+45.00,+14.00,+7.00,+2.00,+4.00,-3.00,+7.00,+23.00,+9.00,+3.00,+0.00,-3.00,-60.00,-2.00,-7.00
-16.00,-24.00,-6.00,-7.00,-2.00,+3.00,+19.00,+0.00,-5.00,-7.00,-1.00,-1.00,+0.00,+12.00,-11.00,+7.00
-6.00,-13.00,-10.00,-8.00,-7.00,-15.00,-28.00,-12.00,+30.00,-6.00,-3.00,-3.00,+0.00,+14.00,-4.00,-9.00
-3.00,+6.00,-1.00,-4.00,-2.00,-3.00,-7.00,-4.00,-6.00,+8.00,+0.00,+0.00,-2.00,-8.00,+4.00,+7.00
-6.00,-14.00,-7.00,-4.00,-4.00,-8.00,-17.00,-7.00,+12.00,+5.00,-2.00,-3.00,-5.00,-10.00,-9.00,+5.00
-5.00,+19.00,+11.00,+8.00,+1.00,+14.00,+18.00,-8.00,-12.00,-8.00,-9.00,-6.00,-10.00,-51.00,-8.00,-17.00
+5.00,+19.00,+7.00,+3.00,+1.00,-3.00,-17.00,+7.00,-45.00,-21.00,-5.00,-4.00,-7.00,-18.00,-10.00,+12.00
-23.00,-24.00,-9.00,-4.00,-4.00,-15.00,-36.00,-9.00,+8.00,+1.00,-2.00,+1.00,+2.00,+6.00,-4.00,-27.00
-12.00,+23.00,+1.00,+1.00,+4.00,+10.00,+38.00,+7.00,+25.00,+5.00,+0.00,-4.00,-16.00,-25.00,+4.00,+27.00
-3.00,-40.00,-11.00,-8.00,-9.00,-13.00,-3.00,-15.00,-30.00,-4.00,+4.00,+4.00,-2.00,+11.00,-14.00,-31.00
+25.00,+12.00,+7.00,+4.00,+2.00,+5.00,-12.00,+10.00,-21.00,-16.00,-12.00,-8.00,-12.00,-46.00,-14.00,-12.00
-8.00,+12.00,+3.00,+0.00,+0.00,+5.00,+10.00,-5.00,+24.00,+7.00,-1.00,-3.00,-4.00,-20.00,-2.00,-5.00
+9.00,+8.00,+2.00,+0.00,-2.00,-8.00,-17.00,-1.00,-11.00,-5.00,-5.00,-3.00,+1.00,+34.00,+2.00,-2.00
+19.00,+23.00,+2.00,-1.00,+0.00,-8.00,-13.00,-2.00,+0.00,-1.00,-5.00,-5.00,-12.00,-63.00,-1.00,+10.00
-3.00,-20.00,-9.00,-5.00,-3.00,-3.00,-1.00,-3.00,-7.00,-1.00,+3.00,+4.00,+5.00,+30.00,+0.00,+1.00
-21.00,-8.00,-5.00,-5.00,-3.00,-5.00,+2.00,+0.00,+13.00,-7.00,-2.00,-1.00,+0.00,+29.00,-11.00,-3.00
+0.00,+31.00,+14.00,+5.00,+5.00,+3.00,-8.00,+1.00,-27.00,-10.00,-3.00,-2.00,+8.00,+0.00,-4.00,-31.00
-11.00,+0.00,+2.00,+5.00,+2.00,+4.00,+2.00,+1.00,+49.00,+31.00,+10.00,+4.00,+0.00,+6.00,+8.00,+17.00
+32.00,+20.00,+9.00,+1.00,+2.00,-3.00,-2.00,+4.00,+1.00,+4.00,+2.00,+1.00,+0.00,+5.00,+2.00,+0.00
-19.00,-2.00,-5.00,-2.00,+0.00,+12.00,+16.00,-12.00,-13.00,-14.00,+1.00,+5.00,+8.00,+20.00,+6.00,+5.00
+8.00,-14.00,+0.00,-4.00,-2.00,+0.00,-6.00,-9.00,+9.00,+7.00,+0.00,-3.00,-6.00,-37.00,-3.00,+7.00
+9.00,+17.00,+10.00,+8.00,+4.00,+3.00,-2.00,+19.00,-6.00,+0.00,-1.00,-5.00,+4.00,+50.00,-4.00,-3.00
-3.00,-11.00,-1.00,+1.00,+0.00,-7.00,+1.00,-4.00,+26.00,+6.00,+1.00,+0.00,+6.00,+12.00,+9.00,+12.00
+36.00,+41.00,+8.00,-1.00,+3.00,+6.00,+1.00,+4.00,-23.00,+0.00,-1.00,-4.00,-5.00,-42.00,-7.00,-13.00
-3.00,-6.00,-10.00,-6.00,-7.00,-14.00,-54.00,-10.00,-5.00,-10.00,-7.00,-5.00,-15.00,-12.00,-6.00,+7.00
+29.00,+8.00,+0.00,+0.00,-1.00,+9.00,+29.00,+1.00,+17.00,+13.00,+5.00,+4.00,+11.00,-3.00,+7.00,+10.00
-3.00,+5.00,-3.00,-3.00,-2.00,+3.00,-10.00,-3.00,-2.00,+2.00,+1.00,-2.00,-6.00,-31.00,-7.00,-14.00
-2.00,-13.00,+1.00,+2.00,+0.00,-6.00,-43.00,+4.00,+1.00,+8.00,+0.00,+1.00,-4.00,-33.00,-1.00,+4.00
+2.00,+6.00,+0.00,+4.00,+3.00,-2.00,-23.00,+0.00,+27.00,-3.00,-3.00,+3.00,+7.00,+25.00,+0.00,-2.00
+4.00,-9.00,+4.00,-3.00,-2.00,-1.00,+6.00,-6.00,-44.00,-16.00,-6.00,-1.00,-10.00,-13.00,+3.00,-11.00
-22.00,-13.00,-10.00,-7.00,-5.00,+6.00,+25.00,-3.00,-14.00,-6.00,+0.00,+3.00,-3.00,-42.00,-6.00,+1.00
+3.00,+3.00,+2.00,+1.00,+1.00,-5.00,-2.00,+1.00,+32.00,+0.00,+1.00,+3.00,+5.00,+47.00,+16.00,+12.00
-16.00,-41.00,-12.00,-4.00,-5.00,-7.00,-4.00,-6.00,+22.00,+13.00,+4.00,+2.00,+0.00,-5.00,-4.00,+6.00
+12.00,+20.00,-4.00,-7.00,-3.00,-8.00,+12.00,+3.00,-22.00,-13.00,-6.00,-5.00,-9.00,-9.00,-4.00,-11.00
+10.00,+25.00,+19.00,+8.00,+4.00,+2.00,-22.00,+4.00,+19.00,+3.00,+1.00,-1.00,+7.00,+3.00,+5.00,+11.00
+2.00,+1.00,+4.00,+2.00,+0.00,+11.00,+50.00,+4.00,-20.00,+1.00,+2.00,-2.00,+2.00,+34.00,+2.00,-12.00
-7.00,-16.00,-11.00,-4.00,-3.00,-3.00,-5.00,+1.00,+20.00,+5.00,+2.00,+3.00,+8.00,+28.00,+7.00,+19.00
-27.00,-24.00,-8.00,+0.00,+3.00,+5.00,-9.00,-5.00,-1.00,-20.00,-5.00,-6.00,-12.00,-22.00,-5.00,-15.00
+9.00,+3.00,-2.00,-3.00,-4.00,+3.00,+41.00,+1.00,-22.00,+0.00,-1.00,-2.00,+2.00,+4.00,-8.00,-9.00
-15.00,-11.00,-7.00,-5.00,-7.00,-14.00,+1.00,+0.00,+11.00,+7.00,+3.00,+2.00,-3.00,+11.00,+5.00,+3.00
+19.00,+32.00,+9.00,+1.00,+0.00,+4.00,+4.00,+6.00,-8.00,-7.00,-1.00,+2.00,+4.00,+12.00,-1.00,-9.00
+12.00,+16.00,+3.00,+0.00,+1.00,-2.00,-20.00,-2.00,+1.00,-11.00,-7.00,-1.00,+9.00,-28.00,+5.00,+7.00
-11.00,-18.00,-4.00,+1.00,-4.00,-10.00,-13.00,-3.00,-13.00,-5.00,+1.00,+6.00,+9.00,+21.00,+15.00,+5.00
-2.00,-9.00,-3.00,-3.00,-3.00,-4.00,-8.00,-2.00,-17.00,+0.00,-2.00,-3.00,-2.00,+12.00,+0.00,-10.00
+6.00,+1.00,-1.00,+0.00,-1.00,+0.00,+31.00,+4.00,+22.00,+17.00,+2.00,-3.00,-2.00,-49.00,+1.00,+11.00
-9.00,-12.00,-7.00,-2.00,-1.00,+3.00,+11.00,-9.00,+42.00,+7.00,+2.00,-1.00,+13.00,+57.00,+2.00,+4.00
-25.00,-24.00,-11.00,-5.00,-5.00,-12.00,-15.00,-1.00,+23.00,+8.00,+3.00,+0.00,+2.00,+38.00,+8.00,+15.00
+26.00,+25.00,+16.00,+10.00,+11.00,+15.00,+44.00,+12.00,-8.00,-2.00,-5.00,+0.00,-5.00,-64.00,-2.00,-3.00
-12.00,-50.00,-13.00,-7.00,-5.00,-5.00,-13.00,-6.00,-25.00,-17.00,-4.00,-1.00,-2.00,+36.00,+2.00,-10.00
+10.00,+26.00,+1.00,-2.00,+1.00,-6.00,-8.00,+0.00,-19.00,-1.00,-4.00,-7.00,-4.00,-25.00,+0.00,-7.00
-10.00,+21.00,+9.00,+4.00,+0.00,+0.00,-26.00,-6.00,+23.00,-9.00,-2.00,-3.00,-2.00,+28.00,+0.00,-13.00
-13.00,-23.00,-9.00,-6.00,-7.00,-5.00,+13.00,-7.00,+20.00,+4.00,+0.00,-4.00,+1.00,+8.00,+0.00,+0.00
+3.00,+28.00,+10.00,+0.00,+6.00,+15.00,-19.00,+9.00,-13.00,-1.00,+1.00,+0.00,+3.00,-44.00,+1.00,+25.00
+11.00,-27.00,-12.00,-4.00,-7.00,-13.00,-11.00,+1.00,+9.00,+0.00,+2.00,+3.00,+5.00,+59.00,+6.00,+5.00
+21.00,+10.00,-4.00,+0.00,+3.00,+7.00,-13.00,+2.00,-14.00,+15.00,-1.00,-2.00,-7.00,-81.00,-4.00,+8.00
+6.00,+15.00,+9.00,+2.00,-2.00,+2.00,+1.00,+0.00,+9.00,-9.00,-5.00,-5.00,-7.00,+29.00,-10.00,-3.00
-12.00,-13.00,-1.00,+2.00,+0.00,-3.00,-13.00,-8.00,+10.00,+13.00,+4.00,+1.00,-9.00,-40.00,-6.00,+2.00
-18.00,-20.00,-9.00,-7.00,-3.00,-1.00,-1.00,-8.00,-7.00,-10.00,-11.00,-5.00,+1.00,+81.00,-3.00,+9.00
+17.00,+11.00,+6.00,-1.00,+0.00,-6.00,+16.00,+9.00,+8.00,-12.00,+0.00,+0.00,+2.00,-4.00,-2.00,-33.00
+5.00,+2.00,-2.00,+0.00,+3.00,+14.00,+25.00,+7.00,-15.00,-14.00,-9.00,-7.00,-8.00,-17.00,-11.00,+1.00
-20.00,-13.00,-10.00,-8.00,-9.00,-7.00,+8.00,-8.00,+1.00,+1.00,-1.00,-1.00,-7.00,-25.00,-1.00,-3.00
-2.00,-2.00,+6.00,+6.00,+2.00,-3.00,-13.00,+1.00,-20.00,-10.00,-6.00,-3.00,+0.00,+32.00,-9.00,-31.00
-10.00,-7.00,-5.00,+0.00,+1.00,-2.00,-5.00,-5.00,+3.00,+1.00,-4.00,-3.00,-6.00,+27.00,+2.00,+22.00
+13.00,+21.00,+3.00,-5.00,-6.00,-7.00,+32.00,+1.00,-33.00,-6.00,-1.00,-2.00,-1.00,-12.00,-9.00,-14.00
+2.00,+5.00,+2.00,+2.00,+4.00,+8.00,+20.00,-2.00,-4.00,-2.00,+1.00,-2.00,-1.00,+38.00,+3.00,-11.00
-34.00,-8.00,-1.00,+1.00,+1.00,+0.00,-9.00,+3.00,-9.00,+4.00,-1.00,-2.00,+1.00,-39.00,+3.00,+19.00
-16.00,-25.00,-13.00,-5.00,-5.00,-10.00,-44.00,-8.00,-17.00,-16.00,-9.00,-6.00,-10.00,+35.00,-10.00,-24.00
-18.00,-42.00,-14.00,-5.00,+0.00,-2.00,-67.00,-6.00,-22.00,-8.00,-5.00,-2.00,+5.00,-12.00,-5.00,-6.00
+13.00,+32.00,+18.00,+8.00,+8.00,+8.00,+13.00,+18.00,-3.00,+2.00,+1.00,-1.00,+4.00,+25.00,+1.00,+4.00
+11.00,+29.00,+9.00,+1.00,-1.00,+1.00,+14.00,+4.00,-13.00,+11.00,+3.00,+1.00,-9.00,-48.00,-2.00,-11.00
+14.00,+0.00,+0.00,+3.00,+5.00,+6.00,-8.00,+1.00,-4.00,-10.00,-1.00,+0.00,-2.00,+3.00,-1.00,-4.00
+4.00,-11.00,-13.00,-7.00,-5.00,-2.00,+0.00,-2.00,+25.00,+3.00,+5.00,+5.00,+7.00,-6.00,+7.00,+28.00
-12.00,+6.00,-5.00,-4.00,-7.00,-7.00,-14.00,-8.00,-11.00,-5.00,-6.00,-8.00,-2.00,-9.00,-4.00,-12.00
+7.00,-20.00,+2.00,+9.00,+7.00,+2.00,-15.00,+0.00,+6.00,+2.00,+1.00,-1.00,-6.00,-37.00,-4.00,-2.00
+5.00,+2.00,-3.00,-7.00,-2.00,+0.00,+33.00,+2.00,+30.00,+1.00,+0.00,-1.00,+2.00,+26.00,+4.00,+28.00
+0.00,-7.00,+4.00,+1.00,+2.00,-5.00,+4.00,+0.00,-56.00,-2.00,-1.00,+0.00,-5.00,-35.00,-12.00,-9.00
-10.00,+13.00,-1.00,+1.00,+3.00,+0.00,-13.00,-4.00,-10.00,+2.00,+1.00,+3.00,+6.00,+50.00,+13.00,+2.00
+3.00,+5.00,-2.00,-6.00,-4.00,+0.00,+5.00,-1.00,-25.00,-10.00,+4.00,+3.00,+10.00,+20.00,+1.00,-11.00
+12.00,+1.00,+1.00,+2.00,+1.00,+3.00,+28.00,+3.00,+5.00,+4.00,+0.00,-3.00,-4.00,-28.00,-2.00,+8.00
-1.00,+3.00,+2.00,+2.00,-1.00,-6.00,+1.00,+0.00,+28.00,+13.00,+6.00,+2.00,-9.00,-39.00,+4.00,+20.00
-5.00,+0.00,+0.00,-4.00,-4.00,-4.00,+4.00,-8.00,-23.00,-7.00,-3.00,-1.00,+16.00,+79.00,+0.00,-33.00
-22.00,-24.00,-7.00,-2.00,-1.00,+2.00,+13.00,+2.00,+5.00,-5.00,-3.00,+1.00,-10.00,-6.00,-4.00,+4.00
-2.00,+14.00,+6.00,+2.00,+4.00,+3.00,-11.00,-1.00,-28.00,-7.00,-7.00,-2.00,+0.00,-2.00,-3.00,-4.00
-7.00,-8.00,-6.00,-5.00,-7.00,-1.00,-16.00,-6.00,+98.00,+12.00,-3.00,-6.00,-6.00,-5.00,+0.00,-1.00
-18.00,-25.00,-10.00,-4.00,-1.00,+7.00,+29.00,+0.00,-5.00,+2.00,-1.00,-1.00,-9.00,-34.00,-7.00,-3.00
+0.00,-2.00,-4.00,-7.00,-6.00,-13.00,-28.00,-8.00,+1.00,+5.00,-2.00,+0.00,-4.00,-18.00,-1.00,+8.00
+27.00,+21.00,+10.00,+4.00,+3.00,+24.00,+47.00,+11.00,+14.00,+6.00,+2.00,-2.00,-4.00,-24.00,-1.00,-2.00
+4.00,+15.00,+4.00,+0.00,-1.00,-9.00,-15.00,+3.00,-11.00,-7.00,-5.00,-1.00,+2.00,+10.00,-10.00,-24.00
-17.00,-18.00,-6.00,-2.00,-1.00,-3.00,-10.00,-10.00,+9.00,-1.00,+0.00,-1.00,-1.00,-21.00,-3.00,-1.00
-3.00,-11.00,-7.00,-2.00,-3.00,+0.00,+15.00,-2.00,-1.00,-1.00,+0.00,-3.00,-4.00,-3.00,-6.00,-3.00
-1.00,+19.00,+5.00,-6.00,+1.00,+0.00,+1.00,-1.00,-26.00,-3.00,-1.00,+2.00,+4.00,+25.00,+4.00,-6.00
-21.00,-24.00,-7.00,+0.00,-3.00,-5.00,-41.00,-6.00,-16.00,+4.00,+0.00,-3.00,-7.00,+40.00,-2.00,-6.00
+47.00,+15.00,-1.00,+2.00,+1.00,-9.00,-13.00,+5.00,+24.00,-3.00,+0.00,-1.00,-8.00,-22.00,-6.00,-6.00
-5.00,-1.00,+7.00,+3.00,+3.00,+12.00,+13.00,+6.00,-19.00,-8.00,-1.00,+0.00,+6.00,+11.00,+12.00,+9.00
+10.00,-8.00,+10.00,+7.00,+2.00,-4.00,-15.00,+1.00,+20.00,+3.00,+0.00,-3.00,-3.00,+5.00,-10.00,+2.00
-3.00,+12.00,-2.00,-1.00,+3.00,+0.00,-7.00,-2.00,-15.00,-5.00,-1.00,-2.00,+0.00,-10.00,+2.00,-2.00
-4.00,-2.00,+3.00,+3.00,+2.00,-4.00,-1.00,+5.00,+17.00,-5.00,-8.00,-4.00,-5.00,+3.00,-2.00,-5.00
-8.00,-10.00,-8.00,-5.00,-2.00,+3.00,-8.00,-6.00,-4.00,-1.00,+0.00,+0.00,+5.00,+17.00,+3.00,-2.00
-25.00,-27.00,-14.00,-10.00,-8.00,-10.00,-11.00,-7.00,+3.00,+6.00,+2.00,+3.00,+3.00,+14.00,+1.00,+10.00
+8.00,+19.00,+9.00,+1.00,-1.00,+1.00,+3.00,-1.00,+52.00,-3.00,+0.00,+3.00,+6.00,+11.00,+6.00,+3.00
-6.00,-11.00,-3.00,+0.00,+3.00,+1.00,+15.00,+5.00,-17.00,-11.00,-6.00,-2.00,-8.00,-42.00,-5.00,+5.00
+30.00,+20.00,+4.00,+1.00,-1.00,-6.00,-24.00,+2.00,-9.00,-2.00,-1.00,-1.00,-9.00,-45.00,-6.00,-8.00
-35.00,-19.00,+1.00,+6.00,+2.00,+11.00,+14.00,+2.00,-4.00,+0.00,+3.00,+1.00,+10.00,+51.00,+3.00,-5.00
-9.00,+15.00,+6.00,+3.00,+1.00,-2.00,+5.00,+1.00,+9.00,+3.00,+0.00,+0.00,+1.00,-10.00,-2.00,+1.00
-10.00,-2.00,-3.00,-1.00,-1.00,+0.00,-8.00,-4.00,+10.00,+6.00,+3.00,-1.00,+1.00,+3.00,+0.00,+6.00
-14.00,-4.00,-7.00,-4.00,-2.00,+1.00,+10.00,-3.00,+0.00,+13.00,+1.00,-2.00,-12.00,-11.00,-6.00,+3.00
-3.00,-10.00,-2.00,-3.00,-5.00,-5.00,+4.00,-6.00,+2.00,-9.00,-2.00,+1.00,+7.00,+32.00,-1.00,+0.00
+13.00,+18.00,+3.00,+4.00,+2.00,-4.00,-27.00,+4.00,-16.00,+4.00,-1.00,+1.00,-3.00,-21.00,+4.00,-5.00
-8.00,-5.00,+3.00,-3.00,+0.00,+5.00,+5.00,+0.00,-19.00,-22.00,-7.00,-3.00,+0.00,-9.00,-9.00,-15.00
-8.00,+8.00,+0.00,-2.00,-5.00,-5.00,+12.00,-3.00,+20.00,+8.00,+1.00,-2.00,-3.00,+0.00,+0.00,+5.00
+4.00,-6.00,-10.00,-2.00,-2.00,-3.00,-11.00,-3.00,-25.00,-2.00,+3.00,-7.00,-5.00,-11.00,+1.00,+2.00
-2.00,-7.00,-6.00,-3.00,-2.00,+2.00,+10.00,-3.00,+11.00,+7.00,-2.00,+1.00,+2.00,-6.00,-3.00,+2.00
-2.00,+2.00,-1.00,-1.00,+0.00,-4.00,-6.00,-5.00,-7.00,+0.00,-2.00,-1.00,+1.00,+9.00,-2.00,+3.00
+3.00,-4.00,-3.00,-1.00,+1.00,+5.00,+6.00,+1.00,-11.00,-8.00,-4.00,+0.00,-5.00,-23.00,-6.00,-5.00
-26.00,+14.00,+4.00,+5.00,+4.00,+1.00,+18.00,+1.00,+36.00,+3.00,-2.00,+1.00,-6.00,-72.00,-2.00,-9.00
-20.00,+7.00,+2.00,-1.00,+0.00,+6.00,+12.00,+0.00,-9.00,-4.00,+1.00,+2.00,+12.00,+50.00,+2.00,+6.00
-20.00,-4.00,+0.00,+0.00,+1.00,-6.00,-19.00,-2.00,-15.00,-6.00,+0.00,-1.00,+2.00,-2.00,-3.00,-7.00
+13.00,-6.00,-9.00,-7.00,-5.00,-7.00,+11.00,-1.00,+12.00,-2.00,+1.00,+0.00,+0.00,-3.00,+5.00,+9.00
+7.00,-15.00,-4.00,-9.00,-6.00,-6.00,-22.00,-10.00,-2.00,-5.00,-6.00,-5.00,-7.00,-8.00,-3.00,-8.00
+31.00,+31.00,+10.00,+3.00,+2.00,+2.00,+44.00,+7.00,-17.00,+2.00,+2.00,+1.00,-6.00,-4.00,+2.00,-8.00
+3.00,+0.00,-3.00,-2.00,+0.00,+1.00,+8.00,+0.00,+17.00,+4.00,+1.00,+0.00,+2.00,-2.00,+2.00,+11.00
-11.00,-1.00,+4.00,+3.00,+3.00,-2.00,-28.00,-1.00,-6.00,-2.00,-1.00,-4.00,+3.00,+11.00,-3.00,-9.00
+12.00,-4.00,-4.00,+3.00,-8.00,-4.00,-2.00,-1.00,-18.00,+0.00,-1.00,+2.00,-2.00,+15.00,-2.00,-5.00
+10.00,-18.00,-10.00,-7.00,-6.00,-8.00,-18.00,-8.00,-11.00,-2.00,+3.00,+8.00,+5.00,+0.00,-2.00,-4.00
+30.00,+14.00,+4.00,+4.00,+2.00,+0.00,-27.00,+0.00,-3.00,+4.00,-1.00,-10.00,-11.00,-16.00,+2.00,+3.00
+4.00,-8.00,-5.00,+0.00,+4.00,+4.00,+26.00,-1.00,-17.00,-17.00,-11.00,-7.00,+12.00,+92.00,+3.00,-9.00
+3.00,+0.00,-5.00,-5.00,-2.00,-2.00,-4.00,-4.00,+13.00,+2.00,+0.00,-3.00,-1.00,-15.00,-6.00,+4.00
+22.00,-2.00,+7.00,+4.00,+2.00,+3.00,-12.00,+4.00,-13.00,-9.00,-7.00,-5.00,-7.00,-22.00,-4.00,-8.00
+1.00,-10.00,-1.00,-2.00,+6.00,+0.00,+4.00,-2.00,-20.00,-2.00,+6.00,+9.00,+10.00,+23.00,+6.00,+6.00
-9.00,+10.00,+4.00,+5.00,-3.00,-2.00,+2.00,+1.00,+24.00,+10.00,+6.00,+6.00,-2.00,-19.00,+5.00,+15.00
-51.00,+29.00,+10.00,+4.00,+5.00,-4.00,-7.00,-2.00,-15.00,+0.00,-2.00,+0.00,-2.00,-13.00,-3.00,-7.00
-71.00,-7.00,-2.00,+3.00,-5.00,-1.00,-4.00,+0.00,+22.00,+2.00,-4.00,-4.00,-1.00,+24.00,+0.00,+5.00
-48.00,-8.00,-4.00,-4.00,+0.00,+3.00,+26.00,-2.00,+11.00,+4.00,-1.00,+2.00,-3.00,-28.00,-2.00,-2.00
-36.00,+6.00,+6.00,+3.00,+0.00,+9.00,+0.00,+1.00,-6.00,-2.00,+2.00,-3.00,-1.00,+7.00,-4.00,-8.00
-2.00,-7.00,-11.00,-19.00,-18.00,-6.00,-8.00,+1.00,-15.00,+4.00,+5.00,+4.00,+10.00,-6.00,+7.00,+8.00
-1.00,-19.00,-14.00,-9.00,+7.00,+6.00,+18.00,-7.00,-2.00,-1.00,-1.00,-6.00,-4.00,-20.00,-2.00,+1.00
+18.00,+2.00,-2.00,+3.00,-14.00,+4.00,+19.00,-3.00,-22.00,+5.00,-4.00,-2.00,-1.00,+14.00,-4.00,-10.00
+44.00,-8.00,-2.00,+2.00,+0.00,-2.00,-9.00,-1.00,-11.00,-12.00,-4.00,+2.00,+1.00,-12.00,-3.00,+2.00
+62.00,+20.00,+11.00,+6.00,+9.00,+12.00,+10.00,+7.00,+2.00,-2.00,+2.00,+3.00,-1.00,-1.00,+2.00,+0.00
+40.00,-2.00,-3.00,-1.00,+3.00,-8.00,-28.00,-3.00,+3.00,+1.00,-1.00,-6.00,+0.00,+5.00,+0.00,+0.00
+33.00,-7.00,-1.00,+1.00,-4.00,+8.00,+2.00,+1.00,-12.00,-3.00,-2.00,-4.00,-8.00,-37.00,-4.00,-6.00
+20.00,+6.00,+9.00,+11.00,+9.00,+2.00,+6.00,-2.00,+17.00,-2.00,+1.00,+0.00,+3.00,+8.00,-4.00,+2.00
+18.00,-11.00,+0.00,+4.00,+1.00,-6.00,-24.00,-4.00,-7.00,+6.00,-1.00,-2.00,-5.00,+1.00,+0.00,+0.00
+15.00,-5.00,-8.00,-16.00,-6.00,+4.00,+34.00,+0.00,+9.00,-4.00,-2.00,-1.00,+1.00,+7.00,+0.00,+6.00
+12.00,-6.00,-6.00,+0.00,-5.00,-11.00,-7.00,-4.00,-3.00,-1.00,-1.00,+1.00,-2.00,+1.00,-3.00,-4.00
-8.00,-14.00,-7.00,-10.00,-6.00,-6.00,-5.00,-5.00,+13.00,+6.00,+1.00,+3.00,+3.00,-12.00,-1.00,+2.00
+11.00,-4.00,+1.00,+2.00,+4.00,-1.00,+11.00,+1.00,-9.00,-4.00,-7.00,-8.00,-10.00,-5.00,-5.00,-4.00
+14.00,-4.00,+9.00,+8.00,+0.00,+0.00,-10.00,+3.00,+10.00,+12.00,+5.00,+2.00,-4.00,-29.00,+0.00,+8.00
+2.00,+14.00,+1.00,-2.00,+9.00,+3.00,-4.00,-2.00,+10.00,+12.00,+11.00,+9.00,+13.00,+48.00,+4.00,+4.00
-1.00,+0.00,-8.00,-12.00,-21.00,-11.00,-3.00,-3.00,-10.00,-18.00,-19.00,-14.00,-16.00,-27.00,-7.00,-5.00
-2.00,-10.00,-7.00,+2.00,+5.00,+2.00,+3.00,-2.00,-10.00,-8.00,-6.00,+4.00,+3.00,+7.00,-1.00,-8.00
-4.00,-9.00,-1.00,+3.00,+0.00,-6.00,-9.00,-3.00,-2.00,+2.00,+3.00,+11.00,+8.00,-1.00,+4.00,+6.00
+2.00,+3.00,+4.00,+0.00,+5.00,-2.00,-4.00,+1.00,+2.00,-7.00,+4.00,-19.00,-10.00,+1.00,-3.00,+1.00
-9.00,-15.00,-2.00,-3.00,+1.00,+0.00,-1.00,+0.00,+0.00,+3.00,+2.00,+0.00,+0.00,-5.00,+1.00,+0.00
+3.00,+12.00,+1.00,+1.00,-1.00,-5.00,+2.00,-1.00,+1.00,-1.00,-7.00,-6.00,-2.00,-2.00,-4.00,-3.00
+1.00,+5.00,+4.00,+5.00,+4.00,+10.00,-2.00,+2.00,-10.00,-6.00,-3.00,-1.00,-3.00,+0.00,-2.00,-5.00
-2.00,-3.00,-4.00,-5.00,-8.00,-9.00,-9.00,+1.00,+1.00,-3.00,-1.00,+7.00,+6.00,+7.00,+2.00,+3.00
+0.00,-2.00,+3.00,+7.00,+17.00,+2.00,-4.00,-2.00,+3.00,+3.00,+3.00,+0.00,+1.00,+3.00,+0.00,-3.00
-2.00,-4.00,-4.00,-5.00,-17.00,+4.00,+12.00,+5.00,+17.00,+0.00,-1.00,-1.00,+2.00,-4.00,+2.00,+5.00
-7.00,-2.00,-3.00,-6.00,-3.00,-7.00,-14.00,-5.00,-13.00,-6.00,-2.00,+0.00,+0.00,+2.00,-3.00,-10.00
-9.00,-8.00,+0.00,+0.00,+3.00,-1.00,-4.00,-2.00,+1.00,-4.00,-5.00,-1.00,-2.00,+4.00,-2.00,+2.00
