-2.00,-2.00,+0.00,+1.00,+0.00,+0.00,+0.00,-5.00,+0.00,-3.00,+1.00,+0.00,-1.00,-1.00,-1.00,+2.00
-8.00,-4.00,+1.00,+0.00,-1.00,-1.00,-1.00,-4.00,+1.00,+1.00,+2.00,-1.00,-1.00,-1.00,-1.00,-1.00
-30.00,-7.00,-3.00,-4.00,-4.00,-3.00,-1.00,-5.00,-1.00,-4.00,+0.00,+1.00,+1.00,+0.00,-3.00,-2.00
+16.00,+1.00,-2.00,-1.00,+1.00,-1.00,+3.00,+10.00,-2.00,-9.00,-8.00,-1.00,-1.00,-1.00,+4.00,+5.00
-3.00,+2.00,+4.00,+1.00,-1.00,-1.00,-1.00,+2.00,+1.00,+2.00,+0.00,-1.00,+0.00,+1.00,+2.00,-5.00
+16.00,+4.00,-2.00,-1.00,+0.00,+1.00,+3.00,+6.00,-1.00,-3.00,-5.00,-3.00,-2.00,-1.00,+1.00,+1.00
+1.00,+3.00,+1.00,+0.00,-1.00,+0.00,-1.00,-1.00,+0.00,+3.00,-1.00,-1.00,-2.00,-2.00,+0.00,-4.00
+27.00,+3.00,+3.00,+0.00,+1.00,+2.00,+2.00,-1.00,+5.00,+6.00,+1.00,+4.00,+1.00,+0.00,-1.00,-1.00
-5.00,+0.00,+2.00,+0.00,-2.00,-1.00,-2.00,-5.00,-1.00,+2.00,-2.00,+2.00,+0.00,-6.00,-1.00,-3.00
-8.00,-3.00,-1.00,-1.00,-1.00,-3.00,-2.00,-3.00,-8.00,-11.00,-3.00,-11.00,-10.00,+0.00,-3.00,-5.00
+0.00,-5.00,-1.00,+0.00,+0.00,+1.00,-1.00,+2.00,+1.00,+1.00,+3.00,+1.00,+1.00,-1.00,-1.00,-3.00
+9.00,-1.00,-1.00,-1.00,-1.00,-1.00,-1.00,+0.00,+3.00,+7.00,+3.00,+3.00,+14.00,+5.00,-2.00,-3.00
+42.00,+5.00,-1.00,+0.00,+1.00,+0.00,+2.00,+16.00,+8.00,+1.00,-4.00,-15.00,-19.00,-9.00,-6.00,-1.00
-11.00,-1.00,-1.00,-2.00,-1.00,-3.00,-5.00,-11.00,+1.00,+3.00,+2.00,+9.00,+4.00,+1.00,+1.00,+1.00
-11.00,-1.00,+2.00,+1.00,-2.00,-2.00,-2.00,+4.00,-1.00,-16.00,-12.00,-18.00,-8.00,-4.00,-5.00,-6.00
+0.00,-4.00,-3.00,-1.00,+0.00,+0.00,+0.00,+1.00,-7.00,-2.00,-4.00,-9.00,-11.00,-4.00,-3.00,+2.00
+15.00,-1.00,-3.00,-1.00,-2.00,-3.00,-4.00,-9.00,-3.00,+12.00,+8.00,+19.00,+11.00,+8.00,+3.00,+6.00
-5.00,-8.00,-2.00,-2.00,+3.00,+5.00,-3.00,-2.00,-1.00,+4.00,-3.00,-3.00,+20.00,-2.00,+0.00,-1.00
+4.00,-19.00,-3.00,-1.00,+3.00,-2.00,+0.00,+0.00,+1.00,+2.00,-3.00,-4.00,-27.00,-1.00,-3.00,-3.00
+7.00,+44.00,+8.00,-1.00,-10.00,-1.00,-1.00,+1.00,-6.00,-15.00,-1.00,+0.00,-3.00,-2.00,-3.00,-6.00
-22.00,+3.00,-1.00,-2.00,-2.00,+0.00,-1.00,+0.00,-3.00,-9.00,-4.00,-9.00,-3.00,+0.00,+0.00,-1.00
+10.00,+3.00,+0.00,+2.00,+6.00,+5.00,+2.00,-4.00,-4.00,-8.00,-3.00,+0.00,-3.00,+1.00,+0.00,+2.00
+8.00,+7.00,+1.00,+1.00,-5.00,-7.00,-2.00,-1.00,-9.00,+3.00,-1.00,+9.00,+14.00,+0.00,-2.00,+0.00
-2.00,-15.00,-1.00,+1.00,+7.00,+10.00,+0.00,+0.00,+18.00,+3.00,-4.00,-6.00,-5.00,-3.00,-3.00,-3.00
-28.00,-33.00,-11.00,-4.00,-5.00,-8.00,-2.00,-11.00,-7.00,+2.00,+2.00,+1.00,+0.00,+2.00,+1.00,-3.00
+19.00,+14.00,+2.00,+2.00,+7.00,+3.00,+0.00,+4.00,-8.00,+1.00,+1.00,+10.00,+7.00,+0.00,+1.00,+2.00
+3.00,+10.00,+9.00,+4.00,+6.00,+10.00,+4.00,+5.00,-2.00,-7.00,-5.00,-6.00,+3.00,+1.00,+0.00,-2.00
-5.00,-7.00,-11.00,-8.00,-22.00,-13.00,-3.00,-4.00,+12.00,+7.00,+1.00,+3.00,+8.00,+2.00,+2.00,+2.00
-6.00,-1.00,+4.00,+4.00,+18.00,+3.00,+0.00,-1.00,+5.00,-3.00,-2.00,-4.00,-19.00,-1.00,-1.00,+0.00
-11.00,-27.00,-6.00,-2.00,-5.00,-4.00,+0.00,-2.00,+18.00,+10.00,+1.00,+1.00,+1.00,-9.00,-3.00,+3.00
-1.00,+11.00,-2.00,-6.00,-4.00,-3.00,-1.00,-2.00,-48.00,-26.00,-2.00,+8.00,-2.00,+0.00,-3.00,-10.00
+2.00,-7.00,+1.00,+1.00,+1.00,+1.00,+1.00,+4.00,+25.00,+1.00,-2.00,-13.00,+1.00,+2.00,+1.00,+2.00
+1.00,-7.00,-3.00,+1.00,-5.00,+0.00,-2.00,-7.00,+26.00,+14.00,+5.00,-2.00,-10.00,+0.00,+3.00,+10.00
-8.00,-10.00,-5.00,-8.00,-4.00,-5.00,-2.00,-4.00,-1.00,+2.00,+1.00,+15.00,+8.00,+1.00,-4.00,-8.00
+18.00,+28.00,+7.00,+5.00,+6.00,+4.00,+1.00,+1.00,+14.00,+5.00,+3.00,-4.00,+9.00,-4.00,-1.00,+9.00
+3.00,+8.00,+8.00,+6.00,+0.00,+0.00,+0.00,+3.00,-2.00,-2.00,+2.00,+5.00,-2.00,+1.00,-1.00,-2.00
-1.00,-7.00,-5.00,-3.00,-5.00,-3.00,-3.00,+1.00,-11.00,-2.00,-10.00,-14.00,-3.00,-5.00,-5.00,-2.00
-2.00,+7.00,+2.00,-3.00,-1.00,+8.00,+0.00,+2.00,+3.00,-6.00,-4.00,+0.00,-5.00,+3.00,+1.00,-3.00
-25.00,-37.00,-23.00,-9.00,-2.00,-8.00,-9.00,-10.00,-17.00,-11.00,-4.00,+3.00,+4.00,-2.00,+0.00,-2.00
+5.00,+4.00,-6.00,-2.00,+2.00,+4.00,+1.00,-5.00,-13.00,-11.00,-2.00,+3.00,-1.00,-1.00,-2.00,-4.00
+5.00,-7.00,+15.00,+9.00,-2.00,+6.00,+3.00,+4.00,+29.00,+17.00,+3.00,+7.00,+5.00,+2.00,+2.00,+7.00
+3.00,+10.00,+7.00,+7.00,+1.00,-4.00,+2.00,+2.00,+6.00,+5.00,+4.00,-5.00,-4.00,+2.00,+3.00,+4.00
-10.00,-8.00,-7.00,-9.00,+0.00,-4.00,-6.00,-7.00,+35.00,+24.00,+5.00,-1.00,+4.00,+5.00,+1.00,+3.00
+1.00,+5.00,-3.00,+10.00,+15.00,-1.00,+2.00,-1.00,-30.00,-13.00,-3.00,-3.00,-10.00,-16.00,-4.00,-1.00
+13.00,+3.00,+9.00,-8.00,-15.00,-3.00,+2.00,+6.00,-20.00,-15.00,+0.00,+8.00,+10.00,+6.00,-1.00,-6.00
-1.00,+12.00,-11.00,-11.00,-5.00,-2.00,-4.00,-1.00,-15.00,-14.00,-4.00,-9.00,-11.00,-1.00,-4.00,-7.00
-3.00,-6.00,-12.00,-4.00,-6.00,-5.00,+4.00,-2.00,+22.00,+19.00,+0.00,+3.00,+3.00,-1.00,+5.00,+9.00
-28.00,-52.00,-6.00,-3.00,-3.00,-4.00,-8.00,-9.00,-9.00,+14.00,+1.00,+0.00,-2.00,-22.00,-5.00,-1.00
+28.00,+56.00,+23.00,+9.00,+11.00,+7.00,-1.00,+8.00,-12.00,-19.00,-9.00,-5.00,-3.00,+8.00,-4.00,-7.00
-3.00,-12.00,+1.00,+3.00,+2.00,-6.00,-5.00,+1.00,-5.00,+1.00,+0.00,-5.00,+0.00,+2.00,+1.00,+5.00
+5.00,-9.00,-2.00,-1.00,-8.00,+3.00,+0.00,+1.00,+2.00,-25.00,-4.00,-4.00,-23.00,-5.00,+0.00,-5.00
-6.00,+2.00,+0.00,-5.00,-1.00,-2.00,-1.00,-9.00,-18.00,-10.00,-10.00,-9.00,-4.00,-7.00,-7.00,-8.00
-22.00,-5.00,-20.00,-5.00,-2.00,-3.00,-10.00,-9.00,+17.00,+19.00,+2.00,-2.00,-2.00,-36.00,+11.00,-3.00
+8.00,-3.00,+8.00,+2.00,-3.00,+1.00,+2.00,+6.00,+63.00,+37.00,+13.00,+4.00,+11.00,+72.00,+11.00,+15.00
+2.00,+6.00,+7.00,+7.00,+2.00,-1.00,+0.00,+1.00,+9.00,+14.00,+4.00,+1.00,+3.00,-57.00,-16.00,+7.00
-1.00,-12.00,-3.00,-8.00,+8.00,+6.00,-1.00,+1.00,-11.00,-15.00,-8.00,+1.00,-1.00,+66.00,+17.00,+0.00
-13.00,-29.00,-20.00,-8.00,-9.00,-11.00,-2.00,-8.00,+8.00,-23.00,+4.00,+5.00,+4.00,-32.00,+1.00,-7.00
-9.00,+5.00,-1.00,+0.00,+1.00,-3.00,+3.00,-7.00,-52.00,-19.00,-2.00,+1.00,+2.00,+27.00,+6.00,-7.00
+22.00,+39.00,+6.00,-8.00,-14.00,-4.00,+2.00,+4.00,+62.00,+41.00,+14.00,+5.00,+10.00,-15.00,+11.00,+19.00
-6.00,-45.00,-8.00,+0.00,-1.00,+9.00,+2.00,+2.00,-14.00,+16.00,+0.00,-10.00,-7.00,+53.00,-8.00,+9.00
+8.00,+45.00,+17.00,+1.00,+7.00,+0.00,+2.00,+5.00,-11.00,-21.00,-4.00,-3.00,-3.00,-36.00,+0.00,-3.00
-3.00,-15.00,-16.00,-6.00,-7.00,-3.00,-8.00,-4.00,-52.00,-23.00,-8.00,+7.00,+23.00,-4.00,-8.00,-10.00
-6.00,-14.00,+10.00,+7.00,+6.00,+0.00,-34.00,-6.00,-15.00,-7.00,-8.00,-2.00,-6.00,+10.00,-1.00,-8.00
+7.00,+19.00,+9.00,-2.00,+6.00,+8.00,+32.00,+9.00,+14.00,+7.00,+0.00,+1.00,+9.00,-18.00,-1.00,-1.00
-10.00,-30.00,-17.00,-4.00,-2.00,+1.00,+5.00,-6.00,-2.00,+10.00,-3.00,-4.00,-17.00,-1.00,-7.00,-3.00
+8.00,+35.00,+12.00,+3.00,+2.00,+3.00,+4.00,+3.00,-20.00,-17.00,-8.00,-6.00,-2.00,-28.00,-3.00,-6.00
+2.00,+5.00,+1.00,+2.00,+4.00,-2.00,-8.00,-4.00,-30.00,-9.00,-8.00,-1.00,-2.00,+3.00,-10.00,-5.00
+5.00,+21.00,-6.00,-8.00,-7.00,-7.00,-8.00,+0.00,-4.00,-3.00,-2.00,+0.00,+3.00,-18.00,+7.00,-12.00
-24.00,-31.00,-9.00,-3.00,-12.00,-4.00,+11.00,+4.00,-27.00,+8.00,+10.00,+7.00,+5.00,+8.00,-7.00,+4.00
-1.00,+54.00,-2.00,-7.00,+2.00,-7.00,-29.00,-6.00,+15.00,-3.00,-1.00,-2.00,-19.00,-58.00,-3.00,-6.00
-5.00,-11.00,+3.00,+3.00,+27.00,+1.00,-4.00,+1.00,+31.00,+6.00,+5.00,+2.00,+6.00,+77.00,+1.00,-3.00
+2.00,+15.00,+3.00,+2.00,-40.00,-25.00,+14.00,-2.00,-65.00,-32.00,-6.00,-1.00,-10.00,-49.00,-13.00,-9.00
+3.00,+16.00,-6.00,-8.00,+4.00,-1.00,+17.00,+2.00,-16.00,-5.00,-4.00,-4.00,+9.00,+23.00,+19.00,-2.00
-2.00,-24.00,-1.00,+2.00,-4.00,+5.00,-4.00,-3.00,+28.00,+36.00,+11.00,-5.00,-15.00,+4.00,-13.00,+9.00
-12.00,-21.00,-4.00,+0.00,+0.00,-6.00,-1.00,-3.00,-8.00,+2.00,+1.00,-3.00,+5.00,-7.00,+14.00,-8.00
+5.00,+3.00,-2.00,-7.00,+6.00,+8.00,+12.00,+1.00,+3.00,-4.00,+1.00,+4.00,+3.00,+18.00,+1.00,-1.00
-3.00,-23.00,-11.00,-3.00,-1.00,-6.00,-24.00,-5.00,+23.00,+6.00,-5.00,+1.00,+9.00,-14.00,-11.00,-1.00
-21.00,-27.00,+10.00,+9.00,-7.00,-7.00,+9.00,+0.00,-2.00,-9.00,-6.00,-5.00,-8.00,+25.00,-10.00,-4.00
+7.00,-44.00,-6.00,-6.00,-3.00,+5.00,+5.00,+3.00,-4.00,-10.00,-3.00,-1.00,+0.00,-2.00,+29.00,-10.00
+5.00,+12.00,+6.00,+2.00,+11.00,+6.00,+2.00,-1.00,-7.00,+1.00,+6.00,+4.00,-2.00,-27.00,-11.00,+8.00
+10.00,+5.00,-9.00,-4.00,-10.00,-1.00,-2.00,-1.00,+6.00,-2.00,-10.00,-3.00,+11.00,+35.00,+20.00,-3.00
-17.00,-44.00,-13.00,-6.00,+1.00,+1.00,+0.00,-6.00,+35.00,+20.00,+5.00,+0.00,+1.00,+17.00,+16.00,+5.00
+22.00,+65.00,+9.00,-1.00,-4.00,+4.00,+9.00,+6.00,-55.00,-25.00,-6.00,-5.00,-2.00,+18.00,+0.00,-13.00
-12.00,-42.00,+1.00,+5.00,+2.00,-5.00,+13.00,+6.00,+41.00,+4.00,-1.00,-3.00,-1.00,-24.00,+1.00,+0.00
-16.00,-44.00,-9.00,-1.00,+3.00,-1.00,-23.00,-19.00,-25.00,+5.00,+11.00,+2.00,-3.00,+2.00,-9.00,+12.00
+32.00,+81.00,+20.00,+8.00,+5.00,+2.00,+16.00,+9.00,+26.00,-9.00,-3.00,-1.00,+6.00,-1.00,+2.00,+0.00
-5.00,+3.00,-5.00,+1.00,-14.00,-15.00,+7.00,-2.00,-10.00,-4.00,-1.00,-4.00,-11.00,-32.00,-16.00,+1.00
-8.00,-11.00,-11.00,-11.00,-4.00,-6.00,-12.00,-9.00,+12.00,+18.00,+4.00,+1.00,+0.00,+22.00,+10.00,-4.00
-13.00,+11.00,+16.00,+4.00,+9.00,+12.00,+4.00,+1.00,-36.00,-27.00,-7.00,+0.00,+2.00,-1.00,-15.00,+7.00
+13.00,-6.00,-10.00,-1.00,-10.00,-11.00,-2.00,-4.00,-12.00,+21.00,+6.00,-4.00,-1.00,+2.00,+28.00,+0.00
-21.00,+5.00,-2.00,-3.00,-8.00,-3.00,-1.00,-7.00,+47.00,+22.00,-3.00,-3.00,-5.00,-35.00,-18.00,+3.00
+25.00,-11.00,+6.00,+8.00,+11.00,+7.00,-21.00,+5.00,+32.00,-21.00,+2.00,+3.00,+0.00,+18.00,-5.00,+3.00
-5.00,-2.00,-3.00,-7.00,-3.00,-3.00,-8.00,+2.00,-32.00,-6.00,-6.00,-4.00,+3.00,+53.00,-3.00,-11.00
+2.00,-13.00,-6.00,-6.00,-3.00,-5.00,-13.00,-6.00,-16.00,-35.00,-14.00,-2.00,-5.00,-22.00,-14.00,-8.00
-1.00,+21.00,+3.00,+1.00,-1.00,+3.00,+9.00,+6.00,+27.00,+28.00,+8.00,+5.00,+3.00,+0.00,+3.00,+14.00
-16.00,-7.00,-2.00,+2.00,+1.00,-7.00,-15.00,-6.00,-29.00,+10.00,-2.00,-4.00,+0.00,+1.00,-4.00,-13.00
+20.00,+7.00,+4.00,+6.00,+6.00,+7.00,+4.00,+8.00,-36.00,-21.00,-5.00,+2.00,+0.00,-36.00,-5.00,-13.00
-24.00,-16.00,-6.00,-7.00,-5.00,-1.00,+1.00,+2.00,+60.00,+7.00,-2.00,-3.00,-8.00,+17.00,+4.00,+23.00
-5.00,+4.00,-2.00,+2.00,+1.00,+6.00,-6.00,-1.00,-26.00,-26.00,-8.00,-5.00,+1.00,+21.00,-4.00,-12.00
+2.00,-11.00,+0.00,+1.00,+1.00,+0.00,-11.00,-3.00,+1.00,+7.00,+4.00,+4.00,-3.00,-57.00,-3.00,+18.00
-8.00,-12.00,-9.00,-9.00,-7.00,-5.00,+13.00,-5.00,-15.00,-9.00,-8.00,-5.00,-5.00,-7.00,-24.00,-33.00
+16.00,+12.00,+14.00,+10.00,+4.00,+6.00,+35.00,+5.00,-8.00,-22.00,-5.00,+0.00,-8.00,-10.00,+15.00,-2.00
+0.00,-34.00,-4.00,+0.00,-2.00,+0.00,-10.00,-2.00,+14.00,+21.00,+7.00,+5.00,+4.00,-4.00,+1.00,+6.00
+12.00,+45.00,+9.00,-3.00,+0.00,-1.00,-3.00,+5.00,+27.00,+23.00,+6.00,-4.00,-5.00,-19.00,-4.00,+11.00
-12.00,+20.00,-9.00,-5.00,-8.00,-8.00,-7.00,-7.00,-29.00,-20.00,-7.00,-2.00,+0.00,+39.00,+5.00,-12.00
+0.00,-43.00,+3.00,+6.00,+3.00,+2.00,-5.00,-3.00,-27.00,-9.00,-7.00,-3.00,+0.00,-5.00,-11.00,-11.00
+2.00,+2.00,-6.00,-5.00,-2.00,+1.00,-6.00,-3.00,+16.00,-3.00,-4.00,-6.00,-7.00,-14.00,-11.00,-7.00
-22.00,-23.00,-17.00,-8.00,-9.00,-5.00,-5.00,-4.00,-77.00,-15.00,-9.00,-2.00,+2.00,+14.00,-3.00,-11.00
+3.00,-14.00,+7.00,+5.00,+0.00,-3.00,+15.00,+1.00,+65.00,-2.00,+0.00,+0.00,+0.00,-2.00,+1.00,+14.00
+6.00,+40.00,+0.00,-5.00,+4.00,+7.00,+2.00,+4.00,+12.00,+16.00,+6.00,+0.00,-8.00,-79.00,-20.00,-4.00
+2.00,+8.00,+3.00,+1.00,-1.00,-3.00,+7.00,+2.00,-56.00,-22.00,-2.00,-2.00,+3.00,+67.00,+4.00,+9.00
+8.00,+25.00,+4.00,-1.00,-4.00,-4.00,+9.00,+0.00,-36.00,-27.00,-12.00,-8.00,-7.00,-16.00,-14.00,-23.00
-10.00,-16.00,+2.00,+9.00,+7.00,+14.00,-8.00,+0.00,+70.00,+28.00,+10.00,+2.00,+2.00,+8.00,+9.00,+25.00
-2.00,-21.00,-11.00,-6.00,-1.00,-6.00,-4.00,-3.00,+10.00,+25.00,+7.00,+4.00,+5.00,+36.00,+4.00,-13.00
-7.00,+31.00,+16.00,+6.00,+4.00,+8.00,+9.00,-5.00,-26.00,-22.00,-15.00,-10.00,-12.00,-72.00,-22.00,-3.00
+6.00,+20.00,-2.00,-2.00,+2.00,-7.00,-34.00,-1.00,+50.00,-4.00,+1.00,+4.00,+4.00,-5.00,-3.00,-8.00
+8.00,+16.00,+2.00,-5.00,-4.00,+4.00,+59.00,+6.00,+35.00,+41.00,+11.00,+2.00,-1.00,+17.00,+9.00,+18.00
-7.00,-12.00,-10.00,-1.00,-2.00,-1.00,-7.00,-5.00,-50.00,-34.00,-7.00,-1.00,+2.00,-4.00,-12.00,-15.00
+13.00,-10.00,+3.00,-1.00,-3.00,+2.00,+2.00,+6.00,+45.00,+29.00,+8.00,+4.00,+13.00,+73.00,+17.00,+21.00
-12.00,-16.00,+2.00,+5.00,+5.00,-4.00,-9.00,-1.00,-10.00,-2.00,-4.00,-5.00,-12.00,-4.00,+19.00,-2.00
+13.00,+18.00,+4.00,+3.00,+3.00,-1.00,-15.00,+7.00,+42.00,+15.00,+1.00,-4.00,+5.00,+30.00,+2.00,+3.00
-12.00,-15.00,-6.00,-9.00,-11.00,-9.00,-14.00,-8.00,-49.00,-16.00,-10.00,-7.00,-5.00,+27.00,-1.00,-1.00
-6.00,-29.00,-15.00,-9.00,-4.00,-1.00,+0.00,-2.00,+20.00,+5.00,+5.00,+5.00,+14.00,-32.00,-13.00,-9.00
+12.00,+2.00,+2.00,+3.00,-1.00,+1.00,+26.00,+2.00,-14.00,-10.00,-2.00,-1.00,-22.00,-14.00,+2.00,+1.00
+2.00,+47.00,-3.00,-2.00,+2.00,-8.00,-31.00,-9.00,+36.00,+14.00,+1.00,-3.00,-1.00,-4.00,-4.00,+17.00
+13.00,-26.00,+15.00,+5.00,+3.00,+9.00,+11.00,+10.00,-20.00,+7.00,-2.00,-5.00,-9.00,+8.00,-3.00,-7.00
+0.00,-26.00,-13.00,-9.00,-7.00,-8.00,-13.00,-2.00,-61.00,-52.00,-13.00,-4.00,-12.00,-53.00,-6.00,-8.00
-6.00,-6.00,+0.00,-2.00,+5.00,+19.00,+19.00,-1.00,+42.00,+17.00,+8.00,+3.00,+16.00,+75.00,+4.00,+5.00
-4.00,-11.00,-15.00,-4.00,-14.00,-11.00,-22.00,-8.00,-6.00,+16.00,+2.00,+0.00,-5.00,-15.00,-1.00,-8.00
+5.00,+64.00,+13.00,+1.00,-1.00,-2.00,-3.00,-2.00,-13.00,-23.00,-10.00,-1.00,+1.00,-26.00,-11.00,-9.00
-2.00,-28.00,+0.00,+3.00,-1.00,+2.00,+12.00,+5.00,-21.00,+8.00,+4.00,+2.00,-5.00,-13.00,+4.00,+4.00
+1.00,+27.00,-3.00,-6.00,-2.00,-1.00,+1.00,-3.00,+47.00,+22.00,+4.00,+4.00,+3.00,-9.00,-2.00,+17.00
-9.00,-31.00,+4.00,+0.00,+8.00,+16.00,+17.00,+4.00,-38.00,-16.00,-5.00,-5.00,-6.00,-13.00,-4.00,-6.00
-6.00,+2.00,-6.00,-2.00,+2.00,+2.00,+0.00,-7.00,+23.00,+5.00,-5.00,-2.00,+1.00,-3.00,-3.00,-2.00
+1.00,-33.00,-2.00,+3.00,+0.00,+0.00,+2.00,+3.00,-32.00,-31.00,-12.00,-5.00,-3.00,+16.00,+1.00,-12.00
+8.00,-10.00,-11.00,-8.00,-7.00,-7.00,-5.00,-3.00,+17.00,+21.00,+11.00,+1.00,+2.00,-3.00,+4.00,+14.00
+9.00,+57.00,+34.00,+11.00,+8.00,+2.00,-13.00,+7.00,-16.00,-8.00,-3.00,-3.00,+0.00,+2.00,+5.00,+10.00
-8.00,-21.00,-7.00,-2.00,-3.00,-2.00,-9.00,+0.00,-4.00,+9.00,+3.00,+1.00,+6.00,+9.00,+3.00,+5.00
-5.00,+15.00,-11.00,+1.00,+4.00,-5.00,-13.00,-6.00,+12.00,-11.00,-7.00,-4.00,-2.00,-45.00,-8.00,-12.00
+13.00,-5.00,-1.00,-5.00,-3.00,+4.00,+24.00,+3.00,-39.00,-14.00,-11.00,-4.00,+1.00,+70.00,+5.00,-6.00
+1.00,-14.00,-2.00,+0.00,-6.00,-4.00,-4.00,+1.00,+6.00,+3.00,+2.00,+0.00,-7.00,-36.00,-5.00,-3.00
-2.00,-16.00,+2.00,+6.00,+3.00,+1.00,+1.00,+0.00,-3.00,-10.00,-3.00,-2.00,-9.00,-21.00,-8.00,-4.00
-2.00,+5.00,-4.00,+0.00,-1.00,-1.00,+4.00,-2.00,-24.00,+10.00,+2.00,+2.00,+8.00,+40.00,+4.00,-6.00
-7.00,+14.00,-2.00,+0.00,-2.00,-10.00,-17.00,-4.00,+14.00,+6.00,+7.00,+4.00,+4.00,-22.00,-4.00,-3.00
+1.00,-41.00,-17.00,-12.00,-4.00,-3.00,-3.00,+0.00,-47.00,-19.00,-4.00,-3.00,-4.00,-8.00,-13.00,-12.00
-14.00,+63.00,+16.00,+6.00,+3.00,+11.00,+23.00,+0.00,-3.00,+0.00,-1.00,-4.00,-4.00,-8.00,+28.00,-2.00
+14.00,+30.00,+1.00,+0.00,+1.00,-1.00,-14.00,-5.00,+19.00,+6.00,+2.00,+2.00,-4.00,-4.00,+1.00,+3.00
-3.00,-18.00,+10.00,+7.00,+3.00,-8.00,-22.00,+1.00,-12.00,-11.00,-2.00,+0.00,+9.00,+39.00,+4.00,+1.00
-6.00,-15.00,-1.00,+0.00,+2.00,+11.00,-1.00,+1.00,-37.00,-13.00,-5.00,-3.00,-3.00,-16.00,-5.00,-9.00
-5.00,-34.00,-11.00,-6.00,-8.00,-7.00,-5.00,-4.00,+7.00,+6.00,+0.00,-1.00,-1.00,+8.00,-10.00,+2.00
+1.00,+6.00,+2.00,+4.00,+1.00,-1.00,-1.00,+4.00,-12.00,-7.00,-5.00,-3.00,-3.00,+4.00,-1.00,-5.00
-14.00,-19.00,-4.00,-4.00,-1.00,+9.00,+34.00,-4.00,-2.00,+3.00,+1.00,+0.00,-2.00,-35.00,+0.00,+3.00
+4.00,+2.00,-2.00,+1.00,+1.00,-10.00,-8.00,-4.00,-4.00,-3.00,-2.00,-3.00,-3.00,-17.00,-4.00,-7.00
-12.00,-19.00,+1.00,+1.00,+0.00,-5.00,-7.00,-3.00,-46.00,-33.00,-9.00,-1.00,+15.00,+47.00,-4.00,-9.00
+5.00,+9.00,-2.00,-10.00,-3.00,+4.00,+15.00,+3.00,+62.00,+36.00,+8.00,+2.00,-13.00,-11.00,+13.00,+23.00
-14.00,-19.00,-8.00,+7.00,+4.00,+0.00,-5.00,-2.00,+23.00,-5.00,-6.00,-3.00,-1.00,-10.00,-9.00,-5.00
+14.00,+47.00,+6.00,-3.00,-3.00,+2.00,+21.00,+1.00,-24.00,-4.00,-3.00,-2.00,+1.00,-5.00,+0.00,-2.00
+2.00,-7.00,-2.00,-2.00,+0.00,-4.00,+0.00,+2.00,+43.00,+15.00,+4.00,+2.00,-7.00,-43.00,-7.00,+6.00
+1.00,-1.00,+1.00,-1.00,-4.00,-5.00,-11.00,-3.00,-40.00,-9.00,-2.00,-3.00,-3.00,-18.00,-11.00,-11.00
-3.00,+3.00,+2.00,+1.00,-3.00,-6.00,-5.00,-2.00,+35.00,+12.00,+3.00,+3.00,+4.00,+19.00,+1.00,+3.00
+4.00,+6.00,+2.00,+2.00,+2.00,+4.00,+15.00,-1.00,+1.00,-8.00,-2.00,+2.00,-6.00,-1.00,+2.00,+2.00
+0.00,-3.00,-9.00,-8.00,-3.00,-3.00,-14.00,+0.00,+1.00,-6.00,-5.00,-3.00,-2.00,-40.00,-7.00,-12.00
-11.00,-47.00,-3.00,+1.00,-1.00,-2.00,-11.00,-6.00,-28.00,-23.00,-8.00,-5.00,-9.00,-69.00,-19.00,-16.00
+14.00,+27.00,+5.00,+3.00,+2.00,-3.00,-1.00,+0.00,+30.00,+12.00,+7.00,+2.00,+8.00,+40.00,+5.00,+14.00
-13.00,-21.00,-6.00,+0.00,-3.00,-4.00,-7.00,-5.00,-8.00,+3.00,-6.00,-5.00,+0.00,+3.00,+2.00,-10.00
+10.00,+7.00,+5.00,+3.00,+2.00,-1.00,-6.00,+1.00,-4.00,+17.00,+5.00,+0.00,-4.00,-9.00,-5.00,+9.00
-5.00,+18.00,-5.00,-4.00,+0.00,-2.00,-2.00,-4.00,+12.00,-1.00,+3.00,+2.00,+1.00,-5.00,-3.00,+2.00
-4.00,-22.00,-3.00,+4.00,+3.00,+2.00,-4.00,-2.00,-58.00,-36.00,-15.00,-5.00,-6.00,-10.00,-4.00,-21.00
+19.00,+26.00,+12.00,-1.00,+2.00,-9.00,-10.00,+6.00,+39.00,+18.00,+5.00,+2.00,+0.00,-27.00,+0.00,+9.00
+5.00,-23.00,-11.00,-4.00,-2.00,+5.00,+17.00,+2.00,+15.00,+4.00,+3.00,+4.00,+1.00,+18.00,+3.00,+1.00
-5.00,+15.00,-4.00,-5.00,-6.00,-7.00,-1.00,-3.00,-1.00,-2.00,+2.00,+1.00,+4.00,+43.00,+6.00,+10.00
+14.00,+3.00,+14.00,+4.00,+0.00,+2.00,+15.00,+6.00,+3.00,+9.00,+1.00,-1.00,-2.00,-36.00,-4.00,-7.00
-16.00,+2.00,-1.00,+3.00,+0.00,+0.00,-15.00,-7.00,-8.00,-20.00,-4.00,-1.00,-3.00,-15.00,-4.00,-2.00
+5.00,-18.00,-8.00,+0.00,-1.00,-3.00,+1.00,+3.00,+13.00,-5.00,-8.00,-5.00,-2.00,+5.00,-2.00,+3.00
+12.00,+29.00,+3.00,+1.00,+1.00,+7.00,+34.00,+2.00,+12.00,+5.00,+0.00,+0.00,+0.00,+15.00,+4.00,-7.00
-13.00,+5.00,-4.00,-2.00,+1.00,-1.00,-10.00,-5.00,-18.00,-17.00,+4.00,+2.00,+2.00,-12.00,+0.00,+1.00
-3.00,-32.00,-6.00,+1.00,-3.00,-3.00,+2.00,-4.00,-15.00,-2.00,-3.00,-2.00,-3.00,-14.00,-7.00,-9.00
+0.00,+28.00,+4.00,-9.00,-7.00,-7.00,+6.00,+0.00,+8.00,+10.00,-1.00,-1.00,+1.00,+20.00,+2.00,+11.00
+1.00,-7.00,-1.00,+4.00,+5.00,-2.00,-18.00,-4.00,-28.00,-40.00,-12.00,-3.00,+4.00,+52.00,-4.00,-25.00
+2.00,+21.00,+2.00,-8.00,-2.00,-2.00,-4.00,-2.00,+1.00,+26.00,+6.00,-1.00,-7.00,-31.00,-6.00,-8.00
+12.00,+4.00,+1.00,+1.00,+0.00,+2.00,+23.00,+1.00,+19.00,+11.00,+8.00,+3.00,+2.00,+23.00,+7.00,+15.00
-12.00,-9.00,-6.00,-2.00,-4.00,+2.00,-4.00,-5.00,-38.00,+0.00,-1.00,-2.00,-4.00,-27.00,-5.00,-2.00
-6.00,-14.00,-6.00,-5.00,-4.00,-1.00,-8.00,-2.00,-5.00,-10.00,-5.00,-4.00,+1.00,-9.00,-1.00,+0.00
+1.00,+13.00,+3.00,+1.00,-1.00,+0.00,+6.00,+0.00,+40.00,+1.00,-5.00,-2.00,-2.00,+9.00,+2.00,+10.00
-13.00,-23.00,-4.00,-1.00,+1.00,-6.00,-13.00,-2.00,-16.00,-7.00,+1.00,+2.00,+1.00,+25.00,+4.00,-10.00
-11.00,-27.00,+0.00,+6.00,+1.00,-1.00,+3.00,-4.00,+49.00,+12.00,+5.00,+3.00,+0.00,+13.00,+3.00,+10.00
+10.00,+4.00,+6.00,+0.00,+1.00,+1.00,+2.00,+4.00,+5.00,+12.00,+7.00,+1.00,-2.00,-8.00,+1.00,+2.00
-1.00,+10.00,-3.00,+1.00,+1.00,+3.00,+5.00,+1.00,-19.00,-7.00,-8.00,-5.00,-8.00,-30.00,-9.00,-20.00
-15.00,-18.00,-10.00,-6.00,-6.00,+0.00,-10.00,-4.00,+27.00,+7.00,+6.00,+2.00,+5.00,+24.00,+2.00,+10.00
+14.00,+29.00,+10.00,-3.00,-3.00,-8.00,-19.00,-4.00,-4.00,-7.00,-3.00,-1.00,-3.00,-14.00,-4.00,+5.00
-8.00,-22.00,+3.00,+2.00,+0.00,+8.00,+30.00,+5.00,+1.00,+7.00,+2.00,-3.00,-3.00,+15.00,+1.00,-2.00
-12.00,-31.00,-16.00,-7.00,-3.00,-7.00,-24.00,-10.00,-16.00,-17.00,-9.00,-4.00,-5.00,-18.00,-5.00,-1.00
+21.00,+47.00,+15.00,+5.00,+3.00,+7.00,+19.00,+8.00,-24.00,-1.00,+4.00,-1.00,+2.00,-14.00,+1.00,-4.00
-8.00,-19.00,+3.00,+3.00,+0.00,+3.00,+26.00,-2.00,-12.00,-18.00,-4.00,-2.00,+5.00,+3.00,-3.00,-15.00
+0.00,-1.00,+5.00,-4.00,-5.00,-2.00,-4.00,+0.00,+58.00,+20.00,+3.00,-1.00,-1.00,-36.00,+10.00,+30.00
+1.00,+12.00,-3.00,-1.00,-2.00,-3.00,-9.00,-2.00,+30.00,+0.00,-2.00,-2.00,+0.00,+48.00,-5.00,+22.00
-9.00,-20.00,-9.00,-2.00,+0.00,-3.00,-4.00,-3.00,-48.00,-5.00,-2.00,-2.00,+3.00,-4.00,+0.00,-25.00
+1.00,+3.00,-5.00,-4.00,-1.00,+0.00,-10.00,-1.00,+34.00,+15.00,+5.00,-3.00,-2.00,+32.00,+3.00,-16.00
-5.00,-9.00,-3.00,-4.00,-4.00,+0.00,-3.00,-2.00,-29.00,-9.00,-3.00,-3.00,-8.00,-32.00,-2.00,+15.00
+10.00,-4.00,-1.00,+1.00,+0.00,+0.00,-6.00,+5.00,+19.00,+16.00,+4.00,+2.00,+5.00,+7.00,+6.00,+8.00
+3.00,-4.00,+0.00,+3.00,+2.00,-2.00,-9.00,+0.00,-8.00,-26.00,-13.00,-4.00,-7.00,-6.00,-5.00,+1.00
-10.00,-19.00,-14.00,-8.00,+0.00,-5.00,-11.00,-5.00,-32.00,-9.00,-1.00,-1.00,-1.00,-47.00,-9.00,-18.00
-8.00,+32.00,+5.00,+12.00,+5.00,-4.00,-13.00,-10.00,-1.00,-3.00,+3.00,+3.00,+11.00,+73.00,+0.00,+0.00
-4.00,-5.00,+12.00,-11.00,-15.00,-4.00,-9.00,+5.00,+17.00,+24.00,+5.00,+2.00,+7.00,-69.00,+16.00,+7.00
-34.00,-13.00,-5.00,-2.00,-3.00,+12.00,+35.00,-4.00,+2.00,+15.00,+19.00,+7.00,-19.00,+40.00,+3.00,+3.00
+16.00,+1.00,-3.00,-1.00,-2.00,+9.00,+5.00,+1.00,-43.00,-22.00,-29.00,-18.00,-11.00,-16.00,-13.00,-4.00
+17.00,-4.00,-6.00,-5.00,-1.00,-8.00,-17.00,-1.00,+68.00,+7.00,-9.00,-4.00,-10.00,-26.00,+5.00,+2.00
+13.00,+4.00,-12.00,+0.00,+0.00,+13.00,+47.00,+9.00,-29.00,-10.00,-2.00,-2.00,+1.00,-4.00,-5.00,-6.00
+23.00,+19.00,+19.00,+7.00,+4.00,-6.00,-9.00,+9.00,+1.00,-2.00,-7.00,-2.00,+0.00,-52.00,-5.00,-9.00
-17.00,-30.00,-16.00,-11.00,-11.00,-4.00,+5.00,-6.00,+24.00,+4.00,+14.00,+9.00,+6.00,+30.00,+12.00,+7.00
-8.00,+20.00,+24.00,+12.00,+7.00,+5.00,+11.00,+6.00,-2.00,+6.00,+1.00,+9.00,+7.00,+16.00,-11.00,+6.00
-11.00,-16.00,-7.00,-4.00,+2.00,-3.00,-35.00,-11.00,-19.00,-19.00,-17.00,-18.00,-2.00,-3.00,+20.00,-3.00
-7.00,+1.00,-4.00,-9.00,-8.00,-11.00,-9.00,-5.00,+7.00,+3.00,-1.00,-2.00,-16.00,+1.00,-10.00,-1.00
+2.00,+0.00,+2.00,+11.00,+13.00,+3.00,+0.00,+8.00,-14.00,-2.00,+3.00,+3.00,+7.00,-33.00,+0.00,-1.00
-8.00,+9.00,+5.00,+4.00,-3.00,+8.00,+5.00,+4.00,-39.00,+6.00,+11.00,+4.00,-11.00,-5.00,-5.00,-15.00
+22.00,+2.00,+0.00,-3.00,+1.00,-6.00,-32.00,+1.00,+7.00,-1.00,+0.00,+0.00,+3.00,+35.00,-2.00,-15.00
-10.00,-3.00,-11.00,-6.00,+1.00,+3.00,-18.00,-1.00,+63.00,+32.00,+5.00,+3.00,+14.00,+28.00,+6.00,+35.00
+23.00,+8.00,-5.00,-6.00,-17.00,-20.00,-27.00,-2.00,-27.00,-22.00,-8.00,-9.00,+1.00,-5.00,+1.00,+0.00
-3.00,-7.00,-5.00,-1.00,-1.00,+2.00,+25.00,+3.00,-9.00,-8.00,+0.00,+0.00,+1.00,-23.00,-1.00,-10.00
-9.00,-1.00,+11.00,+6.00,+8.00,+14.00,+9.00,-4.00,-4.00,+3.00,+7.00,+3.00,-4.00,+15.00,-6.00,+0.00
+11.00,+4.00,+2.00,+0.00,-6.00,+2.00,-20.00,-2.00,+7.00,-24.00,-18.00,-13.00,-1.00,-24.00,-5.00,-4.00
-17.00,+0.00,-3.00,+2.00,+5.00,-9.00,+4.00,-3.00,+27.00,+25.00,+14.00,+8.00,-2.00,+8.00,+5.00,+20.00
-1.00,-11.00,-11.00,-6.00,-1.00,-2.00,-20.00,-7.00,+18.00,+19.00,-4.00,-3.00,+4.00,-6.00,-3.00,-13.00
-14.00,-3.00,-3.00,+0.00,+5.00,+3.00,+10.00,-8.00,-43.00,-28.00,-3.00,+5.00,+2.00,+60.00,-4.00,-3.00
+6.00,+0.00,+2.00,+3.00,+12.00,-3.00,+6.00,+3.00,-12.00,-4.00,+1.00,+2.00,+2.00,-21.00,+35.00,+0.00
-15.00,-18.00,-16.00,-18.00,-27.00,-9.00,-13.00,-5.00,-2.00,-1.00,-3.00,-2.00,-9.00,+8.00,-3.00,+0.00
+28.00,+27.00,-5.00,-4.00,+0.00,+0.00,+2.00,+4.00,+22.00,-15.00,-18.00,-21.00,-7.00,+55.00,+6.00,+10.00
-16.00,-10.00,-3.00,+0.00,+2.00,-9.00,-3.00,-8.00,-4.00,+8.00,+2.00,+5.00,-1.00,-33.00,-9.00,+3.00
-8.00,-23.00,+2.00,+3.00,+0.00,+0.00,+5.00,-4.00,-61.00,-23.00,-15.00,-3.00,+15.00,+6.00,-18.00,-22.00
-11.00,+17.00,+11.00,+14.00,+7.00,+4.00,+14.00,-1.00,+94.00,+34.00,+9.00,+2.00,+2.00,+16.00,+10.00,+12.00
-25.00,-43.00,-21.00,-17.00,-2.00,-2.00,+0.00,-9.00,-62.00,-34.00,-5.00,-5.00,-14.00,-6.00,+8.00,-7.00
+45.00,+33.00,+1.00,+12.00,-1.00,+3.00,+7.00,+27.00,-39.00,-36.00,-8.00,-5.00,-11.00,-21.00,-7.00,-5.00
-18.00,-7.00,-5.00,-10.00,+0.00,-7.00,-26.00,-7.00,+87.00,+44.00,+9.00,-2.00,+13.00,+3.00,-5.00,+15.00
-1.00,+8.00,+3.00,+0.00,+3.00,+8.00,+26.00,+11.00,+30.00,+25.00,-8.00,-17.00,-21.00,-29.00,-12.00,-11.00
-10.00,-12.00,+0.00,+5.00,-7.00,-10.00,-15.00,-17.00,-9.00,-21.00,-4.00,+2.00,+3.00,+2.00,-21.00,-3.00
-16.00,+2.00,-8.00,-11.00,-14.00,+4.00,-1.00,+8.00,-26.00,-14.00,-9.00,-5.00,-2.00,-17.00,-4.00,-18.00
+15.00,+15.00,+11.00,+8.00,+3.00,+6.00,+15.00,-7.00,-36.00,-31.00,-3.00,+5.00,-12.00,-33.00,-13.00,-10.00
+26.00,+7.00,+2.00,+2.00,+13.00,+2.00,-18.00,+6.00,-62.00,-20.00,-4.00,+0.00,+4.00,+31.00,+8.00,+3.00
+13.00,-9.00,-4.00,-6.00,-7.00,-7.00,+1.00,+4.00,+36.00,+16.00,+3.00,+5.00,+0.00,-15.00,-20.00,-4.00
-29.00,+2.00,+6.00,+5.00,+0.00,-6.00,-12.00,-7.00,+41.00,+19.00,+9.00,-1.00,-2.00,-6.00,-9.00,+8.00
+29.00,+0.00,-3.00,-1.00,+2.00,+8.00,+34.00,-8.00,+58.00,+28.00,+0.00,-9.00,-3.00,-13.00,+1.00,+13.00
-41.00,+10.00,+10.00,-2.00,+0.00,+7.00,-7.00,-8.00,-80.00,-47.00,-18.00,-18.00,-20.00,-9.00,-8.00,-11.00
+30.00,+8.00,-5.00,+2.00,+6.00,+1.00,+11.00,+16.00,+18.00,+30.00,+11.00,+8.00,+14.00,+11.00,+10.00,+12.00
-9.00,-27.00,-5.00,-1.00,+3.00,-2.00,-3.00,-4.00,+28.00,+1.00,+4.00,+10.00,-4.00,-10.00,-10.00,-6.00
-18.00,-18.00,-4.00,+2.00,-3.00,-5.00,-9.00,+3.00,-42.00,-37.00,-18.00,-13.00,-11.00,+2.00,-6.00,-16.00
+5.00,+24.00,+7.00,+1.00,+2.00,+3.00,+5.00,-2.00,+36.00,+8.00,+10.00,+4.00,+2.00,-1.00,+4.00,+12.00
-2.00,-10.00,-10.00,-7.00,-8.00,-2.00,-28.00,-5.00,-13.00,+13.00,-4.00,-3.00,+6.00,-11.00,+2.00,+1.00
-1.00,+18.00,+10.00,-3.00,-12.00,+1.00,+28.00,-4.00,-38.00,-20.00,-4.00,+1.00,+5.00,+3.00,+11.00,-15.00
-8.00,+8.00,-1.00,+0.00,-2.00,-5.00,-9.00,+4.00,+2.00,-8.00,+1.00,+2.00,-1.00,+8.00,-13.00,-15.00
+9.00,-4.00,+4.00,+9.00,+5.00,+2.00,+18.00,+6.00,+20.00,+0.00,+5.00,+8.00,+1.00,+4.00,+9.00,+10.00
+37.00,+3.00,-10.00,-3.00,+3.00,+3.00,-2.00,+13.00,+18.00,+27.00,+15.00,+9.00,+0.00,-18.00,-1.00,+2.00
-21.00,-25.00,-6.00,-5.00,+2.00,-3.00,+4.00,-6.00,+0.00,-8.00,-7.00,-6.00,-5.00,+16.00,-7.00,+1.00
+3.00,+2.00,+3.00,+0.00,-16.00,-4.00,+3.00,-6.00,-52.00,-25.00,-7.00,+4.00,+5.00,+17.00,-24.00,-37.00
+23.00,+5.00,+4.00,+5.00,+14.00,+1.00,-13.00,+19.00,-17.00,-25.00,-15.00,-16.00,-4.00,-19.00,+3.00,-2.00
+8.00,+10.00,+10.00,+3.00,-4.00,-2.00,+7.00,+6.00,+10.00,+11.00,+2.00,+3.00,+0.00,-8.00,+15.00,-7.00
-18.00,-16.00,-11.00,-9.00,-10.00,-12.00,-10.00,-3.00,-18.00,+26.00,+5.00,-1.00,+15.00,+2.00,-2.00,+12.00
+18.00,-4.00,-9.00,+0.00,+9.00,+5.00,+1.00,-16.00,+9.00,+18.00,+1.00,-3.00,-7.00,+3.00,+9.00,+8.00
-8.00,-14.00,-1.00,-4.00,-4.00,-1.00,+1.00,+3.00,-68.00,-15.00,-4.00,+8.00,-3.00,+11.00,+0.00,-6.00
+14.00,+12.00,+5.00,-5.00,+4.00,+4.00,-5.00,-21.00,+4.00,-23.00,-7.00,+6.00,+13.00,+7.00,-12.00,-6.00
-7.00,-16.00,+0.00,+7.00,-7.00,-1.00,-13.00,+3.00,+37.00,+30.00,+8.00,-27.00,-39.00,-38.00,-8.00,-1.00
-27.00,+15.00,+1.00,+0.00,+15.00,+10.00,+1.00,+7.00,-16.00,-48.00,-11.00,+4.00,+18.00,+60.00,+3.00,-3.00
+25.00,+2.00,-10.00,-8.00,-11.00,-9.00,-3.00,-11.00,-70.00,+18.00,+15.00,-3.00,+9.00,-7.00,+5.00,+9.00
-24.00,-2.00,+4.00,+6.00,+8.00,-6.00,-41.00,-23.00,+43.00,+20.00,+17.00,+3.00,+10.00,+8.00,+12.00,+20.00
+5.00,+8.00,-6.00,+3.00,-14.00,-17.00,+6.00,-4.00,-59.00,-28.00,-12.00,-4.00,-1.00,-14.00,-13.00,-21.00
+33.00,+7.00,+19.00,+14.00,+21.00,+10.00,+11.00,+25.00,+102.00,+71.00,+28.00,+17.00,+4.00,-8.00,+32.00,+34.00
-14.00,-25.00,+0.00,+5.00,+15.00,-1.00,-2.00,-10.00,-19.00,-27.00,-10.00,-1.00,-10.00,+1.00,-9.00,-7.00
-3.00,-20.00,-7.00,+3.00,-3.00,+0.00,+9.00,+8.00,-91.00,-34.00,-21.00,-24.00,-26.00,+0.00,-4.00,-27.00
-3.00,-11.00,-9.00,-6.00,+19.00,+5.00,-12.00,-10.00,+80.00,+35.00,+5.00,+2.00,+3.00,+1.00,+13.00,+19.00
+1.00,+16.00,-5.00,-8.00,-22.00,-2.00,-7.00,+12.00,-28.00,-5.00,-1.00,+5.00,+6.00,-9.00,-3.00,+8.00
-16.00,-2.00,-6.00,-5.00,-4.00,-2.00,-3.00,-11.00,-27.00,-19.00,-9.00,-1.00,+10.00,-1.00,-14.00,-21.00
-50.00,-9.00,+6.00,+1.00,+4.00,-7.00,+7.00,-13.00,+32.00,+10.00,+3.00,+6.00,-7.00,-5.00,+5.00,+1.00
+44.00,+45.00,+9.00,+3.00,+9.00,+3.00,+0.00,+13.00,-26.00,-34.00,-11.00,+0.00,-16.00,-5.00,-11.00,-14.00
-20.00,-15.00,-6.00,-10.00,-16.00,-5.00,-2.00,+4.00,-24.00,+11.00,+9.00,+9.00,+5.00,-1.00,+2.00,+15.00
-28.00,-20.00,-9.00,-4.00,+4.00,+3.00,+2.00,+5.00,+19.00,+10.00,+6.00,-1.00,+2.00,-2.00,+3.00,+0.00
+16.00,+16.00,+4.00,+1.00,+16.00,+14.00,+11.00,+5.00,-110.00,-64.00,-26.00,-27.00,-26.00,-3.00,-35.00,-44.00
-5.00,+1.00,-13.00,-14.00,-46.00,-13.00,+1.00,-1.00,+32.00,+10.00,-8.00,-7.00,+9.00,-43.00,-9.00,+3.00
-10.00,-24.00,-13.00,-12.00,-15.00,-13.00,-8.00,+6.00,+0.00,-9.00,+15.00,-3.00,-19.00,+42.00,+21.00,+4.00
+10.00,+5.00,+2.00,-2.00,-9.00,-8.00,-15.00,-10.00,+85.00,+62.00,+22.00,+14.00,+12.00,+7.00,+25.00,+37.00
-23.00,-4.00,+9.00,+7.00,-18.00,-4.00,+1.00,+5.00,-83.00,-38.00,-25.00,-27.00,-19.00,-9.00,-5.00,-18.00
+0.00,-2.00,+2.00,-7.00,+5.00,+1.00,+2.00,-3.00,+81.00,+39.00,+15.00,+28.00,+12.00,+6.00,+4.00,+20.00
-21.00,-28.00,-10.00,-7.00,-17.00,+14.00,-1.00,-3.00,-72.00,-33.00,-26.00,-30.00,-20.00,-27.00,-5.00,-9.00
+4.00,+31.00,+6.00,+2.00,-5.00,-5.00,-6.00,-1.00,-20.00,-13.00,-3.00,-9.00,-1.00,-1.00,-13.00,-7.00
-1.00,-35.00,-14.00,-13.00,-12.00,+1.00,+12.00,+20.00,+28.00,+35.00,+29.00,+30.00,+8.00,+10.00,+11.00,+20.00
+41.00,+49.00,+13.00,+18.00,+23.00,+17.00,-4.00,+4.00,-29.00,-4.00,-15.00,-26.00,+4.00,+12.00,-1.00,-3.00
+14.00,+6.00,+15.00,+19.00,+17.00,+0.00,-7.00,-5.00,-51.00,-19.00,-10.00,+3.00,-1.00,-11.00,-18.00,-30.00
+12.00,+19.00,-13.00,-18.00,-23.00,+2.00,+10.00,+10.00,+80.00,+24.00,+4.00,-3.00,-3.00,+1.00,-7.00,+9.00
-4.00,-12.00,+23.00,+16.00,+45.00,+18.00,-25.00,-15.00,+1.00,-4.00,+8.00,+8.00,+8.00,+18.00,+4.00,-2.00
+22.00,-1.00,-4.00,+8.00,-16.00,-2.00,+7.00,+32.00,-17.00,+15.00,-2.00,+3.00,-9.00,+7.00,-1.00,-6.00
-8.00,+11.00,-4.00,-7.00,+0.00,-20.00,-3.00,-11.00,+9.00,+15.00,+7.00,+2.00,+9.00,-6.00,+4.00,+3.00
-8.00,-9.00,-2.00,+2.00,+25.00,+20.00,+3.00,-4.00,-13.00,-12.00,-6.00,+8.00,+0.00,-9.00,-14.00,-33.00
+1.00,+15.00,-1.00,-4.00,-3.00,-20.00,-4.00,-15.00,+27.00,+26.00,-2.00,+10.00,+18.00,-6.00,+3.00,+2.00
-18.00,-31.00,-8.00,-13.00,+9.00,-4.00,-3.00,-9.00,-32.00,-17.00,+4.00,+8.00,+0.00,+20.00,+5.00,+1.00
+21.00,+1.00,+1.00,+1.00,-17.00,-4.00,-4.00,-5.00,-19.00,-5.00,-16.00,-17.00,-12.00,-6.00,-9.00,-11.00
-4.00,+9.00,+1.00,+5.00,+12.00,+7.00,-5.00,-1.00,-15.00,+11.00,-5.00,-11.00,-4.00,+3.00,+0.00,+0.00
+4.00,+4.00,-7.00,-4.00,-10.00,+2.00,+12.00,-13.00,-79.00,-59.00,-26.00,-10.00,+1.00,-6.00,-4.00,-22.00
-34.00,-8.00,+8.00,-1.00,+17.00,-4.00,-11.00,-26.00,+46.00,+38.00,+18.00,+37.00,+26.00,-3.00,-13.00,+31.00
-12.00,-1.00,-18.00,-14.00,-15.00,-9.00,+4.00,-9.00,-23.00,+32.00,+8.00,-10.00,-12.00,-3.00,+0.00,-3.00
+12.00,-31.00,+9.00,+15.00,-1.00,-8.00,-6.00,+5.00,-54.00,-46.00,-11.00,+4.00,-6.00,-6.00,-7.00,-6.00
-32.00,+11.00,-4.00,-6.00,-17.00,+0.00,+6.00,-17.00,+32.00,+18.00,-6.00,-11.00,-2.00,-2.00,+0.00,+5.00
+23.00,-19.00,-10.00,-7.00,+4.00,-6.00,-5.00,-6.00,-117.00,-90.00,-22.00,-22.00,+3.00,-8.00,-12.00,-25.00
-17.00,+26.00,+15.00,+10.00,+24.00,-1.00,-3.00,-6.00,+54.00,+14.00,+2.00,+21.00,+9.00,-5.00,-4.00,+5.00
-14.00,-5.00,+15.00,+17.00,+1.00,+1.00,+1.00,+2.00,+9.00,+10.00,+19.00,+6.00,+12.00,+15.00,-7.00,+13.00
+8.00,-13.00,-2.00,-6.00,-11.00,+2.00,+6.00,+10.00,+42.00,+87.00,+33.00,+15.00,+24.00,-9.00,+37.00,+14.00
-18.00,-13.00,-5.00,+3.00,+18.00,+11.00,-6.00,-14.00,+64.00,-18.00,+4.00,+0.00,-18.00,+3.00,+2.00,+22.00
+8.00,+31.00,+6.00,-6.00,-22.00,-13.00,-11.00,+5.00,+61.00,+36.00,+5.00,-6.00,-9.00,+1.00,-1.00,+10.00
-8.00,-4.00,+2.00,+1.00,+0.00,-5.00,-8.00,+2.00,-87.00,-54.00,-17.00,-5.00,-8.00,-10.00,-5.00,-28.00
-1.00,-15.00,-4.00,+7.00,+6.00,+10.00,+7.00,+32.00,-17.00,-16.00,-16.00,-5.00,-4.00,-2.00,-4.00,+15.00
-20.00,+11.00,+1.00,-2.00,+17.00,+7.00,+11.00,+3.00,-78.00,-14.00,-3.00,+2.00,+2.00,+8.00,+1.00,-26.00
-18.00,-29.00,-20.00,+1.00,-21.00,-22.00,-14.00,-18.00,-33.00,-45.00,-10.00,-9.00,-9.00,-26.00,+5.00,+1.00
+20.00,-2.00,+6.00,-16.00,+10.00,+0.00,+1.00,+7.00,+42.00,+71.00,+6.00,-14.00,+3.00,+0.00,-19.00,+1.00
+17.00,+3.00,+1.00,-2.00,-47.00,+4.00,+15.00,+17.00,-20.00,-8.00,-1.00,+18.00,+4.00,+1.00,-12.00,-7.00
-43.00,-21.00,-24.00,-21.00,-31.00,-30.00,-18.00,-18.00,+16.00,+14.00,-2.00,-31.00,-3.00,+3.00,+18.00,+7.00
+12.00,-2.00,-13.00,+0.00,+30.00,+11.00,+5.00,+1.00,-18.00,-31.00,-3.00,+3.00,-1.00,-13.00,-17.00,-7.00
+15.00,+32.00,+12.00,+11.00,+4.00,+1.00,-3.00,-1.00,-2.00,-10.00,-1.00,+17.00,+7.00,+7.00,+12.00,+2.00
-13.00,+12.00,-8.00,-6.00,+13.00,-3.00,-2.00,-2.00,-69.00,-29.00,-18.00,-24.00,-15.00,-17.00,-18.00,-15.00
+28.00,+7.00,+10.00,+7.00,-10.00,+12.00,+10.00,+20.00,+46.00,+35.00,+16.00,+12.00,+6.00,+9.00,-2.00,+1.00
+11.00,+17.00,+2.00,-4.00,+1.00,+5.00,+4.00,-12.00,+46.00,+59.00,+22.00,+24.00,+10.00,+2.00,+16.00,+3.00
+34.00,-13.00,-5.00,-9.00,-14.00,+2.00,+1.00,+6.00,+1.00,-7.00,-9.00,-16.00,-5.00,-8.00,+0.00,+1.00
-31.00,-7.00,-1.00,+1.00,-17.00,-21.00,-9.00,-16.00,-23.00,-62.00,+2.00,+0.00,+1.00,+5.00,+6.00,+5.00
+15.00,+9.00,+1.00,+4.00,+21.00,+2.00,-2.00,-7.00,+35.00,+33.00,+13.00,+28.00,+29.00,+9.00,+5.00,-1.00
+5.00,+14.00,+8.00,+5.00,+12.00,+3.00,-4.00,-1.00,-112.00,-59.00,-15.00,-15.00,-15.00,-9.00,-20.00,-17.00
-15.00,-32.00,-12.00,-2.00,+20.00,+4.00,+4.00,+9.00,+110.00,+58.00,+8.00,+4.00,+5.00,+31.00,+20.00,+24.00
+13.00,+39.00,+5.00,-1.00,-3.00,-1.00,+1.00,+12.00,+71.00,+61.00,+16.00,+0.00,-7.00,+0.00,-3.00,+18.00
+17.00,-21.00,+5.00,+4.00,-6.00,-6.00,-9.00,+5.00,-90.00,-61.00,-23.00,-3.00,-6.00,-14.00,-4.00,-18.00
-11.00,-18.00,+1.00,-1.00,-6.00,+3.00,-5.00,-2.00,+62.00,+22.00,+4.00,+4.00,+8.00,+9.00,-21.00,+8.00
-7.00,-6.00,-18.00,-10.00,-4.00,+12.00,-2.00,+3.00,-41.00,-5.00,+4.00,-3.00,-4.00,-21.00,-2.00,-25.00
+4.00,+18.00,+1.00,+4.00,+16.00,-11.00,-6.00,+0.00,+25.00,+10.00,+2.00,+12.00,+10.00,-9.00,+0.00,+14.00
-63.00,-67.00,-25.00,-20.00,-18.00,-9.00,-6.00,-16.00,-73.00,-31.00,-10.00,+0.00,-5.00,+19.00,-5.00,-23.00
+43.00,+37.00,+32.00,+7.00,+1.00,+8.00,+12.00,+16.00,+85.00,+80.00,+30.00,-3.00,+4.00,+1.00,+9.00,+40.00
-29.00,-8.00,-8.00,-2.00,-47.00,-21.00,-2.00,-57.00,+11.00,-25.00,-12.00,-3.00,-10.00,-8.00,-6.00,-1.00
-2.00,-3.00,+1.00,+1.00,+6.00,-4.00,-1.00,+2.00,-46.00,-40.00,-22.00,-17.00,-5.00,-9.00,-7.00,-24.00
-7.00,+0.00,+5.00,+11.00,+11.00,+13.00,+7.00,+0.00,+50.00,+4.00,+5.00,+12.00,+2.00,-25.00,-2.00,+21.00
-5.00,-28.00,-19.00,-12.00,-12.00,-11.00,-2.00,+17.00,-57.00,-14.00,-7.00,-11.00,-14.00,-9.00,+0.00,-15.00
-13.00,+0.00,-8.00,-10.00,-1.00,-9.00,-3.00,-3.00,-34.00,-27.00,-22.00,-11.00,-1.00,-11.00,+1.00,-6.00
+7.00,-13.00,-3.00,+0.00,+0.00,+6.00,+6.00,-5.00,+50.00,+68.00,+35.00,+21.00,+9.00,+17.00,-5.00,+21.00
+7.00,+34.00,+9.00,+2.00,-6.00,-5.00,-11.00,-11.00,-94.00,-64.00,-24.00,-25.00,-19.00,-9.00,-3.00,-8.00
+3.00,-21.00,-5.00,-1.00,+12.00,+6.00,+0.00,-1.00,+25.00,+24.00,+7.00,-3.00,+5.00,+16.00,+11.00,-10.00
-2.00,-7.00,-6.00,+1.00,-18.00,-5.00,-6.00,+0.00,-31.00,-14.00,-5.00,+20.00,+4.00,-8.00,-27.00,-14.00
+4.00,+59.00,+13.00,-6.00,+6.00,-3.00,+9.00,+4.00,+2.00,-27.00,-20.00,-43.00,-15.00,-4.00,-8.00,-13.00
+15.00,+24.00,+1.00,+0.00,-8.00,-2.00,-2.00,+9.00,-11.00,+9.00,+0.00,-6.00,-13.00,-2.00,+5.00,+11.00
+2.00,-21.00,+10.00,-2.00,+13.00,+25.00,+7.00,+22.00,-3.00,-37.00,-11.00,+2.00,+1.00,-3.00,-2.00,+10.00
-14.00,-22.00,-4.00,+7.00,-18.00,-26.00,-5.00,-5.00,-10.00,+14.00,+15.00,+13.00,+4.00,-7.00,-2.00,-2.00
-12.00,-7.00,-9.00,+3.00,+4.00,-2.00,-6.00,-14.00,+8.00,-6.00,+4.00,+32.00,+21.00,+75.00,+15.00,-8.00
+7.00,+21.00,+16.00,+6.00,-1.00,+1.00,+4.00,+12.00,+84.00,+49.00,+16.00,-17.00,-23.00,-4.00,+5.00,+12.00
-31.00,-47.00,-27.00,-7.00,+33.00,-1.00,+1.00,-12.00,-65.00,-83.00,-33.00,-27.00,-11.00,-12.00,-13.00,-18.00
+23.00,+70.00,+37.00,+3.00,-7.00,-6.00,+8.00,+4.00,-11.00,+5.00,-8.00,-3.00,+2.00,+2.00,+2.00,+5.00
+37.00,-30.00,-7.00,-2.00,-13.00,-2.00,-15.00,-27.00,-37.00,-40.00,-1.00,+3.00,-8.00,-14.00,+4.00,-3.00
-2.00,+31.00,+11.00,+2.00,+24.00,+14.00,+5.00,+5.00,+11.00,+25.00,+13.00,+8.00,+14.00,+14.00,+13.00,+4.00
-36.00,-13.00,-14.00,+5.00,+0.00,-5.00,+0.00,-4.00,-60.00,-11.00,-5.00,+11.00,+13.00,+2.00,-7.00,-22.00
+23.00,+1.00,-7.00,-10.00,+4.00,-7.00,+1.00,+6.00,+46.00,-15.00,-2.00,-1.00,-4.00,+5.00,+18.00,+5.00
-15.00,-37.00,+3.00,-3.00,+0.00,-4.00,+2.00,+2.00,+20.00,+51.00,+17.00,+22.00,+18.00,-4.00,+1.00,+11.00
+6.00,-10.00,-16.00,-10.00,-13.00,-2.00,-3.00,+3.00,-23.00,-16.00,-20.00,-22.00,-16.00,-17.00,-15.00,-17.00
+14.00,+40.00,+9.00,+8.00,-5.00,-8.00,+0.00,+2.00,-16.00,-24.00,+1.00,+6.00,+6.00,-18.00,-4.00,+4.00
+3.00,-34.00,-2.00,+2.00,+12.00,+15.00,-2.00,+5.00,+19.00,+22.00,+4.00,-9.00,+2.00,+49.00,+12.00,+6.00
-20.00,-26.00,-2.00,+0.00,-12.00,+2.00,+1.00,+11.00,-1.00,-33.00,-14.00,-2.00,-8.00,-11.00,-12.00,-8.00
+21.00,+21.00,+1.00,+1.00,+3.00,+0.00,+3.00,-9.00,+49.00,-5.00,+2.00,-7.00,+3.00,+6.00,-4.00,+0.00
+2.00,-15.00,+0.00,-5.00,-19.00,+6.00,+4.00,+11.00,+4.00,+5.00,-8.00,-13.00,-7.00,-4.00,+2.00,+5.00
-17.00,+1.00,-14.00,-9.00,+1.00,+4.00,-17.00,-25.00,+3.00,-13.00,-1.00,+7.00,+2.00,-18.00,-21.00,+9.00
-20.00,-29.00,-8.00,+2.00,+10.00,-4.00,-6.00,+1.00,-1.00,+23.00,+14.00,+1.00,-5.00,-3.00,+17.00,-10.00
+24.00,-1.00,+30.00,+11.00,+14.00,+9.00,+10.00,+7.00,+26.00,-18.00,-14.00,-6.00,+0.00,-1.00,+1.00,+2.00
-44.00,-15.00,-23.00,-15.00,-28.00,-14.00,-15.00,-35.00,+28.00,+28.00,+7.00,+12.00,+14.00,+1.00,+2.00,-2.00
+43.00,+8.00,+9.00,+6.00,+14.00,+5.00,-14.00,+7.00,+40.00,+12.00,+4.00,+0.00,+2.00,+14.00,+0.00,+1.00
-37.00,-17.00,-26.00,-19.00,+4.00,+6.00,+12.00,+12.00,-83.00,-28.00,-20.00,-22.00,-20.00,-18.00,-1.00,-10.00
+9.00,-6.00,+7.00,+5.00,-6.00,-8.00,-12.00,-2.00,+35.00,+49.00,+22.00,+21.00,+21.00,+4.00,+10.00,+5.00
+12.00,+43.00,+19.00,+14.00,+8.00,+16.00,+12.00,+18.00,-15.00,-2.00,-8.00,-12.00,-12.00,+5.00,+12.00,+6.00
-26.00,-37.00,+7.00,+2.00,-13.00,-6.00,-2.00,+22.00,-44.00,-48.00,-8.00,-1.00,-1.00,-13.00,+0.00,+0.00
+7.00,+18.00,-9.00,-12.00,+6.00,-5.00,-17.00,-14.00,+65.00,+51.00,+10.00,+0.00,-11.00,-14.00,-8.00,+10.00
-10.00,-6.00,-1.00,+1.00,-2.00,-1.00,+24.00,+11.00,+22.00,+23.00,+0.00,-14.00,-3.00,-2.00,+0.00,+0.00
+11.00,-4.00,-4.00,+2.00,+35.00,+9.00,-3.00,-1.00,-55.00,-27.00,-19.00,-10.00,+0.00,+14.00,-17.00,-34.00
-26.00,-21.00,-18.00,-3.00,-4.00,+12.00,+2.00,-12.00,+1.00,+32.00,+31.00,+14.00,+5.00,-15.00,+22.00,+23.00
+86.00,+65.00,+23.00,+4.00,-14.00,-12.00,+5.00,+21.00,+4.00,+2.00,-2.00,-8.00,-13.00,-2.00,-6.00,+0.00
-32.00,-16.00,-11.00,+3.00,+16.00,-4.00,-10.00,-8.00,-65.00,-47.00,-19.00,-6.00,+7.00,-5.00,-8.00,-9.00
+22.00,-17.00,+5.00,-5.00,+2.00,-4.00,-2.00,-7.00,-46.00,-19.00,-7.00,+3.00,-11.00,-3.00,-4.00,-18.00
+23.00,+13.00,+3.00,-1.00,-11.00,-4.00,+11.00,+19.00,+82.00,+56.00,+16.00,+12.00,+0.00,-30.00,-6.00,+16.00
-28.00,-31.00,-7.00,-6.00,-13.00,-1.00,-2.00,+2.00,+23.00,+5.00,+1.00,-8.00,+10.00,+26.00,-4.00,+0.00
+40.00,+29.00,-2.00,+4.00,+13.00,+3.00,+2.00,+10.00,-58.00,-8.00,-5.00,+6.00,-2.00,+7.00,-2.00,-14.00
-23.00,-21.00,+0.00,-4.00,-5.00,-8.00,-2.00,-8.00,+52.00,+12.00,+4.00,+5.00,-3.00,-10.00,+4.00,+16.00
+15.00,+42.00,+4.00,+2.00,+15.00,+4.00,+10.00,+7.00,-26.00,+4.00,-3.00,+4.00,+6.00,+5.00,-22.00,-15.00
+7.00,-15.00,+14.00,+14.00,+0.00,+0.00,+2.00,+3.00,-5.00,-43.00,-11.00,-11.00,-10.00,-10.00,+16.00,-2.00
-38.00,-21.00,-14.00,-9.00,-21.00,-15.00,-8.00,-11.00,-51.00,+5.00,+3.00,+3.00,-2.00,-4.00,-4.00,-17.00
-13.00,-26.00,-9.00,-2.00,+5.00,-7.00,-20.00,-36.00,+97.00,+79.00,+27.00,+17.00,-4.00,+9.00,+6.00,+36.00
+0.00,+42.00,+16.00,+5.00,+16.00,+5.00,+9.00,-6.00,-46.00,-21.00,-7.00,-18.00,-14.00,-3.00,+0.00,+6.00
-14.00,+10.00,+0.00,-4.00,-30.00,-17.00,-12.00,-13.00,+51.00,+2.00,-12.00,-6.00,-3.00,-11.00,-7.00,-1.00
+4.00,-10.00,-7.00,-3.00,+4.00,+7.00,+12.00,-2.00,-5.00,-6.00,+15.00,+12.00,+5.00,+24.00,+9.00,+3.00
-6.00,-2.00,+4.00,+6.00,-10.00,-14.00,-6.00,+3.00,-19.00,+10.00,+0.00,+0.00,+9.00,-1.00,+4.00,-6.00
-17.00,-5.00,-18.00,-13.00,-4.00,-6.00,-11.00,-1.00,+19.00,-12.00,-1.00,+3.00,-7.00,-3.00,+1.00,+3.00
+22.00,-3.00,+0.00,+4.00,+17.00,+7.00,+2.00,+0.00,-28.00,-38.00,-16.00,-4.00,-7.00,-12.00,-4.00,-3.00
+8.00,-23.00,+0.00,-2.00,-18.00,-7.00,-1.00,-8.00,+87.00,+65.00,+12.00,+8.00,+3.00,-4.00,-4.00,+8.00
-7.00,+18.00,-2.00,-7.00,-9.00,-4.00,-2.00,+12.00,-3.00,-15.00,-1.00,+2.00,+7.00,-26.00,+13.00,+5.00
-4.00,-17.00,-7.00,-2.00,-21.00,-4.00,+4.00,-4.00,-55.00,-36.00,-19.00,-11.00,-13.00,-10.00,-3.00,-21.00
-58.00,-20.00,-3.00,+5.00,+20.00,+7.00,+4.00,+1.00,+10.00,+6.00,+6.00,-8.00,+1.00,+5.00,-7.00,+2.00
+6.00,+13.00,-2.00,-2.00,-23.00,-2.00,-6.00,-11.00,-17.00,-7.00,+6.00,+15.00,+4.00,+3.00,-1.00,-1.00
+11.00,-20.00,+12.00,+5.00,+4.00,+6.00,+7.00,+15.00,+30.00,+15.00,+8.00,-5.00,+6.00,+0.00,-2.00,+7.00
+22.00,+29.00,+8.00,+6.00,-11.00,-4.00,+1.00,+3.00,-58.00,-35.00,-20.00,-19.00,-21.00,-9.00,-1.00,-18.00
-4.00,-1.00,-5.00,-3.00,-17.00,+6.00,+1.00,+2.00,-20.00,+7.00,-1.00,-10.00,-8.00,-13.00,-30.00,-7.00
-24.00,-31.00,-14.00,-8.00,+2.00,-4.00,-8.00,-20.00,-20.00,-24.00,-7.00,+17.00,+11.00,-3.00,+17.00,-2.00
+18.00,-7.00,-6.00,-9.00,-22.00,-9.00,+1.00,+0.00,+12.00,+13.00,+1.00,-9.00,-18.00,+5.00,+4.00,+8.00
-35.00,-8.00,+5.00,+5.00,+16.00,+7.00,+0.00,+13.00,-28.00,-23.00,-10.00,-6.00,-4.00,+8.00,+1.00,-12.00
+30.00,+2.00,+0.00,+0.00,+7.00,+5.00,+0.00,+5.00,+32.00,+13.00,+0.00,+5.00,+13.00,+9.00,-5.00,-12.00
-11.00,-6.00,-11.00,-6.00,-11.00,-14.00,-9.00,-7.00,-63.00,-40.00,-6.00,-2.00,-7.00,-3.00,-5.00,+18.00
-15.00,+44.00,+1.00,-17.00,-22.00,+0.00,-6.00,-29.00,-13.00,+1.00,+4.00,+12.00,+7.00,+5.00,-20.00,-33.00
+0.00,-23.00,-8.00,-9.00,+3.00,+7.00,-3.00,-8.00,+47.00,+13.00,+3.00,-2.00,+10.00,+10.00,+3.00,+5.00
+6.00,+2.00,-1.00,+9.00,-1.00,-9.00,+6.00,-1.00,-5.00,+41.00,+12.00,+16.00,+7.00,+3.00,+20.00,+16.00
-4.00,+22.00,+7.00,+0.00,-2.00,+9.00,+1.00,+4.00,-39.00,-25.00,-22.00,-22.00,-14.00,-7.00,-11.00,-7.00
-5.00,+1.00,-14.00,-6.00,-2.00,-3.00,-8.00,+7.00,-36.00,-38.00,-19.00,-12.00,-6.00,-19.00,-4.00,-10.00
+17.00,-18.00,+11.00,+10.00,+22.00,+9.00,+10.00,-3.00,+36.00,+38.00,+15.00,+3.00,+9.00,-1.00,-1.00,+30.00
-28.00,+9.00,-1.00,-1.00,+13.00,+5.00,+5.00,-25.00,+2.00,-3.00,+13.00,+22.00,+14.00,+1.00,+6.00,+9.00
+2.00,-12.00,+8.00,+8.00,+10.00,+7.00,-5.00,+2.00,-23.00,+0.00,+3.00,-9.00,-8.00,-2.00,+2.00,-14.00
+2.00,-13.00,+4.00,+11.00,+2.00,+0.00,+8.00,+5.00,-44.00,-43.00,-13.00,-8.00,-3.00,-7.00,-10.00,-8.00
+17.00,+16.00,-2.00,-9.00,-4.00,-7.00,-1.00,+2.00,+20.00,+36.00,+14.00,+14.00,+9.00,+8.00,+6.00,-2.00
-34.00,-30.00,-12.00,-6.00,+3.00,-5.00,-4.00,-30.00,-17.00,-13.00,+2.00,-1.00,+1.00,+1.00,+3.00,+10.00
+15.00,+25.00,+11.00,+7.00,+1.00,+4.00,+3.00,+10.00,+15.00,+13.00,-1.00,-13.00,-19.00,-8.00,-8.00,-1.00
+28.00,+33.00,+0.00,+7.00,-2.00,+4.00,+11.00,+14.00,+6.00,-28.00,-5.00,+11.00,+23.00,+11.00,+7.00,-5.00
-35.00,-19.00,-4.00,-1.00,-12.00,-9.00,+2.00,-12.00,-7.00,+0.00,+0.00,-1.00,-8.00,-2.00,-16.00,-7.00
+2.00,-19.00,+3.00,-3.00,+4.00,-1.00,-13.00,+9.00,-20.00,-10.00,-6.00,-8.00,-5.00,+2.00,-2.00,-2.00
+15.00,-18.00,-4.00,-7.00,+4.00,-3.00,-5.00,+9.00,+50.00,+7.00,+2.00,-3.00,-5.00,-7.00,-5.00,+1.00
+7.00,-1.00,-12.00,-10.00,-17.00,-9.00,+2.00,+0.00,-13.00,+3.00,-8.00,-5.00,+3.00,+6.00,-4.00,-3.00
+2.00,+24.00,-1.00,-3.00,-2.00,+0.00,-6.00,-8.00,-12.00,-22.00,-5.00,-3.00,-1.00,+4.00,-2.00,+0.00
+1.00,-14.00,-9.00,-5.00,-21.00,+2.00,+0.00,+0.00,-53.00,-12.00,-2.00,-3.00,-3.00,-19.00,-12.00,-22.00
-2.00,-15.00,+2.00,+6.00,+12.00,-7.00,-2.00,-8.00,+45.00,+40.00,+14.00,+14.00,+16.00,+24.00,+16.00,+19.00
+40.00,+77.00,+19.00,+9.00,-4.00,+10.00,+1.00,+14.00,-30.00,-28.00,-17.00,-25.00,-23.00,-2.00,-13.00,-11.00
-18.00,-35.00,-15.00,-10.00,-13.00,-32.00,-12.00,-9.00,+25.00,+21.00,+11.00,+4.00,+12.00,-2.00,-5.00,+12.00
+25.00,+26.00,+7.00,-1.00,-22.00,-1.00,+5.00,+8.00,-69.00,-37.00,-17.00,-12.00,-11.00,-13.00,-1.00,-20.00
-27.00,+7.00,-6.00,-9.00,-12.00,-4.00,-11.00,-24.00,+26.00,+27.00,+5.00,+14.00,+14.00,-5.00,+5.00,+9.00
-25.00,-37.00,+0.00,+10.00,+19.00,+8.00,+9.00,+0.00,-15.00,+5.00,+9.00,+3.00,-5.00,+0.00,+3.00,+2.00
+9.00,+11.00,+0.00,-1.00,+5.00,+2.00,-7.00,+3.00,-71.00,-40.00,-3.00,-1.00,-2.00,-4.00,-2.00,-29.00
-10.00,+1.00,-3.00,-3.00,-1.00,+3.00,+7.00,+5.00,+58.00,+30.00,+18.00,+9.00,+11.00,+5.00,+6.00,+27.00
+1.00,-11.00,+0.00,+0.00,-6.00,+1.00,+4.00,+21.00,-73.00,-26.00,-19.00,-27.00,-18.00,-40.00,-18.00,-25.00
+2.00,-6.00,+0.00,-7.00,-1.00,-12.00,-15.00,-9.00,+8.00,+18.00,+0.00,+2.00,+3.00,+21.00,+3.00,+3.00
-2.00,+1.00,-11.00,-7.00,-13.00,+0.00,+6.00,-11.00,+0.00,+1.00,+0.00,+7.00,-1.00,-2.00,+6.00,-8.00
-5.00,-21.00,+4.00,+6.00,+8.00,+0.00,-3.00,+15.00,-34.00,+9.00,+0.00,-12.00,-12.00,-3.00,-1.00,+1.00
-7.00,+9.00,-2.00,-7.00,-9.00,+5.00,+8.00,-2.00,+20.00,+2.00,+2.00,+21.00,+19.00,-4.00,-11.00,+3.00
-2.00,-9.00,-15.00,-11.00,+0.00,-3.00,-8.00,-7.00,-21.00,-20.00,-2.00,-3.00,-5.00,-14.00,+3.00,+14.00
-31.00,-14.00,-13.00,-3.00,+25.00,+6.00,-2.00,+1.00,+8.00,-17.00,-14.00,-8.00,+5.00,+6.00,+20.00,-15.00
+12.00,+0.00,+24.00,+11.00,-15.00,-5.00,-1.00,-7.00,+53.00,+36.00,+4.00,+10.00,+0.00,+3.00,-3.00,+14.00
-45.00,+10.00,-6.00,-6.00,+6.00,-8.00,-7.00,-30.00,-37.00,-21.00,-5.00,+1.00,-13.00,-10.00,-9.00,-7.00
-6.00,-4.00,+0.00,+1.00,-12.00,+0.00,+8.00,-6.00,+10.00,+11.00,+11.00,-8.00,-9.00,+11.00,-6.00,-5.00
-31.00,-15.00,-8.00,-6.00,-4.00,+0.00,-9.00,-4.00,-41.00,-22.00,-13.00,-12.00,-10.00,+0.00,-12.00,-12.00
+40.00,-5.00,-2.00,+1.00,+27.00,+5.00,+1.00,+7.00,+44.00,-5.00,-2.00,+7.00,+0.00,-1.00,+18.00,+1.00
-3.00,+3.00,+3.00,+10.00,+7.00,+0.00,+7.00,+13.00,-65.00,-51.00,-18.00,-23.00,-25.00,-3.00,-8.00,-32.00
+0.00,-37.00,-4.00,-6.00,-10.00,-7.00,-1.00,+12.00,+24.00,+36.00,+22.00,+12.00,+9.00,+2.00,-2.00,+24.00
+3.00,+29.00,+14.00,+7.00,+16.00,+14.00,+12.00,+0.00,-22.00,-4.00,+6.00,+7.00,-6.00,-9.00,-6.00,-4.00
-17.00,+5.00,-12.00,-7.00,+3.00,-13.00,-10.00,-13.00,+9.00,-22.00,-12.00,-11.00,+1.00,+2.00,-5.00,+2.00
+16.00,-7.00,+1.00,+0.00,+20.00,+14.00,+7.00,+14.00,+22.00,+53.00,+19.00,+11.00,+11.00,+10.00,+2.00,+7.00
-10.00,-5.00,-8.00,-14.00,-20.00,-10.00,-5.00,-7.00,-32.00,-26.00,-6.00,+8.00,+7.00,+1.00,+2.00,-25.00
+14.00,-25.00,+10.00,+11.00,+0.00,+6.00,+11.00,+13.00,-64.00,-22.00,-5.00,+2.00,-2.00,-4.00,-4.00,+1.00
+12.00,+15.00,+4.00,-2.00,+0.00,+8.00,+5.00,+10.00,+54.00,+17.00,+1.00,+10.00,+10.00,+7.00,+8.00,+12.00
+19.00,-3.00,-11.00,-6.00,-1.00,-8.00,+1.00,+1.00,+17.00,+4.00,+2.00,-4.00,+12.00,+4.00,+7.00,-9.00
-11.00,+5.00,-1.00,+11.00,+14.00,+9.00,-2.00,-9.00,+8.00,+37.00,+5.00,+9.00,+6.00,-5.00,-15.00,+14.00
-50.00,-33.00,-9.00,-8.00,-3.00,-4.00,-11.00,-31.00,+2.00,+7.00,+3.00,+8.00,+10.00,+4.00,+25.00,+6.00
+15.00,+28.00,+8.00,+9.00,+18.00,+5.00,+7.00,+7.00,-83.00,-27.00,-6.00,+18.00,+13.00,+10.00,-11.00,-20.00
-14.00,+6.00,+6.00,+5.00,-4.00,+8.00,+4.00,+4.00,+19.00,-8.00,-5.00,-25.00,-51.00,-12.00,+5.00,+4.00
-15.00,-32.00,-16.00,-11.00,-2.00,-6.00,-4.00,-2.00,+48.00,+4.00,-9.00,-14.00,+1.00,-2.00,+2.00,+6.00
+16.00,+15.00,-3.00,-1.00,-27.00,-8.00,-3.00,+2.00,+40.00,+25.00,+10.00,+6.00,+7.00,+23.00,-7.00,+15.00
+24.00,+20.00,+6.00,-4.00,+13.00,+1.00,+1.00,+5.00,-25.00,-14.00,-11.00,-26.00,-13.00,-6.00,+13.00,+4.00
-11.00,-9.00,-2.00,-4.00,-10.00,-4.00,-6.00,-7.00,-27.00,-16.00,-5.00,-3.00,+13.00,+6.00,+0.00,-7.00
+11.00,+9.00,-1.00,+1.00,+28.00,+7.00,-9.00,-7.00,-16.00,+9.00,-4.00,-5.00,-5.00,-9.00,-7.00,-12.00
+1.00,+8.00,+0.00,-1.00,-10.00,-5.00,-1.00,+3.00,+31.00,+4.00,+0.00,-5.00,-9.00,+8.00,+1.00,-1.00
-4.00,-15.00,-13.00,-4.00,-13.00,-13.00,-7.00,+0.00,-3.00,+6.00,+4.00,+3.00,+4.00,-3.00,-5.00,-7.00
+16.00,+13.00,+2.00,-7.00,+0.00,+2.00,-6.00,-2.00,-15.00,-31.00,-9.00,+4.00,+6.00,+6.00,-1.00,+11.00
-9.00,-16.00,-3.00,-1.00,+4.00,-3.00,+6.00,+4.00,+61.00,+9.00,-3.00,-11.00,-11.00,+0.00,+17.00,+8.00
+25.00,+16.00,+1.00,+3.00,+5.00,+9.00,+2.00,+20.00,+6.00,+17.00,-3.00,-7.00,-3.00,-28.00,-25.00,-12.00
+2.00,+7.00,+7.00,+1.00,+4.00,+8.00,+1.00,-17.00,-17.00,-13.00,+3.00,+6.00,+2.00,+29.00,+34.00,+3.00
-20.00,-12.00,-2.00,-2.00,-4.00,+4.00,-2.00,-11.00,-11.00,+3.00,-8.00,-4.00,-4.00,-2.00,-6.00,-15.00
-6.00,-10.00,-4.00,-3.00,-5.00,+7.00,+6.00,-2.00,-18.00,-13.00,+5.00,+3.00,+8.00,-4.00,+6.00,+10.00
+25.00,+5.00,+1.00,-3.00,-18.00,-12.00,-7.00,+8.00,+2.00,+21.00,+9.00,+5.00,+4.00,-5.00,-3.00,+4.00
-59.00,+6.00,+4.00,+5.00,+0.00,+7.00,+2.00,-10.00,+18.00,+6.00,+1.00,-5.00,-7.00,-9.00,-10.00,-4.00
+62.00,+4.00,+4.00,+1.00,+10.00,+8.00,+3.00,+4.00,-16.00,-17.00,-8.00,+0.00,+2.00,-4.00,-6.00,-11.00
+6.00,+10.00,+9.00,+8.00,+23.00,+6.00,+4.00,+4.00,+10.00,-6.00,+0.00,+3.00,+0.00,+6.00,+5.00,-1.00
-24.00,-5.00,+0.00,-2.00,-2.00,-4.00,-1.00,-10.00,+46.00,+25.00,+7.00,+1.00,+0.00,-3.00,+3.00,+17.00
+4.00,-31.00,-23.00,-12.00,-2.00,-3.00,-8.00,-7.00,-24.00,-18.00,-15.00,-10.00,-13.00,-11.00,-21.00,-24.00
-1.00,+28.00,+12.00,+3.00,-13.00,-11.00,+5.00,+1.00,+22.00,+12.00,+12.00,+4.00,+8.00,+7.00,+9.00,+14.00
+5.00,+20.00,-1.00,-4.00,+2.00,+2.00,-6.00,+1.00,+30.00,+1.00,-4.00,+3.00,-1.00,-7.00,-5.00,+7.00
-7.00,-30.00,+9.00,+1.00,-3.00,+2.00,+0.00,+5.00,-42.00,-12.00,-1.00,-3.00,-2.00,-5.00,+1.00,-10.00
+5.00,+11.00,-6.00,-10.00,-4.00,-3.00,-2.00,+2.00,+13.00,+37.00,+14.00,+8.00,+2.00,-7.00,-4.00,-5.00
-7.00,-5.00,+0.00,+6.00,-1.00,-6.00,-4.00,+5.00,+77.00,+31.00,+0.00,+2.00,+1.00,+1.00,+4.00,+14.00
+14.00,-1.00,+7.00,+7.00,-2.00,-4.00,+3.00,+0.00,-12.00,-9.00,+2.00,+7.00,+2.00,+3.00,+2.00,+2.00
+3.00,+2.00,-8.00,-8.00,+1.00,+0.00,+1.00,-2.00,+0.00,-9.00,-6.00,-4.00,-7.00,-4.00,-3.00,-5.00
-16.00,-15.00,-3.00,+10.00,+1.00,-3.00,-3.00,+2.00,-13.00,-18.00,-4.00,-13.00,-9.00,-5.00,-7.00,+1.00
-10.00,+15.00,+5.00,-4.00,-10.00,-3.00,+0.00,-2.00,+8.00,+15.00,+10.00,+7.00,+6.00,+5.00,+2.00,+3.00
+15.00,+8.00,+10.00,-2.00,-6.00,-2.00,+0.00,+2.00,-27.00,-13.00,-10.00,-1.00,+3.00,+3.00,-4.00,-2.00
+18.00,+9.00,-2.00,+6.00,+10.00,-1.00,+1.00,-1.00,-1.00,-8.00,-2.00,-9.00,-7.00,-6.00,-3.00,-8.00
-27.00,-18.00,-8.00,-4.00,+3.00,+3.00,-2.00,-4.00,+5.00,+6.00,-4.00,+2.00,-6.00,-10.00,-11.00,+1.00
+15.00,+19.00,-3.00,-4.00,-13.00,-3.00,-7.00,-3.00,-34.00,-18.00,-11.00,-9.00,+0.00,+0.00,-3.00,+0.00
-3.00,-5.00,+2.00,+10.00,-4.00,+1.00,+4.00,+1.00,-1.00,+5.00,+11.00,+2.00,+1.00,-1.00,+2.00,-3.00
+8.00,+9.00,-1.00,-3.00,-2.00,-2.00,+1.00,+3.00,+0.00,-23.00,-3.00,+0.00,+1.00,+2.00,+6.00,+8.00
+10.00,+9.00,+7.00,-1.00,-11.00,-2.00,-3.00,-6.00,+28.00,+31.00,+5.00,+0.00,+0.00,+0.00,+0.00,-1.00
-22.00,-30.00,-18.00,-4.00,-4.00,+0.00,+2.00,-1.00,+24.00,+22.00,+8.00,+6.00,+3.00,+1.00,+1.00,+7.00
-6.00,+4.00,+3.00,+2.00,-11.00,-8.00,+0.00,+2.00,-1.00,+1.00,-4.00,+0.00,-4.00,-2.00,-3.00,+4.00
-8.00,-1.00,-3.00,-3.00,+5.00,+2.00,-3.00,-7.00,-38.00,-17.00,-6.00,-5.00,-6.00,-4.00,-5.00,-15.00
+0.00,+1.00,+16.00,+3.00,+4.00,+0.00,-2.00,-3.00,-7.00,-15.00,+3.00,+2.00,+1.00,-3.00,-4.00,+11.00
-7.00,-23.00,-5.00,+0.00,-1.00,-4.00,-1.00,-2.00,+7.00,+11.00,+11.00,+6.00,+3.00,+2.00,+4.00,-22.00
-2.00,+11.00,+16.00,+9.00,+3.00,+0.00,+1.00,+4.00,-29.00,-17.00,-14.00,-8.00,-6.00,-2.00,-3.00,+3.00
+12.00,+2.00,-7.00,+9.00,+9.00,+1.00,+2.00,+6.00,+32.00,+24.00,+3.00,+0.00,-1.00,-1.00,+1.00,+10.00
-8.00,-10.00,-2.00,-12.00,-5.00,-4.00,-2.00,-9.00,+2.00,+2.00,+8.00,+7.00,+2.00,+0.00,+1.00,+8.00
+10.00,+5.00,+3.00,+0.00,+3.00,+1.00,+2.00,-1.00,-9.00,-24.00,-33.00,-27.00,-1.00,-1.00,-1.00,+6.00
-7.00,-5.00,-9.00,-4.00,-6.00,-7.00,-4.00,+2.00,+1.00,-1.00,+9.00,+5.00,+1.00,+1.00,+3.00,-8.00
-5.00,+2.00,+13.00,+8.00,+11.00,+2.00,-6.00,-10.00,-8.00,-5.00,-9.00,-2.00,-2.00,-5.00,-9.00,-5.00
-5.00,+7.00,+5.00,+6.00,-5.00,-2.00,+0.00,+19.00,+6.00,-3.00,-7.00,-11.00,-2.00,-3.00,-2.00,-1.00
+15.00,-9.00,-7.00,-7.00,-2.00,-2.00,+5.00,+1.00,-3.00,+10.00,+15.00,+11.00,+4.00,+1.00,+5.00,+11.00
-9.00,-1.00,+1.00,-3.00,-1.00,+1.00,-4.00,-9.00,-7.00,-6.00,-6.00,-4.00,+0.00,-3.00,-3.00,-10.00
+12.00,-2.00,+2.00,+3.00,-11.00,-5.00,-4.00,-6.00,-2.00,-4.00,-9.00,-8.00,-3.00,+0.00,-1.00,-2.00
+16.00,+4.00,-12.00,-7.00,-4.00,-5.00,-4.00,-13.00,-8.00,-9.00,+7.00,+6.00,+0.00,-1.00,-1.00,-2.00
-10.00,-1.00,-16.00,+2.00,+3.00,+4.00,+4.00,+18.00,-9.00,-8.00,-3.00,+2.00,-4.00,+0.00,-3.00,-3.00
-4.00,-23.00,-12.00,-8.00,+5.00,+2.00,+2.00,+3.00,+10.00,+5.00,-5.00,-4.00,-4.00,-1.00,+0.00,+0.00
+3.00,+9.00,+8.00,+1.00,+4.00,+3.00,+5.00,+9.00,-4.00,+5.00,+9.00,+8.00,+0.00,-1.00,+2.00,-5.00
-10.00,-15.00,-17.00,-4.00,-3.00,+0.00,-3.00,-9.00,+7.00,-6.00,-7.00,-5.00,-2.00,-1.00,-2.00,+3.00
+11.00,+1.00,+12.00,+6.00,+3.00,-4.00,-6.00,-1.00,-3.00,-2.00,-4.00,-5.00,-3.00,-2.00,-4.00,-1.00
-4.00,+2.00,+0.00,-4.00,-9.00,-4.00,-2.00,-6.00,-22.00,-15.00,-1.00,+2.00,+0.00,+0.00,-2.00,-3.00
-10.00,-10.00,-11.00,+2.00,+6.00,-1.00,-3.00,-10.00,+13.00,+7.00,-8.00,-5.00,-2.00,-1.00,+1.00,+5.00
+8.00,+9.00,+10.00,-4.00,+0.00,+0.00,-1.00,+4.00,-8.00,-6.00,-1.00,+0.00,+0.00,-1.00,-1.00,-14.00
-12.00,-7.00,-18.00,-12.00,-5.00,-2.00,-1.00,+3.00,+2.00,+1.00,+5.00,+0.00,-5.00,-4.00,-5.00,+4.00
-11.00,-11.00,-5.00,-1.00,+2.00,+0.00,+0.00,+7.00,+7.00,-4.00,-17.00,-10.00,-4.00,-1.00,-4.00,-5.00
-10.00,-5.00,-3.00,-7.00,-3.00,-1.00,-1.00,-8.00,+0.00,-4.00,+0.00,-3.00,+1.00,-2.00,+1.00,+3.00
+20.00,+9.00,+6.00,+5.00,+0.00,-1.00,+3.00,+3.00,-5.00,-6.00,-9.00,-4.00,+0.00,-1.00,-1.00,+3.00
-12.00,+0.00,+5.00,+3.00,-3.00,-1.00,-5.00,-4.00,+1.00,+17.00,+17.00,+9.00,+2.00,+0.00,+0.00,-3.00
+10.00,+9.00,-13.00,-3.00,-4.00,-2.00,+0.00,-5.00,-1.00,-3.00,+9.00,+5.00,+2.00,+0.00,+1.00,-6.00
+14.00,-1.00,+10.00,+4.00,-1.00,+2.00,+2.00,+7.00,+0.00,-17.00,-18.00,-12.00,-2.00,-2.00,+0.00,+6.00
-7.00,-15.00,+9.00,-1.00,+1.00,+2.00,+2.00,+2.00,+3.00,+7.00,+0.00,-4.00,-1.00,+0.00,-2.00,-4.00
-31.00,-15.00,+3.00,-11.00,-7.00,-5.00,-3.00,-10.00,-10.00,-10.00,-1.00,-1.00,+0.00,-2.00,-2.00,-5.00
-3.00,+15.00,-11.00,+3.00,+2.00,+1.00,-1.00,-7.00,+0.00,+11.00,+5.00,+1.00,-2.00,+0.00,+1.00,-6.00
+5.00,-14.00,-21.00,-5.00,-1.00,+0.00,+1.00,+6.00,+3.00,+4.00,+0.00,+0.00,-2.00,+0.00,+0.00,+1.00
+10.00,+16.00,+3.00,+5.00,+0.00,-1.00,+2.00,+4.00,-13.00,-4.00,+4.00,+3.00,-1.00,-4.00,-8.00,-11.00
-2.00,-6.00,+6.00,+4.00,+2.00,-1.00,-1.00,+0.00,+1.00,-5.00,+0.00,-1.00,-2.00,-1.00,+2.00,+11.00
-14.00,+4.00,+16.00,+2.00,+1.00,+1.00,-3.00,-10.00,-2.00,+2.00,-4.00,-1.00,-1.00,-1.00,+1.00,+7.00
-10.00,-10.00,-26.00,-13.00,-8.00,-3.00,-1.00,-2.00,+8.00,+2.00,+2.00,+2.00,+0.00,-2.00,-1.00,-3.00
-6.00,+1.00,-5.00,-13.00,-8.00,-6.00,-3.00,-3.00,-8.00,-10.00,-2.00,-3.00,-3.00,-2.00,+0.00,+8.00
+14.00,+13.00,+14.00,+8.00,+0.00,+0.00,+1.00,-1.00,+17.00,+21.00,+2.00,+2.00,+0.00,-1.00,-2.00,+1.00
+7.00,-2.00,-4.00,+4.00,+5.00,+2.00,+3.00,+6.00,-3.00,-11.00,-2.00,+1.00,+0.00,+1.00,+6.00,-1.00
-4.00,+7.00,+13.00,+5.00,+4.00,+3.00,+1.00,+0.00,-1.00,+3.00,+6.00,+0.00,+0.00,-2.00,-2.00,+0.00
+21.00,-3.00,-5.00,-5.00,+2.00,-2.00,-3.00,-8.00,-28.00,-12.00,+0.00,+1.00,-1.00,+0.00,-3.00,-12.00
-20.00,-17.00,-18.00,+0.00,-1.00,+0.00,+5.00,+10.00,+2.00,-3.00,-13.00,-3.00,-2.00,-1.00,+4.00,+13.00
+9.00,-6.00,-1.00,-3.00,-3.00,+0.00,+0.00,+6.00,+3.00,+3.00,+5.00,+1.00,+0.00,+0.00,-4.00,-11.00
+4.00,+17.00,+11.00,+0.00,-1.00,-2.00,-3.00,+2.00,-2.00,-4.00,+0.00,+5.00,+0.00,-3.00,-4.00,-5.00
-19.00,-14.00,-16.00,-7.00,-3.00,+0.00,-3.00,-11.00,+4.00,-4.00,-8.00,-8.00,-4.00,-1.00,+3.00,+6.00
-1.00,+5.00,+5.00,+0.00,-2.00,-2.00,-4.00,-9.00,-3.00,+0.00,+4.00,+1.00,+1.00,-1.00,+0.00,+1.00
-1.00,+1.00,-3.00,-5.00,-4.00,-2.00,-4.00,-5.00,-2.00,+4.00,+5.00,+4.00,+0.00,-1.00,-3.00,-6.00
-7.00,-16.00,+2.00,-3.00,-2.00,-1.00,+0.00,-3.00,-6.00,-12.00,-7.00,-11.00,-2.00,-1.00,+0.00,+4.00
-1.00,+12.00,+7.00,+9.00,+5.00,+2.00,-1.00,+5.00,+11.00,+1.00,-1.00,+1.00,+0.00,+0.00,+2.00,+4.00
+4.00,+11.00,-1.00,-3.00,+2.00,+2.00,-2.00,-7.00,-3.00,-2.00,-4.00,+0.00,-2.00,-2.00,+0.00,-8.00
-7.00,-34.00,-22.00,-7.00,-5.00,-4.00,-1.00,+4.00,+6.00,+3.00,+0.00,-3.00,-3.00,-1.00,-2.00,-7.00
+9.00,+12.00,+0.00,-1.00,+1.00,-2.00,-3.00,+0.00,-2.00,-2.00,-1.00,+3.00,-3.00,-1.00,-5.00,-13.00
-10.00,-2.00,+8.00,+5.00,-1.00,-2.00,+5.00,+5.00,+3.00,+5.00,+3.00,-1.00,-3.00,+0.00,+0.00,+5.00
-5.00,-11.00,-2.00,-3.00,+0.00,+0.00,-2.00,-4.00,-4.00,-8.00,-7.00,-4.00,-3.00,-2.00,+0.00,-3.00
-1.00,+10.00,+8.00,-4.00,-3.00,-2.00,-2.00,-11.00,-5.00,-4.00,+0.00,+1.00,+0.00,-2.00,-2.00,+2.00
-11.00,-2.00,-1.00,+1.00,-4.00,-2.00,+1.00,-3.00,-3.00,+1.00,+1.00,+2.00,+2.00,-1.00,-2.00,-1.00
+5.00,-7.00,-5.00,-3.00,-1.00,+0.00,+1.00,+17.00,+3.00,+1.00,-4.00,+0.00,+2.00,+0.00,-1.00,-2.00
+3.00,+1.00,-10.00,+2.00,-2.00,-5.00,-4.00,-5.00,-6.00,-9.00,+2.00,-2.00,+0.00,-1.00,-2.00,+1.00
-5.00,-7.00,-18.00,-5.00,-2.00,+0.00,-2.00,-4.00,+1.00,+2.00,+1.00,-4.00,-3.00,-2.00,-5.00,-2.00
+6.00,+6.00,+3.00,+2.00,+5.00,+1.00,-2.00,-2.00,-6.00,-8.00,-13.00,-3.00,+0.00,+0.00,+2.00,+2.00
+7.00,+0.00,-2.00,+0.00,-3.00,-2.00,-3.00,-3.00,+4.00,+3.00,+3.00,+3.00,-1.00,-1.00,-1.00,-3.00
-12.00,-1.00,+7.00,+1.00,+1.00,-1.00,+1.00,+6.00,-2.00,+4.00,+2.00,+0.00,+0.00,+0.00,-3.00,-5.00
+12.00,+8.00,+2.00,+2.00,+1.00,+0.00,+0.00,-3.00,+1.00,+3.00,+7.00,+3.00,+2.00,+0.00,+4.00,+5.00
-7.00,-4.00,-3.00,-1.00,-1.00,+2.00,+0.00,-2.00,-4.00,-22.00,-25.00,-10.00,-5.00,-1.00,-4.00,-6.00
-7.00,+0.00,-3.00,+2.00,+3.00,+0.00,+0.00,-2.00,-4.00,+1.00,+2.00,-3.00,-4.00,-2.00,-1.00,-5.00
+1.00,-5.00,-5.00,-7.00,-6.00,-6.00,-4.00,-7.00,+1.00,-4.00,-4.00,+2.00,+1.00,+1.00,-3.00,-8.00
+10.00,+12.00,+14.00,+8.00,+3.00,+0.00,+2.00,+6.00,+2.00,+4.00,+0.00,-1.00,-1.00,-2.00,-1.00,+3.00
-2.00,+6.00,-7.00,-3.00,+1.00,+0.00,-1.00,+1.00,+0.00,+13.00,+16.00,+5.00,+2.00,-1.00,+6.00,+7.00
-7.00,-3.00,-6.00,-5.00,-2.00,-2.00,-2.00,-2.00,+1.00,-9.00,-9.00,-5.00,-3.00,-1.00,-3.00,+0.00
+18.00,+14.00,+14.00,+1.00,-1.00,+2.00,+1.00,+2.00,-5.00,-5.00,-4.00,+0.00,-1.00,-2.00,-4.00,-1.00
-19.00,-11.00,-11.00,-3.00,-3.00,-1.00,+0.00,-1.00,+1.00,+1.00,-4.00,-3.00,+0.00,-1.00,+0.00,+4.00
-8.00,-6.00,+7.00,+3.00,+3.00,-5.00,-4.00,-8.00,+0.00,+5.00,+3.00,+1.00,-1.00,+1.00,-1.00,-3.00
+18.00,+0.00,-19.00,-10.00,-5.00,-2.00,+1.00,+3.00,+3.00,+7.00,+3.00,+2.00,+0.00,-2.00,+0.00,+4.00
-4.00,-3.00,-2.00,-1.00,-3.00,+0.00,+1.00,-2.00,-9.00,-2.00,+4.00,+0.00,+0.00,-5.00,+1.00,-8.00
-10.00,+1.00,+18.00,+3.00,+1.00,+0.00,-5.00,-1.00,-8.00,-12.00,-8.00,-2.00,+2.00,+11.00,-5.00,-3.00
+4.00,-8.00,-23.00,-6.00,-6.00,-1.00,-1.00,+1.00,+1.00,+5.00,+6.00,-3.00,-7.00,-8.00,+0.00,+3.00
-8.00,-10.00,-5.00,-3.00,-2.00,-1.00,-1.00,-5.00,+3.00,+6.00,-2.00,-2.00,+5.00,-2.00,+2.00,+4.00
+7.00,+1.00,+0.00,+8.00,+1.00,+2.00,+3.00,+6.00,-3.00,+2.00,+2.00,+1.00,+1.00,-3.00,-8.00,-7.00
-4.00,+11.00,+15.00,-8.00,-5.00,-2.00,-5.00,-8.00,+3.00,-2.00,-2.00,+0.00,+0.00,-1.00,-2.00,+0.00
+3.00,+1.00,+3.00,-1.00,-1.00,+1.00,+2.00,+9.00,-4.00,-3.00,+1.00,-1.00,+1.00,+9.00,+8.00,+1.00
-9.00,+8.00,+10.00,-2.00,-10.00,-6.00,-4.00,-6.00,-2.00,+1.00,-1.00,-3.00,-7.00,-5.00,-3.00,-1.00
+4.00,-15.00,-26.00,-1.00,-5.00,-1.00,-2.00,-6.00,+1.00,+5.00,+7.00,+3.00,-3.00,-6.00,+1.00,+0.00
-1.00,+1.00,+5.00,+0.00,-5.00,+7.00,+7.00,+7.00,+3.00,-8.00,-8.00,-1.00,-2.00,+2.00,-2.00,+0.00
-2.00,-5.00,-4.00,-5.00,-4.00,-1.00,-3.00,-6.00,-2.00,+4.00,+1.00,-1.00,-7.00,-11.00,-5.00,-4.00
-3.00,+1.00,-3.00,+0.00,+12.00,+2.00,-2.00,-2.00,+0.00,-7.00,-5.00,-3.00,+5.00,+2.00,+2.00,+1.00
+4.00,+5.00,+15.00,+4.00,+0.00,-11.00,-4.00,+9.00,-1.00,-1.00,-1.00,-2.00,+1.00,+2.00,+4.00,+3.00
+3.00,-2.00,+5.00,+6.00,+5.00,+3.00,+2.00,+3.00,+0.00,+12.00,+16.00,+1.00,+0.00,+5.00,+0.00,+1.00
-6.00,-8.00,-10.00,-10.00,+0.00,+1.00,-1.00,-5.00,-5.00,-19.00,-27.00,-7.00,-1.00,-6.00,-5.00,-3.00
-4.00,-9.00,-13.00,-3.00,+1.00,+0.00,-2.00,-1.00,+0.00,-7.00,-5.00,-1.00,-1.00,-3.00,-3.00,-1.00
+2.00,-1.00,-7.00,-5.00,-3.00,+2.00,-1.00,-1.00,-3.00,-3.00,-1.00,-2.00,+2.00,+1.00,-4.00,-1.00
+1.00,+2.00,+6.00,+11.00,+10.00,-4.00,-4.00,-1.00,+3.00,+8.00,+5.00,-1.00,-1.00,-2.00,+0.00,+0.00
-2.00,+3.00,+11.00,+0.00,-1.00,+4.00,+1.00,-1.00,+1.00,+5.00,+8.00,+2.00,+1.00,+4.00,+0.00,+2.00
-11.00,-7.00,-13.00,-11.00,-10.00,-11.00,-6.00,-6.00,+0.00,+2.00,+1.00,+1.00,-1.00,+0.00,-2.00,-1.00
+5.00,+4.00,+5.00,+2.00,+5.00,+5.00,+3.00,+3.00,-1.00,-1.00,-3.00,-4.00,+5.00,+19.00,+0.00,+2.00
+0.00,+3.00,+7.00,-4.00,-3.00,-1.00,-2.00,-5.00,-4.00,-5.00,-6.00,-1.00,-12.00,-17.00,-2.00,-8.00
-5.00,+0.00,-8.00,+6.00,+4.00,-1.00,-3.00,-1.00,+3.00,+2.00,+4.00,-1.00,-8.00,-32.00,+2.00,+12.00
-4.00,-9.00,+2.00,+3.00,+1.00,-1.00,-3.00,+0.00,-4.00,-5.00,-2.00,-4.00,+1.00,+0.00,-4.00,-4.00
+1.00,+2.00,-6.00,-2.00,+5.00,+7.00,+6.00,+7.00,+1.00,+3.00,+3.00,+0.00,-5.00,-4.00,-1.00,+0.00
+3.00,+4.00,+5.00,+5.00,-4.00,+0.00,+2.00,+1.00,-5.00,-5.00,-11.00,-3.00,+5.00,+9.00,+3.00,+3.00
