+1.00,+0.00,+1.00,+1.00,+0.00,+0.00,-1.00,+1.00,-3.00,+10.00,+3.00,-1.00,-1.00,-1.00,+1.00,+1.00
-7.00,-7.00,-4.00,-2.00,-1.00,+0.00,+0.00,-2.00,-1.00,+3.00,-1.00,-2.00,-1.00,-2.00,-1.00,-2.00
-1.00,-4.00,-1.00,+0.00,-4.00,-1.00,-1.00,-2.00,-5.00,-3.00,-3.00,-3.00,-1.00,-2.00,-2.00,-3.00
+5.00,-1.00,-1.00,+0.00,+1.00,+0.00,+1.00,+1.00,+0.00,-11.00,-7.00,-4.00,+0.00,-2.00,+0.00,-1.00
-3.00,+1.00,+0.00,-2.00,-2.00,-1.00,-1.00,+0.00,+8.00,+4.00,+2.00,+0.00,+1.00,-1.00,+0.00,+5.00
-7.00,-5.00,+3.00,-1.00,-1.00,+0.00,+0.00,-2.00,-3.00,+2.00,-1.00,+0.00,+1.00,+1.00,-1.00,-1.00
+6.00,+8.00,+3.00,+3.00,-1.00,-1.00,+0.00,+2.00,+6.00,+0.00,+0.00,-1.00,-1.00,+0.00,+0.00,+3.00
-2.00,-4.00,-4.00,-1.00,-2.00,+0.00,+0.00,-1.00,-15.00,-15.00,-6.00,-4.00,-2.00,-2.00,-3.00,-7.00
-1.00,-1.00,-5.00,-2.00,-1.00,-1.00,+0.00,-1.00,+3.00,+2.00,+2.00,-2.00,-1.00,-2.00,+0.00,+1.00
-5.00,+6.00,+1.00,+1.00,+0.00,+0.00,-1.00,-1.00,+3.00,+1.00,+0.00,+2.00,+1.00,+0.00,+1.00,+3.00
+1.00,-3.00,-4.00,-2.00,+0.00,+1.00,+0.00,-1.00,+2.00,+6.00,-1.00,-2.00,+1.00,-1.00,-2.00,-2.00
-3.00,-6.00,-1.00,+1.00,+0.00,+0.00,-1.00,+0.00,-13.00,-2.00,+0.00,-1.00,-4.00,-1.00,-2.00,-3.00
-3.00,-20.00,+0.00,-1.00,-2.00,+1.00,-1.00,-3.00,+8.00,-2.00,+1.00,-1.00,-1.00,+2.00,-1.00,+1.00
-1.00,+23.00,+2.00,-3.00,-2.00,-1.00,-2.00,-2.00,-5.00,-13.00,-6.00,-1.00,-2.00,-1.00,-2.00,-4.00
+2.00,+4.00,+4.00,+0.00,+0.00,-1.00,-1.00,+0.00,-35.00,-9.00,-7.00,-4.00,-4.00,-2.00,-3.00,-8.00
+3.00,+10.00,+2.00,-1.00,-1.00,+0.00,+0.00,+0.00,+55.00,+36.00,+13.00,+2.00,+1.00,+2.00,+5.00,+16.00
-9.00,-8.00,-13.00,+0.00,-2.00,-2.00,-3.00,-5.00,-3.00,+0.00,+0.00,+1.00,+2.00,-1.00,+0.00,-1.00
+3.00,-14.00,-14.00,-5.00,-4.00,-1.00,-1.00,+0.00,+7.00,+3.00,+0.00,-3.00,-2.00,-1.00,-1.00,+2.00
-3.00,+3.00,+4.00,-1.00,-1.00,-1.00,+0.00,+0.00,-2.00,-7.00,-3.00,-2.00,-1.00,-1.00,-2.00,-4.00
-6.00,-11.00,-9.00,+0.00,-2.00,-3.00,-2.00,-3.00,-26.00,-19.00,-5.00,-1.00,+0.00,+0.00,-4.00,-6.00
+6.00,+13.00,+7.00,-2.00,-2.00,-4.00,-2.00,+0.00,+3.00,-8.00,-1.00,+1.00,-1.00,-2.00,-1.00,+1.00
+0.00,+1.00,+6.00,+3.00,+1.00,+1.00,+1.00,+1.00,-3.00,+4.00,-1.00,+1.00,+2.00,+1.00,+1.00,+1.00
-2.00,-6.00,-6.00,+0.00,+0.00,+0.00,+0.00,-1.00,-9.00,-17.00,-7.00,-3.00,-1.00,-1.00,-3.00,-7.00
-2.00,+2.00,+6.00,+0.00,-1.00,+1.00,-1.00,-3.00,+7.00,+10.00,+1.00,+2.00,-1.00,-1.00,-1.00,+1.00
-2.00,-15.00,-14.00,-5.00,-2.00,+0.00,-1.00,+1.00,+14.00,+17.00,+2.00,+2.00,-1.00,-8.00,-3.00,+3.00
+0.00,-3.00,-2.00,-4.00,-1.00,-2.00,-1.00,-2.00,-12.00,-6.00,-4.00,+0.00,-2.00,+3.00,-3.00,-7.00
-2.00,+2.00,+8.00,-1.00,+1.00,+0.00,-1.00,-2.00,+17.00,+12.00,+1.00,+3.00,+1.00,+2.00,+0.00,+3.00
+8.00,+10.00,-5.00,+0.00,-2.00,+0.00,+1.00,+1.00,+4.00,+12.00,+9.00,+0.00,-1.00,+2.00,+5.00,+10.00
-4.00,+2.00,+1.00,-3.00,-3.00,-3.00,+0.00,-1.00,-24.00,-25.00,-11.00,-3.00,-3.00,-3.00,-5.00,-12.00
+5.00,-3.00,+0.00,+1.00,+0.00,-1.00,-1.00,+2.00,+14.00,+7.00,+0.00,-5.00,-3.00,-3.00,-1.00,+0.00
-5.00,+3.00,-4.00,+2.00,-1.00,-1.00,-1.00,-3.00,+7.00,+4.00,+2.00,+1.00,+1.00,-1.00,+2.00,+4.00
-3.00,-3.00,+2.00,-2.00,+0.00,-1.00,-2.00,-4.00,+12.00,+9.00,+5.00,+0.00,+0.00,+0.00,+3.00,+5.00
-3.00,+1.00,-1.00,+1.00,+2.00,+0.00,-1.00,+1.00,-2.00,+6.00,+4.00,+3.00,+1.00,-6.00,+2.00,+4.00
+8.00,-3.00,+2.00,+0.00,+0.00,-1.00,+0.00,+2.00,+1.00,-5.00,-1.00,-2.00,-1.00,+6.00,-1.00,+0.00
-7.00,+6.00,-1.00,-2.00,-2.00,-3.00,-2.00,-2.00,-10.00,-11.00,-6.00,-3.00,-2.00,+3.00,-2.00,-6.00
+0.00,+5.00,+0.00,-2.00,-1.00,-3.00,-1.00,+0.00,-18.00,-6.00,-5.00,-4.00,-4.00,-8.00,-7.00,-13.00
-2.00,+4.00,+5.00,+2.00,+1.00,+3.00,+1.00,+3.00,-9.00,+6.00,+2.00,-1.00,-1.00,+0.00,+1.00,+2.00
+6.00,+10.00,+7.00,+3.00,+2.00,-1.00,-2.00,-1.00,+7.00,-18.00,-7.00,-6.00,-1.00,-4.00,-2.00,-3.00
+3.00,+2.00,+0.00,+1.00,-2.00,-2.00,-3.00,-2.00,+14.00,+22.00,+8.00,+1.00,+0.00,-2.00,+3.00,+4.00
-6.00,-7.00,-4.00,-1.00,+0.00,+0.00,+2.00,+1.00,-24.00,-15.00,-7.00,-3.00,-3.00,-3.00,-5.00,-12.00
-2.00,-9.00,+0.00,-3.00,+0.00,-3.00,-4.00,+0.00,+19.00,-5.00,-4.00,+0.00,-2.00,+4.00,+2.00,+1.00
-3.00,-9.00,-4.00,-1.00,-1.00,-1.00,+0.00,-2.00,-3.00,-1.00,-4.00,-1.00,-1.00,-4.00,-1.00,+2.00
+1.00,+11.00,+1.00,-1.00,+0.00,-1.00,+2.00,+1.00,-21.00,-22.00,-6.00,-5.00,-3.00,-3.00,-3.00,-10.00
+1.00,+10.00,+4.00,-2.00,-4.00,-1.00,-3.00,-2.00,+15.00,+9.00,+2.00,+0.00,+0.00,-1.00,-2.00,+3.00
+0.00,-11.00,+2.00,+3.00,+1.00,+1.00,+1.00,-1.00,-20.00,-11.00,-2.00,-2.00,-1.00,-1.00,-3.00,-10.00
-3.00,+8.00,+3.00,-1.00,-2.00,-2.00,-3.00,-3.00,-11.00,-13.00,-4.00,-1.00,-1.00,-7.00,-5.00,-8.00
+3.00,-18.00,-6.00,-1.00,-1.00,+1.00,+3.00,+2.00,+2.00,+28.00,+11.00,+3.00,+3.00,+8.00,+4.00,+8.00
-11.00,-8.00,+0.00,+2.00,+0.00,-2.00,-2.00,-3.00,+14.00,+14.00,+1.00,-1.00,-1.00,+0.00,-1.00,+3.00
-3.00,-1.00,-5.00,-3.00,-2.00,-3.00,-2.00,-3.00,+6.00,-4.00,-4.00,-5.00,-3.00,+3.00,-3.00,-6.00
-3.00,-5.00,+2.00,-1.00,-2.00,-2.00,-1.00,-2.00,+19.00,+30.00,+13.00,-1.00,-4.00,-3.00,+3.00,+12.00
-5.00,-5.00,-6.00,-3.00,-2.00,-1.00,-2.00,-3.00,-8.00,-11.00,-3.00,-2.00,-4.00,-6.00,-5.00,-5.00
-3.00,+2.00,-6.00,-4.00,-3.00,-2.00,-5.00,-2.00,+6.00,-3.00,-2.00,+4.00,+4.00,+2.00,+3.00,+7.00
+8.00,+8.00,+2.00,+1.00,+2.00,+1.00,+7.00,+3.00,-15.00,-13.00,-9.00,-3.00,-1.00,+0.00,-4.00,-8.00
-8.00,-16.00,+1.00,+1.00,-1.00,-1.00,+1.00,-1.00,-15.00,-21.00,-7.00,-1.00,-1.00,-14.00,-1.00,-5.00
-1.00,-1.00,-1.00,-2.00,-2.00,-2.00,-9.00,-4.00,-7.00,-13.00,-6.00,-3.00,-2.00,+13.00,-3.00,-3.00
+6.00,-8.00,+3.00,+0.00,-1.00,+0.00,+6.00,+2.00,+35.00,+19.00,+4.00,+1.00,-3.00,-4.00,-2.00,+2.00
-3.00,+10.00,-2.00,-2.00,-2.00,-1.00,-4.00,-4.00,-12.00,-7.00,-2.00,+1.00,-1.00,-1.00,+0.00,-6.00
+8.00,+14.00,-1.00,+0.00,+0.00,+1.00,+1.00,+2.00,+24.00,+27.00,+7.00,+3.00,+3.00,-8.00,+0.00,+12.00
-3.00,-9.00,-2.00,-4.00,-3.00,-4.00,+0.00,+0.00,-20.00,-26.00,-9.00,+0.00,+1.00,+0.00,-10.00,-33.00
+0.00,-5.00,-5.00,-3.00,-1.00,+2.00,+2.00,-1.00,-10.00,-19.00,-7.00,-8.00,-7.00,-1.00,-4.00,-7.00
-6.00,-2.00,-6.00,-2.00,-3.00,-5.00,-5.00,-4.00,+36.00,+46.00,+14.00,-2.00,-4.00,-1.00,+3.00,+16.00
-3.00,-10.00,-2.00,+0.00,-1.00,+0.00,+1.00,-2.00,-36.00,-2.00,-1.00,-3.00,+0.00,+0.00,-4.00,-8.00
-2.00,-7.00,-2.00,-1.00,+1.00,+3.00,-1.00,-4.00,+4.00,-3.00,-1.00,+5.00,+3.00,-5.00,-2.00,+5.00
+4.00,+5.00,+4.00,+3.00,+2.00,+1.00,+0.00,+5.00,-13.00,-1.00,-2.00,-3.00,+3.00,-29.00,-6.00,-7.00
+32.00,+6.00,-1.00,-3.00,+1.00,+7.00,+7.00,+11.00,-30.00,-46.00,-17.00,+1.00,+6.00,+50.00,+2.00,-18.00
-16.00,-20.00,-11.00,-7.00,-7.00,-6.00,-12.00,-6.00,+30.00,+15.00,+10.00,-3.00,-5.00,+8.00,+0.00,+15.00
+6.00,-1.00,+7.00,+4.00,+0.00,+1.00,+9.00,+2.00,+29.00,+24.00,+3.00,-3.00,+4.00,-2.00,+4.00,+12.00
-11.00,+6.00,+0.00,+0.00,+0.00,-4.00,-5.00,+4.00,+13.00,+2.00,+2.00,+6.00,+0.00,+14.00,+9.00,+16.00
+9.00,-1.00,-1.00,+1.00,+3.00,+1.00,+0.00,-3.00,-18.00,-16.00,-7.00,-1.00,-4.00,-17.00,-4.00,-4.00
+5.00,+5.00,-1.00,-1.00,-3.00,-3.00,-12.00,-3.00,-16.00,+10.00,-2.00,-3.00,-2.00,-1.00,-1.00,-8.00
+13.00,-4.00,-8.00,-8.00,-6.00,+4.00,+12.00,+2.00,+14.00,-11.00,-1.00,+0.00,+0.00,+5.00,+3.00,+2.00
+3.00,+4.00,+8.00,+4.00,+2.00,-2.00,+1.00,+3.00,-26.00,+11.00,+4.00,-3.00,-6.00,-8.00,-6.00,-12.00
-5.00,+0.00,+4.00,+1.00,+4.00,+0.00,-1.00,+1.00,+8.00,+6.00,+8.00,+2.00,+2.00,-4.00,+1.00,+10.00
+7.00,+22.00,+8.00,+3.00,-2.00,-1.00,+2.00,+1.00,+28.00,+4.00,+1.00,-1.00,-3.00,+5.00,+0.00,+1.00
-9.00,-1.00,-1.00,-1.00,+0.00,+8.00,-7.00,-5.00,-38.00,-18.00,-9.00,-7.00,-7.00,-17.00,-5.00,-10.00
-5.00,-22.00,-10.00,-4.00,-8.00,-5.00,-4.00,-8.00,+38.00,+10.00,+0.00,+0.00,+3.00,+10.00,+9.00,+18.00
-5.00,+11.00,+2.00,+0.00,-3.00,-1.00,+1.00,-2.00,-20.00,+0.00,-2.00,-3.00,-6.00,-13.00,-7.00,-9.00
+1.00,-2.00,+0.00,-1.00,+1.00,-1.00,+2.00,-2.00,-2.00,+9.00,-1.00,+1.00,+2.00,-6.00,-1.00,-3.00
+7.00,+9.00,+7.00,+5.00,+3.00,+0.00,-1.00,+1.00,-31.00,-35.00,-18.00,-2.00,+1.00,+0.00,-5.00,-13.00
+1.00,+7.00,+2.00,-1.00,-1.00,+0.00,+3.00,+1.00,-37.00,-53.00,-12.00,-4.00,-2.00,+1.00,-3.00,+1.00
-20.00,-12.00,-8.00,-7.00,-6.00,-4.00,-9.00,-5.00,+24.00,+34.00,+8.00,-4.00,-3.00,-8.00,-2.00,+0.00
+8.00,+21.00,+11.00,+4.00,+1.00,+1.00,+6.00,+5.00,+4.00,+9.00,+7.00,+4.00,+0.00,-1.00,+2.00,-4.00
-5.00,-13.00,-8.00,-2.00,-2.00,-2.00,-3.00,-2.00,-6.00,-12.00,-7.00,+0.00,-2.00,-4.00,-2.00,+4.00
+5.00,+3.00,+1.00,+0.00,+3.00,+1.00,-3.00,-3.00,-19.00,-7.00,+2.00,-3.00,-3.00,-2.00,-9.00,-21.00
-15.00,-24.00,-15.00,-9.00,-3.00,-1.00,+1.00,+1.00,-25.00,-16.00,-7.00,+4.00,+14.00,-10.00,-1.00,-1.00
-34.00,+8.00,-1.00,-4.00,-3.00,-1.00,+1.00,-4.00,+7.00,-3.00,-7.00,-11.00,-28.00,-18.00,-9.00,-10.00
-13.00,-14.00,-4.00,-1.00,+2.00,-7.00,-4.00,+0.00,+32.00,+30.00,+16.00,+2.00,+1.00,+12.00,+10.00,+16.00
+12.00,+18.00,+9.00,+2.00,+1.00,+5.00,+1.00,+2.00,-26.00,+22.00,-5.00,-5.00,+2.00,-5.00,-5.00,-11.00
+2.00,-14.00,-5.00,+1.00,+2.00,-5.00,+0.00,+2.00,+11.00,-3.00,+3.00,-2.00,-10.00,-5.00,-5.00,-3.00
+11.00,+9.00,+9.00,+1.00,-7.00,+1.00,-7.00,+0.00,-42.00,-15.00,-11.00,-4.00,+11.00,+0.00,-7.00,-19.00
-9.00,-7.00,-4.00,-3.00,+0.00,-3.00,+9.00,+0.00,+30.00,-9.00,-1.00,+10.00,-3.00,-2.00,+5.00,+12.00
-12.00,-21.00,-11.00,-6.00,-7.00,-10.00,-8.00,-4.00,+2.00,+10.00,+7.00,-1.00,+6.00,-10.00,+7.00,+15.00
-4.00,+15.00,+4.00,+1.00,-2.00,+6.00,+10.00,+3.00,+7.00,+0.00,-2.00,-6.00,-7.00,+3.00,-4.00,-9.00
+8.00,-2.00,-11.00,-4.00,+3.00,+6.00,-9.00,-1.00,-21.00,-38.00,-17.00,+4.00,+10.00,+8.00,-3.00,-7.00
+6.00,+2.00,+7.00,+1.00,-4.00,-8.00,-5.00,-2.00,-6.00,+16.00,+8.00,-7.00,+0.00,-2.00,-4.00,-6.00
-6.00,-6.00,-12.00,-8.00,+1.00,-11.00,-4.00,-6.00,-15.00,-45.00,-18.00,-2.00,-5.00,-8.00,-5.00,-14.00
+8.00,+26.00,+24.00,+9.00,+9.00,+7.00,+3.00,+1.00,+7.00,+30.00,+14.00,+6.00,+9.00,+5.00,+12.00,+26.00
+6.00,+4.00,+4.00,+5.00,-10.00,+2.00,-2.00,+1.00,-31.00,-45.00,-17.00,-3.00,-4.00,+3.00,-2.00,-16.00
-1.00,-3.00,-5.00,-1.00,+1.00,+12.00,+7.00,+2.00,+27.00,+63.00,+23.00,+7.00,+6.00,-8.00,+3.00,+17.00
-7.00,-14.00,-13.00,-4.00,-1.00,-7.00,+3.00,-4.00,-30.00,-31.00,-12.00,-4.00,-5.00,+1.00,-13.00,-36.00
+6.00,+2.00,+0.00,-1.00,-2.00,+1.00,-5.00,-5.00,+57.00,+15.00,+3.00,+0.00,+10.00,+5.00,+5.00,+26.00
-19.00,-44.00,-14.00,-9.00,+1.00,-2.00,+1.00,-1.00,-23.00,-34.00,-13.00,-1.00,-6.00,+4.00,-2.00,-9.00
+39.00,+63.00,+28.00,+10.00,+3.00,+3.00,-3.00,+3.00,-27.00,-8.00,+1.00,-1.00,-6.00,-25.00,-5.00,-4.00
-32.00,-27.00,-13.00,-5.00,-2.00,+7.00,+0.00,-7.00,+36.00,+71.00,+23.00,+7.00,+1.00,+44.00,+10.00,+12.00
-6.00,+4.00,+3.00,+3.00,-2.00,-2.00,-1.00,-8.00,+45.00,-23.00,-13.00,-6.00,-13.00,-10.00,-2.00,+1.00
-3.00,-25.00,-10.00,-3.00,+0.00,-3.00,-1.00,-4.00,-21.00,-36.00,-4.00,+12.00,+20.00,+11.00,+10.00,+15.00
-14.00,+0.00,-3.00,+0.00,-1.00,-7.00,-8.00,-6.00,+46.00,+73.00,+19.00,-8.00,-9.00,-11.00,-6.00,+13.00
+8.00,+15.00,-1.00,-3.00,+3.00,-26.00,+2.00,+3.00,-40.00,-28.00,-11.00,+2.00,-2.00,-8.00,-4.00,-6.00
+4.00,-23.00,-1.00,-1.00,-2.00,+23.00,-4.00,-1.00,-17.00,+3.00,-6.00,-1.00,-3.00,-9.00,+2.00,-7.00
+8.00,+17.00,+16.00,+8.00,+5.00,-7.00,+0.00,+2.00,+39.00,+24.00,+4.00,+14.00,+8.00,+8.00,+2.00,+10.00
-21.00,-32.00,-18.00,-7.00,-6.00,+3.00,-3.00,-3.00,+14.00,-41.00,-19.00,-30.00,+3.00,-5.00,+1.00,+3.00
+13.00,+12.00,+9.00,+1.00,+10.00,+22.00,-13.00,-1.00,+23.00,-2.00,+1.00,+1.00,-19.00,+32.00,+11.00,+7.00
-4.00,-10.00,+0.00,+5.00,-11.00,-18.00,+9.00,+4.00,-39.00,+8.00,+7.00,+0.00,-2.00,-7.00,-5.00,-10.00
+8.00,-2.00,-6.00,+0.00,+7.00,-7.00,+1.00,+2.00,+17.00,+13.00,+3.00,-9.00,-2.00,-4.00,-2.00,+4.00
-2.00,-10.00,-5.00,-2.00,+0.00,+3.00,+14.00,+3.00,+22.00,+32.00,+8.00,+5.00,+14.00,+27.00,+4.00,+4.00
+6.00,+18.00,+6.00,-1.00,-9.00,-55.00,-8.00,-1.00,-18.00,+13.00,-1.00,-6.00,-24.00,-31.00,-12.00,-12.00
+5.00,+4.00,-5.00,-5.00,-3.00,-2.00,-26.00,-4.00,-4.00,-36.00,-17.00,-9.00,+4.00,-2.00,-4.00,-15.00
+10.00,+6.00,+8.00,+4.00,+0.00,+11.00,+17.00,+9.00,-19.00,-25.00,+1.00,+3.00,-16.00,-15.00,-7.00,-12.00
+10.00,+7.00,+3.00,+0.00,+0.00,+4.00,-7.00,-2.00,-17.00,-13.00,+0.00,+6.00,+4.00,+7.00,+3.00,+7.00
-1.00,+6.00,-3.00,-1.00,-1.00,+7.00,+5.00,-8.00,-15.00,-16.00,-9.00,-4.00,+10.00,+5.00,-4.00,-4.00
-9.00,+17.00,+10.00,+3.00,+1.00,-17.00,+7.00,+6.00,+24.00,+20.00,+10.00,+7.00,-6.00,+7.00,+1.00,+6.00
-5.00,-10.00,-13.00,-4.00,-2.00,+7.00,-8.00,-10.00,-35.00,-5.00,+0.00,-6.00,+13.00,-12.00,-5.00,-7.00
-19.00,-19.00,-12.00,-6.00,-2.00,-6.00,-7.00,+3.00,+21.00,+41.00,+14.00,+0.00,-12.00,-1.00,+0.00,+5.00
+8.00,-5.00,+4.00,+1.00,+1.00,+24.00,+8.00,+3.00,+11.00,-28.00,-4.00,+2.00,-1.00,-12.00,-2.00,+3.00
+1.00,+12.00,+5.00,+0.00,-4.00,-3.00,-4.00,-1.00,-22.00,+7.00,+4.00,-1.00,-2.00,+8.00,-5.00,-11.00
-17.00,-6.00,-8.00,-4.00,-3.00,-11.00,-2.00,-8.00,+14.00,+37.00,+11.00,-3.00,-2.00,+8.00,+7.00,+17.00
+8.00,+10.00,+7.00,+5.00,+3.00,+0.00,-1.00,+4.00,-64.00,-110.00,-36.00,-2.00,+5.00,-8.00,-11.00,-36.00
-8.00,-26.00,-9.00,-2.00,-8.00,-9.00,-2.00,-2.00,+11.00,+67.00,+22.00,-4.00,-2.00,-3.00,-5.00,+6.00
+5.00,-5.00,+1.00,-1.00,+4.00,+26.00,+1.00,+1.00,-50.00,-64.00,-25.00,-5.00,-4.00,-42.00,-14.00,-20.00
-12.00,+4.00,-6.00,-3.00,+5.00,+4.00,+4.00,+1.00,+77.00,+46.00,+12.00,-3.00,-3.00,+4.00,+16.00,+11.00
-3.00,-7.00,+0.00,-3.00,-3.00,-6.00,-7.00,-8.00,-116.00,-29.00,-12.00,+1.00,-10.00,-7.00,-18.00,-37.00
+2.00,+14.00,+10.00,+5.00,+0.00,+9.00,-2.00,+2.00,+100.00,+3.00,+4.00,+20.00,+28.00,+1.00,+23.00,+51.00
-21.00,-40.00,-22.00,-8.00,-4.00,+1.00,+2.00,-5.00,-12.00,-15.00,-6.00,-13.00,-14.00,+1.00,-5.00,-16.00
+5.00,+17.00,+7.00,+3.00,-2.00,-17.00,+14.00,+4.00,-48.00,-49.00,-15.00,-13.00,-15.00,-40.00,-18.00,-11.00
-7.00,-27.00,-12.00,-8.00,-10.00,+8.00,-14.00,-6.00,+7.00,+34.00,+6.00,-1.00,-26.00,-3.00,-3.00,-5.00
+16.00,+18.00,+10.00,+4.00,-2.00,+4.00,+3.00,+7.00,-6.00,-3.00,-1.00,+4.00,+28.00,+45.00,+7.00,-1.00
-11.00,-24.00,-14.00,-5.00,+12.00,+5.00,+1.00,-9.00,+55.00,+33.00,+8.00,+7.00,+11.00,-12.00,+6.00,+22.00
+1.00,+26.00,+10.00,+5.00,+0.00,+28.00,+8.00,+12.00,-82.00,-70.00,-23.00,+3.00,-25.00,+15.00,-4.00,-25.00
-15.00,-10.00,-9.00,-8.00,-6.00,-25.00,-3.00,-6.00,+62.00,-21.00,-3.00,-6.00,+4.00,-26.00,-3.00,+10.00
-3.00,-8.00,+3.00,-3.00,+1.00,+5.00,-5.00,-4.00,+23.00,+22.00,+3.00,+1.00,+3.00,+2.00,-5.00,+11.00
+7.00,+22.00,+9.00,+3.00,-1.00,-12.00,+8.00,+0.00,-29.00,-16.00,-4.00,+12.00,+55.00,+18.00,+12.00,+6.00
+6.00,-1.00,-2.00,+0.00,+9.00,+4.00,-18.00,-5.00,+6.00,+32.00,+9.00,-10.00,-45.00,-18.00,-13.00,+4.00
+3.00,+4.00,+5.00,+1.00,+5.00,-5.00,-2.00,+1.00,-40.00,+21.00,+0.00,+1.00,-10.00,+8.00,+0.00,-8.00
-7.00,-17.00,-12.00,-5.00,-3.00,+30.00,+6.00,+0.00,-90.00,-106.00,-35.00,-3.00,-7.00,-32.00,-14.00,-48.00
-19.00,-19.00,-16.00,-7.00,-3.00,-12.00,-3.00,-9.00,+56.00,+56.00,+21.00,+0.00,+7.00,-15.00,+4.00,+29.00
+9.00,-6.00,+4.00,+1.00,+1.00,+8.00,-8.00,+0.00,+11.00,+29.00,+3.00,-8.00,+27.00,+11.00,-9.00,-13.00
+10.00,-8.00,+1.00,+5.00,+11.00,-7.00,+2.00,+8.00,+0.00,-25.00,-2.00,+0.00,-27.00,-14.00,+7.00,+14.00
-11.00,+16.00,+2.00,+0.00,-6.00,+33.00,+5.00,-6.00,+23.00,+41.00,+4.00,-7.00,+0.00,-13.00,+4.00,+12.00
+10.00,+1.00,-3.00,-2.00,+10.00,+6.00,-2.00,+1.00,-31.00,-5.00,+0.00,+1.00,-8.00,+39.00,-5.00,-16.00
-20.00,-56.00,-36.00,-20.00,-27.00,-20.00,-5.00,-11.00,+64.00,+29.00,+8.00,+8.00,+1.00,-1.00,+15.00,+29.00
+3.00,+14.00,+10.00,+3.00,+3.00,+17.00,+3.00,+1.00,+14.00,+7.00,+2.00,+3.00,+65.00,+40.00,-1.00,-11.00
-5.00,-25.00,-9.00,+0.00,-6.00,-36.00,-6.00,+1.00,+3.00,-41.00,-18.00,-8.00,-48.00,-12.00,+7.00,+8.00
+11.00,+21.00,+10.00,+4.00,+7.00,+15.00,+13.00,+5.00,-43.00,-14.00,+1.00,+3.00,-17.00,-13.00,-7.00,-19.00
-4.00,-9.00,-3.00,-4.00,-4.00,-8.00,+3.00,-1.00,+69.00,+36.00,+13.00,+15.00,+45.00,-23.00,+1.00,+24.00
+8.00,+48.00,+16.00,+5.00,+3.00,+4.00,-1.00,-1.00,-15.00,-47.00,-19.00,-10.00,-51.00,+19.00,+9.00,+1.00
-11.00,-10.00,+0.00,+2.00,+10.00,-1.00,+11.00,+3.00,-38.00,+15.00,+7.00,+1.00,+1.00,-5.00,-5.00,-1.00
-6.00,-3.00,+1.00,-5.00,-30.00,-56.00,-28.00,-5.00,+18.00,-11.00,-7.00,-3.00,-7.00,-1.00,-10.00,-1.00
+1.00,-9.00,-1.00,+1.00,+15.00,+15.00,+10.00,+3.00,-13.00,-53.00,-11.00,-12.00,-27.00,-20.00,-4.00,-29.00
+21.00,-2.00,-7.00,+0.00,+1.00,+30.00,-4.00,-6.00,+23.00,+63.00,+25.00,+16.00,+17.00,+44.00,+10.00,+21.00
-22.00,-13.00,-7.00,-3.00,+3.00,-5.00,+0.00,+5.00,+65.00,-7.00,-5.00,+2.00,-1.00,-4.00,+8.00,+21.00
+9.00,+16.00,+6.00,+0.00,-21.00,-64.00,-3.00,+1.00,-2.00,+10.00,-4.00,-15.00,+4.00,-17.00,-8.00,-2.00
+12.00,+23.00,+4.00,+1.00,+10.00,+17.00,+7.00,+1.00,-99.00,-56.00,-14.00,-3.00,-30.00,+10.00,-10.00,-40.00
-18.00,-36.00,-11.00,-4.00,-14.00,-4.00,+3.00,+0.00,+78.00,+13.00,+3.00,+5.00,+17.00,-3.00,+11.00,+37.00
-11.00,-11.00,-8.00,-6.00,+5.00,-22.00,-18.00,-12.00,-32.00,+40.00,+12.00,-7.00,-12.00,+3.00,+10.00,-1.00
+13.00,+21.00,+16.00,+7.00,+10.00,+3.00,-13.00,-3.00,-29.00,-13.00,-9.00,-1.00,+15.00,+30.00,+7.00,-12.00
-15.00,-12.00,-3.00,-2.00,-2.00,-29.00,-5.00,+7.00,+28.00,+60.00,+8.00,-2.00,+55.00,+6.00,+15.00,+30.00
-10.00,+2.00,-2.00,-2.00,-5.00,+6.00,+8.00,-3.00,-15.00,-30.00,-27.00,-13.00,-38.00,-26.00,-18.00,-28.00
+16.00,+37.00,+11.00,-1.00,+4.00,+29.00,-1.00,+1.00,+17.00,-25.00,+2.00,+13.00,+84.00,+8.00,+2.00,+14.00
-8.00,+0.00,+2.00,+3.00,+5.00,+17.00,+3.00,+2.00,-106.00,-58.00,-27.00,-20.00,-83.00,-58.00,-15.00,-17.00
+13.00,+22.00,+8.00,+3.00,+0.00,+2.00,-6.00,-1.00,+110.00,+81.00,+30.00,+9.00,-16.00,+38.00,+29.00,+34.00
-4.00,-15.00,-9.00,-6.00,+2.00,-2.00,-13.00,-4.00,-43.00,-24.00,-15.00,-9.00,-23.00,-37.00,-16.00,-31.00
+22.00,+13.00,+13.00,+4.00,-15.00,-96.00,-13.00,-1.00,-44.00,-2.00,-3.00,+1.00,+24.00,+11.00,-3.00,-4.00
+9.00,+18.00,-4.00,-4.00,+1.00,+69.00,+18.00,-3.00,+27.00,-8.00,+7.00,+17.00,+13.00,+1.00,+9.00,+19.00
-17.00,-7.00,+0.00,+1.00,-12.00,-17.00,-5.00,-8.00,-37.00,-57.00,-24.00,+2.00,+24.00,+13.00,-16.00,-32.00
+3.00,+22.00,-2.00,-5.00,-1.00,-9.00,-2.00,-3.00,-44.00,-28.00,-7.00,-7.00,+19.00,-19.00,+2.00,+6.00
+1.00,-8.00,+12.00,+12.00,+15.00,+61.00,+9.00,+7.00,+62.00,+28.00,+11.00,-5.00,-66.00,-21.00,-5.00,-1.00
-3.00,-16.00,-14.00,-7.00,-2.00,-20.00,-11.00,-3.00,-20.00,+7.00,+4.00,+0.00,+27.00,+29.00,+6.00,+2.00
+16.00,+4.00,+9.00,+2.00,-8.00,+11.00,+2.00,+3.00,-76.00,-67.00,-24.00,-2.00,-1.00,-2.00,-8.00,-19.00
-18.00,-12.00,+0.00,-3.00,-3.00,-6.00,+13.00,-5.00,+41.00,+92.00,+29.00,+19.00,+40.00,-5.00,+9.00,+17.00
-15.00,-10.00,-20.00,-11.00,+7.00,+12.00,-3.00,-12.00,-95.00,-42.00,-13.00,+6.00,+38.00,-15.00,-29.00,-52.00
+3.00,-10.00,-1.00,-3.00,-20.00,-51.00,-7.00,+14.00,+61.00,+36.00,+8.00,-15.00,-111.00,-12.00,+5.00,+27.00
+3.00,+11.00,+10.00,+8.00,+36.00,+106.00,+29.00,+6.00,-25.00,+19.00,-9.00,-13.00,-6.00,-19.00,-17.00,-26.00
-1.00,-18.00,-5.00,+2.00,+0.00,-24.00,-2.00,+1.00,-15.00,-37.00,-4.00,+1.00,+25.00,+10.00,+5.00,-6.00
-7.00,+21.00,-6.00,-5.00,-3.00,-18.00,-1.00,-6.00,-18.00,-20.00,-1.00,+11.00,-2.00,-27.00,+1.00,+12.00
+12.00,+1.00,+7.00,+8.00,+6.00,-6.00,+13.00,+9.00,+37.00,+59.00,+19.00,+10.00,+56.00,+5.00,-4.00,+5.00
-7.00,-30.00,-21.00,-13.00,-25.00,-78.00,-9.00,-3.00,+33.00,+27.00,+1.00,-8.00,-40.00,+10.00,+5.00,+15.00
+8.00,+36.00,+20.00,+11.00,+29.00,+54.00,+14.00,+8.00,-42.00,-42.00,-4.00,-17.00,-11.00,+0.00,-7.00,-11.00
-11.00,-47.00,-30.00,-10.00,-6.00,+33.00,-1.00,-5.00,+55.00,+58.00,+16.00,-4.00,-17.00,+27.00,+4.00,+14.00
-2.00,+31.00,+25.00,+6.00,+8.00,+7.00,+1.00,-3.00,-54.00,-63.00,-23.00,-2.00,+28.00,+6.00,-8.00,-39.00
-7.00,+1.00,+0.00,-3.00,-1.00,-51.00,-18.00,-9.00,+18.00,+21.00,+17.00,+11.00,+10.00,+3.00,+12.00,+37.00
+11.00,+6.00,+8.00,+3.00,-13.00,-2.00,-2.00,+6.00,+27.00,+86.00,+29.00,+5.00,-21.00,+2.00,-6.00,+21.00
-5.00,-27.00,-8.00,-2.00,+2.00,+7.00,+3.00,-1.00,+83.00,-23.00,-7.00,+2.00,+36.00,+18.00,+14.00,+11.00
-4.00,+2.00,-10.00,-6.00,-4.00,+6.00,+1.00,-8.00,-40.00,-18.00,-15.00,-14.00,+18.00,-10.00,-13.00,-17.00
-8.00,-4.00,+10.00,+5.00,+4.00,-49.00,-21.00,-6.00,-8.00,+16.00,+11.00,-5.00,-48.00,-3.00,+6.00,+3.00
-6.00,-36.00,-24.00,-10.00,-2.00,-24.00,-11.00,-8.00,-22.00,-40.00,-14.00,-4.00,+61.00,-37.00,-10.00,+7.00
+38.00,+96.00,+38.00,+15.00,-18.00,-66.00,+13.00,+11.00,-11.00,+44.00,+7.00,-9.00,-55.00,-9.00,-16.00,-8.00
+3.00,-8.00,+5.00,+5.00,+15.00,+38.00,+0.00,+5.00,+41.00,-13.00,-5.00,+2.00,+34.00,+48.00,+6.00,+27.00
-15.00,-17.00,-3.00,+3.00,-24.00,+52.00,+8.00,-1.00,+23.00,+6.00,+4.00,-8.00,-14.00,-40.00,-8.00,+13.00
-5.00,-8.00,-11.00,-6.00,-7.00,-52.00,-9.00,-5.00,+19.00,+5.00,-3.00,+3.00,-20.00,+10.00,+2.00,-14.00
+10.00,+12.00,+6.00,+2.00,+23.00,+65.00,-3.00,+0.00,-27.00,-28.00,-11.00,+0.00,+19.00,+8.00,-1.00,-21.00
+1.00,+3.00,-1.00,-1.00,-8.00,+1.00,+5.00,-3.00,-25.00,-32.00,+1.00,+11.00,+59.00,+14.00,+12.00,-6.00
+10.00,+18.00,+1.00,+2.00,+21.00,+25.00,+27.00,+4.00,-39.00,-35.00,-18.00,-20.00,-64.00,-12.00,-24.00,-47.00
-16.00,-28.00,-4.00,-2.00,-27.00,-53.00,-13.00,-7.00,+90.00,+31.00,+9.00,+4.00,+19.00,+14.00,+22.00,+50.00
-6.00,-8.00,+4.00,-1.00,-2.00,+15.00,+5.00,+5.00,-53.00,-3.00,-3.00,+5.00,-6.00,-20.00,-11.00,-14.00
+6.00,-2.00,+3.00,-4.00,+0.00,-7.00,-9.00,+4.00,+1.00,+13.00,-1.00,-2.00,-22.00,-2.00,-7.00,-6.00
+2.00,+15.00,+0.00,-4.00,-5.00,-7.00,-3.00,-7.00,+10.00,-3.00,+6.00,-7.00,+1.00,-14.00,+9.00,+5.00
+3.00,+5.00,-6.00,-2.00,-1.00,-32.00,+3.00,+7.00,-56.00,-17.00,-6.00,-1.00,-12.00,+3.00,-9.00,-38.00
-2.00,-23.00,-10.00,-6.00,-3.00,-9.00,-2.00,-6.00,+72.00,+40.00,+16.00,-7.00,-1.00,+1.00,+11.00,+38.00
-4.00,-2.00,+0.00,+4.00,+0.00,-27.00,+3.00,+3.00,-38.00,-52.00,-15.00,+2.00,-6.00,-6.00,-12.00,-32.00
+9.00,-18.00,-7.00,-8.00,-14.00,-9.00,-10.00,-5.00,+13.00,+61.00,+19.00,+18.00,+9.00,+0.00,+18.00,+24.00
+3.00,+0.00,+8.00,+4.00,+27.00,+40.00,+8.00,+2.00,+21.00,-7.00,-15.00,-33.00,-42.00,+5.00,-26.00,-4.00
+4.00,+6.00,+3.00,+1.00,-13.00,-10.00,-8.00,+3.00,-25.00,+4.00,-1.00,-9.00,+17.00,+27.00,+13.00,+3.00
-6.00,-11.00,-15.00,-7.00,-2.00,+6.00,-14.00,-7.00,-41.00,-32.00,-4.00,-4.00,-29.00,-9.00,+1.00,-1.00
-14.00,-14.00,+2.00,+5.00,+3.00,+12.00,-10.00,+4.00,-51.00,-22.00,-3.00,+1.00,+27.00,-4.00,-5.00,-20.00
+12.00,+21.00,-6.00,-6.00,-6.00,-47.00,-11.00,-9.00,+79.00,+76.00,+34.00,+33.00,+17.00,+15.00,+20.00,+67.00
-8.00,-33.00,-2.00,+2.00,+16.00,+66.00,-18.00,+7.00,-75.00,-24.00,-3.00,+5.00,+108.00,+12.00,-1.00,-1.00
-6.00,-15.00,-9.00,-4.00,-5.00,-23.00,+33.00,-8.00,-5.00,+0.00,-6.00,-23.00,-110.00,-58.00,-25.00,-20.00
-5.00,+25.00,+0.00,+1.00,-9.00,-53.00,+6.00,+1.00,-13.00,-33.00,-3.00,+0.00,+31.00,+27.00,+14.00,+1.00
+20.00,+3.00,+10.00,+4.00,+9.00,+31.00,-2.00,+2.00,+24.00,+42.00,+1.00,+11.00,+0.00,-32.00,+7.00,+10.00
+6.00,+2.00,-11.00,-6.00,-14.00,-22.00,-2.00,-5.00,+60.00,+27.00,+5.00,-5.00,-18.00,+8.00,-13.00,+3.00
-21.00,-25.00,+6.00,+1.00,-5.00,+5.00,+11.00,+6.00,-80.00,-7.00,-5.00,-8.00,-8.00,-16.00,-11.00,-19.00
+13.00,+32.00,+15.00,+5.00,-14.00,+15.00,-6.00,-2.00,+61.00,-1.00,-6.00,+25.00,+120.00,+26.00,-6.00,+15.00
-29.00,-40.00,-21.00,-7.00,-9.00,-29.00,+1.00,-3.00,-21.00,-21.00,-8.00,-13.00,-68.00,-37.00,-10.00,-18.00
+6.00,+13.00,+10.00,+5.00,+7.00,+3.00,-24.00,+1.00,+0.00,+7.00,-5.00,-19.00,-20.00,+15.00,-3.00,+0.00
-4.00,+13.00,+6.00,+2.00,+6.00,+47.00,+12.00,+2.00,+16.00,-3.00,-9.00,-12.00,+36.00,+6.00,-4.00,-5.00
+5.00,-16.00,+0.00,+6.00,+36.00,+23.00,+7.00,+1.00,-31.00,+40.00,+11.00,-3.00,+3.00,+2.00,-15.00,-19.00
+5.00,+9.00,-10.00,-6.00,-11.00,-18.00,-9.00,+0.00,-51.00,-59.00,-15.00,+4.00,+19.00,-1.00,-1.00,-24.00
-29.00,-52.00,-13.00,-11.00,-41.00,-46.00,-6.00,-6.00,+17.00,+12.00,-2.00,-3.00,-38.00,-9.00,-9.00,+0.00
+1.00,+14.00,-5.00,-4.00,+22.00,+47.00,+17.00,-1.00,+11.00,+27.00,-5.00,-2.00,-5.00,-14.00,+7.00,-13.00
+0.00,-30.00,+5.00,-3.00,-14.00,-17.00,+20.00,+8.00,+60.00,+6.00,+10.00,+13.00,+28.00,+16.00,+17.00,+47.00
+2.00,-9.00,+1.00,+2.00,+12.00,+16.00,-9.00,+1.00,-75.00,-20.00,-5.00,+0.00,+58.00,+23.00,-2.00,-36.00
-6.00,-7.00,-8.00,+1.00,+15.00,-27.00,+12.00,-9.00,-7.00,-27.00,-6.00,+1.00,-72.00,-14.00,-9.00,+0.00
+5.00,+33.00,+10.00,+1.00,-4.00,-3.00,-12.00,-4.00,+44.00,-14.00,-15.00,+1.00,+29.00,+27.00,+15.00,+30.00
-2.00,+5.00,-11.00,-5.00,+9.00,+76.00,-9.00,-1.00,-7.00,+19.00,+3.00,+6.00,-10.00,-17.00,-9.00,-7.00
-15.00,+1.00,-11.00,-12.00,-10.00,+25.00,-9.00,-2.00,-1.00,-42.00,-15.00,-4.00,-2.00,+0.00,+16.00,-8.00
-7.00,-42.00,+8.00,+6.00,-9.00,+2.00,+5.00,+5.00,+44.00,+20.00,+18.00,+22.00,-1.00,+63.00,+8.00,+11.00
+26.00,+27.00,+1.00,-2.00,-1.00,+16.00,-25.00,-2.00,-26.00,+5.00,+13.00,+3.00,+36.00,-15.00,-5.00,+2.00
+3.00,+19.00,+2.00,+2.00,+14.00,+0.00,-1.00,+0.00,+16.00,-2.00,+14.00,+1.00,-43.00,-21.00,-3.00,+34.00
-49.00,-29.00,-7.00,-2.00,-8.00,-19.00,+7.00,-7.00,-73.00,+13.00,+6.00,-8.00,-24.00,-10.00,-21.00,-32.00
+15.00,+38.00,+9.00,+1.00,-6.00,+70.00,+0.00,+6.00,-83.00,-80.00,-33.00,-15.00,+41.00,-3.00,+11.00,-20.00
-1.00,-7.00,-7.00,-1.00,+3.00,-21.00,-32.00,-6.00,+53.00,+76.00,+17.00,-1.00,-20.00,+4.00,-1.00,+12.00
+2.00,-21.00,-7.00,+2.00,+20.00,-16.00,+0.00,+7.00,-48.00,-48.00,-16.00,-3.00,+61.00,+20.00,+0.00,-30.00
+11.00,+35.00,+7.00,+1.00,-37.00,+12.00,+15.00,+2.00,-62.00,-48.00,-15.00,-9.00,+3.00,-29.00,-13.00,-25.00
-6.00,-4.00,+13.00,+8.00,+35.00,+34.00,+49.00,+3.00,+50.00,+52.00,+12.00,-4.00,-56.00,-54.00,+10.00,+31.00
-7.00,-16.00,-5.00,-1.00,-2.00,+32.00,-16.00,-3.00,+17.00,+15.00,+9.00,+14.00,+33.00,+35.00,-1.00,+2.00
-15.00,+15.00,-9.00,-5.00,-8.00,-81.00,-32.00,-13.00,-39.00,-61.00,-25.00,-52.00,-71.00,-30.00,-16.00,-28.00
+6.00,-3.00,+2.00,+5.00,+1.00,+13.00,+2.00,+6.00,+45.00,-29.00,-7.00,+6.00,+18.00,+5.00,-6.00,+7.00
-7.00,-23.00,-9.00,-5.00,-13.00,+12.00,+2.00,-5.00,-122.00,-27.00,-7.00,-3.00,+4.00,-58.00,-5.00,-65.00
-19.00,-7.00,-9.00,-7.00,-11.00,+15.00,+6.00,-10.00,+54.00,+57.00,+13.00,+6.00,-23.00,+35.00,+26.00,+60.00
-12.00,-13.00,+0.00,+4.00,+15.00,-21.00,-32.00,+0.00,+12.00,-26.00,-16.00,+15.00,+77.00,+119.00,+13.00,+6.00
+6.00,+4.00,+2.00,+0.00,+13.00,+3.00,+7.00,-1.00,+69.00,+95.00,+31.00,+5.00,-55.00,+0.00,+2.00,+2.00
+4.00,+12.00,-6.00,-5.00,-5.00,-58.00,-1.00,-3.00,-36.00,-6.00,+1.00,-10.00,-6.00,-10.00,+3.00,+16.00
-32.00,-62.00,-27.00,-9.00,+0.00,-24.00,+5.00,-1.00,+44.00,-12.00,+9.00,+15.00,+1.00,-5.00,-4.00,-8.00
+7.00,+3.00,+12.00,-4.00,-27.00,-39.00,+4.00,-11.00,-30.00,-31.00,-15.00,+8.00,+50.00,-19.00,-3.00,-15.00
+7.00,+0.00,+2.00,+0.00,+6.00,-10.00,-2.00,-8.00,+29.00,+20.00,+0.00,-13.00,-64.00,+4.00,+25.00,+26.00
+19.00,+9.00,+1.00,+0.00,-13.00,-46.00,-35.00,+17.00,-16.00,+25.00,+2.00,-7.00,-1.00,-22.00,-18.00,-16.00
+16.00,+8.00,+11.00,+8.00,+4.00,-31.00,+11.00,+2.00,-45.00,-22.00,-7.00,+0.00,+3.00,+14.00,+8.00,-16.00
+15.00,+45.00,+4.00,-1.00,-3.00,+30.00,+17.00,+19.00,+14.00,-3.00,+6.00,+12.00,+54.00,-39.00,-10.00,-5.00
-29.00,-28.00,-1.00,+4.00,+9.00,+9.00,-9.00,-6.00,+20.00,-11.00,+4.00,+10.00,-21.00,+3.00,-3.00,+6.00
-26.00,-17.00,-16.00,-7.00,-13.00,-37.00,-9.00,-22.00,+10.00,-16.00,-10.00,-15.00,+7.00,-7.00,-2.00,+1.00
+0.00,+11.00,+5.00,+2.00,-2.00,+4.00,-10.00,-1.00,-43.00,-32.00,-17.00,-8.00,-3.00,-35.00,-14.00,-22.00
+0.00,-3.00,-8.00,-7.00,-11.00,+46.00,-6.00,-1.00,-29.00,+22.00,+3.00,-11.00,-59.00,+3.00,+3.00,-8.00
+7.00,+7.00,+2.00,+0.00,+0.00,-20.00,-7.00,-2.00,+52.00,+7.00,+5.00,+11.00,+70.00,+2.00,-3.00,+20.00
+0.00,+16.00,-4.00,+3.00,+26.00,+61.00,+24.00,+5.00,-88.00,-70.00,-15.00,+3.00,-22.00,+21.00,-11.00,-17.00
-8.00,+3.00,+7.00,+3.00,+20.00,-8.00,+6.00,+5.00,-55.00,-44.00,-19.00,-10.00,+26.00,-43.00,-19.00,-45.00
-8.00,-11.00,-8.00,-4.00,-7.00,-20.00,+6.00,-11.00,+60.00,+67.00,+12.00,-2.00,-34.00,+71.00,+1.00,+16.00
-12.00,-18.00,-5.00,-3.00,-7.00,+1.00,+2.00,+1.00,+11.00,+24.00,+5.00,+1.00,-44.00,+20.00,+4.00,+13.00
+15.00,+39.00,+15.00,+2.00,+0.00,-15.00,-15.00,-3.00,-58.00,-23.00,-18.00,-10.00,+33.00,+8.00,+10.00,-33.00
-2.00,-20.00,-8.00,-2.00,-7.00,-20.00,-9.00,-2.00,+126.00,+42.00,+20.00,+16.00,+52.00,-17.00,+17.00,+87.00
-7.00,+1.00,-5.00,-4.00,+11.00,-2.00,-3.00,-10.00,-66.00,+72.00,+17.00,-6.00,-78.00,+19.00,+15.00,-14.00
+1.00,-2.00,-4.00,+0.00,-16.00,-21.00,+7.00,-2.00,-84.00,-85.00,-28.00,-6.00,+25.00,+16.00,-11.00,-31.00
+1.00,+4.00,+4.00,+0.00,+8.00,+23.00,+0.00,+9.00,+127.00,+105.00,+34.00,+10.00,+6.00,+41.00,+11.00,+62.00
-4.00,-13.00,+0.00,+2.00,+3.00,-42.00,-7.00,+2.00,-75.00,-74.00,-18.00,-6.00,-26.00,-16.00,-10.00,-34.00
-14.00,-9.00,-20.00,-14.00,-15.00,+21.00,-6.00,-13.00,+22.00,+1.00,-5.00,-4.00,-15.00,-36.00,+1.00,-1.00
+11.00,+23.00,+32.00,+12.00,+15.00,+26.00,+8.00,+17.00,-43.00,-39.00,-5.00,+12.00,+92.00,+7.00,+4.00,+2.00
+12.00,+1.00,-4.00,-4.00,-36.00,-56.00,-11.00,-6.00,-49.00,-59.00,-26.00,-17.00,-59.00,-12.00,-12.00,-17.00
-1.00,+7.00,-10.00,-4.00,+10.00,+80.00,+19.00,-3.00,+62.00,+89.00,+27.00,+13.00,+6.00,+11.00,-5.00,+15.00
-18.00,-42.00,-3.00,+7.00,+14.00,+19.00,-7.00,+5.00,+80.00,+35.00,+10.00,+1.00,+42.00,-35.00,-3.00,+34.00
+3.00,+5.00,+0.00,-5.00,+8.00,+22.00,-3.00,+9.00,-53.00,-13.00,-10.00,-9.00,-92.00,-13.00,-6.00,-14.00
+10.00,+16.00,+7.00,+0.00,+0.00,+25.00,+21.00,+1.00,+6.00,-20.00,-3.00,+4.00,+17.00,-7.00,-15.00,-20.00
+1.00,-7.00,-16.00,-11.00,-17.00,-39.00,-3.00,-1.00,+22.00,-5.00,-1.00,+0.00,-15.00,-23.00,+22.00,+12.00
-16.00,-20.00,+0.00,+0.00,-17.00,-55.00,+2.00,-9.00,-43.00,-47.00,-20.00,-6.00,+36.00,+21.00,-32.00,-18.00
+19.00,+16.00,+14.00,+9.00,+14.00,+20.00,+15.00,+8.00,+7.00,+41.00,+4.00,-13.00,-7.00,+11.00,+12.00,+1.00
-19.00,-26.00,-8.00,+2.00,+7.00,-24.00,+9.00,+1.00,+75.00,-28.00,-9.00,+10.00,+44.00,+15.00,+14.00,+12.00
+18.00,+17.00,+6.00,-2.00,-6.00,+16.00,-13.00,-10.00,-92.00,+16.00,-2.00,-7.00,-93.00,-35.00,-27.00,-44.00
+15.00,+25.00,+7.00,+2.00,-7.00,+9.00,+11.00,-6.00,+32.00,+21.00,+11.00,-7.00,+15.00,-29.00,+5.00,+21.00
-5.00,-20.00,-7.00,-8.00,-8.00,-23.00,-11.00,+4.00,-33.00,-30.00,-13.00,-20.00,+6.00,+0.00,-11.00,-22.00
+4.00,+8.00,+3.00,+0.00,+3.00,+53.00,-2.00,-8.00,-28.00,+1.00,+4.00,+10.00,+5.00,-14.00,-1.00,+6.00
+12.00,-4.00,+2.00,+2.00,-17.00,-32.00,+5.00,+8.00,-57.00,-91.00,-30.00,-2.00,-2.00,+23.00,+11.00,-17.00
+4.00,+0.00,+2.00,-2.00,-9.00,-64.00,-59.00,+2.00,+46.00,+70.00,+15.00,+10.00,+1.00,-33.00,+2.00,+33.00
+17.00,+8.00,-8.00,-4.00,+5.00,+66.00,+24.00,-5.00,-30.00,-32.00,-10.00,-4.00,-24.00,+12.00,-7.00,-9.00
-5.00,-5.00,+4.00,+4.00,+26.00,+58.00,+4.00,+3.00,-19.00,+37.00,+17.00,+4.00,+15.00,+2.00,+12.00,-23.00
-6.00,-8.00,-5.00,-1.00,-18.00,-26.00,+8.00,+5.00,-42.00,+27.00,+0.00,+3.00,+34.00,-41.00,-3.00,-2.00
+6.00,+15.00,-1.00,-2.00,-10.00,+14.00,+0.00,-1.00,-7.00,+5.00,-8.00,+3.00,-20.00,+35.00,+1.00,+0.00
-6.00,+30.00,+3.00,-2.00,+6.00,-24.00,-14.00,-14.00,+48.00,-27.00,+4.00,-19.00,+32.00,-46.00,+10.00,+25.00
-2.00,-9.00,-1.00,+1.00,+17.00,-21.00,+2.00,+9.00,-17.00,+3.00,-10.00,-2.00,-29.00,+23.00,-12.00,-15.00
-30.00,-14.00,+3.00,+1.00,-2.00,+13.00,-5.00,-10.00,-21.00,+29.00,+18.00,-2.00,+40.00,+6.00,-4.00,-7.00
+7.00,+5.00,-7.00,-6.00,+11.00,-11.00,+12.00,+4.00,-33.00,+7.00,+7.00,-4.00,-71.00,-20.00,+9.00,-2.00
-29.00,-4.00,-7.00,-3.00,-18.00,+37.00,-7.00,-9.00,-48.00,-20.00,-15.00,+8.00,+29.00,+19.00,-10.00,-28.00
-28.00,-37.00,-16.00,-8.00,-9.00,-54.00,-7.00,-12.00,+30.00,-24.00,-2.00,+15.00,+9.00,-27.00,+11.00,+26.00
+18.00,+53.00,+24.00,+15.00,+9.00,+53.00,+10.00,+12.00,+48.00,-6.00,-4.00,-9.00,+5.00,+27.00,-2.00,+8.00
+3.00,-29.00,-8.00,-4.00,-6.00,+14.00,+11.00,+2.00,-77.00,-83.00,-25.00,-7.00,+9.00,-69.00,-20.00,-34.00
+5.00,+21.00,+0.00,+0.00,+16.00,+62.00,-1.00,-10.00,-4.00,+65.00,+12.00,+3.00,-34.00,+33.00,-3.00,+0.00
+4.00,+4.00,+7.00,+2.00,-9.00,-60.00,-5.00,-4.00,-13.00,+17.00,+9.00,+6.00,+36.00,+11.00,-1.00,+26.00
-13.00,-25.00,-8.00,-6.00,+7.00,+46.00,-5.00,-9.00,+33.00,+31.00,+11.00,+1.00,-64.00,+29.00,+18.00,+25.00
-7.00,-22.00,-10.00,-4.00,+5.00,-16.00,-11.00,+12.00,+67.00,-24.00,-5.00,+9.00,+53.00,-3.00,+7.00,-2.00
-8.00,-6.00,+6.00,+3.00,-7.00,-15.00,+6.00,+5.00,-10.00,-8.00,-4.00,-2.00,-24.00,+0.00,-9.00,-6.00
+6.00,+33.00,-5.00,-9.00,-16.00,-35.00,+19.00,-5.00,-41.00,-36.00,-18.00,-4.00,+30.00,-16.00,-12.00,-23.00
+15.00,+19.00,-5.00,+0.00,-1.00,-44.00,-36.00,-8.00,+26.00,+20.00,+10.00,+3.00,-25.00,+12.00,+2.00,+17.00
-5.00,-13.00,+7.00,+5.00,+2.00,+1.00,+37.00,+3.00,+11.00,-10.00,+0.00,-1.00,-32.00,-3.00,+7.00,+9.00
+9.00,+16.00,+6.00,+1.00,+7.00,+13.00,-2.00,+4.00,-82.00,-30.00,-12.00,-7.00,+11.00,-18.00,-15.00,-36.00
-10.00,-18.00,-8.00,-7.00,-16.00,-23.00,-4.00,-1.00,+106.00,+45.00,+17.00,+9.00,+7.00,+29.00,+25.00,+59.00
+11.00,-1.00,-3.00,-7.00,-7.00,-34.00,-17.00,+1.00,-37.00,-36.00,-12.00,-13.00,+3.00,-15.00,-13.00,-27.00
-2.00,+17.00,+4.00,-2.00,-12.00,-26.00,-11.00,-5.00,-5.00,+25.00,+10.00,+12.00,+48.00,+27.00,+9.00,+2.00
+6.00,+3.00,-2.00,+3.00,-5.00,-33.00,-14.00,+11.00,+1.00,+12.00,+4.00,+10.00,-34.00,-11.00,+5.00,+15.00
+6.00,-4.00,-2.00,+2.00,+17.00,+58.00,+42.00,+0.00,-31.00,-30.00,-9.00,-6.00,+2.00,-37.00,-18.00,-39.00
+8.00,+14.00,-2.00,-4.00,-2.00,+11.00,+10.00,-5.00,+32.00,-14.00,+0.00,+0.00,+44.00,+11.00,-2.00,-8.00
+22.00,+9.00,+7.00,+4.00,-3.00,-9.00,+7.00,+14.00,+5.00,-37.00,-8.00,+0.00,+1.00,+41.00,+7.00,+13.00
-12.00,-50.00,-11.00,-5.00,-5.00,-4.00,-5.00,-11.00,+58.00,+34.00,+13.00,+6.00,+22.00,-31.00,+7.00,+14.00
+26.00,+37.00,+11.00,+9.00,+16.00,+52.00,-8.00,+0.00,+1.00,+20.00,+5.00,-6.00,-45.00,-11.00,-5.00,+12.00
-1.00,+1.00,+0.00,-1.00,+1.00,-18.00,-6.00,+7.00,+3.00,+15.00,-7.00,-14.00,+32.00,+50.00,-8.00,-21.00
-5.00,-25.00,-3.00,+1.00,-10.00,+13.00,+13.00,-3.00,-20.00,+3.00,+1.00,-4.00,-59.00,-25.00,-6.00,+9.00
+28.00,+46.00,+4.00,-2.00,-11.00,-23.00,+3.00,+12.00,-19.00,-27.00,-2.00,+3.00,+24.00,+0.00,-6.00,+5.00
-2.00,-26.00,+5.00,+1.00,-6.00,-47.00,-32.00,+2.00,+36.00,+2.00,-9.00,+5.00,+41.00,+35.00,+1.00,-3.00
-31.00,-65.00,-24.00,-4.00,+4.00,-55.00,+13.00,-3.00,-39.00,-26.00,-10.00,-1.00,+3.00,-26.00,-4.00,-19.00
+3.00,+32.00,+21.00,+7.00,+25.00,+42.00,+24.00,-3.00,+32.00,+41.00,+16.00,-11.00,-71.00,+8.00,+0.00,+28.00
+4.00,-6.00,-8.00,-9.00,-31.00,-95.00,-18.00,-12.00,+9.00,-9.00,-6.00,+15.00,+31.00,+10.00,+16.00,+9.00
-3.00,-9.00,-10.00,-1.00,+7.00,+93.00,+13.00,+0.00,-59.00,+14.00,+1.00,-2.00,-37.00,-6.00,-15.00,-39.00
+3.00,+2.00,+13.00,+1.00,+5.00,-4.00,+2.00,+9.00,-27.00,-7.00,+2.00,+12.00,+21.00,-10.00,-10.00,+19.00
-20.00,-18.00,-14.00,-8.00,-5.00,-38.00,-9.00,-3.00,-128.00,-86.00,-26.00,-10.00,-11.00,-20.00,+7.00,-57.00
-15.00,+8.00,+1.00,-3.00,-23.00,-3.00,-12.00,-14.00,+127.00,+93.00,+35.00,+8.00,+24.00,+46.00,+21.00,+69.00
+4.00,-1.00,-2.00,+2.00,+20.00,+27.00,+5.00,+7.00,-67.00,-22.00,-9.00,-9.00,-17.00,-29.00,-15.00,-39.00
-11.00,-11.00,+4.00,+0.00,-21.00,+8.00,-19.00,-7.00,+33.00,-19.00,-3.00,+9.00,+15.00,+25.00,+14.00,+50.00
+27.00,+24.00,-3.00,-4.00,+10.00,-27.00,+35.00,+0.00,-24.00,+16.00,+7.00,+1.00,-11.00,-13.00,-15.00,-22.00
+0.00,-15.00,-5.00,-3.00,+5.00,+7.00,-11.00,-12.00,+3.00,+54.00,+8.00,-5.00,-14.00,-20.00,-6.00,-11.00
-8.00,-4.00,-12.00,-8.00,-12.00,-38.00,-15.00,-8.00,+25.00,-8.00,-5.00,-2.00,+31.00,-5.00,+4.00,+11.00
+8.00,+19.00,+18.00,+9.00,+2.00,+18.00,+18.00,+24.00,-17.00,-3.00,-3.00,-3.00,-15.00,-49.00,+0.00,-1.00
-6.00,-20.00,-13.00,-6.00,-10.00,+40.00,-19.00,-11.00,-13.00,-55.00,-14.00,-11.00,+6.00,+55.00,-11.00,-24.00
+5.00,-5.00,+6.00,+4.00,+2.00,-24.00,+7.00,+1.00,+24.00,-8.00,-2.00,-1.00,+0.00,-17.00,-1.00,+0.00
+6.00,+13.00,-2.00,+0.00,-4.00,+4.00,-2.00,-20.00,+85.00,+81.00,+25.00,+5.00,-42.00,+14.00,+9.00,+49.00
+12.00,+3.00,+0.00,+2.00,+7.00,-7.00,+2.00,-5.00,-65.00,-28.00,-9.00,+2.00,+18.00,+17.00,-2.00,-22.00
-20.00,-6.00,-10.00,-5.00,-6.00,-3.00,-10.00,-9.00,+7.00,-12.00,-13.00,+10.00,+37.00,-42.00,-9.00,-11.00
-10.00,-42.00,-8.00,+0.00,+21.00,+12.00,+5.00,+2.00,+0.00,+25.00,+3.00,+7.00,-17.00,+20.00,+14.00,-4.00
-4.00,+24.00,+18.00,+5.00,+2.00,-70.00,-34.00,+1.00,-44.00,-62.00,-13.00,-27.00,+0.00,-37.00,-9.00,-27.00
-2.00,-19.00,+0.00,+0.00,-2.00,+21.00,+7.00,-8.00,+56.00,+27.00,+5.00,-14.00,-33.00,-4.00,+2.00,-4.00
-1.00,+44.00,+22.00,+6.00,+13.00,+33.00,-19.00,+11.00,-58.00,-1.00,+3.00,+21.00,+124.00,+66.00,+3.00,-3.00
-13.00,-11.00,-13.00,-5.00,-14.00,-60.00,+5.00,-10.00,-18.00,-1.00,+1.00,-14.00,-76.00,-34.00,-5.00,+6.00
-6.00,-2.00,-4.00,-6.00,+6.00,+63.00,+14.00,+9.00,-64.00,-41.00,-13.00,-3.00,-25.00,-12.00,-5.00,-15.00
+2.00,-1.00,+1.00,+3.00,+6.00,+8.00,-11.00,-9.00,-88.00,-8.00,-2.00,+0.00,+15.00,+5.00,-4.00,-29.00
+10.00,-4.00,+5.00,+2.00,-7.00,-1.00,-6.00,+5.00,+55.00,+28.00,+5.00,-5.00,-4.00,-54.00,+2.00,+33.00
-3.00,-15.00,-4.00,-2.00,+3.00,+1.00,-4.00,+8.00,-17.00,-23.00,-8.00,-7.00,+6.00,+9.00,-11.00,-18.00
-8.00,-17.00,-8.00,-5.00,-20.00,-61.00,-12.00,-9.00,-62.00,+4.00,+10.00,+6.00,+10.00,+16.00,+1.00,+0.00
+7.00,+61.00,+17.00,+4.00,+12.00,-1.00,+6.00,+4.00,+29.00,+20.00,+1.00,+3.00,-2.00,+24.00,-1.00,+12.00
+2.00,-30.00,-13.00,-5.00,+4.00,+0.00,+4.00,+2.00,-66.00,-37.00,-8.00,-4.00,-30.00,-31.00,-8.00,-23.00
-3.00,+60.00,+6.00,-1.00,+5.00,+13.00,+0.00,-3.00,+71.00,+20.00,+3.00,-19.00,-36.00,-69.00,-6.00,+13.00
-23.00,-41.00,-2.00,+3.00,-20.00,-22.00,-9.00,+3.00,-33.00,-4.00,-6.00,-2.00,+18.00,+32.00,-19.00,-23.00
+4.00,-18.00,-19.00,-4.00,+8.00,+7.00,+5.00,-13.00,+102.00,-21.00,+4.00,+20.00,+30.00,+4.00,+40.00,+31.00
+9.00,+51.00,+18.00,+7.00,+2.00,+9.00,+7.00,+5.00,+3.00,+81.00,+23.00,-8.00,-44.00,-4.00,-1.00,-5.00
+4.00,-26.00,+0.00,+4.00,+16.00,-30.00,-4.00,+17.00,-40.00,+32.00,+7.00,+17.00,+100.00,+20.00,-7.00,+4.00
+5.00,+5.00,-9.00,-9.00,-1.00,-2.00,+1.00,-1.00,-33.00,-62.00,-27.00,-22.00,-62.00,-15.00,-13.00,-36.00
-4.00,+1.00,-8.00,-2.00,-5.00,+15.00,+31.00,-4.00,+27.00,+53.00,+13.00,-5.00,+34.00,-29.00,-3.00,+14.00
+12.00,-1.00,-1.00,-2.00,-2.00,-5.00,-8.00,-8.00,-5.00,-32.00,-4.00,+16.00,+23.00,+40.00,+4.00,+12.00
-19.00,+0.00,+3.00,+2.00,+12.00,+47.00,+23.00,-8.00,+6.00,-1.00,+2.00,-11.00,+9.00,+27.00,+10.00,+9.00
+18.00,+38.00,+7.00,+4.00,-2.00,-14.00,-15.00,+4.00,+22.00,+16.00,+5.00,+8.00,+18.00,-31.00,-5.00,+9.00
-7.00,-22.00,-3.00,-4.00,+13.00,-28.00,-9.00,-3.00,-29.00,+25.00,+0.00,-6.00,-30.00,+19.00,-8.00,-10.00
-2.00,-34.00,-17.00,-8.00,-44.00,+23.00,-10.00,-9.00,-23.00,-38.00,-9.00,-15.00,-32.00,-32.00,-1.00,+7.00
+1.00,-1.00,-6.00,+1.00,+4.00,+1.00,+3.00,-5.00,-66.00,+2.00,-6.00,+2.00,+18.00,+7.00,-19.00,-33.00
+22.00,+12.00,+11.00,+4.00,+2.00,+4.00,+7.00,+5.00,+35.00,-17.00,-1.00,+11.00,+10.00,+20.00,+19.00,+26.00
-25.00,+11.00,+7.00,+1.00,-6.00,-18.00,-14.00,+0.00,-3.00,-9.00,+0.00,-6.00,+0.00,-14.00,-8.00,+20.00
-15.00,+5.00,-6.00,-1.00,+6.00,-19.00,+0.00,-4.00,+7.00,-17.00,-7.00,-12.00,-37.00,+15.00,-6.00,-32.00
-2.00,-8.00,-6.00,-2.00,-13.00,+12.00,-24.00,+0.00,-75.00,-67.00,-15.00,+4.00,+9.00,+3.00,-5.00,-20.00
-4.00,+14.00,+10.00,-1.00,-5.00,+1.00,+26.00,+12.00,+94.00,+52.00,+9.00,+2.00,-2.00,-40.00,+10.00,+31.00
+9.00,-3.00,-8.00,-4.00,-12.00,-26.00,-4.00,-2.00,-4.00,+32.00,+14.00,+21.00,+30.00,+54.00,+19.00,-2.00
-13.00,-6.00,+7.00,+6.00,+19.00,+19.00,-11.00,-11.00,-19.00,-23.00,-17.00,-40.00,-65.00,-54.00,-18.00,-13.00
+3.00,-5.00,-2.00,+1.00,-5.00,+9.00,+15.00,+18.00,+35.00,+11.00,-2.00,-5.00,+6.00,-5.00,+15.00,+18.00
+3.00,-1.00,+1.00,-3.00,+9.00,-7.00,-7.00,-2.00,+8.00,+31.00,+9.00,+3.00,+15.00,-44.00,-35.00,-10.00
-10.00,-21.00,-10.00,-7.00,-9.00,-16.00,+15.00,+3.00,-28.00,-52.00,-16.00,-6.00,+16.00,+32.00,+11.00,-8.00
-8.00,-3.00,+4.00,+2.00,-4.00,-9.00,-4.00,-1.00,+8.00,+45.00,+1.00,-3.00,+16.00,+16.00,-14.00,-13.00
+17.00,+2.00,+5.00,+3.00,+8.00,-45.00,-25.00,-10.00,-1.00,-65.00,-6.00,+13.00,-41.00,+36.00,+11.00,+17.00
+1.00,+5.00,-2.00,-2.00,-1.00,+49.00,+11.00,-7.00,+26.00,+53.00,+5.00,-30.00,-10.00,+0.00,-2.00,+5.00
+7.00,+20.00,+4.00,+2.00,+15.00,+12.00,-9.00,-3.00,-62.00,-21.00,-11.00,-10.00,-32.00,-49.00,-22.00,-41.00
+14.00,-8.00,-6.00,-3.00,+0.00,-28.00,+8.00,-9.00,+125.00,+37.00,+11.00,+17.00,+42.00,+5.00,+19.00,+42.00
+9.00,+11.00,+10.00,+1.00,+0.00,+24.00,+18.00,+9.00,-35.00,-34.00,-18.00,-10.00,-30.00,-2.00,-18.00,-28.00
-8.00,-17.00,-15.00,-3.00,+8.00,-14.00,-2.00,-4.00,-57.00,-39.00,-7.00,+9.00,+34.00,+16.00,-2.00,-12.00
-18.00,+1.00,+2.00,-1.00,-1.00,-22.00,-8.00,-4.00,-1.00,-55.00,-19.00,-12.00,+1.00,+16.00,-4.00,-6.00
+1.00,-20.00,-9.00,-4.00,-12.00,-16.00,+12.00,+3.00,-9.00,+81.00,+29.00,+7.00,-49.00,-12.00,+11.00,+5.00
-24.00,+31.00,+2.00,-5.00,+0.00,+8.00,-22.00,-16.00,-55.00,-51.00,-11.00,-2.00,+37.00,-7.00,+0.00,-8.00
+10.00,-43.00,+0.00,+3.00,-6.00,-9.00,-7.00,+2.00,+29.00,-1.00,+3.00,-9.00,-22.00,+20.00,+13.00,+7.00
+2.00,+4.00,-13.00,-8.00,-6.00,+18.00,-1.00,+0.00,+80.00,+33.00,+8.00,+8.00,+15.00,-10.00,+4.00,+22.00
-1.00,-6.00,-1.00,+1.00,+11.00,-13.00,+1.00,-5.00,-80.00,-31.00,-17.00,-26.00,-30.00,-69.00,-29.00,-40.00
-8.00,-11.00,-15.00,-9.00,-15.00,+1.00,+0.00,-2.00,+32.00,+13.00,+4.00,+5.00,+15.00,+30.00,-9.00,+9.00
+25.00,+19.00,+25.00,+12.00,+0.00,-23.00,-19.00,+6.00,-59.00,+39.00,+1.00,+4.00,+51.00,+26.00,+18.00,-4.00
-66.00,-11.00,-5.00,-7.00,-18.00,-8.00,-12.00,-13.00,+27.00,-15.00,+2.00,+0.00,-68.00,-26.00,-12.00,+3.00
+9.00,+20.00,+4.00,+2.00,-1.00,+3.00,+0.00,-1.00,-53.00,-43.00,-7.00,+12.00,+10.00,+41.00,+4.00,-4.00
+1.00,-27.00,+0.00,-1.00,+10.00,-1.00,+2.00,+8.00,+39.00,+10.00,+2.00,-27.00,-21.00,-12.00,-13.00,-7.00
-13.00,+5.00,-10.00,-7.00,-13.00,-28.00,+16.00,-4.00,+7.00,-19.00,-10.00,-3.00,-24.00,-47.00,-7.00,-5.00
+7.00,-11.00,+2.00,+2.00,-7.00,-1.00,+2.00,+3.00,-16.00,-3.00,+8.00,+14.00,+34.00,+55.00,+10.00,+7.00
-3.00,+4.00,-6.00,-6.00,-14.00,+3.00,-9.00,+16.00,+103.00,+80.00,+15.00,+17.00,+61.00,+3.00,+13.00,+39.00
-1.00,+7.00,-1.00,-2.00,+13.00,-31.00,-19.00,-7.00,-102.00,-47.00,-18.00,-5.00,-7.00,+28.00,-2.00,-28.00
+2.00,+13.00,-6.00,-3.00,+8.00,+60.00,-3.00,+4.00,+83.00,+36.00,+19.00,+12.00,-19.00,+18.00,+22.00,+34.00
-3.00,-21.00,+2.00,+4.00,+17.00,+21.00,+4.00,-5.00,-36.00,+19.00,-1.00,-4.00,+1.00,-15.00,-14.00,-19.00
+12.00,+8.00,-1.00,-3.00,-6.00,-14.00,+4.00,+1.00,-56.00,-42.00,-12.00,+1.00,+36.00,+13.00,+13.00,-23.00
-4.00,+22.00,+15.00,+5.00,-14.00,-31.00,+4.00,-8.00,+75.00,-1.00,+0.00,+7.00,-23.00,+20.00,+18.00,+36.00
-11.00,-7.00,-11.00,+0.00,+2.00,+2.00,-15.00,+2.00,+0.00,+14.00,-2.00,+1.00,-9.00,-25.00,-4.00,-7.00
+9.00,-6.00,-1.00,-1.00,+11.00,+15.00,+16.00,+2.00,+1.00,-6.00,-3.00,-28.00,-29.00,-2.00,-7.00,+12.00
-5.00,+5.00,+6.00,+4.00,+7.00,+19.00,+7.00,+5.00,+2.00,+52.00,+21.00,+6.00,+12.00,+14.00,-7.00,-18.00
+3.00,-36.00,-13.00,-5.00,-14.00,-1.00,+5.00,+3.00,+30.00,+60.00,+22.00,+20.00,+45.00,-25.00,+1.00,+35.00
-2.00,+21.00,+1.00,-6.00,-14.00,-34.00,+0.00,-1.00,-62.00,-65.00,-13.00,+8.00,-9.00,-9.00,+18.00,-27.00
-11.00,-2.00,+1.00,+0.00,-1.00,-18.00,+1.00,+8.00,+38.00,+20.00,-4.00,-14.00,-62.00,-36.00,-13.00,-6.00
-10.00,-46.00,-14.00,-5.00,+19.00,-7.00,-18.00,-8.00,-86.00,-72.00,-17.00,+1.00,+16.00,+29.00,-3.00,-19.00
+23.00,+16.00,+14.00,+8.00,-5.00,+26.00,+19.00,+9.00,+111.00,+22.00,+14.00,+10.00,-19.00,-13.00,+9.00,+33.00
+15.00,-3.00,+2.00,+2.00,-6.00,-39.00,-12.00,-6.00,+1.00,-13.00,-3.00,+17.00,+24.00,-7.00,-5.00,+7.00
+0.00,-26.00,-9.00,+2.00,-5.00,+9.00,+2.00,+2.00,-113.00,-26.00,-6.00,+5.00,+20.00,+29.00,-14.00,-35.00
-7.00,-12.00,-2.00,+0.00,+13.00,+8.00,-2.00,-5.00,+121.00,+67.00,+23.00,-7.00,-27.00,-3.00,+23.00,+69.00
-12.00,+0.00,-4.00,-1.00,-8.00,+27.00,+6.00,-1.00,-97.00,-5.00,-7.00,+2.00,+29.00,+3.00,-5.00,-33.00
-8.00,-3.00,-5.00,-3.00,-11.00,-9.00,+1.00,-12.00,-55.00,-46.00,-13.00,-9.00,+9.00,+33.00,-12.00,-17.00
+9.00,+9.00,+6.00,+6.00,+28.00,+15.00,-6.00,+5.00,+9.00,+18.00,+10.00,+21.00,-27.00,-25.00,+12.00,+17.00
-14.00,+13.00,-2.00,-4.00,-30.00,-8.00,-15.00,-10.00,+5.00,-61.00,-20.00,-7.00,-2.00,-4.00,-19.00,-15.00
+2.00,-3.00,-11.00,-4.00,-5.00,+4.00,+11.00,-3.00,-33.00,-36.00,-13.00,-7.00,-10.00,-43.00,-10.00,-25.00
-18.00,-16.00,+22.00,+13.00,+8.00,+20.00,+33.00,+9.00,-10.00,+2.00,+9.00,+0.00,+11.00,+65.00,+4.00,+11.00
+21.00,+10.00,-5.00,-8.00,-13.00,-28.00,-11.00,-2.00,+93.00,+74.00,+15.00,+1.00,+19.00,-7.00,+10.00,+22.00
-12.00,-2.00,-3.00,-2.00,-5.00,+8.00,+11.00,+18.00,-74.00,-31.00,-19.00,-11.00,-38.00,-28.00,-16.00,-28.00
+13.00,-6.00,-13.00,-3.00,+15.00,+46.00,-4.00,-5.00,+83.00,+16.00,+11.00,+10.00,+11.00,+1.00,+12.00,+33.00
-16.00,+8.00,+12.00,-1.00,-1.00,+9.00,+7.00,-14.00,-53.00,-55.00,-16.00,-4.00,-7.00,-14.00,-9.00,-10.00
+13.00,-1.00,+1.00,-4.00,-21.00,-15.00,+0.00,-2.00,-1.00,-13.00,-4.00,+1.00,+9.00,-8.00,-17.00,-13.00
+16.00,+4.00,+2.00,+5.00,+7.00,+15.00,-3.00,+3.00,-1.00,+6.00,-1.00,-6.00,+45.00,+37.00,+8.00,+8.00
-3.00,-2.00,-2.00,-2.00,-3.00,+4.00,-3.00,-1.00,-92.00,-87.00,-35.00,-21.00,-64.00,-31.00,-17.00,-69.00
+13.00,+11.00,-12.00,-6.00,+6.00,-1.00,-7.00,-7.00,+81.00,+75.00,+25.00,+11.00,-13.00,+12.00,+3.00,+45.00
+11.00,-15.00,-1.00,+4.00,+3.00,+18.00,+0.00,-2.00,-1.00,-12.00,+0.00,+9.00,+70.00,+25.00,+7.00,+15.00
+3.00,+28.00,-2.00,-6.00,-8.00,-19.00,+7.00,+9.00,+92.00,+38.00,+6.00,-26.00,-76.00,-43.00,-3.00,+20.00
+10.00,+25.00,+13.00,+1.00,+11.00,+23.00,+8.00,+5.00,-74.00,-5.00,-6.00,-23.00,+0.00,-6.00,-15.00,-30.00
-13.00,-8.00,-20.00,-5.00,-16.00,-20.00,-9.00,-3.00,-33.00,+13.00,-5.00,-10.00,-40.00,-7.00,-24.00,-22.00
+3.00,+21.00,-3.00,-10.00,-12.00,-3.00,-5.00,-8.00,-26.00,-24.00,-8.00,-13.00,-11.00,-26.00,+9.00,+0.00
-2.00,-40.00,-7.00,+3.00,+2.00,-18.00,+6.00,+4.00,+2.00,-21.00,-1.00,+13.00,+31.00,+13.00,+0.00,-11.00
-16.00,-16.00,-7.00,-7.00,-12.00,-96.00,-11.00,-4.00,+43.00,+43.00,+19.00,+24.00,+37.00,+20.00,+9.00,+34.00
+7.00,-2.00,+8.00,+7.00,-3.00,+12.00,+4.00,+13.00,-33.00,+4.00,-6.00,-16.00,-22.00,-7.00,-3.00,-21.00
+6.00,+16.00,+1.00,-1.00,+3.00,+3.00,-10.00,-16.00,+11.00,-11.00,-3.00,+1.00,-24.00,-21.00,-9.00,+1.00
-20.00,+8.00,+3.00,-4.00,+5.00,-32.00,-9.00,-13.00,-83.00,-79.00,-26.00,+4.00,+13.00,+27.00,-4.00,-19.00
+2.00,+15.00,+2.00,-1.00,-5.00,-5.00,-12.00,-2.00,+36.00,+40.00,-1.00,-3.00,+22.00,-9.00,-6.00,-2.00
-6.00,-10.00,-9.00,-3.00,-2.00,+14.00,-2.00,-7.00,+20.00,+19.00,+10.00,-1.00,-38.00,-12.00,+10.00,+15.00
+9.00,+3.00,+14.00,+5.00,-6.00,+11.00,+2.00,+13.00,+51.00,+47.00,+15.00,-2.00,-3.00,+2.00,+6.00,+28.00
-2.00,+1.00,-6.00,+1.00,+1.00,-17.00,-11.00,-11.00,+8.00,+13.00,-1.00,+1.00,-6.00,-11.00,+4.00,+2.00
+13.00,+1.00,+1.00,+4.00,+3.00,+5.00,-8.00,-4.00,-5.00,-12.00,-6.00,+2.00,+26.00,+2.00,-2.00,+0.00
-10.00,-13.00,-9.00,-9.00,-1.00,-19.00,-19.00,-14.00,-26.00,-48.00,-12.00,-1.00,+13.00,-2.00,+1.00,-8.00
-4.00,+19.00,+2.00,-3.00,-14.00,-3.00,+5.00,-1.00,+8.00,-1.00,+0.00,-2.00,-13.00,+4.00,-1.00,-18.00
+13.00,+7.00,+17.00,+10.00,+18.00,+29.00,+10.00,+8.00,+42.00,+13.00,+12.00,+29.00,+21.00,+4.00,+9.00,+34.00
+0.00,+6.00,-1.00,+4.00,+9.00,+15.00,+9.00,+3.00,-33.00,+13.00,+2.00,-1.00,+17.00,-1.00,-1.00,-13.00
-10.00,-23.00,-9.00,-3.00,+8.00,+1.00,+0.00,+4.00,+21.00,-5.00,-9.00,-19.00,-26.00,-16.00,-6.00,-2.00
-8.00,-14.00,-13.00,-6.00,-14.00,-31.00,-8.00,-7.00,-28.00,-8.00,-1.00,+2.00,-12.00,+6.00,+4.00,-2.00
-9.00,-38.00,-3.00,+1.00,+6.00,+37.00,+9.00,-4.00,-26.00,-11.00,+0.00,+7.00,+8.00,+2.00,+0.00,-6.00
+10.00,+34.00,+18.00,+0.00,+6.00,+10.00,+1.00,+1.00,-26.00,-7.00,-1.00,+9.00,+2.00,+1.00,-1.00,-11.00
-9.00,+10.00,+13.00,+5.00,+5.00,-15.00,-5.00,+3.00,+10.00,+7.00,+0.00,+5.00,+32.00,-1.00,-6.00,-2.00
-5.00,-4.00,-10.00,+0.00,-15.00,-2.00,-7.00,+0.00,-74.00,-37.00,-13.00,-14.00,-11.00,-9.00,-8.00,-27.00
-9.00,+3.00,-5.00,-6.00,-15.00,-13.00,+3.00,-2.00,+48.00,+18.00,-1.00,-9.00,-16.00,-3.00,+5.00,+14.00
-12.00,-12.00,-6.00,+1.00,-6.00,+1.00,+0.00,-9.00,+14.00,+22.00,+9.00,-8.00,-6.00,+2.00,+8.00,+11.00
-26.00,-19.00,-10.00,-5.00,+3.00,+1.00,-6.00,-12.00,+0.00,-11.00,-6.00,-9.00,-28.00,-5.00,-4.00,-13.00
-3.00,+16.00,+5.00,+1.00,-7.00,-8.00,-3.00,-3.00,-7.00,+3.00,-2.00,+1.00,+22.00,+12.00,+3.00,+6.00
+4.00,-8.00,+2.00,+3.00,+12.00,+7.00,+25.00,+4.00,-56.00,-26.00,-12.00,-1.00,+7.00,-20.00,-9.00,-18.00
+10.00,-1.00,+1.00,-3.00,-7.00,-9.00,-4.00,-5.00,-7.00,+0.00,-1.00,-14.00,-35.00,+30.00,-1.00,-12.00
-12.00,+0.00,-8.00,-8.00,-23.00,-24.00,+0.00,+5.00,+60.00,+19.00,+10.00,+14.00,+32.00,+11.00,+12.00,+36.00
+7.00,-6.00,+9.00,+10.00,+32.00,+2.00,+11.00,+2.00,-15.00,-4.00,-3.00,-6.00,-10.00,-6.00,-5.00,-11.00
+3.00,+13.00,+2.00,-2.00,+3.00,+36.00,-17.00,-5.00,-73.00,-24.00,-7.00,-4.00,-3.00,-3.00,-8.00,-21.00
+2.00,-4.00,-3.00,+0.00,-25.00,+8.00,+6.00,+5.00,+55.00,+26.00,+9.00,+10.00,-1.00,-8.00,+10.00,+34.00
+6.00,+0.00,-2.00,-3.00,+13.00,+10.00,-2.00,-3.00,-22.00,+6.00,+0.00,+0.00,+18.00,+3.00,-1.00,-2.00
+5.00,+6.00,+5.00,+2.00,-3.00,-15.00,-6.00,-3.00,-6.00,+3.00,-2.00,-1.00,+4.00,+1.00,-3.00,-3.00
+4.00,+7.00,+1.00,-1.00,-9.00,-14.00,+0.00,+4.00,+0.00,+1.00,+1.00,-6.00,-25.00,-7.00,-3.00,-10.00
-7.00,-21.00,-11.00,-3.00,+9.00,-4.00,-3.00,-4.00,-49.00,-41.00,-11.00,-5.00,-6.00,-11.00,-6.00,-11.00
-7.00,-30.00,-16.00,-8.00,-6.00,+2.00,-11.00,-7.00,+23.00,+10.00,+1.00,-4.00,+0.00,-2.00,-3.00,-6.00
+19.00,+62.00,+33.00,+11.00,+3.00,+12.00,+8.00,+14.00,-3.00,+2.00,+4.00,+12.00,-1.00,+1.00,+7.00,+4.00
-5.00,-4.00,-1.00,-1.00,+4.00,-6.00,-2.00,-11.00,+24.00,+8.00,+5.00,+16.00,+26.00,+6.00,-1.00,+11.00
+5.00,-19.00,-10.00,-2.00,-6.00,-11.00,-2.00,+2.00,+8.00,+5.00,+2.00,-18.00,+54.00,+8.00,+2.00,+4.00
-7.00,-27.00,-7.00,-6.00,-2.00,-22.00,-5.00,-9.00,-7.00,-12.00,-5.00,-24.00,-87.00,-23.00,-8.00,-9.00
+6.00,+30.00,+3.00,-2.00,-3.00,+9.00,-4.00,+0.00,-1.00,+2.00,-4.00,+4.00,+15.00,+0.00,-4.00,-1.00
-19.00,+1.00,+4.00,+0.00,+1.00,-3.00,-3.00,-10.00,-26.00,-11.00,-3.00,-3.00,-6.00,-14.00,-4.00,-17.00
-16.00,+0.00,+1.00,+4.00,+13.00,+6.00,+5.00,+3.00,+61.00,+4.00,-2.00,+4.00,-2.00,+0.00,-3.00,+4.00
+34.00,+27.00,+10.00,+1.00,-16.00,-26.00,-2.00,+1.00,+4.00,+17.00,+6.00,+7.00,+45.00,+11.00,+7.00,+15.00
-6.00,-20.00,-10.00,-3.00,+18.00,-3.00,+18.00,+5.00,+61.00,+10.00,+1.00,-9.00,-16.00,+0.00,+1.00,+16.00
+1.00,-3.00,-4.00,-2.00,-2.00,+42.00,-2.00,+1.00,+14.00,+17.00,+2.00,-3.00,+2.00,+6.00,+5.00,+16.00
+1.00,+5.00,+3.00,-2.00,+0.00,-18.00,-5.00,-3.00,-42.00,-15.00,-8.00,+3.00,-11.00,-10.00,-7.00,-25.00
+12.00,+14.00,+3.00,+3.00,+18.00,+27.00,-5.00,+5.00,-7.00,-8.00,-6.00,+4.00,+11.00,+6.00,+1.00,-5.00
-30.00,-36.00,-11.00,-7.00,-13.00,-13.00,-7.00,-8.00,-13.00,-14.00,+1.00,+3.00,-8.00,-1.00,-1.00,+1.00
+22.00,+7.00,+2.00,+2.00,-2.00,-11.00,-2.00,+4.00,+14.00,+11.00,+3.00,+2.00,+8.00,+5.00,+0.00,+2.00
-9.00,-15.00,+0.00,-1.00,+1.00,+3.00,+4.00,+2.00,-11.00,+2.00,-3.00,-2.00,-19.00,-7.00,-1.00,-1.00
-7.00,+3.00,-9.00,-1.00,+6.00,+10.00,-2.00,-3.00,+4.00,-10.00,-4.00,-3.00,+6.00,+1.00,-5.00,-11.00
+9.00,-8.00,-1.00,-1.00,-4.00,-2.00,-6.00,+4.00,-10.00,+3.00,-1.00,-1.00,+2.00,+3.00,+3.00,+1.00
-14.00,-31.00,-15.00,-6.00,-5.00,-19.00,-4.00,-7.00,-3.00,+15.00,+6.00,+8.00,+7.00,+5.00,+3.00,-1.00
+4.00,+30.00,+14.00,+4.00,-3.00,+5.00,-3.00,+0.00,-2.00,+1.00,-4.00,-17.00,-25.00,-43.00,-3.00,+7.00
+8.00,+28.00,+11.00,+7.00,+10.00,+9.00,+6.00,+2.00,+47.00,+21.00,+6.00,+11.00,+34.00,+45.00,+6.00,-1.00
-21.00,-32.00,-15.00,-6.00,-12.00,-3.00,-6.00,-7.00,+19.00,-16.00,-6.00,+4.00,+7.00,-3.00,-3.00,-1.00
+13.00,+12.00,-17.00,-8.00,-12.00,-11.00,-3.00,-6.00,-31.00,+13.00,+0.00,-14.00,-19.00,-5.00,-9.00,-23.00
+1.00,-10.00,+0.00,-1.00,+6.00,+5.00,+0.00,+5.00,+19.00,+8.00,+4.00,+13.00,+0.00,-3.00,+5.00,+13.00
+9.00,-11.00,+3.00,-1.00,-4.00,+6.00,+3.00,+0.00,-16.00,-13.00,-2.00,+1.00,+9.00,-45.00,-9.00,-7.00
+3.00,-4.00,-3.00,+0.00,+22.00,+8.00,+8.00,+5.00,-13.00,-6.00,-3.00,-9.00,-1.00,+14.00,-7.00,-6.00
+9.00,+6.00,+8.00,+2.00,-19.00,-21.00,+6.00,+7.00,+8.00,-13.00,-8.00,+1.00,-8.00,-3.00,+1.00,-1.00
-27.00,-7.00,-8.00,-6.00,+5.00,+42.00,-1.00,-5.00,-11.00,-3.00,-3.00,+5.00,+2.00,+10.00,-4.00,-13.00
+7.00,+9.00,+3.00,+4.00,+6.00,+5.00,+2.00,+10.00,-19.00,-10.00,-2.00,-3.00,-1.00,-15.00,+0.00,+0.00
+5.00,-8.00,+1.00,+1.00,-21.00,+18.00,-8.00,-1.00,-7.00,-10.00,-2.00,+4.00,-5.00,-3.00,+1.00,+3.00
-4.00,+1.00,-1.00,+0.00,+7.00,+13.00,+20.00,-2.00,+30.00,+7.00,+3.00,+0.00,-4.00,-6.00,+0.00,+6.00
-1.00,-9.00,-7.00,-3.00,+4.00,-25.00,-2.00,-6.00,+14.00,+8.00,+0.00,+1.00,-4.00,+4.00,+0.00,-3.00
-27.00,-10.00,-4.00,-4.00,-17.00,+2.00,-1.00,-4.00,-17.00,-15.00,-6.00,-2.00,-3.00,+6.00,+3.00,+9.00
+0.00,-2.00,-5.00,-3.00,+2.00,-2.00,-2.00,+2.00,-8.00,+5.00,+1.00,-8.00,-14.00,-8.00,-5.00,-9.00
-2.00,+8.00,+3.00,+0.00,+1.00,-3.00,-7.00,+3.00,-2.00,-2.00,-8.00,-8.00,+4.00,+6.00,-1.00,+11.00
+1.00,-1.00,+2.00,+0.00,-8.00,-6.00,-3.00,-8.00,-7.00,+0.00,-2.00,-1.00,-6.00,+2.00,-3.00,+0.00
+1.00,-5.00,-1.00,+1.00,+8.00,+3.00,+6.00,+2.00,-26.00,-18.00,+1.00,+7.00,+7.00,+5.00,-6.00,-19.00
+7.00,-8.00,-6.00,-3.00,-2.00,-13.00,-3.00,+5.00,+20.00,+6.00,-2.00,+4.00,+6.00,+2.00,+2.00,+3.00
-16.00,-2.00,+2.00,-3.00,-2.00,-9.00,-11.00,-11.00,-3.00,+12.00,+3.00,-7.00,-5.00,-11.00,-3.00,-1.00
-15.00,-4.00,+1.00,-5.00,-3.00,-11.00,-4.00,+1.00,-12.00,-9.00,-1.00,+2.00,-2.00,+2.00,+0.00,-5.00
+6.00,+0.00,+7.00,-2.00,-8.00,-7.00,-5.00,-3.00,-11.00,-2.00,+1.00,+4.00,+0.00,+4.00,+2.00,+0.00
-10.00,-10.00,-14.00,+1.00,+2.00,+3.00,-2.00,-2.00,-13.00,-14.00,-8.00,-6.00,-4.00,-7.00,+0.00,-1.00
+12.00,+28.00,+2.00,-3.00,-3.00,-4.00,-6.00,-2.00,+7.00,-8.00,+4.00,+6.00,+15.00,+13.00,+2.00,+0.00
+10.00,-8.00,+1.00,+2.00,+34.00,+25.00,+1.00,+3.00,+15.00,+5.00,+3.00,+4.00,-18.00,+1.00,+0.00,+1.00
-4.00,+1.00,+4.00,+0.00,-28.00,-10.00,+1.00,-3.00,+4.00,+5.00,-4.00,-1.00,+10.00,+7.00,+0.00,+4.00
-2.00,-4.00,+1.00,-2.00,-5.00,-7.00,+0.00,-4.00,-3.00,+2.00,+3.00,-2.00,-6.00,-6.00,-1.00,-11.00
-4.00,-6.00,-3.00,+1.00,+12.00,+1.00,-3.00,+1.00,-6.00,-13.00,-8.00,-3.00,+1.00,-4.00,+0.00,-3.00
+1.00,+4.00,-7.00,-1.00,-11.00,-30.00,-4.00,+3.00,+7.00,-2.00,-1.00,+0.00,+4.00,+2.00,+1.00,+0.00
-7.00,+6.00,+7.00,+6.00,+8.00,+35.00,+1.00,-4.00,-26.00,-7.00,-5.00,-5.00,-9.00,-3.00,+2.00,-4.00
+18.00,+2.00,+2.00,-1.00,+8.00,+4.00,+4.00,-5.00,+18.00,+8.00,+1.00,+1.00,+4.00,+2.00,+3.00,+5.00
-3.00,-7.00,-1.00,-2.00,-3.00,-3.00,-6.00,+2.00,-10.00,-5.00,-3.00,+0.00,-7.00,-4.00,-2.00,-5.00
-8.00,-6.00,-3.00,-1.00,-9.00,+7.00,+10.00,+2.00,-10.00,-9.00,-6.00,-3.00,+3.00,-1.00,-3.00,-2.00
-6.00,-2.00,-15.00,-7.00,-2.00,-15.00,-4.00,-2.00,+3.00,-2.00,+4.00,-3.00,-3.00,+0.00,-2.00,-7.00
-5.00,-6.00,+3.00,+0.00,-4.00,-3.00,+1.00,+6.00,-19.00,+1.00,+0.00,+0.00,+3.00,+1.00,+6.00,+8.00
-19.00,-2.00,+0.00,+0.00,+1.00,+5.00,-3.00,+1.00,+13.00,+3.00,-2.00,-3.00,-1.00,+0.00,+0.00,+5.00
+14.00,+6.00,+4.00,+0.00,-5.00,-4.00,+1.00,+6.00,-19.00,-10.00,-2.00,-7.00,-6.00,-4.00,-4.00,-7.00
+1.00,-5.00,-6.00,-2.00,+1.00,-4.00,+1.00,+4.00,+21.00,+13.00,+3.00,+1.00,+0.00,+2.00,+1.00,+8.00
-14.00,-16.00,-10.00,-6.00,-2.00,-2.00,-6.00,-8.00,+3.00,+4.00,-1.00,+3.00,-1.00,+1.00,+2.00,+2.00
+13.00,+20.00,+11.00,+3.00,-1.00,-5.00,+0.00,+3.00,-2.00,-8.00,-4.00,+3.00,-2.00,-6.00,-2.00,-4.00
-14.00,-10.00,+2.00,+4.00,+1.00,+2.00,-2.00,+4.00,-7.00,+1.00,+2.00,-1.00,+4.00,+4.00,+1.00,+7.00
-10.00,-10.00,-7.00,-2.00,+9.00,-3.00,-2.00,-5.00,-5.00,-8.00,-7.00,-8.00,-8.00,-5.00,-5.00,-7.00
-1.00,-5.00,-2.00,-2.00,-27.00,-6.00,-2.00,-3.00,+17.00,+9.00,+3.00,+4.00,+1.00,-1.00,-5.00,-7.00
+9.00,+1.00,+3.00,+2.00,+6.00,+3.00,+1.00,+3.00,-3.00,+3.00,-1.00,-2.00,+7.00,+0.00,+3.00,+6.00
+5.00,-2.00,-12.00,-3.00,+1.00,-1.00,-3.00,-4.00,-1.00,-4.00,-2.00,-2.00,-14.00,-1.00,-4.00,-9.00
+6.00,+20.00,+12.00,-1.00,+2.00,+3.00,-1.00,-2.00,+25.00,+7.00,-2.00,-1.00,+8.00,+6.00,+1.00,+8.00
+21.00,+8.00,+4.00,-2.00,+5.00,-2.00,+2.00,+1.00,-14.00,+0.00,-2.00,-2.00,-4.00,-7.00,-1.00,-2.00
+6.00,-5.00,-4.00,-1.00,-2.00,+0.00,-2.00,-5.00,-2.00,-9.00,-1.00,+0.00,-1.00,+0.00,-2.00,-4.00
+1.00,-3.00,-4.00,-2.00,-8.00,-2.00,+0.00,+7.00,+21.00,+8.00,-2.00,-5.00,+1.00,+0.00,+0.00,+4.00
+1.00,-5.00,-1.00,-1.00,+1.00,-10.00,+0.00,-1.00,-12.00,+0.00,-1.00,-2.00,+0.00,+0.00,-1.00,-5.00
-3.00,+10.00,+4.00,+4.00,+12.00,+10.00,-5.00,-4.00,-14.00,-5.00,+0.00,-6.00,-8.00,-2.00,-3.00,-3.00
-5.00,-7.00,-3.00,+0.00,-6.00,-1.00,+0.00,+2.00,+10.00,-1.00,+0.00,+0.00,+1.00,+0.00,+0.00,-2.00
+13.00,+19.00,+4.00,-2.00,-4.00,-4.00,-2.00,+0.00,-15.00,-5.00,+0.00,+3.00,+7.00,+0.00,-3.00,-13.00
+15.00,+0.00,-2.00,-1.00,+3.00,+3.00,+1.00,-13.00,+3.00,+6.00,-1.00,-1.00,-9.00,-1.00,+0.00,+1.00
-12.00,+1.00,-2.00,-5.00,-9.00,-10.00,-2.00,-1.00,-1.00,-5.00,-1.00,+4.00,+3.00,+3.00,+2.00,+6.00
+1.00,-7.00,+1.00,+0.00,-2.00,-2.00,+0.00,+2.00,+1.00,+6.00,+1.00,-4.00,-10.00,-5.00,-4.00,-4.00
-13.00,-9.00,-4.00,+1.00,-4.00,-1.00,-5.00,-5.00,+0.00,+0.00,-5.00,-7.00,+0.00,+1.00,+0.00,+3.00
-4.00,-6.00,-2.00,-2.00,+0.00,-2.00,+0.00,+3.00,+10.00,-4.00,-4.00,+2.00,+16.00,+2.00,+2.00,+0.00
-11.00,-4.00,-3.00,-2.00,+6.00,+5.00,-2.00,+0.00,-24.00,-2.00,+3.00,-4.00,-19.00,-3.00,-4.00,-7.00
-10.00,-10.00,-3.00,-3.00,+7.00,+0.00,-2.00,-2.00,-7.00,-8.00,-3.00,-1.00,-6.00,-2.00,-2.00,-6.00
+5.00,-4.00,+4.00,+2.00,-10.00,+0.00,+1.00,-4.00,+12.00,+3.00,-2.00,+2.00,+1.00,-1.00,+1.00,+3.00
+0.00,+1.00,-8.00,-4.00,+3.00,-1.00,+1.00,+0.00,-15.00,-8.00,-5.00,-2.00,-4.00,-1.00,-2.00,-1.00
+3.00,+3.00,-3.00,-2.00,+8.00,+0.00,-1.00,+0.00,+13.00,+7.00,-1.00,-2.00,+6.00,+0.00,+0.00,+7.00
+5.00,+0.00,-7.00,-2.00,-4.00,-13.00,-2.00,+2.00,-1.00,-3.00,-1.00,-1.00,+0.00,+1.00,-1.00,+1.00
+27.00,-9.00,+13.00,+5.00,-1.00,+8.00,+2.00,+6.00,+3.00,+2.00,+5.00,-2.00,-6.00,-1.00,-2.00,-1.00
+8.00,+5.00,+1.00,+1.00,+6.00,+10.00,-1.00,+12.00,-10.00,-2.00,+0.00,+4.00,+3.00,-2.00,+0.00,-5.00
+5.00,+2.00,-1.00,+0.00,-1.00,-2.00,+1.00,+12.00,-5.00,-4.00,-5.00,-9.00,+0.00,-3.00,-1.00,-4.00
-11.00,+6.00,-4.00,-6.00,-6.00,-4.00,-1.00,-5.00,+6.00,+4.00,+0.00,-1.00,-6.00,-2.00,+0.00,+3.00
-2.00,-9.00,-6.00,-3.00,+4.00,-4.00,-3.00,-10.00,-11.00,-7.00,-4.00,+1.00,+2.00,-2.00,-3.00,-2.00
+5.00,-5.00,+2.00,+0.00,-5.00,-3.00,+0.00,+2.00,-8.00,+0.00,-1.00,-2.00,-3.00,-2.00,-2.00,-5.00
+3.00,-7.00,-2.00,+0.00,+1.00,-2.00,+0.00,-4.00,-4.00,-8.00,-4.00,-2.00,-1.00,-2.00,-3.00,-6.00
+1.00,+1.00,-1.00,+1.00,-5.00,+1.00,-2.00,+1.00,+10.00,+3.00,+2.00,+2.00,+6.00,+2.00,+4.00,+3.00
-7.00,+9.00,+1.00,-1.00,+3.00,-3.00,+0.00,+1.00,+2.00,+3.00,+4.00,+7.00,+4.00,+1.00,-1.00,+0.00
-9.00,-8.00,-3.00,+1.00,-4.00,-3.00,+0.00,+1.00,+4.00,-2.00,-6.00,-17.00,-18.00,-3.00,+2.00,+6.00
-2.00,+3.00,-4.00,-1.00,-4.00,-4.00,-5.00,-10.00,-1.00,-3.00,-3.00,-4.00,-5.00,-4.00,-2.00,-4.00
-6.00,-4.00,+1.00,+0.00,+0.00,-1.00,-3.00,-3.00,-15.00,-5.00,-2.00,+1.00,+4.00,-2.00,-1.00,-2.00
