+1.00,+0.00,+2.00,+0.00,+0.00,-1.00,+0.00,-2.00,+2.00,+0.00,-1.00,-1.00,-1.00,-2.00,+0.00,+0.00
+1.00,+1.00,+2.00,+1.00,+0.00,+2.00,-2.00,-1.00,-2.00,-7.00,-5.00,-3.00,-1.00,+1.00,-2.00,-4.00
+0.00,-6.00,-5.00,-2.00,-3.00,-1.00,+1.00,+4.00,+0.00,+4.00,+5.00,+1.00,+0.00,-2.00,+0.00,+0.00
+1.00,+4.00,+0.00,-1.00,-1.00,+0.00,-1.00,-2.00,-4.00,-6.00,-5.00,-2.00,-2.00,-1.00,-3.00,-2.00
+1.00,+2.00,-1.00,-2.00,-2.00,-1.00,+1.00,+3.00,-5.00,-2.00,+0.00,-3.00,-1.00,+1.00,-2.00,-1.00
-2.00,-6.00,+2.00,-1.00,+1.00,-2.00,+1.00,-2.00,-2.00,-4.00,+0.00,+0.00,-2.00,-2.00,-2.00,-2.00
-1.00,+4.00,+1.00,-2.00,+1.00,-2.00,+0.00,+0.00,-2.00,-14.00,-3.00,-1.00,-1.00,-1.00,+0.00,+0.00
+0.00,-7.00,-3.00,+1.00,+2.00,-1.00,-1.00,-1.00,+14.00,+20.00,+6.00,+2.00,+1.00,-1.00,+2.00,+2.00
+4.00,+3.00,-4.00,-2.00,-2.00,-2.00,-2.00,+1.00,-8.00,-7.00,-3.00,-1.00,+1.00,+0.00,-1.00,-7.00
-2.00,-5.00,-3.00,-2.00,-4.00,+0.00,+0.00,-1.00,+2.00,-4.00,-3.00,+0.00,-1.00,-1.00,-1.00,-2.00
+0.00,+16.00,+6.00,+2.00,-1.00,+1.00,-1.00,-2.00,-8.00,+1.00,-3.00,-3.00,-1.00,-11.00,-3.00,-1.00
-5.00,-13.00,-5.00,-2.00,-1.00,-3.00,-1.00,+0.00,-2.00,-5.00,-4.00,-1.00,+0.00,+8.00,+0.00,-3.00
+1.00,+22.00,+5.00,+0.00,+0.00,+0.00,-1.00,-2.00,+7.00,+8.00,+4.00,+4.00,+3.00,+3.00,+3.00,+7.00
+4.00,-4.00,+2.00,+1.00,+0.00,+1.00,-1.00,+1.00,+9.00,+18.00,+4.00,+0.00,-2.00,-2.00,-1.00,+3.00
-17.00,+7.00,-2.00,-1.00,-1.00,-1.00,+1.00,-2.00,-6.00,-15.00,-3.00,-2.00,-3.00,-1.00,-3.00,-3.00
+8.00,-3.00,+0.00,-1.00,-2.00,+1.00,-1.00,-1.00,+1.00,+5.00,+0.00,-2.00,-3.00,-3.00,-1.00,+3.00
+4.00,-4.00,+4.00,+0.00,-2.00,-3.00,+0.00,-1.00,-12.00,-35.00,-10.00,+0.00,-2.00,-5.00,-4.00,-4.00
-3.00,-4.00,-5.00,-3.00,-1.00,+0.00,-5.00,-1.00,-10.00,+0.00,-2.00,+0.00,-1.00,+1.00,+1.00,-1.00
+8.00,+11.00,+3.00,+3.00,+2.00,+3.00,+0.00,+1.00,+14.00,+22.00,+10.00,-1.00,-3.00,-7.00,+5.00,+11.00
-12.00,-13.00,-3.00,-1.00,-1.00,-3.00,-4.00,-11.00,+49.00,+27.00,+5.00,+4.00,+4.00,+17.00,+1.00,+6.00
-1.00,-12.00,-1.00,-1.00,-2.00,-2.00,-1.00,+1.00,-6.00,-1.00,-3.00,+1.00,+3.00,-4.00,+1.00,-1.00
-3.00,+25.00,+2.00,+0.00,+1.00,-2.00,-1.00,-2.00,+20.00,+25.00,+6.00,-3.00,-3.00,-4.00,+1.00,+6.00
-3.00,-18.00,-4.00,-1.00,-1.00,-1.00,-1.00,-3.00,-9.00,-2.00,+0.00,-1.00,+0.00,+2.00,-4.00,-8.00
+6.00,-3.00,-1.00,-4.00,-2.00,+0.00,-1.00,+2.00,-25.00,-30.00,-10.00,-7.00,-5.00,-6.00,-3.00,-5.00
-29.00,-20.00,-2.00,+1.00,-2.00,+0.00,-2.00,+0.00,-35.00,-36.00,-7.00,-5.00,-3.00,-5.00,-4.00,-7.00
+13.00,-5.00,+5.00,+4.00,+3.00,-3.00,-1.00,+0.00,+29.00,+3.00,+3.00,+1.00,+3.00,+2.00,+0.00,+0.00
+20.00,+14.00,+4.00,+1.00,+1.00,+1.00,-1.00,-5.00,-11.00,+9.00,+4.00,+1.00,+0.00,+4.00,+0.00,+1.00
-1.00,-12.00,-2.00,-1.00,+1.00,-2.00,+3.00,+1.00,+9.00,+2.00,+0.00,+0.00,-3.00,-9.00,+2.00,+0.00
-6.00,-5.00,-8.00,-3.00,-1.00,+1.00,+1.00,-6.00,+8.00,+2.00,-3.00,-2.00,-3.00,+4.00,-2.00,+4.00
-6.00,+18.00,+6.00,+0.00,-1.00,+1.00,+0.00,-2.00,-28.00,-27.00,-8.00,-3.00,-2.00,-9.00,-4.00,-8.00
+1.00,-3.00,-12.00,-6.00,-4.00,-3.00,-2.00,+3.00,-22.00,+25.00,+3.00,+0.00,+6.00,+4.00,-4.00,-11.00
+18.00,+27.00,+16.00,+5.00,+2.00,+0.00,+2.00,+6.00,-14.00,-47.00,-19.00,-3.00,-12.00,-7.00,-5.00,-7.00
+14.00,-2.00,-3.00,-4.00,-1.00,-2.00,+0.00,+0.00,+10.00,+43.00,+4.00,-5.00,-5.00,-8.00,-2.00,-3.00
-11.00,-17.00,-1.00,+0.00,+2.00,+2.00,-3.00,-9.00,-5.00,-48.00,-6.00,+2.00,+0.00,+13.00,+1.00,+4.00
+2.00,+0.00,-6.00,-2.00,-3.00,-3.00,-8.00,-3.00,-18.00,+22.00,+7.00,-1.00,+1.00,-14.00,-3.00,-9.00
-28.00,+12.00,-4.00,-5.00,-5.00,-3.00,+2.00,-4.00,+20.00,+24.00,+2.00,-6.00,+0.00,+11.00,-4.00,+6.00
+10.00,+6.00,+3.00,-1.00,-1.00,-3.00,+0.00,+5.00,-30.00,-36.00,-13.00,-5.00,-8.00,-1.00,-1.00,-5.00
-15.00,-42.00,-16.00,-4.00,-1.00,-1.00,+0.00,-3.00,+21.00,+26.00,-1.00,-3.00,-1.00,-3.00,+1.00,+4.00
-2.00,+17.00,+18.00,+4.00,+2.00,-4.00,-3.00,+0.00,-23.00,-6.00,+2.00,-1.00,+0.00,-2.00,+0.00,-3.00
+9.00,+8.00,-10.00,-4.00,-1.00,+5.00,-4.00,+1.00,+32.00,-4.00,+0.00,+5.00,+24.00,-38.00,+2.00,+12.00
+14.00,+9.00,+3.00,+2.00,-1.00,-4.00,+0.00,-3.00,+11.00,+19.00,+9.00,+6.00,-45.00,+1.00,-7.00,+1.00
-7.00,-24.00,-8.00,-6.00,-7.00,-13.00,-2.00,+1.00,+21.00,+20.00,+5.00,+1.00,+41.00,+12.00,+5.00,+11.00
-20.00,-1.00,-10.00,-7.00,-2.00,+4.00,+0.00,-3.00,-24.00,-12.00,-6.00,-5.00,-2.00,+11.00,-2.00,-8.00
+9.00,-7.00,+5.00,+2.00,-1.00,+1.00,-5.00,+1.00,-2.00,-23.00,-6.00,-12.00,-40.00,-29.00,-4.00,-18.00
+3.00,+16.00,+4.00,+2.00,+1.00,+0.00,-2.00,-11.00,+11.00,-14.00,+2.00,+3.00,+24.00,+27.00,-1.00,+0.00
-10.00,-20.00,-13.00,-5.00,-4.00,+1.00,-7.00,+3.00,-46.00,-9.00,-8.00,-7.00,-12.00,-8.00,+8.00,-14.00
+6.00,-2.00,+4.00,+0.00,+6.00,+9.00,+4.00,+6.00,+3.00,-1.00,+2.00,+11.00,+11.00,+3.00,-5.00,-6.00
+12.00,+22.00,+10.00,+5.00,-6.00,-10.00,+4.00,+7.00,+8.00,+8.00,+10.00,+0.00,+17.00,+4.00,+3.00,+11.00
-7.00,-3.00,-4.00,-3.00,-4.00,-33.00,+0.00,+1.00,-57.00,-43.00,-29.00,-17.00,-24.00,-14.00,-12.00,-27.00
-3.00,-11.00,-9.00,-6.00,+0.00,+33.00,+6.00,-7.00,+63.00,+32.00,+16.00,-1.00,-6.00,+9.00,-2.00,+22.00
+12.00,+25.00,+12.00,+5.00,+6.00,-14.00,-11.00,+8.00,+21.00,+12.00,+0.00,-7.00,-7.00,-2.00,+2.00,+10.00
-5.00,+3.00,-2.00,-1.00,+3.00,+14.00,+1.00,-6.00,-26.00,-20.00,-7.00,+3.00,+12.00,+8.00,+0.00,-15.00
+16.00,-6.00,+2.00,+1.00,-6.00,-21.00,-7.00,-1.00,+26.00,+20.00,+14.00,+3.00,+15.00,+2.00,+7.00,+11.00
+1.00,+10.00,+6.00,+1.00,+2.00,+1.00,+3.00,+2.00,-28.00,-4.00,+2.00,+1.00,-9.00,-5.00,-9.00,-10.00
-10.00,-26.00,-22.00,-12.00,-10.00,-8.00,-3.00,-8.00,+51.00,+24.00,+3.00,-3.00,-1.00,-7.00,+6.00,+20.00
+3.00,+19.00,+3.00,+2.00,+1.00,-26.00,-6.00,+1.00,-10.00,+3.00,+1.00,+6.00,+1.00,+13.00,+1.00,+0.00
-48.00,-45.00,-10.00,-3.00,+2.00,+14.00,-3.00,-12.00,-39.00,-22.00,-12.00,-6.00,+3.00,-7.00,-7.00,-17.00
+14.00,+45.00,+15.00,+3.00,+1.00,+0.00,+3.00,+7.00,+25.00,+33.00,+12.00,+6.00,-2.00,-11.00,+3.00,+20.00
-11.00,-17.00,+1.00,+3.00,-3.00,+6.00,+8.00,+1.00,+34.00,-46.00,-18.00,-1.00,+2.00,-12.00,-4.00,-9.00
+3.00,-9.00,-4.00,+1.00,-1.00,-5.00,-6.00,+0.00,-4.00,+23.00,+5.00,-3.00,-13.00,-20.00,-5.00,+3.00
-5.00,-6.00,-4.00,-2.00,+0.00,+9.00,+3.00,+3.00,-25.00,-6.00,-1.00,-1.00,+26.00,+46.00,+9.00,+0.00
+13.00,+20.00,+7.00,+5.00,+1.00,-6.00,+0.00,+6.00,-47.00,+3.00,-3.00,+7.00,-8.00,-51.00,-14.00,-4.00
-8.00,-22.00,-8.00,-8.00,-8.00,-10.00,-6.00,-6.00,-15.00,-26.00,-9.00,+12.00,+10.00,+12.00,-11.00,-7.00
-1.00,+2.00,+5.00,+5.00,+4.00,+12.00,+5.00,-9.00,-62.00,-56.00,-23.00,-5.00,+1.00,+8.00,+0.00,-16.00
-17.00,-15.00,-15.00,-9.00,-6.00,-30.00,+7.00,-3.00,+61.00,+43.00,+11.00,-15.00,-15.00,+1.00,+4.00,+11.00
+9.00,+33.00,+3.00,+0.00,+2.00,+49.00,+7.00,-3.00,-39.00,-33.00,-13.00,-5.00,+19.00,-4.00,-9.00,-22.00
+2.00,+32.00,+3.00,+2.00,-1.00,-21.00,-14.00,+10.00,+10.00,-7.00,+1.00,+2.00,-30.00,-13.00,+2.00,+3.00
-10.00,-31.00,-4.00,-3.00,+14.00,+25.00,-5.00,-3.00,-3.00,-49.00,-11.00,+14.00,-7.00,-3.00,-2.00,+0.00
-1.00,-14.00,-7.00,-4.00,-21.00,+5.00,+7.00,+3.00,+5.00,+73.00,+20.00,-9.00,-10.00,-15.00,+2.00,+11.00
-8.00,+11.00,-3.00,+0.00,+5.00,-13.00,+3.00,-11.00,-33.00,-30.00,-12.00,-11.00,-5.00,+17.00,-3.00,-20.00
+13.00,+4.00,+8.00,+4.00,+0.00,-3.00,+4.00,-4.00,+21.00,+10.00,+2.00,-6.00,-1.00,+2.00,+4.00,+7.00
+0.00,-10.00,-4.00,-3.00,-4.00,-65.00,-12.00,+6.00,-53.00,-12.00,+2.00,-1.00,-1.00,+8.00,-6.00,-13.00
-1.00,-6.00,-1.00,+0.00,+14.00,+42.00,+15.00,+0.00,+22.00,-4.00,-12.00,+2.00,+5.00,-14.00,-3.00,-10.00
-3.00,-6.00,-7.00,-3.00,-16.00,-12.00,-13.00,-3.00,+4.00,-9.00,+12.00,+6.00,-4.00,+10.00,+2.00,+5.00
+8.00,+4.00,+7.00,+3.00,+22.00,+19.00,+9.00,+3.00,+3.00,+5.00,+3.00,-11.00,+3.00,-5.00,-2.00,+1.00
-12.00,-15.00,-8.00,-5.00,-23.00,-41.00,-23.00,-5.00,+63.00,+83.00,+28.00,+1.00,-11.00,+25.00,+16.00,+33.00
+6.00,+36.00,+12.00,+3.00,+6.00,+23.00,-4.00,+5.00,-9.00,-2.00,+3.00,+11.00,+30.00,-11.00,-10.00,-6.00
-3.00,-15.00,-4.00,-3.00,-10.00,-16.00,-5.00,-6.00,-21.00,-74.00,-25.00,-10.00,-19.00,-30.00,-6.00,-29.00
-6.00,+0.00,-17.00,-8.00,+1.00,+9.00,+0.00,-7.00,+16.00,+51.00,+21.00,+17.00,+10.00,+3.00,+10.00,+26.00
+23.00,+1.00,+8.00,+4.00,+2.00,+8.00,+11.00,+3.00,-45.00,-3.00,-2.00,-21.00,-3.00,+14.00,-7.00,-11.00
-11.00,-9.00,-3.00,-3.00,-6.00,+4.00,-8.00,+1.00,+107.00,+26.00,+11.00,+9.00,+24.00,+14.00,+4.00,+32.00
+10.00,-6.00,+14.00,+9.00,+14.00,+12.00,+0.00,+4.00,-53.00,-33.00,-12.00,-4.00,-14.00,+10.00,-12.00,-28.00
+1.00,+17.00,-2.00,-2.00,-9.00,-4.00,+2.00,+1.00,-29.00,-31.00,-2.00,-17.00,-28.00,-16.00,-1.00,+4.00
-5.00,+14.00,-6.00,-7.00,-5.00,+20.00,+4.00,-7.00,-7.00,+51.00,+9.00,+1.00,+9.00,-79.00,-4.00,-13.00
+16.00,+34.00,+16.00,+10.00,+17.00,+43.00,-8.00,+10.00,-57.00,-23.00,+5.00,+9.00,+1.00,+16.00,+6.00,+5.00
-6.00,-22.00,-2.00,+2.00,-4.00,-33.00,+0.00,-3.00,-45.00,-5.00,-11.00,-15.00,-38.00,-8.00,-19.00,-34.00
-22.00,-32.00,-2.00,+1.00,+0.00,+23.00,+9.00,-1.00,+48.00,+3.00,+4.00,+6.00,+10.00,+11.00,+6.00,+15.00
+12.00,-11.00,-15.00,-8.00,-19.00,-7.00,-2.00,-2.00,-3.00,+11.00,+1.00,+8.00,+1.00,-4.00,-15.00,-13.00
-12.00,+41.00,+17.00,+1.00,+11.00,+29.00,+8.00,+3.00,+0.00,-7.00,+7.00,+20.00,+54.00,-7.00,+6.00,+0.00
+4.00,+0.00,+4.00,+1.00,-1.00,-10.00,-2.00,+5.00,-21.00,+7.00,+0.00,-26.00,-61.00,-13.00,-4.00,-7.00
+8.00,+1.00,+4.00,+1.00,-3.00,+6.00,+9.00,+6.00,+67.00,+43.00,+19.00,+11.00,+77.00,-12.00,-1.00,+29.00
-8.00,-16.00,-13.00,-9.00,-6.00,-1.00,-5.00,-12.00,-25.00,-56.00,-17.00,-9.00,-58.00,+10.00,-6.00,-7.00
-2.00,-16.00,-13.00,-1.00,+1.00,+1.00,-8.00,-6.00,-38.00,-9.00,-7.00,-11.00,-12.00,+7.00,-3.00,-13.00
-26.00,+2.00,+0.00,-3.00,-5.00,-1.00,+0.00,-7.00,+31.00,+9.00,+5.00,+10.00,+29.00,+16.00,+14.00,+25.00
+6.00,+4.00,+7.00,+2.00,-15.00,-92.00,-39.00,+3.00,-35.00,-33.00,-17.00,+6.00,+13.00,+19.00,-6.00,-32.00
+10.00,-22.00,-1.00,+4.00,+31.00,+91.00,+22.00,+5.00,+111.00,+75.00,+18.00,+7.00,-1.00,+20.00,+12.00,+51.00
+4.00,+21.00,+9.00,+6.00,-12.00,-49.00,+16.00,+2.00,-24.00,-24.00,-7.00,-13.00,-13.00,-12.00,-2.00,+0.00
+2.00,-3.00,-13.00,-6.00,+5.00,+30.00,-6.00,-6.00,+39.00,+41.00,+12.00,+13.00,+20.00,+5.00,+3.00,+0.00
-7.00,-27.00,-4.00,-1.00,-2.00,+1.00,-11.00,-12.00,-56.00,+13.00,-5.00,-12.00,-38.00,+3.00,-3.00,-13.00
-11.00,+6.00,+0.00,-1.00,+0.00,-9.00,-7.00,+1.00,-21.00,-42.00,-8.00,+12.00,+37.00,+2.00,-13.00,-25.00
+11.00,-2.00,-14.00,-8.00,-7.00,-74.00,-23.00,-3.00,+47.00,+4.00,-2.00,-16.00,-23.00,-4.00,-2.00,+7.00
+4.00,-4.00,+17.00,+8.00,+9.00,+31.00,+15.00,+17.00,+100.00,+54.00,+24.00,+6.00,-7.00,-11.00,+14.00,+61.00
-3.00,-5.00,-1.00,+0.00,-20.00,+9.00,+3.00,-6.00,-112.00,-104.00,-34.00,-7.00,-25.00,-51.00,-19.00,-47.00
+0.00,+22.00,+2.00,+2.00,-3.00,-18.00,+0.00,+0.00,+14.00,+66.00,+20.00,-7.00,+24.00,+48.00,+14.00,+8.00
+2.00,-11.00,-4.00,-4.00,+1.00,+13.00,+5.00,+1.00,-53.00,-45.00,-17.00,+2.00,-24.00,-6.00,-12.00,-46.00
+17.00,-16.00,-5.00,+0.00,-1.00,-6.00,-2.00,+2.00,-29.00,-26.00,-11.00,+0.00,-18.00,-17.00,-2.00,+5.00
+0.00,+8.00,-5.00,-1.00,+1.00,+7.00,+2.00,-2.00,+83.00,+1.00,-5.00,-2.00,+10.00,+10.00,+7.00,+23.00
-12.00,-9.00,+23.00,+9.00,+4.00,-21.00,+7.00,+0.00,-31.00,-37.00,-11.00,-9.00,+5.00,-27.00,-3.00,-4.00
+5.00,+12.00,-11.00,-6.00,+2.00,+1.00,-5.00,-4.00,+29.00,+47.00,+3.00,+5.00,+43.00,-8.00,-13.00,+10.00
-5.00,+30.00,+4.00,-2.00,-14.00,-41.00,-12.00,-1.00,-23.00,-39.00,-13.00,-5.00,-67.00,+8.00,+5.00,-27.00
-8.00,-23.00,+0.00,+1.00,+13.00,+30.00,+6.00,-5.00,+17.00,+60.00,+20.00,+9.00,+5.00,+7.00,+3.00,+28.00
-7.00,+5.00,-11.00,-4.00,+0.00,+37.00,+2.00,-3.00,-33.00,-37.00,-15.00,-8.00,+11.00,+3.00,-2.00,-27.00
-14.00,-27.00,+1.00,+2.00,+12.00,+12.00,+2.00,+3.00,-6.00,+13.00,+4.00,-1.00,-10.00,-68.00,-14.00,+4.00
-10.00,-19.00,-11.00,-5.00,-7.00,-7.00,-9.00,-10.00,-70.00,-7.00,-8.00,-2.00,+19.00,+5.00,-15.00,-21.00
-2.00,-30.00,-10.00,-5.00,+0.00,-26.00,+11.00,-3.00,-50.00,-58.00,-25.00,-14.00,+9.00,-13.00,-25.00,-35.00
-18.00,+34.00,+1.00,-3.00,-1.00,+12.00,+16.00,-2.00,+2.00,+8.00,+4.00,-13.00,-36.00,-1.00,+13.00,+21.00
+19.00,+34.00,+21.00,+9.00,+9.00,+11.00,+1.00,+0.00,-24.00,-26.00,-12.00,-9.00,-50.00,-30.00,-14.00,-10.00
+10.00,-16.00,-7.00,-3.00,-9.00,-42.00,+3.00,+2.00,+10.00,+22.00,+0.00,+5.00,+26.00,-5.00,+22.00,+3.00
-6.00,-9.00,-10.00,-4.00,+1.00,+22.00,+1.00,-9.00,-123.00,-57.00,-14.00,-8.00,-11.00,-16.00,-4.00,-39.00
+18.00,+0.00,-3.00,-3.00,-3.00,-11.00,-7.00,+10.00,+87.00,+12.00,+0.00,+9.00,+34.00,+20.00,+3.00,+34.00
+17.00,-14.00,-17.00,-8.00,+14.00,-10.00,-7.00,-8.00,+44.00,+79.00,+16.00,+7.00,+105.00,+52.00,+11.00,+27.00
-9.00,+5.00,+7.00,+2.00,-18.00,-29.00,-4.00,+7.00,-68.00,-80.00,-26.00,-21.00,-85.00,-63.00,-30.00,-43.00
+0.00,-4.00,-2.00,-4.00,+4.00,-4.00,+5.00,+2.00,+23.00,+61.00,+6.00,-5.00,+24.00,+52.00,+16.00,+10.00
+15.00,+12.00,+6.00,+3.00,-1.00,+5.00,-8.00,+6.00,-42.00,+20.00,+3.00,+13.00,+30.00,-12.00,+0.00,-6.00
+14.00,+9.00,-4.00,-6.00,-10.00,-11.00,-3.00,-5.00,+11.00,-64.00,-18.00,-12.00,-29.00,+15.00,+8.00,+6.00
-2.00,-13.00,-8.00,-3.00,+3.00,-35.00,-17.00,-4.00,+4.00,+61.00,+20.00,+13.00,+45.00,+16.00,+3.00,+10.00
-11.00,-1.00,+7.00,+1.00,-24.00,-62.00,+1.00,+7.00,+9.00,+6.00,+1.00,+2.00,+20.00,-4.00,+5.00,-1.00
+3.00,+15.00,-8.00,-6.00,-7.00,-17.00,-4.00,-8.00,-81.00,-47.00,-15.00,-7.00,-65.00,-7.00,-16.00,-40.00
-20.00,-29.00,-2.00,-3.00,-8.00,-37.00,-5.00,-3.00,+1.00,+22.00,+10.00,-3.00,-17.00,+2.00,-1.00,-5.00
+9.00,+29.00,+6.00,+2.00,+25.00,+40.00,+9.00,-1.00,-10.00,-25.00,-10.00,-1.00,+56.00,+10.00,-12.00,-7.00
-2.00,-17.00,-5.00,-6.00,-17.00,+17.00,+5.00,-2.00,+112.00,+27.00,+10.00,+5.00,-16.00,-24.00,+23.00,+40.00
-13.00,+9.00,+0.00,-2.00,-1.00,+24.00,+2.00,-1.00,-13.00,+61.00,+14.00,-4.00,-35.00,+35.00,+8.00,+23.00
-16.00,-21.00,-7.00,-1.00,-14.00,-13.00,-7.00,+1.00,-37.00,-27.00,-4.00,+4.00,-33.00,-9.00,+4.00,+2.00
-5.00,-10.00,-17.00,-11.00,+7.00,+21.00,-2.00,-7.00,+25.00,+17.00,+14.00,-3.00,+23.00,+37.00,+17.00,+30.00
+10.00,+18.00,+15.00,+5.00,+4.00,-11.00,+2.00,-1.00,+45.00,+28.00,+10.00,+6.00,+28.00,+27.00,-8.00,-4.00
-4.00,-25.00,-13.00,-8.00,-16.00,-7.00,-8.00,-9.00,+12.00,-41.00,-14.00,+6.00,+4.00,-19.00,+4.00,+5.00
+10.00,-9.00,+7.00,+6.00,+18.00,+17.00,+43.00,+23.00,-64.00,-30.00,-11.00,-3.00,+45.00,+49.00,-9.00,-42.00
-10.00,-1.00,+3.00,+2.00,+1.00,+12.00,+11.00,+4.00,+10.00,+26.00,+7.00,+9.00,-16.00,+3.00,+11.00,+33.00
+5.00,-14.00,-8.00,-1.00,+10.00,+54.00,-1.00,+2.00,-56.00,-59.00,-26.00,-3.00,+5.00,-13.00,+3.00,-5.00
+10.00,+24.00,+15.00,+11.00,+4.00,-13.00,+28.00,+2.00,-20.00,+3.00,+2.00,+6.00,+80.00,+12.00,-11.00,-13.00
-4.00,-17.00,+4.00,+1.00,-2.00,-20.00,-38.00,+1.00,-69.00,-16.00,-3.00,-20.00,-115.00,-37.00,-5.00,-24.00
-3.00,+0.00,-5.00,-2.00,-1.00,+7.00,+11.00,-2.00,+93.00,+43.00,+7.00,+11.00,+119.00,+61.00,+20.00,+17.00
+4.00,+15.00,+0.00,-4.00,-29.00,-82.00,-19.00,-5.00,+1.00,+3.00,-2.00,-12.00,-92.00,-30.00,-10.00,+1.00
-6.00,-8.00,+1.00,+3.00,+42.00,+66.00,+0.00,+4.00,-34.00,-47.00,-14.00,-20.00,-22.00,-23.00,-6.00,-25.00
+19.00,+25.00,+0.00,-2.00,-12.00,+22.00,+3.00,-4.00,+18.00,+15.00,+13.00,+20.00,+99.00,+7.00,+7.00,+15.00
+10.00,+9.00,+12.00,+3.00,-4.00,+14.00,+5.00,+4.00,+36.00,-9.00,-11.00,-10.00,-54.00,+14.00,-14.00,+6.00
-2.00,-3.00,-10.00,-2.00,+25.00,-17.00,-10.00,-1.00,-71.00,+6.00,+7.00,-1.00,-30.00,-12.00,-12.00,-50.00
+0.00,+12.00,+5.00,+1.00,-40.00,-68.00,-17.00,+4.00,+76.00,+32.00,+2.00,-16.00,+0.00,-10.00,+0.00,+3.00
-18.00,-16.00,-5.00,-1.00,+20.00,+42.00,+1.00,-5.00,+44.00,+2.00,-10.00,-3.00,-5.00,-68.00,-6.00,+35.00
+20.00,-11.00,-5.00,-2.00,+0.00,-18.00,-9.00,-1.00,+47.00,+21.00,+8.00,-2.00,-11.00,+34.00,+11.00,+22.00
-28.00,+52.00,+21.00,+4.00,-9.00,+29.00,+14.00,-13.00,-43.00,-52.00,-15.00,+2.00,+32.00,+18.00,-9.00,-40.00
+17.00,-34.00,-15.00,-7.00,-10.00,-68.00,-20.00,+1.00,-58.00,+11.00,+5.00,+5.00,+81.00,+27.00,+7.00,+14.00
+19.00,+14.00,-2.00,-1.00,-1.00,+22.00,+0.00,+1.00,+57.00,+20.00,+8.00,-4.00,-48.00,-16.00,-9.00,+3.00
+4.00,+10.00,+8.00,+3.00,-5.00,+15.00,-4.00,+1.00,-61.00,+12.00,-5.00,-6.00,-14.00,+2.00,+7.00,-3.00
+1.00,+2.00,-2.00,-3.00,+11.00,+25.00,+8.00,+0.00,-12.00,-33.00,+2.00,+6.00,+37.00,+31.00,+27.00,+42.00
+0.00,-4.00,+11.00,+2.00,+3.00,-33.00,-12.00,+3.00,+4.00,-17.00,-11.00,-4.00,-52.00,+2.00,-11.00,-60.00
+26.00,-17.00,-14.00,-11.00,-7.00,+53.00,+9.00,+2.00,+3.00,-32.00,-1.00,+8.00,+16.00,+37.00,+15.00,+18.00
-101.00,-34.00,-3.00,-2.00,-6.00,+48.00,+0.00,-28.00,-25.00,+9.00,+1.00,+0.00,+0.00,-32.00,-6.00,-25.00
+74.00,+5.00,+11.00,+6.00,+8.00,+21.00,+41.00,+18.00,-75.00,-22.00,-2.00,+12.00,+57.00,-34.00,-16.00,-39.00
+18.00,+22.00,+2.00,+2.00,+14.00,+7.00,+12.00,+9.00,+30.00,+7.00,+0.00,-22.00,-70.00,-5.00,+4.00,+36.00
-11.00,-6.00,-5.00,+2.00,-9.00,-84.00,-19.00,-7.00,-63.00,-4.00,-2.00,-19.00,-66.00,-25.00,-15.00,-58.00
-14.00,-11.00,-12.00,-9.00,-6.00,-63.00,+0.00,-3.00,+54.00,-45.00,-11.00,+24.00,+63.00,-6.00,+4.00,+41.00
-18.00,-32.00,-9.00,-1.00,+12.00,+42.00,-19.00,-5.00,-105.00,-3.00,-10.00,-22.00,-120.00,+13.00,-6.00,-67.00
+27.00,+18.00,+20.00,+4.00,+2.00,+7.00,-24.00,+10.00,+54.00,+49.00,+20.00,+29.00,+67.00,-11.00,+11.00,+41.00
-32.00,-20.00,-16.00,-12.00,-17.00,-104.00,+9.00,-18.00,+8.00,-33.00,-2.00,-2.00,-14.00,+12.00,-1.00,+2.00
-28.00,-27.00,-8.00,-1.00,+16.00,+25.00,+9.00,-6.00,-71.00,+20.00,+7.00,+14.00,+95.00,+3.00,-3.00,-12.00
+30.00,+20.00,-3.00,-3.00,-14.00,-21.00,-33.00,+0.00,+13.00,+2.00,-2.00,-25.00,-87.00,-36.00,-15.00,-7.00
-18.00,-19.00,-9.00,-4.00,-10.00,-59.00,+1.00,-1.00,+40.00,-20.00,-9.00,-3.00,+32.00,-14.00,-4.00,+29.00
+13.00,+10.00,+3.00,+3.00,+7.00,+52.00,-15.00,-5.00,+6.00,+36.00,+9.00,+12.00,+32.00,+22.00,+18.00,-3.00
+13.00,-18.00,-9.00,-2.00,-14.00,-28.00,+0.00,+15.00,+68.00,+66.00,+18.00,+0.00,-35.00,-9.00,-8.00,+31.00
-7.00,+22.00,+16.00,+3.00,+12.00,+0.00,+0.00,-3.00,+14.00,+14.00,+13.00,+20.00,+113.00,+84.00,+12.00,+19.00
-17.00,-10.00,-11.00,-6.00,-34.00,-6.00,+29.00,-4.00,+12.00,-17.00,-4.00,-5.00,-56.00,-20.00,-8.00,-17.00
+48.00,+35.00,+14.00,+6.00,+10.00,+59.00,-5.00,+4.00,+27.00,-12.00,-13.00,-10.00,-47.00,-25.00,-2.00,+22.00
-39.00,-30.00,-9.00,-6.00,+2.00,+19.00,+1.00,-5.00,-108.00,-44.00,-19.00,-10.00,-15.00,-4.00,-32.00,-74.00
+1.00,+13.00,-1.00,+2.00,+1.00,+31.00,+10.00,-1.00,+33.00,-21.00,-3.00,+13.00,+93.00,+31.00,+7.00,+20.00
-16.00,-33.00,-8.00,+0.00,+3.00,+25.00,-3.00,+3.00,-94.00,+18.00,+7.00,-18.00,-102.00,-10.00,-10.00,-56.00
+21.00,+27.00,+18.00,+7.00,-11.00,-112.00,-19.00,+6.00,-62.00,-32.00,-13.00,+1.00,+80.00,+40.00,-16.00,+4.00
+44.00,+42.00,+11.00,+3.00,-6.00,+24.00,+8.00,+12.00,+53.00,+54.00,+19.00,+4.00,+5.00,+48.00,+15.00,+19.00
-32.00,-35.00,-21.00,-6.00,+19.00,+9.00,-9.00,-2.00,-8.00,+6.00,-12.00,-9.00,-112.00,-88.00,-25.00,+3.00
-25.00,-2.00,-15.00,-12.00,+14.00,+3.00,+0.00,-27.00,-3.00,-41.00,-6.00,+22.00,+73.00,+89.00,+28.00,+15.00
-57.00,-49.00,-8.00,-6.00,-35.00,+25.00,+6.00,-3.00,-7.00,-3.00,-12.00,-14.00,-55.00,-20.00,-10.00,-17.00
+47.00,+53.00,+7.00,+4.00,-3.00,-44.00,-15.00,+10.00,-9.00,-42.00,-5.00,-3.00,+57.00,-18.00,-16.00,-25.00
+43.00,-1.00,-9.00,-4.00,-6.00,-12.00,+0.00,-3.00,-4.00,-15.00,-14.00,-2.00,-22.00,+5.00,+5.00,+17.00
+36.00,+9.00,+16.00,+11.00,+9.00,-20.00,-10.00,+23.00,-63.00,+1.00,+4.00,-3.00,-32.00,-31.00,+0.00,-14.00
-12.00,-1.00,-12.00,-7.00,-1.00,+6.00,-4.00,-12.00,+31.00,+83.00,+23.00,+16.00,+20.00,-19.00,+11.00,+30.00
-6.00,+14.00,+6.00,+1.00,+9.00,-5.00,-2.00,+1.00,+103.00,+20.00,+6.00,+4.00,-14.00,-24.00,+3.00,+40.00
-56.00,-19.00,-11.00,-4.00,+10.00,+41.00,+36.00,-22.00,-24.00,+11.00,+2.00,-8.00,+26.00,+14.00,+25.00,-1.00
-9.00,-6.00,-14.00,-9.00,-19.00,-22.00,-8.00,-11.00,+54.00,+27.00,+9.00,+2.00,-27.00,-7.00,+0.00,+23.00
-19.00,-48.00,-10.00,-4.00,+0.00,-35.00,-13.00,-5.00,-26.00,-66.00,-23.00,+31.00,+61.00,-4.00,+4.00,-11.00
+2.00,+31.00,+13.00,+3.00,+4.00,+75.00,+4.00,-9.00,-76.00,-14.00,-8.00,-21.00,-50.00,+12.00,-5.00,-15.00
+8.00,+14.00,+3.00,+2.00,+3.00,-24.00,-17.00,+14.00,+127.00,+61.00,+29.00,+13.00,+37.00,+29.00,+22.00,+91.00
-4.00,-22.00,-5.00,+2.00,+33.00,+74.00,-5.00,+12.00,-36.00,-30.00,-10.00,-13.00,-19.00,-36.00,-27.00,-40.00
+7.00,+47.00,+10.00,+1.00,-19.00,-28.00,+11.00,-1.00,+1.00,+31.00,+0.00,-3.00,+31.00,+47.00,+6.00,-3.00
+16.00,-5.00,-1.00,+5.00,+10.00,-7.00,+1.00,+2.00,-102.00,-71.00,-20.00,-2.00,+34.00,-8.00,-6.00,-72.00
-32.00,-30.00,-9.00,-8.00,-11.00,-65.00,-12.00,-17.00,+77.00,+56.00,+19.00,+0.00,-59.00,-17.00,+2.00,+64.00
-10.00,+14.00,+1.00,+1.00,-3.00,+12.00,-35.00,-13.00,-89.00,-12.00,-8.00,+11.00,+98.00,+30.00,+19.00,-25.00
+10.00,+9.00,+11.00,+5.00,+11.00,+5.00,+6.00,+17.00,+34.00,+26.00,+15.00,-3.00,-69.00,-7.00,+6.00,+49.00
+7.00,-10.00,-11.00,-4.00,+1.00,-3.00,-10.00,+1.00,-43.00,-15.00,-2.00,-5.00,+5.00,-2.00,-4.00,-34.00
+1.00,+20.00,+12.00,+4.00,-15.00,-41.00,-7.00,+1.00,-99.00,-73.00,-26.00,-7.00,+83.00,-34.00,-23.00,-74.00
-10.00,+3.00,-7.00,-7.00,-7.00,+1.00,-31.00,-16.00,+111.00,+44.00,+13.00,-1.00,-23.00,+53.00,+15.00,+62.00
+6.00,+12.00,+14.00,+11.00,+47.00,+65.00,+50.00,+8.00,-116.00,-39.00,-10.00,-12.00,-19.00,-36.00,-10.00,-45.00
-21.00,-33.00,-9.00,-4.00,-43.00,-24.00,-27.00,-2.00,-32.00,-15.00,-11.00,-22.00,-13.00,+13.00,-16.00,-13.00
+20.00,+42.00,+19.00,+7.00,+9.00,+9.00,+12.00,+22.00,+84.00,+28.00,+19.00,+15.00,-20.00,+8.00,+5.00,+23.00
-6.00,-12.00,-4.00,-5.00,-8.00,-26.00,+9.00,-7.00,+64.00,+45.00,+8.00,-2.00,+3.00,-23.00,-12.00,+5.00
+2.00,-12.00,-22.00,-9.00,-4.00,-4.00,-17.00,-14.00,-41.00,-9.00,-4.00,+4.00,+73.00,+8.00,-2.00,-34.00
+6.00,+5.00,+8.00,+5.00,+27.00,-26.00,+30.00,+25.00,+20.00,-47.00,-13.00,-6.00,-62.00,-34.00,-21.00,+10.00
-33.00,-44.00,-23.00,-9.00,-12.00,+11.00,-18.00,-16.00,-2.00,+62.00,+14.00,-13.00,-63.00,-3.00,-9.00,-30.00
+14.00,+46.00,+25.00,+7.00,+14.00,+54.00,+11.00,-1.00,-47.00,-43.00,-4.00,+6.00,+34.00,+12.00,-3.00,-17.00
-38.00,-36.00,-8.00,-1.00,-11.00,+11.00,-6.00,+3.00,+84.00,+18.00,+9.00,-1.00,-15.00,+14.00,+16.00,+36.00
+14.00,+6.00,+4.00,-2.00,-10.00,-16.00,-2.00,-9.00,-16.00,-16.00,-16.00,+15.00,+55.00,-24.00,+5.00,-15.00
+16.00,-10.00,-7.00,-1.00,-9.00,-101.00,-10.00,+7.00,+11.00,+25.00,+9.00,-15.00,-50.00,+51.00,-1.00,+3.00
-35.00,-61.00,-20.00,-4.00,-5.00,+17.00,+4.00,-10.00,-90.00,-89.00,-29.00,-4.00,+3.00,-39.00,-18.00,-21.00
+6.00,+11.00,+6.00,+2.00,-11.00,-5.00,-6.00,-6.00,+95.00,+112.00,+49.00,+29.00,+39.00,+23.00,+18.00,+46.00
+31.00,+4.00,-5.00,-2.00,+0.00,-9.00,-7.00,+5.00,-94.00,-60.00,-23.00,-15.00,-18.00,+4.00,+1.00,-17.00
+6.00,+26.00,+11.00,+4.00,-9.00,-16.00,-4.00,+4.00,-12.00,-15.00,-2.00,+6.00,+17.00,-73.00,-7.00,+2.00
+9.00,-11.00,-5.00,-7.00,-19.00,-29.00,+1.00,-2.00,+33.00,+50.00,+20.00,+16.00,+59.00,+79.00,+1.00,+13.00
-31.00,+10.00,+11.00,+7.00,+13.00,+18.00,+0.00,-3.00,-74.00,-85.00,-28.00,-15.00,-82.00,-18.00,-12.00,-37.00
+37.00,+25.00,-23.00,-10.00,-3.00,+6.00,-10.00,-6.00,+126.00,+42.00,+9.00,+0.00,-22.00,-4.00,+23.00,+47.00
+18.00,-4.00,+20.00,+12.00,+34.00,+66.00,+21.00,+27.00,-26.00,+23.00,-5.00,-12.00,+67.00,-35.00,-20.00,-37.00
-5.00,-8.00,-9.00,-6.00,-17.00,-46.00,+1.00,-7.00,-36.00,+20.00,+14.00,-2.00,-35.00,-11.00,+3.00,+17.00
-10.00,+13.00,-4.00,-8.00,+9.00,+10.00,-4.00,-2.00,+52.00,+17.00,+2.00,+4.00,+27.00,+49.00,-1.00,+11.00
+21.00,+21.00,+13.00,+4.00,-41.00,+49.00,+17.00,-3.00,+27.00,+10.00,+6.00,+8.00,-1.00,-1.00,+1.00,+13.00
-37.00,-25.00,-17.00,-9.00,+20.00,-15.00,+1.00,-10.00,-6.00,-18.00,-1.00,-9.00,-80.00,-6.00,+8.00,+33.00
+56.00,+26.00,+10.00,+6.00,+9.00,+29.00,+16.00,+15.00,-4.00,+2.00,-4.00,-5.00,+16.00,-41.00,-19.00,-41.00
-8.00,-56.00,-18.00,-6.00,-17.00,-47.00,-14.00,-8.00,+42.00,+15.00,+0.00,-6.00,+19.00,+5.00,-10.00,-7.00
-2.00,+40.00,+13.00,+6.00,+26.00,+4.00,-35.00,+1.00,+4.00,+49.00,+23.00,+20.00,-4.00,+9.00,+7.00,+7.00
-45.00,-28.00,-7.00,-7.00,-31.00,-67.00,-24.00,-11.00,-40.00,-60.00,-21.00,+1.00,+11.00,+29.00,-4.00,-21.00
+1.00,-11.00,+5.00,+6.00,-26.00,-45.00,+2.00,+0.00,+1.00,-1.00,-5.00,+3.00,+40.00,-15.00,+14.00,+34.00
+1.00,+28.00,+11.00,+1.00,-7.00,+43.00,-1.00,+7.00,-31.00,-22.00,-8.00,-18.00,-73.00,-57.00,+1.00,+3.00
+6.00,-12.00,-7.00,-4.00,+20.00,+14.00,+22.00,-12.00,-3.00,+7.00,-1.00,-5.00,+25.00,-14.00,+12.00,+7.00
+19.00,+1.00,+0.00,+0.00,-9.00,+30.00,-4.00,+8.00,-1.00,+9.00,-2.00,-8.00,+45.00,-9.00,-21.00,-14.00
-7.00,+20.00,+6.00,-1.00,+15.00,-22.00,-2.00,+1.00,+9.00,+6.00,-1.00,-10.00,-88.00,-1.00,-3.00,+7.00
-6.00,-18.00,-13.00,-4.00,-5.00,-69.00,-1.00,-10.00,+44.00,+14.00,+3.00,+3.00,+35.00,-3.00,+12.00,+7.00
-40.00,+12.00,+10.00,-1.00,-24.00,-1.00,+9.00,-8.00,-48.00,+21.00,+7.00,+12.00,+73.00,+3.00,-14.00,-26.00
-29.00,-13.00,-2.00,-1.00,+11.00,+66.00,+3.00,-13.00,+54.00,-6.00,-9.00,-1.00,-63.00,-13.00,+21.00,+59.00
+61.00,+15.00,-6.00,-1.00,+30.00,+3.00,+22.00,+13.00,-35.00,-27.00,-14.00,-10.00,+45.00,-6.00,-9.00,-36.00
+2.00,+40.00,+11.00,-5.00,-32.00,+32.00,-4.00,-7.00,-55.00,-12.00,-6.00,-6.00,-7.00,-33.00,-22.00,-33.00
+0.00,-39.00,-1.00,+0.00,+23.00,-74.00,-7.00,+0.00,+7.00,-17.00,-2.00,-12.00,-21.00,+8.00,+6.00,+18.00
+22.00,+39.00,+9.00,+5.00,-10.00,+38.00,+8.00,-4.00,-58.00,-27.00,-11.00,+1.00,+22.00,-6.00,-5.00,-37.00
-25.00,-14.00,-6.00,+3.00,+13.00,-6.00,-4.00,-8.00,-64.00,-17.00,+0.00,-5.00,-32.00,+11.00,-11.00,-26.00
+7.00,-21.00,+2.00,+5.00,-2.00,+56.00,+3.00,+8.00,+34.00,-14.00,+1.00,+20.00,+42.00,-5.00,-1.00,+14.00
+9.00,+5.00,-3.00,-3.00,+6.00,+6.00,-15.00,+2.00,-48.00,+13.00,+3.00,+6.00,-71.00,-20.00,-7.00,-26.00
+18.00,+8.00,-8.00,-4.00,-4.00,+0.00,+2.00,-4.00,+91.00,+41.00,+20.00,+4.00,+20.00,-46.00,+5.00,+47.00
-43.00,+19.00,+4.00,-3.00,-8.00,+1.00,-3.00,-10.00,-86.00,-37.00,-20.00,-10.00,+56.00,+69.00,+7.00,-38.00
+15.00,+3.00,-8.00,-4.00,+13.00,-21.00,-8.00,+6.00,+51.00,+59.00,+14.00,-25.00,-92.00,-15.00,+14.00,+29.00
-6.00,-29.00,+0.00,+1.00,+0.00,-19.00,+9.00,-8.00,-10.00,-34.00,-2.00,+4.00,+49.00,+9.00,+2.00,+16.00
+3.00,-14.00,-5.00,-1.00,+5.00,-77.00,+12.00,+8.00,-51.00,-20.00,-5.00,+2.00,-46.00,+10.00,+6.00,-23.00
+3.00,+2.00,-5.00,-3.00,-18.00,+39.00,+1.00,-4.00,+68.00,+35.00,+11.00,+9.00,+34.00,+12.00,-3.00,-1.00
-10.00,-3.00,+7.00,+5.00,+17.00,+30.00,-17.00,+7.00,+4.00,+14.00,+13.00,+6.00,+30.00,-22.00,+5.00,+32.00
-33.00,-16.00,-15.00,-8.00,+7.00,-40.00,-23.00,-12.00,+3.00,-5.00,-4.00,+8.00,-9.00,+56.00,+13.00,-17.00
+62.00,+29.00,+14.00,+1.00,-13.00,-2.00,-17.00,+10.00,+36.00,+40.00,-8.00,-10.00,+6.00,-3.00,-11.00,-6.00
-15.00,-7.00,-7.00,-1.00,+10.00,-56.00,+25.00,+4.00,+27.00,-5.00,+10.00,+15.00,+6.00,-31.00,+6.00,+21.00
-25.00,+0.00,-2.00,-3.00,-8.00,-21.00,-3.00,-13.00,-88.00,-53.00,-15.00,+3.00,+27.00,+66.00,+10.00,-8.00
+7.00,+4.00,-2.00,+3.00,+2.00,-8.00,+20.00,+6.00,+52.00,+44.00,-3.00,-13.00,-17.00,-74.00,-4.00,-8.00
+6.00,+8.00,+18.00,+12.00,+4.00,+86.00,+32.00,+10.00,-30.00,+4.00,+2.00,-21.00,-3.00,+29.00,-12.00,+4.00
-3.00,-4.00,-3.00,-1.00,-7.00,+5.00,-38.00,-17.00,+80.00,+7.00,+3.00,+12.00,+24.00,-20.00,+10.00,+32.00
+11.00,-18.00,-10.00,-8.00,+6.00,+2.00,+27.00,+11.00,+6.00,-59.00,-20.00,-12.00,-14.00,-5.00,-16.00,-22.00
-23.00,-18.00,-2.00,+4.00,-8.00,+2.00,+14.00,+0.00,-54.00,-9.00,-2.00,-12.00,-3.00,-20.00,-3.00,+6.00
+12.00,+5.00,-13.00,-6.00,+5.00,-20.00,-31.00,-9.00,-12.00,+9.00,+12.00,+6.00,+26.00,+34.00,+6.00,-28.00
-12.00,+37.00,+12.00,+5.00,+0.00,+9.00,+13.00,+8.00,+33.00,-4.00,-2.00,-2.00,-34.00,-59.00,-3.00,+23.00
+41.00,+6.00,+6.00,+12.00,+22.00,+36.00,+18.00,+10.00,-63.00,-13.00,-8.00,+4.00,-11.00,+15.00,+0.00,-29.00
-17.00,+1.00,+3.00,+1.00,-5.00,+21.00,-7.00,+5.00,-15.00,-36.00,-15.00,-9.00,+7.00,+18.00,-11.00,-6.00
-15.00,-32.00,-17.00,-7.00,-11.00,-48.00,+5.00,-13.00,-50.00,-38.00,-1.00,+26.00,+10.00,+4.00,-14.00,-21.00
-69.00,-26.00,-15.00,-5.00,-3.00,+37.00,+3.00,-5.00,-55.00,-20.00,-9.00,+2.00,-3.00,-30.00,-17.00,-23.00
+62.00,+10.00,+6.00,+2.00,+18.00,-13.00,+16.00,+9.00,+97.00,+50.00,+8.00,-12.00,-47.00,-1.00,+1.00,+31.00
+1.00,-9.00,+5.00,+2.00,+8.00,+30.00,+12.00,+0.00,-19.00,-31.00,-7.00,+5.00,+73.00,-4.00,-1.00,-4.00
+17.00,+18.00,-5.00,-5.00,-9.00,+27.00,-19.00,-4.00,-52.00,-2.00,-14.00,+6.00,-66.00,-30.00,-4.00,-14.00
-55.00,-40.00,-13.00,-8.00,-13.00,-35.00,-23.00,-13.00,+64.00,+12.00,-9.00,-24.00,-29.00,+46.00,+2.00,+24.00
-7.00,+3.00,-5.00,+0.00,+17.00,+1.00,+10.00,+2.00,-94.00,-42.00,-6.00,-12.00,+3.00,-43.00,-10.00,-19.00
+23.00,-4.00,-6.00,-7.00,-27.00,+16.00,-20.00,+0.00,-1.00,+5.00,+0.00,+5.00,+33.00,+19.00,+7.00,+14.00
-48.00,-16.00,+6.00,+3.00,-11.00,-35.00,+11.00,+3.00,+21.00,-30.00,-7.00,-1.00,-17.00,-11.00,-9.00,-18.00
+12.00,-24.00,+0.00,-1.00,+14.00,+58.00,+0.00,-2.00,-102.00,-26.00,-8.00,+8.00,+44.00,-31.00,+2.00,-26.00
-12.00,+19.00,-6.00,-10.00,+22.00,-3.00,-6.00,-6.00,+56.00,+45.00,+10.00,+14.00,+41.00,+50.00,-5.00,+4.00
-23.00,-26.00,-12.00,-6.00,-51.00,-91.00,-54.00,-5.00,+96.00,+46.00,+21.00,-15.00,-128.00,+3.00,+26.00,+47.00
-10.00,-7.00,-6.00,-2.00,+23.00,+116.00,+11.00,-15.00,-93.00,-47.00,-13.00,-2.00,+3.00,-25.00,-6.00,-20.00
+15.00,-11.00,+0.00,+0.00,-14.00,-41.00,+4.00,+4.00,-29.00,-28.00,-14.00,+7.00,+41.00,-52.00,-10.00,-24.00
-43.00,-18.00,-4.00,-4.00,-29.00,-34.00,-16.00,-18.00,-2.00,-34.00,-3.00,+2.00,-50.00,-29.00,-12.00,-2.00
+12.00,+21.00,+2.00,+2.00,+36.00,+82.00,+12.00,-12.00,-51.00,+11.00,-2.00,+1.00,-30.00,-26.00,-9.00,-21.00
+30.00,-17.00,-9.00,+1.00,-9.00,-64.00,+1.00,+18.00,+3.00,-18.00,-10.00,-14.00,+39.00,+20.00,+2.00,+21.00
+18.00,+24.00,+15.00,+8.00,+50.00,+13.00,+22.00,+13.00,+63.00,+31.00,+0.00,-4.00,-15.00,-9.00,+6.00,+9.00
+6.00,-2.00,-6.00,+3.00,-38.00,+28.00,-7.00,-5.00,-34.00,+16.00,+4.00,-5.00,-10.00,-12.00,+8.00,-3.00
-40.00,-8.00,-6.00,-9.00,-3.00,-118.00,-29.00,-17.00,+22.00,-4.00,-4.00,+6.00,+11.00,+8.00,-16.00,-14.00
+8.00,+4.00,+3.00,+5.00,+16.00,+69.00,+24.00,+9.00,-52.00,-27.00,+0.00,+1.00,-22.00,-18.00,+1.00,-39.00
-12.00,-16.00,-9.00,-9.00,-5.00,-32.00,-17.00,-9.00,-5.00,-5.00,+0.00,-6.00,+20.00,+0.00,+1.00,+21.00
-13.00,+8.00,-3.00,-4.00,-12.00,-37.00,+6.00,-4.00,-22.00,-13.00,-3.00,+9.00,-4.00,+9.00,+3.00,-11.00
-11.00,-28.00,-11.00,-6.00,-4.00,-24.00,+19.00,-2.00,-26.00,-48.00,-22.00,-11.00,+7.00,-49.00,-20.00,-16.00
-7.00,+24.00,+10.00,+1.00,-4.00,+21.00,-7.00,-5.00,+87.00,+77.00,+18.00,-4.00,-21.00,+37.00,-3.00,+24.00
+51.00,-15.00,-4.00,-2.00,-3.00,-27.00,-3.00,+10.00,-47.00,-44.00,-9.00,-6.00,-8.00,+3.00,-6.00,-37.00
-2.00,-7.00,+7.00,+2.00,-1.00,+44.00,-2.00,+1.00,+62.00,+76.00,+29.00,+13.00,-5.00,+28.00,+14.00,+42.00
+12.00,+23.00,+8.00,+6.00,+19.00,+29.00,+7.00,+0.00,+33.00,+41.00,+14.00,+7.00,+47.00,+1.00,-9.00,+24.00
-26.00,-11.00,-9.00,-9.00,+14.00,-33.00,+0.00,-11.00,+33.00,-36.00,-11.00,+6.00,+105.00,-7.00,+26.00,+15.00
-8.00,-21.00,-13.00,-8.00,-52.00,+10.00,+4.00,-10.00,-48.00,+7.00,-1.00,-30.00,-127.00,-36.00,-29.00,-30.00
-5.00,-10.00,-3.00,+2.00,+2.00,-38.00,-20.00,+3.00,+37.00,-23.00,-12.00,+12.00,+48.00,-25.00,+4.00,-12.00
+8.00,+3.00,-5.00,-2.00,+24.00,+19.00,+5.00,-4.00,+14.00,+38.00,+14.00,+3.00,-14.00,+10.00,+8.00,+6.00
-11.00,+4.00,+13.00,+5.00,+0.00,+15.00,+8.00,+3.00,-11.00,-43.00,-22.00,+2.00,+43.00,-2.00,-13.00,-22.00
-3.00,+4.00,+10.00,+9.00,-29.00,-43.00,-28.00,-1.00,-20.00,+31.00,+17.00,-4.00,-40.00,-29.00,+24.00,+20.00
+0.00,-35.00,-8.00,+0.00,+4.00,+36.00,+23.00,+0.00,-13.00,+20.00,+2.00,+9.00,+31.00,+12.00,-6.00,+7.00
+27.00,+33.00,+10.00,+1.00,+15.00,+33.00,+10.00,+7.00,+28.00,-17.00,+16.00,+7.00,+19.00,+25.00,+21.00,+20.00
-2.00,-8.00,-9.00,-4.00,-1.00,-32.00,-14.00,-2.00,+4.00,+46.00,+12.00,+8.00,-53.00,-3.00,-3.00,+4.00
+3.00,+24.00,+7.00,+2.00,+0.00,+49.00,+2.00,+13.00,-39.00,-69.00,-21.00,+24.00,+116.00,-4.00,-19.00,-44.00
-56.00,-38.00,-24.00,-11.00,-4.00,+19.00,-6.00,-22.00,-54.00,-20.00,-17.00,-39.00,-100.00,-45.00,-26.00,-41.00
+54.00,+45.00,+12.00,+11.00,+2.00,-43.00,-6.00,+7.00,+32.00,-32.00,-3.00,+5.00,+68.00,+23.00,+16.00,+36.00
-8.00,-13.00,-9.00,+1.00,-8.00,+26.00,-8.00,+7.00,-10.00,+56.00,+10.00,-1.00,+18.00,-2.00,-7.00,+8.00
+29.00,+37.00,+26.00,+12.00,+1.00,-40.00,+18.00,+13.00,-18.00,-25.00,-13.00,+13.00,+1.00,+7.00,-1.00,-1.00
+13.00,-5.00,+0.00,+2.00,+0.00,+14.00,-5.00,+6.00,+38.00,-2.00,+3.00,+19.00,+55.00,+57.00,-3.00,-9.00
-44.00,-30.00,-19.00,-16.00,-27.00,-34.00,-6.00,-16.00,-79.00,-4.00,-10.00,-26.00,-73.00,-71.00,+19.00,-25.00
+20.00,-10.00,-6.00,-10.00,-11.00,-28.00,-10.00,+3.00,+59.00,+9.00,+0.00,+1.00,+11.00,+71.00,-8.00,+23.00
+0.00,+26.00,+2.00,+4.00,+41.00,+30.00,+11.00,-5.00,+25.00,+64.00,+25.00,-14.00,-9.00,-6.00,+1.00,-9.00
+4.00,+21.00,+9.00,+0.00,-49.00,-48.00,-6.00,-1.00,+10.00,+2.00,+3.00,+0.00,-13.00,-25.00,-12.00,+13.00
-9.00,+11.00,+1.00,-2.00,-40.00,-40.00,-19.00,-5.00,+54.00,+43.00,+6.00,-9.00,-37.00,-29.00,+8.00,+5.00
+12.00,-12.00,-3.00,+5.00,+25.00,+64.00,+27.00,-2.00,-104.00,-112.00,-28.00,+9.00,+13.00,+1.00,-6.00,-49.00
-5.00,+0.00,-14.00,-9.00,-15.00,-25.00,-23.00,-8.00,+94.00,+65.00,+23.00,+3.00,-49.00,-11.00,+1.00,+32.00
-32.00,-42.00,-11.00,-6.00,+3.00,+9.00,-25.00,-8.00,-110.00,-32.00,-9.00,-16.00,+34.00,+58.00,-3.00,-34.00
+61.00,+68.00,+29.00,+7.00,+1.00,+19.00,+34.00,+25.00,-34.00,-5.00,-2.00,-16.00,+73.00,+28.00,-20.00,-12.00
+6.00,+4.00,+16.00,+12.00,-6.00,+12.00,-13.00,+0.00,+0.00,+18.00,+2.00,+0.00,-88.00,-71.00,-2.00,+7.00
-10.00,-29.00,-12.00,+1.00,+26.00,+107.00,+29.00,+12.00,+9.00,-4.00,+0.00,+13.00,+79.00,+126.00,+26.00,+37.00
-9.00,-6.00,-8.00,-5.00,+21.00,-18.00,-11.00,-14.00,-66.00,+0.00,-9.00,-17.00,-34.00,-28.00,-15.00,-43.00
-30.00,-62.00,-6.00,+2.00,+7.00,+27.00,-24.00,+6.00,+54.00,+10.00,+7.00,+23.00,-18.00,-6.00,-10.00,+19.00
-23.00,+13.00,+0.00,-10.00,-53.00,-70.00,-22.00,-18.00,+13.00,+34.00,+17.00,-8.00,-41.00,+19.00,+16.00,+26.00
+3.00,+2.00,+4.00,+1.00,+17.00,-108.00,+7.00,-12.00,+20.00,+0.00,+1.00,-1.00,-6.00,-28.00,-8.00,+12.00
+9.00,+7.00,-7.00,-5.00,-25.00,-6.00,+4.00,+0.00,-118.00,-97.00,-29.00,-3.00,+11.00,-18.00,-5.00,-52.00
-11.00,+19.00,+3.00,+2.00,+23.00,-39.00,-12.00,+3.00,+35.00,+29.00,+12.00,+0.00,+11.00,+2.00,+1.00,+37.00
+37.00,+18.00,-1.00,-2.00,+20.00,-29.00,-5.00,+3.00,+70.00,+15.00,+9.00,+6.00,-39.00,-11.00,+11.00,+25.00
-6.00,-18.00,-2.00,+0.00,-37.00,-59.00,-4.00,+0.00,+3.00,-26.00,-13.00,+0.00,+95.00,-26.00,+7.00,+27.00
-68.00,-3.00,+8.00,+6.00,+23.00,+21.00,-4.00,-2.00,+68.00,+29.00,-6.00,-18.00,-75.00,+30.00,+5.00,-1.00
+91.00,+9.00,-9.00,-5.00,-9.00,-5.00,+8.00,+14.00,-5.00,+3.00,-1.00,-1.00,+36.00,+12.00,-15.00,-31.00
-11.00,+31.00,+14.00,+8.00,+7.00,+51.00,-15.00,-5.00,-35.00,-19.00,-7.00,-4.00,+100.00,-24.00,-8.00,-14.00
+11.00,-13.00,+0.00,+2.00,+24.00,+1.00,+1.00,+8.00,-69.00,-84.00,-23.00,+4.00,-45.00,-14.00,-6.00,-50.00
+3.00,+21.00,+6.00,+2.00,+40.00,-40.00,+10.00,+6.00,+54.00,+78.00,+25.00,+6.00,+16.00,-15.00,+2.00,+46.00
-40.00,-17.00,-6.00,-8.00,-68.00,-23.00,-17.00,-24.00,-24.00,-14.00,-8.00,-6.00,-46.00,-18.00,-19.00,-14.00
-64.00,-66.00,-29.00,-4.00,+37.00,+72.00,+49.00,+1.00,-30.00,+29.00,+14.00,-25.00,+3.00,+27.00,+33.00,-25.00
+55.00,+45.00,+14.00,+3.00,-8.00,+26.00,+14.00,+12.00,+24.00,-31.00,-10.00,+11.00,-40.00,+9.00,+4.00,+39.00
-9.00,-18.00,-19.00,-6.00,-12.00,-3.00,+1.00,+1.00,+119.00,+71.00,+17.00,+2.00,+123.00,+0.00,+19.00,+33.00
-51.00,-20.00,+2.00,-1.00,+26.00,-19.00,+7.00,-11.00,-24.00,-16.00,+6.00,-4.00,-125.00,+106.00,+6.00,+0.00
+8.00,-32.00,-16.00,-7.00,-30.00,-40.00,-3.00,+5.00,-40.00,-14.00,-9.00,+2.00,+31.00,-22.00,-18.00,-34.00
-21.00,+3.00,+2.00,-4.00,-33.00,+28.00,+6.00,-8.00,+22.00,+15.00,+6.00,-3.00,-10.00,-11.00,-4.00,-16.00
+63.00,+41.00,+11.00,+6.00,+9.00,-29.00,+29.00,-1.00,-45.00,-60.00,-12.00,+13.00,+24.00,-12.00,+9.00,+6.00
-47.00,-71.00,-21.00,-3.00,+14.00,+26.00,+15.00,-4.00,+59.00,+50.00,+15.00,+3.00,-1.00,-85.00,-4.00,+31.00
-34.00,+20.00,-8.00,-4.00,-57.00,-128.00,-32.00,-16.00,-39.00,-72.00,-26.00,-22.00,+26.00,+33.00,-33.00,-34.00
-13.00,+27.00,+14.00,+5.00,+59.00,+61.00,-31.00,+6.00,+1.00,+8.00,+2.00,-28.00,-96.00,+9.00,+23.00,-8.00
+76.00,+55.00,+23.00,+3.00,-14.00,+1.00,-10.00,+11.00,-38.00,+26.00,-2.00,-4.00,+18.00,-22.00,-18.00,-19.00
+21.00,-17.00,-5.00,-1.00,+11.00,+26.00,-10.00,+6.00,-21.00,+1.00,+4.00,+14.00,-37.00,-20.00,+2.00,-19.00
-22.00,+3.00,+10.00,-3.00,-25.00,-31.00,-9.00,-14.00,-28.00,-6.00,-1.00,+2.00,-22.00,-47.00,-8.00,+8.00
+15.00,-3.00,-5.00,+1.00,+32.00,+16.00,-33.00,-4.00,+79.00,+44.00,+9.00,-2.00,+12.00,-15.00,+16.00,+34.00
-6.00,+14.00,-3.00,-6.00,-49.00,-66.00,-4.00,+2.00,-95.00,-51.00,-10.00,+11.00,+15.00,-6.00,+2.00,-17.00
-23.00,-12.00,-1.00,+6.00,+13.00,+38.00,+4.00,-10.00,-18.00,-19.00,-20.00,-34.00,+5.00,+20.00,+5.00,-10.00
+24.00,-10.00,-11.00,-6.00,+1.00,-35.00,-4.00,+5.00,+46.00,+60.00,+12.00,+10.00,+21.00,-1.00,+11.00,+44.00
+6.00,+13.00,+0.00,-2.00,+25.00,+6.00,+10.00,+3.00,-20.00,+16.00,+13.00,+19.00,+51.00,-4.00,+0.00,+26.00
-3.00,+3.00,+7.00,+1.00,+4.00,-12.00,-9.00,-14.00,-25.00,-55.00,-10.00,-28.00,-45.00,-1.00,-16.00,-38.00
+23.00,-4.00,-2.00,+4.00,+15.00,+41.00,+2.00,+20.00,+33.00,+34.00,-10.00,-12.00,+5.00,-23.00,+7.00,-7.00
-1.00,+24.00,+20.00,+6.00,+8.00,+25.00,+5.00,+12.00,+3.00,+6.00,+4.00,+23.00,+42.00,+15.00,+9.00,+2.00
-4.00,-5.00,-14.00,-7.00,-38.00,-21.00,-5.00,-11.00,-39.00,-15.00,-6.00,-5.00,+58.00,+34.00,-10.00,-21.00
+10.00,+7.00,-1.00,+2.00,+6.00,+17.00,+8.00,+1.00,+25.00,+5.00,+3.00,+6.00,-77.00,-14.00,+9.00,+36.00
-22.00,-12.00,+0.00,-6.00,-33.00,-80.00,-13.00,-1.00,+27.00,-10.00,+3.00,+6.00,+60.00,-7.00,-6.00,+8.00
+28.00,-23.00,-6.00,+0.00,+33.00,+45.00,+26.00,+0.00,-46.00,-78.00,-30.00,-31.00,-41.00,-4.00,-23.00,-45.00
-29.00,-16.00,-2.00,-3.00,+15.00,+68.00,+14.00,-6.00,+45.00,+34.00,+13.00,-3.00,+31.00,+11.00,+6.00,+32.00
+25.00,-5.00,+2.00,+2.00,-13.00,-23.00,-30.00,+8.00,+19.00,-15.00,-11.00,+4.00,-2.00,+11.00,-5.00,-15.00
-8.00,-13.00,-4.00,-4.00,-11.00,+68.00,+25.00,-9.00,-109.00,-31.00,-9.00,-4.00,+6.00,-34.00,-1.00,-22.00
+9.00,+2.00,+11.00,+3.00,+41.00,-45.00,-19.00,-2.00,+90.00,+47.00,+26.00,+37.00,+46.00,+35.00,+10.00,+60.00
-24.00,-34.00,-17.00,-10.00,-24.00,+10.00,+16.00,-3.00,-21.00,-12.00,-13.00,-31.00,-78.00,+4.00,+6.00,-2.00
-23.00,-35.00,-16.00,-13.00,-38.00,-53.00,-24.00,-9.00,-8.00,+36.00,+2.00,+2.00,+37.00,-2.00,-11.00,-24.00
+43.00,+45.00,+18.00,+7.00,+29.00,+89.00,+13.00,+9.00,+12.00,-35.00,-6.00,+4.00,-22.00,-1.00,-3.00,+17.00
+16.00,+2.00,-9.00,-7.00,-11.00,-9.00,-11.00,-3.00,-5.00,+3.00,+4.00,+7.00,+14.00,-23.00,+10.00,+0.00
-8.00,-1.00,+2.00,-1.00,-10.00,-41.00,+8.00,-9.00,-53.00,-2.00,-1.00,-11.00,-34.00,-32.00,-31.00,-14.00
-13.00,+8.00,+12.00,+10.00,+53.00,+65.00,+11.00,+5.00,+42.00,+4.00,+2.00,-3.00,+52.00,+39.00,+12.00,+25.00
+4.00,+41.00,+4.00,+0.00,-9.00,-33.00,+13.00,-1.00,-86.00,-92.00,-28.00,+1.00,-40.00,-11.00,-12.00,-52.00
-12.00,+11.00,-2.00,+0.00,-31.00,-11.00,-3.00,-6.00,+63.00,+57.00,+12.00,+7.00,-15.00,-22.00,-5.00,+8.00
-19.00,-4.00,+4.00,+0.00,+22.00,-28.00,+1.00,-9.00,-16.00,-18.00,-7.00,-2.00,+27.00,-19.00,-11.00,-13.00
+4.00,+16.00,+1.00,-3.00,-27.00,+7.00,-10.00,+6.00,-18.00,-1.00,+0.00,+8.00,-16.00,+28.00,+7.00,-20.00
-15.00,-29.00,-15.00,-6.00,+19.00,+19.00,+1.00,+1.00,-3.00,+27.00,+3.00,+14.00,+34.00,+1.00,-4.00,+11.00
+17.00,+29.00,+18.00,+6.00,-40.00,-103.00,-22.00,+3.00,+104.00,+48.00,+17.00,-28.00,-45.00,+13.00,+8.00,+37.00
-8.00,+2.00,-5.00,-5.00,-16.00,+30.00,+2.00,-12.00,-26.00,+14.00,+14.00,+22.00,+40.00,-2.00,-2.00,-20.00
+25.00,-17.00,-9.00,-4.00,+16.00,-14.00,+8.00,-5.00,-10.00,-4.00,-3.00,-1.00,+22.00,-27.00,-8.00,-11.00
-25.00,-16.00,-4.00,-2.00,+22.00,-1.00,+11.00,+9.00,+69.00,+35.00,+15.00,-1.00,+12.00,-3.00,+15.00,+41.00
-28.00,-10.00,-15.00,-6.00,-8.00,+17.00,+22.00,-11.00,-81.00,-57.00,-16.00,-15.00,-84.00,-45.00,-5.00,-18.00
+84.00,+20.00,+18.00,+10.00,+12.00,-6.00,-2.00,+20.00,-52.00,+12.00,+5.00,+5.00,-13.00,+68.00,-14.00,-53.00
+3.00,-8.00,+7.00,+6.00,-8.00,+14.00,+18.00,+14.00,+90.00,+30.00,+10.00,+7.00,+51.00,-13.00,+20.00,+84.00
-10.00,+56.00,+13.00,+0.00,-7.00,-43.00,-21.00,-18.00,-7.00,+11.00,+0.00,+2.00,-9.00,-27.00,-25.00,-29.00
-10.00,-49.00,-13.00,-7.00,+19.00,-1.00,-7.00,-3.00,-80.00,-31.00,-14.00,-15.00,+51.00,+3.00,+7.00,-24.00
-4.00,+19.00,+17.00,+8.00,-63.00,-69.00,+5.00,+5.00,+93.00,-8.00,+2.00,+18.00,-34.00,-1.00,+9.00,+46.00
-36.00,-16.00,-9.00,-3.00,+51.00,+64.00,+2.00,-7.00,-48.00,-26.00,-3.00,+7.00,+6.00,-16.00,+1.00,-30.00
+39.00,+12.00,-2.00,+3.00,+4.00,+5.00,-4.00,+7.00,-105.00,-39.00,-23.00,-35.00,+43.00,+10.00,-21.00,-42.00
-8.00,+8.00,+11.00,+3.00,+4.00,-2.00,-14.00,+5.00,+8.00,-2.00,-2.00,+13.00,-5.00,+22.00,+8.00,+27.00
+27.00,+2.00,-5.00,-5.00,+8.00,-21.00,+15.00,+8.00,+60.00,+22.00,-3.00,-2.00,+5.00,-52.00,-3.00,+37.00
+14.00,-2.00,+0.00,+2.00,+2.00,-54.00,+6.00,+10.00,-66.00,-77.00,-12.00,-13.00,-57.00,+16.00,+28.00,-12.00
-11.00,-16.00,-5.00,+3.00,-4.00,-32.00,-27.00,+3.00,+48.00,+64.00,+12.00,+17.00,+40.00,+19.00,+1.00,-8.00
-1.00,+2.00,+1.00,+1.00,+29.00,+72.00,+17.00,-4.00,-32.00,-6.00,+0.00,+4.00,+7.00,-1.00,-11.00,-27.00
-1.00,+10.00,-13.00,-7.00,-16.00,-38.00,-31.00,-13.00,+33.00,+37.00,+5.00,-10.00,-12.00,+7.00,+10.00,+20.00
-2.00,+6.00,+1.00,+2.00,-20.00,+1.00,+2.00,+2.00,+2.00,+27.00,+6.00,+9.00,-2.00,-44.00,-5.00,+26.00
-25.00,-36.00,-14.00,+0.00,-7.00,+53.00,+43.00,+0.00,-37.00,-59.00,-20.00,-16.00,+1.00,-10.00,-14.00,-29.00
+30.00,+35.00,+7.00,-1.00,-8.00,+10.00,-16.00,+4.00,-34.00,-6.00,-5.00,-12.00,-32.00,+51.00,-2.00,+0.00
-32.00,-37.00,-14.00,-2.00,+30.00,+13.00,+13.00,-4.00,+41.00,+26.00,+20.00,+10.00,-21.00,-4.00,+2.00,+8.00
-10.00,-28.00,+3.00,+0.00,-29.00,-34.00,-10.00,-1.00,-58.00,+5.00,-8.00,+0.00,+50.00,+0.00,-19.00,-28.00
+9.00,+41.00,+13.00,+3.00,+9.00,-47.00,-3.00,-8.00,+27.00,+27.00,+12.00,+19.00,+1.00,+19.00,+2.00,+23.00
+10.00,+20.00,+0.00,+1.00,-11.00,+51.00,+9.00,+14.00,-19.00,+0.00,+0.00,+4.00,+31.00,-8.00,+19.00,+24.00
-18.00,-18.00,-15.00,-8.00,+30.00,+54.00,-4.00,-15.00,+29.00,+37.00,+10.00,+6.00,+18.00,-24.00,-3.00,-8.00
+11.00,+33.00,+14.00,+3.00,+8.00,+1.00,+16.00,+3.00,-7.00,-35.00,-9.00,-5.00,-6.00,-10.00,-9.00,-9.00
+21.00,-23.00,-3.00,+3.00,+5.00,-3.00,+0.00,+9.00,-48.00,-25.00,-9.00,-3.00,-86.00,+8.00,-4.00,-16.00
-34.00,+3.00,-1.00,-1.00,-4.00,+11.00,+6.00,-7.00,+84.00,+0.00,+6.00,+14.00,+39.00,-18.00,+6.00,+20.00
+23.00,+12.00,-5.00,-6.00,-2.00,+13.00,-16.00,-2.00,-80.00,-41.00,-15.00,+24.00,+32.00,-22.00,-5.00,-28.00
-56.00,-25.00,-7.00,+2.00,-32.00,+6.00,+6.00,-9.00,-16.00,+14.00,+2.00,-30.00,-30.00,-34.00,-33.00,-23.00
+66.00,+40.00,+19.00,+10.00,+13.00,-18.00,+22.00,+24.00,+82.00,+43.00,+20.00,+12.00,+12.00,+34.00,+37.00,+43.00
-5.00,-22.00,-7.00,-4.00,-5.00,-44.00,-4.00,+3.00,-72.00,-50.00,-9.00,+15.00,+42.00,-48.00,-20.00,-43.00
+11.00,+16.00,+1.00,+0.00,-6.00,+10.00,+3.00,+8.00,+0.00,+62.00,+9.00,-17.00,-70.00,-19.00,-11.00,-17.00
-5.00,+26.00,-4.00,-8.00,-11.00,+24.00,-12.00,-18.00,-55.00,-19.00,-10.00,-4.00,+31.00,+70.00,+16.00,+8.00
-28.00,-28.00,-12.00,-7.00,+17.00,-3.00,-26.00,-10.00,+41.00,-7.00,+7.00,+6.00,-5.00,-23.00,+0.00,+13.00
-23.00,-26.00,-15.00,-6.00,-8.00,+32.00,+23.00,-7.00,+4.00,-8.00,+1.00,+16.00,-4.00,+16.00,+12.00,-2.00
-13.00,-15.00,+1.00,+3.00,+65.00,+1.00,-17.00,+5.00,+2.00,+9.00,-4.00,+3.00,+64.00,+24.00,+5.00,-17.00
+30.00,+13.00,+9.00,-3.00,-44.00,-11.00,+22.00,+0.00,-36.00,-22.00,-14.00,-14.00,-60.00,-32.00,-4.00,-1.00
-1.00,-6.00,+5.00,+0.00,-29.00,-27.00,-25.00,-2.00,+58.00,+10.00,+7.00,+5.00,+5.00,-5.00,+3.00,+22.00
+22.00,+20.00,-3.00,+1.00,+51.00,+88.00,+37.00,+9.00,+4.00,-4.00,-11.00,-22.00,-5.00,+7.00,-9.00,+3.00
-16.00,-20.00,+8.00,+2.00,-26.00,-37.00,-2.00,+1.00,+6.00,-16.00,-11.00,+5.00,-3.00,+28.00,-8.00,-9.00
+8.00,+27.00,+2.00,+2.00,+37.00,+29.00,-2.00,-5.00,+22.00,-31.00,+5.00,+18.00,+1.00,+13.00,+14.00,+10.00
-25.00,-34.00,-16.00,-9.00,-33.00,+4.00,-3.00,-12.00,-77.00,+20.00,+1.00,+1.00,+18.00,+21.00,-12.00,-38.00
+4.00,+34.00,+13.00,+1.00,+5.00,-40.00,-9.00,-3.00,+33.00,+21.00,+3.00,-13.00,-2.00,-2.00,-2.00,+19.00
-20.00,-44.00,-10.00,+0.00,-4.00,+42.00,+1.00,+6.00,+14.00,-3.00,-3.00,-3.00,-48.00,-40.00,-6.00,+22.00
+9.00,-2.00,-1.00,-1.00,+16.00,-20.00,-9.00,+0.00,-55.00,-6.00,-7.00,-7.00,+5.00,-2.00,-21.00,-40.00
-36.00,-19.00,-9.00,-6.00,+6.00,-24.00,+8.00,-10.00,+16.00,-10.00,+4.00,+0.00,-6.00,-6.00,+36.00,+31.00
+12.00,-16.00,-5.00,-2.00,-19.00,-17.00,-10.00,+7.00,-19.00,+34.00,+3.00,+4.00,+14.00,+12.00,-5.00,-17.00
-11.00,+19.00,+6.00,-2.00,-6.00,-17.00,+18.00,-1.00,-32.00,-42.00,-12.00,+5.00,+47.00,-8.00,-1.00,-15.00
+22.00,-6.00,-3.00,+0.00,+8.00,-12.00,-5.00,+12.00,+32.00,+18.00,+6.00,-11.00,-7.00,-31.00,+2.00,+15.00
-19.00,-16.00,-5.00,+0.00,+5.00,+30.00,+6.00,-5.00,-20.00,-23.00,-15.00,-16.00,-68.00,-16.00,-17.00,-11.00
+38.00,+0.00,-6.00,-4.00,-9.00,-17.00,-16.00,-1.00,+46.00,+28.00,+5.00,+13.00,+8.00,-7.00,-2.00,-3.00
-20.00,+0.00,+2.00,+5.00,-9.00,-28.00,+3.00,-9.00,-18.00,-48.00,-5.00,-5.00,+10.00,+45.00,+4.00,-11.00
+8.00,-5.00,-11.00,-5.00,-3.00,+29.00,+2.00,-4.00,+87.00,+56.00,+15.00,+19.00,+16.00,+9.00,+10.00,+16.00
-15.00,+0.00,+3.00,-4.00,-16.00,-61.00,-13.00,-2.00,+5.00,-1.00,-6.00,-14.00,+26.00,+3.00,-4.00,+23.00
-23.00,-13.00,+4.00,+4.00,+22.00,+31.00,-14.00,+1.00,-14.00,-13.00,-3.00,-2.00,+3.00,+5.00,+6.00,+5.00
+8.00,+11.00,-2.00,-4.00,-24.00,-45.00,-11.00,-5.00,-69.00,-49.00,-19.00,-23.00,-50.00,-21.00,-20.00,-22.00
-12.00,-10.00,-3.00,-3.00,+32.00,-7.00,+5.00,-5.00,+52.00,+16.00,+1.00,+4.00,+15.00,+8.00,+0.00,+4.00
+3.00,-3.00,-9.00,-5.00,-5.00,+8.00,-5.00,-2.00,+0.00,-18.00,-5.00,-9.00,-14.00,-36.00,-4.00,+3.00
+2.00,+8.00,+12.00,+4.00,+15.00,-4.00,-7.00,-3.00,+5.00,+64.00,+7.00,-1.00,+1.00,+17.00,+2.00,+2.00
-16.00,-3.00,-4.00,-2.00,-35.00,-14.00,+14.00,-6.00,-32.00,-27.00,-13.00,-18.00,-12.00,-24.00,-1.00,-17.00
-10.00,-16.00,-4.00,-2.00,+4.00,-34.00,-8.00,+0.00,-45.00,-9.00,-9.00,-6.00,-24.00,-4.00,-10.00,-17.00
+3.00,-11.00,-11.00,-7.00,+12.00,+29.00,-4.00,-5.00,+0.00,-1.00,+10.00,+30.00,+27.00,+12.00,+7.00,+12.00
-5.00,-4.00,+2.00,-1.00,-12.00,-29.00,+0.00,-3.00,-60.00,-28.00,-7.00,-2.00,-17.00,-16.00,-12.00,-9.00
+8.00,-2.00,-1.00,+0.00,-6.00,+26.00,+5.00,+3.00,+63.00,+38.00,+10.00,-25.00,+44.00,+31.00,+18.00,+36.00
+15.00,+6.00,+3.00,+4.00,-1.00,-14.00,-14.00,+2.00,-13.00,-9.00,-7.00,-13.00,-76.00,-47.00,-5.00,-4.00
+3.00,+4.00,-2.00,+0.00,-6.00,+40.00,+20.00,-4.00,-26.00,-6.00,-7.00,-2.00,+19.00,+54.00,-12.00,-4.00
+12.00,+20.00,+9.00,-4.00,-6.00,-7.00,-6.00,+3.00,-5.00,-9.00,+0.00,-7.00,+4.00,+10.00,+1.00,-2.00
-2.00,-2.00,-7.00,+3.00,+0.00,-9.00,-2.00,+2.00,-22.00,-15.00,-2.00,+1.00,+3.00,+9.00,-3.00,-7.00
-7.00,+2.00,-3.00,-3.00,+10.00,+56.00,-2.00,-8.00,+30.00,-4.00,+3.00,+19.00,+70.00,+9.00,+1.00,+18.00
-31.00,-4.00,+7.00,+6.00,-10.00,-42.00,-6.00,+7.00,-43.00,-17.00,-12.00,-13.00,-84.00,-26.00,-14.00,-38.00
-2.00,-24.00,-14.00,-4.00,+3.00,+9.00,+12.00,-13.00,+43.00,-9.00,-6.00,-16.00,+8.00,+10.00,+7.00,+17.00
+7.00,+0.00,+4.00,-4.00,-1.00,-11.00,-21.00,+2.00,-14.00,+5.00,-6.00,-6.00,-1.00,+1.00,-7.00,-7.00
+10.00,+15.00,+4.00,-1.00,+2.00,+0.00,-3.00,+9.00,+24.00,+14.00,+7.00,-6.00,-6.00,-8.00,+5.00,+8.00
+8.00,+7.00,-2.00,-3.00,-5.00,+10.00,-1.00,-2.00,-25.00,+1.00,-3.00,+4.00,+39.00,+8.00,-1.00,-13.00
-19.00,-13.00,-7.00,-4.00,-12.00,-33.00,-1.00,-8.00,-5.00,-22.00,-5.00,-4.00,-14.00,+1.00,+0.00,-6.00
-15.00,-19.00,-10.00,-8.00,-36.00,+13.00,-3.00,-6.00,-32.00,-36.00,-15.00,+0.00,-2.00,-15.00,-16.00,-35.00
-14.00,+7.00,-1.00,-1.00,-7.00,-45.00,-8.00,-2.00,+47.00,+32.00,+21.00,+10.00,-37.00,+35.00,+16.00,+34.00
+21.00,+11.00,+3.00,+4.00,+11.00,-37.00,-10.00,-1.00,-17.00,-12.00,-5.00,-1.00,+27.00,+4.00,-1.00,-11.00
-31.00,+6.00,+2.00,+5.00,-11.00,+7.00,-4.00,+1.00,+32.00,+6.00,+3.00,-1.00,-13.00,-7.00,-1.00,+10.00
+12.00,+0.00,-3.00,-4.00,+8.00,+15.00,-3.00,-1.00,-3.00,+17.00,+5.00,+4.00,-1.00,+4.00,+6.00,+8.00
-9.00,-11.00,-3.00,-3.00,-2.00,-5.00,+2.00,+1.00,-2.00,-16.00,-9.00,-2.00,+8.00,-5.00,-5.00,-1.00
+3.00,-24.00,-18.00,-7.00,-15.00,-6.00,-3.00,-3.00,-24.00,-19.00,-5.00,+6.00,+13.00,-1.00,+1.00,-9.00
+11.00,+53.00,+31.00,+14.00,+22.00,+4.00,+2.00,-1.00,+16.00,+4.00,-1.00,+0.00,+1.00,+8.00,-4.00,-13.00
+5.00,+5.00,+0.00,+1.00,+0.00,-10.00,+0.00,+5.00,-9.00,+24.00,+7.00,+1.00,-34.00,-15.00,-4.00,-7.00
-18.00,-4.00,-2.00,-3.00,-1.00,+13.00,+3.00,+0.00,+5.00,+17.00,+4.00,+15.00,+14.00,-6.00,+4.00,+11.00
+4.00,+5.00,+6.00,+4.00,+3.00,+5.00,+1.00,+4.00,+25.00,-3.00,-3.00,+1.00,+30.00,+4.00,-2.00,+1.00
-1.00,-29.00,-17.00,-5.00,-4.00,-4.00,-6.00,-1.00,-36.00,-19.00,-8.00,-7.00,-57.00,-22.00,-5.00,-10.00
+7.00,+22.00,+5.00,+2.00,+12.00,+17.00,-1.00,+0.00,-1.00,-17.00,+2.00,+12.00,+35.00,+17.00,-2.00,-3.00
-19.00,-11.00,+2.00,+2.00,+2.00,-18.00,-11.00,-3.00,-17.00,-26.00,-10.00,-13.00,-37.00,-39.00,-3.00,-4.00
+4.00,+19.00,+2.00,-1.00,+3.00,-3.00,-1.00,+12.00,+3.00,+24.00,+7.00,-1.00,-30.00,+10.00,+3.00,+16.00
+2.00,-10.00,-2.00,+0.00,-15.00,+26.00,+2.00,-7.00,-17.00,+6.00,+1.00,-2.00,+14.00,+0.00,-2.00,-15.00
-10.00,-5.00,-4.00,+2.00,-10.00,-68.00,-3.00,+1.00,+5.00,+7.00,+2.00,+5.00,-5.00,+3.00,+3.00,+11.00
-23.00,-21.00,-10.00,-3.00,+13.00,+67.00,-7.00,-7.00,+13.00,+7.00,+4.00,+1.00,+10.00,+1.00,+0.00,+19.00
+10.00,+7.00,+3.00,+0.00,+19.00,-5.00,-7.00,-3.00,+7.00,+5.00,+0.00,+7.00,+22.00,+3.00,+3.00,-12.00
+13.00,+6.00,-3.00,+0.00,-15.00,-18.00,+0.00,+8.00,-7.00,-13.00,-5.00,-7.00,+3.00,-5.00,+0.00,+15.00
-7.00,-13.00,+2.00,+2.00,+17.00,+9.00,-1.00,-2.00,+8.00,+4.00,+2.00,+0.00,-19.00,+0.00,+4.00,+5.00
+2.00,+4.00,+2.00,-1.00,-6.00,-10.00,+13.00,-2.00,-30.00,-10.00,-10.00,-6.00,+20.00,+13.00,-4.00,-17.00
-15.00,+1.00,+1.00,-1.00,+4.00,+20.00,+3.00,-11.00,+44.00,-1.00,+5.00,-3.00,-6.00,-8.00,+6.00,+14.00
+31.00,-6.00,+2.00,+2.00,+5.00,-16.00,-1.00,+7.00,+4.00,+8.00,+3.00,+1.00,+3.00,+6.00,-3.00,-6.00
+17.00,+8.00,-4.00,+0.00,-3.00,+17.00,-1.00,+0.00,-25.00,-12.00,-6.00,-7.00,-13.00,-3.00,+0.00,-6.00
-2.00,-2.00,+0.00,-1.00,-8.00,-24.00,+0.00,+2.00,-15.00,-7.00,-1.00,-3.00,+4.00,+2.00,-2.00,-3.00
-11.00,+9.00,+6.00,-1.00,-1.00,+19.00,+3.00,-3.00,+12.00,+19.00,+6.00,-1.00,+2.00,+0.00,+1.00,+7.00
-13.00,-12.00,-12.00,-5.00,+0.00,-11.00,-6.00,-4.00,-1.00,-2.00,+2.00,-3.00,-8.00,-3.00,-3.00,-15.00
-11.00,-9.00,+0.00,+0.00,-2.00,+11.00,+13.00,+15.00,-10.00,-5.00,-2.00,-2.00,-2.00,+4.00,+0.00,+5.00
+15.00,+3.00,+3.00,+1.00,+6.00,+6.00,+3.00,+0.00,+24.00,+15.00,+7.00,+22.00,+11.00,+7.00,+10.00,+17.00
-6.00,-5.00,-5.00,-3.00,-9.00,-9.00,-6.00,-8.00,-13.00,+0.00,-10.00,-36.00,-5.00,-10.00,-8.00,-11.00
-9.00,+7.00,-3.00,-3.00,+2.00,+4.00,-2.00,+0.00,+9.00,+5.00,+2.00,-2.00,-35.00,-3.00,+2.00,+12.00
+1.00,-11.00,-3.00,+0.00,+12.00,+16.00,-1.00,-4.00,-14.00,-9.00,-8.00,-23.00,-7.00,-19.00,-4.00,-2.00
+14.00,+19.00,-1.00,+0.00,+3.00,-12.00,-3.00,-2.00,-1.00,-3.00,-4.00,+6.00,+69.00,+35.00,-1.00,-8.00
+18.00,+1.00,+3.00,+0.00,-6.00,+3.00,-3.00,-1.00,-9.00,-8.00,-6.00,-10.00,-78.00,+7.00,-5.00,-9.00
-28.00,-1.00,-5.00,-5.00,-23.00,-14.00,-11.00,+4.00,+13.00,-4.00,+0.00,+7.00,+24.00,+3.00,+4.00,+10.00
-13.00,-13.00,-5.00,-2.00,+5.00,-17.00,-3.00,-9.00,+11.00,+5.00,-1.00,+0.00,-9.00,+5.00,-3.00,-2.00
+5.00,-7.00,-1.00,+0.00,+38.00,+5.00,-7.00,+0.00,-15.00,-18.00,-3.00,-5.00,+7.00,-7.00,-2.00,-14.00
+16.00,+11.00,+2.00,-3.00,-24.00,-24.00,+1.00,+1.00,+5.00,+10.00,+3.00,+10.00,+34.00,-1.00,+2.00,+16.00
-11.00,-13.00,-5.00,-1.00,-1.00,-39.00,-6.00,-2.00,-7.00,-3.00,-4.00,-4.00,+2.00,+3.00,-6.00,-6.00
-17.00,-1.00,-1.00,-4.00,-6.00,-12.00,-5.00,-6.00,+2.00,+3.00,+6.00,+11.00,-7.00,+1.00,+4.00,+8.00
+10.00,-13.00,+0.00,+4.00,-4.00,-14.00,+0.00,-2.00,+14.00,+0.00,-3.00,-7.00,-7.00,-4.00,-7.00,-10.00
-7.00,-7.00,-1.00,-4.00,+12.00,+21.00,-1.00,+0.00,-18.00,-12.00,-4.00,+3.00,+2.00,-7.00,-4.00,-23.00
-5.00,+4.00,+1.00,-1.00,+3.00,-6.00,-1.00,-4.00,-9.00,-7.00,-2.00,-1.00,-6.00,-2.00,-3.00,+15.00
+17.00,+9.00,+1.00,-1.00,-1.00,+1.00,+0.00,+0.00,+13.00,+6.00,+4.00,+1.00,+8.00,+1.00,+4.00,+5.00
-8.00,-6.00,-4.00,+1.00,-7.00,-1.00,+2.00,-2.00,+8.00,+9.00,+3.00,-1.00,-17.00,-5.00,-1.00,+6.00
+19.00,-1.00,+3.00,+3.00,-3.00,-1.00,+2.00,+3.00,-20.00,-8.00,-1.00,+3.00,+2.00,-2.00,-2.00,-5.00
-11.00,-10.00,-1.00,-2.00,+1.00,+11.00,+3.00,-5.00,+13.00,+14.00,+2.00,-1.00,+12.00,+1.00,+0.00,-7.00
+8.00,+3.00,+2.00,+1.00,+0.00,+15.00,+2.00,-2.00,-4.00,-4.00,-3.00,-2.00,+4.00,+6.00,-1.00,-5.00
+1.00,+0.00,-4.00,-4.00,-13.00,+3.00,-2.00,+5.00,+2.00,-1.00,-3.00,-3.00,+18.00,-1.00,-5.00,-4.00
+10.00,-1.00,+2.00,+2.00,+1.00,+6.00,+1.00,+2.00,-6.00,-4.00,+0.00,-1.00,-41.00,-11.00,-4.00,-3.00
-13.00,-2.00,+3.00,+1.00,+7.00,+11.00,+3.00,+0.00,+7.00,+3.00,+0.00,-6.00,+9.00,+5.00,+6.00,+8.00
+14.00,+0.00,-3.00,-4.00,+2.00,+16.00,-3.00,-4.00,+9.00,+4.00,+0.00,+4.00,-6.00,+4.00,+2.00,+5.00
-16.00,-10.00,-2.00,-2.00,-13.00,-13.00,-4.00,+1.00,-15.00,-7.00,-2.00,+1.00,-21.00,-13.00,-1.00,-8.00
-13.00,-1.00,-1.00,-1.00,-3.00,-4.00,-1.00,+0.00,-1.00,+2.00,+0.00,+0.00,+19.00,-7.00,-2.00,+2.00
+12.00,+4.00,+0.00,-2.00,+3.00,-15.00,+3.00,+2.00,+6.00,+0.00,-2.00,+6.00,+2.00,-2.00,-3.00,-2.00
-6.00,-5.00,+0.00,-2.00,-7.00,-5.00,-3.00,-8.00,+7.00,+8.00,+1.00,-5.00,-8.00,+5.00,+0.00,+7.00
-23.00,+1.00,-1.00,-4.00,-3.00,-9.00,+0.00,+1.00,+4.00,+3.00,-1.00,+8.00,+11.00,+0.00,-1.00,+1.00
-8.00,+6.00,+0.00,+0.00,-2.00,+10.00,+6.00,+0.00,-6.00,-6.00,-2.00,+0.00,+13.00,+0.00,-1.00,-11.00
+4.00,+2.00,+0.00,+2.00,+44.00,+73.00,+4.00,-4.00,-12.00,-15.00,-6.00,-5.00,-6.00,+1.00,-7.00,+1.00
-1.00,-2.00,-4.00,+0.00,-27.00,-18.00,+1.00,+4.00,+13.00,-2.00,+0.00,+2.00,+10.00,+1.00,+4.00,+3.00
+12.00,+11.00,+6.00,+1.00,+3.00,+11.00,+3.00,-2.00,+30.00,+21.00,+7.00,+0.00,-9.00,+1.00,+0.00,+7.00
-9.00,+3.00,+2.00,+1.00,+3.00,-2.00,-8.00,-1.00,-1.00,-2.00,-2.00,-1.00,+5.00,-1.00,-2.00,+9.00
+0.00,-15.00,-3.00,-1.00,+0.00,-7.00,+5.00,+2.00,-24.00,-5.00,-1.00,-1.00,-2.00,-2.00,-1.00,+4.00
-9.00,-7.00,-2.00,-5.00,+6.00,+1.00,-1.00,-1.00,-5.00,-6.00,-3.00,-1.00,+1.00,-3.00,-3.00,-7.00
-15.00,-3.00,-7.00,-4.00,-6.00,-5.00,-4.00,-8.00,+10.00,+4.00,+0.00,-11.00,-19.00,-5.00,+0.00,+9.00
+2.00,+0.00,+3.00,+3.00,-3.00,-6.00,-1.00,-1.00,+2.00,-5.00,-4.00,-1.00,+2.00,-2.00,-1.00,-2.00
+10.00,+5.00,+1.00,+3.00,-9.00,-7.00,+1.00,+2.00,-12.00,+4.00,+3.00,+5.00,+12.00,+0.00,+0.00,-6.00
-8.00,+7.00,+3.00,+0.00,+6.00,+9.00,+1.00,-2.00,+3.00,-6.00,-7.00,-4.00,-11.00,-5.00,+0.00,+2.00
-6.00,-8.00,-4.00,-4.00,-14.00,-15.00,-5.00,-11.00,-17.00,-8.00,-2.00,-7.00,-11.00,+1.00,-2.00,-8.00
-12.00,+4.00,-1.00,-3.00,+2.00,+3.00,+1.00,-2.00,+7.00,+6.00,+3.00,+15.00,+20.00,+3.00,+1.00,+5.00
-1.00,-2.00,-2.00,-2.00,-5.00,-4.00,-3.00,-6.00,+0.00,-9.00,-4.00,-16.00,-11.00,-2.00,-3.00,-6.00
+3.00,-3.00,-2.00,+0.00,+8.00,+5.00,+0.00,-3.00,-4.00,-3.00,-3.00,-4.00,-3.00,-4.00,-2.00,-4.00
-7.00,-3.00,+0.00,+2.00,-6.00,-1.00,-2.00,+3.00,+1.00,-2.00,-1.00,+10.00,+4.00,+1.00,-2.00,-8.00
-31.00,-6.00,-3.00,-2.00,+1.00,+1.00,-2.00,-1.00,-3.00,+4.00,-5.00,-17.00,-1.00,-3.00,-1.00,-1.00
+2.00,+0.00,+0.00,-4.00,+5.00,-1.00,+0.00,+4.00,+4.00,+3.00,+1.00,+8.00,+17.00,-2.00,+1.00,-1.00
+0.00,-2.00,+3.00,-3.00,-29.00,-10.00,+0.00,+2.00,+0.00,+0.00,+0.00,-4.00,-25.00,-5.00,-3.00,-5.00
+14.00,+5.00,+1.00,+2.00,+7.00,+4.00,+4.00,+2.00,+2.00,+1.00,+0.00,-1.00,-4.00,+2.00,+1.00,+4.00
+7.00,-6.00,-3.00,-1.00,-1.00,+6.00,+1.00,+0.00,-26.00,-11.00,-3.00,-2.00,+0.00,+1.00,-3.00,-4.00
+3.00,+2.00,-3.00,-1.00,-3.00,-11.00,-5.00,-1.00,+10.00,+3.00,+1.00,+1.00,+1.00,+1.00,+2.00,-4.00
-11.00,-8.00,-2.00,-2.00,+5.00,-7.00,-3.00,-3.00,+1.00,+0.00,-1.00,-3.00,+2.00,-1.00,-3.00,+2.00
+1.00,+4.00,+1.00,-1.00,-10.00,-5.00,+1.00,+0.00,+0.00,-1.00,-5.00,-6.00,-4.00,-4.00,-1.00,-3.00
+1.00,-5.00,-5.00,-1.00,-22.00,-6.00,+0.00,-7.00,+11.00,+9.00,+4.00,+6.00,+2.00,+1.00,+3.00,+3.00
-9.00,-10.00,-2.00,-3.00,-3.00,-1.00,-4.00,+0.00,+9.00,+4.00,+2.00,-5.00,-7.00,-1.00,-2.00,-2.00
+15.00,+17.00,+2.00,+1.00,+15.00,+5.00,+1.00,+1.00,-9.00,-2.00,+1.00,+7.00,+5.00,+2.00,-2.00,-5.00
+0.00,-4.00,+1.00,-1.00,-1.00,-1.00,-1.00,+0.00,-8.00,-14.00,-7.00,-10.00,-11.00,-4.00,-1.00,+0.00
+3.00,-7.00,-3.00,-2.00,+6.00,-2.00,-3.00,-2.00,+4.00,+0.00,-2.00,-4.00,+1.00,-1.00,-2.00,+1.00
+12.00,+17.00,+0.00,-2.00,-10.00,-4.00,-1.00,+2.00,-7.00,-7.00,-1.00,+7.00,+0.00,+2.00,-2.00,-4.00
-3.00,+2.00,+3.00,+3.00,+1.00,+5.00,+1.00,+7.00,+2.00,+0.00,-2.00,-8.00,+2.00,+1.00,-1.00,+2.00
+10.00,+0.00,+3.00,+1.00,-1.00,-1.00,-2.00,-2.00,-10.00,-3.00,-5.00,-7.00,-8.00,-2.00,-4.00,-7.00
-4.00,+2.00,+1.00,+0.00,+5.00,+5.00,+3.00,+6.00,-5.00,-8.00,-3.00,-4.00,-9.00,-3.00,-1.00,-4.00
-11.00,-5.00,-2.00,+0.00,-5.00,-3.00,-2.00,-4.00,-3.00,-4.00,-4.00,-1.00,-1.00,-2.00,-1.00,-3.00
-3.00,-1.00,-1.00,-2.00,-1.00,+0.00,-2.00,+1.00,+1.00,+6.00,+3.00,+16.00,+34.00,+5.00,+2.00,+3.00
-1.00,-2.00,+2.00,+1.00,+2.00,+6.00,+0.00,+1.00,-4.00,-2.00,-2.00,-7.00,-32.00,-7.00,-5.00,-3.00
+19.00,+5.00,+3.00,+0.00,+13.00,-2.00,+2.00,+9.00,+0.00,-4.00,-2.00,-12.00,-4.00,+1.00,+1.00,-1.00
-5.00,-9.00,-4.00,-3.00,-13.00,-9.00,-1.00,-2.00,+4.00,-4.00,-1.00,+0.00,-7.00,-1.00,-1.00,+4.00
-4.00,+0.00,-4.00,-4.00,-8.00,-5.00,-4.00,-3.00,-7.00,-11.00,-5.00,-6.00,-2.00,-6.00,-5.00,-7.00
