+5.00,+1.00,-5.00,-3.00,-2.00,-2.00,+1.00,+3.00,+2.00,+3.00,+3.00,+2.00,+0.00,+0.00,+0.00,+2.00
+9.00,+1.00,+0.00,+1.00,+1.00,+0.00,+2.00,+4.00,-1.00,-2.00,-3.00,+0.00,+2.00,+0.00,-2.00,-5.00
+4.00,-8.00,-2.00,-2.00,-2.00,-4.00,-3.00,+0.00,+0.00,+5.00,+8.00,+3.00,-3.00,-1.00,-2.00,-2.00
+12.00,+1.00,+0.00,-1.00,+1.00,+0.00,+2.00,+3.00,-3.00,-6.00,-8.00,-3.00,-2.00,-1.00,-2.00,-1.00
-1.00,-2.00,+3.00,+2.00,+1.00,+0.00,-2.00,-1.00,+4.00,+1.00,-3.00,-1.00,+1.00,-2.00,-3.00,+1.00
-8.00,-4.00,-4.00,-3.00,-2.00,+0.00,-2.00,-1.00,-5.00,-9.00,-7.00,-4.00,-5.00,-2.00,+7.00,+10.00
+0.00,+6.00,+2.00,+0.00,-1.00,+0.00,+2.00,+8.00,-3.00,+0.00,+1.00,+0.00,-2.00,-1.00,-2.00,-1.00
-4.00,-5.00,-4.00,-2.00,-1.00,-2.00,+0.00,+4.00,+1.00,+1.00,+2.00,-1.00,+1.00,-1.00,-4.00,-8.00
+21.00,+9.00,+4.00,+1.00,-2.00,-2.00,-1.00,-1.00,-1.00,-1.00,-1.00,+0.00,-2.00,-2.00,-1.00,-4.00
-33.00,-9.00,-4.00,-2.00,-4.00,-2.00,-3.00,+3.00,+1.00,-1.00,+0.00,+0.00,-1.00,+0.00,-2.00,-4.00
-8.00,+3.00,+4.00,+0.00,+0.00,+1.00,-3.00,-10.00,+0.00,+2.00,-4.00,-3.00,+0.00,-2.00,-2.00,-2.00
-1.00,-4.00,-3.00,+0.00,+0.00,+0.00,-1.00,-4.00,-2.00,-3.00,+1.00,+2.00,-1.00,-1.00,+1.00,+0.00
-12.00,+1.00,+0.00,-2.00,-1.00,-3.00,+0.00,+7.00,-5.00,-3.00,-3.00,-3.00,+0.00,-1.00,-1.00,+0.00
+11.00,+2.00,+1.00,+1.00,+0.00,+0.00,+3.00,+3.00,+2.00,+3.00,+4.00,+2.00,+4.00,+0.00,-2.00,+0.00
+5.00,-3.00,-2.00,-4.00,-3.00,-1.00,+2.00,+12.00,+2.00,+2.00,+4.00,+3.00,+3.00,+0.00,-2.00,-8.00
-15.00,-4.00,+1.00,+0.00,-2.00,-3.00,-2.00,+0.00,-3.00,+4.00,+0.00,+1.00,+0.00,-2.00,+0.00,+3.00
+9.00,-3.00,-4.00,+0.00,+2.00,+2.00,+0.00,+0.00,-3.00,-7.00,-8.00,-4.00,-2.00,-1.00,+1.00,+2.00
+27.00,+6.00,+1.00,+1.00,+0.00,+2.00,+0.00,+5.00,-2.00,+3.00,+6.00,-1.00,-3.00,-1.00,-5.00,-4.00
-11.00,-5.00,-2.00,-1.00,-1.00,-1.00,-2.00,-1.00,-3.00,-7.00,-6.00,-4.00,-2.00,-4.00,+1.00,+3.00
+15.00,+2.00,-2.00,-2.00,+0.00,-1.00,+0.00,+7.00,+1.00,+2.00,+2.00,+0.00,-1.00,+0.00,-2.00,+0.00
-1.00,+2.00,+4.00,+2.00,-1.00,-1.00,-1.00,-4.00,-3.00,+0.00,+0.00,+0.00,-2.00,-1.00,+0.00,+4.00
+6.00,+5.00,+3.00,+1.00,+1.00,+1.00,+3.00,+0.00,+2.00,-1.00,-3.00,-1.00,-2.00,+0.00,+0.00,-4.00
-26.00,-3.00,-1.00,-3.00,-1.00,-3.00,-4.00,-7.00,-2.00,-2.00,+0.00,+0.00,-2.00,-2.00,-1.00,-1.00
-1.00,-3.00,+1.00,-3.00,-3.00,+0.00,+0.00,-2.00,-2.00,-2.00,-1.00,+0.00,-2.00,-1.00,+1.00,+0.00
-3.00,-3.00,-5.00,-4.00,-3.00,-1.00,+0.00,-3.00,-1.00,+3.00,+3.00,+0.00,-2.00,+1.00,+1.00,-2.00
+5.00,-1.00,+3.00,+2.00,+4.00,+2.00,-4.00,-6.00,+1.00,-3.00,-1.00,-1.00,+0.00,+0.00,-2.00,-2.00
-43.00,-9.00,-3.00,-4.00,-5.00,-2.00,-1.00,-25.00,-3.00,+1.00,+1.00,-1.00,+0.00,-2.00,+0.00,+3.00
+3.00,-1.00,-4.00,-2.00,+0.00,+0.00,+0.00,+1.00,-4.00,-4.00,+1.00,+0.00,-1.00,-2.00,-1.00,+8.00
+2.00,-5.00,-1.00,-1.00,-2.00,-2.00,-2.00,+2.00,+2.00,+3.00,+2.00,+1.00,+0.00,+0.00,-2.00,-5.00
+11.00,+4.00,+0.00,+1.00,+1.00,+1.00,+0.00,+3.00,-1.00,-4.00,-10.00,-7.00,-1.00,-1.00,-2.00,+2.00
+19.00,+5.00,-3.00,+2.00,+2.00,+2.00,-2.00,+1.00,+1.00,-3.00,-2.00,+0.00,-1.00,+1.00,-2.00,-3.00
-9.00,+1.00,+5.00,+0.00,-2.00,+0.00,-1.00,-1.00,+4.00,+2.00,+2.00,+1.00,+1.00,-1.00,-2.00,-10.00
-10.00,-7.00,-5.00,-2.00,-1.00,-3.00,-2.00,-8.00,-5.00,+0.00,+0.00,-2.00,-1.00,-2.00,-1.00,-2.00
-4.00,-3.00,-2.00,-3.00,-2.00,-2.00,-1.00,-2.00,+2.00,-1.00,+0.00,+1.00,-1.00,-1.00,-1.00,+0.00
+9.00,-3.00,-1.00,+2.00,+1.00,+0.00,+1.00,+3.00,-4.00,-2.00,-7.00,-5.00,-2.00,-1.00,+0.00,+2.00
+7.00,+2.00,+0.00,+2.00,-1.00,+1.00,-2.00,-11.00,+3.00,+0.00,+1.00,+0.00,+0.00,-1.00,-1.00,-4.00
+27.00,+5.00,+0.00,-1.00,+1.00,+2.00,+2.00,+4.00,-1.00,-2.00,-2.00,-1.00,-2.00,+0.00,+3.00,+4.00
-24.00,-10.00,-1.00,-2.00,-3.00,-5.00,-2.00,+7.00,+0.00,-1.00,+3.00,+1.00,-2.00,-1.00,+1.00,+0.00
+4.00,-3.00,+0.00,+0.00,-1.00,-1.00,+1.00,+3.00,-1.00,+2.00,+3.00,+1.00,+2.00,+1.00,-4.00,-9.00
+14.00,+1.00,+2.00,+0.00,+0.00,+2.00,+2.00,+6.00,-3.00,-2.00,-4.00,-3.00,-2.00,+0.00,-1.00,+3.00
+2.00,+1.00,-3.00,+0.00,+0.00,-1.00,+0.00,-2.00,+4.00,+1.00,+2.00,+1.00,+0.00,-1.00,-2.00,+0.00
+5.00,+1.00,-2.00,-2.00,+0.00,+0.00,+0.00,-2.00,-3.00,-9.00,-10.00,-5.00,-2.00,-1.00,+0.00,-1.00
-15.00,-2.00,-5.00,-4.00,-1.00,-2.00,-3.00,-5.00,-2.00,-2.00,+2.00,+0.00,-1.00,-3.00,+0.00,+2.00
-15.00,-4.00,-3.00,+0.00,+1.00,-3.00,-3.00,-1.00,-10.00,-5.00,-2.00,-5.00,-4.00,-2.00,+1.00,+8.00
-9.00,-1.00,-1.00,+0.00,+0.00,+0.00,-1.00,+2.00,-1.00,-1.00,+5.00,-1.00,+0.00,-1.00,+0.00,-2.00
-17.00,-4.00,-4.00,-4.00,-4.00,-2.00,+2.00,+1.00,+0.00,-3.00,-13.00,-2.00,-3.00,-1.00,-5.00,-4.00
+24.00,+1.00,-1.00,-1.00,-1.00,+1.00,+0.00,+7.00,-4.00,+1.00,-1.00,-2.00,-2.00,-1.00,+1.00,+1.00
-1.00,+3.00,-1.00,+1.00,+0.00,-1.00,+0.00,+4.00,+1.00,-2.00,+0.00,-1.00,+0.00,-1.00,-2.00,-3.00
+5.00,+1.00,-2.00,-2.00,-2.00,+0.00,+1.00,+3.00,+4.00,+2.00,+1.00,+1.00,+2.00,+0.00,-1.00,-2.00
+5.00,-4.00,-3.00,-1.00,+0.00,-1.00,-3.00,-2.00,-5.00,-3.00,+6.00,+0.00,-1.00,-2.00,-4.00,-2.00
+9.00,+0.00,+1.00,+0.00,-1.00,-2.00,+0.00,+3.00,+1.00,-1.00,-2.00,+0.00,+0.00,-1.00,+2.00,+2.00
-6.00,+0.00,-1.00,-1.00,+0.00,-2.00,+0.00,+1.00,+3.00,+6.00,+2.00,-1.00,+0.00,-2.00,-1.00,+0.00
+1.00,-8.00,-1.00,-2.00,-4.00,-4.00,-7.00,-13.00,-7.00,-11.00,-7.00,-3.00,-2.00,-2.00,+1.00,+4.00
-20.00,-2.00,-4.00,-1.00,-2.00,-1.00,-2.00,-3.00,-3.00,+4.00,+3.00,+0.00,+1.00,-1.00,-2.00,-6.00
-54.00,-9.00,-4.00,-4.00,-4.00,-4.00,-4.00,-8.00,-4.00,-6.00,+0.00,-3.00,-1.00,-3.00,-1.00,+0.00
+1.00,-2.00,-2.00,+1.00,-1.00,-2.00,+0.00,-1.00,-3.00,+0.00,-1.00,-1.00,-1.00,+1.00,+0.00,-4.00
-5.00,+2.00,-1.00,-1.00,+1.00,-3.00,-1.00,-1.00,+2.00,-3.00,-4.00,-1.00,-3.00,-1.00,-2.00,-3.00
+3.00,+1.00,+0.00,+0.00,-1.00,+0.00,-1.00,-5.00,+5.00,+5.00,+6.00,+5.00,+2.00,-1.00,-2.00,-10.00
+16.00,+2.00,+0.00,+1.00,-1.00,+1.00,+0.00,+8.00,+1.00,+6.00,-1.00,+1.00,-1.00,+0.00,-1.00,-1.00
-1.00,-3.00,-4.00,-1.00,-1.00,+1.00,-2.00,-3.00,+2.00,+3.00,+3.00,+0.00,+1.00,-1.00,-7.00,-11.00
-11.00,+2.00,+2.00,-1.00,-1.00,+0.00,-1.00,-8.00,-5.00,-5.00,-9.00,-5.00,-1.00,-2.00,+0.00,+0.00
+12.00,+1.00,+1.00,+0.00,+1.00,+0.00,-1.00,-5.00,-3.00,+1.00,+5.00,+0.00,+0.00,+0.00,-1.00,-2.00
-4.00,+2.00,+3.00,+2.00,-1.00,-1.00,+0.00,-1.00,+1.00,-2.00,+2.00,-1.00,+0.00,+1.00,+0.00,-2.00
-3.00,+1.00,+0.00,+1.00,-1.00,+0.00,-1.00,+0.00,+1.00,-2.00,-2.00,-1.00,-3.00,-3.00,-3.00,-5.00
-1.00,-1.00,+0.00,+0.00,+3.00,+1.00,-2.00,-2.00,-1.00,+0.00,-2.00,-2.00,-1.00,-1.00,-1.00,+1.00
-12.00,+5.00,+1.00,+1.00,+2.00,+0.00,+0.00,+3.00,+1.00,+0.00,+1.00,-2.00,-2.00,-1.00,+1.00,+3.00
-2.00,+7.00,+0.00,+0.00,+1.00,+1.00,+5.00,-4.00,-1.00,-4.00,-5.00,-3.00,-2.00,-1.00,-1.00,+1.00
-15.00,-8.00,-4.00,-2.00,+0.00,-2.00,+1.00,-8.00,-4.00,-7.00,-5.00,-3.00,-2.00,-1.00,+2.00,+6.00
+0.00,-6.00,-3.00,-2.00,-2.00,-2.00,+0.00,+1.00,-2.00,+0.00,+1.00,-1.00,-2.00,-1.00,-3.00,-4.00
+13.00,+1.00,-1.00,+0.00,-1.00,-1.00,+1.00,+5.00,-2.00,-4.00,-3.00,+0.00,-1.00,+0.00,+1.00,+3.00
-22.00,-3.00,+0.00,-2.00,-1.00,-2.00,-2.00,-2.00,+0.00,+4.00,-3.00,-4.00,+0.00,-1.00,-1.00,-1.00
+4.00,+3.00,-1.00,+2.00,-1.00,+1.00,-1.00,-1.00,-2.00,-9.00,-12.00,-1.00,-2.00,-1.00,+0.00,+1.00
-5.00,-5.00,+0.00,+1.00,+0.00,+0.00,+0.00,-1.00,-5.00,-1.00,+2.00,-3.00,-3.00,-1.00,+4.00,+10.00
-4.00,-4.00,-5.00,-2.00,-2.00,-1.00,-4.00,-7.00,-1.00,+0.00,-1.00,-1.00,-2.00,+0.00,-3.00,-4.00
+17.00,+8.00,+3.00,+0.00,+0.00,+0.00,-2.00,-5.00,+1.00,-1.00,+3.00,+2.00,-2.00,-1.00,-2.00,-1.00
-2.00,-3.00,-3.00,-5.00,-2.00,-2.00,-3.00,-3.00,+1.00,+5.00,-1.00,-1.00,+0.00,+0.00,-2.00,-1.00
-8.00,-1.00,-1.00,+0.00,-1.00,+0.00,+0.00,+2.00,+0.00,-3.00,-3.00,+0.00,+0.00,-1.00,-3.00,-5.00
+3.00,-1.00,+3.00,+1.00,+3.00,-1.00,-5.00,-16.00,+2.00,+6.00,+2.00,+0.00,+0.00,-1.00,+0.00,+1.00
-20.00,-5.00,-5.00,-6.00,-5.00,-2.00,-3.00,-17.00,-2.00,-8.00,-2.00,-2.00,-1.00,-1.00,-2.00,-6.00
+2.00,+1.00,+0.00,-2.00,-2.00,+0.00,+1.00,+5.00,-1.00,+1.00,+4.00,-1.00,+1.00,-1.00,+0.00,-2.00
+13.00,+2.00,+0.00,+0.00,-2.00,+2.00,+4.00,+6.00,-6.00,-6.00,-5.00,-2.00,-2.00,-1.00,-2.00,-4.00
+2.00,+0.00,-1.00,-4.00,-2.00,-2.00,+1.00,+5.00,+1.00,+5.00,-1.00,-1.00,-1.00,+0.00,+0.00,+1.00
+18.00,-3.00,+0.00,+2.00,+1.00,+1.00,+0.00,+10.00,+1.00,+1.00,+0.00,+1.00,+0.00,+0.00,-2.00,-3.00
-44.00,-9.00,-2.00,-2.00,-3.00,-4.00,-4.00,+1.00,+2.00,+0.00,-1.00,+1.00,-1.00,-1.00,-5.00,-6.00
-17.00,-3.00,+0.00,-2.00,+0.00,+0.00,-1.00,-6.00,-9.00,-6.00,-4.00,-2.00,-4.00,-2.00,+1.00,+9.00
+2.00,+0.00,+1.00,+0.00,-2.00,+0.00,+1.00,+13.00,-3.00,-4.00,-3.00,-2.00,-1.00,+0.00,+0.00,+5.00
-9.00,-7.00,-3.00,-1.00,+1.00,-1.00,-3.00,-7.00,-2.00,+1.00,+2.00,+1.00,-3.00,-2.00,-2.00,-2.00
-45.00,-2.00,+0.00,+1.00,-2.00,-2.00,-3.00,-11.00,-4.00,-3.00,-4.00,-2.00,-3.00,+1.00,+0.00,+5.00
+25.00,+7.00,+4.00,+3.00,+1.00,+0.00,-1.00,+8.00,+6.00,+4.00,+2.00,+1.00,+1.00,+0.00,-6.00,-9.00
-3.00,+1.00,+0.00,-1.00,-1.00,-1.00,+0.00,+2.00,-4.00,-3.00,+0.00,-2.00,-1.00,-3.00,+0.00,-3.00
+13.00,-3.00,+2.00,+1.00,-1.00,+1.00,-1.00,+5.00,+3.00,+0.00,+1.00,+1.00,+0.00,+0.00,-1.00,-2.00
+18.00,-3.00,-4.00,+0.00,+1.00,-1.00,-1.00,-1.00,-2.00,-2.00,+1.00,-1.00,-1.00,+1.00,+1.00,-5.00
-1.00,+1.00,-3.00,-3.00,-2.00,-1.00,-1.00,-2.00,+2.00,+6.00,+1.00,+0.00,+2.00,-2.00,-8.00,-12.00
+5.00,+1.00,+0.00,+1.00,-1.00,-1.00,+0.00,-5.00,-6.00,-6.00,-2.00,-6.00,-3.00,+0.00,+6.00,+14.00
+6.00,+1.00,-1.00,-2.00,-1.00,-1.00,+2.00,+11.00,-3.00,-8.00,-9.00,-3.00,+0.00,-2.00,+0.00,+0.00
+23.00,+2.00,+0.00,+0.00,+2.00,+2.00,+0.00,+3.00,-1.00,+0.00,-2.00,-3.00,+0.00,-1.00,+1.00,+1.00
-29.00,-4.00,-4.00,-2.00,-3.00,-4.00,-5.00,-16.00,-1.00,+1.00,-2.00,-3.00,+0.00,-2.00,-2.00,-4.00
-1.00,-4.00,+0.00,+0.00,-3.00,-2.00,-2.00,-5.00,-2.00,-2.00,+0.00,-1.00,-1.00,-1.00,-5.00,-7.00
+12.00,+5.00,+1.00,+2.00,+3.00,+3.00,+4.00,+6.00,-3.00,+1.00,+2.00,-1.00,-1.00,-1.00,+0.00,+0.00
+17.00,+0.00,+0.00,-2.00,-2.00,-2.00,+1.00,+2.00,-3.00,-3.00,+0.00,+1.00,+0.00,-2.00,-1.00,+2.00
+7.00,-1.00,+1.00,-2.00,+0.00,-1.00,+0.00,+2.00,-1.00,-1.00,+0.00,+0.00,-1.00,+0.00,+2.00,+4.00
+2.00,+3.00,+0.00,+3.00,+1.00,+2.00,+0.00,+2.00,+3.00,+4.00,+3.00,+3.00,+0.00,-1.00,-4.00,-9.00
+17.00,+4.00,+2.00,+1.00,+0.00,-1.00,-1.00,+1.00,+0.00,-3.00,-4.00,-2.00,+0.00,-2.00,-1.00,+0.00
-16.00,-3.00,-2.00,+1.00,-3.00,-3.00,-4.00,-7.00,+0.00,-1.00,+1.00,-1.00,-1.00,+0.00,-1.00,-3.00
+0.00,+1.00,+1.00,-1.00,-2.00,-2.00,+0.00,-2.00,-1.00,-4.00,-3.00,-4.00,-1.00,+1.00,+5.00,+8.00
+5.00,-2.00,-4.00,-3.00,-2.00,-3.00,-1.00,+5.00,-3.00,-4.00,-1.00,-1.00,+0.00,+0.00,+1.00,-2.00
-6.00,-6.00,-4.00,-3.00,-3.00,-1.00,-3.00,-6.00,-1.00,+0.00,+1.00,-2.00,-3.00,-2.00,-4.00,-4.00
+11.00,-2.00,+0.00,-1.00,-3.00,-2.00,-3.00,-10.00,-2.00,-7.00,-12.00,-4.00,-3.00,-2.00,-1.00,+0.00
-5.00,-4.00,-4.00,-1.00,+0.00,-1.00,-1.00,+5.00,+0.00,-2.00,+0.00,+3.00,+1.00,+0.00,-3.00,-4.00
+2.00,-4.00,-3.00,-4.00,-1.00,-2.00,+0.00,+3.00,-1.00,-3.00,-3.00,+1.00,-1.00,-1.00,-1.00,+0.00
-33.00,-3.00,-4.00,-4.00,-4.00,-3.00,-5.00,-9.00,-2.00,-3.00,-2.00,-3.00,-1.00,+0.00,+0.00,+0.00
+6.00,+4.00,+1.00,+2.00,+1.00,+3.00,+2.00,+0.00,+3.00,-2.00,+1.00,-3.00,+2.00,+2.00,+0.00,-2.00
-6.00,-10.00,-5.00,-2.00,-3.00,-4.00,-4.00,-5.00,+3.00,+5.00,+1.00,+0.00,-1.00,-1.00,-2.00,-10.00
-5.00,-1.00,-2.00,-2.00,+0.00,-1.00,+0.00,-9.00,-5.00,-1.00,-2.00,+0.00,+0.00,-1.00,-2.00,-1.00
+3.00,+0.00,+1.00,+3.00,-1.00,-3.00,-2.00,+3.00,+0.00,+2.00,+3.00,+2.00,-2.00,-2.00,-3.00,-3.00
+25.00,+2.00,+3.00,+0.00,+1.00,+0.00,+3.00,+7.00,+2.00,+7.00,+6.00,+2.00,-1.00,-2.00,-3.00,-3.00
-16.00,-3.00,-3.00,-4.00,-1.00,-2.00,+5.00,+19.00,+0.00,+0.00,+0.00,+0.00,-1.00,-1.00,-1.00,-2.00
+2.00,-1.00,-1.00,+2.00,-1.00,+2.00,-1.00,+3.00,+2.00,-2.00,-3.00,-3.00,-1.00,+0.00,+1.00,-7.00
+11.00,-1.00,-3.00,-1.00,+1.00,+0.00,-1.00,-2.00,-1.00,+1.00,-5.00,-2.00,-1.00,-2.00,-1.00,-1.00
+3.00,-1.00,-2.00,-3.00,-1.00,+0.00,-2.00,+2.00,-1.00,+0.00,+2.00,-1.00,-1.00,-2.00,-2.00,-2.00
+2.00,+2.00,+3.00,+0.00,+0.00,+1.00,-2.00,-9.00,-2.00,-6.00,-7.00,-3.00,-1.00,-3.00,-3.00,-3.00
+6.00,+0.00,+2.00,+0.00,+0.00,+1.00,+2.00,+5.00,+5.00,+4.00,+4.00,+2.00,+1.00,+0.00,-1.00,+5.00
-5.00,-5.00,-4.00,-1.00,-1.00,-3.00,-2.00,-8.00,-1.00,+0.00,+0.00,-1.00,+0.00,-1.00,+0.00,+3.00
+5.00,-1.00,-5.00,-2.00,+0.00,-1.00,-3.00,-11.00,-4.00,-3.00,-1.00,-2.00,-1.00,+0.00,+2.00,+4.00
-19.00,-8.00,-2.00,-2.00,-4.00,-3.00,-6.00,-13.00,-1.00,+4.00,+2.00,-2.00,+0.00,-1.00,-3.00,-2.00
-3.00,+0.00,-2.00,-1.00,-1.00,-1.00,-1.00,+1.00,+0.00,-4.00,-2.00,-2.00,-4.00,-3.00,-2.00,-1.00
+11.00,-2.00,+1.00,-1.00,-2.00,+0.00,+0.00,+2.00,-5.00,-4.00,-2.00,-3.00,-1.00,+1.00,-1.00,-4.00
+11.00,+5.00,+4.00,-1.00,+2.00,+0.00,+0.00,+8.00,+4.00,+7.00,+7.00,+3.00,+2.00,+2.00,-2.00,-6.00
+7.00,-2.00,-3.00,+3.00,+1.00,+0.00,+0.00,+0.00,-1.00,-1.00,-1.00,+1.00,-1.00,-1.00,-3.00,-3.00
-36.00,-5.00,-3.00,-2.00,-1.00,-2.00,-2.00,-12.00,+3.00,+3.00,+0.00,+0.00,+1.00,+4.00,+0.00,-9.00
+3.00,-2.00,-1.00,+1.00,-2.00,-1.00,-1.00,+1.00,-1.00,+1.00,+2.00,+0.00,-1.00,-3.00,-1.00,+1.00
-8.00,-2.00,-1.00,+0.00,-1.00,-2.00,+1.00,+1.00,+0.00,+0.00,-3.00,-2.00,-1.00,-1.00,-1.00,-3.00
+6.00,+8.00,+3.00,+1.00,+1.00,+2.00,+1.00,+2.00,+0.00,-7.00,-1.00,+0.00,+0.00,-1.00,+1.00,+2.00
+1.00,+1.00,+1.00,+0.00,-2.00,-2.00,-2.00,+0.00,-2.00,-3.00,-5.00,-4.00,+0.00,-3.00,-3.00,-4.00
+2.00,+2.00,+1.00,+0.00,+1.00,+0.00,-1.00,+2.00,+0.00,+2.00,+2.00,+0.00,+1.00,+0.00,-3.00,-6.00
-10.00,-2.00,+0.00,-1.00,-1.00,-3.00,+1.00,-2.00,-6.00,-8.00,-7.00,-5.00,-2.00,-2.00,-1.00,+3.00
+11.00,-1.00,-1.00,+1.00,+2.00,+2.00,+0.00,+2.00,+0.00,+4.00,+2.00,-1.00,+0.00,+1.00,+0.00,+1.00
+14.00,+2.00,-1.00,+1.00,+0.00,-1.00,-1.00,+2.00,-6.00,-5.00,-4.00,-2.00,-2.00,-3.00,+1.00,+4.00
+4.00,-4.00,-2.00,-3.00,-2.00,-2.00,+3.00,+10.00,+0.00,-2.00,-2.00,+0.00,-1.00,-2.00,-1.00,+1.00
-1.00,+1.00,+1.00,+0.00,-1.00,-2.00,-2.00,-1.00,-3.00,-2.00,-2.00,-4.00,-3.00,-2.00,-2.00,+2.00
+4.00,-1.00,+0.00,-1.00,+0.00,+0.00,+0.00,+3.00,+0.00,-1.00,+1.00,+1.00,-2.00,+0.00,-1.00,+2.00
-5.00,-2.00,-3.00,-4.00,-2.00,-1.00,-1.00,+0.00,+0.00,+1.00,+0.00,+0.00,-1.00,-1.00,-3.00,-2.00
+3.00,+5.00,+3.00,+0.00,-1.00,-1.00,-1.00,+0.00,-3.00,-3.00,-3.00,-1.00,+0.00,-1.00,+1.00,+3.00
-15.00,-2.00,-2.00,-2.00,+1.00,+1.00,-1.00,-3.00,+1.00,+0.00,+1.00,+2.00,+0.00,-2.00,-3.00,-5.00
+23.00,-2.00,+0.00,-1.00,-1.00,-1.00,-2.00,-8.00,-4.00,-2.00,-5.00,-4.00,-2.00,-1.00,-2.00,-4.00
+0.00,-2.00,-3.00,-3.00,-3.00,+0.00,+0.00,-8.00,-6.00,-4.00,-3.00,-2.00,-5.00,-2.00,-4.00,-1.00
+3.00,+2.00,-2.00,-1.00,+0.00,+1.00,+2.00,-1.00,+0.00,+0.00,+2.00,+0.00,-1.00,+1.00,+0.00,-1.00
-28.00,-3.00,-2.00,-1.00,-2.00,-3.00,-2.00,-9.00,-3.00,+0.00,+1.00,+0.00,-1.00,-2.00,+1.00,+1.00
+7.00,+4.00,+2.00,+1.00,-1.00,+0.00,+1.00,+3.00,-3.00,-10.00,-14.00,-4.00,+0.00,-1.00,-1.00,-3.00
+6.00,-2.00,+2.00,+1.00,-1.00,+1.00,+1.00,+1.00,+7.00,+2.00,+2.00,+0.00,+1.00,+0.00,-2.00,-8.00
-3.00,-4.00,-1.00,-2.00,-2.00,-3.00,-2.00,-6.00,-3.00,-4.00,-2.00,-2.00,-2.00,+1.00,+2.00,+2.00
+4.00,-2.00,+2.00,+0.00,-3.00,-3.00,-3.00,-2.00,-3.00,-6.00,-2.00,-3.00,-2.00,-2.00,+0.00,-1.00
-6.00,+1.00,-1.00,+1.00,+0.00,+0.00,+0.00,+1.00,+5.00,+6.00,+2.00,-2.00,+1.00,+1.00,+1.00,+0.00
-6.00,-7.00,-1.00,+0.00,-1.00,-2.00,-1.00,-2.00,+0.00,+0.00,-1.00,+0.00,-2.00,+0.00,-1.00,+1.00
-9.00,-2.00,-2.00,-1.00,+0.00,-1.00,-1.00,+3.00,+1.00,+0.00,-1.00,-1.00,-2.00,-2.00,+0.00,-1.00
+8.00,+4.00,+1.00,+0.00,+0.00,+0.00,-3.00,-7.00,-2.00,-3.00,+1.00,+1.00,+0.00,-1.00,-1.00,+2.00
+3.00,-4.00,-4.00,-3.00,-3.00,-4.00,-5.00,-3.00,+4.00,+4.00,+3.00,+2.00,-1.00,+0.00,-1.00,-8.00
-7.00,+2.00,+1.00,+0.00,-1.00,+0.00,+0.00,-2.00,-8.00,-4.00,-1.00,-4.00,-2.00,-2.00,+2.00,+4.00
+20.00,+2.00,-1.00,+1.00,-1.00,-2.00,-1.00,+2.00,+2.00,+2.00,+3.00,-1.00,+0.00,-1.00,-2.00,+0.00
+2.00,-1.00,-4.00,-2.00,-1.00,+0.00,+2.00,+6.00,-2.00,-2.00,-6.00,-2.00,+0.00,-1.00,-1.00,+1.00
-10.00,-4.00,-2.00,-2.00,-2.00,+0.00,+0.00,+2.00,-3.00,-4.00,+2.00,+1.00,+1.00,+0.00,-1.00,-2.00
+4.00,+1.00,+0.00,+0.00,+1.00,-2.00,+0.00,+3.00,+3.00,+4.00,+3.00,+3.00,+1.00,+0.00,-3.00,-5.00
-3.00,-3.00,-3.00,+1.00,-1.00,-2.00,-2.00,-3.00,-4.00,-5.00,-9.00,-5.00,-3.00,-1.00,+1.00,+0.00
+14.00,-2.00,+0.00,+1.00,+1.00,-1.00,+0.00,+2.00,+0.00,+1.00,+1.00,-2.00,-2.00,-1.00,-2.00,-1.00
-35.00,+3.00,+3.00,-2.00,-1.00,-2.00,-2.00,-14.00,-2.00,+1.00,+1.00,-1.00,-2.00,-3.00,+0.00,+2.00
-12.00,-4.00,-5.00,-4.00,-3.00,-2.00,-2.00,-8.00,-5.00,-7.00,-4.00,-3.00,-1.00,-2.00,-3.00,-1.00
-28.00,-1.00,+1.00,-2.00,-2.00,-1.00,+1.00,-2.00,+2.00,-2.00,+1.00,+0.00,-1.00,-1.00,-2.00,-2.00
+9.00,-2.00,-4.00,-2.00,-2.00,+0.00,+2.00,+5.00,-2.00,-1.00,-2.00,+0.00,-1.00,-1.00,-1.00,+0.00
+4.00,-2.00,-5.00,-2.00,-1.00,+0.00,+0.00,-5.00,-3.00,-1.00,+0.00,-1.00,-2.00,+0.00,+0.00,+0.00
+16.00,-3.00,+1.00,-2.00,-5.00,-3.00,-7.00,-6.00,-1.00,+2.00,+3.00,-1.00,+1.00,-2.00,-4.00,-1.00
-5.00,+0.00,-3.00,-2.00,+0.00,-2.00,-1.00,-5.00,+1.00,+2.00,-2.00,-2.00,+1.00,+0.00,+0.00,+2.00
+5.00,-1.00,+1.00,+2.00,-2.00,+1.00,-2.00,-1.00,+5.00,+2.00,-2.00,+1.00,+0.00,+0.00,+0.00,-2.00
-13.00,-3.00,+1.00,+2.00,-2.00,+0.00,+0.00,+7.00,-4.00,+0.00,+0.00,-1.00,-1.00,-1.00,+3.00,+7.00
-24.00,-2.00,-1.00,-1.00,+0.00,-1.00,+1.00,+4.00,-1.00,+1.00,+1.00,+0.00,-1.00,+1.00,+1.00,+1.00
+2.00,-3.00,+0.00,+2.00,+0.00,-2.00,-1.00,+0.00,+2.00,+3.00,+1.00,+2.00,+1.00,-1.00,-8.00,-13.00
+19.00,+4.00,+0.00,+1.00,-1.00,-1.00,+1.00,+11.00,-7.00,+0.00,+2.00,+1.00,-3.00,-2.00,-2.00,-3.00
+12.00,+2.00,-2.00,-1.00,+0.00,+0.00,+1.00,+7.00,+1.00,-2.00,+1.00,+0.00,+0.00,-3.00,-2.00,-2.00
+5.00,+0.00,-3.00,+0.00,-1.00,-1.00,-2.00,+0.00,-1.00,-6.00,-7.00,-3.00,-2.00,-1.00,+0.00,+0.00
+37.00,+5.00,+2.00,+2.00,+0.00,+1.00,+4.00,+7.00,+1.00,-2.00,+0.00,+2.00,-1.00,-3.00,-2.00,-7.00
-10.00,-2.00,-4.00,-2.00,-1.00,-1.00,+1.00,-1.00,-1.00,-3.00,-4.00,-1.00,-1.00,-1.00,+1.00,+2.00
+3.00,+0.00,-3.00,+1.00,+1.00,+0.00,+0.00,-2.00,-3.00,+1.00,+1.00,-3.00,-3.00,-3.00,-3.00,-1.00
-6.00,+6.00,+6.00,+1.00,-1.00,+2.00,+5.00,+19.00,-4.00,-1.00,-3.00,-2.00,-2.00,+0.00,+2.00,+6.00
+6.00,-3.00,+2.00,-3.00,+0.00,-1.00,+1.00,-1.00,-3.00,+0.00,+0.00,-1.00,-1.00,-1.00,-2.00,+3.00
-5.00,-1.00,-2.00,+0.00,+1.00,+1.00,+1.00,-2.00,-1.00,-2.00,-1.00,-2.00,-1.00,+1.00,-1.00,+0.00
-2.00,-4.00,-2.00,-1.00,-3.00,-2.00,-1.00,-2.00,-6.00,-9.00,-5.00,-2.00,-2.00,-2.00,+5.00,+11.00
+9.00,+4.00,-1.00,+0.00,+3.00,+0.00,+0.00,+0.00,+2.00,+5.00,+7.00,+1.00,-1.00,-2.00,-1.00,-4.00
-14.00,-2.00,+1.00,-2.00,+1.00,-1.00,-4.00,-2.00,-1.00,-5.00,-5.00,+0.00,+0.00,-1.00,-4.00,+0.00
+3.00,+1.00,+2.00,-1.00,+0.00,-1.00,+0.00,+4.00,-11.00,-13.00,-12.00,-10.00,-5.00,-4.00,+5.00,+23.00
-16.00,+2.00,+1.00,+0.00,+1.00,-1.00,-1.00,-1.00,+1.00,+0.00,-2.00,-2.00,-1.00,+0.00,-2.00,-7.00
+37.00,+3.00,+2.00,+0.00,+2.00,+0.00,+0.00,-7.00,-2.00,+0.00,+1.00,-2.00,+1.00,-1.00,+0.00,+0.00
-2.00,-3.00,-2.00,+0.00,-4.00,-4.00,+0.00,+7.00,-3.00,-4.00,-7.00,-3.00,-1.00,-2.00,+0.00,+1.00
-3.00,-3.00,-2.00,-1.00,-1.00,-2.00,-3.00,-4.00,+3.00,+1.00,-1.00,-1.00,+1.00,+0.00,-3.00,-10.00
+18.00,-2.00,-2.00,-2.00,+0.00,+1.00,+0.00,+2.00,+1.00,+3.00,+3.00,+1.00,+1.00,-2.00,-2.00,-2.00
-4.00,-1.00,-3.00,+0.00,-1.00,+1.00,-2.00,+3.00,-4.00,-2.00,-2.00,-2.00,-2.00,-1.00,-2.00,+4.00
-17.00,-3.00,-3.00,-1.00,-2.00,+1.00,+0.00,-4.00,-3.00,+1.00,+3.00,-1.00,-1.00,-1.00,+0.00,-1.00
-33.00,-3.00,-1.00,-3.00,-2.00,-4.00,-5.00,-13.00,-1.00,-6.00,-9.00,-3.00,-2.00,-2.00,+4.00,-1.00
+4.00,-3.00,+1.00,+0.00,-2.00,-2.00,+1.00,+6.00,-2.00,-2.00,-2.00,-3.00,-2.00,+0.00,+1.00,+1.00
-10.00,-1.00,+0.00,+1.00,-1.00,-1.00,-1.00,-5.00,+3.00,-1.00,+0.00,+0.00,-3.00,-1.00,-3.00,-5.00
-13.00,-3.00,-1.00,-2.00,-1.00,-1.00,-3.00,-7.00,+1.00,+0.00,+3.00,+0.00,-1.00,+2.00,-2.00,+0.00
-4.00,-1.00,-2.00,-1.00,-2.00,+1.00,-2.00,+8.00,-1.00,+1.00,+4.00,+2.00,-1.00,+0.00,-3.00,-3.00
+0.00,-1.00,-4.00,-1.00,-1.00,+0.00,+0.00,-3.00,+0.00,-3.00,-5.00,+0.00,-1.00,-1.00,-4.00,-6.00
-7.00,-3.00,-3.00,-1.00,-2.00,-2.00,-3.00,-12.00,-4.00,-3.00,-4.00,+0.00,-1.00,-1.00,-3.00,-3.00
-5.00,-2.00,-4.00,+0.00,+0.00,-1.00,-1.00,+6.00,-3.00,+2.00,-4.00,-3.00,-2.00,-1.00,+1.00,-4.00
-16.00,-2.00,+0.00,-1.00,-1.00,+1.00,+5.00,+12.00,+2.00,+4.00,+2.00,+0.00,+0.00,+0.00,-2.00,-2.00
+20.00,+2.00,+1.00,-3.00,+0.00,-2.00,+0.00,+5.00,+4.00,+2.00,+1.00,+0.00,+1.00,+1.00,-2.00,-1.00
-2.00,+1.00,+2.00,-1.00,-2.00,-2.00,+0.00,+1.00,-2.00,-2.00,+1.00,+0.00,-1.00,+0.00,+2.00,+6.00
+14.00,+1.00,-2.00,-1.00,+0.00,+0.00,-1.00,+6.00,-5.00,-4.00,-1.00,-5.00,-2.00,-2.00,-1.00,-1.00
-3.00,-1.00,-2.00,-1.00,-1.00,-2.00,-1.00,-8.00,+4.00,+4.00,+4.00,+1.00,+1.00,-1.00,-4.00,-7.00
-10.00,+1.00,-1.00,-2.00,-2.00,-1.00,+0.00,-1.00,+1.00,+6.00,+4.00,+1.00,-2.00,-3.00,-2.00,+1.00
-40.00,-4.00,-4.00,-1.00,-1.00,-3.00,+0.00,+4.00,-7.00,-9.00,-8.00,-1.00,-1.00,-1.00,+1.00,+3.00
+9.00,+2.00,+2.00,+1.00,+0.00,+0.00,-1.00,-4.00,+0.00,-4.00,-2.00,+0.00,-1.00,+0.00,+0.00,+1.00
+9.00,-1.00,+0.00,+0.00,+0.00,-1.00,+1.00,+5.00,-4.00,-2.00,-2.00,-2.00,-2.00,-2.00,-1.00,-3.00
-5.00,-2.00,-2.00,-1.00,-3.00,+0.00,-1.00,-10.00,-2.00,-3.00,-1.00,-1.00,-1.00,-2.00,-2.00,-3.00
+18.00,-1.00,+4.00,+0.00,+0.00,+0.00,-1.00,-2.00,+0.00,+2.00,+0.00,-3.00,-1.00,-1.00,-1.00,-2.00
-17.00,-4.00,-3.00,-4.00,-3.00,-3.00,-2.00,-3.00,+1.00,-3.00,-2.00,+0.00,+0.00,+0.00,-2.00,-2.00
+10.00,+3.00,+0.00,-2.00,+1.00,-1.00,-2.00,-4.00,-2.00,+0.00,+0.00,-1.00,-1.00,-1.00,-3.00,+3.00
-26.00,-3.00,+1.00,+1.00,+1.00,-2.00,+1.00,+0.00,-1.00,-6.00,-4.00,-4.00,-3.00,+0.00,+4.00,+6.00
+12.00,+3.00,-3.00,-2.00,-1.00,+1.00,+2.00,+6.00,+0.00,+4.00,+2.00,+0.00,+0.00,-1.00,-1.00,-3.00
-3.00,+0.00,-4.00,+0.00,+2.00,+0.00,+2.00,+0.00,-1.00,-2.00,+1.00,+3.00,-2.00,-1.00,+0.00,+1.00
+12.00,-1.00,+0.00,+0.00,-2.00,+1.00,-2.00,-5.00,+2.00,+3.00,+1.00,+4.00,+1.00,-2.00,-5.00,-8.00
+11.00,-1.00,-3.00,+0.00,+1.00,-1.00,+0.00,+8.00,-3.00,-2.00,-3.00,+0.00,-1.00,+0.00,-2.00,-2.00
-23.00,+2.00,+0.00,+0.00,+1.00,-2.00,-1.00,-6.00,+1.00,-2.00,-2.00,-2.00,-1.00,+0.00,-4.00,-4.00
-3.00,+0.00,+1.00,+0.00,-2.00,-2.00,-4.00,-10.00,-1.00,+2.00,+3.00,-1.00,+1.00,-1.00,-1.00,-1.00
-2.00,+1.00,+0.00,-3.00,-2.00,-1.00,-2.00,-10.00,+2.00,+2.00,+3.00,-1.00,+1.00,+1.00,-1.00,+2.00
+22.00,+5.00,+2.00,+3.00,+2.00,+2.00,+1.00,-1.00,-2.00,-1.00,-1.00,-1.00,-1.00,-1.00,-1.00,+5.00
+0.00,-4.00,-3.00,-1.00,-2.00,-3.00,-3.00,-2.00,-2.00,-4.00,-5.00,-2.00,-2.00,-1.00,-3.00,-1.00
-36.00,-9.00,-6.00,-1.00,-3.00,-1.00,-2.00,-5.00,-3.00,+2.00,+4.00,-1.00,-2.00,-4.00,-4.00,-4.00
+9.00,+1.00,+3.00,+2.00,+1.00,-1.00,+1.00,+2.00,-4.00,-5.00,-2.00,-2.00,-1.00,-1.00,+4.00,+9.00
+12.00,+1.00,+1.00,-3.00,-1.00,+1.00,-2.00,+0.00,-4.00,-5.00,-5.00,-3.00,+0.00,+0.00,-2.00,-6.00
+25.00,-1.00,-4.00,+0.00,+1.00,+1.00,+3.00,+4.00,+0.00,-3.00,-5.00,-2.00,+1.00,+1.00,-1.00,+2.00
+7.00,+1.00,+3.00,+1.00,-1.00,+0.00,-1.00,-8.00,-6.00,-5.00,-2.00,-4.00,-3.00,-1.00,+1.00,+6.00
+2.00,-4.00,-4.00,-1.00,+0.00,+0.00,-1.00,-1.00,+1.00,+4.00,+3.00,-1.00,+0.00,+0.00,-3.00,-6.00
-14.00,-4.00,-2.00,+0.00,-1.00,-1.00,-1.00,-1.00,+0.00,-2.00,-6.00,-3.00,-2.00,-1.00,+3.00,+2.00
+7.00,-3.00,-4.00,-3.00,-1.00,+0.00,-1.00,-1.00,+1.00,+2.00,+1.00,+1.00,-1.00,-2.00,-1.00,+0.00
-8.00,+4.00,+4.00,+1.00,+2.00,+1.00,+1.00,+2.00,-3.00,-5.00,-9.00,-4.00,-2.00,-2.00,-3.00,-6.00
-14.00,-5.00,-2.00,+0.00,-1.00,-1.00,+0.00,-4.00,-4.00,-2.00,+0.00,-2.00,-2.00,+0.00,+1.00,+3.00
+8.00,+0.00,-3.00,-2.00,-1.00,-1.00,+0.00,+0.00,-2.00,-2.00,-1.00,+0.00,-2.00,-1.00,+0.00,+1.00
+2.00,+3.00,+4.00,-1.00,-2.00,-2.00,-1.00,+0.00,+2.00,+0.00,+1.00,-2.00,+0.00,+0.00,+0.00,-4.00
-13.00,-2.00,-1.00,-1.00,+0.00,+0.00,-2.00,-5.00,+2.00,+1.00,-1.00,-2.00,+0.00,+1.00,+0.00,+1.00
-10.00,-2.00,+1.00,-1.00,-2.00,-1.00,-1.00,+9.00,+1.00,-2.00,-4.00,-2.00,-1.00,-2.00,-1.00,-3.00
-4.00,-3.00,-4.00,-1.00,-2.00,-3.00,-1.00,-4.00,-6.00,-5.00,-2.00,-3.00,-1.00,-2.00,-1.00,+1.00
-6.00,-3.00,-3.00,-2.00,-2.00,+0.00,-1.00,-7.00,-1.00,+0.00,+1.00,-1.00,+0.00,-1.00,+2.00,+2.00
-7.00,-7.00,-3.00,-2.00,-2.00,-1.00,-1.00,+1.00,+0.00,-7.00,-15.00,-3.00,+0.00,-1.00,-3.00,-4.00
+14.00,+1.00,-3.00,-2.00,+1.00,-1.00,-2.00,-7.00,+1.00,+3.00,+1.00,-1.00,+0.00,-1.00,-1.00,-3.00
-4.00,-4.00,+1.00,+0.00,-1.00,-3.00,-3.00,-3.00,+1.00,+3.00,+2.00,+1.00,+1.00,+2.00,-4.00,-5.00
-4.00,-1.00,+1.00,+1.00,+2.00,-2.00,-2.00,+3.00,-2.00,-1.00,-1.00,-2.00,-4.00,-2.00,-1.00,+0.00
+32.00,+7.00,+4.00,+2.00,+3.00,+2.00,-1.00,-12.00,-2.00,-1.00,+4.00,+3.00,+0.00,-1.00,+1.00,-3.00
-9.00,-2.00,-2.00,-3.00,-1.00,+0.00,+1.00,+7.00,+1.00,-4.00,-6.00,-2.00,+0.00,-1.00,-2.00,-7.00
-4.00,+0.00,+0.00,+0.00,-2.00,-1.00,+0.00,+3.00,-1.00,-1.00,-3.00,-3.00,-1.00,+0.00,+0.00,-5.00
+4.00,-3.00,+0.00,-1.00,-3.00,-2.00,-4.00,-3.00,+0.00,+1.00,+2.00,-1.00,-1.00,+0.00,-3.00,-3.00
+24.00,-2.00,-3.00,+0.00,-3.00,-3.00,-8.00,-2.00,+0.00,+5.00,+1.00,+1.00,-1.00,+0.00,-1.00,-1.00
+4.00,+2.00,+0.00,-4.00,-1.00,-1.00,+2.00,-2.00,+1.00,-3.00,-2.00,-1.00,-1.00,-1.00,+1.00,+1.00
-4.00,-3.00,+0.00,-1.00,-2.00,-1.00,+0.00,-2.00,-5.00,-1.00,+2.00,-1.00,-1.00,-3.00,-2.00,-1.00
-6.00,+1.00,-1.00,+1.00,-1.00,+0.00,-1.00,-3.00,+0.00,+0.00,-3.00,+1.00,+0.00,-3.00,+1.00,+3.00
+23.00,-1.00,+0.00,-1.00,-2.00,+0.00,+3.00,+13.00,-2.00,+0.00,+0.00,+0.00,-1.00,-1.00,-1.00,+0.00
-45.00,-7.00,-5.00,-1.00,-2.00,-2.00,-1.00,+0.00,+2.00,-2.00,-5.00,+0.00,+1.00,+0.00,-5.00,-11.00
+32.00,+3.00,+1.00,-1.00,-1.00,+0.00,+0.00,+3.00,-3.00,-5.00,-5.00,-1.00,-2.00,-2.00,-2.00,-2.00
-7.00,-4.00,-2.00,+0.00,-1.00,-2.00,-1.00,-1.00,+0.00,-1.00,-2.00,-1.00,+0.00,-2.00,+3.00,+0.00
+18.00,+11.00,+4.00,+3.00,+0.00,+2.00,+0.00,+0.00,-1.00,+3.00,+3.00,+1.00,-1.00,-1.00,-1.00,-2.00
+17.00,+2.00,-1.00,-2.00,-1.00,-1.00,+1.00,+1.00,+0.00,+0.00,+1.00,-1.00,+0.00,+0.00,+0.00,-1.00
-7.00,-1.00,-3.00,-2.00,+1.00,+0.00,-1.00,-6.00,+4.00,+1.00,-1.00,-2.00,+0.00,+2.00,-3.00,-2.00
-29.00,-5.00,+1.00,-1.00,+2.00,-2.00,-2.00,-10.00,-2.00,-2.00,-2.00,-1.00,-1.00,-2.00,-1.00,+3.00
-24.00,+1.00,+1.00,-1.00,-2.00,-4.00,-3.00,-7.00,+2.00,-2.00,+1.00,+0.00,+1.00,+0.00,+0.00,-2.00
+7.00,-1.00,+4.00,+2.00,+1.00,-1.00,+0.00,+0.00,-7.00,-5.00,-3.00,+0.00,-3.00,-1.00,+1.00,+3.00
-17.00,-3.00,-4.00,-2.00,-2.00,-1.00,-4.00,-5.00,-5.00,-2.00,+2.00,-1.00,-2.00,-3.00,-3.00,+1.00
-1.00,-1.00,+1.00,-1.00,-2.00,-2.00,+0.00,+4.00,+1.00,-5.00,-9.00,-4.00,-1.00,+1.00,-2.00,-1.00
-49.00,-15.00,-8.00,-4.00,-4.00,-5.00,-5.00,-5.00,+1.00,+2.00,-2.00,-4.00,-3.00,+0.00,-2.00,-3.00
+3.00,-4.00,-2.00,+0.00,-1.00,-1.00,-1.00,-2.00,-5.00,-4.00,-3.00,-3.00,+0.00,-2.00,-3.00,+10.00
-7.00,-3.00,-1.00,-1.00,+1.00,-1.00,+1.00,+4.00,+1.00,+3.00,-1.00,+1.00,+0.00,-2.00,+0.00,-1.00
+2.00,-1.00,-3.00,-2.00,-3.00,-2.00,-2.00,-3.00,+0.00,+3.00,+1.00,+0.00,+1.00,+0.00,-3.00,-4.00
+17.00,-2.00,-2.00,-3.00,-1.00,+1.00,+2.00,+12.00,-3.00,-6.00,-1.00,+0.00,-1.00,-2.00,-2.00,+0.00
-6.00,-4.00,-4.00,-4.00,-3.00,-2.00,+1.00,+8.00,+2.00,+1.00,-1.00,+0.00,-1.00,+0.00,-2.00,-11.00
-51.00,-7.00,+0.00,-1.00,-4.00,-5.00,-3.00,-6.00,+0.00,+0.00,-4.00,-2.00,-1.00,-3.00,-1.00,+0.00
+17.00,+1.00,-2.00,-2.00,+0.00,+0.00,-3.00,-10.00,-5.00,-3.00,-2.00,+0.00,-2.00,-2.00,-2.00,-3.00
+1.00,+1.00,-4.00,-1.00,-1.00,+1.00,-1.00,+0.00,+2.00,+3.00,+1.00,-1.00,+1.00,+1.00,-1.00,-1.00
+11.00,-1.00,-2.00,+3.00,+1.00,+1.00,-3.00,-3.00,-2.00,-1.00,+1.00,+1.00,-2.00,-1.00,-1.00,-3.00
+9.00,+5.00,+6.00,+1.00,+0.00,+1.00,-2.00,+0.00,+1.00,+0.00,+0.00,+0.00,-1.00,+0.00,+0.00,-1.00
+8.00,+0.00,-3.00,+0.00,-2.00,+0.00,+0.00,+6.00,+4.00,+3.00,+2.00,+0.00,+0.00,+1.00,-6.00,-7.00
+3.00,+1.00,+2.00,-1.00,+0.00,-1.00,+2.00,+0.00,+2.00,+0.00,-2.00,-1.00,-2.00,+1.00,+0.00,-2.00
+3.00,-2.00,-2.00,-1.00,+0.00,+0.00,-2.00,-6.00,-1.00,-1.00,+2.00,+0.00,+0.00,+0.00,-2.00,-3.00
+7.00,-4.00,+0.00,-1.00,+0.00,+1.00,+0.00,-1.00,+1.00,+0.00,-6.00,-2.00,-2.00,+1.00,-2.00,-4.00
+4.00,+1.00,-1.00,+0.00,-1.00,+0.00,+1.00,+8.00,+0.00,-2.00,+2.00,+0.00,+1.00,-1.00,-1.00,+2.00
+7.00,+0.00,+2.00,+1.00,-1.00,+0.00,+0.00,-1.00,-3.00,-5.00,-2.00,-1.00,-1.00,-3.00,-1.00,+0.00
-1.00,+2.00,-1.00,+1.00,+0.00,+0.00,-3.00,-3.00,-2.00,+1.00,+3.00,-2.00,-1.00,-2.00,+2.00,+4.00
+8.00,+0.00,-1.00,-1.00,+0.00,-2.00,-1.00,+4.00,+1.00,+0.00,+3.00,+2.00,+0.00,+0.00,-1.00,-3.00
-12.00,-4.00,-3.00,-2.00,-1.00,-1.00,-2.00,-3.00,-6.00,-4.00,-5.00,-4.00,-4.00,-2.00,+2.00,+5.00
+7.00,-2.00,-1.00,-1.00,-2.00,+1.00,+2.00,+4.00,-3.00,-2.00,+0.00,-2.00,-1.00,-1.00,+1.00,+2.00
-18.00,-1.00,-1.00,-1.00,-3.00,-1.00,-2.00,+1.00,-3.00,+0.00,+0.00,-2.00,-1.00,+0.00,-2.00,-1.00
-39.00,-4.00,-4.00,-2.00,-3.00,-2.00,-2.00,-20.00,-1.00,-7.00,-8.00,-3.00,-1.00,-1.00,-3.00,-2.00
-1.00,-2.00,-1.00,-2.00,-1.00,-2.00,-6.00,-10.00,-2.00,+1.00,-3.00,-1.00,-2.00,-1.00,-1.00,-2.00
+4.00,-2.00,+1.00,-2.00,-1.00,-2.00,-4.00,-13.00,-2.00,-3.00,-1.00,+0.00,-1.00,-1.00,-1.00,-1.00
+6.00,+2.00,+2.00,-2.00,+0.00,+0.00,+3.00,+9.00,-3.00,-2.00,-1.00,+0.00,-2.00,-2.00,-2.00,+0.00
+12.00,+3.00,+2.00,+0.00,-2.00,+0.00,+0.00,+0.00,+2.00,+2.00,+6.00,+1.00,+1.00,-1.00,-1.00,-1.00
-2.00,-6.00,-4.00,-1.00,+0.00,+1.00,+0.00,+5.00,+4.00,+5.00,+6.00,+3.00,+0.00,+1.00,-4.00,-5.00
-13.00,-4.00,-5.00,-3.00,+0.00,-3.00,-2.00,-5.00,-1.00,-9.00,-10.00,-3.00,-2.00,-1.00,-1.00,-9.00
+10.00,+1.00,+0.00,-1.00,+1.00,+0.00,-2.00,+0.00,+3.00,+2.00,-5.00,-2.00,-2.00,+1.00,-1.00,-2.00
+8.00,+2.00,-3.00,-1.00,+1.00,+1.00,+1.00,+2.00,+0.00,+5.00,+4.00,+0.00,+0.00,-1.00,-1.00,-2.00
-3.00,+1.00,+1.00,+0.00,-2.00,-1.00,+1.00,+1.00,-3.00,-7.00,-2.00,-2.00,-3.00,+0.00,+2.00,-3.00
+8.00,+1.00,+1.00,+0.00,+0.00,-1.00,+0.00,+6.00,+2.00,+5.00,+5.00,-2.00,+1.00,-1.00,-1.00,+3.00
-1.00,-4.00,-2.00,+2.00,-1.00,-1.00,-1.00,-5.00,-1.00,+0.00,-1.00,-2.00,+0.00,+0.00,-1.00,+1.00
+1.00,+1.00,-2.00,-1.00,-1.00,-1.00,+0.00,+1.00,-4.00,-3.00,-1.00,-2.00,-1.00,-1.00,-1.00,-2.00
-12.00,-1.00,+1.00,-4.00,+0.00,+0.00,+2.00,+0.00,+0.00,-2.00,+0.00,+1.00,+0.00,-1.00,+0.00,+5.00
+19.00,+1.00,-2.00,+1.00,+0.00,+1.00,+1.00,-1.00,-5.00,+0.00,-3.00,-2.00,-2.00,-3.00,+0.00,+6.00
-52.00,-7.00,+0.00,-1.00,-3.00,-6.00,-5.00,-19.00,-3.00,-5.00,-3.00,-3.00,-1.00,-3.00,+1.00,+4.00
+6.00,+2.00,-1.00,+0.00,+0.00,+1.00,+0.00,+0.00,+0.00,+0.00,+2.00,+1.00,+0.00,-1.00,-2.00,-2.00
+2.00,-1.00,-2.00,+1.00,-1.00,+0.00,+1.00,-2.00,-2.00,+0.00,-2.00,-1.00,+0.00,-1.00,+0.00,-5.00
-5.00,+0.00,+2.00,+0.00,+0.00,-3.00,+0.00,+4.00,+3.00,-1.00,-4.00,-1.00,+2.00,+1.00,+1.00,+2.00
+20.00,+1.00,-2.00,-2.00,+0.00,+0.00,+0.00,+3.00,+3.00,-3.00,+1.00,+0.00,+0.00,-1.00,-2.00,-6.00
+9.00,-3.00,-2.00,-1.00,+0.00,-3.00,-2.00,+3.00,+1.00,-2.00,-3.00,+0.00,+0.00,-2.00,-4.00,-4.00
-20.00,-2.00,-3.00,-1.00,+0.00,+0.00,-2.00,-9.00,-4.00,-2.00,-3.00,-6.00,-1.00,-2.00,+0.00,-2.00
-6.00,-1.00,-3.00,-2.00,-2.00,-1.00,-1.00,-2.00,-1.00,+0.00,+2.00,-1.00,-2.00,-1.00,-3.00,-2.00
+10.00,-1.00,+0.00,-1.00,-1.00,+0.00,+1.00,+12.00,-1.00,+0.00,+1.00,+1.00,+0.00,+0.00,+0.00,-3.00
-1.00,-4.00,-3.00,-1.00,-3.00,+0.00,+0.00,+3.00,+4.00,+2.00,+6.00,+0.00,-2.00,+1.00,+0.00,+0.00
+10.00,-2.00,+1.00,-1.00,-2.00,+0.00,+1.00,+8.00,+1.00,-5.00,-10.00,-4.00,+0.00,-1.00,+0.00,+1.00
-1.00,-2.00,-5.00,-4.00,-3.00,-1.00,+1.00,-1.00,-1.00,+5.00,+1.00,+0.00,+0.00,+0.00,-3.00,-4.00
+9.00,+2.00,-2.00,+1.00,+0.00,-1.00,+0.00,+0.00,-8.00,-10.00,-7.00,-4.00,-4.00,-2.00,+1.00,+12.00
-3.00,+1.00,-1.00,+1.00,+0.00,+1.00,+5.00,+6.00,-3.00,-1.00,-1.00,-1.00,-1.00,-1.00,-1.00,-1.00
+17.00,+1.00,+1.00,-1.00,+1.00,-1.00,-2.00,-6.00,-2.00,-1.00,+0.00,+0.00,+1.00,-1.00,-2.00,-1.00
-16.00,-2.00,+0.00,+0.00,+0.00,-3.00,-2.00,-3.00,-2.00,-2.00,+2.00,+0.00,+1.00,+0.00,+1.00,+0.00
+27.00,+0.00,-2.00,-2.00,+0.00,+0.00,+2.00,+1.00,+0.00,+0.00,+0.00,-3.00,-1.00,-1.00,-1.00,-2.00
-3.00,+1.00,+2.00,-1.00,+0.00,+0.00,-1.00,-3.00,-4.00,-5.00,-6.00,-4.00,-3.00,-2.00,+0.00,+0.00
+4.00,+1.00,-4.00,-3.00,-3.00,+0.00,-1.00,+1.00,+3.00,+2.00,+2.00,-1.00,-1.00,-2.00,-1.00,+1.00
-3.00,+0.00,-1.00,+0.00,+1.00,+1.00,-3.00,-4.00,-2.00,-1.00,+0.00,+1.00,+0.00,-1.00,-1.00,+4.00
+6.00,+1.00,-2.00,-2.00,+0.00,-2.00,+0.00,-2.00,+1.00,+1.00,-4.00,-3.00,+0.00,+0.00,-3.00,-6.00
+4.00,+2.00,+3.00,+1.00,+0.00,-3.00,-2.00,-5.00,-3.00,-1.00,+2.00,-1.00,+0.00,-1.00,-1.00,-3.00
-6.00,-2.00,-1.00,-1.00,-1.00,+0.00,+0.00,+4.00,-3.00,-6.00,-7.00,-3.00,-3.00,+0.00,-2.00,-5.00
-6.00,-2.00,-1.00,-1.00,-1.00,-1.00,-5.00,-14.00,-2.00,+0.00,+2.00,+0.00,-2.00,+1.00,+0.00,+0.00
-30.00,-6.00,-1.00,-2.00,-1.00,-2.00,-7.00,-20.00,+1.00,+3.00,+0.00,+0.00,+0.00,-1.00,+0.00,+1.00
+7.00,+0.00,-1.00,+1.00,+1.00,-2.00,-4.00,-10.00,+0.00,+3.00,+1.00,-3.00,+0.00,-2.00,+1.00,+2.00
-7.00,-3.00,+0.00,+0.00,-1.00,-3.00,-1.00,+2.00,-2.00,-5.00,+0.00,+0.00,+0.00,-2.00,-3.00,-2.00
-5.00,-4.00,-6.00,-2.00,-2.00,-2.00,+2.00,+5.00,+0.00,-1.00,-3.00,-1.00,-1.00,-4.00,-2.00,-4.00
+7.00,+3.00,+2.00,+0.00,-1.00,-1.00,-2.00,-5.00,-2.00,+0.00,+0.00,-2.00,-1.00,+0.00,-4.00,-9.00
+9.00,+1.00,-2.00,-1.00,+1.00,+1.00,+1.00,+11.00,+2.00,-1.00,-2.00,+0.00,+1.00,+1.00,+1.00,+0.00
-4.00,+1.00,-1.00,-1.00,-2.00,-2.00,+0.00,-1.00,-1.00,+3.00,+2.00,+2.00,-2.00,-1.00,+0.00,-1.00
+8.00,-2.00,+1.00,-1.00,+0.00,+0.00,+1.00,+5.00,+0.00,-5.00,-3.00,-2.00,-1.00,-3.00,+0.00,-3.00
-20.00,-5.00,-1.00,-4.00,-2.00,-1.00,-2.00,-3.00,-1.00,-1.00,+1.00,+4.00,-1.00,-1.00,-1.00,-5.00
+25.00,+4.00,+0.00,+1.00,+0.00,+1.00,+2.00,+5.00,+1.00,-2.00,-4.00,-1.00,+0.00,+0.00,-4.00,-6.00
+7.00,+1.00,+1.00,+1.00,+1.00,+0.00,+1.00,+4.00,-2.00,+0.00,-3.00,-2.00,-1.00,+0.00,+0.00,-1.00
+17.00,+4.00,-1.00,-1.00,+1.00,+3.00,+4.00,+20.00,-6.00,-7.00,-2.00,-2.00,-3.00,-2.00,+1.00,+12.00
+1.00,+0.00,+0.00,+2.00,+0.00,+0.00,+1.00,-6.00,+2.00,+3.00,+5.00,+0.00,+0.00,+0.00,-1.00,-1.00
+6.00,+1.00,-1.00,+0.00,-2.00,+1.00,-1.00,+2.00,-3.00,-7.00,-7.00,-2.00,-2.00,-2.00,-2.00,-4.00
-5.00,-3.00,-2.00,+3.00,-1.00,-2.00,+0.00,-1.00,-1.00,-2.00,-3.00,-4.00,-2.00,-2.00,+0.00,+2.00
-3.00,+0.00,+0.00,-1.00,-2.00,-2.00,-4.00,-5.00,+0.00,+1.00,+2.00,-2.00,-1.00,+0.00,+2.00,-2.00
+13.00,+2.00,+3.00,+1.00,+1.00,+1.00,+0.00,+3.00,-5.00,-2.00,-3.00,-2.00,+1.00,-3.00,-3.00,+0.00
-13.00,-9.00,-5.00,-7.00,-3.00,-2.00,+0.00,+3.00,-9.00,-4.00,+1.00,+0.00,-3.00,-3.00,+6.00,+16.00
+7.00,+0.00,-2.00,+0.00,+0.00,+0.00,+0.00,-1.00,+1.00,-3.00,-3.00,-2.00,+0.00,+1.00,-2.00,-3.00
-25.00,-8.00,-1.00,-1.00,-4.00,-5.00,-6.00,-19.00,+1.00,+1.00,-3.00,-1.00,-1.00,+1.00,-1.00,-1.00
+6.00,+3.00,-1.00,-3.00,-2.00,-2.00,+0.00,+8.00,+1.00,+2.00,+1.00,-1.00,+0.00,+0.00,+0.00,+1.00
-18.00,-4.00,-3.00,-1.00,+1.00,-2.00,-3.00,-4.00,-1.00,-1.00,-5.00,-2.00,-1.00,-1.00,-1.00,-4.00
-6.00,+2.00,+0.00,-3.00,+0.00,-2.00,+2.00,+4.00,+0.00,+3.00,+1.00,-1.00,+0.00,-3.00,-1.00,+0.00
+3.00,-1.00,-2.00,+0.00,+0.00,-1.00,+1.00,+2.00,-2.00,-2.00,+0.00,-1.00,+0.00,-1.00,-1.00,-4.00
+51.00,+10.00,-1.00,+2.00,+0.00,+1.00,+3.00,+14.00,+6.00,+7.00,+5.00,+2.00,+2.00,+2.00,+0.00,-5.00
-16.00,-4.00,-1.00,-3.00,-2.00,-3.00,+0.00,-6.00,-2.00,-3.00,-4.00,-2.00,+1.00,+0.00,-2.00,-4.00
+2.00,-4.00,-5.00,-2.00,+0.00,-2.00,-2.00,-3.00,-2.00,-5.00,-4.00,-1.00,+1.00,-2.00,-2.00,-4.00
+2.00,+0.00,-1.00,+1.00,+0.00,+1.00,+0.00,-1.00,+1.00,+2.00,-1.00,-4.00,+0.00,-2.00,-2.00,-4.00
+5.00,+0.00,+0.00,+0.00,-1.00,-1.00,-2.00,-5.00,-1.00,-7.00,-10.00,-5.00,-3.00,+1.00,+0.00,-1.00
+27.00,+11.00,+2.00,+1.00,-1.00,+2.00,-2.00,-5.00,+0.00,+0.00,+4.00,+2.00,-2.00,+0.00,-1.00,+1.00
-7.00,-1.00,+3.00,+0.00,-2.00,-1.00,-3.00,-3.00,-5.00,-3.00,+1.00,-3.00,-4.00,-2.00,+6.00,+11.00
+1.00,-4.00,+0.00,+1.00,+0.00,-1.00,+1.00,+2.00,+1.00,+2.00,+1.00,+0.00,-1.00,+1.00,-2.00,-2.00
-26.00,-4.00,-2.00,-1.00,+0.00,+0.00,+2.00,+1.00,-5.00,-4.00,-3.00,-3.00,-4.00,-2.00,-2.00,+0.00
+11.00,-6.00,-5.00,-2.00,-3.00,-4.00,-4.00,-6.00,+1.00,+1.00,-1.00,-1.00,-1.00,+0.00,-2.00,+2.00
+20.00,+4.00,+4.00,+1.00,-2.00,+1.00,+1.00,+11.00,-2.00,-5.00,-2.00,+1.00,-1.00,-1.00,-2.00,-4.00
-11.00,-2.00,-7.00,-3.00,-3.00,-1.00,+0.00,-5.00,-5.00,-6.00,-2.00,-4.00,-1.00,-2.00,+1.00,+2.00
-8.00,-1.00,+0.00,-1.00,+0.00,-1.00,-1.00,-5.00,-4.00,-4.00,-1.00,+0.00,+1.00,-1.00,+1.00,+0.00
-22.00,-6.00,-1.00,-2.00,-2.00,-2.00,-1.00,-1.00,+1.00,+1.00,-1.00,-1.00,+0.00,-2.00,-3.00,-2.00
+7.00,-1.00,+0.00,+2.00,+3.00,-1.00,+2.00,-4.00,+3.00,+7.00,+5.00,+3.00,+0.00,+1.00,-3.00,-10.00
+5.00,+4.00,+3.00,+0.00,+0.00,-2.00,-2.00,-2.00,-1.00,-1.00,-4.00,+2.00,-1.00,+1.00,-2.00,-4.00
+1.00,-2.00,-1.00,+0.00,+0.00,+0.00,+1.00,+1.00,-6.00,-7.00,-8.00,-6.00,-2.00,-3.00,+3.00,+8.00
-18.00,+3.00,+0.00,+0.00,-1.00,+0.00,+0.00,+1.00,-1.00,+1.00,+0.00,+0.00,-1.00,-2.00,-1.00,-2.00
-4.00,-6.00,-4.00,-2.00,-1.00,-1.00,-6.00,-5.00,+3.00,+2.00,+3.00,-2.00,+0.00,-1.00,-3.00,-2.00
+1.00,-1.00,+0.00,+0.00,+0.00,+1.00,+0.00,+0.00,+0.00,+1.00,+0.00,-1.00,-1.00,+0.00,-1.00,-1.00
-8.00,-2.00,-3.00,-3.00,-1.00,-2.00,-3.00,-7.00,-4.00,-7.00,-6.00,+1.00,-3.00,+0.00,-2.00,-4.00
+14.00,+0.00,+2.00,-2.00,-2.00,+1.00,-2.00,-7.00,-2.00,-8.00,-7.00,-5.00,-3.00,-2.00,-1.00,+1.00
-8.00,-2.00,-4.00,+0.00,+0.00,+0.00,+2.00,-2.00,+1.00,+3.00,+2.00,+0.00,+2.00,+0.00,-1.00,+0.00
+21.00,-3.00,-2.00,+0.00,-1.00,-2.00,-2.00,+8.00,+1.00,+0.00,+2.00,+0.00,-3.00,-1.00,-3.00,-9.00
-24.00,-3.00,+0.00,-3.00,-3.00,-2.00,-5.00,-14.00,-2.00,+0.00,+2.00,-2.00,+1.00,-1.00,+0.00,+1.00
-5.00,-4.00,+0.00,-1.00,-1.00,-1.00,-1.00,-9.00,-2.00,-2.00,+0.00,-1.00,-3.00,-1.00,-2.00,-2.00
-3.00,+1.00,-2.00,-2.00,-3.00,-1.00,-2.00,+3.00,-3.00,+0.00,+1.00,-1.00,-2.00,-1.00,-3.00,-3.00
-2.00,-3.00,-2.00,-1.00,+0.00,+0.00,-2.00,-5.00,-3.00,-7.00,-6.00,-2.00,-1.00,+0.00,+2.00,+2.00
-16.00,-10.00,-8.00,-3.00,-2.00,-5.00,-1.00,+4.00,+4.00,+6.00,+5.00,-1.00,-1.00,+0.00,-4.00,-7.00
-1.00,-2.00,-5.00,-2.00,+0.00,-2.00,-1.00,+7.00,-3.00,-2.00,-1.00,-2.00,-1.00,-1.00,+1.00,+3.00
-8.00,-2.00,-2.00,+0.00,-1.00,-1.00,-1.00,-3.00,-3.00,-2.00,-3.00,-3.00,-1.00,-2.00,-3.00,-2.00
+0.00,+1.00,-1.00,-2.00,-2.00,-1.00,+2.00,+4.00,+0.00,+3.00,+1.00,+1.00,-1.00,-1.00,-4.00,-3.00
+10.00,+5.00,+4.00,-1.00,-1.00,-1.00,-1.00,+4.00,+0.00,+2.00,+1.00,-1.00,-3.00,-2.00,-2.00,-6.00
-16.00,-1.00,+0.00,-1.00,+0.00,-1.00,-2.00,-5.00,+7.00,+5.00,+2.00,+3.00,+3.00,+1.00,-4.00,-9.00
+2.00,-1.00,-4.00,-3.00,-3.00,+1.00,-2.00,-4.00,+0.00,-1.00,+0.00,-1.00,-2.00,+0.00,+1.00,+0.00
-8.00,+2.00,+0.00,-2.00,-1.00,+0.00,+0.00,-3.00,-4.00,-13.00,-14.00,-3.00,-1.00,-2.00,+0.00,+1.00
+0.00,-3.00,-2.00,-2.00,-1.00,-1.00,-2.00,-6.00,+1.00,+3.00,+8.00,+3.00,-1.00,+0.00,+0.00,+3.00
-5.00,-7.00,-5.00,-4.00,-1.00,-4.00,-4.00,-3.00,-2.00,+0.00,-2.00,-1.00,+0.00,+0.00,-1.00,-5.00
+10.00,+6.00,+4.00,+2.00,+0.00,+0.00,-2.00,+0.00,-2.00,-1.00,-4.00,-1.00,+1.00,+0.00,-1.00,+0.00
-6.00,+0.00,+4.00,-2.00,-3.00,-3.00,-1.00,+12.00,-1.00,+1.00,+1.00,-1.00,-1.00,-2.00,-2.00,-1.00
+0.00,-3.00,-1.00,+1.00,+0.00,-1.00,-4.00,-19.00,+0.00,-3.00,-3.00,-1.00,-2.00,-1.00,-1.00,+5.00
-7.00,-4.00,-3.00,-3.00,-3.00,-3.00,+0.00,+5.00,-1.00,-1.00,-1.00,-1.00,-2.00,+0.00,-1.00,+0.00
-9.00,+1.00,-2.00,-2.00,+0.00,+0.00,-1.00,+3.00,+4.00,+4.00,+4.00,+3.00,+0.00,+0.00,-5.00,-11.00
-7.00,-4.00,-4.00,-3.00,-3.00,-2.00,-1.00,-2.00,+0.00,+4.00,+7.00,+2.00,+1.00,+0.00,+2.00,-1.00
+28.00,+3.00,+4.00,+2.00,+2.00,+1.00,+2.00,+14.00,+1.00,-2.00,-6.00,-1.00,+0.00,-2.00,-4.00,-4.00
+1.00,+2.00,+0.00,+0.00,-1.00,+0.00,+3.00,+12.00,-1.00,+0.00,+2.00,+0.00,+0.00,-1.00,+4.00,+0.00
+0.00,-4.00,+1.00,-2.00,+0.00,-1.00,-1.00,-4.00,-7.00,-3.00,-5.00,-1.00,-2.00,-2.00,-3.00,-6.00
-4.00,+0.00,-4.00,+0.00,-1.00,-2.00,-2.00,-5.00,+1.00,-1.00,-2.00,-2.00,-1.00,-1.00,-1.00,-2.00
+0.00,-2.00,+0.00,-1.00,-1.00,-2.00,+1.00,+4.00,+3.00,+4.00,+5.00,+1.00,-2.00,+0.00,+0.00,-4.00
+9.00,+3.00,+2.00,+1.00,-1.00,+2.00,+2.00,+3.00,-3.00,-4.00,-3.00,-3.00,-1.00,+0.00,+0.00,-3.00
-9.00,-1.00,-5.00,-2.00,-1.00,-2.00,+0.00,-4.00,-1.00,+3.00,+2.00,+0.00,-3.00,-1.00,+1.00,+6.00
-10.00,+3.00,-1.00,+0.00,+1.00,+1.00,-1.00,-2.00,-5.00,-1.00,+0.00,+0.00,-2.00,-1.00,-1.00,+1.00
-15.00,-6.00,+0.00,-1.00,-1.00,-2.00,-3.00,-13.00,-1.00,-2.00,+0.00,+0.00,-1.00,+0.00,+0.00,+1.00
-4.00,-1.00,+2.00,+1.00,-1.00,-3.00,-3.00,-8.00,-5.00,-3.00,-5.00,-6.00,-3.00,-1.00,-3.00,+1.00
-3.00,-3.00,+1.00,+1.00,-1.00,-1.00,+0.00,-1.00,-1.00,-7.00,-4.00,-1.00,-1.00,-3.00,+1.00,+2.00
-3.00,-6.00,-4.00,-1.00,-1.00,-2.00,-2.00,-1.00,+0.00,+1.00,-1.00,-1.00,+1.00,+0.00,-1.00,-2.00
-13.00,+2.00,-2.00,+0.00,+0.00,+2.00,+1.00,+6.00,+1.00,+4.00,+2.00,-1.00,+1.00,-1.00,-1.00,+0.00
-23.00,-1.00,+0.00,+1.00,+0.00,-3.00,-4.00,-13.00,+9.00,+3.00,+2.00,+2.00,+0.00,-2.00,-2.00,-5.00
+3.00,-3.00,+0.00,-3.00,-3.00,+0.00,-3.00,-6.00,-1.00,-6.00,-5.00,-3.00,-1.00,+1.00,+1.00,-4.00
-6.00,-2.00,+1.00,-1.00,-2.00,-1.00,+0.00,+10.00,+0.00,-2.00,-2.00,+1.00,-2.00,-2.00,-1.00,-3.00
+3.00,+2.00,-2.00,-2.00,-1.00,+0.00,-1.00,+2.00,-1.00,-1.00,-2.00,+1.00,+1.00,-1.00,-2.00,-1.00
+1.00,-2.00,-2.00,+0.00,+0.00,+0.00,-1.00,+2.00,-5.00,+2.00,+1.00,-2.00,-2.00,-1.00,+2.00,+4.00
-6.00,-1.00,+0.00,+1.00,-1.00,-4.00,-1.00,+1.00,+1.00,+1.00,+0.00,+1.00,+0.00,+1.00,-4.00,+1.00
+10.00,+0.00,-1.00,+0.00,+1.00,-1.00,-1.00,-2.00,-1.00,-1.00,+1.00,+1.00,+0.00,+2.00,+0.00,-1.00
-1.00,-2.00,-4.00,-2.00,-2.00,-2.00,+0.00,+6.00,-5.00,-2.00,-2.00,-2.00,-1.00,-1.00,+0.00,-3.00
+1.00,+0.00,-2.00,-2.00,-2.00,-2.00,-2.00,+1.00,+1.00,-6.00,-7.00,-4.00,-2.00,-2.00,+0.00,+1.00
+5.00,+0.00,+0.00,+0.00,+2.00,+1.00,-3.00,-5.00,+1.00,-2.00,+0.00,+0.00,-2.00,-1.00,-2.00,-2.00
+4.00,+2.00,+4.00,+0.00,-2.00,+0.00,-1.00,-1.00,-1.00,+2.00,+1.00,-1.00,+0.00,-2.00,-3.00,-1.00
+5.00,+1.00,-1.00,-1.00,-2.00,-2.00,-1.00,+1.00,-5.00,-5.00,-6.00,-4.00,-3.00,-1.00,+0.00,+4.00
+12.00,-2.00,+0.00,+0.00,+2.00,-1.00,-1.00,-1.00,-1.00,-1.00,+0.00,+1.00,+0.00,-2.00,-3.00,-1.00
-7.00,-1.00,-6.00,-2.00,-1.00,-1.00,-1.00,+0.00,+2.00,+0.00,+4.00,+1.00,+1.00,+0.00,-1.00,-5.00
+25.00,+8.00,+4.00,+2.00,+2.00,+0.00,+3.00,-5.00,-5.00,-1.00,-3.00,-3.00,-1.00,-4.00,-3.00,+2.00
-11.00,-4.00,-2.00,-2.00,-3.00,+0.00,-1.00,+0.00,+2.00,-6.00,-7.00,-2.00,+1.00,-1.00,+2.00,+0.00
+4.00,+5.00,+4.00,+2.00,+0.00,+1.00,+1.00,+2.00,-2.00,-3.00,-1.00,+1.00,+0.00,-1.00,-3.00,-1.00
-5.00,-5.00,-5.00,-4.00,-1.00,-1.00,-3.00,-5.00,-4.00,-2.00,+3.00,-1.00,-1.00,-1.00,-1.00,-2.00
-10.00,-2.00,-1.00,-1.00,+1.00,+1.00,+2.00,-3.00,-2.00,-4.00,-5.00,-3.00,-2.00,-1.00,-2.00,-1.00
+11.00,-1.00,-1.00,+1.00,+1.00,+1.00,+0.00,+5.00,+0.00,+1.00,+5.00,+2.00,+0.00,-1.00,-3.00,-1.00
+0.00,+0.00,+0.00,+0.00,-1.00,-1.00,-1.00,-1.00,-9.00,-4.00,-3.00,-4.00,-3.00,-2.00,+2.00,+15.00
+3.00,-1.00,+1.00,+1.00,-2.00,-1.00,-1.00,-3.00,-4.00,+0.00,+0.00,-2.00,+0.00,+0.00,+1.00,+2.00
+3.00,+0.00,-3.00,-1.00,-2.00,-1.00,-3.00,-5.00,+4.00,+4.00,+3.00,+0.00,+0.00,+0.00,+0.00,-1.00
-5.00,+0.00,-2.00,-1.00,+0.00,-2.00,-1.00,-1.00,-3.00,-5.00,-4.00,-3.00,-2.00,-1.00,+0.00,-1.00
-10.00,-3.00,-1.00,-1.00,-1.00,-2.00,+0.00,+2.00,+1.00,+0.00,+0.00,-1.00,-1.00,-1.00,-3.00,-6.00
+8.00,+3.00,+0.00,+1.00,-2.00,-2.00,-3.00,-6.00,-2.00,+3.00,+0.00,+0.00,-2.00,-2.00,+1.00,+1.00
-13.00,-4.00,-3.00,-3.00,-3.00,-1.00,+1.00,+4.00,-2.00,-2.00,-2.00,-1.00,-3.00,-1.00,-1.00,-2.00
+24.00,+5.00,+3.00,+3.00,+1.00,+2.00,+2.00,+8.00,+1.00,-1.00,+0.00,+0.00,+0.00,+0.00,-2.00,-3.00
-46.00,-4.00,-2.00,-2.00,-3.00,-2.00,-4.00,-25.00,+1.00,+1.00,+1.00,-1.00,-1.00,-1.00,-2.00,-3.00
+18.00,+3.00,+1.00,+0.00,-1.00,+1.00,+5.00,+4.00,-2.00,-5.00,-5.00,-4.00,-1.00,-1.00,+0.00,+1.00
+13.00,-3.00,-2.00,+0.00,+0.00,+0.00,-2.00,-2.00,+3.00,-3.00,-5.00,-2.00,+0.00,+0.00,+0.00,-9.00
+0.00,-2.00,-1.00,-1.00,+0.00,-1.00,+1.00,+7.00,-4.00,-4.00,-2.00,-1.00,-2.00,-1.00,-2.00,-2.00
+21.00,+4.00,-2.00,-2.00,-2.00,+1.00,+1.00,+8.00,+0.00,+2.00,+6.00,+1.00,+0.00,+2.00,+0.00,-5.00
-5.00,-4.00,-1.00,+1.00,-1.00,+1.00,+1.00,+2.00,-1.00,-1.00,+0.00,+0.00,-2.00,-2.00,-2.00,+6.00
-23.00,-4.00,-2.00,-2.00,-1.00,-2.00,-3.00,-5.00,-2.00,+2.00,+0.00,-1.00,-1.00,+0.00,+0.00,+0.00
-10.00,+0.00,-3.00,-1.00,-2.00,-2.00,-2.00,+0.00,-4.00,-6.00,-6.00,-2.00,-3.00,-2.00,-1.00,+2.00
+3.00,+0.00,+2.00,+0.00,-1.00,+1.00,-1.00,+1.00,-1.00,+2.00,+0.00,+1.00,+0.00,-1.00,+1.00,+3.00
-5.00,-5.00,-3.00,-1.00,-4.00,-5.00,-4.00,-10.00,+2.00,+3.00,-4.00,-1.00,+1.00,+0.00,-2.00,-6.00
-1.00,+0.00,+2.00,+2.00,+1.00,+0.00,+1.00,+7.00,+0.00,-5.00,-3.00,-1.00,-1.00,-1.00,-3.00,-1.00
-1.00,+0.00,+0.00,-1.00,+1.00,-1.00,-1.00,-8.00,-5.00,-1.00,+0.00,+0.00,+0.00,+0.00,-2.00,-3.00
+7.00,+1.00,+4.00,+1.00,+1.00,+0.00,+0.00,+5.00,+2.00,-4.00,-3.00,-1.00,+1.00,-1.00,-4.00,-5.00
+9.00,+1.00,+2.00,-1.00,+1.00,-1.00,-1.00,+3.00,-2.00,-1.00,-4.00,-2.00,-3.00,+0.00,+0.00,+0.00
+6.00,+1.00,-3.00,+0.00,+0.00,-1.00,-1.00,+0.00,+1.00,-2.00,+3.00,+2.00,+1.00,-3.00,-3.00,-6.00
+16.00,+4.00,+0.00,-1.00,-1.00,-1.00,-1.00,-1.00,+1.00,+5.00,+3.00,+0.00,-1.00,-1.00,-2.00,+0.00
-9.00,-4.00,-2.00,+0.00,-2.00,-3.00,-1.00,+1.00,-3.00,-3.00,-5.00,-2.00,-3.00,-2.00,+1.00,+3.00
+16.00,+4.00,+2.00,+1.00,+1.00,+2.00,+2.00,+2.00,-5.00,-7.00,-1.00,-2.00,-1.00,-2.00,-1.00,+1.00
+6.00,+2.00,-1.00,-1.00,-1.00,+0.00,-1.00,-10.00,+1.00,+1.00,-3.00,-2.00,-1.00,-2.00,-1.00,-2.00
-11.00,-6.00,-4.00,-2.00,-1.00,-2.00,-2.00,-3.00,-3.00,+1.00,-1.00,-2.00,-2.00,-2.00,-2.00,-2.00
+13.00,+1.00,-2.00,-1.00,+0.00,+1.00,+0.00,+3.00,-1.00,+1.00,+4.00,+3.00,+1.00,+0.00,+0.00,-4.00
-4.00,-3.00,-3.00,+0.00,+0.00,+0.00,-2.00,-1.00,-3.00,-2.00,-3.00,+0.00,-1.00,-1.00,+2.00,+2.00
+3.00,+2.00,+2.00,-1.00,-2.00,-4.00,-4.00,-6.00,-2.00,-3.00,+1.00,+0.00,-2.00,+0.00,-2.00,+0.00
+4.00,-1.00,+3.00,+1.00,-1.00,-2.00,+1.00,-1.00,+0.00,-1.00,+0.00,-1.00,-2.00,-1.00,-1.00,-1.00
+1.00,-4.00,-6.00,-2.00,+0.00,+1.00,+3.00,+11.00,-4.00,-5.00,-5.00,-3.00,-3.00,-2.00,+1.00,+6.00
-24.00,-3.00,+0.00,-1.00,-2.00,+0.00,+1.00,-8.00,+0.00,-2.00,-2.00,-2.00,-2.00,-1.00,-5.00,-3.00
-5.00,+0.00,+0.00,-1.00,-2.00,+0.00,+0.00,+3.00,-3.00,+0.00,+0.00,-2.00,+0.00,-1.00,-1.00,+0.00
-5.00,+3.00,-1.00,+2.00,+2.00,+1.00,-1.00,-6.00,+3.00,+4.00,+5.00,+0.00,+2.00,+1.00,-1.00,-8.00
+22.00,+0.00,+0.00,+0.00,+0.00,-1.00,+1.00,+5.00,-2.00,-9.00,-15.00,-5.00,-3.00,-3.00,-3.00,-2.00
-11.00,-6.00,-2.00,-1.00,-4.00,-2.00,-1.00,+12.00,-4.00,+0.00,-3.00,-1.00,-2.00,-2.00,-1.00,+2.00
+2.00,-2.00,-1.00,+1.00,+1.00,-1.00,-1.00,+0.00,+0.00,+2.00,+2.00,+0.00,-3.00,-1.00,-2.00,+2.00
+41.00,-4.00,+0.00,-3.00,-2.00,-4.00,-2.00,+12.00,-4.00,-6.00,-6.00,+0.00,-4.00,-1.00,+3.00,+2.00
-2.00,-6.00,-5.00,-2.00,+1.00,-1.00,-2.00,-2.00,-1.00,-2.00,-1.00,-3.00,-1.00,-2.00,+0.00,-4.00
-4.00,+2.00,+0.00,-1.00,+0.00,-3.00,-1.00,+1.00,+1.00,+2.00,+4.00,+2.00,+0.00,+1.00,-2.00,-2.00
+0.00,+0.00,+2.00,-4.00,-1.00,-1.00,-4.00,-3.00,-2.00,-1.00,-3.00,-2.00,-2.00,+1.00,+2.00,+2.00
+2.00,+0.00,+0.00,+0.00,+0.00,+1.00,+0.00,-1.00,-3.00,-3.00,-3.00,-2.00,-2.00,-1.00,-1.00,+5.00
-3.00,+0.00,+1.00,-1.00,-3.00,-1.00,-1.00,-3.00,+0.00,+5.00,+6.00,+2.00,+1.00,-1.00,-7.00,-13.00
-5.00,+2.00,-1.00,+2.00,-1.00,+1.00,+0.00,-13.00,-10.00,-8.00,-7.00,-6.00,-5.00,-3.00,+5.00,+18.00
-21.00,-6.00,-7.00,-4.00,-2.00,-1.00,+1.00,+2.00,-2.00,+1.00,+1.00,+1.00,+1.00,-1.00,-2.00,-3.00
-15.00,+3.00,-1.00,-1.00,-2.00,+1.00,-1.00,-4.00,-1.00,-4.00,-1.00,+0.00,-2.00,-1.00,+0.00,-4.00
-1.00,+0.00,+1.00,-1.00,-2.00,-1.00,+1.00,+7.00,+3.00,+3.00,+2.00,-1.00,+0.00,-1.00,-1.00,+1.00
-11.00,+0.00,+1.00,-1.00,+0.00,-2.00,-2.00,-4.00,+6.00,+2.00,+3.00,+1.00,+1.00,-1.00,-3.00,-9.00
+7.00,+7.00,+5.00,+3.00,+1.00,+1.00,+0.00,+5.00,+0.00,-1.00,+0.00,-3.00,-1.00,-1.00,+0.00,+3.00
-25.00,-6.00,-3.00,-5.00,-2.00,-2.00,+0.00,-4.00,-5.00,+0.00,-1.00,-3.00,-3.00,-2.00,-2.00,+1.00
+16.00,+0.00,-3.00,+2.00,+0.00,+0.00,-3.00,-7.00,+1.00,-5.00,-7.00,-2.00,+1.00,+1.00,-2.00,-1.00
+11.00,+0.00,-1.00,-1.00,-1.00,+0.00,+0.00,+7.00,+0.00,+2.00,+3.00,+2.00,+1.00,-1.00,-2.00,-4.00
-7.00,-1.00,+0.00,+0.00,+0.00,+0.00,-1.00,-2.00,-3.00,-8.00,-10.00,-3.00,+0.00,-2.00,+0.00,+5.00
+21.00,-3.00,-5.00,-3.00,-3.00,-2.00,+0.00,+5.00,+2.00,-1.00,-2.00,-2.00,+0.00,-3.00,-2.00,-2.00
-33.00,-2.00,+1.00,+0.00,+0.00,-1.00,-2.00,-9.00,-4.00,-3.00,-3.00,-4.00,-4.00,-2.00,-2.00,-2.00
-13.00,-3.00,-1.00,-1.00,-1.00,+0.00,-2.00,+2.00,-2.00,-1.00,-1.00,-4.00,+0.00,+0.00,+1.00,-3.00
+3.00,+2.00,-3.00,-1.00,-2.00,-2.00,-1.00,-2.00,-8.00,-3.00,-1.00,-3.00,-2.00,-2.00,+1.00,+13.00
-11.00,-1.00,+0.00,+1.00,+2.00,-1.00,-1.00,-1.00,+1.00,+0.00,-4.00,+0.00,+0.00,+0.00,-2.00,-1.00
+22.00,+0.00,+0.00,-2.00,-2.00,-1.00,-1.00,-2.00,-1.00,-2.00,+0.00,-1.00,+0.00,-1.00,-2.00,-3.00
-8.00,-3.00,-4.00,-2.00,-1.00,-1.00,-1.00,-6.00,-3.00,-3.00,-2.00,-2.00,-1.00,-1.00,-6.00,-7.00
-12.00,-5.00,-1.00,+1.00,-2.00,-4.00,-3.00,-5.00,+2.00,+1.00,+0.00,+1.00,-2.00,+0.00,-1.00,-5.00
-10.00,-3.00,-4.00,+0.00,-3.00,+1.00,-2.00,-2.00,+1.00,+5.00,+1.00,-2.00,-1.00,-1.00,+0.00,+2.00
+1.00,-1.00,-3.00,-1.00,-1.00,-3.00,-1.00,-3.00,-3.00,+2.00,+9.00,+1.00,+1.00,+0.00,+1.00,+3.00
-25.00,+0.00,+2.00,+2.00,+2.00,+0.00,-1.00,-8.00,+3.00,-2.00,-7.00,-2.00,+1.00,+0.00,-1.00,-4.00
-20.00,-8.00,-4.00,-4.00,-2.00,-2.00,-4.00,-9.00,+3.00,+3.00,+2.00,+2.00,+1.00,+2.00,-1.00,-4.00
+0.00,+4.00,+2.00,+1.00,+2.00,-2.00,-3.00,-15.00,-4.00,-3.00,+1.00,-1.00,-1.00,+0.00,-2.00,-1.00
-34.00,-5.00,-1.00,-2.00,-2.00,-2.00,+0.00,+1.00,+4.00,+1.00,-4.00,-1.00,-2.00,-1.00,-1.00,-2.00
+11.00,+1.00,-1.00,-1.00,+1.00,+1.00,+3.00,+8.00,+0.00,+1.00,+2.00,-1.00,-2.00,+0.00,-5.00,-7.00
+7.00,-1.00,-2.00,-2.00,+0.00,-1.00,+2.00,+0.00,-2.00,-2.00,+1.00,-1.00,-3.00,-3.00,-4.00,-5.00
-2.00,-3.00,-1.00,-1.00,-1.00,+0.00,+0.00,+1.00,+2.00,+1.00,-2.00,+1.00,+2.00,-1.00,-4.00,-9.00
+6.00,-1.00,+2.00,+0.00,-2.00,+1.00,-2.00,-2.00,+0.00,+1.00,+3.00,+0.00,-1.00,-1.00,+1.00,-1.00
+9.00,+1.00,+1.00,+1.00,-1.00,+0.00,-1.00,+1.00,+1.00,+0.00,-2.00,+0.00,+0.00,-3.00,-4.00,-6.00
-7.00,-3.00,-1.00,+0.00,+0.00,+0.00,-2.00,-1.00,-1.00,-2.00,-3.00,-3.00,-2.00,-1.00,+0.00,+1.00
-6.00,-4.00,-1.00,-3.00,-3.00,-1.00,-1.00,+2.00,-1.00,+0.00,+0.00,-1.00,-1.00,-1.00,-2.00,-4.00
+5.00,+1.00,-1.00,+0.00,+0.00,+0.00,+0.00,+1.00,-2.00,+1.00,+1.00,+1.00,+0.00,-1.00,-1.00,+1.00
-4.00,-2.00,-1.00,+0.00,-2.00,-3.00,-2.00,+1.00,+1.00,-2.00,+0.00,-1.00,-1.00,-1.00,+0.00,+0.00
+9.00,-1.00,-2.00,-1.00,+0.00,+0.00,-1.00,-1.00,-2.00,+1.00,-4.00,-2.00,+2.00,+1.00,-1.00,-3.00
-15.00,-2.00,-2.00,-2.00,-2.00,-1.00,-2.00,-4.00,-2.00,+0.00,+3.00,-1.00,-1.00,+0.00,+2.00,+2.00
+16.00,+7.00,+5.00,+1.00,-1.00,+1.00,+0.00,+5.00,-3.00,+0.00,-3.00,-1.00,-2.00,-2.00,-5.00,-3.00
+2.00,-3.00,-1.00,-2.00,-2.00,-2.00,-1.00,+0.00,+1.00,+1.00,+1.00,+0.00,+1.00,+0.00,+1.00,+5.00
+1.00,-2.00,-1.00,-1.00,+0.00,+0.00,-1.00,+1.00,+1.00,+1.00,+0.00,+2.00,+1.00,-1.00,-2.00,-1.00
-4.00,+4.00,+1.00,+0.00,+2.00,-1.00,+0.00,+7.00,-3.00,-5.00,-7.00,-4.00,-1.00,-3.00,-1.00,+2.00
-5.00,-3.00,-6.00,-3.00,+0.00,+0.00,+1.00,+3.00,-4.00,-5.00,-4.00,-2.00,-2.00,-1.00,+0.00,-1.00
+33.00,+3.00,+2.00,+0.00,+0.00,+0.00,-3.00,-2.00,-1.00,-2.00,+2.00,+1.00,-1.00,-1.00,+0.00,-3.00
+29.00,+5.00,+1.00,+1.00,+0.00,+1.00,+2.00,+25.00,-1.00,-5.00,-3.00,-3.00,-2.00,-1.00,+1.00,+0.00
-43.00,-11.00,-4.00,-3.00,-6.00,-3.00,-5.00,+0.00,-2.00,+1.00,+0.00,-1.00,+1.00,-1.00,+0.00,-2.00
+3.00,+0.00,+0.00,-1.00,+0.00,-1.00,-1.00,-8.00,+1.00,-4.00,-3.00,+0.00,-2.00,+0.00,+0.00,-1.00
-5.00,+0.00,+0.00,-1.00,+1.00,-1.00,+0.00,+2.00,-6.00,-1.00,+0.00,-1.00,-4.00,-1.00,+1.00,+4.00
+7.00,+1.00,-1.00,-1.00,+1.00,-1.00,+1.00,-4.00,+3.00,+0.00,-1.00,+0.00,-1.00,+1.00,-4.00,-10.00
+15.00,+4.00,+0.00,+0.00,+0.00,-2.00,-1.00,-4.00,-4.00,-4.00,-2.00,-1.00,-2.00,-1.00,-1.00,+11.00
-8.00,-6.00,-3.00,+0.00,-1.00,-2.00,-1.00,+2.00,-1.00,+0.00,+1.00,-1.00,-1.00,-1.00,+2.00,+1.00
-4.00,-1.00,-3.00,-2.00,-1.00,-1.00,-1.00,+3.00,+0.00,+1.00,+3.00,+1.00,-1.00,+0.00,+0.00,-5.00
-9.00,-2.00,+1.00,-1.00,-1.00,-2.00,-1.00,-7.00,-1.00,+1.00,-6.00,-4.00,+1.00,-2.00,+1.00,+0.00
-4.00,-3.00,-1.00,-1.00,-2.00,-2.00,-1.00,-2.00,-1.00,-1.00,+0.00,+0.00,-2.00,+0.00,+0.00,-4.00
+1.00,-2.00,-2.00,-2.00,-4.00,-1.00,-3.00,-7.00,+1.00,+0.00,+1.00,+0.00,+2.00,+1.00,-2.00,-3.00
-4.00,-2.00,-3.00,-4.00,-2.00,+0.00,+2.00,+6.00,-3.00,-1.00,-1.00,-1.00,+1.00,+0.00,-1.00,+0.00
-3.00,-2.00,-1.00,-3.00,+0.00,-1.00,-3.00,-4.00,-2.00,-5.00,-1.00,-2.00,-1.00,-2.00,-3.00,-3.00
-1.00,-2.00,+0.00,+2.00,+2.00,+1.00,+2.00,+3.00,+0.00,+0.00,+0.00,+1.00,-1.00,+0.00,-1.00,-5.00
+42.00,+2.00,-2.00,-2.00,+2.00,+0.00,-1.00,+5.00,-1.00,-2.00,+1.00,+0.00,-2.00,-2.00,-2.00,+1.00
-45.00,-8.00,-1.00,-2.00,-5.00,-5.00,-8.00,-16.00,-3.00,-1.00,-4.00,-3.00,-1.00,-1.00,+0.00,+0.00
-1.00,-1.00,-1.00,-1.00,-5.00,+2.00,+0.00,-5.00,-4.00,+0.00,+3.00,-1.00,-2.00,-2.00,-2.00,+1.00
+6.00,+2.00,+3.00,+0.00,-2.00,-1.00,-1.00,+2.00,+2.00,-1.00,-1.00,+0.00,+1.00,-1.00,+2.00,+1.00
-5.00,-2.00,-3.00,+0.00,+1.00,+0.00,-1.00,+1.00,-2.00,-3.00,-1.00,-2.00,-2.00,-2.00,-2.00,-3.00
+25.00,-3.00,-1.00,-1.00,+0.00,+1.00,+1.00,+9.00,+0.00,-2.00,-3.00,+0.00,-2.00,-1.00,-2.00,-4.00
-10.00,-4.00,+2.00,+2.00,-3.00,-3.00,+1.00,-3.00,-3.00,+2.00,+0.00,+0.00,+0.00,-2.00,-6.00,-6.00
-2.00,+1.00,-1.00,-3.00,+0.00,-2.00,+1.00,-5.00,+1.00,+2.00,-2.00,-2.00,-1.00,+1.00,+0.00,+2.00
-10.00,-1.00,-2.00,+0.00,-2.00,-1.00,-1.00,-3.00,-4.00,-1.00,-4.00,+0.00,-1.00,-1.00,-1.00,-1.00
+15.00,+5.00,+1.00,-1.00,+1.00,+1.00,+1.00,-2.00,+2.00,+0.00,-2.00,-2.00,-2.00,-3.00,-2.00,-1.00
-2.00,-1.00,-1.00,+0.00,-2.00,-1.00,-2.00,+1.00,+4.00,+2.00,+4.00,+0.00,+0.00,-1.00,-2.00,-3.00
+2.00,+0.00,-2.00,-1.00,+0.00,+0.00,-3.00,-8.00,-7.00,-1.00,-6.00,-8.00,-4.00,-3.00,+2.00,+6.00
-26.00,+2.00,+0.00,-1.00,-1.00,-1.00,+1.00,-3.00,-3.00,-4.00,-5.00,-1.00,+0.00,-3.00,-1.00,-1.00
-32.00,-4.00,+1.00,+1.00,+0.00,-1.00,+0.00,-6.00,-2.00,-2.00,-9.00,-3.00,+0.00,-1.00,-1.00,-4.00
-29.00,-2.00,-1.00,-2.00,-1.00,-2.00,-4.00,-18.00,+1.00,-1.00,+5.00,+1.00,-1.00,-1.00,+3.00,+3.00
-1.00,-1.00,+0.00,+2.00,+1.00,-1.00,-1.00,-3.00,+3.00,+0.00,+0.00,+2.00,+0.00,-2.00,-2.00,-2.00
+7.00,-1.00,-1.00,-2.00,+0.00,-1.00,+1.00,+4.00,-1.00,+3.00,+2.00,-2.00,-1.00,-1.00,-2.00,+0.00
-3.00,+2.00,+1.00,-1.00,-2.00,-2.00,+0.00,+2.00,+0.00,-3.00,+1.00,-1.00,-1.00,-2.00,-2.00,-3.00
-2.00,-2.00,-2.00,+0.00,+0.00,+1.00,-1.00,-2.00,-5.00,-3.00,-6.00,-3.00,-5.00,-1.00,-1.00,+1.00
-10.00,-2.00,+1.00,+2.00,+0.00,+0.00,-4.00,-2.00,+2.00,+0.00,+2.00,+2.00,+0.00,+2.00,+1.00,+0.00
-14.00,-3.00,-2.00,-2.00,+0.00,+0.00,-2.00,-11.00,-1.00,-1.00,-1.00,-3.00,-2.00,+0.00,+2.00,+0.00
+26.00,+12.00,+0.00,+0.00,-1.00,+0.00,+1.00,-1.00,+0.00,+4.00,+5.00,+1.00,+0.00,-1.00,-3.00,-2.00
-25.00,-7.00,-4.00,-3.00,-3.00,-2.00,-2.00,-8.00,+0.00,-6.00,-4.00,-1.00,-1.00,-1.00,+1.00,+2.00
-40.00,-7.00,-2.00,-1.00,-3.00,-5.00,-3.00,-14.00,-1.00,-2.00,-2.00,+0.00,-1.00,-2.00,-6.00,-6.00
+10.00,+1.00,+2.00,+0.00,-1.00,-1.00,-1.00,+8.00,+1.00,+1.00,+1.00,+0.00,+0.00,+0.00,-3.00,-3.00
+3.00,-2.00,-4.00,-1.00,+0.00,+0.00,+0.00,+3.00,-2.00,-1.00,-1.00,-2.00,-1.00,+1.00,+1.00,+2.00
+27.00,-1.00,+0.00,+0.00,+0.00,-3.00,-2.00,+7.00,-3.00,-4.00,-1.00,-1.00,-1.00,-2.00,+0.00,-4.00
+34.00,+2.00,-3.00,-2.00,+0.00,+1.00,+3.00,+8.00,-2.00,-4.00,-5.00,-1.00,-1.00,-2.00,-4.00,-4.00
-17.00,-6.00,-1.00,-1.00,-1.00,-1.00,-1.00,-4.00,+4.00,+4.00,-1.00,+2.00,+2.00,+0.00,-2.00,-6.00
-2.00,-2.00,-2.00,-3.00,-3.00,-1.00,-4.00,-7.00,-3.00,+0.00,+3.00,-1.00,-3.00,-3.00,+0.00,+0.00
+5.00,+3.00,+2.00,-1.00,+1.00,+0.00,+3.00,+6.00,+1.00,+1.00,-1.00,-1.00,-1.00,-1.00,-1.00,+0.00
+7.00,-3.00,-1.00,-4.00,-3.00,+0.00,-1.00,+3.00,-1.00,+0.00,-1.00,+0.00,-3.00,-2.00,-4.00,-6.00
+7.00,+1.00,+1.00,+1.00,+0.00,-1.00,-2.00,+1.00,-7.00,-2.00,-3.00,-2.00,-4.00,-3.00,-3.00,+2.00
+3.00,-3.00,-3.00,-1.00,-1.00,-3.00,+1.00,+4.00,-1.00,-3.00,-3.00,-2.00,-2.00,-2.00,+1.00,+11.00
+8.00,+3.00,+0.00,+0.00,-2.00,+0.00,-1.00,+3.00,+1.00,+0.00,+2.00,+1.00,+0.00,-1.00,+0.00,-3.00
-7.00,-3.00,-3.00,+0.00,-2.00,-1.00,-3.00,-8.00,-3.00,-5.00,-4.00,-4.00,-2.00,-2.00,-3.00,-3.00
-9.00,+3.00,+1.00,-2.00,-1.00,+1.00,-1.00,-1.00,+0.00,-2.00,+2.00,+2.00,-1.00,-1.00,+0.00,-2.00
-9.00,-3.00,-1.00,+1.00,-1.00,-1.00,-2.00,-4.00,-2.00,-4.00,-10.00,-4.00,-1.00,-1.00,-1.00,-1.00
+0.00,+1.00,-2.00,-2.00,+0.00,-3.00,+0.00,+1.00,-1.00,+3.00,+1.00,-1.00,-2.00,-2.00,-1.00,+3.00
+4.00,+0.00,+0.00,-3.00,+0.00,-1.00,+1.00,-1.00,-1.00,+1.00,-1.00,-2.00,+1.00,+0.00,+1.00,+2.00
+16.00,+3.00,-1.00,+0.00,+0.00,-1.00,-1.00,+5.00,-2.00,-3.00,+0.00,-1.00,+1.00,-1.00,-1.00,+1.00
-12.00,-7.00,-1.00,-3.00,-3.00,-3.00,-3.00,+0.00,-1.00,-2.00,+6.00,+3.00,+1.00,-1.00,-1.00,-3.00
-8.00,-1.00,-2.00,-2.00,+0.00,+1.00,-1.00,-12.00,+0.00,-3.00,-4.00,-1.00,+0.00,+0.00,-1.00,-1.00
-3.00,+0.00,+4.00,+4.00,-1.00,+0.00,+1.00,+7.00,-3.00,-3.00,-1.00,-1.00,-3.00,-1.00,-1.00,-4.00
+3.00,-4.00,-2.00,-2.00,-2.00,-3.00,-5.00,-8.00,+1.00,+1.00,+0.00,-2.00,-2.00,+0.00,+1.00,+0.00
+2.00,-1.00,-2.00,+0.00,+0.00,+0.00,+1.00,+5.00,+1.00,-1.00,-1.00,-1.00,-1.00,-1.00,-2.00,-4.00
+22.00,+0.00,-2.00,+0.00,+1.00,+2.00,-1.00,+0.00,-1.00,+1.00,-1.00,+0.00,+0.00,-2.00,-5.00,-7.00
-8.00,-3.00,+0.00,-4.00,-1.00,-2.00,+0.00,-2.00,-5.00,-1.00,+2.00,+0.00,-1.00,-3.00,+3.00,+8.00
-1.00,+5.00,+0.00,-4.00,-1.00,-1.00,+4.00,+6.00,+1.00,-6.00,-6.00,-1.00,-1.00,-1.00,+3.00,+2.00
+7.00,-1.00,+0.00,+3.00,+0.00,-1.00,-2.00,+0.00,+5.00,+0.00,-2.00,-1.00,+0.00,+0.00,-2.00,-8.00
-5.00,-4.00,-2.00,+0.00,-2.00,-1.00,-2.00,+2.00,-2.00,+3.00,+0.00,+0.00,-1.00,+0.00,-2.00,+2.00
+21.00,+2.00,-2.00,+2.00,+2.00,+1.00,-2.00,-3.00,+0.00,+0.00,+4.00,-1.00,+0.00,+1.00,-2.00,-3.00
-20.00,-4.00,-4.00,-3.00,-5.00,-4.00,-7.00,-15.00,+0.00,+7.00,+7.00,+4.00,+1.00,+1.00,+1.00,+3.00
+4.00,-2.00,-5.00,-1.00,+0.00,+1.00,+2.00,+6.00,-2.00,-4.00,-7.00,-3.00,+0.00,+1.00,+1.00,+0.00
+1.00,+1.00,+3.00,+0.00,-1.00,-3.00,+0.00,+6.00,-3.00,-2.00,-3.00,-3.00,-3.00,-1.00,+0.00,-1.00
+0.00,-1.00,-3.00,-2.00,-1.00,-2.00,+0.00,+0.00,+1.00,-1.00,+2.00,+0.00,+0.00,-1.00,-1.00,+0.00
+38.00,+0.00,+2.00,+3.00,+2.00,+4.00,+2.00,-1.00,+0.00,-1.00,+1.00,-2.00,-1.00,-2.00,+0.00,-3.00
-37.00,-10.00,-4.00,-2.00,-2.00,-6.00,-8.00,-21.00,-1.00,+2.00,+2.00,+2.00,-1.00,+0.00,-6.00,-9.00
+7.00,+3.00,+2.00,+1.00,+0.00,+0.00,+2.00,+3.00,-4.00,+0.00,+0.00,-4.00,-2.00,-2.00,-1.00,+3.00
+11.00,+6.00,+0.00,+0.00,-1.00,-2.00,+1.00,+4.00,-3.00,-1.00,-1.00,+0.00,+0.00,+0.00,-2.00,-2.00
+8.00,+1.00,+1.00,+1.00,+1.00,+0.00,+2.00,+2.00,-2.00,+0.00,+2.00,-3.00,-2.00,-2.00,-1.00,-5.00
+8.00,+4.00,+3.00,-1.00,-2.00,+0.00,-1.00,+1.00,-2.00,-2.00,-3.00,+0.00,+0.00,-1.00,-2.00,-2.00
-5.00,-1.00,-2.00,-2.00,-2.00,-1.00,+0.00,+7.00,-1.00,-3.00,+2.00,+0.00,-1.00,+0.00,-3.00,-3.00
-6.00,-1.00,+1.00,-2.00,-2.00,+0.00,-2.00,-6.00,+0.00,-1.00,-2.00,-2.00,-3.00,-3.00,-2.00,-2.00
-15.00,-5.00,-3.00,-2.00,+0.00,+1.00,+2.00,+8.00,-3.00,-6.00,-5.00,-1.00,-1.00,-1.00,-3.00,-2.00
+1.00,+3.00,+1.00,-2.00,+0.00,-1.00,-1.00,-6.00,-1.00,+3.00,+3.00,+1.00,-1.00,-1.00,+1.00,+5.00
-11.00,-4.00,-2.00,-1.00,-2.00,-3.00,+0.00,-3.00,+2.00,+0.00,-2.00,+1.00,+1.00,+0.00,-1.00,-6.00
+3.00,+0.00,-1.00,-1.00,-2.00,-2.00,-1.00,+6.00,+4.00,+0.00,+1.00,+2.00,+2.00,+0.00,+1.00,-2.00
-9.00,-2.00,-2.00,-1.00,-1.00,-2.00,-1.00,-2.00,-1.00,-3.00,-6.00,-5.00,-2.00,-1.00,-2.00,-1.00
+5.00,+2.00,+2.00,+0.00,+1.00,+1.00,-2.00,-1.00,+0.00,+3.00,+4.00,-1.00,-1.00,-2.00,-2.00,+0.00
+5.00,+0.00,-6.00,+0.00,+0.00,+1.00,-1.00,-3.00,+1.00,+2.00,+1.00,-1.00,-1.00,-2.00,+0.00,+2.00
-11.00,-3.00,+1.00,-1.00,-2.00,-2.00,-1.00,+5.00,-3.00,-1.00,-1.00,-2.00,-2.00,+0.00,-1.00,+1.00
+9.00,+3.00,-2.00,+2.00,+2.00,-1.00,-4.00,-9.00,-2.00,+0.00,-1.00,+1.00,-1.00,-2.00,-1.00,-4.00
-7.00,+4.00,+1.00,-2.00,+0.00,-2.00,+0.00,+2.00,-5.00,-3.00,+1.00,+1.00,-1.00,-1.00,+0.00,+2.00
+22.00,+2.00,+1.00,+2.00,+1.00,+1.00,+1.00,+14.00,-4.00,-6.00,-8.00,-3.00,-1.00,-2.00,+0.00,+1.00
-18.00,-9.00,-5.00,-3.00,-2.00,-1.00,-4.00,-2.00,-2.00,-1.00,-3.00,-2.00,-1.00,-1.00,+2.00,+0.00
-10.00,-2.00,+0.00,-3.00,-4.00,-3.00,+0.00,+2.00,+0.00,-5.00,+0.00,+1.00,+1.00,+0.00,-2.00,-4.00
+15.00,-3.00,-2.00,-1.00,-1.00,+0.00,+0.00,+6.00,-1.00,-5.00,-3.00,-4.00,-3.00,-1.00,+4.00,+2.00
+25.00,-1.00,+0.00,+1.00,+3.00,-1.00,-1.00,+0.00,+2.00,+10.00,+9.00,+0.00,+0.00,+1.00,+1.00,+5.00
+0.00,+1.00,-1.00,-1.00,+0.00,-2.00,-1.00,+7.00,-1.00,-7.00,-12.00,-5.00,-3.00,-1.00,-2.00,-3.00
+0.00,+0.00,+0.00,+2.00,+2.00,-2.00,+1.00,-1.00,-7.00,-5.00,-4.00,-4.00,-2.00,-2.00,+3.00,+13.00
-2.00,+2.00,-1.00,+0.00,-1.00,+0.00,+0.00,-3.00,+1.00,+2.00,-1.00,-1.00,-1.00,-2.00,-3.00,-5.00
-8.00,+1.00,+1.00,-1.00,-2.00,-1.00,-1.00,+0.00,+1.00,-2.00,+0.00,+0.00,-2.00,+0.00,+0.00,-2.00
-14.00,-3.00,-4.00,-1.00,-2.00,+0.00,-4.00,-7.00,+1.00,-1.00,-2.00,-3.00,+0.00,-1.00,-1.00,-2.00
-9.00,+0.00,+2.00,-1.00,-1.00,-1.00,+1.00,+0.00,+2.00,+1.00,+1.00,-1.00,-2.00,-1.00,+0.00,+0.00
-1.00,-4.00,-4.00,-2.00,+0.00,-3.00,-1.00,-1.00,-6.00,-6.00,-3.00,+0.00,+0.00,-2.00,-2.00,+0.00
-11.00,-3.00,+2.00,+1.00,-1.00,-1.00,-1.00,-2.00,-3.00,-3.00,-4.00,+1.00,-1.00,-1.00,+1.00,+1.00
+10.00,+0.00,-2.00,+0.00,+1.00,+1.00,-2.00,-11.00,-1.00,+0.00,+5.00,+1.00,+1.00,+0.00,+1.00,+0.00
-7.00,-1.00,+2.00,+0.00,-1.00,+1.00,+2.00,+5.00,+1.00,+1.00,-5.00,-2.00,+1.00,-1.00,-3.00,-10.00
+12.00,-1.00,-2.00,-1.00,-1.00,+0.00,+0.00,-1.00,-2.00,-6.00,-5.00,-5.00,-1.00,-2.00,-2.00,+2.00
+0.00,+1.00,-2.00,-1.00,-2.00,-1.00,-1.00,+1.00,-1.00,-1.00,+2.00,+0.00,-1.00,-1.00,-1.00,-6.00
+4.00,-2.00,-2.00,-1.00,+2.00,-1.00,-1.00,+3.00,+2.00,+7.00,-1.00,+1.00,+1.00,+0.00,-1.00,+0.00
+1.00,-2.00,-1.00,-1.00,-2.00,-1.00,-1.00,+3.00,-1.00,+0.00,+4.00,+2.00,-2.00,+0.00,+2.00,+4.00
+1.00,-1.00,+0.00,+0.00,-1.00,+1.00,-1.00,+1.00,+0.00,-8.00,-12.00,-3.00,-1.00,-2.00,+0.00,-2.00
-16.00,-1.00,+0.00,-2.00,-2.00,-3.00,-2.00,-7.00,-6.00,-3.00,-3.00,-2.00,-4.00,-2.00,-1.00,+6.00
-4.00,+0.00,-3.00,-2.00,-1.00,+0.00,+1.00,-3.00,-4.00,-6.00,-7.00,-5.00,-1.00,-1.00,+2.00,+4.00
-3.00,-1.00,+1.00,+2.00,-1.00,-3.00,-3.00,-2.00,+0.00,+0.00,+1.00,+0.00,-1.00,+0.00,-3.00,-4.00
-10.00,-7.00,-1.00,-2.00,+0.00,+0.00,-2.00,-2.00,+0.00,+5.00,+3.00,-1.00,-2.00,-1.00,-2.00,+1.00
-7.00,-5.00,-1.00,+0.00,-1.00,+0.00,-3.00,-11.00,+1.00,-2.00,+0.00,+0.00,-1.00,-2.00,-2.00,-2.00
+2.00,+2.00,-1.00,-2.00,-1.00,-1.00,+1.00,+2.00,+1.00,+1.00,+5.00,+4.00,-1.00,-1.00,-1.00,-3.00
-3.00,-6.00,-5.00,-3.00,-2.00,-1.00,-2.00,-1.00,-2.00,+2.00,-1.00,-2.00,+0.00,-3.00,-2.00,-2.00
-4.00,+1.00,+1.00,+1.00,+0.00,+1.00,+0.00,-1.00,-1.00,-6.00,-3.00,-1.00,-1.00,-2.00,+0.00,-4.00
+16.00,+1.00,+3.00,-3.00,-1.00,-1.00,-2.00,+0.00,+2.00,+2.00,+0.00,-1.00,+0.00,-1.00,-2.00,-4.00
-1.00,+3.00,+2.00,-2.00,-4.00,-1.00,+1.00,-6.00,+0.00,+2.00,+1.00,+0.00,-1.00,-1.00,-1.00,+0.00
+5.00,+0.00,-5.00,-1.00,+0.00,+0.00,+0.00,+1.00,-2.00,-4.00,-2.00,-3.00,-2.00,+0.00,+1.00,-3.00
+6.00,-2.00,-1.00,+0.00,+1.00,-1.00,+0.00,+5.00,+2.00,+2.00,+1.00,+0.00,-1.00,+0.00,+0.00,-1.00
-2.00,+1.00,-2.00,+1.00,+2.00,+2.00,+0.00,-3.00,-3.00,-1.00,+0.00,+0.00,-1.00,-1.00,+0.00,-1.00
-9.00,-8.00,-2.00,-3.00,-5.00,-3.00,-2.00,-9.00,+3.00,-1.00,-4.00,+0.00,+0.00,-1.00,-4.00,-8.00
-1.00,-1.00,+0.00,-1.00,-3.00,-1.00,+0.00,+1.00,-4.00,-7.00,-3.00,-3.00,-2.00,+0.00,+2.00,+2.00
+7.00,+1.00,-2.00,+0.00,-2.00,-2.00,+0.00,+0.00,-1.00,+3.00,+1.00,-1.00,+1.00,+0.00,-1.00,+0.00
-7.00,+0.00,-3.00,-1.00,-1.00,-3.00,+3.00,+0.00,-8.00,-8.00,-5.00,-2.00,+0.00,-1.00,+2.00,+6.00
+10.00,+1.00,-2.00,+0.00,+0.00,+1.00,+0.00,+2.00,-2.00,+1.00,+3.00,+0.00,+0.00,-2.00,-2.00,-4.00
-9.00,-1.00,+2.00,+1.00,+1.00,+2.00,-2.00,-5.00,+4.00,+2.00,+5.00,+3.00,+1.00,-1.00,-2.00,-10.00
-17.00,-7.00,-5.00,-3.00,-4.00,-2.00,-1.00,-3.00,-2.00,-3.00,-7.00,-3.00,-3.00,-2.00,-3.00,-1.00
-12.00,-1.00,+2.00,-3.00,-2.00,-4.00,-4.00,-5.00,+2.00,-3.00,-4.00,-2.00,+0.00,-1.00,-3.00,-4.00
-7.00,+2.00,+2.00,+1.00,+1.00,-2.00,+0.00,+1.00,-3.00,-3.00,+1.00,-1.00,-2.00,-1.00,-1.00,+0.00
-1.00,-2.00,+0.00,-3.00,-2.00,-3.00,-1.00,-3.00,+0.00,+0.00,-1.00,+0.00,+1.00,-1.00,-2.00,+0.00
+3.00,+4.00,+2.00,+0.00,-1.00,+0.00,+1.00,+2.00,+0.00,-1.00,+2.00,+2.00,+2.00,-2.00,+0.00,+0.00
-11.00,-6.00,-4.00,-4.00,-2.00,-2.00,-1.00,-1.00,-1.00,-1.00,+3.00,+1.00,+2.00,-1.00,-3.00,-4.00
+9.00,+3.00,+1.00,+1.00,+1.00,+1.00,+0.00,+3.00,+3.00,+2.00,+0.00,-1.00,+0.00,-1.00,-1.00,-7.00
+3.00,+0.00,-4.00,+0.00,+0.00,+0.00,-2.00,-5.00,-2.00,-2.00,-3.00,+0.00,-2.00,-2.00,-3.00,-2.00
+6.00,+3.00,+1.00,+1.00,+2.00,+2.00,-4.00,-7.00,-6.00,-2.00,+1.00,-2.00,-3.00,-1.00,+3.00,+9.00
-35.00,-5.00,-2.00,-2.00,-4.00,-4.00,-6.00,-36.00,+2.00,+0.00,-3.00,-2.00,-2.00,-1.00,-1.00,-2.00
+5.00,-2.00,+1.00,+0.00,+0.00,+1.00,-1.00,+2.00,-2.00,-2.00,+2.00,+0.00,-1.00,-1.00,-1.00,+1.00
-11.00,-4.00,+0.00,+0.00,-1.00,-2.00,-2.00,+4.00,-1.00,-1.00,-3.00,-1.00,+0.00,-2.00,-2.00,-1.00
+8.00,+1.00,-3.00,-5.00,-1.00,-1.00,+3.00,+5.00,-1.00,-1.00,-2.00,+0.00,-1.00,-2.00,-3.00,-3.00
+7.00,+2.00,-2.00,+0.00,+1.00,+1.00,+0.00,+5.00,+1.00,+1.00,+1.00,+1.00,-2.00,-1.00,+0.00,-4.00
-3.00,+0.00,-2.00,+2.00,+0.00,-3.00,-1.00,+0.00,+2.00,+1.00,+1.00,+1.00,-1.00,+2.00,+0.00,-4.00
+7.00,-1.00,+0.00,-2.00,+0.00,-1.00,-1.00,-4.00,+2.00,-1.00,-6.00,-1.00,-1.00,-1.00,+1.00,+0.00
+22.00,+3.00,+4.00,+2.00,-1.00,-1.00,-3.00,-9.00,+0.00,-1.00,-3.00,-4.00,-3.00,-1.00,-4.00,-5.00
+0.00,+2.00,+1.00,-4.00,+0.00,-1.00,+3.00,+19.00,-3.00,-3.00,-4.00,-2.00,-2.00,-1.00,-2.00,-2.00
-2.00,-2.00,-1.00,-1.00,+0.00,-2.00,-4.00,-3.00,-3.00,-4.00,-3.00,-2.00,-1.00,-2.00,+0.00,+1.00
+2.00,-1.00,-4.00,-1.00,-2.00,+0.00,+0.00,+3.00,-3.00,-3.00,+2.00,+1.00,+0.00,-2.00,+0.00,+1.00
-3.00,-1.00,+2.00,-2.00,+0.00,+0.00,+1.00,+2.00,+0.00,+5.00,+6.00,+1.00,+0.00,-1.00,+0.00,-1.00
+36.00,+2.00,-1.00,+1.00,-1.00,+2.00,+0.00,+1.00,-3.00,-6.00,-6.00,-1.00,-1.00,-1.00,-3.00,-5.00
-27.00,-10.00,-1.00,-1.00,-2.00,-2.00,-1.00,+4.00,-9.00,-6.00,-2.00,-2.00,-2.00,-4.00,+0.00,+8.00
+3.00,+1.00,-2.00,-4.00,+0.00,-2.00,+0.00,+1.00,-1.00,-2.00,-2.00,-4.00,-1.00,+1.00,-1.00,-1.00
-13.00,-1.00,-2.00,+2.00,+0.00,+0.00,+0.00,+0.00,+0.00,-1.00,+2.00,+1.00,+0.00,+1.00,+0.00,-1.00
+14.00,-1.00,-2.00,+0.00,-2.00,+0.00,-2.00,-4.00,-3.00,-1.00,+0.00,-1.00,-2.00,-1.00,-2.00,-2.00
-12.00,+0.00,+0.00,+0.00,+1.00,+0.00,-1.00,-3.00,-4.00,-2.00,-4.00,-3.00,-2.00,-2.00,-3.00,-3.00
+5.00,-3.00,-3.00,-2.00,-1.00,+0.00,+0.00,-4.00,-1.00,-2.00,+0.00,-2.00,-1.00,+0.00,+2.00,+6.00
-3.00,-6.00,-3.00,-3.00,-2.00,-2.00,+1.00,+4.00,+1.00,+1.00,-1.00,-1.00,-1.00,-1.00,-1.00,-2.00
-3.00,+0.00,-2.00,+1.00,+3.00,+2.00,+1.00,+4.00,-5.00,-6.00,-9.00,-4.00,-2.00,+0.00,-2.00,-2.00
+15.00,+2.00,-4.00,-1.00,+2.00,+2.00,+2.00,+13.00,-1.00,-2.00,-2.00,-2.00,-2.00,-1.00,+3.00,+10.00
-35.00,-5.00,-4.00,-5.00,-3.00,-2.00,+0.00,+3.00,-1.00,+1.00,+0.00,+2.00,+0.00,-2.00,-5.00,-8.00
-5.00,-5.00,-2.00,+0.00,+0.00,-1.00,-2.00,-5.00,+1.00,+1.00,-1.00,-1.00,+0.00,-1.00,+0.00,-2.00
-6.00,-3.00,+0.00,-2.00,-3.00,+0.00,+0.00,+1.00,+0.00,+3.00,+2.00,-3.00,+1.00,+0.00,+2.00,+7.00
+6.00,-1.00,+2.00,+1.00,-1.00,+0.00,-2.00,-9.00,+0.00,-9.00,-11.00,-4.00,-2.00,-2.00,-3.00,-2.00
+5.00,+3.00,+4.00,+2.00,+1.00,-1.00,-1.00,+1.00,-2.00,-1.00,+0.00,-1.00,-2.00,-2.00,-3.00,-5.00
+11.00,+1.00,-4.00,-1.00,-1.00,+1.00,-1.00,+6.00,-1.00,+1.00,+2.00,+3.00,+2.00,-3.00,-2.00,-1.00
-17.00,-6.00,+0.00,-3.00,-1.00,-7.00,-4.00,-6.00,-1.00,-1.00,-1.00,-1.00,-1.00,-1.00,+1.00,+6.00
+2.00,-1.00,-2.00,+0.00,+0.00,+0.00,+1.00,+0.00,-1.00,-2.00,+0.00,+0.00,-3.00,+0.00,-2.00,-6.00
+0.00,-3.00,-3.00,-2.00,-1.00,-1.00,+1.00,+2.00,+1.00,+3.00,-1.00,+0.00,+0.00,-1.00,-1.00,+3.00
+1.00,-3.00,-1.00,-2.00,-1.00,-2.00,-2.00,-3.00,-2.00,+0.00,+3.00,-1.00,-1.00,-2.00,-1.00,-4.00
+8.00,+4.00,+2.00,+0.00,+0.00,+1.00,+0.00,-2.00,+1.00,-1.00,-4.00,-1.00,+1.00,-1.00,-3.00,-4.00
+8.00,+3.00,+0.00,-3.00,-1.00,-2.00,-1.00,-1.00,+4.00,+1.00,+2.00,+1.00,+2.00,+1.00,-4.00,-5.00
+15.00,-1.00,-2.00,+1.00,-1.00,+0.00,-1.00,+0.00,-7.00,-7.00,-8.00,-5.00,-3.00,-2.00,-1.00,+2.00
-21.00,-1.00,-2.00,-3.00,-3.00,-2.00,-2.00,-3.00,-1.00,+2.00,+6.00,+1.00,-1.00,+0.00,-1.00,-4.00
-2.00,-1.00,-4.00,-1.00,-1.00,+0.00,+0.00,-2.00,-1.00,-5.00,-6.00,-2.00,-2.00,-1.00,-1.00,+0.00
+2.00,+0.00,+3.00,+0.00,+0.00,+0.00,+0.00,+0.00,+3.00,+4.00,+4.00,+3.00,+2.00,+1.00,+1.00,+0.00
+0.00,+3.00,+4.00,+1.00,+0.00,+0.00,-2.00,-4.00,-4.00,-8.00,-7.00,-5.00,-2.00,-1.00,-2.00,-1.00
-7.00,-2.00,+0.00,-3.00,+0.00,+0.00,+1.00,+5.00,-3.00,-4.00,-8.00,-1.00,-1.00,+0.00,-3.00,-4.00
-1.00,-3.00,-5.00,-3.00,-3.00,-3.00,-2.00,+2.00,+5.00,+6.00,+5.00,+1.00,+1.00,+0.00,+2.00,-2.00
+19.00,+0.00,-1.00,+0.00,+0.00,+0.00,+0.00,+2.00,-1.00,-6.00,+0.00,-1.00,-2.00,-1.00,+0.00,+1.00
-14.00,-4.00,-4.00,-1.00,-1.00,-2.00,-1.00,+0.00,+1.00,-4.00,-7.00,-3.00,-2.00,-1.00,-2.00,-1.00
-5.00,-1.00,+0.00,+1.00,-1.00,+0.00,-3.00,-4.00,-3.00,-5.00,-3.00,-3.00,-3.00,+1.00,+4.00,+13.00
-7.00,-1.00,+2.00,+1.00,-1.00,+0.00,+1.00,+4.00,-1.00,-1.00,+0.00,+1.00,-2.00,+0.00,-2.00,-4.00
-8.00,-4.00,-2.00,+0.00,-3.00,-2.00,-1.00,-3.00,-4.00,+3.00,+1.00,-2.00,+0.00,-2.00,+0.00,-1.00
+6.00,-1.00,-2.00,-1.00,+0.00,+0.00,-2.00,-5.00,+2.00,+4.00,+3.00,-2.00,-1.00,-1.00,+1.00,+5.00
+0.00,-1.00,-2.00,+0.00,-2.00,-2.00,-2.00,-3.00,+0.00,-3.00,+0.00,-1.00,+1.00,-1.00,+0.00,-1.00
-11.00,-4.00,-4.00,+0.00,+1.00,-1.00,-2.00,-4.00,+0.00,+0.00,-1.00,+0.00,-1.00,+0.00,-1.00,-3.00
+1.00,+4.00,+2.00,-1.00,+0.00,-2.00,-3.00,-5.00,+0.00,+0.00,+1.00,+0.00,-1.00,-1.00,-2.00,-1.00
-5.00,-4.00,-1.00,-2.00,-2.00,-1.00,-2.00,-12.00,+2.00,+5.00,+4.00,+2.00,+1.00,-1.00,-1.00,-3.00
+2.00,-2.00,+0.00,+1.00,+1.00,+1.00,-2.00,-1.00,-2.00,-3.00,-7.00,-1.00,-3.00,-1.00,-2.00,-3.00
-8.00,-3.00,-1.00,+0.00,-1.00,+0.00,-2.00,-3.00,-2.00,-5.00,-4.00,-3.00,-1.00,-2.00,-1.00,-1.00
-10.00,-1.00,-1.00,-1.00,+0.00,+0.00,-2.00,-3.00,-3.00,+1.00,-3.00,-2.00,-1.00,-2.00,-2.00,-2.00
-10.00,-1.00,+0.00,-3.00,-3.00,-2.00,+1.00,+0.00,-1.00,+2.00,+0.00,-1.00,-1.00,-2.00,-1.00,-10.00
+6.00,+1.00,-1.00,-1.00,-1.00,-1.00,-1.00,+0.00,+1.00,+3.00,+5.00,+0.00,-2.00,-2.00,+0.00,+4.00
-7.00,-2.00,-4.00,+0.00,-1.00,+1.00,+1.00,-1.00,+0.00,-2.00,-5.00,-3.00,+0.00,-1.00,+1.00,+0.00
+12.00,+0.00,-3.00,-1.00,-1.00,+0.00,-2.00,+1.00,-1.00,-1.00,-1.00,+0.00,-1.00,+0.00,-2.00,-5.00
-41.00,-3.00,+3.00,-1.00,-3.00,-3.00,-5.00,-25.00,-3.00,-3.00,-2.00,+0.00,-1.00,-1.00,-2.00,-1.00
-1.00,-2.00,+1.00,+2.00,-1.00,-1.00,-1.00,-5.00,-6.00,-3.00,-3.00,-1.00,-2.00,+0.00,-1.00,-1.00
+5.00,+1.00,-2.00,-2.00,+0.00,+0.00,+1.00,+5.00,+2.00,+1.00,+2.00,+0.00,+0.00,+0.00,+2.00,+2.00
+8.00,+3.00,+2.00,-2.00,-2.00,+1.00,+0.00,-1.00,+2.00,+1.00,-1.00,-2.00,-2.00,-1.00,-1.00,-2.00
+11.00,+5.00,-2.00,+1.00,+1.00,-2.00,-2.00,+3.00,-5.00,-1.00,-1.00,-1.00,-1.00,-2.00,-3.00,-6.00
-11.00,-2.00,-2.00,-1.00,-2.00,-2.00,+0.00,+3.00,+3.00,-1.00,+1.00,+0.00,+0.00,+0.00,+2.00,+1.00
+1.00,-1.00,+2.00,+0.00,+0.00,-1.00,+0.00,-3.00,+1.00,-1.00,-8.00,-4.00,-2.00,-2.00,-2.00,-1.00
-24.00,-3.00,-1.00,-2.00,+0.00,+0.00,+2.00,+4.00,-3.00,+6.00,+0.00,+1.00,-3.00,-2.00,-2.00,-3.00
+12.00,+2.00,+1.00,+2.00,-3.00,-1.00,+1.00,+2.00,+1.00,+1.00,+0.00,-3.00,-2.00,+1.00,+1.00,+2.00
-3.00,-2.00,+1.00,+0.00,+0.00,-1.00,-1.00,-3.00,-2.00,-1.00,+3.00,+1.00,-2.00,-1.00,-5.00,-6.00
+6.00,+2.00,-1.00,-2.00,-1.00,-1.00,-1.00,+2.00,-1.00,-4.00,-4.00,-2.00,-2.00,-3.00,-3.00,-4.00
-30.00,-6.00,-2.00,-1.00,-1.00,+0.00,-1.00,-9.00,-2.00,-2.00,-2.00,-2.00,-2.00,-1.00,+1.00,+2.00
+3.00,-4.00,-2.00,-3.00,+0.00,+0.00,-2.00,-1.00,-1.00,-3.00,+0.00,+1.00,-1.00,+0.00,+0.00,+2.00
+2.00,+0.00,-1.00,-2.00,-3.00,-1.00,-1.00,-3.00,-7.00,-2.00,+0.00,-2.00,-1.00,-2.00,+0.00,+3.00
+16.00,+2.00,+0.00,+2.00,-2.00,+1.00,+1.00,+10.00,+0.00,+1.00,+3.00,+1.00,-1.00,+0.00,+0.00,+1.00
-3.00,-3.00,-5.00,-3.00,-2.00,-3.00,+0.00,-6.00,-2.00,-3.00,-1.00,-1.00,+0.00,+0.00,-1.00,+3.00
+13.00,+0.00,-2.00,+1.00,+1.00,+2.00,+0.00,+2.00,-3.00,+1.00,-1.00,-1.00,-1.00,-2.00,-1.00,+1.00
-21.00,-3.00,-1.00,-1.00,-2.00,-1.00,-3.00,-12.00,+1.00,-2.00,-6.00,-3.00,+1.00,+2.00,+0.00,-7.00
+12.00,-2.00,+5.00,+2.00,+1.00,-3.00,+0.00,+7.00,-1.00,+1.00,+5.00,+2.00,-1.00,-1.00,-1.00,+0.00
-27.00,-5.00,-3.00,-3.00,-4.00,-3.00,-2.00,-5.00,+0.00,-1.00,-2.00,-2.00,+0.00,-1.00,-1.00,-1.00
+5.00,-2.00,+0.00,+1.00,-1.00,-1.00,+1.00,+9.00,+0.00,+1.00,+4.00,+1.00,+0.00,+1.00,+1.00,-1.00
+11.00,-5.00,-6.00,-4.00,-2.00,-2.00,-1.00,+1.00,+3.00,+1.00,-2.00,-2.00,+0.00,+0.00,+0.00,+3.00
-13.00,-1.00,+1.00,-1.00,-2.00,-1.00,-2.00,-1.00,+0.00,+5.00,+3.00,+1.00,+2.00,-1.00,-3.00,-5.00
+5.00,-1.00,-3.00,-1.00,+3.00,+0.00,-2.00,-1.00,+1.00,-7.00,-3.00,-3.00,-1.00,-1.00,-2.00,-3.00
+9.00,+1.00,+1.00,-2.00,-2.00,-2.00,-5.00,-8.00,-3.00,-2.00,-2.00,+1.00,-3.00,-3.00,-3.00,+0.00
-1.00,+4.00,+3.00,+4.00,+2.00,+1.00,+0.00,-4.00,-4.00,-3.00,-6.00,-1.00,-3.00,-3.00,-4.00,-4.00
-8.00,-4.00,-6.00,-5.00,-2.00,-1.00,-1.00,+0.00,-1.00,-2.00,+1.00,+0.00,+0.00,+0.00,-2.00,-2.00
+15.00,+2.00,+0.00,+0.00,+0.00,-1.00,+0.00,-1.00,+0.00,+3.00,+3.00,-2.00,-2.00,+0.00,-2.00,-3.00
+0.00,-2.00,-5.00,-2.00,-1.00,+1.00,+0.00,+7.00,+1.00,-2.00,-1.00,-2.00,-1.00,-1.00,-3.00,+1.00
-9.00,-2.00,-1.00,-1.00,-1.00,-1.00,-2.00,-5.00,+3.00,+2.00,-3.00,-1.00,+1.00,+0.00,-3.00,-10.00
-1.00,+4.00,+2.00,-1.00,-1.00,-1.00,-2.00,-4.00,-2.00,-1.00,-1.00,-1.00,-2.00,-1.00,+0.00,+1.00
+8.00,-2.00,-1.00,-1.00,-2.00,-1.00,-1.00,+3.00,-2.00,-4.00,-3.00,+1.00,-1.00,-1.00,-1.00,-3.00
-18.00,-4.00,-2.00,-3.00,-4.00,-2.00,+0.00,+2.00,-2.00,-5.00,-3.00,-3.00,-1.00,-2.00,+2.00,-1.00
+7.00,+2.00,-1.00,-1.00,-3.00,-1.00,-1.00,+5.00,-5.00,+0.00,+0.00,-1.00,+0.00,+1.00,-2.00,-1.00
-10.00,-3.00,+2.00,+2.00,+1.00,-1.00,+0.00,-3.00,-2.00,+5.00,+7.00,+2.00,+0.00,-1.00,-2.00,-5.00
-21.00,-1.00,-3.00,-3.00,-1.00,-2.00,-1.00,-10.00,-4.00,-17.00,-20.00,-10.00,-2.00,-3.00,+0.00,+0.00
+7.00,-1.00,-2.00,-1.00,+0.00,-1.00,-1.00,+1.00,-1.00,+3.00,+0.00,-1.00,+0.00,+0.00,+0.00,-1.00
+2.00,+2.00,-2.00,-2.00,-1.00,-1.00,-1.00,+1.00,+2.00,+1.00,+1.00,+0.00,+1.00,+0.00,-2.00,-1.00
-11.00,-4.00,+0.00,+0.00,-1.00,-2.00,-3.00,+1.00,-4.00,+4.00,+3.00,-1.00,+0.00,+0.00,-1.00,+1.00
+5.00,+4.00,+1.00,+0.00,-2.00,+1.00,+1.00,+6.00,-4.00,-4.00,-1.00,+3.00,-1.00,-1.00,-2.00,+2.00
-10.00,-3.00,-2.00,-2.00,-1.00,-1.00,-1.00,+5.00,-1.00,+1.00,+1.00,-1.00,-2.00,-2.00,-3.00,-4.00
-32.00,-5.00,+0.00,-4.00,-3.00,-2.00,-1.00,+2.00,+0.00,-4.00,-8.00,-1.00,-3.00,-3.00,-3.00,+3.00
+6.00,+4.00,+0.00,-3.00,-1.00,+0.00,+2.00,-1.00,-1.00,-7.00,-2.00,-2.00,-1.00,-2.00,+0.00,+0.00
+16.00,+0.00,-4.00,-2.00,+0.00,+0.00,-1.00,+7.00,+2.00,+5.00,+3.00,+1.00,+1.00,-1.00,+1.00,-2.00
-5.00,-3.00,+0.00,+0.00,+0.00,-3.00,+0.00,-1.00,+0.00,+0.00,-1.00,+1.00,+1.00,+0.00,-1.00,-5.00
+7.00,-2.00,+0.00,-2.00,+0.00,+0.00,-1.00,+5.00,-6.00,-2.00,-1.00,-3.00,-3.00,-3.00,+1.00,+4.00
+13.00,+2.00,-5.00,+1.00,+0.00,+0.00,+0.00,-8.00,+2.00,+3.00,+4.00,+1.00,+0.00,+2.00,-5.00,-8.00
+16.00,+2.00,+4.00,+0.00,-2.00,-1.00,+1.00,+5.00,-5.00,-9.00,-11.00,-5.00,-3.00,-1.00,+3.00,+13.00
+1.00,+2.00,+4.00,+0.00,+1.00,+0.00,+1.00,-1.00,+1.00,-1.00,-2.00,-1.00,+1.00,+0.00,+0.00,-1.00
+23.00,+2.00,+0.00,-1.00,+2.00,+1.00,-1.00,-2.00,+0.00,+1.00,+2.00,+1.00,+0.00,-2.00,-1.00,-4.00
+6.00,-1.00,-1.00,-1.00,-2.00,-2.00,+0.00,-1.00,-3.00,-6.00,-7.00,-2.00,-3.00,-3.00,-2.00,-2.00
-3.00,+2.00,+1.00,+1.00,-1.00,-1.00,-4.00,-10.00,+1.00,+4.00,+2.00,+2.00,+0.00,-2.00,-4.00,-1.00
+12.00,+1.00,-3.00,-1.00,-1.00,+0.00,+0.00,-1.00,-2.00,-2.00,-4.00,-5.00,-1.00,+0.00,+3.00,+4.00
+0.00,-5.00,-4.00,-2.00,+0.00,-1.00,-2.00,-1.00,-2.00,-7.00,-9.00,-3.00,-2.00,-2.00,+1.00,+1.00
-9.00,-6.00,-2.00,-3.00,-2.00,-1.00,-3.00,-3.00,-4.00,+0.00,-1.00,-5.00,-1.00,-1.00,+1.00,+3.00
+4.00,-3.00,-2.00,-1.00,-1.00,+1.00,+0.00,+2.00,-4.00,+5.00,+5.00,+3.00,+0.00,-1.00,+3.00,-1.00
-2.00,+4.00,+3.00,+0.00,+0.00,+1.00,-2.00,+2.00,-3.00,+0.00,+1.00,+1.00,-2.00,+0.00,-2.00,-2.00
-10.00,-5.00,+0.00,+0.00,-4.00,-3.00,-3.00,-13.00,-1.00,-2.00,-5.00,-3.00,-3.00,-3.00,-1.00,+2.00
-13.00,-2.00,-3.00,-1.00,-1.00,+2.00,-1.00,-2.00,-2.00,-4.00,-2.00,-2.00,+0.00,-2.00,+0.00,+2.00
-5.00,-3.00,-4.00,-4.00,+0.00,-2.00,-2.00,-1.00,+0.00,+2.00,+2.00,+0.00,-2.00,-1.00,-2.00,-2.00
-10.00,+4.00,+3.00,+0.00,+2.00,+2.00,+3.00,-2.00,+1.00,+0.00,-3.00,+0.00,-1.00,+1.00,-2.00,-1.00
+30.00,+1.00,-1.00,-1.00,+0.00,+0.00,+0.00,+0.00,+2.00,+2.00,+10.00,+1.00,-3.00,-1.00,-2.00,-2.00
+5.00,+3.00,+0.00,-1.00,-1.00,-2.00,+1.00,+4.00,+2.00,-9.00,-17.00,-2.00,-2.00,-1.00,-1.00,-7.00
+6.00,+0.00,+0.00,+0.00,-2.00,-1.00,+0.00,-1.00,-4.00,-4.00,+0.00,-2.00,-2.00,-1.00,-2.00,-2.00
+17.00,+2.00,+0.00,-3.00,-2.00,-1.00,+1.00,+0.00,+0.00,-4.00,-1.00,+0.00,-1.00,-2.00,+0.00,+2.00
+7.00,+4.00,+1.00,-2.00,+0.00,-1.00,+0.00,-2.00,+1.00,+1.00,+3.00,+2.00,+0.00,+2.00,+0.00,-2.00
+0.00,-3.00,+1.00,+0.00,+0.00,+0.00,-1.00,+3.00,-6.00,-5.00,-1.00,+0.00,-3.00,-1.00,+0.00,+10.00
-6.00,-2.00,+0.00,-1.00,+0.00,-2.00,-5.00,-7.00,-1.00,+3.00,+3.00,+0.00,+0.00,+0.00,-2.00,-4.00
+3.00,-2.00,-4.00,+1.00,-2.00,-1.00,-1.00,+1.00,-2.00,-2.00,-7.00,-5.00,-3.00,-1.00,+1.00,+1.00
-9.00,-5.00,-2.00,+1.00,+0.00,+0.00,-1.00,+2.00,-3.00,-1.00,-1.00,-2.00,+0.00,-1.00,-3.00,-3.00
-4.00,-4.00,-3.00,-2.00,-1.00,-3.00,-2.00,-4.00,-3.00,+2.00,+1.00,-4.00,+1.00,-2.00,+2.00,+4.00
-10.00,-4.00,-4.00,-2.00,-1.00,-2.00,+0.00,+3.00,-5.00,-7.00,-7.00,-5.00,-3.00,-2.00,-1.00,-3.00
+5.00,+4.00,+5.00,-1.00,-1.00,+0.00,-3.00,-3.00,+4.00,+2.00,+2.00,+0.00,+0.00,-2.00,+0.00,+2.00
-13.00,-4.00,-3.00,-3.00,-1.00,-1.00,-2.00,-8.00,+2.00,+0.00,+2.00,+0.00,+3.00,+0.00,-1.00,+1.00
+1.00,-1.00,-1.00,-1.00,+0.00,+0.00,+1.00,+1.00,+0.00,+0.00,-2.00,-3.00,+0.00,-2.00,-3.00,-4.00
+4.00,+1.00,-3.00,-1.00,+0.00,+1.00,+1.00,+4.00,+0.00,+3.00,+1.00,+0.00,-1.00,-2.00,-4.00,-3.00
-11.00,-2.00,+0.00,+1.00,+0.00,-2.00,-2.00,-11.00,-2.00,-3.00,-3.00,-2.00,-1.00,-2.00,-2.00,-4.00
+4.00,-4.00,-1.00,+0.00,-4.00,-1.00,-2.00,-1.00,+0.00,-9.00,-6.00,-1.00,-1.00,-1.00,-1.00,+0.00
+3.00,-1.00,-3.00,-1.00,-2.00,+0.00,+0.00,-3.00,+2.00,+3.00,+2.00,+0.00,-2.00,+0.00,+1.00,-3.00
-6.00,-1.00,-1.00,+0.00,+0.00,+0.00,-3.00,-10.00,+0.00,+1.00,-1.00,-3.00,+0.00,-1.00,-1.00,+1.00
-23.00,+1.00,-2.00,-1.00,+0.00,-1.00,+0.00,-4.00,-2.00,-2.00,+0.00,+0.00,-2.00,-1.00,-1.00,-1.00
+2.00,+7.00,+5.00,-2.00,+0.00,-1.00,+4.00,+6.00,-4.00,+1.00,-1.00,+0.00,+0.00,-2.00,+0.00,-1.00
-12.00,-6.00,-3.00,+1.00,+0.00,+1.00,-2.00,-9.00,+0.00,+0.00,+0.00,+0.00,-1.00,+0.00,-1.00,-5.00
+19.00,-4.00,-1.00,+0.00,-2.00,-2.00,+0.00,+3.00,-1.00,+1.00,+1.00,+1.00,-2.00,+0.00,-1.00,-1.00
+13.00,-3.00,-2.00,+1.00,+0.00,+0.00,+1.00,+6.00,-1.00,+5.00,+2.00,+2.00,-1.00,-1.00,-5.00,-5.00
-7.00,-3.00,-5.00,-3.00,+0.00,+0.00,+1.00,+7.00,-2.00,-5.00,-4.00,-2.00,-1.00,-1.00,-1.00,-4.00
-5.00,+5.00,+7.00,+0.00,+0.00,-2.00,-1.00,-4.00,-2.00,-3.00,-2.00,-3.00,-1.00,-1.00,+0.00,+2.00
-7.00,-3.00,-1.00,+0.00,-1.00,-1.00,+0.00,-1.00,+1.00,-4.00,-8.00,-4.00,-2.00,+0.00,+0.00,+2.00
-1.00,-1.00,-1.00,-1.00,+0.00,-1.00,-2.00,-1.00,-4.00,+0.00,+2.00,+0.00,+0.00,+0.00,-2.00,-3.00
-9.00,-1.00,+2.00,+1.00,-1.00,+0.00,+1.00,+12.00,+0.00,-2.00,-3.00,-1.00,-1.00,-2.00,-2.00,-4.00
-1.00,-4.00,-3.00,+0.00,-1.00,-1.00,-2.00,-3.00,-1.00,+2.00,+1.00,+1.00,-2.00,-2.00,-3.00,-2.00
+0.00,+6.00,+3.00,+1.00,-1.00,+0.00,+0.00,+0.00,-1.00,-2.00,+4.00,-1.00,-2.00,-2.00,-3.00,+3.00
-3.00,-1.00,+1.00,+0.00,-3.00,-1.00,-1.00,+3.00,-1.00,-2.00,-1.00,-3.00,-1.00,-2.00,+0.00,+1.00
+4.00,+1.00,-3.00,+0.00,+1.00,-1.00,-1.00,-6.00,-1.00,+2.00,+1.00,-2.00,+0.00,-1.00,+0.00,-3.00
-3.00,-2.00,+1.00,-2.00,-3.00,-1.00,-2.00,+0.00,-6.00,-5.00,-1.00,+1.00,-2.00,-2.00,-2.00,+1.00
+0.00,-3.00,-2.00,-1.00,+1.00,-1.00,-1.00,-1.00,+0.00,-1.00,+2.00,+0.00,+1.00,+1.00,+1.00,-3.00
+29.00,+4.00,+3.00,+1.00,-1.00,+0.00,-1.00,-2.00,+1.00,-1.00,+2.00,+1.00,+0.00,+1.00,-3.00,-3.00
-8.00,-2.00,+2.00,-2.00,-2.00,-3.00,+1.00,-1.00,-1.00,-3.00,-5.00,-4.00,-1.00,-2.00,-1.00,-1.00
-16.00,-2.00,+1.00,-1.00,-1.00,+0.00,+3.00,+3.00,-2.00,-1.00,+1.00,-2.00,-2.00,-2.00,-2.00,-4.00
-3.00,-11.00,-7.00,-1.00,-4.00,-2.00,-2.00,-8.00,-1.00,+1.00,+3.00,+2.00,+0.00,-1.00,+0.00,-2.00
+4.00,+6.00,+1.00,+1.00,+1.00,-1.00,-1.00,-2.00,-5.00,-8.00,-7.00,-6.00,-3.00,-1.00,-2.00,-3.00
+21.00,+1.00,-1.00,+1.00,+2.00,+3.00,-4.00,-5.00,+6.00,+11.00,+5.00,+1.00,+0.00,+2.00,-1.00,+4.00
-7.00,-3.00,-2.00,+0.00,-1.00,-2.00,-1.00,+4.00,-2.00,-3.00,-1.00,-2.00,+4.00,+1.00,+5.00,+4.00
+8.00,-1.00,+0.00,-1.00,-1.00,+1.00,+1.00,+4.00,+0.00,+1.00,-3.00,+0.00,+0.00,-1.00,+0.00,-1.00
-37.00,-14.00,-7.00,-5.00,-3.00,-4.00,-7.00,-14.00,+0.00,+1.00,+0.00,-1.00,+0.00,-1.00,+3.00,+3.00
+7.00,+2.00,+1.00,+0.00,-2.00,+0.00,-1.00,+3.00,-4.00,-11.00,-4.00,-3.00,-5.00,-1.00,+0.00,-3.00
+4.00,+1.00,-1.00,-2.00,-2.00,-2.00,-2.00,-2.00,+3.00,+3.00,+2.00,+0.00,-3.00,-1.00,-2.00,-4.00
-5.00,-1.00,+2.00,+0.00,+1.00,-2.00,+0.00,-3.00,-1.00,+1.00,+0.00,-1.00,-2.00,-1.00,+1.00,+3.00
+0.00,-4.00,-4.00,-2.00,-1.00,-1.00,-1.00,+3.00,+2.00,+1.00,-1.00,+0.00,+0.00,+0.00,-1.00,+0.00
-3.00,+1.00,+1.00,+0.00,-2.00,+0.00,-1.00,+0.00,+2.00,+3.00,+1.00,+2.00,+1.00,-1.00,-2.00,-9.00
+5.00,-3.00,-3.00,-2.00,-2.00,-1.00,-1.00,+1.00,-4.00,-2.00,-1.00,-2.00,-1.00,-2.00,-2.00,+1.00
+6.00,+5.00,+0.00,+0.00,+0.00,+2.00,+2.00,+7.00,+0.00,-1.00,+2.00,+0.00,+0.00,-1.00,+1.00,-3.00
-14.00,-7.00,-4.00,-2.00,-1.00,-4.00,+1.00,-2.00,-2.00,-6.00,-12.00,-6.00,-3.00,-1.00,-2.00,-1.00
-7.00,-3.00,+0.00,+1.00,+0.00,+0.00,+0.00,-4.00,-2.00,+2.00,+4.00,+1.00,-2.00,-3.00,-3.00,-2.00
+18.00,+6.00,+0.00,+2.00,+2.00,+2.00,-1.00,-4.00,-2.00,-2.00,-3.00,-1.00,-1.00,-2.00,-4.00,-2.00
-41.00,-3.00,+2.00,-3.00,-1.00,-2.00,+5.00,+11.00,-5.00,+0.00,-2.00,-1.00,-1.00,-2.00,-1.00,+1.00
+10.00,-1.00,-4.00,-4.00,-2.00,-3.00,-1.00,-5.00,-4.00,-4.00,+1.00,+0.00,-2.00,-1.00,+0.00,-1.00
-2.00,-2.00,-3.00,-2.00,-1.00,-4.00,+0.00,+1.00,+0.00,+4.00,+0.00,-3.00,-2.00,+0.00,+1.00,+6.00
+3.00,+1.00,-3.00,-3.00,-2.00,+0.00,-2.00,-2.00,-2.00,-1.00,-4.00,-3.00,-2.00,+1.00,+2.00,+2.00
+12.00,+1.00,+2.00,+1.00,+0.00,-1.00,-3.00,-1.00,-3.00,-8.00,-9.00,-3.00,-1.00,-2.00,-3.00,-2.00
+2.00,+1.00,-1.00,+0.00,-1.00,+1.00,+1.00,+3.00,+0.00,+1.00,+5.00,+3.00,+0.00,-1.00,-1.00,+2.00
-14.00,+1.00,-1.00,+2.00,-1.00,-1.00,-2.00,-5.00,-3.00,-6.00,-3.00,-2.00,-1.00,-1.00,+0.00,-3.00
-16.00,-4.00,-4.00,-1.00,-3.00,-3.00,-1.00,-1.00,+1.00,+2.00,-2.00,+1.00,-2.00,-2.00,-4.00,-1.00
+9.00,+2.00,-1.00,+0.00,-3.00,-1.00,-1.00,-1.00,+3.00,+1.00,+5.00,-1.00,+0.00,+0.00,-1.00,-5.00
+0.00,-5.00,+0.00,+0.00,+0.00,+0.00,+1.00,-1.00,-3.00,-4.00,-6.00,-2.00,-4.00,-2.00,-3.00,-2.00
-26.00,-2.00,-3.00,-1.00,-3.00,-2.00,-4.00,-5.00,-3.00,-2.00,-3.00,-3.00,-3.00,-1.00,-2.00,-1.00
+0.00,-1.00,-1.00,+0.00,+2.00,+1.00,-1.00,-5.00,+4.00,+0.00,+0.00,+0.00,-1.00,+0.00,+2.00,+1.00
-28.00,-1.00,-2.00,-4.00,-2.00,-2.00,-3.00,-14.00,+0.00,-1.00,-1.00,-1.00,-3.00,-1.00,-4.00,-3.00
+11.00,+0.00,-1.00,+0.00,-1.00,+1.00,+0.00,+5.00,+3.00,+2.00,+3.00,+1.00,+1.00,+1.00,+0.00,-3.00
+11.00,+1.00,+1.00,+0.00,+2.00,+0.00,+0.00,+2.00,-4.00,-2.00,-2.00,+0.00,+0.00,-1.00,-3.00,-1.00
-3.00,+5.00,+4.00,+2.00,+1.00,+2.00,+1.00,+0.00,-2.00,-2.00,+0.00,+1.00,+0.00,-2.00,-4.00,-4.00
-6.00,-10.00,-8.00,-4.00,-3.00,-2.00,-1.00,-3.00,-2.00,-1.00,-1.00,-1.00,-1.00,-1.00,+1.00,+1.00
+4.00,-1.00,+1.00,+2.00,+1.00,-1.00,-1.00,+1.00,+1.00,+3.00,+3.00,+1.00,+2.00,-2.00,-1.00,+4.00
+2.00,-3.00,-3.00,+0.00,-1.00,-2.00,-1.00,+0.00,-4.00,-3.00,-4.00,-2.00,-1.00,-1.00,+2.00,+3.00
-2.00,-4.00,-2.00,-5.00,-1.00,-3.00,-1.00,-3.00,-6.00,+1.00,+2.00,-2.00,+1.00,-1.00,-3.00,-2.00
+23.00,-2.00,-1.00,+1.00,+3.00,-1.00,-2.00,+8.00,+3.00,-1.00,+0.00,+1.00,+0.00,+0.00,-2.00,-2.00
-21.00,-5.00,-2.00,-2.00,-2.00,-3.00,+0.00,-3.00,-8.00,-5.00,-4.00,-3.00,+0.00,-3.00,+2.00,+11.00
+2.00,+4.00,+2.00,+0.00,-1.00,+2.00,-1.00,+0.00,+2.00,-2.00,+1.00,+1.00,+0.00,-1.00,-1.00,-3.00
+6.00,-2.00,+1.00,-1.00,-3.00,-1.00,+0.00,+0.00,-2.00,-4.00,-6.00,-1.00,-1.00,-1.00,-1.00,-3.00
+5.00,+1.00,+1.00,+2.00,-1.00,-1.00,-3.00,-3.00,-3.00,+3.00,+3.00,+1.00,-2.00,+0.00,+0.00,+2.00
-3.00,-3.00,-2.00,-1.00,-1.00,-1.00,-2.00,-1.00,-3.00,-3.00,-2.00,-1.00,-1.00,-3.00,-3.00,-5.00
-6.00,-3.00,+0.00,-3.00,-2.00,-3.00,+0.00,+1.00,-2.00,+2.00,-1.00,-2.00,+0.00,-2.00,-3.00,-2.00
+2.00,+1.00,-1.00,+1.00,+0.00,-3.00,-1.00,-2.00,-1.00,-3.00,+3.00,-2.00,-1.00,-1.00,-1.00,+0.00
+5.00,+1.00,+1.00,-1.00,+0.00,+0.00,+3.00,+3.00,+2.00,-2.00,-3.00,+0.00,-1.00,-1.00,-3.00,-4.00
-34.00,-5.00,-2.00,-2.00,-2.00,-3.00,-5.00,-14.00,+1.00,+2.00,+0.00,+3.00,-1.00,-2.00,-1.00,-6.00
-28.00,-3.00,+1.00,+0.00,-3.00,-1.00,-2.00,-6.00,+1.00,-2.00,-2.00,-1.00,-1.00,-3.00,+0.00,-3.00
+24.00,+1.00,-3.00,+0.00,+1.00,+2.00,+1.00,+8.00,-1.00,+2.00,+3.00,+0.00,-1.00,-2.00,-1.00,-3.00
-2.00,+0.00,-2.00,-1.00,-2.00,+0.00,+0.00,+0.00,-4.00,-6.00,-3.00,-4.00,-1.00,-1.00,-1.00,-1.00
+9.00,+1.00,+0.00,+0.00,-2.00,+2.00,-1.00,-1.00,+1.00,+0.00,-2.00,-2.00,-2.00,+1.00,+0.00,-1.00
+18.00,+0.00,+0.00,-2.00,-1.00,-1.00,-1.00,+2.00,-2.00,+8.00,+6.00,+0.00,+0.00,-2.00,-4.00,-2.00
-2.00,-1.00,+0.00,-2.00,-3.00,-2.00,-2.00,+5.00,+1.00,-15.00,-15.00,-1.00,+0.00,-2.00,-1.00,-4.00
+0.00,-4.00,-4.00,-1.00,-1.00,-2.00,-2.00,+2.00,-2.00,+3.00,+2.00,-1.00,+0.00,-2.00,+1.00,-1.00
+10.00,+2.00,-2.00,-1.00,+0.00,+1.00,-1.00,+5.00,-4.00,-2.00,-2.00,-2.00,-3.00,-2.00,+2.00,+8.00
+5.00,-3.00,-2.00,+0.00,+1.00,+0.00,+0.00,+2.00,+3.00,+0.00,-1.00,+0.00,+0.00,+0.00,-1.00,+0.00
+0.00,+2.00,+0.00,+0.00,+0.00,-1.00,+0.00,+3.00,+1.00,+3.00,+6.00,+1.00,-1.00,+0.00,-3.00,-1.00
+10.00,+2.00,-1.00,-3.00,-2.00,-1.00,+0.00,-2.00,-9.00,-7.00,-7.00,-6.00,-4.00,-3.00,-2.00,+4.00
-9.00,+0.00,+0.00,+2.00,-2.00,-2.00,+0.00,-3.00,+0.00,-2.00,-2.00,-1.00,+1.00,+0.00,-1.00,-9.00
-3.00,-5.00,-7.00,-2.00,+1.00,-1.00,+0.00,-3.00,-5.00,-3.00,+1.00,+2.00,-2.00,-1.00,-2.00,-2.00
-7.00,-5.00,+2.00,-2.00,-1.00,-4.00,-4.00,-6.00,-1.00,+3.00,+1.00,-1.00,-1.00,+0.00,+1.00,-1.00
-5.00,-1.00,+0.00,+0.00,+0.00,+0.00,+0.00,-5.00,+2.00,+0.00,-3.00,+0.00,-1.00,+0.00,-3.00,-2.00
+5.00,+1.00,+0.00,+0.00,+1.00,+1.00,+1.00,+3.00,-2.00,-3.00,-2.00,-2.00,-2.00,-2.00,-3.00,-4.00
+3.00,+1.00,+0.00,-1.00,-3.00,-1.00,+1.00,+3.00,-2.00,-3.00,-4.00,-1.00,-4.00,-1.00,+0.00,+2.00
-5.00,-5.00,-5.00,-4.00,-2.00,-2.00,-4.00,-3.00,-6.00,+0.00,+1.00,-2.00,-2.00,+1.00,+0.00,+1.00
+15.00,+4.00,+2.00,+0.00,-2.00,-1.00,-1.00,-1.00,+4.00,+3.00,+4.00,+3.00,+2.00,-1.00,-2.00,-5.00
+12.00,+3.00,+2.00,+0.00,-1.00,-2.00,-3.00,-3.00,-2.00,-2.00,-3.00,-1.00,+0.00,-2.00,-2.00,-4.00
-16.00,-2.00,+1.00,-2.00,-1.00,-2.00,-1.00,-9.00,-1.00,-4.00,-2.00,-1.00,+0.00,-1.00,+0.00,+3.00
-7.00,-3.00,-4.00,-1.00,-1.00,+0.00,+1.00,-3.00,-3.00,-3.00,-3.00,+0.00,-1.00,-2.00,-1.00,-2.00
+6.00,+8.00,+5.00,+1.00,+0.00,+0.00,+3.00,+5.00,+2.00,+7.00,+6.00,+0.00,+1.00,-1.00,-2.00,+0.00
-3.00,+1.00,-1.00,-3.00,-1.00,+0.00,+0.00,-8.00,-1.00,-1.00,+2.00,-2.00,-1.00,+0.00,-4.00,-5.00
+5.00,+0.00,-4.00,+1.00,-2.00,-1.00,-2.00,+3.00,+0.00,-4.00,-5.00,-4.00,+0.00,+0.00,+2.00,+3.00
-3.00,+2.00,+0.00,+5.00,+1.00,+1.00,+1.00,+1.00,-1.00,-1.00,+2.00,-1.00,+0.00,-1.00,-5.00,-6.00
-5.00,-2.00,-1.00,+1.00,+0.00,-1.00,-2.00,-1.00,-4.00,-3.00,-4.00,-4.00,-1.00,+0.00,+1.00,-1.00
+3.00,-4.00,+0.00,-2.00,-1.00,+0.00,+1.00,+2.00,+2.00,+2.00,+5.00,+0.00,+0.00,-1.00,-3.00,-7.00
-4.00,-3.00,-4.00,-1.00,+1.00,-1.00,-2.00,+0.00,-8.00,-6.00,-6.00,-7.00,-4.00,+0.00,+4.00,+12.00
+8.00,+2.00,-1.00,-2.00,-1.00,-1.00,+1.00,+2.00,+1.00,-1.00,-4.00,-3.00,-1.00,+1.00,-1.00,-2.00
-2.00,-2.00,-2.00,-1.00,-1.00,-1.00,-4.00,-6.00,+0.00,+4.00,+4.00,+1.00,+0.00,-1.00,-1.00,-2.00
-19.00,-3.00,-1.00,-1.00,-1.00,-2.00,-3.00,+1.00,-3.00,-11.00,-13.00,-5.00,-3.00,-1.00,+1.00,+2.00
+4.00,+4.00,+0.00,-2.00,-1.00,+0.00,-1.00,-5.00,+1.00,+5.00,+7.00,+1.00,+0.00,-2.00,-4.00,-9.00
+14.00,+2.00,+0.00,-1.00,+1.00,+2.00,+1.00,+7.00,+1.00,-4.00,-3.00,+0.00,-1.00,-1.00,-1.00,+1.00
-11.00,-4.00,-3.00,-2.00,-1.00,-1.00,+1.00,-1.00,-1.00,+0.00,-3.00,+0.00,+0.00,-1.00,-1.00,+1.00
+4.00,+0.00,-1.00,-3.00,-2.00,-1.00,+1.00,+4.00,+0.00,+2.00,+5.00,+2.00,+1.00,+1.00,+0.00,-1.00
+5.00,+2.00,+4.00,+2.00,+1.00,+2.00,+1.00,+0.00,+1.00,-2.00,-2.00,+0.00,-1.00,-2.00,-4.00,-5.00
-19.00,-3.00,-7.00,-3.00,-3.00,-2.00,+1.00,-4.00,-1.00,+1.00,+0.00,-4.00,-2.00,-1.00,+1.00,+3.00
-11.00,-7.00,-2.00,-2.00,-2.00,+1.00,-2.00,-3.00,-1.00,-4.00,-3.00,-1.00,+1.00,+0.00,+0.00,-4.00
+12.00,-2.00,-3.00,+1.00,+1.00,-2.00,-1.00,+0.00,-5.00,-1.00,-3.00,+0.00,-2.00,-3.00,+3.00,+12.00
+9.00,-4.00,-2.00,-1.00,+0.00,-2.00,+1.00,+3.00,-3.00,-1.00,+0.00,+0.00,-1.00,-3.00,-1.00,-1.00
+8.00,+2.00,+3.00,+0.00,-1.00,-1.00,-3.00,-1.00,-3.00,+6.00,+3.00,-2.00,-1.00,-2.00,+0.00,+1.00
-7.00,+3.00,+0.00,-1.00,+0.00,-2.00,-3.00,-10.00,-3.00,-4.00,-5.00,+0.00,-3.00,-1.00,-1.00,+0.00
+25.00,+0.00,-1.00,-2.00,-2.00,+0.00,-2.00,+3.00,+2.00,-1.00,-3.00,-2.00,+0.00,+1.00,-2.00,-2.00
-6.00,-4.00,-2.00,-2.00,-2.00,-1.00,+0.00,+0.00,-2.00,-1.00,+0.00,-2.00,-1.00,-1.00,-1.00,-2.00
-13.00,-7.00,-4.00,-4.00,-1.00,-1.00,-2.00,-4.00,-3.00,+1.00,+3.00,+0.00,+1.00,+0.00,+0.00,+1.00
+6.00,+4.00,-2.00,-1.00,-3.00,-2.00,-1.00,+1.00,-3.00,-6.00,+1.00,+0.00,+0.00,-1.00,-1.00,-3.00
+15.00,+2.00,+0.00,-1.00,+3.00,+0.00,+2.00,+9.00,-1.00,-1.00,-3.00,-2.00,-1.00,+0.00,-2.00,-3.00
+4.00,+3.00,+3.00,+0.00,+0.00,+0.00,+0.00,+0.00,+0.00,+1.00,+0.00,+1.00,+0.00,+0.00,-1.00,-3.00
+16.00,+1.00,+1.00,-1.00,-2.00,+0.00,-2.00,-5.00,+0.00,-2.00,-3.00,-1.00,-1.00,-2.00,-1.00,+0.00
-11.00,-6.00,-3.00,-2.00,+0.00,-2.00,-1.00,+5.00,-3.00,-1.00,-2.00,-1.00,+0.00,-2.00,-1.00,-2.00
-19.00,-2.00,-3.00,+0.00,-1.00,-2.00,+0.00,+2.00,-2.00,+1.00,+3.00,+1.00,-3.00,-1.00,-3.00,-3.00
+6.00,+2.00,+2.00,-2.00,-2.00,-2.00,-1.00,-1.00,-1.00,-5.00,-1.00,-3.00,+1.00,+0.00,-3.00,-6.00
-1.00,+1.00,+1.00,+3.00,+1.00,+0.00,+0.00,+7.00,-2.00,-4.00,-5.00,-3.00,-3.00,+0.00,+2.00,+7.00
+11.00,+1.00,-1.00,+0.00,-2.00,+1.00,+0.00,-3.00,+0.00,-2.00,-2.00,+0.00,-1.00,-2.00,-1.00,-2.00
-9.00,-4.00,+2.00,+1.00,-1.00,-2.00,+0.00,-2.00,+0.00,+1.00,+6.00,+2.00,-2.00,-2.00,-4.00,-2.00
-8.00,-3.00,-5.00,-2.00,-2.00,-1.00,-2.00,-5.00,-3.00,-4.00,-6.00,-4.00,-1.00,-2.00,-1.00,-2.00
-9.00,-3.00,-2.00,+0.00,+0.00,-1.00,-3.00,-4.00,+2.00,-3.00,-5.00,+1.00,-1.00,-2.00,-1.00,-4.00
-5.00,-2.00,+0.00,-3.00,-3.00,-3.00,-4.00,-3.00,+0.00,-1.00,+0.00,-2.00,+1.00,+1.00,-1.00,-3.00
-9.00,+4.00,+2.00,+1.00,+0.00,+1.00,-1.00,-5.00,+0.00,+1.00,+1.00,-2.00,-2.00,+0.00,+2.00,+0.00
-3.00,+2.00,+2.00,+0.00,-2.00,+0.00,-1.00,-1.00,-1.00,+2.00,+3.00,+1.00,+0.00,-1.00,-1.00,+1.00
-1.00,-4.00,-3.00,-1.00,-1.00,+0.00,-2.00,-3.00,-3.00,-1.00,+0.00,+1.00,+1.00,-2.00,-2.00,-2.00
+12.00,+0.00,-3.00,-1.00,-1.00,-1.00,-3.00,-6.00,-2.00,+1.00,-1.00,-2.00,-1.00,-1.00,-2.00,-1.00
-10.00,-2.00,+2.00,+0.00,-2.00,+0.00,-1.00,+2.00,+1.00,-4.00,+0.00,-2.00,+1.00,-1.00,-3.00,-10.00
+9.00,+0.00,-4.00,-1.00,+1.00,+1.00,+0.00,+1.00,+2.00,+1.00,-1.00,-4.00,-1.00,+2.00,+1.00,+5.00
-3.00,-2.00,+0.00,-2.00,-2.00,-2.00,-1.00,-2.00,-7.00,-8.00,-3.00,-5.00,-1.00,+1.00,+3.00,+10.00
+1.00,+0.00,+0.00,+1.00,+1.00,+1.00,-1.00,-6.00,-2.00,+1.00,+0.00,-2.00,-3.00,-2.00,-2.00,-2.00
-13.00,+2.00,+0.00,-1.00,-2.00,-3.00,-1.00,-2.00,+0.00,+2.00,-1.00,+2.00,-1.00,+0.00,+0.00,-1.00
+0.00,-2.00,-3.00,-1.00,-1.00,-1.00,-2.00,-4.00,-1.00,-6.00,+1.00,+2.00,-2.00,-2.00,-1.00,-3.00
-34.00,-6.00,-4.00,-4.00,-2.00,-4.00,-3.00,-11.00,+3.00,+2.00,+0.00,+2.00,-1.00,+0.00,-2.00,-6.00
+3.00,+6.00,+4.00,+1.00,+0.00,-1.00,+0.00,+3.00,+0.00,-7.00,-6.00,-3.00,-3.00,-1.00,-2.00,-3.00
+7.00,-3.00,-3.00,+0.00,-2.00,-1.00,-1.00,+1.00,+1.00,+2.00,-2.00,-4.00,+1.00,+0.00,+2.00,+6.00
-7.00,-5.00,-3.00,-5.00,-2.00,-4.00,-4.00,-2.00,-1.00,-2.00,+0.00,+0.00,+0.00,-2.00,-1.00,-2.00
+29.00,+7.00,+2.00,+2.00,+2.00,+3.00,+2.00,+6.00,-1.00,+1.00,+0.00,+3.00,+0.00,-1.00,-2.00,-3.00
-1.00,-5.00,-6.00,-1.00,+1.00,+0.00,+3.00,+9.00,-1.00,+3.00,+1.00,-1.00,-1.00,-2.00,-3.00,-5.00
-25.00,-5.00,-1.00,+0.00,-1.00,+0.00,+1.00,-11.00,-4.00,+0.00,-5.00,-2.00,-2.00,-2.00,-3.00,-5.00
-2.00,-3.00,-3.00,-1.00,+0.00,-3.00,+0.00,-4.00,-1.00,-1.00,-4.00,-1.00,+0.00,+1.00,+1.00,+1.00
+8.00,+7.00,+7.00,-1.00,+1.00,+0.00,+0.00,+0.00,-2.00,+1.00,+3.00,+1.00,-1.00,+0.00,+0.00,-1.00
+3.00,+4.00,+3.00,+1.00,+0.00,-1.00,+0.00,-1.00,+2.00,-2.00,-2.00,-2.00,+1.00,+0.00,+0.00,+2.00
+5.00,-2.00,-3.00,-2.00,-1.00,+0.00,+0.00,+6.00,+1.00,+1.00,-1.00,-1.00,+2.00,+0.00,+2.00,+1.00
+3.00,-2.00,+1.00,+0.00,-1.00,+1.00,+0.00,+1.00,-4.00,-5.00,-4.00,-2.00,-2.00,-1.00,+1.00,+0.00
-3.00,-4.00,-4.00,-1.00,+0.00,-2.00,-3.00,-4.00,-5.00,-1.00,+1.00,+0.00,-1.00,+0.00,+0.00,+3.00
+5.00,-3.00,+1.00,+0.00,+1.00,+0.00,+0.00,+1.00,-1.00,-1.00,+6.00,+1.00,-1.00,-1.00,+1.00,-2.00
-12.00,-2.00,-3.00,-3.00,-3.00,-2.00,-2.00,-15.00,-4.00,-10.00,-10.00,-4.00,-2.00,-2.00,-2.00,-3.00
+3.00,-3.00,+0.00,-1.00,-2.00,-1.00,-1.00,+0.00,+0.00,+2.00,+0.00,+0.00,-1.00,-1.00,-4.00,-1.00
-26.00,-4.00,-2.00,-2.00,-1.00,-1.00,+0.00,+5.00,-1.00,-1.00,-2.00,-1.00,-1.00,-2.00,-2.00,-5.00
-8.00,+1.00,+0.00,-1.00,-2.00,-1.00,-1.00,-1.00,-2.00,+3.00,+2.00,+0.00,-2.00,-2.00,-1.00,+0.00
+16.00,-3.00,-4.00,-4.00,-2.00,-1.00,-2.00,-2.00,-3.00,+1.00,+5.00,-1.00,+1.00,+0.00,-2.00,-4.00
+0.00,+2.00,+1.00,+1.00,+0.00,-1.00,+0.00,+5.00,-1.00,-2.00,-3.00,-3.00,-2.00,-2.00,-2.00,-2.00
+6.00,-3.00,-3.00,-2.00,-2.00,+1.00,+1.00,-3.00,-2.00,-2.00,-2.00,-4.00,-2.00,-1.00,+0.00,+2.00
-35.00,-4.00,-4.00,-2.00,-1.00,-4.00,-6.00,-7.00,+1.00,+0.00,-2.00,-2.00,+0.00,+0.00,-2.00,-3.00
+1.00,+2.00,-1.00,-2.00,+0.00,+0.00,-2.00,-4.00,-7.00,-4.00,+1.00,-3.00,-3.00,-3.00,+0.00,+0.00
+7.00,+7.00,+4.00,+2.00,-1.00,+1.00,+2.00,+4.00,+4.00,-4.00,-10.00,-3.00,-1.00,+1.00,+1.00,+1.00
-7.00,-8.00,-2.00,-3.00,-1.00,-2.00,-5.00,-12.00,+1.00,+3.00,+0.00,+0.00,+0.00,+0.00,-1.00,-2.00
-41.00,-4.00,+0.00,-2.00,-2.00,-3.00,-4.00,-11.00,-4.00,-6.00,-4.00,-2.00,-2.00,-2.00,-1.00,+1.00
+15.00,-1.00,-7.00,+0.00,-1.00,-2.00,+0.00,+5.00,+2.00,+3.00,+2.00,+1.00,+0.00,-1.00,-3.00,-2.00
-7.00,-2.00,-3.00,-1.00,-2.00,-1.00,-2.00,-2.00,+0.00,+3.00,+5.00,+2.00,-1.00,-1.00,+1.00,+0.00
+1.00,+1.00,+1.00,+0.00,+0.00,+0.00,+0.00,+1.00,+2.00,-1.00,+2.00,+0.00,+0.00,-1.00,+0.00,-5.00
+12.00,-2.00,+0.00,-1.00,-1.00,+0.00,+1.00,+3.00,-4.00,-6.00,-11.00,-4.00,-3.00,-2.00,+2.00,+10.00
+9.00,+0.00,-1.00,-1.00,+1.00,+0.00,-1.00,+1.00,+5.00,-5.00,-1.00,+2.00,+0.00,+0.00,-7.00,-13.00
-12.00,-2.00,-1.00,+0.00,+1.00,-1.00,+3.00,+8.00,-2.00,-2.00,+0.00,-3.00,-2.00,-2.00,+1.00,+2.00
-2.00,-1.00,+0.00,-1.00,+0.00,-2.00,+0.00,+2.00,+1.00,-1.00,-2.00,-2.00,-1.00,+0.00,-1.00,-6.00
+11.00,-2.00,-2.00,-3.00,+0.00,-1.00,-2.00,-1.00,+1.00,+5.00,+3.00,+2.00,-1.00,+0.00,+0.00,-3.00
+12.00,+4.00,+4.00,+2.00,+1.00,+1.00,+0.00,+7.00,-3.00,+2.00,+0.00,+0.00,-2.00,-2.00,+0.00,-2.00
+8.00,+3.00,+0.00,+0.00,+0.00,-1.00,-2.00,-2.00,-3.00,+1.00,+1.00,-1.00,-1.00,-1.00,-2.00,-1.00
-1.00,-1.00,-1.00,-3.00,+0.00,-1.00,-1.00,+1.00,-1.00,-3.00,-5.00,-2.00,-1.00,+0.00,-4.00,-1.00
+3.00,-1.00,+0.00,-2.00,-2.00,-1.00,-2.00,-9.00,-1.00,+0.00,+2.00,-1.00,+4.00,+0.00,-2.00,+1.00
+5.00,+0.00,+1.00,-2.00,-2.00,+0.00,-3.00,-1.00,-3.00,-2.00,-4.00,-3.00,+2.00,-3.00,-1.00,+1.00
-19.00,-3.00,-3.00,-1.00,-2.00,-1.00,-1.00,+9.00,-3.00,-4.00,-3.00,-2.00,+0.00,+0.00,-2.00,-6.00
+3.00,+2.00,+2.00,-1.00,-2.00,-1.00,+2.00,+2.00,-2.00,+0.00,+0.00,-2.00,-2.00,-2.00,-1.00,-1.00
+12.00,+1.00,-2.00,+0.00,-1.00,-1.00,+0.00,+1.00,+0.00,+0.00,+0.00,+0.00,-3.00,+1.00,+0.00,-4.00
-3.00,+0.00,-1.00,-1.00,+0.00,-1.00,-1.00,-3.00,+0.00,+5.00,+4.00,-2.00,-1.00,+0.00,+0.00,-2.00
-10.00,-4.00,+0.00,+0.00,+1.00,+0.00,-3.00,-10.00,-2.00,-11.00,-6.00,+1.00,+0.00,-2.00,-1.00,-2.00
+66.00,+3.00,-1.00,+3.00,+0.00,+2.00,+1.00,+8.00,-1.00,-5.00,-8.00,-5.00,-2.00,-2.00,-6.00,-10.00
-30.00,-2.00,+1.00,-3.00,-3.00,+0.00,+0.00,-4.00,+0.00,-1.00,-2.00,+0.00,-3.00,-3.00,-1.00,+1.00
-9.00,-3.00,-4.00,+0.00,+1.00,-4.00,-4.00,-14.00,+1.00,+1.00,+1.00,-1.00,+0.00,-1.00,+2.00,+3.00
+1.00,+6.00,+1.00,-3.00,-1.00,+0.00,+1.00,+0.00,-3.00,+4.00,+7.00,+1.00,+1.00,+0.00,-1.00,-2.00
-5.00,-2.00,-2.00,+0.00,-1.00,-1.00,+0.00,+1.00,+0.00,-5.00,-2.00,-1.00,+0.00,-1.00,+1.00,+0.00
+2.00,-6.00,-1.00,+0.00,-1.00,-1.00,-1.00,+4.00,+5.00,+1.00,-2.00,-1.00,+1.00,+0.00,-3.00,-10.00
-1.00,+3.00,+4.00,+1.00,+1.00,+0.00,-1.00,+5.00,-8.00,-6.00,-5.00,-5.00,-6.00,-2.00,+4.00,+15.00
+10.00,-4.00,-3.00,-1.00,+1.00,+1.00,-1.00,-6.00,+0.00,+0.00,-3.00,-2.00,-1.00,-1.00,-2.00,-1.00
-13.00,+0.00,+0.00,+1.00,+0.00,-1.00,-3.00,-3.00,-4.00,-1.00,+2.00,+0.00,-1.00,-1.00,+2.00,+0.00
+16.00,+3.00,-1.00,+1.00,+0.00,-1.00,+0.00,+3.00,-2.00,-2.00,-3.00,-2.00,-2.00,+0.00,-1.00,-1.00
+11.00,+2.00,+3.00,-1.00,+1.00,-1.00,+1.00,+3.00,+5.00,+7.00,+4.00,+1.00,+0.00,+0.00,+0.00,-3.00
+24.00,-1.00,-2.00,-1.00,-2.00,-3.00,-4.00,-3.00,-1.00,-5.00,-6.00,+0.00,-1.00,-2.00,-2.00,-3.00
-11.00,-2.00,-4.00,-2.00,-1.00,-1.00,+0.00,+0.00,+0.00,+3.00,+5.00,+1.00,-1.00,+0.00,+0.00,+0.00
-3.00,-1.00,-3.00,-3.00,-1.00,+0.00,+0.00,+1.00,-3.00,-2.00,-1.00,-1.00,-4.00,+0.00,-1.00,-2.00
+5.00,-4.00,-2.00,-3.00,-3.00,+1.00,+1.00,+1.00,-2.00,-3.00,-3.00,-2.00,-2.00,+0.00,-2.00,-3.00
-1.00,+0.00,+0.00,+2.00,+0.00,-1.00,-1.00,-3.00,+1.00,-1.00,+0.00,+1.00,+0.00,-2.00,+0.00,+0.00
-15.00,+0.00,+1.00,-2.00,-4.00,-2.00,+1.00,-8.00,+1.00,-3.00,-4.00,-3.00,+0.00,+0.00,+0.00,-2.00
+14.00,-1.00,+0.00,+3.00,+1.00,+0.00,+1.00,-1.00,-2.00,+0.00,-2.00,-1.00,+0.00,-2.00,-1.00,+0.00
-7.00,-3.00,-3.00,-2.00,-1.00,-2.00,-1.00,+1.00,+0.00,+0.00,+3.00,+1.00,+0.00,+0.00,-3.00,-3.00
+16.00,+0.00,+0.00,+0.00,-1.00,+0.00,-3.00,+4.00,-1.00,+2.00,-2.00,-2.00,-1.00,+0.00,-2.00,-1.00
-15.00,-1.00,-1.00,-1.00,-2.00,+1.00,-2.00,-4.00,+2.00,+1.00,+3.00,+4.00,+1.00,+0.00,-3.00,-3.00
+46.00,+9.00,-1.00,-1.00,+3.00,+6.00,+4.00,+3.00,-1.00,-1.00,+1.00,-1.00,+0.00,+0.00,-2.00,-2.00
-34.00,-1.00,+2.00,+1.00,-1.00,-2.00,-3.00,-9.00,-1.00,-1.00,-2.00,-1.00,+1.00,-2.00,+0.00,+3.00
-7.00,-3.00,-2.00,-1.00,-2.00,-3.00,+0.00,+4.00,-3.00,-4.00,-5.00,-4.00,-3.00,-2.00,-2.00,-3.00
+5.00,-3.00,-7.00,-2.00,-2.00,-2.00,-1.00,+5.00,+1.00,-3.00,-7.00,-4.00,+1.00,+0.00,+0.00,-1.00
+8.00,-4.00,-1.00,-1.00,-1.00,-1.00,-2.00,+0.00,-2.00,-4.00,-1.00,-2.00,-1.00,-2.00,+2.00,+4.00
+9.00,+0.00,-2.00,+2.00,-1.00,-1.00,+0.00,+0.00,+0.00,-1.00,+2.00,+1.00,+1.00,+0.00,-1.00,-2.00
-29.00,-6.00,-5.00,-3.00,-1.00,-3.00,-3.00,-10.00,-5.00,-2.00,+2.00,+0.00,-2.00,+0.00,+0.00,+3.00
-2.00,+0.00,+2.00,-1.00,+0.00,-1.00,-1.00,-4.00,-2.00,-1.00,-7.00,-2.00,-2.00,-2.00,-2.00,+0.00
-30.00,-3.00,+2.00,+2.00,+0.00,-2.00,-1.00,-1.00,-2.00,-1.00,-1.00,-2.00,-2.00,-3.00,-3.00,-6.00
-8.00,-7.00,-9.00,-5.00,-3.00,-2.00,-1.00,-7.00,+1.00,+0.00,-2.00,+1.00,+0.00,+1.00,+2.00,+2.00
-1.00,-1.00,+4.00,+1.00,+0.00,-2.00,-2.00,-5.00,+4.00,+4.00,-1.00,+0.00,+0.00,-2.00,-1.00,+0.00
+22.00,-1.00,-1.00,-2.00,+1.00,+0.00,-1.00,+5.00,-3.00,+0.00,+3.00,+0.00,-2.00,-1.00,-4.00,-5.00
-10.00,-3.00,-2.00,-1.00,-1.00,-2.00,-2.00,+4.00,-2.00,-3.00,-1.00,+0.00,+0.00,+0.00,-3.00,-1.00
