+1.00,+3.00,+0.00,+0.00,+0.00,+0.00,+0.00,+1.00,-6.00,-3.00,-1.00,-1.00,+0.00,-1.00,-2.00,-1.00
-3.00,-3.00,-1.00,-2.00,-2.00,-1.00,-1.00,-2.00,-2.00,+1.00,-1.00,-2.00,+0.00,+0.00,-1.00,-1.00
+1.00,-1.00,+1.00,+2.00,+0.00,-1.00,+1.00,+1.00,+5.00,+6.00,+1.00,-1.00,+1.00,+0.00,-1.00,+1.00
+3.00,+0.00,+0.00,-2.00,-1.00,-2.00,+0.00,+0.00,-2.00,-1.00,-1.00,+0.00,-1.00,+0.00,+1.00,+0.00
-3.00,+2.00,+0.00,-1.00,-2.00,-1.00,-2.00,-2.00,-2.00,-2.00,-2.00,-1.00,-1.00,-1.00,-1.00,-1.00
-2.00,+2.00,-1.00,+0.00,-2.00,-2.00,-1.00,+0.00,+1.00,-4.00,-2.00,-1.00,-1.00,+0.00,-1.00,-2.00
-4.00,-2.00,+0.00,+0.00,-1.00,+0.00,-1.00,-2.00,-2.00,+0.00,+0.00,+0.00,-1.00,-1.00,-1.00,-3.00
+6.00,+8.00,+1.00,-2.00,+0.00,+0.00,+0.00,+0.00,-5.00,-3.00,-1.00,-1.00,-1.00,-2.00,-1.00,+0.00
-5.00,-4.00,-2.00,-2.00,-3.00,+0.00,-1.00,-1.00,-11.00,-5.00,-3.00,-2.00,-1.00,-2.00,+0.00,-1.00
+0.00,+3.00,+1.00,+0.00,+0.00,-1.00,-1.00,+0.00,+5.00,-3.00,-1.00,-2.00,-1.00,-3.00,-1.00,-3.00
+3.00,+1.00,-2.00,-1.00,-1.00,-2.00,+1.00,+2.00,-4.00,+3.00,-1.00,-1.00,+0.00,+9.00,+2.00,+3.00
-2.00,-2.00,+0.00,-3.00,-1.00,+0.00,-1.00,-1.00,+9.00,+10.00,+1.00,+2.00,-1.00,-6.00,-4.00,+0.00
+1.00,+1.00,+0.00,+1.00,+1.00,+0.00,+1.00,+0.00,-11.00,-9.00,-5.00,-7.00,-5.00,-1.00,-1.00,-1.00
-1.00,-2.00,-3.00,-3.00,-2.00,-1.00,+0.00,-2.00,+0.00,-5.00,+4.00,+4.00,+12.00,+3.00,+2.00,+3.00
-2.00,-3.00,+1.00,-2.00,-1.00,-2.00,-1.00,-1.00,-11.00,-15.00,-4.00,-3.00,-11.00,-5.00,-3.00,-7.00
-2.00,-6.00,-2.00,+0.00,+0.00,-2.00,+0.00,-3.00,+2.00,+3.00,-2.00,-1.00,-5.00,+0.00,+0.00,-3.00
+4.00,+12.00,+2.00,+0.00,+0.00,-1.00,-3.00,-2.00,-5.00,+0.00,+2.00,+9.00,+2.00,+1.00,+0.00,-1.00
-2.00,-2.00,-1.00,-2.00,-2.00,+0.00,-1.00,-1.00,+15.00,+6.00,-4.00,-6.00,+5.00,-3.00,-3.00,-1.00
+1.00,+2.00,-3.00,+0.00,+0.00,-1.00,-3.00,-2.00,+9.00,+1.00,-4.00,-14.00,-9.00,-2.00,-1.00,+0.00
-6.00,-14.00,-2.00,+3.00,-1.00,-3.00,-6.00,-2.00,-10.00,-5.00,-3.00,-1.00,+8.00,+0.00,+0.00,-1.00
-6.00,-32.00,-8.00,-5.00,+2.00,+1.00,-3.00,-4.00,+28.00,+12.00,-2.00,-3.00,-12.00,-2.00,-3.00,+1.00
+7.00,+12.00,+2.00,+2.00,-4.00,-3.00,+0.00,+0.00,-1.00,+6.00,+2.00,+19.00,+21.00,-4.00,+1.00,+2.00
+3.00,+2.00,-1.00,+1.00,+11.00,+7.00,-1.00,+2.00,-16.00,-14.00,-3.00,-1.00,-8.00,+2.00,+1.00,-5.00
+6.00,+36.00,+6.00,-3.00,-19.00,-11.00,+0.00,+0.00,-8.00,+1.00,+2.00,-9.00,+0.00,-1.00,-4.00,-1.00
+4.00,+10.00,+1.00,+1.00,-2.00,-1.00,-2.00,+1.00,-15.00,-6.00,-2.00,-7.00,+2.00,-3.00,-3.00,-6.00
-7.00,-13.00,-5.00,-4.00,+4.00,+6.00,+0.00,-2.00,+11.00,+6.00,+0.00,+3.00,-5.00,+2.00,+3.00,+0.00
-4.00,-11.00,-4.00,+0.00,-7.00,-2.00,-2.00,-2.00,+7.00,+10.00,-1.00,+2.00,+5.00,-4.00,-1.00,+3.00
-6.00,-16.00,-4.00,+0.00,+5.00,-6.00,-2.00,-2.00,-6.00,-12.00,-3.00,+3.00,+0.00,-1.00,+0.00,-2.00
-6.00,-3.00,-3.00,-1.00,-3.00,+1.00,+1.00,+1.00,+9.00,+7.00,+3.00,+15.00,+9.00,+1.00,+0.00,+3.00
+3.00,-9.00,-2.00,-3.00,+3.00,-3.00,+0.00,+0.00,-21.00,-10.00,-2.00,-14.00,-14.00,+0.00,-2.00,-4.00
-3.00,-14.00,-8.00,-4.00,-17.00,+5.00,-2.00,-3.00,+12.00,+3.00,-2.00,-1.00,+9.00,-6.00,-1.00,-2.00
+1.00,+17.00,+4.00,+2.00,+22.00,-2.00,+5.00,-2.00,+24.00,-13.00,-3.00,-4.00,-9.00,-13.00,-1.00,+2.00
+4.00,+37.00,+7.00,+2.00,+0.00,+4.00,+3.00,+1.00,+14.00,+21.00,+8.00,+14.00,+13.00,+10.00,+1.00,+3.00
+7.00,+25.00,+9.00,+6.00,+4.00,+2.00,+0.00,+3.00,-15.00,-2.00,-4.00,-6.00,-8.00,+19.00,-3.00,-7.00
+4.00,-9.00,+4.00,+0.00,-2.00,-1.00,+1.00,+3.00,+9.00,+11.00,-2.00,+2.00,-22.00,-8.00,-2.00,+2.00
-10.00,-26.00,-11.00,-3.00,-7.00,+2.00,-2.00,-2.00,-10.00,-15.00,-6.00,-2.00,-5.00,-39.00,-13.00,-6.00
+8.00,-17.00,-3.00,+0.00,+4.00,+0.00,+0.00,+2.00,-7.00,-19.00,-1.00,+2.00,+0.00,+19.00,+24.00,+1.00
-4.00,+5.00,-1.00,+0.00,+3.00,+2.00,-3.00,-2.00,-5.00,+1.00,+2.00,-11.00,-1.00,+5.00,-2.00,+2.00
+4.00,+14.00,+0.00,+0.00,-6.00,-6.00,-1.00,-2.00,-16.00,+8.00,+7.00,+18.00,+7.00,+12.00,+3.00,-6.00
-7.00,+6.00,-8.00,-4.00,-2.00,+2.00,-2.00,-4.00,-2.00,+7.00,-7.00,-26.00,-1.00,-5.00,-6.00,+5.00
-6.00,-4.00,+7.00,+2.00,+1.00,-5.00,-5.00,-3.00,+9.00,+9.00,-1.00,+0.00,-6.00,-10.00,-5.00,+4.00
+17.00,+16.00,+3.00,+0.00,-8.00,+5.00,+2.00,+2.00,-11.00,-9.00,-4.00,-18.00,-17.00,-6.00,-4.00,-4.00
-5.00,-15.00,+5.00,+0.00,+2.00,-9.00,+3.00,-1.00,-5.00,-9.00,+0.00,+3.00,-6.00,-15.00,-2.00,+2.00
-7.00,-10.00,-15.00,-5.00,+6.00,+6.00,+1.00,+0.00,-1.00,+7.00,+0.00,+16.00,+21.00,+20.00,+2.00,-8.00
-20.00,-41.00,-23.00,-11.00,-3.00,+10.00,-33.00,-13.00,-2.00,-25.00,-5.00,-9.00,-2.00,-23.00,-7.00,-5.00
+41.00,+64.00,+44.00,+12.00,-8.00,-20.00,+9.00,+9.00,-1.00,-7.00,-3.00,+3.00,+7.00,+4.00,+2.00,+2.00
+3.00,+45.00,+18.00,+7.00,+24.00,+2.00,-1.00,+3.00,-26.00,-19.00,-4.00,-14.00,-1.00,-7.00,-10.00,-11.00
+11.00,+6.00,+7.00,-1.00,-10.00,-5.00,+6.00,+10.00,+81.00,+36.00,+12.00,+17.00,+19.00,+18.00,+11.00,+20.00
-18.00,-31.00,-12.00,+0.00,-6.00,-19.00,+3.00,-9.00,+5.00,+10.00,+0.00,-23.00,-10.00,-4.00,-7.00,+0.00
-19.00,-17.00,-17.00,-7.00,-12.00,+17.00,-5.00,-6.00,+15.00,+8.00,+0.00,+2.00,-16.00,-15.00,+0.00,+0.00
-5.00,-8.00,-4.00,-2.00,+9.00,-15.00,-3.00,-4.00,-40.00,-6.00,-3.00,-1.00,+9.00,+2.00,-3.00,-12.00
+7.00,-17.00,+2.00,+0.00,+6.00,+1.00,+2.00,+0.00,-66.00,-46.00,-4.00,+4.00,-2.00,+7.00,+0.00,-10.00
+3.00,+22.00,+0.00,+0.00,-7.00,-3.00,+2.00,+3.00,+51.00,+31.00,+6.00,+3.00,+4.00,-4.00,-1.00,+11.00
-3.00,-38.00,-9.00,-3.00,+6.00,-1.00,-3.00,+0.00,+11.00,-3.00,-1.00,-4.00,-11.00,-16.00,-5.00,+2.00
+13.00,+14.00,+5.00,+2.00,+15.00,+6.00,+4.00,+2.00,-4.00,+7.00,-9.00,-9.00,-9.00,-3.00,-11.00,-10.00
-18.00,-23.00,-11.00,-2.00,-6.00,+2.00,-5.00,-6.00,-19.00,-12.00,+9.00,+30.00,+7.00,+4.00,-3.00,+1.00
+22.00,+60.00,+10.00,-1.00,-2.00,+9.00,+3.00,+7.00,-11.00,+0.00,+0.00,-14.00,-14.00,-5.00,+6.00,-4.00
-12.00,-52.00,+0.00,+3.00,-5.00,-15.00,+3.00,-1.00,-60.00,-32.00,-3.00,+9.00,+15.00,-4.00,-3.00,-7.00
-20.00,-24.00,-16.00,-5.00,-3.00,+0.00,-2.00,-6.00,+43.00,+14.00,+2.00,-3.00,+17.00,+1.00,+2.00,+10.00
+3.00,+1.00,-5.00,-3.00,-17.00,-2.00,-8.00,-6.00,-7.00,+6.00,-3.00,-19.00,-31.00,-8.00,-9.00,-11.00
+22.00,+6.00,+14.00,+5.00,+3.00,-3.00,+4.00,+6.00,+14.00,-9.00,-5.00,-5.00,-6.00,-5.00,-8.00,+3.00
-24.00,-27.00,+1.00,+2.00,+12.00,+0.00,-3.00,+0.00,-4.00,+12.00,+4.00,+3.00,-3.00,-21.00,+5.00,+3.00
-6.00,-3.00,-7.00,-2.00,-13.00,+1.00,-3.00,-4.00,+1.00,-11.00,+0.00,+7.00,+9.00,+42.00,+1.00,-6.00
-11.00,-36.00,-17.00,-6.00,+20.00,+13.00,-7.00,-4.00,-28.00,-5.00,-4.00,-6.00,-6.00,-4.00,+2.00,-4.00
+0.00,+20.00,+9.00,-1.00,-9.00,-10.00,+7.00,+3.00,+53.00,+23.00,+8.00,+7.00,+26.00,+4.00,+3.00,+9.00
+0.00,+18.00,-3.00,+1.00,-2.00,-27.00,-25.00,-4.00,+3.00,+17.00,+2.00,+0.00,-11.00,+7.00,+2.00,+3.00
-2.00,-13.00,-2.00,+0.00,-7.00,+7.00,+4.00,-1.00,+18.00,+14.00,+4.00,+6.00,-5.00,-10.00,+3.00,+4.00
-3.00,+7.00,+3.00,-5.00,-28.00,-16.00,-2.00,-1.00,+16.00,-1.00,-3.00,-3.00,-16.00,-12.00,+2.00,+4.00
-7.00,-19.00,-12.00,-8.00,+17.00,-5.00,+2.00,-7.00,-75.00,-38.00,-11.00,-2.00,-5.00,+6.00,-7.00,-26.00
-13.00,-9.00,-4.00,-4.00,-8.00,+1.00,-3.00,-5.00,+24.00,+3.00,+0.00,+1.00,-2.00,+2.00,-2.00,+6.00
+6.00,-10.00,+14.00,+7.00,+13.00,+7.00,-2.00,+6.00,+13.00,-4.00,+4.00,+5.00,-5.00,-3.00,+7.00,+11.00
+8.00,+11.00,+4.00,+1.00,+4.00,+1.00,+1.00,-2.00,-23.00,+4.00,-5.00,-7.00,+7.00,+4.00,-5.00,-6.00
-2.00,-16.00,-8.00,-3.00,-14.00,-1.00,+0.00,-16.00,+1.00,-10.00,-4.00,-1.00,+4.00,-8.00,-4.00,+0.00
-14.00,-6.00,-6.00,-4.00,+15.00,+14.00,+2.00,+1.00,+6.00,+3.00,-4.00,+0.00,+17.00,+3.00,-5.00,-9.00
+3.00,+24.00,-4.00,-5.00,-7.00,+6.00,-4.00,+0.00,-30.00,-24.00,-7.00,-12.00,-7.00,-6.00,-4.00,-7.00
-1.00,-6.00,+6.00,+4.00,-4.00,-15.00,+1.00,+3.00,+26.00,-3.00,+0.00,-4.00,-5.00,+4.00,+5.00,+13.00
+0.00,-11.00,-4.00,-2.00,-18.00,-10.00,+6.00,+4.00,-17.00,+10.00,-4.00,+4.00,-2.00,+2.00,-5.00,-11.00
+7.00,+44.00,-4.00,-1.00,+3.00,-6.00,-6.00,-8.00,+7.00,+1.00,+2.00,+3.00,-1.00,+2.00,+2.00,+7.00
-5.00,+0.00,-3.00,-6.00,-14.00,-11.00,+1.00,+1.00,-21.00,-7.00,-6.00,+0.00,+2.00,-12.00,-1.00,-3.00
+11.00,+24.00,+10.00,+1.00,+10.00,+8.00,-5.00,+5.00,+30.00,+14.00,+4.00,-2.00,+4.00,+4.00,+5.00,+4.00
-9.00,-33.00,-11.00,+0.00,-1.00,+0.00,+2.00,-3.00,-22.00,-13.00,-7.00,-3.00,-4.00,-1.00,-4.00,-5.00
+3.00,+30.00,-7.00,-2.00,-16.00,+9.00,+8.00,+1.00,-20.00,-15.00,+0.00,-5.00,-6.00,-9.00,-2.00,-7.00
-11.00,-15.00,+1.00,+2.00,-7.00,-3.00,-2.00,-7.00,+6.00,+8.00,-1.00,-4.00,-2.00,-3.00,-10.00,+0.00
+12.00,-3.00,-4.00,+0.00,+7.00,+6.00,+3.00,+5.00,+0.00,+5.00,+3.00,+3.00,-2.00,-10.00,+8.00,-2.00
-9.00,+10.00,+2.00,-1.00,+4.00,+2.00,-4.00,+1.00,+0.00,-7.00,-4.00,-2.00,+21.00,+8.00,-2.00,+3.00
-1.00,-16.00,-5.00,-3.00,+1.00,+3.00,+3.00,-5.00,-43.00,-23.00,-7.00,+0.00,-4.00,-6.00,-5.00,-14.00
-3.00,-6.00,-2.00,+2.00,-12.00,-2.00,+3.00,+2.00,+38.00,+13.00,+8.00,+3.00,-4.00,-9.00,+3.00,+12.00
-15.00,-21.00,+1.00,-1.00,-7.00,-2.00,-1.00,-7.00,-23.00,+1.00,-5.00,+8.00,+7.00,+4.00,-5.00,-10.00
+17.00,+48.00,+9.00,+2.00,+13.00,+4.00,+1.00,+7.00,+17.00,+5.00,+2.00,-13.00,-9.00,+0.00,+0.00,+10.00
+12.00,-8.00,-3.00,-2.00,+0.00,+0.00,+4.00,+4.00,-20.00,-12.00,-7.00,+4.00,+4.00,-9.00,-2.00,-5.00
-7.00,-26.00,-15.00,-6.00,+0.00,-7.00,-10.00,-6.00,-5.00,-23.00,-4.00,-6.00,+2.00,+2.00,-1.00,-4.00
-7.00,-12.00,+3.00,+1.00,+1.00,-1.00,+3.00,+1.00,+6.00,+12.00,+2.00,-3.00,-4.00,+11.00,+1.00,-3.00
+12.00,+19.00,+1.00,+0.00,-3.00,+6.00,-1.00,+7.00,-27.00,-9.00,-4.00,-2.00,-7.00,-6.00,+0.00,-2.00
-9.00,-36.00,-1.00,+1.00,+8.00,-6.00,-2.00,-1.00,-19.00,-13.00,-2.00,-7.00,+1.00,-3.00,-2.00,-4.00
+6.00,+18.00,+0.00,-3.00,-7.00,-3.00,-11.00,-2.00,+5.00,+5.00,+1.00,+2.00,-9.00,-3.00,+0.00,-2.00
+1.00,+4.00,+0.00,+2.00,+8.00,+16.00,+22.00,+2.00,-1.00,+2.00,+1.00,-4.00,+30.00,-6.00,-10.00,-2.00
-5.00,-2.00,+0.00,-3.00,-7.00,-4.00,-4.00,-1.00,+7.00,+3.00,+0.00,+0.00,-13.00,+0.00,+3.00,+6.00
-10.00,-19.00,-1.00,+1.00,-25.00,-10.00,-2.00,-2.00,+17.00,-3.00,+2.00,-1.00,-3.00,+0.00,-7.00,-6.00
-4.00,-23.00,-12.00,-5.00,+5.00,+1.00,+7.00,-2.00,+2.00,+5.00,-2.00,-5.00,-3.00,-4.00,+1.00,+6.00
+8.00,+70.00,+18.00,+3.00,-3.00,-2.00,-5.00,+3.00,-12.00,-12.00,+0.00,+1.00,-6.00,-6.00,-5.00,-8.00
-6.00,-24.00,-5.00,-1.00,+13.00,+1.00,+0.00,-2.00,+11.00,+9.00,+3.00,-4.00,-16.00,+4.00,+1.00,-2.00
+0.00,+8.00,+1.00,-5.00,+8.00,+15.00,+1.00,-1.00,+17.00,+1.00,-4.00,+4.00,+5.00,-2.00,+1.00,+0.00
-2.00,+2.00,-4.00,-4.00,-12.00,-14.00,-6.00,-3.00,+3.00,+10.00,+1.00,-1.00,+3.00,-2.00,-1.00,+2.00
+1.00,-5.00,+2.00,+1.00,+6.00,-5.00,-4.00,-2.00,-6.00,-14.00,-4.00,+0.00,-8.00,-2.00,+0.00,-2.00
-8.00,-25.00,-1.00,+4.00,-1.00,+10.00,+8.00,+2.00,-9.00,-15.00,-3.00,+6.00,-2.00,-2.00,-3.00,-4.00
-10.00,-26.00,-10.00,-5.00,+7.00,+6.00,-6.00,-6.00,+12.00,+13.00,-1.00,-1.00,-12.00,+2.00,+0.00,+2.00
+5.00,+16.00,+14.00,+5.00,-7.00,-5.00,+2.00,+0.00,+5.00,+0.00,+0.00,-6.00,+11.00,-4.00,-4.00,-5.00
+10.00,-8.00,-8.00,-3.00,-1.00,-7.00,-5.00,+0.00,-17.00,-5.00,-3.00,-5.00,-8.00,+7.00,-3.00,+0.00
-1.00,+17.00,+11.00,+5.00,+6.00,+6.00,+0.00,+2.00,-8.00,+0.00,-3.00,+6.00,+4.00,+0.00,-11.00,+3.00
-12.00,-13.00,-3.00,-1.00,+0.00,-2.00,+2.00,+2.00,+14.00,+4.00,+2.00,+3.00,+3.00,+3.00,-3.00,+10.00
+13.00,+16.00,-3.00,-7.00,-12.00,-14.00,-4.00,-5.00,-8.00,-1.00,+1.00,+2.00,+1.00,-5.00,-1.00,-2.00
-8.00,-25.00,-10.00,-5.00,-7.00,-1.00,-5.00,-2.00,+20.00,+13.00,+0.00,+1.00,+2.00,+9.00,+5.00,+2.00
+4.00,+21.00,+4.00,-1.00,-1.00,+0.00,-2.00,-1.00,-82.00,-37.00,-7.00,+4.00,+3.00,-10.00,-1.00,-21.00
+7.00,+10.00,+4.00,+2.00,-2.00,+7.00,-1.00,+4.00,+68.00,+24.00,+3.00,-23.00,+3.00,+26.00,+9.00,+18.00
+3.00,-13.00,-4.00,+0.00,+2.00,+7.00,+3.00,+1.00,+17.00,+3.00,+1.00,+2.00,+1.00,+7.00,+7.00,+5.00
-5.00,+3.00,+3.00,+4.00,+6.00,-5.00,-3.00,-2.00,+9.00,+9.00,-1.00,-6.00,-14.00,-21.00,-3.00,-3.00
-6.00,-27.00,-10.00,-3.00,-2.00,-1.00,-3.00,-3.00,+0.00,-8.00,+5.00,+11.00,+6.00,-6.00,+4.00,+3.00
+8.00,+21.00,-2.00,-1.00,+3.00,-5.00,-1.00,+0.00,-40.00,-8.00,-6.00,-9.00,-20.00,+4.00,-14.00,-15.00
+2.00,+20.00,+13.00,+4.00,+6.00,+11.00,+7.00,+4.00,+35.00,+3.00,+0.00,-3.00,-23.00,+18.00,+14.00,+6.00
-2.00,-12.00,-2.00,-1.00,-1.00,+4.00,-3.00,-2.00,-14.00,-2.00,-3.00,-6.00,-4.00,-3.00,+2.00,+0.00
-6.00,+10.00,+0.00,-4.00,-5.00,-8.00,+3.00,+0.00,+26.00,+8.00,+0.00,-7.00,-15.00,-5.00,+2.00,+8.00
-1.00,-43.00,-16.00,-6.00,-8.00,-8.00,-2.00,-4.00,+11.00,+13.00,+4.00,+18.00,+11.00,-19.00,-1.00,+5.00
+4.00,+30.00,+3.00,+1.00,+9.00,+1.00,+8.00,-2.00,-13.00,-7.00,-7.00,-15.00,-9.00,+14.00,-16.00,-5.00
-1.00,-21.00,+10.00,+7.00,+4.00,+2.00,+2.00,+5.00,-18.00,-10.00,-6.00,-9.00,-8.00,-3.00,+0.00,+0.00
-8.00,-13.00,-9.00,-3.00,+2.00,-6.00,-14.00,-7.00,+10.00,+7.00,+2.00,+3.00,+5.00,-11.00,-1.00,+0.00
+10.00,-4.00,-3.00,+0.00,-3.00,-5.00,+14.00,+0.00,-14.00,-9.00,-1.00,+1.00,+5.00,-1.00,+1.00,-5.00
+14.00,+41.00,+14.00,+4.00,+14.00,+10.00,+16.00,+4.00,-19.00,-1.00,-3.00,+2.00,+8.00,-6.00,-7.00,-6.00
-8.00,+7.00,-6.00,-5.00,-13.00,-4.00,-8.00,-4.00,+8.00,+9.00,+4.00,+0.00,-4.00,+5.00,+1.00,+5.00
+8.00,-5.00,+0.00,+1.00,+1.00,-6.00,-2.00,+1.00,-16.00,-20.00,-11.00,-6.00,+4.00,+9.00,-6.00,-17.00
-3.00,+4.00,-4.00,-1.00,-3.00,+1.00,-6.00,+0.00,+18.00,+7.00,+5.00,+8.00,+19.00,+10.00,+5.00,+6.00
-10.00,-26.00,-12.00,-4.00,+13.00,+11.00,-6.00,-1.00,-50.00,-11.00,-4.00,+0.00,-8.00,-15.00,-4.00,-12.00
+5.00,+17.00,+2.00,+1.00,+5.00,-2.00,-2.00,+1.00,+52.00,+14.00,+0.00,+0.00,+1.00,+2.00,+4.00,+15.00
+2.00,-7.00,+1.00,-1.00,-13.00,-12.00,-5.00,-5.00,-45.00,+1.00,+0.00,-4.00,-1.00,-8.00,-1.00,-11.00
+4.00,+11.00,+1.00,-3.00,+2.00,-6.00,-14.00,+1.00,+38.00,+12.00,+2.00,+7.00,+2.00,+6.00,+4.00,+13.00
-7.00,-19.00,-7.00,-3.00,-1.00,+0.00,+3.00,+0.00,-17.00,-24.00,-4.00,-5.00,+0.00,+1.00,-1.00,-4.00
-4.00,+14.00,+2.00,-2.00,+1.00,+3.00,-2.00,-1.00,+14.00,+7.00,+2.00,+7.00,+4.00,-7.00,+2.00,+2.00
-10.00,-32.00,-12.00,-4.00,-5.00,-2.00,-5.00,-1.00,+12.00,+18.00,+4.00,-1.00,+7.00,+3.00,-5.00,+7.00
+13.00,+43.00,+19.00,+3.00,+2.00,+2.00,+0.00,+3.00,-49.00,-25.00,-6.00,-2.00,+9.00,-8.00,-1.00,-19.00
-8.00,-23.00,+6.00,+3.00,-3.00,-3.00,+0.00,+5.00,+52.00,+14.00,+5.00,-2.00,+4.00,+25.00,+11.00,+13.00
+1.00,-16.00,-7.00,-3.00,-12.00,-5.00,+1.00,-5.00,-32.00,-16.00,-4.00,-2.00,+4.00,+9.00,-3.00,-5.00
-14.00,-12.00,-7.00,-3.00,+6.00,+4.00,+0.00,-3.00,+26.00,+19.00,+3.00,-4.00,-5.00,-5.00,+1.00,+8.00
-9.00,-1.00,-7.00,-5.00,+1.00,-4.00,-7.00,-9.00,-11.00,-5.00,+2.00,+15.00,+7.00,+10.00,-4.00,-7.00
+8.00,+32.00,-2.00,-2.00,-30.00,-8.00,-2.00,+1.00,-14.00,-13.00,-7.00,-6.00,-10.00,-30.00,-2.00,-2.00
-2.00,-17.00,+2.00,+5.00,+17.00,+11.00,+5.00,+3.00,-4.00,+1.00,+1.00,+0.00,+6.00,+5.00,+1.00,-2.00
+6.00,+7.00,+3.00,-1.00,-7.00,+5.00,+1.00,-1.00,+16.00,+4.00,-3.00,-3.00,-5.00,+8.00,-9.00,-3.00
-16.00,-11.00,-5.00,+1.00,-3.00,-11.00,-9.00,-3.00,-23.00,-11.00,-7.00,-9.00,-11.00,-12.00,-5.00,-6.00
-2.00,-24.00,-6.00,-3.00,+0.00,-17.00,-6.00,-5.00,+4.00,+17.00,+8.00,+9.00,+3.00,-5.00,+1.00,+5.00
+0.00,+4.00,-5.00,-7.00,-11.00,+3.00,-2.00,+4.00,-34.00,-34.00,-8.00,-3.00,+1.00,+14.00,+2.00,-6.00
-1.00,+12.00,+3.00,+2.00,+1.00,-7.00,+1.00,-8.00,+20.00,+0.00,-2.00,-9.00,-9.00,-9.00,-8.00,-2.00
+0.00,-16.00,-6.00,-1.00,+12.00,+13.00,+15.00,+1.00,+36.00,+13.00,+2.00,-1.00,-8.00,-3.00,+3.00,+6.00
-13.00,-17.00,-15.00,-7.00,-8.00,-6.00,-8.00,-5.00,-12.00,+7.00,+0.00,+2.00,+4.00,-3.00,-4.00,-6.00
+11.00,+37.00,+15.00,+2.00,-1.00,-4.00,+12.00,+2.00,-25.00,-12.00,-4.00,-6.00,-5.00,-5.00,-5.00,-7.00
-4.00,-9.00,-1.00,-1.00,+1.00,-12.00,-13.00,-4.00,+62.00,+16.00,+6.00,+3.00,+1.00,-2.00,+7.00,+10.00
-4.00,+5.00,+0.00,-4.00,+3.00,-3.00,-2.00,+2.00,-4.00,-3.00,+0.00,-5.00,-6.00,+7.00,+0.00,-1.00
+3.00,-5.00,-5.00,-2.00,+0.00,-6.00,-3.00,-3.00,+6.00,+10.00,+2.00,+0.00,+1.00,+9.00,+2.00,+5.00
-7.00,-6.00,+2.00,+0.00,-2.00,+0.00,+2.00,-2.00,-75.00,-22.00,-6.00,+9.00,+8.00,-7.00,-10.00,-25.00
+9.00,+13.00,+2.00,-1.00,+0.00,+9.00,-6.00,+5.00,+38.00,+5.00,-2.00,-2.00,-7.00,+1.00,+9.00,+18.00
+0.00,+6.00,+7.00,+5.00,+1.00,+0.00,+24.00,+1.00,-14.00,-5.00,-8.00,-14.00,-12.00,-4.00,+1.00,-2.00
-5.00,+1.00,+0.00,-1.00,+5.00,+9.00,-3.00,+1.00,-12.00,+2.00,-1.00,+10.00,+3.00,+2.00,-3.00,+0.00
-2.00,-6.00,-5.00,-2.00,-3.00,-3.00,+2.00,-4.00,+37.00,+17.00,+0.00,-12.00,-7.00,+10.00,+8.00,+15.00
-5.00,-7.00,-5.00,-2.00,+4.00,+1.00,+0.00,-3.00,-77.00,-32.00,-8.00,+5.00,+9.00,+2.00,-11.00,-18.00
+11.00,+36.00,+13.00,+4.00,-6.00,+2.00,-2.00,+3.00,+43.00,+11.00,+8.00,+1.00,+17.00,-4.00,+0.00,+8.00
-5.00,-15.00,-1.00,+0.00,+0.00,-2.00,-4.00,+3.00,+17.00,+16.00,+9.00,+5.00,+1.00,+44.00,+8.00,+10.00
-7.00,-12.00,-7.00,-2.00,-1.00,-6.00,-1.00,-6.00,-15.00,-3.00,-5.00,+5.00,+4.00,-12.00,-5.00,-13.00
+1.00,+36.00,-3.00,-4.00,-6.00,+1.00,-1.00,-2.00,-14.00,-5.00,+0.00,+5.00,+22.00,+8.00,+0.00,-7.00
-1.00,-40.00,+1.00,+0.00,-5.00,-2.00,-3.00,+2.00,+13.00,+3.00,-2.00,-6.00,-8.00,-15.00,-8.00,+2.00
+0.00,+18.00,+3.00,+2.00,+8.00,-3.00,-1.00,+1.00,-59.00,-21.00,-8.00,-3.00,+3.00,-19.00,-7.00,-16.00
-2.00,-11.00,-5.00,+0.00,+21.00,+6.00,-10.00,-3.00,+75.00,+20.00,+9.00,+1.00,-5.00,-5.00,+0.00,+10.00
-7.00,-8.00,+1.00,-1.00,-28.00,-16.00,-2.00,+1.00,-80.00,-12.00,-2.00,+9.00,+8.00,+18.00,+1.00,-11.00
-7.00,-15.00,-9.00,-5.00,+4.00,+9.00,-2.00,-6.00,+24.00,+8.00,-1.00,-7.00,-10.00,-11.00,-2.00,+4.00
+12.00,+6.00,+2.00,-1.00,-11.00,-6.00,+6.00,+1.00,+50.00,+8.00,-1.00,-6.00,+13.00,-10.00,+5.00,+14.00
-7.00,-2.00,-6.00,-2.00,-7.00,-4.00,-8.00,-2.00,+8.00,+10.00,+1.00,+4.00,-9.00,+3.00,+0.00,-2.00
+7.00,+4.00,+0.00,-1.00,+19.00,+24.00,+20.00,+1.00,-10.00,-11.00,-4.00,-12.00,-12.00,-3.00,-4.00,-5.00
-2.00,+2.00,+3.00,+2.00,-21.00,-12.00,+2.00,+5.00,-23.00,-5.00,-1.00,+8.00,+1.00,+3.00,+2.00,-3.00
-12.00,-34.00,+0.00,+0.00,+1.00,-5.00,-7.00,-6.00,-14.00,-16.00,-5.00,-5.00,-10.00,-11.00,-5.00,-12.00
+4.00,+20.00,-11.00,-6.00,-5.00,-1.00,-3.00,-3.00,+12.00,+5.00,+3.00,-5.00,-1.00,+3.00,-5.00,+5.00
-1.00,-9.00,+14.00,+7.00,-1.00,+3.00,-3.00,+4.00,+16.00,+4.00,+0.00,-1.00,-6.00,-4.00,+0.00,-3.00
+1.00,+7.00,-1.00,-3.00,+13.00,+6.00,-2.00,-4.00,-36.00,-3.00,-3.00,-5.00,-15.00,-19.00,-4.00,-14.00
-11.00,-20.00,-10.00,-4.00,-9.00,+10.00,+3.00,-2.00,+27.00,+3.00,+0.00,+2.00,+14.00,+31.00,+4.00,+7.00
-6.00,-1.00,+1.00,+2.00,-7.00,-1.00,-2.00,-3.00,-6.00,-7.00,-1.00,-4.00,-4.00,-14.00,-4.00,-1.00
+1.00,-5.00,-1.00,-1.00,+6.00,+1.00,-2.00,+0.00,+0.00,+2.00,-1.00,-6.00,-12.00,-3.00,+4.00,-2.00
-8.00,-18.00,-6.00,-2.00,-3.00,-5.00,-3.00,-2.00,-2.00,+0.00,-3.00,+7.00,+8.00,+4.00,+2.00,-3.00
+20.00,+35.00,+6.00,+1.00,+5.00,+3.00,+1.00,+4.00,-9.00,-6.00,+1.00,+10.00,+6.00,-20.00,-7.00,-5.00
+5.00,+20.00,+1.00,-1.00,+2.00,-4.00,-7.00,+1.00,-18.00,-8.00,-2.00,+2.00,+4.00,+0.00,-1.00,-5.00
-7.00,-14.00,-3.00,+2.00,-3.00,+0.00,+12.00,+5.00,+19.00,+16.00,+5.00,+1.00,-3.00,+0.00,+3.00,+9.00
-7.00,-1.00,-5.00,-2.00,+1.00,+1.00,+3.00,-3.00,-1.00,-9.00,-2.00,-2.00,+3.00,+11.00,-1.00,-7.00
-9.00,-4.00,-7.00,-3.00,+8.00,+9.00,+1.00,-4.00,-24.00,-7.00,-3.00,-9.00,-12.00,-12.00,-1.00,-8.00
+14.00,-3.00,+0.00,+0.00,-15.00,-3.00,-2.00,+6.00,-16.00,-12.00,-1.00,+7.00,+12.00,+2.00,+0.00,+3.00
+8.00,+3.00,+6.00,+4.00,+11.00,+2.00,+1.00,+2.00,+44.00,+9.00,-2.00,-8.00,-21.00,-6.00,-1.00,+4.00
+0.00,+8.00,-4.00,-1.00,-7.00,-5.00,-8.00,-3.00,-41.00,-12.00,-6.00,-12.00,-11.00,-5.00,-6.00,-10.00
-8.00,-2.00,-1.00,-1.00,+3.00,-3.00,-5.00,+0.00,+12.00,+5.00,+3.00,+8.00,+1.00,-29.00,-7.00,+0.00
-1.00,-8.00,+3.00,+0.00,-1.00,-4.00,+0.00,+0.00,+11.00,+9.00,+0.00,+5.00,-1.00,+12.00,-2.00,+3.00
-4.00,-3.00,-5.00,-4.00,-5.00,-14.00,-6.00,-5.00,-8.00,-15.00,-3.00,-16.00,-9.00,-6.00,+2.00,-1.00
-2.00,+1.00,-3.00,-1.00,+12.00,+4.00,+1.00,+1.00,-15.00,-7.00,-4.00,-7.00,-19.00,+10.00,+6.00,+1.00
-3.00,-8.00,-4.00,-1.00,-15.00,-5.00,-4.00,-2.00,+20.00,+5.00,+0.00,-7.00,+2.00,-15.00,-6.00,-3.00
-2.00,-16.00,-5.00,-1.00,+10.00,+4.00,+9.00,-2.00,-16.00,-3.00,-4.00,-4.00,+0.00,-6.00,+1.00,-1.00
+6.00,+21.00,+0.00,-2.00,-13.00,-20.00,-17.00,+0.00,-24.00,-11.00,-8.00,+1.00,+3.00,+2.00,-5.00,-11.00
+8.00,+17.00,+7.00,+0.00,-15.00,-7.00,+6.00,+4.00,+40.00,+10.00,-3.00,+2.00,+1.00,+2.00,+2.00,+7.00
-3.00,+0.00,-1.00,+0.00,+10.00,+0.00,-3.00,-2.00,-22.00,-8.00,-2.00,+8.00,-5.00,+9.00,+5.00,-4.00
-11.00,-18.00,-3.00,-1.00,+0.00,-1.00,-1.00,-1.00,+17.00,+3.00,-5.00,-6.00,+32.00,-16.00,-1.00,+7.00
-5.00,-19.00,-12.00,-7.00,+8.00,+5.00,-6.00,-3.00,+0.00,+3.00,+0.00,+3.00,+5.00,+22.00,+1.00,-12.00
+9.00,+17.00,+11.00,+6.00,-7.00,-9.00,-7.00,+1.00,-22.00,-7.00,+2.00,+5.00,+4.00,-12.00,-1.00,+0.00
+6.00,+2.00,+5.00,+0.00,-3.00,+0.00,+0.00,+1.00,-6.00,+2.00,+0.00,-4.00,+11.00,+1.00,-3.00,+2.00
+5.00,+10.00,-2.00,+0.00,-6.00,+4.00,-2.00,-1.00,+7.00,+3.00,-2.00,-13.00,-24.00,+6.00,+20.00,+2.00
-9.00,-23.00,-6.00,-1.00,+6.00,+4.00,+8.00,-2.00,-29.00,-14.00,-3.00,-2.00,+1.00,-11.00,-4.00,-5.00
+1.00,+25.00,+7.00,+0.00,+1.00,+2.00,+0.00,-1.00,-11.00,-5.00,-3.00,-1.00,-5.00,-5.00,-3.00,+1.00
+3.00,+0.00,+4.00,+2.00,-2.00,+0.00,-3.00,+0.00,+27.00,+6.00,+4.00,+14.00,+13.00,-4.00,+2.00,+5.00
+1.00,+6.00,+3.00,+1.00,+15.00,+10.00,-3.00,+2.00,-1.00,+2.00,+2.00,-3.00,-3.00,+12.00,+5.00,+1.00
-2.00,-5.00,-5.00,+0.00,-9.00,-6.00,+3.00,-1.00,+21.00,+10.00,+4.00,+1.00,-4.00,+0.00,+1.00,+6.00
-7.00,-14.00,-7.00,-2.00,-3.00,-5.00,-10.00,-5.00,-24.00,-10.00,+5.00,+17.00,+38.00,+3.00,+1.00,-8.00
+2.00,+21.00,+7.00,+3.00,+10.00,+3.00,-13.00,-1.00,-5.00,-7.00,-5.00,-7.00,-30.00,-7.00,-2.00,+8.00
-12.00,-17.00,-2.00,-1.00,+12.00,-4.00,-8.00,-6.00,-13.00,-6.00,-3.00,-11.00,-3.00,-21.00,-25.00,-12.00
+5.00,+1.00,-1.00,-1.00,-37.00,-30.00,-1.00,+1.00,-2.00,+3.00,-1.00,-2.00,-6.00,-4.00,+22.00,+2.00
+0.00,+17.00,-2.00,-1.00,+3.00,+5.00,-1.00,-3.00,+18.00,+8.00,+2.00,+19.00,+13.00,+10.00,-4.00,+4.00
-7.00,-9.00,-5.00,-3.00,+12.00,+4.00,+4.00,-2.00,-16.00,-5.00,-3.00,-17.00,+9.00,+7.00,-5.00,-10.00
-4.00,-13.00,-2.00,-2.00,-23.00,-1.00,-4.00,-3.00,-3.00,-4.00,-2.00,-9.00,-38.00,+4.00,+5.00,-3.00
+5.00,+8.00,+3.00,+1.00,+9.00,-7.00,-11.00,+1.00,+3.00,-6.00,-3.00,-3.00,-2.00,-7.00,-10.00,+3.00
-12.00,-26.00,-14.00,-5.00,+0.00,-3.00,-4.00,-2.00,+1.00,+8.00,+5.00,+11.00,+12.00,+10.00,-1.00,-4.00
+6.00,+19.00,+5.00,-2.00,+0.00,+12.00,-2.00,+1.00,-15.00,-18.00,-12.00,-45.00,-61.00,-11.00,-4.00,-8.00
+6.00,+1.00,+0.00,-4.00,-13.00,-1.00,+5.00,+0.00,+14.00,+4.00,+1.00,+1.00,-10.00,-2.00,+2.00,+2.00
+0.00,+13.00,+4.00,+3.00,+3.00,+3.00,+17.00,+3.00,-5.00,-5.00,-3.00,+2.00,+9.00,-9.00,-4.00,+2.00
+3.00,-5.00,-6.00,-2.00,-19.00,-9.00,+0.00,+2.00,+9.00,-1.00,+2.00,+19.00,+15.00,+9.00,+0.00,+5.00
-10.00,-16.00,-9.00,-3.00,-6.00,+6.00,+6.00,-2.00,-5.00,+1.00,-7.00,-26.00,-42.00,-10.00,-8.00,-1.00
+5.00,+12.00,+4.00,+4.00,+12.00,-27.00,-5.00,+0.00,-1.00,-6.00,-1.00,-5.00,+13.00,-24.00,-7.00,-3.00
+1.00,+7.00,+4.00,-1.00,+10.00,+32.00,-1.00,-1.00,-4.00,+5.00,+4.00,+15.00,-16.00,+16.00,-9.00,+2.00
-3.00,-6.00,-2.00,-1.00,+12.00,+9.00,-1.00,-2.00,-10.00,+2.00,-1.00,-28.00,-12.00,+0.00,+6.00,-8.00
-1.00,-2.00,+0.00,-1.00,+1.00,-5.00,+5.00,+0.00,+12.00,+6.00,+4.00,+33.00,+47.00,+14.00,+2.00,+4.00
+6.00,+8.00,+3.00,+5.00,-18.00,+13.00,+6.00,+4.00,-24.00,-9.00,+0.00,+14.00,+19.00,+1.00,-4.00,-4.00
-9.00,-8.00,-4.00,-1.00,+16.00,+2.00,-6.00,-6.00,+8.00,+4.00,-1.00,-12.00,-38.00,-8.00,+2.00,+3.00
+3.00,-8.00,-1.00,-2.00,-13.00,+21.00,+6.00,+0.00,+23.00,-8.00,-4.00,-6.00,+28.00,-5.00,-4.00,+4.00
-7.00,-20.00,-15.00,-10.00,-32.00,-24.00,-11.00,-9.00,-25.00,-6.00,-3.00,+5.00,-30.00,-2.00,-6.00,-14.00
-2.00,+0.00,-2.00,-4.00,+1.00,-14.00,+3.00,+2.00,+3.00,-9.00,-1.00,-27.00,+10.00,+6.00,+4.00,-3.00
-2.00,+3.00,+4.00,+5.00,+38.00,-3.00,-4.00,+0.00,+15.00,+5.00,-1.00,+4.00,-16.00,+3.00,-9.00,+8.00
-1.00,-10.00,-4.00,-7.00,+4.00,+1.00,-5.00,-3.00,-5.00,+1.00,-9.00,-48.00,-40.00,-28.00,-19.00,-3.00
+1.00,+0.00,+2.00,+5.00,+15.00,+8.00,+22.00,+2.00,-1.00,-3.00,+2.00,+7.00,+17.00,+14.00,+34.00,+0.00
-3.00,+9.00,-3.00,-3.00,-38.00,-23.00,-4.00,-3.00,+7.00,+10.00,-1.00,+12.00,-7.00,-9.00,-8.00,-1.00
-3.00,-16.00,-6.00,-4.00,+18.00,+3.00,+3.00,-4.00,-27.00,-18.00,-5.00,-9.00,+16.00,-1.00,+2.00,-11.00
-1.00,+3.00,+1.00,+1.00,+3.00,+8.00,+3.00,+0.00,+35.00,+6.00,-1.00,-2.00,-35.00,-15.00,-13.00,+4.00
+0.00,+1.00,-3.00,+2.00,+22.00,-19.00,-16.00,-1.00,-2.00,-4.00,-4.00,-8.00,-6.00,+4.00,+27.00,+4.00
-6.00,-5.00,-10.00,-5.00,-26.00,+18.00,+2.00,-4.00,-2.00,+4.00,+4.00,+1.00,+1.00,+0.00,-13.00,-2.00
+7.00,+12.00,+5.00,+4.00,-34.00,-28.00,+4.00,+2.00,+13.00,+8.00,+5.00,+34.00,+39.00,+0.00,+9.00,+3.00
+0.00,-11.00,+0.00,+4.00,+14.00,-17.00,-2.00,+0.00,-10.00,+0.00,+3.00,+14.00,-26.00,+11.00,+11.00,-3.00
-3.00,+5.00,+3.00,+7.00,+36.00,+52.00,-4.00,+3.00,+4.00,+0.00,-1.00,+8.00,-7.00,-21.00,-19.00,-1.00
+3.00,+9.00,+2.00,+0.00,+45.00,+4.00,-6.00,-2.00,+18.00,+3.00,+2.00,+12.00,+20.00,+18.00,+0.00,-1.00
-1.00,-7.00,-4.00,-5.00,-14.00,+17.00,-2.00,+0.00,-2.00,-3.00,-5.00,-21.00,-45.00,-22.00,-6.00,+1.00
-10.00,-10.00,-4.00,-1.00,+1.00,-10.00,+3.00,-3.00,+2.00,+2.00,+0.00,+11.00,+15.00,+11.00,+12.00,+9.00
-6.00,-1.00,-4.00,-2.00,-25.00,-25.00,-1.00,-5.00,+7.00,+2.00,-1.00,-4.00,+14.00,+4.00,-29.00,-10.00
+9.00,+5.00,+5.00,+5.00,+10.00,-11.00,-12.00,-3.00,-9.00,+3.00,+5.00,+24.00,+24.00,+3.00,+11.00,-2.00
+0.00,+0.00,-1.00,-1.00,+5.00,+31.00,+1.00,+4.00,+4.00,-4.00,-2.00,-8.00,-12.00,+0.00,-12.00,-6.00
+3.00,+3.00,-2.00,-1.00,+17.00,-18.00,-15.00,-2.00,-12.00,-2.00,-5.00,+2.00,+22.00,-1.00,+2.00,-6.00
-10.00,-13.00,-7.00,-6.00,+16.00,-1.00,-5.00,-4.00,-1.00,-2.00,+1.00,+14.00,+7.00,+7.00,+1.00,+0.00
-5.00,-6.00,-7.00,-9.00,-79.00,-14.00,+1.00,-6.00,-26.00,-13.00,-11.00,-5.00,-7.00,-14.00,-12.00,-13.00
+20.00,+14.00,+8.00,+1.00,-25.00,-14.00,-5.00,+8.00,+5.00,+1.00,-2.00,-10.00,+28.00,+21.00,-3.00,+1.00
-5.00,+2.00,-1.00,+0.00,+3.00,+1.00,-6.00,-1.00,+18.00,+14.00,+6.00,+5.00,-13.00,+10.00,-8.00,+11.00
+4.00,-1.00,+4.00,+0.00,-8.00,+13.00,-5.00,+0.00,-10.00,-3.00,-3.00,-8.00,+4.00,-8.00,+5.00,-4.00
-8.00,-3.00,+5.00,+4.00,+31.00,+10.00,+1.00,+0.00,+0.00,-5.00,-5.00,+0.00,+17.00,+3.00,-8.00,+0.00
-2.00,-3.00,-4.00,-4.00,+0.00,+26.00,+4.00,-3.00,-8.00,-2.00,+2.00,+24.00,+84.00,+10.00,+11.00,-1.00
-7.00,-8.00,-6.00,-6.00,-18.00,-21.00,+3.00,-2.00,-6.00,-10.00,+1.00,+16.00,-2.00,-12.00,-6.00,-10.00
-3.00,+1.00,+1.00,+1.00,-48.00,-42.00,-6.00,+1.00,-7.00,-11.00,-14.00,-57.00,-54.00,-11.00,-13.00,-9.00
+6.00,-4.00,+3.00,+1.00,+15.00,+23.00,-3.00,+3.00,+5.00,+6.00,+1.00,-1.00,-20.00,+1.00,+6.00,+3.00
-1.00,-8.00,-4.00,-1.00,-1.00,-11.00,+11.00,-4.00,+11.00,+6.00,+5.00,+18.00,+19.00,-17.00,+1.00,+2.00
+13.00,+13.00,+4.00,+2.00,-12.00,-25.00,-9.00,+5.00,-2.00,+1.00,-2.00,-9.00,+8.00,+20.00,-12.00,+0.00
-1.00,-4.00,+2.00,+2.00,+19.00,-2.00,+8.00,-1.00,-2.00,-3.00,+7.00,+46.00,+9.00,-11.00,-7.00,-7.00
-6.00,-1.00,-1.00,+3.00,+76.00,+19.00,+5.00,+2.00,-1.00,-7.00,-7.00,-25.00,+4.00,-1.00,+28.00,-3.00
-5.00,-9.00,-4.00,-4.00,-61.00,-41.00,-5.00,-6.00,+6.00,+6.00,-2.00,-13.00,-29.00,-33.00,-14.00,+4.00
+1.00,+0.00,-1.00,-1.00,-34.00,-24.00,-16.00,-1.00,+3.00,+5.00,+0.00,+7.00,+0.00,+18.00,+7.00,+5.00
-6.00,+0.00,-4.00,+0.00,+30.00,+78.00,+17.00,+2.00,-6.00,+1.00,-1.00,+2.00,-9.00,+0.00,-8.00,+0.00
-9.00,-4.00,-3.00,+3.00,+42.00,+4.00,+1.00,-6.00,-13.00,-8.00,-6.00,+0.00,-28.00,+6.00,+2.00,-2.00
-3.00,+7.00,+5.00,+5.00,+24.00,+24.00,+9.00,+1.00,+11.00,+8.00,+7.00,+20.00,-5.00,-5.00,-10.00,+0.00
-5.00,-1.00,+0.00,+1.00,+23.00,+24.00,+5.00,-2.00,-2.00,+4.00,+3.00,+2.00,+14.00,+4.00,+19.00,-1.00
+8.00,+4.00,+3.00,+2.00,-14.00,-43.00,-6.00,+4.00,-13.00,-7.00,-4.00,-12.00,+17.00,+3.00,-22.00,+1.00
-3.00,-3.00,-3.00,-6.00,+4.00,+67.00,-7.00,-1.00,-1.00,-11.00,-12.00,-37.00,-47.00,-10.00,-24.00,-8.00
-4.00,-6.00,-3.00,-4.00,-22.00,-64.00,-11.00,-6.00,+7.00,-3.00,-6.00,-7.00,+11.00,-3.00,+6.00,-4.00
+17.00,+19.00,+6.00,+6.00,+38.00,+26.00,+17.00,+10.00,+7.00,-7.00,+0.00,+29.00,+21.00,+2.00,+4.00,+4.00
+3.00,+1.00,+2.00,-1.00,+11.00,+5.00,+3.00,+2.00,+17.00,+10.00,+4.00,-9.00,-11.00,-9.00,+2.00,+0.00
-5.00,-2.00,-4.00,-5.00,+19.00,+3.00,-4.00,-5.00,-26.00,-13.00,+2.00,+20.00,+36.00,-21.00,-21.00,-8.00
-11.00,-12.00,-7.00,-6.00,-8.00,-24.00,-12.00,-4.00,-15.00,-7.00,-9.00,-56.00,-72.00,+45.00,+16.00,-7.00
+5.00,+3.00,+7.00,+1.00,-4.00,+24.00,+16.00,+0.00,-7.00,-3.00,-8.00,-32.00,+10.00,-9.00,+12.00,+3.00
+0.00,-4.00,-2.00,+0.00,+40.00,-10.00,-20.00,-2.00,-5.00,+2.00,+10.00,+29.00,-16.00,-13.00,+1.00,+2.00
+4.00,+5.00,+3.00,+6.00,+6.00,-4.00,+15.00,+1.00,+18.00,+7.00,-8.00,-29.00,-4.00,-3.00,-43.00,+0.00
-6.00,-1.00,-3.00,+2.00,+40.00,+17.00,+1.00,+4.00,-6.00,-6.00,-3.00,+8.00,-10.00,+2.00,+18.00,-3.00
-12.00,-15.00,-7.00,-3.00,-35.00,+5.00,+4.00,-2.00,-17.00,-7.00,-3.00,-17.00,+51.00,+12.00,-4.00,-10.00
+8.00,+1.00,+5.00,+1.00,-11.00,+10.00,+16.00,+4.00,+1.00,+0.00,+3.00,+13.00,-72.00,-5.00,+10.00,-1.00
+4.00,+8.00,+4.00,+5.00,+75.00,+10.00,-4.00,+3.00,+3.00,+0.00,+4.00,+11.00,+15.00,+23.00,+8.00,+9.00
-5.00,-15.00,-11.00,-8.00,-34.00,-46.00,-16.00,-10.00,-6.00,-7.00,-6.00,+0.00,-10.00,-34.00,-22.00,-1.00
+4.00,+9.00,+4.00,+5.00,+58.00,+28.00,+3.00,-3.00,+4.00,-6.00,-2.00,-7.00,-13.00,+9.00,+19.00,-4.00
+8.00,+9.00,+4.00,+0.00,-40.00,-20.00,-18.00,-2.00,+4.00,-1.00,-3.00,+10.00,+77.00,+10.00,+1.00,+9.00
-6.00,-12.00,-2.00,-2.00,+27.00,+39.00,+16.00,+1.00,+16.00,+7.00,+13.00,+48.00,+7.00,+15.00,+21.00,+2.00
+4.00,+6.00,+1.00,+1.00,+20.00,-42.00,+1.00,+12.00,-9.00,-7.00,-27.00,-80.00,-57.00,-22.00,-6.00,+2.00
-15.00,-11.00,-2.00,-3.00,-35.00,+6.00,-3.00,-8.00,-5.00,+2.00,-2.00,+7.00,-26.00,-13.00,-17.00,-3.00
-5.00,+0.00,-3.00,-5.00,+25.00,-48.00,-1.00,-1.00,-6.00,-2.00,-1.00,+12.00,+64.00,-6.00,-30.00,-6.00
+8.00,+3.00,+0.00,-5.00,-70.00,-26.00,-8.00,-6.00,+7.00,+0.00,-1.00,+5.00,-3.00,+8.00,+37.00,+12.00
+10.00,+11.00,+3.00,+7.00,+55.00,-6.00,-17.00,+5.00,-5.00,-5.00,+5.00,+2.00,+8.00,-5.00,-5.00,-4.00
-7.00,-11.00,-5.00,-3.00,-20.00,+76.00,+10.00,-3.00,-15.00,-7.00,-7.00,-16.00,-40.00,-11.00,-28.00,-10.00
+1.00,+3.00,-1.00,-3.00,-60.00,+0.00,+12.00,+6.00,+0.00,-7.00,-8.00,-29.00,+7.00,+1.00,+16.00,-6.00
-6.00,-6.00,-4.00,-2.00,-43.00,-47.00,-19.00,-8.00,-8.00,+2.00,+2.00,-30.00,-43.00,+4.00,+10.00,-4.00
+2.00,-2.00,-1.00,+0.00,+73.00,+77.00,+42.00,+1.00,-6.00,-4.00,-1.00,+14.00,+17.00,-5.00,-36.00,-1.00
+18.00,+10.00,+5.00,+10.00,-75.00,-45.00,-17.00,+13.00,-2.00,-3.00,-2.00,-45.00,-78.00,-17.00,-15.00,+1.00
+0.00,+7.00,+3.00,+2.00,+8.00,+9.00,-6.00,-4.00,+9.00,-1.00,+3.00,+26.00,+12.00,+16.00,+5.00,+2.00
-6.00,-4.00,-3.00,-5.00,-87.00,-32.00,+9.00,+1.00,+5.00,-2.00,-7.00,-14.00,-31.00,-22.00,+1.00,+2.00
+0.00,-1.00,-2.00,+2.00,+29.00,+1.00,-13.00,+2.00,+12.00,+4.00,+3.00,-1.00,+17.00,-8.00,+11.00,+9.00
+14.00,+13.00,+4.00,+2.00,+43.00,+19.00,+3.00,+2.00,-9.00,-6.00,-5.00,-40.00,-7.00,-8.00,-14.00,-10.00
-3.00,-6.00,-3.00,+3.00,-6.00,+30.00,-3.00,-3.00,-4.00,-4.00,-7.00,-13.00,-7.00,+11.00,-41.00,-2.00
+1.00,+4.00,+2.00,+2.00,-33.00,+5.00,+1.00,+3.00,+7.00,+2.00,+4.00,+30.00,+10.00,+6.00,+8.00,-1.00
+5.00,+5.00,+2.00,-4.00,-4.00,+29.00,+19.00,+0.00,-10.00,-3.00,-11.00,-53.00,-2.00,-3.00,-23.00,-7.00
-5.00,-1.00,-2.00,-1.00,-4.00,-37.00,-15.00,-4.00,-6.00,-2.00,-2.00,+18.00,+27.00,-13.00,-2.00,+0.00
-13.00,-9.00,-7.00,-6.00,-13.00,-5.00,+1.00,-14.00,-8.00,+0.00,-2.00,-10.00,-10.00,-5.00,+15.00,-2.00
-4.00,-5.00,-5.00,-12.00,-46.00,-10.00,-24.00,+2.00,+2.00,-10.00,-16.00,-50.00,-5.00,-20.00,-2.00,+3.00
+0.00,-1.00,+0.00,-1.00,-24.00,-8.00,-13.00,-10.00,+10.00,+13.00,+17.00,+66.00,+74.00,+33.00,-10.00,-4.00
-11.00,-9.00,-6.00,-2.00,+2.00,-22.00,-20.00,-5.00,+2.00,+4.00,+2.00,-2.00,-13.00,-10.00,-16.00,-2.00
-3.00,-4.00,-1.00,+2.00,+9.00,-22.00,+17.00,+5.00,-7.00,-3.00,-2.00,-2.00,-25.00,+1.00,-9.00,-3.00
-5.00,-5.00,-1.00,+1.00,+45.00,+7.00,-10.00,-1.00,-11.00,+9.00,+9.00,+35.00,+38.00,+17.00,+13.00,+3.00
-3.00,+6.00,+1.00,-3.00,-7.00,+44.00,-41.00,-22.00,+9.00,+1.00,+2.00,-9.00,-25.00,+1.00,+7.00,+1.00
+1.00,+1.00,-1.00,+1.00,-7.00,-14.00,+51.00,+11.00,+2.00,-1.00,-1.00,+26.00,+34.00,+4.00,-21.00,+5.00
+1.00,+0.00,+3.00,+1.00,+26.00,+4.00,-24.00,-2.00,-2.00,-3.00,+0.00,+1.00,+27.00,-8.00,+44.00,-5.00
+9.00,+3.00,-1.00,+3.00,+21.00,+2.00,+6.00,+2.00,-3.00,-2.00,-2.00,-17.00,-31.00,+12.00,-62.00,-9.00
-3.00,+0.00,+6.00,+8.00,-7.00,-5.00,-2.00,+7.00,-2.00,+2.00,+4.00,+25.00,+17.00,+18.00,+70.00,+10.00
-4.00,-5.00,+1.00,+6.00,+121.00,+22.00,-3.00,-6.00,-12.00,-3.00,+4.00,+13.00,-6.00,+4.00,+42.00,-6.00
+4.00,-5.00,-5.00,-10.00,-38.00,+65.00,+2.00,-7.00,+31.00,+2.00,-5.00,-25.00,+1.00,+6.00,+16.00,+20.00
+3.00,+2.00,-1.00,-3.00,+71.00,-9.00,+5.00,-1.00,+2.00,+11.00,+7.00,+30.00,+35.00,-19.00,-28.00,+1.00
-5.00,+0.00,-3.00,-3.00,-72.00,-54.00,-34.00,-13.00,+6.00,+1.00,+1.00,-8.00,+9.00,+11.00,+27.00,+7.00
+0.00,-5.00,-3.00,-6.00,-7.00,+15.00,-6.00,-3.00,+0.00,+3.00,-3.00,-19.00,-25.00,+0.00,-10.00,+1.00
-1.00,-2.00,+0.00,+2.00,-2.00,-15.00,+12.00,+2.00,+3.00,+7.00,+11.00,+15.00,+26.00,+17.00,+19.00,+4.00
-6.00,-2.00,-5.00,-12.00,-105.00,-109.00,-56.00,-20.00,+3.00,+5.00,+4.00,+2.00,-68.00,-16.00,+16.00,-2.00
-4.00,+0.00,+3.00,+9.00,+104.00,+96.00,+27.00,+8.00,+4.00,+6.00,+7.00,+13.00,+31.00,+8.00,-15.00,-2.00
-2.00,+2.00,-4.00,-10.00,-108.00,-68.00,+25.00,+5.00,-3.00,+3.00,+10.00,+49.00,-47.00,-33.00,-53.00,-6.00
-7.00,-4.00,-4.00,-4.00,-1.00,-19.00,-20.00,-11.00,+5.00,+4.00,-3.00,-22.00,-19.00,+12.00,+15.00,-1.00
+0.00,-2.00,+0.00,+2.00,+61.00,+34.00,-13.00,+2.00,-19.00,-21.00,-16.00,-27.00,+3.00,+6.00,+29.00,-7.00
-9.00,-4.00,-4.00,-10.00,+23.00,+19.00,+7.00,-14.00,-8.00,-3.00,-7.00,-3.00,+9.00,+2.00,-55.00,-10.00
-13.00,-8.00,-8.00,-6.00,-38.00,-49.00,-44.00,-11.00,-5.00,-4.00,+7.00,+28.00,-16.00,+15.00,-13.00,-6.00
-3.00,-3.00,+2.00,+10.00,+83.00,+13.00,+34.00,+3.00,+4.00,+5.00,-3.00,-18.00,+0.00,-18.00,-39.00,+3.00
-5.00,+0.00,-1.00,-4.00,-81.00,-55.00,-21.00,-8.00,+2.00,+6.00,+6.00,+16.00,+26.00,+30.00,+33.00,+11.00
-5.00,-2.00,-3.00,-8.00,+26.00,+71.00,+4.00,-4.00,-15.00,-13.00,-2.00,+1.00,-20.00,-31.00,-45.00,-15.00
-6.00,-8.00,-8.00,-8.00,+104.00,+81.00,-27.00,-18.00,+5.00,-3.00,-1.00,-8.00,-13.00,+24.00,+24.00,+4.00
+2.00,-2.00,-4.00,-11.00,-67.00,-23.00,-54.00,-12.00,-22.00,-5.00,-5.00,+6.00,-3.00,-31.00,-63.00,-15.00
+6.00,+3.00,-2.00,+0.00,+7.00,-50.00,-4.00,+0.00,+11.00,+7.00,+9.00,-25.00,-30.00,+6.00,+16.00,+14.00
+6.00,+3.00,+2.00,+3.00,-105.00,-49.00,+24.00,+5.00,-14.00,-5.00,-11.00,+0.00,-6.00,-16.00,+15.00,-10.00
+8.00,+6.00,+4.00,+2.00,+11.00,+67.00,+31.00,+6.00,+1.00,+0.00,+2.00,+26.00,+16.00,+25.00,-11.00,-2.00
+1.00,+1.00,+3.00,+8.00,+59.00,+21.00,+1.00,+3.00,-8.00,+5.00,+0.00,+25.00,+25.00,-65.00,+4.00,-6.00
+2.00,-2.00,-1.00,-7.00,-52.00,-41.00,-34.00,-7.00,+3.00,+4.00,+0.00,+9.00,-9.00,+50.00,+10.00,-2.00
+20.00,+12.00,+8.00,+5.00,+46.00,+81.00,+50.00,+22.00,-8.00,-7.00,-6.00,-15.00,-16.00,-18.00,-60.00,-14.00
-8.00,-7.00,-8.00,-8.00,-68.00,-54.00,+7.00,+7.00,-8.00,-9.00,-1.00,+3.00,-26.00,-6.00,+52.00,+16.00
+3.00,+3.00,-1.00,-3.00,+42.00,-32.00,-20.00,-3.00,-7.00,-16.00,-17.00,-9.00,+55.00,-23.00,+44.00,-11.00
+1.00,+4.00,+4.00,+2.00,-54.00,+25.00,+11.00,+7.00,-17.00,-20.00,-12.00,-1.00,-41.00,-128.00,-94.00,-26.00
-9.00,-10.00,-3.00,+0.00,-7.00,-36.00,+24.00,+3.00,+12.00,+0.00,-10.00,+3.00,-44.00,+42.00,-15.00,-9.00
-7.00,-7.00,-1.00,+0.00,-64.00,-104.00,-30.00,-7.00,+0.00,+9.00,+10.00,+39.00,-12.00,-8.00,-7.00,+6.00
-7.00,-5.00,-7.00,-8.00,+22.00,+36.00,+3.00,-8.00,+3.00,-1.00,+13.00,+58.00,+50.00,-9.00,-61.00,-11.00
-4.00,+1.00,-2.00,-3.00,+69.00,+92.00,+86.00,-1.00,+13.00,+13.00,+29.00,+69.00,-58.00,+47.00,-23.00,+19.00
-9.00,-4.00,-6.00,-8.00,-43.00,-78.00,-14.00,-10.00,+10.00,+5.00,-12.00,-37.00,-9.00,+11.00,+103.00,+17.00
+1.00,+2.00,+4.00,+14.00,+74.00,+73.00,+32.00,+0.00,+2.00,-4.00,-15.00,-58.00,-67.00,-42.00,-16.00,-10.00
+12.00,+6.00,+4.00,+3.00,+27.00,+41.00,+34.00,+52.00,-6.00,-3.00,-4.00,-52.00,-45.00,+3.00,-38.00,-16.00
+17.00,+15.00,+12.00,+26.00,+4.00,+37.00,+54.00,+34.00,-22.00,-8.00,+3.00,-20.00,+5.00,-42.00,-28.00,-11.00
-18.00,-9.00,-7.00,-1.00,-35.00,+12.00,-35.00,-15.00,+21.00,+14.00,+18.00,+36.00,+15.00,+21.00,-11.00,+14.00
+18.00,+6.00,+6.00,+0.00,-89.00,+16.00,+68.00,+13.00,+20.00,+10.00,+14.00,+63.00,+46.00,-45.00,+16.00,+9.00
+1.00,+1.00,-5.00,-3.00,+64.00,+40.00,-51.00,-13.00,-5.00,-1.00,-16.00,-51.00,-88.00,+48.00,-29.00,+0.00
+0.00,-3.00,+2.00,-6.00,-66.00,+67.00,+75.00,-4.00,-12.00,-12.00,-14.00,+29.00,+88.00,-54.00,+2.00,-8.00
+10.00,-2.00,-2.00,-6.00,+127.00,-36.00,-65.00,+34.00,-7.00,+0.00,-11.00,-64.00,-24.00,-15.00,+42.00,+22.00
+5.00,-2.00,-4.00,-22.00,-89.00,-121.00,-65.00,-8.00,-8.00,-6.00,-13.00,-21.00,-27.00,-21.00,+42.00,-12.00
-18.00,-9.00,-3.00,+2.00,+31.00,+113.00,-8.00,-14.00,+19.00,+8.00,+16.00,+37.00,-56.00,-19.00,+64.00,+6.00
+4.00,-2.00,+1.00,+10.00,+117.00,-79.00,-69.00,-11.00,-16.00,-8.00,-8.00,-17.00,+30.00,-55.00,-67.00,-16.00
+15.00,+7.00,+5.00,+4.00,+91.00,-12.00,+11.00,+29.00,-7.00,-6.00,+20.00,+62.00,-79.00,+47.00,+53.00,-6.00
+3.00,+8.00,+0.00,-7.00,-26.00,-70.00,-52.00,-14.00,-6.00,-8.00,-22.00,-83.00,-5.00,-23.00,-80.00,-21.00
-9.00,-6.00,-8.00,-6.00,+44.00,-62.00,-49.00,-15.00,-13.00,-6.00,+9.00,+11.00,-29.00,-8.00,+11.00,-1.00
-4.00,+2.00,+0.00,-8.00,-41.00,-59.00,-2.00,-2.00,-2.00,-11.00,-27.00,-98.00,-41.00,-37.00,-8.00,-11.00
-7.00,-7.00,+2.00,+6.00,+23.00,-31.00,-24.00,-1.00,+0.00,+5.00,+11.00,+2.00,-71.00,-41.00,-112.00,-15.00
+10.00,+8.00,+7.00,+14.00,+37.00,+53.00,+104.00,+70.00,-4.00,-14.00,-18.00,-67.00,+94.00,+45.00,+15.00,+1.00
-9.00,-3.00,-1.00,-5.00,-38.00,+5.00,-6.00,-24.00,+1.00,+2.00,-2.00,+9.00,-22.00,+102.00,+27.00,+15.00
-12.00,-16.00,-8.00,+4.00,+127.00,+124.00,+9.00,+30.00,+12.00,+8.00,-2.00,+7.00,-35.00,+58.00,+61.00,+7.00
-1.00,+1.00,-1.00,+5.00,+70.00,+28.00,+4.00,-29.00,-16.00,-2.00,+17.00,+107.00,+118.00,+19.00,+48.00,+10.00
-8.00,-4.00,-6.00,-7.00,-19.00,-25.00,-128.00,-45.00,+11.00,-3.00,-9.00,+7.00,+41.00,-10.00,-50.00,-6.00
+7.00,-2.00,-4.00,-26.00,-128.00,-128.00,-4.00,+6.00,+5.00,+8.00,+2.00,-23.00,+19.00,+48.00,-64.00,-22.00
-15.00,-13.00,-5.00,-4.00,+101.00,+25.00,-72.00,-22.00,-6.00,+5.00,+8.00,+42.00,+17.00,+33.00,-3.00,-2.00
-16.00,-2.00,-4.00,-4.00,-83.00,+40.00,+31.00,-15.00,+15.00,-1.00,-1.00,-23.00,+59.00,+8.00,+72.00,+28.00
+1.00,-2.00,+0.00,+0.00,+120.00,+81.00,+63.00,+8.00,-29.00,-7.00,+7.00,+5.00,-31.00,+30.00,-12.00,-12.00
+21.00,+15.00,+13.00,+34.00,+77.00,+48.00,+57.00,+17.00,+38.00,+2.00,+3.00,-3.00,-12.00,+18.00,-22.00,+25.00
-15.00,-9.00,-13.00,-18.00,+16.00,-128.00,-90.00,-24.00,+19.00,+14.00,+4.00,+1.00,+56.00,-45.00,+33.00,-7.00
+2.00,-13.00,-3.00,-11.00,-61.00,+17.00,+70.00,+45.00,-14.00,-2.00,+7.00,+79.00,-56.00,+11.00,+25.00,-3.00
+8.00,+23.00,+3.00,+17.00,+127.00,+113.00,-48.00,+5.00,-11.00,-1.00,-6.00,+12.00,-15.00,-7.00,-40.00,-14.00
-38.00,-22.00,-23.00,-14.00,+127.00,-54.00,+41.00,-46.00,-47.00,-28.00,-23.00,-44.00,-41.00,-18.00,-48.00,-23.00
-13.00,-6.00,+5.00,-2.00,-61.00,-31.00,-68.00,-62.00,+39.00,+21.00,+26.00,+10.00,-42.00,+63.00,-25.00,+29.00
+8.00,+6.00,+0.00,+1.00,+71.00,+15.00,+42.00,-11.00,-2.00,-8.00,-22.00,-26.00,-29.00,+22.00,-11.00,-24.00
-4.00,-13.00,-5.00,-3.00,+69.00,-22.00,+48.00,+12.00,+5.00,+13.00,+8.00,+8.00,-6.00,+30.00,+19.00,+21.00
-1.00,+2.00,+0.00,+0.00,+11.00,+95.00,+22.00,+5.00,-13.00,-7.00,-9.00,-7.00,-15.00,-41.00,-94.00,-20.00
+1.00,+5.00,+0.00,-3.00,-50.00,-13.00,-21.00,+26.00,+4.00,-2.00,-16.00,-74.00,+19.00,+30.00,+118.00,+16.00
+9.00,+6.00,+9.00,+29.00,+29.00,+23.00,+36.00,+6.00,-26.00,-11.00,-2.00,-34.00,+19.00,-64.00,-15.00,-20.00
-33.00,-27.00,-11.00,-15.00,+18.00,+8.00,-64.00,-34.00,+26.00,+15.00,+19.00,+66.00,+3.00,-17.00,-8.00,+12.00
+13.00,+17.00,+9.00,-3.00,-118.00,+7.00,-12.00,+6.00,-10.00,-9.00,-22.00,-47.00,+46.00,-15.00,+39.00,-4.00
+13.00,-1.00,-4.00,+2.00,-72.00,-49.00,+22.00,+16.00,-15.00,-15.00,-1.00,+64.00,-27.00,-86.00,-86.00,-23.00
+28.00,+15.00,+5.00,+9.00,+55.00,-58.00,-94.00,+19.00,-7.00,-5.00,-23.00,-120.00,+24.00,+24.00,-91.00,+6.00
-34.00,-26.00,-15.00,-12.00,-52.00,-72.00,-43.00,-44.00,+0.00,+16.00,+38.00,+88.00,+2.00,+51.00,+55.00,-12.00
+12.00,+2.00,+8.00,+6.00,-35.00,+6.00,+18.00,+26.00,+19.00,-9.00,-7.00,+17.00,+15.00,-110.00,+19.00,+17.00
-23.00,-17.00,-9.00,-3.00,-56.00,-7.00,+6.00,-18.00,-12.00,+3.00,+4.00,-10.00,+14.00,+73.00,+2.00,+20.00
+18.00,+9.00,+4.00,-1.00,-89.00,+54.00,+43.00,+41.00,+25.00,+12.00,+6.00,+50.00,+42.00,-2.00,-26.00,-6.00
+11.00,+18.00,+6.00,+5.00,-3.00,-20.00,+15.00,-1.00,-15.00,-7.00,-2.00,-6.00,+22.00,-60.00,-45.00,-8.00
-38.00,-26.00,-16.00,-9.00,+28.00,-108.00,-77.00,-54.00,+24.00,+16.00,+32.00,+66.00,+29.00,-21.00,+58.00,+18.00
+11.00,+5.00,+1.00,+2.00,-25.00,-41.00,-35.00,+6.00,-9.00,-7.00,-4.00,-10.00,-63.00,+60.00,+66.00,-16.00
-18.00,-13.00,-8.00,-9.00,-16.00,-63.00,-26.00,-25.00,+13.00,+9.00,+12.00,+25.00,-28.00,+3.00,-51.00,+10.00
+1.00,-6.00,+0.00,+0.00,-118.00,-68.00,+23.00,-15.00,-10.00,-14.00,-16.00,-8.00,+24.00,-18.00,-2.00,+1.00
+6.00,+9.00,+8.00,+6.00,+88.00,-35.00,+37.00,-22.00,-8.00,+7.00,+18.00,+77.00,-20.00,-31.00,-68.00,-7.00
+2.00,+3.00,-5.00,-11.00,+3.00,-43.00,-21.00,+11.00,+10.00,+5.00,-7.00,+11.00,+10.00,+28.00,+65.00,+21.00
+21.00,+2.00,+2.00,-6.00,+6.00,-74.00,+30.00,+27.00,-9.00,-1.00,+4.00,-37.00,-10.00,+14.00,+11.00,-5.00
-21.00,-7.00,+2.00,+12.00,+127.00,+80.00,+56.00,-3.00,-1.00,-1.00,-8.00,-32.00,+53.00,-42.00,-78.00,+1.00
+8.00,-10.00,-1.00,+5.00,-70.00,-31.00,-33.00,+10.00,-3.00,+3.00,+0.00,-32.00,-6.00,+54.00,+13.00,+33.00
-15.00,-7.00,-5.00,-10.00,+18.00,+21.00,+18.00,-35.00,-12.00,+1.00,-1.00,+22.00,+2.00,-16.00,-20.00,-3.00
-26.00,-3.00,-12.00,-20.00,+17.00,-73.00,-53.00,-48.00,-8.00,-8.00,-14.00,-3.00,+19.00,-25.00,-52.00,-18.00
+30.00,+11.00,+4.00,-11.00,-26.00,-83.00,-34.00,+15.00,+9.00,-9.00,-18.00,-34.00,+52.00,+63.00,+62.00,+40.00
-43.00,-19.00,-6.00,+3.00,+16.00,+15.00,+67.00,+15.00,+10.00,+10.00,+11.00,+26.00,+22.00,+62.00,-52.00,+20.00
-12.00,-2.00,-3.00,-4.00,+72.00,-10.00,-19.00,-47.00,+30.00,+0.00,-3.00,-24.00,+25.00,-46.00,-44.00,+11.00
+5.00,+4.00,+4.00,+4.00,-112.00,+79.00,-8.00,+9.00,-2.00,+6.00,+18.00,+60.00,-90.00,+27.00,+107.00,+9.00
-15.00,-12.00,-6.00,-2.00,+86.00,+2.00,-3.00,-14.00,-5.00,-17.00,-21.00,-35.00,-6.00,-37.00,-50.00,-2.00
+23.00,+12.00,+3.00,+4.00,-17.00,-4.00,+7.00,+33.00,-19.00,+0.00,-3.00,+15.00,+4.00,+19.00,-40.00,-16.00
+40.00,+20.00,+17.00,+18.00,+64.00,+51.00,+59.00,+60.00,-35.00,-14.00,-4.00,+46.00,+50.00,-21.00,-26.00,-30.00
-22.00,-2.00,-1.00,+12.00,+127.00,+92.00,-54.00,-39.00,+44.00,+9.00,+6.00,+16.00,-55.00,-37.00,-65.00,-5.00
+17.00,+3.00,+4.00,+8.00,-21.00,+27.00,+8.00,+9.00,+13.00,+11.00,+20.00,+43.00,-9.00,+72.00,+54.00,+10.00
+62.00,+41.00,+22.00,+24.00,+38.00,-29.00,-4.00,+104.00,-3.00,+0.00,-4.00,-17.00,+35.00,+109.00,+114.00,+26.00
-8.00,-1.00,+3.00,+11.00,+127.00,+90.00,-15.00,+29.00,-11.00,-6.00,+0.00,+48.00,+0.00,+42.00,-8.00,-11.00
-18.00,-25.00,-8.00,-9.00,+8.00,+20.00,+5.00,-17.00,-12.00,-14.00,-20.00,-41.00,-34.00,-41.00,-64.00,-6.00
+8.00,+10.00,+2.00,-3.00,+72.00,-94.00,-15.00,+11.00,-13.00,+9.00,+16.00,+25.00,-98.00,+36.00,+9.00,-10.00
-18.00,-16.00,-15.00,-23.00,-102.00,-8.00,-93.00,-32.00,+3.00,-8.00,-28.00,-41.00,-7.00,-53.00,+8.00,-18.00
+3.00,+1.00,+5.00,+12.00,+13.00,+106.00,-9.00,+2.00,+8.00,+10.00,+2.00,-5.00,+4.00,+62.00,+61.00,+2.00
-9.00,+7.00,-6.00,-1.00,+65.00,+21.00,-7.00,-20.00,-8.00,+2.00,+25.00,+49.00,+0.00,+14.00,+77.00,+26.00
-5.00,-4.00,-9.00,-25.00,-128.00,-122.00,+31.00,-32.00,-30.00,-14.00,-18.00,+4.00,-14.00,-44.00,-47.00,-46.00
-11.00,-17.00,-3.00,-11.00,-65.00,+32.00,+42.00,+4.00,+53.00,+27.00,+25.00,+21.00,-51.00,+15.00,+73.00,+29.00
+23.00,+15.00,+3.00,+0.00,-37.00,-53.00,+65.00,+70.00,-1.00,-10.00,-7.00,+6.00,-31.00,-61.00,-53.00,-7.00
-7.00,-22.00,-6.00,-6.00,-56.00,+17.00,+21.00,-7.00,-4.00,-4.00,-12.00,-28.00,+9.00,+48.00,-7.00,-2.00
+2.00,-2.00,-8.00,-4.00,-108.00,-43.00,-23.00,+2.00,-2.00,-1.00,-15.00,-61.00,+51.00,+0.00,+36.00,+13.00
+2.00,+9.00,-1.00,-7.00,+28.00,-14.00,-74.00,-28.00,-33.00,-15.00,-17.00,-21.00,-12.00,-54.00,-68.00,-35.00
-15.00,-19.00,-15.00,-29.00,-113.00,-106.00,+10.00,-37.00,+9.00,+0.00,-6.00,-35.00,-26.00,+0.00,-24.00,-13.00
+3.00,+0.00,+2.00,-3.00,+0.00,-91.00,+2.00,+9.00,+12.00,-1.00,-11.00,-14.00,+3.00,-40.00,-22.00,-4.00
-13.00,-4.00,-8.00,+5.00,+127.00,+104.00,+30.00,+9.00,+6.00,+7.00,+13.00,+23.00,-14.00,+11.00,+50.00,+14.00
-3.00,-10.00,-10.00,-20.00,-77.00,-89.00,+70.00,-26.00,-17.00,-14.00,-2.00,+34.00,+54.00,+86.00,-12.00,-21.00
-5.00,-8.00,-2.00,+2.00,+44.00,-23.00,+46.00,-9.00,+4.00,-3.00,+1.00,+27.00,-13.00,-5.00,+18.00,+13.00
-6.00,-2.00,-4.00,-11.00,-49.00,-64.00,+37.00,+9.00,+0.00,+5.00,-4.00,-46.00,+105.00,-19.00,-59.00,+11.00
+17.00,+11.00,+15.00,+14.00,-16.00,-19.00,-54.00,+24.00,+6.00,-5.00,-9.00,-34.00,-55.00,-17.00,-8.00,+0.00
+9.00,+15.00,+14.00,+28.00,+59.00,+80.00,-37.00,-6.00,+4.00,+5.00,+4.00,-12.00,-22.00,-69.00,+27.00,+2.00
-19.00,-7.00,-11.00,-14.00,-32.00,-54.00,-15.00,-55.00,-5.00,+5.00,+4.00,-5.00,+31.00,+16.00,-49.00,-15.00
+8.00,+7.00,+2.00,+4.00,-27.00,-23.00,-18.00,-31.00,-20.00,-4.00,+6.00,+55.00,+14.00,-21.00,+79.00,-1.00
+1.00,+6.00,+4.00,+7.00,-6.00,+91.00,+49.00,+23.00,+1.00,-4.00,-5.00,-7.00,-2.00,+31.00,-24.00,-9.00
+3.00,-4.00,-4.00,+3.00,+86.00,+12.00,+16.00,+25.00,-11.00,-2.00,+0.00,-39.00,-20.00,-27.00,-36.00,-19.00
-12.00,-5.00,+0.00,+5.00,-33.00,-44.00,-43.00,-25.00,-17.00,-7.00,+4.00,+37.00,+75.00,-5.00,-25.00,+2.00
+3.00,+23.00,+2.00,+5.00,+49.00,+25.00,-69.00,-14.00,+34.00,-1.00,-7.00,-27.00,+10.00,-31.00,-54.00,+6.00
+0.00,-3.00,+3.00,+4.00,+57.00,+19.00,-6.00,+19.00,+10.00,+4.00,+5.00,-16.00,-11.00,+24.00,+24.00,+14.00
-1.00,+1.00,-2.00,-8.00,+15.00,-51.00,+84.00,+2.00,-25.00,-5.00,-3.00,-44.00,-45.00,-12.00,+51.00,+4.00
+9.00,-4.00,+7.00,+5.00,+46.00,+122.00,-48.00,+13.00,+40.00,+10.00,-6.00,-40.00,-20.00,-25.00,+29.00,+24.00
-11.00,-19.00,-1.00,-5.00,-69.00,+17.00,+15.00,-32.00,-16.00,+0.00,-4.00,-18.00,-76.00,-26.00,-36.00,-21.00
-11.00,-6.00,-12.00,-11.00,+6.00,+30.00,-61.00,-13.00,-8.00,-8.00,+1.00,+31.00,+46.00,-48.00,-83.00,-14.00
-4.00,+10.00,+5.00,+0.00,-34.00,-1.00,+22.00,-1.00,-12.00,-3.00,+4.00,+29.00,+18.00,-22.00,+12.00,-14.00
+0.00,+3.00,+2.00,+12.00,+91.00,+37.00,-9.00,-1.00,+17.00,-2.00,-6.00,-70.00,-37.00,+2.00,+10.00,+17.00
+7.00,+0.00,+0.00,+5.00,+23.00,-40.00,+0.00,+27.00,-22.00,-13.00,-8.00,+5.00,+1.00,-21.00,-7.00,-21.00
+3.00,-8.00,-2.00,-8.00,-79.00,+14.00,+15.00,+24.00,+3.00,+7.00,-4.00,-4.00,+35.00,-17.00,-57.00,+14.00
-11.00,-10.00,+1.00,+5.00,+99.00,+50.00,+7.00,-2.00,-6.00,-4.00,-5.00,+26.00,-6.00,-15.00,+11.00,+1.00
+11.00,+11.00,+3.00,+6.00,+47.00,+65.00,-12.00,+28.00,-26.00,-8.00,+1.00,-9.00,-25.00,-46.00,-41.00,-11.00
+8.00,+1.00,-2.00,-12.00,-109.00,-74.00,+29.00,+30.00,+4.00,-1.00,-2.00,-14.00,+6.00,-53.00,-68.00,-11.00
-14.00,-12.00,-2.00,-2.00,+27.00,-84.00,-25.00,-28.00,-5.00,+3.00,+4.00,+6.00,-21.00,+48.00,+0.00,-22.00
+10.00,+0.00,-2.00,-2.00,-48.00,+28.00,-11.00,+1.00,-1.00,-2.00,+0.00,+33.00,+3.00,+12.00,-36.00,-6.00
+14.00,+19.00,+5.00,+2.00,-42.00,+4.00,+35.00,+2.00,-8.00,-7.00,-10.00,-47.00,-7.00,+47.00,+34.00,+1.00
+24.00,+11.00,+6.00,+7.00,-81.00,-36.00,-29.00,+23.00,-15.00,-5.00,-6.00,-9.00,+3.00,+61.00,+42.00,-9.00
-12.00,-6.00,-3.00,+7.00,+122.00,+15.00,-60.00,+2.00,+12.00,-4.00,-7.00,-10.00,-4.00,+55.00,+60.00,+31.00
+20.00,+10.00,+3.00,-4.00,-110.00,-57.00,+15.00,+7.00,+18.00,+9.00,+2.00,-29.00,+11.00,-23.00,+16.00,+4.00
-31.00,-19.00,-10.00,-9.00,+1.00,-50.00,+0.00,-12.00,-10.00,-4.00,+2.00,+19.00,-54.00,-5.00,-44.00,-26.00
-31.00,-21.00,-10.00,-7.00,-37.00,+27.00,-33.00,-27.00,+8.00,-8.00,-16.00,-33.00,+36.00,-10.00,-6.00,+4.00
+4.00,+11.00,+7.00,+4.00,+15.00,-3.00,-3.00,-16.00,-1.00,-8.00,-3.00,-26.00,-28.00,-44.00,-4.00,-9.00
-9.00,-3.00,+1.00,+2.00,+34.00,-88.00,-94.00,-33.00,+10.00,+0.00,-2.00,+23.00,+35.00,+61.00,+2.00,+12.00
-1.00,-3.00,-9.00,-10.00,+20.00,-16.00,+81.00,+8.00,-9.00,+0.00,-1.00,+1.00,+16.00,-43.00,-36.00,+4.00
+9.00,+9.00,+3.00,-2.00,-34.00,+18.00,-19.00,+10.00,-6.00,-11.00,-3.00,+26.00,+21.00,+25.00,+9.00,-4.00
-2.00,-8.00,-1.00,+6.00,-6.00,+8.00,+17.00,+5.00,+8.00,+0.00,+3.00,+26.00,+39.00,+15.00,-18.00,-4.00
+24.00,+10.00,+3.00,+3.00,-22.00,+13.00,+35.00,+57.00,+16.00,+2.00,+4.00,+18.00,+23.00,+37.00,-20.00,+7.00
-1.00,-2.00,+6.00,+12.00,+5.00,-13.00,-14.00,+10.00,-8.00,-2.00,-2.00,+1.00,+13.00,+33.00,+48.00,+3.00
-8.00,-3.00,-3.00,-5.00,+52.00,+0.00,-8.00,-16.00,-14.00,+5.00,+15.00,+61.00,-5.00,+43.00,+32.00,+4.00
+4.00,-3.00,+1.00,+1.00,-83.00,-32.00,+12.00,-6.00,+10.00,+1.00,-1.00,-12.00,-30.00,+6.00,+7.00,-8.00
-6.00,-5.00,-2.00,-3.00,+64.00,+19.00,-15.00,-12.00,+5.00,-2.00,-1.00,+6.00,-9.00,-10.00,+12.00,+7.00
+2.00,+2.00,-1.00,-1.00,+3.00,-6.00,-21.00,+1.00,+4.00,+2.00,+6.00,+20.00,+26.00,+3.00,+31.00,+4.00
-3.00,+0.00,-1.00,+3.00,+40.00,-1.00,+49.00,+14.00,+4.00,+5.00,+2.00,+1.00,+11.00,+34.00,+26.00,+15.00
-7.00,+6.00,+0.00,+0.00,+16.00,+56.00,+4.00,-22.00,+19.00,-1.00,-1.00,+3.00,-3.00,-6.00,+31.00,+6.00
-11.00,-1.00,+1.00,+5.00,-31.00,+39.00,-24.00,+2.00,-19.00,-8.00,-13.00,-30.00,-12.00,-51.00,-38.00,-10.00
-11.00,-13.00,-5.00,-8.00,-6.00,+0.00,+23.00,+6.00,-2.00,+0.00,-6.00,+13.00,+30.00,+38.00,+44.00,-12.00
-8.00,-6.00,-2.00,-5.00,-45.00,-7.00,+8.00,-16.00,+22.00,+18.00,+13.00,+12.00,-27.00,-13.00,-22.00,+14.00
+5.00,+16.00,+0.00,-5.00,+30.00,-4.00,+43.00,+15.00,-33.00,-8.00,-7.00,-21.00,+3.00,-38.00,-82.00,-16.00
-5.00,-10.00,-2.00,-7.00,-51.00,-36.00,+17.00,+4.00,+25.00,+3.00,-6.00,-9.00,-17.00,+1.00,-12.00,-2.00
+11.00,+18.00,+7.00,+3.00,+35.00,+42.00,+10.00,-1.00,+46.00,+15.00,+18.00,+37.00,-22.00,+8.00,+5.00,+25.00
+5.00,+2.00,+0.00,+4.00,-25.00,-22.00,+17.00,+13.00,-29.00,-8.00,-2.00,-6.00,-17.00,-27.00,-8.00,-14.00
+6.00,-1.00,+2.00,+5.00,+60.00,+39.00,-6.00,+11.00,-5.00,-7.00,-11.00,-42.00,-27.00,-44.00,-53.00,-5.00
-3.00,+5.00,-5.00,-8.00,-60.00,-63.00,-24.00,-16.00,-13.00,-6.00,+3.00,+3.00,+27.00,+2.00,+10.00,-4.00
-10.00,-9.00,-3.00,-1.00,-32.00,-8.00,-12.00,-10.00,-5.00,-1.00,+0.00,-7.00,-41.00,-9.00,-43.00,-5.00
-4.00,+6.00,+5.00,+5.00,+77.00,-2.00,-31.00,-13.00,+13.00,+3.00,-1.00,-2.00,-24.00,-9.00,+23.00,-3.00
+11.00,+9.00,+1.00,-4.00,+3.00,+58.00,+23.00,+10.00,+0.00,+5.00,+2.00,-6.00,+42.00,+53.00,+2.00,+11.00
-5.00,-8.00,-4.00,+5.00,-28.00,-29.00,-13.00,-18.00,-2.00,-1.00,-4.00,-4.00,-1.00,-1.00,-16.00,-4.00
+0.00,-4.00,-3.00,+0.00,-20.00,+38.00,+0.00,-9.00,-37.00,-11.00,-8.00,-19.00,-9.00,-51.00,-29.00,-25.00
-7.00,-17.00,-6.00,-4.00,+122.00,+46.00,-10.00,-1.00,+53.00,+5.00,-2.00,-14.00,+8.00,+9.00,+17.00,+24.00
+2.00,+29.00,+5.00,-2.00,-36.00,-12.00,-6.00,-3.00,-6.00,-2.00,+10.00,+36.00,-23.00,-6.00,+41.00,-1.00
+2.00,+1.00,+3.00,-2.00,-63.00,-11.00,-25.00,-4.00,-14.00,-10.00,-6.00,-12.00,+5.00,-2.00,-6.00,-5.00
+0.00,+5.00,+0.00,+0.00,-8.00,-55.00,-47.00,+1.00,-6.00,+1.00,+2.00,+11.00,+30.00,+31.00,-15.00,-2.00
+1.00,-4.00,-8.00,-5.00,+47.00,-15.00,-22.00,-5.00,-3.00,+2.00,-1.00,-3.00,-11.00,-4.00,+21.00,+4.00
-17.00,-19.00,-5.00,-2.00,-63.00,-75.00,+34.00,-17.00,-14.00,-4.00,-3.00,+2.00,-1.00,+2.00,+29.00,-3.00
+12.00,+9.00,+5.00,+5.00,+71.00,+113.00,+7.00,+20.00,+18.00,+8.00,+10.00,+21.00,-9.00,-3.00,-7.00,+6.00
+12.00,+4.00,+1.00,-3.00,-11.00,-8.00,-1.00,+1.00,-21.00,-18.00,-17.00,-33.00,-6.00,-66.00,-24.00,-13.00
+1.00,-10.00,+0.00,-3.00,-15.00,+8.00,-4.00,-2.00,-7.00,+3.00,+1.00,-9.00,+27.00,+13.00,-34.00,-13.00
-3.00,-18.00,-4.00,+1.00,-31.00,+4.00,-22.00,-10.00,-4.00,+1.00,-1.00,+1.00,-15.00,-3.00,+13.00,-8.00
-5.00,+23.00,+0.00,-1.00,+34.00,-12.00,+2.00,-11.00,-1.00,+2.00,+1.00,+12.00,-13.00,+7.00,+6.00,+8.00
+10.00,+8.00,+3.00,+6.00,+17.00,+29.00,+15.00,+5.00,+28.00,+8.00,+8.00,+32.00,+15.00,-19.00,-5.00,+15.00
+0.00,+5.00,-2.00,-3.00,+29.00,+44.00,+7.00,+9.00,-1.00,-3.00,+0.00,-2.00,-7.00,-1.00,-3.00,-6.00
-2.00,-5.00,-3.00,-5.00,-14.00,-34.00,+22.00,+6.00,+3.00,+4.00,-1.00,+3.00,-2.00,-16.00,+7.00,+2.00
-16.00,-18.00,-4.00,-4.00,+21.00,-33.00,-68.00,-29.00,-8.00,+6.00,+22.00,+6.00,+12.00,-15.00,-8.00,-5.00
+9.00,-2.00,+0.00,+2.00,+55.00,+78.00,+24.00,+7.00,-9.00,-15.00,-13.00,-1.00,-10.00,+21.00,-6.00,+5.00
-4.00,+8.00,-4.00,-11.00,-119.00,-42.00,+9.00,-15.00,+22.00,-9.00,-3.00,-12.00,-17.00,-33.00,-4.00,+5.00
+4.00,-4.00,+2.00,+0.00,-70.00,-63.00,-4.00,+6.00,-10.00,-6.00,-5.00,+3.00,+19.00,-47.00,-5.00,-8.00
-14.00,-20.00,-7.00,-2.00,+65.00,+47.00,+4.00,-11.00,+1.00,+7.00,-5.00,-1.00,-1.00,-6.00,+0.00,+6.00
-8.00,-6.00,-5.00,-6.00,-20.00,-27.00,-6.00,-10.00,+7.00,+27.00,+19.00,-5.00,+3.00,+10.00,-8.00,-6.00
-6.00,-7.00,-7.00,-10.00,-17.00,+1.00,-19.00,-5.00,-23.00,-22.00,-13.00,+3.00,+4.00,+7.00,+3.00,-2.00
-2.00,+10.00,+0.00,-6.00,-45.00,-29.00,+1.00,-5.00,+27.00,-2.00,-7.00,-13.00,-2.00,+8.00,-23.00,+0.00
+15.00,-5.00,+1.00,-1.00,-3.00,-15.00,+6.00,+10.00,-8.00,-4.00,-4.00,+5.00,+4.00,+41.00,-41.00,-10.00
-13.00,-37.00,-4.00,-3.00,-3.00,-9.00,+0.00,-5.00,-1.00,+4.00,-3.00,-3.00,+7.00,-76.00,-20.00,-3.00
+14.00,+18.00,-10.00,-1.00,+15.00,+13.00,+6.00,+8.00,-4.00,-1.00,+2.00,-7.00,+12.00,+26.00,-3.00,+6.00
+26.00,+63.00,+37.00,+18.00,+34.00,+46.00,-3.00,+10.00,+1.00,-1.00,-6.00,-14.00,-14.00,+9.00,+11.00,-3.00
+6.00,+10.00,-1.00,+0.00,-15.00,-30.00,-11.00,-4.00,+14.00,+2.00,-4.00,-21.00,+4.00,+36.00,-9.00,+3.00
-9.00,-1.00,-1.00,-3.00,-26.00,-25.00,-18.00,-9.00,-19.00,-11.00,-9.00,-27.00,-13.00,+44.00,+3.00,-12.00
-19.00,-36.00,+8.00,+2.00,+6.00,-4.00,-6.00,-6.00,-9.00,+4.00,-1.00,-3.00,+2.00,+66.00,+17.00,-12.00
+2.00,-22.00,-28.00,-5.00,+3.00,+11.00,-11.00,-4.00,+40.00,+11.00,+13.00,+17.00,-11.00,+35.00,+29.00,+11.00
-5.00,+28.00,+15.00,+3.00,+71.00,+50.00,+14.00,-4.00,-13.00,-13.00,-5.00,-4.00,-15.00,-10.00,+19.00,-9.00
+8.00,+6.00,+0.00,+0.00,-11.00,-21.00,-12.00,+1.00,+3.00,+41.00,+24.00,+9.00,+16.00,+59.00,+31.00,+7.00
-1.00,+3.00,+1.00,-1.00,-27.00,-11.00,+9.00,+0.00,-32.00,-21.00,+2.00,+5.00,+9.00,-7.00,-2.00,-6.00
-13.00,-23.00,-8.00,+1.00,+39.00,+43.00,-38.00,-2.00,+7.00,-20.00,-27.00,+10.00,+7.00,+20.00,+10.00,+1.00
-14.00,-22.00,-8.00,-2.00,+82.00,+36.00,-17.00,-18.00,-35.00,-13.00,-12.00,-8.00,-14.00,-30.00,-4.00,-11.00
+13.00,+31.00,+6.00,+1.00,-52.00,-16.00,-25.00,+3.00,-6.00,+4.00,-6.00,-1.00,-8.00,+27.00,-13.00,-7.00
+12.00,+14.00,+9.00,+10.00,+17.00,+10.00,-48.00,+5.00,+7.00,+59.00,+50.00,+9.00,-2.00,-30.00,-1.00,+4.00
-15.00,-52.00,-12.00,-5.00,+10.00,+18.00,-28.00,-9.00,+7.00,-29.00,-56.00,+16.00,-7.00,-4.00,+8.00,+4.00
-3.00,+23.00,-7.00,-2.00,+21.00,-12.00,+38.00,-8.00,+2.00,-7.00,+0.00,-10.00,+25.00,-56.00,+1.00,-4.00
+15.00,-1.00,+5.00,-2.00,-58.00,-31.00,+15.00,+6.00,+3.00,-15.00,-7.00,-15.00,-7.00,-97.00,-10.00,+2.00
+0.00,+4.00,+6.00,+2.00,-7.00,+9.00,-5.00,+7.00,-32.00,-2.00,-7.00,-1.00,+5.00,+35.00,+0.00,-18.00
-7.00,-13.00,-24.00,-8.00,+4.00,+9.00,+10.00,-12.00,-18.00,+17.00,+23.00,+1.00,-4.00,-16.00,-5.00,+4.00
-6.00,-25.00,+3.00,+1.00,+35.00,-8.00,-13.00,-2.00,+44.00,-23.00,-11.00,+3.00,-10.00,+6.00,+14.00,+19.00
-10.00,+23.00,+0.00,-8.00,-62.00,-40.00,+8.00,-6.00,-16.00,-19.00,-6.00,-13.00,-22.00,+4.00,-6.00,-8.00
+15.00,+22.00,+13.00,+11.00,+8.00,+4.00,+56.00,+5.00,+9.00,+14.00,-5.00,-42.00,-25.00,-80.00,-10.00,+2.00
-10.00,-43.00,-16.00,-12.00,-22.00,-14.00,+3.00,-4.00,-11.00,-1.00,+18.00,+0.00,-3.00,-21.00,+4.00,-2.00
-13.00,-46.00,-48.00,-12.00,-21.00,-6.00,+15.00,+3.00,-7.00,-11.00,-17.00,+1.00,-10.00,+11.00,+4.00,-4.00
+13.00,+89.00,+60.00,+22.00,+25.00,+39.00,+32.00,+5.00,+25.00,+4.00,+7.00,-27.00,-12.00,+22.00,-2.00,+4.00
-3.00,-13.00,-5.00,+1.00,-16.00,-38.00,-59.00,-9.00,-1.00,-16.00,-26.00,-15.00,+18.00,-8.00,-8.00,+1.00
-23.00,-1.00,+1.00,-5.00,-18.00,-14.00,-13.00,-12.00,-5.00,+7.00,+21.00,+2.00,+9.00,+31.00,-2.00,+0.00
-15.00,-36.00,-16.00,-9.00,-37.00,-9.00,+24.00,-13.00,-18.00,-12.00,-20.00,-12.00,-10.00,-23.00,-7.00,-7.00
+10.00,+5.00,-5.00,+3.00,+80.00,+37.00,+2.00,+11.00,-19.00,-19.00,-8.00,+2.00,-12.00,-3.00,-13.00,-11.00
+4.00,+34.00,+3.00,-6.00,-21.00,-11.00,-34.00,-1.00,+28.00,+4.00,-7.00,-4.00,+6.00,+11.00,-2.00,+14.00
+6.00,+18.00,+9.00,+5.00,-60.00,-22.00,+9.00,+7.00,-8.00,+24.00,+20.00,-2.00,-5.00,-55.00,-9.00,-10.00
-3.00,-6.00,-1.00,-2.00,-15.00,-10.00,-10.00,+3.00,+15.00,+3.00,+23.00,+16.00,+19.00,+15.00,+11.00,+10.00
-31.00,-58.00,-31.00,-15.00,+19.00,-3.00,-19.00,-14.00,-24.00,-53.00,-45.00,+3.00,+6.00,-6.00,-1.00,+2.00
+10.00,+17.00,+14.00,+16.00,+76.00,+32.00,+24.00,+4.00,-21.00,+2.00,+10.00,+9.00,-11.00,-9.00,-4.00,-11.00
+7.00,+16.00,-3.00,-3.00,-12.00,-9.00,+5.00,+1.00,+1.00,-28.00,+19.00,+5.00,+3.00,+17.00,+4.00,+1.00
+6.00,-2.00,+6.00,+0.00,-25.00,-2.00,+8.00,+1.00,+40.00,+39.00,-38.00,-2.00,-4.00,+8.00,+2.00,+2.00
-2.00,+0.00,-13.00,-5.00,-12.00,-19.00,-6.00,-4.00,-4.00,+14.00,+8.00,+14.00,+12.00,+38.00,-2.00,+2.00
-7.00,-13.00,-3.00,-1.00,+22.00,+16.00,-17.00,+2.00,+33.00,-16.00,-14.00,+4.00,-1.00,-4.00,+1.00,+3.00
+2.00,+12.00,+10.00,+6.00,-5.00,+13.00,+12.00,+2.00,-26.00,+4.00,+3.00,+3.00,+0.00,-8.00,-6.00,-6.00
-7.00,-3.00,+14.00,+5.00,-22.00,-11.00,-6.00,-1.00,-8.00,+7.00,+20.00,+6.00,-22.00,-1.00,-1.00,-6.00
+1.00,-40.00,-35.00,-5.00,+28.00,+10.00,+9.00,+1.00,+7.00,+4.00,+9.00,+18.00,+8.00,-53.00,-3.00,+8.00
-2.00,+6.00,+2.00,-6.00,+13.00,+15.00,+12.00,+1.00,-19.00,-14.00,-22.00,-46.00,+3.00,-14.00,-11.00,-17.00
+2.00,+29.00,+20.00,+5.00,+31.00,+3.00,+12.00,-1.00,-1.00,+3.00,+2.00,-9.00,+0.00,-6.00,-2.00,-4.00
-13.00,-21.00,-20.00,-14.00,-32.00,-20.00,-15.00,-6.00,+15.00,+9.00,+10.00,+6.00,-5.00,-15.00,+2.00,+5.00
+7.00,+14.00,-10.00,+1.00,-5.00,+7.00,+2.00,+7.00,-3.00,+3.00,-1.00,+0.00,-4.00,+6.00,-1.00,-1.00
-1.00,-5.00,+1.00,-6.00,+4.00,-1.00,+13.00,-9.00,-11.00,-6.00,+3.00,+13.00,-10.00,-44.00,-2.00,-3.00
+2.00,-1.00,-6.00,+0.00,-1.00,+1.00,-10.00,+7.00,+8.00,+10.00,-6.00,-3.00,-2.00,-18.00,-4.00,-5.00
+8.00,+14.00,+19.00,+2.00,-20.00,-8.00,+2.00,+0.00,+12.00,-12.00,-6.00,-10.00,+9.00,+7.00,+0.00,+5.00
-23.00,-49.00,-13.00,-5.00,+48.00,+9.00,-26.00,-12.00,+1.00,-2.00,+6.00,+2.00,+3.00,+11.00,+1.00,-1.00
+3.00,+15.00,-10.00,-8.00,-59.00,-43.00,+29.00,+1.00,-7.00,-21.00,-17.00,+13.00,+6.00,+14.00,+0.00,+5.00
+5.00,+5.00,+12.00,+7.00,-34.00,-5.00,-1.00,+5.00,-1.00,+23.00,+2.00,-12.00,+3.00,+15.00,+1.00,-3.00
+0.00,+13.00,+8.00,+5.00,+22.00,+12.00,+0.00,+1.00,-12.00,+28.00,+41.00,+17.00,+10.00,+36.00,+3.00,-4.00
+3.00,+1.00,+3.00,+0.00,+15.00,-2.00,-22.00,-3.00,+44.00,-10.00,-29.00,-10.00,-6.00,-4.00,+4.00,+12.00
-10.00,-9.00,-2.00,-5.00,-22.00,-18.00,-4.00,-9.00,-21.00,-10.00,-1.00,+1.00,-16.00,+18.00,-5.00,-12.00
-6.00,-24.00,-2.00,-1.00,+46.00,+19.00,-12.00,+0.00,-17.00,-28.00,-25.00,-38.00,-17.00,-8.00,-9.00,-12.00
+1.00,-15.00,-10.00,-4.00,-25.00,-6.00,-6.00,-1.00,-3.00,+20.00,+11.00,-4.00,+13.00,+33.00,+2.00,+7.00
+5.00,-6.00,-3.00,+1.00,-33.00,-5.00,-5.00,+2.00,-6.00,+12.00,+23.00,+10.00,+8.00,+12.00,+0.00,+0.00
-16.00,-29.00,+6.00,+4.00,+20.00,+20.00,+10.00,-3.00,+1.00,-16.00,-11.00,-17.00,+6.00,+20.00,-1.00,-3.00
+19.00,+48.00,+4.00,-1.00,-6.00,-4.00,+5.00,+5.00,+29.00,+7.00,+3.00,+21.00,+16.00,+70.00,+7.00,+9.00
+8.00,+15.00,+9.00,+8.00,+29.00,+19.00,-4.00,+4.00,-13.00,+0.00,-4.00,-20.00,+3.00,-11.00,-5.00,-4.00
-11.00,-10.00,+7.00,-4.00,-8.00,-3.00,+9.00,-5.00,-4.00,+1.00,-6.00,-12.00,-11.00,-58.00,-3.00,-4.00
-17.00,-55.00,-43.00,-10.00,-5.00,-1.00,-5.00,+0.00,+10.00,+13.00,+5.00,+22.00,+12.00,+47.00,+7.00,+0.00
+8.00,+20.00,+17.00,+6.00,+105.00,+33.00,+10.00,-2.00,-15.00,-5.00,+4.00,+6.00,-9.00,-21.00,+0.00,+4.00
+13.00,+16.00,+8.00,+0.00,-64.00,-22.00,+13.00,+2.00,-28.00,-18.00,-9.00,+3.00,-8.00,-12.00,-3.00,-12.00
-3.00,+19.00,+18.00,+7.00,-5.00,+4.00,+16.00,+3.00,+17.00,+7.00,+2.00,+8.00,+13.00,+32.00,+5.00,+8.00
-7.00,-40.00,-11.00,-2.00,-10.00,+1.00,-3.00,-4.00,-9.00,+7.00,+6.00,+5.00,-5.00,-15.00,+1.00,-1.00
-1.00,+30.00,-15.00,-5.00,+17.00,+10.00,-8.00,-3.00,+9.00,+6.00,+16.00,+5.00,+3.00,-12.00,-7.00,-5.00
+0.00,+29.00,+20.00,+10.00,+79.00,+46.00,+10.00,+6.00,-15.00,-64.00,-32.00,+6.00,+1.00,+14.00,+9.00,+9.00
+2.00,-6.00,+2.00,+2.00,-27.00,-11.00,+4.00,-1.00,-11.00,+7.00,+2.00,+12.00,+15.00,-6.00,-10.00,-11.00
+3.00,+8.00,+2.00,-3.00,-28.00,-8.00,-7.00,+2.00,+5.00,+12.00,+5.00,-10.00,+3.00,+30.00,+2.00,+7.00
-8.00,-30.00,-9.00,-5.00,+5.00,+3.00,+7.00,-3.00,-3.00,+4.00,-4.00,-10.00,-8.00,+6.00,-2.00,-5.00
+3.00,+3.00,-1.00,-4.00,-7.00,-11.00,-14.00,-4.00,-2.00,+29.00,+16.00,+7.00,+2.00,-15.00,-2.00,-9.00
+5.00,+19.00,+3.00,-2.00,+15.00,+9.00,+9.00,+2.00,+3.00,-5.00,+5.00,+18.00,-6.00,+19.00,+2.00,-3.00
-4.00,+7.00,-2.00,+1.00,-11.00,-10.00,+1.00,-4.00,-13.00,-8.00,+0.00,+12.00,+10.00,-12.00,+4.00,+7.00
-10.00,-24.00,+4.00,-4.00,-38.00,-17.00,-2.00,-6.00,-1.00,+6.00,-2.00,-3.00,-1.00,-43.00,-1.00,+1.00
-12.00,-55.00,-16.00,-9.00,-6.00,-10.00,-3.00,-7.00,+19.00,+60.00,+44.00,+4.00,-3.00,-9.00,-2.00,+1.00
-2.00,+22.00,-19.00,-2.00,+1.00,+0.00,-7.00,+4.00,-18.00,-52.00,-24.00,-8.00,-6.00,+4.00,+2.00,-1.00
+6.00,+50.00,+28.00,+12.00,+25.00,+21.00,-8.00,+2.00,-9.00,-50.00,-39.00,+10.00,-10.00,-12.00,-4.00,-7.00
-5.00,-18.00,-12.00,-5.00,-4.00,-33.00,-29.00,-6.00,-17.00,-22.00,-13.00,-4.00,-2.00,-22.00,-5.00,-10.00
+2.00,+7.00,+3.00,+1.00,-6.00,-8.00,+0.00,-5.00,+8.00,+6.00,-11.00,-6.00,-6.00,-14.00,-2.00,+7.00
-17.00,-35.00,-3.00,-4.00,-1.00,-4.00,+2.00,-8.00,-3.00,+37.00,+23.00,-3.00,-2.00,-1.00,-5.00,-5.00
-3.00,-24.00,-10.00,+0.00,+59.00,+5.00,-5.00,-1.00,+12.00,+11.00,+19.00,+18.00,-10.00,-1.00,+1.00,-1.00
+5.00,+4.00,+2.00,+0.00,-32.00,+1.00,-2.00,+0.00,-2.00,-12.00,-11.00,+21.00,+18.00,-9.00,+2.00,+3.00
+6.00,+29.00,+1.00,-1.00,-43.00,-18.00,-4.00,+1.00,-18.00,-16.00,-17.00,-42.00,-14.00,-81.00,-11.00,-16.00
-4.00,-35.00,+5.00,-3.00,-3.00,+5.00,+27.00,-1.00,-11.00,+4.00,+2.00,+8.00,+0.00,+0.00,-4.00,+0.00
+14.00,+15.00,-32.00,-2.00,+12.00,+8.00,+4.00,+5.00,+22.00,+7.00,-3.00,-31.00,-12.00,+9.00,+0.00,+6.00
+7.00,+28.00,+30.00,+4.00,+16.00,+9.00,+2.00,+2.00,-12.00,+0.00,-1.00,-3.00,-9.00,+20.00,+1.00,+1.00
-4.00,-5.00,-16.00,-8.00,-13.00,-10.00,+9.00,+2.00,+0.00,-3.00,-1.00,+4.00,+2.00,+6.00,+0.00,-2.00
+11.00,+36.00,+14.00,+3.00,-12.00,-12.00,-5.00,-2.00,-8.00,-11.00,-6.00,-4.00,-5.00,-7.00,+1.00,-2.00
-14.00,-8.00,+3.00,-5.00,-27.00,-6.00,-1.00,-4.00,-6.00,-2.00,-2.00,+10.00,-3.00,-34.00,-7.00,-7.00
-7.00,-30.00,-17.00,-5.00,+41.00,+23.00,-11.00,-2.00,-10.00,+5.00,+5.00,-2.00,-1.00,-5.00,+0.00,-2.00
+3.00,+17.00,+8.00,+1.00,+27.00,-29.00,-8.00,-3.00,+7.00,-13.00,+0.00,+4.00,+4.00,+15.00,+3.00,+6.00
-2.00,-11.00,-2.00,+4.00,-71.00,+0.00,+2.00,+1.00,+5.00,-8.00,-19.00,-18.00,-8.00,+4.00,-1.00,+2.00
-3.00,-12.00,-3.00,-4.00,-5.00,-7.00,+0.00,-3.00,-7.00,+15.00,+11.00,+6.00,+1.00,-3.00,+0.00,-1.00
-3.00,-15.00,-5.00,+4.00,-18.00,+9.00,-22.00,-2.00,+7.00,+45.00,+20.00,+2.00,-1.00,+3.00,-6.00,-10.00
+10.00,+30.00,+16.00,+8.00,+15.00,+4.00,-14.00,+7.00,-19.00,-21.00,+29.00,+22.00,+5.00,+2.00,+1.00,+1.00
+0.00,+5.00,-7.00,-4.00,+26.00,+7.00,+17.00,+3.00,-25.00,-68.00,-65.00,-19.00,-4.00,+18.00,-3.00,-6.00
+6.00,+14.00,+3.00,-1.00,-5.00,-1.00,+1.00,-1.00,+25.00,+31.00,+20.00,+64.00,+4.00,-21.00,+3.00,+5.00
-1.00,-5.00,+0.00,-3.00,-12.00,+5.00,+10.00,+4.00,+14.00,-3.00,-12.00,+17.00,-8.00,-8.00,+1.00,+6.00
-7.00,-27.00,-1.00,+1.00,+2.00,+10.00,-5.00,-4.00,-7.00,+38.00,+7.00,+7.00,+8.00,+37.00,+2.00,-7.00
-14.00,-23.00,-21.00,-2.00,-1.00,-11.00,-12.00,-3.00,-11.00,+2.00,+30.00,+7.00,-13.00,-8.00,+1.00,+0.00
+19.00,+65.00,+11.00,-1.00,-5.00,+7.00,+0.00,+4.00,-25.00,-10.00,+1.00,+21.00,+16.00,+8.00,+1.00,-9.00
+5.00,-2.00,+3.00,+2.00,+12.00,+5.00,+18.00,+3.00,+14.00,-5.00,-15.00,-50.00,+11.00,+21.00,-5.00,+6.00
-6.00,-7.00,+16.00,+1.00,-4.00,+8.00,+6.00,-5.00,-1.00,-14.00,-20.00,-6.00,-11.00,+5.00,-7.00,-11.00
-10.00,-65.00,-63.00,-9.00,+16.00,-1.00,-13.00,-8.00,+25.00,+22.00,+16.00,+10.00,+5.00,+11.00,+10.00,+23.00
+5.00,+52.00,+28.00,-4.00,+1.00,-8.00,-1.00,+4.00,+32.00,-2.00,-1.00,-7.00,-3.00,-1.00,+0.00,+8.00
-1.00,+2.00,-2.00,-4.00,+102.00,+46.00,-1.00,-4.00,+13.00,+12.00,+11.00,+13.00,-9.00,+3.00,+4.00,+12.00
-8.00,-4.00,-14.00,-16.00,-69.00,-68.00,-13.00,-1.00,-9.00,-15.00,-17.00,-15.00,+0.00,-11.00,-4.00,-3.00
-8.00,-53.00,+12.00,+0.00,+20.00,-3.00,-6.00,-7.00,-10.00,-10.00,+3.00,-7.00,+2.00,-4.00,-7.00,-15.00
-2.00,+27.00,-4.00,+0.00,+40.00,+23.00,-1.00,-2.00,-20.00,+6.00,+3.00,-14.00,-1.00,+0.00,-1.00,-2.00
+11.00,-2.00,-2.00,+2.00,-49.00,-34.00,+15.00,+5.00,+9.00,-2.00,-2.00,-6.00,-3.00,-11.00,-3.00,-4.00
+4.00,+15.00,+5.00,+2.00,-47.00,+26.00,+15.00,+5.00,-7.00,-24.00,-11.00,+2.00,-1.00,-5.00,-2.00,-2.00
-6.00,-1.00,-3.00,-8.00,-2.00,-9.00,-7.00,-5.00,+1.00,+24.00,+11.00,+5.00,+2.00,-1.00,+1.00,-1.00
-10.00,-60.00,-16.00,-6.00,-24.00,-27.00,-8.00,-7.00,+1.00,+24.00,+7.00,-15.00,+0.00,-4.00,-2.00,+3.00
+6.00,+22.00,+11.00,+1.00,-10.00,-10.00,+36.00,+5.00,-7.00,-28.00,-12.00,+10.00,-6.00,+0.00,+0.00,-2.00
+1.00,-9.00,-6.00,+6.00,+46.00,+24.00,+3.00,+2.00,-16.00,-8.00,-7.00,+6.00,-3.00,+2.00,+1.00,-3.00
+3.00,+14.00,+9.00,-2.00,-42.00,-22.00,-1.00,+3.00,+11.00,+19.00,+7.00,-25.00,-9.00,-10.00,-5.00,+0.00
-1.00,-9.00,+1.00,+2.00,-3.00,+9.00,+0.00,-3.00,+0.00,-3.00,+7.00,-11.00,+1.00,-3.00,+0.00,+1.00
-16.00,-5.00,-3.00,-3.00,-13.00,-1.00,-7.00,-6.00,+10.00,-24.00,-35.00,-6.00,+0.00,+6.00,+6.00,+12.00
-1.00,-19.00,-21.00,-1.00,+12.00,+6.00,-3.00,+0.00,-1.00,+10.00,+12.00,+5.00,-23.00,-18.00,-1.00,-1.00
+2.00,+13.00,+16.00,+4.00,+25.00,+16.00,+2.00,-3.00,+15.00,+11.00,-3.00,-7.00,+32.00,-69.00,-14.00,-9.00
-3.00,+31.00,+14.00,+3.00,+0.00,-3.00,-1.00,-1.00,-18.00,-5.00,-3.00,-14.00,-2.00,+22.00,+2.00,-7.00
-3.00,-27.00,-12.00,-2.00,-16.00,-9.00,-5.00,-6.00,-29.00,-4.00,+4.00,-16.00,-17.00,-1.00,-9.00,-13.00
-11.00,-9.00,-19.00,-4.00,+9.00,+2.00,+5.00,+7.00,+15.00,-8.00,-10.00,+1.00,-1.00,-10.00,+2.00,+3.00
+19.00,+61.00,+36.00,+9.00,+80.00,+30.00,-3.00,+10.00,+11.00,+12.00,+1.00,+11.00,-6.00,+2.00,-3.00,+0.00
-4.00,-36.00,-6.00,-6.00,-80.00,-45.00,-5.00,-6.00,-14.00,-8.00,-8.00,-8.00,-5.00,-36.00,-6.00,-4.00
-11.00,-2.00,+12.00,+4.00,-18.00,-15.00,-7.00,-5.00,-16.00,-4.00,+10.00,+15.00,+6.00,-2.00,+0.00,-2.00
-1.00,-14.00,-29.00,-5.00,+17.00,+14.00,-1.00,+0.00,+13.00,-6.00,-2.00,-1.00,+5.00,+13.00,+2.00,+4.00
+8.00,+28.00,-1.00,-9.00,+38.00,+22.00,-4.00,-2.00,-15.00,+4.00,+2.00,+1.00,-1.00,+15.00,+4.00,-1.00
+0.00,-30.00,-6.00,-1.00,-58.00,-27.00,-2.00,+3.00,+17.00,-1.00,-4.00,-2.00,+0.00,+3.00,-1.00,+0.00
+6.00,+21.00,+7.00,-2.00,+17.00,-6.00,-14.00,+0.00,-10.00,+6.00,+0.00,-3.00,-6.00,+4.00,+1.00,+3.00
-2.00,-3.00,+13.00,+8.00,+13.00,+10.00,-7.00,-5.00,-3.00,+9.00,-3.00,-6.00,+4.00,-5.00,-2.00,-2.00
-5.00,-19.00,-1.00,+2.00,-27.00,-8.00,+27.00,+2.00,-8.00,-9.00,+5.00,+9.00,-8.00,+12.00,+3.00,-3.00
-3.00,-4.00,-7.00,-3.00,+36.00,+16.00,+4.00,-4.00,+7.00,+0.00,+0.00,+22.00,-13.00,+3.00,+3.00,+7.00
+1.00,-32.00,-17.00,-6.00,-40.00,-21.00,-12.00,-4.00,+3.00,-9.00,-8.00,-33.00,+6.00,-19.00,-6.00,-7.00
+12.00,+53.00,+15.00,+1.00,+12.00,+6.00,+3.00,+2.00,-4.00,+4.00,+18.00,+1.00,+4.00,+7.00,-1.00,+0.00
+11.00,+28.00,+8.00,+5.00,-8.00,-4.00,-5.00,+5.00,-48.00,-36.00,-22.00,-8.00,-11.00,+9.00,+2.00,-8.00
-8.00,-35.00,-3.00,+1.00,+25.00,+12.00,+5.00,+1.00,+16.00,+2.00,-1.00,+27.00,+11.00,+6.00,+0.00,+4.00
+0.00,+1.00,-7.00,+1.00,-3.00,+3.00,+6.00,+2.00,+14.00,+11.00,+9.00,-23.00,-3.00,-14.00,-2.00,+4.00
-9.00,-18.00,-6.00,-8.00,+3.00,+2.00,-3.00,-5.00,-37.00,-25.00,-19.00,-12.00,-6.00,-1.00,-7.00,-13.00
-8.00,-7.00,+2.00,+2.00,-19.00,-8.00,-6.00,-9.00,+20.00,+12.00,+13.00,+1.00,-1.00,+7.00,-1.00,+0.00
-5.00,+1.00,-3.00,-1.00,+16.00,+8.00,+0.00,+0.00,+4.00,+20.00,+5.00,-6.00,-1.00,-1.00,+1.00,+3.00
-4.00,-2.00,-9.00,-8.00,-23.00,-11.00,+0.00,+0.00,-2.00,+3.00,+0.00,+18.00,+2.00,+0.00,+0.00,-6.00
+0.00,-18.00,+3.00,+1.00,-41.00,-23.00,+2.00,-3.00,-1.00,+0.00,+5.00,+2.00,+8.00,+2.00,+1.00,+0.00
+3.00,+22.00,+25.00,+4.00,+0.00,-4.00,-10.00,-2.00,-9.00,-10.00,-14.00,-9.00,-9.00,-7.00,-11.00,-14.00
-5.00,+1.00,-8.00,+10.00,+20.00,+10.00,+2.00,+1.00,-1.00,-12.00,-4.00,-7.00,+1.00,-2.00,+0.00,+7.00
+6.00,+32.00,+0.00,+1.00,+58.00,+33.00,-2.00,+3.00,+3.00,+13.00,+6.00,+10.00,-2.00,+3.00,+3.00,+6.00
+3.00,+16.00,+2.00,-9.00,-38.00,-28.00,+3.00,+6.00,+2.00,-3.00,-8.00,-5.00,-10.00,-2.00,+0.00,-1.00
-5.00,-22.00,-8.00,-5.00,-12.00,-2.00,-1.00,-3.00,-12.00,-6.00,-1.00,+8.00,+1.00,+3.00,-2.00,-7.00
-5.00,-37.00,-7.00,-4.00,-4.00,-2.00,-4.00,-6.00,-1.00,-3.00,-1.00,-20.00,-19.00,-3.00,-2.00,-5.00
+4.00,+64.00,+22.00,+13.00,+24.00,+15.00,+6.00,+1.00,-4.00,-11.00,+6.00,+30.00,-3.00,+12.00,+4.00,-2.00
+1.00,-2.00,+8.00,+4.00,+13.00,+7.00,-2.00,+4.00,-14.00,-10.00,-12.00,-19.00,+11.00,-10.00,-7.00,-7.00
-3.00,-8.00,-8.00,-3.00,-7.00,-2.00,-3.00,+2.00,+22.00,+0.00,-6.00,-16.00,-4.00,-13.00,+0.00,+4.00
-4.00,-15.00,-12.00,-8.00,-2.00,-5.00,-7.00,-8.00,-50.00,-16.00,+0.00,+11.00,-5.00,-13.00,-7.00,-23.00
-1.00,-10.00,-1.00,+3.00,-2.00,-2.00,+5.00,+5.00,+62.00,+0.00,-1.00,-16.00,+16.00,+14.00,+3.00,+25.00
+7.00,+23.00,+16.00,+6.00,+18.00,+23.00,+3.00,+1.00,+17.00,+22.00,-2.00,-5.00,-15.00,-23.00,-2.00,+6.00
-13.00,-22.00,-13.00,-4.00,-23.00,-18.00,-3.00,-4.00,-26.00,-9.00,+7.00,+4.00,+3.00,+5.00,+1.00,-1.00
+27.00,+49.00,+9.00,-1.00,+9.00,+10.00,+3.00,+10.00,+18.00,+5.00,-9.00,-14.00,+1.00,-10.00,-6.00,-6.00
-4.00,-3.00,-10.00,-7.00,+13.00,-3.00,-3.00,-6.00,-19.00,-5.00,+0.00,+7.00,+5.00,+0.00,-4.00,-15.00
-1.00,-4.00,-1.00,-5.00,-52.00,-27.00,-3.00,-2.00,+6.00,+1.00,+3.00,+5.00,+2.00,+8.00,+1.00,+1.00
+0.00,-2.00,-2.00,+6.00,+3.00,+14.00,+2.00,-1.00,+2.00,+7.00,+5.00,-6.00,+2.00,+0.00,-1.00,-3.00
-8.00,-22.00,-3.00,-2.00,+6.00,-1.00,+1.00,-4.00,-16.00,-16.00,-6.00,-5.00,+1.00,+3.00,+2.00,+7.00
+0.00,-9.00,-1.00,-1.00,+5.00,+1.00,-15.00,-1.00,-17.00,-24.00,-3.00,+6.00,-4.00,-4.00,-3.00,-10.00
+12.00,+6.00,+4.00,+7.00,+31.00,+2.00,+4.00,+4.00,+91.00,+37.00,+16.00,+11.00,+8.00,+15.00,+11.00,+30.00
-2.00,+15.00,+1.00,+0.00,+0.00,-16.00,-1.00,+3.00,-2.00,+18.00,-4.00,+34.00,-22.00,+9.00,-1.00,-2.00
+4.00,-17.00,+2.00,+0.00,-13.00,-6.00,+5.00,+0.00,-10.00,-15.00,-24.00,-70.00,+5.00,-17.00,-12.00,-10.00
-8.00,+26.00,+3.00,+0.00,-21.00,-3.00,-1.00,-7.00,-15.00,-4.00,-1.00,-4.00,-5.00,-3.00,+3.00,-1.00
-3.00,-16.00,-6.00,-2.00,+34.00,+16.00,-3.00,-7.00,-14.00,+6.00,+0.00,+2.00,-1.00,-3.00,-6.00,-12.00
+6.00,+17.00,-6.00,-3.00,-14.00,-3.00,-2.00,+2.00,+0.00,-20.00,+9.00,+11.00,+2.00,+13.00,+3.00,+5.00
-5.00,+14.00,+2.00,+0.00,+8.00,+7.00,-2.00,-2.00,-22.00,-14.00,-8.00,-4.00,-2.00,-4.00,-3.00,-9.00
-6.00,-54.00,-10.00,-9.00,-11.00,-8.00,+3.00,-1.00,+57.00,+28.00,+5.00,-1.00,+9.00,-2.00,+3.00,+10.00
-11.00,+6.00,+32.00,+3.00,+5.00,+2.00,-7.00,-10.00,-29.00,-23.00,-12.00,-14.00,-11.00,-1.00,-4.00,-9.00
+14.00,+35.00,-19.00,+4.00,+8.00,+5.00,+4.00,+8.00,+22.00,+26.00,+5.00,+3.00,+16.00,-5.00,+2.00,+10.00
+1.00,-16.00,+8.00,-2.00,+44.00,+8.00,-3.00,+1.00,-17.00,+9.00,+7.00,+9.00,+0.00,+14.00,-1.00,-6.00
-6.00,-9.00,-4.00,-1.00,-100.00,-35.00,+3.00,+1.00,-50.00,-18.00,-7.00,-10.00,-10.00,-9.00,-3.00,-7.00
+4.00,-10.00,-3.00,+3.00,+24.00,+0.00,+2.00,+1.00,-18.00,-38.00,-9.00,+10.00,+2.00,+0.00,+0.00,+1.00
-21.00,-58.00,-12.00,-6.00,+1.00,-3.00,-9.00,-14.00,+38.00,+61.00,+12.00,-3.00,+7.00,+9.00,+3.00,+4.00
+20.00,+52.00,+24.00,+9.00,+17.00,+6.00,+3.00,+9.00,+27.00,-11.00,+8.00,+12.00,+2.00,-4.00,+4.00,+16.00
+5.00,-10.00,-5.00,+2.00,-20.00,+28.00,+8.00,+2.00,-25.00,+8.00,-2.00,+2.00,-7.00,-1.00,-7.00,-14.00
-6.00,+1.00,-7.00,-3.00,+0.00,-4.00,-7.00,-2.00,-2.00,+3.00,-1.00,-1.00,+3.00,+5.00,-4.00,-3.00
-3.00,-18.00,-3.00,-5.00,-1.00,-4.00,-1.00,-6.00,-4.00,-28.00,-12.00,-12.00,-3.00,-15.00,-4.00,-5.00
-6.00,+11.00,-4.00,+0.00,-14.00,+7.00,+3.00,+3.00,+7.00,+21.00,+15.00,+10.00,+5.00,+4.00,+4.00,+9.00
-2.00,-5.00,-2.00,-1.00,+33.00,+11.00,+1.00,-6.00,+42.00,+1.00,+4.00,+33.00,+3.00,+15.00,+5.00,+21.00
+2.00,-3.00,-9.00,-3.00,-18.00,+3.00,+2.00,+0.00,-35.00,-16.00,-23.00,-57.00,-27.00,-25.00,-11.00,-13.00
+7.00,+6.00,-5.00,-6.00,+3.00,+4.00,-2.00,-1.00,+22.00,+19.00,+1.00,-2.00,-2.00,+0.00,+2.00,+5.00
-12.00,-30.00,+1.00,+0.00,-8.00,-1.00,+2.00,-1.00,-1.00,-8.00,-3.00,+17.00,+3.00,+4.00,+1.00,-4.00
+1.00,-4.00,-7.00,-4.00,+7.00,-5.00,-2.00,+0.00,-32.00,-26.00,-8.00,-4.00,-11.00,-2.00,-4.00,-13.00
-8.00,-18.00,-6.00,+1.00,+15.00,+1.00,-2.00,-1.00,+12.00,+21.00,+9.00,+6.00,+3.00,+7.00,+5.00,+10.00
+4.00,+20.00,+6.00,-1.00,-4.00,-5.00,-1.00,+2.00,-44.00,-15.00,-6.00,-7.00,+0.00,-3.00,-7.00,-17.00
-5.00,+3.00,-1.00,-3.00,-14.00,-5.00,-4.00,-9.00,+65.00,+21.00,+1.00,-12.00,-8.00,+1.00,+7.00,+25.00
+11.00,-13.00,+19.00,+9.00,+15.00,-2.00,+5.00,+10.00,-35.00,+5.00,+7.00,+5.00,+10.00,-3.00,+4.00,+2.00
-2.00,-17.00,-31.00,-11.00,+15.00,+10.00,-1.00,-1.00,+5.00,-4.00,+3.00,+12.00,+2.00,+3.00,-1.00,+1.00
+8.00,+16.00,+21.00,+18.00,-36.00,+28.00,+12.00,+7.00,-19.00,-13.00,-5.00,-10.00,-3.00,-4.00,-5.00,-13.00
-6.00,-38.00,-15.00,-6.00,-7.00,-5.00,-3.00,-2.00,-21.00,-34.00,-5.00,+14.00,+8.00,+4.00,-1.00,-5.00
+0.00,+42.00,+6.00,-4.00,+10.00,-4.00,-4.00,-6.00,+25.00,+33.00,+0.00,-8.00,-4.00,-6.00,-7.00,-8.00
+3.00,+1.00,+4.00,+1.00,+6.00,-3.00,+1.00,+1.00,-4.00,-15.00,+1.00,+12.00,+6.00,+6.00,+5.00,+7.00
-4.00,-10.00,+6.00,+2.00,+18.00,+6.00,-2.00,+6.00,-22.00,-21.00,-5.00,-5.00,-6.00,-2.00,-4.00,-9.00
-1.00,+4.00,-6.00,-2.00,-8.00,-8.00,-7.00,-6.00,+23.00,+1.00,-4.00,-1.00,+0.00,-5.00,-3.00,-2.00
-5.00,-10.00,-8.00,-5.00,-5.00,-9.00,-1.00,-1.00,-6.00,-6.00,-3.00,+2.00,-1.00,-3.00,-2.00,-4.00
-6.00,-25.00,-3.00,+3.00,+5.00,+16.00,+4.00,+2.00,-25.00,-3.00,-1.00,+29.00,-1.00,+9.00,-1.00,-5.00
-3.00,+27.00,+3.00,-4.00,+4.00,-8.00,-5.00,-3.00,+25.00,+6.00,-5.00,-50.00,-20.00,-11.00,+1.00,+17.00
-9.00,-19.00,-11.00,-3.00,-4.00,-1.00,+0.00,-3.00,-14.00,+15.00,-5.00,-7.00,+0.00,-6.00,-4.00,-9.00
+1.00,+18.00,+2.00,-5.00,+0.00,-11.00,-6.00,-4.00,+6.00,+10.00,-2.00,-5.00,+0.00,-4.00,-3.00,-8.00
-3.00,-22.00,-14.00,+1.00,-9.00,-5.00,-1.00,-2.00,-12.00,-12.00,+2.00,+11.00,+0.00,+3.00,+0.00,-5.00
+0.00,-10.00,-1.00,-7.00,+2.00,-7.00,-4.00,+0.00,-3.00,+6.00,+4.00,+7.00,+5.00,+1.00,+0.00,+2.00
+1.00,+20.00,+7.00,+2.00,-2.00,-7.00,+1.00,-3.00,-16.00,+3.00,-6.00,-7.00,-16.00,-4.00,-3.00,-7.00
-12.00,-26.00,-20.00,-3.00,+2.00,+3.00,-3.00,-5.00,-4.00,-34.00,-10.00,-11.00,-8.00,-6.00,-6.00,-8.00
+8.00,+29.00,-3.00,-7.00,-7.00,-4.00,-2.00,-1.00,+14.00,+31.00,+16.00,+9.00,+16.00,+5.00,+5.00,+7.00
-4.00,-22.00,+0.00,-2.00,+30.00,-4.00,-4.00,-1.00,+12.00,-3.00,+2.00,+14.00,+6.00,+5.00,+1.00,+7.00
-4.00,+5.00,+4.00,+7.00,-11.00,-19.00,+4.00,+3.00,-10.00,+2.00,+6.00,+0.00,+2.00,-1.00,-3.00,-10.00
-3.00,-12.00,-1.00,-2.00,-24.00,-9.00,-4.00,-4.00,+20.00,+21.00,-4.00,+1.00,+0.00,-3.00,-1.00,+3.00
-1.00,+13.00,+4.00,+2.00,-5.00,-2.00,-1.00,-2.00,+20.00,-11.00,+0.00,+1.00,+1.00,-4.00,-5.00,-10.00
+3.00,-23.00,-14.00,-9.00,+2.00,-4.00,+0.00,+2.00,-15.00,-7.00,+15.00,+11.00,+6.00,+4.00,+4.00,+6.00
-2.00,+7.00,+6.00,-1.00,+11.00,+29.00,+0.00,+2.00,-13.00,-8.00,-23.00,-6.00,-5.00,+0.00,+0.00,+2.00
-8.00,-30.00,-10.00,-4.00,+3.00,-19.00,-3.00,-3.00,-10.00,-19.00,-2.00,-2.00,+1.00,-1.00,-1.00,-4.00
+4.00,+22.00,+5.00,+3.00,-8.00,-11.00,-5.00,-4.00,+12.00,+4.00,-6.00,-3.00,+1.00,-1.00,+1.00,+5.00
+6.00,+14.00,+18.00,+7.00,+5.00,+13.00,+8.00,+8.00,+22.00,+21.00,+6.00,+4.00,+0.00,+2.00,-1.00,+1.00
-5.00,-4.00,+3.00,+0.00,+3.00,+2.00,-1.00,-2.00,-12.00,-24.00,-1.00,+19.00,+6.00,+5.00,-2.00,-3.00
+4.00,+14.00,+1.00,-1.00,+3.00,+4.00,+1.00,+0.00,+11.00,+12.00,-4.00,-11.00,-6.00,-4.00,-1.00,+10.00
-3.00,-4.00,-11.00,-7.00,-1.00,+5.00,-3.00,-5.00,-16.00,-13.00,-15.00,-46.00,-6.00,-19.00,-9.00,-16.00
-10.00,+8.00,+20.00,+1.00,-3.00,-10.00,-5.00,-10.00,+0.00,-12.00,-1.00,-1.00,+3.00,-3.00,+0.00,-1.00
+15.00,+4.00,-21.00,+3.00,-8.00,-4.00,+3.00,+9.00,-16.00,-6.00,+3.00,+3.00,-1.00,+2.00,+1.00,+0.00
+2.00,-10.00,+0.00,-5.00,+5.00,+1.00,-2.00,+2.00,+6.00,+5.00,+7.00,+28.00,+17.00,+9.00,+5.00,+8.00
-10.00,-2.00,+3.00,-5.00,+3.00,-5.00,-2.00,-5.00,-13.00,+10.00,-1.00,-6.00,-11.00,-2.00,-2.00,-5.00
-8.00,-17.00,-7.00,-4.00,-7.00,-4.00,-4.00,-5.00,-13.00,-29.00,-10.00,-4.00,-4.00,-3.00,-3.00,-6.00
+3.00,+9.00,+2.00,+0.00,-8.00,-7.00,-2.00,-1.00,-16.00,+13.00,+3.00,-5.00,+3.00,-7.00,-4.00,-5.00
+3.00,+0.00,-5.00,-5.00,+41.00,+21.00,-5.00,-2.00,+24.00,-7.00,+2.00,+8.00,+6.00,+2.00,+2.00,-1.00
-4.00,-9.00,+3.00,+2.00,-35.00,-10.00,+3.00,+4.00,-1.00,+4.00,+0.00,+6.00,+3.00,+1.00,+0.00,+7.00
+5.00,+14.00,-1.00,+6.00,-16.00,+0.00,+4.00,-2.00,+3.00,+3.00,-9.00,+2.00,-1.00,-2.00,-3.00,-6.00
-15.00,-13.00,-3.00,-4.00,+6.00,-1.00,-4.00,-5.00,+35.00,+23.00,+8.00,+1.00,-5.00,-1.00,+2.00,+7.00
-5.00,-38.00,-11.00,-1.00,+0.00,-9.00,-1.00,-2.00,-30.00,-34.00,-13.00,-12.00,-6.00,-5.00,-5.00,-8.00
+6.00,+75.00,+18.00,+1.00,+45.00,+25.00,-1.00,+0.00,+23.00,+20.00,+6.00,+4.00,-5.00,+1.00,+0.00,+10.00
-8.00,-16.00,-17.00,-7.00,-44.00,-29.00,-7.00,-6.00,+17.00,-20.00,-1.00,+1.00,-4.00,+1.00,-1.00,+1.00
+3.00,-13.00,-5.00,-5.00,-8.00,-6.00,-2.00,-3.00,-34.00,-3.00,+4.00,-3.00,-3.00,-3.00,-2.00,-4.00
-4.00,+14.00,+8.00,+2.00,-4.00,+6.00,+4.00,+2.00,+9.00,+7.00,+1.00,-13.00,-6.00,-3.00,+1.00,+2.00
-3.00,-18.00,-5.00,-1.00,+5.00,+7.00,+2.00,+3.00,-6.00,-8.00,-2.00,+0.00,+3.00,-1.00,-1.00,-3.00
+11.00,+29.00,+2.00,-1.00,+6.00,+4.00,-2.00,+0.00,-22.00,-2.00,+5.00,+22.00,+12.00,+4.00,+0.00,-8.00
+1.00,-12.00,-6.00,-4.00,+1.00,+0.00,-1.00,-3.00,+8.00,-6.00,-4.00,-8.00,-8.00,-2.00,-1.00,+1.00
-2.00,+10.00,+3.00,+1.00,-8.00,-2.00,-4.00,-6.00,-1.00,+23.00,+5.00,+17.00,+9.00,+7.00,+3.00,+5.00
+3.00,-24.00,+1.00,-1.00,+0.00,-3.00,-1.00,+1.00,-17.00,-9.00,-12.00,-34.00,-19.00,-11.00,-6.00,-4.00
-3.00,-14.00,-13.00,-3.00,+13.00,-2.00,-5.00,-5.00,+12.00,+13.00,+1.00,-2.00,-7.00,-2.00,+2.00,+6.00
+7.00,+7.00,+6.00,+2.00,-5.00,+2.00,+6.00,+10.00,+0.00,-15.00,-1.00,-2.00,+1.00,+2.00,+1.00,-1.00
+5.00,+19.00,-2.00,-2.00,+0.00,+5.00,+0.00,+0.00,-5.00,-4.00,-3.00,-8.00,-8.00,-6.00,-4.00,-7.00
-6.00,+3.00,+6.00,+1.00,-12.00,-16.00,+0.00,-2.00,+17.00,+3.00,+2.00,+20.00,+13.00,+7.00,+2.00,+5.00
+5.00,-4.00,+2.00,-1.00,+5.00,+3.00,-2.00,+0.00,-11.00,-4.00,-2.00,-1.00,-3.00,-2.00,-1.00,+0.00
-1.00,+5.00,-1.00,-3.00,+5.00,+6.00,-4.00,-4.00,+34.00,+21.00,+7.00,-4.00,-2.00,-2.00,-2.00,+4.00
-3.00,-5.00,-3.00,-1.00,-2.00,-11.00,+0.00,-1.00,-4.00,-6.00,+1.00,+0.00,+0.00,-1.00,-2.00,-6.00
-10.00,-14.00,-2.00,-4.00,-7.00,-2.00,-3.00,-2.00,-16.00,-15.00,+1.00,+11.00,+7.00,+3.00,+1.00,-5.00
-2.00,-4.00,-3.00,+4.00,-13.00,-6.00,+3.00,+0.00,+20.00,+20.00,-4.00,-10.00,-4.00,-5.00,-4.00,-1.00
+0.00,+6.00,+0.00,-2.00,-5.00,+3.00,-2.00,-2.00,-30.00,-22.00,+1.00,+6.00,+5.00,+0.00,-1.00,-6.00
+11.00,+24.00,+5.00,+3.00,+8.00,+6.00,+0.00,+3.00,-14.00,-3.00,-1.00,-6.00,-7.00,-3.00,-6.00,-8.00
+3.00,+32.00,+2.00,+0.00,+16.00,+0.00,-2.00,-2.00,+14.00,+4.00,+4.00,+5.00,+0.00,+3.00,+1.00,-1.00
-6.00,-18.00,-2.00,-1.00,-4.00,-3.00,+0.00,+3.00,+30.00,+14.00,+0.00,-5.00,-3.00,-1.00,+2.00,+10.00
-16.00,-26.00,-11.00,-6.00,-10.00,-8.00,-3.00,-6.00,-15.00,-6.00,+1.00,+6.00,+4.00,-1.00,-2.00,-10.00
+11.00,+6.00,+7.00,+5.00,-9.00,-4.00,+0.00,+1.00,-3.00,-2.00,-2.00,-6.00,+0.00,+1.00,+0.00,+2.00
+2.00,-5.00,+2.00,+2.00,+12.00,+7.00,-2.00,-2.00,-6.00,+11.00,-2.00,+7.00,-4.00,-4.00,-2.00,-2.00
+2.00,+13.00,+0.00,-2.00,+5.00,+2.00,-1.00,+1.00,-7.00,-4.00,-4.00,-16.00,-10.00,-3.00,-3.00,+1.00
-5.00,-19.00,-7.00,-5.00,-2.00,-2.00,-2.00,-2.00,+13.00,-9.00,-1.00,+3.00,+13.00,+1.00,+0.00,+3.00
+5.00,+38.00,+9.00,+0.00,-4.00,+1.00,-1.00,+1.00,-7.00,+3.00,-1.00,-11.00,-8.00,-5.00,-2.00,-3.00
-2.00,-40.00,-15.00,-3.00,-8.00,-4.00,+0.00,+1.00,+11.00,-2.00,+0.00,+10.00,+7.00,+0.00,-1.00,-2.00
+0.00,+45.00,+14.00,+5.00,+10.00,+5.00,-2.00,-2.00,-19.00,-16.00,-1.00,+5.00,+3.00,+2.00,+0.00,-8.00
+3.00,-13.00,+1.00,-1.00,-5.00,-4.00,+2.00,+2.00,+19.00,+15.00,+1.00,-4.00,-2.00,-1.00,+1.00,+11.00
-6.00,-12.00,-2.00,+1.00,+16.00,+8.00,-1.00,-1.00,+7.00,+7.00,+1.00,-4.00,-11.00,-3.00,-3.00,-3.00
+3.00,+5.00,-1.00,-2.00,-24.00,-8.00,+0.00,+0.00,+9.00,-6.00,-3.00,-3.00,+12.00,-1.00,+0.00,+3.00
-5.00,-20.00,-8.00,-6.00,-10.00,+1.00,-2.00,-2.00,-13.00,+9.00,+0.00,+7.00,+4.00,+0.00,+1.00,+0.00
-6.00,+5.00,+4.00,+4.00,+32.00,-5.00,-3.00,-4.00,+22.00,-9.00,-7.00,-13.00,-18.00,-5.00,-1.00,+3.00
-5.00,-21.00,-6.00,-4.00,-32.00,-10.00,+0.00,-1.00,-16.00,-3.00,+0.00,+0.00,+8.00,+0.00,+0.00,+2.00
+3.00,+15.00,+8.00,+3.00,+9.00,+5.00,+2.00,+2.00,+16.00,+9.00,+4.00,-1.00,-4.00,+0.00,+3.00,+3.00
-7.00,+4.00,-4.00,-5.00,+1.00,-2.00,-2.00,-3.00,-13.00,-7.00,-1.00,-2.00,-1.00,+2.00,+0.00,-2.00
+8.00,+7.00,+6.00,+3.00,-4.00,+4.00,+0.00,+0.00,-9.00,+2.00,+0.00,+8.00,+0.00,-1.00,-2.00,+0.00
-7.00,-17.00,-13.00,-4.00,+6.00,+3.00,-1.00,-3.00,+5.00,-14.00,-7.00,-2.00,-1.00,+0.00,-2.00,-4.00
-3.00,-10.00,+2.00,+3.00,-1.00,-6.00,+0.00,-1.00,-32.00,-4.00,-2.00,-2.00,-8.00,+0.00,-1.00,-7.00
+2.00,+4.00,-1.00,-3.00,-11.00,-9.00,+2.00,+0.00,+10.00,-1.00,+4.00,+4.00,+3.00,-1.00,+0.00,+3.00
-4.00,-1.00,-2.00,-4.00,+2.00,+6.00,-2.00,+0.00,+17.00,+11.00,+0.00,+0.00,+4.00,+2.00,+1.00,+1.00
-6.00,-8.00,-4.00,-2.00,-12.00,-9.00,-2.00,-3.00,-19.00,-5.00,-4.00,-4.00,-8.00,-3.00,-4.00,-3.00
+7.00,+10.00,-2.00,-3.00,-1.00,+7.00,-1.00,-1.00,+5.00,+0.00,+0.00,+2.00,+6.00,+2.00,+0.00,+7.00
+2.00,-2.00,+1.00,+0.00,+7.00,+0.00,-1.00,-1.00,-6.00,-15.00,-3.00,-4.00,-6.00,-2.00,-2.00,-10.00
+2.00,+3.00,+0.00,+0.00,-3.00,-3.00,+0.00,+3.00,-14.00,+4.00,+0.00,+1.00,+3.00,+1.00,+0.00,-2.00
+1.00,-2.00,-2.00,-4.00,-5.00,+1.00,-2.00,-1.00,+0.00,+0.00,-5.00,-2.00,-4.00,-2.00,-1.00,-1.00
+3.00,+1.00,+5.00,+0.00,+0.00,-6.00,+0.00,+0.00,+21.00,+9.00,-2.00,-2.00,-3.00,-2.00,-4.00,-3.00
-1.00,-36.00,-8.00,-1.00,+8.00,+2.00,+1.00,+0.00,-57.00,-22.00,+0.00,-2.00,-6.00,-1.00,-1.00,-5.00
+1.00,+21.00,+4.00,+1.00,-7.00,-1.00,+0.00,+2.00,+7.00,-1.00,-2.00,+3.00,-2.00,-2.00,-2.00,-3.00
-5.00,-17.00,-5.00,+0.00,+3.00,-1.00,+0.00,-1.00,+2.00,+4.00,+3.00,-6.00,-3.00,-1.00,-1.00,-4.00
-5.00,+15.00,-4.00,-2.00,+0.00,+1.00,-4.00,-5.00,-22.00,-10.00,-5.00,-6.00,-21.00,-6.00,-1.00,+1.00
-2.00,-3.00,-2.00,-2.00,+6.00,+2.00,+3.00,+2.00,+22.00,-4.00,-7.00,-3.00,+6.00,-2.00,-3.00,-6.00
-1.00,+8.00,-1.00,-4.00,-12.00,-4.00,-4.00,-4.00,-12.00,+9.00,+2.00,+1.00,+10.00,-4.00,+0.00,-2.00
-1.00,+1.00,+15.00,+7.00,+1.00,+3.00,+6.00,+4.00,+18.00,+0.00,+1.00,-1.00,-12.00,+1.00,+6.00,+15.00
-10.00,-18.00,-14.00,-5.00,+5.00,-3.00,-4.00,-4.00,+13.00,-8.00,-2.00,-3.00,+2.00,+2.00,-1.00,-2.00
-4.00,-5.00,+2.00,+0.00,+23.00,+8.00,+0.00,+0.00,-16.00,+0.00,-5.00,-9.00,-3.00,-5.00,-4.00,-9.00
+7.00,+18.00,-2.00,-3.00,-32.00,-18.00,+0.00,-3.00,+12.00,+2.00,+5.00,+5.00,+8.00,+3.00,+2.00,+8.00
-3.00,-11.00,+0.00,+0.00,+8.00,+6.00,+1.00,+3.00,-13.00,+12.00,+0.00,-2.00,+5.00,-3.00,-3.00,-5.00
+4.00,+6.00,-1.00,+1.00,+0.00,-8.00,+3.00,+2.00,-7.00,-12.00,+2.00,-1.00,-1.00,+0.00,-1.00,-4.00
+2.00,+7.00,-1.00,-2.00,-14.00,-2.00,-1.00,-1.00,-10.00,-12.00,-6.00,+3.00,+3.00,+1.00,+0.00,-4.00
-8.00,-26.00,-10.00,-2.00,+5.00,-2.00,-4.00,-5.00,-3.00,+4.00,-1.00,-2.00,-4.00,-1.00,-1.00,+0.00
-4.00,+6.00,+3.00,+1.00,-8.00,+3.00,-2.00,-3.00,+43.00,+21.00,+3.00,+1.00,+2.00,+0.00,+2.00,+13.00
+6.00,+11.00,+1.00,-1.00,+8.00,+2.00,+1.00,+1.00,-9.00,-3.00,+1.00,-1.00,-4.00,-4.00,-2.00,-6.00
-5.00,-2.00,+5.00,+1.00,+2.00,+4.00,-2.00,-1.00,+6.00,+1.00,+4.00,+8.00,+2.00,+1.00,+1.00,+4.00
+1.00,+0.00,+0.00,+1.00,+11.00,+5.00,-1.00,+0.00,-13.00,-9.00,-5.00,-7.00,-9.00,-2.00,-1.00,-7.00
-1.00,-4.00,-3.00,-3.00,-8.00,-5.00,-2.00,-1.00,-11.00,-9.00,-8.00,-7.00,-8.00,-5.00,-1.00,-4.00
-11.00,-20.00,-15.00,-7.00,-6.00,-2.00,-6.00,-4.00,+2.00,+15.00,+3.00,+8.00,+9.00,+0.00,+1.00,-2.00
+14.00,+38.00,+15.00,+4.00,+0.00,+0.00,+2.00,+4.00,+11.00,+2.00,+0.00,+8.00,+4.00,+2.00,+3.00,+9.00
+14.00,+10.00,+6.00,+4.00,+3.00,+4.00,+2.00,+5.00,-22.00,-9.00,-6.00,-15.00,-18.00,-4.00,-2.00,-7.00
+1.00,+3.00,-4.00,-2.00,+6.00,-2.00,-4.00,-3.00,-13.00,+1.00,+4.00,+0.00,+1.00,+0.00,+0.00,+0.00
-4.00,-27.00,-11.00,-4.00,+2.00,+1.00,+0.00,-2.00,-4.00,-14.00,-5.00,-4.00,+2.00,-2.00,-1.00,-5.00
-5.00,+6.00,-7.00,-4.00,-15.00,-5.00,-5.00,-5.00,-22.00,+1.00,-5.00,-3.00,-4.00,-4.00,-4.00,-5.00
+4.00,+7.00,+9.00,+0.00,-2.00,-3.00,+3.00,+2.00,+38.00,+6.00,+0.00,+6.00,+6.00,+0.00,-2.00,+1.00
+0.00,+1.00,+2.00,-1.00,+30.00,+9.00,-3.00,-1.00,+13.00,+8.00,+4.00,+3.00,+24.00,+0.00,+2.00,+0.00
+3.00,-5.00,-1.00,+0.00,-25.00,-20.00,+0.00,+1.00,+3.00,+6.00,+1.00,-10.00,-10.00,-2.00,-2.00,-3.00
-8.00,-15.00,-12.00,-5.00,-2.00,-5.00,-2.00,-6.00,+10.00,+4.00,+3.00,+0.00,+2.00,+1.00,-1.00,+8.00
+4.00,+17.00,+8.00,+1.00,+6.00,+1.00,+2.00,+5.00,-40.00,-21.00,+1.00,-2.00,-3.00,+0.00,-2.00,-12.00
-5.00,-8.00,-2.00,-2.00,-4.00,-6.00,-2.00,-2.00,+43.00,+7.00,-1.00,+3.00,+1.00,-1.00,-1.00,-3.00
-3.00,+8.00,+1.00,+0.00,+4.00,+2.00,-3.00,-3.00,+13.00,-14.00,-3.00,+0.00,+1.00,+0.00,+2.00,+8.00
+1.00,-13.00,-4.00,+1.00,+1.00,+2.00,+1.00,-1.00,+4.00,+11.00,-2.00,-3.00,+1.00,-2.00,-1.00,+1.00
-8.00,-13.00,-12.00,-3.00,+13.00,+5.00,-1.00,-4.00,-3.00,+4.00,-4.00,+0.00,+2.00,-2.00,-4.00,-1.00
+0.00,-5.00,-1.00,-1.00,-9.00,+0.00,-1.00,-1.00,-14.00,-3.00,-2.00,-1.00,-3.00,-1.00,-1.00,-6.00
+0.00,+23.00,+6.00,+2.00,-10.00,-4.00,+0.00,+1.00,-1.00,-18.00,-5.00,-3.00,+0.00,-2.00,-4.00,-2.00
-2.00,-15.00,-4.00,-1.00,-1.00,-2.00,+0.00,-1.00,+6.00,+11.00,+2.00,-1.00,-3.00,+0.00,+0.00,+1.00
-8.00,-10.00,-4.00,+0.00,-1.00,+4.00,+0.00,-3.00,+7.00,-4.00,-3.00,-3.00,-3.00,-2.00,-1.00,-1.00
+2.00,+4.00,-3.00,+0.00,-2.00,-2.00,+0.00,-1.00,-26.00,-13.00,+3.00,+5.00,+0.00,+1.00,-2.00,+1.00
-8.00,-19.00,-6.00,-5.00,-4.00,+2.00,-6.00,-5.00,-12.00,+0.00,-2.00,+6.00,+10.00,-1.00,-2.00,-8.00
+14.00,+16.00,+17.00,+6.00,+8.00,+4.00,+4.00,+7.00,+14.00,-9.00,-7.00,-14.00,-11.00,-5.00,-4.00,-4.00
-7.00,-10.00,-5.00,-1.00,-1.00,-1.00,-1.00,-4.00,+6.00,+4.00,+0.00,-6.00,-4.00,+1.00,-2.00,-4.00
+1.00,+1.00,-3.00,-1.00,-2.00,-4.00,-1.00,+1.00,+3.00,-1.00,-3.00,-1.00,+0.00,-2.00,+0.00,+0.00
-1.00,-15.00,+2.00,+1.00,+5.00,+4.00,+3.00,+0.00,-16.00,-11.00,+0.00,-10.00,-13.00,+0.00,+2.00,+0.00
-8.00,+20.00,-3.00,-2.00,-3.00,-5.00,-4.00,-2.00,+18.00,+3.00,+0.00,+5.00,+22.00,+1.00,-2.00,-2.00
+7.00,+0.00,+5.00,+3.00,+1.00,+4.00,+0.00,+2.00,-7.00,+6.00,-3.00,-7.00,-6.00,-3.00,-2.00,-2.00
-4.00,+1.00,-5.00,-1.00,-6.00,-5.00,-1.00,-2.00,-20.00,-16.00,-6.00,-3.00,-7.00,-1.00,-2.00,-6.00
-5.00,-3.00,+1.00,-1.00,+6.00,+8.00,+0.00,-4.00,+18.00,+8.00,+2.00,+2.00,+1.00,+0.00,+0.00,+5.00
+0.00,+4.00,-7.00,-4.00,-9.00,+0.00,+0.00,+0.00,-15.00,+6.00,+4.00,+6.00,+0.00,-2.00,-1.00,-9.00
-5.00,-4.00,-3.00,-2.00,-15.00,-12.00,-1.00,-1.00,-14.00,-11.00,-2.00,+2.00,-3.00,-1.00,+1.00,+3.00
+2.00,+19.00,+7.00,+3.00,+2.00,+3.00,+2.00,+2.00,-3.00,+0.00,+2.00,+1.00,+3.00,+2.00,+1.00,-1.00
+1.00,-10.00,-2.00,+1.00,+5.00,+3.00,+0.00,-2.00,-8.00,-1.00,-6.00,-2.00,-6.00,-2.00,-3.00,-1.00
-6.00,-20.00,-7.00,-5.00,-1.00,-7.00,-2.00,-3.00,+1.00,-7.00,-7.00,-9.00,-11.00,-3.00,-7.00,-8.00
-2.00,+4.00,+1.00,-2.00,+1.00,+4.00,+0.00,-4.00,+17.00,+9.00,+7.00,+7.00,+11.00,+2.00,+5.00,+6.00
-3.00,-15.00,-7.00,-2.00,-2.00,-1.00,+0.00,+0.00,-15.00,+1.00,-3.00,-6.00,-10.00,-3.00,-4.00,-7.00
+0.00,+4.00,+2.00,+0.00,+5.00,+4.00,+2.00,+3.00,+3.00,+4.00,+1.00,+1.00,+4.00,+2.00,+2.00,+4.00
+0.00,-10.00,-9.00,-3.00,-1.00,+2.00,-3.00,-3.00,-7.00,+3.00,-2.00,-2.00,-3.00,+0.00,-2.00,+0.00
-7.00,-11.00,-4.00,-2.00,-4.00,-3.00,-4.00,-4.00,+2.00,-7.00,-4.00,+0.00,+1.00,-1.00,-2.00,-2.00
-3.00,-1.00,+3.00,+0.00,+2.00,+2.00,-1.00,+1.00,-6.00,-7.00,+1.00,+4.00,+1.00,-1.00,+0.00,-3.00
+4.00,+2.00,-1.00,+1.00,-1.00,+1.00,+0.00,+2.00,-7.00,-1.00,-3.00,-5.00,-8.00,-2.00,-3.00,-5.00
-7.00,-24.00,-5.00,-2.00,-2.00,-3.00,-4.00,-3.00,+8.00,+3.00,+2.00,+2.00,-2.00,-1.00,-1.00,+3.00
-4.00,-10.00,-5.00,-4.00,-4.00,-4.00,-3.00,-2.00,-5.00,-4.00,-6.00,+2.00,+1.00,-3.00,-3.00,-2.00
+5.00,+18.00,+10.00,+3.00,+2.00,+0.00,+3.00,+3.00,-5.00,-14.00,-8.00,-5.00,-3.00,-1.00,-3.00,-1.00
+4.00,+32.00,+6.00,-1.00,-3.00,-3.00,-3.00,+1.00,-13.00,+16.00,+3.00,+9.00,+4.00,+0.00,-2.00,-7.00
-3.00,-3.00,+4.00,+2.00,-4.00,-3.00,-1.00,+0.00,+16.00,-2.00,-1.00,-4.00,-7.00,+1.00,+2.00,+7.00
-5.00,-5.00,+0.00,+1.00,+5.00,+2.00,+2.00,+1.00,+12.00,+1.00,+2.00,+2.00,+3.00,+0.00,+0.00,+3.00
