-2.00,-5.00,-4.00,-1.00,-3.00,+1.00,+1.00,+0.00,+0.00,+1.00,-4.00,-5.00,-1.00,-1.00,-2.00,-5.00
-3.00,-1.00,+1.00,+2.00,-1.00,+0.00,-1.00,+5.00,+0.00,+16.00,+6.00,-2.00,-7.00,-2.00,-2.00,+3.00
+15.00,+3.00,-1.00,+0.00,-1.00,-1.00,+1.00,+4.00,+2.00,+1.00,-1.00,-3.00,+0.00,-2.00,-2.00,-3.00
-8.00,-5.00,-4.00,+0.00,+0.00,-2.00,-2.00,-6.00,-1.00,+0.00,+0.00,+0.00,+1.00,-2.00,-1.00,+1.00
+2.00,+0.00,-1.00,-1.00,-3.00,-1.00,+0.00,-2.00,+2.00,+2.00,+2.00,+3.00,+1.00,-2.00,-1.00,+1.00
+4.00,-2.00,-3.00,-2.00,+0.00,-1.00,+1.00,+3.00,+0.00,-8.00,+0.00,+2.00,+2.00,+1.00,-2.00,-11.00
-21.00,-7.00,-2.00,-2.00,-2.00,-3.00,-3.00,-7.00,-2.00,+2.00,-2.00,-1.00,-3.00,-2.00,-1.00,-1.00
-5.00,+0.00,-1.00,+0.00,-2.00,-1.00,-1.00,+1.00,-1.00,+2.00,+0.00,+0.00,+0.00,+0.00,-1.00,+0.00
+6.00,-5.00,-5.00,-1.00,-3.00,-3.00,+2.00,+0.00,+0.00,-4.00,-9.00,-4.00,-3.00,-2.00,-2.00,+2.00
-10.00,-4.00,-6.00,-1.00,-1.00,+1.00,-1.00,-1.00,-6.00,+4.00,-1.00,-2.00,+0.00,-2.00,-5.00,-4.00
+18.00,+15.00,+3.00,+0.00,+4.00,+3.00,+1.00,+0.00,-12.00,+0.00,-3.00,-3.00,-1.00,-2.00,-1.00,-4.00
+3.00,-4.00,+0.00,+0.00,-4.00,-2.00,+0.00,+0.00,+30.00,+10.00,+5.00,-2.00,-5.00,-1.00,-1.00,+4.00
-2.00,+3.00,+0.00,-2.00,-3.00,-3.00,-2.00,-1.00,-5.00,-8.00,+1.00,+1.00,+6.00,+3.00,+1.00,+0.00
+4.00,-9.00,+0.00,-1.00,-3.00,-1.00,+0.00,+3.00,+4.00,-9.00,-3.00,+7.00,-3.00,-4.00,+0.00,+0.00
-18.00,-9.00,-3.00,+1.00,+0.00,-1.00,-1.00,+0.00,+11.00,+4.00,+2.00,-4.00,-5.00,+7.00,+0.00,+2.00
+4.00,+6.00,+1.00,-1.00,+1.00,+1.00,-3.00,-6.00,-19.00,-2.00,+0.00,-1.00,+1.00,+0.00,+0.00,-6.00
+5.00,-1.00,-1.00,-1.00,+0.00,+0.00,-1.00,-1.00,+10.00,+2.00,+6.00,+6.00,-5.00,-1.00,+0.00,+9.00
+1.00,+7.00,+1.00,+1.00,+1.00,-1.00,-2.00,-3.00,-4.00,-10.00,-5.00,-1.00,+1.00,+1.00,-3.00,-4.00
+14.00,-6.00,-3.00,+1.00,-1.00,-1.00,+1.00,+0.00,+22.00,+12.00,+0.00,-13.00,+0.00,-4.00,-2.00,+7.00
-11.00,-6.00,+0.00,-1.00,-1.00,-2.00,+0.00,-1.00,+1.00,+9.00,-1.00,-4.00,-18.00,-3.00,-3.00,-3.00
-5.00,-14.00,-4.00,+1.00,+1.00,+2.00,+0.00,+2.00,-13.00,-11.00,-5.00,-4.00,-5.00,+1.00,+0.00,-6.00
+1.00,+18.00,+7.00,-1.00,-2.00,-3.00,-2.00,-1.00,+8.00,-12.00,+2.00,+1.00,+5.00,-2.00,+1.00,-5.00
+5.00,-9.00,-4.00,-3.00,-1.00,+4.00,-1.00,+1.00,-5.00,-11.00,-2.00,+3.00,+0.00,-1.00,+1.00,+0.00
-14.00,+1.00,-3.00,-1.00,-3.00,+0.00,+4.00,-2.00,-3.00,+1.00,-4.00,+0.00,+2.00,+1.00,+0.00,-5.00
+4.00,+1.00,+2.00,+0.00,+6.00,+5.00,-1.00,+2.00,+1.00,+16.00,-1.00,-2.00,-4.00,-3.00,+1.00,+0.00
+28.00,+57.00,+11.00,+3.00,-5.00,-3.00,+0.00,+3.00,-5.00,+5.00,+0.00,+0.00,+0.00,+1.00,-1.00,-6.00
-2.00,+1.00,-3.00,-3.00,-5.00,+0.00,-3.00,-1.00,-12.00,-11.00,-4.00,+2.00,+0.00,-3.00,-1.00,-3.00
+8.00,-6.00,-7.00,+0.00,+4.00,-10.00,-2.00,+2.00,+5.00,-1.00,-3.00,-1.00,-2.00,-1.00,-3.00,-1.00
-8.00,-20.00,-6.00,-3.00,-2.00,-2.00,-3.00,-2.00,-13.00,-17.00,-3.00,+2.00,+0.00,-1.00,-1.00,-3.00
-47.00,-20.00,-5.00,-2.00,+4.00,+8.00,-2.00,-14.00,-21.00,+4.00,-2.00,+4.00,+10.00,-1.00,-1.00,-3.00
+10.00,+36.00,+7.00,+0.00,-5.00,-7.00,-2.00,+2.00,+28.00,+8.00,+6.00,-3.00,-12.00,+0.00,+0.00,+5.00
+12.00,+7.00,+2.00,-1.00,+1.00,-4.00,-2.00,+1.00,-16.00,-4.00,+1.00,-1.00,+2.00,-1.00,+0.00,+2.00
+62.00,+30.00,+4.00,+1.00,+0.00,+0.00,+0.00,+3.00,+21.00,+14.00,-2.00,+1.00,+6.00,-6.00,-3.00,-2.00
-33.00,-45.00,-9.00,-3.00,-3.00,-3.00,-2.00,-8.00,-49.00,-28.00,-6.00,-5.00,-6.00,+6.00,+0.00,+0.00
-20.00,-15.00,-3.00,+1.00,+1.00,-1.00,-2.00,-5.00,-1.00,-4.00,-1.00,+7.00,+6.00,+1.00,+0.00,-4.00
+1.00,+2.00,+3.00,+0.00,-3.00,+1.00,+1.00,+3.00,-19.00,-7.00,-7.00,-6.00,+1.00,-4.00,-2.00,-1.00
+0.00,-7.00,-1.00,+0.00,-1.00,-3.00,-2.00,-2.00,-16.00,+1.00,+1.00,-6.00,-10.00,-2.00,-2.00,-9.00
+12.00,+3.00,-3.00,-4.00,-1.00,+0.00,+0.00,+4.00,+66.00,+14.00,+4.00,+13.00,+5.00,+2.00,+5.00,+13.00
+4.00,-2.00,-8.00,-4.00,-5.00,-4.00,-2.00,-1.00,+19.00,+15.00,+1.00,-5.00,+13.00,-3.00,-4.00,+1.00
+11.00,-3.00,-3.00,+1.00,+4.00,+3.00,+1.00,+5.00,+23.00,-18.00,-6.00,+0.00,+11.00,+3.00,-1.00,-1.00
-15.00,+8.00,+1.00,+0.00,+8.00,+0.00,-3.00,-2.00,-37.00,-7.00,+1.00,-6.00,-15.00,-6.00,-2.00,-7.00
-4.00,-35.00,-12.00,-5.00,-6.00,+0.00,-3.00,-5.00,-4.00,+22.00,+4.00,+0.00,+4.00,-1.00,-2.00,-7.00
+0.00,-16.00,+6.00,+2.00,-5.00,-3.00,+4.00,-2.00,-26.00,-13.00,-5.00,-4.00,-6.00,-4.00,-2.00,+2.00
+2.00,-14.00,+5.00,+4.00,+3.00,+7.00,+2.00,+1.00,-5.00,-28.00,-4.00,-2.00,+8.00,-1.00,+1.00,+6.00
-12.00,-11.00,-5.00,-3.00,-9.00,-6.00,-5.00,-6.00,+73.00,+47.00,+10.00,+6.00,+4.00,-3.00,+2.00,+5.00
+1.00,+20.00,+3.00,+2.00,+6.00,-1.00,+1.00,+1.00,-39.00,-40.00,-14.00,-22.00,-9.00,-1.00,-7.00,-8.00
-21.00,-23.00,-7.00,-3.00,-13.00,-1.00,-3.00,-2.00,+75.00,+63.00,+3.00,+0.00,-17.00,-3.00,+6.00,+14.00
+2.00,-4.00,-4.00,-1.00,+10.00,+0.00,+0.00,-6.00,-61.00,-48.00,-7.00,+4.00,+4.00,+1.00,-1.00,-9.00
-17.00,+35.00,-1.00,-2.00,+2.00,+1.00,-2.00,-7.00,-25.00,-23.00,-7.00,+2.00,+4.00,-1.00,+1.00,+4.00
+18.00,-31.00,+17.00,+9.00,-1.00,+5.00,+5.00,+5.00,+24.00,+23.00,+6.00,-4.00,-2.00,-7.00,+2.00,-6.00
+20.00,+67.00,+13.00,+5.00,+3.00,+3.00,+2.00,+7.00,-78.00,-52.00,-15.00,+4.00,+25.00,+28.00,-12.00,-18.00
-10.00,-43.00,-14.00,-8.00,+15.00,+10.00,-2.00,-4.00,+62.00,+46.00,+7.00,-8.00,-15.00,-2.00,+5.00,+1.00
+4.00,+5.00,+6.00,+1.00,-13.00,+3.00,-2.00,+7.00,-29.00,-32.00,-5.00,-1.00,+4.00,+1.00,+2.00,-2.00
-1.00,+21.00,-6.00,-4.00,-1.00,+13.00,+0.00,-7.00,+88.00,+23.00,+19.00,+12.00,+2.00,+3.00,+5.00,+24.00
+16.00,+43.00,+13.00,+2.00,-10.00,-31.00,-13.00,-2.00,-29.00,-13.00,-12.00,-13.00,-7.00,-14.00,-3.00,-12.00
-78.00,-76.00,-24.00,-12.00,-14.00,-16.00,-4.00,-15.00,-5.00,+27.00,+5.00,+10.00,+6.00,+6.00,+1.00,-1.00
+15.00,+10.00,-3.00,-3.00,+5.00,+1.00,+0.00,+1.00,-29.00,-2.00,-3.00,-6.00,-8.00,-2.00,-8.00,-16.00
+9.00,+5.00,+7.00,+2.00,+1.00,+7.00,-3.00,+5.00,+1.00,-49.00,-20.00,-8.00,-13.00,-16.00,-10.00,-10.00
-14.00,-37.00,-6.00,+0.00,+10.00,+6.00,+9.00,+1.00,+32.00,-10.00,+12.00,+26.00,+23.00,-40.00,+4.00,+14.00
+14.00,+18.00,-9.00,-8.00,-14.00,-14.00,-13.00,-13.00,+17.00,+28.00,+5.00,+9.00,-19.00,+32.00,-5.00,+6.00
-23.00,-26.00,-6.00,-1.00,+4.00,+3.00,+0.00,+1.00,-24.00,-43.00,-19.00,-33.00,-14.00,-37.00,-10.00,-10.00
-5.00,-19.00,-13.00,-4.00,-11.00,-13.00,-1.00,+1.00,+7.00,+50.00,+23.00,+14.00,+17.00,+46.00,-1.00,+4.00
+13.00,+13.00,+14.00,+6.00,+27.00,+20.00,+5.00,+8.00,-19.00,-54.00,-10.00,+0.00,-8.00,-11.00,+4.00,-12.00
-9.00,+12.00,-6.00,+1.00,-8.00,-4.00,-1.00,-4.00,+19.00,+18.00,+1.00,+4.00,+14.00,-8.00,+5.00,-1.00
-7.00,-13.00,-9.00,-4.00,-8.00,-1.00,+0.00,-5.00,+36.00,+4.00,+5.00,-7.00,+7.00,-2.00,+1.00,+17.00
+11.00,+0.00,+12.00,+0.00,-8.00,-7.00,+1.00,+2.00,-12.00,-12.00,-4.00,+4.00,-10.00,-18.00,-3.00,-3.00
+15.00,+3.00,-9.00,-6.00,-3.00,-8.00,-8.00,+1.00,-18.00,-17.00,-6.00,-17.00,-18.00,+3.00,-5.00,-7.00
+15.00,+31.00,+15.00,+2.00,+14.00,+29.00,+6.00,+1.00,-14.00,+1.00,+4.00,+10.00,+15.00,-38.00,-8.00,-4.00
+3.00,-11.00,+6.00,+4.00,-6.00,-15.00,+4.00,-2.00,-28.00,-3.00,-6.00,+7.00,-29.00,-19.00,+7.00,-17.00
-24.00,-15.00,-15.00,-3.00,+6.00,-13.00,-1.00,+1.00,+44.00,+14.00,-3.00,-7.00,+8.00,+1.00,-8.00,+4.00
-24.00,-71.00,-6.00,+2.00,+1.00,+14.00,+2.00,+11.00,-28.00,-4.00,+3.00,+0.00,+0.00,+13.00,+3.00,-14.00
-7.00,+65.00,+13.00,+1.00,-8.00,-5.00,-19.00,-3.00,+13.00,+7.00,-2.00,-8.00,-11.00,-11.00,-7.00,-9.00
-13.00,-9.00,-6.00,+0.00,-1.00,+10.00,+5.00,-2.00,+46.00,+19.00,+7.00,+12.00,+16.00,-2.00,+2.00,+10.00
+21.00,+51.00,+13.00,+6.00,+39.00,+9.00,+1.00,+8.00,-68.00,+3.00,-9.00,-2.00,-8.00,-9.00,-5.00,-9.00
-24.00,-39.00,-14.00,-9.00,-27.00,-16.00,-4.00,-11.00,+9.00,-22.00,+0.00,+3.00,-4.00,+3.00,-1.00,+1.00
+22.00,-15.00,-8.00,+0.00,+9.00,+10.00,+8.00,+5.00,-10.00,+15.00,-1.00,-5.00,-7.00,-4.00,-1.00,-6.00
-1.00,+18.00,+18.00,+7.00,-17.00,+0.00,+9.00,+3.00,+0.00,+5.00,+2.00,+10.00,+8.00,+0.00,-8.00,+6.00
-30.00,-15.00,-18.00,-14.00,-14.00,-10.00,-22.00,-17.00,-7.00,+5.00,+2.00,+5.00,+15.00,+24.00,+9.00,-7.00
+20.00,+8.00,+0.00,+2.00,+0.00,+1.00,-5.00,+1.00,+0.00,+17.00,-4.00,-13.00,-6.00,+3.00,-6.00,-10.00
-15.00,-30.00,-21.00,-9.00,-11.00,-10.00,-2.00,+3.00,-14.00,-16.00,-10.00,-7.00,-4.00,-6.00,+6.00,+8.00
-8.00,+35.00,+12.00,+1.00,+7.00,-1.00,+4.00,+8.00,+1.00,-13.00,+9.00,+8.00,-4.00,+14.00,+1.00,+5.00
+14.00,+18.00,+14.00,+2.00,-11.00,+3.00,+1.00,+2.00,-21.00,-15.00,-8.00,-11.00,+0.00,+20.00,+4.00,-4.00
+8.00,+3.00,-8.00,-3.00,+7.00,+4.00,-3.00,-6.00,+4.00,+27.00,+0.00,+5.00,+1.00,-13.00,-5.00,-5.00
+6.00,-35.00,-11.00,-1.00,-6.00,-4.00,+6.00,+5.00,+9.00,-9.00,-4.00,-7.00,-2.00,+5.00,+0.00,+5.00
+14.00,+18.00,+10.00,+4.00,+9.00,+2.00,-2.00,+4.00,+10.00,-6.00,-6.00,-9.00,-13.00,+14.00,+4.00,+13.00
+0.00,+4.00,-6.00,-2.00,-6.00,-3.00,-19.00,+1.00,-42.00,+7.00,+2.00,+1.00,+0.00,-23.00,-4.00,-12.00
-15.00,-17.00,-12.00,-2.00,+13.00,-3.00,+18.00,-6.00,+4.00,-20.00,+0.00,+12.00,+5.00,-3.00,-2.00,+0.00
+26.00,+28.00,+4.00,+0.00,-18.00,-15.00,-4.00,+2.00,+40.00,+39.00,+4.00,-7.00,-13.00,+18.00,+5.00,+33.00
-12.00,-53.00,-11.00,-3.00,+1.00,+1.00,+4.00,-6.00,+6.00,+5.00,-7.00,-3.00,+12.00,-18.00,-3.00,-18.00
+3.00,+15.00,+16.00,+6.00,+7.00,+13.00,+17.00,+5.00,+19.00,+7.00,+1.00,-7.00,-13.00,-21.00,+5.00,+10.00
-13.00,-37.00,-16.00,-3.00,-5.00,-13.00,-18.00,-15.00,-73.00,-15.00,+2.00,+0.00,-2.00,+24.00,+1.00,-5.00
+23.00,+33.00,+7.00,-1.00,-4.00,+9.00,-4.00,+1.00,-1.00,-38.00,-10.00,+7.00,+9.00,+7.00,-1.00,-2.00
-24.00,+6.00,-3.00,-2.00,-12.00,-17.00,-3.00,-2.00,-55.00,+18.00,+2.00,-6.00,-3.00,-7.00,-6.00,-13.00
-8.00,-52.00,-9.00,-1.00,-5.00,-5.00,+5.00,-8.00,+30.00,+9.00,-1.00,-4.00,-5.00,-4.00,-1.00,+16.00
+29.00,+4.00,+15.00,+8.00,+8.00,+7.00,+1.00,+7.00,-23.00,-10.00,-1.00,-2.00,-1.00,-7.00,+0.00,-1.00
-2.00,+10.00,+8.00,+1.00,-1.00,-4.00,+23.00,+4.00,-47.00,-17.00,+3.00,+10.00,+4.00,-3.00,-2.00,-12.00
+17.00,-25.00,-15.00,-7.00,+3.00,+0.00,-21.00,-9.00,+3.00,-5.00,-6.00,-11.00,-33.00,-1.00,-7.00,-8.00
+0.00,-9.00,-10.00,-4.00,-3.00,-5.00,+2.00,-3.00,+11.00,-2.00,-2.00,-3.00,-8.00,-18.00,+1.00,+2.00
-22.00,+23.00,+0.00,-6.00,-10.00,-1.00,-9.00,-4.00,+27.00,+14.00,+2.00,-7.00,+5.00,+1.00,-2.00,+20.00
+24.00,-20.00,+11.00,+7.00,+22.00,+5.00,-24.00,+1.00,+0.00,-16.00,+3.00,+24.00,-3.00,-17.00,-6.00,-19.00
-10.00,-5.00,+7.00,+0.00,-12.00,+4.00,+15.00,-4.00,-18.00,-8.00,-5.00,-14.00,+11.00,+6.00,-1.00,-3.00
+15.00,-8.00,-13.00,-2.00,-10.00,-12.00,-1.00,-1.00,+33.00,-5.00,-5.00,-4.00,-8.00,-12.00,+2.00,+13.00
-7.00,+4.00,+12.00,+1.00,+4.00,+2.00,+7.00,+1.00,-29.00,+33.00,-6.00,-13.00,-11.00,-11.00,-5.00,-8.00
+15.00,+21.00,+13.00,+4.00,+2.00,+1.00,-2.00,+6.00,+55.00,-21.00,+3.00,+4.00,+4.00,+14.00,+6.00,+21.00
+0.00,-11.00,-8.00,-2.00,+12.00,+7.00,-5.00,+0.00,+38.00,+46.00,+12.00,+7.00,+14.00,+5.00,+1.00,+6.00
+0.00,+20.00,+0.00,-3.00,-14.00,-19.00,-4.00,-3.00,-33.00,-33.00,-6.00,+1.00,-8.00,-12.00,-9.00,-7.00
+1.00,-42.00,-19.00,-3.00,-3.00,+1.00,+2.00,-3.00,-5.00,+4.00,-1.00,-9.00,-5.00,+0.00,+0.00,-7.00
-25.00,-30.00,-14.00,-4.00,+18.00,+3.00,-8.00,-6.00,-20.00,+5.00,-1.00,-13.00,+6.00,+10.00,+0.00,-10.00
+3.00,+21.00,+20.00,+5.00,-20.00,-22.00,-3.00,-3.00,-24.00,-19.00,-7.00,+1.00,+2.00,+8.00,-2.00,-2.00
+21.00,+10.00,-1.00,+3.00,+21.00,+27.00,+21.00,+10.00,-27.00,-33.00,-7.00,-2.00,+2.00,+15.00,+6.00,+7.00
-11.00,+32.00,+1.00,-2.00,-9.00,-13.00,-11.00,-6.00,-4.00,+1.00,-7.00,-2.00,-10.00,-31.00,-15.00,-16.00
+9.00,-19.00,-8.00,-5.00,-3.00,+5.00,+34.00,+15.00,+6.00,+28.00,+9.00,-1.00,+4.00,+36.00,+11.00,+19.00
+28.00,+56.00,+21.00,+5.00,+25.00,+17.00,+5.00,+10.00,+13.00,-31.00,-8.00,+3.00,-2.00,-5.00,+1.00,+4.00
+4.00,-21.00,-11.00,-3.00,-3.00,-15.00,-31.00,-5.00,-39.00,+15.00,+2.00,+1.00,+14.00,+46.00,-1.00,-7.00
+17.00,+43.00,-2.00,-4.00,-15.00,-17.00,+11.00,+3.00,-6.00,-5.00,-2.00,-8.00,-2.00,-19.00,-6.00,+1.00
-19.00,-13.00,+15.00,+5.00,-3.00,+3.00,+2.00,-1.00,+31.00,+2.00,+1.00,-3.00,-6.00,-6.00,-5.00,-15.00
-20.00,+0.00,-15.00,-8.00,-3.00,-10.00,-7.00,-5.00,-27.00,+5.00,+4.00,+10.00,+18.00,+7.00,+2.00,-3.00
-21.00,+3.00,+6.00,-1.00,-3.00,+2.00,+3.00,-9.00,+12.00,-21.00,-3.00,-1.00,-10.00,-10.00,+0.00,+5.00
-7.00,-29.00,-10.00,-5.00,+8.00,+11.00,-3.00,-2.00,+49.00,+27.00,+4.00,-5.00,-11.00,+18.00,-1.00,+3.00
+7.00,+33.00,+6.00,+0.00,-13.00,-10.00,-2.00,-3.00,-56.00,-13.00,-5.00,-9.00,+3.00,-9.00,+1.00,-3.00
-18.00,-81.00,-16.00,+2.00,+4.00,+3.00,-4.00,-4.00,+65.00,+23.00,+8.00,+17.00,+0.00,+20.00,-1.00,+9.00
-9.00,+39.00,+5.00,+0.00,+0.00,+3.00,+2.00,+1.00,-18.00,+2.00,-7.00,-12.00,+9.00,-24.00,-12.00,-14.00
+2.00,+3.00,-8.00,-2.00,+12.00,-1.00,-10.00,-9.00,+12.00,-22.00,+1.00,+9.00,+14.00,+12.00,+10.00,+23.00
-6.00,-8.00,+8.00,+6.00,-6.00,+4.00,+7.00,-1.00,-18.00,-14.00,-11.00,-9.00,-8.00,-30.00,-14.00,-17.00
-1.00,+14.00,+3.00,+0.00,+7.00,+3.00,+1.00,+4.00,-15.00,+1.00,+0.00,-5.00,-10.00,+19.00,+5.00,+8.00
-10.00,-21.00,-13.00,-4.00,-11.00,-8.00,+1.00,-2.00,+15.00,+12.00,+0.00,+7.00,-8.00,-3.00,-3.00,-1.00
-5.00,+8.00,+3.00,-1.00,-11.00,+5.00,-8.00,-1.00,-20.00,-18.00,+3.00,+2.00,+1.00,+33.00,+7.00,-3.00
-4.00,-1.00,+8.00,+5.00,-6.00,-2.00,+1.00,+5.00,-101.00,-36.00,-14.00,-13.00,-8.00,-18.00,-9.00,-25.00
-3.00,+3.00,-4.00,-4.00,+11.00,+2.00,-5.00,-2.00,+47.00,+18.00,+6.00,+11.00,+24.00,-1.00,+4.00,+25.00
-8.00,-35.00,-9.00,-4.00,+4.00,+10.00,+3.00,-1.00,-3.00,+27.00,+10.00,-1.00,-16.00,+1.00,-1.00,-12.00
+11.00,+24.00,+0.00,+1.00,+1.00,+4.00,+7.00,-3.00,-15.00,-6.00,-5.00,+3.00,+2.00,-2.00,-3.00,-2.00
+7.00,+31.00,+13.00,+0.00,-1.00,-5.00,-7.00,+2.00,-5.00,+2.00,-3.00,-2.00,-4.00,-13.00,-3.00,-8.00
+6.00,-18.00,-14.00,-5.00,-14.00,-4.00,+7.00,-3.00,-15.00,+0.00,+1.00,+5.00,-1.00,-8.00,-1.00,-11.00
+50.00,-1.00,-2.00,+2.00,+10.00,-2.00,-22.00,+10.00,-42.00,-50.00,-12.00,-6.00,+1.00,-3.00,-3.00,-7.00
+9.00,+16.00,+8.00,+2.00,-6.00,+6.00,+3.00,+5.00,+42.00,+4.00,+1.00,+7.00,-5.00,-10.00,-1.00,-1.00
+2.00,-13.00,+4.00,+1.00,+3.00,+5.00,+4.00,+5.00,+66.00,+43.00,+14.00,+1.00,+15.00,+11.00,+7.00,+22.00
-3.00,+0.00,-11.00,-7.00,-3.00,-9.00,-20.00,-10.00,-11.00,-9.00,-9.00,-11.00,-7.00,+3.00,-3.00,-12.00
-14.00,-21.00,+2.00,+3.00,+7.00,+15.00,+26.00,+5.00,+39.00,-4.00,-2.00,-3.00,-7.00,-4.00,-7.00,+4.00
+7.00,+22.00,+10.00,+2.00,+9.00,+3.00,+0.00,+1.00,-17.00,+5.00,+6.00,+9.00,+4.00,+1.00,+6.00,+3.00
-6.00,+23.00,-10.00,-6.00,-5.00,-9.00,-8.00,-9.00,-11.00,-13.00,-4.00,+7.00,+6.00,+26.00,-1.00,+0.00
+18.00,-17.00,+1.00,-2.00,+0.00,-2.00,-3.00,+6.00,+15.00,-2.00,-6.00,-18.00,-44.00,-15.00,-1.00,-2.00
-16.00,-8.00,-2.00,-2.00,-4.00,-2.00,-2.00,-7.00,-27.00,-15.00,-7.00,-1.00,+8.00,+18.00,-2.00,-13.00
+8.00,+9.00,+11.00,+0.00,-9.00,-6.00,+1.00,+1.00,-32.00,-9.00,-3.00,-4.00,+0.00,+2.00,-8.00,-15.00
-15.00,-26.00,-13.00,-5.00,-4.00,+6.00,-3.00,-9.00,+52.00,+27.00,+8.00,+0.00,-9.00,-22.00,-1.00,+9.00
+9.00,+42.00,+13.00,+7.00,+10.00,+3.00,+9.00,+5.00,+36.00,-21.00,+0.00,+9.00,+10.00,+5.00,+11.00,+22.00
-3.00,+2.00,-2.00,-2.00,+1.00,-14.00,-6.00,+0.00,-23.00,+13.00,-1.00,-1.00,-9.00,-6.00,-1.00,-2.00
-11.00,-31.00,-15.00,-6.00,-11.00,+1.00,-1.00,-5.00,-6.00,+8.00,+1.00,-3.00,-5.00,-16.00,-7.00,-6.00
+6.00,+23.00,+11.00,+1.00,+9.00,-6.00,-14.00,-2.00,+30.00,-3.00,-7.00,-6.00,-9.00,-6.00,-4.00,+10.00
+4.00,-7.00,-6.00,-1.00,-12.00,+11.00,-1.00,+0.00,-30.00,+3.00,+3.00,+8.00,+15.00,+16.00,+0.00,-8.00
-4.00,+15.00,+2.00,+0.00,-19.00,-14.00,+6.00,-3.00,+9.00,+10.00,+3.00,-6.00,-2.00,-10.00,-2.00,-1.00
-22.00,-19.00,-12.00,-4.00,+1.00,-7.00,+2.00,-3.00,+7.00,+11.00,-2.00,+2.00,+8.00,+12.00,+5.00,+3.00
+1.00,-18.00,-3.00,+0.00,+1.00,-3.00,-4.00,-1.00,+1.00,-33.00,-5.00,-8.00,-7.00,-23.00,-2.00,-2.00
-10.00,+13.00,-4.00,-5.00,+3.00,-2.00,+1.00,-8.00,-35.00,-5.00,-2.00,-6.00,-3.00,+3.00,-10.00,-20.00
-16.00,-2.00,+25.00,+10.00,+7.00,+12.00,+9.00,+3.00,+36.00,+17.00,+6.00,+11.00,+15.00,-4.00,+6.00,+12.00
-5.00,-7.00,-3.00,-2.00,-6.00,-3.00,-6.00,-4.00,+3.00,-11.00,+1.00,+0.00,+0.00,+4.00,+1.00,+4.00
-1.00,-2.00,-10.00,-3.00,-1.00,-7.00,-22.00,+0.00,+4.00,+25.00,-3.00,-4.00,+6.00,-2.00,-2.00,-1.00
-11.00,-24.00,-15.00,-4.00,-7.00,-5.00,+2.00,-3.00,-12.00,-14.00,-5.00,-9.00,-17.00,-33.00,-5.00,+1.00
+14.00,+0.00,-3.00,-5.00,-3.00,+3.00,-3.00,+3.00,-23.00,+9.00,+0.00,-8.00,+3.00,+9.00,-4.00,-4.00
+5.00,+4.00,+11.00,+5.00,+10.00,+1.00,+1.00,+2.00,+16.00,-8.00,-4.00,+0.00,+8.00,+12.00,+0.00,-4.00
+0.00,+19.00,-5.00,-1.00,-7.00,+0.00,+1.00,+4.00,-7.00,+2.00,+0.00,+16.00,-1.00,-1.00,+0.00,+7.00
+8.00,-2.00,-8.00,-4.00,-3.00,-3.00,-1.00,-1.00,-38.00,-22.00,-9.00,-25.00,+5.00,+16.00,+1.00,-7.00
+3.00,+12.00,-3.00,-5.00,-1.00,-7.00,-2.00,-6.00,+21.00,+18.00,+1.00,+2.00,-7.00,-7.00,-3.00,+1.00
+6.00,-14.00,+3.00,+1.00,+14.00,+9.00,+2.00,+3.00,+7.00,-12.00,-1.00,+0.00,+7.00,+4.00,+3.00,+0.00
-10.00,+0.00,+0.00,+2.00,+17.00,+23.00,+9.00,-4.00,-31.00,-1.00,+3.00,+1.00,-6.00,+2.00,-1.00,-9.00
-6.00,+15.00,-5.00,-6.00,-34.00,-24.00,-6.00,-4.00,-51.00,-23.00,-8.00,+2.00,+9.00,-3.00,-4.00,-7.00
+2.00,-28.00,-1.00,+0.00,-4.00,+1.00,-5.00,+0.00,+26.00,+27.00,+7.00,-5.00,-8.00,-32.00,+3.00,+13.00
-5.00,+6.00,+0.00,+1.00,+10.00,+2.00,+9.00,-1.00,+26.00,+35.00,+2.00,+0.00,+1.00,+19.00,-3.00,-1.00
+2.00,-10.00,-4.00,-4.00,-1.00,+0.00,-2.00,-1.00,-9.00,-10.00,-3.00,-7.00,-1.00,+2.00,-3.00,-1.00
-1.00,-11.00,-1.00,-2.00,-5.00,+1.00,+0.00,+3.00,+25.00,-20.00,-2.00,+5.00,+4.00,+26.00,+4.00,+1.00
-11.00,+13.00,-12.00,-3.00,+13.00,-2.00,-11.00,-8.00,-26.00,-11.00,-3.00,+0.00,+0.00,-12.00,-2.00,-8.00
+12.00,-11.00,+7.00,+4.00,+3.00,-3.00,-6.00,+5.00,+2.00,+1.00,-3.00,-4.00,-4.00,-16.00,-3.00,+7.00
+11.00,+7.00,+13.00,+8.00,-12.00,+2.00,+7.00,+6.00,-6.00,-3.00,+6.00,-6.00,-16.00,+10.00,-1.00,-6.00
+6.00,+8.00,+2.00,+0.00,+2.00,+1.00,-1.00,+0.00,+2.00,+19.00,+0.00,+9.00,+7.00,-12.00,-6.00,-2.00
+7.00,+19.00,-2.00,-2.00,-6.00,-8.00,+1.00,-1.00,+25.00,+17.00,+3.00,-11.00,-6.00,+10.00,+6.00,+11.00
-11.00,-26.00,-10.00,-6.00,-2.00,+1.00,+4.00,+1.00,+2.00,-41.00,-8.00,-3.00,-6.00,-2.00,-5.00,-7.00
-1.00,-9.00,-10.00,-2.00,+4.00,-8.00,-17.00,+0.00,+8.00,-5.00,+0.00,+14.00,+7.00,+1.00,-3.00,-4.00
-4.00,+16.00,+1.00,-1.00,+2.00,-1.00,-4.00,-4.00,+19.00,+38.00,+3.00,-14.00,-18.00,-7.00,+1.00,+11.00
+2.00,+37.00,+25.00,+7.00,+6.00,+8.00,+8.00,+0.00,+24.00,-25.00,-7.00,+5.00,+10.00,+3.00,-2.00,-2.00
-3.00,-5.00,-10.00,-3.00,-9.00,+1.00,-1.00,-1.00,-30.00,+42.00,+8.00,-1.00,-14.00,-9.00,+1.00,+5.00
+3.00,-7.00,-4.00,-4.00,-9.00,-14.00,+2.00,-7.00,+7.00,-27.00,-7.00,-7.00,+2.00,-2.00,+0.00,+9.00
+9.00,-15.00,+4.00,+5.00,+17.00,+9.00,+3.00,+3.00,-2.00,-13.00,-2.00,+13.00,+6.00,-3.00,+1.00,+0.00
+2.00,+23.00,-7.00,-9.00,-15.00,-10.00,-8.00,-5.00,-24.00,-27.00,-10.00,-11.00,-7.00,-7.00,-9.00,-12.00
+2.00,-15.00,+1.00,+5.00,+0.00,+0.00,-1.00,+1.00,+10.00,+0.00,+7.00,-1.00,+1.00,+16.00,+5.00,+10.00
-5.00,+20.00,+4.00,-6.00,-9.00,-7.00,-1.00,-8.00,-31.00,-51.00,-7.00,-5.00,+0.00,+0.00,-7.00,-17.00
-1.00,-23.00,-8.00,-3.00,+10.00,+8.00,+4.00,+0.00,+21.00,+46.00,+13.00,+9.00,+13.00,+7.00,+3.00,+12.00
-11.00,-30.00,-11.00,-4.00,+5.00,+5.00,+3.00,+1.00,-18.00,-23.00,-7.00,+5.00,-5.00,-1.00,+1.00,+2.00
-1.00,+27.00,+1.00,-5.00,-32.00,-13.00,-4.00,-4.00,-15.00,-9.00,-5.00,-5.00,-4.00,-15.00,-6.00,-17.00
+0.00,-21.00,-12.00,-5.00,+8.00,-4.00,+4.00,+1.00,+9.00,-1.00,-1.00,-4.00,-3.00,-9.00,+3.00,+13.00
-1.00,-5.00,+4.00,+1.00,+19.00,+0.00,-2.00,-2.00,-51.00,-3.00,-6.00,-5.00,-1.00,+24.00,-4.00,-22.00
+4.00,-9.00,-12.00,-4.00,-21.00,+4.00,+1.00,+2.00,+71.00,+23.00,+9.00,+8.00,+2.00,+4.00,+6.00,+12.00
-3.00,-13.00,+9.00,+2.00,+5.00,-3.00,-5.00,-4.00,+19.00,+39.00,+11.00,-1.00,-3.00,-3.00,+4.00,+10.00
+1.00,+43.00,+2.00,+2.00,+4.00,+3.00,+2.00,+4.00,-19.00,-17.00,-9.00,-6.00,-5.00,+1.00,-1.00,-4.00
-4.00,-1.00,+3.00,+1.00,-4.00,-4.00,-4.00,-2.00,-14.00,-10.00,-3.00,-3.00,-2.00,-17.00,-8.00,-20.00
+1.00,-26.00,-4.00,+0.00,+2.00,+2.00,+0.00,-1.00,-55.00,-16.00,-2.00,+3.00,+2.00,+3.00,+0.00,-1.00
-9.00,-8.00,-8.00,-3.00,+4.00,+0.00,-1.00,-4.00,+26.00,+2.00,-3.00,+1.00,+3.00,+1.00,-1.00,+3.00
+7.00,-2.00,-3.00,+0.00,-3.00,-3.00,+4.00,+0.00,+13.00,-17.00,+2.00,-2.00,-3.00,+2.00,+4.00,+1.00
-16.00,-14.00,-6.00,-4.00,-4.00,-1.00,-1.00,-2.00,+6.00,+33.00,+4.00,-3.00,+6.00,-4.00,-2.00,-1.00
+7.00,-19.00,+8.00,+5.00,+0.00,-1.00,-1.00,+3.00,-33.00,-10.00,+9.00,+10.00,+9.00,+8.00,+4.00,+2.00
-4.00,+27.00,-16.00,-8.00,+9.00,+5.00,-2.00,-3.00,+13.00,-12.00,-8.00,-14.00,-2.00,-11.00,-4.00,+0.00
+1.00,-32.00,+25.00,+12.00,-5.00,-1.00,+6.00,+8.00,-24.00,-24.00,-13.00,-7.00,+2.00,-5.00,-2.00,+1.00
-2.00,-13.00,-8.00,-4.00,-14.00,-3.00,-5.00,-2.00,+19.00,-21.00,+3.00,+5.00,-5.00,-4.00,+2.00,+7.00
-1.00,-13.00,-2.00,-3.00,+4.00,-7.00,-3.00,-5.00,+10.00,+64.00,+9.00,-11.00,-5.00,+2.00,-3.00,-7.00
+4.00,+9.00,+3.00,+1.00,-1.00,-2.00,+1.00,+2.00,-51.00,-1.00,-10.00,-2.00,-1.00,-8.00,-7.00,-13.00
-13.00,-37.00,-18.00,-6.00,+2.00,+5.00,-1.00,-5.00,-28.00,+9.00,+3.00,+1.00,+5.00,+3.00,+2.00,+2.00
+15.00,+85.00,+24.00,+5.00,+6.00,+3.00,+4.00,+6.00,+77.00,-67.00,-16.00,+1.00,+5.00,-2.00,+0.00,+7.00
+0.00,-17.00,+8.00,+6.00,-1.00,+2.00,+2.00,+4.00,-9.00,+67.00,+4.00,-1.00,-7.00,-2.00,-1.00,+7.00
-2.00,-12.00,+4.00,+7.00,+13.00,+13.00,+1.00,+5.00,+36.00,-37.00,-6.00,+1.00,-1.00,-2.00,-2.00,-3.00
-13.00,-14.00,-24.00,-7.00,-18.00,-6.00,-4.00,-7.00,-80.00,-15.00,-9.00,-10.00,-14.00,-5.00,-10.00,-32.00
-5.00,-14.00,+15.00,+3.00,+2.00,+1.00,+0.00,-2.00,+64.00,+74.00,+28.00,+23.00,+11.00,+4.00,+13.00,+39.00
+8.00,+38.00,+0.00,-2.00,-6.00,-5.00,-1.00,-1.00,-22.00,-78.00,-15.00,-23.00,-11.00,-4.00,-3.00,-7.00
-4.00,+0.00,+5.00,+1.00,+2.00,-2.00,+0.00,+3.00,+31.00,+3.00,-8.00,-12.00,-14.00,-4.00,-1.00,+2.00
-4.00,-19.00,-20.00,-7.00,-9.00,+1.00,-4.00,-6.00,-26.00,+40.00,+14.00,+6.00,+3.00,+4.00,-3.00,-8.00
-15.00,-3.00,-19.00,-4.00,-2.00,-6.00,-1.00,-3.00,-66.00,-55.00,-24.00,+6.00,-6.00,-8.00,-12.00,-27.00
+4.00,-6.00,+29.00,+9.00,+4.00,+0.00,+0.00,+3.00,+44.00,-11.00,+13.00,-19.00,-29.00,-2.00,+3.00,+8.00
+2.00,-6.00,-9.00,-4.00,-4.00,-1.00,-3.00,-4.00,+38.00,+2.00,+0.00,+4.00,+1.00,-5.00,+4.00,+12.00
-3.00,-14.00,+2.00,-3.00,+12.00,+6.00,+0.00,-2.00,-38.00,-51.00,-7.00,-9.00,+0.00,+2.00,+1.00,+2.00
+8.00,+11.00,+0.00,-2.00,-13.00,-7.00,-1.00,-2.00,+5.00,-29.00,-12.00,-2.00,-6.00,-6.00,-5.00,-4.00
-20.00,-18.00,+5.00,+6.00,+25.00,+11.00,+5.00,+3.00,-27.00,-31.00,+10.00,+22.00,+18.00,-4.00,+2.00,-5.00
+37.00,+78.00,+17.00,+6.00,-14.00,-8.00,-1.00,+4.00,-26.00,+26.00,+2.00,-4.00,-10.00,-15.00,-7.00,-6.00
-10.00,-18.00,-15.00,-4.00,+8.00,-7.00,-3.00,-6.00,+67.00,+127.00,+31.00,+15.00,-1.00,+13.00,+7.00,+9.00
+8.00,+46.00,+9.00,+0.00,+2.00,+0.00,+0.00,-1.00,-35.00,-17.00,-17.00,-15.00,-3.00,-2.00,-2.00,-1.00
-4.00,-11.00,-5.00,-4.00,-23.00,-10.00,-3.00,-3.00,-5.00,-104.00,-31.00,+22.00,+21.00,-4.00,-8.00,-26.00
-15.00,+30.00,+2.00,+3.00,+11.00,-21.00,-3.00,-6.00,+38.00,+94.00,+43.00,-15.00,-6.00,+1.00,+8.00,+18.00
+5.00,-25.00,+8.00,+3.00,+5.00,+14.00,+6.00,+6.00,+0.00,-20.00,-12.00,-3.00,+0.00,-3.00,+0.00,+10.00
+1.00,+13.00,-8.00,-6.00,-8.00,-13.00,-6.00,-4.00,-9.00,+71.00,+37.00,+27.00,+17.00,+4.00,-2.00,-3.00
-15.00,-18.00,-17.00,-9.00,-13.00,-7.00,-6.00,-7.00,-3.00,-57.00,-5.00,-11.00,+4.00,+10.00,-3.00,-2.00
-5.00,+30.00,+15.00,+5.00,+10.00,+25.00,-1.00,+3.00,-128.00,-107.00,-54.00,-56.00,-66.00,-29.00,-22.00,-45.00
+3.00,-56.00,-27.00,-7.00,-13.00,-16.00,-7.00,-12.00,+23.00,+53.00,+19.00,-1.00,-3.00,+4.00,+6.00,+11.00
+22.00,+42.00,+23.00,+8.00,+6.00,+5.00,+3.00,+8.00,-43.00,+7.00,-7.00,-33.00,-21.00,-11.00,-9.00,-21.00
-7.00,-1.00,-16.00,-8.00,-1.00,+3.00,-3.00,-7.00,+12.00,+44.00,+9.00,+20.00,+5.00,+9.00,+7.00,+18.00
-32.00,-84.00,-18.00,-13.00,-8.00,+9.00,-4.00,-9.00,-17.00,-25.00,+3.00,+28.00,+30.00,+10.00,+1.00,-6.00
+1.00,+28.00,+2.00,+4.00,+16.00,-15.00,+1.00,+3.00,+29.00,-39.00,-21.00,-18.00,-6.00,-8.00,+0.00,+17.00
+2.00,-20.00,+14.00,+7.00,-1.00,+3.00,+0.00,+8.00,+59.00,-21.00,+7.00,+4.00,-2.00,+0.00,+1.00,+5.00
+27.00,+82.00,+7.00,-7.00,+9.00,+0.00,-2.00,+8.00,-25.00,+0.00,-1.00,+5.00,+13.00,+0.00,-1.00,+10.00
+12.00,+8.00,+23.00,+9.00,+12.00,+5.00,+1.00,+4.00,-46.00,-6.00,-7.00,+2.00,+2.00,+0.00,-7.00,-11.00
-9.00,+27.00,-32.00,-9.00,-49.00,-30.00,-1.00,-8.00,+15.00,-17.00,-10.00,+27.00,+26.00,+0.00,-4.00,-17.00
-34.00,-51.00,+5.00,+4.00,+10.00,+5.00,+0.00,-10.00,+12.00,-24.00,-8.00,-41.00,-34.00,-8.00,-3.00,+4.00
+11.00,+70.00,-4.00,-1.00,+6.00,-3.00,-3.00,-7.00,+79.00,+48.00,+22.00,+3.00,+1.00,+3.00,+11.00,+34.00
+0.00,-12.00,+2.00,-2.00,-6.00,-9.00,+1.00,+8.00,-3.00,-47.00,+2.00,+5.00,+10.00,+5.00,+6.00,+10.00
-15.00,+3.00,+7.00,-3.00,+4.00,+14.00,-2.00,-5.00,+1.00,+32.00,+19.00,+30.00,+12.00,+10.00,+0.00,-15.00
-25.00,-65.00,-25.00,-2.00,-2.00,+3.00,-3.00,-3.00,-9.00,+17.00,-5.00,-7.00,+2.00,-6.00,-8.00,-11.00
+20.00,+28.00,-1.00,-1.00,-7.00,-3.00,+0.00,-5.00,-53.00,-75.00,-32.00,-31.00,+1.00,-13.00,-7.00,-7.00
+24.00,+51.00,+17.00,+1.00,-1.00,+1.00,-3.00,+0.00,+48.00,+126.00,+29.00,+4.00,-4.00,-1.00,-3.00,-4.00
+7.00,+18.00,+11.00,+2.00,+3.00,+4.00,+2.00,+8.00,-80.00,-111.00,-29.00,+8.00,+9.00,+5.00,-1.00,-6.00
-6.00,-20.00,-29.00,-12.00,-3.00,+10.00,-2.00,-4.00,+27.00,+74.00,+34.00,-7.00,-10.00,-3.00,+12.00,+17.00
-4.00,-34.00,-20.00,-9.00,-7.00,-21.00,-13.00,-14.00,-41.00,+16.00,-1.00,-1.00,-10.00,-6.00,-3.00,-13.00
-21.00,-41.00,-15.00,+3.00,-5.00,-7.00,+4.00,-3.00,+34.00,+101.00,+22.00,+24.00,+24.00,+17.00,+10.00,+26.00
+13.00,+78.00,+7.00,-7.00,+6.00,+2.00,-6.00,-2.00,+66.00,+38.00,+1.00,-21.00,-18.00,-6.00,-4.00,+12.00
+12.00,-27.00,+51.00,+16.00,+20.00,+3.00,+3.00,+12.00,+56.00,-79.00,-25.00,+2.00,+9.00,+3.00,+1.00,+2.00
-5.00,+46.00,+16.00,+0.00,-2.00,+0.00,+0.00,+7.00,+5.00,+91.00,+25.00,+14.00,+0.00,-2.00,-4.00,-9.00
-5.00,+25.00,-29.00,-10.00,-13.00,+4.00,-1.00,-9.00,+0.00,-67.00,+7.00,+12.00,+8.00,+6.00,+6.00,+6.00
-2.00,+57.00,+36.00,+9.00,+10.00,+3.00,+1.00,+1.00,+85.00,+49.00,+12.00,-13.00,-6.00,-7.00,-3.00,+11.00
-4.00,-61.00,-28.00,-6.00,-2.00,-7.00,+1.00,-1.00,+7.00,+99.00,+30.00,+13.00,+10.00,+8.00,+10.00,+22.00
-14.00,-61.00,+15.00,+25.00,+26.00,+26.00,+7.00,+4.00,-56.00,-56.00,-23.00,+5.00,-2.00,+3.00,-4.00,-16.00
-26.00,-7.00,-54.00,-22.00,-19.00,-9.00,-7.00,-22.00,+72.00,-116.00,-61.00,-25.00,-5.00,-5.00,+2.00,+25.00
+39.00,-62.00,+64.00,+27.00,+25.00,+15.00,+11.00,+28.00,-85.00,-32.00,-8.00,-17.00,-13.00,-10.00,-19.00,-61.00
-8.00,+10.00,-10.00,-3.00,-6.00,-7.00,-4.00,-8.00,+56.00,+90.00,+47.00,+48.00,+31.00,+17.00,+16.00,+27.00
+7.00,+16.00,+20.00,-1.00,-8.00,-3.00,-4.00,-1.00,-83.00,-95.00,-49.00,-29.00,-12.00,-8.00,-11.00,-29.00
+2.00,-21.00,-6.00,-1.00,-3.00,-2.00,-4.00,+1.00,-30.00,+4.00,-8.00,-15.00,-13.00,-3.00,+0.00,-6.00
+1.00,+70.00,+6.00,+0.00,+4.00,+5.00,-1.00,+0.00,-128.00,-76.00,-12.00,-15.00,-20.00,-10.00,-7.00,-14.00
+14.00,+4.00,-45.00,-17.00,-21.00,-11.00,-5.00,-8.00,-106.00,-74.00,-21.00,-14.00,-13.00,-13.00,-9.00,-20.00
-4.00,-76.00,+11.00,+18.00,+10.00,+3.00,+7.00,+11.00,+54.00,-38.00,-3.00,+12.00,+12.00,+19.00,+11.00,+22.00
+23.00,-41.00,+35.00,+9.00,+13.00,+14.00,+6.00,+16.00,-110.00,+27.00,+12.00,+16.00,+16.00,-1.00,-10.00,-27.00
-24.00,+73.00,-36.00,-31.00,-34.00,-32.00,-15.00,-23.00,+123.00,-11.00,-2.00,-4.00,+2.00,+3.00,+8.00,+29.00
+13.00,-44.00,-6.00,+11.00,+8.00,+10.00,+4.00,+6.00,-126.00,-39.00,-5.00,-5.00,-6.00,-2.00,-13.00,-44.00
-7.00,+0.00,-6.00,+0.00,+2.00,+12.00,+7.00,+5.00,-20.00,-2.00,-7.00,+1.00,+2.00,-6.00,-2.00,-7.00
-56.00,+15.00,-70.00,-36.00,-49.00,-41.00,-21.00,-32.00,-41.00,-47.00,-7.00,+5.00,+5.00,-1.00,+1.00,-2.00
+26.00,-44.00,+59.00,+36.00,+41.00,+33.00,+17.00,+23.00,+85.00,+96.00,+22.00,+15.00,+3.00,+7.00,+4.00,+16.00
-20.00,-18.00,-57.00,-21.00,-9.00,-4.00,-5.00,-11.00,+11.00,-15.00,-25.00,-22.00,-11.00,-11.00,-5.00,-1.00
-40.00,-52.00,-35.00,-19.00,-16.00,-17.00,-12.00,-21.00,+18.00,+103.00,+24.00,-1.00,-5.00,-7.00,-5.00,-14.00
-5.00,-30.00,+48.00,+22.00,+18.00,+16.00,+9.00,+17.00,+62.00,+31.00,+20.00,+14.00,+7.00,+13.00,+13.00,+32.00
-32.00,+35.00,-60.00,-30.00,-22.00,-9.00,-12.00,-25.00,-84.00,-105.00,-42.00,-16.00,-12.00,-14.00,-17.00,-26.00
+5.00,-41.00,+52.00,+21.00,+5.00,+4.00,+7.00,+15.00,-69.00,-26.00,-7.00,+2.00,+4.00,+4.00,-1.00,-11.00
+35.00,+69.00,-23.00,-18.00,-7.00,-4.00,-7.00,-7.00,+72.00,+47.00,+17.00,+0.00,-5.00,-1.00,-3.00,-16.00
-6.00,-128.00,+1.00,+12.00,+10.00,+5.00,+5.00,+7.00,+63.00,+11.00,+25.00,+20.00,+8.00,+7.00,+7.00,+23.00
-2.00,+18.00,-8.00,+0.00,-7.00,-7.00,-3.00,-9.00,+41.00,+82.00,+43.00,+11.00,+12.00,+5.00,+10.00,+29.00
+22.00,+67.00,+30.00,+4.00,+29.00,+12.00,+0.00,+7.00,-67.00,-63.00,-31.00,-14.00,-10.00,-9.00,-9.00,-9.00
+19.00,+28.00,+36.00,+9.00,-12.00,-10.00,+6.00,+5.00,-38.00,+73.00,+19.00,+8.00,-2.00,-1.00,-3.00,-14.00
-13.00,+19.00,-43.00,-20.00,-3.00,-12.00,-10.00,-15.00,+0.00,+25.00,-2.00,-4.00,-1.00,-6.00,-6.00,-22.00
+37.00,-17.00,+70.00,+21.00,+12.00,+6.00,+9.00,+16.00,-48.00,-89.00,-18.00,-15.00,-6.00,-3.00,+1.00,-13.00
+3.00,+46.00,-33.00,-18.00,-18.00,-9.00,-10.00,-14.00,+11.00,+7.00,+27.00,+11.00,-1.00,+9.00,+12.00,+36.00
-19.00,-37.00,-13.00,-9.00,-2.00,+0.00,-3.00,-2.00,-93.00,-128.00,-69.00,-18.00,-6.00,-11.00,-17.00,-34.00
+21.00,+22.00,+34.00,+12.00,+9.00,+5.00,+6.00,+12.00,-18.00,+76.00,+11.00,+1.00,+2.00,-4.00,-2.00,-7.00
+8.00,+6.00,+15.00,+4.00,+3.00,+4.00,+2.00,+6.00,-52.00,-14.00,-11.00,-7.00,-3.00,-1.00,-4.00,-13.00
+26.00,+24.00,+28.00,+3.00,-4.00,-6.00,-1.00,+6.00,-32.00,-89.00,-70.00,-26.00,-16.00,-16.00,-19.00,-32.00
+9.00,+41.00,-3.00,-8.00,-7.00,-5.00,-6.00,-1.00,-101.00,+0.00,+7.00,-1.00,-5.00,-3.00,-9.00,-11.00
+21.00,-37.00,+39.00,+13.00,+5.00,+8.00,+7.00,+11.00,+36.00,+52.00,+25.00,+16.00,+11.00,+9.00,+9.00,+13.00
-8.00,-24.00,-25.00,-5.00,-3.00,-4.00,-1.00,+0.00,-45.00,+34.00,+8.00,+1.00,-1.00,-2.00,-6.00,-28.00
-62.00,-60.00,-25.00,-6.00,-2.00,+0.00,-3.00,-19.00,+44.00,+3.00,+12.00,+4.00,+3.00,-1.00,+2.00,+18.00
+22.00,+49.00,+43.00,+14.00,+21.00,+14.00,+11.00,+20.00,-39.00,-53.00,-46.00,-2.00,+4.00,+7.00,+4.00,-15.00
+4.00,-80.00,+8.00,+1.00,-8.00,-5.00,+0.00,+1.00,+72.00,+17.00,-23.00,-10.00,-5.00,-3.00,-2.00,+4.00
-35.00,+19.00,-20.00,-3.00,-4.00,+0.00,-2.00,+3.00,-42.00,+44.00,+2.00,+11.00,+3.00,+1.00,-2.00,+3.00
-8.00,+19.00,-18.00,-8.00,-9.00,-1.00,-6.00,-5.00,+34.00,+39.00,+5.00,-7.00,-2.00,-2.00,+1.00,+5.00
-6.00,-2.00,-46.00,-19.00,-11.00,-14.00,-10.00,-20.00,+6.00,+113.00,+31.00,+1.00,-4.00,-5.00,-6.00,-6.00
+12.00,+100.00,+55.00,+23.00,+13.00,+8.00,+5.00,+5.00,+5.00,+31.00,-7.00,-5.00,-2.00,-1.00,+3.00,+10.00
+46.00,-47.00,+17.00,+17.00,+12.00,+12.00,+14.00,+21.00,+34.00,-43.00,-27.00,-12.00,-8.00,-7.00,-8.00,-14.00
-21.00,+19.00,-15.00,-9.00,-8.00,-9.00,-6.00,-9.00,+74.00,-23.00,-15.00,+1.00,+6.00,+2.00,+7.00,+27.00
-22.00,-14.00,-16.00,-11.00,-9.00,-3.00,-6.00,-8.00,+6.00,+5.00,-2.00,-9.00,-9.00,-8.00,-11.00,-19.00
+69.00,+125.00,+30.00,-1.00,+7.00,-3.00,-1.00,+5.00,-2.00,-22.00,-5.00,-2.00,-5.00,-4.00,-3.00,+12.00
-11.00,-16.00,+2.00,+4.00,-4.00,-4.00,-2.00,-2.00,-2.00,+66.00,+46.00,+21.00,+13.00,+7.00,+7.00,+6.00
-1.00,+26.00,+7.00,-1.00,+0.00,+0.00,+2.00,+0.00,+62.00,+51.00,+18.00,+8.00,+3.00,+4.00,+8.00,+37.00
+2.00,-20.00,-17.00,+4.00,-10.00,+3.00,+6.00,+4.00,-48.00,-61.00,-18.00,-16.00,-12.00,-10.00,-10.00,-13.00
-1.00,-11.00,+53.00,+23.00,+16.00,-1.00,+3.00,+8.00,+68.00,+62.00,+87.00,+46.00,+27.00,+20.00,+23.00,+27.00
-75.00,-54.00,-16.00,-14.00,+0.00,+2.00,-1.00,-12.00,-68.00,-50.00,-47.00,-28.00,-15.00,-10.00,-7.00,+9.00
+0.00,-30.00,-16.00,-5.00,-6.00,-2.00,-5.00,-3.00,+24.00,-73.00,-26.00,+0.00,+10.00,+13.00,+11.00,+25.00
-56.00,-100.00,-34.00,-3.00,-4.00,-6.00,-5.00,-7.00,+4.00,+94.00,+51.00,+15.00,+5.00,+6.00,+6.00,+11.00
+19.00,-13.00,-28.00,-11.00,-8.00,-5.00,-6.00,-4.00,-24.00,-128.00,-36.00,-11.00,-8.00,-7.00,-6.00,+8.00
-76.00,-128.00,+4.00,+15.00,+9.00,+7.00,+4.00,-8.00,-50.00,+68.00,+56.00,+12.00,+1.00,+3.00,+4.00,+1.00
+33.00,+90.00,+102.00,+40.00,+23.00,+20.00,+20.00,+34.00,-72.00,-56.00,-65.00,-17.00,-7.00,-6.00,-12.00,-43.00
-9.00,-25.00,-7.00,-3.00,-1.00,-2.00,+0.00,+4.00,-3.00,-16.00,-23.00,-8.00,+8.00,-8.00,-7.00,+3.00
-46.00,-26.00,-64.00,-29.00,-18.00,-11.00,-16.00,-31.00,+45.00,+69.00,+35.00,-4.00,-11.00,-3.00,+0.00,+18.00
+61.00,+20.00,+90.00,+53.00,+27.00,+16.00,+19.00,+30.00,-73.00,-93.00,-26.00,-13.00,-7.00,-10.00,-15.00,-20.00
-17.00,+91.00,-43.00,-34.00,-22.00,-15.00,-14.00,-26.00,+57.00,-34.00,+13.00,-7.00,-7.00,+5.00,+9.00,+22.00
+36.00,+90.00,+14.00,-6.00,-1.00,-8.00,-3.00,+9.00,+18.00,+8.00,+9.00,+9.00,+7.00,+3.00,-4.00,-11.00
+2.00,+19.00,+10.00,+19.00,+14.00,+12.00,+15.00,+21.00,-128.00,-33.00,-42.00,-23.00,-1.00,-15.00,-28.00,-76.00
+37.00,+83.00,-65.00,-48.00,-38.00,-24.00,-31.00,-34.00,-22.00,-55.00,-15.00,-7.00,-37.00,-7.00,-7.00,-28.00
-68.00,-128.00,-68.00,-10.00,-13.00,-11.00,-7.00,-11.00,+59.00,+120.00,+25.00,+12.00,+11.00,+7.00,+17.00,+55.00
-5.00,-1.00,-6.00,-9.00,-3.00,-2.00,-7.00,-8.00,+48.00,+105.00,+40.00,+6.00,+3.00,-2.00,+9.00,-1.00
-27.00,-53.00,-56.00,-30.00,-22.00,-8.00,-13.00,-18.00,-128.00,-121.00,-51.00,-14.00,-12.00,-2.00,-17.00,-37.00
-9.00,+16.00,-36.00,-13.00,+4.00,-7.00,-5.00,-12.00,+53.00,+49.00,+33.00,+19.00,+16.00,+10.00,+18.00,+32.00
+2.00,+35.00,-2.00,+20.00,+1.00,-6.00,+0.00,-5.00,-128.00,+74.00,+97.00,+38.00,+16.00,+6.00,-7.00,-25.00
+22.00,-90.00,+86.00,+36.00,+27.00,+13.00,+16.00,+21.00,+100.00,-42.00,-8.00,-17.00,-12.00,+0.00,+14.00,+67.00
-1.00,+15.00,-56.00,-19.00,-9.00,-4.00,-7.00,-7.00,+37.00,-41.00,-16.00,-6.00,+1.00,+2.00,+10.00,+48.00
+10.00,+67.00,+18.00,-4.00,-10.00,-1.00,-9.00,-8.00,+59.00,-36.00,-14.00,-9.00,+7.00,+0.00,+3.00,-2.00
-20.00,-56.00,+8.00,+4.00,+4.00,+0.00,+2.00,-4.00,-38.00,-105.00,-3.00,+4.00,-11.00,-10.00,-12.00,-37.00
+11.00,+9.00,-6.00,+9.00,+7.00,+3.00,+12.00,+20.00,+86.00,+77.00,+64.00,+23.00,+15.00,+16.00,+32.00,+93.00
+10.00,+11.00,+121.00,+36.00,+19.00,+2.00,-1.00,-11.00,+69.00,+19.00,-27.00,-14.00,-7.00,-4.00,-3.00,+8.00
+29.00,-44.00,-49.00,-15.00,-10.00,+2.00,+11.00,+23.00,-64.00,-7.00,+6.00,+9.00,+4.00,-22.00,-12.00,-37.00
-42.00,-85.00,-51.00,-23.00,-15.00,-10.00,-14.00,-28.00,-50.00,+117.00,+45.00,+9.00,+5.00,+20.00,+11.00,+48.00
+44.00,+54.00,+58.00,+38.00,+24.00,+24.00,+26.00,+42.00,-73.00,-76.00,-58.00,-18.00,-7.00,-3.00,-6.00,-39.00
-59.00,-34.00,-72.00,-30.00,-18.00,-17.00,-19.00,-29.00,-128.00,-126.00,-93.00,-30.00,-24.00,-22.00,-23.00,-46.00
-7.00,-15.00,-23.00,-12.00,-6.00,-7.00,-9.00,-8.00,+29.00,+30.00,+63.00,+28.00,+21.00,+16.00,+18.00,+59.00
+31.00,+29.00,+3.00,-9.00,-3.00,+0.00,-5.00,+0.00,+9.00,+56.00,+18.00,-9.00,-16.00,-8.00,+5.00,-12.00
-12.00,-5.00,-69.00,-25.00,-16.00,-9.00,-11.00,-16.00,-17.00,-31.00,+22.00,+4.00,-1.00,-1.00,-7.00,+12.00
+24.00,-109.00,-14.00,+11.00,+5.00,+3.00,+8.00,+17.00,-99.00,-74.00,-9.00,+3.00,+0.00,-7.00,-6.00,-32.00
-49.00,+28.00,+17.00,-9.00,-7.00,-2.00,-2.00,-5.00,+18.00,+18.00,+23.00,+18.00,+16.00,+21.00,+20.00,+48.00
+100.00,+118.00,+26.00,+16.00,+21.00,+5.00,+6.00,+15.00,-117.00,-97.00,-92.00,-31.00,-11.00,-19.00,-26.00,-67.00
-20.00,+25.00,+46.00,+2.00,-2.00,-3.00,-9.00,-11.00,-105.00,-84.00,-5.00,+7.00,-6.00,-1.00,-9.00,-14.00
-3.00,-5.00,+26.00,-1.00,+2.00,+2.00,+7.00,+15.00,+76.00,+35.00,+8.00,-1.00,+2.00,-9.00,+0.00,-51.00
-46.00,-49.00,-56.00,-21.00,-7.00,-10.00,-20.00,-26.00,+82.00,+105.00,-15.00,-6.00,+4.00,+22.00,+10.00,+31.00
+27.00,-13.00,+93.00,+48.00,+21.00,+16.00,+22.00,+25.00,-30.00,-70.00,+60.00,+23.00,+9.00,+2.00,+0.00,-40.00
-51.00,-4.00,-10.00,-9.00,-11.00,-11.00,-10.00,-24.00,-10.00,-49.00,-107.00,-56.00,-27.00,-21.00,-11.00,-12.00
+40.00,+116.00,-4.00,-8.00,-3.00,-2.00,-2.00,+3.00,-37.00,-10.00,+5.00,-15.00,-13.00,-9.00,-12.00,+7.00
+36.00,+29.00,+70.00,+29.00,+13.00,+9.00,+9.00,+6.00,-8.00,+5.00,-27.00,-16.00,-5.00,-7.00,-16.00,-53.00
-18.00,-72.00,-3.00,+5.00,+11.00,+13.00,+12.00,+7.00,+58.00,-2.00,+16.00,+10.00,+4.00,+1.00,+3.00,+14.00
-6.00,+20.00,-46.00,-34.00,-25.00,-19.00,-20.00,-21.00,-49.00,-82.00,-21.00,+3.00,+5.00,+3.00,-1.00,-13.00
-48.00,-61.00,+8.00,+31.00,+14.00,+10.00,+10.00,+5.00,-63.00,+30.00,+68.00,+28.00,+22.00,+17.00,+20.00,+27.00
-69.00,+0.00,-56.00,-17.00,-1.00,+3.00,+3.00,-5.00,+6.00,+40.00,+4.00,-10.00,-18.00,-6.00,-4.00,+13.00
+78.00,+28.00,+60.00,+14.00,+1.00,-2.00,-11.00,+10.00,-60.00,-128.00,-66.00,-14.00,-6.00,-27.00,-9.00,-6.00
-81.00,-54.00,-28.00,+1.00,+2.00,+10.00,+6.00,-2.00,-25.00,+98.00,+48.00,+23.00,+9.00,+27.00,-8.00,-70.00
+5.00,+23.00,+1.00,-26.00,-12.00,-10.00,-8.00,-2.00,-48.00,-26.00,-25.00,-13.00,-11.00,+1.00,+1.00,+57.00
-6.00,-42.00,-82.00,-45.00,-32.00,-25.00,-27.00,-41.00,-97.00,-75.00,-54.00,-24.00,-11.00,-17.00,-25.00,-83.00
+27.00,+7.00,+46.00,+29.00,+18.00,+13.00,+17.00,+35.00,+34.00,+44.00,+46.00,+16.00,+12.00,+4.00,+17.00,+41.00
-41.00,-44.00,-6.00,+13.00,+9.00,+3.00,-1.00,-16.00,-97.00,-86.00,-4.00,-2.00,-3.00,-7.00,-3.00,-31.00
+70.00,+73.00,-36.00,-20.00,-15.00,-9.00,-9.00,+7.00,+53.00,+86.00,+3.00,+0.00,-4.00,-7.00,-12.00,-9.00
+14.00,+44.00,+52.00,+11.00,+7.00,+4.00,+9.00,+14.00,-88.00,-104.00,-41.00,-9.00,-5.00,-1.00,-13.00,-43.00
-50.00,-68.00,+0.00,+9.00,+2.00,+1.00,-2.00,-24.00,+33.00,+97.00,+58.00,+28.00,+15.00,+15.00,+18.00,+15.00
+80.00,+4.00,+15.00,-13.00,-9.00,-6.00,-7.00,+8.00,+20.00,-78.00,-79.00,-29.00,-13.00,-12.00,-4.00,+28.00
+54.00,-78.00,+49.00,+41.00,+33.00,+21.00,+23.00,+35.00,-6.00,+67.00,+58.00,+28.00,+18.00,+17.00,+18.00,+23.00
+5.00,+30.00,-8.00,-5.00,-10.00,-6.00,-7.00,-11.00,-100.00,-127.00,-78.00,-41.00,-26.00,-30.00,-36.00,-97.00
+30.00,+111.00,-43.00,-43.00,-30.00,-18.00,-17.00,-12.00,-13.00,+51.00,+28.00,+9.00,+7.00,+10.00,+4.00,-33.00
+17.00,+49.00,-17.00,+12.00,+9.00,+5.00,+4.00,-2.00,+88.00,+104.00,+65.00,+27.00,+8.00,+5.00,+8.00,+39.00
-42.00,-46.00,+18.00,-10.00,-6.00,-2.00,-1.00,-7.00,+27.00,-29.00,+2.00,+1.00,+5.00,+6.00,+12.00,+32.00
+25.00,-91.00,-16.00,+5.00,+2.00,+0.00,-4.00,+4.00,+27.00,-71.00,-29.00,-6.00,-6.00,-22.00,-7.00,+3.00
-126.00,-125.00,-29.00,-11.00,-8.00,-3.00,-10.00,-33.00,-10.00,+108.00,+55.00,+17.00,+16.00,+18.00,-1.00,+21.00
+24.00,-30.00,+42.00,+23.00,+20.00,+19.00,+23.00,+27.00,+100.00,-12.00,+48.00,+11.00,-1.00,+23.00,+12.00,+42.00
-98.00,+63.00,-57.00,-34.00,-23.00,-17.00,-19.00,-26.00,-74.00,-94.00,-23.00,-4.00,+1.00,+0.00,-7.00,-37.00
+19.00,-72.00,+21.00,+29.00,+15.00,+9.00,+13.00,+23.00,+127.00,+77.00,+76.00,+19.00,+0.00,+5.00,+16.00,+58.00
+7.00,+83.00,-34.00,-40.00,-27.00,-17.00,-20.00,-36.00,-18.00,-128.00,-82.00,-30.00,-13.00,-13.00,-13.00,-11.00
-42.00,-19.00,-30.00,-4.00,-4.00,-1.00,-3.00,-16.00,-4.00,+48.00,+13.00,+10.00,+12.00,-2.00,+6.00,+2.00
+17.00,-17.00,+15.00,+21.00,+16.00,+12.00,+13.00,+21.00,+41.00,+7.00,+11.00,+4.00,-2.00,-1.00,-2.00,-10.00
+50.00,+83.00,+31.00,-5.00,-1.00,+0.00,+3.00,+14.00,-67.00,-17.00,-2.00,-19.00,-15.00,-11.00,-17.00,-11.00
-84.00,+24.00,-74.00,-43.00,-24.00,-24.00,-26.00,-42.00,-31.00,+33.00,-26.00,-3.00,+3.00,+5.00,+13.00,+40.00
-7.00,-28.00,-2.00,+14.00,+0.00,+15.00,+12.00,+37.00,-112.00,-96.00,-30.00,-17.00,-15.00,-15.00,-18.00,-6.00
+13.00,+48.00,+8.00,-3.00,+0.00,-18.00,-12.00,-13.00,+15.00,+79.00,+22.00,+11.00,+12.00,+14.00,+19.00,-15.00
-47.00,-71.00,+6.00,+9.00,+4.00,+1.00,+5.00,+6.00,-57.00,-23.00,-29.00,-13.00,-7.00,-12.00,-15.00,-20.00
+3.00,-61.00,-9.00,+8.00,+7.00,+6.00,+8.00,+16.00,+68.00,+62.00,+15.00,-2.00,-2.00,+5.00,+1.00,+23.00
+39.00,+44.00,-65.00,-41.00,-29.00,-21.00,-22.00,-26.00,-63.00,-45.00,-21.00,-9.00,-6.00,-15.00,+0.00,+17.00
-56.00,-38.00,-13.00,-11.00,-17.00,-9.00,-13.00,-26.00,+51.00,-95.00,-19.00,-10.00,-10.00,-12.00,-4.00,+6.00
-25.00,-11.00,-13.00,+10.00,+5.00,+3.00,-4.00,-23.00,+50.00,+46.00,+67.00,+48.00,+37.00,+29.00,+36.00,+83.00
-26.00,-83.00,-14.00,-11.00,-15.00,-9.00,-7.00,-2.00,-70.00,-128.00,-63.00,-37.00,-20.00,-15.00,-25.00,-60.00
+80.00,+82.00,+99.00,+51.00,+39.00,+25.00,+34.00,+49.00,+100.00,+21.00,+19.00,-6.00,-19.00,-22.00,-3.00,-43.00
-47.00,-80.00,-51.00,-14.00,-12.00,-4.00,-8.00,-18.00,-85.00,-85.00,-17.00,-5.00,-5.00,+15.00,-9.00,-1.00
+61.00,+102.00,+38.00,+29.00,+26.00,+16.00,+19.00,+20.00,+1.00,-37.00,-13.00,-3.00,-1.00,-1.00,+4.00,+12.00
-21.00,-26.00,-31.00,-6.00,-8.00,-4.00,-8.00,-13.00,-25.00,+53.00,-14.00,-1.00,+6.00,+5.00,+7.00,+29.00
-9.00,+84.00,+10.00,-15.00,-1.00,-8.00,-9.00,-16.00,+5.00,-15.00,-2.00,-3.00,-2.00,-8.00,-6.00,+14.00
+1.00,-35.00,-1.00,+10.00,+4.00,+6.00,+7.00,-5.00,-118.00,-46.00,+17.00,-15.00,-23.00,-33.00,-28.00,-51.00
-56.00,-128.00,-59.00,-26.00,-22.00,-7.00,-8.00,-10.00,+75.00,-20.00,-78.00,-20.00,+5.00,+14.00,+15.00,+66.00
+93.00,+11.00,+55.00,+34.00,+34.00,+27.00,+26.00,+53.00,-69.00,-38.00,-1.00,+1.00,-5.00,-9.00,-17.00,-56.00
-14.00,-128.00,-20.00,-9.00,-7.00,-6.00,-6.00,-13.00,-64.00,-58.00,-47.00,-19.00,-1.00,+1.00,+5.00,+21.00
-1.00,+18.00,-5.00,-4.00,+3.00,-5.00,+0.00,-5.00,+108.00,-4.00,-3.00,+8.00,+4.00,+8.00,+9.00,+30.00
-20.00,-31.00,+1.00,-5.00,-2.00,+1.00,-4.00,-3.00,-92.00,-41.00,+5.00,+3.00,+9.00,+5.00,+3.00,-30.00
+13.00,+10.00,+45.00,+7.00,-5.00,-2.00,+2.00,+13.00,+69.00,-14.00,+10.00,+7.00,-3.00,-2.00,-1.00,+2.00
-28.00,-103.00,-41.00,+6.00,+12.00,+13.00,+11.00,+15.00,-91.00,-67.00,-18.00,+4.00,+5.00,+2.00,-2.00,-4.00
-16.00,-57.00,-74.00,-21.00,-17.00,-4.00,-6.00,-8.00,+113.00,+110.00,+56.00,+24.00,+14.00,+12.00,+18.00,+15.00
-19.00,-74.00,+1.00,-3.00,-11.00,-15.00,-19.00,-30.00,-24.00,-20.00,+4.00,-3.00,+2.00,-1.00,-3.00,+6.00
+112.00,+121.00,+64.00,+7.00,+14.00,+11.00,+22.00,+58.00,+19.00,-23.00,-28.00,-25.00,-26.00,-29.00,-4.00,+22.00
-21.00,-104.00,+28.00,+14.00,+0.00,-3.00,-5.00,-16.00,+81.00,+7.00,+37.00,+19.00,+16.00,+33.00,+12.00,+9.00
+40.00,+113.00,-1.00,-16.00,-10.00,-8.00,-8.00,+1.00,+50.00,+54.00,-6.00,+0.00,+4.00,+7.00,-2.00,+31.00
-18.00,-54.00,-14.00,-2.00,+3.00,-7.00,-5.00,+3.00,-6.00,-54.00,-4.00,+3.00,-2.00,+0.00,+2.00,-2.00
+8.00,-5.00,-60.00,-28.00,-21.00,-13.00,-12.00,-22.00,-12.00,+76.00,-12.00,-12.00,-8.00,-9.00,-6.00,+33.00
-42.00,-76.00,+20.00,+14.00,+11.00,+7.00,+7.00,+6.00,-46.00,-46.00,-18.00,+3.00,+0.00,-5.00,+1.00,-19.00
+51.00,+4.00,-63.00,-25.00,-6.00,-4.00,-11.00,-17.00,+52.00,+72.00,+12.00,+6.00,+4.00,+1.00,+5.00,+18.00
+6.00,+24.00,+59.00,+11.00,-3.00,+0.00,+3.00,+8.00,-41.00,-45.00,-42.00,-28.00,-20.00,-18.00,-15.00,-11.00
-57.00,-47.00,-10.00,+0.00,-3.00,+0.00,-8.00,-20.00,-44.00,-21.00,+6.00,+2.00,+0.00,+1.00,-9.00,-43.00
-40.00,+127.00,-2.00,-37.00,-23.00,-29.00,-29.00,-36.00,+49.00,+16.00,+20.00,+9.00,+5.00,-2.00,+7.00,+5.00
-3.00,-125.00,+26.00,+24.00,+12.00,+10.00,+20.00,+20.00,+23.00,+3.00,-5.00,+12.00,+8.00,+8.00,+2.00,+13.00
+89.00,+5.00,-5.00,+7.00,+7.00,+9.00,+9.00,+32.00,-83.00,+59.00,+20.00,-7.00,-8.00,-15.00,-15.00,-54.00
-1.00,-34.00,+11.00,+4.00,+2.00,-1.00,+1.00,-4.00,+26.00,-96.00,-12.00,-1.00,+0.00,+12.00,+26.00,+55.00
-56.00,-68.00,-31.00,-6.00,-5.00,-3.00,-6.00,-16.00,+57.00,+127.00,+58.00,+20.00,+12.00,+1.00,+0.00,+3.00
-21.00,-46.00,+28.00,+1.00,-7.00,-4.00,-9.00,-12.00,-12.00,-61.00,-30.00,-15.00,-6.00,-6.00,-4.00,-5.00
+65.00,-10.00,+26.00,+11.00,+4.00,+2.00,+10.00,+22.00,+31.00,+19.00,+17.00,+19.00,+14.00,+10.00,+3.00,+3.00
-91.00,-82.00,-78.00,-28.00,-19.00,-15.00,-17.00,-30.00,-59.00,-115.00,-76.00,-28.00,-19.00,-35.00,-22.00,-24.00
+67.00,+68.00,+20.00,-6.00,-9.00,-11.00,-12.00,-12.00,-99.00,-70.00,-7.00,-10.00,-9.00,+30.00,-5.00,-54.00
+55.00,+111.00,+88.00,+29.00,+22.00,+17.00,+20.00,+39.00,+6.00,+38.00,+23.00,+13.00,+8.00,-4.00,+6.00,+36.00
+17.00,+89.00,-17.00,-7.00,-14.00,-1.00,-5.00,-8.00,+55.00,-19.00,-11.00,-1.00,+0.00,+14.00,+10.00,+40.00
-29.00,-34.00,-27.00,-3.00,-2.00,+5.00,+1.00,-7.00,-103.00,-33.00,-37.00,-22.00,-10.00,-10.00,-22.00,-35.00
+22.00,-97.00,+9.00,+7.00,+3.00,-7.00,+1.00,+8.00,-98.00,+71.00,-15.00,-10.00,-9.00,-18.00,-17.00,-56.00
+36.00,-6.00,+26.00,+9.00,-1.00,+2.00,+2.00,+10.00,-85.00,+34.00,+5.00,-7.00,-4.00,-10.00,-11.00,-26.00
-26.00,+1.00,-34.00,-14.00,+4.00,+1.00,+1.00,+10.00,+48.00,-53.00,+7.00,+7.00,+6.00,+9.00,+11.00,+2.00
+17.00,+4.00,+45.00,+16.00,+7.00,+5.00,+3.00,+2.00,-10.00,+89.00,+34.00,-1.00,-7.00,-4.00,-7.00,-6.00
-11.00,+0.00,-71.00,-35.00,-28.00,-21.00,-21.00,-36.00,+23.00,-11.00,+43.00,+27.00,+17.00,+6.00,+17.00,+51.00
-16.00,-64.00,+38.00,+15.00,+17.00,+9.00,+13.00,+36.00,+0.00,-41.00,-18.00,-11.00,-4.00,+2.00,+6.00,-5.00
+41.00,-46.00,+46.00,+21.00,+15.00,+12.00,+17.00,+19.00,+92.00,+80.00,+32.00,+8.00,+3.00,+1.00,+15.00,+58.00
-6.00,+45.00,-53.00,-42.00,-29.00,-21.00,-20.00,-14.00,-48.00,-40.00,-3.00,+6.00,+6.00,+8.00,+0.00,+0.00
+2.00,-27.00,+4.00,+5.00,+5.00,+9.00,+6.00,+7.00,+18.00,+52.00,-1.00,-6.00,-7.00,-14.00,-4.00,-4.00
-24.00,+40.00,-27.00,-4.00,-5.00,-6.00,-13.00,-19.00,-77.00,-128.00,-31.00,+0.00,-2.00,+1.00,-1.00,-17.00
-60.00,-94.00,-64.00,-33.00,-19.00,-17.00,-13.00,-16.00,-71.00,+127.00,+42.00,+7.00,+20.00,+2.00,-3.00,-14.00
-8.00,-20.00,+39.00,+13.00,+9.00,+6.00,+10.00,+8.00,+80.00,+34.00,+25.00,+9.00,-18.00,+2.00,+2.00,-6.00
-64.00,-90.00,-31.00,-7.00,-8.00,-7.00,-9.00,-12.00,-23.00,-75.00,-51.00,-23.00,-9.00,-22.00,-14.00,-51.00
+9.00,-23.00,+62.00,+25.00,+13.00,+13.00,+16.00,+14.00,-92.00,+48.00,+16.00,+4.00,+0.00,-3.00,-5.00,-9.00
-70.00,+125.00,+10.00,-9.00,-1.00,-8.00,-8.00,-23.00,+106.00,+86.00,+25.00,+23.00,+22.00,+32.00,+20.00,+42.00
-19.00,-39.00,+16.00,+14.00,+7.00,+3.00,+5.00,+6.00,+77.00,-13.00,+5.00,-4.00,-6.00,-1.00,-6.00,-15.00
-7.00,-7.00,-2.00,-8.00,-2.00,+4.00,-1.00,+3.00,-3.00,-63.00,-19.00,-11.00,-6.00,-5.00,+1.00,-1.00
+1.00,+1.00,-11.00,-3.00,-3.00,+3.00,-1.00,-11.00,-8.00,+74.00,+33.00,+10.00,-1.00,-4.00,-8.00,-30.00
-4.00,+54.00,-20.00,-13.00,-6.00,-14.00,-14.00,-18.00,+12.00,-48.00,-73.00,-26.00,-16.00,-15.00,-8.00,-8.00
+33.00,+11.00,+64.00,+41.00,+23.00,+18.00,+21.00,+32.00,+37.00,+37.00,+25.00,+23.00,+26.00,+26.00,+20.00,+22.00
+33.00,+75.00,+50.00,+14.00,+3.00,-3.00,+4.00,-4.00,-43.00,-47.00,+5.00,-3.00,-5.00,-3.00,+3.00,+33.00
-34.00,+20.00,-36.00,-9.00,-4.00,-1.00,-6.00,-9.00,+43.00,-55.00,-15.00,-6.00,-2.00,-1.00,+0.00,+18.00
+101.00,+92.00,+85.00,+31.00,+19.00,+20.00,+21.00,+29.00,+56.00,+105.00,+56.00,+17.00,-1.00,+3.00,+3.00,-7.00
+1.00,-38.00,+31.00,+19.00,+17.00,+8.00,+7.00,+9.00,-31.00,-79.00,-21.00,-6.00,+1.00,-4.00,-5.00,-21.00
-6.00,+47.00,-16.00,-10.00,-6.00,-4.00,-5.00,-2.00,+35.00,-78.00,-62.00,-22.00,-8.00,-5.00,-3.00,-3.00
+17.00,-71.00,-25.00,-13.00,-11.00,-10.00,-6.00,-6.00,-30.00,+26.00,+1.00,-10.00,-7.00,-5.00,-14.00,-35.00
-26.00,+23.00,+9.00,+24.00,+14.00,+13.00,+7.00,+4.00,-2.00,-14.00,-9.00,-5.00,-10.00,-10.00,-6.00,-6.00
-9.00,-8.00,-38.00,-26.00,-10.00,-11.00,-10.00,-19.00,-108.00,-65.00,-30.00,-9.00,+2.00,-8.00,-13.00,-38.00
+43.00,+65.00,+34.00,+1.00,-3.00,-2.00,-4.00,+7.00,+41.00,+107.00,+47.00,+23.00,+30.00,+15.00,+5.00,+9.00
-39.00,-66.00,-123.00,-33.00,-13.00,-8.00,-4.00,-25.00,-57.00,-113.00,-42.00,-30.00,-49.00,-24.00,-12.00,-29.00
-36.00,-128.00,+17.00,+6.00,-3.00,-2.00,-5.00,-14.00,-28.00,-27.00,+4.00,+7.00,+3.00,+17.00,+2.00,+6.00
+57.00,+67.00,+5.00,+8.00,+7.00,+8.00,+8.00,+22.00,-46.00,+62.00,+26.00,-13.00,-22.00,+1.00,-2.00,-19.00
+45.00,+95.00,+1.00,+2.00,-5.00,-3.00,-3.00,+1.00,-45.00,-17.00,+11.00,+6.00,-2.00,-7.00,-1.00,+2.00
-53.00,-3.00,+1.00,-17.00,-11.00,-7.00,-10.00,-15.00,-49.00,-85.00,-43.00,-14.00,+9.00,+19.00,-7.00,-9.00
+9.00,-66.00,-32.00,-8.00,-8.00,-4.00,-4.00,+4.00,-67.00,-23.00,+0.00,-2.00,-9.00,-9.00,+0.00,-8.00
-43.00,-39.00,-20.00,+1.00,+3.00,-2.00,-4.00,-14.00,-11.00,-36.00,+1.00,+15.00,+18.00,+8.00,+1.00,-5.00
-6.00,-11.00,-17.00,-8.00,-6.00,+5.00,-1.00,+2.00,+54.00,-24.00,-18.00,-7.00,-3.00,-1.00,-5.00,+3.00
+22.00,+2.00,+50.00,+26.00,+7.00,+4.00,+16.00,+30.00,+9.00,+49.00,+9.00,+3.00,+5.00,-6.00,-5.00,-11.00
-34.00,-1.00,-24.00,-19.00,-6.00,-12.00,-8.00,-19.00,-109.00,-93.00,-2.00,+5.00,+5.00,-5.00,-3.00,+1.00
+5.00,+13.00,-22.00,-12.00,-4.00,+6.00,-9.00,-5.00,+8.00,+37.00,+5.00,-2.00,-6.00,+1.00,-2.00,-3.00
+0.00,+17.00,+13.00,+12.00,+20.00,+5.00,+5.00,+3.00,+17.00,-6.00,-3.00,+4.00,-2.00,-4.00,-6.00,+13.00
+13.00,+45.00,+11.00,+7.00,+3.00,+2.00,+4.00,+5.00,+29.00,+5.00,+11.00,+3.00,+8.00,+4.00,+10.00,+20.00
-6.00,+75.00,+0.00,-11.00,-9.00,-9.00,-6.00,-8.00,-27.00,-19.00,-3.00,-15.00,-12.00,-8.00,-9.00,-19.00
+17.00,+27.00,+11.00,+9.00,+6.00,+12.00,+9.00,+17.00,+31.00,-24.00,+1.00,+15.00,+16.00,+0.00,-4.00,+4.00
+32.00,-62.00,-7.00,+3.00,-2.00,+6.00,+7.00,+14.00,+10.00,+121.00,+20.00,+1.00,+11.00,+3.00,-1.00,+2.00
+3.00,-58.00,-27.00,-17.00,-5.00,-10.00,-16.00,-18.00,-47.00,-54.00,-13.00,+4.00,+0.00,-3.00,-4.00,-14.00
+5.00,+15.00,+22.00,+10.00,+1.00,+6.00,+5.00,+2.00,+33.00,+87.00,+19.00,+4.00,+28.00,-6.00,+1.00,+5.00
-30.00,-4.00,-22.00,-15.00,-14.00,-17.00,-11.00,-16.00,+31.00,+0.00,-16.00,-27.00,-71.00,-4.00,-9.00,-11.00
+5.00,-50.00,+10.00,+13.00,+15.00,+10.00,+8.00,+15.00,-23.00,-33.00,+7.00,+8.00,+11.00,+2.00,+6.00,+13.00
-7.00,+25.00,+4.00,-5.00,-6.00,+1.00,-3.00,+2.00,+29.00,+66.00,+17.00,+2.00,+9.00,+8.00,+5.00,+11.00
+12.00,-14.00,-8.00,-4.00,-5.00,-8.00,-2.00,+2.00,-12.00,-42.00,-14.00,-9.00,-9.00,-11.00,-7.00,-2.00
+7.00,-19.00,+6.00,+0.00,+7.00,-1.00,+0.00,+1.00,-8.00,+21.00,+5.00,-2.00,+3.00,-14.00,-1.00,-6.00
-1.00,+8.00,-3.00,-7.00,-21.00,-3.00,+2.00,+5.00,+31.00,+33.00,+0.00,-5.00,-6.00,+25.00,-1.00,+5.00
+8.00,+70.00,+1.00,-2.00,+9.00,-3.00,-8.00,-8.00,-17.00,-19.00,-10.00,+1.00,-10.00,-2.00,+9.00,+12.00
-68.00,-100.00,-56.00,-22.00,-13.00,-5.00,-12.00,-27.00,+10.00,-20.00,-2.00,+7.00,+2.00,+3.00,+2.00,-3.00
+17.00,+21.00,+12.00,+4.00,-16.00,-23.00,+4.00,-4.00,+47.00,+51.00,+12.00,+8.00,+22.00,+5.00,+2.00,+2.00
-11.00,-37.00,-10.00,+2.00,+16.00,+3.00,-3.00,-2.00,-42.00,-6.00,+2.00,-2.00,-12.00,-7.00,-1.00,+4.00
-6.00,+28.00,+20.00,+5.00,-7.00,+4.00,+0.00,-1.00,+36.00,-43.00,-19.00,-7.00,+3.00,-10.00,-6.00,+3.00
-2.00,+10.00,-8.00,-5.00,-10.00,-7.00,-1.00,+4.00,-31.00,+68.00,+27.00,+7.00,-1.00,+4.00,-3.00,-15.00
+15.00,+6.00,-4.00,-1.00,+8.00,+6.00,-1.00,+3.00,+56.00,+32.00,+5.00,+11.00,+16.00,+4.00,+9.00,+17.00
-9.00,-16.00,-4.00,-6.00,-2.00,-9.00,-4.00,-11.00,-34.00,-8.00,-5.00,-4.00,-13.00,-8.00,-6.00,-7.00
+23.00,+22.00,-1.00,-1.00,+2.00,-3.00,+4.00,+7.00,+49.00,-11.00,-4.00,-2.00,+6.00,-1.00,-2.00,+4.00
-20.00,-60.00,+9.00,+5.00,+7.00,+2.00,+3.00,+5.00,-67.00,-48.00,+1.00,-1.00,-10.00,-5.00,-7.00,-15.00
+9.00,+7.00,+3.00,-1.00,-6.00,+1.00,-2.00,+1.00,+10.00,+3.00,-4.00,-8.00,-2.00,-2.00,+3.00,+11.00
+5.00,-25.00,+7.00,+1.00,-2.00,+2.00,+4.00,+3.00,+8.00,+57.00,+3.00,-5.00,-3.00,-6.00,+4.00,+13.00
-1.00,-1.00,+2.00,+3.00,+1.00,+0.00,-1.00,+3.00,-17.00,-41.00,-9.00,-1.00,+2.00,+1.00,+6.00,+0.00
+4.00,-14.00,-1.00,-4.00,-4.00,-3.00,-5.00,-5.00,+15.00,+48.00,+5.00,-1.00,-10.00,-1.00,+0.00,-3.00
+18.00,-5.00,+8.00,+10.00,+6.00,+5.00,+6.00,+6.00,-37.00,+13.00,+13.00,+6.00,+13.00,+1.00,+0.00,-6.00
-17.00,-17.00,-22.00,-1.00,+4.00,+0.00,-2.00,-4.00,+14.00,-14.00,-3.00,+6.00,+7.00,+3.00,-1.00,-5.00
-4.00,-26.00,-3.00,-3.00,-7.00,-2.00,+2.00,-2.00,-99.00,-23.00,-6.00,+0.00,+0.00,-9.00,-8.00,-15.00
-15.00,+54.00,-13.00,-10.00,-4.00,-6.00,-9.00,-11.00,+44.00,+50.00,+11.00,-20.00,-49.00,-7.00,+1.00,+5.00
+19.00,+1.00,+0.00,-3.00,-4.00,-2.00,-4.00,+0.00,+52.00,+53.00,+13.00,+4.00,+11.00,+3.00,+5.00,+18.00
-7.00,-6.00,+6.00,-4.00,-3.00,-4.00,-4.00,-9.00,+14.00,+21.00,+4.00,-2.00,-1.00,-11.00,-3.00,-6.00
+14.00,+0.00,+6.00,+2.00,+2.00,+2.00,-2.00,-1.00,+5.00,+32.00,+9.00,+4.00,+15.00,+19.00,+6.00,-1.00
+31.00,+14.00,-7.00,+1.00,+5.00,+6.00,+2.00,-4.00,-25.00,-41.00,-11.00,+1.00,-11.00,-6.00,-6.00,-12.00
-13.00,-19.00,-13.00,-2.00,+0.00,-2.00,-4.00,-7.00,-47.00,-34.00,-17.00,-8.00,-3.00,-2.00,-7.00,-7.00
+6.00,+12.00,-7.00,-2.00,-6.00,-4.00,+0.00,+6.00,+34.00,-21.00,+0.00,+8.00,+0.00,-1.00,+2.00,+2.00
-9.00,-6.00,+8.00,+1.00,-1.00,-1.00,-2.00,-3.00,+2.00,+49.00,+5.00,-1.00,-1.00,-6.00,-2.00,-1.00
-35.00,-1.00,-30.00,-13.00,-7.00,+6.00,-9.00,-12.00,-10.00,-46.00,-15.00,-13.00,+3.00,+2.00,+3.00,-1.00
+31.00,+35.00,+50.00,+21.00,+6.00,-17.00,+10.00,+16.00,-32.00,-15.00,-5.00,-6.00,-2.00,-4.00,-5.00,-11.00
-2.00,-30.00,+9.00,+9.00,+8.00,+14.00,+10.00,+14.00,-41.00,-25.00,-8.00,-2.00,-2.00,-3.00,-4.00,-5.00
+4.00,-5.00,-8.00,-4.00,-10.00,+3.00,-1.00,+0.00,-3.00,+13.00,+10.00,+11.00,+2.00,-1.00,-1.00,-5.00
-7.00,-11.00,+10.00,+5.00,+8.00,-8.00,+2.00,+6.00,+4.00,-14.00,-7.00,+21.00,+22.00,+5.00,+0.00,+0.00
-19.00,+14.00,-20.00,-10.00,-3.00,+4.00,-6.00,-7.00,-18.00,+1.00,-4.00,-13.00,+13.00,-2.00,-1.00,-3.00
-8.00,+1.00,-14.00,-10.00,-8.00,-8.00,-11.00,-10.00,-14.00,-23.00,-8.00,-27.00,-56.00,-14.00,-6.00,-4.00
+4.00,-16.00,+32.00,+15.00,+4.00,+5.00,+8.00,+13.00,-11.00,-23.00,-13.00,-25.00,-32.00,-12.00,-10.00,-14.00
+12.00,+14.00,-3.00,-3.00,-9.00,+2.00,-1.00,+0.00,+1.00,-30.00,+3.00,+3.00,+1.00,+2.00,+4.00,+15.00
-19.00,-25.00,+1.00,-3.00,+5.00,-6.00,-4.00,-7.00,-11.00,+0.00,+6.00,+12.00,+14.00,+4.00,+3.00,+4.00
-7.00,-13.00,-8.00,-3.00,+0.00,-7.00,-4.00,-7.00,+99.00,+74.00,+32.00,+24.00,+29.00,+16.00,+13.00,+26.00
-19.00,+7.00,-31.00,-14.00,-10.00,-3.00,-8.00,-14.00,-7.00,-11.00,-9.00,+2.00,+13.00,-4.00,+6.00,+10.00
+22.00,-37.00,+26.00,+13.00,+10.00,+6.00,+4.00,+12.00,-8.00,-14.00,-5.00,-2.00,-14.00,+0.00,-4.00,-4.00
-15.00,-21.00,-8.00,-7.00,-15.00,+3.00,-3.00,-6.00,-27.00,-42.00,-7.00,-3.00,-1.00,-2.00,+0.00,-4.00
+3.00,+15.00,+3.00,+4.00,+3.00,-15.00,-2.00,+0.00,+39.00,+22.00,+8.00,-1.00,-1.00,-2.00,-4.00,-4.00
+1.00,+11.00,-1.00,+4.00,+2.00,-12.00,-1.00,-1.00,+28.00,-2.00,-1.00,+8.00,+5.00,+5.00,+2.00,+13.00
+4.00,+21.00,+0.00,-3.00,-2.00,-2.00,+0.00,-2.00,+12.00,+27.00,-5.00,-2.00,+10.00,-4.00,-7.00,-14.00
-7.00,-32.00,-6.00,-3.00,+1.00,+3.00,-2.00,-5.00,-4.00,+0.00,+1.00,-2.00,-28.00,-9.00,+1.00,+5.00
+11.00,+25.00,+12.00,+4.00,+2.00,+10.00,+3.00,+4.00,-9.00,+1.00,-1.00,-13.00,+3.00,-4.00,-6.00,-7.00
-23.00,-21.00,+16.00,+4.00,-1.00,-4.00,+1.00,+1.00,+10.00,+2.00,+5.00,-1.00,-7.00,-2.00,+0.00,+3.00
+7.00,+9.00,-3.00,-1.00,-7.00,+4.00,+1.00,-4.00,-20.00,-31.00,-4.00,+2.00,+9.00,+1.00,-2.00,-2.00
-16.00,-27.00,-11.00,-3.00,+5.00,-1.00,-1.00,-5.00,-34.00,-11.00,-9.00,-1.00,+3.00,-1.00,-8.00,-15.00
+20.00,+48.00,+16.00,+5.00,+3.00,+3.00,+1.00,-3.00,+22.00,+17.00,+7.00,+20.00,+19.00,+3.00,+0.00,+0.00
+5.00,+20.00,+4.00,+4.00,+8.00,+7.00,+1.00,-3.00,+14.00,-8.00,-3.00,-20.00,-32.00,-7.00,-1.00,+5.00
-55.00,-12.00,-8.00,-8.00,-11.00,-5.00,-8.00,-12.00,+9.00,+23.00,-4.00,-8.00,-6.00,-5.00,-3.00,+0.00
-6.00,+0.00,-1.00,-1.00,+6.00,-1.00,-7.00,+0.00,+24.00,-37.00,-10.00,-1.00,-3.00,+0.00,-1.00,-1.00
-13.00,-30.00,+0.00,+0.00,-6.00,-2.00,+5.00,+1.00,-16.00,+35.00,+10.00,+27.00,+18.00,+9.00,+4.00,+4.00
+11.00,+10.00,-3.00,+2.00,+4.00,-2.00,+0.00,+7.00,+7.00,+6.00,+0.00,-7.00,+18.00,-14.00,-4.00,-6.00
+21.00,-5.00,-3.00,+1.00,+2.00,+1.00,+2.00,+8.00,-20.00,-23.00,-10.00,-24.00,-37.00,+0.00,+1.00,+9.00
+3.00,+33.00,-6.00,-6.00,-5.00,+1.00,-3.00,+0.00,+26.00,+14.00,+8.00,+3.00,+1.00,+9.00,+0.00,+7.00
-9.00,-30.00,-8.00,-6.00,-5.00,-6.00,-3.00,-1.00,-41.00,-12.00,-6.00,-7.00,-2.00,+1.00,+0.00,-5.00
-9.00,-11.00,-5.00,-3.00,-5.00,-12.00,-5.00,-3.00,+14.00,+3.00,+0.00,+13.00,+9.00,+1.00,-3.00,+1.00
+5.00,-10.00,+2.00,+2.00,+3.00,+3.00,+4.00,+4.00,-11.00,-3.00,-2.00,+4.00,+8.00,-7.00,+2.00,-6.00
-16.00,+4.00,-6.00,-4.00,+1.00,+5.00,+1.00,-6.00,-7.00,-6.00,-2.00,-9.00,-12.00,-12.00,-2.00,+1.00
+12.00,+62.00,+16.00,+1.00,+1.00,+5.00,-2.00,+3.00,-31.00,-6.00,-2.00,+4.00,-2.00,+7.00,+0.00,-5.00
+11.00,-27.00,+4.00,+2.00,-2.00,+7.00,+1.00,+4.00,-13.00,-3.00,-4.00,-15.00,-18.00,-2.00,-7.00,-16.00
+6.00,+5.00,-9.00,+2.00,+12.00,-4.00,-1.00,+3.00,+25.00,+14.00,+4.00,+2.00,+10.00,-2.00,+0.00,+10.00
+28.00,+0.00,+7.00,+4.00,-1.00,-8.00,+2.00,-5.00,+8.00,-15.00,-1.00,+5.00,+5.00,+6.00,+2.00,+5.00
-19.00,-17.00,-12.00,-6.00,-3.00,+2.00,-3.00,-9.00,+2.00,-8.00,-4.00,+0.00,+7.00,+1.00,+2.00,+3.00
-5.00,+11.00,+2.00,-2.00,+0.00,-2.00,-1.00,-6.00,-3.00,+25.00,+9.00,+12.00,+18.00,+1.00,-7.00,-6.00
+5.00,-6.00,+5.00,-1.00,-1.00,+1.00,-2.00,+1.00,+28.00,-1.00,-5.00,-25.00,-45.00,-5.00,+3.00,-1.00
-3.00,-20.00,-11.00,-2.00,-6.00,-1.00,+0.00,+0.00,-3.00,-3.00,-7.00,-3.00,-2.00,-25.00,-9.00,-6.00
-3.00,-3.00,-6.00,-3.00,+1.00,-3.00,-2.00,-3.00,-33.00,-47.00,-9.00,-9.00,+3.00,+23.00,+1.00,-13.00
+8.00,+3.00,+2.00,+0.00,+0.00,+10.00,+2.00,+3.00,+43.00,+61.00,+22.00,+15.00,+8.00,+7.00,+7.00,+25.00
-3.00,-18.00,-7.00,+1.00,+7.00,-5.00,-1.00,-1.00,-27.00,-27.00,-3.00,+8.00,+19.00,+8.00,+1.00,+1.00
-16.00,+7.00,-6.00,-6.00,-8.00,-7.00,-6.00,-9.00,+12.00,+25.00,+4.00,+4.00,+5.00,-3.00,-1.00,-7.00
-1.00,-1.00,+8.00,+2.00,-1.00,+1.00,+0.00,-1.00,+19.00,-8.00,-7.00,-10.00,-13.00,-8.00,+1.00,+5.00
-2.00,-23.00,-8.00,-2.00,-8.00,+2.00,-1.00,+8.00,-28.00,-32.00,-6.00,-1.00,-2.00,+0.00,-4.00,-13.00
+12.00,+7.00,+10.00,+3.00,-2.00,+7.00,+2.00,+1.00,+4.00,+18.00,+5.00,+6.00,+9.00,+3.00,-2.00,-1.00
+4.00,-1.00,+1.00,+3.00,+14.00,-10.00,+0.00,+7.00,+4.00,+2.00,+3.00,+1.00,+1.00,+5.00,+0.00,+3.00
-10.00,+3.00,-10.00,-5.00,-6.00,-3.00,+0.00,-7.00,-19.00,-21.00,-8.00,+0.00,+12.00,-8.00,-6.00,-4.00
+9.00,-15.00,-4.00,-2.00,+3.00,+2.00,-6.00,-3.00,+0.00,+0.00,+3.00,+19.00,+12.00,+5.00,+4.00,+0.00
+15.00,+18.00,+15.00,+5.00,+2.00,+2.00,+5.00,+6.00,+1.00,-6.00,-6.00,-20.00,-17.00,-11.00,-2.00,+2.00
+4.00,+5.00,+3.00,+1.00,-8.00,+6.00,+2.00,+5.00,-3.00,-4.00,-5.00,-1.00,-4.00,+1.00,+2.00,-4.00
-9.00,-31.00,-12.00,-3.00,-6.00,+0.00,-5.00,-1.00,-11.00,-8.00,-2.00,-5.00,-11.00,-5.00,-7.00,-5.00
+5.00,+20.00,+1.00,-2.00,+10.00,+2.00,+6.00,-1.00,-27.00,-1.00,+0.00,+1.00,+27.00,-2.00,+1.00,-8.00
-6.00,+31.00,-13.00,-9.00,-6.00,-8.00,-4.00,-6.00,+43.00,-2.00,+1.00,+13.00,-14.00,+8.00,+3.00,+25.00
+9.00,-19.00,+18.00,+6.00,+3.00,+5.00,+5.00,+7.00,+11.00,+15.00,+2.00,+2.00,+14.00,-16.00,+3.00,+4.00
+0.00,+22.00,-3.00,-1.00,-4.00,+1.00,+1.00,+2.00,-4.00,+3.00,-3.00,-22.00,-26.00,-2.00,-4.00,-4.00
+7.00,-1.00,+0.00,-1.00,-5.00,+7.00,-3.00,-4.00,-23.00,-22.00,-13.00,-11.00,-17.00,-11.00,-7.00,-8.00
-1.00,+1.00,-3.00,-3.00,-6.00,-7.00,-1.00,-1.00,-30.00,-7.00,+6.00,+13.00,+28.00,+7.00,-3.00,-18.00
-5.00,+1.00,-3.00,+2.00,+22.00,+16.00,-1.00,-2.00,+29.00,+0.00,-4.00,+0.00,-2.00,-3.00,-1.00,+5.00
+7.00,-11.00,-4.00,+0.00,-5.00,-1.00,+1.00,+1.00,-1.00,+7.00,-4.00,+0.00,-2.00,-1.00,+1.00,-3.00
-26.00,-6.00,-5.00,+0.00,+2.00,-8.00,-3.00,-6.00,-19.00,-15.00,-2.00,-2.00,-6.00,-2.00,-7.00,-16.00
+0.00,-9.00,-3.00,-5.00,-4.00,+4.00,-2.00,+4.00,-11.00,-12.00,-5.00,-5.00,+0.00,-8.00,-2.00,-2.00
+11.00,+3.00,+3.00,+0.00,+2.00,+0.00,-5.00,-9.00,-15.00,-2.00,-2.00,-4.00,-4.00,+7.00,-4.00,-2.00
-6.00,-8.00,+1.00,+1.00,-13.00,+1.00,+8.00,+2.00,+6.00,-7.00,-2.00,+1.00,+0.00,-7.00,+1.00,+2.00
+2.00,+5.00,+3.00,+1.00,+4.00,-5.00,-3.00,-4.00,+7.00,+0.00,+1.00,+3.00,-10.00,+6.00,+0.00,+2.00
-16.00,-51.00,-19.00,-6.00,-1.00,-6.00,-8.00,-7.00,-19.00,-7.00,-6.00,+1.00,+13.00,-2.00,-4.00,-11.00
+14.00,+76.00,+13.00,+1.00,-5.00,-4.00,-3.00,+3.00,+6.00,+10.00,+5.00,-11.00,+1.00,+11.00,+5.00,+6.00
+0.00,-74.00,-1.00,+5.00,+7.00,+7.00,+9.00,+8.00,-5.00,-5.00,+2.00,+6.00,+5.00,-4.00,+0.00,+1.00
-2.00,+1.00,-5.00,-3.00,-7.00,-6.00,-9.00,-5.00,+6.00,-2.00,-1.00,-15.00,-26.00,-7.00,+0.00,+5.00
+11.00,+21.00,+16.00,+9.00,+9.00,+10.00,+3.00,+5.00,+8.00,+3.00,+2.00,+10.00,+6.00,+1.00,+1.00,+0.00
-47.00,-23.00,-18.00,-10.00,-16.00,-11.00,-12.00,-25.00,-17.00,-8.00,-1.00,-1.00,+7.00,+7.00,-4.00,-6.00
-5.00,-1.00,-6.00,-4.00,+4.00,-8.00,-6.00,-7.00,-3.00,+6.00,+1.00,-7.00,-17.00,-8.00,-2.00,-3.00
-4.00,+25.00,+6.00,+2.00,+2.00,-3.00,+10.00,+3.00,+10.00,-8.00,-5.00,-8.00,-23.00,-3.00,-1.00,-1.00
+2.00,-1.00,-6.00,-3.00,+3.00,+3.00,-4.00,-3.00,-12.00,+7.00,+2.00,+12.00,+12.00,-5.00,+1.00,+15.00
+6.00,-11.00,-5.00,+1.00,-7.00,-3.00,+4.00,+4.00,-10.00,-7.00,-3.00,-10.00,-12.00,-11.00,+0.00,-3.00
+11.00,+27.00,+14.00,+3.00,+10.00,-1.00,+0.00,+3.00,+10.00,-1.00,-3.00,-1.00,-2.00,-1.00,-3.00,+2.00
-3.00,-9.00,-1.00,-3.00,-6.00,-1.00,-2.00,-4.00,+1.00,-11.00,-5.00,-2.00,+1.00,-1.00,-1.00,+1.00
-3.00,+3.00,-7.00,-1.00,+7.00,+6.00,-3.00,-7.00,+41.00,+21.00,+8.00,+4.00,+1.00,+6.00,+0.00,-5.00
+3.00,+4.00,+0.00,-1.00,-12.00,-6.00,+6.00,+6.00,-9.00,+3.00,-6.00,+3.00,+0.00,-4.00,-7.00,-10.00
-7.00,-14.00,-8.00,-1.00,+5.00,-7.00,-4.00,+0.00,-9.00,-7.00,-3.00,+0.00,+5.00,-1.00,+1.00,+5.00
+6.00,-1.00,-2.00,-1.00,-11.00,-16.00,-4.00,+0.00,+16.00,+8.00,-2.00,-10.00,-7.00,+0.00,-3.00,+2.00
-9.00,-19.00,-5.00,-3.00,-3.00,-1.00,+1.00,-3.00,-4.00,+3.00,-1.00,+1.00,+6.00,-2.00,+0.00,+0.00
+36.00,+31.00,+4.00,-2.00,+1.00,+2.00,+0.00,+9.00,-27.00,-17.00,-6.00,+0.00,-5.00,+5.00,-2.00,-7.00
-3.00,-4.00,+2.00,+0.00,-6.00,-2.00,-7.00,+0.00,+25.00,+14.00,+3.00,-4.00,+1.00,-6.00,-1.00,-4.00
+7.00,-6.00,+1.00,+1.00,+11.00,+11.00,+8.00,+2.00,-7.00,-5.00,-2.00,+9.00,+5.00,+5.00,+1.00,+5.00
-6.00,-2.00,-11.00,-6.00,-10.00,-10.00,-4.00,-2.00,+2.00,+6.00,+5.00,+6.00,+1.00,+1.00,-3.00,-7.00
+0.00,-12.00,+12.00,+4.00,+3.00,-3.00,+0.00,+6.00,+9.00,+4.00,-2.00,-4.00,-8.00,-3.00,-1.00,+1.00
-11.00,+2.00,-5.00,-6.00,-2.00,+1.00,-5.00,-6.00,-18.00,-14.00,-7.00,-23.00,-21.00,-5.00,-4.00,-8.00
+1.00,-5.00,-7.00,-3.00,-5.00,+2.00,+0.00,-1.00,+1.00,+7.00,+0.00,-7.00,-4.00,-10.00,+1.00,-3.00
+16.00,+0.00,+8.00,+5.00,+0.00,-7.00,+3.00,+0.00,+1.00,-10.00,-1.00,+11.00,+11.00,+15.00,+3.00,+0.00
-22.00,-26.00,-13.00,-6.00,+5.00,+4.00,-2.00,-4.00,+7.00,+9.00,+3.00,-15.00,-35.00,-4.00,-2.00,+0.00
+9.00,+42.00,+5.00,+0.00,-8.00,-4.00,+0.00,-5.00,+0.00,+1.00,+0.00,+8.00,+16.00,-6.00,+1.00,+2.00
-14.00,-25.00,+5.00,+2.00,-1.00,-2.00,-4.00,-5.00,+7.00,+6.00,+4.00,+8.00,+2.00,+2.00,-1.00,+9.00
+3.00,+9.00,+1.00,-2.00,-3.00,-6.00,-1.00,+3.00,-10.00,-3.00,-7.00,-26.00,-1.00,-10.00,-3.00,-11.00
-5.00,-6.00,-4.00,-1.00,+3.00,+7.00,-2.00,-1.00,-9.00,-18.00,-3.00,+13.00,+5.00,+7.00,-2.00,-6.00
+5.00,-1.00,+0.00,+0.00,-12.00,-12.00,+0.00,-2.00,+24.00,+11.00,+1.00,+5.00,+2.00,-2.00,+0.00,-6.00
-1.00,+3.00,-6.00,+0.00,+3.00,-4.00,-3.00,-1.00,+4.00,+5.00,-1.00,-1.00,+6.00,-4.00,+3.00,+7.00
+5.00,+4.00,+2.00,+0.00,+5.00,-5.00,-2.00,-2.00,+7.00,-6.00,-4.00,+1.00,-2.00,-2.00,-4.00,-5.00
-3.00,+0.00,+0.00,-5.00,-8.00,-12.00,+2.00,-1.00,-12.00,+5.00,+6.00,+5.00,+8.00,-2.00,-1.00,-1.00
-20.00,-21.00,-9.00,+0.00,+2.00,+18.00,-4.00,-3.00,-17.00,-5.00,-3.00,-4.00,-9.00,-2.00,-5.00,-5.00
+15.00,+13.00,+0.00,-3.00,+1.00,-18.00,-3.00,+2.00,+17.00,+8.00,+1.00,+2.00,+12.00,+6.00,+4.00,+5.00
-18.00,-14.00,-3.00,-2.00,+0.00,+12.00,+2.00,-1.00,-8.00,-2.00,+1.00,-2.00,-4.00,-5.00,-6.00,-2.00
-4.00,-7.00,+0.00,+0.00,-6.00,-8.00,+0.00,+0.00,+25.00,+12.00,-1.00,-7.00,-2.00,+1.00,+1.00,-1.00
-9.00,+20.00,+10.00,+1.00,+5.00,+0.00,+1.00,-1.00,+0.00,+4.00,+2.00,+5.00,+3.00,+3.00,+1.00,+2.00
+11.00,+16.00,+3.00,+0.00,-1.00,+5.00,+0.00,+1.00,-4.00,-3.00,+0.00,+15.00,+8.00,+6.00,+1.00,-2.00
+1.00,-15.00,-3.00,+1.00,-4.00,-7.00,-1.00,-2.00,-16.00,-20.00,-7.00,-4.00,+9.00,-6.00,-6.00,-6.00
-4.00,+8.00,+2.00,+1.00,+6.00,+3.00,-2.00,-1.00,-4.00,+2.00,-1.00,+4.00,+7.00,+3.00,+1.00,+3.00
+12.00,+36.00,+0.00,-4.00,-2.00,+4.00,-3.00,-2.00,-14.00,-1.00,-1.00,-9.00,-31.00,-7.00,-8.00,-5.00
-8.00,-11.00,-1.00,-1.00,+1.00,+6.00,+0.00,-3.00,-8.00,-4.00,-3.00,-4.00,-8.00,-1.00,+0.00,-2.00
-11.00,-1.00,+3.00,-2.00,-2.00,+2.00,+1.00,-6.00,+2.00,-9.00,-4.00,-18.00,-13.00,-7.00,-2.00,+1.00
-2.00,-3.00,-10.00,-1.00,-3.00,+1.00,-4.00,-3.00,-7.00,+8.00,+6.00,+11.00,+12.00,+4.00,-1.00,-4.00
+3.00,-26.00,-3.00,-1.00,+6.00,-9.00,-1.00,+4.00,-2.00,+1.00,-2.00,+10.00,+17.00,+1.00,+0.00,+12.00
-12.00,-3.00,+1.00,-3.00,-2.00,+1.00,-3.00,-4.00,-10.00,-20.00,-4.00,-3.00,-4.00,+6.00,-3.00,-8.00
+7.00,+9.00,+1.00,-2.00,-12.00,+0.00,-1.00,+2.00,-2.00,-14.00,-10.00,-9.00,+0.00,-5.00,-2.00,+3.00
-13.00,-17.00,-11.00,-3.00,+9.00,-9.00,-4.00,-5.00,-2.00,+1.00,-1.00,-11.00,-14.00,-6.00,-3.00,-4.00
+6.00,+3.00,+4.00,+0.00,-24.00,-9.00,+3.00,+3.00,-7.00,+2.00,+9.00,+4.00,+1.00,+3.00,+3.00,-3.00
-9.00,+2.00,-4.00,-5.00,+7.00,-10.00,-4.00,-7.00,+20.00,+14.00,+3.00,-6.00,-2.00,-1.00,-5.00,+2.00
+4.00,+5.00,+7.00,+3.00,+6.00,+10.00,+3.00,+4.00,+5.00,+1.00,+0.00,+10.00,+1.00,+3.00,-1.00,+4.00
+9.00,-4.00,-1.00,+3.00,-4.00,-9.00,+5.00,+8.00,-18.00,-13.00,-4.00,+1.00,+4.00,-1.00,-4.00,-7.00
+4.00,+0.00,-9.00,-5.00,+7.00,+9.00,+0.00,-7.00,+22.00,+2.00,-5.00,-4.00,-6.00,-3.00,-2.00,-1.00
+10.00,-36.00,-11.00,-4.00,-11.00,+2.00,-2.00,+0.00,-2.00,-5.00,+0.00,+3.00,+10.00,+1.00,+0.00,-1.00
+36.00,+68.00,+22.00,+6.00,+14.00,+10.00,+1.00,+6.00,-4.00,+6.00,+5.00,+10.00,+4.00,+5.00,+3.00,-5.00
-4.00,-4.00,-2.00,+1.00,-10.00,-5.00,+4.00,+12.00,+5.00,-3.00,-8.00,-28.00,-31.00,-9.00,-3.00,-1.00
-4.00,-20.00,-11.00,-1.00,+2.00,-12.00,-4.00,-6.00,-10.00,+0.00,+2.00,-1.00,+2.00,+3.00,+2.00,-2.00
-1.00,+3.00,+1.00,+1.00,-2.00,+7.00,+1.00,+1.00,+0.00,-3.00,-2.00,-4.00,+0.00,-3.00,-2.00,-2.00
+3.00,-6.00,-3.00,+0.00,+7.00,-5.00,-1.00,+0.00,+8.00,+3.00,+1.00,-2.00,-8.00,-4.00,-2.00,-5.00
+6.00,-3.00,+0.00,-3.00,-2.00,+12.00,-3.00,-2.00,+8.00,+13.00,+3.00,+15.00,+20.00,+3.00,+0.00,+5.00
+0.00,+4.00,-1.00,-1.00,-1.00,-6.00,-5.00,-1.00,-14.00,-19.00,-2.00,-8.00,-8.00,-1.00,+0.00,+5.00
+1.00,+12.00,-3.00,-1.00,+1.00,+3.00,+1.00,-1.00,-18.00,-9.00,-3.00,+7.00,+0.00,-7.00,-1.00,-9.00
-15.00,-15.00,-3.00,-1.00,-4.00,-5.00,-1.00,+0.00,+9.00,+5.00,-1.00,-15.00,-2.00,+19.00,+0.00,+1.00
+0.00,+10.00,+4.00,+1.00,+1.00,+10.00,+1.00,-3.00,-5.00,-6.00,-2.00,+3.00,+11.00,-1.00,+4.00,+3.00
-10.00,-26.00,-7.00,+1.00,+10.00,-1.00,-2.00,-1.00,+11.00,+7.00,+0.00,-2.00,-5.00,-1.00,+1.00,+3.00
+1.00,+8.00,+8.00,+2.00,+0.00,-2.00,+0.00,+1.00,-5.00,+6.00,-2.00,-2.00,-3.00,+0.00,-2.00,-7.00
-8.00,+1.00,+0.00,-2.00,-6.00,-4.00,+0.00,+1.00,-6.00,-11.00,-5.00,+4.00,-2.00,-6.00,-4.00,+2.00
-4.00,-8.00,-5.00,-4.00,+2.00,+2.00,+0.00,+0.00,-16.00,-11.00,-1.00,+7.00,+9.00,+8.00,+0.00,-2.00
-4.00,-1.00,-4.00,-4.00,+1.00,+5.00,+0.00,-4.00,+26.00,+7.00,-3.00,-2.00,+5.00,+3.00,+3.00,+6.00
+12.00,+3.00,-1.00,+3.00,+10.00,+13.00,-1.00,+0.00,+0.00,+1.00,+1.00,-3.00,-4.00,-6.00,+0.00,+0.00
-8.00,-11.00,-6.00,-4.00,-19.00,-12.00,+1.00,-3.00,-31.00,-13.00,-6.00,-1.00,-2.00,-6.00,-1.00,-12.00
+0.00,-6.00,-1.00,+0.00,-1.00,-14.00,-3.00,-2.00,+37.00,+10.00,+6.00,+1.00,-1.00,+3.00,+3.00,+13.00
-1.00,+6.00,+5.00,+2.00,-4.00,+1.00,-6.00,+2.00,+0.00,+0.00,+0.00,+3.00,+5.00,-3.00,-2.00,-6.00
-9.00,+3.00,+0.00,+0.00,+0.00,-1.00,+2.00,+3.00,+0.00,-5.00,-8.00,-6.00,-4.00,-1.00,-4.00,-6.00
-12.00,-31.00,-10.00,-3.00,-1.00,+0.00,-3.00,-5.00,+3.00,+7.00,+5.00,+2.00,-2.00,-2.00,+1.00,-4.00
+7.00,-3.00,-1.00,-4.00,-2.00,-1.00,-1.00,-6.00,-15.00,-7.00,-6.00,-6.00,-8.00,-5.00,-5.00,-7.00
+7.00,+23.00,+10.00,+2.00,+2.00,+1.00,+1.00,-3.00,-9.00,-1.00,+3.00,+7.00,+10.00,+1.00,+0.00,-2.00
-22.00,-1.00,-2.00,-3.00,-3.00,+2.00,-1.00,+3.00,-11.00,-8.00,+0.00,+8.00,-7.00,+4.00,-1.00,-3.00
+15.00,-3.00,+0.00,+2.00,+2.00,+0.00,+1.00,+4.00,+8.00,+13.00,+1.00,-25.00,+4.00,-8.00,-2.00,+5.00
-8.00,+4.00,-6.00,-2.00,-2.00,+2.00,-6.00,-4.00,-3.00,-5.00,-4.00,+3.00,-12.00,-6.00,-2.00,-1.00
-3.00,-22.00,-2.00,+1.00,+5.00,+2.00,+3.00,+4.00,+6.00,-1.00,-2.00,-4.00,+0.00,+0.00,-2.00,-3.00
+10.00,+26.00,+14.00,+3.00,-1.00,+2.00,+1.00,+5.00,-19.00,-4.00,+1.00,+1.00,-14.00,-5.00,-5.00,-12.00
-7.00,-7.00,-8.00,-4.00,-3.00,-5.00,-3.00,-3.00,-13.00,-12.00,+0.00,+2.00,-1.00,+7.00,+3.00,+3.00
-20.00,+12.00,+5.00,+3.00,+6.00,+14.00,+4.00,+2.00,+8.00,-1.00,+0.00,+6.00,-3.00,-4.00,+1.00,+3.00
-4.00,-15.00,-12.00,-6.00,-14.00,-8.00,-3.00,-9.00,-13.00,-6.00,-7.00,-18.00,-5.00,-4.00,-4.00,-6.00
+3.00,+7.00,-3.00,+0.00,-2.00,-9.00,+1.00,-3.00,+4.00,+0.00,-4.00,-4.00,-1.00,+1.00,-2.00,-2.00
+0.00,+5.00,+3.00,-2.00,-11.00,+11.00,-4.00,+2.00,+13.00,+14.00,+3.00,+9.00,-4.00,-14.00,+0.00,-4.00
-5.00,-10.00,+1.00,+3.00,+16.00,-7.00,-1.00,-3.00,-6.00,-4.00,-2.00,-2.00,+5.00,+3.00,+1.00,-2.00
-4.00,+4.00,+2.00,-2.00,+3.00,+7.00,+2.00,+1.00,-7.00,+1.00,-2.00,+3.00,+3.00,-1.00,-2.00,-4.00
-8.00,-17.00,-9.00,-5.00,-9.00,-9.00,-4.00,-6.00,+9.00,-7.00,+2.00,-4.00,+7.00,+1.00,+0.00,+3.00
+4.00,-10.00,-3.00,-1.00,+17.00,+9.00,-3.00,-5.00,+17.00,-1.00,-1.00,+2.00,-3.00,-1.00,-2.00,+7.00
+4.00,+47.00,+22.00,+6.00,-24.00,-14.00,+5.00,+0.00,-2.00,-3.00,+1.00,-2.00,-1.00,+6.00,-2.00,-5.00
-3.00,-3.00,-2.00,-2.00,-3.00,+1.00,+5.00,+3.00,-4.00,-2.00,+1.00,+8.00,+0.00,-4.00,-3.00,-5.00
+3.00,+1.00,+0.00,+1.00,+7.00,-7.00,-2.00,-2.00,+0.00,+6.00,-3.00,-9.00,+0.00,-1.00,+0.00,+1.00
+12.00,-1.00,-7.00,-5.00,-2.00,-8.00,-3.00,-11.00,-30.00,-12.00,-1.00,+1.00,-2.00,+1.00,-1.00,+2.00
-24.00,-18.00,-9.00,-3.00,-1.00,+3.00,-1.00,-4.00,+20.00,+5.00,+4.00,+3.00,+0.00,-2.00,-1.00,+3.00
+5.00,+5.00,+3.00,+0.00,+3.00,+2.00,-4.00,+2.00,-2.00,+3.00,-4.00,-3.00,+0.00,+2.00,-1.00,-2.00
-17.00,-23.00,-4.00,-3.00,-8.00,-7.00,-2.00,-1.00,-14.00,-8.00,-3.00,-4.00,-1.00,-2.00,-1.00,+2.00
+6.00,+16.00,+2.00,+2.00,-1.00,-4.00,-1.00,+2.00,+8.00,+15.00,+2.00,+6.00,-4.00,+1.00,+0.00,-1.00
-3.00,-19.00,-4.00,+1.00,+1.00,+2.00,-6.00,-4.00,-14.00,+1.00,+1.00,-2.00,-3.00,-6.00,-3.00,-2.00
-11.00,+9.00,-5.00,-3.00,-1.00,-1.00,+5.00,-2.00,-2.00,-10.00,+3.00,+22.00,+23.00,+5.00,+0.00,-2.00
+7.00,-5.00,+1.00,+1.00,+4.00,+6.00,-1.00,+1.00,-5.00,-2.00,-11.00,-48.00,-57.00,-19.00,-6.00,-6.00
-13.00,-23.00,-6.00,-3.00,-4.00,-8.00,-3.00,+1.00,+12.00,+1.00,-1.00,+5.00,+3.00,+13.00,+5.00,+3.00
+19.00,-2.00,-6.00,-3.00,+1.00,+4.00,+4.00,+9.00,-1.00,-8.00,-3.00,-3.00,+3.00,-3.00,-2.00,-3.00
+8.00,+39.00,+17.00,+1.00,+4.00,+1.00,-1.00,+6.00,-4.00,-1.00,+0.00,+2.00,-5.00,-1.00,+2.00,-1.00
-9.00,-13.00,-4.00,-4.00,-3.00,-4.00,-4.00,-4.00,+0.00,-1.00,+3.00,+15.00,+17.00,+3.00,+2.00,+5.00
-5.00,+6.00,+6.00,+3.00,-1.00,-5.00,+1.00,-1.00,-11.00,-9.00,-6.00,-5.00,-5.00,-4.00,-2.00,-9.00
+2.00,-16.00,-10.00,-5.00,-3.00,+8.00,-3.00,-3.00,-2.00,-1.00,-3.00,-2.00,+1.00,-2.00,-3.00,+3.00
+22.00,+13.00,+6.00,+3.00,+5.00,-3.00,-1.00,+7.00,+12.00,+3.00,+0.00,-8.00,-5.00,+0.00,+0.00,-1.00
+0.00,-3.00,+2.00,-2.00,+0.00,-1.00,-1.00,-1.00,+7.00,+16.00,+5.00,+7.00,+10.00,+2.00,+2.00,+4.00
-16.00,+4.00,-2.00,+2.00,-3.00,-18.00,-2.00,-1.00,-8.00,-17.00,-8.00,-7.00,-9.00,-8.00,-3.00,-2.00
+3.00,-12.00,-4.00,-2.00,+1.00,+0.00,+3.00,-3.00,-8.00,-2.00,+0.00,+7.00,+8.00,+5.00,+3.00,+1.00
-8.00,-7.00,-5.00,-1.00,-3.00,-2.00,-6.00,-3.00,-26.00,-3.00,-4.00,-4.00,-6.00,-5.00,-4.00,+0.00
+5.00,-6.00,+1.00,-2.00,+7.00,+1.00,-4.00,-2.00,+20.00,+4.00,+3.00,+5.00,+8.00,+6.00,+3.00,+4.00
-5.00,+18.00,+4.00,-1.00,-4.00,+6.00,+3.00,+1.00,+10.00,+6.00,+1.00,+2.00,-1.00,-4.00,-2.00,+0.00
+6.00,-4.00,-2.00,-3.00,-8.00,-8.00,-3.00,-4.00,-5.00,-3.00,-1.00,-1.00,-3.00,-2.00,-3.00,-8.00
-6.00,-16.00,-7.00,-3.00,+0.00,-3.00,-2.00,-5.00,-3.00,-9.00,-2.00,+2.00,+2.00,+1.00,-3.00,-3.00
+2.00,+7.00,-2.00,+1.00,-2.00,+0.00,-1.00,+2.00,-4.00,+8.00,+1.00,-4.00,+4.00,-1.00,+0.00,+0.00
-1.00,-7.00,-3.00,-3.00,-2.00,+0.00,-2.00,-5.00,-5.00,-3.00,-2.00,-1.00,-3.00,-2.00,-1.00,-1.00
+8.00,-1.00,-3.00,-4.00,+0.00,+0.00,+1.00,+8.00,-10.00,-4.00,-4.00,-1.00,-1.00,-1.00,-3.00,-7.00
+6.00,-2.00,-1.00,+2.00,-1.00,+3.00,+4.00,+11.00,-2.00,-2.00,-4.00,+1.00,+0.00,-2.00,-1.00,+2.00
+10.00,+8.00,-3.00,-1.00,-2.00,+3.00,+1.00,+2.00,+1.00,-2.00,+4.00,+6.00,+2.00,+2.00,+1.00,+0.00
-3.00,-14.00,+4.00,+3.00,+1.00,+0.00,+1.00,+1.00,+4.00,+6.00,+1.00,+11.00,+5.00,-1.00,+0.00,+2.00
+0.00,-7.00,-7.00,-3.00,+1.00,+0.00,-1.00,-5.00,+7.00,-4.00,-12.00,-48.00,-48.00,-12.00,-5.00,-1.00
-10.00,-10.00,-3.00,-4.00,-3.00,-6.00,-2.00,+0.00,+1.00,-3.00,-1.00,+0.00,+3.00,+0.00,+2.00,+3.00
+0.00,+4.00,-2.00,-2.00,-7.00,+10.00,+0.00,-2.00,-8.00,-7.00,-3.00,+1.00,+3.00,-1.00,-2.00,+3.00
+13.00,+6.00,+0.00,+2.00,+5.00,-7.00,-1.00,+4.00,+4.00,+2.00,+4.00,+0.00,+1.00,+3.00,+0.00,+6.00
-20.00,+17.00,+3.00,-1.00,+0.00,+1.00,-1.00,-5.00,+4.00,+4.00,+3.00,+11.00,+7.00,+0.00,+2.00,+4.00
-8.00,-8.00,-4.00,-2.00,-8.00,-4.00,-3.00,-7.00,+4.00,+1.00,+0.00,-3.00,-4.00,+16.00,-1.00,-4.00
-10.00,-5.00,-3.00,-2.00,-4.00,+0.00,-1.00,-4.00,-16.00,-11.00,-6.00,-4.00,-1.00,-2.00,-2.00,-10.00
-2.00,+1.00,+2.00,+1.00,+3.00,+6.00,+1.00,+4.00,+10.00,-2.00,-3.00,-4.00,-2.00,-3.00,+0.00,+1.00
+3.00,-15.00,-3.00,-1.00,-4.00,+2.00,-3.00,-3.00,-7.00,-5.00,-2.00,+7.00,+9.00,-2.00,-1.00,+1.00
-1.00,+3.00,+0.00,+3.00,+8.00,-10.00,-3.00,-4.00,+1.00,+4.00,+0.00,-5.00,-5.00,-7.00,-2.00,-3.00
-8.00,+6.00,+1.00,+0.00,-2.00,-3.00,-2.00,-5.00,-13.00,-12.00,-1.00,+7.00,+7.00,+2.00,-4.00,-10.00
-9.00,-3.00,-5.00,-4.00,-1.00,+2.00,-1.00,-5.00,+12.00,+7.00,+3.00,-2.00,+1.00,+1.00,+0.00,-2.00
+24.00,+5.00,+3.00,+1.00,+3.00,+0.00,-7.00,-7.00,-11.00,-2.00,-3.00,+1.00,+1.00,+0.00,-2.00,-4.00
+2.00,-9.00,-1.00,-1.00,-4.00,+0.00,+13.00,+3.00,-3.00,+3.00,+1.00,-4.00,-4.00,-4.00,-1.00,+0.00
-4.00,-15.00,-3.00,+1.00,+0.00,-8.00,-7.00,-1.00,+11.00,+9.00,-2.00,+2.00,+3.00,-1.00,-4.00,-2.00
-6.00,+12.00,-3.00,-1.00,-3.00,+2.00,-4.00,-11.00,-3.00,-10.00,-4.00,-5.00,-5.00,-4.00,-3.00,-2.00
-30.00,-13.00,+2.00,+2.00,+0.00,+2.00,+2.00,-8.00,+8.00,+6.00,+2.00,+3.00,+1.00,+0.00,+1.00,-1.00
-2.00,+13.00,-3.00,-2.00,-3.00,+3.00,-5.00,-4.00,-3.00,-2.00,-4.00,-5.00,-5.00,-4.00,-2.00,-4.00
+9.00,-17.00,-3.00,-1.00,+1.00,-2.00,+1.00,+5.00,-1.00,-1.00,+0.00,+7.00,+11.00,+0.00,+2.00,+0.00
+11.00,+12.00,+7.00,-1.00,+0.00,+1.00,+0.00,-4.00,+1.00,+1.00,-1.00,-5.00,-4.00,-1.00,-2.00,+4.00
-6.00,+2.00,-1.00,-1.00,+1.00,-3.00,-3.00,+1.00,+0.00,-3.00,+0.00,+0.00,-5.00,+2.00,-3.00,-10.00
-7.00,-1.00,-1.00,-4.00,+6.00,+4.00,-3.00,+2.00,+0.00,-3.00,-2.00,+2.00,+13.00,-5.00,-2.00,-2.00
-8.00,-7.00,-4.00,-3.00,-9.00,-7.00,+2.00,+1.00,+6.00,+6.00,+2.00,-4.00,-4.00,+0.00,+3.00,+8.00
+4.00,-17.00,-9.00,-3.00,-2.00,+0.00,-2.00,+4.00,-7.00,-7.00,-2.00,+0.00,+0.00,-1.00,-1.00,-4.00
+4.00,+9.00,+5.00,+1.00,+1.00,+1.00,+0.00,-1.00,-2.00,-2.00,+4.00,+8.00,+6.00,+0.00,-3.00,-10.00
-3.00,-9.00,-1.00,+0.00,-1.00,-2.00,+0.00,-1.00,+2.00,-1.00,+0.00,+3.00,+3.00,-2.00,+0.00,+7.00
+9.00,+25.00,+4.00,+1.00,+3.00,+3.00,+1.00,+0.00,+2.00,+3.00,+2.00,-3.00,-5.00,-2.00,-2.00,+0.00
-3.00,-11.00,-2.00,-1.00,-1.00,+1.00,+0.00,+4.00,-9.00,-3.00,-2.00,-1.00,-1.00,+0.00,-4.00,-11.00
+7.00,+12.00,-1.00,-2.00,-4.00,+4.00,-1.00,-2.00,+7.00,+6.00,+1.00,+5.00,+6.00,+2.00,+0.00,-2.00
-4.00,-4.00,+1.00,+2.00,+2.00,-6.00,-3.00,-6.00,-6.00,-4.00,-3.00,-4.00,-7.00,-3.00,-2.00,-4.00
+0.00,-2.00,+8.00,+4.00,-5.00,-1.00,+2.00,-4.00,+8.00,+3.00,+2.00,+0.00,-2.00,-2.00,+0.00,+4.00
+1.00,+5.00,+1.00,+1.00,-1.00,-3.00,-2.00,-1.00,+3.00,+2.00,+0.00,-1.00,+0.00,-1.00,-1.00,-10.00
+0.00,-1.00,-2.00,-2.00,+11.00,+2.00,+1.00,+5.00,-22.00,-19.00,-7.00,-4.00,+0.00,-2.00,+2.00,+2.00
+8.00,-14.00,-6.00,-3.00,-9.00,+1.00,-3.00,-1.00,+8.00,+5.00,+1.00,-2.00,-2.00,+0.00,-1.00,-2.00
-20.00,-1.00,-5.00,-3.00,-2.00,-3.00,-1.00,-2.00,-9.00,-11.00,-4.00,-4.00,-6.00,+0.00,+1.00,+5.00
-2.00,+9.00,-3.00,+0.00,+2.00,-3.00,+0.00,+1.00,+14.00,+15.00,+1.00,+2.00,-1.00,-2.00,+1.00,+7.00
+6.00,+2.00,+12.00,+4.00,+0.00,+0.00,+0.00,+1.00,-8.00,-4.00,+2.00,+3.00,+1.00,-1.00,-1.00,-1.00
+1.00,-2.00,-1.00,-2.00,-1.00,+3.00,+1.00,+5.00,+1.00,-4.00,-3.00,-10.00,-14.00,-2.00,+0.00,-3.00
+4.00,-17.00,-6.00,-5.00,+1.00,-3.00,-9.00,-3.00,+2.00,-3.00,-3.00,-4.00,+3.00,-1.00,-2.00,-4.00
-3.00,+11.00,+0.00,-3.00,+0.00,+1.00,+3.00,+3.00,-5.00,-1.00,-1.00,+1.00,-1.00,-7.00,+0.00,+2.00
-15.00,-18.00,-10.00,-4.00,-6.00,-3.00,-2.00,+4.00,-1.00,-5.00,-4.00,-2.00,+3.00,+2.00,-1.00,+0.00
-4.00,+7.00,+12.00,+4.00,+1.00,+2.00,+0.00,-5.00,+20.00,+9.00,+6.00,+4.00,-10.00,-2.00,-1.00,-2.00
-5.00,-3.00,-6.00,-2.00,-2.00,-1.00,-2.00,+0.00,+6.00,+2.00,+0.00,+0.00,+3.00,-6.00,-5.00,-2.00
+1.00,+7.00,+0.00,-1.00,+1.00,+1.00,+0.00,+1.00,-10.00,-2.00,-5.00,+1.00,+6.00,+8.00,-1.00,-8.00
+0.00,-1.00,-7.00,-4.00,+1.00,-5.00,-1.00,-1.00,-1.00,+1.00,-3.00,-4.00,-2.00,-2.00,-3.00,-1.00
-1.00,+0.00,-3.00,-3.00,-14.00,-2.00,-2.00,-1.00,-8.00,-6.00,-2.00,+1.00,+4.00,+1.00,-2.00,-3.00
+5.00,+14.00,+2.00,+0.00,+12.00,+4.00,+1.00,+2.00,+7.00,+6.00,+2.00,-2.00,-3.00,-3.00,-2.00,-4.00
-1.00,-4.00,-1.00,-1.00,-2.00,-8.00,-2.00,-1.00,-3.00,+2.00,+1.00,+1.00,+0.00,-3.00,-4.00,+0.00
+10.00,+3.00,-1.00,-1.00,-6.00,+1.00,+3.00,+2.00,+1.00,+0.00,-2.00,-2.00,+0.00,-2.00,+0.00,+3.00
+0.00,-5.00,+2.00,+0.00,-5.00,-3.00,-5.00,-1.00,-15.00,-17.00,-5.00,-4.00,-4.00,+2.00,-1.00,-5.00
-11.00,+10.00,+1.00,-1.00,+4.00,+7.00,+2.00,-1.00,+11.00,+7.00,-1.00,+1.00,+2.00,-1.00,+2.00,+1.00
+22.00,-16.00,-4.00,+0.00,-5.00,-8.00,-6.00,-5.00,+2.00,-9.00,-3.00,-5.00,-5.00,-4.00,+1.00,+0.00
-25.00,-4.00,-5.00,-3.00,-5.00,-3.00,+5.00,-2.00,+15.00,+10.00,+7.00,+1.00,-1.00,+3.00,+4.00,+5.00
-2.00,+2.00,-4.00,-1.00,+5.00,+0.00,-1.00,+2.00,+2.00,+3.00,-2.00,-3.00,+0.00,-6.00,-5.00,+0.00
-6.00,-4.00,+0.00,+1.00,-6.00,-3.00,-2.00,+5.00,-7.00,+1.00,-2.00,-2.00,-4.00,+1.00,+2.00,+4.00
-1.00,+2.00,+3.00,+1.00,+9.00,+5.00,+3.00,+0.00,-16.00,-15.00,-4.00,-4.00,-3.00,-1.00,-1.00,+7.00
+12.00,-8.00,-3.00,-4.00,-4.00,-4.00,-7.00,-3.00,+6.00,+3.00,+0.00,+0.00,-3.00,-3.00,-2.00,-1.00
-11.00,+11.00,-6.00,-5.00,-1.00,-1.00,-3.00,-6.00,+9.00,+7.00,+4.00,+9.00,+10.00,+0.00,+0.00,+2.00
+16.00,+8.00,+9.00,+3.00,+3.00,-4.00,-1.00,+3.00,-12.00,-14.00,-3.00,+3.00,+2.00,-1.00,-5.00,-6.00
-13.00,-25.00,-6.00,+0.00,-1.00,+2.00,+0.00,-1.00,-3.00,+0.00,+2.00,-4.00,-12.00,+2.00,-2.00,-3.00
-9.00,+2.00,-2.00,+0.00,-1.00,-3.00,-4.00,-5.00,+3.00,+4.00,-2.00,-4.00,+6.00,-8.00,+0.00,+1.00
+17.00,+0.00,-2.00,-2.00,+1.00,+1.00,+1.00,+6.00,-9.00,-8.00,-2.00,-1.00,+0.00,+13.00,-1.00,-1.00
+1.00,-8.00,-9.00,-3.00,-4.00,-2.00,-3.00,-2.00,+1.00,-7.00,-3.00,+2.00,+3.00,+0.00,+0.00,-6.00
-35.00,+1.00,+2.00,+0.00,-4.00,-2.00,-1.00,-9.00,-5.00,+10.00,+4.00,-1.00,-1.00,-3.00,+1.00,+0.00
+5.00,-18.00,+1.00,+0.00,-3.00,-6.00,-4.00,+2.00,+15.00,+1.00,+0.00,+3.00,+1.00,+3.00,+0.00,+0.00
+3.00,+1.00,+3.00,+0.00,+6.00,+2.00,-1.00,-3.00,+3.00,+4.00,+2.00,-1.00,-5.00,-10.00,-3.00,-3.00
